 #
 # Subroutine ELSEPA. Elastic scattering of electrons and positrons
 #                    by neutral atoms and positive ions
 #
 # Projectile: positron
 # Kinetic energy = 6.00000E+07 eV = 2.20496E+06 a.u.
 #
 # WARNING: High-energy factorization with free-atom DF screening.
 #          Absorption, polarization and exchange corrections are
 #          switched off.
 #          Phase shifts are calculated for the bare nucleus.
 #          Scattering amplitudes are not evaluated.
 #
 # Element: Hf,  Z =  72,  atomic weight = 1.78490E+02 g/mol
 #
 # Nuclear model: Fermi distribution
 #                Average radius = 6.02451E-13 cm
 #                Skin thickness = 5.46000E-14 cm
 #
 # Number of electrons = 72
 #
 # Total elastic cross section = 7.31172E-18 cm**2 = 2.61106E-01 a0**2
 # 1st transport cross section = 2.52050E-24 cm**2 = 9.00086E-08 a0**2
 # 2nd transport cross section = 7.42264E-24 cm**2 = 2.65067E-07 a0**2
 #
 #
 # Differential cross section:                       MU=(1-COS(THETA))/2
 #
 #  THETA        MU          DCS          DCS        Sherman      error
 #  (deg)                 (cm**2/sr)   (a0**2/sr)    function
 #----------------------------------------------------------------------
0.00000E+00 2.31350E-10
7.61557E-13 2.31077E-10
1.18994E-12 2.30924E-10
1.71346E-12 2.30737E-10
2.33225E-12 2.30517E-10
3.04617E-12 2.30264E-10
3.85530E-12 2.29978E-10
4.75964E-12 2.29658E-10
5.75917E-12 2.29306E-10
6.85391E-12 2.28921E-10
8.04379E-12 2.28504E-10
9.32893E-12 2.28056E-10
1.07092E-11 2.27575E-10
1.21847E-11 2.27064E-10
1.37554E-11 2.26521E-10
1.54213E-11 2.25948E-10
1.71823E-11 2.25345E-10
1.90386E-11 2.24713E-10
2.09900E-11 2.24051E-10
2.30367E-11 2.23360E-10
2.51785E-11 2.22641E-10
2.74156E-11 2.21894E-10
2.97478E-11 2.21120E-10
3.21752E-11 2.20319E-10
3.46979E-11 2.19492E-10
3.73157E-11 2.18639E-10
4.00286E-11 2.17761E-10
4.28368E-11 2.16859E-10
4.57402E-11 2.15932E-10
4.87388E-11 2.14982E-10
5.18325E-11 2.14009E-10
5.50215E-11 2.13014E-10
5.83057E-11 2.11997E-10
6.16850E-11 2.10960E-10
6.51595E-11 2.09899E-10
6.87293E-11 2.08818E-10
7.23943E-11 2.07718E-10
7.61544E-11 2.06602E-10
1.18991E-10 1.94579E-10
1.71347E-10 1.81429E-10
2.33223E-10 1.67758E-10
3.04617E-10 1.54084E-10
3.85531E-10 1.40814E-10
4.75965E-10 1.28237E-10
5.75917E-10 1.16535E-10
6.85389E-10 1.05810E-10
8.04380E-10 9.60864E-11
9.32891E-10 8.73406E-11
1.07092E-09 7.95166E-11
1.21847E-09 7.25406E-11
1.37554E-09 6.63307E-11
1.54213E-09 6.08040E-11
1.71823E-09 5.58811E-11
1.90386E-09 5.14862E-11
2.09900E-09 4.75529E-11
2.30367E-09 4.40244E-11
2.51785E-09 4.08492E-11
2.74156E-09 3.79827E-11
2.97478E-09 3.53862E-11
3.21752E-09 3.30266E-11
3.46978E-09 3.08755E-11
3.73156E-09 2.89084E-11
4.00286E-09 2.71046E-11
4.28368E-09 2.54431E-11
4.57402E-09 2.39110E-11
4.87388E-09 2.24957E-11
5.18326E-09 2.11856E-11
5.50215E-09 1.99706E-11
5.83057E-09 1.88419E-11
6.16850E-09 1.77917E-11
6.51596E-09 1.67447E-11
6.87293E-09 1.57646E-11
7.23942E-09 1.48740E-11
7.61544E-09 1.40630E-11
1.18991E-08 8.46019E-12
1.71347E-08 5.36538E-12
2.33223E-08 3.55728E-12
3.04617E-08 2.44617E-12
3.85531E-08 1.73186E-12
4.75965E-08 1.25459E-12
5.75917E-08 9.26027E-13
6.85389E-08 6.95947E-13
8.04380E-08 5.31755E-13
9.32891E-08 4.12648E-13
1.07092E-07 3.24936E-13
1.21847E-07 2.59404E-13
1.37554E-07 2.09747E-13
1.54213E-07 1.71676E-13
1.71823E-07 1.41889E-13
1.90386E-07 1.18408E-13
2.09900E-07 9.97085E-14
2.30367E-07 8.46467E-14
2.51785E-07 7.23764E-14
2.74156E-07 6.22758E-14
2.97478E-07 5.38858E-14
3.21752E-07 4.68635E-14
3.46978E-07 4.09485E-14
3.73156E-07 3.59383E-14
4.00286E-07 3.16724E-14
4.28368E-07 2.80199E-14
4.57402E-07 2.48785E-14
4.87388E-07 2.21641E-14
5.18325E-07 1.98080E-14
5.50215E-07 1.77548E-14
5.83057E-07 1.59590E-14
6.16850E-07 1.43834E-14
6.51596E-07 1.29897E-14
6.87293E-07 1.17629E-14
7.23942E-07 1.06831E-14
7.61543E-07 9.72777E-15
1.18991E-06 4.20581E-15
1.71347E-06 2.10395E-15
2.33223E-06 1.16655E-15
3.04617E-06 6.98073E-16
3.85531E-06 4.42919E-16
4.75964E-06 2.94388E-16
5.75916E-06 2.03181E-16
6.85388E-06 1.44677E-16
8.04378E-06 1.05762E-16
9.32888E-06 7.90769E-17
1.07092E-05 6.02913E-17
1.21846E-05 4.67614E-17
1.37553E-05 3.68191E-17
1.54212E-05 2.93823E-17
1.71822E-05 2.37310E-17
1.90385E-05 1.93650E-17
2.09899E-05 1.59757E-17
2.30365E-05 1.32943E-17
2.51783E-05 1.11495E-17
2.74153E-05 9.41799E-18
2.97475E-05 8.00872E-18
3.21749E-05 6.85333E-18
3.46974E-05 5.89950E-18
3.73152E-05 5.10666E-18
4.00281E-05 4.44316E-18
4.28362E-05 3.88420E-18
4.57395E-05 3.41039E-18
4.87380E-05 3.00649E-18
5.18317E-05 2.66043E-18
5.50205E-05 2.36259E-18
5.83045E-05 2.10520E-18
6.16838E-05 1.88193E-18
6.51582E-05 1.68752E-18
6.87277E-05 1.51763E-18
7.23925E-05 1.36861E-18
7.61524E-05 1.23752E-18
9.21439E-05 8.46588E-19
1.09658E-04 5.98403E-19
1.28695E-04 4.34827E-19
1.49255E-04 3.23444E-19
1.71338E-04 2.45528E-19
1.94942E-04 1.89696E-19
2.20070E-04 1.48854E-19
2.46720E-04 1.18424E-19
2.74892E-04 9.53780E-20
3.04586E-04 7.76691E-20
3.35803E-04 6.38805E-20
3.68542E-04 5.30167E-20
4.02802E-04 4.43641E-20
4.38585E-04 3.74043E-20
4.75889E-04 3.17555E-20
5.14715E-04 2.71323E-20
5.55063E-04 2.33194E-20
5.96931E-04 2.01522E-20
6.40321E-04 1.75041E-20
6.85233E-04 1.52763E-20
7.31665E-04 1.33913E-20
7.79618E-04 1.17877E-20
8.29092E-04 1.04167E-20
8.80086E-04 9.23894E-21
9.32601E-04 8.22272E-21
9.86636E-04 7.34216E-21
1.04219E-03 6.57613E-21
1.09927E-03 5.90724E-21
1.15786E-03 5.32108E-21
1.21797E-03 4.80568E-21
1.27961E-03 4.35106E-21
1.34276E-03 3.94881E-21
1.40743E-03 3.59188E-21
1.47362E-03 3.27427E-21
1.54133E-03 2.99092E-21
1.61056E-03 2.73748E-21
1.68131E-03 2.51025E-21
1.75357E-03 2.30605E-21
1.82735E-03 2.12213E-21
1.90265E-03 1.95614E-21
1.97947E-03 1.80601E-21
2.05780E-03 1.66997E-21
2.13765E-03 1.54645E-21
2.21902E-03 1.43411E-21
2.30190E-03 1.33176E-21
2.38630E-03 1.23834E-21
2.47222E-03 1.15295E-21
2.55965E-03 1.07476E-21
2.64859E-03 1.00306E-21
2.73905E-03 9.37224E-22
2.83103E-03 8.76681E-22
2.92452E-03 8.20926E-22
3.01952E-03 7.69518E-22
3.11604E-03 7.22054E-22
3.21407E-03 6.78179E-22
3.31362E-03 6.37572E-22
3.41468E-03 5.99945E-22
3.51725E-03 5.65042E-22
3.62133E-03 5.32628E-22
3.72692E-03 5.02495E-22
3.83403E-03 4.74453E-22
3.94265E-03 4.48330E-22
4.05278E-03 4.23972E-22
4.16442E-03 4.01237E-22
4.27757E-03 3.79999E-22
4.39223E-03 3.60139E-22
4.50840E-03 3.41554E-22
4.62608E-03 3.24145E-22
4.74527E-03 3.07826E-22
4.86597E-03 2.92515E-22
4.98817E-03 2.78138E-22
5.11188E-03 2.64629E-22
5.23711E-03 2.51925E-22
5.36383E-03 2.39971E-22
5.49207E-03 2.28712E-22
5.62181E-03 2.18102E-22
5.75306E-03 2.08096E-22
5.88581E-03 1.98654E-22
6.02007E-03 1.89738E-22
6.15583E-03 1.81314E-22
6.29310E-03 1.73348E-22
6.43187E-03 1.65813E-22
6.57214E-03 1.58680E-22
6.71392E-03 1.51924E-22
6.85720E-03 1.45521E-22
7.00198E-03 1.39450E-22
7.14827E-03 1.33688E-22
7.29605E-03 1.28218E-22
7.44534E-03 1.23023E-22
7.59612E-03 1.18086E-22
7.97965E-03 1.06777E-22
8.37255E-03 9.67794E-23
8.77480E-03 8.79160E-23
9.18641E-03 8.00360E-23
9.60736E-03 7.30120E-23
1.00376E-02 6.67350E-23
1.04773E-02 6.11122E-23
1.09262E-02 5.60636E-23
1.13844E-02 5.15207E-23
1.18520E-02 4.74241E-23
1.23288E-02 4.37224E-23
1.28150E-02 4.03710E-23
1.33104E-02 3.73311E-23
1.38150E-02 3.45687E-23
1.43290E-02 3.20542E-23
1.48521E-02 2.97613E-23
1.53845E-02 2.76673E-23
1.59262E-02 2.57519E-23
1.64770E-02 2.39972E-23
1.70371E-02 2.23874E-23
1.76063E-02 2.09085E-23
1.81848E-02 1.95479E-23
1.87724E-02 1.82946E-23
1.93692E-02 1.71386E-23
1.99751E-02 1.60710E-23
2.05901E-02 1.50840E-23
2.12143E-02 1.41704E-23
2.18476E-02 1.33237E-23
2.24900E-02 1.25382E-23
2.31415E-02 1.18088E-23
2.38021E-02 1.11307E-23
2.44717E-02 1.04997E-23
2.51504E-02 9.91193E-24
2.58382E-02 9.36393E-24
2.65349E-02 8.85254E-24
2.72407E-02 8.37489E-24
2.79555E-02 7.92836E-24
2.86793E-02 7.51058E-24
2.94120E-02 7.11937E-24
3.01537E-02 6.75275E-24
3.09043E-02 6.40891E-24
3.16639E-02 6.08618E-24
3.24324E-02 5.78304E-24
3.32098E-02 5.49809E-24
3.39961E-02 5.23007E-24
3.47912E-02 4.97778E-24
3.55952E-02 4.74014E-24
3.64081E-02 4.51616E-24
3.72297E-02 4.30491E-24
3.80602E-02 4.10555E-24
3.88995E-02 3.91728E-24
3.97476E-02 3.73940E-24
4.06044E-02 3.57122E-24
4.14700E-02 3.41212E-24
4.23443E-02 3.26154E-24
4.32273E-02 3.11892E-24
4.41190E-02 2.98380E-24
4.50194E-02 2.85569E-24
4.59284E-02 2.73417E-24
4.68461E-02 2.61886E-24
4.87074E-02 2.40535E-24
5.06030E-02 2.21251E-24
5.25328E-02 2.03801E-24
5.44967E-02 1.87983E-24
5.64946E-02 1.73619E-24
5.85262E-02 1.60555E-24
6.05914E-02 1.48654E-24
6.26901E-02 1.37796E-24
6.48222E-02 1.27875E-24
6.69873E-02 1.18797E-24
6.91854E-02 1.10480E-24
7.14163E-02 1.02849E-24
7.36799E-02 9.58391E-25
7.59760E-02 8.93915E-25
7.83043E-02 8.34540E-25
8.06647E-02 7.79801E-25
8.30571E-02 7.29278E-25
8.54812E-02 6.82595E-25
8.79369E-02 6.39416E-25
9.04240E-02 5.99437E-25
9.29422E-02 5.62384E-25
9.54915E-02 5.28009E-25
9.80716E-02 4.96090E-25
1.00682E-01 4.66424E-25
1.03323E-01 4.38827E-25
1.05995E-01 4.13133E-25
1.08696E-01 3.89192E-25
1.11427E-01 3.66865E-25
1.14188E-01 3.46027E-25
1.16978E-01 3.26564E-25
1.19797E-01 3.08372E-25
1.22645E-01 2.91355E-25
1.25522E-01 2.75426E-25
1.28428E-01 2.60505E-25
1.31361E-01 2.46519E-25
1.34323E-01 2.33401E-25
1.37313E-01 2.21089E-25
1.40330E-01 2.09526E-25
1.43375E-01 1.98661E-25
1.46447E-01 1.88444E-25
1.49545E-01 1.78832E-25
1.52671E-01 1.69784E-25
1.55823E-01 1.61261E-25
1.59001E-01 1.53230E-25
1.62205E-01 1.45657E-25
1.65435E-01 1.38513E-25
1.68690E-01 1.31771E-25
1.71970E-01 1.25403E-25
1.75276E-01 1.19388E-25
1.78606E-01 1.13702E-25
1.81961E-01 1.08324E-25
1.85340E-01 1.03237E-25
1.88743E-01 9.84222E-26
1.92169E-01 9.38627E-26
1.95619E-01 8.95434E-26
1.99092E-01 8.54500E-26
2.02589E-01 8.15691E-26
2.06107E-01 7.78880E-26
2.09649E-01 7.43953E-26
2.13212E-01 7.10800E-26
2.16797E-01 6.79318E-26
2.20404E-01 6.49413E-26
2.24032E-01 6.20995E-26
2.27680E-01 5.93982E-26
2.31350E-01 5.68293E-26
2.35040E-01 5.43857E-26
2.38751E-01 5.20604E-26
2.42481E-01 4.98470E-26
2.46231E-01 4.77395E-26
2.50000E-01 4.57320E-26
2.53788E-01 4.38193E-26
2.57595E-01 4.19963E-26
2.61421E-01 4.02584E-26
2.65264E-01 3.86010E-26
2.69126E-01 3.70200E-26
2.73005E-01 3.55114E-26
2.76901E-01 3.40715E-26
2.80814E-01 3.26968E-26
2.84744E-01 3.13840E-26
2.88691E-01 3.01300E-26
2.92653E-01 2.89318E-26
2.96632E-01 2.77867E-26
3.00625E-01 2.66919E-26
3.04634E-01 2.56452E-26
3.08658E-01 2.46440E-26
3.12697E-01 2.36862E-26
3.16749E-01 2.27697E-26
3.20816E-01 2.18925E-26
3.24896E-01 2.10528E-26
3.28990E-01 2.02487E-26
3.33097E-01 1.94786E-26
3.37216E-01 1.87408E-26
3.41348E-01 1.80339E-26
3.45492E-01 1.73565E-26
3.49647E-01 1.67071E-26
3.53814E-01 1.60844E-26
3.57992E-01 1.54874E-26
3.62181E-01 1.49147E-26
3.66381E-01 1.43653E-26
3.70590E-01 1.38382E-26
3.74810E-01 1.33323E-26
3.79039E-01 1.28467E-26
3.83277E-01 1.23805E-26
3.87524E-01 1.19328E-26
3.91780E-01 1.15028E-26
3.96044E-01 1.10898E-26
4.00316E-01 1.06931E-26
4.04596E-01 1.03118E-26
4.08882E-01 9.94538E-27
4.13176E-01 9.59317E-27
4.17476E-01 9.25455E-27
4.21783E-01 8.92896E-27
4.26095E-01 8.61584E-27
4.30413E-01 8.31466E-27
4.34737E-01 8.02493E-27
4.39065E-01 7.74617E-27
4.43398E-01 7.47792E-27
4.47736E-01 7.21975E-27
4.52077E-01 6.97124E-27
4.56422E-01 6.73199E-27
4.60770E-01 6.50163E-27
4.65122E-01 6.27979E-27
4.69476E-01 6.06614E-27
4.73832E-01 5.86033E-27
4.78190E-01 5.66206E-27
4.82550E-01 5.47101E-27
4.86912E-01 5.28692E-27
4.91274E-01 5.10949E-27
4.95637E-01 4.93846E-27
5.00000E-01 4.77359E-27
5.04363E-01 4.61462E-27
5.08726E-01 4.46134E-27
5.13088E-01 4.31351E-27
5.17450E-01 4.17093E-27
5.21810E-01 4.03340E-27
5.26168E-01 3.90071E-27
5.30524E-01 3.77268E-27
5.34878E-01 3.64914E-27
5.39230E-01 3.52991E-27
5.43578E-01 3.41484E-27
5.47923E-01 3.30375E-27
5.52264E-01 3.19651E-27
5.56602E-01 3.09297E-27
5.60935E-01 2.99298E-27
5.65263E-01 2.89642E-27
5.69587E-01 2.80317E-27
5.73905E-01 2.71308E-27
5.78217E-01 2.62606E-27
5.82524E-01 2.54199E-27
5.86824E-01 2.46075E-27
5.91118E-01 2.38225E-27
5.95404E-01 2.30639E-27
5.99684E-01 2.23306E-27
6.03956E-01 2.16218E-27
6.08220E-01 2.09367E-27
6.12476E-01 2.02742E-27
6.16723E-01 1.96337E-27
6.20961E-01 1.90144E-27
6.25190E-01 1.84154E-27
6.29410E-01 1.78361E-27
6.33619E-01 1.72758E-27
6.37819E-01 1.67338E-27
6.42008E-01 1.62094E-27
6.46186E-01 1.57020E-27
6.50353E-01 1.52112E-27
6.54508E-01 1.47361E-27
6.58652E-01 1.42764E-27
6.62784E-01 1.38315E-27
6.66903E-01 1.34008E-27
6.71010E-01 1.29840E-27
6.75104E-01 1.25804E-27
6.79184E-01 1.21897E-27
6.83251E-01 1.18114E-27
6.87303E-01 1.14450E-27
6.91342E-01 1.10903E-27
6.95366E-01 1.07468E-27
6.99375E-01 1.04140E-27
7.03368E-01 1.00917E-27
7.07347E-01 9.77952E-28
7.11309E-01 9.47707E-28
7.15256E-01 9.18405E-28
7.19186E-01 8.90015E-28
7.23099E-01 8.62505E-28
7.26995E-01 8.35848E-28
7.30874E-01 8.10015E-28
7.34736E-01 7.84978E-28
7.38579E-01 7.60711E-28
7.42405E-01 7.37190E-28
7.46212E-01 7.14389E-28
7.50000E-01 6.92286E-28
7.53769E-01 6.70857E-28
7.57519E-01 6.50081E-28
7.61249E-01 6.29936E-28
7.64960E-01 6.10402E-28
7.68650E-01 5.91460E-28
7.72320E-01 5.73090E-28
7.75968E-01 5.55274E-28
7.79596E-01 5.37995E-28
7.83203E-01 5.21235E-28
7.86788E-01 5.04977E-28
7.90351E-01 4.89207E-28
7.93893E-01 4.73908E-28
7.97411E-01 4.59065E-28
8.00908E-01 4.44665E-28
8.04381E-01 4.30693E-28
8.07831E-01 4.17135E-28
8.11257E-01 4.03980E-28
8.14660E-01 3.91214E-28
8.18039E-01 3.78826E-28
8.21394E-01 3.66803E-28
8.24724E-01 3.55134E-28
8.28030E-01 3.43809E-28
8.31310E-01 3.32817E-28
8.34565E-01 3.22147E-28
8.37795E-01 3.11790E-28
8.40999E-01 3.01737E-28
8.44177E-01 2.91977E-28
8.47329E-01 2.82503E-28
8.50455E-01 2.73305E-28
8.53553E-01 2.64375E-28
8.56625E-01 2.55706E-28
8.59670E-01 2.47289E-28
8.62687E-01 2.39116E-28
8.65677E-01 2.31181E-28
8.68639E-01 2.23477E-28
8.71572E-01 2.15996E-28
8.74478E-01 2.08732E-28
8.77355E-01 2.01679E-28
8.80203E-01 1.94830E-28
8.83022E-01 1.88179E-28
8.85812E-01 1.81722E-28
8.88573E-01 1.75451E-28
8.91304E-01 1.69362E-28
8.94005E-01 1.63449E-28
8.96677E-01 1.57708E-28
8.99318E-01 1.52133E-28
9.01928E-01 1.46720E-28
9.04508E-01 1.41464E-28
9.07058E-01 1.36360E-28
9.09576E-01 1.31405E-28
9.12063E-01 1.26594E-28
9.14519E-01 1.21923E-28
9.16943E-01 1.17388E-28
9.19335E-01 1.12985E-28
9.21696E-01 1.08712E-28
9.24024E-01 1.04563E-28
9.26320E-01 1.00537E-28
9.28584E-01 9.66286E-29
9.30815E-01 9.28357E-29
9.33013E-01 8.91550E-29
9.35178E-01 8.55835E-29
9.37310E-01 8.21182E-29
9.39409E-01 7.87564E-29
9.41474E-01 7.54954E-29
9.43505E-01 7.23324E-29
9.45503E-01 6.92650E-29
9.47467E-01 6.62907E-29
9.49397E-01 6.34071E-29
9.51293E-01 6.06119E-29
9.53154E-01 5.79028E-29
9.54981E-01 5.52779E-29
9.56773E-01 5.27348E-29
9.58530E-01 5.02718E-29
9.60252E-01 4.78867E-29
9.61940E-01 4.55777E-29
9.63592E-01 4.33431E-29
9.65209E-01 4.11810E-29
9.66790E-01 3.90898E-29
9.68336E-01 3.70678E-29
9.69846E-01 3.51136E-29
9.71321E-01 3.32254E-29
9.72759E-01 3.14020E-29
9.74162E-01 2.96418E-29
9.75528E-01 2.79436E-29
9.76858E-01 2.63059E-29
9.78152E-01 2.47277E-29
9.79410E-01 2.32075E-29
9.80631E-01 2.17444E-29
9.81815E-01 2.03371E-29
9.82963E-01 1.89846E-29
9.84074E-01 1.76859E-29
9.85148E-01 1.64399E-29
9.86185E-01 1.52458E-29
9.87185E-01 1.41025E-29
9.88148E-01 1.30094E-29
9.89074E-01 1.19654E-29
9.89962E-01 1.09699E-29
9.90814E-01 1.00221E-29
9.91627E-01 9.12121E-30
9.92404E-01 8.26664E-30
9.93143E-01 7.45773E-30
9.93844E-01 6.69386E-30
9.94508E-01 5.97446E-30
9.95134E-01 5.29899E-30
9.95722E-01 4.66694E-30
9.96273E-01 4.07785E-30
9.96786E-01 3.53128E-30
9.97261E-01 3.02681E-30
9.97698E-01 2.56406E-30
9.98097E-01 2.14270E-30
9.98459E-01 1.76241E-30
9.98782E-01 1.42291E-30
9.99067E-01 1.12394E-30
9.99315E-01 8.65274E-31
9.99524E-01 6.46732E-31
9.99695E-01 4.68147E-31
9.99829E-01 3.29384E-31
9.99924E-01 2.30341E-31
9.99981E-01 1.70945E-31
1.00000E+00 1.51151E-31
