 #
 # Subroutine ELSEPA. Elastic scattering of electrons and positrons
 #                    by neutral atoms and positive ions
 #
 # Projectile: positron
 # Kinetic energy = 8.00000E+07 eV = 2.93995E+06 a.u.
 #
 # WARNING: High-energy factorization with free-atom DF screening.
 #          Absorption, polarization and exchange corrections are
 #          switched off.
 #          Phase shifts are calculated for the bare nucleus.
 #          Scattering amplitudes are not evaluated.
 #
 # Element: Hf,  Z =  72,  atomic weight = 1.78490E+02 g/mol
 #
 # Nuclear model: Fermi distribution
 #                Average radius = 6.02451E-13 cm
 #                Skin thickness = 5.46000E-14 cm
 #
 # Number of electrons = 72
 #
 # Total elastic cross section = 7.31470E-18 cm**2 = 2.61213E-01 a0**2
 # 1st transport cross section = 1.45494E-24 cm**2 = 5.19568E-08 a0**2
 # 2nd transport cross section = 4.30734E-24 cm**2 = 1.53818E-07 a0**2
 #
 #
 # Differential cross section:                       MU=(1-COS(THETA))/2
 #
 #  THETA        MU          DCS          DCS        Sherman      error
 #  (deg)                 (cm**2/sr)   (a0**2/sr)    function
 #----------------------------------------------------------------------
0.00000E+00 4.09554E-10
7.61557E-13 4.08700E-10
1.18994E-12 4.08222E-10
1.71346E-12 4.07640E-10
2.33225E-12 4.06953E-10
3.04617E-12 4.06164E-10
3.85530E-12 4.05273E-10
4.75964E-12 4.04280E-10
5.75917E-12 4.03188E-10
6.85391E-12 4.01998E-10
8.04379E-12 4.00711E-10
9.32893E-12 3.99328E-10
1.07092E-11 3.97853E-10
1.21847E-11 3.96285E-10
1.37554E-11 3.94628E-10
1.54213E-11 3.92883E-10
1.71823E-11 3.91053E-10
1.90386E-11 3.89138E-10
2.09900E-11 3.87143E-10
2.30367E-11 3.85069E-10
2.51785E-11 3.82918E-10
2.74156E-11 3.80693E-10
2.97478E-11 3.78396E-10
3.21752E-11 3.76030E-10
3.46979E-11 3.73598E-10
3.73157E-11 3.71095E-10
4.00286E-11 3.68530E-10
4.28368E-11 3.65910E-10
4.57402E-11 3.63238E-10
4.87388E-11 3.60516E-10
5.18325E-11 3.57747E-10
5.50215E-11 3.54934E-10
5.83057E-11 3.52056E-10
6.16850E-11 3.49138E-10
6.51595E-11 3.46185E-10
6.87293E-11 3.43198E-10
7.23943E-11 3.40182E-10
7.61544E-11 3.37138E-10
1.18991E-10 3.05428E-10
1.71347E-10 2.73173E-10
2.33223E-10 2.42132E-10
3.04617E-10 2.13469E-10
3.85531E-10 1.87770E-10
4.75965E-10 1.65193E-10
5.75917E-10 1.45634E-10
6.85389E-10 1.28809E-10
8.04380E-10 1.14403E-10
9.32891E-10 1.02049E-10
1.07092E-09 9.14563E-11
1.21847E-09 8.23068E-11
1.37554E-09 7.43940E-11
1.54213E-09 6.74842E-11
1.71823E-09 6.14385E-11
1.90386E-09 5.60990E-11
2.09900E-09 5.13713E-11
2.30367E-09 4.71542E-11
2.51785E-09 4.33802E-11
2.74156E-09 3.99872E-11
2.97478E-09 3.69232E-11
3.21752E-09 3.41523E-11
3.46978E-09 3.16320E-11
3.73156E-09 2.91846E-11
4.00286E-09 2.69669E-11
4.28368E-09 2.50113E-11
4.57402E-09 2.32802E-11
4.87388E-09 2.17422E-11
5.18326E-09 2.03710E-11
5.50215E-09 1.91443E-11
5.83057E-09 1.78238E-11
6.16850E-09 1.66250E-11
6.51596E-09 1.55495E-11
6.87293E-09 1.45819E-11
7.23942E-09 1.37088E-11
7.61544E-09 1.29189E-11
1.18991E-08 7.23185E-12
1.71347E-08 4.35603E-12
2.33223E-08 2.76064E-12
3.04617E-08 1.82067E-12
3.85531E-08 1.24081E-12
4.75965E-08 8.69855E-13
5.75917E-08 6.26738E-13
6.85389E-08 4.62628E-13
8.04380E-08 3.49495E-13
9.32891E-08 2.69339E-13
1.07092E-07 2.11197E-13
1.21847E-07 1.68235E-13
1.37554E-07 1.35925E-13
1.54213E-07 1.11079E-13
1.71823E-07 9.17065E-14
1.90386E-07 7.63658E-14
2.09900E-07 6.41091E-14
2.30367E-07 5.42146E-14
2.51785E-07 4.61598E-14
2.74156E-07 3.95441E-14
2.97478E-07 3.40650E-14
3.21752E-07 2.94980E-14
3.46978E-07 2.56649E-14
3.73156E-07 2.24181E-14
4.00286E-07 1.96785E-14
4.28368E-07 1.73603E-14
4.57402E-07 1.53510E-14
4.87388E-07 1.36338E-14
5.18325E-07 1.21522E-14
5.50215E-07 1.08593E-14
5.83057E-07 9.73913E-15
6.16850E-07 8.75784E-15
6.51596E-07 7.89611E-15
6.87293E-07 7.14099E-15
7.23942E-07 6.47071E-15
7.61543E-07 5.87833E-15
1.18991E-06 2.51071E-15
1.71347E-06 1.24629E-15
2.33223E-06 6.86931E-16
3.04617E-06 4.09009E-16
3.85531E-06 2.58369E-16
4.75964E-06 1.71039E-16
5.75916E-06 1.17641E-16
6.85388E-06 8.35286E-17
8.04378E-06 6.09215E-17
9.32888E-06 4.54675E-17
1.07092E-05 3.46163E-17
1.21846E-05 2.68170E-17
1.37553E-05 2.10957E-17
1.54212E-05 1.68221E-17
1.71822E-05 1.35779E-17
1.90385E-05 1.10736E-17
2.09899E-05 9.13104E-18
2.30365E-05 7.59509E-18
2.51783E-05 6.36716E-18
2.74153E-05 5.37625E-18
2.97475E-05 4.57008E-18
3.21749E-05 3.90940E-18
3.46974E-05 3.36417E-18
3.73152E-05 2.91109E-18
4.00281E-05 2.53204E-18
4.28362E-05 2.21284E-18
4.57395E-05 1.94234E-18
4.87380E-05 1.71182E-18
5.18317E-05 1.51435E-18
5.50205E-05 1.34446E-18
5.83045E-05 1.19768E-18
6.16838E-05 1.07039E-18
6.51582E-05 9.59589E-19
6.87277E-05 8.62783E-19
7.23925E-05 7.77893E-19
7.61524E-05 7.03289E-19
9.21439E-05 4.80763E-19
1.09658E-04 3.39609E-19
1.28695E-04 2.46645E-19
1.49255E-04 1.83385E-19
1.71338E-04 1.39157E-19
1.94942E-04 1.07481E-19
2.20070E-04 8.43179E-20
2.46720E-04 6.70665E-20
2.74892E-04 5.40052E-20
3.04586E-04 4.39713E-20
3.35803E-04 3.61605E-20
3.68542E-04 3.00077E-20
4.02802E-04 2.51080E-20
4.38585E-04 2.11676E-20
4.75889E-04 1.79698E-20
5.14715E-04 1.53529E-20
5.55063E-04 1.31948E-20
5.96931E-04 1.14024E-20
6.40321E-04 9.90376E-21
6.85233E-04 8.64310E-21
7.31665E-04 7.57648E-21
7.79618E-04 6.66915E-21
8.29092E-04 5.89344E-21
8.80086E-04 5.22709E-21
9.32601E-04 4.65215E-21
9.86636E-04 4.15397E-21
1.04219E-03 3.72058E-21
1.09927E-03 3.34216E-21
1.15786E-03 3.01055E-21
1.21797E-03 2.71897E-21
1.27961E-03 2.46177E-21
1.34276E-03 2.23420E-21
1.40743E-03 2.03227E-21
1.47362E-03 1.85258E-21
1.54133E-03 1.69227E-21
1.61056E-03 1.54889E-21
1.68131E-03 1.42032E-21
1.75357E-03 1.30479E-21
1.82735E-03 1.20074E-21
1.90265E-03 1.10682E-21
1.97947E-03 1.02188E-21
2.05780E-03 9.44901E-22
2.13765E-03 8.75015E-22
2.21902E-03 8.11449E-22
2.30190E-03 7.53533E-22
2.38630E-03 7.00672E-22
2.47222E-03 6.52350E-22
2.55965E-03 6.08105E-22
2.64859E-03 5.67534E-22
2.73905E-03 5.30277E-22
2.83103E-03 4.96014E-22
2.92452E-03 4.64463E-22
3.01952E-03 4.35370E-22
3.11604E-03 4.08509E-22
3.21407E-03 3.83678E-22
3.31362E-03 3.60697E-22
3.41468E-03 3.39403E-22
3.51725E-03 3.19649E-22
3.62133E-03 3.01305E-22
3.72692E-03 2.84251E-22
3.83403E-03 2.68382E-22
3.94265E-03 2.53599E-22
4.05278E-03 2.39811E-22
4.16442E-03 2.26940E-22
4.27757E-03 2.14916E-22
4.39223E-03 2.03673E-22
4.50840E-03 1.93151E-22
4.62608E-03 1.83296E-22
4.74527E-03 1.74056E-22
4.86597E-03 1.65388E-22
4.98817E-03 1.57249E-22
5.11188E-03 1.49601E-22
5.23711E-03 1.42409E-22
5.36383E-03 1.35640E-22
5.49207E-03 1.29266E-22
5.62181E-03 1.23259E-22
5.75306E-03 1.17595E-22
5.88581E-03 1.12249E-22
6.02007E-03 1.07201E-22
6.15583E-03 1.02431E-22
6.29310E-03 9.79218E-23
6.43187E-03 9.36555E-23
6.57214E-03 8.96170E-23
6.71392E-03 8.57918E-23
6.85720E-03 8.21666E-23
7.00198E-03 7.87291E-23
7.14827E-03 7.54678E-23
7.29605E-03 7.23719E-23
7.44534E-03 6.94316E-23
7.59612E-03 6.66375E-23
7.97965E-03 6.02374E-23
8.37255E-03 5.45798E-23
8.77480E-03 4.95643E-23
9.18641E-03 4.51056E-23
9.60736E-03 4.11314E-23
1.00376E-02 3.75803E-23
1.04773E-02 3.43996E-23
1.09262E-02 3.15440E-23
1.13844E-02 2.89748E-23
1.18520E-02 2.66582E-23
1.23288E-02 2.45653E-23
1.28150E-02 2.26707E-23
1.33104E-02 2.09525E-23
1.38150E-02 1.93914E-23
1.43290E-02 1.79707E-23
1.48521E-02 1.66754E-23
1.53845E-02 1.54927E-23
1.59262E-02 1.44112E-23
1.64770E-02 1.34206E-23
1.70371E-02 1.25120E-23
1.76063E-02 1.16774E-23
1.81848E-02 1.09099E-23
1.87724E-02 1.02031E-23
1.93692E-02 9.55133E-24
1.99751E-02 8.94963E-24
2.05901E-02 8.39348E-24
2.12143E-02 7.87884E-24
2.18476E-02 7.40208E-24
2.24900E-02 6.95995E-24
2.31415E-02 6.54950E-24
2.38021E-02 6.16807E-24
2.44717E-02 5.81325E-24
2.51504E-02 5.48289E-24
2.58382E-02 5.17500E-24
2.65349E-02 4.88780E-24
2.72407E-02 4.61966E-24
2.79555E-02 4.36911E-24
2.86793E-02 4.13479E-24
2.94120E-02 3.91547E-24
3.01537E-02 3.71004E-24
3.09043E-02 3.51746E-24
3.16639E-02 3.33679E-24
3.24324E-02 3.16718E-24
3.32098E-02 3.00784E-24
3.39961E-02 2.85803E-24
3.47912E-02 2.71710E-24
3.55952E-02 2.58443E-24
3.64081E-02 2.45945E-24
3.72297E-02 2.34165E-24
3.80602E-02 2.23053E-24
3.88995E-02 2.12568E-24
3.97476E-02 2.02666E-24
4.06044E-02 1.93310E-24
4.14700E-02 1.84465E-24
4.23443E-02 1.76099E-24
4.32273E-02 1.68181E-24
4.41190E-02 1.60684E-24
4.50194E-02 1.53581E-24
4.59284E-02 1.46849E-24
4.68461E-02 1.40464E-24
4.87074E-02 1.28657E-24
5.06030E-02 1.18008E-24
5.25328E-02 1.08387E-24
5.44967E-02 9.96795E-25
5.64946E-02 9.17859E-25
5.85262E-02 8.46186E-25
6.05914E-02 7.81009E-25
6.26901E-02 7.21652E-25
6.48222E-02 6.67517E-25
6.69873E-02 6.18078E-25
6.91854E-02 5.72868E-25
7.14163E-02 5.31472E-25
7.36799E-02 4.93523E-25
7.59760E-02 4.58691E-25
7.83043E-02 4.26684E-25
8.06647E-02 3.97240E-25
8.30571E-02 3.70125E-25
8.54812E-02 3.45129E-25
8.79369E-02 3.22063E-25
9.04240E-02 3.00758E-25
9.29422E-02 2.81059E-25
9.54915E-02 2.62830E-25
9.80716E-02 2.45946E-25
1.00682E-01 2.30295E-25
1.03323E-01 2.15773E-25
1.05995E-01 2.02289E-25
1.08696E-01 1.89759E-25
1.11427E-01 1.78107E-25
1.14188E-01 1.67262E-25
1.16978E-01 1.57162E-25
1.19797E-01 1.47748E-25
1.22645E-01 1.38970E-25
1.25522E-01 1.30777E-25
1.28428E-01 1.23126E-25
1.31361E-01 1.15977E-25
1.34323E-01 1.09292E-25
1.37313E-01 1.03039E-25
1.40330E-01 9.71851E-26
1.43375E-01 9.17023E-26
1.46447E-01 8.65641E-26
1.49545E-01 8.17465E-26
1.52671E-01 7.72269E-26
1.55823E-01 7.29849E-26
1.59001E-01 6.90014E-26
1.62205E-01 6.52588E-26
1.65435E-01 6.17410E-26
1.68690E-01 5.84328E-26
1.71970E-01 5.53204E-26
1.75276E-01 5.23910E-26
1.78606E-01 4.96326E-26
1.81961E-01 4.70341E-26
1.85340E-01 4.45852E-26
1.88743E-01 4.22765E-26
1.92169E-01 4.00991E-26
1.95619E-01 3.80446E-26
1.99092E-01 3.61055E-26
2.02589E-01 3.42746E-26
2.06107E-01 3.25452E-26
2.09649E-01 3.09112E-26
2.13212E-01 2.93667E-26
2.16797E-01 2.79064E-26
2.20404E-01 2.65252E-26
2.24032E-01 2.52185E-26
2.27680E-01 2.39817E-26
2.31350E-01 2.28109E-26
2.35040E-01 2.17022E-26
2.38751E-01 2.06519E-26
2.42481E-01 1.96568E-26
2.46231E-01 1.87136E-26
2.50000E-01 1.78193E-26
2.53788E-01 1.69713E-26
2.57595E-01 1.61669E-26
2.61421E-01 1.54037E-26
2.65264E-01 1.46794E-26
2.69126E-01 1.39918E-26
2.73005E-01 1.33389E-26
2.76901E-01 1.27188E-26
2.80814E-01 1.21297E-26
2.84744E-01 1.15699E-26
2.88691E-01 1.10379E-26
2.92653E-01 1.05322E-26
2.96632E-01 1.00513E-26
3.00625E-01 9.59402E-27
3.04634E-01 9.15899E-27
3.08658E-01 8.74509E-27
3.12697E-01 8.35122E-27
3.16749E-01 7.97631E-27
3.20816E-01 7.61940E-27
3.24896E-01 7.27955E-27
3.28990E-01 6.95589E-27
3.33097E-01 6.64758E-27
3.37216E-01 6.35385E-27
3.41348E-01 6.07395E-27
3.45492E-01 5.80719E-27
3.49647E-01 5.55291E-27
3.53814E-01 5.31047E-27
3.57992E-01 5.07929E-27
3.62181E-01 4.85881E-27
3.66381E-01 4.64850E-27
3.70590E-01 4.44786E-27
3.74810E-01 4.25641E-27
3.79039E-01 4.07370E-27
3.83277E-01 3.89931E-27
3.87524E-01 3.73284E-27
3.91780E-01 3.57389E-27
3.96044E-01 3.42211E-27
4.00316E-01 3.27715E-27
4.04596E-01 3.13870E-27
4.08882E-01 3.00642E-27
4.13176E-01 2.88004E-27
4.17476E-01 2.75927E-27
4.21783E-01 2.64386E-27
4.26095E-01 2.53354E-27
4.30413E-01 2.42807E-27
4.34737E-01 2.32724E-27
4.39065E-01 2.23082E-27
4.43398E-01 2.13861E-27
4.47736E-01 2.05042E-27
4.52077E-01 1.96606E-27
4.56422E-01 1.88535E-27
4.60770E-01 1.80813E-27
4.65122E-01 1.73423E-27
4.69476E-01 1.66351E-27
4.73832E-01 1.59583E-27
4.78190E-01 1.53103E-27
4.82550E-01 1.46900E-27
4.86912E-01 1.40961E-27
4.91274E-01 1.35273E-27
4.95637E-01 1.29826E-27
5.00000E-01 1.24610E-27
5.04363E-01 1.19613E-27
5.08726E-01 1.14826E-27
5.13088E-01 1.10239E-27
5.17450E-01 1.05845E-27
5.21810E-01 1.01633E-27
5.26168E-01 9.75974E-28
5.30524E-01 9.37290E-28
5.34878E-01 9.00208E-28
5.39230E-01 8.64660E-28
5.43578E-01 8.30577E-28
5.47923E-01 7.97897E-28
5.52264E-01 7.66559E-28
5.56602E-01 7.36505E-28
5.60935E-01 7.07679E-28
5.65263E-01 6.80029E-28
5.69587E-01 6.53505E-28
5.73905E-01 6.28058E-28
5.78217E-01 6.03642E-28
5.82524E-01 5.80213E-28
5.86824E-01 5.57731E-28
5.91118E-01 5.36153E-28
5.95404E-01 5.15443E-28
5.99684E-01 4.95564E-28
6.03956E-01 4.76480E-28
6.08220E-01 4.58159E-28
6.12476E-01 4.40568E-28
6.16723E-01 4.23677E-28
6.20961E-01 4.07457E-28
6.25190E-01 3.91880E-28
6.29410E-01 3.76918E-28
6.33619E-01 3.62548E-28
6.37819E-01 3.48743E-28
6.42008E-01 3.35482E-28
6.46186E-01 3.22741E-28
6.50353E-01 3.10499E-28
6.54508E-01 2.98736E-28
6.58652E-01 2.87431E-28
6.62784E-01 2.76568E-28
6.66903E-01 2.66126E-28
6.71010E-01 2.56090E-28
6.75104E-01 2.46443E-28
6.79184E-01 2.37169E-28
6.83251E-01 2.28253E-28
6.87303E-01 2.19680E-28
6.91342E-01 2.11437E-28
6.95366E-01 2.03511E-28
6.99375E-01 1.95888E-28
7.03368E-01 1.88557E-28
7.07347E-01 1.81506E-28
7.11309E-01 1.74724E-28
7.15256E-01 1.68200E-28
7.19186E-01 1.61924E-28
7.23099E-01 1.55886E-28
7.26995E-01 1.50077E-28
7.30874E-01 1.44488E-28
7.34736E-01 1.39109E-28
7.38579E-01 1.33933E-28
7.42405E-01 1.28952E-28
7.46212E-01 1.24158E-28
7.50000E-01 1.19543E-28
7.53769E-01 1.15102E-28
7.57519E-01 1.10826E-28
7.61249E-01 1.06710E-28
7.64960E-01 1.02748E-28
7.68650E-01 9.89324E-29
7.72320E-01 9.52589E-29
7.75968E-01 9.17217E-29
7.79596E-01 8.83155E-29
7.83203E-01 8.50352E-29
7.86788E-01 8.18761E-29
7.90351E-01 7.88334E-29
7.93893E-01 7.59028E-29
7.97411E-01 7.30799E-29
8.00908E-01 7.03606E-29
8.04381E-01 6.77410E-29
8.07831E-01 6.52173E-29
8.11257E-01 6.27858E-29
8.14660E-01 6.04431E-29
8.18039E-01 5.81858E-29
8.21394E-01 5.60106E-29
8.24724E-01 5.39146E-29
8.28030E-01 5.18946E-29
8.31310E-01 4.99479E-29
8.34565E-01 4.80717E-29
8.37795E-01 4.62634E-29
8.40999E-01 4.45204E-29
8.44177E-01 4.28403E-29
8.47329E-01 4.12207E-29
8.50455E-01 3.96595E-29
8.53553E-01 3.81544E-29
8.56625E-01 3.67033E-29
8.59670E-01 3.53043E-29
8.62687E-01 3.39555E-29
8.65677E-01 3.26550E-29
8.68639E-01 3.14010E-29
8.71572E-01 3.01918E-29
8.74478E-01 2.90258E-29
8.77355E-01 2.79014E-29
8.80203E-01 2.68171E-29
8.83022E-01 2.57714E-29
8.85812E-01 2.47629E-29
8.88573E-01 2.37903E-29
8.91304E-01 2.28523E-29
8.94005E-01 2.19476E-29
8.96677E-01 2.10750E-29
8.99318E-01 2.02334E-29
9.01928E-01 1.94217E-29
9.04508E-01 1.86387E-29
9.07058E-01 1.78836E-29
9.09576E-01 1.71552E-29
9.12063E-01 1.64526E-29
9.14519E-01 1.57749E-29
9.16943E-01 1.51213E-29
9.19335E-01 1.44908E-29
9.21696E-01 1.38827E-29
9.24024E-01 1.32962E-29
9.26320E-01 1.27305E-29
9.28584E-01 1.21850E-29
9.30815E-01 1.16588E-29
9.33013E-01 1.11513E-29
9.35178E-01 1.06620E-29
9.37310E-01 1.01901E-29
9.39409E-01 9.73506E-30
9.41474E-01 9.29632E-30
9.43505E-01 8.87332E-30
9.45503E-01 8.46552E-30
9.47467E-01 8.07241E-30
9.49397E-01 7.69350E-30
9.51293E-01 7.32831E-30
9.53154E-01 6.97639E-30
9.54981E-01 6.63730E-30
9.56773E-01 6.31062E-30
9.58530E-01 5.99593E-30
9.60252E-01 5.69287E-30
9.61940E-01 5.40104E-30
9.63592E-01 5.12008E-30
9.65209E-01 4.84966E-30
9.66790E-01 4.58945E-30
9.68336E-01 4.33911E-30
9.69846E-01 4.09835E-30
9.71321E-01 3.86687E-30
9.72759E-01 3.64438E-30
9.74162E-01 3.43063E-30
9.75528E-01 3.22534E-30
9.76858E-01 3.02828E-30
9.78152E-01 2.83919E-30
9.79410E-01 2.65786E-30
9.80631E-01 2.48406E-30
9.81815E-01 2.31758E-30
9.82963E-01 2.15822E-30
9.84074E-01 2.00580E-30
9.85148E-01 1.86013E-30
9.86185E-01 1.72103E-30
9.87185E-01 1.58834E-30
9.88148E-01 1.46190E-30
9.89074E-01 1.34155E-30
9.89962E-01 1.22716E-30
9.90814E-01 1.11859E-30
9.91627E-01 1.01571E-30
9.92404E-01 9.18395E-31
9.93143E-01 8.26533E-31
9.93844E-01 7.40012E-31
9.94508E-01 6.58732E-31
9.95134E-01 5.82596E-31
9.95722E-01 5.11514E-31
9.96273E-01 4.45402E-31
9.96786E-01 3.84181E-31
9.97261E-01 3.27780E-31
9.97698E-01 2.76132E-31
9.98097E-01 2.29177E-31
9.98459E-01 1.86858E-31
9.98782E-01 1.49126E-31
9.99067E-01 1.15937E-31
9.99315E-01 8.72520E-32
9.99524E-01 6.30367E-32
9.99695E-01 4.32628E-32
9.99829E-01 2.79072E-32
9.99924E-01 1.69517E-32
9.99981E-01 1.03836E-32
1.00000E+00 8.19512E-33
