 #
 # Subroutine ELSEPA. Elastic scattering of electrons and positrons
 #                    by neutral atoms and positive ions
 #
 # Projectile: positron
 # Kinetic energy = 3.50000E+07 eV = 1.28623E+06 a.u.
 #
 # WARNING: High-energy factorization with free-atom DF screening.
 #          Absorption, polarization and exchange corrections are
 #          switched off.
 #          Phase shifts are calculated for the bare nucleus.
 #          Scattering amplitudes are not evaluated.
 #
 # Element: Hf,  Z =  72,  atomic weight = 1.78490E+02 g/mol
 #
 # Nuclear model: Fermi distribution
 #                Average radius = 6.02451E-13 cm
 #                Skin thickness = 5.46000E-14 cm
 #
 # Number of electrons = 72
 #
 # Total elastic cross section = 7.31611E-18 cm**2 = 2.61263E-01 a0**2
 # 1st transport cross section = 6.88926E-24 cm**2 = 2.46020E-07 a0**2
 # 2nd transport cross section = 2.01368E-23 cm**2 = 7.19097E-07 a0**2
 #
 #
 # Differential cross section:                       MU=(1-COS(THETA))/2
 #
 #  THETA        MU          DCS          DCS        Sherman      error
 #  (deg)                 (cm**2/sr)   (a0**2/sr)    function
 #----------------------------------------------------------------------
0.00000E+00 7.96759E-11
7.61557E-13 7.96433E-11
1.18994E-12 7.96251E-11
1.71346E-12 7.96028E-11
2.33225E-12 7.95766E-11
3.04617E-12 7.95464E-11
3.85530E-12 7.95122E-11
4.75964E-12 7.94740E-11
5.75917E-12 7.94318E-11
6.85391E-12 7.93856E-11
8.04379E-12 7.93355E-11
9.32893E-12 7.92815E-11
1.07092E-11 7.92235E-11
1.21847E-11 7.91616E-11
1.37554E-11 7.90958E-11
1.54213E-11 7.90262E-11
1.71823E-11 7.89527E-11
1.90386E-11 7.88753E-11
2.09900E-11 7.87941E-11
2.30367E-11 7.87091E-11
2.51785E-11 7.86203E-11
2.74156E-11 7.85277E-11
2.97478E-11 7.84314E-11
3.21752E-11 7.83314E-11
3.46979E-11 7.82277E-11
3.73157E-11 7.81203E-11
4.00286E-11 7.80093E-11
4.28368E-11 7.78947E-11
4.57402E-11 7.77765E-11
4.87388E-11 7.76547E-11
5.18325E-11 7.75294E-11
5.50215E-11 7.74006E-11
5.83057E-11 7.72683E-11
6.16850E-11 7.71326E-11
6.51595E-11 7.69935E-11
6.87293E-11 7.68510E-11
7.23943E-11 7.67051E-11
7.61544E-11 7.65560E-11
1.18991E-10 7.48907E-11
1.71347E-10 7.29366E-11
2.33223E-10 7.07318E-11
3.04617E-10 6.83298E-11
3.85531E-10 6.57695E-11
4.75965E-10 6.30945E-11
5.75917E-10 6.03541E-11
6.85389E-10 5.75773E-11
8.04380E-10 5.48034E-11
9.32891E-10 5.20666E-11
1.07092E-09 4.93807E-11
1.21847E-09 4.67748E-11
1.37554E-09 4.42653E-11
1.54213E-09 4.18542E-11
1.71823E-09 3.95589E-11
1.90386E-09 3.73816E-11
2.09900E-09 3.53200E-11
2.30367E-09 3.33793E-11
2.51785E-09 3.15550E-11
2.74156E-09 2.98423E-11
2.97478E-09 2.82401E-11
3.21752E-09 2.67408E-11
3.46978E-09 2.53389E-11
3.73156E-09 2.40309E-11
4.00286E-09 2.28082E-11
4.28368E-09 2.16662E-11
4.57402E-09 2.06011E-11
4.87388E-09 1.96035E-11
5.18326E-09 1.86714E-11
5.50215E-09 1.78009E-11
5.83057E-09 1.69824E-11
6.16850E-09 1.62166E-11
6.51596E-09 1.54990E-11
6.87293E-09 1.48223E-11
7.23942E-09 1.41876E-11
7.61544E-09 1.35901E-11
1.18991E-08 9.13296E-12
1.71347E-08 6.41149E-12
2.33223E-08 4.56945E-12
3.04617E-08 3.39867E-12
3.85531E-08 2.55863E-12
4.75965E-08 1.95657E-12
5.75917E-08 1.52936E-12
6.85389E-08 1.20563E-12
8.04380E-08 9.63477E-13
9.32891E-08 7.81166E-13
1.07092E-07 6.36308E-13
1.21847E-07 5.23798E-13
1.37554E-07 4.35401E-13
1.54213E-07 3.62845E-13
1.71823E-07 3.05035E-13
1.90386E-07 2.58114E-13
2.09900E-07 2.19240E-13
2.30367E-07 1.87509E-13
2.51785E-07 1.61197E-13
2.74156E-07 1.39203E-13
2.97478E-07 1.20901E-13
3.21752E-07 1.05474E-13
3.46978E-07 9.24336E-14
3.73156E-07 8.13982E-14
4.00286E-07 7.19597E-14
4.28368E-07 6.38912E-14
4.57402E-07 5.69625E-14
4.87388E-07 5.09165E-14
5.18325E-07 4.56774E-14
5.50215E-07 4.11198E-14
5.83057E-07 3.71219E-14
6.16850E-07 3.36171E-14
6.51596E-07 3.05301E-14
6.87293E-07 2.77906E-14
7.23942E-07 2.53614E-14
7.61543E-07 2.31957E-14
1.18991E-06 1.04526E-14
1.71347E-06 5.37480E-15
2.33223E-06 3.03077E-15
3.04617E-06 1.83692E-15
3.85531E-06 1.17638E-15
4.75964E-06 7.88156E-16
5.75916E-06 5.47654E-16
6.85388E-06 3.92329E-16
8.04378E-06 2.88446E-16
9.32888E-06 2.16760E-16
1.07092E-05 1.66044E-16
1.21846E-05 1.29330E-16
1.37553E-05 1.02213E-16
1.54212E-05 8.18437E-17
1.71822E-05 6.62947E-17
1.90385E-05 5.42355E-17
2.09899E-05 4.48435E-17
2.30365E-05 3.73878E-17
2.51783E-05 3.14088E-17
2.74153E-05 2.65696E-17
2.97475E-05 2.26224E-17
3.21749E-05 1.93808E-17
3.46974E-05 1.66999E-17
3.73152E-05 1.44684E-17
4.00281E-05 1.25987E-17
4.28362E-05 1.10218E-17
4.57395E-05 9.68386E-18
4.87380E-05 8.54229E-18
5.18317E-05 7.56342E-18
5.50205E-05 6.72040E-18
5.83045E-05 5.99137E-18
6.16838E-05 5.35860E-18
6.51582E-05 4.80734E-18
6.87277E-05 4.32532E-18
7.23925E-05 3.90236E-18
7.61524E-05 3.52992E-18
9.21439E-05 2.41867E-18
1.09658E-04 1.71205E-18
1.28695E-04 1.24567E-18
1.49255E-04 9.27670E-19
1.71338E-04 7.04943E-19
1.94942E-04 5.45156E-19
2.20070E-04 4.28147E-19
2.46720E-04 3.40880E-19
2.74892E-04 2.74729E-19
3.04586E-04 2.23855E-19
3.35803E-04 1.84214E-19
3.68542E-04 1.52960E-19
4.02802E-04 1.28051E-19
4.38585E-04 1.08004E-19
4.75889E-04 9.17251E-20
5.14715E-04 7.83954E-20
5.55063E-04 6.73971E-20
5.96931E-04 5.82581E-20
6.40321E-04 5.06140E-20
6.85233E-04 4.41811E-20
7.31665E-04 3.87364E-20
7.79618E-04 3.41034E-20
8.29092E-04 3.01414E-20
8.80086E-04 2.67371E-20
9.32601E-04 2.37991E-20
9.86636E-04 2.12528E-20
1.04219E-03 1.90373E-20
1.09927E-03 1.71025E-20
1.15786E-03 1.54067E-20
1.21797E-03 1.39155E-20
1.27961E-03 1.25999E-20
1.34276E-03 1.14358E-20
1.40743E-03 1.04027E-20
1.47362E-03 9.48332E-21
1.54133E-03 8.66305E-21
1.61056E-03 7.92931E-21
1.68131E-03 7.27141E-21
1.75357E-03 6.68015E-21
1.82735E-03 6.14760E-21
1.90265E-03 5.66690E-21
1.97947E-03 5.23214E-21
2.05780E-03 4.83815E-21
2.13765E-03 4.48043E-21
2.21902E-03 4.15506E-21
2.30190E-03 3.85859E-21
2.38630E-03 3.58801E-21
2.47222E-03 3.34065E-21
2.55965E-03 3.11417E-21
2.64859E-03 2.90649E-21
2.73905E-03 2.71577E-21
2.83103E-03 2.54038E-21
2.92452E-03 2.37887E-21
3.01952E-03 2.22994E-21
3.11604E-03 2.09244E-21
3.21407E-03 1.96534E-21
3.31362E-03 1.84770E-21
3.41468E-03 1.73869E-21
3.51725E-03 1.63757E-21
3.62133E-03 1.54367E-21
3.72692E-03 1.45637E-21
3.83403E-03 1.37513E-21
3.94265E-03 1.29945E-21
4.05278E-03 1.22888E-21
4.16442E-03 1.16301E-21
4.27757E-03 1.10148E-21
4.39223E-03 1.04395E-21
4.50840E-03 9.90101E-22
4.62608E-03 9.39665E-22
4.74527E-03 8.92384E-22
4.86597E-03 8.48025E-22
4.98817E-03 8.06374E-22
5.11188E-03 7.67236E-22
5.23711E-03 7.30431E-22
5.36383E-03 6.95795E-22
5.49207E-03 6.63177E-22
5.62181E-03 6.32437E-22
5.75306E-03 6.03448E-22
5.88581E-03 5.76092E-22
6.02007E-03 5.50260E-22
6.15583E-03 5.25851E-22
6.29310E-03 5.02772E-22
6.43187E-03 4.80939E-22
6.57214E-03 4.60271E-22
6.71392E-03 4.40694E-22
6.85720E-03 4.22141E-22
7.00198E-03 4.04548E-22
7.14827E-03 3.87856E-22
7.29605E-03 3.72011E-22
7.44534E-03 3.56962E-22
7.59612E-03 3.42661E-22
7.97965E-03 3.09900E-22
8.37255E-03 2.80940E-22
8.77480E-03 2.55262E-22
9.18641E-03 2.32433E-22
9.60736E-03 2.12083E-22
1.00376E-02 1.93897E-22
1.04773E-02 1.77605E-22
1.09262E-02 1.62976E-22
1.13844E-02 1.49811E-22
1.18520E-02 1.37939E-22
1.23288E-02 1.27211E-22
1.28150E-02 1.17498E-22
1.33104E-02 1.08686E-22
1.38150E-02 1.00678E-22
1.43290E-02 9.33883E-23
1.48521E-02 8.67405E-23
1.53845E-02 8.06684E-23
1.59262E-02 7.51137E-23
1.64770E-02 7.00244E-23
1.70371E-02 6.53549E-23
1.76063E-02 6.10643E-23
1.81848E-02 5.71167E-23
1.87724E-02 5.34799E-23
1.93692E-02 5.01250E-23
1.99751E-02 4.70265E-23
2.05901E-02 4.41611E-23
2.12143E-02 4.15074E-23
2.18476E-02 3.90479E-23
2.24900E-02 3.67658E-23
2.31415E-02 3.46460E-23
2.38021E-02 3.26749E-23
2.44717E-02 3.08404E-23
2.51504E-02 2.91312E-23
2.58382E-02 2.75373E-23
2.65349E-02 2.60495E-23
2.72407E-02 2.46596E-23
2.79555E-02 2.33599E-23
2.86793E-02 2.21435E-23
2.94120E-02 2.10042E-23
3.01537E-02 1.99363E-23
3.09043E-02 1.89343E-23
3.16639E-02 1.79937E-23
3.24324E-02 1.71098E-23
3.32098E-02 1.62788E-23
3.39961E-02 1.54969E-23
3.47912E-02 1.47606E-23
3.55952E-02 1.40669E-23
3.64081E-02 1.34127E-23
3.72297E-02 1.27956E-23
3.80602E-02 1.22130E-23
3.88995E-02 1.16626E-23
3.97476E-02 1.11424E-23
4.06044E-02 1.06503E-23
4.14700E-02 1.01847E-23
4.23443E-02 9.74374E-24
4.32273E-02 9.32600E-24
4.41190E-02 8.93001E-24
4.50194E-02 8.55443E-24
4.59284E-02 8.19803E-24
4.68461E-02 7.85965E-24
4.87074E-02 7.23274E-24
5.06030E-02 6.66597E-24
5.25328E-02 6.15260E-24
5.44967E-02 5.68677E-24
5.64946E-02 5.26333E-24
5.85262E-02 4.87779E-24
6.05914E-02 4.52618E-24
6.26901E-02 4.20502E-24
6.48222E-02 3.91122E-24
6.69873E-02 3.64208E-24
6.91854E-02 3.39516E-24
7.14163E-02 3.16834E-24
7.36799E-02 2.95969E-24
7.59760E-02 2.76753E-24
7.83043E-02 2.59032E-24
8.06647E-02 2.42672E-24
8.30571E-02 2.27549E-24
8.54812E-02 2.13556E-24
8.79369E-02 2.00593E-24
9.04240E-02 1.88572E-24
9.29422E-02 1.77412E-24
9.54915E-02 1.67043E-24
9.80716E-02 1.57399E-24
1.00682E-01 1.48420E-24
1.03323E-01 1.40052E-24
1.05995E-01 1.32249E-24
1.08696E-01 1.24964E-24
1.11427E-01 1.18158E-24
1.14188E-01 1.11794E-24
1.16978E-01 1.05839E-24
1.19797E-01 1.00262E-24
1.22645E-01 9.50352E-25
1.25522E-01 9.01326E-25
1.28428E-01 8.55310E-25
1.31361E-01 8.12088E-25
1.34323E-01 7.71464E-25
1.37313E-01 7.33254E-25
1.40330E-01 6.97293E-25
1.43375E-01 6.63425E-25
1.46447E-01 6.31509E-25
1.49545E-01 6.01415E-25
1.52671E-01 5.73020E-25
1.55823E-01 5.46214E-25
1.59001E-01 5.20893E-25
1.62205E-01 4.96961E-25
1.65435E-01 4.74330E-25
1.68690E-01 4.52917E-25
1.71970E-01 4.32646E-25
1.75276E-01 4.13447E-25
1.78606E-01 3.95253E-25
1.81961E-01 3.78004E-25
1.85340E-01 3.61643E-25
1.88743E-01 3.46116E-25
1.92169E-01 3.31373E-25
1.95619E-01 3.17370E-25
1.99092E-01 3.04063E-25
2.02589E-01 2.91412E-25
2.06107E-01 2.79379E-25
2.09649E-01 2.67930E-25
2.13212E-01 2.57031E-25
2.16797E-01 2.46652E-25
2.20404E-01 2.36764E-25
2.24032E-01 2.27340E-25
2.27680E-01 2.18355E-25
2.31350E-01 2.09786E-25
2.35040E-01 2.01610E-25
2.38751E-01 1.93806E-25
2.42481E-01 1.86354E-25
2.46231E-01 1.79237E-25
2.50000E-01 1.72436E-25
2.53788E-01 1.65936E-25
2.57595E-01 1.59722E-25
2.61421E-01 1.53778E-25
2.65264E-01 1.48091E-25
2.69126E-01 1.42648E-25
2.73005E-01 1.37438E-25
2.76901E-01 1.32448E-25
2.80814E-01 1.27669E-25
2.84744E-01 1.23089E-25
2.88691E-01 1.18699E-25
2.92653E-01 1.14490E-25
2.96632E-01 1.10454E-25
3.00625E-01 1.06582E-25
3.04634E-01 1.02866E-25
3.08658E-01 9.93003E-26
3.12697E-01 9.58766E-26
3.16749E-01 9.25887E-26
3.20816E-01 8.94305E-26
3.24896E-01 8.63961E-26
3.28990E-01 8.34798E-26
3.33097E-01 8.06765E-26
3.37216E-01 7.79810E-26
3.41348E-01 7.53887E-26
3.45492E-01 7.28950E-26
3.49647E-01 7.04955E-26
3.53814E-01 6.81863E-26
3.57992E-01 6.59634E-26
3.62181E-01 6.38230E-26
3.66381E-01 6.17618E-26
3.70590E-01 5.97763E-26
3.74810E-01 5.78633E-26
3.79039E-01 5.60199E-26
3.83277E-01 5.42431E-26
3.87524E-01 5.25302E-26
3.91780E-01 5.08785E-26
3.96044E-01 4.92855E-26
4.00316E-01 4.77489E-26
4.04596E-01 4.62664E-26
4.08882E-01 4.48358E-26
4.13176E-01 4.34550E-26
4.17476E-01 4.21221E-26
4.21783E-01 4.08351E-26
4.26095E-01 3.95922E-26
4.30413E-01 3.83918E-26
4.34737E-01 3.72321E-26
4.39065E-01 3.61117E-26
4.43398E-01 3.50289E-26
4.47736E-01 3.39823E-26
4.52077E-01 3.29707E-26
4.56422E-01 3.19925E-26
4.60770E-01 3.10466E-26
4.65122E-01 3.01318E-26
4.69476E-01 2.92469E-26
4.73832E-01 2.83908E-26
4.78190E-01 2.75624E-26
4.82550E-01 2.67607E-26
4.86912E-01 2.59848E-26
4.91274E-01 2.52336E-26
4.95637E-01 2.45064E-26
5.00000E-01 2.38022E-26
5.04363E-01 2.31202E-26
5.08726E-01 2.24596E-26
5.13088E-01 2.18196E-26
5.17450E-01 2.11996E-26
5.21810E-01 2.05988E-26
5.26168E-01 2.00166E-26
5.30524E-01 1.94522E-26
5.34878E-01 1.89052E-26
5.39230E-01 1.83748E-26
5.43578E-01 1.78605E-26
5.47923E-01 1.73618E-26
5.52264E-01 1.68781E-26
5.56602E-01 1.64089E-26
5.60935E-01 1.59538E-26
5.65263E-01 1.55122E-26
5.69587E-01 1.50836E-26
5.73905E-01 1.46678E-26
5.78217E-01 1.42642E-26
5.82524E-01 1.38724E-26
5.86824E-01 1.34921E-26
5.91118E-01 1.31228E-26
5.95404E-01 1.27643E-26
5.99684E-01 1.24161E-26
6.03956E-01 1.20779E-26
6.08220E-01 1.17495E-26
6.12476E-01 1.14304E-26
6.16723E-01 1.11204E-26
6.20961E-01 1.08192E-26
6.25190E-01 1.05265E-26
6.29410E-01 1.02421E-26
6.33619E-01 9.96569E-27
6.37819E-01 9.69700E-27
6.42008E-01 9.43581E-27
6.46186E-01 9.18188E-27
6.50353E-01 8.93500E-27
6.54508E-01 8.69493E-27
6.58652E-01 8.46148E-27
6.62784E-01 8.23444E-27
6.66903E-01 8.01361E-27
6.71010E-01 7.79880E-27
6.75104E-01 7.58984E-27
6.79184E-01 7.38655E-27
6.83251E-01 7.18875E-27
6.87303E-01 6.99629E-27
6.91342E-01 6.80899E-27
6.95366E-01 6.62672E-27
6.99375E-01 6.44932E-27
7.03368E-01 6.27664E-27
7.07347E-01 6.10855E-27
7.11309E-01 5.94492E-27
7.15256E-01 5.78561E-27
7.19186E-01 5.63049E-27
7.23099E-01 5.47946E-27
7.26995E-01 5.33238E-27
7.30874E-01 5.18915E-27
7.34736E-01 5.04965E-27
7.38579E-01 4.91378E-27
7.42405E-01 4.78144E-27
7.46212E-01 4.65252E-27
7.50000E-01 4.52693E-27
7.53769E-01 4.40457E-27
7.57519E-01 4.28536E-27
7.61249E-01 4.16921E-27
7.64960E-01 4.05603E-27
7.68650E-01 3.94574E-27
7.72320E-01 3.83825E-27
7.75968E-01 3.73350E-27
7.79596E-01 3.63141E-27
7.83203E-01 3.53190E-27
7.86788E-01 3.43490E-27
7.90351E-01 3.34035E-27
7.93893E-01 3.24818E-27
7.97411E-01 3.15833E-27
8.00908E-01 3.07073E-27
8.04381E-01 2.98533E-27
8.07831E-01 2.90206E-27
8.11257E-01 2.82086E-27
8.14660E-01 2.74170E-27
8.18039E-01 2.66450E-27
8.21394E-01 2.58922E-27
8.24724E-01 2.51581E-27
8.28030E-01 2.44422E-27
8.31310E-01 2.37440E-27
8.34565E-01 2.30631E-27
8.37795E-01 2.23990E-27
8.40999E-01 2.17513E-27
8.44177E-01 2.11196E-27
8.47329E-01 2.05035E-27
8.50455E-01 1.99025E-27
8.53553E-01 1.93163E-27
8.56625E-01 1.87446E-27
8.59670E-01 1.81869E-27
8.62687E-01 1.76429E-27
8.65677E-01 1.71123E-27
8.68639E-01 1.65947E-27
8.71572E-01 1.60899E-27
8.74478E-01 1.55975E-27
8.77355E-01 1.51171E-27
8.80203E-01 1.46486E-27
8.83022E-01 1.41917E-27
8.85812E-01 1.37460E-27
8.88573E-01 1.33112E-27
8.91304E-01 1.28872E-27
8.94005E-01 1.24737E-27
8.96677E-01 1.20704E-27
8.99318E-01 1.16771E-27
9.01928E-01 1.12935E-27
9.04508E-01 1.09195E-27
9.07058E-01 1.05548E-27
9.09576E-01 1.01992E-27
9.12063E-01 9.85243E-28
9.14519E-01 9.51440E-28
9.16943E-01 9.18486E-28
9.19335E-01 8.86363E-28
9.21696E-01 8.55052E-28
9.24024E-01 8.24536E-28
9.26320E-01 7.94797E-28
9.28584E-01 7.65819E-28
9.30815E-01 7.37584E-28
9.33013E-01 7.10078E-28
9.35178E-01 6.83285E-28
9.37310E-01 6.57189E-28
9.39409E-01 6.31777E-28
9.41474E-01 6.07035E-28
9.43505E-01 5.82948E-28
9.45503E-01 5.59503E-28
9.47467E-01 5.36688E-28
9.49397E-01 5.14489E-28
9.51293E-01 4.92896E-28
9.53154E-01 4.71896E-28
9.54981E-01 4.51478E-28
9.56773E-01 4.31630E-28
9.58530E-01 4.12343E-28
9.60252E-01 3.93605E-28
9.61940E-01 3.75407E-28
9.63592E-01 3.57738E-28
9.65209E-01 3.40591E-28
9.66790E-01 3.23954E-28
9.68336E-01 3.07820E-28
9.69846E-01 2.92181E-28
9.71321E-01 2.77026E-28
9.72759E-01 2.62350E-28
9.74162E-01 2.48144E-28
9.75528E-01 2.34400E-28
9.76858E-01 2.21112E-28
9.78152E-01 2.08272E-28
9.79410E-01 1.95874E-28
9.80631E-01 1.83911E-28
9.81815E-01 1.72378E-28
9.82963E-01 1.61267E-28
9.84074E-01 1.50574E-28
9.85148E-01 1.40293E-28
9.86185E-01 1.30419E-28
9.87185E-01 1.20946E-28
9.88148E-01 1.11870E-28
9.89074E-01 1.03186E-28
9.89962E-01 9.48890E-29
9.90814E-01 8.69758E-29
9.91627E-01 7.94418E-29
9.92404E-01 7.22833E-29
9.93143E-01 6.54967E-29
9.93844E-01 5.90784E-29
9.94508E-01 5.30252E-29
9.95134E-01 4.73341E-29
9.95722E-01 4.20022E-29
9.96273E-01 3.70267E-29
9.96786E-01 3.24051E-29
9.97261E-01 2.81352E-29
9.97698E-01 2.42148E-29
9.98097E-01 2.06418E-29
9.98459E-01 1.74145E-29
9.98782E-01 1.45313E-29
9.99067E-01 1.19906E-29
9.99315E-01 9.79135E-30
9.99524E-01 7.93227E-30
9.99695E-01 6.41248E-30
9.99829E-01 5.23121E-30
9.99924E-01 4.38787E-30
9.99981E-01 3.88203E-30
1.00000E+00 3.71345E-30
