 #
 # Subroutine ELSEPA. Elastic scattering of electrons and positrons
 #                    by neutral atoms and positive ions
 #
 # Projectile: positron
 # Kinetic energy = 2.00000E+06 eV = 7.34987E+04 a.u.
 #
 # WARNING: High-energy factorization with free-atom DF screening.
 #          Absorption, polarization and exchange corrections are
 #          switched off.
 #          Phase shifts are calculated for the bare nucleus.
 #          Scattering amplitudes are not evaluated.
 #
 # Element: Hf,  Z =  72,  atomic weight = 1.78490E+02 g/mol
 #
 # Nuclear model: Fermi distribution
 #                Average radius = 6.02451E-13 cm
 #                Skin thickness = 5.46000E-14 cm
 #
 # Number of electrons = 72
 #
 # Total elastic cross section = 7.61381E-18 cm**2 = 2.71894E-01 a0**2
 # 1st transport cross section = 9.05656E-22 cm**2 = 3.23416E-05 a0**2
 # 2nd transport cross section = 2.57531E-21 cm**2 = 9.19659E-05 a0**2
 #
 #
 # Differential cross section:                       MU=(1-COS(THETA))/2
 #
 #  THETA        MU          DCS          DCS        Sherman      error
 #  (deg)                 (cm**2/sr)   (a0**2/sr)    function
 #----------------------------------------------------------------------
0.00000E+00 3.98377E-13
7.61557E-13 3.98376E-13
1.18994E-12 3.98375E-13
1.71346E-12 3.98375E-13
2.33225E-12 3.98374E-13
3.04617E-12 3.98373E-13
3.85530E-12 3.98372E-13
4.75964E-12 3.98371E-13
5.75917E-12 3.98370E-13
6.85391E-12 3.98369E-13
8.04379E-12 3.98368E-13
9.32893E-12 3.98366E-13
1.07092E-11 3.98365E-13
1.21847E-11 3.98363E-13
1.37554E-11 3.98361E-13
1.54213E-11 3.98360E-13
1.71823E-11 3.98358E-13
1.90386E-11 3.98356E-13
2.09900E-11 3.98354E-13
2.30367E-11 3.98351E-13
2.51785E-11 3.98349E-13
2.74156E-11 3.98347E-13
2.97478E-11 3.98344E-13
3.21752E-11 3.98342E-13
3.46979E-11 3.98339E-13
3.73157E-11 3.98336E-13
4.00286E-11 3.98333E-13
4.28368E-11 3.98331E-13
4.57402E-11 3.98328E-13
4.87388E-11 3.98324E-13
5.18325E-11 3.98321E-13
5.50215E-11 3.98318E-13
5.83057E-11 3.98314E-13
6.16850E-11 3.98311E-13
6.51595E-11 3.98307E-13
6.87293E-11 3.98303E-13
7.23943E-11 3.98300E-13
7.61544E-11 3.98296E-13
1.18991E-10 3.98251E-13
1.71347E-10 3.98197E-13
2.33223E-10 3.98134E-13
3.04617E-10 3.98060E-13
3.85531E-10 3.97977E-13
4.75965E-10 3.97885E-13
5.75917E-10 3.97783E-13
6.85389E-10 3.97671E-13
8.04380E-10 3.97550E-13
9.32891E-10 3.97419E-13
1.07092E-09 3.97279E-13
1.21847E-09 3.97129E-13
1.37554E-09 3.96969E-13
1.54213E-09 3.96800E-13
1.71823E-09 3.96622E-13
1.90386E-09 3.96434E-13
2.09900E-09 3.96237E-13
2.30367E-09 3.96031E-13
2.51785E-09 3.95815E-13
2.74156E-09 3.95589E-13
2.97478E-09 3.95355E-13
3.21752E-09 3.95111E-13
3.46978E-09 3.94858E-13
3.73156E-09 3.94596E-13
4.00286E-09 3.94324E-13
4.28368E-09 3.94043E-13
4.57402E-09 3.93753E-13
4.87388E-09 3.93454E-13
5.18326E-09 3.93146E-13
5.50215E-09 3.92829E-13
5.83057E-09 3.92503E-13
6.16850E-09 3.92168E-13
6.51596E-09 3.91824E-13
6.87293E-09 3.91472E-13
7.23942E-09 3.91110E-13
7.61544E-09 3.90739E-13
1.18991E-08 3.86562E-13
1.71347E-08 3.81558E-13
2.33223E-08 3.75784E-13
3.04617E-08 3.69303E-13
3.85531E-08 3.62180E-13
4.75965E-08 3.54476E-13
5.75917E-08 3.46310E-13
6.85389E-08 3.37696E-13
8.04380E-08 3.28764E-13
9.32891E-08 3.19548E-13
1.07092E-07 3.10140E-13
1.21847E-07 3.00607E-13
1.37554E-07 2.90988E-13
1.54213E-07 2.81387E-13
1.71823E-07 2.71790E-13
1.90386E-07 2.62320E-13
2.09900E-07 2.52942E-13
2.30367E-07 2.43757E-13
2.51785E-07 2.34751E-13
2.74156E-07 2.25975E-13
2.97478E-07 2.17442E-13
3.21752E-07 2.09159E-13
3.46978E-07 2.01160E-13
3.73156E-07 1.93421E-13
4.00286E-07 1.85986E-13
4.28368E-07 1.78814E-13
4.57402E-07 1.71944E-13
4.87388E-07 1.65345E-13
5.18325E-07 1.59032E-13
5.50215E-07 1.52989E-13
5.83057E-07 1.47211E-13
6.16850E-07 1.41695E-13
6.51596E-07 1.36422E-13
6.87293E-07 1.31400E-13
7.23942E-07 1.26594E-13
7.61543E-07 1.22023E-13
1.18991E-06 8.63656E-14
1.71347E-06 6.36057E-14
2.33223E-06 4.83157E-14
3.04617E-06 3.75308E-14
3.85531E-06 2.95732E-14
4.75964E-06 2.33610E-14
5.75916E-06 1.90598E-14
6.85388E-06 1.54539E-14
8.04378E-06 1.27630E-14
9.32888E-06 1.05873E-14
1.07092E-05 8.85564E-15
1.21846E-05 7.47824E-15
1.37553E-05 6.33206E-15
1.54212E-05 5.42448E-15
1.71822E-05 4.64286E-15
1.90385E-05 4.01734E-15
2.09899E-05 3.47621E-15
2.30365E-05 3.03260E-15
2.51783E-05 2.64916E-15
2.74153E-05 2.32441E-15
2.97475E-05 2.04655E-15
3.21749E-05 1.80578E-15
3.46974E-05 1.60128E-15
3.73152E-05 1.42096E-15
4.00281E-05 1.26800E-15
4.28362E-05 1.13146E-15
4.57395E-05 1.01432E-15
4.87380E-05 9.10561E-16
5.18317E-05 8.19940E-16
5.50205E-05 7.40036E-16
5.83045E-05 6.69400E-16
6.16838E-05 6.07235E-16
6.51582E-05 5.51792E-16
6.87277E-05 5.02950E-16
7.23925E-05 4.59064E-16
7.61524E-05 4.20189E-16
9.21439E-05 3.00568E-16
1.09658E-04 2.21023E-16
1.28695E-04 1.66617E-16
1.49255E-04 1.28279E-16
1.71338E-04 1.00467E-16
1.94942E-04 7.98063E-17
2.20070E-04 6.41918E-17
2.46720E-04 5.22173E-17
2.74892E-04 4.29089E-17
3.04586E-04 3.55746E-17
3.35803E-04 2.97316E-17
3.68542E-04 2.50326E-17
4.02802E-04 2.12064E-17
4.38585E-04 1.80962E-17
4.75889E-04 1.55359E-17
5.14715E-04 1.34063E-17
5.55063E-04 1.16354E-17
5.96931E-04 1.01389E-17
6.40321E-04 8.88233E-18
6.85233E-04 7.80755E-18
7.31665E-04 6.89462E-18
7.79618E-04 6.10867E-18
8.29092E-04 5.43255E-18
8.80086E-04 4.84709E-18
9.32601E-04 4.33805E-18
9.86636E-04 3.89470E-18
1.04219E-03 3.50560E-18
1.09927E-03 3.16487E-18
1.15786E-03 2.86341E-18
1.21797E-03 2.59775E-18
1.27961E-03 2.36163E-18
1.34276E-03 2.15201E-18
1.40743E-03 1.96499E-18
1.47362E-03 1.79782E-18
1.54133E-03 1.64813E-18
1.61056E-03 1.51352E-18
1.68131E-03 1.39256E-18
1.75357E-03 1.28319E-18
1.82735E-03 1.18453E-18
1.90265E-03 1.09498E-18
1.97947E-03 1.01383E-18
2.05780E-03 9.39982E-19
2.13765E-03 8.72742E-19
2.21902E-03 8.11400E-19
2.30190E-03 7.55305E-19
2.38630E-03 7.04012E-19
2.47222E-03 6.56919E-19
2.55965E-03 6.13753E-19
2.64859E-03 5.73991E-19
2.73905E-03 5.37434E-19
2.83103E-03 5.03699E-19
2.92452E-03 4.72573E-19
3.01952E-03 4.43801E-19
3.11604E-03 4.17168E-19
3.21407E-03 3.92509E-19
3.31362E-03 3.69615E-19
3.41468E-03 3.48383E-19
3.51725E-03 3.28616E-19
3.62133E-03 3.10245E-19
3.72692E-03 2.93119E-19
3.83403E-03 2.77160E-19
3.94265E-03 2.62263E-19
4.05278E-03 2.48346E-19
4.16442E-03 2.35340E-19
4.27757E-03 2.23161E-19
4.39223E-03 2.11765E-19
4.50840E-03 2.01071E-19
4.62608E-03 1.91049E-19
4.74527E-03 1.81632E-19
4.86597E-03 1.72790E-19
4.98817E-03 1.64473E-19
5.11188E-03 1.56648E-19
5.23711E-03 1.49281E-19
5.36383E-03 1.42337E-19
5.49207E-03 1.35793E-19
5.62181E-03 1.29614E-19
5.75306E-03 1.23784E-19
5.88581E-03 1.18272E-19
6.02007E-03 1.13064E-19
6.15583E-03 1.08137E-19
6.29310E-03 1.03474E-19
6.43187E-03 9.90579E-20
6.57214E-03 9.48727E-20
6.71392E-03 9.09062E-20
6.85720E-03 8.71416E-20
7.00198E-03 8.35705E-20
7.14827E-03 8.01774E-20
7.29605E-03 7.69550E-20
7.44534E-03 7.38910E-20
7.59612E-03 7.09773E-20
7.97965E-03 6.42937E-20
8.37255E-03 5.83739E-20
8.77480E-03 5.31154E-20
9.18641E-03 4.84324E-20
9.60736E-03 4.42512E-20
1.00376E-02 4.05089E-20
1.04773E-02 3.71515E-20
1.09262E-02 3.41327E-20
1.13844E-02 3.14125E-20
1.18520E-02 2.89562E-20
1.23288E-02 2.67338E-20
1.28150E-02 2.47191E-20
1.33104E-02 2.28895E-20
1.38150E-02 2.12249E-20
1.43290E-02 1.97079E-20
1.48521E-02 1.83231E-20
1.53845E-02 1.70570E-20
1.59262E-02 1.58976E-20
1.64770E-02 1.48344E-20
1.70371E-02 1.38579E-20
1.76063E-02 1.29599E-20
1.81848E-02 1.21328E-20
1.87724E-02 1.13703E-20
1.93692E-02 1.06662E-20
1.99751E-02 1.00153E-20
2.05901E-02 9.41299E-21
2.12143E-02 8.85488E-21
2.18476E-02 8.33719E-21
2.24900E-02 7.85646E-21
2.31415E-02 7.40957E-21
2.38021E-02 6.99375E-21
2.44717E-02 6.60643E-21
2.51504E-02 6.24531E-21
2.58382E-02 5.90831E-21
2.65349E-02 5.59353E-21
2.72407E-02 5.29924E-21
2.79555E-02 5.02387E-21
2.86793E-02 4.76598E-21
2.94120E-02 4.52426E-21
3.01537E-02 4.29753E-21
3.09043E-02 4.08468E-21
3.16639E-02 3.88471E-21
3.24324E-02 3.69670E-21
3.32098E-02 3.51982E-21
3.39961E-02 3.35327E-21
3.47912E-02 3.19636E-21
3.55952E-02 3.04842E-21
3.64081E-02 2.90885E-21
3.72297E-02 2.77708E-21
3.80602E-02 2.65260E-21
3.88995E-02 2.53494E-21
3.97476E-02 2.42368E-21
4.06044E-02 2.31836E-21
4.14700E-02 2.21865E-21
4.23443E-02 2.12417E-21
4.32273E-02 2.03461E-21
4.41190E-02 1.94967E-21
4.50194E-02 1.86905E-21
4.59284E-02 1.79252E-21
4.68461E-02 1.71980E-21
4.87074E-02 1.58498E-21
5.06030E-02 1.46296E-21
5.25328E-02 1.35232E-21
5.44967E-02 1.25181E-21
5.64946E-02 1.16035E-21
5.85262E-02 1.07698E-21
6.05914E-02 1.00087E-21
6.26901E-02 9.31274E-22
6.48222E-02 8.67543E-22
6.69873E-02 8.09097E-22
6.91854E-02 7.55422E-22
7.14163E-02 7.06063E-22
7.36799E-02 6.60610E-22
7.59760E-02 6.18702E-22
7.83043E-02 5.80017E-22
8.06647E-02 5.44262E-22
8.30571E-02 5.11179E-22
8.54812E-02 4.80532E-22
8.79369E-02 4.52112E-22
9.04240E-02 4.25728E-22
9.29422E-02 4.01210E-22
9.54915E-02 3.78402E-22
9.80716E-02 3.57165E-22
1.00682E-01 3.37373E-22
1.03323E-01 3.18909E-22
1.05995E-01 3.01669E-22
1.08696E-01 2.85557E-22
1.11427E-01 2.70488E-22
1.14188E-01 2.56382E-22
1.16978E-01 2.43166E-22
1.19797E-01 2.30775E-22
1.22645E-01 2.19149E-22
1.25522E-01 2.08232E-22
1.28428E-01 1.97972E-22
1.31361E-01 1.88325E-22
1.34323E-01 1.79246E-22
1.37313E-01 1.70697E-22
1.40330E-01 1.62641E-22
1.43375E-01 1.55045E-22
1.46447E-01 1.47877E-22
1.49545E-01 1.41111E-22
1.52671E-01 1.34718E-22
1.55823E-01 1.28676E-22
1.59001E-01 1.22961E-22
1.62205E-01 1.17553E-22
1.65435E-01 1.12432E-22
1.68690E-01 1.07581E-22
1.71970E-01 1.02982E-22
1.75276E-01 9.86206E-23
1.78606E-01 9.44821E-23
1.81961E-01 9.05531E-23
1.85340E-01 8.68212E-23
1.88743E-01 8.32747E-23
1.92169E-01 7.99030E-23
1.95619E-01 7.66958E-23
1.99092E-01 7.36437E-23
2.02589E-01 7.07379E-23
2.06107E-01 6.79703E-23
2.09649E-01 6.53330E-23
2.13212E-01 6.28189E-23
2.16797E-01 6.04212E-23
2.20404E-01 5.81336E-23
2.24032E-01 5.59501E-23
2.27680E-01 5.38653E-23
2.31350E-01 5.18738E-23
2.35040E-01 4.99707E-23
2.38751E-01 4.81515E-23
2.42481E-01 4.64118E-23
2.46231E-01 4.47475E-23
2.50000E-01 4.31548E-23
2.53788E-01 4.16301E-23
2.57595E-01 4.01700E-23
2.61421E-01 3.87712E-23
2.65264E-01 3.74308E-23
2.69126E-01 3.61458E-23
2.73005E-01 3.49137E-23
2.76901E-01 3.37318E-23
2.80814E-01 3.25978E-23
2.84744E-01 3.15093E-23
2.88691E-01 3.04642E-23
2.92653E-01 2.94605E-23
2.96632E-01 2.84963E-23
3.00625E-01 2.75697E-23
3.04634E-01 2.66791E-23
3.08658E-01 2.58227E-23
3.12697E-01 2.49991E-23
3.16749E-01 2.42068E-23
3.20816E-01 2.34443E-23
3.24896E-01 2.27104E-23
3.28990E-01 2.20038E-23
3.33097E-01 2.13234E-23
3.37216E-01 2.06679E-23
3.41348E-01 2.00363E-23
3.45492E-01 1.94276E-23
3.49647E-01 1.88409E-23
3.53814E-01 1.82751E-23
3.57992E-01 1.77295E-23
3.62181E-01 1.72031E-23
3.66381E-01 1.66952E-23
3.70590E-01 1.62050E-23
3.74810E-01 1.57318E-23
3.79039E-01 1.52749E-23
3.83277E-01 1.48337E-23
3.87524E-01 1.44074E-23
3.91780E-01 1.39956E-23
3.96044E-01 1.35977E-23
4.00316E-01 1.32130E-23
4.04596E-01 1.28412E-23
4.08882E-01 1.24816E-23
4.13176E-01 1.21339E-23
4.17476E-01 1.17975E-23
4.21783E-01 1.14720E-23
4.26095E-01 1.11570E-23
4.30413E-01 1.08522E-23
4.34737E-01 1.05571E-23
4.39065E-01 1.02714E-23
4.43398E-01 9.99464E-24
4.47736E-01 9.72663E-24
4.52077E-01 9.46698E-24
4.56422E-01 9.21539E-24
4.60770E-01 8.97159E-24
4.65122E-01 8.73527E-24
4.69476E-01 8.50619E-24
4.73832E-01 8.28407E-24
4.78190E-01 8.06867E-24
4.82550E-01 7.85975E-24
4.86912E-01 7.65709E-24
4.91274E-01 7.46047E-24
4.95637E-01 7.26968E-24
5.00000E-01 7.08451E-24
5.04363E-01 6.90478E-24
5.08726E-01 6.73029E-24
5.13088E-01 6.56088E-24
5.17450E-01 6.39636E-24
5.21810E-01 6.23658E-24
5.26168E-01 6.08137E-24
5.30524E-01 5.93059E-24
5.34878E-01 5.78408E-24
5.39230E-01 5.64171E-24
5.43578E-01 5.50334E-24
5.47923E-01 5.36884E-24
5.52264E-01 5.23808E-24
5.56602E-01 5.11094E-24
5.60935E-01 4.98731E-24
5.65263E-01 4.86708E-24
5.69587E-01 4.75013E-24
5.73905E-01 4.63636E-24
5.78217E-01 4.52568E-24
5.82524E-01 4.41798E-24
5.86824E-01 4.31317E-24
5.91118E-01 4.21117E-24
5.95404E-01 4.11188E-24
5.99684E-01 4.01523E-24
6.03956E-01 3.92113E-24
6.08220E-01 3.82950E-24
6.12476E-01 3.74027E-24
6.16723E-01 3.65337E-24
6.20961E-01 3.56872E-24
6.25190E-01 3.48627E-24
6.29410E-01 3.40593E-24
6.33619E-01 3.32766E-24
6.37819E-01 3.25140E-24
6.42008E-01 3.17707E-24
6.46186E-01 3.10462E-24
6.50353E-01 3.03401E-24
6.54508E-01 2.96518E-24
6.58652E-01 2.89807E-24
6.62784E-01 2.83264E-24
6.66903E-01 2.76883E-24
6.71010E-01 2.70661E-24
6.75104E-01 2.64593E-24
6.79184E-01 2.58674E-24
6.83251E-01 2.52901E-24
6.87303E-01 2.47268E-24
6.91342E-01 2.41773E-24
6.95366E-01 2.36411E-24
6.99375E-01 2.31180E-24
7.03368E-01 2.26074E-24
7.07347E-01 2.21091E-24
7.11309E-01 2.16228E-24
7.15256E-01 2.11481E-24
7.19186E-01 2.06847E-24
7.23099E-01 2.02323E-24
7.26995E-01 1.97907E-24
7.30874E-01 1.93594E-24
7.34736E-01 1.89383E-24
7.38579E-01 1.85271E-24
7.42405E-01 1.81255E-24
7.46212E-01 1.77333E-24
7.50000E-01 1.73503E-24
7.53769E-01 1.69761E-24
7.57519E-01 1.66106E-24
7.61249E-01 1.62535E-24
7.64960E-01 1.59047E-24
7.68650E-01 1.55639E-24
7.72320E-01 1.52309E-24
7.75968E-01 1.49055E-24
7.79596E-01 1.45876E-24
7.83203E-01 1.42769E-24
7.86788E-01 1.39732E-24
7.90351E-01 1.36765E-24
7.93893E-01 1.33865E-24
7.97411E-01 1.31030E-24
8.00908E-01 1.28259E-24
8.04381E-01 1.25551E-24
8.07831E-01 1.22904E-24
8.11257E-01 1.20316E-24
8.14660E-01 1.17786E-24
8.18039E-01 1.15313E-24
8.21394E-01 1.12895E-24
8.24724E-01 1.10531E-24
8.28030E-01 1.08220E-24
8.31310E-01 1.05960E-24
8.34565E-01 1.03751E-24
8.37795E-01 1.01591E-24
8.40999E-01 9.94787E-25
8.44177E-01 9.74136E-25
8.47329E-01 9.53942E-25
8.50455E-01 9.34198E-25
8.53553E-01 9.14891E-25
8.56625E-01 8.96013E-25
8.59670E-01 8.77554E-25
8.62687E-01 8.59505E-25
8.65677E-01 8.41857E-25
8.68639E-01 8.24600E-25
8.71572E-01 8.07727E-25
8.74478E-01 7.91229E-25
8.77355E-01 7.75098E-25
8.80203E-01 7.59327E-25
8.83022E-01 7.43907E-25
8.85812E-01 7.28832E-25
8.88573E-01 7.14094E-25
8.91304E-01 6.99686E-25
8.94005E-01 6.85602E-25
8.96677E-01 6.71834E-25
8.99318E-01 6.58376E-25
9.01928E-01 6.45223E-25
9.04508E-01 6.32367E-25
9.07058E-01 6.19804E-25
9.09576E-01 6.07527E-25
9.12063E-01 5.95530E-25
9.14519E-01 5.83809E-25
9.16943E-01 5.72357E-25
9.19335E-01 5.61171E-25
9.21696E-01 5.50244E-25
9.24024E-01 5.39572E-25
9.26320E-01 5.29150E-25
9.28584E-01 5.18973E-25
9.30815E-01 5.09038E-25
9.33013E-01 4.99340E-25
9.35178E-01 4.89873E-25
9.37310E-01 4.80636E-25
9.39409E-01 4.71622E-25
9.41474E-01 4.62829E-25
9.43505E-01 4.54253E-25
9.45503E-01 4.45890E-25
9.47467E-01 4.37736E-25
9.49397E-01 4.29788E-25
9.51293E-01 4.22043E-25
9.53154E-01 4.14497E-25
9.54981E-01 4.07147E-25
9.56773E-01 3.99991E-25
9.58530E-01 3.93025E-25
9.60252E-01 3.86245E-25
9.61940E-01 3.79651E-25
9.63592E-01 3.73237E-25
9.65209E-01 3.67003E-25
9.66790E-01 3.60946E-25
9.68336E-01 3.55062E-25
9.69846E-01 3.49351E-25
9.71321E-01 3.43808E-25
9.72759E-01 3.38433E-25
9.74162E-01 3.33222E-25
9.75528E-01 3.28174E-25
9.76858E-01 3.23287E-25
9.78152E-01 3.18558E-25
9.79410E-01 3.13987E-25
9.80631E-01 3.09570E-25
9.81815E-01 3.05307E-25
9.82963E-01 3.01196E-25
9.84074E-01 2.97234E-25
9.85148E-01 2.93421E-25
9.86185E-01 2.89755E-25
9.87185E-01 2.86234E-25
9.88148E-01 2.82857E-25
9.89074E-01 2.79623E-25
9.89962E-01 2.76531E-25
9.90814E-01 2.73579E-25
9.91627E-01 2.70765E-25
9.92404E-01 2.68090E-25
9.93143E-01 2.65552E-25
9.93844E-01 2.63150E-25
9.94508E-01 2.60883E-25
9.95134E-01 2.58750E-25
9.95722E-01 2.56751E-25
9.96273E-01 2.54884E-25
9.96786E-01 2.53149E-25
9.97261E-01 2.51545E-25
9.97698E-01 2.50071E-25
9.98097E-01 2.48728E-25
9.98459E-01 2.47514E-25
9.98782E-01 2.46429E-25
9.99067E-01 2.45473E-25
9.99315E-01 2.44645E-25
9.99524E-01 2.43945E-25
9.99695E-01 2.43373E-25
9.99829E-01 2.42928E-25
9.99924E-01 2.42610E-25
9.99981E-01 2.42419E-25
1.00000E+00 2.42356E-25
