 #
 # Subroutine ELSEPA. Elastic scattering of electrons and positrons
 #                    by neutral atoms and positive ions
 #
 # Projectile: electron
 # Kinetic energy = 1.00000E+09 eV = 3.67493E+07 a.u.
 #
 # WARNING: High-energy factorization with free-atom DF screening.
 #          Absorption, polarization and exchange corrections are
 #          switched off.
 #          Phase shifts are calculated for the bare nucleus.
 #          Scattering amplitudes are not evaluated.
 #
 # Element: Kr,  Z =  36,  atomic weight = 8.38000E+01 g/mol
 #
 # Nuclear model: Fermi distribution
 #                Average radius = 4.68236E-13 cm
 #                Skin thickness = 5.46000E-14 cm
 #
 # Number of electrons = 36
 #
 # Total elastic cross section = 2.79956E-18 cm**2 = 9.99742E-02 a0**2
 # 1st transport cross section = 2.61313E-27 cm**2 = 9.33167E-11 a0**2
 # 2nd transport cross section = 7.83855E-27 cm**2 = 2.79920E-10 a0**2
 #
 #
 # Differential cross section:                       MU=(1-COS(THETA))/2
 #
 #  THETA        MU          DCS          DCS        Sherman      error
 #  (deg)                 (cm**2/sr)   (a0**2/sr)    function
 #----------------------------------------------------------------------
0.00000E+00 1.78659E-08
7.61557E-13 1.56419E-08
1.18994E-12 1.45669E-08
1.71346E-12 1.33930E-08
2.33225E-12 1.21717E-08
3.04617E-12 1.09568E-08
3.85530E-12 9.78567E-09
4.75964E-12 8.68483E-09
5.75917E-12 7.67074E-09
6.85391E-12 6.74877E-09
8.04379E-12 5.92383E-09
9.32893E-12 5.19445E-09
1.07092E-11 4.55465E-09
1.21847E-11 3.99671E-09
1.37554E-11 3.51219E-09
1.54213E-11 3.09180E-09
1.71823E-11 2.72873E-09
1.90386E-11 2.41529E-09
2.09900E-11 2.14462E-09
2.30367E-11 1.90996E-09
2.51785E-11 1.69916E-09
2.74156E-11 1.52069E-09
2.97478E-11 1.36866E-09
3.21752E-11 1.23842E-09
3.46979E-11 1.12623E-09
3.73157E-11 1.02390E-09
4.00286E-11 9.31614E-10
4.28368E-11 8.51277E-10
4.57402E-11 7.81025E-10
4.87388E-11 7.19325E-10
5.18325E-11 6.64499E-10
5.50215E-11 6.12250E-10
5.83057E-11 5.65976E-10
6.16850E-11 5.24845E-10
6.51595E-11 4.88162E-10
6.87293E-11 4.55337E-10
7.23943E-11 4.24212E-10
7.61544E-11 3.95252E-10
1.18991E-10 2.11144E-10
1.71347E-10 1.20852E-10
2.33223E-10 7.25028E-11
3.04617E-10 4.54685E-11
3.85531E-10 2.97271E-11
4.75965E-10 2.02036E-11
5.75917E-10 1.42215E-11
6.85389E-10 1.03172E-11
8.04380E-10 7.68631E-12
9.32891E-10 5.85663E-12
1.07092E-09 4.54746E-12
1.21847E-09 3.58765E-12
1.37554E-09 2.86954E-12
1.54213E-09 2.32262E-12
1.71823E-09 1.89993E-12
1.90386E-09 1.56874E-12
2.09900E-09 1.30611E-12
2.30367E-09 1.09562E-12
2.51785E-09 9.24817E-13
2.74156E-09 7.86805E-13
2.97478E-09 6.72655E-13
3.21752E-09 5.78675E-13
3.46978E-09 5.00223E-13
3.73156E-09 4.34578E-13
4.00286E-09 3.79295E-13
4.28368E-09 3.32437E-13
4.57402E-09 2.92617E-13
4.87388E-09 2.58493E-13
5.18326E-09 2.29246E-13
5.50215E-09 2.03955E-13
5.83057E-09 1.82095E-13
6.16850E-09 1.63052E-13
6.51596E-09 1.46453E-13
6.87293E-09 1.31904E-13
7.23942E-09 1.19123E-13
7.61544E-09 1.07854E-13
1.18991E-08 4.48854E-14
1.71347E-08 2.19126E-14
2.33223E-08 1.19402E-14
3.04617E-08 7.04943E-15
3.85531E-08 4.42485E-15
4.75965E-08 2.91502E-15
5.75917E-08 1.99721E-15
6.85389E-08 1.41354E-15
8.04380E-08 1.02818E-15
9.32891E-08 7.65536E-16
1.07092E-07 5.81593E-16
1.21847E-07 4.49689E-16
1.37554E-07 3.53124E-16
1.54213E-07 2.81130E-16
1.71823E-07 2.26573E-16
1.90386E-07 1.84626E-16
2.09900E-07 1.51949E-16
2.30367E-07 1.26189E-16
2.51785E-07 1.05662E-16
2.74156E-07 8.91430E-17
2.97478E-07 7.57289E-17
3.21752E-07 6.47451E-17
3.46978E-07 5.56819E-17
3.73156E-07 4.81503E-17
4.00286E-07 4.18499E-17
4.28368E-07 3.65469E-17
4.57402E-07 3.20578E-17
4.87388E-07 2.82372E-17
5.18325E-07 2.49691E-17
5.50215E-07 2.21604E-17
5.83057E-07 1.97357E-17
6.16850E-07 1.76337E-17
6.51596E-07 1.58042E-17
6.87293E-07 1.42060E-17
7.23942E-07 1.28047E-17
7.61543E-07 1.15721E-17
1.18991E-06 4.74173E-18
1.71347E-06 2.28732E-18
2.33223E-06 1.23490E-18
3.04617E-06 7.24010E-19
3.85531E-06 4.52075E-19
4.75964E-06 2.96654E-19
5.75916E-06 2.02651E-19
6.85388E-06 1.43107E-19
8.04378E-06 1.03915E-19
9.32888E-06 7.72693E-20
1.07092E-05 5.86435E-20
1.21846E-05 4.53073E-20
1.37553E-05 3.55563E-20
1.54212E-05 2.82934E-20
1.71822E-05 2.27941E-20
1.90385E-05 1.85664E-20
2.09899E-05 1.52797E-20
2.30365E-05 1.26888E-20
2.51783E-05 1.06237E-20
2.74153E-05 8.96164E-21
2.97475E-05 7.61195E-21
3.21749E-05 6.50707E-21
3.46974E-05 5.59581E-21
3.73152E-05 4.83890E-21
4.00281E-05 4.20597E-21
4.28362E-05 3.67335E-21
4.57395E-05 3.22246E-21
4.87380E-05 2.83865E-21
5.18317E-05 2.51027E-21
5.50205E-05 2.22799E-21
5.83045E-05 1.98430E-21
6.16838E-05 1.77305E-21
6.51582E-05 1.58922E-21
6.87277E-05 1.42864E-21
7.23925E-05 1.28787E-21
7.61524E-05 1.13438E-21
9.21439E-05 7.69447E-22
1.09658E-04 5.38972E-22
1.28695E-04 3.87833E-22
1.49255E-04 2.85474E-22
1.71338E-04 2.14265E-22
1.94942E-04 1.63539E-22
2.20070E-04 1.26662E-22
2.46720E-04 9.93699E-23
2.74892E-04 7.88462E-23
3.04586E-04 6.31956E-23
3.35803E-04 5.11081E-23
3.68542E-04 4.16672E-23
4.02802E-04 3.42170E-23
4.38585E-04 2.82833E-23
4.75889E-04 2.35174E-23
5.14715E-04 1.96597E-23
5.55063E-04 1.65154E-23
5.96931E-04 1.39358E-23
6.40321E-04 1.18070E-23
6.85233E-04 1.00406E-23
7.31665E-04 8.56743E-24
7.79618E-04 7.33320E-24
8.29092E-04 6.29464E-24
8.80086E-04 5.41729E-24
9.32601E-04 4.67336E-24
9.86636E-04 4.04041E-24
1.04219E-03 3.50019E-24
1.09927E-03 3.03773E-24
1.15786E-03 2.64078E-24
1.21797E-03 2.29919E-24
1.27961E-03 2.00455E-24
1.34276E-03 1.74984E-24
1.40743E-03 1.52922E-24
1.47362E-03 1.33777E-24
1.54133E-03 1.17135E-24
1.61056E-03 1.02644E-24
1.68131E-03 9.00093E-25
1.75357E-03 7.89775E-25
1.82735E-03 6.93337E-25
1.90265E-03 6.08938E-25
1.97947E-03 5.34999E-25
2.05780E-03 4.70165E-25
2.13765E-03 4.13268E-25
2.21902E-03 3.63300E-25
2.30190E-03 3.19389E-25
2.38630E-03 2.80779E-25
2.47222E-03 2.46815E-25
2.55965E-03 2.16924E-25
2.64859E-03 1.90612E-25
2.73905E-03 1.67443E-25
2.83103E-03 1.47038E-25
2.92452E-03 1.29067E-25
3.01952E-03 1.13239E-25
3.11604E-03 9.92981E-26
3.21407E-03 8.70219E-26
3.31362E-03 7.62133E-26
3.41468E-03 6.66994E-26
3.51725E-03 5.83279E-26
3.62133E-03 5.09646E-26
3.72692E-03 4.44912E-26
3.83403E-03 3.88031E-26
3.94265E-03 3.38083E-26
4.05278E-03 2.94252E-26
4.16442E-03 2.55819E-26
4.27757E-03 2.22147E-26
4.39223E-03 1.92674E-26
4.50840E-03 1.66902E-26
4.62608E-03 1.44390E-26
4.74527E-03 1.24750E-26
4.86597E-03 1.07636E-26
4.98817E-03 9.27445E-27
5.11188E-03 7.98047E-27
5.23711E-03 6.85786E-27
5.36383E-03 5.88553E-27
5.49207E-03 5.04486E-27
5.62181E-03 4.31938E-27
5.75306E-03 3.69456E-27
5.88581E-03 3.15759E-27
6.02007E-03 2.69716E-27
6.15583E-03 2.30330E-27
6.29310E-03 1.96725E-27
6.43187E-03 1.68129E-27
6.57214E-03 1.43865E-27
6.71392E-03 1.23338E-27
6.85720E-03 1.06027E-27
7.00198E-03 9.14770E-28
7.14827E-03 7.92888E-28
7.29605E-03 6.91153E-28
7.44534E-03 6.06540E-28
7.59612E-03 5.36422E-28
7.97965E-03 4.10345E-28
8.37255E-03 3.33585E-28
8.77480E-03 2.87095E-28
9.18641E-03 2.58169E-28
9.60736E-03 2.38593E-28
1.00376E-02 2.23288E-28
1.04773E-02 2.09313E-28
1.09262E-02 1.95156E-28
1.13844E-02 1.80211E-28
1.18520E-02 1.64427E-28
1.23288E-02 1.48054E-28
1.28150E-02 1.31482E-28
1.33104E-02 1.15130E-28
1.38150E-02 9.93880E-29
1.43290E-02 8.45764E-29
1.48521E-02 7.09359E-29
1.53845E-02 5.86237E-29
1.59262E-02 4.77202E-29
1.64770E-02 3.82402E-29
1.70371E-02 3.01450E-29
1.76063E-02 2.33559E-29
1.81848E-02 1.77657E-29
1.87724E-02 1.32498E-29
1.93692E-02 9.67540E-30
1.99751E-02 6.90851E-30
2.05901E-02 4.81968E-30
2.12143E-02 3.28799E-30
2.18476E-02 2.20372E-30
2.24900E-02 1.46988E-30
2.31415E-02 1.00279E-30
2.38021E-02 7.31961E-31
2.44717E-02 5.99451E-31
2.51504E-02 5.58864E-31
2.58382E-02 5.74106E-31
2.65349E-02 6.18044E-31
2.72407E-02 6.71132E-31
2.79555E-02 7.20083E-31
2.86793E-02 7.56627E-31
2.94120E-02 7.76391E-31
3.01537E-02 7.77912E-31
3.09043E-02 7.61803E-31
3.16639E-02 7.30048E-31
3.24324E-02 6.85445E-31
3.32098E-02 6.31165E-31
3.39961E-02 5.70427E-31
3.47912E-02 5.06259E-31
3.55952E-02 4.41350E-31
3.64081E-02 3.77961E-31
3.72297E-02 3.17881E-31
3.80602E-02 2.62436E-31
3.88995E-02 2.12513E-31
3.97476E-02 1.68605E-31
4.06044E-02 1.30874E-31
4.14700E-02 9.92064E-32
4.23443E-02 7.32800E-32
4.32273E-02 5.26208E-32
4.41190E-02 3.66563E-32
4.50194E-02 2.47610E-32
4.59284E-02 1.62953E-32
4.68461E-02 1.06353E-32
4.87074E-02 5.44570E-33
5.06030E-02 5.21969E-33
5.25328E-02 7.05915E-33
5.44967E-02 9.12191E-33
5.64946E-02 1.04472E-32
5.85262E-02 1.07165E-32
6.05914E-02 1.00143E-32
6.26901E-02 8.62687E-33
6.48222E-02 6.89443E-33
6.69873E-02 5.11940E-33
6.91854E-02 3.52088E-33
7.14163E-02 2.22399E-33
7.36799E-02 1.27084E-33
7.59760E-02 6.42370E-34
7.83043E-02 2.82543E-34
8.06647E-02 1.19929E-34
8.30571E-02 8.38320E-35
8.54812E-02 1.14406E-34
8.79369E-02 1.67343E-34
9.04240E-02 2.14424E-34
9.29422E-02 2.41391E-34
9.54915E-02 2.44490E-34
9.80716E-02 2.26725E-34
1.00682E-01 1.94521E-34
1.03323E-01 1.55150E-34
1.05995E-01 1.15051E-34
1.08696E-01 7.89484E-35
1.11427E-01 4.96098E-35
1.14188E-01 2.80318E-35
1.16978E-01 1.38624E-35
1.19797E-01 5.89531E-36
1.22645E-01 2.53177E-36
1.25522E-01 2.14368E-36
1.28428E-01 3.31618E-36
1.31361E-01 4.97390E-36
1.34323E-01 6.41245E-36
1.37313E-01 7.26377E-36
1.40330E-01 7.42386E-36
1.43375E-01 6.96724E-36
1.46447E-01 6.06565E-36
1.49545E-01 4.92181E-36
1.52671E-01 3.72292E-36
1.55823E-01 2.61374E-36
1.59001E-01 1.68646E-36
1.62205E-01 9.82706E-37
1.65435E-01 5.02973E-37
1.68690E-01 2.19390E-37
1.71970E-01 8.85537E-38
1.75276E-01 6.24982E-38
1.78606E-01 9.67224E-38
1.81961E-01 1.55102E-37
1.85340E-01 2.11996E-37
1.88743E-01 2.52168E-37
1.92169E-01 2.69264E-37
1.95619E-01 2.63529E-37
1.99092E-01 2.39363E-37
2.02589E-01 2.03116E-37
2.06107E-01 1.61376E-37
2.09649E-01 1.19818E-37
2.13212E-01 8.26076E-38
2.16797E-01 5.22372E-38
2.20404E-01 2.96663E-38
2.24032E-01 1.00000E-45
2.27680E-01 1.00000E-45
2.31350E-01 1.00000E-45
2.35040E-01 1.00000E-45
2.38751E-01 1.00000E-45
2.42481E-01 1.00000E-45
2.46231E-01 1.00000E-45
2.50000E-01 1.00000E-45
2.53788E-01 1.00000E-45
2.57595E-01 1.00000E-45
2.61421E-01 1.00000E-45
2.65264E-01 1.00000E-45
2.69126E-01 1.00000E-45
2.73005E-01 1.00000E-45
2.76901E-01 1.00000E-45
2.80814E-01 1.00000E-45
2.84744E-01 1.00000E-45
2.88691E-01 1.00000E-45
2.92653E-01 1.00000E-45
2.96632E-01 1.00000E-45
3.00625E-01 1.00000E-45
3.04634E-01 1.00000E-45
3.08658E-01 1.00000E-45
3.12697E-01 1.00000E-45
3.16749E-01 1.00000E-45
3.20816E-01 1.00000E-45
3.24896E-01 1.00000E-45
3.28990E-01 1.00000E-45
3.33097E-01 1.00000E-45
3.37216E-01 1.00000E-45
3.41348E-01 1.00000E-45
3.45492E-01 1.00000E-45
3.49647E-01 1.00000E-45
3.53814E-01 1.00000E-45
3.57992E-01 1.00000E-45
3.62181E-01 1.00000E-45
3.66381E-01 1.00000E-45
3.70590E-01 1.00000E-45
3.74810E-01 1.00000E-45
3.79039E-01 1.00000E-45
3.83277E-01 1.00000E-45
3.87524E-01 1.00000E-45
3.91780E-01 1.00000E-45
3.96044E-01 1.00000E-45
4.00316E-01 1.00000E-45
4.04596E-01 1.00000E-45
4.08882E-01 1.00000E-45
4.13176E-01 1.00000E-45
4.17476E-01 1.00000E-45
4.21783E-01 1.00000E-45
4.26095E-01 1.00000E-45
4.30413E-01 1.00000E-45
4.34737E-01 1.00000E-45
4.39065E-01 1.00000E-45
4.43398E-01 1.00000E-45
4.47736E-01 1.00000E-45
4.52077E-01 1.00000E-45
4.56422E-01 1.00000E-45
4.60770E-01 1.00000E-45
4.65122E-01 1.00000E-45
4.69476E-01 1.00000E-45
4.73832E-01 1.00000E-45
4.78190E-01 1.00000E-45
4.82550E-01 1.00000E-45
4.86912E-01 1.00000E-45
4.91274E-01 1.00000E-45
4.95637E-01 1.00000E-45
5.00000E-01 1.00000E-45
5.04363E-01 1.00000E-45
5.08726E-01 1.00000E-45
5.13088E-01 1.00000E-45
5.17450E-01 1.00000E-45
5.21810E-01 1.00000E-45
5.26168E-01 1.00000E-45
5.30524E-01 1.00000E-45
5.34878E-01 1.00000E-45
5.39230E-01 1.00000E-45
5.43578E-01 1.00000E-45
5.47923E-01 1.00000E-45
5.52264E-01 1.00000E-45
5.56602E-01 1.00000E-45
5.60935E-01 1.00000E-45
5.65263E-01 1.00000E-45
5.69587E-01 1.00000E-45
5.73905E-01 1.00000E-45
5.78217E-01 1.00000E-45
5.82524E-01 1.00000E-45
5.86824E-01 1.00000E-45
5.91118E-01 1.00000E-45
5.95404E-01 1.00000E-45
5.99684E-01 1.00000E-45
6.03956E-01 1.00000E-45
6.08220E-01 1.00000E-45
6.12476E-01 1.00000E-45
6.16723E-01 1.00000E-45
6.20961E-01 1.00000E-45
6.25190E-01 1.00000E-45
6.29410E-01 1.00000E-45
6.33619E-01 1.00000E-45
6.37819E-01 1.00000E-45
6.42008E-01 1.00000E-45
6.46186E-01 1.00000E-45
6.50353E-01 1.00000E-45
6.54508E-01 1.00000E-45
6.58652E-01 1.00000E-45
6.62784E-01 1.00000E-45
6.66903E-01 1.00000E-45
6.71010E-01 1.00000E-45
6.75104E-01 1.00000E-45
6.79184E-01 1.00000E-45
6.83251E-01 1.00000E-45
6.87303E-01 1.00000E-45
6.91342E-01 1.00000E-45
6.95366E-01 1.00000E-45
6.99375E-01 1.00000E-45
7.03368E-01 1.00000E-45
7.07347E-01 1.00000E-45
7.11309E-01 1.00000E-45
7.15256E-01 1.00000E-45
7.19186E-01 1.00000E-45
7.23099E-01 1.00000E-45
7.26995E-01 1.00000E-45
7.30874E-01 1.00000E-45
7.34736E-01 1.00000E-45
7.38579E-01 1.00000E-45
7.42405E-01 1.00000E-45
7.46212E-01 1.00000E-45
7.50000E-01 1.00000E-45
7.53769E-01 1.00000E-45
7.57519E-01 1.00000E-45
7.61249E-01 1.00000E-45
7.64960E-01 1.00000E-45
7.68650E-01 1.00000E-45
7.72320E-01 1.00000E-45
7.75968E-01 1.00000E-45
7.79596E-01 1.00000E-45
7.83203E-01 1.00000E-45
7.86788E-01 1.00000E-45
7.90351E-01 1.00000E-45
7.93893E-01 1.00000E-45
7.97411E-01 1.00000E-45
8.00908E-01 1.00000E-45
8.04381E-01 1.00000E-45
8.07831E-01 1.00000E-45
8.11257E-01 1.00000E-45
8.14660E-01 1.00000E-45
8.18039E-01 1.00000E-45
8.21394E-01 1.00000E-45
8.24724E-01 1.00000E-45
8.28030E-01 1.00000E-45
8.31310E-01 1.00000E-45
8.34565E-01 1.00000E-45
8.37795E-01 1.00000E-45
8.40999E-01 1.00000E-45
8.44177E-01 1.00000E-45
8.47329E-01 1.00000E-45
8.50455E-01 1.00000E-45
8.53553E-01 1.00000E-45
8.56625E-01 1.00000E-45
8.59670E-01 1.00000E-45
8.62687E-01 1.00000E-45
8.65677E-01 1.00000E-45
8.68639E-01 1.00000E-45
8.71572E-01 1.00000E-45
8.74478E-01 1.00000E-45
8.77355E-01 1.00000E-45
8.80203E-01 1.00000E-45
8.83022E-01 1.00000E-45
8.85812E-01 1.00000E-45
8.88573E-01 1.00000E-45
8.91304E-01 1.00000E-45
8.94005E-01 1.00000E-45
8.96677E-01 1.00000E-45
8.99318E-01 1.00000E-45
9.01928E-01 1.00000E-45
9.04508E-01 1.00000E-45
9.07058E-01 1.00000E-45
9.09576E-01 1.00000E-45
9.12063E-01 1.00000E-45
9.14519E-01 1.00000E-45
9.16943E-01 1.00000E-45
9.19335E-01 1.00000E-45
9.21696E-01 1.00000E-45
9.24024E-01 1.00000E-45
9.26320E-01 1.00000E-45
9.28584E-01 1.00000E-45
9.30815E-01 1.00000E-45
9.33013E-01 1.00000E-45
9.35178E-01 1.00000E-45
9.37310E-01 1.00000E-45
9.39409E-01 1.00000E-45
9.41474E-01 1.00000E-45
9.43505E-01 1.00000E-45
9.45503E-01 1.00000E-45
9.47467E-01 1.00000E-45
9.49397E-01 1.00000E-45
9.51293E-01 1.00000E-45
9.53154E-01 1.00000E-45
9.54981E-01 1.00000E-45
9.56773E-01 1.00000E-45
9.58530E-01 1.00000E-45
9.60252E-01 1.00000E-45
9.61940E-01 1.00000E-45
9.63592E-01 1.00000E-45
9.65209E-01 1.00000E-45
9.66790E-01 1.00000E-45
9.68336E-01 1.00000E-45
9.69846E-01 1.00000E-45
9.71321E-01 1.00000E-45
9.72759E-01 1.00000E-45
9.74162E-01 1.00000E-45
9.75528E-01 1.00000E-45
9.76858E-01 1.00000E-45
9.78152E-01 1.00000E-45
9.79410E-01 1.00000E-45
9.80631E-01 1.00000E-45
9.81815E-01 1.00000E-45
9.82963E-01 1.00000E-45
9.84074E-01 1.00000E-45
9.85148E-01 1.00000E-45
9.86185E-01 1.00000E-45
9.87185E-01 1.00000E-45
9.88148E-01 1.00000E-45
9.89074E-01 1.00000E-45
9.89962E-01 1.00000E-45
9.90814E-01 1.00000E-45
9.91627E-01 1.00000E-45
9.92404E-01 1.00000E-45
9.93143E-01 1.00000E-45
9.93844E-01 1.00000E-45
9.94508E-01 1.00000E-45
9.95134E-01 1.00000E-45
9.95722E-01 1.00000E-45
9.96273E-01 1.00000E-45
9.96786E-01 1.00000E-45
9.97261E-01 1.00000E-45
9.97698E-01 1.00000E-45
9.98097E-01 1.00000E-45
9.98459E-01 1.00000E-45
9.98782E-01 1.00000E-45
9.99067E-01 1.00000E-45
9.99315E-01 1.00000E-45
9.99524E-01 1.00000E-45
9.99695E-01 1.00000E-45
9.99829E-01 1.00000E-45
9.99924E-01 1.00000E-45
9.99981E-01 1.00000E-45
1.00000E+00 1.00000E-45
