 #
 # Subroutine ELSEPA. Elastic scattering of electrons and positrons
 #                    by neutral atoms and positive ions
 #
 # Projectile: electron
 # Kinetic energy = 7.00000E+07 eV = 2.57245E+06 a.u.
 #
 # WARNING: High-energy factorization with free-atom DF screening.
 #          Absorption, polarization and exchange corrections are
 #          switched off.
 #          Phase shifts are calculated for the bare nucleus.
 #          Scattering amplitudes are not evaluated.
 #
 # Element: Kr,  Z =  36,  atomic weight = 8.38000E+01 g/mol
 #
 # Nuclear model: Fermi distribution
 #                Average radius = 4.68236E-13 cm
 #                Skin thickness = 5.46000E-14 cm
 #
 # Number of electrons = 36
 #
 # Total elastic cross section = 2.81086E-18 cm**2 = 1.00378E-01 a0**2
 # 1st transport cross section = 5.24463E-25 cm**2 = 1.87289E-08 a0**2
 # 2nd transport cross section = 1.54938E-24 cm**2 = 5.53295E-08 a0**2
 #
 #
 # Differential cross section:                       MU=(1-COS(THETA))/2
 #
 #  THETA        MU          DCS          DCS        Sherman      error
 #  (deg)                 (cm**2/sr)   (a0**2/sr)    function
 #----------------------------------------------------------------------
0.00000E+00 8.87352E-11
7.61557E-13 8.86744E-11
1.18994E-12 8.86405E-11
1.71346E-12 8.85990E-11
2.33225E-12 8.85501E-11
3.04617E-12 8.84937E-11
3.85530E-12 8.84298E-11
4.75964E-12 8.83586E-11
5.75917E-12 8.82800E-11
6.85391E-12 8.81940E-11
8.04379E-12 8.81007E-11
9.32893E-12 8.80001E-11
1.07092E-11 8.78922E-11
1.21847E-11 8.77771E-11
1.37554E-11 8.76549E-11
1.54213E-11 8.75255E-11
1.71823E-11 8.73890E-11
1.90386E-11 8.72455E-11
2.09900E-11 8.70950E-11
2.30367E-11 8.69376E-11
2.51785E-11 8.67732E-11
2.74156E-11 8.66021E-11
2.97478E-11 8.64243E-11
3.21752E-11 8.62397E-11
3.46979E-11 8.60485E-11
3.73157E-11 8.58507E-11
4.00286E-11 8.56464E-11
4.28368E-11 8.54357E-11
4.57402E-11 8.52187E-11
4.87388E-11 8.49913E-11
5.18325E-11 8.47582E-11
5.50215E-11 8.45202E-11
5.83057E-11 8.42775E-11
6.16850E-11 8.40304E-11
6.51595E-11 8.37789E-11
6.87293E-11 8.35234E-11
7.23943E-11 8.32626E-11
7.61544E-11 8.29856E-11
1.18991E-10 7.99790E-11
1.71347E-10 7.65267E-11
2.33223E-10 7.27380E-11
3.04617E-10 6.86548E-11
3.85531E-10 6.44355E-11
4.75965E-10 6.01736E-11
5.75917E-10 5.59158E-11
6.85389E-10 5.17277E-11
8.04380E-10 4.76968E-11
9.32891E-10 4.38597E-11
1.07092E-09 4.01972E-11
1.21847E-09 3.67762E-11
1.37554E-09 3.36034E-11
1.54213E-09 3.06641E-11
1.71823E-09 2.79548E-11
1.90386E-09 2.54823E-11
2.09900E-09 2.32326E-11
2.30367E-09 2.11771E-11
2.51785E-09 1.93172E-11
2.74156E-09 1.76373E-11
2.97478E-09 1.61178E-11
3.21752E-09 1.47443E-11
3.46978E-09 1.35071E-11
3.73156E-09 1.23926E-11
4.00286E-09 1.13848E-11
4.28368E-09 1.04764E-11
4.57402E-09 9.65726E-12
4.87388E-09 8.88746E-12
5.18326E-09 8.19858E-12
5.50215E-09 7.58523E-12
5.83057E-09 7.03751E-12
6.16850E-09 6.54699E-12
6.51596E-09 6.10647E-12
6.87293E-09 5.70980E-12
7.23942E-09 5.34876E-12
7.61544E-09 4.99390E-12
1.18991E-08 2.76073E-12
1.71347E-08 1.68590E-12
2.33223E-08 1.09254E-12
3.04617E-08 7.29168E-13
3.85531E-08 5.00675E-13
4.75965E-08 3.52070E-13
5.75917E-08 2.52699E-13
6.85389E-08 1.85090E-13
8.04380E-08 1.38393E-13
9.32891E-08 1.05480E-13
1.07092E-07 8.17974E-14
1.21847E-07 6.44740E-14
1.37554E-07 5.15629E-14
1.54213E-07 4.17846E-14
1.71823E-07 3.42603E-14
1.90386E-07 2.83867E-14
2.09900E-07 2.37387E-14
2.30367E-07 2.00109E-14
2.51785E-07 1.69929E-14
2.74156E-07 1.45268E-14
2.97478E-07 1.24931E-14
3.21752E-07 1.08028E-14
3.46978E-07 9.38871E-15
3.73156E-07 8.19785E-15
4.00286E-07 7.18755E-15
4.28368E-07 6.32692E-15
4.57402E-07 5.59025E-15
4.87388E-07 4.95323E-15
5.18325E-07 4.40580E-15
5.50215E-07 3.93386E-15
5.83057E-07 3.52005E-15
6.16850E-07 3.15895E-15
6.51596E-07 2.84395E-15
6.87293E-07 2.56584E-15
7.23942E-07 2.32039E-15
7.61543E-07 2.10410E-15
1.18991E-06 8.81448E-16
1.71347E-06 4.31082E-16
2.33223E-06 2.35268E-16
3.04617E-06 1.39189E-16
3.85531E-06 8.75709E-17
4.75964E-06 5.78261E-17
5.75916E-06 3.97065E-17
6.85388E-06 2.81588E-17
8.04378E-06 2.05183E-17
9.32888E-06 1.53006E-17
1.07092E-05 1.16395E-17
1.21846E-05 9.01007E-18
1.37553E-05 7.08237E-18
1.54212E-05 5.64333E-18
1.71822E-05 4.55164E-18
1.90385E-05 3.71099E-18
2.09899E-05 3.05656E-18
2.30365E-05 2.54005E-18
2.51783E-05 2.12796E-18
2.74153E-05 1.79597E-18
2.97475E-05 1.52618E-18
3.21749E-05 1.30517E-18
3.46974E-05 1.12278E-18
3.73152E-05 9.71202E-19
4.00281E-05 8.44396E-19
4.28362E-05 7.37643E-19
4.57395E-05 6.47238E-19
4.87380E-05 5.70257E-19
5.18317E-05 5.04374E-19
5.50205E-05 4.47727E-19
5.83045E-05 3.98811E-19
6.16838E-05 3.56398E-19
6.51582E-05 3.19482E-19
6.87277E-05 2.87231E-19
7.23925E-05 2.58953E-19
7.61524E-05 2.34120E-19
9.21439E-05 1.60053E-19
1.09658E-04 1.13099E-19
1.28695E-04 8.21794E-20
1.49255E-04 6.11416E-20
1.71338E-04 4.64305E-20
1.94942E-04 3.58913E-20
2.20070E-04 2.81819E-20
2.46720E-04 2.24373E-20
2.74892E-04 1.80855E-20
3.04586E-04 1.47405E-20
3.35803E-04 1.21348E-20
3.68542E-04 1.00809E-20
4.02802E-04 8.44413E-21
4.38585E-04 7.12678E-21
4.75889E-04 6.05690E-21
5.14715E-04 5.18064E-21
5.55063E-04 4.45749E-21
5.96931E-04 3.85635E-21
6.40321E-04 3.35334E-21
6.85233E-04 2.92985E-21
7.31665E-04 2.57122E-21
7.79618E-04 2.26591E-21
8.29092E-04 2.00465E-21
8.80086E-04 1.78004E-21
9.32601E-04 1.58607E-21
9.86636E-04 1.41785E-21
1.04219E-03 1.27139E-21
1.09927E-03 1.14338E-21
1.15786E-03 1.03111E-21
1.21797E-03 9.32314E-22
1.27961E-03 8.45085E-22
1.34276E-03 7.67841E-22
1.40743E-03 6.99236E-22
1.47362E-03 6.38137E-22
1.54133E-03 5.83578E-22
1.61056E-03 5.34735E-22
1.68131E-03 4.90906E-22
1.75357E-03 4.51482E-22
1.82735E-03 4.15945E-22
1.90265E-03 3.83840E-22
1.97947E-03 3.54779E-22
2.05780E-03 3.28421E-22
2.13765E-03 3.04470E-22
2.21902E-03 2.82665E-22
2.30190E-03 2.62781E-22
2.38630E-03 2.44617E-22
2.47222E-03 2.27998E-22
2.55965E-03 2.12768E-22
2.64859E-03 1.98791E-22
2.73905E-03 1.85944E-22
2.83103E-03 1.74120E-22
2.92452E-03 1.63221E-22
3.01952E-03 1.53163E-22
3.11604E-03 1.43869E-22
3.21407E-03 1.35270E-22
3.31362E-03 1.27304E-22
3.41468E-03 1.19917E-22
3.51725E-03 1.13059E-22
3.62133E-03 1.06684E-22
3.72692E-03 1.00752E-22
3.83403E-03 9.52274E-23
3.94265E-03 9.00765E-23
4.05278E-03 8.52693E-23
4.16442E-03 8.07787E-23
4.27757E-03 7.65800E-23
4.39223E-03 7.26507E-23
4.50840E-03 6.89702E-23
4.62608E-03 6.55199E-23
4.74527E-03 6.22826E-23
4.86597E-03 5.92429E-23
4.98817E-03 5.63863E-23
5.11188E-03 5.36997E-23
5.23711E-03 5.11713E-23
5.36383E-03 4.87898E-23
5.49207E-03 4.65452E-23
5.62181E-03 4.44282E-23
5.75306E-03 4.24300E-23
5.88581E-03 4.05428E-23
6.02007E-03 3.87593E-23
6.15583E-03 3.70727E-23
6.29310E-03 3.54767E-23
6.43187E-03 3.39656E-23
6.57214E-03 3.25340E-23
6.71392E-03 3.11769E-23
6.85720E-03 2.98897E-23
7.00198E-03 2.86681E-23
7.14827E-03 2.75082E-23
7.29605E-03 2.64062E-23
7.44534E-03 2.53588E-23
7.59612E-03 2.43626E-23
7.97965E-03 2.20775E-23
8.37255E-03 2.00535E-23
8.77480E-03 1.82555E-23
9.18641E-03 1.66539E-23
9.60736E-03 1.52235E-23
1.00376E-02 1.39428E-23
1.04773E-02 1.27934E-23
1.09262E-02 1.17594E-23
1.13844E-02 1.08273E-23
1.18520E-02 9.98518E-24
1.23288E-02 9.22285E-24
1.28150E-02 8.53142E-24
1.33104E-02 7.90312E-24
1.38150E-02 7.33116E-24
1.43290E-02 6.80960E-24
1.48521E-02 6.33320E-24
1.53845E-02 5.89735E-24
1.59262E-02 5.49800E-24
1.64770E-02 5.13154E-24
1.70371E-02 4.79477E-24
1.76063E-02 4.48486E-24
1.81848E-02 4.19929E-24
1.87724E-02 3.93581E-24
1.93692E-02 3.69239E-24
1.99751E-02 3.46725E-24
2.05901E-02 3.25875E-24
2.12143E-02 3.06546E-24
2.18476E-02 2.88606E-24
2.24900E-02 2.71938E-24
2.31415E-02 2.56436E-24
2.38021E-02 2.42003E-24
2.44717E-02 2.28552E-24
2.51504E-02 2.16005E-24
2.58382E-02 2.04290E-24
2.65349E-02 1.93343E-24
2.72407E-02 1.83103E-24
2.79555E-02 1.73518E-24
2.86793E-02 1.64537E-24
2.94120E-02 1.56116E-24
3.01537E-02 1.48214E-24
3.09043E-02 1.40793E-24
3.16639E-02 1.33819E-24
3.24324E-02 1.27260E-24
3.32098E-02 1.21087E-24
3.39961E-02 1.15273E-24
3.47912E-02 1.09794E-24
3.55952E-02 1.04626E-24
3.64081E-02 9.97504E-25
3.72297E-02 9.51463E-25
3.80602E-02 9.07962E-25
3.88995E-02 8.66837E-25
3.97476E-02 8.27936E-25
4.06044E-02 7.91117E-25
4.14700E-02 7.56249E-25
4.23443E-02 7.23212E-25
4.32273E-02 6.91892E-25
4.41190E-02 6.62185E-25
4.50194E-02 6.33993E-25
4.59284E-02 6.07226E-25
4.68461E-02 5.81800E-25
4.87074E-02 5.34659E-25
5.06030E-02 4.92003E-25
5.25328E-02 4.53338E-25
5.44967E-02 4.18229E-25
5.64946E-02 3.86299E-25
5.85262E-02 3.57214E-25
6.05914E-02 3.30680E-25
6.26901E-02 3.06439E-25
6.48222E-02 2.84262E-25
6.69873E-02 2.63945E-25
6.91854E-02 2.45310E-25
7.14163E-02 2.28195E-25
7.36799E-02 2.12457E-25
7.59760E-02 1.97969E-25
7.83043E-02 1.84617E-25
8.06647E-02 1.72299E-25
8.30571E-02 1.60922E-25
8.54812E-02 1.50404E-25
8.79369E-02 1.40671E-25
9.04240E-02 1.31655E-25
9.29422E-02 1.23297E-25
9.54915E-02 1.15542E-25
9.80716E-02 1.08339E-25
1.00682E-01 1.01644E-25
1.03323E-01 9.54167E-26
1.05995E-01 8.96194E-26
1.08696E-01 8.42185E-26
1.11427E-01 7.91832E-26
1.14188E-01 7.44854E-26
1.16978E-01 7.00997E-26
1.19797E-01 6.60025E-26
1.22645E-01 6.21724E-26
1.25522E-01 5.85897E-26
1.28428E-01 5.52365E-26
1.31361E-01 5.20963E-26
1.34323E-01 4.91537E-26
1.37313E-01 4.63949E-26
1.40330E-01 4.38070E-26
1.43375E-01 4.13782E-26
1.46447E-01 3.90975E-26
1.49545E-01 3.69548E-26
1.52671E-01 3.49408E-26
1.55823E-01 3.30469E-26
1.59001E-01 3.12652E-26
1.62205E-01 2.95883E-26
1.65435E-01 2.80093E-26
1.68690E-01 2.65219E-26
1.71970E-01 2.51202E-26
1.75276E-01 2.37988E-26
1.78606E-01 2.25527E-26
1.81961E-01 2.13769E-26
1.85340E-01 2.02673E-26
1.88743E-01 1.92198E-26
1.92169E-01 1.82304E-26
1.95619E-01 1.72957E-26
1.99092E-01 1.64124E-26
2.02589E-01 1.55773E-26
2.06107E-01 1.47877E-26
2.09649E-01 1.40408E-26
2.13212E-01 1.33340E-26
2.16797E-01 1.26652E-26
2.20404E-01 1.20319E-26
2.24032E-01 1.14323E-26
2.27680E-01 1.08644E-26
2.31350E-01 1.03263E-26
2.35040E-01 9.81633E-27
2.38751E-01 9.33297E-27
2.42481E-01 8.87469E-27
2.46231E-01 8.44010E-27
2.50000E-01 8.02789E-27
2.53788E-01 7.63681E-27
2.57595E-01 7.26570E-27
2.61421E-01 6.91349E-27
2.65264E-01 6.57914E-27
2.69126E-01 6.26168E-27
2.73005E-01 5.96020E-27
2.76901E-01 5.67386E-27
2.80814E-01 5.40184E-27
2.84744E-01 5.14338E-27
2.88691E-01 4.89777E-27
2.92653E-01 4.66433E-27
2.96632E-01 4.44242E-27
3.00625E-01 4.23145E-27
3.04634E-01 4.03084E-27
3.08658E-01 3.84005E-27
3.12697E-01 3.65859E-27
3.16749E-01 3.48598E-27
3.20816E-01 3.32175E-27
3.24896E-01 3.16549E-27
3.28990E-01 3.01678E-27
3.33097E-01 2.87526E-27
3.37216E-01 2.74054E-27
3.41348E-01 2.61230E-27
3.45492E-01 2.49021E-27
3.49647E-01 2.37396E-27
3.53814E-01 2.26327E-27
3.57992E-01 2.15784E-27
3.62181E-01 2.05744E-27
3.66381E-01 1.96180E-27
3.70590E-01 1.87069E-27
3.74810E-01 1.78389E-27
3.79039E-01 1.70120E-27
3.83277E-01 1.62240E-27
3.87524E-01 1.54731E-27
3.91780E-01 1.47576E-27
3.96044E-01 1.40756E-27
4.00316E-01 1.34256E-27
4.04596E-01 1.28061E-27
4.08882E-01 1.22155E-27
4.13176E-01 1.16525E-27
4.17476E-01 1.11157E-27
4.21783E-01 1.06040E-27
4.26095E-01 1.01160E-27
4.30413E-01 9.65079E-28
4.34737E-01 9.20714E-28
4.39065E-01 8.78408E-28
4.43398E-01 8.38063E-28
4.47736E-01 7.99585E-28
4.52077E-01 7.62888E-28
4.56422E-01 7.27887E-28
4.60770E-01 6.94503E-28
4.65122E-01 6.62659E-28
4.69476E-01 6.32284E-28
4.73832E-01 6.03309E-28
4.78190E-01 5.75669E-28
4.82550E-01 5.49301E-28
4.86912E-01 5.24145E-28
4.91274E-01 5.00147E-28
4.95637E-01 4.77251E-28
5.00000E-01 4.55407E-28
5.04363E-01 4.34566E-28
5.08726E-01 4.14681E-28
5.13088E-01 3.95708E-28
5.17450E-01 3.77605E-28
5.21810E-01 3.60332E-28
5.26168E-01 3.43850E-28
5.30524E-01 3.28124E-28
5.34878E-01 3.13118E-28
5.39230E-01 2.98799E-28
5.43578E-01 2.85135E-28
5.47923E-01 2.72097E-28
5.52264E-01 2.59655E-28
5.56602E-01 2.47782E-28
5.60935E-01 2.36453E-28
5.65263E-01 2.25642E-28
5.69587E-01 2.15325E-28
5.73905E-01 2.05480E-28
5.78217E-01 1.96086E-28
5.82524E-01 1.87121E-28
5.86824E-01 1.78566E-28
5.91118E-01 1.70402E-28
5.95404E-01 1.62611E-28
5.99684E-01 1.55177E-28
6.03956E-01 1.48083E-28
6.08220E-01 1.41313E-28
6.12476E-01 1.34853E-28
6.16723E-01 1.28688E-28
6.20961E-01 1.22805E-28
6.25190E-01 1.17192E-28
6.29410E-01 1.11835E-28
6.33619E-01 1.06723E-28
6.37819E-01 1.01845E-28
6.42008E-01 9.71909E-29
6.46186E-01 9.27494E-29
6.50353E-01 8.85113E-29
6.54508E-01 8.44673E-29
6.58652E-01 8.06084E-29
6.62784E-01 7.69263E-29
6.66903E-01 7.34128E-29
6.71010E-01 7.00603E-29
6.75104E-01 6.68614E-29
6.79184E-01 6.38091E-29
6.83251E-01 6.08967E-29
6.87303E-01 5.81178E-29
6.91342E-01 5.54663E-29
6.95366E-01 5.29363E-29
6.99375E-01 5.05224E-29
7.03368E-01 4.82192E-29
7.07347E-01 4.60216E-29
7.11309E-01 4.39248E-29
7.15256E-01 4.19242E-29
7.19186E-01 4.00154E-29
7.23099E-01 3.81942E-29
7.26995E-01 3.64565E-29
7.30874E-01 3.47985E-29
7.34736E-01 3.32166E-29
7.38579E-01 3.17073E-29
7.42405E-01 3.02673E-29
7.46212E-01 2.88933E-29
7.50000E-01 2.75823E-29
7.53769E-01 2.63314E-29
7.57519E-01 2.51380E-29
7.61249E-01 2.39992E-29
7.64960E-01 2.29127E-29
7.68650E-01 2.18759E-29
7.72320E-01 2.08867E-29
7.75968E-01 1.99428E-29
7.79596E-01 1.90421E-29
7.83203E-01 1.81826E-29
7.86788E-01 1.73625E-29
7.90351E-01 1.65799E-29
7.93893E-01 1.58330E-29
7.97411E-01 1.51203E-29
8.00908E-01 1.44402E-29
8.04381E-01 1.37911E-29
8.07831E-01 1.31716E-29
8.11257E-01 1.25803E-29
8.14660E-01 1.20160E-29
8.18039E-01 1.14773E-29
8.21394E-01 1.09632E-29
8.24724E-01 1.04724E-29
8.28030E-01 1.00039E-29
8.31310E-01 9.55658E-30
8.34565E-01 9.12956E-30
8.37795E-01 8.72186E-30
8.40999E-01 8.33258E-30
8.44177E-01 7.96087E-30
8.47329E-01 7.60590E-30
8.50455E-01 7.26691E-30
8.53553E-01 6.94316E-30
8.56625E-01 6.63393E-30
8.59670E-01 6.33855E-30
8.62687E-01 6.05638E-30
8.65677E-01 5.78680E-30
8.68639E-01 5.52924E-30
8.71572E-01 5.28313E-30
8.74478E-01 5.04795E-30
8.77355E-01 4.82319E-30
8.80203E-01 4.60836E-30
8.83022E-01 4.40301E-30
8.85812E-01 4.20669E-30
8.88573E-01 4.01900E-30
8.91304E-01 3.83953E-30
8.94005E-01 3.66790E-30
8.96677E-01 3.50375E-30
8.99318E-01 3.34674E-30
9.01928E-01 3.19654E-30
9.04508E-01 3.05283E-30
9.07058E-01 2.91533E-30
9.09576E-01 2.78374E-30
9.12063E-01 2.65780E-30
9.14519E-01 2.53725E-30
9.16943E-01 2.42184E-30
9.19335E-01 2.31133E-30
9.21696E-01 2.20552E-30
9.24024E-01 2.10419E-30
9.26320E-01 2.00713E-30
9.28584E-01 1.91415E-30
9.30815E-01 1.82507E-30
9.33013E-01 1.73973E-30
9.35178E-01 1.65794E-30
9.37310E-01 1.57956E-30
9.39409E-01 1.50443E-30
9.41474E-01 1.43242E-30
9.43505E-01 1.36338E-30
9.45503E-01 1.29719E-30
9.47467E-01 1.23373E-30
9.49397E-01 1.17287E-30
9.51293E-01 1.11452E-30
9.53154E-01 1.05855E-30
9.54981E-01 1.00488E-30
9.56773E-01 9.53402E-31
9.58530E-01 9.04032E-31
9.60252E-01 8.56682E-31
9.61940E-01 8.11270E-31
9.63592E-01 7.67718E-31
9.65209E-01 7.25952E-31
9.66790E-01 6.85902E-31
9.68336E-01 6.47502E-31
9.69846E-01 6.10688E-31
9.71321E-01 5.75401E-31
9.72759E-01 5.41582E-31
9.74162E-01 5.09178E-31
9.75528E-01 4.78138E-31
9.76858E-01 4.48414E-31
9.78152E-01 4.19958E-31
9.79410E-01 3.92727E-31
9.80631E-01 3.66680E-31
9.81815E-01 3.41778E-31
9.82963E-01 3.17983E-31
9.84074E-01 2.95260E-31
9.85148E-01 2.73577E-31
9.86185E-01 2.52902E-31
9.87185E-01 2.33205E-31
9.88148E-01 2.14458E-31
9.89074E-01 1.96636E-31
9.89962E-01 1.79712E-31
9.90814E-01 1.63665E-31
9.91627E-01 1.48471E-31
9.92404E-01 1.34110E-31
9.93143E-01 1.20564E-31
9.93844E-01 1.07814E-31
9.94508E-01 9.58423E-32
9.95134E-01 8.46343E-32
9.95722E-01 7.41752E-32
9.96273E-01 6.44513E-32
9.96786E-01 5.54502E-32
9.97261E-01 4.71603E-32
9.97698E-01 3.95712E-32
9.98097E-01 3.26733E-32
9.98459E-01 2.64578E-32
9.98782E-01 2.09171E-32
9.99067E-01 1.60443E-32
9.99315E-01 1.18332E-32
9.99524E-01 8.27868E-33
9.99695E-01 5.37639E-33
9.99829E-01 3.12273E-33
9.99924E-01 1.51494E-33
9.99981E-01 5.51055E-34
1.00000E+00 2.29868E-34
