 #
 # Subroutine ELSEPA. Elastic scattering of electrons and positrons
 #                    by neutral atoms and positive ions
 #
 # Projectile: electron
 # Kinetic energy = 4.50000E+06 eV = 1.65372E+05 a.u.
 #
 # WARNING: High-energy factorization with free-atom DF screening.
 #          Absorption, polarization and exchange corrections are
 #          switched off.
 #          Phase shifts are calculated for the bare nucleus.
 #          Scattering amplitudes are not evaluated.
 #
 # Element: Kr,  Z =  36,  atomic weight = 8.38000E+01 g/mol
 #
 # Nuclear model: Fermi distribution
 #                Average radius = 4.68236E-13 cm
 #                Skin thickness = 5.46000E-14 cm
 #
 # Number of electrons = 36
 #
 # Total elastic cross section = 2.84211E-18 cm**2 = 1.01494E-01 a0**2
 # 1st transport cross section = 8.09664E-23 cm**2 = 2.89136E-06 a0**2
 # 2nd transport cross section = 2.28101E-22 cm**2 = 8.14565E-06 a0**2
 #
 #
 # Differential cross section:                       MU=(1-COS(THETA))/2
 #
 #  THETA        MU          DCS          DCS        Sherman      error
 #  (deg)                 (cm**2/sr)   (a0**2/sr)    function
 #----------------------------------------------------------------------
0.00000E+00 4.48158E-13
7.61557E-13 4.48156E-13
1.18994E-12 4.48155E-13
1.71346E-12 4.48154E-13
2.33225E-12 4.48153E-13
3.04617E-12 4.48152E-13
3.85530E-12 4.48150E-13
4.75964E-12 4.48148E-13
5.75917E-12 4.48146E-13
6.85391E-12 4.48144E-13
8.04379E-12 4.48142E-13
9.32893E-12 4.48139E-13
1.07092E-11 4.48136E-13
1.21847E-11 4.48133E-13
1.37554E-11 4.48130E-13
1.54213E-11 4.48127E-13
1.71823E-11 4.48123E-13
1.90386E-11 4.48120E-13
2.09900E-11 4.48116E-13
2.30367E-11 4.48112E-13
2.51785E-11 4.48108E-13
2.74156E-11 4.48103E-13
2.97478E-11 4.48098E-13
3.21752E-11 4.48094E-13
3.46979E-11 4.48089E-13
3.73157E-11 4.48083E-13
4.00286E-11 4.48078E-13
4.28368E-11 4.48072E-13
4.57402E-11 4.48067E-13
4.87388E-11 4.48061E-13
5.18325E-11 4.48054E-13
5.50215E-11 4.48048E-13
5.83057E-11 4.48042E-13
6.16850E-11 4.48035E-13
6.51595E-11 4.48028E-13
6.87293E-11 4.48021E-13
7.23943E-11 4.48013E-13
7.61544E-11 4.48006E-13
1.18991E-10 4.47921E-13
1.71347E-10 4.47816E-13
2.33223E-10 4.47693E-13
3.04617E-10 4.47551E-13
3.85531E-10 4.47390E-13
4.75965E-10 4.47210E-13
5.75917E-10 4.47011E-13
6.85389E-10 4.46794E-13
8.04380E-10 4.46557E-13
9.32891E-10 4.46302E-13
1.07092E-09 4.46029E-13
1.21847E-09 4.45737E-13
1.37554E-09 4.45426E-13
1.54213E-09 4.45096E-13
1.71823E-09 4.44749E-13
1.90386E-09 4.44383E-13
2.09900E-09 4.43998E-13
2.30367E-09 4.43596E-13
2.51785E-09 4.43175E-13
2.74156E-09 4.42736E-13
2.97478E-09 4.42279E-13
3.21752E-09 4.41804E-13
3.46978E-09 4.41312E-13
3.73156E-09 4.40801E-13
4.00286E-09 4.40273E-13
4.28368E-09 4.39727E-13
4.57402E-09 4.39164E-13
4.87388E-09 4.38584E-13
5.18326E-09 4.37986E-13
5.50215E-09 4.37371E-13
5.83057E-09 4.36739E-13
6.16850E-09 4.36090E-13
6.51596E-09 4.35424E-13
6.87293E-09 4.34742E-13
7.23942E-09 4.34043E-13
7.61544E-09 4.33327E-13
1.18991E-08 4.25239E-13
1.71347E-08 4.15691E-13
2.33223E-08 4.04811E-13
3.04617E-08 3.92775E-13
3.85531E-08 3.79768E-13
4.75965E-08 3.65975E-13
5.75917E-08 3.51570E-13
6.85389E-08 3.36635E-13
8.04380E-08 3.21435E-13
9.32891E-08 3.06128E-13
1.07092E-07 2.90859E-13
1.21847E-07 2.75753E-13
1.37554E-07 2.60920E-13
1.54213E-07 2.46448E-13
1.71823E-07 2.32414E-13
1.90386E-07 2.18875E-13
2.09900E-07 2.05876E-13
2.30367E-07 1.93438E-13
2.51785E-07 1.81542E-13
2.74156E-07 1.70262E-13
2.97478E-07 1.59597E-13
3.21752E-07 1.49541E-13
3.46978E-07 1.40082E-13
3.73156E-07 1.31204E-13
4.00286E-07 1.22885E-13
4.28368E-07 1.15103E-13
4.57402E-07 1.07834E-13
4.87388E-07 1.01051E-13
5.18325E-07 9.47231E-14
5.50215E-07 8.88186E-14
5.83057E-07 8.33255E-14
6.16850E-07 7.82173E-14
6.51596E-07 7.34687E-14
6.87293E-07 6.90550E-14
7.23942E-07 6.49530E-14
7.61543E-07 6.11404E-14
1.18991E-06 3.46700E-14
1.71347E-06 2.15730E-14
2.33223E-06 1.43476E-14
3.04617E-06 1.00241E-14
3.85531E-06 7.24582E-15
4.75964E-06 5.36133E-15
5.75916E-06 4.03359E-15
6.85388E-06 3.07006E-15
8.04378E-06 2.36585E-15
9.32888E-06 1.84419E-15
1.07092E-05 1.45338E-15
1.21846E-05 1.15762E-15
1.37553E-05 9.31637E-16
1.54212E-05 7.57322E-16
1.71822E-05 6.21595E-16
1.90385E-05 5.14853E-16
2.09899E-05 4.30319E-16
2.30365E-05 3.62636E-16
2.51783E-05 3.07813E-16
2.74153E-05 2.63136E-16
2.97475E-05 2.26434E-16
3.21749E-05 1.96050E-16
3.46974E-05 1.70706E-16
3.73152E-05 1.49414E-16
4.00281E-05 1.31400E-16
4.28362E-05 1.16062E-16
4.57395E-05 1.02922E-16
4.87380E-05 9.16043E-17
5.18317E-05 8.18071E-17
5.50205E-05 7.32863E-17
5.83045E-05 6.58501E-17
6.16838E-05 5.93358E-17
6.51582E-05 5.36084E-17
6.87277E-05 4.85551E-17
7.23925E-05 4.40815E-17
7.61524E-05 4.01083E-17
9.21439E-05 2.80352E-17
1.09658E-04 2.01432E-17
1.28695E-04 1.48264E-17
1.49255E-04 1.11421E-17
1.71338E-04 8.52932E-18
1.94942E-04 6.63652E-18
2.20070E-04 5.23972E-18
2.46720E-04 4.19160E-18
2.74892E-04 3.39297E-18
3.04586E-04 2.77610E-18
3.35803E-04 2.29355E-18
3.68542E-04 1.91170E-18
4.02802E-04 1.60633E-18
4.38585E-04 1.35977E-18
4.75889E-04 1.15892E-18
5.14715E-04 9.93941E-19
5.55063E-04 8.57409E-19
5.96931E-04 7.43611E-19
6.40321E-04 6.48144E-19
6.85233E-04 5.67563E-19
7.31665E-04 4.99161E-19
7.79618E-04 4.40789E-19
8.29092E-04 3.90725E-19
8.80086E-04 3.47586E-19
9.32601E-04 3.10253E-19
9.86636E-04 2.77811E-19
1.04219E-03 2.49511E-19
1.09927E-03 2.24731E-19
1.15786E-03 2.02958E-19
1.21797E-03 1.83764E-19
1.27961E-03 1.66791E-19
1.34276E-03 1.51736E-19
1.40743E-03 1.38345E-19
1.47362E-03 1.26401E-19
1.54133E-03 1.15721E-19
1.61056E-03 1.06147E-19
1.68131E-03 9.75446E-20
1.75357E-03 8.97978E-20
1.82735E-03 8.28065E-20
1.90265E-03 7.64837E-20
1.97947E-03 7.07542E-20
2.05780E-03 6.55522E-20
2.13765E-03 6.08206E-20
2.21902E-03 5.65092E-20
2.30190E-03 5.25738E-20
2.38630E-03 4.89757E-20
2.47222E-03 4.56809E-20
2.55965E-03 4.26592E-20
2.64859E-03 3.98838E-20
2.73905E-03 3.73311E-20
2.83103E-03 3.49799E-20
2.92452E-03 3.28114E-20
3.01952E-03 3.08088E-20
3.11604E-03 2.89570E-20
3.21407E-03 2.72428E-20
3.31362E-03 2.56538E-20
3.41468E-03 2.41794E-20
3.51725E-03 2.28097E-20
3.62133E-03 2.15359E-20
3.72692E-03 2.03501E-20
3.83403E-03 1.92451E-20
3.94265E-03 1.82143E-20
4.05278E-03 1.72518E-20
4.16442E-03 1.63523E-20
4.27757E-03 1.55109E-20
4.39223E-03 1.47232E-20
4.50840E-03 1.39849E-20
4.62608E-03 1.32926E-20
4.74527E-03 1.26427E-20
4.86597E-03 1.20322E-20
4.98817E-03 1.14583E-20
5.11188E-03 1.09184E-20
5.23711E-03 1.04100E-20
5.36383E-03 9.93095E-21
5.49207E-03 9.47929E-21
5.62181E-03 9.05313E-21
5.75306E-03 8.65076E-21
5.88581E-03 8.27060E-21
6.02007E-03 7.91119E-21
6.15583E-03 7.57118E-21
6.29310E-03 7.24934E-21
6.43187E-03 6.94450E-21
6.57214E-03 6.65559E-21
6.71392E-03 6.38163E-21
6.85720E-03 6.12169E-21
7.00198E-03 5.87492E-21
7.14827E-03 5.64053E-21
7.29605E-03 5.41777E-21
7.44534E-03 5.20596E-21
7.59612E-03 5.00445E-21
7.97965E-03 4.54195E-21
8.37255E-03 4.13195E-21
8.77480E-03 3.76742E-21
9.18641E-03 3.44245E-21
9.60736E-03 3.15196E-21
1.00376E-02 2.89165E-21
1.04773E-02 2.65783E-21
1.09262E-02 2.44731E-21
1.13844E-02 2.25736E-21
1.18520E-02 2.08560E-21
1.23288E-02 1.92997E-21
1.28150E-02 1.78869E-21
1.33104E-02 1.66019E-21
1.38150E-02 1.54310E-21
1.43290E-02 1.43622E-21
1.48521E-02 1.33851E-21
1.53845E-02 1.24902E-21
1.59262E-02 1.16694E-21
1.64770E-02 1.09154E-21
1.70371E-02 1.02218E-21
1.76063E-02 9.58284E-22
1.81848E-02 8.99341E-22
1.87724E-02 8.44895E-22
1.93692E-02 7.94539E-22
1.99751E-02 7.47908E-22
2.05901E-02 7.04675E-22
2.12143E-02 6.64546E-22
2.18476E-02 6.27256E-22
2.24900E-02 5.92567E-22
2.31415E-02 5.60262E-22
2.38021E-02 5.30147E-22
2.44717E-02 5.02045E-22
2.51504E-02 4.75795E-22
2.58382E-02 4.51254E-22
2.65349E-02 4.28288E-22
2.72407E-02 4.06776E-22
2.79555E-02 3.86610E-22
2.86793E-02 3.67689E-22
2.94120E-02 3.49921E-22
3.01537E-02 3.33222E-22
3.09043E-02 3.17517E-22
3.16639E-02 3.02734E-22
3.24324E-02 2.88808E-22
3.32098E-02 2.75682E-22
3.39961E-02 2.63298E-22
3.47912E-02 2.51609E-22
3.55952E-02 2.40567E-22
3.64081E-02 2.30129E-22
3.72297E-02 2.20256E-22
3.80602E-02 2.10911E-22
3.88995E-02 2.02061E-22
3.97476E-02 1.93675E-22
4.06044E-02 1.85723E-22
4.14700E-02 1.78178E-22
4.23443E-02 1.71016E-22
4.32273E-02 1.64213E-22
4.41190E-02 1.57748E-22
4.50194E-02 1.51601E-22
4.59284E-02 1.45753E-22
4.68461E-02 1.40187E-22
4.87074E-02 1.29835E-22
5.06030E-02 1.20429E-22
5.25328E-02 1.11867E-22
5.44967E-02 1.04058E-22
5.64946E-02 9.69236E-23
5.85262E-02 9.03951E-23
6.05914E-02 8.44112E-23
6.26901E-02 7.89180E-23
6.48222E-02 7.38677E-23
6.69873E-02 6.92179E-23
6.91854E-02 6.49308E-23
7.14163E-02 6.09727E-23
7.36799E-02 5.73136E-23
7.59760E-02 5.39267E-23
7.83043E-02 5.07878E-23
8.06647E-02 4.78754E-23
8.30571E-02 4.51699E-23
8.54812E-02 4.26539E-23
8.79369E-02 4.03116E-23
9.04240E-02 3.81287E-23
9.29422E-02 3.60922E-23
9.54915E-02 3.41905E-23
9.80716E-02 3.24129E-23
1.00682E-01 3.07498E-23
1.03323E-01 2.91923E-23
1.05995E-01 2.77325E-23
1.08696E-01 2.63631E-23
1.11427E-01 2.50774E-23
1.14188E-01 2.38692E-23
1.16978E-01 2.27331E-23
1.19797E-01 2.16638E-23
1.22645E-01 2.06567E-23
1.25522E-01 1.97075E-23
1.28428E-01 1.88122E-23
1.31361E-01 1.79672E-23
1.34323E-01 1.71690E-23
1.37313E-01 1.64145E-23
1.40330E-01 1.57010E-23
1.43375E-01 1.50258E-23
1.46447E-01 1.43863E-23
1.49545E-01 1.37804E-23
1.52671E-01 1.32060E-23
1.55823E-01 1.26610E-23
1.59001E-01 1.21437E-23
1.62205E-01 1.16525E-23
1.65435E-01 1.11856E-23
1.68690E-01 1.07418E-23
1.71970E-01 1.03195E-23
1.75276E-01 9.91772E-24
1.78606E-01 9.53510E-24
1.81961E-01 9.17058E-24
1.85340E-01 8.82314E-24
1.88743E-01 8.49183E-24
1.92169E-01 8.17574E-24
1.95619E-01 7.87406E-24
1.99092E-01 7.58599E-24
2.02589E-01 7.31080E-24
2.06107E-01 7.04781E-24
2.09649E-01 6.79637E-24
2.13212E-01 6.55586E-24
2.16797E-01 6.32573E-24
2.20404E-01 6.10543E-24
2.24032E-01 5.89447E-24
2.27680E-01 5.69237E-24
2.31350E-01 5.49870E-24
2.35040E-01 5.31304E-24
2.38751E-01 5.13497E-24
2.42481E-01 4.96414E-24
2.46231E-01 4.80020E-24
2.50000E-01 4.64280E-24
2.53788E-01 4.49164E-24
2.57595E-01 4.34644E-24
2.61421E-01 4.20690E-24
2.65264E-01 4.07276E-24
2.69126E-01 3.94378E-24
2.73005E-01 3.81971E-24
2.76901E-01 3.70033E-24
2.80814E-01 3.58544E-24
2.84744E-01 3.47483E-24
2.88691E-01 3.36831E-24
2.92653E-01 3.26570E-24
2.96632E-01 3.16683E-24
3.00625E-01 3.07154E-24
3.04634E-01 2.97968E-24
3.08658E-01 2.89108E-24
3.12697E-01 2.80563E-24
3.16749E-01 2.72318E-24
3.20816E-01 2.64361E-24
3.24896E-01 2.56680E-24
3.28990E-01 2.49264E-24
3.33097E-01 2.42102E-24
3.37216E-01 2.35183E-24
3.41348E-01 2.28497E-24
3.45492E-01 2.22036E-24
3.49647E-01 2.15789E-24
3.53814E-01 2.09750E-24
3.57992E-01 2.03910E-24
3.62181E-01 1.98260E-24
3.66381E-01 1.92794E-24
3.70590E-01 1.87504E-24
3.74810E-01 1.82384E-24
3.79039E-01 1.77426E-24
3.83277E-01 1.72626E-24
3.87524E-01 1.67977E-24
3.91780E-01 1.63473E-24
3.96044E-01 1.59110E-24
4.00316E-01 1.54882E-24
4.04596E-01 1.50783E-24
4.08882E-01 1.46810E-24
4.13176E-01 1.42957E-24
4.17476E-01 1.39220E-24
4.21783E-01 1.35596E-24
4.26095E-01 1.32080E-24
4.30413E-01 1.28669E-24
4.34737E-01 1.25358E-24
4.39065E-01 1.22145E-24
4.43398E-01 1.19025E-24
4.47736E-01 1.15995E-24
4.52077E-01 1.13053E-24
4.56422E-01 1.10196E-24
4.60770E-01 1.07421E-24
4.65122E-01 1.04724E-24
4.69476E-01 1.02104E-24
4.73832E-01 9.95573E-25
4.78190E-01 9.70817E-25
4.82550E-01 9.46751E-25
4.86912E-01 9.23352E-25
4.91274E-01 9.00598E-25
4.95637E-01 8.78469E-25
5.00000E-01 8.56943E-25
5.04363E-01 8.36002E-25
5.08726E-01 8.15626E-25
5.13088E-01 7.95797E-25
5.17450E-01 7.76499E-25
5.21810E-01 7.57715E-25
5.26168E-01 7.39429E-25
5.30524E-01 7.21626E-25
5.34878E-01 7.04290E-25
5.39230E-01 6.87408E-25
5.43578E-01 6.70964E-25
5.47923E-01 6.54946E-25
5.52264E-01 6.39341E-25
5.56602E-01 6.24137E-25
5.60935E-01 6.09321E-25
5.65263E-01 5.94882E-25
5.69587E-01 5.80809E-25
5.73905E-01 5.67091E-25
5.78217E-01 5.53718E-25
5.82524E-01 5.40679E-25
5.86824E-01 5.27964E-25
5.91118E-01 5.15565E-25
5.95404E-01 5.03473E-25
5.99684E-01 4.91677E-25
6.03956E-01 4.80171E-25
6.08220E-01 4.68946E-25
6.12476E-01 4.57994E-25
6.16723E-01 4.47306E-25
6.20961E-01 4.36877E-25
6.25190E-01 4.26698E-25
6.29410E-01 4.16763E-25
6.33619E-01 4.07065E-25
6.37819E-01 3.97597E-25
6.42008E-01 3.88353E-25
6.46186E-01 3.79327E-25
6.50353E-01 3.70514E-25
6.54508E-01 3.61907E-25
6.58652E-01 3.53500E-25
6.62784E-01 3.45290E-25
6.66903E-01 3.37269E-25
6.71010E-01 3.29434E-25
6.75104E-01 3.21779E-25
6.79184E-01 3.14300E-25
6.83251E-01 3.06992E-25
6.87303E-01 2.99851E-25
6.91342E-01 2.92872E-25
6.95366E-01 2.86051E-25
6.99375E-01 2.79384E-25
7.03368E-01 2.72867E-25
7.07347E-01 2.66497E-25
7.11309E-01 2.60270E-25
7.15256E-01 2.54181E-25
7.19186E-01 2.48228E-25
7.23099E-01 2.42407E-25
7.26995E-01 2.36716E-25
7.30874E-01 2.31149E-25
7.34736E-01 2.25706E-25
7.38579E-01 2.20382E-25
7.42405E-01 2.15175E-25
7.46212E-01 2.10082E-25
7.50000E-01 2.05100E-25
7.53769E-01 2.00226E-25
7.57519E-01 1.95458E-25
7.61249E-01 1.90794E-25
7.64960E-01 1.86231E-25
7.68650E-01 1.81766E-25
7.72320E-01 1.77397E-25
7.75968E-01 1.73122E-25
7.79596E-01 1.68939E-25
7.83203E-01 1.64846E-25
7.86788E-01 1.60840E-25
7.90351E-01 1.56920E-25
7.93893E-01 1.53083E-25
7.97411E-01 1.49328E-25
8.00908E-01 1.45653E-25
8.04381E-01 1.42056E-25
8.07831E-01 1.38535E-25
8.11257E-01 1.35089E-25
8.14660E-01 1.31716E-25
8.18039E-01 1.28414E-25
8.21394E-01 1.25182E-25
8.24724E-01 1.22019E-25
8.28030E-01 1.18922E-25
8.31310E-01 1.15890E-25
8.34565E-01 1.12922E-25
8.37795E-01 1.10017E-25
8.40999E-01 1.07174E-25
8.44177E-01 1.04390E-25
8.47329E-01 1.01664E-25
8.50455E-01 9.89966E-26
8.53553E-01 9.63851E-26
8.56625E-01 9.38287E-26
8.59670E-01 9.13262E-26
8.62687E-01 8.88766E-26
8.65677E-01 8.64788E-26
8.68639E-01 8.41317E-26
8.71572E-01 8.18344E-26
8.74478E-01 7.95857E-26
8.77355E-01 7.73848E-26
8.80203E-01 7.52308E-26
8.83022E-01 7.31226E-26
8.85812E-01 7.10595E-26
8.88573E-01 6.90405E-26
8.91304E-01 6.70648E-26
8.94005E-01 6.51316E-26
8.96677E-01 6.32400E-26
8.99318E-01 6.13894E-26
9.01928E-01 5.95789E-26
9.04508E-01 5.78077E-26
9.07058E-01 5.60753E-26
9.09576E-01 5.43808E-26
9.12063E-01 5.27235E-26
9.14519E-01 5.11029E-26
9.16943E-01 4.95183E-26
9.19335E-01 4.79690E-26
9.21696E-01 4.64543E-26
9.24024E-01 4.49739E-26
9.26320E-01 4.35269E-26
9.28584E-01 4.21129E-26
9.30815E-01 4.07313E-26
9.33013E-01 3.93816E-26
9.35178E-01 3.80633E-26
9.37310E-01 3.67758E-26
9.39409E-01 3.55186E-26
9.41474E-01 3.42913E-26
9.43505E-01 3.30934E-26
9.45503E-01 3.19245E-26
9.47467E-01 3.07840E-26
9.49397E-01 2.96716E-26
9.51293E-01 2.85869E-26
9.53154E-01 2.75293E-26
9.54981E-01 2.64987E-26
9.56773E-01 2.54944E-26
9.58530E-01 2.45163E-26
9.60252E-01 2.35639E-26
9.61940E-01 2.26368E-26
9.63592E-01 2.17348E-26
9.65209E-01 2.08575E-26
9.66790E-01 2.00045E-26
9.68336E-01 1.91756E-26
9.69846E-01 1.83705E-26
9.71321E-01 1.75888E-26
9.72759E-01 1.68303E-26
9.74162E-01 1.60947E-26
9.75528E-01 1.53818E-26
9.76858E-01 1.46912E-26
9.78152E-01 1.40228E-26
9.79410E-01 1.33763E-26
9.80631E-01 1.27514E-26
9.81815E-01 1.21480E-26
9.82963E-01 1.15658E-26
9.84074E-01 1.10046E-26
9.85148E-01 1.04643E-26
9.86185E-01 9.94458E-27
9.87185E-01 9.44531E-27
9.88148E-01 8.96631E-27
9.89074E-01 8.50742E-27
9.89962E-01 8.06846E-27
9.90814E-01 7.64929E-27
9.91627E-01 7.24976E-27
9.92404E-01 6.86973E-27
9.93143E-01 6.50907E-27
9.93844E-01 6.16764E-27
9.94508E-01 5.84534E-27
9.95134E-01 5.54205E-27
9.95722E-01 5.25767E-27
9.96273E-01 4.99209E-27
9.96786E-01 4.74522E-27
9.97261E-01 4.51698E-27
9.97698E-01 4.30729E-27
9.98097E-01 4.11607E-27
9.98459E-01 3.94326E-27
9.98782E-01 3.78881E-27
9.99067E-01 3.65265E-27
9.99315E-01 3.53474E-27
9.99524E-01 3.43503E-27
9.99695E-01 3.35351E-27
9.99829E-01 3.29013E-27
9.99924E-01 3.24487E-27
9.99981E-01 3.21772E-27
1.00000E+00 3.20867E-27
