 #
 # Subroutine ELSEPA. Elastic scattering of electrons and positrons
 #                    by neutral atoms and positive ions
 #
 # Projectile: electron
 # Kinetic energy = 6.00000E+08 eV = 2.20496E+07 a.u.
 #
 # WARNING: High-energy factorization with free-atom DF screening.
 #          Absorption, polarization and exchange corrections are
 #          switched off.
 #          Phase shifts are calculated for the bare nucleus.
 #          Scattering amplitudes are not evaluated.
 #
 # Element: Kr,  Z =  36,  atomic weight = 8.38000E+01 g/mol
 #
 # Nuclear model: Fermi distribution
 #                Average radius = 4.68236E-13 cm
 #                Skin thickness = 5.46000E-14 cm
 #
 # Number of electrons = 36
 #
 # Total elastic cross section = 2.80875E-18 cm**2 = 1.00302E-01 a0**2
 # 1st transport cross section = 7.25246E-27 cm**2 = 2.58990E-10 a0**2
 # 2nd transport cross section = 2.17509E-26 cm**2 = 7.76738E-10 a0**2
 #
 #
 # Differential cross section:                       MU=(1-COS(THETA))/2
 #
 #  THETA        MU          DCS          DCS        Sherman      error
 #  (deg)                 (cm**2/sr)   (a0**2/sr)    function
 #----------------------------------------------------------------------
0.00000E+00 6.43612E-09
7.61557E-13 6.12920E-09
1.18994E-12 5.96590E-09
1.71346E-12 5.77489E-09
2.33225E-12 5.56055E-09
3.04617E-12 5.32754E-09
3.85530E-12 5.08050E-09
4.75964E-12 4.82392E-09
5.75917E-12 4.56132E-09
6.85391E-12 4.29624E-09
8.04379E-12 4.03313E-09
9.32893E-12 3.77489E-09
1.07092E-11 3.52397E-09
1.21847E-11 3.28225E-09
1.37554E-11 3.05116E-09
1.54213E-11 2.83172E-09
1.71823E-11 2.62455E-09
1.90386E-11 2.42996E-09
2.09900E-11 2.24802E-09
2.30367E-11 2.07806E-09
2.51785E-11 1.92028E-09
2.74156E-11 1.77435E-09
2.97478E-11 1.63969E-09
3.21752E-11 1.51568E-09
3.46979E-11 1.40167E-09
3.73157E-11 1.29699E-09
4.00286E-11 1.20097E-09
4.28368E-11 1.11295E-09
4.57402E-11 1.03233E-09
4.87388E-11 9.58456E-10
5.18325E-11 8.90731E-10
5.50215E-11 8.28725E-10
5.83057E-11 7.71941E-10
6.16850E-11 7.19913E-10
6.51595E-11 6.71214E-10
6.87293E-11 6.25738E-10
7.23943E-11 5.84612E-10
7.61544E-11 5.47338E-10
1.18991E-10 3.06394E-10
1.71347E-10 1.88902E-10
2.33223E-10 1.24411E-10
3.04617E-10 8.54582E-11
3.85531E-10 6.03492E-11
4.75965E-10 4.34908E-11
5.75917E-10 3.18581E-11
6.85389E-10 2.36960E-11
8.04380E-10 1.79050E-11
9.32891E-10 1.37372E-11
1.07092E-09 1.06958E-11
1.21847E-09 8.44555E-12
1.37554E-09 6.75751E-12
1.54213E-09 5.47436E-12
1.71823E-09 4.48466E-12
1.90386E-09 3.71213E-12
2.09900E-09 3.10220E-12
2.30367E-09 2.61494E-12
2.51785E-09 2.22147E-12
2.74156E-09 1.90048E-12
2.97478E-09 1.63618E-12
3.21752E-09 1.41671E-12
3.46978E-09 1.23310E-12
3.73156E-09 1.07845E-12
4.00286E-09 9.47386E-13
4.28368E-09 8.35675E-13
4.57402E-09 7.39942E-13
4.87388E-09 6.57478E-13
5.18326E-09 5.86087E-13
5.50215E-09 5.24048E-13
5.83057E-09 4.69924E-13
6.16850E-09 4.22540E-13
6.51596E-09 3.80798E-13
6.87293E-09 3.43985E-13
7.23942E-09 3.11626E-13
7.61544E-09 2.83084E-13
1.18991E-08 1.19604E-13
1.71347E-08 5.86625E-14
2.33223E-08 3.20388E-14
3.04617E-08 1.89596E-14
3.85531E-08 1.19326E-14
4.75965E-08 7.88378E-15
5.75917E-08 5.41705E-15
6.85389E-08 3.84426E-15
8.04380E-08 2.80303E-15
9.32891E-08 2.09154E-15
1.07092E-07 1.59202E-15
1.21847E-07 1.23299E-15
1.37554E-07 9.69606E-16
1.54213E-07 7.72882E-16
1.71823E-07 6.23567E-16
1.90386E-07 5.08592E-16
2.09900E-07 4.18912E-16
2.30367E-07 3.48137E-16
2.51785E-07 2.91685E-16
2.74156E-07 2.46214E-16
2.97478E-07 2.09262E-16
3.21752E-07 1.78984E-16
3.46978E-07 1.53986E-16
3.73156E-07 1.33200E-16
4.00286E-07 1.15804E-16
4.28368E-07 1.01156E-16
4.57402E-07 8.87506E-17
4.87388E-07 7.81893E-17
5.18325E-07 6.91525E-17
5.50215E-07 6.13838E-17
5.83057E-07 5.46755E-17
6.16850E-07 4.88587E-17
6.51596E-07 4.37950E-17
6.87293E-07 3.93705E-17
7.23942E-07 3.54906E-17
7.61543E-07 3.20771E-17
1.18991E-06 1.31517E-17
1.71347E-06 6.34600E-18
2.33223E-06 3.42669E-18
3.04617E-06 2.00924E-18
3.85531E-06 1.25465E-18
4.75964E-06 8.23347E-19
5.75916E-06 5.62463E-19
6.85388E-06 3.97207E-19
8.04378E-06 2.88431E-19
9.32888E-06 2.14474E-19
1.07092E-05 1.62776E-19
1.21846E-05 1.25760E-19
1.37553E-05 9.86949E-20
1.54212E-05 7.85356E-20
1.71822E-05 6.32715E-20
1.90385E-05 5.15365E-20
2.09899E-05 4.24135E-20
2.30365E-05 3.52218E-20
2.51783E-05 2.94898E-20
2.74153E-05 2.48762E-20
2.97475E-05 2.11298E-20
3.21749E-05 1.80628E-20
3.46974E-05 1.55333E-20
3.73152E-05 1.34322E-20
4.00281E-05 1.16753E-20
4.28362E-05 1.01968E-20
4.57395E-05 8.94519E-21
4.87380E-05 7.87977E-21
5.18317E-05 6.96823E-21
5.50205E-05 6.18467E-21
5.83045E-05 5.50819E-21
6.16838E-05 4.92179E-21
6.51582E-05 4.41149E-21
6.87277E-05 3.96574E-21
7.23925E-05 3.57498E-21
7.61524E-05 3.21289E-21
9.21439E-05 2.19112E-21
1.09658E-04 1.54415E-21
1.28695E-04 1.11864E-21
1.49255E-04 8.29505E-22
1.71338E-04 6.27620E-22
1.94942E-04 4.83219E-22
2.20070E-04 3.77775E-22
2.46720E-04 2.99356E-22
2.74892E-04 2.40074E-22
3.04586E-04 1.94610E-22
3.35803E-04 1.59282E-22
3.68542E-04 1.31508E-22
4.02802E-04 1.09438E-22
4.38585E-04 9.17289E-23
4.75889E-04 7.73930E-23
5.14715E-04 6.56920E-23
5.55063E-04 5.60705E-23
5.96931E-04 4.81033E-23
6.40321E-04 4.14639E-23
6.85233E-04 3.58978E-23
7.31665E-04 3.12056E-23
7.79618E-04 2.72297E-23
8.29092E-04 2.38443E-23
8.80086E-04 2.09488E-23
9.32601E-04 1.84617E-23
9.86636E-04 1.63170E-23
1.04219E-03 1.44605E-23
1.09927E-03 1.28479E-23
1.15786E-03 1.14425E-23
1.21797E-03 1.02138E-23
1.27961E-03 9.13632E-24
1.34276E-03 8.18891E-24
1.40743E-03 7.35360E-24
1.47362E-03 6.61527E-24
1.54133E-03 5.96111E-24
1.61056E-03 5.38020E-24
1.68131E-03 4.86322E-24
1.75357E-03 4.40220E-24
1.82735E-03 3.99026E-24
1.90265E-03 3.62151E-24
1.97947E-03 3.29083E-24
2.05780E-03 2.99378E-24
2.13765E-03 2.72651E-24
2.21902E-03 2.48568E-24
2.30190E-03 2.26834E-24
2.38630E-03 2.07193E-24
2.47222E-03 1.89419E-24
2.55965E-03 1.73316E-24
2.64859E-03 1.58707E-24
2.73905E-03 1.45438E-24
2.83103E-03 1.33374E-24
2.92452E-03 1.22393E-24
3.01952E-03 1.12387E-24
3.11604E-03 1.03262E-24
3.21407E-03 9.49316E-25
3.31362E-03 8.73203E-25
3.41468E-03 8.03600E-25
3.51725E-03 7.39899E-25
3.62133E-03 6.81554E-25
3.72692E-03 6.28076E-25
3.83403E-03 5.79023E-25
3.94265E-03 5.33999E-25
4.05278E-03 4.92647E-25
4.16442E-03 4.54645E-25
4.27757E-03 4.19700E-25
4.39223E-03 3.87548E-25
4.50840E-03 3.57952E-25
4.62608E-03 3.30693E-25
4.74527E-03 3.05577E-25
4.86597E-03 2.82423E-25
4.98817E-03 2.61070E-25
5.11188E-03 2.41369E-25
5.23711E-03 2.23186E-25
5.36383E-03 2.06398E-25
5.49207E-03 1.90893E-25
5.62181E-03 1.76568E-25
5.75306E-03 1.63330E-25
5.88581E-03 1.51092E-25
6.02007E-03 1.39776E-25
6.15583E-03 1.29311E-25
6.29310E-03 1.19630E-25
6.43187E-03 1.10673E-25
6.57214E-03 1.02384E-25
6.71392E-03 9.47124E-26
6.85720E-03 8.76109E-26
7.00198E-03 8.10363E-26
7.14827E-03 7.49489E-26
7.29605E-03 6.93121E-26
7.44534E-03 6.40921E-26
7.59612E-03 5.92579E-26
7.97965E-03 4.86771E-26
8.37255E-03 3.99424E-26
8.77480E-03 3.27329E-26
9.18641E-03 2.67846E-26
9.60736E-03 2.18800E-26
1.00376E-02 1.78395E-26
1.04773E-02 1.45146E-26
1.09262E-02 1.17823E-26
1.13844E-02 9.54070E-27
1.18520E-02 7.70505E-27
1.23288E-02 6.20511E-27
1.28150E-02 4.98247E-27
1.33104E-02 3.98859E-27
1.38150E-02 3.18313E-27
1.43290E-02 2.53258E-27
1.48521E-02 2.00912E-27
1.53845E-02 1.58965E-27
1.59262E-02 1.25505E-27
1.64770E-02 9.89468E-28
1.70371E-02 7.79817E-28
1.76063E-02 6.15304E-28
1.81848E-02 4.87045E-28
1.87724E-02 3.87751E-28
1.93692E-02 3.11459E-28
1.99751E-02 2.53307E-28
2.05901E-02 2.09348E-28
2.12143E-02 1.76392E-28
2.18476E-02 1.51877E-28
2.24900E-02 1.33754E-28
2.31415E-02 1.20398E-28
2.38021E-02 1.10534E-28
2.44717E-02 1.03167E-28
2.51504E-02 9.75306E-29
2.58382E-02 9.30462E-29
2.65349E-02 8.92816E-29
2.72407E-02 8.59231E-29
2.79555E-02 8.27494E-29
2.86793E-02 7.96120E-29
2.94120E-02 7.64177E-29
3.01537E-02 7.31155E-29
3.09043E-02 6.96853E-29
3.16639E-02 6.61294E-29
3.24324E-02 6.24654E-29
3.32098E-02 5.87206E-29
3.39961E-02 5.49283E-29
3.47912E-02 5.11238E-29
3.55952E-02 4.73429E-29
3.64081E-02 4.36195E-29
3.72297E-02 3.99846E-29
3.80602E-02 3.64657E-29
3.88995E-02 3.30863E-29
3.97476E-02 2.98655E-29
4.06044E-02 2.68184E-29
4.14700E-02 2.39558E-29
4.23443E-02 2.12851E-29
4.32273E-02 1.88098E-29
4.41190E-02 1.65306E-29
4.50194E-02 1.44455E-29
4.59284E-02 1.25501E-29
4.68461E-02 1.08381E-29
4.87074E-02 7.93172E-30
5.06030E-02 5.65096E-30
5.25328E-02 3.91046E-30
5.44967E-02 2.62231E-30
5.64946E-02 1.70172E-30
5.85262E-02 1.07078E-30
6.05914E-02 6.60720E-31
6.26901E-02 4.13008E-31
6.48222E-02 2.79457E-31
6.69873E-02 2.21739E-31
6.91854E-02 2.10452E-31
7.14163E-02 2.23950E-31
7.36799E-02 2.47077E-31
7.59760E-02 2.69916E-31
7.83043E-02 2.86618E-31
8.06647E-02 2.94361E-31
8.30571E-02 2.92459E-31
8.54812E-02 2.81629E-31
8.79369E-02 2.63417E-31
9.04240E-02 2.39752E-31
9.29422E-02 2.12642E-31
9.54915E-02 1.83952E-31
9.80716E-02 1.55283E-31
1.00682E-01 1.27908E-31
1.03323E-01 1.02753E-31
1.05995E-01 8.04186E-32
1.08696E-01 6.12174E-32
1.11427E-01 4.52222E-32
1.14188E-01 3.23211E-32
1.16978E-01 2.22690E-32
1.19797E-01 1.47360E-32
1.22645E-01 9.34705E-33
1.25522E-01 5.71570E-33
1.28428E-01 3.46866E-33
1.31361E-01 2.26361E-33
1.34323E-01 1.80027E-33
1.37313E-01 1.82606E-33
1.40330E-01 2.13740E-33
1.43375E-01 2.57771E-33
1.46447E-01 3.03320E-33
1.49545E-01 3.42725E-33
1.52671E-01 3.71416E-33
1.55823E-01 3.87273E-33
1.59001E-01 3.90025E-33
1.62205E-01 3.80694E-33
1.65435E-01 3.61131E-33
1.68690E-01 3.33626E-33
1.71970E-01 3.00604E-33
1.75276E-01 2.64402E-33
1.78606E-01 2.27114E-33
1.81961E-01 1.90501E-33
1.85340E-01 1.55945E-33
1.88743E-01 1.24447E-33
1.92169E-01 9.66473E-34
1.95619E-01 7.28667E-34
1.99092E-01 5.31607E-34
2.02589E-01 3.73741E-34
2.06107E-01 2.51973E-34
2.09649E-01 1.62186E-34
2.13212E-01 9.96923E-35
2.16797E-01 5.96215E-35
2.20404E-01 3.72169E-35
2.24032E-01 2.80600E-35
2.27680E-01 2.82205E-35
2.31350E-01 3.43437E-35
2.35040E-01 4.36844E-35
2.38751E-01 5.40994E-35
2.42481E-01 6.40084E-35
2.46231E-01 7.23345E-35
2.50000E-01 7.84311E-35
2.53788E-01 8.20040E-35
2.57595E-01 8.30336E-35
2.61421E-01 8.17016E-35
2.65264E-01 7.83250E-35
2.69126E-01 7.32998E-35
2.73005E-01 6.70549E-35
2.76901E-01 6.00151E-35
2.80814E-01 5.25752E-35
2.84744E-01 4.50814E-35
2.88691E-01 3.78213E-35
2.92653E-01 3.10190E-35
2.96632E-01 2.48362E-35
3.00625E-01 1.93760E-35
3.04634E-01 1.46894E-35
3.08658E-01 1.07836E-35
3.12697E-01 7.63064E-36
3.16749E-01 5.17585E-36
3.20816E-01 3.34633E-36
3.24896E-01 2.05817E-36
3.28990E-01 1.22281E-36
3.33097E-01 7.52182E-37
3.37216E-01 5.62708E-37
3.41348E-01 5.78207E-37
3.45492E-01 7.31784E-37
3.49647E-01 9.66836E-37
3.53814E-01 1.23733E-36
3.57992E-01 1.50753E-36
3.62181E-01 1.75123E-36
3.66381E-01 1.95077E-36
3.70590E-01 2.09584E-36
3.74810E-01 2.18214E-36
3.79039E-01 2.21023E-36
3.83277E-01 2.18419E-36
3.87524E-01 2.11062E-36
3.91780E-01 1.99765E-36
3.96044E-01 1.85414E-36
4.00316E-01 1.68901E-36
4.04596E-01 1.51076E-36
4.08882E-01 1.32709E-36
4.13176E-01 1.14468E-36
4.17476E-01 9.69057E-37
4.21783E-01 8.04527E-37
4.26095E-01 6.54235E-37
4.30413E-01 5.20227E-37
4.34737E-01 4.03571E-37
4.39065E-01 3.04499E-37
4.43398E-01 2.22557E-37
4.47736E-01 1.56754E-37
4.52077E-01 1.05709E-37
4.56422E-01 6.77836E-38
4.60770E-01 4.11965E-38
4.65122E-01 2.41296E-38
4.69476E-01 1.47967E-38
4.73832E-01 1.15138E-38
4.78190E-01 1.27410E-38
4.82550E-01 1.71117E-38
4.86912E-01 2.34494E-38
4.91274E-01 3.07727E-38
4.95637E-01 3.82916E-38
5.00000E-01 4.53969E-38
5.04363E-01 5.16456E-38
5.08726E-01 5.67411E-38
5.13088E-01 6.05144E-38
5.17450E-01 6.29011E-38
5.21810E-01 6.39221E-38
5.26168E-01 6.36637E-38
5.30524E-01 6.22570E-38
5.34878E-01 5.98657E-38
5.39230E-01 5.66685E-38
5.43578E-01 5.28504E-38
5.47923E-01 4.85895E-38
5.52264E-01 4.40562E-38
5.56602E-01 3.94009E-38
5.60935E-01 3.47576E-38
5.65263E-01 3.02371E-38
5.69587E-01 2.59298E-38
5.73905E-01 2.19052E-38
5.78217E-01 1.82136E-38
5.82524E-01 1.48869E-38
5.86824E-01 1.19416E-38
5.91118E-01 9.38147E-39
5.95404E-01 7.19764E-39
5.99684E-01 5.37382E-39
6.03956E-01 1.00000E-45
6.08220E-01 1.00000E-45
6.12476E-01 1.00000E-45
6.16723E-01 1.00000E-45
6.20961E-01 1.00000E-45
6.25190E-01 1.00000E-45
6.29410E-01 1.00000E-45
6.33619E-01 1.00000E-45
6.37819E-01 1.00000E-45
6.42008E-01 1.00000E-45
6.46186E-01 1.00000E-45
6.50353E-01 1.00000E-45
6.54508E-01 1.00000E-45
6.58652E-01 1.00000E-45
6.62784E-01 1.00000E-45
6.66903E-01 1.00000E-45
6.71010E-01 1.00000E-45
6.75104E-01 1.00000E-45
6.79184E-01 1.00000E-45
6.83251E-01 1.00000E-45
6.87303E-01 1.00000E-45
6.91342E-01 1.00000E-45
6.95366E-01 1.00000E-45
6.99375E-01 1.00000E-45
7.03368E-01 1.00000E-45
7.07347E-01 1.00000E-45
7.11309E-01 1.00000E-45
7.15256E-01 1.00000E-45
7.19186E-01 1.00000E-45
7.23099E-01 1.00000E-45
7.26995E-01 1.00000E-45
7.30874E-01 1.00000E-45
7.34736E-01 1.00000E-45
7.38579E-01 1.00000E-45
7.42405E-01 1.00000E-45
7.46212E-01 1.00000E-45
7.50000E-01 1.00000E-45
7.53769E-01 1.00000E-45
7.57519E-01 1.00000E-45
7.61249E-01 1.00000E-45
7.64960E-01 1.00000E-45
7.68650E-01 1.00000E-45
7.72320E-01 1.00000E-45
7.75968E-01 1.00000E-45
7.79596E-01 1.00000E-45
7.83203E-01 1.00000E-45
7.86788E-01 1.00000E-45
7.90351E-01 1.00000E-45
7.93893E-01 1.00000E-45
7.97411E-01 1.00000E-45
8.00908E-01 1.00000E-45
8.04381E-01 1.00000E-45
8.07831E-01 1.00000E-45
8.11257E-01 1.00000E-45
8.14660E-01 1.00000E-45
8.18039E-01 1.00000E-45
8.21394E-01 1.00000E-45
8.24724E-01 1.00000E-45
8.28030E-01 1.00000E-45
8.31310E-01 1.00000E-45
8.34565E-01 1.00000E-45
8.37795E-01 1.00000E-45
8.40999E-01 1.00000E-45
8.44177E-01 1.00000E-45
8.47329E-01 1.00000E-45
8.50455E-01 1.00000E-45
8.53553E-01 1.00000E-45
8.56625E-01 1.00000E-45
8.59670E-01 1.00000E-45
8.62687E-01 1.00000E-45
8.65677E-01 1.00000E-45
8.68639E-01 1.00000E-45
8.71572E-01 1.00000E-45
8.74478E-01 1.00000E-45
8.77355E-01 1.00000E-45
8.80203E-01 1.00000E-45
8.83022E-01 1.00000E-45
8.85812E-01 1.00000E-45
8.88573E-01 1.00000E-45
8.91304E-01 1.00000E-45
8.94005E-01 1.00000E-45
8.96677E-01 1.00000E-45
8.99318E-01 1.00000E-45
9.01928E-01 1.00000E-45
9.04508E-01 1.00000E-45
9.07058E-01 1.00000E-45
9.09576E-01 1.00000E-45
9.12063E-01 1.00000E-45
9.14519E-01 1.00000E-45
9.16943E-01 1.00000E-45
9.19335E-01 1.00000E-45
9.21696E-01 1.00000E-45
9.24024E-01 1.00000E-45
9.26320E-01 1.00000E-45
9.28584E-01 1.00000E-45
9.30815E-01 1.00000E-45
9.33013E-01 1.00000E-45
9.35178E-01 1.00000E-45
9.37310E-01 1.00000E-45
9.39409E-01 1.00000E-45
9.41474E-01 1.00000E-45
9.43505E-01 1.00000E-45
9.45503E-01 1.00000E-45
9.47467E-01 1.00000E-45
9.49397E-01 1.00000E-45
9.51293E-01 1.00000E-45
9.53154E-01 1.00000E-45
9.54981E-01 1.00000E-45
9.56773E-01 1.00000E-45
9.58530E-01 1.00000E-45
9.60252E-01 1.00000E-45
9.61940E-01 1.00000E-45
9.63592E-01 1.00000E-45
9.65209E-01 1.00000E-45
9.66790E-01 1.00000E-45
9.68336E-01 1.00000E-45
9.69846E-01 1.00000E-45
9.71321E-01 1.00000E-45
9.72759E-01 1.00000E-45
9.74162E-01 1.00000E-45
9.75528E-01 1.00000E-45
9.76858E-01 1.00000E-45
9.78152E-01 1.00000E-45
9.79410E-01 1.00000E-45
9.80631E-01 1.00000E-45
9.81815E-01 1.00000E-45
9.82963E-01 1.00000E-45
9.84074E-01 1.00000E-45
9.85148E-01 1.00000E-45
9.86185E-01 1.00000E-45
9.87185E-01 1.00000E-45
9.88148E-01 1.00000E-45
9.89074E-01 1.00000E-45
9.89962E-01 1.00000E-45
9.90814E-01 1.00000E-45
9.91627E-01 1.00000E-45
9.92404E-01 1.00000E-45
9.93143E-01 1.00000E-45
9.93844E-01 1.00000E-45
9.94508E-01 1.00000E-45
9.95134E-01 1.00000E-45
9.95722E-01 1.00000E-45
9.96273E-01 1.00000E-45
9.96786E-01 1.00000E-45
9.97261E-01 1.00000E-45
9.97698E-01 1.00000E-45
9.98097E-01 1.00000E-45
9.98459E-01 1.00000E-45
9.98782E-01 1.00000E-45
9.99067E-01 1.00000E-45
9.99315E-01 1.00000E-45
9.99524E-01 1.00000E-45
9.99695E-01 1.00000E-45
9.99829E-01 1.00000E-45
9.99924E-01 1.00000E-45
9.99981E-01 1.00000E-45
1.00000E+00 1.00000E-45
