 #
 # Subroutine ELSEPA. Elastic scattering of electrons and positrons
 #                    by neutral atoms and positive ions
 #
 # Projectile: electron
 # Kinetic energy = 4.00000E+08 eV = 1.46997E+07 a.u.
 #
 # WARNING: High-energy factorization with free-atom DF screening.
 #          Absorption, polarization and exchange corrections are
 #          switched off.
 #          Phase shifts are calculated for the bare nucleus.
 #          Scattering amplitudes are not evaluated.
 #
 # Element: Kr,  Z =  36,  atomic weight = 8.38000E+01 g/mol
 #
 # Nuclear model: Fermi distribution
 #                Average radius = 4.68236E-13 cm
 #                Skin thickness = 5.46000E-14 cm
 #
 # Number of electrons = 36
 #
 # Total elastic cross section = 2.80917E-18 cm**2 = 1.00317E-01 a0**2
 # 1st transport cross section = 1.63122E-26 cm**2 = 5.82519E-10 a0**2
 # 2nd transport cross section = 4.89042E-26 cm**2 = 1.74640E-09 a0**2
 #
 #
 # Differential cross section:                       MU=(1-COS(THETA))/2
 #
 #  THETA        MU          DCS          DCS        Sherman      error
 #  (deg)                 (cm**2/sr)   (a0**2/sr)    function
 #----------------------------------------------------------------------
0.00000E+00 2.86293E-09
7.61557E-13 2.80112E-09
1.18994E-12 2.76724E-09
1.71346E-12 2.72630E-09
2.33225E-12 2.67955E-09
3.04617E-12 2.62680E-09
3.85530E-12 2.56857E-09
4.75964E-12 2.50604E-09
5.75917E-12 2.43999E-09
6.85391E-12 2.36946E-09
8.04379E-12 2.29633E-09
9.32893E-12 2.22153E-09
1.07092E-11 2.14531E-09
1.21847E-11 2.06686E-09
1.37554E-11 1.98841E-09
1.54213E-11 1.91045E-09
1.71823E-11 1.83240E-09
1.90386E-11 1.75461E-09
2.09900E-11 1.67848E-09
2.30367E-11 1.60426E-09
2.51785E-11 1.53076E-09
2.74156E-11 1.45931E-09
2.97478E-11 1.39038E-09
3.21752E-11 1.32392E-09
3.46979E-11 1.25890E-09
3.73157E-11 1.19669E-09
4.00286E-11 1.13728E-09
4.28368E-11 1.08020E-09
4.57402E-11 1.02530E-09
4.87388E-11 9.73156E-10
5.18325E-11 9.23677E-10
5.50215E-11 8.76274E-10
5.83057E-11 8.31219E-10
6.16850E-11 7.88631E-10
6.51595E-11 7.48385E-10
6.87293E-11 7.09907E-10
7.23943E-11 6.73627E-10
7.61544E-11 6.39426E-10
1.18991E-10 3.86328E-10
1.71347E-10 2.43201E-10
2.33223E-10 1.63736E-10
3.04617E-10 1.15042E-10
3.85531E-10 8.39335E-11
4.75965E-10 6.32034E-11
5.75917E-10 4.87417E-11
6.85389E-10 3.79685E-11
8.04380E-10 2.99911E-11
9.32891E-10 2.39717E-11
1.07092E-09 1.93205E-11
1.21847E-09 1.56452E-11
1.37554E-09 1.27824E-11
1.54213E-09 1.05249E-11
1.71823E-09 8.71724E-12
1.90386E-09 7.26644E-12
2.09900E-09 6.10129E-12
2.30367E-09 5.15746E-12
2.51785E-09 4.38449E-12
2.74156E-09 3.75096E-12
2.97478E-09 3.22846E-12
3.21752E-09 2.79446E-12
3.46978E-09 2.43135E-12
3.73156E-09 2.12612E-12
4.00286E-09 1.86806E-12
4.28368E-09 1.64868E-12
4.57402E-09 1.46117E-12
4.87388E-09 1.30023E-12
5.18326E-09 1.16139E-12
5.50215E-09 1.04089E-12
5.83057E-09 9.35897E-13
6.16850E-09 8.44075E-13
6.51596E-09 7.63448E-13
6.87293E-09 6.92215E-13
7.23942E-09 6.29211E-13
7.61544E-09 5.73304E-13
1.18991E-08 2.50674E-13
1.71347E-08 1.25723E-13
2.33223E-08 6.94376E-14
3.04617E-08 4.13015E-14
3.85531E-08 2.60521E-14
4.75965E-08 1.72327E-14
5.75917E-08 1.18523E-14
6.85389E-08 8.42010E-15
8.04380E-08 6.14709E-15
9.32891E-08 4.59312E-15
1.07092E-07 3.50127E-15
1.21847E-07 2.71576E-15
1.37554E-07 2.13883E-15
1.54213E-07 1.70730E-15
1.71823E-07 1.37931E-15
1.90386E-07 1.12642E-15
2.09900E-07 9.28898E-16
2.30367E-07 7.72805E-16
2.51785E-07 6.48139E-16
2.74156E-07 5.47600E-16
2.97478E-07 4.65803E-16
3.21752E-07 3.98710E-16
3.46978E-07 3.43260E-16
3.73156E-07 2.97114E-16
4.00286E-07 2.58459E-16
4.28368E-07 2.25884E-16
4.57402E-07 1.98277E-16
4.87388E-07 1.74758E-16
5.18325E-07 1.54622E-16
5.50215E-07 1.37301E-16
5.83057E-07 1.22337E-16
6.16850E-07 1.09355E-16
6.51596E-07 9.80491E-17
6.87293E-07 8.81659E-17
7.23942E-07 7.94962E-17
7.61543E-07 7.18657E-17
1.18991E-06 2.95079E-17
1.71347E-06 1.42485E-17
2.33223E-06 7.69692E-18
3.04617E-06 4.51416E-18
3.85531E-06 2.81926E-18
4.75964E-06 1.85029E-18
5.75916E-06 1.26410E-18
6.85388E-06 8.92748E-19
8.04378E-06 6.48292E-19
9.32888E-06 4.82077E-19
1.07092E-05 3.65884E-19
1.21846E-05 2.82686E-19
1.37553E-05 2.21852E-19
1.54212E-05 1.76539E-19
1.71822E-05 1.42228E-19
1.90385E-05 1.15850E-19
2.09899E-05 9.53429E-20
2.30365E-05 7.91768E-20
2.51783E-05 6.62920E-20
2.74153E-05 5.59209E-20
2.97475E-05 4.74991E-20
3.21749E-05 4.06049E-20
3.46974E-05 3.49187E-20
3.73152E-05 3.01956E-20
4.00281E-05 2.62461E-20
4.28362E-05 2.29226E-20
4.57395E-05 2.01090E-20
4.87380E-05 1.77140E-20
5.18317E-05 1.56649E-20
5.50205E-05 1.39034E-20
5.83045E-05 1.23827E-20
6.16838E-05 1.10645E-20
6.51582E-05 9.91726E-21
6.87277E-05 8.91526E-21
7.23925E-05 8.03683E-21
7.61524E-05 7.25634E-21
9.21439E-05 4.95583E-21
1.09658E-04 3.49828E-21
1.28695E-04 2.53898E-21
1.49255E-04 1.88662E-21
1.71338E-04 1.43070E-21
1.94942E-04 1.10426E-21
2.20070E-04 8.65626E-22
2.46720E-04 6.87927E-22
2.74892E-04 5.53412E-22
3.04586E-04 4.50100E-22
3.35803E-04 3.69693E-22
3.68542E-04 3.06372E-22
4.02802E-04 2.55962E-22
4.38585E-04 2.15435E-22
4.75889E-04 1.82559E-22
5.14715E-04 1.55667E-22
5.55063E-04 1.33503E-22
5.96931E-04 1.15105E-22
6.40321E-04 9.97332E-23
6.85233E-04 8.68119E-23
7.31665E-04 7.58883E-23
7.79618E-04 6.66049E-23
8.29092E-04 5.86757E-23
8.80086E-04 5.18720E-23
9.32601E-04 4.60083E-23
9.86636E-04 4.09339E-23
1.04219E-03 3.65255E-23
1.09927E-03 3.26816E-23
1.15786E-03 2.93184E-23
1.21797E-03 2.63660E-23
1.27961E-03 2.37662E-23
1.34276E-03 2.14700E-23
1.40743E-03 1.94364E-23
1.47362E-03 1.76305E-23
1.54133E-03 1.60227E-23
1.61056E-03 1.45878E-23
1.68131E-03 1.33043E-23
1.75357E-03 1.21535E-23
1.82735E-03 1.11197E-23
1.90265E-03 1.01890E-23
1.97947E-03 9.34959E-24
2.05780E-03 8.59102E-24
2.13765E-03 7.90432E-24
2.21902E-03 7.28162E-24
2.30190E-03 6.71602E-24
2.38630E-03 6.20147E-24
2.47222E-03 5.73267E-24
2.55965E-03 5.30491E-24
2.64859E-03 4.91406E-24
2.73905E-03 4.55645E-24
2.83103E-03 4.22883E-24
2.92452E-03 3.92831E-24
3.01952E-03 3.65230E-24
3.11604E-03 3.39853E-24
3.21407E-03 3.16492E-24
3.31362E-03 2.94965E-24
3.41468E-03 2.75107E-24
3.51725E-03 2.56770E-24
3.62133E-03 2.39820E-24
3.72692E-03 2.24139E-24
3.83403E-03 2.09617E-24
3.94265E-03 1.96157E-24
4.05278E-03 1.83671E-24
4.16442E-03 1.72079E-24
4.27757E-03 1.61307E-24
4.39223E-03 1.51291E-24
4.50840E-03 1.41970E-24
4.62608E-03 1.33290E-24
4.74527E-03 1.25200E-24
4.86597E-03 1.17656E-24
4.98817E-03 1.10616E-24
5.11188E-03 1.04042E-24
5.23711E-03 9.78994E-25
5.36383E-03 9.21565E-25
5.49207E-03 8.67842E-25
5.62181E-03 8.17556E-25
5.75306E-03 7.70461E-25
5.88581E-03 7.26332E-25
6.02007E-03 6.84961E-25
6.15583E-03 6.46155E-25
6.29310E-03 6.09737E-25
6.43187E-03 5.75545E-25
6.57214E-03 5.43428E-25
6.71392E-03 5.13246E-25
6.85720E-03 4.84870E-25
7.00198E-03 4.58182E-25
7.14827E-03 4.33071E-25
7.29605E-03 4.09434E-25
7.44534E-03 3.87176E-25
7.59612E-03 3.66209E-25
7.97965E-03 3.18916E-25
8.37255E-03 2.78064E-25
8.77480E-03 2.42705E-25
9.18641E-03 2.12046E-25
9.60736E-03 1.85417E-25
1.00376E-02 1.62253E-25
1.04773E-02 1.42074E-25
1.09262E-02 1.24474E-25
1.13844E-02 1.09105E-25
1.18520E-02 9.56694E-26
1.23288E-02 8.39128E-26
1.28150E-02 7.36167E-26
1.33104E-02 6.45926E-26
1.38150E-02 5.66782E-26
1.43290E-02 4.97329E-26
1.48521E-02 4.36349E-26
1.53845E-02 3.82789E-26
1.59262E-02 3.35728E-26
1.64770E-02 2.94368E-26
1.70371E-02 2.58012E-26
1.76063E-02 2.26051E-26
1.81848E-02 1.97954E-26
1.87724E-02 1.73254E-26
1.93692E-02 1.51544E-26
1.99751E-02 1.32465E-26
2.05901E-02 1.15703E-26
2.12143E-02 1.00982E-26
2.18476E-02 8.80586E-27
2.24900E-02 7.67187E-27
2.31415E-02 6.67741E-27
2.38021E-02 5.80585E-27
2.44717E-02 5.04257E-27
2.51504E-02 4.37463E-27
2.58382E-02 3.79064E-27
2.65349E-02 3.28053E-27
2.72407E-02 2.83543E-27
2.79555E-02 2.44748E-27
2.86793E-02 2.10976E-27
2.94120E-02 1.81615E-27
3.01537E-02 1.56124E-27
3.09043E-02 1.34028E-27
3.16639E-02 1.14905E-27
3.24324E-02 9.83836E-28
3.32098E-02 8.41360E-28
3.39961E-02 7.18736E-28
3.47912E-02 6.13420E-28
3.55952E-02 5.23169E-28
3.64081E-02 4.46013E-28
3.72297E-02 3.80218E-28
3.80602E-02 3.24260E-28
3.88995E-02 2.76805E-28
3.97476E-02 2.36680E-28
4.06044E-02 2.02860E-28
4.14700E-02 1.74450E-28
4.23443E-02 1.50666E-28
4.32273E-02 1.30828E-28
4.41190E-02 1.14343E-28
4.50194E-02 1.00695E-28
4.59284E-02 8.94397E-29
4.68461E-02 8.01911E-29
4.87074E-02 6.64333E-29
5.06030E-02 5.72928E-29
5.25328E-02 5.12180E-29
5.44967E-02 4.70970E-29
5.64946E-02 4.41501E-29
5.85262E-02 4.18455E-29
6.05914E-02 3.98345E-29
6.26901E-02 3.79013E-29
6.48222E-02 3.59244E-29
6.69873E-02 3.38481E-29
6.91854E-02 3.16598E-29
7.14163E-02 2.93747E-29
7.36799E-02 2.70238E-29
7.59760E-02 2.46451E-29
7.83043E-02 2.22787E-29
8.06647E-02 1.99622E-29
8.30571E-02 1.77290E-29
8.54812E-02 1.56067E-29
8.79369E-02 1.36168E-29
9.04240E-02 1.17744E-29
9.29422E-02 1.00891E-29
9.54915E-02 8.56520E-30
9.80716E-02 7.20268E-30
1.00682E-01 5.99777E-30
1.03323E-01 4.94382E-30
1.05995E-01 4.03197E-30
1.08696E-01 3.25182E-30
1.11427E-01 2.59199E-30
1.14188E-01 2.04059E-30
1.16978E-01 1.58565E-30
1.19797E-01 1.21544E-30
1.22645E-01 9.18700E-31
1.25522E-01 6.84863E-31
1.28428E-01 5.04154E-31
1.31361E-01 3.67687E-31
1.34323E-01 2.67494E-31
1.37313E-01 1.96538E-31
1.40330E-01 1.48689E-31
1.43375E-01 1.18684E-31
1.46447E-01 1.02069E-31
1.49545E-01 9.51357E-32
1.52671E-01 9.48508E-32
1.55823E-01 9.87790E-32
1.59001E-01 1.05011E-31
1.62205E-01 1.12093E-31
1.65435E-01 1.18954E-31
1.68690E-01 1.24849E-31
1.71970E-01 1.29293E-31
1.75276E-01 1.32018E-31
1.78606E-01 1.32920E-31
1.81961E-01 1.32023E-31
1.85340E-01 1.29440E-31
1.88743E-01 1.25351E-31
1.92169E-01 1.19975E-31
1.95619E-01 1.13550E-31
1.99092E-01 1.06320E-31
2.02589E-01 9.85239E-32
2.06107E-01 9.03838E-32
2.09649E-01 8.21023E-32
2.13212E-01 7.38575E-32
2.16797E-01 6.58008E-32
2.20404E-01 5.80572E-32
2.24032E-01 5.07254E-32
2.27680E-01 4.38791E-32
2.31350E-01 3.75695E-32
2.35040E-01 3.18274E-32
2.38751E-01 2.66657E-32
2.42481E-01 2.20821E-32
2.46231E-01 1.80621E-32
2.50000E-01 1.45811E-32
2.53788E-01 1.16066E-32
2.57595E-01 9.10120E-33
2.61421E-01 7.02341E-33
2.65264E-01 5.33003E-33
2.69126E-01 3.97731E-33
2.73005E-01 2.92208E-33
2.76901E-01 2.12276E-33
2.80814E-01 1.54000E-33
2.84744E-01 1.13726E-33
2.88691E-01 8.81130E-34
2.92653E-01 7.41565E-34
2.96632E-01 6.91947E-34
3.00625E-01 7.09077E-34
3.04634E-01 7.73075E-34
3.08658E-01 8.67208E-34
3.12697E-01 9.77680E-34
3.16749E-01 1.09339E-33
3.20816E-01 1.20566E-33
3.24896E-01 1.30795E-33
3.28990E-01 1.39563E-33
3.33097E-01 1.46563E-33
3.37216E-01 1.51625E-33
3.41348E-01 1.54691E-33
3.45492E-01 1.55790E-33
3.49647E-01 1.55021E-33
3.53814E-01 1.52532E-33
3.57992E-01 1.48510E-33
3.62181E-01 1.43163E-33
3.66381E-01 1.36709E-33
3.70590E-01 1.29369E-33
3.74810E-01 1.21361E-33
3.79039E-01 1.12889E-33
3.83277E-01 1.04143E-33
3.87524E-01 9.52953E-34
3.91780E-01 8.64975E-34
3.96044E-01 7.78807E-34
4.00316E-01 6.95549E-34
4.04596E-01 6.16097E-34
4.08882E-01 5.41148E-34
4.13176E-01 4.71219E-34
4.17476E-01 4.06659E-34
4.21783E-01 3.47666E-34
4.26095E-01 2.94311E-34
4.30413E-01 2.46550E-34
4.34737E-01 2.04242E-34
4.39065E-01 1.67174E-34
4.43398E-01 1.35069E-34
4.47736E-01 1.07604E-34
4.52077E-01 8.44280E-35
4.56422E-01 6.51655E-35
4.60770E-01 4.94340E-35
4.65122E-01 3.68505E-35
4.69476E-01 2.70389E-35
4.73832E-01 1.96367E-35
4.78190E-01 1.42997E-35
4.82550E-01 1.07053E-35
4.86912E-01 8.55556E-36
4.91274E-01 7.57869E-36
4.95637E-01 7.52976E-36
5.00000E-01 8.19097E-36
5.04363E-01 9.37117E-36
5.08726E-01 1.09050E-35
5.13088E-01 1.26515E-35
5.17450E-01 1.44929E-35
5.21810E-01 1.63323E-35
5.26168E-01 1.80923E-35
5.30524E-01 1.97131E-35
5.34878E-01 2.11501E-35
5.39230E-01 2.23722E-35
5.43578E-01 2.33605E-35
5.47923E-01 2.41054E-35
5.52264E-01 2.46060E-35
5.56602E-01 2.48681E-35
5.60935E-01 2.49029E-35
5.65263E-01 2.47257E-35
5.69587E-01 2.43549E-35
5.73905E-01 2.38107E-35
5.78217E-01 2.31149E-35
5.82524E-01 2.22896E-35
5.86824E-01 2.13567E-35
5.91118E-01 2.03378E-35
5.95404E-01 1.92533E-35
5.99684E-01 1.81225E-35
6.03956E-01 1.69632E-35
6.08220E-01 1.57915E-35
6.12476E-01 1.46218E-35
6.16723E-01 1.34669E-35
6.20961E-01 1.23378E-35
6.25190E-01 1.12436E-35
6.29410E-01 1.01922E-35
6.33619E-01 9.18953E-36
6.37819E-01 8.24044E-36
6.42008E-01 7.34829E-36
6.46186E-01 6.51531E-36
6.50353E-01 5.74270E-36
6.54508E-01 5.03069E-36
6.58652E-01 4.37876E-36
6.62784E-01 3.78565E-36
6.66903E-01 3.24957E-36
6.71010E-01 2.76824E-36
6.75104E-01 2.33906E-36
6.79184E-01 1.95910E-36
6.83251E-01 1.62526E-36
6.87303E-01 1.33431E-36
6.91342E-01 1.08296E-36
6.95366E-01 8.67905E-37
6.99375E-01 6.85886E-37
7.03368E-01 5.33716E-37
7.07347E-01 4.08318E-37
7.11309E-01 3.06750E-37
7.15256E-01 2.26224E-37
7.19186E-01 1.64119E-37
7.23099E-01 1.17991E-37
7.26995E-01 8.55810E-38
7.30874E-01 6.48105E-38
7.34736E-01 5.37904E-38
7.38579E-01 5.08093E-38
7.42405E-01 5.43314E-38
7.46212E-01 6.29898E-38
7.50000E-01 7.55755E-38
7.53769E-01 9.10317E-38
7.57519E-01 1.08441E-37
7.61249E-01 1.27018E-37
7.64960E-01 1.46092E-37
7.68650E-01 1.65108E-37
7.72320E-01 1.83603E-37
7.75968E-01 2.01210E-37
7.79596E-01 2.17634E-37
7.83203E-01 2.32661E-37
7.86788E-01 2.46125E-37
7.90351E-01 2.57922E-37
7.93893E-01 2.67995E-37
7.97411E-01 2.76318E-37
8.00908E-01 2.82912E-37
8.04381E-01 2.87813E-37
8.07831E-01 2.91083E-37
8.11257E-01 2.92797E-37
8.14660E-01 2.93050E-37
8.18039E-01 2.91952E-37
8.21394E-01 2.89602E-37
8.24724E-01 2.86114E-37
8.28030E-01 2.81607E-37
8.31310E-01 2.76191E-37
8.34565E-01 2.69982E-37
8.37795E-01 2.63083E-37
8.40999E-01 2.55602E-37
8.44177E-01 2.47635E-37
8.47329E-01 2.39278E-37
8.50455E-01 2.30614E-37
8.53553E-01 2.21730E-37
8.56625E-01 2.12689E-37
8.59670E-01 2.03570E-37
8.62687E-01 1.94427E-37
8.65677E-01 1.85315E-37
8.68639E-01 1.76286E-37
8.71572E-01 1.67381E-37
8.74478E-01 1.58636E-37
8.77355E-01 1.50084E-37
8.80203E-01 1.41752E-37
8.83022E-01 1.33663E-37
8.85812E-01 1.25836E-37
8.88573E-01 1.18286E-37
8.91304E-01 1.11022E-37
8.94005E-01 1.04052E-37
8.96677E-01 9.73824E-38
8.99318E-01 9.10169E-38
9.01928E-01 8.49531E-38
9.04508E-01 7.91910E-38
9.07058E-01 7.37265E-38
9.09576E-01 6.85521E-38
9.12063E-01 6.36647E-38
9.14519E-01 5.90560E-38
9.16943E-01 5.47165E-38
9.19335E-01 5.06377E-38
9.21696E-01 4.68103E-38
9.24024E-01 4.32240E-38
9.26320E-01 3.98677E-38
9.28584E-01 3.67331E-38
9.30815E-01 3.38076E-38
9.33013E-01 3.10831E-38
9.35178E-01 2.85455E-38
9.37310E-01 2.61901E-38
9.39409E-01 2.40033E-38
9.41474E-01 2.19771E-38
9.43505E-01 2.00996E-38
9.45503E-01 1.83649E-38
9.47467E-01 1.67625E-38
9.49397E-01 1.52853E-38
9.51293E-01 1.39231E-38
9.53154E-01 1.26706E-38
9.54981E-01 1.15191E-38
9.56773E-01 1.04616E-38
9.58530E-01 9.49257E-39
9.60252E-01 8.60431E-39
9.61940E-01 7.79138E-39
9.63592E-01 7.04906E-39
9.65209E-01 6.37087E-39
9.66790E-01 5.75154E-39
9.68336E-01 5.18743E-39
9.69846E-01 4.67380E-39
9.71321E-01 4.20667E-39
9.72759E-01 3.78185E-39
9.74162E-01 3.39596E-39
9.75528E-01 3.04647E-39
9.76858E-01 2.72939E-39
9.78152E-01 2.44236E-39
9.79410E-01 2.18232E-39
9.80631E-01 1.94744E-39
9.81815E-01 1.73538E-39
9.82963E-01 1.54377E-39
9.84074E-01 1.37168E-39
9.85148E-01 1.21630E-39
9.86185E-01 1.07704E-39
9.87185E-01 9.51356E-40
9.88148E-01 8.39063E-40
9.89074E-01 7.38185E-40
9.89962E-01 6.47844E-40
9.90814E-01 5.67441E-40
9.91627E-01 4.95597E-40
9.92404E-01 4.31355E-40
9.93143E-01 3.74159E-40
9.93844E-01 3.23299E-40
9.94508E-01 2.78226E-40
9.95134E-01 2.37888E-40
9.95722E-01 2.02455E-40
9.96273E-01 1.70907E-40
9.96786E-01 1.43196E-40
9.97261E-01 1.18838E-40
9.97698E-01 9.74432E-41
9.98097E-01 7.87296E-41
9.98459E-01 6.24900E-41
9.98782E-01 4.84729E-41
9.99067E-01 3.66250E-41
9.99315E-01 2.64792E-41
9.99524E-01 1.81787E-41
9.99695E-01 1.15637E-41
9.99829E-01 6.50942E-42
9.99924E-01 2.91944E-42
9.99981E-01 7.65745E-43
1.00000E+00 8.07077E-44
