 #
 # Subroutine ELSEPA. Elastic scattering of electrons and positrons
 #                    by neutral atoms and positive ions
 #
 # Projectile: electron
 # Kinetic energy = 3.00000E+08 eV = 1.10248E+07 a.u.
 #
 # WARNING: High-energy factorization with free-atom DF screening.
 #          Absorption, polarization and exchange corrections are
 #          switched off.
 #          Phase shifts are calculated for the bare nucleus.
 #          Scattering amplitudes are not evaluated.
 #
 # Element: Kr,  Z =  36,  atomic weight = 8.38000E+01 g/mol
 #
 # Nuclear model: Fermi distribution
 #                Average radius = 4.68236E-13 cm
 #                Skin thickness = 5.46000E-14 cm
 #
 # Number of electrons = 36
 #
 # Total elastic cross section = 2.80839E-18 cm**2 = 1.00289E-01 a0**2
 # 1st transport cross section = 2.89901E-26 cm**2 = 1.03526E-09 a0**2
 # 2nd transport cross section = 8.68695E-26 cm**2 = 3.10217E-09 a0**2
 #
 #
 # Differential cross section:                       MU=(1-COS(THETA))/2
 #
 #  THETA        MU          DCS          DCS        Sherman      error
 #  (deg)                 (cm**2/sr)   (a0**2/sr)    function
 #----------------------------------------------------------------------
0.00000E+00 1.61177E-09
7.61557E-13 1.59203E-09
1.18994E-12 1.58110E-09
1.71346E-12 1.56789E-09
2.33225E-12 1.55248E-09
3.04617E-12 1.53478E-09
3.85530E-12 1.51542E-09
4.75964E-12 1.49383E-09
5.75917E-12 1.47096E-09
6.85391E-12 1.44592E-09
8.04379E-12 1.41990E-09
9.32893E-12 1.39218E-09
1.07092E-11 1.36353E-09
1.21847E-11 1.33375E-09
1.37554E-11 1.30302E-09
1.54213E-11 1.27182E-09
1.71823E-11 1.23955E-09
1.90386E-11 1.20750E-09
2.09900E-11 1.17422E-09
2.30367E-11 1.14163E-09
2.51785E-11 1.10807E-09
2.74156E-11 1.07520E-09
2.97478E-11 1.04200E-09
3.21752E-11 1.00926E-09
3.46979E-11 9.76796E-10
3.73157E-11 9.44565E-10
4.00286E-11 9.13126E-10
4.28368E-11 8.81704E-10
4.57402E-11 8.51519E-10
4.87388E-11 8.21157E-10
5.18325E-11 7.92155E-10
5.50215E-11 7.63282E-10
5.83057E-11 7.35550E-10
6.16850E-11 7.08328E-10
6.51595E-11 6.81986E-10
6.87293E-11 6.56455E-10
7.23943E-11 6.31579E-10
7.61544E-11 6.07740E-10
1.18991E-10 4.09932E-10
1.71347E-10 2.78180E-10
2.33223E-10 1.92909E-10
3.04617E-10 1.36767E-10
3.85531E-10 1.01302E-10
4.75965E-10 7.65573E-11
5.75917E-10 5.97518E-11
6.85389E-10 4.71996E-11
8.04380E-10 3.81430E-11
9.32891E-10 3.10842E-11
1.07092E-09 2.56719E-11
1.21847E-09 2.13501E-11
1.37554E-09 1.78758E-11
1.54213E-09 1.50754E-11
1.71823E-09 1.27458E-11
1.90386E-09 1.08628E-11
2.09900E-09 9.25958E-12
2.30367E-09 7.95507E-12
2.51785E-09 6.83909E-12
2.74156E-09 5.91656E-12
2.97478E-09 5.13096E-12
3.21752E-09 4.47036E-12
3.46978E-09 3.90842E-12
3.73156E-09 3.42965E-12
4.00286E-09 3.02156E-12
4.28368E-09 2.67027E-12
4.57402E-09 2.36953E-12
4.87388E-09 2.10844E-12
5.18326E-09 1.88334E-12
5.50215E-09 1.68701E-12
5.83057E-09 1.51624E-12
6.16850E-09 1.36668E-12
6.51596E-09 1.23536E-12
6.87293E-09 1.11960E-12
7.23942E-09 1.01730E-12
7.61544E-09 9.26740E-13
1.18991E-08 4.08479E-13
1.71347E-08 2.08627E-13
2.33223E-08 1.17311E-13
3.04617E-08 7.06677E-14
3.85531E-08 4.49241E-14
4.75965E-08 2.98553E-14
5.75917E-08 2.05874E-14
6.85389E-08 1.46430E-14
8.04380E-08 1.06980E-14
9.32891E-08 7.99739E-15
1.07092E-07 6.09868E-15
1.21847E-07 4.73271E-15
1.37554E-07 3.72921E-15
1.54213E-07 2.97864E-15
1.71823E-07 2.40813E-15
1.90386E-07 1.96799E-15
2.09900E-07 1.62412E-15
2.30367E-07 1.35225E-15
2.51785E-07 1.13496E-15
2.74156E-07 9.59646E-16
2.97478E-07 8.16900E-16
3.21752E-07 6.99730E-16
3.46978E-07 6.02835E-16
3.73156E-07 5.22124E-16
4.00286E-07 4.54476E-16
4.28368E-07 3.97430E-16
4.57402E-07 3.49047E-16
4.87388E-07 3.07804E-16
5.18325E-07 2.72469E-16
5.50215E-07 2.42056E-16
5.83057E-07 2.15768E-16
6.16850E-07 1.92948E-16
6.51596E-07 1.73063E-16
6.87293E-07 1.55673E-16
7.23942E-07 1.40410E-16
7.61543E-07 1.26971E-16
1.18991E-06 5.22462E-17
1.71347E-06 2.52571E-17
2.33223E-06 1.36526E-17
3.04617E-06 8.01029E-18
3.85531E-06 5.00401E-18
4.75964E-06 3.28472E-18
5.75916E-06 2.24436E-18
6.85388E-06 1.58517E-18
8.04378E-06 1.15119E-18
9.32888E-06 8.56080E-19
1.07092E-05 6.49767E-19
1.21846E-05 5.02033E-19
1.37553E-05 3.94004E-19
1.54212E-05 3.13536E-19
1.71822E-05 2.52604E-19
1.90385E-05 2.05758E-19
2.09899E-05 1.69338E-19
2.30365E-05 1.40627E-19
2.51783E-05 1.17743E-19
2.74153E-05 9.93233E-20
2.97475E-05 8.43656E-20
3.21749E-05 7.21208E-20
3.46974E-05 6.20215E-20
3.73152E-05 5.36328E-20
4.00281E-05 4.66179E-20
4.28362E-05 4.07148E-20
4.57395E-05 3.57175E-20
4.87380E-05 3.14636E-20
5.18317E-05 2.78240E-20
5.50205E-05 2.46953E-20
5.83045E-05 2.19943E-20
6.16838E-05 1.96528E-20
6.51582E-05 1.76153E-20
6.87277E-05 1.58354E-20
7.23925E-05 1.42752E-20
7.61524E-05 1.29031E-20
9.21439E-05 8.81607E-21
1.09658E-04 6.22627E-21
1.28695E-04 4.52145E-21
1.49255E-04 3.36186E-21
1.71338E-04 2.55122E-21
1.94942E-04 1.97064E-21
2.20070E-04 1.54608E-21
2.46720E-04 1.22983E-21
2.74892E-04 9.90333E-22
3.04586E-04 8.06317E-22
3.35803E-04 6.63031E-22
3.68542E-04 5.50135E-22
4.02802E-04 4.60211E-22
4.38585E-04 3.87873E-22
4.75889E-04 3.29157E-22
5.14715E-04 2.81095E-22
5.55063E-04 2.41456E-22
5.96931E-04 2.08527E-22
6.40321E-04 1.80994E-22
6.85233E-04 1.57830E-22
7.31665E-04 1.38231E-22
7.79618E-04 1.21559E-22
8.29092E-04 1.07306E-22
8.80086E-04 9.50631E-23
9.32601E-04 8.45010E-23
9.86636E-04 7.53508E-23
1.04219E-03 6.73926E-23
1.09927E-03 6.04453E-23
1.15786E-03 5.43593E-23
1.21797E-03 4.90100E-23
1.27961E-03 4.42933E-23
1.34276E-03 4.01219E-23
1.40743E-03 3.64223E-23
1.47362E-03 3.31322E-23
1.54133E-03 3.01986E-23
1.61056E-03 2.75764E-23
1.68131E-03 2.52271E-23
1.75357E-03 2.31174E-23
1.82735E-03 2.12189E-23
1.90265E-03 1.95068E-23
1.97947E-03 1.79598E-23
2.05780E-03 1.65593E-23
2.13765E-03 1.52891E-23
2.21902E-03 1.41350E-23
2.30190E-03 1.30846E-23
2.38630E-03 1.21272E-23
2.47222E-03 1.12530E-23
2.55965E-03 1.04536E-23
2.64859E-03 9.72163E-24
2.73905E-03 9.05039E-24
2.83103E-03 8.43403E-24
2.92452E-03 7.86730E-24
3.01952E-03 7.34557E-24
3.11604E-03 6.86467E-24
3.21407E-03 6.42087E-24
3.31362E-03 6.01086E-24
3.41468E-03 5.63163E-24
3.51725E-03 5.28051E-24
3.62133E-03 4.95507E-24
3.72692E-03 4.65313E-24
3.83403E-03 4.37272E-24
3.94265E-03 4.11206E-24
4.05278E-03 3.86954E-24
4.16442E-03 3.64369E-24
4.27757E-03 3.43318E-24
4.39223E-03 3.23682E-24
4.50840E-03 3.05349E-24
4.62608E-03 2.88221E-24
4.74527E-03 2.72204E-24
4.86597E-03 2.57217E-24
4.98817E-03 2.43183E-24
5.11188E-03 2.30032E-24
5.23711E-03 2.17699E-24
5.36383E-03 2.06127E-24
5.49207E-03 1.95261E-24
5.62181E-03 1.85051E-24
5.75306E-03 1.75453E-24
5.88581E-03 1.66424E-24
6.02007E-03 1.57925E-24
6.15583E-03 1.49921E-24
6.29310E-03 1.42378E-24
6.43187E-03 1.35266E-24
6.57214E-03 1.28558E-24
6.71392E-03 1.22226E-24
6.85720E-03 1.16248E-24
7.00198E-03 1.10599E-24
7.14827E-03 1.05260E-24
7.29605E-03 1.00211E-24
7.44534E-03 9.54345E-25
7.59612E-03 9.09134E-25
7.97965E-03 8.06295E-25
8.37255E-03 7.16337E-25
8.77480E-03 6.37454E-25
9.18641E-03 5.68122E-25
9.60736E-03 5.07052E-25
1.00376E-02 4.53149E-25
1.04773E-02 4.05480E-25
1.09262E-02 3.63247E-25
1.13844E-02 3.25765E-25
1.18520E-02 2.92446E-25
1.23288E-02 2.62782E-25
1.28150E-02 2.36333E-25
1.33104E-02 2.12719E-25
1.38150E-02 1.91609E-25
1.43290E-02 1.72713E-25
1.48521E-02 1.55782E-25
1.53845E-02 1.40593E-25
1.59262E-02 1.26954E-25
1.64770E-02 1.14694E-25
1.70371E-02 1.03665E-25
1.76063E-02 9.37350E-26
1.81848E-02 8.47868E-26
1.87724E-02 7.67176E-26
1.93692E-02 6.94361E-26
1.99751E-02 6.28612E-26
2.05901E-02 5.69209E-26
2.12143E-02 5.15509E-26
2.18476E-02 4.66940E-26
2.24900E-02 4.22993E-26
2.31415E-02 3.83209E-26
2.38021E-02 3.47182E-26
2.44717E-02 3.14545E-26
2.51504E-02 2.84970E-26
2.58382E-02 2.58163E-26
2.65349E-02 2.33859E-26
2.72407E-02 2.11819E-26
2.79555E-02 1.91830E-26
2.86793E-02 1.73698E-26
2.94120E-02 1.57250E-26
3.01537E-02 1.42327E-26
3.09043E-02 1.28788E-26
3.16639E-02 1.16505E-26
3.24324E-02 1.05361E-26
3.32098E-02 9.52517E-27
3.39961E-02 8.60815E-27
3.47912E-02 7.77642E-27
3.55952E-02 7.02217E-27
3.64081E-02 6.33832E-27
3.72297E-02 5.71841E-27
3.80602E-02 5.15662E-27
3.88995E-02 4.64764E-27
3.97476E-02 4.18664E-27
4.06044E-02 3.76924E-27
4.14700E-02 3.39147E-27
4.23443E-02 3.04970E-27
4.32273E-02 2.74063E-27
4.41190E-02 2.46128E-27
4.50194E-02 2.20890E-27
4.59284E-02 1.98102E-27
4.68461E-02 1.77538E-27
4.87074E-02 1.42279E-27
5.06030E-02 1.13677E-27
5.25328E-02 9.05470E-28
5.44967E-02 7.19033E-28
5.64946E-02 5.69316E-28
5.85262E-02 4.49579E-28
6.05914E-02 3.54248E-28
6.26901E-02 2.78726E-28
6.48222E-02 2.19220E-28
6.69873E-02 1.72612E-28
6.91854E-02 1.36343E-28
7.14163E-02 1.08318E-28
7.36799E-02 8.68265E-29
7.59760E-02 7.04790E-29
7.83043E-02 5.81489E-29
8.06647E-02 4.89281E-29
8.30571E-02 4.20886E-29
8.54812E-02 3.70498E-29
8.79369E-02 3.33523E-29
9.04240E-02 3.06357E-29
9.29422E-02 2.86196E-29
9.54915E-02 2.70888E-29
9.80716E-02 2.58804E-29
1.00682E-01 2.48730E-29
1.03323E-01 2.39788E-29
1.05995E-01 2.31356E-29
1.08696E-01 2.23017E-29
1.11427E-01 2.14509E-29
1.14188E-01 2.05687E-29
1.16978E-01 1.96492E-29
1.19797E-01 1.86927E-29
1.22645E-01 1.77040E-29
1.25522E-01 1.66902E-29
1.28428E-01 1.56604E-29
1.31361E-01 1.46243E-29
1.34323E-01 1.35916E-29
1.37313E-01 1.25715E-29
1.40330E-01 1.15725E-29
1.43375E-01 1.06024E-29
1.46447E-01 9.66752E-30
1.49545E-01 8.77333E-30
1.52671E-01 7.92407E-30
1.55823E-01 7.12293E-30
1.59001E-01 6.37210E-30
1.62205E-01 5.67281E-30
1.65435E-01 5.02550E-30
1.68690E-01 4.42986E-30
1.71970E-01 3.88497E-30
1.75276E-01 3.38937E-30
1.78606E-01 2.94121E-30
1.81961E-01 2.53826E-30
1.85340E-01 2.17807E-30
1.88743E-01 1.85800E-30
1.92169E-01 1.57529E-30
1.95619E-01 1.32712E-30
1.99092E-01 1.11069E-30
2.02589E-01 9.23204E-31
2.06107E-01 7.61952E-31
2.09649E-01 6.24318E-31
2.13212E-01 5.07807E-31
2.16797E-01 4.10057E-31
2.20404E-01 3.28858E-31
2.24032E-01 2.62153E-31
2.27680E-01 2.08042E-31
2.31350E-01 1.64789E-31
2.35040E-01 1.30812E-31
2.38751E-01 1.04686E-31
2.42481E-01 8.51327E-32
2.46231E-01 7.10158E-32
2.50000E-01 6.13321E-32
2.53788E-01 5.52035E-32
2.57595E-01 5.18677E-32
2.61421E-01 5.06688E-32
2.65264E-01 5.10483E-32
2.69126E-01 5.25358E-32
2.73005E-01 5.47400E-32
2.76901E-01 5.73402E-32
2.80814E-01 6.00782E-32
2.84744E-01 6.27507E-32
2.88691E-01 6.52018E-32
2.92653E-01 6.73169E-32
2.96632E-01 6.90160E-32
3.00625E-01 7.02488E-32
3.04634E-01 7.09893E-32
3.08658E-01 7.12315E-32
3.12697E-01 7.09853E-32
3.16749E-01 7.02733E-32
3.20816E-01 6.91272E-32
3.24896E-01 6.75860E-32
3.28990E-01 6.56930E-32
3.33097E-01 6.34942E-32
3.37216E-01 6.10367E-32
3.41348E-01 5.83674E-32
3.45492E-01 5.55321E-32
3.49647E-01 5.25744E-32
3.53814E-01 4.95354E-32
3.57992E-01 4.64527E-32
3.62181E-01 4.33610E-32
3.66381E-01 4.02910E-32
3.70590E-01 3.72700E-32
3.74810E-01 3.43215E-32
3.79039E-01 3.14654E-32
3.83277E-01 2.87184E-32
3.87524E-01 2.60938E-32
3.91780E-01 2.36019E-32
3.96044E-01 2.12502E-32
4.00316E-01 1.90437E-32
4.04596E-01 1.69853E-32
4.08882E-01 1.50756E-32
4.13176E-01 1.33136E-32
4.17476E-01 1.16967E-32
4.21783E-01 1.02211E-32
4.26095E-01 8.88195E-33
4.30413E-01 7.67341E-33
4.34737E-01 6.58907E-33
4.39065E-01 5.62201E-33
4.43398E-01 4.76495E-33
4.47736E-01 4.01038E-33
4.52077E-01 3.35074E-33
4.56422E-01 2.77845E-33
4.60770E-01 2.28606E-33
4.65122E-01 1.86629E-33
4.69476E-01 1.51210E-33
4.73832E-01 1.21674E-33
4.78190E-01 9.73815E-34
4.82550E-01 7.77266E-34
4.86912E-01 6.21428E-34
4.91274E-01 5.01027E-34
4.95637E-01 4.11187E-34
5.00000E-01 3.47436E-34
5.04363E-01 3.05692E-34
5.08726E-01 2.82259E-34
5.13088E-01 2.73812E-34
5.17450E-01 2.77382E-34
5.21810E-01 2.90338E-34
5.26168E-01 3.10365E-34
5.30524E-01 3.35449E-34
5.34878E-01 3.63849E-34
5.39230E-01 3.94082E-34
5.43578E-01 4.24896E-34
5.47923E-01 4.55254E-34
5.52264E-01 4.84309E-34
5.56602E-01 5.11386E-34
5.60935E-01 5.35964E-34
5.65263E-01 5.57656E-34
5.69587E-01 5.76195E-34
5.73905E-01 5.91416E-34
5.78217E-01 6.03241E-34
5.82524E-01 6.11668E-34
5.86824E-01 6.16754E-34
5.91118E-01 6.18612E-34
5.95404E-01 6.17392E-34
5.99684E-01 6.13277E-34
6.03956E-01 6.06476E-34
6.08220E-01 5.97213E-34
6.12476E-01 5.85722E-34
6.16723E-01 5.72245E-34
6.20961E-01 5.57025E-34
6.25190E-01 5.40300E-34
6.29410E-01 5.22304E-34
6.33619E-01 5.03262E-34
6.37819E-01 4.83389E-34
6.42008E-01 4.62887E-34
6.46186E-01 4.41946E-34
6.50353E-01 4.20740E-34
6.54508E-01 3.99431E-34
6.58652E-01 3.78163E-34
6.62784E-01 3.57070E-34
6.66903E-01 3.36266E-34
6.71010E-01 3.15856E-34
6.75104E-01 2.95927E-34
6.79184E-01 2.76557E-34
6.83251E-01 2.57809E-34
6.87303E-01 2.39735E-34
6.91342E-01 2.22377E-34
6.95366E-01 2.05768E-34
6.99375E-01 1.89929E-34
7.03368E-01 1.74875E-34
7.07347E-01 1.60615E-34
7.11309E-01 1.47147E-34
7.15256E-01 1.34467E-34
7.19186E-01 1.22564E-34
7.23099E-01 1.11424E-34
7.26995E-01 1.01027E-34
7.30874E-01 9.13527E-35
7.34736E-01 8.23756E-35
7.38579E-01 7.40693E-35
7.42405E-01 6.64056E-35
7.46212E-01 5.93551E-35
7.50000E-01 5.28872E-35
7.53769E-01 4.69715E-35
7.57519E-01 4.15768E-35
7.61249E-01 3.66724E-35
7.64960E-01 3.22276E-35
7.68650E-01 2.82124E-35
7.72320E-01 2.45975E-35
7.75968E-01 2.13545E-35
7.79596E-01 1.84557E-35
7.83203E-01 1.58748E-35
7.86788E-01 1.35863E-35
7.90351E-01 1.15660E-35
7.93893E-01 9.79103E-36
7.97411E-01 8.23959E-36
8.00908E-01 6.89128E-36
8.04381E-01 5.72680E-36
8.07831E-01 4.72812E-36
8.11257E-01 3.87844E-36
8.14660E-01 3.16211E-36
8.18039E-01 2.56469E-36
8.21394E-01 2.07275E-36
8.24724E-01 1.67396E-36
8.28030E-01 1.35702E-36
8.31310E-01 1.11156E-36
8.34565E-01 9.28152E-37
8.37795E-01 7.98210E-37
8.40999E-01 7.13970E-37
8.44177E-01 6.68420E-37
8.47329E-01 6.55270E-37
8.50455E-01 6.68880E-37
8.53553E-01 7.04230E-37
8.56625E-01 7.56871E-37
8.59670E-01 8.22866E-37
8.62687E-01 8.98767E-37
8.65677E-01 9.81570E-37
8.68639E-01 1.06866E-36
8.71572E-01 1.15779E-36
8.74478E-01 1.24706E-36
8.77355E-01 1.33485E-36
8.80203E-01 1.41981E-36
8.83022E-01 1.50085E-36
8.85812E-01 1.57707E-36
8.88573E-01 1.64776E-36
8.91304E-01 1.71242E-36
8.94005E-01 1.77066E-36
8.96677E-01 1.82222E-36
8.99318E-01 1.86695E-36
9.01928E-01 1.90483E-36
9.04508E-01 1.93587E-36
9.07058E-01 1.96021E-36
9.09576E-01 1.97801E-36
9.12063E-01 1.98948E-36
9.14519E-01 1.99486E-36
9.16943E-01 1.99447E-36
9.19335E-01 1.98859E-36
9.21696E-01 1.97756E-36
9.24024E-01 1.96171E-36
9.26320E-01 1.94140E-36
9.28584E-01 1.91695E-36
9.30815E-01 1.88873E-36
9.33013E-01 1.85707E-36
9.35178E-01 1.82232E-36
9.37310E-01 1.78476E-36
9.39409E-01 1.74474E-36
9.41474E-01 1.70256E-36
9.43505E-01 1.65852E-36
9.45503E-01 1.61287E-36
9.47467E-01 1.56589E-36
9.49397E-01 1.51781E-36
9.51293E-01 1.46889E-36
9.53154E-01 1.41932E-36
9.54981E-01 1.36931E-36
9.56773E-01 1.31906E-36
9.58530E-01 1.26872E-36
9.60252E-01 1.21848E-36
9.61940E-01 1.16848E-36
9.63592E-01 1.11882E-36
9.65209E-01 1.06967E-36
9.66790E-01 1.02112E-36
9.68336E-01 9.73277E-37
9.69846E-01 9.26220E-37
9.71321E-01 8.80033E-37
9.72759E-01 8.34793E-37
9.74162E-01 7.90560E-37
9.75528E-01 7.47373E-37
9.76858E-01 7.05300E-37
9.78152E-01 6.64370E-37
9.79410E-01 6.24628E-37
9.80631E-01 5.86090E-37
9.81815E-01 5.48781E-37
9.82963E-01 5.12727E-37
9.84074E-01 4.77921E-37
9.85148E-01 4.44397E-37
9.86185E-01 4.12137E-37
9.87185E-01 3.81172E-37
9.88148E-01 3.51473E-37
9.89074E-01 3.23057E-37
9.89962E-01 2.95913E-37
9.90814E-01 2.70023E-37
9.91627E-01 2.45392E-37
9.92404E-01 2.22014E-37
9.93143E-01 1.99872E-37
9.93844E-01 1.78956E-37
9.94508E-01 1.59252E-37
9.95134E-01 1.40762E-37
9.95722E-01 1.23454E-37
9.96273E-01 1.07334E-37
9.96786E-01 9.23773E-38
9.97261E-01 7.85773E-38
9.97698E-01 6.59250E-38
9.98097E-01 5.44104E-38
9.98459E-01 4.40225E-38
9.98782E-01 3.47531E-38
9.99067E-01 2.65900E-38
9.99315E-01 1.95370E-38
9.99524E-01 1.35773E-38
9.99695E-01 8.70761E-39
9.99829E-01 4.92468E-39
9.99924E-01 2.22635E-39
9.99981E-01 6.09529E-40
1.00000E+00 7.42837E-41
