 #
 # Subroutine ELSEPA. Elastic scattering of electrons and positrons
 #                    by neutral atoms and positive ions
 #
 # Projectile: electron
 # Kinetic energy = 4.50000E+07 eV = 1.65372E+06 a.u.
 #
 # WARNING: High-energy factorization with free-atom DF screening.
 #          Absorption, polarization and exchange corrections are
 #          switched off.
 #          Phase shifts are calculated for the bare nucleus.
 #          Scattering amplitudes are not evaluated.
 #
 # Element: Kr,  Z =  36,  atomic weight = 8.38000E+01 g/mol
 #
 # Nuclear model: Fermi distribution
 #                Average radius = 4.68236E-13 cm
 #                Skin thickness = 5.46000E-14 cm
 #
 # Number of electrons = 36
 #
 # Total elastic cross section = 2.81103E-18 cm**2 = 1.00384E-01 a0**2
 # 1st transport cross section = 1.24324E-24 cm**2 = 4.43969E-08 a0**2
 # 2nd transport cross section = 3.63232E-24 cm**2 = 1.29713E-07 a0**2
 #
 #
 # Differential cross section:                       MU=(1-COS(THETA))/2
 #
 #  THETA        MU          DCS          DCS        Sherman      error
 #  (deg)                 (cm**2/sr)   (a0**2/sr)    function
 #----------------------------------------------------------------------
0.00000E+00 3.69671E-11
7.61557E-13 3.69565E-11
1.18994E-12 3.69506E-11
1.71346E-12 3.69433E-11
2.33225E-12 3.69348E-11
3.04617E-12 3.69250E-11
3.85530E-12 3.69139E-11
4.75964E-12 3.69015E-11
5.75917E-12 3.68878E-11
6.85391E-12 3.68728E-11
8.04379E-12 3.68565E-11
9.32893E-12 3.68389E-11
1.07092E-11 3.68200E-11
1.21847E-11 3.67998E-11
1.37554E-11 3.67784E-11
1.54213E-11 3.67557E-11
1.71823E-11 3.67317E-11
1.90386E-11 3.67064E-11
2.09900E-11 3.66799E-11
2.30367E-11 3.66521E-11
2.51785E-11 3.66231E-11
2.74156E-11 3.65928E-11
2.97478E-11 3.65612E-11
3.21752E-11 3.65285E-11
3.46979E-11 3.64944E-11
3.73157E-11 3.64592E-11
4.00286E-11 3.64227E-11
4.28368E-11 3.63850E-11
4.57402E-11 3.63460E-11
4.87388E-11 3.63059E-11
5.18325E-11 3.62645E-11
5.50215E-11 3.62220E-11
5.83057E-11 3.61782E-11
6.16850E-11 3.61333E-11
6.51595E-11 3.60871E-11
6.87293E-11 3.60399E-11
7.23943E-11 3.59914E-11
7.61544E-11 3.59418E-11
1.18991E-10 3.53813E-11
1.71347E-10 3.47177E-11
2.33223E-10 3.39508E-11
3.04617E-10 3.30966E-11
3.85531E-10 3.21674E-11
4.75965E-10 3.11755E-11
5.75917E-10 3.01335E-11
6.85389E-10 2.90485E-11
8.04380E-10 2.79234E-11
9.32891E-10 2.67807E-11
1.07092E-09 2.56308E-11
1.21847E-09 2.44830E-11
1.37554E-09 2.33451E-11
1.54213E-09 2.22174E-11
1.71823E-09 2.11042E-11
1.90386E-09 2.00203E-11
2.09900E-09 1.89697E-11
2.30367E-09 1.79557E-11
2.51785E-09 1.69805E-11
2.74156E-09 1.60397E-11
2.97478E-09 1.51372E-11
3.21752E-09 1.42781E-11
3.46978E-09 1.34624E-11
3.73156E-09 1.26895E-11
4.00286E-09 1.19583E-11
4.28368E-09 1.12639E-11
4.57402E-09 1.06082E-11
4.87388E-09 9.99155E-12
5.18326E-09 9.41219E-12
5.50215E-09 8.86832E-12
5.83057E-09 8.35813E-12
6.16850E-09 7.87752E-12
6.51596E-09 7.42726E-12
6.87293E-09 7.00600E-12
7.23942E-09 6.61194E-12
7.61544E-09 6.24338E-12
1.18991E-08 3.62144E-12
1.71347E-08 2.26907E-12
2.33223E-08 1.50795E-12
3.04617E-08 1.05563E-12
3.85531E-08 7.67262E-13
4.75965E-08 5.72878E-13
5.75917E-08 4.36066E-13
6.85389E-08 3.36263E-13
8.04380E-08 2.61672E-13
9.32891E-08 2.05903E-13
1.07092E-07 1.63646E-13
1.21847E-07 1.31274E-13
1.37554E-07 1.06242E-13
1.54213E-07 8.66843E-14
1.71823E-07 7.13093E-14
1.90386E-07 5.91655E-14
2.09900E-07 4.94888E-14
2.30367E-07 4.17136E-14
2.51785E-07 3.54162E-14
2.74156E-07 3.02752E-14
2.97478E-07 2.60407E-14
3.21752E-07 2.25342E-14
3.46978E-07 1.96107E-14
3.73156E-07 1.71567E-14
4.00286E-07 1.50834E-14
4.28368E-07 1.33194E-14
4.57402E-07 1.18103E-14
4.87388E-07 1.05124E-14
5.18325E-07 9.39049E-15
5.50215E-07 8.41605E-15
5.83057E-07 7.56598E-15
6.16850E-07 6.82058E-15
6.51596E-07 6.16521E-15
6.87293E-07 5.58710E-15
7.23942E-07 5.07542E-15
7.61543E-07 4.62111E-15
1.18991E-06 1.99876E-15
1.71347E-06 9.93776E-16
2.33223E-06 5.45984E-16
3.04617E-06 3.23851E-16
3.85531E-06 2.04032E-16
4.75964E-06 1.34903E-16
5.75916E-06 9.27702E-17
6.85388E-06 6.59018E-17
8.04378E-06 4.81077E-17
9.32888E-06 3.59405E-17
1.07092E-05 2.73906E-17
1.21846E-05 2.12396E-17
1.37553E-05 1.67225E-17
1.54212E-05 1.33446E-17
1.71822E-05 1.07779E-17
1.90385E-05 8.79822E-18
2.09899E-05 7.25479E-18
2.30365E-05 6.03495E-18
2.51783E-05 5.06044E-18
2.74153E-05 4.27444E-18
2.97475E-05 3.63498E-18
3.21749E-05 3.11064E-18
3.46974E-05 2.67753E-18
3.73152E-05 2.31729E-18
4.00281E-05 2.01569E-18
4.28362E-05 1.76161E-18
4.57395E-05 1.54632E-18
4.87380E-05 1.36288E-18
5.18317E-05 1.20581E-18
5.50205E-05 1.07070E-18
5.83045E-05 9.53970E-19
6.16838E-05 8.52722E-19
6.51582E-05 7.64565E-19
6.87277E-05 6.87522E-19
7.23925E-05 6.19950E-19
7.61524E-05 5.60541E-19
9.21439E-05 3.83414E-19
1.09658E-04 2.71041E-19
1.28695E-04 1.97000E-19
1.49255E-04 1.46601E-19
1.71338E-04 1.11347E-19
1.94942E-04 8.60846E-20
2.20070E-04 6.76015E-20
2.46720E-04 5.38266E-20
2.74892E-04 4.33902E-20
3.04586E-04 3.53674E-20
3.35803E-04 2.91174E-20
3.68542E-04 2.41903E-20
4.02802E-04 2.02637E-20
4.38585E-04 1.71033E-20
4.75889E-04 1.45364E-20
5.14715E-04 1.24340E-20
5.55063E-04 1.06989E-20
5.96931E-04 9.25645E-21
6.40321E-04 8.04947E-21
6.85233E-04 7.03325E-21
7.31665E-04 6.17267E-21
7.79618E-04 5.43999E-21
8.29092E-04 4.81304E-21
8.80086E-04 4.27401E-21
9.32601E-04 3.80849E-21
9.86636E-04 3.40477E-21
1.04219E-03 3.05325E-21
1.09927E-03 2.74603E-21
1.15786E-03 2.47657E-21
1.21797E-03 2.23943E-21
1.27961E-03 2.03007E-21
1.34276E-03 1.84465E-21
1.40743E-03 1.67997E-21
1.47362E-03 1.53331E-21
1.54133E-03 1.40234E-21
1.61056E-03 1.28509E-21
1.68131E-03 1.17987E-21
1.75357E-03 1.08522E-21
1.82735E-03 9.99903E-22
1.90265E-03 9.22824E-22
1.97947E-03 8.53049E-22
2.05780E-03 7.89760E-22
2.13765E-03 7.32249E-22
2.21902E-03 6.79891E-22
2.30190E-03 6.32141E-22
2.38630E-03 5.88521E-22
2.47222E-03 5.48609E-22
2.55965E-03 5.12032E-22
2.64859E-03 4.78461E-22
2.73905E-03 4.47604E-22
2.83103E-03 4.19201E-22
2.92452E-03 3.93022E-22
3.01952E-03 3.68860E-22
3.11604E-03 3.46531E-22
3.21407E-03 3.25872E-22
3.31362E-03 3.06733E-22
3.41468E-03 2.88982E-22
3.51725E-03 2.72501E-22
3.62133E-03 2.57182E-22
3.72692E-03 2.42926E-22
3.83403E-03 2.29647E-22
3.94265E-03 2.17266E-22
4.05278E-03 2.05711E-22
4.16442E-03 1.94916E-22
4.27757E-03 1.84821E-22
4.39223E-03 1.75374E-22
4.50840E-03 1.66524E-22
4.62608E-03 1.58226E-22
4.74527E-03 1.50441E-22
4.86597E-03 1.43130E-22
4.98817E-03 1.36258E-22
5.11188E-03 1.29796E-22
5.23711E-03 1.23713E-22
5.36383E-03 1.17983E-22
5.49207E-03 1.12582E-22
5.62181E-03 1.07487E-22
5.75306E-03 1.02678E-22
5.88581E-03 9.81356E-23
6.02007E-03 9.38424E-23
6.15583E-03 8.97819E-23
6.29310E-03 8.59392E-23
6.43187E-03 8.23005E-23
6.57214E-03 7.88528E-23
6.71392E-03 7.55841E-23
6.85720E-03 7.24834E-23
7.00198E-03 6.95405E-23
7.14827E-03 6.67458E-23
7.29605E-03 6.40904E-23
7.44534E-03 6.15660E-23
7.59612E-03 5.91650E-23
7.97965E-03 5.36562E-23
8.37255E-03 4.87750E-23
8.77480E-03 4.44375E-23
9.18641E-03 4.05725E-23
9.60736E-03 3.71193E-23
1.00376E-02 3.40263E-23
1.04773E-02 3.12494E-23
1.09262E-02 2.87503E-23
1.13844E-02 2.64964E-23
1.18520E-02 2.44593E-23
1.23288E-02 2.26144E-23
1.28150E-02 2.09403E-23
1.33104E-02 1.94184E-23
1.38150E-02 1.80323E-23
1.43290E-02 1.67676E-23
1.48521E-02 1.56119E-23
1.53845E-02 1.45540E-23
1.59262E-02 1.35842E-23
1.64770E-02 1.26938E-23
1.70371E-02 1.18750E-23
1.76063E-02 1.11211E-23
1.81848E-02 1.04261E-23
1.87724E-02 9.78434E-24
1.93692E-02 9.19113E-24
1.99751E-02 8.64210E-24
2.05901E-02 8.13335E-24
2.12143E-02 7.66138E-24
2.18476E-02 7.22304E-24
2.24900E-02 6.81550E-24
2.31415E-02 6.43619E-24
2.38021E-02 6.08279E-24
2.44717E-02 5.75321E-24
2.51504E-02 5.44554E-24
2.58382E-02 5.15806E-24
2.65349E-02 4.88920E-24
2.72407E-02 4.63753E-24
2.79555E-02 4.40175E-24
2.86793E-02 4.18066E-24
2.94120E-02 3.97318E-24
3.01537E-02 3.77833E-24
3.09043E-02 3.59518E-24
3.16639E-02 3.42291E-24
3.24324E-02 3.26074E-24
3.32098E-02 3.10798E-24
3.39961E-02 2.96398E-24
3.47912E-02 2.82815E-24
3.55952E-02 2.69993E-24
3.64081E-02 2.57881E-24
3.72297E-02 2.46434E-24
3.80602E-02 2.35608E-24
3.88995E-02 2.25363E-24
3.97476E-02 2.15662E-24
4.06044E-02 2.06471E-24
4.14700E-02 1.97758E-24
4.23443E-02 1.89493E-24
4.32273E-02 1.81650E-24
4.41190E-02 1.74202E-24
4.50194E-02 1.67127E-24
4.59284E-02 1.60401E-24
4.68461E-02 1.54005E-24
4.87074E-02 1.42127E-24
5.06030E-02 1.31353E-24
5.25328E-02 1.21564E-24
5.44967E-02 1.12653E-24
5.64946E-02 1.04528E-24
5.85262E-02 9.71072E-25
6.05914E-02 9.03198E-25
6.26901E-02 8.41019E-25
6.48222E-02 7.83975E-25
6.69873E-02 7.31568E-25
6.91854E-02 6.83356E-25
7.14163E-02 6.38946E-25
7.36799E-02 5.97986E-25
7.59760E-02 5.60161E-25
7.83043E-02 5.25191E-25
8.06647E-02 4.92824E-25
8.30571E-02 4.62831E-25
8.54812E-02 4.35011E-25
8.79369E-02 4.09177E-25
9.04240E-02 3.85165E-25
9.29422E-02 3.62824E-25
9.54915E-02 3.42018E-25
9.80716E-02 3.22624E-25
1.00682E-01 3.04530E-25
1.03323E-01 2.87634E-25
1.05995E-01 2.71844E-25
1.08696E-01 2.57076E-25
1.11427E-01 2.43251E-25
1.14188E-01 2.30301E-25
1.16978E-01 2.18160E-25
1.19797E-01 2.06770E-25
1.22645E-01 1.96077E-25
1.25522E-01 1.86030E-25
1.28428E-01 1.76586E-25
1.31361E-01 1.67701E-25
1.34323E-01 1.59337E-25
1.37313E-01 1.51459E-25
1.40330E-01 1.44035E-25
1.43375E-01 1.37033E-25
1.46447E-01 1.30426E-25
1.49545E-01 1.24188E-25
1.52671E-01 1.18296E-25
1.55823E-01 1.12727E-25
1.59001E-01 1.07461E-25
1.62205E-01 1.02479E-25
1.65435E-01 9.77625E-26
1.68690E-01 9.32960E-26
1.71970E-01 8.90641E-26
1.75276E-01 8.50525E-26
1.78606E-01 8.12482E-26
1.81961E-01 7.76387E-26
1.85340E-01 7.42126E-26
1.88743E-01 7.09592E-26
1.92169E-01 6.78686E-26
1.95619E-01 6.49314E-26
1.99092E-01 6.21389E-26
2.02589E-01 5.94829E-26
2.06107E-01 5.69558E-26
2.09649E-01 5.45505E-26
2.13212E-01 5.22603E-26
2.16797E-01 5.00789E-26
2.20404E-01 4.80004E-26
2.24032E-01 4.60193E-26
2.27680E-01 4.41304E-26
2.31350E-01 4.23287E-26
2.35040E-01 4.06099E-26
2.38751E-01 3.89694E-26
2.42481E-01 3.74033E-26
2.46231E-01 3.59078E-26
2.50000E-01 3.44792E-26
2.53788E-01 3.31142E-26
2.57595E-01 3.18095E-26
2.61421E-01 3.05622E-26
2.65264E-01 2.93694E-26
2.69126E-01 2.82285E-26
2.73005E-01 2.71368E-26
2.76901E-01 2.60920E-26
2.80814E-01 2.50919E-26
2.84744E-01 2.41342E-26
2.88691E-01 2.32170E-26
2.92653E-01 2.23384E-26
2.96632E-01 2.14965E-26
3.00625E-01 2.06896E-26
3.04634E-01 1.99160E-26
3.08658E-01 1.91744E-26
3.12697E-01 1.84631E-26
3.16749E-01 1.77808E-26
3.20816E-01 1.71262E-26
3.24896E-01 1.64980E-26
3.28990E-01 1.58950E-26
3.33097E-01 1.53162E-26
3.37216E-01 1.47604E-26
3.41348E-01 1.42266E-26
3.45492E-01 1.37138E-26
3.49647E-01 1.32212E-26
3.53814E-01 1.27479E-26
3.57992E-01 1.22930E-26
3.62181E-01 1.18557E-26
3.66381E-01 1.14354E-26
3.70590E-01 1.10311E-26
3.74810E-01 1.06424E-26
3.79039E-01 1.02685E-26
3.83277E-01 9.90873E-27
3.87524E-01 9.56262E-27
3.91780E-01 9.22955E-27
3.96044E-01 8.90899E-27
4.00316E-01 8.60041E-27
4.04596E-01 8.30334E-27
4.08882E-01 8.01729E-27
4.13176E-01 7.74182E-27
4.17476E-01 7.47651E-27
4.21783E-01 7.22095E-27
4.26095E-01 6.97473E-27
4.30413E-01 6.73750E-27
4.34737E-01 6.50890E-27
4.39065E-01 6.28857E-27
4.43398E-01 6.07620E-27
4.47736E-01 5.87148E-27
4.52077E-01 5.67410E-27
4.56422E-01 5.48378E-27
4.60770E-01 5.30024E-27
4.65122E-01 5.12323E-27
4.69476E-01 4.95249E-27
4.73832E-01 4.78779E-27
4.78190E-01 4.62888E-27
4.82550E-01 4.47555E-27
4.86912E-01 4.32759E-27
4.91274E-01 4.18480E-27
4.95637E-01 4.04698E-27
5.00000E-01 3.91395E-27
5.04363E-01 3.78552E-27
5.08726E-01 3.66152E-27
5.13088E-01 3.54180E-27
5.17450E-01 3.42619E-27
5.21810E-01 3.31454E-27
5.26168E-01 3.20670E-27
5.30524E-01 3.10254E-27
5.34878E-01 3.00191E-27
5.39230E-01 2.90471E-27
5.43578E-01 2.81078E-27
5.47923E-01 2.72003E-27
5.52264E-01 2.63233E-27
5.56602E-01 2.54758E-27
5.60935E-01 2.46567E-27
5.65263E-01 2.38649E-27
5.69587E-01 2.30996E-27
5.73905E-01 2.23597E-27
5.78217E-01 2.16444E-27
5.82524E-01 2.09528E-27
5.86824E-01 2.02840E-27
5.91118E-01 1.96373E-27
5.95404E-01 1.90119E-27
5.99684E-01 1.84070E-27
6.03956E-01 1.78220E-27
6.08220E-01 1.72561E-27
6.12476E-01 1.67086E-27
6.16723E-01 1.61790E-27
6.20961E-01 1.56667E-27
6.25190E-01 1.51709E-27
6.29410E-01 1.46912E-27
6.33619E-01 1.42270E-27
6.37819E-01 1.37778E-27
6.42008E-01 1.33430E-27
6.46186E-01 1.29223E-27
6.50353E-01 1.25150E-27
6.54508E-01 1.21207E-27
6.58652E-01 1.17391E-27
6.62784E-01 1.13697E-27
6.66903E-01 1.10120E-27
6.71010E-01 1.06657E-27
6.75104E-01 1.03304E-27
6.79184E-01 1.00057E-27
6.83251E-01 9.69130E-28
6.87303E-01 9.38683E-28
6.91342E-01 9.09197E-28
6.95366E-01 8.80639E-28
6.99375E-01 8.52979E-28
7.03368E-01 8.26187E-28
7.07347E-01 8.00235E-28
7.11309E-01 7.75096E-28
7.15256E-01 7.50742E-28
7.19186E-01 7.27148E-28
7.23099E-01 7.04289E-28
7.26995E-01 6.82141E-28
7.30874E-01 6.60682E-28
7.34736E-01 6.39888E-28
7.38579E-01 6.19739E-28
7.42405E-01 6.00213E-28
7.46212E-01 5.81290E-28
7.50000E-01 5.62951E-28
7.53769E-01 5.45178E-28
7.57519E-01 5.27951E-28
7.61249E-01 5.11254E-28
7.64960E-01 4.95070E-28
7.68650E-01 4.79382E-28
7.72320E-01 4.64174E-28
7.75968E-01 4.49432E-28
7.79596E-01 4.35140E-28
7.83203E-01 4.21284E-28
7.86788E-01 4.07850E-28
7.90351E-01 3.94826E-28
7.93893E-01 3.82197E-28
7.97411E-01 3.69953E-28
8.00908E-01 3.58080E-28
8.04381E-01 3.46567E-28
8.07831E-01 3.35403E-28
8.11257E-01 3.24577E-28
8.14660E-01 3.14078E-28
8.18039E-01 3.03896E-28
8.21394E-01 2.94022E-28
8.24724E-01 2.84445E-28
8.28030E-01 2.75157E-28
8.31310E-01 2.66149E-28
8.34565E-01 2.57411E-28
8.37795E-01 2.48937E-28
8.40999E-01 2.40717E-28
8.44177E-01 2.32744E-28
8.47329E-01 2.25010E-28
8.50455E-01 2.17508E-28
8.53553E-01 2.10231E-28
8.56625E-01 2.03172E-28
8.59670E-01 1.96324E-28
8.62687E-01 1.89681E-28
8.65677E-01 1.83238E-28
8.68639E-01 1.76987E-28
8.71572E-01 1.70923E-28
8.74478E-01 1.65040E-28
8.77355E-01 1.59333E-28
8.80203E-01 1.53797E-28
8.83022E-01 1.48427E-28
8.85812E-01 1.43217E-28
8.88573E-01 1.38163E-28
8.91304E-01 1.33260E-28
8.94005E-01 1.28504E-28
8.96677E-01 1.23891E-28
8.99318E-01 1.19416E-28
9.01928E-01 1.15075E-28
9.04508E-01 1.10864E-28
9.07058E-01 1.06780E-28
9.09576E-01 1.02818E-28
9.12063E-01 9.89759E-29
9.14519E-01 9.52494E-29
9.16943E-01 9.16353E-29
9.19335E-01 8.81305E-29
9.21696E-01 8.47317E-29
9.24024E-01 8.14360E-29
9.26320E-01 7.82405E-29
9.28584E-01 7.51422E-29
9.30815E-01 7.21385E-29
9.33013E-01 6.92267E-29
9.35178E-01 6.64043E-29
9.37310E-01 6.36687E-29
9.39409E-01 6.10175E-29
9.41474E-01 5.84485E-29
9.43505E-01 5.59594E-29
9.45503E-01 5.35480E-29
9.47467E-01 5.12122E-29
9.49397E-01 4.89500E-29
9.51293E-01 4.67594E-29
9.53154E-01 4.46385E-29
9.54981E-01 4.25854E-29
9.56773E-01 4.05985E-29
9.58530E-01 3.86759E-29
9.60252E-01 3.68161E-29
9.61940E-01 3.50174E-29
9.63592E-01 3.32782E-29
9.65209E-01 3.15972E-29
9.66790E-01 2.99728E-29
9.68336E-01 2.84036E-29
9.69846E-01 2.68884E-29
9.71321E-01 2.54258E-29
9.72759E-01 2.40145E-29
9.74162E-01 2.26535E-29
9.75528E-01 2.13415E-29
9.76858E-01 2.00773E-29
9.78152E-01 1.88601E-29
9.79410E-01 1.76886E-29
9.80631E-01 1.65619E-29
9.81815E-01 1.54791E-29
9.82963E-01 1.44393E-29
9.84074E-01 1.34415E-29
9.85148E-01 1.24850E-29
9.86185E-01 1.15689E-29
9.87185E-01 1.06925E-29
9.88148E-01 9.85501E-30
9.89074E-01 9.05575E-30
9.89962E-01 8.29405E-30
9.90814E-01 7.56927E-30
9.91627E-01 6.88081E-30
9.92404E-01 6.22809E-30
9.93143E-01 5.61057E-30
9.93844E-01 5.02773E-30
9.94508E-01 4.47908E-30
9.95134E-01 3.96418E-30
9.95722E-01 3.48260E-30
9.96273E-01 3.03392E-30
9.96786E-01 2.61779E-30
9.97261E-01 2.23384E-30
9.97698E-01 1.88178E-30
9.98097E-01 1.56129E-30
9.98459E-01 1.27213E-30
9.98782E-01 1.01404E-30
9.99067E-01 7.86813E-31
9.99315E-01 5.90264E-31
9.99524E-01 4.24227E-31
9.99695E-01 2.88566E-31
9.99829E-01 1.83169E-31
9.99924E-01 1.07947E-31
9.99981E-01 6.28388E-32
1.00000E+00 4.78070E-32
