 #
 # Subroutine ELSEPA. Elastic scattering of electrons and positrons
 #                    by neutral atoms and positive ions
 #
 # Projectile: electron
 # Kinetic energy = 7.00000E+08 eV = 2.57245E+07 a.u.
 #
 # WARNING: High-energy factorization with free-atom DF screening.
 #          Absorption, polarization and exchange corrections are
 #          switched off.
 #          Phase shifts are calculated for the bare nucleus.
 #          Scattering amplitudes are not evaluated.
 #
 # Element: Kr,  Z =  36,  atomic weight = 8.38000E+01 g/mol
 #
 # Nuclear model: Fermi distribution
 #                Average radius = 4.68236E-13 cm
 #                Skin thickness = 5.46000E-14 cm
 #
 # Number of electrons = 36
 #
 # Total elastic cross section = 2.80798E-18 cm**2 = 1.00275E-01 a0**2
 # 1st transport cross section = 5.32931E-27 cm**2 = 1.90313E-10 a0**2
 # 2nd transport cross section = 1.59844E-26 cm**2 = 5.70814E-10 a0**2
 #
 #
 # Differential cross section:                       MU=(1-COS(THETA))/2
 #
 #  THETA        MU          DCS          DCS        Sherman      error
 #  (deg)                 (cm**2/sr)   (a0**2/sr)    function
 #----------------------------------------------------------------------
0.00000E+00 8.75814E-09
7.61557E-13 8.19775E-09
1.18994E-12 7.90427E-09
1.71346E-12 7.56696E-09
2.33225E-12 7.19630E-09
3.04617E-12 6.79782E-09
3.85530E-12 6.38421E-09
4.75964E-12 5.96588E-09
5.75917E-12 5.54951E-09
6.85391E-12 5.13740E-09
8.04379E-12 4.74026E-09
9.32893E-12 4.36176E-09
1.07092E-11 4.00205E-09
1.21847E-11 3.66372E-09
1.37554E-11 3.34962E-09
1.54213E-11 3.05965E-09
1.71823E-11 2.79098E-09
1.90386E-11 2.54537E-09
2.09900E-11 2.32173E-09
2.30367E-11 2.11814E-09
2.51785E-11 1.93285E-09
2.74156E-11 1.76538E-09
2.97478E-11 1.61415E-09
3.21752E-11 1.47721E-09
3.46979E-11 1.35359E-09
3.73157E-11 1.24217E-09
4.00286E-11 1.14169E-09
4.28368E-11 1.05076E-09
4.57402E-11 9.68723E-10
4.87388E-11 8.92328E-10
5.18325E-11 8.23076E-10
5.50215E-11 7.61409E-10
5.83057E-11 7.06337E-10
6.16850E-11 6.57012E-10
6.51595E-11 6.12714E-10
6.87293E-11 5.72821E-10
7.23943E-11 5.36804E-10
7.61544E-11 5.01634E-10
1.18991E-10 2.77287E-10
1.71347E-10 1.69352E-10
2.33223E-10 1.09798E-10
3.04617E-10 7.34592E-11
3.85531E-10 5.04745E-11
4.75965E-10 3.55159E-11
5.75917E-10 2.55261E-11
6.85389E-10 1.87015E-11
8.04380E-10 1.39855E-11
9.32891E-10 1.06603E-11
1.07092E-09 8.26844E-12
1.21847E-09 6.51715E-12
1.37554E-09 5.21162E-12
1.54213E-09 4.22328E-12
1.71823E-09 3.46254E-12
1.90386E-09 2.86873E-12
2.09900E-09 2.39890E-12
2.30367E-09 2.02246E-12
2.51785E-09 1.71743E-12
2.74156E-09 1.46818E-12
2.97478E-09 1.26277E-12
3.21752E-09 1.09200E-12
3.46978E-09 9.49086E-13
3.73156E-09 8.28733E-13
4.00286E-09 7.26745E-13
4.28368E-09 6.39752E-13
4.57402E-09 5.65287E-13
4.87388E-09 5.00979E-13
5.18326E-09 4.45573E-13
5.50215E-09 3.97811E-13
5.83057E-09 3.56091E-13
6.16850E-09 3.19541E-13
6.51596E-09 2.87658E-13
6.87293E-09 2.59599E-13
7.23942E-09 2.34753E-13
7.61544E-09 2.12860E-13
1.18991E-08 8.91914E-14
1.71347E-08 4.36180E-14
2.33223E-08 2.38021E-14
3.04617E-08 1.40801E-14
3.85531E-08 8.85755E-15
4.75965E-08 5.84847E-15
5.75917E-08 4.01553E-15
6.85389E-08 2.84742E-15
8.04380E-08 2.07460E-15
9.32891E-08 1.54688E-15
1.07092E-07 1.17664E-15
1.21847E-07 9.10735E-16
1.37554E-07 7.15803E-16
1.54213E-07 5.70298E-16
1.71823E-07 4.59923E-16
1.90386E-07 3.74982E-16
2.09900E-07 3.08760E-16
2.30367E-07 2.56521E-16
2.51785E-07 2.14869E-16
2.74156E-07 1.81333E-16
2.97478E-07 1.54088E-16
3.21752E-07 1.31770E-16
3.46978E-07 1.13348E-16
3.73156E-07 9.80339E-17
4.00286E-07 8.52200E-17
4.28368E-07 7.44321E-17
4.57402E-07 6.52978E-17
4.87388E-07 5.75222E-17
5.18325E-07 5.08699E-17
5.50215E-07 4.51518E-17
5.83057E-07 4.02148E-17
6.16850E-07 3.59344E-17
6.51596E-07 3.22084E-17
6.87293E-07 2.89530E-17
7.23942E-07 2.60986E-17
7.61543E-07 2.35874E-17
1.18991E-06 9.66833E-18
1.71347E-06 4.66457E-18
2.33223E-06 2.51858E-18
3.04617E-06 1.47670E-18
3.85531E-06 9.22090E-19
4.75964E-06 6.05097E-19
5.75916E-06 4.13362E-19
6.85388E-06 2.91910E-19
8.04378E-06 2.11968E-19
9.32888E-06 1.57616E-19
1.07092E-05 1.19623E-19
1.21846E-05 9.24202E-20
1.37553E-05 7.25299E-20
1.54212E-05 5.77149E-20
1.71822E-05 4.64974E-20
1.90385E-05 3.78734E-20
2.09899E-05 3.11689E-20
2.30365E-05 2.58838E-20
2.51783E-05 2.16715E-20
2.74153E-05 1.82810E-20
2.97475E-05 1.55278E-20
3.21749E-05 1.32739E-20
3.46974E-05 1.14150E-20
3.73152E-05 9.87098E-21
4.00281E-05 8.57985E-21
4.28362E-05 7.49335E-21
4.57395E-05 6.57357E-21
4.87380E-05 5.79063E-21
5.18317E-05 5.12076E-21
5.50205E-05 4.54494E-21
5.83045E-05 4.04782E-21
6.16838E-05 3.61689E-21
6.51582E-05 3.24188E-21
6.87277E-05 2.91431E-21
7.23925E-05 2.62716E-21
7.61524E-05 2.35251E-21
9.21439E-05 1.60270E-21
1.09658E-04 1.12815E-21
1.28695E-04 8.16206E-22
1.49255E-04 6.04373E-22
1.71338E-04 4.56562E-22
1.94942E-04 3.50917E-22
2.20070E-04 2.73839E-22
2.46720E-04 2.16566E-22
2.74892E-04 1.73312E-22
3.04586E-04 1.40177E-22
3.35803E-04 1.14457E-22
3.68542E-04 9.42624E-23
4.02802E-04 7.82356E-23
4.38585E-04 6.53936E-23
4.75889E-04 5.50131E-23
5.14715E-04 4.65538E-23
5.55063E-04 3.96092E-23
5.96931E-04 3.38687E-23
6.40321E-04 2.90936E-23
6.85233E-04 2.50982E-23
7.31665E-04 2.17368E-23
7.79618E-04 1.88945E-23
8.29092E-04 1.64797E-23
8.80086E-04 1.44191E-23
9.32601E-04 1.26534E-23
9.86636E-04 1.11345E-23
1.04219E-03 9.82315E-24
1.09927E-03 8.68714E-24
1.15786E-03 7.69986E-24
1.21797E-03 6.83921E-24
1.27961E-03 6.08681E-24
1.34276E-03 5.42728E-24
1.40743E-03 4.84766E-24
1.47362E-03 4.33706E-24
1.54133E-03 3.88622E-24
1.61056E-03 3.48730E-24
1.68131E-03 3.13360E-24
1.75357E-03 2.81938E-24
1.82735E-03 2.53973E-24
1.90265E-03 2.29040E-24
1.97947E-03 2.06775E-24
2.05780E-03 1.86861E-24
2.13765E-03 1.69023E-24
2.21902E-03 1.53022E-24
2.30190E-03 1.38651E-24
2.38630E-03 1.25726E-24
2.47222E-03 1.14089E-24
2.55965E-03 1.03598E-24
2.64859E-03 9.41316E-25
2.73905E-03 8.55801E-25
2.83103E-03 7.78478E-25
2.92452E-03 7.08498E-25
3.01952E-03 6.45109E-25
3.11604E-03 5.87643E-25
3.21407E-03 5.35506E-25
3.31362E-03 4.88170E-25
3.41468E-03 4.45163E-25
3.51725E-03 4.06064E-25
3.62133E-03 3.70497E-25
3.72692E-03 3.38123E-25
3.83403E-03 3.08640E-25
3.94265E-03 2.81778E-25
4.05278E-03 2.57291E-25
4.16442E-03 2.34960E-25
4.27757E-03 2.14587E-25
4.39223E-03 1.95994E-25
4.50840E-03 1.79020E-25
4.62608E-03 1.63518E-25
4.74527E-03 1.49358E-25
4.86597E-03 1.36420E-25
4.98817E-03 1.24596E-25
5.11188E-03 1.13788E-25
5.23711E-03 1.03907E-25
5.36383E-03 9.48721E-26
5.49207E-03 8.66105E-26
5.62181E-03 7.90551E-26
5.75306E-03 7.21452E-26
5.88581E-03 6.58254E-26
6.02007E-03 6.00453E-26
6.15583E-03 5.47588E-26
6.29310E-03 4.99241E-26
6.43187E-03 4.55028E-26
6.57214E-03 4.14599E-26
6.71392E-03 3.77635E-26
6.85720E-03 3.43843E-26
7.00198E-03 3.12956E-26
7.14827E-03 2.84731E-26
7.29605E-03 2.58942E-26
7.44534E-03 2.35386E-26
7.59612E-03 2.13874E-26
7.97965E-03 1.67948E-26
8.37255E-03 1.31450E-26
8.77480E-03 1.02518E-26
9.18641E-03 7.96481E-27
9.60736E-03 6.16318E-27
1.00376E-02 4.74931E-27
1.04773E-02 3.64454E-27
1.09262E-02 2.78551E-27
1.13844E-02 2.12120E-27
1.18520E-02 1.61062E-27
1.23288E-02 1.22085E-27
1.28150E-02 9.25547E-28
1.33104E-02 7.03689E-28
1.38150E-02 5.38534E-28
1.43290E-02 4.16817E-28
1.48521E-02 3.28072E-28
1.53845E-02 2.64087E-28
1.59262E-02 2.18462E-28
1.64770E-02 1.86242E-28
1.70371E-02 1.63631E-28
1.76063E-02 1.47745E-28
1.81848E-02 1.36427E-28
1.87724E-02 1.28085E-28
1.93692E-02 1.21571E-28
1.99751E-02 1.16075E-28
2.05901E-02 1.11048E-28
2.12143E-02 1.06137E-28
2.18476E-02 1.01133E-28
2.24900E-02 9.59301E-29
2.31415E-02 9.04978E-29
2.38021E-02 8.48543E-29
2.44717E-02 7.90489E-29
2.51504E-02 7.31484E-29
2.58382E-02 6.72274E-29
2.65349E-02 6.13605E-29
2.72407E-02 5.56181E-29
2.79555E-02 5.00627E-29
2.86793E-02 4.47477E-29
2.94120E-02 3.97158E-29
3.01537E-02 3.49996E-29
3.09043E-02 3.06217E-29
3.16639E-02 2.65953E-29
3.24324E-02 2.29256E-29
3.32098E-02 1.96104E-29
3.39961E-02 1.66416E-29
3.47912E-02 1.40063E-29
3.55952E-02 1.16874E-29
3.64081E-02 9.66522E-30
3.72297E-02 7.91805E-30
3.80602E-02 6.42295E-30
3.88995E-02 5.15644E-30
3.97476E-02 4.09511E-30
4.06044E-02 3.21606E-30
4.14700E-02 2.49728E-30
4.23443E-02 1.91791E-30
4.32273E-02 1.45850E-30
4.41190E-02 1.10108E-30
4.50194E-02 8.29319E-31
4.59284E-02 6.28479E-31
4.68461E-02 4.85463E-31
4.87074E-02 3.28303E-31
5.06030E-02 2.83183E-31
5.25328E-02 2.96451E-31
5.44967E-02 3.31898E-31
5.64946E-02 3.67073E-31
5.85262E-02 3.89844E-31
6.05914E-02 3.95357E-31
6.26901E-02 3.83530E-31
6.48222E-02 3.57077E-31
6.69873E-02 3.20038E-31
6.91854E-02 2.76756E-31
7.14163E-02 2.31224E-31
7.36799E-02 1.86722E-31
7.59760E-02 1.45670E-31
7.83043E-02 1.09624E-31
8.06647E-02 7.93725E-32
8.30571E-02 5.50797E-32
8.54812E-02 3.64428E-32
8.79369E-02 2.28491E-32
9.04240E-02 1.35130E-32
9.29422E-02 7.58686E-33
9.54915E-02 4.24476E-33
9.80716E-02 2.73916E-33
1.00682E-01 2.43426E-33
1.03323E-01 2.82019E-33
1.05995E-01 3.51270E-33
1.08696E-01 4.24292E-33
1.11427E-01 4.84103E-33
1.14188E-01 5.21701E-33
1.16978E-01 5.34114E-33
1.19797E-01 5.22565E-33
1.22645E-01 4.90896E-33
1.25522E-01 4.44274E-33
1.28428E-01 3.88217E-33
1.31361E-01 3.27902E-33
1.34323E-01 2.67741E-33
1.37313E-01 2.11159E-33
1.40330E-01 1.60540E-33
1.43375E-01 1.17286E-33
1.46447E-01 8.19527E-34
1.49545E-01 5.44175E-34
1.52671E-01 3.40668E-34
1.55823E-01 1.99684E-34
1.59001E-01 1.10255E-34
1.62205E-01 6.10134E-35
1.65435E-01 4.11380E-35
1.68690E-01 4.09895E-35
1.71970E-01 5.24860E-35
1.75276E-01 6.92529E-35
1.78606E-01 8.66005E-35
1.81961E-01 1.01380E-34
1.85340E-01 1.11763E-34
1.88743E-01 1.16982E-34
1.92169E-01 1.17065E-34
1.95619E-01 1.12589E-34
1.99092E-01 1.04453E-34
2.02589E-01 9.37064E-35
2.06107E-01 8.14032E-35
2.09649E-01 6.85071E-35
2.13212E-01 5.58288E-35
2.16797E-01 4.39952E-35
2.20404E-01 3.34428E-35
2.24032E-01 2.44288E-35
2.27680E-01 1.70546E-35
2.31350E-01 1.12949E-35
2.35040E-01 7.03052E-36
2.38751E-01 4.07858E-36
2.42481E-01 2.22126E-36
2.46231E-01 1.22902E-36
2.50000E-01 8.79163E-37
2.53788E-01 9.69035E-37
2.57595E-01 1.32453E-36
2.61421E-01 1.80436E-36
2.65264E-01 2.30088E-36
2.69126E-01 2.73843E-36
2.73005E-01 3.06974E-36
2.76901E-01 3.27143E-36
2.80814E-01 3.33894E-36
2.84744E-01 3.28152E-36
2.88691E-01 3.11759E-36
2.92653E-01 2.87076E-36
2.96632E-01 2.56646E-36
3.00625E-01 2.22942E-36
3.04634E-01 1.88194E-36
3.08658E-01 1.54267E-36
3.12697E-01 1.22614E-36
3.16749E-01 9.42583E-37
3.20816E-01 6.98240E-37
3.24896E-01 4.95786E-37
3.28990E-01 3.34964E-37
3.33097E-01 2.13250E-37
3.37216E-01 1.26525E-37
3.41348E-01 6.96916E-38
3.45492E-01 3.72110E-38
3.49647E-01 2.35439E-38
3.53814E-01 2.34845E-38
3.57992E-01 3.23951E-38
3.62181E-01 4.63440E-38
3.66381E-01 6.21700E-38
3.70590E-01 7.74778E-38
3.74810E-01 9.05914E-38
3.79039E-01 1.00470E-37
3.83277E-01 1.06612E-37
3.87524E-01 1.08940E-37
3.91780E-01 1.07702E-37
3.96044E-01 1.03363E-37
4.00316E-01 9.65245E-38
4.04596E-01 8.78453E-38
4.08882E-01 7.79823E-38
4.13176E-01 6.75489E-38
4.17476E-01 5.70786E-38
4.21783E-01 4.70118E-38
4.26095E-01 3.76848E-38
4.30413E-01 2.93329E-38
4.34737E-01 2.20965E-38
4.39065E-01 1.60327E-38
4.43398E-01 1.11303E-38
4.47736E-01 1.00000E-45
4.52077E-01 1.00000E-45
4.56422E-01 1.00000E-45
4.60770E-01 1.00000E-45
4.65122E-01 1.00000E-45
4.69476E-01 1.00000E-45
4.73832E-01 1.00000E-45
4.78190E-01 1.00000E-45
4.82550E-01 1.00000E-45
4.86912E-01 1.00000E-45
4.91274E-01 1.00000E-45
4.95637E-01 1.00000E-45
5.00000E-01 1.00000E-45
5.04363E-01 1.00000E-45
5.08726E-01 1.00000E-45
5.13088E-01 1.00000E-45
5.17450E-01 1.00000E-45
5.21810E-01 1.00000E-45
5.26168E-01 1.00000E-45
5.30524E-01 1.00000E-45
5.34878E-01 1.00000E-45
5.39230E-01 1.00000E-45
5.43578E-01 1.00000E-45
5.47923E-01 1.00000E-45
5.52264E-01 1.00000E-45
5.56602E-01 1.00000E-45
5.60935E-01 1.00000E-45
5.65263E-01 1.00000E-45
5.69587E-01 1.00000E-45
5.73905E-01 1.00000E-45
5.78217E-01 1.00000E-45
5.82524E-01 1.00000E-45
5.86824E-01 1.00000E-45
5.91118E-01 1.00000E-45
5.95404E-01 1.00000E-45
5.99684E-01 1.00000E-45
6.03956E-01 1.00000E-45
6.08220E-01 1.00000E-45
6.12476E-01 1.00000E-45
6.16723E-01 1.00000E-45
6.20961E-01 1.00000E-45
6.25190E-01 1.00000E-45
6.29410E-01 1.00000E-45
6.33619E-01 1.00000E-45
6.37819E-01 1.00000E-45
6.42008E-01 1.00000E-45
6.46186E-01 1.00000E-45
6.50353E-01 1.00000E-45
6.54508E-01 1.00000E-45
6.58652E-01 1.00000E-45
6.62784E-01 1.00000E-45
6.66903E-01 1.00000E-45
6.71010E-01 1.00000E-45
6.75104E-01 1.00000E-45
6.79184E-01 1.00000E-45
6.83251E-01 1.00000E-45
6.87303E-01 1.00000E-45
6.91342E-01 1.00000E-45
6.95366E-01 1.00000E-45
6.99375E-01 1.00000E-45
7.03368E-01 1.00000E-45
7.07347E-01 1.00000E-45
7.11309E-01 1.00000E-45
7.15256E-01 1.00000E-45
7.19186E-01 1.00000E-45
7.23099E-01 1.00000E-45
7.26995E-01 1.00000E-45
7.30874E-01 1.00000E-45
7.34736E-01 1.00000E-45
7.38579E-01 1.00000E-45
7.42405E-01 1.00000E-45
7.46212E-01 1.00000E-45
7.50000E-01 1.00000E-45
7.53769E-01 1.00000E-45
7.57519E-01 1.00000E-45
7.61249E-01 1.00000E-45
7.64960E-01 1.00000E-45
7.68650E-01 1.00000E-45
7.72320E-01 1.00000E-45
7.75968E-01 1.00000E-45
7.79596E-01 1.00000E-45
7.83203E-01 1.00000E-45
7.86788E-01 1.00000E-45
7.90351E-01 1.00000E-45
7.93893E-01 1.00000E-45
7.97411E-01 1.00000E-45
8.00908E-01 1.00000E-45
8.04381E-01 1.00000E-45
8.07831E-01 1.00000E-45
8.11257E-01 1.00000E-45
8.14660E-01 1.00000E-45
8.18039E-01 1.00000E-45
8.21394E-01 1.00000E-45
8.24724E-01 1.00000E-45
8.28030E-01 1.00000E-45
8.31310E-01 1.00000E-45
8.34565E-01 1.00000E-45
8.37795E-01 1.00000E-45
8.40999E-01 1.00000E-45
8.44177E-01 1.00000E-45
8.47329E-01 1.00000E-45
8.50455E-01 1.00000E-45
8.53553E-01 1.00000E-45
8.56625E-01 1.00000E-45
8.59670E-01 1.00000E-45
8.62687E-01 1.00000E-45
8.65677E-01 1.00000E-45
8.68639E-01 1.00000E-45
8.71572E-01 1.00000E-45
8.74478E-01 1.00000E-45
8.77355E-01 1.00000E-45
8.80203E-01 1.00000E-45
8.83022E-01 1.00000E-45
8.85812E-01 1.00000E-45
8.88573E-01 1.00000E-45
8.91304E-01 1.00000E-45
8.94005E-01 1.00000E-45
8.96677E-01 1.00000E-45
8.99318E-01 1.00000E-45
9.01928E-01 1.00000E-45
9.04508E-01 1.00000E-45
9.07058E-01 1.00000E-45
9.09576E-01 1.00000E-45
9.12063E-01 1.00000E-45
9.14519E-01 1.00000E-45
9.16943E-01 1.00000E-45
9.19335E-01 1.00000E-45
9.21696E-01 1.00000E-45
9.24024E-01 1.00000E-45
9.26320E-01 1.00000E-45
9.28584E-01 1.00000E-45
9.30815E-01 1.00000E-45
9.33013E-01 1.00000E-45
9.35178E-01 1.00000E-45
9.37310E-01 1.00000E-45
9.39409E-01 1.00000E-45
9.41474E-01 1.00000E-45
9.43505E-01 1.00000E-45
9.45503E-01 1.00000E-45
9.47467E-01 1.00000E-45
9.49397E-01 1.00000E-45
9.51293E-01 1.00000E-45
9.53154E-01 1.00000E-45
9.54981E-01 1.00000E-45
9.56773E-01 1.00000E-45
9.58530E-01 1.00000E-45
9.60252E-01 1.00000E-45
9.61940E-01 1.00000E-45
9.63592E-01 1.00000E-45
9.65209E-01 1.00000E-45
9.66790E-01 1.00000E-45
9.68336E-01 1.00000E-45
9.69846E-01 1.00000E-45
9.71321E-01 1.00000E-45
9.72759E-01 1.00000E-45
9.74162E-01 1.00000E-45
9.75528E-01 1.00000E-45
9.76858E-01 1.00000E-45
9.78152E-01 1.00000E-45
9.79410E-01 1.00000E-45
9.80631E-01 1.00000E-45
9.81815E-01 1.00000E-45
9.82963E-01 1.00000E-45
9.84074E-01 1.00000E-45
9.85148E-01 1.00000E-45
9.86185E-01 1.00000E-45
9.87185E-01 1.00000E-45
9.88148E-01 1.00000E-45
9.89074E-01 1.00000E-45
9.89962E-01 1.00000E-45
9.90814E-01 1.00000E-45
9.91627E-01 1.00000E-45
9.92404E-01 1.00000E-45
9.93143E-01 1.00000E-45
9.93844E-01 1.00000E-45
9.94508E-01 1.00000E-45
9.95134E-01 1.00000E-45
9.95722E-01 1.00000E-45
9.96273E-01 1.00000E-45
9.96786E-01 1.00000E-45
9.97261E-01 1.00000E-45
9.97698E-01 1.00000E-45
9.98097E-01 1.00000E-45
9.98459E-01 1.00000E-45
9.98782E-01 1.00000E-45
9.99067E-01 1.00000E-45
9.99315E-01 1.00000E-45
9.99524E-01 1.00000E-45
9.99695E-01 1.00000E-45
9.99829E-01 1.00000E-45
9.99924E-01 1.00000E-45
9.99981E-01 1.00000E-45
1.00000E+00 1.00000E-45
