 #
 # Subroutine ELSEPA. Elastic scattering of electrons and positrons
 #                    by neutral atoms and positive ions
 #
 # Projectile: electron
 # Kinetic energy = 1.00000E+08 eV = 3.67493E+06 a.u.
 #
 # WARNING: High-energy factorization with free-atom DF screening.
 #          Absorption, polarization and exchange corrections are
 #          switched off.
 #          Phase shifts are calculated for the bare nucleus.
 #          Scattering amplitudes are not evaluated.
 #
 # Element: Kr,  Z =  36,  atomic weight = 8.38000E+01 g/mol
 #
 # Nuclear model: Fermi distribution
 #                Average radius = 4.68236E-13 cm
 #                Skin thickness = 5.46000E-14 cm
 #
 # Number of electrons = 36
 #
 # Total elastic cross section = 2.80963E-18 cm**2 = 1.00334E-01 a0**2
 # 1st transport cross section = 2.59045E-25 cm**2 = 9.25065E-09 a0**2
 # 2nd transport cross section = 7.70372E-25 cm**2 = 2.75105E-08 a0**2
 #
 #
 # Differential cross section:                       MU=(1-COS(THETA))/2
 #
 #  THETA        MU          DCS          DCS        Sherman      error
 #  (deg)                 (cm**2/sr)   (a0**2/sr)    function
 #----------------------------------------------------------------------
0.00000E+00 1.80306E-10
7.61557E-13 1.80056E-10
1.18994E-12 1.79916E-10
1.71346E-12 1.79745E-10
2.33225E-12 1.79544E-10
3.04617E-12 1.79312E-10
3.85530E-12 1.79050E-10
4.75964E-12 1.78757E-10
5.75917E-12 1.78435E-10
6.85391E-12 1.78083E-10
8.04379E-12 1.77702E-10
9.32893E-12 1.77291E-10
1.07092E-11 1.76852E-10
1.21847E-11 1.76384E-10
1.37554E-11 1.75888E-10
1.54213E-11 1.75364E-10
1.71823E-11 1.74813E-10
1.90386E-11 1.74234E-10
2.09900E-11 1.73629E-10
2.30367E-11 1.72996E-10
2.51785E-11 1.72326E-10
2.74156E-11 1.71637E-10
2.97478E-11 1.70929E-10
3.21752E-11 1.70202E-10
3.46979E-11 1.69459E-10
3.73157E-11 1.68671E-10
4.00286E-11 1.67857E-10
4.28368E-11 1.67028E-10
4.57402E-11 1.66185E-10
4.87388E-11 1.65330E-10
5.18325E-11 1.64451E-10
5.50215E-11 1.63523E-10
5.83057E-11 1.62585E-10
6.16850E-11 1.61638E-10
6.51595E-11 1.60683E-10
6.87293E-11 1.59722E-10
7.23943E-11 1.58706E-10
7.61544E-11 1.57672E-10
1.18991E-10 1.46743E-10
1.71347E-10 1.34842E-10
2.33223E-10 1.22453E-10
3.04617E-10 1.10139E-10
3.85531E-10 9.82836E-11
4.75965E-10 8.71530E-11
5.75917E-10 7.69125E-11
6.85389E-10 6.76382E-11
8.04380E-10 5.93255E-11
9.32891E-10 5.19848E-11
1.07092E-09 4.55529E-11
1.21847E-09 3.99501E-11
1.37554E-09 3.50897E-11
1.54213E-09 3.08837E-11
1.71823E-09 2.72464E-11
1.90386E-09 2.41089E-11
2.09900E-09 2.14013E-11
2.30367E-09 1.90448E-11
2.51785E-09 1.69446E-11
2.74156E-09 1.51666E-11
2.97478E-09 1.36522E-11
3.21752E-09 1.23549E-11
3.46978E-09 1.12375E-11
3.73156E-09 1.02067E-11
4.00286E-09 9.28805E-12
4.28368E-09 8.48839E-12
4.57402E-09 7.78910E-12
4.87388E-09 7.17495E-12
5.18326E-09 6.62249E-12
5.50215E-09 6.10267E-12
5.83057E-09 5.64227E-12
6.16850E-09 5.23304E-12
6.51596E-09 4.86805E-12
6.87293E-09 4.54144E-12
7.23942E-09 4.22685E-12
7.61544E-09 3.93884E-12
1.18991E-08 2.10165E-12
1.71347E-08 1.20265E-12
2.33223E-08 7.20586E-13
3.04617E-08 4.51521E-13
3.85531E-08 2.95075E-13
4.75965E-08 2.00511E-13
5.75917E-08 1.41138E-13
6.85389E-08 1.02403E-13
8.04380E-08 7.62941E-14
9.32891E-08 5.81342E-14
1.07092E-07 4.51380E-14
1.21847E-07 3.56092E-14
1.37554E-07 2.84799E-14
1.54213E-07 2.30526E-14
1.71823E-07 1.88556E-14
1.90386E-07 1.55671E-14
2.09900E-07 1.29596E-14
2.30367E-07 1.08687E-14
2.51785E-07 9.17512E-15
2.74156E-07 7.80656E-15
2.97478E-07 6.67244E-15
3.21752E-07 5.74057E-15
3.46978E-07 4.96144E-15
3.73156E-07 4.31057E-15
4.00286E-07 3.76176E-15
4.28368E-07 3.29718E-15
4.57402E-07 2.90198E-15
4.87388E-07 2.56365E-15
5.18325E-07 2.27347E-15
5.50215E-07 2.02272E-15
5.83057E-07 1.80594E-15
6.16850E-07 1.61706E-15
6.51596E-07 1.45248E-15
6.87293E-07 1.30815E-15
7.23942E-07 1.18143E-15
7.61543E-07 1.06965E-15
1.18991E-06 4.45211E-16
1.71347E-06 2.17367E-16
2.33223E-06 1.18456E-16
3.04617E-06 6.99421E-17
3.85531E-06 4.39058E-17
4.75964E-06 2.89275E-17
5.75916E-06 1.98215E-17
6.85388E-06 1.40304E-17
8.04378E-06 1.02065E-17
9.32888E-06 7.60018E-18
1.07092E-05 5.77468E-18
1.21846E-05 4.46553E-18
1.37553E-05 3.50705E-18
1.54212E-05 2.79237E-18
1.71822E-05 2.25076E-18
1.90385E-05 1.83407E-18
2.09899E-05 1.50992E-18
2.30365E-05 1.25427E-18
2.51783E-05 1.05041E-18
2.74153E-05 8.86266E-19
2.97475E-05 7.52930E-19
3.21749E-05 6.43748E-19
3.46974E-05 5.53675E-19
3.73152E-05 4.78843E-19
4.00281E-05 4.16257E-19
4.28362E-05 3.63580E-19
4.57395E-05 3.18981E-19
4.87380E-05 2.81010E-19
5.18317E-05 2.48520E-19
5.50205E-05 2.20589E-19
5.83045E-05 1.96472E-19
6.16838E-05 1.75565E-19
6.51582E-05 1.57369E-19
6.87277E-05 1.41474E-19
7.23925E-05 1.27539E-19
7.61524E-05 1.15315E-19
9.21439E-05 7.88210E-20
1.09658E-04 5.56913E-20
1.28695E-04 4.04625E-20
1.49255E-04 3.01020E-20
1.71338E-04 2.28578E-20
1.94942E-04 1.76684E-20
2.20070E-04 1.38726E-20
2.46720E-04 1.10443E-20
2.74892E-04 8.90180E-21
3.04586E-04 7.25500E-21
3.35803E-04 5.97225E-21
3.68542E-04 4.96113E-21
4.02802E-04 4.15539E-21
4.38585E-04 3.50691E-21
4.75889E-04 2.98026E-21
5.14715E-04 2.54894E-21
5.55063E-04 2.19297E-21
5.96931E-04 1.89709E-21
6.40321E-04 1.64951E-21
6.85233E-04 1.44107E-21
7.31665E-04 1.26456E-21
7.79618E-04 1.11430E-21
8.29092E-04 9.85722E-22
8.80086E-04 8.75182E-22
9.32601E-04 7.79727E-22
9.86636E-04 6.96948E-22
1.04219E-03 6.24874E-22
1.09927E-03 5.61889E-22
1.15786E-03 5.06651E-22
1.21797E-03 4.58039E-22
1.27961E-03 4.15124E-22
1.34276E-03 3.77123E-22
1.40743E-03 3.43373E-22
1.47362E-03 3.13317E-22
1.54133E-03 2.86480E-22
1.61056E-03 2.62457E-22
1.68131E-03 2.40900E-22
1.75357E-03 2.21512E-22
1.82735E-03 2.04036E-22
1.90265E-03 1.88250E-22
1.97947E-03 1.73961E-22
2.05780E-03 1.61003E-22
2.13765E-03 1.49228E-22
2.21902E-03 1.38510E-22
2.30190E-03 1.28736E-22
2.38630E-03 1.19809E-22
2.47222E-03 1.11642E-22
2.55965E-03 1.04159E-22
2.64859E-03 9.72911E-23
2.73905E-03 9.09797E-23
2.83103E-03 8.51712E-23
2.92452E-03 7.98183E-23
3.01952E-03 7.48787E-23
3.11604E-03 7.03147E-23
3.21407E-03 6.60926E-23
3.31362E-03 6.21819E-23
3.41468E-03 5.85557E-23
3.51725E-03 5.51893E-23
3.62133E-03 5.20608E-23
3.72692E-03 4.91503E-23
3.83403E-03 4.64398E-23
3.94265E-03 4.39130E-23
4.05278E-03 4.15551E-23
4.16442E-03 3.93529E-23
4.27757E-03 3.72941E-23
4.39223E-03 3.53677E-23
4.50840E-03 3.35635E-23
4.62608E-03 3.18725E-23
4.74527E-03 3.02861E-23
4.86597E-03 2.87968E-23
4.98817E-03 2.73974E-23
5.11188E-03 2.60816E-23
5.23711E-03 2.48434E-23
5.36383E-03 2.36775E-23
5.49207E-03 2.25787E-23
5.62181E-03 2.15425E-23
5.75306E-03 2.05648E-23
5.88581E-03 1.96415E-23
6.02007E-03 1.87691E-23
6.15583E-03 1.79442E-23
6.29310E-03 1.71639E-23
6.43187E-03 1.64252E-23
6.57214E-03 1.57255E-23
6.71392E-03 1.50623E-23
6.85720E-03 1.44335E-23
7.00198E-03 1.38368E-23
7.14827E-03 1.32704E-23
7.29605E-03 1.27324E-23
7.44534E-03 1.22211E-23
7.59612E-03 1.17350E-23
7.97965E-03 1.06204E-23
8.37255E-03 9.63375E-24
8.77480E-03 8.75782E-24
9.18641E-03 7.97808E-24
9.60736E-03 7.28216E-24
1.00376E-02 6.65951E-24
1.04773E-02 6.10110E-24
1.09262E-02 5.59915E-24
1.13844E-02 5.14698E-24
1.18520E-02 4.73881E-24
1.23288E-02 4.36961E-24
1.28150E-02 4.03503E-24
1.33104E-02 3.73126E-24
1.38150E-02 3.45497E-24
1.43290E-02 3.20326E-24
1.48521E-02 2.97356E-24
1.53845E-02 2.76361E-24
1.59262E-02 2.57143E-24
1.64770E-02 2.39525E-24
1.70371E-02 2.23352E-24
1.76063E-02 2.08484E-24
1.81848E-02 1.94799E-24
1.87724E-02 1.82186E-24
1.93692E-02 1.70546E-24
1.99751E-02 1.59793E-24
2.05901E-02 1.49847E-24
2.12143E-02 1.40636E-24
2.18476E-02 1.32099E-24
2.24900E-02 1.24176E-24
2.31415E-02 1.16817E-24
2.38021E-02 1.09974E-24
2.44717E-02 1.03606E-24
2.51504E-02 9.76729E-25
2.58382E-02 9.21413E-25
2.65349E-02 8.69792E-25
2.72407E-02 8.21577E-25
2.79555E-02 7.76508E-25
2.86793E-02 7.34344E-25
2.94120E-02 6.94868E-25
3.01537E-02 6.57881E-25
3.09043E-02 6.23199E-25
3.16639E-02 5.90657E-25
3.24324E-02 5.60100E-25
3.32098E-02 5.31388E-25
3.39961E-02 5.04392E-25
3.47912E-02 4.78992E-25
3.55952E-02 4.55080E-25
3.64081E-02 4.32555E-25
3.72297E-02 4.11322E-25
3.80602E-02 3.91297E-25
3.88995E-02 3.72400E-25
3.97476E-02 3.54558E-25
4.06044E-02 3.37702E-25
4.14700E-02 3.21770E-25
4.23443E-02 3.06703E-25
4.32273E-02 2.92447E-25
4.41190E-02 2.78952E-25
4.50194E-02 2.66172E-25
4.59284E-02 2.54061E-25
4.68461E-02 2.42581E-25
4.87074E-02 2.21363E-25
5.06030E-02 2.02246E-25
5.25328E-02 1.84994E-25
5.44967E-02 1.69399E-25
5.64946E-02 1.55281E-25
5.85262E-02 1.42483E-25
6.05914E-02 1.30864E-25
6.26901E-02 1.20302E-25
6.48222E-02 1.10688E-25
6.69873E-02 1.01927E-25
6.91854E-02 9.39334E-26
7.14163E-02 8.66323E-26
7.36799E-02 7.99562E-26
7.59760E-02 7.38455E-26
7.83043E-02 6.82466E-26
8.06647E-02 6.31118E-26
8.30571E-02 5.83984E-26
8.54812E-02 5.40680E-26
8.79369E-02 5.00861E-26
9.04240E-02 4.64216E-26
9.29422E-02 4.30468E-26
9.54915E-02 3.99363E-26
9.80716E-02 3.70673E-26
1.00682E-01 3.44194E-26
1.03323E-01 3.19739E-26
1.05995E-01 2.97138E-26
1.08696E-01 2.76238E-26
1.11427E-01 2.56900E-26
1.14188E-01 2.38997E-26
1.16978E-01 2.22413E-26
1.19797E-01 2.07044E-26
1.22645E-01 1.92793E-26
1.25522E-01 1.79572E-26
1.28428E-01 1.67302E-26
1.31361E-01 1.55909E-26
1.34323E-01 1.45326E-26
1.37313E-01 1.35492E-26
1.40330E-01 1.26349E-26
1.43375E-01 1.17846E-26
1.46447E-01 1.09936E-26
1.49545E-01 1.02575E-26
1.52671E-01 9.57214E-27
1.55823E-01 8.93396E-27
1.59001E-01 8.33949E-27
1.62205E-01 7.78558E-27
1.65435E-01 7.26933E-27
1.68690E-01 6.78806E-27
1.71970E-01 6.33928E-27
1.75276E-01 5.92071E-27
1.78606E-01 5.53023E-27
1.81961E-01 5.16587E-27
1.85340E-01 4.82583E-27
1.88743E-01 4.50843E-27
1.92169E-01 4.21209E-27
1.95619E-01 3.93539E-27
1.99092E-01 3.67698E-27
2.02589E-01 3.43562E-27
2.06107E-01 3.21015E-27
2.09649E-01 2.99950E-27
2.13212E-01 2.80268E-27
2.16797E-01 2.61876E-27
2.20404E-01 2.44687E-27
2.24032E-01 2.28622E-27
2.27680E-01 2.13606E-27
2.31350E-01 1.99570E-27
2.35040E-01 1.86448E-27
2.38751E-01 1.74181E-27
2.42481E-01 1.62713E-27
2.46231E-01 1.51990E-27
2.50000E-01 1.41965E-27
2.53788E-01 1.32592E-27
2.57595E-01 1.23828E-27
2.61421E-01 1.15634E-27
2.65264E-01 1.07973E-27
2.69126E-01 1.00810E-27
2.73005E-01 9.41124E-28
2.76901E-01 8.78508E-28
2.80814E-01 8.19968E-28
2.84744E-01 7.65241E-28
2.88691E-01 7.14081E-28
2.92653E-01 6.66259E-28
2.96632E-01 6.21558E-28
3.00625E-01 5.79779E-28
3.04634E-01 5.40733E-28
3.08658E-01 5.04245E-28
3.12697E-01 4.70149E-28
3.16749E-01 4.38293E-28
3.20816E-01 4.08532E-28
3.24896E-01 3.80731E-28
3.28990E-01 3.54764E-28
3.33097E-01 3.30514E-28
3.37216E-01 3.07869E-28
3.41348E-01 2.86727E-28
3.45492E-01 2.66990E-28
3.49647E-01 2.48568E-28
3.53814E-01 2.31375E-28
3.57992E-01 2.15333E-28
3.62181E-01 2.00367E-28
3.66381E-01 1.86407E-28
3.70590E-01 1.73388E-28
3.74810E-01 1.61249E-28
3.79039E-01 1.49932E-28
3.83277E-01 1.39384E-28
3.87524E-01 1.29555E-28
3.91780E-01 1.20397E-28
3.96044E-01 1.11868E-28
4.00316E-01 1.03925E-28
4.04596E-01 9.65293E-29
4.08882E-01 8.96458E-29
4.13176E-01 8.32403E-29
4.17476E-01 7.72811E-29
4.21783E-01 7.17386E-29
4.26095E-01 6.65850E-29
4.30413E-01 6.17943E-29
4.34737E-01 5.73423E-29
4.39065E-01 5.32062E-29
4.43398E-01 4.93647E-29
4.47736E-01 4.57979E-29
4.52077E-01 4.24871E-29
4.56422E-01 3.94151E-29
4.60770E-01 3.65654E-29
4.65122E-01 3.39228E-29
4.69476E-01 3.14732E-29
4.73832E-01 2.92031E-29
4.78190E-01 2.71001E-29
4.82550E-01 2.51527E-29
4.86912E-01 2.33499E-29
4.91274E-01 2.16816E-29
4.95637E-01 2.01383E-29
5.00000E-01 1.87112E-29
5.04363E-01 1.73920E-29
5.08726E-01 1.61729E-29
5.13088E-01 1.50469E-29
5.17450E-01 1.40072E-29
5.21810E-01 1.30474E-29
5.26168E-01 1.21619E-29
5.30524E-01 1.13451E-29
5.34878E-01 1.05920E-29
5.39230E-01 9.89787E-30
5.43578E-01 9.25828E-30
5.47923E-01 8.66914E-30
5.52264E-01 8.12665E-30
5.56602E-01 7.62727E-30
5.60935E-01 7.16769E-30
5.65263E-01 6.74484E-30
5.69587E-01 6.35589E-30
5.73905E-01 5.99818E-30
5.78217E-01 5.66925E-30
5.82524E-01 5.36683E-30
5.86824E-01 5.08879E-30
5.91118E-01 4.83318E-30
5.95404E-01 4.59816E-30
5.99684E-01 4.38207E-30
6.03956E-01 4.18333E-30
6.08220E-01 4.00051E-30
6.12476E-01 3.83226E-30
6.16723E-01 3.67735E-30
6.20961E-01 3.53465E-30
6.25190E-01 3.40309E-30
6.29410E-01 3.28170E-30
6.33619E-01 3.16959E-30
6.37819E-01 3.06594E-30
6.42008E-01 2.96998E-30
6.46186E-01 2.88101E-30
6.50353E-01 2.79840E-30
6.54508E-01 2.72154E-30
6.58652E-01 2.64990E-30
6.62784E-01 2.58299E-30
6.66903E-01 2.52034E-30
6.71010E-01 2.46155E-30
6.75104E-01 2.40622E-30
6.79184E-01 2.35402E-30
6.83251E-01 2.30463E-30
6.87303E-01 2.25776E-30
6.91342E-01 2.21316E-30
6.95366E-01 2.17057E-30
6.99375E-01 2.12979E-30
7.03368E-01 2.09062E-30
7.07347E-01 2.05288E-30
7.11309E-01 2.01643E-30
7.15256E-01 1.98111E-30
7.19186E-01 1.94680E-30
7.23099E-01 1.91338E-30
7.26995E-01 1.88075E-30
7.30874E-01 1.84883E-30
7.34736E-01 1.81752E-30
7.38579E-01 1.78676E-30
7.42405E-01 1.75649E-30
7.46212E-01 1.72665E-30
7.50000E-01 1.69719E-30
7.53769E-01 1.66808E-30
7.57519E-01 1.63927E-30
7.61249E-01 1.61074E-30
7.64960E-01 1.58247E-30
7.68650E-01 1.55442E-30
7.72320E-01 1.52658E-30
7.75968E-01 1.49895E-30
7.79596E-01 1.47150E-30
7.83203E-01 1.44424E-30
7.86788E-01 1.41714E-30
7.90351E-01 1.39022E-30
7.93893E-01 1.36347E-30
7.97411E-01 1.33688E-30
8.00908E-01 1.31047E-30
8.04381E-01 1.28422E-30
8.07831E-01 1.25815E-30
8.11257E-01 1.23226E-30
8.14660E-01 1.20656E-30
8.18039E-01 1.18104E-30
8.21394E-01 1.15572E-30
8.24724E-01 1.13061E-30
8.28030E-01 1.10570E-30
8.31310E-01 1.08101E-30
8.34565E-01 1.05653E-30
8.37795E-01 1.03229E-30
8.40999E-01 1.00829E-30
8.44177E-01 9.84523E-31
8.47329E-01 9.61009E-31
8.50455E-01 9.37750E-31
8.53553E-01 9.14753E-31
8.56625E-01 8.92024E-31
8.59670E-01 8.69568E-31
8.62687E-01 8.47391E-31
8.65677E-01 8.25498E-31
8.68639E-01 8.03893E-31
8.71572E-01 7.82582E-31
8.74478E-01 7.61568E-31
8.77355E-01 7.40855E-31
8.80203E-01 7.20446E-31
8.83022E-01 7.00345E-31
8.85812E-01 6.80554E-31
8.88573E-01 6.61076E-31
8.91304E-01 6.41914E-31
8.94005E-01 6.23068E-31
8.96677E-01 6.04540E-31
8.99318E-01 5.86332E-31
9.01928E-01 5.68444E-31
9.04508E-01 5.50877E-31
9.07058E-01 5.33631E-31
9.09576E-01 5.16706E-31
9.12063E-01 5.00103E-31
9.14519E-01 4.83820E-31
9.16943E-01 4.67857E-31
9.19335E-01 4.52213E-31
9.21696E-01 4.36887E-31
9.24024E-01 4.21878E-31
9.26320E-01 4.07183E-31
9.28584E-01 3.92802E-31
9.30815E-01 3.78732E-31
9.33013E-01 3.64972E-31
9.35178E-01 3.51519E-31
9.37310E-01 3.38370E-31
9.39409E-01 3.25525E-31
9.41474E-01 3.12979E-31
9.43505E-01 3.00730E-31
9.45503E-01 2.88776E-31
9.47467E-01 2.77114E-31
9.49397E-01 2.65740E-31
9.51293E-01 2.54653E-31
9.53154E-01 2.43848E-31
9.54981E-01 2.33323E-31
9.56773E-01 2.23074E-31
9.58530E-01 2.13099E-31
9.60252E-01 2.03395E-31
9.61940E-01 1.93957E-31
9.63592E-01 1.84783E-31
9.65209E-01 1.75870E-31
9.66790E-01 1.67215E-31
9.68336E-01 1.58813E-31
9.69846E-01 1.50663E-31
9.71321E-01 1.42761E-31
9.72759E-01 1.35103E-31
9.74162E-01 1.27687E-31
9.75528E-01 1.20510E-31
9.76858E-01 1.13568E-31
9.78152E-01 1.06858E-31
9.79410E-01 1.00378E-31
9.80631E-01 9.41253E-32
9.81815E-01 8.80960E-32
9.82963E-01 8.22877E-32
9.84074E-01 7.66977E-32
9.85148E-01 7.13234E-32
9.86185E-01 6.61621E-32
9.87185E-01 6.12113E-32
9.88148E-01 5.64686E-32
9.89074E-01 5.19316E-32
9.89962E-01 4.75980E-32
9.90814E-01 4.34655E-32
9.91627E-01 3.95321E-32
9.92404E-01 3.57957E-32
9.93143E-01 3.22543E-32
9.93844E-01 2.89060E-32
9.94508E-01 2.57491E-32
9.95134E-01 2.27817E-32
9.95722E-01 2.00025E-32
9.96273E-01 1.74097E-32
9.96786E-01 1.50020E-32
9.97261E-01 1.27780E-32
9.97698E-01 1.07366E-32
9.98097E-01 8.87647E-33
9.98459E-01 7.19669E-33
9.98782E-01 5.69629E-33
9.99067E-01 4.37441E-33
9.99315E-01 3.23030E-33
9.99524E-01 2.26331E-33
9.99695E-01 1.47290E-33
9.99829E-01 8.58597E-34
9.99924E-01 4.20061E-34
9.99981E-01 1.57037E-34
1.00000E+00 6.93717E-35
