 #
 # Subroutine ELSEPA. Elastic scattering of electrons and positrons
 #                    by neutral atoms and positive ions
 #
 # Projectile: positron
 # Kinetic energy = 3.00000E+07 eV = 1.10248E+06 a.u.
 #
 # WARNING: High-energy factorization with free-atom DF screening.
 #          Absorption, polarization and exchange corrections are
 #          switched off.
 #          Phase shifts are calculated for the bare nucleus.
 #          Scattering amplitudes are not evaluated.
 #
 # Element: Ar,  Z =  18,  atomic weight = 3.99480E+01 g/mol
 #
 # Nuclear model: Fermi distribution
 #                Average radius = 3.65776E-13 cm
 #                Skin thickness = 5.46000E-14 cm
 #
 # Number of electrons = 18
 #
 # Total elastic cross section = 1.14560E-18 cm**2 = 4.09102E-02 a0**2
 # 1st transport cross section = 6.56512E-25 cm**2 = 2.34445E-08 a0**2
 # 2nd transport cross section = 1.91447E-24 cm**2 = 6.83670E-08 a0**2
 #
 #
 # Differential cross section:                       MU=(1-COS(THETA))/2
 #
 #  THETA        MU          DCS          DCS        Sherman      error
 #  (deg)                 (cm**2/sr)   (a0**2/sr)    function
 #----------------------------------------------------------------------
0.00000E+00 7.43539E-12
7.61557E-13 7.43450E-12
1.18994E-12 7.43401E-12
1.71346E-12 7.43341E-12
2.33225E-12 7.43271E-12
3.04617E-12 7.43191E-12
3.85530E-12 7.43100E-12
4.75964E-12 7.42999E-12
5.75917E-12 7.42886E-12
6.85391E-12 7.42764E-12
8.04379E-12 7.42631E-12
9.32893E-12 7.42487E-12
1.07092E-11 7.42333E-12
1.21847E-11 7.42169E-12
1.37554E-11 7.41994E-12
1.54213E-11 7.41808E-12
1.71823E-11 7.41612E-12
1.90386E-11 7.41405E-12
2.09900E-11 7.41188E-12
2.30367E-11 7.40961E-12
2.51785E-11 7.40724E-12
2.74156E-11 7.40476E-12
2.97478E-11 7.40217E-12
3.21752E-11 7.39948E-12
3.46979E-11 7.39669E-12
3.73157E-11 7.39380E-12
4.00286E-11 7.39080E-12
4.28368E-11 7.38769E-12
4.57402E-11 7.38449E-12
4.87388E-11 7.38119E-12
5.18325E-11 7.37778E-12
5.50215E-11 7.37426E-12
5.83057E-11 7.37065E-12
6.16850E-11 7.36693E-12
6.51595E-11 7.36312E-12
6.87293E-11 7.35920E-12
7.23943E-11 7.35518E-12
7.61544E-11 7.35106E-12
1.18991E-10 7.30436E-12
1.71347E-10 7.24789E-12
2.33223E-10 7.18195E-12
3.04617E-10 7.10688E-12
3.85531E-10 7.02313E-12
4.75965E-10 6.93116E-12
5.75917E-10 6.83146E-12
6.85389E-10 6.72458E-12
8.04380E-10 6.61105E-12
9.32891E-10 6.49140E-12
1.07092E-09 6.36612E-12
1.21847E-09 6.23592E-12
1.37554E-09 6.10137E-12
1.54213E-09 5.96306E-12
1.71823E-09 5.81660E-12
1.90386E-09 5.66271E-12
2.09900E-09 5.51351E-12
2.30367E-09 5.36931E-12
2.51785E-09 5.23036E-12
2.74156E-09 5.07587E-12
2.97478E-09 4.91906E-12
3.21752E-09 4.76936E-12
3.46978E-09 4.62669E-12
3.73156E-09 4.48994E-12
4.00286E-09 4.33314E-12
4.28368E-09 4.18465E-12
4.57402E-09 4.04413E-12
4.87388E-09 3.91121E-12
5.18326E-09 3.77656E-12
5.50215E-09 3.63484E-12
5.83057E-09 3.50131E-12
6.16850E-09 3.37551E-12
6.51596E-09 3.25697E-12
6.87293E-09 3.13174E-12
7.23942E-09 3.00868E-12
7.61544E-09 2.89299E-12
1.18991E-08 1.92920E-12
1.71347E-08 1.27119E-12
2.33223E-08 8.42072E-13
3.04617E-08 5.67114E-13
3.85531E-08 3.91535E-13
4.75965E-08 2.77923E-13
5.75917E-08 2.02942E-13
6.85389E-08 1.52250E-13
8.04380E-08 1.17062E-13
9.32891E-08 9.19815E-14
1.07092E-07 7.36447E-14
1.21847E-07 5.99152E-14
1.37554E-07 4.94064E-14
1.54213E-07 4.12038E-14
1.71823E-07 3.46603E-14
1.90386E-07 2.94095E-14
2.09900E-07 2.51346E-14
2.30367E-07 2.16129E-14
2.51785E-07 1.86716E-14
2.74156E-07 1.62210E-14
2.97478E-07 1.41328E-14
3.21752E-07 1.23802E-14
3.46978E-07 1.08632E-14
3.73156E-07 9.58134E-15
4.00286E-07 8.46134E-15
4.28368E-07 7.50545E-15
4.57402E-07 6.66916E-15
4.87388E-07 5.94689E-15
5.18325E-07 5.31402E-15
5.50215E-07 4.76201E-15
5.83057E-07 4.27730E-15
6.16850E-07 3.85101E-15
6.51596E-07 3.47567E-15
6.87293E-07 3.14327E-15
7.23942E-07 2.84964E-15
7.61543E-07 2.58806E-15
1.18991E-06 1.09729E-15
1.71347E-06 5.41036E-16
2.33223E-06 2.97635E-16
3.04617E-06 1.77467E-16
3.85531E-06 1.12456E-16
4.75964E-06 7.47271E-17
5.75916E-06 5.15853E-17
6.85388E-06 3.67429E-17
8.04378E-06 2.68684E-17
9.32888E-06 2.00931E-17
1.07092E-05 1.53203E-17
1.21846E-05 1.18809E-17
1.37553E-05 9.35236E-18
1.54212E-05 7.46048E-18
1.71822E-05 6.02253E-18
1.90385E-05 4.91427E-18
2.09899E-05 4.04914E-18
2.30365E-05 3.36581E-18
2.51783E-05 2.82039E-18
2.74153E-05 2.38088E-18
2.97475E-05 2.02360E-18
3.21749E-05 1.73081E-18
3.46974E-05 1.48905E-18
3.73152E-05 1.28803E-18
4.00281E-05 1.11978E-18
4.28362E-05 9.78097E-19
4.57395E-05 8.58098E-19
4.87380E-05 7.55924E-19
5.18317E-05 6.68494E-19
5.50205E-05 5.93332E-19
5.83045E-05 5.28434E-19
6.16838E-05 4.72167E-19
6.51582E-05 4.23190E-19
6.87277E-05 3.80399E-19
7.23925E-05 3.42879E-19
7.61524E-05 3.09866E-19
9.21439E-05 2.11649E-19
1.09658E-04 1.49427E-19
1.28695E-04 1.08472E-19
1.49255E-04 8.06290E-20
1.71338E-04 6.11704E-20
1.94942E-04 4.72402E-20
2.20070E-04 3.70558E-20
2.46720E-04 2.94726E-20
2.74892E-04 2.37329E-20
3.04586E-04 1.93242E-20
3.35803E-04 1.58928E-20
3.68542E-04 1.31900E-20
4.02802E-04 1.10377E-20
4.38585E-04 9.30684E-21
4.75889E-04 7.90211E-21
5.14715E-04 6.75251E-21
5.55063E-04 5.80443E-21
5.96931E-04 5.01693E-21
6.40321E-04 4.35847E-21
6.85233E-04 3.80449E-21
7.31665E-04 3.33572E-21
7.79618E-04 2.93692E-21
8.29092E-04 2.59592E-21
8.80086E-04 2.30296E-21
9.32601E-04 2.05014E-21
9.86636E-04 1.83106E-21
1.04219E-03 1.64044E-21
1.09927E-03 1.47396E-21
1.15786E-03 1.32806E-21
1.21797E-03 1.19975E-21
1.27961E-03 1.08655E-21
1.34276E-03 9.86372E-22
1.40743E-03 8.97466E-22
1.47362E-03 8.18343E-22
1.54133E-03 7.47738E-22
1.61056E-03 6.84577E-22
1.68131E-03 6.27936E-22
1.75357E-03 5.77026E-22
1.82735E-03 5.31165E-22
1.90265E-03 4.89764E-22
1.97947E-03 4.52313E-22
2.05780E-03 4.18369E-22
2.13765E-03 3.87545E-22
2.21902E-03 3.59503E-22
2.30190E-03 3.33949E-22
2.38630E-03 3.10621E-22
2.47222E-03 2.89291E-22
2.55965E-03 2.69759E-22
2.64859E-03 2.51844E-22
2.73905E-03 2.35389E-22
2.83103E-03 2.20254E-22
2.92452E-03 2.06313E-22
3.01952E-03 1.93456E-22
3.11604E-03 1.81584E-22
3.21407E-03 1.70606E-22
3.31362E-03 1.60444E-22
3.41468E-03 1.51025E-22
3.51725E-03 1.42287E-22
3.62133E-03 1.34170E-22
3.72692E-03 1.26622E-22
3.83403E-03 1.19596E-22
3.94265E-03 1.13050E-22
4.05278E-03 1.06945E-22
4.16442E-03 1.01245E-22
4.27757E-03 9.59189E-23
4.39223E-03 9.09378E-23
4.50840E-03 8.62750E-23
4.62608E-03 8.19065E-23
4.74527E-03 7.78103E-23
4.86597E-03 7.39663E-23
4.98817E-03 7.03562E-23
5.11188E-03 6.69631E-23
5.23711E-03 6.37715E-23
5.36383E-03 6.07672E-23
5.49207E-03 5.79374E-23
5.62181E-03 5.52698E-23
5.75306E-03 5.27536E-23
5.88581E-03 5.03786E-23
6.02007E-03 4.81353E-23
6.15583E-03 4.60151E-23
6.29310E-03 4.40100E-23
6.43187E-03 4.21126E-23
6.57214E-03 4.03160E-23
6.71392E-03 3.86140E-23
6.85720E-03 3.70005E-23
7.00198E-03 3.54701E-23
7.14827E-03 3.40178E-23
7.29605E-03 3.26388E-23
7.44534E-03 3.13287E-23
7.59612E-03 3.00835E-23
7.97965E-03 2.72298E-23
8.37255E-03 2.47054E-23
8.77480E-03 2.24660E-23
9.18641E-03 2.04737E-23
9.60736E-03 1.86966E-23
1.00376E-02 1.71075E-23
1.04773E-02 1.56830E-23
1.09262E-02 1.44032E-23
1.13844E-02 1.32508E-23
1.18520E-02 1.22108E-23
1.23288E-02 1.12705E-23
1.28150E-02 1.04186E-23
1.33104E-02 9.64525E-24
1.38150E-02 8.94204E-24
1.43290E-02 8.30145E-24
1.48521E-02 7.71692E-24
1.53845E-02 7.18269E-24
1.59262E-02 6.69366E-24
1.64770E-02 6.24532E-24
1.70371E-02 5.83369E-24
1.76063E-02 5.45524E-24
1.81848E-02 5.10681E-24
1.87724E-02 4.78559E-24
1.93692E-02 4.48908E-24
1.99751E-02 4.21505E-24
2.05901E-02 3.96148E-24
2.12143E-02 3.72657E-24
2.18476E-02 3.50871E-24
2.24900E-02 3.30643E-24
2.31415E-02 3.11842E-24
2.38021E-02 2.94349E-24
2.44717E-02 2.78057E-24
2.51504E-02 2.62868E-24
2.58382E-02 2.48695E-24
2.65349E-02 2.35457E-24
2.72407E-02 2.23082E-24
2.79555E-02 2.11503E-24
2.86793E-02 2.00659E-24
2.94120E-02 1.90496E-24
3.01537E-02 1.80963E-24
3.09043E-02 1.72013E-24
3.16639E-02 1.63606E-24
3.24324E-02 1.55701E-24
3.32098E-02 1.48264E-24
3.39961E-02 1.41261E-24
3.47912E-02 1.34664E-24
3.55952E-02 1.28443E-24
3.64081E-02 1.22574E-24
3.72297E-02 1.17033E-24
3.80602E-02 1.11799E-24
3.88995E-02 1.06851E-24
3.97476E-02 1.02171E-24
4.06044E-02 9.77420E-25
4.14700E-02 9.35477E-25
4.23443E-02 8.95736E-25
4.32273E-02 8.58059E-25
4.41190E-02 8.22321E-25
4.50194E-02 7.88404E-25
4.59284E-02 7.56197E-25
4.68461E-02 7.25599E-25
4.87074E-02 6.68856E-25
5.06030E-02 6.17489E-25
5.25328E-02 5.70902E-25
5.44967E-02 5.28573E-25
5.64946E-02 4.90046E-25
5.85262E-02 4.54920E-25
6.05914E-02 4.22844E-25
6.26901E-02 3.93508E-25
6.48222E-02 3.66636E-25
6.69873E-02 3.41986E-25
6.91854E-02 3.19342E-25
7.14163E-02 2.98513E-25
7.36799E-02 2.79328E-25
7.59760E-02 2.61635E-25
7.83043E-02 2.45298E-25
8.06647E-02 2.30195E-25
8.30571E-02 2.16216E-25
8.54812E-02 2.03263E-25
8.79369E-02 1.91248E-25
9.04240E-02 1.80092E-25
9.29422E-02 1.69721E-25
9.54915E-02 1.60071E-25
9.80716E-02 1.51084E-25
1.00682E-01 1.42706E-25
1.03323E-01 1.34888E-25
1.05995E-01 1.27587E-25
1.08696E-01 1.20763E-25
1.11427E-01 1.14378E-25
1.14188E-01 1.08400E-25
1.16978E-01 1.02798E-25
1.19797E-01 9.75447E-26
1.22645E-01 9.26144E-26
1.25522E-01 8.79840E-26
1.28428E-01 8.36319E-26
1.31361E-01 7.95385E-26
1.34323E-01 7.56859E-26
1.37313E-01 7.20573E-26
1.40330E-01 6.86375E-26
1.43375E-01 6.54125E-26
1.46447E-01 6.23692E-26
1.49545E-01 5.94956E-26
1.52671E-01 5.67806E-26
1.55823E-01 5.42139E-26
1.59001E-01 5.17862E-26
1.62205E-01 4.94884E-26
1.65435E-01 4.73126E-26
1.68690E-01 4.52511E-26
1.71970E-01 4.32968E-26
1.75276E-01 4.14433E-26
1.78606E-01 3.96845E-26
1.81961E-01 3.80147E-26
1.85340E-01 3.64285E-26
1.88743E-01 3.49212E-26
1.92169E-01 3.34882E-26
1.95619E-01 3.21251E-26
1.99092E-01 3.08279E-26
2.02589E-01 2.95930E-26
2.06107E-01 2.84168E-26
2.09649E-01 2.72960E-26
2.13212E-01 2.62277E-26
2.16797E-01 2.52090E-26
2.20404E-01 2.42370E-26
2.24032E-01 2.33095E-26
2.27680E-01 2.24239E-26
2.31350E-01 2.15780E-26
2.35040E-01 2.07699E-26
2.38751E-01 1.99974E-26
2.42481E-01 1.92589E-26
2.46231E-01 1.85525E-26
2.50000E-01 1.78766E-26
2.53788E-01 1.72296E-26
2.57595E-01 1.66102E-26
2.61421E-01 1.60169E-26
2.65264E-01 1.54486E-26
2.69126E-01 1.49038E-26
2.73005E-01 1.43816E-26
2.76901E-01 1.38808E-26
2.80814E-01 1.34005E-26
2.84744E-01 1.29395E-26
2.88691E-01 1.24971E-26
2.92653E-01 1.20723E-26
2.96632E-01 1.16644E-26
3.00625E-01 1.12725E-26
3.04634E-01 1.08959E-26
3.08658E-01 1.05340E-26
3.12697E-01 1.01861E-26
3.16749E-01 9.85144E-27
3.20816E-01 9.52957E-27
3.24896E-01 9.21989E-27
3.28990E-01 8.92185E-27
3.33097E-01 8.63496E-27
3.37216E-01 8.35873E-27
3.41348E-01 8.09269E-27
3.45492E-01 7.83641E-27
3.49647E-01 7.58949E-27
3.53814E-01 7.35151E-27
3.57992E-01 7.12211E-27
3.62181E-01 6.90093E-27
3.66381E-01 6.68763E-27
3.70590E-01 6.48188E-27
3.74810E-01 6.28338E-27
3.79039E-01 6.09183E-27
3.83277E-01 5.90694E-27
3.87524E-01 5.72845E-27
3.91780E-01 5.55611E-27
3.96044E-01 5.38967E-27
4.00316E-01 5.22889E-27
4.04596E-01 5.07356E-27
4.08882E-01 4.92346E-27
4.13176E-01 4.77839E-27
4.17476E-01 4.63815E-27
4.21783E-01 4.50256E-27
4.26095E-01 4.37144E-27
4.30413E-01 4.24463E-27
4.34737E-01 4.12195E-27
4.39065E-01 4.00326E-27
4.43398E-01 3.88840E-27
4.47736E-01 3.77724E-27
4.52077E-01 3.66963E-27
4.56422E-01 3.56544E-27
4.60770E-01 3.46456E-27
4.65122E-01 3.36686E-27
4.69476E-01 3.27222E-27
4.73832E-01 3.18054E-27
4.78190E-01 3.09171E-27
4.82550E-01 3.00563E-27
4.86912E-01 2.92219E-27
4.91274E-01 2.84132E-27
4.95637E-01 2.76291E-27
5.00000E-01 2.68688E-27
5.04363E-01 2.61315E-27
5.08726E-01 2.54164E-27
5.13088E-01 2.47228E-27
5.17450E-01 2.40498E-27
5.21810E-01 2.33968E-27
5.26168E-01 2.27632E-27
5.30524E-01 2.21482E-27
5.34878E-01 2.15512E-27
5.39230E-01 2.09717E-27
5.43578E-01 2.04090E-27
5.47923E-01 1.98627E-27
5.52264E-01 1.93321E-27
5.56602E-01 1.88167E-27
5.60935E-01 1.83161E-27
5.65263E-01 1.78298E-27
5.69587E-01 1.73572E-27
5.73905E-01 1.68980E-27
5.78217E-01 1.64518E-27
5.82524E-01 1.60181E-27
5.86824E-01 1.55965E-27
5.91118E-01 1.51866E-27
5.95404E-01 1.47881E-27
5.99684E-01 1.44006E-27
6.03956E-01 1.40238E-27
6.08220E-01 1.36574E-27
6.12476E-01 1.33009E-27
6.16723E-01 1.29542E-27
6.20961E-01 1.26168E-27
6.25190E-01 1.22886E-27
6.29410E-01 1.19693E-27
6.33619E-01 1.16585E-27
6.37819E-01 1.13560E-27
6.42008E-01 1.10616E-27
6.46186E-01 1.07751E-27
6.50353E-01 1.04961E-27
6.54508E-01 1.02245E-27
6.58652E-01 9.96004E-28
6.62784E-01 9.70253E-28
6.66903E-01 9.45175E-28
6.71010E-01 9.20752E-28
6.75104E-01 8.96963E-28
6.79184E-01 8.73791E-28
6.83251E-01 8.51218E-28
6.87303E-01 8.29226E-28
6.91342E-01 8.07800E-28
6.95366E-01 7.86922E-28
6.99375E-01 7.66577E-28
7.03368E-01 7.46750E-28
7.07347E-01 7.27427E-28
7.11309E-01 7.08593E-28
7.15256E-01 6.90235E-28
7.19186E-01 6.72339E-28
7.23099E-01 6.54893E-28
7.26995E-01 6.37884E-28
7.30874E-01 6.21300E-28
7.34736E-01 6.05129E-28
7.38579E-01 5.89361E-28
7.42405E-01 5.73983E-28
7.46212E-01 5.58987E-28
7.50000E-01 5.44360E-28
7.53769E-01 5.30094E-28
7.57519E-01 5.16178E-28
7.61249E-01 5.02604E-28
7.64960E-01 4.89362E-28
7.68650E-01 4.76443E-28
7.72320E-01 4.63839E-28
7.75968E-01 4.51541E-28
7.79596E-01 4.39542E-28
7.83203E-01 4.27833E-28
7.86788E-01 4.16408E-28
7.90351E-01 4.05259E-28
7.93893E-01 3.94378E-28
7.97411E-01 3.83759E-28
8.00908E-01 3.73395E-28
8.04381E-01 3.63279E-28
8.07831E-01 3.53406E-28
8.11257E-01 3.43769E-28
8.14660E-01 3.34361E-28
8.18039E-01 3.25179E-28
8.21394E-01 3.16215E-28
8.24724E-01 3.07464E-28
8.28030E-01 2.98921E-28
8.31310E-01 2.90581E-28
8.34565E-01 2.82439E-28
8.37795E-01 2.74490E-28
8.40999E-01 2.66730E-28
8.44177E-01 2.59153E-28
8.47329E-01 2.51755E-28
8.50455E-01 2.44532E-28
8.53553E-01 2.37481E-28
8.56625E-01 2.30595E-28
8.59670E-01 2.23873E-28
8.62687E-01 2.17309E-28
8.65677E-01 2.10901E-28
8.68639E-01 2.04644E-28
8.71572E-01 1.98535E-28
8.74478E-01 1.92570E-28
8.77355E-01 1.86747E-28
8.80203E-01 1.81061E-28
8.83022E-01 1.75511E-28
8.85812E-01 1.70092E-28
8.88573E-01 1.64802E-28
8.91304E-01 1.59638E-28
8.94005E-01 1.54596E-28
8.96677E-01 1.49676E-28
8.99318E-01 1.44872E-28
9.01928E-01 1.40184E-28
9.04508E-01 1.35608E-28
9.07058E-01 1.31143E-28
9.09576E-01 1.26785E-28
9.12063E-01 1.22532E-28
9.14519E-01 1.18383E-28
9.16943E-01 1.14335E-28
9.19335E-01 1.10385E-28
9.21696E-01 1.06532E-28
9.24024E-01 1.02774E-28
9.26320E-01 9.91094E-29
9.28584E-01 9.55352E-29
9.30815E-01 9.20502E-29
9.33013E-01 8.86524E-29
9.35178E-01 8.53403E-29
9.37310E-01 8.21120E-29
9.39409E-01 7.89660E-29
9.41474E-01 7.59007E-29
9.43505E-01 7.29144E-29
9.45503E-01 7.00058E-29
9.47467E-01 6.71733E-29
9.49397E-01 6.44156E-29
9.51293E-01 6.17312E-29
9.53154E-01 5.91189E-29
9.54981E-01 5.65772E-29
9.56773E-01 5.41051E-29
9.58530E-01 5.17012E-29
9.60252E-01 4.93644E-29
9.61940E-01 4.70935E-29
9.63592E-01 4.48875E-29
9.65209E-01 4.27452E-29
9.66790E-01 4.06656E-29
9.68336E-01 3.86477E-29
9.69846E-01 3.66905E-29
9.71321E-01 3.47931E-29
9.72759E-01 3.29546E-29
9.74162E-01 3.11740E-29
9.75528E-01 2.94506E-29
9.76858E-01 2.77835E-29
9.78152E-01 2.61719E-29
9.79410E-01 2.46150E-29
9.80631E-01 2.31121E-29
9.81815E-01 2.16625E-29
9.82963E-01 2.02655E-29
9.84074E-01 1.89204E-29
9.85148E-01 1.76266E-29
9.86185E-01 1.63835E-29
9.87185E-01 1.51906E-29
9.88148E-01 1.40471E-29
9.89074E-01 1.29527E-29
9.89962E-01 1.19068E-29
9.90814E-01 1.09089E-29
9.91627E-01 9.95854E-30
9.92404E-01 9.05528E-30
9.93143E-01 8.19869E-30
9.93844E-01 7.38839E-30
9.94508E-01 6.62399E-30
9.95134E-01 5.90513E-30
9.95722E-01 5.23150E-30
9.96273E-01 4.60276E-30
9.96786E-01 4.01865E-30
9.97261E-01 3.47887E-30
9.97698E-01 2.98318E-30
9.98097E-01 2.53136E-30
9.98459E-01 2.12320E-30
9.98782E-01 1.75851E-30
9.99067E-01 1.43711E-30
9.99315E-01 1.15886E-30
9.99524E-01 9.23642E-31
9.99695E-01 7.31337E-31
9.99829E-01 5.81857E-31
9.99924E-01 4.75133E-31
9.99981E-01 4.11119E-31
1.00000E+00 3.89795E-31
