 #
 # Subroutine ELSEPA. Elastic scattering of electrons and positrons
 #                    by neutral atoms and positive ions
 #
 # Projectile: positron
 # Kinetic energy = 2.00000E+08 eV = 7.34987E+06 a.u.
 #
 # WARNING: High-energy factorization with free-atom DF screening.
 #          Absorption, polarization and exchange corrections are
 #          switched off.
 #          Phase shifts are calculated for the bare nucleus.
 #          Scattering amplitudes are not evaluated.
 #
 # Element: Ar,  Z =  18,  atomic weight = 3.99480E+01 g/mol
 #
 # Nuclear model: Fermi distribution
 #                Average radius = 3.65776E-13 cm
 #                Skin thickness = 5.46000E-14 cm
 #
 # Number of electrons = 18
 #
 # Total elastic cross section = 1.14557E-18 cm**2 = 4.09092E-02 a0**2
 # 1st transport cross section = 1.70129E-26 cm**2 = 6.07541E-10 a0**2
 # 2nd transport cross section = 5.08649E-26 cm**2 = 1.81642E-09 a0**2
 #
 #
 # Differential cross section:                       MU=(1-COS(THETA))/2
 #
 #  THETA        MU          DCS          DCS        Sherman      error
 #  (deg)                 (cm**2/sr)   (a0**2/sr)    function
 #----------------------------------------------------------------------
0.00000E+00 3.21120E-10
7.61557E-13 3.19535E-10
1.18994E-12 3.18653E-10
1.71346E-12 3.17580E-10
2.33225E-12 3.16319E-10
3.04617E-12 3.14873E-10
3.85530E-12 3.13245E-10
4.75964E-12 3.11442E-10
5.75917E-12 3.09463E-10
6.85391E-12 3.07319E-10
8.04379E-12 3.05010E-10
9.32893E-12 3.02544E-10
1.07092E-11 2.99928E-10
1.21847E-11 2.97163E-10
1.37554E-11 2.94264E-10
1.54213E-11 2.91225E-10
1.71823E-11 2.88065E-10
1.90386E-11 2.84784E-10
2.09900E-11 2.81389E-10
2.30367E-11 2.77896E-10
2.51785E-11 2.74293E-10
2.74156E-11 2.70608E-10
2.97478E-11 2.66835E-10
3.21752E-11 2.62985E-10
3.46979E-11 2.59071E-10
3.73157E-11 2.55085E-10
4.00286E-11 2.50802E-10
4.28368E-11 2.46420E-10
4.57402E-11 2.42122E-10
4.87388E-11 2.37915E-10
5.18325E-11 2.33802E-10
5.50215E-11 2.29785E-10
5.83057E-11 2.25867E-10
6.16850E-11 2.21583E-10
6.51595E-11 2.17028E-10
6.87293E-11 2.12606E-10
7.23943E-11 2.08318E-10
7.61544E-11 2.04161E-10
1.18991E-10 1.63971E-10
1.71347E-10 1.27726E-10
2.33223E-10 9.83290E-11
3.04617E-10 7.48327E-11
3.85531E-10 5.68356E-11
4.75965E-10 4.32957E-11
5.75917E-10 3.31182E-11
6.85389E-10 2.55841E-11
8.04380E-10 1.99514E-11
9.32891E-10 1.57456E-11
1.07092E-09 1.25777E-11
1.21847E-09 1.01697E-11
1.37554E-09 8.32382E-12
1.54213E-09 6.89116E-12
1.71823E-09 5.76755E-12
1.90386E-09 4.87575E-12
2.09900E-09 4.15987E-12
2.30367E-09 3.57909E-12
2.51785E-09 3.10250E-12
2.74156E-09 2.70786E-12
2.97478E-09 2.37764E-12
3.21752E-09 2.09897E-12
3.46978E-09 1.86199E-12
3.73156E-09 1.65864E-12
4.00286E-09 1.48178E-12
4.28368E-09 1.32907E-12
4.57402E-09 1.19771E-12
4.87388E-09 1.08020E-12
5.18326E-09 9.77364E-13
5.50215E-09 8.87782E-13
5.83057E-09 8.06021E-13
6.16850E-09 7.34208E-13
6.51596E-09 6.70680E-13
6.87293E-09 6.12461E-13
7.23942E-09 5.60946E-13
7.61544E-09 5.14709E-13
1.18991E-08 2.33060E-13
1.71347E-08 1.18017E-13
2.33223E-08 6.53875E-14
3.04617E-08 3.90055E-14
3.85531E-08 2.47001E-14
4.75965E-08 1.64158E-14
5.75917E-08 1.13477E-14
6.85389E-08 8.10216E-15
8.04380E-08 5.94309E-15
9.32891E-08 4.45981E-15
1.07092E-07 3.41270E-15
1.21847E-07 2.65590E-15
1.37554E-07 2.09778E-15
1.54213E-07 1.67873E-15
1.71823E-07 1.35916E-15
1.90386E-07 1.11199E-15
2.09900E-07 9.18430E-16
2.30367E-07 7.65103E-16
2.51785E-07 6.42400E-16
2.74156E-07 5.43271E-16
2.97478E-07 4.62496E-16
3.21752E-07 3.96151E-16
3.46978E-07 3.41256E-16
3.73156E-07 2.95524E-16
4.00286E-07 2.57183E-16
4.28368E-07 2.24847E-16
4.57402E-07 1.97427E-16
4.87388E-07 1.74053E-16
5.18325E-07 1.54030E-16
5.50215E-07 1.36801E-16
5.83057E-07 1.21909E-16
6.16850E-07 1.08987E-16
6.51596E-07 9.77289E-17
6.87293E-07 8.78856E-17
7.23942E-07 7.92491E-17
7.61543E-07 7.16461E-17
1.18991E-06 2.94215E-17
1.71347E-06 1.42039E-17
2.33223E-06 7.67073E-18
3.04617E-06 4.49752E-18
3.85531E-06 2.80809E-18
4.75964E-06 1.84241E-18
5.75916E-06 1.25830E-18
6.85388E-06 8.88370E-19
8.04378E-06 6.44927E-19
9.32888E-06 4.79443E-19
1.07092E-05 3.63788E-19
1.21846E-05 2.80995E-19
1.37553E-05 2.20469E-19
1.54212E-05 1.75395E-19
1.71822E-05 1.41272E-19
1.90385E-05 1.15059E-19
2.09899E-05 9.46557E-20
2.30365E-05 7.85781E-20
2.51783E-05 6.57715E-20
2.74153E-05 5.54696E-20
2.97475E-05 4.71075E-20
3.21749E-05 4.02636E-20
3.46974E-05 3.46190E-20
3.73152E-05 2.99300E-20
4.00281E-05 2.60087E-20
4.28362E-05 2.27090E-20
4.57395E-05 1.99161E-20
4.87380E-05 1.75394E-20
5.18317E-05 1.55067E-20
5.50205E-05 1.37600E-20
5.83045E-05 1.22524E-20
6.16838E-05 1.09457E-20
6.51582E-05 9.80874E-21
6.87277E-05 8.81563E-21
7.23925E-05 7.94506E-21
7.61524E-05 7.17427E-21
9.21439E-05 4.89760E-21
1.09658E-04 3.45623E-21
1.28695E-04 2.50795E-21
1.49255E-04 1.86351E-21
1.71338E-04 1.41328E-21
1.94942E-04 1.09106E-21
2.20070E-04 8.55578E-22
2.46720E-04 6.80272E-22
2.74892E-04 5.47603E-22
3.04586E-04 4.45718E-22
3.35803E-04 3.66430E-22
3.68542E-04 3.03989E-22
4.02802E-04 2.54277E-22
4.38585E-04 2.14306E-22
4.75889E-04 1.81874E-22
5.14715E-04 1.55338E-22
5.55063E-04 1.33459E-22
5.96931E-04 1.15290E-22
6.40321E-04 1.00102E-22
6.85233E-04 8.73278E-23
7.31665E-04 7.65214E-23
7.79618E-04 6.73306E-23
8.29092E-04 5.94742E-23
8.80086E-04 5.27268E-23
9.32601E-04 4.69059E-23
9.86636E-04 4.18632E-23
1.04219E-03 3.74773E-23
1.09927E-03 3.36483E-23
1.15786E-03 3.02937E-23
1.21797E-03 2.73447E-23
1.27961E-03 2.47440E-23
1.34276E-03 2.24435E-23
1.40743E-03 2.04027E-23
1.47362E-03 1.85871E-23
1.54133E-03 1.69678E-23
1.61056E-03 1.55198E-23
1.68131E-03 1.42219E-23
1.75357E-03 1.30559E-23
1.82735E-03 1.20060E-23
1.90265E-03 1.10588E-23
1.97947E-03 1.02023E-23
2.05780E-03 9.42641E-24
2.13765E-03 8.72223E-24
2.21902E-03 8.08197E-24
2.30190E-03 7.49882E-24
2.38630E-03 6.96678E-24
2.47222E-03 6.48061E-24
2.55965E-03 6.03565E-24
2.64859E-03 5.62779E-24
2.73905E-03 5.25341E-24
2.83103E-03 4.90927E-24
2.92452E-03 4.59250E-24
3.01952E-03 4.30054E-24
3.11604E-03 4.03111E-24
3.21407E-03 3.78217E-24
3.31362E-03 3.55187E-24
3.41468E-03 3.33858E-24
3.51725E-03 3.14083E-24
3.62133E-03 2.95727E-24
3.72692E-03 2.78672E-24
3.83403E-03 2.62809E-24
3.94265E-03 2.48040E-24
4.05278E-03 2.34275E-24
4.16442E-03 2.21436E-24
4.27757E-03 2.09448E-24
4.39223E-03 1.98245E-24
4.50840E-03 1.87768E-24
4.62608E-03 1.77959E-24
4.74527E-03 1.68770E-24
4.86597E-03 1.60155E-24
4.98817E-03 1.52070E-24
5.11188E-03 1.44479E-24
5.23711E-03 1.37345E-24
5.36383E-03 1.30635E-24
5.49207E-03 1.24321E-24
5.62181E-03 1.18375E-24
5.75306E-03 1.12772E-24
5.88581E-03 1.07488E-24
6.02007E-03 1.02502E-24
6.15583E-03 9.77947E-25
6.29310E-03 9.33473E-25
6.43187E-03 8.91430E-25
6.57214E-03 8.51664E-25
6.71392E-03 8.14028E-25
6.85720E-03 7.78389E-25
7.00198E-03 7.44623E-25
7.14827E-03 7.12614E-25
7.29605E-03 6.82255E-25
7.44534E-03 6.53446E-25
7.59612E-03 6.26093E-25
7.97965E-03 5.63535E-25
8.37255E-03 5.08360E-25
8.77480E-03 4.59560E-25
9.18641E-03 4.16283E-25
9.60736E-03 3.77804E-25
1.00376E-02 3.43510E-25
1.04773E-02 3.12873E-25
1.09262E-02 2.85442E-25
1.13844E-02 2.60830E-25
1.18520E-02 2.38702E-25
1.23288E-02 2.18768E-25
1.28150E-02 2.00778E-25
1.33104E-02 1.84512E-25
1.38150E-02 1.69781E-25
1.43290E-02 1.56416E-25
1.48521E-02 1.44273E-25
1.53845E-02 1.33222E-25
1.59262E-02 1.23151E-25
1.64770E-02 1.13960E-25
1.70371E-02 1.05560E-25
1.76063E-02 9.78728E-26
1.81848E-02 9.08297E-26
1.87724E-02 8.43685E-26
1.93692E-02 7.84342E-26
1.99751E-02 7.29776E-26
2.05901E-02 6.79546E-26
2.12143E-02 6.33260E-26
2.18476E-02 5.90564E-26
2.24900E-02 5.51140E-26
2.31415E-02 5.14703E-26
2.38021E-02 4.80994E-26
2.44717E-02 4.49782E-26
2.51504E-02 4.20857E-26
2.58382E-02 3.94027E-26
2.65349E-02 3.69122E-26
2.72407E-02 3.45985E-26
2.79555E-02 3.24473E-26
2.86793E-02 3.04458E-26
2.94120E-02 2.85823E-26
3.01537E-02 2.68459E-26
3.09043E-02 2.52269E-26
3.16639E-02 2.37164E-26
3.24324E-02 2.23062E-26
3.32098E-02 2.09889E-26
3.39961E-02 1.97575E-26
3.47912E-02 1.86059E-26
3.55952E-02 1.75282E-26
3.64081E-02 1.65191E-26
3.72297E-02 1.55737E-26
3.80602E-02 1.46876E-26
3.88995E-02 1.38567E-26
3.97476E-02 1.30770E-26
4.06044E-02 1.23452E-26
4.14700E-02 1.16579E-26
4.23443E-02 1.10122E-26
4.32273E-02 1.04052E-26
4.41190E-02 9.83446E-27
4.50194E-02 9.29753E-27
4.59284E-02 8.79221E-27
4.68461E-02 8.31645E-27
4.87074E-02 7.44618E-27
5.06030E-02 6.67309E-27
5.25328E-02 5.98537E-27
5.44967E-02 5.37281E-27
5.64946E-02 4.82652E-27
5.85262E-02 4.33877E-27
6.05914E-02 3.90282E-27
6.26901E-02 3.51277E-27
6.48222E-02 3.16343E-27
6.69873E-02 2.85029E-27
6.91854E-02 2.56934E-27
7.14163E-02 2.31708E-27
7.36799E-02 2.09040E-27
7.59760E-02 1.88656E-27
7.83043E-02 1.70315E-27
8.06647E-02 1.53800E-27
8.30571E-02 1.38923E-27
8.54812E-02 1.25512E-27
8.79369E-02 1.13418E-27
9.04240E-02 1.02506E-27
9.29422E-02 9.26559E-28
9.54915E-02 8.37616E-28
9.80716E-02 7.57271E-28
1.00682E-01 6.84670E-28
1.03323E-01 6.19046E-28
1.05995E-01 5.59713E-28
1.08696E-01 5.06056E-28
1.11427E-01 4.57522E-28
1.14188E-01 4.13613E-28
1.16978E-01 3.73882E-28
1.19797E-01 3.37928E-28
1.22645E-01 3.05389E-28
1.25522E-01 2.75937E-28
1.28428E-01 2.49279E-28
1.31361E-01 2.25149E-28
1.34323E-01 2.03307E-28
1.37313E-01 1.83537E-28
1.40330E-01 1.65644E-28
1.43375E-01 1.49449E-28
1.46447E-01 1.34794E-28
1.49545E-01 1.21534E-28
1.52671E-01 1.09537E-28
1.55823E-01 9.86856E-29
1.59001E-01 8.88715E-29
1.62205E-01 7.99977E-29
1.65435E-01 7.19759E-29
1.68690E-01 6.47264E-29
1.71970E-01 5.81765E-29
1.75276E-01 5.22607E-29
1.78606E-01 4.69192E-29
1.81961E-01 4.20982E-29
1.85340E-01 3.77484E-29
1.88743E-01 3.38256E-29
1.92169E-01 3.02892E-29
1.95619E-01 2.71028E-29
1.99092E-01 2.42331E-29
2.02589E-01 2.16500E-29
2.06107E-01 1.93261E-29
2.09649E-01 1.72366E-29
2.13212E-01 1.53591E-29
2.16797E-01 1.36731E-29
2.20404E-01 1.21601E-29
2.24032E-01 1.08034E-29
2.27680E-01 9.58777E-30
2.31350E-01 8.49935E-30
2.35040E-01 7.52569E-30
2.38751E-01 6.65544E-30
2.42481E-01 5.87837E-30
2.46231E-01 5.18517E-30
2.50000E-01 4.56744E-30
2.53788E-01 4.01756E-30
2.57595E-01 3.52865E-30
2.61421E-01 3.09449E-30
2.65264E-01 2.70944E-30
2.69126E-01 2.36842E-30
2.73005E-01 2.06684E-30
2.76901E-01 1.80054E-30
2.80814E-01 1.56580E-30
2.84744E-01 1.35923E-30
2.88691E-01 1.17780E-30
2.92653E-01 1.01876E-30
2.96632E-01 8.79665E-31
3.00625E-01 7.58285E-31
3.04634E-01 6.52634E-31
3.08658E-01 5.60922E-31
3.12697E-01 4.81545E-31
3.16749E-01 4.13065E-31
3.20816E-01 3.54194E-31
3.24896E-01 3.03780E-31
3.28990E-01 2.60792E-31
3.33097E-01 2.24311E-31
3.37216E-01 1.93518E-31
3.41348E-01 1.67682E-31
3.45492E-01 1.46153E-31
3.49647E-01 1.28357E-31
3.53814E-01 1.13780E-31
3.57992E-01 1.01972E-31
3.62181E-01 9.25316E-32
3.66381E-01 8.51072E-32
3.70590E-01 7.93883E-32
3.74810E-01 7.51028E-32
3.79039E-01 7.20125E-32
3.83277E-01 6.99091E-32
3.87524E-01 6.86114E-32
3.91780E-01 6.79623E-32
3.96044E-01 6.78257E-32
4.00316E-01 6.80849E-32
4.04596E-01 6.86395E-32
4.08882E-01 6.94043E-32
4.13176E-01 7.03071E-32
4.17476E-01 7.12869E-32
4.21783E-01 7.22934E-32
4.26095E-01 7.32847E-32
4.30413E-01 7.42268E-32
4.34737E-01 7.50927E-32
4.39065E-01 7.58609E-32
4.43398E-01 7.65153E-32
4.47736E-01 7.70438E-32
4.52077E-01 7.74384E-32
4.56422E-01 7.76942E-32
4.60770E-01 7.78087E-32
4.65122E-01 7.77821E-32
4.69476E-01 7.76161E-32
4.73832E-01 7.73143E-32
4.78190E-01 7.68812E-32
4.82550E-01 7.63227E-32
4.86912E-01 7.56450E-32
4.91274E-01 7.48552E-32
4.95637E-01 7.39608E-32
5.00000E-01 7.29695E-32
5.04363E-01 7.18890E-32
5.08726E-01 7.07274E-32
5.13088E-01 6.94926E-32
5.17450E-01 6.81921E-32
5.21810E-01 6.68337E-32
5.26168E-01 6.54246E-32
5.30524E-01 6.39721E-32
5.34878E-01 6.24827E-32
5.39230E-01 6.09632E-32
5.43578E-01 5.94195E-32
5.47923E-01 5.78575E-32
5.52264E-01 5.62827E-32
5.56602E-01 5.47002E-32
5.60935E-01 5.31148E-32
5.65263E-01 5.15307E-32
5.69587E-01 4.99522E-32
5.73905E-01 4.83829E-32
5.78217E-01 4.68263E-32
5.82524E-01 4.52855E-32
5.86824E-01 4.37633E-32
5.91118E-01 4.22622E-32
5.95404E-01 4.07844E-32
5.99684E-01 3.93320E-32
6.03956E-01 3.79068E-32
6.08220E-01 3.65101E-32
6.12476E-01 3.51434E-32
6.16723E-01 3.38078E-32
6.20961E-01 3.25041E-32
6.25190E-01 3.12331E-32
6.29410E-01 2.99954E-32
6.33619E-01 2.87914E-32
6.37819E-01 2.76213E-32
6.42008E-01 2.64855E-32
6.46186E-01 2.53838E-32
6.50353E-01 2.43163E-32
6.54508E-01 2.32828E-32
6.58652E-01 2.22830E-32
6.62784E-01 2.13166E-32
6.66903E-01 2.03832E-32
6.71010E-01 1.94824E-32
6.75104E-01 1.86137E-32
6.79184E-01 1.77765E-32
6.83251E-01 1.69701E-32
6.87303E-01 1.61941E-32
6.91342E-01 1.54476E-32
6.95366E-01 1.47301E-32
6.99375E-01 1.40407E-32
7.03368E-01 1.33788E-32
7.07347E-01 1.27437E-32
7.11309E-01 1.21345E-32
7.15256E-01 1.15505E-32
7.19186E-01 1.09910E-32
7.23099E-01 1.04552E-32
7.26995E-01 9.94233E-33
7.30874E-01 9.45166E-33
7.34736E-01 8.98243E-33
7.38579E-01 8.53391E-33
7.42405E-01 8.10537E-33
7.46212E-01 7.69609E-33
7.50000E-01 7.30537E-33
7.53769E-01 6.93252E-33
7.57519E-01 6.57685E-33
7.61249E-01 6.23771E-33
7.64960E-01 5.91446E-33
7.68650E-01 5.60645E-33
7.72320E-01 5.31309E-33
7.75968E-01 5.03376E-33
7.79596E-01 4.76789E-33
7.83203E-01 4.51492E-33
7.86788E-01 4.27429E-33
7.90351E-01 4.04549E-33
7.93893E-01 3.82800E-33
7.97411E-01 3.62133E-33
8.00908E-01 3.42499E-33
8.04381E-01 3.23853E-33
8.07831E-01 3.06150E-33
8.11257E-01 2.89348E-33
8.14660E-01 2.73405E-33
8.18039E-01 2.58281E-33
8.21394E-01 2.43939E-33
8.24724E-01 2.30341E-33
8.28030E-01 2.17453E-33
8.31310E-01 2.05241E-33
8.34565E-01 1.93672E-33
8.37795E-01 1.82715E-33
8.40999E-01 1.72340E-33
8.44177E-01 1.62519E-33
8.47329E-01 1.53225E-33
8.50455E-01 1.44432E-33
8.53553E-01 1.36113E-33
8.56625E-01 1.28247E-33
8.59670E-01 1.20809E-33
8.62687E-01 1.13779E-33
8.65677E-01 1.07135E-33
8.68639E-01 1.00857E-33
8.71572E-01 9.49275E-34
8.74478E-01 8.93272E-34
8.77355E-01 8.40394E-34
8.80203E-01 7.90476E-34
8.83022E-01 7.43364E-34
8.85812E-01 6.98909E-34
8.88573E-01 6.56970E-34
8.91304E-01 6.17411E-34
8.94005E-01 5.80107E-34
8.96677E-01 5.44936E-34
8.99318E-01 5.11783E-34
9.01928E-01 4.80538E-34
9.04508E-01 4.51097E-34
9.07058E-01 4.23361E-34
9.09576E-01 3.97237E-34
9.12063E-01 3.72636E-34
9.14519E-01 3.49473E-34
9.16943E-01 3.27668E-34
9.19335E-01 3.07147E-34
9.21696E-01 2.87836E-34
9.24024E-01 2.69668E-34
9.26320E-01 2.52579E-34
9.28584E-01 2.36508E-34
9.30815E-01 2.21396E-34
9.33013E-01 2.07189E-34
9.35178E-01 1.93834E-34
9.37310E-01 1.81285E-34
9.39409E-01 1.69493E-34
9.41474E-01 1.58415E-34
9.43505E-01 1.48010E-34
9.45503E-01 1.38239E-34
9.47467E-01 1.29064E-34
9.49397E-01 1.20451E-34
9.51293E-01 1.12367E-34
9.53154E-01 1.04780E-34
9.54981E-01 9.76623E-35
9.56773E-01 9.09854E-35
9.58530E-01 8.47221E-35
9.60252E-01 7.88494E-35
9.61940E-01 7.33440E-35
9.63592E-01 6.81828E-35
9.65209E-01 6.33455E-35
9.66790E-01 5.88126E-35
9.68336E-01 5.45670E-35
9.69846E-01 5.05896E-35
9.71321E-01 4.68663E-35
9.72759E-01 4.33795E-35
9.74162E-01 4.01165E-35
9.75528E-01 3.70625E-35
9.76858E-01 3.42060E-35
9.78152E-01 3.15345E-35
9.79410E-01 2.90364E-35
9.80631E-01 2.67015E-35
9.81815E-01 2.45204E-35
9.82963E-01 2.24833E-35
9.84074E-01 2.05813E-35
9.85148E-01 1.88062E-35
9.86185E-01 1.71507E-35
9.87185E-01 1.56074E-35
9.88148E-01 1.41702E-35
9.89074E-01 1.28327E-35
9.89962E-01 1.15875E-35
9.90814E-01 1.04308E-35
9.91627E-01 9.35689E-36
9.92404E-01 8.36134E-36
9.93143E-01 7.43944E-36
9.93844E-01 6.58712E-36
9.94508E-01 5.80045E-36
9.95134E-01 5.07647E-36
9.95722E-01 4.41143E-36
9.96273E-01 3.80209E-36
9.96786E-01 3.24610E-36
9.97261E-01 2.74123E-36
9.97698E-01 2.28443E-36
9.98097E-01 1.87429E-36
9.98459E-01 1.50843E-36
9.98782E-01 1.18563E-36
9.99067E-01 9.04172E-37
9.99315E-01 6.62703E-37
9.99524E-01 4.60486E-37
9.99695E-01 2.95880E-37
9.99829E-01 1.68792E-37
9.99924E-01 7.84977E-38
9.99981E-01 2.45404E-38
1.00000E+00 6.33429E-39
