 #
 # Subroutine ELSEPA. Elastic scattering of electrons and positrons
 #                    by neutral atoms and positive ions
 #
 # Projectile: positron
 # Kinetic energy = 3.50000E+07 eV = 1.28623E+06 a.u.
 #
 # WARNING: High-energy factorization with free-atom DF screening.
 #          Absorption, polarization and exchange corrections are
 #          switched off.
 #          Phase shifts are calculated for the bare nucleus.
 #          Scattering amplitudes are not evaluated.
 #
 # Element: Ar,  Z =  18,  atomic weight = 3.99480E+01 g/mol
 #
 # Nuclear model: Fermi distribution
 #                Average radius = 3.65776E-13 cm
 #                Skin thickness = 5.46000E-14 cm
 #
 # Number of electrons = 18
 #
 # Total elastic cross section = 1.14598E-18 cm**2 = 4.09236E-02 a0**2
 # 1st transport cross section = 4.93319E-25 cm**2 = 1.76167E-08 a0**2
 # 2nd transport cross section = 1.44066E-24 cm**2 = 5.14470E-08 a0**2
 #
 #
 # Differential cross section:                       MU=(1-COS(THETA))/2
 #
 #  THETA        MU          DCS          DCS        Sherman      error
 #  (deg)                 (cm**2/sr)   (a0**2/sr)    function
 #----------------------------------------------------------------------
0.00000E+00 1.00720E-11
7.61557E-13 1.00704E-11
1.18994E-12 1.00695E-11
1.71346E-12 1.00684E-11
2.33225E-12 1.00671E-11
3.04617E-12 1.00657E-11
3.85530E-12 1.00640E-11
4.75964E-12 1.00621E-11
5.75917E-12 1.00601E-11
6.85391E-12 1.00578E-11
8.04379E-12 1.00554E-11
9.32893E-12 1.00528E-11
1.07092E-11 1.00500E-11
1.21847E-11 1.00469E-11
1.37554E-11 1.00437E-11
1.54213E-11 1.00403E-11
1.71823E-11 1.00367E-11
1.90386E-11 1.00330E-11
2.09900E-11 1.00290E-11
2.30367E-11 1.00248E-11
2.51785E-11 1.00205E-11
2.74156E-11 1.00159E-11
2.97478E-11 1.00112E-11
3.21752E-11 1.00063E-11
3.46979E-11 1.00012E-11
3.73157E-11 9.99590E-12
4.00286E-11 9.99041E-12
4.28368E-11 9.98473E-12
4.57402E-11 9.97888E-12
4.87388E-11 9.97285E-12
5.18325E-11 9.96661E-12
5.50215E-11 9.96019E-12
5.83057E-11 9.95359E-12
6.16850E-11 9.94682E-12
6.51595E-11 9.93984E-12
6.87293E-11 9.93268E-12
7.23943E-11 9.92535E-12
7.61544E-11 9.91786E-12
1.18991E-10 9.83278E-12
1.71347E-10 9.73030E-12
2.33223E-10 9.61100E-12
3.04617E-10 9.47604E-12
3.85531E-10 9.32608E-12
4.75965E-10 9.16259E-12
5.75917E-10 8.98625E-12
6.85389E-10 8.79877E-12
8.04380E-10 8.60080E-12
9.32891E-10 8.39422E-12
1.07092E-09 8.17960E-12
1.21847E-09 7.95888E-12
1.37554E-09 7.71473E-12
1.54213E-09 7.47849E-12
1.71823E-09 7.25141E-12
1.90386E-09 7.03399E-12
2.09900E-09 6.78068E-12
2.30367E-09 6.53934E-12
2.51785E-09 6.31096E-12
2.74156E-09 6.09525E-12
2.97478E-09 5.84953E-12
3.21752E-09 5.61770E-12
3.46978E-09 5.40033E-12
3.73156E-09 5.19663E-12
4.00286E-09 4.97003E-12
4.28368E-09 4.75742E-12
4.57402E-09 4.55906E-12
4.87388E-09 4.37396E-12
5.18326E-09 4.17281E-12
5.50215E-09 3.98458E-12
5.83057E-09 3.80938E-12
6.16850E-09 3.64622E-12
6.51596E-09 3.47269E-12
6.87293E-09 3.31047E-12
7.23942E-09 3.15959E-12
7.61544E-09 3.01914E-12
1.18991E-08 1.85500E-12
1.71347E-08 1.14832E-12
2.33223E-08 7.25987E-13
3.04617E-08 4.75374E-13
3.85531E-08 3.23095E-13
4.75965E-08 2.28106E-13
5.75917E-08 1.66692E-13
6.85389E-08 1.25556E-13
8.04380E-08 9.70177E-14
9.32891E-08 7.65820E-14
1.07092E-07 6.14998E-14
1.21847E-07 5.00982E-14
1.37554E-07 4.12224E-14
1.54213E-07 3.43119E-14
1.71823E-07 2.87929E-14
1.90386E-07 2.43029E-14
2.09900E-07 2.06726E-14
2.30367E-07 1.76546E-14
2.51785E-07 1.51585E-14
2.74156E-07 1.30868E-14
2.97478E-07 1.13266E-14
3.21752E-07 9.85325E-15
3.46978E-07 8.60279E-15
3.73156E-07 7.53520E-15
4.00286E-07 6.62739E-15
4.28368E-07 5.84504E-15
4.57402E-07 5.17283E-15
4.87388E-07 4.59351E-15
5.18325E-07 4.08918E-15
5.50215E-07 3.65213E-15
5.83057E-07 3.27076E-15
6.16850E-07 2.93688E-15
6.51596E-07 2.64449E-15
6.87293E-07 2.38683E-15
7.23942E-07 2.15968E-15
7.61543E-07 1.95889E-15
1.18991E-06 8.25105E-16
1.71347E-06 4.06912E-16
2.33223E-06 2.24007E-16
3.04617E-06 1.33534E-16
3.85531E-06 8.45255E-17
4.75964E-06 5.60781E-17
5.75916E-06 3.86428E-17
6.85388E-06 2.74760E-17
8.04378E-06 2.00587E-17
9.32888E-06 1.49783E-17
1.07092E-05 1.14055E-17
1.21846E-05 8.83490E-18
1.37553E-05 6.94774E-18
1.54212E-05 5.53769E-18
1.71822E-05 4.46713E-18
1.90385E-05 3.64285E-18
2.09899E-05 2.99996E-18
2.30365E-05 2.49258E-18
2.51783E-05 2.08786E-18
2.74153E-05 1.76191E-18
2.97475E-05 1.49708E-18
3.21749E-05 1.28015E-18
3.46974E-05 1.10110E-18
3.73152E-05 9.52276E-19
4.00281E-05 8.27749E-19
4.28362E-05 7.22910E-19
4.57395E-05 6.34139E-19
4.87380E-05 5.58569E-19
5.18317E-05 4.93916E-19
5.50205E-05 4.38345E-19
5.83045E-05 3.90369E-19
6.16838E-05 3.48779E-19
6.51582E-05 3.12581E-19
6.87277E-05 2.80959E-19
7.23925E-05 2.53234E-19
7.61524E-05 2.28841E-19
9.21439E-05 1.56284E-19
1.09658E-04 1.10328E-19
1.28695E-04 8.00842E-20
1.49255E-04 5.95235E-20
1.71338E-04 4.51540E-20
1.94942E-04 3.48686E-20
2.20070E-04 2.73512E-20
2.46720E-04 2.17540E-20
2.74892E-04 1.75174E-20
3.04586E-04 1.42633E-20
3.35803E-04 1.17305E-20
3.68542E-04 9.73552E-21
4.02802E-04 8.14691E-21
4.38585E-04 6.86932E-21
4.75889E-04 5.83248E-21
5.14715E-04 4.98396E-21
5.55063E-04 4.28417E-21
5.96931E-04 3.70291E-21
6.40321E-04 3.21690E-21
6.85233E-04 2.80801E-21
7.31665E-04 2.46201E-21
7.79618E-04 2.16766E-21
8.29092E-04 1.91597E-21
8.80086E-04 1.69973E-21
9.32601E-04 1.51313E-21
9.86636E-04 1.35143E-21
1.04219E-03 1.21073E-21
1.09927E-03 1.08786E-21
1.15786E-03 9.80169E-22
1.21797E-03 8.85465E-22
1.27961E-03 8.01914E-22
1.34276E-03 7.27977E-22
1.40743E-03 6.62358E-22
1.47362E-03 6.03959E-22
1.54133E-03 5.51847E-22
1.61056E-03 5.05229E-22
1.68131E-03 4.63425E-22
1.75357E-03 4.25850E-22
1.82735E-03 3.92001E-22
1.90265E-03 3.61444E-22
1.97947E-03 3.33804E-22
2.05780E-03 3.08751E-22
2.13765E-03 2.86001E-22
2.21902E-03 2.65305E-22
2.30190E-03 2.46444E-22
2.38630E-03 2.29227E-22
2.47222E-03 2.13485E-22
2.55965E-03 1.99069E-22
2.64859E-03 1.85847E-22
2.73905E-03 1.73703E-22
2.83103E-03 1.62533E-22
2.92452E-03 1.52244E-22
3.01952E-03 1.42755E-22
3.11604E-03 1.33993E-22
3.21407E-03 1.25891E-22
3.31362E-03 1.18391E-22
3.41468E-03 1.11441E-22
3.51725E-03 1.04991E-22
3.62133E-03 9.90007E-23
3.72692E-03 9.34305E-23
3.83403E-03 8.82456E-23
3.94265E-03 8.34145E-23
4.05278E-03 7.89088E-23
4.16442E-03 7.47025E-23
4.27757E-03 7.07720E-23
4.39223E-03 6.70960E-23
4.50840E-03 6.36550E-23
4.62608E-03 6.04311E-23
4.74527E-03 5.74083E-23
4.86597E-03 5.45716E-23
4.98817E-03 5.19074E-23
5.11188E-03 4.94034E-23
5.23711E-03 4.70482E-23
5.36383E-03 4.48312E-23
5.49207E-03 4.27429E-23
5.62181E-03 4.07745E-23
5.75306E-03 3.89177E-23
5.88581E-03 3.71650E-23
6.02007E-03 3.55096E-23
6.15583E-03 3.39451E-23
6.29310E-03 3.24655E-23
6.43187E-03 3.10654E-23
6.57214E-03 2.97397E-23
6.71392E-03 2.84838E-23
6.85720E-03 2.72932E-23
7.00198E-03 2.61639E-23
7.14827E-03 2.50923E-23
7.29605E-03 2.40747E-23
7.44534E-03 2.31081E-23
7.59612E-03 2.21893E-23
7.97965E-03 2.00836E-23
8.37255E-03 1.82211E-23
8.77480E-03 1.65687E-23
9.18641E-03 1.50988E-23
9.60736E-03 1.37876E-23
1.00376E-02 1.26152E-23
1.04773E-02 1.15643E-23
1.09262E-02 1.06201E-23
1.13844E-02 9.76989E-24
1.18520E-02 9.00271E-24
1.23288E-02 8.30902E-24
1.28150E-02 7.68056E-24
1.33104E-02 7.11011E-24
1.38150E-02 6.59138E-24
1.43290E-02 6.11887E-24
1.48521E-02 5.68771E-24
1.53845E-02 5.29367E-24
1.59262E-02 4.93297E-24
1.64770E-02 4.60230E-24
1.70371E-02 4.29872E-24
1.76063E-02 4.01960E-24
1.81848E-02 3.76264E-24
1.87724E-02 3.52575E-24
1.93692E-02 3.30710E-24
1.99751E-02 3.10502E-24
2.05901E-02 2.91804E-24
2.12143E-02 2.74483E-24
2.18476E-02 2.58419E-24
2.24900E-02 2.43504E-24
2.31415E-02 2.29642E-24
2.38021E-02 2.16745E-24
2.44717E-02 2.04734E-24
2.51504E-02 1.93537E-24
2.58382E-02 1.83089E-24
2.65349E-02 1.73330E-24
2.72407E-02 1.64208E-24
2.79555E-02 1.55673E-24
2.86793E-02 1.47680E-24
2.94120E-02 1.40189E-24
3.01537E-02 1.33163E-24
3.09043E-02 1.26568E-24
3.16639E-02 1.20372E-24
3.24324E-02 1.14547E-24
3.32098E-02 1.09066E-24
3.39961E-02 1.03906E-24
3.47912E-02 9.90449E-25
3.55952E-02 9.44615E-25
3.64081E-02 9.01375E-25
3.72297E-02 8.60553E-25
3.80602E-02 8.21992E-25
3.88995E-02 7.85543E-25
3.97476E-02 7.51068E-25
4.06044E-02 7.18443E-25
4.14700E-02 6.87549E-25
4.23443E-02 6.58279E-25
4.32273E-02 6.30530E-25
4.41190E-02 6.04211E-25
4.50194E-02 5.79234E-25
4.59284E-02 5.55517E-25
4.68461E-02 5.32987E-25
4.87074E-02 4.91208E-25
5.06030E-02 4.53391E-25
5.25328E-02 4.19097E-25
5.44967E-02 3.87941E-25
5.64946E-02 3.59587E-25
5.85262E-02 3.33739E-25
6.05914E-02 3.10138E-25
6.26901E-02 2.88555E-25
6.48222E-02 2.68788E-25
6.69873E-02 2.50657E-25
6.91854E-02 2.34005E-25
7.14163E-02 2.18689E-25
7.36799E-02 2.04584E-25
7.59760E-02 1.91577E-25
7.83043E-02 1.79569E-25
8.06647E-02 1.68469E-25
8.30571E-02 1.58197E-25
8.54812E-02 1.48681E-25
8.79369E-02 1.39855E-25
9.04240E-02 1.31660E-25
9.29422E-02 1.24044E-25
9.54915E-02 1.16959E-25
9.80716E-02 1.10361E-25
1.00682E-01 1.04211E-25
1.03323E-01 9.84738E-26
1.05995E-01 9.31163E-26
1.08696E-01 8.81093E-26
1.11427E-01 8.34258E-26
1.14188E-01 7.90415E-26
1.16978E-01 7.49338E-26
1.19797E-01 7.10824E-26
1.22645E-01 6.74685E-26
1.25522E-01 6.40749E-26
1.28428E-01 6.08859E-26
1.31361E-01 5.78871E-26
1.34323E-01 5.50652E-26
1.37313E-01 5.24079E-26
1.40330E-01 4.99040E-26
1.43375E-01 4.75432E-26
1.46447E-01 4.53158E-26
1.49545E-01 4.32131E-26
1.52671E-01 4.12269E-26
1.55823E-01 3.93496E-26
1.59001E-01 3.75742E-26
1.62205E-01 3.58943E-26
1.65435E-01 3.43039E-26
1.68690E-01 3.27973E-26
1.71970E-01 3.13695E-26
1.75276E-01 3.00156E-26
1.78606E-01 2.87311E-26
1.81961E-01 2.75119E-26
1.85340E-01 2.63541E-26
1.88743E-01 2.52541E-26
1.92169E-01 2.42085E-26
1.95619E-01 2.32142E-26
1.99092E-01 2.22683E-26
2.02589E-01 2.13679E-26
2.06107E-01 2.05106E-26
2.09649E-01 1.96939E-26
2.13212E-01 1.89156E-26
2.16797E-01 1.81736E-26
2.20404E-01 1.74659E-26
2.24032E-01 1.67907E-26
2.27680E-01 1.61462E-26
2.31350E-01 1.55308E-26
2.35040E-01 1.49430E-26
2.38751E-01 1.43813E-26
2.42481E-01 1.38444E-26
2.46231E-01 1.33310E-26
2.50000E-01 1.28399E-26
2.53788E-01 1.23700E-26
2.57595E-01 1.19202E-26
2.61421E-01 1.14896E-26
2.65264E-01 1.10771E-26
2.69126E-01 1.06819E-26
2.73005E-01 1.03031E-26
2.76901E-01 9.94004E-27
2.80814E-01 9.59184E-27
2.84744E-01 9.25783E-27
2.88691E-01 8.93734E-27
2.92653E-01 8.62973E-27
2.96632E-01 8.33441E-27
3.00625E-01 8.05081E-27
3.04634E-01 7.77838E-27
3.08658E-01 7.51662E-27
3.12697E-01 7.26505E-27
3.16749E-01 7.02320E-27
3.20816E-01 6.79064E-27
3.24896E-01 6.56696E-27
3.28990E-01 6.35177E-27
3.33097E-01 6.14469E-27
3.37216E-01 5.94538E-27
3.41348E-01 5.75349E-27
3.45492E-01 5.56870E-27
3.49647E-01 5.39072E-27
3.53814E-01 5.21925E-27
3.57992E-01 5.05401E-27
3.62181E-01 4.89476E-27
3.66381E-01 4.74123E-27
3.70590E-01 4.59319E-27
3.74810E-01 4.45042E-27
3.79039E-01 4.31270E-27
3.83277E-01 4.17982E-27
3.87524E-01 4.05159E-27
3.91780E-01 3.92782E-27
3.96044E-01 3.80833E-27
4.00316E-01 3.69295E-27
4.04596E-01 3.58152E-27
4.08882E-01 3.47389E-27
4.13176E-01 3.36990E-27
4.17476E-01 3.26942E-27
4.21783E-01 3.17231E-27
4.26095E-01 3.07844E-27
4.30413E-01 2.98768E-27
4.34737E-01 2.89992E-27
4.39065E-01 2.81505E-27
4.43398E-01 2.73295E-27
4.47736E-01 2.65352E-27
4.52077E-01 2.57667E-27
4.56422E-01 2.50229E-27
4.60770E-01 2.43030E-27
4.65122E-01 2.36061E-27
4.69476E-01 2.29313E-27
4.73832E-01 2.22779E-27
4.78190E-01 2.16451E-27
4.82550E-01 2.10321E-27
4.86912E-01 2.04382E-27
4.91274E-01 1.98628E-27
4.95637E-01 1.93052E-27
5.00000E-01 1.87647E-27
5.04363E-01 1.82409E-27
5.08726E-01 1.77330E-27
5.13088E-01 1.72405E-27
5.17450E-01 1.67630E-27
5.21810E-01 1.62999E-27
5.26168E-01 1.58506E-27
5.30524E-01 1.54148E-27
5.34878E-01 1.49920E-27
5.39230E-01 1.45817E-27
5.43578E-01 1.41835E-27
5.47923E-01 1.37970E-27
5.52264E-01 1.34219E-27
5.56602E-01 1.30577E-27
5.60935E-01 1.27041E-27
5.65263E-01 1.23607E-27
5.69587E-01 1.20273E-27
5.73905E-01 1.17034E-27
5.78217E-01 1.13888E-27
5.82524E-01 1.10831E-27
5.86824E-01 1.07862E-27
5.91118E-01 1.04976E-27
5.95404E-01 1.02172E-27
5.99684E-01 9.94473E-28
6.03956E-01 9.67984E-28
6.08220E-01 9.42235E-28
6.12476E-01 9.17202E-28
6.16723E-01 8.92863E-28
6.20961E-01 8.69196E-28
6.25190E-01 8.46180E-28
6.29410E-01 8.23797E-28
6.33619E-01 8.02025E-28
6.37819E-01 7.80847E-28
6.42008E-01 7.60244E-28
6.46186E-01 7.40198E-28
6.50353E-01 7.20694E-28
6.54508E-01 7.01715E-28
6.58652E-01 6.83245E-28
6.62784E-01 6.65269E-28
6.66903E-01 6.47772E-28
6.71010E-01 6.30740E-28
6.75104E-01 6.14159E-28
6.79184E-01 5.98017E-28
6.83251E-01 5.82300E-28
6.87303E-01 5.66995E-28
6.91342E-01 5.52091E-28
6.95366E-01 5.37577E-28
6.99375E-01 5.23441E-28
7.03368E-01 5.09672E-28
7.07347E-01 4.96259E-28
7.11309E-01 4.83193E-28
7.15256E-01 4.70464E-28
7.19186E-01 4.58061E-28
7.23099E-01 4.45977E-28
7.26995E-01 4.34202E-28
7.30874E-01 4.22727E-28
7.34736E-01 4.11544E-28
7.38579E-01 4.00644E-28
7.42405E-01 3.90021E-28
7.46212E-01 3.79666E-28
7.50000E-01 3.69573E-28
7.53769E-01 3.59733E-28
7.57519E-01 3.50139E-28
7.61249E-01 3.40787E-28
7.64960E-01 3.31667E-28
7.68650E-01 3.22776E-28
7.72320E-01 3.14105E-28
7.75968E-01 3.05650E-28
7.79596E-01 2.97404E-28
7.83203E-01 2.89363E-28
7.86788E-01 2.81520E-28
7.90351E-01 2.73870E-28
7.93893E-01 2.66409E-28
7.97411E-01 2.59131E-28
8.00908E-01 2.52032E-28
8.04381E-01 2.45107E-28
8.07831E-01 2.38351E-28
8.11257E-01 2.31760E-28
8.14660E-01 2.25329E-28
8.18039E-01 2.19056E-28
8.21394E-01 2.12935E-28
8.24724E-01 2.06963E-28
8.28030E-01 2.01136E-28
8.31310E-01 1.95450E-28
8.34565E-01 1.89902E-28
8.37795E-01 1.84488E-28
8.40999E-01 1.79206E-28
8.44177E-01 1.74051E-28
8.47329E-01 1.69021E-28
8.50455E-01 1.64112E-28
8.53553E-01 1.59322E-28
8.56625E-01 1.54647E-28
8.59670E-01 1.50085E-28
8.62687E-01 1.45633E-28
8.65677E-01 1.41289E-28
8.68639E-01 1.37050E-28
8.71572E-01 1.32913E-28
8.74478E-01 1.28875E-28
8.77355E-01 1.24936E-28
8.80203E-01 1.21091E-28
8.83022E-01 1.17340E-28
8.85812E-01 1.13679E-28
8.88573E-01 1.10107E-28
8.91304E-01 1.06622E-28
8.94005E-01 1.03221E-28
8.96677E-01 9.99037E-29
8.99318E-01 9.66667E-29
9.01928E-01 9.35088E-29
9.04508E-01 9.04282E-29
9.07058E-01 8.74231E-29
9.09576E-01 8.44918E-29
9.12063E-01 8.16328E-29
9.14519E-01 7.88444E-29
9.16943E-01 7.61250E-29
9.19335E-01 7.34733E-29
9.21696E-01 7.08877E-29
9.24024E-01 6.83669E-29
9.26320E-01 6.59094E-29
9.28584E-01 6.35139E-29
9.30815E-01 6.11792E-29
9.33013E-01 5.89039E-29
9.35178E-01 5.66869E-29
9.37310E-01 5.45269E-29
9.39409E-01 5.24229E-29
9.41474E-01 5.03736E-29
9.43505E-01 4.83780E-29
9.45503E-01 4.64350E-29
9.47467E-01 4.45437E-29
9.49397E-01 4.27030E-29
9.51293E-01 4.09119E-29
9.53154E-01 3.91696E-29
9.54981E-01 3.74750E-29
9.56773E-01 3.58274E-29
9.58530E-01 3.42259E-29
9.60252E-01 3.26696E-29
9.61940E-01 3.11577E-29
9.63592E-01 2.96895E-29
9.65209E-01 2.82643E-29
9.66790E-01 2.68812E-29
9.68336E-01 2.55395E-29
9.69846E-01 2.42387E-29
9.71321E-01 2.29779E-29
9.72759E-01 2.17567E-29
9.74162E-01 2.05743E-29
9.75528E-01 1.94302E-29
9.76858E-01 1.83238E-29
9.78152E-01 1.72546E-29
9.79410E-01 1.62219E-29
9.80631E-01 1.52253E-29
9.81815E-01 1.42643E-29
9.82963E-01 1.33384E-29
9.84074E-01 1.24471E-29
9.85148E-01 1.15900E-29
9.86185E-01 1.07667E-29
9.87185E-01 9.97677E-30
9.88148E-01 9.21980E-30
9.89074E-01 8.49542E-30
9.89962E-01 7.80328E-30
9.90814E-01 7.14304E-30
9.91627E-01 6.51437E-30
9.92404E-01 5.91696E-30
9.93143E-01 5.35051E-30
9.93844E-01 4.81476E-30
9.94508E-01 4.30944E-30
9.95134E-01 3.83429E-30
9.95722E-01 3.38909E-30
9.96273E-01 2.97362E-30
9.96786E-01 2.58768E-30
9.97261E-01 2.23107E-30
9.97698E-01 1.90363E-30
9.98097E-01 1.60519E-30
9.98459E-01 1.33561E-30
9.98782E-01 1.09476E-30
9.99067E-01 8.82517E-31
9.99315E-01 6.98782E-31
9.99524E-01 5.43465E-31
9.99695E-01 4.16491E-31
9.99829E-01 3.17797E-31
9.99924E-01 2.47335E-31
9.99981E-01 2.05071E-31
1.00000E+00 1.90992E-31
