 #
 # Subroutine ELSEPA. Elastic scattering of electrons and positrons
 #                    by neutral atoms and positive ions
 #
 # Projectile: positron
 # Kinetic energy = 3.00000E+08 eV = 1.10248E+07 a.u.
 #
 # WARNING: High-energy factorization with free-atom DF screening.
 #          Absorption, polarization and exchange corrections are
 #          switched off.
 #          Phase shifts are calculated for the bare nucleus.
 #          Scattering amplitudes are not evaluated.
 #
 # Element: Ar,  Z =  18,  atomic weight = 3.99480E+01 g/mol
 #
 # Nuclear model: Fermi distribution
 #                Average radius = 3.65776E-13 cm
 #                Skin thickness = 5.46000E-14 cm
 #
 # Number of electrons = 18
 #
 # Total elastic cross section = 1.14517E-18 cm**2 = 4.08946E-02 a0**2
 # 1st transport cross section = 7.59868E-27 cm**2 = 2.71354E-10 a0**2
 # 2nd transport cross section = 2.27607E-26 cm**2 = 8.12801E-10 a0**2
 #
 #
 # Differential cross section:                       MU=(1-COS(THETA))/2
 #
 #  THETA        MU          DCS          DCS        Sherman      error
 #  (deg)                 (cm**2/sr)   (a0**2/sr)    function
 #----------------------------------------------------------------------
0.00000E+00 7.21293E-10
7.61557E-13 7.13354E-10
1.18994E-12 7.08956E-10
1.71346E-12 7.03635E-10
2.33225E-12 6.97419E-10
3.04617E-12 6.90345E-10
3.85530E-12 6.82450E-10
4.75964E-12 6.73769E-10
5.75917E-12 6.64353E-10
6.85391E-12 6.54250E-10
8.04379E-12 6.43511E-10
9.32893E-12 6.32188E-10
1.07092E-11 6.20334E-10
1.21847E-11 6.08004E-10
1.37554E-11 5.95251E-10
1.54213E-11 5.82126E-10
1.71823E-11 5.68578E-10
1.90386E-11 5.53751E-10
2.09900E-11 5.39352E-10
2.30367E-11 5.25417E-10
2.51785E-11 5.11968E-10
2.74156E-11 4.98032E-10
2.97478E-11 4.82796E-10
3.21752E-11 4.68234E-10
3.46979E-11 4.54336E-10
3.73157E-11 4.41091E-10
4.00286E-11 4.26847E-10
4.28368E-11 4.12311E-10
4.57402E-11 3.98541E-10
4.87388E-11 3.85502E-10
5.18325E-11 3.73161E-10
5.50215E-11 3.59497E-10
5.83057E-11 3.46340E-10
6.16850E-11 3.33932E-10
6.51595E-11 3.22232E-10
6.87293E-11 3.10926E-10
7.23943E-11 2.98739E-10
7.61544E-11 2.87273E-10
1.18991E-10 1.92954E-10
1.71347E-10 1.27927E-10
2.33223E-10 8.51734E-11
3.04617E-10 5.76133E-11
3.85531E-10 3.98723E-11
4.75965E-10 2.83309E-11
5.75917E-10 2.06935E-11
6.85389E-10 1.55222E-11
8.04380E-10 1.19301E-11
9.32891E-10 9.36960E-12
1.07092E-09 7.49858E-12
1.21847E-09 6.09884E-12
1.37554E-09 5.02851E-12
1.54213E-09 4.19371E-12
1.71823E-09 3.53061E-12
1.90386E-09 2.99344E-12
2.09900E-09 2.56186E-12
2.30367E-09 2.20139E-12
2.51785E-09 1.90480E-12
2.74156E-09 1.65380E-12
2.97478E-09 1.44323E-12
3.21752E-09 1.26361E-12
3.46978E-09 1.11051E-12
3.73156E-09 9.79198E-13
4.00286E-09 8.65864E-13
4.28368E-09 7.68233E-13
4.57402E-09 6.83112E-13
4.87388E-09 6.09485E-13
5.18326E-09 5.44766E-13
5.50215E-09 4.88551E-13
5.83057E-09 4.38807E-13
6.16850E-09 3.95381E-13
6.51596E-09 3.56790E-13
6.87293E-09 3.22875E-13
7.23942E-09 2.92677E-13
7.61544E-09 2.65951E-13
1.18991E-08 1.12872E-13
1.71347E-08 5.56650E-14
2.33223E-08 3.06229E-14
3.04617E-08 1.82594E-14
3.85531E-08 1.15720E-14
4.75965E-08 7.69112E-15
5.75917E-08 5.31045E-15
6.85389E-08 3.78341E-15
8.04380E-08 2.76730E-15
9.32891E-08 2.06996E-15
1.07092E-07 1.57861E-15
1.21847E-07 1.22445E-15
1.37554E-07 9.64039E-16
1.54213E-07 7.69154E-16
1.71823E-07 6.21003E-16
1.90386E-07 5.06790E-16
2.09900E-07 4.17614E-16
2.30367E-07 3.47180E-16
2.51785E-07 2.90961E-16
2.74156E-07 2.45656E-16
2.97478E-07 2.08822E-16
3.21752E-07 1.78629E-16
3.46978E-07 1.53694E-16
3.73156E-07 1.32957E-16
4.00286E-07 1.15598E-16
4.28368E-07 1.00979E-16
4.57402E-07 8.85978E-17
4.87388E-07 7.80554E-17
5.18325E-07 6.90342E-17
5.50215E-07 6.12783E-17
5.83057E-07 5.45810E-17
6.16850E-07 4.87735E-17
6.51596E-07 4.37178E-17
6.87293E-07 3.93002E-17
7.23942E-07 3.54265E-17
7.61543E-07 3.20182E-17
1.18991E-06 1.31236E-17
1.71347E-06 6.33049E-18
2.33223E-06 3.41710E-18
3.04617E-06 2.00289E-18
3.85531E-06 1.25030E-18
4.75964E-06 8.20254E-19
5.75916E-06 5.60199E-19
6.85388E-06 3.95506E-19
8.04378E-06 2.87123E-19
9.32888E-06 2.13449E-19
1.07092E-05 1.61959E-19
1.21846E-05 1.25099E-19
1.37553E-05 9.81528E-20
1.54212E-05 7.80859E-20
1.71822E-05 6.28944E-20
1.90385E-05 5.12244E-20
2.09899E-05 4.21406E-20
2.30365E-05 3.49829E-20
2.51783E-05 2.92814E-20
2.74153E-05 2.46950E-20
2.97475E-05 2.09722E-20
3.21749E-05 1.79253E-20
3.46974E-05 1.54123E-20
3.73152E-05 1.33248E-20
4.00281E-05 1.15790E-20
4.28362E-05 1.01100E-20
4.57395E-05 8.86662E-21
4.87380E-05 7.80852E-21
5.18317E-05 6.90355E-21
5.50205E-05 6.12592E-21
5.83045E-05 5.45474E-21
6.16838E-05 4.87302E-21
6.51582E-05 4.36683E-21
6.87277E-05 3.92470E-21
7.23925E-05 3.53712E-21
7.61524E-05 3.19045E-21
9.21439E-05 2.17743E-21
1.09658E-04 1.53616E-21
1.28695E-04 1.11433E-21
1.49255E-04 8.27704E-22
1.71338E-04 6.27488E-22
1.94942E-04 4.84223E-22
2.20070E-04 3.79548E-22
2.46720E-04 3.01637E-22
2.74892E-04 2.42689E-22
3.04586E-04 1.97430E-22
3.35803E-04 1.62218E-22
3.68542E-04 1.34496E-22
4.02802E-04 1.12431E-22
4.38585E-04 9.46950E-23
4.75889E-04 8.03091E-23
5.14715E-04 6.85426E-23
5.55063E-04 5.88444E-23
5.96931E-04 5.07938E-23
6.40321E-04 4.40667E-23
6.85233E-04 3.84108E-23
7.31665E-04 3.36283E-23
7.79618E-04 2.95625E-23
8.29092E-04 2.60886E-23
8.80086E-04 2.31064E-23
9.32601E-04 2.05350E-23
9.86636E-04 1.83085E-23
1.04219E-03 1.63730E-23
1.09927E-03 1.46841E-23
1.15786E-03 1.32053E-23
1.21797E-03 1.19061E-23
1.27961E-03 1.07609E-23
1.34276E-03 9.74860E-24
1.40743E-03 8.85106E-24
1.47362E-03 8.05313E-24
1.54133E-03 7.34189E-24
1.61056E-03 6.70633E-24
1.68131E-03 6.13705E-24
1.75357E-03 5.62597E-24
1.82735E-03 5.16613E-24
1.90265E-03 4.75153E-24
1.97947E-03 4.37696E-24
2.05780E-03 4.03790E-24
2.13765E-03 3.73042E-24
2.21902E-03 3.45107E-24
2.30190E-03 3.19685E-24
2.38630E-03 2.96512E-24
2.47222E-03 2.75354E-24
2.55965E-03 2.56007E-24
2.64859E-03 2.38289E-24
2.73905E-03 2.22040E-24
2.83103E-03 2.07118E-24
2.92452E-03 1.93396E-24
3.01952E-03 1.80761E-24
3.11604E-03 1.69113E-24
3.21407E-03 1.58361E-24
3.31362E-03 1.48425E-24
3.41468E-03 1.39232E-24
3.51725E-03 1.30718E-24
3.62133E-03 1.22824E-24
3.72692E-03 1.15498E-24
3.83403E-03 1.08691E-24
3.94265E-03 1.02360E-24
4.05278E-03 9.64680E-25
4.16442E-03 9.09780E-25
4.27757E-03 8.58583E-25
4.39223E-03 8.10799E-25
4.50840E-03 7.66162E-25
4.62608E-03 7.24431E-25
4.74527E-03 6.85386E-25
4.86597E-03 6.48824E-25
4.98817E-03 6.14563E-25
5.11188E-03 5.82433E-25
5.23711E-03 5.52281E-25
5.36383E-03 5.23965E-25
5.49207E-03 4.97355E-25
5.62181E-03 4.72331E-25
5.75306E-03 4.48784E-25
5.88581E-03 4.26613E-25
6.02007E-03 4.05723E-25
6.15583E-03 3.86030E-25
6.29310E-03 3.67454E-25
6.43187E-03 3.49920E-25
6.57214E-03 3.33363E-25
6.71392E-03 3.17718E-25
6.85720E-03 3.02927E-25
7.00198E-03 2.88937E-25
7.14827E-03 2.75697E-25
7.29605E-03 2.63160E-25
7.44534E-03 2.51285E-25
7.59612E-03 2.40029E-25
7.97965E-03 2.14366E-25
8.37255E-03 1.91835E-25
8.77480E-03 1.72001E-25
9.18641E-03 1.54497E-25
9.60736E-03 1.39012E-25
1.00376E-02 1.25282E-25
1.04773E-02 1.13082E-25
1.09262E-02 1.02218E-25
1.13844E-02 9.25257E-26
1.18520E-02 8.38619E-26
1.23288E-02 7.61037E-26
1.28150E-02 6.91446E-26
1.33104E-02 6.28922E-26
1.38150E-02 5.72660E-26
1.43290E-02 5.21958E-26
1.48521E-02 4.76201E-26
1.53845E-02 4.34851E-26
1.59262E-02 3.97436E-26
1.64770E-02 3.63538E-26
1.70371E-02 3.32792E-26
1.76063E-02 3.04872E-26
1.81848E-02 2.79491E-26
1.87724E-02 2.56395E-26
1.93692E-02 2.35356E-26
1.99751E-02 2.16174E-26
2.05901E-02 1.98669E-26
2.12143E-02 1.82680E-26
2.18476E-02 1.68064E-26
2.24900E-02 1.54693E-26
2.31415E-02 1.42450E-26
2.38021E-02 1.31233E-26
2.44717E-02 1.20949E-26
2.51504E-02 1.11513E-26
2.58382E-02 1.02851E-26
2.65349E-02 9.48939E-27
2.72407E-02 8.75803E-27
2.79555E-02 8.08543E-27
2.86793E-02 7.46656E-27
2.94120E-02 6.89683E-27
3.01537E-02 6.37211E-27
3.09043E-02 5.88861E-27
3.16639E-02 5.44290E-27
3.24324E-02 5.03186E-27
3.32098E-02 4.65265E-27
3.39961E-02 4.30268E-27
3.47912E-02 3.97957E-27
3.55952E-02 3.68117E-27
3.64081E-02 3.40551E-27
3.72297E-02 3.15078E-27
3.80602E-02 2.91532E-27
3.88995E-02 2.69763E-27
3.97476E-02 2.49630E-27
4.06044E-02 2.31009E-27
4.14700E-02 2.13780E-27
4.23443E-02 1.97838E-27
4.32273E-02 1.83083E-27
4.41190E-02 1.69425E-27
4.50194E-02 1.56781E-27
4.59284E-02 1.45073E-27
4.68461E-02 1.34232E-27
4.87074E-02 1.14894E-27
5.06030E-02 9.83034E-28
5.25328E-02 8.40674E-28
5.44967E-02 7.18508E-28
5.64946E-02 6.13671E-28
5.85262E-02 5.23717E-28
6.05914E-02 4.46551E-28
6.26901E-02 3.80375E-28
6.48222E-02 3.23648E-28
6.69873E-02 2.75048E-28
6.91854E-02 2.33435E-28
7.14163E-02 1.97833E-28
7.36799E-02 1.67398E-28
7.59760E-02 1.41406E-28
7.83043E-02 1.19231E-28
8.06647E-02 1.00336E-28
8.30571E-02 8.42572E-29
8.54812E-02 7.05939E-29
8.79369E-02 5.90020E-29
9.04240E-02 4.91845E-29
9.29422E-02 4.08855E-29
9.54915E-02 3.38846E-29
9.80716E-02 2.79920E-29
1.00682E-01 2.30444E-29
1.03323E-01 1.89014E-29
1.05995E-01 1.54423E-29
1.08696E-01 1.25633E-29
1.11427E-01 1.01756E-29
1.14188E-01 8.20303E-30
1.16978E-01 6.58026E-30
1.19797E-01 5.25158E-30
1.22645E-01 4.16939E-30
1.25522E-01 3.29316E-30
1.28428E-01 2.58838E-30
1.31361E-01 2.02579E-30
1.34323E-01 1.58058E-30
1.37313E-01 1.23180E-30
1.40330E-01 9.61809E-31
1.43375E-01 7.55762E-31
1.46447E-01 6.01241E-31
1.49545E-01 4.87886E-31
1.52671E-01 4.07086E-31
1.55823E-01 3.51722E-31
1.59001E-01 3.15936E-31
1.62205E-01 2.94939E-31
1.65435E-01 2.84839E-31
1.68690E-01 2.82504E-31
1.71970E-01 2.85432E-31
1.75276E-01 2.91652E-31
1.78606E-01 2.99628E-31
1.81961E-01 3.08189E-31
1.85340E-01 3.16460E-31
1.88743E-01 3.23807E-31
1.92169E-01 3.29795E-31
1.95619E-01 3.34143E-31
1.99092E-01 3.36695E-31
2.02589E-01 3.37394E-31
2.06107E-01 3.36254E-31
2.09649E-01 3.33348E-31
2.13212E-01 3.28787E-31
2.16797E-01 3.22711E-31
2.20404E-01 3.15278E-31
2.24032E-01 3.06656E-31
2.27680E-01 2.97014E-31
2.31350E-01 2.86523E-31
2.35040E-01 2.75346E-31
2.38751E-01 2.63638E-31
2.42481E-01 2.51547E-31
2.46231E-01 2.39206E-31
2.50000E-01 2.26738E-31
2.53788E-01 2.14254E-31
2.57595E-01 2.01850E-31
2.61421E-01 1.89613E-31
2.65264E-01 1.77616E-31
2.69126E-01 1.65923E-31
2.73005E-01 1.54584E-31
2.76901E-01 1.43643E-31
2.80814E-01 1.33134E-31
2.84744E-01 1.23081E-31
2.88691E-01 1.13503E-31
2.92653E-01 1.04413E-31
2.96632E-01 9.58146E-32
3.00625E-01 8.77101E-32
3.04634E-01 8.00957E-32
3.08658E-01 7.29641E-32
3.12697E-01 6.63050E-32
3.16749E-01 6.01053E-32
3.20816E-01 5.43499E-32
3.24896E-01 4.90219E-32
3.28990E-01 4.41033E-32
3.33097E-01 3.95750E-32
3.37216E-01 3.54173E-32
3.41348E-01 3.16102E-32
3.45492E-01 2.81333E-32
3.49647E-01 2.49668E-32
3.53814E-01 2.20906E-32
3.57992E-01 1.94854E-32
3.62181E-01 1.71323E-32
3.66381E-01 1.50128E-32
3.70590E-01 1.31094E-32
3.74810E-01 1.14051E-32
3.79039E-01 9.88400E-33
3.83277E-01 8.53066E-33
3.87524E-01 7.33067E-33
3.91780E-01 6.27044E-33
3.96044E-01 5.33721E-33
4.00316E-01 4.51903E-33
4.04596E-01 3.80477E-33
4.08882E-01 3.18411E-33
4.13176E-01 2.64746E-33
4.17476E-01 2.18599E-33
4.21783E-01 1.79155E-33
4.26095E-01 1.45668E-33
4.30413E-01 1.17455E-33
4.34737E-01 9.38904E-34
4.39065E-01 7.44086E-34
4.43398E-01 5.84944E-34
4.47736E-01 4.56831E-34
4.52077E-01 3.55552E-34
4.56422E-01 2.77341E-34
4.60770E-01 2.18829E-34
4.65122E-01 1.77006E-34
4.69476E-01 1.49200E-34
4.73832E-01 1.33043E-34
4.78190E-01 1.26448E-34
4.82550E-01 1.27583E-34
4.86912E-01 1.34848E-34
4.91274E-01 1.46852E-34
4.95637E-01 1.62395E-34
5.00000E-01 1.80444E-34
5.04363E-01 2.00123E-34
5.08726E-01 2.20689E-34
5.13088E-01 2.41522E-34
5.17450E-01 2.62109E-34
5.21810E-01 2.82032E-34
5.26168E-01 3.00959E-34
5.30524E-01 3.18626E-34
5.34878E-01 3.34838E-34
5.39230E-01 3.49451E-34
5.43578E-01 3.62372E-34
5.47923E-01 3.73544E-34
5.52264E-01 3.82948E-34
5.56602E-01 3.90591E-34
5.60935E-01 3.96505E-34
5.65263E-01 4.00741E-34
5.69587E-01 4.03365E-34
5.73905E-01 4.04457E-34
5.78217E-01 4.04102E-34
5.82524E-01 4.02396E-34
5.86824E-01 3.99437E-34
5.91118E-01 3.95326E-34
5.95404E-01 3.90164E-34
5.99684E-01 3.84055E-34
6.03956E-01 3.77096E-34
6.08220E-01 3.69386E-34
6.12476E-01 3.61019E-34
6.16723E-01 3.52085E-34
6.20961E-01 3.42670E-34
6.25190E-01 3.32856E-34
6.29410E-01 3.22719E-34
6.33619E-01 3.12330E-34
6.37819E-01 3.01757E-34
6.42008E-01 2.91061E-34
6.46186E-01 2.80297E-34
6.50353E-01 2.69519E-34
6.54508E-01 2.58772E-34
6.58652E-01 2.48100E-34
6.62784E-01 2.37539E-34
6.66903E-01 2.27123E-34
6.71010E-01 2.16883E-34
6.75104E-01 2.06843E-34
6.79184E-01 1.97026E-34
6.83251E-01 1.87452E-34
6.87303E-01 1.78135E-34
6.91342E-01 1.69090E-34
6.95366E-01 1.60326E-34
6.99375E-01 1.51852E-34
7.03368E-01 1.43673E-34
7.07347E-01 1.35794E-34
7.11309E-01 1.28216E-34
7.15256E-01 1.20940E-34
7.19186E-01 1.13964E-34
7.23099E-01 1.07287E-34
7.26995E-01 1.00904E-34
7.30874E-01 9.48122E-35
7.34736E-01 8.90049E-35
7.38579E-01 8.34766E-35
7.42405E-01 7.82204E-35
7.46212E-01 7.32291E-35
7.50000E-01 6.84950E-35
7.53769E-01 6.40102E-35
7.57519E-01 5.97661E-35
7.61249E-01 5.57545E-35
7.64960E-01 5.19668E-35
7.68650E-01 4.83941E-35
7.72320E-01 4.50279E-35
7.75968E-01 4.18594E-35
7.79596E-01 3.88800E-35
7.83203E-01 3.60813E-35
7.86788E-01 3.34548E-35
7.90351E-01 3.09924E-35
7.93893E-01 2.86860E-35
7.97411E-01 2.65277E-35
8.00908E-01 2.45100E-35
8.04381E-01 2.26255E-35
8.07831E-01 2.08670E-35
8.11257E-01 1.92275E-35
8.14660E-01 1.77005E-35
8.18039E-01 1.62795E-35
8.21394E-01 1.49584E-35
8.24724E-01 1.37314E-35
8.28030E-01 1.25926E-35
8.31310E-01 1.15369E-35
8.34565E-01 1.05590E-35
8.37795E-01 9.65407E-36
8.40999E-01 8.81746E-36
8.44177E-01 8.04468E-36
8.47329E-01 7.33159E-36
8.50455E-01 6.67423E-36
8.53553E-01 6.06888E-36
8.56625E-01 5.51191E-36
8.59670E-01 5.00004E-36
8.62687E-01 4.53003E-36
8.65677E-01 4.09901E-36
8.68639E-01 3.70404E-36
8.71572E-01 3.34265E-36
8.74478E-01 3.01229E-36
8.77355E-01 2.71065E-36
8.80203E-01 2.43557E-36
8.83022E-01 2.18501E-36
8.85812E-01 1.95704E-36
8.88573E-01 1.74998E-36
8.91304E-01 1.56212E-36
8.94005E-01 1.39192E-36
8.96677E-01 1.23793E-36
8.99318E-01 1.09883E-36
9.01928E-01 9.73367E-37
9.04508E-01 8.60391E-37
9.07058E-01 7.58861E-37
9.09576E-01 6.67739E-37
9.12063E-01 5.86147E-37
9.14519E-01 5.13212E-37
9.16943E-01 4.48159E-37
9.19335E-01 3.90254E-37
9.21696E-01 3.38853E-37
9.24024E-01 2.93316E-37
9.26320E-01 2.53073E-37
9.28584E-01 2.17610E-37
9.30815E-01 1.86474E-37
9.33013E-01 1.59208E-37
9.35178E-01 1.35425E-37
9.37310E-01 1.14735E-37
9.39409E-01 9.68157E-38
9.41474E-01 8.13817E-38
9.43505E-01 6.81451E-38
9.45503E-01 5.68374E-38
9.47467E-01 4.72489E-38
9.49397E-01 3.91750E-38
9.51293E-01 3.24267E-38
9.53154E-01 2.68210E-38
9.54981E-01 2.22242E-38
9.56773E-01 1.84812E-38
9.58530E-01 1.55037E-38
9.60252E-01 1.31466E-38
9.61940E-01 1.13118E-38
9.63592E-01 9.94143E-39
9.65209E-01 8.94661E-39
9.66790E-01 8.26753E-39
9.68336E-01 7.81511E-39
9.69846E-01 7.58010E-39
9.71321E-01 7.46686E-39
9.72759E-01 7.49085E-39
9.74162E-01 7.57917E-39
9.75528E-01 7.73350E-39
9.76858E-01 7.90142E-39
9.78152E-01 8.07484E-39
9.79410E-01 8.24693E-39
9.80631E-01 8.39528E-39
9.81815E-01 8.50472E-39
9.82963E-01 8.57161E-39
9.84074E-01 8.59484E-39
9.85148E-01 8.57804E-39
9.86185E-01 8.50214E-39
9.87185E-01 8.37936E-39
9.88148E-01 8.19711E-39
9.89074E-01 7.95544E-39
9.89962E-01 7.69486E-39
9.90814E-01 7.38095E-39
9.91627E-01 7.03068E-39
9.92404E-01 6.64414E-39
9.93143E-01 6.23173E-39
9.93844E-01 5.79868E-39
9.94508E-01 5.35346E-39
9.95134E-01 4.88512E-39
9.95722E-01 4.41519E-39
9.96273E-01 3.95231E-39
9.96786E-01 3.49491E-39
9.97261E-01 3.04027E-39
9.97698E-01 2.60867E-39
9.98097E-01 2.19227E-39
9.98459E-01 1.81014E-39
9.98782E-01 1.44961E-39
9.99067E-01 1.12472E-39
9.99315E-01 8.37772E-40
9.99524E-01 5.83919E-40
9.99695E-01 3.82367E-40
9.99829E-01 2.18651E-40
9.99924E-01 1.00256E-40
9.99981E-01 2.76587E-41
1.00000E+00 1.04919E-41
