 #
 # Subroutine ELSEPA. Elastic scattering of electrons and positrons
 #                    by neutral atoms and positive ions
 #
 # Projectile: positron
 # Kinetic energy = 5.00000E+06 eV = 1.83747E+05 a.u.
 #
 # WARNING: High-energy factorization with free-atom DF screening.
 #          Absorption, polarization and exchange corrections are
 #          switched off.
 #          Phase shifts are calculated for the bare nucleus.
 #          Scattering amplitudes are not evaluated.
 #
 # Element: Ar,  Z =  18,  atomic weight = 3.99480E+01 g/mol
 #
 # Nuclear model: Fermi distribution
 #                Average radius = 3.65776E-13 cm
 #                Skin thickness = 5.46000E-14 cm
 #
 # Number of electrons = 18
 #
 # Total elastic cross section = 1.15643E-18 cm**2 = 4.12970E-02 a0**2
 # 1st transport cross section = 1.57992E-23 cm**2 = 5.64200E-07 a0**2
 # 2nd transport cross section = 4.54968E-23 cm**2 = 1.62472E-06 a0**2
 #
 #
 # Differential cross section:                       MU=(1-COS(THETA))/2
 #
 #  THETA        MU          DCS          DCS        Sherman      error
 #  (deg)                 (cm**2/sr)   (a0**2/sr)    function
 #----------------------------------------------------------------------
0.00000E+00 2.42578E-13
7.61557E-13 2.42577E-13
1.18994E-12 2.42576E-13
1.71346E-12 2.42576E-13
2.33225E-12 2.42575E-13
3.04617E-12 2.42574E-13
3.85530E-12 2.42573E-13
4.75964E-12 2.42572E-13
5.75917E-12 2.42570E-13
6.85391E-12 2.42569E-13
8.04379E-12 2.42568E-13
9.32893E-12 2.42566E-13
1.07092E-11 2.42564E-13
1.21847E-11 2.42562E-13
1.37554E-11 2.42560E-13
1.54213E-11 2.42558E-13
1.71823E-11 2.42556E-13
1.90386E-11 2.42554E-13
2.09900E-11 2.42552E-13
2.30367E-11 2.42549E-13
2.51785E-11 2.42547E-13
2.74156E-11 2.42544E-13
2.97478E-11 2.42541E-13
3.21752E-11 2.42538E-13
3.46979E-11 2.42535E-13
3.73157E-11 2.42532E-13
4.00286E-11 2.42529E-13
4.28368E-11 2.42525E-13
4.57402E-11 2.42522E-13
4.87388E-11 2.42518E-13
5.18325E-11 2.42514E-13
5.50215E-11 2.42511E-13
5.83057E-11 2.42507E-13
6.16850E-11 2.42503E-13
6.51595E-11 2.42498E-13
6.87293E-11 2.42494E-13
7.23943E-11 2.42490E-13
7.61544E-11 2.42485E-13
1.18991E-10 2.42434E-13
1.71347E-10 2.42372E-13
2.33223E-10 2.42299E-13
3.04617E-10 2.42214E-13
3.85531E-10 2.42119E-13
4.75965E-10 2.42012E-13
5.75917E-10 2.41895E-13
6.85389E-10 2.41766E-13
8.04380E-10 2.41627E-13
9.32891E-10 2.41476E-13
1.07092E-09 2.41315E-13
1.21847E-09 2.41142E-13
1.37554E-09 2.40959E-13
1.54213E-09 2.40765E-13
1.71823E-09 2.40560E-13
1.90386E-09 2.40345E-13
2.09900E-09 2.40118E-13
2.30367E-09 2.39881E-13
2.51785E-09 2.39634E-13
2.74156E-09 2.39375E-13
2.97478E-09 2.39106E-13
3.21752E-09 2.38828E-13
3.46978E-09 2.38537E-13
3.73156E-09 2.38237E-13
4.00286E-09 2.37927E-13
4.28368E-09 2.37606E-13
4.57402E-09 2.37276E-13
4.87388E-09 2.36934E-13
5.18326E-09 2.36583E-13
5.50215E-09 2.36222E-13
5.83057E-09 2.35850E-13
6.16850E-09 2.35470E-13
6.51596E-09 2.35079E-13
6.87293E-09 2.34678E-13
7.23942E-09 2.34269E-13
7.61544E-09 2.33848E-13
1.18991E-08 2.29139E-13
1.71347E-08 2.23563E-13
2.33223E-08 2.17216E-13
3.04617E-08 2.10196E-13
3.85531E-08 2.02617E-13
4.75965E-08 1.94589E-13
5.75917E-08 1.85794E-13
6.85389E-08 1.77092E-13
8.04380E-08 1.68856E-13
9.32891E-08 1.59562E-13
1.07092E-07 1.51018E-13
1.21847E-07 1.42458E-13
1.37554E-07 1.33827E-13
1.54213E-07 1.26015E-13
1.71823E-07 1.17787E-13
1.90386E-07 1.10213E-13
2.09900E-07 1.03105E-13
2.30367E-07 9.59574E-14
2.51785E-07 8.95599E-14
2.74156E-07 8.32627E-14
2.97478E-07 7.73802E-14
3.21752E-07 7.20621E-14
3.46978E-07 6.67557E-14
3.73156E-07 6.20100E-14
4.00286E-07 5.75394E-14
4.28368E-07 5.33253E-14
4.57402E-07 4.95467E-14
4.87388E-07 4.58825E-14
5.18325E-07 4.25654E-14
5.50215E-07 3.95151E-14
5.83057E-07 3.66313E-14
6.16850E-07 3.40328E-14
6.51596E-07 3.15864E-14
6.87293E-07 2.93402E-14
7.23942E-07 2.72958E-14
7.61543E-07 2.53649E-14
1.18991E-06 1.27990E-14
1.71347E-06 7.04920E-15
2.33223E-06 4.23878E-15
3.04617E-06 2.74462E-15
3.85531E-06 1.88205E-15
4.75964E-06 1.34642E-15
5.75916E-06 9.92180E-16
6.85388E-06 7.49311E-16
8.04378E-06 5.76146E-16
9.32888E-06 4.49457E-16
1.07092E-05 3.54929E-16
1.21846E-05 2.83292E-16
1.37553E-05 2.28311E-16
1.54212E-05 1.85649E-16
1.71822E-05 1.52225E-16
1.90385E-05 1.25807E-16
2.09899E-05 1.04755E-16
2.30365E-05 8.78430E-17
2.51783E-05 7.41547E-17
2.74153E-05 6.29976E-17
2.97475E-05 5.38423E-17
3.21749E-05 4.62807E-17
3.46974E-05 3.99963E-17
3.73152E-05 3.47417E-17
4.00281E-05 3.03225E-17
4.28362E-05 2.65853E-17
4.57395E-05 2.34082E-17
4.87380E-05 2.06937E-17
5.18317E-05 1.83634E-17
5.50205E-05 1.63539E-17
5.83045E-05 1.46137E-17
6.16838E-05 1.31006E-17
6.51582E-05 1.17797E-17
6.87277E-05 1.06225E-17
7.23925E-05 9.60493E-18
7.61524E-05 8.70717E-18
9.21439E-05 6.01830E-18
1.09658E-04 4.29559E-18
1.28695E-04 3.14909E-18
1.49255E-04 2.36134E-18
1.71338E-04 1.80531E-18
1.94942E-04 1.40361E-18
2.20070E-04 1.10754E-18
2.46720E-04 8.85415E-19
2.74892E-04 7.16156E-19
3.04586E-04 5.85370E-19
3.35803E-04 4.83032E-19
3.68542E-04 4.02046E-19
4.02802E-04 3.37288E-19
4.38585E-04 2.85018E-19
4.75889E-04 2.42461E-19
5.14715E-04 2.07533E-19
5.55063E-04 1.78656E-19
5.96931E-04 1.54616E-19
6.40321E-04 1.34476E-19
6.85233E-04 1.17502E-19
7.31665E-04 1.03116E-19
7.79618E-04 9.08596E-20
8.29092E-04 8.03672E-20
8.80086E-04 7.13423E-20
9.32601E-04 6.35466E-20
9.86636E-04 5.67845E-20
1.04219E-03 5.08964E-20
1.09927E-03 4.57503E-20
1.15786E-03 4.12371E-20
1.21797E-03 3.72657E-20
1.27961E-03 3.37601E-20
1.34276E-03 3.06563E-20
1.40743E-03 2.79004E-20
1.47362E-03 2.54467E-20
1.54133E-03 2.32563E-20
1.61056E-03 2.12962E-20
1.68131E-03 1.95378E-20
1.75357E-03 1.79569E-20
1.82735E-03 1.65324E-20
1.90265E-03 1.52461E-20
1.97947E-03 1.40823E-20
2.05780E-03 1.30272E-20
2.13765E-03 1.20689E-20
2.21902E-03 1.11970E-20
2.30190E-03 1.04022E-20
2.38630E-03 9.67658E-21
2.47222E-03 9.01301E-21
2.55965E-03 8.40525E-21
2.64859E-03 7.84776E-21
2.73905E-03 7.33564E-21
2.83103E-03 6.86453E-21
2.92452E-03 6.43057E-21
3.01952E-03 6.03029E-21
3.11604E-03 5.66062E-21
3.21407E-03 5.31878E-21
3.31362E-03 5.00231E-21
3.41468E-03 4.70898E-21
3.51725E-03 4.43679E-21
3.62133E-03 4.18395E-21
3.72692E-03 3.94882E-21
3.83403E-03 3.72995E-21
3.94265E-03 3.52599E-21
4.05278E-03 3.33576E-21
4.16442E-03 3.15816E-21
4.27757E-03 2.99219E-21
4.39223E-03 2.83696E-21
4.50840E-03 2.69164E-21
4.62608E-03 2.55549E-21
4.74527E-03 2.42782E-21
4.86597E-03 2.30800E-21
4.98817E-03 2.19546E-21
5.11188E-03 2.08969E-21
5.23711E-03 1.99019E-21
5.36383E-03 1.89653E-21
5.49207E-03 1.80830E-21
5.62181E-03 1.72513E-21
5.75306E-03 1.64668E-21
5.88581E-03 1.57262E-21
6.02007E-03 1.50266E-21
6.15583E-03 1.43654E-21
6.29310E-03 1.37399E-21
6.43187E-03 1.31481E-21
6.57214E-03 1.25877E-21
6.71392E-03 1.20567E-21
6.85720E-03 1.15534E-21
7.00198E-03 1.10760E-21
7.14827E-03 1.06229E-21
7.29605E-03 1.01927E-21
7.44534E-03 9.78403E-22
7.59612E-03 9.39555E-22
7.97965E-03 8.50522E-22
8.37255E-03 7.71760E-22
8.77480E-03 7.01882E-22
9.18641E-03 6.39714E-22
9.60736E-03 5.84259E-22
1.00376E-02 5.34666E-22
1.04773E-02 4.90208E-22
1.09262E-02 4.50262E-22
1.13844E-02 4.14290E-22
1.18520E-02 3.81827E-22
1.23288E-02 3.52471E-22
1.28150E-02 3.25873E-22
1.33104E-02 3.01728E-22
1.38150E-02 2.79770E-22
1.43290E-02 2.59766E-22
1.48521E-02 2.41512E-22
1.53845E-02 2.24827E-22
1.59262E-02 2.09552E-22
1.64770E-02 1.95548E-22
1.70371E-02 1.82689E-22
1.76063E-02 1.70865E-22
1.81848E-02 1.59978E-22
1.87724E-02 1.49941E-22
1.93692E-02 1.40676E-22
1.99751E-02 1.32111E-22
2.05901E-02 1.24186E-22
2.12143E-02 1.16843E-22
2.18476E-02 1.10032E-22
2.24900E-02 1.03708E-22
2.31415E-02 9.78297E-23
2.38021E-02 9.23597E-23
2.44717E-02 8.72647E-23
2.51504E-02 8.25143E-23
2.58382E-02 7.80811E-23
2.65349E-02 7.39399E-23
2.72407E-02 7.00682E-23
2.79555E-02 6.64451E-23
2.86793E-02 6.30518E-23
2.94120E-02 5.98712E-23
3.01537E-02 5.68873E-23
3.09043E-02 5.40860E-23
3.16639E-02 5.14538E-23
3.24324E-02 4.89789E-23
3.32098E-02 4.66500E-23
3.39961E-02 4.44570E-23
3.47912E-02 4.23906E-23
3.55952E-02 4.04420E-23
3.64081E-02 3.86033E-23
3.72297E-02 3.68672E-23
3.80602E-02 3.52270E-23
3.88995E-02 3.36763E-23
3.97476E-02 3.22094E-23
4.06044E-02 3.08209E-23
4.14700E-02 2.95058E-23
4.23443E-02 2.82597E-23
4.32273E-02 2.70781E-23
4.41190E-02 2.59571E-23
4.50194E-02 2.48932E-23
4.59284E-02 2.38827E-23
4.68461E-02 2.29226E-23
4.87074E-02 2.11417E-23
5.06030E-02 1.95290E-23
5.25328E-02 1.80660E-23
5.44967E-02 1.67363E-23
5.64946E-02 1.55257E-23
5.85262E-02 1.44216E-23
6.05914E-02 1.34130E-23
6.26901E-02 1.24902E-23
6.48222E-02 1.16447E-23
6.69873E-02 1.08689E-23
6.91854E-02 1.01559E-23
7.14163E-02 9.49986E-24
7.36799E-02 8.89537E-24
7.59760E-02 8.33769E-24
7.83043E-02 7.82254E-24
8.06647E-02 7.34611E-24
8.30571E-02 6.90499E-24
8.54812E-02 6.49608E-24
8.79369E-02 6.11663E-24
9.04240E-02 5.76414E-24
9.29422E-02 5.43634E-24
9.54915E-02 5.13122E-24
9.80716E-02 4.84691E-24
1.00682E-01 4.58176E-24
1.03323E-01 4.33423E-24
1.05995E-01 4.10295E-24
1.08696E-01 3.88667E-24
1.11427E-01 3.68424E-24
1.14188E-01 3.49461E-24
1.16978E-01 3.31683E-24
1.19797E-01 3.15004E-24
1.22645E-01 2.99342E-24
1.25522E-01 2.84626E-24
1.28428E-01 2.70787E-24
1.31361E-01 2.57764E-24
1.34323E-01 2.45501E-24
1.37313E-01 2.33944E-24
1.40330E-01 2.23048E-24
1.43375E-01 2.12766E-24
1.46447E-01 2.03058E-24
1.49545E-01 1.93886E-24
1.52671E-01 1.85216E-24
1.55823E-01 1.77015E-24
1.59001E-01 1.69253E-24
1.62205E-01 1.61903E-24
1.65435E-01 1.54939E-24
1.68690E-01 1.48336E-24
1.71970E-01 1.42073E-24
1.75276E-01 1.36130E-24
1.78606E-01 1.30487E-24
1.81961E-01 1.25126E-24
1.85340E-01 1.20030E-24
1.88743E-01 1.15185E-24
1.92169E-01 1.10575E-24
1.95619E-01 1.06188E-24
1.99092E-01 1.02010E-24
2.02589E-01 9.80294E-25
2.06107E-01 9.42359E-25
2.09649E-01 9.06189E-25
2.13212E-01 8.71687E-25
2.16797E-01 8.38761E-25
2.20404E-01 8.07329E-25
2.24032E-01 7.77309E-25
2.27680E-01 7.48627E-25
2.31350E-01 7.21214E-25
2.35040E-01 6.95002E-25
2.38751E-01 6.69930E-25
2.42481E-01 6.45940E-25
2.46231E-01 6.22977E-25
2.50000E-01 6.00989E-25
2.53788E-01 5.79927E-25
2.57595E-01 5.59746E-25
2.61421E-01 5.40402E-25
2.65264E-01 5.21854E-25
2.69126E-01 5.04064E-25
2.73005E-01 4.86996E-25
2.76901E-01 4.70614E-25
2.80814E-01 4.54888E-25
2.84744E-01 4.39785E-25
2.88691E-01 4.25277E-25
2.92653E-01 4.11336E-25
2.96632E-01 3.97936E-25
3.00625E-01 3.85053E-25
3.04634E-01 3.72663E-25
3.08658E-01 3.60744E-25
3.12697E-01 3.49275E-25
3.16749E-01 3.38236E-25
3.20816E-01 3.27608E-25
3.24896E-01 3.17373E-25
3.28990E-01 3.07515E-25
3.33097E-01 2.98016E-25
3.37216E-01 2.88861E-25
3.41348E-01 2.80037E-25
3.45492E-01 2.71528E-25
3.49647E-01 2.63322E-25
3.53814E-01 2.55406E-25
3.57992E-01 2.47768E-25
3.62181E-01 2.40396E-25
3.66381E-01 2.33280E-25
3.70590E-01 2.26410E-25
3.74810E-01 2.19774E-25
3.79039E-01 2.13365E-25
3.83277E-01 2.07173E-25
3.87524E-01 2.01189E-25
3.91780E-01 1.95405E-25
3.96044E-01 1.89813E-25
4.00316E-01 1.84406E-25
4.04596E-01 1.79177E-25
4.08882E-01 1.74119E-25
4.13176E-01 1.69225E-25
4.17476E-01 1.64489E-25
4.21783E-01 1.59905E-25
4.26095E-01 1.55467E-25
4.30413E-01 1.51171E-25
4.34737E-01 1.47010E-25
4.39065E-01 1.42980E-25
4.43398E-01 1.39076E-25
4.47736E-01 1.35293E-25
4.52077E-01 1.31628E-25
4.56422E-01 1.28074E-25
4.60770E-01 1.24630E-25
4.65122E-01 1.21290E-25
4.69476E-01 1.18052E-25
4.73832E-01 1.14911E-25
4.78190E-01 1.11864E-25
4.82550E-01 1.08908E-25
4.86912E-01 1.06039E-25
4.91274E-01 1.03256E-25
4.95637E-01 1.00554E-25
5.00000E-01 9.79304E-26
5.04363E-01 9.53836E-26
5.08726E-01 9.29105E-26
5.13088E-01 9.05085E-26
5.17450E-01 8.81754E-26
5.21810E-01 8.59089E-26
5.26168E-01 8.37067E-26
5.30524E-01 8.15667E-26
5.34878E-01 7.94869E-26
5.39230E-01 7.74653E-26
5.43578E-01 7.55001E-26
5.47923E-01 7.35894E-26
5.52264E-01 7.17314E-26
5.56602E-01 6.99245E-26
5.60935E-01 6.81671E-26
5.65263E-01 6.64576E-26
5.69587E-01 6.47945E-26
5.73905E-01 6.31763E-26
5.78217E-01 6.16016E-26
5.82524E-01 6.00691E-26
5.86824E-01 5.85775E-26
5.91118E-01 5.71255E-26
5.95404E-01 5.57119E-26
5.99684E-01 5.43355E-26
6.03956E-01 5.29953E-26
6.08220E-01 5.16901E-26
6.12476E-01 5.04188E-26
6.16723E-01 4.91806E-26
6.20961E-01 4.79742E-26
6.25190E-01 4.67989E-26
6.29410E-01 4.56538E-26
6.33619E-01 4.45378E-26
6.37819E-01 4.34503E-26
6.42008E-01 4.23902E-26
6.46186E-01 4.13570E-26
6.50353E-01 4.03497E-26
6.54508E-01 3.93677E-26
6.58652E-01 3.84101E-26
6.62784E-01 3.74764E-26
6.66903E-01 3.65659E-26
6.71010E-01 3.56778E-26
6.75104E-01 3.48116E-26
6.79184E-01 3.39666E-26
6.83251E-01 3.31424E-26
6.87303E-01 3.23382E-26
6.91342E-01 3.15535E-26
6.95366E-01 3.07878E-26
6.99375E-01 3.00407E-26
7.03368E-01 2.93115E-26
7.07347E-01 2.85997E-26
7.11309E-01 2.79050E-26
7.15256E-01 2.72269E-26
7.19186E-01 2.65649E-26
7.23099E-01 2.59186E-26
7.26995E-01 2.52875E-26
7.30874E-01 2.46714E-26
7.34736E-01 2.40697E-26
7.38579E-01 2.34821E-26
7.42405E-01 2.29082E-26
7.46212E-01 2.23478E-26
7.50000E-01 2.18003E-26
7.53769E-01 2.12656E-26
7.57519E-01 2.07432E-26
7.61249E-01 2.02329E-26
7.64960E-01 1.97344E-26
7.68650E-01 1.92473E-26
7.72320E-01 1.87714E-26
7.75968E-01 1.83063E-26
7.79596E-01 1.78519E-26
7.83203E-01 1.74078E-26
7.86788E-01 1.69739E-26
7.90351E-01 1.65497E-26
7.93893E-01 1.61352E-26
7.97411E-01 1.57301E-26
8.00908E-01 1.53341E-26
8.04381E-01 1.49471E-26
8.07831E-01 1.45687E-26
8.11257E-01 1.41989E-26
8.14660E-01 1.38373E-26
8.18039E-01 1.34839E-26
8.21394E-01 1.31384E-26
8.24724E-01 1.28006E-26
8.28030E-01 1.24703E-26
8.31310E-01 1.21475E-26
8.34565E-01 1.18318E-26
8.37795E-01 1.15232E-26
8.40999E-01 1.12214E-26
8.44177E-01 1.09264E-26
8.47329E-01 1.06379E-26
8.50455E-01 1.03558E-26
8.53553E-01 1.00800E-26
8.56625E-01 9.81040E-27
8.59670E-01 9.54675E-27
8.62687E-01 9.28896E-27
8.65677E-01 9.03692E-27
8.68639E-01 8.79049E-27
8.71572E-01 8.54955E-27
8.74478E-01 8.31398E-27
8.77355E-01 8.08366E-27
8.80203E-01 7.85850E-27
8.83022E-01 7.63837E-27
8.85812E-01 7.42316E-27
8.88573E-01 7.21279E-27
8.91304E-01 7.00714E-27
8.94005E-01 6.80613E-27
8.96677E-01 6.60964E-27
8.99318E-01 6.41760E-27
9.01928E-01 6.22991E-27
9.04508E-01 6.04649E-27
9.07058E-01 5.86725E-27
9.09576E-01 5.69210E-27
9.12063E-01 5.52097E-27
9.14519E-01 5.35378E-27
9.16943E-01 5.19045E-27
9.19335E-01 5.03091E-27
9.21696E-01 4.87509E-27
9.24024E-01 4.72291E-27
9.26320E-01 4.57431E-27
9.28584E-01 4.42923E-27
9.30815E-01 4.28759E-27
9.33013E-01 4.14934E-27
9.35178E-01 4.01441E-27
9.37310E-01 3.88275E-27
9.39409E-01 3.75429E-27
9.41474E-01 3.62899E-27
9.43505E-01 3.50678E-27
9.45503E-01 3.38762E-27
9.47467E-01 3.27146E-27
9.49397E-01 3.15823E-27
9.51293E-01 3.04790E-27
9.53154E-01 2.94042E-27
9.54981E-01 2.83574E-27
9.56773E-01 2.73382E-27
9.58530E-01 2.63462E-27
9.60252E-01 2.53809E-27
9.61940E-01 2.44419E-27
9.63592E-01 2.35288E-27
9.65209E-01 2.26413E-27
9.66790E-01 2.17790E-27
9.68336E-01 2.09416E-27
9.69846E-01 2.01286E-27
9.71321E-01 1.93397E-27
9.72759E-01 1.85747E-27
9.74162E-01 1.78332E-27
9.75528E-01 1.71149E-27
9.76858E-01 1.64196E-27
9.78152E-01 1.57468E-27
9.79410E-01 1.50965E-27
9.80631E-01 1.44682E-27
9.81815E-01 1.38617E-27
9.82963E-01 1.32769E-27
9.84074E-01 1.27134E-27
9.85148E-01 1.21711E-27
9.86185E-01 1.16497E-27
9.87185E-01 1.11490E-27
9.88148E-01 1.06688E-27
9.89074E-01 1.02090E-27
9.89962E-01 9.76923E-28
9.90814E-01 9.34947E-28
9.91627E-01 8.94951E-28
9.92404E-01 8.56918E-28
9.93143E-01 8.20835E-28
9.93844E-01 7.86686E-28
9.94508E-01 7.54458E-28
9.95134E-01 7.24139E-28
9.95722E-01 6.95716E-28
9.96273E-01 6.69179E-28
9.96786E-01 6.44516E-28
9.97261E-01 6.21719E-28
9.97698E-01 6.00779E-28
9.98097E-01 5.81686E-28
9.98459E-01 5.64434E-28
9.98782E-01 5.49017E-28
9.99067E-01 5.35427E-28
9.99315E-01 5.23660E-28
9.99524E-01 5.13711E-28
9.99695E-01 5.05576E-28
9.99829E-01 4.99252E-28
9.99924E-01 4.94737E-28
9.99981E-01 4.92028E-28
1.00000E+00 4.91128E-28
