 #
 # Subroutine ELSEPA. Elastic scattering of electrons and positrons
 #                    by neutral atoms and positive ions
 #
 # Projectile: positron
 # Kinetic energy = 2.00000E+07 eV = 7.34987E+05 a.u.
 #
 # WARNING: High-energy factorization with free-atom DF screening.
 #          Absorption, polarization and exchange corrections are
 #          switched off.
 #          Phase shifts are calculated for the bare nucleus.
 #          Scattering amplitudes are not evaluated.
 #
 # Element: Ar,  Z =  18,  atomic weight = 3.99480E+01 g/mol
 #
 # Nuclear model: Fermi distribution
 #                Average radius = 3.65776E-13 cm
 #                Skin thickness = 5.46000E-14 cm
 #
 # Number of electrons = 18
 #
 # Total elastic cross section = 1.14607E-18 cm**2 = 4.09271E-02 a0**2
 # 1st transport cross section = 1.38065E-24 cm**2 = 4.93040E-08 a0**2
 # 2nd transport cross section = 4.01343E-24 cm**2 = 1.43322E-07 a0**2
 #
 #
 # Differential cross section:                       MU=(1-COS(THETA))/2
 #
 #  THETA        MU          DCS          DCS        Sherman      error
 #  (deg)                 (cm**2/sr)   (a0**2/sr)    function
 #----------------------------------------------------------------------
0.00000E+00 3.36020E-12
7.61557E-13 3.36001E-12
1.18994E-12 3.35991E-12
1.71346E-12 3.35978E-12
2.33225E-12 3.35964E-12
3.04617E-12 3.35947E-12
3.85530E-12 3.35929E-12
4.75964E-12 3.35908E-12
5.75917E-12 3.35885E-12
6.85391E-12 3.35860E-12
8.04379E-12 3.35832E-12
9.32893E-12 3.35803E-12
1.07092E-11 3.35771E-12
1.21847E-11 3.35737E-12
1.37554E-11 3.35701E-12
1.54213E-11 3.35663E-12
1.71823E-11 3.35623E-12
1.90386E-11 3.35581E-12
2.09900E-11 3.35536E-12
2.30367E-11 3.35490E-12
2.51785E-11 3.35441E-12
2.74156E-11 3.35390E-12
2.97478E-11 3.35337E-12
3.21752E-11 3.35282E-12
3.46979E-11 3.35224E-12
3.73157E-11 3.35165E-12
4.00286E-11 3.35103E-12
4.28368E-11 3.35039E-12
4.57402E-11 3.34973E-12
4.87388E-11 3.34905E-12
5.18325E-11 3.34835E-12
5.50215E-11 3.34763E-12
5.83057E-11 3.34689E-12
6.16850E-11 3.34612E-12
6.51595E-11 3.34533E-12
6.87293E-11 3.34453E-12
7.23943E-11 3.34370E-12
7.61544E-11 3.34285E-12
1.18991E-10 3.33320E-12
1.71347E-10 3.32146E-12
2.33223E-10 3.30767E-12
3.04617E-10 3.29186E-12
3.85531E-10 3.27409E-12
4.75965E-10 3.25436E-12
5.75917E-10 3.23278E-12
6.85389E-10 3.20935E-12
8.04380E-10 3.18417E-12
9.32891E-10 3.15729E-12
1.07092E-09 3.12875E-12
1.21847E-09 3.09867E-12
1.37554E-09 3.06704E-12
1.54213E-09 3.03406E-12
1.71823E-09 2.99964E-12
1.90386E-09 2.96402E-12
2.09900E-09 2.92715E-12
2.30367E-09 2.88919E-12
2.51785E-09 2.85021E-12
2.74156E-09 2.81023E-12
2.97478E-09 2.76946E-12
3.21752E-09 2.72778E-12
3.46978E-09 2.68550E-12
3.73156E-09 2.64135E-12
4.00286E-09 2.59415E-12
4.28368E-09 2.54786E-12
4.57402E-09 2.50253E-12
4.87388E-09 2.45822E-12
5.18326E-09 2.41496E-12
5.50215E-09 2.37278E-12
5.83057E-09 2.32868E-12
6.16850E-09 2.27965E-12
6.51596E-09 2.23209E-12
6.87293E-09 2.18599E-12
7.23942E-09 2.14133E-12
7.61544E-09 2.09810E-12
1.18991E-08 1.66736E-12
1.71347E-08 1.29091E-12
2.33223E-08 9.86235E-13
3.04617E-08 7.44677E-13
3.85531E-08 5.63150E-13
4.75965E-08 4.25824E-13
5.75917E-08 3.24787E-13
6.85389E-08 2.49879E-13
8.04380E-08 1.94475E-13
9.32891E-08 1.53236E-13
1.07092E-07 1.22267E-13
1.21847E-07 9.88315E-14
1.37554E-07 8.08765E-14
1.54213E-07 6.69757E-14
1.71823E-07 5.60730E-14
1.90386E-07 4.74245E-14
2.09900E-07 4.04805E-14
2.30367E-07 3.48432E-14
2.51785E-07 3.02168E-14
2.74156E-07 2.63794E-14
2.97478E-07 2.31684E-14
3.21752E-07 2.04531E-14
3.46978E-07 1.81434E-14
3.73156E-07 1.61526E-14
4.00286E-07 1.44265E-14
4.28368E-07 1.29497E-14
4.57402E-07 1.16526E-14
4.87388E-07 1.05068E-14
5.18325E-07 9.51309E-15
5.50215E-07 8.61982E-15
5.83057E-07 7.82924E-15
6.16850E-07 7.13600E-15
6.51596E-07 6.50118E-15
6.87293E-07 5.93983E-15
7.23942E-07 5.43991E-15
7.61543E-07 4.98161E-15
1.18991E-06 2.24671E-15
1.71347E-06 1.13362E-15
2.33223E-06 6.27298E-16
3.04617E-06 3.74014E-16
3.85531E-06 2.36817E-16
4.75964E-06 1.57393E-16
5.75916E-06 1.08798E-16
6.85388E-06 7.76773E-17
8.04378E-06 5.69713E-17
9.32888E-06 4.27453E-17
1.07092E-05 3.27027E-17
1.21846E-05 2.54450E-17
1.37553E-05 2.00930E-17
1.54212E-05 1.60756E-17
1.71822E-05 1.30121E-17
1.90385E-05 1.06436E-17
2.09899E-05 8.78923E-18
2.30365E-05 7.32044E-18
2.51783E-05 6.14508E-18
2.74153E-05 5.19565E-18
2.97475E-05 4.42220E-18
3.21749E-05 3.78710E-18
3.46974E-05 3.26176E-18
3.73152E-05 2.82421E-18
4.00281E-05 2.45750E-18
4.28362E-05 2.14825E-18
4.57395E-05 1.88603E-18
4.87380E-05 1.66252E-18
5.18317E-05 1.47107E-18
5.50205E-05 1.30635E-18
5.83045E-05 1.16399E-18
6.16838E-05 1.04049E-18
6.51582E-05 9.32908E-19
6.87277E-05 8.38863E-19
7.23925E-05 7.56354E-19
7.61524E-05 6.83726E-19
9.21439E-05 4.67423E-19
1.09658E-04 3.30212E-19
1.28695E-04 2.39814E-19
1.49255E-04 1.78315E-19
1.71338E-04 1.35314E-19
1.94942E-04 1.04519E-19
2.20070E-04 8.20017E-20
2.46720E-04 6.52309E-20
2.74892E-04 5.25340E-20
3.04586E-04 4.27796E-20
3.35803E-04 3.51862E-20
3.68542E-04 2.92043E-20
4.02802E-04 2.44404E-20
4.38585E-04 2.06086E-20
4.75889E-04 1.74982E-20
5.14715E-04 1.49526E-20
5.55063E-04 1.28533E-20
5.96931E-04 1.11095E-20
6.40321E-04 9.65148E-21
6.85233E-04 8.42479E-21
7.31665E-04 7.38678E-21
7.79618E-04 6.50370E-21
8.29092E-04 5.74861E-21
8.80086E-04 5.09990E-21
9.32601E-04 4.54007E-21
9.86636E-04 4.05493E-21
1.04219E-03 3.63282E-21
1.09927E-03 3.26418E-21
1.15786E-03 2.94109E-21
1.21797E-03 2.65696E-21
1.27961E-03 2.40629E-21
1.34276E-03 2.18446E-21
1.40743E-03 1.98758E-21
1.47362E-03 1.81237E-21
1.54133E-03 1.65602E-21
1.61056E-03 1.51615E-21
1.68131E-03 1.39072E-21
1.75357E-03 1.27798E-21
1.82735E-03 1.17642E-21
1.90265E-03 1.08474E-21
1.97947E-03 1.00180E-21
2.05780E-03 9.26630E-22
2.13765E-03 8.58369E-22
2.21902E-03 7.96269E-22
2.30190E-03 7.39676E-22
2.38630E-03 6.88015E-22
2.47222E-03 6.40779E-22
2.55965E-03 5.97521E-22
2.64859E-03 5.57846E-22
2.73905E-03 5.21405E-22
2.83103E-03 4.87886E-22
2.92452E-03 4.57012E-22
3.01952E-03 4.28539E-22
3.11604E-03 4.02244E-22
3.21407E-03 3.77932E-22
3.31362E-03 3.55425E-22
3.41468E-03 3.34566E-22
3.51725E-03 3.15212E-22
3.62133E-03 2.97234E-22
3.72692E-03 2.80517E-22
3.83403E-03 2.64957E-22
3.94265E-03 2.50458E-22
4.05278E-03 2.36936E-22
4.16442E-03 2.24312E-22
4.27757E-03 2.12516E-22
4.39223E-03 2.01483E-22
4.50840E-03 1.91155E-22
4.62608E-03 1.81479E-22
4.74527E-03 1.72406E-22
4.86597E-03 1.63892E-22
4.98817E-03 1.55896E-22
5.11188E-03 1.48380E-22
5.23711E-03 1.41311E-22
5.36383E-03 1.34656E-22
5.49207E-03 1.28388E-22
5.62181E-03 1.22479E-22
5.75306E-03 1.16905E-22
5.88581E-03 1.11644E-22
6.02007E-03 1.06675E-22
6.15583E-03 1.01978E-22
6.29310E-03 9.75367E-23
6.43187E-03 9.33336E-23
6.57214E-03 8.93538E-23
6.71392E-03 8.55832E-23
6.85720E-03 8.20089E-23
7.00198E-03 7.86186E-23
7.14827E-03 7.54013E-23
7.29605E-03 7.23463E-23
7.44534E-03 6.94440E-23
7.59612E-03 6.66853E-23
7.97965E-03 6.03631E-23
8.37255E-03 5.47704E-23
8.77480E-03 4.98087E-23
9.18641E-03 4.53945E-23
9.60736E-03 4.14571E-23
1.00376E-02 3.79360E-23
1.04773E-02 3.47796E-23
1.09262E-02 3.19436E-23
1.13844E-02 2.93898E-23
1.18520E-02 2.70852E-23
1.23288E-02 2.50013E-23
1.28150E-02 2.31132E-23
1.33104E-02 2.13993E-23
1.38150E-02 1.98406E-23
1.43290E-02 1.84208E-23
1.48521E-02 1.71251E-23
1.53845E-02 1.59409E-23
1.59262E-02 1.48568E-23
1.64770E-02 1.38629E-23
1.70371E-02 1.29504E-23
1.76063E-02 1.21113E-23
1.81848E-02 1.13388E-23
1.87724E-02 1.06266E-23
1.93692E-02 9.96912E-24
1.99751E-02 9.36146E-24
2.05901E-02 8.79915E-24
2.12143E-02 8.27820E-24
2.18476E-02 7.79502E-24
2.24900E-02 7.34638E-24
2.31415E-02 6.92937E-24
2.38021E-02 6.54135E-24
2.44717E-02 6.17995E-24
2.51504E-02 5.84302E-24
2.58382E-02 5.52859E-24
2.65349E-02 5.23489E-24
2.72407E-02 4.96031E-24
2.79555E-02 4.70338E-24
2.86793E-02 4.46276E-24
2.94120E-02 4.23723E-24
3.01537E-02 4.02566E-24
3.09043E-02 3.82704E-24
3.16639E-02 3.64043E-24
3.24324E-02 3.46497E-24
3.32098E-02 3.29988E-24
3.39961E-02 3.14442E-24
3.47912E-02 2.99795E-24
3.55952E-02 2.85983E-24
3.64081E-02 2.72952E-24
3.72297E-02 2.60648E-24
3.80602E-02 2.49024E-24
3.88995E-02 2.38036E-24
3.97476E-02 2.27641E-24
4.06044E-02 2.17803E-24
4.14700E-02 2.08486E-24
4.23443E-02 1.99658E-24
4.32273E-02 1.91287E-24
4.41190E-02 1.83347E-24
4.50194E-02 1.75810E-24
4.59284E-02 1.68653E-24
4.68461E-02 1.61854E-24
4.87074E-02 1.49242E-24
5.06030E-02 1.37823E-24
5.25328E-02 1.27465E-24
5.44967E-02 1.18052E-24
5.64946E-02 1.09484E-24
5.85262E-02 1.01670E-24
6.05914E-02 9.45335E-25
6.26901E-02 8.80053E-25
6.48222E-02 8.20244E-25
6.69873E-02 7.65370E-25
6.91854E-02 7.14953E-25
7.14163E-02 6.68567E-25
7.36799E-02 6.25834E-25
7.59760E-02 5.86416E-25
7.83043E-02 5.50011E-25
8.06647E-02 5.16348E-25
8.30571E-02 4.85185E-25
8.54812E-02 4.56303E-25
8.79369E-02 4.29506E-25
9.04240E-02 4.04617E-25
9.29422E-02 3.81477E-25
9.54915E-02 3.59941E-25
9.80716E-02 3.39879E-25
1.00682E-01 3.21171E-25
1.03323E-01 3.03710E-25
1.05995E-01 2.87399E-25
1.08696E-01 2.72149E-25
1.11427E-01 2.57878E-25
1.14188E-01 2.44513E-25
1.16978E-01 2.31985E-25
1.19797E-01 2.20234E-25
1.22645E-01 2.09203E-25
1.25522E-01 1.98839E-25
1.28428E-01 1.89096E-25
1.31361E-01 1.79929E-25
1.34323E-01 1.71299E-25
1.37313E-01 1.63168E-25
1.40330E-01 1.55503E-25
1.43375E-01 1.48272E-25
1.46447E-01 1.41447E-25
1.49545E-01 1.35000E-25
1.52671E-01 1.28908E-25
1.55823E-01 1.23146E-25
1.59001E-01 1.17694E-25
1.62205E-01 1.12533E-25
1.65435E-01 1.07644E-25
1.68690E-01 1.03010E-25
1.71970E-01 9.86160E-26
1.75276E-01 9.44470E-26
1.78606E-01 9.04896E-26
1.81961E-01 8.67311E-26
1.85340E-01 8.31598E-26
1.88743E-01 7.97647E-26
1.92169E-01 7.65357E-26
1.95619E-01 7.34632E-26
1.99092E-01 7.05383E-26
2.02589E-01 6.77527E-26
2.06107E-01 6.50986E-26
2.09649E-01 6.25686E-26
2.13212E-01 6.01561E-26
2.16797E-01 5.78546E-26
2.20404E-01 5.56580E-26
2.24032E-01 5.35609E-26
2.27680E-01 5.15578E-26
2.31350E-01 4.96439E-26
2.35040E-01 4.78146E-26
2.38751E-01 4.60653E-26
2.42481E-01 4.43921E-26
2.46231E-01 4.27910E-26
2.50000E-01 4.12584E-26
2.53788E-01 3.97909E-26
2.57595E-01 3.83852E-26
2.61421E-01 3.70383E-26
2.65264E-01 3.57473E-26
2.69126E-01 3.45095E-26
2.73005E-01 3.33223E-26
2.76901E-01 3.21833E-26
2.80814E-01 3.10902E-26
2.84744E-01 3.00408E-26
2.88691E-01 2.90332E-26
2.92653E-01 2.80653E-26
2.96632E-01 2.71353E-26
3.00625E-01 2.62415E-26
3.04634E-01 2.53822E-26
3.08658E-01 2.45559E-26
3.12697E-01 2.37612E-26
3.16749E-01 2.29965E-26
3.20816E-01 2.22606E-26
3.24896E-01 2.15522E-26
3.28990E-01 2.08701E-26
3.33097E-01 2.02131E-26
3.37216E-01 1.95802E-26
3.41348E-01 1.89704E-26
3.45492E-01 1.83827E-26
3.49647E-01 1.78161E-26
3.53814E-01 1.72697E-26
3.57992E-01 1.67428E-26
3.62181E-01 1.62344E-26
3.66381E-01 1.57440E-26
3.70590E-01 1.52706E-26
3.74810E-01 1.48136E-26
3.79039E-01 1.43724E-26
3.83277E-01 1.39463E-26
3.87524E-01 1.35347E-26
3.91780E-01 1.31371E-26
3.96044E-01 1.27528E-26
4.00316E-01 1.23814E-26
4.04596E-01 1.20224E-26
4.08882E-01 1.16753E-26
4.13176E-01 1.13396E-26
4.17476E-01 1.10150E-26
4.21783E-01 1.07008E-26
4.26095E-01 1.03969E-26
4.30413E-01 1.01028E-26
4.34737E-01 9.81805E-27
4.39065E-01 9.54242E-27
4.43398E-01 9.27553E-27
4.47736E-01 9.01706E-27
4.52077E-01 8.76670E-27
4.56422E-01 8.52416E-27
4.60770E-01 8.28915E-27
4.65122E-01 8.06142E-27
4.69476E-01 7.84068E-27
4.73832E-01 7.62670E-27
4.78190E-01 7.41924E-27
4.82550E-01 7.21807E-27
4.86912E-01 7.02296E-27
4.91274E-01 6.83371E-27
4.95637E-01 6.65012E-27
5.00000E-01 6.47198E-27
5.04363E-01 6.29911E-27
5.08726E-01 6.13134E-27
5.13088E-01 5.96848E-27
5.17450E-01 5.81037E-27
5.21810E-01 5.65686E-27
5.26168E-01 5.50779E-27
5.30524E-01 5.36301E-27
5.34878E-01 5.22237E-27
5.39230E-01 5.08575E-27
5.43578E-01 4.95301E-27
5.47923E-01 4.82403E-27
5.52264E-01 4.69868E-27
5.56602E-01 4.57684E-27
5.60935E-01 4.45841E-27
5.65263E-01 4.34327E-27
5.69587E-01 4.23132E-27
5.73905E-01 4.12245E-27
5.78217E-01 4.01658E-27
5.82524E-01 3.91360E-27
5.86824E-01 3.81342E-27
5.91118E-01 3.71597E-27
5.95404E-01 3.62115E-27
5.99684E-01 3.52888E-27
6.03956E-01 3.43908E-27
6.08220E-01 3.35168E-27
6.12476E-01 3.26661E-27
6.16723E-01 3.18380E-27
6.20961E-01 3.10317E-27
6.25190E-01 3.02466E-27
6.29410E-01 2.94821E-27
6.33619E-01 2.87376E-27
6.37819E-01 2.80125E-27
6.42008E-01 2.73061E-27
6.46186E-01 2.66181E-27
6.50353E-01 2.59477E-27
6.54508E-01 2.52945E-27
6.58652E-01 2.46581E-27
6.62784E-01 2.40378E-27
6.66903E-01 2.34334E-27
6.71010E-01 2.28442E-27
6.75104E-01 2.22699E-27
6.79184E-01 2.17100E-27
6.83251E-01 2.11642E-27
6.87303E-01 2.06320E-27
6.91342E-01 2.01131E-27
6.95366E-01 1.96070E-27
6.99375E-01 1.91135E-27
7.03368E-01 1.86322E-27
7.07347E-01 1.81627E-27
7.11309E-01 1.77048E-27
7.15256E-01 1.72580E-27
7.19186E-01 1.68222E-27
7.23099E-01 1.63970E-27
7.26995E-01 1.59821E-27
7.30874E-01 1.55772E-27
7.34736E-01 1.51821E-27
7.38579E-01 1.47965E-27
7.42405E-01 1.44202E-27
7.46212E-01 1.40529E-27
7.50000E-01 1.36944E-27
7.53769E-01 1.33444E-27
7.57519E-01 1.30027E-27
7.61249E-01 1.26692E-27
7.64960E-01 1.23435E-27
7.68650E-01 1.20256E-27
7.72320E-01 1.17151E-27
7.75968E-01 1.14119E-27
7.79596E-01 1.11159E-27
7.83203E-01 1.08268E-27
7.86788E-01 1.05444E-27
7.90351E-01 1.02687E-27
7.93893E-01 9.99934E-28
7.97411E-01 9.73627E-28
8.00908E-01 9.47932E-28
8.04381E-01 9.22832E-28
8.07831E-01 8.98313E-28
8.11257E-01 8.74362E-28
8.14660E-01 8.50963E-28
8.18039E-01 8.28104E-28
8.21394E-01 8.05771E-28
8.24724E-01 7.83952E-28
8.28030E-01 7.62635E-28
8.31310E-01 7.41807E-28
8.34565E-01 7.21457E-28
8.37795E-01 7.01573E-28
8.40999E-01 6.82145E-28
8.44177E-01 6.63162E-28
8.47329E-01 6.44613E-28
8.50455E-01 6.26489E-28
8.53553E-01 6.08779E-28
8.56625E-01 5.91474E-28
8.59670E-01 5.74565E-28
8.62687E-01 5.58042E-28
8.65677E-01 5.41898E-28
8.68639E-01 5.26123E-28
8.71572E-01 5.10709E-28
8.74478E-01 4.95648E-28
8.77355E-01 4.80932E-28
8.80203E-01 4.66554E-28
8.83022E-01 4.52507E-28
8.85812E-01 4.38782E-28
8.88573E-01 4.25373E-28
8.91304E-01 4.12274E-28
8.94005E-01 3.99477E-28
8.96677E-01 3.86977E-28
8.99318E-01 3.74766E-28
9.01928E-01 3.62839E-28
9.04508E-01 3.51190E-28
9.07058E-01 3.39813E-28
9.09576E-01 3.28702E-28
9.12063E-01 3.17853E-28
9.14519E-01 3.07259E-28
9.16943E-01 2.96916E-28
9.19335E-01 2.86818E-28
9.21696E-01 2.76961E-28
9.24024E-01 2.67340E-28
9.26320E-01 2.57951E-28
9.28584E-01 2.48788E-28
9.30815E-01 2.39848E-28
9.33013E-01 2.31126E-28
9.35178E-01 2.22618E-28
9.37310E-01 2.14321E-28
9.39409E-01 2.06230E-28
9.41474E-01 1.98341E-28
9.43505E-01 1.90651E-28
9.45503E-01 1.83157E-28
9.47467E-01 1.75854E-28
9.49397E-01 1.68740E-28
9.51293E-01 1.61811E-28
9.53154E-01 1.55064E-28
9.54981E-01 1.48496E-28
9.56773E-01 1.42104E-28
9.58530E-01 1.35884E-28
9.60252E-01 1.29836E-28
9.61940E-01 1.23954E-28
9.63592E-01 1.18238E-28
9.65209E-01 1.12684E-28
9.66790E-01 1.07290E-28
9.68336E-01 1.02053E-28
9.69846E-01 9.69712E-29
9.71321E-01 9.20423E-29
9.72759E-01 8.72642E-29
9.74162E-01 8.26346E-29
9.75528E-01 7.81515E-29
9.76858E-01 7.38130E-29
9.78152E-01 6.96171E-29
9.79410E-01 6.55621E-29
9.80631E-01 6.16461E-29
9.81815E-01 5.78675E-29
9.82963E-01 5.42246E-29
9.84074E-01 5.07158E-29
9.85148E-01 4.73396E-29
9.86185E-01 4.40946E-29
9.87185E-01 4.09793E-29
9.88148E-01 3.79925E-29
9.89074E-01 3.51327E-29
9.89962E-01 3.23989E-29
9.90814E-01 2.97898E-29
9.91627E-01 2.73043E-29
9.92404E-01 2.49414E-29
9.93143E-01 2.27000E-29
9.93844E-01 2.05792E-29
9.94508E-01 1.85780E-29
9.95134E-01 1.66957E-29
9.95722E-01 1.49315E-29
9.96273E-01 1.32845E-29
9.96786E-01 1.17541E-29
9.97261E-01 1.03397E-29
9.97698E-01 9.04056E-30
9.98097E-01 7.85625E-30
9.98459E-01 6.78623E-30
9.98782E-01 5.83005E-30
9.99067E-01 4.98731E-30
9.99315E-01 4.25765E-30
9.99524E-01 3.64077E-30
9.99695E-01 3.13640E-30
9.99829E-01 2.74434E-30
9.99924E-01 2.46440E-30
9.99981E-01 2.29649E-30
1.00000E+00 2.24057E-30
