 #
 # Subroutine ELSEPA. Elastic scattering of electrons and positrons
 #                    by neutral atoms and positive ions
 #
 # Projectile: positron
 # Kinetic energy = 9.00000E+06 eV = 3.30744E+05 a.u.
 #
 # WARNING: High-energy factorization with free-atom DF screening.
 #          Absorption, polarization and exchange corrections are
 #          switched off.
 #          Phase shifts are calculated for the bare nucleus.
 #          Scattering amplitudes are not evaluated.
 #
 # Element: Ar,  Z =  18,  atomic weight = 3.99480E+01 g/mol
 #
 # Nuclear model: Fermi distribution
 #                Average radius = 3.65776E-13 cm
 #                Skin thickness = 5.46000E-14 cm
 #
 # Number of electrons = 18
 #
 # Total elastic cross section = 1.15028E-18 cm**2 = 4.10772E-02 a0**2
 # 1st transport cross section = 5.75153E-24 cm**2 = 2.05391E-07 a0**2
 # 2nd transport cross section = 1.66318E-23 cm**2 = 5.93933E-07 a0**2
 #
 #
 # Differential cross section:                       MU=(1-COS(THETA))/2
 #
 #  THETA        MU          DCS          DCS        Sherman      error
 #  (deg)                 (cm**2/sr)   (a0**2/sr)    function
 #----------------------------------------------------------------------
0.00000E+00 7.22509E-13
7.61557E-13 7.22499E-13
1.18994E-12 7.22495E-13
1.71346E-12 7.22489E-13
2.33225E-12 7.22482E-13
3.04617E-12 7.22474E-13
3.85530E-12 7.22465E-13
4.75964E-12 7.22455E-13
5.75917E-12 7.22444E-13
6.85391E-12 7.22432E-13
8.04379E-12 7.22419E-13
9.32893E-12 7.22406E-13
1.07092E-11 7.22391E-13
1.21847E-11 7.22375E-13
1.37554E-11 7.22358E-13
1.54213E-11 7.22340E-13
1.71823E-11 7.22321E-13
1.90386E-11 7.22302E-13
2.09900E-11 7.22281E-13
2.30367E-11 7.22259E-13
2.51785E-11 7.22236E-13
2.74156E-11 7.22212E-13
2.97478E-11 7.22187E-13
3.21752E-11 7.22162E-13
3.46979E-11 7.22135E-13
3.73157E-11 7.22107E-13
4.00286E-11 7.22078E-13
4.28368E-11 7.22049E-13
4.57402E-11 7.22018E-13
4.87388E-11 7.21986E-13
5.18325E-11 7.21954E-13
5.50215E-11 7.21920E-13
5.83057E-11 7.21885E-13
6.16850E-11 7.21849E-13
6.51595E-11 7.21813E-13
6.87293E-11 7.21775E-13
7.23943E-11 7.21736E-13
7.61544E-11 7.21697E-13
1.18991E-10 7.21246E-13
1.71347E-10 7.20696E-13
2.33223E-10 7.20048E-13
3.04617E-10 7.19302E-13
3.85531E-10 7.18458E-13
4.75965E-10 7.17517E-13
5.75917E-10 7.16479E-13
6.85389E-10 7.15347E-13
8.04380E-10 7.14117E-13
9.32891E-10 7.12793E-13
1.07092E-09 7.11377E-13
1.21847E-09 7.09865E-13
1.37554E-09 7.08262E-13
1.54213E-09 7.06570E-13
1.71823E-09 7.04783E-13
1.90386E-09 7.02908E-13
2.09900E-09 7.00948E-13
2.30367E-09 6.98895E-13
2.51785E-09 6.96758E-13
2.74156E-09 6.94541E-13
2.97478E-09 6.92232E-13
3.21752E-09 6.89843E-13
3.46978E-09 6.87379E-13
3.73156E-09 6.84825E-13
4.00286E-09 6.82196E-13
4.28368E-09 6.79496E-13
4.57402E-09 6.76709E-13
4.87388E-09 6.73852E-13
5.18326E-09 6.70929E-13
5.50215E-09 6.67923E-13
5.83057E-09 6.64851E-13
6.16850E-09 6.61719E-13
6.51596E-09 6.58507E-13
6.87293E-09 6.55234E-13
7.23942E-09 6.51907E-13
7.61544E-09 6.48503E-13
1.18991E-08 6.11482E-13
1.71347E-08 5.70077E-13
2.33223E-08 5.24594E-13
3.04617E-08 4.79383E-13
3.85531E-08 4.35982E-13
4.75965E-08 3.91209E-13
5.75917E-08 3.49931E-13
6.85389E-08 3.12372E-13
8.04380E-08 2.76033E-13
9.32891E-08 2.43792E-13
1.07092E-07 2.15294E-13
1.21847E-07 1.88893E-13
1.37554E-07 1.65913E-13
1.54213E-07 1.45905E-13
1.71823E-07 1.27878E-13
1.90386E-07 1.12313E-13
2.09900E-07 9.88472E-14
2.30367E-07 8.69109E-14
2.51785E-07 7.66193E-14
2.74156E-07 6.77222E-14
2.97478E-07 5.98994E-14
3.21752E-07 5.31364E-14
3.46978E-07 4.72723E-14
3.73156E-07 4.21284E-14
4.00286E-07 3.76583E-14
4.28368E-07 3.37616E-14
4.57402E-07 3.03366E-14
4.87388E-07 2.73400E-14
5.18325E-07 2.47105E-14
5.50215E-07 2.23903E-14
5.83057E-07 2.03448E-14
6.16850E-07 1.85363E-14
6.51596E-07 1.69305E-14
6.87293E-07 1.55034E-14
7.23942E-07 1.42315E-14
7.61543E-07 1.30940E-14
1.18991E-06 6.35430E-15
1.71347E-06 3.55770E-15
2.33223E-06 2.16458E-15
3.04617E-06 1.39046E-15
3.85531E-06 9.28364E-16
4.75964E-06 6.37891E-16
5.75916E-06 4.50294E-16
6.85388E-06 3.25545E-16
8.04378E-06 2.40348E-16
9.32888E-06 1.80997E-16
1.07092E-05 1.38762E-16
1.21846E-05 1.08102E-16
1.37553E-05 8.54615E-17
1.54212E-05 6.84636E-17
1.71822E-05 5.55037E-17
1.90385E-05 4.54872E-17
2.09899E-05 3.76467E-17
2.30365E-05 3.14342E-17
2.51783E-05 2.64596E-17
2.74153E-05 2.24372E-17
2.97475E-05 1.91550E-17
3.21749E-05 1.64549E-17
3.46974E-05 1.42169E-17
3.73152E-05 1.23483E-17
4.00281E-05 1.07779E-17
4.28362E-05 9.45021E-18
4.57395E-05 8.32105E-18
4.87380E-05 7.35576E-18
5.18317E-05 6.52660E-18
5.50205E-05 5.81099E-18
5.83045E-05 5.19080E-18
6.16838E-05 4.65119E-18
6.51582E-05 4.17983E-18
6.87277E-05 3.76661E-18
7.23925E-05 3.40316E-18
7.61524E-05 3.08239E-18
9.21439E-05 2.12163E-18
1.09658E-04 1.50696E-18
1.28695E-04 1.09911E-18
1.49255E-04 8.20029E-19
1.71338E-04 6.23959E-19
1.94942E-04 4.82998E-19
2.20070E-04 3.79603E-19
2.46720E-04 3.02394E-19
2.74892E-04 2.43815E-19
3.04586E-04 1.98731E-19
3.35803E-04 1.63584E-19
3.68542E-04 1.35862E-19
4.02802E-04 1.13761E-19
4.38585E-04 9.59703E-20
4.75889E-04 8.15204E-20
5.14715E-04 6.96864E-20
5.55063E-04 5.99212E-20
5.96931E-04 5.18058E-20
6.40321E-04 4.50172E-20
6.85233E-04 3.93035E-20
7.31665E-04 3.44671E-20
7.79618E-04 3.03514E-20
8.29092E-04 2.68312E-20
8.80086E-04 2.38063E-20
9.32601E-04 2.11954E-20
9.86636E-04 1.89323E-20
1.04219E-03 1.69630E-20
1.09927E-03 1.52429E-20
1.15786E-03 1.37352E-20
1.21797E-03 1.24091E-20
1.27961E-03 1.12390E-20
1.34276E-03 1.02035E-20
1.40743E-03 9.28433E-21
1.47362E-03 8.46627E-21
1.54133E-03 7.73623E-21
1.61056E-03 7.08310E-21
1.68131E-03 6.49737E-21
1.75357E-03 5.97087E-21
1.82735E-03 5.49655E-21
1.90265E-03 5.06835E-21
1.97947E-03 4.68097E-21
2.05780E-03 4.32980E-21
2.13765E-03 4.01088E-21
2.21902E-03 3.72074E-21
2.30190E-03 3.45633E-21
2.38630E-03 3.21496E-21
2.47222E-03 2.99426E-21
2.55965E-03 2.79215E-21
2.64859E-03 2.60677E-21
2.73905E-03 2.43651E-21
2.83103E-03 2.27990E-21
2.92452E-03 2.13565E-21
3.01952E-03 2.00261E-21
3.11604E-03 1.87975E-21
3.21407E-03 1.76615E-21
3.31362E-03 1.66099E-21
3.41468E-03 1.56352E-21
3.51725E-03 1.47309E-21
3.62133E-03 1.38909E-21
3.72692E-03 1.31098E-21
3.83403E-03 1.23827E-21
3.94265E-03 1.17053E-21
4.05278E-03 1.10734E-21
4.16442E-03 1.04835E-21
4.27757E-03 9.93234E-22
4.39223E-03 9.41681E-22
4.50840E-03 8.93422E-22
4.62608E-03 8.48209E-22
4.74527E-03 8.05814E-22
4.86597E-03 7.66028E-22
4.98817E-03 7.28662E-22
5.11188E-03 6.93542E-22
5.23711E-03 6.60507E-22
5.36383E-03 6.29410E-22
5.49207E-03 6.00118E-22
5.62181E-03 5.72507E-22
5.75306E-03 5.46461E-22
5.88581E-03 5.21875E-22
6.02007E-03 4.98654E-22
6.15583E-03 4.76706E-22
6.29310E-03 4.55949E-22
6.43187E-03 4.36307E-22
6.57214E-03 4.17709E-22
6.71392E-03 4.00088E-22
6.85720E-03 3.83384E-22
7.00198E-03 3.67540E-22
7.14827E-03 3.52504E-22
7.29605E-03 3.38227E-22
7.44534E-03 3.24664E-22
7.59612E-03 3.11771E-22
7.97965E-03 2.82224E-22
8.37255E-03 2.56086E-22
8.77480E-03 2.32896E-22
9.18641E-03 2.12265E-22
9.60736E-03 1.93862E-22
1.00376E-02 1.77404E-22
1.04773E-02 1.62651E-22
1.09262E-02 1.49395E-22
1.13844E-02 1.37457E-22
1.18520E-02 1.26685E-22
1.23288E-02 1.16943E-22
1.28150E-02 1.08117E-22
1.33104E-02 1.00105E-22
1.38150E-02 9.28186E-23
1.43290E-02 8.61807E-23
1.48521E-02 8.01234E-23
1.53845E-02 7.45868E-23
1.59262E-02 6.95184E-23
1.64770E-02 6.48714E-23
1.70371E-02 6.06046E-23
1.76063E-02 5.66813E-23
1.81848E-02 5.30690E-23
1.87724E-02 4.97386E-23
1.93692E-02 4.66642E-23
1.99751E-02 4.38226E-23
2.05901E-02 4.11929E-23
2.12143E-02 3.87566E-23
2.18476E-02 3.64969E-23
2.24900E-02 3.43986E-23
2.31415E-02 3.24482E-23
2.38021E-02 3.06333E-23
2.44717E-02 2.89429E-23
2.51504E-02 2.73669E-23
2.58382E-02 2.58960E-23
2.65349E-02 2.45221E-23
2.72407E-02 2.32376E-23
2.79555E-02 2.20356E-23
2.86793E-02 2.09099E-23
2.94120E-02 1.98547E-23
3.01537E-02 1.88648E-23
3.09043E-02 1.79354E-23
3.16639E-02 1.70622E-23
3.24324E-02 1.62412E-23
3.32098E-02 1.54686E-23
3.39961E-02 1.47411E-23
3.47912E-02 1.40556E-23
3.55952E-02 1.34092E-23
3.64081E-02 1.27993E-23
3.72297E-02 1.22234E-23
3.80602E-02 1.16793E-23
3.88995E-02 1.11649E-23
3.97476E-02 1.06784E-23
4.06044E-02 1.02178E-23
4.14700E-02 9.78159E-24
4.23443E-02 9.36825E-24
4.32273E-02 8.97633E-24
4.41190E-02 8.60454E-24
4.50194E-02 8.25163E-24
4.59284E-02 7.91649E-24
4.68461E-02 7.59804E-24
4.87074E-02 7.00738E-24
5.06030E-02 6.47254E-24
5.25328E-02 5.98733E-24
5.44967E-02 5.54635E-24
5.64946E-02 5.14487E-24
5.85262E-02 4.77873E-24
6.05914E-02 4.44428E-24
6.26901E-02 4.13830E-24
6.48222E-02 3.85794E-24
6.69873E-02 3.60068E-24
6.91854E-02 3.36428E-24
7.14163E-02 3.14676E-24
7.36799E-02 2.94635E-24
7.59760E-02 2.76145E-24
7.83043E-02 2.59067E-24
8.06647E-02 2.43273E-24
8.30571E-02 2.28650E-24
8.54812E-02 2.15095E-24
8.79369E-02 2.02517E-24
9.04240E-02 1.90833E-24
9.29422E-02 1.79968E-24
9.54915E-02 1.69855E-24
9.80716E-02 1.60432E-24
1.00682E-01 1.51645E-24
1.03323E-01 1.43442E-24
1.05995E-01 1.35777E-24
1.08696E-01 1.28610E-24
1.11427E-01 1.21902E-24
1.14188E-01 1.15619E-24
1.16978E-01 1.09729E-24
1.19797E-01 1.04203E-24
1.22645E-01 9.90138E-25
1.25522E-01 9.41383E-25
1.28428E-01 8.95537E-25
1.31361E-01 8.52398E-25
1.34323E-01 8.11776E-25
1.37313E-01 7.73498E-25
1.40330E-01 7.37406E-25
1.43375E-01 7.03352E-25
1.46447E-01 6.71201E-25
1.49545E-01 6.40827E-25
1.52671E-01 6.12116E-25
1.55823E-01 5.84959E-25
1.59001E-01 5.59258E-25
1.62205E-01 5.34921E-25
1.65435E-01 5.11863E-25
1.68690E-01 4.90004E-25
1.71970E-01 4.69271E-25
1.75276E-01 4.49596E-25
1.78606E-01 4.30916E-25
1.81961E-01 4.13171E-25
1.85340E-01 3.96306E-25
1.88743E-01 3.80269E-25
1.92169E-01 3.65013E-25
1.95619E-01 3.50494E-25
1.99092E-01 3.36668E-25
2.02589E-01 3.23498E-25
2.06107E-01 3.10947E-25
2.09649E-01 2.98980E-25
2.13212E-01 2.87565E-25
2.16797E-01 2.76673E-25
2.20404E-01 2.66275E-25
2.24032E-01 2.56346E-25
2.27680E-01 2.46859E-25
2.31350E-01 2.37793E-25
2.35040E-01 2.29124E-25
2.38751E-01 2.20833E-25
2.42481E-01 2.12900E-25
2.46231E-01 2.05308E-25
2.50000E-01 1.98038E-25
2.53788E-01 1.91074E-25
2.57595E-01 1.84403E-25
2.61421E-01 1.78008E-25
2.65264E-01 1.71878E-25
2.69126E-01 1.65998E-25
2.73005E-01 1.60357E-25
2.76901E-01 1.54943E-25
2.80814E-01 1.49747E-25
2.84744E-01 1.44756E-25
2.88691E-01 1.39963E-25
2.92653E-01 1.35357E-25
2.96632E-01 1.30930E-25
3.00625E-01 1.26675E-25
3.04634E-01 1.22582E-25
3.08658E-01 1.18645E-25
3.12697E-01 1.14858E-25
3.16749E-01 1.11212E-25
3.20816E-01 1.07703E-25
3.24896E-01 1.04323E-25
3.28990E-01 1.01069E-25
3.33097E-01 9.79327E-26
3.37216E-01 9.49108E-26
3.41348E-01 9.19980E-26
3.45492E-01 8.91897E-26
3.49647E-01 8.64814E-26
3.53814E-01 8.38691E-26
3.57992E-01 8.13488E-26
3.62181E-01 7.89166E-26
3.66381E-01 7.65689E-26
3.70590E-01 7.43023E-26
3.74810E-01 7.21136E-26
3.79039E-01 6.99996E-26
3.83277E-01 6.79573E-26
3.87524E-01 6.59839E-26
3.91780E-01 6.40766E-26
3.96044E-01 6.22329E-26
4.00316E-01 6.04503E-26
4.04596E-01 5.87265E-26
4.08882E-01 5.70591E-26
4.13176E-01 5.54460E-26
4.17476E-01 5.38851E-26
4.21783E-01 5.23746E-26
4.26095E-01 5.09124E-26
4.30413E-01 4.94968E-26
4.34737E-01 4.81260E-26
4.39065E-01 4.67984E-26
4.43398E-01 4.55124E-26
4.47736E-01 4.42666E-26
4.52077E-01 4.30593E-26
4.56422E-01 4.18892E-26
4.60770E-01 4.07551E-26
4.65122E-01 3.96556E-26
4.69476E-01 3.85894E-26
4.73832E-01 3.75555E-26
4.78190E-01 3.65527E-26
4.82550E-01 3.55798E-26
4.86912E-01 3.46359E-26
4.91274E-01 3.37199E-26
4.95637E-01 3.28309E-26
5.00000E-01 3.19680E-26
5.04363E-01 3.11302E-26
5.08726E-01 3.03168E-26
5.13088E-01 2.95269E-26
5.17450E-01 2.87597E-26
5.21810E-01 2.80144E-26
5.26168E-01 2.72904E-26
5.30524E-01 2.65869E-26
5.34878E-01 2.59033E-26
5.39230E-01 2.52389E-26
5.43578E-01 2.45931E-26
5.47923E-01 2.39652E-26
5.52264E-01 2.33548E-26
5.56602E-01 2.27612E-26
5.60935E-01 2.21839E-26
5.65263E-01 2.16224E-26
5.69587E-01 2.10762E-26
5.73905E-01 2.05448E-26
5.78217E-01 2.00278E-26
5.82524E-01 1.95247E-26
5.86824E-01 1.90350E-26
5.91118E-01 1.85585E-26
5.95404E-01 1.80945E-26
5.99684E-01 1.76429E-26
6.03956E-01 1.72031E-26
6.08220E-01 1.67749E-26
6.12476E-01 1.63579E-26
6.16723E-01 1.59517E-26
6.20961E-01 1.55561E-26
6.25190E-01 1.51707E-26
6.29410E-01 1.47952E-26
6.33619E-01 1.44294E-26
6.37819E-01 1.40729E-26
6.42008E-01 1.37254E-26
6.46186E-01 1.33868E-26
6.50353E-01 1.30567E-26
6.54508E-01 1.27349E-26
6.58652E-01 1.24212E-26
6.62784E-01 1.21154E-26
6.66903E-01 1.18172E-26
6.71010E-01 1.15263E-26
6.75104E-01 1.12427E-26
6.79184E-01 1.09660E-26
6.83251E-01 1.06962E-26
6.87303E-01 1.04330E-26
6.91342E-01 1.01761E-26
6.95366E-01 9.92558E-27
6.99375E-01 9.68110E-27
7.03368E-01 9.44253E-27
7.07347E-01 9.20971E-27
7.11309E-01 8.98248E-27
7.15256E-01 8.76070E-27
7.19186E-01 8.54423E-27
7.23099E-01 8.33290E-27
7.26995E-01 8.12660E-27
7.30874E-01 7.92519E-27
7.34736E-01 7.72853E-27
7.38579E-01 7.53651E-27
7.42405E-01 7.34900E-27
7.46212E-01 7.16589E-27
7.50000E-01 6.98706E-27
7.53769E-01 6.81240E-27
7.57519E-01 6.64180E-27
7.61249E-01 6.47516E-27
7.64960E-01 6.31238E-27
7.68650E-01 6.15336E-27
7.72320E-01 5.99801E-27
7.75968E-01 5.84623E-27
7.79596E-01 5.69794E-27
7.83203E-01 5.55304E-27
7.86788E-01 5.41146E-27
7.90351E-01 5.27310E-27
7.93893E-01 5.13790E-27
7.97411E-01 5.00578E-27
8.00908E-01 4.87665E-27
8.04381E-01 4.75045E-27
8.07831E-01 4.62711E-27
8.11257E-01 4.50656E-27
8.14660E-01 4.38872E-27
8.18039E-01 4.27355E-27
8.21394E-01 4.16096E-27
8.24724E-01 4.05091E-27
8.28030E-01 3.94333E-27
8.31310E-01 3.83817E-27
8.34565E-01 3.73536E-27
8.37795E-01 3.63486E-27
8.40999E-01 3.53661E-27
8.44177E-01 3.44056E-27
8.47329E-01 3.34666E-27
8.50455E-01 3.25486E-27
8.53553E-01 3.16511E-27
8.56625E-01 3.07737E-27
8.59670E-01 2.99160E-27
8.62687E-01 2.90774E-27
8.65677E-01 2.82576E-27
8.68639E-01 2.74561E-27
8.71572E-01 2.66726E-27
8.74478E-01 2.59066E-27
8.77355E-01 2.51579E-27
8.80203E-01 2.44259E-27
8.83022E-01 2.37104E-27
8.85812E-01 2.30110E-27
8.88573E-01 2.23274E-27
8.91304E-01 2.16592E-27
8.94005E-01 2.10062E-27
8.96677E-01 2.03679E-27
8.99318E-01 1.97442E-27
9.01928E-01 1.91346E-27
9.04508E-01 1.85390E-27
9.07058E-01 1.79570E-27
9.09576E-01 1.73884E-27
9.12063E-01 1.68329E-27
9.14519E-01 1.62902E-27
9.16943E-01 1.57601E-27
9.19335E-01 1.52424E-27
9.21696E-01 1.47368E-27
9.24024E-01 1.42431E-27
9.26320E-01 1.37610E-27
9.28584E-01 1.32904E-27
9.30815E-01 1.28310E-27
9.33013E-01 1.23826E-27
9.35178E-01 1.19451E-27
9.37310E-01 1.15182E-27
9.39409E-01 1.11017E-27
9.41474E-01 1.06955E-27
9.43505E-01 1.02994E-27
9.45503E-01 9.91316E-28
9.47467E-01 9.53668E-28
9.49397E-01 9.16977E-28
9.51293E-01 8.81228E-28
9.53154E-01 8.46404E-28
9.54981E-01 8.12492E-28
9.56773E-01 7.79476E-28
9.58530E-01 7.47342E-28
9.60252E-01 7.16077E-28
9.61940E-01 6.85668E-28
9.63592E-01 6.56101E-28
9.65209E-01 6.27363E-28
9.66790E-01 5.99444E-28
9.68336E-01 5.72331E-28
9.69846E-01 5.46012E-28
9.71321E-01 5.20477E-28
9.72759E-01 4.95715E-28
9.74162E-01 4.71716E-28
9.75528E-01 4.48470E-28
9.76858E-01 4.25967E-28
9.78152E-01 4.04198E-28
9.79410E-01 3.83154E-28
9.80631E-01 3.62826E-28
9.81815E-01 3.43206E-28
9.82963E-01 3.24286E-28
9.84074E-01 3.06058E-28
9.85148E-01 2.88515E-28
9.86185E-01 2.71650E-28
9.87185E-01 2.55455E-28
9.88148E-01 2.39925E-28
9.89074E-01 2.25053E-28
9.89962E-01 2.10833E-28
9.90814E-01 1.97258E-28
9.91627E-01 1.84325E-28
9.92404E-01 1.72027E-28
9.93143E-01 1.60360E-28
9.93844E-01 1.49319E-28
9.94508E-01 1.38899E-28
9.95134E-01 1.29097E-28
9.95722E-01 1.19908E-28
9.96273E-01 1.11329E-28
9.96786E-01 1.03357E-28
9.97261E-01 9.59872E-29
9.97698E-01 8.92180E-29
9.98097E-01 8.30464E-29
9.98459E-01 7.74699E-29
9.98782E-01 7.24864E-29
9.99067E-01 6.80937E-29
9.99315E-01 6.42903E-29
9.99524E-01 6.10745E-29
9.99695E-01 5.84452E-29
9.99829E-01 5.64013E-29
9.99924E-01 5.49418E-29
9.99981E-01 5.40664E-29
1.00000E+00 5.37750E-29
