 #
 # Subroutine ELSEPA. Elastic scattering of electrons and positrons
 #                    by neutral atoms and positive ions
 #
 # Projectile: positron
 # Kinetic energy = 2.50000E+08 eV = 9.18733E+06 a.u.
 #
 # WARNING: High-energy factorization with free-atom DF screening.
 #          Absorption, polarization and exchange corrections are
 #          switched off.
 #          Phase shifts are calculated for the bare nucleus.
 #          Scattering amplitudes are not evaluated.
 #
 # Element: Ar,  Z =  18,  atomic weight = 3.99480E+01 g/mol
 #
 # Nuclear model: Fermi distribution
 #                Average radius = 3.65776E-13 cm
 #                Skin thickness = 5.46000E-14 cm
 #
 # Number of electrons = 18
 #
 # Total elastic cross section = 1.14535E-18 cm**2 = 4.09011E-02 a0**2
 # 1st transport cross section = 1.09215E-26 cm**2 = 3.90014E-10 a0**2
 # 2nd transport cross section = 3.26920E-26 cm**2 = 1.16745E-09 a0**2
 #
 #
 # Differential cross section:                       MU=(1-COS(THETA))/2
 #
 #  THETA        MU          DCS          DCS        Sherman      error
 #  (deg)                 (cm**2/sr)   (a0**2/sr)    function
 #----------------------------------------------------------------------
0.00000E+00 5.01239E-10
7.61557E-13 4.97392E-10
1.18994E-12 4.95254E-10
1.71346E-12 4.92660E-10
2.33225E-12 4.89620E-10
3.04617E-12 4.86147E-10
3.85530E-12 4.82251E-10
4.75964E-12 4.77948E-10
5.75917E-12 4.73255E-10
6.85391E-12 4.68192E-10
8.04379E-12 4.62772E-10
9.32893E-12 4.57012E-10
1.07092E-11 4.50939E-10
1.21847E-11 4.44575E-10
1.37554E-11 4.37938E-10
1.54213E-11 4.31038E-10
1.71823E-11 4.23911E-10
1.90386E-11 4.16580E-10
2.09900E-11 4.09067E-10
2.30367E-11 4.01373E-10
2.51785E-11 3.93310E-10
2.74156E-11 3.84742E-10
2.97478E-11 3.76381E-10
3.21752E-11 3.68241E-10
3.46979E-11 3.60333E-10
3.73157E-11 3.52666E-10
4.00286E-11 3.44205E-10
4.28368E-11 3.35415E-10
4.57402E-11 3.26950E-10
4.87388E-11 3.18807E-10
5.18325E-11 3.10982E-10
5.50215E-11 3.03468E-10
5.83057E-11 2.94800E-10
6.16850E-11 2.86422E-10
6.51595E-11 2.78413E-10
6.87293E-11 2.70760E-10
7.23943E-11 2.63450E-10
7.61544E-11 2.56110E-10
1.18991E-10 1.87282E-10
1.71347E-10 1.33995E-10
2.33223E-10 9.51419E-11
3.04617E-10 6.76759E-11
3.85531E-10 4.85094E-11
4.75965E-10 3.52633E-11
5.75917E-10 2.60884E-11
6.85389E-10 1.96656E-11
8.04380E-10 1.51080E-11
9.32891E-10 1.18248E-11
1.07092E-09 9.41881E-12
1.21847E-09 7.62328E-12
1.37554E-09 6.25935E-12
1.54213E-09 5.20520E-12
1.71823E-09 4.37738E-12
1.90386E-09 3.71732E-12
2.09900E-09 3.18362E-12
2.30367E-09 2.74613E-12
2.51785E-09 2.38243E-12
2.74156E-09 2.07793E-12
2.97478E-09 1.82546E-12
3.21752E-09 1.60569E-12
3.46978E-09 1.42128E-12
3.73156E-09 1.26026E-12
4.00286E-09 1.12207E-12
4.28368E-09 1.00176E-12
4.57402E-09 8.96334E-13
4.87388E-09 8.04844E-13
5.18326E-09 7.23291E-13
5.50215E-09 6.52543E-13
5.83057E-09 5.88914E-13
6.16850E-09 5.33219E-13
6.51596E-09 4.83424E-13
6.87293E-09 4.39208E-13
7.23942E-09 3.99824E-13
7.61544E-09 3.64464E-13
1.18991E-08 1.58022E-13
1.71347E-08 7.83332E-14
2.33223E-08 4.30929E-14
3.04617E-08 2.56746E-14
3.85531E-08 1.62687E-14
4.75965E-08 1.08196E-14
5.75917E-08 7.47977E-15
6.85389E-08 5.33757E-15
8.04380E-08 3.91090E-15
9.32891E-08 2.93056E-15
1.07092E-07 2.23876E-15
1.21847E-07 1.73924E-15
1.37554E-07 1.37132E-15
1.54213E-07 1.09551E-15
1.71823E-07 8.85523E-16
1.90386E-07 7.23395E-16
2.09900E-07 5.96637E-16
2.30367E-07 4.96400E-16
2.51785E-07 4.16299E-16
2.74156E-07 3.51691E-16
2.97478E-07 2.99118E-16
3.21752E-07 2.55990E-16
3.46978E-07 2.20347E-16
3.73156E-07 1.90686E-16
4.00286E-07 1.65844E-16
4.28368E-07 1.44912E-16
4.57402E-07 1.27175E-16
4.87388E-07 1.12067E-16
5.18325E-07 9.91350E-17
5.50215E-07 8.80133E-17
5.83057E-07 7.84064E-17
6.16850E-07 7.00738E-17
6.51596E-07 6.28183E-17
6.87293E-07 5.64771E-17
7.23942E-07 5.09156E-17
7.61543E-07 4.60215E-17
1.18991E-06 1.88742E-17
1.71347E-06 9.10668E-18
2.33223E-06 4.91659E-18
3.04617E-06 2.88218E-18
3.85531E-06 1.79919E-18
4.75964E-06 1.18036E-18
5.75916E-06 8.06135E-19
6.85388E-06 5.69139E-19
8.04378E-06 4.13176E-19
9.32888E-06 3.07157E-19
1.07092E-05 2.33062E-19
1.21846E-05 1.80020E-19
1.37553E-05 1.41244E-19
1.54212E-05 1.12367E-19
1.71822E-05 9.05064E-20
1.90385E-05 7.37131E-20
2.09899E-05 6.06413E-20
2.30365E-05 5.03412E-20
2.51783E-05 4.21366E-20
2.74153E-05 3.55367E-20
2.97475E-05 3.01795E-20
3.21749E-05 2.57949E-20
3.46974E-05 2.21787E-20
3.73152E-05 1.91747E-20
4.00281E-05 1.66625E-20
4.28362E-05 1.45485E-20
4.57395E-05 1.27593E-20
4.87380E-05 1.12366E-20
5.18317E-05 9.93438E-21
5.50205E-05 8.81535E-21
5.83045E-05 7.84951E-21
6.16838E-05 7.01240E-21
6.51582E-05 6.28398E-21
6.87277E-05 5.64773E-21
7.23925E-05 5.09000E-21
7.61524E-05 4.59399E-21
9.21439E-05 3.13578E-21
1.09658E-04 2.21263E-21
1.28695E-04 1.60533E-21
1.49255E-04 1.19264E-21
1.71338E-04 9.04345E-22
1.94942E-04 6.98030E-22
2.20070E-04 5.47271E-22
2.46720E-04 4.35046E-22
2.74892E-04 3.50124E-22
3.04586E-04 2.84914E-22
3.35803E-04 2.34173E-22
3.68542E-04 1.94218E-22
4.02802E-04 1.62412E-22
4.38585E-04 1.36842E-22
4.75889E-04 1.16098E-22
5.14715E-04 9.91273E-23
5.55063E-04 8.51372E-23
5.96931E-04 7.35213E-23
6.40321E-04 6.38131E-23
6.85233E-04 5.56489E-23
7.31665E-04 4.87437E-23
7.79618E-04 4.28720E-23
8.29092E-04 3.78538E-23
8.80086E-04 3.35449E-23
9.32601E-04 2.98284E-23
9.86636E-04 2.66095E-23
1.04219E-03 2.38105E-23
1.09927E-03 2.13674E-23
1.15786E-03 1.92276E-23
1.21797E-03 1.73469E-23
1.27961E-03 1.56888E-23
1.34276E-03 1.42225E-23
1.40743E-03 1.29221E-23
1.47362E-03 1.17655E-23
1.54133E-03 1.07342E-23
1.61056E-03 9.81233E-24
1.68131E-03 8.98625E-24
1.75357E-03 8.24434E-24
1.82735E-03 7.57654E-24
1.90265E-03 6.97418E-24
1.97947E-03 6.42975E-24
2.05780E-03 5.93673E-24
2.13765E-03 5.48942E-24
2.21902E-03 5.08286E-24
2.30190E-03 4.71269E-24
2.38630E-03 4.37510E-24
2.47222E-03 4.06673E-24
2.55965E-03 3.78460E-24
2.64859E-03 3.52611E-24
2.73905E-03 3.28893E-24
2.83103E-03 3.07099E-24
2.92452E-03 2.87047E-24
3.01952E-03 2.68574E-24
3.11604E-03 2.51534E-24
3.21407E-03 2.35796E-24
3.31362E-03 2.21244E-24
3.41468E-03 2.07773E-24
3.51725E-03 1.95288E-24
3.62133E-03 1.83706E-24
3.72692E-03 1.72949E-24
3.83403E-03 1.62950E-24
3.94265E-03 1.53644E-24
4.05278E-03 1.44976E-24
4.16442E-03 1.36895E-24
4.27757E-03 1.29353E-24
4.39223E-03 1.22310E-24
4.50840E-03 1.15726E-24
4.62608E-03 1.09566E-24
4.74527E-03 1.03798E-24
4.86597E-03 9.83928E-25
4.98817E-03 9.33241E-25
5.11188E-03 8.85672E-25
5.23711E-03 8.40995E-25
5.36383E-03 7.99006E-25
5.49207E-03 7.59515E-25
5.62181E-03 7.22348E-25
5.75306E-03 6.87345E-25
5.88581E-03 6.54360E-25
6.02007E-03 6.23255E-25
6.15583E-03 5.93907E-25
6.29310E-03 5.66198E-25
6.43187E-03 5.40023E-25
6.57214E-03 5.15281E-25
6.71392E-03 4.91882E-25
6.85720E-03 4.69740E-25
7.00198E-03 4.48776E-25
7.14827E-03 4.28918E-25
7.29605E-03 4.10097E-25
7.44534E-03 3.92251E-25
7.59612E-03 3.75320E-25
7.97965E-03 3.36648E-25
8.37255E-03 3.02607E-25
8.77480E-03 2.72562E-25
9.18641E-03 2.45972E-25
9.60736E-03 2.22383E-25
1.00376E-02 2.01405E-25
1.04773E-02 1.82707E-25
1.09262E-02 1.66006E-25
1.13844E-02 1.51057E-25
1.18520E-02 1.37650E-25
1.23288E-02 1.25604E-25
1.28150E-02 1.14761E-25
1.33104E-02 1.04984E-25
1.38150E-02 9.61530E-26
1.43290E-02 8.81647E-26
1.48521E-02 8.09274E-26
1.53845E-02 7.43610E-26
1.59262E-02 6.83949E-26
1.64770E-02 6.29669E-26
1.70371E-02 5.80223E-26
1.76063E-02 5.35123E-26
1.81848E-02 4.93939E-26
1.87724E-02 4.56287E-26
1.93692E-02 4.21827E-26
1.99751E-02 3.90254E-26
2.05901E-02 3.61297E-26
2.12143E-02 3.34714E-26
2.18476E-02 3.10286E-26
2.24900E-02 2.87819E-26
2.31415E-02 2.67136E-26
2.38021E-02 2.48080E-26
2.44717E-02 2.30510E-26
2.51504E-02 2.14295E-26
2.58382E-02 1.99320E-26
2.65349E-02 1.85481E-26
2.72407E-02 1.72682E-26
2.79555E-02 1.60837E-26
2.86793E-02 1.49868E-26
2.94120E-02 1.39703E-26
3.01537E-02 1.30278E-26
3.09043E-02 1.21534E-26
3.16639E-02 1.13417E-26
3.24324E-02 1.05878E-26
3.32098E-02 9.88715E-27
3.39961E-02 9.23575E-27
3.47912E-02 8.62981E-27
3.55952E-02 8.06589E-27
3.64081E-02 7.54085E-27
3.72297E-02 7.05178E-27
3.80602E-02 6.59603E-27
3.88995E-02 6.17115E-27
3.97476E-02 5.77491E-27
4.06044E-02 5.40523E-27
4.14700E-02 5.06021E-27
4.23443E-02 4.73809E-27
4.32273E-02 4.43725E-27
4.41190E-02 4.15619E-27
4.50194E-02 3.89354E-27
4.59284E-02 3.64802E-27
4.68461E-02 3.41844E-27
4.87074E-02 3.00282E-27
5.06030E-02 2.63887E-27
5.25328E-02 2.31986E-27
5.44967E-02 2.04002E-27
5.64946E-02 1.79435E-27
5.85262E-02 1.57853E-27
6.05914E-02 1.38882E-27
6.26901E-02 1.22196E-27
6.48222E-02 1.07514E-27
6.69873E-02 9.45901E-28
6.91854E-02 8.32094E-28
7.14163E-02 7.31851E-28
7.36799E-02 6.43536E-28
7.59760E-02 5.65718E-28
7.83043E-02 4.97143E-28
8.06647E-02 4.36710E-28
8.30571E-02 3.83453E-28
8.54812E-02 3.36524E-28
8.79369E-02 2.95176E-28
9.04240E-02 2.58751E-28
9.29422E-02 2.26672E-28
9.54915E-02 1.98427E-28
9.80716E-02 1.73568E-28
1.00682E-01 1.51696E-28
1.03323E-01 1.32462E-28
1.05995E-01 1.15556E-28
1.08696E-01 1.00704E-28
1.11427E-01 8.76661E-29
1.14188E-01 7.62276E-29
1.16978E-01 6.62000E-29
1.19797E-01 5.74164E-29
1.22645E-01 4.97292E-29
1.25522E-01 4.30079E-29
1.28428E-01 3.71372E-29
1.31361E-01 3.20150E-29
1.34323E-01 2.75512E-29
1.37313E-01 2.36661E-29
1.40330E-01 2.02892E-29
1.43375E-01 1.73582E-29
1.46447E-01 1.48183E-29
1.49545E-01 1.26210E-29
1.52671E-01 1.07234E-29
1.55823E-01 9.08785E-30
1.59001E-01 7.68103E-30
1.62205E-01 6.47366E-30
1.65435E-01 5.43997E-30
1.68690E-01 4.55726E-30
1.71970E-01 3.80561E-30
1.75276E-01 3.16753E-30
1.78606E-01 2.62766E-30
1.81961E-01 2.17256E-30
1.85340E-01 1.79047E-30
1.88743E-01 1.47110E-30
1.92169E-01 1.20547E-30
1.95619E-01 9.85757E-31
1.99092E-01 8.05158E-31
2.02589E-01 6.57756E-31
2.06107E-01 5.38424E-31
2.09649E-01 4.42724E-31
2.13212E-01 3.66825E-31
2.16797E-01 3.07427E-31
2.20404E-01 2.61695E-31
2.24032E-01 2.27201E-31
2.27680E-01 2.01871E-31
2.31350E-01 1.83941E-31
2.35040E-01 1.71915E-31
2.38751E-01 1.64530E-31
2.42481E-01 1.60729E-31
2.46231E-01 1.59626E-31
2.50000E-01 1.60487E-31
2.53788E-01 1.62709E-31
2.57595E-01 1.65798E-31
2.61421E-01 1.69357E-31
2.65264E-01 1.73070E-31
2.69126E-01 1.76688E-31
2.73005E-01 1.80020E-31
2.76901E-01 1.82925E-31
2.80814E-01 1.85303E-31
2.84744E-01 1.87085E-31
2.88691E-01 1.88231E-31
2.92653E-01 1.88724E-31
2.96632E-01 1.88564E-31
3.00625E-01 1.87766E-31
3.04634E-01 1.86356E-31
3.08658E-01 1.84367E-31
3.12697E-01 1.81841E-31
3.16749E-01 1.78820E-31
3.20816E-01 1.75353E-31
3.24896E-01 1.71487E-31
3.28990E-01 1.67271E-31
3.33097E-01 1.62753E-31
3.37216E-01 1.57978E-31
3.41348E-01 1.52993E-31
3.45492E-01 1.47840E-31
3.49647E-01 1.42558E-31
3.53814E-01 1.37185E-31
3.57992E-01 1.31756E-31
3.62181E-01 1.26303E-31
3.66381E-01 1.20855E-31
3.70590E-01 1.15437E-31
3.74810E-01 1.10074E-31
3.79039E-01 1.04785E-31
3.83277E-01 9.95904E-32
3.87524E-01 9.45045E-32
3.91780E-01 8.95414E-32
3.96044E-01 8.47124E-32
4.00316E-01 8.00272E-32
4.04596E-01 7.54933E-32
4.08882E-01 7.11168E-32
4.13176E-01 6.69021E-32
4.17476E-01 6.28524E-32
4.21783E-01 5.89694E-32
4.26095E-01 5.52538E-32
4.30413E-01 5.17055E-32
4.34737E-01 4.83231E-32
4.39065E-01 4.51047E-32
4.43398E-01 4.20478E-32
4.47736E-01 3.91491E-32
4.52077E-01 3.64048E-32
4.56422E-01 3.38110E-32
4.60770E-01 3.13631E-32
4.65122E-01 2.90564E-32
4.69476E-01 2.68859E-32
4.73832E-01 2.48467E-32
4.78190E-01 2.29334E-32
4.82550E-01 2.11408E-32
4.86912E-01 1.94635E-32
4.91274E-01 1.78964E-32
4.95637E-01 1.64342E-32
5.00000E-01 1.50716E-32
5.04363E-01 1.38035E-32
5.08726E-01 1.26251E-32
5.13088E-01 1.15313E-32
5.17450E-01 1.05175E-32
5.21810E-01 9.57902E-33
5.26168E-01 8.71149E-33
5.30524E-01 7.91059E-33
5.34878E-01 7.17222E-33
5.39230E-01 6.49242E-33
5.43578E-01 5.86744E-33
5.47923E-01 5.29366E-33
5.52264E-01 4.76765E-33
5.56602E-01 4.28614E-33
5.60935E-01 3.84604E-33
5.65263E-01 3.44441E-33
5.69587E-01 3.07846E-33
5.73905E-01 2.74559E-33
5.78217E-01 2.44330E-33
5.82524E-01 2.16929E-33
5.86824E-01 1.92136E-33
5.91118E-01 1.69746E-33
5.95404E-01 1.49567E-33
5.99684E-01 1.31419E-33
6.03956E-01 1.15133E-33
6.08220E-01 1.00555E-33
6.12476E-01 8.75362E-34
6.16723E-01 7.59423E-34
6.20961E-01 6.56467E-34
6.25190E-01 5.65325E-34
6.29410E-01 4.84912E-34
6.33619E-01 4.14227E-34
6.37819E-01 3.52341E-34
6.42008E-01 2.98402E-34
6.46186E-01 2.51621E-34
6.50353E-01 2.11276E-34
6.54508E-01 1.76701E-34
6.58652E-01 1.47286E-34
6.62784E-01 1.22475E-34
6.66903E-01 1.01756E-34
6.71010E-01 8.46627E-35
6.75104E-01 7.07735E-35
6.79184E-01 5.97017E-35
6.83251E-01 5.10968E-35
6.87303E-01 4.46429E-35
6.91342E-01 4.00525E-35
6.95366E-01 3.70665E-35
6.99375E-01 3.54525E-35
7.03368E-01 3.50032E-35
7.07347E-01 3.55292E-35
7.11309E-01 3.68642E-35
7.15256E-01 3.88592E-35
7.19186E-01 4.13827E-35
7.23099E-01 4.43178E-35
7.26995E-01 4.75611E-35
7.30874E-01 5.10234E-35
7.34736E-01 5.46243E-35
7.38579E-01 5.82980E-35
7.42405E-01 6.19831E-35
7.46212E-01 6.56308E-35
7.50000E-01 6.91976E-35
7.53769E-01 7.26487E-35
7.57519E-01 7.59529E-35
7.61249E-01 7.90867E-35
7.64960E-01 8.20305E-35
7.68650E-01 8.47696E-35
7.72320E-01 8.72924E-35
7.75968E-01 8.95913E-35
7.79596E-01 9.16614E-35
7.83203E-01 9.35004E-35
7.86788E-01 9.51081E-35
7.90351E-01 9.64860E-35
7.93893E-01 9.76383E-35
7.97411E-01 9.85694E-35
8.00908E-01 9.92856E-35
8.04381E-01 9.97935E-35
8.07831E-01 1.00102E-34
8.11257E-01 1.00217E-34
8.14660E-01 1.00151E-34
8.18039E-01 9.99103E-35
8.21394E-01 9.95058E-35
8.24724E-01 9.89464E-35
8.28030E-01 9.82425E-35
8.31310E-01 9.74030E-35
8.34565E-01 9.64378E-35
8.37795E-01 9.53564E-35
8.40999E-01 9.41679E-35
8.44177E-01 9.28817E-35
8.47329E-01 9.15059E-35
8.50455E-01 9.00496E-35
8.53553E-01 8.85206E-35
8.56625E-01 8.69270E-35
8.59670E-01 8.52761E-35
8.62687E-01 8.35754E-35
8.65677E-01 8.18314E-35
8.68639E-01 8.00509E-35
8.71572E-01 7.82398E-35
8.74478E-01 7.64041E-35
8.77355E-01 7.45491E-35
8.80203E-01 7.26800E-35
8.83022E-01 7.08016E-35
8.85812E-01 6.89185E-35
8.88573E-01 6.70347E-35
8.91304E-01 6.51542E-35
8.94005E-01 6.32804E-35
8.96677E-01 6.14169E-35
8.99318E-01 5.95665E-35
9.01928E-01 5.77320E-35
9.04508E-01 5.59161E-35
9.07058E-01 5.41209E-35
9.09576E-01 5.23488E-35
9.12063E-01 5.06013E-35
9.14519E-01 4.88803E-35
9.16943E-01 4.71873E-35
9.19335E-01 4.55236E-35
9.21696E-01 4.38902E-35
9.24024E-01 4.22883E-35
9.26320E-01 4.07186E-35
9.28584E-01 3.91819E-35
9.30815E-01 3.76788E-35
9.33013E-01 3.62097E-35
9.35178E-01 3.47750E-35
9.37310E-01 3.33750E-35
9.39409E-01 3.20097E-35
9.41474E-01 3.06794E-35
9.43505E-01 2.93840E-35
9.45503E-01 2.81233E-35
9.47467E-01 2.68975E-35
9.49397E-01 2.57060E-35
9.51293E-01 2.45489E-35
9.53154E-01 2.34256E-35
9.54981E-01 2.23360E-35
9.56773E-01 2.12796E-35
9.58530E-01 2.02560E-35
9.60252E-01 1.92648E-35
9.61940E-01 1.83054E-35
9.63592E-01 1.73774E-35
9.65209E-01 1.64805E-35
9.66790E-01 1.56138E-35
9.68336E-01 1.47769E-35
9.69846E-01 1.39693E-35
9.71321E-01 1.31904E-35
9.72759E-01 1.24397E-35
9.74162E-01 1.17166E-35
9.75528E-01 1.10206E-35
9.76858E-01 1.03510E-35
9.78152E-01 9.70733E-36
9.79410E-01 9.08907E-36
9.80631E-01 8.49563E-36
9.81815E-01 7.92641E-36
9.82963E-01 7.38099E-36
9.84074E-01 6.85881E-36
9.85148E-01 6.35934E-36
9.86185E-01 5.88215E-36
9.87185E-01 5.42668E-36
9.88148E-01 4.99244E-36
9.89074E-01 4.57903E-36
9.89962E-01 4.18603E-36
9.90814E-01 3.81296E-36
9.91627E-01 3.45943E-36
9.92404E-01 3.12502E-36
9.93143E-01 2.80938E-36
9.93844E-01 2.51213E-36
9.94508E-01 2.23293E-36
9.95134E-01 1.97147E-36
9.95722E-01 1.72741E-36
9.96273E-01 1.50049E-36
9.96786E-01 1.29041E-36
9.97261E-01 1.09691E-36
9.97698E-01 9.19808E-37
9.98097E-01 7.58830E-37
9.98459E-01 6.13756E-37
9.98782E-01 4.84467E-37
9.99067E-01 3.70756E-37
9.99315E-01 2.72508E-37
9.99524E-01 1.89580E-37
9.99695E-01 1.21883E-37
9.99829E-01 6.93266E-38
9.99924E-01 3.18190E-38
9.99981E-01 9.33412E-39
1.00000E+00 1.86956E-39
