 #
 # Subroutine ELSEPA. Elastic scattering of electrons and positrons
 #                    by neutral atoms and positive ions
 #
 # Projectile: positron
 # Kinetic energy = 6.00000E+06 eV = 2.20496E+05 a.u.
 #
 # WARNING: High-energy factorization with free-atom DF screening.
 #          Absorption, polarization and exchange corrections are
 #          switched off.
 #          Phase shifts are calculated for the bare nucleus.
 #          Scattering amplitudes are not evaluated.
 #
 # Element: Ar,  Z =  18,  atomic weight = 3.99480E+01 g/mol
 #
 # Nuclear model: Fermi distribution
 #                Average radius = 3.65776E-13 cm
 #                Skin thickness = 5.46000E-14 cm
 #
 # Number of electrons = 18
 #
 # Total elastic cross section = 1.15403E-18 cm**2 = 4.12110E-02 a0**2
 # 1st transport cross section = 1.15975E-23 cm**2 = 4.14154E-07 a0**2
 # 2nd transport cross section = 3.34430E-23 cm**2 = 1.19427E-06 a0**2
 #
 #
 # Differential cross section:                       MU=(1-COS(THETA))/2
 #
 #  THETA        MU          DCS          DCS        Sherman      error
 #  (deg)                 (cm**2/sr)   (a0**2/sr)    function
 #----------------------------------------------------------------------
0.00000E+00 3.38600E-13
7.61557E-13 3.38597E-13
1.18994E-12 3.38596E-13
1.71346E-12 3.38595E-13
2.33225E-12 3.38593E-13
3.04617E-12 3.38591E-13
3.85530E-12 3.38589E-13
4.75964E-12 3.38587E-13
5.75917E-12 3.38585E-13
6.85391E-12 3.38582E-13
8.04379E-12 3.38579E-13
9.32893E-12 3.38576E-13
1.07092E-11 3.38573E-13
1.21847E-11 3.38569E-13
1.37554E-11 3.38566E-13
1.54213E-11 3.38562E-13
1.71823E-11 3.38557E-13
1.90386E-11 3.38553E-13
2.09900E-11 3.38548E-13
2.30367E-11 3.38544E-13
2.51785E-11 3.38538E-13
2.74156E-11 3.38533E-13
2.97478E-11 3.38528E-13
3.21752E-11 3.38522E-13
3.46979E-11 3.38516E-13
3.73157E-11 3.38510E-13
4.00286E-11 3.38504E-13
4.28368E-11 3.38497E-13
4.57402E-11 3.38490E-13
4.87388E-11 3.38483E-13
5.18325E-11 3.38476E-13
5.50215E-11 3.38469E-13
5.83057E-11 3.38461E-13
6.16850E-11 3.38453E-13
6.51595E-11 3.38445E-13
6.87293E-11 3.38437E-13
7.23943E-11 3.38428E-13
7.61544E-11 3.38419E-13
1.18991E-10 3.38320E-13
1.71347E-10 3.38199E-13
2.33223E-10 3.38056E-13
3.04617E-10 3.37892E-13
3.85531E-10 3.37706E-13
4.75965E-10 3.37499E-13
5.75917E-10 3.37270E-13
6.85389E-10 3.37019E-13
8.04380E-10 3.36748E-13
9.32891E-10 3.36454E-13
1.07092E-09 3.36141E-13
1.21847E-09 3.35805E-13
1.37554E-09 3.35449E-13
1.54213E-09 3.35072E-13
1.71823E-09 3.34673E-13
1.90386E-09 3.34255E-13
2.09900E-09 3.33815E-13
2.30367E-09 3.33356E-13
2.51785E-09 3.32875E-13
2.74156E-09 3.32375E-13
2.97478E-09 3.31853E-13
3.21752E-09 3.31313E-13
3.46978E-09 3.30752E-13
3.73156E-09 3.30172E-13
4.00286E-09 3.29572E-13
4.28368E-09 3.28953E-13
4.57402E-09 3.28315E-13
4.87388E-09 3.27657E-13
5.18326E-09 3.26982E-13
5.50215E-09 3.26285E-13
5.83057E-09 3.25573E-13
6.16850E-09 3.24839E-13
6.51596E-09 3.24090E-13
6.87293E-09 3.23320E-13
7.23942E-09 3.22535E-13
7.61544E-09 3.21731E-13
1.18991E-08 3.12769E-13
1.71347E-08 3.02280E-13
2.33223E-08 2.90512E-13
3.04617E-08 2.77700E-13
3.85531E-08 2.63807E-13
4.75965E-08 2.49220E-13
5.75917E-08 2.35538E-13
6.85389E-08 2.20321E-13
8.04380E-08 2.06560E-13
9.32891E-08 1.91951E-13
1.07092E-07 1.78593E-13
1.21847E-07 1.65239E-13
1.37554E-07 1.52754E-13
1.54213E-07 1.40889E-13
1.71823E-07 1.29578E-13
1.90386E-07 1.19251E-13
2.09900E-07 1.09258E-13
2.30367E-07 1.00403E-13
2.51785E-07 9.17520E-14
2.74156E-07 8.41681E-14
2.97478E-07 7.68709E-14
3.21752E-07 7.03990E-14
3.46978E-07 6.43484E-14
3.73156E-07 5.88875E-14
4.00286E-07 5.38888E-14
4.28368E-07 4.93196E-14
4.57402E-07 4.51979E-14
4.87388E-07 4.13974E-14
5.18325E-07 3.80008E-14
5.50215E-07 3.48518E-14
5.83057E-07 3.20464E-14
6.16850E-07 2.94480E-14
6.51596E-07 2.71202E-14
6.87293E-07 2.49853E-14
7.23942E-07 2.30548E-14
7.61543E-07 2.12951E-14
1.18991E-06 1.03179E-14
1.71347E-06 5.65474E-15
2.33223E-06 3.42947E-15
3.04617E-06 2.23967E-15
3.85531E-06 1.53814E-15
4.75964E-06 1.09599E-15
5.75916E-06 8.01890E-16
6.85388E-06 5.98823E-16
8.04378E-06 4.54715E-16
9.32888E-06 3.50296E-16
1.07092E-05 2.73182E-16
1.21846E-05 2.15610E-16
1.37553E-05 1.72093E-16
1.54212E-05 1.38805E-16
1.71822E-05 1.13058E-16
1.90385E-05 9.29357E-17
2.09899E-05 7.70559E-17
2.30365E-05 6.43978E-17
2.51783E-05 5.42242E-17
2.74153E-05 4.59799E-17
2.97475E-05 3.92459E-17
3.21749E-05 3.37043E-17
3.46974E-05 2.91115E-17
3.73152E-05 2.52793E-17
4.00281E-05 2.20610E-17
4.28362E-05 1.93421E-17
4.57395E-05 1.70322E-17
4.87380E-05 1.50593E-17
5.18317E-05 1.33659E-17
5.50205E-05 1.19055E-17
5.83045E-05 1.06406E-17
6.16838E-05 9.54028E-18
6.51582E-05 8.57944E-18
6.87277E-05 7.73728E-18
7.23925E-05 6.99650E-18
7.61524E-05 6.34269E-18
9.21439E-05 4.38276E-18
1.09658E-04 3.12575E-18
1.28695E-04 2.28886E-18
1.49255E-04 1.71401E-18
1.71338E-04 1.30854E-18
1.94942E-04 1.01593E-18
2.20070E-04 8.00525E-19
2.46720E-04 6.39145E-19
2.74892E-04 5.16341E-19
3.04586E-04 4.21580E-19
3.35803E-04 3.47530E-19
3.68542E-04 2.88998E-19
4.02802E-04 2.42255E-19
4.38585E-04 2.04564E-19
4.75889E-04 1.73907E-19
5.14715E-04 1.48770E-19
5.55063E-04 1.28003E-19
5.96931E-04 1.10729E-19
6.40321E-04 9.62657E-20
6.85233E-04 8.40834E-20
7.31665E-04 7.37644E-20
7.79618E-04 6.49777E-20
8.29092E-04 5.74586E-20
8.80086E-04 5.09943E-20
9.32601E-04 4.54122E-20
9.86636E-04 4.05720E-20
1.04219E-03 3.63587E-20
1.09927E-03 3.26773E-20
1.15786E-03 2.94495E-20
1.21797E-03 2.66098E-20
1.27961E-03 2.41038E-20
1.34276E-03 2.18854E-20
1.40743E-03 1.99160E-20
1.47362E-03 1.81628E-20
1.54133E-03 1.65981E-20
1.61056E-03 1.51980E-20
1.68131E-03 1.39422E-20
1.75357E-03 1.28132E-20
1.82735E-03 1.17961E-20
1.90265E-03 1.08777E-20
1.97947E-03 1.00468E-20
2.05780E-03 9.29366E-21
2.13765E-03 8.60964E-21
2.21902E-03 7.98729E-21
2.30190E-03 7.42008E-21
2.38630E-03 6.90224E-21
2.47222E-03 6.42872E-21
2.55965E-03 5.99504E-21
2.64859E-03 5.59726E-21
2.73905E-03 5.23186E-21
2.83103E-03 4.89575E-21
2.92452E-03 4.58614E-21
3.01952E-03 4.30059E-21
3.11604E-03 4.03687E-21
3.21407E-03 3.79302E-21
3.31362E-03 3.56727E-21
3.41468E-03 3.35803E-21
3.51725E-03 3.16388E-21
3.62133E-03 2.98353E-21
3.72692E-03 2.81583E-21
3.83403E-03 2.65971E-21
3.94265E-03 2.51425E-21
4.05278E-03 2.37858E-21
4.16442E-03 2.25191E-21
4.27757E-03 2.13354E-21
4.39223E-03 2.02282E-21
4.50840E-03 1.91916E-21
4.62608E-03 1.82204E-21
4.74527E-03 1.73098E-21
4.86597E-03 1.64552E-21
4.98817E-03 1.56525E-21
5.11188E-03 1.48982E-21
5.23711E-03 1.41886E-21
5.36383E-03 1.35206E-21
5.49207E-03 1.28914E-21
5.62181E-03 1.22983E-21
5.75306E-03 1.17389E-21
5.88581E-03 1.12108E-21
6.02007E-03 1.07120E-21
6.15583E-03 1.02405E-21
6.29310E-03 9.79465E-22
6.43187E-03 9.37273E-22
6.57214E-03 8.97322E-22
6.71392E-03 8.59472E-22
6.85720E-03 8.23591E-22
7.00198E-03 7.89558E-22
7.14827E-03 7.57260E-22
7.29605E-03 7.26592E-22
7.44534E-03 6.97456E-22
7.59612E-03 6.69762E-22
7.97965E-03 6.06293E-22
8.37255E-03 5.50146E-22
8.77480E-03 5.00332E-22
9.18641E-03 4.56014E-22
9.60736E-03 4.16482E-22
1.00376E-02 3.81128E-22
1.04773E-02 3.49436E-22
1.09262E-02 3.20960E-22
1.13844E-02 2.95317E-22
1.18520E-02 2.72175E-22
1.23288E-02 2.51249E-22
1.28150E-02 2.32288E-22
1.33104E-02 2.15076E-22
1.38150E-02 1.99424E-22
1.43290E-02 1.85164E-22
1.48521E-02 1.72151E-22
1.53845E-02 1.60257E-22
1.59262E-02 1.49369E-22
1.64770E-02 1.39386E-22
1.70371E-02 1.30219E-22
1.76063E-02 1.21791E-22
1.81848E-02 1.14030E-22
1.87724E-02 1.06876E-22
1.93692E-02 1.00271E-22
1.99751E-02 9.41659E-23
2.05901E-02 8.85164E-23
2.12143E-02 8.32822E-23
2.18476E-02 7.84274E-23
2.24900E-02 7.39194E-23
2.31415E-02 6.97290E-23
2.38021E-02 6.58299E-23
2.44717E-02 6.21981E-23
2.51504E-02 5.88119E-23
2.58382E-02 5.56518E-23
2.65349E-02 5.27000E-23
2.72407E-02 4.99402E-23
2.79555E-02 4.73576E-23
2.86793E-02 4.49389E-23
2.94120E-02 4.26717E-23
3.01537E-02 4.05448E-23
3.09043E-02 3.85480E-23
3.16639E-02 3.66718E-23
3.24324E-02 3.49077E-23
3.32098E-02 3.32477E-23
3.39961E-02 3.16845E-23
3.47912E-02 3.02116E-23
3.55952E-02 2.88227E-23
3.64081E-02 2.75121E-23
3.72297E-02 2.62746E-23
3.80602E-02 2.51055E-23
3.88995E-02 2.40002E-23
3.97476E-02 2.29546E-23
4.06044E-02 2.19649E-23
4.14700E-02 2.10276E-23
4.23443E-02 2.01394E-23
4.32273E-02 1.92972E-23
4.41190E-02 1.84983E-23
4.50194E-02 1.77399E-23
4.59284E-02 1.70197E-23
4.68461E-02 1.63353E-23
4.87074E-02 1.50660E-23
5.06030E-02 1.39166E-23
5.25328E-02 1.28739E-23
5.44967E-02 1.19261E-23
5.64946E-02 1.10633E-23
5.85262E-02 1.02764E-23
6.05914E-02 9.55754E-24
6.26901E-02 8.89989E-24
6.48222E-02 8.29730E-24
6.69873E-02 7.74434E-24
6.91854E-02 7.23622E-24
7.14163E-02 6.76866E-24
7.36799E-02 6.33785E-24
7.59760E-02 5.94040E-24
7.83043E-02 5.57328E-24
8.06647E-02 5.23375E-24
8.30571E-02 4.91938E-24
8.54812E-02 4.62797E-24
8.79369E-02 4.35756E-24
9.04240E-02 4.10636E-24
9.29422E-02 3.87277E-24
9.54915E-02 3.65533E-24
9.80716E-02 3.45273E-24
1.00682E-01 3.26378E-24
1.03323E-01 3.08740E-24
1.05995E-01 2.92259E-24
1.08696E-01 2.76847E-24
1.11427E-01 2.62422E-24
1.14188E-01 2.48910E-24
1.16978E-01 2.36243E-24
1.19797E-01 2.24358E-24
1.22645E-01 2.13198E-24
1.25522E-01 2.02712E-24
1.28428E-01 1.92852E-24
1.31361E-01 1.83573E-24
1.34323E-01 1.74835E-24
1.37313E-01 1.66601E-24
1.40330E-01 1.58837E-24
1.43375E-01 1.51512E-24
1.46447E-01 1.44595E-24
1.49545E-01 1.38061E-24
1.52671E-01 1.31884E-24
1.55823E-01 1.26041E-24
1.59001E-01 1.20511E-24
1.62205E-01 1.15275E-24
1.65435E-01 1.10313E-24
1.68690E-01 1.05610E-24
1.71970E-01 1.01148E-24
1.75276E-01 9.69141E-25
1.78606E-01 9.28939E-25
1.81961E-01 8.90749E-25
1.85340E-01 8.54451E-25
1.88743E-01 8.19935E-25
1.92169E-01 7.87098E-25
1.95619E-01 7.55845E-25
1.99092E-01 7.26085E-25
2.02589E-01 6.97733E-25
2.06107E-01 6.70713E-25
2.09649E-01 6.44950E-25
2.13212E-01 6.20375E-25
2.16797E-01 5.96923E-25
2.20404E-01 5.74536E-25
2.24032E-01 5.53155E-25
2.27680E-01 5.32727E-25
2.31350E-01 5.13202E-25
2.35040E-01 4.94534E-25
2.38751E-01 4.76679E-25
2.42481E-01 4.59593E-25
2.46231E-01 4.43240E-25
2.50000E-01 4.27581E-25
2.53788E-01 4.12582E-25
2.57595E-01 3.98210E-25
2.61421E-01 3.84435E-25
2.65264E-01 3.71227E-25
2.69126E-01 3.58559E-25
2.73005E-01 3.46405E-25
2.76901E-01 3.34741E-25
2.80814E-01 3.23542E-25
2.84744E-01 3.12789E-25
2.88691E-01 3.02458E-25
2.92653E-01 2.92532E-25
2.96632E-01 2.82992E-25
3.00625E-01 2.73819E-25
3.04634E-01 2.64998E-25
3.08658E-01 2.56512E-25
3.12697E-01 2.48347E-25
3.16749E-01 2.40488E-25
3.20816E-01 2.32922E-25
3.24896E-01 2.25636E-25
3.28990E-01 2.18617E-25
3.33097E-01 2.11855E-25
3.37216E-01 2.05339E-25
3.41348E-01 1.99057E-25
3.45492E-01 1.93000E-25
3.49647E-01 1.87159E-25
3.53814E-01 1.81524E-25
3.57992E-01 1.76088E-25
3.62181E-01 1.70841E-25
3.66381E-01 1.65776E-25
3.70590E-01 1.60886E-25
3.74810E-01 1.56164E-25
3.79039E-01 1.51602E-25
3.83277E-01 1.47195E-25
3.87524E-01 1.42936E-25
3.91780E-01 1.38820E-25
3.96044E-01 1.34841E-25
4.00316E-01 1.30993E-25
4.04596E-01 1.27272E-25
4.08882E-01 1.23673E-25
4.13176E-01 1.20190E-25
4.17476E-01 1.16820E-25
4.21783E-01 1.13559E-25
4.26095E-01 1.10401E-25
4.30413E-01 1.07344E-25
4.34737E-01 1.04384E-25
4.39065E-01 1.01517E-25
4.43398E-01 9.87393E-26
4.47736E-01 9.60481E-26
4.52077E-01 9.34401E-26
4.56422E-01 9.09125E-26
4.60770E-01 8.84621E-26
4.65122E-01 8.60864E-26
4.69476E-01 8.37827E-26
4.73832E-01 8.15484E-26
4.78190E-01 7.93811E-26
4.82550E-01 7.72784E-26
4.86912E-01 7.52382E-26
4.91274E-01 7.32582E-26
4.95637E-01 7.13364E-26
5.00000E-01 6.94708E-26
5.04363E-01 6.76595E-26
5.08726E-01 6.59007E-26
5.13088E-01 6.41925E-26
5.17450E-01 6.25334E-26
5.21810E-01 6.09216E-26
5.26168E-01 5.93556E-26
5.30524E-01 5.78339E-26
5.34878E-01 5.63550E-26
5.39230E-01 5.49176E-26
5.43578E-01 5.35203E-26
5.47923E-01 5.21617E-26
5.52264E-01 5.08408E-26
5.56602E-01 4.95561E-26
5.60935E-01 4.83067E-26
5.65263E-01 4.70914E-26
5.69587E-01 4.59091E-26
5.73905E-01 4.47587E-26
5.78217E-01 4.36393E-26
5.82524E-01 4.25500E-26
5.86824E-01 4.14897E-26
5.91118E-01 4.04576E-26
5.95404E-01 3.94529E-26
5.99684E-01 3.84747E-26
6.03956E-01 3.75221E-26
6.08220E-01 3.65945E-26
6.12476E-01 3.56910E-26
6.16723E-01 3.48110E-26
6.20961E-01 3.39537E-26
6.25190E-01 3.31186E-26
6.29410E-01 3.23048E-26
6.33619E-01 3.15118E-26
6.37819E-01 3.07390E-26
6.42008E-01 2.99859E-26
6.46186E-01 2.92517E-26
6.50353E-01 2.85360E-26
6.54508E-01 2.78383E-26
6.58652E-01 2.71581E-26
6.62784E-01 2.64947E-26
6.66903E-01 2.58479E-26
6.71010E-01 2.52170E-26
6.75104E-01 2.46017E-26
6.79184E-01 2.40015E-26
6.83251E-01 2.34160E-26
6.87303E-01 2.28448E-26
6.91342E-01 2.22875E-26
6.95366E-01 2.17437E-26
6.99375E-01 2.12130E-26
7.03368E-01 2.06951E-26
7.07347E-01 2.01897E-26
7.11309E-01 1.96964E-26
7.15256E-01 1.92148E-26
7.19186E-01 1.87447E-26
7.23099E-01 1.82858E-26
7.26995E-01 1.78377E-26
7.30874E-01 1.74002E-26
7.34736E-01 1.69730E-26
7.38579E-01 1.65558E-26
7.42405E-01 1.61484E-26
7.46212E-01 1.57505E-26
7.50000E-01 1.53619E-26
7.53769E-01 1.49822E-26
7.57519E-01 1.46114E-26
7.61249E-01 1.42492E-26
7.64960E-01 1.38953E-26
7.68650E-01 1.35496E-26
7.72320E-01 1.32118E-26
7.75968E-01 1.28817E-26
7.79596E-01 1.25592E-26
7.83203E-01 1.22441E-26
7.86788E-01 1.19361E-26
7.90351E-01 1.16351E-26
7.93893E-01 1.13410E-26
7.97411E-01 1.10535E-26
8.00908E-01 1.07725E-26
8.04381E-01 1.04978E-26
8.07831E-01 1.02294E-26
8.11257E-01 9.96699E-27
8.14660E-01 9.71048E-27
8.18039E-01 9.45973E-27
8.21394E-01 9.21460E-27
8.24724E-01 8.97496E-27
8.28030E-01 8.74069E-27
8.31310E-01 8.51165E-27
8.34565E-01 8.28773E-27
8.37795E-01 8.06881E-27
8.40999E-01 7.85477E-27
8.44177E-01 7.64551E-27
8.47329E-01 7.44091E-27
8.50455E-01 7.24086E-27
8.53553E-01 7.04528E-27
8.56625E-01 6.85405E-27
8.59670E-01 6.66708E-27
8.62687E-01 6.48427E-27
8.65677E-01 6.30554E-27
8.68639E-01 6.13080E-27
8.71572E-01 5.95996E-27
8.74478E-01 5.79293E-27
8.77355E-01 5.62963E-27
8.80203E-01 5.46998E-27
8.83022E-01 5.31391E-27
8.85812E-01 5.16135E-27
8.88573E-01 5.01220E-27
8.91304E-01 4.86642E-27
8.94005E-01 4.72392E-27
8.96677E-01 4.58464E-27
8.99318E-01 4.44851E-27
9.01928E-01 4.31547E-27
9.04508E-01 4.18545E-27
9.07058E-01 4.05841E-27
9.09576E-01 3.93427E-27
9.12063E-01 3.81298E-27
9.14519E-01 3.69449E-27
9.16943E-01 3.57874E-27
9.19335E-01 3.46568E-27
9.21696E-01 3.35525E-27
9.24024E-01 3.24741E-27
9.26320E-01 3.14211E-27
9.28584E-01 3.03930E-27
9.30815E-01 2.93894E-27
9.33013E-01 2.84098E-27
9.35178E-01 2.74537E-27
9.37310E-01 2.65209E-27
9.39409E-01 2.56107E-27
9.41474E-01 2.47230E-27
9.43505E-01 2.38572E-27
9.45503E-01 2.30129E-27
9.47467E-01 2.21900E-27
9.49397E-01 2.13879E-27
9.51293E-01 2.06063E-27
9.53154E-01 1.98449E-27
9.54981E-01 1.91034E-27
9.56773E-01 1.83814E-27
9.58530E-01 1.76787E-27
9.60252E-01 1.69949E-27
9.61940E-01 1.63298E-27
9.63592E-01 1.56831E-27
9.65209E-01 1.50545E-27
9.66790E-01 1.44438E-27
9.68336E-01 1.38507E-27
9.69846E-01 1.32749E-27
9.71321E-01 1.27162E-27
9.72759E-01 1.21744E-27
9.74162E-01 1.16493E-27
9.75528E-01 1.11406E-27
9.76858E-01 1.06482E-27
9.78152E-01 1.01717E-27
9.79410E-01 9.71119E-28
9.80631E-01 9.26628E-28
9.81815E-01 8.83685E-28
9.82963E-01 8.42272E-28
9.84074E-01 8.02373E-28
9.85148E-01 7.63970E-28
9.86185E-01 7.27050E-28
9.87185E-01 6.91597E-28
9.88148E-01 6.57597E-28
9.89074E-01 6.25036E-28
9.89962E-01 5.93901E-28
9.90814E-01 5.64181E-28
9.91627E-01 5.35862E-28
9.92404E-01 5.08934E-28
9.93143E-01 4.83386E-28
9.93844E-01 4.59209E-28
9.94508E-01 4.36391E-28
9.95134E-01 4.14925E-28
9.95722E-01 3.94802E-28
9.96273E-01 3.76014E-28
9.96786E-01 3.58554E-28
9.97261E-01 3.42414E-28
9.97698E-01 3.27589E-28
9.98097E-01 3.14072E-28
9.98459E-01 3.01858E-28
9.98782E-01 2.90943E-28
9.99067E-01 2.81322E-28
9.99315E-01 2.72992E-28
9.99524E-01 2.65948E-28
9.99695E-01 2.60189E-28
9.99829E-01 2.55713E-28
9.99924E-01 2.52516E-28
9.99981E-01 2.50599E-28
1.00000E+00 2.49961E-28
