 #
 # Subroutine ELSEPA. Elastic scattering of electrons and positrons
 #                    by neutral atoms and positive ions
 #
 # Projectile: electron
 # Kinetic energy = 6.00000E+07 eV = 2.20496E+06 a.u.
 #
 # WARNING: High-energy factorization with free-atom DF screening.
 #          Absorption, polarization and exchange corrections are
 #          switched off.
 #          Phase shifts are calculated for the bare nucleus.
 #          Scattering amplitudes are not evaluated.
 #
 # Element: Sb,  Z =  51,  atomic weight = 1.21760E+02 g/mol
 #
 # Nuclear model: Fermi distribution
 #                Average radius = 5.30337E-13 cm
 #                Skin thickness = 5.46000E-14 cm
 #
 # Number of electrons = 51
 #
 # Total elastic cross section = 5.31521E-18 cm**2 = 1.89810E-01 a0**2
 # 1st transport cross section = 1.40013E-24 cm**2 = 4.99997E-08 a0**2
 # 2nd transport cross section = 4.12504E-24 cm**2 = 1.47308E-07 a0**2
 #
 #
 # Differential cross section:                       MU=(1-COS(THETA))/2
 #
 #  THETA        MU          DCS          DCS        Sherman      error
 #  (deg)                 (cm**2/sr)   (a0**2/sr)    function
 #----------------------------------------------------------------------
0.00000E+00 1.66172E-10
7.61557E-13 1.66029E-10
1.18994E-12 1.65949E-10
1.71346E-12 1.65851E-10
2.33225E-12 1.65736E-10
3.04617E-12 1.65604E-10
3.85530E-12 1.65454E-10
4.75964E-12 1.65286E-10
5.75917E-12 1.65101E-10
6.85391E-12 1.64900E-10
8.04379E-12 1.64681E-10
9.32893E-12 1.64445E-10
1.07092E-11 1.64192E-10
1.21847E-11 1.63922E-10
1.37554E-11 1.63636E-10
1.54213E-11 1.63333E-10
1.71823E-11 1.63014E-10
1.90386E-11 1.62679E-10
2.09900E-11 1.62328E-10
2.30367E-11 1.61961E-10
2.51785E-11 1.61578E-10
2.74156E-11 1.61180E-10
2.97478E-11 1.60767E-10
3.21752E-11 1.60338E-10
3.46979E-11 1.59895E-10
3.73157E-11 1.59437E-10
4.00286E-11 1.58965E-10
4.28368E-11 1.58478E-10
4.57402E-11 1.57977E-10
4.87388E-11 1.57463E-10
5.18325E-11 1.56935E-10
5.50215E-11 1.56393E-10
5.83057E-11 1.55839E-10
6.16850E-11 1.55272E-10
6.51595E-11 1.54687E-10
6.87293E-11 1.54088E-10
7.23943E-11 1.53480E-10
7.61544E-11 1.52861E-10
1.18991E-10 1.46107E-10
1.71347E-10 1.38483E-10
2.33223E-10 1.30270E-10
3.04617E-10 1.21734E-10
3.85531E-10 1.13111E-10
4.75965E-10 1.04592E-10
5.75917E-10 9.63203E-11
6.85389E-10 8.84361E-11
8.04380E-10 8.10177E-11
9.32891E-10 7.41109E-11
1.07092E-09 6.77351E-11
1.21847E-09 6.18894E-11
1.37554E-09 5.65584E-11
1.54213E-09 5.17164E-11
1.71823E-09 4.73317E-11
1.90386E-09 4.33652E-11
2.09900E-09 3.97826E-11
2.30367E-09 3.65521E-11
2.51785E-09 3.36389E-11
2.74156E-09 3.10104E-11
2.97478E-09 2.86366E-11
3.21752E-09 2.64904E-11
3.46978E-09 2.45468E-11
3.73156E-09 2.27840E-11
4.00286E-09 2.11820E-11
4.28368E-09 1.97217E-11
4.57402E-09 1.83892E-11
4.87388E-09 1.71712E-11
5.18326E-09 1.60557E-11
5.50215E-09 1.50318E-11
5.83057E-09 1.40903E-11
6.16850E-09 1.32227E-11
6.51596E-09 1.23769E-11
6.87293E-09 1.15920E-11
7.23942E-09 1.08806E-11
7.61544E-09 1.02345E-11
1.18991E-08 5.86389E-12
1.71347E-08 3.54108E-12
2.33223E-08 2.22881E-12
3.04617E-08 1.45971E-12
3.85531E-08 9.94342E-13
4.75965E-08 7.02911E-13
5.75917E-08 5.13563E-13
6.85389E-08 3.86053E-13
8.04380E-08 2.97054E-13
9.32891E-08 2.32927E-13
1.07092E-07 1.85453E-13
1.21847E-07 1.49511E-13
1.37554E-07 1.21798E-13
1.54213E-07 1.00141E-13
1.71823E-07 8.29432E-14
1.90386E-07 6.91838E-14
2.09900E-07 5.80996E-14
2.30367E-07 4.91104E-14
2.51785E-07 4.17659E-14
2.74156E-07 3.57232E-14
2.97478E-07 3.07200E-14
3.21752E-07 2.65536E-14
3.46978E-07 2.30658E-14
3.73156E-07 2.01314E-14
4.00286E-07 1.76507E-14
4.28368E-07 1.55426E-14
4.57402E-07 1.37425E-14
4.87388E-07 1.21979E-14
5.18325E-07 1.08660E-14
5.50215E-07 9.71241E-15
5.83057E-07 8.70903E-15
6.16850E-07 7.83295E-15
6.51596E-07 7.06308E-15
6.87293E-07 6.38705E-15
7.23942E-07 5.79249E-15
7.61543E-07 5.26719E-15
1.18991E-06 2.26221E-15
1.71347E-06 1.12538E-15
2.33223E-06 6.19828E-16
3.04617E-06 3.68319E-16
3.85531E-06 2.32202E-16
4.75964E-06 1.53513E-16
5.75916E-06 1.05511E-16
6.85388E-06 7.48982E-17
8.04378E-06 5.46326E-17
9.32888E-06 4.07861E-17
1.07092E-05 3.10650E-17
1.21846E-05 2.40771E-17
1.37553E-05 1.89493E-17
1.54212E-05 1.51173E-17
1.71822E-05 1.22071E-17
1.90385E-05 9.96195E-18
2.09899E-05 8.21512E-18
2.30365E-05 6.83434E-18
2.51783E-05 5.73095E-18
2.74153E-05 4.84077E-18
2.97475E-05 4.11651E-18
3.21749E-05 3.52268E-18
3.46974E-05 3.03231E-18
3.73152E-05 2.62458E-18
4.00281E-05 2.28329E-18
4.28362E-05 1.99578E-18
4.57395E-05 1.75212E-18
4.87380E-05 1.54448E-18
5.18317E-05 1.36663E-18
5.50205E-05 1.21361E-18
5.83045E-05 1.08139E-18
6.16838E-05 9.66695E-19
6.51582E-05 8.66831E-19
6.87277E-05 7.79562E-19
7.23925E-05 7.03021E-19
7.61524E-05 6.35897E-19
9.21439E-05 4.35144E-19
1.09658E-04 3.07722E-19
1.28695E-04 2.23743E-19
1.49255E-04 1.66556E-19
1.71338E-04 1.26543E-19
1.94942E-04 9.78621E-20
2.20070E-04 7.68718E-20
2.46720E-04 6.12252E-20
2.74892E-04 4.93675E-20
3.04586E-04 4.02503E-20
3.35803E-04 3.31460E-20
3.68542E-04 2.75445E-20
4.02802E-04 2.30794E-20
4.38585E-04 1.94848E-20
4.75889E-04 1.65648E-20
5.14715E-04 1.41727E-20
5.55063E-04 1.21980E-20
5.96931E-04 1.05562E-20
6.40321E-04 9.18209E-21
6.85233E-04 8.02493E-21
7.31665E-04 7.04483E-21
7.79618E-04 6.21023E-21
8.29092E-04 5.49591E-21
8.80086E-04 4.88167E-21
9.32601E-04 4.35110E-21
9.86636E-04 3.89086E-21
1.04219E-03 3.49007E-21
1.09927E-03 3.13971E-21
1.15786E-03 2.83235E-21
1.21797E-03 2.56181E-21
1.27961E-03 2.32290E-21
1.34276E-03 2.11128E-21
1.40743E-03 1.92330E-21
1.47362E-03 1.75585E-21
1.54133E-03 1.60628E-21
1.61056E-03 1.47236E-21
1.68131E-03 1.35215E-21
1.75357E-03 1.24400E-21
1.82735E-03 1.14649E-21
1.90265E-03 1.05838E-21
1.97947E-03 9.78601E-22
2.05780E-03 9.06228E-22
2.13765E-03 8.40443E-22
2.21902E-03 7.80542E-22
2.30190E-03 7.25905E-22
2.38630E-03 6.75979E-22
2.47222E-03 6.30291E-22
2.55965E-03 5.88411E-22
2.64859E-03 5.49963E-22
2.73905E-03 5.14620E-22
2.83103E-03 4.82075E-22
2.92452E-03 4.52079E-22
3.01952E-03 4.24384E-22
3.11604E-03 3.98786E-22
3.21407E-03 3.75098E-22
3.31362E-03 3.53147E-22
3.41468E-03 3.32786E-22
3.51725E-03 3.13876E-22
3.62133E-03 2.96295E-22
3.72692E-03 2.79933E-22
3.83403E-03 2.64688E-22
3.94265E-03 2.50471E-22
4.05278E-03 2.37199E-22
4.16442E-03 2.24798E-22
4.27757E-03 2.13200E-22
4.39223E-03 2.02342E-22
4.50840E-03 1.92169E-22
4.62608E-03 1.82630E-22
4.74527E-03 1.73677E-22
4.86597E-03 1.65268E-22
4.98817E-03 1.57364E-22
5.11188E-03 1.49928E-22
5.23711E-03 1.42927E-22
5.36383E-03 1.36332E-22
5.49207E-03 1.30114E-22
5.62181E-03 1.24247E-22
5.75306E-03 1.18707E-22
5.88581E-03 1.13474E-22
6.02007E-03 1.08527E-22
6.15583E-03 1.03848E-22
6.29310E-03 9.94181E-23
6.43187E-03 9.52228E-23
6.57214E-03 9.12471E-23
6.71392E-03 8.74771E-23
6.85720E-03 8.39002E-23
7.00198E-03 8.05047E-23
7.14827E-03 7.72796E-23
7.29605E-03 7.42147E-23
7.44534E-03 7.13005E-23
7.59612E-03 6.85281E-23
7.97965E-03 6.21654E-23
8.37255E-03 5.65251E-23
8.77480E-03 5.15108E-23
9.18641E-03 4.70407E-23
9.60736E-03 4.30453E-23
1.00376E-02 3.94652E-23
1.04773E-02 3.62495E-23
1.09262E-02 3.33545E-23
1.13844E-02 3.07425E-23
1.18520E-02 2.83808E-23
1.23288E-02 2.62412E-23
1.28150E-02 2.42990E-23
1.33104E-02 2.25327E-23
1.38150E-02 2.09235E-23
1.43290E-02 1.94548E-23
1.48521E-02 1.81123E-23
1.53845E-02 1.68830E-23
1.59262E-02 1.57557E-23
1.64770E-02 1.47204E-23
1.70371E-02 1.37682E-23
1.76063E-02 1.28913E-23
1.81848E-02 1.20825E-23
1.87724E-02 1.13357E-23
1.93692E-02 1.06452E-23
1.99751E-02 1.00060E-23
2.05901E-02 9.41356E-24
2.12143E-02 8.86388E-24
2.18476E-02 8.35329E-24
2.24900E-02 7.87851E-24
2.31415E-02 7.43656E-24
2.38021E-02 7.02477E-24
2.44717E-02 6.64068E-24
2.51504E-02 6.28211E-24
2.58382E-02 5.94705E-24
2.65349E-02 5.63367E-24
2.72407E-02 5.34032E-24
2.79555E-02 5.06548E-24
2.86793E-02 4.80777E-24
2.94120E-02 4.56594E-24
3.01537E-02 4.33882E-24
3.09043E-02 4.12535E-24
3.16639E-02 3.92457E-24
3.24324E-02 3.73559E-24
3.32098E-02 3.55759E-24
3.39961E-02 3.38981E-24
3.47912E-02 3.23156E-24
3.55952E-02 3.08221E-24
3.64081E-02 2.94115E-24
3.72297E-02 2.80786E-24
3.80602E-02 2.68182E-24
3.88995E-02 2.56257E-24
3.97476E-02 2.44968E-24
4.06044E-02 2.34275E-24
4.14700E-02 2.24141E-24
4.23443E-02 2.14531E-24
4.32273E-02 2.05413E-24
4.41190E-02 1.96758E-24
4.50194E-02 1.88539E-24
4.59284E-02 1.80728E-24
4.68461E-02 1.73304E-24
4.87074E-02 1.59522E-24
5.06030E-02 1.47033E-24
5.25328E-02 1.35694E-24
5.44967E-02 1.25384E-24
5.64946E-02 1.15992E-24
5.85262E-02 1.07425E-24
6.05914E-02 9.95975E-25
6.26901E-02 9.24360E-25
6.48222E-02 8.58746E-25
6.69873E-02 7.98551E-25
6.91854E-02 7.43257E-25
7.14163E-02 6.92402E-25
7.36799E-02 6.45573E-25
7.59760E-02 6.02404E-25
7.83043E-02 5.62563E-25
8.06647E-02 5.25755E-25
8.30571E-02 4.91713E-25
8.54812E-02 4.60200E-25
8.79369E-02 4.30998E-25
9.04240E-02 4.03914E-25
9.29422E-02 3.78771E-25
9.54915E-02 3.55409E-25
9.80716E-02 3.33685E-25
1.00682E-01 3.13466E-25
1.03323E-01 2.94635E-25
1.05995E-01 2.77081E-25
1.08696E-01 2.60707E-25
1.11427E-01 2.45423E-25
1.14188E-01 2.31145E-25
1.16978E-01 2.17799E-25
1.19797E-01 2.05316E-25
1.22645E-01 1.93632E-25
1.25522E-01 1.82690E-25
1.28428E-01 1.72436E-25
1.31361E-01 1.62822E-25
1.34323E-01 1.53803E-25
1.37313E-01 1.45337E-25
1.40330E-01 1.37386E-25
1.43375E-01 1.29915E-25
1.46447E-01 1.22891E-25
1.49545E-01 1.16286E-25
1.52671E-01 1.10070E-25
1.55823E-01 1.04218E-25
1.59001E-01 9.87062E-26
1.62205E-01 9.35130E-26
1.65435E-01 8.86178E-26
1.68690E-01 8.40015E-26
1.71970E-01 7.96465E-26
1.75276E-01 7.55365E-26
1.78606E-01 7.16562E-26
1.81961E-01 6.79915E-26
1.85340E-01 6.45292E-26
1.88743E-01 6.12570E-26
1.92169E-01 5.81633E-26
1.95619E-01 5.52376E-26
1.99092E-01 5.24699E-26
2.02589E-01 4.98507E-26
2.06107E-01 4.73714E-26
2.09649E-01 4.50239E-26
2.13212E-01 4.28005E-26
2.16797E-01 4.06940E-26
2.20404E-01 3.86978E-26
2.24032E-01 3.68057E-26
2.27680E-01 3.50117E-26
2.31350E-01 3.33104E-26
2.35040E-01 3.16965E-26
2.38751E-01 3.01653E-26
2.42481E-01 2.87121E-26
2.46231E-01 2.73327E-26
2.50000E-01 2.60231E-26
2.53788E-01 2.47794E-26
2.57595E-01 2.35982E-26
2.61421E-01 2.24760E-26
2.65264E-01 2.14097E-26
2.69126E-01 2.03964E-26
2.73005E-01 1.94332E-26
2.76901E-01 1.85175E-26
2.80814E-01 1.76468E-26
2.84744E-01 1.68187E-26
2.88691E-01 1.60311E-26
2.92653E-01 1.52818E-26
2.96632E-01 1.45689E-26
3.00625E-01 1.38905E-26
3.04634E-01 1.32448E-26
3.08658E-01 1.26303E-26
3.12697E-01 1.20452E-26
3.16749E-01 1.14882E-26
3.20816E-01 1.09577E-26
3.24896E-01 1.04525E-26
3.28990E-01 9.97137E-27
3.33097E-01 9.51303E-27
3.37216E-01 9.07637E-27
3.41348E-01 8.66033E-27
3.45492E-01 8.26389E-27
3.49647E-01 7.88608E-27
3.53814E-01 7.52600E-27
3.57992E-01 7.18278E-27
3.62181E-01 6.85560E-27
3.66381E-01 6.54369E-27
3.70590E-01 6.24630E-27
3.74810E-01 5.96274E-27
3.79039E-01 5.69233E-27
3.83277E-01 5.43446E-27
3.87524E-01 5.18851E-27
3.91780E-01 4.95392E-27
3.96044E-01 4.73015E-27
4.00316E-01 4.51669E-27
4.04596E-01 4.31305E-27
4.08882E-01 4.11876E-27
4.13176E-01 3.93337E-27
4.17476E-01 3.75649E-27
4.21783E-01 3.58769E-27
4.26095E-01 3.42661E-27
4.30413E-01 3.27289E-27
4.34737E-01 3.12617E-27
4.39065E-01 2.98614E-27
4.43398E-01 2.85247E-27
4.47736E-01 2.72489E-27
4.52077E-01 2.60310E-27
4.56422E-01 2.48683E-27
4.60770E-01 2.37584E-27
4.65122E-01 2.26987E-27
4.69476E-01 2.16870E-27
4.73832E-01 2.07211E-27
4.78190E-01 1.97988E-27
4.82550E-01 1.89181E-27
4.86912E-01 1.80772E-27
4.91274E-01 1.72742E-27
4.95637E-01 1.65074E-27
5.00000E-01 1.57751E-27
5.04363E-01 1.50758E-27
5.08726E-01 1.44079E-27
5.13088E-01 1.37701E-27
5.17450E-01 1.31609E-27
5.21810E-01 1.25790E-27
5.26168E-01 1.20233E-27
5.30524E-01 1.14925E-27
5.34878E-01 1.09855E-27
5.39230E-01 1.05013E-27
5.43578E-01 1.00387E-27
5.47923E-01 9.59684E-28
5.52264E-01 9.17475E-28
5.56602E-01 8.77155E-28
5.60935E-01 8.38638E-28
5.65263E-01 8.01843E-28
5.69587E-01 7.66692E-28
5.73905E-01 7.33111E-28
5.78217E-01 7.01029E-28
5.82524E-01 6.70379E-28
5.86824E-01 6.41097E-28
5.91118E-01 6.13121E-28
5.95404E-01 5.86392E-28
5.99684E-01 5.60854E-28
6.03956E-01 5.36453E-28
6.08220E-01 5.13139E-28
6.12476E-01 4.90863E-28
6.16723E-01 4.69578E-28
6.20961E-01 4.49240E-28
6.25190E-01 4.29806E-28
6.29410E-01 4.11235E-28
6.33619E-01 3.93489E-28
6.37819E-01 3.76531E-28
6.42008E-01 3.60326E-28
6.46186E-01 3.44839E-28
6.50353E-01 3.30038E-28
6.54508E-01 3.15894E-28
6.58652E-01 3.02375E-28
6.62784E-01 2.89455E-28
6.66903E-01 2.77107E-28
6.71010E-01 2.65304E-28
6.75104E-01 2.54022E-28
6.79184E-01 2.43238E-28
6.83251E-01 2.32930E-28
6.87303E-01 2.23076E-28
6.91342E-01 2.13656E-28
6.95366E-01 2.04650E-28
6.99375E-01 1.96041E-28
7.03368E-01 1.87809E-28
7.07347E-01 1.79939E-28
7.11309E-01 1.72413E-28
7.15256E-01 1.65217E-28
7.19186E-01 1.58336E-28
7.23099E-01 1.51755E-28
7.26995E-01 1.45461E-28
7.30874E-01 1.39441E-28
7.34736E-01 1.33684E-28
7.38579E-01 1.28176E-28
7.42405E-01 1.22908E-28
7.46212E-01 1.17867E-28
7.50000E-01 1.13045E-28
7.53769E-01 1.08431E-28
7.57519E-01 1.04015E-28
7.61249E-01 9.97898E-29
7.64960E-01 9.57458E-29
7.68650E-01 9.18751E-29
7.72320E-01 8.81699E-29
7.75968E-01 8.46228E-29
7.79596E-01 8.12267E-29
7.83203E-01 7.79748E-29
7.86788E-01 7.48607E-29
7.90351E-01 7.18782E-29
7.93893E-01 6.90215E-29
7.97411E-01 6.62848E-29
8.00908E-01 6.36629E-29
8.04381E-01 6.11505E-29
8.07831E-01 5.87429E-29
8.11257E-01 5.64353E-29
8.14660E-01 5.42232E-29
8.18039E-01 5.21025E-29
8.21394E-01 5.00690E-29
8.24724E-01 4.81189E-29
8.28030E-01 4.62484E-29
8.31310E-01 4.44540E-29
8.34565E-01 4.27323E-29
8.37795E-01 4.10802E-29
8.40999E-01 3.94945E-29
8.44177E-01 3.79724E-29
8.47329E-01 3.65109E-29
8.50455E-01 3.51074E-29
8.53553E-01 3.37595E-29
8.56625E-01 3.24646E-29
8.59670E-01 3.12204E-29
8.62687E-01 3.00247E-29
8.65677E-01 2.88754E-29
8.68639E-01 2.77705E-29
8.71572E-01 2.67080E-29
8.74478E-01 2.56861E-29
8.77355E-01 2.47032E-29
8.80203E-01 2.37574E-29
8.83022E-01 2.28472E-29
8.85812E-01 2.19711E-29
8.88573E-01 2.11276E-29
8.91304E-01 2.03153E-29
8.94005E-01 1.95330E-29
8.96677E-01 1.87794E-29
8.99318E-01 1.80533E-29
9.01928E-01 1.73535E-29
9.04508E-01 1.66789E-29
9.07058E-01 1.60285E-29
9.09576E-01 1.54014E-29
9.12063E-01 1.47965E-29
9.14519E-01 1.42130E-29
9.16943E-01 1.36500E-29
9.19335E-01 1.31067E-29
9.21696E-01 1.25823E-29
9.24024E-01 1.20761E-29
9.26320E-01 1.15874E-29
9.28584E-01 1.11155E-29
9.30815E-01 1.06597E-29
9.33013E-01 1.02194E-29
9.35178E-01 9.79414E-30
9.37310E-01 9.38325E-30
9.39409E-01 8.98624E-30
9.41474E-01 8.60259E-30
9.43505E-01 8.23184E-30
9.45503E-01 7.87352E-30
9.47467E-01 7.52719E-30
9.49397E-01 7.19245E-30
9.51293E-01 6.86891E-30
9.53154E-01 6.55617E-30
9.54981E-01 6.25390E-30
9.56773E-01 5.96174E-30
9.58530E-01 5.67938E-30
9.60252E-01 5.40651E-30
9.61940E-01 5.14283E-30
9.63592E-01 4.88806E-30
9.65209E-01 4.64195E-30
9.66790E-01 4.40424E-30
9.68336E-01 4.17468E-30
9.69846E-01 3.95306E-30
9.71321E-01 3.73916E-30
9.72759E-01 3.53276E-30
9.74162E-01 3.33369E-30
9.75528E-01 3.14174E-30
9.76858E-01 2.95675E-30
9.78152E-01 2.77855E-30
9.79410E-01 2.60697E-30
9.80631E-01 2.44188E-30
9.81815E-01 2.28312E-30
9.82963E-01 2.13056E-30
9.84074E-01 1.98408E-30
9.85148E-01 1.84355E-30
9.86185E-01 1.70886E-30
9.87185E-01 1.57990E-30
9.88148E-01 1.45657E-30
9.89074E-01 1.33877E-30
9.89962E-01 1.22641E-30
9.90814E-01 1.11941E-30
9.91627E-01 1.01768E-30
9.92404E-01 9.21157E-31
9.93143E-01 8.29758E-31
9.93844E-01 7.43420E-31
9.94508E-01 6.62082E-31
9.95134E-01 5.85685E-31
9.95722E-01 5.14176E-31
9.96273E-01 4.47505E-31
9.96786E-01 3.85625E-31
9.97261E-01 3.28494E-31
9.97698E-01 2.76073E-31
9.98097E-01 2.28327E-31
9.98459E-01 1.85222E-31
9.98782E-01 1.46731E-31
9.99067E-01 1.12828E-31
9.99315E-01 8.34901E-32
9.99524E-01 5.86982E-32
9.99695E-01 3.84360E-32
9.99829E-01 2.26902E-32
9.99924E-01 1.14506E-32
9.99981E-01 4.70967E-33
1.00000E+00 2.46326E-33
