 #
 # Subroutine ELSEPA. Elastic scattering of electrons and positrons
 #                    by neutral atoms and positive ions
 #
 # Projectile: electron
 # Kinetic energy = 2.50000E+06 eV = 9.18733E+04 a.u.
 #
 # WARNING: High-energy factorization with free-atom DF screening.
 #          Absorption, polarization and exchange corrections are
 #          switched off.
 #          Phase shifts are calculated for the bare nucleus.
 #          Scattering amplitudes are not evaluated.
 #
 # Element: Sb,  Z =  51,  atomic weight = 1.21760E+02 g/mol
 #
 # Nuclear model: Fermi distribution
 #                Average radius = 5.30337E-13 cm
 #                Skin thickness = 5.46000E-14 cm
 #
 # Number of electrons = 51
 #
 # Total elastic cross section = 5.48480E-18 cm**2 = 1.95866E-01 a0**2
 # 1st transport cross section = 4.36342E-22 cm**2 = 1.55820E-05 a0**2
 # 2nd transport cross section = 1.20273E-21 cm**2 = 4.29503E-05 a0**2
 #
 #
 # Differential cross section:                       MU=(1-COS(THETA))/2
 #
 #  THETA        MU          DCS          DCS        Sherman      error
 #  (deg)                 (cm**2/sr)   (a0**2/sr)    function
 #----------------------------------------------------------------------
0.00000E+00 4.11443E-13
7.61557E-13 4.11443E-13
1.18994E-12 4.11442E-13
1.71346E-12 4.11442E-13
2.33225E-12 4.11441E-13
3.04617E-12 4.11440E-13
3.85530E-12 4.11439E-13
4.75964E-12 4.11438E-13
5.75917E-12 4.11437E-13
6.85391E-12 4.11436E-13
8.04379E-12 4.11435E-13
9.32893E-12 4.11433E-13
1.07092E-11 4.11432E-13
1.21847E-11 4.11430E-13
1.37554E-11 4.11429E-13
1.54213E-11 4.11427E-13
1.71823E-11 4.11425E-13
1.90386E-11 4.11423E-13
2.09900E-11 4.11421E-13
2.30367E-11 4.11418E-13
2.51785E-11 4.11416E-13
2.74156E-11 4.11414E-13
2.97478E-11 4.11411E-13
3.21752E-11 4.11408E-13
3.46979E-11 4.11406E-13
3.73157E-11 4.11403E-13
4.00286E-11 4.11400E-13
4.28368E-11 4.11397E-13
4.57402E-11 4.11393E-13
4.87388E-11 4.11390E-13
5.18325E-11 4.11387E-13
5.50215E-11 4.11383E-13
5.83057E-11 4.11380E-13
6.16850E-11 4.11376E-13
6.51595E-11 4.11372E-13
6.87293E-11 4.11368E-13
7.23943E-11 4.11364E-13
7.61544E-11 4.11360E-13
1.18991E-10 4.11313E-13
1.71347E-10 4.11255E-13
2.33223E-10 4.11187E-13
3.04617E-10 4.11108E-13
3.85531E-10 4.11019E-13
4.75965E-10 4.10919E-13
5.75917E-10 4.10809E-13
6.85389E-10 4.10688E-13
8.04380E-10 4.10557E-13
9.32891E-10 4.10415E-13
1.07092E-09 4.10263E-13
1.21847E-09 4.10100E-13
1.37554E-09 4.09927E-13
1.54213E-09 4.09744E-13
1.71823E-09 4.09550E-13
1.90386E-09 4.09346E-13
2.09900E-09 4.09132E-13
2.30367E-09 4.08907E-13
2.51785E-09 4.08672E-13
2.74156E-09 4.08427E-13
2.97478E-09 4.08172E-13
3.21752E-09 4.07907E-13
3.46978E-09 4.07631E-13
3.73156E-09 4.07346E-13
4.00286E-09 4.07050E-13
4.28368E-09 4.06744E-13
4.57402E-09 4.06428E-13
4.87388E-09 4.06103E-13
5.18326E-09 4.05767E-13
5.50215E-09 4.05422E-13
5.83057E-09 4.05066E-13
6.16850E-09 4.04701E-13
6.51596E-09 4.04326E-13
6.87293E-09 4.03942E-13
7.23942E-09 4.03548E-13
7.61544E-09 4.03144E-13
1.18991E-08 3.98588E-13
1.71347E-08 3.93128E-13
2.33223E-08 3.86828E-13
3.04617E-08 3.79713E-13
3.85531E-08 3.71960E-13
4.75965E-08 3.63533E-13
5.75917E-08 3.54654E-13
6.85389E-08 3.45210E-13
8.04380E-08 3.35523E-13
9.32891E-08 3.25402E-13
1.07092E-07 3.15189E-13
1.21847E-07 3.04740E-13
1.37554E-07 2.94288E-13
1.54213E-07 2.83787E-13
1.71823E-07 2.73345E-13
1.90386E-07 2.63022E-13
2.09900E-07 2.52798E-13
2.30367E-07 2.42831E-13
2.51785E-07 2.32983E-13
2.74156E-07 2.23501E-13
2.97478E-07 2.14145E-13
3.21752E-07 2.05200E-13
3.46978E-07 1.96447E-13
3.73156E-07 1.88083E-13
4.00286E-07 1.79978E-13
4.28368E-07 1.72224E-13
4.57402E-07 1.64773E-13
4.87388E-07 1.57634E-13
5.18325E-07 1.50823E-13
5.50215E-07 1.44285E-13
5.83057E-07 1.38087E-13
6.16850E-07 1.32125E-13
6.51596E-07 1.26500E-13
6.87293E-07 1.21083E-13
7.23942E-07 1.15974E-13
7.61543E-07 1.11079E-13
1.18991E-06 7.37212E-14
1.71347E-06 5.09159E-14
2.33223E-06 3.64761E-14
3.04617E-06 2.65896E-14
3.85531E-06 2.01149E-14
4.75964E-06 1.53088E-14
5.75916E-06 1.19395E-14
6.85388E-06 9.28869E-15
8.04378E-06 7.38667E-15
9.32888E-06 5.86929E-15
1.07092E-05 4.74403E-15
1.21846E-05 3.85423E-15
1.37553E-05 3.17072E-15
1.54212E-05 2.62936E-15
1.71822E-05 2.20201E-15
1.90385E-05 1.85963E-15
2.09899E-05 1.58409E-15
2.30365E-05 1.36040E-15
2.51783E-05 1.17545E-15
2.74153E-05 1.02310E-15
2.97475E-05 8.94563E-16
3.21749E-05 7.87222E-16
3.46974E-05 6.95397E-16
3.73152E-05 6.17496E-16
4.00281E-05 5.50151E-16
4.28362E-05 4.92075E-16
4.57395E-05 4.41447E-16
4.87380E-05 3.97127E-16
5.18317E-05 3.58278E-16
5.50205E-05 3.23843E-16
5.83045E-05 2.93568E-16
6.16838E-05 2.66496E-16
6.51582E-05 2.42642E-16
6.87277E-05 2.21035E-16
7.23925E-05 2.01889E-16
7.61524E-05 1.84613E-16
9.21439E-05 1.31362E-16
1.09658E-04 9.57330E-17
1.28695E-04 7.12609E-17
1.49255E-04 5.40780E-17
1.71338E-04 4.17857E-17
1.94942E-04 3.28186E-17
2.20070E-04 2.61516E-17
2.46720E-04 2.11072E-17
2.74892E-04 1.72244E-17
3.04586E-04 1.42097E-17
3.35803E-04 1.18285E-17
3.68542E-04 9.93261E-18
4.02802E-04 8.39864E-18
4.38585E-04 7.15495E-18
4.75889E-04 6.12927E-18
5.14715E-04 5.28441E-18
5.55063E-04 4.57751E-18
5.96931E-04 3.98647E-18
6.40321E-04 3.48669E-18
6.85233E-04 3.06321E-18
7.31665E-04 2.70174E-18
7.79618E-04 2.39193E-18
8.29092E-04 2.12529E-18
8.80086E-04 1.89452E-18
9.32601E-04 1.69444E-18
9.86636E-04 1.51974E-18
1.04219E-03 1.36725E-18
1.09927E-03 1.23312E-18
1.15786E-03 1.11523E-18
1.21797E-03 1.01096E-18
1.27961E-03 9.18682E-19
1.34276E-03 8.36658E-19
1.40743E-03 7.63621E-19
1.47362E-03 6.98391E-19
1.54133E-03 6.39983E-19
1.61056E-03 5.87585E-19
1.68131E-03 5.40434E-19
1.75357E-03 4.97960E-19
1.82735E-03 4.59561E-19
1.90265E-03 4.24833E-19
1.97947E-03 3.93314E-19
2.05780E-03 3.64693E-19
2.13765E-03 3.38629E-19
2.21902E-03 3.14871E-19
2.30190E-03 2.93166E-19
2.38630E-03 2.73311E-19
2.47222E-03 2.55118E-19
2.55965E-03 2.38421E-19
2.64859E-03 2.23078E-19
2.73905E-03 2.08953E-19
2.83103E-03 1.95940E-19
2.92452E-03 1.83925E-19
3.01952E-03 1.72827E-19
3.11604E-03 1.62556E-19
3.21407E-03 1.53044E-19
3.31362E-03 1.44221E-19
3.41468E-03 1.36030E-19
3.51725E-03 1.28416E-19
3.62133E-03 1.21330E-19
3.72692E-03 1.14731E-19
3.83403E-03 1.08577E-19
3.94265E-03 1.02834E-19
4.05278E-03 9.74669E-20
4.16442E-03 9.24499E-20
4.27757E-03 8.77522E-20
4.39223E-03 8.33528E-20
4.50840E-03 7.92266E-20
4.62608E-03 7.53554E-20
4.74527E-03 7.17192E-20
4.86597E-03 6.83016E-20
4.98817E-03 6.50867E-20
5.11188E-03 6.20602E-20
5.23711E-03 5.92092E-20
5.36383E-03 5.65211E-20
5.49207E-03 5.39855E-20
5.62181E-03 5.15911E-20
5.75306E-03 4.93297E-20
5.88581E-03 4.71913E-20
6.02007E-03 4.51689E-20
6.15583E-03 4.32543E-20
6.29310E-03 4.14412E-20
6.43187E-03 3.97228E-20
6.57214E-03 3.80934E-20
6.71392E-03 3.65474E-20
6.85720E-03 3.50797E-20
7.00198E-03 3.36857E-20
7.14827E-03 3.23607E-20
7.29605E-03 3.11010E-20
7.44534E-03 2.99023E-20
7.59612E-03 2.87617E-20
7.97965E-03 2.61407E-20
8.37255E-03 2.38143E-20
8.77480E-03 2.17434E-20
9.18641E-03 1.98947E-20
9.60736E-03 1.82403E-20
1.00376E-02 1.67559E-20
1.04773E-02 1.54209E-20
1.09262E-02 1.42176E-20
1.13844E-02 1.31306E-20
1.18520E-02 1.21465E-20
1.23288E-02 1.12540E-20
1.28150E-02 1.04428E-20
1.33104E-02 9.70412E-21
1.38150E-02 9.03041E-21
1.43290E-02 8.41480E-21
1.48521E-02 7.85138E-21
1.53845E-02 7.33490E-21
1.59262E-02 6.86069E-21
1.64770E-02 6.42466E-21
1.70371E-02 6.02317E-21
1.76063E-02 5.65294E-21
1.81848E-02 5.31109E-21
1.87724E-02 4.99504E-21
1.93692E-02 4.70245E-21
1.99751E-02 4.43127E-21
2.05901E-02 4.17963E-21
2.12143E-02 3.94584E-21
2.18476E-02 3.72840E-21
2.24900E-02 3.52595E-21
2.31415E-02 3.33725E-21
2.38021E-02 3.16119E-21
2.44717E-02 2.99677E-21
2.51504E-02 2.84305E-21
2.58382E-02 2.69922E-21
2.65349E-02 2.56449E-21
2.72407E-02 2.43822E-21
2.79555E-02 2.31973E-21
2.86793E-02 2.20848E-21
2.94120E-02 2.10391E-21
3.01537E-02 2.00557E-21
3.09043E-02 1.91299E-21
3.16639E-02 1.82579E-21
3.24324E-02 1.74358E-21
3.32098E-02 1.66602E-21
3.39961E-02 1.59280E-21
3.47912E-02 1.52363E-21
3.55952E-02 1.45824E-21
3.64081E-02 1.39637E-21
3.72297E-02 1.33782E-21
3.80602E-02 1.28235E-21
3.88995E-02 1.22978E-21
3.97476E-02 1.17992E-21
4.06044E-02 1.13261E-21
4.14700E-02 1.08768E-21
4.23443E-02 1.04501E-21
4.32273E-02 1.00444E-21
4.41190E-02 9.65864E-22
4.50194E-02 9.29151E-22
4.59284E-02 8.94199E-22
4.68461E-02 8.60906E-22
4.87074E-02 7.98922E-22
5.06030E-02 7.42515E-22
5.25328E-02 6.91089E-22
5.44967E-02 6.44117E-22
5.64946E-02 6.01141E-22
5.85262E-02 5.61755E-22
6.05914E-02 5.25600E-22
6.26901E-02 4.92361E-22
6.48222E-02 4.61755E-22
6.69873E-02 4.33535E-22
6.91854E-02 4.07476E-22
7.14163E-02 3.83383E-22
7.36799E-02 3.61076E-22
7.59760E-02 3.40397E-22
7.83043E-02 3.21204E-22
8.06647E-02 3.03369E-22
8.30571E-02 2.86777E-22
8.54812E-02 2.71324E-22
8.79369E-02 2.56916E-22
9.04240E-02 2.43469E-22
9.29422E-02 2.30904E-22
9.54915E-02 2.19154E-22
9.80716E-02 2.08154E-22
1.00682E-01 1.97847E-22
1.03323E-01 1.88181E-22
1.05995E-01 1.79107E-22
1.08696E-01 1.70583E-22
1.11427E-01 1.62567E-22
1.14188E-01 1.55024E-22
1.16978E-01 1.47919E-22
1.19797E-01 1.41223E-22
1.22645E-01 1.34907E-22
1.25522E-01 1.28945E-22
1.28428E-01 1.23313E-22
1.31361E-01 1.17989E-22
1.34323E-01 1.12953E-22
1.37313E-01 1.08186E-22
1.40330E-01 1.03671E-22
1.43375E-01 9.93917E-23
1.46447E-01 9.53332E-23
1.49545E-01 9.14819E-23
1.52671E-01 8.78249E-23
1.55823E-01 8.43505E-23
1.59001E-01 8.10477E-23
1.62205E-01 7.79063E-23
1.65435E-01 7.49167E-23
1.68690E-01 7.20701E-23
1.71970E-01 6.93582E-23
1.75276E-01 6.67735E-23
1.78606E-01 6.43086E-23
1.81961E-01 6.19568E-23
1.85340E-01 5.97120E-23
1.88743E-01 5.75683E-23
1.92169E-01 5.55200E-23
1.95619E-01 5.35622E-23
1.99092E-01 5.16900E-23
2.02589E-01 4.98989E-23
2.06107E-01 4.81846E-23
2.09649E-01 4.65431E-23
2.13212E-01 4.49708E-23
2.16797E-01 4.34641E-23
2.20404E-01 4.20197E-23
2.24032E-01 4.06345E-23
2.27680E-01 3.93055E-23
2.31350E-01 3.80301E-23
2.35040E-01 3.68056E-23
2.38751E-01 3.56296E-23
2.42481E-01 3.44997E-23
2.46231E-01 3.34138E-23
2.50000E-01 3.23697E-23
2.53788E-01 3.13657E-23
2.57595E-01 3.03997E-23
2.61421E-01 2.94700E-23
2.65264E-01 2.85751E-23
2.69126E-01 2.77133E-23
2.73005E-01 2.68832E-23
2.76901E-01 2.60833E-23
2.80814E-01 2.53124E-23
2.84744E-01 2.45691E-23
2.88691E-01 2.38524E-23
2.92653E-01 2.31609E-23
2.96632E-01 2.24937E-23
3.00625E-01 2.18498E-23
3.04634E-01 2.12281E-23
3.08658E-01 2.06277E-23
3.12697E-01 2.00478E-23
3.16749E-01 1.94875E-23
3.20816E-01 1.89460E-23
3.24896E-01 1.84225E-23
3.28990E-01 1.79164E-23
3.33097E-01 1.74269E-23
3.37216E-01 1.69534E-23
3.41348E-01 1.64952E-23
3.45492E-01 1.60518E-23
3.49647E-01 1.56226E-23
3.53814E-01 1.52070E-23
3.57992E-01 1.48045E-23
3.62181E-01 1.44146E-23
3.66381E-01 1.40369E-23
3.70590E-01 1.36709E-23
3.74810E-01 1.33161E-23
3.79039E-01 1.29721E-23
3.83277E-01 1.26386E-23
3.87524E-01 1.23152E-23
3.91780E-01 1.20014E-23
3.96044E-01 1.16970E-23
4.00316E-01 1.14016E-23
4.04596E-01 1.11149E-23
4.08882E-01 1.08366E-23
4.13176E-01 1.05663E-23
4.17476E-01 1.03039E-23
4.21783E-01 1.00490E-23
4.26095E-01 9.80146E-24
4.30413E-01 9.56090E-24
4.34737E-01 9.32713E-24
4.39065E-01 9.09993E-24
4.43398E-01 8.87906E-24
4.47736E-01 8.66433E-24
4.52077E-01 8.45552E-24
4.56422E-01 8.25245E-24
4.60770E-01 8.05491E-24
4.65122E-01 7.86274E-24
4.69476E-01 7.67577E-24
4.73832E-01 7.49381E-24
4.78190E-01 7.31672E-24
4.82550E-01 7.14434E-24
4.86912E-01 6.97651E-24
4.91274E-01 6.81310E-24
4.95637E-01 6.65397E-24
5.00000E-01 6.49899E-24
5.04363E-01 6.34802E-24
5.08726E-01 6.20094E-24
5.13088E-01 6.05763E-24
5.17450E-01 5.91798E-24
5.21810E-01 5.78188E-24
5.26168E-01 5.64921E-24
5.30524E-01 5.51988E-24
5.34878E-01 5.39379E-24
5.39230E-01 5.27084E-24
5.43578E-01 5.15094E-24
5.47923E-01 5.03400E-24
5.52264E-01 4.91994E-24
5.56602E-01 4.80866E-24
5.60935E-01 4.70010E-24
5.65263E-01 4.59417E-24
5.69587E-01 4.49080E-24
5.73905E-01 4.38991E-24
5.78217E-01 4.29144E-24
5.82524E-01 4.19531E-24
5.86824E-01 4.10146E-24
5.91118E-01 4.00983E-24
5.95404E-01 3.92035E-24
5.99684E-01 3.83297E-24
6.03956E-01 3.74763E-24
6.08220E-01 3.66427E-24
6.12476E-01 3.58284E-24
6.16723E-01 3.50329E-24
6.20961E-01 3.42557E-24
6.25190E-01 3.34962E-24
6.29410E-01 3.27541E-24
6.33619E-01 3.20288E-24
6.37819E-01 3.13199E-24
6.42008E-01 3.06270E-24
6.46186E-01 2.99496E-24
6.50353E-01 2.92874E-24
6.54508E-01 2.86400E-24
6.58652E-01 2.80069E-24
6.62784E-01 2.73879E-24
6.66903E-01 2.67826E-24
6.71010E-01 2.61905E-24
6.75104E-01 2.56114E-24
6.79184E-01 2.50450E-24
6.83251E-01 2.44909E-24
6.87303E-01 2.39488E-24
6.91342E-01 2.34185E-24
6.95366E-01 2.28996E-24
6.99375E-01 2.23918E-24
7.03368E-01 2.18950E-24
7.07347E-01 2.14088E-24
7.11309E-01 2.09329E-24
7.15256E-01 2.04672E-24
7.19186E-01 2.00113E-24
7.23099E-01 1.95651E-24
7.26995E-01 1.91283E-24
7.30874E-01 1.87007E-24
7.34736E-01 1.82821E-24
7.38579E-01 1.78723E-24
7.42405E-01 1.74710E-24
7.46212E-01 1.70781E-24
7.50000E-01 1.66933E-24
7.53769E-01 1.63166E-24
7.57519E-01 1.59476E-24
7.61249E-01 1.55863E-24
7.64960E-01 1.52324E-24
7.68650E-01 1.48858E-24
7.72320E-01 1.45463E-24
7.75968E-01 1.42138E-24
7.79596E-01 1.38881E-24
7.83203E-01 1.35691E-24
7.86788E-01 1.32565E-24
7.90351E-01 1.29504E-24
7.93893E-01 1.26505E-24
7.97411E-01 1.23567E-24
8.00908E-01 1.20688E-24
8.04381E-01 1.17868E-24
8.07831E-01 1.15106E-24
8.11257E-01 1.12399E-24
8.14660E-01 1.09747E-24
8.18039E-01 1.07148E-24
8.21394E-01 1.04603E-24
8.24724E-01 1.02108E-24
8.28030E-01 9.96645E-25
8.31310E-01 9.72699E-25
8.34565E-01 9.49238E-25
8.37795E-01 9.26250E-25
8.40999E-01 9.03727E-25
8.44177E-01 8.81659E-25
8.47329E-01 8.60036E-25
8.50455E-01 8.38851E-25
8.53553E-01 8.18095E-25
8.56625E-01 7.97759E-25
8.59670E-01 7.77835E-25
8.62687E-01 7.58315E-25
8.65677E-01 7.39192E-25
8.68639E-01 7.20458E-25
8.71572E-01 7.02105E-25
8.74478E-01 6.84127E-25
8.77355E-01 6.66517E-25
8.80203E-01 6.49267E-25
8.83022E-01 6.32371E-25
8.85812E-01 6.15823E-25
8.88573E-01 5.99616E-25
8.91304E-01 5.83745E-25
8.94005E-01 5.68203E-25
8.96677E-01 5.52984E-25
8.99318E-01 5.38083E-25
9.01928E-01 5.23495E-25
9.04508E-01 5.09213E-25
9.07058E-01 4.95233E-25
9.09576E-01 4.81549E-25
9.12063E-01 4.68157E-25
9.14519E-01 4.55051E-25
9.16943E-01 4.42228E-25
9.19335E-01 4.29681E-25
9.21696E-01 4.17408E-25
9.24024E-01 4.05403E-25
9.26320E-01 3.93662E-25
9.28584E-01 3.82181E-25
9.30815E-01 3.70955E-25
9.33013E-01 3.59982E-25
9.35178E-01 3.49257E-25
9.37310E-01 3.38777E-25
9.39409E-01 3.28537E-25
9.41474E-01 3.18534E-25
9.43505E-01 3.08766E-25
9.45503E-01 2.99227E-25
9.47467E-01 2.89916E-25
9.49397E-01 2.80829E-25
9.51293E-01 2.71962E-25
9.53154E-01 2.63314E-25
9.54981E-01 2.54880E-25
9.56773E-01 2.46659E-25
9.58530E-01 2.38647E-25
9.60252E-01 2.30842E-25
9.61940E-01 2.23241E-25
9.63592E-01 2.15841E-25
9.65209E-01 2.08641E-25
9.66790E-01 2.01637E-25
9.68336E-01 1.94828E-25
9.69846E-01 1.88211E-25
9.71321E-01 1.81784E-25
9.72759E-01 1.75545E-25
9.74162E-01 1.69492E-25
9.75528E-01 1.63623E-25
9.76858E-01 1.57936E-25
9.78152E-01 1.52429E-25
9.79410E-01 1.47100E-25
9.80631E-01 1.41948E-25
9.81815E-01 1.36971E-25
9.82963E-01 1.32168E-25
9.84074E-01 1.27536E-25
9.85148E-01 1.23075E-25
9.86185E-01 1.18783E-25
9.87185E-01 1.14658E-25
9.88148E-01 1.10700E-25
9.89074E-01 1.06907E-25
9.89962E-01 1.03278E-25
9.90814E-01 9.98110E-26
9.91627E-01 9.65060E-26
9.92404E-01 9.33615E-26
9.93143E-01 9.03766E-26
9.93844E-01 8.75504E-26
9.94508E-01 8.48819E-26
9.95134E-01 8.23703E-26
9.95722E-01 8.00148E-26
9.96273E-01 7.78148E-26
9.96786E-01 7.57694E-26
9.97261E-01 7.38780E-26
9.97698E-01 7.21402E-26
9.98097E-01 7.05553E-26
9.98459E-01 6.91228E-26
9.98782E-01 6.78422E-26
9.99067E-01 6.67133E-26
9.99315E-01 6.57356E-26
9.99524E-01 6.49088E-26
9.99695E-01 6.42327E-26
9.99829E-01 6.37071E-26
9.99924E-01 6.33317E-26
9.99981E-01 6.31066E-26
1.00000E+00 6.30316E-26
