 #
 # Subroutine ELSEPA. Elastic scattering of electrons and positrons
 #                    by neutral atoms and positive ions
 #
 # Projectile: electron
 # Kinetic energy = 6.00000E+08 eV = 2.20496E+07 a.u.
 #
 # WARNING: High-energy factorization with free-atom DF screening.
 #          Absorption, polarization and exchange corrections are
 #          switched off.
 #          Phase shifts are calculated for the bare nucleus.
 #          Scattering amplitudes are not evaluated.
 #
 # Element: Sb,  Z =  51,  atomic weight = 1.21760E+02 g/mol
 #
 # Nuclear model: Fermi distribution
 #                Average radius = 5.30337E-13 cm
 #                Skin thickness = 5.46000E-14 cm
 #
 # Number of electrons = 51
 #
 # Total elastic cross section = 5.30853E-18 cm**2 = 1.89571E-01 a0**2
 # 1st transport cross section = 1.41649E-26 cm**2 = 5.05837E-10 a0**2
 # 2nd transport cross section = 4.24830E-26 cm**2 = 1.51710E-09 a0**2
 #
 #
 # Differential cross section:                       MU=(1-COS(THETA))/2
 #
 #  THETA        MU          DCS          DCS        Sherman      error
 #  (deg)                 (cm**2/sr)   (a0**2/sr)    function
 #----------------------------------------------------------------------
0.00000E+00 1.63656E-08
7.61557E-13 1.50731E-08
1.18994E-12 1.44162E-08
1.71346E-12 1.36739E-08
2.33225E-12 1.28731E-08
3.04617E-12 1.20397E-08
3.85530E-12 1.11966E-08
4.75964E-12 1.03630E-08
5.75917E-12 9.55342E-09
6.85391E-12 8.77893E-09
8.04379E-12 8.04910E-09
9.32893E-12 7.36855E-09
1.07092E-11 6.73946E-09
1.21847E-11 6.16191E-09
1.37554E-11 5.63455E-09
1.54213E-11 5.15502E-09
1.71823E-11 4.72033E-09
1.90386E-11 4.32710E-09
2.09900E-11 3.97187E-09
2.30367E-11 3.65075E-09
2.51785E-11 3.36086E-09
2.74156E-11 3.09913E-09
2.97478E-11 2.86264E-09
3.21752E-11 2.64871E-09
3.46979E-11 2.45490E-09
3.73157E-11 2.27905E-09
4.00286E-11 2.11920E-09
4.28368E-11 1.97361E-09
4.57402E-11 1.84077E-09
4.87388E-11 1.71927E-09
5.18325E-11 1.60783E-09
5.50215E-11 1.50554E-09
5.83057E-11 1.41145E-09
6.16850E-11 1.32475E-09
6.51595E-11 1.24194E-09
6.87293E-11 1.16302E-09
7.23943E-11 1.09149E-09
7.61544E-11 1.02651E-09
1.18991E-10 5.89178E-10
1.71347E-10 3.56405E-10
2.33223E-10 2.24639E-10
3.04617E-10 1.47256E-10
3.85531E-10 1.00354E-10
4.75965E-10 7.09617E-11
5.75917E-10 5.18582E-11
6.85389E-10 3.89773E-11
8.04380E-10 2.99900E-11
9.32891E-10 2.35170E-11
1.07092E-09 1.87266E-11
1.21847E-09 1.51005E-11
1.37554E-09 1.23049E-11
1.54213E-09 1.01195E-11
1.71823E-09 8.38509E-12
1.90386E-09 6.99730E-12
2.09900E-09 5.87921E-12
2.30367E-09 4.97072E-12
2.51785E-09 4.22804E-12
2.74156E-09 3.61687E-12
2.97478E-09 3.11070E-12
3.21752E-09 2.68907E-12
3.46978E-09 2.33602E-12
3.73156E-09 2.03892E-12
4.00286E-09 1.78769E-12
4.28368E-09 1.57423E-12
4.57402E-09 1.39195E-12
4.87388E-09 1.23553E-12
5.18326E-09 1.10061E-12
5.50215E-09 9.83755E-13
5.83057E-09 8.82115E-13
6.16850E-09 7.93370E-13
6.51596E-09 7.15468E-13
6.87293E-09 6.46926E-13
7.23942E-09 5.86646E-13
7.61544E-09 5.33452E-13
1.18991E-08 2.29139E-13
1.71347E-08 1.14020E-13
2.33223E-08 6.28088E-14
3.04617E-08 3.73213E-14
3.85531E-08 2.35277E-14
4.75965E-08 1.55535E-14
5.75917E-08 1.06890E-14
6.85389E-08 7.58667E-15
8.04380E-08 5.53318E-15
9.32891E-08 4.13029E-15
1.07092E-07 3.14545E-15
1.21847E-07 2.43755E-15
1.37554E-07 1.91814E-15
1.54213E-07 1.53005E-15
1.71823E-07 1.23534E-15
1.90386E-07 1.00829E-15
2.09900E-07 8.31079E-16
2.30367E-07 6.91137E-16
2.51785E-07 5.79439E-16
2.74156E-07 4.89410E-16
2.97478E-07 4.16199E-16
3.21752E-07 3.56173E-16
3.46978E-07 3.06582E-16
3.73156E-07 2.65324E-16
4.00286E-07 2.30775E-16
4.28368E-07 2.01667E-16
4.57402E-07 1.77004E-16
4.87388E-07 1.55996E-16
5.18325E-07 1.38013E-16
5.50215E-07 1.22546E-16
5.83057E-07 1.09186E-16
6.16850E-07 9.75960E-17
6.51596E-07 8.75030E-17
6.87293E-07 7.86812E-17
7.23942E-07 7.09430E-17
7.61543E-07 6.41327E-17
1.18991E-06 2.63333E-17
1.71347E-06 1.27168E-17
2.33223E-06 6.87023E-18
3.04617E-06 4.02968E-18
3.85531E-06 2.51688E-18
4.75964E-06 1.65195E-18
5.75916E-06 1.12866E-18
6.85388E-06 7.97133E-19
8.04378E-06 5.78886E-19
9.32888E-06 4.30485E-19
1.07092E-05 3.26739E-19
1.21846E-05 2.52452E-19
1.37553E-05 1.98130E-19
1.54212E-05 1.57668E-19
1.71822E-05 1.27029E-19
1.90385E-05 1.03455E-19
2.09899E-05 8.51589E-20
2.30365E-05 7.07293E-20
2.51783E-05 5.92224E-20
2.74153E-05 4.99565E-20
2.97475E-05 4.24308E-20
3.21749E-05 3.62702E-20
3.46974E-05 3.11903E-20
3.73152E-05 2.69720E-20
4.00281E-05 2.34454E-20
4.28362E-05 2.04779E-20
4.57395E-05 1.79656E-20
4.87380E-05 1.58267E-20
5.18317E-05 1.39962E-20
5.50205E-05 1.24226E-20
5.83045E-05 1.10638E-20
6.16838E-05 9.88595E-21
6.51582E-05 8.86105E-21
6.87277E-05 7.96591E-21
7.23925E-05 7.18124E-21
7.61524E-05 6.50559E-21
9.21439E-05 4.44118E-21
1.09658E-04 3.13271E-21
1.28695E-04 2.27144E-21
1.49255E-04 1.68563E-21
1.71338E-04 1.27626E-21
1.94942E-04 9.83193E-22
2.20070E-04 7.69017E-22
2.46720E-04 6.09615E-22
2.74892E-04 4.89021E-22
3.04586E-04 3.96478E-22
3.35803E-04 3.24520E-22
3.68542E-04 2.67917E-22
4.02802E-04 2.22915E-22
4.38585E-04 1.86790E-22
4.75889E-04 1.57534E-22
5.14715E-04 1.33648E-22
5.55063E-04 1.14002E-22
5.96931E-04 9.77316E-23
6.40321E-04 8.41707E-23
6.85233E-04 7.28018E-23
7.31665E-04 6.32180E-23
7.79618E-04 5.50982E-23
8.29092E-04 4.81858E-23
8.80086E-04 4.22751E-23
9.32601E-04 3.72000E-23
9.86636E-04 3.28252E-23
1.04219E-03 2.90403E-23
1.09927E-03 2.57545E-23
1.15786E-03 2.28928E-23
1.21797E-03 2.03927E-23
1.27961E-03 1.82023E-23
1.34276E-03 1.62779E-23
1.40743E-03 1.45830E-23
1.47362E-03 1.30864E-23
1.54133E-03 1.17621E-23
1.61056E-03 1.05875E-23
1.68131E-03 9.54354E-24
1.75357E-03 8.61393E-24
1.82735E-03 7.78459E-24
1.90265E-03 7.04337E-24
1.97947E-03 6.37980E-24
2.05780E-03 5.78480E-24
2.13765E-03 5.25047E-24
2.21902E-03 4.76994E-24
2.30190E-03 4.33718E-24
2.38630E-03 3.94695E-24
2.47222E-03 3.59462E-24
2.55965E-03 3.27614E-24
2.64859E-03 2.98794E-24
2.73905E-03 2.72685E-24
2.83103E-03 2.49008E-24
2.92452E-03 2.27517E-24
3.01952E-03 2.07991E-24
3.11604E-03 1.90235E-24
3.21407E-03 1.74076E-24
3.31362E-03 1.59358E-24
3.41468E-03 1.45943E-24
3.51725E-03 1.33707E-24
3.62133E-03 1.22539E-24
3.72692E-03 1.12338E-24
3.83403E-03 1.03017E-24
3.94265E-03 9.44937E-25
4.05278E-03 8.66962E-25
4.16442E-03 7.95590E-25
4.27757E-03 7.30233E-25
4.39223E-03 6.70357E-25
4.50840E-03 6.15479E-25
4.62608E-03 5.65164E-25
4.74527E-03 5.19015E-25
4.86597E-03 4.76674E-25
4.98817E-03 4.37815E-25
5.11188E-03 4.02141E-25
5.23711E-03 3.69383E-25
5.36383E-03 3.39297E-25
5.49207E-03 3.11658E-25
5.62181E-03 2.86262E-25
5.75306E-03 2.62924E-25
5.88581E-03 2.41474E-25
6.02007E-03 2.21757E-25
6.15583E-03 2.03632E-25
6.29310E-03 1.86968E-25
6.43187E-03 1.71647E-25
6.57214E-03 1.57560E-25
6.71392E-03 1.44607E-25
6.85720E-03 1.32698E-25
7.00198E-03 1.21748E-25
7.14827E-03 1.11681E-25
7.29605E-03 1.02426E-25
7.44534E-03 9.39181E-26
7.59612E-03 8.60979E-26
7.97965E-03 6.92074E-26
8.37255E-03 5.55428E-26
8.77480E-03 4.45013E-26
9.18641E-03 3.55927E-26
9.60736E-03 2.84178E-26
1.00376E-02 2.26508E-26
1.04773E-02 1.80262E-26
1.09262E-02 1.43272E-26
1.13844E-02 1.13769E-26
1.18520E-02 9.03091E-27
1.23288E-02 7.17157E-27
1.28150E-02 5.70300E-27
1.33104E-02 4.54721E-27
1.38150E-02 3.64089E-27
1.43290E-02 2.93271E-27
1.48521E-02 2.38119E-27
1.53845E-02 1.95290E-27
1.59262E-02 1.62101E-27
1.64770E-02 1.36404E-27
1.70371E-02 1.16489E-27
1.76063E-02 1.01002E-27
1.81848E-02 8.88789E-28
1.87724E-02 7.92866E-28
1.93692E-02 7.15800E-28
1.99751E-02 6.52641E-28
2.05901E-02 5.99631E-28
2.12143E-02 5.53958E-28
2.18476E-02 5.13552E-28
2.24900E-02 4.76919E-28
2.31415E-02 4.43010E-28
2.38021E-02 4.11113E-28
2.44717E-02 3.80768E-28
2.51504E-02 3.51701E-28
2.58382E-02 3.23765E-28
2.65349E-02 2.96909E-28
2.72407E-02 2.71136E-28
2.79555E-02 2.46486E-28
2.86793E-02 2.23013E-28
2.94120E-02 2.00777E-28
3.01537E-02 1.79832E-28
3.09043E-02 1.60222E-28
3.16639E-02 1.41975E-28
3.24324E-02 1.25106E-28
3.32098E-02 1.09612E-28
3.39961E-02 9.54734E-29
3.47912E-02 8.26581E-29
3.55952E-02 7.11207E-29
3.64081E-02 6.08053E-29
3.72297E-02 5.16472E-29
3.80602E-02 4.35753E-29
3.88995E-02 3.65139E-29
3.97476E-02 3.03844E-29
4.06044E-02 2.51069E-29
4.14700E-02 2.06021E-29
4.23443E-02 1.67918E-29
4.32273E-02 1.36006E-29
4.41190E-02 1.09564E-29
4.50194E-02 8.79106E-30
4.59284E-02 7.04096E-30
4.68461E-02 5.64730E-30
4.87074E-02 3.71908E-30
5.06030E-02 2.63627E-30
5.25328E-02 2.10660E-30
5.44967E-02 1.90896E-30
5.64946E-02 1.88406E-30
5.85262E-02 1.92389E-30
6.05914E-02 1.96113E-30
6.26901E-02 1.95927E-30
6.48222E-02 1.90378E-30
6.69873E-02 1.79486E-30
6.91854E-02 1.64146E-30
7.14163E-02 1.45689E-30
7.36799E-02 1.25558E-30
7.59760E-02 1.05097E-30
7.83043E-02 8.54254E-31
8.06647E-02 6.73836E-31
8.30571E-02 5.15204E-31
8.54812E-02 3.81183E-31
8.79369E-02 2.72360E-31
9.04240E-02 1.87587E-31
9.29422E-02 1.24509E-31
9.54915E-02 8.00421E-32
9.80716E-02 5.07821E-32
1.00682E-01 3.33315E-32
1.03323E-01 2.45326E-32
1.05995E-01 2.16213E-32
1.08696E-01 2.23080E-32
1.11427E-01 2.48012E-32
1.14188E-01 2.77876E-32
1.16978E-01 3.03833E-32
1.19797E-01 3.20665E-32
1.22645E-01 3.26035E-32
1.25522E-01 3.19749E-32
1.28428E-01 3.03073E-32
1.31361E-01 2.78145E-32
1.34323E-01 2.47495E-32
1.37313E-01 2.13682E-32
1.40330E-01 1.79039E-32
1.43375E-01 1.45514E-32
1.46447E-01 1.14592E-32
1.49545E-01 8.72807E-33
1.52671E-01 6.41408E-33
1.55823E-01 4.53472E-33
1.59001E-01 3.07655E-33
1.62205E-01 2.00342E-33
1.65435E-01 1.26441E-33
1.68690E-01 8.00894E-34
1.71970E-01 5.52437E-34
1.75276E-01 4.61316E-34
1.78606E-01 4.75750E-34
1.81961E-01 5.51861E-34
1.85340E-01 6.54588E-34
1.88743E-01 7.57730E-34
1.92169E-01 8.43367E-34
1.95619E-01 9.00835E-34
1.99092E-01 9.25466E-34
2.02589E-01 9.17227E-34
2.06107E-01 8.79400E-34
2.09649E-01 8.17369E-34
2.13212E-01 7.37589E-34
2.16797E-01 6.46754E-34
2.20404E-01 5.51166E-34
2.24032E-01 4.56315E-34
2.27680E-01 3.66627E-34
2.31350E-01 2.85362E-34
2.35040E-01 2.14632E-34
2.38751E-01 1.55497E-34
2.42481E-01 1.08122E-34
2.46231E-01 7.19588E-35
2.50000E-01 4.59408E-35
2.53788E-01 2.86653E-35
2.57595E-01 1.85585E-35
2.61421E-01 1.40136E-35
2.65264E-01 1.34992E-35
2.69126E-01 1.56369E-35
2.73005E-01 1.92510E-35
2.76901E-01 2.33929E-35
2.80814E-01 2.73455E-35
2.84744E-01 3.06110E-35
2.88691E-01 3.28873E-35
2.92653E-01 3.40384E-35
2.96632E-01 3.40600E-35
3.00625E-01 3.30461E-35
3.04634E-01 3.11566E-35
3.08658E-01 2.85891E-35
3.12697E-01 2.55549E-35
3.16749E-01 2.22603E-35
3.20816E-01 1.88928E-35
3.24896E-01 1.56115E-35
3.28990E-01 1.25428E-35
3.33097E-01 9.77837E-36
3.37216E-01 7.37645E-36
3.41348E-01 5.36511E-36
3.45492E-01 3.74657E-36
3.49647E-01 2.50244E-36
3.53814E-01 1.59897E-36
3.57992E-01 9.92236E-37
3.62181E-01 6.32724E-37
3.66381E-01 4.69314E-37
3.70590E-01 4.52462E-37
3.74810E-01 5.36599E-37
3.79039E-01 6.81771E-37
3.83277E-01 8.54593E-37
3.87524E-01 1.02861E-36
3.91780E-01 1.18417E-36
3.96044E-01 1.30797E-36
4.00316E-01 1.39232E-36
4.04596E-01 1.43425E-36
4.08882E-01 1.43456E-36
4.13176E-01 1.39687E-36
4.17476E-01 1.32674E-36
4.21783E-01 1.23086E-36
4.26095E-01 1.11637E-36
4.30413E-01 9.90309E-37
4.34737E-01 8.59215E-37
4.39065E-01 7.28804E-37
4.43398E-01 6.03828E-37
4.47736E-01 4.87966E-37
4.52077E-01 3.83849E-37
4.56422E-01 2.93100E-37
4.60770E-01 2.16461E-37
4.65122E-01 1.53911E-37
4.69476E-01 1.04820E-37
4.73832E-01 6.80969E-38
4.78190E-01 4.23326E-38
4.82550E-01 2.59283E-38
4.86912E-01 1.00000E-45
4.91274E-01 1.00000E-45
4.95637E-01 1.00000E-45
5.00000E-01 1.00000E-45
5.04363E-01 1.00000E-45
5.08726E-01 1.00000E-45
5.13088E-01 1.00000E-45
5.17450E-01 1.00000E-45
5.21810E-01 1.00000E-45
5.26168E-01 1.00000E-45
5.30524E-01 1.00000E-45
5.34878E-01 1.00000E-45
5.39230E-01 1.00000E-45
5.43578E-01 1.00000E-45
5.47923E-01 1.00000E-45
5.52264E-01 1.00000E-45
5.56602E-01 1.00000E-45
5.60935E-01 1.00000E-45
5.65263E-01 1.00000E-45
5.69587E-01 1.00000E-45
5.73905E-01 1.00000E-45
5.78217E-01 1.00000E-45
5.82524E-01 1.00000E-45
5.86824E-01 1.00000E-45
5.91118E-01 1.00000E-45
5.95404E-01 1.00000E-45
5.99684E-01 1.00000E-45
6.03956E-01 1.00000E-45
6.08220E-01 1.00000E-45
6.12476E-01 1.00000E-45
6.16723E-01 1.00000E-45
6.20961E-01 1.00000E-45
6.25190E-01 1.00000E-45
6.29410E-01 1.00000E-45
6.33619E-01 1.00000E-45
6.37819E-01 1.00000E-45
6.42008E-01 1.00000E-45
6.46186E-01 1.00000E-45
6.50353E-01 1.00000E-45
6.54508E-01 1.00000E-45
6.58652E-01 1.00000E-45
6.62784E-01 1.00000E-45
6.66903E-01 1.00000E-45
6.71010E-01 1.00000E-45
6.75104E-01 1.00000E-45
6.79184E-01 1.00000E-45
6.83251E-01 1.00000E-45
6.87303E-01 1.00000E-45
6.91342E-01 1.00000E-45
6.95366E-01 1.00000E-45
6.99375E-01 1.00000E-45
7.03368E-01 1.00000E-45
7.07347E-01 1.00000E-45
7.11309E-01 1.00000E-45
7.15256E-01 1.00000E-45
7.19186E-01 1.00000E-45
7.23099E-01 1.00000E-45
7.26995E-01 1.00000E-45
7.30874E-01 1.00000E-45
7.34736E-01 1.00000E-45
7.38579E-01 1.00000E-45
7.42405E-01 1.00000E-45
7.46212E-01 1.00000E-45
7.50000E-01 1.00000E-45
7.53769E-01 1.00000E-45
7.57519E-01 1.00000E-45
7.61249E-01 1.00000E-45
7.64960E-01 1.00000E-45
7.68650E-01 1.00000E-45
7.72320E-01 1.00000E-45
7.75968E-01 1.00000E-45
7.79596E-01 1.00000E-45
7.83203E-01 1.00000E-45
7.86788E-01 1.00000E-45
7.90351E-01 1.00000E-45
7.93893E-01 1.00000E-45
7.97411E-01 1.00000E-45
8.00908E-01 1.00000E-45
8.04381E-01 1.00000E-45
8.07831E-01 1.00000E-45
8.11257E-01 1.00000E-45
8.14660E-01 1.00000E-45
8.18039E-01 1.00000E-45
8.21394E-01 1.00000E-45
8.24724E-01 1.00000E-45
8.28030E-01 1.00000E-45
8.31310E-01 1.00000E-45
8.34565E-01 1.00000E-45
8.37795E-01 1.00000E-45
8.40999E-01 1.00000E-45
8.44177E-01 1.00000E-45
8.47329E-01 1.00000E-45
8.50455E-01 1.00000E-45
8.53553E-01 1.00000E-45
8.56625E-01 1.00000E-45
8.59670E-01 1.00000E-45
8.62687E-01 1.00000E-45
8.65677E-01 1.00000E-45
8.68639E-01 1.00000E-45
8.71572E-01 1.00000E-45
8.74478E-01 1.00000E-45
8.77355E-01 1.00000E-45
8.80203E-01 1.00000E-45
8.83022E-01 1.00000E-45
8.85812E-01 1.00000E-45
8.88573E-01 1.00000E-45
8.91304E-01 1.00000E-45
8.94005E-01 1.00000E-45
8.96677E-01 1.00000E-45
8.99318E-01 1.00000E-45
9.01928E-01 1.00000E-45
9.04508E-01 1.00000E-45
9.07058E-01 1.00000E-45
9.09576E-01 1.00000E-45
9.12063E-01 1.00000E-45
9.14519E-01 1.00000E-45
9.16943E-01 1.00000E-45
9.19335E-01 1.00000E-45
9.21696E-01 1.00000E-45
9.24024E-01 1.00000E-45
9.26320E-01 1.00000E-45
9.28584E-01 1.00000E-45
9.30815E-01 1.00000E-45
9.33013E-01 1.00000E-45
9.35178E-01 1.00000E-45
9.37310E-01 1.00000E-45
9.39409E-01 1.00000E-45
9.41474E-01 1.00000E-45
9.43505E-01 1.00000E-45
9.45503E-01 1.00000E-45
9.47467E-01 1.00000E-45
9.49397E-01 1.00000E-45
9.51293E-01 1.00000E-45
9.53154E-01 1.00000E-45
9.54981E-01 1.00000E-45
9.56773E-01 1.00000E-45
9.58530E-01 1.00000E-45
9.60252E-01 1.00000E-45
9.61940E-01 1.00000E-45
9.63592E-01 1.00000E-45
9.65209E-01 1.00000E-45
9.66790E-01 1.00000E-45
9.68336E-01 1.00000E-45
9.69846E-01 1.00000E-45
9.71321E-01 1.00000E-45
9.72759E-01 1.00000E-45
9.74162E-01 1.00000E-45
9.75528E-01 1.00000E-45
9.76858E-01 1.00000E-45
9.78152E-01 1.00000E-45
9.79410E-01 1.00000E-45
9.80631E-01 1.00000E-45
9.81815E-01 1.00000E-45
9.82963E-01 1.00000E-45
9.84074E-01 1.00000E-45
9.85148E-01 1.00000E-45
9.86185E-01 1.00000E-45
9.87185E-01 1.00000E-45
9.88148E-01 1.00000E-45
9.89074E-01 1.00000E-45
9.89962E-01 1.00000E-45
9.90814E-01 1.00000E-45
9.91627E-01 1.00000E-45
9.92404E-01 1.00000E-45
9.93143E-01 1.00000E-45
9.93844E-01 1.00000E-45
9.94508E-01 1.00000E-45
9.95134E-01 1.00000E-45
9.95722E-01 1.00000E-45
9.96273E-01 1.00000E-45
9.96786E-01 1.00000E-45
9.97261E-01 1.00000E-45
9.97698E-01 1.00000E-45
9.98097E-01 1.00000E-45
9.98459E-01 1.00000E-45
9.98782E-01 1.00000E-45
9.99067E-01 1.00000E-45
9.99315E-01 1.00000E-45
9.99524E-01 1.00000E-45
9.99695E-01 1.00000E-45
9.99829E-01 1.00000E-45
9.99924E-01 1.00000E-45
9.99981E-01 1.00000E-45
1.00000E+00 1.00000E-45
