 #
 # Subroutine ELSEPA. Elastic scattering of electrons and positrons
 #                    by neutral atoms and positive ions
 #
 # Projectile: electron
 # Kinetic energy = 5.00000E+07 eV = 1.83747E+06 a.u.
 #
 # WARNING: High-energy factorization with free-atom DF screening.
 #          Absorption, polarization and exchange corrections are
 #          switched off.
 #          Phase shifts are calculated for the bare nucleus.
 #          Scattering amplitudes are not evaluated.
 #
 # Element: Sb,  Z =  51,  atomic weight = 1.21760E+02 g/mol
 #
 # Nuclear model: Fermi distribution
 #                Average radius = 5.30337E-13 cm
 #                Skin thickness = 5.46000E-14 cm
 #
 # Number of electrons = 51
 #
 # Total elastic cross section = 5.31562E-18 cm**2 = 1.89824E-01 a0**2
 # 1st transport cross section = 2.00443E-24 cm**2 = 7.15796E-08 a0**2
 # 2nd transport cross section = 5.87535E-24 cm**2 = 2.09813E-07 a0**2
 #
 #
 # Differential cross section:                       MU=(1-COS(THETA))/2
 #
 #  THETA        MU          DCS          DCS        Sherman      error
 #  (deg)                 (cm**2/sr)   (a0**2/sr)    function
 #----------------------------------------------------------------------
0.00000E+00 1.15787E-10
7.61557E-13 1.15718E-10
1.18994E-12 1.15679E-10
1.71346E-12 1.15631E-10
2.33225E-12 1.15576E-10
3.04617E-12 1.15511E-10
3.85530E-12 1.15438E-10
4.75964E-12 1.15356E-10
5.75917E-12 1.15267E-10
6.85391E-12 1.15168E-10
8.04379E-12 1.15061E-10
9.32893E-12 1.14946E-10
1.07092E-11 1.14823E-10
1.21847E-11 1.14691E-10
1.37554E-11 1.14551E-10
1.54213E-11 1.14403E-10
1.71823E-11 1.14247E-10
1.90386E-11 1.14082E-10
2.09900E-11 1.13910E-10
2.30367E-11 1.13730E-10
2.51785E-11 1.13542E-10
2.74156E-11 1.13346E-10
2.97478E-11 1.13142E-10
3.21752E-11 1.12930E-10
3.46979E-11 1.12711E-10
3.73157E-11 1.12484E-10
4.00286E-11 1.12250E-10
4.28368E-11 1.12009E-10
4.57402E-11 1.11760E-10
4.87388E-11 1.11504E-10
5.18325E-11 1.11241E-10
5.50215E-11 1.10970E-10
5.83057E-11 1.10693E-10
6.16850E-11 1.10409E-10
6.51595E-11 1.10118E-10
6.87293E-11 1.09820E-10
7.23943E-11 1.09516E-10
7.61544E-11 1.09205E-10
1.18991E-10 1.05748E-10
1.71347E-10 1.01765E-10
2.33223E-10 9.73589E-11
3.04617E-10 9.26461E-11
3.85531E-10 8.77365E-11
4.75965E-10 8.27314E-11
5.75917E-10 7.77203E-11
6.85389E-10 7.27791E-11
8.04380E-10 6.79626E-11
9.32891E-10 6.33181E-11
1.07092E-09 5.88899E-11
1.21847E-09 5.47017E-11
1.37554E-09 5.07669E-11
1.54213E-09 4.70909E-11
1.71823E-09 4.36725E-11
1.90386E-09 4.05056E-11
2.09900E-09 3.75806E-11
2.30367E-09 3.48852E-11
2.51785E-09 3.24059E-11
2.74156E-09 3.01282E-11
2.97478E-09 2.80374E-11
3.21752E-09 2.61162E-11
3.46978E-09 2.43536E-11
3.73156E-09 2.27364E-11
4.00286E-09 2.12520E-11
4.28368E-09 1.98884E-11
4.57402E-09 1.86348E-11
4.87388E-09 1.74810E-11
5.18326E-09 1.64179E-11
5.50215E-09 1.54371E-11
5.83057E-09 1.45312E-11
6.16850E-09 1.36931E-11
6.51596E-09 1.29168E-11
6.87293E-09 1.21964E-11
7.23942E-09 1.15265E-11
7.61544E-09 1.09033E-11
1.18991E-08 6.44303E-12
1.71347E-08 4.06799E-12
2.33223E-08 2.66327E-12
3.04617E-08 1.79529E-12
3.85531E-08 1.24410E-12
4.75965E-08 8.86233E-13
5.75917E-08 6.48652E-13
6.85389E-08 4.87081E-13
8.04380E-08 3.74282E-13
9.32891E-08 2.93454E-13
1.07092E-07 2.34103E-13
1.21847E-07 1.89492E-13
1.37554E-07 1.55259E-13
1.54213E-07 1.28515E-13
1.71823E-07 1.07301E-13
1.90386E-07 9.02583E-14
2.09900E-07 7.64259E-14
2.30367E-07 6.50922E-14
2.51785E-07 5.57109E-14
2.74156E-07 4.79217E-14
2.97478E-07 4.14188E-14
3.21752E-07 3.59554E-14
3.46978E-07 3.13475E-14
3.73156E-07 2.74426E-14
4.00286E-07 2.41179E-14
4.28368E-07 2.12751E-14
4.57402E-07 1.88346E-14
4.87388E-07 1.67318E-14
5.18325E-07 1.49136E-14
5.50215E-07 1.33361E-14
5.83057E-07 1.19629E-14
6.16850E-07 1.07632E-14
6.51596E-07 9.71150E-15
6.87293E-07 8.78623E-15
7.23942E-07 7.96933E-15
7.61543E-07 7.24592E-15
1.18991E-06 3.12561E-15
1.71347E-06 1.56658E-15
2.33223E-06 8.68642E-16
3.04617E-06 5.18661E-16
3.85531E-06 3.28103E-16
4.75964E-06 2.17397E-16
5.75916E-06 1.49616E-16
6.85388E-06 1.06301E-16
8.04378E-06 7.75901E-17
9.32888E-06 5.79537E-17
1.07092E-05 4.41593E-17
1.21846E-05 3.42395E-17
1.37553E-05 2.69577E-17
1.54212E-05 2.15142E-17
1.71822E-05 1.73792E-17
1.90385E-05 1.41881E-17
2.09899E-05 1.17045E-17
2.30365E-05 9.74072E-18
2.51783E-05 8.17101E-18
2.74153E-05 6.90413E-18
2.97475E-05 5.87305E-18
3.21749E-05 5.02742E-18
3.46974E-05 4.32887E-18
3.73152E-05 3.74784E-18
4.00281E-05 3.26136E-18
4.28362E-05 2.85142E-18
4.57395E-05 2.50389E-18
4.87380E-05 2.20765E-18
5.18317E-05 1.95385E-18
5.50205E-05 1.73542E-18
5.83045E-05 1.54663E-18
6.16838E-05 1.38284E-18
6.51582E-05 1.24019E-18
6.87277E-05 1.11550E-18
7.23925E-05 1.00612E-18
7.61524E-05 9.10096E-19
9.21439E-05 6.23056E-19
1.09658E-04 4.40761E-19
1.28695E-04 3.20564E-19
1.49255E-04 2.38679E-19
1.71338E-04 1.81371E-19
1.94942E-04 1.40282E-19
2.20070E-04 1.10205E-19
2.46720E-04 8.77810E-20
2.74892E-04 7.07850E-20
3.04586E-04 5.77156E-20
3.35803E-04 4.75308E-20
3.68542E-04 3.94996E-20
4.02802E-04 3.30976E-20
4.38585E-04 2.79433E-20
4.75889E-04 2.37561E-20
5.14715E-04 2.03258E-20
5.55063E-04 1.74940E-20
5.96931E-04 1.51395E-20
6.40321E-04 1.31689E-20
6.85233E-04 1.15094E-20
7.31665E-04 1.01038E-20
7.79618E-04 8.90685E-21
8.29092E-04 7.88241E-21
8.80086E-04 7.00147E-21
9.32601E-04 6.24053E-21
9.86636E-04 5.58047E-21
1.04219E-03 5.00566E-21
1.09927E-03 4.50318E-21
1.15786E-03 4.06238E-21
1.21797E-03 3.67437E-21
1.27961E-03 3.33174E-21
1.34276E-03 3.02825E-21
1.40743E-03 2.75865E-21
1.47362E-03 2.51849E-21
1.54133E-03 2.30400E-21
1.61056E-03 2.11193E-21
1.68131E-03 1.93954E-21
1.75357E-03 1.78444E-21
1.82735E-03 1.64460E-21
1.90265E-03 1.51824E-21
1.97947E-03 1.40383E-21
2.05780E-03 1.30004E-21
2.13765E-03 1.20569E-21
2.21902E-03 1.11979E-21
2.30190E-03 1.04144E-21
2.38630E-03 9.69841E-22
2.47222E-03 9.04317E-22
2.55965E-03 8.44258E-22
2.64859E-03 7.89125E-22
2.73905E-03 7.38435E-22
2.83103E-03 6.91768E-22
2.92452E-03 6.48748E-22
3.01952E-03 6.09033E-22
3.11604E-03 5.72323E-22
3.21407E-03 5.38351E-22
3.31362E-03 5.06874E-22
3.41468E-03 4.77672E-22
3.51725E-03 4.50553E-22
3.62133E-03 4.25342E-22
3.72692E-03 4.01874E-22
3.83403E-03 3.80012E-22
3.94265E-03 3.59624E-22
4.05278E-03 3.40588E-22
4.16442E-03 3.22804E-22
4.27757E-03 3.06169E-22
4.39223E-03 2.90596E-22
4.50840E-03 2.76007E-22
4.62608E-03 2.62325E-22
4.74527E-03 2.49484E-22
4.86597E-03 2.37424E-22
4.98817E-03 2.26086E-22
5.11188E-03 2.15420E-22
5.23711E-03 2.05379E-22
5.36383E-03 1.95918E-22
5.49207E-03 1.86999E-22
5.62181E-03 1.78583E-22
5.75306E-03 1.70638E-22
5.88581E-03 1.63131E-22
6.02007E-03 1.56035E-22
6.15583E-03 1.49322E-22
6.29310E-03 1.42967E-22
6.43187E-03 1.36949E-22
6.57214E-03 1.31245E-22
6.71392E-03 1.25837E-22
6.85720E-03 1.20705E-22
7.00198E-03 1.15833E-22
7.14827E-03 1.11206E-22
7.29605E-03 1.06808E-22
7.44534E-03 1.02626E-22
7.59612E-03 9.86484E-23
7.97965E-03 8.95175E-23
8.37255E-03 8.14221E-23
8.77480E-03 7.42245E-23
9.18641E-03 6.78072E-23
9.60736E-03 6.20708E-23
1.00376E-02 5.69300E-23
1.04773E-02 5.23118E-23
1.09262E-02 4.81537E-23
1.13844E-02 4.44014E-23
1.18520E-02 4.10083E-23
1.23288E-02 3.79337E-23
1.28150E-02 3.51423E-23
1.33104E-02 3.26033E-23
1.38150E-02 3.02896E-23
1.43290E-02 2.81777E-23
1.48521E-02 2.62467E-23
1.53845E-02 2.44782E-23
1.59262E-02 2.28561E-23
1.64770E-02 2.13661E-23
1.70371E-02 1.99954E-23
1.76063E-02 1.87326E-23
1.81848E-02 1.75678E-23
1.87724E-02 1.64919E-23
1.93692E-02 1.54969E-23
1.99751E-02 1.45755E-23
2.05901E-02 1.37214E-23
2.12143E-02 1.29286E-23
2.18476E-02 1.21920E-23
2.24900E-02 1.15069E-23
2.31415E-02 1.08689E-23
2.38021E-02 1.02743E-23
2.44717E-02 9.71952E-24
2.51504E-02 9.20141E-24
2.58382E-02 8.71711E-24
2.65349E-02 8.26398E-24
2.72407E-02 7.83967E-24
2.79555E-02 7.44198E-24
2.86793E-02 7.06895E-24
2.94120E-02 6.71875E-24
3.01537E-02 6.38974E-24
3.09043E-02 6.08038E-24
3.16639E-02 5.78930E-24
3.24324E-02 5.51520E-24
3.32098E-02 5.25691E-24
3.39961E-02 5.01336E-24
3.47912E-02 4.78354E-24
3.55952E-02 4.56654E-24
3.64081E-02 4.36151E-24
3.72297E-02 4.16767E-24
3.80602E-02 3.98429E-24
3.88995E-02 3.81070E-24
3.97476E-02 3.64629E-24
4.06044E-02 3.49049E-24
4.14700E-02 3.34275E-24
4.23443E-02 3.20258E-24
4.32273E-02 3.06952E-24
4.41190E-02 2.94315E-24
4.50194E-02 2.82307E-24
4.59284E-02 2.70891E-24
4.68461E-02 2.60032E-24
4.87074E-02 2.39860E-24
5.06030E-02 2.21558E-24
5.25328E-02 2.04923E-24
5.44967E-02 1.89776E-24
5.64946E-02 1.75963E-24
5.85262E-02 1.63345E-24
6.05914E-02 1.51802E-24
6.26901E-02 1.41227E-24
6.48222E-02 1.31524E-24
6.69873E-02 1.22610E-24
6.91854E-02 1.14409E-24
7.14163E-02 1.06856E-24
7.36799E-02 9.98897E-25
7.59760E-02 9.34578E-25
7.83043E-02 8.75123E-25
8.06647E-02 8.20105E-25
8.30571E-02 7.69136E-25
8.54812E-02 7.21872E-25
8.79369E-02 6.77999E-25
9.04240E-02 6.37234E-25
9.29422E-02 5.99322E-25
9.54915E-02 5.64032E-25
9.80716E-02 5.31153E-25
1.00682E-01 5.00494E-25
1.03323E-01 4.71882E-25
1.05995E-01 4.45160E-25
1.08696E-01 4.20182E-25
1.11427E-01 3.96818E-25
1.14188E-01 3.74947E-25
1.16978E-01 3.54460E-25
1.19797E-01 3.35255E-25
1.22645E-01 3.17241E-25
1.25522E-01 3.00333E-25
1.28428E-01 2.84452E-25
1.31361E-01 2.69527E-25
1.34323E-01 2.55493E-25
1.37313E-01 2.42288E-25
1.40330E-01 2.29856E-25
1.43375E-01 2.18147E-25
1.46447E-01 2.07111E-25
1.49545E-01 1.96705E-25
1.52671E-01 1.86888E-25
1.55823E-01 1.77621E-25
1.59001E-01 1.68871E-25
1.62205E-01 1.60604E-25
1.65435E-01 1.52789E-25
1.68690E-01 1.45400E-25
1.71970E-01 1.38410E-25
1.75276E-01 1.31794E-25
1.78606E-01 1.25530E-25
1.81961E-01 1.19597E-25
1.85340E-01 1.13974E-25
1.88743E-01 1.08645E-25
1.92169E-01 1.03591E-25
1.95619E-01 9.87972E-26
1.99092E-01 9.42479E-26
2.02589E-01 8.99292E-26
2.06107E-01 8.58283E-26
2.09649E-01 8.19327E-26
2.13212E-01 7.82311E-26
2.16797E-01 7.47127E-26
2.20404E-01 7.13673E-26
2.24032E-01 6.81856E-26
2.27680E-01 6.51587E-26
2.31350E-01 6.22781E-26
2.35040E-01 5.95361E-26
2.38751E-01 5.69254E-26
2.42481E-01 5.44388E-26
2.46231E-01 5.20700E-26
2.50000E-01 4.98128E-26
2.53788E-01 4.76615E-26
2.57595E-01 4.56104E-26
2.61421E-01 4.36546E-26
2.65264E-01 4.17891E-26
2.69126E-01 4.00094E-26
2.73005E-01 3.83112E-26
2.76901E-01 3.66904E-26
2.80814E-01 3.51431E-26
2.84744E-01 3.36657E-26
2.88691E-01 3.22548E-26
2.92653E-01 3.09071E-26
2.96632E-01 2.96195E-26
3.00625E-01 2.83891E-26
3.04634E-01 2.72132E-26
3.08658E-01 2.60892E-26
3.12697E-01 2.50145E-26
3.16749E-01 2.39868E-26
3.20816E-01 2.30040E-26
3.24896E-01 2.20638E-26
3.28990E-01 2.11644E-26
3.33097E-01 2.03037E-26
3.37216E-01 1.94801E-26
3.41348E-01 1.86918E-26
3.45492E-01 1.79371E-26
3.49647E-01 1.72146E-26
3.53814E-01 1.65227E-26
3.57992E-01 1.58601E-26
3.62181E-01 1.52254E-26
3.66381E-01 1.46175E-26
3.70590E-01 1.40350E-26
3.74810E-01 1.34769E-26
3.79039E-01 1.29420E-26
3.83277E-01 1.24294E-26
3.87524E-01 1.19381E-26
3.91780E-01 1.14671E-26
3.96044E-01 1.10155E-26
4.00316E-01 1.05825E-26
4.04596E-01 1.01672E-26
4.08882E-01 9.76896E-27
4.13176E-01 9.38698E-27
4.17476E-01 9.02056E-27
4.21783E-01 8.66904E-27
4.26095E-01 8.33176E-27
4.30413E-01 8.00814E-27
4.34737E-01 7.69758E-27
4.39065E-01 7.39953E-27
4.43398E-01 7.11347E-27
4.47736E-01 6.83887E-27
4.52077E-01 6.57528E-27
4.56422E-01 6.32221E-27
4.60770E-01 6.07923E-27
4.65122E-01 5.84592E-27
4.69476E-01 5.62188E-27
4.73832E-01 5.40672E-27
4.78190E-01 5.20008E-27
4.82550E-01 5.00160E-27
4.86912E-01 4.81094E-27
4.91274E-01 4.62779E-27
4.95637E-01 4.45184E-27
5.00000E-01 4.28278E-27
5.04363E-01 4.12035E-27
5.08726E-01 3.96427E-27
5.13088E-01 3.81428E-27
5.17450E-01 3.67014E-27
5.21810E-01 3.53160E-27
5.26168E-01 3.39845E-27
5.30524E-01 3.27046E-27
5.34878E-01 3.14744E-27
5.39230E-01 3.02917E-27
5.43578E-01 2.91546E-27
5.47923E-01 2.80615E-27
5.52264E-01 2.70104E-27
5.56602E-01 2.59998E-27
5.60935E-01 2.50280E-27
5.65263E-01 2.40935E-27
5.69587E-01 2.31948E-27
5.73905E-01 2.23304E-27
5.78217E-01 2.14991E-27
5.82524E-01 2.06995E-27
5.86824E-01 1.99304E-27
5.91118E-01 1.91906E-27
5.95404E-01 1.84789E-27
5.99684E-01 1.77942E-27
6.03956E-01 1.71355E-27
6.08220E-01 1.65017E-27
6.12476E-01 1.58919E-27
6.16723E-01 1.53052E-27
6.20961E-01 1.47406E-27
6.25190E-01 1.41973E-27
6.29410E-01 1.36745E-27
6.33619E-01 1.31713E-27
6.37819E-01 1.26871E-27
6.42008E-01 1.22210E-27
6.46186E-01 1.17724E-27
6.50353E-01 1.13406E-27
6.54508E-01 1.09250E-27
6.58652E-01 1.05249E-27
6.62784E-01 1.01397E-27
6.66903E-01 9.76887E-28
6.71010E-01 9.41187E-28
6.75104E-01 9.06815E-28
6.79184E-01 8.73721E-28
6.83251E-01 8.41856E-28
6.87303E-01 8.11172E-28
6.91342E-01 7.81625E-28
6.95366E-01 7.53171E-28
6.99375E-01 7.25769E-28
7.03368E-01 6.99379E-28
7.07347E-01 6.73962E-28
7.11309E-01 6.49481E-28
7.15256E-01 6.25902E-28
7.19186E-01 6.03189E-28
7.23099E-01 5.81310E-28
7.26995E-01 5.60234E-28
7.30874E-01 5.39930E-28
7.34736E-01 5.20369E-28
7.38579E-01 5.01522E-28
7.42405E-01 4.83364E-28
7.46212E-01 4.65869E-28
7.50000E-01 4.49010E-28
7.53769E-01 4.32765E-28
7.57519E-01 4.17110E-28
7.61249E-01 4.02024E-28
7.64960E-01 3.87484E-28
7.68650E-01 3.73471E-28
7.72320E-01 3.59964E-28
7.75968E-01 3.46946E-28
7.79596E-01 3.34397E-28
7.83203E-01 3.22300E-28
7.86788E-01 3.10639E-28
7.90351E-01 2.99396E-28
7.93893E-01 2.88557E-28
7.97411E-01 2.78107E-28
8.00908E-01 2.68031E-28
8.04381E-01 2.58315E-28
8.07831E-01 2.48946E-28
8.11257E-01 2.39911E-28
8.14660E-01 2.31197E-28
8.18039E-01 2.22794E-28
8.21394E-01 2.14689E-28
8.24724E-01 2.06871E-28
8.28030E-01 1.99330E-28
8.31310E-01 1.92056E-28
8.34565E-01 1.85039E-28
8.37795E-01 1.78269E-28
8.40999E-01 1.71738E-28
8.44177E-01 1.65436E-28
8.47329E-01 1.59356E-28
8.50455E-01 1.53489E-28
8.53553E-01 1.47827E-28
8.56625E-01 1.42364E-28
8.59670E-01 1.37091E-28
8.62687E-01 1.32002E-28
8.65677E-01 1.27090E-28
8.68639E-01 1.22349E-28
8.71572E-01 1.17773E-28
8.74478E-01 1.13355E-28
8.77355E-01 1.09091E-28
8.80203E-01 1.04974E-28
8.83022E-01 1.00999E-28
8.85812E-01 9.71616E-29
8.88573E-01 9.34563E-29
8.91304E-01 8.98786E-29
8.94005E-01 8.64239E-29
8.96677E-01 8.30879E-29
8.99318E-01 7.98664E-29
9.01928E-01 7.67553E-29
9.04508E-01 7.37508E-29
9.07058E-01 7.08491E-29
9.09576E-01 6.80466E-29
9.12063E-01 6.53400E-29
9.14519E-01 6.27257E-29
9.16943E-01 6.02008E-29
9.19335E-01 5.77620E-29
9.21696E-01 5.54064E-29
9.24024E-01 5.31311E-29
9.26320E-01 5.09335E-29
9.28584E-01 4.88108E-29
9.30815E-01 4.67606E-29
9.33013E-01 4.47804E-29
9.35178E-01 4.28678E-29
9.37310E-01 4.10207E-29
9.39409E-01 3.92367E-29
9.41474E-01 3.75139E-29
9.43505E-01 3.58502E-29
9.45503E-01 3.42438E-29
9.47467E-01 3.26926E-29
9.49397E-01 3.11951E-29
9.51293E-01 2.97493E-29
9.53154E-01 2.83538E-29
9.54981E-01 2.70069E-29
9.56773E-01 2.57071E-29
9.58530E-01 2.44529E-29
9.60252E-01 2.32429E-29
9.61940E-01 2.20758E-29
9.63592E-01 2.09503E-29
9.65209E-01 1.98651E-29
9.66790E-01 1.88190E-29
9.68336E-01 1.78110E-29
9.69846E-01 1.68398E-29
9.71321E-01 1.59045E-29
9.72759E-01 1.50041E-29
9.74162E-01 1.41375E-29
9.75528E-01 1.33038E-29
9.76858E-01 1.25022E-29
9.78152E-01 1.17317E-29
9.79410E-01 1.09917E-29
9.80631E-01 1.02812E-29
9.81815E-01 9.59957E-30
9.82963E-01 8.94609E-30
9.84074E-01 8.32006E-30
9.85148E-01 7.72085E-30
9.86185E-01 7.14782E-30
9.87185E-01 6.60038E-30
9.88148E-01 6.07799E-30
9.89074E-01 5.58009E-30
9.89962E-01 5.10619E-30
9.90814E-01 4.65580E-30
9.91627E-01 4.22846E-30
9.92404E-01 3.82375E-30
9.93143E-01 3.44126E-30
9.93844E-01 3.08060E-30
9.94508E-01 2.74142E-30
9.95134E-01 2.42337E-30
9.95722E-01 2.12614E-30
9.96273E-01 1.84943E-30
9.96786E-01 1.59297E-30
9.97261E-01 1.35650E-30
9.97698E-01 1.13980E-30
9.98097E-01 9.42642E-31
9.98459E-01 7.64840E-31
9.98782E-01 6.06218E-31
9.99067E-01 4.66620E-31
9.99315E-01 3.45910E-31
9.99524E-01 2.43969E-31
9.99695E-01 1.60699E-31
9.99829E-01 9.60170E-32
9.99924E-01 4.98607E-32
9.99981E-01 2.21847E-32
1.00000E+00 1.29628E-32
