 #
 # Subroutine ELSEPA. Elastic scattering of electrons and positrons
 #                    by neutral atoms and positive ions
 #
 # Projectile: electron
 # Kinetic energy = 5.00000E+08 eV = 1.83747E+07 a.u.
 #
 # WARNING: High-energy factorization with free-atom DF screening.
 #          Absorption, polarization and exchange corrections are
 #          switched off.
 #          Phase shifts are calculated for the bare nucleus.
 #          Scattering amplitudes are not evaluated.
 #
 # Element: Sb,  Z =  51,  atomic weight = 1.21760E+02 g/mol
 #
 # Nuclear model: Fermi distribution
 #                Average radius = 5.30337E-13 cm
 #                Skin thickness = 5.46000E-14 cm
 #
 # Number of electrons = 51
 #
 # Total elastic cross section = 5.31170E-18 cm**2 = 1.89684E-01 a0**2
 # 1st transport cross section = 2.04009E-26 cm**2 = 7.28529E-10 a0**2
 # 2nd transport cross section = 6.11788E-26 cm**2 = 2.18473E-09 a0**2
 #
 #
 # Differential cross section:                       MU=(1-COS(THETA))/2
 #
 #  THETA        MU          DCS          DCS        Sherman      error
 #  (deg)                 (cm**2/sr)   (a0**2/sr)    function
 #----------------------------------------------------------------------
0.00000E+00 1.13688E-08
7.61557E-13 1.07336E-08
1.18994E-12 1.03996E-08
1.71346E-12 1.00143E-08
2.33225E-12 9.58780E-09
3.04617E-12 9.13107E-09
3.85530E-12 8.65466E-09
4.75964E-12 8.16832E-09
5.75917E-12 7.68069E-09
6.85391E-12 7.19803E-09
8.04379E-12 6.72695E-09
9.32893E-12 6.27285E-09
1.07092E-11 5.83928E-09
1.21847E-11 5.42859E-09
1.37554E-11 5.04220E-09
1.54213E-11 4.68070E-09
1.71823E-11 4.34408E-09
1.90386E-11 4.03181E-09
2.09900E-11 3.74303E-09
2.30367E-11 3.47661E-09
2.51785E-11 3.23114E-09
2.74156E-11 3.00508E-09
2.97478E-11 2.79744E-09
3.21752E-11 2.60682E-09
3.46979E-11 2.43183E-09
3.73157E-11 2.27117E-09
4.00286E-11 2.12360E-09
4.28368E-11 1.98796E-09
4.57402E-11 1.86319E-09
4.87388E-11 1.74830E-09
5.18325E-11 1.64240E-09
5.50215E-11 1.54467E-09
5.83057E-11 1.45423E-09
6.16850E-11 1.37054E-09
6.51595E-11 1.29301E-09
6.87293E-11 1.22108E-09
7.23943E-11 1.15426E-09
7.61544E-11 1.09209E-09
1.18991E-10 6.46381E-10
1.71347E-10 4.09107E-10
2.33223E-10 2.68459E-10
3.04617E-10 1.81296E-10
3.85531E-10 1.25784E-10
4.75965E-10 8.96582E-11
5.75917E-10 6.56371E-11
6.85389E-10 4.92686E-11
8.04380E-10 3.78475E-11
9.32891E-10 2.96726E-11
1.07092E-09 2.36710E-11
1.21847E-09 1.91617E-11
1.37554E-09 1.57029E-11
1.54213E-09 1.30017E-11
1.71823E-09 1.08595E-11
1.90386E-09 9.13830E-12
2.09900E-09 7.74069E-12
2.30367E-09 6.59627E-12
2.51785E-09 5.64728E-12
2.74156E-09 4.85801E-12
2.97478E-09 4.19922E-12
3.21752E-09 3.64635E-12
3.46978E-09 3.17994E-12
3.73156E-09 2.78452E-12
4.00286E-09 2.44772E-12
4.28368E-09 2.15960E-12
4.57402E-09 1.91215E-12
4.87388E-09 1.69885E-12
5.18326E-09 1.51435E-12
5.50215E-09 1.35422E-12
5.83057E-09 1.21475E-12
6.16850E-09 1.09290E-12
6.51596E-09 9.86088E-13
6.87293E-09 8.92126E-13
7.23942E-09 8.09189E-13
7.61544E-09 7.35746E-13
1.18991E-08 3.17380E-13
1.71347E-08 1.59079E-13
2.33223E-08 8.82365E-14
3.04617E-08 5.26916E-14
3.85531E-08 3.33326E-14
4.75965E-08 2.20851E-14
5.75917E-08 1.51994E-14
6.85389E-08 1.07979E-14
8.04380E-08 7.88047E-15
9.32891E-08 5.88550E-15
1.07092E-07 4.48402E-15
1.21847E-07 3.47625E-15
1.37554E-07 2.73658E-15
1.54213E-07 2.18372E-15
1.71823E-07 1.76376E-15
1.90386E-07 1.44012E-15
2.09900E-07 1.18746E-15
2.30367E-07 9.87864E-16
2.51785E-07 8.28500E-16
2.74156E-07 7.00015E-16
2.97478E-07 5.95497E-16
3.21752E-07 5.09770E-16
3.46978E-07 4.38925E-16
3.73156E-07 3.79966E-16
4.00286E-07 3.30578E-16
4.28368E-07 2.88955E-16
4.57402E-07 2.53678E-16
4.87388E-07 2.23622E-16
5.18325E-07 1.97885E-16
5.50215E-07 1.75744E-16
5.83057E-07 1.56613E-16
6.16850E-07 1.40014E-16
6.51596E-07 1.25555E-16
6.87293E-07 1.12915E-16
7.23942E-07 1.01825E-16
7.61543E-07 9.20627E-17
1.18991E-06 3.78395E-17
1.71347E-06 1.82839E-17
2.33223E-06 9.88125E-18
3.04617E-06 5.79704E-18
3.85531E-06 3.62129E-18
4.75964E-06 2.37706E-18
5.75916E-06 1.62421E-18
6.85388E-06 1.14718E-18
8.04378E-06 8.33131E-19
9.32888E-06 6.19572E-19
1.07092E-05 4.70269E-19
1.21846E-05 3.63356E-19
1.37553E-05 2.85176E-19
1.54212E-05 2.26940E-19
1.71822E-05 1.82842E-19
1.90385E-05 1.48912E-19
2.09899E-05 1.22578E-19
2.30365E-05 1.01808E-19
2.51783E-05 8.52457E-20
2.74153E-05 7.19088E-20
2.97475E-05 6.10762E-20
3.21749E-05 5.22086E-20
3.46974E-05 4.48966E-20
3.73152E-05 3.88248E-20
4.00281E-05 3.37486E-20
4.28362E-05 2.94770E-20
4.57395E-05 2.58606E-20
4.87380E-05 2.27817E-20
5.18317E-05 2.01469E-20
5.50205E-05 1.78817E-20
5.83045E-05 1.59259E-20
6.16838E-05 1.42305E-20
6.51582E-05 1.27552E-20
6.87277E-05 1.14668E-20
7.23925E-05 1.03373E-20
7.61524E-05 9.37634E-21
9.21439E-05 6.40592E-21
1.09658E-04 4.52273E-21
1.28695E-04 3.28281E-21
1.49255E-04 2.43913E-21
1.71338E-04 1.84930E-21
1.94942E-04 1.42683E-21
2.20070E-04 1.11789E-21
2.46720E-04 8.87801E-22
2.74892E-04 7.13593E-22
3.04586E-04 5.79789E-22
3.35803E-04 4.75650E-22
3.68542E-04 3.93645E-22
4.02802E-04 3.28375E-22
4.38585E-04 2.75912E-22
4.75889E-04 2.33371E-22
5.14715E-04 1.98587E-22
5.55063E-04 1.69935E-22
5.96931E-04 1.46166E-22
6.40321E-04 1.26322E-22
6.85233E-04 1.09655E-22
7.31665E-04 9.55785E-23
7.79618E-04 8.36279E-23
8.29092E-04 7.34326E-23
8.80086E-04 6.46954E-23
9.32601E-04 5.71757E-23
9.86636E-04 5.06779E-23
1.04219E-03 4.50421E-23
1.09927E-03 4.01363E-23
1.15786E-03 3.58517E-23
1.21797E-03 3.20979E-23
1.27961E-03 2.87992E-23
1.34276E-03 2.58922E-23
1.40743E-03 2.33235E-23
1.47362E-03 2.10479E-23
1.54133E-03 1.90271E-23
1.61056E-03 1.72285E-23
1.68131E-03 1.56241E-23
1.75357E-03 1.41899E-23
1.82735E-03 1.29053E-23
1.90265E-03 1.17526E-23
1.97947E-03 1.07163E-23
2.05780E-03 9.78309E-24
2.13765E-03 8.94130E-24
2.21902E-03 8.18079E-24
2.30190E-03 7.49268E-24
2.38630E-03 6.86916E-24
2.47222E-03 6.30341E-24
2.55965E-03 5.78939E-24
2.64859E-03 5.32179E-24
2.73905E-03 4.89589E-24
2.83103E-03 4.50753E-24
2.92452E-03 4.15300E-24
3.01952E-03 3.82901E-24
3.11604E-03 3.53264E-24
3.21407E-03 3.26126E-24
3.31362E-03 3.01252E-24
3.41468E-03 2.78435E-24
3.51725E-03 2.57485E-24
3.62133E-03 2.38233E-24
3.72692E-03 2.20529E-24
3.83403E-03 2.04235E-24
3.94265E-03 1.89229E-24
4.05278E-03 1.75398E-24
4.16442E-03 1.62642E-24
4.27757E-03 1.50870E-24
4.39223E-03 1.40000E-24
4.50840E-03 1.29956E-24
4.62608E-03 1.20670E-24
4.74527E-03 1.12081E-24
4.86597E-03 1.04133E-24
4.98817E-03 9.67726E-25
5.11188E-03 8.99547E-25
5.23711E-03 8.36361E-25
5.36383E-03 7.77778E-25
5.49207E-03 7.23439E-25
5.62181E-03 6.73017E-25
5.75306E-03 6.26214E-25
5.88581E-03 5.82754E-25
6.02007E-03 5.42384E-25
6.15583E-03 5.04874E-25
6.29310E-03 4.70010E-25
6.43187E-03 4.37597E-25
6.57214E-03 4.07454E-25
6.71392E-03 3.79416E-25
6.85720E-03 3.53329E-25
7.00198E-03 3.29052E-25
7.14827E-03 3.06455E-25
7.29605E-03 2.85417E-25
7.44534E-03 2.65829E-25
7.59612E-03 2.47586E-25
7.97965E-03 2.07262E-25
8.37255E-03 1.73475E-25
8.77480E-03 1.45148E-25
9.18641E-03 1.21390E-25
9.60736E-03 1.01460E-25
1.00376E-02 8.47406E-26
1.04773E-02 7.07178E-26
1.09262E-02 5.89602E-26
1.13844E-02 4.91069E-26
1.18520E-02 4.08551E-26
1.23288E-02 3.39503E-26
1.28150E-02 2.81785E-26
1.33104E-02 2.33592E-26
1.38150E-02 1.93407E-26
1.43290E-02 1.59949E-26
1.48521E-02 1.32137E-26
1.53845E-02 1.09060E-26
1.59262E-02 8.99494E-27
1.64770E-02 7.41557E-27
1.70371E-02 6.11325E-27
1.76063E-02 5.04188E-27
1.81848E-02 4.16265E-27
1.87724E-02 3.44290E-27
1.93692E-02 2.85521E-27
1.99751E-02 2.37656E-27
2.05901E-02 1.98766E-27
2.12143E-02 1.67240E-27
2.18476E-02 1.41732E-27
2.24900E-02 1.21124E-27
2.31415E-02 1.04488E-27
2.38021E-02 9.10552E-28
2.44717E-02 8.01931E-28
2.51504E-02 7.13823E-28
2.58382E-02 6.41982E-28
2.65349E-02 5.82959E-28
2.72407E-02 5.33966E-28
2.79555E-02 4.92763E-28
2.86793E-02 4.57568E-28
2.94120E-02 4.26971E-28
3.01537E-02 3.99872E-28
3.09043E-02 3.75420E-28
3.16639E-02 3.52968E-28
3.24324E-02 3.32032E-28
3.32098E-02 3.12258E-28
3.39961E-02 2.93396E-28
3.47912E-02 2.75273E-28
3.55952E-02 2.57782E-28
3.64081E-02 2.40857E-28
3.72297E-02 2.24469E-28
3.80602E-02 2.08612E-28
3.88995E-02 1.93295E-28
3.97476E-02 1.78538E-28
4.06044E-02 1.64365E-28
4.14700E-02 1.50801E-28
4.23443E-02 1.37872E-28
4.32273E-02 1.25596E-28
4.41190E-02 1.13992E-28
4.50194E-02 1.03071E-28
4.59284E-02 9.28368E-29
4.68461E-02 8.32903E-29
4.87074E-02 6.62319E-29
5.06030E-02 5.17903E-29
5.25328E-02 3.97936E-29
5.44967E-02 3.00212E-29
5.64946E-02 2.22232E-29
5.85262E-02 1.61361E-29
6.05914E-02 1.14976E-29
6.26901E-02 8.05677E-30
6.48222E-02 5.58248E-30
6.69873E-02 3.86791E-30
6.91854E-02 2.73342E-30
7.14163E-02 2.02715E-30
7.36799E-02 1.62426E-30
7.59760E-02 1.42502E-30
7.83043E-02 1.35230E-30
8.06647E-02 1.34860E-30
8.30571E-02 1.37297E-30
8.54812E-02 1.39803E-30
8.79369E-02 1.40708E-30
9.04240E-02 1.39161E-30
9.29422E-02 1.34904E-30
9.54915E-02 1.28087E-30
9.80716E-02 1.19114E-30
1.00682E-01 1.08526E-30
1.03323E-01 9.69109E-31
1.05995E-01 8.48367E-31
1.08696E-01 7.28119E-31
1.11427E-01 6.12591E-31
1.14188E-01 5.05049E-31
1.16978E-01 4.07782E-31
1.19797E-01 3.22175E-31
1.22645E-01 2.48812E-31
1.25522E-01 1.87614E-31
1.28428E-01 1.37990E-31
1.31361E-01 9.89697E-32
1.34323E-01 6.93423E-32
1.37313E-01 4.77679E-32
1.40330E-01 3.28728E-32
1.43375E-01 2.33244E-32
1.46447E-01 1.78866E-32
1.49545E-01 1.54561E-32
1.52671E-01 1.50847E-32
1.55823E-01 1.59867E-32
1.59001E-01 1.75374E-32
1.62205E-01 1.92631E-32
1.65435E-01 2.08256E-32
1.68690E-01 2.20044E-32
1.71970E-01 2.26763E-32
1.75276E-01 2.27958E-32
1.78606E-01 2.23760E-32
1.81961E-01 2.14714E-32
1.85340E-01 2.01629E-32
1.88743E-01 1.85455E-32
1.92169E-01 1.67179E-32
1.95619E-01 1.47754E-32
1.99092E-01 1.28039E-32
2.02589E-01 1.08770E-32
2.06107E-01 9.05389E-33
2.09649E-01 7.37876E-33
2.13212E-01 5.88152E-33
2.16797E-01 4.57897E-33
2.20404E-01 3.47647E-33
2.24032E-01 2.57001E-33
2.27680E-01 1.84821E-33
2.31350E-01 1.29436E-33
2.35040E-01 8.88326E-34
2.38751E-01 6.08126E-34
2.42481E-01 4.31370E-34
2.46231E-01 3.36355E-34
2.50000E-01 3.02904E-34
2.53788E-01 3.12958E-34
2.57595E-01 3.50927E-34
2.61421E-01 4.03858E-34
2.65264E-01 4.61428E-34
2.69126E-01 5.15824E-34
2.73005E-01 5.61524E-34
2.76901E-01 5.95022E-34
2.80814E-01 6.14516E-34
2.84744E-01 6.19585E-34
2.88691E-01 6.10878E-34
2.92653E-01 5.89817E-34
2.96632E-01 5.58332E-34
3.00625E-01 5.18637E-34
3.04634E-01 4.73035E-34
3.08658E-01 4.23776E-34
3.12697E-01 3.72937E-34
3.16749E-01 3.22347E-34
3.20816E-01 2.73543E-34
3.24896E-01 2.27744E-34
3.28990E-01 1.85850E-34
3.33097E-01 1.48463E-34
3.37216E-01 1.15910E-34
3.41348E-01 8.82797E-35
3.45492E-01 6.54624E-35
3.49647E-01 4.71918E-35
3.53814E-01 3.30847E-35
3.57992E-01 2.26789E-35
3.62181E-01 1.54673E-35
3.66381E-01 1.09267E-35
3.70590E-01 8.54210E-36
3.74810E-01 7.82571E-36
3.79039E-01 8.33096E-36
3.83277E-01 9.66209E-36
3.87524E-01 1.14796E-35
3.91780E-01 1.35021E-35
3.96044E-01 1.55061E-35
4.00316E-01 1.73221E-35
4.04596E-01 1.88308E-35
4.08882E-01 1.99567E-35
4.13176E-01 2.06621E-35
4.17476E-01 2.09404E-35
4.21783E-01 2.08095E-35
4.26095E-01 2.03057E-35
4.30413E-01 1.94780E-35
4.34737E-01 1.83831E-35
4.39065E-01 1.70814E-35
4.43398E-01 1.56330E-35
4.47736E-01 1.40954E-35
4.52077E-01 1.25212E-35
4.56422E-01 1.09569E-35
4.60770E-01 9.44168E-36
4.65122E-01 8.00736E-36
4.69476E-01 6.67825E-36
4.73832E-01 5.47154E-36
4.78190E-01 4.39783E-36
4.82550E-01 3.46188E-36
4.86912E-01 2.66345E-36
4.91274E-01 1.99813E-36
4.95637E-01 1.45824E-36
5.00000E-01 1.03363E-36
5.04363E-01 7.12497E-37
5.08726E-01 4.82036E-37
5.13088E-01 3.29057E-37
5.17450E-01 2.40493E-37
5.21810E-01 2.03798E-37
5.26168E-01 2.07268E-37
5.30524E-01 2.40261E-37
5.34878E-01 2.93352E-37
5.39230E-01 3.58403E-37
5.43578E-01 4.28589E-37
5.47923E-01 4.98362E-37
5.52264E-01 5.63394E-37
5.56602E-01 6.20475E-37
5.60935E-01 6.67398E-37
5.65263E-01 7.02837E-37
5.69587E-01 7.26208E-37
5.73905E-01 7.37550E-37
5.78217E-01 7.37391E-37
5.82524E-01 7.26633E-37
5.86824E-01 7.06440E-37
5.91118E-01 6.78154E-37
5.95404E-01 6.43204E-37
5.99684E-01 6.03040E-37
6.03956E-01 5.59081E-37
6.08220E-01 5.12670E-37
6.12476E-01 4.65033E-37
6.16723E-01 4.17273E-37
6.20961E-01 3.70342E-37
6.25190E-01 3.25041E-37
6.29410E-01 2.82021E-37
6.33619E-01 2.41780E-37
6.37819E-01 2.04682E-37
6.42008E-01 1.70964E-37
6.46186E-01 1.40748E-37
6.50353E-01 1.14057E-37
6.54508E-01 9.08306E-38
6.58652E-01 7.09409E-38
6.62784E-01 5.42048E-38
6.66903E-01 4.03995E-38
6.71010E-01 2.92735E-38
6.75104E-01 2.05573E-38
6.79184E-01 1.39743E-38
6.83251E-01 1.00000E-45
6.87303E-01 1.00000E-45
6.91342E-01 1.00000E-45
6.95366E-01 1.00000E-45
6.99375E-01 1.00000E-45
7.03368E-01 1.00000E-45
7.07347E-01 1.00000E-45
7.11309E-01 1.00000E-45
7.15256E-01 1.00000E-45
7.19186E-01 1.00000E-45
7.23099E-01 1.00000E-45
7.26995E-01 1.00000E-45
7.30874E-01 1.00000E-45
7.34736E-01 1.00000E-45
7.38579E-01 1.00000E-45
7.42405E-01 1.00000E-45
7.46212E-01 1.00000E-45
7.50000E-01 1.00000E-45
7.53769E-01 1.00000E-45
7.57519E-01 1.00000E-45
7.61249E-01 1.00000E-45
7.64960E-01 1.00000E-45
7.68650E-01 1.00000E-45
7.72320E-01 1.00000E-45
7.75968E-01 1.00000E-45
7.79596E-01 1.00000E-45
7.83203E-01 1.00000E-45
7.86788E-01 1.00000E-45
7.90351E-01 1.00000E-45
7.93893E-01 1.00000E-45
7.97411E-01 1.00000E-45
8.00908E-01 1.00000E-45
8.04381E-01 1.00000E-45
8.07831E-01 1.00000E-45
8.11257E-01 1.00000E-45
8.14660E-01 1.00000E-45
8.18039E-01 1.00000E-45
8.21394E-01 1.00000E-45
8.24724E-01 1.00000E-45
8.28030E-01 1.00000E-45
8.31310E-01 1.00000E-45
8.34565E-01 1.00000E-45
8.37795E-01 1.00000E-45
8.40999E-01 1.00000E-45
8.44177E-01 1.00000E-45
8.47329E-01 1.00000E-45
8.50455E-01 1.00000E-45
8.53553E-01 1.00000E-45
8.56625E-01 1.00000E-45
8.59670E-01 1.00000E-45
8.62687E-01 1.00000E-45
8.65677E-01 1.00000E-45
8.68639E-01 1.00000E-45
8.71572E-01 1.00000E-45
8.74478E-01 1.00000E-45
8.77355E-01 1.00000E-45
8.80203E-01 1.00000E-45
8.83022E-01 1.00000E-45
8.85812E-01 1.00000E-45
8.88573E-01 1.00000E-45
8.91304E-01 1.00000E-45
8.94005E-01 1.00000E-45
8.96677E-01 1.00000E-45
8.99318E-01 1.00000E-45
9.01928E-01 1.00000E-45
9.04508E-01 1.00000E-45
9.07058E-01 1.00000E-45
9.09576E-01 1.00000E-45
9.12063E-01 1.00000E-45
9.14519E-01 1.00000E-45
9.16943E-01 1.00000E-45
9.19335E-01 1.00000E-45
9.21696E-01 1.00000E-45
9.24024E-01 1.00000E-45
9.26320E-01 1.00000E-45
9.28584E-01 1.00000E-45
9.30815E-01 1.00000E-45
9.33013E-01 1.00000E-45
9.35178E-01 1.00000E-45
9.37310E-01 1.00000E-45
9.39409E-01 1.00000E-45
9.41474E-01 1.00000E-45
9.43505E-01 1.00000E-45
9.45503E-01 1.00000E-45
9.47467E-01 1.00000E-45
9.49397E-01 1.00000E-45
9.51293E-01 1.00000E-45
9.53154E-01 1.00000E-45
9.54981E-01 1.00000E-45
9.56773E-01 1.00000E-45
9.58530E-01 1.00000E-45
9.60252E-01 1.00000E-45
9.61940E-01 1.00000E-45
9.63592E-01 1.00000E-45
9.65209E-01 1.00000E-45
9.66790E-01 1.00000E-45
9.68336E-01 1.00000E-45
9.69846E-01 1.00000E-45
9.71321E-01 1.00000E-45
9.72759E-01 1.00000E-45
9.74162E-01 1.00000E-45
9.75528E-01 1.00000E-45
9.76858E-01 1.00000E-45
9.78152E-01 1.00000E-45
9.79410E-01 1.00000E-45
9.80631E-01 1.00000E-45
9.81815E-01 1.00000E-45
9.82963E-01 1.00000E-45
9.84074E-01 1.00000E-45
9.85148E-01 1.00000E-45
9.86185E-01 1.00000E-45
9.87185E-01 1.00000E-45
9.88148E-01 1.00000E-45
9.89074E-01 1.00000E-45
9.89962E-01 1.00000E-45
9.90814E-01 1.00000E-45
9.91627E-01 1.00000E-45
9.92404E-01 1.00000E-45
9.93143E-01 1.00000E-45
9.93844E-01 1.00000E-45
9.94508E-01 1.00000E-45
9.95134E-01 1.00000E-45
9.95722E-01 1.00000E-45
9.96273E-01 1.00000E-45
9.96786E-01 1.00000E-45
9.97261E-01 1.00000E-45
9.97698E-01 1.00000E-45
9.98097E-01 1.00000E-45
9.98459E-01 1.00000E-45
9.98782E-01 1.00000E-45
9.99067E-01 1.00000E-45
9.99315E-01 1.00000E-45
9.99524E-01 1.00000E-45
9.99695E-01 1.00000E-45
9.99829E-01 1.00000E-45
9.99924E-01 1.00000E-45
9.99981E-01 1.00000E-45
1.00000E+00 1.00000E-45
