 #
 # Subroutine ELSEPA. Elastic scattering of electrons and positrons
 #                    by neutral atoms and positive ions
 #
 # Projectile: electron
 # Kinetic energy = 3.50000E+06 eV = 1.28623E+05 a.u.
 #
 # WARNING: High-energy factorization with free-atom DF screening.
 #          Absorption, polarization and exchange corrections are
 #          switched off.
 #          Phase shifts are calculated for the bare nucleus.
 #          Scattering amplitudes are not evaluated.
 #
 # Element: Sb,  Z =  51,  atomic weight = 1.21760E+02 g/mol
 #
 # Nuclear model: Fermi distribution
 #                Average radius = 5.30337E-13 cm
 #                Skin thickness = 5.46000E-14 cm
 #
 # Number of electrons = 51
 #
 # Total elastic cross section = 5.41231E-18 cm**2 = 1.93277E-01 a0**2
 # 1st transport cross section = 2.52179E-22 cm**2 = 9.00549E-06 a0**2
 # 2nd transport cross section = 6.98818E-22 cm**2 = 2.49552E-05 a0**2
 #
 #
 # Differential cross section:                       MU=(1-COS(THETA))/2
 #
 #  THETA        MU          DCS          DCS        Sherman      error
 #  (deg)                 (cm**2/sr)   (a0**2/sr)    function
 #----------------------------------------------------------------------
0.00000E+00 7.30119E-13
7.61557E-13 7.30117E-13
1.18994E-12 7.30115E-13
1.71346E-12 7.30113E-13
2.33225E-12 7.30111E-13
3.04617E-12 7.30109E-13
3.85530E-12 7.30106E-13
4.75964E-12 7.30103E-13
5.75917E-12 7.30099E-13
6.85391E-12 7.30095E-13
8.04379E-12 7.30091E-13
9.32893E-12 7.30087E-13
1.07092E-11 7.30082E-13
1.21847E-11 7.30077E-13
1.37554E-11 7.30071E-13
1.54213E-11 7.30065E-13
1.71823E-11 7.30059E-13
1.90386E-11 7.30053E-13
2.09900E-11 7.30046E-13
2.30367E-11 7.30039E-13
2.51785E-11 7.30031E-13
2.74156E-11 7.30023E-13
2.97478E-11 7.30015E-13
3.21752E-11 7.30006E-13
3.46979E-11 7.29997E-13
3.73157E-11 7.29988E-13
4.00286E-11 7.29979E-13
4.28368E-11 7.29969E-13
4.57402E-11 7.29959E-13
4.87388E-11 7.29948E-13
5.18325E-11 7.29937E-13
5.50215E-11 7.29926E-13
5.83057E-11 7.29914E-13
6.16850E-11 7.29902E-13
6.51595E-11 7.29890E-13
6.87293E-11 7.29877E-13
7.23943E-11 7.29865E-13
7.61544E-11 7.29851E-13
1.18991E-10 7.29700E-13
1.71347E-10 7.29515E-13
2.33223E-10 7.29297E-13
3.04617E-10 7.29045E-13
3.85531E-10 7.28760E-13
4.75965E-10 7.28442E-13
5.75917E-10 7.28090E-13
6.85389E-10 7.27705E-13
8.04380E-10 7.27287E-13
9.32891E-10 7.26835E-13
1.07092E-09 7.26351E-13
1.21847E-09 7.25834E-13
1.37554E-09 7.25284E-13
1.54213E-09 7.24701E-13
1.71823E-09 7.24086E-13
1.90386E-09 7.23439E-13
2.09900E-09 7.22759E-13
2.30367E-09 7.22048E-13
2.51785E-09 7.21304E-13
2.74156E-09 7.20529E-13
2.97478E-09 7.19722E-13
3.21752E-09 7.18883E-13
3.46978E-09 7.18014E-13
3.73156E-09 7.17113E-13
4.00286E-09 7.16181E-13
4.28368E-09 7.15219E-13
4.57402E-09 7.14226E-13
4.87388E-09 7.13203E-13
5.18326E-09 7.12150E-13
5.50215E-09 7.11067E-13
5.83057E-09 7.09955E-13
6.16850E-09 7.08813E-13
6.51596E-09 7.07642E-13
6.87293E-09 7.06442E-13
7.23942E-09 7.05213E-13
7.61544E-09 7.03956E-13
1.18991E-08 6.89882E-13
1.71347E-08 6.73203E-13
2.33223E-08 6.54433E-13
3.04617E-08 6.33699E-13
3.85531E-08 6.11426E-13
4.75965E-08 5.88065E-13
5.75917E-08 5.63950E-13
6.85389E-08 5.39104E-13
8.04380E-08 5.14137E-13
9.32891E-08 4.89319E-13
1.07092E-07 4.64714E-13
1.21847E-07 4.40489E-13
1.37554E-07 4.16993E-13
1.54213E-07 3.94340E-13
1.71823E-07 3.72381E-13
1.90386E-07 3.51387E-13
2.09900E-07 3.31440E-13
2.30367E-07 3.12508E-13
2.51785E-07 2.94470E-13
2.74156E-07 2.77497E-13
2.97478E-07 2.61554E-13
3.21752E-07 2.46521E-13
3.46978E-07 2.32390E-13
3.73156E-07 2.19181E-13
4.00286E-07 2.06841E-13
4.28368E-07 1.95232E-13
4.57402E-07 1.84397E-13
4.87388E-07 1.74293E-13
5.18325E-07 1.64850E-13
5.50215E-07 1.55995E-13
5.83057E-07 1.47739E-13
6.16850E-07 1.40036E-13
6.51596E-07 1.32814E-13
6.87293E-07 1.26054E-13
7.23942E-07 1.19740E-13
7.61543E-07 1.13835E-13
1.18991E-06 7.11972E-14
1.71347E-06 4.65432E-14
2.33223E-06 3.22057E-14
3.04617E-06 2.25977E-14
3.85531E-06 1.62150E-14
4.75964E-06 1.18987E-14
5.75916E-06 8.88357E-15
6.85388E-06 6.71581E-15
8.04378E-06 5.17987E-15
9.32888E-06 4.06553E-15
1.07092E-05 3.23943E-15
1.21846E-05 2.61866E-15
1.37553E-05 2.14626E-15
1.54212E-05 1.78069E-15
1.71822E-05 1.49164E-15
1.90385E-05 1.26065E-15
2.09899E-05 1.07500E-15
2.30365E-05 9.23006E-16
2.51783E-05 7.96409E-16
2.74153E-05 6.90982E-16
2.97475E-05 6.02494E-16
3.21749E-05 5.27315E-16
3.46974E-05 4.63287E-16
3.73152E-05 4.08592E-16
4.00281E-05 3.61559E-16
4.28362E-05 3.20749E-16
4.57395E-05 2.85471E-16
4.87380E-05 2.54856E-16
5.18317E-05 2.28137E-16
5.50205E-05 2.04701E-16
5.83045E-05 1.84174E-16
6.16838E-05 1.66134E-16
6.51582E-05 1.50191E-16
6.87277E-05 1.36092E-16
7.23925E-05 1.23607E-16
7.61524E-05 1.12517E-16
9.21439E-05 7.88126E-17
1.09658E-04 5.68902E-17
1.28695E-04 4.21403E-17
1.49255E-04 3.18960E-17
1.71338E-04 2.46148E-17
1.94942E-04 1.93044E-17
2.20070E-04 1.53619E-17
2.46720E-04 1.23814E-17
2.74892E-04 1.00858E-17
3.04586E-04 8.29897E-18
3.35803E-04 6.89143E-18
3.68542E-04 5.76960E-18
4.02802E-04 4.86498E-18
4.38585E-04 4.13101E-18
4.75889E-04 3.53037E-18
5.14715E-04 3.03440E-18
5.55063E-04 2.62222E-18
5.96931E-04 2.27776E-18
6.40321E-04 1.98807E-18
6.85233E-04 1.74271E-18
7.31665E-04 1.53412E-18
7.79618E-04 1.35587E-18
8.29092E-04 1.20278E-18
8.80086E-04 1.07066E-18
9.32601E-04 9.56256E-19
9.86636E-04 8.56776E-19
1.04219E-03 7.69902E-19
1.09927E-03 6.93790E-19
1.15786E-03 6.26895E-19
1.21797E-03 5.67904E-19
1.27961E-03 5.15693E-19
1.34276E-03 4.69377E-19
1.40743E-03 4.28172E-19
1.47362E-03 3.91406E-19
1.54133E-03 3.58514E-19
1.61056E-03 3.29026E-19
1.68131E-03 3.02524E-19
1.75357E-03 2.78646E-19
1.82735E-03 2.57089E-19
1.90265E-03 2.37590E-19
1.97947E-03 2.19914E-19
2.05780E-03 2.03858E-19
2.13765E-03 1.89249E-19
2.21902E-03 1.75934E-19
2.30190E-03 1.63775E-19
2.38630E-03 1.52653E-19
2.47222E-03 1.42466E-19
2.55965E-03 1.33120E-19
2.64859E-03 1.24530E-19
2.73905E-03 1.16627E-19
2.83103E-03 1.09345E-19
2.92452E-03 1.02626E-19
3.01952E-03 9.64170E-20
3.11604E-03 9.06739E-20
3.21407E-03 8.53550E-20
3.31362E-03 8.04225E-20
3.41468E-03 7.58431E-20
3.51725E-03 7.15873E-20
3.62133E-03 6.76280E-20
3.72692E-03 6.39398E-20
3.83403E-03 6.05013E-20
3.94265E-03 5.72926E-20
4.05278E-03 5.42951E-20
4.16442E-03 5.14921E-20
4.27757E-03 4.88690E-20
4.39223E-03 4.64121E-20
4.50840E-03 4.41085E-20
4.62608E-03 4.19469E-20
4.74527E-03 3.99172E-20
4.86597E-03 3.80097E-20
4.98817E-03 3.62154E-20
5.11188E-03 3.45265E-20
5.23711E-03 3.29357E-20
5.36383E-03 3.14361E-20
5.49207E-03 3.00214E-20
5.62181E-03 2.86860E-20
5.75306E-03 2.74247E-20
5.88581E-03 2.62324E-20
6.02007E-03 2.51047E-20
6.15583E-03 2.40374E-20
6.29310E-03 2.30267E-20
6.43187E-03 2.20689E-20
6.57214E-03 2.11608E-20
6.71392E-03 2.02994E-20
6.85720E-03 1.94816E-20
7.00198E-03 1.87050E-20
7.14827E-03 1.79670E-20
7.29605E-03 1.72654E-20
7.44534E-03 1.65979E-20
7.59612E-03 1.59627E-20
7.97965E-03 1.45037E-20
8.37255E-03 1.32091E-20
8.77480E-03 1.20569E-20
9.18641E-03 1.10287E-20
9.60736E-03 1.01088E-20
1.00376E-02 9.28378E-21
1.04773E-02 8.54198E-21
1.09262E-02 7.87352E-21
1.13844E-02 7.26983E-21
1.18520E-02 6.72349E-21
1.23288E-02 6.22805E-21
1.28150E-02 5.77791E-21
1.33104E-02 5.36814E-21
1.38150E-02 4.99447E-21
1.43290E-02 4.65312E-21
1.48521E-02 4.34076E-21
1.53845E-02 4.05450E-21
1.59262E-02 3.79175E-21
1.64770E-02 3.55018E-21
1.70371E-02 3.32779E-21
1.76063E-02 3.12277E-21
1.81848E-02 2.93350E-21
1.87724E-02 2.75854E-21
1.93692E-02 2.59661E-21
1.99751E-02 2.44655E-21
2.05901E-02 2.30732E-21
2.12143E-02 2.17799E-21
2.18476E-02 2.05773E-21
2.24900E-02 1.94577E-21
2.31415E-02 1.84143E-21
2.38021E-02 1.74410E-21
2.44717E-02 1.65321E-21
2.51504E-02 1.56826E-21
2.58382E-02 1.48877E-21
2.65349E-02 1.41434E-21
2.72407E-02 1.34457E-21
2.79555E-02 1.27911E-21
2.86793E-02 1.21766E-21
2.94120E-02 1.15991E-21
3.01537E-02 1.10560E-21
3.09043E-02 1.05449E-21
3.16639E-02 1.00634E-21
3.24324E-02 9.60956E-22
3.32098E-02 9.18143E-22
3.39961E-02 8.77729E-22
3.47912E-02 8.39553E-22
3.55952E-02 8.03464E-22
3.64081E-02 7.69328E-22
3.72297E-02 7.37017E-22
3.80602E-02 7.06414E-22
3.88995E-02 6.77411E-22
3.97476E-02 6.49908E-22
4.06044E-02 6.23811E-22
4.14700E-02 5.99034E-22
4.23443E-02 5.75498E-22
4.32273E-02 5.53127E-22
4.41190E-02 5.31851E-22
4.50194E-02 5.11609E-22
4.59284E-02 4.92337E-22
4.68461E-02 4.73981E-22
4.87074E-02 4.39809E-22
5.06030E-02 4.08717E-22
5.25328E-02 3.80371E-22
5.44967E-02 3.54485E-22
5.64946E-02 3.30803E-22
5.85262E-02 3.09101E-22
6.05914E-02 2.89181E-22
6.26901E-02 2.70869E-22
6.48222E-02 2.54010E-22
6.69873E-02 2.38466E-22
6.91854E-02 2.24114E-22
7.14163E-02 2.10844E-22
7.36799E-02 1.98560E-22
7.59760E-02 1.87173E-22
7.83043E-02 1.76605E-22
8.06647E-02 1.66786E-22
8.30571E-02 1.57651E-22
8.54812E-02 1.49144E-22
8.79369E-02 1.41213E-22
9.04240E-02 1.33811E-22
9.29422E-02 1.26896E-22
9.54915E-02 1.20429E-22
9.80716E-02 1.14375E-22
1.00682E-01 1.08703E-22
1.03323E-01 1.03384E-22
1.05995E-01 9.83911E-23
1.08696E-01 9.37007E-23
1.11427E-01 8.92906E-23
1.14188E-01 8.51406E-23
1.16978E-01 8.12323E-23
1.19797E-01 7.75487E-23
1.22645E-01 7.40743E-23
1.25522E-01 7.07949E-23
1.28428E-01 6.76972E-23
1.31361E-01 6.47692E-23
1.34323E-01 6.19996E-23
1.37313E-01 5.93782E-23
1.40330E-01 5.68953E-23
1.43375E-01 5.45422E-23
1.46447E-01 5.23106E-23
1.49545E-01 5.01930E-23
1.52671E-01 4.81824E-23
1.55823E-01 4.62722E-23
1.59001E-01 4.44565E-23
1.62205E-01 4.27296E-23
1.65435E-01 4.10863E-23
1.68690E-01 3.95217E-23
1.71970E-01 3.80313E-23
1.75276E-01 3.66107E-23
1.78606E-01 3.52561E-23
1.81961E-01 3.39637E-23
1.85340E-01 3.27301E-23
1.88743E-01 3.15521E-23
1.92169E-01 3.04267E-23
1.95619E-01 2.93510E-23
1.99092E-01 2.83224E-23
2.02589E-01 2.73384E-23
2.06107E-01 2.63967E-23
2.09649E-01 2.54950E-23
2.13212E-01 2.46313E-23
2.16797E-01 2.38038E-23
2.20404E-01 2.30104E-23
2.24032E-01 2.22497E-23
2.27680E-01 2.15199E-23
2.31350E-01 2.08195E-23
2.35040E-01 2.01471E-23
2.38751E-01 1.95014E-23
2.42481E-01 1.88810E-23
2.46231E-01 1.82848E-23
2.50000E-01 1.77117E-23
2.53788E-01 1.71604E-23
2.57595E-01 1.66302E-23
2.61421E-01 1.61199E-23
2.65264E-01 1.56287E-23
2.69126E-01 1.51557E-23
2.73005E-01 1.47001E-23
2.76901E-01 1.42612E-23
2.80814E-01 1.38382E-23
2.84744E-01 1.34304E-23
2.88691E-01 1.30371E-23
2.92653E-01 1.26577E-23
2.96632E-01 1.22917E-23
3.00625E-01 1.19384E-23
3.04634E-01 1.15974E-23
3.08658E-01 1.12681E-23
3.12697E-01 1.09500E-23
3.16749E-01 1.06427E-23
3.20816E-01 1.03458E-23
3.24896E-01 1.00587E-23
3.28990E-01 9.78118E-24
3.33097E-01 9.51279E-24
3.37216E-01 9.25317E-24
3.41348E-01 9.00199E-24
3.45492E-01 8.75890E-24
3.49647E-01 8.52360E-24
3.53814E-01 8.29579E-24
3.57992E-01 8.07519E-24
3.62181E-01 7.86152E-24
3.66381E-01 7.65452E-24
3.70590E-01 7.45394E-24
3.74810E-01 7.25954E-24
3.79039E-01 7.07108E-24
3.83277E-01 6.88835E-24
3.87524E-01 6.71115E-24
3.91780E-01 6.53926E-24
3.96044E-01 6.37251E-24
4.00316E-01 6.21071E-24
4.04596E-01 6.05368E-24
4.08882E-01 5.90126E-24
4.13176E-01 5.75328E-24
4.17476E-01 5.60959E-24
4.21783E-01 5.47004E-24
4.26095E-01 5.33448E-24
4.30413E-01 5.20277E-24
4.34737E-01 5.07480E-24
4.39065E-01 4.95042E-24
4.43398E-01 4.82952E-24
4.47736E-01 4.71199E-24
4.52077E-01 4.59772E-24
4.56422E-01 4.48659E-24
4.60770E-01 4.37850E-24
4.65122E-01 4.27336E-24
4.69476E-01 4.17107E-24
4.73832E-01 4.07152E-24
4.78190E-01 3.97465E-24
4.82550E-01 3.88035E-24
4.86912E-01 3.78856E-24
4.91274E-01 3.69918E-24
4.95637E-01 3.61215E-24
5.00000E-01 3.52740E-24
5.04363E-01 3.44485E-24
5.08726E-01 3.36443E-24
5.13088E-01 3.28608E-24
5.17450E-01 3.20974E-24
5.21810E-01 3.13534E-24
5.26168E-01 3.06283E-24
5.30524E-01 2.99215E-24
5.34878E-01 2.92324E-24
5.39230E-01 2.85605E-24
5.43578E-01 2.79053E-24
5.47923E-01 2.72664E-24
5.52264E-01 2.66432E-24
5.56602E-01 2.60353E-24
5.60935E-01 2.54423E-24
5.65263E-01 2.48637E-24
5.69587E-01 2.42991E-24
5.73905E-01 2.37481E-24
5.78217E-01 2.32104E-24
5.82524E-01 2.26855E-24
5.86824E-01 2.21730E-24
5.91118E-01 2.16727E-24
5.95404E-01 2.11843E-24
5.99684E-01 2.07073E-24
6.03956E-01 2.02414E-24
6.08220E-01 1.97865E-24
6.12476E-01 1.93421E-24
6.16723E-01 1.89080E-24
6.20961E-01 1.84839E-24
6.25190E-01 1.80696E-24
6.29410E-01 1.76647E-24
6.33619E-01 1.72690E-24
6.37819E-01 1.68824E-24
6.42008E-01 1.65044E-24
6.46186E-01 1.61349E-24
6.50353E-01 1.57738E-24
6.54508E-01 1.54207E-24
6.58652E-01 1.50755E-24
6.62784E-01 1.47380E-24
6.66903E-01 1.44080E-24
6.71010E-01 1.40853E-24
6.75104E-01 1.37697E-24
6.79184E-01 1.34609E-24
6.83251E-01 1.31590E-24
6.87303E-01 1.28635E-24
6.91342E-01 1.25746E-24
6.95366E-01 1.22918E-24
6.99375E-01 1.20152E-24
7.03368E-01 1.17445E-24
7.07347E-01 1.14796E-24
7.11309E-01 1.12205E-24
7.15256E-01 1.09668E-24
7.19186E-01 1.07186E-24
7.23099E-01 1.04756E-24
7.26995E-01 1.02378E-24
7.30874E-01 1.00049E-24
7.34736E-01 9.77704E-25
7.38579E-01 9.55393E-25
7.42405E-01 9.33549E-25
7.46212E-01 9.12162E-25
7.50000E-01 8.91221E-25
7.53769E-01 8.70717E-25
7.57519E-01 8.50639E-25
7.61249E-01 8.30978E-25
7.64960E-01 8.11724E-25
7.68650E-01 7.92868E-25
7.72320E-01 7.74402E-25
7.75968E-01 7.56315E-25
7.79596E-01 7.38601E-25
7.83203E-01 7.21251E-25
7.86788E-01 7.04256E-25
7.90351E-01 6.87609E-25
7.93893E-01 6.71302E-25
7.97411E-01 6.55328E-25
8.00908E-01 6.39680E-25
8.04381E-01 6.24351E-25
8.07831E-01 6.09333E-25
8.11257E-01 5.94621E-25
8.14660E-01 5.80208E-25
8.18039E-01 5.66088E-25
8.21394E-01 5.52255E-25
8.24724E-01 5.38702E-25
8.28030E-01 5.25424E-25
8.31310E-01 5.12415E-25
8.34565E-01 4.99670E-25
8.37795E-01 4.87184E-25
8.40999E-01 4.74950E-25
8.44177E-01 4.62965E-25
8.47329E-01 4.51223E-25
8.50455E-01 4.39719E-25
8.53553E-01 4.28449E-25
8.56625E-01 4.17407E-25
8.59670E-01 4.06591E-25
8.62687E-01 3.95994E-25
8.65677E-01 3.85614E-25
8.68639E-01 3.75445E-25
8.71572E-01 3.65484E-25
8.74478E-01 3.55727E-25
8.77355E-01 3.46171E-25
8.80203E-01 3.36810E-25
8.83022E-01 3.27643E-25
8.85812E-01 3.18665E-25
8.88573E-01 3.09872E-25
8.91304E-01 3.01262E-25
8.94005E-01 2.92832E-25
8.96677E-01 2.84577E-25
8.99318E-01 2.76495E-25
9.01928E-01 2.68583E-25
9.04508E-01 2.60838E-25
9.07058E-01 2.53257E-25
9.09576E-01 2.45837E-25
9.12063E-01 2.38576E-25
9.14519E-01 2.31471E-25
9.16943E-01 2.24518E-25
9.19335E-01 2.17717E-25
9.21696E-01 2.11064E-25
9.24024E-01 2.04557E-25
9.26320E-01 1.98193E-25
9.28584E-01 1.91970E-25
9.30815E-01 1.85887E-25
9.33013E-01 1.79940E-25
9.35178E-01 1.74129E-25
9.37310E-01 1.68450E-25
9.39409E-01 1.62902E-25
9.41474E-01 1.57482E-25
9.43505E-01 1.52190E-25
9.45503E-01 1.47023E-25
9.47467E-01 1.41979E-25
9.49397E-01 1.37056E-25
9.51293E-01 1.32254E-25
9.53154E-01 1.27570E-25
9.54981E-01 1.23002E-25
9.56773E-01 1.18550E-25
9.58530E-01 1.14211E-25
9.60252E-01 1.09984E-25
9.61940E-01 1.05868E-25
9.63592E-01 1.01862E-25
9.65209E-01 9.79632E-26
9.66790E-01 9.41713E-26
9.68336E-01 9.04848E-26
9.69846E-01 8.69025E-26
9.71321E-01 8.34232E-26
9.72759E-01 8.00458E-26
9.74162E-01 7.67692E-26
9.75528E-01 7.35922E-26
9.76858E-01 7.05139E-26
9.78152E-01 6.75332E-26
9.79410E-01 6.46492E-26
9.80631E-01 6.18609E-26
9.81815E-01 5.91674E-26
9.82963E-01 5.65679E-26
9.84074E-01 5.40614E-26
9.85148E-01 5.16473E-26
9.86185E-01 4.93246E-26
9.87185E-01 4.70928E-26
9.88148E-01 4.49509E-26
9.89074E-01 4.28985E-26
9.89962E-01 4.09347E-26
9.90814E-01 3.90591E-26
9.91627E-01 3.72709E-26
9.92404E-01 3.55696E-26
9.93143E-01 3.39547E-26
9.93844E-01 3.24256E-26
9.94508E-01 3.09820E-26
9.95134E-01 2.96232E-26
9.95722E-01 2.83489E-26
9.96273E-01 2.71587E-26
9.96786E-01 2.60522E-26
9.97261E-01 2.50291E-26
9.97698E-01 2.40890E-26
9.98097E-01 2.32316E-26
9.98459E-01 2.24567E-26
9.98782E-01 2.17640E-26
9.99067E-01 2.11533E-26
9.99315E-01 2.06244E-26
9.99524E-01 2.01772E-26
9.99695E-01 1.98115E-26
9.99829E-01 1.95272E-26
9.99924E-01 1.93241E-26
9.99981E-01 1.92023E-26
1.00000E+00 1.91618E-26
