 #
 # Subroutine ELSEPA. Elastic scattering of electrons and positrons
 #                    by neutral atoms and positive ions
 #
 # Projectile: electron
 # Kinetic energy = 9.00000E+06 eV = 3.30744E+05 a.u.
 #
 # WARNING: High-energy factorization with free-atom DF screening.
 #          Absorption, polarization and exchange corrections are
 #          switched off.
 #          Phase shifts are calculated for the bare nucleus.
 #          Scattering amplitudes are not evaluated.
 #
 # Element: Sb,  Z =  51,  atomic weight = 1.21760E+02 g/mol
 #
 # Nuclear model: Fermi distribution
 #                Average radius = 5.30337E-13 cm
 #                Skin thickness = 5.46000E-14 cm
 #
 # Number of electrons = 51
 #
 # Total elastic cross section = 5.33611E-18 cm**2 = 1.90556E-01 a0**2
 # 1st transport cross section = 4.98235E-23 cm**2 = 1.77923E-06 a0**2
 # 2nd transport cross section = 1.40023E-22 cm**2 = 5.00032E-06 a0**2
 #
 #
 # Differential cross section:                       MU=(1-COS(THETA))/2
 #
 #  THETA        MU          DCS          DCS        Sherman      error
 #  (deg)                 (cm**2/sr)   (a0**2/sr)    function
 #----------------------------------------------------------------------
0.00000E+00 4.10526E-12
7.61557E-13 4.10517E-12
1.18994E-12 4.10513E-12
1.71346E-12 4.10507E-12
2.33225E-12 4.10500E-12
3.04617E-12 4.10491E-12
3.85530E-12 4.10482E-12
4.75964E-12 4.10472E-12
5.75917E-12 4.10461E-12
6.85391E-12 4.10448E-12
8.04379E-12 4.10434E-12
9.32893E-12 4.10420E-12
1.07092E-11 4.10404E-12
1.21847E-11 4.10387E-12
1.37554E-11 4.10370E-12
1.54213E-11 4.10351E-12
1.71823E-11 4.10331E-12
1.90386E-11 4.10310E-12
2.09900E-11 4.10287E-12
2.30367E-11 4.10264E-12
2.51785E-11 4.10240E-12
2.74156E-11 4.10215E-12
2.97478E-11 4.10188E-12
3.21752E-11 4.10161E-12
3.46979E-11 4.10132E-12
3.73157E-11 4.10102E-12
4.00286E-11 4.10071E-12
4.28368E-11 4.10040E-12
4.57402E-11 4.10007E-12
4.87388E-11 4.09973E-12
5.18325E-11 4.09938E-12
5.50215E-11 4.09902E-12
5.83057E-11 4.09864E-12
6.16850E-11 4.09826E-12
6.51595E-11 4.09787E-12
6.87293E-11 4.09746E-12
7.23943E-11 4.09705E-12
7.61544E-11 4.09662E-12
1.18991E-10 4.09178E-12
1.71347E-10 4.08588E-12
2.33223E-10 4.07892E-12
3.04617E-10 4.07092E-12
3.85531E-10 4.06188E-12
4.75965E-10 4.05181E-12
5.75917E-10 4.04073E-12
6.85389E-10 4.02865E-12
8.04380E-10 4.01559E-12
9.32891E-10 4.00155E-12
1.07092E-09 3.98657E-12
1.21847E-09 3.97064E-12
1.37554E-09 3.95380E-12
1.54213E-09 3.93607E-12
1.71823E-09 3.91746E-12
1.90386E-09 3.89799E-12
2.09900E-09 3.87769E-12
2.30367E-09 3.85658E-12
2.51785E-09 3.83468E-12
2.74156E-09 3.81179E-12
2.97478E-09 3.78821E-12
3.21752E-09 3.76403E-12
3.46978E-09 3.73928E-12
3.73156E-09 3.71399E-12
4.00286E-09 3.68812E-12
4.28368E-09 3.66108E-12
4.57402E-09 3.63359E-12
4.87388E-09 3.60570E-12
5.18326E-09 3.57743E-12
5.50215E-09 3.54882E-12
5.83057E-09 3.51958E-12
6.16850E-09 3.48942E-12
6.51596E-09 3.45901E-12
6.87293E-09 3.42838E-12
7.23942E-09 3.39758E-12
7.61544E-09 3.36662E-12
1.18991E-08 3.03974E-12
1.71347E-08 2.70553E-12
2.33223E-08 2.38246E-12
3.04617E-08 2.08175E-12
3.85531E-08 1.81055E-12
4.75965E-08 1.57183E-12
5.75917E-08 1.36481E-12
6.85389E-08 1.18655E-12
8.04380E-08 1.03449E-12
9.32891E-08 9.05184E-13
1.07092E-07 7.95212E-13
1.21847E-07 7.01375E-13
1.37554E-07 6.21289E-13
1.54213E-07 5.52667E-13
1.71823E-07 4.93535E-13
1.90386E-07 4.42320E-13
2.09900E-07 3.97809E-13
2.30367E-07 3.58927E-13
2.51785E-07 3.24730E-13
2.74156E-07 2.92674E-13
2.97478E-07 2.64942E-13
3.21752E-07 2.41077E-13
3.46978E-07 2.20433E-13
3.73156E-07 2.02485E-13
4.00286E-07 1.86486E-13
4.28368E-07 1.70113E-13
4.57402E-07 1.55794E-13
4.87388E-07 1.43218E-13
5.18325E-07 1.32129E-13
5.50215E-07 1.22313E-13
5.83057E-07 1.13144E-13
6.16850E-07 1.04158E-13
6.51596E-07 9.61676E-14
6.87293E-07 8.90402E-14
7.23942E-07 8.26630E-14
7.61543E-07 7.69402E-14
1.18991E-06 3.83637E-14
1.71347E-06 2.11640E-14
2.33223E-06 1.27501E-14
3.04617E-06 8.23299E-15
3.85531E-06 5.59429E-15
4.75964E-06 3.94516E-15
5.75916E-06 2.85970E-15
6.85388E-06 2.11595E-15
8.04378E-06 1.59393E-15
9.32888E-06 1.22095E-15
1.07092E-05 9.49340E-16
1.21846E-05 7.48057E-16
1.37553E-05 5.97002E-16
1.54212E-05 4.82147E-16
1.71822E-05 3.93721E-16
1.90385E-05 3.24710E-16
2.09899E-05 2.70467E-16
2.30365E-05 2.27155E-16
2.51783E-05 1.92200E-16
2.74153E-05 1.63674E-16
2.97475E-05 1.40368E-16
3.21749E-05 1.21064E-16
3.46974E-05 1.04990E-16
3.73152E-05 9.15413E-17
4.00281E-05 8.01481E-17
4.28362E-05 7.05251E-17
4.57395E-05 6.22600E-17
4.87380E-05 5.51965E-17
5.18317E-05 4.90900E-17
5.50205E-05 4.38037E-17
5.83045E-05 3.92127E-17
6.16838E-05 3.51968E-17
6.51582E-05 3.16936E-17
6.87277E-05 2.86009E-17
7.23925E-05 2.58846E-17
7.61524E-05 2.34778E-17
9.21439E-05 1.62423E-17
1.09658E-04 1.15819E-17
1.28695E-04 8.47755E-18
1.49255E-04 6.34566E-18
1.71338E-04 4.84377E-18
1.94942E-04 3.76092E-18
2.20070E-04 2.96478E-18
2.46720E-04 2.36893E-18
2.74892E-04 1.91570E-18
3.04586E-04 1.56607E-18
3.35803E-04 1.29284E-18
3.68542E-04 1.07682E-18
4.02802E-04 9.04178E-19
4.38585E-04 7.64858E-19
4.75889E-04 6.51433E-19
5.14715E-04 5.58318E-19
5.55063E-04 4.81293E-19
5.96931E-04 4.17133E-19
6.40321E-04 3.63340E-19
6.85233E-04 3.17964E-19
7.31665E-04 2.79467E-19
7.79618E-04 2.46638E-19
8.29092E-04 2.18500E-19
8.80086E-04 1.94271E-19
9.32601E-04 1.73317E-19
9.86636E-04 1.55118E-19
1.04219E-03 1.39253E-19
1.09927E-03 1.25369E-19
1.15786E-03 1.13177E-19
1.21797E-03 1.02435E-19
1.27961E-03 9.29412E-20
1.34276E-03 8.45247E-20
1.40743E-03 7.70422E-20
1.47362E-03 7.03719E-20
1.54133E-03 6.44102E-20
1.61056E-03 5.90682E-20
1.68131E-03 5.42704E-20
1.75357E-03 4.99516E-20
1.82735E-03 4.60552E-20
1.90265E-03 4.25326E-20
1.97947E-03 3.93417E-20
2.05780E-03 3.64455E-20
2.13765E-03 3.38118E-20
2.21902E-03 3.14128E-20
2.30190E-03 2.92235E-20
2.38630E-03 2.72225E-20
2.47222E-03 2.53905E-20
2.55965E-03 2.37106E-20
2.64859E-03 2.21681E-20
2.73905E-03 2.07494E-20
2.83103E-03 1.94431E-20
2.92452E-03 1.82384E-20
3.01952E-03 1.71259E-20
3.11604E-03 1.60975E-20
3.21407E-03 1.51455E-20
3.31362E-03 1.42631E-20
3.41468E-03 1.34444E-20
3.51725E-03 1.26840E-20
3.62133E-03 1.19769E-20
3.72692E-03 1.13186E-20
3.83403E-03 1.07051E-20
3.94265E-03 1.01330E-20
4.05278E-03 9.59873E-21
4.16442E-03 9.09946E-21
4.27757E-03 8.63243E-21
4.39223E-03 8.19515E-21
4.50840E-03 7.78540E-21
4.62608E-03 7.40111E-21
4.74527E-03 7.04038E-21
4.86597E-03 6.70151E-21
4.98817E-03 6.38293E-21
5.11188E-03 6.08319E-21
5.23711E-03 5.80095E-21
5.36383E-03 5.53501E-21
5.49207E-03 5.28426E-21
5.62181E-03 5.04764E-21
5.75306E-03 4.82421E-21
5.88581E-03 4.61311E-21
6.02007E-03 4.41352E-21
6.15583E-03 4.22468E-21
6.29310E-03 4.04592E-21
6.43187E-03 3.87659E-21
6.57214E-03 3.71610E-21
6.71392E-03 3.56390E-21
6.85720E-03 3.41947E-21
7.00198E-03 3.28235E-21
7.14827E-03 3.15209E-21
7.29605E-03 3.02828E-21
7.44534E-03 2.91055E-21
7.59612E-03 2.79853E-21
7.97965E-03 2.54138E-21
8.37255E-03 2.31334E-21
8.77480E-03 2.11053E-21
9.18641E-03 1.92967E-21
9.60736E-03 1.76795E-21
1.00376E-02 1.62298E-21
1.04773E-02 1.49271E-21
1.09262E-02 1.37538E-21
1.13844E-02 1.26947E-21
1.18520E-02 1.17367E-21
1.23288E-02 1.08683E-21
1.28150E-02 1.00796E-21
1.33104E-02 9.36193E-22
1.38150E-02 8.70774E-22
1.43290E-02 8.11035E-22
1.48521E-02 7.56391E-22
1.53845E-02 7.06327E-22
1.59262E-02 6.60386E-22
1.64770E-02 6.18165E-22
1.70371E-02 5.79307E-22
1.76063E-02 5.43492E-22
1.81848E-02 5.10438E-22
1.87724E-02 4.79891E-22
1.93692E-02 4.51626E-22
1.99751E-02 4.25438E-22
2.05901E-02 4.01146E-22
2.12143E-02 3.78587E-22
2.18476E-02 3.57613E-22
2.24900E-02 3.38092E-22
2.31415E-02 3.19903E-22
2.38021E-02 3.02938E-22
2.44717E-02 2.87100E-22
2.51504E-02 2.72297E-22
2.58382E-02 2.58450E-22
2.65349E-02 2.45485E-22
2.72407E-02 2.33335E-22
2.79555E-02 2.21938E-22
2.86793E-02 2.11239E-22
2.94120E-02 2.01187E-22
3.01537E-02 1.91735E-22
3.09043E-02 1.82840E-22
3.16639E-02 1.74463E-22
3.24324E-02 1.66567E-22
3.32098E-02 1.59119E-22
3.39961E-02 1.52090E-22
3.47912E-02 1.45451E-22
3.55952E-02 1.39176E-22
3.64081E-02 1.33241E-22
3.72297E-02 1.27624E-22
3.80602E-02 1.22305E-22
3.88995E-02 1.17264E-22
3.97476E-02 1.12484E-22
4.06044E-02 1.07950E-22
4.14700E-02 1.03645E-22
4.23443E-02 9.95562E-23
4.32273E-02 9.56703E-23
4.41190E-02 9.19752E-23
4.50194E-02 8.84595E-23
4.59284E-02 8.51129E-23
4.68461E-02 8.19257E-23
4.87074E-02 7.59935E-23
5.06030E-02 7.05970E-23
5.25328E-02 6.56782E-23
5.44967E-02 6.11869E-23
5.64946E-02 5.70791E-23
5.85262E-02 5.33154E-23
6.05914E-02 4.98615E-23
6.26901E-02 4.66870E-23
6.48222E-02 4.37651E-23
6.69873E-02 4.10715E-23
6.91854E-02 3.85849E-23
7.14163E-02 3.62865E-23
7.36799E-02 3.41592E-23
7.59760E-02 3.21877E-23
7.83043E-02 3.03583E-23
8.06647E-02 2.86589E-23
8.30571E-02 2.70784E-23
8.54812E-02 2.56067E-23
8.79369E-02 2.42349E-23
9.04240E-02 2.29550E-23
9.29422E-02 2.17595E-23
9.54915E-02 2.06417E-23
9.80716E-02 1.95957E-23
1.00682E-01 1.86158E-23
1.03323E-01 1.76971E-23
1.05995E-01 1.68349E-23
1.08696E-01 1.60252E-23
1.11427E-01 1.52641E-23
1.14188E-01 1.45479E-23
1.16978E-01 1.38737E-23
1.19797E-01 1.32385E-23
1.22645E-01 1.26394E-23
1.25522E-01 1.20741E-23
1.28428E-01 1.15404E-23
1.31361E-01 1.10359E-23
1.34323E-01 1.05589E-23
1.37313E-01 1.01075E-23
1.40330E-01 9.68008E-24
1.43375E-01 9.27510E-24
1.46447E-01 8.89117E-24
1.49545E-01 8.52697E-24
1.52671E-01 8.18126E-24
1.55823E-01 7.85291E-24
1.59001E-01 7.54091E-24
1.62205E-01 7.24424E-24
1.65435E-01 6.96201E-24
1.68690E-01 6.69339E-24
1.71970E-01 6.43757E-24
1.75276E-01 6.19382E-24
1.78606E-01 5.96147E-24
1.81961E-01 5.73987E-24
1.85340E-01 5.52841E-24
1.88743E-01 5.32656E-24
1.92169E-01 5.13377E-24
1.95619E-01 4.94957E-24
1.99092E-01 4.77348E-24
2.02589E-01 4.60509E-24
2.06107E-01 4.44399E-24
2.09649E-01 4.28979E-24
2.13212E-01 4.14216E-24
2.16797E-01 4.00073E-24
2.20404E-01 3.86521E-24
2.24032E-01 3.73531E-24
2.27680E-01 3.61072E-24
2.31350E-01 3.49120E-24
2.35040E-01 3.37650E-24
2.38751E-01 3.26638E-24
2.42481E-01 3.16064E-24
2.46231E-01 3.05905E-24
2.50000E-01 2.96142E-24
2.53788E-01 2.86757E-24
2.57595E-01 2.77732E-24
2.61421E-01 2.69051E-24
2.65264E-01 2.60698E-24
2.69126E-01 2.52658E-24
2.73005E-01 2.44917E-24
2.76901E-01 2.37461E-24
2.80814E-01 2.30279E-24
2.84744E-01 2.23357E-24
2.88691E-01 2.16686E-24
2.92653E-01 2.10253E-24
2.96632E-01 2.04049E-24
3.00625E-01 1.98063E-24
3.04634E-01 1.92288E-24
3.08658E-01 1.86713E-24
3.12697E-01 1.81331E-24
3.16749E-01 1.76134E-24
3.20816E-01 1.71113E-24
3.24896E-01 1.66263E-24
3.28990E-01 1.61575E-24
3.33097E-01 1.57043E-24
3.37216E-01 1.52662E-24
3.41348E-01 1.48425E-24
3.45492E-01 1.44327E-24
3.49647E-01 1.40362E-24
3.53814E-01 1.36524E-24
3.57992E-01 1.32810E-24
3.62181E-01 1.29214E-24
3.66381E-01 1.25732E-24
3.70590E-01 1.22360E-24
3.74810E-01 1.19093E-24
3.79039E-01 1.15927E-24
3.83277E-01 1.12860E-24
3.87524E-01 1.09886E-24
3.91780E-01 1.07003E-24
3.96044E-01 1.04208E-24
4.00316E-01 1.01497E-24
4.04596E-01 9.88671E-25
4.08882E-01 9.63157E-25
4.13176E-01 9.38399E-25
4.17476E-01 9.14370E-25
4.21783E-01 8.91044E-25
4.26095E-01 8.68399E-25
4.30413E-01 8.46409E-25
4.34737E-01 8.25052E-25
4.39065E-01 8.04308E-25
4.43398E-01 7.84154E-25
4.47736E-01 7.64572E-25
4.52077E-01 7.45541E-25
4.56422E-01 7.27044E-25
4.60770E-01 7.09063E-25
4.65122E-01 6.91580E-25
4.69476E-01 6.74580E-25
4.73832E-01 6.58047E-25
4.78190E-01 6.41965E-25
4.82550E-01 6.26321E-25
4.86912E-01 6.11099E-25
4.91274E-01 5.96288E-25
4.95637E-01 5.81872E-25
5.00000E-01 5.67841E-25
5.04363E-01 5.54182E-25
5.08726E-01 5.40883E-25
5.13088E-01 5.27934E-25
5.17450E-01 5.15323E-25
5.21810E-01 5.03040E-25
5.26168E-01 4.91075E-25
5.30524E-01 4.79419E-25
5.34878E-01 4.68062E-25
5.39230E-01 4.56995E-25
5.43578E-01 4.46209E-25
5.47923E-01 4.35697E-25
5.52264E-01 4.25449E-25
5.56602E-01 4.15459E-25
5.60935E-01 4.05718E-25
5.65263E-01 3.96220E-25
5.69587E-01 3.86957E-25
5.73905E-01 3.77922E-25
5.78217E-01 3.69110E-25
5.82524E-01 3.60513E-25
5.86824E-01 3.52125E-25
5.91118E-01 3.43941E-25
5.95404E-01 3.35956E-25
5.99684E-01 3.28162E-25
6.03956E-01 3.20555E-25
6.08220E-01 3.13130E-25
6.12476E-01 3.05882E-25
6.16723E-01 2.98806E-25
6.20961E-01 2.91896E-25
6.25190E-01 2.85150E-25
6.29410E-01 2.78561E-25
6.33619E-01 2.72127E-25
6.37819E-01 2.65842E-25
6.42008E-01 2.59703E-25
6.46186E-01 2.53707E-25
6.50353E-01 2.47848E-25
6.54508E-01 2.42123E-25
6.58652E-01 2.36530E-25
6.62784E-01 2.31064E-25
6.66903E-01 2.25723E-25
6.71010E-01 2.20503E-25
6.75104E-01 2.15400E-25
6.79184E-01 2.10412E-25
6.83251E-01 2.05537E-25
6.87303E-01 2.00770E-25
6.91342E-01 1.96110E-25
6.95366E-01 1.91553E-25
6.99375E-01 1.87098E-25
7.03368E-01 1.82741E-25
7.07347E-01 1.78480E-25
7.11309E-01 1.74313E-25
7.15256E-01 1.70237E-25
7.19186E-01 1.66251E-25
7.23099E-01 1.62351E-25
7.26995E-01 1.58537E-25
7.30874E-01 1.54805E-25
7.34736E-01 1.51154E-25
7.38579E-01 1.47582E-25
7.42405E-01 1.44087E-25
7.46212E-01 1.40667E-25
7.50000E-01 1.37321E-25
7.53769E-01 1.34046E-25
7.57519E-01 1.30841E-25
7.61249E-01 1.27705E-25
7.64960E-01 1.24635E-25
7.68650E-01 1.21631E-25
7.72320E-01 1.18690E-25
7.75968E-01 1.15812E-25
7.79596E-01 1.12995E-25
7.83203E-01 1.10237E-25
7.86788E-01 1.07537E-25
7.90351E-01 1.04894E-25
7.93893E-01 1.02306E-25
7.97411E-01 9.97731E-26
8.00908E-01 9.72931E-26
8.04381E-01 9.48650E-26
8.07831E-01 9.24877E-26
8.11257E-01 9.01601E-26
8.14660E-01 8.78812E-26
8.18039E-01 8.56498E-26
8.21394E-01 8.34649E-26
8.24724E-01 8.13256E-26
8.28030E-01 7.92309E-26
8.31310E-01 7.71798E-26
8.34565E-01 7.51715E-26
8.37795E-01 7.32049E-26
8.40999E-01 7.12793E-26
8.44177E-01 6.93938E-26
8.47329E-01 6.75476E-26
8.50455E-01 6.57399E-26
8.53553E-01 6.39698E-26
8.56625E-01 6.22366E-26
8.59670E-01 6.05397E-26
8.62687E-01 5.88782E-26
8.65677E-01 5.72514E-26
8.68639E-01 5.56587E-26
8.71572E-01 5.40993E-26
8.74478E-01 5.25727E-26
8.77355E-01 5.10782E-26
8.80203E-01 4.96152E-26
8.83022E-01 4.81830E-26
8.85812E-01 4.67812E-26
8.88573E-01 4.54090E-26
8.91304E-01 4.40660E-26
8.94005E-01 4.27516E-26
8.96677E-01 4.14653E-26
8.99318E-01 4.02066E-26
9.01928E-01 3.89749E-26
9.04508E-01 3.77698E-26
9.07058E-01 3.65908E-26
9.09576E-01 3.54374E-26
9.12063E-01 3.43091E-26
9.14519E-01 3.32056E-26
9.16943E-01 3.21265E-26
9.19335E-01 3.10712E-26
9.21696E-01 3.00393E-26
9.24024E-01 2.90306E-26
9.26320E-01 2.80445E-26
9.28584E-01 2.70808E-26
9.30815E-01 2.61390E-26
9.33013E-01 2.52188E-26
9.35178E-01 2.43198E-26
9.37310E-01 2.34417E-26
9.39409E-01 2.25842E-26
9.41474E-01 2.17470E-26
9.43505E-01 2.09297E-26
9.45503E-01 2.01320E-26
9.47467E-01 1.93537E-26
9.49397E-01 1.85945E-26
9.51293E-01 1.78540E-26
9.53154E-01 1.71320E-26
9.54981E-01 1.64283E-26
9.56773E-01 1.57425E-26
9.58530E-01 1.50745E-26
9.60252E-01 1.44239E-26
9.61940E-01 1.37907E-26
9.63592E-01 1.31744E-26
9.65209E-01 1.25750E-26
9.66790E-01 1.19921E-26
9.68336E-01 1.14257E-26
9.69846E-01 1.08754E-26
9.71321E-01 1.03411E-26
9.72759E-01 9.82261E-27
9.74162E-01 9.31973E-27
9.75528E-01 8.83228E-27
9.76858E-01 8.36011E-27
9.78152E-01 7.90303E-27
9.79410E-01 7.46088E-27
9.80631E-01 7.03353E-27
9.81815E-01 6.62081E-27
9.82963E-01 6.22257E-27
9.84074E-01 5.83869E-27
9.85148E-01 5.46903E-27
9.86185E-01 5.11346E-27
9.87185E-01 4.77186E-27
9.88148E-01 4.44411E-27
9.89074E-01 4.13009E-27
9.89962E-01 3.82970E-27
9.90814E-01 3.54284E-27
9.91627E-01 3.26941E-27
9.92404E-01 3.00930E-27
9.93143E-01 2.76245E-27
9.93844E-01 2.52875E-27
9.94508E-01 2.30813E-27
9.95134E-01 2.10051E-27
9.95722E-01 1.90583E-27
9.96273E-01 1.72402E-27
9.96786E-01 1.55501E-27
9.97261E-01 1.39875E-27
9.97698E-01 1.25518E-27
9.98097E-01 1.12426E-27
9.98459E-01 1.00594E-27
9.98782E-01 9.00187E-28
9.99067E-01 8.06957E-28
9.99315E-01 7.26222E-28
9.99524E-01 6.57953E-28
9.99695E-01 6.02128E-28
9.99829E-01 5.58729E-28
9.99924E-01 5.27739E-28
9.99981E-01 5.09150E-28
1.00000E+00 5.02955E-28
