 #
 # Subroutine ELSEPA. Elastic scattering of electrons and positrons
 #                    by neutral atoms and positive ions
 #
 # Projectile: electron
 # Kinetic energy = 7.00000E+06 eV = 2.57245E+05 a.u.
 #
 # WARNING: High-energy factorization with free-atom DF screening.
 #          Absorption, polarization and exchange corrections are
 #          switched off.
 #          Phase shifts are calculated for the bare nucleus.
 #          Scattering amplitudes are not evaluated.
 #
 # Element: Fr,  Z =  87,  atomic weight = 2.23020E+02 g/mol
 #
 # Nuclear model: Fermi distribution
 #                Average radius = 6.48881E-13 cm
 #                Skin thickness = 5.46000E-14 cm
 #
 # Number of electrons = 87
 #
 # Total elastic cross section = 1.04766E-17 cm**2 = 3.74125E-01 a0**2
 # 1st transport cross section = 2.36490E-22 cm**2 = 8.44521E-06 a0**2
 # 2nd transport cross section = 6.34008E-22 cm**2 = 2.26408E-05 a0**2
 #
 #
 # Differential cross section:                       MU=(1-COS(THETA))/2
 #
 #  THETA        MU          DCS          DCS        Sherman      error
 #  (deg)                 (cm**2/sr)   (a0**2/sr)    function
 #----------------------------------------------------------------------
0.00000E+00 7.08814E-12
7.61557E-13 7.08790E-12
1.18994E-12 7.08776E-12
1.71346E-12 7.08759E-12
2.33225E-12 7.08739E-12
3.04617E-12 7.08716E-12
3.85530E-12 7.08691E-12
4.75964E-12 7.08662E-12
5.75917E-12 7.08630E-12
6.85391E-12 7.08595E-12
8.04379E-12 7.08557E-12
9.32893E-12 7.08516E-12
1.07092E-11 7.08472E-12
1.21847E-11 7.08425E-12
1.37554E-11 7.08375E-12
1.54213E-11 7.08322E-12
1.71823E-11 7.08265E-12
1.90386E-11 7.08206E-12
2.09900E-11 7.08144E-12
2.30367E-11 7.08079E-12
2.51785E-11 7.08011E-12
2.74156E-11 7.07939E-12
2.97478E-11 7.07865E-12
3.21752E-11 7.07788E-12
3.46979E-11 7.07708E-12
3.73157E-11 7.07624E-12
4.00286E-11 7.07538E-12
4.28368E-11 7.07449E-12
4.57402E-11 7.07356E-12
4.87388E-11 7.07261E-12
5.18325E-11 7.07163E-12
5.50215E-11 7.07062E-12
5.83057E-11 7.06957E-12
6.16850E-11 7.06850E-12
6.51595E-11 7.06740E-12
6.87293E-11 7.06626E-12
7.23943E-11 7.06510E-12
7.61544E-11 7.06391E-12
1.18991E-10 7.05035E-12
1.71347E-10 7.03385E-12
2.33223E-10 7.01445E-12
3.04617E-10 6.99219E-12
3.85531E-10 6.96712E-12
4.75965E-10 6.93931E-12
5.75917E-10 6.90881E-12
6.85389E-10 6.87571E-12
8.04380E-10 6.84007E-12
9.32891E-10 6.80198E-12
1.07092E-09 6.76152E-12
1.21847E-09 6.71878E-12
1.37554E-09 6.67385E-12
1.54213E-09 6.62684E-12
1.71823E-09 6.57782E-12
1.90386E-09 6.52693E-12
2.09900E-09 6.47424E-12
2.30367E-09 6.41985E-12
2.51785E-09 6.36392E-12
2.74156E-09 6.30649E-12
2.97478E-09 6.24770E-12
3.21752E-09 6.18766E-12
3.46978E-09 6.12644E-12
3.73156E-09 6.06420E-12
4.00286E-09 6.00101E-12
4.28368E-09 5.93816E-12
4.57402E-09 5.87469E-12
4.87388E-09 5.81007E-12
5.18326E-09 5.74437E-12
5.50215E-09 5.67767E-12
5.83057E-09 5.61003E-12
6.16850E-09 5.54153E-12
6.51596E-09 5.47391E-12
6.87293E-09 5.40821E-12
7.23942E-09 5.34187E-12
7.61544E-09 5.27495E-12
1.18991E-08 4.61467E-12
1.71347E-08 4.01465E-12
2.33223E-08 3.49488E-12
3.04617E-08 3.05261E-12
3.85531E-08 2.68394E-12
4.75965E-08 2.37333E-12
5.75917E-08 2.10962E-12
6.85389E-08 1.88383E-12
8.04380E-08 1.68809E-12
9.32891E-08 1.51692E-12
1.07092E-07 1.36588E-12
1.21847E-07 1.23243E-12
1.37554E-07 1.11365E-12
1.54213E-07 1.00784E-12
1.71823E-07 9.13721E-13
1.90386E-07 8.29387E-13
2.09900E-07 7.54171E-13
2.30367E-07 6.87035E-13
2.51785E-07 6.26777E-13
2.74156E-07 5.72949E-13
2.97478E-07 5.24699E-13
3.21752E-07 4.81351E-13
3.46978E-07 4.42479E-13
3.73156E-07 4.07452E-13
4.00286E-07 3.75888E-13
4.28368E-07 3.46187E-13
4.57402E-07 3.19345E-13
4.87388E-07 2.95561E-13
5.18325E-07 2.74416E-13
5.50215E-07 2.55556E-13
5.83057E-07 2.38681E-13
6.16850E-07 2.23538E-13
6.51596E-07 2.09149E-13
6.87293E-07 1.95064E-13
7.23942E-07 1.82377E-13
7.61543E-07 1.70919E-13
1.18991E-06 9.54813E-14
1.71347E-06 5.73748E-14
2.33223E-06 3.65114E-14
3.04617E-06 2.44562E-14
3.85531E-06 1.70120E-14
4.75964E-06 1.22289E-14
5.75916E-06 9.02602E-15
6.85388E-06 6.78894E-15
8.04378E-06 5.20098E-15
9.32888E-06 4.04635E-15
1.07092E-05 3.19093E-15
1.21846E-05 2.54742E-15
1.37553E-05 2.05908E-15
1.54212E-05 1.68367E-15
1.71822E-05 1.39122E-15
1.90385E-05 1.15896E-15
2.09899E-05 9.74931E-16
2.30365E-05 8.26164E-16
2.51783E-05 7.04610E-16
2.74153E-05 6.04729E-16
2.97475E-05 5.22005E-16
3.21749E-05 4.52999E-16
3.46974E-05 3.95138E-16
3.73152E-05 3.46265E-16
4.00281E-05 3.04769E-16
4.28362E-05 2.69176E-16
4.57395E-05 2.38743E-16
4.87380E-05 2.12678E-16
5.18317E-05 1.89894E-16
5.50205E-05 1.70117E-16
5.83045E-05 1.52960E-16
6.16838E-05 1.37799E-16
6.51582E-05 1.24519E-16
6.87277E-05 1.12871E-16
7.23925E-05 1.02479E-16
7.61524E-05 9.32866E-17
9.21439E-05 6.54495E-17
1.09658E-04 4.72432E-17
1.28695E-04 3.49604E-17
1.49255E-04 2.64169E-17
1.71338E-04 2.03233E-17
1.94942E-04 1.58904E-17
2.20070E-04 1.26012E-17
2.46720E-04 1.01210E-17
2.74892E-04 8.22362E-18
3.04586E-04 6.75093E-18
3.35803E-04 5.59473E-18
3.68542E-04 4.67659E-18
4.02802E-04 3.93955E-18
4.38585E-04 3.34271E-18
4.75889E-04 2.85497E-18
5.14715E-04 2.45320E-18
5.55063E-04 2.11985E-18
5.96931E-04 1.84130E-18
6.40321E-04 1.60710E-18
6.85233E-04 1.40904E-18
7.31665E-04 1.24056E-18
7.79618E-04 1.09655E-18
8.29092E-04 9.72872E-19
8.80086E-04 8.66134E-19
9.32601E-04 7.73661E-19
9.86636E-04 6.93212E-19
1.04219E-03 6.22951E-19
1.09927E-03 5.61387E-19
1.15786E-03 5.07241E-19
1.21797E-03 4.59477E-19
1.27961E-03 4.17215E-19
1.34276E-03 3.79702E-19
1.40743E-03 3.46321E-19
1.47362E-03 3.16535E-19
1.54133E-03 2.89888E-19
1.61056E-03 2.65995E-19
1.68131E-03 2.44517E-19
1.75357E-03 2.25170E-19
1.82735E-03 2.07704E-19
1.90265E-03 1.91904E-19
1.97947E-03 1.77582E-19
2.05780E-03 1.64577E-19
2.13765E-03 1.52744E-19
2.21902E-03 1.41960E-19
2.30190E-03 1.32115E-19
2.38630E-03 1.23111E-19
2.47222E-03 1.14866E-19
2.55965E-03 1.07302E-19
2.64859E-03 1.00353E-19
2.73905E-03 9.39604E-20
2.83103E-03 8.80710E-20
2.92452E-03 8.26385E-20
3.01952E-03 7.76205E-20
3.11604E-03 7.29797E-20
3.21407E-03 6.86825E-20
3.31362E-03 6.46988E-20
3.41468E-03 6.10014E-20
3.51725E-03 5.75660E-20
3.62133E-03 5.43706E-20
3.72692E-03 5.13952E-20
3.83403E-03 4.86219E-20
3.94265E-03 4.60343E-20
4.05278E-03 4.36178E-20
4.16442E-03 4.13587E-20
4.27757E-03 3.92455E-20
4.39223E-03 3.72660E-20
4.50840E-03 3.54111E-20
4.62608E-03 3.36707E-20
4.74527E-03 3.20370E-20
4.86597E-03 3.05019E-20
4.98817E-03 2.90584E-20
5.11188E-03 2.77000E-20
5.23711E-03 2.64207E-20
5.36383E-03 2.52151E-20
5.49207E-03 2.40780E-20
5.62181E-03 2.30050E-20
5.75306E-03 2.19915E-20
5.88581E-03 2.10338E-20
6.02007E-03 2.01282E-20
6.15583E-03 1.92712E-20
6.29310E-03 1.84599E-20
6.43187E-03 1.76912E-20
6.57214E-03 1.69625E-20
6.71392E-03 1.62713E-20
6.85720E-03 1.56155E-20
7.00198E-03 1.49926E-20
7.14827E-03 1.44009E-20
7.29605E-03 1.38383E-20
7.44534E-03 1.33033E-20
7.59612E-03 1.27942E-20
7.97965E-03 1.16253E-20
8.37255E-03 1.05884E-20
8.77480E-03 9.66595E-21
9.18641E-03 8.84306E-21
9.60736E-03 8.10705E-21
1.00376E-02 7.44712E-21
1.04773E-02 6.85393E-21
1.09262E-02 6.31954E-21
1.13844E-02 5.83704E-21
1.18520E-02 5.40046E-21
1.23288E-02 5.00464E-21
1.28150E-02 4.64506E-21
1.33104E-02 4.31778E-21
1.38150E-02 4.01938E-21
1.43290E-02 3.74680E-21
1.48521E-02 3.49742E-21
1.53845E-02 3.26888E-21
1.59262E-02 3.05910E-21
1.64770E-02 2.86627E-21
1.70371E-02 2.68874E-21
1.76063E-02 2.52507E-21
1.81848E-02 2.37397E-21
1.87724E-02 2.23429E-21
1.93692E-02 2.10500E-21
1.99751E-02 1.98518E-21
2.05901E-02 1.87399E-21
2.12143E-02 1.77071E-21
2.18476E-02 1.67465E-21
2.24900E-02 1.58520E-21
2.31415E-02 1.50184E-21
2.38021E-02 1.42405E-21
2.44717E-02 1.35139E-21
2.51504E-02 1.28347E-21
2.58382E-02 1.21989E-21
2.65349E-02 1.16035E-21
2.72407E-02 1.10452E-21
2.79555E-02 1.05212E-21
2.86793E-02 1.00291E-21
2.94120E-02 9.56655E-22
3.01537E-02 9.13135E-22
3.09043E-02 8.72157E-22
3.16639E-02 8.33544E-22
3.24324E-02 7.97131E-22
3.32098E-02 7.62765E-22
3.39961E-02 7.30310E-22
3.47912E-02 6.99636E-22
3.55952E-02 6.70625E-22
3.64081E-02 6.43169E-22
3.72297E-02 6.17167E-22
3.80602E-02 5.92524E-22
3.88995E-02 5.69157E-22
3.97476E-02 5.46984E-22
4.06044E-02 5.25932E-22
4.14700E-02 5.05932E-22
4.23443E-02 4.86920E-22
4.32273E-02 4.68837E-22
4.41190E-02 4.51628E-22
4.50194E-02 4.35242E-22
4.59284E-02 4.19631E-22
4.68461E-02 4.04749E-22
4.87074E-02 3.77015E-22
5.06030E-02 3.51737E-22
5.25328E-02 3.28654E-22
5.44967E-02 3.07536E-22
5.64946E-02 2.88179E-22
5.85262E-02 2.70407E-22
6.05914E-02 2.54062E-22
6.26901E-02 2.39006E-22
6.48222E-02 2.25113E-22
6.69873E-02 2.12276E-22
6.91854E-02 2.00397E-22
7.14163E-02 1.89388E-22
7.36799E-02 1.79173E-22
7.59760E-02 1.69680E-22
7.83043E-02 1.60847E-22
8.06647E-02 1.52619E-22
8.30571E-02 1.44945E-22
8.54812E-02 1.37778E-22
8.79369E-02 1.31078E-22
9.04240E-02 1.24808E-22
9.29422E-02 1.18933E-22
9.54915E-02 1.13423E-22
9.80716E-02 1.08249E-22
1.00682E-01 1.03388E-22
1.03323E-01 9.88142E-23
1.05995E-01 9.45079E-23
1.08696E-01 9.04498E-23
1.11427E-01 8.66219E-23
1.14188E-01 8.30081E-23
1.16978E-01 7.95934E-23
1.19797E-01 7.63644E-23
1.22645E-01 7.33085E-23
1.25522E-01 7.04143E-23
1.28428E-01 6.76710E-23
1.31361E-01 6.50688E-23
1.34323E-01 6.25987E-23
1.37313E-01 6.02525E-23
1.40330E-01 5.80223E-23
1.43375E-01 5.59010E-23
1.46447E-01 5.38818E-23
1.49545E-01 5.19588E-23
1.52671E-01 5.01262E-23
1.55823E-01 4.83787E-23
1.59001E-01 4.67113E-23
1.62205E-01 4.51193E-23
1.65435E-01 4.35986E-23
1.68690E-01 4.21453E-23
1.71970E-01 4.07555E-23
1.75276E-01 3.94256E-23
1.78606E-01 3.81524E-23
1.81961E-01 3.69332E-23
1.85340E-01 3.57650E-23
1.88743E-01 3.46446E-23
1.92169E-01 3.35701E-23
1.95619E-01 3.25391E-23
1.99092E-01 3.15493E-23
2.02589E-01 3.05985E-23
2.06107E-01 2.96848E-23
2.09649E-01 2.88065E-23
2.13212E-01 2.79619E-23
2.16797E-01 2.71492E-23
2.20404E-01 2.63670E-23
2.24032E-01 2.56138E-23
2.27680E-01 2.48883E-23
2.31350E-01 2.41892E-23
2.35040E-01 2.35153E-23
2.38751E-01 2.28654E-23
2.42481E-01 2.22385E-23
2.46231E-01 2.16335E-23
2.50000E-01 2.10495E-23
2.53788E-01 2.04855E-23
2.57595E-01 1.99407E-23
2.61421E-01 1.94143E-23
2.65264E-01 1.89054E-23
2.69126E-01 1.84134E-23
2.73005E-01 1.79375E-23
2.76901E-01 1.74771E-23
2.80814E-01 1.70315E-23
2.84744E-01 1.66002E-23
2.88691E-01 1.61824E-23
2.92653E-01 1.57779E-23
2.96632E-01 1.53859E-23
3.00625E-01 1.50060E-23
3.04634E-01 1.46377E-23
3.08658E-01 1.42806E-23
3.12697E-01 1.39343E-23
3.16749E-01 1.35983E-23
3.20816E-01 1.32723E-23
3.24896E-01 1.29558E-23
3.28990E-01 1.26486E-23
3.33097E-01 1.23503E-23
3.37216E-01 1.20605E-23
3.41348E-01 1.17790E-23
3.45492E-01 1.15054E-23
3.49647E-01 1.12395E-23
3.53814E-01 1.09811E-23
3.57992E-01 1.07297E-23
3.62181E-01 1.04853E-23
3.66381E-01 1.02476E-23
3.70590E-01 1.00162E-23
3.74810E-01 9.79110E-24
3.79039E-01 9.57198E-24
3.83277E-01 9.35867E-24
3.87524E-01 9.15097E-24
3.91780E-01 8.94869E-24
3.96044E-01 8.75167E-24
4.00316E-01 8.55972E-24
4.04596E-01 8.37268E-24
4.08882E-01 8.19041E-24
4.13176E-01 8.01274E-24
4.17476E-01 7.83952E-24
4.21783E-01 7.67063E-24
4.26095E-01 7.50593E-24
4.30413E-01 7.34528E-24
4.34737E-01 7.18857E-24
4.39065E-01 7.03567E-24
4.43398E-01 6.88646E-24
4.47736E-01 6.74085E-24
4.52077E-01 6.59872E-24
4.56422E-01 6.45995E-24
4.60770E-01 6.32448E-24
4.65122E-01 6.19218E-24
4.69476E-01 6.06298E-24
4.73832E-01 5.93679E-24
4.78190E-01 5.81350E-24
4.82550E-01 5.69306E-24
4.86912E-01 5.57538E-24
4.91274E-01 5.46039E-24
4.95637E-01 5.34792E-24
5.00000E-01 5.23790E-24
5.04363E-01 5.13033E-24
5.08726E-01 5.02514E-24
5.13088E-01 4.92228E-24
5.17450E-01 4.82168E-24
5.21810E-01 4.72327E-24
5.26168E-01 4.62701E-24
5.30524E-01 4.53282E-24
5.34878E-01 4.44067E-24
5.39230E-01 4.35048E-24
5.43578E-01 4.26222E-24
5.47923E-01 4.17584E-24
5.52264E-01 4.09127E-24
5.56602E-01 4.00848E-24
5.60935E-01 3.92743E-24
5.65263E-01 3.84806E-24
5.69587E-01 3.77034E-24
5.73905E-01 3.69422E-24
5.78217E-01 3.61966E-24
5.82524E-01 3.54663E-24
5.86824E-01 3.47508E-24
5.91118E-01 3.40499E-24
5.95404E-01 3.33631E-24
5.99684E-01 3.26902E-24
6.03956E-01 3.20307E-24
6.08220E-01 3.13843E-24
6.12476E-01 3.07508E-24
6.16723E-01 3.01299E-24
6.20961E-01 2.95211E-24
6.25190E-01 2.89244E-24
6.29410E-01 2.83393E-24
6.33619E-01 2.77656E-24
6.37819E-01 2.72031E-24
6.42008E-01 2.66514E-24
6.46186E-01 2.61104E-24
6.50353E-01 2.55798E-24
6.54508E-01 2.50593E-24
6.58652E-01 2.45488E-24
6.62784E-01 2.40480E-24
6.66903E-01 2.35567E-24
6.71010E-01 2.30747E-24
6.75104E-01 2.26018E-24
6.79184E-01 2.21378E-24
6.83251E-01 2.16824E-24
6.87303E-01 2.12356E-24
6.91342E-01 2.07971E-24
6.95366E-01 2.03668E-24
6.99375E-01 1.99444E-24
7.03368E-01 1.95299E-24
7.07347E-01 1.91229E-24
7.11309E-01 1.87235E-24
7.15256E-01 1.83314E-24
7.19186E-01 1.79465E-24
7.23099E-01 1.75686E-24
7.26995E-01 1.71976E-24
7.30874E-01 1.68334E-24
7.34736E-01 1.64758E-24
7.38579E-01 1.61246E-24
7.42405E-01 1.57798E-24
7.46212E-01 1.54413E-24
7.50000E-01 1.51088E-24
7.53769E-01 1.47824E-24
7.57519E-01 1.44618E-24
7.61249E-01 1.41469E-24
7.64960E-01 1.38377E-24
7.68650E-01 1.35340E-24
7.72320E-01 1.32358E-24
7.75968E-01 1.29429E-24
7.79596E-01 1.26552E-24
7.83203E-01 1.23727E-24
7.86788E-01 1.20952E-24
7.90351E-01 1.18226E-24
7.93893E-01 1.15549E-24
7.97411E-01 1.12920E-24
8.00908E-01 1.10337E-24
8.04381E-01 1.07801E-24
8.07831E-01 1.05309E-24
8.11257E-01 1.02862E-24
8.14660E-01 1.00458E-24
8.18039E-01 9.80972E-25
8.21394E-01 9.57784E-25
8.24724E-01 9.35009E-25
8.28030E-01 9.12639E-25
8.31310E-01 8.90669E-25
8.34565E-01 8.69091E-25
8.37795E-01 8.47899E-25
8.40999E-01 8.27087E-25
8.44177E-01 8.06647E-25
8.47329E-01 7.86574E-25
8.50455E-01 7.66862E-25
8.53553E-01 7.47506E-25
8.56625E-01 7.28498E-25
8.59670E-01 7.09835E-25
8.62687E-01 6.91509E-25
8.65677E-01 6.73517E-25
8.68639E-01 6.55852E-25
8.71572E-01 6.38511E-25
8.74478E-01 6.21487E-25
8.77355E-01 6.04776E-25
8.80203E-01 5.88373E-25
8.83022E-01 5.72274E-25
8.85812E-01 5.56474E-25
8.88573E-01 5.40968E-25
8.91304E-01 5.25753E-25
8.94005E-01 5.10825E-25
8.96677E-01 4.96178E-25
8.99318E-01 4.81810E-25
9.01928E-01 4.67715E-25
9.04508E-01 4.53892E-25
9.07058E-01 4.40335E-25
9.09576E-01 4.27041E-25
9.12063E-01 4.14006E-25
9.14519E-01 4.01228E-25
9.16943E-01 3.88702E-25
9.19335E-01 3.76426E-25
9.21696E-01 3.64395E-25
9.24024E-01 3.52608E-25
9.26320E-01 3.41061E-25
9.28584E-01 3.29751E-25
9.30815E-01 3.18675E-25
9.33013E-01 3.07830E-25
9.35178E-01 2.97213E-25
9.37310E-01 2.86823E-25
9.39409E-01 2.76655E-25
9.41474E-01 2.66708E-25
9.43505E-01 2.56979E-25
9.45503E-01 2.47465E-25
9.47467E-01 2.38165E-25
9.49397E-01 2.29076E-25
9.51293E-01 2.20195E-25
9.53154E-01 2.11521E-25
9.54981E-01 2.03051E-25
9.56773E-01 1.94783E-25
9.58530E-01 1.86715E-25
9.60252E-01 1.78845E-25
9.61940E-01 1.71172E-25
9.63592E-01 1.63693E-25
9.65209E-01 1.56407E-25
9.66790E-01 1.49312E-25
9.68336E-01 1.42406E-25
9.69846E-01 1.35687E-25
9.71321E-01 1.29154E-25
9.72759E-01 1.22805E-25
9.74162E-01 1.16640E-25
9.75528E-01 1.10655E-25
9.76858E-01 1.04851E-25
9.78152E-01 9.92245E-26
9.79410E-01 9.37756E-26
9.80631E-01 8.85027E-26
9.81815E-01 8.34044E-26
9.82963E-01 7.84796E-26
9.84074E-01 7.37271E-26
9.85148E-01 6.91459E-26
9.86185E-01 6.47347E-26
9.87185E-01 6.04927E-26
9.88148E-01 5.64189E-26
9.89074E-01 5.25122E-26
9.89962E-01 4.87718E-26
9.90814E-01 4.51968E-26
9.91627E-01 4.17863E-26
9.92404E-01 3.85397E-26
9.93143E-01 3.54562E-26
9.93844E-01 3.25350E-26
9.94508E-01 2.97754E-26
9.95134E-01 2.71769E-26
9.95722E-01 2.47389E-26
9.96273E-01 2.24607E-26
9.96786E-01 2.03419E-26
9.97261E-01 1.83820E-26
9.97698E-01 1.65805E-26
9.98097E-01 1.49370E-26
9.98459E-01 1.34512E-26
9.98782E-01 1.21226E-26
9.99067E-01 1.09511E-26
9.99315E-01 9.93636E-27
9.99524E-01 9.07810E-27
9.99695E-01 8.37615E-27
9.99829E-01 7.83036E-27
9.99924E-01 7.44060E-27
9.99981E-01 7.20677E-27
1.00000E+00 7.12884E-27
