 #
 # Subroutine ELSEPA. Elastic scattering of electrons and positrons
 #                    by neutral atoms and positive ions
 #
 # Projectile: electron
 # Kinetic energy = 1.75000E+08 eV = 6.43113E+06 a.u.
 #
 # WARNING: High-energy factorization with free-atom DF screening.
 #          Absorption, polarization and exchange corrections are
 #          switched off.
 #          Phase shifts are calculated for the bare nucleus.
 #          Scattering amplitudes are not evaluated.
 #
 # Element: Fr,  Z =  87,  atomic weight = 2.23020E+02 g/mol
 #
 # Nuclear model: Fermi distribution
 #                Average radius = 6.48881E-13 cm
 #                Skin thickness = 5.46000E-14 cm
 #
 # Number of electrons = 87
 #
 # Total elastic cross section = 1.04184E-17 cm**2 = 3.72049E-01 a0**2
 # 1st transport cross section = 4.62033E-25 cm**2 = 1.64995E-08 a0**2
 # 2nd transport cross section = 1.38204E-24 cm**2 = 4.93536E-08 a0**2
 #
 #
 # Differential cross section:                       MU=(1-COS(THETA))/2
 #
 #  THETA        MU          DCS          DCS        Sherman      error
 #  (deg)                 (cm**2/sr)   (a0**2/sr)    function
 #----------------------------------------------------------------------
0.00000E+00 3.87031E-09
7.61557E-13 3.79874E-09
1.18994E-12 3.75961E-09
1.71346E-12 3.71283E-09
2.33225E-12 3.65897E-09
3.04617E-12 3.59868E-09
3.85530E-12 3.53265E-09
4.75964E-12 3.46159E-09
5.75917E-12 3.38628E-09
6.85391E-12 3.30743E-09
8.04379E-12 3.22678E-09
9.32893E-12 3.14398E-09
1.07092E-11 3.05812E-09
1.21847E-11 2.97173E-09
1.37554E-11 2.88679E-09
1.54213E-11 2.80027E-09
1.71823E-11 2.71401E-09
1.90386E-11 2.63145E-09
2.09900E-11 2.54844E-09
2.30367E-11 2.46598E-09
2.51785E-11 2.38874E-09
2.74156E-11 2.31183E-09
2.97478E-11 2.23550E-09
3.21752E-11 2.16504E-09
3.46979E-11 2.09546E-09
3.73157E-11 2.02687E-09
4.00286E-11 1.96314E-09
4.28368E-11 1.90112E-09
4.57402E-11 1.84030E-09
4.87388E-11 1.78329E-09
5.18325E-11 1.72844E-09
5.50215E-11 1.67486E-09
5.83057E-11 1.62417E-09
6.16850E-11 1.57577E-09
6.51595E-11 1.52863E-09
6.87293E-11 1.48367E-09
7.23943E-11 1.44088E-09
7.61544E-11 1.39932E-09
1.18991E-10 1.06226E-09
1.71347E-10 8.23430E-10
2.33223E-10 6.46165E-10
3.04617E-10 5.11627E-10
3.85531E-10 4.08603E-10
4.75965E-10 3.29369E-10
5.75917E-10 2.68090E-10
6.85389E-10 2.20459E-10
8.04380E-10 1.82144E-10
9.32891E-10 1.52067E-10
1.07092E-09 1.29103E-10
1.21847E-09 1.10380E-10
1.37554E-09 9.43631E-11
1.54213E-09 8.16897E-11
1.71823E-09 7.12305E-11
1.90386E-09 6.19425E-11
2.09900E-09 5.43870E-11
2.30367E-09 4.81022E-11
2.51785E-09 4.23804E-11
2.74156E-09 3.76228E-11
2.97478E-09 3.36342E-11
3.21752E-09 2.99631E-11
3.46978E-09 2.68520E-11
3.73156E-09 2.42007E-11
4.00286E-09 2.17866E-11
4.28368E-09 1.96906E-11
4.57402E-09 1.78794E-11
4.87388E-09 1.62390E-11
5.18326E-09 1.47880E-11
5.50215E-09 1.35193E-11
5.83057E-09 1.23714E-11
6.16850E-09 1.13406E-11
6.51596E-09 1.04300E-11
6.87293E-09 9.60521E-12
7.23942E-09 8.85466E-12
7.61544E-09 8.18589E-12
1.18991E-08 4.01173E-12
1.71347E-08 2.17564E-12
2.33223E-08 1.27317E-12
3.04617E-08 7.95276E-13
3.85531E-08 5.23237E-13
4.75965E-08 3.58758E-13
5.75917E-08 2.54516E-13
6.85389E-08 1.85627E-13
8.04380E-08 1.38460E-13
9.32891E-08 1.05529E-13
1.07092E-07 8.18647E-14
1.21847E-07 6.44469E-14
1.37554E-07 5.14514E-14
1.54213E-07 4.15872E-14
1.71823E-07 3.39851E-14
1.90386E-07 2.80458E-14
2.09900E-07 2.33389E-14
2.30367E-07 1.95802E-14
2.51785E-07 1.65484E-14
2.74156E-07 1.40806E-14
2.97478E-07 1.20555E-14
3.21752E-07 1.03784E-14
3.46978E-07 8.98319E-15
3.73156E-07 7.81478E-15
4.00286E-07 6.83032E-15
4.28368E-07 5.99611E-15
4.57402E-07 5.28496E-15
4.87388E-07 4.67638E-15
5.18325E-07 4.15315E-15
5.50215E-07 3.70127E-15
5.83057E-07 3.30933E-15
6.16850E-07 2.96784E-15
6.51596E-07 2.66942E-15
6.87293E-07 2.40769E-15
7.23942E-07 2.17735E-15
7.61543E-07 1.97398E-15
1.18991E-06 8.29388E-16
1.71347E-06 4.06722E-16
2.33223E-06 2.22028E-16
3.04617E-06 1.31198E-16
3.85531E-06 8.24060E-17
4.75964E-06 5.43302E-17
5.75916E-06 3.72585E-17
6.85388E-06 2.63978E-17
8.04378E-06 1.92228E-17
9.32888E-06 1.43291E-17
1.07092E-05 1.08987E-17
1.21846E-05 8.43642E-18
1.37553E-05 6.63205E-18
1.54212E-05 5.28540E-18
1.71822E-05 4.26392E-18
1.90385E-05 3.47545E-18
2.09899E-05 2.86512E-18
2.30365E-05 2.38259E-18
2.51783E-05 1.99683E-18
2.74153E-05 1.68556E-18
2.97475E-05 1.43242E-18
3.21749E-05 1.22506E-18
3.46974E-05 1.05402E-18
3.73152E-05 9.11960E-19
4.00281E-05 7.93150E-19
4.28362E-05 6.93119E-19
4.57395E-05 6.08370E-19
4.87380E-05 5.36157E-19
5.18317E-05 4.74317E-19
5.50205E-05 4.21120E-19
5.83045E-05 3.75169E-19
6.16838E-05 3.35324E-19
6.51582E-05 3.00641E-19
6.87277E-05 2.70339E-19
7.23925E-05 2.43767E-19
7.61524E-05 2.20600E-19
9.21439E-05 1.50981E-19
1.09658E-04 1.06809E-19
1.28695E-04 7.76980E-20
1.49255E-04 5.78775E-20
1.71338E-04 4.40048E-20
1.94942E-04 3.40597E-20
2.20070E-04 2.67787E-20
2.46720E-04 2.13486E-20
2.74892E-04 1.72320E-20
3.04586E-04 1.40645E-20
3.35803E-04 1.15952E-20
3.68542E-04 9.64666E-21
4.02802E-04 8.09238E-21
4.38585E-04 6.84022E-21
4.75889E-04 5.82212E-21
5.14715E-04 4.98747E-21
5.55063E-04 4.29779E-21
5.96931E-04 3.72388E-21
6.40321E-04 3.24309E-21
6.85233E-04 2.83780E-21
7.31665E-04 2.49421E-21
7.79618E-04 2.20132E-21
8.29092E-04 1.95043E-21
8.80086E-04 1.73451E-21
9.32601E-04 1.54774E-21
9.86636E-04 1.38547E-21
1.04219E-03 1.24399E-21
1.09927E-03 1.12019E-21
1.15786E-03 1.01146E-21
1.21797E-03 9.15650E-22
1.27961E-03 8.30951E-22
1.34276E-03 7.55844E-22
1.40743E-03 6.89052E-22
1.47362E-03 6.29486E-22
1.54133E-03 5.76228E-22
1.61056E-03 5.28487E-22
1.68131E-03 4.85589E-22
1.75357E-03 4.46954E-22
1.82735E-03 4.12081E-22
1.90265E-03 3.80539E-22
1.97947E-03 3.51949E-22
2.05780E-03 3.25986E-22
2.13765E-03 3.02365E-22
2.21902E-03 2.80835E-22
2.30190E-03 2.61178E-22
2.38630E-03 2.43200E-22
2.47222E-03 2.26732E-22
2.55965E-03 2.11624E-22
2.64859E-03 1.97742E-22
2.73905E-03 1.84970E-22
2.83103E-03 1.73202E-22
2.92452E-03 1.62344E-22
3.01952E-03 1.52314E-22
3.11604E-03 1.43036E-22
3.21407E-03 1.34444E-22
3.31362E-03 1.26477E-22
3.41468E-03 1.19083E-22
3.51725E-03 1.12212E-22
3.62133E-03 1.05820E-22
3.72692E-03 9.98683E-23
3.83403E-03 9.43206E-23
3.94265E-03 8.91445E-23
4.05278E-03 8.43107E-23
4.16442E-03 7.97923E-23
4.27757E-03 7.55651E-23
4.39223E-03 7.16068E-23
4.50840E-03 6.78973E-23
4.62608E-03 6.44182E-23
4.74527E-03 6.11525E-23
4.86597E-03 5.80847E-23
4.98817E-03 5.52008E-23
5.11188E-03 5.24878E-23
5.23711E-03 4.99337E-23
5.36383E-03 4.75275E-23
5.49207E-03 4.52592E-23
5.62181E-03 4.31195E-23
5.75306E-03 4.10998E-23
5.88581E-03 3.91921E-23
6.02007E-03 3.73893E-23
6.15583E-03 3.56844E-23
6.29310E-03 3.40713E-23
6.43187E-03 3.25442E-23
6.57214E-03 3.10977E-23
6.71392E-03 2.97268E-23
6.85720E-03 2.84269E-23
7.00198E-03 2.71936E-23
7.14827E-03 2.60230E-23
7.29605E-03 2.49114E-23
7.44534E-03 2.38553E-23
7.59612E-03 2.28514E-23
7.97965E-03 2.05509E-23
8.37255E-03 1.85168E-23
8.77480E-03 1.67135E-23
9.18641E-03 1.51109E-23
9.60736E-03 1.36835E-23
1.00376E-02 1.24093E-23
1.04773E-02 1.12696E-23
1.09262E-02 1.02481E-23
1.13844E-02 9.33080E-24
1.18520E-02 8.50570E-24
1.23288E-02 7.76226E-24
1.28150E-02 7.09131E-24
1.33104E-02 6.48488E-24
1.38150E-02 5.93596E-24
1.43290E-02 5.43841E-24
1.48521E-02 4.98682E-24
1.53845E-02 4.57645E-24
1.59262E-02 4.20308E-24
1.64770E-02 3.86299E-24
1.70371E-02 3.55287E-24
1.76063E-02 3.26979E-24
1.81848E-02 3.01114E-24
1.87724E-02 2.77459E-24
1.93692E-02 2.55805E-24
1.99751E-02 2.35966E-24
2.05901E-02 2.17775E-24
2.12143E-02 2.01082E-24
2.18476E-02 1.85752E-24
2.24900E-02 1.71664E-24
2.31415E-02 1.58708E-24
2.38021E-02 1.46787E-24
2.44717E-02 1.35809E-24
2.51504E-02 1.25696E-24
2.58382E-02 1.16373E-24
2.65349E-02 1.07774E-24
2.72407E-02 9.98389E-25
2.79555E-02 9.25131E-25
2.86793E-02 8.57464E-25
2.94120E-02 7.94937E-25
3.01537E-02 7.37133E-25
3.09043E-02 6.83676E-25
3.16639E-02 6.34220E-25
3.24324E-02 5.88449E-25
3.32098E-02 5.46076E-25
3.39961E-02 5.06835E-25
3.47912E-02 4.70484E-25
3.55952E-02 4.36801E-25
3.64081E-02 4.05583E-25
3.72297E-02 3.76641E-25
3.80602E-02 3.49803E-25
3.88995E-02 3.24911E-25
3.97476E-02 3.01820E-25
4.06044E-02 2.80395E-25
4.14700E-02 2.60513E-25
4.23443E-02 2.42059E-25
4.32273E-02 2.24929E-25
4.41190E-02 2.09025E-25
4.50194E-02 1.94258E-25
4.59284E-02 1.80545E-25
4.68461E-02 1.67810E-25
4.87074E-02 1.44994E-25
5.06030E-02 1.25306E-25
5.25328E-02 1.08315E-25
5.44967E-02 9.36472E-26
5.64946E-02 8.09854E-26
5.85262E-02 7.00547E-26
6.05914E-02 6.06187E-26
6.26901E-02 5.24736E-26
6.48222E-02 4.54437E-26
6.69873E-02 3.93771E-26
6.91854E-02 3.41426E-26
7.14163E-02 2.96269E-26
7.36799E-02 2.57318E-26
7.59760E-02 2.23726E-26
7.83043E-02 1.94759E-26
8.06647E-02 1.69782E-26
8.30571E-02 1.48247E-26
8.54812E-02 1.29676E-26
8.79369E-02 1.13661E-26
9.04240E-02 9.98453E-27
9.29422E-02 8.79219E-27
9.54915E-02 7.76258E-27
9.80716E-02 6.87278E-27
1.00682E-01 6.10304E-27
1.03323E-01 5.43634E-27
1.05995E-01 4.85799E-27
1.08696E-01 4.35540E-27
1.11427E-01 3.91769E-27
1.14188E-01 3.53556E-27
1.16978E-01 3.20102E-27
1.19797E-01 2.90723E-27
1.22645E-01 2.64833E-27
1.25522E-01 2.41933E-27
1.28428E-01 2.21596E-27
1.31361E-01 2.03459E-27
1.34323E-01 1.87214E-27
1.37313E-01 1.72598E-27
1.40330E-01 1.59388E-27
1.43375E-01 1.47397E-27
1.46447E-01 1.36466E-27
1.49545E-01 1.26459E-27
1.52671E-01 1.17264E-27
1.55823E-01 1.08786E-27
1.59001E-01 1.00942E-27
1.62205E-01 9.36662E-28
1.65435E-01 8.69001E-28
1.68690E-01 8.05953E-28
1.71970E-01 7.47107E-28
1.75276E-01 6.92111E-28
1.78606E-01 6.40668E-28
1.81961E-01 5.92517E-28
1.85340E-01 5.47436E-28
1.88743E-01 5.05229E-28
1.92169E-01 4.65722E-28
1.95619E-01 4.28761E-28
1.99092E-01 3.94206E-28
2.02589E-01 3.61929E-28
2.06107E-01 3.31811E-28
2.09649E-01 3.03743E-28
2.13212E-01 2.77621E-28
2.16797E-01 2.53344E-28
2.20404E-01 2.30819E-28
2.24032E-01 2.09955E-28
2.27680E-01 1.90663E-28
2.31350E-01 1.72858E-28
2.35040E-01 1.56458E-28
2.38751E-01 1.41381E-28
2.42481E-01 1.27551E-28
2.46231E-01 1.14892E-28
2.50000E-01 1.03329E-28
2.53788E-01 9.27933E-29
2.57595E-01 8.32149E-29
2.61421E-01 7.45282E-29
2.65264E-01 6.66697E-29
2.69126E-01 5.95784E-29
2.73005E-01 5.31960E-29
2.76901E-01 4.74671E-29
2.80814E-01 4.23387E-29
2.84744E-01 3.77606E-29
2.88691E-01 3.36856E-29
2.92653E-01 3.00688E-29
2.96632E-01 2.68682E-29
3.00625E-01 2.40444E-29
3.04634E-01 2.15607E-29
3.08658E-01 1.93828E-29
3.12697E-01 1.74789E-29
3.16749E-01 1.58194E-29
3.20816E-01 1.43774E-29
3.24896E-01 1.31278E-29
3.28990E-01 1.20479E-29
3.33097E-01 1.11167E-29
3.37216E-01 1.03153E-29
3.41348E-01 9.62662E-30
3.45492E-01 9.03511E-30
3.49647E-01 8.52690E-30
3.53814E-01 8.08958E-30
3.57992E-01 7.71209E-30
3.62181E-01 7.38467E-30
3.66381E-01 7.09870E-30
3.70590E-01 6.84667E-30
3.74810E-01 6.62203E-30
3.79039E-01 6.41914E-30
3.83277E-01 6.23319E-30
3.87524E-01 6.06008E-30
3.91780E-01 5.89638E-30
3.96044E-01 5.73927E-30
4.00316E-01 5.58644E-30
4.04596E-01 5.43604E-30
4.08882E-01 5.28665E-30
4.13176E-01 5.13720E-30
4.17476E-01 4.98691E-30
4.21783E-01 4.83527E-30
4.26095E-01 4.68203E-30
4.30413E-01 4.52707E-30
4.34737E-01 4.37046E-30
4.39065E-01 4.21240E-30
4.43398E-01 4.05316E-30
4.47736E-01 3.89312E-30
4.52077E-01 3.73269E-30
4.56422E-01 3.57233E-30
4.60770E-01 3.41251E-30
4.65122E-01 3.25373E-30
4.69476E-01 3.09646E-30
4.73832E-01 2.94118E-30
4.78190E-01 2.78834E-30
4.82550E-01 2.63837E-30
4.86912E-01 2.49166E-30
4.91274E-01 2.34859E-30
4.95637E-01 2.20947E-30
5.00000E-01 2.07459E-30
5.04363E-01 1.94421E-30
5.08726E-01 1.81853E-30
5.13088E-01 1.69772E-30
5.17450E-01 1.58192E-30
5.21810E-01 1.47122E-30
5.26168E-01 1.36569E-30
5.30524E-01 1.26535E-30
5.34878E-01 1.17020E-30
5.39230E-01 1.08021E-30
5.43578E-01 9.95327E-31
5.47923E-01 9.15470E-31
5.52264E-01 8.40539E-31
5.56602E-01 7.70415E-31
5.60935E-01 7.04962E-31
5.65263E-01 6.44030E-31
5.69587E-01 5.87460E-31
5.73905E-01 5.35081E-31
5.78217E-01 4.86715E-31
5.82524E-01 4.42178E-31
5.86824E-01 4.01283E-31
5.91118E-01 3.63840E-31
5.95404E-01 3.29659E-31
5.99684E-01 2.98549E-31
6.03956E-01 2.70321E-31
6.08220E-01 2.44792E-31
6.12476E-01 2.21778E-31
6.16723E-01 2.01102E-31
6.20961E-01 1.82593E-31
6.25190E-01 1.66083E-31
6.29410E-01 1.51414E-31
6.33619E-01 1.38433E-31
6.37819E-01 1.26993E-31
6.42008E-01 1.16955E-31
6.46186E-01 1.08188E-31
6.50353E-01 1.00568E-31
6.54508E-01 9.39784E-32
6.58652E-01 8.83104E-32
6.62784E-01 8.34622E-32
6.66903E-01 7.93391E-32
6.71010E-01 7.58536E-32
6.75104E-01 7.29249E-32
6.79184E-01 7.04789E-32
6.83251E-01 6.84477E-32
6.87303E-01 6.67695E-32
6.91342E-01 6.53883E-32
6.95366E-01 6.42535E-32
6.99375E-01 6.33196E-32
7.03368E-01 6.25461E-32
7.07347E-01 6.18970E-32
7.11309E-01 6.13406E-32
7.15256E-01 6.08491E-32
7.19186E-01 6.03984E-32
7.23099E-01 5.99677E-32
7.26995E-01 5.95393E-32
7.30874E-01 5.90986E-32
7.34736E-01 5.86333E-32
7.38579E-01 5.81336E-32
7.42405E-01 5.75916E-32
7.46212E-01 5.70015E-32
7.50000E-01 5.63592E-32
7.53769E-01 5.56619E-32
7.57519E-01 5.49082E-32
7.61249E-01 5.40980E-32
7.64960E-01 5.32319E-32
7.68650E-01 5.23115E-32
7.72320E-01 5.13392E-32
7.75968E-01 5.03178E-32
7.79596E-01 4.92506E-32
7.83203E-01 4.81414E-32
7.86788E-01 4.69941E-32
7.90351E-01 4.58130E-32
7.93893E-01 4.46025E-32
7.97411E-01 4.33669E-32
8.00908E-01 4.21106E-32
8.04381E-01 4.08380E-32
8.07831E-01 3.95535E-32
8.11257E-01 3.82612E-32
8.14660E-01 3.69651E-32
8.18039E-01 3.56692E-32
8.21394E-01 3.43770E-32
8.24724E-01 3.30922E-32
8.28030E-01 3.18179E-32
8.31310E-01 3.05571E-32
8.34565E-01 2.93128E-32
8.37795E-01 2.80873E-32
8.40999E-01 2.68831E-32
8.44177E-01 2.57023E-32
8.47329E-01 2.45466E-32
8.50455E-01 2.34179E-32
8.53553E-01 2.23174E-32
8.56625E-01 2.12465E-32
8.59670E-01 2.02061E-32
8.62687E-01 1.91971E-32
8.65677E-01 1.82201E-32
8.68639E-01 1.72756E-32
8.71572E-01 1.63639E-32
8.74478E-01 1.54853E-32
8.77355E-01 1.46397E-32
8.80203E-01 1.38271E-32
8.83022E-01 1.30472E-32
8.85812E-01 1.22998E-32
8.88573E-01 1.15845E-32
8.91304E-01 1.09007E-32
8.94005E-01 1.02479E-32
8.96677E-01 9.62553E-33
8.99318E-01 9.03281E-33
9.01928E-01 8.46903E-33
9.04508E-01 7.93340E-33
9.07058E-01 7.42512E-33
9.09576E-01 6.94332E-33
9.12063E-01 6.48715E-33
9.14519E-01 6.05571E-33
9.16943E-01 5.64811E-33
9.19335E-01 5.26344E-33
9.21696E-01 4.90079E-33
9.24024E-01 4.55926E-33
9.26320E-01 4.23796E-33
9.28584E-01 3.93599E-33
9.30815E-01 3.65247E-33
9.33013E-01 3.38654E-33
9.35178E-01 3.13736E-33
9.37310E-01 2.90410E-33
9.39409E-01 2.68595E-33
9.41474E-01 2.48213E-33
9.43505E-01 2.29188E-33
9.45503E-01 2.11446E-33
9.47467E-01 1.94917E-33
9.49397E-01 1.79530E-33
9.51293E-01 1.65221E-33
9.53154E-01 1.51926E-33
9.54981E-01 1.39585E-33
9.56773E-01 1.28138E-33
9.58530E-01 1.17531E-33
9.60252E-01 1.07710E-33
9.61940E-01 9.86258E-34
9.63592E-01 9.02293E-34
9.65209E-01 8.24753E-34
9.66790E-01 7.53206E-34
9.68336E-01 6.87244E-34
9.69846E-01 6.26480E-34
9.71321E-01 5.70549E-34
9.72759E-01 5.19108E-34
9.74162E-01 4.71834E-34
9.75528E-01 4.28422E-34
9.76858E-01 3.88588E-34
9.78152E-01 3.52063E-34
9.79410E-01 3.18598E-34
9.80631E-01 2.87958E-34
9.81815E-01 2.59925E-34
9.82963E-01 2.34297E-34
9.84074E-01 2.10881E-34
9.85148E-01 1.89504E-34
9.86185E-01 1.70001E-34
9.87185E-01 1.52221E-34
9.88148E-01 1.36022E-34
9.89074E-01 1.21276E-34
9.89962E-01 1.07862E-34
9.90814E-01 9.56699E-35
9.91627E-01 8.45985E-35
9.92404E-01 7.45539E-35
9.93143E-01 6.54509E-35
9.93844E-01 5.72106E-35
9.94508E-01 4.97621E-35
9.95134E-01 4.30397E-35
9.95722E-01 3.69839E-35
9.96273E-01 3.15412E-35
9.96786E-01 2.66629E-35
9.97261E-01 2.23050E-35
9.97698E-01 1.84286E-35
9.98097E-01 1.49980E-35
9.98459E-01 1.19820E-35
9.98782E-01 9.35345E-36
9.99067E-01 7.08833E-36
9.99315E-01 5.16552E-36
9.99524E-01 3.56734E-36
9.99695E-01 2.27956E-36
9.99829E-01 1.28991E-36
9.99924E-01 5.89415E-37
9.99981E-01 1.71735E-37
1.00000E+00 3.28964E-38
