 #
 # Subroutine ELSEPA. Elastic scattering of electrons and positrons
 #                    by neutral atoms and positive ions
 #
 # Projectile: electron
 # Kinetic energy = 4.00000E+06 eV = 1.46997E+05 a.u.
 #
 # WARNING: High-energy factorization with free-atom DF screening.
 #          Absorption, polarization and exchange corrections are
 #          switched off.
 #          Phase shifts are calculated for the bare nucleus.
 #          Scattering amplitudes are not evaluated.
 #
 # Element: Fr,  Z =  87,  atomic weight = 2.23020E+02 g/mol
 #
 # Nuclear model: Fermi distribution
 #                Average radius = 6.48881E-13 cm
 #                Skin thickness = 5.46000E-14 cm
 #
 # Number of electrons = 87
 #
 # Total elastic cross section = 1.05708E-17 cm**2 = 3.77491E-01 a0**2
 # 1st transport cross section = 6.24415E-22 cm**2 = 2.22983E-05 a0**2
 # 2nd transport cross section = 1.64450E-21 cm**2 = 5.87263E-05 a0**2
 #
 #
 # Differential cross section:                       MU=(1-COS(THETA))/2
 #
 #  THETA        MU          DCS          DCS        Sherman      error
 #  (deg)                 (cm**2/sr)   (a0**2/sr)    function
 #----------------------------------------------------------------------
0.00000E+00 2.55672E-12
7.61557E-13 2.55668E-12
1.18994E-12 2.55667E-12
1.71346E-12 2.55665E-12
2.33225E-12 2.55662E-12
3.04617E-12 2.55659E-12
3.85530E-12 2.55656E-12
4.75964E-12 2.55652E-12
5.75917E-12 2.55648E-12
6.85391E-12 2.55643E-12
8.04379E-12 2.55639E-12
9.32893E-12 2.55633E-12
1.07092E-11 2.55628E-12
1.21847E-11 2.55622E-12
1.37554E-11 2.55615E-12
1.54213E-11 2.55608E-12
1.71823E-11 2.55601E-12
1.90386E-11 2.55593E-12
2.09900E-11 2.55585E-12
2.30367E-11 2.55577E-12
2.51785E-11 2.55568E-12
2.74156E-11 2.55559E-12
2.97478E-11 2.55549E-12
3.21752E-11 2.55539E-12
3.46979E-11 2.55529E-12
3.73157E-11 2.55518E-12
4.00286E-11 2.55507E-12
4.28368E-11 2.55496E-12
4.57402E-11 2.55484E-12
4.87388E-11 2.55471E-12
5.18325E-11 2.55459E-12
5.50215E-11 2.55446E-12
5.83057E-11 2.55432E-12
6.16850E-11 2.55418E-12
6.51595E-11 2.55404E-12
6.87293E-11 2.55389E-12
7.23943E-11 2.55374E-12
7.61544E-11 2.55359E-12
1.18991E-10 2.55183E-12
1.71347E-10 2.54969E-12
2.33223E-10 2.54716E-12
3.04617E-10 2.54424E-12
3.85531E-10 2.54095E-12
4.75965E-10 2.53727E-12
5.75917E-10 2.53323E-12
6.85389E-10 2.52881E-12
8.04380E-10 2.52402E-12
9.32891E-10 2.51887E-12
1.07092E-09 2.51336E-12
1.21847E-09 2.50750E-12
1.37554E-09 2.50128E-12
1.54213E-09 2.49472E-12
1.71823E-09 2.48783E-12
1.90386E-09 2.48060E-12
2.09900E-09 2.47304E-12
2.30367E-09 2.46516E-12
2.51785E-09 2.45696E-12
2.74156E-09 2.44846E-12
2.97478E-09 2.43966E-12
3.21752E-09 2.43056E-12
3.46978E-09 2.42117E-12
3.73156E-09 2.41150E-12
4.00286E-09 2.40156E-12
4.28368E-09 2.39136E-12
4.57402E-09 2.38089E-12
4.87388E-09 2.37018E-12
5.18326E-09 2.35922E-12
5.50215E-09 2.34803E-12
5.83057E-09 2.33662E-12
6.16850E-09 2.32498E-12
6.51596E-09 2.31314E-12
6.87293E-09 2.30109E-12
7.23942E-09 2.28885E-12
7.61544E-09 2.27643E-12
1.18991E-08 2.14414E-12
1.71347E-08 2.00176E-12
2.33223E-08 1.85723E-12
3.04617E-08 1.71505E-12
3.85531E-08 1.57911E-12
4.75965E-08 1.45196E-12
5.75917E-08 1.33514E-12
6.85389E-08 1.23016E-12
8.04380E-08 1.13499E-12
9.32891E-08 1.04908E-12
1.07092E-07 9.71654E-13
1.21847E-07 9.01879E-13
1.37554E-07 8.39047E-13
1.54213E-07 7.82031E-13
1.71823E-07 7.30032E-13
1.90386E-07 6.82478E-13
2.09900E-07 6.38862E-13
2.30367E-07 5.98719E-13
2.51785E-07 5.61547E-13
2.74156E-07 5.27124E-13
2.97478E-07 4.95197E-13
3.21752E-07 4.65542E-13
3.46978E-07 4.37961E-13
3.73156E-07 4.12173E-13
4.00286E-07 3.88101E-13
4.28368E-07 3.65661E-13
4.57402E-07 3.44728E-13
4.87388E-07 3.25193E-13
5.18325E-07 3.06927E-13
5.50215E-07 2.89796E-13
5.83057E-07 2.73801E-13
6.16850E-07 2.58860E-13
6.51596E-07 2.44898E-13
6.87293E-07 2.31845E-13
7.23942E-07 2.19589E-13
7.61543E-07 2.08116E-13
1.18991E-06 1.25897E-13
1.71347E-06 8.12580E-14
2.33223E-06 5.49726E-14
3.04617E-06 3.87070E-14
3.85531E-06 2.80993E-14
4.75964E-06 2.09040E-14
5.75916E-06 1.58724E-14
6.85388E-06 1.22434E-14
8.04378E-06 9.61636E-15
9.32888E-06 7.67189E-15
1.07092E-05 6.20413E-15
1.21846E-05 5.07657E-15
1.37553E-05 4.19202E-15
1.54212E-05 3.49111E-15
1.71822E-05 2.93088E-15
1.90385E-05 2.47651E-15
2.09899E-05 2.10911E-15
2.30365E-05 1.80590E-15
2.51783E-05 1.55304E-15
2.74153E-05 1.34282E-15
2.97475E-05 1.16613E-15
3.21749E-05 1.01696E-15
3.46974E-05 8.91118E-16
3.73152E-05 7.84318E-16
4.00281E-05 6.93345E-16
4.28362E-05 6.15443E-16
4.57395E-05 5.48336E-16
4.87380E-05 4.90215E-16
5.18317E-05 4.39608E-16
5.50205E-05 3.95325E-16
5.83045E-05 3.56525E-16
6.16838E-05 3.22423E-16
6.51582E-05 2.92358E-16
6.87277E-05 2.65770E-16
7.23925E-05 2.42154E-16
7.61524E-05 2.21130E-16
9.21439E-05 1.56932E-16
1.09658E-04 1.14464E-16
1.28695E-04 8.54022E-17
1.49255E-04 6.50928E-17
1.71338E-04 5.05055E-17
1.94942E-04 3.98033E-17
2.20070E-04 3.17912E-17
2.46720E-04 2.57011E-17
2.74892E-04 2.10076E-17
3.04586E-04 1.73405E-17
3.35803E-04 1.44410E-17
3.68542E-04 1.21221E-17
4.02802E-04 1.02475E-17
4.38585E-04 8.72190E-18
4.75889E-04 7.46990E-18
5.14715E-04 6.43478E-18
5.55063E-04 5.57293E-18
5.96931E-04 4.85021E-18
6.40321E-04 4.24100E-18
6.85233E-04 3.72477E-18
7.31665E-04 3.28500E-18
7.79618E-04 2.90844E-18
8.29092E-04 2.58449E-18
8.80086E-04 2.30443E-18
9.32601E-04 2.06148E-18
9.86636E-04 1.84987E-18
1.04219E-03 1.66485E-18
1.09927E-03 1.50250E-18
1.15786E-03 1.35949E-18
1.21797E-03 1.23316E-18
1.27961E-03 1.12123E-18
1.34276E-03 1.02178E-18
1.40743E-03 9.33152E-19
1.47362E-03 8.53951E-19
1.54133E-03 7.82989E-19
1.61056E-03 7.19273E-19
1.68131E-03 6.61930E-19
1.75357E-03 6.10209E-19
1.82735E-03 5.63456E-19
1.90265E-03 5.21094E-19
1.97947E-03 4.82650E-19
2.05780E-03 4.47697E-19
2.13765E-03 4.15861E-19
2.21902E-03 3.86813E-19
2.30190E-03 3.60260E-19
2.38630E-03 3.35948E-19
2.47222E-03 3.13660E-19
2.55965E-03 2.93195E-19
2.64859E-03 2.74377E-19
2.73905E-03 2.57050E-19
2.83103E-03 2.41068E-19
2.92452E-03 2.26314E-19
3.01952E-03 2.12675E-19
3.11604E-03 2.00053E-19
3.21407E-03 1.88356E-19
3.31362E-03 1.77504E-19
3.41468E-03 1.67424E-19
3.51725E-03 1.58053E-19
3.62133E-03 1.49331E-19
3.72692E-03 1.41206E-19
3.83403E-03 1.33628E-19
3.94265E-03 1.26553E-19
4.05278E-03 1.19942E-19
4.16442E-03 1.13761E-19
4.27757E-03 1.07974E-19
4.39223E-03 1.02553E-19
4.50840E-03 9.74693E-20
4.62608E-03 9.26986E-20
4.74527E-03 8.82181E-20
4.86597E-03 8.40069E-20
4.98817E-03 8.00458E-20
5.11188E-03 7.63169E-20
5.23711E-03 7.28039E-20
5.36383E-03 6.94923E-20
5.49207E-03 6.63684E-20
5.62181E-03 6.34195E-20
5.75306E-03 6.06339E-20
5.88581E-03 5.80006E-20
6.02007E-03 5.55100E-20
6.15583E-03 5.31528E-20
6.29310E-03 5.09206E-20
6.43187E-03 4.88055E-20
6.57214E-03 4.68001E-20
6.71392E-03 4.48975E-20
6.85720E-03 4.30916E-20
7.00198E-03 4.13766E-20
7.14827E-03 3.97469E-20
7.29605E-03 3.81976E-20
7.44534E-03 3.67237E-20
7.59612E-03 3.53211E-20
7.97965E-03 3.20998E-20
8.37255E-03 2.92415E-20
8.77480E-03 2.66981E-20
9.18641E-03 2.44286E-20
9.60736E-03 2.23984E-20
1.00376E-02 2.05775E-20
1.04773E-02 1.89406E-20
1.09262E-02 1.74657E-20
1.13844E-02 1.61337E-20
1.18520E-02 1.49284E-20
1.23288E-02 1.38354E-20
1.28150E-02 1.28423E-20
1.33104E-02 1.19385E-20
1.38150E-02 1.11142E-20
1.43290E-02 1.03612E-20
1.48521E-02 9.67223E-21
1.53845E-02 9.04075E-21
1.59262E-02 8.46110E-21
1.64770E-02 7.92822E-21
1.70371E-02 7.43759E-21
1.76063E-02 6.98522E-21
1.81848E-02 6.56757E-21
1.87724E-02 6.18147E-21
1.93692E-02 5.82408E-21
1.99751E-02 5.49285E-21
2.05901E-02 5.18547E-21
2.12143E-02 4.89991E-21
2.18476E-02 4.63432E-21
2.24900E-02 4.38703E-21
2.31415E-02 4.15653E-21
2.38021E-02 3.94144E-21
2.44717E-02 3.74054E-21
2.51504E-02 3.55271E-21
2.58382E-02 3.37693E-21
2.65349E-02 3.21227E-21
2.72407E-02 3.05789E-21
2.79555E-02 2.91301E-21
2.86793E-02 2.77694E-21
2.94120E-02 2.64902E-21
3.01537E-02 2.52868E-21
3.09043E-02 2.41538E-21
3.16639E-02 2.30860E-21
3.24324E-02 2.20791E-21
3.32098E-02 2.11289E-21
3.39961E-02 2.02315E-21
3.47912E-02 1.93834E-21
3.55952E-02 1.85812E-21
3.64081E-02 1.78221E-21
3.72297E-02 1.71031E-21
3.80602E-02 1.64218E-21
3.88995E-02 1.57758E-21
3.97476E-02 1.51628E-21
4.06044E-02 1.45808E-21
4.14700E-02 1.40279E-21
4.23443E-02 1.35023E-21
4.32273E-02 1.30024E-21
4.41190E-02 1.25267E-21
4.50194E-02 1.20737E-21
4.59284E-02 1.16422E-21
4.68461E-02 1.12309E-21
4.87074E-02 1.04643E-21
5.06030E-02 9.76566E-22
5.25328E-02 9.12771E-22
5.44967E-02 8.54408E-22
5.64946E-02 8.00916E-22
5.85262E-02 7.51805E-22
6.05914E-02 7.06639E-22
6.26901E-02 6.65033E-22
6.48222E-02 6.26648E-22
6.69873E-02 5.91177E-22
6.91854E-02 5.58353E-22
7.14163E-02 5.27934E-22
7.36799E-02 4.99707E-22
7.59760E-02 4.73476E-22
7.83043E-02 4.49069E-22
8.06647E-02 4.26332E-22
8.30571E-02 4.05123E-22
8.54812E-02 3.85317E-22
8.79369E-02 3.66799E-22
9.04240E-02 3.49467E-22
9.29422E-02 3.33226E-22
9.54915E-02 3.17992E-22
9.80716E-02 3.03688E-22
1.00682E-01 2.90244E-22
1.03323E-01 2.77595E-22
1.05995E-01 2.65684E-22
1.08696E-01 2.54456E-22
1.11427E-01 2.43864E-22
1.14188E-01 2.33862E-22
1.16978E-01 2.24410E-22
1.19797E-01 2.15469E-22
1.22645E-01 2.07006E-22
1.25522E-01 1.98989E-22
1.28428E-01 1.91388E-22
1.31361E-01 1.84176E-22
1.34323E-01 1.77328E-22
1.37313E-01 1.70821E-22
1.40330E-01 1.64634E-22
1.43375E-01 1.58748E-22
1.46447E-01 1.53143E-22
1.49545E-01 1.47804E-22
1.52671E-01 1.42713E-22
1.55823E-01 1.37857E-22
1.59001E-01 1.33222E-22
1.62205E-01 1.28794E-22
1.65435E-01 1.24564E-22
1.68690E-01 1.20518E-22
1.71970E-01 1.16648E-22
1.75276E-01 1.12944E-22
1.78606E-01 1.09396E-22
1.81961E-01 1.05996E-22
1.85340E-01 1.02737E-22
1.88743E-01 9.96101E-23
1.92169E-01 9.66097E-23
1.95619E-01 9.37290E-23
1.99092E-01 9.09619E-23
2.02589E-01 8.83027E-23
2.06107E-01 8.57461E-23
2.09649E-01 8.32870E-23
2.13212E-01 8.09206E-23
2.16797E-01 7.86425E-23
2.20404E-01 7.64486E-23
2.24032E-01 7.43348E-23
2.27680E-01 7.22974E-23
2.31350E-01 7.03330E-23
2.35040E-01 6.84381E-23
2.38751E-01 6.66097E-23
2.42481E-01 6.48448E-23
2.46231E-01 6.31404E-23
2.50000E-01 6.14940E-23
2.53788E-01 5.99030E-23
2.57595E-01 5.83651E-23
2.61421E-01 5.68781E-23
2.65264E-01 5.54397E-23
2.69126E-01 5.40479E-23
2.73005E-01 5.27008E-23
2.76901E-01 5.13966E-23
2.80814E-01 5.01334E-23
2.84744E-01 4.89097E-23
2.88691E-01 4.77238E-23
2.92653E-01 4.65743E-23
2.96632E-01 4.54598E-23
3.00625E-01 4.43788E-23
3.04634E-01 4.33302E-23
3.08658E-01 4.23126E-23
3.12697E-01 4.13249E-23
3.16749E-01 4.03659E-23
3.20816E-01 3.94345E-23
3.24896E-01 3.85298E-23
3.28990E-01 3.76508E-23
3.33097E-01 3.67965E-23
3.37216E-01 3.59661E-23
3.41348E-01 3.51588E-23
3.45492E-01 3.43736E-23
3.49647E-01 3.36098E-23
3.53814E-01 3.28666E-23
3.57992E-01 3.21434E-23
3.62181E-01 3.14395E-23
3.66381E-01 3.07541E-23
3.70590E-01 3.00867E-23
3.74810E-01 2.94367E-23
3.79039E-01 2.88035E-23
3.83277E-01 2.81866E-23
3.87524E-01 2.75854E-23
3.91780E-01 2.69994E-23
3.96044E-01 2.64280E-23
4.00316E-01 2.58709E-23
4.04596E-01 2.53276E-23
4.08882E-01 2.47976E-23
4.13176E-01 2.42806E-23
4.17476E-01 2.37761E-23
4.21783E-01 2.32838E-23
4.26095E-01 2.28033E-23
4.30413E-01 2.23341E-23
4.34737E-01 2.18761E-23
4.39065E-01 2.14288E-23
4.43398E-01 2.09918E-23
4.47736E-01 2.05650E-23
4.52077E-01 2.01481E-23
4.56422E-01 1.97406E-23
4.60770E-01 1.93424E-23
4.65122E-01 1.89532E-23
4.69476E-01 1.85728E-23
4.73832E-01 1.82009E-23
4.78190E-01 1.78372E-23
4.82550E-01 1.74815E-23
4.86912E-01 1.71336E-23
4.91274E-01 1.67932E-23
4.95637E-01 1.64603E-23
5.00000E-01 1.61345E-23
5.04363E-01 1.58157E-23
5.08726E-01 1.55038E-23
5.13088E-01 1.51984E-23
5.17450E-01 1.48995E-23
5.21810E-01 1.46068E-23
5.26168E-01 1.43202E-23
5.30524E-01 1.40396E-23
5.34878E-01 1.37648E-23
5.39230E-01 1.34956E-23
5.43578E-01 1.32319E-23
5.47923E-01 1.29736E-23
5.52264E-01 1.27205E-23
5.56602E-01 1.24726E-23
5.60935E-01 1.22295E-23
5.65263E-01 1.19913E-23
5.69587E-01 1.17579E-23
5.73905E-01 1.15290E-23
5.78217E-01 1.13047E-23
5.82524E-01 1.10848E-23
5.86824E-01 1.08691E-23
5.91118E-01 1.06577E-23
5.95404E-01 1.04503E-23
5.99684E-01 1.02469E-23
6.03956E-01 1.00474E-23
6.08220E-01 9.85176E-24
6.12476E-01 9.65980E-24
6.16723E-01 9.47148E-24
6.20961E-01 9.28671E-24
6.25190E-01 9.10541E-24
6.29410E-01 8.92751E-24
6.33619E-01 8.75293E-24
6.37819E-01 8.58159E-24
6.42008E-01 8.41343E-24
6.46186E-01 8.24837E-24
6.50353E-01 8.08634E-24
6.54508E-01 7.92728E-24
6.58652E-01 7.77113E-24
6.62784E-01 7.61782E-24
6.66903E-01 7.46729E-24
6.71010E-01 7.31949E-24
6.75104E-01 7.17435E-24
6.79184E-01 7.03182E-24
6.83251E-01 6.89186E-24
6.87303E-01 6.75439E-24
6.91342E-01 6.61938E-24
6.95366E-01 6.48677E-24
6.99375E-01 6.35651E-24
7.03368E-01 6.22855E-24
7.07347E-01 6.10286E-24
7.11309E-01 5.97938E-24
7.15256E-01 5.85807E-24
7.19186E-01 5.73888E-24
7.23099E-01 5.62179E-24
7.26995E-01 5.50674E-24
7.30874E-01 5.39369E-24
7.34736E-01 5.28261E-24
7.38579E-01 5.17347E-24
7.42405E-01 5.06621E-24
7.46212E-01 4.96081E-24
7.50000E-01 4.85724E-24
7.53769E-01 4.75545E-24
7.57519E-01 4.65541E-24
7.61249E-01 4.55710E-24
7.64960E-01 4.46048E-24
7.68650E-01 4.36552E-24
7.72320E-01 4.27220E-24
7.75968E-01 4.18047E-24
7.79596E-01 4.09032E-24
7.83203E-01 4.00171E-24
7.86788E-01 3.91462E-24
7.90351E-01 3.82902E-24
7.93893E-01 3.74489E-24
7.97411E-01 3.66220E-24
8.00908E-01 3.58092E-24
8.04381E-01 3.50103E-24
8.07831E-01 3.42251E-24
8.11257E-01 3.34534E-24
8.14660E-01 3.26949E-24
8.18039E-01 3.19494E-24
8.21394E-01 3.12166E-24
8.24724E-01 3.04965E-24
8.28030E-01 2.97888E-24
8.31310E-01 2.90932E-24
8.34565E-01 2.84096E-24
8.37795E-01 2.77378E-24
8.40999E-01 2.70777E-24
8.44177E-01 2.64289E-24
8.47329E-01 2.57914E-24
8.50455E-01 2.51650E-24
8.53553E-01 2.45495E-24
8.56625E-01 2.39447E-24
8.59670E-01 2.33506E-24
8.62687E-01 2.27668E-24
8.65677E-01 2.21933E-24
8.68639E-01 2.16300E-24
8.71572E-01 2.10766E-24
8.74478E-01 2.05331E-24
8.77355E-01 1.99993E-24
8.80203E-01 1.94750E-24
8.83022E-01 1.89601E-24
8.85812E-01 1.84545E-24
8.88573E-01 1.79581E-24
8.91304E-01 1.74708E-24
8.94005E-01 1.69923E-24
8.96677E-01 1.65227E-24
8.99318E-01 1.60617E-24
9.01928E-01 1.56093E-24
9.04508E-01 1.51654E-24
9.07058E-01 1.47298E-24
9.09576E-01 1.43025E-24
9.12063E-01 1.38833E-24
9.14519E-01 1.34721E-24
9.16943E-01 1.30689E-24
9.19335E-01 1.26736E-24
9.21696E-01 1.22859E-24
9.24024E-01 1.19060E-24
9.26320E-01 1.15336E-24
9.28584E-01 1.11687E-24
9.30815E-01 1.08112E-24
9.33013E-01 1.04610E-24
9.35178E-01 1.01181E-24
9.37310E-01 9.78227E-25
9.39409E-01 9.45355E-25
9.41474E-01 9.13184E-25
9.43505E-01 8.81705E-25
9.45503E-01 8.50912E-25
9.47467E-01 8.20798E-25
9.49397E-01 7.91356E-25
9.51293E-01 7.62579E-25
9.53154E-01 7.34461E-25
9.54981E-01 7.06995E-25
9.56773E-01 6.80176E-25
9.58530E-01 6.53998E-25
9.60252E-01 6.28454E-25
9.61940E-01 6.03540E-25
9.63592E-01 5.79249E-25
9.65209E-01 5.55576E-25
9.66790E-01 5.32517E-25
9.68336E-01 5.10065E-25
9.69846E-01 4.88217E-25
9.71321E-01 4.66967E-25
9.72759E-01 4.46310E-25
9.74162E-01 4.26244E-25
9.75528E-01 4.06762E-25
9.76858E-01 3.87861E-25
9.78152E-01 3.69537E-25
9.79410E-01 3.51785E-25
9.80631E-01 3.34603E-25
9.81815E-01 3.17986E-25
9.82963E-01 3.01931E-25
9.84074E-01 2.86435E-25
9.85148E-01 2.71494E-25
9.86185E-01 2.57105E-25
9.87185E-01 2.43264E-25
9.88148E-01 2.29970E-25
9.89074E-01 2.17220E-25
9.89962E-01 2.05009E-25
9.90814E-01 1.93337E-25
9.91627E-01 1.82201E-25
9.92404E-01 1.71598E-25
9.93143E-01 1.61526E-25
9.93844E-01 1.51983E-25
9.94508E-01 1.42967E-25
9.95134E-01 1.34476E-25
9.95722E-01 1.26508E-25
9.96273E-01 1.19062E-25
9.96786E-01 1.12137E-25
9.97261E-01 1.05730E-25
9.97698E-01 9.98402E-26
9.98097E-01 9.44668E-26
9.98459E-01 8.96086E-26
9.98782E-01 8.52644E-26
9.99067E-01 8.14334E-26
9.99315E-01 7.81148E-26
9.99524E-01 7.53079E-26
9.99695E-01 7.30121E-26
9.99829E-01 7.12270E-26
9.99924E-01 6.99522E-26
9.99981E-01 6.91874E-26
1.00000E+00 6.89325E-26
