 #
 # Subroutine ELSEPA. Elastic scattering of electrons and positrons
 #                    by neutral atoms and positive ions
 #
 # Projectile: electron
 # Kinetic energy = 1.75000E+06 eV = 6.43113E+04 a.u.
 #
 # WARNING: High-energy factorization with free-atom DF screening.
 #          Absorption, polarization and exchange corrections are
 #          switched off.
 #          Phase shifts are calculated for the bare nucleus.
 #          Scattering amplitudes are not evaluated.
 #
 # Element: Fr,  Z =  87,  atomic weight = 2.23020E+02 g/mol
 #
 # Nuclear model: Fermi distribution
 #                Average radius = 6.48881E-13 cm
 #                Skin thickness = 5.46000E-14 cm
 #
 # Number of electrons = 87
 #
 # Total elastic cross section = 1.10100E-17 cm**2 = 3.93174E-01 a0**2
 # 1st transport cross section = 2.39736E-21 cm**2 = 8.56113E-05 a0**2
 # 2nd transport cross section = 6.16010E-21 cm**2 = 2.19981E-04 a0**2
 #
 #
 # Differential cross section:                       MU=(1-COS(THETA))/2
 #
 #  THETA        MU          DCS          DCS        Sherman      error
 #  (deg)                 (cm**2/sr)   (a0**2/sr)    function
 #----------------------------------------------------------------------
0.00000E+00 6.42300E-13
7.61557E-13 6.42298E-13
1.18994E-12 6.42297E-13
1.71346E-12 6.42296E-13
2.33225E-12 6.42294E-13
3.04617E-12 6.42293E-13
3.85530E-12 6.42291E-13
4.75964E-12 6.42288E-13
5.75917E-12 6.42286E-13
6.85391E-12 6.42283E-13
8.04379E-12 6.42280E-13
9.32893E-12 6.42277E-13
1.07092E-11 6.42274E-13
1.21847E-11 6.42270E-13
1.37554E-11 6.42266E-13
1.54213E-11 6.42262E-13
1.71823E-11 6.42258E-13
1.90386E-11 6.42253E-13
2.09900E-11 6.42248E-13
2.30367E-11 6.42243E-13
2.51785E-11 6.42238E-13
2.74156E-11 6.42233E-13
2.97478E-11 6.42227E-13
3.21752E-11 6.42221E-13
3.46979E-11 6.42215E-13
3.73157E-11 6.42208E-13
4.00286E-11 6.42201E-13
4.28368E-11 6.42195E-13
4.57402E-11 6.42187E-13
4.87388E-11 6.42180E-13
5.18325E-11 6.42172E-13
5.50215E-11 6.42164E-13
5.83057E-11 6.42156E-13
6.16850E-11 6.42148E-13
6.51595E-11 6.42139E-13
6.87293E-11 6.42130E-13
7.23943E-11 6.42121E-13
7.61544E-11 6.42112E-13
1.18991E-10 6.42006E-13
1.71347E-10 6.41876E-13
2.33223E-10 6.41722E-13
3.04617E-10 6.41545E-13
3.85531E-10 6.41344E-13
4.75965E-10 6.41120E-13
5.75917E-10 6.40872E-13
6.85389E-10 6.40600E-13
8.04380E-10 6.40305E-13
9.32891E-10 6.39987E-13
1.07092E-09 6.39646E-13
1.21847E-09 6.39281E-13
1.37554E-09 6.38893E-13
1.54213E-09 6.38482E-13
1.71823E-09 6.38048E-13
1.90386E-09 6.37592E-13
2.09900E-09 6.37112E-13
2.30367E-09 6.36610E-13
2.51785E-09 6.36085E-13
2.74156E-09 6.35538E-13
2.97478E-09 6.34968E-13
3.21752E-09 6.34377E-13
3.46978E-09 6.33763E-13
3.73156E-09 6.33127E-13
4.00286E-09 6.32469E-13
4.28368E-09 6.31789E-13
4.57402E-09 6.31088E-13
4.87388E-09 6.30365E-13
5.18326E-09 6.29622E-13
5.50215E-09 6.28857E-13
5.83057E-09 6.28070E-13
6.16850E-09 6.27264E-13
6.51596E-09 6.26436E-13
6.87293E-09 6.25588E-13
7.23942E-09 6.24720E-13
7.61544E-09 6.23831E-13
1.18991E-08 6.13876E-13
1.71347E-08 6.02117E-13
2.33223E-08 5.88771E-13
3.04617E-08 5.74072E-13
3.85531E-08 5.58264E-13
4.75965E-08 5.41603E-13
5.75917E-08 5.24596E-13
6.85389E-08 5.06764E-13
8.04380E-08 4.88894E-13
9.32891E-08 4.71053E-13
1.07092E-07 4.52926E-13
1.21847E-07 4.35744E-13
1.37554E-07 4.18450E-13
1.54213E-07 4.01821E-13
1.71823E-07 3.85783E-13
1.90386E-07 3.69959E-13
2.09900E-07 3.55334E-13
2.30367E-07 3.40941E-13
2.51785E-07 3.27350E-13
2.74156E-07 3.14432E-13
2.97478E-07 3.01892E-13
3.21752E-07 2.90339E-13
3.46978E-07 2.79115E-13
3.73156E-07 2.68553E-13
4.00286E-07 2.58542E-13
4.28368E-07 2.48904E-13
4.57402E-07 2.39936E-13
4.87388E-07 2.31287E-13
5.18325E-07 2.23107E-13
5.50215E-07 2.15327E-13
5.83057E-07 2.07864E-13
6.16850E-07 2.00814E-13
6.51596E-07 1.94045E-13
6.87293E-07 1.87587E-13
7.23942E-07 1.81414E-13
7.61543E-07 1.75499E-13
1.18991E-06 1.27849E-13
1.71347E-06 9.47811E-14
2.33223E-06 7.12172E-14
3.04617E-06 5.42817E-14
3.85531E-06 4.20252E-14
4.75964E-06 3.30439E-14
5.75916E-06 2.61585E-14
6.85388E-06 2.12740E-14
8.04378E-06 1.74529E-14
9.32888E-06 1.44405E-14
1.07092E-05 1.21602E-14
1.21846E-05 1.01998E-14
1.37553E-05 8.68539E-15
1.54212E-05 7.42557E-15
1.71822E-05 6.37913E-15
1.90385E-05 5.53308E-15
2.09899E-05 4.79851E-15
2.30365E-05 4.19923E-15
2.51783E-05 3.68499E-15
2.74153E-05 3.24542E-15
2.97475E-05 2.87702E-15
3.21749E-05 2.55128E-15
3.46974E-05 2.27695E-15
3.73152E-05 2.03756E-15
4.00281E-05 1.82936E-15
4.28362E-05 1.65011E-15
4.57395E-05 1.48918E-15
4.87380E-05 1.34989E-15
5.18317E-05 1.22558E-15
5.50205E-05 1.11527E-15
5.83045E-05 1.01822E-15
6.16838E-05 9.29876E-16
6.51582E-05 8.52067E-16
6.87277E-05 7.81642E-16
7.23925E-05 7.18323E-16
7.61524E-05 6.61752E-16
9.21439E-05 4.82180E-16
1.09658E-04 3.59216E-16
1.28695E-04 2.72661E-16
1.49255E-04 2.10432E-16
1.71338E-04 1.65209E-16
1.94942E-04 1.31611E-16
2.20070E-04 1.06213E-16
2.46720E-04 8.66956E-17
2.74892E-04 7.14860E-17
3.04586E-04 5.95108E-17
3.35803E-04 4.99629E-17
3.68542E-04 4.22702E-17
4.02802E-04 3.60099E-17
4.38585E-04 3.08656E-17
4.75889E-04 2.66098E-17
5.14715E-04 2.30491E-17
5.55063E-04 2.00907E-17
5.96931E-04 1.75867E-17
6.40321E-04 1.54613E-17
6.85233E-04 1.36587E-17
7.31665E-04 1.21002E-17
7.79618E-04 1.07667E-17
8.29092E-04 9.61003E-18
8.80086E-04 8.60515E-18
9.32601E-04 7.73231E-18
9.86636E-04 6.96307E-18
1.04219E-03 6.29077E-18
1.09927E-03 5.69648E-18
1.15786E-03 5.17092E-18
1.21797E-03 4.70621E-18
1.27961E-03 4.29044E-18
1.34276E-03 3.92118E-18
1.40743E-03 3.59009E-18
1.47362E-03 3.29326E-18
1.54133E-03 3.02717E-18
1.61056E-03 2.78637E-18
1.68131E-03 2.56979E-18
1.75357E-03 2.37347E-18
1.82735E-03 2.19559E-18
1.90265E-03 2.03438E-18
1.97947E-03 1.88720E-18
2.05780E-03 1.75348E-18
2.13765E-03 1.63120E-18
2.21902E-03 1.51945E-18
2.30190E-03 1.41727E-18
2.38630E-03 1.32332E-18
2.47222E-03 1.23723E-18
2.55965E-03 1.15794E-18
2.64859E-03 1.08494E-18
2.73905E-03 1.01770E-18
2.83103E-03 9.55493E-19
2.92452E-03 8.98090E-19
3.01952E-03 8.44890E-19
3.11604E-03 7.95606E-19
3.21407E-03 7.49921E-19
3.31362E-03 7.07427E-19
3.41468E-03 6.67974E-19
3.51725E-03 6.31214E-19
3.62133E-03 5.96975E-19
3.72692E-03 5.65063E-19
3.83403E-03 5.35232E-19
3.94265E-03 5.07393E-19
4.05278E-03 4.81331E-19
4.16442E-03 4.56941E-19
4.27757E-03 4.34101E-19
4.39223E-03 4.12657E-19
4.50840E-03 3.92553E-19
4.62608E-03 3.73653E-19
4.74527E-03 3.55892E-19
4.86597E-03 3.39190E-19
4.98817E-03 3.23449E-19
5.11188E-03 3.08632E-19
5.23711E-03 2.94651E-19
5.36383E-03 2.81463E-19
5.49207E-03 2.69016E-19
5.62181E-03 2.57244E-19
5.75306E-03 2.46126E-19
5.88581E-03 2.35598E-19
6.02007E-03 2.25635E-19
6.15583E-03 2.16202E-19
6.29310E-03 2.07253E-19
6.43187E-03 1.98775E-19
6.57214E-03 1.90723E-19
6.71392E-03 1.83080E-19
6.85720E-03 1.75822E-19
7.00198E-03 1.68919E-19
7.14827E-03 1.62360E-19
7.29605E-03 1.56114E-19
7.44534E-03 1.50170E-19
7.59612E-03 1.44511E-19
7.97965E-03 1.31494E-19
8.37255E-03 1.19923E-19
8.77480E-03 1.09608E-19
9.18641E-03 1.00391E-19
9.60736E-03 9.21316E-20
1.00376E-02 8.47139E-20
1.04773E-02 7.80363E-20
1.09262E-02 7.20116E-20
1.13844E-02 6.65645E-20
1.18520E-02 6.16295E-20
1.23288E-02 5.71499E-20
1.28150E-02 5.30758E-20
1.33104E-02 4.93638E-20
1.38150E-02 4.59760E-20
1.43290E-02 4.28787E-20
1.48521E-02 4.00425E-20
1.53845E-02 3.74412E-20
1.59262E-02 3.50518E-20
1.64770E-02 3.28539E-20
1.70371E-02 3.08291E-20
1.76063E-02 2.89614E-20
1.81848E-02 2.72362E-20
1.87724E-02 2.56405E-20
1.93692E-02 2.41629E-20
1.99751E-02 2.27930E-20
2.05901E-02 2.15213E-20
2.12143E-02 2.03395E-20
2.18476E-02 1.92400E-20
2.24900E-02 1.82159E-20
2.31415E-02 1.72612E-20
2.38021E-02 1.63701E-20
2.44717E-02 1.55377E-20
2.51504E-02 1.47592E-20
2.58382E-02 1.40305E-20
2.65349E-02 1.33479E-20
2.72407E-02 1.27077E-20
2.79555E-02 1.21069E-20
2.86793E-02 1.15425E-20
2.94120E-02 1.10120E-20
3.01537E-02 1.05127E-20
3.09043E-02 1.00426E-20
3.16639E-02 9.59962E-21
3.24324E-02 9.18182E-21
3.32098E-02 8.78750E-21
3.39961E-02 8.41508E-21
3.47912E-02 8.06308E-21
3.55952E-02 7.73016E-21
3.64081E-02 7.41507E-21
3.72297E-02 7.11666E-21
3.80602E-02 6.83386E-21
3.88995E-02 6.56568E-21
3.97476E-02 6.31121E-21
4.06044E-02 6.06960E-21
4.14700E-02 5.84007E-21
4.23443E-02 5.62188E-21
4.32273E-02 5.41435E-21
4.41190E-02 5.21685E-21
4.50194E-02 5.02880E-21
4.59284E-02 4.84964E-21
4.68461E-02 4.67886E-21
4.87074E-02 4.36056E-21
5.06030E-02 4.07049E-21
5.25328E-02 3.80562E-21
5.44967E-02 3.56330E-21
5.64946E-02 3.34118E-21
5.85262E-02 3.13726E-21
6.05914E-02 2.94971E-21
6.26901E-02 2.77696E-21
6.48222E-02 2.61756E-21
6.69873E-02 2.47026E-21
6.91854E-02 2.33395E-21
7.14163E-02 2.20763E-21
7.36799E-02 2.09040E-21
7.59760E-02 1.98145E-21
7.83043E-02 1.88008E-21
8.06647E-02 1.78563E-21
8.30571E-02 1.69753E-21
8.54812E-02 1.61525E-21
8.79369E-02 1.53832E-21
9.04240E-02 1.46630E-21
9.29422E-02 1.39882E-21
9.54915E-02 1.33552E-21
9.80716E-02 1.27606E-21
1.00682E-01 1.22018E-21
1.03323E-01 1.16760E-21
1.05995E-01 1.11808E-21
1.08696E-01 1.07139E-21
1.11427E-01 1.02734E-21
1.14188E-01 9.85735E-22
1.16978E-01 9.46414E-22
1.19797E-01 9.09215E-22
1.22645E-01 8.73996E-22
1.25522E-01 8.40625E-22
1.28428E-01 8.08982E-22
1.31361E-01 7.78952E-22
1.34323E-01 7.50432E-22
1.37313E-01 7.23328E-22
1.40330E-01 6.97551E-22
1.43375E-01 6.73020E-22
1.46447E-01 6.49655E-22
1.49545E-01 6.27391E-22
1.52671E-01 6.06160E-22
1.55823E-01 5.85901E-22
1.59001E-01 5.66559E-22
1.62205E-01 5.48080E-22
1.65435E-01 5.30416E-22
1.68690E-01 5.13521E-22
1.71970E-01 4.97352E-22
1.75276E-01 4.81870E-22
1.78606E-01 4.67039E-22
1.81961E-01 4.52821E-22
1.85340E-01 4.39186E-22
1.88743E-01 4.26103E-22
1.92169E-01 4.13544E-22
1.95619E-01 4.01481E-22
1.99092E-01 3.89889E-22
2.02589E-01 3.78746E-22
2.06107E-01 3.68028E-22
2.09649E-01 3.57715E-22
2.13212E-01 3.47787E-22
2.16797E-01 3.38226E-22
2.20404E-01 3.29014E-22
2.24032E-01 3.20135E-22
2.27680E-01 3.11574E-22
2.31350E-01 3.03315E-22
2.35040E-01 2.95346E-22
2.38751E-01 2.87653E-22
2.42481E-01 2.80223E-22
2.46231E-01 2.73046E-22
2.50000E-01 2.66109E-22
2.53788E-01 2.59403E-22
2.57595E-01 2.52918E-22
2.61421E-01 2.46645E-22
2.65264E-01 2.40573E-22
2.69126E-01 2.34696E-22
2.73005E-01 2.29005E-22
2.76901E-01 2.23492E-22
2.80814E-01 2.18150E-22
2.84744E-01 2.12973E-22
2.88691E-01 2.07953E-22
2.92653E-01 2.03084E-22
2.96632E-01 1.98362E-22
3.00625E-01 1.93779E-22
3.04634E-01 1.89331E-22
3.08658E-01 1.85013E-22
3.12697E-01 1.80819E-22
3.16749E-01 1.76745E-22
3.20816E-01 1.72787E-22
3.24896E-01 1.68940E-22
3.28990E-01 1.65200E-22
3.33097E-01 1.61563E-22
3.37216E-01 1.58027E-22
3.41348E-01 1.54586E-22
3.45492E-01 1.51238E-22
3.49647E-01 1.47980E-22
3.53814E-01 1.44807E-22
3.57992E-01 1.41719E-22
3.62181E-01 1.38711E-22
3.66381E-01 1.35781E-22
3.70590E-01 1.32926E-22
3.74810E-01 1.30144E-22
3.79039E-01 1.27433E-22
3.83277E-01 1.24789E-22
3.87524E-01 1.22212E-22
3.91780E-01 1.19698E-22
3.96044E-01 1.17246E-22
4.00316E-01 1.14854E-22
4.04596E-01 1.12520E-22
4.08882E-01 1.10242E-22
4.13176E-01 1.08018E-22
4.17476E-01 1.05847E-22
4.21783E-01 1.03727E-22
4.26095E-01 1.01656E-22
4.30413E-01 9.96337E-23
4.34737E-01 9.76579E-23
4.39065E-01 9.57273E-23
4.43398E-01 9.38408E-23
4.47736E-01 9.19968E-23
4.52077E-01 9.01942E-23
4.56422E-01 8.84320E-23
4.60770E-01 8.67087E-23
4.65122E-01 8.50234E-23
4.69476E-01 8.33750E-23
4.73832E-01 8.17625E-23
4.78190E-01 8.01849E-23
4.82550E-01 7.86412E-23
4.86912E-01 7.71306E-23
4.91274E-01 7.56519E-23
4.95637E-01 7.42046E-23
5.00000E-01 7.27877E-23
5.04363E-01 7.14003E-23
5.08726E-01 7.00418E-23
5.13088E-01 6.87113E-23
5.17450E-01 6.74081E-23
5.21810E-01 6.61316E-23
5.26168E-01 6.48810E-23
5.30524E-01 6.36558E-23
5.34878E-01 6.24550E-23
5.39230E-01 6.12783E-23
5.43578E-01 6.01251E-23
5.47923E-01 5.89947E-23
5.52264E-01 5.78865E-23
5.56602E-01 5.68001E-23
5.60935E-01 5.57350E-23
5.65263E-01 5.46904E-23
5.69587E-01 5.36660E-23
5.73905E-01 5.26613E-23
5.78217E-01 5.16759E-23
5.82524E-01 5.07093E-23
5.86824E-01 4.97611E-23
5.91118E-01 4.88307E-23
5.95404E-01 4.79179E-23
5.99684E-01 4.70221E-23
6.03956E-01 4.61430E-23
6.08220E-01 4.52803E-23
6.12476E-01 4.44335E-23
6.16723E-01 4.36024E-23
6.20961E-01 4.27865E-23
6.25190E-01 4.19856E-23
6.29410E-01 4.11992E-23
6.33619E-01 4.04270E-23
6.37819E-01 3.96689E-23
6.42008E-01 3.89244E-23
6.46186E-01 3.81933E-23
6.50353E-01 3.74753E-23
6.54508E-01 3.67700E-23
6.58652E-01 3.60774E-23
6.62784E-01 3.53969E-23
6.66903E-01 3.47285E-23
6.71010E-01 3.40719E-23
6.75104E-01 3.34268E-23
6.79184E-01 3.27930E-23
6.83251E-01 3.21703E-23
6.87303E-01 3.15584E-23
6.91342E-01 3.09572E-23
6.95366E-01 3.03663E-23
6.99375E-01 2.97857E-23
7.03368E-01 2.92151E-23
7.07347E-01 2.86543E-23
7.11309E-01 2.81031E-23
7.15256E-01 2.75613E-23
7.19186E-01 2.70289E-23
7.23099E-01 2.65054E-23
7.26995E-01 2.59909E-23
7.30874E-01 2.54852E-23
7.34736E-01 2.49880E-23
7.38579E-01 2.44992E-23
7.42405E-01 2.40187E-23
7.46212E-01 2.35464E-23
7.50000E-01 2.30819E-23
7.53769E-01 2.26253E-23
7.57519E-01 2.21764E-23
7.61249E-01 2.17350E-23
7.64960E-01 2.13010E-23
7.68650E-01 2.08743E-23
7.72320E-01 2.04548E-23
7.75968E-01 2.00423E-23
7.79596E-01 1.96367E-23
7.83203E-01 1.92378E-23
7.86788E-01 1.88457E-23
7.90351E-01 1.84601E-23
7.93893E-01 1.80810E-23
7.97411E-01 1.77082E-23
8.00908E-01 1.73416E-23
8.04381E-01 1.69812E-23
8.07831E-01 1.66268E-23
8.11257E-01 1.62783E-23
8.14660E-01 1.59357E-23
8.18039E-01 1.55988E-23
8.21394E-01 1.52676E-23
8.24724E-01 1.49420E-23
8.28030E-01 1.46218E-23
8.31310E-01 1.43070E-23
8.34565E-01 1.39976E-23
8.37795E-01 1.36933E-23
8.40999E-01 1.33943E-23
8.44177E-01 1.31003E-23
8.47329E-01 1.28113E-23
8.50455E-01 1.25272E-23
8.53553E-01 1.22480E-23
8.56625E-01 1.19735E-23
8.59670E-01 1.17038E-23
8.62687E-01 1.14387E-23
8.65677E-01 1.11782E-23
8.68639E-01 1.09222E-23
8.71572E-01 1.06707E-23
8.74478E-01 1.04235E-23
8.77355E-01 1.01807E-23
8.80203E-01 9.94217E-24
8.83022E-01 9.70784E-24
8.85812E-01 9.47768E-24
8.88573E-01 9.25162E-24
8.91304E-01 9.02961E-24
8.94005E-01 8.81160E-24
8.96677E-01 8.59753E-24
8.99318E-01 8.38737E-24
9.01928E-01 8.18105E-24
9.04508E-01 7.97853E-24
9.07058E-01 7.77977E-24
9.09576E-01 7.58472E-24
9.12063E-01 7.39334E-24
9.14519E-01 7.20557E-24
9.16943E-01 7.02138E-24
9.19335E-01 6.84074E-24
9.21696E-01 6.66359E-24
9.24024E-01 6.48989E-24
9.26320E-01 6.31962E-24
9.28584E-01 6.15273E-24
9.30815E-01 5.98918E-24
9.33013E-01 5.82894E-24
9.35178E-01 5.67198E-24
9.37310E-01 5.51825E-24
9.39409E-01 5.36773E-24
9.41474E-01 5.22039E-24
9.43505E-01 5.07619E-24
9.45503E-01 4.93510E-24
9.47467E-01 4.79709E-24
9.49397E-01 4.66213E-24
9.51293E-01 4.53020E-24
9.53154E-01 4.40126E-24
9.54981E-01 4.27529E-24
9.56773E-01 4.15226E-24
9.58530E-01 4.03215E-24
9.60252E-01 3.91493E-24
9.61940E-01 3.80057E-24
9.63592E-01 3.68906E-24
9.65209E-01 3.58037E-24
9.66790E-01 3.47447E-24
9.68336E-01 3.37135E-24
9.69846E-01 3.27099E-24
9.71321E-01 3.17336E-24
9.72759E-01 3.07844E-24
9.74162E-01 2.98622E-24
9.75528E-01 2.89667E-24
9.76858E-01 2.80978E-24
9.78152E-01 2.72553E-24
9.79410E-01 2.64390E-24
9.80631E-01 2.56488E-24
9.81815E-01 2.48845E-24
9.82963E-01 2.41460E-24
9.84074E-01 2.34331E-24
9.85148E-01 2.27456E-24
9.86185E-01 2.20835E-24
9.87185E-01 2.14465E-24
9.88148E-01 2.08347E-24
9.89074E-01 2.02477E-24
9.89962E-01 1.96856E-24
9.90814E-01 1.91483E-24
9.91627E-01 1.86355E-24
9.92404E-01 1.81473E-24
9.93143E-01 1.76835E-24
9.93844E-01 1.72440E-24
9.94508E-01 1.68287E-24
9.95134E-01 1.64376E-24
9.95722E-01 1.60706E-24
9.96273E-01 1.57276E-24
9.96786E-01 1.54086E-24
9.97261E-01 1.51134E-24
9.97698E-01 1.48421E-24
9.98097E-01 1.45945E-24
9.98459E-01 1.43706E-24
9.98782E-01 1.41705E-24
9.99067E-01 1.39939E-24
9.99315E-01 1.38410E-24
9.99524E-01 1.37117E-24
9.99695E-01 1.36059E-24
9.99829E-01 1.35236E-24
9.99924E-01 1.34649E-24
9.99981E-01 1.34296E-24
1.00000E+00 1.34179E-24
