 #
 # Subroutine ELSEPA. Elastic scattering of electrons and positrons
 #                    by neutral atoms and positive ions
 #
 # Projectile: electron
 # Kinetic energy = 3.00000E+07 eV = 1.10248E+06 a.u.
 #
 # WARNING: High-energy factorization with free-atom DF screening.
 #          Absorption, polarization and exchange corrections are
 #          switched off.
 #          Phase shifts are calculated for the bare nucleus.
 #          Scattering amplitudes are not evaluated.
 #
 # Element: Fr,  Z =  87,  atomic weight = 2.23020E+02 g/mol
 #
 # Nuclear model: Fermi distribution
 #                Average radius = 6.48881E-13 cm
 #                Skin thickness = 5.46000E-14 cm
 #
 # Number of electrons = 87
 #
 # Total elastic cross section = 1.04234E-17 cm**2 = 3.72226E-01 a0**2
 # 1st transport cross section = 1.54719E-23 cm**2 = 5.52510E-07 a0**2
 # 2nd transport cross section = 4.42907E-23 cm**2 = 1.58165E-06 a0**2
 #
 #
 # Differential cross section:                       MU=(1-COS(THETA))/2
 #
 #  THETA        MU          DCS          DCS        Sherman      error
 #  (deg)                 (cm**2/sr)   (a0**2/sr)    function
 #----------------------------------------------------------------------
0.00000E+00 1.16963E-10
7.61557E-13 1.16897E-10
1.18994E-12 1.16859E-10
1.71346E-12 1.16813E-10
2.33225E-12 1.16760E-10
3.04617E-12 1.16697E-10
3.85530E-12 1.16627E-10
4.75964E-12 1.16549E-10
5.75917E-12 1.16462E-10
6.85391E-12 1.16367E-10
8.04379E-12 1.16264E-10
9.32893E-12 1.16154E-10
1.07092E-11 1.16035E-10
1.21847E-11 1.15908E-10
1.37554E-11 1.15773E-10
1.54213E-11 1.15631E-10
1.71823E-11 1.15481E-10
1.90386E-11 1.15323E-10
2.09900E-11 1.15157E-10
2.30367E-11 1.14984E-10
2.51785E-11 1.14803E-10
2.74156E-11 1.14615E-10
2.97478E-11 1.14420E-10
3.21752E-11 1.14217E-10
3.46979E-11 1.14007E-10
3.73157E-11 1.13790E-10
4.00286E-11 1.13565E-10
4.28368E-11 1.13334E-10
4.57402E-11 1.13096E-10
4.87388E-11 1.12851E-10
5.18325E-11 1.12600E-10
5.50215E-11 1.12341E-10
5.83057E-11 1.12077E-10
6.16850E-11 1.11805E-10
6.51595E-11 1.11528E-10
6.87293E-11 1.11244E-10
7.23943E-11 1.10955E-10
7.61544E-11 1.10659E-10
1.18991E-10 1.07394E-10
1.71347E-10 1.03651E-10
2.33223E-10 9.95462E-11
3.04617E-10 9.52552E-11
3.85531E-10 9.07100E-11
4.75965E-10 8.62488E-11
5.75917E-10 8.17225E-11
6.85389E-10 7.73736E-11
8.04380E-10 7.31324E-11
9.32891E-10 6.90930E-11
1.07092E-09 6.52769E-11
1.21847E-09 6.16447E-11
1.37554E-09 5.82959E-11
1.54213E-09 5.50983E-11
1.71823E-09 5.21947E-11
1.90386E-09 4.94367E-11
2.09900E-09 4.69029E-11
2.30367E-09 4.45255E-11
2.51785E-09 4.23172E-11
2.74156E-09 4.02581E-11
2.97478E-09 3.83290E-11
3.21752E-09 3.65314E-11
3.46978E-09 3.48390E-11
3.73156E-09 3.32551E-11
4.00286E-09 3.17616E-11
4.28368E-09 3.03543E-11
4.57402E-09 2.90251E-11
4.87388E-09 2.77687E-11
5.18326E-09 2.65769E-11
5.50215E-09 2.54506E-11
5.83057E-09 2.43754E-11
6.16850E-09 2.33614E-11
6.51596E-09 2.23877E-11
6.87293E-09 2.14680E-11
7.23942E-09 2.05874E-11
7.61544E-09 1.97508E-11
1.18991E-08 1.32259E-11
1.71347E-08 9.10085E-12
2.33223E-08 6.45564E-12
3.04617E-08 4.67180E-12
3.85531E-08 3.53953E-12
4.75965E-08 2.69555E-12
5.75917E-08 2.11609E-12
6.85389E-08 1.67361E-12
8.04380E-08 1.34695E-12
9.32891E-08 1.09457E-12
1.07092E-07 8.98353E-13
1.21847E-07 7.45761E-13
1.37554E-07 6.22633E-13
1.54213E-07 5.26073E-13
1.71823E-07 4.46000E-13
1.90386E-07 3.81953E-13
2.09900E-07 3.28601E-13
2.30367E-07 2.84687E-13
2.51785E-07 2.47891E-13
2.74156E-07 2.16846E-13
2.97478E-07 1.90696E-13
3.21752E-07 1.68155E-13
3.46978E-07 1.49080E-13
3.73156E-07 1.32360E-13
4.00286E-07 1.18062E-13
4.28368E-07 1.05521E-13
4.57402E-07 9.46275E-14
4.87388E-07 8.50704E-14
5.18325E-07 7.66608E-14
5.50215E-07 6.92800E-14
5.83057E-07 6.27347E-14
6.16850E-07 5.69832E-14
6.51596E-07 5.17862E-14
6.87293E-07 4.71949E-14
7.23942E-07 4.30878E-14
7.61543E-07 3.94295E-14
1.18991E-06 1.79259E-14
1.71347E-06 9.32974E-15
2.33223E-06 5.33992E-15
3.04617E-06 3.27419E-15
3.85531E-06 2.11965E-15
4.75964E-06 1.43417E-15
5.75916E-06 1.00475E-15
6.85388E-06 7.24839E-16
8.04378E-06 5.35961E-16
9.32888E-06 4.04540E-16
1.07092E-05 3.11036E-16
1.21846E-05 2.42987E-16
1.37553E-05 1.92557E-16
1.54212E-05 1.54574E-16
1.71822E-05 1.25503E-16
1.90385E-05 1.02907E-16
2.09899E-05 8.53016E-17
2.30365E-05 7.12963E-17
2.51783E-05 6.00391E-17
2.74153E-05 5.09032E-17
2.97475E-05 4.34376E-17
3.21749E-05 3.72929E-17
3.46974E-05 3.22009E-17
3.73152E-05 2.79546E-17
4.00281E-05 2.43879E-17
4.28362E-05 2.13739E-17
4.57395E-05 1.88111E-17
4.87380E-05 1.66197E-17
5.18317E-05 1.47372E-17
5.50205E-05 1.31127E-17
5.83045E-05 1.17056E-17
6.16838E-05 1.04823E-17
6.51582E-05 9.41464E-18
6.87277E-05 8.47983E-18
7.23925E-05 7.65825E-18
7.61524E-05 6.93159E-18
9.21439E-05 4.76522E-18
1.09658E-04 3.38258E-18
1.28695E-04 2.46715E-18
1.49255E-04 1.84160E-18
1.71338E-04 1.40247E-18
1.94942E-04 1.08689E-18
2.20070E-04 8.55375E-19
2.46720E-04 6.82415E-19
2.74892E-04 5.51102E-19
3.04586E-04 4.49943E-19
3.35803E-04 3.71003E-19
3.68542E-04 3.08662E-19
4.02802E-04 2.58900E-19
4.38585E-04 2.18791E-19
4.75889E-04 1.86168E-19
5.14715E-04 1.59417E-19
5.55063E-04 1.37309E-19
5.96931E-04 1.18912E-19
6.40321E-04 1.03501E-19
6.85233E-04 9.05127E-20
7.31665E-04 7.95040E-20
7.79618E-04 7.01225E-20
8.29092E-04 6.20886E-20
8.80086E-04 5.51756E-20
9.32601E-04 4.92011E-20
9.86636E-04 4.40161E-20
1.04219E-03 3.94983E-20
1.09927E-03 3.55476E-20
1.15786E-03 3.20801E-20
1.21797E-03 2.90267E-20
1.27961E-03 2.63295E-20
1.34276E-03 2.39395E-20
1.40743E-03 2.18157E-20
1.47362E-03 1.99233E-20
1.54133E-03 1.82325E-20
1.61056E-03 1.67182E-20
1.68131E-03 1.53586E-20
1.75357E-03 1.41351E-20
1.82735E-03 1.30316E-20
1.90265E-03 1.20343E-20
1.97947E-03 1.11311E-20
2.05780E-03 1.03116E-20
2.13765E-03 9.56654E-21
2.21902E-03 8.88799E-21
2.30190E-03 8.26892E-21
2.38630E-03 7.70316E-21
2.47222E-03 7.18528E-21
2.55965E-03 6.71050E-21
2.64859E-03 6.27457E-21
2.73905E-03 5.87374E-21
2.83103E-03 5.50463E-21
2.92452E-03 5.16430E-21
3.01952E-03 4.85006E-21
3.11604E-03 4.55956E-21
3.21407E-03 4.29067E-21
3.31362E-03 4.04148E-21
3.41468E-03 3.81028E-21
3.51725E-03 3.59552E-21
3.62133E-03 3.39582E-21
3.72692E-03 3.20992E-21
3.83403E-03 3.03670E-21
3.94265E-03 2.87512E-21
4.05278E-03 2.72424E-21
4.16442E-03 2.58324E-21
4.27757E-03 2.45134E-21
4.39223E-03 2.32784E-21
4.50840E-03 2.21211E-21
4.62608E-03 2.10355E-21
4.74527E-03 2.00165E-21
4.86597E-03 1.90592E-21
4.98817E-03 1.81591E-21
5.11188E-03 1.73121E-21
5.23711E-03 1.65146E-21
5.36383E-03 1.57630E-21
5.49207E-03 1.50542E-21
5.62181E-03 1.43853E-21
5.75306E-03 1.37537E-21
5.88581E-03 1.31568E-21
6.02007E-03 1.25923E-21
6.15583E-03 1.20582E-21
6.29310E-03 1.15525E-21
6.43187E-03 1.10734E-21
6.57214E-03 1.06193E-21
6.71392E-03 1.01885E-21
6.85720E-03 9.77966E-22
7.00198E-03 9.39142E-22
7.14827E-03 9.02254E-22
7.29605E-03 8.67187E-22
7.44534E-03 8.33834E-22
7.59612E-03 8.02094E-22
7.97965E-03 7.29199E-22
8.37255E-03 6.64524E-22
8.77480E-03 6.06970E-22
9.18641E-03 5.55611E-22
9.60736E-03 5.09658E-22
1.00376E-02 4.68435E-22
1.04773E-02 4.31368E-22
1.09262E-02 3.97955E-22
1.13844E-02 3.67774E-22
1.18520E-02 3.40451E-22
1.23288E-02 3.15663E-22
1.28150E-02 2.93132E-22
1.33104E-02 2.72613E-22
1.38150E-02 2.53892E-22
1.43290E-02 2.36781E-22
1.48521E-02 2.21115E-22
1.53845E-02 2.06748E-22
1.59262E-02 1.93552E-22
1.64770E-02 1.81413E-22
1.70371E-02 1.70229E-22
1.76063E-02 1.59912E-22
1.81848E-02 1.50379E-22
1.87724E-02 1.41561E-22
1.93692E-02 1.33393E-22
1.99751E-02 1.25817E-22
2.05901E-02 1.18782E-22
2.12143E-02 1.12242E-22
2.18476E-02 1.06155E-22
2.24900E-02 1.00483E-22
2.31415E-02 9.51927E-23
2.38021E-02 9.02528E-23
2.44717E-02 8.56356E-23
2.51504E-02 8.13158E-23
2.58382E-02 7.72704E-23
2.65349E-02 7.34785E-23
2.72407E-02 6.99210E-23
2.79555E-02 6.65807E-23
2.86793E-02 6.34418E-23
2.94120E-02 6.04902E-23
3.01537E-02 5.77103E-23
3.09043E-02 5.50889E-23
3.16639E-02 5.26172E-23
3.24324E-02 5.02849E-23
3.32098E-02 4.80826E-23
3.39961E-02 4.60015E-23
3.47912E-02 4.40335E-23
3.55952E-02 4.21713E-23
3.64081E-02 4.04080E-23
3.72297E-02 3.87373E-23
3.80602E-02 3.71532E-23
3.88995E-02 3.56504E-23
3.97476E-02 3.42238E-23
4.06044E-02 3.28687E-23
4.14700E-02 3.15809E-23
4.23443E-02 3.03563E-23
4.32273E-02 2.91912E-23
4.41190E-02 2.80820E-23
4.50194E-02 2.70255E-23
4.59284E-02 2.60187E-23
4.68461E-02 2.50588E-23
4.87074E-02 2.32692E-23
5.06030E-02 2.16376E-23
5.25328E-02 2.01474E-23
5.44967E-02 1.87838E-23
5.64946E-02 1.75340E-23
5.85262E-02 1.63867E-23
6.05914E-02 1.53317E-23
6.26901E-02 1.43602E-23
6.48222E-02 1.34643E-23
6.69873E-02 1.26369E-23
6.91854E-02 1.18717E-23
7.14163E-02 1.11632E-23
7.36799E-02 1.05064E-23
7.59760E-02 9.89669E-24
7.83043E-02 9.33008E-24
8.06647E-02 8.80294E-24
8.30571E-02 8.31197E-24
8.54812E-02 7.85421E-24
8.79369E-02 7.42698E-24
9.04240E-02 7.02785E-24
9.29422E-02 6.65462E-24
9.54915E-02 6.30529E-24
9.80716E-02 5.97804E-24
1.00682E-01 5.67120E-24
1.03323E-01 5.38326E-24
1.05995E-01 5.11283E-24
1.08696E-01 4.85866E-24
1.11427E-01 4.61958E-24
1.14188E-01 4.39453E-24
1.16978E-01 4.18253E-24
1.19797E-01 3.98269E-24
1.22645E-01 3.79419E-24
1.25522E-01 3.61625E-24
1.28428E-01 3.44819E-24
1.31361E-01 3.28936E-24
1.34323E-01 3.13915E-24
1.37313E-01 2.99702E-24
1.40330E-01 2.86245E-24
1.43375E-01 2.73498E-24
1.46447E-01 2.61416E-24
1.49545E-01 2.49959E-24
1.52671E-01 2.39088E-24
1.55823E-01 2.28769E-24
1.59001E-01 2.18968E-24
1.62205E-01 2.09656E-24
1.65435E-01 2.00804E-24
1.68690E-01 1.92385E-24
1.71970E-01 1.84374E-24
1.75276E-01 1.76749E-24
1.78606E-01 1.69489E-24
1.81961E-01 1.62572E-24
1.85340E-01 1.55980E-24
1.88743E-01 1.49695E-24
1.92169E-01 1.43700E-24
1.95619E-01 1.37981E-24
1.99092E-01 1.32523E-24
2.02589E-01 1.27311E-24
2.06107E-01 1.22333E-24
2.09649E-01 1.17577E-24
2.13212E-01 1.13031E-24
2.16797E-01 1.08685E-24
2.20404E-01 1.04529E-24
2.24032E-01 1.00553E-24
2.27680E-01 9.67487E-25
2.31350E-01 9.31069E-25
2.35040E-01 8.96199E-25
2.38751E-01 8.62803E-25
2.42481E-01 8.30809E-25
2.46231E-01 8.00150E-25
2.50000E-01 7.70763E-25
2.53788E-01 7.42588E-25
2.57595E-01 7.15569E-25
2.61421E-01 6.89651E-25
2.65264E-01 6.64783E-25
2.69126E-01 6.40918E-25
2.73005E-01 6.18010E-25
2.76901E-01 5.96015E-25
2.80814E-01 5.74892E-25
2.84744E-01 5.54603E-25
2.88691E-01 5.35110E-25
2.92653E-01 5.16378E-25
2.96632E-01 4.98374E-25
3.00625E-01 4.81067E-25
3.04634E-01 4.64425E-25
3.08658E-01 4.48420E-25
3.12697E-01 4.33025E-25
3.16749E-01 4.18214E-25
3.20816E-01 4.03963E-25
3.24896E-01 3.90247E-25
3.28990E-01 3.77044E-25
3.33097E-01 3.64333E-25
3.37216E-01 3.52093E-25
3.41348E-01 3.40306E-25
3.45492E-01 3.28952E-25
3.49647E-01 3.18013E-25
3.53814E-01 3.07474E-25
3.57992E-01 2.97317E-25
3.62181E-01 2.87528E-25
3.66381E-01 2.78092E-25
3.70590E-01 2.68994E-25
3.74810E-01 2.60221E-25
3.79039E-01 2.51761E-25
3.83277E-01 2.43601E-25
3.87524E-01 2.35729E-25
3.91780E-01 2.28135E-25
3.96044E-01 2.20807E-25
4.00316E-01 2.13735E-25
4.04596E-01 2.06910E-25
4.08882E-01 2.00321E-25
4.13176E-01 1.93961E-25
4.17476E-01 1.87819E-25
4.21783E-01 1.81889E-25
4.26095E-01 1.76162E-25
4.30413E-01 1.70630E-25
4.34737E-01 1.65286E-25
4.39065E-01 1.60124E-25
4.43398E-01 1.55136E-25
4.47736E-01 1.50316E-25
4.52077E-01 1.45657E-25
4.56422E-01 1.41155E-25
4.60770E-01 1.36803E-25
4.65122E-01 1.32596E-25
4.69476E-01 1.28528E-25
4.73832E-01 1.24595E-25
4.78190E-01 1.20791E-25
4.82550E-01 1.17113E-25
4.86912E-01 1.13555E-25
4.91274E-01 1.10113E-25
4.95637E-01 1.06783E-25
5.00000E-01 1.03562E-25
5.04363E-01 1.00444E-25
5.08726E-01 9.74278E-26
5.13088E-01 9.45084E-26
5.17450E-01 9.16827E-26
5.21810E-01 8.89475E-26
5.26168E-01 8.62996E-26
5.30524E-01 8.37360E-26
5.34878E-01 8.12538E-26
5.39230E-01 7.88503E-26
5.43578E-01 7.65226E-26
5.47923E-01 7.42682E-26
5.52264E-01 7.20846E-26
5.56602E-01 6.99694E-26
5.60935E-01 6.79203E-26
5.65263E-01 6.59350E-26
5.69587E-01 6.40114E-26
5.73905E-01 6.21474E-26
5.78217E-01 6.03410E-26
5.82524E-01 5.85902E-26
5.86824E-01 5.68933E-26
5.91118E-01 5.52484E-26
5.95404E-01 5.36538E-26
5.99684E-01 5.21077E-26
6.03956E-01 5.06088E-26
6.08220E-01 4.91552E-26
6.12476E-01 4.77457E-26
6.16723E-01 4.63786E-26
6.20961E-01 4.50527E-26
6.25190E-01 4.37666E-26
6.29410E-01 4.25190E-26
6.33619E-01 4.13086E-26
6.37819E-01 4.01342E-26
6.42008E-01 3.89948E-26
6.46186E-01 3.78890E-26
6.50353E-01 3.68159E-26
6.54508E-01 3.57745E-26
6.58652E-01 3.47636E-26
6.62784E-01 3.37824E-26
6.66903E-01 3.28298E-26
6.71010E-01 3.19050E-26
6.75104E-01 3.10070E-26
6.79184E-01 3.01351E-26
6.83251E-01 2.92884E-26
6.87303E-01 2.84661E-26
6.91342E-01 2.76675E-26
6.95366E-01 2.68917E-26
6.99375E-01 2.61382E-26
7.03368E-01 2.54061E-26
7.07347E-01 2.46948E-26
7.11309E-01 2.40038E-26
7.15256E-01 2.33323E-26
7.19186E-01 2.26797E-26
7.23099E-01 2.20455E-26
7.26995E-01 2.14291E-26
7.30874E-01 2.08299E-26
7.34736E-01 2.02475E-26
7.38579E-01 1.96813E-26
7.42405E-01 1.91307E-26
7.46212E-01 1.85955E-26
7.50000E-01 1.80750E-26
7.53769E-01 1.75688E-26
7.57519E-01 1.70765E-26
7.61249E-01 1.65977E-26
7.64960E-01 1.61320E-26
7.68650E-01 1.56790E-26
7.72320E-01 1.52383E-26
7.75968E-01 1.48095E-26
7.79596E-01 1.43923E-26
7.83203E-01 1.39863E-26
7.86788E-01 1.35913E-26
7.90351E-01 1.32068E-26
7.93893E-01 1.28326E-26
7.97411E-01 1.24684E-26
8.00908E-01 1.21139E-26
8.04381E-01 1.17688E-26
8.07831E-01 1.14328E-26
8.11257E-01 1.11057E-26
8.14660E-01 1.07872E-26
8.18039E-01 1.04771E-26
8.21394E-01 1.01751E-26
8.24724E-01 9.88101E-27
8.28030E-01 9.59458E-27
8.31310E-01 9.31560E-27
8.34565E-01 9.04387E-27
8.37795E-01 8.77919E-27
8.40999E-01 8.52135E-27
8.44177E-01 8.27016E-27
8.47329E-01 8.02544E-27
8.50455E-01 7.78702E-27
8.53553E-01 7.55471E-27
8.56625E-01 7.32836E-27
8.59670E-01 7.10779E-27
8.62687E-01 6.89286E-27
8.65677E-01 6.68341E-27
8.68639E-01 6.47929E-27
8.71572E-01 6.28037E-27
8.74478E-01 6.08649E-27
8.77355E-01 5.89754E-27
8.80203E-01 5.71337E-27
8.83022E-01 5.53387E-27
8.85812E-01 5.35892E-27
8.88573E-01 5.18839E-27
8.91304E-01 5.02217E-27
8.94005E-01 4.86016E-27
8.96677E-01 4.70224E-27
8.99318E-01 4.54832E-27
9.01928E-01 4.39829E-27
9.04508E-01 4.25205E-27
9.07058E-01 4.10952E-27
9.09576E-01 3.97060E-27
9.12063E-01 3.83520E-27
9.14519E-01 3.70324E-27
9.16943E-01 3.57464E-27
9.19335E-01 3.44932E-27
9.21696E-01 3.32720E-27
9.24024E-01 3.20820E-27
9.26320E-01 3.09226E-27
9.28584E-01 2.97930E-27
9.30815E-01 2.86925E-27
9.33013E-01 2.76206E-27
9.35178E-01 2.65765E-27
9.37310E-01 2.55597E-27
9.39409E-01 2.45696E-27
9.41474E-01 2.36055E-27
9.43505E-01 2.26670E-27
9.45503E-01 2.17535E-27
9.47467E-01 2.08645E-27
9.49397E-01 1.99995E-27
9.51293E-01 1.91579E-27
9.53154E-01 1.83394E-27
9.54981E-01 1.75435E-27
9.56773E-01 1.67697E-27
9.58530E-01 1.60176E-27
9.60252E-01 1.52869E-27
9.61940E-01 1.45770E-27
9.63592E-01 1.38877E-27
9.65209E-01 1.32185E-27
9.66790E-01 1.25691E-27
9.68336E-01 1.19393E-27
9.69846E-01 1.13285E-27
9.71321E-01 1.07366E-27
9.72759E-01 1.01631E-27
9.74162E-01 9.60793E-28
9.75528E-01 9.07066E-28
9.76858E-01 8.55104E-28
9.78152E-01 8.04882E-28
9.79410E-01 7.56374E-28
9.80631E-01 7.09556E-28
9.81815E-01 6.64404E-28
9.82963E-01 6.20895E-28
9.84074E-01 5.79010E-28
9.85148E-01 5.38726E-28
9.86185E-01 5.00024E-28
9.87185E-01 4.62886E-28
9.88148E-01 4.27292E-28
9.89074E-01 3.93226E-28
9.89962E-01 3.60672E-28
9.90814E-01 3.29614E-28
9.91627E-01 3.00037E-28
9.92404E-01 2.71926E-28
9.93143E-01 2.45269E-28
9.93844E-01 2.20053E-28
9.94508E-01 1.96266E-28
9.95134E-01 1.73897E-28
9.95722E-01 1.52935E-28
9.96273E-01 1.33371E-28
9.96786E-01 1.15194E-28
9.97261E-01 9.83983E-29
9.97698E-01 8.29742E-29
9.98097E-01 6.89151E-29
9.98459E-01 5.62144E-29
9.98782E-01 4.48662E-29
9.99067E-01 3.48654E-29
9.99315E-01 2.62073E-29
9.99524E-01 1.88879E-29
9.99695E-01 1.29040E-29
9.99829E-01 8.25259E-30
9.99924E-01 4.93171E-30
9.99981E-01 2.93978E-30
1.00000E+00 2.27591E-30
