 #
 # Subroutine ELSEPA. Elastic scattering of electrons and positrons
 #                    by neutral atoms and positive ions
 #
 # Projectile: electron
 # Kinetic energy = 2.00000E+06 eV = 7.34987E+04 a.u.
 #
 # WARNING: High-energy factorization with free-atom DF screening.
 #          Absorption, polarization and exchange corrections are
 #          switched off.
 #          Phase shifts are calculated for the bare nucleus.
 #          Scattering amplitudes are not evaluated.
 #
 # Element: Fr,  Z =  87,  atomic weight = 2.23020E+02 g/mol
 #
 # Nuclear model: Fermi distribution
 #                Average radius = 6.48881E-13 cm
 #                Skin thickness = 5.46000E-14 cm
 #
 # Number of electrons = 87
 #
 # Total elastic cross section = 1.08953E-17 cm**2 = 3.89077E-01 a0**2
 # 1st transport cross section = 1.94282E-21 cm**2 = 6.93792E-05 a0**2
 # 2nd transport cross section = 5.01261E-21 cm**2 = 1.79004E-04 a0**2
 #
 #
 # Differential cross section:                       MU=(1-COS(THETA))/2
 #
 #  THETA        MU          DCS          DCS        Sherman      error
 #  (deg)                 (cm**2/sr)   (a0**2/sr)    function
 #----------------------------------------------------------------------
0.00000E+00 7.92191E-13
7.61557E-13 7.92189E-13
1.18994E-12 7.92187E-13
1.71346E-12 7.92185E-13
2.33225E-12 7.92183E-13
3.04617E-12 7.92180E-13
3.85530E-12 7.92177E-13
4.75964E-12 7.92174E-13
5.75917E-12 7.92170E-13
6.85391E-12 7.92166E-13
8.04379E-12 7.92161E-13
9.32893E-12 7.92156E-13
1.07092E-11 7.92151E-13
1.21847E-11 7.92146E-13
1.37554E-11 7.92140E-13
1.54213E-11 7.92133E-13
1.71823E-11 7.92127E-13
1.90386E-11 7.92120E-13
2.09900E-11 7.92112E-13
2.30367E-11 7.92104E-13
2.51785E-11 7.92096E-13
2.74156E-11 7.92088E-13
2.97478E-11 7.92079E-13
3.21752E-11 7.92070E-13
3.46979E-11 7.92060E-13
3.73157E-11 7.92050E-13
4.00286E-11 7.92040E-13
4.28368E-11 7.92029E-13
4.57402E-11 7.92018E-13
4.87388E-11 7.92007E-13
5.18325E-11 7.91995E-13
5.50215E-11 7.91983E-13
5.83057E-11 7.91970E-13
6.16850E-11 7.91957E-13
6.51595E-11 7.91944E-13
6.87293E-11 7.91930E-13
7.23943E-11 7.91916E-13
7.61544E-11 7.91902E-13
1.18991E-10 7.91739E-13
1.71347E-10 7.91539E-13
2.33223E-10 7.91302E-13
3.04617E-10 7.91030E-13
3.85531E-10 7.90721E-13
4.75965E-10 7.90376E-13
5.75917E-10 7.89995E-13
6.85389E-10 7.89578E-13
8.04380E-10 7.89126E-13
9.32891E-10 7.88637E-13
1.07092E-09 7.88113E-13
1.21847E-09 7.87554E-13
1.37554E-09 7.86959E-13
1.54213E-09 7.86329E-13
1.71823E-09 7.85664E-13
1.90386E-09 7.84964E-13
2.09900E-09 7.84230E-13
2.30367E-09 7.83461E-13
2.51785E-09 7.82658E-13
2.74156E-09 7.81820E-13
2.97478E-09 7.80949E-13
3.21752E-09 7.80045E-13
3.46978E-09 7.79107E-13
3.73156E-09 7.78136E-13
4.00286E-09 7.77131E-13
4.28368E-09 7.76095E-13
4.57402E-09 7.75025E-13
4.87388E-09 7.73925E-13
5.18326E-09 7.72791E-13
5.50215E-09 7.71627E-13
5.83057E-09 7.70431E-13
6.16850E-09 7.69204E-13
6.51596E-09 7.67947E-13
6.87293E-09 7.66658E-13
7.23942E-09 7.65341E-13
7.61544E-09 7.63992E-13
1.18991E-08 7.48956E-13
1.71347E-08 7.31336E-13
2.33223E-08 7.11528E-13
3.04617E-08 6.89943E-13
3.85531E-08 6.67047E-13
4.75965E-08 6.43505E-13
5.75917E-08 6.18738E-13
6.85389E-08 5.94354E-13
8.04380E-08 5.69552E-13
9.32891E-08 5.45347E-13
1.07092E-07 5.21572E-13
1.21847E-07 4.98367E-13
1.37554E-07 4.76278E-13
1.54213E-07 4.54614E-13
1.71823E-07 4.34524E-13
1.90386E-07 4.14805E-13
2.09900E-07 3.96664E-13
2.30367E-07 3.79092E-13
2.51785E-07 3.62697E-13
2.74156E-07 3.47121E-13
2.97478E-07 3.32400E-13
3.21752E-07 3.18600E-13
3.46978E-07 3.05428E-13
3.73156E-07 2.93168E-13
4.00286E-07 2.81399E-13
4.28368E-07 2.70445E-13
4.57402E-07 2.59960E-13
4.87388E-07 2.50072E-13
5.18325E-07 2.40668E-13
5.50215E-07 2.31729E-13
5.83057E-07 2.23235E-13
6.16850E-07 2.15134E-13
6.51596E-07 2.07412E-13
6.87293E-07 2.00053E-13
7.23942E-07 1.92993E-13
7.61543E-07 1.86273E-13
1.18991E-06 1.32257E-13
1.71347E-06 9.56263E-14
2.33223E-06 7.03300E-14
3.04617E-06 5.27371E-14
3.85531E-06 4.02878E-14
4.75964E-06 3.11399E-14
5.75916E-06 2.48743E-14
6.85388E-06 1.99233E-14
8.04378E-06 1.62833E-14
9.32888E-06 1.34045E-14
1.07092E-05 1.11456E-14
1.21846E-05 9.36237E-15
1.37553E-05 7.89345E-15
1.54212E-05 6.73475E-15
1.71822E-05 5.74862E-15
1.90385E-05 4.95987E-15
2.09899E-05 4.28948E-15
2.30365E-05 3.74054E-15
2.51783E-05 3.27153E-15
2.74153E-05 2.87613E-15
2.97475E-05 2.53974E-15
3.21749E-05 2.25032E-15
3.46974E-05 2.00454E-15
3.73152E-05 1.78904E-15
4.00281E-05 1.60570E-15
4.28362E-05 1.44204E-15
4.57395E-05 1.30117E-15
4.87380E-05 1.17562E-15
5.18317E-05 1.06550E-15
5.50205E-05 9.67635E-16
5.83045E-05 8.80480E-16
6.16838E-05 8.03278E-16
6.51582E-05 7.33621E-16
6.87277E-05 6.72049E-16
7.23925E-05 6.15868E-16
7.61524E-05 5.65990E-16
9.21439E-05 4.09357E-16
1.09658E-04 3.02673E-16
1.28695E-04 2.28689E-16
1.49255E-04 1.76243E-16
1.71338E-04 1.38119E-16
1.94942E-04 1.09821E-16
2.20070E-04 8.84668E-17
2.46720E-04 7.21109E-17
2.74892E-04 5.94055E-17
3.04586E-04 4.93908E-17
3.35803E-04 4.14062E-17
3.68542E-04 3.49753E-17
4.02802E-04 2.97279E-17
4.38585E-04 2.54537E-17
4.75889E-04 2.19263E-17
5.14715E-04 1.89850E-17
5.55063E-04 1.65334E-17
5.96931E-04 1.44555E-17
6.40321E-04 1.27072E-17
6.85233E-04 1.12057E-17
7.31665E-04 9.92780E-18
7.79618E-04 8.82369E-18
8.29092E-04 7.87158E-18
8.80086E-04 7.04435E-18
9.32601E-04 6.32275E-18
9.86636E-04 5.69266E-18
1.04219E-03 5.13748E-18
1.09927E-03 4.65047E-18
1.15786E-03 4.21762E-18
1.21797E-03 3.83561E-18
1.27961E-03 3.49472E-18
1.34276E-03 3.19150E-18
1.40743E-03 2.92021E-18
1.47362E-03 2.67713E-18
1.54133E-03 2.45902E-18
1.61056E-03 2.26234E-18
1.68131E-03 2.08536E-18
1.75357E-03 1.92491E-18
1.82735E-03 1.78000E-18
1.90265E-03 1.64818E-18
1.97947E-03 1.52856E-18
2.05780E-03 1.41952E-18
2.13765E-03 1.32010E-18
2.21902E-03 1.22928E-18
2.30190E-03 1.14611E-18
2.38630E-03 1.06998E-18
2.47222E-03 9.99978E-19
2.55965E-03 9.35748E-19
2.64859E-03 8.76514E-19
2.73905E-03 8.21996E-19
2.83103E-03 7.71628E-19
2.92452E-03 7.25106E-19
3.01952E-03 6.82055E-19
3.11604E-03 6.42163E-19
3.21407E-03 6.05187E-19
3.31362E-03 5.70821E-19
3.41468E-03 5.38916E-19
3.51725E-03 5.09178E-19
3.62133E-03 4.81511E-19
3.72692E-03 4.55690E-19
3.83403E-03 4.31602E-19
3.94265E-03 4.09091E-19
4.05278E-03 3.88037E-19
4.16442E-03 3.68337E-19
4.27757E-03 3.49870E-19
4.39223E-03 3.32569E-19
4.50840E-03 3.16313E-19
4.62608E-03 3.01062E-19
4.74527E-03 2.86712E-19
4.86597E-03 2.73221E-19
4.98817E-03 2.60517E-19
5.11188E-03 2.48549E-19
5.23711E-03 2.37267E-19
5.36383E-03 2.26618E-19
5.49207E-03 2.16571E-19
5.62181E-03 2.07070E-19
5.75306E-03 1.98097E-19
5.88581E-03 1.89600E-19
6.02007E-03 1.81563E-19
6.15583E-03 1.73948E-19
6.29310E-03 1.66731E-19
6.43187E-03 1.59889E-19
6.57214E-03 1.53395E-19
6.71392E-03 1.47233E-19
6.85720E-03 1.41376E-19
7.00198E-03 1.35814E-19
7.14827E-03 1.30520E-19
7.29605E-03 1.25488E-19
7.44534E-03 1.20695E-19
7.59612E-03 1.16133E-19
7.97965E-03 1.05642E-19
8.37255E-03 9.63207E-20
8.77480E-03 8.80130E-20
9.18641E-03 8.05908E-20
9.60736E-03 7.39427E-20
1.00376E-02 6.79737E-20
1.04773E-02 6.26020E-20
1.09262E-02 5.77571E-20
1.13844E-02 5.33779E-20
1.18520E-02 4.94117E-20
1.23288E-02 4.58122E-20
1.28150E-02 4.25394E-20
1.33104E-02 3.95583E-20
1.38150E-02 3.68382E-20
1.43290E-02 3.43520E-20
1.48521E-02 3.20759E-20
1.53845E-02 2.99888E-20
1.59262E-02 2.80722E-20
1.64770E-02 2.63094E-20
1.70371E-02 2.46858E-20
1.76063E-02 2.31883E-20
1.81848E-02 2.18053E-20
1.87724E-02 2.05264E-20
1.93692E-02 1.93423E-20
1.99751E-02 1.82446E-20
2.05901E-02 1.72258E-20
2.12143E-02 1.62791E-20
2.18476E-02 1.53984E-20
2.24900E-02 1.45782E-20
2.31415E-02 1.38136E-20
2.38021E-02 1.31001E-20
2.44717E-02 1.24335E-20
2.51504E-02 1.18103E-20
2.58382E-02 1.12269E-20
2.65349E-02 1.06804E-20
2.72407E-02 1.01680E-20
2.79555E-02 9.68709E-21
2.86793E-02 9.23536E-21
2.94120E-02 8.81069E-21
3.01537E-02 8.41113E-21
3.09043E-02 8.03490E-21
3.16639E-02 7.68036E-21
3.24324E-02 7.34601E-21
3.32098E-02 7.03046E-21
3.39961E-02 6.73244E-21
3.47912E-02 6.45077E-21
3.55952E-02 6.18437E-21
3.64081E-02 5.93223E-21
3.72297E-02 5.69345E-21
3.80602E-02 5.46715E-21
3.88995E-02 5.25254E-21
3.97476E-02 5.04896E-21
4.06044E-02 4.85561E-21
4.14700E-02 4.67197E-21
4.23443E-02 4.49737E-21
4.32273E-02 4.33132E-21
4.41190E-02 4.17330E-21
4.50194E-02 4.02283E-21
4.59284E-02 3.87949E-21
4.68461E-02 3.74283E-21
4.87074E-02 3.48817E-21
5.06030E-02 3.25607E-21
5.25328E-02 3.04413E-21
5.44967E-02 2.85024E-21
5.64946E-02 2.67251E-21
5.85262E-02 2.50934E-21
6.05914E-02 2.35927E-21
6.26901E-02 2.22103E-21
6.48222E-02 2.09348E-21
6.69873E-02 1.97561E-21
6.91854E-02 1.86654E-21
7.14163E-02 1.76545E-21
7.36799E-02 1.67164E-21
7.59760E-02 1.58446E-21
7.83043E-02 1.50333E-21
8.06647E-02 1.42776E-21
8.30571E-02 1.35725E-21
8.54812E-02 1.29141E-21
8.79369E-02 1.22984E-21
9.04240E-02 1.17221E-21
9.29422E-02 1.11821E-21
9.54915E-02 1.06754E-21
9.80716E-02 1.01997E-21
1.00682E-01 9.75250E-22
1.03323E-01 9.33171E-22
1.05995E-01 8.93541E-22
1.08696E-01 8.56181E-22
1.11427E-01 8.20929E-22
1.14188E-01 7.87638E-22
1.16978E-01 7.56172E-22
1.19797E-01 7.26405E-22
1.22645E-01 6.98223E-22
1.25522E-01 6.71520E-22
1.28428E-01 6.46200E-22
1.31361E-01 6.22170E-22
1.34323E-01 5.99350E-22
1.37313E-01 5.77663E-22
1.40330E-01 5.57038E-22
1.43375E-01 5.37409E-22
1.46447E-01 5.18717E-22
1.49545E-01 5.00903E-22
1.52671E-01 4.83917E-22
1.55823E-01 4.67709E-22
1.59001E-01 4.52235E-22
1.62205E-01 4.37452E-22
1.65435E-01 4.23321E-22
1.68690E-01 4.09806E-22
1.71970E-01 3.96872E-22
1.75276E-01 3.84488E-22
1.78606E-01 3.72625E-22
1.81961E-01 3.61253E-22
1.85340E-01 3.50347E-22
1.88743E-01 3.39884E-22
1.92169E-01 3.29839E-22
1.95619E-01 3.20191E-22
1.99092E-01 3.10922E-22
2.02589E-01 3.02010E-22
2.06107E-01 2.93440E-22
2.09649E-01 2.85193E-22
2.13212E-01 2.77255E-22
2.16797E-01 2.69610E-22
2.20404E-01 2.62246E-22
2.24032E-01 2.55147E-22
2.27680E-01 2.48303E-22
2.31350E-01 2.41701E-22
2.35040E-01 2.35330E-22
2.38751E-01 2.29180E-22
2.42481E-01 2.23242E-22
2.46231E-01 2.17505E-22
2.50000E-01 2.11961E-22
2.53788E-01 2.06602E-22
2.57595E-01 2.01420E-22
2.61421E-01 1.96406E-22
2.65264E-01 1.91555E-22
2.69126E-01 1.86859E-22
2.73005E-01 1.82311E-22
2.76901E-01 1.77907E-22
2.80814E-01 1.73639E-22
2.84744E-01 1.69503E-22
2.88691E-01 1.65493E-22
2.92653E-01 1.61605E-22
2.96632E-01 1.57832E-22
3.00625E-01 1.54172E-22
3.04634E-01 1.50620E-22
3.08658E-01 1.47171E-22
3.12697E-01 1.43822E-22
3.16749E-01 1.40569E-22
3.20816E-01 1.37408E-22
3.24896E-01 1.34336E-22
3.28990E-01 1.31350E-22
3.33097E-01 1.28447E-22
3.37216E-01 1.25624E-22
3.41348E-01 1.22877E-22
3.45492E-01 1.20205E-22
3.49647E-01 1.17604E-22
3.53814E-01 1.15072E-22
3.57992E-01 1.12608E-22
3.62181E-01 1.10207E-22
3.66381E-01 1.07869E-22
3.70590E-01 1.05591E-22
3.74810E-01 1.03371E-22
3.79039E-01 1.01208E-22
3.83277E-01 9.90990E-23
3.87524E-01 9.70428E-23
3.91780E-01 9.50376E-23
3.96044E-01 9.30817E-23
4.00316E-01 9.11737E-23
4.04596E-01 8.93118E-23
4.08882E-01 8.74949E-23
4.13176E-01 8.57215E-23
4.17476E-01 8.39901E-23
4.21783E-01 8.22996E-23
4.26095E-01 8.06488E-23
4.30413E-01 7.90362E-23
4.34737E-01 7.74610E-23
4.39065E-01 7.59219E-23
4.43398E-01 7.44180E-23
4.47736E-01 7.29482E-23
4.52077E-01 7.15115E-23
4.56422E-01 7.01068E-23
4.60770E-01 6.87334E-23
4.65122E-01 6.73903E-23
4.69476E-01 6.60768E-23
4.73832E-01 6.47919E-23
4.78190E-01 6.35349E-23
4.82550E-01 6.23049E-23
4.86912E-01 6.11014E-23
4.91274E-01 5.99234E-23
4.95637E-01 5.87705E-23
5.00000E-01 5.76418E-23
5.04363E-01 5.65367E-23
5.08726E-01 5.54547E-23
5.13088E-01 5.43950E-23
5.17450E-01 5.33572E-23
5.21810E-01 5.23406E-23
5.26168E-01 5.13448E-23
5.30524E-01 5.03691E-23
5.34878E-01 4.94131E-23
5.39230E-01 4.84763E-23
5.43578E-01 4.75582E-23
5.47923E-01 4.66582E-23
5.52264E-01 4.57761E-23
5.56602E-01 4.49113E-23
5.60935E-01 4.40635E-23
5.65263E-01 4.32321E-23
5.69587E-01 4.24169E-23
5.73905E-01 4.16174E-23
5.78217E-01 4.08332E-23
5.82524E-01 4.00640E-23
5.86824E-01 3.93095E-23
5.91118E-01 3.85693E-23
5.95404E-01 3.78430E-23
5.99684E-01 3.71303E-23
6.03956E-01 3.64310E-23
6.08220E-01 3.57447E-23
6.12476E-01 3.50712E-23
6.16723E-01 3.44101E-23
6.20961E-01 3.37611E-23
6.25190E-01 3.31241E-23
6.29410E-01 3.24987E-23
6.33619E-01 3.18846E-23
6.37819E-01 3.12818E-23
6.42008E-01 3.06898E-23
6.46186E-01 3.01084E-23
6.50353E-01 2.95375E-23
6.54508E-01 2.89768E-23
6.58652E-01 2.84261E-23
6.62784E-01 2.78852E-23
6.66903E-01 2.73539E-23
6.71010E-01 2.68320E-23
6.75104E-01 2.63192E-23
6.79184E-01 2.58155E-23
6.83251E-01 2.53205E-23
6.87303E-01 2.48343E-23
6.91342E-01 2.43564E-23
6.95366E-01 2.38869E-23
6.99375E-01 2.34255E-23
7.03368E-01 2.29721E-23
7.07347E-01 2.25265E-23
7.11309E-01 2.20885E-23
7.15256E-01 2.16581E-23
7.19186E-01 2.12351E-23
7.23099E-01 2.08193E-23
7.26995E-01 2.04105E-23
7.30874E-01 2.00088E-23
7.34736E-01 1.96138E-23
7.38579E-01 1.92256E-23
7.42405E-01 1.88440E-23
7.46212E-01 1.84688E-23
7.50000E-01 1.80999E-23
7.53769E-01 1.77373E-23
7.57519E-01 1.73808E-23
7.61249E-01 1.70303E-23
7.64960E-01 1.66857E-23
7.68650E-01 1.63469E-23
7.72320E-01 1.60138E-23
7.75968E-01 1.56863E-23
7.79596E-01 1.53642E-23
7.83203E-01 1.50476E-23
7.86788E-01 1.47363E-23
7.90351E-01 1.44302E-23
7.93893E-01 1.41292E-23
7.97411E-01 1.38333E-23
8.00908E-01 1.35423E-23
8.04381E-01 1.32562E-23
8.07831E-01 1.29750E-23
8.11257E-01 1.26984E-23
8.14660E-01 1.24265E-23
8.18039E-01 1.21591E-23
8.21394E-01 1.18963E-23
8.24724E-01 1.16379E-23
8.28030E-01 1.13838E-23
8.31310E-01 1.11340E-23
8.34565E-01 1.08885E-23
8.37795E-01 1.06471E-23
8.40999E-01 1.04098E-23
8.44177E-01 1.01765E-23
8.47329E-01 9.94720E-24
8.50455E-01 9.72183E-24
8.53553E-01 9.50031E-24
8.56625E-01 9.28259E-24
8.59670E-01 9.06862E-24
8.62687E-01 8.85833E-24
8.65677E-01 8.65169E-24
8.68639E-01 8.44864E-24
8.71572E-01 8.24912E-24
8.74478E-01 8.05310E-24
8.77355E-01 7.86051E-24
8.80203E-01 7.67132E-24
8.83022E-01 7.48548E-24
8.85812E-01 7.30294E-24
8.88573E-01 7.12367E-24
8.91304E-01 6.94761E-24
8.94005E-01 6.77472E-24
8.96677E-01 6.60497E-24
8.99318E-01 6.43832E-24
9.01928E-01 6.27472E-24
9.04508E-01 6.11414E-24
9.07058E-01 5.95654E-24
9.09576E-01 5.80189E-24
9.12063E-01 5.65015E-24
9.14519E-01 5.50128E-24
9.16943E-01 5.35525E-24
9.19335E-01 5.21203E-24
9.21696E-01 5.07158E-24
9.24024E-01 4.93388E-24
9.26320E-01 4.79890E-24
9.28584E-01 4.66659E-24
9.30815E-01 4.53695E-24
9.33013E-01 4.40992E-24
9.35178E-01 4.28550E-24
9.37310E-01 4.16364E-24
9.39409E-01 4.04433E-24
9.41474E-01 3.92754E-24
9.43505E-01 3.81324E-24
9.45503E-01 3.70141E-24
9.47467E-01 3.59202E-24
9.49397E-01 3.48506E-24
9.51293E-01 3.38049E-24
9.53154E-01 3.27830E-24
9.54981E-01 3.17846E-24
9.56773E-01 3.08096E-24
9.58530E-01 2.98577E-24
9.60252E-01 2.89287E-24
9.61940E-01 2.80224E-24
9.63592E-01 2.71387E-24
9.65209E-01 2.62773E-24
9.66790E-01 2.54382E-24
9.68336E-01 2.46210E-24
9.69846E-01 2.38257E-24
9.71321E-01 2.30520E-24
9.72759E-01 2.22999E-24
9.74162E-01 2.15691E-24
9.75528E-01 2.08595E-24
9.76858E-01 2.01710E-24
9.78152E-01 1.95034E-24
9.79410E-01 1.88566E-24
9.80631E-01 1.82305E-24
9.81815E-01 1.76249E-24
9.82963E-01 1.70398E-24
9.84074E-01 1.64749E-24
9.85148E-01 1.59302E-24
9.86185E-01 1.54056E-24
9.87185E-01 1.49009E-24
9.88148E-01 1.44161E-24
9.89074E-01 1.39511E-24
9.89962E-01 1.35058E-24
9.90814E-01 1.30801E-24
9.91627E-01 1.26738E-24
9.92404E-01 1.22870E-24
9.93143E-01 1.19195E-24
9.93844E-01 1.15713E-24
9.94508E-01 1.12424E-24
9.95134E-01 1.09325E-24
9.95722E-01 1.06418E-24
9.96273E-01 1.03700E-24
9.96786E-01 1.01173E-24
9.97261E-01 9.88342E-25
9.97698E-01 9.66845E-25
9.98097E-01 9.47232E-25
9.98459E-01 9.29498E-25
9.98782E-01 9.13640E-25
9.99067E-01 8.99655E-25
9.99315E-01 8.87540E-25
9.99524E-01 8.77293E-25
9.99695E-01 8.68912E-25
9.99829E-01 8.62395E-25
9.99924E-01 8.57741E-25
9.99981E-01 8.54949E-25
1.00000E+00 8.54018E-25
