 #
 # Subroutine ELSEPA. Elastic scattering of electrons and positrons
 #                    by neutral atoms and positive ions
 #
 # Projectile: electron
 # Kinetic energy = 6.00000E+06 eV = 2.20496E+05 a.u.
 #
 # WARNING: High-energy factorization with free-atom DF screening.
 #          Absorption, polarization and exchange corrections are
 #          switched off.
 #          Phase shifts are calculated for the bare nucleus.
 #          Scattering amplitudes are not evaluated.
 #
 # Element: Fr,  Z =  87,  atomic weight = 2.23020E+02 g/mol
 #
 # Nuclear model: Fermi distribution
 #                Average radius = 6.48881E-13 cm
 #                Skin thickness = 5.46000E-14 cm
 #
 # Number of electrons = 87
 #
 # Total elastic cross section = 1.04959E-17 cm**2 = 3.74816E-01 a0**2
 # 1st transport cross section = 3.10463E-22 cm**2 = 1.10868E-05 a0**2
 # 2nd transport cross section = 8.28040E-22 cm**2 = 2.95698E-05 a0**2
 #
 #
 # Differential cross section:                       MU=(1-COS(THETA))/2
 #
 #  THETA        MU          DCS          DCS        Sherman      error
 #  (deg)                 (cm**2/sr)   (a0**2/sr)    function
 #----------------------------------------------------------------------
0.00000E+00 5.32638E-12
7.61557E-13 5.32624E-12
1.18994E-12 5.32617E-12
1.71346E-12 5.32607E-12
2.33225E-12 5.32596E-12
3.04617E-12 5.32583E-12
3.85530E-12 5.32569E-12
4.75964E-12 5.32552E-12
5.75917E-12 5.32534E-12
6.85391E-12 5.32515E-12
8.04379E-12 5.32493E-12
9.32893E-12 5.32470E-12
1.07092E-11 5.32445E-12
1.21847E-11 5.32419E-12
1.37554E-11 5.32390E-12
1.54213E-11 5.32360E-12
1.71823E-11 5.32329E-12
1.90386E-11 5.32295E-12
2.09900E-11 5.32260E-12
2.30367E-11 5.32224E-12
2.51785E-11 5.32185E-12
2.74156E-11 5.32145E-12
2.97478E-11 5.32103E-12
3.21752E-11 5.32059E-12
3.46979E-11 5.32014E-12
3.73157E-11 5.31967E-12
4.00286E-11 5.31918E-12
4.28368E-11 5.31868E-12
4.57402E-11 5.31816E-12
4.87388E-11 5.31762E-12
5.18325E-11 5.31707E-12
5.50215E-11 5.31650E-12
5.83057E-11 5.31591E-12
6.16850E-11 5.31530E-12
6.51595E-11 5.31468E-12
6.87293E-11 5.31404E-12
7.23943E-11 5.31338E-12
7.61544E-11 5.31271E-12
1.18991E-10 5.30505E-12
1.71347E-10 5.29572E-12
2.33223E-10 5.28474E-12
3.04617E-10 5.27211E-12
3.85531E-10 5.25788E-12
4.75965E-10 5.24205E-12
5.75917E-10 5.22467E-12
6.85389E-10 5.20576E-12
8.04380E-10 5.18535E-12
9.32891E-10 5.16348E-12
1.07092E-09 5.14018E-12
1.21847E-09 5.11550E-12
1.37554E-09 5.08948E-12
1.54213E-09 5.06217E-12
1.71823E-09 5.03360E-12
1.90386E-09 5.00381E-12
2.09900E-09 4.97287E-12
2.30367E-09 4.94081E-12
2.51785E-09 4.90770E-12
2.74156E-09 4.87357E-12
2.97478E-09 4.83848E-12
3.21752E-09 4.80247E-12
3.46978E-09 4.76560E-12
3.73156E-09 4.72793E-12
4.00286E-09 4.68952E-12
4.28368E-09 4.65040E-12
4.57402E-09 4.61061E-12
4.87388E-09 4.57023E-12
5.18326E-09 4.52929E-12
5.50215E-09 4.48808E-12
5.83057E-09 4.44725E-12
6.16850E-09 4.40575E-12
6.51596E-09 4.36360E-12
6.87293E-09 4.32085E-12
7.23942E-09 4.27753E-12
7.61544E-09 4.23367E-12
1.18991E-08 3.79495E-12
1.71347E-08 3.37387E-12
2.33223E-08 2.99071E-12
3.04617E-08 2.65183E-12
3.85531E-08 2.35790E-12
4.75965E-08 2.10518E-12
5.75917E-08 1.88819E-12
6.85389E-08 1.70147E-12
8.04380E-08 1.53873E-12
9.32891E-08 1.39586E-12
1.07092E-07 1.26953E-12
1.21847E-07 1.15711E-12
1.37554E-07 1.05633E-12
1.54213E-07 9.65640E-13
1.71823E-07 8.83906E-13
1.90386E-07 8.10103E-13
2.09900E-07 7.43365E-13
2.30367E-07 6.82915E-13
2.51785E-07 6.27960E-13
2.74156E-07 5.78166E-13
2.97478E-07 5.33022E-13
3.21752E-07 4.92065E-13
3.46978E-07 4.54879E-13
3.73156E-07 4.21020E-13
4.00286E-07 3.90208E-13
4.28368E-07 3.62174E-13
4.57402E-07 3.36638E-13
4.87388E-07 3.13349E-13
5.18325E-07 2.92071E-13
5.50215E-07 2.72356E-13
5.83057E-07 2.53503E-13
6.16850E-07 2.36560E-13
6.51596E-07 2.21293E-13
6.87293E-07 2.07503E-13
7.23942E-07 1.95016E-13
7.61543E-07 1.83683E-13
1.18991E-06 1.05267E-13
1.71347E-06 6.46551E-14
2.33223E-06 4.18112E-14
3.04617E-06 2.82794E-14
3.85531E-06 1.98620E-14
4.75964E-06 1.43992E-14
5.75916E-06 1.07145E-14
6.85388E-06 8.13240E-15
8.04378E-06 6.28395E-15
9.32888E-06 4.92906E-15
1.07092E-05 3.91681E-15
1.21846E-05 3.14867E-15
1.37553E-05 2.55855E-15
1.54212E-05 2.09635E-15
1.71822E-05 1.73458E-15
1.90385E-05 1.44759E-15
2.09899E-05 1.22008E-15
2.30365E-05 1.03580E-15
2.51783E-05 8.84806E-16
2.74153E-05 7.60301E-16
2.97475E-05 6.57003E-16
3.21749E-05 5.70833E-16
3.46974E-05 4.98555E-16
3.73152E-05 4.37520E-16
4.00281E-05 3.85667E-16
4.28362E-05 3.41344E-16
4.57395E-05 3.03230E-16
4.87380E-05 2.70286E-16
5.18317E-05 2.41683E-16
5.50205E-05 2.16715E-16
5.83045E-05 1.94804E-16
6.16838E-05 1.75721E-16
6.51582E-05 1.59035E-16
6.87277E-05 1.44156E-16
7.23925E-05 1.31006E-16
7.61524E-05 1.19384E-16
9.21439E-05 8.39872E-17
1.09658E-04 6.07932E-17
1.28695E-04 4.51053E-17
1.49255E-04 3.41733E-17
1.71338E-04 2.63619E-17
1.94942E-04 2.06582E-17
2.20070E-04 1.64125E-17
2.46720E-04 1.32013E-17
2.74892E-04 1.07386E-17
3.04586E-04 8.82448E-18
3.35803E-04 7.31917E-18
3.68542E-04 6.12199E-18
4.02802E-04 5.16016E-18
4.38585E-04 4.38060E-18
4.75889E-04 3.74332E-18
5.14715E-04 3.21824E-18
5.55063E-04 2.78236E-18
5.96931E-04 2.41800E-18
6.40321E-04 2.11151E-18
6.85233E-04 1.85221E-18
7.31665E-04 1.63162E-18
7.79618E-04 1.44298E-18
8.29092E-04 1.28087E-18
8.80086E-04 1.14091E-18
9.32601E-04 1.01958E-18
9.86636E-04 9.13982E-19
1.04219E-03 8.21721E-19
1.09927E-03 7.40829E-19
1.15786E-03 6.69647E-19
1.21797E-03 6.06819E-19
1.27961E-03 5.51198E-19
1.34276E-03 5.01813E-19
1.40743E-03 4.57845E-19
1.47362E-03 4.18592E-19
1.54133E-03 3.83460E-19
1.61056E-03 3.51943E-19
1.68131E-03 3.23604E-19
1.75357E-03 2.98067E-19
1.82735E-03 2.75005E-19
1.90265E-03 2.54134E-19
1.97947E-03 2.35210E-19
2.05780E-03 2.18020E-19
2.13765E-03 2.02377E-19
2.21902E-03 1.88116E-19
2.30190E-03 1.75093E-19
2.38630E-03 1.63180E-19
2.47222E-03 1.52268E-19
2.55965E-03 1.42256E-19
2.64859E-03 1.33057E-19
2.73905E-03 1.24593E-19
2.83103E-03 1.16794E-19
2.92452E-03 1.09598E-19
3.01952E-03 1.02951E-19
3.11604E-03 9.68026E-20
3.21407E-03 9.11088E-20
3.31362E-03 8.58297E-20
3.41468E-03 8.09294E-20
3.51725E-03 7.63758E-20
3.62133E-03 7.21400E-20
3.72692E-03 6.81956E-20
3.83403E-03 6.45187E-20
3.94265E-03 6.10878E-20
4.05278E-03 5.78835E-20
4.16442E-03 5.48880E-20
4.27757E-03 5.20851E-20
4.39223E-03 4.94601E-20
4.50840E-03 4.69996E-20
4.62608E-03 4.46914E-20
4.74527E-03 4.25242E-20
4.86597E-03 4.04878E-20
4.98817E-03 3.85728E-20
5.11188E-03 3.67707E-20
5.23711E-03 3.50734E-20
5.36383E-03 3.34738E-20
5.49207E-03 3.19650E-20
5.62181E-03 3.05411E-20
5.75306E-03 2.91964E-20
5.88581E-03 2.79255E-20
6.02007E-03 2.67238E-20
6.15583E-03 2.55865E-20
6.29310E-03 2.45099E-20
6.43187E-03 2.34896E-20
6.57214E-03 2.25227E-20
6.71392E-03 2.16052E-20
6.85720E-03 2.07348E-20
7.00198E-03 1.99080E-20
7.14827E-03 1.91226E-20
7.29605E-03 1.83759E-20
7.44534E-03 1.76658E-20
7.59612E-03 1.69900E-20
7.97965E-03 1.54382E-20
8.37255E-03 1.40617E-20
8.77480E-03 1.28371E-20
9.18641E-03 1.17446E-20
9.60736E-03 1.07674E-20
1.00376E-02 9.89109E-21
1.04773E-02 9.10344E-21
1.09262E-02 8.39383E-21
1.13844E-02 7.75311E-21
1.18520E-02 7.17333E-21
1.23288E-02 6.64766E-21
1.28150E-02 6.17011E-21
1.33104E-02 5.73546E-21
1.38150E-02 5.33914E-21
1.43290E-02 4.97712E-21
1.48521E-02 4.64589E-21
1.53845E-02 4.34233E-21
1.59262E-02 4.06370E-21
1.64770E-02 3.80757E-21
1.70371E-02 3.57175E-21
1.76063E-02 3.35435E-21
1.81848E-02 3.15364E-21
1.87724E-02 2.96811E-21
1.93692E-02 2.79637E-21
1.99751E-02 2.63721E-21
2.05901E-02 2.48952E-21
2.12143E-02 2.35232E-21
2.18476E-02 2.22471E-21
2.24900E-02 2.10590E-21
2.31415E-02 1.99516E-21
2.38021E-02 1.89184E-21
2.44717E-02 1.79533E-21
2.51504E-02 1.70510E-21
2.58382E-02 1.62065E-21
2.65349E-02 1.54156E-21
2.72407E-02 1.46740E-21
2.79555E-02 1.39781E-21
2.86793E-02 1.33244E-21
2.94120E-02 1.27100E-21
3.01537E-02 1.21320E-21
3.09043E-02 1.15877E-21
3.16639E-02 1.10748E-21
3.24324E-02 1.05912E-21
3.32098E-02 1.01348E-21
3.39961E-02 9.70373E-22
3.47912E-02 9.29636E-22
3.55952E-02 8.91106E-22
3.64081E-02 8.54643E-22
3.72297E-02 8.20111E-22
3.80602E-02 7.87386E-22
3.88995E-02 7.56355E-22
3.97476E-02 7.26909E-22
4.06044E-02 6.98954E-22
4.14700E-02 6.72395E-22
4.23443E-02 6.47149E-22
4.32273E-02 6.23138E-22
4.41190E-02 6.00287E-22
4.50194E-02 5.78529E-22
4.59284E-02 5.57800E-22
4.68461E-02 5.38041E-22
4.87074E-02 5.01216E-22
5.06030E-02 4.67655E-22
5.25328E-02 4.37009E-22
5.44967E-02 4.08972E-22
5.64946E-02 3.83275E-22
5.85262E-02 3.59681E-22
6.05914E-02 3.37983E-22
6.26901E-02 3.17995E-22
6.48222E-02 2.99554E-22
6.69873E-02 2.82514E-22
6.91854E-02 2.66745E-22
7.14163E-02 2.52132E-22
7.36799E-02 2.38571E-22
7.59760E-02 2.25970E-22
7.83043E-02 2.14246E-22
8.06647E-02 2.03324E-22
8.30571E-02 1.93137E-22
8.54812E-02 1.83624E-22
8.79369E-02 1.74730E-22
9.04240E-02 1.66405E-22
9.29422E-02 1.58606E-22
9.54915E-02 1.51291E-22
9.80716E-02 1.44423E-22
1.00682E-01 1.37968E-22
1.03323E-01 1.31896E-22
1.05995E-01 1.26178E-22
1.08696E-01 1.20789E-22
1.11427E-01 1.15706E-22
1.14188E-01 1.10907E-22
1.16978E-01 1.06372E-22
1.19797E-01 1.02083E-22
1.22645E-01 9.80236E-23
1.25522E-01 9.41787E-23
1.28428E-01 9.05341E-23
1.31361E-01 8.70768E-23
1.34323E-01 8.37947E-23
1.37313E-01 8.06766E-23
1.40330E-01 7.77124E-23
1.43375E-01 7.48927E-23
1.46447E-01 7.22087E-23
1.49545E-01 6.96521E-23
1.52671E-01 6.72153E-23
1.55823E-01 6.48912E-23
1.59001E-01 6.26735E-23
1.62205E-01 6.05559E-23
1.65435E-01 5.85329E-23
1.68690E-01 5.65991E-23
1.71970E-01 5.47495E-23
1.75276E-01 5.29794E-23
1.78606E-01 5.12847E-23
1.81961E-01 4.96614E-23
1.85340E-01 4.81055E-23
1.88743E-01 4.66136E-23
1.92169E-01 4.51824E-23
1.95619E-01 4.38086E-23
1.99092E-01 4.24895E-23
2.02589E-01 4.12223E-23
2.06107E-01 4.00044E-23
2.09649E-01 3.88334E-23
2.13212E-01 3.77069E-23
2.16797E-01 3.66229E-23
2.20404E-01 3.55793E-23
2.24032E-01 3.45744E-23
2.27680E-01 3.36061E-23
2.31350E-01 3.26728E-23
2.35040E-01 3.17729E-23
2.38751E-01 3.09049E-23
2.42481E-01 3.00674E-23
2.46231E-01 2.92592E-23
2.50000E-01 2.84786E-23
2.53788E-01 2.77246E-23
2.57595E-01 2.69961E-23
2.61421E-01 2.62921E-23
2.65264E-01 2.56115E-23
2.69126E-01 2.49531E-23
2.73005E-01 2.43161E-23
2.76901E-01 2.36997E-23
2.80814E-01 2.31031E-23
2.84744E-01 2.25254E-23
2.88691E-01 2.19658E-23
2.92653E-01 2.14236E-23
2.96632E-01 2.08981E-23
3.00625E-01 2.03887E-23
3.04634E-01 1.98948E-23
3.08658E-01 1.94158E-23
3.12697E-01 1.89511E-23
3.16749E-01 1.85001E-23
3.20816E-01 1.80623E-23
3.24896E-01 1.76373E-23
3.28990E-01 1.72246E-23
3.33097E-01 1.68237E-23
3.37216E-01 1.64342E-23
3.41348E-01 1.60557E-23
3.45492E-01 1.56878E-23
3.49647E-01 1.53301E-23
3.53814E-01 1.49823E-23
3.57992E-01 1.46440E-23
3.62181E-01 1.43149E-23
3.66381E-01 1.39946E-23
3.70590E-01 1.36830E-23
3.74810E-01 1.33796E-23
3.79039E-01 1.30842E-23
3.83277E-01 1.27965E-23
3.87524E-01 1.25163E-23
3.91780E-01 1.22434E-23
3.96044E-01 1.19775E-23
4.00316E-01 1.17183E-23
4.04596E-01 1.14657E-23
4.08882E-01 1.12194E-23
4.13176E-01 1.09793E-23
4.17476E-01 1.07452E-23
4.21783E-01 1.05168E-23
4.26095E-01 1.02940E-23
4.30413E-01 1.00766E-23
4.34737E-01 9.86449E-24
4.39065E-01 9.65746E-24
4.43398E-01 9.45537E-24
4.47736E-01 9.25807E-24
4.52077E-01 9.06542E-24
4.56422E-01 8.87728E-24
4.60770E-01 8.69353E-24
4.65122E-01 8.51403E-24
4.69476E-01 8.33866E-24
4.73832E-01 8.16730E-24
4.78190E-01 7.99984E-24
4.82550E-01 7.83617E-24
4.86912E-01 7.67618E-24
4.91274E-01 7.51977E-24
4.95637E-01 7.36683E-24
5.00000E-01 7.21728E-24
5.04363E-01 7.07102E-24
5.08726E-01 6.92796E-24
5.13088E-01 6.78801E-24
5.17450E-01 6.65109E-24
5.21810E-01 6.51713E-24
5.26168E-01 6.38603E-24
5.30524E-01 6.25773E-24
5.34878E-01 6.13215E-24
5.39230E-01 6.00922E-24
5.43578E-01 5.88887E-24
5.47923E-01 5.77104E-24
5.52264E-01 5.65566E-24
5.56602E-01 5.54267E-24
5.60935E-01 5.43200E-24
5.65263E-01 5.32361E-24
5.69587E-01 5.21743E-24
5.73905E-01 5.11341E-24
5.78217E-01 5.01149E-24
5.82524E-01 4.91163E-24
5.86824E-01 4.81378E-24
5.91118E-01 4.71787E-24
5.95404E-01 4.62387E-24
5.99684E-01 4.53174E-24
6.03956E-01 4.44143E-24
6.08220E-01 4.35289E-24
6.12476E-01 4.26608E-24
6.16723E-01 4.18097E-24
6.20961E-01 4.09751E-24
6.25190E-01 4.01567E-24
6.29410E-01 3.93541E-24
6.33619E-01 3.85669E-24
6.37819E-01 3.77948E-24
6.42008E-01 3.70374E-24
6.46186E-01 3.62945E-24
6.50353E-01 3.55656E-24
6.54508E-01 3.48506E-24
6.58652E-01 3.41489E-24
6.62784E-01 3.34598E-24
6.66903E-01 3.27835E-24
6.71010E-01 3.21199E-24
6.75104E-01 3.14685E-24
6.79184E-01 3.08293E-24
6.83251E-01 3.02018E-24
6.87303E-01 2.95858E-24
6.91342E-01 2.89812E-24
6.95366E-01 2.83876E-24
6.99375E-01 2.78049E-24
7.03368E-01 2.72328E-24
7.07347E-01 2.66711E-24
7.11309E-01 2.61195E-24
7.15256E-01 2.55779E-24
7.19186E-01 2.50461E-24
7.23099E-01 2.45239E-24
7.26995E-01 2.40110E-24
7.30874E-01 2.35074E-24
7.34736E-01 2.30127E-24
7.38579E-01 2.25269E-24
7.42405E-01 2.20498E-24
7.46212E-01 2.15811E-24
7.50000E-01 2.11207E-24
7.53769E-01 2.06686E-24
7.57519E-01 2.02244E-24
7.61249E-01 1.97881E-24
7.64960E-01 1.93595E-24
7.68650E-01 1.89385E-24
7.72320E-01 1.85249E-24
7.75968E-01 1.81186E-24
7.79596E-01 1.77194E-24
7.83203E-01 1.73273E-24
7.86788E-01 1.69420E-24
7.90351E-01 1.65636E-24
7.93893E-01 1.61917E-24
7.97411E-01 1.58264E-24
8.00908E-01 1.54675E-24
8.04381E-01 1.51149E-24
8.07831E-01 1.47685E-24
8.11257E-01 1.44282E-24
8.14660E-01 1.40938E-24
8.18039E-01 1.37654E-24
8.21394E-01 1.34427E-24
8.24724E-01 1.31256E-24
8.28030E-01 1.28142E-24
8.31310E-01 1.25082E-24
8.34565E-01 1.22077E-24
8.37795E-01 1.19124E-24
8.40999E-01 1.16224E-24
8.44177E-01 1.13375E-24
8.47329E-01 1.10576E-24
8.50455E-01 1.07828E-24
8.53553E-01 1.05128E-24
8.56625E-01 1.02476E-24
8.59670E-01 9.98718E-25
8.62687E-01 9.73142E-25
8.65677E-01 9.48025E-25
8.68639E-01 9.23361E-25
8.71572E-01 8.99143E-25
8.74478E-01 8.75364E-25
8.77355E-01 8.52017E-25
8.80203E-01 8.29096E-25
8.83022E-01 8.06595E-25
8.85812E-01 7.84508E-25
8.88573E-01 7.62829E-25
8.91304E-01 7.41552E-25
8.94005E-01 7.20671E-25
8.96677E-01 7.00181E-25
8.99318E-01 6.80076E-25
9.01928E-01 6.60352E-25
9.04508E-01 6.41002E-25
9.07058E-01 6.22023E-25
9.09576E-01 6.03409E-25
9.12063E-01 5.85155E-25
9.14519E-01 5.67256E-25
9.16943E-01 5.49708E-25
9.19335E-01 5.32507E-25
9.21696E-01 5.15649E-25
9.24024E-01 4.99128E-25
9.26320E-01 4.82941E-25
9.28584E-01 4.67083E-25
9.30815E-01 4.51552E-25
9.33013E-01 4.36342E-25
9.35178E-01 4.21450E-25
9.37310E-01 4.06873E-25
9.39409E-01 3.92607E-25
9.41474E-01 3.78649E-25
9.43505E-01 3.64994E-25
9.45503E-01 3.51640E-25
9.47467E-01 3.38584E-25
9.49397E-01 3.25822E-25
9.51293E-01 3.13352E-25
9.53154E-01 3.01169E-25
9.54981E-01 2.89272E-25
9.56773E-01 2.77658E-25
9.58530E-01 2.66323E-25
9.60252E-01 2.55266E-25
9.61940E-01 2.44483E-25
9.63592E-01 2.33972E-25
9.65209E-01 2.23731E-25
9.66790E-01 2.13757E-25
9.68336E-01 2.04048E-25
9.69846E-01 1.94601E-25
9.71321E-01 1.85415E-25
9.72759E-01 1.76487E-25
9.74162E-01 1.67815E-25
9.75528E-01 1.59397E-25
9.76858E-01 1.51232E-25
9.78152E-01 1.43317E-25
9.79410E-01 1.35651E-25
9.80631E-01 1.28232E-25
9.81815E-01 1.21058E-25
9.82963E-01 1.14127E-25
9.84074E-01 1.07439E-25
9.85148E-01 1.00990E-25
9.86185E-01 9.47814E-26
9.87185E-01 8.88100E-26
9.88148E-01 8.30749E-26
9.89074E-01 7.75748E-26
9.89962E-01 7.23085E-26
9.90814E-01 6.72747E-26
9.91627E-01 6.24725E-26
9.92404E-01 5.79006E-26
9.93143E-01 5.35582E-26
9.93844E-01 4.94441E-26
9.94508E-01 4.55576E-26
9.95134E-01 4.18977E-26
9.95722E-01 3.84637E-26
9.96273E-01 3.52547E-26
9.96786E-01 3.22701E-26
9.97261E-01 2.95093E-26
9.97698E-01 2.69715E-26
9.98097E-01 2.46562E-26
9.98459E-01 2.25630E-26
9.98782E-01 2.06914E-26
9.99067E-01 1.90409E-26
9.99315E-01 1.76112E-26
9.99524E-01 1.64020E-26
9.99695E-01 1.54131E-26
9.99829E-01 1.46441E-26
9.99924E-01 1.40949E-26
9.99981E-01 1.37655E-26
1.00000E+00 1.36557E-26
