 #
 # Subroutine ELSEPA. Elastic scattering of electrons and positrons
 #                    by neutral atoms and positive ions
 #
 # Projectile: electron
 # Kinetic energy = 4.00000E+07 eV = 1.46997E+06 a.u.
 #
 # WARNING: High-energy factorization with free-atom DF screening.
 #          Absorption, polarization and exchange corrections are
 #          switched off.
 #          Phase shifts are calculated for the bare nucleus.
 #          Scattering amplitudes are not evaluated.
 #
 # Element: Fr,  Z =  87,  atomic weight = 2.23020E+02 g/mol
 #
 # Nuclear model: Fermi distribution
 #                Average radius = 6.48881E-13 cm
 #                Skin thickness = 5.46000E-14 cm
 #
 # Number of electrons = 87
 #
 # Total elastic cross section = 1.04214E-17 cm**2 = 3.72156E-01 a0**2
 # 1st transport cross section = 8.78366E-24 cm**2 = 3.13670E-07 a0**2
 # 2nd transport cross section = 2.54909E-23 cm**2 = 9.10295E-07 a0**2
 #
 #
 # Differential cross section:                       MU=(1-COS(THETA))/2
 #
 #  THETA        MU          DCS          DCS        Sherman      error
 #  (deg)                 (cm**2/sr)   (a0**2/sr)    function
 #----------------------------------------------------------------------
0.00000E+00 2.06197E-10
7.61557E-13 2.05990E-10
1.18994E-12 2.05874E-10
1.71346E-12 2.05732E-10
2.33225E-12 2.05565E-10
3.04617E-12 2.05372E-10
3.85530E-12 2.05155E-10
4.75964E-12 2.04912E-10
5.75917E-12 2.04644E-10
6.85391E-12 2.04352E-10
8.04379E-12 2.04035E-10
9.32893E-12 2.03694E-10
1.07092E-11 2.03328E-10
1.21847E-11 2.02939E-10
1.37554E-11 2.02527E-10
1.54213E-11 2.02091E-10
1.71823E-11 2.01632E-10
1.90386E-11 2.01151E-10
2.09900E-11 2.00647E-10
2.30367E-11 2.00121E-10
2.51785E-11 1.99574E-10
2.74156E-11 1.99005E-10
2.97478E-11 1.98416E-10
3.21752E-11 1.97806E-10
3.46979E-11 1.97176E-10
3.73157E-11 1.96526E-10
4.00286E-11 1.95857E-10
4.28368E-11 1.95169E-10
4.57402E-11 1.94463E-10
4.87388E-11 1.93739E-10
5.18325E-11 1.92997E-10
5.50215E-11 1.92238E-10
5.83057E-11 1.91463E-10
6.16850E-11 1.90672E-10
6.51595E-11 1.89864E-10
6.87293E-11 1.89041E-10
7.23943E-11 1.88205E-10
7.61544E-11 1.87353E-10
1.18991E-10 1.78163E-10
1.71347E-10 1.68184E-10
2.33223E-10 1.57626E-10
3.04617E-10 1.47029E-10
3.85531E-10 1.36784E-10
4.75965E-10 1.26937E-10
5.75917E-10 1.17639E-10
6.85389E-10 1.09092E-10
8.04380E-10 1.01274E-10
9.32891E-10 9.40909E-11
1.07092E-09 8.75299E-11
1.21847E-09 8.16209E-11
1.37554E-09 7.62388E-11
1.54213E-09 7.13180E-11
1.71823E-09 6.68210E-11
1.90386E-09 6.27192E-11
2.09900E-09 5.89398E-11
2.30367E-09 5.54534E-11
2.51785E-09 5.22325E-11
2.74156E-09 4.92382E-11
2.97478E-09 4.64538E-11
3.21752E-09 4.38625E-11
3.46978E-09 4.14431E-11
3.73156E-09 3.91706E-11
4.00286E-09 3.70463E-11
4.28368E-09 3.50593E-11
4.57402E-09 3.31914E-11
4.87388E-09 3.14322E-11
5.18326E-09 2.97837E-11
5.50215E-09 2.82381E-11
5.83057E-09 2.67795E-11
6.16850E-09 2.54063E-11
6.51596E-09 2.41179E-11
6.87293E-09 2.29084E-11
7.23942E-09 2.17645E-11
7.61544E-09 2.06887E-11
1.18991E-08 1.28367E-11
1.71347E-08 8.31829E-12
2.33223E-08 5.73413E-12
3.04617E-08 4.08697E-12
3.85531E-08 2.98276E-12
4.75965E-08 2.23619E-12
5.75917E-08 1.71245E-12
6.85389E-08 1.33019E-12
8.04380E-08 1.04883E-12
9.32891E-08 8.40063E-13
1.07092E-07 6.82020E-13
1.21847E-07 5.59102E-13
1.37554E-07 4.63080E-13
1.54213E-07 3.87291E-13
1.71823E-07 3.26650E-13
1.90386E-07 2.76997E-13
2.09900E-07 2.36471E-13
2.30367E-07 2.03119E-13
2.51785E-07 1.75407E-13
2.74156E-07 1.52036E-13
2.97478E-07 1.32434E-13
3.21752E-07 1.15901E-13
3.46978E-07 1.01870E-13
3.73156E-07 8.97582E-14
4.00286E-07 7.94043E-14
4.28368E-07 7.05184E-14
4.57402E-07 6.28473E-14
4.87388E-07 5.61986E-14
5.18325E-07 5.04243E-14
5.50215E-07 4.53867E-14
5.83057E-07 4.09630E-14
6.16850E-07 3.70678E-14
6.51596E-07 3.36309E-14
6.87293E-07 3.05880E-14
7.23942E-07 2.78784E-14
7.61543E-07 2.54654E-14
1.18991E-06 1.14081E-14
1.71347E-06 5.85909E-15
2.33223E-06 3.31614E-15
3.04617E-06 2.01727E-15
3.85531E-06 1.29714E-15
4.75964E-06 8.71337E-16
5.75916E-06 6.06498E-16
6.85388E-06 4.34904E-16
8.04378E-06 3.19878E-16
9.32888E-06 2.40479E-16
1.07092E-05 1.84287E-16
1.21846E-05 1.43618E-16
1.37553E-05 1.13594E-16
1.54212E-05 9.10348E-17
1.71822E-05 7.38150E-17
1.90385E-05 6.04431E-17
2.09899E-05 5.00372E-17
2.30365E-05 4.17685E-17
2.51783E-05 3.51269E-17
2.74153E-05 2.97445E-17
2.97475E-05 2.53496E-17
3.21749E-05 2.17362E-17
3.46974E-05 1.87455E-17
3.73152E-05 1.62539E-17
4.00281E-05 1.41643E-17
4.28362E-05 1.24005E-17
4.57395E-05 1.09025E-17
4.87380E-05 9.62343E-18
5.18317E-05 8.52580E-18
5.50205E-05 7.57980E-18
5.83045E-05 6.76127E-18
6.16838E-05 6.05038E-18
6.51582E-05 5.43068E-18
6.87277E-05 4.88852E-18
7.23925E-05 4.41249E-18
7.61524E-05 3.99142E-18
9.21439E-05 2.73942E-18
1.09658E-04 1.94223E-18
1.28695E-04 1.41533E-18
1.49255E-04 1.05570E-18
1.71338E-04 8.03494E-19
1.94942E-04 6.22375E-19
2.20070E-04 4.89582E-19
2.46720E-04 3.90425E-19
2.74892E-04 3.15180E-19
3.04586E-04 2.57235E-19
3.35803E-04 2.12035E-19
3.68542E-04 1.76351E-19
4.02802E-04 1.47879E-19
4.38585E-04 1.24937E-19
4.75889E-04 1.06282E-19
5.14715E-04 9.09901E-20
5.55063E-04 7.83561E-20
5.96931E-04 6.78455E-20
6.40321E-04 5.90432E-20
6.85233E-04 5.16263E-20
7.31665E-04 4.53414E-20
7.79618E-04 3.99866E-20
8.29092E-04 3.54018E-20
8.80086E-04 3.14575E-20
9.32601E-04 2.80493E-20
9.86636E-04 2.50919E-20
1.04219E-03 2.25155E-20
1.09927E-03 2.02627E-20
1.15786E-03 1.82858E-20
1.21797E-03 1.65452E-20
1.27961E-03 1.50077E-20
1.34276E-03 1.36455E-20
1.40743E-03 1.24352E-20
1.47362E-03 1.13568E-20
1.54133E-03 1.03933E-20
1.61056E-03 9.53045E-21
1.68131E-03 8.75578E-21
1.75357E-03 8.05871E-21
1.82735E-03 7.43003E-21
1.90265E-03 6.86186E-21
1.97947E-03 6.34731E-21
2.05780E-03 5.88042E-21
2.13765E-03 5.45598E-21
2.21902E-03 5.06940E-21
2.30190E-03 4.71672E-21
2.38630E-03 4.39439E-21
2.47222E-03 4.09936E-21
2.55965E-03 3.82886E-21
2.64859E-03 3.58049E-21
2.73905E-03 3.35210E-21
2.83103E-03 3.14178E-21
2.92452E-03 2.94786E-21
3.01952E-03 2.76879E-21
3.11604E-03 2.60324E-21
3.21407E-03 2.45000E-21
3.31362E-03 2.30797E-21
3.41468E-03 2.17620E-21
3.51725E-03 2.05378E-21
3.62133E-03 1.93994E-21
3.72692E-03 1.83396E-21
3.83403E-03 1.73519E-21
3.94265E-03 1.64306E-21
4.05278E-03 1.55703E-21
4.16442E-03 1.47661E-21
4.27757E-03 1.40139E-21
4.39223E-03 1.33094E-21
4.50840E-03 1.26492E-21
4.62608E-03 1.20299E-21
4.74527E-03 1.14485E-21
4.86597E-03 1.09023E-21
4.98817E-03 1.03886E-21
5.11188E-03 9.90519E-22
5.23711E-03 9.44996E-22
5.36383E-03 9.02093E-22
5.49207E-03 8.61626E-22
5.62181E-03 8.23433E-22
5.75306E-03 7.87363E-22
5.88581E-03 7.53275E-22
6.02007E-03 7.21032E-22
6.15583E-03 6.90521E-22
6.29310E-03 6.61634E-22
6.43187E-03 6.34259E-22
6.57214E-03 6.08304E-22
6.71392E-03 5.83686E-22
6.85720E-03 5.60318E-22
7.00198E-03 5.38123E-22
7.14827E-03 5.17033E-22
7.29605E-03 4.96983E-22
7.44534E-03 4.77909E-22
7.59612E-03 4.59755E-22
7.97965E-03 4.18056E-22
8.37255E-03 3.81045E-22
8.77480E-03 3.48100E-22
9.18641E-03 3.18691E-22
9.60736E-03 2.92370E-22
1.00376E-02 2.68751E-22
1.04773E-02 2.47506E-22
1.09262E-02 2.28351E-22
1.13844E-02 2.11041E-22
1.18520E-02 1.95367E-22
1.23288E-02 1.81143E-22
1.28150E-02 1.68211E-22
1.33104E-02 1.56430E-22
1.38150E-02 1.45678E-22
1.43290E-02 1.35849E-22
1.48521E-02 1.26848E-22
1.53845E-02 1.18592E-22
1.59262E-02 1.11008E-22
1.64770E-02 1.04032E-22
1.70371E-02 9.76039E-23
1.76063E-02 9.16653E-23
1.81848E-02 8.61777E-23
1.87724E-02 8.11002E-23
1.93692E-02 7.63961E-23
1.99751E-02 7.20325E-23
2.05901E-02 6.79799E-23
2.12143E-02 6.42117E-23
2.18476E-02 6.07041E-23
2.24900E-02 5.74354E-23
2.31415E-02 5.43861E-23
2.38021E-02 5.15385E-23
2.44717E-02 4.88767E-23
2.51504E-02 4.63861E-23
2.58382E-02 4.40535E-23
2.65349E-02 4.18668E-23
2.72407E-02 3.98152E-23
2.79555E-02 3.78885E-23
2.86793E-02 3.60777E-23
2.94120E-02 3.43744E-23
3.01537E-02 3.27709E-23
3.09043E-02 3.12602E-23
3.16639E-02 2.98359E-23
3.24324E-02 2.84920E-23
3.32098E-02 2.72231E-23
3.39961E-02 2.60241E-23
3.47912E-02 2.48904E-23
3.55952E-02 2.38178E-23
3.64081E-02 2.28022E-23
3.72297E-02 2.18401E-23
3.80602E-02 2.09281E-23
3.88995E-02 2.00630E-23
3.97476E-02 1.92420E-23
4.06044E-02 1.84623E-23
4.14700E-02 1.77215E-23
4.23443E-02 1.70172E-23
4.32273E-02 1.63472E-23
4.41190E-02 1.57096E-23
4.50194E-02 1.51025E-23
4.59284E-02 1.45241E-23
4.68461E-02 1.39729E-23
4.87074E-02 1.29456E-23
5.06030E-02 1.20098E-23
5.25328E-02 1.11557E-23
5.44967E-02 1.03749E-23
5.64946E-02 9.65987E-24
5.85262E-02 9.00410E-24
6.05914E-02 8.40177E-24
6.26901E-02 7.84770E-24
6.48222E-02 7.33733E-24
6.69873E-02 6.86657E-24
6.91854E-02 6.43180E-24
7.14163E-02 6.02977E-24
7.36799E-02 5.65756E-24
7.59760E-02 5.31257E-24
7.83043E-02 4.99245E-24
8.06647E-02 4.69509E-24
8.30571E-02 4.41859E-24
8.54812E-02 4.16123E-24
8.79369E-02 3.92146E-24
9.04240E-02 3.69786E-24
9.29422E-02 3.48916E-24
9.54915E-02 3.29419E-24
9.80716E-02 3.11191E-24
1.00682E-01 2.94134E-24
1.03323E-01 2.78161E-24
1.05995E-01 2.63192E-24
1.08696E-01 2.49153E-24
1.11427E-01 2.35977E-24
1.14188E-01 2.23602E-24
1.16978E-01 2.11973E-24
1.19797E-01 2.01036E-24
1.22645E-01 1.90745E-24
1.25522E-01 1.81056E-24
1.28428E-01 1.71927E-24
1.31361E-01 1.63321E-24
1.34323E-01 1.55205E-24
1.37313E-01 1.47545E-24
1.40330E-01 1.40314E-24
1.43375E-01 1.33482E-24
1.46447E-01 1.27025E-24
1.49545E-01 1.20920E-24
1.52671E-01 1.15144E-24
1.55823E-01 1.09677E-24
1.59001E-01 1.04501E-24
1.62205E-01 9.95979E-25
1.65435E-01 9.49513E-25
1.68690E-01 9.05461E-25
1.71970E-01 8.63682E-25
1.75276E-01 8.24043E-25
1.78606E-01 7.86420E-25
1.81961E-01 7.50697E-25
1.85340E-01 7.16768E-25
1.88743E-01 6.84530E-25
1.92169E-01 6.53890E-25
1.95619E-01 6.24758E-25
1.99092E-01 5.97052E-25
2.02589E-01 5.70693E-25
2.06107E-01 5.45609E-25
2.09649E-01 5.21732E-25
2.13212E-01 4.98995E-25
2.16797E-01 4.77340E-25
2.20404E-01 4.56708E-25
2.24032E-01 4.37047E-25
2.27680E-01 4.18306E-25
2.31350E-01 4.00437E-25
2.35040E-01 3.83396E-25
2.38751E-01 3.67141E-25
2.42481E-01 3.51631E-25
2.46231E-01 3.36829E-25
2.50000E-01 3.22699E-25
2.53788E-01 3.09209E-25
2.57595E-01 2.96326E-25
2.61421E-01 2.84021E-25
2.65264E-01 2.72265E-25
2.69126E-01 2.61032E-25
2.73005E-01 2.50296E-25
2.76901E-01 2.40034E-25
2.80814E-01 2.30222E-25
2.84744E-01 2.20840E-25
2.88691E-01 2.11866E-25
2.92653E-01 2.03283E-25
2.96632E-01 1.95070E-25
3.00625E-01 1.87212E-25
3.04634E-01 1.79691E-25
3.08658E-01 1.72492E-25
3.12697E-01 1.65601E-25
3.16749E-01 1.59002E-25
3.20816E-01 1.52683E-25
3.24896E-01 1.46632E-25
3.28990E-01 1.40835E-25
3.33097E-01 1.35281E-25
3.37216E-01 1.29960E-25
3.41348E-01 1.24861E-25
3.45492E-01 1.19974E-25
3.49647E-01 1.15290E-25
3.53814E-01 1.10800E-25
3.57992E-01 1.06495E-25
3.62181E-01 1.02367E-25
3.66381E-01 9.84083E-26
3.70590E-01 9.46120E-26
3.74810E-01 9.09706E-26
3.79039E-01 8.74775E-26
3.83277E-01 8.41264E-26
3.87524E-01 8.09110E-26
3.91780E-01 7.78256E-26
3.96044E-01 7.48647E-26
4.00316E-01 7.20228E-26
4.04596E-01 6.92951E-26
4.08882E-01 6.66766E-26
4.13176E-01 6.41627E-26
4.17476E-01 6.17490E-26
4.21783E-01 5.94314E-26
4.26095E-01 5.72058E-26
4.30413E-01 5.50683E-26
4.34737E-01 5.30154E-26
4.39065E-01 5.10434E-26
4.43398E-01 4.91490E-26
4.47736E-01 4.73291E-26
4.52077E-01 4.55805E-26
4.56422E-01 4.39003E-26
4.60770E-01 4.22858E-26
4.65122E-01 4.07342E-26
4.69476E-01 3.92429E-26
4.73832E-01 3.78095E-26
4.78190E-01 3.64316E-26
4.82550E-01 3.51071E-26
4.86912E-01 3.38336E-26
4.91274E-01 3.26092E-26
4.95637E-01 3.14319E-26
5.00000E-01 3.02998E-26
5.04363E-01 2.92111E-26
5.08726E-01 2.81640E-26
5.13088E-01 2.71568E-26
5.17450E-01 2.61880E-26
5.21810E-01 2.52560E-26
5.26168E-01 2.43594E-26
5.30524E-01 2.34968E-26
5.34878E-01 2.26668E-26
5.39230E-01 2.18681E-26
5.43578E-01 2.10994E-26
5.47923E-01 2.03597E-26
5.52264E-01 1.96477E-26
5.56602E-01 1.89624E-26
5.60935E-01 1.83027E-26
5.65263E-01 1.76676E-26
5.69587E-01 1.70561E-26
5.73905E-01 1.64674E-26
5.78217E-01 1.59005E-26
5.82524E-01 1.53545E-26
5.86824E-01 1.48287E-26
5.91118E-01 1.43223E-26
5.95404E-01 1.38345E-26
5.99684E-01 1.33646E-26
6.03956E-01 1.29119E-26
6.08220E-01 1.24757E-26
6.12476E-01 1.20554E-26
6.16723E-01 1.16505E-26
6.20961E-01 1.12602E-26
6.25190E-01 1.08840E-26
6.29410E-01 1.05214E-26
6.33619E-01 1.01719E-26
6.37819E-01 9.83489E-27
6.42008E-01 9.51000E-27
6.46186E-01 9.19672E-27
6.50353E-01 8.89461E-27
6.54508E-01 8.60325E-27
6.58652E-01 8.32222E-27
6.62784E-01 8.05114E-27
6.66903E-01 7.78961E-27
6.71010E-01 7.53728E-27
6.75104E-01 7.29380E-27
6.79184E-01 7.05884E-27
6.83251E-01 6.83207E-27
6.87303E-01 6.61318E-27
6.91342E-01 6.40188E-27
6.95366E-01 6.19787E-27
6.99375E-01 6.00089E-27
7.03368E-01 5.81067E-27
7.07347E-01 5.62695E-27
7.11309E-01 5.44949E-27
7.15256E-01 5.27807E-27
7.19186E-01 5.11244E-27
7.23099E-01 4.95240E-27
7.26995E-01 4.79774E-27
7.30874E-01 4.64826E-27
7.34736E-01 4.50376E-27
7.38579E-01 4.36406E-27
7.42405E-01 4.22898E-27
7.46212E-01 4.09836E-27
7.50000E-01 3.97202E-27
7.53769E-01 3.84981E-27
7.57519E-01 3.73158E-27
7.61249E-01 3.61719E-27
7.64960E-01 3.50648E-27
7.68650E-01 3.39934E-27
7.72320E-01 3.29562E-27
7.75968E-01 3.19520E-27
7.79596E-01 3.09797E-27
7.83203E-01 3.00381E-27
7.86788E-01 2.91260E-27
7.90351E-01 2.82425E-27
7.93893E-01 2.73864E-27
7.97411E-01 2.65568E-27
8.00908E-01 2.57529E-27
8.04381E-01 2.49735E-27
8.07831E-01 2.42180E-27
8.11257E-01 2.34853E-27
8.14660E-01 2.27749E-27
8.18039E-01 2.20857E-27
8.21394E-01 2.14172E-27
8.24724E-01 2.07686E-27
8.28030E-01 2.01391E-27
8.31310E-01 1.95282E-27
8.34565E-01 1.89352E-27
8.37795E-01 1.83595E-27
8.40999E-01 1.78005E-27
8.44177E-01 1.72576E-27
8.47329E-01 1.67303E-27
8.50455E-01 1.62181E-27
8.53553E-01 1.57204E-27
8.56625E-01 1.52368E-27
8.59670E-01 1.47668E-27
8.62687E-01 1.43099E-27
8.65677E-01 1.38658E-27
8.68639E-01 1.34341E-27
8.71572E-01 1.30142E-27
8.74478E-01 1.26059E-27
8.77355E-01 1.22087E-27
8.80203E-01 1.18224E-27
8.83022E-01 1.14466E-27
8.85812E-01 1.10809E-27
8.88573E-01 1.07251E-27
8.91304E-01 1.03788E-27
8.94005E-01 1.00417E-27
8.96677E-01 9.71367E-28
8.99318E-01 9.39431E-28
9.01928E-01 9.08341E-28
9.04508E-01 8.78072E-28
9.07058E-01 8.48600E-28
9.09576E-01 8.19902E-28
9.12063E-01 7.91956E-28
9.14519E-01 7.64742E-28
9.16943E-01 7.38239E-28
9.19335E-01 7.12427E-28
9.21696E-01 6.87289E-28
9.24024E-01 6.62807E-28
9.26320E-01 6.38962E-28
9.28584E-01 6.15739E-28
9.30815E-01 5.93122E-28
9.33013E-01 5.71096E-28
9.35178E-01 5.49646E-28
9.37310E-01 5.28758E-28
9.39409E-01 5.08418E-28
9.41474E-01 4.88614E-28
9.43505E-01 4.69333E-28
9.45503E-01 4.50564E-28
9.47467E-01 4.32295E-28
9.49397E-01 4.14514E-28
9.51293E-01 3.97212E-28
9.53154E-01 3.80378E-28
9.54981E-01 3.64003E-28
9.56773E-01 3.48078E-28
9.58530E-01 3.32593E-28
9.60252E-01 3.17540E-28
9.61940E-01 3.02911E-28
9.63592E-01 2.88697E-28
9.65209E-01 2.74893E-28
9.66790E-01 2.61489E-28
9.68336E-01 2.48480E-28
9.69846E-01 2.35859E-28
9.71321E-01 2.23619E-28
9.72759E-01 2.11754E-28
9.74162E-01 2.00259E-28
9.75528E-01 1.89128E-28
9.76858E-01 1.78356E-28
9.78152E-01 1.67938E-28
9.79410E-01 1.57869E-28
9.80631E-01 1.48144E-28
9.81815E-01 1.38758E-28
9.82963E-01 1.29709E-28
9.84074E-01 1.20991E-28
9.85148E-01 1.12601E-28
9.86185E-01 1.04536E-28
9.87185E-01 9.67912E-29
9.88148E-01 8.93640E-29
9.89074E-01 8.22512E-29
9.89962E-01 7.54499E-29
9.90814E-01 6.89573E-29
9.91627E-01 6.27707E-29
9.92404E-01 5.68877E-29
9.93143E-01 5.13058E-29
9.93844E-01 4.60230E-29
9.94508E-01 4.10370E-29
9.95134E-01 3.63460E-29
9.95722E-01 3.19481E-29
9.96273E-01 2.78416E-29
9.96786E-01 2.40250E-29
9.97261E-01 2.04968E-29
9.97698E-01 1.72557E-29
9.98097E-01 1.43004E-29
9.98459E-01 1.16299E-29
9.98782E-01 9.24308E-30
9.99067E-01 7.13917E-30
9.99315E-01 5.31735E-30
9.99524E-01 3.77693E-30
9.99695E-01 2.51736E-30
9.99829E-01 1.53817E-30
9.99924E-01 8.39011E-31
9.99981E-01 4.19616E-31
1.00000E+00 2.79834E-31
