 #
 # Subroutine ELSEPA. Elastic scattering of electrons and positrons
 #                    by neutral atoms and positive ions
 #
 # Projectile: electron
 # Kinetic energy = 8.00000E+06 eV = 2.93995E+05 a.u.
 #
 # WARNING: High-energy factorization with free-atom DF screening.
 #          Absorption, polarization and exchange corrections are
 #          switched off.
 #          Phase shifts are calculated for the bare nucleus.
 #          Scattering amplitudes are not evaluated.
 #
 # Element: Fr,  Z =  87,  atomic weight = 2.23020E+02 g/mol
 #
 # Nuclear model: Fermi distribution
 #                Average radius = 6.48881E-13 cm
 #                Skin thickness = 5.46000E-14 cm
 #
 # Number of electrons = 87
 #
 # Total elastic cross section = 1.04653E-17 cm**2 = 3.73723E-01 a0**2
 # 1st transport cross section = 1.86305E-22 cm**2 = 6.65306E-06 a0**2
 # 2nd transport cross section = 5.01818E-22 cm**2 = 1.79203E-05 a0**2
 #
 #
 # Differential cross section:                       MU=(1-COS(THETA))/2
 #
 #  THETA        MU          DCS          DCS        Sherman      error
 #  (deg)                 (cm**2/sr)   (a0**2/sr)    function
 #----------------------------------------------------------------------
0.00000E+00 9.10119E-12
7.61557E-13 9.10078E-12
1.18994E-12 9.10055E-12
1.71346E-12 9.10028E-12
2.33225E-12 9.09995E-12
3.04617E-12 9.09958E-12
3.85530E-12 9.09915E-12
4.75964E-12 9.09867E-12
5.75917E-12 9.09814E-12
6.85391E-12 9.09757E-12
8.04379E-12 9.09694E-12
9.32893E-12 9.09626E-12
1.07092E-11 9.09554E-12
1.21847E-11 9.09476E-12
1.37554E-11 9.09393E-12
1.54213E-11 9.09306E-12
1.71823E-11 9.09213E-12
1.90386E-11 9.09116E-12
2.09900E-11 9.09013E-12
2.30367E-11 9.08905E-12
2.51785E-11 9.08793E-12
2.74156E-11 9.08675E-12
2.97478E-11 9.08553E-12
3.21752E-11 9.08425E-12
3.46979E-11 9.08293E-12
3.73157E-11 9.08156E-12
4.00286E-11 9.08013E-12
4.28368E-11 9.07866E-12
4.57402E-11 9.07714E-12
4.87388E-11 9.07557E-12
5.18325E-11 9.07395E-12
5.50215E-11 9.07228E-12
5.83057E-11 9.07056E-12
6.16850E-11 9.06879E-12
6.51595E-11 9.06697E-12
6.87293E-11 9.06511E-12
7.23943E-11 9.06319E-12
7.61544E-11 9.06123E-12
1.18991E-10 9.03891E-12
1.71347E-10 9.01177E-12
2.33223E-10 8.97990E-12
3.04617E-10 8.94340E-12
3.85531E-10 8.90237E-12
4.75965E-10 8.85695E-12
5.75917E-10 8.80724E-12
6.85389E-10 8.75344E-12
8.04380E-10 8.69565E-12
9.32891E-10 8.63408E-12
1.07092E-09 8.56886E-12
1.21847E-09 8.50020E-12
1.37554E-09 8.42829E-12
1.54213E-09 8.35328E-12
1.71823E-09 8.27541E-12
1.90386E-09 8.19482E-12
2.09900E-09 8.11180E-12
2.30367E-09 8.02644E-12
2.51785E-09 7.93904E-12
2.74156E-09 7.84970E-12
2.97478E-09 7.75870E-12
3.21752E-09 7.66659E-12
3.46978E-09 7.57499E-12
3.73156E-09 7.48145E-12
4.00286E-09 7.38610E-12
4.28368E-09 7.28908E-12
4.57402E-09 7.19052E-12
4.87388E-09 7.09055E-12
5.18326E-09 6.99373E-12
5.50215E-09 6.89763E-12
5.83057E-09 6.80054E-12
6.16850E-09 6.70255E-12
6.51596E-09 6.60380E-12
6.87293E-09 6.50439E-12
7.23942E-09 6.40609E-12
7.61544E-09 6.31240E-12
1.18991E-08 5.40033E-12
1.71347E-08 4.61053E-12
2.33223E-08 3.95346E-12
3.04617E-08 3.41622E-12
3.85531E-08 2.97355E-12
4.75965E-08 2.60622E-12
5.75917E-08 2.29622E-12
6.85389E-08 2.03102E-12
8.04380E-08 1.80235E-12
9.32891E-08 1.60306E-12
1.07092E-07 1.42904E-12
1.21847E-07 1.27638E-12
1.37554E-07 1.14222E-12
1.54213E-07 1.02436E-12
1.71823E-07 9.20423E-13
1.90386E-07 8.29085E-13
2.09900E-07 7.48275E-13
2.30367E-07 6.77127E-13
2.51785E-07 6.14061E-13
2.74156E-07 5.58302E-13
2.97478E-07 5.08760E-13
3.21752E-07 4.64284E-13
3.46978E-07 4.22938E-13
3.73156E-07 3.86945E-13
4.00286E-07 3.55475E-13
4.28368E-07 3.27845E-13
4.57402E-07 3.03488E-13
4.87388E-07 2.81933E-13
5.18325E-07 2.60829E-13
5.50215E-07 2.41333E-13
5.83057E-07 2.23986E-13
6.16850E-07 2.08503E-13
6.51596E-07 1.94638E-13
6.87293E-07 1.82185E-13
7.23942E-07 1.70614E-13
7.61543E-07 1.59162E-13
1.18991E-06 8.65123E-14
1.71347E-06 5.10567E-14
2.33223E-06 3.21574E-14
3.04617E-06 2.13180E-14
3.85531E-06 1.47388E-14
4.75964E-06 1.04966E-14
5.75916E-06 7.67605E-15
6.85388E-06 5.72431E-15
8.04378E-06 4.35510E-15
9.32888E-06 3.36265E-15
1.07092E-05 2.63971E-15
1.21846E-05 2.10306E-15
1.37553E-05 1.69735E-15
1.54212E-05 1.38563E-15
1.71822E-05 1.14251E-15
1.90385E-05 9.50389E-16
2.09899E-05 7.98376E-16
2.30365E-05 6.75819E-16
2.51783E-05 5.75754E-16
2.74153E-05 4.93482E-16
2.97475E-05 4.25309E-16
3.21749E-05 3.68476E-16
3.46974E-05 3.20721E-16
3.73152E-05 2.80838E-16
4.00281E-05 2.46915E-16
4.28362E-05 2.17963E-16
4.57395E-05 1.93313E-16
4.87380E-05 1.71846E-16
5.18317E-05 1.53384E-16
5.50205E-05 1.37339E-16
5.83045E-05 1.23301E-16
6.16838E-05 1.11083E-16
6.51582E-05 1.00289E-16
6.87277E-05 9.08053E-17
7.23925E-05 8.24366E-17
7.61524E-05 7.49734E-17
9.21439E-05 5.24508E-17
1.09658E-04 3.77584E-17
1.28695E-04 2.78710E-17
1.49255E-04 2.10097E-17
1.71338E-04 1.61361E-17
1.94942E-04 1.25975E-17
2.20070E-04 9.97897E-18
2.46720E-04 8.00840E-18
2.74892E-04 6.50204E-18
3.04586E-04 5.33491E-18
3.35803E-04 4.41873E-18
3.68542E-04 3.69166E-18
4.02802E-04 3.10832E-18
4.38585E-04 2.63607E-18
4.75889E-04 2.25024E-18
5.14715E-04 1.93259E-18
5.55063E-04 1.66909E-18
5.96931E-04 1.44902E-18
6.40321E-04 1.26409E-18
6.85233E-04 1.10772E-18
7.31665E-04 9.74835E-19
7.79618E-04 8.61267E-19
8.29092E-04 7.63792E-19
8.80086E-04 6.79717E-19
9.32601E-04 6.06912E-19
9.86636E-04 5.43604E-19
1.04219E-03 4.88346E-19
1.09927E-03 4.39944E-19
1.15786E-03 3.97397E-19
1.21797E-03 3.59882E-19
1.27961E-03 3.26696E-19
1.34276E-03 2.97258E-19
1.40743E-03 2.71067E-19
1.47362E-03 2.47706E-19
1.54133E-03 2.26814E-19
1.61056E-03 2.08085E-19
1.68131E-03 1.91255E-19
1.75357E-03 1.76098E-19
1.82735E-03 1.62418E-19
1.90265E-03 1.50045E-19
1.97947E-03 1.38833E-19
2.05780E-03 1.28652E-19
2.13765E-03 1.19392E-19
2.21902E-03 1.10953E-19
2.30190E-03 1.03250E-19
2.38630E-03 9.62067E-20
2.47222E-03 8.97567E-20
2.55965E-03 8.38409E-20
2.64859E-03 7.84067E-20
2.73905E-03 7.34081E-20
2.83103E-03 6.88034E-20
2.92452E-03 6.45562E-20
3.01952E-03 6.06334E-20
3.11604E-03 5.70058E-20
3.21407E-03 5.36467E-20
3.31362E-03 5.05332E-20
3.41468E-03 4.76434E-20
3.51725E-03 4.49588E-20
3.62133E-03 4.24617E-20
3.72692E-03 4.01367E-20
3.83403E-03 3.79699E-20
3.94265E-03 3.59480E-20
4.05278E-03 3.40600E-20
4.16442E-03 3.22953E-20
4.27757E-03 3.06441E-20
4.39223E-03 2.90980E-20
4.50840E-03 2.76487E-20
4.62608E-03 2.62894E-20
4.74527E-03 2.50133E-20
4.86597E-03 2.38141E-20
4.98817E-03 2.26867E-20
5.11188E-03 2.16257E-20
5.23711E-03 2.06265E-20
5.36383E-03 1.96850E-20
5.49207E-03 1.87969E-20
5.62181E-03 1.79589E-20
5.75306E-03 1.71675E-20
5.88581E-03 1.64195E-20
6.02007E-03 1.57123E-20
6.15583E-03 1.50432E-20
6.29310E-03 1.44096E-20
6.43187E-03 1.38094E-20
6.57214E-03 1.32404E-20
6.71392E-03 1.27008E-20
6.85720E-03 1.21886E-20
7.00198E-03 1.17023E-20
7.14827E-03 1.12403E-20
7.29605E-03 1.08011E-20
7.44534E-03 1.03834E-20
7.59612E-03 9.98599E-21
7.97965E-03 9.07339E-21
8.37255E-03 8.26393E-21
8.77480E-03 7.54384E-21
9.18641E-03 6.90151E-21
9.60736E-03 6.32702E-21
1.00376E-02 5.81190E-21
1.04773E-02 5.34892E-21
1.09262E-02 4.93183E-21
1.13844E-02 4.55526E-21
1.18520E-02 4.21453E-21
1.23288E-02 3.90561E-21
1.28150E-02 3.62499E-21
1.33104E-02 3.36958E-21
1.38150E-02 3.13671E-21
1.43290E-02 2.92400E-21
1.48521E-02 2.72939E-21
1.53845E-02 2.55104E-21
1.59262E-02 2.38734E-21
1.64770E-02 2.23686E-21
1.70371E-02 2.09832E-21
1.76063E-02 1.97060E-21
1.81848E-02 1.85269E-21
1.87724E-02 1.74369E-21
1.93692E-02 1.64279E-21
1.99751E-02 1.54929E-21
2.05901E-02 1.46252E-21
2.12143E-02 1.38192E-21
2.18476E-02 1.30695E-21
2.24900E-02 1.23715E-21
2.31415E-02 1.17209E-21
2.38021E-02 1.11139E-21
2.44717E-02 1.05468E-21
2.51504E-02 1.00167E-21
2.58382E-02 9.52055E-22
2.65349E-02 9.05579E-22
2.72407E-02 8.62004E-22
2.79555E-02 8.21112E-22
2.86793E-02 7.82703E-22
2.94120E-02 7.46596E-22
3.01537E-02 7.12626E-22
3.09043E-02 6.80641E-22
3.16639E-02 6.50500E-22
3.24324E-02 6.22075E-22
3.32098E-02 5.95249E-22
3.39961E-02 5.69913E-22
3.47912E-02 5.45967E-22
3.55952E-02 5.23319E-22
3.64081E-02 5.01883E-22
3.72297E-02 4.81583E-22
3.80602E-02 4.62344E-22
3.88995E-02 4.44099E-22
3.97476E-02 4.26788E-22
4.06044E-02 4.10350E-22
4.14700E-02 3.94734E-22
4.23443E-02 3.79889E-22
4.32273E-02 3.65769E-22
4.41190E-02 3.52331E-22
4.50194E-02 3.39535E-22
4.59284E-02 3.27344E-22
4.68461E-02 3.15723E-22
4.87074E-02 2.94064E-22
5.06030E-02 2.74323E-22
5.25328E-02 2.56295E-22
5.44967E-02 2.39800E-22
5.64946E-02 2.24682E-22
5.85262E-02 2.10800E-22
6.05914E-02 1.98033E-22
6.26901E-02 1.86271E-22
6.48222E-02 1.75419E-22
6.69873E-02 1.65392E-22
6.91854E-02 1.56112E-22
7.14163E-02 1.47512E-22
7.36799E-02 1.39531E-22
7.59760E-02 1.32115E-22
7.83043E-02 1.25216E-22
8.06647E-02 1.18788E-22
8.30571E-02 1.12792E-22
8.54812E-02 1.07194E-22
8.79369E-02 1.01960E-22
9.04240E-02 9.70620E-23
9.29422E-02 9.24728E-23
9.54915E-02 8.81687E-23
9.80716E-02 8.41281E-23
1.00682E-01 8.03308E-23
1.03323E-01 7.67588E-23
1.05995E-01 7.33958E-23
1.08696E-01 7.02267E-23
1.11427E-01 6.72376E-23
1.14188E-01 6.44156E-23
1.16978E-01 6.17495E-23
1.19797E-01 5.92287E-23
1.22645E-01 5.68432E-23
1.25522E-01 5.45838E-23
1.28428E-01 5.24425E-23
1.31361E-01 5.04118E-23
1.34323E-01 4.84843E-23
1.37313E-01 4.66533E-23
1.40330E-01 4.49132E-23
1.43375E-01 4.32586E-23
1.46447E-01 4.16835E-23
1.49545E-01 4.01836E-23
1.52671E-01 3.87545E-23
1.55823E-01 3.73920E-23
1.59001E-01 3.60919E-23
1.62205E-01 3.48510E-23
1.65435E-01 3.36658E-23
1.68690E-01 3.25333E-23
1.71970E-01 3.14503E-23
1.75276E-01 3.04143E-23
1.78606E-01 2.94227E-23
1.81961E-01 2.84732E-23
1.85340E-01 2.75634E-23
1.88743E-01 2.66913E-23
1.92169E-01 2.58550E-23
1.95619E-01 2.50526E-23
1.99092E-01 2.42824E-23
2.02589E-01 2.35427E-23
2.06107E-01 2.28322E-23
2.09649E-01 2.21492E-23
2.13212E-01 2.14925E-23
2.16797E-01 2.08608E-23
2.20404E-01 2.02530E-23
2.24032E-01 1.96678E-23
2.27680E-01 1.91042E-23
2.31350E-01 1.85613E-23
2.35040E-01 1.80380E-23
2.38751E-01 1.75335E-23
2.42481E-01 1.70470E-23
2.46231E-01 1.65776E-23
2.50000E-01 1.61245E-23
2.53788E-01 1.56871E-23
2.57595E-01 1.52647E-23
2.61421E-01 1.48567E-23
2.65264E-01 1.44623E-23
2.69126E-01 1.40811E-23
2.73005E-01 1.37125E-23
2.76901E-01 1.33560E-23
2.80814E-01 1.30111E-23
2.84744E-01 1.26772E-23
2.88691E-01 1.23540E-23
2.92653E-01 1.20411E-23
2.96632E-01 1.17380E-23
3.00625E-01 1.14443E-23
3.04634E-01 1.11597E-23
3.08658E-01 1.08838E-23
3.12697E-01 1.06163E-23
3.16749E-01 1.03568E-23
3.20816E-01 1.01051E-23
3.24896E-01 9.86089E-24
3.28990E-01 9.62388E-24
3.33097E-01 9.39378E-24
3.37216E-01 9.17036E-24
3.41348E-01 8.95338E-24
3.45492E-01 8.74259E-24
3.49647E-01 8.53780E-24
3.53814E-01 8.33877E-24
3.57992E-01 8.14531E-24
3.62181E-01 7.95724E-24
3.66381E-01 7.77436E-24
3.70590E-01 7.59650E-24
3.74810E-01 7.42349E-24
3.79039E-01 7.25518E-24
3.83277E-01 7.09143E-24
3.87524E-01 6.93181E-24
3.91780E-01 6.77637E-24
3.96044E-01 6.62502E-24
4.00316E-01 6.47761E-24
4.04596E-01 6.33402E-24
4.08882E-01 6.19413E-24
4.13176E-01 6.05782E-24
4.17476E-01 5.92497E-24
4.21783E-01 5.79547E-24
4.26095E-01 5.66923E-24
4.30413E-01 5.54613E-24
4.34737E-01 5.42609E-24
4.39065E-01 5.30900E-24
4.43398E-01 5.19478E-24
4.47736E-01 5.08334E-24
4.52077E-01 4.97460E-24
4.56422E-01 4.86847E-24
4.60770E-01 4.76489E-24
4.65122E-01 4.66376E-24
4.69476E-01 4.56503E-24
4.73832E-01 4.46862E-24
4.78190E-01 4.37446E-24
4.82550E-01 4.28249E-24
4.86912E-01 4.19265E-24
4.91274E-01 4.10487E-24
4.95637E-01 4.01910E-24
5.00000E-01 3.93529E-24
5.04363E-01 3.85337E-24
5.08726E-01 3.77329E-24
5.13088E-01 3.69501E-24
5.17450E-01 3.61848E-24
5.21810E-01 3.54364E-24
5.26168E-01 3.47045E-24
5.30524E-01 3.39887E-24
5.34878E-01 3.32885E-24
5.39230E-01 3.26036E-24
5.43578E-01 3.19335E-24
5.47923E-01 3.12778E-24
5.52264E-01 3.06361E-24
5.56602E-01 3.00082E-24
5.60935E-01 2.93936E-24
5.65263E-01 2.87919E-24
5.69587E-01 2.82030E-24
5.73905E-01 2.76264E-24
5.78217E-01 2.70618E-24
5.82524E-01 2.65089E-24
5.86824E-01 2.59675E-24
5.91118E-01 2.54372E-24
5.95404E-01 2.49178E-24
5.99684E-01 2.44090E-24
6.03956E-01 2.39106E-24
6.08220E-01 2.34223E-24
6.12476E-01 2.29438E-24
6.16723E-01 2.24749E-24
6.20961E-01 2.20155E-24
6.25190E-01 2.15652E-24
6.29410E-01 2.11238E-24
6.33619E-01 2.06912E-24
6.37819E-01 2.02672E-24
6.42008E-01 1.98515E-24
6.46186E-01 1.94439E-24
6.50353E-01 1.90443E-24
6.54508E-01 1.86524E-24
6.58652E-01 1.82682E-24
6.62784E-01 1.78914E-24
6.66903E-01 1.75219E-24
6.71010E-01 1.71594E-24
6.75104E-01 1.68039E-24
6.79184E-01 1.64552E-24
6.83251E-01 1.61132E-24
6.87303E-01 1.57776E-24
6.91342E-01 1.54484E-24
6.95366E-01 1.51254E-24
6.99375E-01 1.48085E-24
7.03368E-01 1.44975E-24
7.07347E-01 1.41924E-24
7.11309E-01 1.38930E-24
7.15256E-01 1.35991E-24
7.19186E-01 1.33108E-24
7.23099E-01 1.30277E-24
7.26995E-01 1.27499E-24
7.30874E-01 1.24773E-24
7.34736E-01 1.22097E-24
7.38579E-01 1.19470E-24
7.42405E-01 1.16891E-24
7.46212E-01 1.14360E-24
7.50000E-01 1.11875E-24
7.53769E-01 1.09436E-24
7.57519E-01 1.07041E-24
7.61249E-01 1.04689E-24
7.64960E-01 1.02381E-24
7.68650E-01 1.00114E-24
7.72320E-01 9.78886E-25
7.75968E-01 9.57036E-25
7.79596E-01 9.35582E-25
7.83203E-01 9.14516E-25
7.86788E-01 8.93831E-25
7.90351E-01 8.73520E-25
7.93893E-01 8.53576E-25
7.97411E-01 8.33992E-25
8.00908E-01 8.14762E-25
8.04381E-01 7.95879E-25
8.07831E-01 7.77336E-25
8.11257E-01 7.59128E-25
8.14660E-01 7.41249E-25
8.18039E-01 7.23692E-25
8.21394E-01 7.06452E-25
8.24724E-01 6.89524E-25
8.28030E-01 6.72901E-25
8.31310E-01 6.56579E-25
8.34565E-01 6.40553E-25
8.37795E-01 6.24816E-25
8.40999E-01 6.09365E-25
8.44177E-01 5.94195E-25
8.47329E-01 5.79300E-25
8.50455E-01 5.64677E-25
8.53553E-01 5.50320E-25
8.56625E-01 5.36226E-25
8.59670E-01 5.22390E-25
8.62687E-01 5.08807E-25
8.65677E-01 4.95475E-25
8.68639E-01 4.82388E-25
8.71572E-01 4.69543E-25
8.74478E-01 4.56936E-25
8.77355E-01 4.44564E-25
8.80203E-01 4.32422E-25
8.83022E-01 4.20507E-25
8.85812E-01 4.08817E-25
8.88573E-01 3.97346E-25
8.91304E-01 3.86093E-25
8.94005E-01 3.75054E-25
8.96677E-01 3.64225E-25
8.99318E-01 3.53604E-25
9.01928E-01 3.43188E-25
9.04508E-01 3.32974E-25
9.07058E-01 3.22958E-25
9.09576E-01 3.13139E-25
9.12063E-01 3.03513E-25
9.14519E-01 2.94079E-25
9.16943E-01 2.84832E-25
9.19335E-01 2.75771E-25
9.21696E-01 2.66893E-25
9.24024E-01 2.58196E-25
9.26320E-01 2.49677E-25
9.28584E-01 2.41335E-25
9.30815E-01 2.33167E-25
9.33013E-01 2.25170E-25
9.35178E-01 2.17344E-25
9.37310E-01 2.09684E-25
9.39409E-01 2.02191E-25
9.41474E-01 1.94861E-25
9.43505E-01 1.87693E-25
9.45503E-01 1.80684E-25
9.47467E-01 1.73834E-25
9.49397E-01 1.67140E-25
9.51293E-01 1.60601E-25
9.53154E-01 1.54214E-25
9.54981E-01 1.47979E-25
9.56773E-01 1.41893E-25
9.58530E-01 1.35955E-25
9.60252E-01 1.30164E-25
9.61940E-01 1.24518E-25
9.63592E-01 1.19016E-25
9.65209E-01 1.13656E-25
9.66790E-01 1.08437E-25
9.68336E-01 1.03358E-25
9.69846E-01 9.84176E-26
9.71321E-01 9.36140E-26
9.72759E-01 8.89465E-26
9.74162E-01 8.44138E-26
9.75528E-01 8.00148E-26
9.76858E-01 7.57485E-26
9.78152E-01 7.16138E-26
9.79410E-01 6.76097E-26
9.80631E-01 6.37352E-26
9.81815E-01 5.99894E-26
9.82963E-01 5.63714E-26
9.84074E-01 5.28802E-26
9.85148E-01 4.95151E-26
9.86185E-01 4.62751E-26
9.87185E-01 4.31597E-26
9.88148E-01 4.01679E-26
9.89074E-01 3.72991E-26
9.89962E-01 3.45525E-26
9.90814E-01 3.19276E-26
9.91627E-01 2.94237E-26
9.92404E-01 2.70402E-26
9.93143E-01 2.47765E-26
9.93844E-01 2.26322E-26
9.94508E-01 2.06065E-26
9.95134E-01 1.86992E-26
9.95722E-01 1.69098E-26
9.96273E-01 1.52377E-26
9.96786E-01 1.36827E-26
9.97261E-01 1.22443E-26
9.97698E-01 1.09223E-26
9.98097E-01 9.71622E-27
9.98459E-01 8.62589E-27
9.98782E-01 7.65102E-27
9.99067E-01 6.79138E-27
9.99315E-01 6.04677E-27
9.99524E-01 5.41701E-27
9.99695E-01 4.90195E-27
9.99829E-01 4.50148E-27
9.99924E-01 4.21549E-27
9.99981E-01 4.04393E-27
1.00000E+00 3.98674E-27
