 #
 # Subroutine ELSEPA. Elastic scattering of electrons and positrons
 #                    by neutral atoms and positive ions
 #
 # Projectile: electron
 # Kinetic energy = 2.00000E+07 eV = 7.34987E+05 a.u.
 #
 # WARNING: High-energy factorization with free-atom DF screening.
 #          Absorption, polarization and exchange corrections are
 #          switched off.
 #          Phase shifts are calculated for the bare nucleus.
 #          Scattering amplitudes are not evaluated.
 #
 # Element: Fr,  Z =  87,  atomic weight = 2.23020E+02 g/mol
 #
 # Nuclear model: Fermi distribution
 #                Average radius = 6.48881E-13 cm
 #                Skin thickness = 5.46000E-14 cm
 #
 # Number of electrons = 87
 #
 # Total elastic cross section = 1.04270E-17 cm**2 = 3.72356E-01 a0**2
 # 1st transport cross section = 3.39498E-23 cm**2 = 1.21237E-06 a0**2
 # 2nd transport cross section = 9.51738E-23 cm**2 = 3.39872E-06 a0**2
 #
 #
 # Differential cross section:                       MU=(1-COS(THETA))/2
 #
 #  THETA        MU          DCS          DCS        Sherman      error
 #  (deg)                 (cm**2/sr)   (a0**2/sr)    function
 #----------------------------------------------------------------------
0.00000E+00 5.28580E-11
7.61557E-13 5.28443E-11
1.18994E-12 5.28367E-11
1.71346E-12 5.28273E-11
2.33225E-12 5.28163E-11
3.04617E-12 5.28036E-11
3.85530E-12 5.27892E-11
4.75964E-12 5.27731E-11
5.75917E-12 5.27553E-11
6.85391E-12 5.27359E-11
8.04379E-12 5.27147E-11
9.32893E-12 5.26920E-11
1.07092E-11 5.26675E-11
1.21847E-11 5.26414E-11
1.37554E-11 5.26136E-11
1.54213E-11 5.25842E-11
1.71823E-11 5.25531E-11
1.90386E-11 5.25204E-11
2.09900E-11 5.24861E-11
2.30367E-11 5.24501E-11
2.51785E-11 5.24125E-11
2.74156E-11 5.23733E-11
2.97478E-11 5.23325E-11
3.21752E-11 5.22901E-11
3.46979E-11 5.22461E-11
3.73157E-11 5.22005E-11
4.00286E-11 5.21533E-11
4.28368E-11 5.21046E-11
4.57402E-11 5.20543E-11
4.87388E-11 5.20025E-11
5.18325E-11 5.19491E-11
5.50215E-11 5.18942E-11
5.83057E-11 5.18377E-11
6.16850E-11 5.17798E-11
6.51595E-11 5.17203E-11
6.87293E-11 5.16594E-11
7.23943E-11 5.15969E-11
7.61544E-11 5.15330E-11
1.18991E-10 5.08156E-11
1.71347E-10 4.99646E-11
2.33223E-10 4.89938E-11
3.04617E-10 4.79183E-11
3.85531E-10 4.67542E-11
4.75965E-10 4.55175E-11
5.75917E-10 4.42342E-11
6.85389E-10 4.29167E-11
8.04380E-10 4.15423E-11
9.32891E-10 4.01766E-11
1.07092E-09 3.88095E-11
1.21847E-09 3.74170E-11
1.37554E-09 3.60969E-11
1.54213E-09 3.47728E-11
1.71823E-09 3.34711E-11
1.90386E-09 3.22399E-11
2.09900E-09 3.10166E-11
2.30367E-09 2.98548E-11
2.51785E-09 2.87417E-11
2.74156E-09 2.76466E-11
2.97478E-09 2.66356E-11
3.21752E-09 2.56514E-11
3.46978E-09 2.47035E-11
3.73156E-09 2.38209E-11
4.00286E-09 2.29618E-11
4.28368E-09 2.21504E-11
4.57402E-09 2.13807E-11
4.87388E-09 2.06348E-11
5.18326E-09 1.99385E-11
5.50215E-09 1.92683E-11
5.83057E-09 1.86249E-11
6.16850E-09 1.80184E-11
6.51596E-09 1.74335E-11
6.87293E-09 1.68755E-11
7.23942E-09 1.63428E-11
7.61544E-09 1.58301E-11
1.18991E-08 1.16984E-11
1.71347E-08 8.80531E-12
2.33223E-08 6.71042E-12
3.04617E-08 5.17417E-12
3.85531E-08 4.04120E-12
4.75965E-08 3.20052E-12
5.75917E-08 2.55974E-12
6.85389E-08 2.07031E-12
8.04380E-08 1.71316E-12
9.32891E-08 1.42382E-12
1.07092E-07 1.19340E-12
1.21847E-07 1.01671E-12
1.37554E-07 8.62296E-13
1.54213E-07 7.40284E-13
1.71823E-07 6.40518E-13
1.90386E-07 5.53846E-13
2.09900E-07 4.83737E-13
2.30367E-07 4.23429E-13
2.51785E-07 3.71982E-13
2.74156E-07 3.29347E-13
2.97478E-07 2.91378E-13
3.21752E-07 2.59324E-13
3.46978E-07 2.31872E-13
3.73156E-07 2.07492E-13
4.00286E-07 1.86681E-13
4.28368E-07 1.68316E-13
4.57402E-07 1.52130E-13
4.87388E-07 1.38115E-13
5.18325E-07 1.25427E-13
5.50215E-07 1.14299E-13
5.83057E-07 1.04461E-13
6.16850E-07 9.55147E-14
6.51596E-07 8.76262E-14
6.87293E-07 8.04949E-14
7.23942E-07 7.40463E-14
7.61543E-07 6.83088E-14
1.18991E-06 3.25754E-14
1.71347E-06 1.73203E-14
2.33223E-06 1.00594E-14
3.04617E-06 6.25184E-15
3.85531E-06 4.09634E-15
4.75964E-06 2.79908E-15
5.75916E-06 1.97621E-15
6.85388E-06 1.43666E-15
8.04378E-06 1.06978E-15
9.32888E-06 8.13210E-16
1.07092E-05 6.29380E-16
1.21846E-05 4.94709E-16
1.37553E-05 3.94234E-16
1.54212E-05 3.18020E-16
1.71822E-05 2.59346E-16
1.90385E-05 2.13435E-16
2.09899E-05 1.77477E-16
2.30365E-05 1.48735E-16
2.51783E-05 1.25530E-16
2.74153E-05 1.06641E-16
2.97475E-05 9.11581E-17
3.21749E-05 7.83855E-17
3.46974E-05 6.77829E-17
3.73152E-05 5.89249E-17
4.00281E-05 5.14771E-17
4.28362E-05 4.51746E-17
4.57395E-05 3.98091E-17
4.87380E-05 3.52166E-17
5.18317E-05 3.12669E-17
5.50205E-05 2.78556E-17
5.83045E-05 2.48975E-17
6.16838E-05 2.23228E-17
6.51582E-05 2.00737E-17
6.87277E-05 1.81018E-17
7.23925E-05 1.63669E-17
7.61524E-05 1.48322E-17
9.21439E-05 1.02386E-17
1.09658E-04 7.29277E-18
1.28695E-04 5.33389E-18
1.49255E-04 3.99032E-18
1.71338E-04 3.04420E-18
1.94942E-04 2.36252E-18
2.20070E-04 1.86140E-18
2.46720E-04 1.48640E-18
2.74892E-04 1.20133E-18
3.04586E-04 9.81476E-19
3.35803E-04 8.09755E-19
3.68542E-04 6.74040E-19
4.02802E-04 5.65643E-19
4.38585E-04 4.78221E-19
4.75889E-04 4.07078E-19
5.14715E-04 3.48714E-19
5.55063E-04 3.00459E-19
5.96931E-04 2.60290E-19
6.40321E-04 2.26627E-19
6.85233E-04 1.98246E-19
7.31665E-04 1.74181E-19
7.79618E-04 1.53668E-19
8.29092E-04 1.36095E-19
8.80086E-04 1.20969E-19
9.32601E-04 1.07893E-19
9.86636E-04 9.65417E-20
1.04219E-03 8.66482E-20
1.09927E-03 7.79943E-20
1.15786E-03 7.03968E-20
1.21797E-03 6.37055E-20
1.27961E-03 5.77928E-20
1.34276E-03 5.25528E-20
1.40743E-03 4.78953E-20
1.47362E-03 4.37444E-20
1.54133E-03 4.00351E-20
1.61056E-03 3.67123E-20
1.68131E-03 3.37284E-20
1.75357E-03 3.10430E-20
1.82735E-03 2.86205E-20
1.90265E-03 2.64309E-20
1.97947E-03 2.44476E-20
2.05780E-03 2.26478E-20
2.13765E-03 2.10113E-20
2.21902E-03 1.95208E-20
2.30190E-03 1.81608E-20
2.38630E-03 1.69178E-20
2.47222E-03 1.57800E-20
2.55965E-03 1.47367E-20
2.64859E-03 1.37788E-20
2.73905E-03 1.28979E-20
2.83103E-03 1.20867E-20
2.92452E-03 1.13387E-20
3.01952E-03 1.06481E-20
3.11604E-03 1.00096E-20
3.21407E-03 9.41855E-21
3.31362E-03 8.87081E-21
3.41468E-03 8.36261E-21
3.51725E-03 7.89056E-21
3.62133E-03 7.45162E-21
3.72692E-03 7.04301E-21
3.83403E-03 6.66225E-21
3.94265E-03 6.30710E-21
4.05278E-03 5.97551E-21
4.16442E-03 5.66560E-21
4.27757E-03 5.37571E-21
4.39223E-03 5.10429E-21
4.50840E-03 4.84996E-21
4.62608E-03 4.61141E-21
4.74527E-03 4.38750E-21
4.86597E-03 4.17714E-21
4.98817E-03 3.97938E-21
5.11188E-03 3.79330E-21
5.23711E-03 3.61809E-21
5.36383E-03 3.45298E-21
5.49207E-03 3.29729E-21
5.62181E-03 3.15038E-21
5.75306E-03 3.01166E-21
5.88581E-03 2.88057E-21
6.02007E-03 2.75663E-21
6.15583E-03 2.63936E-21
6.29310E-03 2.52833E-21
6.43187E-03 2.42316E-21
6.57214E-03 2.32347E-21
6.71392E-03 2.22892E-21
6.85720E-03 2.13920E-21
7.00198E-03 2.05401E-21
7.14827E-03 1.97307E-21
7.29605E-03 1.89614E-21
7.44534E-03 1.82297E-21
7.59612E-03 1.75335E-21
7.97965E-03 1.59349E-21
8.37255E-03 1.45170E-21
8.77480E-03 1.32557E-21
9.18641E-03 1.21304E-21
9.60736E-03 1.11239E-21
1.00376E-02 1.02213E-21
1.04773E-02 9.40997E-22
1.09262E-02 8.67893E-22
1.13844E-02 8.01877E-22
1.18520E-02 7.42134E-22
1.23288E-02 6.87955E-22
1.28150E-02 6.38727E-22
1.33104E-02 5.93910E-22
1.38150E-02 5.53034E-22
1.43290E-02 5.15688E-22
1.48521E-02 4.81508E-22
1.53845E-02 4.50174E-22
1.59262E-02 4.21403E-22
1.64770E-02 3.94947E-22
1.70371E-02 3.70582E-22
1.76063E-02 3.48110E-22
1.81848E-02 3.27356E-22
1.87724E-02 3.08164E-22
1.93692E-02 2.90392E-22
1.99751E-02 2.73914E-22
2.05901E-02 2.58618E-22
2.12143E-02 2.44402E-22
2.18476E-02 2.31174E-22
2.24900E-02 2.18854E-22
2.31415E-02 2.07365E-22
2.38021E-02 1.96639E-22
2.44717E-02 1.86618E-22
2.51504E-02 1.77244E-22
2.58382E-02 1.68467E-22
2.65349E-02 1.60243E-22
2.72407E-02 1.52527E-22
2.79555E-02 1.45284E-22
2.86793E-02 1.38478E-22
2.94120E-02 1.32077E-22
3.01537E-02 1.26053E-22
3.09043E-02 1.20378E-22
3.16639E-02 1.15028E-22
3.24324E-02 1.09980E-22
3.32098E-02 1.05215E-22
3.39961E-02 1.00713E-22
3.47912E-02 9.64554E-23
3.55952E-02 9.24276E-23
3.64081E-02 8.86139E-23
3.72297E-02 8.50008E-23
3.80602E-02 8.15755E-23
3.88995E-02 7.83260E-23
3.97476E-02 7.52416E-23
4.06044E-02 7.23121E-23
4.14700E-02 6.95279E-23
4.23443E-02 6.68805E-23
4.32273E-02 6.43615E-23
4.41190E-02 6.19636E-23
4.50194E-02 5.96796E-23
4.59284E-02 5.75029E-23
4.68461E-02 5.54275E-23
4.87074E-02 5.15579E-23
5.06030E-02 4.80294E-23
5.25328E-02 4.48059E-23
5.44967E-02 4.18556E-23
5.64946E-02 3.91507E-23
5.85262E-02 3.66666E-23
6.05914E-02 3.43817E-23
6.26901E-02 3.22768E-23
6.48222E-02 3.03352E-23
6.69873E-02 2.85404E-23
6.91854E-02 2.68781E-23
7.14163E-02 2.53378E-23
7.36799E-02 2.39087E-23
7.59760E-02 2.25810E-23
7.83043E-02 2.13460E-23
8.06647E-02 2.01959E-23
8.30571E-02 1.91237E-23
8.54812E-02 1.81230E-23
8.79369E-02 1.71879E-23
9.04240E-02 1.63133E-23
9.29422E-02 1.54945E-23
9.54915E-02 1.47271E-23
9.80716E-02 1.40072E-23
1.00682E-01 1.33313E-23
1.03323E-01 1.26961E-23
1.05995E-01 1.20987E-23
1.08696E-01 1.15362E-23
1.11427E-01 1.10063E-23
1.14188E-01 1.05067E-23
1.16978E-01 1.00353E-23
1.19797E-01 9.59006E-24
1.22645E-01 9.16934E-24
1.25522E-01 8.77147E-24
1.28428E-01 8.39496E-24
1.31361E-01 8.03841E-24
1.34323E-01 7.70055E-24
1.37313E-01 7.38020E-24
1.40330E-01 7.07625E-24
1.43375E-01 6.78770E-24
1.46447E-01 6.51360E-24
1.49545E-01 6.25308E-24
1.52671E-01 6.00533E-24
1.55823E-01 5.76960E-24
1.59001E-01 5.54517E-24
1.62205E-01 5.33141E-24
1.65435E-01 5.12769E-24
1.68690E-01 4.93346E-24
1.71970E-01 4.74817E-24
1.75276E-01 4.57134E-24
1.78606E-01 4.40251E-24
1.81961E-01 4.24122E-24
1.85340E-01 4.08709E-24
1.88743E-01 3.93974E-24
1.92169E-01 3.79879E-24
1.95619E-01 3.66393E-24
1.99092E-01 3.53483E-24
2.02589E-01 3.41120E-24
2.06107E-01 3.29277E-24
2.09649E-01 3.17927E-24
2.13212E-01 3.07045E-24
2.16797E-01 2.96610E-24
2.20404E-01 2.86598E-24
2.24032E-01 2.76990E-24
2.27680E-01 2.67765E-24
2.31350E-01 2.58906E-24
2.35040E-01 2.50396E-24
2.38751E-01 2.42218E-24
2.42481E-01 2.34357E-24
2.46231E-01 2.26797E-24
2.50000E-01 2.19527E-24
2.53788E-01 2.12531E-24
2.57595E-01 2.05799E-24
2.61421E-01 1.99318E-24
2.65264E-01 1.93077E-24
2.69126E-01 1.87066E-24
2.73005E-01 1.81274E-24
2.76901E-01 1.75693E-24
2.80814E-01 1.70313E-24
2.84744E-01 1.65126E-24
2.88691E-01 1.60123E-24
2.92653E-01 1.55297E-24
2.96632E-01 1.50640E-24
3.00625E-01 1.46146E-24
3.04634E-01 1.41807E-24
3.08658E-01 1.37618E-24
3.12697E-01 1.33573E-24
3.16749E-01 1.29665E-24
3.20816E-01 1.25889E-24
3.24896E-01 1.22240E-24
3.28990E-01 1.18713E-24
3.33097E-01 1.15303E-24
3.37216E-01 1.12006E-24
3.41348E-01 1.08817E-24
3.45492E-01 1.05733E-24
3.49647E-01 1.02748E-24
3.53814E-01 9.98599E-25
3.57992E-01 9.70645E-25
3.62181E-01 9.43584E-25
3.66381E-01 9.17382E-25
3.70590E-01 8.92008E-25
3.74810E-01 8.67432E-25
3.79039E-01 8.43624E-25
3.83277E-01 8.20557E-25
3.87524E-01 7.98203E-25
3.91780E-01 7.76538E-25
3.96044E-01 7.55537E-25
4.00316E-01 7.35176E-25
4.04596E-01 7.15432E-25
4.08882E-01 6.96284E-25
4.13176E-01 6.77712E-25
4.17476E-01 6.59695E-25
4.21783E-01 6.42214E-25
4.26095E-01 6.25251E-25
4.30413E-01 6.08787E-25
4.34737E-01 5.92807E-25
4.39065E-01 5.77294E-25
4.43398E-01 5.62232E-25
4.47736E-01 5.47605E-25
4.52077E-01 5.33400E-25
4.56422E-01 5.19603E-25
4.60770E-01 5.06200E-25
4.65122E-01 4.93178E-25
4.69476E-01 4.80525E-25
4.73832E-01 4.68228E-25
4.78190E-01 4.56277E-25
4.82550E-01 4.44660E-25
4.86912E-01 4.33367E-25
4.91274E-01 4.22387E-25
4.95637E-01 4.11710E-25
5.00000E-01 4.01327E-25
5.04363E-01 3.91228E-25
5.08726E-01 3.81404E-25
5.13088E-01 3.71848E-25
5.17450E-01 3.62551E-25
5.21810E-01 3.53504E-25
5.26168E-01 3.44700E-25
5.30524E-01 3.36132E-25
5.34878E-01 3.27792E-25
5.39230E-01 3.19674E-25
5.43578E-01 3.11770E-25
5.47923E-01 3.04075E-25
5.52264E-01 2.96582E-25
5.56602E-01 2.89285E-25
5.60935E-01 2.82178E-25
5.65263E-01 2.75256E-25
5.69587E-01 2.68513E-25
5.73905E-01 2.61944E-25
5.78217E-01 2.55544E-25
5.82524E-01 2.49308E-25
5.86824E-01 2.43231E-25
5.91118E-01 2.37308E-25
5.95404E-01 2.31536E-25
5.99684E-01 2.25910E-25
6.03956E-01 2.20425E-25
6.08220E-01 2.15078E-25
6.12476E-01 2.09864E-25
6.16723E-01 2.04781E-25
6.20961E-01 1.99823E-25
6.25190E-01 1.94989E-25
6.29410E-01 1.90274E-25
6.33619E-01 1.85675E-25
6.37819E-01 1.81188E-25
6.42008E-01 1.76812E-25
6.46186E-01 1.72542E-25
6.50353E-01 1.68376E-25
6.54508E-01 1.64311E-25
6.58652E-01 1.60344E-25
6.62784E-01 1.56473E-25
6.66903E-01 1.52694E-25
6.71010E-01 1.49006E-25
6.75104E-01 1.45406E-25
6.79184E-01 1.41892E-25
6.83251E-01 1.38461E-25
6.87303E-01 1.35111E-25
6.91342E-01 1.31841E-25
6.95366E-01 1.28647E-25
6.99375E-01 1.25528E-25
7.03368E-01 1.22483E-25
7.07347E-01 1.19508E-25
7.11309E-01 1.16603E-25
7.15256E-01 1.13765E-25
7.19186E-01 1.10993E-25
7.23099E-01 1.08285E-25
7.26995E-01 1.05639E-25
7.30874E-01 1.03054E-25
7.34736E-01 1.00528E-25
7.38579E-01 9.80606E-26
7.42405E-01 9.56492E-26
7.46212E-01 9.32926E-26
7.50000E-01 9.09896E-26
7.53769E-01 8.87388E-26
7.57519E-01 8.65389E-26
7.61249E-01 8.43887E-26
7.64960E-01 8.22869E-26
7.68650E-01 8.02324E-26
7.72320E-01 7.82239E-26
7.75968E-01 7.62605E-26
7.79596E-01 7.43409E-26
7.83203E-01 7.24642E-26
7.86788E-01 7.06292E-26
7.90351E-01 6.88351E-26
7.93893E-01 6.70808E-26
7.97411E-01 6.53653E-26
8.00908E-01 6.36878E-26
8.04381E-01 6.20474E-26
8.07831E-01 6.04432E-26
8.11257E-01 5.88744E-26
8.14660E-01 5.73401E-26
8.18039E-01 5.58395E-26
8.21394E-01 5.43719E-26
8.24724E-01 5.29365E-26
8.28030E-01 5.15326E-26
8.31310E-01 5.01594E-26
8.34565E-01 4.88163E-26
8.37795E-01 4.75025E-26
8.40999E-01 4.62175E-26
8.44177E-01 4.49606E-26
8.47329E-01 4.37311E-26
8.50455E-01 4.25285E-26
8.53553E-01 4.13522E-26
8.56625E-01 4.02016E-26
8.59670E-01 3.90761E-26
8.62687E-01 3.79752E-26
8.65677E-01 3.68983E-26
8.68639E-01 3.58451E-26
8.71572E-01 3.48148E-26
8.74478E-01 3.38072E-26
8.77355E-01 3.28216E-26
8.80203E-01 3.18577E-26
8.83022E-01 3.09150E-26
8.85812E-01 2.99930E-26
8.88573E-01 2.90914E-26
8.91304E-01 2.82096E-26
8.94005E-01 2.73474E-26
8.96677E-01 2.65043E-26
8.99318E-01 2.56799E-26
9.01928E-01 2.48740E-26
9.04508E-01 2.40860E-26
9.07058E-01 2.33157E-26
9.09576E-01 2.25627E-26
9.12063E-01 2.18267E-26
9.14519E-01 2.11074E-26
9.16943E-01 2.04044E-26
9.19335E-01 1.97175E-26
9.21696E-01 1.90463E-26
9.24024E-01 1.83906E-26
9.26320E-01 1.77501E-26
9.28584E-01 1.71244E-26
9.30815E-01 1.65135E-26
9.33013E-01 1.59169E-26
9.35178E-01 1.53344E-26
9.37310E-01 1.47659E-26
9.39409E-01 1.42110E-26
9.41474E-01 1.36695E-26
9.43505E-01 1.31412E-26
9.45503E-01 1.26259E-26
9.47467E-01 1.21234E-26
9.49397E-01 1.16335E-26
9.51293E-01 1.11559E-26
9.53154E-01 1.06905E-26
9.54981E-01 1.02370E-26
9.56773E-01 9.79541E-27
9.58530E-01 9.36541E-27
9.60252E-01 8.94686E-27
9.61940E-01 8.53960E-27
9.63592E-01 8.14347E-27
9.65209E-01 7.75830E-27
9.66790E-01 7.38396E-27
9.68336E-01 7.02029E-27
9.69846E-01 6.66714E-27
9.71321E-01 6.32439E-27
9.72759E-01 5.99189E-27
9.74162E-01 5.66953E-27
9.75528E-01 5.35717E-27
9.76858E-01 5.05469E-27
9.78152E-01 4.76198E-27
9.79410E-01 4.47893E-27
9.80631E-01 4.20543E-27
9.81815E-01 3.94137E-27
9.82963E-01 3.68666E-27
9.84074E-01 3.44119E-27
9.85148E-01 3.20488E-27
9.86185E-01 2.97764E-27
9.87185E-01 2.75937E-27
9.88148E-01 2.55001E-27
9.89074E-01 2.34946E-27
9.89962E-01 2.15766E-27
9.90814E-01 1.97454E-27
9.91627E-01 1.80002E-27
9.92404E-01 1.63404E-27
9.93143E-01 1.47654E-27
9.93844E-01 1.32746E-27
9.94508E-01 1.18675E-27
9.95134E-01 1.05435E-27
9.95722E-01 9.30215E-28
9.96273E-01 8.14302E-28
9.96786E-01 7.06566E-28
9.97261E-01 6.06968E-28
9.97698E-01 5.15471E-28
9.98097E-01 4.32042E-28
9.98459E-01 3.56649E-28
9.98782E-01 2.89267E-28
9.99067E-01 2.29870E-28
9.99315E-01 1.78435E-28
9.99524E-01 1.34946E-28
9.99695E-01 9.93852E-29
9.99829E-01 7.17403E-29
9.99924E-01 5.20011E-29
9.99981E-01 4.01605E-29
1.00000E+00 3.62141E-29
