 #
 # Subroutine ELSEPA. Elastic scattering of electrons and positrons
 #                    by neutral atoms and positive ions
 #
 # Projectile: electron
 # Kinetic energy = 2.50000E+06 eV = 9.18733E+04 a.u.
 #
 # WARNING: High-energy factorization with free-atom DF screening.
 #          Absorption, polarization and exchange corrections are
 #          switched off.
 #          Phase shifts are calculated for the bare nucleus.
 #          Scattering amplitudes are not evaluated.
 #
 # Element: Fr,  Z =  87,  atomic weight = 2.23020E+02 g/mol
 #
 # Nuclear model: Fermi distribution
 #                Average radius = 6.48881E-13 cm
 #                Skin thickness = 5.46000E-14 cm
 #
 # Number of electrons = 87
 #
 # Total elastic cross section = 1.07491E-17 cm**2 = 3.83858E-01 a0**2
 # 1st transport cross section = 1.35924E-21 cm**2 = 4.85392E-05 a0**2
 # 2nd transport cross section = 3.53041E-21 cm**2 = 1.26073E-04 a0**2
 #
 #
 # Differential cross section:                       MU=(1-COS(THETA))/2
 #
 #  THETA        MU          DCS          DCS        Sherman      error
 #  (deg)                 (cm**2/sr)   (a0**2/sr)    function
 #----------------------------------------------------------------------
0.00000E+00 1.13909E-12
7.61557E-13 1.13908E-12
1.18994E-12 1.13908E-12
1.71346E-12 1.13908E-12
2.33225E-12 1.13907E-12
3.04617E-12 1.13907E-12
3.85530E-12 1.13906E-12
4.75964E-12 1.13905E-12
5.75917E-12 1.13904E-12
6.85391E-12 1.13904E-12
8.04379E-12 1.13903E-12
9.32893E-12 1.13902E-12
1.07092E-11 1.13901E-12
1.21847E-11 1.13899E-12
1.37554E-11 1.13898E-12
1.54213E-11 1.13897E-12
1.71823E-11 1.13895E-12
1.90386E-11 1.13894E-12
2.09900E-11 1.13892E-12
2.30367E-11 1.13891E-12
2.51785E-11 1.13889E-12
2.74156E-11 1.13887E-12
2.97478E-11 1.13885E-12
3.21752E-11 1.13883E-12
3.46979E-11 1.13881E-12
3.73157E-11 1.13879E-12
4.00286E-11 1.13877E-12
4.28368E-11 1.13875E-12
4.57402E-11 1.13873E-12
4.87388E-11 1.13870E-12
5.18325E-11 1.13868E-12
5.50215E-11 1.13865E-12
5.83057E-11 1.13862E-12
6.16850E-11 1.13860E-12
6.51595E-11 1.13857E-12
6.87293E-11 1.13854E-12
7.23943E-11 1.13851E-12
7.61544E-11 1.13848E-12
1.18991E-10 1.13814E-12
1.71347E-10 1.13772E-12
2.33223E-10 1.13722E-12
3.04617E-10 1.13665E-12
3.85531E-10 1.13601E-12
4.75965E-10 1.13529E-12
5.75917E-10 1.13449E-12
6.85389E-10 1.13362E-12
8.04380E-10 1.13267E-12
9.32891E-10 1.13165E-12
1.07092E-09 1.13056E-12
1.21847E-09 1.12939E-12
1.37554E-09 1.12815E-12
1.54213E-09 1.12684E-12
1.71823E-09 1.12545E-12
1.90386E-09 1.12400E-12
2.09900E-09 1.12247E-12
2.30367E-09 1.12088E-12
2.51785E-09 1.11921E-12
2.74156E-09 1.11747E-12
2.97478E-09 1.11567E-12
3.21752E-09 1.11380E-12
3.46978E-09 1.11186E-12
3.73156E-09 1.10986E-12
4.00286E-09 1.10779E-12
4.28368E-09 1.10565E-12
4.57402E-09 1.10345E-12
4.87388E-09 1.10119E-12
5.18326E-09 1.09886E-12
5.50215E-09 1.09648E-12
5.83057E-09 1.09403E-12
6.16850E-09 1.09152E-12
6.51596E-09 1.08895E-12
6.87293E-09 1.08633E-12
7.23942E-09 1.08364E-12
7.61544E-09 1.08091E-12
1.18991E-08 1.05062E-12
1.71347E-08 1.01579E-12
2.33223E-08 9.77441E-13
3.04617E-08 9.37137E-13
3.85531E-08 8.94627E-13
4.75965E-08 8.52126E-13
5.75917E-08 8.08931E-13
6.85389E-08 7.67606E-13
8.04380E-08 7.26421E-13
9.32891E-08 6.88041E-13
1.07092E-07 6.50607E-13
1.21847E-07 6.15864E-13
1.37554E-07 5.82727E-13
1.54213E-07 5.51921E-13
1.71823E-07 5.23020E-13
1.90386E-07 4.96020E-13
2.09900E-07 4.70961E-13
2.30367E-07 4.47412E-13
2.51785E-07 4.25666E-13
2.74156E-07 4.05126E-13
2.97478E-07 3.86158E-13
3.21752E-07 3.68220E-13
3.46978E-07 3.51511E-13
3.73156E-07 3.35738E-13
4.00286E-07 3.20926E-13
4.28368E-07 3.06938E-13
4.57402E-07 2.93738E-13
4.87388E-07 2.81237E-13
5.18325E-07 2.69415E-13
5.50215E-07 2.58168E-13
5.83057E-07 2.47534E-13
6.16850E-07 2.37359E-13
6.51596E-07 2.27756E-13
6.87293E-07 2.18516E-13
7.23942E-07 2.09787E-13
7.61543E-07 2.01401E-13
1.18991E-06 1.35978E-13
1.71347E-06 9.41311E-14
2.33223E-06 6.70545E-14
3.04617E-06 4.87188E-14
3.85531E-06 3.68090E-14
4.75964E-06 2.82152E-14
5.75916E-06 2.22222E-14
6.85388E-06 1.75801E-14
8.04378E-06 1.42288E-14
9.32888E-06 1.15364E-14
1.07092E-05 9.51424E-15
1.21846E-05 7.88230E-15
1.37553E-05 6.60687E-15
1.54212E-05 5.57299E-15
1.71822E-05 4.73945E-15
1.90385E-05 4.05636E-15
2.09899E-05 3.49667E-15
2.30365E-05 3.03484E-15
2.51783E-05 2.64278E-15
2.74153E-05 2.31660E-15
2.97475E-05 2.03467E-15
3.21749E-05 1.79809E-15
3.46974E-05 1.59233E-15
3.73152E-05 1.41712E-15
4.00281E-05 1.26416E-15
4.28362E-05 1.13178E-15
4.57395E-05 1.01578E-15
4.87380E-05 9.13990E-16
5.18317E-05 8.24596E-16
5.50205E-05 7.45334E-16
5.83045E-05 6.75644E-16
6.16838E-05 6.13551E-16
6.51582E-05 5.58865E-16
6.87277E-05 5.09271E-16
7.23925E-05 4.65359E-16
7.61524E-05 4.25901E-16
9.21439E-05 3.04932E-16
1.09658E-04 2.24434E-16
1.28695E-04 1.68981E-16
1.49255E-04 1.29737E-16
1.71338E-04 1.01351E-16
1.94942E-04 8.03908E-17
2.20070E-04 6.46046E-17
2.46720E-04 5.25164E-17
2.74892E-04 4.31018E-17
3.04586E-04 3.57450E-17
3.35803E-04 2.98906E-17
3.68542E-04 2.52053E-17
4.02802E-04 2.13923E-17
4.38585E-04 1.82922E-17
4.75889E-04 1.57219E-17
5.14715E-04 1.36005E-17
5.55063E-04 1.18183E-17
5.96931E-04 1.03249E-17
6.40321E-04 9.05739E-18
6.85233E-04 7.98053E-18
7.31665E-04 7.05850E-18
7.79618E-04 6.26581E-18
8.29092E-04 5.58185E-18
8.80086E-04 4.98776E-18
9.32601E-04 4.47160E-18
9.86636E-04 4.01934E-18
1.04219E-03 3.62394E-18
1.09927E-03 3.27481E-18
1.15786E-03 2.96752E-18
1.21797E-03 2.69492E-18
1.27961E-03 2.45330E-18
1.34276E-03 2.23797E-18
1.40743E-03 2.04590E-18
1.47362E-03 1.87402E-18
1.54133E-03 1.71983E-18
1.61056E-03 1.58131E-18
1.68131E-03 1.45639E-18
1.75357E-03 1.34374E-18
1.82735E-03 1.24169E-18
1.90265E-03 1.14931E-18
1.97947E-03 1.06529E-18
2.05780E-03 9.88931E-19
2.13765E-03 9.19273E-19
2.21902E-03 8.55710E-19
2.30190E-03 7.97560E-19
2.38630E-03 7.44297E-19
2.47222E-03 6.95436E-19
2.55965E-03 6.50531E-19
2.64859E-03 6.09233E-19
2.73905E-03 5.71153E-19
2.83103E-03 5.36047E-19
2.92452E-03 5.03581E-19
3.01952E-03 4.73577E-19
3.11604E-03 4.45764E-19
3.21407E-03 4.19990E-19
3.31362E-03 3.96051E-19
3.41468E-03 3.73810E-19
3.51725E-03 3.53113E-19
3.62133E-03 3.33837E-19
3.72692E-03 3.15867E-19
3.83403E-03 2.99092E-19
3.94265E-03 2.83429E-19
4.05278E-03 2.68773E-19
4.16442E-03 2.55069E-19
4.27757E-03 2.42219E-19
4.39223E-03 2.30182E-19
4.50840E-03 2.18881E-19
4.62608E-03 2.08273E-19
4.74527E-03 1.98301E-19
4.86597E-03 1.88923E-19
4.98817E-03 1.80095E-19
5.11188E-03 1.71780E-19
5.23711E-03 1.63943E-19
5.36383E-03 1.56549E-19
5.49207E-03 1.49572E-19
5.62181E-03 1.42978E-19
5.75306E-03 1.36750E-19
5.88581E-03 1.30855E-19
6.02007E-03 1.25280E-19
6.15583E-03 1.19998E-19
6.29310E-03 1.14995E-19
6.43187E-03 1.10251E-19
6.57214E-03 1.05752E-19
6.71392E-03 1.01481E-19
6.85720E-03 9.74255E-20
7.00198E-03 9.35726E-20
7.14827E-03 8.99088E-20
7.29605E-03 8.64254E-20
7.44534E-03 8.31091E-20
7.59612E-03 7.99532E-20
7.97965E-03 7.26979E-20
8.37255E-03 6.62553E-20
8.77480E-03 6.05179E-20
9.18641E-03 5.53941E-20
9.60736E-03 5.08077E-20
1.00376E-02 4.66917E-20
1.04773E-02 4.29892E-20
1.09262E-02 3.96515E-20
1.13844E-02 3.66360E-20
1.18520E-02 3.39058E-20
1.23288E-02 3.14293E-20
1.28150E-02 2.91785E-20
1.33104E-02 2.71289E-20
1.38150E-02 2.52595E-20
1.43290E-02 2.35513E-20
1.48521E-02 2.19878E-20
1.53845E-02 2.05546E-20
1.59262E-02 1.92387E-20
1.64770E-02 1.80287E-20
1.70371E-02 1.69146E-20
1.76063E-02 1.58872E-20
1.81848E-02 1.49385E-20
1.87724E-02 1.40614E-20
1.93692E-02 1.32494E-20
1.99751E-02 1.24967E-20
2.05901E-02 1.17982E-20
2.12143E-02 1.11492E-20
2.18476E-02 1.05456E-20
2.24900E-02 9.98351E-21
2.31415E-02 9.45952E-21
2.38021E-02 8.97059E-21
2.44717E-02 8.51388E-21
2.51504E-02 8.08685E-21
2.58382E-02 7.68719E-21
2.65349E-02 7.31276E-21
2.72407E-02 6.96177E-21
2.79555E-02 6.63230E-21
2.86793E-02 6.32292E-21
2.94120E-02 6.03201E-21
3.01537E-02 5.75836E-21
3.09043E-02 5.50066E-21
3.16639E-02 5.25785E-21
3.24324E-02 5.02886E-21
3.32098E-02 4.81275E-21
3.39961E-02 4.60864E-21
3.47912E-02 4.41574E-21
3.55952E-02 4.23330E-21
3.64081E-02 4.06063E-21
3.72297E-02 3.89712E-21
3.80602E-02 3.74214E-21
3.88995E-02 3.59520E-21
3.97476E-02 3.45575E-21
4.06044E-02 3.32337E-21
4.14700E-02 3.19759E-21
4.23443E-02 3.07804E-21
4.32273E-02 2.96432E-21
4.41190E-02 2.85611E-21
4.50194E-02 2.75306E-21
4.59284E-02 2.65490E-21
4.68461E-02 2.56132E-21
4.87074E-02 2.38693E-21
5.06030E-02 2.22799E-21
5.25328E-02 2.08285E-21
5.44967E-02 1.95006E-21
5.64946E-02 1.82835E-21
5.85262E-02 1.71661E-21
6.05914E-02 1.61384E-21
6.26901E-02 1.51917E-21
6.48222E-02 1.43182E-21
6.69873E-02 1.35110E-21
6.91854E-02 1.27640E-21
7.14163E-02 1.20717E-21
7.36799E-02 1.14293E-21
7.59760E-02 1.08323E-21
7.83043E-02 1.02768E-21
8.06647E-02 9.75919E-22
8.30571E-02 9.27640E-22
8.54812E-02 8.82550E-22
8.79369E-02 8.40391E-22
9.04240E-02 8.00928E-22
9.29422E-02 7.63947E-22
9.54915E-02 7.29257E-22
9.80716E-02 6.96682E-22
1.00682E-01 6.66061E-22
1.03323E-01 6.37249E-22
1.05995E-01 6.10115E-22
1.08696E-01 5.84536E-22
1.11427E-01 5.60402E-22
1.14188E-01 5.37611E-22
1.16978E-01 5.16069E-22
1.19797E-01 4.95691E-22
1.22645E-01 4.76400E-22
1.25522E-01 4.58121E-22
1.28428E-01 4.40789E-22
1.31361E-01 4.24342E-22
1.34323E-01 4.08723E-22
1.37313E-01 3.93881E-22
1.40330E-01 3.79766E-22
1.43375E-01 3.66334E-22
1.46447E-01 3.53542E-22
1.49545E-01 3.41354E-22
1.52671E-01 3.29731E-22
1.55823E-01 3.18642E-22
1.59001E-01 3.08056E-22
1.62205E-01 2.97943E-22
1.65435E-01 2.88277E-22
1.68690E-01 2.79032E-22
1.71970E-01 2.70186E-22
1.75276E-01 2.61717E-22
1.78606E-01 2.53604E-22
1.81961E-01 2.45827E-22
1.85340E-01 2.38371E-22
1.88743E-01 2.31216E-22
1.92169E-01 2.24349E-22
1.95619E-01 2.17754E-22
1.99092E-01 2.11418E-22
2.02589E-01 2.05327E-22
2.06107E-01 1.99469E-22
2.09649E-01 1.93834E-22
2.13212E-01 1.88409E-22
2.16797E-01 1.83186E-22
2.20404E-01 1.78154E-22
2.24032E-01 1.73305E-22
2.27680E-01 1.68630E-22
2.31350E-01 1.64120E-22
2.35040E-01 1.59770E-22
2.38751E-01 1.55570E-22
2.42481E-01 1.51515E-22
2.46231E-01 1.47598E-22
2.50000E-01 1.43814E-22
2.53788E-01 1.40155E-22
2.57595E-01 1.36618E-22
2.61421E-01 1.33196E-22
2.65264E-01 1.29885E-22
2.69126E-01 1.26681E-22
2.73005E-01 1.23578E-22
2.76901E-01 1.20573E-22
2.80814E-01 1.17662E-22
2.84744E-01 1.14841E-22
2.88691E-01 1.12106E-22
2.92653E-01 1.09455E-22
2.96632E-01 1.06882E-22
3.00625E-01 1.04387E-22
3.04634E-01 1.01965E-22
3.08658E-01 9.96146E-23
3.12697E-01 9.73319E-23
3.16749E-01 9.51149E-23
3.20816E-01 9.29612E-23
3.24896E-01 9.08684E-23
3.28990E-01 8.88343E-23
3.33097E-01 8.68567E-23
3.37216E-01 8.49336E-23
3.41348E-01 8.30632E-23
3.45492E-01 8.12435E-23
3.49647E-01 7.94727E-23
3.53814E-01 7.77492E-23
3.57992E-01 7.60712E-23
3.62181E-01 7.44375E-23
3.66381E-01 7.28462E-23
3.70590E-01 7.12962E-23
3.74810E-01 6.97859E-23
3.79039E-01 6.83141E-23
3.83277E-01 6.68796E-23
3.87524E-01 6.54811E-23
3.91780E-01 6.41174E-23
3.96044E-01 6.27874E-23
4.00316E-01 6.14901E-23
4.04596E-01 6.02244E-23
4.08882E-01 5.89894E-23
4.13176E-01 5.77840E-23
4.17476E-01 5.66074E-23
4.21783E-01 5.54587E-23
4.26095E-01 5.43370E-23
4.30413E-01 5.32416E-23
4.34737E-01 5.21716E-23
4.39065E-01 5.11263E-23
4.43398E-01 5.01049E-23
4.47736E-01 4.91069E-23
4.52077E-01 4.81314E-23
4.56422E-01 4.71779E-23
4.60770E-01 4.62457E-23
4.65122E-01 4.53341E-23
4.69476E-01 4.44428E-23
4.73832E-01 4.35709E-23
4.78190E-01 4.27181E-23
4.82550E-01 4.18837E-23
4.86912E-01 4.10673E-23
4.91274E-01 4.02684E-23
4.95637E-01 3.94865E-23
5.00000E-01 3.87212E-23
5.04363E-01 3.79720E-23
5.08726E-01 3.72384E-23
5.13088E-01 3.65202E-23
5.17450E-01 3.58168E-23
5.21810E-01 3.51279E-23
5.26168E-01 3.44531E-23
5.30524E-01 3.37921E-23
5.34878E-01 3.31445E-23
5.39230E-01 3.25099E-23
5.43578E-01 3.18881E-23
5.47923E-01 3.12787E-23
5.52264E-01 3.06814E-23
5.56602E-01 3.00959E-23
5.60935E-01 2.95219E-23
5.65263E-01 2.89592E-23
5.69587E-01 2.84074E-23
5.73905E-01 2.78663E-23
5.78217E-01 2.73357E-23
5.82524E-01 2.68153E-23
5.86824E-01 2.63048E-23
5.91118E-01 2.58041E-23
5.95404E-01 2.53128E-23
5.99684E-01 2.48309E-23
6.03956E-01 2.43580E-23
6.08220E-01 2.38940E-23
6.12476E-01 2.34386E-23
6.16723E-01 2.29917E-23
6.20961E-01 2.25531E-23
6.25190E-01 2.21225E-23
6.29410E-01 2.16999E-23
6.33619E-01 2.12850E-23
6.37819E-01 2.08777E-23
6.42008E-01 2.04777E-23
6.46186E-01 2.00850E-23
6.50353E-01 1.96994E-23
6.54508E-01 1.93208E-23
6.58652E-01 1.89489E-23
6.62784E-01 1.85836E-23
6.66903E-01 1.82249E-23
6.71010E-01 1.78725E-23
6.75104E-01 1.75264E-23
6.79184E-01 1.71864E-23
6.83251E-01 1.68524E-23
6.87303E-01 1.65242E-23
6.91342E-01 1.62018E-23
6.95366E-01 1.58850E-23
6.99375E-01 1.55738E-23
7.03368E-01 1.52679E-23
7.07347E-01 1.49673E-23
7.11309E-01 1.46720E-23
7.15256E-01 1.43817E-23
7.19186E-01 1.40965E-23
7.23099E-01 1.38161E-23
7.26995E-01 1.35406E-23
7.30874E-01 1.32697E-23
7.34736E-01 1.30035E-23
7.38579E-01 1.27419E-23
7.42405E-01 1.24847E-23
7.46212E-01 1.22318E-23
7.50000E-01 1.19833E-23
7.53769E-01 1.17390E-23
7.57519E-01 1.14988E-23
7.61249E-01 1.12627E-23
7.64960E-01 1.10306E-23
7.68650E-01 1.08024E-23
7.72320E-01 1.05780E-23
7.75968E-01 1.03575E-23
7.79596E-01 1.01406E-23
7.83203E-01 9.92747E-24
7.86788E-01 9.71788E-24
7.90351E-01 9.51182E-24
7.93893E-01 9.30923E-24
7.97411E-01 9.11005E-24
8.00908E-01 8.91423E-24
8.04381E-01 8.72171E-24
8.07831E-01 8.53243E-24
8.11257E-01 8.34634E-24
8.14660E-01 8.16339E-24
8.18039E-01 7.98353E-24
8.21394E-01 7.80671E-24
8.24724E-01 7.63288E-24
8.28030E-01 7.46199E-24
8.31310E-01 7.29400E-24
8.34565E-01 7.12886E-24
8.37795E-01 6.96653E-24
8.40999E-01 6.80697E-24
8.44177E-01 6.65013E-24
8.47329E-01 6.49598E-24
8.50455E-01 6.34446E-24
8.53553E-01 6.19555E-24
8.56625E-01 6.04921E-24
8.59670E-01 5.90539E-24
8.62687E-01 5.76406E-24
8.65677E-01 5.62519E-24
8.68639E-01 5.48874E-24
8.71572E-01 5.35468E-24
8.74478E-01 5.22297E-24
8.77355E-01 5.09358E-24
8.80203E-01 4.96648E-24
8.83022E-01 4.84163E-24
8.85812E-01 4.71901E-24
8.88573E-01 4.59859E-24
8.91304E-01 4.48034E-24
8.94005E-01 4.36423E-24
8.96677E-01 4.25022E-24
8.99318E-01 4.13831E-24
9.01928E-01 4.02845E-24
9.04508E-01 3.92063E-24
9.07058E-01 3.81481E-24
9.09576E-01 3.71097E-24
9.12063E-01 3.60910E-24
9.14519E-01 3.50916E-24
9.16943E-01 3.41113E-24
9.19335E-01 3.31499E-24
9.21696E-01 3.22072E-24
9.24024E-01 3.12830E-24
9.26320E-01 3.03770E-24
9.28584E-01 2.94891E-24
9.30815E-01 2.86190E-24
9.33013E-01 2.77666E-24
9.35178E-01 2.69317E-24
9.37310E-01 2.61140E-24
9.39409E-01 2.53135E-24
9.41474E-01 2.45299E-24
9.43505E-01 2.37630E-24
9.45503E-01 2.30128E-24
9.47467E-01 2.22790E-24
9.49397E-01 2.15614E-24
9.51293E-01 2.08600E-24
9.53154E-01 2.01745E-24
9.54981E-01 1.95048E-24
9.56773E-01 1.88509E-24
9.58530E-01 1.82124E-24
9.60252E-01 1.75894E-24
9.61940E-01 1.69816E-24
9.63592E-01 1.63889E-24
9.65209E-01 1.58113E-24
9.66790E-01 1.52486E-24
9.68336E-01 1.47006E-24
9.69846E-01 1.41673E-24
9.71321E-01 1.36486E-24
9.72759E-01 1.31443E-24
9.74162E-01 1.26543E-24
9.75528E-01 1.21786E-24
9.76858E-01 1.17170E-24
9.78152E-01 1.12694E-24
9.79410E-01 1.08358E-24
9.80631E-01 1.04161E-24
9.81815E-01 1.00101E-24
9.82963E-01 9.61782E-25
9.84074E-01 9.23916E-25
9.85148E-01 8.87404E-25
9.86185E-01 8.52239E-25
9.87185E-01 8.18412E-25
9.88148E-01 7.85918E-25
9.89074E-01 7.54749E-25
9.89962E-01 7.24900E-25
9.90814E-01 6.96365E-25
9.91627E-01 6.69137E-25
9.92404E-01 6.43212E-25
9.93143E-01 6.18584E-25
9.93844E-01 5.95248E-25
9.94508E-01 5.73200E-25
9.95134E-01 5.52435E-25
9.95722E-01 5.32949E-25
9.96273E-01 5.14738E-25
9.96786E-01 4.97799E-25
9.97261E-01 4.82128E-25
9.97698E-01 4.67722E-25
9.98097E-01 4.54578E-25
9.98459E-01 4.42694E-25
9.98782E-01 4.32067E-25
9.99067E-01 4.22695E-25
9.99315E-01 4.14577E-25
9.99524E-01 4.07710E-25
9.99695E-01 4.02094E-25
9.99829E-01 3.97727E-25
9.99924E-01 3.94608E-25
9.99981E-01 3.92737E-25
1.00000E+00 3.92113E-25
