 #
 # Subroutine ELSEPA. Elastic scattering of electrons and positrons
 #                    by neutral atoms and positive ions
 #
 # Projectile: electron
 # Kinetic energy = 1.00000E+08 eV = 3.67493E+06 a.u.
 #
 # WARNING: High-energy factorization with free-atom DF screening.
 #          Absorption, polarization and exchange corrections are
 #          switched off.
 #          Phase shifts are calculated for the bare nucleus.
 #          Scattering amplitudes are not evaluated.
 #
 # Element:  K,  Z =  19,  atomic weight = 3.90983E+01 g/mol
 #
 # Nuclear model: Fermi distribution
 #                Average radius = 3.63164E-13 cm
 #                Skin thickness = 5.46000E-14 cm
 #
 # Number of electrons = 19
 #
 # Total elastic cross section = 1.51380E-18 cm**2 = 5.40587E-02 a0**2
 # 1st transport cross section = 7.54919E-26 cm**2 = 2.69586E-09 a0**2
 # 2nd transport cross section = 2.24003E-25 cm**2 = 7.99930E-09 a0**2
 #
 #
 # Differential cross section:                       MU=(1-COS(THETA))/2
 #
 #  THETA        MU          DCS          DCS        Sherman      error
 #  (deg)                 (cm**2/sr)   (a0**2/sr)    function
 #----------------------------------------------------------------------
0.00000E+00 3.10900E-10
7.61557E-13 3.08625E-10
1.18994E-12 3.07359E-10
1.71346E-12 3.05825E-10
2.33225E-12 3.04025E-10
3.04617E-12 3.01972E-10
3.85530E-12 2.99671E-10
4.75964E-12 2.97129E-10
5.75917E-12 2.94364E-10
6.85391E-12 2.91381E-10
8.04379E-12 2.88192E-10
9.32893E-12 2.84809E-10
1.07092E-11 2.81251E-10
1.21847E-11 2.77522E-10
1.37554E-11 2.73634E-10
1.54213E-11 2.69617E-10
1.71823E-11 2.65469E-10
1.90386E-11 2.61203E-10
2.09900E-11 2.56841E-10
2.30367E-11 2.52397E-10
2.51785E-11 2.47873E-10
2.74156E-11 2.43284E-10
2.97478E-11 2.38662E-10
3.21752E-11 2.33997E-10
3.46979E-11 2.29298E-10
3.73157E-11 2.24599E-10
4.00286E-11 2.19896E-10
4.28368E-11 2.15193E-10
4.57402E-11 2.10505E-10
4.87388E-11 2.05856E-10
5.18325E-11 2.01232E-10
5.50215E-11 1.96638E-10
5.83057E-11 1.92113E-10
6.16850E-11 1.87635E-10
6.51595E-11 1.83209E-10
6.87293E-11 1.78853E-10
7.23943E-11 1.74575E-10
7.61544E-11 1.70362E-10
1.18991E-10 1.32861E-10
1.71347E-10 1.04621E-10
2.33223E-10 8.29276E-11
3.04617E-10 6.75311E-11
3.85531E-10 5.58062E-11
4.75965E-10 4.68826E-11
5.75917E-10 3.99724E-11
6.85389E-10 3.43628E-11
8.04380E-10 2.97597E-11
9.32891E-10 2.58981E-11
1.07092E-09 2.25754E-11
1.21847E-09 1.97463E-11
1.37554E-09 1.73221E-11
1.54213E-09 1.51756E-11
1.71823E-09 1.33260E-11
1.90386E-09 1.17285E-11
2.09900E-09 1.03266E-11
2.30367E-09 9.10174E-12
2.51785E-09 8.04165E-12
2.74156E-09 7.11905E-12
2.97478E-09 6.30636E-12
3.21752E-09 5.60147E-12
3.46978E-09 4.98792E-12
3.73156E-09 4.44878E-12
4.00286E-09 3.97740E-12
4.28368E-09 3.56547E-12
4.57402E-09 3.20382E-12
4.87388E-09 2.88536E-12
5.18326E-09 2.60565E-12
5.50215E-09 2.35922E-12
5.83057E-09 2.14096E-12
6.16850E-09 1.94790E-12
6.51596E-09 1.77670E-12
6.87293E-09 1.62434E-12
7.23942E-09 1.48849E-12
7.61544E-09 1.36718E-12
1.18991E-08 6.51988E-13
1.71347E-08 3.60117E-13
2.33223E-08 2.17842E-13
3.04617E-08 1.39541E-13
3.85531E-08 9.29512E-14
4.75965E-08 6.38521E-14
5.75917E-08 4.50663E-14
6.85389E-08 3.25756E-14
8.04380E-08 2.40573E-14
9.32891E-08 1.81136E-14
1.07092E-07 1.38845E-14
1.21847E-07 1.08161E-14
1.37554E-07 8.54965E-15
1.54213E-07 6.84763E-15
1.71823E-07 5.55034E-15
1.90386E-07 4.54771E-15
2.09900E-07 3.76286E-15
2.30367E-07 3.14124E-15
2.51785E-07 2.64360E-15
2.74156E-07 2.24132E-15
2.97478E-07 1.91317E-15
3.21752E-07 1.64324E-15
3.46978E-07 1.41949E-15
3.73156E-07 1.23271E-15
4.00286E-07 1.07578E-15
4.28368E-07 9.43118E-16
4.57402E-07 8.30323E-16
4.87388E-07 7.33925E-16
5.18325E-07 6.51137E-16
5.50215E-07 5.79708E-16
5.83057E-07 5.17808E-16
6.16850E-07 4.63949E-16
6.51596E-07 4.16911E-16
6.87293E-07 3.75680E-16
7.23942E-07 3.39415E-16
7.61543E-07 3.07413E-16
1.18991E-06 1.27978E-16
1.71347E-06 6.22674E-17
2.33223E-06 3.37809E-17
3.04617E-06 1.98619E-17
3.85531E-06 1.24235E-17
4.75964E-06 8.16136E-18
5.75916E-06 5.57922E-18
6.85388E-06 3.94180E-18
8.04378E-06 2.86322E-18
9.32888E-06 2.12950E-18
1.07092E-05 1.61643E-18
1.21846E-05 1.24897E-18
1.37553E-05 9.80234E-19
1.54212E-05 7.80042E-19
1.71822E-05 6.28446E-19
1.90385E-05 5.11934E-19
2.09899E-05 4.21236E-19
2.30365E-05 3.49758E-19
2.51783E-05 2.92814E-19
2.74153E-05 2.46997E-19
2.97475E-05 2.09800E-19
3.21749E-05 1.79349E-19
3.46974E-05 1.54230E-19
3.73152E-05 1.33362E-19
4.00281E-05 1.15909E-19
4.28362E-05 1.01221E-19
4.57395E-05 8.87879E-20
4.87380E-05 7.82067E-20
5.18317E-05 6.91557E-20
5.50205E-05 6.13768E-20
5.83045E-05 5.46616E-20
6.16838E-05 4.88405E-20
6.51582E-05 4.37744E-20
6.87277E-05 3.93489E-20
7.23925E-05 3.54691E-20
7.61524E-05 3.20504E-20
9.21439E-05 2.18978E-20
1.09658E-04 1.54659E-20
1.28695E-04 1.12321E-20
1.49255E-04 8.35309E-21
1.71338E-04 6.34046E-21
1.94942E-04 4.89921E-21
2.20070E-04 3.84528E-21
2.46720E-04 3.06020E-21
2.74892E-04 2.46568E-21
3.04586E-04 2.00882E-21
3.35803E-04 1.65306E-21
3.68542E-04 1.37270E-21
4.02802E-04 1.14936E-21
4.38585E-04 9.69652E-22
4.75889E-04 8.23746E-22
5.14715E-04 7.04285E-22
5.55063E-04 6.05721E-22
5.96931E-04 5.23814E-22
6.40321E-04 4.55298E-22
6.85233E-04 3.97629E-22
7.31665E-04 3.48809E-22
7.79618E-04 3.07257E-22
8.29092E-04 2.71713E-22
8.80086E-04 2.41164E-22
9.32601E-04 2.14790E-22
9.86636E-04 1.91924E-22
1.04219E-03 1.72022E-22
1.09927E-03 1.54633E-22
1.15786E-03 1.39387E-22
1.21797E-03 1.25974E-22
1.27961E-03 1.14135E-22
1.34276E-03 1.03655E-22
1.40743E-03 9.43504E-23
1.47362E-03 8.60661E-23
1.54133E-03 7.86710E-23
1.61056E-03 7.20529E-23
1.68131E-03 6.61159E-23
1.75357E-03 6.07775E-23
1.82735E-03 5.59668E-23
1.90265E-03 5.16224E-23
1.97947E-03 4.76911E-23
2.05780E-03 4.41267E-23
2.13765E-03 4.08887E-23
2.21902E-03 3.79421E-23
2.30190E-03 3.52558E-23
2.38630E-03 3.28028E-23
2.47222E-03 3.05591E-23
2.55965E-03 2.85038E-23
2.64859E-03 2.66181E-23
2.73905E-03 2.48855E-23
2.83103E-03 2.32914E-23
2.92452E-03 2.18226E-23
3.01952E-03 2.04676E-23
3.11604E-03 1.92159E-23
3.21407E-03 1.80583E-23
3.31362E-03 1.69863E-23
3.41468E-03 1.59925E-23
3.51725E-03 1.50701E-23
3.62133E-03 1.42131E-23
3.72692E-03 1.34160E-23
3.83403E-03 1.26738E-23
3.94265E-03 1.19821E-23
4.05278E-03 1.13368E-23
4.16442E-03 1.07342E-23
4.27757E-03 1.01710E-23
4.39223E-03 9.64406E-24
4.50840E-03 9.15071E-24
4.62608E-03 8.68838E-24
4.74527E-03 8.25477E-24
4.86597E-03 7.84776E-24
4.98817E-03 7.46542E-24
5.11188E-03 7.10597E-24
5.23711E-03 6.76780E-24
5.36383E-03 6.44942E-24
5.49207E-03 6.14944E-24
5.62181E-03 5.86661E-24
5.75306E-03 5.59977E-24
5.88581E-03 5.34785E-24
6.02007E-03 5.10985E-24
6.15583E-03 4.88487E-24
6.29310E-03 4.67206E-24
6.43187E-03 4.47065E-24
6.57214E-03 4.27990E-24
6.71392E-03 4.09915E-24
6.85720E-03 3.92778E-24
7.00198E-03 3.76521E-24
7.14827E-03 3.61091E-24
7.29605E-03 3.46437E-24
7.44534E-03 3.32513E-24
7.59612E-03 3.19277E-24
7.97965E-03 2.88934E-24
8.37255E-03 2.62085E-24
8.77480E-03 2.38257E-24
9.18641E-03 2.17054E-24
9.60736E-03 1.98135E-24
1.00376E-02 1.81214E-24
1.04773E-02 1.66043E-24
1.09262E-02 1.52409E-24
1.13844E-02 1.40131E-24
1.18520E-02 1.29049E-24
1.23288E-02 1.19028E-24
1.28150E-02 1.09949E-24
1.33104E-02 1.01707E-24
1.38150E-02 9.42114E-25
1.43290E-02 8.73837E-25
1.48521E-02 8.11538E-25
1.53845E-02 7.54602E-25
1.59262E-02 7.02489E-25
1.64770E-02 6.54718E-25
1.70371E-02 6.10864E-25
1.76063E-02 5.70552E-25
1.81848E-02 5.33445E-25
1.87724E-02 4.99245E-25
1.93692E-02 4.67684E-25
1.99751E-02 4.38523E-25
2.05901E-02 4.11548E-25
2.12143E-02 3.86567E-25
2.18476E-02 3.63408E-25
2.24900E-02 3.41913E-25
2.31415E-02 3.21944E-25
2.38021E-02 3.03372E-25
2.44717E-02 2.86084E-25
2.51504E-02 2.69976E-25
2.58382E-02 2.54952E-25
2.65349E-02 2.40928E-25
2.72407E-02 2.27826E-25
2.79555E-02 2.15574E-25
2.86793E-02 2.04108E-25
2.94120E-02 1.93369E-25
3.01537E-02 1.83304E-25
3.09043E-02 1.73861E-25
3.16639E-02 1.64998E-25
3.24324E-02 1.56671E-25
3.32098E-02 1.48843E-25
3.39961E-02 1.41480E-25
3.47912E-02 1.34548E-25
3.55952E-02 1.28019E-25
3.64081E-02 1.21864E-25
3.72297E-02 1.16060E-25
3.80602E-02 1.10582E-25
3.88995E-02 1.05410E-25
3.97476E-02 1.00522E-25
4.06044E-02 9.59023E-26
4.14700E-02 9.15322E-26
4.23443E-02 8.73965E-26
4.32273E-02 8.34803E-26
4.41190E-02 7.97703E-26
4.50194E-02 7.62537E-26
4.59284E-02 7.29188E-26
4.68461E-02 6.97548E-26
4.87074E-02 6.38992E-26
5.06030E-02 5.86135E-26
5.25328E-02 5.38339E-26
5.44967E-02 4.95047E-26
5.64946E-02 4.55771E-26
5.85262E-02 4.20084E-26
6.05914E-02 3.87608E-26
6.26901E-02 3.58014E-26
6.48222E-02 3.31007E-26
6.69873E-02 3.06330E-26
6.91854E-02 2.83752E-26
7.14163E-02 2.63070E-26
7.36799E-02 2.44102E-26
7.59760E-02 2.26686E-26
7.83043E-02 2.10678E-26
8.06647E-02 1.95948E-26
8.30571E-02 1.82380E-26
8.54812E-02 1.69871E-26
8.79369E-02 1.58326E-26
9.04240E-02 1.47662E-26
9.29422E-02 1.37802E-26
9.54915E-02 1.28678E-26
9.80716E-02 1.20229E-26
1.00682E-01 1.12397E-26
1.03323E-01 1.05133E-26
1.05995E-01 9.83891E-27
1.08696E-01 9.21247E-27
1.11427E-01 8.63013E-27
1.14188E-01 8.08840E-27
1.16978E-01 7.58414E-27
1.19797E-01 7.11444E-27
1.22645E-01 6.67666E-27
1.25522E-01 6.26839E-27
1.28428E-01 5.88742E-27
1.31361E-01 5.53173E-27
1.34323E-01 5.19945E-27
1.37313E-01 4.88888E-27
1.40330E-01 4.59846E-27
1.43375E-01 4.32673E-27
1.46447E-01 4.07238E-27
1.49545E-01 3.83418E-27
1.52671E-01 3.61100E-27
1.55823E-01 3.40181E-27
1.59001E-01 3.20565E-27
1.62205E-01 3.02162E-27
1.65435E-01 2.84891E-27
1.68690E-01 2.68676E-27
1.71970E-01 2.53447E-27
1.75276E-01 2.39137E-27
1.78606E-01 2.25688E-27
1.81961E-01 2.13043E-27
1.85340E-01 2.01149E-27
1.88743E-01 1.89960E-27
1.92169E-01 1.79428E-27
1.95619E-01 1.69514E-27
1.99092E-01 1.60178E-27
2.02589E-01 1.51383E-27
2.06107E-01 1.43096E-27
2.09649E-01 1.35286E-27
2.13212E-01 1.27923E-27
2.16797E-01 1.20979E-27
2.20404E-01 1.14430E-27
2.24032E-01 1.08252E-27
2.27680E-01 1.02421E-27
2.31350E-01 9.69177E-28
2.35040E-01 9.17222E-28
2.38751E-01 8.68161E-28
2.42481E-01 8.21824E-28
2.46231E-01 7.78052E-28
2.50000E-01 7.36694E-28
2.53788E-01 6.97610E-28
2.57595E-01 6.60668E-28
2.61421E-01 6.25745E-28
2.65264E-01 5.92725E-28
2.69126E-01 5.61499E-28
2.73005E-01 5.31965E-28
2.76901E-01 5.04026E-28
2.80814E-01 4.77594E-28
2.84744E-01 4.52583E-28
2.88691E-01 4.28913E-28
2.92653E-01 4.06509E-28
2.96632E-01 3.85302E-28
3.00625E-01 3.65224E-28
3.04634E-01 3.46213E-28
3.08658E-01 3.28211E-28
3.12697E-01 3.11162E-28
3.16749E-01 2.95013E-28
3.20816E-01 2.79717E-28
3.24896E-01 2.65225E-28
3.28990E-01 2.51495E-28
3.33097E-01 2.38486E-28
3.37216E-01 2.26158E-28
3.41348E-01 2.14474E-28
3.45492E-01 2.03401E-28
3.49647E-01 1.92905E-28
3.53814E-01 1.82956E-28
3.57992E-01 1.73525E-28
3.62181E-01 1.64583E-28
3.66381E-01 1.56106E-28
3.70590E-01 1.48067E-28
3.74810E-01 1.40445E-28
3.79039E-01 1.33217E-28
3.83277E-01 1.26363E-28
3.87524E-01 1.19862E-28
3.91780E-01 1.13697E-28
3.96044E-01 1.07849E-28
4.00316E-01 1.02303E-28
4.04596E-01 9.70420E-29
4.08882E-01 9.20515E-29
4.13176E-01 8.73175E-29
4.17476E-01 8.28266E-29
4.21783E-01 7.85662E-29
4.26095E-01 7.45244E-29
4.30413E-01 7.06899E-29
4.34737E-01 6.70520E-29
4.39065E-01 6.36005E-29
4.43398E-01 6.03258E-29
4.47736E-01 5.72188E-29
4.52077E-01 5.42708E-29
4.56422E-01 5.14738E-29
4.60770E-01 4.88199E-29
4.65122E-01 4.63018E-29
4.69476E-01 4.39125E-29
4.73832E-01 4.16455E-29
4.78190E-01 3.94945E-29
4.82550E-01 3.74535E-29
4.86912E-01 3.55169E-29
4.91274E-01 3.36795E-29
4.95637E-01 3.19360E-29
5.00000E-01 3.02818E-29
5.04363E-01 2.87123E-29
5.08726E-01 2.72231E-29
5.13088E-01 2.58102E-29
5.17450E-01 2.44697E-29
5.21810E-01 2.31978E-29
5.26168E-01 2.19912E-29
5.30524E-01 2.08464E-29
5.34878E-01 1.97604E-29
5.39230E-01 1.87301E-29
5.43578E-01 1.77527E-29
5.47923E-01 1.68255E-29
5.52264E-01 1.59459E-29
5.56602E-01 1.51116E-29
5.60935E-01 1.43202E-29
5.65263E-01 1.35695E-29
5.69587E-01 1.28576E-29
5.73905E-01 1.21823E-29
5.78217E-01 1.15418E-29
5.82524E-01 1.09344E-29
5.86824E-01 1.03584E-29
5.91118E-01 9.81216E-30
5.95404E-01 9.29417E-30
5.99684E-01 8.80300E-30
6.03956E-01 8.33728E-30
6.08220E-01 7.89571E-30
6.12476E-01 7.47706E-30
6.16723E-01 7.08016E-30
6.20961E-01 6.70390E-30
6.25190E-01 6.34722E-30
6.29410E-01 6.00912E-30
6.33619E-01 5.68866E-30
6.37819E-01 5.38492E-30
6.42008E-01 5.09705E-30
6.46186E-01 4.82424E-30
6.50353E-01 4.56572E-30
6.54508E-01 4.32075E-30
6.58652E-01 4.08863E-30
6.62784E-01 3.86871E-30
6.66903E-01 3.66035E-30
6.71010E-01 3.46297E-30
6.75104E-01 3.27599E-30
6.79184E-01 3.09889E-30
6.83251E-01 2.93114E-30
6.87303E-01 2.77226E-30
6.91342E-01 2.62181E-30
6.95366E-01 2.47934E-30
6.99375E-01 2.34443E-30
7.03368E-01 2.21670E-30
7.07347E-01 2.09577E-30
7.11309E-01 1.98129E-30
7.15256E-01 1.87292E-30
7.19186E-01 1.77034E-30
7.23099E-01 1.67326E-30
7.26995E-01 1.58138E-30
7.30874E-01 1.49444E-30
7.34736E-01 1.41217E-30
7.38579E-01 1.33433E-30
7.42405E-01 1.26069E-30
7.46212E-01 1.19102E-30
7.50000E-01 1.12513E-30
7.53769E-01 1.06280E-30
7.57519E-01 1.00385E-30
7.61249E-01 9.48100E-31
7.64960E-01 8.95385E-31
7.68650E-01 8.45542E-31
7.72320E-01 7.98418E-31
7.75968E-01 7.53869E-31
7.79596E-01 7.11758E-31
7.83203E-01 6.71954E-31
7.86788E-01 6.34335E-31
7.90351E-01 5.98784E-31
7.93893E-01 5.65189E-31
7.97411E-01 5.33447E-31
8.00908E-01 5.03457E-31
8.04381E-01 4.75125E-31
8.07831E-01 4.48362E-31
8.11257E-01 4.23083E-31
8.14660E-01 3.99208E-31
8.18039E-01 3.76661E-31
8.21394E-01 3.55369E-31
8.24724E-01 3.35265E-31
8.28030E-01 3.16283E-31
8.31310E-01 2.98363E-31
8.34565E-01 2.81446E-31
8.37795E-01 2.65477E-31
8.40999E-01 2.50405E-31
8.44177E-01 2.36180E-31
8.47329E-01 2.22755E-31
8.50455E-01 2.10087E-31
8.53553E-01 1.98134E-31
8.56625E-01 1.86855E-31
8.59670E-01 1.76213E-31
8.62687E-01 1.66174E-31
8.65677E-01 1.56703E-31
8.68639E-01 1.47769E-31
8.71572E-01 1.39342E-31
8.74478E-01 1.31393E-31
8.77355E-01 1.23896E-31
8.80203E-01 1.16824E-31
8.83022E-01 1.10155E-31
8.85812E-01 1.03866E-31
8.88573E-01 9.79338E-32
8.91304E-01 9.23399E-32
8.94005E-01 8.70645E-32
8.96677E-01 8.20896E-32
8.99318E-01 7.73980E-32
9.01928E-01 7.29735E-32
9.04508E-01 6.88010E-32
9.07058E-01 6.48660E-32
9.09576E-01 6.11549E-32
9.12063E-01 5.76548E-32
9.14519E-01 5.43536E-32
9.16943E-01 5.12398E-32
9.19335E-01 4.83027E-32
9.21696E-01 4.55320E-32
9.24024E-01 4.29182E-32
9.26320E-01 4.04522E-32
9.28584E-01 3.81253E-32
9.30815E-01 3.59296E-32
9.33013E-01 3.38575E-32
9.35178E-01 3.19017E-32
9.37310E-01 3.00555E-32
9.39409E-01 2.83127E-32
9.41474E-01 2.66671E-32
9.43505E-01 2.51131E-32
9.45503E-01 2.36454E-32
9.47467E-01 2.22591E-32
9.49397E-01 2.09494E-32
9.51293E-01 1.97118E-32
9.53154E-01 1.85423E-32
9.54981E-01 1.74369E-32
9.56773E-01 1.63918E-32
9.58530E-01 1.54038E-32
9.60252E-01 1.44694E-32
9.61940E-01 1.35857E-32
9.63592E-01 1.27496E-32
9.65209E-01 1.19587E-32
9.66790E-01 1.12103E-32
9.68336E-01 1.05020E-32
9.69846E-01 9.83167E-33
9.71321E-01 9.19713E-33
9.72759E-01 8.59648E-33
9.74162E-01 8.02784E-33
9.75528E-01 7.48948E-33
9.76858E-01 6.97981E-33
9.78152E-01 6.49733E-33
9.79410E-01 6.04060E-33
9.80631E-01 5.60830E-33
9.81815E-01 5.19918E-33
9.82963E-01 4.81212E-33
9.84074E-01 4.44599E-33
9.85148E-01 4.09983E-33
9.86185E-01 3.77265E-33
9.87185E-01 3.46361E-33
9.88148E-01 3.17187E-33
9.89074E-01 2.89667E-33
9.89962E-01 2.63731E-33
9.90814E-01 2.39311E-33
9.91627E-01 2.16349E-33
9.92404E-01 1.94784E-33
9.93143E-01 1.74566E-33
9.93844E-01 1.55646E-33
9.94508E-01 1.37977E-33
9.95134E-01 1.21520E-33
9.95722E-01 1.06236E-33
9.96273E-01 9.20888E-34
9.96786E-01 7.90475E-34
9.97261E-01 6.70828E-34
9.97698E-01 5.61669E-34
9.98097E-01 4.62777E-34
9.98459E-01 3.73920E-34
9.98782E-01 2.94923E-34
9.99067E-01 2.25595E-34
9.99315E-01 1.65808E-34
9.99524E-01 1.15433E-34
9.99695E-01 7.43523E-35
9.99829E-01 4.24957E-35
9.99924E-01 1.97871E-35
9.99981E-01 6.17947E-36
1.00000E+00 1.64333E-36
