 #
 # Subroutine ELSEPA. Elastic scattering of electrons and positrons
 #                    by neutral atoms and positive ions
 #
 # Projectile: electron
 # Kinetic energy = 4.50000E+06 eV = 1.65372E+05 a.u.
 #
 # WARNING: High-energy factorization with free-atom DF screening.
 #          Absorption, polarization and exchange corrections are
 #          switched off.
 #          Phase shifts are calculated for the bare nucleus.
 #          Scattering amplitudes are not evaluated.
 #
 # Element:  K,  Z =  19,  atomic weight = 3.90983E+01 g/mol
 #
 # Nuclear model: Fermi distribution
 #                Average radius = 3.63164E-13 cm
 #                Skin thickness = 5.46000E-14 cm
 #
 # Number of electrons = 19
 #
 # Total elastic cross section = 1.52942E-18 cm**2 = 5.46164E-02 a0**2
 # 1st transport cross section = 2.25771E-23 cm**2 = 8.06243E-07 a0**2
 # 2nd transport cross section = 6.43195E-23 cm**2 = 2.29689E-06 a0**2
 #
 #
 # Differential cross section:                       MU=(1-COS(THETA))/2
 #
 #  THETA        MU          DCS          DCS        Sherman      error
 #  (deg)                 (cm**2/sr)   (a0**2/sr)    function
 #----------------------------------------------------------------------
0.00000E+00 7.72755E-13
7.61557E-13 7.72740E-13
1.18994E-12 7.72732E-13
1.71346E-12 7.72722E-13
2.33225E-12 7.72711E-13
3.04617E-12 7.72698E-13
3.85530E-12 7.72683E-13
4.75964E-12 7.72666E-13
5.75917E-12 7.72647E-13
6.85391E-12 7.72627E-13
8.04379E-12 7.72605E-13
9.32893E-12 7.72582E-13
1.07092E-11 7.72556E-13
1.21847E-11 7.72529E-13
1.37554E-11 7.72500E-13
1.54213E-11 7.72469E-13
1.71823E-11 7.72437E-13
1.90386E-11 7.72403E-13
2.09900E-11 7.72367E-13
2.30367E-11 7.72330E-13
2.51785E-11 7.72290E-13
2.74156E-11 7.72249E-13
2.97478E-11 7.72206E-13
3.21752E-11 7.72162E-13
3.46979E-11 7.72115E-13
3.73157E-11 7.72067E-13
4.00286E-11 7.72018E-13
4.28368E-11 7.71966E-13
4.57402E-11 7.71913E-13
4.87388E-11 7.71858E-13
5.18325E-11 7.71801E-13
5.50215E-11 7.71743E-13
5.83057E-11 7.71683E-13
6.16850E-11 7.71621E-13
6.51595E-11 7.71557E-13
6.87293E-11 7.71492E-13
7.23943E-11 7.71425E-13
7.61544E-11 7.71356E-13
1.18991E-10 7.70573E-13
1.71347E-10 7.69618E-13
2.33223E-10 7.68492E-13
3.04617E-10 7.67196E-13
3.85531E-10 7.65732E-13
4.75965E-10 7.64101E-13
5.75917E-10 7.62305E-13
6.85389E-10 7.60348E-13
8.04380E-10 7.58229E-13
9.32891E-10 7.55947E-13
1.07092E-09 7.53513E-13
1.21847E-09 7.50924E-13
1.37554E-09 7.48178E-13
1.54213E-09 7.45291E-13
1.71823E-09 7.42255E-13
1.90386E-09 7.39070E-13
2.09900E-09 7.35758E-13
2.30367E-09 7.32302E-13
2.51785E-09 7.28709E-13
2.74156E-09 7.24998E-13
2.97478E-09 7.21151E-13
3.21752E-09 7.17182E-13
3.46978E-09 7.13103E-13
3.73156E-09 7.08898E-13
4.00286E-09 7.04587E-13
4.28368E-09 7.00175E-13
4.57402E-09 6.95646E-13
4.87388E-09 6.91029E-13
5.18326E-09 6.86319E-13
5.50215E-09 6.81501E-13
5.83057E-09 6.76616E-13
6.16850E-09 6.71642E-13
6.51596E-09 6.66572E-13
6.87293E-09 6.61457E-13
7.23942E-09 6.56257E-13
7.61544E-09 6.50974E-13
1.18991E-08 5.95566E-13
1.71347E-08 5.37709E-13
2.33223E-08 4.80715E-13
3.04617E-08 4.26811E-13
3.85531E-08 3.77569E-13
4.75965E-08 3.33580E-13
5.75917E-08 2.95062E-13
6.85389E-08 2.62937E-13
8.04380E-08 2.34679E-13
9.32891E-08 2.08923E-13
1.07092E-07 1.88096E-13
1.21847E-07 1.70088E-13
1.37554E-07 1.53859E-13
1.54213E-07 1.40543E-13
1.71823E-07 1.28717E-13
1.90386E-07 1.18104E-13
2.09900E-07 1.08968E-13
2.30367E-07 1.00754E-13
2.51785E-07 9.33567E-14
2.74156E-07 8.66569E-14
2.97478E-07 8.06268E-14
3.21752E-07 7.51150E-14
3.46978E-07 6.99938E-14
3.73156E-07 6.53751E-14
4.00286E-07 6.10727E-14
4.28368E-07 5.70493E-14
4.57402E-07 5.34113E-14
4.87388E-07 4.99619E-14
5.18325E-07 4.67489E-14
5.50215E-07 4.38355E-14
5.83057E-07 4.10336E-14
6.16850E-07 3.84447E-14
6.51596E-07 3.60903E-14
6.87293E-07 3.38026E-14
7.23942E-07 3.17068E-14
7.61543E-07 2.97872E-14
1.18991E-06 1.60640E-14
1.71347E-06 9.10472E-15
2.33223E-06 5.47107E-15
3.04617E-06 3.49446E-15
3.85531E-06 2.35749E-15
4.75964E-06 1.66562E-15
5.75916E-06 1.22080E-15
6.85388E-06 9.19818E-16
8.04378E-06 7.09383E-16
9.32888E-06 5.56863E-16
1.07092E-05 4.43369E-16
1.21846E-05 3.57137E-16
1.37553E-05 2.90279E-16
1.54212E-05 2.37982E-16
1.71822E-05 1.96658E-16
1.90385E-05 1.63680E-16
2.09899E-05 1.37158E-16
2.30365E-05 1.15652E-16
2.51783E-05 9.80920E-17
2.74153E-05 8.36624E-17
2.97475E-05 7.17224E-17
3.21749E-05 6.18001E-17
3.46974E-05 5.35132E-17
3.73152E-05 4.65547E-17
4.00281E-05 4.06816E-17
4.28362E-05 3.56999E-17
4.57395E-05 3.14541E-17
4.87380E-05 2.78192E-17
5.18317E-05 2.46929E-17
5.50205E-05 2.19935E-17
5.83045E-05 1.96539E-17
6.16838E-05 1.76184E-17
6.51582E-05 1.58408E-17
6.87277E-05 1.42832E-17
7.23925E-05 1.29135E-17
7.61524E-05 1.17052E-17
9.21439E-05 8.08752E-18
1.09658E-04 5.77247E-18
1.28695E-04 4.23352E-18
1.49255E-04 3.17702E-18
1.71338E-04 2.43153E-18
1.94942E-04 1.89294E-18
2.20070E-04 1.49574E-18
2.46720E-04 1.19754E-18
2.74892E-04 9.70075E-19
3.04586E-04 7.94114E-19
3.35803E-04 6.56253E-19
3.68542E-04 5.47014E-19
4.02802E-04 4.59550E-19
4.38585E-04 3.88860E-19
4.75889E-04 3.31230E-19
5.14715E-04 2.83871E-19
5.55063E-04 2.44667E-19
5.96931E-04 2.11991E-19
6.40321E-04 1.84582E-19
6.85233E-04 1.61458E-19
7.31665E-04 1.41837E-19
7.79618E-04 1.25106E-19
8.29092E-04 1.10767E-19
8.80086E-04 9.84221E-20
9.32601E-04 8.77486E-20
9.86636E-04 7.84820E-20
1.04219E-03 7.04066E-20
1.09927E-03 6.33423E-20
1.15786E-03 5.71421E-20
1.21797E-03 5.16819E-20
1.27961E-03 4.68584E-20
1.34276E-03 4.25847E-20
1.40743E-03 3.87870E-20
1.47362E-03 3.54036E-20
1.54133E-03 3.23811E-20
1.61056E-03 2.96745E-20
1.68131E-03 2.72450E-20
1.75357E-03 2.50591E-20
1.82735E-03 2.30883E-20
1.90265E-03 2.13075E-20
1.97947E-03 1.96952E-20
2.05780E-03 1.82327E-20
2.13765E-03 1.69036E-20
2.21902E-03 1.56935E-20
2.30190E-03 1.45899E-20
2.38630E-03 1.35817E-20
2.47222E-03 1.26591E-20
2.55965E-03 1.18137E-20
2.64859E-03 1.10378E-20
2.73905E-03 1.03246E-20
2.83103E-03 9.66812E-21
2.92452E-03 9.06309E-21
3.01952E-03 8.50472E-21
3.11604E-03 7.98875E-21
3.21407E-03 7.51138E-21
3.31362E-03 7.06919E-21
3.41468E-03 6.65911E-21
3.51725E-03 6.27839E-21
3.62133E-03 5.92453E-21
3.72692E-03 5.59529E-21
3.83403E-03 5.28864E-21
3.94265E-03 5.00276E-21
4.05278E-03 4.73596E-21
4.16442E-03 4.48675E-21
4.27757E-03 4.25374E-21
4.39223E-03 4.03569E-21
4.50840E-03 3.83146E-21
4.62608E-03 3.64001E-21
4.74527E-03 3.46040E-21
4.86597E-03 3.29174E-21
4.98817E-03 3.13326E-21
5.11188E-03 2.98422E-21
5.23711E-03 2.84396E-21
5.36383E-03 2.71186E-21
5.49207E-03 2.58735E-21
5.62181E-03 2.46993E-21
5.75306E-03 2.35910E-21
5.88581E-03 2.25443E-21
6.02007E-03 2.15552E-21
6.15583E-03 2.06198E-21
6.29310E-03 1.97348E-21
6.43187E-03 1.88968E-21
6.57214E-03 1.81029E-21
6.71392E-03 1.73504E-21
6.85720E-03 1.66367E-21
7.00198E-03 1.59594E-21
7.14827E-03 1.53163E-21
7.29605E-03 1.47053E-21
7.44534E-03 1.41245E-21
7.59612E-03 1.35722E-21
7.97965E-03 1.23053E-21
8.37255E-03 1.11830E-21
8.77480E-03 1.01860E-21
9.18641E-03 9.29793E-22
9.60736E-03 8.50481E-22
1.00376E-02 7.79469E-22
1.04773E-02 7.15734E-22
1.09262E-02 6.58398E-22
1.13844E-02 6.06704E-22
1.18520E-02 5.59998E-22
1.23288E-02 5.17713E-22
1.28150E-02 4.79354E-22
1.33104E-02 4.44492E-22
1.38150E-02 4.12751E-22
1.43290E-02 3.83800E-22
1.48521E-02 3.57350E-22
1.53845E-02 3.33146E-22
1.59262E-02 3.10962E-22
1.64770E-02 2.90599E-22
1.70371E-02 2.71880E-22
1.76063E-02 2.54648E-22
1.81848E-02 2.38764E-22
1.87724E-02 2.24102E-22
1.93692E-02 2.10551E-22
1.99751E-02 1.98012E-22
2.05901E-02 1.86395E-22
2.12143E-02 1.75619E-22
2.18476E-02 1.65613E-22
2.24900E-02 1.56312E-22
2.31415E-02 1.47656E-22
2.38021E-02 1.39592E-22
2.44717E-02 1.32073E-22
2.51504E-02 1.25054E-22
2.58382E-02 1.18497E-22
2.65349E-02 1.12365E-22
2.72407E-02 1.06625E-22
2.79555E-02 1.01248E-22
2.86793E-02 9.62069E-23
2.94120E-02 9.14760E-23
3.01537E-02 8.70331E-23
3.09043E-02 8.28571E-23
3.16639E-02 7.89292E-23
3.24324E-02 7.52318E-23
3.32098E-02 7.17488E-23
3.39961E-02 6.84655E-23
3.47912E-02 6.53681E-23
3.55952E-02 6.24443E-23
3.64081E-02 5.96825E-23
3.72297E-02 5.70719E-23
3.80602E-02 5.46028E-23
3.88995E-02 5.22660E-23
3.97476E-02 5.00530E-23
4.06044E-02 4.79561E-23
4.14700E-02 4.59681E-23
4.23443E-02 4.40821E-23
4.32273E-02 4.22920E-23
4.41190E-02 4.05920E-23
4.50194E-02 3.89766E-23
4.59284E-02 3.74409E-23
4.68461E-02 3.59801E-23
4.87074E-02 3.32664E-23
5.06030E-02 3.08040E-23
5.25328E-02 2.85653E-23
5.44967E-02 2.65265E-23
5.64946E-02 2.46664E-23
5.85262E-02 2.29666E-23
6.05914E-02 2.14106E-23
6.26901E-02 1.99842E-23
6.48222E-02 1.86745E-23
6.69873E-02 1.74703E-23
6.91854E-02 1.63615E-23
7.14163E-02 1.53392E-23
7.36799E-02 1.43954E-23
7.59760E-02 1.35230E-23
7.83043E-02 1.27155E-23
8.06647E-02 1.19673E-23
8.30571E-02 1.12732E-23
8.54812E-02 1.06285E-23
8.79369E-02 1.00292E-23
9.04240E-02 9.47132E-24
9.29422E-02 8.95158E-24
9.54915E-02 8.46687E-24
9.80716E-02 8.01439E-24
1.00682E-01 7.59160E-24
1.03323E-01 7.19618E-24
1.05995E-01 6.82604E-24
1.08696E-01 6.47927E-24
1.11427E-01 6.15411E-24
1.14188E-01 5.84896E-24
1.16978E-01 5.56236E-24
1.19797E-01 5.29299E-24
1.22645E-01 5.03960E-24
1.25522E-01 4.80108E-24
1.28428E-01 4.57638E-24
1.31361E-01 4.36456E-24
1.34323E-01 4.16475E-24
1.37313E-01 3.97613E-24
1.40330E-01 3.79796E-24
1.43375E-01 3.62956E-24
1.46447E-01 3.47028E-24
1.49545E-01 3.31955E-24
1.52671E-01 3.17682E-24
1.55823E-01 3.04158E-24
1.59001E-01 2.91337E-24
1.62205E-01 2.79175E-24
1.65435E-01 2.67633E-24
1.68690E-01 2.56672E-24
1.71970E-01 2.46258E-24
1.75276E-01 2.36359E-24
1.78606E-01 2.26945E-24
1.81961E-01 2.17986E-24
1.85340E-01 2.09458E-24
1.88743E-01 2.01335E-24
1.92169E-01 1.93595E-24
1.95619E-01 1.86217E-24
1.99092E-01 1.79179E-24
2.02589E-01 1.72464E-24
2.06107E-01 1.66055E-24
2.09649E-01 1.59934E-24
2.13212E-01 1.54086E-24
2.16797E-01 1.48496E-24
2.20404E-01 1.43152E-24
2.24032E-01 1.38041E-24
2.27680E-01 1.33149E-24
2.31350E-01 1.28467E-24
2.35040E-01 1.23984E-24
2.38751E-01 1.19689E-24
2.42481E-01 1.15573E-24
2.46231E-01 1.11628E-24
2.50000E-01 1.07844E-24
2.53788E-01 1.04215E-24
2.57595E-01 1.00732E-24
2.61421E-01 9.73887E-25
2.65264E-01 9.41786E-25
2.69126E-01 9.10952E-25
2.73005E-01 8.81326E-25
2.76901E-01 8.52852E-25
2.80814E-01 8.25478E-25
2.84744E-01 7.99152E-25
2.88691E-01 7.73827E-25
2.92653E-01 7.49459E-25
2.96632E-01 7.26004E-25
3.00625E-01 7.03422E-25
3.04634E-01 6.81674E-25
3.08658E-01 6.60725E-25
3.12697E-01 6.40539E-25
3.16749E-01 6.21084E-25
3.20816E-01 6.02328E-25
3.24896E-01 5.84241E-25
3.28990E-01 5.66796E-25
3.33097E-01 5.49965E-25
3.37216E-01 5.33723E-25
3.41348E-01 5.18046E-25
3.45492E-01 5.02910E-25
3.49647E-01 4.88293E-25
3.53814E-01 4.74175E-25
3.57992E-01 4.60535E-25
3.62181E-01 4.47354E-25
3.66381E-01 4.34614E-25
3.70590E-01 4.22297E-25
3.74810E-01 4.10387E-25
3.79039E-01 3.98868E-25
3.83277E-01 3.87726E-25
3.87524E-01 3.76944E-25
3.91780E-01 3.66511E-25
3.96044E-01 3.56412E-25
4.00316E-01 3.46634E-25
4.04596E-01 3.37166E-25
4.08882E-01 3.27997E-25
4.13176E-01 3.19115E-25
4.17476E-01 3.10509E-25
4.21783E-01 3.02170E-25
4.26095E-01 2.94087E-25
4.30413E-01 2.86252E-25
4.34737E-01 2.78655E-25
4.39065E-01 2.71289E-25
4.43398E-01 2.64144E-25
4.47736E-01 2.57213E-25
4.52077E-01 2.50489E-25
4.56422E-01 2.43964E-25
4.60770E-01 2.37631E-25
4.65122E-01 2.31484E-25
4.69476E-01 2.25517E-25
4.73832E-01 2.19722E-25
4.78190E-01 2.14095E-25
4.82550E-01 2.08629E-25
4.86912E-01 2.03320E-25
4.91274E-01 1.98161E-25
4.95637E-01 1.93149E-25
5.00000E-01 1.88277E-25
5.04363E-01 1.83542E-25
5.08726E-01 1.78940E-25
5.13088E-01 1.74464E-25
5.17450E-01 1.70113E-25
5.21810E-01 1.65881E-25
5.26168E-01 1.61764E-25
5.30524E-01 1.57760E-25
5.34878E-01 1.53865E-25
5.39230E-01 1.50074E-25
5.43578E-01 1.46385E-25
5.47923E-01 1.42795E-25
5.52264E-01 1.39300E-25
5.56602E-01 1.35898E-25
5.60935E-01 1.32586E-25
5.65263E-01 1.29361E-25
5.69587E-01 1.26220E-25
5.73905E-01 1.23161E-25
5.78217E-01 1.20181E-25
5.82524E-01 1.17278E-25
5.86824E-01 1.14449E-25
5.91118E-01 1.11694E-25
5.95404E-01 1.09008E-25
5.99684E-01 1.06390E-25
6.03956E-01 1.03839E-25
6.08220E-01 1.01352E-25
6.12476E-01 9.89277E-26
6.16723E-01 9.65637E-26
6.20961E-01 9.42585E-26
6.25190E-01 9.20105E-26
6.29410E-01 8.98181E-26
6.33619E-01 8.76796E-26
6.37819E-01 8.55936E-26
6.42008E-01 8.35585E-26
6.46186E-01 8.15730E-26
6.50353E-01 7.96356E-26
6.54508E-01 7.77450E-26
6.58652E-01 7.59000E-26
6.62784E-01 7.40992E-26
6.66903E-01 7.23415E-26
6.71010E-01 7.06257E-26
6.75104E-01 6.89507E-26
6.79184E-01 6.73153E-26
6.83251E-01 6.57185E-26
6.87303E-01 6.41592E-26
6.91342E-01 6.26365E-26
6.95366E-01 6.11494E-26
6.99375E-01 5.96970E-26
7.03368E-01 5.82783E-26
7.07347E-01 5.68924E-26
7.11309E-01 5.55386E-26
7.15256E-01 5.42159E-26
7.19186E-01 5.29236E-26
7.23099E-01 5.16608E-26
7.26995E-01 5.04269E-26
7.30874E-01 4.92211E-26
7.34736E-01 4.80427E-26
7.38579E-01 4.68910E-26
7.42405E-01 4.57653E-26
7.46212E-01 4.46649E-26
7.50000E-01 4.35893E-26
7.53769E-01 4.25378E-26
7.57519E-01 4.15099E-26
7.61249E-01 4.05049E-26
7.64960E-01 3.95223E-26
7.68650E-01 3.85615E-26
7.72320E-01 3.76220E-26
7.75968E-01 3.67034E-26
7.79596E-01 3.58050E-26
7.83203E-01 3.49265E-26
7.86788E-01 3.40672E-26
7.90351E-01 3.32269E-26
7.93893E-01 3.24050E-26
7.97411E-01 3.16011E-26
8.00908E-01 3.08148E-26
8.04381E-01 3.00457E-26
8.07831E-01 2.92934E-26
8.11257E-01 2.85574E-26
8.14660E-01 2.78375E-26
8.18039E-01 2.71332E-26
8.21394E-01 2.64442E-26
8.24724E-01 2.57702E-26
8.28030E-01 2.51107E-26
8.31310E-01 2.44656E-26
8.34565E-01 2.38344E-26
8.37795E-01 2.32169E-26
8.40999E-01 2.26127E-26
8.44177E-01 2.20216E-26
8.47329E-01 2.14433E-26
8.50455E-01 2.08775E-26
8.53553E-01 2.03239E-26
8.56625E-01 1.97823E-26
8.59670E-01 1.92524E-26
8.62687E-01 1.87340E-26
8.65677E-01 1.82268E-26
8.68639E-01 1.77307E-26
8.71572E-01 1.72452E-26
8.74478E-01 1.67703E-26
8.77355E-01 1.63058E-26
8.80203E-01 1.58513E-26
8.83022E-01 1.54068E-26
8.85812E-01 1.49719E-26
8.88573E-01 1.45466E-26
8.91304E-01 1.41306E-26
8.94005E-01 1.37237E-26
8.96677E-01 1.33258E-26
8.99318E-01 1.29367E-26
9.01928E-01 1.25562E-26
9.04508E-01 1.21842E-26
9.07058E-01 1.18204E-26
9.09576E-01 1.14648E-26
9.12063E-01 1.11171E-26
9.14519E-01 1.07773E-26
9.16943E-01 1.04451E-26
9.19335E-01 1.01205E-26
9.21696E-01 9.80334E-27
9.24024E-01 9.49342E-27
9.26320E-01 9.19065E-27
9.28584E-01 8.89489E-27
9.30815E-01 8.60603E-27
9.33013E-01 8.32395E-27
9.35178E-01 8.04852E-27
9.37310E-01 7.77964E-27
9.39409E-01 7.51720E-27
9.41474E-01 7.26109E-27
9.43505E-01 7.01121E-27
9.45503E-01 6.76744E-27
9.47467E-01 6.52971E-27
9.49397E-01 6.29791E-27
9.51293E-01 6.07194E-27
9.53154E-01 5.85172E-27
9.54981E-01 5.63717E-27
9.56773E-01 5.42818E-27
9.58530E-01 5.22469E-27
9.60252E-01 5.02662E-27
9.61940E-01 4.83388E-27
9.63592E-01 4.64639E-27
9.65209E-01 4.46410E-27
9.66790E-01 4.28692E-27
9.68336E-01 4.11478E-27
9.69846E-01 3.94763E-27
9.71321E-01 3.78539E-27
9.72759E-01 3.62800E-27
9.74162E-01 3.47541E-27
9.75528E-01 3.32755E-27
9.76858E-01 3.18437E-27
9.78152E-01 3.04581E-27
9.79410E-01 2.91182E-27
9.80631E-01 2.78234E-27
9.81815E-01 2.65734E-27
9.82963E-01 2.53677E-27
9.84074E-01 2.42057E-27
9.85148E-01 2.30870E-27
9.86185E-01 2.20112E-27
9.87185E-01 2.09780E-27
9.88148E-01 1.99869E-27
9.89074E-01 1.90375E-27
9.89962E-01 1.81296E-27
9.90814E-01 1.72627E-27
9.91627E-01 1.64366E-27
9.92404E-01 1.56509E-27
9.93143E-01 1.49053E-27
9.93844E-01 1.41996E-27
9.94508E-01 1.35335E-27
9.95134E-01 1.29068E-27
9.95722E-01 1.23192E-27
9.96273E-01 1.17705E-27
9.96786E-01 1.12605E-27
9.97261E-01 1.07891E-27
9.97698E-01 1.03560E-27
9.98097E-01 9.96105E-28
9.98459E-01 9.60418E-28
9.98782E-01 9.28523E-28
9.99067E-01 9.00407E-28
9.99315E-01 8.76061E-28
9.99524E-01 8.55476E-28
9.99695E-01 8.38643E-28
9.99829E-01 8.25558E-28
9.99924E-01 8.16215E-28
9.99981E-01 8.10610E-28
1.00000E+00 8.08742E-28
