 #
 # Subroutine ELSEPA. Elastic scattering of electrons and positrons
 #                    by neutral atoms and positive ions
 #
 # Projectile: electron
 # Kinetic energy = 2.00000E+06 eV = 7.34987E+04 a.u.
 #
 # WARNING: High-energy factorization with free-atom DF screening.
 #          Absorption, polarization and exchange corrections are
 #          switched off.
 #          Phase shifts are calculated for the bare nucleus.
 #          Scattering amplitudes are not evaluated.
 #
 # Element:  K,  Z =  19,  atomic weight = 3.90983E+01 g/mol
 #
 # Nuclear model: Fermi distribution
 #                Average radius = 3.63164E-13 cm
 #                Skin thickness = 5.46000E-14 cm
 #
 # Number of electrons = 19
 #
 # Total elastic cross section = 1.57963E-18 cm**2 = 5.64096E-02 a0**2
 # 1st transport cross section = 8.45781E-23 cm**2 = 3.02034E-06 a0**2
 # 2nd transport cross section = 2.38845E-22 cm**2 = 8.52933E-06 a0**2
 #
 #
 # Differential cross section:                       MU=(1-COS(THETA))/2
 #
 #  THETA        MU          DCS          DCS        Sherman      error
 #  (deg)                 (cm**2/sr)   (a0**2/sr)    function
 #----------------------------------------------------------------------
0.00000E+00 1.94038E-13
7.61557E-13 1.94037E-13
1.18994E-12 1.94036E-13
1.71346E-12 1.94036E-13
2.33225E-12 1.94035E-13
3.04617E-12 1.94034E-13
3.85530E-12 1.94033E-13
4.75964E-12 1.94032E-13
5.75917E-12 1.94031E-13
6.85391E-12 1.94030E-13
8.04379E-12 1.94029E-13
9.32893E-12 1.94027E-13
1.07092E-11 1.94026E-13
1.21847E-11 1.94024E-13
1.37554E-11 1.94022E-13
1.54213E-11 1.94020E-13
1.71823E-11 1.94018E-13
1.90386E-11 1.94016E-13
2.09900E-11 1.94014E-13
2.30367E-11 1.94012E-13
2.51785E-11 1.94009E-13
2.74156E-11 1.94007E-13
2.97478E-11 1.94004E-13
3.21752E-11 1.94001E-13
3.46979E-11 1.93999E-13
3.73157E-11 1.93996E-13
4.00286E-11 1.93993E-13
4.28368E-11 1.93989E-13
4.57402E-11 1.93986E-13
4.87388E-11 1.93983E-13
5.18325E-11 1.93979E-13
5.50215E-11 1.93976E-13
5.83057E-11 1.93972E-13
6.16850E-11 1.93968E-13
6.51595E-11 1.93964E-13
6.87293E-11 1.93960E-13
7.23943E-11 1.93956E-13
7.61544E-11 1.93952E-13
1.18991E-10 1.93904E-13
1.71347E-10 1.93846E-13
2.33223E-10 1.93776E-13
3.04617E-10 1.93697E-13
3.85531E-10 1.93606E-13
4.75965E-10 1.93505E-13
5.75917E-10 1.93394E-13
6.85389E-10 1.93272E-13
8.04380E-10 1.93140E-13
9.32891E-10 1.92997E-13
1.07092E-09 1.92844E-13
1.21847E-09 1.92681E-13
1.37554E-09 1.92507E-13
1.54213E-09 1.92323E-13
1.71823E-09 1.92129E-13
1.90386E-09 1.91925E-13
2.09900E-09 1.91710E-13
2.30367E-09 1.91486E-13
2.51785E-09 1.91252E-13
2.74156E-09 1.91008E-13
2.97478E-09 1.90754E-13
3.21752E-09 1.90490E-13
3.46978E-09 1.90216E-13
3.73156E-09 1.89932E-13
4.00286E-09 1.89639E-13
4.28368E-09 1.89337E-13
4.57402E-09 1.89025E-13
4.87388E-09 1.88704E-13
5.18326E-09 1.88373E-13
5.50215E-09 1.88033E-13
5.83057E-09 1.87683E-13
6.16850E-09 1.87326E-13
6.51596E-09 1.86959E-13
6.87293E-09 1.86584E-13
7.23942E-09 1.86199E-13
7.61544E-09 1.85804E-13
1.18991E-08 1.81417E-13
1.71347E-08 1.76274E-13
2.33223E-08 1.70490E-13
3.04617E-08 1.64190E-13
3.85531E-08 1.57498E-13
4.75965E-08 1.50529E-13
5.75917E-08 1.43396E-13
6.85389E-08 1.36220E-13
8.04380E-08 1.29079E-13
9.32891E-08 1.22051E-13
1.07092E-07 1.15207E-13
1.21847E-07 1.08610E-13
1.37554E-07 1.02284E-13
1.54213E-07 9.62584E-14
1.71823E-07 9.05613E-14
1.90386E-07 8.51989E-14
2.09900E-07 8.01656E-14
2.30367E-07 7.54577E-14
2.51785E-07 7.10780E-14
2.74156E-07 6.72497E-14
2.97478E-07 6.36227E-14
3.21752E-07 6.01464E-14
3.46978E-07 5.68229E-14
3.73156E-07 5.36527E-14
4.00286E-07 5.06698E-14
4.28368E-07 4.82191E-14
4.57402E-07 4.58841E-14
4.87388E-07 4.36623E-14
5.18325E-07 4.15507E-14
5.50215E-07 3.95459E-14
5.83057E-07 3.76992E-14
6.16850E-07 3.60739E-14
6.51596E-07 3.45304E-14
6.87293E-07 3.30654E-14
7.23942E-07 3.16754E-14
7.61543E-07 3.03569E-14
1.18991E-06 2.07482E-14
1.71347E-06 1.47297E-14
2.33223E-06 1.06397E-14
3.04617E-06 7.74056E-15
3.85531E-06 5.67504E-15
4.75964E-06 4.20357E-15
5.75916E-06 3.15041E-15
6.85388E-06 2.39053E-15
8.04378E-06 1.84089E-15
9.32888E-06 1.43928E-15
1.07092E-05 1.14216E-15
1.21846E-05 9.19454E-16
1.37553E-05 7.50333E-16
1.54212E-05 6.20090E-16
1.71822E-05 5.18376E-16
1.90385E-05 4.37838E-16
2.09899E-05 3.73283E-16
2.30365E-05 3.20859E-16
2.51783E-05 2.77765E-16
2.74153E-05 2.41751E-16
2.97475E-05 2.11877E-16
3.21749E-05 1.86522E-16
3.46974E-05 1.64923E-16
3.73152E-05 1.46528E-16
4.00281E-05 1.30455E-16
4.28362E-05 1.16737E-16
4.57395E-05 1.04548E-16
4.87380E-05 9.40170E-17
5.18317E-05 8.46983E-17
5.50205E-05 7.64854E-17
5.83045E-05 6.92542E-17
6.16838E-05 6.27735E-17
6.51582E-05 5.70868E-17
6.87277E-05 5.19271E-17
7.23925E-05 4.73702E-17
7.61524E-05 4.32628E-17
9.21439E-05 3.06143E-17
1.09658E-04 2.21588E-17
1.28695E-04 1.63857E-17
1.49255E-04 1.23530E-17
1.71338E-04 9.47713E-18
1.94942E-04 7.38685E-18
2.20070E-04 5.84181E-18
2.46720E-04 4.68097E-18
2.74892E-04 3.79551E-18
3.04586E-04 3.11086E-18
3.35803E-04 2.57477E-18
3.68542E-04 2.15011E-18
4.02802E-04 1.81005E-18
4.38585E-04 1.53509E-18
4.75889E-04 1.31077E-18
5.14715E-04 1.12622E-18
5.55063E-04 9.73212E-19
5.96931E-04 8.45464E-19
6.40321E-04 7.38108E-19
6.85233E-04 6.47329E-19
7.31665E-04 5.70130E-19
7.79618E-04 5.04141E-19
8.29092E-04 4.47453E-19
8.80086E-04 3.98524E-19
9.32601E-04 3.56114E-19
9.86636E-04 3.19204E-19
1.04219E-03 2.86960E-19
1.09927E-03 2.58683E-19
1.15786E-03 2.33806E-19
1.21797E-03 2.11849E-19
1.27961E-03 1.92408E-19
1.34276E-03 1.75145E-19
1.40743E-03 1.59773E-19
1.47362E-03 1.46051E-19
1.54133E-03 1.33768E-19
1.61056E-03 1.22748E-19
1.68131E-03 1.12838E-19
1.75357E-03 1.03908E-19
1.82735E-03 9.58420E-20
1.90265E-03 8.85428E-20
1.97947E-03 8.19247E-20
2.05780E-03 7.59128E-20
2.13765E-03 7.04413E-20
2.21902E-03 6.54534E-20
2.30190E-03 6.08989E-20
2.38630E-03 5.67332E-20
2.47222E-03 5.29172E-20
2.55965E-03 4.94161E-20
2.64859E-03 4.61998E-20
2.73905E-03 4.32404E-20
2.83103E-03 4.05144E-20
2.92452E-03 3.79998E-20
3.01952E-03 3.56767E-20
3.11604E-03 3.35286E-20
3.21407E-03 3.15398E-20
3.31362E-03 2.96958E-20
3.41468E-03 2.79848E-20
3.51725E-03 2.63953E-20
3.62133E-03 2.49169E-20
3.72692E-03 2.35405E-20
3.83403E-03 2.22580E-20
3.94265E-03 2.10616E-20
4.05278E-03 1.99444E-20
4.16442E-03 1.89004E-20
4.27757E-03 1.79239E-20
4.39223E-03 1.70095E-20
4.50840E-03 1.61528E-20
4.62608E-03 1.53494E-20
4.74527E-03 1.45953E-20
4.86597E-03 1.38869E-20
4.98817E-03 1.32211E-20
5.11188E-03 1.25947E-20
5.23711E-03 1.20050E-20
5.36383E-03 1.14495E-20
5.49207E-03 1.09257E-20
5.62181E-03 1.04316E-20
5.75306E-03 9.96507E-21
5.88581E-03 9.52441E-21
6.02007E-03 9.10784E-21
6.15583E-03 8.71383E-21
6.29310E-03 8.34093E-21
6.43187E-03 7.98777E-21
6.57214E-03 7.65314E-21
6.71392E-03 7.33587E-21
6.85720E-03 7.03490E-21
7.00198E-03 6.74921E-21
7.14827E-03 6.47791E-21
7.29605E-03 6.22013E-21
7.44534E-03 5.97505E-21
7.59612E-03 5.74195E-21
7.97965E-03 5.20712E-21
8.37255E-03 4.73323E-21
8.77480E-03 4.31212E-21
9.18641E-03 3.93691E-21
9.60736E-03 3.60170E-21
1.00376E-02 3.30149E-21
1.04773E-02 3.03197E-21
1.09262E-02 2.78945E-21
1.13844E-02 2.57076E-21
1.18520E-02 2.37313E-21
1.23288E-02 2.19416E-21
1.28150E-02 2.03180E-21
1.33104E-02 1.88421E-21
1.38150E-02 1.74981E-21
1.43290E-02 1.62721E-21
1.48521E-02 1.51518E-21
1.53845E-02 1.41266E-21
1.59262E-02 1.31868E-21
1.64770E-02 1.23241E-21
1.70371E-02 1.15310E-21
1.76063E-02 1.08008E-21
1.81848E-02 1.01276E-21
1.87724E-02 9.50623E-22
1.93692E-02 8.93188E-22
1.99751E-02 8.40038E-22
2.05901E-02 7.90793E-22
2.12143E-02 7.45113E-22
2.18476E-02 7.02692E-22
2.24900E-02 6.63256E-22
2.31415E-02 6.26554E-22
2.38021E-02 5.92362E-22
2.44717E-02 5.60477E-22
2.51504E-02 5.30714E-22
2.58382E-02 5.02906E-22
2.65349E-02 4.76900E-22
2.72407E-02 4.52557E-22
2.79555E-02 4.29752E-22
2.86793E-02 4.08369E-22
2.94120E-02 3.88302E-22
3.01537E-02 3.69456E-22
3.09043E-02 3.51742E-22
3.16639E-02 3.35079E-22
3.24324E-02 3.19393E-22
3.32098E-02 3.04614E-22
3.39961E-02 2.90681E-22
3.47912E-02 2.77538E-22
3.55952E-02 2.65130E-22
3.64081E-02 2.53410E-22
3.72297E-02 2.42332E-22
3.80602E-02 2.31854E-22
3.88995E-02 2.21937E-22
3.97476E-02 2.12545E-22
4.06044E-02 2.03647E-22
4.14700E-02 1.95210E-22
4.23443E-02 1.87206E-22
4.32273E-02 1.79609E-22
4.41190E-02 1.72394E-22
4.50194E-02 1.65538E-22
4.59284E-02 1.59020E-22
4.68461E-02 1.52821E-22
4.87074E-02 1.41303E-22
5.06030E-02 1.30852E-22
5.25328E-02 1.21350E-22
5.44967E-02 1.12696E-22
5.64946E-02 1.04801E-22
5.85262E-02 9.75852E-23
6.05914E-02 9.09804E-23
6.26901E-02 8.49252E-23
6.48222E-02 7.93656E-23
6.69873E-02 7.42535E-23
6.91854E-02 6.95463E-23
7.14163E-02 6.52061E-23
7.36799E-02 6.11991E-23
7.59760E-02 5.74948E-23
7.83043E-02 5.40664E-23
8.06647E-02 5.08894E-23
8.30571E-02 4.79419E-23
8.54812E-02 4.52044E-23
8.79369E-02 4.26592E-23
9.04240E-02 4.02901E-23
9.29422E-02 3.80829E-23
9.54915E-02 3.60243E-23
9.80716E-02 3.41025E-23
1.00682E-01 3.23067E-23
1.03323E-01 3.06271E-23
1.05995E-01 2.90548E-23
1.08696E-01 2.75817E-23
1.11427E-01 2.62004E-23
1.14188E-01 2.49040E-23
1.16978E-01 2.36864E-23
1.19797E-01 2.25419E-23
1.22645E-01 2.14652E-23
1.25522E-01 2.04517E-23
1.28428E-01 1.94969E-23
1.31361E-01 1.85967E-23
1.34323E-01 1.77475E-23
1.37313E-01 1.69459E-23
1.40330E-01 1.61886E-23
1.43375E-01 1.54728E-23
1.46447E-01 1.47958E-23
1.49545E-01 1.41550E-23
1.52671E-01 1.35482E-23
1.55823E-01 1.29732E-23
1.59001E-01 1.24281E-23
1.62205E-01 1.19110E-23
1.65435E-01 1.14202E-23
1.68690E-01 1.09541E-23
1.71970E-01 1.05112E-23
1.75276E-01 1.00902E-23
1.78606E-01 9.68978E-24
1.81961E-01 9.30873E-24
1.85340E-01 8.94595E-24
1.88743E-01 8.60040E-24
1.92169E-01 8.27111E-24
1.95619E-01 7.95717E-24
1.99092E-01 7.65773E-24
2.02589E-01 7.37200E-24
2.06107E-01 7.09922E-24
2.09649E-01 6.83871E-24
2.13212E-01 6.58981E-24
2.16797E-01 6.35191E-24
2.20404E-01 6.12442E-24
2.24032E-01 5.90681E-24
2.27680E-01 5.69857E-24
2.31350E-01 5.49921E-24
2.35040E-01 5.30830E-24
2.38751E-01 5.12540E-24
2.42481E-01 4.95012E-24
2.46231E-01 4.78208E-24
2.50000E-01 4.62092E-24
2.53788E-01 4.46632E-24
2.57595E-01 4.31795E-24
2.61421E-01 4.17551E-24
2.65264E-01 4.03874E-24
2.69126E-01 3.90735E-24
2.73005E-01 3.78110E-24
2.76901E-01 3.65974E-24
2.80814E-01 3.54306E-24
2.84744E-01 3.43085E-24
2.88691E-01 3.32289E-24
2.92653E-01 3.21899E-24
2.96632E-01 3.11899E-24
3.00625E-01 3.02269E-24
3.04634E-01 2.92995E-24
3.08658E-01 2.84060E-24
3.12697E-01 2.75450E-24
3.16749E-01 2.67151E-24
3.20816E-01 2.59149E-24
3.24896E-01 2.51432E-24
3.28990E-01 2.43988E-24
3.33097E-01 2.36806E-24
3.37216E-01 2.29874E-24
3.41348E-01 2.23183E-24
3.45492E-01 2.16722E-24
3.49647E-01 2.10482E-24
3.53814E-01 2.04454E-24
3.57992E-01 1.98629E-24
3.62181E-01 1.93001E-24
3.66381E-01 1.87559E-24
3.70590E-01 1.82299E-24
3.74810E-01 1.77211E-24
3.79039E-01 1.72290E-24
3.83277E-01 1.67529E-24
3.87524E-01 1.62922E-24
3.91780E-01 1.58463E-24
3.96044E-01 1.54147E-24
4.00316E-01 1.49967E-24
4.04596E-01 1.45920E-24
4.08882E-01 1.42000E-24
4.13176E-01 1.38202E-24
4.17476E-01 1.34521E-24
4.21783E-01 1.30955E-24
4.26095E-01 1.27497E-24
4.30413E-01 1.24146E-24
4.34737E-01 1.20895E-24
4.39065E-01 1.17743E-24
4.43398E-01 1.14686E-24
4.47736E-01 1.11720E-24
4.52077E-01 1.08841E-24
4.56422E-01 1.06048E-24
4.60770E-01 1.03337E-24
4.65122E-01 1.00704E-24
4.69476E-01 9.81487E-25
4.73832E-01 9.56669E-25
4.78190E-01 9.32564E-25
4.82550E-01 9.09148E-25
4.86912E-01 8.86399E-25
4.91274E-01 8.64294E-25
4.95637E-01 8.42811E-25
5.00000E-01 8.21931E-25
5.04363E-01 8.01633E-25
5.08726E-01 7.81899E-25
5.13088E-01 7.62709E-25
5.17450E-01 7.44047E-25
5.21810E-01 7.25896E-25
5.26168E-01 7.08238E-25
5.30524E-01 6.91060E-25
5.34878E-01 6.74344E-25
5.39230E-01 6.58077E-25
5.43578E-01 6.42245E-25
5.47923E-01 6.26834E-25
5.52264E-01 6.11831E-25
5.56602E-01 5.97224E-25
5.60935E-01 5.83000E-25
5.65263E-01 5.69147E-25
5.69587E-01 5.55655E-25
5.73905E-01 5.42512E-25
5.78217E-01 5.29709E-25
5.82524E-01 5.17234E-25
5.86824E-01 5.05078E-25
5.91118E-01 4.93231E-25
5.95404E-01 4.81685E-25
5.99684E-01 4.70431E-25
6.03956E-01 4.59460E-25
6.08220E-01 4.48763E-25
6.12476E-01 4.38333E-25
6.16723E-01 4.28163E-25
6.20961E-01 4.18244E-25
6.25190E-01 4.08570E-25
6.29410E-01 3.99133E-25
6.33619E-01 3.89927E-25
6.37819E-01 3.80946E-25
6.42008E-01 3.72183E-25
6.46186E-01 3.63632E-25
6.50353E-01 3.55287E-25
6.54508E-01 3.47142E-25
6.58652E-01 3.39192E-25
6.62784E-01 3.31432E-25
6.66903E-01 3.23857E-25
6.71010E-01 3.16461E-25
6.75104E-01 3.09239E-25
6.79184E-01 3.02187E-25
6.83251E-01 2.95301E-25
6.87303E-01 2.88575E-25
6.91342E-01 2.82007E-25
6.95366E-01 2.75590E-25
6.99375E-01 2.69323E-25
7.03368E-01 2.63200E-25
7.07347E-01 2.57218E-25
7.11309E-01 2.51373E-25
7.15256E-01 2.45661E-25
7.19186E-01 2.40080E-25
7.23099E-01 2.34626E-25
7.26995E-01 2.29296E-25
7.30874E-01 2.24086E-25
7.34736E-01 2.18994E-25
7.38579E-01 2.14016E-25
7.42405E-01 2.09150E-25
7.46212E-01 2.04393E-25
7.50000E-01 1.99742E-25
7.53769E-01 1.95194E-25
7.57519E-01 1.90748E-25
7.61249E-01 1.86400E-25
7.64960E-01 1.82149E-25
7.68650E-01 1.77991E-25
7.72320E-01 1.73925E-25
7.75968E-01 1.69948E-25
7.79596E-01 1.66059E-25
7.83203E-01 1.62254E-25
7.86788E-01 1.58533E-25
7.90351E-01 1.54893E-25
7.93893E-01 1.51333E-25
7.97411E-01 1.47849E-25
8.00908E-01 1.44442E-25
8.04381E-01 1.41108E-25
8.07831E-01 1.37847E-25
8.11257E-01 1.34656E-25
8.14660E-01 1.31534E-25
8.18039E-01 1.28480E-25
8.21394E-01 1.25491E-25
8.24724E-01 1.22567E-25
8.28030E-01 1.19706E-25
8.31310E-01 1.16906E-25
8.34565E-01 1.14166E-25
8.37795E-01 1.11486E-25
8.40999E-01 1.08863E-25
8.44177E-01 1.06296E-25
8.47329E-01 1.03784E-25
8.50455E-01 1.01326E-25
8.53553E-01 9.89216E-26
8.56625E-01 9.65683E-26
8.59670E-01 9.42656E-26
8.62687E-01 9.20125E-26
8.65677E-01 8.98077E-26
8.68639E-01 8.76505E-26
8.71572E-01 8.55397E-26
8.74478E-01 8.34745E-26
8.77355E-01 8.14539E-26
8.80203E-01 7.94769E-26
8.83022E-01 7.75428E-26
8.85812E-01 7.56506E-26
8.88573E-01 7.37996E-26
8.91304E-01 7.19889E-26
8.94005E-01 7.02177E-26
8.96677E-01 6.84853E-26
8.99318E-01 6.67909E-26
9.01928E-01 6.51338E-26
9.04508E-01 6.35132E-26
9.07058E-01 6.19285E-26
9.09576E-01 6.03791E-26
9.12063E-01 5.88642E-26
9.14519E-01 5.73832E-26
9.16943E-01 5.59355E-26
9.19335E-01 5.45205E-26
9.21696E-01 5.31377E-26
9.24024E-01 5.17863E-26
9.26320E-01 5.04660E-26
9.28584E-01 4.91761E-26
9.30815E-01 4.79161E-26
9.33013E-01 4.66855E-26
9.35178E-01 4.54838E-26
9.37310E-01 4.43105E-26
9.39409E-01 4.31652E-26
9.41474E-01 4.20474E-26
9.43505E-01 4.09566E-26
9.45503E-01 3.98925E-26
9.47467E-01 3.88545E-26
9.49397E-01 3.78423E-26
9.51293E-01 3.68555E-26
9.53154E-01 3.58937E-26
9.54981E-01 3.49565E-26
9.56773E-01 3.40436E-26
9.58530E-01 3.31546E-26
9.60252E-01 3.22891E-26
9.61940E-01 3.14469E-26
9.63592E-01 3.06276E-26
9.65209E-01 2.98308E-26
9.66790E-01 2.90564E-26
9.68336E-01 2.83039E-26
9.69846E-01 2.75731E-26
9.71321E-01 2.68638E-26
9.72759E-01 2.61756E-26
9.74162E-01 2.55083E-26
9.75528E-01 2.48616E-26
9.76858E-01 2.42354E-26
9.78152E-01 2.36293E-26
9.79410E-01 2.30432E-26
9.80631E-01 2.24768E-26
9.81815E-01 2.19299E-26
9.82963E-01 2.14024E-26
9.84074E-01 2.08939E-26
9.85148E-01 2.04044E-26
9.86185E-01 1.99336E-26
9.87185E-01 1.94814E-26
9.88148E-01 1.90477E-26
9.89074E-01 1.86321E-26
9.89962E-01 1.82347E-26
9.90814E-01 1.78552E-26
9.91627E-01 1.74936E-26
9.92404E-01 1.71496E-26
9.93143E-01 1.68232E-26
9.93844E-01 1.65142E-26
9.94508E-01 1.62225E-26
9.95134E-01 1.59481E-26
9.95722E-01 1.56908E-26
9.96273E-01 1.54505E-26
9.96786E-01 1.52272E-26
9.97261E-01 1.50208E-26
9.97698E-01 1.48311E-26
9.98097E-01 1.46581E-26
9.98459E-01 1.45018E-26
9.98782E-01 1.43621E-26
9.99067E-01 1.42390E-26
9.99315E-01 1.41324E-26
9.99524E-01 1.40422E-26
9.99695E-01 1.39685E-26
9.99829E-01 1.39112E-26
9.99924E-01 1.38702E-26
9.99981E-01 1.38457E-26
1.00000E+00 1.38375E-26
