 #
 # Subroutine ELSEPA. Elastic scattering of electrons and positrons
 #                    by neutral atoms and positive ions
 #
 # Projectile: electron
 # Kinetic energy = 8.00000E+05 eV = 2.93995E+04 a.u.
 #
 # Element:  K,  Z =  19,  atomic weight = 3.90983E+01 g/mol
 #
 # Nuclear model: Fermi distribution
 #                Average radius = 3.63164E-13 cm
 #                Skin thickness = 5.46000E-14 cm
 #
 # Number of electrons = 19
 #
 # Electron density: Read from file Data/z_019.d
 #                   Number of data points =  857
 #                   Volume integral = 1.90000E+01
 #
 # Furness-McCarthy exchange potential
 #
 # LDA absorption potential (only electron-hole excitations):
 #                           Delta = 1.61000E+00 eV
 #                            Aabs = 2.00000E+00
 #
 # Total elastic cross section = 1.78460E-18 cm**2 = 6.37292E-02 a0**2
 # 1st transport cross section = 3.44158E-22 cm**2 = 1.22901E-05 a0**2
 # 2nd transport cross section = 9.57069E-22 cm**2 = 3.41776E-05 a0**2
 #
 #    Absorption cross section = 6.13252E-19 cm**2 = 2.18996E-02 a0**2
 #   Grand total cross section = 2.39910E-18 cm**2 = 8.56734E-02 a0**2
 #
 #
 # Differential cross section:                       MU=(1-COS(THETA))/2
 #
 #  THETA        MU          DCS          DCS        Sherman      error
 #  (deg)                 (cm**2/sr)   (a0**2/sr)    function
 #----------------------------------------------------------------------
0.00000E+00 5.29022E-14
7.61557E-13 5.29021E-14
1.18994E-12 5.29021E-14
1.71346E-12 5.29020E-14
2.33225E-12 5.29020E-14
3.04617E-12 5.29019E-14
3.85530E-12 5.29019E-14
4.75964E-12 5.29018E-14
5.75917E-12 5.29017E-14
6.85391E-12 5.29017E-14
8.04379E-12 5.29016E-14
9.32893E-12 5.29015E-14
1.07092E-11 5.29014E-14
1.21847E-11 5.29013E-14
1.37554E-11 5.29011E-14
1.54213E-11 5.29010E-14
1.71823E-11 5.29009E-14
1.90386E-11 5.29008E-14
2.09900E-11 5.29006E-14
2.30367E-11 5.29005E-14
2.51785E-11 5.29003E-14
2.74156E-11 5.29001E-14
2.97478E-11 5.29000E-14
3.21752E-11 5.28998E-14
3.46979E-11 5.28996E-14
3.73157E-11 5.28994E-14
4.00286E-11 5.28992E-14
4.28368E-11 5.28990E-14
4.57402E-11 5.28988E-14
4.87388E-11 5.28986E-14
5.18325E-11 5.28983E-14
5.50215E-11 5.28981E-14
5.83057E-11 5.28979E-14
6.16850E-11 5.28976E-14
6.51595E-11 5.28974E-14
6.87293E-11 5.28971E-14
7.23943E-11 5.28968E-14
7.61544E-11 5.28966E-14
1.18991E-10 5.28934E-14
1.71347E-10 5.28896E-14
2.33223E-10 5.28850E-14
3.04617E-10 5.28798E-14
3.85531E-10 5.28738E-14
4.75965E-10 5.28672E-14
5.75917E-10 5.28598E-14
6.85389E-10 5.28518E-14
8.04380E-10 5.28430E-14
9.32891E-10 5.28336E-14
1.07092E-09 5.28234E-14
1.21847E-09 5.28126E-14
1.37554E-09 5.28011E-14
1.54213E-09 5.27889E-14
1.71823E-09 5.27760E-14
1.90386E-09 5.27624E-14
2.09900E-09 5.27481E-14
2.30367E-09 5.27331E-14
2.51785E-09 5.27174E-14
2.74156E-09 5.27010E-14
2.97478E-09 5.26840E-14
3.21752E-09 5.26662E-14
3.46978E-09 5.26478E-14
3.73156E-09 5.26287E-14
4.00286E-09 5.26089E-14
4.28368E-09 5.25884E-14
4.57402E-09 5.25673E-14
4.87388E-09 5.25454E-14
5.18326E-09 5.25229E-14
5.50215E-09 5.24997E-14
5.83057E-09 5.24758E-14
6.16850E-09 5.24513E-14
6.51596E-09 5.24261E-14
6.87293E-09 5.24002E-14
7.23942E-09 5.23736E-14
7.61544E-09 5.23464E-14
1.18991E-08 5.20379E-14
1.71347E-08 5.16646E-14
2.33223E-08 5.12290E-14
3.04617E-08 5.07335E-14
3.85531E-08 5.01811E-14
4.75965E-08 4.95749E-14
5.75917E-08 4.89184E-14
6.85389E-08 4.82152E-14
8.04380E-08 4.74691E-14
9.32891E-08 4.66839E-14
1.07092E-07 4.58637E-14
1.21847E-07 4.50123E-14
1.37554E-07 4.41339E-14
1.54213E-07 4.32323E-14
1.71823E-07 4.23116E-14
1.90386E-07 4.13755E-14
2.09900E-07 4.04276E-14
2.30367E-07 3.94716E-14
2.51785E-07 3.85108E-14
2.74156E-07 3.75483E-14
2.97478E-07 3.65872E-14
3.21752E-07 3.56303E-14
3.46978E-07 3.46801E-14
3.73156E-07 3.37390E-14
4.00286E-07 3.28091E-14
4.28368E-07 3.18923E-14
4.57402E-07 3.09904E-14
4.87388E-07 3.01048E-14
5.18325E-07 2.92368E-14
5.50215E-07 2.83876E-14
5.83057E-07 2.75580E-14
6.16850E-07 2.67489E-14
6.51596E-07 2.59607E-14
6.87293E-07 2.51940E-14
7.23942E-07 2.44491E-14
7.61543E-07 2.37261E-14
1.18991E-06 1.76739E-14
1.71347E-06 1.34672E-14
2.33223E-06 1.05659E-14
3.04617E-06 8.51287E-15
3.85531E-06 7.00028E-15
4.75964E-06 5.83892E-15
5.75916E-06 4.91596E-15
6.85388E-06 4.16369E-15
8.04378E-06 3.54015E-15
9.32888E-06 3.01791E-15
1.07092E-05 2.57792E-15
1.21846E-05 2.20604E-15
1.37553E-05 1.89126E-15
1.54212E-05 1.62461E-15
1.71822E-05 1.39865E-15
1.90385E-05 1.20709E-15
2.09899E-05 1.04461E-15
2.30365E-05 9.06675E-16
2.51783E-05 7.89439E-16
2.74153E-05 6.89651E-16
2.97475E-05 6.04565E-16
3.21749E-05 5.31866E-16
3.46974E-05 4.69605E-16
3.73152E-05 4.16143E-16
4.00281E-05 3.70106E-16
4.28362E-05 3.30345E-16
4.57395E-05 2.95899E-16
4.87380E-05 2.65964E-16
5.18317E-05 2.39862E-16
5.50205E-05 2.17023E-16
5.83045E-05 1.96972E-16
6.16838E-05 1.79308E-16
6.51582E-05 1.63696E-16
6.87277E-05 1.49852E-16
7.23925E-05 1.37534E-16
7.61524E-05 1.26538E-16
9.21439E-05 9.26706E-17
1.09658E-04 6.98854E-17
1.28695E-04 5.39240E-17
1.49255E-04 4.23625E-17
1.71338E-04 3.37617E-17
1.94942E-04 2.72270E-17
2.20070E-04 2.21765E-17
2.46720E-04 1.82192E-17
2.74892E-04 1.50844E-17
3.04586E-04 1.25769E-17
3.35803E-04 1.05544E-17
3.68542E-04 8.91147E-18
4.02802E-04 7.56784E-18
4.38585E-04 6.46190E-18
4.75889E-04 5.54637E-18
5.14715E-04 4.78438E-18
5.55063E-04 4.14666E-18
5.96931E-04 3.61021E-18
6.40321E-04 3.15683E-18
6.85233E-04 2.77183E-18
7.31665E-04 2.44337E-18
7.79618E-04 2.16194E-18
8.29092E-04 1.91981E-18
8.80086E-04 1.71062E-18
9.32601E-04 1.52919E-18
9.86636E-04 1.37126E-18
1.04219E-03 1.23328E-18
1.09927E-03 1.11230E-18
1.15786E-03 1.00588E-18
1.21797E-03 9.11980E-19
1.27961E-03 8.28858E-19
1.34276E-03 7.55060E-19
1.40743E-03 6.89362E-19
1.47362E-03 6.30716E-19
1.54133E-03 5.78224E-19
1.61056E-03 5.31122E-19
1.68131E-03 4.88761E-19
1.75357E-03 4.50575E-19
1.82735E-03 4.16074E-19
1.90265E-03 3.84840E-19
1.97947E-03 3.56505E-19
2.05780E-03 3.30748E-19
2.13765E-03 3.07293E-19
2.21902E-03 2.85895E-19
2.30190E-03 2.66340E-19
2.38630E-03 2.48438E-19
2.47222E-03 2.32025E-19
2.55965E-03 2.16953E-19
2.64859E-03 2.03091E-19
2.73905E-03 1.90324E-19
2.83103E-03 1.78550E-19
2.92452E-03 1.67676E-19
3.01952E-03 1.57621E-19
3.11604E-03 1.48312E-19
3.21407E-03 1.39681E-19
3.31362E-03 1.31672E-19
3.41468E-03 1.24230E-19
3.51725E-03 1.17308E-19
3.62133E-03 1.10863E-19
3.72692E-03 1.04856E-19
3.83403E-03 9.92504E-20
3.94265E-03 9.40152E-20
4.05278E-03 8.91213E-20
4.16442E-03 8.45423E-20
4.27757E-03 8.02541E-20
4.39223E-03 7.62347E-20
4.50840E-03 7.24641E-20
4.62608E-03 6.89238E-20
4.74527E-03 6.55971E-20
4.86597E-03 6.24690E-20
4.98817E-03 5.95254E-20
5.11188E-03 5.67532E-20
5.23711E-03 5.41405E-20
5.36383E-03 5.16764E-20
5.49207E-03 4.93510E-20
5.62181E-03 4.71549E-20
5.75306E-03 4.50796E-20
5.88581E-03 4.31173E-20
6.02007E-03 4.12606E-20
6.15583E-03 3.95028E-20
6.29310E-03 3.78375E-20
6.43187E-03 3.62590E-20
6.57214E-03 3.47619E-20
6.71392E-03 3.33414E-20
6.85720E-03 3.19928E-20
7.00198E-03 3.07115E-20
7.14827E-03 2.94937E-20
7.29605E-03 2.83357E-20
7.44534E-03 2.72339E-20
7.59612E-03 2.61852E-20
7.97965E-03 2.37759E-20
8.37255E-03 2.16374E-20
8.77480E-03 1.97339E-20
9.18641E-03 1.80352E-20
9.60736E-03 1.65154E-20
1.00376E-02 1.51523E-20
1.04773E-02 1.39270E-20
1.09262E-02 1.28231E-20
1.13844E-02 1.18265E-20
1.18520E-02 1.09248E-20
1.23288E-02 1.01075E-20
1.28150E-02 9.36523E-21
1.33104E-02 8.68990E-21
1.38150E-02 8.07440E-21
1.43290E-02 7.51245E-21
1.48521E-02 6.99861E-21
1.53845E-02 6.52798E-21
1.59262E-02 6.09629E-21
1.64770E-02 5.69975E-21
1.70371E-02 5.33495E-21
1.76063E-02 4.99891E-21
1.81848E-02 4.68895E-21
1.87724E-02 4.40268E-21
1.93692E-02 4.13795E-21
1.99751E-02 3.89285E-21
2.05901E-02 3.66566E-21
2.12143E-02 3.45483E-21
2.18476E-02 3.25897E-21
2.24900E-02 3.07681E-21
2.31415E-02 2.90723E-21
2.38021E-02 2.74919E-21
2.44717E-02 2.60177E-21
2.51504E-02 2.46411E-21
2.58382E-02 2.33546E-21
2.65349E-02 2.21511E-21
2.72407E-02 2.10243E-21
2.79555E-02 1.99684E-21
2.86793E-02 1.89781E-21
2.94120E-02 1.80486E-21
3.01537E-02 1.71754E-21
3.09043E-02 1.63544E-21
3.16639E-02 1.55821E-21
3.24324E-02 1.48549E-21
3.32098E-02 1.41697E-21
3.39961E-02 1.35237E-21
3.47912E-02 1.29142E-21
3.55952E-02 1.23387E-21
3.64081E-02 1.17949E-21
3.72297E-02 1.12809E-21
3.80602E-02 1.07946E-21
3.88995E-02 1.03343E-21
3.97476E-02 9.89837E-22
4.06044E-02 9.48521E-22
4.14700E-02 9.09342E-22
4.23443E-02 8.72170E-22
4.32273E-02 8.36883E-22
4.41190E-02 8.03366E-22
4.50194E-02 7.71514E-22
4.59284E-02 7.41229E-22
4.68461E-02 7.12418E-22
4.87074E-02 6.58885E-22
5.06030E-02 6.10297E-22
5.25328E-02 5.66115E-22
5.44967E-02 5.25868E-22
5.64946E-02 4.89140E-22
5.85262E-02 4.55569E-22
6.05914E-02 4.24835E-22
6.26901E-02 3.96653E-22
6.48222E-02 3.70774E-22
6.69873E-02 3.46974E-22
6.91854E-02 3.25055E-22
7.14163E-02 3.04843E-22
7.36799E-02 2.86179E-22
7.59760E-02 2.68923E-22
7.83043E-02 2.52950E-22
8.06647E-02 2.38146E-22
8.30571E-02 2.24410E-22
8.54812E-02 2.11650E-22
8.79369E-02 1.99785E-22
9.04240E-02 1.88740E-22
9.29422E-02 1.78448E-22
9.54915E-02 1.68848E-22
9.80716E-02 1.59884E-22
1.00682E-01 1.51507E-22
1.03323E-01 1.43672E-22
1.05995E-01 1.36335E-22
1.08696E-01 1.29461E-22
1.11427E-01 1.23014E-22
1.14188E-01 1.16963E-22
1.16978E-01 1.11278E-22
1.19797E-01 1.05934E-22
1.22645E-01 1.00907E-22
1.25522E-01 9.61729E-23
1.28428E-01 9.17128E-23
1.31361E-01 8.75076E-23
1.34323E-01 8.35400E-23
1.37313E-01 7.97939E-23
1.40330E-01 7.62547E-23
1.43375E-01 7.29087E-23
1.46447E-01 6.97435E-23
1.49545E-01 6.67475E-23
1.52671E-01 6.39098E-23
1.55823E-01 6.12206E-23
1.59001E-01 5.86707E-23
1.62205E-01 5.62514E-23
1.65435E-01 5.39547E-23
1.68690E-01 5.17733E-23
1.71970E-01 4.97003E-23
1.75276E-01 4.77294E-23
1.78606E-01 4.58545E-23
1.81961E-01 4.40700E-23
1.85340E-01 4.23708E-23
1.88743E-01 4.07521E-23
1.92169E-01 3.92092E-23
1.95619E-01 3.77381E-23
1.99092E-01 3.63346E-23
2.02589E-01 3.49952E-23
2.06107E-01 3.37163E-23
2.09649E-01 3.24946E-23
2.13212E-01 3.13272E-23
2.16797E-01 3.02112E-23
2.20404E-01 2.91438E-23
2.24032E-01 2.81226E-23
2.27680E-01 2.71452E-23
2.31350E-01 2.62094E-23
2.35040E-01 2.53129E-23
2.38751E-01 2.44540E-23
2.42481E-01 2.36307E-23
2.46231E-01 2.28412E-23
2.50000E-01 2.20839E-23
2.53788E-01 2.13572E-23
2.57595E-01 2.06598E-23
2.61421E-01 1.99901E-23
2.65264E-01 1.93468E-23
2.69126E-01 1.87288E-23
2.73005E-01 1.81348E-23
2.76901E-01 1.75637E-23
2.80814E-01 1.70145E-23
2.84744E-01 1.64862E-23
2.88691E-01 1.59779E-23
2.92653E-01 1.54886E-23
2.96632E-01 1.50174E-23
3.00625E-01 1.45637E-23
3.04634E-01 1.41266E-23
3.08658E-01 1.37054E-23
3.12697E-01 1.32994E-23
3.16749E-01 1.29080E-23
3.20816E-01 1.25306E-23
3.24896E-01 1.21665E-23
3.28990E-01 1.18151E-23
3.33097E-01 1.14761E-23
3.37216E-01 1.11488E-23
3.41348E-01 1.08328E-23
3.45492E-01 1.05276E-23
3.49647E-01 1.02327E-23
3.53814E-01 9.94779E-24
3.57992E-01 9.67244E-24
3.62181E-01 9.40627E-24
3.66381E-01 9.14892E-24
3.70590E-01 8.90002E-24
3.74810E-01 8.65927E-24
3.79039E-01 8.42632E-24
3.83277E-01 8.20090E-24
3.87524E-01 7.98271E-24
3.91780E-01 7.77148E-24
3.96044E-01 7.56695E-24
4.00316E-01 7.36885E-24
4.04596E-01 7.17696E-24
4.08882E-01 6.99104E-24
4.13176E-01 6.81087E-24
4.17476E-01 6.63625E-24
4.21783E-01 6.46696E-24
4.26095E-01 6.30282E-24
4.30413E-01 6.14365E-24
4.34737E-01 5.98926E-24
4.39065E-01 5.83948E-24
4.43398E-01 5.69416E-24
4.47736E-01 5.55313E-24
4.52077E-01 5.41624E-24
4.56422E-01 5.28336E-24
4.60770E-01 5.15434E-24
4.65122E-01 5.02905E-24
4.69476E-01 4.90737E-24
4.73832E-01 4.78916E-24
4.78190E-01 4.67432E-24
4.82550E-01 4.56273E-24
4.86912E-01 4.45429E-24
4.91274E-01 4.34888E-24
4.95637E-01 4.24640E-24
5.00000E-01 4.14678E-24
5.04363E-01 4.04989E-24
5.08726E-01 3.95567E-24
5.13088E-01 3.86402E-24
5.17450E-01 3.77487E-24
5.21810E-01 3.68812E-24
5.26168E-01 3.60371E-24
5.30524E-01 3.52156E-24
5.34878E-01 3.44160E-24
5.39230E-01 3.36376E-24
5.43578E-01 3.28798E-24
5.47923E-01 3.21419E-24
5.52264E-01 3.14232E-24
5.56602E-01 3.07233E-24
5.60935E-01 3.00416E-24
5.65263E-01 2.93774E-24
5.69587E-01 2.87303E-24
5.73905E-01 2.80998E-24
5.78217E-01 2.74853E-24
5.82524E-01 2.68863E-24
5.86824E-01 2.63025E-24
5.91118E-01 2.57334E-24
5.95404E-01 2.51785E-24
5.99684E-01 2.46374E-24
6.03956E-01 2.41098E-24
6.08220E-01 2.35952E-24
6.12476E-01 2.30933E-24
6.16723E-01 2.26036E-24
6.20961E-01 2.21259E-24
6.25190E-01 2.16599E-24
6.29410E-01 2.12051E-24
6.33619E-01 2.07613E-24
6.37819E-01 2.03281E-24
6.42008E-01 1.99054E-24
6.46186E-01 1.94927E-24
6.50353E-01 1.90898E-24
6.54508E-01 1.86964E-24
6.58652E-01 1.83124E-24
6.62784E-01 1.79373E-24
6.66903E-01 1.75710E-24
6.71010E-01 1.72133E-24
6.75104E-01 1.68639E-24
6.79184E-01 1.65226E-24
6.83251E-01 1.61892E-24
6.87303E-01 1.58634E-24
6.91342E-01 1.55451E-24
6.95366E-01 1.52341E-24
6.99375E-01 1.49302E-24
7.03368E-01 1.46332E-24
7.07347E-01 1.43429E-24
7.11309E-01 1.40592E-24
7.15256E-01 1.37819E-24
7.19186E-01 1.35107E-24
7.23099E-01 1.32457E-24
7.26995E-01 1.29865E-24
7.30874E-01 1.27332E-24
7.34736E-01 1.24854E-24
7.38579E-01 1.22432E-24
7.42405E-01 1.20063E-24
7.46212E-01 1.17746E-24
7.50000E-01 1.15479E-24
7.53769E-01 1.13263E-24
7.57519E-01 1.11095E-24
7.61249E-01 1.08974E-24
7.64960E-01 1.06900E-24
7.68650E-01 1.04870E-24
7.72320E-01 1.02885E-24
7.75968E-01 1.00942E-24
7.79596E-01 9.90413E-25
7.83203E-01 9.71816E-25
7.86788E-01 9.53618E-25
7.90351E-01 9.35811E-25
7.93893E-01 9.18386E-25
7.97411E-01 9.01332E-25
8.00908E-01 8.84644E-25
8.04381E-01 8.68311E-25
8.07831E-01 8.52326E-25
8.11257E-01 8.36682E-25
8.14660E-01 8.21369E-25
8.18039E-01 8.06382E-25
8.21394E-01 7.91713E-25
8.24724E-01 7.77354E-25
8.28030E-01 7.63300E-25
8.31310E-01 7.49542E-25
8.34565E-01 7.36076E-25
8.37795E-01 7.22895E-25
8.40999E-01 7.09992E-25
8.44177E-01 6.97362E-25
8.47329E-01 6.84998E-25
8.50455E-01 6.72896E-25
8.53553E-01 6.61050E-25
8.56625E-01 6.49453E-25
8.59670E-01 6.38102E-25
8.62687E-01 6.26992E-25
8.65677E-01 6.16116E-25
8.68639E-01 6.05471E-25
8.71572E-01 5.95052E-25
8.74478E-01 5.84854E-25
8.77355E-01 5.74873E-25
8.80203E-01 5.65104E-25
8.83022E-01 5.55544E-25
8.85812E-01 5.46188E-25
8.88573E-01 5.37032E-25
8.91304E-01 5.28073E-25
8.94005E-01 5.19306E-25
8.96677E-01 5.10729E-25
8.99318E-01 5.02338E-25
9.01928E-01 4.94128E-25
9.04508E-01 4.86097E-25
9.07058E-01 4.78241E-25
9.09576E-01 4.70557E-25
9.12063E-01 4.63042E-25
9.14519E-01 4.55694E-25
9.16943E-01 4.48508E-25
9.19335E-01 4.41483E-25
9.21696E-01 4.34615E-25
9.24024E-01 4.27902E-25
9.26320E-01 4.21340E-25
9.28584E-01 4.14928E-25
9.30815E-01 4.08663E-25
9.33013E-01 4.02543E-25
9.35178E-01 3.96565E-25
9.37310E-01 3.90726E-25
9.39409E-01 3.85025E-25
9.41474E-01 3.79459E-25
9.43505E-01 3.74026E-25
9.45503E-01 3.68725E-25
9.47467E-01 3.63553E-25
9.49397E-01 3.58508E-25
9.51293E-01 3.53588E-25
9.53154E-01 3.48792E-25
9.54981E-01 3.44117E-25
9.56773E-01 3.39562E-25
9.58530E-01 3.35126E-25
9.60252E-01 3.30806E-25
9.61940E-01 3.26601E-25
9.63592E-01 3.22509E-25
9.65209E-01 3.18530E-25
9.66790E-01 3.14660E-25
9.68336E-01 3.10900E-25
9.69846E-01 3.07247E-25
9.71321E-01 3.03702E-25
9.72759E-01 3.00261E-25
9.74162E-01 2.96923E-25
9.75528E-01 2.93689E-25
9.76858E-01 2.90556E-25
9.78152E-01 2.87523E-25
9.79410E-01 2.84590E-25
9.80631E-01 2.81755E-25
9.81815E-01 2.79017E-25
9.82963E-01 2.76375E-25
9.84074E-01 2.73829E-25
9.85148E-01 2.71377E-25
9.86185E-01 2.69019E-25
9.87185E-01 2.66753E-25
9.88148E-01 2.64580E-25
9.89074E-01 2.62497E-25
9.89962E-01 2.60505E-25
9.90814E-01 2.58603E-25
9.91627E-01 2.56790E-25
9.92404E-01 2.55065E-25
9.93143E-01 2.53428E-25
9.93844E-01 2.51879E-25
9.94508E-01 2.50416E-25
9.95134E-01 2.49040E-25
9.95722E-01 2.47749E-25
9.96273E-01 2.46543E-25
9.96786E-01 2.45423E-25
9.97261E-01 2.44387E-25
9.97698E-01 2.43435E-25
9.98097E-01 2.42568E-25
9.98459E-01 2.41783E-25
9.98782E-01 2.41082E-25
9.99067E-01 2.40464E-25
9.99315E-01 2.39929E-25
9.99524E-01 2.39477E-25
9.99695E-01 2.39106E-25
9.99829E-01 2.38818E-25
9.99924E-01 2.38614E-25
9.99981E-01 2.38489E-25
1.00000E+00 2.38459E-25
