 #
 # Subroutine ELSEPA. Elastic scattering of electrons and positrons
 #                    by neutral atoms and positive ions
 #
 # Projectile: electron
 # Kinetic energy = 1.00000E+06 eV = 3.67493E+04 a.u.
 #
 # Element:  K,  Z =  19,  atomic weight = 3.90983E+01 g/mol
 #
 # Nuclear model: Fermi distribution
 #                Average radius = 3.63164E-13 cm
 #                Skin thickness = 5.46000E-14 cm
 #
 # Number of electrons = 19
 #
 # Electron density: Read from file Data/z_019.d
 #                   Number of data points =  857
 #                   Volume integral = 1.90000E+01
 #
 # Furness-McCarthy exchange potential
 #
 # LDA absorption potential (only electron-hole excitations):
 #                           Delta = 1.61000E+00 eV
 #                            Aabs = 2.00000E+00
 #
 # Total elastic cross section = 1.70935E-18 cm**2 = 6.10421E-02 a0**2
 # 1st transport cross section = 2.45444E-22 cm**2 = 8.76496E-06 a0**2
 # 2nd transport cross section = 6.85657E-22 cm**2 = 2.44852E-05 a0**2
 #
 #    Absorption cross section = 5.87505E-19 cm**2 = 2.09802E-02 a0**2
 #   Grand total cross section = 2.29804E-18 cm**2 = 8.20644E-02 a0**2
 #
 #
 # Differential cross section:                       MU=(1-COS(THETA))/2
 #
 #  THETA        MU          DCS          DCS        Sherman      error
 #  (deg)                 (cm**2/sr)   (a0**2/sr)    function
 #----------------------------------------------------------------------
0.00000E+00 7.02853E-14
7.61557E-13 7.02852E-14
1.18994E-12 7.02851E-14
1.71346E-12 7.02850E-14
2.33225E-12 7.02850E-14
3.04617E-12 7.02849E-14
3.85530E-12 7.02847E-14
4.75964E-12 7.02846E-14
5.75917E-12 7.02845E-14
6.85391E-12 7.02843E-14
8.04379E-12 7.02842E-14
9.32893E-12 7.02840E-14
1.07092E-11 7.02838E-14
1.21847E-11 7.02836E-14
1.37554E-11 7.02834E-14
1.54213E-11 7.02832E-14
1.71823E-11 7.02829E-14
1.90386E-11 7.02827E-14
2.09900E-11 7.02824E-14
2.30367E-11 7.02821E-14
2.51785E-11 7.02819E-14
2.74156E-11 7.02815E-14
2.97478E-11 7.02812E-14
3.21752E-11 7.02809E-14
3.46979E-11 7.02806E-14
3.73157E-11 7.02802E-14
4.00286E-11 7.02798E-14
4.28368E-11 7.02795E-14
4.57402E-11 7.02791E-14
4.87388E-11 7.02787E-14
5.18325E-11 7.02782E-14
5.50215E-11 7.02778E-14
5.83057E-11 7.02774E-14
6.16850E-11 7.02769E-14
6.51595E-11 7.02764E-14
6.87293E-11 7.02759E-14
7.23943E-11 7.02755E-14
7.61544E-11 7.02749E-14
1.18991E-10 7.02691E-14
1.71347E-10 7.02620E-14
2.33223E-10 7.02537E-14
3.04617E-10 7.02440E-14
3.85531E-10 7.02330E-14
4.75965E-10 7.02208E-14
5.75917E-10 7.02072E-14
6.85389E-10 7.01924E-14
8.04380E-10 7.01763E-14
9.32891E-10 7.01589E-14
1.07092E-09 7.01403E-14
1.21847E-09 7.01203E-14
1.37554E-09 7.00991E-14
1.54213E-09 7.00766E-14
1.71823E-09 7.00529E-14
1.90386E-09 7.00278E-14
2.09900E-09 7.00015E-14
2.30367E-09 6.99740E-14
2.51785E-09 6.99451E-14
2.74156E-09 6.99150E-14
2.97478E-09 6.98837E-14
3.21752E-09 6.98511E-14
3.46978E-09 6.98172E-14
3.73156E-09 6.97821E-14
4.00286E-09 6.97457E-14
4.28368E-09 6.97081E-14
4.57402E-09 6.96693E-14
4.87388E-09 6.96292E-14
5.18326E-09 6.95879E-14
5.50215E-09 6.95453E-14
5.83057E-09 6.95016E-14
6.16850E-09 6.94566E-14
6.51596E-09 6.94103E-14
6.87293E-09 6.93629E-14
7.23942E-09 6.93143E-14
7.61544E-09 6.92644E-14
1.18991E-08 6.87004E-14
1.71347E-08 6.80209E-14
2.33223E-08 6.72316E-14
3.04617E-08 6.63387E-14
3.85531E-08 6.53494E-14
4.75965E-08 6.42713E-14
5.75917E-08 6.31125E-14
6.85389E-08 6.18815E-14
8.04380E-08 6.05868E-14
9.32891E-08 5.92370E-14
1.07092E-07 5.78410E-14
1.21847E-07 5.64072E-14
1.37554E-07 5.49439E-14
1.54213E-07 5.34592E-14
1.71823E-07 5.19607E-14
1.90386E-07 5.04556E-14
2.09900E-07 4.89506E-14
2.30367E-07 4.74519E-14
2.51785E-07 4.59651E-14
2.74156E-07 4.44955E-14
2.97478E-07 4.30474E-14
3.21752E-07 4.16250E-14
3.46978E-07 4.02317E-14
3.73156E-07 3.88705E-14
4.00286E-07 3.75437E-14
4.28368E-07 3.62534E-14
4.57402E-07 3.50010E-14
4.87388E-07 3.37879E-14
5.18325E-07 3.26146E-14
5.50215E-07 3.14818E-14
5.83057E-07 3.03895E-14
6.16850E-07 2.93376E-14
6.51596E-07 2.83257E-14
6.87293E-07 2.73535E-14
7.23942E-07 2.64201E-14
7.61543E-07 2.55246E-14
1.18991E-06 1.84162E-14
1.71347E-06 1.38277E-14
2.33223E-06 1.07656E-14
3.04617E-06 8.60362E-15
3.85531E-06 6.99149E-15
4.75964E-06 5.73845E-15
5.75916E-06 4.73792E-15
6.85388E-06 3.92646E-15
8.04378E-06 3.26293E-15
9.32888E-06 2.71830E-15
1.07092E-05 2.27051E-15
1.21846E-05 1.90211E-15
1.37553E-05 1.59885E-15
1.54212E-05 1.34903E-15
1.71822E-05 1.14298E-15
1.90385E-05 9.72739E-16
2.09899E-05 8.31769E-16
2.30365E-05 7.14724E-16
2.51783E-05 6.17233E-16
2.74153E-05 5.35735E-16
2.97475E-05 4.67335E-16
3.21749E-05 4.09689E-16
3.46974E-05 3.60896E-16
3.73152E-05 3.19409E-16
4.00281E-05 2.83966E-16
4.28362E-05 2.53542E-16
4.57395E-05 2.27304E-16
4.87380E-05 2.04573E-16
5.18317E-05 1.84790E-16
5.50205E-05 1.67491E-16
5.83045E-05 1.52297E-16
6.16838E-05 1.38895E-16
6.51582E-05 1.27028E-16
6.87277E-05 1.16479E-16
7.23925E-05 1.07062E-16
7.61524E-05 9.86273E-17
9.21439E-05 7.24285E-17
1.09658E-04 5.45502E-17
1.28695E-04 4.18911E-17
1.49255E-04 3.26720E-17
1.71338E-04 2.58118E-17
1.94942E-04 2.06196E-17
2.20070E-04 1.66352E-17
2.46720E-04 1.35420E-17
2.74892E-04 1.11163E-17
3.04586E-04 9.19697E-18
3.35803E-04 7.66543E-18
3.68542E-04 6.43369E-18
4.02802E-04 5.43564E-18
4.38585E-04 4.62122E-18
4.75889E-04 3.95219E-18
5.14715E-04 3.39906E-18
5.55063E-04 2.93893E-18
5.96931E-04 2.55385E-18
6.40321E-04 2.22978E-18
6.85233E-04 1.95558E-18
7.31665E-04 1.72238E-18
7.79618E-04 1.52308E-18
8.29092E-04 1.35194E-18
8.80086E-04 1.20431E-18
9.32601E-04 1.07642E-18
9.86636E-04 9.65196E-19
1.04219E-03 8.68082E-19
1.09927E-03 7.82973E-19
1.15786E-03 7.08122E-19
1.21797E-03 6.42074E-19
1.27961E-03 5.83610E-19
1.34276E-03 5.31704E-19
1.40743E-03 4.85484E-19
1.47362E-03 4.44213E-19
1.54133E-03 4.07266E-19
1.61056E-03 3.74107E-19
1.68131E-03 3.44276E-19
1.75357E-03 3.17377E-19
1.82735E-03 2.93070E-19
1.90265E-03 2.71057E-19
1.97947E-03 2.51081E-19
2.05780E-03 2.32921E-19
2.13765E-03 2.16381E-19
2.21902E-03 2.01288E-19
2.30190E-03 1.87493E-19
2.38630E-03 1.74863E-19
2.47222E-03 1.63282E-19
2.55965E-03 1.52646E-19
2.64859E-03 1.42864E-19
2.73905E-03 1.33855E-19
2.83103E-03 1.25546E-19
2.92452E-03 1.17873E-19
3.01952E-03 1.10777E-19
3.11604E-03 1.04209E-19
3.21407E-03 9.81205E-20
3.31362E-03 9.24706E-20
3.41468E-03 8.72215E-20
3.51725E-03 8.23398E-20
3.62133E-03 7.77953E-20
3.72692E-03 7.35599E-20
3.83403E-03 6.96088E-20
3.94265E-03 6.59196E-20
4.05278E-03 6.24714E-20
4.16442E-03 5.92456E-20
4.27757E-03 5.62255E-20
4.39223E-03 5.33954E-20
4.50840E-03 5.07409E-20
4.62608E-03 4.82492E-20
4.74527E-03 4.59086E-20
4.86597E-03 4.37082E-20
4.98817E-03 4.16379E-20
5.11188E-03 3.96888E-20
5.23711E-03 3.78523E-20
5.36383E-03 3.61207E-20
5.49207E-03 3.44869E-20
5.62181E-03 3.29445E-20
5.75306E-03 3.14873E-20
5.88581E-03 3.01097E-20
6.02007E-03 2.88066E-20
6.15583E-03 2.75732E-20
6.29310E-03 2.64051E-20
6.43187E-03 2.52982E-20
6.57214E-03 2.42486E-20
6.71392E-03 2.32529E-20
6.85720E-03 2.23077E-20
7.00198E-03 2.14101E-20
7.14827E-03 2.05572E-20
7.29605E-03 1.97463E-20
7.44534E-03 1.89749E-20
7.59612E-03 1.82409E-20
7.97965E-03 1.65552E-20
8.37255E-03 1.50599E-20
8.77480E-03 1.37295E-20
9.18641E-03 1.25430E-20
9.60736E-03 1.14819E-20
1.00376E-02 1.05307E-20
1.04773E-02 9.67599E-21
1.09262E-02 8.90634E-21
1.13844E-02 8.21176E-21
1.18520E-02 7.58363E-21
1.23288E-02 7.01448E-21
1.28150E-02 6.49777E-21
1.33104E-02 6.02783E-21
1.38150E-02 5.59966E-21
1.43290E-02 5.20888E-21
1.48521E-02 4.85164E-21
1.53845E-02 4.52456E-21
1.59262E-02 4.22461E-21
1.64770E-02 3.94916E-21
1.70371E-02 3.69582E-21
1.76063E-02 3.46251E-21
1.81848E-02 3.24735E-21
1.87724E-02 3.04868E-21
1.93692E-02 2.86500E-21
1.99751E-02 2.69497E-21
2.05901E-02 2.53740E-21
2.12143E-02 2.39119E-21
2.18476E-02 2.25539E-21
2.24900E-02 2.12911E-21
2.31415E-02 2.01157E-21
2.38021E-02 1.90204E-21
2.44717E-02 1.79988E-21
2.51504E-02 1.70451E-21
2.58382E-02 1.61538E-21
2.65349E-02 1.53202E-21
2.72407E-02 1.45397E-21
2.79555E-02 1.38085E-21
2.86793E-02 1.31228E-21
2.94120E-02 1.24791E-21
3.01537E-02 1.18746E-21
3.09043E-02 1.13063E-21
3.16639E-02 1.07717E-21
3.24324E-02 1.02684E-21
3.32098E-02 9.79417E-22
3.39961E-02 9.34709E-22
3.47912E-02 8.92530E-22
3.55952E-02 8.52709E-22
3.64081E-02 8.15088E-22
3.72297E-02 7.79525E-22
3.80602E-02 7.45884E-22
3.88995E-02 7.14043E-22
3.97476E-02 6.83887E-22
4.06044E-02 6.55309E-22
4.14700E-02 6.28212E-22
4.23443E-02 6.02503E-22
4.32273E-02 5.78100E-22
4.41190E-02 5.54922E-22
4.50194E-02 5.32896E-22
4.59284E-02 5.11955E-22
4.68461E-02 4.92034E-22
4.87074E-02 4.55022E-22
5.06030E-02 4.21432E-22
5.25328E-02 3.90890E-22
5.44967E-02 3.63069E-22
5.64946E-02 3.37684E-22
5.85262E-02 3.14482E-22
6.05914E-02 2.93242E-22
6.26901E-02 2.73767E-22
6.48222E-02 2.55885E-22
6.69873E-02 2.39440E-22
6.91854E-02 2.24296E-22
7.14163E-02 2.10331E-22
7.36799E-02 1.97438E-22
7.59760E-02 1.85517E-22
7.83043E-02 1.74483E-22
8.06647E-02 1.64258E-22
8.30571E-02 1.54770E-22
8.54812E-02 1.45958E-22
8.79369E-02 1.37763E-22
9.04240E-02 1.30135E-22
9.29422E-02 1.23028E-22
9.54915E-02 1.16398E-22
9.80716E-02 1.10209E-22
1.00682E-01 1.04425E-22
1.03323E-01 9.90147E-23
1.05995E-01 9.39496E-23
1.08696E-01 8.92037E-23
1.11427E-01 8.47529E-23
1.14188E-01 8.05756E-23
1.16978E-01 7.66518E-23
1.19797E-01 7.29631E-23
1.22645E-01 6.94929E-23
1.25522E-01 6.62258E-23
1.28428E-01 6.31477E-23
1.31361E-01 6.02456E-23
1.34323E-01 5.75075E-23
1.37313E-01 5.49225E-23
1.40330E-01 5.24804E-23
1.43375E-01 5.01717E-23
1.46447E-01 4.79878E-23
1.49545E-01 4.59208E-23
1.52671E-01 4.39631E-23
1.55823E-01 4.21080E-23
1.59001E-01 4.03489E-23
1.62205E-01 3.86801E-23
1.65435E-01 3.70960E-23
1.68690E-01 3.55915E-23
1.71970E-01 3.41618E-23
1.75276E-01 3.28026E-23
1.78606E-01 3.15096E-23
1.81961E-01 3.02791E-23
1.85340E-01 2.91075E-23
1.88743E-01 2.79914E-23
1.92169E-01 2.69277E-23
1.95619E-01 2.59134E-23
1.99092E-01 2.49459E-23
2.02589E-01 2.40226E-23
2.06107E-01 2.31411E-23
2.09649E-01 2.22990E-23
2.13212E-01 2.14945E-23
2.16797E-01 2.07253E-23
2.20404E-01 1.99898E-23
2.24032E-01 1.92861E-23
2.27680E-01 1.86126E-23
2.31350E-01 1.79678E-23
2.35040E-01 1.73502E-23
2.38751E-01 1.67584E-23
2.42481E-01 1.61912E-23
2.46231E-01 1.56474E-23
2.50000E-01 1.51258E-23
2.53788E-01 1.46254E-23
2.57595E-01 1.41450E-23
2.61421E-01 1.36838E-23
2.65264E-01 1.32409E-23
2.69126E-01 1.28153E-23
2.73005E-01 1.24064E-23
2.76901E-01 1.20132E-23
2.80814E-01 1.16351E-23
2.84744E-01 1.12715E-23
2.88691E-01 1.09216E-23
2.92653E-01 1.05848E-23
2.96632E-01 1.02606E-23
3.00625E-01 9.94833E-24
3.04634E-01 9.64755E-24
3.08658E-01 9.35774E-24
3.12697E-01 9.07843E-24
3.16749E-01 8.80916E-24
3.20816E-01 8.54951E-24
3.24896E-01 8.29905E-24
3.28990E-01 8.05742E-24
3.33097E-01 7.82423E-24
3.37216E-01 7.59915E-24
3.41348E-01 7.38184E-24
3.45492E-01 7.17198E-24
3.49647E-01 6.96926E-24
3.53814E-01 6.77339E-24
3.57992E-01 6.58412E-24
3.62181E-01 6.40116E-24
3.66381E-01 6.22428E-24
3.70590E-01 6.05324E-24
3.74810E-01 5.88779E-24
3.79039E-01 5.72773E-24
3.83277E-01 5.57285E-24
3.87524E-01 5.42295E-24
3.91780E-01 5.27785E-24
3.96044E-01 5.13736E-24
4.00316E-01 5.00130E-24
4.04596E-01 4.86952E-24
4.08882E-01 4.74185E-24
4.13176E-01 4.61814E-24
4.17476E-01 4.49824E-24
4.21783E-01 4.38202E-24
4.26095E-01 4.26935E-24
4.30413E-01 4.16009E-24
4.34737E-01 4.05413E-24
4.39065E-01 3.95135E-24
4.43398E-01 3.85162E-24
4.47736E-01 3.75486E-24
4.52077E-01 3.66094E-24
4.56422E-01 3.56979E-24
4.60770E-01 3.48129E-24
4.65122E-01 3.39536E-24
4.69476E-01 3.31190E-24
4.73832E-01 3.23085E-24
4.78190E-01 3.15210E-24
4.82550E-01 3.07560E-24
4.86912E-01 3.00125E-24
4.91274E-01 2.92900E-24
4.95637E-01 2.85876E-24
5.00000E-01 2.79049E-24
5.04363E-01 2.72410E-24
5.08726E-01 2.65954E-24
5.13088E-01 2.59675E-24
5.17450E-01 2.53567E-24
5.21810E-01 2.47625E-24
5.26168E-01 2.41844E-24
5.30524E-01 2.36218E-24
5.34878E-01 2.30743E-24
5.39230E-01 2.25413E-24
5.43578E-01 2.20225E-24
5.47923E-01 2.15173E-24
5.52264E-01 2.10255E-24
5.56602E-01 2.05465E-24
5.60935E-01 2.00799E-24
5.65263E-01 1.96255E-24
5.69587E-01 1.91828E-24
5.73905E-01 1.87514E-24
5.78217E-01 1.83311E-24
5.82524E-01 1.79214E-24
5.86824E-01 1.75222E-24
5.91118E-01 1.71330E-24
5.95404E-01 1.67536E-24
5.99684E-01 1.63837E-24
6.03956E-01 1.60230E-24
6.08220E-01 1.56713E-24
6.12476E-01 1.53283E-24
6.16723E-01 1.49937E-24
6.20961E-01 1.46673E-24
6.25190E-01 1.43489E-24
6.29410E-01 1.40383E-24
6.33619E-01 1.37351E-24
6.37819E-01 1.34393E-24
6.42008E-01 1.31506E-24
6.46186E-01 1.28688E-24
6.50353E-01 1.25938E-24
6.54508E-01 1.23253E-24
6.58652E-01 1.20631E-24
6.62784E-01 1.18072E-24
6.66903E-01 1.15572E-24
6.71010E-01 1.13132E-24
6.75104E-01 1.10748E-24
6.79184E-01 1.08420E-24
6.83251E-01 1.06145E-24
6.87303E-01 1.03924E-24
6.91342E-01 1.01753E-24
6.95366E-01 9.96330E-25
6.99375E-01 9.75610E-25
7.03368E-01 9.55364E-25
7.07347E-01 9.35579E-25
7.11309E-01 9.16243E-25
7.15256E-01 8.97345E-25
7.19186E-01 8.78872E-25
7.23099E-01 8.60816E-25
7.26995E-01 8.43164E-25
7.30874E-01 8.25907E-25
7.34736E-01 8.09036E-25
7.38579E-01 7.92540E-25
7.42405E-01 7.76409E-25
7.46212E-01 7.60636E-25
7.50000E-01 7.45211E-25
7.53769E-01 7.30126E-25
7.57519E-01 7.15372E-25
7.61249E-01 7.00943E-25
7.64960E-01 6.86828E-25
7.68650E-01 6.73022E-25
7.72320E-01 6.59516E-25
7.75968E-01 6.46304E-25
7.79596E-01 6.33379E-25
7.83203E-01 6.20733E-25
7.86788E-01 6.08361E-25
7.90351E-01 5.96257E-25
7.93893E-01 5.84412E-25
7.97411E-01 5.72823E-25
8.00908E-01 5.61482E-25
8.04381E-01 5.50384E-25
8.07831E-01 5.39524E-25
8.11257E-01 5.28897E-25
8.14660E-01 5.18497E-25
8.18039E-01 5.08318E-25
8.21394E-01 4.98357E-25
8.24724E-01 4.88608E-25
8.28030E-01 4.79066E-25
8.31310E-01 4.69727E-25
8.34565E-01 4.60587E-25
8.37795E-01 4.51641E-25
8.40999E-01 4.42886E-25
8.44177E-01 4.34316E-25
8.47329E-01 4.25928E-25
8.50455E-01 4.17718E-25
8.53553E-01 4.09683E-25
8.56625E-01 4.01818E-25
8.59670E-01 3.94121E-25
8.62687E-01 3.86587E-25
8.65677E-01 3.79214E-25
8.68639E-01 3.71997E-25
8.71572E-01 3.64935E-25
8.74478E-01 3.58023E-25
8.77355E-01 3.51259E-25
8.80203E-01 3.44640E-25
8.83022E-01 3.38163E-25
8.85812E-01 3.31824E-25
8.88573E-01 3.25622E-25
8.91304E-01 3.19554E-25
8.94005E-01 3.13617E-25
8.96677E-01 3.07808E-25
8.99318E-01 3.02126E-25
9.01928E-01 2.96568E-25
9.04508E-01 2.91131E-25
9.07058E-01 2.85814E-25
9.09576E-01 2.80613E-25
9.12063E-01 2.75527E-25
9.14519E-01 2.70554E-25
9.16943E-01 2.65692E-25
9.19335E-01 2.60939E-25
9.21696E-01 2.56293E-25
9.24024E-01 2.51752E-25
9.26320E-01 2.47314E-25
9.28584E-01 2.42977E-25
9.30815E-01 2.38740E-25
9.33013E-01 2.34602E-25
9.35178E-01 2.30560E-25
9.37310E-01 2.26612E-25
9.39409E-01 2.22758E-25
9.41474E-01 2.18996E-25
9.43505E-01 2.15324E-25
9.45503E-01 2.11741E-25
9.47467E-01 2.08246E-25
9.49397E-01 2.04837E-25
9.51293E-01 2.01513E-25
9.53154E-01 1.98272E-25
9.54981E-01 1.95114E-25
9.56773E-01 1.92037E-25
9.58530E-01 1.89040E-25
9.60252E-01 1.86122E-25
9.61940E-01 1.83283E-25
9.63592E-01 1.80520E-25
9.65209E-01 1.77832E-25
9.66790E-01 1.75219E-25
9.68336E-01 1.72680E-25
9.69846E-01 1.70215E-25
9.71321E-01 1.67821E-25
9.72759E-01 1.65498E-25
9.74162E-01 1.63245E-25
9.75528E-01 1.61062E-25
9.76858E-01 1.58947E-25
9.78152E-01 1.56901E-25
9.79410E-01 1.54921E-25
9.80631E-01 1.53008E-25
9.81815E-01 1.51160E-25
9.82963E-01 1.49378E-25
9.84074E-01 1.47660E-25
9.85148E-01 1.46006E-25
9.86185E-01 1.44415E-25
9.87185E-01 1.42886E-25
9.88148E-01 1.41420E-25
9.89074E-01 1.40015E-25
9.89962E-01 1.38672E-25
9.90814E-01 1.37389E-25
9.91627E-01 1.36166E-25
9.92404E-01 1.35002E-25
9.93143E-01 1.33898E-25
9.93844E-01 1.32853E-25
9.94508E-01 1.31867E-25
9.95134E-01 1.30939E-25
9.95722E-01 1.30068E-25
9.96273E-01 1.29255E-25
9.96786E-01 1.28500E-25
9.97261E-01 1.27801E-25
9.97698E-01 1.27159E-25
9.98097E-01 1.26574E-25
9.98459E-01 1.26046E-25
9.98782E-01 1.25573E-25
9.99067E-01 1.25156E-25
9.99315E-01 1.24795E-25
9.99524E-01 1.24490E-25
9.99695E-01 1.24240E-25
9.99829E-01 1.24046E-25
9.99924E-01 1.23908E-25
9.99981E-01 1.23826E-25
1.00000E+00 1.23804E-25
