 #
 # Subroutine ELSEPA. Elastic scattering of electrons and positrons
 #                    by neutral atoms and positive ions
 #
 # Projectile: electron
 # Kinetic energy = 4.50000E+08 eV = 1.65372E+07 a.u.
 #
 # WARNING: High-energy factorization with free-atom DF screening.
 #          Absorption, polarization and exchange corrections are
 #          switched off.
 #          Phase shifts are calculated for the bare nucleus.
 #          Scattering amplitudes are not evaluated.
 #
 # Element:  K,  Z =  19,  atomic weight = 3.90983E+01 g/mol
 #
 # Nuclear model: Fermi distribution
 #                Average radius = 3.63164E-13 cm
 #                Skin thickness = 5.46000E-14 cm
 #
 # Number of electrons = 19
 #
 # Total elastic cross section = 1.50902E-18 cm**2 = 5.38882E-02 a0**2
 # 1st transport cross section = 3.78360E-27 cm**2 = 1.35115E-10 a0**2
 # 2nd transport cross section = 1.13430E-26 cm**2 = 4.05067E-10 a0**2
 #
 #
 # Differential cross section:                       MU=(1-COS(THETA))/2
 #
 #  THETA        MU          DCS          DCS        Sherman      error
 #  (deg)                 (cm**2/sr)   (a0**2/sr)    function
 #----------------------------------------------------------------------
0.00000E+00 6.24603E-09
7.61557E-13 5.42246E-09
1.18994E-12 5.03337E-09
1.71346E-12 4.61662E-09
2.33225E-12 4.19391E-09
3.04617E-12 3.78230E-09
3.85530E-12 3.39421E-09
4.75964E-12 3.03742E-09
5.75917E-12 2.71574E-09
6.85391E-12 2.42996E-09
8.04379E-12 2.18553E-09
9.32893E-12 1.97372E-09
1.07092E-11 1.77834E-09
1.21847E-11 1.60500E-09
1.37554E-11 1.46547E-09
1.54213E-11 1.33812E-09
1.71823E-11 1.22301E-09
1.90386E-11 1.12827E-09
2.09900E-11 1.04214E-09
2.30367E-11 9.63942E-10
2.51785E-11 8.95727E-10
2.74156E-11 8.34038E-10
2.97478E-11 7.78003E-10
3.21752E-11 7.26771E-10
3.46979E-11 6.80106E-10
3.73157E-11 6.37664E-10
4.00286E-11 5.97997E-10
4.28368E-11 5.61214E-10
4.57402E-11 5.27705E-10
4.87388E-11 4.96256E-10
5.18325E-11 4.66487E-10
5.50215E-11 4.39315E-10
5.83057E-11 4.13959E-10
6.16850E-11 3.89505E-10
6.51595E-11 3.67138E-10
6.87293E-11 3.46459E-10
7.23943E-11 3.26221E-10
7.61544E-11 3.07670E-10
1.18991E-10 1.73805E-10
1.71347E-10 1.01461E-10
2.33223E-10 6.18623E-11
3.04617E-10 3.96554E-11
3.85531E-10 2.66959E-11
4.75965E-10 1.87789E-11
5.75917E-10 1.37130E-11
6.85389E-10 1.03235E-11
8.04380E-10 7.95541E-12
9.32891E-10 6.25963E-12
1.07092E-09 4.99871E-12
1.21847E-09 4.04027E-12
1.37554E-09 3.30143E-12
1.54213E-09 2.72281E-12
1.71823E-09 2.26359E-12
1.90386E-09 1.89301E-12
2.09900E-09 1.59317E-12
2.30367E-09 1.34905E-12
2.51785E-09 1.14878E-12
2.74156E-09 9.83357E-13
2.97478E-09 8.45377E-13
3.21752E-09 7.30297E-13
3.46978E-09 6.33788E-13
3.73156E-09 5.52426E-13
4.00286E-09 4.83476E-13
4.28368E-09 4.24715E-13
4.57402E-09 3.74535E-13
4.87388E-09 3.31494E-13
5.18326E-09 2.94420E-13
5.50215E-09 2.62349E-13
5.83057E-09 2.34501E-13
6.16850E-09 2.10250E-13
6.51596E-09 1.89056E-13
6.87293E-09 1.70470E-13
7.23942E-09 1.54115E-13
7.61544E-09 1.39679E-13
1.18991E-08 5.87218E-14
1.71347E-08 2.89525E-14
2.33223E-08 1.59146E-14
3.04617E-08 9.46317E-15
3.85531E-08 5.97289E-15
4.75965E-08 3.95152E-15
5.75917E-08 2.71599E-15
6.85389E-08 1.92688E-15
8.04380E-08 1.40409E-15
9.32891E-08 1.04686E-15
1.07092E-07 7.96153E-16
1.21847E-07 6.16083E-16
1.37554E-07 4.84090E-16
1.54213E-07 3.85579E-16
1.71823E-07 3.10871E-16
1.90386E-07 2.53393E-16
2.09900E-07 2.08594E-16
2.30367E-07 1.73263E-16
2.51785E-07 1.45101E-16
2.74156E-07 1.22431E-16
2.97478E-07 1.04018E-16
3.21752E-07 8.89376E-17
3.46978E-07 7.64928E-17
3.73156E-07 6.61496E-17
4.00286E-07 5.74964E-17
4.28368E-07 5.02124E-17
4.57402E-07 4.40459E-17
4.87388E-07 3.87974E-17
5.18325E-07 3.43077E-17
5.50215E-07 3.04489E-17
5.83057E-07 2.71176E-17
6.16850E-07 2.42295E-17
6.51596E-07 2.17159E-17
6.87293E-07 1.95199E-17
7.23942E-07 1.75945E-17
7.61543E-07 1.59008E-17
1.18991E-06 6.51466E-18
1.71347E-06 3.14202E-18
2.33223E-06 1.69614E-18
3.04617E-06 9.94340E-19
3.85531E-06 6.20818E-19
4.75964E-06 4.07356E-19
5.75916E-06 2.78255E-19
6.85388E-06 1.96484E-19
8.04378E-06 1.42665E-19
9.32888E-06 1.06076E-19
1.07092E-05 8.05016E-20
1.21846E-05 6.21911E-20
1.37553E-05 4.88036E-20
1.54212E-05 3.88326E-20
1.71822E-05 3.12832E-20
1.90385E-05 2.54817E-20
2.09899E-05 2.09669E-20
2.30365E-05 1.74090E-20
2.51783E-05 1.45746E-20
2.74153E-05 1.22941E-20
2.97475E-05 1.04426E-20
3.21749E-05 8.92695E-21
3.46974E-05 7.67667E-21
3.73152E-05 6.63795E-21
4.00281E-05 5.76923E-21
4.28362E-05 5.03815E-21
4.57395E-05 4.41932E-21
4.87380E-05 3.89265E-21
5.18317E-05 3.44214E-21
5.50205E-05 3.05495E-21
5.83045E-05 2.72071E-21
6.16838E-05 2.43097E-21
6.51582E-05 2.17881E-21
6.87277E-05 1.95854E-21
7.23925E-05 1.76543E-21
7.61524E-05 1.58783E-21
9.21439E-05 1.08364E-21
1.09658E-04 7.64404E-22
1.28695E-04 5.54390E-22
1.49255E-04 4.11672E-22
1.71338E-04 3.11976E-22
1.94942E-04 2.40639E-22
2.20070E-04 1.88518E-22
2.46720E-04 1.49728E-22
2.74892E-04 1.20382E-22
3.04586E-04 9.78544E-23
3.35803E-04 8.03317E-23
3.68542E-04 6.65394E-23
4.02802E-04 5.55653E-23
4.38585E-04 4.67471E-23
4.75889E-04 3.95973E-23
5.14715E-04 3.37518E-23
5.55063E-04 2.89361E-23
5.96931E-04 2.49407E-23
6.40321E-04 2.16040E-23
6.85233E-04 1.88003E-23
7.31665E-04 1.64311E-23
7.79618E-04 1.44185E-23
8.29092E-04 1.27001E-23
8.80086E-04 1.12261E-23
9.32601E-04 9.95628E-24
9.86636E-04 8.85771E-24
1.04219E-03 7.90364E-24
1.09927E-03 7.07198E-24
1.15786E-03 6.34452E-24
1.21797E-03 5.70608E-24
1.27961E-03 5.14402E-24
1.34276E-03 4.64772E-24
1.40743E-03 4.20826E-24
1.47362E-03 3.81808E-24
1.54133E-03 3.47075E-24
1.61056E-03 3.16081E-24
1.68131E-03 2.88360E-24
1.75357E-03 2.63510E-24
1.82735E-03 2.41187E-24
1.90265E-03 2.21092E-24
1.97947E-03 2.02967E-24
2.05780E-03 1.86589E-24
2.13765E-03 1.71762E-24
2.21902E-03 1.58317E-24
2.30190E-03 1.46103E-24
2.38630E-03 1.34992E-24
2.47222E-03 1.24867E-24
2.55965E-03 1.15628E-24
2.64859E-03 1.07185E-24
2.73905E-03 9.94583E-25
2.83103E-03 9.23783E-25
2.92452E-03 8.58825E-25
3.01952E-03 7.99154E-25
3.11604E-03 7.44273E-25
3.21407E-03 6.93740E-25
3.31362E-03 6.47159E-25
3.41468E-03 6.04175E-25
3.51725E-03 5.64469E-25
3.62133E-03 5.27753E-25
3.72692E-03 4.93770E-25
3.83403E-03 4.62287E-25
3.94265E-03 4.33093E-25
4.05278E-03 4.05999E-25
4.16442E-03 3.80830E-25
4.27757E-03 3.57432E-25
4.39223E-03 3.35662E-25
4.50840E-03 3.15390E-25
4.62608E-03 2.96501E-25
4.74527E-03 2.78886E-25
4.86597E-03 2.62448E-25
4.98817E-03 2.47097E-25
5.11188E-03 2.32753E-25
5.23711E-03 2.19340E-25
5.36383E-03 2.06790E-25
5.49207E-03 1.95040E-25
5.62181E-03 1.84033E-25
5.75306E-03 1.73716E-25
5.88581E-03 1.64040E-25
6.02007E-03 1.54960E-25
6.15583E-03 1.46435E-25
6.29310E-03 1.38427E-25
6.43187E-03 1.30901E-25
6.57214E-03 1.23825E-25
6.71392E-03 1.17167E-25
6.85720E-03 1.10902E-25
7.00198E-03 1.05002E-25
7.14827E-03 9.94447E-26
7.29605E-03 9.42074E-26
7.44534E-03 8.92697E-26
7.59612E-03 8.46127E-26
7.97965E-03 7.40848E-26
8.37255E-03 6.49599E-26
8.77480E-03 5.70337E-26
9.18641E-03 5.01349E-26
9.60736E-03 4.41190E-26
1.00376E-02 3.88638E-26
1.04773E-02 3.42655E-26
1.09262E-02 3.02361E-26
1.13844E-02 2.67000E-26
1.18520E-02 2.35928E-26
1.23288E-02 2.08593E-26
1.28150E-02 1.84518E-26
1.33104E-02 1.63292E-26
1.38150E-02 1.44561E-26
1.43290E-02 1.28017E-26
1.48521E-02 1.13393E-26
1.53845E-02 1.00458E-26
1.59262E-02 8.90083E-27
1.64770E-02 7.88685E-27
1.70371E-02 6.98840E-27
1.76063E-02 6.19198E-27
1.81848E-02 5.48573E-27
1.87724E-02 4.85924E-27
1.93692E-02 4.30338E-27
1.99751E-02 3.81008E-27
2.05901E-02 3.37225E-27
2.12143E-02 2.98361E-27
2.18476E-02 2.63863E-27
2.24900E-02 2.33242E-27
2.31415E-02 2.06064E-27
2.38021E-02 1.81946E-27
2.44717E-02 1.60548E-27
2.51504E-02 1.41566E-27
2.58382E-02 1.24735E-27
2.65349E-02 1.09814E-27
2.72407E-02 9.65938E-28
2.79555E-02 8.48851E-28
2.86793E-02 7.45209E-28
2.94120E-02 6.53521E-28
3.01537E-02 5.72461E-28
3.09043E-02 5.00848E-28
3.16639E-02 4.37631E-28
3.24324E-02 3.81871E-28
3.32098E-02 3.32735E-28
3.39961E-02 2.89478E-28
3.47912E-02 2.51437E-28
3.55952E-02 2.18021E-28
3.64081E-02 1.88704E-28
3.72297E-02 1.63016E-28
3.80602E-02 1.40542E-28
3.88995E-02 1.20907E-28
3.97476E-02 1.03782E-28
4.06044E-02 8.88712E-29
4.14700E-02 7.59132E-29
4.23443E-02 6.46748E-29
4.32273E-02 5.49490E-29
4.41190E-02 4.65519E-29
4.50194E-02 3.93202E-29
4.59284E-02 3.31094E-29
4.68461E-02 2.77911E-29
4.87074E-02 1.93913E-29
5.06030E-02 1.33616E-29
5.25328E-02 9.11067E-30
5.44967E-02 6.18013E-30
5.64946E-02 4.21701E-30
5.85262E-02 2.95131E-30
6.05914E-02 2.17829E-30
6.26901E-02 1.74423E-30
6.48222E-02 1.53512E-30
6.69873E-02 1.46770E-30
6.91854E-02 1.48228E-30
7.14163E-02 1.53712E-30
7.36799E-02 1.60402E-30
7.59760E-02 1.66483E-30
7.83043E-02 1.70876E-30
8.06647E-02 1.73029E-30
8.30571E-02 1.72758E-30
8.54812E-02 1.70127E-30
8.79369E-02 1.65356E-30
9.04240E-02 1.58755E-30
9.29422E-02 1.50675E-30
9.54915E-02 1.41477E-30
9.80716E-02 1.31506E-30
1.00682E-01 1.21079E-30
1.03323E-01 1.10474E-30
1.05995E-01 9.99304E-31
1.08696E-01 8.96422E-31
1.11427E-01 7.97647E-31
1.14188E-01 7.04155E-31
1.16978E-01 6.16781E-31
1.19797E-01 5.36064E-31
1.22645E-01 4.62293E-31
1.25522E-01 3.95543E-31
1.28428E-01 3.35724E-31
1.31361E-01 2.82607E-31
1.34323E-01 2.35867E-31
1.37313E-01 1.95103E-31
1.40330E-01 1.59868E-31
1.43375E-01 1.29689E-31
1.46447E-01 1.04080E-31
1.49545E-01 8.25605E-32
1.52671E-01 6.46625E-32
1.55823E-01 4.99404E-32
1.59001E-01 3.79758E-32
1.62205E-01 2.83818E-32
1.65435E-01 2.08047E-32
1.68690E-01 1.49251E-32
1.71970E-01 1.04580E-32
1.75276E-01 7.15157E-33
1.78606E-01 4.78556E-33
1.81961E-01 3.16967E-33
1.85340E-01 2.14108E-33
1.88743E-01 1.56208E-33
1.92169E-01 1.31763E-33
1.95619E-01 1.31288E-33
1.99092E-01 1.47077E-33
2.02589E-01 1.72975E-33
2.06107E-01 2.04163E-33
2.09649E-01 2.36961E-33
2.13212E-01 2.68648E-33
2.16797E-01 2.97294E-33
2.20404E-01 3.21625E-33
2.24032E-01 3.40887E-33
2.27680E-01 3.54740E-33
2.31350E-01 3.63161E-33
2.35040E-01 3.66365E-33
2.38751E-01 3.64735E-33
2.42481E-01 3.58768E-33
2.46231E-01 3.49029E-33
2.50000E-01 3.36114E-33
2.53788E-01 3.20622E-33
2.57595E-01 3.03135E-33
2.61421E-01 2.84198E-33
2.65264E-01 2.64315E-33
2.69126E-01 2.43936E-33
2.73005E-01 2.23454E-33
2.76901E-01 2.03208E-33
2.80814E-01 1.83481E-33
2.84744E-01 1.64503E-33
2.88691E-01 1.46451E-33
2.92653E-01 1.29462E-33
2.96632E-01 1.13627E-33
3.00625E-01 9.90050E-34
3.04634E-01 8.56210E-34
3.08658E-01 7.34751E-34
3.12697E-01 6.25450E-34
3.16749E-01 5.27907E-34
3.20816E-01 4.41585E-34
3.24896E-01 3.65843E-34
3.28990E-01 2.99965E-34
3.33097E-01 2.43191E-34
3.37216E-01 1.94736E-34
3.41348E-01 1.53809E-34
3.45492E-01 1.19634E-34
3.49647E-01 9.14562E-35
3.53814E-01 6.85556E-35
3.57992E-01 5.02534E-35
3.62181E-01 3.59172E-35
3.66381E-01 2.49645E-35
3.70590E-01 1.68639E-35
3.74810E-01 1.11361E-35
3.79039E-01 7.35275E-36
3.83277E-01 5.13482E-36
3.87524E-01 4.15057E-36
3.91780E-01 4.11269E-36
3.96044E-01 4.77502E-36
4.00316E-01 5.92958E-36
4.04596E-01 7.40264E-36
4.08882E-01 9.05186E-36
4.13176E-01 1.07623E-35
4.17476E-01 1.24435E-35
4.21783E-01 1.40262E-35
4.26095E-01 1.54596E-35
4.30413E-01 1.67084E-35
4.34737E-01 1.77505E-35
4.39065E-01 1.85744E-35
4.43398E-01 1.91775E-35
4.47736E-01 1.95645E-35
4.52077E-01 1.97450E-35
4.56422E-01 1.97329E-35
4.60770E-01 1.95451E-35
4.65122E-01 1.92001E-35
4.69476E-01 1.87176E-35
4.73832E-01 1.81173E-35
4.78190E-01 1.74191E-35
4.82550E-01 1.66421E-35
4.86912E-01 1.58042E-35
4.91274E-01 1.49223E-35
4.95637E-01 1.40118E-35
5.00000E-01 1.30866E-35
5.04363E-01 1.21591E-35
5.08726E-01 1.12401E-35
5.13088E-01 1.03388E-35
5.17450E-01 9.46307E-36
5.21810E-01 8.61931E-36
5.26168E-01 7.81263E-36
5.30524E-01 7.04694E-36
5.34878E-01 6.32509E-36
5.39230E-01 5.64893E-36
5.43578E-01 5.01949E-36
5.47923E-01 4.43705E-36
5.52264E-01 3.90121E-36
5.56602E-01 3.41108E-36
5.60935E-01 2.96530E-36
5.65263E-01 2.56216E-36
5.69587E-01 2.19968E-36
5.73905E-01 1.87564E-36
5.78217E-01 1.58771E-36
5.82524E-01 1.33345E-36
5.86824E-01 1.11038E-36
5.91118E-01 9.16016E-37
5.95404E-01 7.47912E-37
5.99684E-01 6.03677E-37
6.03956E-01 4.81005E-37
6.08220E-01 3.77691E-37
6.12476E-01 2.91639E-37
6.16723E-01 2.20890E-37
6.20961E-01 1.63598E-37
6.25190E-01 1.18060E-37
6.29410E-01 8.27081E-38
6.33619E-01 5.61007E-38
6.37819E-01 3.69396E-38
6.42008E-01 2.40357E-38
6.46186E-01 1.63361E-38
6.50353E-01 1.28953E-38
6.54508E-01 1.28779E-38
6.58652E-01 1.55532E-38
6.62784E-01 2.02804E-38
6.66903E-01 2.65078E-38
6.71010E-01 3.37628E-38
6.75104E-01 4.16472E-38
6.79184E-01 4.98305E-38
6.83251E-01 5.80324E-38
6.87303E-01 6.60317E-38
6.91342E-01 7.36526E-38
6.95366E-01 8.07552E-38
6.99375E-01 8.72390E-38
7.03368E-01 9.30337E-38
7.07347E-01 9.80924E-38
7.11309E-01 1.02390E-37
7.15256E-01 1.05921E-37
7.19186E-01 1.08696E-37
7.23099E-01 1.10735E-37
7.26995E-01 1.12068E-37
7.30874E-01 1.12732E-37
7.34736E-01 1.12773E-37
7.38579E-01 1.12237E-37
7.42405E-01 1.11176E-37
7.46212E-01 1.09640E-37
7.50000E-01 1.07680E-37
7.53769E-01 1.05345E-37
7.57519E-01 1.02692E-37
7.61249E-01 9.97630E-38
7.64960E-01 9.66062E-38
7.68650E-01 9.32636E-38
7.72320E-01 8.97776E-38
7.75968E-01 8.61846E-38
7.79596E-01 8.25199E-38
7.83203E-01 7.88139E-38
7.86788E-01 7.50950E-38
7.90351E-01 7.13889E-38
7.93893E-01 6.77167E-38
7.97411E-01 6.40987E-38
8.00908E-01 6.05511E-38
8.04381E-01 5.70863E-38
8.07831E-01 5.37178E-38
8.11257E-01 5.04542E-38
8.14660E-01 4.73029E-38
8.18039E-01 4.42710E-38
8.21394E-01 4.13608E-38
8.24724E-01 3.85766E-38
8.28030E-01 3.59200E-38
8.31310E-01 3.33914E-38
8.34565E-01 3.09900E-38
8.37795E-01 2.87155E-38
8.40999E-01 2.65666E-38
8.44177E-01 2.45393E-38
8.47329E-01 2.26320E-38
8.50455E-01 2.08411E-38
8.53553E-01 1.91635E-38
8.56625E-01 1.75944E-38
8.59670E-01 1.61305E-38
8.62687E-01 1.47667E-38
8.65677E-01 1.34991E-38
8.68639E-01 1.23227E-38
8.71572E-01 1.12328E-38
8.74478E-01 1.02252E-38
8.77355E-01 9.29455E-39
8.80203E-01 8.43694E-39
8.83022E-01 7.64740E-39
8.85812E-01 6.92191E-39
8.88573E-01 6.25603E-39
8.91304E-01 5.64583E-39
8.94005E-01 5.08718E-39
8.96677E-01 4.57665E-39
8.99318E-01 4.11064E-39
9.01928E-01 3.68587E-39
9.04508E-01 3.29933E-39
9.07058E-01 2.94798E-39
9.09576E-01 2.62913E-39
9.12063E-01 2.34021E-39
9.14519E-01 2.07893E-39
9.16943E-01 1.84318E-39
9.19335E-01 1.63074E-39
9.21696E-01 1.43971E-39
9.24024E-01 1.26820E-39
9.26320E-01 1.11468E-39
9.28584E-01 9.77444E-40
9.30815E-01 8.55228E-40
9.33013E-01 7.46415E-40
9.35178E-01 6.49841E-40
9.37310E-01 5.64326E-40
9.39409E-01 4.88703E-40
9.41474E-01 4.22110E-40
9.43505E-01 3.63483E-40
9.45503E-01 3.11996E-40
9.47467E-01 2.66956E-40
9.49397E-01 2.27587E-40
9.51293E-01 1.93265E-40
9.53154E-01 1.63458E-40
9.54981E-01 1.37490E-40
9.56773E-01 1.15107E-40
9.58530E-01 9.58431E-41
9.60252E-01 7.93291E-41
9.61940E-01 6.51927E-41
9.63592E-01 1.00000E-45
9.65209E-01 1.00000E-45
9.66790E-01 1.00000E-45
9.68336E-01 1.00000E-45
9.69846E-01 1.00000E-45
9.71321E-01 1.00000E-45
9.72759E-01 1.00000E-45
9.74162E-01 1.00000E-45
9.75528E-01 1.00000E-45
9.76858E-01 1.00000E-45
9.78152E-01 1.00000E-45
9.79410E-01 1.00000E-45
9.80631E-01 1.00000E-45
9.81815E-01 1.00000E-45
9.82963E-01 1.00000E-45
9.84074E-01 1.00000E-45
9.85148E-01 1.00000E-45
9.86185E-01 1.00000E-45
9.87185E-01 1.00000E-45
9.88148E-01 1.00000E-45
9.89074E-01 1.00000E-45
9.89962E-01 1.00000E-45
9.90814E-01 1.00000E-45
9.91627E-01 1.00000E-45
9.92404E-01 1.00000E-45
9.93143E-01 1.00000E-45
9.93844E-01 1.00000E-45
9.94508E-01 1.00000E-45
9.95134E-01 1.00000E-45
9.95722E-01 1.00000E-45
9.96273E-01 1.00000E-45
9.96786E-01 1.00000E-45
9.97261E-01 1.00000E-45
9.97698E-01 1.00000E-45
9.98097E-01 1.00000E-45
9.98459E-01 1.00000E-45
9.98782E-01 1.00000E-45
9.99067E-01 1.00000E-45
9.99315E-01 1.00000E-45
9.99524E-01 1.00000E-45
9.99695E-01 1.00000E-45
9.99829E-01 1.00000E-45
9.99924E-01 1.00000E-45
9.99981E-01 1.00000E-45
1.00000E+00 1.00000E-45
