 #
 # Subroutine ELSEPA. Elastic scattering of electrons and positrons
 #                    by neutral atoms and positive ions
 #
 # Projectile: electron
 # Kinetic energy = 7.00000E+07 eV = 2.57245E+06 a.u.
 #
 # WARNING: High-energy factorization with free-atom DF screening.
 #          Absorption, polarization and exchange corrections are
 #          switched off.
 #          Phase shifts are calculated for the bare nucleus.
 #          Scattering amplitudes are not evaluated.
 #
 # Element:  K,  Z =  19,  atomic weight = 3.90983E+01 g/mol
 #
 # Nuclear model: Fermi distribution
 #                Average radius = 3.63164E-13 cm
 #                Skin thickness = 5.46000E-14 cm
 #
 # Number of electrons = 19
 #
 # Total elastic cross section = 1.51365E-18 cm**2 = 5.40533E-02 a0**2
 # 1st transport cross section = 1.51951E-25 cm**2 = 5.42628E-09 a0**2
 # 2nd transport cross section = 4.47731E-25 cm**2 = 1.59887E-08 a0**2
 #
 #
 # Differential cross section:                       MU=(1-COS(THETA))/2
 #
 #  THETA        MU          DCS          DCS        Sherman      error
 #  (deg)                 (cm**2/sr)   (a0**2/sr)    function
 #----------------------------------------------------------------------
0.00000E+00 1.53005E-10
7.61557E-13 1.52452E-10
1.18994E-12 1.52143E-10
1.71346E-12 1.51767E-10
2.33225E-12 1.51324E-10
3.04617E-12 1.50816E-10
3.85530E-12 1.50244E-10
4.75964E-12 1.49608E-10
5.75917E-12 1.48911E-10
6.85391E-12 1.48152E-10
8.04379E-12 1.47336E-10
9.32893E-12 1.46460E-10
1.07092E-11 1.45532E-10
1.21847E-11 1.44547E-10
1.37554E-11 1.43512E-10
1.54213E-11 1.42425E-10
1.71823E-11 1.41294E-10
1.90386E-11 1.40113E-10
2.09900E-11 1.38893E-10
2.30367E-11 1.37627E-10
2.51785E-11 1.36326E-10
2.74156E-11 1.34984E-10
2.97478E-11 1.33612E-10
3.21752E-11 1.32204E-10
3.46979E-11 1.30770E-10
3.73157E-11 1.29303E-10
4.00286E-11 1.27817E-10
4.28368E-11 1.26302E-10
4.57402E-11 1.24771E-10
4.87388E-11 1.23217E-10
5.18325E-11 1.21652E-10
5.50215E-11 1.20067E-10
5.83057E-11 1.18476E-10
6.16850E-11 1.16869E-10
6.51595E-11 1.15260E-10
6.87293E-11 1.13639E-10
7.23943E-11 1.12019E-10
7.61544E-11 1.10392E-10
1.18991E-10 9.43771E-11
1.71347E-10 7.96328E-11
2.33223E-10 6.68586E-11
3.04617E-10 5.62238E-11
3.85531E-10 4.79227E-11
4.75965E-10 4.06656E-11
5.75917E-10 3.52004E-11
6.85389E-10 3.05405E-11
8.04380E-10 2.68854E-11
9.32891E-10 2.37759E-11
1.07092E-09 2.12043E-11
1.21847E-09 1.90044E-11
1.37554E-09 1.70972E-11
1.54213E-09 1.54519E-11
1.71823E-09 1.39770E-11
1.90386E-09 1.26938E-11
2.09900E-09 1.15207E-11
2.30367E-09 1.04923E-11
2.51785E-09 9.54328E-12
2.74156E-09 8.70617E-12
2.97478E-09 7.93134E-12
3.21752E-09 7.24435E-12
3.46978E-09 6.60882E-12
3.73156E-09 6.04291E-12
4.00286E-09 5.52052E-12
4.28368E-09 5.05364E-12
4.57402E-09 4.62381E-12
4.87388E-09 4.23842E-12
5.18326E-09 3.88451E-12
5.50215E-09 3.56626E-12
5.83057E-09 3.27462E-12
6.16850E-09 3.01166E-12
6.51596E-09 2.77106E-12
6.87293E-09 2.55355E-12
7.23942E-09 2.35475E-12
7.61544E-09 2.17461E-12
1.18991E-08 1.04607E-12
1.71347E-08 5.67255E-13
2.33223E-08 3.40414E-13
3.04617E-08 2.20316E-13
3.85531E-08 1.50295E-13
4.75965E-08 1.06446E-13
5.75917E-08 7.75283E-14
6.85389E-08 5.76994E-14
8.04380E-08 4.36695E-14
9.32891E-08 3.35356E-14
1.07092E-07 2.61105E-14
1.21847E-07 2.05847E-14
1.37554E-07 1.64128E-14
1.54213E-07 1.32232E-14
1.71823E-07 1.07618E-14
1.90386E-07 8.84115E-15
2.09900E-07 7.32693E-15
2.30367E-07 6.12104E-15
2.51785E-07 5.15285E-15
2.74156E-07 4.36874E-15
2.97478E-07 3.72851E-15
3.21752E-07 3.20159E-15
3.46978E-07 2.76497E-15
3.73156E-07 2.40071E-15
4.00286E-07 2.09488E-15
4.28368E-07 1.83650E-15
4.57402E-07 1.61702E-15
4.87388E-07 1.42959E-15
5.18325E-07 1.26874E-15
5.50215E-07 1.13001E-15
5.83057E-07 1.00986E-15
6.16850E-07 9.05350E-16
6.51596E-07 8.14097E-16
6.87293E-07 7.34110E-16
7.23942E-07 6.63749E-16
7.61543E-07 6.01657E-16
1.18991E-06 2.52728E-16
1.71347E-06 1.23941E-16
2.33223E-06 6.76348E-17
3.04617E-06 3.99303E-17
3.85531E-06 2.50471E-17
4.75964E-06 1.64870E-17
5.75916E-06 1.12866E-17
6.85388E-06 7.98221E-18
8.04378E-06 5.80234E-18
9.32888E-06 4.31782E-18
1.07092E-05 3.27886E-18
1.21846E-05 2.53428E-18
1.37553E-05 1.98948E-18
1.54212E-05 1.58348E-18
1.71822E-05 1.27593E-18
1.90385E-05 1.03951E-18
2.09899E-05 8.55459E-19
2.30365E-05 7.10389E-19
2.51783E-05 5.94791E-19
2.74153E-05 5.01768E-19
2.97475E-05 4.26234E-19
3.21749E-05 3.64393E-19
3.46974E-05 3.13375E-19
3.73152E-05 2.70985E-19
4.00281E-05 2.35529E-19
4.28362E-05 2.05683E-19
4.57395E-05 1.80420E-19
4.87380E-05 1.58919E-19
5.18317E-05 1.40527E-19
5.50205E-05 1.24720E-19
5.83045E-05 1.11074E-19
6.16838E-05 9.92456E-20
6.51582E-05 8.89513E-20
6.87277E-05 7.99585E-20
7.23925E-05 7.20747E-20
7.61524E-05 6.51340E-20
9.21439E-05 4.45026E-20
1.09658E-04 3.14321E-20
1.28695E-04 2.28283E-20
1.49255E-04 1.69775E-20
1.71338E-04 1.28874E-20
1.94942E-04 9.95839E-21
2.20070E-04 7.81647E-21
2.46720E-04 6.22091E-21
2.74892E-04 5.01259E-21
3.04586E-04 4.08405E-21
3.35803E-04 3.36096E-21
3.68542E-04 2.79113E-21
4.02802E-04 2.33715E-21
4.38585E-04 1.97187E-21
4.75889E-04 1.67528E-21
5.14715E-04 1.43244E-21
5.55063E-04 1.23207E-21
5.96931E-04 1.06556E-21
6.40321E-04 9.26262E-22
6.85233E-04 8.09014E-22
7.31665E-04 7.09753E-22
7.79618E-04 6.25266E-22
8.29092E-04 5.52991E-22
8.80086E-04 4.90869E-22
9.32601E-04 4.37235E-22
9.86636E-04 3.90733E-22
1.04219E-03 3.50256E-22
1.09927E-03 3.14889E-22
1.15786E-03 2.83877E-22
1.21797E-03 2.56593E-22
1.27961E-03 2.32511E-22
1.34276E-03 2.11190E-22
1.40743E-03 1.92259E-22
1.47362E-03 1.75403E-22
1.54133E-03 1.60356E-22
1.61056E-03 1.46888E-22
1.68131E-03 1.34806E-22
1.75357E-03 1.23941E-22
1.82735E-03 1.14149E-22
1.90265E-03 1.05306E-22
1.97947E-03 9.73031E-23
2.05780E-03 9.00463E-23
2.13765E-03 8.34536E-23
2.21902E-03 7.74536E-23
2.30190E-03 7.19832E-23
2.38630E-03 6.69875E-23
2.47222E-03 6.24177E-23
2.55965E-03 5.82311E-23
2.64859E-03 5.43897E-23
2.73905E-03 5.08598E-23
2.83103E-03 4.76117E-23
2.92452E-03 4.46188E-23
3.01952E-03 4.18574E-23
3.11604E-03 3.93062E-23
3.21407E-03 3.69465E-23
3.31362E-03 3.47611E-23
3.41468E-03 3.27349E-23
3.51725E-03 3.08542E-23
3.62133E-03 2.91065E-23
3.72692E-03 2.74808E-23
3.83403E-03 2.59669E-23
3.94265E-03 2.45558E-23
4.05278E-03 2.32392E-23
4.16442E-03 2.20096E-23
4.27757E-03 2.08602E-23
4.39223E-03 1.97848E-23
4.50840E-03 1.87777E-23
4.62608E-03 1.78339E-23
4.74527E-03 1.69485E-23
4.86597E-03 1.61174E-23
4.98817E-03 1.53365E-23
5.11188E-03 1.46023E-23
5.23711E-03 1.39114E-23
5.36383E-03 1.32609E-23
5.49207E-03 1.26478E-23
5.62181E-03 1.20698E-23
5.75306E-03 1.15243E-23
5.88581E-03 1.10093E-23
6.02007E-03 1.05226E-23
6.15583E-03 1.00625E-23
6.29310E-03 9.62727E-24
6.43187E-03 9.21523E-24
6.57214E-03 8.82495E-24
6.71392E-03 8.45507E-24
6.85720E-03 8.10432E-24
7.00198E-03 7.77152E-24
7.14827E-03 7.45559E-24
7.29605E-03 7.15552E-24
7.44534E-03 6.87034E-24
7.59612E-03 6.59920E-24
7.97965E-03 5.97745E-24
8.37255E-03 5.42702E-24
8.77480E-03 4.93832E-24
9.18641E-03 4.50322E-24
9.60736E-03 4.11482E-24
1.00376E-02 3.76725E-24
1.04773E-02 3.45546E-24
1.09262E-02 3.17512E-24
1.13844E-02 2.92251E-24
1.18520E-02 2.69440E-24
1.23288E-02 2.48800E-24
1.28150E-02 2.30088E-24
1.33104E-02 2.13091E-24
1.38150E-02 1.97626E-24
1.43290E-02 1.83529E-24
1.48521E-02 1.70658E-24
1.53845E-02 1.58887E-24
1.59262E-02 1.48106E-24
1.64770E-02 1.38217E-24
1.70371E-02 1.29133E-24
1.76063E-02 1.20776E-24
1.81848E-02 1.13078E-24
1.87724E-02 1.05978E-24
1.93692E-02 9.94204E-25
1.99751E-02 9.33572E-25
2.05901E-02 8.77443E-25
2.12143E-02 8.25421E-25
2.18476E-02 7.77153E-25
2.24900E-02 7.32319E-25
2.31415E-02 6.90631E-25
2.38021E-02 6.51828E-25
2.44717E-02 6.15676E-25
2.51504E-02 5.81961E-25
2.58382E-02 5.50489E-25
2.65349E-02 5.21084E-25
2.72407E-02 4.93587E-25
2.79555E-02 4.67850E-25
2.86793E-02 4.43742E-25
2.94120E-02 4.21140E-25
3.01537E-02 3.99934E-25
3.09043E-02 3.80023E-25
3.16639E-02 3.61312E-25
3.24324E-02 3.43717E-25
3.32098E-02 3.27160E-25
3.39961E-02 3.11567E-25
3.47912E-02 2.96874E-25
3.55952E-02 2.83018E-25
3.64081E-02 2.69943E-25
3.72297E-02 2.57599E-25
3.80602E-02 2.45936E-25
3.88995E-02 2.34910E-25
3.97476E-02 2.24480E-25
4.06044E-02 2.14609E-25
4.14700E-02 2.05261E-25
4.23443E-02 1.96403E-25
4.32273E-02 1.88006E-25
4.41190E-02 1.80040E-25
4.50194E-02 1.72481E-25
4.59284E-02 1.65303E-25
4.68461E-02 1.58484E-25
4.87074E-02 1.45839E-25
5.06030E-02 1.34395E-25
5.25328E-02 1.24018E-25
5.44967E-02 1.14593E-25
5.64946E-02 1.06018E-25
5.85262E-02 9.82030E-26
6.05914E-02 9.10703E-26
6.26901E-02 8.45503E-26
6.48222E-02 7.85819E-26
6.69873E-02 7.31107E-26
6.91854E-02 6.80887E-26
7.14163E-02 6.34729E-26
7.36799E-02 5.92252E-26
7.59760E-02 5.53115E-26
7.83043E-02 5.17014E-26
8.06647E-02 4.83674E-26
8.30571E-02 4.52852E-26
8.54812E-02 4.24326E-26
8.79369E-02 3.97900E-26
9.04240E-02 3.73393E-26
9.29422E-02 3.50645E-26
9.54915E-02 3.29509E-26
9.80716E-02 3.09854E-26
1.00682E-01 2.91560E-26
1.03323E-01 2.74518E-26
1.05995E-01 2.58629E-26
1.08696E-01 2.43804E-26
1.11427E-01 2.29959E-26
1.14188E-01 2.17022E-26
1.16978E-01 2.04922E-26
1.19797E-01 1.93599E-26
1.22645E-01 1.82994E-26
1.25522E-01 1.73056E-26
1.28428E-01 1.63736E-26
1.31361E-01 1.54990E-26
1.34323E-01 1.46778E-26
1.37313E-01 1.39063E-26
1.40330E-01 1.31810E-26
1.43375E-01 1.24987E-26
1.46447E-01 1.18566E-26
1.49545E-01 1.12519E-26
1.52671E-01 1.06821E-26
1.55823E-01 1.01451E-26
1.59001E-01 9.63854E-27
1.62205E-01 9.16056E-27
1.65435E-01 8.70930E-27
1.68690E-01 8.28308E-27
1.71970E-01 7.88032E-27
1.75276E-01 7.49956E-27
1.78606E-01 7.13944E-27
1.81961E-01 6.79869E-27
1.85340E-01 6.47614E-27
1.88743E-01 6.17069E-27
1.92169E-01 5.88132E-27
1.95619E-01 5.60707E-27
1.99092E-01 5.34706E-27
2.02589E-01 5.10046E-27
2.06107E-01 4.86648E-27
2.09649E-01 4.64442E-27
2.13212E-01 4.43357E-27
2.16797E-01 4.23332E-27
2.20404E-01 4.04306E-27
2.24032E-01 3.86224E-27
2.27680E-01 3.69033E-27
2.31350E-01 3.52685E-27
2.35040E-01 3.37134E-27
2.38751E-01 3.22336E-27
2.42481E-01 3.08250E-27
2.46231E-01 2.94839E-27
2.50000E-01 2.82067E-27
2.53788E-01 2.69900E-27
2.57595E-01 2.58306E-27
2.61421E-01 2.47255E-27
2.65264E-01 2.36720E-27
2.69126E-01 2.26673E-27
2.73005E-01 2.17090E-27
2.76901E-01 2.07947E-27
2.80814E-01 1.99222E-27
2.84744E-01 1.90893E-27
2.88691E-01 1.82942E-27
2.92653E-01 1.75349E-27
2.96632E-01 1.68097E-27
3.00625E-01 1.61168E-27
3.04634E-01 1.54547E-27
3.08658E-01 1.48219E-27
3.12697E-01 1.42170E-27
3.16749E-01 1.36387E-27
3.20816E-01 1.30856E-27
3.24896E-01 1.25566E-27
3.28990E-01 1.20505E-27
3.33097E-01 1.15663E-27
3.37216E-01 1.11029E-27
3.41348E-01 1.06593E-27
3.45492E-01 1.02347E-27
3.49647E-01 9.82808E-28
3.53814E-01 9.43871E-28
3.57992E-01 9.06578E-28
3.62181E-01 8.70853E-28
3.66381E-01 8.36625E-28
3.70590E-01 8.03826E-28
3.74810E-01 7.72392E-28
3.79039E-01 7.42262E-28
3.83277E-01 7.13378E-28
3.87524E-01 6.85684E-28
3.91780E-01 6.59127E-28
3.96044E-01 6.33658E-28
4.00316E-01 6.09229E-28
4.04596E-01 5.85793E-28
4.08882E-01 5.63309E-28
4.13176E-01 5.41733E-28
4.17476E-01 5.21029E-28
4.21783E-01 5.01156E-28
4.26095E-01 4.82081E-28
4.30413E-01 4.63769E-28
4.34737E-01 4.46187E-28
4.39065E-01 4.29304E-28
4.43398E-01 4.13091E-28
4.47736E-01 3.97520E-28
4.52077E-01 3.82563E-28
4.56422E-01 3.68194E-28
4.60770E-01 3.54390E-28
4.65122E-01 3.41127E-28
4.69476E-01 3.28382E-28
4.73832E-01 3.16133E-28
4.78190E-01 3.04361E-28
4.82550E-01 2.93046E-28
4.86912E-01 2.82169E-28
4.91274E-01 2.71712E-28
4.95637E-01 2.61657E-28
5.00000E-01 2.51990E-28
5.04363E-01 2.42693E-28
5.08726E-01 2.33752E-28
5.13088E-01 2.25153E-28
5.17450E-01 2.16882E-28
5.21810E-01 2.08925E-28
5.26168E-01 2.01271E-28
5.30524E-01 1.93906E-28
5.34878E-01 1.86820E-28
5.39230E-01 1.80002E-28
5.43578E-01 1.73441E-28
5.47923E-01 1.67126E-28
5.52264E-01 1.61049E-28
5.56602E-01 1.55199E-28
5.60935E-01 1.49568E-28
5.65263E-01 1.44148E-28
5.69587E-01 1.38929E-28
5.73905E-01 1.33905E-28
5.78217E-01 1.29067E-28
5.82524E-01 1.24409E-28
5.86824E-01 1.19923E-28
5.91118E-01 1.15603E-28
5.95404E-01 1.11442E-28
5.99684E-01 1.07435E-28
6.03956E-01 1.03575E-28
6.08220E-01 9.98572E-29
6.12476E-01 9.62755E-29
6.16723E-01 9.28251E-29
6.20961E-01 8.95009E-29
6.25190E-01 8.62980E-29
6.29410E-01 8.32120E-29
6.33619E-01 8.02383E-29
6.37819E-01 7.73728E-29
6.42008E-01 7.46113E-29
6.46186E-01 7.19500E-29
6.50353E-01 6.93851E-29
6.54508E-01 6.69129E-29
6.58652E-01 6.45300E-29
6.62784E-01 6.22331E-29
6.66903E-01 6.00190E-29
6.71010E-01 5.78845E-29
6.75104E-01 5.58267E-29
6.79184E-01 5.38428E-29
6.83251E-01 5.19300E-29
6.87303E-01 5.00857E-29
6.91342E-01 4.83073E-29
6.95366E-01 4.65925E-29
6.99375E-01 4.49389E-29
7.03368E-01 4.33442E-29
7.07347E-01 4.18063E-29
7.11309E-01 4.03231E-29
7.15256E-01 3.88925E-29
7.19186E-01 3.75128E-29
7.23099E-01 3.61819E-29
7.26995E-01 3.48981E-29
7.30874E-01 3.36598E-29
7.34736E-01 3.24652E-29
7.38579E-01 3.13128E-29
7.42405E-01 3.02010E-29
7.46212E-01 2.91284E-29
7.50000E-01 2.80936E-29
7.53769E-01 2.70951E-29
7.57519E-01 2.61317E-29
7.61249E-01 2.52021E-29
7.64960E-01 2.43051E-29
7.68650E-01 2.34395E-29
7.72320E-01 2.26042E-29
7.75968E-01 2.17982E-29
7.79596E-01 2.10202E-29
7.83203E-01 2.02695E-29
7.86788E-01 1.95449E-29
7.90351E-01 1.88456E-29
7.93893E-01 1.81706E-29
7.97411E-01 1.75191E-29
8.00908E-01 1.68902E-29
8.04381E-01 1.62832E-29
8.07831E-01 1.56973E-29
8.11257E-01 1.51316E-29
8.14660E-01 1.45856E-29
8.18039E-01 1.40585E-29
8.21394E-01 1.35496E-29
8.24724E-01 1.30584E-29
8.28030E-01 1.25841E-29
8.31310E-01 1.21262E-29
8.34565E-01 1.16841E-29
8.37795E-01 1.12572E-29
8.40999E-01 1.08451E-29
8.44177E-01 1.04472E-29
8.47329E-01 1.00629E-29
8.50455E-01 9.69192E-30
8.53553E-01 9.33368E-30
8.56625E-01 8.98776E-30
8.59670E-01 8.65373E-30
8.62687E-01 8.33117E-30
8.65677E-01 8.01969E-30
8.68639E-01 7.71891E-30
8.71572E-01 7.42844E-30
8.74478E-01 7.14795E-30
8.77355E-01 6.87708E-30
8.80203E-01 6.61549E-30
8.83022E-01 6.36288E-30
8.85812E-01 6.11893E-30
8.88573E-01 5.88334E-30
8.91304E-01 5.65583E-30
8.94005E-01 5.43612E-30
8.96677E-01 5.22394E-30
8.99318E-01 5.01904E-30
9.01928E-01 4.82117E-30
9.04508E-01 4.63008E-30
9.07058E-01 4.44556E-30
9.09576E-01 4.26737E-30
9.12063E-01 4.09530E-30
9.14519E-01 3.92915E-30
9.16943E-01 3.76872E-30
9.19335E-01 3.61380E-30
9.21696E-01 3.46423E-30
9.24024E-01 3.31981E-30
9.26320E-01 3.18039E-30
9.28584E-01 3.04578E-30
9.30815E-01 2.91583E-30
9.33013E-01 2.79039E-30
9.35178E-01 2.66931E-30
9.37310E-01 2.55244E-30
9.39409E-01 2.43965E-30
9.41474E-01 2.33080E-30
9.43505E-01 2.22576E-30
9.45503E-01 2.12442E-30
9.47467E-01 2.02664E-30
9.49397E-01 1.93232E-30
9.51293E-01 1.84134E-30
9.53154E-01 1.75360E-30
9.54981E-01 1.66900E-30
9.56773E-01 1.58743E-30
9.58530E-01 1.50881E-30
9.60252E-01 1.43303E-30
9.61940E-01 1.36001E-30
9.63592E-01 1.28967E-30
9.65209E-01 1.22192E-30
9.66790E-01 1.15669E-30
9.68336E-01 1.09389E-30
9.69846E-01 1.03346E-30
9.71321E-01 9.75328E-31
9.72759E-01 9.19422E-31
9.74162E-01 8.65681E-31
9.75528E-01 8.14041E-31
9.76858E-01 7.64443E-31
9.78152E-01 7.16831E-31
9.79410E-01 6.71148E-31
9.80631E-01 6.27342E-31
9.81815E-01 5.85363E-31
9.82963E-01 5.45163E-31
9.84074E-01 5.06695E-31
9.85148E-01 4.69916E-31
9.86185E-01 4.34783E-31
9.87185E-01 4.01255E-31
9.88148E-01 3.69295E-31
9.89074E-01 3.38866E-31
9.89962E-01 3.09933E-31
9.90814E-01 2.82463E-31
9.91627E-01 2.56425E-31
9.92404E-01 2.31788E-31
9.93143E-01 2.08525E-31
9.93844E-01 1.86610E-31
9.94508E-01 1.66016E-31
9.95134E-01 1.46722E-31
9.95722E-01 1.28704E-31
9.96273E-01 1.11943E-31
9.96786E-01 9.64186E-32
9.97261E-01 8.21141E-32
9.97698E-01 6.90129E-32
9.98097E-01 5.71002E-32
9.98459E-01 4.63625E-32
9.98782E-01 3.67875E-32
9.99067E-01 2.83643E-32
9.99315E-01 2.10835E-32
9.99524E-01 1.49367E-32
9.99695E-01 9.91701E-33
9.99829E-01 6.01873E-33
9.99924E-01 3.23739E-33
9.99981E-01 1.56984E-33
1.00000E+00 1.01413E-33
