 #
 # Subroutine ELSEPA. Elastic scattering of electrons and positrons
 #                    by neutral atoms and positive ions
 #
 # Projectile: electron
 # Kinetic energy = 4.00000E+07 eV = 1.46997E+06 a.u.
 #
 # WARNING: High-energy factorization with free-atom DF screening.
 #          Absorption, polarization and exchange corrections are
 #          switched off.
 #          Phase shifts are calculated for the bare nucleus.
 #          Scattering amplitudes are not evaluated.
 #
 # Element:  K,  Z =  19,  atomic weight = 3.90983E+01 g/mol
 #
 # Nuclear model: Fermi distribution
 #                Average radius = 3.63164E-13 cm
 #                Skin thickness = 5.46000E-14 cm
 #
 # Number of electrons = 19
 #
 # Total elastic cross section = 1.51281E-18 cm**2 = 5.40234E-02 a0**2
 # 1st transport cross section = 4.45664E-25 cm**2 = 1.59150E-08 a0**2
 # 2nd transport cross section = 1.29861E-24 cm**2 = 4.63743E-08 a0**2
 #
 #
 # Differential cross section:                       MU=(1-COS(THETA))/2
 #
 #  THETA        MU          DCS          DCS        Sherman      error
 #  (deg)                 (cm**2/sr)   (a0**2/sr)    function
 #----------------------------------------------------------------------
0.00000E+00 5.05055E-11
7.61557E-13 5.04449E-11
1.18994E-12 5.04111E-11
1.71346E-12 5.03697E-11
2.33225E-12 5.03210E-11
3.04617E-12 5.02648E-11
3.85530E-12 5.02013E-11
4.75964E-12 5.01305E-11
5.75917E-12 5.00524E-11
6.85391E-12 4.99671E-11
8.04379E-12 4.98747E-11
9.32893E-12 4.97752E-11
1.07092E-11 4.96688E-11
1.21847E-11 4.95554E-11
1.37554E-11 4.94350E-11
1.54213E-11 4.93079E-11
1.71823E-11 4.91742E-11
1.90386E-11 4.90338E-11
2.09900E-11 4.88866E-11
2.30367E-11 4.87336E-11
2.51785E-11 4.85740E-11
2.74156E-11 4.84080E-11
2.97478E-11 4.82360E-11
3.21752E-11 4.80584E-11
3.46979E-11 4.78745E-11
3.73157E-11 4.76845E-11
4.00286E-11 4.74898E-11
4.28368E-11 4.72892E-11
4.57402E-11 4.70829E-11
4.87388E-11 4.68715E-11
5.18325E-11 4.66555E-11
5.50215E-11 4.64340E-11
5.83057E-11 4.62071E-11
6.16850E-11 4.59767E-11
6.51595E-11 4.57413E-11
6.87293E-11 4.55009E-11
7.23943E-11 4.52565E-11
7.61544E-11 4.50086E-11
1.18991E-10 4.23266E-11
1.71347E-10 3.93859E-11
2.33223E-10 3.63234E-11
3.04617E-10 3.32586E-11
3.85531E-10 3.02849E-11
4.75965E-10 2.74714E-11
5.75917E-10 2.48627E-11
6.85389E-10 2.24822E-11
8.04380E-10 2.03368E-11
9.32891E-10 1.84225E-11
1.07092E-09 1.68215E-11
1.21847E-09 1.53333E-11
1.37554E-09 1.39533E-11
1.54213E-09 1.27622E-11
1.71823E-09 1.17599E-11
1.90386E-09 1.08370E-11
2.09900E-09 9.98956E-12
2.30367E-09 9.28476E-12
2.51785E-09 8.64223E-12
2.74156E-09 8.05295E-12
2.97478E-09 7.52264E-12
3.21752E-09 7.04882E-12
3.46978E-09 6.61425E-12
3.73156E-09 6.21564E-12
4.00286E-09 5.84710E-12
4.28368E-09 5.50865E-12
4.57402E-09 5.19788E-12
4.87388E-09 4.90709E-12
5.18326E-09 4.63261E-12
5.50215E-09 4.38028E-12
5.83057E-09 4.14809E-12
6.16850E-09 3.92132E-12
6.51596E-09 3.71115E-12
6.87293E-09 3.51746E-12
7.23942E-09 3.33359E-12
7.61544E-09 3.15607E-12
1.18991E-08 1.86820E-12
1.71347E-08 1.13116E-12
2.33223E-08 7.05844E-13
3.04617E-08 4.57245E-13
3.85531E-08 3.08550E-13
4.75965E-08 2.16564E-13
5.75917E-08 1.57507E-13
6.85389E-08 1.18143E-13
8.04380E-08 9.09317E-14
9.32891E-08 7.14754E-14
1.07092E-07 5.71007E-14
1.21847E-07 4.62960E-14
1.37554E-07 3.80046E-14
1.54213E-07 3.14667E-14
1.71823E-07 2.62621E-14
1.90386E-07 2.20916E-14
2.09900E-07 1.87037E-14
2.30367E-07 1.59049E-14
2.51785E-07 1.36045E-14
2.74156E-07 1.16979E-14
2.97478E-07 1.00970E-14
3.21752E-07 8.75302E-15
3.46978E-07 7.62152E-15
3.73156E-07 6.66219E-15
4.00286E-07 5.84297E-15
4.28368E-07 5.14433E-15
4.57402E-07 4.54556E-15
4.87388E-07 4.02884E-15
5.18325E-07 3.58251E-15
5.50215E-07 3.19581E-15
5.83057E-07 2.85928E-15
6.16850E-07 2.56522E-15
6.51596E-07 2.30792E-15
6.87293E-07 2.08200E-15
7.23942E-07 1.88281E-15
7.61543E-07 1.70686E-15
1.18991E-06 7.17670E-16
1.71347E-06 3.53735E-16
2.33223E-06 1.94561E-16
3.04617E-06 1.15836E-16
3.85531E-06 7.32221E-17
4.75964E-06 4.85146E-17
5.75916E-06 3.33913E-17
6.85388E-06 2.37183E-17
8.04378E-06 1.73012E-17
9.32888E-06 1.29107E-17
1.07092E-05 9.82592E-18
1.21846E-05 7.60825E-18
1.37553E-05 5.98137E-18
1.54212E-05 4.76635E-18
1.71822E-05 3.84434E-18
1.90385E-05 3.13450E-18
2.09899E-05 2.58123E-18
2.30365E-05 2.14467E-18
2.51783E-05 1.79651E-18
2.74153E-05 1.51612E-18
2.97475E-05 1.28832E-18
3.21749E-05 1.10171E-18
3.46974E-05 9.47685E-19
3.73152E-05 8.19663E-19
4.00281E-05 7.12549E-19
4.28362E-05 6.22374E-19
4.57395E-05 5.46019E-19
4.87380E-05 4.81018E-19
5.18317E-05 4.25404E-19
5.50205E-05 3.77595E-19
5.83045E-05 3.36317E-19
6.16838E-05 3.00528E-19
6.51582E-05 2.69377E-19
6.87277E-05 2.42161E-19
7.23925E-05 2.18298E-19
7.61524E-05 1.97299E-19
9.21439E-05 1.34831E-19
1.09658E-04 9.52446E-20
1.28695E-04 6.91788E-20
1.49255E-04 5.14499E-20
1.71338E-04 3.90559E-20
1.94942E-04 3.01802E-20
2.20070E-04 2.36896E-20
2.46720E-04 1.88545E-20
2.74892E-04 1.51928E-20
3.04586E-04 1.23789E-20
3.35803E-04 1.01876E-20
3.68542E-04 8.46072E-21
4.02802E-04 7.08490E-21
4.38585E-04 5.97785E-21
4.75889E-04 5.07897E-21
5.14715E-04 4.34296E-21
5.55063E-04 3.73567E-21
5.96931E-04 3.23098E-21
6.40321E-04 2.80877E-21
6.85233E-04 2.45338E-21
7.31665E-04 2.15250E-21
7.79618E-04 1.89640E-21
8.29092E-04 1.67730E-21
8.80086E-04 1.48898E-21
9.32601E-04 1.32639E-21
9.86636E-04 1.18541E-21
1.04219E-03 1.06269E-21
1.09927E-03 9.55464E-22
1.15786E-03 8.61438E-22
1.21797E-03 7.78709E-22
1.27961E-03 7.05686E-22
1.34276E-03 6.41034E-22
1.40743E-03 5.83626E-22
1.47362E-03 5.32510E-22
1.54133E-03 4.86874E-22
1.61056E-03 4.46029E-22
1.68131E-03 4.09383E-22
1.75357E-03 3.76428E-22
1.82735E-03 3.46727E-22
1.90265E-03 3.19901E-22
1.97947E-03 2.95623E-22
2.05780E-03 2.73607E-22
2.13765E-03 2.53606E-22
2.21902E-03 2.35401E-22
2.30190E-03 2.18802E-22
2.38630E-03 2.03643E-22
2.47222E-03 1.89775E-22
2.55965E-03 1.77069E-22
2.64859E-03 1.65411E-22
2.73905E-03 1.54697E-22
2.83103E-03 1.44838E-22
2.92452E-03 1.35752E-22
3.01952E-03 1.27369E-22
3.11604E-03 1.19624E-22
3.21407E-03 1.12459E-22
3.31362E-03 1.05823E-22
3.41468E-03 9.96702E-23
3.51725E-03 9.39586E-23
3.62133E-03 8.86507E-23
3.72692E-03 8.37128E-23
3.83403E-03 7.91143E-23
3.94265E-03 7.48277E-23
4.05278E-03 7.08277E-23
4.16442E-03 6.70918E-23
4.27757E-03 6.35993E-23
4.39223E-03 6.03313E-23
4.50840E-03 5.72707E-23
4.62608E-03 5.44020E-23
4.74527E-03 5.17109E-23
4.86597E-03 4.91843E-23
4.98817E-03 4.68103E-23
5.11188E-03 4.45779E-23
5.23711E-03 4.24772E-23
5.36383E-03 4.04989E-23
5.49207E-03 3.86345E-23
5.62181E-03 3.68763E-23
5.75306E-03 3.52171E-23
5.88581E-03 3.36502E-23
6.02007E-03 3.21696E-23
6.15583E-03 3.07696E-23
6.29310E-03 2.94450E-23
6.43187E-03 2.81909E-23
6.57214E-03 2.70030E-23
6.71392E-03 2.58771E-23
6.85720E-03 2.48092E-23
7.00198E-03 2.37959E-23
7.14827E-03 2.28339E-23
7.29605E-03 2.19200E-23
7.44534E-03 2.10514E-23
7.59612E-03 2.02255E-23
7.97965E-03 1.83312E-23
8.37255E-03 1.66536E-23
8.77480E-03 1.51637E-23
9.18641E-03 1.38368E-23
9.60736E-03 1.26520E-23
1.00376E-02 1.15913E-23
1.04773E-02 1.06395E-23
1.09262E-02 9.78345E-24
1.13844E-02 9.01175E-24
1.18520E-02 8.31465E-24
1.23288E-02 7.68365E-24
1.28150E-02 7.11137E-24
1.33104E-02 6.59136E-24
1.38150E-02 6.11799E-24
1.43290E-02 5.68633E-24
1.48521E-02 5.29205E-24
1.53845E-02 4.93133E-24
1.59262E-02 4.60078E-24
1.64770E-02 4.29744E-24
1.70371E-02 4.01866E-24
1.76063E-02 3.76209E-24
1.81848E-02 3.52563E-24
1.87724E-02 3.30744E-24
1.93692E-02 3.10582E-24
1.99751E-02 2.91931E-24
2.05901E-02 2.74656E-24
2.12143E-02 2.58637E-24
2.18476E-02 2.43765E-24
2.24900E-02 2.29945E-24
2.31415E-02 2.17087E-24
2.38021E-02 2.05113E-24
2.44717E-02 1.93950E-24
2.51504E-02 1.83534E-24
2.58382E-02 1.73805E-24
2.65349E-02 1.64709E-24
2.72407E-02 1.56199E-24
2.79555E-02 1.48229E-24
2.86793E-02 1.40758E-24
2.94120E-02 1.33750E-24
3.01537E-02 1.27170E-24
3.09043E-02 1.20989E-24
3.16639E-02 1.15176E-24
3.24324E-02 1.09706E-24
3.32098E-02 1.04555E-24
3.39961E-02 9.97012E-25
3.47912E-02 9.51239E-25
3.55952E-02 9.08047E-25
3.64081E-02 8.67261E-25
3.72297E-02 8.28724E-25
3.80602E-02 7.92288E-25
3.88995E-02 7.57818E-25
3.97476E-02 7.25187E-25
4.06044E-02 6.94280E-25
4.14700E-02 6.64989E-25
4.23443E-02 6.37212E-25
4.32273E-02 6.10859E-25
4.41190E-02 5.85841E-25
4.50194E-02 5.62079E-25
4.59284E-02 5.39498E-25
4.68461E-02 5.18028E-25
4.87074E-02 4.78168E-25
5.06030E-02 4.42030E-25
5.25328E-02 4.09206E-25
5.44967E-02 3.79339E-25
5.64946E-02 3.52115E-25
5.85262E-02 3.27259E-25
6.05914E-02 3.04530E-25
6.26901E-02 2.83713E-25
6.48222E-02 2.64620E-25
6.69873E-02 2.47081E-25
6.91854E-02 2.30950E-25
7.14163E-02 2.16092E-25
7.36799E-02 2.02390E-25
7.59760E-02 1.89738E-25
7.83043E-02 1.78041E-25
8.06647E-02 1.67214E-25
8.30571E-02 1.57182E-25
8.54812E-02 1.47876E-25
8.79369E-02 1.39234E-25
9.04240E-02 1.31200E-25
9.29422E-02 1.23724E-25
9.54915E-02 1.16761E-25
9.80716E-02 1.10269E-25
1.00682E-01 1.04211E-25
1.03323E-01 9.85527E-26
1.05995E-01 9.32630E-26
1.08696E-01 8.83138E-26
1.11427E-01 8.36795E-26
1.14188E-01 7.93364E-26
1.16978E-01 7.52631E-26
1.19797E-01 7.14400E-26
1.22645E-01 6.78490E-26
1.25522E-01 6.44737E-26
1.28428E-01 6.12987E-26
1.31361E-01 5.83102E-26
1.34323E-01 5.54953E-26
1.37313E-01 5.28423E-26
1.40330E-01 5.03402E-26
1.43375E-01 4.79790E-26
1.46447E-01 4.57493E-26
1.49545E-01 4.36427E-26
1.52671E-01 4.16511E-26
1.55823E-01 3.97672E-26
1.59001E-01 3.79843E-26
1.62205E-01 3.62959E-26
1.65435E-01 3.46963E-26
1.68690E-01 3.31799E-26
1.71970E-01 3.17418E-26
1.75276E-01 3.03772E-26
1.78606E-01 2.90817E-26
1.81961E-01 2.78512E-26
1.85340E-01 2.66820E-26
1.88743E-01 2.55705E-26
1.92169E-01 2.45133E-26
1.95619E-01 2.35074E-26
1.99092E-01 2.25499E-26
2.02589E-01 2.16381E-26
2.06107E-01 2.07694E-26
2.09649E-01 1.99415E-26
2.13212E-01 1.91521E-26
2.16797E-01 1.83991E-26
2.20404E-01 1.76807E-26
2.24032E-01 1.69950E-26
2.27680E-01 1.63401E-26
2.31350E-01 1.57147E-26
2.35040E-01 1.51170E-26
2.38751E-01 1.45457E-26
2.42481E-01 1.39994E-26
2.46231E-01 1.34769E-26
2.50000E-01 1.29769E-26
2.53788E-01 1.24984E-26
2.57595E-01 1.20402E-26
2.61421E-01 1.16014E-26
2.65264E-01 1.11811E-26
2.69126E-01 1.07782E-26
2.73005E-01 1.03921E-26
2.76901E-01 1.00219E-26
2.80814E-01 9.66677E-27
2.84744E-01 9.32610E-27
2.88691E-01 8.99917E-27
2.92653E-01 8.68536E-27
2.96632E-01 8.38406E-27
3.00625E-01 8.09470E-27
3.04634E-01 7.81673E-27
3.08658E-01 7.54964E-27
3.12697E-01 7.29293E-27
3.16749E-01 7.04615E-27
3.20816E-01 6.80886E-27
3.24896E-01 6.58064E-27
3.28990E-01 6.36109E-27
3.33097E-01 6.14984E-27
3.37216E-01 5.94652E-27
3.41348E-01 5.75079E-27
3.45492E-01 5.56234E-27
3.49647E-01 5.38086E-27
3.53814E-01 5.20604E-27
3.57992E-01 5.03761E-27
3.62181E-01 4.87531E-27
3.66381E-01 4.71888E-27
3.70590E-01 4.56807E-27
3.74810E-01 4.42267E-27
3.79039E-01 4.28244E-27
3.83277E-01 4.14719E-27
3.87524E-01 4.01670E-27
3.91780E-01 3.89079E-27
3.96044E-01 3.76928E-27
4.00316E-01 3.65199E-27
4.04596E-01 3.53876E-27
4.08882E-01 3.42942E-27
4.13176E-01 3.32383E-27
4.17476E-01 3.22184E-27
4.21783E-01 3.12331E-27
4.26095E-01 3.02811E-27
4.30413E-01 2.93611E-27
4.34737E-01 2.84720E-27
4.39065E-01 2.76124E-27
4.43398E-01 2.67815E-27
4.47736E-01 2.59779E-27
4.52077E-01 2.52008E-27
4.56422E-01 2.44492E-27
4.60770E-01 2.37221E-27
4.65122E-01 2.30186E-27
4.69476E-01 2.23379E-27
4.73832E-01 2.16791E-27
4.78190E-01 2.10415E-27
4.82550E-01 2.04242E-27
4.86912E-01 1.98266E-27
4.91274E-01 1.92480E-27
4.95637E-01 1.86877E-27
5.00000E-01 1.81449E-27
5.04363E-01 1.76192E-27
5.08726E-01 1.71100E-27
5.13088E-01 1.66165E-27
5.17450E-01 1.61384E-27
5.21810E-01 1.56750E-27
5.26168E-01 1.52259E-27
5.30524E-01 1.47906E-27
5.34878E-01 1.43686E-27
5.39230E-01 1.39594E-27
5.43578E-01 1.35627E-27
5.47923E-01 1.31779E-27
5.52264E-01 1.28047E-27
5.56602E-01 1.24428E-27
5.60935E-01 1.20917E-27
5.65263E-01 1.17510E-27
5.69587E-01 1.14205E-27
5.73905E-01 1.10998E-27
5.78217E-01 1.07886E-27
5.82524E-01 1.04865E-27
5.86824E-01 1.01933E-27
5.91118E-01 9.90873E-28
5.95404E-01 9.63242E-28
5.99684E-01 9.36415E-28
6.03956E-01 9.10366E-28
6.08220E-01 8.85071E-28
6.12476E-01 8.60505E-28
6.16723E-01 8.36645E-28
6.20961E-01 8.13468E-28
6.25190E-01 7.90955E-28
6.29410E-01 7.69083E-28
6.33619E-01 7.47832E-28
6.37819E-01 7.27184E-28
6.42008E-01 7.07120E-28
6.46186E-01 6.87621E-28
6.50353E-01 6.68670E-28
6.54508E-01 6.50251E-28
6.58652E-01 6.32346E-28
6.62784E-01 6.14941E-28
6.66903E-01 5.98021E-28
6.71010E-01 5.81570E-28
6.75104E-01 5.65574E-28
6.79184E-01 5.50020E-28
6.83251E-01 5.34894E-28
6.87303E-01 5.20184E-28
6.91342E-01 5.05877E-28
6.95366E-01 4.91961E-28
6.99375E-01 4.78425E-28
7.03368E-01 4.65258E-28
7.07347E-01 4.52448E-28
7.11309E-01 4.39985E-28
7.15256E-01 4.27860E-28
7.19186E-01 4.16061E-28
7.23099E-01 4.04580E-28
7.26995E-01 3.93408E-28
7.30874E-01 3.82535E-28
7.34736E-01 3.71954E-28
7.38579E-01 3.61654E-28
7.42405E-01 3.51629E-28
7.46212E-01 3.41871E-28
7.50000E-01 3.32372E-28
7.53769E-01 3.23125E-28
7.57519E-01 3.14122E-28
7.61249E-01 3.05357E-28
7.64960E-01 2.96823E-28
7.68650E-01 2.88514E-28
7.72320E-01 2.80423E-28
7.75968E-01 2.72544E-28
7.79596E-01 2.64871E-28
7.83203E-01 2.57399E-28
7.86788E-01 2.50122E-28
7.90351E-01 2.43035E-28
7.93893E-01 2.36132E-28
7.97411E-01 2.29409E-28
8.00908E-01 2.22860E-28
8.04381E-01 2.16481E-28
8.07831E-01 2.10267E-28
8.11257E-01 2.04214E-28
8.14660E-01 1.98317E-28
8.18039E-01 1.92572E-28
8.21394E-01 1.86976E-28
8.24724E-01 1.81523E-28
8.28030E-01 1.76211E-28
8.31310E-01 1.71036E-28
8.34565E-01 1.65993E-28
8.37795E-01 1.61080E-28
8.40999E-01 1.56292E-28
8.44177E-01 1.51628E-28
8.47329E-01 1.47083E-28
8.50455E-01 1.42654E-28
8.53553E-01 1.38339E-28
8.56625E-01 1.34134E-28
8.59670E-01 1.30037E-28
8.62687E-01 1.26045E-28
8.65677E-01 1.22155E-28
8.68639E-01 1.18364E-28
8.71572E-01 1.14671E-28
8.74478E-01 1.11071E-28
8.77355E-01 1.07565E-28
8.80203E-01 1.04147E-28
8.83022E-01 1.00818E-28
8.85812E-01 9.75737E-29
8.88573E-01 9.44129E-29
8.91304E-01 9.13332E-29
8.94005E-01 8.83328E-29
8.96677E-01 8.54096E-29
8.99318E-01 8.25618E-29
9.01928E-01 7.97876E-29
9.04508E-01 7.70851E-29
9.07058E-01 7.44526E-29
9.09576E-01 7.18885E-29
9.12063E-01 6.93910E-29
9.14519E-01 6.69588E-29
9.16943E-01 6.45901E-29
9.19335E-01 6.22835E-29
9.21696E-01 6.00375E-29
9.24024E-01 5.78508E-29
9.26320E-01 5.57220E-29
9.28584E-01 5.36497E-29
9.30815E-01 5.16326E-29
9.33013E-01 4.96696E-29
9.35178E-01 4.77593E-29
9.37310E-01 4.59006E-29
9.39409E-01 4.40924E-29
9.41474E-01 4.23335E-29
9.43505E-01 4.06229E-29
9.45503E-01 3.89595E-29
9.47467E-01 3.73424E-29
9.49397E-01 3.57704E-29
9.51293E-01 3.42427E-29
9.53154E-01 3.27584E-29
9.54981E-01 3.13165E-29
9.56773E-01 2.99162E-29
9.58530E-01 2.85566E-29
9.60252E-01 2.72369E-29
9.61940E-01 2.59563E-29
9.63592E-01 2.47141E-29
9.65209E-01 2.35096E-29
9.66790E-01 2.23419E-29
9.68336E-01 2.12104E-29
9.69846E-01 2.01144E-29
9.71321E-01 1.90534E-29
9.72759E-01 1.80266E-29
9.74162E-01 1.70334E-29
9.75528E-01 1.60733E-29
9.76858E-01 1.51457E-29
9.78152E-01 1.42500E-29
9.79410E-01 1.33858E-29
9.80631E-01 1.25525E-29
9.81815E-01 1.17496E-29
9.82963E-01 1.09767E-29
9.84074E-01 1.02333E-29
9.85148E-01 9.51894E-30
9.86185E-01 8.83327E-30
9.87185E-01 8.17587E-30
9.88148E-01 7.54635E-30
9.89074E-01 6.94435E-30
9.89962E-01 6.36951E-30
9.90814E-01 5.82152E-30
9.91627E-01 5.30004E-30
9.92404E-01 4.80478E-30
9.93143E-01 4.33545E-30
9.93844E-01 3.89178E-30
9.94508E-01 3.47353E-30
9.95134E-01 3.08043E-30
9.95722E-01 2.71228E-30
9.96273E-01 2.36886E-30
9.96786E-01 2.04997E-30
9.97261E-01 1.75542E-30
9.97698E-01 1.48506E-30
9.98097E-01 1.23872E-30
9.98459E-01 1.01627E-30
9.98782E-01 8.17570E-31
9.99067E-01 6.42514E-31
9.99315E-01 4.91002E-31
9.99524E-01 3.62945E-31
9.99695E-01 2.58271E-31
9.99829E-01 1.76920E-31
9.99924E-01 1.18845E-31
9.99981E-01 8.40136E-32
1.00000E+00 7.24044E-32
