 #
 # Subroutine ELSEPA. Elastic scattering of electrons and positrons
 #                    by neutral atoms and positive ions
 #
 # Projectile: positron
 # Kinetic energy = 9.00000E+06 eV = 3.30744E+05 a.u.
 #
 # WARNING: High-energy factorization with free-atom DF screening.
 #          Absorption, polarization and exchange corrections are
 #          switched off.
 #          Phase shifts are calculated for the bare nucleus.
 #          Scattering amplitudes are not evaluated.
 #
 # Element:  B,  Z =   5,  atomic weight = 1.08110E+01 g/mol
 #
 # Nuclear model: Fermi distribution
 #                Average radius = 2.36595E-13 cm
 #                Skin thickness = 5.46000E-14 cm
 #
 # Number of electrons =  5
 #
 # Total elastic cross section = 2.14843E-19 cm**2 = 7.67220E-03 a0**2
 # 1st transport cross section = 4.87026E-25 cm**2 = 1.73920E-08 a0**2
 # 2nd transport cross section = 1.40892E-24 cm**2 = 5.03133E-08 a0**2
 #
 #
 # Differential cross section:                       MU=(1-COS(THETA))/2
 #
 #  THETA        MU          DCS          DCS        Sherman      error
 #  (deg)                 (cm**2/sr)   (a0**2/sr)    function
 #----------------------------------------------------------------------
0.00000E+00 2.70533E-13
7.61557E-13 2.70527E-13
1.18994E-12 2.70524E-13
1.71346E-12 2.70520E-13
2.33225E-12 2.70515E-13
3.04617E-12 2.70510E-13
3.85530E-12 2.70504E-13
4.75964E-12 2.70497E-13
5.75917E-12 2.70489E-13
6.85391E-12 2.70481E-13
8.04379E-12 2.70472E-13
9.32893E-12 2.70463E-13
1.07092E-11 2.70452E-13
1.21847E-11 2.70441E-13
1.37554E-11 2.70429E-13
1.54213E-11 2.70417E-13
1.71823E-11 2.70403E-13
1.90386E-11 2.70389E-13
2.09900E-11 2.70375E-13
2.30367E-11 2.70359E-13
2.51785E-11 2.70343E-13
2.74156E-11 2.70326E-13
2.97478E-11 2.70309E-13
3.21752E-11 2.70291E-13
3.46979E-11 2.70272E-13
3.73157E-11 2.70252E-13
4.00286E-11 2.70232E-13
4.28368E-11 2.70211E-13
4.57402E-11 2.70189E-13
4.87388E-11 2.70166E-13
5.18325E-11 2.70143E-13
5.50215E-11 2.70119E-13
5.83057E-11 2.70095E-13
6.16850E-11 2.70069E-13
6.51595E-11 2.70043E-13
6.87293E-11 2.70016E-13
7.23943E-11 2.69989E-13
7.61544E-11 2.69961E-13
1.18991E-10 2.69640E-13
1.71347E-10 2.69249E-13
2.33223E-10 2.68788E-13
3.04617E-10 2.68257E-13
3.85531E-10 2.67658E-13
4.75965E-10 2.66990E-13
5.75917E-10 2.66255E-13
6.85389E-10 2.65453E-13
8.04380E-10 2.64585E-13
9.32891E-10 2.63652E-13
1.07092E-09 2.62656E-13
1.21847E-09 2.61595E-13
1.37554E-09 2.60473E-13
1.54213E-09 2.59292E-13
1.71823E-09 2.58049E-13
1.90386E-09 2.56749E-13
2.09900E-09 2.55394E-13
2.30367E-09 2.53980E-13
2.51785E-09 2.52513E-13
2.74156E-09 2.50996E-13
2.97478E-09 2.49424E-13
3.21752E-09 2.47804E-13
3.46978E-09 2.46138E-13
3.73156E-09 2.44422E-13
4.00286E-09 2.42662E-13
4.28368E-09 2.40863E-13
4.57402E-09 2.39016E-13
4.87388E-09 2.37132E-13
5.18326E-09 2.35212E-13
5.50215E-09 2.33251E-13
5.83057E-09 2.31257E-13
6.16850E-09 2.29233E-13
6.51596E-09 2.27172E-13
6.87293E-09 2.25084E-13
7.23942E-09 2.22971E-13
7.61544E-09 2.20826E-13
1.18991E-08 1.98315E-13
1.71347E-08 1.74900E-13
2.33223E-08 1.51465E-13
3.04617E-08 1.29890E-13
3.85531E-08 1.10621E-13
4.75965E-08 9.29623E-14
5.75917E-08 7.79262E-14
6.85389E-08 6.52281E-14
8.04380E-08 5.42643E-14
9.32891E-08 4.52173E-14
1.07092E-07 3.77484E-14
1.21847E-07 3.14862E-14
1.37554E-07 2.63603E-14
1.54213E-07 2.21488E-14
1.71823E-07 1.86546E-14
1.90386E-07 1.57836E-14
2.09900E-07 1.34132E-14
2.30367E-07 1.14448E-14
2.51785E-07 9.81191E-15
2.74156E-07 8.45041E-15
2.97478E-07 7.31156E-15
3.21752E-07 6.35524E-15
3.46978E-07 5.54822E-15
3.73156E-07 4.86597E-15
4.00286E-07 4.28421E-15
4.28368E-07 3.78624E-15
4.57402E-07 3.36257E-15
4.87388E-07 2.99784E-15
5.18325E-07 2.68247E-15
5.50215E-07 2.40937E-15
5.83057E-07 2.17112E-15
6.16850E-07 1.96248E-15
6.51596E-07 1.77936E-15
6.87293E-07 1.61780E-15
7.23942E-07 1.47480E-15
7.61543E-07 1.34799E-15
1.18991E-06 6.18143E-16
1.71347E-06 3.30045E-16
2.33223E-06 1.93834E-16
3.04617E-06 1.21576E-16
3.85531E-06 8.00408E-17
4.75964E-06 5.46658E-17
5.75916E-06 3.85225E-17
6.85388E-06 2.78681E-17
8.04378E-06 2.06097E-17
9.32888E-06 1.55470E-17
1.07092E-05 1.19340E-17
1.21846E-05 9.30131E-18
1.37553E-05 7.35093E-18
1.54212E-05 5.88252E-18
1.71822E-05 4.76029E-18
1.90385E-05 3.89700E-18
2.09899E-05 3.21544E-18
2.30365E-05 2.67466E-18
2.51783E-05 2.24216E-18
2.74153E-05 1.89356E-18
2.97475E-05 1.61033E-18
3.21749E-05 1.37840E-18
3.46974E-05 1.18693E-18
3.73152E-05 1.02754E-18
4.00281E-05 8.93887E-19
4.28362E-05 7.81089E-19
4.57395E-05 6.85361E-19
4.87380E-05 6.03753E-19
5.18317E-05 5.33907E-19
5.50205E-05 4.73897E-19
5.83045E-05 4.22129E-19
6.16838E-05 3.77283E-19
6.51582E-05 3.38258E-19
6.87277E-05 3.04147E-19
7.23925E-05 2.74207E-19
7.61524E-05 2.47835E-19
9.21439E-05 1.69277E-19
1.09658E-04 1.19584E-19
1.28695E-04 8.68209E-20
1.49255E-04 6.45487E-20
1.71338E-04 4.89846E-20
1.94942E-04 3.78324E-20
2.20070E-04 2.96880E-20
2.46720E-04 2.36165E-20
2.74892E-04 1.90230E-20
3.04586E-04 1.54932E-20
3.35803E-04 1.27447E-20
3.68542E-04 1.05805E-20
4.02802E-04 8.85565E-21
4.38585E-04 7.46908E-21
4.75889E-04 6.34311E-21
5.14715E-04 5.42159E-21
5.55063E-04 4.66157E-21
5.96931E-04 4.02994E-21
6.40321E-04 3.50195E-21
6.85233E-04 3.05747E-21
7.31665E-04 2.68140E-21
7.79618E-04 2.36137E-21
8.29092E-04 2.08765E-21
8.80086E-04 1.85251E-21
9.32601E-04 1.64949E-21
9.86636E-04 1.47358E-21
1.04219E-03 1.32046E-21
1.09927E-03 1.18673E-21
1.15786E-03 1.06951E-21
1.21797E-03 9.66384E-22
1.27961E-03 8.75412E-22
1.34276E-03 7.94874E-22
1.40743E-03 7.23396E-22
1.47362E-03 6.59768E-22
1.54133E-03 6.02977E-22
1.61056E-03 5.52173E-22
1.68131E-03 5.06596E-22
1.75357E-03 4.65631E-22
1.82735E-03 4.28718E-22
1.90265E-03 3.95391E-22
1.97947E-03 3.65240E-22
2.05780E-03 3.37903E-22
2.13765E-03 3.13080E-22
2.21902E-03 2.90490E-22
2.30190E-03 2.69902E-22
2.38630E-03 2.51104E-22
2.47222E-03 2.33913E-22
2.55965E-03 2.18169E-22
2.64859E-03 2.03724E-22
2.73905E-03 1.90457E-22
2.83103E-03 1.78250E-22
2.92452E-03 1.67005E-22
3.01952E-03 1.56633E-22
3.11604E-03 1.47052E-22
3.21407E-03 1.38194E-22
3.31362E-03 1.29991E-22
3.41468E-03 1.22387E-22
3.51725E-03 1.15331E-22
3.62133E-03 1.08776E-22
3.72692E-03 1.02680E-22
3.83403E-03 9.70038E-23
3.94265E-03 9.17148E-23
4.05278E-03 8.67808E-23
4.16442E-03 8.21740E-23
4.27757E-03 7.78687E-23
4.39223E-03 7.38411E-23
4.50840E-03 7.00706E-23
4.62608E-03 6.65373E-23
4.74527E-03 6.32238E-23
4.86597E-03 6.01138E-23
4.98817E-03 5.71924E-23
5.11188E-03 5.44463E-23
5.23711E-03 5.18627E-23
5.36383E-03 4.94305E-23
5.49207E-03 4.71390E-23
5.62181E-03 4.49786E-23
5.75306E-03 4.29405E-23
5.88581E-03 4.10163E-23
6.02007E-03 3.91987E-23
6.15583E-03 3.74804E-23
6.29310E-03 3.58552E-23
6.43187E-03 3.43170E-23
6.57214E-03 3.28602E-23
6.71392E-03 3.14800E-23
6.85720E-03 3.01712E-23
7.00198E-03 2.89298E-23
7.14827E-03 2.77514E-23
7.29605E-03 2.66323E-23
7.44534E-03 2.55691E-23
7.59612E-03 2.45582E-23
7.97965E-03 2.22410E-23
8.37255E-03 2.01904E-23
8.77480E-03 1.83704E-23
9.18641E-03 1.67506E-23
9.60736E-03 1.53053E-23
1.00376E-02 1.40122E-23
1.04773E-02 1.28527E-23
1.09262E-02 1.18104E-23
1.13844E-02 1.08715E-23
1.18520E-02 1.00239E-23
1.23288E-02 9.25716E-24
1.28150E-02 8.56221E-24
1.33104E-02 7.93113E-24
1.38150E-02 7.35702E-24
1.43290E-02 6.83382E-24
1.48521E-02 6.35621E-24
1.53845E-02 5.91951E-24
1.59262E-02 5.51959E-24
1.64770E-02 5.15280E-24
1.70371E-02 4.81590E-24
1.76063E-02 4.50603E-24
1.81848E-02 4.22061E-24
1.87724E-02 3.95738E-24
1.93692E-02 3.71430E-24
1.99751E-02 3.48955E-24
2.05901E-02 3.28149E-24
2.12143E-02 3.08867E-24
2.18476E-02 2.90976E-24
2.24900E-02 2.74357E-24
2.31415E-02 2.58905E-24
2.38021E-02 2.44522E-24
2.44717E-02 2.31120E-24
2.51504E-02 2.18622E-24
2.58382E-02 2.06953E-24
2.65349E-02 1.96050E-24
2.72407E-02 1.85853E-24
2.79555E-02 1.76308E-24
2.86793E-02 1.67366E-24
2.94120E-02 1.58981E-24
3.01537E-02 1.51113E-24
3.09043E-02 1.43724E-24
3.16639E-02 1.36778E-24
3.24324E-02 1.30246E-24
3.32098E-02 1.24097E-24
3.39961E-02 1.18305E-24
3.47912E-02 1.12846E-24
3.55952E-02 1.07696E-24
3.64081E-02 1.02836E-24
3.72297E-02 9.82452E-25
3.80602E-02 9.39066E-25
3.88995E-02 8.98036E-25
3.97476E-02 8.59212E-25
4.06044E-02 8.22452E-25
4.14700E-02 7.87627E-25
4.23443E-02 7.54615E-25
4.32273E-02 7.23306E-25
4.41190E-02 6.93594E-25
4.50194E-02 6.65384E-25
4.59284E-02 6.38585E-25
4.68461E-02 6.13114E-25
4.87074E-02 5.65848E-25
5.06030E-02 5.23023E-25
5.25328E-02 4.84149E-25
5.44967E-02 4.48797E-25
5.64946E-02 4.16592E-25
5.85262E-02 3.87206E-25
6.05914E-02 3.60347E-25
6.26901E-02 3.35760E-25
6.48222E-02 3.13218E-25
6.69873E-02 2.92522E-25
6.91854E-02 2.73494E-25
7.14163E-02 2.55975E-25
7.36799E-02 2.39825E-25
7.59760E-02 2.24917E-25
7.83043E-02 2.11139E-25
8.06647E-02 1.98390E-25
8.30571E-02 1.86580E-25
8.54812E-02 1.75626E-25
8.79369E-02 1.65457E-25
9.04240E-02 1.56005E-25
9.29422E-02 1.47211E-25
9.54915E-02 1.39021E-25
9.80716E-02 1.31386E-25
1.00682E-01 1.24262E-25
1.03323E-01 1.17608E-25
1.05995E-01 1.11388E-25
1.08696E-01 1.05568E-25
1.11427E-01 1.00119E-25
1.14188E-01 9.50118E-26
1.16978E-01 9.02215E-26
1.19797E-01 8.57251E-26
1.22645E-01 8.15011E-26
1.25522E-01 7.75301E-26
1.28428E-01 7.37943E-26
1.31361E-01 7.02771E-26
1.34323E-01 6.69636E-26
1.37313E-01 6.38398E-26
1.40330E-01 6.08929E-26
1.43375E-01 5.81110E-26
1.46447E-01 5.54833E-26
1.49545E-01 5.29997E-26
1.52671E-01 5.06509E-26
1.55823E-01 4.84282E-26
1.59001E-01 4.63236E-26
1.62205E-01 4.43298E-26
1.65435E-01 4.24399E-26
1.68690E-01 4.06474E-26
1.71970E-01 3.89465E-26
1.75276E-01 3.73317E-26
1.78606E-01 3.57977E-26
1.81961E-01 3.43399E-26
1.85340E-01 3.29537E-26
1.88743E-01 3.16351E-26
1.92169E-01 3.03800E-26
1.95619E-01 2.91850E-26
1.99092E-01 2.80467E-26
2.02589E-01 2.69618E-26
2.06107E-01 2.59274E-26
2.09649E-01 2.49407E-26
2.13212E-01 2.39992E-26
2.16797E-01 2.31004E-26
2.20404E-01 2.22420E-26
2.24032E-01 2.14219E-26
2.27680E-01 2.06381E-26
2.31350E-01 1.98886E-26
2.35040E-01 1.91717E-26
2.38751E-01 1.84858E-26
2.42481E-01 1.78292E-26
2.46231E-01 1.72005E-26
2.50000E-01 1.65983E-26
2.53788E-01 1.60213E-26
2.57595E-01 1.54682E-26
2.61421E-01 1.49379E-26
2.65264E-01 1.44292E-26
2.69126E-01 1.39411E-26
2.73005E-01 1.34727E-26
2.76901E-01 1.30230E-26
2.80814E-01 1.25911E-26
2.84744E-01 1.21762E-26
2.88691E-01 1.17775E-26
2.92653E-01 1.13943E-26
2.96632E-01 1.10258E-26
3.00625E-01 1.06715E-26
3.04634E-01 1.03306E-26
3.08658E-01 1.00025E-26
3.12697E-01 9.68673E-27
3.16749E-01 9.38271E-27
3.20816E-01 9.08992E-27
3.24896E-01 8.80787E-27
3.28990E-01 8.53611E-27
3.33097E-01 8.27419E-27
3.37216E-01 8.02169E-27
3.41348E-01 7.77822E-27
3.45492E-01 7.54340E-27
3.49647E-01 7.31686E-27
3.53814E-01 7.09826E-27
3.57992E-01 6.88729E-27
3.62181E-01 6.68361E-27
3.66381E-01 6.48695E-27
3.70590E-01 6.29701E-27
3.74810E-01 6.11353E-27
3.79039E-01 5.93625E-27
3.83277E-01 5.76492E-27
3.87524E-01 5.59931E-27
3.91780E-01 5.43920E-27
3.96044E-01 5.28437E-27
4.00316E-01 5.13462E-27
4.04596E-01 4.98975E-27
4.08882E-01 4.84958E-27
4.13176E-01 4.71392E-27
4.17476E-01 4.58262E-27
4.21783E-01 4.45550E-27
4.26095E-01 4.33241E-27
4.30413E-01 4.21321E-27
4.34737E-01 4.09774E-27
4.39065E-01 3.98587E-27
4.43398E-01 3.87747E-27
4.47736E-01 3.77241E-27
4.52077E-01 3.67058E-27
4.56422E-01 3.57186E-27
4.60770E-01 3.47613E-27
4.65122E-01 3.38329E-27
4.69476E-01 3.29325E-27
4.73832E-01 3.20589E-27
4.78190E-01 3.12114E-27
4.82550E-01 3.03889E-27
4.86912E-01 2.95907E-27
4.91274E-01 2.88158E-27
4.95637E-01 2.80635E-27
5.00000E-01 2.73331E-27
5.04363E-01 2.66237E-27
5.08726E-01 2.59347E-27
5.13088E-01 2.52654E-27
5.17450E-01 2.46152E-27
5.21810E-01 2.39834E-27
5.26168E-01 2.33694E-27
5.30524E-01 2.27726E-27
5.34878E-01 2.21925E-27
5.39230E-01 2.16286E-27
5.43578E-01 2.10802E-27
5.47923E-01 2.05469E-27
5.52264E-01 2.00283E-27
5.56602E-01 1.95239E-27
5.60935E-01 1.90331E-27
5.65263E-01 1.85557E-27
5.69587E-01 1.80911E-27
5.73905E-01 1.76390E-27
5.78217E-01 1.71989E-27
5.82524E-01 1.67706E-27
5.86824E-01 1.63537E-27
5.91118E-01 1.59477E-27
5.95404E-01 1.55524E-27
5.99684E-01 1.51675E-27
6.03956E-01 1.47926E-27
6.08220E-01 1.44274E-27
6.12476E-01 1.40717E-27
6.16723E-01 1.37251E-27
6.20961E-01 1.33874E-27
6.25190E-01 1.30584E-27
6.29410E-01 1.27378E-27
6.33619E-01 1.24253E-27
6.37819E-01 1.21206E-27
6.42008E-01 1.18237E-27
6.46186E-01 1.15342E-27
6.50353E-01 1.12520E-27
6.54508E-01 1.09767E-27
6.58652E-01 1.07083E-27
6.62784E-01 1.04466E-27
6.66903E-01 1.01913E-27
6.71010E-01 9.94227E-28
6.75104E-01 9.69934E-28
6.79184E-01 9.46234E-28
6.83251E-01 9.23111E-28
6.87303E-01 9.00548E-28
6.91342E-01 8.78530E-28
6.95366E-01 8.57042E-28
6.99375E-01 8.36071E-28
7.03368E-01 8.15601E-28
7.07347E-01 7.95620E-28
7.11309E-01 7.76115E-28
7.15256E-01 7.57072E-28
7.19186E-01 7.38479E-28
7.23099E-01 7.20325E-28
7.26995E-01 7.02598E-28
7.30874E-01 6.85287E-28
7.34736E-01 6.68381E-28
7.38579E-01 6.51869E-28
7.42405E-01 6.35741E-28
7.46212E-01 6.19987E-28
7.50000E-01 6.04599E-28
7.53769E-01 5.89565E-28
7.57519E-01 5.74878E-28
7.61249E-01 5.60529E-28
7.64960E-01 5.46508E-28
7.68650E-01 5.32808E-28
7.72320E-01 5.19421E-28
7.75968E-01 5.06339E-28
7.79596E-01 4.93555E-28
7.83203E-01 4.81061E-28
7.86788E-01 4.68849E-28
7.90351E-01 4.56914E-28
7.93893E-01 4.45247E-28
7.97411E-01 4.33844E-28
8.00908E-01 4.22698E-28
8.04381E-01 4.11801E-28
8.07831E-01 4.01149E-28
8.11257E-01 3.90736E-28
8.14660E-01 3.80555E-28
8.18039E-01 3.70602E-28
8.21394E-01 3.60871E-28
8.24724E-01 3.51356E-28
8.28030E-01 3.42054E-28
8.31310E-01 3.32958E-28
8.34565E-01 3.24065E-28
8.37795E-01 3.15369E-28
8.40999E-01 3.06867E-28
8.44177E-01 2.98553E-28
8.47329E-01 2.90423E-28
8.50455E-01 2.82474E-28
8.53553E-01 2.74701E-28
8.56625E-01 2.67101E-28
8.59670E-01 2.59669E-28
8.62687E-01 2.52402E-28
8.65677E-01 2.45296E-28
8.68639E-01 2.38348E-28
8.71572E-01 2.31554E-28
8.74478E-01 2.24912E-28
8.77355E-01 2.18417E-28
8.80203E-01 2.12067E-28
8.83022E-01 2.05859E-28
8.85812E-01 1.99789E-28
8.88573E-01 1.93856E-28
8.91304E-01 1.88055E-28
8.94005E-01 1.82384E-28
8.96677E-01 1.76841E-28
8.99318E-01 1.71423E-28
9.01928E-01 1.66128E-28
9.04508E-01 1.60953E-28
9.07058E-01 1.55895E-28
9.09576E-01 1.50953E-28
9.12063E-01 1.46124E-28
9.14519E-01 1.41406E-28
9.16943E-01 1.36796E-28
9.19335E-01 1.32294E-28
9.21696E-01 1.27896E-28
9.24024E-01 1.23600E-28
9.26320E-01 1.19406E-28
9.28584E-01 1.15311E-28
9.30815E-01 1.11312E-28
9.33013E-01 1.07410E-28
9.35178E-01 1.03600E-28
9.37310E-01 9.98831E-29
9.39409E-01 9.62565E-29
9.41474E-01 9.27187E-29
9.43505E-01 8.92683E-29
9.45503E-01 8.59034E-29
9.47467E-01 8.26232E-29
9.49397E-01 7.94260E-29
9.51293E-01 7.63104E-29
9.53154E-01 7.32753E-29
9.54981E-01 7.03191E-29
9.56773E-01 6.74407E-29
9.58530E-01 6.46389E-29
9.60252E-01 6.19125E-29
9.61940E-01 5.92605E-29
9.63592E-01 5.66816E-29
9.65209E-01 5.41749E-29
9.66790E-01 5.17392E-29
9.68336E-01 4.93736E-29
9.69846E-01 4.70772E-29
9.71321E-01 4.48489E-29
9.72759E-01 4.26879E-29
9.74162E-01 4.05932E-29
9.75528E-01 3.85640E-29
9.76858E-01 3.65996E-29
9.78152E-01 3.46990E-29
9.79410E-01 3.28616E-29
9.80631E-01 3.10866E-29
9.81815E-01 2.93733E-29
9.82963E-01 2.77209E-29
9.84074E-01 2.61289E-29
9.85148E-01 2.45966E-29
9.86185E-01 2.31235E-29
9.87185E-01 2.17087E-29
9.88148E-01 2.03519E-29
9.89074E-01 1.90526E-29
9.89962E-01 1.78101E-29
9.90814E-01 1.66240E-29
9.91627E-01 1.54938E-29
9.92404E-01 1.44191E-29
9.93143E-01 1.33995E-29
9.93844E-01 1.24345E-29
9.94508E-01 1.15239E-29
9.95134E-01 1.06670E-29
9.95722E-01 9.86395E-30
9.96273E-01 9.11400E-30
9.96786E-01 8.41713E-30
9.97261E-01 7.77283E-30
9.97698E-01 7.18108E-30
9.98097E-01 6.64153E-30
9.98459E-01 6.15396E-30
9.98782E-01 5.71832E-30
9.99067E-01 5.33426E-30
9.99315E-01 5.00179E-30
9.99524E-01 4.72060E-30
9.99695E-01 4.49074E-30
9.99829E-01 4.31192E-30
9.99924E-01 4.18440E-30
9.99981E-01 4.10781E-30
1.00000E+00 4.08246E-30
