 #
 # Subroutine ELSEPA. Elastic scattering of electrons and positrons
 #                    by neutral atoms and positive ions
 #
 # Projectile: positron
 # Kinetic energy = 4.50000E+06 eV = 1.65372E+05 a.u.
 #
 # WARNING: High-energy factorization with free-atom DF screening.
 #          Absorption, polarization and exchange corrections are
 #          switched off.
 #          Phase shifts are calculated for the bare nucleus.
 #          Scattering amplitudes are not evaluated.
 #
 # Element:  B,  Z =   5,  atomic weight = 1.08110E+01 g/mol
 #
 # Nuclear model: Fermi distribution
 #                Average radius = 2.36595E-13 cm
 #                Skin thickness = 5.46000E-14 cm
 #
 # Number of electrons =  5
 #
 # Total elastic cross section = 2.16582E-19 cm**2 = 7.73427E-03 a0**2
 # 1st transport cross section = 1.61251E-24 cm**2 = 5.75839E-08 a0**2
 # 2nd transport cross section = 4.64427E-24 cm**2 = 1.65850E-07 a0**2
 #
 #
 # Differential cross section:                       MU=(1-COS(THETA))/2
 #
 #  THETA        MU          DCS          DCS        Sherman      error
 #  (deg)                 (cm**2/sr)   (a0**2/sr)    function
 #----------------------------------------------------------------------
0.00000E+00 7.50960E-14
7.61557E-13 7.50956E-14
1.18994E-12 7.50953E-14
1.71346E-12 7.50950E-14
2.33225E-12 7.50946E-14
3.04617E-12 7.50942E-14
3.85530E-12 7.50937E-14
4.75964E-12 7.50932E-14
5.75917E-12 7.50926E-14
6.85391E-12 7.50920E-14
8.04379E-12 7.50913E-14
9.32893E-12 7.50906E-14
1.07092E-11 7.50898E-14
1.21847E-11 7.50889E-14
1.37554E-11 7.50880E-14
1.54213E-11 7.50870E-14
1.71823E-11 7.50860E-14
1.90386E-11 7.50849E-14
2.09900E-11 7.50838E-14
2.30367E-11 7.50826E-14
2.51785E-11 7.50814E-14
2.74156E-11 7.50801E-14
2.97478E-11 7.50788E-14
3.21752E-11 7.50774E-14
3.46979E-11 7.50759E-14
3.73157E-11 7.50744E-14
4.00286E-11 7.50728E-14
4.28368E-11 7.50712E-14
4.57402E-11 7.50695E-14
4.87388E-11 7.50678E-14
5.18325E-11 7.50660E-14
5.50215E-11 7.50642E-14
5.83057E-11 7.50623E-14
6.16850E-11 7.50604E-14
6.51595E-11 7.50584E-14
6.87293E-11 7.50563E-14
7.23943E-11 7.50542E-14
7.61544E-11 7.50520E-14
1.18991E-10 7.50274E-14
1.71347E-10 7.49973E-14
2.33223E-10 7.49618E-14
3.04617E-10 7.49209E-14
3.85531E-10 7.48746E-14
4.75965E-10 7.48229E-14
5.75917E-10 7.47658E-14
6.85389E-10 7.47033E-14
8.04380E-10 7.46355E-14
9.32891E-10 7.45624E-14
1.07092E-09 7.44839E-14
1.21847E-09 7.44002E-14
1.37554E-09 7.43113E-14
1.54213E-09 7.42171E-14
1.71823E-09 7.41177E-14
1.90386E-09 7.40133E-14
2.09900E-09 7.39034E-14
2.30367E-09 7.37887E-14
2.51785E-09 7.36689E-14
2.74156E-09 7.35439E-14
2.97478E-09 7.34140E-14
3.21752E-09 7.32793E-14
3.46978E-09 7.31393E-14
3.73156E-09 7.29948E-14
4.00286E-09 7.28453E-14
4.28368E-09 7.26909E-14
4.57402E-09 7.25320E-14
4.87388E-09 7.23682E-14
5.18326E-09 7.21997E-14
5.50215E-09 7.20270E-14
5.83057E-09 7.18492E-14
6.16850E-09 7.16670E-14
6.51596E-09 7.14809E-14
6.87293E-09 7.12896E-14
7.23942E-09 7.10943E-14
7.61544E-09 7.08951E-14
1.18991E-08 6.86746E-14
1.71347E-08 6.60914E-14
2.33223E-08 6.32076E-14
3.04617E-08 6.00949E-14
3.85531E-08 5.68165E-14
4.75965E-08 5.34414E-14
5.75917E-08 5.00242E-14
6.85389E-08 4.65203E-14
8.04380E-08 4.31309E-14
9.32891E-08 3.99806E-14
1.07092E-07 3.68041E-14
1.21847E-07 3.38115E-14
1.37554E-07 3.10926E-14
1.54213E-07 2.83877E-14
1.71823E-07 2.59256E-14
1.90386E-07 2.37099E-14
2.09900E-07 2.15432E-14
2.30367E-07 1.96103E-14
2.51785E-07 1.78629E-14
2.74156E-07 1.62081E-14
2.97478E-07 1.47358E-14
3.21752E-07 1.33997E-14
3.46978E-07 1.21626E-14
3.73156E-07 1.10615E-14
4.00286E-07 1.00597E-14
4.28368E-07 9.14553E-15
4.57402E-07 8.33017E-15
4.87388E-07 7.58723E-15
5.18325E-07 6.91493E-15
5.50215E-07 6.31332E-15
5.83057E-07 5.76485E-15
6.16850E-07 5.27028E-15
6.51596E-07 4.82599E-15
6.87293E-07 4.42098E-15
7.23942E-07 4.05575E-15
7.61543E-07 3.72613E-15
1.18991E-06 1.70593E-15
1.71347E-06 8.81470E-16
2.33223E-06 5.06435E-16
3.04617E-06 3.15102E-16
3.85531E-06 2.08795E-16
4.75964E-06 1.45137E-16
5.75916E-06 1.04547E-16
6.85388E-06 7.74607E-17
8.04378E-06 5.87750E-17
9.32888E-06 4.54443E-17
1.07092E-05 3.57067E-17
1.21846E-05 2.84380E-17
1.37553E-05 2.29055E-17
1.54212E-05 1.86466E-17
1.71822E-05 1.53231E-17
1.90385E-05 1.27168E-17
2.09899E-05 1.06218E-17
2.30365E-05 8.93204E-18
2.51783E-05 7.56034E-18
2.74153E-05 6.43970E-18
2.97475E-05 5.51699E-18
3.21749E-05 4.75343E-18
3.46974E-05 4.11679E-18
3.73152E-05 3.58238E-18
4.00281E-05 3.13080E-18
4.28362E-05 2.74696E-18
4.57395E-05 2.41915E-18
4.87380E-05 2.13816E-18
5.18317E-05 1.89625E-18
5.50205E-05 1.68748E-18
5.83045E-05 1.50663E-18
6.16838E-05 1.34937E-18
6.51582E-05 1.21206E-18
6.87277E-05 1.09167E-18
7.23925E-05 9.85711E-19
7.61524E-05 8.92156E-19
9.21439E-05 6.12009E-19
1.09658E-04 4.33637E-19
1.28695E-04 3.15489E-19
1.49255E-04 2.34922E-19
1.71338E-04 1.78479E-19
1.94942E-04 1.37963E-19
2.20070E-04 1.08330E-19
2.46720E-04 8.62168E-20
2.74892E-04 6.94729E-20
3.04586E-04 5.65980E-20
3.35803E-04 4.65682E-20
3.68542E-04 3.86670E-20
4.02802E-04 3.23683E-20
4.38585E-04 2.73033E-20
4.75889E-04 2.31895E-20
5.14715E-04 1.98215E-20
5.55063E-04 1.70434E-20
5.96931E-04 1.47345E-20
6.40321E-04 1.28043E-20
6.85233E-04 1.11794E-20
7.31665E-04 9.80451E-21
7.79618E-04 8.63449E-21
8.29092E-04 7.63374E-21
8.80086E-04 6.77403E-21
9.32601E-04 6.03174E-21
9.86636E-04 5.38854E-21
1.04219E-03 4.82870E-21
1.09927E-03 4.33971E-21
1.15786E-03 3.91109E-21
1.21797E-03 3.53401E-21
1.27961E-03 3.20136E-21
1.34276E-03 2.90687E-21
1.40743E-03 2.64549E-21
1.47362E-03 2.41282E-21
1.54133E-03 2.20515E-21
1.61056E-03 2.01937E-21
1.68131E-03 1.85270E-21
1.75357E-03 1.70290E-21
1.82735E-03 1.56791E-21
1.90265E-03 1.44604E-21
1.97947E-03 1.33577E-21
2.05780E-03 1.23581E-21
2.13765E-03 1.14503E-21
2.21902E-03 1.06241E-21
2.30190E-03 9.87122E-22
2.38630E-03 9.18378E-22
2.47222E-03 8.55508E-22
2.55965E-03 7.97930E-22
2.64859E-03 7.45105E-22
2.73905E-03 6.96583E-22
2.83103E-03 6.51941E-22
2.92452E-03 6.10816E-22
3.01952E-03 5.72884E-22
3.11604E-03 5.37845E-22
3.21407E-03 5.05446E-22
3.31362E-03 4.75445E-22
3.41468E-03 4.47638E-22
3.51725E-03 4.21832E-22
3.62133E-03 3.97857E-22
3.72692E-03 3.75561E-22
3.83403E-03 3.54803E-22
3.94265E-03 3.35459E-22
4.05278E-03 3.17414E-22
4.16442E-03 3.00565E-22
4.27757E-03 2.84818E-22
4.39223E-03 2.70088E-22
4.50840E-03 2.56298E-22
4.62608E-03 2.43375E-22
4.74527E-03 2.31256E-22
4.86597E-03 2.19881E-22
4.98817E-03 2.09196E-22
5.11188E-03 1.99153E-22
5.23711E-03 1.89703E-22
5.36383E-03 1.80808E-22
5.49207E-03 1.72426E-22
5.62181E-03 1.64525E-22
5.75306E-03 1.57070E-22
5.88581E-03 1.50032E-22
6.02007E-03 1.43384E-22
6.15583E-03 1.37100E-22
6.29310E-03 1.31155E-22
6.43187E-03 1.25529E-22
6.57214E-03 1.20201E-22
6.71392E-03 1.15153E-22
6.85720E-03 1.10366E-22
7.00198E-03 1.05825E-22
7.14827E-03 1.01515E-22
7.29605E-03 9.74218E-23
7.44534E-03 9.35328E-23
7.59612E-03 8.98354E-23
7.97965E-03 8.13597E-23
8.37255E-03 7.38592E-23
8.77480E-03 6.72022E-23
9.18641E-03 6.12775E-23
9.60736E-03 5.59906E-23
1.00376E-02 5.12609E-23
1.04773E-02 4.70195E-23
1.09262E-02 4.32071E-23
1.13844E-02 3.97727E-23
1.18520E-02 3.66722E-23
1.23288E-02 3.38675E-23
1.28150E-02 3.13254E-23
1.33104E-02 2.90170E-23
1.38150E-02 2.69169E-23
1.43290E-02 2.50030E-23
1.48521E-02 2.32558E-23
1.53845E-02 2.16584E-23
1.59262E-02 2.01954E-23
1.64770E-02 1.88536E-23
1.70371E-02 1.76212E-23
1.76063E-02 1.64876E-23
1.81848E-02 1.54435E-23
1.87724E-02 1.44805E-23
1.93692E-02 1.35913E-23
1.99751E-02 1.27691E-23
2.05901E-02 1.20079E-23
2.12143E-02 1.13025E-23
2.18476E-02 1.06480E-23
2.24900E-02 1.00400E-23
2.31415E-02 9.47467E-24
2.38021E-02 8.94847E-24
2.44717E-02 8.45817E-24
2.51504E-02 8.00089E-24
2.58382E-02 7.57399E-24
2.65349E-02 7.17510E-24
2.72407E-02 6.80202E-24
2.79555E-02 6.45280E-24
2.86793E-02 6.12563E-24
2.94120E-02 5.81885E-24
3.01537E-02 5.53096E-24
3.09043E-02 5.26059E-24
3.16639E-02 5.00648E-24
3.24324E-02 4.76746E-24
3.32098E-02 4.54248E-24
3.39961E-02 4.33056E-24
3.47912E-02 4.13080E-24
3.55952E-02 3.94237E-24
3.64081E-02 3.76452E-24
3.72297E-02 3.59654E-24
3.80602E-02 3.43779E-24
3.88995E-02 3.28765E-24
3.97476E-02 3.14558E-24
4.06044E-02 3.01107E-24
4.14700E-02 2.88363E-24
4.23443E-02 2.76283E-24
4.32273E-02 2.64825E-24
4.41190E-02 2.53953E-24
4.50194E-02 2.43629E-24
4.59284E-02 2.33822E-24
4.68461E-02 2.24501E-24
4.87074E-02 2.07203E-24
5.06030E-02 1.91530E-24
5.25328E-02 1.77303E-24
5.44967E-02 1.64364E-24
5.64946E-02 1.52578E-24
5.85262E-02 1.41822E-24
6.05914E-02 1.31991E-24
6.26901E-02 1.22991E-24
6.48222E-02 1.14740E-24
6.69873E-02 1.07165E-24
6.91854E-02 1.00199E-24
7.14163E-02 9.37859E-25
7.36799E-02 8.78736E-25
7.59760E-02 8.24159E-25
7.83043E-02 7.73718E-25
8.06647E-02 7.27042E-25
8.30571E-02 6.83801E-25
8.54812E-02 6.43697E-25
8.79369E-02 6.06461E-25
9.04240E-02 5.71852E-25
9.29422E-02 5.39651E-25
9.54915E-02 5.09660E-25
9.80716E-02 4.81702E-25
1.00682E-01 4.55612E-25
1.03323E-01 4.31245E-25
1.05995E-01 4.08465E-25
1.08696E-01 3.87151E-25
1.11427E-01 3.67192E-25
1.14188E-01 3.48486E-25
1.16978E-01 3.30940E-25
1.19797E-01 3.14470E-25
1.22645E-01 2.98996E-25
1.25522E-01 2.84450E-25
1.28428E-01 2.70764E-25
1.31361E-01 2.57878E-25
1.34323E-01 2.45739E-25
1.37313E-01 2.34293E-25
1.40330E-01 2.23496E-25
1.43375E-01 2.13303E-25
1.46447E-01 2.03674E-25
1.49545E-01 1.94573E-25
1.52671E-01 1.85965E-25
1.55823E-01 1.77819E-25
1.59001E-01 1.70106E-25
1.62205E-01 1.62799E-25
1.65435E-01 1.55871E-25
1.68690E-01 1.49301E-25
1.71970E-01 1.43066E-25
1.75276E-01 1.37147E-25
1.78606E-01 1.31523E-25
1.81961E-01 1.26179E-25
1.85340E-01 1.21096E-25
1.88743E-01 1.16262E-25
1.92169E-01 1.11660E-25
1.95619E-01 1.07278E-25
1.99092E-01 1.03104E-25
2.02589E-01 9.91250E-26
2.06107E-01 9.53315E-26
2.09649E-01 9.17128E-26
2.13212E-01 8.82595E-26
2.16797E-01 8.49627E-26
2.20404E-01 8.18139E-26
2.24032E-01 7.88055E-26
2.27680E-01 7.59299E-26
2.31350E-01 7.31802E-26
2.35040E-01 7.05501E-26
2.38751E-01 6.80333E-26
2.42481E-01 6.56240E-26
2.46231E-01 6.33170E-26
2.50000E-01 6.11070E-26
2.53788E-01 5.89892E-26
2.57595E-01 5.69592E-26
2.61421E-01 5.50126E-26
2.65264E-01 5.31454E-26
2.69126E-01 5.13538E-26
2.73005E-01 4.96341E-26
2.76901E-01 4.79831E-26
2.80814E-01 4.63973E-26
2.84744E-01 4.48739E-26
2.88691E-01 4.34099E-26
2.92653E-01 4.20027E-26
2.96632E-01 4.06495E-26
3.00625E-01 3.93480E-26
3.04634E-01 3.80958E-26
3.08658E-01 3.68908E-26
3.12697E-01 3.57308E-26
3.16749E-01 3.46139E-26
3.20816E-01 3.35382E-26
3.24896E-01 3.25019E-26
3.28990E-01 3.15033E-26
3.33097E-01 3.05408E-26
3.37216E-01 2.96129E-26
3.41348E-01 2.87181E-26
3.45492E-01 2.78550E-26
3.49647E-01 2.70223E-26
3.53814E-01 2.62187E-26
3.57992E-01 2.54431E-26
3.62181E-01 2.46943E-26
3.66381E-01 2.39712E-26
3.70590E-01 2.32728E-26
3.74810E-01 2.25980E-26
3.79039E-01 2.19461E-26
3.83277E-01 2.13159E-26
3.87524E-01 2.07068E-26
3.91780E-01 2.01178E-26
3.96044E-01 1.95482E-26
4.00316E-01 1.89973E-26
4.04596E-01 1.84642E-26
4.08882E-01 1.79485E-26
4.13176E-01 1.74493E-26
4.17476E-01 1.69660E-26
4.21783E-01 1.64982E-26
4.26095E-01 1.60451E-26
4.30413E-01 1.56063E-26
4.34737E-01 1.51812E-26
4.39065E-01 1.47693E-26
4.43398E-01 1.43702E-26
4.47736E-01 1.39833E-26
4.52077E-01 1.36083E-26
4.56422E-01 1.32447E-26
4.60770E-01 1.28921E-26
4.65122E-01 1.25502E-26
4.69476E-01 1.22184E-26
4.73832E-01 1.18966E-26
4.78190E-01 1.15843E-26
4.82550E-01 1.12812E-26
4.86912E-01 1.09871E-26
4.91274E-01 1.07015E-26
4.95637E-01 1.04242E-26
5.00000E-01 1.01549E-26
5.04363E-01 9.89342E-27
5.08726E-01 9.63940E-27
5.13088E-01 9.39262E-27
5.17450E-01 9.15284E-27
5.21810E-01 8.91983E-27
5.26168E-01 8.69337E-27
5.30524E-01 8.47324E-27
5.34878E-01 8.25925E-27
5.39230E-01 8.05118E-27
5.43578E-01 7.84885E-27
5.47923E-01 7.65208E-27
5.52264E-01 7.46069E-27
5.56602E-01 7.27450E-27
5.60935E-01 7.09337E-27
5.65263E-01 6.91711E-27
5.69587E-01 6.74560E-27
5.73905E-01 6.57867E-27
5.78217E-01 6.41618E-27
5.82524E-01 6.25801E-27
5.86824E-01 6.10401E-27
5.91118E-01 5.95405E-27
5.95404E-01 5.80803E-27
5.99684E-01 5.66582E-27
6.03956E-01 5.52730E-27
6.08220E-01 5.39236E-27
6.12476E-01 5.26090E-27
6.16723E-01 5.13281E-27
6.20961E-01 5.00800E-27
6.25190E-01 4.88637E-27
6.29410E-01 4.76782E-27
6.33619E-01 4.65227E-27
6.37819E-01 4.53962E-27
6.42008E-01 4.42981E-27
6.46186E-01 4.32273E-27
6.50353E-01 4.21832E-27
6.54508E-01 4.11651E-27
6.58652E-01 4.01721E-27
6.62784E-01 3.92035E-27
6.66903E-01 3.82587E-27
6.71010E-01 3.73371E-27
6.75104E-01 3.64379E-27
6.79184E-01 3.55605E-27
6.83251E-01 3.47044E-27
6.87303E-01 3.38690E-27
6.91342E-01 3.30536E-27
6.95366E-01 3.22578E-27
6.99375E-01 3.14811E-27
7.03368E-01 3.07228E-27
7.07347E-01 2.99825E-27
7.11309E-01 2.92598E-27
7.15256E-01 2.85542E-27
7.19186E-01 2.78651E-27
7.23099E-01 2.71923E-27
7.26995E-01 2.65352E-27
7.30874E-01 2.58934E-27
7.34736E-01 2.52666E-27
7.38579E-01 2.46543E-27
7.42405E-01 2.40562E-27
7.46212E-01 2.34719E-27
7.50000E-01 2.29011E-27
7.53769E-01 2.23434E-27
7.57519E-01 2.17984E-27
7.61249E-01 2.12660E-27
7.64960E-01 2.07457E-27
7.68650E-01 2.02372E-27
7.72320E-01 1.97403E-27
7.75968E-01 1.92547E-27
7.79596E-01 1.87800E-27
7.83203E-01 1.83161E-27
7.86788E-01 1.78626E-27
7.90351E-01 1.74193E-27
7.93893E-01 1.69860E-27
7.97411E-01 1.65624E-27
8.00908E-01 1.61482E-27
8.04381E-01 1.57434E-27
8.07831E-01 1.53475E-27
8.11257E-01 1.49605E-27
8.14660E-01 1.45821E-27
8.18039E-01 1.42121E-27
8.21394E-01 1.38503E-27
8.24724E-01 1.34965E-27
8.28030E-01 1.31506E-27
8.31310E-01 1.28123E-27
8.34565E-01 1.24816E-27
8.37795E-01 1.21581E-27
8.40999E-01 1.18418E-27
8.44177E-01 1.15324E-27
8.47329E-01 1.12299E-27
8.50455E-01 1.09341E-27
8.53553E-01 1.06448E-27
8.56625E-01 1.03619E-27
8.59670E-01 1.00852E-27
8.62687E-01 9.81461E-28
8.65677E-01 9.55002E-28
8.68639E-01 9.29128E-28
8.71572E-01 9.03826E-28
8.74478E-01 8.79084E-28
8.77355E-01 8.54889E-28
8.80203E-01 8.31232E-28
8.83022E-01 8.08100E-28
8.85812E-01 7.85482E-28
8.88573E-01 7.63368E-28
8.91304E-01 7.41747E-28
8.94005E-01 7.20610E-28
8.96677E-01 6.99946E-28
8.99318E-01 6.79747E-28
9.01928E-01 6.60002E-28
9.04508E-01 6.40703E-28
9.07058E-01 6.21841E-28
9.09576E-01 6.03408E-28
9.12063E-01 5.85394E-28
9.14519E-01 5.67792E-28
9.16943E-01 5.50595E-28
9.19335E-01 5.33794E-28
9.21696E-01 5.17382E-28
9.24024E-01 5.01352E-28
9.26320E-01 4.85698E-28
9.28584E-01 4.70411E-28
9.30815E-01 4.55485E-28
9.33013E-01 4.40914E-28
9.35178E-01 4.26692E-28
9.37310E-01 4.12811E-28
9.39409E-01 3.99268E-28
9.41474E-01 3.86055E-28
9.43505E-01 3.73168E-28
9.45503E-01 3.60599E-28
9.47467E-01 3.48346E-28
9.49397E-01 3.36401E-28
9.51293E-01 3.24760E-28
9.53154E-01 3.13419E-28
9.54981E-01 3.02372E-28
9.56773E-01 2.91615E-28
9.58530E-01 2.81144E-28
9.60252E-01 2.70953E-28
9.61940E-01 2.61040E-28
9.63592E-01 2.51399E-28
9.65209E-01 2.42028E-28
9.66790E-01 2.32921E-28
9.68336E-01 2.24076E-28
9.69846E-01 2.15489E-28
9.71321E-01 2.07156E-28
9.72759E-01 1.99075E-28
9.74162E-01 1.91240E-28
9.75528E-01 1.83650E-28
9.76858E-01 1.76303E-28
9.78152E-01 1.69193E-28
9.79410E-01 1.62320E-28
9.80631E-01 1.55679E-28
9.81815E-01 1.49269E-28
9.82963E-01 1.43086E-28
9.84074E-01 1.37130E-28
9.85148E-01 1.31396E-28
9.86185E-01 1.25883E-28
9.87185E-01 1.20589E-28
9.88148E-01 1.15511E-28
9.89074E-01 1.10648E-28
9.89962E-01 1.05998E-28
9.90814E-01 1.01558E-28
9.91627E-01 9.73279E-29
9.92404E-01 9.33053E-29
9.93143E-01 8.94885E-29
9.93844E-01 8.58761E-29
9.94508E-01 8.24671E-29
9.95134E-01 7.92592E-29
9.95722E-01 7.62528E-29
9.96273E-01 7.34450E-29
9.96786E-01 7.08359E-29
9.97261E-01 6.84235E-29
9.97698E-01 6.62079E-29
9.98097E-01 6.41878E-29
9.98459E-01 6.23621E-29
9.98782E-01 6.07311E-29
9.99067E-01 5.92929E-29
9.99315E-01 5.80482E-29
9.99524E-01 5.69951E-29
9.99695E-01 5.61345E-29
9.99829E-01 5.54646E-29
9.99924E-01 5.49873E-29
9.99981E-01 5.47004E-29
1.00000E+00 5.46059E-29
