 #
 # Subroutine ELSEPA. Elastic scattering of electrons and positrons
 #                    by neutral atoms and positive ions
 #
 # Projectile: positron
 # Kinetic energy = 3.00000E+07 eV = 1.10248E+06 a.u.
 #
 # WARNING: High-energy factorization with free-atom DF screening.
 #          Absorption, polarization and exchange corrections are
 #          switched off.
 #          Phase shifts are calculated for the bare nucleus.
 #          Scattering amplitudes are not evaluated.
 #
 # Element:  B,  Z =   5,  atomic weight = 1.08110E+01 g/mol
 #
 # Nuclear model: Fermi distribution
 #                Average radius = 2.36595E-13 cm
 #                Skin thickness = 5.46000E-14 cm
 #
 # Number of electrons =  5
 #
 # Total elastic cross section = 2.14144E-19 cm**2 = 7.64723E-03 a0**2
 # 1st transport cross section = 5.49055E-26 cm**2 = 1.96071E-09 a0**2
 # 2nd transport cross section = 1.60003E-25 cm**2 = 5.71382E-09 a0**2
 #
 #
 # Differential cross section:                       MU=(1-COS(THETA))/2
 #
 #  THETA        MU          DCS          DCS        Sherman      error
 #  (deg)                 (cm**2/sr)   (a0**2/sr)    function
 #----------------------------------------------------------------------
0.00000E+00 2.78408E-12
7.61557E-13 2.78346E-12
1.18994E-12 2.78312E-12
1.71346E-12 2.78270E-12
2.33225E-12 2.78221E-12
3.04617E-12 2.78164E-12
3.85530E-12 2.78099E-12
4.75964E-12 2.78027E-12
5.75917E-12 2.77948E-12
6.85391E-12 2.77861E-12
8.04379E-12 2.77766E-12
9.32893E-12 2.77664E-12
1.07092E-11 2.77554E-12
1.21847E-11 2.77437E-12
1.37554E-11 2.77313E-12
1.54213E-11 2.77180E-12
1.71823E-11 2.77041E-12
1.90386E-11 2.76894E-12
2.09900E-11 2.76739E-12
2.30367E-11 2.76578E-12
2.51785E-11 2.76409E-12
2.74156E-11 2.76232E-12
2.97478E-11 2.76048E-12
3.21752E-11 2.75857E-12
3.46979E-11 2.75659E-12
3.73157E-11 2.75453E-12
4.00286E-11 2.75240E-12
4.28368E-11 2.75020E-12
4.57402E-11 2.74792E-12
4.87388E-11 2.74558E-12
5.18325E-11 2.74316E-12
5.50215E-11 2.74067E-12
5.83057E-11 2.73811E-12
6.16850E-11 2.73548E-12
6.51595E-11 2.73279E-12
6.87293E-11 2.73001E-12
7.23943E-11 2.72717E-12
7.61544E-11 2.72426E-12
1.18991E-10 2.69142E-12
1.71347E-10 2.65202E-12
2.33223E-10 2.60650E-12
3.04617E-10 2.55529E-12
3.85531E-10 2.49893E-12
4.75965E-10 2.43797E-12
5.75917E-10 2.37297E-12
6.85389E-10 2.30452E-12
8.04380E-10 2.23320E-12
9.32891E-10 2.15957E-12
1.07092E-09 2.08415E-12
1.21847E-09 2.00752E-12
1.37554E-09 1.93019E-12
1.54213E-09 1.85262E-12
1.71823E-09 1.77365E-12
1.90386E-09 1.69381E-12
2.09900E-09 1.61715E-12
2.30367E-09 1.54378E-12
2.51785E-09 1.47379E-12
2.74156E-09 1.40132E-12
2.97478E-09 1.33016E-12
3.21752E-09 1.26294E-12
3.46978E-09 1.19955E-12
3.73156E-09 1.13962E-12
4.00286E-09 1.07710E-12
4.28368E-09 1.01852E-12
4.57402E-09 9.63657E-13
4.87388E-09 9.12316E-13
5.18326E-09 8.62612E-13
5.50215E-09 8.13478E-13
5.83057E-09 7.67657E-13
6.16850E-09 7.24929E-13
6.51596E-09 6.85085E-13
6.87293E-09 6.45912E-13
7.23942E-09 6.08649E-13
7.61544E-09 5.73959E-13
1.18991E-08 3.20552E-13
1.71347E-08 1.83381E-13
2.33223E-08 1.09254E-13
3.04617E-08 6.82056E-14
3.85531E-08 4.45956E-14
4.75965E-08 3.04332E-14
5.75917E-08 2.15968E-14
6.85389E-08 1.58248E-14
8.04380E-08 1.19145E-14
9.32891E-08 9.18668E-15
1.07092E-07 7.22984E-15
1.21847E-07 5.78628E-15
1.37554E-07 4.69596E-15
1.54213E-07 3.85779E-15
1.71823E-07 3.20219E-15
1.90386E-07 2.68400E-15
2.09900E-07 2.26824E-15
2.30367E-07 1.93073E-15
2.51785E-07 1.65374E-15
2.74156E-07 1.42571E-15
2.97478E-07 1.23465E-15
3.21752E-07 1.07546E-15
3.46978E-07 9.39894E-16
3.73156E-07 8.25806E-16
4.00286E-07 7.27565E-16
4.28368E-07 6.43940E-16
4.57402E-07 5.71403E-16
4.87388E-07 5.08945E-16
5.18325E-07 4.54549E-16
5.50215E-07 4.07208E-16
5.83057E-07 3.65747E-16
6.16850E-07 3.29352E-16
6.51596E-07 2.97348E-16
6.87293E-07 2.69035E-16
7.23942E-07 2.44030E-16
7.61543E-07 2.21749E-16
1.18991E-06 9.43518E-17
1.71347E-06 4.63382E-17
2.33223E-06 2.52479E-17
3.04617E-06 1.48764E-17
3.85531E-06 9.31506E-18
4.75964E-06 6.12273E-18
5.75916E-06 4.18672E-18
6.85388E-06 2.95831E-18
8.04378E-06 2.14888E-18
9.32888E-06 1.59817E-18
1.07092E-05 1.21303E-18
1.21846E-05 9.37197E-19
1.37553E-05 7.35451E-19
1.54212E-05 5.85160E-19
1.71822E-05 4.71369E-19
1.90385E-05 3.84462E-19
2.09899E-05 3.16241E-19
2.30365E-05 2.62391E-19
2.51783E-05 2.19497E-19
2.74153E-05 1.85042E-19
2.97475E-05 1.57135E-19
3.21749E-05 1.34340E-19
3.46974E-05 1.15559E-19
3.73152E-05 9.99547E-20
4.00281E-05 8.68892E-20
4.28362E-05 7.58755E-20
4.57395E-05 6.65391E-20
4.87380E-05 5.85874E-20
5.18317E-05 5.17874E-20
5.50205E-05 4.59494E-20
5.83045E-05 4.09170E-20
6.16838E-05 3.65600E-20
6.51582E-05 3.27705E-20
6.87277E-05 2.94596E-20
7.23925E-05 2.65547E-20
7.61524E-05 2.39963E-20
9.21439E-05 1.63813E-20
1.09658E-04 1.15686E-20
1.28695E-04 8.39714E-21
1.49255E-04 6.24236E-21
1.71338E-04 4.73690E-21
1.94942E-04 3.65825E-21
2.20070E-04 2.87059E-21
2.46720E-04 2.28343E-21
2.74892E-04 1.83924E-21
3.04586E-04 1.49791E-21
3.35803E-04 1.23215E-21
3.68542E-04 1.02289E-21
4.02802E-04 8.56115E-22
4.38585E-04 7.22056E-22
4.75889E-04 6.13192E-22
5.14715E-04 5.24098E-22
5.55063E-04 4.50621E-22
5.96931E-04 3.89556E-22
6.40321E-04 3.38512E-22
6.85233E-04 2.95542E-22
7.31665E-04 2.59186E-22
7.79618E-04 2.28249E-22
8.29092E-04 2.01788E-22
8.80086E-04 1.79057E-22
9.32601E-04 1.59431E-22
9.86636E-04 1.42426E-22
1.04219E-03 1.27625E-22
1.09927E-03 1.14698E-22
1.15786E-03 1.03367E-22
1.21797E-03 9.33988E-23
1.27961E-03 8.46054E-23
1.34276E-03 7.68205E-23
1.40743E-03 6.99114E-23
1.47362E-03 6.37613E-23
1.54133E-03 5.82719E-23
1.61056E-03 5.33614E-23
1.68131E-03 4.89561E-23
1.75357E-03 4.49967E-23
1.82735E-03 4.14289E-23
1.90265E-03 3.82076E-23
1.97947E-03 3.52935E-23
2.05780E-03 3.26514E-23
2.13765E-03 3.02522E-23
2.21902E-03 2.80689E-23
2.30190E-03 2.60791E-23
2.38630E-03 2.42624E-23
2.47222E-03 2.26009E-23
2.55965E-03 2.10793E-23
2.64859E-03 1.96833E-23
2.73905E-03 1.84011E-23
2.83103E-03 1.72214E-23
2.92452E-03 1.61347E-23
3.01952E-03 1.51323E-23
3.11604E-03 1.42064E-23
3.21407E-03 1.33503E-23
3.31362E-03 1.25576E-23
3.41468E-03 1.18229E-23
3.51725E-03 1.11410E-23
3.62133E-03 1.05075E-23
3.72692E-03 9.91844E-24
3.83403E-03 9.36996E-24
3.94265E-03 8.85889E-24
4.05278E-03 8.38212E-24
4.16442E-03 7.93696E-24
4.27757E-03 7.52095E-24
4.39223E-03 7.13178E-24
4.50840E-03 6.76746E-24
4.62608E-03 6.42606E-24
4.74527E-03 6.10590E-24
4.86597E-03 5.80541E-24
4.98817E-03 5.52314E-24
5.11188E-03 5.25782E-24
5.23711E-03 5.00819E-24
5.36383E-03 4.77320E-24
5.49207E-03 4.55181E-24
5.62181E-03 4.34308E-24
5.75306E-03 4.14618E-24
5.88581E-03 3.96028E-24
6.02007E-03 3.78468E-24
6.15583E-03 3.61867E-24
6.29310E-03 3.46167E-24
6.43187E-03 3.31307E-24
6.57214E-03 3.17234E-24
6.71392E-03 3.03900E-24
6.85720E-03 2.91258E-24
7.00198E-03 2.79265E-24
7.14827E-03 2.67882E-24
7.29605E-03 2.57072E-24
7.44534E-03 2.46802E-24
7.59612E-03 2.37037E-24
7.97965E-03 2.14655E-24
8.37255E-03 1.94848E-24
8.77480E-03 1.77270E-24
9.18641E-03 1.61626E-24
9.60736E-03 1.47668E-24
1.00376E-02 1.35180E-24
1.04773E-02 1.23983E-24
1.09262E-02 1.13919E-24
1.13844E-02 1.04853E-24
1.18520E-02 9.66687E-25
1.23288E-02 8.92659E-25
1.28150E-02 8.25565E-25
1.33104E-02 7.64641E-25
1.38150E-02 7.09219E-25
1.43290E-02 6.58714E-25
1.48521E-02 6.12613E-25
1.53845E-02 5.70463E-25
1.59262E-02 5.31865E-25
1.64770E-02 4.96467E-25
1.70371E-02 4.63955E-25
1.76063E-02 4.34052E-25
1.81848E-02 4.06512E-25
1.87724E-02 3.81114E-25
1.93692E-02 3.57661E-25
1.99751E-02 3.35978E-25
2.05901E-02 3.15907E-25
2.12143E-02 2.97307E-25
2.18476E-02 2.80050E-25
2.24900E-02 2.64022E-25
2.31415E-02 2.49119E-25
2.38021E-02 2.35248E-25
2.44717E-02 2.22325E-25
2.51504E-02 2.10273E-25
2.58382E-02 1.99023E-25
2.65349E-02 1.88511E-25
2.72407E-02 1.78681E-25
2.79555E-02 1.69480E-25
2.86793E-02 1.60861E-25
2.94120E-02 1.52779E-25
3.01537E-02 1.45196E-25
3.09043E-02 1.38075E-25
3.16639E-02 1.31383E-25
3.24324E-02 1.25089E-25
3.32098E-02 1.19165E-25
3.39961E-02 1.13585E-25
3.47912E-02 1.08327E-25
3.55952E-02 1.03367E-25
3.64081E-02 9.86853E-26
3.72297E-02 9.42643E-26
3.80602E-02 9.00865E-26
3.88995E-02 8.61359E-26
3.97476E-02 8.23979E-26
4.06044E-02 7.88591E-26
4.14700E-02 7.55068E-26
4.23443E-02 7.23293E-26
4.32273E-02 6.93160E-26
4.41190E-02 6.64568E-26
4.50194E-02 6.37422E-26
4.59284E-02 6.11638E-26
4.68461E-02 5.87133E-26
4.87074E-02 5.41666E-26
5.06030E-02 5.00480E-26
5.25328E-02 4.63101E-26
5.44967E-02 4.29116E-26
5.64946E-02 3.98163E-26
5.85262E-02 3.69925E-26
6.05914E-02 3.44121E-26
6.26901E-02 3.20505E-26
6.48222E-02 2.98859E-26
6.69873E-02 2.78990E-26
6.91854E-02 2.60726E-26
7.14163E-02 2.43915E-26
7.36799E-02 2.28421E-26
7.59760E-02 2.14123E-26
7.83043E-02 2.00911E-26
8.06647E-02 1.88690E-26
8.30571E-02 1.77371E-26
8.54812E-02 1.66876E-26
8.79369E-02 1.57135E-26
9.04240E-02 1.48084E-26
9.29422E-02 1.39665E-26
9.54915E-02 1.31827E-26
9.80716E-02 1.24522E-26
1.00682E-01 1.17708E-26
1.03323E-01 1.11345E-26
1.05995E-01 1.05399E-26
1.08696E-01 9.98381E-27
1.11427E-01 9.46320E-27
1.14188E-01 8.97545E-27
1.16978E-01 8.51811E-27
1.19797E-01 8.08895E-27
1.22645E-01 7.68593E-27
1.25522E-01 7.30718E-27
1.28428E-01 6.95097E-27
1.31361E-01 6.61574E-27
1.34323E-01 6.30002E-27
1.37313E-01 6.00247E-27
1.40330E-01 5.72188E-27
1.43375E-01 5.45710E-27
1.46447E-01 5.20708E-27
1.49545E-01 4.97086E-27
1.52671E-01 4.74754E-27
1.55823E-01 4.53630E-27
1.59001E-01 4.33635E-27
1.62205E-01 4.14701E-27
1.65435E-01 3.96759E-27
1.68690E-01 3.79750E-27
1.71970E-01 3.63616E-27
1.75276E-01 3.48305E-27
1.78606E-01 3.33766E-27
1.81961E-01 3.19955E-27
1.85340E-01 3.06828E-27
1.88743E-01 2.94345E-27
1.92169E-01 2.82471E-27
1.95619E-01 2.71169E-27
1.99092E-01 2.60407E-27
2.02589E-01 2.50155E-27
2.06107E-01 2.40385E-27
2.09649E-01 2.31070E-27
2.13212E-01 2.22185E-27
2.16797E-01 2.13707E-27
2.20404E-01 2.05614E-27
2.24032E-01 1.97886E-27
2.27680E-01 1.90503E-27
2.31350E-01 1.83447E-27
2.35040E-01 1.76701E-27
2.38751E-01 1.70249E-27
2.42481E-01 1.64077E-27
2.46231E-01 1.58170E-27
2.50000E-01 1.52514E-27
2.53788E-01 1.47098E-27
2.57595E-01 1.41909E-27
2.61421E-01 1.36936E-27
2.65264E-01 1.32168E-27
2.69126E-01 1.27597E-27
2.73005E-01 1.23211E-27
2.76901E-01 1.19003E-27
2.80814E-01 1.14964E-27
2.84744E-01 1.11086E-27
2.88691E-01 1.07361E-27
2.92653E-01 1.03783E-27
2.96632E-01 1.00345E-27
3.00625E-01 9.70402E-28
3.04634E-01 9.38626E-28
3.08658E-01 9.08066E-28
3.12697E-01 8.78667E-28
3.16749E-01 8.50379E-28
3.20816E-01 8.23152E-28
3.24896E-01 7.96939E-28
3.28990E-01 7.71698E-28
3.33097E-01 7.47385E-28
3.37216E-01 7.23961E-28
3.41348E-01 7.01388E-28
3.45492E-01 6.79631E-28
3.49647E-01 6.58654E-28
3.53814E-01 6.38425E-28
3.57992E-01 6.18914E-28
3.62181E-01 6.00090E-28
3.66381E-01 5.81926E-28
3.70590E-01 5.64394E-28
3.74810E-01 5.47469E-28
3.79039E-01 5.31127E-28
3.83277E-01 5.15344E-28
3.87524E-01 5.00099E-28
3.91780E-01 4.85369E-28
3.96044E-01 4.71134E-28
4.00316E-01 4.57376E-28
4.04596E-01 4.44076E-28
4.08882E-01 4.31216E-28
4.13176E-01 4.18779E-28
4.17476E-01 4.06749E-28
4.21783E-01 3.95111E-28
4.26095E-01 3.83849E-28
4.30413E-01 3.72951E-28
4.34737E-01 3.62402E-28
4.39065E-01 3.52189E-28
4.43398E-01 3.42300E-28
4.47736E-01 3.32723E-28
4.52077E-01 3.23447E-28
4.56422E-01 3.14461E-28
4.60770E-01 3.05754E-28
4.65122E-01 2.97317E-28
4.69476E-01 2.89139E-28
4.73832E-01 2.81211E-28
4.78190E-01 2.73526E-28
4.82550E-01 2.66073E-28
4.86912E-01 2.58846E-28
4.91274E-01 2.51835E-28
4.95637E-01 2.45035E-28
5.00000E-01 2.38437E-28
5.04363E-01 2.32034E-28
5.08726E-01 2.25821E-28
5.13088E-01 2.19790E-28
5.17450E-01 2.13935E-28
5.21810E-01 2.08251E-28
5.26168E-01 2.02731E-28
5.30524E-01 1.97371E-28
5.34878E-01 1.92165E-28
5.39230E-01 1.87107E-28
5.43578E-01 1.82194E-28
5.47923E-01 1.77420E-28
5.52264E-01 1.72781E-28
5.56602E-01 1.68273E-28
5.60935E-01 1.63890E-28
5.65263E-01 1.59631E-28
5.69587E-01 1.55489E-28
5.73905E-01 1.51462E-28
5.78217E-01 1.47546E-28
5.82524E-01 1.43738E-28
5.86824E-01 1.40033E-28
5.91118E-01 1.36430E-28
5.95404E-01 1.32925E-28
5.99684E-01 1.29514E-28
6.03956E-01 1.26195E-28
6.08220E-01 1.22965E-28
6.12476E-01 1.19822E-28
6.16723E-01 1.16762E-28
6.20961E-01 1.13784E-28
6.25190E-01 1.10884E-28
6.29410E-01 1.08061E-28
6.33619E-01 1.05311E-28
6.37819E-01 1.02634E-28
6.42008E-01 1.00027E-28
6.46186E-01 9.74871E-29
6.50353E-01 9.50132E-29
6.54508E-01 9.26032E-29
6.58652E-01 9.02552E-29
6.62784E-01 8.79673E-29
6.66903E-01 8.57381E-29
6.71010E-01 8.35656E-29
6.75104E-01 8.14482E-29
6.79184E-01 7.93845E-29
6.83251E-01 7.73729E-29
6.87303E-01 7.54119E-29
6.91342E-01 7.35001E-29
6.95366E-01 7.16361E-29
6.99375E-01 6.98186E-29
7.03368E-01 6.80463E-29
7.07347E-01 6.63180E-29
7.11309E-01 6.46324E-29
7.15256E-01 6.29883E-29
7.19186E-01 6.13848E-29
7.23099E-01 5.98205E-29
7.26995E-01 5.82945E-29
7.30874E-01 5.68057E-29
7.34736E-01 5.53532E-29
7.38579E-01 5.39359E-29
7.42405E-01 5.25530E-29
7.46212E-01 5.12034E-29
7.50000E-01 4.98864E-29
7.53769E-01 4.86011E-29
7.57519E-01 4.73466E-29
7.61249E-01 4.61221E-29
7.64960E-01 4.49268E-29
7.68650E-01 4.37601E-29
7.72320E-01 4.26211E-29
7.75968E-01 4.15092E-29
7.79596E-01 4.04235E-29
7.83203E-01 3.93636E-29
7.86788E-01 3.83287E-29
7.90351E-01 3.73181E-29
7.93893E-01 3.63314E-29
7.97411E-01 3.53678E-29
8.00908E-01 3.44268E-29
8.04381E-01 3.35078E-29
8.07831E-01 3.26103E-29
8.11257E-01 3.17338E-29
8.14660E-01 3.08777E-29
8.18039E-01 3.00416E-29
8.21394E-01 2.92248E-29
8.24724E-01 2.84271E-29
8.28030E-01 2.76479E-29
8.31310E-01 2.68867E-29
8.34565E-01 2.61432E-29
8.37795E-01 2.54169E-29
8.40999E-01 2.47075E-29
8.44177E-01 2.40144E-29
8.47329E-01 2.33373E-29
8.50455E-01 2.26759E-29
8.53553E-01 2.20298E-29
8.56625E-01 2.13986E-29
8.59670E-01 2.07820E-29
8.62687E-01 2.01796E-29
8.65677E-01 1.95912E-29
8.68639E-01 1.90163E-29
8.71572E-01 1.84548E-29
8.74478E-01 1.79062E-29
8.77355E-01 1.73704E-29
8.80203E-01 1.68469E-29
8.83022E-01 1.63356E-29
8.85812E-01 1.58362E-29
8.88573E-01 1.53484E-29
8.91304E-01 1.48720E-29
8.94005E-01 1.44066E-29
8.96677E-01 1.39522E-29
8.99318E-01 1.35084E-29
9.01928E-01 1.30750E-29
9.04508E-01 1.26518E-29
9.07058E-01 1.22386E-29
9.09576E-01 1.18351E-29
9.12063E-01 1.14412E-29
9.14519E-01 1.10567E-29
9.16943E-01 1.06814E-29
9.19335E-01 1.03151E-29
9.21696E-01 9.95755E-30
9.24024E-01 9.60866E-30
9.26320E-01 9.26825E-30
9.28584E-01 8.93613E-30
9.30815E-01 8.61214E-30
9.33013E-01 8.29614E-30
9.35178E-01 7.98795E-30
9.37310E-01 7.68744E-30
9.39409E-01 7.39447E-30
9.41474E-01 7.10889E-30
9.43505E-01 6.83058E-30
9.45503E-01 6.55936E-30
9.47467E-01 6.29515E-30
9.49397E-01 6.03782E-30
9.51293E-01 5.78723E-30
9.53154E-01 5.54328E-30
9.54981E-01 5.30583E-30
9.56773E-01 5.07479E-30
9.58530E-01 4.85004E-30
9.60252E-01 4.63149E-30
9.61940E-01 4.41904E-30
9.63592E-01 4.21257E-30
9.65209E-01 4.01201E-30
9.66790E-01 3.81724E-30
9.68336E-01 3.62819E-30
9.69846E-01 3.44478E-30
9.71321E-01 3.26691E-30
9.72759E-01 3.09451E-30
9.74162E-01 2.92748E-30
9.75528E-01 2.76577E-30
9.76858E-01 2.60931E-30
9.78152E-01 2.45800E-30
9.79410E-01 2.31179E-30
9.80631E-01 2.17062E-30
9.81815E-01 2.03442E-30
9.82963E-01 1.90313E-30
9.84074E-01 1.77668E-30
9.85148E-01 1.65503E-30
9.86185E-01 1.53813E-30
9.87185E-01 1.42590E-30
9.88148E-01 1.31832E-30
9.89074E-01 1.21533E-30
9.89962E-01 1.11688E-30
9.90814E-01 1.02293E-30
9.91627E-01 9.33438E-31
9.92404E-01 8.48372E-31
9.93143E-01 7.67685E-31
9.93844E-01 6.91345E-31
9.94508E-01 6.19325E-31
9.95134E-01 5.51574E-31
9.95722E-01 4.88092E-31
9.96273E-01 4.28823E-31
9.96786E-01 3.73762E-31
9.97261E-01 3.22865E-31
9.97698E-01 2.76126E-31
9.98097E-01 2.33518E-31
9.98459E-01 1.95022E-31
9.98782E-01 1.60626E-31
9.99067E-01 1.30311E-31
9.99315E-01 1.04067E-31
9.99524E-01 8.18787E-32
9.99695E-01 6.37381E-32
9.99829E-01 4.96322E-32
9.99924E-01 3.95655E-32
9.99981E-01 3.35252E-32
1.00000E+00 3.15169E-32
