 #
 # Subroutine ELSEPA. Elastic scattering of electrons and positrons
 #                    by neutral atoms and positive ions
 #
 # Projectile: positron
 # Kinetic energy = 1.25000E+08 eV = 4.59367E+06 a.u.
 #
 # WARNING: High-energy factorization with free-atom DF screening.
 #          Absorption, polarization and exchange corrections are
 #          switched off.
 #          Phase shifts are calculated for the bare nucleus.
 #          Scattering amplitudes are not evaluated.
 #
 # Element:  B,  Z =   5,  atomic weight = 1.08110E+01 g/mol
 #
 # Nuclear model: Fermi distribution
 #                Average radius = 2.36595E-13 cm
 #                Skin thickness = 5.46000E-14 cm
 #
 # Number of electrons =  5
 #
 # Total elastic cross section = 2.14089E-19 cm**2 = 7.64527E-03 a0**2
 # 1st transport cross section = 3.61278E-27 cm**2 = 1.29015E-10 a0**2
 # 2nd transport cross section = 1.07218E-26 cm**2 = 3.82882E-10 a0**2
 #
 #
 # Differential cross section:                       MU=(1-COS(THETA))/2
 #
 #  THETA        MU          DCS          DCS        Sherman      error
 #  (deg)                 (cm**2/sr)   (a0**2/sr)    function
 #----------------------------------------------------------------------
0.00000E+00 4.71120E-11
7.61557E-13 4.69383E-11
1.18994E-12 4.68411E-11
1.71346E-12 4.67227E-11
2.33225E-12 4.65834E-11
3.04617E-12 4.64233E-11
3.85530E-12 4.62429E-11
4.75964E-12 4.60423E-11
5.75917E-12 4.58220E-11
6.85391E-12 4.55824E-11
8.04379E-12 4.53240E-11
9.32893E-12 4.50472E-11
1.07092E-11 4.47526E-11
1.21847E-11 4.44407E-11
1.37554E-11 4.41120E-11
1.54213E-11 4.37668E-11
1.71823E-11 4.34059E-11
1.90386E-11 4.30300E-11
2.09900E-11 4.26398E-11
2.30367E-11 4.22358E-11
2.51785E-11 4.18188E-11
2.74156E-11 4.13894E-11
2.97478E-11 4.09483E-11
3.21752E-11 4.04960E-11
3.46979E-11 4.00329E-11
3.73157E-11 3.95602E-11
4.00286E-11 3.90785E-11
4.28368E-11 3.85885E-11
4.57402E-11 3.80909E-11
4.87388E-11 3.75864E-11
5.18325E-11 3.70756E-11
5.50215E-11 3.65593E-11
5.83057E-11 3.60373E-11
6.16850E-11 3.55109E-11
6.51595E-11 3.49808E-11
6.87293E-11 3.44477E-11
7.23943E-11 3.39122E-11
7.61544E-11 3.33747E-11
1.18991E-10 2.79154E-11
1.71347E-10 2.28810E-11
2.33223E-10 1.84337E-11
3.04617E-10 1.46719E-11
3.85531E-10 1.15751E-11
4.75965E-10 9.09154E-12
5.75917E-10 7.14159E-12
6.85389E-10 5.62362E-12
8.04380E-10 4.44709E-12
9.32891E-10 3.53636E-12
1.07092E-09 2.83064E-12
1.21847E-09 2.28222E-12
1.37554E-09 1.85424E-12
1.54213E-09 1.51851E-12
1.71823E-09 1.25370E-12
1.90386E-09 1.04338E-12
2.09900E-09 8.75119E-13
2.30367E-09 7.39253E-13
2.51785E-09 6.28922E-13
2.74156E-09 5.39101E-13
2.97478E-09 4.65223E-13
3.21752E-09 4.03995E-13
3.46978E-09 3.52849E-13
3.73156E-09 3.09802E-13
4.00286E-09 2.73343E-13
4.28368E-09 2.42291E-13
4.57402E-09 2.15707E-13
4.87388E-09 1.92839E-13
5.18326E-09 1.73076E-13
5.50215E-09 1.55919E-13
5.83057E-09 1.40954E-13
6.16850E-09 1.27834E-13
6.51596E-09 1.16277E-13
6.87293E-09 1.06052E-13
7.23942E-09 9.69689E-14
7.61544E-09 8.88709E-14
1.18991E-08 4.12490E-14
1.71347E-08 2.18520E-14
2.33223E-08 1.26244E-14
3.04617E-08 7.76681E-15
3.85531E-08 5.01811E-15
4.75965E-08 3.37372E-15
5.75917E-08 2.34494E-15
6.85389E-08 1.67703E-15
8.04380E-08 1.22917E-15
9.32891E-08 9.20381E-16
1.07092E-07 7.02179E-16
1.21847E-07 5.44644E-16
1.37554E-07 4.28727E-16
1.54213E-07 3.41958E-16
1.71823E-07 2.75999E-16
1.90386E-07 2.25156E-16
2.09900E-07 1.85471E-16
2.30367E-07 1.54137E-16
2.51785E-07 1.29137E-16
2.74156E-07 1.08998E-16
2.97478E-07 9.26303E-17
3.21752E-07 7.92186E-17
3.46978E-07 6.81458E-17
3.73156E-07 5.89399E-17
4.00286E-07 5.12359E-17
4.28368E-07 4.47493E-17
4.57402E-07 3.92568E-17
4.87388E-07 3.45812E-17
5.18325E-07 3.05809E-17
5.50215E-07 2.71424E-17
5.83057E-07 2.41737E-17
6.16850E-07 2.15998E-17
6.51596E-07 1.93593E-17
6.87293E-07 1.74019E-17
7.23942E-07 1.56857E-17
7.61543E-07 1.41758E-17
1.18991E-06 5.80751E-18
1.71347E-06 2.80094E-18
2.33223E-06 1.51194E-18
3.04617E-06 8.86291E-19
3.85531E-06 5.53311E-19
4.75964E-06 3.63026E-19
5.75916E-06 2.47950E-19
6.85388E-06 1.75067E-19
8.04378E-06 1.27101E-19
9.32888E-06 9.44938E-20
1.07092E-05 7.17039E-20
1.21846E-05 5.53885E-20
1.37553E-05 4.34606E-20
1.54212E-05 3.45774E-20
1.71822E-05 2.78522E-20
1.90385E-05 2.27165E-20
2.09899E-05 1.86849E-20
2.30365E-05 1.55026E-20
2.51783E-05 1.29679E-20
2.74153E-05 1.09320E-20
2.97475E-05 9.28307E-21
3.21749E-05 7.93627E-21
3.46974E-05 6.82669E-21
3.73152E-05 5.90481E-21
4.00281E-05 5.13292E-21
4.28362E-05 4.48225E-21
4.57395E-05 3.93066E-21
4.87380E-05 3.46089E-21
5.18317E-05 3.05916E-21
5.50205E-05 2.71427E-21
5.83045E-05 2.41699E-21
6.16838E-05 2.15961E-21
6.51582E-05 1.93575E-21
6.87277E-05 1.74017E-21
7.23925E-05 1.56857E-21
7.61524E-05 1.41707E-21
9.21439E-05 9.67299E-22
1.09658E-04 6.83069E-22
1.28695E-04 4.95771E-22
1.49255E-04 3.68522E-22
1.71338E-04 2.79623E-22
1.94942E-04 2.15930E-22
2.20070E-04 1.69423E-22
2.46720E-04 1.34755E-22
2.74892E-04 1.08530E-22
3.04586E-04 8.83798E-23
3.35803E-04 7.26911E-23
3.68542E-04 6.03387E-23
4.02802E-04 5.04947E-23
4.38585E-04 4.25823E-23
4.75889E-04 3.61574E-23
5.14715E-04 3.08996E-23
5.55063E-04 2.65637E-23
5.96931E-04 2.29605E-23
6.40321E-04 1.99489E-23
6.85233E-04 1.74138E-23
7.31665E-04 1.52692E-23
7.79618E-04 1.34443E-23
8.29092E-04 1.18836E-23
8.80086E-04 1.05430E-23
9.32601E-04 9.38569E-24
9.86636E-04 8.38299E-24
1.04219E-03 7.51034E-24
1.09927E-03 6.74823E-24
1.15786E-03 6.08031E-24
1.21797E-03 5.49277E-24
1.27961E-03 4.97454E-24
1.34276E-03 4.51579E-24
1.40743E-03 4.10870E-24
1.47362E-03 3.74637E-24
1.54133E-03 3.42301E-24
1.61056E-03 3.13377E-24
1.68131E-03 2.87434E-24
1.75357E-03 2.64119E-24
1.82735E-03 2.43112E-24
1.90265E-03 2.24149E-24
1.97947E-03 2.06996E-24
2.05780E-03 1.91447E-24
2.13765E-03 1.77329E-24
2.21902E-03 1.64483E-24
2.30190E-03 1.52777E-24
2.38630E-03 1.42092E-24
2.47222E-03 1.32320E-24
2.55965E-03 1.23373E-24
2.64859E-03 1.15166E-24
2.73905E-03 1.07629E-24
2.83103E-03 1.00696E-24
2.92452E-03 9.43101E-25
3.01952E-03 8.84210E-25
3.11604E-03 8.29821E-25
3.21407E-03 7.79541E-25
3.31362E-03 7.32991E-25
3.41468E-03 6.89854E-25
3.51725E-03 6.49829E-25
3.62133E-03 6.12650E-25
3.72692E-03 5.78084E-25
3.83403E-03 5.45907E-25
3.94265E-03 5.15929E-25
4.05278E-03 4.87970E-25
4.16442E-03 4.61870E-25
4.27757E-03 4.37483E-25
4.39223E-03 4.14675E-25
4.50840E-03 3.93328E-25
4.62608E-03 3.73327E-25
4.74527E-03 3.54575E-25
4.86597E-03 3.36979E-25
4.98817E-03 3.20454E-25
5.11188E-03 3.04924E-25
5.23711E-03 2.90317E-25
5.36383E-03 2.76569E-25
5.49207E-03 2.63619E-25
5.62181E-03 2.51413E-25
5.75306E-03 2.39902E-25
5.88581E-03 2.29036E-25
6.02007E-03 2.18774E-25
6.15583E-03 2.09076E-25
6.29310E-03 1.99906E-25
6.43187E-03 1.91229E-25
6.57214E-03 1.83014E-25
6.71392E-03 1.75232E-25
6.85720E-03 1.67856E-25
7.00198E-03 1.60861E-25
7.14827E-03 1.54223E-25
7.29605E-03 1.47920E-25
7.44534E-03 1.41934E-25
7.59612E-03 1.36245E-25
7.97965E-03 1.23209E-25
8.37255E-03 1.11682E-25
8.77480E-03 1.01460E-25
9.18641E-03 9.23691E-26
9.60736E-03 8.42636E-26
1.00376E-02 7.70185E-26
1.04773E-02 7.05268E-26
1.09262E-02 6.46969E-26
1.13844E-02 5.94497E-26
1.18520E-02 5.47172E-26
1.23288E-02 5.04401E-26
1.28150E-02 4.65671E-26
1.33104E-02 4.30535E-26
1.38150E-02 3.98602E-26
1.43290E-02 3.69530E-26
1.48521E-02 3.43019E-26
1.53845E-02 3.18804E-26
1.59262E-02 2.96653E-26
1.64770E-02 2.76358E-26
1.70371E-02 2.57738E-26
1.76063E-02 2.40631E-26
1.81848E-02 2.24892E-26
1.87724E-02 2.10394E-26
1.93692E-02 1.97021E-26
1.99751E-02 1.84671E-26
2.05901E-02 1.73253E-26
2.12143E-02 1.62685E-26
2.18476E-02 1.52891E-26
2.24900E-02 1.43806E-26
2.31415E-02 1.35369E-26
2.38021E-02 1.27527E-26
2.44717E-02 1.20229E-26
2.51504E-02 1.13433E-26
2.58382E-02 1.07097E-26
2.65349E-02 1.01185E-26
2.72407E-02 9.56636E-27
2.79555E-02 9.05030E-27
2.86793E-02 8.56753E-27
2.94120E-02 8.11555E-27
3.01537E-02 7.69205E-27
3.09043E-02 7.29493E-27
3.16639E-02 6.92229E-27
3.24324E-02 6.57234E-27
3.32098E-02 6.24347E-27
3.39961E-02 5.93420E-27
3.47912E-02 5.64317E-27
3.55952E-02 5.36912E-27
3.64081E-02 5.11088E-27
3.72297E-02 4.86740E-27
3.80602E-02 4.63769E-27
3.88995E-02 4.42084E-27
3.97476E-02 4.21601E-27
4.06044E-02 4.02243E-27
4.14700E-02 3.83937E-27
4.23443E-02 3.66616E-27
4.32273E-02 3.50219E-27
4.41190E-02 3.34689E-27
4.50194E-02 3.19971E-27
4.59284E-02 3.06018E-27
4.68461E-02 2.92781E-27
4.87074E-02 2.68291E-27
5.06030E-02 2.46193E-27
5.25328E-02 2.26216E-27
5.44967E-02 2.08127E-27
5.64946E-02 1.91720E-27
5.85262E-02 1.76814E-27
6.05914E-02 1.63252E-27
6.26901E-02 1.50895E-27
6.48222E-02 1.39620E-27
6.69873E-02 1.29317E-27
6.91854E-02 1.19891E-27
7.14163E-02 1.11256E-27
7.36799E-02 1.03336E-27
7.59760E-02 9.60635E-28
7.83043E-02 8.93776E-28
8.06647E-02 8.32244E-28
8.30571E-02 7.75553E-28
8.54812E-02 7.23271E-28
8.79369E-02 6.75005E-28
9.04240E-02 6.30404E-28
9.29422E-02 5.89152E-28
9.54915E-02 5.50963E-28
9.80716E-02 5.15578E-28
1.00682E-01 4.82764E-28
1.03323E-01 4.52309E-28
1.05995E-01 4.24021E-28
1.08696E-01 3.97726E-28
1.11427E-01 3.73265E-28
1.14188E-01 3.50493E-28
1.16978E-01 3.29279E-28
1.19797E-01 3.09503E-28
1.22645E-01 2.91055E-28
1.25522E-01 2.73834E-28
1.28428E-01 2.57750E-28
1.31361E-01 2.42718E-28
1.34323E-01 2.28660E-28
1.37313E-01 2.15507E-28
1.40330E-01 2.03192E-28
1.43375E-01 1.91657E-28
1.46447E-01 1.80846E-28
1.49545E-01 1.70708E-28
1.52671E-01 1.61197E-28
1.55823E-01 1.52270E-28
1.59001E-01 1.43886E-28
1.62205E-01 1.36010E-28
1.65435E-01 1.28607E-28
1.68690E-01 1.21645E-28
1.71970E-01 1.15096E-28
1.75276E-01 1.08932E-28
1.78606E-01 1.03128E-28
1.81961E-01 9.76619E-29
1.85340E-01 9.25112E-29
1.88743E-01 8.76560E-29
1.92169E-01 8.30776E-29
1.95619E-01 7.87589E-29
1.99092E-01 7.46835E-29
2.02589E-01 7.08365E-29
2.06107E-01 6.72038E-29
2.09649E-01 6.37725E-29
2.13212E-01 6.05303E-29
2.16797E-01 5.74658E-29
2.20404E-01 5.45685E-29
2.24032E-01 5.18283E-29
2.27680E-01 4.92361E-29
2.31350E-01 4.67831E-29
2.35040E-01 4.44612E-29
2.38751E-01 4.22629E-29
2.42481E-01 4.01810E-29
2.46231E-01 3.82087E-29
2.50000E-01 3.63400E-29
2.53788E-01 3.45689E-29
2.57595E-01 3.28899E-29
2.61421E-01 3.12978E-29
2.65264E-01 2.97878E-29
2.69126E-01 2.83554E-29
2.73005E-01 2.69962E-29
2.76901E-01 2.57062E-29
2.80814E-01 2.44817E-29
2.84744E-01 2.33190E-29
2.88691E-01 2.22149E-29
2.92653E-01 2.11662E-29
2.96632E-01 2.01699E-29
3.00625E-01 1.92232E-29
3.04634E-01 1.83235E-29
3.08658E-01 1.74682E-29
3.12697E-01 1.66551E-29
3.16749E-01 1.58819E-29
3.20816E-01 1.51466E-29
3.24896E-01 1.44471E-29
3.28990E-01 1.37816E-29
3.33097E-01 1.31484E-29
3.37216E-01 1.25458E-29
3.41348E-01 1.19722E-29
3.45492E-01 1.14262E-29
3.49647E-01 1.09063E-29
3.53814E-01 1.04112E-29
3.57992E-01 9.93969E-30
3.62181E-01 9.49057E-30
3.66381E-01 9.06269E-30
3.70590E-01 8.65502E-30
3.74810E-01 8.26654E-30
3.79039E-01 7.89629E-30
3.83277E-01 7.54339E-30
3.87524E-01 7.20696E-30
3.91780E-01 6.88621E-30
3.96044E-01 6.58036E-30
4.00316E-01 6.28868E-30
4.04596E-01 6.01050E-30
4.08882E-01 5.74514E-30
4.13176E-01 5.49200E-30
4.17476E-01 5.25047E-30
4.21783E-01 5.02001E-30
4.26095E-01 4.80008E-30
4.30413E-01 4.59017E-30
4.34737E-01 4.38981E-30
4.39065E-01 4.19855E-30
4.43398E-01 4.01595E-30
4.47736E-01 3.84160E-30
4.52077E-01 3.67512E-30
4.56422E-01 3.51612E-30
4.60770E-01 3.36427E-30
4.65122E-01 3.21922E-30
4.69476E-01 3.08066E-30
4.73832E-01 2.94829E-30
4.78190E-01 2.82181E-30
4.82550E-01 2.70095E-30
4.86912E-01 2.58546E-30
4.91274E-01 2.47509E-30
4.95637E-01 2.36959E-30
5.00000E-01 2.26875E-30
5.04363E-01 2.17234E-30
5.08726E-01 2.08018E-30
5.13088E-01 1.99206E-30
5.17450E-01 1.90780E-30
5.21810E-01 1.82723E-30
5.26168E-01 1.75017E-30
5.30524E-01 1.67647E-30
5.34878E-01 1.60598E-30
5.39230E-01 1.53854E-30
5.43578E-01 1.47403E-30
5.47923E-01 1.41231E-30
5.52264E-01 1.35326E-30
5.56602E-01 1.29675E-30
5.60935E-01 1.24268E-30
5.65263E-01 1.19093E-30
5.69587E-01 1.14141E-30
5.73905E-01 1.09400E-30
5.78217E-01 1.04862E-30
5.82524E-01 1.00519E-30
5.86824E-01 9.63599E-31
5.91118E-01 9.23784E-31
5.95404E-01 8.85662E-31
5.99684E-01 8.49158E-31
6.03956E-01 8.14201E-31
6.08220E-01 7.80724E-31
6.12476E-01 7.48661E-31
6.16723E-01 7.17951E-31
6.20961E-01 6.88535E-31
6.25190E-01 6.60357E-31
6.29410E-01 6.33362E-31
6.33619E-01 6.07500E-31
6.37819E-01 5.82720E-31
6.42008E-01 5.58977E-31
6.46186E-01 5.36226E-31
6.50353E-01 5.14424E-31
6.54508E-01 4.93529E-31
6.58652E-01 4.73503E-31
6.62784E-01 4.54309E-31
6.66903E-01 4.35911E-31
6.71010E-01 4.18275E-31
6.75104E-01 4.01367E-31
6.79184E-01 3.85158E-31
6.83251E-01 3.69618E-31
6.87303E-01 3.54718E-31
6.91342E-01 3.40430E-31
6.95366E-01 3.26729E-31
6.99375E-01 3.13590E-31
7.03368E-01 3.00989E-31
7.07347E-01 2.88904E-31
7.11309E-01 2.77312E-31
7.15256E-01 2.66193E-31
7.19186E-01 2.55527E-31
7.23099E-01 2.45295E-31
7.26995E-01 2.35479E-31
7.30874E-01 2.26061E-31
7.34736E-01 2.17025E-31
7.38579E-01 2.08353E-31
7.42405E-01 2.00033E-31
7.46212E-01 1.92049E-31
7.50000E-01 1.84387E-31
7.53769E-01 1.77033E-31
7.57519E-01 1.69974E-31
7.61249E-01 1.63199E-31
7.64960E-01 1.56696E-31
7.68650E-01 1.50453E-31
7.72320E-01 1.44461E-31
7.75968E-01 1.38707E-31
7.79596E-01 1.33183E-31
7.83203E-01 1.27880E-31
7.86788E-01 1.22787E-31
7.90351E-01 1.17897E-31
7.93893E-01 1.13200E-31
7.97411E-01 1.08691E-31
8.00908E-01 1.04360E-31
8.04381E-01 1.00200E-31
8.07831E-01 9.62046E-32
8.11257E-01 9.23668E-32
8.14660E-01 8.86805E-32
8.18039E-01 8.51392E-32
8.21394E-01 8.17371E-32
8.24724E-01 7.84687E-32
8.28030E-01 7.53284E-32
8.31310E-01 7.23113E-32
8.34565E-01 6.94124E-32
8.37795E-01 6.66269E-32
8.40999E-01 6.39499E-32
8.44177E-01 6.13775E-32
8.47329E-01 5.89056E-32
8.50455E-01 5.65297E-32
8.53553E-01 5.42462E-32
8.56625E-01 5.20514E-32
8.59670E-01 4.99418E-32
8.62687E-01 4.79141E-32
8.65677E-01 4.59649E-32
8.68639E-01 4.40912E-32
8.71572E-01 4.22896E-32
8.74478E-01 4.05580E-32
8.77355E-01 3.88930E-32
8.80203E-01 3.72922E-32
8.83022E-01 3.57532E-32
8.85812E-01 3.42734E-32
8.88573E-01 3.28505E-32
8.91304E-01 3.14822E-32
8.94005E-01 3.01666E-32
8.96677E-01 2.89014E-32
8.99318E-01 2.76849E-32
9.01928E-01 2.65149E-32
9.04508E-01 2.53898E-32
9.07058E-01 2.43078E-32
9.09576E-01 2.32673E-32
9.12063E-01 2.22665E-32
9.14519E-01 2.13040E-32
9.16943E-01 2.03784E-32
9.19335E-01 1.94882E-32
9.21696E-01 1.86320E-32
9.24024E-01 1.78085E-32
9.26320E-01 1.70167E-32
9.28584E-01 1.62551E-32
9.30815E-01 1.55227E-32
9.33013E-01 1.48183E-32
9.35178E-01 1.41409E-32
9.37310E-01 1.34895E-32
9.39409E-01 1.28631E-32
9.41474E-01 1.22608E-32
9.43505E-01 1.16818E-32
9.45503E-01 1.11248E-32
9.47467E-01 1.05895E-32
9.49397E-01 1.00750E-32
9.51293E-01 9.58025E-33
9.53154E-01 9.10492E-33
9.54981E-01 8.64792E-33
9.56773E-01 8.20879E-33
9.58530E-01 7.78689E-33
9.60252E-01 7.38156E-33
9.61940E-01 6.99227E-33
9.63592E-01 6.61833E-33
9.65209E-01 6.25937E-33
9.66790E-01 5.91472E-33
9.68336E-01 5.58390E-33
9.69846E-01 5.26650E-33
9.71321E-01 4.96203E-33
9.72759E-01 4.67009E-33
9.74162E-01 4.39017E-33
9.75528E-01 4.12187E-33
9.76858E-01 3.86499E-33
9.78152E-01 3.61890E-33
9.79410E-01 3.38343E-33
9.80631E-01 3.15819E-33
9.81815E-01 2.94287E-33
9.82963E-01 2.73712E-33
9.84074E-01 2.54069E-33
9.85148E-01 2.35332E-33
9.86185E-01 2.17475E-33
9.87185E-01 2.00462E-33
9.88148E-01 1.84281E-33
9.89074E-01 1.68905E-33
9.89962E-01 1.54313E-33
9.90814E-01 1.40484E-33
9.91627E-01 1.27396E-33
9.92404E-01 1.15036E-33
9.93143E-01 1.03381E-33
9.93844E-01 9.24185E-34
9.94508E-01 8.21366E-34
9.95134E-01 7.25064E-34
9.95722E-01 6.35375E-34
9.96273E-01 5.51956E-34
9.96786E-01 4.74853E-34
9.97261E-01 4.03807E-34
9.97698E-01 3.38836E-34
9.98097E-01 2.79796E-34
9.98459E-01 2.26623E-34
9.98782E-01 1.79250E-34
9.99067E-01 1.37611E-34
9.99315E-01 1.01646E-34
9.99524E-01 7.13051E-35
9.99695E-01 4.65303E-35
9.99829E-01 2.72764E-35
9.99924E-01 1.35557E-35
9.99981E-01 5.33023E-36
1.00000E+00 2.59990E-36
