 #
 # Subroutine ELSEPA. Elastic scattering of electrons and positrons
 #                    by neutral atoms and positive ions
 #
 # Projectile: positron
 # Kinetic energy = 2.50000E+08 eV = 9.18733E+06 a.u.
 #
 # WARNING: High-energy factorization with free-atom DF screening.
 #          Absorption, polarization and exchange corrections are
 #          switched off.
 #          Phase shifts are calculated for the bare nucleus.
 #          Scattering amplitudes are not evaluated.
 #
 # Element:  B,  Z =   5,  atomic weight = 1.08110E+01 g/mol
 #
 # Nuclear model: Fermi distribution
 #                Average radius = 2.36595E-13 cm
 #                Skin thickness = 5.46000E-14 cm
 #
 # Number of electrons =  5
 #
 # Total elastic cross section = 2.13999E-19 cm**2 = 7.64203E-03 a0**2
 # 1st transport cross section = 9.17308E-28 cm**2 = 3.27577E-11 a0**2
 # 2nd transport cross section = 2.74287E-27 cm**2 = 9.79497E-11 a0**2
 #
 #
 # Differential cross section:                       MU=(1-COS(THETA))/2
 #
 #  THETA        MU          DCS          DCS        Sherman      error
 #  (deg)                 (cm**2/sr)   (a0**2/sr)    function
 #----------------------------------------------------------------------
0.00000E+00 1.87682E-10
7.61557E-13 1.84949E-10
1.18994E-12 1.83437E-10
1.71346E-12 1.81612E-10
2.33225E-12 1.79488E-10
3.04617E-12 1.77081E-10
3.85530E-12 1.74406E-10
4.75964E-12 1.71482E-10
5.75917E-12 1.68329E-10
6.85391E-12 1.64969E-10
8.04379E-12 1.61421E-10
9.32893E-12 1.57705E-10
1.07092E-11 1.53846E-10
1.21847E-11 1.49866E-10
1.37554E-11 1.45785E-10
1.54213E-11 1.41619E-10
1.71823E-11 1.37395E-10
1.90386E-11 1.33131E-10
2.09900E-11 1.28845E-10
2.30367E-11 1.24548E-10
2.51785E-11 1.20189E-10
2.74156E-11 1.15735E-10
2.97478E-11 1.11423E-10
3.21752E-11 1.07258E-10
3.46979E-11 1.03246E-10
3.73157E-11 9.93867E-11
4.00286E-11 9.53897E-11
4.28368E-11 9.13899E-11
4.57402E-11 8.75707E-11
4.87388E-11 8.39281E-11
5.18325E-11 8.04578E-11
5.50215E-11 7.71544E-11
5.83057E-11 7.36771E-11
6.16850E-11 7.03596E-11
6.51595E-11 6.72155E-11
6.87293E-11 6.42372E-11
7.23943E-11 6.14169E-11
7.61544E-11 5.86801E-11
1.18991E-10 3.63925E-11
1.71347E-10 2.25325E-11
2.33223E-10 1.41791E-11
3.04617E-10 9.15466E-12
3.85531E-10 6.09276E-12
4.75965E-10 4.18703E-12
5.75917E-10 2.96684E-12
6.85389E-10 2.16343E-12
8.04380E-10 1.62123E-12
9.32891E-10 1.24317E-12
1.07092E-09 9.72214E-13
1.21847E-09 7.73733E-13
1.37554E-09 6.25562E-13
1.54213E-09 5.12853E-13
1.71823E-09 4.25455E-13
1.90386E-09 3.56528E-13
2.09900E-09 3.01413E-13
2.30367E-09 2.56843E-13
2.51785E-09 2.20387E-13
2.74156E-09 1.90304E-13
2.97478E-09 1.65496E-13
3.21752E-09 1.44376E-13
3.46978E-09 1.26728E-13
3.73156E-09 1.11614E-13
4.00286E-09 9.87519E-14
4.28368E-09 8.76815E-14
4.57402E-09 7.80939E-14
4.87388E-09 6.98196E-14
5.18326E-09 6.25473E-14
5.50215E-09 5.62485E-14
5.83057E-09 5.06623E-14
6.16850E-09 4.57813E-14
6.51596E-09 4.14477E-14
6.87293E-09 3.76137E-14
7.23942E-09 3.42115E-14
7.61544E-09 3.11726E-14
1.18991E-08 1.35446E-14
1.71347E-08 6.73365E-15
2.33223E-08 3.69585E-15
3.04617E-08 2.18722E-15
3.85531E-08 1.37330E-15
4.75965E-08 9.04252E-16
5.75917E-08 6.19043E-16
6.85389E-08 4.37762E-16
8.04380E-08 3.18164E-16
9.32891E-08 2.36720E-16
1.07092E-07 1.79728E-16
1.21847E-07 1.38890E-16
1.37554E-07 1.09014E-16
1.54213E-07 8.67530E-17
1.71823E-07 6.98930E-17
1.90386E-07 5.69359E-17
2.09900E-07 4.68441E-17
2.30367E-07 3.88920E-17
2.51785E-07 3.25579E-17
2.74156E-07 2.74624E-17
2.97478E-07 2.33257E-17
3.21752E-07 1.99394E-17
3.46978E-07 1.71459E-17
3.73156E-07 1.48249E-17
4.00286E-07 1.28837E-17
4.28368E-07 1.12500E-17
4.57402E-07 9.86731E-18
4.87388E-07 8.69062E-18
5.18325E-07 7.68422E-18
5.50215E-07 6.81937E-18
5.83057E-07 6.07284E-18
6.16850E-07 5.42572E-18
6.51596E-07 4.86254E-18
6.87293E-07 4.37058E-18
7.23942E-07 3.93928E-18
7.61543E-07 3.55990E-18
1.18991E-06 1.45818E-18
1.71347E-06 7.03213E-19
2.33223E-06 3.79574E-19
3.04617E-06 2.22496E-19
3.85531E-06 1.38901E-19
4.75964E-06 9.11312E-20
5.75916E-06 6.22426E-20
6.85388E-06 4.39465E-20
8.04378E-06 3.19056E-20
9.32888E-06 2.37202E-20
1.07092E-05 1.79993E-20
1.21846E-05 1.39037E-20
1.37553E-05 1.09095E-20
1.54212E-05 8.67962E-21
1.71822E-05 6.99144E-21
1.90385E-05 5.70229E-21
2.09899E-05 4.69026E-21
2.30365E-05 3.89145E-21
2.51783E-05 3.25517E-21
2.74153E-05 2.74411E-21
2.97475E-05 2.33021E-21
3.21749E-05 1.99214E-21
3.46974E-05 1.71361E-21
3.73152E-05 1.48221E-21
4.00281E-05 1.28845E-21
4.28362E-05 1.12512E-21
4.57395E-05 9.86661E-22
4.87380E-05 8.68740E-22
5.18317E-05 7.67898E-22
5.50205E-05 6.81326E-22
5.83045E-05 6.06702E-22
6.16838E-05 5.42095E-22
6.51582E-05 4.85905E-22
6.87277E-05 4.36811E-22
7.23925E-05 3.93737E-22
7.61524E-05 3.55399E-22
9.21439E-05 2.42552E-22
1.09658E-04 1.71247E-22
1.28695E-04 1.24263E-22
1.49255E-04 9.23467E-23
1.71338E-04 7.00520E-23
1.94942E-04 5.40806E-23
2.20070E-04 4.24204E-23
2.46720E-04 3.37298E-23
2.74892E-04 2.71567E-23
3.04586E-04 2.21070E-23
3.35803E-04 1.81761E-23
3.68542E-04 1.50817E-23
4.02802E-04 1.26162E-23
4.38585E-04 1.06348E-23
4.75889E-04 9.02630E-24
5.14715E-04 7.71027E-24
5.55063E-04 6.62524E-24
5.96931E-04 5.72378E-24
6.40321E-04 4.97052E-24
6.85233E-04 4.33660E-24
7.31665E-04 3.80046E-24
7.79618E-04 3.34437E-24
8.29092E-04 2.95443E-24
8.80086E-04 2.61960E-24
9.32601E-04 2.33061E-24
9.86636E-04 2.08031E-24
1.04219E-03 1.86255E-24
1.09927E-03 1.67243E-24
1.15786E-03 1.50587E-24
1.21797E-03 1.35940E-24
1.27961E-03 1.23026E-24
1.34276E-03 1.11598E-24
1.40743E-03 1.01461E-24
1.47362E-03 9.24419E-25
1.54133E-03 8.43962E-25
1.61056E-03 7.72025E-25
1.68131E-03 7.07525E-25
1.75357E-03 6.49585E-25
1.82735E-03 5.97406E-25
1.90265E-03 5.50322E-25
1.97947E-03 5.07752E-25
2.05780E-03 4.69179E-25
2.13765E-03 4.34174E-25
2.21902E-03 4.02339E-25
2.30190E-03 3.73344E-25
2.38630E-03 3.46888E-25
2.47222E-03 3.22709E-25
2.55965E-03 3.00580E-25
2.64859E-03 2.80293E-25
2.73905E-03 2.61671E-25
2.83103E-03 2.44551E-25
2.92452E-03 2.28792E-25
3.01952E-03 2.14266E-25
3.11604E-03 2.00859E-25
3.21407E-03 1.88472E-25
3.31362E-03 1.77011E-25
3.41468E-03 1.66396E-25
3.51725E-03 1.56554E-25
3.62133E-03 1.47417E-25
3.72692E-03 1.38927E-25
3.83403E-03 1.31030E-25
3.94265E-03 1.23677E-25
4.05278E-03 1.16823E-25
4.16442E-03 1.10430E-25
4.27757E-03 1.04461E-25
4.39223E-03 9.88813E-26
4.50840E-03 9.36632E-26
4.62608E-03 8.87777E-26
4.74527E-03 8.42007E-26
4.86597E-03 7.99089E-26
4.98817E-03 7.58812E-26
5.11188E-03 7.20991E-26
5.23711E-03 6.85443E-26
5.36383E-03 6.52013E-26
5.49207E-03 6.20549E-26
5.62181E-03 5.90917E-26
5.75306E-03 5.62991E-26
5.88581E-03 5.36654E-26
6.02007E-03 5.11803E-26
6.15583E-03 4.88336E-26
6.29310E-03 4.66166E-26
6.43187E-03 4.45206E-26
6.57214E-03 4.25378E-26
6.71392E-03 4.06613E-26
6.85720E-03 3.88841E-26
7.00198E-03 3.72003E-26
7.14827E-03 3.56040E-26
7.29605E-03 3.40898E-26
7.44534E-03 3.26529E-26
7.59612E-03 3.12885E-26
7.97965E-03 2.81677E-26
8.37255E-03 2.54148E-26
8.77480E-03 2.29796E-26
9.18641E-03 2.08197E-26
9.60736E-03 1.88990E-26
1.00376E-02 1.71868E-26
1.04773E-02 1.56570E-26
1.09262E-02 1.42872E-26
1.13844E-02 1.30579E-26
1.18520E-02 1.19525E-26
1.23288E-02 1.09566E-26
1.28150E-02 1.00576E-26
1.33104E-02 9.24468E-27
1.38150E-02 8.50834E-27
1.43290E-02 7.84024E-27
1.48521E-02 7.23309E-27
1.53845E-02 6.68050E-27
1.59262E-02 6.17682E-27
1.64770E-02 5.71707E-27
1.70371E-02 5.29685E-27
1.76063E-02 4.91225E-27
1.81848E-02 4.55980E-27
1.87724E-02 4.23644E-27
1.93692E-02 3.93939E-27
1.99751E-02 3.66622E-27
2.05901E-02 3.41473E-27
2.12143E-02 3.18295E-27
2.18476E-02 2.96911E-27
2.24900E-02 2.77163E-27
2.31415E-02 2.58909E-27
2.38021E-02 2.42019E-27
2.44717E-02 2.26378E-27
2.51504E-02 2.11880E-27
2.58382E-02 1.98431E-27
2.65349E-02 1.85945E-27
2.72407E-02 1.74343E-27
2.79555E-02 1.63555E-27
2.86793E-02 1.53515E-27
2.94120E-02 1.44167E-27
3.01537E-02 1.35454E-27
3.09043E-02 1.27330E-27
3.16639E-02 1.19748E-27
3.24324E-02 1.12669E-27
3.32098E-02 1.06055E-27
3.39961E-02 9.98717E-28
3.47912E-02 9.40874E-28
3.55952E-02 8.86734E-28
3.64081E-02 8.36032E-28
3.72297E-02 7.88524E-28
3.80602E-02 7.43986E-28
3.88995E-02 7.02211E-28
3.97476E-02 6.63008E-28
4.06044E-02 6.26200E-28
4.14700E-02 5.91626E-28
4.23443E-02 5.59136E-28
4.32273E-02 5.28589E-28
4.41190E-02 4.99857E-28
4.50194E-02 4.72822E-28
4.59284E-02 4.47372E-28
4.68461E-02 4.23406E-28
4.87074E-02 3.79549E-28
5.06030E-02 3.40567E-28
5.25328E-02 3.05871E-28
5.44967E-02 2.74948E-28
5.64946E-02 2.47353E-28
5.85262E-02 2.22698E-28
6.05914E-02 2.00645E-28
6.26901E-02 1.80899E-28
6.48222E-02 1.63200E-28
6.69873E-02 1.47320E-28
6.91854E-02 1.33061E-28
7.14163E-02 1.20244E-28
7.36799E-02 1.08716E-28
7.59760E-02 9.83382E-29
7.83043E-02 8.89891E-29
8.06647E-02 8.05610E-29
8.30571E-02 7.29583E-29
8.54812E-02 6.60958E-29
8.79369E-02 5.98980E-29
9.04240E-02 5.42973E-29
9.29422E-02 4.92336E-29
9.54915E-02 4.46532E-29
9.80716E-02 4.05081E-29
1.00682E-01 3.67553E-29
1.03323E-01 3.33564E-29
1.05995E-01 3.02767E-29
1.08696E-01 2.74854E-29
1.11427E-01 2.49546E-29
1.14188E-01 2.26593E-29
1.16978E-01 2.05769E-29
1.19797E-01 1.86874E-29
1.22645E-01 1.69724E-29
1.25522E-01 1.54154E-29
1.28428E-01 1.40016E-29
1.31361E-01 1.27176E-29
1.34323E-01 1.15513E-29
1.37313E-01 1.04917E-29
1.40330E-01 9.52905E-30
1.43375E-01 8.65429E-30
1.46447E-01 7.85935E-30
1.49545E-01 7.13688E-30
1.52671E-01 6.48024E-30
1.55823E-01 5.88340E-30
1.59001E-01 5.34091E-30
1.62205E-01 4.84780E-30
1.65435E-01 4.39958E-30
1.68690E-01 3.99217E-30
1.71970E-01 3.62187E-30
1.75276E-01 3.28530E-30
1.78606E-01 2.97942E-30
1.81961E-01 2.70144E-30
1.85340E-01 2.44884E-30
1.88743E-01 2.21932E-30
1.92169E-01 2.01081E-30
1.95619E-01 1.82139E-30
1.99092E-01 1.64934E-30
2.02589E-01 1.49310E-30
2.06107E-01 1.35124E-30
2.09649E-01 1.22245E-30
2.13212E-01 1.10555E-30
2.16797E-01 9.99467E-31
2.20404E-01 9.03220E-31
2.24032E-01 8.15918E-31
2.27680E-01 7.36748E-31
2.31350E-01 6.64971E-31
2.35040E-01 5.99915E-31
2.38751E-01 5.40968E-31
2.42481E-01 4.87572E-31
2.46231E-01 4.39220E-31
2.50000E-01 3.95451E-31
2.53788E-01 3.55844E-31
2.57595E-01 3.20016E-31
2.61421E-01 2.87620E-31
2.65264E-01 2.58338E-31
2.69126E-01 2.31883E-31
2.73005E-01 2.07993E-31
2.76901E-01 1.86428E-31
2.80814E-01 1.66973E-31
2.84744E-01 1.49429E-31
2.88691E-01 1.33617E-31
2.92653E-01 1.19375E-31
2.96632E-01 1.06554E-31
3.00625E-01 9.50186E-32
3.04634E-01 8.46474E-32
3.08658E-01 7.53291E-32
3.12697E-01 6.69627E-32
3.16749E-01 5.94563E-32
3.20816E-01 5.27270E-32
3.24896E-01 4.66992E-32
3.28990E-01 4.13043E-32
3.33097E-01 3.64804E-32
3.37216E-01 3.21710E-32
3.41348E-01 2.83253E-32
3.45492E-01 2.48968E-32
3.49647E-01 2.18440E-32
3.53814E-01 1.91287E-32
3.57992E-01 1.67168E-32
3.62181E-01 1.45772E-32
3.66381E-01 1.26819E-32
3.70590E-01 1.10055E-32
3.74810E-01 9.52533E-33
3.79039E-01 8.22053E-33
3.83277E-01 7.07253E-33
3.87524E-01 6.06456E-33
3.91780E-01 5.18144E-33
3.96044E-01 4.40960E-33
4.00316E-01 3.73673E-33
4.04596E-01 3.15181E-33
4.08882E-01 2.64494E-33
4.13176E-01 2.20719E-33
4.17476E-01 1.83061E-33
4.21783E-01 1.50803E-33
4.26095E-01 1.23302E-33
4.30413E-01 9.99869E-34
4.34737E-01 8.03435E-34
4.39065E-01 6.39157E-34
4.43398E-01 5.02938E-34
4.47736E-01 3.91148E-34
4.52077E-01 3.00559E-34
4.56422E-01 2.28292E-34
4.60770E-01 1.71803E-34
4.65122E-01 1.28837E-34
4.69476E-01 9.74004E-35
4.73832E-01 7.57346E-35
4.78190E-01 6.22920E-35
4.82550E-01 5.57136E-35
4.86912E-01 5.48061E-35
4.91274E-01 5.85308E-35
4.95637E-01 6.59768E-35
5.00000E-01 7.63607E-35
5.04363E-01 8.90014E-35
5.08726E-01 1.03309E-34
5.13088E-01 1.18781E-34
5.17450E-01 1.34989E-34
5.21810E-01 1.51572E-34
5.26168E-01 1.68221E-34
5.30524E-01 1.84683E-34
5.34878E-01 2.00742E-34
5.39230E-01 2.16235E-34
5.43578E-01 2.31014E-34
5.47923E-01 2.44990E-34
5.52264E-01 2.58066E-34
5.56602E-01 2.70187E-34
5.60935E-01 2.81307E-34
5.65263E-01 2.91419E-34
5.69587E-01 3.00489E-34
5.73905E-01 3.08545E-34
5.78217E-01 3.15577E-34
5.82524E-01 3.21614E-34
5.86824E-01 3.26690E-34
5.91118E-01 3.30828E-34
5.95404E-01 3.34058E-34
5.99684E-01 3.36432E-34
6.03956E-01 3.37988E-34
6.08220E-01 3.38767E-34
6.12476E-01 3.38820E-34
6.16723E-01 3.38187E-34
6.20961E-01 3.36915E-34
6.25190E-01 3.35048E-34
6.29410E-01 3.32629E-34
6.33619E-01 3.29709E-34
6.37819E-01 3.26323E-34
6.42008E-01 3.22517E-34
6.46186E-01 3.18322E-34
6.50353E-01 3.13784E-34
6.54508E-01 3.08937E-34
6.58652E-01 3.03822E-34
6.62784E-01 2.98467E-34
6.66903E-01 2.92888E-34
6.71010E-01 2.87136E-34
6.75104E-01 2.81238E-34
6.79184E-01 2.75209E-34
6.83251E-01 2.69068E-34
6.87303E-01 2.62856E-34
6.91342E-01 2.56583E-34
6.95366E-01 2.50274E-34
6.99375E-01 2.43932E-34
7.03368E-01 2.37599E-34
7.07347E-01 2.31264E-34
7.11309E-01 2.24958E-34
7.15256E-01 2.18693E-34
7.19186E-01 2.12469E-34
7.23099E-01 2.06308E-34
7.26995E-01 2.00218E-34
7.30874E-01 1.94205E-34
7.34736E-01 1.88272E-34
7.38579E-01 1.82440E-34
7.42405E-01 1.76694E-34
7.46212E-01 1.71055E-34
7.50000E-01 1.65522E-34
7.53769E-01 1.60101E-34
7.57519E-01 1.54794E-34
7.61249E-01 1.49600E-34
7.64960E-01 1.44527E-34
7.68650E-01 1.39571E-34
7.72320E-01 1.34736E-34
7.75968E-01 1.30023E-34
7.79596E-01 1.25431E-34
7.83203E-01 1.20960E-34
7.86788E-01 1.16610E-34
7.90351E-01 1.12385E-34
7.93893E-01 1.08282E-34
7.97411E-01 1.04290E-34
8.00908E-01 1.00419E-34
8.04381E-01 9.66656E-35
8.07831E-01 9.30220E-35
8.11257E-01 8.94946E-35
8.14660E-01 8.60766E-35
8.18039E-01 8.27684E-35
8.21394E-01 7.95672E-35
8.24724E-01 7.64709E-35
8.28030E-01 7.34793E-35
8.31310E-01 7.05861E-35
8.34565E-01 6.77890E-35
8.37795E-01 6.50862E-35
8.40999E-01 6.24813E-35
8.44177E-01 5.99650E-35
8.47329E-01 5.75346E-35
8.50455E-01 5.51922E-35
8.53553E-01 5.29338E-35
8.56625E-01 5.07583E-35
8.59670E-01 4.86604E-35
8.62687E-01 4.66366E-35
8.65677E-01 4.46887E-35
8.68639E-01 4.28122E-35
8.71572E-01 4.10094E-35
8.74478E-01 3.92694E-35
8.77355E-01 3.75981E-35
8.80203E-01 3.59886E-35
8.83022E-01 3.44404E-35
8.85812E-01 3.29501E-35
8.88573E-01 3.15189E-35
8.91304E-01 3.01442E-35
8.94005E-01 2.88206E-35
8.96677E-01 2.75503E-35
8.99318E-01 2.63274E-35
9.01928E-01 2.51542E-35
9.04508E-01 2.40268E-35
9.07058E-01 2.29442E-35
9.09576E-01 2.19039E-35
9.12063E-01 2.09071E-35
9.14519E-01 1.99504E-35
9.16943E-01 1.90297E-35
9.19335E-01 1.81469E-35
9.21696E-01 1.73018E-35
9.24024E-01 1.64899E-35
9.26320E-01 1.57094E-35
9.28584E-01 1.49623E-35
9.30815E-01 1.42465E-35
9.33013E-01 1.35584E-35
9.35178E-01 1.29009E-35
9.37310E-01 1.22704E-35
9.39409E-01 1.16650E-35
9.41474E-01 1.10844E-35
9.43505E-01 1.05272E-35
9.45503E-01 9.99718E-36
9.47467E-01 9.48721E-36
9.49397E-01 8.99804E-36
9.51293E-01 8.53084E-36
9.53154E-01 8.08101E-36
9.54981E-01 7.65303E-36
9.56773E-01 7.24308E-36
9.58530E-01 6.85037E-36
9.60252E-01 6.47483E-36
9.61940E-01 6.11474E-36
9.63592E-01 5.77158E-36
9.65209E-01 5.44183E-36
9.66790E-01 5.12749E-36
9.68336E-01 4.82750E-36
9.69846E-01 4.54035E-36
9.71321E-01 4.26594E-36
9.72759E-01 4.00328E-36
9.74162E-01 3.75344E-36
9.75528E-01 3.51560E-36
9.76858E-01 3.28674E-36
9.78152E-01 3.07025E-36
9.79410E-01 2.86323E-36
9.80631E-01 2.66611E-36
9.81815E-01 2.47813E-36
9.82963E-01 2.29986E-36
9.84074E-01 2.13016E-36
9.85148E-01 1.96844E-36
9.86185E-01 1.81455E-36
9.87185E-01 1.66962E-36
9.88148E-01 1.53171E-36
9.89074E-01 1.40092E-36
9.89962E-01 1.27732E-36
9.90814E-01 1.16042E-36
9.91627E-01 1.05071E-36
9.92404E-01 9.46827E-37
9.93143E-01 8.49608E-37
9.93844E-01 7.58360E-37
9.94508E-01 6.72296E-37
9.95134E-01 5.93481E-37
9.95722E-01 5.18321E-37
9.96273E-01 4.49908E-37
9.96786E-01 3.85716E-37
9.97261E-01 3.27864E-37
9.97698E-01 2.74526E-37
9.98097E-01 2.26424E-37
9.98459E-01 1.83132E-37
9.98782E-01 1.44570E-37
9.99067E-01 1.10544E-37
9.99315E-01 8.11486E-38
9.99524E-01 5.61958E-38
9.99695E-01 3.59949E-38
9.99829E-01 2.05669E-38
9.99924E-01 9.44314E-39
9.99981E-01 2.74147E-39
1.00000E+00 4.42742E-40
