 #
 # Subroutine ELSEPA. Elastic scattering of electrons and positrons
 #                    by neutral atoms and positive ions
 #
 # Projectile: positron
 # Kinetic energy = 1.50000E+07 eV = 5.51240E+05 a.u.
 #
 # WARNING: High-energy factorization with free-atom DF screening.
 #          Absorption, polarization and exchange corrections are
 #          switched off.
 #          Phase shifts are calculated for the bare nucleus.
 #          Scattering amplitudes are not evaluated.
 #
 # Element:  B,  Z =   5,  atomic weight = 1.08110E+01 g/mol
 #
 # Nuclear model: Fermi distribution
 #                Average radius = 2.36595E-13 cm
 #                Skin thickness = 5.46000E-14 cm
 #
 # Number of electrons =  5
 #
 # Total elastic cross section = 2.14168E-19 cm**2 = 7.64806E-03 a0**2
 # 1st transport cross section = 1.95461E-25 cm**2 = 6.98003E-09 a0**2
 # 2nd transport cross section = 5.67104E-25 cm**2 = 2.02516E-08 a0**2
 #
 #
 # Differential cross section:                       MU=(1-COS(THETA))/2
 #
 #  THETA        MU          DCS          DCS        Sherman      error
 #  (deg)                 (cm**2/sr)   (a0**2/sr)    function
 #----------------------------------------------------------------------
0.00000E+00 7.19528E-13
7.61557E-13 7.19487E-13
1.18994E-12 7.19464E-13
1.71346E-12 7.19436E-13
2.33225E-12 7.19403E-13
3.04617E-12 7.19365E-13
3.85530E-12 7.19322E-13
4.75964E-12 7.19273E-13
5.75917E-12 7.19220E-13
6.85391E-12 7.19162E-13
8.04379E-12 7.19098E-13
9.32893E-12 7.19030E-13
1.07092E-11 7.18956E-13
1.21847E-11 7.18878E-13
1.37554E-11 7.18794E-13
1.54213E-11 7.18706E-13
1.71823E-11 7.18612E-13
1.90386E-11 7.18513E-13
2.09900E-11 7.18409E-13
2.30367E-11 7.18301E-13
2.51785E-11 7.18187E-13
2.74156E-11 7.18068E-13
2.97478E-11 7.17944E-13
3.21752E-11 7.17815E-13
3.46979E-11 7.17682E-13
3.73157E-11 7.17543E-13
4.00286E-11 7.17399E-13
4.28368E-11 7.17250E-13
4.57402E-11 7.17096E-13
4.87388E-11 7.16937E-13
5.18325E-11 7.16774E-13
5.50215E-11 7.16605E-13
5.83057E-11 7.16431E-13
6.16850E-11 7.16252E-13
6.51595E-11 7.16069E-13
6.87293E-11 7.15880E-13
7.23943E-11 7.15686E-13
7.61544E-11 7.15487E-13
1.18991E-10 7.13231E-13
1.71347E-10 7.10486E-13
2.33223E-10 7.07262E-13
3.04617E-10 7.03568E-13
3.85531E-10 6.99414E-13
4.75965E-10 6.94812E-13
5.75917E-10 6.89775E-13
6.85389E-10 6.84314E-13
8.04380E-10 6.78446E-13
9.32891E-10 6.72187E-13
1.07092E-09 6.65554E-13
1.21847E-09 6.58564E-13
1.37554E-09 6.51235E-13
1.54213E-09 6.43586E-13
1.71823E-09 6.35636E-13
1.90386E-09 6.27403E-13
2.09900E-09 6.18908E-13
2.30367E-09 6.10171E-13
2.51785E-09 6.01203E-13
2.74156E-09 5.92030E-13
2.97478E-09 5.82674E-13
3.21752E-09 5.73152E-13
3.46978E-09 5.63486E-13
3.73156E-09 5.53693E-13
4.00286E-09 5.43793E-13
4.28368E-09 5.33803E-13
4.57402E-09 5.23741E-13
4.87388E-09 5.13626E-13
5.18326E-09 5.03472E-13
5.50215E-09 4.93288E-13
5.83057E-09 4.83095E-13
6.16850E-09 4.72910E-13
6.51596E-09 4.62561E-13
6.87293E-09 4.51897E-13
7.23942E-09 4.41437E-13
7.61544E-09 4.31187E-13
1.18991E-08 3.36553E-13
1.71347E-08 2.56161E-13
2.33223E-08 1.91986E-13
3.04617E-08 1.42812E-13
3.85531E-08 1.06096E-13
4.75965E-08 7.90911E-14
5.75917E-08 5.93666E-14
6.85389E-08 4.49631E-14
8.04380E-08 3.44350E-14
9.32891E-08 2.66891E-14
1.07092E-07 2.09409E-14
1.21847E-07 1.66329E-14
1.37554E-07 1.33699E-14
1.54213E-07 1.08650E-14
1.71823E-07 8.92883E-15
1.90386E-07 7.41783E-15
2.09900E-07 6.22266E-15
2.30367E-07 5.26613E-15
2.51785E-07 4.49243E-15
2.74156E-07 3.86048E-15
2.97478E-07 3.34005E-15
3.21752E-07 2.90827E-15
3.46978E-07 2.54749E-15
3.73156E-07 2.24386E-15
4.00286E-07 1.98646E-15
4.28368E-07 1.76666E-15
4.57402E-07 1.57768E-15
4.87388E-07 1.41420E-15
5.18325E-07 1.27203E-15
5.50215E-07 1.14780E-15
5.83057E-07 1.03886E-15
6.16850E-07 9.42980E-16
6.51596E-07 8.58070E-16
6.87293E-07 7.82504E-16
7.23942E-07 7.15631E-16
7.61543E-07 6.56256E-16
1.18991E-06 3.01341E-16
1.71347E-06 1.56854E-16
2.33223E-06 8.90059E-17
3.04617E-06 5.38980E-17
3.85531E-06 3.43867E-17
4.75964E-06 2.28972E-17
5.75916E-06 1.58002E-17
6.85388E-06 1.12360E-17
8.04378E-06 8.19971E-18
9.32888E-06 6.11920E-18
1.07092E-05 4.65637E-18
1.21846E-05 3.60444E-18
1.37553E-05 2.83277E-18
1.54212E-05 2.25657E-18
1.71822E-05 1.81943E-18
1.90385E-05 1.48502E-18
2.09899E-05 1.22222E-18
2.30365E-05 1.01458E-18
2.51783E-05 8.49046E-19
2.74153E-05 7.15991E-19
2.97475E-05 6.08164E-19
3.21749E-05 5.20046E-19
3.46974E-05 4.47415E-19
3.73152E-05 3.87052E-19
4.00281E-05 3.36498E-19
4.28362E-05 2.93874E-19
4.57395E-05 2.57736E-19
4.87380E-05 2.26953E-19
5.18317E-05 2.00622E-19
5.50205E-05 1.78011E-19
5.83045E-05 1.58518E-19
6.16838E-05 1.41641E-19
6.51582E-05 1.26962E-19
6.87277E-05 1.14136E-19
7.23925E-05 1.02883E-19
7.61524E-05 9.29733E-20
9.21439E-05 6.34727E-20
1.09658E-04 4.48266E-20
1.28695E-04 3.25388E-20
1.49255E-04 2.41896E-20
1.71338E-04 1.83563E-20
1.94942E-04 1.41766E-20
2.20070E-04 1.11244E-20
2.46720E-04 8.84911E-21
2.74892E-04 7.12780E-21
3.04586E-04 5.80509E-21
3.35803E-04 4.77520E-21
3.68542E-04 3.96425E-21
4.02802E-04 3.31795E-21
4.38585E-04 2.79842E-21
4.75889E-04 2.37653E-21
5.14715E-04 2.03125E-21
5.55063E-04 1.74649E-21
5.96931E-04 1.50983E-21
6.40321E-04 1.31201E-21
6.85233E-04 1.14548E-21
7.31665E-04 1.00458E-21
7.79618E-04 8.84674E-22
8.29092E-04 7.82121E-22
8.80086E-04 6.94025E-22
9.32601E-04 6.17961E-22
9.86636E-04 5.52055E-22
1.04219E-03 4.94691E-22
1.09927E-03 4.44587E-22
1.15786E-03 4.00671E-22
1.21797E-03 3.62036E-22
1.27961E-03 3.27954E-22
1.34276E-03 2.97781E-22
1.40743E-03 2.71002E-22
1.47362E-03 2.47164E-22
1.54133E-03 2.25888E-22
1.61056E-03 2.06855E-22
1.68131E-03 1.89780E-22
1.75357E-03 1.74434E-22
1.82735E-03 1.60605E-22
1.90265E-03 1.48119E-22
1.97947E-03 1.36823E-22
2.05780E-03 1.26582E-22
2.13765E-03 1.17283E-22
2.21902E-03 1.08820E-22
2.30190E-03 1.01107E-22
2.38630E-03 9.40650E-23
2.47222E-03 8.76247E-23
2.55965E-03 8.17267E-23
2.64859E-03 7.63154E-23
2.73905E-03 7.13451E-23
2.83103E-03 6.67722E-23
2.92452E-03 6.25596E-23
3.01952E-03 5.86741E-23
3.11604E-03 5.50849E-23
3.21407E-03 5.17663E-23
3.31362E-03 4.86932E-23
3.41468E-03 4.58449E-23
3.51725E-03 4.32017E-23
3.62133E-03 4.07459E-23
3.72692E-03 3.84622E-23
3.83403E-03 3.63359E-23
3.94265E-03 3.43546E-23
4.05278E-03 3.25063E-23
4.16442E-03 3.07805E-23
4.27757E-03 2.91677E-23
4.39223E-03 2.76590E-23
4.50840E-03 2.62465E-23
4.62608E-03 2.49229E-23
4.74527E-03 2.36817E-23
4.86597E-03 2.25167E-23
4.98817E-03 2.14223E-23
5.11188E-03 2.03936E-23
5.23711E-03 1.94258E-23
5.36383E-03 1.85147E-23
5.49207E-03 1.76563E-23
5.62181E-03 1.68470E-23
5.75306E-03 1.60836E-23
5.88581E-03 1.53628E-23
6.02007E-03 1.46819E-23
6.15583E-03 1.40382E-23
6.29310E-03 1.34294E-23
6.43187E-03 1.28532E-23
6.57214E-03 1.23076E-23
6.71392E-03 1.17905E-23
6.85720E-03 1.13003E-23
7.00198E-03 1.08353E-23
7.14827E-03 1.03939E-23
7.29605E-03 9.97467E-24
7.44534E-03 9.57639E-24
7.59612E-03 9.19773E-24
7.97965E-03 8.32975E-24
8.37255E-03 7.56164E-24
8.77480E-03 6.87992E-24
9.18641E-03 6.27320E-24
9.60736E-03 5.73181E-24
1.00376E-02 5.24748E-24
1.04773E-02 4.81316E-24
1.09262E-02 4.42277E-24
1.13844E-02 4.07110E-24
1.18520E-02 3.75363E-24
1.23288E-02 3.46645E-24
1.28150E-02 3.20616E-24
1.33104E-02 2.96979E-24
1.38150E-02 2.75477E-24
1.43290E-02 2.55881E-24
1.48521E-02 2.37993E-24
1.53845E-02 2.21637E-24
1.59262E-02 2.06659E-24
1.64770E-02 1.92922E-24
1.70371E-02 1.80305E-24
1.76063E-02 1.68700E-24
1.81848E-02 1.58011E-24
1.87724E-02 1.48153E-24
1.93692E-02 1.39050E-24
1.99751E-02 1.30633E-24
2.05901E-02 1.22841E-24
2.12143E-02 1.15620E-24
2.18476E-02 1.08920E-24
2.24900E-02 1.02697E-24
2.31415E-02 9.69107E-25
2.38021E-02 9.15247E-25
2.44717E-02 8.65064E-25
2.51504E-02 8.18261E-25
2.58382E-02 7.74569E-25
2.65349E-02 7.33743E-25
2.72407E-02 6.95562E-25
2.79555E-02 6.59822E-25
2.86793E-02 6.26339E-25
2.94120E-02 5.94944E-25
3.01537E-02 5.65483E-25
3.09043E-02 5.37816E-25
3.16639E-02 5.11812E-25
3.24324E-02 4.87354E-25
3.32098E-02 4.64333E-25
3.39961E-02 4.42649E-25
3.47912E-02 4.22210E-25
3.55952E-02 4.02931E-25
3.64081E-02 3.84734E-25
3.72297E-02 3.67548E-25
3.80602E-02 3.51306E-25
3.88995E-02 3.35946E-25
3.97476E-02 3.21412E-25
4.06044E-02 3.07651E-25
4.14700E-02 2.94615E-25
4.23443E-02 2.82258E-25
4.32273E-02 2.70538E-25
4.41190E-02 2.59416E-25
4.50194E-02 2.48857E-25
4.59284E-02 2.38825E-25
4.68461E-02 2.29292E-25
4.87074E-02 2.11600E-25
5.06030E-02 1.95572E-25
5.25328E-02 1.81023E-25
5.44967E-02 1.67792E-25
5.64946E-02 1.55740E-25
5.85262E-02 1.44743E-25
6.05914E-02 1.34693E-25
6.26901E-02 1.25492E-25
6.48222E-02 1.17058E-25
6.69873E-02 1.09315E-25
6.91854E-02 1.02195E-25
7.14163E-02 9.56412E-26
7.36799E-02 8.95992E-26
7.59760E-02 8.40223E-26
7.83043E-02 7.88684E-26
8.06647E-02 7.40996E-26
8.30571E-02 6.96820E-26
8.54812E-02 6.55853E-26
8.79369E-02 6.17818E-26
9.04240E-02 5.82470E-26
9.29422E-02 5.49584E-26
9.54915E-02 5.18958E-26
9.80716E-02 4.90410E-26
1.00682E-01 4.63772E-26
1.03323E-01 4.38895E-26
1.05995E-01 4.15641E-26
1.08696E-01 3.93886E-26
1.11427E-01 3.73515E-26
1.14188E-01 3.54424E-26
1.16978E-01 3.36520E-26
1.19797E-01 3.19714E-26
1.22645E-01 3.03928E-26
1.25522E-01 2.89088E-26
1.28428E-01 2.75128E-26
1.31361E-01 2.61986E-26
1.34323E-01 2.49605E-26
1.37313E-01 2.37934E-26
1.40330E-01 2.26925E-26
1.43375E-01 2.16533E-26
1.46447E-01 2.06717E-26
1.49545E-01 1.97441E-26
1.52671E-01 1.88668E-26
1.55823E-01 1.80367E-26
1.59001E-01 1.72508E-26
1.62205E-01 1.65063E-26
1.65435E-01 1.58006E-26
1.68690E-01 1.51314E-26
1.71970E-01 1.44964E-26
1.75276E-01 1.38935E-26
1.78606E-01 1.33210E-26
1.81961E-01 1.27768E-26
1.85340E-01 1.22595E-26
1.88743E-01 1.17674E-26
1.92169E-01 1.12991E-26
1.95619E-01 1.08532E-26
1.99092E-01 1.04285E-26
2.02589E-01 1.00237E-26
2.06107E-01 9.63785E-27
2.09649E-01 9.26982E-27
2.13212E-01 8.91865E-27
2.16797E-01 8.58345E-27
2.20404E-01 8.26334E-27
2.24032E-01 7.95754E-27
2.27680E-01 7.66528E-27
2.31350E-01 7.38587E-27
2.35040E-01 7.11863E-27
2.38751E-01 6.86295E-27
2.42481E-01 6.61824E-27
2.46231E-01 6.38393E-27
2.50000E-01 6.15952E-27
2.53788E-01 5.94451E-27
2.57595E-01 5.73844E-27
2.61421E-01 5.54086E-27
2.65264E-01 5.35137E-27
2.69126E-01 5.16959E-27
2.73005E-01 4.99513E-27
2.76901E-01 4.82765E-27
2.80814E-01 4.66683E-27
2.84744E-01 4.51236E-27
2.88691E-01 4.36393E-27
2.92653E-01 4.22128E-27
2.96632E-01 4.08413E-27
3.00625E-01 3.95225E-27
3.04634E-01 3.82538E-27
3.08658E-01 3.70331E-27
3.12697E-01 3.58583E-27
3.16749E-01 3.47273E-27
3.20816E-01 3.36382E-27
3.24896E-01 3.25892E-27
3.28990E-01 3.15785E-27
3.33097E-01 3.06045E-27
3.37216E-01 2.96657E-27
3.41348E-01 2.87606E-27
3.45492E-01 2.78877E-27
3.49647E-01 2.70456E-27
3.53814E-01 2.62332E-27
3.57992E-01 2.54493E-27
3.62181E-01 2.46925E-27
3.66381E-01 2.39619E-27
3.70590E-01 2.32563E-27
3.74810E-01 2.25748E-27
3.79039E-01 2.19164E-27
3.83277E-01 2.12802E-27
3.87524E-01 2.06653E-27
3.91780E-01 2.00709E-27
3.96044E-01 1.94962E-27
4.00316E-01 1.89404E-27
4.04596E-01 1.84028E-27
4.08882E-01 1.78827E-27
4.13176E-01 1.73794E-27
4.17476E-01 1.68923E-27
4.21783E-01 1.64208E-27
4.26095E-01 1.59643E-27
4.30413E-01 1.55223E-27
4.34737E-01 1.50941E-27
4.39065E-01 1.46794E-27
4.43398E-01 1.42776E-27
4.47736E-01 1.38882E-27
4.52077E-01 1.35109E-27
4.56422E-01 1.31451E-27
4.60770E-01 1.27905E-27
4.65122E-01 1.24466E-27
4.69476E-01 1.21131E-27
4.73832E-01 1.17896E-27
4.78190E-01 1.14758E-27
4.82550E-01 1.11713E-27
4.86912E-01 1.08758E-27
4.91274E-01 1.05890E-27
4.95637E-01 1.03106E-27
5.00000E-01 1.00404E-27
5.04363E-01 9.77796E-28
5.08726E-01 9.52311E-28
5.13088E-01 9.27559E-28
5.17450E-01 9.03515E-28
5.21810E-01 8.80155E-28
5.26168E-01 8.57458E-28
5.30524E-01 8.35400E-28
5.34878E-01 8.13962E-28
5.39230E-01 7.93124E-28
5.43578E-01 7.72865E-28
5.47923E-01 7.53167E-28
5.52264E-01 7.34013E-28
5.56602E-01 7.15385E-28
5.60935E-01 6.97266E-28
5.65263E-01 6.79640E-28
5.69587E-01 6.62493E-28
5.73905E-01 6.45808E-28
5.78217E-01 6.29572E-28
5.82524E-01 6.13770E-28
5.86824E-01 5.98390E-28
5.91118E-01 5.83418E-28
5.95404E-01 5.68842E-28
5.99684E-01 5.54649E-28
6.03956E-01 5.40830E-28
6.08220E-01 5.27371E-28
6.12476E-01 5.14263E-28
6.16723E-01 5.01494E-28
6.20961E-01 4.89055E-28
6.25190E-01 4.76937E-28
6.29410E-01 4.65129E-28
6.33619E-01 4.53622E-28
6.37819E-01 4.42408E-28
6.42008E-01 4.31479E-28
6.46186E-01 4.20826E-28
6.50353E-01 4.10440E-28
6.54508E-01 4.00316E-28
6.58652E-01 3.90444E-28
6.62784E-01 3.80818E-28
6.66903E-01 3.71431E-28
6.71010E-01 3.62276E-28
6.75104E-01 3.53347E-28
6.79184E-01 3.44637E-28
6.83251E-01 3.36141E-28
6.87303E-01 3.27852E-28
6.91342E-01 3.19765E-28
6.95366E-01 3.11874E-28
6.99375E-01 3.04174E-28
7.03368E-01 2.96659E-28
7.07347E-01 2.89325E-28
7.11309E-01 2.82167E-28
7.15256E-01 2.75180E-28
7.19186E-01 2.68359E-28
7.23099E-01 2.61701E-28
7.26995E-01 2.55200E-28
7.30874E-01 2.48853E-28
7.34736E-01 2.42656E-28
7.38579E-01 2.36604E-28
7.42405E-01 2.30694E-28
7.46212E-01 2.24922E-28
7.50000E-01 2.19285E-28
7.53769E-01 2.13779E-28
7.57519E-01 2.08400E-28
7.61249E-01 2.03147E-28
7.64960E-01 1.98015E-28
7.68650E-01 1.93001E-28
7.72320E-01 1.88102E-28
7.75968E-01 1.83316E-28
7.79596E-01 1.78640E-28
7.83203E-01 1.74070E-28
7.86788E-01 1.69605E-28
7.90351E-01 1.65242E-28
7.93893E-01 1.60978E-28
7.97411E-01 1.56810E-28
8.00908E-01 1.52738E-28
8.04381E-01 1.48757E-28
8.07831E-01 1.44866E-28
8.11257E-01 1.41063E-28
8.14660E-01 1.37346E-28
8.18039E-01 1.33713E-28
8.21394E-01 1.30161E-28
8.24724E-01 1.26689E-28
8.28030E-01 1.23295E-28
8.31310E-01 1.19977E-28
8.34565E-01 1.16733E-28
8.37795E-01 1.13563E-28
8.40999E-01 1.10462E-28
8.44177E-01 1.07432E-28
8.47329E-01 1.04469E-28
8.50455E-01 1.01572E-28
8.53553E-01 9.87403E-29
8.56625E-01 9.59717E-29
8.59670E-01 9.32649E-29
8.62687E-01 9.06187E-29
8.65677E-01 8.80316E-29
8.68639E-01 8.55025E-29
8.71572E-01 8.30299E-29
8.74478E-01 8.06128E-29
8.77355E-01 7.82498E-29
8.80203E-01 7.59399E-29
8.83022E-01 7.36819E-29
8.85812E-01 7.14748E-29
8.88573E-01 6.93173E-29
8.91304E-01 6.72086E-29
8.94005E-01 6.51476E-29
8.96677E-01 6.31333E-29
8.99318E-01 6.11648E-29
9.01928E-01 5.92411E-29
9.04508E-01 5.73613E-29
9.07058E-01 5.55246E-29
9.09576E-01 5.37300E-29
9.12063E-01 5.19768E-29
9.14519E-01 5.02641E-29
9.16943E-01 4.85912E-29
9.19335E-01 4.69573E-29
9.21696E-01 4.53616E-29
9.24024E-01 4.38034E-29
9.26320E-01 4.22820E-29
9.28584E-01 4.07968E-29
9.30815E-01 3.93470E-29
9.33013E-01 3.79320E-29
9.35178E-01 3.65511E-29
9.37310E-01 3.52038E-29
9.39409E-01 3.38895E-29
9.41474E-01 3.26076E-29
9.43505E-01 3.13576E-29
9.45503E-01 3.01386E-29
9.47467E-01 2.89505E-29
9.49397E-01 2.77927E-29
9.51293E-01 2.66645E-29
9.53154E-01 2.55656E-29
9.54981E-01 2.44954E-29
9.56773E-01 2.34535E-29
9.58530E-01 2.24395E-29
9.60252E-01 2.14528E-29
9.61940E-01 2.04932E-29
9.63592E-01 1.95602E-29
9.65209E-01 1.86534E-29
9.66790E-01 1.77724E-29
9.68336E-01 1.69168E-29
9.69846E-01 1.60863E-29
9.71321E-01 1.52806E-29
9.72759E-01 1.44993E-29
9.74162E-01 1.37420E-29
9.75528E-01 1.30084E-29
9.76858E-01 1.22984E-29
9.78152E-01 1.16115E-29
9.79410E-01 1.09475E-29
9.80631E-01 1.03061E-29
9.81815E-01 9.68705E-30
9.82963E-01 9.09007E-30
9.84074E-01 8.51494E-30
9.85148E-01 7.96143E-30
9.86185E-01 7.42932E-30
9.87185E-01 6.91834E-30
9.88148E-01 6.42834E-30
9.89074E-01 5.95911E-30
9.89962E-01 5.51045E-30
9.90814E-01 5.08219E-30
9.91627E-01 4.67412E-30
9.92404E-01 4.28613E-30
9.93143E-01 3.91803E-30
9.93844E-01 3.56968E-30
9.94508E-01 3.24096E-30
9.95134E-01 2.93167E-30
9.95722E-01 2.64180E-30
9.96273E-01 2.37113E-30
9.96786E-01 2.11962E-30
9.97261E-01 1.88710E-30
9.97698E-01 1.67354E-30
9.98097E-01 1.47883E-30
9.98459E-01 1.30289E-30
9.98782E-01 1.14567E-30
9.99067E-01 1.00709E-30
9.99315E-01 8.87112E-31
9.99524E-01 7.85657E-31
9.99695E-01 7.02714E-31
9.99829E-01 6.38203E-31
9.99924E-01 5.92179E-31
9.99981E-01 5.64552E-31
1.00000E+00 5.55385E-31
