 #
 # Subroutine ELSEPA. Elastic scattering of electrons and positrons
 #                    by neutral atoms and positive ions
 #
 # Projectile: positron
 # Kinetic energy = 6.00000E+07 eV = 2.20496E+06 a.u.
 #
 # WARNING: High-energy factorization with free-atom DF screening.
 #          Absorption, polarization and exchange corrections are
 #          switched off.
 #          Phase shifts are calculated for the bare nucleus.
 #          Scattering amplitudes are not evaluated.
 #
 # Element:  B,  Z =   5,  atomic weight = 1.08110E+01 g/mol
 #
 # Nuclear model: Fermi distribution
 #                Average radius = 2.36595E-13 cm
 #                Skin thickness = 5.46000E-14 cm
 #
 # Number of electrons =  5
 #
 # Total elastic cross section = 2.14368E-19 cm**2 = 7.65522E-03 a0**2
 # 1st transport cross section = 1.49377E-26 cm**2 = 5.33436E-10 a0**2
 # 2nd transport cross section = 4.38310E-26 cm**2 = 1.56523E-09 a0**2
 #
 #
 # Differential cross section:                       MU=(1-COS(THETA))/2
 #
 #  THETA        MU          DCS          DCS        Sherman      error
 #  (deg)                 (cm**2/sr)   (a0**2/sr)    function
 #----------------------------------------------------------------------
0.00000E+00 1.09506E-11
7.61557E-13 1.09412E-11
1.18994E-12 1.09359E-11
1.71346E-12 1.09294E-11
2.33225E-12 1.09218E-11
3.04617E-12 1.09130E-11
3.85530E-12 1.09031E-11
4.75964E-12 1.08920E-11
5.75917E-12 1.08798E-11
6.85391E-12 1.08664E-11
8.04379E-12 1.08519E-11
9.32893E-12 1.08363E-11
1.07092E-11 1.08195E-11
1.21847E-11 1.08016E-11
1.37554E-11 1.07826E-11
1.54213E-11 1.07626E-11
1.71823E-11 1.07414E-11
1.90386E-11 1.07191E-11
2.09900E-11 1.06958E-11
2.30367E-11 1.06714E-11
2.51785E-11 1.06460E-11
2.74156E-11 1.06195E-11
2.97478E-11 1.05920E-11
3.21752E-11 1.05635E-11
3.46979E-11 1.05339E-11
3.73157E-11 1.05034E-11
4.00286E-11 1.04719E-11
4.28368E-11 1.04394E-11
4.57402E-11 1.04060E-11
4.87388E-11 1.03716E-11
5.18325E-11 1.03364E-11
5.50215E-11 1.03001E-11
5.83057E-11 1.02631E-11
6.16850E-11 1.02251E-11
6.51595E-11 1.01862E-11
6.87293E-11 1.01466E-11
7.23943E-11 1.01060E-11
7.61544E-11 1.00647E-11
1.18991E-10 9.60973E-12
1.71347E-10 9.09159E-12
2.33223E-10 8.52806E-12
3.04617E-10 7.93642E-12
3.85531E-10 7.33235E-12
4.75965E-10 6.71336E-12
5.75917E-10 6.12368E-12
6.85389E-10 5.56922E-12
8.04380E-10 5.02309E-12
9.32891E-10 4.53645E-12
1.07092E-09 4.06191E-12
1.21847E-09 3.64056E-12
1.37554E-09 3.25264E-12
1.54213E-09 2.90018E-12
1.71823E-09 2.58884E-12
1.90386E-09 2.30162E-12
2.09900E-09 2.05230E-12
2.30367E-09 1.82477E-12
2.51785E-09 1.62550E-12
2.74156E-09 1.44847E-12
2.97478E-09 1.29100E-12
3.21752E-09 1.15320E-12
3.46978E-09 1.02963E-12
3.73156E-09 9.21703E-13
4.00286E-09 8.25528E-13
4.28368E-09 7.40823E-13
4.57402E-09 6.65927E-13
4.87388E-09 5.99460E-13
5.18326E-09 5.40781E-13
5.50215E-09 4.88526E-13
5.83057E-09 4.42238E-13
6.16850E-09 4.01046E-13
6.51596E-09 3.64371E-13
6.87293E-09 3.31681E-13
7.23942E-09 3.02485E-13
7.61544E-09 2.76352E-13
1.18991E-08 1.23345E-13
1.71347E-08 6.41139E-14
2.33223E-08 3.71979E-14
3.04617E-08 2.34212E-14
3.85531E-08 1.56136E-14
4.75965E-08 1.08620E-14
5.75917E-08 7.81502E-15
6.85389E-08 5.77203E-15
8.04380E-08 4.35531E-15
9.32891E-08 3.34565E-15
1.07092E-07 2.61046E-15
1.21847E-07 2.06408E-15
1.37554E-07 1.65188E-15
1.54213E-07 1.33634E-15
1.71823E-07 1.09182E-15
1.90386E-07 9.00102E-16
2.09900E-07 7.48168E-16
2.30367E-07 6.26640E-16
2.51785E-07 5.28535E-16
2.74156E-07 4.48711E-16
2.97478E-07 3.83250E-16
3.21752E-07 3.29199E-16
3.46978E-07 2.84263E-16
3.73156E-07 2.46681E-16
4.00286E-07 2.15060E-16
4.28368E-07 1.88312E-16
4.57402E-07 1.65571E-16
4.87388E-07 1.46135E-16
5.18325E-07 1.29457E-16
5.50215E-07 1.15076E-16
5.83057E-07 1.02630E-16
6.16850E-07 9.18132E-17
6.51596E-07 8.23790E-17
6.87293E-07 7.41215E-17
7.23942E-07 6.68691E-17
7.61543E-07 6.04796E-17
1.18991E-06 2.48959E-17
1.71347E-06 1.20299E-17
2.33223E-06 6.49923E-18
3.04617E-06 3.81142E-18
3.85531E-06 2.37984E-18
4.75964E-06 1.56152E-18
5.75916E-06 1.06659E-18
6.85388E-06 7.53103E-19
8.04378E-06 5.46781E-19
9.32888E-06 4.06516E-19
1.07092E-05 3.08479E-19
1.21846E-05 2.38292E-19
1.37553E-05 1.86979E-19
1.54212E-05 1.48763E-19
1.71822E-05 1.19830E-19
1.90385E-05 9.77344E-20
2.09899E-05 8.03896E-20
2.30365E-05 6.66990E-20
2.51783E-05 5.57939E-20
2.74153E-05 4.70347E-20
2.97475E-05 3.99406E-20
3.21749E-05 3.41461E-20
3.46974E-05 2.93721E-20
3.73152E-05 2.54057E-20
4.00281E-05 2.20846E-20
4.28362E-05 1.92851E-20
4.57395E-05 1.69119E-20
4.87380E-05 1.48908E-20
5.18317E-05 1.31623E-20
5.50205E-05 1.16785E-20
5.83045E-05 1.03994E-20
6.16838E-05 9.29195E-21
6.51582E-05 8.32880E-21
6.87277E-05 7.48730E-21
7.23925E-05 6.74898E-21
7.61524E-05 6.09844E-21
9.21439E-05 4.16304E-21
1.09658E-04 2.93993E-21
1.28695E-04 2.13392E-21
1.49255E-04 1.58630E-21
1.71338E-04 1.20372E-21
1.94942E-04 9.29597E-22
2.20070E-04 7.29433E-22
2.46720E-04 5.80219E-22
2.74892E-04 4.67341E-22
3.04586E-04 3.80604E-22
3.35803E-04 3.13069E-22
3.68542E-04 2.59894E-22
4.02802E-04 2.17516E-22
4.38585E-04 1.83450E-22
4.75889E-04 1.55788E-22
5.14715E-04 1.33149E-22
5.55063E-04 1.14479E-22
5.96931E-04 9.89627E-23
6.40321E-04 8.59932E-23
6.85233E-04 7.50752E-23
7.31665E-04 6.58379E-23
7.79618E-04 5.79774E-23
8.29092E-04 5.12544E-23
8.80086E-04 4.54793E-23
9.32601E-04 4.04931E-23
9.86636E-04 3.61729E-23
1.04219E-03 3.24126E-23
1.09927E-03 2.91284E-23
1.15786E-03 2.62499E-23
1.21797E-03 2.37175E-23
1.27961E-03 2.14837E-23
1.34276E-03 1.95061E-23
1.40743E-03 1.77510E-23
1.47362E-03 1.61887E-23
1.54133E-03 1.47944E-23
1.61056E-03 1.35470E-23
1.68131E-03 1.24281E-23
1.75357E-03 1.14224E-23
1.82735E-03 1.05162E-23
1.90265E-03 9.69808E-24
1.97947E-03 8.95795E-24
2.05780E-03 8.28693E-24
2.13765E-03 7.67762E-24
2.21902E-03 7.12315E-24
2.30190E-03 6.61784E-24
2.38630E-03 6.15649E-24
2.47222E-03 5.73458E-24
2.55965E-03 5.34820E-24
2.64859E-03 4.99373E-24
2.73905E-03 4.66815E-24
2.83103E-03 4.36861E-24
2.92452E-03 4.09270E-24
3.01952E-03 3.83820E-24
3.11604E-03 3.60314E-24
3.21407E-03 3.38579E-24
3.31362E-03 3.18454E-24
3.41468E-03 2.99802E-24
3.51725E-03 2.82493E-24
3.62133E-03 2.66412E-24
3.72692E-03 2.51459E-24
3.83403E-03 2.37537E-24
3.94265E-03 2.24565E-24
4.05278E-03 2.12464E-24
4.16442E-03 2.01166E-24
4.27757E-03 1.90608E-24
4.39223E-03 1.80732E-24
4.50840E-03 1.71487E-24
4.62608E-03 1.62823E-24
4.74527E-03 1.54699E-24
4.86597E-03 1.47074E-24
4.98817E-03 1.39912E-24
5.11188E-03 1.33180E-24
5.23711E-03 1.26847E-24
5.36383E-03 1.20885E-24
5.49207E-03 1.15269E-24
5.62181E-03 1.09974E-24
5.75306E-03 1.04979E-24
5.88581E-03 1.00263E-24
6.02007E-03 9.58092E-25
6.15583E-03 9.15988E-25
6.29310E-03 8.76167E-25
6.43187E-03 8.38480E-25
6.57214E-03 8.02792E-25
6.71392E-03 7.68978E-25
6.85720E-03 7.36919E-25
7.00198E-03 7.06511E-25
7.14827E-03 6.77648E-25
7.29605E-03 6.50241E-25
7.44534E-03 6.24201E-25
7.59612E-03 5.99447E-25
7.97965E-03 5.42708E-25
8.37255E-03 4.92506E-25
8.77480E-03 4.47958E-25
9.18641E-03 4.08317E-25
9.60736E-03 3.72951E-25
1.00376E-02 3.41318E-25
1.04773E-02 3.12956E-25
1.09262E-02 2.87467E-25
1.13844E-02 2.64511E-25
1.18520E-02 2.43791E-25
1.23288E-02 2.25052E-25
1.28150E-02 2.08071E-25
1.33104E-02 1.92654E-25
1.38150E-02 1.78631E-25
1.43290E-02 1.65855E-25
1.48521E-02 1.54195E-25
1.53845E-02 1.43536E-25
1.59262E-02 1.33777E-25
1.64770E-02 1.24828E-25
1.70371E-02 1.16611E-25
1.76063E-02 1.09055E-25
1.81848E-02 1.02097E-25
1.87724E-02 9.56814E-26
1.93692E-02 8.97584E-26
1.99751E-02 8.42835E-26
2.05901E-02 7.92167E-26
2.12143E-02 7.45221E-26
2.18476E-02 7.01675E-26
2.24900E-02 6.61238E-26
2.31415E-02 6.23649E-26
2.38021E-02 5.88670E-26
2.44717E-02 5.56089E-26
2.51504E-02 5.25711E-26
2.58382E-02 4.97360E-26
2.65349E-02 4.70877E-26
2.72407E-02 4.46117E-26
2.79555E-02 4.22947E-26
2.86793E-02 4.01247E-26
2.94120E-02 3.80906E-26
3.01537E-02 3.61825E-26
3.09043E-02 3.43910E-26
3.16639E-02 3.27079E-26
3.24324E-02 3.11253E-26
3.32098E-02 2.96362E-26
3.39961E-02 2.82340E-26
3.47912E-02 2.69128E-26
3.55952E-02 2.56670E-26
3.64081E-02 2.44916E-26
3.72297E-02 2.33818E-26
3.80602E-02 2.23333E-26
3.88995E-02 2.13422E-26
3.97476E-02 2.04047E-26
4.06044E-02 1.95174E-26
4.14700E-02 1.86771E-26
4.23443E-02 1.78809E-26
4.32273E-02 1.71260E-26
4.41190E-02 1.64100E-26
4.50194E-02 1.57304E-26
4.59284E-02 1.50851E-26
4.68461E-02 1.44720E-26
4.87074E-02 1.33350E-26
5.06030E-02 1.23058E-26
5.25328E-02 1.13723E-26
5.44967E-02 1.05242E-26
5.64946E-02 9.75226E-27
5.85262E-02 9.04854E-27
6.05914E-02 8.40596E-27
6.26901E-02 7.81831E-27
6.48222E-02 7.28009E-27
6.69873E-02 6.78643E-27
6.91854E-02 6.33301E-27
7.14163E-02 5.91600E-27
7.36799E-02 5.53197E-27
7.59760E-02 5.17786E-27
7.83043E-02 4.85096E-27
8.06647E-02 4.54881E-27
8.30571E-02 4.26923E-27
8.54812E-02 4.01023E-27
8.79369E-02 3.77005E-27
9.04240E-02 3.54708E-27
9.29422E-02 3.33989E-27
9.54915E-02 3.14717E-27
9.80716E-02 2.96773E-27
1.00682E-01 2.80052E-27
1.03323E-01 2.64454E-27
1.05995E-01 2.49893E-27
1.08696E-01 2.36287E-27
1.11427E-01 2.23564E-27
1.14188E-01 2.11656E-27
1.16978E-01 2.00502E-27
1.19797E-01 1.90048E-27
1.22645E-01 1.80241E-27
1.25522E-01 1.71035E-27
1.28428E-01 1.62386E-27
1.31361E-01 1.54256E-27
1.34323E-01 1.46609E-27
1.37313E-01 1.39410E-27
1.40330E-01 1.32629E-27
1.43375E-01 1.26238E-27
1.46447E-01 1.20211E-27
1.49545E-01 1.14524E-27
1.52671E-01 1.09154E-27
1.55823E-01 1.04081E-27
1.59001E-01 9.92855E-28
1.62205E-01 9.47500E-28
1.65435E-01 9.04581E-28
1.68690E-01 8.63947E-28
1.71970E-01 8.25456E-28
1.75276E-01 7.88977E-28
1.78606E-01 7.54388E-28
1.81961E-01 7.21574E-28
1.85340E-01 6.90431E-28
1.88743E-01 6.60860E-28
1.92169E-01 6.32769E-28
1.95619E-01 6.06072E-28
1.99092E-01 5.80689E-28
2.02589E-01 5.56545E-28
2.06107E-01 5.33570E-28
2.09649E-01 5.11698E-28
2.13212E-01 4.90869E-28
2.16797E-01 4.71025E-28
2.20404E-01 4.52112E-28
2.24032E-01 4.34079E-28
2.27680E-01 4.16880E-28
2.31350E-01 4.00470E-28
2.35040E-01 3.84807E-28
2.38751E-01 3.69852E-28
2.42481E-01 3.55568E-28
2.46231E-01 3.41921E-28
2.50000E-01 3.28877E-28
2.53788E-01 3.16406E-28
2.57595E-01 3.04480E-28
2.61421E-01 2.93070E-28
2.65264E-01 2.82151E-28
2.69126E-01 2.71699E-28
2.73005E-01 2.61691E-28
2.76901E-01 2.52105E-28
2.80814E-01 2.42921E-28
2.84744E-01 2.34120E-28
2.88691E-01 2.25683E-28
2.92653E-01 2.17593E-28
2.96632E-01 2.09833E-28
3.00625E-01 2.02389E-28
3.04634E-01 1.95245E-28
3.08658E-01 1.88388E-28
3.12697E-01 1.81805E-28
3.16749E-01 1.75482E-28
3.20816E-01 1.69409E-28
3.24896E-01 1.63574E-28
3.28990E-01 1.57967E-28
3.33097E-01 1.52576E-28
3.37216E-01 1.47394E-28
3.41348E-01 1.42410E-28
3.45492E-01 1.37616E-28
3.49647E-01 1.33004E-28
3.53814E-01 1.28566E-28
3.57992E-01 1.24294E-28
3.62181E-01 1.20181E-28
3.66381E-01 1.16222E-28
3.70590E-01 1.12408E-28
3.74810E-01 1.08734E-28
3.79039E-01 1.05195E-28
3.83277E-01 1.01785E-28
3.87524E-01 9.84975E-29
3.91780E-01 9.53287E-29
3.96044E-01 9.22734E-29
4.00316E-01 8.93271E-29
4.04596E-01 8.64854E-29
4.08882E-01 8.37440E-29
4.13176E-01 8.10990E-29
4.17476E-01 7.85465E-29
4.21783E-01 7.60830E-29
4.26095E-01 7.37048E-29
4.30413E-01 7.14088E-29
4.34737E-01 6.91916E-29
4.39065E-01 6.70503E-29
4.43398E-01 6.49819E-29
4.47736E-01 6.29837E-29
4.52077E-01 6.10530E-29
4.56422E-01 5.91871E-29
4.60770E-01 5.73837E-29
4.65122E-01 5.56405E-29
4.69476E-01 5.39551E-29
4.73832E-01 5.23255E-29
4.78190E-01 5.07495E-29
4.82550E-01 4.92253E-29
4.86912E-01 4.77508E-29
4.91274E-01 4.63243E-29
4.95637E-01 4.49441E-29
5.00000E-01 4.36084E-29
5.04363E-01 4.23156E-29
5.08726E-01 4.10643E-29
5.13088E-01 3.98530E-29
5.17450E-01 3.86801E-29
5.21810E-01 3.75445E-29
5.26168E-01 3.64446E-29
5.30524E-01 3.53794E-29
5.34878E-01 3.43475E-29
5.39230E-01 3.33479E-29
5.43578E-01 3.23794E-29
5.47923E-01 3.14409E-29
5.52264E-01 3.05314E-29
5.56602E-01 2.96499E-29
5.60935E-01 2.87955E-29
5.65263E-01 2.79672E-29
5.69587E-01 2.71642E-29
5.73905E-01 2.63856E-29
5.78217E-01 2.56305E-29
5.82524E-01 2.48982E-29
5.86824E-01 2.41880E-29
5.91118E-01 2.34991E-29
5.95404E-01 2.28307E-29
5.99684E-01 2.21823E-29
6.03956E-01 2.15532E-29
6.08220E-01 2.09427E-29
6.12476E-01 2.03502E-29
6.16723E-01 1.97752E-29
6.20961E-01 1.92170E-29
6.25190E-01 1.86752E-29
6.29410E-01 1.81492E-29
6.33619E-01 1.76385E-29
6.37819E-01 1.71426E-29
6.42008E-01 1.66611E-29
6.46186E-01 1.61934E-29
6.50353E-01 1.57392E-29
6.54508E-01 1.52981E-29
6.58652E-01 1.48696E-29
6.62784E-01 1.44533E-29
6.66903E-01 1.40488E-29
6.71010E-01 1.36558E-29
6.75104E-01 1.32740E-29
6.79184E-01 1.29029E-29
6.83251E-01 1.25423E-29
6.87303E-01 1.21918E-29
6.91342E-01 1.18512E-29
6.95366E-01 1.15200E-29
6.99375E-01 1.11981E-29
7.03368E-01 1.08852E-29
7.07347E-01 1.05809E-29
7.11309E-01 1.02851E-29
7.15256E-01 9.99746E-30
7.19186E-01 9.71773E-30
7.23099E-01 9.44570E-30
7.26995E-01 9.18112E-30
7.30874E-01 8.92379E-30
7.34736E-01 8.67350E-30
7.38579E-01 8.43002E-30
7.42405E-01 8.19317E-30
7.46212E-01 7.96275E-30
7.50000E-01 7.73858E-30
7.53769E-01 7.52046E-30
7.57519E-01 7.30823E-30
7.61249E-01 7.10172E-30
7.64960E-01 6.90076E-30
7.68650E-01 6.70519E-30
7.72320E-01 6.51486E-30
7.75968E-01 6.32962E-30
7.79596E-01 6.14932E-30
7.83203E-01 5.97383E-30
7.86788E-01 5.80301E-30
7.90351E-01 5.63671E-30
7.93893E-01 5.47483E-30
7.97411E-01 5.31724E-30
8.00908E-01 5.16381E-30
8.04381E-01 5.01444E-30
8.07831E-01 4.86900E-30
8.11257E-01 4.72739E-30
8.14660E-01 4.58950E-30
8.18039E-01 4.45524E-30
8.21394E-01 4.32449E-30
8.24724E-01 4.19717E-30
8.28030E-01 4.07318E-30
8.31310E-01 3.95243E-30
8.34565E-01 3.83484E-30
8.37795E-01 3.72032E-30
8.40999E-01 3.60878E-30
8.44177E-01 3.50015E-30
8.47329E-01 3.39434E-30
8.50455E-01 3.29129E-30
8.53553E-01 3.19092E-30
8.56625E-01 3.09315E-30
8.59670E-01 2.99793E-30
8.62687E-01 2.90518E-30
8.65677E-01 2.81484E-30
8.68639E-01 2.72685E-30
8.71572E-01 2.64113E-30
8.74478E-01 2.55765E-30
8.77355E-01 2.47633E-30
8.80203E-01 2.39713E-30
8.83022E-01 2.31998E-30
8.85812E-01 2.24484E-30
8.88573E-01 2.17165E-30
8.91304E-01 2.10037E-30
8.94005E-01 2.03095E-30
8.96677E-01 1.96334E-30
8.99318E-01 1.89749E-30
9.01928E-01 1.83336E-30
9.04508E-01 1.77092E-30
9.07058E-01 1.71011E-30
9.09576E-01 1.65090E-30
9.12063E-01 1.59325E-30
9.14519E-01 1.53711E-30
9.16943E-01 1.48247E-30
9.19335E-01 1.42927E-30
9.21696E-01 1.37748E-30
9.24024E-01 1.32708E-30
9.26320E-01 1.27802E-30
9.28584E-01 1.23028E-30
9.30815E-01 1.18383E-30
9.33013E-01 1.13863E-30
9.35178E-01 1.09465E-30
9.37310E-01 1.05188E-30
9.39409E-01 1.01028E-30
9.41474E-01 9.69824E-31
9.43505E-01 9.30489E-31
9.45503E-01 8.92246E-31
9.47467E-01 8.55076E-31
9.49397E-01 8.18955E-31
9.51293E-01 7.83858E-31
9.53154E-01 7.49767E-31
9.54981E-01 7.16655E-31
9.56773E-01 6.84505E-31
9.58530E-01 6.53297E-31
9.60252E-01 6.23011E-31
9.61940E-01 5.93631E-31
9.63592E-01 5.65134E-31
9.65209E-01 5.37507E-31
9.66790E-01 5.10731E-31
9.68336E-01 4.84789E-31
9.69846E-01 4.59667E-31
9.71321E-01 4.35349E-31
9.72759E-01 4.11820E-31
9.74162E-01 3.89065E-31
9.75528E-01 3.67071E-31
9.76858E-01 3.45826E-31
9.78152E-01 3.25315E-31
9.79410E-01 3.05526E-31
9.80631E-01 2.86449E-31
9.81815E-01 2.68071E-31
9.82963E-01 2.50380E-31
9.84074E-01 2.33367E-31
9.85148E-01 2.17022E-31
9.86185E-01 2.01336E-31
9.87185E-01 1.86296E-31
9.88148E-01 1.71897E-31
9.89074E-01 1.58129E-31
9.89962E-01 1.44983E-31
9.90814E-01 1.32453E-31
9.91627E-01 1.20529E-31
9.92404E-01 1.09206E-31
9.93143E-01 9.84772E-32
9.93844E-01 8.83355E-32
9.94508E-01 7.87763E-32
9.95134E-01 6.97909E-32
9.95722E-01 6.13787E-32
9.96273E-01 5.35303E-32
9.96786E-01 4.62443E-32
9.97261E-01 3.95135E-32
9.97698E-01 3.33363E-32
9.98097E-01 2.77080E-32
9.98459E-01 2.26255E-32
9.98782E-01 1.80862E-32
9.99067E-01 1.40873E-32
9.99315E-01 1.06264E-32
9.99524E-01 7.70150E-33
9.99695E-01 5.31061E-33
9.99829E-01 3.45191E-33
9.99924E-01 2.12551E-33
9.99981E-01 1.32984E-33
1.00000E+00 1.06512E-33
