 #
 # Subroutine ELSEPA. Elastic scattering of electrons and positrons
 #                    by neutral atoms and positive ions
 #
 # Projectile: positron
 # Kinetic energy = 5.00000E+08 eV = 1.83747E+07 a.u.
 #
 # WARNING: High-energy factorization with free-atom DF screening.
 #          Absorption, polarization and exchange corrections are
 #          switched off.
 #          Phase shifts are calculated for the bare nucleus.
 #          Scattering amplitudes are not evaluated.
 #
 # Element:  B,  Z =   5,  atomic weight = 1.08110E+01 g/mol
 #
 # Nuclear model: Fermi distribution
 #                Average radius = 2.36595E-13 cm
 #                Skin thickness = 5.46000E-14 cm
 #
 # Number of electrons =  5
 #
 # Total elastic cross section = 2.14158E-19 cm**2 = 7.64770E-03 a0**2
 # 1st transport cross section = 2.30576E-28 cm**2 = 8.23403E-12 a0**2
 # 2nd transport cross section = 6.91135E-28 cm**2 = 2.46809E-11 a0**2
 #
 #
 # Differential cross section:                       MU=(1-COS(THETA))/2
 #
 #  THETA        MU          DCS          DCS        Sherman      error
 #  (deg)                 (cm**2/sr)   (a0**2/sr)    function
 #----------------------------------------------------------------------
0.00000E+00 7.49196E-10
7.61557E-13 7.06963E-10
1.18994E-12 6.84651E-10
1.71346E-12 6.58701E-10
2.33225E-12 6.29748E-10
3.04617E-12 5.98505E-10
3.85530E-12 5.65628E-10
4.75964E-12 5.31787E-10
5.75917E-12 4.97561E-10
6.85391E-12 4.62423E-10
8.04379E-12 4.28592E-10
9.32893E-12 3.97167E-10
1.07092E-11 3.65292E-10
1.21847E-11 3.35491E-10
1.37554E-11 3.08434E-10
1.54213E-11 2.81337E-10
1.71823E-11 2.56873E-10
1.90386E-11 2.34705E-10
2.09900E-11 2.13206E-10
2.30367E-11 1.94035E-10
2.51785E-11 1.76596E-10
2.74156E-11 1.60203E-10
2.97478E-11 1.45623E-10
3.21752E-11 1.32319E-10
3.46979E-11 1.20081E-10
3.73157E-11 1.09192E-10
4.00286E-11 9.92386E-11
4.28368E-11 9.02064E-11
4.57402E-11 8.21526E-11
4.87388E-11 7.47857E-11
5.18325E-11 6.81496E-11
5.50215E-11 6.22125E-11
5.83057E-11 5.67841E-11
6.16850E-11 5.19061E-11
6.51595E-11 4.75209E-11
6.87293E-11 4.35231E-11
7.23943E-11 3.99231E-11
7.61544E-11 3.66705E-11
1.18991E-10 1.67753E-11
1.71347E-10 8.66784E-12
2.33223E-10 4.98066E-12
3.04617E-10 3.09972E-12
3.85531E-10 2.05447E-12
4.75965E-10 1.42822E-12
5.75917E-10 1.02887E-12
6.85389E-10 7.62328E-13
8.04380E-10 5.78368E-13
9.32891E-10 4.47139E-13
1.07092E-09 3.51278E-13
1.21847E-09 2.79730E-13
1.37554E-09 2.25349E-13
1.54213E-09 1.83422E-13
1.71823E-09 1.50706E-13
1.90386E-09 1.24903E-13
2.09900E-09 1.04331E-13
2.30367E-09 8.77727E-14
2.51785E-09 7.43341E-14
2.74156E-09 6.33406E-14
2.97478E-09 5.42784E-14
3.21752E-09 4.67565E-14
3.46978E-09 4.04776E-14
3.73156E-09 3.52081E-14
4.00286E-09 3.07603E-14
4.28368E-09 2.69861E-14
4.57402E-09 2.37680E-14
4.87388E-09 2.10117E-14
5.18326E-09 1.86396E-14
5.50215E-09 1.65902E-14
5.83057E-09 1.48123E-14
6.16850E-09 1.32647E-14
6.51596E-09 1.19128E-14
6.87293E-09 1.07277E-14
7.23942E-09 9.68554E-15
7.61544E-09 8.76627E-15
1.18991E-08 3.62432E-15
1.71347E-08 1.75461E-15
2.33223E-08 9.48818E-16
3.04617E-08 5.56699E-16
3.85531E-08 3.47725E-16
4.75965E-08 2.28213E-16
5.75917E-08 1.55889E-16
6.85389E-08 1.10076E-16
8.04380E-08 7.99227E-17
9.32891E-08 5.94225E-17
1.07092E-07 4.50935E-17
1.21847E-07 3.48347E-17
1.37554E-07 2.73342E-17
1.54213E-07 2.17480E-17
1.71823E-07 1.75187E-17
1.90386E-07 1.42693E-17
2.09900E-07 1.17395E-17
2.30367E-07 9.74633E-18
2.51785E-07 8.15875E-18
2.74156E-07 6.88165E-18
2.97478E-07 5.84494E-18
3.21752E-07 4.99630E-18
3.46978E-07 4.29624E-18
3.73156E-07 3.71461E-18
4.00286E-07 3.22815E-18
4.28368E-07 2.81879E-18
4.57402E-07 2.47230E-18
4.87388E-07 2.17745E-18
5.18325E-07 1.92528E-18
5.50215E-07 1.70857E-18
5.83057E-07 1.52152E-18
6.16850E-07 1.35938E-18
6.51596E-07 1.21827E-18
6.87293E-07 1.09500E-18
7.23942E-07 9.86940E-19
7.61543E-07 8.91885E-19
1.18991E-06 3.65312E-19
1.71347E-06 1.76170E-19
2.33223E-06 9.50901E-20
3.04617E-06 5.57389E-20
3.85531E-06 3.47967E-20
4.75964E-06 2.28296E-20
5.75916E-06 1.55926E-20
6.85388E-06 1.10091E-20
8.04378E-06 7.99272E-21
9.32888E-06 5.94218E-21
1.07092E-05 4.50902E-21
1.21846E-05 3.48303E-21
1.37553E-05 2.73295E-21
1.54212E-05 2.17434E-21
1.71822E-05 1.75143E-21
1.90385E-05 1.42848E-21
2.09899E-05 1.17496E-21
2.30365E-05 9.74847E-22
2.51783E-05 8.15453E-22
2.74153E-05 6.87426E-22
2.97475E-05 5.83740E-22
3.21749E-05 4.99050E-22
3.46974E-05 4.29277E-22
3.73152E-05 3.71307E-22
4.00281E-05 3.22769E-22
4.28362E-05 2.81853E-22
4.57395E-05 2.47168E-22
4.87380E-05 2.17628E-22
5.18317E-05 1.92366E-22
5.50205E-05 1.70679E-22
5.83045E-05 1.51985E-22
6.16838E-05 1.35800E-22
6.51582E-05 1.21724E-22
6.87277E-05 1.09425E-22
7.23925E-05 9.86349E-23
7.61524E-05 8.87159E-23
9.21439E-05 6.05012E-23
1.09658E-04 4.26799E-23
1.28695E-04 3.09425E-23
1.49255E-04 2.29728E-23
1.71338E-04 1.74086E-23
1.94942E-04 1.34246E-23
2.20070E-04 1.05177E-23
2.46720E-04 8.35242E-24
2.74892E-04 6.71583E-24
3.04586E-04 5.45938E-24
3.35803E-04 4.48202E-24
3.68542E-04 3.71324E-24
4.02802E-04 3.10118E-24
4.38585E-04 2.60973E-24
4.75889E-04 2.21110E-24
5.14715E-04 1.88526E-24
5.55063E-04 1.61687E-24
5.96931E-04 1.39410E-24
6.40321E-04 1.20815E-24
6.85233E-04 1.05183E-24
7.31665E-04 9.19768E-25
7.79618E-04 8.07554E-25
8.29092E-04 7.11726E-25
8.80086E-04 6.29541E-25
9.32601E-04 5.58699E-25
9.86636E-04 4.97423E-25
1.04219E-03 4.44182E-25
1.09927E-03 3.97766E-25
1.15786E-03 3.57158E-25
1.21797E-03 3.21501E-25
1.27961E-03 2.90110E-25
1.34276E-03 2.62375E-25
1.40743E-03 2.37812E-25
1.47362E-03 2.15993E-25
1.54133E-03 1.96562E-25
1.61056E-03 1.79218E-25
1.68131E-03 1.63695E-25
1.75357E-03 1.49775E-25
1.82735E-03 1.37263E-25
1.90265E-03 1.25994E-25
1.97947E-03 1.15825E-25
2.05780E-03 1.06629E-25
2.13765E-03 9.83001E-26
2.21902E-03 9.07412E-26
2.30190E-03 8.38713E-26
2.38630E-03 7.76164E-26
2.47222E-03 7.19124E-26
2.55965E-03 6.67040E-26
2.64859E-03 6.19397E-26
2.73905E-03 5.75769E-26
2.83103E-03 5.35754E-26
2.92452E-03 4.99009E-26
3.01952E-03 4.65225E-26
3.11604E-03 4.34121E-26
3.21407E-03 4.05457E-26
3.31362E-03 3.79005E-26
3.41468E-03 3.54572E-26
3.51725E-03 3.31977E-26
3.62133E-03 3.11061E-26
3.72692E-03 2.91681E-26
3.83403E-03 2.73704E-26
3.94265E-03 2.57015E-26
4.05278E-03 2.41506E-26
4.16442E-03 2.27082E-26
4.27757E-03 2.13656E-26
4.39223E-03 2.01146E-26
4.50840E-03 1.89482E-26
4.62608E-03 1.78598E-26
4.74527E-03 1.68434E-26
4.86597E-03 1.58934E-26
4.98817E-03 1.50050E-26
5.11188E-03 1.41735E-26
5.23711E-03 1.33948E-26
5.36383E-03 1.26650E-26
5.49207E-03 1.19806E-26
5.62181E-03 1.13384E-26
5.75306E-03 1.07354E-26
5.88581E-03 1.01688E-26
6.02007E-03 9.63624E-27
6.15583E-03 9.13527E-27
6.29310E-03 8.66380E-27
6.43187E-03 8.21985E-27
6.57214E-03 7.80158E-27
6.71392E-03 7.40733E-27
6.85720E-03 7.03548E-27
7.00198E-03 6.68465E-27
7.14827E-03 6.35345E-27
7.29605E-03 6.04065E-27
7.44534E-03 5.74510E-27
7.59612E-03 5.46570E-27
7.97965E-03 4.83158E-27
8.37255E-03 4.27865E-27
8.77480E-03 3.79533E-27
9.18641E-03 3.37187E-27
9.60736E-03 3.00007E-27
1.00376E-02 2.67294E-27
1.04773E-02 2.38455E-27
1.09262E-02 2.12986E-27
1.13844E-02 1.90454E-27
1.18520E-02 1.70487E-27
1.23288E-02 1.52766E-27
1.28150E-02 1.37015E-27
1.33104E-02 1.22996E-27
1.38150E-02 1.10502E-27
1.43290E-02 9.93532E-28
1.48521E-02 8.93936E-28
1.53845E-02 8.04863E-28
1.59262E-02 7.25118E-28
1.64770E-02 6.53654E-28
1.70371E-02 5.89551E-28
1.76063E-02 5.32001E-28
1.81848E-02 4.80291E-28
1.87724E-02 4.33792E-28
1.93692E-02 3.91949E-28
1.99751E-02 3.54269E-28
2.05901E-02 3.20316E-28
2.12143E-02 2.89703E-28
2.18476E-02 2.62086E-28
2.24900E-02 2.37158E-28
2.31415E-02 2.14646E-28
2.38021E-02 1.94307E-28
2.44717E-02 1.75923E-28
2.51504E-02 1.59300E-28
2.58382E-02 1.44263E-28
2.65349E-02 1.30656E-28
2.72407E-02 1.18341E-28
2.79555E-02 1.07190E-28
2.86793E-02 9.70914E-29
2.94120E-02 8.79440E-29
3.01537E-02 7.96562E-29
3.09043E-02 7.21461E-29
3.16639E-02 6.53396E-29
3.24324E-02 5.91700E-29
3.32098E-02 5.35771E-29
3.39961E-02 4.85066E-29
3.47912E-02 4.39094E-29
3.55952E-02 3.97412E-29
3.64081E-02 3.59619E-29
3.72297E-02 3.25352E-29
3.80602E-02 2.94283E-29
3.88995E-02 2.66115E-29
3.97476E-02 2.40579E-29
4.06044E-02 2.17430E-29
4.14700E-02 1.96447E-29
4.23443E-02 1.77431E-29
4.32273E-02 1.60200E-29
4.41190E-02 1.44588E-29
4.50194E-02 1.30446E-29
4.59284E-02 1.17638E-29
4.68461E-02 1.06042E-29
4.87074E-02 8.60436E-30
5.06030E-02 6.96744E-30
5.25328E-02 5.62926E-30
5.44967E-02 4.53687E-30
5.64946E-02 3.64658E-30
5.85262E-02 2.92230E-30
6.05914E-02 2.33428E-30
6.26901E-02 1.85794E-30
6.48222E-02 1.47303E-30
6.69873E-02 1.16284E-30
6.91854E-02 9.13625E-31
7.14163E-02 7.14058E-31
7.36799E-02 5.54838E-31
7.59760E-02 4.28327E-31
7.83043E-02 3.28261E-31
8.06647E-02 2.49515E-31
8.30571E-02 1.87900E-31
8.54812E-02 1.40001E-31
8.79369E-02 1.03038E-31
9.04240E-02 7.47567E-32
9.29422E-02 5.33318E-32
9.54915E-02 3.72906E-32
9.80716E-02 2.54487E-32
1.00682E-01 1.68579E-32
1.03323E-01 1.07616E-32
1.05995E-01 6.55945E-33
1.08696E-01 3.77766E-33
1.11427E-01 2.04454E-33
1.14188E-01 1.07074E-33
1.16978E-01 6.32829E-34
1.19797E-01 5.60078E-34
1.22645E-01 7.23569E-34
1.25522E-01 1.02740E-33
1.28428E-01 1.40159E-33
1.31361E-01 1.79631E-33
1.34323E-01 2.17725E-33
1.37313E-01 2.52203E-33
1.40330E-01 2.81711E-33
1.43375E-01 3.05561E-33
1.46447E-01 3.23538E-33
1.49545E-01 3.35769E-33
1.52671E-01 3.42604E-33
1.55823E-01 3.44542E-33
1.59001E-01 3.42151E-33
1.62205E-01 3.36046E-33
1.65435E-01 3.26836E-33
1.68690E-01 3.15108E-33
1.71970E-01 3.01412E-33
1.75276E-01 2.86247E-33
1.78606E-01 2.70064E-33
1.81961E-01 2.53252E-33
1.85340E-01 2.36153E-33
1.88743E-01 2.19051E-33
1.92169E-01 2.02183E-33
1.95619E-01 1.85741E-33
1.99092E-01 1.69878E-33
2.02589E-01 1.54710E-33
2.06107E-01 1.40320E-33
2.09649E-01 1.26767E-33
2.13212E-01 1.14084E-33
2.16797E-01 1.02287E-33
2.20404E-01 9.13735E-34
2.24032E-01 8.13296E-34
2.27680E-01 7.21318E-34
2.31350E-01 6.37469E-34
2.35040E-01 5.61375E-34
2.38751E-01 4.92599E-34
2.42481E-01 4.30700E-34
2.46231E-01 3.75211E-34
2.50000E-01 3.25658E-34
2.53788E-01 2.81582E-34
2.57595E-01 2.42522E-34
2.61421E-01 2.08041E-34
2.65264E-01 1.77720E-34
2.69126E-01 1.51157E-34
2.73005E-01 1.27977E-34
2.76901E-01 1.07832E-34
2.80814E-01 9.03938E-35
2.84744E-01 7.53628E-35
2.88691E-01 6.24656E-35
2.92653E-01 5.14479E-35
2.96632E-01 4.20830E-35
3.00625E-01 3.41644E-35
3.04634E-01 2.75069E-35
3.08658E-01 2.19421E-35
3.12697E-01 1.73214E-35
3.16749E-01 1.35141E-35
3.20816E-01 1.04013E-35
3.24896E-01 7.87986E-36
3.28990E-01 5.85990E-36
3.33097E-01 4.26118E-36
3.37216E-01 3.01549E-36
3.41348E-01 2.06238E-36
3.45492E-01 1.35045E-36
3.49647E-01 8.35028E-37
3.53814E-01 4.78663E-37
3.57992E-01 2.49030E-37
3.62181E-01 1.18932E-37
3.66381E-01 6.56271E-38
3.70590E-01 7.01067E-38
3.74810E-01 1.16770E-37
3.79039E-01 1.92745E-37
3.83277E-01 2.87566E-37
3.87524E-01 3.93045E-37
3.91780E-01 5.02454E-37
3.96044E-01 6.11032E-37
4.00316E-01 7.14770E-37
4.04596E-01 8.10756E-37
4.08882E-01 8.97504E-37
4.13176E-01 9.73220E-37
4.17476E-01 1.03770E-36
4.21783E-01 1.09058E-36
4.26095E-01 1.13176E-36
4.30413E-01 1.16193E-36
4.34737E-01 1.18143E-36
4.39065E-01 1.19135E-36
4.43398E-01 1.19210E-36
4.47736E-01 1.18462E-36
4.52077E-01 1.17011E-36
4.56422E-01 1.14909E-36
4.60770E-01 1.12262E-36
4.65122E-01 1.09146E-36
4.69476E-01 1.05662E-36
4.73832E-01 1.01835E-36
4.78190E-01 9.77965E-37
4.82550E-01 9.35618E-37
4.86912E-01 8.92207E-37
4.91274E-01 8.47958E-37
4.95637E-01 8.03628E-37
5.00000E-01 7.59319E-37
5.04363E-01 7.15409E-37
5.08726E-01 6.72310E-37
5.13088E-01 6.30240E-37
5.17450E-01 5.89392E-37
5.21810E-01 5.49793E-37
5.26168E-01 5.11742E-37
5.30524E-01 4.75218E-37
5.34878E-01 4.40481E-37
5.39230E-01 4.07346E-37
5.43578E-01 3.76071E-37
5.47923E-01 3.46315E-37
5.52264E-01 3.18341E-37
5.56602E-01 2.92078E-37
5.60935E-01 2.67549E-37
5.65263E-01 2.44464E-37
5.69587E-01 2.23124E-37
5.73905E-01 2.03125E-37
5.78217E-01 1.84673E-37
5.82524E-01 1.67601E-37
5.86824E-01 1.51740E-37
5.91118E-01 1.37148E-37
5.95404E-01 1.23808E-37
5.99684E-01 1.11515E-37
6.03956E-01 1.00259E-37
6.08220E-01 8.99915E-38
6.12476E-01 8.05913E-38
6.16723E-01 7.20454E-38
6.20961E-01 6.42763E-38
6.25190E-01 5.72310E-38
6.29410E-01 5.08729E-38
6.33619E-01 4.50977E-38
6.37819E-01 3.99024E-38
6.42008E-01 3.52084E-38
6.46186E-01 3.10211E-38
6.50353E-01 2.72538E-38
6.54508E-01 2.38862E-38
6.58652E-01 2.08529E-38
6.62784E-01 1.81470E-38
6.66903E-01 1.57875E-38
6.71010E-01 1.36711E-38
6.75104E-01 1.17760E-38
6.79184E-01 1.01176E-38
6.83251E-01 8.67911E-39
6.87303E-01 7.39695E-39
6.91342E-01 6.27869E-39
6.95366E-01 5.29462E-39
6.99375E-01 4.46389E-39
7.03368E-01 3.71714E-39
7.07347E-01 3.09576E-39
7.11309E-01 2.55313E-39
7.15256E-01 2.08542E-39
7.19186E-01 1.69689E-39
7.23099E-01 1.36289E-39
7.26995E-01 1.08065E-39
7.30874E-01 8.44034E-40
7.34736E-01 6.53640E-40
7.38579E-01 4.88989E-40
7.42405E-01 3.63699E-40
7.46212E-01 2.61109E-40
7.50000E-01 1.80754E-40
7.53769E-01 1.18569E-40
7.57519E-01 7.27459E-41
7.61249E-01 4.12001E-41
7.64960E-01 1.00000E-45
7.68650E-01 1.00000E-45
7.72320E-01 1.00000E-45
7.75968E-01 1.00000E-45
7.79596E-01 1.00000E-45
7.83203E-01 1.00000E-45
7.86788E-01 1.00000E-45
7.90351E-01 1.00000E-45
7.93893E-01 1.00000E-45
7.97411E-01 1.00000E-45
8.00908E-01 1.00000E-45
8.04381E-01 1.00000E-45
8.07831E-01 1.00000E-45
8.11257E-01 1.00000E-45
8.14660E-01 1.00000E-45
8.18039E-01 1.00000E-45
8.21394E-01 1.00000E-45
8.24724E-01 1.00000E-45
8.28030E-01 1.00000E-45
8.31310E-01 1.00000E-45
8.34565E-01 1.00000E-45
8.37795E-01 1.00000E-45
8.40999E-01 1.00000E-45
8.44177E-01 1.00000E-45
8.47329E-01 1.00000E-45
8.50455E-01 1.00000E-45
8.53553E-01 1.00000E-45
8.56625E-01 1.00000E-45
8.59670E-01 1.00000E-45
8.62687E-01 1.00000E-45
8.65677E-01 1.00000E-45
8.68639E-01 1.00000E-45
8.71572E-01 1.00000E-45
8.74478E-01 1.00000E-45
8.77355E-01 1.00000E-45
8.80203E-01 1.00000E-45
8.83022E-01 1.00000E-45
8.85812E-01 1.00000E-45
8.88573E-01 1.00000E-45
8.91304E-01 1.00000E-45
8.94005E-01 1.00000E-45
8.96677E-01 1.00000E-45
8.99318E-01 1.00000E-45
9.01928E-01 1.00000E-45
9.04508E-01 1.00000E-45
9.07058E-01 1.00000E-45
9.09576E-01 1.00000E-45
9.12063E-01 1.00000E-45
9.14519E-01 1.00000E-45
9.16943E-01 1.00000E-45
9.19335E-01 1.00000E-45
9.21696E-01 1.00000E-45
9.24024E-01 1.00000E-45
9.26320E-01 1.00000E-45
9.28584E-01 1.00000E-45
9.30815E-01 1.00000E-45
9.33013E-01 1.00000E-45
9.35178E-01 1.00000E-45
9.37310E-01 1.00000E-45
9.39409E-01 1.00000E-45
9.41474E-01 1.00000E-45
9.43505E-01 1.00000E-45
9.45503E-01 1.00000E-45
9.47467E-01 1.00000E-45
9.49397E-01 1.00000E-45
9.51293E-01 1.00000E-45
9.53154E-01 1.00000E-45
9.54981E-01 1.00000E-45
9.56773E-01 1.00000E-45
9.58530E-01 1.00000E-45
9.60252E-01 1.00000E-45
9.61940E-01 1.00000E-45
9.63592E-01 1.00000E-45
9.65209E-01 1.00000E-45
9.66790E-01 1.00000E-45
9.68336E-01 1.00000E-45
9.69846E-01 1.00000E-45
9.71321E-01 1.00000E-45
9.72759E-01 1.00000E-45
9.74162E-01 1.00000E-45
9.75528E-01 1.00000E-45
9.76858E-01 1.00000E-45
9.78152E-01 1.00000E-45
9.79410E-01 1.00000E-45
9.80631E-01 1.00000E-45
9.81815E-01 1.00000E-45
9.82963E-01 1.00000E-45
9.84074E-01 1.00000E-45
9.85148E-01 1.00000E-45
9.86185E-01 1.00000E-45
9.87185E-01 1.00000E-45
9.88148E-01 1.00000E-45
9.89074E-01 1.00000E-45
9.89962E-01 1.00000E-45
9.90814E-01 1.00000E-45
9.91627E-01 1.00000E-45
9.92404E-01 1.00000E-45
9.93143E-01 1.00000E-45
9.93844E-01 1.00000E-45
9.94508E-01 1.00000E-45
9.95134E-01 1.00000E-45
9.95722E-01 1.00000E-45
9.96273E-01 1.00000E-45
9.96786E-01 1.00000E-45
9.97261E-01 1.00000E-45
9.97698E-01 1.00000E-45
9.98097E-01 1.00000E-45
9.98459E-01 1.00000E-45
9.98782E-01 1.00000E-45
9.99067E-01 1.00000E-45
9.99315E-01 1.00000E-45
9.99524E-01 1.00000E-45
9.99695E-01 1.00000E-45
9.99829E-01 1.00000E-45
9.99924E-01 1.00000E-45
9.99981E-01 1.00000E-45
1.00000E+00 1.00000E-45
