 #
 # Subroutine ELSEPA. Elastic scattering of electrons and positrons
 #                    by neutral atoms and positive ions
 #
 # Projectile: positron
 # Kinetic energy = 4.00000E+06 eV = 1.46997E+05 a.u.
 #
 # WARNING: High-energy factorization with free-atom DF screening.
 #          Absorption, polarization and exchange corrections are
 #          switched off.
 #          Phase shifts are calculated for the bare nucleus.
 #          Scattering amplitudes are not evaluated.
 #
 # Element:  B,  Z =   5,  atomic weight = 1.08110E+01 g/mol
 #
 # Nuclear model: Fermi distribution
 #                Average radius = 2.36595E-13 cm
 #                Skin thickness = 5.46000E-14 cm
 #
 # Number of electrons =  5
 #
 # Total elastic cross section = 2.17082E-19 cm**2 = 7.75212E-03 a0**2
 # 1st transport cross section = 1.96512E-24 cm**2 = 7.01758E-08 a0**2
 # 2nd transport cross section = 5.65501E-24 cm**2 = 2.01944E-07 a0**2
 #
 #
 # Differential cross section:                       MU=(1-COS(THETA))/2
 #
 #  THETA        MU          DCS          DCS        Sherman      error
 #  (deg)                 (cm**2/sr)   (a0**2/sr)    function
 #----------------------------------------------------------------------
0.00000E+00 6.08575E-14
7.61557E-13 6.08571E-14
1.18994E-12 6.08570E-14
1.71346E-12 6.08568E-14
2.33225E-12 6.08565E-14
3.04617E-12 6.08563E-14
3.85530E-12 6.08559E-14
4.75964E-12 6.08556E-14
5.75917E-12 6.08552E-14
6.85391E-12 6.08548E-14
8.04379E-12 6.08544E-14
9.32893E-12 6.08539E-14
1.07092E-11 6.08533E-14
1.21847E-11 6.08528E-14
1.37554E-11 6.08522E-14
1.54213E-11 6.08515E-14
1.71823E-11 6.08509E-14
1.90386E-11 6.08502E-14
2.09900E-11 6.08494E-14
2.30367E-11 6.08487E-14
2.51785E-11 6.08479E-14
2.74156E-11 6.08470E-14
2.97478E-11 6.08461E-14
3.21752E-11 6.08452E-14
3.46979E-11 6.08443E-14
3.73157E-11 6.08433E-14
4.00286E-11 6.08422E-14
4.28368E-11 6.08412E-14
4.57402E-11 6.08401E-14
4.87388E-11 6.08389E-14
5.18325E-11 6.08378E-14
5.50215E-11 6.08366E-14
5.83057E-11 6.08353E-14
6.16850E-11 6.08341E-14
6.51595E-11 6.08327E-14
6.87293E-11 6.08314E-14
7.23943E-11 6.08300E-14
7.61544E-11 6.08286E-14
1.18991E-10 6.08125E-14
1.71347E-10 6.07927E-14
2.33223E-10 6.07695E-14
3.04617E-10 6.07426E-14
3.85531E-10 6.07123E-14
4.75965E-10 6.06783E-14
5.75917E-10 6.06409E-14
6.85389E-10 6.05999E-14
8.04380E-10 6.05554E-14
9.32891E-10 6.05074E-14
1.07092E-09 6.04559E-14
1.21847E-09 6.04010E-14
1.37554E-09 6.03425E-14
1.54213E-09 6.02806E-14
1.71823E-09 6.02153E-14
1.90386E-09 6.01465E-14
2.09900E-09 6.00743E-14
2.30367E-09 5.99989E-14
2.51785E-09 5.99199E-14
2.74156E-09 5.98376E-14
2.97478E-09 5.97521E-14
3.21752E-09 5.96632E-14
3.46978E-09 5.95709E-14
3.73156E-09 5.94755E-14
4.00286E-09 5.93768E-14
4.28368E-09 5.92748E-14
4.57402E-09 5.91697E-14
4.87388E-09 5.90615E-14
5.18326E-09 5.89499E-14
5.50215E-09 5.88354E-14
5.83057E-09 5.87179E-14
6.16850E-09 5.85969E-14
6.51596E-09 5.84732E-14
6.87293E-09 5.83466E-14
7.23942E-09 5.82166E-14
7.61544E-09 5.80839E-14
1.18991E-08 5.66012E-14
1.71347E-08 5.48599E-14
2.33223E-08 5.28963E-14
3.04617E-08 5.07494E-14
3.85531E-08 4.84600E-14
4.75965E-08 4.60677E-14
5.75917E-08 4.36104E-14
6.85389E-08 4.11234E-14
8.04380E-08 3.85932E-14
9.32891E-08 3.60629E-14
1.07092E-07 3.36858E-14
1.21847E-07 3.14299E-14
1.37554E-07 2.91115E-14
1.54213E-07 2.69788E-14
1.71823E-07 2.50236E-14
1.90386E-07 2.30426E-14
2.09900E-07 2.12355E-14
2.30367E-07 1.95960E-14
2.51785E-07 1.79994E-14
2.74156E-07 1.65302E-14
2.97478E-07 1.52044E-14
3.21752E-07 1.39520E-14
3.46978E-07 1.27916E-14
3.73156E-07 1.17466E-14
4.00286E-07 1.07804E-14
4.28368E-07 9.88162E-15
4.57402E-07 9.07223E-15
4.87388E-07 8.33379E-15
5.18325E-07 7.64603E-15
5.50215E-07 7.02575E-15
5.83057E-07 6.46384E-15
6.16850E-07 5.94095E-15
6.51596E-07 5.46821E-15
6.87293E-07 5.04025E-15
7.23942E-07 4.64422E-15
7.61543E-07 4.28447E-15
1.18991E-06 2.01792E-15
1.71347E-06 1.05101E-15
2.33223E-06 6.01115E-16
3.04617E-06 3.72425E-16
3.85531E-06 2.45279E-16
4.75964E-06 1.69782E-16
5.75916E-06 1.22169E-16
6.85388E-06 9.05477E-17
8.04378E-06 6.87291E-17
9.32888E-06 5.32886E-17
1.07092E-05 4.19434E-17
1.21846E-05 3.34882E-17
1.37553E-05 2.70710E-17
1.54212E-05 2.21198E-17
1.71822E-05 1.82432E-17
1.90385E-05 1.51826E-17
2.09899E-05 1.27166E-17
2.30365E-05 1.07237E-17
2.51783E-05 9.10201E-18
2.74153E-05 7.77074E-18
2.97475E-05 6.67168E-18
3.21749E-05 5.76024E-18
3.46974E-05 4.99866E-18
3.73152E-05 4.35765E-18
4.00281E-05 3.81413E-18
4.28362E-05 3.35098E-18
4.57395E-05 2.95490E-18
4.87380E-05 2.61481E-18
5.18317E-05 2.32175E-18
5.50205E-05 2.06804E-18
5.83045E-05 1.84808E-18
6.16838E-05 1.65656E-18
6.51582E-05 1.48914E-18
6.87277E-05 1.34218E-18
7.23925E-05 1.21262E-18
7.61524E-05 1.09813E-18
9.21439E-05 7.54744E-19
1.09658E-04 5.35480E-19
1.28695E-04 3.89965E-19
1.49255E-04 2.90583E-19
1.71338E-04 2.20884E-19
1.94942E-04 1.70809E-19
2.20070E-04 1.34162E-19
2.46720E-04 1.06802E-19
2.74892E-04 8.60760E-20
3.04586E-04 7.01345E-20
3.35803E-04 5.77127E-20
3.68542E-04 4.79251E-20
4.02802E-04 4.01213E-20
4.38585E-04 3.38453E-20
4.75889E-04 2.87473E-20
5.14715E-04 2.45739E-20
5.55063E-04 2.11312E-20
5.96931E-04 1.82695E-20
6.40321E-04 1.58765E-20
6.85233E-04 1.38618E-20
7.31665E-04 1.21571E-20
7.79618E-04 1.07064E-20
8.29092E-04 9.46558E-21
8.80086E-04 8.39961E-21
9.32601E-04 7.47922E-21
9.86636E-04 6.68170E-21
1.04219E-03 5.98753E-21
1.09927E-03 5.38120E-21
1.15786E-03 4.84974E-21
1.21797E-03 4.38218E-21
1.27961E-03 3.96970E-21
1.34276E-03 3.60453E-21
1.40743E-03 3.28044E-21
1.47362E-03 2.99193E-21
1.54133E-03 2.73442E-21
1.61056E-03 2.50405E-21
1.68131E-03 2.29739E-21
1.75357E-03 2.11164E-21
1.82735E-03 1.94425E-21
1.90265E-03 1.79312E-21
1.97947E-03 1.65640E-21
2.05780E-03 1.53244E-21
2.13765E-03 1.41987E-21
2.21902E-03 1.31743E-21
2.30190E-03 1.22407E-21
2.38630E-03 1.13883E-21
2.47222E-03 1.06087E-21
2.55965E-03 9.89468E-22
2.64859E-03 9.23964E-22
2.73905E-03 8.63795E-22
2.83103E-03 8.08438E-22
2.92452E-03 7.57443E-22
3.01952E-03 7.10405E-22
3.11604E-03 6.66956E-22
3.21407E-03 6.26780E-22
3.31362E-03 5.89578E-22
3.41468E-03 5.55096E-22
3.51725E-03 5.23096E-22
3.62133E-03 4.93366E-22
3.72692E-03 4.65719E-22
3.83403E-03 4.39977E-22
3.94265E-03 4.15990E-22
4.05278E-03 3.93613E-22
4.16442E-03 3.72720E-22
4.27757E-03 3.53194E-22
4.39223E-03 3.34927E-22
4.50840E-03 3.17827E-22
4.62608E-03 3.01802E-22
4.74527E-03 2.86774E-22
4.86597E-03 2.72669E-22
4.98817E-03 2.59419E-22
5.11188E-03 2.46964E-22
5.23711E-03 2.35246E-22
5.36383E-03 2.24215E-22
5.49207E-03 2.13822E-22
5.62181E-03 2.04024E-22
5.75306E-03 1.94780E-22
5.88581E-03 1.86052E-22
6.02007E-03 1.77808E-22
6.15583E-03 1.70015E-22
6.29310E-03 1.62644E-22
6.43187E-03 1.55667E-22
6.57214E-03 1.49060E-22
6.71392E-03 1.42799E-22
6.85720E-03 1.36863E-22
7.00198E-03 1.31232E-22
7.14827E-03 1.25888E-22
7.29605E-03 1.20812E-22
7.44534E-03 1.15989E-22
7.59612E-03 1.11404E-22
7.97965E-03 1.00894E-22
8.37255E-03 9.15926E-23
8.77480E-03 8.33375E-23
9.18641E-03 7.59904E-23
9.60736E-03 6.94343E-23
1.00376E-02 6.35691E-23
1.04773E-02 5.83094E-23
1.09262E-02 5.35817E-23
1.13844E-02 4.93227E-23
1.18520E-02 4.54779E-23
1.23288E-02 4.19999E-23
1.28150E-02 3.88474E-23
1.33104E-02 3.59847E-23
1.38150E-02 3.33804E-23
1.43290E-02 3.10070E-23
1.48521E-02 2.88404E-23
1.53845E-02 2.68594E-23
1.59262E-02 2.50452E-23
1.64770E-02 2.33812E-23
1.70371E-02 2.18529E-23
1.76063E-02 2.04471E-23
1.81848E-02 1.91523E-23
1.87724E-02 1.79581E-23
1.93692E-02 1.68554E-23
1.99751E-02 1.58357E-23
2.05901E-02 1.48918E-23
2.12143E-02 1.40170E-23
2.18476E-02 1.32053E-23
2.24900E-02 1.24514E-23
2.31415E-02 1.17503E-23
2.38021E-02 1.10977E-23
2.44717E-02 1.04897E-23
2.51504E-02 9.92262E-24
2.58382E-02 9.39322E-24
2.65349E-02 8.89853E-24
2.72407E-02 8.43588E-24
2.79555E-02 8.00279E-24
2.86793E-02 7.59705E-24
2.94120E-02 7.21660E-24
3.01537E-02 6.85958E-24
3.09043E-02 6.52429E-24
3.16639E-02 6.20915E-24
3.24324E-02 5.91273E-24
3.32098E-02 5.63372E-24
3.39961E-02 5.37091E-24
3.47912E-02 5.12318E-24
3.55952E-02 4.88950E-24
3.64081E-02 4.66894E-24
3.72297E-02 4.46062E-24
3.80602E-02 4.26373E-24
3.88995E-02 4.07754E-24
3.97476E-02 3.90135E-24
4.06044E-02 3.73453E-24
4.14700E-02 3.57649E-24
4.23443E-02 3.42668E-24
4.32273E-02 3.28458E-24
4.41190E-02 3.14974E-24
4.50194E-02 3.02171E-24
4.59284E-02 2.90008E-24
4.68461E-02 2.78448E-24
4.87074E-02 2.56996E-24
5.06030E-02 2.37559E-24
5.25328E-02 2.19914E-24
5.44967E-02 2.03868E-24
5.64946E-02 1.89250E-24
5.85262E-02 1.75910E-24
6.05914E-02 1.63718E-24
6.26901E-02 1.52556E-24
6.48222E-02 1.42323E-24
6.69873E-02 1.32927E-24
6.91854E-02 1.24288E-24
7.14163E-02 1.16335E-24
7.36799E-02 1.09002E-24
7.59760E-02 1.02233E-24
7.83043E-02 9.59768E-25
8.06647E-02 9.01878E-25
8.30571E-02 8.48247E-25
8.54812E-02 7.98506E-25
8.79369E-02 7.52323E-25
9.04240E-02 7.09398E-25
9.29422E-02 6.69459E-25
9.54915E-02 6.32261E-25
9.80716E-02 5.97584E-25
1.00682E-01 5.65224E-25
1.03323E-01 5.35001E-25
1.05995E-01 5.06747E-25
1.08696E-01 4.80310E-25
1.11427E-01 4.55554E-25
1.14188E-01 4.32352E-25
1.16978E-01 4.10588E-25
1.19797E-01 3.90158E-25
1.22645E-01 3.70966E-25
1.25522E-01 3.52922E-25
1.28428E-01 3.35946E-25
1.31361E-01 3.19963E-25
1.34323E-01 3.04905E-25
1.37313E-01 2.90708E-25
1.40330E-01 2.77314E-25
1.43375E-01 2.64670E-25
1.46447E-01 2.52726E-25
1.49545E-01 2.41437E-25
1.52671E-01 2.30759E-25
1.55823E-01 2.20655E-25
1.59001E-01 2.11087E-25
1.62205E-01 2.02022E-25
1.65435E-01 1.93429E-25
1.68690E-01 1.85279E-25
1.71970E-01 1.77544E-25
1.75276E-01 1.70200E-25
1.78606E-01 1.63224E-25
1.81961E-01 1.56594E-25
1.85340E-01 1.50289E-25
1.88743E-01 1.44292E-25
1.92169E-01 1.38583E-25
1.95619E-01 1.33147E-25
1.99092E-01 1.27968E-25
2.02589E-01 1.23032E-25
2.06107E-01 1.18326E-25
2.09649E-01 1.13836E-25
2.13212E-01 1.09552E-25
2.16797E-01 1.05462E-25
2.20404E-01 1.01555E-25
2.24032E-01 9.78230E-26
2.27680E-01 9.42553E-26
2.31350E-01 9.08439E-26
2.35040E-01 8.75806E-26
2.38751E-01 8.44580E-26
2.42481E-01 8.14688E-26
2.46231E-01 7.86064E-26
2.50000E-01 7.58643E-26
2.53788E-01 7.32368E-26
2.57595E-01 7.07180E-26
2.61421E-01 6.83027E-26
2.65264E-01 6.59859E-26
2.69126E-01 6.37628E-26
2.73005E-01 6.16291E-26
2.76901E-01 5.95804E-26
2.80814E-01 5.76128E-26
2.84744E-01 5.57224E-26
2.88691E-01 5.39058E-26
2.92653E-01 5.21596E-26
2.96632E-01 5.04804E-26
3.00625E-01 4.88654E-26
3.04634E-01 4.73115E-26
3.08658E-01 4.58162E-26
3.12697E-01 4.43767E-26
3.16749E-01 4.29907E-26
3.20816E-01 4.16558E-26
3.24896E-01 4.03698E-26
3.28990E-01 3.91306E-26
3.33097E-01 3.79361E-26
3.37216E-01 3.67845E-26
3.41348E-01 3.56740E-26
3.45492E-01 3.46029E-26
3.49647E-01 3.35695E-26
3.53814E-01 3.25722E-26
3.57992E-01 3.16096E-26
3.62181E-01 3.06802E-26
3.66381E-01 2.97828E-26
3.70590E-01 2.89159E-26
3.74810E-01 2.80785E-26
3.79039E-01 2.72693E-26
3.83277E-01 2.64872E-26
3.87524E-01 2.57311E-26
3.91780E-01 2.50000E-26
3.96044E-01 2.42931E-26
4.00316E-01 2.36092E-26
4.04596E-01 2.29476E-26
4.08882E-01 2.23074E-26
4.13176E-01 2.16877E-26
4.17476E-01 2.10879E-26
4.21783E-01 2.05071E-26
4.26095E-01 1.99447E-26
4.30413E-01 1.94000E-26
4.34737E-01 1.88723E-26
4.39065E-01 1.83610E-26
4.43398E-01 1.78655E-26
4.47736E-01 1.73853E-26
4.52077E-01 1.69197E-26
4.56422E-01 1.64683E-26
4.60770E-01 1.60306E-26
4.65122E-01 1.56061E-26
4.69476E-01 1.51942E-26
4.73832E-01 1.47947E-26
4.78190E-01 1.44069E-26
4.82550E-01 1.40307E-26
4.86912E-01 1.36654E-26
4.91274E-01 1.33108E-26
4.95637E-01 1.29666E-26
5.00000E-01 1.26322E-26
5.04363E-01 1.23075E-26
5.08726E-01 1.19921E-26
5.13088E-01 1.16857E-26
5.17450E-01 1.13880E-26
5.21810E-01 1.10987E-26
5.26168E-01 1.08174E-26
5.30524E-01 1.05441E-26
5.34878E-01 1.02784E-26
5.39230E-01 1.00200E-26
5.43578E-01 9.76875E-27
5.47923E-01 9.52439E-27
5.52264E-01 9.28671E-27
5.56602E-01 9.05549E-27
5.60935E-01 8.83054E-27
5.65263E-01 8.61166E-27
5.69587E-01 8.39865E-27
5.73905E-01 8.19133E-27
5.78217E-01 7.98953E-27
5.82524E-01 7.79308E-27
5.86824E-01 7.60181E-27
5.91118E-01 7.41557E-27
5.95404E-01 7.23421E-27
5.99684E-01 7.05757E-27
6.03956E-01 6.88551E-27
6.08220E-01 6.71791E-27
6.12476E-01 6.55462E-27
6.16723E-01 6.39552E-27
6.20961E-01 6.24048E-27
6.25190E-01 6.08939E-27
6.29410E-01 5.94213E-27
6.33619E-01 5.79859E-27
6.37819E-01 5.65866E-27
6.42008E-01 5.52224E-27
6.46186E-01 5.38922E-27
6.50353E-01 5.25952E-27
6.54508E-01 5.13302E-27
6.58652E-01 5.00966E-27
6.62784E-01 4.88933E-27
6.66903E-01 4.77195E-27
6.71010E-01 4.65744E-27
6.75104E-01 4.54572E-27
6.79184E-01 4.43672E-27
6.83251E-01 4.33035E-27
6.87303E-01 4.22654E-27
6.91342E-01 4.12524E-27
6.95366E-01 4.02636E-27
6.99375E-01 3.92984E-27
7.03368E-01 3.83562E-27
7.07347E-01 3.74363E-27
7.11309E-01 3.65383E-27
7.15256E-01 3.56614E-27
7.19186E-01 3.48051E-27
7.23099E-01 3.39690E-27
7.26995E-01 3.31524E-27
7.30874E-01 3.23548E-27
7.34736E-01 3.15758E-27
7.38579E-01 3.08149E-27
7.42405E-01 3.00716E-27
7.46212E-01 2.93454E-27
7.50000E-01 2.86360E-27
7.53769E-01 2.79428E-27
7.57519E-01 2.72655E-27
7.61249E-01 2.66037E-27
7.64960E-01 2.59570E-27
7.68650E-01 2.53250E-27
7.72320E-01 2.47074E-27
7.75968E-01 2.41037E-27
7.79596E-01 2.35137E-27
7.83203E-01 2.29370E-27
7.86788E-01 2.23733E-27
7.90351E-01 2.18223E-27
7.93893E-01 2.12836E-27
7.97411E-01 2.07570E-27
8.00908E-01 2.02422E-27
8.04381E-01 1.97388E-27
8.07831E-01 1.92467E-27
8.11257E-01 1.87656E-27
8.14660E-01 1.82951E-27
8.18039E-01 1.78351E-27
8.21394E-01 1.73853E-27
8.24724E-01 1.69455E-27
8.28030E-01 1.65153E-27
8.31310E-01 1.60948E-27
8.34565E-01 1.56835E-27
8.37795E-01 1.52813E-27
8.40999E-01 1.48879E-27
8.44177E-01 1.45033E-27
8.47329E-01 1.41271E-27
8.50455E-01 1.37593E-27
8.53553E-01 1.33995E-27
8.56625E-01 1.30477E-27
8.59670E-01 1.27036E-27
8.62687E-01 1.23672E-27
8.65677E-01 1.20381E-27
8.68639E-01 1.17163E-27
8.71572E-01 1.14017E-27
8.74478E-01 1.10940E-27
8.77355E-01 1.07931E-27
8.80203E-01 1.04988E-27
8.83022E-01 1.02111E-27
8.85812E-01 9.92984E-28
8.88573E-01 9.65479E-28
8.91304E-01 9.38587E-28
8.94005E-01 9.12297E-28
8.96677E-01 8.86595E-28
8.99318E-01 8.61470E-28
9.01928E-01 8.36910E-28
9.04508E-01 8.12904E-28
9.07058E-01 7.89441E-28
9.09576E-01 7.66511E-28
9.12063E-01 7.44103E-28
9.14519E-01 7.22207E-28
9.16943E-01 7.00815E-28
9.19335E-01 6.79915E-28
9.21696E-01 6.59498E-28
9.24024E-01 6.39556E-28
9.26320E-01 6.20081E-28
9.28584E-01 6.01062E-28
9.30815E-01 5.82493E-28
9.33013E-01 5.64366E-28
9.35178E-01 5.46671E-28
9.37310E-01 5.29402E-28
9.39409E-01 5.12552E-28
9.41474E-01 4.96113E-28
9.43505E-01 4.80079E-28
9.45503E-01 4.64441E-28
9.47467E-01 4.49194E-28
9.49397E-01 4.34332E-28
9.51293E-01 4.19848E-28
9.53154E-01 4.05737E-28
9.54981E-01 3.91991E-28
9.56773E-01 3.78606E-28
9.58530E-01 3.65576E-28
9.60252E-01 3.52896E-28
9.61940E-01 3.40560E-28
9.63592E-01 3.28563E-28
9.65209E-01 3.16902E-28
9.66790E-01 3.05570E-28
9.68336E-01 2.94563E-28
9.69846E-01 2.83877E-28
9.71321E-01 2.73507E-28
9.72759E-01 2.63450E-28
9.74162E-01 2.53700E-28
9.75528E-01 2.44255E-28
9.76858E-01 2.35111E-28
9.78152E-01 2.26263E-28
9.79410E-01 2.17709E-28
9.80631E-01 2.09445E-28
9.81815E-01 2.01467E-28
9.82963E-01 1.93773E-28
9.84074E-01 1.86359E-28
9.85148E-01 1.79223E-28
9.86185E-01 1.72363E-28
9.87185E-01 1.65773E-28
9.88148E-01 1.59454E-28
9.89074E-01 1.53401E-28
9.89962E-01 1.47614E-28
9.90814E-01 1.42088E-28
9.91627E-01 1.36823E-28
9.92404E-01 1.31816E-28
9.93143E-01 1.27066E-28
9.93844E-01 1.22570E-28
9.94508E-01 1.18327E-28
9.95134E-01 1.14334E-28
9.95722E-01 1.10592E-28
9.96273E-01 1.07097E-28
9.96786E-01 1.03850E-28
9.97261E-01 1.00847E-28
9.97698E-01 9.80894E-29
9.98097E-01 9.55750E-29
9.98459E-01 9.33026E-29
9.98782E-01 9.12725E-29
9.99067E-01 8.94825E-29
9.99315E-01 8.79332E-29
9.99524E-01 8.66224E-29
9.99695E-01 8.55512E-29
9.99829E-01 8.47173E-29
9.99924E-01 8.41233E-29
9.99981E-01 8.37661E-29
1.00000E+00 8.36487E-29
