 #
 # Subroutine ELSEPA. Elastic scattering of electrons and positrons
 #                    by neutral atoms and positive ions
 #
 # Projectile: positron
 # Kinetic energy = 5.00000E+06 eV = 1.83747E+05 a.u.
 #
 # WARNING: High-energy factorization with free-atom DF screening.
 #          Absorption, polarization and exchange corrections are
 #          switched off.
 #          Phase shifts are calculated for the bare nucleus.
 #          Scattering amplitudes are not evaluated.
 #
 # Element:  B,  Z =   5,  atomic weight = 1.08110E+01 g/mol
 #
 # Nuclear model: Fermi distribution
 #                Average radius = 2.36595E-13 cm
 #                Skin thickness = 5.46000E-14 cm
 #
 # Number of electrons =  5
 #
 # Total elastic cross section = 2.16202E-19 cm**2 = 7.72072E-03 a0**2
 # 1st transport cross section = 1.34905E-24 cm**2 = 4.81754E-08 a0**2
 # 2nd transport cross section = 3.88830E-24 cm**2 = 1.38854E-07 a0**2
 #
 #
 # Differential cross section:                       MU=(1-COS(THETA))/2
 #
 #  THETA        MU          DCS          DCS        Sherman      error
 #  (deg)                 (cm**2/sr)   (a0**2/sr)    function
 #----------------------------------------------------------------------
0.00000E+00 9.08299E-14
7.61557E-13 9.08292E-14
1.18994E-12 9.08289E-14
1.71346E-12 9.08284E-14
2.33225E-12 9.08279E-14
3.04617E-12 9.08273E-14
3.85530E-12 9.08266E-14
4.75964E-12 9.08258E-14
5.75917E-12 9.08250E-14
6.85391E-12 9.08240E-14
8.04379E-12 9.08230E-14
9.32893E-12 9.08219E-14
1.07092E-11 9.08208E-14
1.21847E-11 9.08195E-14
1.37554E-11 9.08182E-14
1.54213E-11 9.08168E-14
1.71823E-11 9.08153E-14
1.90386E-11 9.08137E-14
2.09900E-11 9.08121E-14
2.30367E-11 9.08103E-14
2.51785E-11 9.08085E-14
2.74156E-11 9.08066E-14
2.97478E-11 9.08047E-14
3.21752E-11 9.08026E-14
3.46979E-11 9.08005E-14
3.73157E-11 9.07983E-14
4.00286E-11 9.07960E-14
4.28368E-11 9.07936E-14
4.57402E-11 9.07912E-14
4.87388E-11 9.07886E-14
5.18325E-11 9.07860E-14
5.50215E-11 9.07833E-14
5.83057E-11 9.07806E-14
6.16850E-11 9.07777E-14
6.51595E-11 9.07748E-14
6.87293E-11 9.07718E-14
7.23943E-11 9.07687E-14
7.61544E-11 9.07655E-14
1.18991E-10 9.07294E-14
1.71347E-10 9.06854E-14
2.33223E-10 9.06334E-14
3.04617E-10 9.05735E-14
3.85531E-10 9.05057E-14
4.75965E-10 9.04300E-14
5.75917E-10 9.03463E-14
6.85389E-10 9.02549E-14
8.04380E-10 9.01558E-14
9.32891E-10 9.00488E-14
1.07092E-09 8.99341E-14
1.21847E-09 8.98118E-14
1.37554E-09 8.96817E-14
1.54213E-09 8.95443E-14
1.71823E-09 8.93991E-14
1.90386E-09 8.92465E-14
2.09900E-09 8.90866E-14
2.30367E-09 8.89190E-14
2.51785E-09 8.87445E-14
2.74156E-09 8.85624E-14
2.97478E-09 8.83732E-14
3.21752E-09 8.81772E-14
3.46978E-09 8.79736E-14
3.73156E-09 8.77634E-14
4.00286E-09 8.75462E-14
4.28368E-09 8.73220E-14
4.57402E-09 8.70916E-14
4.87388E-09 8.68537E-14
5.18326E-09 8.66098E-14
5.50215E-09 8.63594E-14
5.83057E-09 8.61020E-14
6.16850E-09 8.58391E-14
6.51596E-09 8.55692E-14
6.87293E-09 8.52934E-14
7.23942E-09 8.50121E-14
7.61544E-09 8.47237E-14
1.18991E-08 8.15387E-14
1.71347E-08 7.78678E-14
2.33223E-08 7.38195E-14
3.04617E-08 6.95014E-14
3.85531E-08 6.50201E-14
4.75965E-08 6.04730E-14
5.75917E-08 5.58086E-14
6.85389E-08 5.13457E-14
8.04380E-08 4.72136E-14
9.32891E-08 4.29867E-14
1.07092E-07 3.91728E-14
1.21847E-07 3.55780E-14
1.37554E-07 3.21789E-14
1.54213E-07 2.91605E-14
1.71823E-07 2.62687E-14
1.90386E-07 2.36846E-14
2.09900E-07 2.13604E-14
2.30367E-07 1.91995E-14
2.51785E-07 1.72990E-14
2.74156E-07 1.55593E-14
2.97478E-07 1.39998E-14
3.21752E-07 1.26218E-14
3.46978E-07 1.13575E-14
3.73156E-07 1.02431E-14
4.00286E-07 9.24373E-15
4.28368E-07 8.34580E-15
4.57402E-07 7.55121E-15
4.87388E-07 6.83246E-15
5.18325E-07 6.19316E-15
5.50215E-07 5.62223E-15
5.83057E-07 5.10864E-15
6.16850E-07 4.65051E-15
6.51596E-07 4.23873E-15
6.87293E-07 3.86927E-15
7.23942E-07 3.53784E-15
7.61543E-07 3.23928E-15
1.18991E-06 1.45859E-15
1.71347E-06 7.54360E-16
2.33223E-06 4.35158E-16
3.04617E-06 2.72357E-16
3.85531E-06 1.81285E-16
4.75964E-06 1.26146E-16
5.75916E-06 9.08379E-17
6.85388E-06 6.72614E-17
8.04378E-06 5.09123E-17
9.32888E-06 3.92517E-17
1.07092E-05 3.07336E-17
1.21846E-05 2.43911E-17
1.37553E-05 1.95889E-17
1.54212E-05 1.58990E-17
1.71822E-05 1.30290E-17
1.90385E-05 1.07832E-17
2.09899E-05 8.98337E-18
2.30365E-05 7.53630E-18
2.51783E-05 6.36456E-18
2.74153E-05 5.41016E-18
2.97475E-05 4.62712E-18
3.21749E-05 3.98056E-18
3.46974E-05 3.44262E-18
3.73152E-05 2.99179E-18
4.00281E-05 2.61155E-18
4.28362E-05 2.28879E-18
4.57395E-05 2.01368E-18
4.87380E-05 1.77811E-18
5.18317E-05 1.57573E-18
5.50205E-05 1.40126E-18
5.83045E-05 1.25028E-18
6.16838E-05 1.11913E-18
6.51582E-05 1.00470E-18
6.87277E-05 9.04469E-19
7.23925E-05 8.16319E-19
7.61524E-05 7.38527E-19
9.21439E-05 5.05985E-19
1.09658E-04 3.58188E-19
1.28695E-04 2.60432E-19
1.49255E-04 1.93834E-19
1.71338E-04 1.47212E-19
1.94942E-04 1.13764E-19
2.20070E-04 8.93114E-20
2.46720E-04 7.10698E-20
2.74892E-04 5.72608E-20
3.04586E-04 4.66448E-20
3.35803E-04 3.83760E-20
3.68542E-04 3.18629E-20
4.02802E-04 2.66711E-20
4.38585E-04 2.24958E-20
4.75889E-04 1.91051E-20
5.14715E-04 1.63300E-20
5.55063E-04 1.40411E-20
5.96931E-04 1.21388E-20
6.40321E-04 1.05486E-20
6.85233E-04 9.20990E-21
7.31665E-04 8.07720E-21
7.79618E-04 7.11328E-21
8.29092E-04 6.28882E-21
8.80086E-04 5.58055E-21
9.32601E-04 4.96903E-21
9.86636E-04 4.43914E-21
1.04219E-03 3.97792E-21
1.09927E-03 3.57508E-21
1.15786E-03 3.22197E-21
1.21797E-03 2.91133E-21
1.27961E-03 2.63728E-21
1.34276E-03 2.39467E-21
1.40743E-03 2.17935E-21
1.47362E-03 1.98767E-21
1.54133E-03 1.81659E-21
1.61056E-03 1.66354E-21
1.68131E-03 1.52624E-21
1.75357E-03 1.40283E-21
1.82735E-03 1.29163E-21
1.90265E-03 1.19123E-21
1.97947E-03 1.10039E-21
2.05780E-03 1.01804E-21
2.13765E-03 9.43255E-22
2.21902E-03 8.75199E-22
2.30190E-03 8.13174E-22
2.38630E-03 7.56543E-22
2.47222E-03 7.04751E-22
2.55965E-03 6.57319E-22
2.64859E-03 6.13802E-22
2.73905E-03 5.73830E-22
2.83103E-03 5.37054E-22
2.92452E-03 5.03176E-22
3.01952E-03 4.71928E-22
3.11604E-03 4.43063E-22
3.21407E-03 4.16373E-22
3.31362E-03 3.91659E-22
3.41468E-03 3.68752E-22
3.51725E-03 3.47494E-22
3.62133E-03 3.27743E-22
3.72692E-03 3.09377E-22
3.83403E-03 2.92276E-22
3.94265E-03 2.76341E-22
4.05278E-03 2.61476E-22
4.16442E-03 2.47596E-22
4.27757E-03 2.34624E-22
4.39223E-03 2.22490E-22
4.50840E-03 2.11130E-22
4.62608E-03 2.00484E-22
4.74527E-03 1.90501E-22
4.86597E-03 1.81131E-22
4.98817E-03 1.72329E-22
5.11188E-03 1.64055E-22
5.23711E-03 1.56271E-22
5.36383E-03 1.48943E-22
5.49207E-03 1.42038E-22
5.62181E-03 1.35529E-22
5.75306E-03 1.29388E-22
5.88581E-03 1.23591E-22
6.02007E-03 1.18114E-22
6.15583E-03 1.12937E-22
6.29310E-03 1.08040E-22
6.43187E-03 1.03406E-22
6.57214E-03 9.90166E-23
6.71392E-03 9.48578E-23
6.85720E-03 9.09145E-23
7.00198E-03 8.71740E-23
7.14827E-03 8.36235E-23
7.29605E-03 8.02517E-23
7.44534E-03 7.70480E-23
7.59612E-03 7.40022E-23
7.97965E-03 6.70203E-23
8.37255E-03 6.08416E-23
8.77480E-03 5.53578E-23
9.18641E-03 5.04772E-23
9.60736E-03 4.61221E-23
1.00376E-02 4.22260E-23
1.04773E-02 3.87320E-23
1.09262E-02 3.55915E-23
1.13844E-02 3.27624E-23
1.18520E-02 3.02084E-23
1.23288E-02 2.78980E-23
1.28150E-02 2.58039E-23
1.33104E-02 2.39023E-23
1.38150E-02 2.21723E-23
1.43290E-02 2.05957E-23
1.48521E-02 1.91565E-23
1.53845E-02 1.78406E-23
1.59262E-02 1.66355E-23
1.64770E-02 1.55302E-23
1.70371E-02 1.45150E-23
1.76063E-02 1.35812E-23
1.81848E-02 1.27211E-23
1.87724E-02 1.19279E-23
1.93692E-02 1.11954E-23
1.99751E-02 1.05181E-23
2.05901E-02 9.89108E-24
2.12143E-02 9.30999E-24
2.18476E-02 8.77083E-24
2.24900E-02 8.27002E-24
2.31415E-02 7.80435E-24
2.38021E-02 7.37089E-24
2.44717E-02 6.96701E-24
2.51504E-02 6.59033E-24
2.58382E-02 6.23868E-24
2.65349E-02 5.91010E-24
2.72407E-02 5.60279E-24
2.79555E-02 5.31512E-24
2.86793E-02 5.04562E-24
2.94120E-02 4.79291E-24
3.01537E-02 4.55577E-24
3.09043E-02 4.33306E-24
3.16639E-02 4.12374E-24
3.24324E-02 3.92686E-24
3.32098E-02 3.74154E-24
3.39961E-02 3.56697E-24
3.47912E-02 3.40242E-24
3.55952E-02 3.24722E-24
3.64081E-02 3.10072E-24
3.72297E-02 2.96235E-24
3.80602E-02 2.83158E-24
3.88995E-02 2.70791E-24
3.97476E-02 2.59089E-24
4.06044E-02 2.48008E-24
4.14700E-02 2.37511E-24
4.23443E-02 2.27561E-24
4.32273E-02 2.18123E-24
4.41190E-02 2.09167E-24
4.50194E-02 2.00664E-24
4.59284E-02 1.92585E-24
4.68461E-02 1.84907E-24
4.87074E-02 1.70659E-24
5.06030E-02 1.57749E-24
5.25328E-02 1.46031E-24
5.44967E-02 1.35373E-24
5.64946E-02 1.25665E-24
5.85262E-02 1.16805E-24
6.05914E-02 1.08708E-24
6.26901E-02 1.01295E-24
6.48222E-02 9.44986E-25
6.69873E-02 8.82587E-25
6.91854E-02 8.25214E-25
7.14163E-02 7.72391E-25
7.36799E-02 7.23693E-25
7.59760E-02 6.78740E-25
7.83043E-02 6.37194E-25
8.06647E-02 5.98749E-25
8.30571E-02 5.63133E-25
8.54812E-02 5.30102E-25
8.79369E-02 4.99432E-25
9.04240E-02 4.70927E-25
9.29422E-02 4.44405E-25
9.54915E-02 4.19704E-25
9.80716E-02 3.96676E-25
1.00682E-01 3.75188E-25
1.03323E-01 3.55119E-25
1.05995E-01 3.36357E-25
1.08696E-01 3.18803E-25
1.11427E-01 3.02364E-25
1.14188E-01 2.86958E-25
1.16978E-01 2.72507E-25
1.19797E-01 2.58942E-25
1.22645E-01 2.46198E-25
1.25522E-01 2.34218E-25
1.28428E-01 2.22946E-25
1.31361E-01 2.12334E-25
1.34323E-01 2.02336E-25
1.37313E-01 1.92910E-25
1.40330E-01 1.84017E-25
1.43375E-01 1.75623E-25
1.46447E-01 1.67693E-25
1.49545E-01 1.60198E-25
1.52671E-01 1.53109E-25
1.55823E-01 1.46400E-25
1.59001E-01 1.40048E-25
1.62205E-01 1.34030E-25
1.65435E-01 1.28326E-25
1.68690E-01 1.22915E-25
1.71970E-01 1.17781E-25
1.75276E-01 1.12906E-25
1.78606E-01 1.08275E-25
1.81961E-01 1.03873E-25
1.85340E-01 9.96881E-26
1.88743E-01 9.57067E-26
1.92169E-01 9.19172E-26
1.95619E-01 8.83088E-26
1.99092E-01 8.48713E-26
2.02589E-01 8.15951E-26
2.06107E-01 7.84712E-26
2.09649E-01 7.54914E-26
2.13212E-01 7.26478E-26
2.16797E-01 6.99330E-26
2.20404E-01 6.73402E-26
2.24032E-01 6.48630E-26
2.27680E-01 6.24951E-26
2.31350E-01 6.02310E-26
2.35040E-01 5.80653E-26
2.38751E-01 5.59929E-26
2.42481E-01 5.40092E-26
2.46231E-01 5.21095E-26
2.50000E-01 5.02899E-26
2.53788E-01 4.85461E-26
2.57595E-01 4.68747E-26
2.61421E-01 4.52719E-26
2.65264E-01 4.37345E-26
2.69126E-01 4.22594E-26
2.73005E-01 4.08435E-26
2.76901E-01 3.94841E-26
2.80814E-01 3.81785E-26
2.84744E-01 3.69242E-26
2.88691E-01 3.57189E-26
2.92653E-01 3.45603E-26
2.96632E-01 3.34462E-26
3.00625E-01 3.23747E-26
3.04634E-01 3.13437E-26
3.08658E-01 3.03517E-26
3.12697E-01 2.93967E-26
3.16749E-01 2.84772E-26
3.20816E-01 2.75916E-26
3.24896E-01 2.67385E-26
3.28990E-01 2.59164E-26
3.33097E-01 2.51240E-26
3.37216E-01 2.43601E-26
3.41348E-01 2.36235E-26
3.45492E-01 2.29130E-26
3.49647E-01 2.22275E-26
3.53814E-01 2.15660E-26
3.57992E-01 2.09275E-26
3.62181E-01 2.03111E-26
3.66381E-01 1.97158E-26
3.70590E-01 1.91409E-26
3.74810E-01 1.85855E-26
3.79039E-01 1.80488E-26
3.83277E-01 1.75301E-26
3.87524E-01 1.70287E-26
3.91780E-01 1.65439E-26
3.96044E-01 1.60751E-26
4.00316E-01 1.56216E-26
4.04596E-01 1.51829E-26
4.08882E-01 1.47583E-26
4.13176E-01 1.43474E-26
4.17476E-01 1.39497E-26
4.21783E-01 1.35646E-26
4.26095E-01 1.31917E-26
4.30413E-01 1.28306E-26
4.34737E-01 1.24807E-26
4.39065E-01 1.21417E-26
4.43398E-01 1.18132E-26
4.47736E-01 1.14948E-26
4.52077E-01 1.11862E-26
4.56422E-01 1.08869E-26
4.60770E-01 1.05968E-26
4.65122E-01 1.03153E-26
4.69476E-01 1.00423E-26
4.73832E-01 9.77749E-27
4.78190E-01 9.52049E-27
4.82550E-01 9.27108E-27
4.86912E-01 9.02899E-27
4.91274E-01 8.79398E-27
4.95637E-01 8.56581E-27
5.00000E-01 8.34423E-27
5.04363E-01 8.12904E-27
5.08726E-01 7.92001E-27
5.13088E-01 7.71695E-27
5.17450E-01 7.51964E-27
5.21810E-01 7.32791E-27
5.26168E-01 7.14157E-27
5.30524E-01 6.96045E-27
5.34878E-01 6.78437E-27
5.39230E-01 6.61317E-27
5.43578E-01 6.44670E-27
5.47923E-01 6.28479E-27
5.52264E-01 6.12732E-27
5.56602E-01 5.97414E-27
5.60935E-01 5.82511E-27
5.65263E-01 5.68010E-27
5.69587E-01 5.53899E-27
5.73905E-01 5.40165E-27
5.78217E-01 5.26797E-27
5.82524E-01 5.13784E-27
5.86824E-01 5.01115E-27
5.91118E-01 4.88779E-27
5.95404E-01 4.76767E-27
5.99684E-01 4.65067E-27
6.03956E-01 4.53672E-27
6.08220E-01 4.42572E-27
6.12476E-01 4.31758E-27
6.16723E-01 4.21221E-27
6.20961E-01 4.10954E-27
6.25190E-01 4.00949E-27
6.29410E-01 3.91198E-27
6.33619E-01 3.81693E-27
6.37819E-01 3.72427E-27
6.42008E-01 3.63394E-27
6.46186E-01 3.54587E-27
6.50353E-01 3.46000E-27
6.54508E-01 3.37625E-27
6.58652E-01 3.29458E-27
6.62784E-01 3.21492E-27
6.66903E-01 3.13722E-27
6.71010E-01 3.06141E-27
6.75104E-01 2.98746E-27
6.79184E-01 2.91530E-27
6.83251E-01 2.84490E-27
6.87303E-01 2.77619E-27
6.91342E-01 2.70914E-27
6.95366E-01 2.64369E-27
6.99375E-01 2.57981E-27
7.03368E-01 2.51746E-27
7.07347E-01 2.45658E-27
7.11309E-01 2.39715E-27
7.15256E-01 2.33913E-27
7.19186E-01 2.28247E-27
7.23099E-01 2.22714E-27
7.26995E-01 2.17310E-27
7.30874E-01 2.12033E-27
7.34736E-01 2.06879E-27
7.38579E-01 2.01845E-27
7.42405E-01 1.96927E-27
7.46212E-01 1.92123E-27
7.50000E-01 1.87430E-27
7.53769E-01 1.82844E-27
7.57519E-01 1.78364E-27
7.61249E-01 1.73986E-27
7.64960E-01 1.69709E-27
7.68650E-01 1.65528E-27
7.72320E-01 1.61443E-27
7.75968E-01 1.57451E-27
7.79596E-01 1.53549E-27
7.83203E-01 1.49735E-27
7.86788E-01 1.46007E-27
7.90351E-01 1.42363E-27
7.93893E-01 1.38800E-27
7.97411E-01 1.35318E-27
8.00908E-01 1.31914E-27
8.04381E-01 1.28586E-27
8.07831E-01 1.25332E-27
8.11257E-01 1.22151E-27
8.14660E-01 1.19040E-27
8.18039E-01 1.15999E-27
8.21394E-01 1.13025E-27
8.24724E-01 1.10117E-27
8.28030E-01 1.07274E-27
8.31310E-01 1.04494E-27
8.34565E-01 1.01775E-27
8.37795E-01 9.91167E-28
8.40999E-01 9.65168E-28
8.44177E-01 9.39745E-28
8.47329E-01 9.14883E-28
8.50455E-01 8.90570E-28
8.53553E-01 8.66795E-28
8.56625E-01 8.43544E-28
8.59670E-01 8.20806E-28
8.62687E-01 7.98572E-28
8.65677E-01 7.76828E-28
8.68639E-01 7.55566E-28
8.71572E-01 7.34773E-28
8.74478E-01 7.14442E-28
8.77355E-01 6.94561E-28
8.80203E-01 6.75121E-28
8.83022E-01 6.56113E-28
8.85812E-01 6.37528E-28
8.88573E-01 6.19357E-28
8.91304E-01 6.01592E-28
8.94005E-01 5.84224E-28
8.96677E-01 5.67246E-28
8.99318E-01 5.50650E-28
9.01928E-01 5.34427E-28
9.04508E-01 5.18570E-28
9.07058E-01 5.03073E-28
9.09576E-01 4.87928E-28
9.12063E-01 4.73128E-28
9.14519E-01 4.58667E-28
9.16943E-01 4.44539E-28
9.19335E-01 4.30736E-28
9.21696E-01 4.17253E-28
9.24024E-01 4.04084E-28
9.26320E-01 3.91223E-28
9.28584E-01 3.78665E-28
9.30815E-01 3.66403E-28
9.33013E-01 3.54434E-28
9.35178E-01 3.42750E-28
9.37310E-01 3.31348E-28
9.39409E-01 3.20223E-28
9.41474E-01 3.09369E-28
9.43505E-01 2.98783E-28
9.45503E-01 2.88458E-28
9.47467E-01 2.78393E-28
9.49397E-01 2.68582E-28
9.51293E-01 2.59020E-28
9.53154E-01 2.49704E-28
9.54981E-01 2.40630E-28
9.56773E-01 2.31795E-28
9.58530E-01 2.23194E-28
9.60252E-01 2.14824E-28
9.61940E-01 2.06682E-28
9.63592E-01 1.98763E-28
9.65209E-01 1.91066E-28
9.66790E-01 1.83587E-28
9.68336E-01 1.76322E-28
9.69846E-01 1.69269E-28
9.71321E-01 1.62425E-28
9.72759E-01 1.55788E-28
9.74162E-01 1.49354E-28
9.75528E-01 1.43120E-28
9.76858E-01 1.37086E-28
9.78152E-01 1.31247E-28
9.79410E-01 1.25602E-28
9.80631E-01 1.20148E-28
9.81815E-01 1.14884E-28
9.82963E-01 1.09806E-28
9.84074E-01 1.04914E-28
9.85148E-01 1.00206E-28
9.86185E-01 9.56785E-29
9.87185E-01 9.13305E-29
9.88148E-01 8.71606E-29
9.89074E-01 8.31671E-29
9.89962E-01 7.93482E-29
9.90814E-01 7.57025E-29
9.91627E-01 7.22285E-29
9.92404E-01 6.89251E-29
9.93143E-01 6.57907E-29
9.93844E-01 6.28242E-29
9.94508E-01 6.00248E-29
9.95134E-01 5.73905E-29
9.95722E-01 5.49217E-29
9.96273E-01 5.26160E-29
9.96786E-01 5.04735E-29
9.97261E-01 4.84925E-29
9.97698E-01 4.66731E-29
9.98097E-01 4.50142E-29
9.98459E-01 4.35150E-29
9.98782E-01 4.21757E-29
9.99067E-01 4.09947E-29
9.99315E-01 3.99726E-29
9.99524E-01 3.91078E-29
9.99695E-01 3.84011E-29
9.99829E-01 3.78511E-29
9.99924E-01 3.74591E-29
9.99981E-01 3.72235E-29
1.00000E+00 3.71459E-29
