 #
 # Subroutine ELSEPA. Elastic scattering of electrons and positrons
 #                    by neutral atoms and positive ions
 #
 # Projectile: positron
 # Kinetic energy = 6.00000E+08 eV = 2.20496E+07 a.u.
 #
 # WARNING: High-energy factorization with free-atom DF screening.
 #          Absorption, polarization and exchange corrections are
 #          switched off.
 #          Phase shifts are calculated for the bare nucleus.
 #          Scattering amplitudes are not evaluated.
 #
 # Element:  B,  Z =   5,  atomic weight = 1.08110E+01 g/mol
 #
 # Nuclear model: Fermi distribution
 #                Average radius = 2.36595E-13 cm
 #                Skin thickness = 5.46000E-14 cm
 #
 # Number of electrons =  5
 #
 # Total elastic cross section = 2.13966E-19 cm**2 = 7.64088E-03 a0**2
 # 1st transport cross section = 1.60252E-28 cm**2 = 5.72270E-12 a0**2
 # 2nd transport cross section = 4.80468E-28 cm**2 = 1.71578E-11 a0**2
 #
 #
 # Differential cross section:                       MU=(1-COS(THETA))/2
 #
 #  THETA        MU          DCS          DCS        Sherman      error
 #  (deg)                 (cm**2/sr)   (a0**2/sr)    function
 #----------------------------------------------------------------------
0.00000E+00 1.07848E-09
7.61557E-13 9.92469E-10
1.18994E-12 9.48244E-10
1.71346E-12 8.97822E-10
2.33225E-12 8.42909E-10
3.04617E-12 7.85190E-10
3.85530E-12 7.26211E-10
4.75964E-12 6.65767E-10
5.75917E-12 6.07737E-10
6.85391E-12 5.53673E-10
8.04379E-12 4.99729E-10
9.32893E-12 4.51586E-10
1.07092E-11 4.05102E-10
1.21847E-11 3.63282E-10
1.37554E-11 3.25163E-10
1.54213E-11 2.90076E-10
1.71823E-11 2.59373E-10
1.90386E-11 2.30704E-10
2.09900E-11 2.05797E-10
2.30367E-11 1.83259E-10
2.51785E-11 1.63309E-10
2.74156E-11 1.45710E-10
2.97478E-11 1.29916E-10
3.21752E-11 1.16151E-10
3.46979E-11 1.03758E-10
3.73157E-11 9.29095E-11
4.00286E-11 8.32844E-11
4.28368E-11 7.47600E-11
4.57402E-11 6.72442E-11
4.87388E-11 6.05483E-11
5.18325E-11 5.46394E-11
5.50215E-11 4.93775E-11
5.83057E-11 4.47088E-11
6.16850E-11 4.05564E-11
6.51595E-11 3.68549E-11
6.87293E-11 3.35542E-11
7.23943E-11 3.06060E-11
7.61544E-11 2.79660E-11
1.18991E-10 1.24851E-11
1.71347E-10 6.48762E-12
2.33223E-10 3.76208E-12
3.04617E-10 2.36782E-12
3.85531E-10 1.57849E-12
4.75965E-10 1.09802E-12
5.75917E-10 7.90151E-13
6.85389E-10 5.83701E-13
8.04380E-10 4.40551E-13
9.32891E-10 3.38517E-13
1.07092E-09 2.64199E-13
1.21847E-09 2.08980E-13
1.37554E-09 1.67321E-13
1.54213E-09 1.35409E-13
1.71823E-09 1.10652E-13
1.90386E-09 9.12382E-14
2.09900E-09 7.58481E-14
2.30367E-09 6.35374E-14
2.51785E-09 5.35964E-14
2.74156E-09 4.55071E-14
2.97478E-09 3.88724E-14
3.21752E-09 3.33929E-14
3.46978E-09 2.88374E-14
3.73156E-09 2.50265E-14
4.00286E-09 2.18201E-14
4.28368E-09 1.91074E-14
4.57402E-09 1.68008E-14
4.87388E-09 1.48296E-14
5.18326E-09 1.31378E-14
5.50215E-09 1.16790E-14
5.83057E-09 1.04163E-14
6.16850E-09 9.31886E-15
6.51596E-09 8.36150E-15
6.87293E-09 7.52359E-15
7.23942E-09 6.78757E-15
7.61544E-09 6.13915E-15
1.18991E-08 2.52750E-15
1.71347E-08 1.22140E-15
2.33223E-08 6.59904E-16
3.04617E-08 3.87008E-16
3.85531E-08 2.41655E-16
4.75965E-08 1.58565E-16
5.75917E-08 1.08309E-16
6.85389E-08 7.64773E-17
8.04380E-08 5.55266E-17
9.32891E-08 4.12834E-17
1.07092E-07 3.13280E-17
1.21847E-07 2.42006E-17
1.37554E-07 1.89897E-17
1.54213E-07 1.51088E-17
1.71823E-07 1.21705E-17
1.90386E-07 9.91305E-18
2.09900E-07 8.15555E-18
2.30367E-07 6.77083E-18
2.51785E-07 5.66791E-18
2.74156E-07 4.78070E-18
2.97478E-07 4.06048E-18
3.21752E-07 3.47093E-18
3.46978E-07 2.98459E-18
3.73156E-07 2.58052E-18
4.00286E-07 2.24258E-18
4.28368E-07 1.95819E-18
4.57402E-07 1.71749E-18
4.87388E-07 1.51266E-18
5.18325E-07 1.33747E-18
5.50215E-07 1.18693E-18
5.83057E-07 1.05698E-18
6.16850E-07 9.44344E-19
6.51596E-07 8.46317E-19
6.87293E-07 7.60686E-19
7.23942E-07 6.85616E-19
7.61543E-07 6.19582E-19
1.18991E-06 2.53777E-19
1.71347E-06 1.22382E-19
2.33223E-06 6.60575E-20
3.04617E-06 3.87208E-20
3.85531E-06 2.41727E-20
4.75964E-06 1.58593E-20
5.75916E-06 1.08319E-20
6.85388E-06 7.64784E-21
8.04378E-06 5.55239E-21
9.32888E-06 4.12792E-21
1.07092E-05 3.13233E-21
1.21846E-05 2.41960E-21
1.37553E-05 1.89853E-21
1.54212E-05 1.51047E-21
1.71822E-05 1.21668E-21
1.90385E-05 9.92340E-22
2.09899E-05 8.16222E-22
2.30365E-05 6.77208E-22
2.51783E-05 5.66480E-22
2.74153E-05 4.77542E-22
2.97475E-05 4.05513E-22
3.21749E-05 3.46680E-22
3.46974E-05 2.98210E-22
3.73152E-05 2.57940E-22
4.00281E-05 2.24222E-22
4.28362E-05 1.95798E-22
4.57395E-05 1.71703E-22
4.87380E-05 1.51182E-22
5.18317E-05 1.33633E-22
5.50205E-05 1.18567E-22
5.83045E-05 1.05581E-22
6.16838E-05 9.43376E-23
6.51582E-05 8.45591E-23
6.87277E-05 7.60156E-23
7.23925E-05 6.85197E-23
7.61524E-05 6.15001E-23
9.21439E-05 4.19223E-23
1.09658E-04 2.95593E-23
1.28695E-04 2.14189E-23
1.49255E-04 1.58931E-23
1.71338E-04 1.20362E-23
1.94942E-04 9.27559E-24
2.20070E-04 7.26202E-24
2.46720E-04 5.76272E-24
2.74892E-04 4.62993E-24
3.04586E-04 3.76062E-24
3.35803E-04 3.08469E-24
3.68542E-04 2.55325E-24
4.02802E-04 2.13036E-24
4.38585E-04 1.79097E-24
4.75889E-04 1.51583E-24
5.14715E-04 1.29105E-24
5.55063E-04 1.10600E-24
5.96931E-04 9.52511E-25
6.40321E-04 8.24463E-25
6.85233E-04 7.16888E-25
7.31665E-04 6.26066E-25
7.79618E-04 5.48949E-25
8.29092E-04 4.83141E-25
8.80086E-04 4.26743E-25
9.32601E-04 3.78167E-25
9.86636E-04 3.36183E-25
1.04219E-03 2.99735E-25
1.09927E-03 2.67986E-25
1.15786E-03 2.40233E-25
1.21797E-03 2.15887E-25
1.27961E-03 1.94473E-25
1.34276E-03 1.75571E-25
1.40743E-03 1.58847E-25
1.47362E-03 1.44007E-25
1.54133E-03 1.30804E-25
1.61056E-03 1.19032E-25
1.68131E-03 1.08507E-25
1.75357E-03 9.90799E-26
1.82735E-03 9.06156E-26
1.90265E-03 8.30013E-26
1.97947E-03 7.61385E-26
2.05780E-03 6.99401E-26
2.13765E-03 6.43335E-26
2.21902E-03 5.92516E-26
2.30190E-03 5.46390E-26
2.38630E-03 5.04450E-26
2.47222E-03 4.66258E-26
2.55965E-03 4.31432E-26
2.64859E-03 3.99622E-26
2.73905E-03 3.70536E-26
2.83103E-03 3.43899E-26
2.92452E-03 3.19477E-26
3.01952E-03 2.97057E-26
3.11604E-03 2.76449E-26
3.21407E-03 2.57489E-26
3.31362E-03 2.40022E-26
3.41468E-03 2.23915E-26
3.51725E-03 2.09045E-26
3.62133E-03 1.95305E-26
3.72692E-03 1.82597E-26
3.83403E-03 1.70830E-26
3.94265E-03 1.59927E-26
4.05278E-03 1.49815E-26
4.16442E-03 1.40428E-26
4.27757E-03 1.31707E-26
4.39223E-03 1.23598E-26
4.50840E-03 1.16053E-26
4.62608E-03 1.09027E-26
4.74527E-03 1.02479E-26
4.86597E-03 9.63736E-27
4.98817E-03 9.06754E-27
5.11188E-03 8.53548E-27
5.23711E-03 8.03825E-27
5.36383E-03 7.57338E-27
5.49207E-03 7.13843E-27
5.62181E-03 6.73125E-27
5.75306E-03 6.34987E-27
5.88581E-03 5.99240E-27
6.02007E-03 5.65723E-27
6.15583E-03 5.34273E-27
6.29310E-03 5.04752E-27
6.43187E-03 4.77027E-27
6.57214E-03 4.50974E-27
6.71392E-03 4.26483E-27
6.85720E-03 4.03448E-27
7.00198E-03 3.81774E-27
7.14827E-03 3.61370E-27
7.29605E-03 3.42155E-27
7.44534E-03 3.24051E-27
7.59612E-03 3.06988E-27
7.97965E-03 2.68459E-27
8.37255E-03 2.35121E-27
8.77480E-03 2.06210E-27
9.18641E-03 1.81087E-27
9.60736E-03 1.59215E-27
1.00376E-02 1.40138E-27
1.04773E-02 1.23472E-27
1.09262E-02 1.08889E-27
1.13844E-02 9.61098E-28
1.18520E-02 8.48969E-28
1.23288E-02 7.50454E-28
1.28150E-02 6.63799E-28
1.33104E-02 5.87492E-28
1.38150E-02 5.20230E-28
1.43290E-02 4.60885E-28
1.48521E-02 4.08478E-28
1.53845E-02 3.62162E-28
1.59262E-02 3.21199E-28
1.64770E-02 2.84944E-28
1.70371E-02 2.52837E-28
1.76063E-02 2.24388E-28
1.81848E-02 1.99166E-28
1.87724E-02 1.76795E-28
1.93692E-02 1.56945E-28
1.99751E-02 1.39326E-28
2.05901E-02 1.23681E-28
2.12143E-02 1.09786E-28
2.18476E-02 9.74421E-29
2.24900E-02 8.64743E-29
2.31415E-02 7.67275E-29
2.38021E-02 6.80651E-29
2.44717E-02 6.03659E-29
2.51504E-02 5.35225E-29
2.58382E-02 4.74399E-29
2.65349E-02 4.20337E-29
2.72407E-02 3.72292E-29
2.79555E-02 3.29599E-29
2.86793E-02 2.91667E-29
2.94120E-02 2.57973E-29
3.01537E-02 2.28048E-29
3.09043E-02 2.01480E-29
3.16639E-02 1.77897E-29
3.24324E-02 1.56972E-29
3.32098E-02 1.38412E-29
3.39961E-02 1.21956E-29
3.47912E-02 1.07373E-29
3.55952E-02 9.44549E-30
3.64081E-02 8.30180E-30
3.72297E-02 7.28981E-30
3.80602E-02 6.39490E-30
3.88995E-02 5.60402E-30
3.97476E-02 4.90557E-30
4.06044E-02 4.28919E-30
4.14700E-02 3.74566E-30
4.23443E-02 3.26678E-30
4.32273E-02 2.84522E-30
4.41190E-02 2.47446E-30
4.50194E-02 2.14872E-30
4.59284E-02 1.86282E-30
4.68461E-02 1.61218E-30
4.87074E-02 1.20076E-30
5.06030E-02 8.86924E-31
5.25328E-02 6.48936E-31
5.44967E-02 4.69672E-31
5.64946E-02 3.35678E-31
5.85262E-02 2.36407E-31
6.05914E-02 1.63619E-31
6.26901E-02 1.10901E-31
6.48222E-02 7.32779E-32
6.69873E-02 4.69095E-32
6.91854E-02 2.88477E-32
7.14163E-02 1.68421E-32
7.36799E-02 9.18654E-33
7.59760E-02 4.59827E-33
7.83043E-02 2.12166E-33
8.06647E-02 1.05290E-33
8.30571E-02 8.80615E-34
8.54812E-02 1.23957E-33
8.79369E-02 1.87453E-33
9.04240E-02 2.61222E-33
9.29422E-02 3.33981E-33
9.54915E-02 3.98822E-33
9.80716E-02 4.51966E-33
1.00682E-01 4.91799E-33
1.03323E-01 5.18176E-33
1.05995E-01 5.31881E-33
1.08696E-01 5.34258E-33
1.11427E-01 5.26938E-33
1.14188E-01 5.11640E-33
1.16978E-01 4.90059E-33
1.19797E-01 4.63775E-33
1.22645E-01 4.34210E-33
1.25522E-01 4.02601E-33
1.28428E-01 3.70000E-33
1.31361E-01 3.37274E-33
1.34323E-01 3.05112E-33
1.37313E-01 2.74056E-33
1.40330E-01 2.44503E-33
1.43375E-01 2.16735E-33
1.46447E-01 1.90932E-33
1.49545E-01 1.67191E-33
1.52671E-01 1.45544E-33
1.55823E-01 1.25970E-33
1.59001E-01 1.08403E-33
1.62205E-01 9.27523E-34
1.65435E-01 7.89049E-34
1.68690E-01 6.67334E-34
1.71970E-01 5.61033E-34
1.75276E-01 4.68776E-34
1.78606E-01 3.89206E-34
1.81961E-01 3.20998E-34
1.85340E-01 2.62900E-34
1.88743E-01 2.13721E-34
1.92169E-01 1.72367E-34
1.95619E-01 1.37826E-34
1.99092E-01 1.09180E-34
2.02589E-01 8.56022E-35
2.06107E-01 6.63496E-35
2.09649E-01 5.07677E-35
2.13212E-01 3.82767E-35
2.16797E-01 2.83707E-35
2.20404E-01 2.06108E-35
2.24032E-01 1.46163E-35
2.27680E-01 1.00639E-35
2.31350E-01 6.67641E-36
2.35040E-01 4.22104E-36
2.38751E-01 2.50099E-36
2.42481E-01 1.35418E-36
2.46231E-01 6.46004E-37
2.50000E-01 2.66557E-37
2.53788E-01 1.27016E-37
2.57595E-01 1.56195E-37
2.61421E-01 2.97854E-37
2.65264E-01 5.08220E-37
2.69126E-01 7.53893E-37
2.73005E-01 1.01003E-36
2.76901E-01 1.25841E-36
2.80814E-01 1.48671E-36
2.84744E-01 1.68687E-36
2.88691E-01 1.85396E-36
2.92653E-01 1.98631E-36
2.96632E-01 2.08362E-36
3.00625E-01 2.14716E-36
3.04634E-01 2.17904E-36
3.08658E-01 2.18261E-36
3.12697E-01 2.16115E-36
3.16749E-01 2.11766E-36
3.20816E-01 2.05609E-36
3.24896E-01 1.97988E-36
3.28990E-01 1.89177E-36
3.33097E-01 1.79513E-36
3.37216E-01 1.69214E-36
3.41348E-01 1.58546E-36
3.45492E-01 1.47696E-36
3.49647E-01 1.36874E-36
3.53814E-01 1.26181E-36
3.57992E-01 1.15753E-36
3.62181E-01 1.05700E-36
3.66381E-01 9.60669E-37
3.70590E-01 8.69360E-37
3.74810E-01 7.83505E-37
3.79039E-01 7.03159E-37
3.83277E-01 6.28377E-37
3.87524E-01 5.59332E-37
3.91780E-01 4.95774E-37
3.96044E-01 4.37790E-37
4.00316E-01 3.85013E-37
4.04596E-01 3.37141E-37
4.08882E-01 2.94128E-37
4.13176E-01 2.55412E-37
4.17476E-01 2.20898E-37
4.21783E-01 1.90220E-37
4.26095E-01 1.62997E-37
4.30413E-01 1.39035E-37
4.34737E-01 1.17971E-37
4.39065E-01 9.96290E-38
4.43398E-01 8.36419E-38
4.47736E-01 6.97903E-38
4.52077E-01 5.78996E-38
4.56422E-01 4.76873E-38
4.60770E-01 3.89906E-38
4.65122E-01 3.16171E-38
4.69476E-01 2.54300E-38
4.73832E-01 2.02177E-38
4.78190E-01 1.59220E-38
4.82550E-01 1.23669E-38
4.86912E-01 9.47712E-39
4.91274E-01 7.13191E-39
4.95637E-01 5.26944E-39
5.00000E-01 3.79471E-39
5.04363E-01 2.64747E-39
5.08726E-01 1.77765E-39
5.13088E-01 1.13452E-39
5.17450E-01 6.75486E-40
5.21810E-01 3.62073E-40
5.26168E-01 1.68017E-40
5.30524E-01 1.00000E-45
5.34878E-01 1.00000E-45
5.39230E-01 1.00000E-45
5.43578E-01 1.00000E-45
5.47923E-01 1.00000E-45
5.52264E-01 1.00000E-45
5.56602E-01 1.00000E-45
5.60935E-01 1.00000E-45
5.65263E-01 1.00000E-45
5.69587E-01 1.00000E-45
5.73905E-01 1.00000E-45
5.78217E-01 1.00000E-45
5.82524E-01 1.00000E-45
5.86824E-01 1.00000E-45
5.91118E-01 1.00000E-45
5.95404E-01 1.00000E-45
5.99684E-01 1.00000E-45
6.03956E-01 1.00000E-45
6.08220E-01 1.00000E-45
6.12476E-01 1.00000E-45
6.16723E-01 1.00000E-45
6.20961E-01 1.00000E-45
6.25190E-01 1.00000E-45
6.29410E-01 1.00000E-45
6.33619E-01 1.00000E-45
6.37819E-01 1.00000E-45
6.42008E-01 1.00000E-45
6.46186E-01 1.00000E-45
6.50353E-01 1.00000E-45
6.54508E-01 1.00000E-45
6.58652E-01 1.00000E-45
6.62784E-01 1.00000E-45
6.66903E-01 1.00000E-45
6.71010E-01 1.00000E-45
6.75104E-01 1.00000E-45
6.79184E-01 1.00000E-45
6.83251E-01 1.00000E-45
6.87303E-01 1.00000E-45
6.91342E-01 1.00000E-45
6.95366E-01 1.00000E-45
6.99375E-01 1.00000E-45
7.03368E-01 1.00000E-45
7.07347E-01 1.00000E-45
7.11309E-01 1.00000E-45
7.15256E-01 1.00000E-45
7.19186E-01 1.00000E-45
7.23099E-01 1.00000E-45
7.26995E-01 1.00000E-45
7.30874E-01 1.00000E-45
7.34736E-01 1.00000E-45
7.38579E-01 1.00000E-45
7.42405E-01 1.00000E-45
7.46212E-01 1.00000E-45
7.50000E-01 1.00000E-45
7.53769E-01 1.00000E-45
7.57519E-01 1.00000E-45
7.61249E-01 1.00000E-45
7.64960E-01 1.00000E-45
7.68650E-01 1.00000E-45
7.72320E-01 1.00000E-45
7.75968E-01 1.00000E-45
7.79596E-01 1.00000E-45
7.83203E-01 1.00000E-45
7.86788E-01 1.00000E-45
7.90351E-01 1.00000E-45
7.93893E-01 1.00000E-45
7.97411E-01 1.00000E-45
8.00908E-01 1.00000E-45
8.04381E-01 1.00000E-45
8.07831E-01 1.00000E-45
8.11257E-01 1.00000E-45
8.14660E-01 1.00000E-45
8.18039E-01 1.00000E-45
8.21394E-01 1.00000E-45
8.24724E-01 1.00000E-45
8.28030E-01 1.00000E-45
8.31310E-01 1.00000E-45
8.34565E-01 1.00000E-45
8.37795E-01 1.00000E-45
8.40999E-01 1.00000E-45
8.44177E-01 1.00000E-45
8.47329E-01 1.00000E-45
8.50455E-01 1.00000E-45
8.53553E-01 1.00000E-45
8.56625E-01 1.00000E-45
8.59670E-01 1.00000E-45
8.62687E-01 1.00000E-45
8.65677E-01 1.00000E-45
8.68639E-01 1.00000E-45
8.71572E-01 1.00000E-45
8.74478E-01 1.00000E-45
8.77355E-01 1.00000E-45
8.80203E-01 1.00000E-45
8.83022E-01 1.00000E-45
8.85812E-01 1.00000E-45
8.88573E-01 1.00000E-45
8.91304E-01 1.00000E-45
8.94005E-01 1.00000E-45
8.96677E-01 1.00000E-45
8.99318E-01 1.00000E-45
9.01928E-01 1.00000E-45
9.04508E-01 1.00000E-45
9.07058E-01 1.00000E-45
9.09576E-01 1.00000E-45
9.12063E-01 1.00000E-45
9.14519E-01 1.00000E-45
9.16943E-01 1.00000E-45
9.19335E-01 1.00000E-45
9.21696E-01 1.00000E-45
9.24024E-01 1.00000E-45
9.26320E-01 1.00000E-45
9.28584E-01 1.00000E-45
9.30815E-01 1.00000E-45
9.33013E-01 1.00000E-45
9.35178E-01 1.00000E-45
9.37310E-01 1.00000E-45
9.39409E-01 1.00000E-45
9.41474E-01 1.00000E-45
9.43505E-01 1.00000E-45
9.45503E-01 1.00000E-45
9.47467E-01 1.00000E-45
9.49397E-01 1.00000E-45
9.51293E-01 1.00000E-45
9.53154E-01 1.00000E-45
9.54981E-01 1.00000E-45
9.56773E-01 1.00000E-45
9.58530E-01 1.00000E-45
9.60252E-01 1.00000E-45
9.61940E-01 1.00000E-45
9.63592E-01 1.00000E-45
9.65209E-01 1.00000E-45
9.66790E-01 1.00000E-45
9.68336E-01 1.00000E-45
9.69846E-01 1.00000E-45
9.71321E-01 1.00000E-45
9.72759E-01 1.00000E-45
9.74162E-01 1.00000E-45
9.75528E-01 1.00000E-45
9.76858E-01 1.00000E-45
9.78152E-01 1.00000E-45
9.79410E-01 1.00000E-45
9.80631E-01 1.00000E-45
9.81815E-01 1.00000E-45
9.82963E-01 1.00000E-45
9.84074E-01 1.00000E-45
9.85148E-01 1.00000E-45
9.86185E-01 1.00000E-45
9.87185E-01 1.00000E-45
9.88148E-01 1.00000E-45
9.89074E-01 1.00000E-45
9.89962E-01 1.00000E-45
9.90814E-01 1.00000E-45
9.91627E-01 1.00000E-45
9.92404E-01 1.00000E-45
9.93143E-01 1.00000E-45
9.93844E-01 1.00000E-45
9.94508E-01 1.00000E-45
9.95134E-01 1.00000E-45
9.95722E-01 1.00000E-45
9.96273E-01 1.00000E-45
9.96786E-01 1.00000E-45
9.97261E-01 1.00000E-45
9.97698E-01 1.00000E-45
9.98097E-01 1.00000E-45
9.98459E-01 1.00000E-45
9.98782E-01 1.00000E-45
9.99067E-01 1.00000E-45
9.99315E-01 1.00000E-45
9.99524E-01 1.00000E-45
9.99695E-01 1.00000E-45
9.99829E-01 1.00000E-45
9.99924E-01 1.00000E-45
9.99981E-01 1.00000E-45
1.00000E+00 1.00000E-45
