 #
 # Subroutine ELSEPA. Elastic scattering of electrons and positrons
 #                    by neutral atoms and positive ions
 #
 # Projectile: positron
 # Kinetic energy = 1.50000E+08 eV = 5.51240E+06 a.u.
 #
 # WARNING: High-energy factorization with free-atom DF screening.
 #          Absorption, polarization and exchange corrections are
 #          switched off.
 #          Phase shifts are calculated for the bare nucleus.
 #          Scattering amplitudes are not evaluated.
 #
 # Element:  B,  Z =   5,  atomic weight = 1.08110E+01 g/mol
 #
 # Nuclear model: Fermi distribution
 #                Average radius = 2.36595E-13 cm
 #                Skin thickness = 5.46000E-14 cm
 #
 # Number of electrons =  5
 #
 # Total elastic cross section = 2.13948E-19 cm**2 = 7.64023E-03 a0**2
 # 1st transport cross section = 2.52377E-27 cm**2 = 9.01253E-11 a0**2
 # 2nd transport cross section = 7.50959E-27 cm**2 = 2.68172E-10 a0**2
 #
 #
 # Differential cross section:                       MU=(1-COS(THETA))/2
 #
 #  THETA        MU          DCS          DCS        Sherman      error
 #  (deg)                 (cm**2/sr)   (a0**2/sr)    function
 #----------------------------------------------------------------------
0.00000E+00 6.77493E-11
7.61557E-13 6.73906E-11
1.18994E-12 6.71902E-11
1.71346E-12 6.69465E-11
2.33225E-12 6.66600E-11
3.04617E-12 6.63315E-11
3.85530E-12 6.59621E-11
4.75964E-12 6.55525E-11
5.75917E-12 6.51040E-11
6.85391E-12 6.46177E-11
8.04379E-12 6.40948E-11
9.32893E-12 6.35367E-11
1.07092E-11 6.29448E-11
1.21847E-11 6.23206E-11
1.37554E-11 6.16655E-11
1.54213E-11 6.09809E-11
1.71823E-11 6.02685E-11
1.90386E-11 5.95301E-11
2.09900E-11 5.87673E-11
2.30367E-11 5.79819E-11
2.51785E-11 5.71754E-11
2.74156E-11 5.63497E-11
2.97478E-11 5.55064E-11
3.21752E-11 5.46472E-11
3.46979E-11 5.37738E-11
3.73157E-11 5.28879E-11
4.00286E-11 5.19910E-11
4.28368E-11 5.10847E-11
4.57402E-11 5.01708E-11
4.87388E-11 4.92505E-11
5.18325E-11 4.83255E-11
5.50215E-11 4.73970E-11
5.83057E-11 4.64661E-11
6.16850E-11 4.55344E-11
6.51595E-11 4.46033E-11
6.87293E-11 4.36626E-11
7.23943E-11 4.26855E-11
7.61544E-11 4.17264E-11
1.18991E-10 3.29325E-11
1.71347E-10 2.53415E-11
2.33223E-10 1.91888E-11
3.04617E-10 1.44076E-11
3.85531E-10 1.07921E-11
4.75965E-10 8.10257E-12
5.75917E-10 6.11841E-12
6.85389E-10 4.65824E-12
8.04380E-10 3.58171E-12
9.32891E-10 2.78409E-12
1.07092E-09 2.18889E-12
1.21847E-09 1.74090E-12
1.37554E-09 1.40047E-12
1.54213E-09 1.13915E-12
1.71823E-09 9.35718E-13
1.90386E-09 7.77145E-13
2.09900E-09 6.51707E-13
2.30367E-09 5.51341E-13
2.51785E-09 4.70164E-13
2.74156E-09 4.03869E-13
2.97478E-09 3.49264E-13
3.21752E-09 3.03950E-13
3.46978E-09 2.66087E-13
3.73156E-09 2.34238E-13
4.00286E-09 2.07264E-13
4.28368E-09 1.84262E-13
4.57402E-09 1.64513E-13
4.87388E-09 1.47447E-13
5.18326E-09 1.32615E-13
5.50215E-09 1.19660E-13
5.83057E-09 1.08297E-13
6.16850E-09 9.82941E-14
6.51596E-09 8.94591E-14
6.87293E-09 8.16150E-14
7.23942E-09 7.46022E-14
7.61544E-09 6.83766E-14
1.18991E-08 3.14995E-14
1.71347E-08 1.64459E-14
2.33223E-08 9.35187E-15
3.04617E-08 5.67648E-15
3.85531E-08 3.62726E-15
4.75965E-08 2.41797E-15
5.75917E-08 1.66998E-15
6.85389E-08 1.18839E-15
8.04380E-08 8.67687E-16
9.32891E-08 6.47786E-16
1.07092E-07 4.93073E-16
1.21847E-07 3.81773E-16
1.37554E-07 3.00098E-16
1.54213E-07 2.39090E-16
1.71823E-07 1.92799E-16
1.90386E-07 1.57169E-16
2.09900E-07 1.29391E-16
2.30367E-07 1.07480E-16
2.51785E-07 9.00117E-17
2.74156E-07 7.59491E-17
2.97478E-07 6.45264E-17
3.21752E-07 5.51711E-17
3.46978E-07 4.74503E-17
3.73156E-07 4.10334E-17
4.00286E-07 3.56649E-17
4.28368E-07 3.11460E-17
4.57402E-07 2.73203E-17
4.87388E-07 2.40643E-17
5.18325E-07 2.12790E-17
5.50215E-07 1.88848E-17
5.83057E-07 1.68178E-17
6.16850E-07 1.50260E-17
6.51596E-07 1.34665E-17
6.87293E-07 1.21043E-17
7.23942E-07 1.09100E-17
7.61543E-07 9.85938E-18
1.18991E-06 4.03889E-18
1.71347E-06 1.94787E-18
2.33223E-06 1.05144E-18
3.04617E-06 6.16337E-19
3.85531E-06 3.84775E-19
4.75964E-06 2.52449E-19
5.75916E-06 1.72423E-19
6.85388E-06 1.21741E-19
8.04378E-06 8.83852E-20
9.32888E-06 6.57102E-20
1.07092E-05 4.98622E-20
1.21846E-05 3.85165E-20
1.37553E-05 3.02219E-20
1.54212E-05 2.40447E-20
1.71822E-05 1.93680E-20
1.90385E-05 1.57967E-20
2.09899E-05 1.29932E-20
2.30365E-05 1.07803E-20
2.51783E-05 9.01767E-21
2.74153E-05 7.60190E-21
2.97475E-05 6.45529E-21
3.21749E-05 5.51875E-21
3.46974E-05 4.74717E-21
3.73152E-05 4.10611E-21
4.00281E-05 3.56935E-21
4.28362E-05 3.11688E-21
4.57395E-05 2.73331E-21
4.87380E-05 2.40664E-21
5.18317E-05 2.12728E-21
5.50205E-05 1.88746E-21
5.83045E-05 1.68073E-21
6.16838E-05 1.50175E-21
6.51582E-05 1.34609E-21
6.87277E-05 1.21008E-21
7.23925E-05 1.09076E-21
7.61524E-05 9.85282E-22
9.21439E-05 6.72540E-22
1.09658E-04 4.74908E-22
1.28695E-04 3.44676E-22
1.49255E-04 2.56200E-22
1.71338E-04 1.94390E-22
1.94942E-04 1.50105E-22
2.20070E-04 1.17770E-22
2.46720E-04 9.36676E-23
2.74892E-04 7.54354E-23
3.04586E-04 6.14264E-23
3.35803E-04 5.05197E-23
3.68542E-04 4.19326E-23
4.02802E-04 3.50894E-23
4.38585E-04 2.95892E-23
4.75889E-04 2.51231E-23
5.14715E-04 2.14685E-23
5.55063E-04 1.84547E-23
5.96931E-04 1.59503E-23
6.40321E-04 1.38572E-23
6.85233E-04 1.20953E-23
7.31665E-04 1.06049E-23
7.79618E-04 9.33666E-24
8.29092E-04 8.25211E-24
8.80086E-04 7.32059E-24
9.32601E-04 6.51640E-24
9.86636E-04 5.81971E-24
1.04219E-03 5.21340E-24
1.09927E-03 4.68392E-24
1.15786E-03 4.21990E-24
1.21797E-03 3.81174E-24
1.27961E-03 3.45175E-24
1.34276E-03 3.13309E-24
1.40743E-03 2.85034E-24
1.47362E-03 2.59868E-24
1.54133E-03 2.37411E-24
1.61056E-03 2.17325E-24
1.68131E-03 1.99309E-24
1.75357E-03 1.83120E-24
1.82735E-03 1.68535E-24
1.90265E-03 1.55369E-24
1.97947E-03 1.43461E-24
2.05780E-03 1.32666E-24
2.13765E-03 1.22866E-24
2.21902E-03 1.13950E-24
2.30190E-03 1.05826E-24
2.38630E-03 9.84097E-25
2.47222E-03 9.16290E-25
2.55965E-03 8.54207E-25
2.64859E-03 7.97262E-25
2.73905E-03 7.44970E-25
2.83103E-03 6.96871E-25
2.92452E-03 6.52574E-25
3.01952E-03 6.11726E-25
3.11604E-03 5.74004E-25
3.21407E-03 5.39134E-25
3.31362E-03 5.06854E-25
3.41468E-03 4.76943E-25
3.51725E-03 4.49192E-25
3.62133E-03 4.23417E-25
3.72692E-03 3.99456E-25
3.83403E-03 3.77153E-25
3.94265E-03 3.56376E-25
4.05278E-03 3.37000E-25
4.16442E-03 3.18914E-25
4.27757E-03 3.02017E-25
4.39223E-03 2.86215E-25
4.50840E-03 2.71427E-25
4.62608E-03 2.57574E-25
4.74527E-03 2.44586E-25
4.86597E-03 2.32401E-25
4.98817E-03 2.20958E-25
5.11188E-03 2.10205E-25
5.23711E-03 2.00093E-25
5.36383E-03 1.90576E-25
5.49207E-03 1.81613E-25
5.62181E-03 1.73166E-25
5.75306E-03 1.65200E-25
5.88581E-03 1.57682E-25
6.02007E-03 1.50583E-25
6.15583E-03 1.43874E-25
6.29310E-03 1.37532E-25
6.43187E-03 1.31531E-25
6.57214E-03 1.25850E-25
6.71392E-03 1.20470E-25
6.85720E-03 1.15370E-25
7.00198E-03 1.10535E-25
7.14827E-03 1.05947E-25
7.29605E-03 1.01592E-25
7.44534E-03 9.74559E-26
7.59612E-03 9.35252E-26
7.97965E-03 8.45217E-26
8.37255E-03 7.65627E-26
8.77480E-03 6.95069E-26
9.18641E-03 6.32346E-26
9.60736E-03 5.76442E-26
1.00376E-02 5.26490E-26
1.04773E-02 4.81751E-26
1.09262E-02 4.41589E-26
1.13844E-02 4.05457E-26
1.18520E-02 3.72881E-26
1.23288E-02 3.43454E-26
1.28150E-02 3.16818E-26
1.33104E-02 2.92665E-26
1.38150E-02 2.70724E-26
1.43290E-02 2.50758E-26
1.48521E-02 2.32560E-26
1.53845E-02 2.15946E-26
1.59262E-02 2.00754E-26
1.64770E-02 1.86844E-26
1.70371E-02 1.74088E-26
1.76063E-02 1.62375E-26
1.81848E-02 1.51604E-26
1.87724E-02 1.41688E-26
1.93692E-02 1.32546E-26
1.99751E-02 1.24109E-26
2.05901E-02 1.16313E-26
2.12143E-02 1.09101E-26
2.18476E-02 1.02422E-26
2.24900E-02 9.62295E-27
2.31415E-02 9.04828E-27
2.38021E-02 8.51443E-27
2.44717E-02 8.01800E-27
2.51504E-02 7.55595E-27
2.58382E-02 7.12550E-27
2.65349E-02 6.72411E-27
2.72407E-02 6.34952E-27
2.79555E-02 5.99963E-27
2.86793E-02 5.67255E-27
2.94120E-02 5.36654E-27
3.01537E-02 5.08003E-27
3.09043E-02 4.81157E-27
3.16639E-02 4.55983E-27
3.24324E-02 4.32361E-27
3.32098E-02 4.10179E-27
3.39961E-02 3.89336E-27
3.47912E-02 3.69737E-27
3.55952E-02 3.51296E-27
3.64081E-02 3.33934E-27
3.72297E-02 3.17578E-27
3.80602E-02 3.02159E-27
3.88995E-02 2.87616E-27
3.97476E-02 2.73891E-27
4.06044E-02 2.60931E-27
4.14700E-02 2.48687E-27
4.23443E-02 2.37112E-27
4.32273E-02 2.26164E-27
4.41190E-02 2.15804E-27
4.50194E-02 2.05996E-27
4.59284E-02 1.96705E-27
4.68461E-02 1.87901E-27
4.87074E-02 1.71635E-27
5.06030E-02 1.56986E-27
5.25328E-02 1.43771E-27
5.44967E-02 1.31829E-27
5.64946E-02 1.21021E-27
5.85262E-02 1.11223E-27
6.05914E-02 1.02329E-27
6.26901E-02 9.42430E-28
6.48222E-02 8.68821E-28
6.69873E-02 8.01723E-28
6.91854E-02 7.40484E-28
7.14163E-02 6.84524E-28
7.36799E-02 6.33328E-28
7.59760E-02 5.86438E-28
7.83043E-02 5.43444E-28
8.06647E-02 5.03982E-28
8.30571E-02 4.67726E-28
8.54812E-02 4.34381E-28
8.79369E-02 4.03686E-28
9.04240E-02 3.75404E-28
9.29422E-02 3.49323E-28
9.54915E-02 3.25251E-28
9.80716E-02 3.03014E-28
1.00682E-01 2.82458E-28
1.03323E-01 2.63439E-28
1.05995E-01 2.45831E-28
1.08696E-01 2.29517E-28
1.11427E-01 2.14390E-28
1.14188E-01 2.00356E-28
1.16978E-01 1.87327E-28
1.19797E-01 1.75223E-28
1.22645E-01 1.63972E-28
1.25522E-01 1.53508E-28
1.28428E-01 1.43769E-28
1.31361E-01 1.34701E-28
1.34323E-01 1.26253E-28
1.37313E-01 1.18378E-28
1.40330E-01 1.11034E-28
1.43375E-01 1.04181E-28
1.46447E-01 9.77843E-29
1.49545E-01 9.18099E-29
1.52671E-01 8.62275E-29
1.55823E-01 8.10093E-29
1.59001E-01 7.61295E-29
1.62205E-01 7.15641E-29
1.65435E-01 6.72913E-29
1.68690E-01 6.32907E-29
1.71970E-01 5.95435E-29
1.75276E-01 5.60326E-29
1.78606E-01 5.27417E-29
1.81961E-01 4.96560E-29
1.85340E-01 4.67618E-29
1.88743E-01 4.40463E-29
1.92169E-01 4.14976E-29
1.95619E-01 3.91049E-29
1.99092E-01 3.68577E-29
2.02589E-01 3.47468E-29
2.06107E-01 3.27632E-29
2.09649E-01 3.08988E-29
2.13212E-01 2.91459E-29
2.16797E-01 2.74975E-29
2.20404E-01 2.59468E-29
2.24032E-01 2.44879E-29
2.27680E-01 2.31148E-29
2.31350E-01 2.18223E-29
2.35040E-01 2.06053E-29
2.38751E-01 1.94592E-29
2.42481E-01 1.83797E-29
2.46231E-01 1.73625E-29
2.50000E-01 1.64040E-29
2.53788E-01 1.55006E-29
2.57595E-01 1.46489E-29
2.61421E-01 1.38459E-29
2.65264E-01 1.30885E-29
2.69126E-01 1.23742E-29
2.73005E-01 1.17002E-29
2.76901E-01 1.10643E-29
2.80814E-01 1.04642E-29
2.84744E-01 9.89777E-30
2.88691E-01 9.36303E-30
2.92653E-01 8.85815E-30
2.96632E-01 8.38138E-30
3.00625E-01 7.93109E-30
3.04634E-01 7.50575E-30
3.08658E-01 7.10393E-30
3.12697E-01 6.72427E-30
3.16749E-01 6.36550E-30
3.20816E-01 6.02642E-30
3.24896E-01 5.70593E-30
3.28990E-01 5.40295E-30
3.33097E-01 5.11650E-30
3.37216E-01 4.84565E-30
3.41348E-01 4.58951E-30
3.45492E-01 4.34727E-30
3.49647E-01 4.11813E-30
3.53814E-01 3.90138E-30
3.57992E-01 3.69631E-30
3.62181E-01 3.50229E-30
3.66381E-01 3.31868E-30
3.70590E-01 3.14493E-30
3.74810E-01 2.98049E-30
3.79039E-01 2.82483E-30
3.83277E-01 2.67748E-30
3.87524E-01 2.53799E-30
3.91780E-01 2.40592E-30
3.96044E-01 2.28086E-30
4.00316E-01 2.16244E-30
4.04596E-01 2.05030E-30
4.08882E-01 1.94408E-30
4.13176E-01 1.84348E-30
4.17476E-01 1.74818E-30
4.21783E-01 1.65791E-30
4.26095E-01 1.57238E-30
4.30413E-01 1.49135E-30
4.34737E-01 1.41457E-30
4.39065E-01 1.34181E-30
4.43398E-01 1.27286E-30
4.47736E-01 1.20752E-30
4.52077E-01 1.14559E-30
4.56422E-01 1.08689E-30
4.60770E-01 1.03124E-30
4.65122E-01 9.78495E-31
4.69476E-01 9.28490E-31
4.73832E-01 8.81081E-31
4.78190E-01 8.36132E-31
4.82550E-01 7.93511E-31
4.86912E-01 7.53097E-31
4.91274E-01 7.14773E-31
4.95637E-01 6.78428E-31
5.00000E-01 6.43959E-31
5.04363E-01 6.11267E-31
5.08726E-01 5.80259E-31
5.13088E-01 5.50847E-31
5.17450E-01 5.22947E-31
5.21810E-01 4.96479E-31
5.26168E-01 4.71370E-31
5.30524E-01 4.47548E-31
5.34878E-01 4.24947E-31
5.39230E-01 4.03503E-31
5.43578E-01 3.83155E-31
5.47923E-01 3.63847E-31
5.52264E-01 3.45524E-31
5.56602E-01 3.28136E-31
5.60935E-01 3.11635E-31
5.65263E-01 2.95973E-31
5.69587E-01 2.81109E-31
5.73905E-01 2.67000E-31
5.78217E-01 2.53608E-31
5.82524E-01 2.40897E-31
5.86824E-01 2.28830E-31
5.91118E-01 2.17374E-31
5.95404E-01 2.06499E-31
5.99684E-01 1.96175E-31
6.03956E-01 1.86372E-31
6.08220E-01 1.77066E-31
6.12476E-01 1.68229E-31
6.16723E-01 1.59838E-31
6.20961E-01 1.51870E-31
6.25190E-01 1.44304E-31
6.29410E-01 1.37119E-31
6.33619E-01 1.30295E-31
6.37819E-01 1.23815E-31
6.42008E-01 1.17661E-31
6.46186E-01 1.11815E-31
6.50353E-01 1.06263E-31
6.54508E-01 1.00990E-31
6.58652E-01 9.59806E-32
6.62784E-01 9.12223E-32
6.66903E-01 8.67024E-32
6.71010E-01 8.24086E-32
6.75104E-01 7.83292E-32
6.79184E-01 7.44538E-32
6.83251E-01 7.07721E-32
6.87303E-01 6.72739E-32
6.91342E-01 6.39502E-32
6.95366E-01 6.07921E-32
6.99375E-01 5.77915E-32
7.03368E-01 5.49400E-32
7.07347E-01 5.22306E-32
7.11309E-01 4.96558E-32
7.15256E-01 4.72089E-32
7.19186E-01 4.48836E-32
7.23099E-01 4.26737E-32
7.26995E-01 4.05733E-32
7.30874E-01 3.85770E-32
7.34736E-01 3.66797E-32
7.38579E-01 3.48761E-32
7.42405E-01 3.31620E-32
7.46212E-01 3.15326E-32
7.50000E-01 2.99837E-32
7.53769E-01 2.85112E-32
7.57519E-01 2.71115E-32
7.61249E-01 2.57808E-32
7.64960E-01 2.45157E-32
7.68650E-01 2.33130E-32
7.72320E-01 2.21695E-32
7.75968E-01 2.10822E-32
7.79596E-01 2.00485E-32
7.83203E-01 1.90656E-32
7.86788E-01 1.81310E-32
7.90351E-01 1.72422E-32
7.93893E-01 1.63970E-32
7.97411E-01 1.55933E-32
8.00908E-01 1.48291E-32
8.04381E-01 1.41022E-32
8.07831E-01 1.34110E-32
8.11257E-01 1.27536E-32
8.14660E-01 1.21283E-32
8.18039E-01 1.15336E-32
8.21394E-01 1.09680E-32
8.24724E-01 1.04300E-32
8.28030E-01 9.91814E-33
8.31310E-01 9.43132E-33
8.34565E-01 8.96826E-33
8.37795E-01 8.52779E-33
8.40999E-01 8.10868E-33
8.44177E-01 7.71000E-33
8.47329E-01 7.33077E-33
8.50455E-01 6.96993E-33
8.53553E-01 6.62662E-33
8.56625E-01 6.29996E-33
8.59670E-01 5.98918E-33
8.62687E-01 5.69351E-33
8.65677E-01 5.41216E-33
8.68639E-01 5.14445E-33
8.71572E-01 4.88965E-33
8.74478E-01 4.64727E-33
8.77355E-01 4.41656E-33
8.80203E-01 4.19703E-33
8.83022E-01 3.98812E-33
8.85812E-01 3.78933E-33
8.88573E-01 3.60011E-33
8.91304E-01 3.42001E-33
8.94005E-01 3.24864E-33
8.96677E-01 3.08550E-33
8.99318E-01 2.93028E-33
9.01928E-01 2.78250E-33
9.04508E-01 2.64186E-33
9.07058E-01 2.50799E-33
9.09576E-01 2.38058E-33
9.12063E-01 2.25927E-33
9.14519E-01 2.14380E-33
9.16943E-01 2.03392E-33
9.19335E-01 1.92932E-33
9.21696E-01 1.82971E-33
9.24024E-01 1.73491E-33
9.26320E-01 1.64470E-33
9.28584E-01 1.55880E-33
9.30815E-01 1.47702E-33
9.33013E-01 1.39919E-33
9.35178E-01 1.32508E-33
9.37310E-01 1.25453E-33
9.39409E-01 1.18739E-33
9.41474E-01 1.12349E-33
9.43505E-01 1.06267E-33
9.45503E-01 1.00472E-33
9.47467E-01 9.49603E-34
9.49397E-01 8.97149E-34
9.51293E-01 8.47205E-34
9.53154E-01 7.99710E-34
9.54981E-01 7.54470E-34
9.56773E-01 7.11422E-34
9.58530E-01 6.70465E-34
9.60252E-01 6.31491E-34
9.61940E-01 5.94424E-34
9.63592E-01 5.59142E-34
9.65209E-01 5.25606E-34
9.66790E-01 4.93696E-34
9.68336E-01 4.63344E-34
9.69846E-01 4.34492E-34
9.71321E-01 4.07066E-34
9.72759E-01 3.81008E-34
9.74162E-01 3.56233E-34
9.75528E-01 3.32688E-34
9.76858E-01 3.10355E-34
9.78152E-01 2.89124E-34
9.79410E-01 2.68984E-34
9.80631E-01 2.49874E-34
9.81815E-01 2.31755E-34
9.82963E-01 2.14571E-34
9.84074E-01 1.98293E-34
9.85148E-01 1.82886E-34
9.86185E-01 1.68314E-34
9.87185E-01 1.54520E-34
9.88148E-01 1.41496E-34
9.89074E-01 1.29207E-34
9.89962E-01 1.17620E-34
9.90814E-01 1.06710E-34
9.91627E-01 9.64420E-35
9.92404E-01 8.68090E-35
9.93143E-01 7.77732E-35
9.93844E-01 6.93208E-35
9.94508E-01 6.14413E-35
9.95134E-01 5.40835E-35
9.95722E-01 4.72809E-35
9.96273E-01 4.09699E-35
9.96786E-01 3.51711E-35
9.97261E-01 2.98380E-35
9.97698E-01 2.49836E-35
9.98097E-01 2.05845E-35
9.98459E-01 1.66350E-35
9.98782E-01 1.31267E-35
9.99067E-01 1.00521E-35
9.99315E-01 7.40268E-36
9.99524E-01 5.17318E-36
9.99695E-01 3.35425E-36
9.99829E-01 1.93976E-36
9.99924E-01 9.34310E-37
9.99981E-01 3.32020E-37
1.00000E+00 1.33288E-37
