 #
 # Subroutine ELSEPA. Elastic scattering of electrons and positrons
 #                    by neutral atoms and positive ions
 #
 # Projectile: positron
 # Kinetic energy = 2.50000E+07 eV = 9.18733E+05 a.u.
 #
 # WARNING: High-energy factorization with free-atom DF screening.
 #          Absorption, polarization and exchange corrections are
 #          switched off.
 #          Phase shifts are calculated for the bare nucleus.
 #          Scattering amplitudes are not evaluated.
 #
 # Element:  B,  Z =   5,  atomic weight = 1.08110E+01 g/mol
 #
 # Nuclear model: Fermi distribution
 #                Average radius = 2.36595E-13 cm
 #                Skin thickness = 5.46000E-14 cm
 #
 # Number of electrons =  5
 #
 # Total elastic cross section = 2.14113E-19 cm**2 = 7.64612E-03 a0**2
 # 1st transport cross section = 7.69132E-26 cm**2 = 2.74662E-09 a0**2
 # 2nd transport cross section = 2.23849E-25 cm**2 = 7.99380E-09 a0**2
 #
 #
 # Differential cross section:                       MU=(1-COS(THETA))/2
 #
 #  THETA        MU          DCS          DCS        Sherman      error
 #  (deg)                 (cm**2/sr)   (a0**2/sr)    function
 #----------------------------------------------------------------------
0.00000E+00 1.94636E-12
7.61557E-13 1.94606E-12
1.18994E-12 1.94589E-12
1.71346E-12 1.94569E-12
2.33225E-12 1.94545E-12
3.04617E-12 1.94517E-12
3.85530E-12 1.94485E-12
4.75964E-12 1.94450E-12
5.75917E-12 1.94411E-12
6.85391E-12 1.94368E-12
8.04379E-12 1.94322E-12
9.32893E-12 1.94272E-12
1.07092E-11 1.94219E-12
1.21847E-11 1.94161E-12
1.37554E-11 1.94100E-12
1.54213E-11 1.94036E-12
1.71823E-11 1.93967E-12
1.90386E-11 1.93895E-12
2.09900E-11 1.93820E-12
2.30367E-11 1.93740E-12
2.51785E-11 1.93657E-12
2.74156E-11 1.93571E-12
2.97478E-11 1.93481E-12
3.21752E-11 1.93387E-12
3.46979E-11 1.93290E-12
3.73157E-11 1.93189E-12
4.00286E-11 1.93084E-12
4.28368E-11 1.92976E-12
4.57402E-11 1.92864E-12
4.87388E-11 1.92749E-12
5.18325E-11 1.92630E-12
5.50215E-11 1.92508E-12
5.83057E-11 1.92382E-12
6.16850E-11 1.92252E-12
6.51595E-11 1.92119E-12
6.87293E-11 1.91983E-12
7.23943E-11 1.91843E-12
7.61544E-11 1.91699E-12
1.18991E-10 1.90076E-12
1.71347E-10 1.88117E-12
2.33223E-10 1.85837E-12
3.04617E-10 1.83256E-12
3.85531E-10 1.80390E-12
4.75965E-10 1.77260E-12
5.75917E-10 1.73887E-12
6.85389E-10 1.70294E-12
8.04380E-10 1.66506E-12
9.32891E-10 1.62546E-12
1.07092E-09 1.58435E-12
1.21847E-09 1.54197E-12
1.37554E-09 1.49858E-12
1.54213E-09 1.45440E-12
1.71823E-09 1.40966E-12
1.90386E-09 1.36451E-12
2.09900E-09 1.31917E-12
2.30367E-09 1.27385E-12
2.51785E-09 1.22696E-12
2.74156E-09 1.18055E-12
2.97478E-09 1.13571E-12
3.21752E-09 1.09248E-12
3.46978E-09 1.05089E-12
3.73156E-09 1.01032E-12
4.00286E-09 9.67161E-13
4.28368E-09 9.25953E-13
4.57402E-09 8.86665E-13
4.87388E-09 8.49250E-13
5.18326E-09 8.13654E-13
5.50215E-09 7.77724E-13
5.83057E-09 7.41990E-13
6.16850E-09 7.08151E-13
6.51596E-09 6.76122E-13
6.87293E-09 6.45819E-13
7.23942E-09 6.17158E-13
7.61544E-09 5.87543E-13
1.18991E-08 3.61647E-13
1.71347E-08 2.22009E-13
2.33223E-08 1.38855E-13
3.04617E-08 8.93004E-14
3.85531E-08 5.92986E-14
4.75965E-08 4.06954E-14
5.75917E-08 2.88150E-14
6.85389E-08 2.10251E-14
8.04380E-08 1.57613E-14
9.32891E-08 1.20892E-14
1.07092E-07 9.45819E-15
1.21847E-07 7.53168E-15
1.37554E-07 6.09295E-15
1.54213E-07 4.99729E-15
1.71823E-07 4.14675E-15
1.90386E-07 3.47514E-15
2.09900E-07 2.93793E-15
2.30367E-07 2.50376E-15
2.51785E-07 2.14760E-15
2.74156E-07 1.85541E-15
2.97478E-07 1.61179E-15
3.21752E-07 1.40676E-15
3.46978E-07 1.23447E-15
3.73156E-07 1.08688E-15
4.00286E-07 9.62028E-16
4.28368E-07 8.53190E-16
4.57402E-07 7.60194E-16
4.87388E-07 6.78868E-16
5.18325E-07 6.08364E-16
5.50215E-07 5.46612E-16
5.83057E-07 4.92410E-16
6.16850E-07 4.44808E-16
6.51596E-07 4.02537E-16
6.87293E-07 3.65343E-16
7.23942E-07 3.32055E-16
7.61543E-07 3.02628E-16
1.18991E-06 1.31152E-16
1.71347E-06 6.51280E-17
2.33223E-06 3.57142E-17
3.04617E-06 2.11251E-17
3.85531E-06 1.32595E-17
4.75964E-06 8.72876E-18
5.75916E-06 5.97470E-18
6.85388E-06 4.22457E-18
8.04378E-06 3.07013E-18
9.32888E-06 2.28408E-18
1.07092E-05 1.73408E-18
1.21846E-05 1.34000E-18
1.37553E-05 1.05171E-18
1.54212E-05 8.36921E-19
1.71822E-05 6.74248E-19
1.90385E-05 5.49972E-19
2.09899E-05 4.52389E-19
2.30365E-05 3.75362E-19
2.51783E-05 3.14005E-19
2.74153E-05 2.64718E-19
2.97475E-05 2.24797E-19
3.21749E-05 1.92188E-19
3.46974E-05 1.65320E-19
3.73152E-05 1.42998E-19
4.00281E-05 1.24306E-19
4.28362E-05 1.08550E-19
4.57395E-05 9.51937E-20
4.87380E-05 8.38182E-20
5.18317E-05 7.40901E-20
5.50205E-05 6.57382E-20
5.83045E-05 5.85387E-20
6.16838E-05 5.23054E-20
6.51582E-05 4.68840E-20
6.87277E-05 4.21473E-20
7.23925E-05 3.79913E-20
7.61524E-05 3.43313E-20
9.21439E-05 2.34368E-20
1.09658E-04 1.65514E-20
1.28695E-04 1.20140E-20
1.49255E-04 8.93112E-21
1.71338E-04 6.77725E-21
1.94942E-04 5.23401E-21
2.20070E-04 4.10709E-21
2.46720E-04 3.26702E-21
2.74892E-04 2.63150E-21
3.04586E-04 2.14315E-21
3.35803E-04 1.76291E-21
3.68542E-04 1.46352E-21
4.02802E-04 1.22491E-21
4.38585E-04 1.03310E-21
4.75889E-04 8.77343E-22
5.14715E-04 7.49872E-22
5.55063E-04 6.44743E-22
5.96931E-04 5.57374E-22
6.40321E-04 4.84343E-22
6.85233E-04 4.22862E-22
7.31665E-04 3.70846E-22
7.79618E-04 3.26581E-22
8.29092E-04 2.88721E-22
8.80086E-04 2.56199E-22
9.32601E-04 2.28119E-22
9.86636E-04 2.03788E-22
1.04219E-03 1.82611E-22
1.09927E-03 1.64115E-22
1.15786E-03 1.47903E-22
1.21797E-03 1.33640E-22
1.27961E-03 1.21059E-22
1.34276E-03 1.09920E-22
1.40743E-03 1.00034E-22
1.47362E-03 9.12347E-23
1.54133E-03 8.33805E-23
1.61056E-03 7.63544E-23
1.68131E-03 7.00512E-23
1.75357E-03 6.43860E-23
1.82735E-03 5.92811E-23
1.90265E-03 5.46721E-23
1.97947E-03 5.05024E-23
2.05780E-03 4.67220E-23
2.13765E-03 4.32892E-23
2.21902E-03 4.01652E-23
2.30190E-03 3.73181E-23
2.38630E-03 3.47186E-23
2.47222E-03 3.23413E-23
2.55965E-03 3.01641E-23
2.64859E-03 2.81666E-23
2.73905E-03 2.63319E-23
2.83103E-03 2.46440E-23
2.92452E-03 2.30890E-23
3.01952E-03 2.16548E-23
3.11604E-03 2.03299E-23
3.21407E-03 1.91049E-23
3.31362E-03 1.79706E-23
3.41468E-03 1.69193E-23
3.51725E-03 1.59436E-23
3.62133E-03 1.50371E-23
3.72692E-03 1.41942E-23
3.83403E-03 1.34094E-23
3.94265E-03 1.26781E-23
4.05278E-03 1.19958E-23
4.16442E-03 1.13589E-23
4.27757E-03 1.07636E-23
4.39223E-03 1.02067E-23
4.50840E-03 9.68537E-24
4.62608E-03 9.19683E-24
4.74527E-03 8.73869E-24
4.86597E-03 8.30870E-24
4.98817E-03 7.90478E-24
5.11188E-03 7.52511E-24
5.23711E-03 7.16790E-24
5.36383E-03 6.83163E-24
5.49207E-03 6.51482E-24
5.62181E-03 6.21613E-24
5.75306E-03 5.93436E-24
5.88581E-03 5.66833E-24
6.02007E-03 5.41704E-24
6.15583E-03 5.17949E-24
6.29310E-03 4.95480E-24
6.43187E-03 4.74215E-24
6.57214E-03 4.54076E-24
6.71392E-03 4.34995E-24
6.85720E-03 4.16903E-24
7.00198E-03 3.99741E-24
7.14827E-03 3.83451E-24
7.29605E-03 3.67981E-24
7.44534E-03 3.53282E-24
7.59612E-03 3.39309E-24
7.97965E-03 3.07277E-24
8.37255E-03 2.78931E-24
8.77480E-03 2.53774E-24
9.18641E-03 2.31386E-24
9.60736E-03 2.11408E-24
1.00376E-02 1.93536E-24
1.04773E-02 1.77510E-24
1.09262E-02 1.63105E-24
1.13844E-02 1.50130E-24
1.18520E-02 1.38416E-24
1.23288E-02 1.27820E-24
1.28150E-02 1.18217E-24
1.33104E-02 1.09496E-24
1.38150E-02 1.01563E-24
1.43290E-02 9.43340E-25
1.48521E-02 8.77349E-25
1.53845E-02 8.17013E-25
1.59262E-02 7.61761E-25
1.64770E-02 7.11088E-25
1.70371E-02 6.64546E-25
1.76063E-02 6.21738E-25
1.81848E-02 5.82312E-25
1.87724E-02 5.45951E-25
1.93692E-02 5.12375E-25
1.99751E-02 4.81332E-25
2.05901E-02 4.52596E-25
2.12143E-02 4.25965E-25
2.18476E-02 4.01257E-25
2.24900E-02 3.78308E-25
2.31415E-02 3.56970E-25
2.38021E-02 3.37109E-25
2.44717E-02 3.18604E-25
2.51504E-02 3.01347E-25
2.58382E-02 2.85237E-25
2.65349E-02 2.70184E-25
2.72407E-02 2.56107E-25
2.79555E-02 2.42931E-25
2.86793E-02 2.30587E-25
2.94120E-02 2.19013E-25
3.01537E-02 2.08153E-25
3.09043E-02 1.97954E-25
3.16639E-02 1.88369E-25
3.24324E-02 1.79354E-25
3.32098E-02 1.70869E-25
3.39961E-02 1.62877E-25
3.47912E-02 1.55344E-25
3.55952E-02 1.48239E-25
3.64081E-02 1.41534E-25
3.72297E-02 1.35200E-25
3.80602E-02 1.29215E-25
3.88995E-02 1.23556E-25
3.97476E-02 1.18201E-25
4.06044E-02 1.13131E-25
4.14700E-02 1.08328E-25
4.23443E-02 1.03775E-25
4.32273E-02 9.94575E-26
4.41190E-02 9.53606E-26
4.50194E-02 9.14709E-26
4.59284E-02 8.77761E-26
4.68461E-02 8.42645E-26
4.87074E-02 7.77488E-26
5.06030E-02 7.18462E-26
5.25328E-02 6.64888E-26
5.44967E-02 6.16176E-26
5.64946E-02 5.71806E-26
5.85262E-02 5.31325E-26
6.05914E-02 4.94330E-26
6.26901E-02 4.60471E-26
6.48222E-02 4.29433E-26
6.69873E-02 4.00941E-26
6.91854E-02 3.74749E-26
7.14163E-02 3.50638E-26
7.36799E-02 3.28414E-26
7.59760E-02 3.07904E-26
7.83043E-02 2.88951E-26
8.06647E-02 2.71417E-26
8.30571E-02 2.55176E-26
8.54812E-02 2.40116E-26
8.79369E-02 2.26137E-26
9.04240E-02 2.13147E-26
9.29422E-02 2.01063E-26
9.54915E-02 1.89811E-26
9.80716E-02 1.79324E-26
1.00682E-01 1.69540E-26
1.03323E-01 1.60405E-26
1.05995E-01 1.51866E-26
1.08696E-01 1.43879E-26
1.11427E-01 1.36401E-26
1.14188E-01 1.29395E-26
1.16978E-01 1.22824E-26
1.19797E-01 1.16658E-26
1.22645E-01 1.10867E-26
1.25522E-01 1.05424E-26
1.28428E-01 1.00304E-26
1.31361E-01 9.54856E-27
1.34323E-01 9.09468E-27
1.37313E-01 8.66688E-27
1.40330E-01 8.26340E-27
1.43375E-01 7.88262E-27
1.46447E-01 7.52303E-27
1.49545E-01 7.18323E-27
1.52671E-01 6.86196E-27
1.55823E-01 6.55801E-27
1.59001E-01 6.27030E-27
1.62205E-01 5.99779E-27
1.65435E-01 5.73955E-27
1.68690E-01 5.49469E-27
1.71970E-01 5.26240E-27
1.75276E-01 5.04192E-27
1.78606E-01 4.83255E-27
1.81961E-01 4.63362E-27
1.85340E-01 4.44452E-27
1.88743E-01 4.26468E-27
1.92169E-01 4.09357E-27
1.95619E-01 3.93069E-27
1.99092E-01 3.77558E-27
2.02589E-01 3.62779E-27
2.06107E-01 3.48692E-27
2.09649E-01 3.35260E-27
2.13212E-01 3.22446E-27
2.16797E-01 3.10217E-27
2.20404E-01 2.98542E-27
2.24032E-01 2.87390E-27
2.27680E-01 2.76736E-27
2.31350E-01 2.66551E-27
2.35040E-01 2.56813E-27
2.38751E-01 2.47499E-27
2.42481E-01 2.38585E-27
2.46231E-01 2.30054E-27
2.50000E-01 2.21884E-27
2.53788E-01 2.14058E-27
2.57595E-01 2.06560E-27
2.61421E-01 1.99372E-27
2.65264E-01 1.92481E-27
2.69126E-01 1.85871E-27
2.73005E-01 1.79530E-27
2.76901E-01 1.73443E-27
2.80814E-01 1.67601E-27
2.84744E-01 1.61990E-27
2.88691E-01 1.56600E-27
2.92653E-01 1.51422E-27
2.96632E-01 1.46444E-27
3.00625E-01 1.41659E-27
3.04634E-01 1.37057E-27
3.08658E-01 1.32631E-27
3.12697E-01 1.28372E-27
3.16749E-01 1.24273E-27
3.20816E-01 1.20327E-27
3.24896E-01 1.16527E-27
3.28990E-01 1.12867E-27
3.33097E-01 1.09342E-27
3.37216E-01 1.05944E-27
3.41348E-01 1.02669E-27
3.45492E-01 9.95123E-28
3.49647E-01 9.64678E-28
3.53814E-01 9.35313E-28
3.57992E-01 9.06984E-28
3.62181E-01 8.79647E-28
3.66381E-01 8.53261E-28
3.70590E-01 8.27790E-28
3.74810E-01 8.03195E-28
3.79039E-01 7.79441E-28
3.83277E-01 7.56495E-28
3.87524E-01 7.34325E-28
3.91780E-01 7.12901E-28
3.96044E-01 6.92192E-28
4.00316E-01 6.72172E-28
4.04596E-01 6.52814E-28
4.08882E-01 6.34092E-28
4.13176E-01 6.15982E-28
4.17476E-01 5.98461E-28
4.21783E-01 5.81506E-28
4.26095E-01 5.65096E-28
4.30413E-01 5.49212E-28
4.34737E-01 5.33833E-28
4.39065E-01 5.18940E-28
4.43398E-01 5.04517E-28
4.47736E-01 4.90545E-28
4.52077E-01 4.77009E-28
4.56422E-01 4.63892E-28
4.60770E-01 4.51180E-28
4.65122E-01 4.38858E-28
4.69476E-01 4.26912E-28
4.73832E-01 4.15330E-28
4.78190E-01 4.04097E-28
4.82550E-01 3.93203E-28
4.86912E-01 3.82635E-28
4.91274E-01 3.72382E-28
4.95637E-01 3.62433E-28
5.00000E-01 3.52777E-28
5.04363E-01 3.43406E-28
5.08726E-01 3.34308E-28
5.13088E-01 3.25476E-28
5.17450E-01 3.16899E-28
5.21810E-01 3.08570E-28
5.26168E-01 3.00480E-28
5.30524E-01 2.92622E-28
5.34878E-01 2.84987E-28
5.39230E-01 2.77568E-28
5.43578E-01 2.70359E-28
5.47923E-01 2.63353E-28
5.52264E-01 2.56542E-28
5.56602E-01 2.49921E-28
5.60935E-01 2.43484E-28
5.65263E-01 2.37225E-28
5.69587E-01 2.31138E-28
5.73905E-01 2.25217E-28
5.78217E-01 2.19459E-28
5.82524E-01 2.13857E-28
5.86824E-01 2.08406E-28
5.91118E-01 2.03103E-28
5.95404E-01 1.97941E-28
5.99684E-01 1.92918E-28
6.03956E-01 1.88029E-28
6.08220E-01 1.83270E-28
6.12476E-01 1.78636E-28
6.16723E-01 1.74125E-28
6.20961E-01 1.69732E-28
6.25190E-01 1.65454E-28
6.29410E-01 1.61288E-28
6.33619E-01 1.57229E-28
6.37819E-01 1.53276E-28
6.42008E-01 1.49424E-28
6.46186E-01 1.45672E-28
6.50353E-01 1.42016E-28
6.54508E-01 1.38453E-28
6.58652E-01 1.34980E-28
6.62784E-01 1.31596E-28
6.66903E-01 1.28297E-28
6.71010E-01 1.25081E-28
6.75104E-01 1.21946E-28
6.79184E-01 1.18889E-28
6.83251E-01 1.15908E-28
6.87303E-01 1.13002E-28
6.91342E-01 1.10168E-28
6.95366E-01 1.07403E-28
6.99375E-01 1.04707E-28
7.03368E-01 1.02077E-28
7.07347E-01 9.95115E-29
7.11309E-01 9.70086E-29
7.15256E-01 9.45666E-29
7.19186E-01 9.21840E-29
7.23099E-01 8.98590E-29
7.26995E-01 8.75901E-29
7.30874E-01 8.53760E-29
7.34736E-01 8.32150E-29
7.38579E-01 8.11058E-29
7.42405E-01 7.90470E-29
7.46212E-01 7.70374E-29
7.50000E-01 7.50755E-29
7.53769E-01 7.31602E-29
7.57519E-01 7.12902E-29
7.61249E-01 6.94644E-29
7.64960E-01 6.76817E-29
7.68650E-01 6.59409E-29
7.72320E-01 6.42409E-29
7.75968E-01 6.25808E-29
7.79596E-01 6.09595E-29
7.83203E-01 5.93760E-29
7.86788E-01 5.78294E-29
7.90351E-01 5.63187E-29
7.93893E-01 5.48431E-29
7.97411E-01 5.34017E-29
8.00908E-01 5.19936E-29
8.04381E-01 5.06181E-29
8.07831E-01 4.92743E-29
8.11257E-01 4.79614E-29
8.14660E-01 4.66788E-29
8.18039E-01 4.54256E-29
8.21394E-01 4.42012E-29
8.24724E-01 4.30048E-29
8.28030E-01 4.18358E-29
8.31310E-01 4.06936E-29
8.34565E-01 3.95775E-29
8.37795E-01 3.84870E-29
8.40999E-01 3.74212E-29
8.44177E-01 3.63799E-29
8.47329E-01 3.53623E-29
8.50455E-01 3.43678E-29
8.53553E-01 3.33961E-29
8.56625E-01 3.24465E-29
8.59670E-01 3.15186E-29
8.62687E-01 3.06118E-29
8.65677E-01 2.97257E-29
8.68639E-01 2.88598E-29
8.71572E-01 2.80137E-29
8.74478E-01 2.71870E-29
8.77355E-01 2.63791E-29
8.80203E-01 2.55897E-29
8.83022E-01 2.48184E-29
8.85812E-01 2.40648E-29
8.88573E-01 2.33284E-29
8.91304E-01 2.26091E-29
8.94005E-01 2.19063E-29
8.96677E-01 2.12197E-29
8.99318E-01 2.05490E-29
9.01928E-01 1.98939E-29
9.04508E-01 1.92540E-29
9.07058E-01 1.86290E-29
9.09576E-01 1.80186E-29
9.12063E-01 1.74225E-29
9.14519E-01 1.68404E-29
9.16943E-01 1.62721E-29
9.19335E-01 1.57173E-29
9.21696E-01 1.51756E-29
9.24024E-01 1.46469E-29
9.26320E-01 1.41309E-29
9.28584E-01 1.36274E-29
9.30815E-01 1.31360E-29
9.33013E-01 1.26566E-29
9.35178E-01 1.21890E-29
9.37310E-01 1.17329E-29
9.39409E-01 1.12881E-29
9.41474E-01 1.08545E-29
9.43505E-01 1.04318E-29
9.45503E-01 1.00197E-29
9.47467E-01 9.61822E-30
9.49397E-01 9.22708E-30
9.51293E-01 8.84610E-30
9.53154E-01 8.47514E-30
9.54981E-01 8.11398E-30
9.56773E-01 7.76249E-30
9.58530E-01 7.42051E-30
9.60252E-01 7.08787E-30
9.61940E-01 6.76445E-30
9.63592E-01 6.45007E-30
9.65209E-01 6.14463E-30
9.66790E-01 5.84796E-30
9.68336E-01 5.55994E-30
9.69846E-01 5.28044E-30
9.71321E-01 5.00935E-30
9.72759E-01 4.74654E-30
9.74162E-01 4.49189E-30
9.75528E-01 4.24529E-30
9.76858E-01 4.00665E-30
9.78152E-01 3.77584E-30
9.79410E-01 3.55277E-30
9.80631E-01 3.33735E-30
9.81815E-01 3.12949E-30
9.82963E-01 2.92908E-30
9.84074E-01 2.73604E-30
9.85148E-01 2.55030E-30
9.86185E-01 2.37178E-30
9.87185E-01 2.20038E-30
9.88148E-01 2.03605E-30
9.89074E-01 1.87872E-30
9.89962E-01 1.72831E-30
9.90814E-01 1.58476E-30
9.91627E-01 1.44800E-30
9.92404E-01 1.31799E-30
9.93143E-01 1.19466E-30
9.93844E-01 1.07797E-30
9.94508E-01 9.67863E-31
9.95134E-01 8.64280E-31
9.95722E-01 7.67215E-31
9.96273E-01 6.76585E-31
9.96786E-01 5.92383E-31
9.97261E-01 5.14545E-31
9.97698E-01 4.43061E-31
9.98097E-01 3.77891E-31
9.98459E-01 3.19008E-31
9.98782E-01 2.66394E-31
9.99067E-01 2.20020E-31
9.99315E-01 1.79872E-31
9.99524E-01 1.45927E-31
9.99695E-01 1.18175E-31
9.99829E-01 9.65933E-32
9.99924E-01 8.11926E-32
9.99981E-01 7.19510E-32
1.00000E+00 6.88795E-32
