 #
 # Subroutine ELSEPA. Elastic scattering of electrons and positrons
 #                    by neutral atoms and positive ions
 #
 # Projectile: positron
 # Kinetic energy = 1.25000E+06 eV = 4.59367E+04 a.u.
 #
 # WARNING: High-energy factorization with free-atom DF screening.
 #          Absorption, polarization and exchange corrections are
 #          switched off.
 #          Phase shifts are calculated for the bare nucleus.
 #          Scattering amplitudes are not evaluated.
 #
 # Element:  B,  Z =   5,  atomic weight = 1.08110E+01 g/mol
 #
 # Nuclear model: Fermi distribution
 #                Average radius = 2.36595E-13 cm
 #                Skin thickness = 5.46000E-14 cm
 #
 # Number of electrons =  5
 #
 # Total elastic cross section = 2.33620E-19 cm**2 = 8.34271E-03 a0**2
 # 1st transport cross section = 1.26307E-23 cm**2 = 4.51050E-07 a0**2
 # 2nd transport cross section = 3.59205E-23 cm**2 = 1.28274E-06 a0**2
 #
 #
 # Differential cross section:                       MU=(1-COS(THETA))/2
 #
 #  THETA        MU          DCS          DCS        Sherman      error
 #  (deg)                 (cm**2/sr)   (a0**2/sr)    function
 #----------------------------------------------------------------------
0.00000E+00 9.27441E-15
7.61557E-13 9.27441E-15
1.18994E-12 9.27440E-15
1.71346E-12 9.27440E-15
2.33225E-12 9.27439E-15
3.04617E-12 9.27439E-15
3.85530E-12 9.27438E-15
4.75964E-12 9.27437E-15
5.75917E-12 9.27436E-15
6.85391E-12 9.27435E-15
8.04379E-12 9.27434E-15
9.32893E-12 9.27433E-15
1.07092E-11 9.27432E-15
1.21847E-11 9.27431E-15
1.37554E-11 9.27429E-15
1.54213E-11 9.27428E-15
1.71823E-11 9.27427E-15
1.90386E-11 9.27425E-15
2.09900E-11 9.27423E-15
2.30367E-11 9.27422E-15
2.51785E-11 9.27420E-15
2.74156E-11 9.27418E-15
2.97478E-11 9.27416E-15
3.21752E-11 9.27414E-15
3.46979E-11 9.27412E-15
3.73157E-11 9.27410E-15
4.00286E-11 9.27408E-15
4.28368E-11 9.27405E-15
4.57402E-11 9.27403E-15
4.87388E-11 9.27400E-15
5.18325E-11 9.27398E-15
5.50215E-11 9.27395E-15
5.83057E-11 9.27393E-15
6.16850E-11 9.27390E-15
6.51595E-11 9.27387E-15
6.87293E-11 9.27384E-15
7.23943E-11 9.27381E-15
7.61544E-11 9.27378E-15
1.18991E-10 9.27343E-15
1.71347E-10 9.27300E-15
2.33223E-10 9.27249E-15
3.04617E-10 9.27191E-15
3.85531E-10 9.27125E-15
4.75965E-10 9.27051E-15
5.75917E-10 9.26970E-15
6.85389E-10 9.26881E-15
8.04380E-10 9.26784E-15
9.32891E-10 9.26680E-15
1.07092E-09 9.26568E-15
1.21847E-09 9.26448E-15
1.37554E-09 9.26320E-15
1.54213E-09 9.26185E-15
1.71823E-09 9.26043E-15
1.90386E-09 9.25892E-15
2.09900E-09 9.25734E-15
2.30367E-09 9.25568E-15
2.51785E-09 9.25395E-15
2.74156E-09 9.25214E-15
2.97478E-09 9.25025E-15
3.21752E-09 9.24829E-15
3.46978E-09 9.24625E-15
3.73156E-09 9.24414E-15
4.00286E-09 9.24194E-15
4.28368E-09 9.23968E-15
4.57402E-09 9.23733E-15
4.87388E-09 9.23492E-15
5.18326E-09 9.23242E-15
5.50215E-09 9.22985E-15
5.83057E-09 9.22720E-15
6.16850E-09 9.22448E-15
6.51596E-09 9.22168E-15
6.87293E-09 9.21881E-15
7.23942E-09 9.21586E-15
7.61544E-09 9.21284E-15
1.18991E-08 9.17852E-15
1.71347E-08 9.13682E-15
2.33223E-08 9.08787E-15
3.04617E-08 9.03185E-15
3.85531E-08 8.96896E-15
4.75965E-08 8.89941E-15
5.75917E-08 8.82341E-15
6.85389E-08 8.74115E-15
8.04380E-08 8.65296E-15
9.32891E-08 8.55912E-15
1.07092E-07 8.45993E-15
1.21847E-07 8.35568E-15
1.37554E-07 8.24657E-15
1.54213E-07 8.13299E-15
1.71823E-07 8.01530E-15
1.90386E-07 7.89383E-15
2.09900E-07 7.76892E-15
2.30367E-07 7.64080E-15
2.51785E-07 7.50975E-15
2.74156E-07 7.37622E-15
2.97478E-07 7.24054E-15
3.21752E-07 7.10303E-15
3.46978E-07 6.96399E-15
3.73156E-07 6.82344E-15
4.00286E-07 6.68196E-15
4.28368E-07 6.53981E-15
4.57402E-07 6.39728E-15
4.87388E-07 6.25461E-15
5.18325E-07 6.11189E-15
5.50215E-07 5.96732E-15
5.83057E-07 5.81791E-15
6.16850E-07 5.67160E-15
6.51596E-07 5.52851E-15
6.87293E-07 5.38871E-15
7.23942E-07 5.25228E-15
7.61543E-07 5.11926E-15
1.18991E-06 3.87068E-15
1.71347E-06 2.84878E-15
2.33223E-06 2.06735E-15
3.04617E-06 1.49537E-15
3.85531E-06 1.08502E-15
4.75964E-06 7.93301E-16
5.75916E-06 5.86181E-16
6.85388E-06 4.38585E-16
8.04378E-06 3.32856E-16
9.32888E-06 2.56306E-16
1.07092E-05 2.00214E-16
1.21846E-05 1.58589E-16
1.37553E-05 1.27206E-16
1.54212E-05 1.03437E-16
1.71822E-05 8.51146E-17
1.90385E-05 7.08614E-17
2.09899E-05 5.94998E-17
2.30365E-05 5.03859E-17
2.51783E-05 4.30126E-17
2.74153E-05 3.70004E-17
2.97475E-05 3.20601E-17
3.21749E-05 2.79662E-17
3.46974E-05 2.45421E-17
3.73152E-05 2.16500E-17
4.00281E-05 1.91862E-17
4.28362E-05 1.70721E-17
4.57395E-05 1.52482E-17
4.87380E-05 1.36679E-17
5.18317E-05 1.22932E-17
5.50205E-05 1.10909E-17
5.83045E-05 1.00330E-17
6.16838E-05 9.10751E-18
6.51582E-05 8.29431E-18
6.87277E-05 7.56069E-18
7.23925E-05 6.90927E-18
7.61524E-05 6.33080E-18
9.21439E-05 4.53890E-18
1.09658E-04 3.33675E-18
1.28695E-04 2.50515E-18
1.49255E-04 1.91555E-18
1.71338E-04 1.48815E-18
1.94942E-04 1.17209E-18
2.20070E-04 9.34573E-19
2.46720E-04 7.53473E-19
2.74892E-04 6.13779E-19
3.04586E-04 5.04660E-19
3.35803E-04 4.18493E-19
3.68542E-04 3.49780E-19
4.02802E-04 2.94430E-19
4.38585E-04 2.49542E-19
4.75889E-04 2.12813E-19
5.14715E-04 1.82554E-19
5.55063E-04 1.57452E-19
5.96931E-04 1.36481E-19
6.40321E-04 1.18872E-19
6.85233E-04 1.03995E-19
7.31665E-04 9.13647E-20
7.79618E-04 8.05856E-20
8.29092E-04 7.13408E-20
8.80086E-04 6.33809E-20
9.32601E-04 5.64945E-20
9.86636E-04 5.05167E-20
1.04219E-03 4.53055E-20
1.09927E-03 4.07475E-20
1.15786E-03 3.67466E-20
1.21797E-03 3.32232E-20
1.27961E-03 3.01116E-20
1.34276E-03 2.73546E-20
1.40743E-03 2.49054E-20
1.47362E-03 2.27237E-20
1.54133E-03 2.07750E-20
1.61056E-03 1.90307E-20
1.68131E-03 1.74650E-20
1.75357E-03 1.60571E-20
1.82735E-03 1.47877E-20
1.90265E-03 1.36412E-20
1.97947E-03 1.26035E-20
2.05780E-03 1.16624E-20
2.13765E-03 1.08075E-20
2.21902E-03 1.00294E-20
2.30190E-03 9.31989E-21
2.38630E-03 8.67199E-21
2.47222E-03 8.07931E-21
2.55965E-03 7.53641E-21
2.64859E-03 7.03822E-21
2.73905E-03 6.58054E-21
2.83103E-03 6.15937E-21
2.92452E-03 5.77134E-21
3.01952E-03 5.41335E-21
3.11604E-03 5.08266E-21
3.21407E-03 4.77681E-21
3.31362E-03 4.49359E-21
3.41468E-03 4.23104E-21
3.51725E-03 3.98737E-21
3.62133E-03 3.76095E-21
3.72692E-03 3.55039E-21
3.83403E-03 3.35431E-21
3.94265E-03 3.17159E-21
4.05278E-03 3.00112E-21
4.16442E-03 2.84194E-21
4.27757E-03 2.69316E-21
4.39223E-03 2.55395E-21
4.50840E-03 2.42361E-21
4.62608E-03 2.30146E-21
4.74527E-03 2.18692E-21
4.86597E-03 2.07940E-21
4.98817E-03 1.97840E-21
5.11188E-03 1.88346E-21
5.23711E-03 1.79414E-21
5.36383E-03 1.71004E-21
5.49207E-03 1.63081E-21
5.62181E-03 1.55612E-21
5.75306E-03 1.48564E-21
5.88581E-03 1.41911E-21
6.02007E-03 1.35626E-21
6.15583E-03 1.29684E-21
6.29310E-03 1.24064E-21
6.43187E-03 1.18745E-21
6.57214E-03 1.13707E-21
6.71392E-03 1.08933E-21
6.85720E-03 1.04407E-21
7.00198E-03 1.00114E-21
7.14827E-03 9.60385E-22
7.29605E-03 9.21682E-22
7.44534E-03 8.84907E-22
7.59612E-03 8.49944E-22
7.97965E-03 7.69796E-22
8.37255E-03 6.98865E-22
8.77480E-03 6.35909E-22
9.18641E-03 5.79877E-22
9.60736E-03 5.29874E-22
1.00376E-02 4.85139E-22
1.04773E-02 4.45021E-22
1.09262E-02 4.08960E-22
1.13844E-02 3.76473E-22
1.18520E-02 3.47144E-22
1.23288E-02 3.20612E-22
1.28150E-02 2.96562E-22
1.33104E-02 2.74723E-22
1.38150E-02 2.54854E-22
1.43290E-02 2.36746E-22
1.48521E-02 2.20215E-22
1.53845E-02 2.05100E-22
1.59262E-02 1.91257E-22
1.64770E-02 1.78560E-22
1.70371E-02 1.66898E-22
1.76063E-02 1.56170E-22
1.81848E-02 1.46289E-22
1.87724E-02 1.37175E-22
1.93692E-02 1.28759E-22
1.99751E-02 1.20977E-22
2.05901E-02 1.13773E-22
2.12143E-02 1.07096E-22
2.18476E-02 1.00900E-22
2.24900E-02 9.51452E-23
2.31415E-02 8.97937E-23
2.38021E-02 8.48122E-23
2.44717E-02 8.01705E-23
2.51504E-02 7.58412E-23
2.58382E-02 7.17995E-23
2.65349E-02 6.80227E-23
2.72407E-02 6.44902E-23
2.79555E-02 6.11835E-23
2.86793E-02 5.80854E-23
2.94120E-02 5.51803E-23
3.01537E-02 5.24541E-23
3.09043E-02 4.98936E-23
3.16639E-02 4.74869E-23
3.24324E-02 4.52232E-23
3.32098E-02 4.30923E-23
3.39961E-02 4.10850E-23
3.47912E-02 3.91928E-23
3.55952E-02 3.74079E-23
3.64081E-02 3.57232E-23
3.72297E-02 3.41318E-23
3.80602E-02 3.26278E-23
3.88995E-02 3.12054E-23
3.97476E-02 2.98593E-23
4.06044E-02 2.85848E-23
4.14700E-02 2.73773E-23
4.23443E-02 2.62326E-23
4.32273E-02 2.51469E-23
4.41190E-02 2.41165E-23
4.50194E-02 2.31381E-23
4.59284E-02 2.22086E-23
4.68461E-02 2.13252E-23
4.87074E-02 1.96856E-23
5.06030E-02 1.81999E-23
5.25328E-02 1.68511E-23
5.44967E-02 1.56244E-23
5.64946E-02 1.45067E-23
5.85262E-02 1.34867E-23
6.05914E-02 1.25544E-23
6.26901E-02 1.17007E-23
6.48222E-02 1.09181E-23
6.69873E-02 1.01993E-23
6.91854E-02 9.53846E-24
7.14163E-02 8.92992E-24
7.36799E-02 8.36883E-24
7.59760E-02 7.85084E-24
7.83043E-02 7.37204E-24
8.06647E-02 6.92894E-24
8.30571E-02 6.51839E-24
8.54812E-02 6.13759E-24
8.79369E-02 5.78397E-24
9.04240E-02 5.45527E-24
9.29422E-02 5.14939E-24
9.54915E-02 4.86448E-24
9.80716E-02 4.59884E-24
1.00682E-01 4.35093E-24
1.03323E-01 4.11935E-24
1.05995E-01 3.90283E-24
1.08696E-01 3.70022E-24
1.11427E-01 3.51046E-24
1.14188E-01 3.33259E-24
1.16978E-01 3.16573E-24
1.19797E-01 3.00908E-24
1.22645E-01 2.86189E-24
1.25522E-01 2.72349E-24
1.28428E-01 2.59326E-24
1.31361E-01 2.47064E-24
1.34323E-01 2.35509E-24
1.37313E-01 2.24614E-24
1.40330E-01 2.14334E-24
1.43375E-01 2.04627E-24
1.46447E-01 1.95457E-24
1.49545E-01 1.86788E-24
1.52671E-01 1.78588E-24
1.55823E-01 1.70827E-24
1.59001E-01 1.63476E-24
1.62205E-01 1.56511E-24
1.65435E-01 1.49908E-24
1.68690E-01 1.43643E-24
1.71970E-01 1.37698E-24
1.75276E-01 1.32052E-24
1.78606E-01 1.26687E-24
1.81961E-01 1.21588E-24
1.85340E-01 1.16738E-24
1.88743E-01 1.12124E-24
1.92169E-01 1.07731E-24
1.95619E-01 1.03548E-24
1.99092E-01 9.95612E-25
2.02589E-01 9.57613E-25
2.06107E-01 9.21374E-25
2.09649E-01 8.86799E-25
2.13212E-01 8.53798E-25
2.16797E-01 8.22286E-25
2.20404E-01 7.92184E-25
2.24032E-01 7.63417E-25
2.27680E-01 7.35916E-25
2.31350E-01 7.09614E-25
2.35040E-01 6.84450E-25
2.38751E-01 6.60365E-25
2.42481E-01 6.37305E-25
2.46231E-01 6.15219E-25
2.50000E-01 5.94058E-25
2.53788E-01 5.73776E-25
2.57595E-01 5.54329E-25
2.61421E-01 5.35678E-25
2.65264E-01 5.17784E-25
2.69126E-01 5.00611E-25
2.73005E-01 4.84124E-25
2.76901E-01 4.68291E-25
2.80814E-01 4.53081E-25
2.84744E-01 4.38466E-25
2.88691E-01 4.24417E-25
2.92653E-01 4.10910E-25
2.96632E-01 3.97919E-25
3.00625E-01 3.85421E-25
3.04634E-01 3.73394E-25
3.08658E-01 3.61818E-25
3.12697E-01 3.50671E-25
3.16749E-01 3.39936E-25
3.20816E-01 3.29595E-25
3.24896E-01 3.19629E-25
3.28990E-01 3.10025E-25
3.33097E-01 3.00765E-25
3.37216E-01 2.91835E-25
3.41348E-01 2.83222E-25
3.45492E-01 2.74912E-25
3.49647E-01 2.66893E-25
3.53814E-01 2.59152E-25
3.57992E-01 2.51679E-25
3.62181E-01 2.44462E-25
3.66381E-01 2.37491E-25
3.70590E-01 2.30756E-25
3.74810E-01 2.24248E-25
3.79039E-01 2.17958E-25
3.83277E-01 2.11877E-25
3.87524E-01 2.05997E-25
3.91780E-01 2.00310E-25
3.96044E-01 1.94808E-25
4.00316E-01 1.89486E-25
4.04596E-01 1.84335E-25
4.08882E-01 1.79349E-25
4.13176E-01 1.74522E-25
4.17476E-01 1.69849E-25
4.21783E-01 1.65322E-25
4.26095E-01 1.60938E-25
4.30413E-01 1.56690E-25
4.34737E-01 1.52574E-25
4.39065E-01 1.48585E-25
4.43398E-01 1.44718E-25
4.47736E-01 1.40968E-25
4.52077E-01 1.37333E-25
4.56422E-01 1.33807E-25
4.60770E-01 1.30387E-25
4.65122E-01 1.27069E-25
4.69476E-01 1.23849E-25
4.73832E-01 1.20725E-25
4.78190E-01 1.17692E-25
4.82550E-01 1.14747E-25
4.86912E-01 1.11889E-25
4.91274E-01 1.09113E-25
4.95637E-01 1.06416E-25
5.00000E-01 1.03797E-25
5.04363E-01 1.01253E-25
5.08726E-01 9.87802E-26
5.13088E-01 9.63775E-26
5.17450E-01 9.40422E-26
5.21810E-01 9.17720E-26
5.26168E-01 8.95650E-26
5.30524E-01 8.74190E-26
5.34878E-01 8.53320E-26
5.39230E-01 8.33023E-26
5.43578E-01 8.13278E-26
5.47923E-01 7.94070E-26
5.52264E-01 7.75380E-26
5.56602E-01 7.57192E-26
5.60935E-01 7.39492E-26
5.65263E-01 7.22263E-26
5.69587E-01 7.05492E-26
5.73905E-01 6.89163E-26
5.78217E-01 6.73263E-26
5.82524E-01 6.57780E-26
5.86824E-01 6.42701E-26
5.91118E-01 6.28012E-26
5.95404E-01 6.13704E-26
5.99684E-01 5.99764E-26
6.03956E-01 5.86181E-26
6.08220E-01 5.72944E-26
6.12476E-01 5.60045E-26
6.16723E-01 5.47471E-26
6.20961E-01 5.35215E-26
6.25190E-01 5.23267E-26
6.29410E-01 5.11617E-26
6.33619E-01 5.00258E-26
6.37819E-01 4.89181E-26
6.42008E-01 4.78377E-26
6.46186E-01 4.67840E-26
6.50353E-01 4.57561E-26
6.54508E-01 4.47534E-26
6.58652E-01 4.37750E-26
6.62784E-01 4.28205E-26
6.66903E-01 4.18890E-26
6.71010E-01 4.09799E-26
6.75104E-01 4.00927E-26
6.79184E-01 3.92267E-26
6.83251E-01 3.83814E-26
6.87303E-01 3.75562E-26
6.91342E-01 3.67505E-26
6.95366E-01 3.59638E-26
6.99375E-01 3.51957E-26
7.03368E-01 3.44455E-26
7.07347E-01 3.37129E-26
7.11309E-01 3.29974E-26
7.15256E-01 3.22985E-26
7.19186E-01 3.16158E-26
7.23099E-01 3.09489E-26
7.26995E-01 3.02973E-26
7.30874E-01 2.96607E-26
7.34736E-01 2.90387E-26
7.38579E-01 2.84309E-26
7.42405E-01 2.78370E-26
7.46212E-01 2.72565E-26
7.50000E-01 2.66892E-26
7.53769E-01 2.61347E-26
7.57519E-01 2.55927E-26
7.61249E-01 2.50629E-26
7.64960E-01 2.45450E-26
7.68650E-01 2.40387E-26
7.72320E-01 2.35437E-26
7.75968E-01 2.30597E-26
7.79596E-01 2.25865E-26
7.83203E-01 2.21238E-26
7.86788E-01 2.16714E-26
7.90351E-01 2.12290E-26
7.93893E-01 2.07963E-26
7.97411E-01 2.03732E-26
8.00908E-01 1.99594E-26
8.04381E-01 1.95546E-26
8.07831E-01 1.91588E-26
8.11257E-01 1.87716E-26
8.14660E-01 1.83929E-26
8.18039E-01 1.80225E-26
8.21394E-01 1.76601E-26
8.24724E-01 1.73057E-26
8.28030E-01 1.69590E-26
8.31310E-01 1.66198E-26
8.34565E-01 1.62880E-26
8.37795E-01 1.59634E-26
8.40999E-01 1.56459E-26
8.44177E-01 1.53352E-26
8.47329E-01 1.50314E-26
8.50455E-01 1.47341E-26
8.53553E-01 1.44432E-26
8.56625E-01 1.41587E-26
8.59670E-01 1.38803E-26
8.62687E-01 1.36080E-26
8.65677E-01 1.33416E-26
8.68639E-01 1.30810E-26
8.71572E-01 1.28261E-26
8.74478E-01 1.25767E-26
8.77355E-01 1.23328E-26
8.80203E-01 1.20942E-26
8.83022E-01 1.18608E-26
8.85812E-01 1.16325E-26
8.88573E-01 1.14092E-26
8.91304E-01 1.11908E-26
8.94005E-01 1.09773E-26
8.96677E-01 1.07684E-26
8.99318E-01 1.05642E-26
9.01928E-01 1.03645E-26
9.04508E-01 1.01692E-26
9.07058E-01 9.97829E-27
9.09576E-01 9.79166E-27
9.12063E-01 9.60922E-27
9.14519E-01 9.43089E-27
9.16943E-01 9.25661E-27
9.19335E-01 9.08629E-27
9.21696E-01 8.91985E-27
9.24024E-01 8.75725E-27
9.26320E-01 8.59839E-27
9.28584E-01 8.44322E-27
9.30815E-01 8.29167E-27
9.33013E-01 8.14368E-27
9.35178E-01 7.99919E-27
9.37310E-01 7.85813E-27
9.39409E-01 7.72045E-27
9.41474E-01 7.58610E-27
9.43505E-01 7.45501E-27
9.45503E-01 7.32713E-27
9.47467E-01 7.20243E-27
9.49397E-01 7.08083E-27
9.51293E-01 6.96230E-27
9.53154E-01 6.84679E-27
9.54981E-01 6.73423E-27
9.56773E-01 6.62461E-27
9.58530E-01 6.51788E-27
9.60252E-01 6.41398E-27
9.61940E-01 6.31288E-27
9.63592E-01 6.21453E-27
9.65209E-01 6.11892E-27
9.66790E-01 6.02598E-27
9.68336E-01 5.93569E-27
9.69846E-01 5.84801E-27
9.71321E-01 5.76291E-27
9.72759E-01 5.68036E-27
9.74162E-01 5.60032E-27
9.75528E-01 5.52276E-27
9.76858E-01 5.44766E-27
9.78152E-01 5.37498E-27
9.79410E-01 5.30470E-27
9.80631E-01 5.23679E-27
9.81815E-01 5.17122E-27
9.82963E-01 5.10798E-27
9.84074E-01 5.04702E-27
9.85148E-01 4.98835E-27
9.86185E-01 4.93192E-27
9.87185E-01 4.87772E-27
9.88148E-01 4.82574E-27
9.89074E-01 4.77594E-27
9.89962E-01 4.72832E-27
9.90814E-01 4.68285E-27
9.91627E-01 4.63951E-27
9.92404E-01 4.59830E-27
9.93143E-01 4.55919E-27
9.93844E-01 4.52217E-27
9.94508E-01 4.48723E-27
9.95134E-01 4.45435E-27
9.95722E-01 4.42354E-27
9.96273E-01 4.39475E-27
9.96786E-01 4.36800E-27
9.97261E-01 4.34327E-27
9.97698E-01 4.32055E-27
9.98097E-01 4.29983E-27
9.98459E-01 4.28111E-27
9.98782E-01 4.26439E-27
9.99067E-01 4.24963E-27
9.99315E-01 4.23687E-27
9.99524E-01 4.22607E-27
9.99695E-01 4.21724E-27
9.99829E-01 4.21036E-27
9.99924E-01 4.20547E-27
9.99981E-01 4.20253E-27
1.00000E+00 4.20157E-27
