 #
 # Subroutine ELSEPA. Elastic scattering of electrons and positrons
 #                    by neutral atoms and positive ions
 #
 # Projectile: electron
 # Kinetic energy = 2.00000E+08 eV = 7.34987E+06 a.u.
 #
 # WARNING: High-energy factorization with free-atom DF screening.
 #          Absorption, polarization and exchange corrections are
 #          switched off.
 #          Phase shifts are calculated for the bare nucleus.
 #          Scattering amplitudes are not evaluated.
 #
 # Element:  I,  Z =  53,  atomic weight = 1.26904E+02 g/mol
 #
 # Nuclear model: Fermi distribution
 #                Average radius = 5.37703E-13 cm
 #                Skin thickness = 5.46000E-14 cm
 #
 # Number of electrons = 53
 #
 # Total elastic cross section = 5.70229E-18 cm**2 = 2.03633E-01 a0**2
 # 1st transport cross section = 1.37358E-25 cm**2 = 4.90514E-09 a0**2
 # 2nd transport cross section = 4.11133E-25 cm**2 = 1.46818E-08 a0**2
 #
 #
 # Differential cross section:                       MU=(1-COS(THETA))/2
 #
 #  THETA        MU          DCS          DCS        Sherman      error
 #  (deg)                 (cm**2/sr)   (a0**2/sr)    function
 #----------------------------------------------------------------------
0.00000E+00 1.77420E-09
7.61557E-13 1.76115E-09
1.18994E-12 1.75389E-09
1.71346E-12 1.74509E-09
2.33225E-12 1.73476E-09
3.04617E-12 1.72296E-09
3.85530E-12 1.70973E-09
4.75964E-12 1.69513E-09
5.75917E-12 1.67919E-09
6.85391E-12 1.66180E-09
8.04379E-12 1.64346E-09
9.32893E-12 1.62401E-09
1.07092E-11 1.60324E-09
1.21847E-11 1.58183E-09
1.37554E-11 1.55927E-09
1.54213E-11 1.53582E-09
1.71823E-11 1.51204E-09
1.90386E-11 1.48696E-09
2.09900E-11 1.46155E-09
2.30367E-11 1.43595E-09
2.51785E-11 1.40914E-09
2.74156E-11 1.38246E-09
2.97478E-11 1.35544E-09
3.21752E-11 1.32778E-09
3.46979E-11 1.30048E-09
3.73157E-11 1.27262E-09
4.00286E-11 1.24471E-09
4.28368E-11 1.21736E-09
4.57402E-11 1.18920E-09
4.87388E-11 1.16157E-09
5.18325E-11 1.13438E-09
5.50215E-11 1.10666E-09
5.83057E-11 1.07972E-09
6.16850E-11 1.05295E-09
6.51595E-11 1.02619E-09
6.87293E-11 1.00027E-09
7.23943E-11 9.74271E-10
7.61544E-11 9.48737E-10
1.18991E-10 7.19562E-10
1.71347E-10 5.40393E-10
2.33223E-10 4.06897E-10
3.04617E-10 3.09890E-10
3.85531E-10 2.39635E-10
4.75965E-10 1.88369E-10
5.75917E-10 1.50356E-10
6.85389E-10 1.20811E-10
8.04380E-10 9.92925E-11
9.32891E-10 8.25786E-11
1.07092E-09 6.86935E-11
1.21847E-09 5.80776E-11
1.37554E-09 4.91791E-11
1.54213E-09 4.18019E-11
1.71823E-09 3.59603E-11
1.90386E-09 3.08147E-11
2.09900E-09 2.65960E-11
2.30367E-09 2.31349E-11
2.51785E-09 2.00696E-11
2.74156E-09 1.75447E-11
2.97478E-09 1.54010E-11
3.21752E-09 1.35393E-11
3.46978E-09 1.19755E-11
3.73156E-09 1.06191E-11
4.00286E-09 9.44892E-12
4.28368E-09 8.44952E-12
4.57402E-09 7.56989E-12
4.87388E-09 6.80930E-12
5.18326E-09 6.14831E-12
5.50215E-09 5.56309E-12
5.83057E-09 5.05205E-12
6.16850E-09 4.60057E-12
6.51596E-09 4.19906E-12
6.87293E-09 3.84457E-12
7.23942E-09 3.52654E-12
7.61544E-09 3.24230E-12
1.18991E-08 1.54170E-12
1.71347E-08 8.23646E-13
2.33223E-08 4.74633E-13
3.04617E-08 2.90498E-13
3.85531E-08 1.87112E-13
4.75965E-08 1.25976E-13
5.75917E-08 8.79795E-14
6.85389E-08 6.33739E-14
8.04380E-08 4.68364E-14
9.32891E-08 3.53749E-14
1.07092E-07 2.72220E-14
1.21847E-07 2.12882E-14
1.37554E-07 1.68846E-14
1.54213E-07 1.35605E-14
1.71823E-07 1.10130E-14
1.90386E-07 9.03460E-15
2.09900E-07 7.47959E-15
2.30367E-07 6.24391E-15
2.51785E-07 5.25238E-15
2.74156E-07 4.44919E-15
2.97478E-07 3.79343E-15
3.21752E-07 3.25391E-15
3.46978E-07 2.80680E-15
3.73156E-07 2.43382E-15
4.00286E-07 2.12071E-15
4.28368E-07 1.85633E-15
4.57402E-07 1.63188E-15
4.87388E-07 1.44034E-15
5.18325E-07 1.27610E-15
5.50215E-07 1.13461E-15
5.83057E-07 1.01221E-15
6.16850E-07 9.05878E-16
6.51596E-07 8.13158E-16
6.87293E-07 7.32012E-16
7.23942E-07 6.60749E-16
7.61543E-07 5.97959E-16
1.18991E-06 2.47772E-16
1.71347E-06 1.20467E-16
2.33223E-06 6.54084E-17
3.04617E-06 3.85062E-17
3.85531E-06 2.41162E-17
4.75964E-06 1.58612E-17
5.75916E-06 1.08538E-17
6.85388E-06 7.67495E-18
8.04378E-06 5.57892E-18
9.32888E-06 4.15185E-18
1.07092E-05 3.15320E-18
1.21846E-05 2.43750E-18
1.37553E-05 1.91379E-18
1.54212E-05 1.52347E-18
1.71822E-05 1.22778E-18
1.90385E-05 1.00015E-18
2.09899E-05 8.23459E-19
2.30365E-05 6.84061E-19
2.51783E-05 5.72861E-19
2.74153E-05 4.83292E-19
2.97475E-05 4.10528E-19
3.21749E-05 3.50956E-19
3.46974E-05 3.01828E-19
3.73152E-05 2.61029E-19
4.00281E-05 2.26917E-19
4.28362E-05 1.98210E-19
4.57395E-05 1.73904E-19
4.87380E-05 1.53207E-19
5.18317E-05 1.35494E-19
5.50205E-05 1.20264E-19
5.83045E-05 1.07114E-19
6.16838E-05 9.57138E-20
6.51582E-05 8.57941E-20
6.87277E-05 7.71301E-20
7.23925E-05 6.95348E-20
7.61524E-05 6.30002E-20
9.21439E-05 4.30797E-20
1.09658E-04 3.04498E-20
1.28695E-04 2.21326E-20
1.49255E-04 1.64718E-20
1.71338E-04 1.25127E-20
1.94942E-04 9.67544E-21
2.20070E-04 7.59944E-21
2.46720E-04 6.05212E-21
2.74892E-04 4.87953E-21
3.04586E-04 3.97797E-21
3.35803E-04 3.27545E-21
3.68542E-04 2.72151E-21
4.02802E-04 2.27995E-21
4.38585E-04 1.92445E-21
4.75889E-04 1.63565E-21
5.14715E-04 1.39905E-21
5.55063E-04 1.20373E-21
5.96931E-04 1.04132E-21
6.40321E-04 9.05388E-22
6.85233E-04 7.90917E-22
7.31665E-04 6.93962E-22
7.79618E-04 6.11402E-22
8.29092E-04 5.40744E-22
8.80086E-04 4.79986E-22
9.32601E-04 4.27509E-22
9.86636E-04 3.81993E-22
1.04219E-03 3.42360E-22
1.09927E-03 3.07719E-22
1.15786E-03 2.77335E-22
1.21797E-03 2.50594E-22
1.27961E-03 2.26985E-22
1.34276E-03 2.06079E-22
1.40743E-03 1.87511E-22
1.47362E-03 1.70976E-22
1.54133E-03 1.56211E-22
1.61056E-03 1.42996E-22
1.68131E-03 1.31138E-22
1.75357E-03 1.20473E-22
1.82735E-03 1.10862E-22
1.90265E-03 1.02181E-22
1.97947E-03 9.43248E-23
2.05780E-03 8.72011E-23
2.13765E-03 8.07297E-23
2.21902E-03 7.48404E-23
2.30190E-03 6.94715E-23
2.38630E-03 6.45690E-23
2.47222E-03 6.00853E-23
2.55965E-03 5.59782E-23
2.64859E-03 5.22106E-23
2.73905E-03 4.87495E-23
2.83103E-03 4.55655E-23
2.92452E-03 4.26325E-23
3.01952E-03 3.99273E-23
3.11604E-03 3.74290E-23
3.21407E-03 3.51191E-23
3.31362E-03 3.29808E-23
3.41468E-03 3.09992E-23
3.51725E-03 2.91607E-23
3.62133E-03 2.74533E-23
3.72692E-03 2.58659E-23
3.83403E-03 2.43886E-23
3.94265E-03 2.30124E-23
4.05278E-03 2.17293E-23
4.16442E-03 2.05318E-23
4.27757E-03 1.94132E-23
4.39223E-03 1.83674E-23
4.50840E-03 1.73889E-23
4.62608E-03 1.64726E-23
4.74527E-03 1.56138E-23
4.86597E-03 1.48083E-23
4.98817E-03 1.40523E-23
5.11188E-03 1.33421E-23
5.23711E-03 1.26745E-23
5.36383E-03 1.20466E-23
5.49207E-03 1.14555E-23
5.62181E-03 1.08988E-23
5.75306E-03 1.03740E-23
5.88581E-03 9.87916E-24
6.02007E-03 9.41214E-24
6.15583E-03 8.97116E-24
6.29310E-03 8.55451E-24
6.43187E-03 8.16064E-24
6.57214E-03 7.78808E-24
6.71392E-03 7.43549E-24
6.85720E-03 7.10163E-24
7.00198E-03 6.78534E-24
7.14827E-03 6.48553E-24
7.29605E-03 6.20121E-24
7.44534E-03 5.93145E-24
7.59612E-03 5.67538E-24
7.97965E-03 5.08993E-24
8.37255E-03 4.57394E-24
8.77480E-03 4.11796E-24
9.18641E-03 3.71400E-24
9.60736E-03 3.35527E-24
1.00376E-02 3.03600E-24
1.04773E-02 2.75122E-24
1.09262E-02 2.49669E-24
1.13844E-02 2.26875E-24
1.18520E-02 2.06425E-24
1.23288E-02 1.88046E-24
1.28150E-02 1.71500E-24
1.33104E-02 1.56580E-24
1.38150E-02 1.43105E-24
1.43290E-02 1.30919E-24
1.48521E-02 1.19881E-24
1.53845E-02 1.09872E-24
1.59262E-02 1.00783E-24
1.64770E-02 9.25192E-25
1.70371E-02 8.49976E-25
1.76063E-02 7.81437E-25
1.81848E-02 7.18916E-25
1.87724E-02 6.61825E-25
1.93692E-02 6.09643E-25
1.99751E-02 5.61903E-25
2.05901E-02 5.18188E-25
2.12143E-02 4.78123E-25
2.18476E-02 4.41376E-25
2.24900E-02 4.07643E-25
2.31415E-02 3.76656E-25
2.38021E-02 3.48170E-25
2.44717E-02 3.21965E-25
2.51504E-02 2.97843E-25
2.58382E-02 2.75625E-25
2.65349E-02 2.55149E-25
2.72407E-02 2.36266E-25
2.79555E-02 2.18844E-25
2.86793E-02 2.02761E-25
2.94120E-02 1.87907E-25
3.01537E-02 1.74182E-25
3.09043E-02 1.61495E-25
3.16639E-02 1.49761E-25
3.24324E-02 1.38905E-25
3.32098E-02 1.28858E-25
3.39961E-02 1.19555E-25
3.47912E-02 1.10939E-25
3.55952E-02 1.02957E-25
3.64081E-02 9.55594E-26
3.72297E-02 8.87016E-26
3.80602E-02 8.23428E-26
3.88995E-02 7.64450E-26
3.97476E-02 7.09735E-26
4.06044E-02 6.58966E-26
4.14700E-02 6.11847E-26
4.23443E-02 5.68109E-26
4.32273E-02 5.27502E-26
4.41190E-02 4.89796E-26
4.50194E-02 4.54780E-26
4.59284E-02 4.22257E-26
4.68461E-02 3.92046E-26
4.87074E-02 3.37907E-26
5.06030E-02 2.91171E-26
5.25328E-02 2.50818E-26
5.44967E-02 2.15974E-26
5.64946E-02 1.85887E-26
5.85262E-02 1.59910E-26
6.05914E-02 1.37486E-26
6.26901E-02 1.18136E-26
6.48222E-02 1.01445E-26
6.69873E-02 8.70533E-27
6.91854E-02 7.46526E-27
7.14163E-02 6.39740E-27
7.36799E-02 5.47853E-27
7.59760E-02 4.68852E-27
7.83043E-02 4.00991E-27
8.06647E-02 3.42759E-27
8.30571E-02 2.92841E-27
8.54812E-02 2.50101E-27
8.79369E-02 2.13551E-27
9.04240E-02 1.82335E-27
9.29422E-02 1.55710E-27
9.54915E-02 1.33033E-27
9.80716E-02 1.13746E-27
1.00682E-01 9.73675E-28
1.03323E-01 8.34790E-28
1.05995E-01 7.17197E-28
1.08696E-01 6.17776E-28
1.11427E-01 5.33837E-28
1.14188E-01 4.63059E-28
1.16978E-01 4.03446E-28
1.19797E-01 3.53283E-28
1.22645E-01 3.11097E-28
1.25522E-01 2.75627E-28
1.28428E-01 2.45796E-28
1.31361E-01 2.20684E-28
1.34323E-01 1.99509E-28
1.37313E-01 1.81607E-28
1.40330E-01 1.66417E-28
1.43375E-01 1.53466E-28
1.46447E-01 1.42354E-28
1.49545E-01 1.32748E-28
1.52671E-01 1.24372E-28
1.55823E-01 1.16993E-28
1.59001E-01 1.10422E-28
1.62205E-01 1.04504E-28
1.65435E-01 9.91103E-29
1.68690E-01 9.41390E-29
1.71970E-01 8.95076E-29
1.75276E-01 8.51511E-29
1.78606E-01 8.10183E-29
1.81961E-01 7.70700E-29
1.85340E-01 7.32765E-29
1.88743E-01 6.96156E-29
1.92169E-01 6.60717E-29
1.95619E-01 6.26339E-29
1.99092E-01 5.92952E-29
2.02589E-01 5.60519E-29
2.06107E-01 5.29019E-29
2.09649E-01 4.98453E-29
2.13212E-01 4.68830E-29
2.16797E-01 4.40165E-29
2.20404E-01 4.12479E-29
2.24032E-01 3.85793E-29
2.27680E-01 3.60127E-29
2.31350E-01 3.35499E-29
2.35040E-01 3.11922E-29
2.38751E-01 2.89408E-29
2.42481E-01 2.67961E-29
2.46231E-01 2.47583E-29
2.50000E-01 2.28268E-29
2.53788E-01 2.10009E-29
2.57595E-01 1.92791E-29
2.61421E-01 1.76596E-29
2.65264E-01 1.61403E-29
2.69126E-01 1.47187E-29
2.73005E-01 1.33919E-29
2.76901E-01 1.21567E-29
2.80814E-01 1.10099E-29
2.84744E-01 9.94795E-30
2.88691E-01 8.96712E-30
2.92653E-01 8.06365E-30
2.96632E-01 7.23371E-30
3.00625E-01 6.47341E-30
3.04634E-01 5.77885E-30
3.08658E-01 5.14616E-30
3.12697E-01 4.57152E-30
3.16749E-01 4.05117E-30
3.20816E-01 3.58143E-30
3.24896E-01 3.15873E-30
3.28990E-01 2.77962E-30
3.33097E-01 2.44078E-30
3.37216E-01 2.13900E-30
3.41348E-01 1.87125E-30
3.45492E-01 1.63463E-30
3.49647E-01 1.42638E-30
3.53814E-01 1.24392E-30
3.57992E-01 1.08481E-30
3.62181E-01 9.46762E-31
3.66381E-01 8.27639E-31
3.70590E-01 7.25454E-31
3.74810E-01 6.38364E-31
3.79039E-01 5.64666E-31
3.83277E-01 5.02789E-31
3.87524E-01 4.51295E-31
3.91780E-01 4.08866E-31
3.96044E-01 3.74304E-31
4.00316E-01 3.46520E-31
4.04596E-01 3.24531E-31
4.08882E-01 3.07453E-31
4.13176E-01 2.94492E-31
4.17476E-01 2.84942E-31
4.21783E-01 2.78176E-31
4.26095E-01 2.73642E-31
4.30413E-01 2.70853E-31
4.34737E-01 2.69388E-31
4.39065E-01 2.68882E-31
4.43398E-01 2.69020E-31
4.47736E-01 2.69537E-31
4.52077E-01 2.70210E-31
4.56422E-01 2.70853E-31
4.60770E-01 2.71315E-31
4.65122E-01 2.71477E-31
4.69476E-01 2.71244E-31
4.73832E-01 2.70548E-31
4.78190E-01 2.69338E-31
4.82550E-01 2.67586E-31
4.86912E-01 2.65274E-31
4.91274E-01 2.62401E-31
4.95637E-01 2.58975E-31
5.00000E-01 2.55015E-31
5.04363E-01 2.50545E-31
5.08726E-01 2.45597E-31
5.13088E-01 2.40207E-31
5.17450E-01 2.34413E-31
5.21810E-01 2.28259E-31
5.26168E-01 2.21786E-31
5.30524E-01 2.15039E-31
5.34878E-01 2.08061E-31
5.39230E-01 2.00895E-31
5.43578E-01 1.93583E-31
5.47923E-01 1.86165E-31
5.52264E-01 1.78681E-31
5.56602E-01 1.71167E-31
5.60935E-01 1.63657E-31
5.65263E-01 1.56183E-31
5.69587E-01 1.48774E-31
5.73905E-01 1.41458E-31
5.78217E-01 1.34258E-31
5.82524E-01 1.27197E-31
5.86824E-01 1.20294E-31
5.91118E-01 1.13566E-31
5.95404E-01 1.07027E-31
5.99684E-01 1.00690E-31
6.03956E-01 9.45650E-32
6.08220E-01 8.86601E-32
6.12476E-01 8.29818E-32
6.16723E-01 7.75346E-32
6.20961E-01 7.23214E-32
6.25190E-01 6.73436E-32
6.29410E-01 6.26014E-32
6.33619E-01 5.80936E-32
6.37819E-01 5.38179E-32
6.42008E-01 4.97709E-32
6.46186E-01 4.59487E-32
6.50353E-01 4.23461E-32
6.54508E-01 3.89577E-32
6.58652E-01 3.57773E-32
6.62784E-01 3.27982E-32
6.66903E-01 3.00134E-32
6.71010E-01 2.74157E-32
6.75104E-01 2.49975E-32
6.79184E-01 2.27510E-32
6.83251E-01 2.06685E-32
6.87303E-01 1.87420E-32
6.91342E-01 1.69638E-32
6.95366E-01 1.53261E-32
6.99375E-01 1.38210E-32
7.03368E-01 1.24411E-32
7.07347E-01 1.11789E-32
7.11309E-01 1.00272E-32
7.15256E-01 8.97891E-33
7.19186E-01 8.02723E-33
7.23099E-01 7.16558E-33
7.26995E-01 6.38765E-33
7.30874E-01 5.68736E-33
7.34736E-01 5.05891E-33
7.38579E-01 4.49678E-33
7.42405E-01 3.99571E-33
7.46212E-01 3.55072E-33
7.50000E-01 3.15709E-33
7.53769E-01 2.81037E-33
7.57519E-01 2.50639E-33
7.61249E-01 2.24121E-33
7.64960E-01 2.01116E-33
7.68650E-01 1.81281E-33
7.72320E-01 1.64296E-33
7.75968E-01 1.49865E-33
7.79596E-01 1.37711E-33
7.83203E-01 1.27580E-33
7.86788E-01 1.19238E-33
7.90351E-01 1.12470E-33
7.93893E-01 1.07076E-33
7.97411E-01 1.02878E-33
8.00908E-01 9.97090E-34
8.04381E-01 9.74204E-34
8.07831E-01 9.58766E-34
8.11257E-01 9.49553E-34
8.14660E-01 9.45466E-34
8.18039E-01 9.45522E-34
8.21394E-01 9.48844E-34
8.24724E-01 9.54654E-34
8.28030E-01 9.62266E-34
8.31310E-01 9.71079E-34
8.34565E-01 9.80568E-34
8.37795E-01 9.90281E-34
8.40999E-01 9.99829E-34
8.44177E-01 1.00888E-33
8.47329E-01 1.01716E-33
8.50455E-01 1.02445E-33
8.53553E-01 1.03055E-33
8.56625E-01 1.03533E-33
8.59670E-01 1.03867E-33
8.62687E-01 1.04049E-33
8.65677E-01 1.04075E-33
8.68639E-01 1.03942E-33
8.71572E-01 1.03648E-33
8.74478E-01 1.03196E-33
8.77355E-01 1.02587E-33
8.80203E-01 1.01827E-33
8.83022E-01 1.00920E-33
8.85812E-01 9.98726E-34
8.88573E-01 9.86915E-34
8.91304E-01 9.73842E-34
8.94005E-01 9.59589E-34
8.96677E-01 9.44236E-34
8.99318E-01 9.27870E-34
9.01928E-01 9.10577E-34
9.04508E-01 8.92443E-34
9.07058E-01 8.73555E-34
9.09576E-01 8.53997E-34
9.12063E-01 8.33853E-34
9.14519E-01 8.13205E-34
9.16943E-01 7.92130E-34
9.19335E-01 7.70706E-34
9.21696E-01 7.49005E-34
9.24024E-01 7.27096E-34
9.26320E-01 7.05045E-34
9.28584E-01 6.82916E-34
9.30815E-01 6.60766E-34
9.33013E-01 6.38652E-34
9.35178E-01 6.16623E-34
9.37310E-01 5.94730E-34
9.39409E-01 5.73015E-34
9.41474E-01 5.51519E-34
9.43505E-01 5.30280E-34
9.45503E-01 5.09331E-34
9.47467E-01 4.88704E-34
9.49397E-01 4.68426E-34
9.51293E-01 4.48521E-34
9.53154E-01 4.29011E-34
9.54981E-01 4.09915E-34
9.56773E-01 3.91250E-34
9.58530E-01 3.73030E-34
9.60252E-01 3.55267E-34
9.61940E-01 3.37970E-34
9.63592E-01 3.21147E-34
9.65209E-01 3.04805E-34
9.66790E-01 2.88946E-34
9.68336E-01 2.73574E-34
9.69846E-01 2.58690E-34
9.71321E-01 2.44293E-34
9.72759E-01 2.30383E-34
9.74162E-01 2.16957E-34
9.75528E-01 2.04011E-34
9.76858E-01 1.91541E-34
9.78152E-01 1.79543E-34
9.79410E-01 1.68009E-34
9.80631E-01 1.56934E-34
9.81815E-01 1.46312E-34
9.82963E-01 1.36134E-34
9.84074E-01 1.26394E-34
9.85148E-01 1.17083E-34
9.86185E-01 1.08193E-34
9.87185E-01 9.97162E-35
9.88148E-01 9.16442E-35
9.89074E-01 8.39685E-35
9.89962E-01 7.66809E-35
9.90814E-01 6.97730E-35
9.91627E-01 6.32367E-35
9.92404E-01 5.70640E-35
9.93143E-01 5.12470E-35
9.93844E-01 4.57780E-35
9.94508E-01 4.06497E-35
9.95134E-01 3.58550E-35
9.95722E-01 3.13870E-35
9.96273E-01 2.72391E-35
9.96786E-01 2.34052E-35
9.97261E-01 1.98795E-35
9.97698E-01 1.66565E-35
9.98097E-01 1.37311E-35
9.98459E-01 1.10987E-35
9.98782E-01 8.75504E-36
9.99067E-01 6.69621E-36
9.99315E-01 4.91885E-36
9.99524E-01 3.41998E-36
9.99695E-01 2.19708E-36
9.99829E-01 1.24810E-36
9.99924E-01 5.71411E-37
9.99981E-01 1.65863E-37
1.00000E+00 3.07342E-38
