 #
 # Subroutine ELSEPA. Elastic scattering of electrons and positrons
 #                    by neutral atoms and positive ions
 #
 # Projectile: electron
 # Kinetic energy = 2.00000E+07 eV = 7.34987E+05 a.u.
 #
 # WARNING: High-energy factorization with free-atom DF screening.
 #          Absorption, polarization and exchange corrections are
 #          switched off.
 #          Phase shifts are calculated for the bare nucleus.
 #          Scattering amplitudes are not evaluated.
 #
 # Element:  I,  Z =  53,  atomic weight = 1.26904E+02 g/mol
 #
 # Nuclear model: Fermi distribution
 #                Average radius = 5.37703E-13 cm
 #                Skin thickness = 5.46000E-14 cm
 #
 # Number of electrons = 53
 #
 # Total elastic cross section = 5.70709E-18 cm**2 = 2.03804E-01 a0**2
 # 1st transport cross section = 1.25647E-23 cm**2 = 4.48693E-07 a0**2
 # 2nd transport cross section = 3.58292E-23 cm**2 = 1.27948E-06 a0**2
 #
 #
 # Differential cross section:                       MU=(1-COS(THETA))/2
 #
 #  THETA        MU          DCS          DCS        Sherman      error
 #  (deg)                 (cm**2/sr)   (a0**2/sr)    function
 #----------------------------------------------------------------------
0.00000E+00 1.85652E-11
7.61557E-13 1.85637E-11
1.18994E-12 1.85629E-11
1.71346E-12 1.85619E-11
2.33225E-12 1.85607E-11
3.04617E-12 1.85594E-11
3.85530E-12 1.85579E-11
4.75964E-12 1.85561E-11
5.75917E-12 1.85543E-11
6.85391E-12 1.85522E-11
8.04379E-12 1.85500E-11
9.32893E-12 1.85475E-11
1.07092E-11 1.85449E-11
1.21847E-11 1.85422E-11
1.37554E-11 1.85392E-11
1.54213E-11 1.85361E-11
1.71823E-11 1.85328E-11
1.90386E-11 1.85293E-11
2.09900E-11 1.85256E-11
2.30367E-11 1.85218E-11
2.51785E-11 1.85178E-11
2.74156E-11 1.85136E-11
2.97478E-11 1.85092E-11
3.21752E-11 1.85047E-11
3.46979E-11 1.84999E-11
3.73157E-11 1.84950E-11
4.00286E-11 1.84900E-11
4.28368E-11 1.84847E-11
4.57402E-11 1.84793E-11
4.87388E-11 1.84737E-11
5.18325E-11 1.84679E-11
5.50215E-11 1.84620E-11
5.83057E-11 1.84558E-11
6.16850E-11 1.84495E-11
6.51595E-11 1.84431E-11
6.87293E-11 1.84364E-11
7.23943E-11 1.84296E-11
7.61544E-11 1.84226E-11
1.18991E-10 1.83433E-11
1.71347E-10 1.82470E-11
2.33223E-10 1.81342E-11
3.04617E-10 1.80053E-11
3.85531E-10 1.78609E-11
4.75965E-10 1.77016E-11
5.75917E-10 1.75270E-11
6.85389E-10 1.73382E-11
8.04380E-10 1.71393E-11
9.32891E-10 1.69259E-11
1.07092E-09 1.67014E-11
1.21847E-09 1.64701E-11
1.37554E-09 1.62227E-11
1.54213E-09 1.59703E-11
1.71823E-09 1.57110E-11
1.90386E-09 1.54399E-11
2.09900E-09 1.51676E-11
2.30367E-09 1.48865E-11
2.51785E-09 1.46003E-11
2.74156E-09 1.43160E-11
2.97478E-09 1.40197E-11
3.21752E-09 1.37259E-11
3.46978E-09 1.34325E-11
3.73156E-09 1.31316E-11
4.00286E-09 1.28367E-11
4.28368E-09 1.25388E-11
4.57402E-09 1.22408E-11
4.87388E-09 1.19504E-11
5.18326E-09 1.16534E-11
5.50215E-09 1.13631E-11
5.83057E-09 1.10781E-11
6.16850E-09 1.07899E-11
6.51596E-09 1.05110E-11
6.87293E-09 1.02336E-11
7.23942E-09 9.95915E-12
7.61544E-09 9.69433E-12
1.18991E-08 7.29125E-12
1.71347E-08 5.43829E-12
2.33223E-08 4.07526E-12
3.04617E-08 3.09208E-12
3.85531E-08 2.38461E-12
4.75965E-08 1.87117E-12
5.75917E-08 1.48685E-12
6.85389E-08 1.19629E-12
8.04380E-08 9.84811E-13
9.32891E-08 8.13817E-13
1.07092E-07 6.77986E-13
1.21847E-07 5.74140E-13
1.37554E-07 4.82833E-13
1.54213E-07 4.10953E-13
1.71823E-07 3.52329E-13
1.90386E-07 3.01402E-13
2.09900E-07 2.60428E-13
2.30367E-07 2.25401E-13
2.51785E-07 1.95706E-13
2.74156E-07 1.71242E-13
2.97478E-07 1.49773E-13
3.21752E-07 1.31767E-13
3.46978E-07 1.16496E-13
3.73156E-07 1.03180E-13
4.00286E-07 9.18728E-14
4.28368E-07 8.20656E-14
4.57402E-07 7.35447E-14
4.87388E-07 6.61979E-14
5.18325E-07 5.97158E-14
5.50215E-07 5.40649E-14
5.83057E-07 4.91109E-14
6.16850E-07 4.47039E-14
6.51596E-07 4.08268E-14
6.87293E-07 3.73696E-14
7.23942E-07 3.42804E-14
7.61543E-07 3.15356E-14
1.18991E-06 1.49683E-14
1.71347E-06 7.97049E-15
2.33223E-06 4.58360E-15
3.04617E-06 2.80054E-15
3.85531E-06 1.80285E-15
4.75964E-06 1.21367E-15
5.75916E-06 8.47338E-16
6.85388E-06 6.10438E-16
8.04378E-06 4.51232E-16
9.32888E-06 3.40839E-16
1.07092E-05 2.62290E-16
1.21846E-05 2.05072E-16
1.37553E-05 1.62615E-16
1.54212E-05 1.30573E-16
1.71822E-05 1.06024E-16
1.90385E-05 8.69377E-17
2.09899E-05 7.19925E-17
2.30365E-05 6.01096E-17
2.51783E-05 5.05650E-17
2.74153E-05 4.28300E-17
2.97475E-05 3.65124E-17
3.21749E-05 3.13155E-17
3.46974E-05 2.70114E-17
3.73152E-05 2.34234E-17
4.00281E-05 2.04131E-17
4.28362E-05 1.78719E-17
4.57395E-05 1.57140E-17
4.87380E-05 1.38716E-17
5.18317E-05 1.22911E-17
5.50205E-05 1.09291E-17
5.83045E-05 9.75056E-18
6.16838E-05 8.72694E-18
6.51582E-05 7.83456E-18
6.87277E-05 7.05376E-18
7.23925E-05 6.36814E-18
7.61524E-05 5.76441E-18
9.21439E-05 3.95981E-18
1.09658E-04 2.80982E-18
1.28695E-04 2.04918E-18
1.49255E-04 1.52948E-18
1.71338E-04 1.16477E-18
1.94942E-04 9.02628E-19
2.20070E-04 7.10307E-19
2.46720E-04 5.66627E-19
2.74892E-04 4.57522E-19
3.04586E-04 3.73482E-19
3.35803E-04 3.07892E-19
3.68542E-04 2.56101E-19
4.02802E-04 2.14765E-19
4.38585E-04 1.81449E-19
4.75889E-04 1.54358E-19
5.14715E-04 1.32143E-19
5.55063E-04 1.13790E-19
5.96931E-04 9.85199E-20
6.40321E-04 8.57306E-20
6.85233E-04 7.49544E-20
7.31665E-04 6.58218E-20
7.79618E-04 5.80414E-20
8.29092E-04 5.13793E-20
8.80086E-04 4.56482E-20
9.32601E-04 4.06960E-20
9.86636E-04 3.63990E-20
1.04219E-03 3.26558E-20
1.09927E-03 2.93828E-20
1.15786E-03 2.65108E-20
1.21797E-03 2.39823E-20
1.27961E-03 2.17489E-20
1.34276E-03 1.97704E-20
1.40743E-03 1.80125E-20
1.47362E-03 1.64463E-20
1.54133E-03 1.50472E-20
1.61056E-03 1.37944E-20
1.68131E-03 1.26696E-20
1.75357E-03 1.16577E-20
1.82735E-03 1.07451E-20
1.90265E-03 9.92048E-21
1.97947E-03 9.17375E-21
2.05780E-03 8.49628E-21
2.13765E-03 7.88046E-21
2.21902E-03 7.31968E-21
2.30190E-03 6.80812E-21
2.38630E-03 6.34068E-21
2.47222E-03 5.91286E-21
2.55965E-03 5.52069E-21
2.64859E-03 5.16066E-21
2.73905E-03 4.82965E-21
2.83103E-03 4.52489E-21
2.92452E-03 4.24391E-21
3.01952E-03 3.98453E-21
3.11604E-03 3.74477E-21
3.21407E-03 3.52287E-21
3.31362E-03 3.31726E-21
3.41468E-03 3.12652E-21
3.51725E-03 2.94937E-21
3.62133E-03 2.78466E-21
3.72692E-03 2.63136E-21
3.83403E-03 2.48853E-21
3.94265E-03 2.35532E-21
4.05278E-03 2.23096E-21
4.16442E-03 2.11476E-21
4.27757E-03 2.00607E-21
4.39223E-03 1.90432E-21
4.50840E-03 1.80898E-21
4.62608E-03 1.71958E-21
4.74527E-03 1.63566E-21
4.86597E-03 1.55684E-21
4.98817E-03 1.48275E-21
5.11188E-03 1.41304E-21
5.23711E-03 1.34741E-21
5.36383E-03 1.28558E-21
5.49207E-03 1.22728E-21
5.62181E-03 1.17226E-21
5.75306E-03 1.12032E-21
5.88581E-03 1.07125E-21
6.02007E-03 1.02486E-21
6.15583E-03 9.80969E-22
6.29310E-03 9.39424E-22
6.43187E-03 9.00071E-22
6.57214E-03 8.62775E-22
6.71392E-03 8.27406E-22
6.85720E-03 7.93845E-22
7.00198E-03 7.61984E-22
7.14827E-03 7.31717E-22
7.29605E-03 7.02952E-22
7.44534E-03 6.75599E-22
7.59612E-03 6.49576E-22
7.97965E-03 5.89838E-22
8.37255E-03 5.36866E-22
8.77480E-03 4.89760E-22
9.18641E-03 4.47754E-22
9.60736E-03 4.10195E-22
1.00376E-02 3.76527E-22
1.04773E-02 3.46275E-22
1.09262E-02 3.19030E-22
1.13844E-02 2.94437E-22
1.18520E-02 2.72191E-22
1.23288E-02 2.52028E-22
1.28150E-02 2.33715E-22
1.33104E-02 2.17052E-22
1.38150E-02 2.01864E-22
1.43290E-02 1.87994E-22
1.48521E-02 1.75307E-22
1.53845E-02 1.63684E-22
1.59262E-02 1.53019E-22
1.64770E-02 1.43217E-22
1.70371E-02 1.34196E-22
1.76063E-02 1.25883E-22
1.81848E-02 1.18210E-22
1.87724E-02 1.11118E-22
1.93692E-02 1.04557E-22
1.99751E-02 9.84786E-23
2.05901E-02 9.28399E-23
2.12143E-02 8.76037E-23
2.18476E-02 8.27359E-23
2.24900E-02 7.82049E-23
2.31415E-02 7.39834E-23
2.38021E-02 7.00466E-23
2.44717E-02 6.63705E-23
2.51504E-02 6.29354E-23
2.58382E-02 5.97224E-23
2.65349E-02 5.67137E-23
2.72407E-02 5.38946E-23
2.79555E-02 5.12504E-23
2.86793E-02 4.87680E-23
2.94120E-02 4.64360E-23
3.01537E-02 4.42432E-23
3.09043E-02 4.21797E-23
3.16639E-02 4.02365E-23
3.24324E-02 3.84052E-23
3.32098E-02 3.66779E-23
3.39961E-02 3.50478E-23
3.47912E-02 3.35082E-23
3.55952E-02 3.20531E-23
3.64081E-02 3.06770E-23
3.72297E-02 2.93747E-23
3.80602E-02 2.81415E-23
3.88995E-02 2.69731E-23
3.97476E-02 2.58653E-23
4.06044E-02 2.48143E-23
4.14700E-02 2.38168E-23
4.23443E-02 2.28693E-23
4.32273E-02 2.19690E-23
4.41190E-02 2.11129E-23
4.50194E-02 2.02986E-23
4.59284E-02 1.95235E-23
4.68461E-02 1.87854E-23
4.87074E-02 1.74118E-23
5.06030E-02 1.61625E-23
5.25328E-02 1.50241E-23
5.44967E-02 1.39849E-23
5.64946E-02 1.30347E-23
5.85262E-02 1.21644E-23
6.05914E-02 1.13661E-23
6.26901E-02 1.06325E-23
6.48222E-02 9.95750E-24
6.69873E-02 9.33550E-24
6.91854E-02 8.76155E-24
7.14163E-02 8.23123E-24
7.36799E-02 7.74057E-24
7.59760E-02 7.28605E-24
7.83043E-02 6.86450E-24
8.06647E-02 6.47306E-24
8.30571E-02 6.10917E-24
8.54812E-02 5.77052E-24
8.79369E-02 5.45502E-24
9.04240E-02 5.16078E-24
9.29422E-02 4.88610E-24
9.54915E-02 4.62943E-24
9.80716E-02 4.38935E-24
1.00682E-01 4.16459E-24
1.03323E-01 3.95399E-24
1.05995E-01 3.75647E-24
1.08696E-01 3.57107E-24
1.11427E-01 3.39691E-24
1.14188E-01 3.23317E-24
1.16978E-01 3.07910E-24
1.19797E-01 2.93403E-24
1.22645E-01 2.79733E-24
1.25522E-01 2.66842E-24
1.28428E-01 2.54678E-24
1.31361E-01 2.43192E-24
1.34323E-01 2.32338E-24
1.37313E-01 2.22075E-24
1.40330E-01 2.12365E-24
1.43375E-01 2.03172E-24
1.46447E-01 1.94464E-24
1.49545E-01 1.86210E-24
1.52671E-01 1.78382E-24
1.55823E-01 1.70953E-24
1.59001E-01 1.63900E-24
1.62205E-01 1.57200E-24
1.65435E-01 1.50832E-24
1.68690E-01 1.44776E-24
1.71970E-01 1.39014E-24
1.75276E-01 1.33530E-24
1.78606E-01 1.28306E-24
1.81961E-01 1.23330E-24
1.85340E-01 1.18585E-24
1.88743E-01 1.14061E-24
1.92169E-01 1.09744E-24
1.95619E-01 1.05624E-24
1.99092E-01 1.01689E-24
2.02589E-01 9.79308E-25
2.06107E-01 9.43386E-25
2.09649E-01 9.09042E-25
2.13212E-01 8.76193E-25
2.16797E-01 8.44764E-25
2.20404E-01 8.14680E-25
2.24032E-01 7.85874E-25
2.27680E-01 7.58281E-25
2.31350E-01 7.31842E-25
2.35040E-01 7.06499E-25
2.38751E-01 6.82198E-25
2.42481E-01 6.58889E-25
2.46231E-01 6.36524E-25
2.50000E-01 6.15058E-25
2.53788E-01 5.94448E-25
2.57595E-01 5.74654E-25
2.61421E-01 5.55637E-25
2.65264E-01 5.37363E-25
2.69126E-01 5.19796E-25
2.73005E-01 5.02905E-25
2.76901E-01 4.86659E-25
2.80814E-01 4.71028E-25
2.84744E-01 4.55987E-25
2.88691E-01 4.41507E-25
2.92653E-01 4.27565E-25
2.96632E-01 4.14138E-25
3.00625E-01 4.01202E-25
3.04634E-01 3.88737E-25
3.08658E-01 3.76723E-25
3.12697E-01 3.65141E-25
3.16749E-01 3.53972E-25
3.20816E-01 3.43199E-25
3.24896E-01 3.32806E-25
3.28990E-01 3.22778E-25
3.33097E-01 3.13098E-25
3.37216E-01 3.03753E-25
3.41348E-01 2.94730E-25
3.45492E-01 2.86015E-25
3.49647E-01 2.77596E-25
3.53814E-01 2.69462E-25
3.57992E-01 2.61601E-25
3.62181E-01 2.54002E-25
3.66381E-01 2.46656E-25
3.70590E-01 2.39552E-25
3.74810E-01 2.32682E-25
3.79039E-01 2.26036E-25
3.83277E-01 2.19606E-25
3.87524E-01 2.13383E-25
3.91780E-01 2.07361E-25
3.96044E-01 2.01531E-25
4.00316E-01 1.95886E-25
4.04596E-01 1.90420E-25
4.08882E-01 1.85125E-25
4.13176E-01 1.79997E-25
4.17476E-01 1.75028E-25
4.21783E-01 1.70213E-25
4.26095E-01 1.65546E-25
4.30413E-01 1.61023E-25
4.34737E-01 1.56638E-25
4.39065E-01 1.52385E-25
4.43398E-01 1.48262E-25
4.47736E-01 1.44262E-25
4.52077E-01 1.40383E-25
4.56422E-01 1.36619E-25
4.60770E-01 1.32966E-25
4.65122E-01 1.29421E-25
4.69476E-01 1.25981E-25
4.73832E-01 1.22641E-25
4.78190E-01 1.19399E-25
4.82550E-01 1.16251E-25
4.86912E-01 1.13193E-25
4.91274E-01 1.10224E-25
4.95637E-01 1.07339E-25
5.00000E-01 1.04537E-25
5.04363E-01 1.01814E-25
5.08726E-01 9.91684E-26
5.13088E-01 9.65972E-26
5.17450E-01 9.40980E-26
5.21810E-01 9.16686E-26
5.26168E-01 8.93068E-26
5.30524E-01 8.70104E-26
5.34878E-01 8.47773E-26
5.39230E-01 8.26057E-26
5.43578E-01 8.04934E-26
5.47923E-01 7.84388E-26
5.52264E-01 7.64400E-26
5.56602E-01 7.44953E-26
5.60935E-01 7.26031E-26
5.65263E-01 7.07616E-26
5.69587E-01 6.89695E-26
5.73905E-01 6.72252E-26
5.78217E-01 6.55272E-26
5.82524E-01 6.38742E-26
5.86824E-01 6.22648E-26
5.91118E-01 6.06977E-26
5.95404E-01 5.91717E-26
5.99684E-01 5.76855E-26
6.03956E-01 5.62380E-26
6.08220E-01 5.48281E-26
6.12476E-01 5.34546E-26
6.16723E-01 5.21165E-26
6.20961E-01 5.08127E-26
6.25190E-01 4.95424E-26
6.29410E-01 4.83045E-26
6.33619E-01 4.70980E-26
6.37819E-01 4.59222E-26
6.42008E-01 4.47761E-26
6.46186E-01 4.36589E-26
6.50353E-01 4.25698E-26
6.54508E-01 4.15080E-26
6.58652E-01 4.04727E-26
6.62784E-01 3.94631E-26
6.66903E-01 3.84787E-26
6.71010E-01 3.75187E-26
6.75104E-01 3.65824E-26
6.79184E-01 3.56691E-26
6.83251E-01 3.47783E-26
6.87303E-01 3.39093E-26
6.91342E-01 3.30615E-26
6.95366E-01 3.22344E-26
6.99375E-01 3.14275E-26
7.03368E-01 3.06401E-26
7.07347E-01 2.98717E-26
7.11309E-01 2.91219E-26
7.15256E-01 2.83901E-26
7.19186E-01 2.76759E-26
7.23099E-01 2.69789E-26
7.26995E-01 2.62985E-26
7.30874E-01 2.56343E-26
7.34736E-01 2.49859E-26
7.38579E-01 2.43530E-26
7.42405E-01 2.37350E-26
7.46212E-01 2.31316E-26
7.50000E-01 2.25425E-26
7.53769E-01 2.19673E-26
7.57519E-01 2.14056E-26
7.61249E-01 2.08571E-26
7.64960E-01 2.03214E-26
7.68650E-01 1.97983E-26
7.72320E-01 1.92873E-26
7.75968E-01 1.87883E-26
7.79596E-01 1.83009E-26
7.83203E-01 1.78248E-26
7.86788E-01 1.73598E-26
7.90351E-01 1.69055E-26
7.93893E-01 1.64617E-26
7.97411E-01 1.60282E-26
8.00908E-01 1.56047E-26
8.04381E-01 1.51909E-26
8.07831E-01 1.47867E-26
8.11257E-01 1.43918E-26
8.14660E-01 1.40059E-26
8.18039E-01 1.36289E-26
8.21394E-01 1.32605E-26
8.24724E-01 1.29006E-26
8.28030E-01 1.25489E-26
8.31310E-01 1.22053E-26
8.34565E-01 1.18695E-26
8.37795E-01 1.15414E-26
8.40999E-01 1.12208E-26
8.44177E-01 1.09076E-26
8.47329E-01 1.06014E-26
8.50455E-01 1.03023E-26
8.53553E-01 1.00100E-26
8.56625E-01 9.72441E-27
8.59670E-01 9.44532E-27
8.62687E-01 9.17262E-27
8.65677E-01 8.90614E-27
8.68639E-01 8.64577E-27
8.71572E-01 8.39136E-27
8.74478E-01 8.14278E-27
8.77355E-01 7.89990E-27
8.80203E-01 7.66260E-27
8.83022E-01 7.43075E-27
8.85812E-01 7.20425E-27
8.88573E-01 6.98297E-27
8.91304E-01 6.76680E-27
8.94005E-01 6.55563E-27
8.96677E-01 6.34936E-27
8.99318E-01 6.14788E-27
9.01928E-01 5.95110E-27
9.04508E-01 5.75892E-27
9.07058E-01 5.57123E-27
9.09576E-01 5.38796E-27
9.12063E-01 5.20900E-27
9.14519E-01 5.03428E-27
9.16943E-01 4.86370E-27
9.19335E-01 4.69719E-27
9.21696E-01 4.53465E-27
9.24024E-01 4.37603E-27
9.26320E-01 4.22123E-27
9.28584E-01 4.07018E-27
9.30815E-01 3.92282E-27
9.33013E-01 3.77907E-27
9.35178E-01 3.63886E-27
9.37310E-01 3.50213E-27
9.39409E-01 3.36882E-27
9.41474E-01 3.23885E-27
9.43505E-01 3.11217E-27
9.45503E-01 2.98872E-27
9.47467E-01 2.86845E-27
9.49397E-01 2.75129E-27
9.51293E-01 2.63719E-27
9.53154E-01 2.52610E-27
9.54981E-01 2.41797E-27
9.56773E-01 2.31274E-27
9.58530E-01 2.21038E-27
9.60252E-01 2.11083E-27
9.61940E-01 2.01405E-27
9.63592E-01 1.91999E-27
9.65209E-01 1.82861E-27
9.66790E-01 1.73987E-27
9.68336E-01 1.65373E-27
9.69846E-01 1.57015E-27
9.71321E-01 1.48909E-27
9.72759E-01 1.41051E-27
9.74162E-01 1.33439E-27
9.75528E-01 1.26069E-27
9.76858E-01 1.18937E-27
9.78152E-01 1.12040E-27
9.79410E-01 1.05375E-27
9.80631E-01 9.89390E-28
9.81815E-01 9.27296E-28
9.82963E-01 8.67437E-28
9.84074E-01 8.09788E-28
9.85148E-01 7.54322E-28
9.86185E-01 7.01015E-28
9.87185E-01 6.49844E-28
9.88148E-01 6.00786E-28
9.89074E-01 5.53819E-28
9.89962E-01 5.08924E-28
9.90814E-01 4.66080E-28
9.91627E-01 4.25268E-28
9.92404E-01 3.86472E-28
9.93143E-01 3.49673E-28
9.93844E-01 3.14856E-28
9.94508E-01 2.82006E-28
9.95134E-01 2.51109E-28
9.95722E-01 2.22150E-28
9.96273E-01 1.95118E-28
9.96786E-01 1.70001E-28
9.97261E-01 1.46788E-28
9.97698E-01 1.25468E-28
9.98097E-01 1.06033E-28
9.98459E-01 8.84745E-29
9.98782E-01 7.27842E-29
9.99067E-01 5.89558E-29
9.99315E-01 4.69832E-29
9.99524E-01 3.68613E-29
9.99695E-01 2.85856E-29
9.99829E-01 2.21527E-29
9.99924E-01 1.75598E-29
9.99981E-01 1.48048E-29
1.00000E+00 1.38866E-29
