 #
 # Subroutine ELSEPA. Elastic scattering of electrons and positrons
 #                    by neutral atoms and positive ions
 #
 # Projectile: electron
 # Kinetic energy = 3.50000E+06 eV = 1.28623E+05 a.u.
 #
 # WARNING: High-energy factorization with free-atom DF screening.
 #          Absorption, polarization and exchange corrections are
 #          switched off.
 #          Phase shifts are calculated for the bare nucleus.
 #          Scattering amplitudes are not evaluated.
 #
 # Element:  I,  Z =  53,  atomic weight = 1.26904E+02 g/mol
 #
 # Nuclear model: Fermi distribution
 #                Average radius = 5.37703E-13 cm
 #                Skin thickness = 5.46000E-14 cm
 #
 # Number of electrons = 53
 #
 # Total elastic cross section = 5.80706E-18 cm**2 = 2.07374E-01 a0**2
 # 1st transport cross section = 2.73339E-22 cm**2 = 9.76111E-06 a0**2
 # 2nd transport cross section = 7.55865E-22 cm**2 = 2.69924E-05 a0**2
 #
 #
 # Differential cross section:                       MU=(1-COS(THETA))/2
 #
 #  THETA        MU          DCS          DCS        Sherman      error
 #  (deg)                 (cm**2/sr)   (a0**2/sr)    function
 #----------------------------------------------------------------------
0.00000E+00 7.09954E-13
7.61557E-13 7.09952E-13
1.18994E-12 7.09951E-13
1.71346E-12 7.09950E-13
2.33225E-12 7.09948E-13
3.04617E-12 7.09946E-13
3.85530E-12 7.09944E-13
4.75964E-12 7.09942E-13
5.75917E-12 7.09939E-13
6.85391E-12 7.09936E-13
8.04379E-12 7.09933E-13
9.32893E-12 7.09929E-13
1.07092E-11 7.09926E-13
1.21847E-11 7.09922E-13
1.37554E-11 7.09917E-13
1.54213E-11 7.09913E-13
1.71823E-11 7.09908E-13
1.90386E-11 7.09903E-13
2.09900E-11 7.09898E-13
2.30367E-11 7.09893E-13
2.51785E-11 7.09887E-13
2.74156E-11 7.09881E-13
2.97478E-11 7.09875E-13
3.21752E-11 7.09868E-13
3.46979E-11 7.09861E-13
3.73157E-11 7.09854E-13
4.00286E-11 7.09847E-13
4.28368E-11 7.09839E-13
4.57402E-11 7.09831E-13
4.87388E-11 7.09823E-13
5.18325E-11 7.09815E-13
5.50215E-11 7.09807E-13
5.83057E-11 7.09798E-13
6.16850E-11 7.09789E-13
6.51595E-11 7.09779E-13
6.87293E-11 7.09770E-13
7.23943E-11 7.09760E-13
7.61544E-11 7.09750E-13
1.18991E-10 7.09634E-13
1.71347E-10 7.09493E-13
2.33223E-10 7.09326E-13
3.04617E-10 7.09134E-13
3.85531E-10 7.08916E-13
4.75965E-10 7.08672E-13
5.75917E-10 7.08403E-13
6.85389E-10 7.08109E-13
8.04380E-10 7.07789E-13
9.32891E-10 7.07443E-13
1.07092E-09 7.07072E-13
1.21847E-09 7.06676E-13
1.37554E-09 7.06255E-13
1.54213E-09 7.05809E-13
1.71823E-09 7.05337E-13
1.90386E-09 7.04841E-13
2.09900E-09 7.04320E-13
2.30367E-09 7.03774E-13
2.51785E-09 7.03203E-13
2.74156E-09 7.02607E-13
2.97478E-09 7.01987E-13
3.21752E-09 7.01343E-13
3.46978E-09 7.00674E-13
3.73156E-09 6.99980E-13
4.00286E-09 6.99263E-13
4.28368E-09 6.98522E-13
4.57402E-09 6.97757E-13
4.87388E-09 6.96968E-13
5.18326E-09 6.96155E-13
5.50215E-09 6.95319E-13
5.83057E-09 6.94459E-13
6.16850E-09 6.93577E-13
6.51596E-09 6.92670E-13
6.87293E-09 6.91741E-13
7.23942E-09 6.90790E-13
7.61544E-09 6.89815E-13
1.18991E-08 6.78856E-13
1.71347E-08 6.65726E-13
2.33223E-08 6.50838E-13
3.04617E-08 6.34165E-13
3.85531E-08 6.16011E-13
4.75965E-08 5.96728E-13
5.75917E-08 5.76550E-13
6.85389E-08 5.55342E-13
8.04380E-08 5.33709E-13
9.32891E-08 5.11882E-13
1.07092E-07 4.89843E-13
1.21847E-07 4.67719E-13
1.37554E-07 4.45928E-13
1.54213E-07 4.24599E-13
1.71823E-07 4.03488E-13
1.90386E-07 3.82981E-13
2.09900E-07 3.63219E-13
2.30367E-07 3.44180E-13
2.51785E-07 3.25702E-13
2.74156E-07 3.08100E-13
2.97478E-07 2.91368E-13
3.21752E-07 2.75364E-13
3.46978E-07 2.60128E-13
3.73156E-07 2.45752E-13
4.00286E-07 2.32201E-13
4.28368E-07 2.19296E-13
4.57402E-07 2.07164E-13
4.87388E-07 1.95777E-13
5.18325E-07 1.85062E-13
5.50215E-07 1.74943E-13
5.83057E-07 1.65471E-13
6.16850E-07 1.56601E-13
6.51596E-07 1.48250E-13
6.87293E-07 1.40413E-13
7.23942E-07 1.33081E-13
7.61543E-07 1.26218E-13
1.18991E-06 7.68531E-14
1.71347E-06 4.93619E-14
2.33223E-06 3.38042E-14
3.04617E-06 2.37532E-14
3.85531E-06 1.71334E-14
4.75964E-06 1.26550E-14
5.75916E-06 9.50785E-15
6.85388E-06 7.21330E-15
8.04378E-06 5.57321E-15
9.32888E-06 4.37441E-15
1.07092E-05 3.47963E-15
1.21846E-05 2.80550E-15
1.37553E-05 2.29272E-15
1.54212E-05 1.89648E-15
1.71822E-05 1.58445E-15
1.90385E-05 1.33617E-15
2.09899E-05 1.13747E-15
2.30365E-05 9.75517E-16
2.51783E-05 8.41315E-16
2.74153E-05 7.29868E-16
2.97475E-05 6.36561E-16
3.21749E-05 5.57487E-16
3.46974E-05 4.90240E-16
3.73152E-05 4.32816E-16
4.00281E-05 3.83432E-16
4.28362E-05 3.40567E-16
4.57395E-05 3.03478E-16
4.87380E-05 2.71257E-16
5.18317E-05 2.43099E-16
5.50205E-05 2.18355E-16
5.83045E-05 1.96650E-16
6.16838E-05 1.77548E-16
6.51582E-05 1.60635E-16
6.87277E-05 1.45653E-16
7.23925E-05 1.32368E-16
7.61524E-05 1.20553E-16
9.21439E-05 8.45396E-17
1.09658E-04 6.10443E-17
1.28695E-04 4.52122E-17
1.49255E-04 3.42119E-17
1.71338E-04 2.63956E-17
1.94942E-04 2.06980E-17
2.20070E-04 1.64702E-17
2.46720E-04 1.32755E-17
2.74892E-04 1.08162E-17
3.04586E-04 8.90219E-18
3.35803E-04 7.39459E-18
3.68542E-04 6.19299E-18
4.02802E-04 5.22387E-18
4.38585E-04 4.43739E-18
4.75889E-04 3.79358E-18
5.14715E-04 3.26176E-18
5.55063E-04 2.81962E-18
5.96931E-04 2.44998E-18
6.40321E-04 2.13900E-18
6.85233E-04 1.87549E-18
7.31665E-04 1.65138E-18
7.79618E-04 1.45983E-18
8.29092E-04 1.29524E-18
8.80086E-04 1.15315E-18
9.32601E-04 1.03008E-18
9.86636E-04 9.23039E-19
1.04219E-03 8.29538E-19
1.09927E-03 7.47604E-19
1.15786E-03 6.75579E-19
1.21797E-03 6.12054E-19
1.27961E-03 5.55820E-19
1.34276E-03 5.05929E-19
1.40743E-03 4.61538E-19
1.47362E-03 4.21926E-19
1.54133E-03 3.86486E-19
1.61056E-03 3.54709E-19
1.68131E-03 3.26150E-19
1.75357E-03 3.00415E-19
1.82735E-03 2.77182E-19
1.90265E-03 2.56165E-19
1.97947E-03 2.37114E-19
2.05780E-03 2.19806E-19
2.13765E-03 2.04060E-19
2.21902E-03 1.89707E-19
2.30190E-03 1.76600E-19
2.38630E-03 1.64611E-19
2.47222E-03 1.53629E-19
2.55965E-03 1.43554E-19
2.64859E-03 1.34294E-19
2.73905E-03 1.25774E-19
2.83103E-03 1.17924E-19
2.92452E-03 1.10681E-19
3.01952E-03 1.03987E-19
3.11604E-03 9.77958E-20
3.21407E-03 9.20617E-20
3.31362E-03 8.67440E-20
3.41468E-03 8.18070E-20
3.51725E-03 7.72189E-20
3.62133E-03 7.29503E-20
3.72692E-03 6.89739E-20
3.83403E-03 6.52668E-20
3.94265E-03 6.18073E-20
4.05278E-03 5.85756E-20
4.16442E-03 5.55535E-20
4.27757E-03 5.27253E-20
4.39223E-03 5.00762E-20
4.50840E-03 4.75924E-20
4.62608E-03 4.52618E-20
4.74527E-03 4.30732E-20
4.86597E-03 4.10164E-20
4.98817E-03 3.90816E-20
5.11188E-03 3.72604E-20
5.23711E-03 3.55450E-20
5.36383E-03 3.39279E-20
5.49207E-03 3.24024E-20
5.62181E-03 3.09623E-20
5.75306E-03 2.96021E-20
5.88581E-03 2.83162E-20
6.02007E-03 2.71000E-20
6.15583E-03 2.59490E-20
6.29310E-03 2.48589E-20
6.43187E-03 2.38259E-20
6.57214E-03 2.28465E-20
6.71392E-03 2.19173E-20
6.85720E-03 2.10353E-20
7.00198E-03 2.01975E-20
7.14827E-03 1.94015E-20
7.29605E-03 1.86447E-20
7.44534E-03 1.79246E-20
7.59612E-03 1.72394E-20
7.97965E-03 1.56654E-20
8.37255E-03 1.42686E-20
8.77480E-03 1.30254E-20
9.18641E-03 1.19160E-20
9.60736E-03 1.09233E-20
1.00376E-02 1.00329E-20
1.04773E-02 9.23225E-21
1.09262E-02 8.51073E-21
1.13844E-02 7.85907E-21
1.18520E-02 7.26927E-21
1.23288E-02 6.73438E-21
1.28150E-02 6.24835E-21
1.33104E-02 5.80589E-21
1.38150E-02 5.40237E-21
1.43290E-02 5.03372E-21
1.48521E-02 4.69635E-21
1.53845E-02 4.38716E-21
1.59262E-02 4.10333E-21
1.64770E-02 3.84236E-21
1.70371E-02 3.60209E-21
1.76063E-02 3.38057E-21
1.81848E-02 3.17605E-21
1.87724E-02 2.98698E-21
1.93692E-02 2.81197E-21
1.99751E-02 2.64978E-21
2.05901E-02 2.49929E-21
2.12143E-02 2.35948E-21
2.18476E-02 2.22947E-21
2.24900E-02 2.10843E-21
2.31415E-02 1.99561E-21
2.38021E-02 1.89036E-21
2.44717E-02 1.79207E-21
2.51504E-02 1.70019E-21
2.58382E-02 1.61421E-21
2.65349E-02 1.53369E-21
2.72407E-02 1.45822E-21
2.79555E-02 1.38741E-21
2.86793E-02 1.32092E-21
2.94120E-02 1.25843E-21
3.01537E-02 1.19966E-21
3.09043E-02 1.14434E-21
3.16639E-02 1.09223E-21
3.24324E-02 1.04310E-21
3.32098E-02 9.96755E-22
3.39961E-02 9.53002E-22
3.47912E-02 9.11668E-22
3.55952E-02 8.72592E-22
3.64081E-02 8.35626E-22
3.72297E-02 8.00634E-22
3.80602E-02 7.67489E-22
3.88995E-02 7.36073E-22
3.97476E-02 7.06280E-22
4.06044E-02 6.78008E-22
4.14700E-02 6.51163E-22
4.23443E-02 6.25660E-22
4.32273E-02 6.01418E-22
4.41190E-02 5.78361E-22
4.50194E-02 5.56421E-22
4.59284E-02 5.35532E-22
4.68461E-02 5.15633E-22
4.87074E-02 4.78585E-22
5.06030E-02 4.44869E-22
5.25328E-02 4.14126E-22
5.44967E-02 3.86045E-22
5.64946E-02 3.60351E-22
5.85262E-02 3.36800E-22
6.05914E-02 3.15180E-22
6.26901E-02 2.95301E-22
6.48222E-02 2.76996E-22
6.69873E-02 2.60115E-22
6.91854E-02 2.44525E-22
7.14163E-02 2.30109E-22
7.36799E-02 2.16761E-22
7.59760E-02 2.04385E-22
7.83043E-02 1.92898E-22
8.06647E-02 1.82221E-22
8.30571E-02 1.72288E-22
8.54812E-02 1.63035E-22
8.79369E-02 1.54407E-22
9.04240E-02 1.46352E-22
9.29422E-02 1.38826E-22
9.54915E-02 1.31786E-22
9.80716E-02 1.25195E-22
1.00682E-01 1.19018E-22
1.03323E-01 1.13224E-22
1.05995E-01 1.07785E-22
1.08696E-01 1.02674E-22
1.11427E-01 9.78676E-23
1.14188E-01 9.33436E-23
1.16978E-01 8.90823E-23
1.19797E-01 8.50651E-23
1.22645E-01 8.12753E-23
1.25522E-01 7.76974E-23
1.28428E-01 7.43171E-23
1.31361E-01 7.11213E-23
1.34323E-01 6.80977E-23
1.37313E-01 6.52353E-23
1.40330E-01 6.25236E-23
1.43375E-01 5.99531E-23
1.46447E-01 5.75148E-23
1.49545E-01 5.52006E-23
1.52671E-01 5.30029E-23
1.55823E-01 5.09146E-23
1.59001E-01 4.89290E-23
1.62205E-01 4.70403E-23
1.65435E-01 4.52425E-23
1.68690E-01 4.35305E-23
1.71970E-01 4.18992E-23
1.75276E-01 4.03442E-23
1.78606E-01 3.88609E-23
1.81961E-01 3.74456E-23
1.85340E-01 3.60944E-23
1.88743E-01 3.48037E-23
1.92169E-01 3.35704E-23
1.95619E-01 3.23914E-23
1.99092E-01 3.12638E-23
2.02589E-01 3.01848E-23
2.06107E-01 2.91519E-23
2.09649E-01 2.81628E-23
2.13212E-01 2.72152E-23
2.16797E-01 2.63069E-23
2.20404E-01 2.54361E-23
2.24032E-01 2.46009E-23
2.27680E-01 2.37994E-23
2.31350E-01 2.30301E-23
2.35040E-01 2.22915E-23
2.38751E-01 2.15819E-23
2.42481E-01 2.09001E-23
2.46231E-01 2.02447E-23
2.50000E-01 1.96145E-23
2.53788E-01 1.90083E-23
2.57595E-01 1.84250E-23
2.61421E-01 1.78635E-23
2.65264E-01 1.73230E-23
2.69126E-01 1.68024E-23
2.73005E-01 1.63009E-23
2.76901E-01 1.58176E-23
2.80814E-01 1.53517E-23
2.84744E-01 1.49024E-23
2.88691E-01 1.44691E-23
2.92653E-01 1.40510E-23
2.96632E-01 1.36475E-23
3.00625E-01 1.32581E-23
3.04634E-01 1.28820E-23
3.08658E-01 1.25188E-23
3.12697E-01 1.21679E-23
3.16749E-01 1.18288E-23
3.20816E-01 1.15011E-23
3.24896E-01 1.11842E-23
3.28990E-01 1.08778E-23
3.33097E-01 1.05814E-23
3.37216E-01 1.02947E-23
3.41348E-01 1.00172E-23
3.45492E-01 9.74859E-24
3.49647E-01 9.48854E-24
3.53814E-01 9.23672E-24
3.57992E-01 8.99282E-24
3.62181E-01 8.75653E-24
3.66381E-01 8.52758E-24
3.70590E-01 8.30567E-24
3.74810E-01 8.09056E-24
3.79039E-01 7.88200E-24
3.83277E-01 7.67973E-24
3.87524E-01 7.48353E-24
3.91780E-01 7.29319E-24
3.96044E-01 7.10850E-24
4.00316E-01 6.92925E-24
4.04596E-01 6.75526E-24
4.08882E-01 6.58634E-24
4.13176E-01 6.42231E-24
4.17476E-01 6.26301E-24
4.21783E-01 6.10826E-24
4.26095E-01 5.95791E-24
4.30413E-01 5.81181E-24
4.34737E-01 5.66981E-24
4.39065E-01 5.53179E-24
4.43398E-01 5.39760E-24
4.47736E-01 5.26712E-24
4.52077E-01 5.14023E-24
4.56422E-01 5.01682E-24
4.60770E-01 4.89675E-24
4.65122E-01 4.77994E-24
4.69476E-01 4.66627E-24
4.73832E-01 4.55564E-24
4.78190E-01 4.44795E-24
4.82550E-01 4.34311E-24
4.86912E-01 4.24103E-24
4.91274E-01 4.14162E-24
4.95637E-01 4.04481E-24
5.00000E-01 3.95051E-24
5.04363E-01 3.85864E-24
5.08726E-01 3.76913E-24
5.13088E-01 3.68191E-24
5.17450E-01 3.59690E-24
5.21810E-01 3.51405E-24
5.26168E-01 3.43328E-24
5.30524E-01 3.35454E-24
5.34878E-01 3.27775E-24
5.39230E-01 3.20287E-24
5.43578E-01 3.12984E-24
5.47923E-01 3.05861E-24
5.52264E-01 2.98912E-24
5.56602E-01 2.92132E-24
5.60935E-01 2.85518E-24
5.65263E-01 2.79062E-24
5.69587E-01 2.72763E-24
5.73905E-01 2.66614E-24
5.78217E-01 2.60611E-24
5.82524E-01 2.54751E-24
5.86824E-01 2.49029E-24
5.91118E-01 2.43442E-24
5.95404E-01 2.37986E-24
5.99684E-01 2.32657E-24
6.03956E-01 2.27452E-24
6.08220E-01 2.22367E-24
6.12476E-01 2.17400E-24
6.16723E-01 2.12547E-24
6.20961E-01 2.07805E-24
6.25190E-01 2.03172E-24
6.29410E-01 1.98643E-24
6.33619E-01 1.94217E-24
6.37819E-01 1.89891E-24
6.42008E-01 1.85661E-24
6.46186E-01 1.81526E-24
6.50353E-01 1.77483E-24
6.54508E-01 1.73530E-24
6.58652E-01 1.69665E-24
6.62784E-01 1.65885E-24
6.66903E-01 1.62188E-24
6.71010E-01 1.58573E-24
6.75104E-01 1.55036E-24
6.79184E-01 1.51576E-24
6.83251E-01 1.48192E-24
6.87303E-01 1.44880E-24
6.91342E-01 1.41640E-24
6.95366E-01 1.38469E-24
6.99375E-01 1.35367E-24
7.03368E-01 1.32330E-24
7.07347E-01 1.29359E-24
7.11309E-01 1.26451E-24
7.15256E-01 1.23604E-24
7.19186E-01 1.20818E-24
7.23099E-01 1.18090E-24
7.26995E-01 1.15420E-24
7.30874E-01 1.12806E-24
7.34736E-01 1.10246E-24
7.38579E-01 1.07740E-24
7.42405E-01 1.05286E-24
7.46212E-01 1.02883E-24
7.50000E-01 1.00530E-24
7.53769E-01 9.82258E-25
7.57519E-01 9.59690E-25
7.61249E-01 9.37586E-25
7.64960E-01 9.15938E-25
7.68650E-01 8.94734E-25
7.72320E-01 8.73965E-25
7.75968E-01 8.53621E-25
7.79596E-01 8.33692E-25
7.83203E-01 8.14170E-25
7.86788E-01 7.95046E-25
7.90351E-01 7.76310E-25
7.93893E-01 7.57955E-25
7.97411E-01 7.39972E-25
8.00908E-01 7.22354E-25
8.04381E-01 7.05092E-25
8.07831E-01 6.88179E-25
8.11257E-01 6.71608E-25
8.14660E-01 6.55372E-25
8.18039E-01 6.39464E-25
8.21394E-01 6.23876E-25
8.24724E-01 6.08603E-25
8.28030E-01 5.93638E-25
8.31310E-01 5.78974E-25
8.34565E-01 5.64606E-25
8.37795E-01 5.50527E-25
8.40999E-01 5.36732E-25
8.44177E-01 5.23216E-25
8.47329E-01 5.09972E-25
8.50455E-01 4.96995E-25
8.53553E-01 4.84280E-25
8.56625E-01 4.71822E-25
8.59670E-01 4.59616E-25
8.62687E-01 4.47657E-25
8.65677E-01 4.35940E-25
8.68639E-01 4.24461E-25
8.71572E-01 4.13216E-25
8.74478E-01 4.02200E-25
8.77355E-01 3.91408E-25
8.80203E-01 3.80837E-25
8.83022E-01 3.70483E-25
8.85812E-01 3.60342E-25
8.88573E-01 3.50409E-25
8.91304E-01 3.40681E-25
8.94005E-01 3.31155E-25
8.96677E-01 3.21827E-25
8.99318E-01 3.12693E-25
9.01928E-01 3.03750E-25
9.04508E-01 2.94996E-25
9.07058E-01 2.86425E-25
9.09576E-01 2.78036E-25
9.12063E-01 2.69826E-25
9.14519E-01 2.61791E-25
9.16943E-01 2.53928E-25
9.19335E-01 2.46236E-25
9.21696E-01 2.38710E-25
9.24024E-01 2.31349E-25
9.26320E-01 2.24149E-25
9.28584E-01 2.17109E-25
9.30815E-01 2.10225E-25
9.33013E-01 2.03496E-25
9.35178E-01 1.96919E-25
9.37310E-01 1.90491E-25
9.39409E-01 1.84211E-25
9.41474E-01 1.78076E-25
9.43505E-01 1.72085E-25
9.45503E-01 1.66234E-25
9.47467E-01 1.60523E-25
9.49397E-01 1.54949E-25
9.51293E-01 1.49511E-25
9.53154E-01 1.44206E-25
9.54981E-01 1.39033E-25
9.56773E-01 1.33989E-25
9.58530E-01 1.29075E-25
9.60252E-01 1.24286E-25
9.61940E-01 1.19623E-25
9.63592E-01 1.15084E-25
9.65209E-01 1.10667E-25
9.66790E-01 1.06370E-25
9.68336E-01 1.02192E-25
9.69846E-01 9.81325E-26
9.71321E-01 9.41893E-26
9.72759E-01 9.03614E-26
9.74162E-01 8.66474E-26
9.75528E-01 8.30462E-26
9.76858E-01 7.95567E-26
9.78152E-01 7.61776E-26
9.79410E-01 7.29080E-26
9.80631E-01 6.97467E-26
9.81815E-01 6.66928E-26
9.82963E-01 6.37453E-26
9.84074E-01 6.09032E-26
9.85148E-01 5.81656E-26
9.86185E-01 5.55318E-26
9.87185E-01 5.30007E-26
9.88148E-01 5.05717E-26
9.89074E-01 4.82439E-26
9.89962E-01 4.60166E-26
9.90814E-01 4.38892E-26
9.91627E-01 4.18610E-26
9.92404E-01 3.99312E-26
9.93143E-01 3.80994E-26
9.93844E-01 3.63649E-26
9.94508E-01 3.47272E-26
9.95134E-01 3.31858E-26
9.95722E-01 3.17402E-26
9.96273E-01 3.03900E-26
9.96786E-01 2.91346E-26
9.97261E-01 2.79739E-26
9.97698E-01 2.69073E-26
9.98097E-01 2.59345E-26
9.98459E-01 2.50554E-26
9.98782E-01 2.42694E-26
9.99067E-01 2.35766E-26
9.99315E-01 2.29765E-26
9.99524E-01 2.24691E-26
9.99695E-01 2.20541E-26
9.99829E-01 2.17315E-26
9.99924E-01 2.15011E-26
9.99981E-01 2.13629E-26
1.00000E+00 2.13169E-26
