 #
 # Subroutine ELSEPA. Elastic scattering of electrons and positrons
 #                    by neutral atoms and positive ions
 #
 # Projectile: electron
 # Kinetic energy = 1.50000E+08 eV = 5.51240E+06 a.u.
 #
 # WARNING: High-energy factorization with free-atom DF screening.
 #          Absorption, polarization and exchange corrections are
 #          switched off.
 #          Phase shifts are calculated for the bare nucleus.
 #          Scattering amplitudes are not evaluated.
 #
 # Element:  I,  Z =  53,  atomic weight = 1.26904E+02 g/mol
 #
 # Nuclear model: Fermi distribution
 #                Average radius = 5.37703E-13 cm
 #                Skin thickness = 5.46000E-14 cm
 #
 # Number of electrons = 53
 #
 # Total elastic cross section = 5.70374E-18 cm**2 = 2.03684E-01 a0**2
 # 1st transport cross section = 2.44070E-25 cm**2 = 8.71590E-09 a0**2
 # 2nd transport cross section = 7.29356E-25 cm**2 = 2.60458E-08 a0**2
 #
 #
 # Differential cross section:                       MU=(1-COS(THETA))/2
 #
 #  THETA        MU          DCS          DCS        Sherman      error
 #  (deg)                 (cm**2/sr)   (a0**2/sr)    function
 #----------------------------------------------------------------------
0.00000E+00 9.99682E-10
7.61557E-13 9.95527E-10
1.18994E-12 9.93207E-10
1.71346E-12 9.90383E-10
2.33225E-12 9.87062E-10
3.04617E-12 9.83252E-10
3.85530E-12 9.78960E-10
4.75964E-12 9.74197E-10
5.75917E-12 9.68973E-10
6.85391E-12 9.63300E-10
8.04379E-12 9.57190E-10
9.32893E-12 9.50656E-10
1.07092E-11 9.43663E-10
1.21847E-11 9.36251E-10
1.37554E-11 9.28535E-10
1.54213E-11 9.20542E-10
1.71823E-11 9.12030E-10
1.90386E-11 9.03206E-10
2.09900E-11 8.94177E-10
2.30367E-11 8.84914E-10
2.51785E-11 8.75106E-10
2.74156E-11 8.65166E-10
2.97478E-11 8.55119E-10
3.21752E-11 8.44737E-10
3.46979E-11 8.34020E-10
3.73157E-11 8.23267E-10
4.00286E-11 8.12502E-10
4.28368E-11 8.01247E-10
4.57402E-11 7.89925E-10
4.87388E-11 7.78654E-10
5.18325E-11 7.67331E-10
5.50215E-11 7.55578E-10
5.83057E-11 7.43935E-10
6.16850E-11 7.32415E-10
6.51595E-11 7.20673E-10
6.87293E-11 7.08788E-10
7.23943E-11 6.97073E-10
7.61544E-11 6.85540E-10
1.18991E-10 5.70387E-10
1.71347E-10 4.66080E-10
2.33223E-10 3.77089E-10
3.04617E-10 3.04052E-10
3.85531E-10 2.45524E-10
4.75965E-10 1.99386E-10
5.75917E-10 1.63196E-10
6.85389E-10 1.34771E-10
8.04380E-10 1.12328E-10
9.32891E-10 9.44881E-11
1.07092E-09 7.98576E-11
1.21847E-09 6.79293E-11
1.37554E-09 5.85227E-11
1.54213E-09 5.10090E-11
1.71823E-09 4.42643E-11
1.90386E-09 3.86198E-11
2.09900E-09 3.40040E-11
2.30367E-09 3.01292E-11
2.51785E-09 2.65114E-11
2.74156E-09 2.34977E-11
2.97478E-09 2.09677E-11
3.21752E-09 1.87095E-11
3.46978E-09 1.66776E-11
3.73156E-09 1.49479E-11
4.00286E-09 1.34667E-11
4.28368E-09 1.20965E-11
4.57402E-09 1.08978E-11
4.87388E-09 9.85954E-12
5.18326E-09 8.94589E-12
5.50215E-09 8.10755E-12
5.83057E-09 7.37390E-12
6.16850E-09 6.72930E-12
6.51596E-09 6.14825E-12
6.87293E-09 5.62472E-12
7.23942E-09 5.16060E-12
7.61544E-09 4.74781E-12
1.18991E-08 2.25677E-12
1.71347E-08 1.23244E-12
2.33223E-08 7.34330E-13
3.04617E-08 4.62737E-13
3.85531E-08 3.04139E-13
4.75965E-08 2.07169E-13
5.75917E-08 1.45518E-13
6.85389E-08 1.05101E-13
8.04380E-08 7.78270E-14
9.32891E-08 5.88893E-14
1.07092E-07 4.53895E-14
1.21847E-07 3.55976E-14
1.37554E-07 2.83048E-14
1.54213E-07 2.28031E-14
1.71823E-07 1.85841E-14
1.90386E-07 1.52905E-14
2.09900E-07 1.26977E-14
2.30367E-07 1.06335E-14
2.51785E-07 8.96866E-15
2.74156E-07 7.61668E-15
2.97478E-07 6.51037E-15
3.21752E-07 5.59625E-15
3.46978E-07 4.83628E-15
3.73156E-07 4.20108E-15
4.00286E-07 3.66626E-15
4.28368E-07 3.21332E-15
4.57402E-07 2.82824E-15
4.87388E-07 2.49901E-15
5.18325E-07 2.21595E-15
5.50215E-07 1.97189E-15
5.83057E-07 1.76053E-15
6.16850E-07 1.57652E-15
6.51596E-07 1.41596E-15
6.87293E-07 1.27536E-15
7.23942E-07 1.15169E-15
7.61543E-07 1.04267E-15
1.18991E-06 4.33210E-16
1.71347E-06 2.11020E-16
2.33223E-06 1.14771E-16
3.04617E-06 6.76740E-17
3.85531E-06 4.24439E-17
4.75964E-06 2.79492E-17
5.75916E-06 1.91454E-17
6.85388E-06 1.35497E-17
8.04378E-06 9.85637E-18
9.32888E-06 7.33953E-18
1.07092E-05 5.57689E-18
1.21846E-05 4.31289E-18
1.37553E-05 3.38744E-18
1.54212E-05 2.69738E-18
1.71822E-05 2.17439E-18
1.90385E-05 1.77166E-18
2.09899E-05 1.45894E-18
2.30365E-05 1.21217E-18
2.51783E-05 1.01526E-18
2.74153E-05 8.56630E-19
2.97475E-05 7.27738E-19
3.21749E-05 6.22195E-19
3.46974E-05 5.35144E-19
3.73152E-05 4.62842E-19
4.00281E-05 4.02384E-19
4.28362E-05 3.51501E-19
4.57395E-05 3.08414E-19
4.87380E-05 2.71722E-19
5.18317E-05 2.40317E-19
5.50205E-05 2.13313E-19
5.83045E-05 1.89996E-19
6.16838E-05 1.69781E-19
6.51582E-05 1.52190E-19
6.87277E-05 1.36824E-19
7.23925E-05 1.23354E-19
7.61524E-05 1.11681E-19
9.21439E-05 7.63679E-20
1.09658E-04 5.39784E-20
1.28695E-04 3.92342E-20
1.49255E-04 2.91994E-20
1.71338E-04 2.21813E-20
1.94942E-04 1.71522E-20
2.20070E-04 1.34724E-20
2.46720E-04 1.07299E-20
2.74892E-04 8.65163E-21
3.04586E-04 7.05380E-21
3.35803E-04 5.80875E-21
3.68542E-04 4.82705E-21
4.02802E-04 4.04450E-21
4.38585E-04 3.41450E-21
4.75889E-04 2.90269E-21
5.14715E-04 2.48338E-21
5.55063E-04 2.13723E-21
5.96931E-04 1.84941E-21
6.40321E-04 1.60850E-21
6.85233E-04 1.40562E-21
7.31665E-04 1.23377E-21
7.79618E-04 1.08742E-21
8.29092E-04 9.62157E-22
8.80086E-04 8.54437E-22
9.32601E-04 7.61387E-22
9.86636E-04 6.80664E-22
1.04219E-03 6.10365E-22
1.09927E-03 5.48911E-22
1.15786E-03 4.95000E-22
1.21797E-03 4.47545E-22
1.27961E-03 4.05641E-22
1.34276E-03 3.68524E-22
1.40743E-03 3.35553E-22
1.47362E-03 3.06184E-22
1.54133E-03 2.79954E-22
1.61056E-03 2.56469E-22
1.68131E-03 2.35391E-22
1.75357E-03 2.16429E-22
1.82735E-03 1.99334E-22
1.90265E-03 1.83889E-22
1.97947E-03 1.69906E-22
2.05780E-03 1.57223E-22
2.13765E-03 1.45697E-22
2.21902E-03 1.35203E-22
2.30190E-03 1.25633E-22
2.38630E-03 1.16891E-22
2.47222E-03 1.08891E-22
2.55965E-03 1.01561E-22
2.64859E-03 9.48329E-23
2.73905E-03 8.86493E-23
2.83103E-03 8.29580E-23
2.92452E-03 7.77126E-23
3.01952E-03 7.28721E-23
3.11604E-03 6.83993E-23
3.21407E-03 6.42614E-23
3.31362E-03 6.04288E-23
3.41468E-03 5.68748E-23
3.51725E-03 5.35755E-23
3.62133E-03 5.05094E-23
3.72692E-03 4.76569E-23
3.83403E-03 4.50006E-23
3.94265E-03 4.25244E-23
4.05278E-03 4.02140E-23
4.16442E-03 3.80562E-23
4.27757E-03 3.60391E-23
4.39223E-03 3.41519E-23
4.50840E-03 3.23846E-23
4.62608E-03 3.07284E-23
4.74527E-03 2.91750E-23
4.86597E-03 2.77167E-23
4.98817E-03 2.63468E-23
5.11188E-03 2.50589E-23
5.23711E-03 2.38472E-23
5.36383E-03 2.27064E-23
5.49207E-03 2.16317E-23
5.62181E-03 2.06183E-23
5.75306E-03 1.96624E-23
5.88581E-03 1.87599E-23
6.02007E-03 1.79074E-23
6.15583E-03 1.71017E-23
6.29310E-03 1.63396E-23
6.43187E-03 1.56184E-23
6.57214E-03 1.49355E-23
6.71392E-03 1.42886E-23
6.85720E-03 1.36753E-23
7.00198E-03 1.30936E-23
7.14827E-03 1.25417E-23
7.29605E-03 1.20176E-23
7.44534E-03 1.15198E-23
7.59612E-03 1.10467E-23
7.97965E-03 9.96281E-24
8.37255E-03 9.00448E-24
8.77480E-03 8.15486E-24
9.18641E-03 7.39961E-24
9.60736E-03 6.72659E-24
1.00376E-02 6.12540E-24
1.04773E-02 5.58716E-24
1.09262E-02 5.10424E-24
1.13844E-02 4.67004E-24
1.18520E-02 4.27889E-24
1.23288E-02 3.92584E-24
1.28150E-02 3.60661E-24
1.33104E-02 3.31746E-24
1.38150E-02 3.05512E-24
1.43290E-02 2.81672E-24
1.48521E-02 2.59974E-24
1.53845E-02 2.40198E-24
1.59262E-02 2.22147E-24
1.64770E-02 2.05649E-24
1.70371E-02 1.90551E-24
1.76063E-02 1.76716E-24
1.81848E-02 1.64024E-24
1.87724E-02 1.52366E-24
1.93692E-02 1.41646E-24
1.99751E-02 1.31779E-24
2.05901E-02 1.22686E-24
2.12143E-02 1.14300E-24
2.18476E-02 1.06557E-24
2.24900E-02 9.94009E-25
2.31415E-02 9.27823E-25
2.38021E-02 8.66551E-25
2.44717E-02 8.09780E-25
2.51504E-02 7.57137E-25
2.58382E-02 7.08285E-25
2.65349E-02 6.62917E-25
2.72407E-02 6.20752E-25
2.79555E-02 5.81538E-25
2.86793E-02 5.45043E-25
2.94120E-02 5.11056E-25
3.01537E-02 4.79386E-25
3.09043E-02 4.49855E-25
3.16639E-02 4.22304E-25
3.24324E-02 3.96584E-25
3.32098E-02 3.72562E-25
3.39961E-02 3.50112E-25
3.47912E-02 3.29121E-25
3.55952E-02 3.09484E-25
3.64081E-02 2.91105E-25
3.72297E-02 2.73896E-25
3.80602E-02 2.57775E-25
3.88995E-02 2.42666E-25
3.97476E-02 2.28500E-25
4.06044E-02 2.15213E-25
4.14700E-02 2.02745E-25
4.23443E-02 1.91042E-25
4.32273E-02 1.80051E-25
4.41190E-02 1.69727E-25
4.50194E-02 1.60026E-25
4.59284E-02 1.50907E-25
4.68461E-02 1.42332E-25
4.87074E-02 1.26678E-25
5.06030E-02 1.12812E-25
5.25328E-02 1.00518E-25
5.44967E-02 8.96062E-26
5.64946E-02 7.99123E-26
5.85262E-02 7.12930E-26
6.05914E-02 6.36232E-26
6.26901E-02 5.67936E-26
6.48222E-02 5.07080E-26
6.69873E-02 4.52823E-26
6.91854E-02 4.04424E-26
7.14163E-02 3.61230E-26
7.36799E-02 3.22664E-26
7.59760E-02 2.88219E-26
7.83043E-02 2.57445E-26
8.06647E-02 2.29942E-26
8.30571E-02 2.05358E-26
8.54812E-02 1.83380E-26
8.79369E-02 1.63728E-26
9.04240E-02 1.46156E-26
9.29422E-02 1.30442E-26
9.54915E-02 1.16390E-26
9.80716E-02 1.03826E-26
1.00682E-01 9.25912E-27
1.03323E-01 8.25478E-27
1.05995E-01 7.35706E-27
1.08696E-01 6.55481E-27
1.11427E-01 5.83805E-27
1.14188E-01 5.19784E-27
1.16978E-01 4.62620E-27
1.19797E-01 4.11596E-27
1.22645E-01 3.66070E-27
1.25522E-01 3.25468E-27
1.28428E-01 2.89272E-27
1.31361E-01 2.57022E-27
1.34323E-01 2.28301E-27
1.37313E-01 2.02739E-27
1.40330E-01 1.80000E-27
1.43375E-01 1.59786E-27
1.46447E-01 1.41828E-27
1.49545E-01 1.25885E-27
1.52671E-01 1.11740E-27
1.55823E-01 9.92006E-28
1.59001E-01 8.80919E-28
1.62205E-01 7.82583E-28
1.65435E-01 6.95603E-28
1.68690E-01 6.18726E-28
1.71970E-01 5.50833E-28
1.75276E-01 4.90921E-28
1.78606E-01 4.38092E-28
1.81961E-01 3.91543E-28
1.85340E-01 3.50558E-28
1.88743E-01 3.14496E-28
1.92169E-01 2.82785E-28
1.95619E-01 2.54915E-28
1.99092E-01 2.30433E-28
2.02589E-01 2.08932E-28
2.06107E-01 1.90054E-28
2.09649E-01 1.73478E-28
2.13212E-01 1.58922E-28
2.16797E-01 1.46132E-28
2.20404E-01 1.34887E-28
2.24032E-01 1.24990E-28
2.27680E-01 1.16265E-28
2.31350E-01 1.08561E-28
2.35040E-01 1.01741E-28
2.38751E-01 9.56880E-29
2.42481E-01 9.02970E-29
2.46231E-01 8.54771E-29
2.50000E-01 8.11489E-29
2.53788E-01 7.72431E-29
2.57595E-01 7.36995E-29
2.61421E-01 7.04659E-29
2.65264E-01 6.74973E-29
2.69126E-01 6.47548E-29
2.73005E-01 6.22052E-29
2.76901E-01 5.98201E-29
2.80814E-01 5.75751E-29
2.84744E-01 5.54498E-29
2.88691E-01 5.34269E-29
2.92653E-01 5.14919E-29
2.96632E-01 4.96329E-29
3.00625E-01 4.78398E-29
3.04634E-01 4.61047E-29
3.08658E-01 4.44208E-29
3.12697E-01 4.27830E-29
3.16749E-01 4.11872E-29
3.20816E-01 3.96300E-29
3.24896E-01 3.81092E-29
3.28990E-01 3.66229E-29
3.33097E-01 3.51700E-29
3.37216E-01 3.37496E-29
3.41348E-01 3.23613E-29
3.45492E-01 3.10048E-29
3.49647E-01 2.96802E-29
3.53814E-01 2.83877E-29
3.57992E-01 2.71274E-29
3.62181E-01 2.58997E-29
3.66381E-01 2.47049E-29
3.70590E-01 2.35434E-29
3.74810E-01 2.24154E-29
3.79039E-01 2.13212E-29
3.83277E-01 2.02611E-29
3.87524E-01 1.92353E-29
3.91780E-01 1.82437E-29
3.96044E-01 1.72865E-29
4.00316E-01 1.63636E-29
4.04596E-01 1.54748E-29
4.08882E-01 1.46199E-29
4.13176E-01 1.37987E-29
4.17476E-01 1.30108E-29
4.21783E-01 1.22558E-29
4.26095E-01 1.15331E-29
4.30413E-01 1.08424E-29
4.34737E-01 1.01828E-29
4.39065E-01 9.55389E-30
4.43398E-01 8.95485E-30
4.47736E-01 8.38497E-30
4.52077E-01 7.84348E-30
4.56422E-01 7.32959E-30
4.60770E-01 6.84246E-30
4.65122E-01 6.38124E-30
4.69476E-01 5.94509E-30
4.73832E-01 5.53313E-30
4.78190E-01 5.14447E-30
4.82550E-01 4.77824E-30
4.86912E-01 4.43355E-30
4.91274E-01 4.10952E-30
4.95637E-01 3.80528E-30
5.00000E-01 3.51996E-30
5.04363E-01 3.25271E-30
5.08726E-01 3.00269E-30
5.13088E-01 2.76908E-30
5.17450E-01 2.55108E-30
5.21810E-01 2.34788E-30
5.26168E-01 2.15874E-30
5.30524E-01 1.98290E-30
5.34878E-01 1.81963E-30
5.39230E-01 1.66825E-30
5.43578E-01 1.52807E-30
5.47923E-01 1.39844E-30
5.52264E-01 1.27874E-30
5.56602E-01 1.16836E-30
5.60935E-01 1.06672E-30
5.65263E-01 9.73268E-31
5.69587E-01 8.87478E-31
5.73905E-01 8.08842E-31
5.78217E-01 7.36880E-31
5.82524E-01 6.71133E-31
5.86824E-01 6.11166E-31
5.91118E-01 5.56567E-31
5.95404E-01 5.06944E-31
5.99684E-01 4.61928E-31
6.03956E-01 4.21170E-31
6.08220E-01 3.84341E-31
6.12476E-01 3.51132E-31
6.16723E-01 3.21251E-31
6.20961E-01 2.94425E-31
6.25190E-01 2.70398E-31
6.29410E-01 2.48931E-31
6.33619E-01 2.29799E-31
6.37819E-01 2.12793E-31
6.42008E-01 1.97720E-31
6.46186E-01 1.84398E-31
6.50353E-01 1.72660E-31
6.54508E-01 1.62349E-31
6.58652E-01 1.53322E-31
6.62784E-01 1.45445E-31
6.66903E-01 1.38597E-31
6.71010E-01 1.32665E-31
6.75104E-01 1.27544E-31
6.79184E-01 1.23139E-31
6.83251E-01 1.19365E-31
6.87303E-01 1.16142E-31
6.91342E-01 1.13397E-31
6.95366E-01 1.11066E-31
6.99375E-01 1.09089E-31
7.03368E-01 1.07412E-31
7.07347E-01 1.05988E-31
7.11309E-01 1.04773E-31
7.15256E-01 1.03728E-31
7.19186E-01 1.02819E-31
7.23099E-01 1.02016E-31
7.26995E-01 1.01292E-31
7.30874E-01 1.00623E-31
7.34736E-01 9.99882E-32
7.38579E-01 9.93703E-32
7.42405E-01 9.87538E-32
7.46212E-01 9.81257E-32
7.50000E-01 9.74752E-32
7.53769E-01 9.67931E-32
7.57519E-01 9.60720E-32
7.61249E-01 9.53063E-32
7.64960E-01 9.44913E-32
7.68650E-01 9.36238E-32
7.72320E-01 9.27017E-32
7.75968E-01 9.17236E-32
7.79596E-01 9.06893E-32
7.83203E-01 8.95990E-32
7.86788E-01 8.84537E-32
7.90351E-01 8.72550E-32
7.93893E-01 8.60047E-32
7.97411E-01 8.47052E-32
8.00908E-01 8.33593E-32
8.04381E-01 8.19698E-32
8.07831E-01 8.05398E-32
8.11257E-01 7.90727E-32
8.14660E-01 7.75719E-32
8.18039E-01 7.60408E-32
8.21394E-01 7.44829E-32
8.24724E-01 7.29018E-32
8.28030E-01 7.13009E-32
8.31310E-01 6.96836E-32
8.34565E-01 6.80534E-32
8.37795E-01 6.64135E-32
8.40999E-01 6.47672E-32
8.44177E-01 6.31174E-32
8.47329E-01 6.14672E-32
8.50455E-01 5.98194E-32
8.53553E-01 5.81768E-32
8.56625E-01 5.65417E-32
8.59670E-01 5.49168E-32
8.62687E-01 5.33041E-32
8.65677E-01 5.17060E-32
8.68639E-01 5.01243E-32
8.71572E-01 4.85608E-32
8.74478E-01 4.70173E-32
8.77355E-01 4.54953E-32
8.80203E-01 4.39962E-32
8.83022E-01 4.25213E-32
8.85812E-01 4.10718E-32
8.88573E-01 3.96486E-32
8.91304E-01 3.82527E-32
8.94005E-01 3.68848E-32
8.96677E-01 3.55456E-32
8.99318E-01 3.42357E-32
9.01928E-01 3.29556E-32
9.04508E-01 3.17056E-32
9.07058E-01 3.04861E-32
9.09576E-01 2.92971E-32
9.12063E-01 2.81389E-32
9.14519E-01 2.70115E-32
9.16943E-01 2.59148E-32
9.19335E-01 2.48488E-32
9.21696E-01 2.38133E-32
9.24024E-01 2.28081E-32
9.26320E-01 2.18330E-32
9.28584E-01 2.08877E-32
9.30815E-01 1.99718E-32
9.33013E-01 1.90849E-32
9.35178E-01 1.82267E-32
9.37310E-01 1.73967E-32
9.39409E-01 1.65944E-32
9.41474E-01 1.58193E-32
9.43505E-01 1.50709E-32
9.45503E-01 1.43487E-32
9.47467E-01 1.36522E-32
9.49397E-01 1.29807E-32
9.51293E-01 1.23337E-32
9.53154E-01 1.17106E-32
9.54981E-01 1.11109E-32
9.56773E-01 1.05339E-32
9.58530E-01 9.97906E-33
9.60252E-01 9.44582E-33
9.61940E-01 8.93356E-33
9.63592E-01 8.44171E-33
9.65209E-01 7.96968E-33
9.66790E-01 7.51691E-33
9.68336E-01 7.08282E-33
9.69846E-01 6.66686E-33
9.71321E-01 6.26848E-33
9.72759E-01 5.88714E-33
9.74162E-01 5.52230E-33
9.75528E-01 5.17345E-33
9.76858E-01 4.84009E-33
9.78152E-01 4.52171E-33
9.79410E-01 4.21784E-33
9.80631E-01 3.92801E-33
9.81815E-01 3.65176E-33
9.82963E-01 3.38864E-33
9.84074E-01 3.13824E-33
9.85148E-01 2.90014E-33
9.86185E-01 2.67394E-33
9.87185E-01 2.45925E-33
9.88148E-01 2.25570E-33
9.89074E-01 2.06294E-33
9.89962E-01 1.88062E-33
9.90814E-01 1.70842E-33
9.91627E-01 1.54603E-33
9.92404E-01 1.39315E-33
9.93143E-01 1.24949E-33
9.93844E-01 1.11480E-33
9.94508E-01 9.88802E-34
9.95134E-01 8.71273E-34
9.95722E-01 7.61983E-34
9.96273E-01 6.60721E-34
9.96786E-01 5.67291E-34
9.97261E-01 4.81509E-34
9.97698E-01 4.03207E-34
9.98097E-01 3.32229E-34
9.98459E-01 2.68435E-34
9.98782E-01 2.11696E-34
9.99067E-01 1.61900E-34
9.99315E-01 1.18945E-34
9.99524E-01 8.27453E-35
9.99695E-01 5.32271E-35
9.99829E-01 3.03308E-35
9.99924E-01 1.40092E-35
9.99981E-01 4.22970E-36
1.00000E+00 9.71520E-37
