 #
 # Subroutine ELSEPA. Elastic scattering of electrons and positrons
 #                    by neutral atoms and positive ions
 #
 # Projectile: electron
 # Kinetic energy = 4.50000E+08 eV = 1.65372E+07 a.u.
 #
 # WARNING: High-energy factorization with free-atom DF screening.
 #          Absorption, polarization and exchange corrections are
 #          switched off.
 #          Phase shifts are calculated for the bare nucleus.
 #          Scattering amplitudes are not evaluated.
 #
 # Element:  I,  Z =  53,  atomic weight = 1.26904E+02 g/mol
 #
 # Nuclear model: Fermi distribution
 #                Average radius = 5.37703E-13 cm
 #                Skin thickness = 5.46000E-14 cm
 #
 # Number of electrons = 53
 #
 # Total elastic cross section = 5.70452E-18 cm**2 = 2.03712E-01 a0**2
 # 1st transport cross section = 2.71265E-26 cm**2 = 9.68705E-10 a0**2
 # 2nd transport cross section = 8.13407E-26 cm**2 = 2.90473E-09 a0**2
 #
 #
 # Differential cross section:                       MU=(1-COS(THETA))/2
 #
 #  THETA        MU          DCS          DCS        Sherman      error
 #  (deg)                 (cm**2/sr)   (a0**2/sr)    function
 #----------------------------------------------------------------------
0.00000E+00 8.95645E-09
7.61557E-13 8.63191E-09
1.18994E-12 8.45674E-09
1.71346E-12 8.25036E-09
2.33225E-12 8.01506E-09
3.04617E-12 7.75611E-09
3.85530E-12 7.47808E-09
4.75964E-12 7.18548E-09
5.75917E-12 6.88261E-09
6.85391E-12 6.57025E-09
8.04379E-12 6.25445E-09
9.32893E-12 5.93931E-09
1.07092E-11 5.62782E-09
1.21847E-11 5.32245E-09
1.37554E-11 5.02438E-09
1.54213E-11 4.73372E-09
1.71823E-11 4.45449E-09
1.90386E-11 4.18755E-09
2.09900E-11 3.93348E-09
2.30367E-11 3.69255E-09
2.51785E-11 3.46354E-09
2.74156E-11 3.24732E-09
2.97478E-11 3.04433E-09
3.21752E-11 2.85417E-09
3.46979E-11 2.67631E-09
3.73157E-11 2.51012E-09
4.00286E-11 2.35423E-09
4.28368E-11 2.20913E-09
4.57402E-11 2.07415E-09
4.87388E-11 1.94864E-09
5.18325E-11 1.83197E-09
5.50215E-11 1.72328E-09
5.83057E-11 1.62208E-09
6.16850E-11 1.52807E-09
6.51595E-11 1.44073E-09
6.87293E-11 1.35953E-09
7.23943E-11 1.28402E-09
7.61544E-11 1.21353E-09
1.18991E-10 7.19557E-10
1.71347E-10 4.59457E-10
2.33223E-10 3.06429E-10
3.04617E-10 2.11861E-10
3.85531E-10 1.50442E-10
4.75965E-10 1.09159E-10
5.75917E-10 8.07477E-11
6.85389E-10 6.07300E-11
8.04380E-10 4.65801E-11
9.32891E-10 3.63945E-11
1.07092E-09 2.89200E-11
1.21847E-09 2.33339E-11
1.37554E-09 1.90816E-11
1.54213E-09 1.57830E-11
1.71823E-09 1.31910E-11
1.90386E-09 1.11245E-11
2.09900E-09 9.45540E-12
2.30367E-09 8.09152E-12
2.51785E-09 6.96202E-12
2.74156E-09 6.02185E-12
2.97478E-09 5.23203E-12
3.21752E-09 4.56494E-12
3.46978E-09 3.99925E-12
3.73156E-09 3.51699E-12
4.00286E-09 3.10276E-12
4.28368E-09 2.74684E-12
4.57402E-09 2.43968E-12
4.87388E-09 2.17354E-12
5.18326E-09 1.94207E-12
5.50215E-09 1.73987E-12
5.83057E-09 1.56280E-12
6.16850E-09 1.40751E-12
6.51596E-09 1.27093E-12
6.87293E-09 1.15049E-12
7.23942E-09 1.04399E-12
7.61544E-09 9.49503E-13
1.18991E-08 4.10078E-13
1.71347E-08 2.06018E-13
2.33223E-08 1.14721E-13
3.04617E-08 6.88171E-14
3.85531E-08 4.36970E-14
4.75965E-08 2.90335E-14
5.75917E-08 2.00219E-14
6.85389E-08 1.42443E-14
8.04380E-08 1.04057E-14
9.32891E-08 7.77653E-15
1.07092E-07 5.92757E-15
1.21847E-07 4.59700E-15
1.37554E-07 3.61986E-15
1.54213E-07 2.88925E-15
1.71823E-07 2.33413E-15
1.90386E-07 1.90625E-15
2.09900E-07 1.57213E-15
2.30367E-07 1.30816E-15
2.51785E-07 1.09736E-15
2.74156E-07 9.27381E-16
2.97478E-07 7.89085E-16
3.21752E-07 6.75639E-16
3.46978E-07 5.81868E-16
3.73156E-07 5.03815E-16
4.00286E-07 4.38420E-16
4.28368E-07 3.83297E-16
4.57402E-07 3.36570E-16
4.87388E-07 2.96748E-16
5.18325E-07 2.62643E-16
5.50215E-07 2.33298E-16
5.83057E-07 2.07938E-16
6.16850E-07 1.85929E-16
6.51596E-07 1.66756E-16
6.87293E-07 1.49990E-16
7.23942E-07 1.35278E-16
7.61543E-07 1.22325E-16
1.18991E-06 5.03309E-17
1.71347E-06 2.43355E-17
2.33223E-06 1.31572E-17
3.04617E-06 7.72107E-18
3.85531E-06 4.82410E-18
4.75964E-06 3.16704E-18
5.75916E-06 2.16420E-18
6.85388E-06 1.52870E-18
8.04378E-06 1.11027E-18
9.32888E-06 8.25706E-19
1.07092E-05 6.26753E-19
1.21846E-05 4.84279E-19
1.37553E-05 3.80091E-19
1.54212E-05 3.02478E-19
1.71822E-05 2.43707E-19
1.90385E-05 1.98481E-19
2.09899E-05 1.63386E-19
2.30365E-05 1.35706E-19
2.51783E-05 1.13630E-19
2.74153E-05 9.58521E-20
2.97475E-05 8.14124E-20
3.21749E-05 6.95921E-20
3.46974E-05 5.98455E-20
3.73152E-05 5.17523E-20
4.00281E-05 4.49862E-20
4.28362E-05 3.92928E-20
4.57395E-05 3.44727E-20
4.87380E-05 3.03685E-20
5.18317E-05 2.68562E-20
5.50205E-05 2.38366E-20
5.83045E-05 2.12295E-20
6.16838E-05 1.89695E-20
6.51582E-05 1.70030E-20
6.87277E-05 1.52855E-20
7.23925E-05 1.37800E-20
7.61524E-05 1.25126E-20
9.21439E-05 8.55234E-21
1.09658E-04 6.04122E-21
1.28695E-04 4.38743E-21
1.49255E-04 3.26188E-21
1.71338E-04 2.47478E-21
1.94942E-04 1.91083E-21
2.20070E-04 1.49830E-21
2.46720E-04 1.19094E-21
2.74892E-04 9.58132E-22
3.04586E-04 7.79242E-22
3.35803E-04 6.39944E-22
3.68542E-04 5.30199E-22
4.02802E-04 4.42799E-22
4.38585E-04 3.72509E-22
4.75889E-04 3.15475E-22
5.14715E-04 2.68812E-22
5.55063E-04 2.30346E-22
5.96931E-04 1.98413E-22
6.40321E-04 1.71733E-22
6.85233E-04 1.49306E-22
7.31665E-04 1.30349E-22
7.79618E-04 1.14240E-22
8.29092E-04 1.00485E-22
8.80086E-04 8.86859E-23
9.32601E-04 7.85207E-23
9.86636E-04 6.97278E-23
1.04219E-03 6.20931E-23
1.09927E-03 5.54400E-23
1.15786E-03 4.96227E-23
1.21797E-03 4.45199E-23
1.27961E-03 4.00302E-23
1.34276E-03 3.60686E-23
1.40743E-03 3.25635E-23
1.47362E-03 2.94541E-23
1.54133E-03 2.66891E-23
1.61056E-03 2.42244E-23
1.68131E-03 2.20226E-23
1.75357E-03 2.00514E-23
1.82735E-03 1.82832E-23
1.90265E-03 1.66938E-23
1.97947E-03 1.52626E-23
2.05780E-03 1.39716E-23
2.13765E-03 1.28051E-23
2.21902E-03 1.17493E-23
2.30190E-03 1.07922E-23
2.38630E-03 9.92336E-24
2.47222E-03 9.13349E-24
2.55965E-03 8.41443E-24
2.64859E-03 7.75897E-24
2.73905E-03 7.16074E-24
2.83103E-03 6.61408E-24
2.92452E-03 6.11396E-24
3.01952E-03 5.65591E-24
3.11604E-03 5.23595E-24
3.21407E-03 4.85050E-24
3.31362E-03 4.49639E-24
3.41468E-03 4.17075E-24
3.51725E-03 3.87102E-24
3.62133E-03 3.59490E-24
3.72692E-03 3.34032E-24
3.83403E-03 3.10539E-24
3.94265E-03 2.88844E-24
4.05278E-03 2.68793E-24
4.16442E-03 2.50249E-24
4.27757E-03 2.33087E-24
4.39223E-03 2.17192E-24
4.50840E-03 2.02461E-24
4.62608E-03 1.88802E-24
4.74527E-03 1.76127E-24
4.86597E-03 1.64361E-24
4.98817E-03 1.53430E-24
5.11188E-03 1.43271E-24
5.23711E-03 1.33825E-24
5.36383E-03 1.25036E-24
5.49207E-03 1.16856E-24
5.62181E-03 1.09239E-24
5.75306E-03 1.02142E-24
5.88581E-03 9.55279E-25
6.02007E-03 8.93610E-25
6.15583E-03 8.36090E-25
6.29310E-03 7.82418E-25
6.43187E-03 7.32320E-25
6.57214E-03 6.85542E-25
6.71392E-03 6.41849E-25
6.85720E-03 6.01026E-25
7.00198E-03 5.62874E-25
7.14827E-03 5.27206E-25
7.29605E-03 4.93853E-25
7.44534E-03 4.62656E-25
7.59612E-03 4.33469E-25
7.97965E-03 3.68428E-25
8.37255E-03 3.13259E-25
8.77480E-03 2.66412E-25
9.18641E-03 2.26594E-25
9.60736E-03 1.92722E-25
1.00376E-02 1.63892E-25
1.04773E-02 1.39341E-25
1.09262E-02 1.18426E-25
1.13844E-02 1.00606E-25
1.18520E-02 8.54226E-26
1.23288E-02 7.24858E-26
1.28150E-02 6.14659E-26
1.33104E-02 5.20819E-26
1.38150E-02 4.40947E-26
1.43290E-02 3.73003E-26
1.48521E-02 3.15248E-26
1.53845E-02 2.66193E-26
1.59262E-02 2.24567E-26
1.64770E-02 1.89283E-26
1.70371E-02 1.59409E-26
1.76063E-02 1.34148E-26
1.81848E-02 1.12818E-26
1.87724E-02 9.48338E-27
1.93692E-02 7.96947E-27
1.99751E-02 6.69720E-27
2.05901E-02 5.62990E-27
2.12143E-02 4.73618E-27
2.18476E-02 3.98922E-27
2.24900E-02 3.36610E-27
2.31415E-02 2.84727E-27
2.38021E-02 2.41609E-27
2.44717E-02 2.05837E-27
2.51504E-02 1.76207E-27
2.58382E-02 1.51696E-27
2.65349E-02 1.31441E-27
2.72407E-02 1.14709E-27
2.79555E-02 1.00886E-27
2.86793E-02 8.94549E-28
2.94120E-02 7.99812E-28
3.01537E-02 7.21035E-28
3.09043E-02 6.55209E-28
3.16639E-02 5.99839E-28
3.24324E-02 5.52871E-28
3.32098E-02 5.12620E-28
3.39961E-02 4.77711E-28
3.47912E-02 4.47032E-28
3.55952E-02 4.19688E-28
3.64081E-02 3.94967E-28
3.72297E-02 3.72309E-28
3.80602E-02 3.51274E-28
3.88995E-02 3.31529E-28
3.97476E-02 3.12819E-28
4.06044E-02 2.94957E-28
4.14700E-02 2.77811E-28
4.23443E-02 2.61286E-28
4.32273E-02 2.45325E-28
4.41190E-02 2.29891E-28
4.50194E-02 2.14966E-28
4.59284E-02 2.00547E-28
4.68461E-02 1.86638E-28
4.87074E-02 1.60391E-28
5.06030E-02 1.36324E-28
5.25328E-02 1.14528E-28
5.44967E-02 9.50528E-29
5.64946E-02 7.78965E-29
5.85262E-02 6.30016E-29
6.05914E-02 5.02620E-29
6.26901E-02 3.95324E-29
6.48222E-02 3.06386E-29
6.69873E-02 2.33889E-29
6.91854E-02 1.75833E-29
7.14163E-02 1.30225E-29
7.36799E-02 9.51435E-30
7.59760E-02 6.87924E-30
7.83043E-02 4.95326E-30
8.06647E-02 3.59056E-30
8.30571E-02 2.66425E-30
8.54812E-02 2.06633E-30
8.79369E-02 1.70698E-30
9.04240E-02 1.51326E-30
9.29422E-02 1.42751E-30
9.54915E-02 1.40548E-30
9.80716E-02 1.41441E-30
1.00682E-01 1.43124E-30
1.03323E-01 1.44071E-30
1.05995E-01 1.43380E-30
1.08696E-01 1.40625E-30
1.11427E-01 1.35726E-30
1.14188E-01 1.28847E-30
1.16978E-01 1.20304E-30
1.19797E-01 1.10497E-30
1.22645E-01 9.98565E-31
1.25522E-01 8.88030E-31
1.28428E-01 7.77200E-31
1.31361E-01 6.69375E-31
1.34323E-01 5.67224E-31
1.37313E-01 4.72760E-31
1.40330E-01 3.87363E-31
1.43375E-01 3.11830E-31
1.46447E-01 2.46448E-31
1.49545E-01 1.91083E-31
1.52671E-01 1.45265E-31
1.55823E-01 1.08275E-31
1.59001E-01 7.92258E-32
1.62205E-01 5.71315E-32
1.65435E-01 4.09695E-32
1.68690E-01 2.97286E-32
1.71970E-01 2.24474E-32
1.75276E-01 1.82419E-32
1.78606E-01 1.63242E-32
1.81961E-01 1.60124E-32
1.85340E-01 1.67344E-32
1.88743E-01 1.80257E-32
1.92169E-01 1.95234E-32
1.95619E-01 2.09572E-32
1.99092E-01 2.21386E-32
2.02589E-01 2.29487E-32
2.06107E-01 2.33263E-32
2.09649E-01 2.32561E-32
2.13212E-01 2.27575E-32
2.16797E-01 2.18749E-32
2.20404E-01 2.06688E-32
2.24032E-01 1.92086E-32
2.27680E-01 1.75664E-32
2.31350E-01 1.58128E-32
2.35040E-01 1.40129E-32
2.38751E-01 1.22244E-32
2.42481E-01 1.04957E-32
2.46231E-01 8.86577E-33
2.50000E-01 7.36366E-33
2.53788E-01 6.00927E-33
2.57595E-01 4.81399E-33
2.61421E-01 3.78184E-33
2.65264E-01 2.91058E-33
2.69126E-01 2.19296E-33
2.73005E-01 1.61793E-33
2.76901E-01 1.17173E-33
2.80814E-01 8.38953E-34
2.84744E-01 6.03415E-34
2.88691E-01 4.48908E-34
2.92653E-01 3.59804E-34
2.96632E-01 3.21518E-34
3.00625E-01 3.20837E-34
3.04634E-01 3.46130E-34
3.08658E-01 3.87458E-34
3.12697E-01 4.36593E-34
3.16749E-01 4.86967E-34
3.20816E-01 5.33572E-34
3.24896E-01 5.72814E-34
3.28990E-01 6.02347E-34
3.33097E-01 6.20895E-34
3.37216E-01 6.28060E-34
3.41348E-01 6.24152E-34
3.45492E-01 6.10010E-34
3.49647E-01 5.86851E-34
3.53814E-01 5.56136E-34
3.57992E-01 5.19447E-34
3.62181E-01 4.78394E-34
3.66381E-01 4.34535E-34
3.70590E-01 3.89317E-34
3.74810E-01 3.44037E-34
3.79039E-01 2.99810E-34
3.83277E-01 2.57559E-34
3.87524E-01 2.18009E-34
3.91780E-01 1.81695E-34
3.96044E-01 1.48973E-34
4.00316E-01 1.20036E-34
4.04596E-01 9.49367E-35
4.08882E-01 7.36072E-35
4.13176E-01 5.58822E-35
4.17476E-01 4.15212E-35
4.21783E-01 3.02286E-35
4.26095E-01 2.16731E-35
4.30413E-01 1.55044E-35
4.34737E-01 1.13674E-35
4.39065E-01 8.91431E-36
4.43398E-01 7.81443E-36
4.47736E-01 7.76103E-36
4.52077E-01 8.47674E-36
4.56422E-01 9.71671E-36
4.60770E-01 1.12702E-35
4.65122E-01 1.29606E-35
4.69476E-01 1.46447E-35
4.73832E-01 1.62107E-35
4.78190E-01 1.75757E-35
4.82550E-01 1.86825E-35
4.86912E-01 1.94968E-35
4.91274E-01 2.00033E-35
4.95637E-01 2.02028E-35
5.00000E-01 2.01087E-35
5.04363E-01 1.97440E-35
5.08726E-01 1.91390E-35
5.13088E-01 1.83281E-35
5.17450E-01 1.73484E-35
5.21810E-01 1.62374E-35
5.26168E-01 1.50320E-35
5.30524E-01 1.37671E-35
5.34878E-01 1.24746E-35
5.39230E-01 1.11831E-35
5.43578E-01 9.91741E-36
5.47923E-01 8.69843E-36
5.52264E-01 7.54298E-36
5.56602E-01 6.46407E-36
5.60935E-01 5.47105E-36
5.65263E-01 4.56995E-36
5.69587E-01 3.76381E-36
5.73905E-01 3.05305E-36
5.78217E-01 2.43588E-36
5.82524E-01 1.90871E-36
5.86824E-01 1.46646E-36
5.91118E-01 1.10302E-36
5.95404E-01 8.11490E-37
5.99684E-01 5.84507E-37
6.03956E-01 4.14504E-37
6.08220E-01 2.93923E-37
6.12476E-01 2.15396E-37
6.16723E-01 1.71893E-37
6.20961E-01 1.56834E-37
6.25190E-01 1.64168E-37
6.29410E-01 1.88425E-37
6.33619E-01 2.24760E-37
6.37819E-01 2.68935E-37
6.42008E-01 3.17342E-37
6.46186E-01 3.66950E-37
6.50353E-01 4.15300E-37
6.54508E-01 4.60443E-37
6.58652E-01 5.00903E-37
6.62784E-01 5.35627E-37
6.66903E-01 5.63928E-37
6.71010E-01 5.85445E-37
6.75104E-01 6.00076E-37
6.79184E-01 6.07952E-37
6.83251E-01 6.09371E-37
6.87303E-01 6.04779E-37
6.91342E-01 5.94713E-37
6.95366E-01 5.79789E-37
6.99375E-01 5.60652E-37
7.03368E-01 5.37973E-37
7.07347E-01 5.12408E-37
7.11309E-01 4.84611E-37
7.15256E-01 4.55185E-37
7.19186E-01 4.24703E-37
7.23099E-01 3.93679E-37
7.26995E-01 3.62581E-37
7.30874E-01 3.31817E-37
7.34736E-01 3.01738E-37
7.38579E-01 2.72642E-37
7.42405E-01 2.44768E-37
7.46212E-01 2.18311E-37
7.50000E-01 1.93412E-37
7.53769E-01 1.70172E-37
7.57519E-01 1.48655E-37
7.61249E-01 1.28890E-37
7.64960E-01 1.10873E-37
7.68650E-01 9.45789E-38
7.72320E-01 7.99594E-38
7.75968E-01 6.69491E-38
7.79596E-01 5.54689E-38
7.83203E-01 4.54309E-38
7.86788E-01 3.67382E-38
7.90351E-01 2.92899E-38
7.93893E-01 2.29828E-38
7.97411E-01 1.77132E-38
8.00908E-01 1.33782E-38
8.04381E-01 9.87853E-39
8.07831E-01 1.00000E-45
8.11257E-01 1.00000E-45
8.14660E-01 1.00000E-45
8.18039E-01 1.00000E-45
8.21394E-01 1.00000E-45
8.24724E-01 1.00000E-45
8.28030E-01 1.00000E-45
8.31310E-01 1.00000E-45
8.34565E-01 1.00000E-45
8.37795E-01 1.00000E-45
8.40999E-01 1.00000E-45
8.44177E-01 1.00000E-45
8.47329E-01 1.00000E-45
8.50455E-01 1.00000E-45
8.53553E-01 1.00000E-45
8.56625E-01 1.00000E-45
8.59670E-01 1.00000E-45
8.62687E-01 1.00000E-45
8.65677E-01 1.00000E-45
8.68639E-01 1.00000E-45
8.71572E-01 1.00000E-45
8.74478E-01 1.00000E-45
8.77355E-01 1.00000E-45
8.80203E-01 1.00000E-45
8.83022E-01 1.00000E-45
8.85812E-01 1.00000E-45
8.88573E-01 1.00000E-45
8.91304E-01 1.00000E-45
8.94005E-01 1.00000E-45
8.96677E-01 1.00000E-45
8.99318E-01 1.00000E-45
9.01928E-01 1.00000E-45
9.04508E-01 1.00000E-45
9.07058E-01 1.00000E-45
9.09576E-01 1.00000E-45
9.12063E-01 1.00000E-45
9.14519E-01 1.00000E-45
9.16943E-01 1.00000E-45
9.19335E-01 1.00000E-45
9.21696E-01 1.00000E-45
9.24024E-01 1.00000E-45
9.26320E-01 1.00000E-45
9.28584E-01 1.00000E-45
9.30815E-01 1.00000E-45
9.33013E-01 1.00000E-45
9.35178E-01 1.00000E-45
9.37310E-01 1.00000E-45
9.39409E-01 1.00000E-45
9.41474E-01 1.00000E-45
9.43505E-01 1.00000E-45
9.45503E-01 1.00000E-45
9.47467E-01 1.00000E-45
9.49397E-01 1.00000E-45
9.51293E-01 1.00000E-45
9.53154E-01 1.00000E-45
9.54981E-01 1.00000E-45
9.56773E-01 1.00000E-45
9.58530E-01 1.00000E-45
9.60252E-01 1.00000E-45
9.61940E-01 1.00000E-45
9.63592E-01 1.00000E-45
9.65209E-01 1.00000E-45
9.66790E-01 1.00000E-45
9.68336E-01 1.00000E-45
9.69846E-01 1.00000E-45
9.71321E-01 1.00000E-45
9.72759E-01 1.00000E-45
9.74162E-01 1.00000E-45
9.75528E-01 1.00000E-45
9.76858E-01 1.00000E-45
9.78152E-01 1.00000E-45
9.79410E-01 1.00000E-45
9.80631E-01 1.00000E-45
9.81815E-01 1.00000E-45
9.82963E-01 1.00000E-45
9.84074E-01 1.00000E-45
9.85148E-01 1.00000E-45
9.86185E-01 1.00000E-45
9.87185E-01 1.00000E-45
9.88148E-01 1.00000E-45
9.89074E-01 1.00000E-45
9.89962E-01 1.00000E-45
9.90814E-01 1.00000E-45
9.91627E-01 1.00000E-45
9.92404E-01 1.00000E-45
9.93143E-01 1.00000E-45
9.93844E-01 1.00000E-45
9.94508E-01 1.00000E-45
9.95134E-01 1.00000E-45
9.95722E-01 1.00000E-45
9.96273E-01 1.00000E-45
9.96786E-01 1.00000E-45
9.97261E-01 1.00000E-45
9.97698E-01 1.00000E-45
9.98097E-01 1.00000E-45
9.98459E-01 1.00000E-45
9.98782E-01 1.00000E-45
9.99067E-01 1.00000E-45
9.99315E-01 1.00000E-45
9.99524E-01 1.00000E-45
9.99695E-01 1.00000E-45
9.99829E-01 1.00000E-45
9.99924E-01 1.00000E-45
9.99981E-01 1.00000E-45
1.00000E+00 1.00000E-45
