 #
 # Subroutine ELSEPA. Elastic scattering of electrons and positrons
 #                    by neutral atoms and positive ions
 #
 # Projectile: electron
 # Kinetic energy = 6.00000E+08 eV = 2.20496E+07 a.u.
 #
 # WARNING: High-energy factorization with free-atom DF screening.
 #          Absorption, polarization and exchange corrections are
 #          switched off.
 #          Phase shifts are calculated for the bare nucleus.
 #          Scattering amplitudes are not evaluated.
 #
 # Element:  I,  Z =  53,  atomic weight = 1.26904E+02 g/mol
 #
 # Nuclear model: Fermi distribution
 #                Average radius = 5.37703E-13 cm
 #                Skin thickness = 5.46000E-14 cm
 #
 # Number of electrons = 53
 #
 # Total elastic cross section = 5.69821E-18 cm**2 = 2.03487E-01 a0**2
 # 1st transport cross section = 1.52534E-26 cm**2 = 5.44709E-10 a0**2
 # 2nd transport cross section = 4.57478E-26 cm**2 = 1.63368E-09 a0**2
 #
 #
 # Differential cross section:                       MU=(1-COS(THETA))/2
 #
 #  THETA        MU          DCS          DCS        Sherman      error
 #  (deg)                 (cm**2/sr)   (a0**2/sr)    function
 #----------------------------------------------------------------------
0.00000E+00 1.59136E-08
7.61557E-13 1.49087E-08
1.18994E-12 1.43850E-08
1.71346E-12 1.37819E-08
2.33225E-12 1.31174E-08
3.04617E-12 1.24096E-08
3.85530E-12 1.16757E-08
4.75964E-12 1.09313E-08
5.75917E-12 1.01888E-08
6.85391E-12 9.45924E-09
8.04379E-12 8.75408E-09
9.32893E-12 8.08032E-09
1.07092E-11 7.44294E-09
1.21847E-11 6.84499E-09
1.37554E-11 6.28800E-09
1.54213E-11 5.77223E-09
1.71823E-11 5.29703E-09
1.90386E-11 4.86096E-09
2.09900E-11 4.46214E-09
2.30367E-11 4.09763E-09
2.51785E-11 3.76578E-09
2.74156E-11 3.46424E-09
2.97478E-11 3.19049E-09
3.21752E-11 2.94208E-09
3.46979E-11 2.71667E-09
3.73157E-11 2.51210E-09
4.00286E-11 2.32633E-09
4.28368E-11 2.15751E-09
4.57402E-11 2.00394E-09
4.87388E-11 1.86405E-09
5.18325E-11 1.73636E-09
5.50215E-11 1.61978E-09
5.83057E-11 1.51317E-09
6.16850E-11 1.41552E-09
6.51595E-11 1.32365E-09
6.87293E-11 1.23732E-09
7.23943E-11 1.15913E-09
7.61544E-11 1.08818E-09
1.18991E-10 6.18895E-10
1.71347E-10 3.76728E-10
2.33223E-10 2.39761E-10
3.04617E-10 1.58202E-10
3.85531E-10 1.08002E-10
4.75965E-10 7.62085E-11
5.75917E-10 5.54607E-11
6.85389E-10 4.14980E-11
8.04380E-10 3.18091E-11
9.32891E-10 2.48787E-11
1.07092E-09 1.97843E-11
1.21847E-09 1.59498E-11
1.37554E-09 1.30056E-11
1.54213E-09 1.07097E-11
1.71823E-09 8.88871E-12
1.90386E-09 7.43098E-12
2.09900E-09 6.25504E-12
2.30367E-09 5.29761E-12
2.51785E-09 4.51307E-12
2.74156E-09 3.86583E-12
2.97478E-09 3.32847E-12
3.21752E-09 2.87984E-12
3.46978E-09 2.50341E-12
3.73156E-09 2.18609E-12
4.00286E-09 1.91739E-12
4.28368E-09 1.68881E-12
4.57402E-09 1.49344E-12
4.87388E-09 1.32566E-12
5.18326E-09 1.18088E-12
5.50215E-09 1.05543E-12
5.83057E-09 9.46297E-13
6.16850E-09 8.51006E-13
6.51596E-09 7.67366E-13
6.87293E-09 6.93786E-13
7.23942E-09 6.29081E-13
7.61544E-09 5.71983E-13
1.18991E-08 2.45702E-13
1.71347E-08 1.22401E-13
2.33223E-08 6.75155E-14
3.04617E-08 4.01606E-14
3.85531E-08 2.53356E-14
4.75965E-08 1.67560E-14
5.75917E-08 1.15183E-14
6.85389E-08 8.17637E-15
8.04380E-08 5.96371E-15
9.32891E-08 4.45186E-15
1.07092E-07 3.39046E-15
1.21847E-07 2.62751E-15
1.37554E-07 2.06771E-15
1.54213E-07 1.64942E-15
1.71823E-07 1.33179E-15
1.90386E-07 1.08707E-15
2.09900E-07 8.96061E-16
2.30367E-07 7.45222E-16
2.51785E-07 6.24821E-16
2.74156E-07 5.27774E-16
2.97478E-07 4.48852E-16
3.21752E-07 3.84140E-16
3.46978E-07 3.30675E-16
3.73156E-07 2.86191E-16
4.00286E-07 2.48938E-16
4.28368E-07 2.17551E-16
4.57402E-07 1.90955E-16
4.87388E-07 1.68300E-16
5.18325E-07 1.48905E-16
5.50215E-07 1.32224E-16
5.83057E-07 1.17813E-16
6.16850E-07 1.05312E-16
6.51596E-07 9.44242E-17
6.87293E-07 8.49076E-17
7.23942E-07 7.65598E-17
7.61543E-07 6.92125E-17
1.18991E-06 2.84259E-17
1.71347E-06 1.37294E-17
2.33223E-06 7.41796E-18
3.04617E-06 4.35121E-18
3.85531E-06 2.71782E-18
4.75964E-06 1.78389E-18
5.75916E-06 1.21884E-18
6.85388E-06 8.60837E-19
8.04378E-06 6.25158E-19
9.32888E-06 4.64900E-19
1.07092E-05 3.52864E-19
1.21846E-05 2.72639E-19
1.37553E-05 2.13975E-19
1.54212E-05 1.70278E-19
1.71822E-05 1.37189E-19
1.90385E-05 1.11728E-19
2.09899E-05 9.19715E-20
2.30365E-05 7.63889E-20
2.51783E-05 6.39615E-20
2.74153E-05 5.39539E-20
2.97475E-05 4.58255E-20
3.21749E-05 3.91717E-20
3.46974E-05 3.36854E-20
3.73152E-05 2.91297E-20
4.00281E-05 2.53212E-20
4.28362E-05 2.21165E-20
4.57395E-05 1.94033E-20
4.87380E-05 1.70932E-20
5.18317E-05 1.51163E-20
5.50205E-05 1.34167E-20
5.83045E-05 1.19492E-20
6.16838E-05 1.06771E-20
6.51582E-05 9.57020E-21
6.87277E-05 8.60345E-21
7.23925E-05 7.75602E-21
7.61524E-05 7.03508E-21
9.21439E-05 4.80349E-21
1.09658E-04 3.38886E-21
1.28695E-04 2.45757E-21
1.49255E-04 1.82403E-21
1.71338E-04 1.38124E-21
1.94942E-04 1.06421E-21
2.20070E-04 8.32480E-22
2.46720E-04 6.59989E-22
2.74892E-04 5.29476E-22
3.04586E-04 4.29308E-22
3.35803E-04 3.51412E-22
3.68542E-04 2.90130E-22
4.02802E-04 2.41404E-22
4.38585E-04 2.02284E-22
4.75889E-04 1.70601E-22
5.14715E-04 1.44731E-22
5.55063E-04 1.23452E-22
5.96931E-04 1.05827E-22
6.40321E-04 9.11368E-23
6.85233E-04 7.88206E-23
7.31665E-04 6.84380E-23
7.79618E-04 5.96411E-23
8.29092E-04 5.21521E-23
8.80086E-04 4.57485E-23
9.32601E-04 4.02501E-23
9.86636E-04 3.55106E-23
1.04219E-03 3.14104E-23
1.09927E-03 2.78509E-23
1.15786E-03 2.47509E-23
1.21797E-03 2.20429E-23
1.27961E-03 1.96705E-23
1.34276E-03 1.75865E-23
1.40743E-03 1.57510E-23
1.47362E-03 1.41307E-23
1.54133E-03 1.26969E-23
1.61056E-03 1.14254E-23
1.68131E-03 1.02955E-23
1.75357E-03 9.28957E-24
1.82735E-03 8.39225E-24
1.90265E-03 7.59043E-24
1.97947E-03 6.87275E-24
2.05780E-03 6.22936E-24
2.13765E-03 5.65171E-24
2.21902E-03 5.13233E-24
2.30190E-03 4.66471E-24
2.38630E-03 4.24314E-24
2.47222E-03 3.86263E-24
2.55965E-03 3.51877E-24
2.64859E-03 3.20769E-24
2.73905E-03 2.92597E-24
2.83103E-03 2.67057E-24
2.92452E-03 2.43882E-24
3.01952E-03 2.22834E-24
3.11604E-03 2.03702E-24
3.21407E-03 1.86296E-24
3.31362E-03 1.70448E-24
3.41468E-03 1.56010E-24
3.51725E-03 1.42845E-24
3.62133E-03 1.30835E-24
3.72692E-03 1.19871E-24
3.83403E-03 1.09855E-24
3.94265E-03 1.00702E-24
4.05278E-03 9.23323E-25
4.16442E-03 8.46751E-25
4.27757E-03 7.76667E-25
4.39223E-03 7.12494E-25
4.50840E-03 6.53711E-25
4.62608E-03 5.99845E-25
4.74527E-03 5.50467E-25
4.86597E-03 5.05191E-25
4.98817E-03 4.63662E-25
5.11188E-03 4.25562E-25
5.23711E-03 3.90598E-25
5.36383E-03 3.58505E-25
5.49207E-03 3.29043E-25
5.62181E-03 3.01990E-25
5.75306E-03 2.77147E-25
5.88581E-03 2.54330E-25
6.02007E-03 2.33372E-25
6.15583E-03 2.14119E-25
6.29310E-03 1.96433E-25
6.43187E-03 1.80184E-25
6.57214E-03 1.65255E-25
6.71392E-03 1.51541E-25
6.85720E-03 1.38941E-25
7.00198E-03 1.27366E-25
7.14827E-03 1.16733E-25
7.29605E-03 1.06966E-25
7.44534E-03 9.79963E-26
7.59612E-03 8.97587E-26
7.97965E-03 7.19952E-26
8.37255E-03 5.76590E-26
8.77480E-03 4.61041E-26
9.18641E-03 3.68057E-26
9.60736E-03 2.93370E-26
1.00376E-02 2.33508E-26
1.04773E-02 1.85642E-26
1.09262E-02 1.47468E-26
1.13844E-02 1.17110E-26
1.18520E-02 9.30410E-27
1.23288E-02 7.40196E-27
1.28150E-02 5.90368E-27
1.33104E-02 4.72743E-27
1.38150E-02 3.80700E-27
1.43290E-02 3.08889E-27
1.48521E-02 2.53004E-27
1.53845E-02 2.09590E-27
1.59262E-02 1.75881E-27
1.64770E-02 1.49679E-27
1.70371E-02 1.29242E-27
1.76063E-02 1.13197E-27
1.81848E-02 1.00473E-27
1.87724E-02 9.02364E-28
1.93692E-02 8.18487E-28
1.99751E-02 7.48226E-28
2.05901E-02 6.87924E-28
2.12143E-02 6.34877E-28
2.18476E-02 5.87117E-28
2.24900E-02 5.43250E-28
2.31415E-02 5.02314E-28
2.38021E-02 4.63671E-28
2.44717E-02 4.26923E-28
2.51504E-02 3.91843E-28
2.58382E-02 3.58322E-28
2.65349E-02 3.26329E-28
2.72407E-02 2.95880E-28
2.79555E-02 2.67015E-28
2.86793E-02 2.39784E-28
2.94120E-02 2.14231E-28
3.01537E-02 1.90393E-28
3.09043E-02 1.68287E-28
3.16639E-02 1.47917E-28
3.24324E-02 1.29266E-28
3.32098E-02 1.12300E-28
3.39961E-02 9.69705E-29
3.47912E-02 8.32125E-29
3.55952E-02 7.09508E-29
3.64081E-02 6.01000E-29
3.72297E-02 5.05682E-29
3.80602E-02 4.22585E-29
3.88995E-02 3.50715E-29
3.97476E-02 2.89071E-29
4.06044E-02 2.36664E-29
4.14700E-02 1.92526E-29
4.23443E-02 1.55729E-29
4.32273E-02 1.25389E-29
4.41190E-02 1.00677E-29
4.50194E-02 8.08213E-30
4.59284E-02 6.51116E-30
4.68461E-02 5.29016E-30
4.87074E-02 3.67126E-30
5.06030E-02 2.83322E-30
5.25328E-02 2.47619E-30
5.44967E-02 2.38159E-30
5.64946E-02 2.39899E-30
5.85262E-02 2.43260E-30
6.05914E-02 2.42838E-30
6.26901E-02 2.36254E-30
6.48222E-02 2.23170E-30
6.69873E-02 2.04507E-30
6.91854E-02 1.81833E-30
7.14163E-02 1.56926E-30
7.36799E-02 1.31481E-30
7.59760E-02 1.06929E-30
7.83043E-02 8.43560E-31
8.06647E-02 6.44811E-31
8.30571E-02 4.76816E-31
8.54812E-02 3.40452E-31
8.79369E-02 2.34352E-31
9.04240E-02 1.55569E-31
9.29422E-02 1.00204E-31
9.54915E-02 6.39372E-32
9.80716E-02 4.24518E-32
1.00682E-01 3.17391E-32
1.03323E-01 2.82980E-32
1.05995E-01 2.92403E-32
1.08696E-01 3.23192E-32
1.11427E-01 3.59025E-32
1.14188E-01 3.89063E-32
1.16978E-01 4.07072E-32
1.19797E-01 4.10447E-32
1.22645E-01 3.99250E-32
1.25522E-01 3.75331E-32
1.28428E-01 3.41566E-32
1.31361E-01 3.01254E-32
1.34323E-01 2.57661E-32
1.37313E-01 2.13704E-32
1.40330E-01 1.71767E-32
1.43375E-01 1.33615E-32
1.46447E-01 1.00392E-32
1.49545E-01 7.26721E-33
1.52671E-01 5.05482E-33
1.55823E-01 3.37368E-33
1.59001E-01 2.16882E-33
1.62205E-01 1.36895E-33
1.65435E-01 8.95495E-34
1.68690E-01 6.69843E-34
1.71970E-01 6.18841E-34
1.75276E-01 6.78462E-34
1.78606E-01 7.95883E-34
1.81961E-01 9.30199E-34
1.85340E-01 1.05210E-33
1.88743E-01 1.14279E-33
1.92169E-01 1.19240E-33
1.95619E-01 1.19823E-33
1.99092E-01 1.16286E-33
2.02589E-01 1.09245E-33
2.06107E-01 9.95184E-34
2.09649E-01 8.80022E-34
2.13212E-01 7.55701E-34
2.16797E-01 6.30046E-34
2.20404E-01 5.09537E-34
2.24032E-01 3.99094E-34
2.27680E-01 3.02042E-34
2.31350E-01 2.20214E-34
2.35040E-01 1.54148E-34
2.38751E-01 1.03326E-34
2.42481E-01 6.64500E-35
2.46231E-01 4.16936E-35
2.50000E-01 2.69467E-35
2.53788E-01 2.00158E-35
2.57595E-01 1.87855E-35
2.61421E-01 2.13358E-35
2.65264E-01 2.60199E-35
2.69126E-01 3.15032E-35
2.73005E-01 3.67741E-35
2.76901E-01 4.11284E-35
2.80814E-01 4.41391E-35
2.84744E-01 4.56131E-35
2.88691E-01 4.55445E-35
2.92653E-01 4.40655E-35
2.96632E-01 4.14012E-35
3.00625E-01 3.78288E-35
3.04634E-01 3.36438E-35
3.08658E-01 2.91327E-35
3.12697E-01 2.45542E-35
3.16749E-01 2.01259E-35
3.20816E-01 1.60179E-35
3.24896E-01 1.23510E-35
3.28990E-01 9.19894E-36
3.33097E-01 6.59306E-36
3.37216E-01 4.52920E-36
3.41348E-01 2.97520E-36
3.45492E-01 1.87866E-36
3.49647E-01 1.17429E-36
3.53814E-01 7.90461E-37
3.57992E-01 6.54747E-37
3.62181E-01 6.98246E-37
3.66381E-01 8.58778E-37
3.70590E-01 1.08293E-36
3.74810E-01 1.32716E-36
3.79039E-01 1.55801E-36
3.83277E-01 1.75175E-36
3.87524E-01 1.89343E-36
3.91780E-01 1.97573E-36
3.96044E-01 1.99753E-36
4.00316E-01 1.96253E-36
4.04596E-01 1.87783E-36
4.08882E-01 1.75269E-36
4.13176E-01 1.59741E-36
4.17476E-01 1.42243E-36
4.21783E-01 1.23763E-36
4.26095E-01 1.05181E-36
4.30413E-01 8.72367E-37
4.34737E-01 7.05135E-37
4.39065E-01 5.54341E-37
4.43398E-01 4.22678E-37
4.47736E-01 3.11462E-37
4.52077E-01 2.20809E-37
4.56422E-01 1.49883E-37
4.60770E-01 9.71121E-38
4.65122E-01 6.04182E-38
4.69476E-01 3.74220E-38
4.73832E-01 2.56196E-38
4.78190E-01 2.25320E-38
4.82550E-01 2.58202E-38
4.86912E-01 3.33692E-38
4.91274E-01 4.33446E-38
4.95637E-01 5.42205E-38
5.00000E-01 6.47899E-38
5.04363E-01 7.41518E-38
5.08726E-01 8.16941E-38
5.13088E-01 8.70541E-38
5.17450E-01 9.00874E-38
5.21810E-01 9.08245E-38
5.26168E-01 8.94270E-38
5.30524E-01 8.61561E-38
5.34878E-01 8.13315E-38
5.39230E-01 7.53026E-38
5.43578E-01 6.84234E-38
5.47923E-01 6.10347E-38
5.52264E-01 5.34454E-38
5.56602E-01 4.59249E-38
5.60935E-01 3.86975E-38
5.65263E-01 3.19398E-38
5.69587E-01 2.57822E-38
5.73905E-01 2.03093E-38
5.78217E-01 1.55671E-38
5.82524E-01 1.00000E-45
5.86824E-01 1.00000E-45
5.91118E-01 1.00000E-45
5.95404E-01 1.00000E-45
5.99684E-01 1.00000E-45
6.03956E-01 1.00000E-45
6.08220E-01 1.00000E-45
6.12476E-01 1.00000E-45
6.16723E-01 1.00000E-45
6.20961E-01 1.00000E-45
6.25190E-01 1.00000E-45
6.29410E-01 1.00000E-45
6.33619E-01 1.00000E-45
6.37819E-01 1.00000E-45
6.42008E-01 1.00000E-45
6.46186E-01 1.00000E-45
6.50353E-01 1.00000E-45
6.54508E-01 1.00000E-45
6.58652E-01 1.00000E-45
6.62784E-01 1.00000E-45
6.66903E-01 1.00000E-45
6.71010E-01 1.00000E-45
6.75104E-01 1.00000E-45
6.79184E-01 1.00000E-45
6.83251E-01 1.00000E-45
6.87303E-01 1.00000E-45
6.91342E-01 1.00000E-45
6.95366E-01 1.00000E-45
6.99375E-01 1.00000E-45
7.03368E-01 1.00000E-45
7.07347E-01 1.00000E-45
7.11309E-01 1.00000E-45
7.15256E-01 1.00000E-45
7.19186E-01 1.00000E-45
7.23099E-01 1.00000E-45
7.26995E-01 1.00000E-45
7.30874E-01 1.00000E-45
7.34736E-01 1.00000E-45
7.38579E-01 1.00000E-45
7.42405E-01 1.00000E-45
7.46212E-01 1.00000E-45
7.50000E-01 1.00000E-45
7.53769E-01 1.00000E-45
7.57519E-01 1.00000E-45
7.61249E-01 1.00000E-45
7.64960E-01 1.00000E-45
7.68650E-01 1.00000E-45
7.72320E-01 1.00000E-45
7.75968E-01 1.00000E-45
7.79596E-01 1.00000E-45
7.83203E-01 1.00000E-45
7.86788E-01 1.00000E-45
7.90351E-01 1.00000E-45
7.93893E-01 1.00000E-45
7.97411E-01 1.00000E-45
8.00908E-01 1.00000E-45
8.04381E-01 1.00000E-45
8.07831E-01 1.00000E-45
8.11257E-01 1.00000E-45
8.14660E-01 1.00000E-45
8.18039E-01 1.00000E-45
8.21394E-01 1.00000E-45
8.24724E-01 1.00000E-45
8.28030E-01 1.00000E-45
8.31310E-01 1.00000E-45
8.34565E-01 1.00000E-45
8.37795E-01 1.00000E-45
8.40999E-01 1.00000E-45
8.44177E-01 1.00000E-45
8.47329E-01 1.00000E-45
8.50455E-01 1.00000E-45
8.53553E-01 1.00000E-45
8.56625E-01 1.00000E-45
8.59670E-01 1.00000E-45
8.62687E-01 1.00000E-45
8.65677E-01 1.00000E-45
8.68639E-01 1.00000E-45
8.71572E-01 1.00000E-45
8.74478E-01 1.00000E-45
8.77355E-01 1.00000E-45
8.80203E-01 1.00000E-45
8.83022E-01 1.00000E-45
8.85812E-01 1.00000E-45
8.88573E-01 1.00000E-45
8.91304E-01 1.00000E-45
8.94005E-01 1.00000E-45
8.96677E-01 1.00000E-45
8.99318E-01 1.00000E-45
9.01928E-01 1.00000E-45
9.04508E-01 1.00000E-45
9.07058E-01 1.00000E-45
9.09576E-01 1.00000E-45
9.12063E-01 1.00000E-45
9.14519E-01 1.00000E-45
9.16943E-01 1.00000E-45
9.19335E-01 1.00000E-45
9.21696E-01 1.00000E-45
9.24024E-01 1.00000E-45
9.26320E-01 1.00000E-45
9.28584E-01 1.00000E-45
9.30815E-01 1.00000E-45
9.33013E-01 1.00000E-45
9.35178E-01 1.00000E-45
9.37310E-01 1.00000E-45
9.39409E-01 1.00000E-45
9.41474E-01 1.00000E-45
9.43505E-01 1.00000E-45
9.45503E-01 1.00000E-45
9.47467E-01 1.00000E-45
9.49397E-01 1.00000E-45
9.51293E-01 1.00000E-45
9.53154E-01 1.00000E-45
9.54981E-01 1.00000E-45
9.56773E-01 1.00000E-45
9.58530E-01 1.00000E-45
9.60252E-01 1.00000E-45
9.61940E-01 1.00000E-45
9.63592E-01 1.00000E-45
9.65209E-01 1.00000E-45
9.66790E-01 1.00000E-45
9.68336E-01 1.00000E-45
9.69846E-01 1.00000E-45
9.71321E-01 1.00000E-45
9.72759E-01 1.00000E-45
9.74162E-01 1.00000E-45
9.75528E-01 1.00000E-45
9.76858E-01 1.00000E-45
9.78152E-01 1.00000E-45
9.79410E-01 1.00000E-45
9.80631E-01 1.00000E-45
9.81815E-01 1.00000E-45
9.82963E-01 1.00000E-45
9.84074E-01 1.00000E-45
9.85148E-01 1.00000E-45
9.86185E-01 1.00000E-45
9.87185E-01 1.00000E-45
9.88148E-01 1.00000E-45
9.89074E-01 1.00000E-45
9.89962E-01 1.00000E-45
9.90814E-01 1.00000E-45
9.91627E-01 1.00000E-45
9.92404E-01 1.00000E-45
9.93143E-01 1.00000E-45
9.93844E-01 1.00000E-45
9.94508E-01 1.00000E-45
9.95134E-01 1.00000E-45
9.95722E-01 1.00000E-45
9.96273E-01 1.00000E-45
9.96786E-01 1.00000E-45
9.97261E-01 1.00000E-45
9.97698E-01 1.00000E-45
9.98097E-01 1.00000E-45
9.98459E-01 1.00000E-45
9.98782E-01 1.00000E-45
9.99067E-01 1.00000E-45
9.99315E-01 1.00000E-45
9.99524E-01 1.00000E-45
9.99695E-01 1.00000E-45
9.99829E-01 1.00000E-45
9.99924E-01 1.00000E-45
9.99981E-01 1.00000E-45
1.00000E+00 1.00000E-45
