 #
 # Subroutine ELSEPA. Elastic scattering of electrons and positrons
 #                    by neutral atoms and positive ions
 #
 # Projectile: electron
 # Kinetic energy = 1.00000E+07 eV = 3.67493E+05 a.u.
 #
 # WARNING: High-energy factorization with free-atom DF screening.
 #          Absorption, polarization and exchange corrections are
 #          switched off.
 #          Phase shifts are calculated for the bare nucleus.
 #          Scattering amplitudes are not evaluated.
 #
 # Element:  I,  Z =  53,  atomic weight = 1.26904E+02 g/mol
 #
 # Nuclear model: Fermi distribution
 #                Average radius = 5.37703E-13 cm
 #                Skin thickness = 5.46000E-14 cm
 #
 # Number of electrons = 53
 #
 # Total elastic cross section = 5.72053E-18 cm**2 = 2.04284E-01 a0**2
 # 1st transport cross section = 4.47002E-23 cm**2 = 1.59627E-06 a0**2
 # 2nd transport cross section = 1.25650E-22 cm**2 = 4.48703E-06 a0**2
 #
 #
 # Differential cross section:                       MU=(1-COS(THETA))/2
 #
 #  THETA        MU          DCS          DCS        Sherman      error
 #  (deg)                 (cm**2/sr)   (a0**2/sr)    function
 #----------------------------------------------------------------------
0.00000E+00 4.87543E-12
7.61557E-13 4.87533E-12
1.18994E-12 4.87528E-12
1.71346E-12 4.87521E-12
2.33225E-12 4.87513E-12
3.04617E-12 4.87503E-12
3.85530E-12 4.87493E-12
4.75964E-12 4.87481E-12
5.75917E-12 4.87468E-12
6.85391E-12 4.87454E-12
8.04379E-12 4.87438E-12
9.32893E-12 4.87422E-12
1.07092E-11 4.87404E-12
1.21847E-11 4.87385E-12
1.37554E-11 4.87364E-12
1.54213E-11 4.87343E-12
1.71823E-11 4.87320E-12
1.90386E-11 4.87296E-12
2.09900E-11 4.87270E-12
2.30367E-11 4.87244E-12
2.51785E-11 4.87216E-12
2.74156E-11 4.87187E-12
2.97478E-11 4.87157E-12
3.21752E-11 4.87126E-12
3.46979E-11 4.87093E-12
3.73157E-11 4.87059E-12
4.00286E-11 4.87024E-12
4.28368E-11 4.86988E-12
4.57402E-11 4.86950E-12
4.87388E-11 4.86911E-12
5.18325E-11 4.86871E-12
5.50215E-11 4.86830E-12
5.83057E-11 4.86788E-12
6.16850E-11 4.86744E-12
6.51595E-11 4.86699E-12
6.87293E-11 4.86653E-12
7.23943E-11 4.86606E-12
7.61544E-11 4.86557E-12
1.18991E-10 4.86005E-12
1.71347E-10 4.85331E-12
2.33223E-10 4.84536E-12
3.04617E-10 4.83622E-12
3.85531E-10 4.82590E-12
4.75965E-10 4.81439E-12
5.75917E-10 4.80173E-12
6.85389E-10 4.78792E-12
8.04380E-10 4.77297E-12
9.32891E-10 4.75690E-12
1.07092E-09 4.73974E-12
1.21847E-09 4.72149E-12
1.37554E-09 4.70219E-12
1.54213E-09 4.68184E-12
1.71823E-09 4.66047E-12
1.90386E-09 4.63811E-12
2.09900E-09 4.61473E-12
2.30367E-09 4.59007E-12
2.51785E-09 4.56465E-12
2.74156E-09 4.53851E-12
2.97478E-09 4.51171E-12
3.21752E-09 4.48427E-12
3.46978E-09 4.45521E-12
3.73156E-09 4.42544E-12
4.00286E-09 4.39515E-12
4.28368E-09 4.36439E-12
4.57402E-09 4.33320E-12
4.87388E-09 4.30065E-12
5.18326E-09 4.26721E-12
5.50215E-09 4.23345E-12
5.83057E-09 4.19942E-12
6.16850E-09 4.16517E-12
6.51596E-09 4.12998E-12
6.87293E-09 4.09359E-12
7.23942E-09 4.05708E-12
7.61544E-09 4.02050E-12
1.18991E-08 3.63542E-12
1.71347E-08 3.23642E-12
2.33223E-08 2.84561E-12
3.04617E-08 2.47870E-12
3.85531E-08 2.14515E-12
4.75965E-08 1.84925E-12
5.75917E-08 1.59148E-12
6.85389E-08 1.36973E-12
8.04380E-08 1.18074E-12
9.32891E-08 1.02069E-12
1.07092E-07 8.85547E-13
1.21847E-07 7.71486E-13
1.37554E-07 6.75111E-13
1.54213E-07 5.93473E-13
1.71823E-07 5.24074E-13
1.90386E-07 4.64828E-13
2.09900E-07 4.13749E-13
2.30367E-07 3.67853E-13
2.51785E-07 3.29198E-13
2.74156E-07 2.96427E-13
2.97478E-07 2.68470E-13
3.21752E-07 2.44476E-13
3.46978E-07 2.21142E-13
3.73156E-07 2.00647E-13
4.00286E-07 1.82892E-13
4.28368E-07 1.67437E-13
4.57402E-07 1.53920E-13
4.87388E-07 1.40983E-13
5.18325E-07 1.29065E-13
5.50215E-07 1.18572E-13
5.83057E-07 1.09297E-13
6.16850E-07 1.01070E-13
6.51596E-07 9.33908E-14
6.87293E-07 8.60784E-14
7.23942E-07 7.95568E-14
7.61543E-07 7.37226E-14
1.18991E-06 3.64078E-14
1.71347E-06 1.99154E-14
2.33223E-06 1.19212E-14
3.04617E-06 7.65743E-15
3.85531E-06 5.17685E-15
4.75964E-06 3.63067E-15
5.75916E-06 2.61655E-15
6.85388E-06 1.92690E-15
8.04378E-06 1.44674E-15
9.32888E-06 1.10490E-15
1.07092E-05 8.56858E-16
1.21846E-05 6.74032E-16
1.37553E-05 5.37375E-16
1.54212E-05 4.33770E-16
1.71822E-05 3.54088E-16
1.90385E-05 2.91885E-16
2.09899E-05 2.42985E-16
2.30365E-05 2.03899E-16
2.51783E-05 1.72554E-16
2.74153E-05 1.46885E-16
2.97475E-05 1.25935E-16
3.21749E-05 1.08523E-16
3.46974E-05 9.40901E-17
3.73152E-05 8.19525E-17
4.00281E-05 7.17479E-17
4.28362E-05 6.30647E-17
4.57395E-05 5.56677E-17
4.87380E-05 4.93127E-17
5.18317E-05 4.38397E-17
5.50205E-05 3.90996E-17
5.83045E-05 3.49805E-17
6.16838E-05 3.13893E-17
6.51582E-05 2.82444E-17
6.87277E-05 2.54856E-17
7.23925E-05 2.30524E-17
7.61524E-05 2.09051E-17
9.21439E-05 1.44442E-17
1.09658E-04 1.02918E-17
1.28695E-04 7.52862E-18
1.49255E-04 5.63268E-18
1.71338E-04 4.29802E-18
1.94942E-04 3.33642E-18
2.20070E-04 2.62962E-18
2.46720E-04 2.10074E-18
2.74892E-04 1.69856E-18
3.04586E-04 1.38839E-18
3.35803E-04 1.14601E-18
3.68542E-04 9.54396E-19
4.02802E-04 8.01287E-19
4.38585E-04 6.77743E-19
4.75889E-04 5.77168E-19
5.14715E-04 4.94610E-19
5.55063E-04 4.26331E-19
5.96931E-04 3.69460E-19
6.40321E-04 3.21782E-19
6.85233E-04 2.81568E-19
7.31665E-04 2.47457E-19
7.79618E-04 2.18369E-19
8.29092E-04 1.93440E-19
8.80086E-04 1.71977E-19
9.32601E-04 1.53415E-19
9.86636E-04 1.37297E-19
1.04219E-03 1.23246E-19
1.09927E-03 1.10951E-19
1.15786E-03 1.00155E-19
1.21797E-03 9.06446E-20
1.27961E-03 8.22392E-20
1.34276E-03 7.47884E-20
1.40743E-03 6.81648E-20
1.47362E-03 6.22606E-20
1.54133E-03 5.69838E-20
1.61056E-03 5.22561E-20
1.68131E-03 4.80102E-20
1.75357E-03 4.41881E-20
1.82735E-03 4.07403E-20
1.90265E-03 3.76233E-20
1.97947E-03 3.47999E-20
2.05780E-03 3.22374E-20
2.13765E-03 2.99073E-20
2.21902E-03 2.77848E-20
2.30190E-03 2.58481E-20
2.38630E-03 2.40779E-20
2.47222E-03 2.24573E-20
2.55965E-03 2.09714E-20
2.64859E-03 1.96069E-20
2.73905E-03 1.83521E-20
2.83103E-03 1.71966E-20
2.92452E-03 1.61310E-20
3.01952E-03 1.51471E-20
3.11604E-03 1.42375E-20
3.21407E-03 1.33955E-20
3.31362E-03 1.26151E-20
3.41468E-03 1.18911E-20
3.51725E-03 1.12186E-20
3.62133E-03 1.05932E-20
3.72692E-03 1.00110E-20
3.83403E-03 9.46850E-21
3.94265E-03 8.96250E-21
4.05278E-03 8.49005E-21
4.16442E-03 8.04852E-21
4.27757E-03 7.63550E-21
4.39223E-03 7.24881E-21
4.50840E-03 6.88646E-21
4.62608E-03 6.54662E-21
4.74527E-03 6.22762E-21
4.86597E-03 5.92796E-21
4.98817E-03 5.64623E-21
5.11188E-03 5.38116E-21
5.23711E-03 5.13158E-21
5.36383E-03 4.89641E-21
5.49207E-03 4.67466E-21
5.62181E-03 4.46542E-21
5.75306E-03 4.26784E-21
5.88581E-03 4.08116E-21
6.02007E-03 3.90465E-21
6.15583E-03 3.73767E-21
6.29310E-03 3.57958E-21
6.43187E-03 3.42984E-21
6.57214E-03 3.28791E-21
6.71392E-03 3.15331E-21
6.85720E-03 3.02559E-21
7.00198E-03 2.90432E-21
7.14827E-03 2.78913E-21
7.29605E-03 2.67964E-21
7.44534E-03 2.57552E-21
7.59612E-03 2.47645E-21
7.97965E-03 2.24902E-21
8.37255E-03 2.04734E-21
8.77480E-03 1.86798E-21
9.18641E-03 1.70801E-21
9.60736E-03 1.56497E-21
1.00376E-02 1.43674E-21
1.04773E-02 1.32151E-21
1.09262E-02 1.21772E-21
1.13844E-02 1.12404E-21
1.18520E-02 1.03928E-21
1.23288E-02 9.62458E-22
1.28150E-02 8.92681E-22
1.33104E-02 8.29187E-22
1.38150E-02 7.71304E-22
1.43290E-02 7.18444E-22
1.48521E-02 6.70091E-22
1.53845E-02 6.25789E-22
1.59262E-02 5.85133E-22
1.64770E-02 5.47768E-22
1.70371E-02 5.13377E-22
1.76063E-02 4.81677E-22
1.81848E-02 4.52420E-22
1.87724E-02 4.25380E-22
1.93692E-02 4.00359E-22
1.99751E-02 3.77175E-22
2.05901E-02 3.55670E-22
2.12143E-02 3.35696E-22
2.18476E-02 3.17125E-22
2.24900E-02 2.99840E-22
2.31415E-02 2.83733E-22
2.38021E-02 2.68710E-22
2.44717E-02 2.54682E-22
2.51504E-02 2.41572E-22
2.58382E-02 2.29308E-22
2.65349E-02 2.17823E-22
2.72407E-02 2.07060E-22
2.79555E-02 1.96964E-22
2.86793E-02 1.87485E-22
2.94120E-02 1.78579E-22
3.01537E-02 1.70204E-22
3.09043E-02 1.62322E-22
3.16639E-02 1.54898E-22
3.24324E-02 1.47901E-22
3.32098E-02 1.41300E-22
3.39961E-02 1.35070E-22
3.47912E-02 1.29185E-22
3.55952E-02 1.23623E-22
3.64081E-02 1.18361E-22
3.72297E-02 1.13381E-22
3.80602E-02 1.08665E-22
3.88995E-02 1.04195E-22
3.97476E-02 9.99572E-23
4.06044E-02 9.59359E-23
4.14700E-02 9.21183E-23
4.23443E-02 8.84917E-23
4.32273E-02 8.50449E-23
4.41190E-02 8.17670E-23
4.50194E-02 7.86483E-23
4.59284E-02 7.56795E-23
4.68461E-02 7.28519E-23
4.87074E-02 6.75881E-23
5.06030E-02 6.27988E-23
5.25328E-02 5.84332E-23
5.44967E-02 5.44465E-23
5.64946E-02 5.07994E-23
5.85262E-02 4.74575E-23
6.05914E-02 4.43904E-23
6.26901E-02 4.15709E-23
6.48222E-02 3.89752E-23
6.69873E-02 3.65822E-23
6.91854E-02 3.43729E-23
7.14163E-02 3.23303E-23
7.36799E-02 3.04395E-23
7.59760E-02 2.86870E-23
7.83043E-02 2.70606E-23
8.06647E-02 2.55495E-23
8.30571E-02 2.41440E-23
8.54812E-02 2.28351E-23
8.79369E-02 2.16148E-23
9.04240E-02 2.04762E-23
9.29422E-02 1.94124E-23
9.54915E-02 1.84177E-23
9.80716E-02 1.74868E-23
1.00682E-01 1.66145E-23
1.03323E-01 1.57966E-23
1.05995E-01 1.50290E-23
1.08696E-01 1.43079E-23
1.11427E-01 1.36300E-23
1.14188E-01 1.29922E-23
1.16978E-01 1.23915E-23
1.19797E-01 1.18255E-23
1.22645E-01 1.12917E-23
1.25522E-01 1.07879E-23
1.28428E-01 1.03121E-23
1.31361E-01 9.86247E-24
1.34323E-01 9.43718E-24
1.37313E-01 9.03470E-24
1.40330E-01 8.65356E-24
1.43375E-01 8.29238E-24
1.46447E-01 7.94993E-24
1.49545E-01 7.62503E-24
1.52671E-01 7.31658E-24
1.55823E-01 7.02361E-24
1.59001E-01 6.74517E-24
1.62205E-01 6.48040E-24
1.65435E-01 6.22849E-24
1.68690E-01 5.98868E-24
1.71970E-01 5.76028E-24
1.75276E-01 5.54265E-24
1.78606E-01 5.33515E-24
1.81961E-01 5.13724E-24
1.85340E-01 4.94837E-24
1.88743E-01 4.76806E-24
1.92169E-01 4.59582E-24
1.95619E-01 4.43123E-24
1.99092E-01 4.27387E-24
2.02589E-01 4.12338E-24
2.06107E-01 3.97938E-24
2.09649E-01 3.84154E-24
2.13212E-01 3.70955E-24
2.16797E-01 3.58311E-24
2.20404E-01 3.46194E-24
2.24032E-01 3.34577E-24
2.27680E-01 3.23435E-24
2.31350E-01 3.12746E-24
2.35040E-01 3.02486E-24
2.38751E-01 2.92636E-24
2.42481E-01 2.83176E-24
2.46231E-01 2.74087E-24
2.50000E-01 2.65352E-24
2.53788E-01 2.56954E-24
2.57595E-01 2.48878E-24
2.61421E-01 2.41109E-24
2.65264E-01 2.33632E-24
2.69126E-01 2.26435E-24
2.73005E-01 2.19506E-24
2.76901E-01 2.12831E-24
2.80814E-01 2.06401E-24
2.84744E-01 2.00203E-24
2.88691E-01 1.94229E-24
2.92653E-01 1.88468E-24
2.96632E-01 1.82912E-24
3.00625E-01 1.77552E-24
3.04634E-01 1.72378E-24
3.08658E-01 1.67385E-24
3.12697E-01 1.62564E-24
3.16749E-01 1.57907E-24
3.20816E-01 1.53409E-24
3.24896E-01 1.49063E-24
3.28990E-01 1.44863E-24
3.33097E-01 1.40802E-24
3.37216E-01 1.36876E-24
3.41348E-01 1.33079E-24
3.45492E-01 1.29406E-24
3.49647E-01 1.25852E-24
3.53814E-01 1.22413E-24
3.57992E-01 1.19083E-24
3.62181E-01 1.15860E-24
3.66381E-01 1.12738E-24
3.70590E-01 1.09715E-24
3.74810E-01 1.06786E-24
3.79039E-01 1.03948E-24
3.83277E-01 1.01198E-24
3.87524E-01 9.85313E-25
3.91780E-01 9.59463E-25
3.96044E-01 9.34397E-25
4.00316E-01 9.10085E-25
4.04596E-01 8.86502E-25
4.08882E-01 8.63620E-25
4.13176E-01 8.41416E-25
4.17476E-01 8.19865E-25
4.21783E-01 7.98944E-25
4.26095E-01 7.78632E-25
4.30413E-01 7.58909E-25
4.34737E-01 7.39752E-25
4.39065E-01 7.21144E-25
4.43398E-01 7.03066E-25
4.47736E-01 6.85500E-25
4.52077E-01 6.68428E-25
4.56422E-01 6.51834E-25
4.60770E-01 6.35703E-25
4.65122E-01 6.20019E-25
4.69476E-01 6.04768E-25
4.73832E-01 5.89935E-25
4.78190E-01 5.75507E-25
4.82550E-01 5.61472E-25
4.86912E-01 5.47815E-25
4.91274E-01 5.34526E-25
4.95637E-01 5.21592E-25
5.00000E-01 5.09003E-25
5.04363E-01 4.96748E-25
5.08726E-01 4.84816E-25
5.13088E-01 4.73197E-25
5.17450E-01 4.61882E-25
5.21810E-01 4.50861E-25
5.26168E-01 4.40126E-25
5.30524E-01 4.29667E-25
5.34878E-01 4.19477E-25
5.39230E-01 4.09547E-25
5.43578E-01 3.99869E-25
5.47923E-01 3.90437E-25
5.52264E-01 3.81242E-25
5.56602E-01 3.72278E-25
5.60935E-01 3.63538E-25
5.65263E-01 3.55016E-25
5.69587E-01 3.46705E-25
5.73905E-01 3.38599E-25
5.78217E-01 3.30692E-25
5.82524E-01 3.22979E-25
5.86824E-01 3.15454E-25
5.91118E-01 3.08111E-25
5.95404E-01 3.00947E-25
5.99684E-01 2.93954E-25
6.03956E-01 2.87130E-25
6.08220E-01 2.80469E-25
6.12476E-01 2.73966E-25
6.16723E-01 2.67618E-25
6.20961E-01 2.61419E-25
6.25190E-01 2.55367E-25
6.29410E-01 2.49457E-25
6.33619E-01 2.43685E-25
6.37819E-01 2.38047E-25
6.42008E-01 2.32541E-25
6.46186E-01 2.27162E-25
6.50353E-01 2.21906E-25
6.54508E-01 2.16772E-25
6.58652E-01 2.11755E-25
6.62784E-01 2.06853E-25
6.66903E-01 2.02062E-25
6.71010E-01 1.97380E-25
6.75104E-01 1.92804E-25
6.79184E-01 1.88331E-25
6.83251E-01 1.83959E-25
6.87303E-01 1.79685E-25
6.91342E-01 1.75506E-25
6.95366E-01 1.71420E-25
6.99375E-01 1.67425E-25
7.03368E-01 1.63518E-25
7.07347E-01 1.59698E-25
7.11309E-01 1.55962E-25
7.15256E-01 1.52308E-25
7.19186E-01 1.48734E-25
7.23099E-01 1.45238E-25
7.26995E-01 1.41818E-25
7.30874E-01 1.38473E-25
7.34736E-01 1.35200E-25
7.38579E-01 1.31998E-25
7.42405E-01 1.28866E-25
7.46212E-01 1.25800E-25
7.50000E-01 1.22801E-25
7.53769E-01 1.19866E-25
7.57519E-01 1.16994E-25
7.61249E-01 1.14183E-25
7.64960E-01 1.11433E-25
7.68650E-01 1.08741E-25
7.72320E-01 1.06106E-25
7.75968E-01 1.03527E-25
7.79596E-01 1.01002E-25
7.83203E-01 9.85313E-26
7.86788E-01 9.61125E-26
7.90351E-01 9.37447E-26
7.93893E-01 9.14268E-26
7.97411E-01 8.91577E-26
8.00908E-01 8.69362E-26
8.04381E-01 8.47614E-26
8.07831E-01 8.26321E-26
8.11257E-01 8.05475E-26
8.14660E-01 7.85065E-26
8.18039E-01 7.65082E-26
8.21394E-01 7.45517E-26
8.24724E-01 7.26360E-26
8.28030E-01 7.07604E-26
8.31310E-01 6.89239E-26
8.34565E-01 6.71257E-26
8.37795E-01 6.53651E-26
8.40999E-01 6.36412E-26
8.44177E-01 6.19532E-26
8.47329E-01 6.03006E-26
8.50455E-01 5.86824E-26
8.53553E-01 5.70980E-26
8.56625E-01 5.55468E-26
8.59670E-01 5.40280E-26
8.62687E-01 5.25410E-26
8.65677E-01 5.10851E-26
8.68639E-01 4.96598E-26
8.71572E-01 4.82645E-26
8.74478E-01 4.68985E-26
8.77355E-01 4.55613E-26
8.80203E-01 4.42523E-26
8.83022E-01 4.29709E-26
8.85812E-01 4.17168E-26
8.88573E-01 4.04893E-26
8.91304E-01 3.92879E-26
8.94005E-01 3.81122E-26
8.96677E-01 3.69616E-26
8.99318E-01 3.58357E-26
9.01928E-01 3.47341E-26
9.04508E-01 3.36563E-26
9.07058E-01 3.26019E-26
9.09576E-01 3.15705E-26
9.12063E-01 3.05616E-26
9.14519E-01 2.95749E-26
9.16943E-01 2.86099E-26
9.19335E-01 2.76664E-26
9.21696E-01 2.67438E-26
9.24024E-01 2.58420E-26
9.26320E-01 2.49604E-26
9.28584E-01 2.40989E-26
9.30815E-01 2.32570E-26
9.33013E-01 2.24344E-26
9.35178E-01 2.16309E-26
9.37310E-01 2.08461E-26
9.39409E-01 2.00797E-26
9.41474E-01 1.93314E-26
9.43505E-01 1.86010E-26
9.45503E-01 1.78881E-26
9.47467E-01 1.71926E-26
9.49397E-01 1.65141E-26
9.51293E-01 1.58524E-26
9.53154E-01 1.52073E-26
9.54981E-01 1.45785E-26
9.56773E-01 1.39658E-26
9.58530E-01 1.33690E-26
9.60252E-01 1.27878E-26
9.61940E-01 1.22220E-26
9.63592E-01 1.16715E-26
9.65209E-01 1.11360E-26
9.66790E-01 1.06154E-26
9.68336E-01 1.01094E-26
9.69846E-01 9.61786E-27
9.71321E-01 9.14063E-27
9.72759E-01 8.67753E-27
9.74162E-01 8.22838E-27
9.75528E-01 7.79304E-27
9.76858E-01 7.37133E-27
9.78152E-01 6.96313E-27
9.79410E-01 6.56828E-27
9.80631E-01 6.18664E-27
9.81815E-01 5.81807E-27
9.82963E-01 5.46246E-27
9.84074E-01 5.11967E-27
9.85148E-01 4.78959E-27
9.86185E-01 4.47209E-27
9.87185E-01 4.16708E-27
9.88148E-01 3.87443E-27
9.89074E-01 3.59406E-27
9.89962E-01 3.32586E-27
9.90814E-01 3.06974E-27
9.91627E-01 2.82562E-27
9.92404E-01 2.59340E-27
9.93143E-01 2.37301E-27
9.93844E-01 2.16437E-27
9.94508E-01 1.96741E-27
9.95134E-01 1.78207E-27
9.95722E-01 1.60827E-27
9.96273E-01 1.44596E-27
9.96786E-01 1.29509E-27
9.97261E-01 1.15559E-27
9.97698E-01 1.02743E-27
9.98097E-01 9.10564E-28
9.98459E-01 8.04946E-28
9.98782E-01 7.10541E-28
9.99067E-01 6.27318E-28
9.99315E-01 5.55250E-28
9.99524E-01 4.94310E-28
9.99695E-01 4.44478E-28
9.99829E-01 4.05738E-28
9.99924E-01 3.78075E-28
9.99981E-01 3.61482E-28
1.00000E+00 3.55951E-28
