 #
 # Subroutine ELSEPA. Elastic scattering of electrons and positrons
 #                    by neutral atoms and positive ions
 #
 # Projectile: positron
 # Kinetic energy = 8.00000E+08 eV = 2.93995E+07 a.u.
 #
 # WARNING: High-energy factorization with free-atom DF screening.
 #          Absorption, polarization and exchange corrections are
 #          switched off.
 #          Phase shifts are calculated for the bare nucleus.
 #          Scattering amplitudes are not evaluated.
 #
 # Element: Br,  Z =  35,  atomic weight = 7.99040E+01 g/mol
 #
 # Nuclear model: Fermi distribution
 #                Average radius = 4.60865E-13 cm
 #                Skin thickness = 5.46000E-14 cm
 #
 # Number of electrons = 35
 #
 # Total elastic cross section = 2.71003E-18 cm**2 = 9.67768E-02 a0**2
 # 1st transport cross section = 3.85712E-27 cm**2 = 1.37740E-10 a0**2
 # 2nd transport cross section = 1.15693E-26 cm**2 = 4.13149E-10 a0**2
 #
 #
 # Differential cross section:                       MU=(1-COS(THETA))/2
 #
 #  THETA        MU          DCS          DCS        Sherman      error
 #  (deg)                 (cm**2/sr)   (a0**2/sr)    function
 #----------------------------------------------------------------------
0.00000E+00 1.20468E-08
7.61557E-13 1.09213E-08
1.18994E-12 1.03544E-08
1.71346E-12 9.71999E-09
2.33225E-12 9.04165E-09
3.04617E-12 8.34194E-09
3.85530E-12 7.64464E-09
4.75964E-12 6.96042E-09
5.75917E-12 6.31016E-09
6.85391E-12 5.69326E-09
8.04379E-12 5.12519E-09
9.32893E-12 4.60001E-09
1.07092E-11 4.12533E-09
1.21847E-11 3.69549E-09
1.37554E-11 3.31103E-09
1.54213E-11 2.96756E-09
1.71823E-11 2.66224E-09
1.90386E-11 2.39166E-09
2.09900E-11 2.15184E-09
2.30367E-11 1.94013E-09
2.51785E-11 1.75257E-09
2.74156E-11 1.58713E-09
2.97478E-11 1.44036E-09
3.21752E-11 1.31065E-09
3.46979E-11 1.19540E-09
3.73157E-11 1.09061E-09
4.00286E-11 9.96849E-10
4.28368E-11 9.14602E-10
4.57402E-11 8.42180E-10
4.87388E-11 7.78171E-10
5.18325E-11 7.21400E-10
5.50215E-11 6.70873E-10
5.83057E-11 6.22557E-10
6.16850E-11 5.78272E-10
6.51595E-11 5.38624E-10
6.87293E-11 5.03022E-10
7.23943E-11 4.70963E-10
7.61544E-11 4.42016E-10
1.18991E-10 2.45544E-10
1.71347E-10 1.47441E-10
2.33223E-10 9.25549E-11
3.04617E-10 5.99914E-11
3.85531E-10 4.01341E-11
4.75965E-10 2.76075E-11
5.75917E-10 1.95560E-11
6.85389E-10 1.42149E-11
8.04380E-10 1.05925E-11
9.32891E-10 8.06531E-12
1.07092E-09 6.26004E-12
1.21847E-09 4.94153E-12
1.37554E-09 3.95905E-12
1.54213E-09 3.21245E-12
1.71823E-09 2.63560E-12
1.90386E-09 2.18341E-12
2.09900E-09 1.82431E-12
2.30367E-09 1.53626E-12
2.51785E-09 1.30260E-12
2.74156E-09 1.11166E-12
2.97478E-09 9.54018E-13
3.21752E-09 8.23178E-13
3.46978E-09 7.13693E-13
3.73156E-09 6.21331E-13
4.00286E-09 5.43415E-13
4.28368E-09 4.77622E-13
4.57402E-09 4.20996E-13
4.87388E-09 3.72554E-13
5.18326E-09 3.30970E-13
5.50215E-09 2.94752E-13
5.83057E-09 2.63430E-13
6.16850E-09 2.36146E-13
6.51596E-09 2.12226E-13
6.87293E-09 1.91300E-13
7.23942E-09 1.72853E-13
7.61544E-09 1.56563E-13
1.18991E-08 6.52930E-14
1.71347E-08 3.19043E-14
2.33223E-08 1.74050E-14
3.04617E-08 1.02910E-14
3.85531E-08 6.46906E-15
4.75965E-08 4.26757E-15
5.75917E-08 2.92745E-15
6.85389E-08 2.07404E-15
8.04380E-08 1.50990E-15
9.32891E-08 1.12500E-15
1.07092E-07 8.55185E-16
1.21847E-07 6.61549E-16
1.37554E-07 5.19698E-16
1.54213E-07 4.13877E-16
1.71823E-07 3.33650E-16
1.90386E-07 2.71941E-16
2.09900E-07 2.23851E-16
2.30367E-07 1.85930E-16
2.51785E-07 1.55705E-16
2.74156E-07 1.31377E-16
2.97478E-07 1.11617E-16
3.21752E-07 9.54350E-17
3.46978E-07 8.20808E-17
3.73156E-07 7.09819E-17
4.00286E-07 6.16964E-17
4.28368E-07 5.38804E-17
4.57402E-07 4.72634E-17
4.87388E-07 4.16314E-17
5.18325E-07 3.68136E-17
5.50215E-07 3.26729E-17
5.83057E-07 2.90981E-17
6.16850E-07 2.59990E-17
6.51596E-07 2.33017E-17
6.87293E-07 2.09452E-17
7.23942E-07 1.88791E-17
7.61543E-07 1.70615E-17
1.18991E-06 6.99006E-18
1.71347E-06 3.37114E-18
2.33223E-06 1.81959E-18
3.04617E-06 1.06653E-18
3.85531E-06 6.65766E-19
4.75964E-06 4.36761E-19
5.75916E-06 2.98278E-19
6.85388E-06 2.10578E-19
8.04378E-06 1.52866E-19
9.32888E-06 1.13636E-19
1.07092E-05 8.62195E-20
1.21846E-05 6.65935E-20
1.37553E-05 5.22465E-20
1.54212E-05 4.15629E-20
1.71822E-05 3.34751E-20
1.90385E-05 2.72584E-20
2.09899E-05 2.24264E-20
2.30365E-05 1.86182E-20
2.51783E-05 1.55837E-20
2.74153E-05 1.31418E-20
2.97475E-05 1.11594E-20
3.21749E-05 9.53695E-21
3.46974E-05 8.19906E-21
3.73152E-05 7.08800E-21
4.00281E-05 6.15911E-21
4.28362E-05 5.37759E-21
4.57395E-05 4.71615E-21
4.87380E-05 4.15324E-21
5.18317E-05 3.67173E-21
5.50205E-05 3.25792E-21
5.83045E-05 2.90074E-21
6.16838E-05 2.59119E-21
6.51582E-05 2.32186E-21
6.87277E-05 2.08665E-21
7.23925E-05 1.88050E-21
7.61524E-05 1.67696E-21
9.21439E-05 1.14018E-21
1.09658E-04 8.00904E-22
1.28695E-04 5.78189E-22
1.49255E-04 4.27166E-22
1.71338E-04 3.21941E-22
1.94942E-04 2.46849E-22
2.20070E-04 1.92148E-22
2.46720E-04 1.51570E-22
2.74892E-04 1.20975E-22
3.04586E-04 9.75782E-23
3.35803E-04 7.94505E-23
3.68542E-04 6.52427E-23
4.02802E-04 5.39887E-23
4.38585E-04 4.49888E-23
4.75889E-04 3.77285E-23
5.14715E-04 3.18242E-23
5.55063E-04 2.69875E-23
5.96931E-04 2.29982E-23
6.40321E-04 1.96872E-23
6.85233E-04 1.69233E-23
7.31665E-04 1.46034E-23
7.79618E-04 1.26467E-23
8.29092E-04 1.09884E-23
8.80086E-04 9.57704E-24
9.32601E-04 8.37083E-24
9.86636E-04 7.33606E-24
1.04219E-03 6.44521E-24
1.09927E-03 5.67566E-24
1.15786E-03 5.00883E-24
1.21797E-03 4.42928E-24
1.27961E-03 3.92419E-24
1.34276E-03 3.48285E-24
1.40743E-03 3.09625E-24
1.47362E-03 2.75683E-24
1.54133E-03 2.45815E-24
1.61056E-03 2.19480E-24
1.68131E-03 1.96214E-24
1.75357E-03 1.75621E-24
1.82735E-03 1.57363E-24
1.90265E-03 1.41147E-24
1.97947E-03 1.26724E-24
2.05780E-03 1.13876E-24
2.13765E-03 1.02416E-24
2.21902E-03 9.21799E-25
2.30190E-03 8.30258E-25
2.38630E-03 7.48301E-25
2.47222E-03 6.74842E-25
2.55965E-03 6.08933E-25
2.64859E-03 5.49741E-25
2.73905E-03 4.96533E-25
2.83103E-03 4.48663E-25
2.92452E-03 4.05560E-25
3.01952E-03 3.66722E-25
3.11604E-03 3.31702E-25
3.21407E-03 3.00103E-25
3.31362E-03 2.71575E-25
3.41468E-03 2.45805E-25
3.51725E-03 2.22513E-25
3.62133E-03 2.01453E-25
3.72692E-03 1.82401E-25
3.83403E-03 1.65159E-25
3.94265E-03 1.49550E-25
4.05278E-03 1.35415E-25
4.16442E-03 1.22610E-25
4.27757E-03 1.11009E-25
4.39223E-03 1.00495E-25
4.50840E-03 9.09650E-26
4.62608E-03 8.23257E-26
4.74527E-03 7.44930E-26
4.86597E-03 6.73911E-26
4.98817E-03 6.09514E-26
5.11188E-03 5.51122E-26
5.23711E-03 4.98175E-26
5.36383E-03 4.50169E-26
5.49207E-03 4.06646E-26
5.62181E-03 3.67191E-26
5.75306E-03 3.31430E-26
5.88581E-03 2.99023E-26
6.02007E-03 2.69661E-26
6.15583E-03 2.43064E-26
6.29310E-03 2.18978E-26
6.43187E-03 1.97173E-26
6.57214E-03 1.77440E-26
6.71392E-03 1.59588E-26
6.85720E-03 1.43443E-26
7.00198E-03 1.28850E-26
7.14827E-03 1.15665E-26
7.29605E-03 1.03758E-26
7.44534E-03 9.30107E-27
7.59612E-03 8.33161E-27
7.97965E-03 6.30636E-27
8.37255E-03 4.74994E-27
8.77480E-03 3.55952E-27
9.18641E-03 2.65398E-27
9.60736E-03 1.96940E-27
1.00376E-02 1.45545E-27
1.04773E-02 1.07261E-27
1.09262E-02 7.89917E-28
1.13844E-02 5.83210E-28
1.18520E-02 4.33686E-28
1.23288E-02 3.26800E-28
1.28150E-02 2.51357E-28
1.33104E-02 1.98800E-28
1.38150E-02 1.62641E-28
1.43290E-02 1.38008E-28
1.48521E-02 1.21284E-28
1.53845E-02 1.09819E-28
1.59262E-02 1.01709E-28
1.64770E-02 9.56131E-29
1.70371E-02 9.06149E-29
1.76063E-02 8.61132E-29
1.81848E-02 8.17370E-29
1.87724E-02 7.72794E-29
1.93692E-02 7.26483E-29
1.99751E-02 6.78279E-29
2.05901E-02 6.28507E-29
2.12143E-02 5.77772E-29
2.18476E-02 5.26806E-29
2.24900E-02 4.76368E-29
2.31415E-02 4.27175E-29
2.38021E-02 3.79858E-29
2.44717E-02 3.34943E-29
2.51504E-02 2.92838E-29
2.58382E-02 2.53832E-29
2.65349E-02 2.18107E-29
2.72407E-02 1.85744E-29
2.79555E-02 1.56739E-29
2.86793E-02 1.31016E-29
2.94120E-02 1.08441E-29
3.01537E-02 8.88373E-30
3.09043E-02 7.19951E-30
3.16639E-02 5.76849E-30
3.24324E-02 4.56660E-30
3.32098E-02 3.56945E-30
3.39961E-02 2.75302E-30
3.47912E-02 2.09415E-30
3.55952E-02 1.57094E-30
3.64081E-02 1.16303E-30
3.72297E-02 8.51786E-31
3.80602E-02 6.20397E-31
3.88995E-02 4.53910E-31
3.97476E-02 3.39204E-31
4.06044E-02 2.64926E-31
4.14700E-02 2.21395E-31
4.23443E-02 2.00477E-31
4.32273E-02 1.95453E-31
4.41190E-02 2.00876E-31
4.50194E-02 2.12419E-31
4.59284E-02 2.26740E-31
4.68461E-02 2.41335E-31
4.87074E-02 2.64773E-31
5.06030E-02 2.74830E-31
5.25328E-02 2.69812E-31
5.44967E-02 2.51633E-31
5.64946E-02 2.23932E-31
5.85262E-02 1.90784E-31
6.05914E-02 1.55917E-31
6.26901E-02 1.22298E-31
6.48222E-02 9.19983E-32
6.69873E-02 6.62188E-32
6.91854E-02 4.54250E-32
7.14163E-02 2.95214E-32
7.36799E-02 1.80330E-32
7.59760E-02 1.02688E-32
7.83043E-02 5.45374E-33
8.06647E-02 2.82743E-33
8.30571E-02 1.70832E-33
8.54812E-02 1.52939E-33
8.79369E-02 1.85092E-33
9.04240E-02 2.35684E-33
9.29422E-02 2.84047E-33
9.54915E-02 3.18474E-33
9.80716E-02 3.34059E-33
1.00682E-01 3.30638E-33
1.03323E-01 3.10988E-33
1.05995E-01 2.79374E-33
1.08696E-01 2.40476E-33
1.11427E-01 1.98650E-33
1.14188E-01 1.57502E-33
1.16978E-01 1.19695E-33
1.19797E-01 8.69256E-34
1.22645E-01 6.00265E-34
1.25522E-01 3.91243E-34
1.28428E-01 2.38272E-34
1.31361E-01 1.34083E-34
1.34323E-01 6.96763E-35
1.37313E-01 3.56211E-35
1.40330E-01 2.30086E-35
1.43375E-01 2.40724E-35
1.46447E-01 3.25127E-35
1.49545E-01 4.35891E-35
1.52671E-01 5.40416E-35
1.55823E-01 6.19025E-35
1.59001E-01 6.62485E-35
1.62205E-01 6.69353E-35
1.65435E-01 6.43454E-35
1.68690E-01 5.91678E-35
1.71970E-01 5.22200E-35
1.75276E-01 4.43160E-35
1.78606E-01 3.61771E-35
1.81961E-01 2.83823E-35
1.85340E-01 2.13474E-35
1.88743E-01 1.53285E-35
1.92169E-01 1.04400E-35
1.95619E-01 6.68140E-36
1.99092E-01 3.96765E-36
2.02589E-01 2.15870E-36
2.06107E-01 1.08576E-36
2.09649E-01 5.73466E-37
2.13212E-01 4.55455E-37
2.16797E-01 5.85682E-37
2.20404E-01 8.44348E-37
2.24032E-01 1.14011E-36
2.27680E-01 1.40915E-36
2.31350E-01 1.61220E-36
2.35040E-01 1.73041E-36
2.38751E-01 1.76057E-36
2.42481E-01 1.71055E-36
2.46231E-01 1.59501E-36
2.50000E-01 1.43198E-36
2.53788E-01 1.24002E-36
2.57595E-01 1.03625E-36
2.61421E-01 8.35193E-37
2.65264E-01 6.47986E-37
2.69126E-01 4.82342E-37
2.73005E-01 3.42643E-37
2.76901E-01 2.30505E-37
2.80814E-01 1.45208E-37
2.84744E-01 8.43835E-38
2.88691E-01 4.46101E-38
2.92653E-01 2.19164E-38
2.96632E-01 1.22282E-38
3.00625E-01 1.17145E-38
3.04634E-01 1.69784E-38
3.08658E-01 2.52186E-38
3.12697E-01 3.42548E-38
3.16749E-01 4.25250E-38
3.20816E-01 4.90219E-38
3.24896E-01 5.32192E-38
3.28990E-01 5.49671E-38
3.33097E-01 5.43925E-38
3.37216E-01 5.18245E-38
3.41348E-01 4.76976E-38
3.45492E-01 4.24836E-38
3.49647E-01 3.66606E-38
3.53814E-01 3.06474E-38
3.57992E-01 2.48039E-38
3.62181E-01 1.93926E-38
3.66381E-01 1.46054E-38
3.70590E-01 1.05402E-38
3.74810E-01 7.23826E-39
3.79039E-01 1.00000E-45
3.83277E-01 1.00000E-45
3.87524E-01 1.00000E-45
3.91780E-01 1.00000E-45
3.96044E-01 1.00000E-45
4.00316E-01 1.00000E-45
4.04596E-01 1.00000E-45
4.08882E-01 1.00000E-45
4.13176E-01 1.00000E-45
4.17476E-01 1.00000E-45
4.21783E-01 1.00000E-45
4.26095E-01 1.00000E-45
4.30413E-01 1.00000E-45
4.34737E-01 1.00000E-45
4.39065E-01 1.00000E-45
4.43398E-01 1.00000E-45
4.47736E-01 1.00000E-45
4.52077E-01 1.00000E-45
4.56422E-01 1.00000E-45
4.60770E-01 1.00000E-45
4.65122E-01 1.00000E-45
4.69476E-01 1.00000E-45
4.73832E-01 1.00000E-45
4.78190E-01 1.00000E-45
4.82550E-01 1.00000E-45
4.86912E-01 1.00000E-45
4.91274E-01 1.00000E-45
4.95637E-01 1.00000E-45
5.00000E-01 1.00000E-45
5.04363E-01 1.00000E-45
5.08726E-01 1.00000E-45
5.13088E-01 1.00000E-45
5.17450E-01 1.00000E-45
5.21810E-01 1.00000E-45
5.26168E-01 1.00000E-45
5.30524E-01 1.00000E-45
5.34878E-01 1.00000E-45
5.39230E-01 1.00000E-45
5.43578E-01 1.00000E-45
5.47923E-01 1.00000E-45
5.52264E-01 1.00000E-45
5.56602E-01 1.00000E-45
5.60935E-01 1.00000E-45
5.65263E-01 1.00000E-45
5.69587E-01 1.00000E-45
5.73905E-01 1.00000E-45
5.78217E-01 1.00000E-45
5.82524E-01 1.00000E-45
5.86824E-01 1.00000E-45
5.91118E-01 1.00000E-45
5.95404E-01 1.00000E-45
5.99684E-01 1.00000E-45
6.03956E-01 1.00000E-45
6.08220E-01 1.00000E-45
6.12476E-01 1.00000E-45
6.16723E-01 1.00000E-45
6.20961E-01 1.00000E-45
6.25190E-01 1.00000E-45
6.29410E-01 1.00000E-45
6.33619E-01 1.00000E-45
6.37819E-01 1.00000E-45
6.42008E-01 1.00000E-45
6.46186E-01 1.00000E-45
6.50353E-01 1.00000E-45
6.54508E-01 1.00000E-45
6.58652E-01 1.00000E-45
6.62784E-01 1.00000E-45
6.66903E-01 1.00000E-45
6.71010E-01 1.00000E-45
6.75104E-01 1.00000E-45
6.79184E-01 1.00000E-45
6.83251E-01 1.00000E-45
6.87303E-01 1.00000E-45
6.91342E-01 1.00000E-45
6.95366E-01 1.00000E-45
6.99375E-01 1.00000E-45
7.03368E-01 1.00000E-45
7.07347E-01 1.00000E-45
7.11309E-01 1.00000E-45
7.15256E-01 1.00000E-45
7.19186E-01 1.00000E-45
7.23099E-01 1.00000E-45
7.26995E-01 1.00000E-45
7.30874E-01 1.00000E-45
7.34736E-01 1.00000E-45
7.38579E-01 1.00000E-45
7.42405E-01 1.00000E-45
7.46212E-01 1.00000E-45
7.50000E-01 1.00000E-45
7.53769E-01 1.00000E-45
7.57519E-01 1.00000E-45
7.61249E-01 1.00000E-45
7.64960E-01 1.00000E-45
7.68650E-01 1.00000E-45
7.72320E-01 1.00000E-45
7.75968E-01 1.00000E-45
7.79596E-01 1.00000E-45
7.83203E-01 1.00000E-45
7.86788E-01 1.00000E-45
7.90351E-01 1.00000E-45
7.93893E-01 1.00000E-45
7.97411E-01 1.00000E-45
8.00908E-01 1.00000E-45
8.04381E-01 1.00000E-45
8.07831E-01 1.00000E-45
8.11257E-01 1.00000E-45
8.14660E-01 1.00000E-45
8.18039E-01 1.00000E-45
8.21394E-01 1.00000E-45
8.24724E-01 1.00000E-45
8.28030E-01 1.00000E-45
8.31310E-01 1.00000E-45
8.34565E-01 1.00000E-45
8.37795E-01 1.00000E-45
8.40999E-01 1.00000E-45
8.44177E-01 1.00000E-45
8.47329E-01 1.00000E-45
8.50455E-01 1.00000E-45
8.53553E-01 1.00000E-45
8.56625E-01 1.00000E-45
8.59670E-01 1.00000E-45
8.62687E-01 1.00000E-45
8.65677E-01 1.00000E-45
8.68639E-01 1.00000E-45
8.71572E-01 1.00000E-45
8.74478E-01 1.00000E-45
8.77355E-01 1.00000E-45
8.80203E-01 1.00000E-45
8.83022E-01 1.00000E-45
8.85812E-01 1.00000E-45
8.88573E-01 1.00000E-45
8.91304E-01 1.00000E-45
8.94005E-01 1.00000E-45
8.96677E-01 1.00000E-45
8.99318E-01 1.00000E-45
9.01928E-01 1.00000E-45
9.04508E-01 1.00000E-45
9.07058E-01 1.00000E-45
9.09576E-01 1.00000E-45
9.12063E-01 1.00000E-45
9.14519E-01 1.00000E-45
9.16943E-01 1.00000E-45
9.19335E-01 1.00000E-45
9.21696E-01 1.00000E-45
9.24024E-01 1.00000E-45
9.26320E-01 1.00000E-45
9.28584E-01 1.00000E-45
9.30815E-01 1.00000E-45
9.33013E-01 1.00000E-45
9.35178E-01 1.00000E-45
9.37310E-01 1.00000E-45
9.39409E-01 1.00000E-45
9.41474E-01 1.00000E-45
9.43505E-01 1.00000E-45
9.45503E-01 1.00000E-45
9.47467E-01 1.00000E-45
9.49397E-01 1.00000E-45
9.51293E-01 1.00000E-45
9.53154E-01 1.00000E-45
9.54981E-01 1.00000E-45
9.56773E-01 1.00000E-45
9.58530E-01 1.00000E-45
9.60252E-01 1.00000E-45
9.61940E-01 1.00000E-45
9.63592E-01 1.00000E-45
9.65209E-01 1.00000E-45
9.66790E-01 1.00000E-45
9.68336E-01 1.00000E-45
9.69846E-01 1.00000E-45
9.71321E-01 1.00000E-45
9.72759E-01 1.00000E-45
9.74162E-01 1.00000E-45
9.75528E-01 1.00000E-45
9.76858E-01 1.00000E-45
9.78152E-01 1.00000E-45
9.79410E-01 1.00000E-45
9.80631E-01 1.00000E-45
9.81815E-01 1.00000E-45
9.82963E-01 1.00000E-45
9.84074E-01 1.00000E-45
9.85148E-01 1.00000E-45
9.86185E-01 1.00000E-45
9.87185E-01 1.00000E-45
9.88148E-01 1.00000E-45
9.89074E-01 1.00000E-45
9.89962E-01 1.00000E-45
9.90814E-01 1.00000E-45
9.91627E-01 1.00000E-45
9.92404E-01 1.00000E-45
9.93143E-01 1.00000E-45
9.93844E-01 1.00000E-45
9.94508E-01 1.00000E-45
9.95134E-01 1.00000E-45
9.95722E-01 1.00000E-45
9.96273E-01 1.00000E-45
9.96786E-01 1.00000E-45
9.97261E-01 1.00000E-45
9.97698E-01 1.00000E-45
9.98097E-01 1.00000E-45
9.98459E-01 1.00000E-45
9.98782E-01 1.00000E-45
9.99067E-01 1.00000E-45
9.99315E-01 1.00000E-45
9.99524E-01 1.00000E-45
9.99695E-01 1.00000E-45
9.99829E-01 1.00000E-45
9.99924E-01 1.00000E-45
9.99981E-01 1.00000E-45
1.00000E+00 1.00000E-45
