 #
 # Subroutine ELSEPA. Elastic scattering of electrons and positrons
 #                    by neutral atoms and positive ions
 #
 # Projectile: positron
 # Kinetic energy = 4.50000E+07 eV = 1.65372E+06 a.u.
 #
 # WARNING: High-energy factorization with free-atom DF screening.
 #          Absorption, polarization and exchange corrections are
 #          switched off.
 #          Phase shifts are calculated for the bare nucleus.
 #          Scattering amplitudes are not evaluated.
 #
 # Element: Br,  Z =  35,  atomic weight = 7.99040E+01 g/mol
 #
 # Nuclear model: Fermi distribution
 #                Average radius = 4.60865E-13 cm
 #                Skin thickness = 5.46000E-14 cm
 #
 # Number of electrons = 35
 #
 # Total elastic cross section = 2.71623E-18 cm**2 = 9.69984E-02 a0**2
 # 1st transport cross section = 1.10439E-24 cm**2 = 3.94384E-08 a0**2
 # 2nd transport cross section = 3.23767E-24 cm**2 = 1.15619E-07 a0**2
 #
 #
 # Differential cross section:                       MU=(1-COS(THETA))/2
 #
 #  THETA        MU          DCS          DCS        Sherman      error
 #  (deg)                 (cm**2/sr)   (a0**2/sr)    function
 #----------------------------------------------------------------------
0.00000E+00 3.89376E-11
7.61557E-13 3.89248E-11
1.18994E-12 3.89177E-11
1.71346E-12 3.89090E-11
2.33225E-12 3.88987E-11
3.04617E-12 3.88869E-11
3.85530E-12 3.88734E-11
4.75964E-12 3.88585E-11
5.75917E-12 3.88419E-11
6.85391E-12 3.88238E-11
8.04379E-12 3.88042E-11
9.32893E-12 3.87830E-11
1.07092E-11 3.87602E-11
1.21847E-11 3.87359E-11
1.37554E-11 3.87101E-11
1.54213E-11 3.86827E-11
1.71823E-11 3.86538E-11
1.90386E-11 3.86234E-11
2.09900E-11 3.85914E-11
2.30367E-11 3.85580E-11
2.51785E-11 3.85230E-11
2.74156E-11 3.84865E-11
2.97478E-11 3.84486E-11
3.21752E-11 3.84091E-11
3.46979E-11 3.83682E-11
3.73157E-11 3.83258E-11
4.00286E-11 3.82819E-11
4.28368E-11 3.82365E-11
4.57402E-11 3.81897E-11
4.87388E-11 3.81415E-11
5.18325E-11 3.80918E-11
5.50215E-11 3.80407E-11
5.83057E-11 3.79882E-11
6.16850E-11 3.79343E-11
6.51595E-11 3.78789E-11
6.87293E-11 3.78222E-11
7.23943E-11 3.77641E-11
7.61544E-11 3.77046E-11
1.18991E-10 3.70342E-11
1.71347E-10 3.62431E-11
2.33223E-10 3.53338E-11
3.04617E-10 3.43263E-11
3.85531E-10 3.32366E-11
4.75965E-10 3.20808E-11
5.75917E-10 3.08745E-11
6.85389E-10 2.96278E-11
8.04380E-10 2.83462E-11
9.32891E-10 2.70548E-11
1.07092E-09 2.57659E-11
1.21847E-09 2.44899E-11
1.37554E-09 2.32356E-11
1.54213E-09 2.20039E-11
1.71823E-09 2.07996E-11
1.90386E-09 1.96371E-11
2.09900E-09 1.85201E-11
2.30367E-09 1.74510E-11
2.51785E-09 1.64314E-11
2.74156E-09 1.54568E-11
2.97478E-09 1.45298E-11
3.21752E-09 1.36545E-11
3.46978E-09 1.28296E-11
3.73156E-09 1.20537E-11
4.00286E-09 1.13250E-11
4.28368E-09 1.06382E-11
4.57402E-09 9.99428E-12
4.87388E-09 9.39244E-12
5.18326E-09 8.83033E-12
5.50215E-09 8.30563E-12
5.83057E-09 7.81606E-12
6.16850E-09 7.35760E-12
6.51596E-09 6.93016E-12
6.87293E-09 6.53196E-12
7.23942E-09 6.16100E-12
7.61544E-09 5.81533E-12
1.18991E-08 3.39128E-12
1.71347E-08 2.15148E-12
2.33223E-08 1.44704E-12
3.04617E-08 1.02102E-12
3.85531E-08 7.44888E-13
4.75965E-08 5.56318E-13
5.75917E-08 4.22531E-13
6.85389E-08 3.24641E-13
8.04380E-08 2.51602E-13
9.32891E-08 1.97209E-13
1.07092E-07 1.56190E-13
1.21847E-07 1.24923E-13
1.37554E-07 1.00865E-13
1.54213E-07 8.21592E-14
1.71823E-07 6.75143E-14
1.90386E-07 5.59807E-14
2.09900E-07 4.68115E-14
2.30367E-07 3.94569E-14
2.51785E-07 3.35075E-14
2.74156E-07 2.86542E-14
2.97478E-07 2.46581E-14
3.21752E-07 2.13488E-14
3.46978E-07 1.85887E-14
3.73156E-07 1.62707E-14
4.00286E-07 1.43110E-14
4.28368E-07 1.26425E-14
4.57402E-07 1.12138E-14
4.87388E-07 9.98426E-15
5.18325E-07 8.92066E-15
5.50215E-07 7.99627E-15
5.83057E-07 7.18935E-15
6.16850E-07 6.48133E-15
6.51596E-07 5.85852E-15
6.87293E-07 5.30891E-15
7.23942E-07 4.82230E-15
7.61543E-07 4.39011E-15
1.18991E-06 1.89480E-15
1.71347E-06 9.40163E-16
2.33223E-06 5.15869E-16
3.04617E-06 3.05779E-16
3.85531E-06 1.92576E-16
4.75964E-06 1.27298E-16
5.75916E-06 8.75226E-17
6.85388E-06 6.21607E-17
8.04378E-06 4.53657E-17
9.32888E-06 3.38828E-17
1.07092E-05 2.58148E-17
1.21846E-05 2.00113E-17
1.37553E-05 1.57502E-17
1.54212E-05 1.25646E-17
1.71822E-05 1.01444E-17
1.90385E-05 8.27816E-18
2.09899E-05 6.82351E-18
2.30365E-05 5.67416E-18
2.51783E-05 4.75626E-18
2.74153E-05 4.01612E-18
2.97475E-05 3.41417E-18
3.21749E-05 2.92071E-18
3.46974E-05 2.51321E-18
3.73152E-05 2.17436E-18
4.00281E-05 1.89075E-18
4.28362E-05 1.65188E-18
4.57395E-05 1.44952E-18
4.87380E-05 1.27716E-18
5.18317E-05 1.12961E-18
5.50205E-05 1.00272E-18
5.83045E-05 8.93124E-19
6.16838E-05 7.98087E-19
6.51582E-05 7.15357E-19
6.87277E-05 6.43073E-19
7.23925E-05 5.79691E-19
7.61524E-05 5.23937E-19
9.21439E-05 3.57938E-19
1.09658E-04 2.52725E-19
1.28695E-04 1.83466E-19
1.49255E-04 1.36367E-19
1.71338E-04 1.03451E-19
1.94942E-04 7.98847E-20
2.20070E-04 6.26584E-20
2.46720E-04 4.98318E-20
2.74892E-04 4.01225E-20
3.04586E-04 3.26654E-20
3.35803E-04 2.68611E-20
3.68542E-04 2.22896E-20
4.02802E-04 1.86496E-20
4.38585E-04 1.57224E-20
4.75889E-04 1.33471E-20
5.14715E-04 1.14033E-20
5.55063E-04 9.80050E-21
5.96931E-04 8.46928E-21
6.40321E-04 7.35633E-21
6.85233E-04 6.42010E-21
7.31665E-04 5.62797E-21
7.79618E-04 4.95416E-21
8.29092E-04 4.37809E-21
8.80086E-04 3.88325E-21
9.32601E-04 3.45627E-21
9.86636E-04 3.08630E-21
1.04219E-03 2.76445E-21
1.09927E-03 2.48342E-21
1.15786E-03 2.23714E-21
1.21797E-03 2.02059E-21
1.27961E-03 1.82957E-21
1.34276E-03 1.66055E-21
1.40743E-03 1.51057E-21
1.47362E-03 1.37711E-21
1.54133E-03 1.25804E-21
1.61056E-03 1.15154E-21
1.68131E-03 1.05604E-21
1.75357E-03 9.70221E-22
1.82735E-03 8.92925E-22
1.90265E-03 8.23157E-22
1.97947E-03 7.60054E-22
2.05780E-03 7.02868E-22
2.13765E-03 6.50948E-22
2.21902E-03 6.03721E-22
2.30190E-03 5.60689E-22
2.38630E-03 5.21412E-22
2.47222E-03 4.85507E-22
2.55965E-03 4.52630E-22
2.64859E-03 4.22481E-22
2.73905E-03 3.94793E-22
2.83103E-03 3.69331E-22
2.92452E-03 3.45882E-22
3.01952E-03 3.24258E-22
3.11604E-03 3.04293E-22
3.21407E-03 2.85836E-22
3.31362E-03 2.68753E-22
3.41468E-03 2.52922E-22
3.51725E-03 2.38236E-22
3.62133E-03 2.24597E-22
3.72692E-03 2.11917E-22
3.83403E-03 2.00115E-22
3.94265E-03 1.89121E-22
4.05278E-03 1.78869E-22
4.16442E-03 1.69299E-22
4.27757E-03 1.60358E-22
4.39223E-03 1.51998E-22
4.50840E-03 1.44173E-22
4.62608E-03 1.36842E-22
4.74527E-03 1.29970E-22
4.86597E-03 1.23523E-22
4.98817E-03 1.17468E-22
5.11188E-03 1.11778E-22
5.23711E-03 1.06427E-22
5.36383E-03 1.01391E-22
5.49207E-03 9.66480E-23
5.62181E-03 9.21780E-23
5.75306E-03 8.79618E-23
5.88581E-03 8.39829E-23
6.02007E-03 8.02255E-23
6.15583E-03 7.66748E-23
6.29310E-03 7.33172E-23
6.43187E-03 7.01407E-23
6.57214E-03 6.71333E-23
6.71392E-03 6.42845E-23
6.85720E-03 6.15845E-23
7.00198E-03 5.90239E-23
7.14827E-03 5.65944E-23
7.29605E-03 5.42878E-23
7.44534E-03 5.20970E-23
7.59612E-03 5.00149E-23
7.97965E-03 4.52446E-23
8.37255E-03 4.10266E-23
8.77480E-03 3.72862E-23
9.18641E-03 3.39599E-23
9.60736E-03 3.09942E-23
1.00376E-02 2.83433E-23
1.04773E-02 2.59680E-23
1.09262E-02 2.38348E-23
1.13844E-02 2.19147E-23
1.18520E-02 2.01827E-23
1.23288E-02 1.86173E-23
1.28150E-02 1.71997E-23
1.33104E-02 1.59134E-23
1.38150E-02 1.47442E-23
1.43290E-02 1.36796E-23
1.48521E-02 1.27086E-23
1.53845E-02 1.18214E-23
1.59262E-02 1.10097E-23
1.64770E-02 1.02659E-23
1.70371E-02 9.58328E-24
1.76063E-02 8.95592E-24
1.81848E-02 8.37859E-24
1.87724E-02 7.84658E-24
1.93692E-02 7.35572E-24
1.99751E-02 6.90225E-24
2.05901E-02 6.48283E-24
2.12143E-02 6.09446E-24
2.18476E-02 5.73442E-24
2.24900E-02 5.40028E-24
2.31415E-02 5.08985E-24
2.38021E-02 4.80115E-24
2.44717E-02 4.53240E-24
2.51504E-02 4.28196E-24
2.58382E-02 4.04837E-24
2.65349E-02 3.83029E-24
2.72407E-02 3.62651E-24
2.79555E-02 3.43593E-24
2.86793E-02 3.25754E-24
2.94120E-02 3.09042E-24
3.01537E-02 2.93373E-24
3.09043E-02 2.78671E-24
3.16639E-02 2.64865E-24
3.24324E-02 2.51892E-24
3.32098E-02 2.39691E-24
3.39961E-02 2.28209E-24
3.47912E-02 2.17395E-24
3.55952E-02 2.07205E-24
3.64081E-02 1.97595E-24
3.72297E-02 1.88527E-24
3.80602E-02 1.79965E-24
3.88995E-02 1.71875E-24
3.97476E-02 1.64227E-24
4.06044E-02 1.56992E-24
4.14700E-02 1.50145E-24
4.23443E-02 1.43660E-24
4.32273E-02 1.37515E-24
4.41190E-02 1.31689E-24
4.50194E-02 1.26162E-24
4.59284E-02 1.20917E-24
4.68461E-02 1.15937E-24
4.87074E-02 1.06708E-24
5.06030E-02 9.83613E-25
5.25328E-02 9.07993E-25
5.44967E-02 8.39357E-25
5.64946E-02 7.76951E-25
5.85262E-02 7.20116E-25
6.05914E-02 6.68269E-25
6.26901E-02 6.20901E-25
6.48222E-02 5.77560E-25
6.69873E-02 5.37845E-25
6.91854E-02 5.01403E-25
7.14163E-02 4.67918E-25
7.36799E-02 4.37112E-25
7.59760E-02 4.08732E-25
7.83043E-02 3.82557E-25
8.06647E-02 3.58387E-25
8.30571E-02 3.36041E-25
8.54812E-02 3.15361E-25
8.79369E-02 2.96200E-25
9.04240E-02 2.78428E-25
9.29422E-02 2.61928E-25
9.54915E-02 2.46595E-25
9.80716E-02 2.32330E-25
1.00682E-01 2.19049E-25
1.03323E-01 2.06671E-25
1.05995E-01 1.95126E-25
1.08696E-01 1.84347E-25
1.11427E-01 1.74276E-25
1.14188E-01 1.64858E-25
1.16978E-01 1.56044E-25
1.19797E-01 1.47790E-25
1.22645E-01 1.40053E-25
1.25522E-01 1.32795E-25
1.28428E-01 1.25983E-25
1.31361E-01 1.19585E-25
1.34323E-01 1.13571E-25
1.37313E-01 1.07914E-25
1.40330E-01 1.02590E-25
1.43375E-01 9.75761E-26
1.46447E-01 9.28512E-26
1.49545E-01 8.83959E-26
1.52671E-01 8.41924E-26
1.55823E-01 8.02241E-26
1.59001E-01 7.64759E-26
1.62205E-01 7.29335E-26
1.65435E-01 6.95838E-26
1.68690E-01 6.64148E-26
1.71970E-01 6.34150E-26
1.75276E-01 6.05740E-26
1.78606E-01 5.78821E-26
1.81961E-01 5.53302E-26
1.85340E-01 5.29099E-26
1.88743E-01 5.06133E-26
1.92169E-01 4.84331E-26
1.95619E-01 4.63625E-26
1.99092E-01 4.43952E-26
2.02589E-01 4.25251E-26
2.06107E-01 4.07467E-26
2.09649E-01 3.90549E-26
2.13212E-01 3.74447E-26
2.16797E-01 3.59116E-26
2.20404E-01 3.44514E-26
2.24032E-01 3.30601E-26
2.27680E-01 3.17339E-26
2.31350E-01 3.04693E-26
2.35040E-01 2.92630E-26
2.38751E-01 2.81119E-26
2.42481E-01 2.70131E-26
2.46231E-01 2.59639E-26
2.50000E-01 2.49617E-26
2.53788E-01 2.40041E-26
2.57595E-01 2.30888E-26
2.61421E-01 2.22136E-26
2.65264E-01 2.13766E-26
2.69126E-01 2.05758E-26
2.73005E-01 1.98095E-26
2.76901E-01 1.90758E-26
2.80814E-01 1.83733E-26
2.84744E-01 1.77005E-26
2.88691E-01 1.70558E-26
2.92653E-01 1.64379E-26
2.96632E-01 1.58456E-26
3.00625E-01 1.52777E-26
3.04634E-01 1.47329E-26
3.08658E-01 1.42103E-26
3.12697E-01 1.37088E-26
3.16749E-01 1.32274E-26
3.20816E-01 1.27652E-26
3.24896E-01 1.23213E-26
3.28990E-01 1.18949E-26
3.33097E-01 1.14853E-26
3.37216E-01 1.10916E-26
3.41348E-01 1.07132E-26
3.45492E-01 1.03494E-26
3.49647E-01 9.99946E-27
3.53814E-01 9.66291E-27
3.57992E-01 9.33913E-27
3.62181E-01 9.02755E-27
3.66381E-01 8.72767E-27
3.70590E-01 8.43897E-27
3.74810E-01 8.16100E-27
3.79039E-01 7.89329E-27
3.83277E-01 7.63542E-27
3.87524E-01 7.38697E-27
3.91780E-01 7.14757E-27
3.96044E-01 6.91683E-27
4.00316E-01 6.69440E-27
4.04596E-01 6.47995E-27
4.08882E-01 6.27314E-27
4.13176E-01 6.07368E-27
4.17476E-01 5.88126E-27
4.21783E-01 5.69561E-27
4.26095E-01 5.51646E-27
4.30413E-01 5.34356E-27
4.34737E-01 5.17664E-27
4.39065E-01 5.01550E-27
4.43398E-01 4.85989E-27
4.47736E-01 4.70960E-27
4.52077E-01 4.56444E-27
4.56422E-01 4.42420E-27
4.60770E-01 4.28870E-27
4.65122E-01 4.15775E-27
4.69476E-01 4.03119E-27
4.73832E-01 3.90885E-27
4.78190E-01 3.79057E-27
4.82550E-01 3.67620E-27
4.86912E-01 3.56560E-27
4.91274E-01 3.45863E-27
4.95637E-01 3.35515E-27
5.00000E-01 3.25504E-27
5.04363E-01 3.15817E-27
5.08726E-01 3.06443E-27
5.13088E-01 2.97370E-27
5.17450E-01 2.88588E-27
5.21810E-01 2.80087E-27
5.26168E-01 2.71855E-27
5.30524E-01 2.63884E-27
5.34878E-01 2.56165E-27
5.39230E-01 2.48688E-27
5.43578E-01 2.41446E-27
5.47923E-01 2.34429E-27
5.52264E-01 2.27631E-27
5.56602E-01 2.21044E-27
5.60935E-01 2.14659E-27
5.65263E-01 2.08472E-27
5.69587E-01 2.02473E-27
5.73905E-01 1.96659E-27
5.78217E-01 1.91021E-27
5.82524E-01 1.85554E-27
5.86824E-01 1.80253E-27
5.91118E-01 1.75112E-27
5.95404E-01 1.70125E-27
5.99684E-01 1.65287E-27
6.03956E-01 1.60594E-27
6.08220E-01 1.56040E-27
6.12476E-01 1.51622E-27
6.16723E-01 1.47334E-27
6.20961E-01 1.43173E-27
6.25190E-01 1.39134E-27
6.29410E-01 1.35213E-27
6.33619E-01 1.31407E-27
6.37819E-01 1.27712E-27
6.42008E-01 1.24124E-27
6.46186E-01 1.20639E-27
6.50353E-01 1.17256E-27
6.54508E-01 1.13970E-27
6.58652E-01 1.10778E-27
6.62784E-01 1.07677E-27
6.66903E-01 1.04665E-27
6.71010E-01 1.01739E-27
6.75104E-01 9.88958E-28
6.79184E-01 9.61331E-28
6.83251E-01 9.34484E-28
6.87303E-01 9.08392E-28
6.91342E-01 8.83033E-28
6.95366E-01 8.58385E-28
6.99375E-01 8.34425E-28
7.03368E-01 8.11133E-28
7.07347E-01 7.88489E-28
7.11309E-01 7.66472E-28
7.15256E-01 7.45064E-28
7.19186E-01 7.24247E-28
7.23099E-01 7.04003E-28
7.26995E-01 6.84316E-28
7.30874E-01 6.65167E-28
7.34736E-01 6.46542E-28
7.38579E-01 6.28425E-28
7.42405E-01 6.10802E-28
7.46212E-01 5.93656E-28
7.50000E-01 5.76976E-28
7.53769E-01 5.60746E-28
7.57519E-01 5.44954E-28
7.61249E-01 5.29588E-28
7.64960E-01 5.14635E-28
7.68650E-01 5.00082E-28
7.72320E-01 4.85920E-28
7.75968E-01 4.72135E-28
7.79596E-01 4.58719E-28
7.83203E-01 4.45659E-28
7.86788E-01 4.32946E-28
7.90351E-01 4.20571E-28
7.93893E-01 4.08524E-28
7.97411E-01 3.96795E-28
8.00908E-01 3.85375E-28
8.04381E-01 3.74257E-28
8.07831E-01 3.63431E-28
8.11257E-01 3.52890E-28
8.14660E-01 3.42625E-28
8.18039E-01 3.32629E-28
8.21394E-01 3.22895E-28
8.24724E-01 3.13416E-28
8.28030E-01 3.04184E-28
8.31310E-01 2.95192E-28
8.34565E-01 2.86435E-28
8.37795E-01 2.77906E-28
8.40999E-01 2.69599E-28
8.44177E-01 2.61507E-28
8.47329E-01 2.53626E-28
8.50455E-01 2.45949E-28
8.53553E-01 2.38471E-28
8.56625E-01 2.31187E-28
8.59670E-01 2.24092E-28
8.62687E-01 2.17180E-28
8.65677E-01 2.10447E-28
8.68639E-01 2.03888E-28
8.71572E-01 1.97499E-28
8.74478E-01 1.91276E-28
8.77355E-01 1.85213E-28
8.80203E-01 1.79308E-28
8.83022E-01 1.73555E-28
8.85812E-01 1.67951E-28
8.88573E-01 1.62493E-28
8.91304E-01 1.57176E-28
8.94005E-01 1.51997E-28
8.96677E-01 1.46953E-28
8.99318E-01 1.42040E-28
9.01928E-01 1.37255E-28
9.04508E-01 1.32595E-28
9.07058E-01 1.28056E-28
9.09576E-01 1.23636E-28
9.12063E-01 1.19332E-28
9.14519E-01 1.15141E-28
9.16943E-01 1.11061E-28
9.19335E-01 1.07088E-28
9.21696E-01 1.03220E-28
9.24024E-01 9.94554E-29
9.26320E-01 9.57907E-29
9.28584E-01 9.22239E-29
9.30815E-01 8.87528E-29
9.33013E-01 8.53751E-29
9.35178E-01 8.20888E-29
9.37310E-01 7.88917E-29
9.39409E-01 7.57818E-29
9.41474E-01 7.27573E-29
9.43505E-01 6.98161E-29
9.45503E-01 6.69565E-29
9.47467E-01 6.41766E-29
9.49397E-01 6.14749E-29
9.51293E-01 5.88495E-29
9.53154E-01 5.62989E-29
9.54981E-01 5.38215E-29
9.56773E-01 5.14158E-29
9.58530E-01 4.90803E-29
9.60252E-01 4.68136E-29
9.61940E-01 4.46143E-29
9.63592E-01 4.24811E-29
9.65209E-01 4.04126E-29
9.66790E-01 3.84077E-29
9.68336E-01 3.64651E-29
9.69846E-01 3.45837E-29
9.71321E-01 3.27622E-29
9.72759E-01 3.09997E-29
9.74162E-01 2.92951E-29
9.75528E-01 2.76473E-29
9.76858E-01 2.60554E-29
9.78152E-01 2.45184E-29
9.79410E-01 2.30355E-29
9.80631E-01 2.16057E-29
9.81815E-01 2.02281E-29
9.82963E-01 1.89020E-29
9.84074E-01 1.76267E-29
9.85148E-01 1.64012E-29
9.86185E-01 1.52250E-29
9.87185E-01 1.40973E-29
9.88148E-01 1.30175E-29
9.89074E-01 1.19850E-29
9.89962E-01 1.09990E-29
9.90814E-01 1.00591E-29
9.91627E-01 9.16478E-30
9.92404E-01 8.31541E-30
9.93143E-01 7.51053E-30
9.93844E-01 6.74969E-30
9.94508E-01 6.03243E-30
9.95134E-01 5.35834E-30
9.95722E-01 4.72704E-30
9.96273E-01 4.13815E-30
9.96786E-01 3.59134E-30
9.97261E-01 3.08628E-30
9.97698E-01 2.62270E-30
9.98097E-01 2.20032E-30
9.98459E-01 1.81889E-30
9.98782E-01 1.47820E-30
9.99067E-01 1.17805E-30
9.99315E-01 9.18273E-31
9.99524E-01 6.98712E-31
9.99695E-01 5.19242E-31
9.99829E-01 3.79761E-31
9.99924E-01 2.80190E-31
9.99981E-01 2.20470E-31
1.00000E+00 2.00567E-31
