 #
 # Subroutine ELSEPA. Elastic scattering of electrons and positrons
 #                    by neutral atoms and positive ions
 #
 # Projectile: positron
 # Kinetic energy = 1.00000E+08 eV = 3.67493E+06 a.u.
 #
 # WARNING: High-energy factorization with free-atom DF screening.
 #          Absorption, polarization and exchange corrections are
 #          switched off.
 #          Phase shifts are calculated for the bare nucleus.
 #          Scattering amplitudes are not evaluated.
 #
 # Element: Br,  Z =  35,  atomic weight = 7.99040E+01 g/mol
 #
 # Nuclear model: Fermi distribution
 #                Average radius = 4.60865E-13 cm
 #                Skin thickness = 5.46000E-14 cm
 #
 # Number of electrons = 35
 #
 # Total elastic cross section = 2.71469E-18 cm**2 = 9.69435E-02 a0**2
 # 1st transport cross section = 2.39286E-25 cm**2 = 8.54505E-09 a0**2
 # 2nd transport cross section = 7.10739E-25 cm**2 = 2.53810E-08 a0**2
 #
 #
 # Differential cross section:                       MU=(1-COS(THETA))/2
 #
 #  THETA        MU          DCS          DCS        Sherman      error
 #  (deg)                 (cm**2/sr)   (a0**2/sr)    function
 #----------------------------------------------------------------------
0.00000E+00 1.89917E-10
7.61557E-13 1.89615E-10
1.18994E-12 1.89447E-10
1.71346E-12 1.89241E-10
2.33225E-12 1.88998E-10
3.04617E-12 1.88719E-10
3.85530E-12 1.88403E-10
4.75964E-12 1.88051E-10
5.75917E-12 1.87663E-10
6.85391E-12 1.87240E-10
8.04379E-12 1.86781E-10
9.32893E-12 1.86288E-10
1.07092E-11 1.85760E-10
1.21847E-11 1.85199E-10
1.37554E-11 1.84603E-10
1.54213E-11 1.83975E-10
1.71823E-11 1.83315E-10
1.90386E-11 1.82622E-10
2.09900E-11 1.81898E-10
2.30367E-11 1.81141E-10
2.51785E-11 1.80343E-10
2.74156E-11 1.79521E-10
2.97478E-11 1.78676E-10
3.21752E-11 1.77811E-10
3.46979E-11 1.76925E-10
3.73157E-11 1.75990E-10
4.00286E-11 1.75024E-10
4.28368E-11 1.74041E-10
4.57402E-11 1.73042E-10
4.87388E-11 1.72029E-10
5.18325E-11 1.70989E-10
5.50215E-11 1.69895E-10
5.83057E-11 1.68790E-10
6.16850E-11 1.67675E-10
6.51595E-11 1.66552E-10
6.87293E-11 1.65421E-10
7.23943E-11 1.64231E-10
7.61544E-11 1.63021E-10
1.18991E-10 1.50326E-10
1.71347E-10 1.36721E-10
2.33223E-10 1.22820E-10
3.04617E-10 1.09263E-10
3.85531E-10 9.64619E-11
4.75965E-10 8.46742E-11
5.75917E-10 7.40325E-11
6.85389E-10 6.45687E-11
8.04380E-10 5.62339E-11
9.32891E-10 4.89882E-11
1.07092E-09 4.27291E-11
1.21847E-09 3.73457E-11
1.37554E-09 3.27276E-11
1.54213E-09 2.87698E-11
1.71823E-09 2.53755E-11
1.90386E-09 2.24665E-11
2.09900E-09 1.99688E-11
2.30367E-09 1.78045E-11
2.51785E-09 1.58847E-11
2.74156E-09 1.42572E-11
2.97478E-09 1.28691E-11
3.21752E-09 1.16783E-11
3.46978E-09 1.06513E-11
3.73156E-09 9.70014E-12
4.00286E-09 8.85061E-12
4.28368E-09 8.11010E-12
4.57402E-09 7.46168E-12
4.87388E-09 6.89145E-12
5.18326E-09 6.37572E-12
5.50215E-09 5.88399E-12
5.83057E-09 5.44815E-12
6.16850E-09 5.06046E-12
6.51596E-09 4.71442E-12
6.87293E-09 4.40455E-12
7.23942E-09 4.10179E-12
7.61544E-09 3.82357E-12
1.18991E-08 2.03645E-12
1.71347E-08 1.15540E-12
2.33223E-08 6.86901E-13
3.04617E-08 4.28309E-13
3.85531E-08 2.79294E-13
4.75965E-08 1.89732E-13
5.75917E-08 1.33648E-13
6.85389E-08 9.70819E-14
8.04380E-08 7.24103E-14
9.32891E-08 5.52232E-14
1.07092E-07 4.29027E-14
1.21847E-07 3.38556E-14
1.37554E-07 2.70785E-14
1.54213E-07 2.19145E-14
1.71823E-07 1.79189E-14
1.90386E-07 1.47875E-14
2.09900E-07 1.23048E-14
2.30367E-07 1.03146E-14
2.51785E-07 8.70317E-15
2.74156E-07 7.40136E-15
2.97478E-07 6.32351E-15
3.21752E-07 5.43809E-15
3.46978E-07 4.69839E-15
3.73156E-07 4.08069E-15
4.00286E-07 3.56017E-15
4.28368E-07 3.11972E-15
4.57402E-07 2.74522E-15
4.87388E-07 2.42475E-15
5.18325E-07 2.14995E-15
5.50215E-07 1.91261E-15
5.83057E-07 1.70743E-15
6.16850E-07 1.52874E-15
6.51596E-07 1.37305E-15
6.87293E-07 1.23655E-15
7.23942E-07 1.11671E-15
7.61543E-07 1.01102E-15
1.18991E-06 4.20743E-16
1.71347E-06 2.05386E-16
2.33223E-06 1.11893E-16
3.04617E-06 6.60417E-17
3.85531E-06 4.14401E-17
4.75964E-06 2.72915E-17
5.75916E-06 1.86928E-17
6.85388E-06 1.32263E-17
8.04378E-06 9.61788E-18
9.32888E-06 7.15926E-18
1.07092E-05 5.43775E-18
1.21846E-05 4.20354E-18
1.37553E-05 3.30020E-18
1.54212E-05 2.62682E-18
1.71822E-05 2.11664E-18
1.90385E-05 1.72422E-18
2.09899E-05 1.41903E-18
2.30365E-05 1.17839E-18
2.51783E-05 9.86561E-19
2.74153E-05 8.32142E-19
2.97475E-05 7.06739E-19
3.21749E-05 6.04077E-19
3.46974E-05 5.19402E-19
3.73152E-05 4.49070E-19
4.00281E-05 3.90259E-19
4.28362E-05 3.40770E-19
4.57395E-05 2.98880E-19
4.87380E-05 2.63225E-19
5.18317E-05 2.32722E-19
5.50205E-05 2.06506E-19
5.83045E-05 1.83876E-19
6.16838E-05 1.64261E-19
6.51582E-05 1.47194E-19
6.87277E-05 1.32289E-19
7.23925E-05 1.19223E-19
7.61524E-05 1.07743E-19
9.21439E-05 7.35582E-20
1.09658E-04 5.19114E-20
1.28695E-04 3.76716E-20
1.49255E-04 2.79927E-20
1.71338E-04 2.12311E-20
1.94942E-04 1.63918E-20
2.20070E-04 1.28551E-20
2.46720E-04 1.02223E-20
2.74892E-04 8.22966E-21
3.04586E-04 6.69941E-21
3.35803E-04 5.50850E-21
3.68542E-04 4.57060E-21
4.02802E-04 3.82387E-21
4.38585E-04 3.22342E-21
4.75889E-04 2.73621E-21
5.14715E-04 2.33754E-21
5.55063E-04 2.00881E-21
5.96931E-04 1.73581E-21
6.40321E-04 1.50757E-21
6.85233E-04 1.31559E-21
7.31665E-04 1.15316E-21
7.79618E-04 1.01500E-21
8.29092E-04 8.96889E-22
8.80086E-04 7.95433E-22
9.32601E-04 7.07898E-22
9.86636E-04 6.32054E-22
1.04219E-03 5.66075E-22
1.09927E-03 5.08466E-22
1.15786E-03 4.57987E-22
1.21797E-03 4.13601E-22
1.27961E-03 3.74450E-22
1.34276E-03 3.39812E-22
1.40743E-03 3.09076E-22
1.47362E-03 2.81727E-22
1.54133E-03 2.57328E-22
1.61056E-03 2.35505E-22
1.68131E-03 2.15940E-22
1.75357E-03 1.98358E-22
1.82735E-03 1.82523E-22
1.90265E-03 1.68232E-22
1.97947E-03 1.55306E-22
2.05780E-03 1.43594E-22
2.13765E-03 1.32961E-22
2.21902E-03 1.23290E-22
2.30190E-03 1.14478E-22
2.38630E-03 1.06436E-22
2.47222E-03 9.90853E-23
2.55965E-03 9.23550E-23
2.64859E-03 8.61838E-23
2.73905E-03 8.05169E-23
2.83103E-03 7.53058E-23
2.92452E-03 7.05072E-23
3.01952E-03 6.60828E-23
3.11604E-03 6.19980E-23
3.21407E-03 5.82223E-23
3.31362E-03 5.47279E-23
3.41468E-03 5.14902E-23
3.51725E-03 4.84869E-23
3.62133E-03 4.56980E-23
3.72692E-03 4.31054E-23
3.83403E-03 4.06929E-23
3.94265E-03 3.84456E-23
4.05278E-03 3.63503E-23
4.16442E-03 3.43947E-23
4.27757E-03 3.25679E-23
4.39223E-03 3.08599E-23
4.50840E-03 2.92615E-23
4.62608E-03 2.77644E-23
4.74527E-03 2.63611E-23
4.86597E-03 2.50446E-23
4.98817E-03 2.38086E-23
5.11188E-03 2.26472E-23
5.23711E-03 2.15552E-23
5.36383E-03 2.05276E-23
5.49207E-03 1.95599E-23
5.62181E-03 1.86481E-23
5.75306E-03 1.77882E-23
5.88581E-03 1.69769E-23
6.02007E-03 1.62108E-23
6.15583E-03 1.54870E-23
6.29310E-03 1.48028E-23
6.43187E-03 1.41555E-23
6.57214E-03 1.35428E-23
6.71392E-03 1.29626E-23
6.85720E-03 1.24127E-23
7.00198E-03 1.18914E-23
7.14827E-03 1.13968E-23
7.29605E-03 1.09274E-23
7.44534E-03 1.04816E-23
7.59612E-03 1.00580E-23
7.97965E-03 9.08788E-24
8.37255E-03 8.23056E-24
8.77480E-03 7.47073E-24
9.18641E-03 6.79544E-24
9.60736E-03 6.19372E-24
1.00376E-02 5.65620E-24
1.04773E-02 5.17488E-24
1.09262E-02 4.74290E-24
1.13844E-02 4.35435E-24
1.18520E-02 4.00413E-24
1.23288E-02 3.68781E-24
1.28150E-02 3.40156E-24
1.33104E-02 3.14204E-24
1.38150E-02 2.90634E-24
1.43290E-02 2.69189E-24
1.48521E-02 2.49645E-24
1.53845E-02 2.31806E-24
1.59262E-02 2.15498E-24
1.64770E-02 2.00566E-24
1.70371E-02 1.86876E-24
1.76063E-02 1.74307E-24
1.81848E-02 1.62750E-24
1.87724E-02 1.52112E-24
1.93692E-02 1.42306E-24
1.99751E-02 1.33257E-24
2.05901E-02 1.24896E-24
2.12143E-02 1.17162E-24
2.18476E-02 1.10000E-24
2.24900E-02 1.03361E-24
2.31415E-02 9.71997E-25
2.38021E-02 9.14767E-25
2.44717E-02 8.61553E-25
2.51504E-02 8.12026E-25
2.58382E-02 7.65888E-25
2.65349E-02 7.22869E-25
2.72407E-02 6.82721E-25
2.79555E-02 6.45223E-25
2.86793E-02 6.10170E-25
2.94120E-02 5.77375E-25
3.01537E-02 5.46670E-25
3.09043E-02 5.17900E-25
3.16639E-02 4.90922E-25
3.24324E-02 4.65606E-25
3.32098E-02 4.41833E-25
3.39961E-02 4.19494E-25
3.47912E-02 3.98488E-25
3.55952E-02 3.78723E-25
3.64081E-02 3.60113E-25
3.72297E-02 3.42580E-25
3.80602E-02 3.26051E-25
3.88995E-02 3.10460E-25
3.97476E-02 2.95744E-25
4.06044E-02 2.81848E-25
4.14700E-02 2.68717E-25
4.23443E-02 2.56303E-25
4.32273E-02 2.44561E-25
4.41190E-02 2.33448E-25
4.50194E-02 2.22925E-25
4.59284E-02 2.12956E-25
4.68461E-02 2.03508E-25
4.87074E-02 1.86049E-25
5.06030E-02 1.70320E-25
5.25328E-02 1.56127E-25
5.44967E-02 1.43296E-25
5.64946E-02 1.31678E-25
5.85262E-02 1.21142E-25
6.05914E-02 1.11573E-25
6.26901E-02 1.02869E-25
6.48222E-02 9.49417E-26
6.69873E-02 8.77115E-26
6.91854E-02 8.11087E-26
7.14163E-02 7.50714E-26
7.36799E-02 6.95444E-26
7.59760E-02 6.44789E-26
7.83043E-02 5.98310E-26
8.06647E-02 5.55618E-26
8.30571E-02 5.16363E-26
8.54812E-02 4.80232E-26
8.79369E-02 4.46944E-26
9.04240E-02 4.16247E-26
9.29422E-02 3.87913E-26
9.54915E-02 3.61738E-26
9.80716E-02 3.37536E-26
1.00682E-01 3.15139E-26
1.03323E-01 2.94398E-26
1.05995E-01 2.75175E-26
1.08696E-01 2.57345E-26
1.11427E-01 2.40795E-26
1.14188E-01 2.25422E-26
1.16978E-01 2.11134E-26
1.19797E-01 1.97845E-26
1.22645E-01 1.85477E-26
1.25522E-01 1.73959E-26
1.28428E-01 1.63227E-26
1.31361E-01 1.53220E-26
1.34323E-01 1.43884E-26
1.37313E-01 1.35171E-26
1.40330E-01 1.27033E-26
1.43375E-01 1.19429E-26
1.46447E-01 1.12320E-26
1.49545E-01 1.05671E-26
1.52671E-01 9.94489E-27
1.55823E-01 9.36238E-27
1.59001E-01 8.81679E-27
1.62205E-01 8.30555E-27
1.65435E-01 7.82629E-27
1.68690E-01 7.37682E-27
1.71970E-01 6.95514E-27
1.75276E-01 6.55936E-27
1.78606E-01 6.18774E-27
1.81961E-01 5.83870E-27
1.85340E-01 5.51073E-27
1.88743E-01 5.20246E-27
1.92169E-01 4.91261E-27
1.95619E-01 4.63998E-27
1.99092E-01 4.38347E-27
2.02589E-01 4.14204E-27
2.06107E-01 3.91475E-27
2.09649E-01 3.70070E-27
2.13212E-01 3.49907E-27
2.16797E-01 3.30906E-27
2.20404E-01 3.12998E-27
2.24032E-01 2.96114E-27
2.27680E-01 2.80192E-27
2.31350E-01 2.65173E-27
2.35040E-01 2.51002E-27
2.38751E-01 2.37629E-27
2.42481E-01 2.25004E-27
2.46231E-01 2.13085E-27
2.50000E-01 2.01828E-27
2.53788E-01 1.91195E-27
2.57595E-01 1.81149E-27
2.61421E-01 1.71656E-27
2.65264E-01 1.62683E-27
2.69126E-01 1.54200E-27
2.73005E-01 1.46179E-27
2.76901E-01 1.38593E-27
2.80814E-01 1.31418E-27
2.84744E-01 1.24629E-27
2.88691E-01 1.18206E-27
2.92653E-01 1.12127E-27
2.96632E-01 1.06373E-27
3.00625E-01 1.00925E-27
3.04634E-01 9.57672E-28
3.08658E-01 9.08826E-28
3.12697E-01 8.62563E-28
3.16749E-01 8.18739E-28
3.20816E-01 7.77220E-28
3.24896E-01 7.37878E-28
3.28990E-01 7.00595E-28
3.33097E-01 6.65259E-28
3.37216E-01 6.31762E-28
3.41348E-01 6.00007E-28
3.45492E-01 5.69897E-28
3.49647E-01 5.41345E-28
3.53814E-01 5.14267E-28
3.57992E-01 4.88584E-28
3.62181E-01 4.64220E-28
3.66381E-01 4.41107E-28
3.70590E-01 4.19177E-28
3.74810E-01 3.98367E-28
3.79039E-01 3.78618E-28
3.83277E-01 3.59875E-28
3.87524E-01 3.42084E-28
3.91780E-01 3.25196E-28
3.96044E-01 3.09162E-28
4.00316E-01 2.93939E-28
4.04596E-01 2.79484E-28
4.08882E-01 2.65757E-28
4.13176E-01 2.52720E-28
4.17476E-01 2.40338E-28
4.21783E-01 2.28577E-28
4.26095E-01 2.17404E-28
4.30413E-01 2.06790E-28
4.34737E-01 1.96706E-28
4.39065E-01 1.87124E-28
4.43398E-01 1.78019E-28
4.47736E-01 1.69366E-28
4.52077E-01 1.61143E-28
4.56422E-01 1.53328E-28
4.60770E-01 1.45899E-28
4.65122E-01 1.38837E-28
4.69476E-01 1.32124E-28
4.73832E-01 1.25742E-28
4.78190E-01 1.19674E-28
4.82550E-01 1.13905E-28
4.86912E-01 1.08419E-28
4.91274E-01 1.03202E-28
4.95637E-01 9.82413E-29
5.00000E-01 9.35231E-29
5.04363E-01 8.90357E-29
5.08726E-01 8.47674E-29
5.13088E-01 8.07074E-29
5.17450E-01 7.68453E-29
5.21810E-01 7.31712E-29
5.26168E-01 6.96759E-29
5.30524E-01 6.63503E-29
5.34878E-01 6.31862E-29
5.39230E-01 6.01756E-29
5.43578E-01 5.73107E-29
5.47923E-01 5.45845E-29
5.52264E-01 5.19901E-29
5.56602E-01 4.95211E-29
5.60935E-01 4.71712E-29
5.65263E-01 4.49346E-29
5.69587E-01 4.28057E-29
5.73905E-01 4.07792E-29
5.78217E-01 3.88502E-29
5.82524E-01 3.70139E-29
5.86824E-01 3.52657E-29
5.91118E-01 3.36014E-29
5.95404E-01 3.20167E-29
5.99684E-01 3.05080E-29
6.03956E-01 2.90714E-29
6.08220E-01 2.77034E-29
6.12476E-01 2.64008E-29
6.16723E-01 2.51603E-29
6.20961E-01 2.39790E-29
6.25190E-01 2.28539E-29
6.29410E-01 2.17824E-29
6.33619E-01 2.07618E-29
6.37819E-01 1.97897E-29
6.42008E-01 1.88638E-29
6.46186E-01 1.79818E-29
6.50353E-01 1.71416E-29
6.54508E-01 1.63412E-29
6.58652E-01 1.55786E-29
6.62784E-01 1.48522E-29
6.66903E-01 1.41600E-29
6.71010E-01 1.35006E-29
6.75104E-01 1.28722E-29
6.79184E-01 1.22735E-29
6.83251E-01 1.17030E-29
6.87303E-01 1.11593E-29
6.91342E-01 1.06412E-29
6.95366E-01 1.01475E-29
6.99375E-01 9.67690E-30
7.03368E-01 9.22842E-30
7.07347E-01 8.80096E-30
7.11309E-01 8.39353E-30
7.15256E-01 8.00518E-30
7.19186E-01 7.63499E-30
7.23099E-01 7.28211E-30
7.26995E-01 6.94571E-30
7.30874E-01 6.62501E-30
7.34736E-01 6.31927E-30
7.38579E-01 6.02777E-30
7.42405E-01 5.74985E-30
7.46212E-01 5.48486E-30
7.50000E-01 5.23219E-30
7.53769E-01 4.99125E-30
7.57519E-01 4.76150E-30
7.61249E-01 4.54241E-30
7.64960E-01 4.33348E-30
7.68650E-01 4.13422E-30
7.72320E-01 3.94418E-30
7.75968E-01 3.76292E-30
7.79596E-01 3.59005E-30
7.83203E-01 3.42515E-30
7.86788E-01 3.26786E-30
7.90351E-01 3.11782E-30
7.93893E-01 2.97469E-30
7.97411E-01 2.83815E-30
8.00908E-01 2.70789E-30
8.04381E-01 2.58361E-30
8.07831E-01 2.46504E-30
8.11257E-01 2.35191E-30
8.14660E-01 2.24396E-30
8.18039E-01 2.14096E-30
8.21394E-01 2.04267E-30
8.24724E-01 1.94888E-30
8.28030E-01 1.85937E-30
8.31310E-01 1.77395E-30
8.34565E-01 1.69242E-30
8.37795E-01 1.61461E-30
8.40999E-01 1.54034E-30
8.44177E-01 1.46946E-30
8.47329E-01 1.40179E-30
8.50455E-01 1.33720E-30
8.53553E-01 1.27555E-30
8.56625E-01 1.21668E-30
8.59670E-01 1.16049E-30
8.62687E-01 1.10684E-30
8.65677E-01 1.05562E-30
8.68639E-01 1.00671E-30
8.71572E-01 9.60013E-31
8.74478E-01 9.15424E-31
8.77355E-01 8.72845E-31
8.80203E-01 8.32185E-31
8.83022E-01 7.93357E-31
8.85812E-01 7.56275E-31
8.88573E-01 7.20860E-31
8.91304E-01 6.87037E-31
8.94005E-01 6.54732E-31
8.96677E-01 6.23876E-31
8.99318E-01 5.94404E-31
9.01928E-01 5.66252E-31
9.04508E-01 5.39360E-31
9.07058E-01 5.13672E-31
9.09576E-01 4.89132E-31
9.12063E-01 4.65688E-31
9.14519E-01 4.43292E-31
9.16943E-01 4.21895E-31
9.19335E-01 4.01453E-31
9.21696E-01 3.81923E-31
9.24024E-01 3.63263E-31
9.26320E-01 3.45435E-31
9.28584E-01 3.28401E-31
9.30815E-01 3.12125E-31
9.33013E-01 2.96574E-31
9.35178E-01 2.81716E-31
9.37310E-01 2.67519E-31
9.39409E-01 2.53955E-31
9.41474E-01 2.40994E-31
9.43505E-01 2.28611E-31
9.45503E-01 2.16780E-31
9.47467E-01 2.05476E-31
9.49397E-01 1.94676E-31
9.51293E-01 1.84359E-31
9.53154E-01 1.74503E-31
9.54981E-01 1.65088E-31
9.56773E-01 1.56095E-31
9.58530E-01 1.47505E-31
9.60252E-01 1.39302E-31
9.61940E-01 1.31468E-31
9.63592E-01 1.23988E-31
9.65209E-01 1.16846E-31
9.66790E-01 1.10029E-31
9.68336E-01 1.03522E-31
9.69846E-01 9.73134E-32
9.71321E-01 9.13895E-32
9.72759E-01 8.57390E-32
9.74162E-01 8.03505E-32
9.75528E-01 7.52133E-32
9.76858E-01 7.03172E-32
9.78152E-01 6.56526E-32
9.79410E-01 6.12101E-32
9.80631E-01 5.69811E-32
9.81815E-01 5.29572E-32
9.82963E-01 4.91304E-32
9.84074E-01 4.54932E-32
9.85148E-01 4.20386E-32
9.86185E-01 3.87598E-32
9.87185E-01 3.56502E-32
9.88148E-01 3.27040E-32
9.89074E-01 2.99152E-32
9.89962E-01 2.72785E-32
9.90814E-01 2.47888E-32
9.91627E-01 2.24413E-32
9.92404E-01 2.02313E-32
9.93143E-01 1.81547E-32
9.93844E-01 1.62074E-32
9.94508E-01 1.43856E-32
9.95134E-01 1.26858E-32
9.95722E-01 1.11048E-32
9.96273E-01 9.63953E-33
9.96786E-01 8.28713E-33
9.97261E-01 7.04505E-33
9.97698E-01 5.91090E-33
9.98097E-01 4.88251E-33
9.98459E-01 3.95786E-33
9.98782E-01 3.13525E-33
9.99067E-01 2.41306E-33
9.99315E-01 1.78994E-33
9.99524E-01 1.26468E-33
9.99695E-01 8.36273E-34
9.99829E-01 5.03912E-34
9.99924E-01 2.66971E-34
9.99981E-01 1.24990E-34
1.00000E+00 7.76872E-35
