 #
 # Subroutine ELSEPA. Elastic scattering of electrons and positrons
 #                    by neutral atoms and positive ions
 #
 # Projectile: positron
 # Kinetic energy = 5.00000E+06 eV = 1.83747E+05 a.u.
 #
 # WARNING: High-energy factorization with free-atom DF screening.
 #          Absorption, polarization and exchange corrections are
 #          switched off.
 #          Phase shifts are calculated for the bare nucleus.
 #          Scattering amplitudes are not evaluated.
 #
 # Element: Br,  Z =  35,  atomic weight = 7.99040E+01 g/mol
 #
 # Nuclear model: Fermi distribution
 #                Average radius = 4.60865E-13 cm
 #                Skin thickness = 5.46000E-14 cm
 #
 # Number of electrons = 35
 #
 # Total elastic cross section = 2.74090E-18 cm**2 = 9.78793E-02 a0**2
 # 1st transport cross section = 5.55295E-23 cm**2 = 1.98299E-06 a0**2
 # 2nd transport cross section = 1.59923E-22 cm**2 = 5.71096E-06 a0**2
 #
 #
 # Differential cross section:                       MU=(1-COS(THETA))/2
 #
 #  THETA        MU          DCS          DCS        Sherman      error
 #  (deg)                 (cm**2/sr)   (a0**2/sr)    function
 #----------------------------------------------------------------------
0.00000E+00 5.70949E-13
7.61557E-13 5.70946E-13
1.18994E-12 5.70944E-13
1.71346E-12 5.70942E-13
2.33225E-12 5.70940E-13
3.04617E-12 5.70937E-13
3.85530E-12 5.70934E-13
4.75964E-12 5.70931E-13
5.75917E-12 5.70927E-13
6.85391E-12 5.70923E-13
8.04379E-12 5.70919E-13
9.32893E-12 5.70914E-13
1.07092E-11 5.70909E-13
1.21847E-11 5.70904E-13
1.37554E-11 5.70898E-13
1.54213E-11 5.70892E-13
1.71823E-11 5.70885E-13
1.90386E-11 5.70879E-13
2.09900E-11 5.70872E-13
2.30367E-11 5.70864E-13
2.51785E-11 5.70857E-13
2.74156E-11 5.70848E-13
2.97478E-11 5.70840E-13
3.21752E-11 5.70831E-13
3.46979E-11 5.70822E-13
3.73157E-11 5.70813E-13
4.00286E-11 5.70803E-13
4.28368E-11 5.70793E-13
4.57402E-11 5.70783E-13
4.87388E-11 5.70772E-13
5.18325E-11 5.70761E-13
5.50215E-11 5.70750E-13
5.83057E-11 5.70738E-13
6.16850E-11 5.70726E-13
6.51595E-11 5.70713E-13
6.87293E-11 5.70701E-13
7.23943E-11 5.70687E-13
7.61544E-11 5.70674E-13
1.18991E-10 5.70521E-13
1.71347E-10 5.70335E-13
2.33223E-10 5.70116E-13
3.04617E-10 5.69863E-13
3.85531E-10 5.69577E-13
4.75965E-10 5.69257E-13
5.75917E-10 5.68905E-13
6.85389E-10 5.68519E-13
8.04380E-10 5.68101E-13
9.32891E-10 5.67649E-13
1.07092E-09 5.67165E-13
1.21847E-09 5.66648E-13
1.37554E-09 5.66099E-13
1.54213E-09 5.65517E-13
1.71823E-09 5.64904E-13
1.90386E-09 5.64258E-13
2.09900E-09 5.63580E-13
2.30367E-09 5.62871E-13
2.51785E-09 5.62130E-13
2.74156E-09 5.61357E-13
2.97478E-09 5.60554E-13
3.21752E-09 5.59720E-13
3.46978E-09 5.58855E-13
3.73156E-09 5.57959E-13
4.00286E-09 5.57033E-13
4.28368E-09 5.56077E-13
4.57402E-09 5.55091E-13
4.87388E-09 5.54076E-13
5.18326E-09 5.53031E-13
5.50215E-09 5.51957E-13
5.83057E-09 5.50855E-13
6.16850E-09 5.49724E-13
6.51596E-09 5.48564E-13
6.87293E-09 5.47377E-13
7.23942E-09 5.46161E-13
7.61544E-09 5.44919E-13
1.18991E-08 5.31053E-13
1.71347E-08 5.14802E-13
2.33223E-08 4.96524E-13
3.04617E-08 4.76600E-13
3.85531E-08 4.55415E-13
4.75965E-08 4.33346E-13
5.75917E-08 4.10751E-13
6.85389E-08 3.87956E-13
8.04380E-08 3.65252E-13
9.32891E-08 3.42893E-13
1.07092E-07 3.21087E-13
1.21847E-07 3.00005E-13
1.37554E-07 2.79778E-13
1.54213E-07 2.60500E-13
1.71823E-07 2.42236E-13
1.90386E-07 2.25022E-13
2.09900E-07 2.08871E-13
2.30367E-07 1.93776E-13
2.51785E-07 1.79717E-13
2.74156E-07 1.66660E-13
2.97478E-07 1.54565E-13
3.21752E-07 1.43383E-13
3.46978E-07 1.33063E-13
3.73156E-07 1.23552E-13
4.00286E-07 1.14796E-13
4.28368E-07 1.06742E-13
4.57402E-07 9.93370E-14
4.87388E-07 9.25314E-14
5.18325E-07 8.62777E-14
5.50215E-07 8.05307E-14
5.83057E-07 7.52483E-14
6.16850E-07 7.03913E-14
6.51596E-07 6.59231E-14
6.87293E-07 6.18103E-14
7.23942E-07 5.80219E-14
7.61543E-07 5.45294E-14
1.18991E-06 3.11652E-14
1.71347E-06 1.95402E-14
2.33223E-06 1.30410E-14
3.04617E-06 9.05498E-15
3.85531E-06 6.45297E-15
4.75964E-06 4.68702E-15
5.75916E-06 3.45874E-15
6.85388E-06 2.58980E-15
8.04378E-06 1.96672E-15
9.32888E-06 1.51440E-15
1.07092E-05 1.18207E-15
1.21846E-05 9.34896E-16
1.37553E-05 7.48776E-16
1.54212E-05 6.06875E-16
1.71822E-05 4.97346E-16
1.90385E-05 4.11771E-16
2.09899E-05 3.44148E-16
2.30365E-05 2.90110E-16
2.51783E-05 2.46475E-16
2.74153E-05 2.10894E-16
2.97475E-05 1.81617E-16
3.21749E-05 1.57324E-16
3.46974E-05 1.37010E-16
3.73152E-05 1.19902E-16
4.00281E-05 1.05401E-16
4.28362E-05 9.30348E-17
4.57395E-05 8.24320E-17
4.87380E-05 7.32952E-17
5.18317E-05 6.53849E-17
5.50205E-05 5.85073E-17
5.83045E-05 5.25038E-17
6.16838E-05 4.72440E-17
6.51582E-05 4.26200E-17
6.87277E-05 3.85420E-17
7.23925E-05 3.49346E-17
7.61524E-05 3.17345E-17
9.21439E-05 2.20486E-17
1.09658E-04 1.57632E-17
1.28695E-04 1.15516E-17
1.49255E-04 8.65024E-18
1.71338E-04 6.60220E-18
1.94942E-04 5.12483E-18
2.20070E-04 4.03825E-18
2.46720E-04 3.22503E-18
2.74892E-04 2.60676E-18
3.04586E-04 2.12997E-18
3.35803E-04 1.75751E-18
3.68542E-04 1.46313E-18
4.02802E-04 1.22796E-18
4.38585E-04 1.03824E-18
4.75889E-04 8.83818E-19
5.14715E-04 7.57081E-19
5.55063E-04 6.52273E-19
5.96931E-04 5.64988E-19
6.40321E-04 4.91821E-19
6.85233E-04 4.30116E-19
7.31665E-04 3.77782E-19
7.79618E-04 3.33161E-19
8.29092E-04 2.94927E-19
8.80086E-04 2.62015E-19
9.32601E-04 2.33560E-19
9.86636E-04 2.08857E-19
1.04219E-03 1.87327E-19
1.09927E-03 1.68495E-19
1.15786E-03 1.51965E-19
1.21797E-03 1.37408E-19
1.27961E-03 1.24548E-19
1.34276E-03 1.13153E-19
1.40743E-03 1.03029E-19
1.47362E-03 9.40079E-20
1.54133E-03 8.59501E-20
1.61056E-03 7.87347E-20
1.68131E-03 7.22583E-20
1.75357E-03 6.64321E-20
1.82735E-03 6.11794E-20
1.90265E-03 5.64340E-20
1.97947E-03 5.21384E-20
2.05780E-03 4.82423E-20
2.13765E-03 4.47022E-20
2.21902E-03 4.14798E-20
2.30190E-03 3.85415E-20
2.38630E-03 3.58579E-20
2.47222E-03 3.34031E-20
2.55965E-03 3.11539E-20
2.64859E-03 2.90903E-20
2.73905E-03 2.71941E-20
2.83103E-03 2.54493E-20
2.92452E-03 2.38417E-20
3.01952E-03 2.23586E-20
3.11604E-03 2.09886E-20
3.21407E-03 1.97215E-20
3.31362E-03 1.85483E-20
3.41468E-03 1.74607E-20
3.51725E-03 1.64513E-20
3.62133E-03 1.55136E-20
3.72692E-03 1.46414E-20
3.83403E-03 1.38295E-20
3.94265E-03 1.30728E-20
4.05278E-03 1.23670E-20
4.16442E-03 1.17080E-20
4.27757E-03 1.10921E-20
4.39223E-03 1.05160E-20
4.50840E-03 9.97674E-21
4.62608E-03 9.47143E-21
4.74527E-03 8.99758E-21
4.86597E-03 8.55286E-21
4.98817E-03 8.13518E-21
5.11188E-03 7.74257E-21
5.23711E-03 7.37326E-21
5.36383E-03 7.02562E-21
5.49207E-03 6.69814E-21
5.62181E-03 6.38944E-21
5.75306E-03 6.09824E-21
5.88581E-03 5.82337E-21
6.02007E-03 5.56375E-21
6.15583E-03 5.31837E-21
6.29310E-03 5.08631E-21
6.43187E-03 4.86671E-21
6.57214E-03 4.65878E-21
6.71392E-03 4.46179E-21
6.85720E-03 4.27506E-21
7.00198E-03 4.09794E-21
7.14827E-03 3.92986E-21
7.29605E-03 3.77028E-21
7.44534E-03 3.61867E-21
7.59612E-03 3.47457E-21
7.97965E-03 3.14435E-21
8.37255E-03 2.85227E-21
8.77480E-03 2.59317E-21
9.18641E-03 2.36271E-21
9.60736E-03 2.15716E-21
1.00376E-02 1.97338E-21
1.04773E-02 1.80867E-21
1.09262E-02 1.66070E-21
1.13844E-02 1.52749E-21
1.18520E-02 1.40729E-21
1.23288E-02 1.29863E-21
1.28150E-02 1.20020E-21
1.33104E-02 1.11087E-21
1.38150E-02 1.02966E-21
1.43290E-02 9.55687E-22
1.48521E-02 8.88203E-22
1.53845E-02 8.26538E-22
1.59262E-02 7.70100E-22
1.64770E-02 7.18370E-22
1.70371E-02 6.70884E-22
1.76063E-02 6.27234E-22
1.81848E-02 5.87054E-22
1.87724E-02 5.50020E-22
1.93692E-02 5.15842E-22
1.99751E-02 4.84260E-22
2.05901E-02 4.55043E-22
2.12143E-02 4.27981E-22
2.18476E-02 4.02887E-22
2.24900E-02 3.79593E-22
2.31415E-02 3.57946E-22
2.38021E-02 3.37810E-22
2.44717E-02 3.19059E-22
2.51504E-02 3.01582E-22
2.58382E-02 2.85276E-22
2.65349E-02 2.70049E-22
2.72407E-02 2.55817E-22
2.79555E-02 2.42503E-22
2.86793E-02 2.30037E-22
2.94120E-02 2.18355E-22
3.01537E-02 2.07400E-22
3.09043E-02 1.97117E-22
3.16639E-02 1.87458E-22
3.24324E-02 1.78379E-22
3.32098E-02 1.69838E-22
3.39961E-02 1.61798E-22
3.47912E-02 1.54224E-22
3.55952E-02 1.47084E-22
3.64081E-02 1.40349E-22
3.72297E-02 1.33991E-22
3.80602E-02 1.27986E-22
3.88995E-02 1.22311E-22
3.97476E-02 1.16943E-22
4.06044E-02 1.11864E-22
4.14700E-02 1.07055E-22
4.23443E-02 1.02500E-22
4.32273E-02 9.81813E-23
4.41190E-02 9.40857E-23
4.50194E-02 9.01994E-23
4.59284E-02 8.65095E-23
4.68461E-02 8.30045E-23
4.87074E-02 7.65058E-23
5.06030E-02 7.06244E-23
5.25328E-02 6.52917E-23
5.44967E-02 6.04476E-23
5.64946E-02 5.60397E-23
5.85262E-02 5.20219E-23
6.05914E-02 4.83538E-23
6.26901E-02 4.49996E-23
6.48222E-02 4.19278E-23
6.69873E-02 3.91106E-23
6.91854E-02 3.65231E-23
7.14163E-02 3.41435E-23
7.36799E-02 3.19520E-23
7.59760E-02 2.99313E-23
7.83043E-02 2.80657E-23
8.06647E-02 2.63412E-23
8.30571E-02 2.47454E-23
8.54812E-02 2.32668E-23
8.79369E-02 2.18955E-23
9.04240E-02 2.06222E-23
9.29422E-02 1.94388E-23
9.54915E-02 1.83377E-23
9.80716E-02 1.73123E-23
1.00682E-01 1.63564E-23
1.03323E-01 1.54645E-23
1.05995E-01 1.46316E-23
1.08696E-01 1.38531E-23
1.11427E-01 1.31247E-23
1.14188E-01 1.24428E-23
1.16978E-01 1.18038E-23
1.19797E-01 1.12045E-23
1.22645E-01 1.06421E-23
1.25522E-01 1.01139E-23
1.28428E-01 9.61743E-24
1.31361E-01 9.15044E-24
1.34323E-01 8.71088E-24
1.37313E-01 8.29686E-24
1.40330E-01 7.90663E-24
1.43375E-01 7.53860E-24
1.46447E-01 7.19128E-24
1.49545E-01 6.86330E-24
1.52671E-01 6.55338E-24
1.55823E-01 6.26035E-24
1.59001E-01 5.98314E-24
1.62205E-01 5.72075E-24
1.65435E-01 5.47224E-24
1.68690E-01 5.23675E-24
1.71970E-01 5.01348E-24
1.75276E-01 4.80168E-24
1.78606E-01 4.60065E-24
1.81961E-01 4.40976E-24
1.85340E-01 4.22840E-24
1.88743E-01 4.05602E-24
1.92169E-01 3.89209E-24
1.95619E-01 3.73612E-24
1.99092E-01 3.58767E-24
2.02589E-01 3.44630E-24
2.06107E-01 3.31161E-24
2.09649E-01 3.18325E-24
2.13212E-01 3.06085E-24
2.16797E-01 2.94410E-24
2.20404E-01 2.83268E-24
2.24032E-01 2.72631E-24
2.27680E-01 2.62472E-24
2.31350E-01 2.52766E-24
2.35040E-01 2.43489E-24
2.38751E-01 2.34619E-24
2.42481E-01 2.26135E-24
2.46231E-01 2.18018E-24
2.50000E-01 2.10247E-24
2.53788E-01 2.02807E-24
2.57595E-01 1.95681E-24
2.61421E-01 1.88853E-24
2.65264E-01 1.82308E-24
2.69126E-01 1.76033E-24
2.73005E-01 1.70015E-24
2.76901E-01 1.64241E-24
2.80814E-01 1.58700E-24
2.84744E-01 1.53380E-24
2.88691E-01 1.48272E-24
2.92653E-01 1.43365E-24
2.96632E-01 1.38651E-24
3.00625E-01 1.34120E-24
3.04634E-01 1.29764E-24
3.08658E-01 1.25574E-24
3.12697E-01 1.21544E-24
3.16749E-01 1.17667E-24
3.20816E-01 1.13935E-24
3.24896E-01 1.10343E-24
3.28990E-01 1.06884E-24
3.33097E-01 1.03552E-24
3.37216E-01 1.00342E-24
3.41348E-01 9.72485E-25
3.45492E-01 9.42664E-25
3.49647E-01 9.13921E-25
3.53814E-01 8.86203E-25
3.57992E-01 8.59464E-25
3.62181E-01 8.33665E-25
3.66381E-01 8.08767E-25
3.70590E-01 7.84736E-25
3.74810E-01 7.61537E-25
3.79039E-01 7.39135E-25
3.83277E-01 7.17499E-25
3.87524E-01 6.96595E-25
3.91780E-01 6.76397E-25
3.96044E-01 6.56875E-25
4.00316E-01 6.38005E-25
4.04596E-01 6.19761E-25
4.08882E-01 6.02119E-25
4.13176E-01 5.85054E-25
4.17476E-01 5.68546E-25
4.21783E-01 5.52572E-25
4.26095E-01 5.37113E-25
4.30413E-01 5.22149E-25
4.34737E-01 5.07662E-25
4.39065E-01 4.93635E-25
4.43398E-01 4.80049E-25
4.47736E-01 4.66890E-25
4.52077E-01 4.54140E-25
4.56422E-01 4.41786E-25
4.60770E-01 4.29814E-25
4.65122E-01 4.18208E-25
4.69476E-01 4.06958E-25
4.73832E-01 3.96049E-25
4.78190E-01 3.85469E-25
4.82550E-01 3.75208E-25
4.86912E-01 3.65253E-25
4.91274E-01 3.55595E-25
4.95637E-01 3.46223E-25
5.00000E-01 3.37128E-25
5.04363E-01 3.28299E-25
5.08726E-01 3.19727E-25
5.13088E-01 3.11405E-25
5.17450E-01 3.03323E-25
5.21810E-01 2.95474E-25
5.26168E-01 2.87850E-25
5.30524E-01 2.80442E-25
5.34878E-01 2.73245E-25
5.39230E-01 2.66251E-25
5.43578E-01 2.59454E-25
5.47923E-01 2.52847E-25
5.52264E-01 2.46424E-25
5.56602E-01 2.40179E-25
5.60935E-01 2.34106E-25
5.65263E-01 2.28200E-25
5.69587E-01 2.22456E-25
5.73905E-01 2.16869E-25
5.78217E-01 2.11433E-25
5.82524E-01 2.06144E-25
5.86824E-01 2.00997E-25
5.91118E-01 1.95988E-25
5.95404E-01 1.91112E-25
5.99684E-01 1.86366E-25
6.03956E-01 1.81746E-25
6.08220E-01 1.77247E-25
6.12476E-01 1.72867E-25
6.16723E-01 1.68601E-25
6.20961E-01 1.64446E-25
6.25190E-01 1.60399E-25
6.29410E-01 1.56456E-25
6.33619E-01 1.52615E-25
6.37819E-01 1.48872E-25
6.42008E-01 1.45225E-25
6.46186E-01 1.41670E-25
6.50353E-01 1.38206E-25
6.54508E-01 1.34829E-25
6.58652E-01 1.31538E-25
6.62784E-01 1.28328E-25
6.66903E-01 1.25199E-25
6.71010E-01 1.22148E-25
6.75104E-01 1.19173E-25
6.79184E-01 1.16271E-25
6.83251E-01 1.13441E-25
6.87303E-01 1.10680E-25
6.91342E-01 1.07987E-25
6.95366E-01 1.05359E-25
6.99375E-01 1.02796E-25
7.03368E-01 1.00294E-25
7.07347E-01 9.78536E-26
7.11309E-01 9.54715E-26
7.15256E-01 9.31466E-26
7.19186E-01 9.08774E-26
7.23099E-01 8.86625E-26
7.26995E-01 8.65002E-26
7.30874E-01 8.43893E-26
7.34736E-01 8.23284E-26
7.38579E-01 8.03162E-26
7.42405E-01 7.83513E-26
7.46212E-01 7.64326E-26
7.50000E-01 7.45589E-26
7.53769E-01 7.27289E-26
7.57519E-01 7.09416E-26
7.61249E-01 6.91958E-26
7.64960E-01 6.74906E-26
7.68650E-01 6.58248E-26
7.72320E-01 6.41974E-26
7.75968E-01 6.26076E-26
7.79596E-01 6.10543E-26
7.83203E-01 5.95367E-26
7.86788E-01 5.80538E-26
7.90351E-01 5.66048E-26
7.93893E-01 5.51889E-26
7.97411E-01 5.38052E-26
8.00908E-01 5.24530E-26
8.04381E-01 5.11314E-26
8.07831E-01 4.98398E-26
8.11257E-01 4.85775E-26
8.14660E-01 4.73436E-26
8.18039E-01 4.61376E-26
8.21394E-01 4.49588E-26
8.24724E-01 4.38065E-26
8.28030E-01 4.26801E-26
8.31310E-01 4.15790E-26
8.34565E-01 4.05027E-26
8.37795E-01 3.94504E-26
8.40999E-01 3.84218E-26
8.44177E-01 3.74162E-26
8.47329E-01 3.64331E-26
8.50455E-01 3.54721E-26
8.53553E-01 3.45325E-26
8.56625E-01 3.36139E-26
8.59670E-01 3.27160E-26
8.62687E-01 3.18381E-26
8.65677E-01 3.09798E-26
8.68639E-01 3.01408E-26
8.71572E-01 2.93206E-26
8.74478E-01 2.85187E-26
8.77355E-01 2.77349E-26
8.80203E-01 2.69686E-26
8.83022E-01 2.62196E-26
8.85812E-01 2.54875E-26
8.88573E-01 2.47718E-26
8.91304E-01 2.40724E-26
8.94005E-01 2.33887E-26
8.96677E-01 2.27206E-26
8.99318E-01 2.20676E-26
9.01928E-01 2.14295E-26
9.04508E-01 2.08060E-26
9.07058E-01 2.01967E-26
9.09576E-01 1.96014E-26
9.12063E-01 1.90199E-26
9.14519E-01 1.84518E-26
9.16943E-01 1.78969E-26
9.19335E-01 1.73549E-26
9.21696E-01 1.68255E-26
9.24024E-01 1.63087E-26
9.26320E-01 1.58040E-26
9.28584E-01 1.53113E-26
9.30815E-01 1.48304E-26
9.33013E-01 1.43609E-26
9.35178E-01 1.39029E-26
9.37310E-01 1.34559E-26
9.39409E-01 1.30199E-26
9.41474E-01 1.25946E-26
9.43505E-01 1.21799E-26
9.45503E-01 1.17755E-26
9.47467E-01 1.13813E-26
9.49397E-01 1.09972E-26
9.51293E-01 1.06229E-26
9.53154E-01 1.02583E-26
9.54981E-01 9.90319E-27
9.56773E-01 9.55749E-27
9.58530E-01 9.22103E-27
9.60252E-01 8.89366E-27
9.61940E-01 8.57525E-27
9.63592E-01 8.26565E-27
9.65209E-01 7.96473E-27
9.66790E-01 7.67238E-27
9.68336E-01 7.38847E-27
9.69846E-01 7.11287E-27
9.71321E-01 6.84548E-27
9.72759E-01 6.58617E-27
9.74162E-01 6.33486E-27
9.75528E-01 6.09142E-27
9.76858E-01 5.85577E-27
9.78152E-01 5.62780E-27
9.79410E-01 5.40741E-27
9.80631E-01 5.19453E-27
9.81815E-01 4.98906E-27
9.82963E-01 4.79092E-27
9.84074E-01 4.60002E-27
9.85148E-01 4.41629E-27
9.86185E-01 4.23966E-27
9.87185E-01 4.07006E-27
9.88148E-01 3.90740E-27
9.89074E-01 3.75164E-27
9.89962E-01 3.60271E-27
9.90814E-01 3.46054E-27
9.91627E-01 3.32508E-27
9.92404E-01 3.19628E-27
9.93143E-01 3.07408E-27
9.93844E-01 2.95844E-27
9.94508E-01 2.84930E-27
9.95134E-01 2.74663E-27
9.95722E-01 2.65039E-27
9.96273E-01 2.56053E-27
9.96786E-01 2.47702E-27
9.97261E-01 2.39983E-27
9.97698E-01 2.32893E-27
9.98097E-01 2.26429E-27
9.98459E-01 2.20588E-27
9.98782E-01 2.15368E-27
9.99067E-01 2.10767E-27
9.99315E-01 2.06783E-27
9.99524E-01 2.03415E-27
9.99695E-01 2.00660E-27
9.99829E-01 1.98519E-27
9.99924E-01 1.96991E-27
9.99981E-01 1.96074E-27
1.00000E+00 1.95768E-27
