 #
 # Subroutine ELSEPA. Elastic scattering of electrons and positrons
 #                    by neutral atoms and positive ions
 #
 # Projectile: positron
 # Kinetic energy = 3.50000E+08 eV = 1.28623E+07 a.u.
 #
 # WARNING: High-energy factorization with free-atom DF screening.
 #          Absorption, polarization and exchange corrections are
 #          switched off.
 #          Phase shifts are calculated for the bare nucleus.
 #          Scattering amplitudes are not evaluated.
 #
 # Element: Br,  Z =  35,  atomic weight = 7.99040E+01 g/mol
 #
 # Nuclear model: Fermi distribution
 #                Average radius = 4.60865E-13 cm
 #                Skin thickness = 5.46000E-14 cm
 #
 # Number of electrons = 35
 #
 # Total elastic cross section = 2.71477E-18 cm**2 = 9.69462E-02 a0**2
 # 1st transport cross section = 2.00585E-26 cm**2 = 7.16303E-10 a0**2
 # 2nd transport cross section = 6.01204E-26 cm**2 = 2.14694E-09 a0**2
 #
 #
 # Differential cross section:                       MU=(1-COS(THETA))/2
 #
 #  THETA        MU          DCS          DCS        Sherman      error
 #  (deg)                 (cm**2/sr)   (a0**2/sr)    function
 #----------------------------------------------------------------------
0.00000E+00 2.30962E-09
7.61557E-13 2.26580E-09
1.18994E-12 2.24171E-09
1.71346E-12 2.21278E-09
2.33225E-12 2.17900E-09
3.04617E-12 2.14143E-09
3.85530E-12 2.09967E-09
4.75964E-12 2.05440E-09
5.75917E-12 2.00663E-09
6.85391E-12 1.95524E-09
8.04379E-12 1.90201E-09
9.32893E-12 1.84735E-09
1.07092E-11 1.79020E-09
1.21847E-11 1.73270E-09
1.37554E-11 1.67442E-09
1.54213E-11 1.61518E-09
1.71823E-11 1.55667E-09
1.90386E-11 1.49781E-09
2.09900E-11 1.43940E-09
2.30367E-11 1.38247E-09
2.51785E-11 1.32547E-09
2.74156E-11 1.27002E-09
2.97478E-11 1.21635E-09
3.21752E-11 1.16310E-09
3.46979E-11 1.11200E-09
3.73157E-11 1.06255E-09
4.00286E-11 1.01430E-09
4.28368E-11 9.68259E-10
4.57402E-11 9.23703E-10
4.87388E-11 8.80813E-10
5.18325E-11 8.40063E-10
5.50215E-11 8.00618E-10
5.83057E-11 7.63053E-10
6.16850E-11 7.27451E-10
6.51595E-11 6.93015E-10
6.87293E-11 6.60470E-10
7.23943E-11 6.29548E-10
7.61544E-11 5.99914E-10
1.18991E-10 3.76083E-10
1.71347E-10 2.45004E-10
2.33223E-10 1.66124E-10
3.04617E-10 1.19099E-10
3.85531E-10 8.79646E-11
4.75965E-10 6.68956E-11
5.75917E-10 5.22469E-11
6.85389E-10 4.11064E-11
8.04380E-10 3.28801E-11
9.32891E-10 2.66074E-11
1.07092E-09 2.15812E-11
1.21847E-09 1.76978E-11
1.37554E-09 1.45921E-11
1.54213E-09 1.20852E-11
1.71823E-09 1.00901E-11
1.90386E-09 8.45831E-12
2.09900E-09 7.13275E-12
2.30367E-09 6.05479E-12
2.51785E-09 5.16080E-12
2.74156E-09 4.42575E-12
2.97478E-09 3.81659E-12
3.21752E-09 3.30585E-12
3.46978E-09 2.87901E-12
3.73156E-09 2.51912E-12
4.00286E-09 2.21390E-12
4.28368E-09 1.95453E-12
4.57402E-09 1.73257E-12
4.87388E-09 1.54159E-12
5.18326E-09 1.37682E-12
5.50215E-09 1.23380E-12
5.83057E-09 1.10935E-12
6.16850E-09 1.00067E-12
6.51596E-09 9.05109E-13
6.87293E-09 8.21013E-13
7.23942E-09 7.46682E-13
7.61544E-09 6.80631E-13
1.18991E-08 2.99891E-13
1.71347E-08 1.51738E-13
2.33223E-08 8.43202E-14
3.04617E-08 5.03418E-14
3.85531E-08 3.18177E-14
4.75965E-08 2.10690E-14
5.75917E-08 1.44961E-14
6.85389E-08 1.03014E-14
8.04380E-08 7.52214E-15
9.32891E-08 5.62178E-15
1.07092E-07 4.28661E-15
1.21847E-07 3.32574E-15
1.37554E-07 2.62007E-15
1.54213E-07 2.09216E-15
1.71823E-07 1.69082E-15
1.90386E-07 1.38132E-15
2.09900E-07 1.13946E-15
2.30367E-07 9.48297E-16
2.51785E-07 7.95560E-16
2.74156E-07 6.72352E-16
2.97478E-07 5.72081E-16
3.21752E-07 4.89800E-16
3.46978E-07 4.21783E-16
3.73156E-07 3.65157E-16
4.00286E-07 3.17712E-16
4.28368E-07 2.77721E-16
4.57402E-07 2.43819E-16
4.87388E-07 2.14931E-16
5.18325E-07 1.90191E-16
5.50215E-07 1.68907E-16
5.83057E-07 1.50515E-16
6.16850E-07 1.34557E-16
6.51596E-07 1.20657E-16
6.87293E-07 1.08503E-16
7.23942E-07 9.78412E-17
7.61543E-07 8.84557E-17
1.18991E-06 3.63330E-17
1.71347E-06 1.75449E-17
2.33223E-06 9.47663E-18
3.04617E-06 5.55696E-18
3.85531E-06 3.46978E-18
4.75964E-06 2.27669E-18
5.75916E-06 1.55502E-18
6.85388E-06 1.09791E-18
8.04378E-06 7.97067E-19
9.32888E-06 5.92547E-19
1.07092E-05 4.49604E-19
1.21846E-05 3.47274E-19
1.37553E-05 2.72464E-19
1.54212E-05 2.16754E-19
1.71822E-05 1.74578E-19
1.90385E-05 1.42160E-19
2.09899E-05 1.16961E-19
2.30365E-05 9.71010E-20
2.51783E-05 8.12757E-20
2.74153E-05 6.85412E-20
2.97475E-05 5.82024E-20
3.21749E-05 4.97408E-20
3.46974E-05 4.27631E-20
3.73152E-05 3.69685E-20
4.00281E-05 3.21239E-20
4.28362E-05 2.80480E-20
4.57395E-05 2.45981E-20
4.87380E-05 2.16622E-20
5.18317E-05 1.91509E-20
5.50205E-05 1.69926E-20
5.83045E-05 1.51297E-20
6.16838E-05 1.35152E-20
6.51582E-05 1.21104E-20
6.87277E-05 1.08837E-20
7.23925E-05 9.80842E-21
7.61524E-05 8.85694E-21
9.21439E-05 6.04371E-21
1.09658E-04 4.26276E-21
1.28695E-04 3.09148E-21
1.49255E-04 2.29557E-21
1.71338E-04 1.73972E-21
1.94942E-04 1.34201E-21
2.20070E-04 1.05146E-21
2.46720E-04 8.35240E-22
2.74892E-04 6.71666E-22
3.04586E-04 5.46108E-22
3.35803E-04 4.48440E-22
3.68542E-04 3.71564E-22
4.02802E-04 3.10392E-22
4.38585E-04 2.61235E-22
4.75889E-04 2.21375E-22
5.14715E-04 1.88781E-22
5.55063E-04 1.61927E-22
5.96931E-04 1.39643E-22
6.40321E-04 1.21030E-22
6.85233E-04 1.05387E-22
7.31665E-04 9.21651E-23
7.79618E-04 8.09302E-23
8.29092E-04 7.13355E-23
8.80086E-04 6.31033E-23
9.32601E-04 5.60088E-23
9.86636E-04 4.98692E-23
1.04219E-03 4.45354E-23
1.09927E-03 3.98842E-23
1.15786E-03 3.58141E-23
1.21797E-03 3.22407E-23
1.27961E-03 2.90934E-23
1.34276E-03 2.63131E-23
1.40743E-03 2.38500E-23
1.47362E-03 2.16620E-23
1.54133E-03 1.97134E-23
1.61056E-03 1.79736E-23
1.68131E-03 1.64166E-23
1.75357E-03 1.50201E-23
1.82735E-03 1.37648E-23
1.90265E-03 1.26341E-23
1.97947E-03 1.16136E-23
2.05780E-03 1.06909E-23
2.13765E-03 9.85494E-24
2.21902E-03 9.09636E-24
2.30190E-03 8.40679E-24
2.38630E-03 7.77895E-24
2.47222E-03 7.20642E-24
2.55965E-03 6.68353E-24
2.64859E-03 6.20530E-24
2.73905E-03 5.76729E-24
2.83103E-03 5.36559E-24
2.92452E-03 4.99670E-24
3.01952E-03 4.65752E-24
3.11604E-03 4.34527E-24
3.21407E-03 4.05748E-24
3.31362E-03 3.79194E-24
3.41468E-03 3.54664E-24
3.51725E-03 3.31982E-24
3.62133E-03 3.10986E-24
3.72692E-03 2.91531E-24
3.83403E-03 2.73487E-24
3.94265E-03 2.56736E-24
4.05278E-03 2.41170E-24
4.16442E-03 2.26694E-24
4.27757E-03 2.13220E-24
4.39223E-03 2.00668E-24
4.50840E-03 1.88965E-24
4.62608E-03 1.78045E-24
4.74527E-03 1.67848E-24
4.86597E-03 1.58320E-24
4.98817E-03 1.49410E-24
5.11188E-03 1.41072E-24
5.23711E-03 1.33263E-24
5.36383E-03 1.25947E-24
5.49207E-03 1.19087E-24
5.62181E-03 1.12650E-24
5.75306E-03 1.06607E-24
5.88581E-03 1.00931E-24
6.02007E-03 9.55959E-25
6.15583E-03 9.05785E-25
6.29310E-03 8.58575E-25
6.43187E-03 8.14129E-25
6.57214E-03 7.72263E-25
6.71392E-03 7.32808E-25
6.85720E-03 6.95607E-25
7.00198E-03 6.60515E-25
7.14827E-03 6.27395E-25
7.29605E-03 5.96123E-25
7.44534E-03 5.66583E-25
7.59612E-03 5.38667E-25
7.97965E-03 4.75337E-25
8.37255E-03 4.20159E-25
8.77480E-03 3.71967E-25
9.18641E-03 3.29783E-25
9.60736E-03 2.92779E-25
1.00376E-02 2.60256E-25
1.04773E-02 2.31617E-25
1.09262E-02 2.06354E-25
1.13844E-02 1.84032E-25
1.18520E-02 1.64278E-25
1.23288E-02 1.46771E-25
1.28150E-02 1.31235E-25
1.33104E-02 1.17429E-25
1.38150E-02 1.05146E-25
1.43290E-02 9.42059E-26
1.48521E-02 8.44510E-26
1.53845E-02 7.57446E-26
1.59262E-02 6.79665E-26
1.64770E-02 6.10120E-26
1.70371E-02 5.47886E-26
1.76063E-02 4.92155E-26
1.81848E-02 4.42211E-26
1.87724E-02 3.97426E-26
1.93692E-02 3.57243E-26
1.99751E-02 3.21169E-26
2.05901E-02 2.88769E-26
2.12143E-02 2.59655E-26
2.18476E-02 2.33484E-26
2.24900E-02 2.09951E-26
2.31415E-02 1.88781E-26
2.38021E-02 1.69734E-26
2.44717E-02 1.52592E-26
2.51504E-02 1.37162E-26
2.58382E-02 1.23270E-26
2.65349E-02 1.10763E-26
2.72407E-02 9.95009E-27
2.79555E-02 8.93597E-27
2.86793E-02 8.02279E-27
2.94120E-02 7.20052E-27
3.01537E-02 6.46018E-27
3.09043E-02 5.79367E-27
3.16639E-02 5.19371E-27
3.24324E-02 4.65376E-27
3.32098E-02 4.16793E-27
3.39961E-02 3.73088E-27
3.47912E-02 3.33785E-27
3.55952E-02 2.98451E-27
3.64081E-02 2.66696E-27
3.72297E-02 2.38169E-27
3.80602E-02 2.12554E-27
3.88995E-02 1.89563E-27
3.97476E-02 1.68938E-27
4.06044E-02 1.50447E-27
4.14700E-02 1.33877E-27
4.23443E-02 1.19038E-27
4.32273E-02 1.05759E-27
4.41190E-02 9.38832E-28
4.50194E-02 8.32709E-28
4.59284E-02 7.37952E-28
4.68461E-02 6.53412E-28
4.87074E-02 5.10946E-28
5.06030E-02 3.98178E-28
5.25328E-02 3.09293E-28
5.44967E-02 2.39559E-28
5.64946E-02 1.85130E-28
5.85262E-02 1.42885E-28
6.05914E-02 1.10298E-28
6.26901E-02 8.53281E-29
6.48222E-02 6.63330E-29
6.69873E-02 5.19943E-29
6.91854E-02 4.12585E-29
7.14163E-02 3.32874E-29
7.36799E-02 2.74174E-29
7.59760E-02 2.31264E-29
7.83043E-02 2.00066E-29
8.06647E-02 1.77417E-29
8.30571E-02 1.60891E-29
8.54812E-02 1.48644E-29
8.79369E-02 1.39297E-29
9.04240E-02 1.31834E-29
9.29422E-02 1.25522E-29
9.54915E-02 1.19849E-29
9.80716E-02 1.14468E-29
1.00682E-01 1.09160E-29
1.03323E-01 1.03798E-29
1.05995E-01 9.83219E-30
1.08696E-01 9.27204E-30
1.11427E-01 8.70125E-30
1.14188E-01 8.12373E-30
1.16978E-01 7.54447E-30
1.19797E-01 6.96892E-30
1.22645E-01 6.40246E-30
1.25522E-01 5.85016E-30
1.28428E-01 5.31652E-30
1.31361E-01 4.80538E-30
1.34323E-01 4.31982E-30
1.37313E-01 3.86222E-30
1.40330E-01 3.43425E-30
1.43375E-01 3.03691E-30
1.46447E-01 2.67060E-30
1.49545E-01 2.33523E-30
1.52671E-01 2.03024E-30
1.55823E-01 1.75470E-30
1.59001E-01 1.50742E-30
1.62205E-01 1.28693E-30
1.65435E-01 1.09162E-30
1.68690E-01 9.19773E-31
1.71970E-01 7.69592E-31
1.75276E-01 6.39263E-31
1.78606E-01 5.26982E-31
1.81961E-01 4.30986E-31
1.85340E-01 3.49575E-31
1.88743E-01 2.81128E-31
1.92169E-01 2.24117E-31
1.95619E-01 1.77117E-31
1.99092E-01 1.38812E-31
2.02589E-01 1.07995E-31
2.06107E-01 8.35699E-32
2.09649E-01 6.45494E-32
2.13212E-01 5.00514E-32
2.16797E-01 3.92940E-32
2.20404E-01 3.15902E-32
2.24032E-01 2.63413E-32
2.27680E-01 2.30306E-32
2.31350E-01 2.12159E-32
2.35040E-01 2.05232E-32
2.38751E-01 2.06394E-32
2.42481E-01 2.13058E-32
2.46231E-01 2.23120E-32
2.50000E-01 2.34897E-32
2.53788E-01 2.47070E-32
2.57595E-01 2.58638E-32
2.61421E-01 2.68864E-32
2.65264E-01 2.77237E-32
2.69126E-01 2.83432E-32
2.73005E-01 2.87277E-32
2.76901E-01 2.88720E-32
2.80814E-01 2.87807E-32
2.84744E-01 2.84655E-32
2.88691E-01 2.79437E-32
2.92653E-01 2.72360E-32
2.96632E-01 2.63657E-32
3.00625E-01 2.53571E-32
3.04634E-01 2.42349E-32
3.08658E-01 2.30231E-32
3.12697E-01 2.17451E-32
3.16749E-01 2.04226E-32
3.20816E-01 1.90754E-32
3.24896E-01 1.77217E-32
3.28990E-01 1.63776E-32
3.33097E-01 1.50569E-32
3.37216E-01 1.37715E-32
3.41348E-01 1.25315E-32
3.45492E-01 1.13448E-32
3.49647E-01 1.02177E-32
3.53814E-01 9.15476E-33
3.57992E-01 8.15923E-33
3.62181E-01 7.23292E-33
3.66381E-01 6.37654E-33
3.70590E-01 5.58975E-33
3.74810E-01 4.87139E-33
3.79039E-01 4.21956E-33
3.83277E-01 3.63179E-33
3.87524E-01 3.10514E-33
3.91780E-01 2.63633E-33
3.96044E-01 2.22182E-33
4.00316E-01 1.85789E-33
4.04596E-01 1.54077E-33
4.08882E-01 1.26663E-33
4.13176E-01 1.03170E-33
4.17476E-01 8.32281E-34
4.21783E-01 6.64803E-34
4.26095E-01 5.25843E-34
4.30413E-01 4.12157E-34
4.34737E-01 3.20694E-34
4.39065E-01 2.48607E-34
4.43398E-01 1.93261E-34
4.47736E-01 1.52234E-34
4.52077E-01 1.23322E-34
4.56422E-01 1.04525E-34
4.60770E-01 9.40501E-35
4.65122E-01 9.02972E-35
4.69476E-01 9.18525E-35
4.73832E-01 9.74762E-35
4.78190E-01 1.06092E-34
4.82550E-01 1.16774E-34
4.86912E-01 1.28734E-34
4.91274E-01 1.41312E-34
4.95637E-01 1.53962E-34
5.00000E-01 1.66240E-34
5.04363E-01 1.77794E-34
5.08726E-01 1.88353E-34
5.13088E-01 1.97717E-34
5.17450E-01 2.05746E-34
5.21810E-01 2.12354E-34
5.26168E-01 2.17502E-34
5.30524E-01 2.21184E-34
5.34878E-01 2.23428E-34
5.39230E-01 2.24285E-34
5.43578E-01 2.23827E-34
5.47923E-01 2.22143E-34
5.52264E-01 2.19328E-34
5.56602E-01 2.15487E-34
5.60935E-01 2.10730E-34
5.65263E-01 2.05168E-34
5.69587E-01 1.98912E-34
5.73905E-01 1.92068E-34
5.78217E-01 1.84742E-34
5.82524E-01 1.77033E-34
5.86824E-01 1.69035E-34
5.91118E-01 1.60835E-34
5.95404E-01 1.52514E-34
5.99684E-01 1.44145E-34
6.03956E-01 1.35795E-34
6.08220E-01 1.27522E-34
6.12476E-01 1.19379E-34
6.16723E-01 1.11412E-34
6.20961E-01 1.03659E-34
6.25190E-01 9.61539E-35
6.29410E-01 8.89219E-35
6.33619E-01 8.19854E-35
6.37819E-01 7.53616E-35
6.42008E-01 6.90607E-35
6.46186E-01 6.30928E-35
6.50353E-01 5.74604E-35
6.54508E-01 5.21654E-35
6.58652E-01 4.72055E-35
6.62784E-01 4.25761E-35
6.66903E-01 3.82705E-35
6.71010E-01 3.42803E-35
6.75104E-01 3.05948E-35
6.79184E-01 2.72033E-35
6.83251E-01 2.40936E-35
6.87303E-01 2.12520E-35
6.91342E-01 1.86652E-35
6.95366E-01 1.63195E-35
6.99375E-01 1.42002E-35
7.03368E-01 1.22937E-35
7.07347E-01 1.05857E-35
7.11309E-01 9.06247E-36
7.15256E-01 7.71054E-36
7.19186E-01 6.51646E-36
7.23099E-01 5.46774E-36
7.26995E-01 4.55237E-36
7.30874E-01 3.75852E-36
7.34736E-01 3.07528E-36
7.38579E-01 2.49189E-36
7.42405E-01 1.99869E-36
7.46212E-01 1.58635E-36
7.50000E-01 1.24636E-36
7.53769E-01 9.70431E-37
7.57519E-01 7.51275E-37
7.61249E-01 5.81867E-37
7.64960E-01 4.55951E-37
7.68650E-01 3.67667E-37
7.72320E-01 3.11711E-37
7.75968E-01 2.83250E-37
7.79596E-01 2.77934E-37
7.83203E-01 2.91823E-37
7.86788E-01 3.21389E-37
7.90351E-01 3.63483E-37
7.93893E-01 4.15295E-37
7.97411E-01 4.74401E-37
8.00908E-01 5.38608E-37
8.04381E-01 6.05996E-37
8.07831E-01 6.74992E-37
8.11257E-01 7.44199E-37
8.14660E-01 8.12392E-37
8.18039E-01 8.78614E-37
8.21394E-01 9.42078E-37
8.24724E-01 1.00203E-36
8.28030E-01 1.05801E-36
8.31310E-01 1.10967E-36
8.34565E-01 1.15654E-36
8.37795E-01 1.19867E-36
8.40999E-01 1.23569E-36
8.44177E-01 1.26775E-36
8.47329E-01 1.29482E-36
8.50455E-01 1.31696E-36
8.53553E-01 1.33423E-36
8.56625E-01 1.34691E-36
8.59670E-01 1.35515E-36
8.62687E-01 1.35901E-36
8.65677E-01 1.35889E-36
8.68639E-01 1.35501E-36
8.71572E-01 1.34758E-36
8.74478E-01 1.33682E-36
8.77355E-01 1.32301E-36
8.80203E-01 1.30638E-36
8.83022E-01 1.28730E-36
8.85812E-01 1.26594E-36
8.88573E-01 1.24249E-36
8.91304E-01 1.21729E-36
8.94005E-01 1.19050E-36
8.96677E-01 1.16225E-36
8.99318E-01 1.13288E-36
9.01928E-01 1.10264E-36
9.04508E-01 1.07147E-36
9.07058E-01 1.03979E-36
9.09576E-01 1.00756E-36
9.12063E-01 9.75110E-37
9.14519E-01 9.42463E-37
9.16943E-01 9.09756E-37
9.19335E-01 8.77171E-37
9.21696E-01 8.44709E-37
9.24024E-01 8.12563E-37
9.26320E-01 7.80687E-37
9.28584E-01 7.49256E-37
9.30815E-01 7.18305E-37
9.33013E-01 6.87986E-37
9.35178E-01 6.58196E-37
9.37310E-01 6.29149E-37
9.39409E-01 6.00748E-37
9.41474E-01 5.72981E-37
9.43505E-01 5.46075E-37
9.45503E-01 5.19840E-37
9.47467E-01 4.94426E-37
9.49397E-01 4.69754E-37
9.51293E-01 4.45939E-37
9.53154E-01 4.22863E-37
9.54981E-01 4.00660E-37
9.56773E-01 3.79214E-37
9.58530E-01 3.58608E-37
9.60252E-01 3.38721E-37
9.61940E-01 3.19627E-37
9.63592E-01 3.01278E-37
9.65209E-01 2.83754E-37
9.66790E-01 2.66878E-37
9.68336E-01 2.50793E-37
9.69846E-01 2.35373E-37
9.71321E-01 2.20657E-37
9.72759E-01 2.06589E-37
9.74162E-01 1.93205E-37
9.75528E-01 1.80422E-37
9.76858E-01 1.68239E-37
9.78152E-01 1.56673E-37
9.79410E-01 1.45666E-37
9.80631E-01 1.35224E-37
9.81815E-01 1.25294E-37
9.82963E-01 1.15852E-37
9.84074E-01 1.06942E-37
9.85148E-01 9.84954E-38
9.86185E-01 9.05496E-38
9.87185E-01 8.29967E-38
9.88148E-01 7.59025E-38
9.89074E-01 6.92071E-38
9.89962E-01 6.28819E-38
9.90814E-01 5.69545E-38
9.91627E-01 5.13986E-38
9.92404E-01 4.61773E-38
9.93143E-01 4.13176E-38
9.93844E-01 3.67675E-38
9.94508E-01 3.25020E-38
9.95134E-01 2.85782E-38
9.95722E-01 2.49428E-38
9.96273E-01 2.15731E-38
9.96786E-01 1.84694E-38
9.97261E-01 1.56405E-38
9.97698E-01 1.30747E-38
9.98097E-01 1.07648E-38
9.98459E-01 8.66502E-39
9.98782E-01 6.82121E-39
9.99067E-01 5.20412E-39
9.99315E-01 3.82206E-39
9.99524E-01 2.65401E-39
9.99695E-01 1.69384E-39
9.99829E-01 9.53214E-40
9.99924E-01 4.28628E-40
9.99981E-01 1.19812E-40
1.00000E+00 1.34862E-41
