 #
 # Subroutine ELSEPA. Elastic scattering of electrons and positrons
 #                    by neutral atoms and positive ions
 #
 # Projectile: positron
 # Kinetic energy = 3.00000E+07 eV = 1.10248E+06 a.u.
 #
 # WARNING: High-energy factorization with free-atom DF screening.
 #          Absorption, polarization and exchange corrections are
 #          switched off.
 #          Phase shifts are calculated for the bare nucleus.
 #          Scattering amplitudes are not evaluated.
 #
 # Element: Br,  Z =  35,  atomic weight = 7.99040E+01 g/mol
 #
 # Nuclear model: Fermi distribution
 #                Average radius = 4.60865E-13 cm
 #                Skin thickness = 5.46000E-14 cm
 #
 # Number of electrons = 35
 #
 # Total elastic cross section = 2.71501E-18 cm**2 = 9.69546E-02 a0**2
 # 1st transport cross section = 2.34614E-24 cm**2 = 8.37821E-08 a0**2
 # 2nd transport cross section = 6.84724E-24 cm**2 = 2.44519E-07 a0**2
 #
 #
 # Differential cross section:                       MU=(1-COS(THETA))/2
 #
 #  THETA        MU          DCS          DCS        Sherman      error
 #  (deg)                 (cm**2/sr)   (a0**2/sr)    function
 #----------------------------------------------------------------------
0.00000E+00 1.75005E-11
7.61557E-13 1.74979E-11
1.18994E-12 1.74964E-11
1.71346E-12 1.74946E-11
2.33225E-12 1.74926E-11
3.04617E-12 1.74902E-11
3.85530E-12 1.74874E-11
4.75964E-12 1.74844E-11
5.75917E-12 1.74811E-11
6.85391E-12 1.74774E-11
8.04379E-12 1.74734E-11
9.32893E-12 1.74691E-11
1.07092E-11 1.74645E-11
1.21847E-11 1.74595E-11
1.37554E-11 1.74543E-11
1.54213E-11 1.74487E-11
1.71823E-11 1.74429E-11
1.90386E-11 1.74367E-11
2.09900E-11 1.74302E-11
2.30367E-11 1.74234E-11
2.51785E-11 1.74162E-11
2.74156E-11 1.74088E-11
2.97478E-11 1.74010E-11
3.21752E-11 1.73930E-11
3.46979E-11 1.73846E-11
3.73157E-11 1.73759E-11
4.00286E-11 1.73669E-11
4.28368E-11 1.73577E-11
4.57402E-11 1.73481E-11
4.87388E-11 1.73381E-11
5.18325E-11 1.73279E-11
5.50215E-11 1.73174E-11
5.83057E-11 1.73066E-11
6.16850E-11 1.72955E-11
6.51595E-11 1.72840E-11
6.87293E-11 1.72723E-11
7.23943E-11 1.72603E-11
7.61544E-11 1.72480E-11
1.18991E-10 1.71085E-11
1.71347E-10 1.69402E-11
2.33223E-10 1.67446E-11
3.04617E-10 1.65206E-11
3.85531E-10 1.62768E-11
4.75965E-10 1.60051E-11
5.75917E-10 1.57172E-11
6.85389E-10 1.54071E-11
8.04380E-10 1.50824E-11
9.32891E-10 1.47426E-11
1.07092E-09 1.43887E-11
1.21847E-09 1.40281E-11
1.37554E-09 1.36526E-11
1.54213E-09 1.32791E-11
1.71823E-09 1.28899E-11
1.90386E-09 1.25062E-11
2.09900E-09 1.21151E-11
2.30367E-09 1.17277E-11
2.51785E-09 1.13410E-11
2.74156E-09 1.09557E-11
2.97478E-09 1.05785E-11
3.21752E-09 1.02002E-11
3.46978E-09 9.83618E-12
3.73156E-09 9.46951E-12
4.00286E-09 9.11776E-12
4.28368E-09 8.76962E-12
4.57402E-09 8.43296E-12
4.87388E-09 8.10498E-12
5.18326E-09 7.78543E-12
5.50215E-09 7.47847E-12
5.83057E-09 7.17734E-12
6.16850E-09 6.89131E-12
6.51596E-09 6.60968E-12
6.87293E-09 6.34237E-12
7.23942E-09 6.08242E-12
7.61544E-09 5.83387E-12
1.18991E-08 3.84467E-12
1.71347E-08 2.58049E-12
2.33223E-08 1.78849E-12
3.04617E-08 1.27560E-12
3.85531E-08 9.53986E-13
4.75965E-08 7.25328E-13
5.75917E-08 5.69241E-13
6.85389E-08 4.52351E-13
8.04380E-08 3.65853E-13
9.32891E-08 2.98862E-13
1.07092E-07 2.46046E-13
1.21847E-07 2.04611E-13
1.37554E-07 1.70419E-13
1.54213E-07 1.43494E-13
1.71823E-07 1.20646E-13
1.90386E-07 1.02380E-13
2.09900E-07 8.70207E-14
2.30367E-07 7.44153E-14
2.51785E-07 6.38740E-14
2.74156E-07 5.50556E-14
2.97478E-07 4.76884E-14
3.21752E-07 4.14381E-14
3.46978E-07 3.61990E-14
3.73156E-07 3.17106E-14
4.00286E-07 2.79139E-14
4.28368E-07 2.46543E-14
4.57402E-07 2.18631E-14
4.87388E-07 1.94562E-14
5.18325E-07 1.73741E-14
5.50215E-07 1.55685E-14
5.83057E-07 1.39931E-14
6.16850E-07 1.26183E-14
6.51596E-07 1.14071E-14
6.87293E-07 1.03425E-14
7.23942E-07 9.40109E-15
7.61543E-07 8.56736E-15
1.18991E-06 3.78627E-15
1.71347E-06 1.93247E-15
2.33223E-06 1.08425E-15
3.04617E-06 6.51513E-16
3.85531E-06 4.13431E-16
4.75964E-06 2.74451E-16
5.75916E-06 1.89056E-16
6.85388E-06 1.34414E-16
8.04378E-06 9.81733E-17
9.32888E-06 7.33727E-17
1.07092E-05 5.59480E-17
1.21846E-05 4.34101E-17
1.37553E-05 3.42019E-17
1.54212E-05 2.73154E-17
1.71822E-05 2.20792E-17
1.90385E-05 1.80391E-17
2.09899E-05 1.48869E-17
2.30365E-05 1.23938E-17
2.51783E-05 1.04008E-17
2.74153E-05 8.79168E-18
2.97475E-05 7.48169E-18
3.21749E-05 6.40662E-18
3.46974E-05 5.51780E-18
3.73152E-05 4.77803E-18
4.00281E-05 4.15813E-18
4.28362E-05 3.63555E-18
4.57395E-05 3.19244E-18
4.87380E-05 2.81464E-18
5.18317E-05 2.49099E-18
5.50205E-05 2.21241E-18
5.83045E-05 1.97162E-18
6.16838E-05 1.76268E-18
6.51582E-05 1.58067E-18
6.87277E-05 1.42154E-18
7.23925E-05 1.28193E-18
7.61524E-05 1.15904E-18
9.21439E-05 7.92777E-19
1.09658E-04 5.60258E-19
1.28695E-04 4.07005E-19
1.49255E-04 3.02683E-19
1.71338E-04 2.29719E-19
1.94942E-04 1.77450E-19
2.20070E-04 1.39222E-19
2.46720E-04 1.10747E-19
2.74892E-04 8.91854E-20
3.04586E-04 7.26205E-20
3.35803E-04 5.97244E-20
3.68542E-04 4.95653E-20
4.02802E-04 4.14749E-20
4.38585E-04 3.49679E-20
4.75889E-04 2.96871E-20
5.14715E-04 2.53653E-20
5.55063E-04 2.18012E-20
5.96931E-04 1.88409E-20
6.40321E-04 1.63657E-20
6.85233E-04 1.42835E-20
7.31665E-04 1.25216E-20
7.79618E-04 1.10228E-20
8.29092E-04 9.74140E-21
8.80086E-04 8.64062E-21
9.32601E-04 7.69077E-21
9.86636E-04 6.86772E-21
1.04219E-03 6.15170E-21
1.09927E-03 5.52645E-21
1.15786E-03 4.97852E-21
1.21797E-03 4.49672E-21
1.27961E-03 4.07171E-21
1.34276E-03 3.69565E-21
1.40743E-03 3.36194E-21
1.47362E-03 3.06498E-21
1.54133E-03 2.80003E-21
1.61056E-03 2.56305E-21
1.68131E-03 2.35055E-21
1.75357E-03 2.15958E-21
1.82735E-03 1.98758E-21
1.90265E-03 1.83232E-21
1.97947E-03 1.69190E-21
2.05780E-03 1.56464E-21
2.13765E-03 1.44910E-21
2.21902E-03 1.34400E-21
2.30190E-03 1.24823E-21
2.38630E-03 1.16082E-21
2.47222E-03 1.08091E-21
2.55965E-03 1.00774E-21
2.64859E-03 9.40645E-22
2.73905E-03 8.79023E-22
2.83103E-03 8.22353E-22
2.92452E-03 7.70162E-22
3.01952E-03 7.22036E-22
3.11604E-03 6.77598E-22
3.21407E-03 6.36517E-22
3.31362E-03 5.98493E-22
3.41468E-03 5.63257E-22
3.51725E-03 5.30569E-22
3.62133E-03 5.00210E-22
3.72692E-03 4.71984E-22
3.83403E-03 4.45714E-22
3.94265E-03 4.21241E-22
4.05278E-03 3.98419E-22
4.16442E-03 3.77117E-22
4.27757E-03 3.57214E-22
4.39223E-03 3.38602E-22
4.50840E-03 3.21182E-22
4.62608E-03 3.04864E-22
4.74527E-03 2.89566E-22
4.86597E-03 2.75211E-22
4.98817E-03 2.61732E-22
5.11188E-03 2.49064E-22
5.23711E-03 2.37151E-22
5.36383E-03 2.25938E-22
5.49207E-03 2.15378E-22
5.62181E-03 2.05425E-22
5.75306E-03 1.96038E-22
5.88581E-03 1.87179E-22
6.02007E-03 1.78812E-22
6.15583E-03 1.70906E-22
6.29310E-03 1.63430E-22
6.43187E-03 1.56356E-22
6.57214E-03 1.49659E-22
6.71392E-03 1.43316E-22
6.85720E-03 1.37303E-22
7.00198E-03 1.31601E-22
7.14827E-03 1.26190E-22
7.29605E-03 1.21054E-22
7.44534E-03 1.16174E-22
7.59612E-03 1.11537E-22
7.97965E-03 1.00913E-22
8.37255E-03 9.15180E-23
8.77480E-03 8.31861E-23
9.18641E-03 7.57765E-23
9.60736E-03 6.91695E-23
1.00376E-02 6.32636E-23
1.04773E-02 5.79710E-23
1.09262E-02 5.32179E-23
1.13844E-02 4.89389E-23
1.18520E-02 4.50791E-23
1.23288E-02 4.15902E-23
1.28150E-02 3.84303E-23
1.33104E-02 3.55630E-23
1.38150E-02 3.29565E-23
1.43290E-02 3.05829E-23
1.48521E-02 2.84177E-23
1.53845E-02 2.64394E-23
1.59262E-02 2.46292E-23
1.64770E-02 2.29701E-23
1.70371E-02 2.14474E-23
1.76063E-02 2.00479E-23
1.81848E-02 1.87598E-23
1.87724E-02 1.75727E-23
1.93692E-02 1.64773E-23
1.99751E-02 1.54652E-23
2.05901E-02 1.45290E-23
2.12143E-02 1.36621E-23
2.18476E-02 1.28582E-23
2.24900E-02 1.21121E-23
2.31415E-02 1.14189E-23
2.38021E-02 1.07741E-23
2.44717E-02 1.01738E-23
2.51504E-02 9.61428E-24
2.58382E-02 9.09235E-24
2.65349E-02 8.60503E-24
2.72407E-02 8.14960E-24
2.79555E-02 7.72360E-24
2.86793E-02 7.32479E-24
2.94120E-02 6.95112E-24
3.01537E-02 6.60073E-24
3.09043E-02 6.27190E-24
3.16639E-02 5.96308E-24
3.24324E-02 5.67282E-24
3.32098E-02 5.39980E-24
3.39961E-02 5.14283E-24
3.47912E-02 4.90079E-24
3.55952E-02 4.67265E-24
3.64081E-02 4.45747E-24
3.72297E-02 4.25439E-24
3.80602E-02 4.06260E-24
3.88995E-02 3.88136E-24
3.97476E-02 3.70999E-24
4.06044E-02 3.54785E-24
4.14700E-02 3.39435E-24
4.23443E-02 3.24896E-24
4.32273E-02 3.11117E-24
4.41190E-02 2.98050E-24
4.50194E-02 2.85652E-24
4.59284E-02 2.73884E-24
4.68461E-02 2.62707E-24
4.87074E-02 2.41988E-24
5.06030E-02 2.23244E-24
5.25328E-02 2.06254E-24
5.44967E-02 1.90826E-24
5.64946E-02 1.76792E-24
5.85262E-02 1.64005E-24
6.05914E-02 1.52334E-24
6.26901E-02 1.41667E-24
6.48222E-02 1.31902E-24
6.69873E-02 1.22949E-24
6.91854E-02 1.14730E-24
7.14163E-02 1.07173E-24
7.36799E-02 1.00218E-24
7.59760E-02 9.38066E-25
7.83043E-02 8.78901E-25
8.06647E-02 8.24235E-25
8.30571E-02 7.73668E-25
8.54812E-02 7.26840E-25
8.79369E-02 6.83427E-25
9.04240E-02 6.43136E-25
9.29422E-02 6.05706E-25
9.54915E-02 5.70899E-25
9.80716E-02 5.38498E-25
1.00682E-01 5.08310E-25
1.03323E-01 4.80156E-25
1.05995E-01 4.53878E-25
1.08696E-01 4.29327E-25
1.11427E-01 4.06372E-25
1.14188E-01 3.84891E-25
1.16978E-01 3.64773E-25
1.19797E-01 3.45917E-25
1.22645E-01 3.28230E-25
1.25522E-01 3.11628E-25
1.28428E-01 2.96031E-25
1.31361E-01 2.81370E-25
1.34323E-01 2.67579E-25
1.37313E-01 2.54596E-25
1.40330E-01 2.42367E-25
1.43375E-01 2.30841E-25
1.46447E-01 2.19970E-25
1.49545E-01 2.09710E-25
1.52671E-01 2.00022E-25
1.55823E-01 1.90868E-25
1.59001E-01 1.82214E-25
1.62205E-01 1.74028E-25
1.65435E-01 1.66280E-25
1.68690E-01 1.58942E-25
1.71970E-01 1.51991E-25
1.75276E-01 1.45401E-25
1.78606E-01 1.39151E-25
1.81961E-01 1.33220E-25
1.85340E-01 1.27589E-25
1.88743E-01 1.22241E-25
1.92169E-01 1.17159E-25
1.95619E-01 1.12327E-25
1.99092E-01 1.07732E-25
2.02589E-01 1.03359E-25
2.06107E-01 9.91963E-26
2.09649E-01 9.52319E-26
2.13212E-01 9.14548E-26
2.16797E-01 8.78546E-26
2.20404E-01 8.44218E-26
2.24032E-01 8.11472E-26
2.27680E-01 7.80223E-26
2.31350E-01 7.50393E-26
2.35040E-01 7.21905E-26
2.38751E-01 6.94690E-26
2.42481E-01 6.68681E-26
2.46231E-01 6.43816E-26
2.50000E-01 6.20037E-26
2.53788E-01 5.97288E-26
2.57595E-01 5.75517E-26
2.61421E-01 5.54676E-26
2.65264E-01 5.34719E-26
2.69126E-01 5.15602E-26
2.73005E-01 4.97283E-26
2.76901E-01 4.79724E-26
2.80814E-01 4.62889E-26
2.84744E-01 4.46743E-26
2.88691E-01 4.31253E-26
2.92653E-01 4.16388E-26
2.96632E-01 4.02119E-26
3.00625E-01 3.88419E-26
3.04634E-01 3.75260E-26
3.08658E-01 3.62619E-26
3.12697E-01 3.50471E-26
3.16749E-01 3.38794E-26
3.20816E-01 3.27568E-26
3.24896E-01 3.16772E-26
3.28990E-01 3.06386E-26
3.33097E-01 2.96394E-26
3.37216E-01 2.86777E-26
3.41348E-01 2.77519E-26
3.45492E-01 2.68606E-26
3.49647E-01 2.60021E-26
3.53814E-01 2.51751E-26
3.57992E-01 2.43784E-26
3.62181E-01 2.36105E-26
3.66381E-01 2.28703E-26
3.70590E-01 2.21566E-26
3.74810E-01 2.14684E-26
3.79039E-01 2.08046E-26
3.83277E-01 2.01642E-26
3.87524E-01 1.95462E-26
3.91780E-01 1.89498E-26
3.96044E-01 1.83740E-26
4.00316E-01 1.78181E-26
4.04596E-01 1.72813E-26
4.08882E-01 1.67627E-26
4.13176E-01 1.62618E-26
4.17476E-01 1.57778E-26
4.21783E-01 1.53100E-26
4.26095E-01 1.48579E-26
4.30413E-01 1.44208E-26
4.34737E-01 1.39981E-26
4.39065E-01 1.35894E-26
4.43398E-01 1.31940E-26
4.47736E-01 1.28115E-26
4.52077E-01 1.24414E-26
4.56422E-01 1.20832E-26
4.60770E-01 1.17366E-26
4.65122E-01 1.14010E-26
4.69476E-01 1.10761E-26
4.73832E-01 1.07614E-26
4.78190E-01 1.04567E-26
4.82550E-01 1.01615E-26
4.86912E-01 9.87557E-27
4.91274E-01 9.59850E-27
4.95637E-01 9.32999E-27
5.00000E-01 9.06974E-27
5.04363E-01 8.81748E-27
5.08726E-01 8.57291E-27
5.13088E-01 8.33577E-27
5.17450E-01 8.10580E-27
5.21810E-01 7.88276E-27
5.26168E-01 7.66641E-27
5.30524E-01 7.45652E-27
5.34878E-01 7.25286E-27
5.39230E-01 7.05524E-27
5.43578E-01 6.86345E-27
5.47923E-01 6.67729E-27
5.52264E-01 6.49657E-27
5.56602E-01 6.32112E-27
5.60935E-01 6.15076E-27
5.65263E-01 5.98532E-27
5.69587E-01 5.82465E-27
5.73905E-01 5.66858E-27
5.78217E-01 5.51697E-27
5.82524E-01 5.36967E-27
5.86824E-01 5.22655E-27
5.91118E-01 5.08747E-27
5.95404E-01 4.95230E-27
5.99684E-01 4.82092E-27
6.03956E-01 4.69321E-27
6.08220E-01 4.56905E-27
6.12476E-01 4.44834E-27
6.16723E-01 4.33096E-27
6.20961E-01 4.21681E-27
6.25190E-01 4.10579E-27
6.29410E-01 3.99780E-27
6.33619E-01 3.89276E-27
6.37819E-01 3.79057E-27
6.42008E-01 3.69115E-27
6.46186E-01 3.59440E-27
6.50353E-01 3.50026E-27
6.54508E-01 3.40864E-27
6.58652E-01 3.31946E-27
6.62784E-01 3.23266E-27
6.66903E-01 3.14816E-27
6.71010E-01 3.06590E-27
6.75104E-01 2.98580E-27
6.79184E-01 2.90781E-27
6.83251E-01 2.83187E-27
6.87303E-01 2.75791E-27
6.91342E-01 2.68588E-27
6.95366E-01 2.61571E-27
6.99375E-01 2.54737E-27
7.03368E-01 2.48079E-27
7.07347E-01 2.41592E-27
7.11309E-01 2.35272E-27
7.15256E-01 2.29114E-27
7.19186E-01 2.23113E-27
7.23099E-01 2.17265E-27
7.26995E-01 2.11566E-27
7.30874E-01 2.06011E-27
7.34736E-01 2.00597E-27
7.38579E-01 1.95319E-27
7.42405E-01 1.90174E-27
7.46212E-01 1.85158E-27
7.50000E-01 1.80267E-27
7.53769E-01 1.75499E-27
7.57519E-01 1.70849E-27
7.61249E-01 1.66315E-27
7.64960E-01 1.61894E-27
7.68650E-01 1.57582E-27
7.72320E-01 1.53376E-27
7.75968E-01 1.49274E-27
7.79596E-01 1.45274E-27
7.83203E-01 1.41371E-27
7.86788E-01 1.37564E-27
7.90351E-01 1.33850E-27
7.93893E-01 1.30227E-27
7.97411E-01 1.26692E-27
8.00908E-01 1.23243E-27
8.04381E-01 1.19878E-27
8.07831E-01 1.16595E-27
8.11257E-01 1.13391E-27
8.14660E-01 1.10265E-27
8.18039E-01 1.07214E-27
8.21394E-01 1.04237E-27
8.24724E-01 1.01332E-27
8.28030E-01 9.84967E-28
8.31310E-01 9.57295E-28
8.34565E-01 9.30289E-28
8.37795E-01 9.03931E-28
8.40999E-01 8.78205E-28
8.44177E-01 8.53096E-28
8.47329E-01 8.28588E-28
8.50455E-01 8.04668E-28
8.53553E-01 7.81319E-28
8.56625E-01 7.58530E-28
8.59670E-01 7.36286E-28
8.62687E-01 7.14574E-28
8.65677E-01 6.93381E-28
8.68639E-01 6.72696E-28
8.71572E-01 6.52505E-28
8.74478E-01 6.32798E-28
8.77355E-01 6.13562E-28
8.80203E-01 5.94788E-28
8.83022E-01 5.76464E-28
8.85812E-01 5.58579E-28
8.88573E-01 5.41125E-28
8.91304E-01 5.24090E-28
8.94005E-01 5.07466E-28
8.96677E-01 4.91242E-28
8.99318E-01 4.75411E-28
9.01928E-01 4.59963E-28
9.04508E-01 4.44889E-28
9.07058E-01 4.30182E-28
9.09576E-01 4.15834E-28
9.12063E-01 4.01836E-28
9.14519E-01 3.88180E-28
9.16943E-01 3.74861E-28
9.19335E-01 3.61870E-28
9.21696E-01 3.49200E-28
9.24024E-01 3.36845E-28
9.26320E-01 3.24798E-28
9.28584E-01 3.13053E-28
9.30815E-01 3.01603E-28
9.33013E-01 2.90442E-28
9.35178E-01 2.79565E-28
9.37310E-01 2.68966E-28
9.39409E-01 2.58640E-28
9.41474E-01 2.48580E-28
9.43505E-01 2.38781E-28
9.45503E-01 2.29240E-28
9.47467E-01 2.19950E-28
9.49397E-01 2.10907E-28
9.51293E-01 2.02107E-28
9.53154E-01 1.93544E-28
9.54981E-01 1.85215E-28
9.56773E-01 1.77114E-28
9.58530E-01 1.69240E-28
9.60252E-01 1.61586E-28
9.61940E-01 1.54149E-28
9.63592E-01 1.46926E-28
9.65209E-01 1.39913E-28
9.66790E-01 1.33107E-28
9.68336E-01 1.26503E-28
9.69846E-01 1.20099E-28
9.71321E-01 1.13892E-28
9.72759E-01 1.07878E-28
9.74162E-01 1.02055E-28
9.75528E-01 9.64193E-29
9.76858E-01 9.09686E-29
9.78152E-01 8.57002E-29
9.79410E-01 8.06113E-29
9.80631E-01 7.56997E-29
9.81815E-01 7.09627E-29
9.82963E-01 6.63982E-29
9.84074E-01 6.20040E-29
9.85148E-01 5.77778E-29
9.86185E-01 5.37177E-29
9.87185E-01 4.98217E-29
9.88148E-01 4.60879E-29
9.89074E-01 4.25145E-29
9.89962E-01 3.90998E-29
9.90814E-01 3.58421E-29
9.91627E-01 3.27399E-29
9.92404E-01 2.97917E-29
9.93143E-01 2.69961E-29
9.93844E-01 2.43518E-29
9.94508E-01 2.18574E-29
9.95134E-01 1.95119E-29
9.95722E-01 1.73140E-29
9.96273E-01 1.52628E-29
9.96786E-01 1.33572E-29
9.97261E-01 1.15964E-29
9.97698E-01 9.97946E-30
9.98097E-01 8.50571E-30
9.98459E-01 7.17441E-30
9.98782E-01 5.98494E-30
9.99067E-01 4.93672E-30
9.99315E-01 4.02927E-30
9.99524E-01 3.26214E-30
9.99695E-01 2.63499E-30
9.99829E-01 2.14751E-30
9.99924E-01 1.79948E-30
9.99981E-01 1.59073E-30
1.00000E+00 1.52115E-30
