 #
 # Subroutine ELSEPA. Elastic scattering of electrons and positrons
 #                    by neutral atoms and positive ions
 #
 # Projectile: positron
 # Kinetic energy = 8.00000E+07 eV = 2.93995E+06 a.u.
 #
 # WARNING: High-energy factorization with free-atom DF screening.
 #          Absorption, polarization and exchange corrections are
 #          switched off.
 #          Phase shifts are calculated for the bare nucleus.
 #          Scattering amplitudes are not evaluated.
 #
 # Element: Br,  Z =  35,  atomic weight = 7.99040E+01 g/mol
 #
 # Nuclear model: Fermi distribution
 #                Average radius = 4.60865E-13 cm
 #                Skin thickness = 5.46000E-14 cm
 #
 # Number of electrons = 35
 #
 # Total elastic cross section = 2.71507E-18 cm**2 = 9.69569E-02 a0**2
 # 1st transport cross section = 3.69221E-25 cm**2 = 1.31851E-08 a0**2
 # 2nd transport cross section = 1.09249E-24 cm**2 = 3.90134E-08 a0**2
 #
 #
 # Differential cross section:                       MU=(1-COS(THETA))/2
 #
 #  THETA        MU          DCS          DCS        Sherman      error
 #  (deg)                 (cm**2/sr)   (a0**2/sr)    function
 #----------------------------------------------------------------------
0.00000E+00 1.21856E-10
7.61557E-13 1.21732E-10
1.18994E-12 1.21662E-10
1.71346E-12 1.21577E-10
2.33225E-12 1.21477E-10
3.04617E-12 1.21362E-10
3.85530E-12 1.21231E-10
4.75964E-12 1.21085E-10
5.75917E-12 1.20925E-10
6.85391E-12 1.20749E-10
8.04379E-12 1.20559E-10
9.32893E-12 1.20354E-10
1.07092E-11 1.20134E-10
1.21847E-11 1.19900E-10
1.37554E-11 1.19651E-10
1.54213E-11 1.19389E-10
1.71823E-11 1.19112E-10
1.90386E-11 1.18821E-10
2.09900E-11 1.18516E-10
2.30367E-11 1.18198E-10
2.51785E-11 1.17867E-10
2.74156E-11 1.17522E-10
2.97478E-11 1.17164E-10
3.21752E-11 1.16793E-10
3.46979E-11 1.16409E-10
3.73157E-11 1.16008E-10
4.00286E-11 1.15593E-10
4.28368E-11 1.15169E-10
4.57402E-11 1.14736E-10
4.87388E-11 1.14294E-10
5.18325E-11 1.13843E-10
5.50215E-11 1.13385E-10
5.83057E-11 1.12898E-10
6.16850E-11 1.12402E-10
6.51595E-11 1.11899E-10
6.87293E-11 1.11389E-10
7.23943E-11 1.10874E-10
7.61544E-11 1.10352E-10
1.18991E-10 1.04559E-10
1.71347E-10 9.80934E-11
2.33223E-10 9.11722E-11
3.04617E-10 8.40590E-11
3.85531E-10 7.69575E-11
4.75965E-10 7.00213E-11
5.75917E-10 6.34146E-11
6.85389E-10 5.71781E-11
8.04380E-10 5.14277E-11
9.32891E-10 4.61257E-11
1.07092E-09 4.13432E-11
1.21847E-09 3.70039E-11
1.37554E-09 3.31398E-11
1.54213E-09 2.96797E-11
1.71823E-09 2.66170E-11
1.90386E-09 2.38970E-11
2.09900E-09 2.14952E-11
2.30367E-09 1.93710E-11
2.51785E-09 1.74951E-11
2.74156E-09 1.58378E-11
2.97478E-09 1.43716E-11
3.21752E-09 1.30745E-11
3.46978E-09 1.19233E-11
3.73156E-09 1.08707E-11
4.00286E-09 9.93731E-12
4.28368E-09 9.11861E-12
4.57402E-09 8.39776E-12
4.87388E-09 7.76071E-12
5.18326E-09 7.19570E-12
5.50215E-09 6.69287E-12
5.83057E-09 6.20320E-12
6.16850E-09 5.76281E-12
6.51596E-09 5.36854E-12
6.87293E-09 5.01450E-12
7.23942E-09 4.69570E-12
7.61544E-09 4.40785E-12
1.18991E-08 2.44474E-12
1.71347E-08 1.46737E-12
2.33223E-08 9.19125E-13
3.04617E-08 5.95417E-13
3.85531E-08 3.97798E-13
4.75965E-08 2.73567E-13
5.75917E-08 1.93684E-13
6.85389E-08 1.40783E-13
8.04380E-08 1.04901E-13
9.32891E-08 7.98732E-14
1.07092E-07 6.20002E-14
1.21847E-07 4.89410E-14
1.37554E-07 3.92132E-14
1.54213E-07 3.18153E-14
1.71823E-07 2.61026E-14
1.90386E-07 2.16207E-14
2.09900E-07 1.80645E-14
2.30367E-07 1.52095E-14
2.51785E-07 1.28958E-14
2.74156E-07 1.10034E-14
2.97478E-07 9.44258E-15
3.21752E-07 8.14639E-15
3.46978E-07 7.06224E-15
3.73156E-07 6.14705E-15
4.00286E-07 5.37648E-15
4.28368E-07 4.72568E-15
4.57402E-07 4.16418E-15
4.87388E-07 3.68516E-15
5.18325E-07 3.27305E-15
5.50215E-07 2.91495E-15
5.83057E-07 2.60526E-15
6.16850E-07 2.33502E-15
6.51596E-07 2.09853E-15
6.87293E-07 1.89164E-15
7.23942E-07 1.70900E-15
7.61543E-07 1.54796E-15
1.18991E-06 6.45401E-16
1.71347E-06 3.15327E-16
2.33223E-06 1.71996E-16
3.04617E-06 1.01678E-16
3.85531E-06 6.39069E-17
4.75964E-06 4.21515E-17
5.75916E-06 2.89099E-17
6.85388E-06 2.04791E-17
8.04378E-06 1.49064E-17
9.32888E-06 1.11048E-17
1.07092E-05 8.44029E-18
1.21846E-05 6.52823E-18
1.37553E-05 5.12771E-18
1.54212E-05 4.08305E-18
1.71822E-05 3.29113E-18
1.90385E-05 2.68171E-18
2.09899E-05 2.20757E-18
2.30365E-05 1.83358E-18
2.51783E-05 1.53536E-18
2.74153E-05 1.29523E-18
2.97475E-05 1.10019E-18
3.21749E-05 9.40478E-19
3.46974E-05 8.08729E-19
3.73152E-05 6.99279E-19
4.00281E-05 6.07746E-19
4.28362E-05 5.30715E-19
4.57395E-05 4.65502E-19
4.87380E-05 4.09992E-19
5.18317E-05 3.62500E-19
5.50205E-05 3.21678E-19
5.83045E-05 2.86438E-19
6.16838E-05 2.55891E-19
6.51582E-05 2.29311E-19
6.87277E-05 2.06096E-19
7.23925E-05 1.85746E-19
7.61524E-05 1.67859E-19
9.21439E-05 1.14609E-19
1.09658E-04 8.08865E-20
1.28695E-04 5.87012E-20
1.49255E-04 4.36208E-20
1.71338E-04 3.30853E-20
1.94942E-04 2.55447E-20
2.20070E-04 2.00337E-20
2.46720E-04 1.59310E-20
2.74892E-04 1.28259E-20
3.04586E-04 1.04413E-20
3.35803E-04 8.58540E-21
3.68542E-04 7.12380E-21
4.02802E-04 5.96010E-21
4.38585E-04 5.02435E-21
4.75889E-04 4.26506E-21
5.14715E-04 3.64375E-21
5.55063E-04 3.13143E-21
5.96931E-04 2.70595E-21
6.40321E-04 2.35024E-21
6.85233E-04 2.05103E-21
7.31665E-04 1.79788E-21
7.79618E-04 1.58255E-21
8.29092E-04 1.39845E-21
8.80086E-04 1.24032E-21
9.32601E-04 1.10388E-21
9.86636E-04 9.85663E-22
1.04219E-03 8.82825E-22
1.09927E-03 7.93025E-22
1.15786E-03 7.14337E-22
1.21797E-03 6.45147E-22
1.27961E-03 5.84118E-22
1.34276E-03 5.30119E-22
1.40743E-03 4.82205E-22
1.47362E-03 4.39568E-22
1.54133E-03 4.01532E-22
1.61056E-03 3.67506E-22
1.68131E-03 3.37005E-22
1.75357E-03 3.09591E-22
1.82735E-03 2.84901E-22
1.90265E-03 2.62617E-22
1.97947E-03 2.42462E-22
2.05780E-03 2.24198E-22
2.13765E-03 2.07616E-22
2.21902E-03 1.92534E-22
2.30190E-03 1.78791E-22
2.38630E-03 1.66249E-22
2.47222E-03 1.54784E-22
2.55965E-03 1.44286E-22
2.64859E-03 1.34660E-22
2.73905E-03 1.25820E-22
2.83103E-03 1.17690E-22
2.92452E-03 1.10204E-22
3.01952E-03 1.03301E-22
3.11604E-03 9.69283E-23
3.21407E-03 9.10369E-23
3.31362E-03 8.55843E-23
3.41468E-03 8.05318E-23
3.51725E-03 7.58450E-23
3.62133E-03 7.14924E-23
3.72692E-03 6.74461E-23
3.83403E-03 6.36805E-23
3.94265E-03 6.01726E-23
4.05278E-03 5.69017E-23
4.16442E-03 5.38487E-23
4.27757E-03 5.09966E-23
4.39223E-03 4.83298E-23
4.50840E-03 4.58339E-23
4.62608E-03 4.34962E-23
4.74527E-03 4.13046E-23
4.86597E-03 3.92485E-23
4.98817E-03 3.73179E-23
5.11188E-03 3.55038E-23
5.23711E-03 3.37978E-23
5.36383E-03 3.21924E-23
5.49207E-03 3.06805E-23
5.62181E-03 2.92557E-23
5.75306E-03 2.79120E-23
5.88581E-03 2.66440E-23
6.02007E-03 2.54467E-23
6.15583E-03 2.43154E-23
6.29310E-03 2.32457E-23
6.43187E-03 2.22338E-23
6.57214E-03 2.12758E-23
6.71392E-03 2.03685E-23
6.85720E-03 1.95086E-23
7.00198E-03 1.86933E-23
7.14827E-03 1.79197E-23
7.29605E-03 1.71854E-23
7.44534E-03 1.64879E-23
7.59612E-03 1.58252E-23
7.97965E-03 1.43071E-23
8.37255E-03 1.29651E-23
8.77480E-03 1.17754E-23
9.18641E-03 1.07177E-23
9.60736E-03 9.77500E-24
1.00376E-02 8.93261E-24
1.04773E-02 8.17806E-24
1.09262E-02 7.50062E-24
1.13844E-02 6.89108E-24
1.18520E-02 6.34148E-24
1.23288E-02 5.84490E-24
1.28150E-02 5.39536E-24
1.33104E-02 4.98765E-24
1.38150E-02 4.61720E-24
1.43290E-02 4.28002E-24
1.48521E-02 3.97261E-24
1.53845E-02 3.69189E-24
1.59262E-02 3.43515E-24
1.64770E-02 3.19998E-24
1.70371E-02 2.98426E-24
1.76063E-02 2.78611E-24
1.81848E-02 2.60384E-24
1.87724E-02 2.43597E-24
1.93692E-02 2.28116E-24
1.99751E-02 2.13822E-24
2.05901E-02 2.00609E-24
2.12143E-02 1.88380E-24
2.18476E-02 1.77049E-24
2.24900E-02 1.66540E-24
2.31415E-02 1.56782E-24
2.38021E-02 1.47713E-24
2.44717E-02 1.39275E-24
2.51504E-02 1.31417E-24
2.58382E-02 1.24092E-24
2.65349E-02 1.17258E-24
2.72407E-02 1.10877E-24
2.79555E-02 1.04913E-24
2.86793E-02 9.93334E-25
2.94120E-02 9.41104E-25
3.01537E-02 8.92169E-25
3.09043E-02 8.46285E-25
3.16639E-02 8.03230E-25
3.24324E-02 7.62799E-25
3.32098E-02 7.24805E-25
3.39961E-02 6.89076E-25
3.47912E-02 6.55454E-25
3.55952E-02 6.23794E-25
3.64081E-02 5.93962E-25
3.72297E-02 5.65834E-25
3.80602E-02 5.39296E-25
3.88995E-02 5.14244E-25
3.97476E-02 4.90579E-25
4.06044E-02 4.68213E-25
4.14700E-02 4.47062E-25
4.23443E-02 4.27048E-25
4.32273E-02 4.08101E-25
4.41190E-02 3.90154E-25
4.50194E-02 3.73144E-25
4.59284E-02 3.57017E-25
4.68461E-02 3.41716E-25
4.87074E-02 3.13404E-25
5.06030E-02 2.87851E-25
5.25328E-02 2.64745E-25
5.44967E-02 2.43817E-25
5.64946E-02 2.24828E-25
5.85262E-02 2.07572E-25
6.05914E-02 1.91865E-25
6.26901E-02 1.77547E-25
6.48222E-02 1.64477E-25
6.69873E-02 1.52529E-25
6.91854E-02 1.41592E-25
7.14163E-02 1.31567E-25
7.36799E-02 1.22367E-25
7.59760E-02 1.13914E-25
7.83043E-02 1.06138E-25
8.06647E-02 9.89767E-26
8.30571E-02 9.23744E-26
8.54812E-02 8.62808E-26
8.79369E-02 8.06511E-26
9.04240E-02 7.54447E-26
9.29422E-02 7.06253E-26
9.54915E-02 6.61597E-26
9.80716E-02 6.20184E-26
1.00682E-01 5.81744E-26
1.03323E-01 5.46033E-26
1.05995E-01 5.12830E-26
1.08696E-01 4.81934E-26
1.11427E-01 4.53162E-26
1.14188E-01 4.26348E-26
1.16978E-01 4.01340E-26
1.19797E-01 3.77999E-26
1.22645E-01 3.56201E-26
1.25522E-01 3.35827E-26
1.28428E-01 3.16774E-26
1.31361E-01 2.98944E-26
1.34323E-01 2.82248E-26
1.37313E-01 2.66604E-26
1.40330E-01 2.51937E-26
1.43375E-01 2.38179E-26
1.46447E-01 2.25266E-26
1.49545E-01 2.13139E-26
1.52671E-01 2.01745E-26
1.55823E-01 1.91032E-26
1.59001E-01 1.80957E-26
1.62205E-01 1.71475E-26
1.65435E-01 1.62548E-26
1.68690E-01 1.54140E-26
1.71970E-01 1.46216E-26
1.75276E-01 1.38745E-26
1.78606E-01 1.31698E-26
1.81961E-01 1.25049E-26
1.85340E-01 1.18772E-26
1.88743E-01 1.12843E-26
1.92169E-01 1.07243E-26
1.95619E-01 1.01949E-26
1.99092E-01 9.69441E-27
2.02589E-01 9.22100E-27
2.06107E-01 8.77305E-27
2.09649E-01 8.34906E-27
2.13212E-01 7.94758E-27
2.16797E-01 7.56731E-27
2.20404E-01 7.20700E-27
2.24032E-01 6.86549E-27
2.27680E-01 6.54170E-27
2.31350E-01 6.23461E-27
2.35040E-01 5.94327E-27
2.38751E-01 5.66679E-27
2.42481E-01 5.40434E-27
2.46231E-01 5.15513E-27
2.50000E-01 4.91843E-27
2.53788E-01 4.69355E-27
2.57595E-01 4.47984E-27
2.61421E-01 4.27670E-27
2.65264E-01 4.08354E-27
2.69126E-01 3.89984E-27
2.73005E-01 3.72508E-27
2.76901E-01 3.55880E-27
2.80814E-01 3.40054E-27
2.84744E-01 3.24988E-27
2.88691E-01 3.10642E-27
2.92653E-01 2.96979E-27
2.96632E-01 2.83963E-27
3.00625E-01 2.71561E-27
3.04634E-01 2.59742E-27
3.08658E-01 2.48476E-27
3.12697E-01 2.37734E-27
3.16749E-01 2.27491E-27
3.20816E-01 2.17721E-27
3.24896E-01 2.08401E-27
3.28990E-01 1.99507E-27
3.33097E-01 1.91020E-27
3.37216E-01 1.82919E-27
3.41348E-01 1.75186E-27
3.45492E-01 1.67801E-27
3.49647E-01 1.60748E-27
3.53814E-01 1.54012E-27
3.57992E-01 1.47576E-27
3.62181E-01 1.41427E-27
3.66381E-01 1.35551E-27
3.70590E-01 1.29934E-27
3.74810E-01 1.24564E-27
3.79039E-01 1.19431E-27
3.83277E-01 1.14522E-27
3.87524E-01 1.09827E-27
3.91780E-01 1.05336E-27
3.96044E-01 1.01040E-27
4.00316E-01 9.69295E-28
4.04596E-01 9.29960E-28
4.08882E-01 8.92314E-28
4.13176E-01 8.56280E-28
4.17476E-01 8.21784E-28
4.21783E-01 7.88756E-28
4.26095E-01 7.57129E-28
4.30413E-01 7.26841E-28
4.34737E-01 6.97831E-28
4.39065E-01 6.70042E-28
4.43398E-01 6.43418E-28
4.47736E-01 6.17909E-28
4.52077E-01 5.93465E-28
4.56422E-01 5.70037E-28
4.60770E-01 5.47583E-28
4.65122E-01 5.26058E-28
4.69476E-01 5.05422E-28
4.73832E-01 4.85637E-28
4.78190E-01 4.66664E-28
4.82550E-01 4.48469E-28
4.86912E-01 4.31018E-28
4.91274E-01 4.14279E-28
4.95637E-01 3.98221E-28
5.00000E-01 3.82815E-28
5.04363E-01 3.68033E-28
5.08726E-01 3.53848E-28
5.13088E-01 3.40234E-28
5.17450E-01 3.27169E-28
5.21810E-01 3.14627E-28
5.26168E-01 3.02588E-28
5.30524E-01 2.91029E-28
5.34878E-01 2.79932E-28
5.39230E-01 2.69275E-28
5.43578E-01 2.59042E-28
5.47923E-01 2.49214E-28
5.52264E-01 2.39774E-28
5.56602E-01 2.30706E-28
5.60935E-01 2.21996E-28
5.65263E-01 2.13627E-28
5.69587E-01 2.05586E-28
5.73905E-01 1.97860E-28
5.78217E-01 1.90436E-28
5.82524E-01 1.83300E-28
5.86824E-01 1.76442E-28
5.91118E-01 1.69850E-28
5.95404E-01 1.63514E-28
5.99684E-01 1.57422E-28
6.03956E-01 1.51565E-28
6.08220E-01 1.45934E-28
6.12476E-01 1.40519E-28
6.16723E-01 1.35312E-28
6.20961E-01 1.30304E-28
6.25190E-01 1.25487E-28
6.29410E-01 1.20854E-28
6.33619E-01 1.16398E-28
6.37819E-01 1.12111E-28
6.42008E-01 1.07987E-28
6.46186E-01 1.04018E-28
6.50353E-01 1.00200E-28
6.54508E-01 9.65259E-29
6.58652E-01 9.29901E-29
6.62784E-01 8.95873E-29
6.66903E-01 8.63122E-29
6.71010E-01 8.31598E-29
6.75104E-01 8.01254E-29
6.79184E-01 7.72042E-29
6.83251E-01 7.43920E-29
6.87303E-01 7.16844E-29
6.91342E-01 6.90775E-29
6.95366E-01 6.65672E-29
6.99375E-01 6.41499E-29
7.03368E-01 6.18219E-29
7.07347E-01 5.95799E-29
7.11309E-01 5.74206E-29
7.15256E-01 5.53406E-29
7.19186E-01 5.33371E-29
7.23099E-01 5.14070E-29
7.26995E-01 4.95476E-29
7.30874E-01 4.77562E-29
7.34736E-01 4.60302E-29
7.38579E-01 4.43671E-29
7.42405E-01 4.27645E-29
7.46212E-01 4.12202E-29
7.50000E-01 3.97318E-29
7.53769E-01 3.82974E-29
7.57519E-01 3.69149E-29
7.61249E-01 3.55823E-29
7.64960E-01 3.42977E-29
7.68650E-01 3.30594E-29
7.72320E-01 3.18656E-29
7.75968E-01 3.07147E-29
7.79596E-01 2.96051E-29
7.83203E-01 2.85351E-29
7.86788E-01 2.75034E-29
7.90351E-01 2.65086E-29
7.93893E-01 2.55492E-29
7.97411E-01 2.46240E-29
8.00908E-01 2.37317E-29
8.04381E-01 2.28710E-29
8.07831E-01 2.20409E-29
8.11257E-01 2.12401E-29
8.14660E-01 2.04677E-29
8.18039E-01 1.97225E-29
8.21394E-01 1.90037E-29
8.24724E-01 1.83101E-29
8.28030E-01 1.76410E-29
8.31310E-01 1.69954E-29
8.34565E-01 1.63724E-29
8.37795E-01 1.57713E-29
8.40999E-01 1.51912E-29
8.44177E-01 1.46315E-29
8.47329E-01 1.40912E-29
8.50455E-01 1.35699E-29
8.53553E-01 1.30667E-29
8.56625E-01 1.25810E-29
8.59670E-01 1.21122E-29
8.62687E-01 1.16598E-29
8.65677E-01 1.12230E-29
8.68639E-01 1.08014E-29
8.71572E-01 1.03944E-29
8.74478E-01 1.00015E-29
8.77355E-01 9.62221E-30
8.80203E-01 9.25603E-30
8.83022E-01 8.90251E-30
8.85812E-01 8.56120E-30
8.88573E-01 8.23166E-30
8.91304E-01 7.91350E-30
8.94005E-01 7.60631E-30
8.96677E-01 7.30971E-30
8.99318E-01 7.02333E-30
9.01928E-01 6.74681E-30
9.04508E-01 6.47982E-30
9.07058E-01 6.22202E-30
9.09576E-01 5.97310E-30
9.12063E-01 5.73275E-30
9.14519E-01 5.50068E-30
9.16943E-01 5.27661E-30
9.19335E-01 5.06026E-30
9.21696E-01 4.85136E-30
9.24024E-01 4.64968E-30
9.26320E-01 4.45496E-30
9.28584E-01 4.26696E-30
9.30815E-01 4.08547E-30
9.33013E-01 3.91027E-30
9.35178E-01 3.74114E-30
9.37310E-01 3.57788E-30
9.39409E-01 3.42031E-30
9.41474E-01 3.26822E-30
9.43505E-01 3.12145E-30
9.45503E-01 2.97982E-30
9.47467E-01 2.84316E-30
9.49397E-01 2.71131E-30
9.51293E-01 2.58411E-30
9.53154E-01 2.46143E-30
9.54981E-01 2.34311E-30
9.56773E-01 2.22901E-30
9.58530E-01 2.11900E-30
9.60252E-01 2.01297E-30
9.61940E-01 1.91077E-30
9.63592E-01 1.81229E-30
9.65209E-01 1.71743E-30
9.66790E-01 1.62607E-30
9.68336E-01 1.53811E-30
9.69846E-01 1.45343E-30
9.71321E-01 1.37196E-30
9.72759E-01 1.29359E-30
9.74162E-01 1.21824E-30
9.75528E-01 1.14582E-30
9.76858E-01 1.07624E-30
9.78152E-01 1.00943E-30
9.79410E-01 9.45318E-31
9.80631E-01 8.83823E-31
9.81815E-01 8.24877E-31
9.82963E-01 7.68416E-31
9.84074E-01 7.14375E-31
9.85148E-01 6.62693E-31
9.86185E-01 6.13313E-31
9.87185E-01 5.66179E-31
9.88148E-01 5.21238E-31
9.89074E-01 4.78440E-31
9.89962E-01 4.37738E-31
9.90814E-01 3.99085E-31
9.91627E-01 3.62439E-31
9.92404E-01 3.27759E-31
9.93143E-01 2.95006E-31
9.93844E-01 2.64144E-31
9.94508E-01 2.35139E-31
9.95134E-01 2.07959E-31
9.95722E-01 1.82573E-31
9.96273E-01 1.58953E-31
9.96786E-01 1.37073E-31
9.97261E-01 1.16910E-31
9.97698E-01 9.84407E-32
9.98097E-01 8.16448E-32
9.98459E-01 6.65034E-32
9.98782E-01 5.30005E-32
9.99067E-01 4.11209E-32
9.99315E-01 3.08516E-32
9.99524E-01 2.21812E-32
9.99695E-01 1.51002E-32
9.99829E-01 9.60073E-33
9.99924E-01 5.67694E-33
9.99981E-01 3.32442E-33
1.00000E+00 2.54048E-33
