 #
 # Subroutine ELSEPA. Elastic scattering of electrons and positrons
 #                    by neutral atoms and positive ions
 #
 # Projectile: positron
 # Kinetic energy = 3.50000E+07 eV = 1.28623E+06 a.u.
 #
 # WARNING: High-energy factorization with free-atom DF screening.
 #          Absorption, polarization and exchange corrections are
 #          switched off.
 #          Phase shifts are calculated for the bare nucleus.
 #          Scattering amplitudes are not evaluated.
 #
 # Element: Br,  Z =  35,  atomic weight = 7.99040E+01 g/mol
 #
 # Nuclear model: Fermi distribution
 #                Average radius = 4.60865E-13 cm
 #                Skin thickness = 5.46000E-14 cm
 #
 # Number of electrons = 35
 #
 # Total elastic cross section = 2.71522E-18 cm**2 = 9.69623E-02 a0**2
 # 1st transport cross section = 1.76458E-24 cm**2 = 6.30143E-08 a0**2
 # 2nd transport cross section = 5.15782E-24 cm**2 = 1.84189E-07 a0**2
 #
 #
 # Differential cross section:                       MU=(1-COS(THETA))/2
 #
 #  THETA        MU          DCS          DCS        Sherman      error
 #  (deg)                 (cm**2/sr)   (a0**2/sr)    function
 #----------------------------------------------------------------------
0.00000E+00 2.37062E-11
7.61557E-13 2.37015E-11
1.18994E-12 2.36988E-11
1.71346E-12 2.36956E-11
2.33225E-12 2.36918E-11
3.04617E-12 2.36874E-11
3.85530E-12 2.36824E-11
4.75964E-12 2.36768E-11
5.75917E-12 2.36707E-11
6.85391E-12 2.36639E-11
8.04379E-12 2.36566E-11
9.32893E-12 2.36488E-11
1.07092E-11 2.36403E-11
1.21847E-11 2.36313E-11
1.37554E-11 2.36217E-11
1.54213E-11 2.36115E-11
1.71823E-11 2.36007E-11
1.90386E-11 2.35894E-11
2.09900E-11 2.35775E-11
2.30367E-11 2.35650E-11
2.51785E-11 2.35520E-11
2.74156E-11 2.35383E-11
2.97478E-11 2.35242E-11
3.21752E-11 2.35094E-11
3.46979E-11 2.34941E-11
3.73157E-11 2.34783E-11
4.00286E-11 2.34618E-11
4.28368E-11 2.34448E-11
4.57402E-11 2.34273E-11
4.87388E-11 2.34092E-11
5.18325E-11 2.33906E-11
5.50215E-11 2.33714E-11
5.83057E-11 2.33516E-11
6.16850E-11 2.33313E-11
6.51595E-11 2.33105E-11
6.87293E-11 2.32891E-11
7.23943E-11 2.32672E-11
7.61544E-11 2.32448E-11
1.18991E-10 2.29913E-11
1.71347E-10 2.26870E-11
2.33223E-10 2.23318E-11
3.04617E-10 2.19362E-11
3.85531E-10 2.14993E-11
4.75965E-10 2.10234E-11
5.75917E-10 2.05209E-11
6.85389E-10 1.99857E-11
8.04380E-10 1.94269E-11
9.32891E-10 1.88561E-11
1.07092E-09 1.82608E-11
1.21847E-09 1.76581E-11
1.37554E-09 1.70564E-11
1.54213E-09 1.64371E-11
1.71823E-09 1.58254E-11
1.90386E-09 1.52208E-11
2.09900E-09 1.46117E-11
2.30367E-09 1.40184E-11
2.51785E-09 1.34358E-11
2.74156E-09 1.28595E-11
2.97478E-09 1.23037E-11
3.21752E-09 1.17603E-11
3.46978E-09 1.12310E-11
3.73156E-09 1.07243E-11
4.00286E-09 1.02306E-11
4.28368E-09 9.75552E-12
4.57402E-09 9.30310E-12
4.87388E-09 8.86354E-12
5.18326E-09 8.44466E-12
5.50215E-09 8.04722E-12
5.83057E-09 7.66198E-12
6.16850E-09 7.29754E-12
6.51596E-09 6.95151E-12
6.87293E-09 6.61898E-12
7.23942E-09 6.30500E-12
7.61544E-09 6.00665E-12
1.18991E-08 3.74828E-12
1.71347E-08 2.43666E-12
2.33223E-08 1.65058E-12
3.04617E-08 1.18151E-12
3.85531E-08 8.74050E-13
4.75965E-08 6.63544E-13
5.75917E-08 5.17117E-13
6.85389E-08 4.07421E-13
8.04380E-08 3.25032E-13
9.32891E-08 2.62838E-13
1.07092E-07 2.13000E-13
1.21847E-07 1.74237E-13
1.37554E-07 1.43774E-13
1.54213E-07 1.18808E-13
1.71823E-07 9.90188E-14
1.90386E-07 8.30460E-14
2.09900E-07 6.99307E-14
2.30367E-07 5.93014E-14
2.51785E-07 5.05615E-14
2.74156E-07 4.33273E-14
2.97478E-07 3.73495E-14
3.21752E-07 3.23553E-14
3.46978E-07 2.81684E-14
3.73156E-07 2.46475E-14
4.00286E-07 2.16611E-14
4.28368E-07 1.91216E-14
4.57402E-07 1.69521E-14
4.87388E-07 1.50824E-14
5.18325E-07 1.34697E-14
5.50215E-07 1.20729E-14
5.83057E-07 1.08547E-14
6.16850E-07 9.79080E-15
6.51596E-07 8.85746E-15
6.87293E-07 8.03384E-15
7.23942E-07 7.30625E-15
7.61543E-07 6.66056E-15
1.18991E-06 2.93212E-15
1.71347E-06 1.48207E-15
2.33223E-06 8.22647E-16
3.04617E-06 4.90990E-16
3.85531E-06 3.10130E-16
4.75964E-06 2.05297E-16
5.75916E-06 1.41232E-16
6.85388E-06 1.00344E-16
8.04378E-06 7.32651E-17
9.32888E-06 5.47466E-17
1.07092E-05 4.17374E-17
1.21846E-05 3.23782E-17
1.37553E-05 2.55033E-17
1.54212E-05 2.03619E-17
1.71822E-05 1.64532E-17
1.90385E-05 1.34372E-17
2.09899E-05 1.10849E-17
2.30365E-05 9.22460E-18
2.51783E-05 7.73790E-18
2.74153E-05 6.53819E-18
2.97475E-05 5.56167E-18
3.21749E-05 4.76064E-18
3.46974E-05 4.09864E-18
3.73152E-05 3.54782E-18
4.00281E-05 3.08650E-18
4.28362E-05 2.69771E-18
4.57395E-05 2.36817E-18
4.87380E-05 2.08733E-18
5.18317E-05 1.84680E-18
5.50205E-05 1.63986E-18
5.83045E-05 1.46103E-18
6.16838E-05 1.30591E-18
6.51582E-05 1.17082E-18
6.87277E-05 1.05275E-18
7.23925E-05 9.49186E-19
7.61524E-05 8.58049E-19
9.21439E-05 5.86565E-19
1.09658E-04 4.14344E-19
1.28695E-04 3.00902E-19
1.49255E-04 2.23716E-19
1.71338E-04 1.69752E-19
1.94942E-04 1.31105E-19
2.20070E-04 1.02847E-19
2.46720E-04 8.18029E-20
2.74892E-04 6.58704E-20
3.04586E-04 5.36319E-20
3.35803E-04 4.41050E-20
3.68542E-04 3.66007E-20
4.02802E-04 3.06251E-20
4.38585E-04 2.58193E-20
4.75889E-04 2.19194E-20
5.14715E-04 1.87278E-20
5.55063E-04 1.60959E-20
5.96931E-04 1.39099E-20
6.40321E-04 1.20823E-20
6.85233E-04 1.05448E-20
7.31665E-04 9.24398E-21
7.79618E-04 8.13740E-21
8.29092E-04 7.19131E-21
8.80086E-04 6.37860E-21
9.32601E-04 5.67735E-21
9.86636E-04 5.06971E-21
1.04219E-03 4.54110E-21
1.09927E-03 4.07950E-21
1.15786E-03 3.67500E-21
1.21797E-03 3.31931E-21
1.27961E-03 3.00556E-21
1.34276E-03 2.72795E-21
1.40743E-03 2.48160E-21
1.47362E-03 2.26238E-21
1.54133E-03 2.06679E-21
1.61056E-03 1.89185E-21
1.68131E-03 1.73499E-21
1.75357E-03 1.59402E-21
1.82735E-03 1.46705E-21
1.90265E-03 1.35244E-21
1.97947E-03 1.24879E-21
2.05780E-03 1.15485E-21
2.13765E-03 1.06956E-21
2.21902E-03 9.91979E-22
2.30190E-03 9.21286E-22
2.38630E-03 8.56766E-22
2.47222E-03 7.97781E-22
2.55965E-03 7.43772E-22
2.64859E-03 6.94244E-22
2.73905E-03 6.48759E-22
2.83103E-03 6.06927E-22
2.92452E-03 5.68404E-22
3.01952E-03 5.32881E-22
3.11604E-03 5.00081E-22
3.21407E-03 4.69758E-22
3.31362E-03 4.41691E-22
3.41468E-03 4.15683E-22
3.51725E-03 3.91556E-22
3.62133E-03 3.69148E-22
3.72692E-03 3.48314E-22
3.83403E-03 3.28924E-22
3.94265E-03 3.10861E-22
4.05278E-03 2.94016E-22
4.16442E-03 2.78293E-22
4.27757E-03 2.63603E-22
4.39223E-03 2.49866E-22
4.50840E-03 2.37009E-22
4.62608E-03 2.24965E-22
4.74527E-03 2.13674E-22
4.86597E-03 2.03079E-22
4.98817E-03 1.93130E-22
5.11188E-03 1.83781E-22
5.23711E-03 1.74988E-22
5.36383E-03 1.66713E-22
5.49207E-03 1.58919E-22
5.62181E-03 1.51573E-22
5.75306E-03 1.44645E-22
5.88581E-03 1.38106E-22
6.02007E-03 1.31932E-22
6.15583E-03 1.26096E-22
6.29310E-03 1.20579E-22
6.43187E-03 1.15358E-22
6.57214E-03 1.10416E-22
6.71392E-03 1.05735E-22
6.85720E-03 1.01297E-22
7.00198E-03 9.70888E-23
7.14827E-03 9.30959E-23
7.29605E-03 8.93053E-23
7.44534E-03 8.57044E-23
7.59612E-03 8.22821E-23
7.97965E-03 7.44420E-23
8.37255E-03 6.75085E-23
8.77480E-03 6.13601E-23
9.18641E-03 5.58924E-23
9.60736E-03 5.10169E-23
1.00376E-02 4.66588E-23
1.04773E-02 4.27536E-23
1.09262E-02 3.92461E-23
1.13844E-02 3.60889E-23
1.18520E-02 3.32409E-23
1.23288E-02 3.06666E-23
1.28150E-02 2.83352E-23
1.33104E-02 2.62196E-23
1.38150E-02 2.42966E-23
1.43290E-02 2.25454E-23
1.48521E-02 2.09481E-23
1.53845E-02 1.94887E-23
1.59262E-02 1.81533E-23
1.64770E-02 1.69294E-23
1.70371E-02 1.58062E-23
1.76063E-02 1.47739E-23
1.81848E-02 1.38237E-23
1.87724E-02 1.29482E-23
1.93692E-02 1.21402E-23
1.99751E-02 1.13938E-23
2.05901E-02 1.07033E-23
2.12143E-02 1.00639E-23
2.18476E-02 9.47111E-24
2.24900E-02 8.92090E-24
2.31415E-02 8.40969E-24
2.38021E-02 7.93423E-24
2.44717E-02 7.49156E-24
2.51504E-02 7.07902E-24
2.58382E-02 6.69420E-24
2.65349E-02 6.33490E-24
2.72407E-02 5.99913E-24
2.79555E-02 5.68507E-24
2.86793E-02 5.39106E-24
2.94120E-02 5.11561E-24
3.01537E-02 4.85732E-24
3.09043E-02 4.61494E-24
3.16639E-02 4.38731E-24
3.24324E-02 4.17337E-24
3.32098E-02 3.97216E-24
3.39961E-02 3.78278E-24
3.47912E-02 3.60441E-24
3.55952E-02 3.43629E-24
3.64081E-02 3.27773E-24
3.72297E-02 3.12809E-24
3.80602E-02 2.98678E-24
3.88995E-02 2.85325E-24
3.97476E-02 2.72699E-24
4.06044E-02 2.60755E-24
4.14700E-02 2.49447E-24
4.23443E-02 2.38737E-24
4.32273E-02 2.28588E-24
4.41190E-02 2.18964E-24
4.50194E-02 2.09833E-24
4.59284E-02 2.01166E-24
4.68461E-02 1.92935E-24
4.87074E-02 1.77679E-24
5.06030E-02 1.63878E-24
5.25328E-02 1.51370E-24
5.44967E-02 1.40014E-24
5.64946E-02 1.29685E-24
5.85262E-02 1.20275E-24
6.05914E-02 1.11688E-24
6.26901E-02 1.03840E-24
6.48222E-02 9.66568E-25
6.69873E-02 9.00721E-25
6.91854E-02 8.40278E-25
7.14163E-02 7.84718E-25
7.36799E-02 7.33582E-25
7.59760E-02 6.86456E-25
7.83043E-02 6.42973E-25
8.06647E-02 6.02803E-25
8.30571E-02 5.65652E-25
8.54812E-02 5.31252E-25
8.79369E-02 4.99367E-25
9.04240E-02 4.69780E-25
9.29422E-02 4.42299E-25
9.54915E-02 4.16748E-25
9.80716E-02 3.92968E-25
1.00682E-01 3.70815E-25
1.03323E-01 3.50160E-25
1.05995E-01 3.30884E-25
1.08696E-01 3.12879E-25
1.11427E-01 2.96048E-25
1.14188E-01 2.80300E-25
1.16978E-01 2.65554E-25
1.19797E-01 2.51737E-25
1.22645E-01 2.38779E-25
1.25522E-01 2.26617E-25
1.28428E-01 2.15196E-25
1.31361E-01 2.04462E-25
1.34323E-01 1.94366E-25
1.37313E-01 1.84865E-25
1.40330E-01 1.75918E-25
1.43375E-01 1.67486E-25
1.46447E-01 1.59536E-25
1.49545E-01 1.52034E-25
1.52671E-01 1.44953E-25
1.55823E-01 1.38263E-25
1.59001E-01 1.31940E-25
1.62205E-01 1.25960E-25
1.65435E-01 1.20302E-25
1.68690E-01 1.14946E-25
1.71970E-01 1.09872E-25
1.75276E-01 1.05064E-25
1.78606E-01 1.00504E-25
1.81961E-01 9.61790E-26
1.85340E-01 9.20738E-26
1.88743E-01 8.81757E-26
1.92169E-01 8.44725E-26
1.95619E-01 8.09528E-26
1.99092E-01 7.76061E-26
2.02589E-01 7.44225E-26
2.06107E-01 7.13927E-26
2.09649E-01 6.85081E-26
2.13212E-01 6.57606E-26
2.16797E-01 6.31427E-26
2.20404E-01 6.06471E-26
2.24032E-01 5.82674E-26
2.27680E-01 5.59972E-26
2.31350E-01 5.38306E-26
2.35040E-01 5.17623E-26
2.38751E-01 4.97870E-26
2.42481E-01 4.78998E-26
2.46231E-01 4.60963E-26
2.50000E-01 4.43721E-26
2.53788E-01 4.27231E-26
2.57595E-01 4.11456E-26
2.61421E-01 3.96360E-26
2.65264E-01 3.81908E-26
2.69126E-01 3.68070E-26
2.73005E-01 3.54814E-26
2.76901E-01 3.42113E-26
2.80814E-01 3.29940E-26
2.84744E-01 3.18269E-26
2.88691E-01 3.07077E-26
2.92653E-01 2.96340E-26
2.96632E-01 2.86037E-26
3.00625E-01 2.76148E-26
3.04634E-01 2.66655E-26
3.08658E-01 2.57537E-26
3.12697E-01 2.48779E-26
3.16749E-01 2.40364E-26
3.20816E-01 2.32277E-26
3.24896E-01 2.24502E-26
3.28990E-01 2.17027E-26
3.33097E-01 2.09837E-26
3.37216E-01 2.02920E-26
3.41348E-01 1.96264E-26
3.45492E-01 1.89858E-26
3.49647E-01 1.83691E-26
3.53814E-01 1.77753E-26
3.57992E-01 1.72034E-26
3.62181E-01 1.66525E-26
3.66381E-01 1.61216E-26
3.70590E-01 1.56100E-26
3.74810E-01 1.51169E-26
3.79039E-01 1.46414E-26
3.83277E-01 1.41829E-26
3.87524E-01 1.37407E-26
3.91780E-01 1.33140E-26
3.96044E-01 1.29024E-26
4.00316E-01 1.25051E-26
4.04596E-01 1.21216E-26
4.08882E-01 1.17513E-26
4.13176E-01 1.13938E-26
4.17476E-01 1.10485E-26
4.21783E-01 1.07150E-26
4.26095E-01 1.03927E-26
4.30413E-01 1.00813E-26
4.34737E-01 9.78038E-27
4.39065E-01 9.48946E-27
4.43398E-01 9.20820E-27
4.47736E-01 8.93622E-27
4.52077E-01 8.67319E-27
4.56422E-01 8.41877E-27
4.60770E-01 8.17263E-27
4.65122E-01 7.93447E-27
4.69476E-01 7.70400E-27
4.73832E-01 7.48093E-27
4.78190E-01 7.26499E-27
4.82550E-01 7.05593E-27
4.86912E-01 6.85349E-27
4.91274E-01 6.65744E-27
4.95637E-01 6.46755E-27
5.00000E-01 6.28360E-27
5.04363E-01 6.10537E-27
5.08726E-01 5.93268E-27
5.13088E-01 5.76531E-27
5.17450E-01 5.60309E-27
5.21810E-01 5.44584E-27
5.26168E-01 5.29338E-27
5.30524E-01 5.14556E-27
5.34878E-01 5.00220E-27
5.39230E-01 4.86317E-27
5.43578E-01 4.72830E-27
5.47923E-01 4.59747E-27
5.52264E-01 4.47053E-27
5.56602E-01 4.34735E-27
5.60935E-01 4.22782E-27
5.65263E-01 4.11180E-27
5.69587E-01 3.99918E-27
5.73905E-01 3.88985E-27
5.78217E-01 3.78370E-27
5.82524E-01 3.68063E-27
5.86824E-01 3.58054E-27
5.91118E-01 3.48332E-27
5.95404E-01 3.38889E-27
5.99684E-01 3.29716E-27
6.03956E-01 3.20805E-27
6.08220E-01 3.12146E-27
6.12476E-01 3.03732E-27
6.16723E-01 2.95555E-27
6.20961E-01 2.87607E-27
6.25190E-01 2.79882E-27
6.29410E-01 2.72372E-27
6.33619E-01 2.65072E-27
6.37819E-01 2.57973E-27
6.42008E-01 2.51071E-27
6.46186E-01 2.44358E-27
6.50353E-01 2.37830E-27
6.54508E-01 2.31480E-27
6.58652E-01 2.25304E-27
6.62784E-01 2.19295E-27
6.66903E-01 2.13449E-27
6.71010E-01 2.07761E-27
6.75104E-01 2.02227E-27
6.79184E-01 1.96841E-27
6.83251E-01 1.91599E-27
6.87303E-01 1.86497E-27
6.91342E-01 1.81531E-27
6.95366E-01 1.76697E-27
6.99375E-01 1.71991E-27
7.03368E-01 1.67410E-27
7.07347E-01 1.62948E-27
7.11309E-01 1.58604E-27
7.15256E-01 1.54374E-27
7.19186E-01 1.50255E-27
7.23099E-01 1.46242E-27
7.26995E-01 1.42334E-27
7.30874E-01 1.38528E-27
7.34736E-01 1.34820E-27
7.38579E-01 1.31207E-27
7.42405E-01 1.27687E-27
7.46212E-01 1.24258E-27
7.50000E-01 1.20917E-27
7.53769E-01 1.17661E-27
7.57519E-01 1.14488E-27
7.61249E-01 1.11396E-27
7.64960E-01 1.08383E-27
7.68650E-01 1.05445E-27
7.72320E-01 1.02582E-27
7.75968E-01 9.97918E-28
7.79596E-01 9.70715E-28
7.83203E-01 9.44195E-28
7.86788E-01 9.18341E-28
7.90351E-01 8.93135E-28
7.93893E-01 8.68559E-28
7.97411E-01 8.44597E-28
8.00908E-01 8.21232E-28
8.04381E-01 7.98449E-28
8.07831E-01 7.76232E-28
8.11257E-01 7.54566E-28
8.14660E-01 7.33436E-28
8.18039E-01 7.12830E-28
8.21394E-01 6.92733E-28
8.24724E-01 6.73132E-28
8.28030E-01 6.54015E-28
8.31310E-01 6.35368E-28
8.34565E-01 6.17180E-28
8.37795E-01 5.99439E-28
8.40999E-01 5.82134E-28
8.44177E-01 5.65254E-28
8.47329E-01 5.48788E-28
8.50455E-01 5.32725E-28
8.53553E-01 5.17057E-28
8.56625E-01 5.01771E-28
8.59670E-01 4.86861E-28
8.62687E-01 4.72315E-28
8.65677E-01 4.58125E-28
8.68639E-01 4.44283E-28
8.71572E-01 4.30780E-28
8.74478E-01 4.17607E-28
8.77355E-01 4.04757E-28
8.80203E-01 3.92222E-28
8.83022E-01 3.79994E-28
8.85812E-01 3.68067E-28
8.88573E-01 3.56432E-28
8.91304E-01 3.45084E-28
8.94005E-01 3.34015E-28
8.96677E-01 3.23219E-28
8.99318E-01 3.12689E-28
9.01928E-01 3.02420E-28
9.04508E-01 2.92405E-28
9.07058E-01 2.82639E-28
9.09576E-01 2.73116E-28
9.12063E-01 2.63830E-28
9.14519E-01 2.54777E-28
9.16943E-01 2.45950E-28
9.19335E-01 2.37346E-28
9.21696E-01 2.28958E-28
9.24024E-01 2.20783E-28
9.26320E-01 2.12816E-28
9.28584E-01 2.05052E-28
9.30815E-01 1.97487E-28
9.33013E-01 1.90117E-28
9.35178E-01 1.82938E-28
9.37310E-01 1.75945E-28
9.39409E-01 1.69135E-28
9.41474E-01 1.62504E-28
9.43505E-01 1.56048E-28
9.45503E-01 1.49764E-28
9.47467E-01 1.43649E-28
9.49397E-01 1.37699E-28
9.51293E-01 1.31911E-28
9.53154E-01 1.26282E-28
9.54981E-01 1.20808E-28
9.56773E-01 1.15488E-28
9.58530E-01 1.10317E-28
9.60252E-01 1.05294E-28
9.61940E-01 1.00415E-28
9.63592E-01 9.56776E-29
9.65209E-01 9.10800E-29
9.66790E-01 8.66194E-29
9.68336E-01 8.22935E-29
9.69846E-01 7.80998E-29
9.71321E-01 7.40364E-29
9.72759E-01 7.01010E-29
9.74162E-01 6.62915E-29
9.75528E-01 6.26060E-29
9.76858E-01 5.90426E-29
9.78152E-01 5.55994E-29
9.79410E-01 5.22746E-29
9.80631E-01 4.90665E-29
9.81815E-01 4.59734E-29
9.82963E-01 4.29938E-29
9.84074E-01 4.01260E-29
9.85148E-01 3.73688E-29
9.86185E-01 3.47205E-29
9.87185E-01 3.21799E-29
9.88148E-01 2.97457E-29
9.89074E-01 2.74165E-29
9.89962E-01 2.51913E-29
9.90814E-01 2.30689E-29
9.91627E-01 2.10482E-29
9.92404E-01 1.91282E-29
9.93143E-01 1.73080E-29
9.93844E-01 1.55865E-29
9.94508E-01 1.39629E-29
9.95134E-01 1.24364E-29
9.95722E-01 1.10063E-29
9.96273E-01 9.67174E-30
9.96786E-01 8.43213E-30
9.97261E-01 7.28683E-30
9.97698E-01 6.23526E-30
9.98097E-01 5.27689E-30
9.98459E-01 4.41124E-30
9.98782E-01 3.63787E-30
9.99067E-01 2.95640E-30
9.99315E-01 2.36648E-30
9.99524E-01 1.86782E-30
9.99695E-01 1.46016E-30
9.99829E-01 1.14331E-30
9.99924E-01 9.17095E-31
9.99981E-01 7.81414E-31
1.00000E+00 7.36194E-31
