 #
 # Subroutine ELSEPA. Elastic scattering of electrons and positrons
 #                    by neutral atoms and positive ions
 #
 # Projectile: electron
 # Kinetic energy = 6.00000E+07 eV = 2.20496E+06 a.u.
 #
 # WARNING: High-energy factorization with free-atom DF screening.
 #          Absorption, polarization and exchange corrections are
 #          switched off.
 #          Phase shifts are calculated for the bare nucleus.
 #          Scattering amplitudes are not evaluated.
 #
 # Element: Cs,  Z =  55,  atomic weight = 1.32905E+02 g/mol
 #
 # Nuclear model: Fermi distribution
 #                Average radius = 5.46049E-13 cm
 #                Skin thickness = 5.46000E-14 cm
 #
 # Number of electrons = 55
 #
 # Total elastic cross section = 6.62165E-18 cm**2 = 2.36463E-01 a0**2
 # 1st transport cross section = 1.62251E-24 cm**2 = 5.79408E-08 a0**2
 # 2nd transport cross section = 4.78101E-24 cm**2 = 1.70733E-07 a0**2
 #
 #
 # Differential cross section:                       MU=(1-COS(THETA))/2
 #
 #  THETA        MU          DCS          DCS        Sherman      error
 #  (deg)                 (cm**2/sr)   (a0**2/sr)    function
 #----------------------------------------------------------------------
0.00000E+00 3.70752E-10
7.61557E-13 3.69768E-10
1.18994E-12 3.69217E-10
1.71346E-12 3.68546E-10
2.33225E-12 3.67756E-10
3.04617E-12 3.66849E-10
3.85530E-12 3.65825E-10
4.75964E-12 3.64686E-10
5.75917E-12 3.63436E-10
6.85391E-12 3.62075E-10
8.04379E-12 3.60607E-10
9.32893E-12 3.59032E-10
1.07092E-11 3.57355E-10
1.21847E-11 3.55578E-10
1.37554E-11 3.53704E-10
1.54213E-11 3.51735E-10
1.71823E-11 3.49676E-10
1.90386E-11 3.47529E-10
2.09900E-11 3.45298E-10
2.30367E-11 3.42986E-10
2.51785E-11 3.40596E-10
2.74156E-11 3.38132E-10
2.97478E-11 3.35598E-10
3.21752E-11 3.32998E-10
3.46979E-11 3.30334E-10
3.73157E-11 3.27611E-10
4.00286E-11 3.24832E-10
4.28368E-11 3.22002E-10
4.57402E-11 3.19125E-10
4.87388E-11 3.16203E-10
5.18325E-11 3.13240E-10
5.50215E-11 3.10239E-10
5.83057E-11 3.07205E-10
6.16850E-11 3.04140E-10
6.51595E-11 3.01121E-10
6.87293E-11 2.98089E-10
7.23943E-11 2.95013E-10
7.61544E-11 2.91897E-10
1.18991E-10 2.60162E-10
1.71347E-10 2.29549E-10
2.33223E-10 2.01652E-10
3.04617E-10 1.77176E-10
3.85531E-10 1.56196E-10
4.75965E-10 1.38450E-10
5.75917E-10 1.23503E-10
6.85389E-10 1.10792E-10
8.04380E-10 9.98979E-11
9.32891E-10 9.04711E-11
1.07092E-09 8.22313E-11
1.21847E-09 7.49606E-11
1.37554E-09 6.84909E-11
1.54213E-09 6.26938E-11
1.71823E-09 5.74709E-11
1.90386E-09 5.27403E-11
2.09900E-09 4.84435E-11
2.30367E-09 4.45380E-11
2.51785E-09 4.09835E-11
2.74156E-09 3.77457E-11
2.97478E-09 3.47949E-11
3.21752E-09 3.21049E-11
3.46978E-09 2.96521E-11
3.73156E-09 2.74149E-11
4.00286E-09 2.53737E-11
4.28368E-09 2.35081E-11
4.57402E-09 2.18046E-11
4.87388E-09 2.02491E-11
5.18326E-09 1.88279E-11
5.50215E-09 1.75282E-11
5.83057E-09 1.63388E-11
6.16850E-09 1.52493E-11
6.51596E-09 1.42124E-11
6.87293E-09 1.32591E-11
7.23942E-09 1.23969E-11
7.61544E-09 1.16152E-11
1.18991E-08 6.49870E-12
1.71347E-08 3.94138E-12
2.33223E-08 2.51978E-12
3.04617E-08 1.67259E-12
3.85531E-08 1.14599E-12
4.75965E-08 8.08707E-13
5.75917E-08 5.87046E-13
6.85389E-08 4.37818E-13
8.04380E-08 3.34441E-13
9.32891E-08 2.60803E-13
1.07092E-07 2.06959E-13
1.21847E-07 1.66646E-13
1.37554E-07 1.35832E-13
1.54213E-07 1.11893E-13
1.71823E-07 9.29281E-14
1.90386E-07 7.77597E-14
2.09900E-07 6.55203E-14
2.30367E-07 5.55640E-14
2.51785E-07 4.73968E-14
2.74156E-07 4.06473E-14
2.97478E-07 3.50334E-14
3.21752E-07 3.03381E-14
3.46978E-07 2.63917E-14
3.73156E-07 2.30602E-14
4.00286E-07 2.02353E-14
4.28368E-07 1.78285E-14
4.57402E-07 1.57693E-14
4.87388E-07 1.39996E-14
5.18325E-07 1.24719E-14
5.50215E-07 1.11474E-14
5.83057E-07 9.99481E-15
6.16850E-07 8.98813E-15
6.51596E-07 8.10347E-15
6.87293E-07 7.32670E-15
7.23942E-07 6.64360E-15
7.61543E-07 6.04016E-15
1.18991E-06 2.59420E-15
1.71347E-06 1.29319E-15
2.33223E-06 7.14051E-16
3.04617E-06 4.25203E-16
3.85531E-06 2.68455E-16
4.75964E-06 1.77645E-16
5.75916E-06 1.22165E-16
6.85388E-06 8.67479E-17
8.04378E-06 6.32876E-17
9.32888E-06 4.72528E-17
1.07092E-05 3.59933E-17
1.21846E-05 2.78990E-17
1.37553E-05 2.19589E-17
1.54212E-05 1.75198E-17
1.71822E-05 1.41485E-17
1.90385E-05 1.15469E-17
2.09899E-05 9.52373E-18
2.30365E-05 7.92417E-18
2.51783E-05 6.64566E-18
2.74153E-05 5.61400E-18
2.97475E-05 4.77451E-18
3.21749E-05 4.08616E-18
3.46974E-05 3.51773E-18
3.73152E-05 3.04507E-18
4.00281E-05 2.64942E-18
4.28362E-05 2.31608E-18
4.57395E-05 2.03355E-18
4.87380E-05 1.79274E-18
5.18317E-05 1.58645E-18
5.50205E-05 1.40893E-18
5.83045E-05 1.25553E-18
6.16838E-05 1.12245E-18
6.51582E-05 1.00657E-18
6.87277E-05 9.05303E-19
7.23925E-05 8.16475E-19
7.61524E-05 7.38583E-19
9.21439E-05 5.05534E-19
1.09658E-04 3.57573E-19
1.28695E-04 2.60036E-19
1.49255E-04 1.93600E-19
1.71338E-04 1.47110E-19
1.94942E-04 1.13780E-19
2.20070E-04 8.93851E-20
2.46720E-04 7.11982E-20
2.74892E-04 5.74141E-20
3.04586E-04 4.68148E-20
3.35803E-04 3.85548E-20
3.68542E-04 3.20417E-20
4.02802E-04 2.68496E-20
4.38585E-04 2.26694E-20
4.75889E-04 1.92735E-20
5.14715E-04 1.64914E-20
5.55063E-04 1.41946E-20
5.96931E-04 1.22850E-20
6.40321E-04 1.06866E-20
6.85233E-04 9.34047E-21
7.31665E-04 8.20029E-21
7.79618E-04 7.22932E-21
8.29092E-04 6.39824E-21
8.80086E-04 5.68355E-21
9.32601E-04 5.06620E-21
9.86636E-04 4.53065E-21
1.04219E-03 4.06425E-21
1.09927E-03 3.65653E-21
1.15786E-03 3.29882E-21
1.21797E-03 2.98395E-21
1.27961E-03 2.70589E-21
1.34276E-03 2.45957E-21
1.40743E-03 2.24076E-21
1.47362E-03 2.04582E-21
1.54133E-03 1.87170E-21
1.61056E-03 1.71579E-21
1.68131E-03 1.57583E-21
1.75357E-03 1.44991E-21
1.82735E-03 1.33637E-21
1.90265E-03 1.23377E-21
1.97947E-03 1.14087E-21
2.05780E-03 1.05658E-21
2.13765E-03 9.79964E-22
2.21902E-03 9.10197E-22
2.30190E-03 8.46556E-22
2.38630E-03 7.88400E-22
2.47222E-03 7.35176E-22
2.55965E-03 6.86387E-22
2.64859E-03 6.41592E-22
2.73905E-03 6.00414E-22
2.83103E-03 5.62493E-22
2.92452E-03 5.27538E-22
3.01952E-03 4.95264E-22
3.11604E-03 4.65433E-22
3.21407E-03 4.37824E-22
3.31362E-03 4.12240E-22
3.41468E-03 3.88506E-22
3.51725E-03 3.66463E-22
3.62133E-03 3.45967E-22
3.72692E-03 3.26891E-22
3.83403E-03 3.09117E-22
3.94265E-03 2.92540E-22
4.05278E-03 2.77064E-22
4.16442E-03 2.62602E-22
4.27757E-03 2.49075E-22
4.39223E-03 2.36412E-22
4.50840E-03 2.24547E-22
4.62608E-03 2.13419E-22
4.74527E-03 2.02976E-22
4.86597E-03 1.93166E-22
4.98817E-03 1.83943E-22
5.11188E-03 1.75267E-22
5.23711E-03 1.67098E-22
5.36383E-03 1.59402E-22
5.49207E-03 1.52145E-22
5.62181E-03 1.45298E-22
5.75306E-03 1.38833E-22
5.88581E-03 1.32725E-22
6.02007E-03 1.26950E-22
6.15583E-03 1.21487E-22
6.29310E-03 1.16315E-22
6.43187E-03 1.11417E-22
6.57214E-03 1.06774E-22
6.71392E-03 1.02371E-22
6.85720E-03 9.81941E-23
7.00198E-03 9.42283E-23
7.14827E-03 9.04612E-23
7.29605E-03 8.68810E-23
7.44534E-03 8.34765E-23
7.59612E-03 8.02376E-23
7.97965E-03 7.28031E-23
8.37255E-03 6.62116E-23
8.77480E-03 6.03505E-23
9.18641E-03 5.51247E-23
9.60736E-03 5.04528E-23
1.00376E-02 4.62659E-23
1.04773E-02 4.25044E-23
1.09262E-02 3.91175E-23
1.13844E-02 3.60610E-23
1.18520E-02 3.32970E-23
1.23288E-02 3.07925E-23
1.28150E-02 2.85186E-23
1.33104E-02 2.64502E-23
1.38150E-02 2.45655E-23
1.43290E-02 2.28451E-23
1.48521E-02 2.12722E-23
1.53845E-02 1.98316E-23
1.59262E-02 1.85104E-23
1.64770E-02 1.72968E-23
1.70371E-02 1.61804E-23
1.76063E-02 1.51521E-23
1.81848E-02 1.42035E-23
1.87724E-02 1.33275E-23
1.93692E-02 1.25173E-23
1.99751E-02 1.17673E-23
2.05901E-02 1.10720E-23
2.12143E-02 1.04267E-23
2.18476E-02 9.82730E-24
2.24900E-02 9.26981E-24
2.31415E-02 8.75079E-24
2.38021E-02 8.26710E-24
2.44717E-02 7.81589E-24
2.51504E-02 7.39460E-24
2.58382E-02 7.00086E-24
2.65349E-02 6.63255E-24
2.72407E-02 6.28772E-24
2.79555E-02 5.96461E-24
2.86793E-02 5.66160E-24
2.94120E-02 5.37721E-24
3.01537E-02 5.11009E-24
3.09043E-02 4.85899E-24
3.16639E-02 4.62279E-24
3.24324E-02 4.40043E-24
3.32098E-02 4.19097E-24
3.39961E-02 3.99351E-24
3.47912E-02 3.80725E-24
3.55952E-02 3.63143E-24
3.64081E-02 3.46537E-24
3.72297E-02 3.30842E-24
3.80602E-02 3.16000E-24
3.88995E-02 3.01955E-24
3.97476E-02 2.88658E-24
4.06044E-02 2.76062E-24
4.14700E-02 2.64123E-24
4.23443E-02 2.52800E-24
4.32273E-02 2.42057E-24
4.41190E-02 2.31858E-24
4.50194E-02 2.22170E-24
4.59284E-02 2.12965E-24
4.68461E-02 2.04213E-24
4.87074E-02 1.87966E-24
5.06030E-02 1.73240E-24
5.25328E-02 1.59869E-24
5.44967E-02 1.47708E-24
5.64946E-02 1.36630E-24
5.85262E-02 1.26523E-24
6.05914E-02 1.17289E-24
6.26901E-02 1.08839E-24
6.48222E-02 1.01096E-24
6.69873E-02 9.39928E-25
6.91854E-02 8.74673E-25
7.14163E-02 8.14654E-25
7.36799E-02 7.59386E-25
7.59760E-02 7.08436E-25
7.83043E-02 6.61414E-25
8.06647E-02 6.17972E-25
8.30571E-02 5.77796E-25
8.54812E-02 5.40605E-25
8.79369E-02 5.06144E-25
9.04240E-02 4.74183E-25
9.29422E-02 4.44514E-25
9.54915E-02 4.16951E-25
9.80716E-02 3.91321E-25
1.00682E-01 3.67471E-25
1.03323E-01 3.45259E-25
1.05995E-01 3.24557E-25
1.08696E-01 3.05250E-25
1.11427E-01 2.87229E-25
1.14188E-01 2.70399E-25
1.16978E-01 2.54670E-25
1.19797E-01 2.39960E-25
1.22645E-01 2.26195E-25
1.25522E-01 2.13307E-25
1.28428E-01 2.01232E-25
1.31361E-01 1.89913E-25
1.34323E-01 1.79297E-25
1.37313E-01 1.69335E-25
1.40330E-01 1.59982E-25
1.43375E-01 1.51196E-25
1.46447E-01 1.42939E-25
1.49545E-01 1.35175E-25
1.52671E-01 1.27872E-25
1.55823E-01 1.20999E-25
1.59001E-01 1.14528E-25
1.62205E-01 1.08432E-25
1.65435E-01 1.02689E-25
1.68690E-01 9.72751E-26
1.71970E-01 9.21696E-26
1.75276E-01 8.73534E-26
1.78606E-01 8.28082E-26
1.81961E-01 7.85174E-26
1.85340E-01 7.44654E-26
1.88743E-01 7.06376E-26
1.92169E-01 6.70205E-26
1.95619E-01 6.36013E-26
1.99092E-01 6.03683E-26
2.02589E-01 5.73105E-26
2.06107E-01 5.44174E-26
2.09649E-01 5.16796E-26
2.13212E-01 4.90879E-26
2.16797E-01 4.66339E-26
2.20404E-01 4.43097E-26
2.24032E-01 4.21079E-26
2.27680E-01 4.00215E-26
2.31350E-01 3.80441E-26
2.35040E-01 3.61695E-26
2.38751E-01 3.43920E-26
2.42481E-01 3.27062E-26
2.46231E-01 3.11070E-26
2.50000E-01 2.95897E-26
2.53788E-01 2.81498E-26
2.57595E-01 2.67831E-26
2.61421E-01 2.54856E-26
2.65264E-01 2.42537E-26
2.69126E-01 2.30837E-26
2.73005E-01 2.19724E-26
2.76901E-01 2.09167E-26
2.80814E-01 1.99137E-26
2.84744E-01 1.89605E-26
2.88691E-01 1.80545E-26
2.92653E-01 1.71934E-26
2.96632E-01 1.63747E-26
3.00625E-01 1.55963E-26
3.04634E-01 1.48560E-26
3.08658E-01 1.41520E-26
3.12697E-01 1.34823E-26
3.16749E-01 1.28452E-26
3.20816E-01 1.22391E-26
3.24896E-01 1.16624E-26
3.28990E-01 1.11136E-26
3.33097E-01 1.05913E-26
3.37216E-01 1.00941E-26
3.41348E-01 9.62087E-27
3.45492E-01 9.17034E-27
3.49647E-01 8.74139E-27
3.53814E-01 8.33296E-27
3.57992E-01 7.94403E-27
3.62181E-01 7.57364E-27
3.66381E-01 7.22088E-27
3.70590E-01 6.88488E-27
3.74810E-01 6.56482E-27
3.79039E-01 6.25993E-27
3.83277E-01 5.96946E-27
3.87524E-01 5.69272E-27
3.91780E-01 5.42904E-27
3.96044E-01 5.17779E-27
4.00316E-01 4.93836E-27
4.04596E-01 4.71020E-27
4.08882E-01 4.49275E-27
4.13176E-01 4.28550E-27
4.17476E-01 4.08797E-27
4.21783E-01 3.89969E-27
4.26095E-01 3.72021E-27
4.30413E-01 3.54913E-27
4.34737E-01 3.38603E-27
4.39065E-01 3.23055E-27
4.43398E-01 3.08231E-27
4.47736E-01 2.94098E-27
4.52077E-01 2.80622E-27
4.56422E-01 2.67774E-27
4.60770E-01 2.55523E-27
4.65122E-01 2.43841E-27
4.69476E-01 2.32701E-27
4.73832E-01 2.22078E-27
4.78190E-01 2.11948E-27
4.82550E-01 2.02288E-27
4.86912E-01 1.93074E-27
4.91274E-01 1.84288E-27
4.95637E-01 1.75908E-27
5.00000E-01 1.67915E-27
5.04363E-01 1.60292E-27
5.08726E-01 1.53022E-27
5.13088E-01 1.46087E-27
5.17450E-01 1.39472E-27
5.21810E-01 1.33163E-27
5.26168E-01 1.27145E-27
5.30524E-01 1.21404E-27
5.34878E-01 1.15928E-27
5.39230E-01 1.10704E-27
5.43578E-01 1.05721E-27
5.47923E-01 1.00968E-27
5.52264E-01 9.64334E-28
5.56602E-01 9.21074E-28
5.60935E-01 8.79805E-28
5.65263E-01 8.40433E-28
5.69587E-01 8.02872E-28
5.73905E-01 7.67037E-28
5.78217E-01 7.32848E-28
5.82524E-01 7.00229E-28
5.86824E-01 6.69107E-28
5.91118E-01 6.39414E-28
5.95404E-01 6.11082E-28
5.99684E-01 5.84050E-28
6.03956E-01 5.58256E-28
6.08220E-01 5.33644E-28
6.12476E-01 5.10159E-28
6.16723E-01 4.87748E-28
6.20961E-01 4.66362E-28
6.25190E-01 4.45954E-28
6.29410E-01 4.26479E-28
6.33619E-01 4.07892E-28
6.37819E-01 3.90154E-28
6.42008E-01 3.73224E-28
6.46186E-01 3.57066E-28
6.50353E-01 3.41644E-28
6.54508E-01 3.26923E-28
6.58652E-01 3.12871E-28
6.62784E-01 2.99457E-28
6.66903E-01 2.86652E-28
6.71010E-01 2.74427E-28
6.75104E-01 2.62755E-28
6.79184E-01 2.51612E-28
6.83251E-01 2.40972E-28
6.87303E-01 2.30811E-28
6.91342E-01 2.21109E-28
6.95366E-01 2.11843E-28
6.99375E-01 2.02993E-28
7.03368E-01 1.94541E-28
7.07347E-01 1.86467E-28
7.11309E-01 1.78754E-28
7.15256E-01 1.71385E-28
7.19186E-01 1.64344E-28
7.23099E-01 1.57617E-28
7.26995E-01 1.51188E-28
7.30874E-01 1.45044E-28
7.34736E-01 1.39171E-28
7.38579E-01 1.33557E-28
7.42405E-01 1.28189E-28
7.46212E-01 1.23057E-28
7.50000E-01 1.18150E-28
7.53769E-01 1.13456E-28
7.57519E-01 1.08967E-28
7.61249E-01 1.04672E-28
7.64960E-01 1.00563E-28
7.68650E-01 9.66309E-29
7.72320E-01 9.28675E-29
7.75968E-01 8.92651E-29
7.79596E-01 8.58162E-29
7.83203E-01 8.25137E-29
7.86788E-01 7.93508E-29
7.90351E-01 7.63212E-29
7.93893E-01 7.34185E-29
7.97411E-01 7.06370E-29
8.00908E-01 6.79711E-29
8.04381E-01 6.54155E-29
8.07831E-01 6.29650E-29
8.11257E-01 6.06149E-29
8.14660E-01 5.83605E-29
8.18039E-01 5.61975E-29
8.21394E-01 5.41217E-29
8.24724E-01 5.21290E-29
8.28030E-01 5.02157E-29
8.31310E-01 4.83782E-29
8.34565E-01 4.66131E-29
8.37795E-01 4.49170E-29
8.40999E-01 4.32868E-29
8.44177E-01 4.17196E-29
8.47329E-01 4.02125E-29
8.50455E-01 3.87629E-29
8.53553E-01 3.73681E-29
8.56625E-01 3.60257E-29
8.59670E-01 3.47334E-29
8.62687E-01 3.34890E-29
8.65677E-01 3.22903E-29
8.68639E-01 3.11354E-29
8.71572E-01 3.00224E-29
8.74478E-01 2.89493E-29
8.77355E-01 2.79145E-29
8.80203E-01 2.69164E-29
8.83022E-01 2.59534E-29
8.85812E-01 2.50239E-29
8.88573E-01 2.41266E-29
8.91304E-01 2.32601E-29
8.94005E-01 2.24231E-29
8.96677E-01 2.16144E-29
8.99318E-01 2.08328E-29
9.01928E-01 2.00773E-29
9.04508E-01 1.93467E-29
9.07058E-01 1.86401E-29
9.09576E-01 1.79565E-29
9.12063E-01 1.72951E-29
9.14519E-01 1.66548E-29
9.16943E-01 1.60351E-29
9.19335E-01 1.54350E-29
9.21696E-01 1.48538E-29
9.24024E-01 1.42908E-29
9.26320E-01 1.37453E-29
9.28584E-01 1.32168E-29
9.30815E-01 1.27045E-29
9.33013E-01 1.22080E-29
9.35178E-01 1.17267E-29
9.37310E-01 1.12601E-29
9.39409E-01 1.08076E-29
9.41474E-01 1.03688E-29
9.43505E-01 9.94331E-30
9.45503E-01 9.53064E-30
9.47467E-01 9.13041E-30
9.49397E-01 8.74223E-30
9.51293E-01 8.36575E-30
9.53154E-01 8.00063E-30
9.54981E-01 7.64653E-30
9.56773E-01 7.30314E-30
9.58530E-01 6.97018E-30
9.60252E-01 6.64737E-30
9.61940E-01 6.33443E-30
9.63592E-01 6.03113E-30
9.65209E-01 5.73721E-30
9.66790E-01 5.45246E-30
9.68336E-01 5.17666E-30
9.69846E-01 4.90960E-30
9.71321E-01 4.65110E-30
9.72759E-01 4.40097E-30
9.74162E-01 4.15904E-30
9.75528E-01 3.92515E-30
9.76858E-01 3.69914E-30
9.78152E-01 3.48085E-30
9.79410E-01 3.27016E-30
9.80631E-01 3.06694E-30
9.81815E-01 2.87105E-30
9.82963E-01 2.68238E-30
9.84074E-01 2.50082E-30
9.85148E-01 2.32626E-30
9.86185E-01 2.15860E-30
9.87185E-01 1.99775E-30
9.88148E-01 1.84363E-30
9.89074E-01 1.69614E-30
9.89962E-01 1.55521E-30
9.90814E-01 1.42077E-30
9.91627E-01 1.29275E-30
9.92404E-01 1.17108E-30
9.93143E-01 1.05570E-30
9.93844E-01 9.46553E-31
9.94508E-01 8.43590E-31
9.95134E-01 7.46759E-31
9.95722E-01 6.56015E-31
9.96273E-01 5.71314E-31
9.96786E-01 4.92619E-31
9.97261E-01 4.19893E-31
9.97698E-01 3.53102E-31
9.98097E-01 2.92217E-31
9.98459E-01 2.37210E-31
9.98782E-01 1.88058E-31
9.99067E-01 1.44739E-31
9.99315E-01 1.07233E-31
9.99524E-01 7.55247E-32
9.99695E-01 4.96001E-32
9.99829E-01 2.94480E-32
9.99924E-01 1.50599E-32
9.99981E-01 6.42944E-33
1.00000E+00 3.55301E-33
