 #
 # Subroutine ELSEPA. Elastic scattering of electrons and positrons
 #                    by neutral atoms and positive ions
 #
 # Projectile: electron
 # Kinetic energy = 7.00000E+08 eV = 2.57245E+07 a.u.
 #
 # WARNING: High-energy factorization with free-atom DF screening.
 #          Absorption, polarization and exchange corrections are
 #          switched off.
 #          Phase shifts are calculated for the bare nucleus.
 #          Scattering amplitudes are not evaluated.
 #
 # Element: Cs,  Z =  55,  atomic weight = 1.32905E+02 g/mol
 #
 # Nuclear model: Fermi distribution
 #                Average radius = 5.46049E-13 cm
 #                Skin thickness = 5.46000E-14 cm
 #
 # Number of electrons = 55
 #
 # Total elastic cross section = 6.56684E-18 cm**2 = 2.34506E-01 a0**2
 # 1st transport cross section = 1.20314E-26 cm**2 = 4.29650E-10 a0**2
 # 2nd transport cross section = 3.60871E-26 cm**2 = 1.28869E-09 a0**2
 #
 #
 # Differential cross section:                       MU=(1-COS(THETA))/2
 #
 #  THETA        MU          DCS          DCS        Sherman      error
 #  (deg)                 (cm**2/sr)   (a0**2/sr)    function
 #----------------------------------------------------------------------
0.00000E+00 4.96873E-08
7.61557E-13 3.64111E-08
1.18994E-12 3.16049E-08
1.71346E-12 2.72173E-08
2.33225E-12 2.34212E-08
3.04617E-12 2.02799E-08
3.85530E-12 1.76853E-08
4.75964E-12 1.55373E-08
5.75917E-12 1.37509E-08
6.85391E-12 1.22518E-08
8.04379E-12 1.09685E-08
9.32893E-12 9.85779E-09
1.07092E-11 8.88523E-09
1.21847E-11 8.02557E-09
1.37554E-11 7.26234E-09
1.54213E-11 6.58200E-09
1.71823E-11 5.97052E-09
1.90386E-11 5.42273E-09
2.09900E-11 4.93164E-09
2.30367E-11 4.49026E-09
2.51785E-11 4.09266E-09
2.74156E-11 3.73581E-09
2.97478E-11 3.41529E-09
3.21752E-11 3.12636E-09
3.46979E-11 2.86631E-09
3.73157E-11 2.63240E-09
4.00286E-11 2.42169E-09
4.28368E-11 2.23111E-09
4.57402E-11 2.05916E-09
4.87388E-11 1.89838E-09
5.18325E-11 1.75232E-09
5.50215E-11 1.62222E-09
5.83057E-11 1.50598E-09
6.16850E-11 1.40184E-09
6.51595E-11 1.30828E-09
6.87293E-11 1.22399E-09
7.23943E-11 1.14786E-09
7.61544E-11 1.07200E-09
1.18991E-10 5.84208E-10
1.71347E-10 3.45400E-10
2.33223E-10 2.15420E-10
3.04617E-10 1.39684E-10
3.85531E-10 9.43384E-11
4.75965E-10 6.61992E-11
5.75917E-10 4.80442E-11
6.85389E-10 3.58620E-11
8.04380E-10 2.74216E-11
9.32891E-10 2.13838E-11
1.07092E-09 1.69357E-11
1.21847E-09 1.35861E-11
1.37554E-09 1.10158E-11
1.54213E-09 9.02114E-12
1.71823E-09 7.44843E-12
1.90386E-09 6.19901E-12
2.09900E-09 5.19658E-12
2.30367E-09 4.38470E-12
2.51785E-09 3.72204E-12
2.74156E-09 3.17881E-12
2.97478E-09 2.73073E-12
3.21752E-09 2.35855E-12
3.46978E-09 2.04771E-12
3.73156E-09 1.78658E-12
4.00286E-09 1.56589E-12
4.28368E-09 1.37823E-12
4.57402E-09 1.21801E-12
4.87388E-09 1.08024E-12
5.18326E-09 9.61684E-13
5.50215E-09 8.59437E-13
5.83057E-09 7.70336E-13
6.16850E-09 6.92427E-13
6.51596E-09 6.24408E-13
6.87293E-09 5.64539E-13
7.23942E-09 5.11541E-13
7.61544E-09 4.64793E-13
1.18991E-08 1.98722E-13
1.71347E-08 9.84917E-14
2.33223E-08 5.41177E-14
3.04617E-08 3.21129E-14
3.85531E-08 2.02285E-14
4.75965E-08 1.33652E-14
5.75917E-08 9.18106E-15
6.85389E-08 6.51403E-15
8.04380E-08 4.74935E-15
9.32891E-08 3.54411E-15
1.07092E-07 2.69825E-15
1.21847E-07 2.09043E-15
1.37554E-07 1.64456E-15
1.54213E-07 1.31150E-15
1.71823E-07 1.05864E-15
1.90386E-07 8.63890E-16
2.09900E-07 7.11921E-16
2.30367E-07 5.91936E-16
2.51785E-07 4.96188E-16
2.74156E-07 4.19032E-16
2.97478E-07 3.56300E-16
3.21752E-07 3.04875E-16
3.46978E-07 2.62396E-16
3.73156E-07 2.27061E-16
4.00286E-07 1.97475E-16
4.28368E-07 1.72553E-16
4.57402E-07 1.51438E-16
4.87388E-07 1.33455E-16
5.18325E-07 1.18062E-16
5.50215E-07 1.04825E-16
5.83057E-07 9.33913E-17
6.16850E-07 8.34741E-17
6.51596E-07 7.48381E-17
6.87293E-07 6.72902E-17
7.23942E-07 6.06701E-17
7.61543E-07 5.48439E-17
1.18991E-06 2.25138E-17
1.71347E-06 1.08711E-17
2.33223E-06 5.87273E-18
3.04617E-06 3.44448E-18
3.85531E-06 2.15133E-18
4.75964E-06 1.41200E-18
5.75916E-06 9.64719E-19
6.85388E-06 6.81345E-19
8.04378E-06 4.94799E-19
9.32888E-06 3.67953E-19
1.07092E-05 2.79278E-19
1.21846E-05 2.15781E-19
1.37553E-05 1.69351E-19
1.54212E-05 1.34766E-19
1.71822E-05 1.08578E-19
1.90385E-05 8.84244E-20
2.09899E-05 7.27897E-20
2.30365E-05 6.04581E-20
2.51783E-05 5.06226E-20
2.74153E-05 4.27018E-20
2.97475E-05 3.62681E-20
3.21749E-05 3.10017E-20
3.46974E-05 2.66595E-20
3.73152E-05 2.30541E-20
4.00281E-05 2.00401E-20
4.28362E-05 1.75039E-20
4.57395E-05 1.53567E-20
4.87380E-05 1.35283E-20
5.18317E-05 1.19636E-20
5.50205E-05 1.06184E-20
5.83045E-05 9.45687E-21
6.16838E-05 8.45007E-21
6.51582E-05 7.57404E-21
6.87277E-05 6.80894E-21
7.23925E-05 6.13828E-21
7.61524E-05 5.56489E-21
9.21439E-05 3.79645E-21
1.09658E-04 2.67558E-21
1.28695E-04 1.93788E-21
1.49255E-04 1.43621E-21
1.71338E-04 1.08576E-21
1.94942E-04 8.34979E-22
2.20070E-04 6.51809E-22
2.46720E-04 5.15574E-22
2.74892E-04 4.12591E-22
3.04586E-04 3.33635E-22
3.35803E-04 2.72308E-22
3.68542E-04 2.24126E-22
4.02802E-04 1.85871E-22
4.38585E-04 1.55206E-22
4.75889E-04 1.30414E-22
5.14715E-04 1.10208E-22
5.55063E-04 9.36206E-23
5.96931E-04 7.99115E-23
6.40321E-04 6.85110E-23
6.85233E-04 5.89761E-23
7.31665E-04 5.09587E-23
7.79618E-04 4.41844E-23
8.29092E-04 3.84337E-23
8.80086E-04 3.35313E-23
9.32601E-04 2.93353E-23
9.86636E-04 2.57304E-23
1.04219E-03 2.26226E-23
1.09927E-03 1.99345E-23
1.15786E-03 1.76023E-23
1.21797E-03 1.55731E-23
1.27961E-03 1.38027E-23
1.34276E-03 1.22542E-23
1.40743E-03 1.08965E-23
1.47362E-03 9.70343E-24
1.54133E-03 8.65280E-24
1.61056E-03 7.72576E-24
1.68131E-03 6.90624E-24
1.75357E-03 6.18048E-24
1.82735E-03 5.53668E-24
1.90265E-03 4.96469E-24
1.97947E-03 4.45574E-24
2.05780E-03 4.00226E-24
2.13765E-03 3.59767E-24
2.21902E-03 3.23625E-24
2.30190E-03 2.91303E-24
2.38630E-03 2.62364E-24
2.47222E-03 2.36429E-24
2.55965E-03 2.13164E-24
2.64859E-03 1.92274E-24
2.73905E-03 1.73502E-24
2.83103E-03 1.56619E-24
2.92452E-03 1.41425E-24
3.01952E-03 1.27741E-24
3.11604E-03 1.15409E-24
3.21407E-03 1.04290E-24
3.31362E-03 9.42589E-25
3.41468E-03 8.52045E-25
3.51725E-03 7.70283E-25
3.62133E-03 6.96421E-25
3.72692E-03 6.29673E-25
3.83403E-03 5.69333E-25
3.94265E-03 5.14770E-25
4.05278E-03 4.65420E-25
4.16442E-03 4.20775E-25
4.27757E-03 3.80379E-25
4.39223E-03 3.43824E-25
4.50840E-03 3.10740E-25
4.62608E-03 2.80795E-25
4.74527E-03 2.53691E-25
4.86597E-03 2.29158E-25
4.98817E-03 2.06953E-25
5.11188E-03 1.86856E-25
5.23711E-03 1.68668E-25
5.36383E-03 1.52210E-25
5.49207E-03 1.37320E-25
5.62181E-03 1.23850E-25
5.75306E-03 1.11668E-25
5.88581E-03 1.00653E-25
6.02007E-03 9.06962E-26
6.15583E-03 8.16981E-26
6.29310E-03 7.35692E-26
6.43187E-03 6.62280E-26
6.57214E-03 5.96007E-26
6.71392E-03 5.36203E-26
6.85720E-03 4.82258E-26
7.00198E-03 4.33621E-26
7.14827E-03 3.89791E-26
7.29605E-03 3.50311E-26
7.44534E-03 3.14769E-26
7.59612E-03 2.82789E-26
7.97965E-03 2.16267E-26
8.37255E-03 1.65442E-26
8.77480E-03 1.26766E-26
9.18641E-03 9.74567E-27
9.60736E-03 7.53375E-27
1.00376E-02 5.87101E-27
1.04773E-02 4.62535E-27
1.09262E-02 3.69441E-27
1.13844E-02 2.99923E-27
1.18520E-02 2.47926E-27
1.23288E-02 2.08837E-27
1.28150E-02 1.79166E-27
1.33104E-02 1.56299E-27
1.38150E-02 1.38298E-27
1.43290E-02 1.23743E-27
1.48521E-02 1.11611E-27
1.53845E-02 1.01179E-27
1.59262E-02 9.19439E-28
1.64770E-02 8.35703E-28
1.70371E-02 7.58400E-28
1.76063E-02 6.86194E-28
1.81848E-02 6.18325E-28
1.87724E-02 5.54417E-28
1.93692E-02 4.94331E-28
1.99751E-02 4.38058E-28
2.05901E-02 3.85653E-28
2.12143E-02 3.37177E-28
2.18476E-02 2.92673E-28
2.24900E-02 2.52144E-28
2.31415E-02 2.15546E-28
2.38021E-02 1.82786E-28
2.44717E-02 1.53724E-28
2.51504E-02 1.28181E-28
2.58382E-02 1.05944E-28
2.65349E-02 8.67764E-29
2.72407E-02 7.04233E-29
2.79555E-02 5.66217E-29
2.86793E-02 4.51063E-29
2.94120E-02 3.56155E-29
3.01537E-02 2.78964E-29
3.09043E-02 2.17089E-29
3.16639E-02 1.68286E-29
3.24324E-02 1.30492E-29
3.32098E-02 1.01833E-29
3.39961E-02 8.06339E-30
3.47912E-02 6.54168E-30
3.55952E-02 5.48968E-30
3.64081E-02 4.79730E-30
3.72297E-02 4.37169E-30
3.80602E-02 4.13590E-30
3.88995E-02 4.02735E-30
3.97476E-02 3.99627E-30
4.06044E-02 4.00419E-30
4.14700E-02 4.02230E-30
4.23443E-02 4.03006E-30
4.32273E-02 4.01378E-30
4.41190E-02 3.96536E-30
4.50194E-02 3.88114E-30
4.59284E-02 3.76088E-30
4.68461E-02 3.60687E-30
4.87074E-02 3.21502E-30
5.06030E-02 2.74863E-30
5.25328E-02 2.25443E-30
5.44967E-02 1.77356E-30
5.64946E-02 1.33690E-30
5.85262E-02 9.63749E-31
6.05914E-02 6.62663E-31
6.26901E-02 4.33458E-31
6.48222E-02 2.69717E-31
6.69873E-02 1.61256E-31
6.91854E-02 9.62663E-32
7.14163E-02 6.29702E-32
7.36799E-02 5.07637E-32
7.59760E-02 5.08726E-32
7.83043E-02 5.66112E-32
8.06647E-02 6.33411E-32
8.30571E-02 6.82316E-32
8.54812E-02 6.99125E-32
8.79369E-02 6.80893E-32
9.04240E-02 6.31762E-32
9.29422E-02 5.59781E-32
9.54915E-02 4.74405E-32
9.80716E-02 3.84711E-32
1.00682E-01 2.98282E-32
1.03323E-01 2.20658E-32
1.05995E-01 1.55227E-32
1.08696E-01 1.03413E-32
1.11427E-01 6.50501E-33
1.14188E-01 3.88239E-33
1.16978E-01 2.27219E-33
1.19797E-01 1.44274E-33
1.22645E-01 1.16333E-33
1.25522E-01 1.22648E-33
1.28428E-01 1.46134E-33
1.31361E-01 1.73931E-33
1.34323E-01 1.97378E-33
1.37313E-01 2.11561E-33
1.40330E-01 2.14609E-33
1.43375E-01 2.06902E-33
1.46447E-01 1.90279E-33
1.49545E-01 1.67345E-33
1.52671E-01 1.40910E-33
1.55823E-01 1.13582E-33
1.59001E-01 8.75087E-34
1.62205E-01 6.42504E-34
1.65435E-01 4.47584E-34
1.68690E-01 2.94273E-34
1.71970E-01 1.81953E-34
1.75276E-01 1.06657E-34
1.78606E-01 6.23167E-35
1.81961E-01 4.18834E-35
1.85340E-01 3.82546E-35
1.88743E-01 4.49524E-35
1.92169E-01 5.65570E-35
1.95619E-01 6.89185E-35
1.99092E-01 7.91864E-35
2.02589E-01 8.57046E-35
2.06107E-01 8.78202E-35
2.09649E-01 8.56475E-35
2.13212E-01 7.98251E-35
2.16797E-01 7.12900E-35
2.20404E-01 6.10872E-35
2.24032E-01 5.02233E-35
2.27680E-01 3.95658E-35
2.31350E-01 2.97856E-35
2.35040E-01 2.13357E-35
2.38751E-01 1.44587E-35
2.42481E-01 9.21311E-36
2.46231E-01 5.51238E-36
2.50000E-01 3.16734E-36
2.53788E-01 1.92824E-36
2.57595E-01 1.52182E-36
2.61421E-01 1.68111E-36
2.65264E-01 2.16711E-36
2.69126E-01 2.78236E-36
2.73005E-01 3.37722E-36
2.76901E-01 3.85018E-36
2.80814E-01 4.14382E-36
2.84744E-01 4.23777E-36
2.88691E-01 4.14028E-36
2.92653E-01 3.87941E-36
2.96632E-01 3.49480E-36
3.00625E-01 3.03061E-36
3.04634E-01 2.52994E-36
3.08658E-01 2.03077E-36
3.12697E-01 1.56363E-36
3.16749E-01 1.15037E-36
3.20816E-01 8.04209E-37
3.24896E-01 5.30503E-37
3.28990E-01 3.28078E-37
3.33097E-01 1.90798E-37
3.37216E-01 1.09216E-37
3.41348E-01 7.21046E-38
3.45492E-01 6.77755E-38
3.49647E-01 8.51153E-38
3.53814E-01 1.14327E-37
3.57992E-01 1.47376E-37
3.62181E-01 1.78183E-37
3.66381E-01 2.02616E-37
3.70590E-01 2.18315E-37
3.74810E-01 2.24424E-37
3.79039E-01 2.21277E-37
3.83277E-01 2.10044E-37
3.87524E-01 1.92428E-37
3.91780E-01 1.70376E-37
3.96044E-01 1.45842E-37
4.00316E-01 1.20623E-37
4.04596E-01 9.62360E-38
4.08882E-01 7.38542E-38
4.13176E-01 5.42862E-38
4.17476E-01 3.79898E-38
4.21783E-01 1.00000E-45
4.26095E-01 1.00000E-45
4.30413E-01 1.00000E-45
4.34737E-01 1.00000E-45
4.39065E-01 1.00000E-45
4.43398E-01 1.00000E-45
4.47736E-01 1.00000E-45
4.52077E-01 1.00000E-45
4.56422E-01 1.00000E-45
4.60770E-01 1.00000E-45
4.65122E-01 1.00000E-45
4.69476E-01 1.00000E-45
4.73832E-01 1.00000E-45
4.78190E-01 1.00000E-45
4.82550E-01 1.00000E-45
4.86912E-01 1.00000E-45
4.91274E-01 1.00000E-45
4.95637E-01 1.00000E-45
5.00000E-01 1.00000E-45
5.04363E-01 1.00000E-45
5.08726E-01 1.00000E-45
5.13088E-01 1.00000E-45
5.17450E-01 1.00000E-45
5.21810E-01 1.00000E-45
5.26168E-01 1.00000E-45
5.30524E-01 1.00000E-45
5.34878E-01 1.00000E-45
5.39230E-01 1.00000E-45
5.43578E-01 1.00000E-45
5.47923E-01 1.00000E-45
5.52264E-01 1.00000E-45
5.56602E-01 1.00000E-45
5.60935E-01 1.00000E-45
5.65263E-01 1.00000E-45
5.69587E-01 1.00000E-45
5.73905E-01 1.00000E-45
5.78217E-01 1.00000E-45
5.82524E-01 1.00000E-45
5.86824E-01 1.00000E-45
5.91118E-01 1.00000E-45
5.95404E-01 1.00000E-45
5.99684E-01 1.00000E-45
6.03956E-01 1.00000E-45
6.08220E-01 1.00000E-45
6.12476E-01 1.00000E-45
6.16723E-01 1.00000E-45
6.20961E-01 1.00000E-45
6.25190E-01 1.00000E-45
6.29410E-01 1.00000E-45
6.33619E-01 1.00000E-45
6.37819E-01 1.00000E-45
6.42008E-01 1.00000E-45
6.46186E-01 1.00000E-45
6.50353E-01 1.00000E-45
6.54508E-01 1.00000E-45
6.58652E-01 1.00000E-45
6.62784E-01 1.00000E-45
6.66903E-01 1.00000E-45
6.71010E-01 1.00000E-45
6.75104E-01 1.00000E-45
6.79184E-01 1.00000E-45
6.83251E-01 1.00000E-45
6.87303E-01 1.00000E-45
6.91342E-01 1.00000E-45
6.95366E-01 1.00000E-45
6.99375E-01 1.00000E-45
7.03368E-01 1.00000E-45
7.07347E-01 1.00000E-45
7.11309E-01 1.00000E-45
7.15256E-01 1.00000E-45
7.19186E-01 1.00000E-45
7.23099E-01 1.00000E-45
7.26995E-01 1.00000E-45
7.30874E-01 1.00000E-45
7.34736E-01 1.00000E-45
7.38579E-01 1.00000E-45
7.42405E-01 1.00000E-45
7.46212E-01 1.00000E-45
7.50000E-01 1.00000E-45
7.53769E-01 1.00000E-45
7.57519E-01 1.00000E-45
7.61249E-01 1.00000E-45
7.64960E-01 1.00000E-45
7.68650E-01 1.00000E-45
7.72320E-01 1.00000E-45
7.75968E-01 1.00000E-45
7.79596E-01 1.00000E-45
7.83203E-01 1.00000E-45
7.86788E-01 1.00000E-45
7.90351E-01 1.00000E-45
7.93893E-01 1.00000E-45
7.97411E-01 1.00000E-45
8.00908E-01 1.00000E-45
8.04381E-01 1.00000E-45
8.07831E-01 1.00000E-45
8.11257E-01 1.00000E-45
8.14660E-01 1.00000E-45
8.18039E-01 1.00000E-45
8.21394E-01 1.00000E-45
8.24724E-01 1.00000E-45
8.28030E-01 1.00000E-45
8.31310E-01 1.00000E-45
8.34565E-01 1.00000E-45
8.37795E-01 1.00000E-45
8.40999E-01 1.00000E-45
8.44177E-01 1.00000E-45
8.47329E-01 1.00000E-45
8.50455E-01 1.00000E-45
8.53553E-01 1.00000E-45
8.56625E-01 1.00000E-45
8.59670E-01 1.00000E-45
8.62687E-01 1.00000E-45
8.65677E-01 1.00000E-45
8.68639E-01 1.00000E-45
8.71572E-01 1.00000E-45
8.74478E-01 1.00000E-45
8.77355E-01 1.00000E-45
8.80203E-01 1.00000E-45
8.83022E-01 1.00000E-45
8.85812E-01 1.00000E-45
8.88573E-01 1.00000E-45
8.91304E-01 1.00000E-45
8.94005E-01 1.00000E-45
8.96677E-01 1.00000E-45
8.99318E-01 1.00000E-45
9.01928E-01 1.00000E-45
9.04508E-01 1.00000E-45
9.07058E-01 1.00000E-45
9.09576E-01 1.00000E-45
9.12063E-01 1.00000E-45
9.14519E-01 1.00000E-45
9.16943E-01 1.00000E-45
9.19335E-01 1.00000E-45
9.21696E-01 1.00000E-45
9.24024E-01 1.00000E-45
9.26320E-01 1.00000E-45
9.28584E-01 1.00000E-45
9.30815E-01 1.00000E-45
9.33013E-01 1.00000E-45
9.35178E-01 1.00000E-45
9.37310E-01 1.00000E-45
9.39409E-01 1.00000E-45
9.41474E-01 1.00000E-45
9.43505E-01 1.00000E-45
9.45503E-01 1.00000E-45
9.47467E-01 1.00000E-45
9.49397E-01 1.00000E-45
9.51293E-01 1.00000E-45
9.53154E-01 1.00000E-45
9.54981E-01 1.00000E-45
9.56773E-01 1.00000E-45
9.58530E-01 1.00000E-45
9.60252E-01 1.00000E-45
9.61940E-01 1.00000E-45
9.63592E-01 1.00000E-45
9.65209E-01 1.00000E-45
9.66790E-01 1.00000E-45
9.68336E-01 1.00000E-45
9.69846E-01 1.00000E-45
9.71321E-01 1.00000E-45
9.72759E-01 1.00000E-45
9.74162E-01 1.00000E-45
9.75528E-01 1.00000E-45
9.76858E-01 1.00000E-45
9.78152E-01 1.00000E-45
9.79410E-01 1.00000E-45
9.80631E-01 1.00000E-45
9.81815E-01 1.00000E-45
9.82963E-01 1.00000E-45
9.84074E-01 1.00000E-45
9.85148E-01 1.00000E-45
9.86185E-01 1.00000E-45
9.87185E-01 1.00000E-45
9.88148E-01 1.00000E-45
9.89074E-01 1.00000E-45
9.89962E-01 1.00000E-45
9.90814E-01 1.00000E-45
9.91627E-01 1.00000E-45
9.92404E-01 1.00000E-45
9.93143E-01 1.00000E-45
9.93844E-01 1.00000E-45
9.94508E-01 1.00000E-45
9.95134E-01 1.00000E-45
9.95722E-01 1.00000E-45
9.96273E-01 1.00000E-45
9.96786E-01 1.00000E-45
9.97261E-01 1.00000E-45
9.97698E-01 1.00000E-45
9.98097E-01 1.00000E-45
9.98459E-01 1.00000E-45
9.98782E-01 1.00000E-45
9.99067E-01 1.00000E-45
9.99315E-01 1.00000E-45
9.99524E-01 1.00000E-45
9.99695E-01 1.00000E-45
9.99829E-01 1.00000E-45
9.99924E-01 1.00000E-45
9.99981E-01 1.00000E-45
1.00000E+00 1.00000E-45
