 #
 # Subroutine ELSEPA. Elastic scattering of electrons and positrons
 #                    by neutral atoms and positive ions
 #
 # Projectile: electron
 # Kinetic energy = 2.50000E+07 eV = 9.18733E+05 a.u.
 #
 # WARNING: High-energy factorization with free-atom DF screening.
 #          Absorption, polarization and exchange corrections are
 #          switched off.
 #          Phase shifts are calculated for the bare nucleus.
 #          Scattering amplitudes are not evaluated.
 #
 # Element: Cs,  Z =  55,  atomic weight = 1.32905E+02 g/mol
 #
 # Nuclear model: Fermi distribution
 #                Average radius = 5.46049E-13 cm
 #                Skin thickness = 5.46000E-14 cm
 #
 # Number of electrons = 55
 #
 # Total elastic cross section = 6.62365E-18 cm**2 = 2.36535E-01 a0**2
 # 1st transport cross section = 8.89008E-24 cm**2 = 3.17471E-07 a0**2
 # 2nd transport cross section = 2.54894E-23 cm**2 = 9.10243E-07 a0**2
 #
 #
 # Differential cross section:                       MU=(1-COS(THETA))/2
 #
 #  THETA        MU          DCS          DCS        Sherman      error
 #  (deg)                 (cm**2/sr)   (a0**2/sr)    function
 #----------------------------------------------------------------------
0.00000E+00 6.58977E-11
7.61557E-13 6.58664E-11
1.18994E-12 6.58489E-11
1.71346E-12 6.58276E-11
2.33225E-12 6.58023E-11
3.04617E-12 6.57733E-11
3.85530E-12 6.57403E-11
4.75964E-12 6.57036E-11
5.75917E-12 6.56630E-11
6.85391E-12 6.56186E-11
8.04379E-12 6.55704E-11
9.32893E-12 6.55184E-11
1.07092E-11 6.54627E-11
1.21847E-11 6.54032E-11
1.37554E-11 6.53400E-11
1.54213E-11 6.52730E-11
1.71823E-11 6.52024E-11
1.90386E-11 6.51282E-11
2.09900E-11 6.50502E-11
2.30367E-11 6.49687E-11
2.51785E-11 6.48835E-11
2.74156E-11 6.47948E-11
2.97478E-11 6.47026E-11
3.21752E-11 6.46068E-11
3.46979E-11 6.45076E-11
3.73157E-11 6.44048E-11
4.00286E-11 6.42987E-11
4.28368E-11 6.41892E-11
4.57402E-11 6.40763E-11
4.87388E-11 6.39601E-11
5.18325E-11 6.38406E-11
5.50215E-11 6.37179E-11
5.83057E-11 6.35919E-11
6.16850E-11 6.34628E-11
6.51595E-11 6.33304E-11
6.87293E-11 6.31951E-11
7.23943E-11 6.30565E-11
7.61544E-11 6.29151E-11
1.18991E-10 6.13429E-11
1.71347E-10 5.95161E-11
2.33223E-10 5.74827E-11
3.04617E-10 5.52913E-11
3.85531E-10 5.30170E-11
4.75965E-10 5.06679E-11
5.75917E-10 4.82586E-11
6.85389E-10 4.59145E-11
8.04380E-10 4.35416E-11
9.32891E-10 4.13218E-11
1.07092E-09 3.90973E-11
1.21847E-09 3.70606E-11
1.37554E-09 3.50574E-11
1.54213E-09 3.32196E-11
1.71823E-09 3.14549E-11
1.90386E-09 2.98244E-11
2.09900E-09 2.82901E-11
2.30367E-09 2.68590E-11
2.51785E-09 2.55329E-11
2.74156E-09 2.42838E-11
2.97478E-09 2.31378E-11
3.21752E-09 2.20493E-11
3.46978E-09 2.10547E-11
3.73156E-09 2.01047E-11
4.00286E-09 1.92355E-11
4.28368E-09 1.84059E-11
4.57402E-09 1.76367E-11
4.87388E-09 1.69068E-11
5.18326E-09 1.62217E-11
5.50215E-09 1.55734E-11
5.83057E-09 1.49599E-11
6.16850E-09 1.43790E-11
6.51596E-09 1.38269E-11
6.87293E-09 1.33023E-11
7.23942E-09 1.28031E-11
7.61544E-09 1.23261E-11
1.18991E-08 8.55517E-12
1.71347E-08 6.04174E-12
2.33223E-08 4.33782E-12
3.04617E-08 3.17810E-12
3.85531E-08 2.36706E-12
4.75965E-08 1.80697E-12
5.75917E-08 1.41700E-12
6.85389E-08 1.12005E-12
8.04380E-08 9.06276E-13
9.32891E-08 7.33939E-13
1.07092E-07 6.06254E-13
1.21847E-07 4.99975E-13
1.37554E-07 4.18320E-13
1.54213E-07 3.50462E-13
1.71823E-07 2.96322E-13
1.90386E-07 2.51548E-13
2.09900E-07 2.14844E-13
2.30367E-07 1.84531E-13
2.51785E-07 1.59222E-13
2.74156E-07 1.38242E-13
2.97478E-07 1.20500E-13
3.21752E-07 1.05681E-13
3.46978E-07 9.30179E-14
3.73156E-07 8.23424E-14
4.00286E-07 7.31255E-14
4.28368E-07 6.52698E-14
4.57402E-07 5.84388E-14
4.87388E-07 5.25445E-14
5.18325E-07 4.73829E-14
5.50215E-07 4.28771E-14
5.83057E-07 3.89051E-14
6.16850E-07 3.53993E-14
6.51596E-07 3.22922E-14
6.87293E-07 2.95202E-14
7.23942E-07 2.70536E-14
7.61543E-07 2.48306E-14
1.18991E-06 1.15029E-14
1.71347E-06 5.97256E-15
2.33223E-06 3.37358E-15
3.04617E-06 2.04522E-15
3.85531E-06 1.31160E-15
4.75964E-06 8.81310E-16
5.75916E-06 6.14570E-16
6.85388E-06 4.41826E-16
8.04378E-06 3.25695E-16
9.32888E-06 2.45299E-16
1.07092E-05 1.88214E-16
1.21846E-05 1.46776E-16
1.37553E-05 1.16110E-16
1.54212E-05 9.30304E-17
1.71822E-05 7.53905E-17
1.90385E-05 6.17067E-17
2.09899E-05 5.10221E-17
2.30365E-05 4.25455E-17
2.51783E-05 3.57502E-17
2.74153E-05 3.02528E-17
2.97475E-05 2.57691E-17
3.21749E-05 2.20853E-17
3.46974E-05 1.90382E-17
3.73152E-05 1.65008E-17
4.00281E-05 1.43739E-17
4.28362E-05 1.25798E-17
4.57395E-05 1.10573E-17
4.87380E-05 9.75806E-18
5.18317E-05 8.64390E-18
5.50205E-05 7.68415E-18
5.83045E-05 6.85402E-18
6.16838E-05 6.13320E-18
6.51582E-05 5.50497E-18
6.87277E-05 4.95538E-18
7.23925E-05 4.47291E-18
7.61524E-05 4.04826E-18
9.21439E-05 2.77911E-18
1.09658E-04 1.97081E-18
1.28695E-04 1.43645E-18
1.49255E-04 1.07155E-18
1.71338E-04 8.15613E-19
1.94942E-04 6.31743E-19
2.20070E-04 4.96917E-19
2.46720E-04 3.96238E-19
2.74892E-04 3.19822E-19
3.04586E-04 2.60988E-19
3.35803E-04 2.15089E-19
3.68542E-04 1.78860E-19
4.02802E-04 1.49954E-19
4.38585E-04 1.26664E-19
4.75889E-04 1.07731E-19
5.14715E-04 9.22110E-20
5.55063E-04 7.93919E-20
5.96931E-04 6.87281E-20
6.40321E-04 5.97990E-20
6.85233E-04 5.22765E-20
7.31665E-04 4.59025E-20
7.79618E-04 4.04731E-20
8.29092E-04 3.58248E-20
8.80086E-04 3.18265E-20
9.32601E-04 2.83721E-20
9.86636E-04 2.53750E-20
1.04219E-03 2.27645E-20
1.09927E-03 2.04820E-20
1.15786E-03 1.84794E-20
1.21797E-03 1.67163E-20
1.27961E-03 1.51592E-20
1.34276E-03 1.37799E-20
1.40743E-03 1.25544E-20
1.47362E-03 1.14626E-20
1.54133E-03 1.04874E-20
1.61056E-03 9.61409E-21
1.68131E-03 8.83016E-21
1.75357E-03 8.12482E-21
1.82735E-03 7.48880E-21
1.90265E-03 6.91407E-21
1.97947E-03 6.39367E-21
2.05780E-03 5.92152E-21
2.13765E-03 5.49235E-21
2.21902E-03 5.10154E-21
2.30190E-03 4.74504E-21
2.38630E-03 4.41928E-21
2.47222E-03 4.12115E-21
2.55965E-03 3.84786E-21
2.64859E-03 3.59696E-21
2.73905E-03 3.36629E-21
2.83103E-03 3.15392E-21
2.92452E-03 2.95811E-21
3.01952E-03 2.77736E-21
3.11604E-03 2.61027E-21
3.21407E-03 2.45564E-21
3.31362E-03 2.31235E-21
3.41468E-03 2.17943E-21
3.51725E-03 2.05598E-21
3.62133E-03 1.94119E-21
3.72692E-03 1.83436E-21
3.83403E-03 1.73482E-21
3.94265E-03 1.64198E-21
4.05278E-03 1.55532E-21
4.16442E-03 1.47433E-21
4.27757E-03 1.39858E-21
4.39223E-03 1.32767E-21
4.50840E-03 1.26122E-21
4.62608E-03 1.19891E-21
4.74527E-03 1.14043E-21
4.86597E-03 1.08549E-21
4.98817E-03 1.03385E-21
5.11188E-03 9.85261E-22
5.23711E-03 9.39516E-22
5.36383E-03 8.96414E-22
5.49207E-03 8.55775E-22
5.62181E-03 8.17430E-22
5.75306E-03 7.81226E-22
5.88581E-03 7.47020E-22
6.02007E-03 7.14680E-22
6.15583E-03 6.84085E-22
6.29310E-03 6.55122E-22
6.43187E-03 6.27688E-22
6.57214E-03 6.01687E-22
6.71392E-03 5.77030E-22
6.85720E-03 5.53634E-22
7.00198E-03 5.31421E-22
7.14827E-03 5.10320E-22
7.29605E-03 4.90265E-22
7.44534E-03 4.71193E-22
7.59612E-03 4.53049E-22
7.97965E-03 4.11397E-22
8.37255E-03 3.74461E-22
8.77480E-03 3.41613E-22
9.18641E-03 3.12320E-22
9.60736E-03 2.86126E-22
1.00376E-02 2.62646E-22
1.04773E-02 2.41547E-22
1.09262E-02 2.22543E-22
1.13844E-02 2.05390E-22
1.18520E-02 1.89872E-22
1.23288E-02 1.75806E-22
1.28150E-02 1.63032E-22
1.33104E-02 1.51407E-22
1.38150E-02 1.40810E-22
1.43290E-02 1.31133E-22
1.48521E-02 1.22281E-22
1.53845E-02 1.14172E-22
1.59262E-02 1.06729E-22
1.64770E-02 9.98896E-23
1.70371E-02 9.35941E-23
1.76063E-02 8.77921E-23
1.81848E-02 8.24372E-23
1.87724E-02 7.74883E-23
1.93692E-02 7.29091E-23
1.99751E-02 6.86663E-23
2.05901E-02 6.47309E-23
2.12143E-02 6.10761E-23
2.18476E-02 5.76781E-23
2.24900E-02 5.45155E-23
2.31415E-02 5.15688E-23
2.38021E-02 4.88205E-23
2.44717E-02 4.62546E-23
2.51504E-02 4.38567E-23
2.58382E-02 4.16136E-23
2.65349E-02 3.95134E-23
2.72407E-02 3.75453E-23
2.79555E-02 3.56994E-23
2.86793E-02 3.39665E-23
2.94120E-02 3.23385E-23
3.01537E-02 3.08077E-23
3.09043E-02 2.93672E-23
3.16639E-02 2.80106E-23
3.24324E-02 2.67322E-23
3.32098E-02 2.55265E-23
3.39961E-02 2.43884E-23
3.47912E-02 2.33136E-23
3.55952E-02 2.22977E-23
3.64081E-02 2.13371E-23
3.72297E-02 2.04280E-23
3.80602E-02 1.95671E-23
3.88995E-02 1.87514E-23
3.97476E-02 1.79781E-23
4.06044E-02 1.72445E-23
4.14700E-02 1.65482E-23
4.23443E-02 1.58869E-23
4.32273E-02 1.52585E-23
4.41190E-02 1.46611E-23
4.50194E-02 1.40927E-23
4.59284E-02 1.35518E-23
4.68461E-02 1.30367E-23
4.87074E-02 1.20782E-23
5.06030E-02 1.12066E-23
5.25328E-02 1.04124E-23
5.44967E-02 9.68763E-24
5.64946E-02 9.02494E-24
5.85262E-02 8.41807E-24
6.05914E-02 7.86142E-24
6.26901E-02 7.35005E-24
6.48222E-02 6.87960E-24
6.69873E-02 6.44616E-24
6.91854E-02 6.04628E-24
7.14163E-02 5.67687E-24
7.36799E-02 5.33516E-24
7.59760E-02 5.01870E-24
7.83043E-02 4.72525E-24
8.06647E-02 4.45283E-24
8.30571E-02 4.19966E-24
8.54812E-02 3.96410E-24
8.79369E-02 3.74471E-24
9.04240E-02 3.54017E-24
9.29422E-02 3.34927E-24
9.54915E-02 3.17095E-24
9.80716E-02 3.00421E-24
1.00682E-01 2.84816E-24
1.03323E-01 2.70198E-24
1.05995E-01 2.56494E-24
1.08696E-01 2.43636E-24
1.11427E-01 2.31561E-24
1.14188E-01 2.20213E-24
1.16978E-01 2.09540E-24
1.19797E-01 1.99494E-24
1.22645E-01 1.90032E-24
1.25522E-01 1.81113E-24
1.28428E-01 1.72700E-24
1.31361E-01 1.64760E-24
1.34323E-01 1.57260E-24
1.37313E-01 1.50173E-24
1.40330E-01 1.43470E-24
1.43375E-01 1.37127E-24
1.46447E-01 1.31122E-24
1.49545E-01 1.25433E-24
1.52671E-01 1.20040E-24
1.55823E-01 1.14925E-24
1.59001E-01 1.10072E-24
1.62205E-01 1.05464E-24
1.65435E-01 1.01086E-24
1.68690E-01 9.69262E-25
1.71970E-01 9.29703E-25
1.75276E-01 8.92069E-25
1.78606E-01 8.56250E-25
1.81961E-01 8.22143E-25
1.85340E-01 7.89651E-25
1.88743E-01 7.58684E-25
1.92169E-01 7.29157E-25
1.95619E-01 7.00993E-25
1.99092E-01 6.74116E-25
2.02589E-01 6.48459E-25
2.06107E-01 6.23954E-25
2.09649E-01 6.00543E-25
2.13212E-01 5.78167E-25
2.16797E-01 5.56773E-25
2.20404E-01 5.36310E-25
2.24032E-01 5.16731E-25
2.27680E-01 4.97991E-25
2.31350E-01 4.80048E-25
2.35040E-01 4.62862E-25
2.38751E-01 4.46396E-25
2.42481E-01 4.30614E-25
2.46231E-01 4.15484E-25
2.50000E-01 4.00973E-25
2.53788E-01 3.87053E-25
2.57595E-01 3.73695E-25
2.61421E-01 3.60873E-25
2.65264E-01 3.48561E-25
2.69126E-01 3.36737E-25
2.73005E-01 3.25377E-25
2.76901E-01 3.14460E-25
2.80814E-01 3.03967E-25
2.84744E-01 2.93878E-25
2.88691E-01 2.84175E-25
2.92653E-01 2.74841E-25
2.96632E-01 2.65859E-25
3.00625E-01 2.57215E-25
3.04634E-01 2.48893E-25
3.08658E-01 2.40880E-25
3.12697E-01 2.33162E-25
3.16749E-01 2.25727E-25
3.20816E-01 2.18563E-25
3.24896E-01 2.11658E-25
3.28990E-01 2.05002E-25
3.33097E-01 1.98584E-25
3.37216E-01 1.92395E-25
3.41348E-01 1.86424E-25
3.45492E-01 1.80664E-25
3.49647E-01 1.75105E-25
3.53814E-01 1.69740E-25
3.57992E-01 1.64560E-25
3.62181E-01 1.59559E-25
3.66381E-01 1.54729E-25
3.70590E-01 1.50064E-25
3.74810E-01 1.45557E-25
3.79039E-01 1.41202E-25
3.83277E-01 1.36993E-25
3.87524E-01 1.32924E-25
3.91780E-01 1.28991E-25
3.96044E-01 1.25188E-25
4.00316E-01 1.21510E-25
4.04596E-01 1.17952E-25
4.08882E-01 1.14511E-25
4.13176E-01 1.11181E-25
4.17476E-01 1.07958E-25
4.21783E-01 1.04839E-25
4.26095E-01 1.01820E-25
4.30413E-01 9.88968E-26
4.34737E-01 9.60664E-26
4.39065E-01 9.33253E-26
4.43398E-01 9.06704E-26
4.47736E-01 8.80985E-26
4.52077E-01 8.56067E-26
4.56422E-01 8.31923E-26
4.60770E-01 8.08524E-26
4.65122E-01 7.85845E-26
4.69476E-01 7.63860E-26
4.73832E-01 7.42546E-26
4.78190E-01 7.21880E-26
4.82550E-01 7.01840E-26
4.86912E-01 6.82403E-26
4.91274E-01 6.63550E-26
4.95637E-01 6.45261E-26
5.00000E-01 6.27517E-26
5.04363E-01 6.10299E-26
5.08726E-01 5.93590E-26
5.13088E-01 5.77374E-26
5.17450E-01 5.61633E-26
5.21810E-01 5.46353E-26
5.26168E-01 5.31518E-26
5.30524E-01 5.17113E-26
5.34878E-01 5.03126E-26
5.39230E-01 4.89541E-26
5.43578E-01 4.76346E-26
5.47923E-01 4.63530E-26
5.52264E-01 4.51078E-26
5.56602E-01 4.38981E-26
5.60935E-01 4.27227E-26
5.65263E-01 4.15804E-26
5.69587E-01 4.04703E-26
5.73905E-01 3.93914E-26
5.78217E-01 3.83426E-26
5.82524E-01 3.73230E-26
5.86824E-01 3.63318E-26
5.91118E-01 3.53680E-26
5.95404E-01 3.44308E-26
5.99684E-01 3.35195E-26
6.03956E-01 3.26331E-26
6.08220E-01 3.17710E-26
6.12476E-01 3.09324E-26
6.16723E-01 3.01167E-26
6.20961E-01 2.93230E-26
6.25190E-01 2.85508E-26
6.29410E-01 2.77995E-26
6.33619E-01 2.70683E-26
6.37819E-01 2.63568E-26
6.42008E-01 2.56642E-26
6.46186E-01 2.49902E-26
6.50353E-01 2.43340E-26
6.54508E-01 2.36953E-26
6.58652E-01 2.30735E-26
6.62784E-01 2.24680E-26
6.66903E-01 2.18785E-26
6.71010E-01 2.13045E-26
6.75104E-01 2.07455E-26
6.79184E-01 2.02011E-26
6.83251E-01 1.96709E-26
6.87303E-01 1.91545E-26
6.91342E-01 1.86514E-26
6.95366E-01 1.81614E-26
6.99375E-01 1.76840E-26
7.03368E-01 1.72189E-26
7.07347E-01 1.67657E-26
7.11309E-01 1.63242E-26
7.15256E-01 1.58939E-26
7.19186E-01 1.54747E-26
7.23099E-01 1.50661E-26
7.26995E-01 1.46679E-26
7.30874E-01 1.42797E-26
7.34736E-01 1.39014E-26
7.38579E-01 1.35327E-26
7.42405E-01 1.31732E-26
7.46212E-01 1.28228E-26
7.50000E-01 1.24812E-26
7.53769E-01 1.21481E-26
7.57519E-01 1.18234E-26
7.61249E-01 1.15068E-26
7.64960E-01 1.11981E-26
7.68650E-01 1.08970E-26
7.72320E-01 1.06035E-26
7.75968E-01 1.03172E-26
7.79596E-01 1.00380E-26
7.83203E-01 9.76568E-27
7.86788E-01 9.50011E-27
7.90351E-01 9.24108E-27
7.93893E-01 8.98843E-27
7.97411E-01 8.74200E-27
8.00908E-01 8.50161E-27
8.04381E-01 8.26711E-27
8.07831E-01 8.03837E-27
8.11257E-01 7.81521E-27
8.14660E-01 7.59751E-27
8.18039E-01 7.38513E-27
8.21394E-01 7.17793E-27
8.24724E-01 6.97577E-27
8.28030E-01 6.77854E-27
8.31310E-01 6.58611E-27
8.34565E-01 6.39836E-27
8.37795E-01 6.21517E-27
8.40999E-01 6.03643E-27
8.44177E-01 5.86203E-27
8.47329E-01 5.69186E-27
8.50455E-01 5.52582E-27
8.53553E-01 5.36381E-27
8.56625E-01 5.20572E-27
8.59670E-01 5.05148E-27
8.62687E-01 4.90097E-27
8.65677E-01 4.75411E-27
8.68639E-01 4.61082E-27
8.71572E-01 4.47100E-27
8.74478E-01 4.33458E-27
8.77355E-01 4.20148E-27
8.80203E-01 4.07161E-27
8.83022E-01 3.94491E-27
8.85812E-01 3.82129E-27
8.88573E-01 3.70068E-27
8.91304E-01 3.58302E-27
8.94005E-01 3.46824E-27
8.96677E-01 3.35627E-27
8.99318E-01 3.24705E-27
9.01928E-01 3.14051E-27
9.04508E-01 3.03660E-27
9.07058E-01 2.93525E-27
9.09576E-01 2.83641E-27
9.12063E-01 2.74002E-27
9.14519E-01 2.64602E-27
9.16943E-01 2.55438E-27
9.19335E-01 2.46502E-27
9.21696E-01 2.37792E-27
9.24024E-01 2.29300E-27
9.26320E-01 2.21024E-27
9.28584E-01 2.12958E-27
9.30815E-01 2.05098E-27
9.33013E-01 1.97439E-27
9.35178E-01 1.89978E-27
9.37310E-01 1.82710E-27
9.39409E-01 1.75632E-27
9.41474E-01 1.68739E-27
9.43505E-01 1.62027E-27
9.45503E-01 1.55494E-27
9.47467E-01 1.49136E-27
9.49397E-01 1.42949E-27
9.51293E-01 1.36930E-27
9.53154E-01 1.31076E-27
9.54981E-01 1.25383E-27
9.56773E-01 1.19849E-27
9.58530E-01 1.14470E-27
9.60252E-01 1.09244E-27
9.61940E-01 1.04169E-27
9.63592E-01 9.92404E-28
9.65209E-01 9.44570E-28
9.66790E-01 8.98158E-28
9.68336E-01 8.53145E-28
9.69846E-01 8.09507E-28
9.71321E-01 7.67221E-28
9.72759E-01 7.26266E-28
9.74162E-01 6.86620E-28
9.75528E-01 6.48263E-28
9.76858E-01 6.11175E-28
9.78152E-01 5.75336E-28
9.79410E-01 5.40729E-28
9.80631E-01 5.07336E-28
9.81815E-01 4.75139E-28
9.82963E-01 4.44121E-28
9.84074E-01 4.14268E-28
9.85148E-01 3.85564E-28
9.86185E-01 3.57994E-28
9.87185E-01 3.31544E-28
9.88148E-01 3.06200E-28
9.89074E-01 2.81951E-28
9.89962E-01 2.58783E-28
9.90814E-01 2.36685E-28
9.91627E-01 2.15646E-28
9.92404E-01 1.95654E-28
9.93143E-01 1.76701E-28
9.93844E-01 1.58775E-28
9.94508E-01 1.41870E-28
9.95134E-01 1.25975E-28
9.95722E-01 1.11083E-28
9.96273E-01 9.71857E-29
9.96786E-01 8.42774E-29
9.97261E-01 7.23509E-29
9.97698E-01 6.14004E-29
9.98097E-01 5.14204E-29
9.98459E-01 4.24058E-29
9.98782E-01 3.43522E-29
9.99067E-01 2.72554E-29
9.99315E-01 2.11121E-29
9.99524E-01 1.59191E-29
9.99695E-01 1.16738E-29
9.99829E-01 8.37409E-30
9.99924E-01 6.01832E-30
9.99981E-01 4.60534E-30
1.00000E+00 4.13442E-30
