 #
 # Subroutine ELSEPA. Elastic scattering of electrons and positrons
 #                    by neutral atoms and positive ions
 #
 # Projectile: electron
 # Kinetic energy = 4.00000E+06 eV = 1.46997E+05 a.u.
 #
 # WARNING: High-energy factorization with free-atom DF screening.
 #          Absorption, polarization and exchange corrections are
 #          switched off.
 #          Phase shifts are calculated for the bare nucleus.
 #          Scattering amplitudes are not evaluated.
 #
 # Element: Cs,  Z =  55,  atomic weight = 1.32905E+02 g/mol
 #
 # Nuclear model: Fermi distribution
 #                Average radius = 5.46049E-13 cm
 #                Skin thickness = 5.46000E-14 cm
 #
 # Number of electrons = 55
 #
 # Total elastic cross section = 6.71600E-18 cm**2 = 2.39833E-01 a0**2
 # 1st transport cross section = 2.36621E-22 cm**2 = 8.44990E-06 a0**2
 # 2nd transport cross section = 6.54306E-22 cm**2 = 2.33657E-05 a0**2
 #
 #
 # Differential cross section:                       MU=(1-COS(THETA))/2
 #
 #  THETA        MU          DCS          DCS        Sherman      error
 #  (deg)                 (cm**2/sr)   (a0**2/sr)    function
 #----------------------------------------------------------------------
0.00000E+00 2.06044E-12
7.61557E-13 2.06041E-12
1.18994E-12 2.06040E-12
1.71346E-12 2.06038E-12
2.33225E-12 2.06035E-12
3.04617E-12 2.06032E-12
3.85530E-12 2.06029E-12
4.75964E-12 2.06026E-12
5.75917E-12 2.06022E-12
6.85391E-12 2.06017E-12
8.04379E-12 2.06013E-12
9.32893E-12 2.06008E-12
1.07092E-11 2.06002E-12
1.21847E-11 2.05996E-12
1.37554E-11 2.05990E-12
1.54213E-11 2.05984E-12
1.71823E-11 2.05977E-12
1.90386E-11 2.05969E-12
2.09900E-11 2.05962E-12
2.30367E-11 2.05954E-12
2.51785E-11 2.05945E-12
2.74156E-11 2.05936E-12
2.97478E-11 2.05927E-12
3.21752E-11 2.05918E-12
3.46979E-11 2.05908E-12
3.73157E-11 2.05898E-12
4.00286E-11 2.05887E-12
4.28368E-11 2.05876E-12
4.57402E-11 2.05864E-12
4.87388E-11 2.05853E-12
5.18325E-11 2.05840E-12
5.50215E-11 2.05828E-12
5.83057E-11 2.05815E-12
6.16850E-11 2.05802E-12
6.51595E-11 2.05788E-12
6.87293E-11 2.05774E-12
7.23943E-11 2.05760E-12
7.61544E-11 2.05745E-12
1.18991E-10 2.05577E-12
1.71347E-10 2.05372E-12
2.33223E-10 2.05130E-12
3.04617E-10 2.04851E-12
3.85531E-10 2.04536E-12
4.75965E-10 2.04185E-12
5.75917E-10 2.03798E-12
6.85389E-10 2.03376E-12
8.04380E-10 2.02919E-12
9.32891E-10 2.02428E-12
1.07092E-09 2.01902E-12
1.21847E-09 2.01343E-12
1.37554E-09 2.00751E-12
1.54213E-09 2.00127E-12
1.71823E-09 1.99470E-12
1.90386E-09 1.98783E-12
2.09900E-09 1.98064E-12
2.30367E-09 1.97316E-12
2.51785E-09 1.96538E-12
2.74156E-09 1.95732E-12
2.97478E-09 1.94897E-12
3.21752E-09 1.94035E-12
3.46978E-09 1.93147E-12
3.73156E-09 1.92233E-12
4.00286E-09 1.91295E-12
4.28368E-09 1.90332E-12
4.57402E-09 1.89345E-12
4.87388E-09 1.88336E-12
5.18326E-09 1.87305E-12
5.50215E-09 1.86254E-12
5.83057E-09 1.85182E-12
6.16850E-09 1.84091E-12
6.51596E-09 1.82982E-12
6.87293E-09 1.81854E-12
7.23942E-09 1.80711E-12
7.61544E-09 1.79551E-12
1.18991E-08 1.67301E-12
1.71347E-08 1.54303E-12
2.33223E-08 1.41341E-12
3.04617E-08 1.28814E-12
3.85531E-08 1.17061E-12
4.75965E-08 1.06281E-12
5.75917E-08 9.65781E-13
6.85389E-08 8.80615E-13
8.04380E-08 8.04862E-13
9.32891E-08 7.37719E-13
1.07092E-07 6.78264E-13
1.21847E-07 6.25553E-13
1.37554E-07 5.78871E-13
1.54213E-07 5.37078E-13
1.71823E-07 4.99369E-13
1.90386E-07 4.65204E-13
2.09900E-07 4.34117E-13
2.30367E-07 4.05701E-13
2.51785E-07 3.79545E-13
2.74156E-07 3.55415E-13
2.97478E-07 3.33105E-13
3.21752E-07 3.12434E-13
3.46978E-07 2.93247E-13
3.73156E-07 2.75337E-13
4.00286E-07 2.58639E-13
4.28368E-07 2.43088E-13
4.57402E-07 2.28595E-13
4.87388E-07 2.15082E-13
5.18325E-07 2.02457E-13
5.50215E-07 1.90627E-13
5.83057E-07 1.79594E-13
6.16850E-07 1.69299E-13
6.51596E-07 1.59692E-13
6.87293E-07 1.50722E-13
7.23942E-07 1.42313E-13
7.61543E-07 1.34456E-13
1.18991E-06 7.88492E-14
1.71347E-06 4.95418E-14
2.33223E-06 3.28318E-14
3.04617E-06 2.27100E-14
3.85531E-06 1.62044E-14
4.75964E-06 1.18346E-14
5.75916E-06 8.80289E-15
6.85388E-06 6.64055E-15
8.04378E-06 5.10097E-15
9.32888E-06 3.98440E-15
1.07092E-05 3.16110E-15
1.21846E-05 2.54457E-15
1.37553E-05 2.07492E-15
1.54212E-05 1.71231E-15
1.71822E-05 1.42846E-15
1.90385E-05 1.20268E-15
2.09899E-05 1.02188E-15
2.30365E-05 8.74437E-16
2.51783E-05 7.52505E-16
2.74153E-05 6.51307E-16
2.97475E-05 5.66413E-16
3.21749E-05 4.94716E-16
3.46974E-05 4.33960E-16
3.73152E-05 3.82062E-16
4.00281E-05 3.37600E-16
4.28362E-05 2.99356E-16
4.57395E-05 2.66294E-16
4.87380E-05 2.37581E-16
5.18317E-05 2.12530E-16
5.50205E-05 1.90582E-16
5.83045E-05 1.71351E-16
6.16838E-05 1.54455E-16
6.51582E-05 1.39575E-16
6.87277E-05 1.26436E-16
7.23925E-05 1.14793E-16
7.61524E-05 1.04460E-16
9.21439E-05 7.31474E-17
1.09658E-04 5.27537E-17
1.28695E-04 3.90180E-17
1.49255E-04 2.95150E-17
1.71338E-04 2.27561E-17
1.94942E-04 1.78344E-17
2.20070E-04 1.41759E-17
2.46720E-04 1.14096E-17
2.74892E-04 9.28754E-18
3.04586E-04 7.63725E-18
3.35803E-04 6.33757E-18
3.68542E-04 5.30245E-18
4.02802E-04 4.46922E-18
4.38585E-04 3.79328E-18
4.75889E-04 3.24034E-18
5.14715E-04 2.78448E-18
5.55063E-04 2.40596E-18
5.96931E-04 2.08939E-18
6.40321E-04 1.82317E-18
6.85233E-04 1.59805E-18
7.31665E-04 1.40665E-18
7.79618E-04 1.24309E-18
8.29092E-04 1.10263E-18
8.80086E-04 9.81458E-19
9.32601E-04 8.76517E-19
9.86636E-04 7.85268E-19
1.04219E-03 7.05621E-19
1.09927E-03 6.35849E-19
1.15786E-03 5.74503E-19
1.21797E-03 5.20404E-19
1.27961E-03 4.72549E-19
1.34276E-03 4.30093E-19
1.40743E-03 3.92318E-19
1.47362E-03 3.58617E-19
1.54133E-03 3.28469E-19
1.61056E-03 3.01439E-19
1.68131E-03 2.77146E-19
1.75357E-03 2.55264E-19
1.82735E-03 2.35510E-19
1.90265E-03 2.17638E-19
1.97947E-03 2.01438E-19
2.05780E-03 1.86726E-19
2.13765E-03 1.73340E-19
2.21902E-03 1.61139E-19
2.30190E-03 1.49998E-19
2.38630E-03 1.39809E-19
2.47222E-03 1.30475E-19
2.55965E-03 1.21912E-19
2.64859E-03 1.14044E-19
2.73905E-03 1.06804E-19
2.83103E-03 1.00133E-19
2.92452E-03 9.39775E-20
3.01952E-03 8.82910E-20
3.11604E-03 8.30309E-20
3.21407E-03 7.81592E-20
3.31362E-03 7.36417E-20
3.41468E-03 6.94477E-20
3.51725E-03 6.55502E-20
3.62133E-03 6.19241E-20
3.72692E-03 5.85470E-20
3.83403E-03 5.53985E-20
3.94265E-03 5.24601E-20
4.05278E-03 4.97153E-20
4.16442E-03 4.71489E-20
4.27757E-03 4.47473E-20
4.39223E-03 4.24977E-20
4.50840E-03 4.03886E-20
4.62608E-03 3.84097E-20
4.74527E-03 3.65514E-20
4.86597E-03 3.48050E-20
4.98817E-03 3.31625E-20
5.11188E-03 3.16165E-20
5.23711E-03 3.01601E-20
5.36383E-03 2.87873E-20
5.49207E-03 2.74924E-20
5.62181E-03 2.62700E-20
5.75306E-03 2.51155E-20
5.88581E-03 2.40240E-20
6.02007E-03 2.29918E-20
6.15583E-03 2.20148E-20
6.29310E-03 2.10897E-20
6.43187E-03 2.02131E-20
6.57214E-03 1.93819E-20
6.71392E-03 1.85934E-20
6.85720E-03 1.78449E-20
7.00198E-03 1.71341E-20
7.14827E-03 1.64586E-20
7.29605E-03 1.58164E-20
7.44534E-03 1.52055E-20
7.59612E-03 1.46241E-20
7.97965E-03 1.32887E-20
8.37255E-03 1.21037E-20
8.77480E-03 1.10491E-20
9.18641E-03 1.01080E-20
9.60736E-03 9.26604E-21
1.00376E-02 8.51080E-21
1.04773E-02 7.83176E-21
1.09262E-02 7.21984E-21
1.13844E-02 6.66719E-21
1.18520E-02 6.16699E-21
1.23288E-02 5.71339E-21
1.28150E-02 5.30124E-21
1.33104E-02 4.92604E-21
1.38150E-02 4.58388E-21
1.43290E-02 4.27128E-21
1.48521E-02 3.98522E-21
1.53845E-02 3.72303E-21
1.59262E-02 3.48234E-21
1.64770E-02 3.26107E-21
1.70371E-02 3.05734E-21
1.76063E-02 2.86949E-21
1.81848E-02 2.69607E-21
1.87724E-02 2.53574E-21
1.93692E-02 2.38734E-21
1.99751E-02 2.24981E-21
2.05901E-02 2.12218E-21
2.12143E-02 2.00363E-21
2.18476E-02 1.89337E-21
2.24900E-02 1.79071E-21
2.31415E-02 1.69504E-21
2.38021E-02 1.60577E-21
2.44717E-02 1.52241E-21
2.51504E-02 1.44447E-21
2.58382E-02 1.37155E-21
2.65349E-02 1.30326E-21
2.72407E-02 1.23923E-21
2.79555E-02 1.17916E-21
2.86793E-02 1.12276E-21
2.94120E-02 1.06974E-21
3.01537E-02 1.01988E-21
3.09043E-02 9.72946E-22
3.16639E-02 9.28731E-22
3.24324E-02 8.87046E-22
3.32098E-02 8.47719E-22
3.39961E-02 8.10591E-22
3.47912E-02 7.75512E-22
3.55952E-02 7.42349E-22
3.64081E-02 7.10973E-22
3.72297E-02 6.81272E-22
3.80602E-02 6.53137E-22
3.88995E-02 6.26469E-22
3.97476E-02 6.01176E-22
4.06044E-02 5.77172E-22
4.14700E-02 5.54380E-22
4.23443E-02 5.32725E-22
4.32273E-02 5.12140E-22
4.41190E-02 4.92560E-22
4.50194E-02 4.73927E-22
4.59284E-02 4.56185E-22
4.68461E-02 4.39283E-22
4.87074E-02 4.07813E-22
5.06030E-02 3.79168E-22
5.25328E-02 3.53046E-22
5.44967E-02 3.29182E-22
5.64946E-02 3.07343E-22
5.85262E-02 2.87323E-22
6.05914E-02 2.68941E-22
6.26901E-02 2.52037E-22
6.48222E-02 2.36469E-22
6.69873E-02 2.22110E-22
6.91854E-02 2.08848E-22
7.14163E-02 1.96581E-22
7.36799E-02 1.85221E-22
7.59760E-02 1.74688E-22
7.83043E-02 1.64908E-22
8.06647E-02 1.55818E-22
8.30571E-02 1.47358E-22
8.54812E-02 1.39477E-22
8.79369E-02 1.32127E-22
9.04240E-02 1.25264E-22
9.29422E-02 1.18850E-22
9.54915E-02 1.12850E-22
9.80716E-02 1.07231E-22
1.00682E-01 1.01964E-22
1.03323E-01 9.70232E-23
1.05995E-01 9.23837E-23
1.08696E-01 8.80235E-23
1.11427E-01 8.39222E-23
1.14188E-01 8.00614E-23
1.16978E-01 7.64239E-23
1.19797E-01 7.29942E-23
1.22645E-01 6.97581E-23
1.25522E-01 6.67024E-23
1.28428E-01 6.38149E-23
1.31361E-01 6.10845E-23
1.34323E-01 5.85008E-23
1.37313E-01 5.60543E-23
1.40330E-01 5.37361E-23
1.43375E-01 5.15382E-23
1.46447E-01 4.94531E-23
1.49545E-01 4.74736E-23
1.52671E-01 4.55935E-23
1.55823E-01 4.38066E-23
1.59001E-01 4.21074E-23
1.62205E-01 4.04906E-23
1.65435E-01 3.89515E-23
1.68690E-01 3.74854E-23
1.71970E-01 3.60883E-23
1.75276E-01 3.47561E-23
1.78606E-01 3.34853E-23
1.81961E-01 3.22724E-23
1.85340E-01 3.11142E-23
1.88743E-01 3.00078E-23
1.92169E-01 2.89504E-23
1.95619E-01 2.79393E-23
1.99092E-01 2.69720E-23
2.02589E-01 2.60463E-23
2.06107E-01 2.51599E-23
2.09649E-01 2.43110E-23
2.13212E-01 2.34975E-23
2.16797E-01 2.27178E-23
2.20404E-01 2.19700E-23
2.24032E-01 2.12526E-23
2.27680E-01 2.05642E-23
2.31350E-01 1.99032E-23
2.35040E-01 1.92684E-23
2.38751E-01 1.86584E-23
2.42481E-01 1.80723E-23
2.46231E-01 1.75087E-23
2.50000E-01 1.69667E-23
2.53788E-01 1.64453E-23
2.57595E-01 1.59435E-23
2.61421E-01 1.54604E-23
2.65264E-01 1.49952E-23
2.69126E-01 1.45471E-23
2.73005E-01 1.41153E-23
2.76901E-01 1.36991E-23
2.80814E-01 1.32978E-23
2.84744E-01 1.29108E-23
2.88691E-01 1.25375E-23
2.92653E-01 1.21772E-23
2.96632E-01 1.18295E-23
3.00625E-01 1.14938E-23
3.04634E-01 1.11695E-23
3.08658E-01 1.08563E-23
3.12697E-01 1.05536E-23
3.16749E-01 1.02611E-23
3.20816E-01 9.97837E-24
3.24896E-01 9.70495E-24
3.28990E-01 9.44049E-24
3.33097E-01 9.18464E-24
3.37216E-01 8.93706E-24
3.41348E-01 8.69743E-24
3.45492E-01 8.46544E-24
3.49647E-01 8.24080E-24
3.53814E-01 8.02323E-24
3.57992E-01 7.81247E-24
3.62181E-01 7.60825E-24
3.66381E-01 7.41034E-24
3.70590E-01 7.21849E-24
3.74810E-01 7.03248E-24
3.79039E-01 6.85209E-24
3.83277E-01 6.67713E-24
3.87524E-01 6.50739E-24
3.91780E-01 6.34269E-24
3.96044E-01 6.18285E-24
4.00316E-01 6.02770E-24
4.04596E-01 5.87708E-24
4.08882E-01 5.73082E-24
4.13176E-01 5.58877E-24
4.17476E-01 5.45079E-24
4.21783E-01 5.31673E-24
4.26095E-01 5.18646E-24
4.30413E-01 5.05985E-24
4.34737E-01 4.93679E-24
4.39065E-01 4.81714E-24
4.43398E-01 4.70081E-24
4.47736E-01 4.58768E-24
4.52077E-01 4.47765E-24
4.56422E-01 4.37060E-24
4.60770E-01 4.26645E-24
4.65122E-01 4.16509E-24
4.69476E-01 4.06644E-24
4.73832E-01 3.97042E-24
4.78190E-01 3.87694E-24
4.82550E-01 3.78592E-24
4.86912E-01 3.69729E-24
4.91274E-01 3.61097E-24
4.95637E-01 3.52689E-24
5.00000E-01 3.44498E-24
5.04363E-01 3.36516E-24
5.08726E-01 3.28738E-24
5.13088E-01 3.21157E-24
5.17450E-01 3.13767E-24
5.21810E-01 3.06565E-24
5.26168E-01 2.99543E-24
5.30524E-01 2.92696E-24
5.34878E-01 2.86019E-24
5.39230E-01 2.79506E-24
5.43578E-01 2.73153E-24
5.47923E-01 2.66955E-24
5.52264E-01 2.60908E-24
5.56602E-01 2.55008E-24
5.60935E-01 2.49250E-24
5.65263E-01 2.43630E-24
5.69587E-01 2.38145E-24
5.73905E-01 2.32791E-24
5.78217E-01 2.27563E-24
5.82524E-01 2.22459E-24
5.86824E-01 2.17475E-24
5.91118E-01 2.12607E-24
5.95404E-01 2.07853E-24
5.99684E-01 2.03209E-24
6.03956E-01 1.98672E-24
6.08220E-01 1.94240E-24
6.12476E-01 1.89910E-24
6.16723E-01 1.85678E-24
6.20961E-01 1.81543E-24
6.25190E-01 1.77502E-24
6.29410E-01 1.73551E-24
6.33619E-01 1.69690E-24
6.37819E-01 1.65915E-24
6.42008E-01 1.62225E-24
6.46186E-01 1.58616E-24
6.50353E-01 1.55088E-24
6.54508E-01 1.51637E-24
6.58652E-01 1.48263E-24
6.62784E-01 1.44963E-24
6.66903E-01 1.41734E-24
6.71010E-01 1.38577E-24
6.75104E-01 1.35487E-24
6.79184E-01 1.32465E-24
6.83251E-01 1.29508E-24
6.87303E-01 1.26615E-24
6.91342E-01 1.23783E-24
6.95366E-01 1.21012E-24
6.99375E-01 1.18301E-24
7.03368E-01 1.15647E-24
7.07347E-01 1.13049E-24
7.11309E-01 1.10506E-24
7.15256E-01 1.08017E-24
7.19186E-01 1.05580E-24
7.23099E-01 1.03194E-24
7.26995E-01 1.00859E-24
7.30874E-01 9.85716E-25
7.34736E-01 9.63321E-25
7.38579E-01 9.41392E-25
7.42405E-01 9.19917E-25
7.46212E-01 8.98887E-25
7.50000E-01 8.78290E-25
7.53769E-01 8.58118E-25
7.57519E-01 8.38360E-25
7.61249E-01 8.19008E-25
7.64960E-01 8.00051E-25
7.68650E-01 7.81482E-25
7.72320E-01 7.63291E-25
7.75968E-01 7.45471E-25
7.79596E-01 7.28013E-25
7.83203E-01 7.10909E-25
7.86788E-01 6.94152E-25
7.90351E-01 6.77735E-25
7.93893E-01 6.61649E-25
7.97411E-01 6.45888E-25
8.00908E-01 6.30446E-25
8.04381E-01 6.15314E-25
8.07831E-01 6.00487E-25
8.11257E-01 5.85959E-25
8.14660E-01 5.71723E-25
8.18039E-01 5.57772E-25
8.21394E-01 5.44102E-25
8.24724E-01 5.30706E-25
8.28030E-01 5.17579E-25
8.31310E-01 5.04715E-25
8.34565E-01 4.92110E-25
8.37795E-01 4.79757E-25
8.40999E-01 4.67653E-25
8.44177E-01 4.55791E-25
8.47329E-01 4.44168E-25
8.50455E-01 4.32778E-25
8.53553E-01 4.21618E-25
8.56625E-01 4.10682E-25
8.59670E-01 3.99966E-25
8.62687E-01 3.89467E-25
8.65677E-01 3.79179E-25
8.68639E-01 3.69100E-25
8.71572E-01 3.59225E-25
8.74478E-01 3.49550E-25
8.77355E-01 3.40071E-25
8.80203E-01 3.30786E-25
8.83022E-01 3.21691E-25
8.85812E-01 3.12781E-25
8.88573E-01 3.04055E-25
8.91304E-01 2.95508E-25
8.94005E-01 2.87137E-25
8.96677E-01 2.78940E-25
8.99318E-01 2.70913E-25
9.01928E-01 2.63054E-25
9.04508E-01 2.55359E-25
9.07058E-01 2.47825E-25
9.09576E-01 2.40451E-25
9.12063E-01 2.33233E-25
9.14519E-01 2.26169E-25
9.16943E-01 2.19256E-25
9.19335E-01 2.12492E-25
9.21696E-01 2.05875E-25
9.24024E-01 1.99401E-25
9.26320E-01 1.93070E-25
9.28584E-01 1.86878E-25
9.30815E-01 1.80823E-25
9.33013E-01 1.74904E-25
9.35178E-01 1.69119E-25
9.37310E-01 1.63465E-25
9.39409E-01 1.57940E-25
9.41474E-01 1.52543E-25
9.43505E-01 1.47271E-25
9.45503E-01 1.42124E-25
9.47467E-01 1.37098E-25
9.49397E-01 1.32193E-25
9.51293E-01 1.27408E-25
9.53154E-01 1.22739E-25
9.54981E-01 1.18186E-25
9.56773E-01 1.13747E-25
9.58530E-01 1.09421E-25
9.60252E-01 1.05207E-25
9.61940E-01 1.01102E-25
9.63592E-01 9.71062E-26
9.65209E-01 9.32175E-26
9.66790E-01 8.94348E-26
9.68336E-01 8.57569E-26
9.69846E-01 8.21826E-26
9.71321E-01 7.87107E-26
9.72759E-01 7.53402E-26
9.74162E-01 7.20700E-26
9.75528E-01 6.88989E-26
9.76858E-01 6.58261E-26
9.78152E-01 6.28504E-26
9.79410E-01 5.99710E-26
9.80631E-01 5.71870E-26
9.81815E-01 5.44974E-26
9.82963E-01 5.19014E-26
9.84074E-01 4.93982E-26
9.85148E-01 4.69871E-26
9.86185E-01 4.46671E-26
9.87185E-01 4.24377E-26
9.88148E-01 4.02981E-26
9.89074E-01 3.82476E-26
9.89962E-01 3.62857E-26
9.90814E-01 3.44116E-26
9.91627E-01 3.26249E-26
9.92404E-01 3.09249E-26
9.93143E-01 2.93111E-26
9.93844E-01 2.77830E-26
9.94508E-01 2.63403E-26
9.95134E-01 2.49823E-26
9.95722E-01 2.37087E-26
9.96273E-01 2.25190E-26
9.96786E-01 2.14130E-26
9.97261E-01 2.03903E-26
9.97698E-01 1.94506E-26
9.98097E-01 1.85935E-26
9.98459E-01 1.78189E-26
9.98782E-01 1.71264E-26
9.99067E-01 1.65159E-26
9.99315E-01 1.59872E-26
9.99524E-01 1.55401E-26
9.99695E-01 1.51745E-26
9.99829E-01 1.48902E-26
9.99924E-01 1.46872E-26
9.99981E-01 1.45655E-26
1.00000E+00 1.45249E-26
