 #
 # Subroutine ELSEPA. Elastic scattering of electrons and positrons
 #                    by neutral atoms and positive ions
 #
 # Projectile: electron
 # Kinetic energy = 2.50000E+06 eV = 9.18733E+04 a.u.
 #
 # WARNING: High-energy factorization with free-atom DF screening.
 #          Absorption, polarization and exchange corrections are
 #          switched off.
 #          Phase shifts are calculated for the bare nucleus.
 #          Scattering amplitudes are not evaluated.
 #
 # Element: Cs,  Z =  55,  atomic weight = 1.32905E+02 g/mol
 #
 # Nuclear model: Fermi distribution
 #                Average radius = 5.46049E-13 cm
 #                Skin thickness = 5.46000E-14 cm
 #
 # Number of electrons = 55
 #
 # Total elastic cross section = 6.82787E-18 cm**2 = 2.43828E-01 a0**2
 # 1st transport cross section = 5.11544E-22 cm**2 = 1.82676E-05 a0**2
 # 2nd transport cross section = 1.40360E-21 cm**2 = 5.01233E-05 a0**2
 #
 #
 # Differential cross section:                       MU=(1-COS(THETA))/2
 #
 #  THETA        MU          DCS          DCS        Sherman      error
 #  (deg)                 (cm**2/sr)   (a0**2/sr)    function
 #----------------------------------------------------------------------
0.00000E+00 9.17987E-13
7.61557E-13 9.17981E-13
1.18994E-12 9.17978E-13
1.71346E-12 9.17974E-13
2.33225E-12 9.17969E-13
3.04617E-12 9.17964E-13
3.85530E-12 9.17958E-13
4.75964E-12 9.17951E-13
5.75917E-12 9.17943E-13
6.85391E-12 9.17935E-13
8.04379E-12 9.17926E-13
9.32893E-12 9.17916E-13
1.07092E-11 9.17905E-13
1.21847E-11 9.17894E-13
1.37554E-11 9.17882E-13
1.54213E-11 9.17869E-13
1.71823E-11 9.17856E-13
1.90386E-11 9.17841E-13
2.09900E-11 9.17827E-13
2.30367E-11 9.17811E-13
2.51785E-11 9.17794E-13
2.74156E-11 9.17777E-13
2.97478E-11 9.17759E-13
3.21752E-11 9.17741E-13
3.46979E-11 9.17722E-13
3.73157E-11 9.17701E-13
4.00286E-11 9.17681E-13
4.28368E-11 9.17659E-13
4.57402E-11 9.17637E-13
4.87388E-11 9.17614E-13
5.18325E-11 9.17590E-13
5.50215E-11 9.17566E-13
5.83057E-11 9.17541E-13
6.16850E-11 9.17515E-13
6.51595E-11 9.17488E-13
6.87293E-11 9.17461E-13
7.23943E-11 9.17433E-13
7.61544E-11 9.17404E-13
1.18991E-10 9.17075E-13
1.71347E-10 9.16674E-13
2.33223E-10 9.16200E-13
3.04617E-10 9.15654E-13
3.85531E-10 9.15035E-13
4.75965E-10 9.14345E-13
5.75917E-10 9.13583E-13
6.85389E-10 9.12749E-13
8.04380E-10 9.11844E-13
9.32891E-10 9.10869E-13
1.07092E-09 9.09824E-13
1.21847E-09 9.08709E-13
1.37554E-09 9.07524E-13
1.54213E-09 9.06271E-13
1.71823E-09 9.04949E-13
1.90386E-09 9.03560E-13
2.09900E-09 9.02104E-13
2.30367E-09 9.00580E-13
2.51785E-09 8.98992E-13
2.74156E-09 8.97337E-13
2.97478E-09 8.95619E-13
3.21752E-09 8.93835E-13
3.46978E-09 8.91990E-13
3.73156E-09 8.90081E-13
4.00286E-09 8.88111E-13
4.28368E-09 8.86080E-13
4.57402E-09 8.83989E-13
4.87388E-09 8.81839E-13
5.18326E-09 8.79630E-13
5.50215E-09 8.77364E-13
5.83057E-09 8.75040E-13
6.16850E-09 8.72663E-13
6.51596E-09 8.70228E-13
6.87293E-09 8.67742E-13
7.23942E-09 8.65200E-13
7.61544E-09 8.62609E-13
1.18991E-08 8.34044E-13
1.71347E-08 8.01415E-13
2.33223E-08 7.65786E-13
3.04617E-08 7.28772E-13
3.85531E-08 6.89993E-13
4.75965E-08 6.51758E-13
5.75917E-08 6.13194E-13
6.85389E-08 5.76955E-13
8.04380E-08 5.41082E-13
9.32891E-08 5.08317E-13
1.07092E-07 4.76602E-13
1.21847E-07 4.47703E-13
1.37554E-07 4.20416E-13
1.54213E-07 3.95444E-13
1.71823E-07 3.72305E-13
1.90386E-07 3.50958E-13
2.09900E-07 3.31427E-13
2.30367E-07 3.13238E-13
2.51785E-07 2.96703E-13
2.74156E-07 2.81171E-13
2.97478E-07 2.67059E-13
3.21752E-07 2.53764E-13
3.46978E-07 2.41541E-13
3.73156E-07 2.30050E-13
4.00286E-07 2.19359E-13
4.28368E-07 2.09311E-13
4.57402E-07 1.99887E-13
4.87388E-07 1.91004E-13
5.18325E-07 1.82636E-13
5.50215E-07 1.74709E-13
5.83057E-07 1.67231E-13
6.16850E-07 1.60102E-13
6.51596E-07 1.53382E-13
6.87293E-07 1.46934E-13
7.23942E-07 1.40849E-13
7.61543E-07 1.35012E-13
1.18991E-06 8.96681E-14
1.71347E-06 6.08663E-14
2.33223E-06 4.24567E-14
3.04617E-06 3.02685E-14
3.85531E-06 2.24661E-14
4.75964E-06 1.69776E-14
5.75916E-06 1.31981E-14
6.85388E-06 1.03237E-14
8.04378E-06 8.26313E-15
9.32888E-06 6.62060E-15
1.07092E-05 5.39375E-15
1.21846E-05 4.40825E-15
1.37553E-05 3.64347E-15
1.54212E-05 3.02816E-15
1.71822E-05 2.53752E-15
1.90385E-05 2.14067E-15
2.09899E-05 1.81928E-15
2.30365E-05 1.55759E-15
2.51783E-05 1.34084E-15
2.74153E-05 1.16246E-15
2.97475E-05 1.01257E-15
3.21749E-05 8.87743E-16
3.46974E-05 7.81781E-16
3.73152E-05 6.92235E-16
4.00281E-05 6.15444E-16
4.28362E-05 5.49543E-16
4.57395E-05 4.92458E-16
4.87380E-05 4.42747E-16
5.18317E-05 3.99347E-16
5.50205E-05 3.61069E-16
5.83045E-05 3.27478E-16
6.16838E-05 2.97571E-16
6.51582E-05 2.71229E-16
6.87277E-05 2.47413E-16
7.23925E-05 2.26302E-16
7.61524E-05 2.07261E-16
9.21439E-05 1.48439E-16
1.09658E-04 1.08817E-16
1.28695E-04 8.13576E-17
1.49255E-04 6.19174E-17
1.71338E-04 4.79223E-17
1.94942E-04 3.76670E-17
2.20070E-04 3.00206E-17
2.46720E-04 2.42259E-17
2.74892E-04 1.97636E-17
3.04586E-04 1.62995E-17
3.35803E-04 1.35650E-17
3.68542E-04 1.13887E-17
4.02802E-04 9.62968E-18
4.38585E-04 8.20388E-18
4.75889E-04 7.02929E-18
5.14715E-04 6.06179E-18
5.55063E-04 5.25278E-18
5.96931E-04 4.57631E-18
6.40321E-04 4.00440E-18
6.85233E-04 3.51972E-18
7.31665E-04 3.10594E-18
7.79618E-04 2.75117E-18
8.29092E-04 2.44576E-18
8.80086E-04 2.18128E-18
9.32601E-04 1.95191E-18
9.86636E-04 1.75149E-18
1.04219E-03 1.57649E-18
1.09927E-03 1.42244E-18
1.15786E-03 1.28700E-18
1.21797E-03 1.16712E-18
1.27961E-03 1.06099E-18
1.34276E-03 9.66589E-19
1.40743E-03 8.82494E-19
1.47362E-03 8.07349E-19
1.54133E-03 7.40031E-19
1.61056E-03 6.79617E-19
1.68131E-03 6.25224E-19
1.75357E-03 5.76214E-19
1.82735E-03 5.31883E-19
1.90265E-03 4.91782E-19
1.97947E-03 4.55368E-19
2.05780E-03 4.22299E-19
2.13765E-03 3.92171E-19
2.21902E-03 3.64704E-19
2.30190E-03 3.39604E-19
2.38630E-03 3.16639E-19
2.47222E-03 2.95592E-19
2.55965E-03 2.76270E-19
2.64859E-03 2.58515E-19
2.73905E-03 2.42165E-19
2.83103E-03 2.27101E-19
2.92452E-03 2.13190E-19
3.01952E-03 2.00341E-19
3.11604E-03 1.88446E-19
3.21407E-03 1.77430E-19
3.31362E-03 1.67211E-19
3.41468E-03 1.57723E-19
3.51725E-03 1.48902E-19
3.62133E-03 1.40694E-19
3.72692E-03 1.33049E-19
3.83403E-03 1.25918E-19
3.94265E-03 1.19264E-19
4.05278E-03 1.13045E-19
4.16442E-03 1.07232E-19
4.27757E-03 1.01788E-19
4.39223E-03 9.66899E-20
4.50840E-03 9.19082E-20
4.62608E-03 8.74218E-20
4.74527E-03 8.32075E-20
4.86597E-03 7.92467E-20
4.98817E-03 7.55206E-20
5.11188E-03 7.20128E-20
5.23711E-03 6.87083E-20
5.36383E-03 6.55925E-20
5.49207E-03 6.26535E-20
5.62181E-03 5.98781E-20
5.75306E-03 5.72567E-20
5.88581E-03 5.47779E-20
6.02007E-03 5.24336E-20
6.15583E-03 5.02141E-20
6.29310E-03 4.81122E-20
6.43187E-03 4.61201E-20
6.57214E-03 4.42311E-20
6.71392E-03 4.24387E-20
6.85720E-03 4.07371E-20
7.00198E-03 3.91209E-20
7.14827E-03 3.75846E-20
7.29605E-03 3.61241E-20
7.44534E-03 3.47342E-20
7.59612E-03 3.34116E-20
7.97965E-03 3.03723E-20
8.37255E-03 2.76745E-20
8.77480E-03 2.52726E-20
9.18641E-03 2.31284E-20
9.60736E-03 2.12092E-20
1.00376E-02 1.94872E-20
1.04773E-02 1.79383E-20
1.09262E-02 1.65420E-20
1.13844E-02 1.52805E-20
1.18520E-02 1.41384E-20
1.23288E-02 1.31024E-20
1.28150E-02 1.21606E-20
1.33104E-02 1.13030E-20
1.38150E-02 1.05207E-20
1.43290E-02 9.80572E-21
1.48521E-02 9.15128E-21
1.53845E-02 8.55128E-21
1.59262E-02 8.00031E-21
1.64770E-02 7.49363E-21
1.70371E-02 7.02701E-21
1.76063E-02 6.59665E-21
1.81848E-02 6.19923E-21
1.87724E-02 5.83174E-21
1.93692E-02 5.49148E-21
1.99751E-02 5.17607E-21
2.05901E-02 4.88334E-21
2.12143E-02 4.61133E-21
2.18476E-02 4.35830E-21
2.24900E-02 4.12268E-21
2.31415E-02 3.90303E-21
2.38021E-02 3.69805E-21
2.44717E-02 3.50659E-21
2.51504E-02 3.32757E-21
2.58382E-02 3.16003E-21
2.65349E-02 3.00308E-21
2.72407E-02 2.85594E-21
2.79555E-02 2.71785E-21
2.86793E-02 2.58818E-21
2.94120E-02 2.46627E-21
3.01537E-02 2.35161E-21
3.09043E-02 2.24364E-21
3.16639E-02 2.14193E-21
3.24324E-02 2.04602E-21
3.32098E-02 1.95553E-21
3.39961E-02 1.87008E-21
3.47912E-02 1.78934E-21
3.55952E-02 1.71299E-21
3.64081E-02 1.64076E-21
3.72297E-02 1.57237E-21
3.80602E-02 1.50758E-21
3.88995E-02 1.44617E-21
3.97476E-02 1.38791E-21
4.06044E-02 1.33262E-21
4.14700E-02 1.28010E-21
4.23443E-02 1.23021E-21
4.32273E-02 1.18278E-21
4.41190E-02 1.13766E-21
4.50194E-02 1.09471E-21
4.59284E-02 1.05382E-21
4.68461E-02 1.01486E-21
4.87074E-02 9.42304E-22
5.06030E-02 8.76254E-22
5.25328E-02 8.16013E-22
5.44967E-02 7.60969E-22
5.64946E-02 7.10589E-22
5.85262E-02 6.64398E-22
6.05914E-02 6.21981E-22
6.26901E-02 5.82970E-22
6.48222E-02 5.47036E-22
6.69873E-02 5.13888E-22
6.91854E-02 4.83269E-22
7.14163E-02 4.54947E-22
7.36799E-02 4.28714E-22
7.59760E-02 4.04387E-22
7.83043E-02 3.81798E-22
8.06647E-02 3.60800E-22
8.30571E-02 3.41257E-22
8.54812E-02 3.23047E-22
8.79369E-02 3.06063E-22
9.04240E-02 2.90204E-22
9.29422E-02 2.75380E-22
9.54915E-02 2.61512E-22
9.80716E-02 2.48523E-22
1.00682E-01 2.36348E-22
1.03323E-01 2.24925E-22
1.05995E-01 2.14197E-22
1.08696E-01 2.04114E-22
1.11427E-01 1.94630E-22
1.14188E-01 1.85700E-22
1.16978E-01 1.77287E-22
1.19797E-01 1.69354E-22
1.22645E-01 1.61867E-22
1.25522E-01 1.54797E-22
1.28428E-01 1.48116E-22
1.31361E-01 1.41798E-22
1.34323E-01 1.35819E-22
1.37313E-01 1.30157E-22
1.40330E-01 1.24791E-22
1.43375E-01 1.19703E-22
1.46447E-01 1.14876E-22
1.49545E-01 1.10294E-22
1.52671E-01 1.05941E-22
1.55823E-01 1.01803E-22
1.59001E-01 9.78681E-23
1.62205E-01 9.41237E-23
1.65435E-01 9.05588E-23
1.68690E-01 8.71629E-23
1.71970E-01 8.39263E-23
1.75276E-01 8.08401E-23
1.78606E-01 7.78957E-23
1.81961E-01 7.50853E-23
1.85340E-01 7.24014E-23
1.88743E-01 6.98373E-23
1.92169E-01 6.73864E-23
1.95619E-01 6.50426E-23
1.99092E-01 6.28004E-23
2.02589E-01 6.06543E-23
2.06107E-01 5.85994E-23
2.09649E-01 5.66309E-23
2.13212E-01 5.47445E-23
2.16797E-01 5.29361E-23
2.20404E-01 5.12017E-23
2.24032E-01 4.95376E-23
2.27680E-01 4.79404E-23
2.31350E-01 4.64069E-23
2.35040E-01 4.49340E-23
2.38751E-01 4.35188E-23
2.42481E-01 4.21585E-23
2.46231E-01 4.08505E-23
2.50000E-01 3.95925E-23
2.53788E-01 3.83821E-23
2.57595E-01 3.72172E-23
2.61421E-01 3.60955E-23
2.65264E-01 3.50153E-23
2.69126E-01 3.39747E-23
2.73005E-01 3.29718E-23
2.76901E-01 3.20051E-23
2.80814E-01 3.10729E-23
2.84744E-01 3.01739E-23
2.88691E-01 2.93064E-23
2.92653E-01 2.84693E-23
2.96632E-01 2.76613E-23
3.00625E-01 2.68810E-23
3.04634E-01 2.61274E-23
3.08658E-01 2.53993E-23
3.12697E-01 2.46957E-23
3.16749E-01 2.40156E-23
3.20816E-01 2.33581E-23
3.24896E-01 2.27222E-23
3.28990E-01 2.21071E-23
3.33097E-01 2.15120E-23
3.37216E-01 2.09360E-23
3.41348E-01 2.03785E-23
3.45492E-01 1.98387E-23
3.49647E-01 1.93160E-23
3.53814E-01 1.88097E-23
3.57992E-01 1.83191E-23
3.62181E-01 1.78437E-23
3.66381E-01 1.73830E-23
3.70590E-01 1.69363E-23
3.74810E-01 1.65031E-23
3.79039E-01 1.60830E-23
3.83277E-01 1.56755E-23
3.87524E-01 1.52801E-23
3.91780E-01 1.48965E-23
3.96044E-01 1.45240E-23
4.00316E-01 1.41625E-23
4.04596E-01 1.38115E-23
4.08882E-01 1.34706E-23
4.13176E-01 1.31395E-23
4.17476E-01 1.28178E-23
4.21783E-01 1.25052E-23
4.26095E-01 1.22015E-23
4.30413E-01 1.19062E-23
4.34737E-01 1.16192E-23
4.39065E-01 1.13401E-23
4.43398E-01 1.10688E-23
4.47736E-01 1.08048E-23
4.52077E-01 1.05480E-23
4.56422E-01 1.02982E-23
4.60770E-01 1.00551E-23
4.65122E-01 9.81847E-24
4.69476E-01 9.58818E-24
4.73832E-01 9.36398E-24
4.78190E-01 9.14569E-24
4.82550E-01 8.93312E-24
4.86912E-01 8.72610E-24
4.91274E-01 8.52444E-24
4.95637E-01 8.32799E-24
5.00000E-01 8.13658E-24
5.04363E-01 7.95006E-24
5.08726E-01 7.76828E-24
5.13088E-01 7.59109E-24
5.17450E-01 7.41836E-24
5.21810E-01 7.24995E-24
5.26168E-01 7.08574E-24
5.30524E-01 6.92560E-24
5.34878E-01 6.76940E-24
5.39230E-01 6.61704E-24
5.43578E-01 6.46841E-24
5.47923E-01 6.32339E-24
5.52264E-01 6.18188E-24
5.56602E-01 6.04379E-24
5.60935E-01 5.90901E-24
5.65263E-01 5.77745E-24
5.69587E-01 5.64902E-24
5.73905E-01 5.52363E-24
5.78217E-01 5.40120E-24
5.82524E-01 5.28164E-24
5.86824E-01 5.16488E-24
5.91118E-01 5.05083E-24
5.95404E-01 4.93943E-24
5.99684E-01 4.83059E-24
6.03956E-01 4.72426E-24
6.08220E-01 4.62037E-24
6.12476E-01 4.51884E-24
6.16723E-01 4.41961E-24
6.20961E-01 4.32264E-24
6.25190E-01 4.22784E-24
6.29410E-01 4.13518E-24
6.33619E-01 4.04459E-24
6.37819E-01 3.95602E-24
6.42008E-01 3.86942E-24
6.46186E-01 3.78473E-24
6.50353E-01 3.70191E-24
6.54508E-01 3.62091E-24
6.58652E-01 3.54168E-24
6.62784E-01 3.46418E-24
6.66903E-01 3.38836E-24
6.71010E-01 3.31419E-24
6.75104E-01 3.24162E-24
6.79184E-01 3.17061E-24
6.83251E-01 3.10112E-24
6.87303E-01 3.03312E-24
6.91342E-01 2.96657E-24
6.95366E-01 2.90144E-24
6.99375E-01 2.83768E-24
7.03368E-01 2.77527E-24
7.07347E-01 2.71418E-24
7.11309E-01 2.65437E-24
7.15256E-01 2.59582E-24
7.19186E-01 2.53849E-24
7.23099E-01 2.48235E-24
7.26995E-01 2.42738E-24
7.30874E-01 2.37356E-24
7.34736E-01 2.32084E-24
7.38579E-01 2.26922E-24
7.42405E-01 2.21866E-24
7.46212E-01 2.16913E-24
7.50000E-01 2.12063E-24
7.53769E-01 2.07311E-24
7.57519E-01 2.02657E-24
7.61249E-01 1.98097E-24
7.64960E-01 1.93630E-24
7.68650E-01 1.89254E-24
7.72320E-01 1.84966E-24
7.75968E-01 1.80766E-24
7.79596E-01 1.76650E-24
7.83203E-01 1.72617E-24
7.86788E-01 1.68665E-24
7.90351E-01 1.64793E-24
7.93893E-01 1.60999E-24
7.97411E-01 1.57280E-24
8.00908E-01 1.53637E-24
8.04381E-01 1.50066E-24
8.07831E-01 1.46567E-24
8.11257E-01 1.43138E-24
8.14660E-01 1.39777E-24
8.18039E-01 1.36483E-24
8.21394E-01 1.33256E-24
8.24724E-01 1.30092E-24
8.28030E-01 1.26992E-24
8.31310E-01 1.23953E-24
8.34565E-01 1.20975E-24
8.37795E-01 1.18057E-24
8.40999E-01 1.15197E-24
8.44177E-01 1.12394E-24
8.47329E-01 1.09646E-24
8.50455E-01 1.06954E-24
8.53553E-01 1.04316E-24
8.56625E-01 1.01730E-24
8.59670E-01 9.91962E-25
8.62687E-01 9.67131E-25
8.65677E-01 9.42799E-25
8.68639E-01 9.18956E-25
8.71572E-01 8.95594E-25
8.74478E-01 8.72703E-25
8.77355E-01 8.50274E-25
8.80203E-01 8.28300E-25
8.83022E-01 8.06773E-25
8.85812E-01 7.85684E-25
8.88573E-01 7.65025E-25
8.91304E-01 7.44789E-25
8.94005E-01 7.24969E-25
8.96677E-01 7.05557E-25
8.99318E-01 6.86546E-25
9.01928E-01 6.67930E-25
9.04508E-01 6.49702E-25
9.07058E-01 6.31855E-25
9.09576E-01 6.14383E-25
9.12063E-01 5.97279E-25
9.14519E-01 5.80539E-25
9.16943E-01 5.64155E-25
9.19335E-01 5.48123E-25
9.21696E-01 5.32436E-25
9.24024E-01 5.17090E-25
9.26320E-01 5.02078E-25
9.28584E-01 4.87396E-25
9.30815E-01 4.73039E-25
9.33013E-01 4.59001E-25
9.35178E-01 4.45279E-25
9.37310E-01 4.31867E-25
9.39409E-01 4.18761E-25
9.41474E-01 4.05956E-25
9.43505E-01 3.93448E-25
9.45503E-01 3.81234E-25
9.47467E-01 3.69309E-25
9.49397E-01 3.57668E-25
9.51293E-01 3.46309E-25
9.53154E-01 3.35228E-25
9.54981E-01 3.24420E-25
9.56773E-01 3.13883E-25
9.58530E-01 3.03612E-25
9.60252E-01 2.93605E-25
9.61940E-01 2.83859E-25
9.63592E-01 2.74369E-25
9.65209E-01 2.65134E-25
9.66790E-01 2.56150E-25
9.68336E-01 2.47414E-25
9.69846E-01 2.38924E-25
9.71321E-01 2.30677E-25
9.72759E-01 2.22670E-25
9.74162E-01 2.14900E-25
9.75528E-01 2.07366E-25
9.76858E-01 2.00065E-25
9.78152E-01 1.92994E-25
9.79410E-01 1.86151E-25
9.80631E-01 1.79535E-25
9.81815E-01 1.73143E-25
9.82963E-01 1.66973E-25
9.84074E-01 1.61024E-25
9.85148E-01 1.55293E-25
9.86185E-01 1.49778E-25
9.87185E-01 1.44478E-25
9.88148E-01 1.39392E-25
9.89074E-01 1.34517E-25
9.89962E-01 1.29853E-25
9.90814E-01 1.25397E-25
9.91627E-01 1.21149E-25
9.92404E-01 1.17107E-25
9.93143E-01 1.13270E-25
9.93844E-01 1.09636E-25
9.94508E-01 1.06205E-25
9.95134E-01 1.02976E-25
9.95722E-01 9.99472E-26
9.96273E-01 9.71182E-26
9.96786E-01 9.44879E-26
9.97261E-01 9.20557E-26
9.97698E-01 8.98207E-26
9.98097E-01 8.77824E-26
9.98459E-01 8.59400E-26
9.98782E-01 8.42930E-26
9.99067E-01 8.28410E-26
9.99315E-01 8.15835E-26
9.99524E-01 8.05200E-26
9.99695E-01 7.96504E-26
9.99829E-01 7.89743E-26
9.99924E-01 7.84915E-26
9.99981E-01 7.82019E-26
1.00000E+00 7.81053E-26
