 #
 # Subroutine ELSEPA. Elastic scattering of electrons and positrons
 #                    by neutral atoms and positive ions
 #
 # Projectile: electron
 # Kinetic energy = 2.00000E+06 eV = 7.34987E+04 a.u.
 #
 # WARNING: High-energy factorization with free-atom DF screening.
 #          Absorption, polarization and exchange corrections are
 #          switched off.
 #          Phase shifts are calculated for the bare nucleus.
 #          Scattering amplitudes are not evaluated.
 #
 # Element: Cs,  Z =  55,  atomic weight = 1.32905E+02 g/mol
 #
 # Nuclear model: Fermi distribution
 #                Average radius = 5.46049E-13 cm
 #                Skin thickness = 5.46000E-14 cm
 #
 # Number of electrons = 55
 #
 # Total elastic cross section = 6.92035E-18 cm**2 = 2.47130E-01 a0**2
 # 1st transport cross section = 7.29693E-22 cm**2 = 2.60578E-05 a0**2
 # 2nd transport cross section = 1.99411E-21 cm**2 = 7.12109E-05 a0**2
 #
 #
 # Differential cross section:                       MU=(1-COS(THETA))/2
 #
 #  THETA        MU          DCS          DCS        Sherman      error
 #  (deg)                 (cm**2/sr)   (a0**2/sr)    function
 #----------------------------------------------------------------------
0.00000E+00 6.38422E-13
7.61557E-13 6.38420E-13
1.18994E-12 6.38418E-13
1.71346E-12 6.38417E-13
2.33225E-12 6.38414E-13
3.04617E-12 6.38412E-13
3.85530E-12 6.38409E-13
4.75964E-12 6.38406E-13
5.75917E-12 6.38402E-13
6.85391E-12 6.38398E-13
8.04379E-12 6.38394E-13
9.32893E-12 6.38389E-13
1.07092E-11 6.38384E-13
1.21847E-11 6.38379E-13
1.37554E-11 6.38373E-13
1.54213E-11 6.38367E-13
1.71823E-11 6.38360E-13
1.90386E-11 6.38354E-13
2.09900E-11 6.38347E-13
2.30367E-11 6.38339E-13
2.51785E-11 6.38331E-13
2.74156E-11 6.38323E-13
2.97478E-11 6.38315E-13
3.21752E-11 6.38306E-13
3.46979E-11 6.38297E-13
3.73157E-11 6.38287E-13
4.00286E-11 6.38277E-13
4.28368E-11 6.38267E-13
4.57402E-11 6.38256E-13
4.87388E-11 6.38245E-13
5.18325E-11 6.38234E-13
5.50215E-11 6.38222E-13
5.83057E-11 6.38210E-13
6.16850E-11 6.38198E-13
6.51595E-11 6.38185E-13
6.87293E-11 6.38172E-13
7.23943E-11 6.38159E-13
7.61544E-11 6.38145E-13
1.18991E-10 6.37989E-13
1.71347E-10 6.37797E-13
2.33223E-10 6.37571E-13
3.04617E-10 6.37310E-13
3.85531E-10 6.37015E-13
4.75965E-10 6.36685E-13
5.75917E-10 6.36320E-13
6.85389E-10 6.35921E-13
8.04380E-10 6.35488E-13
9.32891E-10 6.35021E-13
1.07092E-09 6.34520E-13
1.21847E-09 6.33985E-13
1.37554E-09 6.33416E-13
1.54213E-09 6.32814E-13
1.71823E-09 6.32178E-13
1.90386E-09 6.31510E-13
2.09900E-09 6.30808E-13
2.30367E-09 6.30074E-13
2.51785E-09 6.29307E-13
2.74156E-09 6.28508E-13
2.97478E-09 6.27676E-13
3.21752E-09 6.26813E-13
3.46978E-09 6.25918E-13
3.73156E-09 6.24993E-13
4.00286E-09 6.24035E-13
4.28368E-09 6.23047E-13
4.57402E-09 6.22028E-13
4.87388E-09 6.20980E-13
5.18326E-09 6.19901E-13
5.50215E-09 6.18792E-13
5.83057E-09 6.17654E-13
6.16850E-09 6.16487E-13
6.51596E-09 6.15292E-13
6.87293E-09 6.14067E-13
7.23942E-09 6.12815E-13
7.61544E-09 6.11534E-13
1.18991E-08 5.97287E-13
1.71347E-08 5.80672E-13
2.33223E-08 5.62102E-13
3.04617E-08 5.41996E-13
3.85531E-08 5.20833E-13
4.75965E-08 4.99304E-13
5.75917E-08 4.76729E-13
6.85389E-08 4.54820E-13
8.04380E-08 4.32663E-13
9.32891E-08 4.11309E-13
1.07092E-07 3.90538E-13
1.21847E-07 3.70459E-13
1.37554E-07 3.51614E-13
1.54213E-07 3.33241E-13
1.71823E-07 3.16519E-13
1.90386E-07 3.00159E-13
2.09900E-07 2.85402E-13
2.30367E-07 2.71173E-13
2.51785E-07 2.58096E-13
2.74156E-07 2.45779E-13
2.97478E-07 2.34256E-13
3.21752E-07 2.23587E-13
3.46978E-07 2.13459E-13
3.73156E-07 2.04174E-13
4.00286E-07 1.95277E-13
4.28368E-07 1.87129E-13
4.57402E-07 1.79344E-13
4.87388E-07 1.72083E-13
5.18325E-07 1.65208E-13
5.50215E-07 1.58715E-13
5.83057E-07 1.52586E-13
6.16850E-07 1.46760E-13
6.51596E-07 1.41246E-13
6.87293E-07 1.35997E-13
7.23942E-07 1.30997E-13
7.61543E-07 1.26241E-13
1.18991E-06 8.84661E-14
1.71347E-06 6.30913E-14
2.33223E-06 4.56640E-14
3.04617E-06 3.36528E-14
3.85531E-06 2.52746E-14
4.75964E-06 1.92484E-14
5.75916E-06 1.51513E-14
6.85388E-06 1.19972E-14
8.04378E-06 9.69956E-15
9.32888E-06 7.90670E-15
1.07092E-05 6.51392E-15
1.21846E-05 5.42048E-15
1.37553E-05 4.52528E-15
1.54212E-05 3.82242E-15
1.71822E-05 3.22625E-15
1.90385E-05 2.75313E-15
2.09899E-05 2.35139E-15
2.30365E-05 2.02487E-15
2.51783E-05 1.74942E-15
2.74153E-05 1.51942E-15
2.97475E-05 1.32628E-15
3.21749E-05 1.16237E-15
3.46974E-05 1.02447E-15
3.73152E-05 9.06031E-16
4.00281E-05 8.05696E-16
4.28362E-05 7.18566E-16
4.57395E-05 6.43865E-16
4.87380E-05 5.78688E-16
5.18317E-05 5.22020E-16
5.50205E-05 4.72325E-16
5.83045E-05 4.28597E-16
6.16838E-05 3.90102E-16
6.51582E-05 3.55828E-16
6.87277E-05 3.25573E-16
7.23925E-05 2.98299E-16
7.61524E-05 2.74091E-16
9.21439E-05 1.98592E-16
1.09658E-04 1.47260E-16
1.28695E-04 1.11358E-16
1.49255E-04 8.56259E-17
1.71338E-04 6.67854E-17
1.94942E-04 5.27615E-17
2.20070E-04 4.21905E-17
2.46720E-04 3.41262E-17
2.74892E-04 2.78998E-17
3.04586E-04 2.30331E-17
3.35803E-04 1.91857E-17
3.68542E-04 1.61130E-17
4.02802E-04 1.36304E-17
4.38585E-04 1.16173E-17
4.75889E-04 9.96613E-18
5.14715E-04 8.59861E-18
5.55063E-04 7.46234E-18
5.96931E-04 6.50532E-18
6.40321E-04 5.70137E-18
6.85233E-04 5.01510E-18
7.31665E-04 4.43182E-18
7.79618E-04 3.92977E-18
8.29092E-04 3.49769E-18
8.80086E-04 3.12337E-18
9.32601E-04 2.79772E-18
9.86636E-04 2.51389E-18
1.04219E-03 2.26460E-18
1.09927E-03 2.04613E-18
1.15786E-03 1.85266E-18
1.21797E-03 1.68204E-18
1.27961E-03 1.53026E-18
1.34276E-03 1.39543E-18
1.40743E-03 1.27502E-18
1.47362E-03 1.16733E-18
1.54133E-03 1.07083E-18
1.61056E-03 9.83998E-19
1.68131E-03 9.05926E-19
1.75357E-03 8.35298E-19
1.82735E-03 7.71550E-19
1.90265E-03 7.13670E-19
1.97947E-03 6.61189E-19
2.05780E-03 6.13419E-19
2.13765E-03 5.69905E-19
2.21902E-03 5.30196E-19
2.30190E-03 4.93874E-19
2.38630E-03 4.60646E-19
2.47222E-03 4.30141E-19
2.55965E-03 4.02162E-19
2.64859E-03 3.76395E-19
2.73905E-03 3.52689E-19
2.83103E-03 3.30815E-19
2.92452E-03 3.10625E-19
3.01952E-03 2.91958E-19
3.11604E-03 2.74676E-19
3.21407E-03 2.58667E-19
3.31362E-03 2.43805E-19
3.41468E-03 2.30012E-19
3.51725E-03 2.17175E-19
3.62133E-03 2.05235E-19
3.72692E-03 1.94104E-19
3.83403E-03 1.83725E-19
3.94265E-03 1.74035E-19
4.05278E-03 1.64979E-19
4.16442E-03 1.56510E-19
4.27757E-03 1.48580E-19
4.39223E-03 1.41152E-19
4.50840E-03 1.34183E-19
4.62608E-03 1.27645E-19
4.74527E-03 1.21501E-19
4.86597E-03 1.15727E-19
4.98817E-03 1.10295E-19
5.11188E-03 1.05180E-19
5.23711E-03 1.00361E-19
5.36383E-03 9.58165E-20
5.49207E-03 9.15302E-20
5.62181E-03 8.74813E-20
5.75306E-03 8.36576E-20
5.88581E-03 8.00410E-20
6.02007E-03 7.66207E-20
6.15583E-03 7.33823E-20
6.29310E-03 7.03151E-20
6.43187E-03 6.74082E-20
6.57214E-03 6.46511E-20
6.71392E-03 6.20356E-20
6.85720E-03 5.95516E-20
7.00198E-03 5.71929E-20
7.14827E-03 5.49501E-20
7.29605E-03 5.28180E-20
7.44534E-03 5.07890E-20
7.59612E-03 4.88578E-20
7.97965E-03 4.44206E-20
8.37255E-03 4.04810E-20
8.77480E-03 3.69731E-20
9.18641E-03 3.38411E-20
9.60736E-03 3.10375E-20
1.00376E-02 2.85216E-20
1.04773E-02 2.62584E-20
1.09262E-02 2.42180E-20
1.13844E-02 2.23744E-20
1.18520E-02 2.07050E-20
1.23288E-02 1.91904E-20
1.28150E-02 1.78134E-20
1.33104E-02 1.65594E-20
1.38150E-02 1.54153E-20
1.43290E-02 1.43696E-20
1.48521E-02 1.34122E-20
1.53845E-02 1.25344E-20
1.59262E-02 1.17283E-20
1.64770E-02 1.09868E-20
1.70371E-02 1.03039E-20
1.76063E-02 9.67399E-21
1.81848E-02 9.09220E-21
1.87724E-02 8.55415E-21
1.93692E-02 8.05594E-21
1.99751E-02 7.59404E-21
2.05901E-02 7.16530E-21
2.12143E-02 6.76687E-21
2.18476E-02 6.39621E-21
2.24900E-02 6.05100E-21
2.31415E-02 5.72915E-21
2.38021E-02 5.42877E-21
2.44717E-02 5.14817E-21
2.51504E-02 4.88577E-21
2.58382E-02 4.64018E-21
2.65349E-02 4.41010E-21
2.72407E-02 4.19436E-21
2.79555E-02 3.99189E-21
2.86793E-02 3.80171E-21
2.94120E-02 3.62293E-21
3.01537E-02 3.45474E-21
3.09043E-02 3.29638E-21
3.16639E-02 3.14716E-21
3.24324E-02 3.00645E-21
3.32098E-02 2.87368E-21
3.39961E-02 2.74829E-21
3.47912E-02 2.62981E-21
3.55952E-02 2.51777E-21
3.64081E-02 2.41175E-21
3.72297E-02 2.31137E-21
3.80602E-02 2.21626E-21
3.88995E-02 2.12608E-21
3.97476E-02 2.04056E-21
4.06044E-02 1.95937E-21
4.14700E-02 1.88227E-21
4.23443E-02 1.80901E-21
4.32273E-02 1.73935E-21
4.41190E-02 1.67308E-21
4.50194E-02 1.61001E-21
4.59284E-02 1.54995E-21
4.68461E-02 1.49271E-21
4.87074E-02 1.38613E-21
5.06030E-02 1.28909E-21
5.25328E-02 1.20058E-21
5.44967E-02 1.11969E-21
5.64946E-02 1.04565E-21
5.85262E-02 9.77758E-22
6.05914E-02 9.15409E-22
6.26901E-02 8.58060E-22
6.48222E-02 8.05231E-22
6.69873E-02 7.56495E-22
6.91854E-02 7.11473E-22
7.14163E-02 6.69824E-22
7.36799E-02 6.31246E-22
7.59760E-02 5.95467E-22
7.83043E-02 5.62243E-22
8.06647E-02 5.31355E-22
8.30571E-02 5.02607E-22
8.54812E-02 4.75819E-22
8.79369E-02 4.50831E-22
9.04240E-02 4.27498E-22
9.29422E-02 4.05687E-22
9.54915E-02 3.85280E-22
9.80716E-02 3.66167E-22
1.00682E-01 3.48250E-22
1.03323E-01 3.31439E-22
1.05995E-01 3.15650E-22
1.08696E-01 3.00810E-22
1.11427E-01 2.86850E-22
1.14188E-01 2.73706E-22
1.16978E-01 2.61321E-22
1.19797E-01 2.49642E-22
1.22645E-01 2.38621E-22
1.25522E-01 2.28213E-22
1.28428E-01 2.18376E-22
1.31361E-01 2.09073E-22
1.34323E-01 2.00269E-22
1.37313E-01 1.91932E-22
1.40330E-01 1.84031E-22
1.43375E-01 1.76539E-22
1.46447E-01 1.69430E-22
1.49545E-01 1.62681E-22
1.52671E-01 1.56270E-22
1.55823E-01 1.50176E-22
1.59001E-01 1.44380E-22
1.62205E-01 1.38865E-22
1.65435E-01 1.33614E-22
1.68690E-01 1.28611E-22
1.71970E-01 1.23843E-22
1.75276E-01 1.19297E-22
1.78606E-01 1.14959E-22
1.81961E-01 1.10819E-22
1.85340E-01 1.06864E-22
1.88743E-01 1.03086E-22
1.92169E-01 9.94750E-23
1.95619E-01 9.60215E-23
1.99092E-01 9.27174E-23
2.02589E-01 8.95548E-23
2.06107E-01 8.65266E-23
2.09649E-01 8.36257E-23
2.13212E-01 8.08456E-23
2.16797E-01 7.81803E-23
2.20404E-01 7.56240E-23
2.24032E-01 7.31713E-23
2.27680E-01 7.08172E-23
2.31350E-01 6.85568E-23
2.35040E-01 6.63855E-23
2.38751E-01 6.42993E-23
2.42481E-01 6.22939E-23
2.46231E-01 6.03657E-23
2.50000E-01 5.85109E-23
2.53788E-01 5.67264E-23
2.57595E-01 5.50087E-23
2.61421E-01 5.33549E-23
2.65264E-01 5.17621E-23
2.69126E-01 5.02276E-23
2.73005E-01 4.87488E-23
2.76901E-01 4.73232E-23
2.80814E-01 4.59486E-23
2.84744E-01 4.46227E-23
2.88691E-01 4.33434E-23
2.92653E-01 4.21088E-23
2.96632E-01 4.09169E-23
3.00625E-01 3.97660E-23
3.04634E-01 3.86543E-23
3.08658E-01 3.75803E-23
3.12697E-01 3.65424E-23
3.16749E-01 3.55391E-23
3.20816E-01 3.45690E-23
3.24896E-01 3.36309E-23
3.28990E-01 3.27234E-23
3.33097E-01 3.18453E-23
3.37216E-01 3.09955E-23
3.41348E-01 3.01728E-23
3.45492E-01 2.93763E-23
3.49647E-01 2.86050E-23
3.53814E-01 2.78577E-23
3.57992E-01 2.71338E-23
3.62181E-01 2.64322E-23
3.66381E-01 2.57521E-23
3.70590E-01 2.50928E-23
3.74810E-01 2.44535E-23
3.79039E-01 2.38334E-23
3.83277E-01 2.32319E-23
3.87524E-01 2.26482E-23
3.91780E-01 2.20818E-23
3.96044E-01 2.15320E-23
4.00316E-01 2.09982E-23
4.04596E-01 2.04800E-23
4.08882E-01 1.99766E-23
4.13176E-01 1.94877E-23
4.17476E-01 1.90127E-23
4.21783E-01 1.85512E-23
4.26095E-01 1.81026E-23
4.30413E-01 1.76666E-23
4.34737E-01 1.72427E-23
4.39065E-01 1.68305E-23
4.43398E-01 1.64297E-23
4.47736E-01 1.60398E-23
4.52077E-01 1.56605E-23
4.56422E-01 1.52915E-23
4.60770E-01 1.49324E-23
4.65122E-01 1.45829E-23
4.69476E-01 1.42426E-23
4.73832E-01 1.39114E-23
4.78190E-01 1.35889E-23
4.82550E-01 1.32748E-23
4.86912E-01 1.29689E-23
4.91274E-01 1.26709E-23
4.95637E-01 1.23806E-23
5.00000E-01 1.20977E-23
5.04363E-01 1.18221E-23
5.08726E-01 1.15534E-23
5.13088E-01 1.12915E-23
5.17450E-01 1.10362E-23
5.21810E-01 1.07873E-23
5.26168E-01 1.05446E-23
5.30524E-01 1.03078E-23
5.34878E-01 1.00769E-23
5.39230E-01 9.85170E-24
5.43578E-01 9.63196E-24
5.47923E-01 9.41755E-24
5.52264E-01 9.20833E-24
5.56602E-01 9.00414E-24
5.60935E-01 8.80483E-24
5.65263E-01 8.61029E-24
5.69587E-01 8.42035E-24
5.73905E-01 8.23491E-24
5.78217E-01 8.05383E-24
5.82524E-01 7.87700E-24
5.86824E-01 7.70429E-24
5.91118E-01 7.53559E-24
5.95404E-01 7.37080E-24
5.99684E-01 7.20980E-24
6.03956E-01 7.05250E-24
6.08220E-01 6.89879E-24
6.12476E-01 6.74858E-24
6.16723E-01 6.60178E-24
6.20961E-01 6.45829E-24
6.25190E-01 6.31804E-24
6.29410E-01 6.18092E-24
6.33619E-01 6.04686E-24
6.37819E-01 5.91579E-24
6.42008E-01 5.78762E-24
6.46186E-01 5.66228E-24
6.50353E-01 5.53969E-24
6.54508E-01 5.41980E-24
6.58652E-01 5.30252E-24
6.62784E-01 5.18779E-24
6.66903E-01 5.07555E-24
6.71010E-01 4.96574E-24
6.75104E-01 4.85830E-24
6.79184E-01 4.75316E-24
6.83251E-01 4.65028E-24
6.87303E-01 4.54959E-24
6.91342E-01 4.45104E-24
6.95366E-01 4.35459E-24
6.99375E-01 4.26017E-24
7.03368E-01 4.16775E-24
7.07347E-01 4.07727E-24
7.11309E-01 3.98869E-24
7.15256E-01 3.90196E-24
7.19186E-01 3.81704E-24
7.23099E-01 3.73389E-24
7.26995E-01 3.65246E-24
7.30874E-01 3.57272E-24
7.34736E-01 3.49462E-24
7.38579E-01 3.41814E-24
7.42405E-01 3.34322E-24
7.46212E-01 3.26984E-24
7.50000E-01 3.19796E-24
7.53769E-01 3.12755E-24
7.57519E-01 3.05858E-24
7.61249E-01 2.99101E-24
7.64960E-01 2.92480E-24
7.68650E-01 2.85994E-24
7.72320E-01 2.79639E-24
7.75968E-01 2.73413E-24
7.79596E-01 2.67312E-24
7.83203E-01 2.61333E-24
7.86788E-01 2.55475E-24
7.90351E-01 2.49735E-24
7.93893E-01 2.44109E-24
7.97411E-01 2.38597E-24
8.00908E-01 2.33194E-24
8.04381E-01 2.27900E-24
8.07831E-01 2.22711E-24
8.11257E-01 2.17626E-24
8.14660E-01 2.12642E-24
8.18039E-01 2.07758E-24
8.21394E-01 2.02971E-24
8.24724E-01 1.98279E-24
8.28030E-01 1.93680E-24
8.31310E-01 1.89174E-24
8.34565E-01 1.84757E-24
8.37795E-01 1.80427E-24
8.40999E-01 1.76184E-24
8.44177E-01 1.72026E-24
8.47329E-01 1.67950E-24
8.50455E-01 1.63956E-24
8.53553E-01 1.60041E-24
8.56625E-01 1.56205E-24
8.59670E-01 1.52445E-24
8.62687E-01 1.48760E-24
8.65677E-01 1.45150E-24
8.68639E-01 1.41612E-24
8.71572E-01 1.38145E-24
8.74478E-01 1.34747E-24
8.77355E-01 1.31419E-24
8.80203E-01 1.28157E-24
8.83022E-01 1.24962E-24
8.85812E-01 1.21832E-24
8.88573E-01 1.18765E-24
8.91304E-01 1.15761E-24
8.94005E-01 1.12819E-24
8.96677E-01 1.09937E-24
8.99318E-01 1.07115E-24
9.01928E-01 1.04351E-24
9.04508E-01 1.01645E-24
9.07058E-01 9.89948E-25
9.09576E-01 9.64005E-25
9.12063E-01 9.38609E-25
9.14519E-01 9.13751E-25
9.16943E-01 8.89422E-25
9.19335E-01 8.65614E-25
9.21696E-01 8.42318E-25
9.24024E-01 8.19527E-25
9.26320E-01 7.97232E-25
9.28584E-01 7.75426E-25
9.30815E-01 7.54102E-25
9.33013E-01 7.33252E-25
9.35178E-01 7.12870E-25
9.37310E-01 6.92948E-25
9.39409E-01 6.73479E-25
9.41474E-01 6.54459E-25
9.43505E-01 6.35879E-25
9.45503E-01 6.17734E-25
9.47467E-01 6.00018E-25
9.49397E-01 5.82724E-25
9.51293E-01 5.65849E-25
9.53154E-01 5.49385E-25
9.54981E-01 5.33327E-25
9.56773E-01 5.17671E-25
9.58530E-01 5.02411E-25
9.60252E-01 4.87542E-25
9.61940E-01 4.73059E-25
9.63592E-01 4.58959E-25
9.65209E-01 4.45235E-25
9.66790E-01 4.31885E-25
9.68336E-01 4.18904E-25
9.69846E-01 4.06287E-25
9.71321E-01 3.94030E-25
9.72759E-01 3.82131E-25
9.74162E-01 3.70584E-25
9.75528E-01 3.59387E-25
9.76858E-01 3.48535E-25
9.78152E-01 3.38026E-25
9.79410E-01 3.27857E-25
9.80631E-01 3.18023E-25
9.81815E-01 3.08522E-25
9.82963E-01 2.99351E-25
9.84074E-01 2.90508E-25
9.85148E-01 2.81989E-25
9.86185E-01 2.73792E-25
9.87185E-01 2.65914E-25
9.88148E-01 2.58353E-25
9.89074E-01 2.51107E-25
9.89962E-01 2.44173E-25
9.90814E-01 2.37550E-25
9.91627E-01 2.31235E-25
9.92404E-01 2.25226E-25
9.93143E-01 2.19521E-25
9.93844E-01 2.14120E-25
9.94508E-01 2.09019E-25
9.95134E-01 2.04218E-25
9.95722E-01 1.99716E-25
9.96273E-01 1.95510E-25
9.96786E-01 1.91600E-25
9.97261E-01 1.87984E-25
9.97698E-01 1.84661E-25
9.98097E-01 1.81630E-25
9.98459E-01 1.78891E-25
9.98782E-01 1.76443E-25
9.99067E-01 1.74284E-25
9.99315E-01 1.72414E-25
9.99524E-01 1.70833E-25
9.99695E-01 1.69540E-25
9.99829E-01 1.68535E-25
9.99924E-01 1.67817E-25
9.99981E-01 1.67387E-25
1.00000E+00 1.67243E-25
