 #
 # Subroutine ELSEPA. Elastic scattering of electrons and positrons
 #                    by neutral atoms and positive ions
 #
 # Projectile: electron
 # Kinetic energy = 3.50000E+08 eV = 1.28623E+07 a.u.
 #
 # WARNING: High-energy factorization with free-atom DF screening.
 #          Absorption, polarization and exchange corrections are
 #          switched off.
 #          Phase shifts are calculated for the bare nucleus.
 #          Scattering amplitudes are not evaluated.
 #
 # Element: Cs,  Z =  55,  atomic weight = 1.32905E+02 g/mol
 #
 # Nuclear model: Fermi distribution
 #                Average radius = 5.46049E-13 cm
 #                Skin thickness = 5.46000E-14 cm
 #
 # Number of electrons = 55
 #
 # Total elastic cross section = 6.61593E-18 cm**2 = 2.36259E-01 a0**2
 # 1st transport cross section = 4.81638E-26 cm**2 = 1.71996E-09 a0**2
 # 2nd transport cross section = 1.44380E-25 cm**2 = 5.15589E-09 a0**2
 #
 #
 # Differential cross section:                       MU=(1-COS(THETA))/2
 #
 #  THETA        MU          DCS          DCS        Sherman      error
 #  (deg)                 (cm**2/sr)   (a0**2/sr)    function
 #----------------------------------------------------------------------
0.00000E+00 1.24399E-08
7.61557E-13 1.14141E-08
1.18994E-12 1.09025E-08
1.71346E-12 1.03326E-08
2.33225E-12 9.73608E-09
3.04617E-12 9.11261E-09
3.85530E-12 8.50205E-09
4.75964E-12 7.90862E-09
5.75917E-12 7.33365E-09
6.85391E-12 6.80970E-09
8.04379E-12 6.31645E-09
9.32893E-12 5.85928E-09
1.07092E-11 5.45121E-09
1.21847E-11 5.07330E-09
1.37554E-11 4.73147E-09
1.54213E-11 4.42391E-09
1.71823E-11 4.14108E-09
1.90386E-11 3.88640E-09
2.09900E-11 3.65373E-09
2.30367E-11 3.43953E-09
2.51785E-11 3.24474E-09
2.74156E-11 3.06441E-09
2.97478E-11 2.89764E-09
3.21752E-11 2.74331E-09
3.46979E-11 2.59947E-09
3.73157E-11 2.46541E-09
4.00286E-11 2.33968E-09
4.28368E-11 2.22205E-09
4.57402E-11 2.11135E-09
4.87388E-11 2.00697E-09
5.18325E-11 1.90901E-09
5.50215E-11 1.81602E-09
5.83057E-11 1.72831E-09
6.16850E-11 1.64582E-09
6.51595E-11 1.56700E-09
6.87293E-11 1.49280E-09
7.23943E-11 1.42265E-09
7.61544E-11 1.35578E-09
1.18991E-10 8.53700E-10
1.71347E-10 5.57604E-10
2.33223E-10 3.76346E-10
3.04617E-10 2.67857E-10
3.85531E-10 1.95155E-10
4.75965E-10 1.45965E-10
5.75917E-10 1.11900E-10
6.85389E-10 8.62917E-11
8.04380E-10 6.77184E-11
9.32891E-10 5.38139E-11
1.07092E-09 4.30423E-11
1.21847E-09 3.48876E-11
1.37554E-09 2.85402E-11
1.54213E-09 2.35617E-11
1.71823E-09 1.96568E-11
1.90386E-09 1.65338E-11
2.09900E-09 1.40266E-11
2.30367E-09 1.19992E-11
2.51785E-09 1.03314E-11
2.74156E-09 8.95681E-12
2.97478E-09 7.81425E-12
3.21752E-09 6.84885E-12
3.46978E-09 6.03473E-12
3.73156E-09 5.34086E-12
4.00286E-09 4.74313E-12
4.28368E-09 4.22967E-12
4.57402E-09 3.78358E-12
4.87388E-09 3.39305E-12
5.18326E-09 3.05214E-12
5.50215E-09 2.75110E-12
5.83057E-09 2.48629E-12
6.16850E-09 2.25292E-12
6.51596E-09 2.04459E-12
6.87293E-09 1.86004E-12
7.23942E-09 1.69558E-12
7.61544E-09 1.54801E-12
1.18991E-08 6.81858E-13
1.71347E-08 3.44132E-13
2.33223E-08 1.92345E-13
3.04617E-08 1.16056E-13
3.85531E-08 7.41842E-14
4.75965E-08 4.96194E-14
5.75917E-08 3.44040E-14
6.85389E-08 2.45919E-14
8.04380E-08 1.80300E-14
9.32891E-08 1.35124E-14
1.07092E-07 1.03225E-14
1.21847E-07 8.01814E-15
1.37554E-07 6.32191E-15
1.54213E-07 5.05082E-15
1.71823E-07 4.08356E-15
1.90386E-07 3.33717E-15
2.09900E-07 2.75371E-15
2.30367E-07 2.29246E-15
2.51785E-07 1.92388E-15
2.74156E-07 1.62654E-15
2.97478E-07 1.38453E-15
3.21752E-07 1.18592E-15
3.46978E-07 1.02172E-15
3.73156E-07 8.84984E-16
4.00286E-07 7.70395E-16
4.28368E-07 6.73779E-16
4.57402E-07 5.91847E-16
4.87388E-07 5.22008E-16
5.18325E-07 4.62175E-16
5.50215E-07 4.10676E-16
5.83057E-07 3.66157E-16
6.16850E-07 3.27509E-16
6.51596E-07 2.93831E-16
6.87293E-07 2.64371E-16
7.23942E-07 2.38512E-16
7.61543E-07 2.15739E-16
1.18991E-06 8.89857E-17
1.71347E-06 4.30984E-17
2.33223E-06 2.33283E-17
3.04617E-06 1.37006E-17
3.85531E-06 8.56490E-18
4.75964E-06 5.62517E-18
5.75916E-06 3.84512E-18
6.85388E-06 2.71665E-18
8.04378E-06 1.97341E-18
9.32888E-06 1.46783E-18
1.07092E-05 1.11428E-18
1.21846E-05 8.61063E-19
1.37553E-05 6.75864E-19
1.54212E-05 5.37891E-19
1.71822E-05 4.33400E-19
1.90385E-05 3.52979E-19
2.09899E-05 2.90585E-19
2.30365E-05 2.41368E-19
2.51783E-05 2.02109E-19
2.74153E-05 1.70492E-19
2.97475E-05 1.44809E-19
3.21749E-05 1.23786E-19
3.46974E-05 1.06450E-19
3.73152E-05 9.20556E-20
4.00281E-05 8.00215E-20
4.28362E-05 6.98955E-20
4.57395E-05 6.13220E-20
4.87380E-05 5.40222E-20
5.18317E-05 4.77747E-20
5.50205E-05 4.24034E-20
5.83045E-05 3.77655E-20
6.16838E-05 3.37455E-20
6.51582E-05 3.02473E-20
6.87277E-05 2.71922E-20
7.23925E-05 2.45140E-20
7.61524E-05 2.22626E-20
9.21439E-05 1.52233E-20
1.09658E-04 1.07595E-20
1.28695E-04 7.81946E-21
1.49255E-04 5.81810E-21
1.71338E-04 4.41821E-21
1.94942E-04 3.41485E-21
2.20070E-04 2.68062E-21
2.46720E-04 2.13335E-21
2.74892E-04 1.71865E-21
3.04586E-04 1.39981E-21
3.35803E-04 1.15140E-21
3.68542E-04 9.55562E-22
4.02802E-04 7.99487E-22
4.38585E-04 6.73869E-22
4.75889E-04 5.71856E-22
5.14715E-04 4.88316E-22
5.55063E-04 4.19385E-22
5.96931E-04 3.62101E-22
6.40321E-04 3.14186E-22
6.85233E-04 2.73863E-22
7.31665E-04 2.39734E-22
7.79618E-04 2.10697E-22
8.29092E-04 1.85867E-22
8.80086E-04 1.64537E-22
9.32601E-04 1.46132E-22
9.86636E-04 1.30187E-22
1.04219E-03 1.16319E-22
1.09927E-03 1.04212E-22
1.15786E-03 9.36077E-23
1.21797E-03 8.42879E-23
1.27961E-03 7.60719E-23
1.34276E-03 6.88075E-23
1.40743E-03 6.23664E-23
1.47362E-03 5.66402E-23
1.54133E-03 5.15365E-23
1.61056E-03 4.69766E-23
1.68131E-03 4.28932E-23
1.75357E-03 3.92284E-23
1.82735E-03 3.59324E-23
1.90265E-03 3.29621E-23
1.97947E-03 3.02800E-23
2.05780E-03 2.78539E-23
2.13765E-03 2.56553E-23
2.21902E-03 2.36595E-23
2.30190E-03 2.18448E-23
2.38630E-03 2.01923E-23
2.47222E-03 1.86852E-23
2.55965E-03 1.73086E-23
2.64859E-03 1.60496E-23
2.73905E-03 1.48965E-23
2.83103E-03 1.38390E-23
2.92452E-03 1.28681E-23
3.01952E-03 1.19755E-23
3.11604E-03 1.11541E-23
3.21407E-03 1.03972E-23
3.31362E-03 9.69904E-24
3.41468E-03 9.05443E-24
3.51725E-03 8.45864E-24
3.62133E-03 7.90743E-24
3.72692E-03 7.39700E-24
3.83403E-03 6.92390E-24
3.94265E-03 6.48500E-24
4.05278E-03 6.07750E-24
4.16442E-03 5.69884E-24
4.27757E-03 5.34669E-24
4.39223E-03 5.01894E-24
4.50840E-03 4.71369E-24
4.62608E-03 4.42917E-24
4.74527E-03 4.16380E-24
4.86597E-03 3.91612E-24
4.98817E-03 3.68479E-24
5.11188E-03 3.46861E-24
5.23711E-03 3.26645E-24
5.36383E-03 3.07730E-24
5.49207E-03 2.90020E-24
5.62181E-03 2.73431E-24
5.75306E-03 2.57883E-24
5.88581E-03 2.43302E-24
6.02007E-03 2.29622E-24
6.15583E-03 2.16780E-24
6.29310E-03 2.04720E-24
6.43187E-03 1.93388E-24
6.57214E-03 1.82736E-24
6.71392E-03 1.72718E-24
6.85720E-03 1.63293E-24
7.00198E-03 1.54422E-24
7.14827E-03 1.46069E-24
7.29605E-03 1.38201E-24
7.44534E-03 1.30786E-24
7.59612E-03 1.23797E-24
7.97965E-03 1.08012E-24
8.37255E-03 9.43536E-25
8.77480E-03 8.25113E-25
9.18641E-03 7.22254E-25
9.60736E-03 6.32766E-25
1.00376E-02 5.54791E-25
1.04773E-02 4.86754E-25
1.09262E-02 4.27312E-25
1.13844E-02 3.75319E-25
1.18520E-02 3.29792E-25
1.23288E-02 2.89888E-25
1.28150E-02 2.54884E-25
1.33104E-02 2.24154E-25
1.38150E-02 1.97157E-25
1.43290E-02 1.73426E-25
1.48521E-02 1.52555E-25
1.53845E-02 1.34191E-25
1.59262E-02 1.18028E-25
1.64770E-02 1.03796E-25
1.70371E-02 9.12636E-26
1.76063E-02 8.02254E-26
1.81848E-02 7.05025E-26
1.87724E-02 6.19382E-26
1.93692E-02 5.43949E-26
1.99751E-02 4.77515E-26
2.05901E-02 4.19018E-26
2.12143E-02 3.67522E-26
2.18476E-02 3.22202E-26
2.24900E-02 2.82333E-26
2.31415E-02 2.47274E-26
2.38021E-02 2.16458E-26
2.44717E-02 1.89387E-26
2.51504E-02 1.65620E-26
2.58382E-02 1.44767E-26
2.65349E-02 1.26484E-26
2.72407E-02 1.10465E-26
2.79555E-02 9.64412E-27
2.86793E-02 8.41751E-27
2.94120E-02 7.34556E-27
3.01537E-02 6.40966E-27
3.09043E-02 5.59333E-27
3.16639E-02 4.88201E-27
3.24324E-02 4.26284E-27
3.32098E-02 3.72446E-27
3.39961E-02 3.25683E-27
3.47912E-02 2.85109E-27
3.55952E-02 2.49942E-27
3.64081E-02 2.19495E-27
3.72297E-02 1.93159E-27
3.80602E-02 1.70402E-27
3.88995E-02 1.50754E-27
3.97476E-02 1.33803E-27
4.06044E-02 1.19186E-27
4.14700E-02 1.06587E-27
4.23443E-02 9.57288E-28
4.32273E-02 8.63686E-28
4.41190E-02 7.82951E-28
4.50194E-02 7.13242E-28
4.59284E-02 6.52958E-28
4.68461E-02 6.00711E-28
4.87074E-02 5.15687E-28
5.06030E-02 4.50411E-28
5.25328E-02 3.99161E-28
5.44967E-02 3.57771E-28
5.64946E-02 3.23259E-28
5.85262E-02 2.93527E-28
6.05914E-02 2.67136E-28
6.26901E-02 2.43130E-28
6.48222E-02 2.20898E-28
6.69873E-02 2.00072E-28
6.91854E-02 1.80450E-28
7.14163E-02 1.61939E-28
7.36799E-02 1.44509E-28
7.59760E-02 1.28167E-28
7.83043E-02 1.12935E-28
8.06647E-02 9.88362E-29
8.30571E-02 8.58854E-29
8.54812E-02 7.40851E-29
8.79369E-02 6.34233E-29
9.04240E-02 5.38732E-29
9.29422E-02 4.53945E-29
9.54915E-02 3.79349E-29
9.80716E-02 3.14327E-29
1.00682E-01 2.58190E-29
1.03323E-01 2.10203E-29
1.05995E-01 1.69606E-29
1.08696E-01 1.35635E-29
1.11427E-01 1.07537E-29
1.14188E-01 8.45856E-30
1.16978E-01 6.60918E-30
1.19797E-01 5.14125E-30
1.22645E-01 3.99562E-30
1.25522E-01 3.11858E-30
1.28428E-01 2.46210E-30
1.31361E-01 1.98373E-30
1.34323E-01 1.64648E-30
1.37313E-01 1.41859E-30
1.40330E-01 1.27314E-30
1.43375E-01 1.18769E-30
1.46447E-01 1.14388E-30
1.49545E-01 1.12694E-30
1.52671E-01 1.12530E-30
1.55823E-01 1.13015E-30
1.59001E-01 1.13500E-30
1.62205E-01 1.13536E-30
1.65435E-01 1.12834E-30
1.68690E-01 1.11233E-30
1.71970E-01 1.08677E-30
1.75276E-01 1.05186E-30
1.78606E-01 1.00835E-30
1.81961E-01 9.57388E-31
1.85340E-01 9.00347E-31
1.88743E-01 8.38716E-31
1.92169E-01 7.74001E-31
1.95619E-01 7.07657E-31
1.99092E-01 6.41029E-31
2.02589E-01 5.75322E-31
2.06107E-01 5.11574E-31
2.09649E-01 4.50647E-31
2.13212E-01 3.93225E-31
2.16797E-01 3.39820E-31
2.20404E-01 2.90780E-31
2.24032E-01 2.46309E-31
2.27680E-01 2.06477E-31
2.31350E-01 1.71245E-31
2.35040E-01 1.40479E-31
2.38751E-01 1.13968E-31
2.42481E-01 9.14447E-32
2.46231E-01 7.26008E-32
2.50000E-01 5.70990E-32
2.53788E-01 4.45882E-32
2.57595E-01 3.47135E-32
2.61421E-01 2.71259E-32
2.65264E-01 2.14895E-32
2.69126E-01 1.74872E-32
2.73005E-01 1.48254E-32
2.76901E-01 1.32365E-32
2.80814E-01 1.24811E-32
2.84744E-01 1.23481E-32
2.88691E-01 1.26553E-32
2.92653E-01 1.32479E-32
2.96632E-01 1.39974E-32
3.00625E-01 1.47997E-32
3.04634E-01 1.55731E-32
3.08658E-01 1.62560E-32
3.12697E-01 1.68043E-32
3.16749E-01 1.71892E-32
3.20816E-01 1.73950E-32
3.24896E-01 1.74166E-32
3.28990E-01 1.72575E-32
3.33097E-01 1.69280E-32
3.37216E-01 1.64434E-32
3.41348E-01 1.58225E-32
3.45492E-01 1.50864E-32
3.49647E-01 1.42570E-32
3.53814E-01 1.33566E-32
3.57992E-01 1.24068E-32
3.62181E-01 1.14278E-32
3.66381E-01 1.04385E-32
3.70590E-01 9.45565E-33
3.74810E-01 8.49391E-33
3.79039E-01 7.56576E-33
3.83277E-01 6.68140E-33
3.87524E-01 5.84888E-33
3.91780E-01 5.07420E-33
3.96044E-01 4.36143E-33
4.00316E-01 3.71290E-33
4.04596E-01 3.12942E-33
4.08882E-01 2.61044E-33
4.13176E-01 2.15429E-33
4.17476E-01 1.75837E-33
4.21783E-01 1.41933E-33
4.26095E-01 1.13327E-33
4.30413E-01 8.95904E-34
4.34737E-01 7.02703E-34
4.39065E-01 5.49019E-34
4.43398E-01 4.30208E-34
4.47736E-01 3.41723E-34
4.52077E-01 2.79192E-34
4.56422E-01 2.38478E-34
4.60770E-01 2.15726E-34
4.65122E-01 2.07398E-34
4.69476E-01 2.10293E-34
4.73832E-01 2.21557E-34
4.78190E-01 2.38682E-34
4.82550E-01 2.59504E-34
4.86912E-01 2.82185E-34
4.91274E-01 3.05202E-34
4.95637E-01 3.27318E-34
5.00000E-01 3.47563E-34
5.04363E-01 3.65208E-34
5.08726E-01 3.79735E-34
5.13088E-01 3.90815E-34
5.17450E-01 3.98281E-34
5.21810E-01 4.02100E-34
5.26168E-01 4.02351E-34
5.30524E-01 3.99206E-34
5.34878E-01 3.92903E-34
5.39230E-01 3.83736E-34
5.43578E-01 3.72032E-34
5.47923E-01 3.58140E-34
5.52264E-01 3.42419E-34
5.56602E-01 3.25226E-34
5.60935E-01 3.06910E-34
5.65263E-01 2.87802E-34
5.69587E-01 2.68214E-34
5.73905E-01 2.48429E-34
5.78217E-01 2.28706E-34
5.82524E-01 2.09272E-34
5.86824E-01 1.90324E-34
5.91118E-01 1.72029E-34
5.95404E-01 1.54525E-34
5.99684E-01 1.37923E-34
6.03956E-01 1.22306E-34
6.08220E-01 1.07732E-34
6.12476E-01 9.42396E-35
6.16723E-01 8.18448E-35
6.20961E-01 7.05473E-35
6.25190E-01 6.03315E-35
6.29410E-01 5.11688E-35
6.33619E-01 4.30198E-35
6.37819E-01 3.58366E-35
6.42008E-01 2.95647E-35
6.46186E-01 2.41445E-35
6.50353E-01 1.95132E-35
6.54508E-01 1.56061E-35
6.58652E-01 1.23580E-35
6.62784E-01 9.70385E-36
6.66903E-01 7.58024E-36
6.71010E-01 5.92577E-36
6.75104E-01 4.68179E-36
6.79184E-01 3.79286E-36
6.83251E-01 3.20711E-36
6.87303E-01 2.87643E-36
6.91342E-01 2.75673E-36
6.95366E-01 2.80784E-36
6.99375E-01 2.99367E-36
7.03368E-01 3.28198E-36
7.07347E-01 3.64438E-36
7.11309E-01 4.05606E-36
7.15256E-01 4.49568E-36
7.19186E-01 4.94511E-36
7.23099E-01 5.38917E-36
7.26995E-01 5.81544E-36
7.30874E-01 6.21399E-36
7.34736E-01 6.57709E-36
7.38579E-01 6.89905E-36
7.42405E-01 7.17588E-36
7.46212E-01 7.40519E-36
7.50000E-01 7.58582E-36
7.53769E-01 7.71781E-36
7.57519E-01 7.80209E-36
7.61249E-01 7.84033E-36
7.64960E-01 7.83488E-36
7.68650E-01 7.78849E-36
7.72320E-01 7.70430E-36
7.75968E-01 7.58569E-36
7.79596E-01 7.43615E-36
7.83203E-01 7.25926E-36
7.86788E-01 7.05859E-36
7.90351E-01 6.83765E-36
7.93893E-01 6.59985E-36
7.97411E-01 6.34840E-36
8.00908E-01 6.08639E-36
8.04381E-01 5.81668E-36
8.07831E-01 5.54194E-36
8.11257E-01 5.26457E-36
8.14660E-01 4.98680E-36
8.18039E-01 4.71057E-36
8.21394E-01 4.43766E-36
8.24724E-01 4.16958E-36
8.28030E-01 3.90765E-36
8.31310E-01 3.65299E-36
8.34565E-01 3.40652E-36
8.37795E-01 3.16902E-36
8.40999E-01 2.94106E-36
8.44177E-01 2.72310E-36
8.47329E-01 2.51545E-36
8.50455E-01 2.31829E-36
8.53553E-01 2.13171E-36
8.56625E-01 1.95571E-36
8.59670E-01 1.79017E-36
8.62687E-01 1.63495E-36
8.65677E-01 1.48980E-36
8.68639E-01 1.35446E-36
8.71572E-01 1.22859E-36
8.74478E-01 1.11185E-36
8.77355E-01 1.00387E-36
8.80203E-01 9.04225E-37
8.83022E-01 8.12526E-37
8.85812E-01 7.28340E-37
8.88573E-01 6.51254E-37
8.91304E-01 5.80844E-37
8.94005E-01 5.16691E-37
8.96677E-01 4.58388E-37
8.99318E-01 4.05540E-37
9.01928E-01 3.57758E-37
9.04508E-01 3.14670E-37
9.07058E-01 2.75921E-37
9.09576E-01 2.41168E-37
9.12063E-01 2.10088E-37
9.14519E-01 1.82375E-37
9.16943E-01 1.57738E-37
9.19335E-01 1.35907E-37
9.21696E-01 1.16624E-37
9.24024E-01 9.96529E-38
9.26320E-01 8.47714E-38
9.28584E-01 7.17733E-38
9.30815E-01 6.04681E-38
9.33013E-01 5.06802E-38
9.35178E-01 4.22466E-38
9.37310E-01 3.50197E-38
9.39409E-01 2.88628E-38
9.41474E-01 2.36518E-38
9.43505E-01 1.92737E-38
9.45503E-01 1.56255E-38
9.47467E-01 1.26143E-38
9.49397E-01 1.01566E-38
9.51293E-01 8.17637E-39
9.53154E-01 6.60628E-39
9.54981E-01 5.38547E-39
9.56773E-01 4.45996E-39
9.58530E-01 3.78233E-39
9.60252E-01 3.30983E-39
9.61940E-01 3.00582E-39
9.63592E-01 2.83686E-39
9.65209E-01 2.77507E-39
9.66790E-01 2.79595E-39
9.68336E-01 2.87773E-39
9.69846E-01 3.00231E-39
9.71321E-01 3.15446E-39
9.72759E-01 3.32098E-39
9.74162E-01 3.49152E-39
9.75528E-01 3.65729E-39
9.76858E-01 3.81006E-39
9.78152E-01 3.94627E-39
9.79410E-01 4.05974E-39
9.80631E-01 4.14776E-39
9.81815E-01 4.20876E-39
9.82963E-01 4.24140E-39
9.84074E-01 4.24552E-39
9.85148E-01 4.22015E-39
9.86185E-01 4.16709E-39
9.87185E-01 4.08681E-39
9.88148E-01 3.98184E-39
9.89074E-01 3.85348E-39
9.89962E-01 3.70344E-39
9.90814E-01 3.53578E-39
9.91627E-01 3.35145E-39
9.92404E-01 3.15348E-39
9.93143E-01 2.94408E-39
9.93844E-01 2.72727E-39
9.94508E-01 2.50419E-39
9.95134E-01 2.27933E-39
9.95722E-01 2.05312E-39
9.96273E-01 1.82978E-39
9.96786E-01 1.61091E-39
9.97261E-01 1.39861E-39
9.97698E-01 1.19581E-39
9.98097E-01 1.00357E-39
9.98459E-01 8.24150E-40
9.98782E-01 6.59477E-40
9.99067E-01 5.10482E-40
9.99315E-01 3.78833E-40
9.99524E-01 2.65500E-40
9.99695E-01 1.71584E-40
9.99829E-01 9.75733E-41
9.99924E-01 4.43026E-41
9.99981E-01 1.21158E-41
1.00000E+00 1.58359E-42
