 #
 # Subroutine ELSEPA. Elastic scattering of electrons and positrons
 #                    by neutral atoms and positive ions
 #
 # Projectile: electron
 # Kinetic energy = 1.75000E+07 eV = 6.43113E+05 a.u.
 #
 # WARNING: High-energy factorization with free-atom DF screening.
 #          Absorption, polarization and exchange corrections are
 #          switched off.
 #          Phase shifts are calculated for the bare nucleus.
 #          Scattering amplitudes are not evaluated.
 #
 # Element: Cs,  Z =  55,  atomic weight = 1.32905E+02 g/mol
 #
 # Nuclear model: Fermi distribution
 #                Average radius = 5.46049E-13 cm
 #                Skin thickness = 5.46000E-14 cm
 #
 # Number of electrons = 55
 #
 # Total elastic cross section = 6.62914E-18 cm**2 = 2.36731E-01 a0**2
 # 1st transport cross section = 1.73768E-23 cm**2 = 6.20535E-07 a0**2
 # 2nd transport cross section = 4.93438E-23 cm**2 = 1.76210E-06 a0**2
 #
 #
 # Differential cross section:                       MU=(1-COS(THETA))/2
 #
 #  THETA        MU          DCS          DCS        Sherman      error
 #  (deg)                 (cm**2/sr)   (a0**2/sr)    function
 #----------------------------------------------------------------------
0.00000E+00 3.28466E-11
7.61557E-13 3.28389E-11
1.18994E-12 3.28345E-11
1.71346E-12 3.28292E-11
2.33225E-12 3.28229E-11
3.04617E-12 3.28157E-11
3.85530E-12 3.28075E-11
4.75964E-12 3.27983E-11
5.75917E-12 3.27882E-11
6.85391E-12 3.27771E-11
8.04379E-12 3.27651E-11
9.32893E-12 3.27522E-11
1.07092E-11 3.27382E-11
1.21847E-11 3.27234E-11
1.37554E-11 3.27075E-11
1.54213E-11 3.26908E-11
1.71823E-11 3.26731E-11
1.90386E-11 3.26545E-11
2.09900E-11 3.26349E-11
2.30367E-11 3.26144E-11
2.51785E-11 3.25930E-11
2.74156E-11 3.25706E-11
2.97478E-11 3.25473E-11
3.21752E-11 3.25231E-11
3.46979E-11 3.24980E-11
3.73157E-11 3.24720E-11
4.00286E-11 3.24451E-11
4.28368E-11 3.24172E-11
4.57402E-11 3.23885E-11
4.87388E-11 3.23589E-11
5.18325E-11 3.23284E-11
5.50215E-11 3.22970E-11
5.83057E-11 3.22647E-11
6.16850E-11 3.22316E-11
6.51595E-11 3.21975E-11
6.87293E-11 3.21627E-11
7.23943E-11 3.21269E-11
7.61544E-11 3.20903E-11
1.18991E-10 3.16787E-11
1.71347E-10 3.11883E-11
2.33223E-10 3.06263E-11
3.04617E-10 3.00004E-11
3.85531E-10 2.93189E-11
4.75965E-10 2.85902E-11
5.75917E-10 2.78230E-11
6.85389E-10 2.70260E-11
8.04380E-10 2.62245E-11
9.32891E-10 2.53966E-11
1.07092E-09 2.45417E-11
1.21847E-09 2.37145E-11
1.37554E-09 2.28865E-11
1.54213E-09 2.20470E-11
1.71823E-09 2.12491E-11
1.90386E-09 2.04668E-11
2.09900E-09 1.96840E-11
2.30367E-09 1.89475E-11
2.51785E-09 1.82372E-11
2.74156E-09 1.75332E-11
2.97478E-09 1.68740E-11
3.21752E-09 1.62460E-11
3.46978E-09 1.56282E-11
3.73156E-09 1.50498E-11
4.00286E-09 1.45037E-11
4.28368E-09 1.39693E-11
4.57402E-09 1.34677E-11
4.87388E-09 1.29967E-11
5.18326E-09 1.25376E-11
5.50215E-09 1.21048E-11
5.83057E-09 1.16991E-11
6.16850E-09 1.13050E-11
6.51596E-09 1.09315E-11
6.87293E-09 1.05811E-11
7.23942E-09 1.02415E-11
7.61544E-09 9.91789E-12
1.18991E-08 7.37047E-12
1.71347E-08 5.62685E-12
2.33223E-08 4.35561E-12
3.04617E-08 3.39899E-12
3.85531E-08 2.67358E-12
4.75965E-08 2.12208E-12
5.75917E-08 1.70140E-12
6.85389E-08 1.37883E-12
8.04380E-08 1.12209E-12
9.32891E-08 9.28154E-13
1.07092E-07 7.80965E-13
1.21847E-07 6.57310E-13
1.37554E-07 5.58371E-13
1.54213E-07 4.80396E-13
1.71823E-07 4.13165E-13
1.90386E-07 3.57405E-13
2.09900E-07 3.12188E-13
2.30367E-07 2.72517E-13
2.51785E-07 2.38695E-13
2.74156E-07 2.10664E-13
2.97478E-07 1.85929E-13
3.21752E-07 1.64449E-13
3.46978E-07 1.46335E-13
3.73156E-07 1.30343E-13
4.00286E-07 1.16297E-13
4.28368E-07 1.04277E-13
4.57402E-07 9.36627E-14
4.87388E-07 8.42704E-14
5.18325E-07 7.61291E-14
5.50215E-07 6.89238E-14
5.83057E-07 6.25101E-14
6.16850E-07 5.68877E-14
6.51596E-07 5.18890E-14
6.87293E-07 4.74131E-14
7.23942E-07 4.34501E-14
7.61543E-07 3.99052E-14
1.18991E-06 1.88605E-14
1.71347E-06 1.02008E-14
2.33223E-06 5.98149E-15
3.04617E-06 3.71405E-15
3.85531E-06 2.41308E-15
4.75964E-06 1.63083E-15
5.75916E-06 1.14124E-15
6.85388E-06 8.22608E-16
8.04378E-06 6.08081E-16
9.32888E-06 4.59727E-16
1.07092E-05 3.54228E-16
1.21846E-05 2.77452E-16
1.37553E-05 2.20437E-16
1.54212E-05 1.77308E-16
1.71822E-05 1.44241E-16
1.90385E-05 1.18495E-16
2.09899E-05 9.83081E-17
2.30365E-05 8.22256E-17
2.51783E-05 6.92700E-17
2.74153E-05 5.87499E-17
2.97475E-05 5.01444E-17
3.21749E-05 4.30545E-17
3.46974E-05 3.71740E-17
3.73152E-05 3.22642E-17
4.00281E-05 2.81375E-17
4.28362E-05 2.46504E-17
4.57395E-05 2.16866E-17
4.87380E-05 1.91540E-17
5.18317E-05 1.69793E-17
5.50205E-05 1.51034E-17
5.83045E-05 1.34790E-17
6.16838E-05 1.20674E-17
6.51582E-05 1.08362E-17
6.87277E-05 9.75860E-18
7.23925E-05 8.81197E-18
7.61524E-05 7.97780E-18
9.21439E-05 5.48349E-18
1.09658E-04 3.89277E-18
1.28695E-04 2.84014E-18
1.49255E-04 2.12069E-18
1.71338E-04 1.61564E-18
1.94942E-04 1.25251E-18
2.20070E-04 9.86020E-19
2.46720E-04 7.86866E-19
2.74892E-04 6.35584E-19
3.04586E-04 5.19019E-19
3.35803E-04 4.28012E-19
3.68542E-04 3.56127E-19
4.02802E-04 2.98734E-19
4.38585E-04 2.52462E-19
4.75889E-04 2.14823E-19
5.14715E-04 1.83951E-19
5.55063E-04 1.58438E-19
5.96931E-04 1.37205E-19
6.40321E-04 1.19417E-19
6.85233E-04 1.04425E-19
7.31665E-04 9.17169E-20
7.79618E-04 8.08884E-20
8.29092E-04 7.16142E-20
8.80086E-04 6.36346E-20
9.32601E-04 5.67385E-20
9.86636E-04 5.07535E-20
1.04219E-03 4.55392E-20
1.09927E-03 4.09793E-20
1.15786E-03 3.69774E-20
1.21797E-03 3.34537E-20
1.27961E-03 3.03410E-20
1.34276E-03 2.75831E-20
1.40743E-03 2.51325E-20
1.47362E-03 2.29489E-20
1.54133E-03 2.09982E-20
1.61056E-03 1.92511E-20
1.68131E-03 1.76826E-20
1.75357E-03 1.62712E-20
1.82735E-03 1.49984E-20
1.90265E-03 1.38482E-20
1.97947E-03 1.28065E-20
2.05780E-03 1.18614E-20
2.13765E-03 1.10022E-20
2.21902E-03 1.02198E-20
2.30190E-03 9.50601E-21
2.38630E-03 8.85375E-21
2.47222E-03 8.25675E-21
2.55965E-03 7.70947E-21
2.64859E-03 7.20701E-21
2.73905E-03 6.74503E-21
2.83103E-03 6.31968E-21
2.92452E-03 5.92751E-21
3.01952E-03 5.56545E-21
3.11604E-03 5.23077E-21
3.21407E-03 4.92102E-21
3.31362E-03 4.63399E-21
3.41468E-03 4.36770E-21
3.51725E-03 4.12039E-21
3.62133E-03 3.89043E-21
3.72692E-03 3.67640E-21
3.83403E-03 3.47698E-21
3.94265E-03 3.29099E-21
4.05278E-03 3.11735E-21
4.16442E-03 2.95508E-21
4.27757E-03 2.80331E-21
4.39223E-03 2.66123E-21
4.50840E-03 2.52809E-21
4.62608E-03 2.40324E-21
4.74527E-03 2.28605E-21
4.86597E-03 2.17597E-21
4.98817E-03 2.07249E-21
5.11188E-03 1.97513E-21
5.23711E-03 1.88347E-21
5.36383E-03 1.79711E-21
5.49207E-03 1.71567E-21
5.62181E-03 1.63884E-21
5.75306E-03 1.56629E-21
5.88581E-03 1.49774E-21
6.02007E-03 1.43293E-21
6.15583E-03 1.37162E-21
6.29310E-03 1.31359E-21
6.43187E-03 1.25861E-21
6.57214E-03 1.20651E-21
6.71392E-03 1.15710E-21
6.85720E-03 1.11021E-21
7.00198E-03 1.06570E-21
7.14827E-03 1.02341E-21
7.29605E-03 9.83222E-22
7.44534E-03 9.45003E-22
7.59612E-03 9.08641E-22
7.97965E-03 8.25168E-22
8.37255E-03 7.51149E-22
8.77480E-03 6.85321E-22
9.18641E-03 6.26614E-22
9.60736E-03 5.74120E-22
1.00376E-02 5.27064E-22
1.04773E-02 4.84778E-22
1.09262E-02 4.46691E-22
1.13844E-02 4.12311E-22
1.18520E-02 3.81210E-22
1.23288E-02 3.53019E-22
1.28150E-02 3.27413E-22
1.33104E-02 3.04113E-22
1.38150E-02 2.82873E-22
1.43290E-02 2.63475E-22
1.48521E-02 2.45731E-22
1.53845E-02 2.29473E-22
1.59262E-02 2.14554E-22
1.64770E-02 2.00842E-22
1.70371E-02 1.88221E-22
1.76063E-02 1.76588E-22
1.81848E-02 1.65852E-22
1.87724E-02 1.55929E-22
1.93692E-02 1.46746E-22
1.99751E-02 1.38238E-22
2.05901E-02 1.30345E-22
2.12143E-02 1.23015E-22
2.18476E-02 1.16200E-22
2.24900E-02 1.09856E-22
2.31415E-02 1.03945E-22
2.38021E-02 9.84316E-23
2.44717E-02 9.32834E-23
2.51504E-02 8.84721E-23
2.58382E-02 8.39711E-23
2.65349E-02 7.97564E-23
2.72407E-02 7.58062E-23
2.79555E-02 7.21012E-23
2.86793E-02 6.86227E-23
2.94120E-02 6.53540E-23
3.01537E-02 6.22804E-23
3.09043E-02 5.93881E-23
3.16639E-02 5.66635E-23
3.24324E-02 5.40956E-23
3.32098E-02 5.16738E-23
3.39961E-02 4.93875E-23
3.47912E-02 4.72280E-23
3.55952E-02 4.51869E-23
3.64081E-02 4.32563E-23
3.72297E-02 4.14290E-23
3.80602E-02 3.96986E-23
3.88995E-02 3.80587E-23
3.97476E-02 3.65037E-23
4.06044E-02 3.50284E-23
4.14700E-02 3.36278E-23
4.23443E-02 3.22974E-23
4.32273E-02 3.10330E-23
4.41190E-02 2.98307E-23
4.50194E-02 2.86868E-23
4.59284E-02 2.75978E-23
4.68461E-02 2.65607E-23
4.87074E-02 2.46303E-23
5.06030E-02 2.28742E-23
5.25328E-02 2.12735E-23
5.44967E-02 1.98120E-23
5.64946E-02 1.84752E-23
5.85262E-02 1.72504E-23
6.05914E-02 1.61265E-23
6.26901E-02 1.50936E-23
6.48222E-02 1.41428E-23
6.69873E-02 1.32664E-23
6.91854E-02 1.24574E-23
7.14163E-02 1.17096E-23
7.36799E-02 1.10175E-23
7.59760E-02 1.03762E-23
7.83043E-02 9.78122E-24
8.06647E-02 9.22854E-24
8.30571E-02 8.71458E-24
8.54812E-02 8.23610E-24
8.79369E-02 7.79018E-24
9.04240E-02 7.37416E-24
9.29422E-02 6.98565E-24
9.54915E-02 6.62248E-24
9.80716E-02 6.28266E-24
1.00682E-01 5.96441E-24
1.03323E-01 5.66609E-24
1.05995E-01 5.38621E-24
1.08696E-01 5.12339E-24
1.11427E-01 4.87641E-24
1.14188E-01 4.64411E-24
1.16978E-01 4.42546E-24
1.19797E-01 4.21949E-24
1.22645E-01 4.02532E-24
1.25522E-01 3.84216E-24
1.28428E-01 3.66924E-24
1.31361E-01 3.50589E-24
1.34323E-01 3.35148E-24
1.37313E-01 3.20541E-24
1.40330E-01 3.06715E-24
1.43375E-01 2.93621E-24
1.46447E-01 2.81211E-24
1.49545E-01 2.69443E-24
1.52671E-01 2.58278E-24
1.55823E-01 2.47678E-24
1.59001E-01 2.37609E-24
1.62205E-01 2.28040E-24
1.65435E-01 2.18941E-24
1.68690E-01 2.10285E-24
1.71970E-01 2.02045E-24
1.75276E-01 1.94197E-24
1.78606E-01 1.86721E-24
1.81961E-01 1.79594E-24
1.85340E-01 1.72796E-24
1.88743E-01 1.66311E-24
1.92169E-01 1.60121E-24
1.95619E-01 1.54209E-24
1.99092E-01 1.48561E-24
2.02589E-01 1.43163E-24
2.06107E-01 1.38002E-24
2.09649E-01 1.33065E-24
2.13212E-01 1.28341E-24
2.16797E-01 1.23819E-24
2.20404E-01 1.19488E-24
2.24032E-01 1.15339E-24
2.27680E-01 1.11363E-24
2.31350E-01 1.07551E-24
2.35040E-01 1.03895E-24
2.38751E-01 1.00388E-24
2.42481E-01 9.70227E-25
2.46231E-01 9.37917E-25
2.50000E-01 9.06890E-25
2.53788E-01 8.77085E-25
2.57595E-01 8.48446E-25
2.61421E-01 8.20918E-25
2.65264E-01 7.94449E-25
2.69126E-01 7.68993E-25
2.73005E-01 7.44502E-25
2.76901E-01 7.20935E-25
2.80814E-01 6.98248E-25
2.84744E-01 6.76404E-25
2.88691E-01 6.55365E-25
2.92653E-01 6.35097E-25
2.96632E-01 6.15566E-25
3.00625E-01 5.96741E-25
3.04634E-01 5.78590E-25
3.08658E-01 5.61087E-25
3.12697E-01 5.44203E-25
3.16749E-01 5.27912E-25
3.20816E-01 5.12191E-25
3.24896E-01 4.97016E-25
3.28990E-01 4.82364E-25
3.33097E-01 4.68214E-25
3.37216E-01 4.54546E-25
3.41348E-01 4.41341E-25
3.45492E-01 4.28580E-25
3.49647E-01 4.16245E-25
3.53814E-01 4.04321E-25
3.57992E-01 3.92790E-25
3.62181E-01 3.81638E-25
3.66381E-01 3.70851E-25
3.70590E-01 3.60413E-25
3.74810E-01 3.50312E-25
3.79039E-01 3.40536E-25
3.83277E-01 3.31071E-25
3.87524E-01 3.21907E-25
3.91780E-01 3.13031E-25
3.96044E-01 3.04435E-25
4.00316E-01 2.96106E-25
4.04596E-01 2.88037E-25
4.08882E-01 2.80216E-25
4.13176E-01 2.72636E-25
4.17476E-01 2.65287E-25
4.21783E-01 2.58161E-25
4.26095E-01 2.51251E-25
4.30413E-01 2.44549E-25
4.34737E-01 2.38047E-25
4.39065E-01 2.31740E-25
4.43398E-01 2.25619E-25
4.47736E-01 2.19678E-25
4.52077E-01 2.13912E-25
4.56422E-01 2.08314E-25
4.60770E-01 2.02879E-25
4.65122E-01 1.97601E-25
4.69476E-01 1.92475E-25
4.73832E-01 1.87496E-25
4.78190E-01 1.82659E-25
4.82550E-01 1.77959E-25
4.86912E-01 1.73393E-25
4.91274E-01 1.68954E-25
4.95637E-01 1.64640E-25
5.00000E-01 1.60447E-25
5.04363E-01 1.56369E-25
5.08726E-01 1.52405E-25
5.13088E-01 1.48549E-25
5.17450E-01 1.44800E-25
5.21810E-01 1.41152E-25
5.26168E-01 1.37604E-25
5.30524E-01 1.34152E-25
5.34878E-01 1.30793E-25
5.39230E-01 1.27524E-25
5.43578E-01 1.24342E-25
5.47923E-01 1.21245E-25
5.52264E-01 1.18231E-25
5.56602E-01 1.15296E-25
5.60935E-01 1.12438E-25
5.65263E-01 1.09655E-25
5.69587E-01 1.06945E-25
5.73905E-01 1.04306E-25
5.78217E-01 1.01735E-25
5.82524E-01 9.92299E-26
5.86824E-01 9.67897E-26
5.91118E-01 9.44120E-26
5.95404E-01 9.20951E-26
5.99684E-01 8.98372E-26
6.03956E-01 8.76366E-26
6.08220E-01 8.54917E-26
6.12476E-01 8.34008E-26
6.16723E-01 8.13624E-26
6.20961E-01 7.93750E-26
6.25190E-01 7.74372E-26
6.29410E-01 7.55476E-26
6.33619E-01 7.37048E-26
6.37819E-01 7.19075E-26
6.42008E-01 7.01545E-26
6.46186E-01 6.84445E-26
6.50353E-01 6.67764E-26
6.54508E-01 6.51489E-26
6.58652E-01 6.35611E-26
6.62784E-01 6.20117E-26
6.66903E-01 6.04998E-26
6.71010E-01 5.90244E-26
6.75104E-01 5.75844E-26
6.79184E-01 5.61790E-26
6.83251E-01 5.48071E-26
6.87303E-01 5.34679E-26
6.91342E-01 5.21606E-26
6.95366E-01 5.08843E-26
6.99375E-01 4.96381E-26
7.03368E-01 4.84214E-26
7.07347E-01 4.72332E-26
7.11309E-01 4.60730E-26
7.15256E-01 4.49399E-26
7.19186E-01 4.38332E-26
7.23099E-01 4.27524E-26
7.26995E-01 4.16966E-26
7.30874E-01 4.06654E-26
7.34736E-01 3.96580E-26
7.38579E-01 3.86738E-26
7.42405E-01 3.77124E-26
7.46212E-01 3.67730E-26
7.50000E-01 3.58552E-26
7.53769E-01 3.49583E-26
7.57519E-01 3.40820E-26
7.61249E-01 3.32257E-26
7.64960E-01 3.23889E-26
7.68650E-01 3.15710E-26
7.72320E-01 3.07718E-26
7.75968E-01 2.99906E-26
7.79596E-01 2.92271E-26
7.83203E-01 2.84808E-26
7.86788E-01 2.77513E-26
7.90351E-01 2.70383E-26
7.93893E-01 2.63413E-26
7.97411E-01 2.56599E-26
8.00908E-01 2.49938E-26
8.04381E-01 2.43427E-26
8.07831E-01 2.37061E-26
8.11257E-01 2.30837E-26
8.14660E-01 2.24752E-26
8.18039E-01 2.18803E-26
8.21394E-01 2.12987E-26
8.24724E-01 2.07300E-26
8.28030E-01 2.01740E-26
8.31310E-01 1.96303E-26
8.34565E-01 1.90987E-26
8.37795E-01 1.85790E-26
8.40999E-01 1.80708E-26
8.44177E-01 1.75739E-26
8.47329E-01 1.70880E-26
8.50455E-01 1.66129E-26
8.53553E-01 1.61484E-26
8.56625E-01 1.56942E-26
8.59670E-01 1.52502E-26
8.62687E-01 1.48160E-26
8.65677E-01 1.43914E-26
8.68639E-01 1.39764E-26
8.71572E-01 1.35705E-26
8.74478E-01 1.31738E-26
8.77355E-01 1.27859E-26
8.80203E-01 1.24067E-26
8.83022E-01 1.20360E-26
8.85812E-01 1.16736E-26
8.88573E-01 1.13193E-26
8.91304E-01 1.09730E-26
8.94005E-01 1.06346E-26
8.96677E-01 1.03038E-26
8.99318E-01 9.98052E-27
9.01928E-01 9.66459E-27
9.04508E-01 9.35586E-27
9.07058E-01 9.05419E-27
9.09576E-01 8.75944E-27
9.12063E-01 8.47148E-27
9.14519E-01 8.19017E-27
9.16943E-01 7.91540E-27
9.19335E-01 7.64702E-27
9.21696E-01 7.38492E-27
9.24024E-01 7.12899E-27
9.26320E-01 6.87910E-27
9.28584E-01 6.63515E-27
9.30815E-01 6.39702E-27
9.33013E-01 6.16461E-27
9.35178E-01 5.93782E-27
9.37310E-01 5.71654E-27
9.39409E-01 5.50069E-27
9.41474E-01 5.29015E-27
9.43505E-01 5.08484E-27
9.45503E-01 4.88468E-27
9.47467E-01 4.68957E-27
9.49397E-01 4.49943E-27
9.51293E-01 4.31417E-27
9.53154E-01 4.13372E-27
9.54981E-01 3.95800E-27
9.56773E-01 3.78693E-27
9.58530E-01 3.62044E-27
9.60252E-01 3.45846E-27
9.61940E-01 3.30091E-27
9.63592E-01 3.14774E-27
9.65209E-01 2.99888E-27
9.66790E-01 2.85426E-27
9.68336E-01 2.71382E-27
9.69846E-01 2.57750E-27
9.71321E-01 2.44525E-27
9.72759E-01 2.31702E-27
9.74162E-01 2.19274E-27
9.75528E-01 2.07236E-27
9.76858E-01 1.95584E-27
9.78152E-01 1.84312E-27
9.79410E-01 1.73416E-27
9.80631E-01 1.62892E-27
9.81815E-01 1.52735E-27
9.82963E-01 1.42941E-27
9.84074E-01 1.33505E-27
9.85148E-01 1.24424E-27
9.86185E-01 1.15695E-27
9.87185E-01 1.07313E-27
9.88148E-01 9.92753E-28
9.89074E-01 9.15785E-28
9.89962E-01 8.42194E-28
9.90814E-01 7.71951E-28
9.91627E-01 7.05026E-28
9.92404E-01 6.41392E-28
9.93143E-01 5.81024E-28
9.93844E-01 5.23897E-28
9.94508E-01 4.69987E-28
9.95134E-01 4.19273E-28
9.95722E-01 3.71735E-28
9.96273E-01 3.27353E-28
9.96786E-01 2.86109E-28
9.97261E-01 2.47986E-28
9.97698E-01 2.12970E-28
9.98097E-01 1.81045E-28
9.98459E-01 1.52199E-28
9.98782E-01 1.26421E-28
9.99067E-01 1.03700E-28
9.99315E-01 8.40272E-29
9.99524E-01 6.73941E-29
9.99695E-01 5.37944E-29
9.99829E-01 4.32224E-29
9.99924E-01 3.56741E-29
9.99981E-01 3.11463E-29
1.00000E+00 2.96372E-29
