 #
 # Subroutine ELSEPA. Elastic scattering of electrons and positrons
 #                    by neutral atoms and positive ions
 #
 # Projectile: electron
 # Kinetic energy = 1.50000E+07 eV = 5.51240E+05 a.u.
 #
 # WARNING: High-energy factorization with free-atom DF screening.
 #          Absorption, polarization and exchange corrections are
 #          switched off.
 #          Phase shifts are calculated for the bare nucleus.
 #          Scattering amplitudes are not evaluated.
 #
 # Element: Cs,  Z =  55,  atomic weight = 1.32905E+02 g/mol
 #
 # Nuclear model: Fermi distribution
 #                Average radius = 5.46049E-13 cm
 #                Skin thickness = 5.46000E-14 cm
 #
 # Number of electrons = 55
 #
 # Total elastic cross section = 6.63219E-18 cm**2 = 2.36840E-01 a0**2
 # 1st transport cross section = 2.31083E-23 cm**2 = 8.25213E-07 a0**2
 # 2nd transport cross section = 6.53844E-23 cm**2 = 2.33492E-06 a0**2
 #
 #
 # Differential cross section:                       MU=(1-COS(THETA))/2
 #
 #  THETA        MU          DCS          DCS        Sherman      error
 #  (deg)                 (cm**2/sr)   (a0**2/sr)    function
 #----------------------------------------------------------------------
0.00000E+00 2.43610E-11
7.61557E-13 2.43567E-11
1.18994E-12 2.43543E-11
1.71346E-12 2.43514E-11
2.33225E-12 2.43479E-11
3.04617E-12 2.43439E-11
3.85530E-12 2.43394E-11
4.75964E-12 2.43344E-11
5.75917E-12 2.43288E-11
6.85391E-12 2.43227E-11
8.04379E-12 2.43161E-11
9.32893E-12 2.43090E-11
1.07092E-11 2.43013E-11
1.21847E-11 2.42931E-11
1.37554E-11 2.42844E-11
1.54213E-11 2.42752E-11
1.71823E-11 2.42654E-11
1.90386E-11 2.42551E-11
2.09900E-11 2.42443E-11
2.30367E-11 2.42330E-11
2.51785E-11 2.42212E-11
2.74156E-11 2.42089E-11
2.97478E-11 2.41960E-11
3.21752E-11 2.41827E-11
3.46979E-11 2.41688E-11
3.73157E-11 2.41544E-11
4.00286E-11 2.41395E-11
4.28368E-11 2.41241E-11
4.57402E-11 2.41082E-11
4.87388E-11 2.40918E-11
5.18325E-11 2.40749E-11
5.50215E-11 2.40575E-11
5.83057E-11 2.40396E-11
6.16850E-11 2.40213E-11
6.51595E-11 2.40024E-11
6.87293E-11 2.39830E-11
7.23943E-11 2.39632E-11
7.61544E-11 2.39428E-11
1.18991E-10 2.37133E-11
1.71347E-10 2.34382E-11
2.33223E-10 2.31203E-11
3.04617E-10 2.27632E-11
3.85531E-10 2.23705E-11
4.75965E-10 2.19459E-11
5.75917E-10 2.14935E-11
6.85389E-10 2.10176E-11
8.04380E-10 2.05221E-11
9.32891E-10 2.00111E-11
1.07092E-09 1.95002E-11
1.21847E-09 1.89743E-11
1.37554E-09 1.84330E-11
1.54213E-09 1.78912E-11
1.71823E-09 1.73680E-11
1.90386E-09 1.68368E-11
2.09900E-09 1.62998E-11
2.30367E-09 1.57923E-11
2.51785E-09 1.52929E-11
2.74156E-09 1.47928E-11
2.97478E-09 1.43030E-11
3.21752E-09 1.38478E-11
3.46978E-09 1.33953E-11
3.73156E-09 1.29466E-11
4.00286E-09 1.25283E-11
4.28368E-09 1.21267E-11
4.57402E-09 1.17305E-11
4.87388E-09 1.13450E-11
5.18326E-09 1.09926E-11
5.50215E-09 1.06464E-11
5.83057E-09 1.03067E-11
6.16850E-09 9.98898E-12
6.51596E-09 9.68763E-12
6.87293E-09 9.39281E-12
7.23942E-09 9.10595E-12
7.61544E-09 8.84337E-12
1.18991E-08 6.69125E-12
1.71347E-08 5.21901E-12
2.33223E-08 4.14348E-12
3.04617E-08 3.32173E-12
3.85531E-08 2.68021E-12
4.75965E-08 2.17508E-12
5.75917E-08 1.77625E-12
6.85389E-08 1.46062E-12
8.04380E-08 1.21037E-12
9.32891E-08 1.01121E-12
1.07092E-07 8.46296E-13
1.21847E-07 7.17020E-13
1.37554E-07 6.15417E-13
1.54213E-07 5.31752E-13
1.71823E-07 4.58974E-13
1.90386E-07 4.00148E-13
2.09900E-07 3.52097E-13
2.30367E-07 3.09052E-13
2.51785E-07 2.72484E-13
2.74156E-07 2.42008E-13
2.97478E-07 2.15812E-13
3.21752E-07 1.91818E-13
3.46978E-07 1.71501E-13
3.73156E-07 1.54185E-13
4.00286E-07 1.38407E-13
4.28368E-07 1.24458E-13
4.57402E-07 1.12424E-13
4.87388E-07 1.01886E-13
5.18325E-07 9.21477E-14
5.50215E-07 8.36560E-14
5.83057E-07 7.62197E-14
6.16850E-07 6.94814E-14
6.51596E-07 6.34225E-14
6.87293E-07 5.80683E-14
7.23942E-07 5.33099E-14
7.61543E-07 4.89367E-14
1.18991E-06 2.31085E-14
1.71347E-06 1.25400E-14
2.33223E-06 7.45040E-15
3.04617E-06 4.69286E-15
3.85531E-06 3.08961E-15
4.75964E-06 2.10700E-15
5.75916E-06 1.48117E-15
6.85388E-06 1.07045E-15
8.04378E-06 7.92835E-16
9.32888E-06 5.99863E-16
1.07092E-05 4.62283E-16
1.21846E-05 3.62418E-16
1.37553E-05 2.88346E-16
1.54212E-05 2.32184E-16
1.71822E-05 1.89152E-16
1.90385E-05 1.55648E-16
2.09899E-05 1.29306E-16
2.30365E-05 1.08291E-16
2.51783E-05 9.13721E-17
2.74153E-05 7.76159E-17
2.97475E-05 6.63226E-17
3.21749E-05 5.70130E-17
3.46974E-05 4.92845E-17
3.73152E-05 4.28142E-17
4.00281E-05 3.73731E-17
4.28362E-05 3.27712E-17
4.57395E-05 2.88532E-17
4.87380E-05 2.54993E-17
5.18317E-05 2.26178E-17
5.50205E-05 2.01312E-17
5.83045E-05 1.79741E-17
6.16838E-05 1.60988E-17
6.51582E-05 1.44623E-17
6.87277E-05 1.30284E-17
7.23925E-05 1.17679E-17
7.61524E-05 1.06570E-17
9.21439E-05 7.33147E-18
1.09658E-04 5.20785E-18
1.28695E-04 3.80136E-18
1.49255E-04 2.83950E-18
1.71338E-04 2.16404E-18
1.94942E-04 1.67821E-18
2.20070E-04 1.32158E-18
2.46720E-04 1.05498E-18
2.74892E-04 8.52416E-19
3.04586E-04 6.96293E-19
3.35803E-04 5.74368E-19
3.68542E-04 4.78037E-19
4.02802E-04 4.01105E-19
4.38585E-04 3.39062E-19
4.75889E-04 2.88581E-19
5.14715E-04 2.47165E-19
5.55063E-04 2.12930E-19
5.96931E-04 1.84430E-19
6.40321E-04 1.60550E-19
6.85233E-04 1.40419E-19
7.31665E-04 1.23351E-19
7.79618E-04 1.08803E-19
8.29092E-04 9.63426E-20
8.80086E-04 8.56190E-20
9.32601E-04 7.63497E-20
9.86636E-04 6.83038E-20
1.04219E-03 6.12930E-20
1.09927E-03 5.51612E-20
1.15786E-03 4.97790E-20
1.21797E-03 4.50392E-20
1.27961E-03 4.08518E-20
1.34276E-03 3.71413E-20
1.40743E-03 3.38439E-20
1.47362E-03 3.09056E-20
1.54133E-03 2.82803E-20
1.61056E-03 2.59288E-20
1.68131E-03 2.38175E-20
1.75357E-03 2.19176E-20
1.82735E-03 2.02041E-20
1.90265E-03 1.86554E-20
1.97947E-03 1.72529E-20
2.05780E-03 1.59803E-20
2.13765E-03 1.48233E-20
2.21902E-03 1.37696E-20
2.30190E-03 1.28083E-20
2.38630E-03 1.19299E-20
2.47222E-03 1.11258E-20
2.55965E-03 1.03886E-20
2.64859E-03 9.71182E-21
2.73905E-03 9.08950E-21
2.83103E-03 8.51651E-21
2.92452E-03 7.98819E-21
3.01952E-03 7.50043E-21
3.11604E-03 7.04953E-21
3.21407E-03 6.63221E-21
3.31362E-03 6.24548E-21
3.41468E-03 5.88671E-21
3.51725E-03 5.55347E-21
3.62133E-03 5.24363E-21
3.72692E-03 4.95523E-21
3.83403E-03 4.68652E-21
3.94265E-03 4.43589E-21
4.05278E-03 4.20190E-21
4.16442E-03 3.98324E-21
4.27757E-03 3.77871E-21
4.39223E-03 3.58724E-21
4.50840E-03 3.40782E-21
4.62608E-03 3.23956E-21
4.74527E-03 3.08163E-21
4.86597E-03 2.93328E-21
4.98817E-03 2.79382E-21
5.11188E-03 2.66260E-21
5.23711E-03 2.53907E-21
5.36383E-03 2.42266E-21
5.49207E-03 2.31291E-21
5.62181E-03 2.20935E-21
5.75306E-03 2.11157E-21
5.88581E-03 2.01918E-21
6.02007E-03 1.93183E-21
6.15583E-03 1.84920E-21
6.29310E-03 1.77097E-21
6.43187E-03 1.69687E-21
6.57214E-03 1.62664E-21
6.71392E-03 1.56004E-21
6.85720E-03 1.49684E-21
7.00198E-03 1.43684E-21
7.14827E-03 1.37985E-21
7.29605E-03 1.32567E-21
7.44534E-03 1.27416E-21
7.59612E-03 1.22515E-21
7.97965E-03 1.11263E-21
8.37255E-03 1.01285E-21
8.77480E-03 9.24116E-22
9.18641E-03 8.44981E-22
9.60736E-03 7.74219E-22
1.00376E-02 7.10784E-22
1.04773E-02 6.53781E-22
1.09262E-02 6.02439E-22
1.13844E-02 5.56092E-22
1.18520E-02 5.14166E-22
1.23288E-02 4.76160E-22
1.28150E-02 4.41641E-22
1.33104E-02 4.10230E-22
1.38150E-02 3.81595E-22
1.43290E-02 3.55444E-22
1.48521E-02 3.31522E-22
1.53845E-02 3.09604E-22
1.59262E-02 2.89490E-22
1.64770E-02 2.71004E-22
1.70371E-02 2.53987E-22
1.76063E-02 2.38303E-22
1.81848E-02 2.23827E-22
1.87724E-02 2.10448E-22
1.93692E-02 1.98067E-22
1.99751E-02 1.86595E-22
2.05901E-02 1.75953E-22
2.12143E-02 1.66070E-22
2.18476E-02 1.56880E-22
2.24900E-02 1.48326E-22
2.31415E-02 1.40355E-22
2.38021E-02 1.32920E-22
2.44717E-02 1.25978E-22
2.51504E-02 1.19490E-22
2.58382E-02 1.13420E-22
2.65349E-02 1.07736E-22
2.72407E-02 1.02409E-22
2.79555E-02 9.74116E-23
2.86793E-02 9.27200E-23
2.94120E-02 8.83115E-23
3.01537E-02 8.41659E-23
3.09043E-02 8.02645E-23
3.16639E-02 7.65897E-23
3.24324E-02 7.31259E-23
3.32098E-02 6.98586E-23
3.39961E-02 6.67746E-23
3.47912E-02 6.38615E-23
3.55952E-02 6.11077E-23
3.64081E-02 5.85030E-23
3.72297E-02 5.60377E-23
3.80602E-02 5.37030E-23
3.88995E-02 5.14903E-23
3.97476E-02 4.93920E-23
4.06044E-02 4.74012E-23
4.14700E-02 4.55113E-23
4.23443E-02 4.37160E-23
4.32273E-02 4.20093E-23
4.41190E-02 4.03868E-23
4.50194E-02 3.88429E-23
4.59284E-02 3.73730E-23
4.68461E-02 3.59730E-23
4.87074E-02 3.33672E-23
5.06030E-02 3.09962E-23
5.25328E-02 2.88350E-23
5.44967E-02 2.68614E-23
5.64946E-02 2.50560E-23
5.85262E-02 2.34017E-23
6.05914E-02 2.18835E-23
6.26901E-02 2.04879E-23
6.48222E-02 1.92032E-23
6.69873E-02 1.80188E-23
6.91854E-02 1.69254E-23
7.14163E-02 1.59147E-23
7.36799E-02 1.49791E-23
7.59760E-02 1.41120E-23
7.83043E-02 1.33073E-23
8.06647E-02 1.25598E-23
8.30571E-02 1.18646E-23
8.54812E-02 1.12172E-23
8.79369E-02 1.06138E-23
9.04240E-02 1.00507E-23
9.29422E-02 9.52475E-24
9.54915E-02 9.03298E-24
9.80716E-02 8.57276E-24
1.00682E-01 8.14166E-24
1.03323E-01 7.73747E-24
1.05995E-01 7.35818E-24
1.08696E-01 7.00195E-24
1.11427E-01 6.66711E-24
1.14188E-01 6.35212E-24
1.16978E-01 6.05555E-24
1.19797E-01 5.77614E-24
1.22645E-01 5.51267E-24
1.25522E-01 5.26407E-24
1.28428E-01 5.02933E-24
1.31361E-01 4.80753E-24
1.34323E-01 4.59780E-24
1.37313E-01 4.39936E-24
1.40330E-01 4.21149E-24
1.43375E-01 4.03350E-24
1.46447E-01 3.86478E-24
1.49545E-01 3.70474E-24
1.52671E-01 3.55286E-24
1.55823E-01 3.40863E-24
1.59001E-01 3.27160E-24
1.62205E-01 3.14132E-24
1.65435E-01 3.01741E-24
1.68690E-01 2.89949E-24
1.71970E-01 2.78721E-24
1.75276E-01 2.68026E-24
1.78606E-01 2.57832E-24
1.81961E-01 2.48112E-24
1.85340E-01 2.38839E-24
1.88743E-01 2.29989E-24
1.92169E-01 2.21539E-24
1.95619E-01 2.13467E-24
1.99092E-01 2.05752E-24
2.02589E-01 1.98377E-24
2.06107E-01 1.91322E-24
2.09649E-01 1.84572E-24
2.13212E-01 1.78111E-24
2.16797E-01 1.71923E-24
2.20404E-01 1.65996E-24
2.24032E-01 1.60315E-24
2.27680E-01 1.54869E-24
2.31350E-01 1.49647E-24
2.35040E-01 1.44637E-24
2.38751E-01 1.39828E-24
2.42481E-01 1.35212E-24
2.46231E-01 1.30779E-24
2.50000E-01 1.26520E-24
2.53788E-01 1.22428E-24
2.57595E-01 1.18494E-24
2.61421E-01 1.14711E-24
2.65264E-01 1.11073E-24
2.69126E-01 1.07572E-24
2.73005E-01 1.04203E-24
2.76901E-01 1.00959E-24
2.80814E-01 9.78360E-25
2.84744E-01 9.48273E-25
2.88691E-01 9.19284E-25
2.92653E-01 8.91346E-25
2.96632E-01 8.64412E-25
3.00625E-01 8.38441E-25
3.04634E-01 8.13390E-25
3.08658E-01 7.89223E-25
3.12697E-01 7.65901E-25
3.16749E-01 7.43389E-25
3.20816E-01 7.21655E-25
3.24896E-01 7.00666E-25
3.28990E-01 6.80392E-25
3.33097E-01 6.60805E-25
3.37216E-01 6.41876E-25
3.41348E-01 6.23580E-25
3.45492E-01 6.05892E-25
3.49647E-01 5.88787E-25
3.53814E-01 5.72243E-25
3.57992E-01 5.56239E-25
3.62181E-01 5.40753E-25
3.66381E-01 5.25766E-25
3.70590E-01 5.11258E-25
3.74810E-01 4.97212E-25
3.79039E-01 4.83611E-25
3.83277E-01 4.70437E-25
3.87524E-01 4.57676E-25
3.91780E-01 4.45311E-25
3.96044E-01 4.33328E-25
4.00316E-01 4.21714E-25
4.04596E-01 4.10455E-25
4.08882E-01 3.99538E-25
4.13176E-01 3.88951E-25
4.17476E-01 3.78683E-25
4.21783E-01 3.68722E-25
4.26095E-01 3.59057E-25
4.30413E-01 3.49678E-25
4.34737E-01 3.40575E-25
4.39065E-01 3.31739E-25
4.43398E-01 3.23161E-25
4.47736E-01 3.14831E-25
4.52077E-01 3.06742E-25
4.56422E-01 2.98884E-25
4.60770E-01 2.91251E-25
4.65122E-01 2.83836E-25
4.69476E-01 2.76629E-25
4.73832E-01 2.69626E-25
4.78190E-01 2.62819E-25
4.82550E-01 2.56201E-25
4.86912E-01 2.49767E-25
4.91274E-01 2.43511E-25
4.95637E-01 2.37427E-25
5.00000E-01 2.31509E-25
5.04363E-01 2.25753E-25
5.08726E-01 2.20152E-25
5.13088E-01 2.14703E-25
5.17450E-01 2.09401E-25
5.21810E-01 2.04240E-25
5.26168E-01 1.99217E-25
5.30524E-01 1.94327E-25
5.34878E-01 1.89566E-25
5.39230E-01 1.84930E-25
5.43578E-01 1.80416E-25
5.47923E-01 1.76020E-25
5.52264E-01 1.71738E-25
5.56602E-01 1.67566E-25
5.60935E-01 1.63502E-25
5.65263E-01 1.59543E-25
5.69587E-01 1.55685E-25
5.73905E-01 1.51925E-25
5.78217E-01 1.48260E-25
5.82524E-01 1.44688E-25
5.86824E-01 1.41206E-25
5.91118E-01 1.37812E-25
5.95404E-01 1.34502E-25
5.99684E-01 1.31274E-25
6.03956E-01 1.28127E-25
6.08220E-01 1.25057E-25
6.12476E-01 1.22063E-25
6.16723E-01 1.19143E-25
6.20961E-01 1.16294E-25
6.25190E-01 1.13514E-25
6.29410E-01 1.10802E-25
6.33619E-01 1.08156E-25
6.37819E-01 1.05573E-25
6.42008E-01 1.03053E-25
6.46186E-01 1.00593E-25
6.50353E-01 9.81915E-26
6.54508E-01 9.58474E-26
6.58652E-01 9.35590E-26
6.62784E-01 9.13247E-26
6.66903E-01 8.91432E-26
6.71010E-01 8.70130E-26
6.75104E-01 8.49327E-26
6.79184E-01 8.29012E-26
6.83251E-01 8.09169E-26
6.87303E-01 7.89789E-26
6.91342E-01 7.70857E-26
6.95366E-01 7.52364E-26
6.99375E-01 7.34297E-26
7.03368E-01 7.16645E-26
7.07347E-01 6.99399E-26
7.11309E-01 6.82547E-26
7.15256E-01 6.66079E-26
7.19186E-01 6.49987E-26
7.23099E-01 6.34260E-26
7.26995E-01 6.18889E-26
7.30874E-01 6.03866E-26
7.34736E-01 5.89181E-26
7.38579E-01 5.74827E-26
7.42405E-01 5.60795E-26
7.46212E-01 5.47077E-26
7.50000E-01 5.33667E-26
7.53769E-01 5.20555E-26
7.57519E-01 5.07735E-26
7.61249E-01 4.95200E-26
7.64960E-01 4.82943E-26
7.68650E-01 4.70958E-26
7.72320E-01 4.59237E-26
7.75968E-01 4.47776E-26
7.79596E-01 4.36566E-26
7.83203E-01 4.25603E-26
7.86788E-01 4.14881E-26
7.90351E-01 4.04395E-26
7.93893E-01 3.94138E-26
7.97411E-01 3.84105E-26
8.00908E-01 3.74291E-26
8.04381E-01 3.64692E-26
8.07831E-01 3.55302E-26
8.11257E-01 3.46116E-26
8.14660E-01 3.37130E-26
8.18039E-01 3.28340E-26
8.21394E-01 3.19741E-26
8.24724E-01 3.11328E-26
8.28030E-01 3.03098E-26
8.31310E-01 2.95047E-26
8.34565E-01 2.87170E-26
8.37795E-01 2.79463E-26
8.40999E-01 2.71924E-26
8.44177E-01 2.64548E-26
8.47329E-01 2.57333E-26
8.50455E-01 2.50273E-26
8.53553E-01 2.43367E-26
8.56625E-01 2.36610E-26
8.59670E-01 2.30000E-26
8.62687E-01 2.23534E-26
8.65677E-01 2.17208E-26
8.68639E-01 2.11020E-26
8.71572E-01 2.04966E-26
8.74478E-01 1.99045E-26
8.77355E-01 1.93253E-26
8.80203E-01 1.87587E-26
8.83022E-01 1.82046E-26
8.85812E-01 1.76626E-26
8.88573E-01 1.71325E-26
8.91304E-01 1.66141E-26
8.94005E-01 1.61071E-26
8.96677E-01 1.56114E-26
8.99318E-01 1.51266E-26
9.01928E-01 1.46527E-26
9.04508E-01 1.41893E-26
9.07058E-01 1.37363E-26
9.09576E-01 1.32935E-26
9.12063E-01 1.28606E-26
9.14519E-01 1.24376E-26
9.16943E-01 1.20242E-26
9.19335E-01 1.16202E-26
9.21696E-01 1.12255E-26
9.24024E-01 1.08400E-26
9.26320E-01 1.04633E-26
9.28584E-01 1.00954E-26
9.30815E-01 9.73619E-27
9.33013E-01 9.38542E-27
9.35178E-01 9.04297E-27
9.37310E-01 8.70872E-27
9.39409E-01 8.38250E-27
9.41474E-01 8.06420E-27
9.43505E-01 7.75368E-27
9.45503E-01 7.45082E-27
9.47467E-01 7.15548E-27
9.49397E-01 6.86754E-27
9.51293E-01 6.58690E-27
9.53154E-01 6.31344E-27
9.54981E-01 6.04704E-27
9.56773E-01 5.78759E-27
9.58530E-01 5.53500E-27
9.60252E-01 5.28916E-27
9.61940E-01 5.04998E-27
9.63592E-01 4.81735E-27
9.65209E-01 4.59118E-27
9.66790E-01 4.37139E-27
9.68336E-01 4.15789E-27
9.69846E-01 3.95059E-27
9.71321E-01 3.74941E-27
9.72759E-01 3.55427E-27
9.74162E-01 3.36509E-27
9.75528E-01 3.18181E-27
9.76858E-01 3.00434E-27
9.78152E-01 2.83262E-27
9.79410E-01 2.66659E-27
9.80631E-01 2.50617E-27
9.81815E-01 2.35131E-27
9.82963E-01 2.20194E-27
9.84074E-01 2.05801E-27
9.85148E-01 1.91946E-27
9.86185E-01 1.78624E-27
9.87185E-01 1.65830E-27
9.88148E-01 1.53558E-27
9.89074E-01 1.41805E-27
9.89962E-01 1.30565E-27
9.90814E-01 1.19834E-27
9.91627E-01 1.09608E-27
9.92404E-01 9.98838E-28
9.93143E-01 9.06568E-28
9.93844E-01 8.19239E-28
9.94508E-01 7.36816E-28
9.95134E-01 6.59269E-28
9.95722E-01 5.86567E-28
9.96273E-01 5.18684E-28
9.96786E-01 4.55593E-28
9.97261E-01 3.97271E-28
9.97698E-01 3.43695E-28
9.98097E-01 2.94846E-28
9.98459E-01 2.50704E-28
9.98782E-01 2.11253E-28
9.99067E-01 1.76479E-28
9.99315E-01 1.46368E-28
9.99524E-01 1.20908E-28
9.99695E-01 1.00091E-28
9.99829E-01 8.39074E-29
9.99924E-01 7.23522E-29
9.99981E-01 6.54209E-29
1.00000E+00 6.31108E-29
