 #
 # Subroutine ELSEPA. Elastic scattering of electrons and positrons
 #                    by neutral atoms and positive ions
 #
 # Projectile: electron
 # Kinetic energy = 7.00000E+06 eV = 2.57245E+05 a.u.
 #
 # WARNING: High-energy factorization with free-atom DF screening.
 #          Absorption, polarization and exchange corrections are
 #          switched off.
 #          Phase shifts are calculated for the bare nucleus.
 #          Scattering amplitudes are not evaluated.
 #
 # Element: Rn,  Z =  86,  atomic weight = 2.22018E+02 g/mol
 #
 # Nuclear model: Fermi distribution
 #                Average radius = 6.47907E-13 cm
 #                Skin thickness = 5.46000E-14 cm
 #
 # Number of electrons = 86
 #
 # Total elastic cross section = 9.64123E-18 cm**2 = 3.44295E-01 a0**2
 # 1st transport cross section = 2.30745E-22 cm**2 = 8.24006E-06 a0**2
 # 2nd transport cross section = 6.19570E-22 cm**2 = 2.21253E-05 a0**2
 #
 #
 # Differential cross section:                       MU=(1-COS(THETA))/2
 #
 #  THETA        MU          DCS          DCS        Sherman      error
 #  (deg)                 (cm**2/sr)   (a0**2/sr)    function
 #----------------------------------------------------------------------
0.00000E+00 3.62601E-12
7.61557E-13 3.62597E-12
1.18994E-12 3.62595E-12
1.71346E-12 3.62593E-12
2.33225E-12 3.62590E-12
3.04617E-12 3.62587E-12
3.85530E-12 3.62583E-12
4.75964E-12 3.62579E-12
5.75917E-12 3.62574E-12
6.85391E-12 3.62569E-12
8.04379E-12 3.62564E-12
9.32893E-12 3.62558E-12
1.07092E-11 3.62551E-12
1.21847E-11 3.62545E-12
1.37554E-11 3.62537E-12
1.54213E-11 3.62530E-12
1.71823E-11 3.62521E-12
1.90386E-11 3.62513E-12
2.09900E-11 3.62504E-12
2.30367E-11 3.62494E-12
2.51785E-11 3.62485E-12
2.74156E-11 3.62474E-12
2.97478E-11 3.62464E-12
3.21752E-11 3.62452E-12
3.46979E-11 3.62441E-12
3.73157E-11 3.62429E-12
4.00286E-11 3.62416E-12
4.28368E-11 3.62403E-12
4.57402E-11 3.62390E-12
4.87388E-11 3.62376E-12
5.18325E-11 3.62362E-12
5.50215E-11 3.62347E-12
5.83057E-11 3.62332E-12
6.16850E-11 3.62316E-12
6.51595E-11 3.62300E-12
6.87293E-11 3.62284E-12
7.23943E-11 3.62267E-12
7.61544E-11 3.62250E-12
1.18991E-10 3.62053E-12
1.71347E-10 3.61813E-12
2.33223E-10 3.61529E-12
3.04617E-10 3.61202E-12
3.85531E-10 3.60832E-12
4.75965E-10 3.60419E-12
5.75917E-10 3.59963E-12
6.85389E-10 3.59466E-12
8.04380E-10 3.58926E-12
9.32891E-10 3.58344E-12
1.07092E-09 3.57721E-12
1.21847E-09 3.57057E-12
1.37554E-09 3.56352E-12
1.54213E-09 3.55607E-12
1.71823E-09 3.54821E-12
1.90386E-09 3.53996E-12
2.09900E-09 3.53133E-12
2.30367E-09 3.52230E-12
2.51785E-09 3.51289E-12
2.74156E-09 3.50311E-12
2.97478E-09 3.49295E-12
3.21752E-09 3.48243E-12
3.46978E-09 3.47154E-12
3.73156E-09 3.46030E-12
4.00286E-09 3.44871E-12
4.28368E-09 3.43663E-12
4.57402E-09 3.42419E-12
4.87388E-09 3.41148E-12
5.18326E-09 3.39852E-12
5.50215E-09 3.38530E-12
5.83057E-09 3.37184E-12
6.16850E-09 3.35816E-12
6.51596E-09 3.34403E-12
6.87293E-09 3.32932E-12
7.23942E-09 3.31441E-12
7.61544E-09 3.29931E-12
1.18991E-08 3.13553E-12
1.71347E-08 2.95151E-12
2.33223E-08 2.75457E-12
3.04617E-08 2.55284E-12
3.85531E-08 2.34966E-12
4.75965E-08 2.15168E-12
5.75917E-08 1.96280E-12
6.85389E-08 1.78327E-12
8.04380E-08 1.61705E-12
9.32891E-08 1.46406E-12
1.07092E-07 1.32394E-12
1.21847E-07 1.19741E-12
1.37554E-07 1.08307E-12
1.54213E-07 9.80346E-13
1.71823E-07 8.88620E-13
1.90386E-07 8.06325E-13
2.09900E-07 7.32971E-13
2.30367E-07 6.67593E-13
2.51785E-07 6.09042E-13
2.74156E-07 5.56845E-13
2.97478E-07 5.10150E-13
3.21752E-07 4.68271E-13
3.46978E-07 4.30758E-13
3.73156E-07 3.96988E-13
4.00286E-07 3.66568E-13
4.28368E-07 3.37915E-13
4.57402E-07 3.11999E-13
4.87388E-07 2.89026E-13
5.18325E-07 2.68592E-13
5.50215E-07 2.50358E-13
5.83057E-07 2.34036E-13
6.16850E-07 2.19383E-13
6.51596E-07 2.05409E-13
6.87293E-07 1.91664E-13
7.23942E-07 1.79280E-13
7.61543E-07 1.68093E-13
1.18991E-06 9.41113E-14
1.71347E-06 5.65384E-14
2.33223E-06 3.59838E-14
3.04617E-06 2.41191E-14
3.85531E-06 1.67880E-14
4.75964E-06 1.20698E-14
5.75916E-06 8.90574E-15
6.85388E-06 6.69369E-15
8.04378E-06 5.12371E-15
9.32888E-06 3.98300E-15
1.07092E-05 3.13883E-15
1.21846E-05 2.50453E-15
1.37553E-05 2.02368E-15
1.54212E-05 1.65432E-15
1.71822E-05 1.36674E-15
1.90385E-05 1.13845E-15
2.09899E-05 9.57594E-16
2.30365E-05 8.11414E-16
2.51783E-05 6.91988E-16
2.74153E-05 5.93865E-16
2.97475E-05 5.12602E-16
3.21749E-05 4.44818E-16
3.46974E-05 3.87985E-16
3.73152E-05 3.39980E-16
4.00281E-05 2.99225E-16
4.28362E-05 2.64268E-16
4.57395E-05 2.34380E-16
4.87380E-05 2.08782E-16
5.18317E-05 1.86407E-16
5.50205E-05 1.66986E-16
5.83045E-05 1.50137E-16
6.16838E-05 1.35249E-16
6.51582E-05 1.22206E-16
6.87277E-05 1.10769E-16
7.23925E-05 1.00563E-16
7.61524E-05 9.15364E-17
9.21439E-05 6.42007E-17
1.09658E-04 4.63255E-17
1.28695E-04 3.42698E-17
1.49255E-04 2.58875E-17
1.71338E-04 1.99115E-17
1.94942E-04 1.55656E-17
2.20070E-04 1.23422E-17
2.46720E-04 9.91213E-18
2.74892E-04 8.05343E-18
3.04586E-04 6.61093E-18
3.35803E-04 5.47849E-18
3.68542E-04 4.57926E-18
4.02802E-04 3.85741E-18
4.38585E-04 3.27288E-18
4.75889E-04 2.79520E-18
5.14715E-04 2.40171E-18
5.55063E-04 2.07525E-18
5.96931E-04 1.80245E-18
6.40321E-04 1.57310E-18
6.85233E-04 1.37915E-18
7.31665E-04 1.21417E-18
7.79618E-04 1.07317E-18
8.29092E-04 9.52072E-19
8.80086E-04 8.47572E-19
9.32601E-04 7.57043E-19
9.86636E-04 6.78290E-19
1.04219E-03 6.09516E-19
1.09927E-03 5.49257E-19
1.15786E-03 4.96263E-19
1.21797E-03 4.49518E-19
1.27961E-03 4.08159E-19
1.34276E-03 3.71450E-19
1.40743E-03 3.38787E-19
1.47362E-03 3.09643E-19
1.54133E-03 2.83571E-19
1.61056E-03 2.60193E-19
1.68131E-03 2.39181E-19
1.75357E-03 2.20253E-19
1.82735E-03 2.03167E-19
1.90265E-03 1.87710E-19
1.97947E-03 1.73701E-19
2.05780E-03 1.60979E-19
2.13765E-03 1.49405E-19
2.21902E-03 1.38856E-19
2.30190E-03 1.29226E-19
2.38630E-03 1.20420E-19
2.47222E-03 1.12354E-19
2.55965E-03 1.04956E-19
2.64859E-03 9.81593E-20
2.73905E-03 9.19070E-20
2.83103E-03 8.61468E-20
2.92452E-03 8.08334E-20
3.01952E-03 7.59256E-20
3.11604E-03 7.13866E-20
3.21407E-03 6.71837E-20
3.31362E-03 6.32874E-20
3.41468E-03 5.96712E-20
3.51725E-03 5.63112E-20
3.62133E-03 5.31859E-20
3.72692E-03 5.02757E-20
3.83403E-03 4.75634E-20
3.94265E-03 4.50326E-20
4.05278E-03 4.26691E-20
4.16442E-03 4.04595E-20
4.27757E-03 3.83926E-20
4.39223E-03 3.64566E-20
4.50840E-03 3.46423E-20
4.62608E-03 3.29401E-20
4.74527E-03 3.13422E-20
4.86597E-03 2.98407E-20
4.98817E-03 2.84288E-20
5.11188E-03 2.71002E-20
5.23711E-03 2.58489E-20
5.36383E-03 2.46697E-20
5.49207E-03 2.35574E-20
5.62181E-03 2.25079E-20
5.75306E-03 2.15166E-20
5.88581E-03 2.05798E-20
6.02007E-03 1.96939E-20
6.15583E-03 1.88557E-20
6.29310E-03 1.80621E-20
6.43187E-03 1.73102E-20
6.57214E-03 1.65974E-20
6.71392E-03 1.59213E-20
6.85720E-03 1.52797E-20
7.00198E-03 1.46704E-20
7.14827E-03 1.40916E-20
7.29605E-03 1.35413E-20
7.44534E-03 1.30179E-20
7.59612E-03 1.25199E-20
7.97965E-03 1.13764E-20
8.37255E-03 1.03620E-20
8.77480E-03 9.45956E-21
9.18641E-03 8.65451E-21
9.60736E-03 7.93442E-21
1.00376E-02 7.28875E-21
1.04773E-02 6.70838E-21
1.09262E-02 6.18550E-21
1.13844E-02 5.71340E-21
1.18520E-02 5.28621E-21
1.23288E-02 4.89890E-21
1.28150E-02 4.54703E-21
1.33104E-02 4.22676E-21
1.38150E-02 3.93475E-21
1.43290E-02 3.66800E-21
1.48521E-02 3.42394E-21
1.53845E-02 3.20027E-21
1.59262E-02 2.99496E-21
1.64770E-02 2.80622E-21
1.70371E-02 2.63246E-21
1.76063E-02 2.47226E-21
1.81848E-02 2.32436E-21
1.87724E-02 2.18763E-21
1.93692E-02 2.06107E-21
1.99751E-02 1.94378E-21
2.05901E-02 1.83493E-21
2.12143E-02 1.73382E-21
2.18476E-02 1.63977E-21
2.24900E-02 1.55221E-21
2.31415E-02 1.47058E-21
2.38021E-02 1.39442E-21
2.44717E-02 1.32329E-21
2.51504E-02 1.25677E-21
2.58382E-02 1.19453E-21
2.65349E-02 1.13622E-21
2.72407E-02 1.08155E-21
2.79555E-02 1.03024E-21
2.86793E-02 9.82051E-22
2.94120E-02 9.36751E-22
3.01537E-02 8.94131E-22
3.09043E-02 8.53999E-22
3.16639E-02 8.16183E-22
3.24324E-02 7.80520E-22
3.32098E-02 7.46862E-22
3.39961E-02 7.15073E-22
3.47912E-02 6.85030E-22
3.55952E-02 6.56614E-22
3.64081E-02 6.29720E-22
3.72297E-02 6.04250E-22
3.80602E-02 5.80112E-22
3.88995E-02 5.57222E-22
3.97476E-02 5.35502E-22
4.06044E-02 5.14879E-22
4.14700E-02 4.95287E-22
4.23443E-02 4.76662E-22
4.32273E-02 4.58948E-22
4.41190E-02 4.42089E-22
4.50194E-02 4.26035E-22
4.59284E-02 4.10741E-22
4.68461E-02 3.96162E-22
4.87074E-02 3.68990E-22
5.06030E-02 3.44224E-22
5.25328E-02 3.21608E-22
5.44967E-02 3.00917E-22
5.64946E-02 2.81952E-22
5.85262E-02 2.64539E-22
6.05914E-02 2.48524E-22
6.26901E-02 2.33771E-22
6.48222E-02 2.20160E-22
6.69873E-02 2.07582E-22
6.91854E-02 1.95943E-22
7.14163E-02 1.85157E-22
7.36799E-02 1.75148E-22
7.59760E-02 1.65847E-22
7.83043E-02 1.57194E-22
8.06647E-02 1.49133E-22
8.30571E-02 1.41614E-22
8.54812E-02 1.34594E-22
8.79369E-02 1.28031E-22
9.04240E-02 1.21888E-22
9.29422E-02 1.16133E-22
9.54915E-02 1.10736E-22
9.80716E-02 1.05670E-22
1.00682E-01 1.00908E-22
1.03323E-01 9.64292E-23
1.05995E-01 9.22122E-23
1.08696E-01 8.82384E-23
1.11427E-01 8.44904E-23
1.14188E-01 8.09522E-23
1.16978E-01 7.76092E-23
1.19797E-01 7.44482E-23
1.22645E-01 7.14570E-23
1.25522E-01 6.86242E-23
1.28428E-01 6.59393E-23
1.31361E-01 6.33927E-23
1.34323E-01 6.09756E-23
1.37313E-01 5.86800E-23
1.40330E-01 5.64981E-23
1.43375E-01 5.44228E-23
1.46447E-01 5.24478E-23
1.49545E-01 5.05669E-23
1.52671E-01 4.87747E-23
1.55823E-01 4.70659E-23
1.59001E-01 4.54355E-23
1.62205E-01 4.38791E-23
1.65435E-01 4.23925E-23
1.68690E-01 4.09720E-23
1.71970E-01 3.96137E-23
1.75276E-01 3.83141E-23
1.78606E-01 3.70701E-23
1.81961E-01 3.58790E-23
1.85340E-01 3.47378E-23
1.88743E-01 3.36435E-23
1.92169E-01 3.25941E-23
1.95619E-01 3.15873E-23
1.99092E-01 3.06209E-23
2.02589E-01 2.96927E-23
2.06107E-01 2.88008E-23
2.09649E-01 2.79437E-23
2.13212E-01 2.71194E-23
2.16797E-01 2.63265E-23
2.20404E-01 2.55634E-23
2.24032E-01 2.48287E-23
2.27680E-01 2.41211E-23
2.31350E-01 2.34394E-23
2.35040E-01 2.27823E-23
2.38751E-01 2.21487E-23
2.42481E-01 2.15376E-23
2.46231E-01 2.09480E-23
2.50000E-01 2.03789E-23
2.53788E-01 1.98294E-23
2.57595E-01 1.92987E-23
2.61421E-01 1.87859E-23
2.65264E-01 1.82903E-23
2.69126E-01 1.78112E-23
2.73005E-01 1.73479E-23
2.76901E-01 1.68997E-23
2.80814E-01 1.64661E-23
2.84744E-01 1.60463E-23
2.88691E-01 1.56399E-23
2.92653E-01 1.52463E-23
2.96632E-01 1.48650E-23
3.00625E-01 1.44955E-23
3.04634E-01 1.41374E-23
3.08658E-01 1.37903E-23
3.12697E-01 1.34536E-23
3.16749E-01 1.31270E-23
3.20816E-01 1.28102E-23
3.24896E-01 1.25027E-23
3.28990E-01 1.22043E-23
3.33097E-01 1.19145E-23
3.37216E-01 1.16331E-23
3.41348E-01 1.13597E-23
3.45492E-01 1.10942E-23
3.49647E-01 1.08361E-23
3.53814E-01 1.05852E-23
3.57992E-01 1.03413E-23
3.62181E-01 1.01042E-23
3.66381E-01 9.87354E-24
3.70590E-01 9.64917E-24
3.74810E-01 9.43085E-24
3.79039E-01 9.21840E-24
3.83277E-01 9.01161E-24
3.87524E-01 8.81028E-24
3.91780E-01 8.61425E-24
3.96044E-01 8.42334E-24
4.00316E-01 8.23738E-24
4.04596E-01 8.05620E-24
4.08882E-01 7.87967E-24
4.13176E-01 7.70762E-24
4.17476E-01 7.53992E-24
4.21783E-01 7.37643E-24
4.26095E-01 7.21701E-24
4.30413E-01 7.06155E-24
4.34737E-01 6.90992E-24
4.39065E-01 6.76200E-24
4.43398E-01 6.61768E-24
4.47736E-01 6.47686E-24
4.52077E-01 6.33942E-24
4.56422E-01 6.20527E-24
4.60770E-01 6.07431E-24
4.65122E-01 5.94645E-24
4.69476E-01 5.82159E-24
4.73832E-01 5.69967E-24
4.78190E-01 5.58057E-24
4.82550E-01 5.46424E-24
4.86912E-01 5.35060E-24
4.91274E-01 5.23956E-24
4.95637E-01 5.13092E-24
5.00000E-01 5.02472E-24
5.04363E-01 4.92090E-24
5.08726E-01 4.81941E-24
5.13088E-01 4.72017E-24
5.17450E-01 4.62312E-24
5.21810E-01 4.52821E-24
5.26168E-01 4.43538E-24
5.30524E-01 4.34457E-24
5.34878E-01 4.25573E-24
5.39230E-01 4.16881E-24
5.43578E-01 4.08375E-24
5.47923E-01 4.00050E-24
5.52264E-01 3.91903E-24
5.56602E-01 3.83928E-24
5.60935E-01 3.76122E-24
5.65263E-01 3.68478E-24
5.69587E-01 3.60995E-24
5.73905E-01 3.53667E-24
5.78217E-01 3.46490E-24
5.82524E-01 3.39462E-24
5.86824E-01 3.32577E-24
5.91118E-01 3.25833E-24
5.95404E-01 3.19226E-24
5.99684E-01 3.12754E-24
6.03956E-01 3.06411E-24
6.08220E-01 3.00196E-24
6.12476E-01 2.94106E-24
6.16723E-01 2.88137E-24
6.20961E-01 2.82286E-24
6.25190E-01 2.76551E-24
6.29410E-01 2.70929E-24
6.33619E-01 2.65418E-24
6.37819E-01 2.60014E-24
6.42008E-01 2.54716E-24
6.46186E-01 2.49521E-24
6.50353E-01 2.44426E-24
6.54508E-01 2.39429E-24
6.58652E-01 2.34529E-24
6.62784E-01 2.29723E-24
6.66903E-01 2.25008E-24
6.71010E-01 2.20383E-24
6.75104E-01 2.15846E-24
6.79184E-01 2.11395E-24
6.83251E-01 2.07028E-24
6.87303E-01 2.02743E-24
6.91342E-01 1.98539E-24
6.95366E-01 1.94413E-24
6.99375E-01 1.90365E-24
7.03368E-01 1.86391E-24
7.07347E-01 1.82492E-24
7.11309E-01 1.78665E-24
7.15256E-01 1.74908E-24
7.19186E-01 1.71221E-24
7.23099E-01 1.67602E-24
7.26995E-01 1.64049E-24
7.30874E-01 1.60561E-24
7.34736E-01 1.57137E-24
7.38579E-01 1.53775E-24
7.42405E-01 1.50475E-24
7.46212E-01 1.47235E-24
7.50000E-01 1.44054E-24
7.53769E-01 1.40930E-24
7.57519E-01 1.37863E-24
7.61249E-01 1.34851E-24
7.64960E-01 1.31893E-24
7.68650E-01 1.28989E-24
7.72320E-01 1.26138E-24
7.75968E-01 1.23337E-24
7.79596E-01 1.20587E-24
7.83203E-01 1.17886E-24
7.86788E-01 1.15234E-24
7.90351E-01 1.12629E-24
7.93893E-01 1.10071E-24
7.97411E-01 1.07559E-24
8.00908E-01 1.05092E-24
8.04381E-01 1.02669E-24
8.07831E-01 1.00289E-24
8.11257E-01 9.79522E-25
8.14660E-01 9.56570E-25
8.18039E-01 9.34029E-25
8.21394E-01 9.11892E-25
8.24724E-01 8.90151E-25
8.28030E-01 8.68801E-25
8.31310E-01 8.47834E-25
8.34565E-01 8.27243E-25
8.37795E-01 8.07023E-25
8.40999E-01 7.87167E-25
8.44177E-01 7.67669E-25
8.47329E-01 7.48523E-25
8.50455E-01 7.29723E-25
8.53553E-01 7.11263E-25
8.56625E-01 6.93139E-25
8.59670E-01 6.75344E-25
8.62687E-01 6.57873E-25
8.65677E-01 6.40722E-25
8.68639E-01 6.23885E-25
8.71572E-01 6.07357E-25
8.74478E-01 5.91133E-25
8.77355E-01 5.75209E-25
8.80203E-01 5.59581E-25
8.83022E-01 5.44243E-25
8.85812E-01 5.29191E-25
8.88573E-01 5.14422E-25
8.91304E-01 4.99931E-25
8.94005E-01 4.85713E-25
8.96677E-01 4.71765E-25
8.99318E-01 4.58084E-25
9.01928E-01 4.44665E-25
9.04508E-01 4.31504E-25
9.07058E-01 4.18598E-25
9.09576E-01 4.05944E-25
9.12063E-01 3.93538E-25
9.14519E-01 3.81376E-25
9.16943E-01 3.69456E-25
9.19335E-01 3.57775E-25
9.21696E-01 3.46328E-25
9.24024E-01 3.35114E-25
9.26320E-01 3.24128E-25
9.28584E-01 3.13369E-25
9.30815E-01 3.02834E-25
9.33013E-01 2.92519E-25
9.35178E-01 2.82422E-25
9.37310E-01 2.72540E-25
9.39409E-01 2.62872E-25
9.41474E-01 2.53413E-25
9.43505E-01 2.44163E-25
9.45503E-01 2.35118E-25
9.47467E-01 2.26277E-25
9.49397E-01 2.17636E-25
9.51293E-01 2.09195E-25
9.53154E-01 2.00950E-25
9.54981E-01 1.92899E-25
9.56773E-01 1.85042E-25
9.58530E-01 1.77375E-25
9.60252E-01 1.69897E-25
9.61940E-01 1.62606E-25
9.63592E-01 1.55499E-25
9.65209E-01 1.48577E-25
9.66790E-01 1.41836E-25
9.68336E-01 1.35275E-25
9.69846E-01 1.28892E-25
9.71321E-01 1.22687E-25
9.72759E-01 1.16656E-25
9.74162E-01 1.10800E-25
9.75528E-01 1.05116E-25
9.76858E-01 9.96030E-26
9.78152E-01 9.42599E-26
9.79410E-01 8.90854E-26
9.80631E-01 8.40781E-26
9.81815E-01 7.92369E-26
9.82963E-01 7.45606E-26
9.84074E-01 7.00480E-26
9.85148E-01 6.56982E-26
9.86185E-01 6.15101E-26
9.87185E-01 5.74827E-26
9.88148E-01 5.36151E-26
9.89074E-01 4.99063E-26
9.89962E-01 4.63554E-26
9.90814E-01 4.29617E-26
9.91627E-01 3.97243E-26
9.92404E-01 3.66425E-26
9.93143E-01 3.37155E-26
9.93844E-01 3.09427E-26
9.94508E-01 2.83235E-26
9.95134E-01 2.58571E-26
9.95722E-01 2.35430E-26
9.96273E-01 2.13808E-26
9.96786E-01 1.93698E-26
9.97261E-01 1.75097E-26
9.97698E-01 1.58000E-26
9.98097E-01 1.42402E-26
9.98459E-01 1.28301E-26
9.98782E-01 1.15693E-26
9.99067E-01 1.04575E-26
9.99315E-01 9.49448E-27
9.99524E-01 8.67998E-27
9.99695E-01 8.01383E-27
9.99829E-01 7.49587E-27
9.99924E-01 7.12599E-27
9.99981E-01 6.90409E-27
1.00000E+00 6.83013E-27
