 #
 # Subroutine ELSEPA. Elastic scattering of electrons and positrons
 #                    by neutral atoms and positive ions
 #
 # Projectile: electron
 # Kinetic energy = 8.00000E+08 eV = 2.93995E+07 a.u.
 #
 # WARNING: High-energy factorization with free-atom DF screening.
 #          Absorption, polarization and exchange corrections are
 #          switched off.
 #          Phase shifts are calculated for the bare nucleus.
 #          Scattering amplitudes are not evaluated.
 #
 # Element: Rn,  Z =  86,  atomic weight = 2.22018E+02 g/mol
 #
 # Nuclear model: Fermi distribution
 #                Average radius = 6.47907E-13 cm
 #                Skin thickness = 5.46000E-14 cm
 #
 # Number of electrons = 86
 #
 # Total elastic cross section = 9.56909E-18 cm**2 = 3.41719E-01 a0**2
 # 1st transport cross section = 2.14871E-26 cm**2 = 7.67319E-10 a0**2
 # 2nd transport cross section = 6.44516E-26 cm**2 = 2.30161E-09 a0**2
 #
 #
 # Differential cross section:                       MU=(1-COS(THETA))/2
 #
 #  THETA        MU          DCS          DCS        Sherman      error
 #  (deg)                 (cm**2/sr)   (a0**2/sr)    function
 #----------------------------------------------------------------------
0.00000E+00 4.11878E-08
7.61557E-13 3.69955E-08
1.18994E-12 3.49180E-08
1.71346E-12 3.26197E-08
2.33225E-12 3.01937E-08
3.04617E-12 2.77256E-08
3.85530E-12 2.52994E-08
4.75964E-12 2.29534E-08
5.75917E-12 2.07520E-08
6.85391E-12 1.86925E-08
8.04379E-12 1.68163E-08
9.32893E-12 1.51019E-08
1.07092E-11 1.35652E-08
1.21847E-11 1.21851E-08
1.37554E-11 1.09577E-08
1.54213E-11 9.86617E-09
1.71823E-11 8.89847E-09
1.90386E-11 8.04174E-09
2.09900E-11 7.28207E-09
2.30367E-11 6.61006E-09
2.51785E-11 6.01263E-09
2.74156E-11 5.48324E-09
2.97478E-11 5.01065E-09
3.21752E-11 4.59020E-09
3.46979E-11 4.21353E-09
3.73157E-11 3.86417E-09
4.00286E-11 3.54767E-09
4.28368E-11 3.26942E-09
4.57402E-11 3.02386E-09
4.87388E-11 2.80635E-09
5.18325E-11 2.61301E-09
5.50215E-11 2.44057E-09
5.83057E-11 2.26897E-09
6.16850E-11 2.10949E-09
6.51595E-11 1.96664E-09
6.87293E-11 1.83831E-09
7.23943E-11 1.72270E-09
7.61544E-11 1.61827E-09
1.18991E-10 8.90116E-10
1.71347E-10 5.29508E-10
2.33223E-10 3.35339E-10
3.04617E-10 2.23331E-10
3.85531E-10 1.55014E-10
4.75965E-10 1.10854E-10
5.75917E-10 8.13652E-11
6.85389E-10 6.08606E-11
8.04380E-10 4.63984E-11
9.32891E-10 3.59267E-11
1.07092E-09 2.82187E-11
1.21847E-09 2.24825E-11
1.37554E-09 1.81532E-11
1.54213E-09 1.48271E-11
1.71823E-09 1.22340E-11
1.90386E-09 1.01873E-11
2.09900E-09 8.55362E-12
2.30367E-09 7.23855E-12
2.51785E-09 6.16838E-12
2.74156E-09 5.29100E-12
2.97478E-09 4.56386E-12
3.21752E-09 3.95811E-12
3.46978E-09 3.44928E-12
3.73156E-09 3.01824E-12
4.00286E-09 2.65341E-12
4.28368E-09 2.34454E-12
4.57402E-09 2.07717E-12
4.87388E-09 1.84770E-12
5.18326E-09 1.65012E-12
5.50215E-09 1.47681E-12
5.83057E-09 1.32656E-12
6.16850E-09 1.19507E-12
6.51596E-09 1.07904E-12
6.87293E-09 9.77293E-13
7.23942E-09 8.87012E-13
7.61544E-09 8.06891E-13
1.18991E-08 3.48384E-13
1.71347E-08 1.73800E-13
2.33223E-08 9.60681E-14
3.04617E-08 5.73590E-14
3.85531E-08 3.63451E-14
4.75965E-08 2.41381E-14
5.75917E-08 1.66525E-14
6.85389E-08 1.18546E-14
8.04380E-08 8.66506E-15
9.32891E-08 6.47854E-15
1.07092E-07 4.93938E-15
1.21847E-07 3.83093E-15
1.37554E-07 3.01647E-15
1.54213E-07 2.40726E-15
1.71823E-07 1.94432E-15
1.90386E-07 1.58749E-15
2.09900E-07 1.30889E-15
2.30367E-07 1.08881E-15
2.51785E-07 9.13120E-16
2.74156E-07 7.71484E-16
2.97478E-07 6.56285E-16
3.21752E-07 5.61814E-16
3.46978E-07 4.83751E-16
3.73156E-07 4.18791E-16
4.00286E-07 3.64381E-16
4.28368E-07 3.18531E-16
4.57402E-07 2.79672E-16
4.87388E-07 2.46564E-16
5.18325E-07 2.18214E-16
5.50215E-07 1.93824E-16
5.83057E-07 1.72750E-16
6.16850E-07 1.54463E-16
6.51596E-07 1.38534E-16
6.87293E-07 1.24606E-16
7.23942E-07 1.12385E-16
7.61543E-07 1.01627E-16
1.18991E-06 4.18335E-17
1.71347E-06 2.02387E-17
2.33223E-06 1.09479E-17
3.04617E-06 6.42741E-18
3.85531E-06 4.01723E-18
4.75964E-06 2.63806E-18
5.75916E-06 1.80313E-18
6.85388E-06 1.27388E-18
8.04378E-06 9.25334E-19
9.32888E-06 6.88254E-19
1.07092E-05 5.22473E-19
1.21846E-05 4.03739E-19
1.37553E-05 3.16902E-19
1.54212E-05 2.52208E-19
1.71822E-05 2.03215E-19
1.90385E-05 1.65456E-19
2.09899E-05 1.36263E-19
2.30365E-05 1.13212E-19
2.51783E-05 9.48050E-20
2.74153E-05 7.99683E-20
2.97475E-05 6.79134E-20
3.21749E-05 5.80473E-20
3.46974E-05 4.99158E-20
3.73152E-05 4.31671E-20
4.00281E-05 3.75274E-20
4.28362E-05 3.27840E-20
4.57395E-05 2.87641E-20
4.87380E-05 2.53402E-20
5.18317E-05 2.24095E-20
5.50205E-05 1.98897E-20
5.83045E-05 1.77140E-20
6.16838E-05 1.58282E-20
6.51582E-05 1.41874E-20
6.87277E-05 1.27544E-20
7.23925E-05 1.14982E-20
7.61524E-05 1.07025E-20
9.21439E-05 7.32600E-21
1.09658E-04 5.17806E-21
1.28695E-04 3.75907E-21
1.49255E-04 2.79092E-21
1.71338E-04 2.11224E-21
1.94942E-04 1.62518E-21
2.20070E-04 1.26845E-21
2.46720E-04 1.00248E-21
2.74892E-04 8.01043E-22
3.04586E-04 6.46333E-22
3.35803E-04 5.26038E-22
3.68542E-04 4.31446E-22
4.02802E-04 3.56320E-22
4.38585E-04 2.96113E-22
4.75889E-04 2.47462E-22
5.14715E-04 2.07858E-22
5.55063E-04 1.75397E-22
5.96931E-04 1.48625E-22
6.40321E-04 1.26420E-22
6.85233E-04 1.07906E-22
7.31665E-04 9.23956E-23
7.79618E-04 7.93433E-23
8.29092E-04 6.83157E-23
8.80086E-04 5.89631E-23
9.32601E-04 5.10037E-23
9.86636E-04 4.42084E-23
1.04219E-03 3.83894E-23
1.09927E-03 3.33930E-23
1.15786E-03 2.90920E-23
1.21797E-03 2.53809E-23
1.27961E-03 2.21718E-23
1.34276E-03 1.93913E-23
1.40743E-03 1.69777E-23
1.47362E-03 1.48789E-23
1.54133E-03 1.30511E-23
1.61056E-03 1.14569E-23
1.68131E-03 1.00646E-23
1.75357E-03 8.84724E-24
1.82735E-03 7.78154E-24
1.90265E-03 6.84772E-24
1.97947E-03 6.02866E-24
2.05780E-03 5.30969E-24
2.13765E-03 4.67808E-24
2.21902E-03 4.12285E-24
2.30190E-03 3.63448E-24
2.38630E-03 3.20467E-24
2.47222E-03 2.82624E-24
2.55965E-03 2.49291E-24
2.64859E-03 2.19921E-24
2.73905E-03 1.94035E-24
2.83103E-03 1.71215E-24
2.92452E-03 1.51094E-24
3.01952E-03 1.33351E-24
3.11604E-03 1.17704E-24
3.21407E-03 1.03904E-24
3.31362E-03 9.17333E-25
3.41468E-03 8.10002E-25
3.51725E-03 7.15352E-25
3.62133E-03 6.31894E-25
3.72692E-03 5.58313E-25
3.83403E-03 4.93450E-25
3.94265E-03 4.36280E-25
4.05278E-03 3.85898E-25
4.16442E-03 3.41507E-25
4.27757E-03 3.02401E-25
4.39223E-03 2.67955E-25
4.50840E-03 2.37619E-25
4.62608E-03 2.10906E-25
4.74527E-03 1.87385E-25
4.86597E-03 1.66676E-25
4.98817E-03 1.48442E-25
5.11188E-03 1.32387E-25
5.23711E-03 1.18247E-25
5.36383E-03 1.05793E-25
5.49207E-03 9.48186E-26
5.62181E-03 8.51445E-26
5.75306E-03 7.66114E-26
5.88581E-03 6.90795E-26
6.02007E-03 6.24253E-26
6.15583E-03 5.65404E-26
6.29310E-03 5.13293E-26
6.43187E-03 4.67083E-26
6.57214E-03 4.26038E-26
6.71392E-03 3.89511E-26
6.85720E-03 3.56939E-26
7.00198E-03 3.27825E-26
7.14827E-03 3.01738E-26
7.29605E-03 2.78300E-26
7.44534E-03 2.57180E-26
7.59612E-03 2.38093E-26
7.97965E-03 1.97705E-26
8.37255E-03 1.65456E-26
8.77480E-03 1.39185E-26
9.18641E-03 1.17390E-26
9.60736E-03 9.90326E-27
1.00376E-02 8.33936E-27
1.04773E-02 6.99722E-27
1.09262E-02 5.84132E-27
1.13844E-02 4.84567E-27
1.18520E-02 3.99040E-27
1.23288E-02 3.25944E-27
1.28150E-02 2.63910E-27
1.33104E-02 2.11717E-27
1.38150E-02 1.68240E-27
1.43290E-02 1.32425E-27
1.48521E-02 1.03282E-27
1.53845E-02 7.98835E-28
1.59262E-02 6.13658E-28
1.64770E-02 4.69373E-28
1.70371E-02 3.58819E-28
1.76063E-02 2.75615E-28
1.81848E-02 2.14176E-28
1.87724E-02 1.69696E-28
1.93692E-02 1.38114E-28
1.99751E-02 1.16075E-28
2.05901E-02 1.00859E-28
2.12143E-02 9.03200E-29
2.18476E-02 8.28115E-29
2.24900E-02 7.71121E-29
2.31415E-02 7.23554E-29
2.38021E-02 6.79620E-29
2.44717E-02 6.35788E-29
2.51504E-02 5.90241E-29
2.58382E-02 5.42405E-29
2.65349E-02 4.92554E-29
2.72407E-02 4.41487E-29
2.79555E-02 3.90274E-29
2.86793E-02 3.40061E-29
2.94120E-02 2.91937E-29
3.01537E-02 2.46839E-29
3.09043E-02 2.05501E-29
3.16639E-02 1.68431E-29
3.24324E-02 1.35910E-29
3.32098E-02 1.08012E-29
3.39961E-02 8.46294E-30
3.47912E-02 6.55087E-30
3.55952E-02 5.02858E-30
3.64081E-02 3.85224E-30
3.72297E-02 2.97390E-30
3.80602E-02 2.34440E-30
3.88995E-02 1.91575E-30
3.97476E-02 1.64304E-30
4.06044E-02 1.48574E-30
4.14700E-02 1.40861E-30
4.23443E-02 1.38210E-30
4.32273E-02 1.38245E-30
4.41190E-02 1.39141E-30
4.50194E-02 1.39585E-30
4.59284E-02 1.38714E-30
4.68461E-02 1.36045E-30
4.87074E-02 1.24857E-30
5.06030E-02 1.07096E-30
5.25328E-02 8.56746E-31
5.44967E-02 6.38372E-31
5.64946E-02 4.42271E-31
5.85262E-02 2.84690E-31
6.05914E-02 1.71386E-31
6.26901E-02 9.96968E-32
6.48222E-02 6.16399E-32
6.69873E-02 4.70111E-32
6.91854E-02 4.58653E-32
7.14163E-02 5.01084E-32
7.36799E-02 5.42073E-32
7.59760E-02 5.51916E-32
7.83043E-02 5.21963E-32
8.06647E-02 4.57883E-32
8.30571E-02 3.72797E-32
8.54812E-02 2.81558E-32
8.79369E-02 1.96842E-32
9.04240E-02 1.27113E-32
9.29422E-02 7.61726E-33
9.54915E-02 4.38119E-33
9.80716E-02 2.70412E-33
1.00682E-01 2.14635E-33
1.03323E-01 2.24730E-33
1.05995E-01 2.61094E-33
1.08696E-01 2.95195E-33
1.11427E-01 3.10713E-33
1.14188E-01 3.02109E-33
1.16978E-01 2.71758E-33
1.19797E-01 2.26615E-33
1.22645E-01 1.75190E-33
1.25522E-01 1.25270E-33
1.28428E-01 8.25527E-34
1.31361E-01 5.01407E-34
1.34323E-01 2.86994E-34
1.37313E-01 1.70301E-34
1.40330E-01 1.28162E-34
1.43375E-01 1.33464E-34
1.46447E-01 1.60900E-34
1.49545E-01 1.90651E-34
1.52671E-01 2.09970E-34
1.55823E-01 2.13049E-34
1.59001E-01 1.99715E-34
1.62205E-01 1.73566E-34
1.65435E-01 1.40027E-34
1.68690E-01 1.04719E-34
1.71970E-01 7.23112E-35
1.75276E-01 4.59046E-35
1.78606E-01 2.69048E-35
1.81961E-01 1.52349E-35
1.85340E-01 9.75524E-36
1.88743E-01 8.74823E-36
1.92169E-01 1.03629E-35
1.95619E-01 1.29536E-35
1.99092E-01 1.52849E-35
2.02589E-01 1.66078E-35
2.06107E-01 1.66319E-35
2.09649E-01 1.54292E-35
2.13212E-01 1.33067E-35
2.16797E-01 1.06780E-35
2.20404E-01 7.95583E-36
2.24032E-01 5.47741E-36
2.27680E-01 3.46553E-36
2.31350E-01 2.02062E-36
2.35040E-01 1.13621E-36
2.38751E-01 7.28232E-37
2.42481E-01 6.68916E-37
2.46231E-01 8.18593E-37
2.50000E-01 1.05049E-36
2.53788E-01 1.26655E-36
2.57595E-01 1.40426E-36
2.61421E-01 1.43591E-36
2.65264E-01 1.36256E-36
2.69126E-01 1.20520E-36
2.73005E-01 9.95281E-37
2.76901E-01 7.66381E-37
2.80814E-01 5.47904E-37
2.84744E-01 3.61301E-37
2.88691E-01 1.00000E-45
2.92653E-01 1.00000E-45
2.96632E-01 1.00000E-45
3.00625E-01 1.00000E-45
3.04634E-01 1.00000E-45
3.08658E-01 1.00000E-45
3.12697E-01 1.00000E-45
3.16749E-01 1.00000E-45
3.20816E-01 1.00000E-45
3.24896E-01 1.00000E-45
3.28990E-01 1.00000E-45
3.33097E-01 1.00000E-45
3.37216E-01 1.00000E-45
3.41348E-01 1.00000E-45
3.45492E-01 1.00000E-45
3.49647E-01 1.00000E-45
3.53814E-01 1.00000E-45
3.57992E-01 1.00000E-45
3.62181E-01 1.00000E-45
3.66381E-01 1.00000E-45
3.70590E-01 1.00000E-45
3.74810E-01 1.00000E-45
3.79039E-01 1.00000E-45
3.83277E-01 1.00000E-45
3.87524E-01 1.00000E-45
3.91780E-01 1.00000E-45
3.96044E-01 1.00000E-45
4.00316E-01 1.00000E-45
4.04596E-01 1.00000E-45
4.08882E-01 1.00000E-45
4.13176E-01 1.00000E-45
4.17476E-01 1.00000E-45
4.21783E-01 1.00000E-45
4.26095E-01 1.00000E-45
4.30413E-01 1.00000E-45
4.34737E-01 1.00000E-45
4.39065E-01 1.00000E-45
4.43398E-01 1.00000E-45
4.47736E-01 1.00000E-45
4.52077E-01 1.00000E-45
4.56422E-01 1.00000E-45
4.60770E-01 1.00000E-45
4.65122E-01 1.00000E-45
4.69476E-01 1.00000E-45
4.73832E-01 1.00000E-45
4.78190E-01 1.00000E-45
4.82550E-01 1.00000E-45
4.86912E-01 1.00000E-45
4.91274E-01 1.00000E-45
4.95637E-01 1.00000E-45
5.00000E-01 1.00000E-45
5.04363E-01 1.00000E-45
5.08726E-01 1.00000E-45
5.13088E-01 1.00000E-45
5.17450E-01 1.00000E-45
5.21810E-01 1.00000E-45
5.26168E-01 1.00000E-45
5.30524E-01 1.00000E-45
5.34878E-01 1.00000E-45
5.39230E-01 1.00000E-45
5.43578E-01 1.00000E-45
5.47923E-01 1.00000E-45
5.52264E-01 1.00000E-45
5.56602E-01 1.00000E-45
5.60935E-01 1.00000E-45
5.65263E-01 1.00000E-45
5.69587E-01 1.00000E-45
5.73905E-01 1.00000E-45
5.78217E-01 1.00000E-45
5.82524E-01 1.00000E-45
5.86824E-01 1.00000E-45
5.91118E-01 1.00000E-45
5.95404E-01 1.00000E-45
5.99684E-01 1.00000E-45
6.03956E-01 1.00000E-45
6.08220E-01 1.00000E-45
6.12476E-01 1.00000E-45
6.16723E-01 1.00000E-45
6.20961E-01 1.00000E-45
6.25190E-01 1.00000E-45
6.29410E-01 1.00000E-45
6.33619E-01 1.00000E-45
6.37819E-01 1.00000E-45
6.42008E-01 1.00000E-45
6.46186E-01 1.00000E-45
6.50353E-01 1.00000E-45
6.54508E-01 1.00000E-45
6.58652E-01 1.00000E-45
6.62784E-01 1.00000E-45
6.66903E-01 1.00000E-45
6.71010E-01 1.00000E-45
6.75104E-01 1.00000E-45
6.79184E-01 1.00000E-45
6.83251E-01 1.00000E-45
6.87303E-01 1.00000E-45
6.91342E-01 1.00000E-45
6.95366E-01 1.00000E-45
6.99375E-01 1.00000E-45
7.03368E-01 1.00000E-45
7.07347E-01 1.00000E-45
7.11309E-01 1.00000E-45
7.15256E-01 1.00000E-45
7.19186E-01 1.00000E-45
7.23099E-01 1.00000E-45
7.26995E-01 1.00000E-45
7.30874E-01 1.00000E-45
7.34736E-01 1.00000E-45
7.38579E-01 1.00000E-45
7.42405E-01 1.00000E-45
7.46212E-01 1.00000E-45
7.50000E-01 1.00000E-45
7.53769E-01 1.00000E-45
7.57519E-01 1.00000E-45
7.61249E-01 1.00000E-45
7.64960E-01 1.00000E-45
7.68650E-01 1.00000E-45
7.72320E-01 1.00000E-45
7.75968E-01 1.00000E-45
7.79596E-01 1.00000E-45
7.83203E-01 1.00000E-45
7.86788E-01 1.00000E-45
7.90351E-01 1.00000E-45
7.93893E-01 1.00000E-45
7.97411E-01 1.00000E-45
8.00908E-01 1.00000E-45
8.04381E-01 1.00000E-45
8.07831E-01 1.00000E-45
8.11257E-01 1.00000E-45
8.14660E-01 1.00000E-45
8.18039E-01 1.00000E-45
8.21394E-01 1.00000E-45
8.24724E-01 1.00000E-45
8.28030E-01 1.00000E-45
8.31310E-01 1.00000E-45
8.34565E-01 1.00000E-45
8.37795E-01 1.00000E-45
8.40999E-01 1.00000E-45
8.44177E-01 1.00000E-45
8.47329E-01 1.00000E-45
8.50455E-01 1.00000E-45
8.53553E-01 1.00000E-45
8.56625E-01 1.00000E-45
8.59670E-01 1.00000E-45
8.62687E-01 1.00000E-45
8.65677E-01 1.00000E-45
8.68639E-01 1.00000E-45
8.71572E-01 1.00000E-45
8.74478E-01 1.00000E-45
8.77355E-01 1.00000E-45
8.80203E-01 1.00000E-45
8.83022E-01 1.00000E-45
8.85812E-01 1.00000E-45
8.88573E-01 1.00000E-45
8.91304E-01 1.00000E-45
8.94005E-01 1.00000E-45
8.96677E-01 1.00000E-45
8.99318E-01 1.00000E-45
9.01928E-01 1.00000E-45
9.04508E-01 1.00000E-45
9.07058E-01 1.00000E-45
9.09576E-01 1.00000E-45
9.12063E-01 1.00000E-45
9.14519E-01 1.00000E-45
9.16943E-01 1.00000E-45
9.19335E-01 1.00000E-45
9.21696E-01 1.00000E-45
9.24024E-01 1.00000E-45
9.26320E-01 1.00000E-45
9.28584E-01 1.00000E-45
9.30815E-01 1.00000E-45
9.33013E-01 1.00000E-45
9.35178E-01 1.00000E-45
9.37310E-01 1.00000E-45
9.39409E-01 1.00000E-45
9.41474E-01 1.00000E-45
9.43505E-01 1.00000E-45
9.45503E-01 1.00000E-45
9.47467E-01 1.00000E-45
9.49397E-01 1.00000E-45
9.51293E-01 1.00000E-45
9.53154E-01 1.00000E-45
9.54981E-01 1.00000E-45
9.56773E-01 1.00000E-45
9.58530E-01 1.00000E-45
9.60252E-01 1.00000E-45
9.61940E-01 1.00000E-45
9.63592E-01 1.00000E-45
9.65209E-01 1.00000E-45
9.66790E-01 1.00000E-45
9.68336E-01 1.00000E-45
9.69846E-01 1.00000E-45
9.71321E-01 1.00000E-45
9.72759E-01 1.00000E-45
9.74162E-01 1.00000E-45
9.75528E-01 1.00000E-45
9.76858E-01 1.00000E-45
9.78152E-01 1.00000E-45
9.79410E-01 1.00000E-45
9.80631E-01 1.00000E-45
9.81815E-01 1.00000E-45
9.82963E-01 1.00000E-45
9.84074E-01 1.00000E-45
9.85148E-01 1.00000E-45
9.86185E-01 1.00000E-45
9.87185E-01 1.00000E-45
9.88148E-01 1.00000E-45
9.89074E-01 1.00000E-45
9.89962E-01 1.00000E-45
9.90814E-01 1.00000E-45
9.91627E-01 1.00000E-45
9.92404E-01 1.00000E-45
9.93143E-01 1.00000E-45
9.93844E-01 1.00000E-45
9.94508E-01 1.00000E-45
9.95134E-01 1.00000E-45
9.95722E-01 1.00000E-45
9.96273E-01 1.00000E-45
9.96786E-01 1.00000E-45
9.97261E-01 1.00000E-45
9.97698E-01 1.00000E-45
9.98097E-01 1.00000E-45
9.98459E-01 1.00000E-45
9.98782E-01 1.00000E-45
9.99067E-01 1.00000E-45
9.99315E-01 1.00000E-45
9.99524E-01 1.00000E-45
9.99695E-01 1.00000E-45
9.99829E-01 1.00000E-45
9.99924E-01 1.00000E-45
9.99981E-01 1.00000E-45
1.00000E+00 1.00000E-45
