 #
 # Subroutine ELSEPA. Elastic scattering of electrons and positrons
 #                    by neutral atoms and positive ions
 #
 # Projectile: electron
 # Kinetic energy = 6.00000E+07 eV = 2.20496E+06 a.u.
 #
 # WARNING: High-energy factorization with free-atom DF screening.
 #          Absorption, polarization and exchange corrections are
 #          switched off.
 #          Phase shifts are calculated for the bare nucleus.
 #          Scattering amplitudes are not evaluated.
 #
 # Element: Rn,  Z =  86,  atomic weight = 2.22018E+02 g/mol
 #
 # Nuclear model: Fermi distribution
 #                Average radius = 6.47907E-13 cm
 #                Skin thickness = 5.46000E-14 cm
 #
 # Number of electrons = 86
 #
 # Total elastic cross section = 9.58739E-18 cm**2 = 3.42372E-01 a0**2
 # 1st transport cross section = 3.83931E-24 cm**2 = 1.37104E-07 a0**2
 # 2nd transport cross section = 1.13070E-23 cm**2 = 4.03781E-07 a0**2
 #
 #
 # Differential cross section:                       MU=(1-COS(THETA))/2
 #
 #  THETA        MU          DCS          DCS        Sherman      error
 #  (deg)                 (cm**2/sr)   (a0**2/sr)    function
 #----------------------------------------------------------------------
0.00000E+00 2.35344E-10
7.61557E-13 2.35194E-10
1.18994E-12 2.35110E-10
1.71346E-12 2.35008E-10
2.33225E-12 2.34887E-10
3.04617E-12 2.34748E-10
3.85530E-12 2.34591E-10
4.75964E-12 2.34415E-10
5.75917E-12 2.34222E-10
6.85391E-12 2.34010E-10
8.04379E-12 2.33780E-10
9.32893E-12 2.33532E-10
1.07092E-11 2.33266E-10
1.21847E-11 2.32982E-10
1.37554E-11 2.32681E-10
1.54213E-11 2.32362E-10
1.71823E-11 2.32026E-10
1.90386E-11 2.31672E-10
2.09900E-11 2.31302E-10
2.30367E-11 2.30914E-10
2.51785E-11 2.30509E-10
2.74156E-11 2.30087E-10
2.97478E-11 2.29649E-10
3.21752E-11 2.29194E-10
3.46979E-11 2.28722E-10
3.73157E-11 2.28235E-10
4.00286E-11 2.27731E-10
4.28368E-11 2.27212E-10
4.57402E-11 2.26677E-10
4.87388E-11 2.26126E-10
5.18325E-11 2.25560E-10
5.50215E-11 2.24980E-10
5.83057E-11 2.24384E-10
6.16850E-11 2.23773E-10
6.51595E-11 2.23140E-10
6.87293E-11 2.22491E-10
7.23943E-11 2.21830E-10
7.61544E-11 2.21159E-10
1.18991E-10 2.13756E-10
1.71347E-10 2.05222E-10
2.33223E-10 1.95806E-10
3.04617E-10 1.85759E-10
3.85531E-10 1.75321E-10
4.75965E-10 1.64694E-10
5.75917E-10 1.54045E-10
6.85389E-10 1.43581E-10
8.04380E-10 1.33434E-10
9.32891E-10 1.23705E-10
1.07092E-09 1.14465E-10
1.21847E-09 1.05761E-10
1.37554E-09 9.76166E-11
1.54213E-09 9.00405E-11
1.71823E-09 8.30262E-11
1.90386E-09 7.65464E-11
2.09900E-09 7.05831E-11
2.30367E-09 6.51182E-11
2.51785E-09 6.01193E-11
2.74156E-09 5.55527E-11
2.97478E-09 5.13847E-11
3.21752E-09 4.75823E-11
3.46978E-09 4.41140E-11
3.73156E-09 4.09499E-11
4.00286E-09 3.80620E-11
4.28368E-09 3.54208E-11
4.57402E-09 3.30064E-11
4.87388E-09 3.07978E-11
5.18326E-09 2.87753E-11
5.50215E-09 2.69207E-11
5.83057E-09 2.52179E-11
6.16850E-09 2.36522E-11
6.51596E-09 2.21439E-11
6.87293E-09 2.07494E-11
7.23942E-09 1.94853E-11
7.61544E-09 1.83368E-11
1.18991E-08 1.06498E-11
1.71347E-08 6.63123E-12
2.33223E-08 4.34072E-12
3.04617E-08 2.95916E-12
3.85531E-08 2.08946E-12
4.75965E-08 1.52029E-12
5.75917E-08 1.13397E-12
6.85389E-08 8.64153E-13
8.04380E-08 6.70228E-13
9.32891E-08 5.27510E-13
1.07092E-07 4.20436E-13
1.21847E-07 3.38838E-13
1.37554E-07 2.75844E-13
1.54213E-07 2.26798E-13
1.71823E-07 1.87887E-13
1.90386E-07 1.56939E-13
2.09900E-07 1.32167E-13
2.30367E-07 1.12165E-13
2.51785E-07 9.58565E-14
2.74156E-07 8.24359E-14
2.97478E-07 7.13000E-14
3.21752E-07 6.19937E-14
3.46978E-07 5.41681E-14
3.73156E-07 4.75505E-14
4.00286E-07 4.19241E-14
4.28368E-07 3.71123E-14
4.57402E-07 3.29769E-14
4.87388E-07 2.94051E-14
5.18325E-07 2.63054E-14
5.50215E-07 2.36040E-14
5.83057E-07 2.12410E-14
6.16850E-07 1.91669E-14
6.51596E-07 1.73308E-14
6.87293E-07 1.57134E-14
7.23942E-07 1.42890E-14
7.61543E-07 1.30279E-14
1.18991E-06 5.70279E-15
1.71347E-06 2.88106E-15
2.33223E-06 1.60730E-15
3.04617E-06 9.65137E-16
3.85531E-06 6.13758E-16
4.75964E-06 4.08808E-16
5.75916E-06 2.82813E-16
6.85388E-06 2.01892E-16
8.04378E-06 1.47972E-16
9.32888E-06 1.10914E-16
1.07092E-05 8.47621E-17
1.21846E-05 6.58787E-17
1.37553E-05 5.19675E-17
1.54212E-05 4.15379E-17
1.71822E-05 3.35959E-17
1.90385E-05 2.74450E-17
2.09899E-05 2.26696E-17
2.30365E-05 1.88845E-17
2.51783E-05 1.58517E-17
2.74153E-05 1.33999E-17
2.97475E-05 1.14024E-17
3.21749E-05 9.76358E-18
3.46974E-05 8.40988E-18
3.73152E-05 7.28409E-18
4.00281E-05 6.34144E-18
4.28362E-05 5.54688E-18
4.57395E-05 4.87300E-18
4.87380E-05 4.29824E-18
5.18317E-05 3.80557E-18
5.50205E-05 3.38137E-18
5.83045E-05 3.01465E-18
6.16838E-05 2.69639E-18
6.51582E-05 2.41915E-18
6.87277E-05 2.17675E-18
7.23925E-05 1.96404E-18
7.61524E-05 1.77585E-18
9.21439E-05 1.21734E-18
1.09658E-04 8.62230E-19
1.28695E-04 6.27769E-19
1.49255E-04 4.67897E-19
1.71338E-04 3.55865E-19
1.94942E-04 2.75473E-19
2.20070E-04 2.16572E-19
2.46720E-04 1.72620E-19
2.74892E-04 1.39288E-19
3.04586E-04 1.13634E-19
3.35803E-04 9.36332E-20
3.68542E-04 7.78516E-20
4.02802E-04 6.52649E-20
4.38585E-04 5.51272E-20
4.75889E-04 4.68873E-20
5.14715E-04 4.01349E-20
5.55063E-04 3.45580E-20
5.96931E-04 2.99197E-20
6.40321E-04 2.60363E-20
6.85233E-04 2.27649E-20
7.31665E-04 1.99932E-20
7.79618E-04 1.76322E-20
8.29092E-04 1.56110E-20
8.80086E-04 1.38724E-20
9.32601E-04 1.23702E-20
9.86636E-04 1.10668E-20
1.04219E-03 9.93142E-21
1.09927E-03 8.93869E-21
1.15786E-03 8.06756E-21
1.21797E-03 7.30056E-21
1.27961E-03 6.62307E-21
1.34276E-03 6.02282E-21
1.40743E-03 5.48946E-21
1.47362E-03 5.01420E-21
1.54133E-03 4.58961E-21
1.61056E-03 4.20930E-21
1.68131E-03 3.86785E-21
1.75357E-03 3.56058E-21
1.82735E-03 3.28342E-21
1.90265E-03 3.03292E-21
1.97947E-03 2.80604E-21
2.05780E-03 2.60013E-21
2.13765E-03 2.41293E-21
2.21902E-03 2.24241E-21
2.30190E-03 2.08681E-21
2.38630E-03 1.94459E-21
2.47222E-03 1.81439E-21
2.55965E-03 1.69500E-21
2.64859E-03 1.58536E-21
2.73905E-03 1.48451E-21
2.83103E-03 1.39165E-21
2.92452E-03 1.30599E-21
3.01952E-03 1.22689E-21
3.11604E-03 1.15374E-21
3.21407E-03 1.08602E-21
3.31362E-03 1.02325E-21
3.41468E-03 9.64985E-22
3.51725E-03 9.10857E-22
3.62133E-03 8.60509E-22
3.72692E-03 8.13629E-22
3.83403E-03 7.69932E-22
3.94265E-03 7.29159E-22
4.05278E-03 6.91080E-22
4.16442E-03 6.55481E-22
4.27757E-03 6.22169E-22
4.39223E-03 5.90970E-22
4.50840E-03 5.61724E-22
4.62608E-03 5.34284E-22
4.74527E-03 5.08518E-22
4.86597E-03 4.84305E-22
4.98817E-03 4.61531E-22
5.11188E-03 4.40095E-22
5.23711E-03 4.19904E-22
5.36383E-03 4.00870E-22
5.49207E-03 3.82915E-22
5.62181E-03 3.65965E-22
5.75306E-03 3.49953E-22
5.88581E-03 3.34818E-22
6.02007E-03 3.20501E-22
6.15583E-03 3.06950E-22
6.29310E-03 2.94116E-22
6.43187E-03 2.81953E-22
6.57214E-03 2.70420E-22
6.71392E-03 2.59477E-22
6.85720E-03 2.49089E-22
7.00198E-03 2.39223E-22
7.14827E-03 2.29846E-22
7.29605E-03 2.20931E-22
7.44534E-03 2.12451E-22
7.59612E-03 2.04376E-22
7.97965E-03 1.85805E-22
8.37255E-03 1.69316E-22
8.77480E-03 1.54632E-22
9.18641E-03 1.41520E-22
9.60736E-03 1.29779E-22
1.00376E-02 1.19241E-22
1.04773E-02 1.09759E-22
1.09262E-02 1.01207E-22
1.13844E-02 9.34773E-23
1.18520E-02 8.64759E-23
1.23288E-02 8.01211E-23
1.28150E-02 7.43421E-23
1.33104E-02 6.90768E-23
1.38150E-02 6.42709E-23
1.43290E-02 5.98768E-23
1.48521E-02 5.58524E-23
1.53845E-02 5.21607E-23
1.59262E-02 4.87690E-23
1.64770E-02 4.56483E-23
1.70371E-02 4.27728E-23
1.76063E-02 4.01196E-23
1.81848E-02 3.76681E-23
1.87724E-02 3.54002E-23
1.93692E-02 3.32994E-23
1.99751E-02 3.13512E-23
2.05901E-02 2.95422E-23
2.12143E-02 2.78607E-23
2.18476E-02 2.62960E-23
2.24900E-02 2.48383E-23
2.31415E-02 2.34791E-23
2.38021E-02 2.22103E-23
2.44717E-02 2.10249E-23
2.51504E-02 1.99162E-23
2.58382E-02 1.88784E-23
2.65349E-02 1.79062E-23
2.72407E-02 1.69945E-23
2.79555E-02 1.61389E-23
2.86793E-02 1.53353E-23
2.94120E-02 1.45800E-23
3.01537E-02 1.38694E-23
3.09043E-02 1.32005E-23
3.16639E-02 1.25704E-23
3.24324E-02 1.19763E-23
3.32098E-02 1.14159E-23
3.39961E-02 1.08869E-23
3.47912E-02 1.03872E-23
3.55952E-02 9.91490E-24
3.64081E-02 9.46818E-24
3.72297E-02 9.04543E-24
3.80602E-02 8.64512E-24
3.88995E-02 8.26586E-24
3.97476E-02 7.90633E-24
4.06044E-02 7.56531E-24
4.14700E-02 7.24170E-24
4.23443E-02 6.93444E-24
4.32273E-02 6.64256E-24
4.41190E-02 6.36515E-24
4.50194E-02 6.10137E-24
4.59284E-02 5.85043E-24
4.68461E-02 5.61160E-24
4.87074E-02 5.16756E-24
5.06030E-02 4.76430E-24
5.25328E-02 4.39745E-24
5.44967E-02 4.06322E-24
5.64946E-02 3.75823E-24
5.85262E-02 3.47954E-24
6.05914E-02 3.22451E-24
6.26901E-02 2.99085E-24
6.48222E-02 2.77648E-24
6.69873E-02 2.57957E-24
6.91854E-02 2.39849E-24
7.14163E-02 2.23179E-24
7.36799E-02 2.07816E-24
7.59760E-02 1.93642E-24
7.83043E-02 1.80553E-24
8.06647E-02 1.68455E-24
8.30571E-02 1.57261E-24
8.54812E-02 1.46897E-24
8.79369E-02 1.37291E-24
9.04240E-02 1.28381E-24
9.29422E-02 1.20111E-24
9.54915E-02 1.12428E-24
9.80716E-02 1.05287E-24
1.00682E-01 9.86432E-25
1.03323E-01 9.24589E-25
1.05995E-01 8.66984E-25
1.08696E-01 8.13293E-25
1.11427E-01 7.63220E-25
1.14188E-01 7.16495E-25
1.16978E-01 6.72870E-25
1.19797E-01 6.32117E-25
1.22645E-01 5.94027E-25
1.25522E-01 5.58409E-25
1.28428E-01 5.25086E-25
1.31361E-01 4.93897E-25
1.34323E-01 4.64691E-25
1.37313E-01 4.37330E-25
1.40330E-01 4.11688E-25
1.43375E-01 3.87647E-25
1.46447E-01 3.65097E-25
1.49545E-01 3.43940E-25
1.52671E-01 3.24081E-25
1.55823E-01 3.05435E-25
1.59001E-01 2.87922E-25
1.62205E-01 2.71467E-25
1.65435E-01 2.56002E-25
1.68690E-01 2.41463E-25
1.71970E-01 2.27791E-25
1.75276E-01 2.14930E-25
1.78606E-01 2.02829E-25
1.81961E-01 1.91440E-25
1.85340E-01 1.80719E-25
1.88743E-01 1.70624E-25
1.92169E-01 1.61116E-25
1.95619E-01 1.52159E-25
1.99092E-01 1.43720E-25
2.02589E-01 1.35767E-25
2.06107E-01 1.28270E-25
2.09649E-01 1.21202E-25
2.13212E-01 1.14537E-25
2.16797E-01 1.08251E-25
2.20404E-01 1.02322E-25
2.24032E-01 9.67280E-26
2.27680E-01 9.14497E-26
2.31350E-01 8.64683E-26
2.35040E-01 8.17667E-26
2.38751E-01 7.73283E-26
2.42481E-01 7.31380E-26
2.46231E-01 6.91813E-26
2.50000E-01 6.54448E-26
2.53788E-01 6.19158E-26
2.57595E-01 5.85824E-26
2.61421E-01 5.54334E-26
2.65264E-01 5.24584E-26
2.69126E-01 4.96474E-26
2.73005E-01 4.69911E-26
2.76901E-01 4.44808E-26
2.80814E-01 4.21083E-26
2.84744E-01 3.98658E-26
2.88691E-01 3.77460E-26
2.92653E-01 3.57421E-26
2.96632E-01 3.38475E-26
3.00625E-01 3.20562E-26
3.04634E-01 3.03624E-26
3.08658E-01 2.87608E-26
3.12697E-01 2.72462E-26
3.16749E-01 2.58138E-26
3.20816E-01 2.44590E-26
3.24896E-01 2.31776E-26
3.28990E-01 2.19656E-26
3.33097E-01 2.08191E-26
3.37216E-01 1.97345E-26
3.41348E-01 1.87085E-26
3.45492E-01 1.77378E-26
3.49647E-01 1.68193E-26
3.53814E-01 1.59504E-26
3.57992E-01 1.51281E-26
3.62181E-01 1.43501E-26
3.66381E-01 1.36139E-26
3.70590E-01 1.29171E-26
3.74810E-01 1.22578E-26
3.79039E-01 1.16337E-26
3.83277E-01 1.10431E-26
3.87524E-01 1.04841E-26
3.91780E-01 9.95496E-27
3.96044E-01 9.45409E-27
4.00316E-01 8.97995E-27
4.04596E-01 8.53110E-27
4.08882E-01 8.10616E-27
4.13176E-01 7.70384E-27
4.17476E-01 7.32291E-27
4.21783E-01 6.96223E-27
4.26095E-01 6.62069E-27
4.30413E-01 6.29725E-27
4.34737E-01 5.99095E-27
4.39065E-01 5.70085E-27
4.43398E-01 5.42608E-27
4.47736E-01 5.16581E-27
4.52077E-01 4.91925E-27
4.56422E-01 4.68567E-27
4.60770E-01 4.46436E-27
4.65122E-01 4.25466E-27
4.69476E-01 4.05594E-27
4.73832E-01 3.86761E-27
4.78190E-01 3.68911E-27
4.82550E-01 3.51991E-27
4.86912E-01 3.35951E-27
4.91274E-01 3.20742E-27
4.95637E-01 3.06320E-27
5.00000E-01 2.92643E-27
5.04363E-01 2.79670E-27
5.08726E-01 2.67364E-27
5.13088E-01 2.55687E-27
5.17450E-01 2.44607E-27
5.21810E-01 2.34091E-27
5.26168E-01 2.24108E-27
5.30524E-01 2.14630E-27
5.34878E-01 2.05630E-27
5.39230E-01 1.97081E-27
5.43578E-01 1.88960E-27
5.47923E-01 1.81243E-27
5.52264E-01 1.73909E-27
5.56602E-01 1.66937E-27
5.60935E-01 1.60307E-27
5.65263E-01 1.54001E-27
5.69587E-01 1.48001E-27
5.73905E-01 1.42292E-27
5.78217E-01 1.36858E-27
5.82524E-01 1.31683E-27
5.86824E-01 1.26754E-27
5.91118E-01 1.22057E-27
5.95404E-01 1.17581E-27
5.99684E-01 1.13314E-27
6.03956E-01 1.09244E-27
6.08220E-01 1.05361E-27
6.12476E-01 1.01654E-27
6.16723E-01 9.81156E-28
6.20961E-01 9.47356E-28
6.25190E-01 9.15059E-28
6.29410E-01 8.84185E-28
6.33619E-01 8.54660E-28
6.37819E-01 8.26413E-28
6.42008E-01 7.99378E-28
6.46186E-01 7.73490E-28
6.50353E-01 7.48690E-28
6.54508E-01 7.24923E-28
6.58652E-01 7.02134E-28
6.62784E-01 6.80273E-28
6.66903E-01 6.59292E-28
6.71010E-01 6.39148E-28
6.75104E-01 6.19796E-28
6.79184E-01 6.01198E-28
6.83251E-01 5.83314E-28
6.87303E-01 5.66110E-28
6.91342E-01 5.49552E-28
6.95366E-01 5.33607E-28
6.99375E-01 5.18245E-28
7.03368E-01 5.03438E-28
7.07347E-01 4.89158E-28
7.11309E-01 4.75382E-28
7.15256E-01 4.62083E-28
7.19186E-01 4.49240E-28
7.23099E-01 4.36831E-28
7.26995E-01 4.24835E-28
7.30874E-01 4.13234E-28
7.34736E-01 4.02010E-28
7.38579E-01 3.91144E-28
7.42405E-01 3.80622E-28
7.46212E-01 3.70427E-28
7.50000E-01 3.60545E-28
7.53769E-01 3.50963E-28
7.57519E-01 3.41667E-28
7.61249E-01 3.32645E-28
7.64960E-01 3.23886E-28
7.68650E-01 3.15379E-28
7.72320E-01 3.07113E-28
7.75968E-01 2.99078E-28
7.79596E-01 2.91265E-28
7.83203E-01 2.83666E-28
7.86788E-01 2.76271E-28
7.90351E-01 2.69073E-28
7.93893E-01 2.62065E-28
7.97411E-01 2.55239E-28
8.00908E-01 2.48588E-28
8.04381E-01 2.42107E-28
8.07831E-01 2.35789E-28
8.11257E-01 2.29628E-28
8.14660E-01 2.23620E-28
8.18039E-01 2.17757E-28
8.21394E-01 2.12037E-28
8.24724E-01 2.06454E-28
8.28030E-01 2.01003E-28
8.31310E-01 1.95681E-28
8.34565E-01 1.90483E-28
8.37795E-01 1.85405E-28
8.40999E-01 1.80445E-28
8.44177E-01 1.75597E-28
8.47329E-01 1.70860E-28
8.50455E-01 1.66229E-28
8.53553E-01 1.61703E-28
8.56625E-01 1.57277E-28
8.59670E-01 1.52950E-28
8.62687E-01 1.48718E-28
8.65677E-01 1.44579E-28
8.68639E-01 1.40530E-28
8.71572E-01 1.36571E-28
8.74478E-01 1.32697E-28
8.77355E-01 1.28907E-28
8.80203E-01 1.25199E-28
8.83022E-01 1.21571E-28
8.85812E-01 1.18022E-28
8.88573E-01 1.14549E-28
8.91304E-01 1.11150E-28
8.94005E-01 1.07825E-28
8.96677E-01 1.04571E-28
8.99318E-01 1.01387E-28
9.01928E-01 9.82714E-29
9.04508E-01 9.52230E-29
9.07058E-01 9.22404E-29
9.09576E-01 8.93222E-29
9.12063E-01 8.64672E-29
9.14519E-01 8.36741E-29
9.16943E-01 8.09419E-29
9.19335E-01 7.82693E-29
9.21696E-01 7.56553E-29
9.24024E-01 7.30989E-29
9.26320E-01 7.05990E-29
9.28584E-01 6.81546E-29
9.30815E-01 6.57649E-29
9.33013E-01 6.34289E-29
9.35178E-01 6.11458E-29
9.37310E-01 5.89146E-29
9.39409E-01 5.67346E-29
9.41474E-01 5.46049E-29
9.43505E-01 5.25249E-29
9.45503E-01 5.04937E-29
9.47467E-01 4.85106E-29
9.49397E-01 4.65750E-29
9.51293E-01 4.46862E-29
9.53154E-01 4.28434E-29
9.54981E-01 4.10462E-29
9.56773E-01 3.92939E-29
9.58530E-01 3.75858E-29
9.60252E-01 3.59215E-29
9.61940E-01 3.43004E-29
9.63592E-01 3.27220E-29
9.65209E-01 3.11856E-29
9.66790E-01 2.96909E-29
9.68336E-01 2.82374E-29
9.69846E-01 2.68246E-29
9.71321E-01 2.54520E-29
9.72759E-01 2.41192E-29
9.74162E-01 2.28258E-29
9.75528E-01 2.15714E-29
9.76858E-01 2.03557E-29
9.78152E-01 1.91781E-29
9.79410E-01 1.80384E-29
9.80631E-01 1.69363E-29
9.81815E-01 1.58713E-29
9.82963E-01 1.48432E-29
9.84074E-01 1.38517E-29
9.85148E-01 1.28964E-29
9.86185E-01 1.19772E-29
9.87185E-01 1.10936E-29
9.88148E-01 1.02454E-29
9.89074E-01 9.43247E-30
9.89962E-01 8.65448E-30
9.90814E-01 7.91122E-30
9.91627E-01 7.20246E-30
9.92404E-01 6.52802E-30
9.93143E-01 5.88768E-30
9.93844E-01 5.28127E-30
9.94508E-01 4.70862E-30
9.95134E-01 4.16955E-30
9.95722E-01 3.66391E-30
9.96273E-01 3.19156E-30
9.96786E-01 2.75237E-30
9.97261E-01 2.34620E-30
9.97698E-01 1.97295E-30
9.98097E-01 1.63251E-30
9.98459E-01 1.32478E-30
9.98782E-01 1.04967E-30
9.99067E-01 8.07112E-31
9.99315E-01 5.97032E-31
9.99524E-01 4.19371E-31
9.99695E-01 2.74081E-31
9.99829E-01 1.61119E-31
9.99924E-01 8.04551E-32
9.99981E-01 3.20656E-32
1.00000E+00 1.59374E-32
