 #
 # Subroutine ELSEPA. Elastic scattering of electrons and positrons
 #                    by neutral atoms and positive ions
 #
 # Projectile: electron
 # Kinetic energy = 4.00000E+08 eV = 1.46997E+07 a.u.
 #
 # WARNING: High-energy factorization with free-atom DF screening.
 #          Absorption, polarization and exchange corrections are
 #          switched off.
 #          Phase shifts are calculated for the bare nucleus.
 #          Scattering amplitudes are not evaluated.
 #
 # Element: Rn,  Z =  86,  atomic weight = 2.22018E+02 g/mol
 #
 # Nuclear model: Fermi distribution
 #                Average radius = 6.47907E-13 cm
 #                Skin thickness = 5.46000E-14 cm
 #
 # Number of electrons = 86
 #
 # Total elastic cross section = 9.58682E-18 cm**2 = 3.42352E-01 a0**2
 # 1st transport cross section = 8.62273E-26 cm**2 = 3.07923E-09 a0**2
 # 2nd transport cross section = 2.58528E-25 cm**2 = 9.23221E-09 a0**2
 #
 #
 # Differential cross section:                       MU=(1-COS(THETA))/2
 #
 #  THETA        MU          DCS          DCS        Sherman      error
 #  (deg)                 (cm**2/sr)   (a0**2/sr)    function
 #----------------------------------------------------------------------
0.00000E+00 1.03101E-08
7.61557E-13 1.00309E-08
1.18994E-12 9.87905E-09
1.71346E-12 9.69707E-09
2.33225E-12 9.49047E-09
3.04617E-12 9.25950E-09
3.85530E-12 9.00724E-09
4.75964E-12 8.73892E-09
5.75917E-12 8.45828E-09
6.85391E-12 8.16308E-09
8.04379E-12 7.86082E-09
9.32893E-12 7.55529E-09
1.07092E-11 7.24801E-09
1.21847E-11 6.93716E-09
1.37554E-11 6.63036E-09
1.54213E-11 6.32943E-09
1.71823E-11 6.03286E-09
1.90386E-11 5.74206E-09
2.09900E-11 5.46118E-09
2.30367E-11 5.19081E-09
2.51785E-11 4.92769E-09
2.74156E-11 4.67534E-09
2.97478E-11 4.43486E-09
3.21752E-11 4.20580E-09
3.46979E-11 3.98530E-09
3.73157E-11 3.77666E-09
4.00286E-11 3.57944E-09
4.28368E-11 3.39221E-09
4.57402E-11 3.21431E-09
4.87388E-11 3.04684E-09
5.18325E-11 2.88923E-09
5.50215E-11 2.73983E-09
5.83057E-11 2.59900E-09
6.16850E-11 2.46673E-09
6.51595E-11 2.34249E-09
6.87293E-11 2.22472E-09
7.23943E-11 2.11419E-09
7.61544E-11 2.01042E-09
1.18991E-10 1.25249E-09
1.71347E-10 8.17154E-10
2.33223E-10 5.67031E-10
3.04617E-10 4.04454E-10
3.85531E-10 2.96062E-10
4.75965E-10 2.22413E-10
5.75917E-10 1.70542E-10
6.85389E-10 1.32306E-10
8.04380E-10 1.04469E-10
9.32891E-10 8.37795E-11
1.07092E-09 6.80488E-11
1.21847E-09 5.57963E-11
1.37554E-09 4.62616E-11
1.54213E-09 3.87248E-11
1.71823E-09 3.26444E-11
1.90386E-09 2.76928E-11
2.09900E-09 2.36529E-11
2.30367E-09 2.03243E-11
2.51785E-09 1.75344E-11
2.74156E-09 1.52023E-11
2.97478E-09 1.32447E-11
3.21752E-09 1.15897E-11
3.46978E-09 1.01795E-11
3.73156E-09 8.97336E-12
4.00286E-09 7.93838E-12
4.28368E-09 7.04817E-12
4.57402E-09 6.27963E-12
4.87388E-09 5.61531E-12
5.18326E-09 5.03844E-12
5.50215E-09 4.53403E-12
5.83057E-09 4.09187E-12
6.16850E-09 3.70322E-12
6.51596E-09 3.36029E-12
6.87293E-09 3.05558E-12
7.23942E-09 2.78512E-12
7.61544E-09 2.54435E-12
1.18991E-08 1.13984E-12
1.71347E-08 5.85555E-13
2.33223E-08 3.31305E-13
3.04617E-08 2.01515E-13
3.85531E-08 1.29550E-13
4.75965E-08 8.70040E-14
5.75917E-08 6.05471E-14
6.85389E-08 4.34044E-14
8.04380E-08 3.19166E-14
9.32891E-08 2.39918E-14
1.07092E-07 1.83836E-14
1.21847E-07 1.43248E-14
1.37554E-07 1.13285E-14
1.54213E-07 9.07694E-15
1.71823E-07 7.35849E-15
1.90386E-07 6.02837E-15
2.09900E-07 4.98569E-15
2.30367E-07 4.15893E-15
2.51785E-07 3.49652E-15
2.74156E-07 2.96069E-15
2.97478E-07 2.52358E-15
3.21752E-07 2.16413E-15
3.46978E-07 1.86639E-15
3.73156E-07 1.61806E-15
4.00286E-07 1.40963E-15
4.28368E-07 1.23366E-15
4.57402E-07 1.08429E-15
4.87388E-07 9.56830E-16
5.18325E-07 8.47546E-16
5.50215E-07 7.53418E-16
5.83057E-07 6.71991E-16
6.16850E-07 6.01267E-16
6.51596E-07 5.39605E-16
6.87293E-07 4.85646E-16
7.23942E-07 4.38266E-16
7.61543E-07 3.96526E-16
1.18991E-06 1.63942E-16
1.71347E-06 7.95770E-17
2.33223E-06 4.31610E-17
3.04617E-06 2.53934E-17
3.85531E-06 1.58985E-17
4.75964E-06 1.04548E-17
5.75916E-06 7.15397E-18
6.85388E-06 5.05886E-18
8.04378E-06 3.67752E-18
9.32888E-06 2.73705E-18
1.07092E-05 2.07889E-18
1.21846E-05 1.60718E-18
1.37553E-05 1.26199E-18
1.54212E-05 1.00470E-18
1.71822E-05 8.09761E-19
1.90385E-05 6.59466E-19
2.09899E-05 5.43227E-19
2.30365E-05 4.51417E-19
2.51783E-05 3.78083E-19
2.74153E-05 3.18960E-19
2.97475E-05 2.70911E-19
3.21749E-05 2.31579E-19
3.46974E-05 1.99156E-19
3.73152E-05 1.72242E-19
4.00281E-05 1.49745E-19
4.28362E-05 1.30813E-19
4.57395E-05 1.14780E-19
4.87380E-05 1.01126E-19
5.18317E-05 8.94365E-20
5.50205E-05 7.93850E-20
5.83045E-05 7.07054E-20
6.16838E-05 6.31816E-20
6.51582E-05 5.66350E-20
6.87277E-05 5.09165E-20
7.23925E-05 4.59035E-20
7.61524E-05 4.19800E-20
9.21439E-05 2.87683E-20
1.09658E-04 2.03789E-20
1.28695E-04 1.48441E-20
1.49255E-04 1.10712E-20
1.71338E-04 8.42793E-21
1.94942E-04 6.52895E-21
2.20070E-04 5.13665E-21
2.46720E-04 4.09683E-21
2.74892E-04 3.30744E-21
3.04586E-04 2.69923E-21
3.35803E-04 2.22447E-21
3.68542E-04 1.84940E-21
4.02802E-04 1.54989E-21
4.38585E-04 1.30836E-21
4.75889E-04 1.11180E-21
5.14715E-04 9.50547E-22
5.55063E-04 8.17225E-22
5.96931E-04 7.06233E-22
6.40321E-04 6.13227E-22
6.85233E-04 5.34819E-22
7.31665E-04 4.68352E-22
7.79618E-04 4.11707E-22
8.29092E-04 3.63202E-22
8.80086E-04 3.21473E-22
9.32601E-04 2.85421E-22
9.86636E-04 2.54149E-22
1.04219E-03 2.26920E-22
1.09927E-03 2.03128E-22
1.15786E-03 1.82267E-22
1.21797E-03 1.63921E-22
1.27961E-03 1.47736E-22
1.34276E-03 1.33417E-22
1.40743E-03 1.20717E-22
1.47362E-03 1.09422E-22
1.54133E-03 9.93534E-23
1.61056E-03 9.03570E-23
1.68131E-03 8.23012E-23
1.75357E-03 7.50727E-23
1.82735E-03 6.85736E-23
1.90265E-03 6.27193E-23
1.97947E-03 5.74364E-23
2.05780E-03 5.26608E-23
2.13765E-03 4.83369E-23
2.21902E-03 4.44157E-23
2.30190E-03 4.08544E-23
2.38630E-03 3.76153E-23
2.47222E-03 3.46652E-23
2.55965E-03 3.19749E-23
2.64859E-03 2.95184E-23
2.73905E-03 2.72726E-23
2.83103E-03 2.52171E-23
2.92452E-03 2.33337E-23
3.01952E-03 2.16061E-23
3.11604E-03 2.00199E-23
3.21407E-03 1.85621E-23
3.31362E-03 1.72209E-23
3.41468E-03 1.59860E-23
3.51725E-03 1.48480E-23
3.62133E-03 1.37984E-23
3.72692E-03 1.28295E-23
3.83403E-03 1.19345E-23
3.94265E-03 1.11070E-23
4.05278E-03 1.03416E-23
4.16442E-03 9.63299E-24
4.27757E-03 8.97658E-24
4.39223E-03 8.36815E-24
4.50840E-03 7.80384E-24
4.62608E-03 7.28015E-24
4.74527E-03 6.79389E-24
4.86597E-03 6.34213E-24
4.98817E-03 5.92223E-24
5.11188E-03 5.53174E-24
5.23711E-03 5.16843E-24
5.36383E-03 4.83026E-24
5.49207E-03 4.51534E-24
5.62181E-03 4.22196E-24
5.75306E-03 3.94854E-24
5.88581E-03 3.69362E-24
6.02007E-03 3.45586E-24
6.15583E-03 3.23402E-24
6.29310E-03 3.02698E-24
6.43187E-03 2.83369E-24
6.57214E-03 2.65317E-24
6.71392E-03 2.48453E-24
6.85720E-03 2.32695E-24
7.00198E-03 2.17966E-24
7.14827E-03 2.04196E-24
7.29605E-03 1.91319E-24
7.44534E-03 1.79274E-24
7.59612E-03 1.68005E-24
7.97965E-03 1.42896E-24
8.37255E-03 1.21602E-24
8.77480E-03 1.03527E-24
9.18641E-03 8.81701E-25
9.60736E-03 7.51135E-25
1.00376E-02 6.40062E-25
1.04773E-02 5.45526E-25
1.09262E-02 4.65038E-25
1.13844E-02 3.96492E-25
1.18520E-02 3.38109E-25
1.23288E-02 2.88379E-25
1.28150E-02 2.46020E-25
1.33104E-02 2.09942E-25
1.38150E-02 1.79220E-25
1.43290E-02 1.53062E-25
1.48521E-02 1.30797E-25
1.53845E-02 1.11850E-25
1.59262E-02 9.57314E-26
1.64770E-02 8.20220E-26
1.70371E-02 7.03650E-26
1.76063E-02 6.04551E-26
1.81848E-02 5.20316E-26
1.87724E-02 4.48719E-26
1.93692E-02 3.87860E-26
1.99751E-02 3.36115E-26
2.05901E-02 2.92102E-26
2.12143E-02 2.54642E-26
2.18476E-02 2.22729E-26
2.24900E-02 1.95510E-26
2.31415E-02 1.72259E-26
2.38021E-02 1.52357E-26
2.44717E-02 1.35283E-26
2.51504E-02 1.20594E-26
2.58382E-02 1.07915E-26
2.65349E-02 9.69314E-27
2.72407E-02 8.73758E-27
2.79555E-02 7.90250E-27
2.86793E-02 7.16911E-27
2.94120E-02 6.52167E-27
3.01537E-02 5.94704E-27
3.09043E-02 5.43424E-27
3.16639E-02 4.97414E-27
3.24324E-02 4.55914E-27
3.32098E-02 4.18296E-27
3.39961E-02 3.84037E-27
3.47912E-02 3.52705E-27
3.55952E-02 3.23944E-27
3.64081E-02 2.97458E-27
3.72297E-02 2.73002E-27
3.80602E-02 2.50373E-27
3.88995E-02 2.29402E-27
3.97476E-02 2.09945E-27
4.06044E-02 1.91883E-27
4.14700E-02 1.75114E-27
4.23443E-02 1.59548E-27
4.32273E-02 1.45109E-27
4.41190E-02 1.31727E-27
4.50194E-02 1.19341E-27
4.59284E-02 1.07894E-27
4.68461E-02 9.73334E-28
4.87074E-02 7.86759E-28
5.06030E-02 6.30003E-28
5.25328E-02 4.99655E-28
5.44967E-02 3.92504E-28
5.64946E-02 3.05523E-28
5.85262E-02 2.35871E-28
6.05914E-02 1.80911E-28
6.26901E-02 1.38223E-28
6.48222E-02 1.05626E-28
6.69873E-02 8.11832E-29
6.91854E-02 6.32027E-29
7.14163E-02 5.02362E-29
7.36799E-02 4.10653E-29
7.59760E-02 3.46871E-29
7.83043E-02 3.02934E-29
8.06647E-02 2.72497E-29
8.30571E-02 2.50720E-29
8.54812E-02 2.34038E-29
8.79369E-02 2.19943E-29
9.04240E-02 2.06774E-29
9.29422E-02 1.93536E-29
9.54915E-02 1.79731E-29
9.80716E-02 1.65221E-29
1.00682E-01 1.50111E-29
1.03323E-01 1.34650E-29
1.05995E-01 1.19163E-29
1.08696E-01 1.03991E-29
1.11427E-01 8.94569E-30
1.14188E-01 7.58340E-30
1.16978E-01 6.33363E-30
1.19797E-01 5.21108E-30
1.22645E-01 4.22386E-30
1.25522E-01 3.37403E-30
1.28428E-01 2.65845E-30
1.31361E-01 2.06975E-30
1.34323E-01 1.59739E-30
1.37313E-01 1.22872E-30
1.40330E-01 9.49858E-31
1.43375E-01 7.46580E-31
1.46447E-01 6.04949E-31
1.49545E-01 5.11864E-31
1.52671E-01 4.55442E-31
1.55823E-01 4.25262E-31
1.59001E-01 4.12492E-31
1.62205E-01 4.09920E-31
1.65435E-01 4.11894E-31
1.68690E-01 4.14213E-31
1.71970E-01 4.13966E-31
1.75276E-01 4.09350E-31
1.78606E-01 3.99483E-31
1.81961E-01 3.84201E-31
1.85340E-01 3.63885E-31
1.88743E-01 3.39288E-31
1.92169E-01 3.11394E-31
1.95619E-01 2.81295E-31
1.99092E-01 2.50090E-31
2.02589E-01 2.18814E-31
2.06107E-01 1.88384E-31
2.09649E-01 1.59563E-31
2.13212E-01 1.32945E-31
2.16797E-01 1.08952E-31
2.20404E-01 8.78407E-32
2.24032E-01 6.97157E-32
2.27680E-01 5.45525E-32
2.31350E-01 4.22194E-32
2.35040E-01 3.25025E-32
2.38751E-01 2.51291E-32
2.42481E-01 1.97906E-32
2.46231E-01 1.61617E-32
2.50000E-01 1.39181E-32
2.53788E-01 1.27493E-32
2.57595E-01 1.23699E-32
2.61421E-01 1.25260E-32
2.65264E-01 1.30004E-32
2.69126E-01 1.36140E-32
2.73005E-01 1.42259E-32
2.76901E-01 1.47315E-32
2.80814E-01 1.50591E-32
2.84744E-01 1.51667E-32
2.88691E-01 1.50365E-32
2.92653E-01 1.46712E-32
2.96632E-01 1.40887E-32
3.00625E-01 1.33180E-32
3.04634E-01 1.23952E-32
3.08658E-01 1.13603E-32
3.12697E-01 1.02537E-32
3.16749E-01 9.11428E-33
3.20816E-01 7.97774E-33
3.24896E-01 6.87501E-33
3.28990E-01 5.83174E-33
3.33097E-01 4.86786E-33
3.37216E-01 3.99761E-33
3.41348E-01 3.22983E-33
3.45492E-01 2.56841E-33
3.49647E-01 2.01297E-33
3.53814E-01 1.55950E-33
3.57992E-01 1.20119E-33
3.62181E-01 9.29101E-34
3.66381E-01 7.32914E-34
3.70590E-01 6.01534E-34
3.74810E-01 5.23667E-34
3.79039E-01 4.88279E-34
3.83277E-01 4.84974E-34
3.87524E-01 5.04270E-34
3.91780E-01 5.37799E-34
3.96044E-01 5.78416E-34
4.00316E-01 6.20246E-34
4.04596E-01 6.58670E-34
4.08882E-01 6.90263E-34
4.13176E-01 7.12697E-34
4.17476E-01 7.24619E-34
4.21783E-01 7.25514E-34
4.26095E-01 7.15555E-34
4.30413E-01 6.95463E-34
4.34737E-01 6.66367E-34
4.39065E-01 6.29670E-34
4.43398E-01 5.86939E-34
4.47736E-01 5.39802E-34
4.52077E-01 4.89867E-34
4.56422E-01 4.38652E-34
4.60770E-01 3.87538E-34
4.65122E-01 3.37731E-34
4.69476E-01 2.90242E-34
4.73832E-01 2.45879E-34
4.78190E-01 2.05244E-34
4.82550E-01 1.68745E-34
4.86912E-01 1.36607E-34
4.91274E-01 1.08897E-34
4.95637E-01 8.55404E-35
5.00000E-01 6.63489E-35
5.04363E-01 5.10432E-35
5.08726E-01 3.92763E-35
5.13088E-01 3.06558E-35
5.17450E-01 2.47639E-35
5.21810E-01 2.11746E-35
5.26168E-01 1.94686E-35
5.30524E-01 1.92457E-35
5.34878E-01 2.01340E-35
5.39230E-01 2.17970E-35
5.43578E-01 2.39380E-35
5.47923E-01 2.63024E-35
5.52264E-01 2.86788E-35
5.56602E-01 3.08978E-35
5.60935E-01 3.28299E-35
5.65263E-01 3.43824E-35
5.69587E-01 3.54960E-35
5.73905E-01 3.61402E-35
5.78217E-01 3.63096E-35
5.82524E-01 3.60189E-35
5.86824E-01 3.52989E-35
5.91118E-01 3.41925E-35
5.95404E-01 3.27512E-35
5.99684E-01 3.10313E-35
6.03956E-01 2.90918E-35
6.08220E-01 2.69912E-35
6.12476E-01 2.47859E-35
6.16723E-01 2.25287E-35
6.20961E-01 2.02675E-35
6.25190E-01 1.80446E-35
6.29410E-01 1.58961E-35
6.33619E-01 1.38519E-35
6.37819E-01 1.19355E-35
6.42008E-01 1.01646E-35
6.46186E-01 8.55096E-36
6.50353E-01 7.10138E-36
6.54508E-01 5.81811E-36
6.58652E-01 4.69934E-36
6.62784E-01 3.73995E-36
6.66903E-01 2.93210E-36
6.71010E-01 2.26591E-36
6.75104E-01 1.72988E-36
6.79184E-01 1.31152E-36
6.83251E-01 9.97763E-37
6.87303E-01 7.75354E-37
6.91342E-01 6.31239E-37
6.95366E-01 5.52802E-37
6.99375E-01 5.28105E-37
7.03368E-01 5.46056E-37
7.07347E-01 5.96534E-37
7.11309E-01 6.70447E-37
7.15256E-01 7.59805E-37
7.19186E-01 8.57675E-37
7.23099E-01 9.58218E-37
7.26995E-01 1.05658E-36
7.30874E-01 1.14891E-36
7.34736E-01 1.23215E-36
7.38579E-01 1.30415E-36
7.42405E-01 1.36340E-36
7.46212E-01 1.40902E-36
7.50000E-01 1.44071E-36
7.53769E-01 1.45852E-36
7.57519E-01 1.46297E-36
7.61249E-01 1.45480E-36
7.64960E-01 1.43500E-36
7.68650E-01 1.40468E-36
7.72320E-01 1.36511E-36
7.75968E-01 1.31759E-36
7.79596E-01 1.26340E-36
7.83203E-01 1.20384E-36
7.86788E-01 1.14015E-36
7.90351E-01 1.07350E-36
7.93893E-01 1.00500E-36
7.97411E-01 9.35613E-37
8.00908E-01 8.66243E-37
8.04381E-01 7.97661E-37
8.07831E-01 7.30567E-37
8.11257E-01 6.65531E-37
8.14660E-01 6.03017E-37
8.18039E-01 5.43408E-37
8.21394E-01 4.87016E-37
8.24724E-01 4.34022E-37
8.28030E-01 3.84570E-37
8.31310E-01 3.38748E-37
8.34565E-01 2.96556E-37
8.37795E-01 2.57965E-37
8.40999E-01 2.22896E-37
8.44177E-01 1.91240E-37
8.47329E-01 1.62859E-37
8.50455E-01 1.37583E-37
8.53553E-01 1.15250E-37
8.56625E-01 9.56583E-38
8.59670E-01 7.86190E-38
8.62687E-01 6.39305E-38
8.65677E-01 5.13953E-38
8.68639E-01 4.08188E-38
8.71572E-01 1.00000E-45
8.74478E-01 1.00000E-45
8.77355E-01 1.00000E-45
8.80203E-01 1.00000E-45
8.83022E-01 1.00000E-45
8.85812E-01 1.00000E-45
8.88573E-01 1.00000E-45
8.91304E-01 1.00000E-45
8.94005E-01 1.00000E-45
8.96677E-01 1.00000E-45
8.99318E-01 1.00000E-45
9.01928E-01 1.00000E-45
9.04508E-01 1.00000E-45
9.07058E-01 1.00000E-45
9.09576E-01 1.00000E-45
9.12063E-01 1.00000E-45
9.14519E-01 1.00000E-45
9.16943E-01 1.00000E-45
9.19335E-01 1.00000E-45
9.21696E-01 1.00000E-45
9.24024E-01 1.00000E-45
9.26320E-01 1.00000E-45
9.28584E-01 1.00000E-45
9.30815E-01 1.00000E-45
9.33013E-01 1.00000E-45
9.35178E-01 1.00000E-45
9.37310E-01 1.00000E-45
9.39409E-01 1.00000E-45
9.41474E-01 1.00000E-45
9.43505E-01 1.00000E-45
9.45503E-01 1.00000E-45
9.47467E-01 1.00000E-45
9.49397E-01 1.00000E-45
9.51293E-01 1.00000E-45
9.53154E-01 1.00000E-45
9.54981E-01 1.00000E-45
9.56773E-01 1.00000E-45
9.58530E-01 1.00000E-45
9.60252E-01 1.00000E-45
9.61940E-01 1.00000E-45
9.63592E-01 1.00000E-45
9.65209E-01 1.00000E-45
9.66790E-01 1.00000E-45
9.68336E-01 1.00000E-45
9.69846E-01 1.00000E-45
9.71321E-01 1.00000E-45
9.72759E-01 1.00000E-45
9.74162E-01 1.00000E-45
9.75528E-01 1.00000E-45
9.76858E-01 1.00000E-45
9.78152E-01 1.00000E-45
9.79410E-01 1.00000E-45
9.80631E-01 1.00000E-45
9.81815E-01 1.00000E-45
9.82963E-01 1.00000E-45
9.84074E-01 1.00000E-45
9.85148E-01 1.00000E-45
9.86185E-01 1.00000E-45
9.87185E-01 1.00000E-45
9.88148E-01 1.00000E-45
9.89074E-01 1.00000E-45
9.89962E-01 1.00000E-45
9.90814E-01 1.00000E-45
9.91627E-01 1.00000E-45
9.92404E-01 1.00000E-45
9.93143E-01 1.00000E-45
9.93844E-01 1.00000E-45
9.94508E-01 1.00000E-45
9.95134E-01 1.00000E-45
9.95722E-01 1.00000E-45
9.96273E-01 1.00000E-45
9.96786E-01 1.00000E-45
9.97261E-01 1.00000E-45
9.97698E-01 1.00000E-45
9.98097E-01 1.00000E-45
9.98459E-01 1.00000E-45
9.98782E-01 1.00000E-45
9.99067E-01 1.00000E-45
9.99315E-01 1.00000E-45
9.99524E-01 1.00000E-45
9.99695E-01 1.00000E-45
9.99829E-01 1.00000E-45
9.99924E-01 1.00000E-45
9.99981E-01 1.00000E-45
1.00000E+00 1.00000E-45
