 #
 # Subroutine ELSEPA. Elastic scattering of electrons and positrons
 #                    by neutral atoms and positive ions
 #
 # Projectile: electron
 # Kinetic energy = 1.75000E+08 eV = 6.43113E+06 a.u.
 #
 # WARNING: High-energy factorization with free-atom DF screening.
 #          Absorption, polarization and exchange corrections are
 #          switched off.
 #          Phase shifts are calculated for the bare nucleus.
 #          Scattering amplitudes are not evaluated.
 #
 # Element: Rn,  Z =  86,  atomic weight = 2.22018E+02 g/mol
 #
 # Nuclear model: Fermi distribution
 #                Average radius = 6.47907E-13 cm
 #                Skin thickness = 5.46000E-14 cm
 #
 # Number of electrons = 86
 #
 # Total elastic cross section = 9.58482E-18 cm**2 = 3.42280E-01 a0**2
 # 1st transport cross section = 4.51730E-25 cm**2 = 1.61316E-08 a0**2
 # 2nd transport cross section = 1.35125E-24 cm**2 = 4.82540E-08 a0**2
 #
 #
 # Differential cross section:                       MU=(1-COS(THETA))/2
 #
 #  THETA        MU          DCS          DCS        Sherman      error
 #  (deg)                 (cm**2/sr)   (a0**2/sr)    function
 #----------------------------------------------------------------------
0.00000E+00 1.97990E-09
7.61557E-13 1.96940E-09
1.18994E-12 1.96355E-09
1.71346E-12 1.95643E-09
2.33225E-12 1.94807E-09
3.04617E-12 1.93850E-09
3.85530E-12 1.92774E-09
4.75964E-12 1.91583E-09
5.75917E-12 1.90279E-09
6.85391E-12 1.88866E-09
8.04379E-12 1.87337E-09
9.32893E-12 1.85707E-09
1.07092E-11 1.84002E-09
1.21847E-11 1.82201E-09
1.37554E-11 1.80290E-09
1.54213E-11 1.78325E-09
1.71823E-11 1.76290E-09
1.90386E-11 1.74140E-09
2.09900E-11 1.71958E-09
2.30367E-11 1.69738E-09
2.51785E-11 1.67395E-09
2.74156E-11 1.65040E-09
2.97478E-11 1.62681E-09
3.21752E-11 1.60192E-09
3.46979E-11 1.57709E-09
3.73157E-11 1.55241E-09
4.00286E-11 1.52668E-09
4.28368E-11 1.50100E-09
4.57402E-11 1.47563E-09
4.87388E-11 1.44951E-09
5.18325E-11 1.42339E-09
5.50215E-11 1.39771E-09
5.83057E-11 1.37158E-09
6.16850E-11 1.34538E-09
6.51595E-11 1.31972E-09
6.87293E-11 1.29392E-09
7.23943E-11 1.26796E-09
7.61544E-11 1.24263E-09
1.18991E-10 1.00149E-09
1.71347E-10 7.94944E-10
2.33223E-10 6.28112E-10
3.04617E-10 4.97606E-10
3.85531E-10 3.97108E-10
4.75965E-10 3.20065E-10
5.75917E-10 2.60765E-10
6.85389E-10 2.14818E-10
8.04380E-10 1.77865E-10
9.32891E-10 1.48811E-10
1.07092E-09 1.26606E-10
1.21847E-09 1.08430E-10
1.37554E-09 9.27949E-11
1.54213E-09 8.04174E-11
1.71823E-09 7.01798E-11
1.90386E-09 6.10395E-11
2.09900E-09 5.36034E-11
2.30367E-09 4.74159E-11
2.51785E-09 4.17715E-11
2.74156E-09 3.70786E-11
2.97478E-09 3.31445E-11
3.21752E-09 2.95260E-11
3.46978E-09 2.64596E-11
3.73156E-09 2.38464E-11
4.00286E-09 2.14696E-11
4.28368E-09 1.94063E-11
4.57402E-09 1.76232E-11
4.87388E-09 1.60089E-11
5.18326E-09 1.45812E-11
5.50215E-09 1.33326E-11
5.83057E-09 1.22026E-11
6.16850E-09 1.11877E-11
6.51596E-09 1.02910E-11
6.87293E-09 9.47840E-12
7.23942E-09 8.73849E-12
7.61544E-09 8.07917E-12
1.18991E-08 3.95637E-12
1.71347E-08 2.14150E-12
2.33223E-08 1.25154E-12
3.04617E-08 7.81311E-13
3.85531E-08 5.13929E-13
4.75965E-08 3.52327E-13
5.75917E-08 2.49924E-13
6.85389E-08 1.82259E-13
8.04380E-08 1.35933E-13
9.32891E-08 1.03593E-13
1.07092E-07 8.03546E-14
1.21847E-07 6.32494E-14
1.37554E-07 5.04874E-14
1.54213E-07 4.08007E-14
1.71823E-07 3.33358E-14
1.90386E-07 2.75043E-14
2.09900E-07 2.28837E-14
2.30367E-07 1.91946E-14
2.51785E-07 1.62196E-14
2.74156E-07 1.37986E-14
2.97478E-07 1.18123E-14
3.21752E-07 1.01679E-14
3.46978E-07 8.80013E-15
3.73156E-07 7.65489E-15
4.00286E-07 6.69013E-15
4.28368E-07 5.87273E-15
4.57402E-07 5.17599E-15
4.87388E-07 4.57981E-15
5.18325E-07 4.06726E-15
5.50215E-07 3.62463E-15
5.83057E-07 3.24074E-15
6.16850E-07 2.90626E-15
6.51596E-07 2.61398E-15
6.87293E-07 2.35763E-15
7.23942E-07 2.13203E-15
7.61543E-07 1.93284E-15
1.18991E-06 8.11842E-16
1.71347E-06 3.97980E-16
2.33223E-06 2.17198E-16
3.04617E-06 1.28322E-16
3.85531E-06 8.05911E-17
4.75964E-06 5.31300E-17
5.75916E-06 3.64338E-17
6.85388E-06 2.58125E-17
8.04378E-06 1.87960E-17
9.32888E-06 1.40105E-17
1.07092E-05 1.06561E-17
1.21846E-05 8.24841E-18
1.37553E-05 6.48407E-18
1.54212E-05 5.16734E-18
1.71822E-05 4.16857E-18
1.90385E-05 3.39768E-18
2.09899E-05 2.80091E-18
2.30365E-05 2.32913E-18
2.51783E-05 1.95198E-18
2.74153E-05 1.64767E-18
2.97475E-05 1.40019E-18
3.21749E-05 1.19748E-18
3.46974E-05 1.03027E-18
3.73152E-05 8.91394E-19
4.00281E-05 7.75252E-19
4.28362E-05 6.77469E-19
4.57395E-05 5.94625E-19
4.87380E-05 5.24037E-19
5.18317E-05 4.63588E-19
5.50205E-05 4.11589E-19
5.83045E-05 3.66673E-19
6.16838E-05 3.27726E-19
6.51582E-05 2.93826E-19
6.87277E-05 2.64208E-19
7.23925E-05 2.38237E-19
7.61524E-05 2.15624E-19
9.21439E-05 1.47573E-19
1.09658E-04 1.04397E-19
1.28695E-04 7.59422E-20
1.49255E-04 5.65687E-20
1.71338E-04 4.30093E-20
1.94942E-04 3.32887E-20
2.20070E-04 2.61722E-20
2.46720E-04 2.08647E-20
2.74892E-04 1.68411E-20
3.04586E-04 1.37451E-20
3.35803E-04 1.13317E-20
3.68542E-04 9.42717E-21
4.02802E-04 7.90803E-21
4.38585E-04 6.68419E-21
4.75889E-04 5.68913E-21
5.14715E-04 4.87337E-21
5.55063E-04 4.19931E-21
5.96931E-04 3.63841E-21
6.40321E-04 3.16852E-21
6.85233E-04 2.77243E-21
7.31665E-04 2.43665E-21
7.79618E-04 2.15042E-21
8.29092E-04 1.90523E-21
8.80086E-04 1.69423E-21
9.32601E-04 1.51171E-21
9.86636E-04 1.35314E-21
1.04219E-03 1.21490E-21
1.09927E-03 1.09393E-21
1.15786E-03 9.87698E-22
1.21797E-03 8.94089E-22
1.27961E-03 8.11338E-22
1.34276E-03 7.37961E-22
1.40743E-03 6.72710E-22
1.47362E-03 6.14521E-22
1.54133E-03 5.62495E-22
1.61056E-03 5.15861E-22
1.68131E-03 4.73960E-22
1.75357E-03 4.36224E-22
1.82735E-03 4.02164E-22
1.90265E-03 3.71357E-22
1.97947E-03 3.43437E-22
2.05780E-03 3.18082E-22
2.13765E-03 2.95016E-22
2.21902E-03 2.73992E-22
2.30190E-03 2.54798E-22
2.38630E-03 2.37245E-22
2.47222E-03 2.21167E-22
2.55965E-03 2.06417E-22
2.64859E-03 1.92865E-22
2.73905E-03 1.80397E-22
2.83103E-03 1.68910E-22
2.92452E-03 1.58312E-22
3.01952E-03 1.48522E-22
3.11604E-03 1.39466E-22
3.21407E-03 1.31081E-22
3.31362E-03 1.23307E-22
3.41468E-03 1.16091E-22
3.51725E-03 1.09386E-22
3.62133E-03 1.03150E-22
3.72692E-03 9.73427E-23
3.83403E-03 9.19302E-23
3.94265E-03 8.68805E-23
4.05278E-03 8.21649E-23
4.16442E-03 7.77573E-23
4.27757E-03 7.36340E-23
4.39223E-03 6.97732E-23
4.50840E-03 6.61552E-23
4.62608E-03 6.27621E-23
4.74527E-03 5.95773E-23
4.86597E-03 5.65857E-23
4.98817E-03 5.37735E-23
5.11188E-03 5.11281E-23
5.23711E-03 4.86378E-23
5.36383E-03 4.62918E-23
5.49207E-03 4.40804E-23
5.62181E-03 4.19944E-23
5.75306E-03 4.00256E-23
5.88581E-03 3.81660E-23
6.02007E-03 3.64087E-23
6.15583E-03 3.47471E-23
6.29310E-03 3.31749E-23
6.43187E-03 3.16866E-23
6.57214E-03 3.02769E-23
6.71392E-03 2.89410E-23
6.85720E-03 2.76743E-23
7.00198E-03 2.64726E-23
7.14827E-03 2.53320E-23
7.29605E-03 2.42490E-23
7.44534E-03 2.32200E-23
7.59612E-03 2.22420E-23
7.97965E-03 2.00010E-23
8.37255E-03 1.80197E-23
8.77480E-03 1.62634E-23
9.18641E-03 1.47029E-23
9.60736E-03 1.33130E-23
1.00376E-02 1.20724E-23
1.04773E-02 1.09628E-23
1.09262E-02 9.96842E-24
1.13844E-02 9.07560E-24
1.18520E-02 8.27257E-24
1.23288E-02 7.54907E-24
1.28150E-02 6.89618E-24
1.33104E-02 6.30610E-24
1.38150E-02 5.77203E-24
1.43290E-02 5.28797E-24
1.48521E-02 4.84867E-24
1.53845E-02 4.44948E-24
1.59262E-02 4.08631E-24
1.64770E-02 3.75553E-24
1.70371E-02 3.45392E-24
1.76063E-02 3.17863E-24
1.81848E-02 2.92710E-24
1.87724E-02 2.69708E-24
1.93692E-02 2.48652E-24
1.99751E-02 2.29362E-24
2.05901E-02 2.11676E-24
2.12143E-02 1.95446E-24
2.18476E-02 1.80542E-24
2.24900E-02 1.66846E-24
2.31415E-02 1.54252E-24
2.38021E-02 1.42662E-24
2.44717E-02 1.31992E-24
2.51504E-02 1.22161E-24
2.58382E-02 1.13098E-24
2.65349E-02 1.04740E-24
2.72407E-02 9.70274E-25
2.79555E-02 8.99068E-25
2.86793E-02 8.33299E-25
2.94120E-02 7.72524E-25
3.01537E-02 7.16342E-25
3.09043E-02 6.64385E-25
3.16639E-02 6.16318E-25
3.24324E-02 5.71832E-25
3.32098E-02 5.30649E-25
3.39961E-02 4.92510E-25
3.47912E-02 4.57180E-25
3.55952E-02 4.24444E-25
3.64081E-02 3.94102E-25
3.72297E-02 3.65972E-25
3.80602E-02 3.39888E-25
3.88995E-02 3.15696E-25
3.97476E-02 2.93253E-25
4.06044E-02 2.72429E-25
4.14700E-02 2.53105E-25
4.23443E-02 2.35169E-25
4.32273E-02 2.18519E-25
4.41190E-02 2.03062E-25
4.50194E-02 1.88709E-25
4.59284E-02 1.75380E-25
4.68461E-02 1.63002E-25
4.87074E-02 1.40825E-25
5.06030E-02 1.21689E-25
5.25328E-02 1.05174E-25
5.44967E-02 9.09169E-26
5.64946E-02 7.86098E-26
5.85262E-02 6.79854E-26
6.05914E-02 5.88140E-26
6.26901E-02 5.08977E-26
6.48222E-02 4.40655E-26
6.69873E-02 3.81700E-26
6.91854E-02 3.30835E-26
7.14163E-02 2.86959E-26
7.36799E-02 2.49119E-26
7.59760E-02 2.16490E-26
7.83043E-02 1.88359E-26
8.06647E-02 1.64108E-26
8.30571E-02 1.43204E-26
8.54812E-02 1.25184E-26
8.79369E-02 1.09649E-26
9.04240E-02 9.62537E-27
9.29422E-02 8.46983E-27
9.54915E-02 7.47252E-27
9.80716E-02 6.61115E-27
1.00682E-01 5.86651E-27
1.03323E-01 5.22201E-27
1.05995E-01 4.66338E-27
1.08696E-01 4.17834E-27
1.11427E-01 3.75631E-27
1.14188E-01 3.38823E-27
1.16978E-01 3.06632E-27
1.19797E-01 2.78393E-27
1.22645E-01 2.53534E-27
1.25522E-01 2.31571E-27
1.28428E-01 2.12086E-27
1.31361E-01 1.94727E-27
1.34323E-01 1.79194E-27
1.37313E-01 1.65231E-27
1.40330E-01 1.52622E-27
1.43375E-01 1.41184E-27
1.46447E-01 1.30763E-27
1.49545E-01 1.21228E-27
1.52671E-01 1.12468E-27
1.55823E-01 1.04392E-27
1.59001E-01 9.69215E-28
1.62205E-01 8.99903E-28
1.65435E-01 8.35433E-28
1.68690E-01 7.75338E-28
1.71970E-01 7.19222E-28
1.75276E-01 6.66749E-28
1.78606E-01 6.17634E-28
1.81961E-01 5.71632E-28
1.85340E-01 5.28530E-28
1.88743E-01 4.88142E-28
1.92169E-01 4.50307E-28
1.95619E-01 4.14879E-28
1.99092E-01 3.81727E-28
2.02589E-01 3.50732E-28
2.06107E-01 3.21784E-28
2.09649E-01 2.94780E-28
2.13212E-01 2.69623E-28
2.16797E-01 2.46222E-28
2.20404E-01 2.24487E-28
2.24032E-01 2.04335E-28
2.27680E-01 1.85684E-28
2.31350E-01 1.68453E-28
2.35040E-01 1.52565E-28
2.38751E-01 1.37946E-28
2.42481E-01 1.24522E-28
2.46231E-01 1.12222E-28
2.50000E-01 1.00977E-28
2.53788E-01 9.07192E-29
2.57595E-01 8.13849E-29
2.61421E-01 7.29110E-29
2.65264E-01 6.52373E-29
2.69126E-01 5.83059E-29
2.73005E-01 5.20612E-29
2.76901E-01 4.64503E-29
2.80814E-01 4.14226E-29
2.84744E-01 3.69300E-29
2.88691E-01 3.29272E-29
2.92653E-01 2.93712E-29
2.96632E-01 2.62215E-29
3.00625E-01 2.34401E-29
3.04634E-01 2.09917E-29
3.08658E-01 1.88431E-29
3.12697E-01 1.69634E-29
3.16749E-01 1.53242E-29
3.20816E-01 1.38991E-29
3.24896E-01 1.26638E-29
3.28990E-01 1.15961E-29
3.33097E-01 1.06757E-29
3.37216E-01 9.88401E-30
3.41348E-01 9.20427E-30
3.45492E-01 8.62130E-30
3.49647E-01 8.12146E-30
3.53814E-01 7.69252E-30
3.57992E-01 7.32357E-30
3.62181E-01 7.00497E-30
3.66381E-01 6.72817E-30
3.70590E-01 6.48571E-30
3.74810E-01 6.27106E-30
3.79039E-01 6.07860E-30
3.83277E-01 5.90348E-30
3.87524E-01 5.74159E-30
3.91780E-01 5.58947E-30
3.96044E-01 5.44424E-30
4.00316E-01 5.30353E-30
4.04596E-01 5.16546E-30
4.08882E-01 5.02853E-30
4.13176E-01 4.89161E-30
4.17476E-01 4.75386E-30
4.21783E-01 4.61474E-30
4.26095E-01 4.47389E-30
4.30413E-01 4.33119E-30
4.34737E-01 4.18663E-30
4.39065E-01 4.04037E-30
4.43398E-01 3.89264E-30
4.47736E-01 3.74378E-30
4.52077E-01 3.59417E-30
4.56422E-01 3.44424E-30
4.60770E-01 3.29444E-30
4.65122E-01 3.14525E-30
4.69476E-01 2.99712E-30
4.73832E-01 2.85052E-30
4.78190E-01 2.70590E-30
4.82550E-01 2.56367E-30
4.86912E-01 2.42425E-30
4.91274E-01 2.28799E-30
4.95637E-01 2.15523E-30
5.00000E-01 2.02626E-30
5.04363E-01 1.90134E-30
5.08726E-01 1.78069E-30
5.13088E-01 1.66450E-30
5.17450E-01 1.55292E-30
5.21810E-01 1.44606E-30
5.26168E-01 1.34400E-30
5.30524E-01 1.24679E-30
5.34878E-01 1.15444E-30
5.39230E-01 1.06695E-30
5.43578E-01 9.84270E-31
5.47923E-01 9.06348E-31
5.52264E-01 8.33101E-31
5.56602E-01 7.64429E-31
5.60935E-01 7.00216E-31
5.65263E-01 6.40329E-31
5.69587E-01 5.84625E-31
5.73905E-01 5.32951E-31
5.78217E-01 4.85145E-31
5.82524E-01 4.41039E-31
5.86824E-01 4.00458E-31
5.91118E-01 3.63228E-31
5.95404E-01 3.29170E-31
5.99684E-01 2.98106E-31
6.03956E-01 2.69859E-31
6.08220E-01 2.44254E-31
6.12476E-01 2.21118E-31
6.16723E-01 2.00283E-31
6.20961E-01 1.81585E-31
6.25190E-01 1.64864E-31
6.29410E-01 1.49968E-31
6.33619E-01 1.36749E-31
6.37819E-01 1.25066E-31
6.42008E-01 1.14784E-31
6.46186E-01 1.05777E-31
6.50353E-01 9.79236E-32
6.54508E-01 9.11101E-32
6.58652E-01 8.52300E-32
6.62784E-01 8.01835E-32
6.66903E-01 7.58775E-32
6.71010E-01 7.22257E-32
6.75104E-01 6.91482E-32
6.79184E-01 6.65715E-32
6.83251E-01 6.44281E-32
6.87303E-01 6.26560E-32
6.91342E-01 6.11993E-32
6.95366E-01 6.00071E-32
6.99375E-01 5.90333E-32
7.03368E-01 5.82369E-32
7.07347E-01 5.75813E-32
7.11309E-01 5.70337E-32
7.15256E-01 5.65656E-32
7.19186E-01 5.61520E-32
7.23099E-01 5.57711E-32
7.26995E-01 5.54043E-32
7.30874E-01 5.50359E-32
7.34736E-01 5.46525E-32
7.38579E-01 5.42434E-32
7.42405E-01 5.37997E-32
7.46212E-01 5.33147E-32
7.50000E-01 5.27832E-32
7.53769E-01 5.22015E-32
7.57519E-01 5.15676E-32
7.61249E-01 5.08803E-32
7.64960E-01 5.01395E-32
7.68650E-01 4.93461E-32
7.72320E-01 4.85017E-32
7.75968E-01 4.76085E-32
7.79596E-01 4.66693E-32
7.83203E-01 4.56873E-32
7.86788E-01 4.46659E-32
7.90351E-01 4.36089E-32
7.93893E-01 4.25204E-32
7.97411E-01 4.14042E-32
8.00908E-01 4.02645E-32
8.04381E-01 3.91055E-32
8.07831E-01 3.79311E-32
8.11257E-01 3.67455E-32
8.14660E-01 3.55524E-32
8.18039E-01 3.43555E-32
8.21394E-01 3.31586E-32
8.24724E-01 3.19650E-32
8.28030E-01 3.07778E-32
8.31310E-01 2.96002E-32
8.34565E-01 2.84349E-32
8.37795E-01 2.72844E-32
8.40999E-01 2.61513E-32
8.44177E-01 2.50375E-32
8.47329E-01 2.39451E-32
8.50455E-01 2.28758E-32
8.53553E-01 2.18311E-32
8.56625E-01 2.08124E-32
8.59670E-01 1.98207E-32
8.62687E-01 1.88570E-32
8.65677E-01 1.79221E-32
8.68639E-01 1.70167E-32
8.71572E-01 1.61411E-32
8.74478E-01 1.52956E-32
8.77355E-01 1.44806E-32
8.80203E-01 1.36959E-32
8.83022E-01 1.29415E-32
8.85812E-01 1.22173E-32
8.88573E-01 1.15230E-32
8.91304E-01 1.08582E-32
8.94005E-01 1.02225E-32
8.96677E-01 9.61530E-33
8.99318E-01 9.03614E-33
9.01928E-01 8.48434E-33
9.04508E-01 7.95925E-33
9.07058E-01 7.46014E-33
9.09576E-01 6.98627E-33
9.12063E-01 6.53688E-33
9.14519E-01 6.11115E-33
9.16943E-01 5.70829E-33
9.19335E-01 5.32748E-33
9.21696E-01 4.96788E-33
9.24024E-01 4.62867E-33
9.26320E-01 4.30903E-33
9.28584E-01 4.00812E-33
9.30815E-01 3.72513E-33
9.33013E-01 3.45926E-33
9.35178E-01 3.20972E-33
9.37310E-01 2.97572E-33
9.39409E-01 2.75652E-33
9.41474E-01 2.55137E-33
9.43505E-01 2.35955E-33
9.45503E-01 2.18036E-33
9.47467E-01 2.01312E-33
9.49397E-01 1.85718E-33
9.51293E-01 1.71190E-33
9.53154E-01 1.57668E-33
9.54981E-01 1.45093E-33
9.56773E-01 1.33409E-33
9.58530E-01 1.22562E-33
9.60252E-01 1.12502E-33
9.61940E-01 1.03178E-33
9.63592E-01 9.45446E-34
9.65209E-01 8.65570E-34
9.66790E-01 7.91729E-34
9.68336E-01 7.23524E-34
9.69846E-01 6.60576E-34
9.71321E-01 6.02525E-34
9.72759E-01 5.49033E-34
9.74162E-01 4.99779E-34
9.75528E-01 4.54464E-34
9.76858E-01 4.12805E-34
9.78152E-01 3.74534E-34
9.79410E-01 3.39403E-34
9.80631E-01 3.07177E-34
9.81815E-01 2.77638E-34
9.82963E-01 2.50583E-34
9.84074E-01 2.25819E-34
9.85148E-01 2.03170E-34
9.86185E-01 1.82470E-34
9.87185E-01 1.63566E-34
9.88148E-01 1.46314E-34
9.89074E-01 1.30583E-34
9.89962E-01 1.16251E-34
9.90814E-01 1.03204E-34
9.91627E-01 9.13380E-35
9.92404E-01 8.05573E-35
9.93143E-01 7.07741E-35
9.93844E-01 6.19068E-35
9.94508E-01 5.38813E-35
9.95134E-01 4.66301E-35
9.95722E-01 4.00911E-35
9.96273E-01 3.42082E-35
9.96786E-01 2.89306E-35
9.97261E-01 2.42122E-35
9.97698E-01 2.00117E-35
9.98097E-01 1.62918E-35
9.98459E-01 1.30198E-35
9.98782E-01 1.01665E-35
9.99067E-01 7.70649E-36
9.99315E-01 5.61727E-36
9.99524E-01 3.88063E-36
9.99695E-01 2.48057E-36
9.99829E-01 1.40456E-36
9.99924E-01 6.42917E-37
9.99981E-01 1.88610E-37
1.00000E+00 3.76580E-38
