 #
 # Subroutine ELSEPA. Elastic scattering of electrons and positrons
 #                    by neutral atoms and positive ions
 #
 # Projectile: electron
 # Kinetic energy = 1.50000E+07 eV = 5.51240E+05 a.u.
 #
 # WARNING: High-energy factorization with free-atom DF screening.
 #          Absorption, polarization and exchange corrections are
 #          switched off.
 #          Phase shifts are calculated for the bare nucleus.
 #          Scattering amplitudes are not evaluated.
 #
 # Element: Rn,  Z =  86,  atomic weight = 2.22018E+02 g/mol
 #
 # Nuclear model: Fermi distribution
 #                Average radius = 6.47907E-13 cm
 #                Skin thickness = 5.46000E-14 cm
 #
 # Number of electrons = 86
 #
 # Total elastic cross section = 9.60003E-18 cm**2 = 3.42823E-01 a0**2
 # 1st transport cross section = 5.72514E-23 cm**2 = 2.04448E-06 a0**2
 # 2nd transport cross section = 1.58396E-22 cm**2 = 5.65641E-06 a0**2
 #
 #
 # Differential cross section:                       MU=(1-COS(THETA))/2
 #
 #  THETA        MU          DCS          DCS        Sherman      error
 #  (deg)                 (cm**2/sr)   (a0**2/sr)    function
 #----------------------------------------------------------------------
0.00000E+00 1.54637E-11
7.61557E-13 1.54630E-11
1.18994E-12 1.54627E-11
1.71346E-12 1.54622E-11
2.33225E-12 1.54617E-11
3.04617E-12 1.54611E-11
3.85530E-12 1.54604E-11
4.75964E-12 1.54596E-11
5.75917E-12 1.54588E-11
6.85391E-12 1.54579E-11
8.04379E-12 1.54569E-11
9.32893E-12 1.54558E-11
1.07092E-11 1.54546E-11
1.21847E-11 1.54534E-11
1.37554E-11 1.54521E-11
1.54213E-11 1.54507E-11
1.71823E-11 1.54492E-11
1.90386E-11 1.54476E-11
2.09900E-11 1.54460E-11
2.30367E-11 1.54442E-11
2.51785E-11 1.54424E-11
2.74156E-11 1.54406E-11
2.97478E-11 1.54386E-11
3.21752E-11 1.54366E-11
3.46979E-11 1.54345E-11
3.73157E-11 1.54323E-11
4.00286E-11 1.54300E-11
4.28368E-11 1.54276E-11
4.57402E-11 1.54252E-11
4.87388E-11 1.54227E-11
5.18325E-11 1.54201E-11
5.50215E-11 1.54174E-11
5.83057E-11 1.54147E-11
6.16850E-11 1.54118E-11
6.51595E-11 1.54089E-11
6.87293E-11 1.54059E-11
7.23943E-11 1.54029E-11
7.61544E-11 1.53997E-11
1.18991E-10 1.53640E-11
1.71347E-10 1.53205E-11
2.33223E-10 1.52694E-11
3.04617E-10 1.52107E-11
3.85531E-10 1.51446E-11
4.75965E-10 1.50713E-11
5.75917E-10 1.49909E-11
6.85389E-10 1.49036E-11
8.04380E-10 1.48095E-11
9.32891E-10 1.47090E-11
1.07092E-09 1.46009E-11
1.21847E-09 1.44874E-11
1.37554E-09 1.43695E-11
1.54213E-09 1.42458E-11
1.71823E-09 1.41146E-11
1.90386E-09 1.39800E-11
2.09900E-09 1.38425E-11
2.30367E-09 1.36972E-11
2.51785E-09 1.35480E-11
2.74156E-09 1.33970E-11
2.97478E-09 1.32427E-11
3.21752E-09 1.30810E-11
3.46978E-09 1.29187E-11
3.73156E-09 1.27559E-11
4.00286E-09 1.25869E-11
4.28368E-09 1.24154E-11
4.57402E-09 1.22445E-11
4.87388E-09 1.20732E-11
5.18326E-09 1.18946E-11
5.50215E-09 1.17177E-11
5.83057E-09 1.15426E-11
6.16850E-09 1.13634E-11
6.51596E-09 1.11824E-11
6.87293E-09 1.10041E-11
7.23942E-09 1.08279E-11
7.61544E-09 1.06449E-11
1.18991E-08 8.89450E-12
1.71347E-08 7.30713E-12
2.33223E-08 5.94807E-12
3.04617E-08 4.83056E-12
3.85531E-08 3.93242E-12
4.75965E-08 3.21922E-12
5.75917E-08 2.65523E-12
6.85389E-08 2.20837E-12
8.04380E-08 1.85264E-12
9.32891E-08 1.56743E-12
1.07092E-07 1.32690E-12
1.21847E-07 1.13689E-12
1.37554E-07 9.86710E-13
1.54213E-07 8.61177E-13
1.71823E-07 7.49140E-13
1.90386E-07 6.58227E-13
2.09900E-07 5.83677E-13
2.30367E-07 5.15595E-13
2.51785E-07 4.57309E-13
2.74156E-07 4.08589E-13
2.97478E-07 3.66542E-13
3.21752E-07 3.27783E-13
3.46978E-07 2.94862E-13
3.73156E-07 2.66719E-13
4.00286E-07 2.41045E-13
4.28368E-07 2.18289E-13
4.57402E-07 1.98588E-13
4.87388E-07 1.81276E-13
5.18325E-07 1.65230E-13
5.50215E-07 1.51183E-13
5.83057E-07 1.38833E-13
6.16850E-07 1.27553E-13
6.51596E-07 1.17344E-13
6.87293E-07 1.08287E-13
7.23942E-07 1.00198E-13
7.61543E-07 9.26299E-14
1.18991E-06 4.62140E-14
1.71347E-06 2.54990E-14
2.33223E-06 1.51042E-14
3.04617E-06 9.46875E-15
3.85531E-06 6.24986E-15
4.75964E-06 4.29901E-15
5.75916E-06 3.05711E-15
6.85388E-06 2.23617E-15
8.04378E-06 1.67447E-15
9.32888E-06 1.27877E-15
1.07092E-05 9.92779E-16
1.21846E-05 7.83479E-16
1.37553E-05 6.26934E-16
1.54212E-05 5.07203E-16
1.71822E-05 4.15000E-16
1.90385E-05 3.42762E-16
2.09899E-05 2.85912E-16
2.30365E-05 2.40311E-16
2.51783E-05 2.03429E-16
2.74153E-05 1.73310E-16
2.97475E-05 1.48479E-16
3.21749E-05 1.27955E-16
3.46974E-05 1.10877E-16
3.73152E-05 9.65433E-17
4.00281E-05 8.44622E-17
4.28362E-05 7.42227E-17
4.57395E-05 6.54847E-17
4.87380E-05 5.79859E-17
5.18317E-05 5.15309E-17
5.50205E-05 4.59501E-17
5.83045E-05 4.10993E-17
6.16838E-05 3.68751E-17
6.51582E-05 3.31834E-17
6.87277E-05 2.99433E-17
7.23925E-05 2.70901E-17
7.61524E-05 2.45672E-17
9.21439E-05 1.70013E-17
1.09658E-04 1.21399E-17
1.28695E-04 8.90055E-18
1.49255E-04 6.67354E-18
1.71338E-04 5.10157E-18
1.94942E-04 3.96627E-18
2.20070E-04 3.12980E-18
2.46720E-04 2.50252E-18
2.74892E-04 2.02478E-18
3.04586E-04 1.65576E-18
3.35803E-04 1.36713E-18
3.68542E-04 1.13875E-18
4.02802E-04 9.56154E-19
4.38585E-04 8.08766E-19
4.75889E-04 6.88737E-19
5.14715E-04 5.90207E-19
5.55063E-04 5.08704E-19
5.96931E-04 4.40823E-19
6.40321E-04 3.83916E-19
6.85233E-04 3.35919E-19
7.31665E-04 2.95211E-19
7.79618E-04 2.60499E-19
8.29092E-04 2.30755E-19
8.80086E-04 2.05148E-19
9.32601E-04 1.83005E-19
9.86636E-04 1.63779E-19
1.04219E-03 1.47019E-19
1.09927E-03 1.32356E-19
1.15786E-03 1.19481E-19
1.21797E-03 1.08139E-19
1.27961E-03 9.81155E-20
1.34276E-03 8.92307E-20
1.40743E-03 8.13327E-20
1.47362E-03 7.42923E-20
1.54133E-03 6.80004E-20
1.61056E-03 6.23628E-20
1.68131E-03 5.72997E-20
1.75357E-03 5.27421E-20
1.82735E-03 4.86306E-20
1.90265E-03 4.49137E-20
1.97947E-03 4.15466E-20
2.05780E-03 3.84907E-20
2.13765E-03 3.57118E-20
2.21902E-03 3.31804E-20
2.30190E-03 3.08704E-20
2.38630E-03 2.87589E-20
2.47222E-03 2.68258E-20
2.55965E-03 2.50533E-20
2.64859E-03 2.34256E-20
2.73905E-03 2.19286E-20
2.83103E-03 2.05500E-20
2.92452E-03 1.92787E-20
3.01952E-03 1.81047E-20
3.11604E-03 1.70194E-20
3.21407E-03 1.60146E-20
3.31362E-03 1.50834E-20
3.41468E-03 1.42194E-20
3.51725E-03 1.34167E-20
3.62133E-03 1.26703E-20
3.72692E-03 1.19754E-20
3.83403E-03 1.13279E-20
3.94265E-03 1.07239E-20
4.05278E-03 1.01600E-20
4.16442E-03 9.63287E-21
4.27757E-03 9.13979E-21
4.39223E-03 8.67813E-21
4.50840E-03 8.24549E-21
4.62608E-03 7.83971E-21
4.74527E-03 7.45882E-21
4.86597E-03 7.10098E-21
4.98817E-03 6.76455E-21
5.11188E-03 6.44800E-21
5.23711E-03 6.14992E-21
5.36383E-03 5.86905E-21
5.49207E-03 5.60419E-21
5.62181E-03 5.35425E-21
5.75306E-03 5.11825E-21
5.88581E-03 4.89523E-21
6.02007E-03 4.68437E-21
6.15583E-03 4.48487E-21
6.29310E-03 4.29599E-21
6.43187E-03 4.11707E-21
6.57214E-03 3.94749E-21
6.71392E-03 3.78664E-21
6.85720E-03 3.63401E-21
7.00198E-03 3.48908E-21
7.14827E-03 3.35140E-21
7.29605E-03 3.22054E-21
7.44534E-03 3.09608E-21
7.59612E-03 2.97766E-21
7.97965E-03 2.70576E-21
8.37255E-03 2.46461E-21
8.77480E-03 2.25010E-21
9.18641E-03 2.05876E-21
9.60736E-03 1.88762E-21
1.00376E-02 1.73418E-21
1.04773E-02 1.59626E-21
1.09262E-02 1.47201E-21
1.13844E-02 1.35982E-21
1.18520E-02 1.25831E-21
1.23288E-02 1.16626E-21
1.28150E-02 1.08264E-21
1.33104E-02 1.00652E-21
1.38150E-02 9.37107E-22
1.43290E-02 8.73699E-22
1.48521E-02 8.15676E-22
1.53845E-02 7.62494E-22
1.59262E-02 7.13671E-22
1.64770E-02 6.68783E-22
1.70371E-02 6.27450E-22
1.76063E-02 5.89338E-22
1.81848E-02 5.54145E-22
1.87724E-02 5.21605E-22
1.93692E-02 4.91479E-22
1.99751E-02 4.63553E-22
2.05901E-02 4.37635E-22
2.12143E-02 4.13551E-22
2.18476E-02 3.91146E-22
2.24900E-02 3.70280E-22
2.31415E-02 3.50827E-22
2.38021E-02 3.32671E-22
2.44717E-02 3.15709E-22
2.51504E-02 2.99846E-22
2.58382E-02 2.84997E-22
2.65349E-02 2.71084E-22
2.72407E-02 2.58035E-22
2.79555E-02 2.45787E-22
2.86793E-02 2.34280E-22
2.94120E-02 2.23461E-22
3.01537E-02 2.13278E-22
3.09043E-02 2.03689E-22
3.16639E-02 1.94650E-22
3.24324E-02 1.86124E-22
3.32098E-02 1.78075E-22
3.39961E-02 1.70472E-22
3.47912E-02 1.63284E-22
3.55952E-02 1.56484E-22
3.64081E-02 1.50048E-22
3.72297E-02 1.43950E-22
3.80602E-02 1.38169E-22
3.88995E-02 1.32687E-22
3.97476E-02 1.27484E-22
4.06044E-02 1.22543E-22
4.14700E-02 1.17847E-22
4.23443E-02 1.13382E-22
4.32273E-02 1.09135E-22
4.41190E-02 1.05092E-22
4.50194E-02 1.01242E-22
4.59284E-02 9.75728E-23
4.68461E-02 9.40749E-23
4.87074E-02 8.75534E-23
5.06030E-02 8.16082E-23
5.25328E-02 7.61771E-23
5.44967E-02 7.12071E-23
5.64946E-02 6.66506E-23
5.85262E-02 6.24663E-23
6.05914E-02 5.86172E-23
6.26901E-02 5.50711E-23
6.48222E-02 5.17989E-23
6.69873E-02 4.87751E-23
6.91854E-02 4.59768E-23
7.14163E-02 4.33836E-23
7.36799E-02 4.09773E-23
7.59760E-02 3.87415E-23
7.83043E-02 3.66616E-23
8.06647E-02 3.47244E-23
8.30571E-02 3.29179E-23
8.54812E-02 3.12314E-23
8.79369E-02 2.96552E-23
9.04240E-02 2.81806E-23
9.29422E-02 2.67996E-23
9.54915E-02 2.55049E-23
9.80716E-02 2.42900E-23
1.00682E-01 2.31489E-23
1.03323E-01 2.20762E-23
1.05995E-01 2.10668E-23
1.08696E-01 2.01163E-23
1.11427E-01 1.92205E-23
1.14188E-01 1.83757E-23
1.16978E-01 1.75774E-23
1.19797E-01 1.68228E-23
1.22645E-01 1.61093E-23
1.25522E-01 1.54341E-23
1.28428E-01 1.47948E-23
1.31361E-01 1.41889E-23
1.34323E-01 1.36145E-23
1.37313E-01 1.30694E-23
1.40330E-01 1.25518E-23
1.43375E-01 1.20601E-23
1.46447E-01 1.15927E-23
1.49545E-01 1.11480E-23
1.52671E-01 1.07249E-23
1.55823E-01 1.03218E-23
1.59001E-01 9.93784E-24
1.62205E-01 9.57174E-24
1.65435E-01 9.22253E-24
1.68690E-01 8.88926E-24
1.71970E-01 8.57104E-24
1.75276E-01 8.26704E-24
1.78606E-01 7.97648E-24
1.81961E-01 7.69864E-24
1.85340E-01 7.43285E-24
1.88743E-01 7.17845E-24
1.92169E-01 6.93486E-24
1.95619E-01 6.70152E-24
1.99092E-01 6.47790E-24
2.02589E-01 6.26351E-24
2.06107E-01 6.05788E-24
2.09649E-01 5.86058E-24
2.13212E-01 5.67120E-24
2.16797E-01 5.48935E-24
2.20404E-01 5.31467E-24
2.24032E-01 5.14680E-24
2.27680E-01 4.98544E-24
2.31350E-01 4.83027E-24
2.35040E-01 4.68100E-24
2.38751E-01 4.53736E-24
2.42481E-01 4.39910E-24
2.46231E-01 4.26597E-24
2.50000E-01 4.13774E-24
2.53788E-01 4.01418E-24
2.57595E-01 3.89510E-24
2.61421E-01 3.78030E-24
2.65264E-01 3.66959E-24
2.69126E-01 3.56279E-24
2.73005E-01 3.45974E-24
2.76901E-01 3.36027E-24
2.80814E-01 3.26425E-24
2.84744E-01 3.17151E-24
2.88691E-01 3.08194E-24
2.92653E-01 2.99539E-24
2.96632E-01 2.91175E-24
3.00625E-01 2.83089E-24
3.04634E-01 2.75270E-24
3.08658E-01 2.67709E-24
3.12697E-01 2.60394E-24
3.16749E-01 2.53316E-24
3.20816E-01 2.46466E-24
3.24896E-01 2.39835E-24
3.28990E-01 2.33414E-24
3.33097E-01 2.27195E-24
3.37216E-01 2.21172E-24
3.41348E-01 2.15336E-24
3.45492E-01 2.09681E-24
3.49647E-01 2.04199E-24
3.53814E-01 1.98885E-24
3.57992E-01 1.93732E-24
3.62181E-01 1.88734E-24
3.66381E-01 1.83886E-24
3.70590E-01 1.79183E-24
3.74810E-01 1.74619E-24
3.79039E-01 1.70189E-24
3.83277E-01 1.65890E-24
3.87524E-01 1.61715E-24
3.91780E-01 1.57661E-24
3.96044E-01 1.53723E-24
4.00316E-01 1.49899E-24
4.04596E-01 1.46183E-24
4.08882E-01 1.42572E-24
4.13176E-01 1.39063E-24
4.17476E-01 1.35652E-24
4.21783E-01 1.32335E-24
4.26095E-01 1.29111E-24
4.30413E-01 1.25975E-24
4.34737E-01 1.22926E-24
4.39065E-01 1.19959E-24
4.43398E-01 1.17073E-24
4.47736E-01 1.14265E-24
4.52077E-01 1.11532E-24
4.56422E-01 1.08872E-24
4.60770E-01 1.06282E-24
4.65122E-01 1.03761E-24
4.69476E-01 1.01307E-24
4.73832E-01 9.89161E-25
4.78190E-01 9.65880E-25
4.82550E-01 9.43202E-25
4.86912E-01 9.21110E-25
4.91274E-01 8.99584E-25
4.95637E-01 8.78609E-25
5.00000E-01 8.58168E-25
5.04363E-01 8.38244E-25
5.08726E-01 8.18823E-25
5.13088E-01 7.99889E-25
5.17450E-01 7.81429E-25
5.21810E-01 7.63427E-25
5.26168E-01 7.45872E-25
5.30524E-01 7.28750E-25
5.34878E-01 7.12048E-25
5.39230E-01 6.95754E-25
5.43578E-01 6.79858E-25
5.47923E-01 6.64347E-25
5.52264E-01 6.49210E-25
5.56602E-01 6.34438E-25
5.60935E-01 6.20019E-25
5.65263E-01 6.05945E-25
5.69587E-01 5.92204E-25
5.73905E-01 5.78790E-25
5.78217E-01 5.65691E-25
5.82524E-01 5.52900E-25
5.86824E-01 5.40408E-25
5.91118E-01 5.28208E-25
5.95404E-01 5.16291E-25
5.99684E-01 5.04649E-25
6.03956E-01 4.93276E-25
6.08220E-01 4.82164E-25
6.12476E-01 4.71306E-25
6.16723E-01 4.60696E-25
6.20961E-01 4.50326E-25
6.25190E-01 4.40192E-25
6.29410E-01 4.30286E-25
6.33619E-01 4.20603E-25
6.37819E-01 4.11137E-25
6.42008E-01 4.01883E-25
6.46186E-01 3.92834E-25
6.50353E-01 3.83986E-25
6.54508E-01 3.75334E-25
6.58652E-01 3.66873E-25
6.62784E-01 3.58597E-25
6.66903E-01 3.50503E-25
6.71010E-01 3.42586E-25
6.75104E-01 3.34841E-25
6.79184E-01 3.27264E-25
6.83251E-01 3.19851E-25
6.87303E-01 3.12599E-25
6.91342E-01 3.05502E-25
6.95366E-01 2.98558E-25
6.99375E-01 2.91762E-25
7.03368E-01 2.85112E-25
7.07347E-01 2.78603E-25
7.11309E-01 2.72233E-25
7.15256E-01 2.65997E-25
7.19186E-01 2.59893E-25
7.23099E-01 2.53918E-25
7.26995E-01 2.48068E-25
7.30874E-01 2.42341E-25
7.34736E-01 2.36734E-25
7.38579E-01 2.31244E-25
7.42405E-01 2.25869E-25
7.46212E-01 2.20605E-25
7.50000E-01 2.15451E-25
7.53769E-01 2.10403E-25
7.57519E-01 2.05460E-25
7.61249E-01 2.00618E-25
7.64960E-01 1.95877E-25
7.68650E-01 1.91233E-25
7.72320E-01 1.86684E-25
7.75968E-01 1.82228E-25
7.79596E-01 1.77864E-25
7.83203E-01 1.73589E-25
7.86788E-01 1.69401E-25
7.90351E-01 1.65298E-25
7.93893E-01 1.61279E-25
7.97411E-01 1.57342E-25
8.00908E-01 1.53484E-25
8.04381E-01 1.49705E-25
8.07831E-01 1.46002E-25
8.11257E-01 1.42375E-25
8.14660E-01 1.38821E-25
8.18039E-01 1.35338E-25
8.21394E-01 1.31927E-25
8.24724E-01 1.28584E-25
8.28030E-01 1.25308E-25
8.31310E-01 1.22099E-25
8.34565E-01 1.18955E-25
8.37795E-01 1.15874E-25
8.40999E-01 1.12855E-25
8.44177E-01 1.09898E-25
8.47329E-01 1.07000E-25
8.50455E-01 1.04161E-25
8.53553E-01 1.01379E-25
8.56625E-01 9.86538E-26
8.59670E-01 9.59837E-26
8.62687E-01 9.33678E-26
8.65677E-01 9.08050E-26
8.68639E-01 8.82944E-26
8.71572E-01 8.58349E-26
8.74478E-01 8.34256E-26
8.77355E-01 8.10656E-26
8.80203E-01 7.87539E-26
8.83022E-01 7.64897E-26
8.85812E-01 7.42721E-26
8.88573E-01 7.21003E-26
8.91304E-01 6.99733E-26
8.94005E-01 6.78905E-26
8.96677E-01 6.58511E-26
8.99318E-01 6.38542E-26
9.01928E-01 6.18992E-26
9.04508E-01 5.99853E-26
9.07058E-01 5.81119E-26
9.09576E-01 5.62781E-26
9.12063E-01 5.44834E-26
9.14519E-01 5.27272E-26
9.16943E-01 5.10086E-26
9.19335E-01 4.93273E-26
9.21696E-01 4.76825E-26
9.24024E-01 4.60737E-26
9.26320E-01 4.45002E-26
9.28584E-01 4.29616E-26
9.30815E-01 4.14573E-26
9.33013E-01 3.99867E-26
9.35178E-01 3.85494E-26
9.37310E-01 3.71448E-26
9.39409E-01 3.57725E-26
9.41474E-01 3.44320E-26
9.43505E-01 3.31228E-26
9.45503E-01 3.18445E-26
9.47467E-01 3.05966E-26
9.49397E-01 2.93787E-26
9.51293E-01 2.81904E-26
9.53154E-01 2.70313E-26
9.54981E-01 2.59010E-26
9.56773E-01 2.47991E-26
9.58530E-01 2.37252E-26
9.60252E-01 2.26791E-26
9.61940E-01 2.16603E-26
9.63592E-01 2.06685E-26
9.65209E-01 1.97034E-26
9.66790E-01 1.87647E-26
9.68336E-01 1.78520E-26
9.69846E-01 1.69650E-26
9.71321E-01 1.61035E-26
9.72759E-01 1.52672E-26
9.74162E-01 1.44558E-26
9.75528E-01 1.36691E-26
9.76858E-01 1.29067E-26
9.78152E-01 1.21685E-26
9.79410E-01 1.14541E-26
9.80631E-01 1.07635E-26
9.81815E-01 1.00963E-26
9.82963E-01 9.45236E-27
9.84074E-01 8.83145E-27
9.85148E-01 8.23338E-27
9.86185E-01 7.65795E-27
9.87185E-01 7.10498E-27
9.88148E-01 6.57431E-27
9.89074E-01 6.06576E-27
9.89962E-01 5.57917E-27
9.90814E-01 5.11439E-27
9.91627E-01 4.67127E-27
9.92404E-01 4.24967E-27
9.93143E-01 3.84947E-27
9.93844E-01 3.47053E-27
9.94508E-01 3.11273E-27
9.95134E-01 2.77598E-27
9.95722E-01 2.46015E-27
9.96273E-01 2.16515E-27
9.96786E-01 1.89090E-27
9.97261E-01 1.63730E-27
9.97698E-01 1.40427E-27
9.98097E-01 1.19175E-27
9.98459E-01 9.99669E-28
9.98782E-01 8.27965E-28
9.99067E-01 6.76585E-28
9.99315E-01 5.45485E-28
9.99524E-01 4.34622E-28
9.99695E-01 3.43962E-28
9.99829E-01 2.73479E-28
9.99924E-01 2.23148E-28
9.99981E-01 1.92957E-28
1.00000E+00 1.82894E-28
