 #
 # Subroutine ELSEPA. Elastic scattering of electrons and positrons
 #                    by neutral atoms and positive ions
 #
 # Projectile: electron
 # Kinetic energy = 5.00000E+07 eV = 1.83747E+06 a.u.
 #
 # WARNING: High-energy factorization with free-atom DF screening.
 #          Absorption, polarization and exchange corrections are
 #          switched off.
 #          Phase shifts are calculated for the bare nucleus.
 #          Scattering amplitudes are not evaluated.
 #
 # Element: Rn,  Z =  86,  atomic weight = 2.22018E+02 g/mol
 #
 # Nuclear model: Fermi distribution
 #                Average radius = 6.47907E-13 cm
 #                Skin thickness = 5.46000E-14 cm
 #
 # Number of electrons = 86
 #
 # Total elastic cross section = 9.58784E-18 cm**2 = 3.42388E-01 a0**2
 # 1st transport cross section = 5.51697E-24 cm**2 = 1.97014E-07 a0**2
 # 2nd transport cross section = 1.61547E-23 cm**2 = 5.76895E-07 a0**2
 #
 #
 # Differential cross section:                       MU=(1-COS(THETA))/2
 #
 #  THETA        MU          DCS          DCS        Sherman      error
 #  (deg)                 (cm**2/sr)   (a0**2/sr)    function
 #----------------------------------------------------------------------
0.00000E+00 1.63986E-10
7.61557E-13 1.63913E-10
1.18994E-12 1.63872E-10
1.71346E-12 1.63822E-10
2.33225E-12 1.63764E-10
3.04617E-12 1.63696E-10
3.85530E-12 1.63619E-10
4.75964E-12 1.63534E-10
5.75917E-12 1.63440E-10
6.85391E-12 1.63337E-10
8.04379E-12 1.63225E-10
9.32893E-12 1.63104E-10
1.07092E-11 1.62974E-10
1.21847E-11 1.62836E-10
1.37554E-11 1.62689E-10
1.54213E-11 1.62533E-10
1.71823E-11 1.62369E-10
1.90386E-11 1.62196E-10
2.09900E-11 1.62015E-10
2.30367E-11 1.61825E-10
2.51785E-11 1.61626E-10
2.74156E-11 1.61419E-10
2.97478E-11 1.61204E-10
3.21752E-11 1.60981E-10
3.46979E-11 1.60749E-10
3.73157E-11 1.60509E-10
4.00286E-11 1.60261E-10
4.28368E-11 1.60004E-10
4.57402E-11 1.59740E-10
4.87388E-11 1.59468E-10
5.18325E-11 1.59188E-10
5.50215E-11 1.58900E-10
5.83057E-11 1.58605E-10
6.16850E-11 1.58301E-10
6.51595E-11 1.57990E-10
6.87293E-11 1.57672E-10
7.23943E-11 1.57346E-10
7.61544E-11 1.57013E-10
1.18991E-10 1.53271E-10
1.71347E-10 1.48897E-10
2.33223E-10 1.43974E-10
3.04617E-10 1.38603E-10
3.85531E-10 1.32886E-10
4.75965E-10 1.26924E-10
5.75917E-10 1.20810E-10
6.85389E-10 1.14630E-10
8.04380E-10 1.08448E-10
9.32891E-10 1.02326E-10
1.07092E-09 9.63395E-11
1.21847E-09 9.05347E-11
1.37554E-09 8.49469E-11
1.54213E-09 7.96022E-11
1.71823E-09 7.45185E-11
1.90386E-09 6.97062E-11
2.09900E-09 6.51697E-11
2.30367E-09 6.09084E-11
2.51785E-09 5.69178E-11
2.74156E-09 5.31904E-11
2.97478E-09 4.97163E-11
3.21752E-09 4.64765E-11
3.46978E-09 4.34667E-11
3.73156E-09 4.06747E-11
4.00286E-09 3.80868E-11
4.28368E-09 3.56892E-11
4.57402E-09 3.34687E-11
4.87388E-09 3.14123E-11
5.18326E-09 2.95078E-11
5.50215E-09 2.77435E-11
5.83057E-09 2.61085E-11
6.16850E-09 2.45925E-11
6.51596E-09 2.31861E-11
6.87293E-09 2.18798E-11
7.23942E-09 2.06649E-11
7.61544E-09 1.95355E-11
1.18991E-08 1.15532E-11
1.71347E-08 7.38959E-12
2.33223E-08 4.95911E-12
3.04617E-08 3.45059E-12
3.85531E-08 2.47350E-12
4.75965E-08 1.82000E-12
5.75917E-08 1.37075E-12
6.85389E-08 1.05386E-12
8.04380E-08 8.24458E-13
9.32891E-08 6.54600E-13
1.07092E-07 5.26555E-13
1.21847E-07 4.28293E-13
1.37554E-07 3.51744E-13
1.54213E-07 2.91354E-13
1.71823E-07 2.43202E-13
1.90386E-07 2.04458E-13
2.09900E-07 1.73071E-13
2.30367E-07 1.47432E-13
2.51785E-07 1.26228E-13
2.74156E-07 1.08717E-13
2.97478E-07 9.41748E-14
3.21752E-07 8.20112E-14
3.46978E-07 7.17765E-14
3.73156E-07 6.31082E-14
4.00286E-07 5.57211E-14
4.28368E-07 4.93911E-14
4.57402E-07 4.39406E-14
4.87388E-07 3.92270E-14
5.18325E-07 3.51343E-14
5.50215E-07 3.15674E-14
5.83057E-07 2.84469E-14
6.16850E-07 2.57068E-14
6.51596E-07 2.32917E-14
6.87293E-07 2.11551E-14
7.23942E-07 1.92580E-14
7.61543E-07 1.75692E-14
1.18991E-06 7.75912E-15
1.71347E-06 3.94981E-15
2.33223E-06 2.21894E-15
3.04617E-06 1.33983E-15
3.85531E-06 8.55617E-16
4.75964E-06 5.71496E-16
5.75916E-06 3.96045E-16
6.85388E-06 2.83125E-16
8.04378E-06 2.07794E-16
9.32888E-06 1.55961E-16
1.07092E-05 1.19346E-16
1.21846E-05 9.28818E-17
1.37553E-05 7.33629E-17
1.54212E-05 5.87096E-17
1.71822E-05 4.75371E-17
1.90385E-05 3.88728E-17
2.09899E-05 3.21372E-17
2.30365E-05 2.67923E-17
2.51783E-05 2.25053E-17
2.74153E-05 1.90356E-17
2.97475E-05 1.62065E-17
3.21749E-05 1.38835E-17
3.46974E-05 1.19634E-17
3.73152E-05 1.03655E-17
4.00281E-05 9.02685E-18
4.28362E-05 7.89801E-18
4.57395E-05 6.94018E-18
4.87380E-05 6.12296E-18
5.18317E-05 5.42223E-18
5.50205E-05 4.81871E-18
5.83045E-05 4.29683E-18
6.16838E-05 3.84383E-18
6.51582E-05 3.44913E-18
6.87277E-05 3.10396E-18
7.23925E-05 2.80103E-18
7.61524E-05 2.53306E-18
9.21439E-05 1.73720E-18
1.09658E-04 1.23094E-18
1.28695E-04 8.96550E-19
1.49255E-04 6.68445E-19
1.71338E-04 5.08546E-19
1.94942E-04 3.93767E-19
2.20070E-04 3.09644E-19
2.46720E-04 2.46854E-19
2.74892E-04 1.99222E-19
3.04586E-04 1.62554E-19
3.35803E-04 1.33960E-19
3.68542E-04 1.11393E-19
4.02802E-04 9.33914E-20
4.38585E-04 7.88901E-20
4.75889E-04 6.71016E-20
5.14715E-04 5.74400E-20
5.55063E-04 4.94595E-20
5.96931E-04 4.28216E-20
6.40321E-04 3.72634E-20
6.85233E-04 3.25808E-20
7.31665E-04 2.86134E-20
7.79618E-04 2.52336E-20
8.29092E-04 2.23401E-20
8.80086E-04 1.98511E-20
9.32601E-04 1.77005E-20
9.86636E-04 1.58345E-20
1.04219E-03 1.42090E-20
1.09927E-03 1.27878E-20
1.15786E-03 1.15407E-20
1.21797E-03 1.04427E-20
1.27961E-03 9.47281E-21
1.34276E-03 8.61353E-21
1.40743E-03 7.85006E-21
1.47362E-03 7.16976E-21
1.54133E-03 6.56203E-21
1.61056E-03 6.01772E-21
1.68131E-03 5.52904E-21
1.75357E-03 5.08929E-21
1.82735E-03 4.69269E-21
1.90265E-03 4.33425E-21
1.97947E-03 4.00961E-21
2.05780E-03 3.71503E-21
2.13765E-03 3.44722E-21
2.21902E-03 3.20329E-21
2.30190E-03 2.98072E-21
2.38630E-03 2.77731E-21
2.47222E-03 2.59111E-21
2.55965E-03 2.42038E-21
2.64859E-03 2.26360E-21
2.73905E-03 2.11943E-21
2.83103E-03 1.98666E-21
2.92452E-03 1.86421E-21
3.01952E-03 1.75115E-21
3.11604E-03 1.64661E-21
3.21407E-03 1.54983E-21
3.31362E-03 1.46013E-21
3.41468E-03 1.37690E-21
3.51725E-03 1.29956E-21
3.62133E-03 1.22764E-21
3.72692E-03 1.16068E-21
3.83403E-03 1.09827E-21
3.94265E-03 1.04005E-21
4.05278E-03 9.85677E-22
4.16442E-03 9.34847E-22
4.27757E-03 8.87290E-22
4.39223E-03 8.42757E-22
4.50840E-03 8.01011E-22
4.62608E-03 7.61850E-22
4.74527E-03 7.25083E-22
4.86597E-03 6.90531E-22
4.98817E-03 6.58039E-22
5.11188E-03 6.27459E-22
5.23711E-03 5.98656E-22
5.36383E-03 5.71508E-22
5.49207E-03 5.45900E-22
5.62181E-03 5.21728E-22
5.75306E-03 4.98897E-22
5.88581E-03 4.77317E-22
6.02007E-03 4.56905E-22
6.15583E-03 4.37587E-22
6.29310E-03 4.19293E-22
6.43187E-03 4.01956E-22
6.57214E-03 3.85519E-22
6.71392E-03 3.69924E-22
6.85720E-03 3.55120E-22
7.00198E-03 3.41058E-22
7.14827E-03 3.27695E-22
7.29605E-03 3.14989E-22
7.44534E-03 3.02901E-22
7.59612E-03 2.91394E-22
7.97965E-03 2.64960E-22
8.37255E-03 2.41492E-22
8.77480E-03 2.20598E-22
9.18641E-03 2.01943E-22
9.60736E-03 1.85244E-22
1.00376E-02 1.70258E-22
1.04773E-02 1.56778E-22
1.09262E-02 1.44624E-22
1.13844E-02 1.33628E-22
1.18520E-02 1.23668E-22
1.23288E-02 1.14630E-22
1.28150E-02 1.06410E-22
1.33104E-02 9.89218E-23
1.38150E-02 9.20869E-23
1.43290E-02 8.58376E-23
1.48521E-02 8.01141E-23
1.53845E-02 7.48636E-23
1.59262E-02 7.00396E-23
1.64770E-02 6.56008E-23
1.70371E-02 6.15103E-23
1.76063E-02 5.77357E-23
1.81848E-02 5.42477E-23
1.87724E-02 5.10204E-23
1.93692E-02 4.80306E-23
1.99751E-02 4.52573E-23
2.05901E-02 4.26818E-23
2.12143E-02 4.02873E-23
2.18476E-02 3.80585E-23
2.24900E-02 3.59818E-23
2.31415E-02 3.40447E-23
2.38021E-02 3.22361E-23
2.44717E-02 3.05457E-23
2.51504E-02 2.89644E-23
2.58382E-02 2.74836E-23
2.65349E-02 2.60958E-23
2.72407E-02 2.47940E-23
2.79555E-02 2.35718E-23
2.86793E-02 2.24234E-23
2.94120E-02 2.13435E-23
3.01537E-02 2.03272E-23
3.09043E-02 1.93700E-23
3.16639E-02 1.84679E-23
3.24324E-02 1.76169E-23
3.32098E-02 1.68138E-23
3.39961E-02 1.60552E-23
3.47912E-02 1.53382E-23
3.55952E-02 1.46602E-23
3.64081E-02 1.40185E-23
3.72297E-02 1.34108E-23
3.80602E-02 1.28351E-23
3.88995E-02 1.22892E-23
3.97476E-02 1.17714E-23
4.06044E-02 1.12800E-23
4.14700E-02 1.08132E-23
4.23443E-02 1.03698E-23
4.32273E-02 9.94821E-24
4.41190E-02 9.54724E-24
4.50194E-02 9.16566E-24
4.59284E-02 8.80238E-24
4.68461E-02 8.45634E-24
4.87074E-02 7.81217E-24
5.06030E-02 7.22613E-24
5.25328E-02 6.69206E-24
5.44967E-02 6.20454E-24
5.64946E-02 5.75883E-24
5.85262E-02 5.35071E-24
6.05914E-02 4.97649E-24
6.26901E-02 4.63286E-24
6.48222E-02 4.31691E-24
6.69873E-02 4.02603E-24
6.91854E-02 3.75792E-24
7.14163E-02 3.51049E-24
7.36799E-02 3.28189E-24
7.59760E-02 3.07046E-24
7.83043E-02 2.87470E-24
8.06647E-02 2.69326E-24
8.30571E-02 2.52495E-24
8.54812E-02 2.36865E-24
8.79369E-02 2.22339E-24
9.04240E-02 2.08826E-24
9.29422E-02 1.96245E-24
9.54915E-02 1.84522E-24
9.80716E-02 1.73591E-24
1.00682E-01 1.63390E-24
1.03323E-01 1.53863E-24
1.05995E-01 1.44960E-24
1.08696E-01 1.36634E-24
1.11427E-01 1.28843E-24
1.14188E-01 1.21547E-24
1.16978E-01 1.14711E-24
1.19797E-01 1.08302E-24
1.22645E-01 1.02290E-24
1.25522E-01 9.66475E-25
1.28428E-01 9.13485E-25
1.31361E-01 8.63696E-25
1.34323E-01 8.16892E-25
1.37313E-01 7.72871E-25
1.40330E-01 7.31450E-25
1.43375E-01 6.92457E-25
1.46447E-01 6.55732E-25
1.49545E-01 6.21130E-25
1.52671E-01 5.88513E-25
1.55823E-01 5.57756E-25
1.59001E-01 5.28742E-25
1.62205E-01 5.01360E-25
1.65435E-01 4.75511E-25
1.68690E-01 4.51098E-25
1.71970E-01 4.28035E-25
1.75276E-01 4.06240E-25
1.78606E-01 3.85636E-25
1.81961E-01 3.66152E-25
1.85340E-01 3.47722E-25
1.88743E-01 3.30283E-25
1.92169E-01 3.13777E-25
1.95619E-01 2.98150E-25
1.99092E-01 2.83352E-25
2.02589E-01 2.69334E-25
2.06107E-01 2.56052E-25
2.09649E-01 2.43465E-25
2.13212E-01 2.31532E-25
2.16797E-01 2.20219E-25
2.20404E-01 2.09489E-25
2.24032E-01 1.99311E-25
2.27680E-01 1.89654E-25
2.31350E-01 1.80490E-25
2.35040E-01 1.71792E-25
2.38751E-01 1.63534E-25
2.42481E-01 1.55693E-25
2.46231E-01 1.48246E-25
2.50000E-01 1.41173E-25
2.53788E-01 1.34453E-25
2.57595E-01 1.28067E-25
2.61421E-01 1.21999E-25
2.65264E-01 1.16231E-25
2.69126E-01 1.10748E-25
2.73005E-01 1.05535E-25
2.76901E-01 1.00577E-25
2.80814E-01 9.58627E-26
2.84744E-01 9.13782E-26
2.88691E-01 8.71121E-26
2.92653E-01 8.30533E-26
2.96632E-01 7.91911E-26
3.00625E-01 7.55157E-26
3.04634E-01 7.20176E-26
3.08658E-01 6.86879E-26
3.12697E-01 6.55181E-26
3.16749E-01 6.25002E-26
3.20816E-01 5.96266E-26
3.24896E-01 5.68902E-26
3.28990E-01 5.42842E-26
3.33097E-01 5.18021E-26
3.37216E-01 4.94378E-26
3.41348E-01 4.71856E-26
3.45492E-01 4.50398E-26
3.49647E-01 4.29954E-26
3.53814E-01 4.10473E-26
3.57992E-01 3.91909E-26
3.62181E-01 3.74217E-26
3.66381E-01 3.57355E-26
3.70590E-01 3.41284E-26
3.74810E-01 3.25963E-26
3.79039E-01 3.11359E-26
3.83277E-01 2.97435E-26
3.87524E-01 2.84160E-26
3.91780E-01 2.71502E-26
3.96044E-01 2.59432E-26
4.00316E-01 2.47923E-26
4.04596E-01 2.36946E-26
4.08882E-01 2.26477E-26
4.13176E-01 2.16492E-26
4.17476E-01 2.06968E-26
4.21783E-01 1.97882E-26
4.26095E-01 1.89215E-26
4.30413E-01 1.80947E-26
4.34737E-01 1.73058E-26
4.39065E-01 1.65531E-26
4.43398E-01 1.58349E-26
4.47736E-01 1.51496E-26
4.52077E-01 1.44956E-26
4.56422E-01 1.38715E-26
4.60770E-01 1.32758E-26
4.65122E-01 1.27072E-26
4.69476E-01 1.21645E-26
4.73832E-01 1.16465E-26
4.78190E-01 1.11520E-26
4.82550E-01 1.06798E-26
4.86912E-01 1.02291E-26
4.91274E-01 9.79872E-27
4.95637E-01 9.38778E-27
5.00000E-01 8.99537E-27
5.04363E-01 8.62063E-27
5.08726E-01 8.26274E-27
5.13088E-01 7.92091E-27
5.17450E-01 7.59442E-27
5.21810E-01 7.28254E-27
5.26168E-01 6.98460E-27
5.30524E-01 6.69995E-27
5.34878E-01 6.42800E-27
5.39230E-01 6.16813E-27
5.43578E-01 5.91981E-27
5.47923E-01 5.68250E-27
5.52264E-01 5.45568E-27
5.56602E-01 5.23889E-27
5.60935E-01 5.03165E-27
5.65263E-01 4.83352E-27
5.69587E-01 4.64410E-27
5.73905E-01 4.46297E-27
5.78217E-01 4.28975E-27
5.82524E-01 4.12409E-27
5.86824E-01 3.96564E-27
5.91118E-01 3.81406E-27
5.95404E-01 3.66905E-27
5.99684E-01 3.53029E-27
6.03956E-01 3.39751E-27
6.08220E-01 3.27042E-27
6.12476E-01 3.14878E-27
6.16723E-01 3.03232E-27
6.20961E-01 2.92082E-27
6.25190E-01 2.81405E-27
6.29410E-01 2.71178E-27
6.33619E-01 2.61383E-27
6.37819E-01 2.51998E-27
6.42008E-01 2.43005E-27
6.46186E-01 2.34387E-27
6.50353E-01 2.26126E-27
6.54508E-01 2.18206E-27
6.58652E-01 2.10611E-27
6.62784E-01 2.03328E-27
6.66903E-01 1.96341E-27
6.71010E-01 1.89637E-27
6.75104E-01 1.83204E-27
6.79184E-01 1.77029E-27
6.83251E-01 1.71100E-27
6.87303E-01 1.65407E-27
6.91342E-01 1.59939E-27
6.95366E-01 1.54685E-27
6.99375E-01 1.49637E-27
7.03368E-01 1.44784E-27
7.07347E-01 1.40119E-27
7.11309E-01 1.35632E-27
7.15256E-01 1.31316E-27
7.19186E-01 1.27163E-27
7.23099E-01 1.23166E-27
7.26995E-01 1.19318E-27
7.30874E-01 1.15612E-27
7.34736E-01 1.12043E-27
7.38579E-01 1.08603E-27
7.42405E-01 1.05288E-27
7.46212E-01 1.02092E-27
7.50000E-01 9.90093E-28
7.53769E-01 9.60355E-28
7.57519E-01 9.31657E-28
7.61249E-01 9.03953E-28
7.64960E-01 8.77202E-28
7.68650E-01 8.51362E-28
7.72320E-01 8.26393E-28
7.75968E-01 8.02259E-28
7.79596E-01 7.78925E-28
7.83203E-01 7.56356E-28
7.86788E-01 7.34519E-28
7.90351E-01 7.13386E-28
7.93893E-01 6.92925E-28
7.97411E-01 6.73109E-28
8.00908E-01 6.53911E-28
8.04381E-01 6.35306E-28
8.07831E-01 6.17270E-28
8.11257E-01 5.99780E-28
8.14660E-01 5.82813E-28
8.18039E-01 5.66349E-28
8.21394E-01 5.50367E-28
8.24724E-01 5.34849E-28
8.28030E-01 5.19777E-28
8.31310E-01 5.05132E-28
8.34565E-01 4.90900E-28
8.37795E-01 4.77063E-28
8.40999E-01 4.63607E-28
8.44177E-01 4.50518E-28
8.47329E-01 4.37781E-28
8.50455E-01 4.25385E-28
8.53553E-01 4.13317E-28
8.56625E-01 4.01564E-28
8.59670E-01 3.90116E-28
8.62687E-01 3.78962E-28
8.65677E-01 3.68092E-28
8.68639E-01 3.57496E-28
8.71572E-01 3.47165E-28
8.74478E-01 3.37090E-28
8.77355E-01 3.27263E-28
8.80203E-01 3.17675E-28
8.83022E-01 3.08319E-28
8.85812E-01 2.99188E-28
8.88573E-01 2.90275E-28
8.91304E-01 2.81572E-28
8.94005E-01 2.73075E-28
8.96677E-01 2.64777E-28
8.99318E-01 2.56671E-28
9.01928E-01 2.48754E-28
9.04508E-01 2.41019E-28
9.07058E-01 2.33461E-28
9.09576E-01 2.26077E-28
9.12063E-01 2.18861E-28
9.14519E-01 2.11809E-28
9.16943E-01 2.04917E-28
9.19335E-01 1.98181E-28
9.21696E-01 1.91598E-28
9.24024E-01 1.85164E-28
9.26320E-01 1.78875E-28
9.28584E-01 1.72729E-28
9.30815E-01 1.66722E-28
9.33013E-01 1.60852E-28
9.35178E-01 1.55115E-28
9.37310E-01 1.49510E-28
9.39409E-01 1.44033E-28
9.41474E-01 1.38682E-28
9.43505E-01 1.33455E-28
9.45503E-01 1.28350E-28
9.47467E-01 1.23365E-28
9.49397E-01 1.18497E-28
9.51293E-01 1.13745E-28
9.53154E-01 1.09107E-28
9.54981E-01 1.04581E-28
9.56773E-01 1.00167E-28
9.58530E-01 9.58610E-29
9.60252E-01 9.16631E-29
9.61940E-01 8.75716E-29
9.63592E-01 8.35850E-29
9.65209E-01 7.97022E-29
9.66790E-01 7.59219E-29
9.68336E-01 7.22430E-29
9.69846E-01 6.86644E-29
9.71321E-01 6.51850E-29
9.72759E-01 6.18039E-29
9.74162E-01 5.85201E-29
9.75528E-01 5.53328E-29
9.76858E-01 5.22410E-29
9.78152E-01 4.92441E-29
9.79410E-01 4.63411E-29
9.80631E-01 4.35315E-29
9.81815E-01 4.08144E-29
9.82963E-01 3.81893E-29
9.84074E-01 3.56555E-29
9.85148E-01 3.32125E-29
9.86185E-01 3.08596E-29
9.87185E-01 2.85964E-29
9.88148E-01 2.64224E-29
9.89074E-01 2.43370E-29
9.89962E-01 2.23399E-29
9.90814E-01 2.04306E-29
9.91627E-01 1.86087E-29
9.92404E-01 1.68739E-29
9.93143E-01 1.52257E-29
9.93844E-01 1.36640E-29
9.94508E-01 1.21883E-29
9.95134E-01 1.07984E-29
9.95722E-01 9.49399E-30
9.96273E-01 8.27487E-30
9.96786E-01 7.14079E-30
9.97261E-01 6.09153E-30
9.97698E-01 5.12691E-30
9.98097E-01 4.24674E-30
9.98459E-01 3.45088E-30
9.98782E-01 2.73917E-30
9.99067E-01 2.11148E-30
9.99315E-01 1.56771E-30
9.99524E-01 1.10776E-30
9.99695E-01 7.31548E-31
9.99829E-01 4.39006E-31
9.99924E-01 2.30084E-31
9.99981E-01 1.04746E-31
1.00000E+00 6.29688E-32
