 #
 # Subroutine ELSEPA. Elastic scattering of electrons and positrons
 #                    by neutral atoms and positive ions
 #
 # Projectile: electron
 # Kinetic energy = 3.00000E+07 eV = 1.10248E+06 a.u.
 #
 # WARNING: High-energy factorization with free-atom DF screening.
 #          Absorption, polarization and exchange corrections are
 #          switched off.
 #          Phase shifts are calculated for the bare nucleus.
 #          Scattering amplitudes are not evaluated.
 #
 # Element: Rn,  Z =  86,  atomic weight = 2.22018E+02 g/mol
 #
 # Nuclear model: Fermi distribution
 #                Average radius = 6.47907E-13 cm
 #                Skin thickness = 5.46000E-14 cm
 #
 # Number of electrons = 86
 #
 # Total elastic cross section = 9.59228E-18 cm**2 = 3.42546E-01 a0**2
 # 1st transport cross section = 1.51181E-23 cm**2 = 5.39878E-07 a0**2
 # 2nd transport cross section = 4.32937E-23 cm**2 = 1.54605E-06 a0**2
 #
 #
 # Differential cross section:                       MU=(1-COS(THETA))/2
 #
 #  THETA        MU          DCS          DCS        Sherman      error
 #  (deg)                 (cm**2/sr)   (a0**2/sr)    function
 #----------------------------------------------------------------------
0.00000E+00 5.98338E-11
7.61557E-13 5.98240E-11
1.18994E-12 5.98186E-11
1.71346E-12 5.98119E-11
2.33225E-12 5.98041E-11
3.04617E-12 5.97951E-11
3.85530E-12 5.97848E-11
4.75964E-12 5.97734E-11
5.75917E-12 5.97608E-11
6.85391E-12 5.97470E-11
8.04379E-12 5.97321E-11
9.32893E-12 5.97159E-11
1.07092E-11 5.96985E-11
1.21847E-11 5.96800E-11
1.37554E-11 5.96602E-11
1.54213E-11 5.96393E-11
1.71823E-11 5.96172E-11
1.90386E-11 5.95940E-11
2.09900E-11 5.95695E-11
2.30367E-11 5.95439E-11
2.51785E-11 5.95171E-11
2.74156E-11 5.94891E-11
2.97478E-11 5.94600E-11
3.21752E-11 5.94297E-11
3.46979E-11 5.93983E-11
3.73157E-11 5.93657E-11
4.00286E-11 5.93319E-11
4.28368E-11 5.92970E-11
4.57402E-11 5.92609E-11
4.87388E-11 5.92237E-11
5.18325E-11 5.91854E-11
5.50215E-11 5.91459E-11
5.83057E-11 5.91053E-11
6.16850E-11 5.90635E-11
6.51595E-11 5.90206E-11
6.87293E-11 5.89766E-11
7.23943E-11 5.89315E-11
7.61544E-11 5.88852E-11
1.18991E-10 5.83624E-11
1.71347E-10 5.77331E-11
2.33223E-10 5.70028E-11
3.04617E-10 5.61702E-11
3.85531E-10 5.52646E-11
4.75965E-10 5.42609E-11
5.75917E-10 5.31997E-11
6.85389E-10 5.20621E-11
8.04380E-10 5.08752E-11
9.32891E-10 4.96389E-11
1.07092E-09 4.83575E-11
1.21847E-09 4.70567E-11
1.37554E-09 4.57114E-11
1.54213E-09 4.43765E-11
1.71823E-09 4.29972E-11
1.90386E-09 4.16409E-11
2.09900E-09 4.02685E-11
2.30367E-09 3.89146E-11
2.51785E-09 3.75710E-11
2.74156E-09 3.62398E-11
2.97478E-09 3.49421E-11
3.21752E-09 3.36501E-11
3.46978E-09 3.24095E-11
3.73156E-09 3.11707E-11
4.00286E-09 2.99851E-11
4.28368E-09 2.88194E-11
4.57402E-09 2.76964E-11
4.87388E-09 2.66074E-11
5.18326E-09 2.55518E-11
5.50215E-09 2.45407E-11
5.83057E-09 2.35547E-11
6.16850E-09 2.26195E-11
6.51596E-09 2.17046E-11
6.87293E-09 2.08374E-11
7.23942E-09 1.99979E-11
7.61544E-09 1.91970E-11
1.18991E-08 1.28566E-11
1.71347E-08 8.84636E-12
2.33223E-08 6.29264E-12
3.04617E-08 4.57086E-12
3.85531E-08 3.47565E-12
4.75965E-08 2.65183E-12
5.75917E-08 2.08492E-12
6.85389E-08 1.64946E-12
8.04380E-08 1.32765E-12
9.32891E-08 1.07870E-12
1.07092E-07 8.85246E-13
1.21847E-07 7.34847E-13
1.37554E-07 6.13612E-13
1.54213E-07 5.18553E-13
1.71823E-07 4.39763E-13
1.90386E-07 3.76728E-13
2.09900E-07 3.24196E-13
2.30367E-07 2.80934E-13
2.51785E-07 2.44658E-13
2.74156E-07 2.14028E-13
2.97478E-07 1.88214E-13
3.21752E-07 1.65944E-13
3.46978E-07 1.47094E-13
3.73156E-07 1.30561E-13
4.00286E-07 1.16424E-13
4.28368E-07 1.04022E-13
4.57402E-07 9.32520E-14
4.87388E-07 8.38046E-14
5.18325E-07 7.54948E-14
5.50215E-07 6.82036E-14
5.83057E-07 6.17413E-14
6.16850E-07 5.60641E-14
6.51596E-07 5.09388E-14
6.87293E-07 4.64120E-14
7.23942E-07 4.23649E-14
7.61543E-07 3.87612E-14
1.18991E-06 1.76079E-14
1.71347E-06 9.16201E-15
2.33223E-06 5.24291E-15
3.04617E-06 3.21417E-15
3.85531E-06 2.08037E-15
4.75964E-06 1.40721E-15
5.75916E-06 9.85533E-16
6.85388E-06 7.10720E-16
8.04378E-06 5.25346E-16
9.32888E-06 3.96418E-16
1.07092E-05 3.04724E-16
1.21846E-05 2.38019E-16
1.37553E-05 1.88599E-16
1.54212E-05 1.51386E-16
1.71822E-05 1.22907E-16
1.90385E-05 1.00775E-16
2.09899E-05 8.35309E-17
2.30365E-05 6.98132E-17
2.51783E-05 5.87875E-17
2.74153E-05 4.98398E-17
2.97475E-05 4.25279E-17
3.21749E-05 3.65099E-17
3.46974E-05 3.15230E-17
3.73152E-05 2.73643E-17
4.00281E-05 2.38715E-17
4.28362E-05 2.09200E-17
4.57395E-05 1.84105E-17
4.87380E-05 1.62647E-17
5.18317E-05 1.44215E-17
5.50205E-05 1.28311E-17
5.83045E-05 1.14535E-17
6.16838E-05 1.02560E-17
6.51582E-05 9.21096E-18
6.87277E-05 8.29599E-18
7.23925E-05 7.49191E-18
7.61524E-05 6.78086E-18
9.21439E-05 4.66100E-18
1.09658E-04 3.30829E-18
1.28695E-04 2.41282E-18
1.49255E-04 1.80096E-18
1.71338E-04 1.37148E-18
1.94942E-04 1.06285E-18
2.20070E-04 8.36435E-19
2.46720E-04 6.67294E-19
2.74892E-04 5.38883E-19
3.04586E-04 4.39961E-19
3.35803E-04 3.62767E-19
3.68542E-04 3.01807E-19
4.02802E-04 2.53147E-19
4.38585E-04 2.13927E-19
4.75889E-04 1.82027E-19
5.14715E-04 1.55870E-19
5.55063E-04 1.34253E-19
5.96931E-04 1.16264E-19
6.40321E-04 1.01196E-19
6.85233E-04 8.84960E-20
7.31665E-04 7.77321E-20
7.79618E-04 6.85593E-20
8.29092E-04 6.07041E-20
8.80086E-04 5.39451E-20
9.32601E-04 4.81035E-20
9.86636E-04 4.30340E-20
1.04219E-03 3.86170E-20
1.09927E-03 3.47542E-20
1.15786E-03 3.13640E-20
1.21797E-03 2.83788E-20
1.27961E-03 2.57417E-20
1.34276E-03 2.34051E-20
1.40743E-03 2.13287E-20
1.47362E-03 1.94784E-20
1.54133E-03 1.78254E-20
1.61056E-03 1.63449E-20
1.68131E-03 1.50156E-20
1.75357E-03 1.38194E-20
1.82735E-03 1.27406E-20
1.90265E-03 1.17656E-20
1.97947E-03 1.08826E-20
2.05780E-03 1.00814E-20
2.13765E-03 9.35294E-21
2.21902E-03 8.68954E-21
2.30190E-03 8.08429E-21
2.38630E-03 7.53117E-21
2.47222E-03 7.02486E-21
2.55965E-03 6.56068E-21
2.64859E-03 6.13448E-21
2.73905E-03 5.74259E-21
2.83103E-03 5.38173E-21
2.92452E-03 5.04899E-21
3.01952E-03 4.74177E-21
3.11604E-03 4.45776E-21
3.21407E-03 4.19487E-21
3.31362E-03 3.95124E-21
3.41468E-03 3.72519E-21
3.51725E-03 3.51523E-21
3.62133E-03 3.31998E-21
3.72692E-03 3.13823E-21
3.83403E-03 2.96887E-21
3.94265E-03 2.81089E-21
4.05278E-03 2.66339E-21
4.16442E-03 2.52553E-21
4.27757E-03 2.39657E-21
4.39223E-03 2.27582E-21
4.50840E-03 2.16267E-21
4.62608E-03 2.05653E-21
4.74527E-03 1.95691E-21
4.86597E-03 1.86330E-21
4.98817E-03 1.77530E-21
5.11188E-03 1.69249E-21
5.23711E-03 1.61451E-21
5.36383E-03 1.54103E-21
5.49207E-03 1.47173E-21
5.62181E-03 1.40633E-21
5.75306E-03 1.34457E-21
5.88581E-03 1.28621E-21
6.02007E-03 1.23102E-21
6.15583E-03 1.17880E-21
6.29310E-03 1.12936E-21
6.43187E-03 1.08251E-21
6.57214E-03 1.03811E-21
6.71392E-03 9.95992E-22
6.85720E-03 9.56019E-22
7.00198E-03 9.18059E-22
7.14827E-03 8.81991E-22
7.29605E-03 8.47705E-22
7.44534E-03 8.15094E-22
7.59612E-03 7.84060E-22
7.97965E-03 7.12788E-22
8.37255E-03 6.49552E-22
8.77480E-03 5.93279E-22
9.18641E-03 5.43063E-22
9.60736E-03 4.98133E-22
1.00376E-02 4.57827E-22
1.04773E-02 4.21586E-22
1.09262E-02 3.88918E-22
1.13844E-02 3.59409E-22
1.18520E-02 3.32695E-22
1.23288E-02 3.08460E-22
1.28150E-02 2.86432E-22
1.33104E-02 2.66370E-22
1.38150E-02 2.48067E-22
1.43290E-02 2.31339E-22
1.48521E-02 2.16023E-22
1.53845E-02 2.01978E-22
1.59262E-02 1.89077E-22
1.64770E-02 1.77210E-22
1.70371E-02 1.66278E-22
1.76063E-02 1.56192E-22
1.81848E-02 1.46874E-22
1.87724E-02 1.38254E-22
1.93692E-02 1.30269E-22
1.99751E-02 1.22864E-22
2.05901E-02 1.15988E-22
2.12143E-02 1.09596E-22
2.18476E-02 1.03647E-22
2.24900E-02 9.81033E-23
2.31415E-02 9.29329E-23
2.38021E-02 8.81052E-23
2.44717E-02 8.35930E-23
2.51504E-02 7.93716E-23
2.58382E-02 7.54185E-23
2.65349E-02 7.17131E-23
2.72407E-02 6.82371E-23
2.79555E-02 6.49733E-23
2.86793E-02 6.19064E-23
2.94120E-02 5.90226E-23
3.01537E-02 5.63059E-23
3.09043E-02 5.37450E-23
3.16639E-02 5.13305E-23
3.24324E-02 4.90523E-23
3.32098E-02 4.69011E-23
3.39961E-02 4.48683E-23
3.47912E-02 4.29462E-23
3.55952E-02 4.11274E-23
3.64081E-02 3.94053E-23
3.72297E-02 3.77737E-23
3.80602E-02 3.62268E-23
3.88995E-02 3.47592E-23
3.97476E-02 3.33662E-23
4.06044E-02 3.20432E-23
4.14700E-02 3.07858E-23
4.23443E-02 2.95902E-23
4.32273E-02 2.84527E-23
4.41190E-02 2.73698E-23
4.50194E-02 2.63385E-23
4.59284E-02 2.53558E-23
4.68461E-02 2.44188E-23
4.87074E-02 2.26722E-23
5.06030E-02 2.10799E-23
5.25328E-02 1.96257E-23
5.44967E-02 1.82952E-23
5.64946E-02 1.70759E-23
5.85262E-02 1.59567E-23
6.05914E-02 1.49276E-23
6.26901E-02 1.39801E-23
6.48222E-02 1.31064E-23
6.69873E-02 1.22996E-23
6.91854E-02 1.15536E-23
7.14163E-02 1.08629E-23
7.36799E-02 1.02226E-23
7.59760E-02 9.62836E-24
7.83043E-02 9.07616E-24
8.06647E-02 8.56247E-24
8.30571E-02 8.08408E-24
8.54812E-02 7.63810E-24
8.79369E-02 7.22191E-24
9.04240E-02 6.83314E-24
9.29422E-02 6.46963E-24
9.54915E-02 6.12943E-24
9.80716E-02 5.81077E-24
1.00682E-01 5.51201E-24
1.03323E-01 5.23168E-24
1.05995E-01 4.96844E-24
1.08696E-01 4.72104E-24
1.11427E-01 4.48835E-24
1.14188E-01 4.26934E-24
1.16978E-01 4.06305E-24
1.19797E-01 3.86861E-24
1.22645E-01 3.68521E-24
1.25522E-01 3.51212E-24
1.28428E-01 3.34865E-24
1.31361E-01 3.19416E-24
1.34323E-01 3.04808E-24
1.37313E-01 2.90987E-24
1.40330E-01 2.77903E-24
1.43375E-01 2.65509E-24
1.46447E-01 2.53763E-24
1.49545E-01 2.42626E-24
1.52671E-01 2.32059E-24
1.55823E-01 2.22029E-24
1.59001E-01 2.12505E-24
1.62205E-01 2.03455E-24
1.65435E-01 1.94854E-24
1.68690E-01 1.86674E-24
1.71970E-01 1.78891E-24
1.75276E-01 1.71484E-24
1.78606E-01 1.64431E-24
1.81961E-01 1.57712E-24
1.85340E-01 1.51309E-24
1.88743E-01 1.45206E-24
1.92169E-01 1.39385E-24
1.95619E-01 1.33831E-24
1.99092E-01 1.28531E-24
2.02589E-01 1.23470E-24
2.06107E-01 1.18637E-24
2.09649E-01 1.14020E-24
2.13212E-01 1.09608E-24
2.16797E-01 1.05389E-24
2.20404E-01 1.01355E-24
2.24032E-01 9.74963E-25
2.27680E-01 9.38038E-25
2.31350E-01 9.02695E-25
2.35040E-01 8.68857E-25
2.38751E-01 8.36451E-25
2.42481E-01 8.05407E-25
2.46231E-01 7.75660E-25
2.50000E-01 7.47149E-25
2.53788E-01 7.19815E-25
2.57595E-01 6.93602E-25
2.61421E-01 6.68460E-25
2.65264E-01 6.44338E-25
2.69126E-01 6.21189E-25
2.73005E-01 5.98969E-25
2.76901E-01 5.77636E-25
2.80814E-01 5.57150E-25
2.84744E-01 5.37473E-25
2.88691E-01 5.18569E-25
2.92653E-01 5.00404E-25
2.96632E-01 4.82945E-25
3.00625E-01 4.66162E-25
3.04634E-01 4.50025E-25
3.08658E-01 4.34507E-25
3.12697E-01 4.19580E-25
3.16749E-01 4.05220E-25
3.20816E-01 3.91403E-25
3.24896E-01 3.78105E-25
3.28990E-01 3.65306E-25
3.33097E-01 3.52983E-25
3.37216E-01 3.41118E-25
3.41348E-01 3.29691E-25
3.45492E-01 3.18685E-25
3.49647E-01 3.08082E-25
3.53814E-01 2.97865E-25
3.57992E-01 2.88021E-25
3.62181E-01 2.78532E-25
3.66381E-01 2.69386E-25
3.70590E-01 2.60568E-25
3.74810E-01 2.52065E-25
3.79039E-01 2.43865E-25
3.83277E-01 2.35957E-25
3.87524E-01 2.28328E-25
3.91780E-01 2.20967E-25
3.96044E-01 2.13866E-25
4.00316E-01 2.07012E-25
4.04596E-01 2.00398E-25
4.08882E-01 1.94013E-25
4.13176E-01 1.87849E-25
4.17476E-01 1.81897E-25
4.21783E-01 1.76151E-25
4.26095E-01 1.70601E-25
4.30413E-01 1.65240E-25
4.34737E-01 1.60062E-25
4.39065E-01 1.55059E-25
4.43398E-01 1.50226E-25
4.47736E-01 1.45555E-25
4.52077E-01 1.41042E-25
4.56422E-01 1.36679E-25
4.60770E-01 1.32462E-25
4.65122E-01 1.28385E-25
4.69476E-01 1.24444E-25
4.73832E-01 1.20633E-25
4.78190E-01 1.16947E-25
4.82550E-01 1.13383E-25
4.86912E-01 1.09936E-25
4.91274E-01 1.06601E-25
4.95637E-01 1.03374E-25
5.00000E-01 1.00253E-25
5.04363E-01 9.72327E-26
5.08726E-01 9.43100E-26
5.13088E-01 9.14814E-26
5.17450E-01 8.87436E-26
5.21810E-01 8.60935E-26
5.26168E-01 8.35281E-26
5.30524E-01 8.10443E-26
5.34878E-01 7.86394E-26
5.39230E-01 7.63107E-26
5.43578E-01 7.40556E-26
5.47923E-01 7.18714E-26
5.52264E-01 6.97559E-26
5.56602E-01 6.77067E-26
5.60935E-01 6.57214E-26
5.65263E-01 6.37981E-26
5.69587E-01 6.19345E-26
5.73905E-01 6.01286E-26
5.78217E-01 5.83786E-26
5.82524E-01 5.66825E-26
5.86824E-01 5.50386E-26
5.91118E-01 5.34451E-26
5.95404E-01 5.19003E-26
5.99684E-01 5.04026E-26
6.03956E-01 4.89505E-26
6.08220E-01 4.75424E-26
6.12476E-01 4.61770E-26
6.16723E-01 4.48528E-26
6.20961E-01 4.35684E-26
6.25190E-01 4.23226E-26
6.29410E-01 4.11141E-26
6.33619E-01 3.99417E-26
6.37819E-01 3.88042E-26
6.42008E-01 3.77005E-26
6.46186E-01 3.66295E-26
6.50353E-01 3.55902E-26
6.54508E-01 3.45815E-26
6.58652E-01 3.36025E-26
6.62784E-01 3.26521E-26
6.66903E-01 3.17296E-26
6.71010E-01 3.08340E-26
6.75104E-01 2.99644E-26
6.79184E-01 2.91200E-26
6.83251E-01 2.83001E-26
6.87303E-01 2.75039E-26
6.91342E-01 2.67305E-26
6.95366E-01 2.59794E-26
6.99375E-01 2.52498E-26
7.03368E-01 2.45410E-26
7.07347E-01 2.38524E-26
7.11309E-01 2.31833E-26
7.15256E-01 2.25332E-26
7.19186E-01 2.19015E-26
7.23099E-01 2.12876E-26
7.26995E-01 2.06909E-26
7.30874E-01 2.01109E-26
7.34736E-01 1.95472E-26
7.38579E-01 1.89992E-26
7.42405E-01 1.84664E-26
7.46212E-01 1.79484E-26
7.50000E-01 1.74447E-26
7.53769E-01 1.69549E-26
7.57519E-01 1.64786E-26
7.61249E-01 1.60153E-26
7.64960E-01 1.55647E-26
7.68650E-01 1.51265E-26
7.72320E-01 1.47001E-26
7.75968E-01 1.42853E-26
7.79596E-01 1.38818E-26
7.83203E-01 1.34892E-26
7.86788E-01 1.31071E-26
7.90351E-01 1.27353E-26
7.93893E-01 1.23735E-26
7.97411E-01 1.20213E-26
8.00908E-01 1.16785E-26
8.04381E-01 1.13449E-26
8.07831E-01 1.10201E-26
8.11257E-01 1.07039E-26
8.14660E-01 1.03961E-26
8.18039E-01 1.00963E-26
8.21394E-01 9.80447E-27
8.24724E-01 9.52028E-27
8.28030E-01 9.24352E-27
8.31310E-01 8.97399E-27
8.34565E-01 8.71148E-27
8.37795E-01 8.45580E-27
8.40999E-01 8.20675E-27
8.44177E-01 7.96415E-27
8.47329E-01 7.72783E-27
8.50455E-01 7.49760E-27
8.53553E-01 7.27331E-27
8.56625E-01 7.05478E-27
8.59670E-01 6.84186E-27
8.62687E-01 6.63440E-27
8.65677E-01 6.43225E-27
8.68639E-01 6.23527E-27
8.71572E-01 6.04332E-27
8.74478E-01 5.85627E-27
8.77355E-01 5.67398E-27
8.80203E-01 5.49633E-27
8.83022E-01 5.32320E-27
8.85812E-01 5.15447E-27
8.88573E-01 4.99003E-27
8.91304E-01 4.82976E-27
8.94005E-01 4.67357E-27
8.96677E-01 4.52134E-27
8.99318E-01 4.37298E-27
9.01928E-01 4.22838E-27
9.04508E-01 4.08746E-27
9.07058E-01 3.95013E-27
9.09576E-01 3.81629E-27
9.12063E-01 3.68586E-27
9.14519E-01 3.55876E-27
9.16943E-01 3.43490E-27
9.19335E-01 3.31422E-27
9.21696E-01 3.19663E-27
9.24024E-01 3.08207E-27
9.26320E-01 2.97046E-27
9.28584E-01 2.86173E-27
9.30815E-01 2.75582E-27
9.33013E-01 2.65267E-27
9.35178E-01 2.55221E-27
9.37310E-01 2.45439E-27
9.39409E-01 2.35914E-27
9.41474E-01 2.26642E-27
9.43505E-01 2.17616E-27
9.45503E-01 2.08831E-27
9.47467E-01 2.00283E-27
9.49397E-01 1.91967E-27
9.51293E-01 1.83877E-27
9.53154E-01 1.76010E-27
9.54981E-01 1.68360E-27
9.56773E-01 1.60924E-27
9.58530E-01 1.53697E-27
9.60252E-01 1.46676E-27
9.61940E-01 1.39857E-27
9.63592E-01 1.33235E-27
9.65209E-01 1.26808E-27
9.66790E-01 1.20572E-27
9.68336E-01 1.14523E-27
9.69846E-01 1.08659E-27
9.71321E-01 1.02976E-27
9.72759E-01 9.74713E-28
9.74162E-01 9.21419E-28
9.75528E-01 8.69850E-28
9.76858E-01 8.19982E-28
9.78152E-01 7.71786E-28
9.79410E-01 7.25240E-28
9.80631E-01 6.80319E-28
9.81815E-01 6.37001E-28
9.82963E-01 5.95263E-28
9.84074E-01 5.55085E-28
9.85148E-01 5.16446E-28
9.86185E-01 4.79327E-28
9.87185E-01 4.43711E-28
9.88148E-01 4.09578E-28
9.89074E-01 3.76913E-28
9.89962E-01 3.45699E-28
9.90814E-01 3.15921E-28
9.91627E-01 2.87565E-28
9.92404E-01 2.60617E-28
9.93143E-01 2.35064E-28
9.93844E-01 2.10893E-28
9.94508E-01 1.88093E-28
9.95134E-01 1.66654E-28
9.95722E-01 1.46563E-28
9.96273E-01 1.27813E-28
9.96786E-01 1.10395E-28
9.97261E-01 9.42991E-29
9.97698E-01 7.95188E-29
9.98097E-01 6.60469E-29
9.98459E-01 5.38770E-29
9.98782E-01 4.30034E-29
9.99067E-01 3.34211E-29
9.99315E-01 2.51254E-29
9.99524E-01 1.81126E-29
9.99695E-01 1.23793E-29
9.99829E-01 7.92281E-30
9.99924E-01 4.74111E-30
9.99981E-01 2.83269E-30
1.00000E+00 2.19665E-30
