 #
 # Subroutine ELSEPA. Elastic scattering of electrons and positrons
 #                    by neutral atoms and positive ions
 #
 # Projectile: electron
 # Kinetic energy = 1.25000E+07 eV = 4.59367E+05 a.u.
 #
 # WARNING: High-energy factorization with free-atom DF screening.
 #          Absorption, polarization and exchange corrections are
 #          switched off.
 #          Phase shifts are calculated for the bare nucleus.
 #          Scattering amplitudes are not evaluated.
 #
 # Element: Rn,  Z =  86,  atomic weight = 2.22018E+02 g/mol
 #
 # Nuclear model: Fermi distribution
 #                Average radius = 6.47907E-13 cm
 #                Skin thickness = 5.46000E-14 cm
 #
 # Number of electrons = 86
 #
 # Total elastic cross section = 9.60646E-18 cm**2 = 3.43053E-01 a0**2
 # 1st transport cross section = 8.04845E-23 cm**2 = 2.87415E-06 a0**2
 # 2nd transport cross section = 2.20888E-22 cm**2 = 7.88805E-06 a0**2
 #
 #
 # Differential cross section:                       MU=(1-COS(THETA))/2
 #
 #  THETA        MU          DCS          DCS        Sherman      error
 #  (deg)                 (cm**2/sr)   (a0**2/sr)    function
 #----------------------------------------------------------------------
0.00000E+00 1.08807E-11
7.61557E-13 1.08803E-11
1.18994E-12 1.08801E-11
1.71346E-12 1.08799E-11
2.33225E-12 1.08797E-11
3.04617E-12 1.08794E-11
3.85530E-12 1.08790E-11
4.75964E-12 1.08786E-11
5.75917E-12 1.08782E-11
6.85391E-12 1.08778E-11
8.04379E-12 1.08773E-11
9.32893E-12 1.08767E-11
1.07092E-11 1.08762E-11
1.21847E-11 1.08755E-11
1.37554E-11 1.08749E-11
1.54213E-11 1.08742E-11
1.71823E-11 1.08735E-11
1.90386E-11 1.08727E-11
2.09900E-11 1.08719E-11
2.30367E-11 1.08710E-11
2.51785E-11 1.08701E-11
2.74156E-11 1.08692E-11
2.97478E-11 1.08682E-11
3.21752E-11 1.08672E-11
3.46979E-11 1.08662E-11
3.73157E-11 1.08651E-11
4.00286E-11 1.08640E-11
4.28368E-11 1.08628E-11
4.57402E-11 1.08616E-11
4.87388E-11 1.08603E-11
5.18325E-11 1.08591E-11
5.50215E-11 1.08577E-11
5.83057E-11 1.08564E-11
6.16850E-11 1.08550E-11
6.51595E-11 1.08535E-11
6.87293E-11 1.08520E-11
7.23943E-11 1.08505E-11
7.61544E-11 1.08490E-11
1.18991E-10 1.08312E-11
1.71347E-10 1.08096E-11
2.33223E-10 1.07842E-11
3.04617E-10 1.07550E-11
3.85531E-10 1.07220E-11
4.75965E-10 1.06853E-11
5.75917E-10 1.06450E-11
6.85389E-10 1.06011E-11
8.04380E-10 1.05538E-11
9.32891E-10 1.05030E-11
1.07092E-09 1.04488E-11
1.21847E-09 1.03914E-11
1.37554E-09 1.03307E-11
1.54213E-09 1.02661E-11
1.71823E-09 1.01992E-11
1.90386E-09 1.01299E-11
2.09900E-09 1.00586E-11
2.30367E-09 9.98256E-12
2.51785E-09 9.90439E-12
2.74156E-09 9.82459E-12
2.97478E-09 9.74335E-12
3.21752E-09 9.65811E-12
3.46978E-09 9.57041E-12
3.73156E-09 9.48174E-12
4.00286E-09 9.39227E-12
4.28368E-09 9.29995E-12
4.57402E-09 9.20450E-12
4.87388E-09 9.10872E-12
5.18326E-09 9.01274E-12
5.50215E-09 8.91542E-12
5.83057E-09 8.81404E-12
6.16850E-09 8.71290E-12
6.51596E-09 8.61213E-12
6.87293E-09 8.51176E-12
7.23942E-09 8.40621E-12
7.61544E-09 8.30144E-12
1.18991E-08 7.24801E-12
1.71347E-08 6.22015E-12
2.33223E-08 5.27597E-12
3.04617E-08 4.44644E-12
3.85531E-08 3.73429E-12
4.75965E-08 3.13794E-12
5.75917E-08 2.64420E-12
6.85389E-08 2.23698E-12
8.04380E-08 1.90308E-12
9.32891E-08 1.62852E-12
1.07092E-07 1.40200E-12
1.21847E-07 1.21449E-12
1.37554E-07 1.05690E-12
1.54213E-07 9.19485E-13
1.71823E-07 8.07857E-13
1.90386E-07 7.16278E-13
2.09900E-07 6.40447E-13
2.30367E-07 5.68419E-13
2.51785E-07 5.07333E-13
2.74156E-07 4.55927E-13
2.97478E-07 4.12353E-13
3.21752E-07 3.71762E-13
3.46978E-07 3.35587E-13
3.73156E-07 3.04536E-13
4.00286E-07 2.77732E-13
4.28368E-07 2.53285E-13
4.57402E-07 2.30718E-13
4.87388E-07 2.11038E-13
5.18325E-07 1.93798E-13
5.50215E-07 1.78316E-13
5.83057E-07 1.63714E-13
6.16850E-07 1.50811E-13
6.51596E-07 1.39368E-13
6.87293E-07 1.29173E-13
7.23942E-07 1.19429E-13
7.61543E-07 1.10724E-13
1.18991E-06 5.64292E-14
1.71347E-06 3.18630E-14
2.33223E-06 1.92858E-14
3.04617E-06 1.22984E-14
3.85531E-06 8.17596E-15
4.75964E-06 5.64476E-15
5.75916E-06 4.03136E-15
6.85388E-06 2.95821E-15
8.04378E-06 2.22181E-15
9.32888E-06 1.70274E-15
1.07092E-05 1.32772E-15
1.21846E-05 1.05080E-15
1.37553E-05 8.42286E-16
1.54212E-05 6.82911E-16
1.71822E-05 5.60073E-16
1.90385E-05 4.63416E-16
2.09899E-05 3.87189E-16
2.30365E-05 3.26223E-16
2.51783E-05 2.76502E-16
2.74153E-05 2.35982E-16
2.97475E-05 2.02572E-16
3.21749E-05 1.74854E-16
3.46974E-05 1.51801E-16
3.73152E-05 1.32362E-16
4.00281E-05 1.15996E-16
4.28362E-05 1.02069E-16
4.57395E-05 9.01649E-17
4.87380E-05 7.99541E-17
5.18317E-05 7.11183E-17
5.50205E-05 6.34804E-17
5.83045E-05 5.68288E-17
6.16838E-05 5.10282E-17
6.51582E-05 4.59535E-17
6.87277E-05 4.14892E-17
7.23925E-05 3.75606E-17
7.61524E-05 3.40786E-17
9.21439E-05 2.36237E-17
1.09658E-04 1.68915E-17
1.28695E-04 1.24010E-17
1.49255E-04 9.31069E-18
1.71338E-04 7.12700E-18
1.94942E-04 5.54835E-18
2.20070E-04 4.38362E-18
2.46720E-04 3.50914E-18
2.74892E-04 2.84228E-18
3.04586E-04 2.32642E-18
3.35803E-04 1.92247E-18
3.68542E-04 1.60248E-18
4.02802E-04 1.34637E-18
4.38585E-04 1.13946E-18
4.75889E-04 9.70811E-19
5.14715E-04 8.32267E-19
5.55063E-04 7.17595E-19
5.96931E-04 6.22028E-19
6.40321E-04 5.41876E-19
6.85233E-04 4.74245E-19
7.31665E-04 4.16862E-19
7.79618E-04 3.67916E-19
8.29092E-04 3.25963E-19
8.80086E-04 2.89836E-19
9.32601E-04 2.58590E-19
9.86636E-04 2.31453E-19
1.04219E-03 2.07794E-19
1.09927E-03 1.87091E-19
1.15786E-03 1.68909E-19
1.21797E-03 1.52891E-19
1.27961E-03 1.38733E-19
1.34276E-03 1.26182E-19
1.40743E-03 1.15023E-19
1.47362E-03 1.05075E-19
1.54133E-03 9.61833E-20
1.61056E-03 8.82160E-20
1.68131E-03 8.10599E-20
1.75357E-03 7.46178E-20
1.82735E-03 6.88055E-20
1.90265E-03 6.35507E-20
1.97947E-03 5.87901E-20
2.05780E-03 5.44690E-20
2.13765E-03 5.05394E-20
2.21902E-03 4.69594E-20
2.30190E-03 4.36924E-20
2.38630E-03 4.07059E-20
2.47222E-03 3.79715E-20
2.55965E-03 3.54641E-20
2.64859E-03 3.31613E-20
2.73905E-03 3.10434E-20
2.83103E-03 2.90928E-20
2.92452E-03 2.72939E-20
3.01952E-03 2.56327E-20
3.11604E-03 2.40967E-20
3.21407E-03 2.26747E-20
3.31362E-03 2.13567E-20
3.41468E-03 2.01338E-20
3.51725E-03 1.89977E-20
3.62133E-03 1.79411E-20
3.72692E-03 1.69575E-20
3.83403E-03 1.60408E-20
3.94265E-03 1.51857E-20
4.05278E-03 1.43873E-20
4.16442E-03 1.36410E-20
4.27757E-03 1.29428E-20
4.39223E-03 1.22892E-20
4.50840E-03 1.16765E-20
4.62608E-03 1.11020E-20
4.74527E-03 1.05626E-20
4.86597E-03 1.00558E-20
4.98817E-03 9.57938E-21
5.11188E-03 9.13107E-21
5.23711E-03 8.70893E-21
5.36383E-03 8.31113E-21
5.49207E-03 7.93600E-21
5.62181E-03 7.58201E-21
5.75306E-03 7.24773E-21
5.88581E-03 6.93187E-21
6.02007E-03 6.63320E-21
6.15583E-03 6.35062E-21
6.29310E-03 6.08309E-21
6.43187E-03 5.82965E-21
6.57214E-03 5.58943E-21
6.71392E-03 5.36159E-21
6.85720E-03 5.14539E-21
7.00198E-03 4.94010E-21
7.14827E-03 4.74507E-21
7.29605E-03 4.55969E-21
7.44534E-03 4.38340E-21
7.59612E-03 4.21564E-21
7.97965E-03 3.83050E-21
8.37255E-03 3.48890E-21
8.77480E-03 3.18504E-21
9.18641E-03 2.91400E-21
9.60736E-03 2.67160E-21
1.00376E-02 2.45427E-21
1.04773E-02 2.25893E-21
1.09262E-02 2.08295E-21
1.13844E-02 1.92406E-21
1.18520E-02 1.78030E-21
1.23288E-02 1.64996E-21
1.28150E-02 1.53155E-21
1.33104E-02 1.42377E-21
1.38150E-02 1.32550E-21
1.43290E-02 1.23573E-21
1.48521E-02 1.15359E-21
1.53845E-02 1.07831E-21
1.59262E-02 1.00920E-21
1.64770E-02 9.45673E-22
1.70371E-02 8.87181E-22
1.76063E-02 8.33247E-22
1.81848E-02 7.83451E-22
1.87724E-02 7.37413E-22
1.93692E-02 6.94793E-22
1.99751E-02 6.55289E-22
2.05901E-02 6.18628E-22
2.12143E-02 5.84566E-22
2.18476E-02 5.52881E-22
2.24900E-02 5.23375E-22
2.31415E-02 4.95869E-22
2.38021E-02 4.70199E-22
2.44717E-02 4.46220E-22
2.51504E-02 4.23797E-22
2.58382E-02 4.02808E-22
2.65349E-02 3.83144E-22
2.72407E-02 3.64704E-22
2.79555E-02 3.47397E-22
2.86793E-02 3.31139E-22
2.94120E-02 3.15853E-22
3.01537E-02 3.01468E-22
3.09043E-02 2.87922E-22
3.16639E-02 2.75155E-22
3.24324E-02 2.63114E-22
3.32098E-02 2.51748E-22
3.39961E-02 2.41011E-22
3.47912E-02 2.30862E-22
3.55952E-02 2.21261E-22
3.64081E-02 2.12174E-22
3.72297E-02 2.03566E-22
3.80602E-02 1.95407E-22
3.88995E-02 1.87669E-22
3.97476E-02 1.80325E-22
4.06044E-02 1.73351E-22
4.14700E-02 1.66725E-22
4.23443E-02 1.60426E-22
4.32273E-02 1.54433E-22
4.41190E-02 1.48728E-22
4.50194E-02 1.43296E-22
4.59284E-02 1.38120E-22
4.68461E-02 1.33186E-22
4.87074E-02 1.23987E-22
5.06030E-02 1.15601E-22
5.25328E-02 1.07942E-22
5.44967E-02 1.00933E-22
5.64946E-02 9.45081E-23
5.85262E-02 8.86076E-23
6.05914E-02 8.31804E-23
6.26901E-02 7.81803E-23
6.48222E-02 7.35665E-23
6.69873E-02 6.93031E-23
6.91854E-02 6.53573E-23
7.14163E-02 6.17010E-23
7.36799E-02 5.83078E-23
7.59760E-02 5.51551E-23
7.83043E-02 5.22219E-23
8.06647E-02 4.94896E-23
8.30571E-02 4.69415E-23
8.54812E-02 4.45625E-23
8.79369E-02 4.23388E-23
9.04240E-02 4.02581E-23
9.29422E-02 3.83091E-23
9.54915E-02 3.64817E-23
9.80716E-02 3.47665E-23
1.00682E-01 3.31552E-23
1.03323E-01 3.16400E-23
1.05995E-01 3.02139E-23
1.08696E-01 2.88705E-23
1.11427E-01 2.76040E-23
1.14188E-01 2.64089E-23
1.16978E-01 2.52802E-23
1.19797E-01 2.42136E-23
1.22645E-01 2.32047E-23
1.25522E-01 2.22497E-23
1.28428E-01 2.13452E-23
1.31361E-01 2.04877E-23
1.34323E-01 1.96744E-23
1.37313E-01 1.89025E-23
1.40330E-01 1.81693E-23
1.43375E-01 1.74724E-23
1.46447E-01 1.68097E-23
1.49545E-01 1.61792E-23
1.52671E-01 1.55788E-23
1.55823E-01 1.50069E-23
1.59001E-01 1.44618E-23
1.62205E-01 1.39421E-23
1.65435E-01 1.34457E-23
1.68690E-01 1.29715E-23
1.71970E-01 1.25185E-23
1.75276E-01 1.20855E-23
1.78606E-01 1.16715E-23
1.81961E-01 1.12753E-23
1.85340E-01 1.08962E-23
1.88743E-01 1.05331E-23
1.92169E-01 1.01853E-23
1.95619E-01 9.85186E-24
1.99092E-01 9.53218E-24
2.02589E-01 9.22551E-24
2.06107E-01 8.93121E-24
2.09649E-01 8.64866E-24
2.13212E-01 8.37729E-24
2.16797E-01 8.11655E-24
2.20404E-01 7.86592E-24
2.24032E-01 7.62494E-24
2.27680E-01 7.39313E-24
2.31350E-01 7.17008E-24
2.35040E-01 6.95537E-24
2.38751E-01 6.74863E-24
2.42481E-01 6.54948E-24
2.46231E-01 6.35760E-24
2.50000E-01 6.17264E-24
2.53788E-01 5.99431E-24
2.57595E-01 5.82232E-24
2.61421E-01 5.65638E-24
2.65264E-01 5.49624E-24
2.69126E-01 5.34165E-24
2.73005E-01 5.19237E-24
2.76901E-01 5.04819E-24
2.80814E-01 4.90887E-24
2.84744E-01 4.77424E-24
2.88691E-01 4.64409E-24
2.92653E-01 4.51824E-24
2.96632E-01 4.39651E-24
3.00625E-01 4.27875E-24
3.04634E-01 4.16479E-24
3.08658E-01 4.05449E-24
3.12697E-01 3.94770E-24
3.16749E-01 3.84428E-24
3.20816E-01 3.74410E-24
3.24896E-01 3.64705E-24
3.28990E-01 3.55300E-24
3.33097E-01 3.46184E-24
3.37216E-01 3.37346E-24
3.41348E-01 3.28776E-24
3.45492E-01 3.20463E-24
3.49647E-01 3.12400E-24
3.53814E-01 3.04575E-24
3.57992E-01 2.96981E-24
3.62181E-01 2.89610E-24
3.66381E-01 2.82454E-24
3.70590E-01 2.75505E-24
3.74810E-01 2.68755E-24
3.79039E-01 2.62198E-24
3.83277E-01 2.55827E-24
3.87524E-01 2.49637E-24
3.91780E-01 2.43619E-24
3.96044E-01 2.37770E-24
4.00316E-01 2.32082E-24
4.04596E-01 2.26551E-24
4.08882E-01 2.21172E-24
4.13176E-01 2.15939E-24
4.17476E-01 2.10848E-24
4.21783E-01 2.05893E-24
4.26095E-01 2.01071E-24
4.30413E-01 1.96378E-24
4.34737E-01 1.91809E-24
4.39065E-01 1.87359E-24
4.43398E-01 1.83027E-24
4.47736E-01 1.78807E-24
4.52077E-01 1.74696E-24
4.56422E-01 1.70691E-24
4.60770E-01 1.66789E-24
4.65122E-01 1.62986E-24
4.69476E-01 1.59280E-24
4.73832E-01 1.55667E-24
4.78190E-01 1.52144E-24
4.82550E-01 1.48710E-24
4.86912E-01 1.45361E-24
4.91274E-01 1.42095E-24
4.95637E-01 1.38909E-24
5.00000E-01 1.35801E-24
5.04363E-01 1.32768E-24
5.08726E-01 1.29809E-24
5.13088E-01 1.26922E-24
5.17450E-01 1.24104E-24
5.21810E-01 1.21353E-24
5.26168E-01 1.18668E-24
5.30524E-01 1.16046E-24
5.34878E-01 1.13486E-24
5.39230E-01 1.10986E-24
5.43578E-01 1.08545E-24
5.47923E-01 1.06160E-24
5.52264E-01 1.03831E-24
5.56602E-01 1.01555E-24
5.60935E-01 9.93320E-25
5.65263E-01 9.71595E-25
5.69587E-01 9.50365E-25
5.73905E-01 9.29616E-25
5.78217E-01 9.09336E-25
5.82524E-01 8.89512E-25
5.86824E-01 8.70132E-25
5.91118E-01 8.51185E-25
5.95404E-01 8.32659E-25
5.99684E-01 8.14543E-25
6.03956E-01 7.96827E-25
6.08220E-01 7.79501E-25
6.12476E-01 7.62553E-25
6.16723E-01 7.45976E-25
6.20961E-01 7.29759E-25
6.25190E-01 7.13893E-25
6.29410E-01 6.98369E-25
6.33619E-01 6.83179E-25
6.37819E-01 6.68315E-25
6.42008E-01 6.53768E-25
6.46186E-01 6.39531E-25
6.50353E-01 6.25595E-25
6.54508E-01 6.11955E-25
6.58652E-01 5.98602E-25
6.62784E-01 5.85529E-25
6.66903E-01 5.72730E-25
6.71010E-01 5.60199E-25
6.75104E-01 5.47928E-25
6.79184E-01 5.35912E-25
6.83251E-01 5.24144E-25
6.87303E-01 5.12619E-25
6.91342E-01 5.01332E-25
6.95366E-01 4.90275E-25
6.99375E-01 4.79445E-25
7.03368E-01 4.68836E-25
7.07347E-01 4.58443E-25
7.11309E-01 4.48261E-25
7.15256E-01 4.38285E-25
7.19186E-01 4.28511E-25
7.23099E-01 4.18933E-25
7.26995E-01 4.09548E-25
7.30874E-01 4.00352E-25
7.34736E-01 3.91339E-25
7.38579E-01 3.82506E-25
7.42405E-01 3.73850E-25
7.46212E-01 3.65365E-25
7.50000E-01 3.57049E-25
7.53769E-01 3.48898E-25
7.57519E-01 3.40908E-25
7.61249E-01 3.33075E-25
7.64960E-01 3.25397E-25
7.68650E-01 3.17870E-25
7.72320E-01 3.10491E-25
7.75968E-01 3.03257E-25
7.79596E-01 2.96165E-25
7.83203E-01 2.89211E-25
7.86788E-01 2.82393E-25
7.90351E-01 2.75709E-25
7.93893E-01 2.69154E-25
7.97411E-01 2.62728E-25
8.00908E-01 2.56426E-25
8.04381E-01 2.50248E-25
8.07831E-01 2.44189E-25
8.11257E-01 2.38248E-25
8.14660E-01 2.32423E-25
8.18039E-01 2.26710E-25
8.21394E-01 2.21109E-25
8.24724E-01 2.15616E-25
8.28030E-01 2.10230E-25
8.31310E-01 2.04948E-25
8.34565E-01 1.99769E-25
8.37795E-01 1.94691E-25
8.40999E-01 1.89711E-25
8.44177E-01 1.84828E-25
8.47329E-01 1.80040E-25
8.50455E-01 1.75346E-25
8.53553E-01 1.70743E-25
8.56625E-01 1.66229E-25
8.59670E-01 1.61804E-25
8.62687E-01 1.57466E-25
8.65677E-01 1.53213E-25
8.68639E-01 1.49043E-25
8.71572E-01 1.44955E-25
8.74478E-01 1.40947E-25
8.77355E-01 1.37019E-25
8.80203E-01 1.33169E-25
8.83022E-01 1.29395E-25
8.85812E-01 1.25696E-25
8.88573E-01 1.22072E-25
8.91304E-01 1.18519E-25
8.94005E-01 1.15038E-25
8.96677E-01 1.11628E-25
8.99318E-01 1.08286E-25
9.01928E-01 1.05013E-25
9.04508E-01 1.01806E-25
9.07058E-01 9.86647E-26
9.09576E-01 9.55884E-26
9.12063E-01 9.25757E-26
9.14519E-01 8.96258E-26
9.16943E-01 8.67376E-26
9.19335E-01 8.39102E-26
9.21696E-01 8.11427E-26
9.24024E-01 7.84341E-26
9.26320E-01 7.57836E-26
9.28584E-01 7.31904E-26
9.30815E-01 7.06536E-26
9.33013E-01 6.81724E-26
9.35178E-01 6.57460E-26
9.37310E-01 6.33736E-26
9.39409E-01 6.10546E-26
9.41474E-01 5.87881E-26
9.43505E-01 5.65735E-26
9.45503E-01 5.44101E-26
9.47467E-01 5.22971E-26
9.49397E-01 5.02340E-26
9.51293E-01 4.82201E-26
9.53154E-01 4.62548E-26
9.54981E-01 4.43374E-26
9.56773E-01 4.24675E-26
9.58530E-01 4.06444E-26
9.60252E-01 3.88675E-26
9.61940E-01 3.71364E-26
9.63592E-01 3.54505E-26
9.65209E-01 3.38093E-26
9.66790E-01 3.22123E-26
9.68336E-01 3.06590E-26
9.69846E-01 2.91491E-26
9.71321E-01 2.76819E-26
9.72759E-01 2.62571E-26
9.74162E-01 2.48743E-26
9.75528E-01 2.35330E-26
9.76858E-01 2.22329E-26
9.78152E-01 2.09736E-26
9.79410E-01 1.97546E-26
9.80631E-01 1.85758E-26
9.81815E-01 1.74366E-26
9.82963E-01 1.63368E-26
9.84074E-01 1.52761E-26
9.85148E-01 1.42541E-26
9.86185E-01 1.32705E-26
9.87185E-01 1.23252E-26
9.88148E-01 1.14177E-26
9.89074E-01 1.05478E-26
9.89962E-01 9.71539E-27
9.90814E-01 8.92007E-27
9.91627E-01 8.16167E-27
9.92404E-01 7.43997E-27
9.93143E-01 6.75477E-27
9.93844E-01 6.10586E-27
9.94508E-01 5.49306E-27
9.95134E-01 4.91621E-27
9.95722E-01 4.37512E-27
9.96273E-01 3.86966E-27
9.96786E-01 3.39968E-27
9.97261E-01 2.96504E-27
9.97698E-01 2.56562E-27
9.98097E-01 2.20131E-27
9.98459E-01 1.87201E-27
9.98782E-01 1.57761E-27
9.99067E-01 1.31805E-27
9.99315E-01 1.09325E-27
9.99524E-01 9.03132E-28
9.99695E-01 7.47658E-28
9.99829E-01 6.26779E-28
9.99924E-01 5.40461E-28
9.99981E-01 4.88680E-28
1.00000E+00 4.71421E-28
