 #
 # Subroutine ELSEPA. Elastic scattering of electrons and positrons
 #                    by neutral atoms and positive ions
 #
 # Projectile: electron
 # Kinetic energy = 3.00000E+06 eV = 1.10248E+05 a.u.
 #
 # WARNING: High-energy factorization with free-atom DF screening.
 #          Absorption, polarization and exchange corrections are
 #          switched off.
 #          Phase shifts are calculated for the bare nucleus.
 #          Scattering amplitudes are not evaluated.
 #
 # Element: Rn,  Z =  86,  atomic weight = 2.22018E+02 g/mol
 #
 # Nuclear model: Fermi distribution
 #                Average radius = 6.47907E-13 cm
 #                Skin thickness = 5.46000E-14 cm
 #
 # Number of electrons = 86
 #
 # Total elastic cross section = 9.81418E-18 cm**2 = 3.50471E-01 a0**2
 # 1st transport cross section = 9.84233E-22 cm**2 = 3.51476E-05 a0**2
 # 2nd transport cross section = 2.57562E-21 cm**2 = 9.19770E-05 a0**2
 #
 #
 # Differential cross section:                       MU=(1-COS(THETA))/2
 #
 #  THETA        MU          DCS          DCS        Sherman      error
 #  (deg)                 (cm**2/sr)   (a0**2/sr)    function
 #----------------------------------------------------------------------
0.00000E+00 7.92310E-13
7.61557E-13 7.92308E-13
1.18994E-12 7.92307E-13
1.71346E-12 7.92306E-13
2.33225E-12 7.92305E-13
3.04617E-12 7.92303E-13
3.85530E-12 7.92302E-13
4.75964E-12 7.92300E-13
5.75917E-12 7.92298E-13
6.85391E-12 7.92295E-13
8.04379E-12 7.92293E-13
9.32893E-12 7.92290E-13
1.07092E-11 7.92287E-13
1.21847E-11 7.92284E-13
1.37554E-11 7.92281E-13
1.54213E-11 7.92277E-13
1.71823E-11 7.92274E-13
1.90386E-11 7.92270E-13
2.09900E-11 7.92265E-13
2.30367E-11 7.92261E-13
2.51785E-11 7.92256E-13
2.74156E-11 7.92252E-13
2.97478E-11 7.92247E-13
3.21752E-11 7.92242E-13
3.46979E-11 7.92236E-13
3.73157E-11 7.92231E-13
4.00286E-11 7.92225E-13
4.28368E-11 7.92219E-13
4.57402E-11 7.92212E-13
4.87388E-11 7.92206E-13
5.18325E-11 7.92199E-13
5.50215E-11 7.92193E-13
5.83057E-11 7.92186E-13
6.16850E-11 7.92178E-13
6.51595E-11 7.92171E-13
6.87293E-11 7.92163E-13
7.23943E-11 7.92155E-13
7.61544E-11 7.92147E-13
1.18991E-10 7.92055E-13
1.71347E-10 7.91943E-13
2.33223E-10 7.91810E-13
3.04617E-10 7.91656E-13
3.85531E-10 7.91482E-13
4.75965E-10 7.91288E-13
5.75917E-10 7.91073E-13
6.85389E-10 7.90837E-13
8.04380E-10 7.90582E-13
9.32891E-10 7.90306E-13
1.07092E-09 7.90009E-13
1.21847E-09 7.89692E-13
1.37554E-09 7.89355E-13
1.54213E-09 7.88998E-13
1.71823E-09 7.88621E-13
1.90386E-09 7.88223E-13
2.09900E-09 7.87806E-13
2.30367E-09 7.87368E-13
2.51785E-09 7.86911E-13
2.74156E-09 7.86433E-13
2.97478E-09 7.85936E-13
3.21752E-09 7.85419E-13
3.46978E-09 7.84882E-13
3.73156E-09 7.84325E-13
4.00286E-09 7.83749E-13
4.28368E-09 7.83154E-13
4.57402E-09 7.82538E-13
4.87388E-09 7.81904E-13
5.18326E-09 7.81250E-13
5.50215E-09 7.80576E-13
5.83057E-09 7.79884E-13
6.16850E-09 7.79173E-13
6.51596E-09 7.78442E-13
6.87293E-09 7.77693E-13
7.23942E-09 7.76924E-13
7.61544E-09 7.76137E-13
1.18991E-08 7.67256E-13
1.71347E-08 7.56611E-13
2.33223E-08 7.44221E-13
3.04617E-08 7.30484E-13
3.85531E-08 7.15222E-13
4.75965E-08 6.98800E-13
5.75917E-08 6.81472E-13
6.85389E-08 6.62954E-13
8.04380E-08 6.43898E-13
9.32891E-08 6.24269E-13
1.07092E-07 6.04028E-13
1.21847E-07 5.83748E-13
1.37554E-07 5.63122E-13
1.54213E-07 5.42471E-13
1.71823E-07 5.22157E-13
1.90386E-07 5.01645E-13
2.09900E-07 4.81605E-13
2.30367E-07 4.62021E-13
2.51785E-07 4.42589E-13
2.74156E-07 4.23855E-13
2.97478E-07 4.05577E-13
3.21752E-07 3.87780E-13
3.46978E-07 3.70752E-13
3.73156E-07 3.54148E-13
4.00286E-07 3.38226E-13
4.28368E-07 3.23061E-13
4.57402E-07 3.08296E-13
4.87388E-07 2.94293E-13
5.18325E-07 2.80923E-13
5.50215E-07 2.68066E-13
5.83057E-07 2.55902E-13
6.16850E-07 2.44261E-13
6.51596E-07 2.33171E-13
6.87293E-07 2.22694E-13
7.23942E-07 2.12646E-13
7.61543E-07 2.03139E-13
1.18991E-06 1.31027E-13
1.71347E-06 8.81256E-14
2.33223E-06 6.11303E-14
3.04617E-06 4.46540E-14
3.85531E-06 3.30801E-14
4.75964E-06 2.51714E-14
5.75916E-06 1.95634E-14
6.85388E-06 1.53091E-14
8.04378E-06 1.22126E-14
9.32888E-06 9.85565E-15
1.07092E-05 8.03239E-15
1.21846E-05 6.63388E-15
1.37553E-05 5.52158E-15
1.54212E-05 4.63824E-15
1.71822E-05 3.93351E-15
1.90385E-05 3.34910E-15
2.09899E-05 2.87760E-15
2.30365E-05 2.48711E-15
2.51783E-05 2.15656E-15
2.74153E-05 1.88036E-15
2.97475E-05 1.64553E-15
3.21749E-05 1.44521E-15
3.46974E-05 1.27523E-15
3.73152E-05 1.12828E-15
4.00281E-05 1.00202E-15
4.28362E-05 8.93228E-16
4.57395E-05 7.98192E-16
4.87380E-05 7.15478E-16
5.18317E-05 6.42763E-16
5.50205E-05 5.78883E-16
5.83045E-05 5.22962E-16
6.16838E-05 4.73644E-16
6.51582E-05 4.30102E-16
6.87277E-05 3.91627E-16
7.23925E-05 3.57334E-16
7.61524E-05 3.26800E-16
9.21439E-05 2.33152E-16
1.09658E-04 1.70923E-16
1.28695E-04 1.28323E-16
1.49255E-04 9.82868E-17
1.71338E-04 7.65814E-17
1.94942E-04 6.05293E-17
2.20070E-04 4.84925E-17
2.46720E-04 3.93223E-17
2.74892E-04 3.22513E-17
3.04586E-04 2.66779E-17
3.35803E-04 2.22753E-17
3.68542E-04 1.87509E-17
4.02802E-04 1.58903E-17
4.38585E-04 1.35623E-17
4.75889E-04 1.16439E-17
5.14715E-04 1.00522E-17
5.55063E-04 8.72595E-18
5.96931E-04 7.60880E-18
6.40321E-04 6.66540E-18
6.85233E-04 5.86477E-18
7.31665E-04 5.17890E-18
7.79618E-04 4.59130E-18
8.29092E-04 4.08473E-18
8.80086E-04 3.64566E-18
9.32601E-04 3.26455E-18
9.86636E-04 2.93176E-18
1.04219E-03 2.64036E-18
1.09927E-03 2.38461E-18
1.15786E-03 2.15888E-18
1.21797E-03 1.95945E-18
1.27961E-03 1.78267E-18
1.34276E-03 1.62531E-18
1.40743E-03 1.48512E-18
1.47362E-03 1.35976E-18
1.54133E-03 1.24738E-18
1.61056E-03 1.14648E-18
1.68131E-03 1.05558E-18
1.75357E-03 9.73570E-19
1.82735E-03 8.99444E-19
1.90265E-03 8.32216E-19
1.97947E-03 7.71212E-19
2.05780E-03 7.15729E-19
2.13765E-03 6.65143E-19
2.21902E-03 6.18991E-19
2.30190E-03 5.76782E-19
2.38630E-03 5.38118E-19
2.47222E-03 5.02670E-19
2.55965E-03 4.70088E-19
2.64859E-03 4.40120E-19
2.73905E-03 4.12521E-19
2.83103E-03 3.87043E-19
2.92452E-03 3.63520E-19
3.01952E-03 3.41763E-19
3.11604E-03 3.21610E-19
3.21407E-03 3.02934E-19
3.31362E-03 2.85593E-19
3.41468E-03 2.69481E-19
3.51725E-03 2.54499E-19
3.62133E-03 2.40540E-19
3.72692E-03 2.27533E-19
3.83403E-03 2.15398E-19
3.94265E-03 2.04061E-19
4.05278E-03 1.93466E-19
4.16442E-03 1.83552E-19
4.27757E-03 1.74267E-19
4.39223E-03 1.65567E-19
4.50840E-03 1.57403E-19
4.62608E-03 1.49739E-19
4.74527E-03 1.42540E-19
4.86597E-03 1.35769E-19
4.98817E-03 1.29398E-19
5.11188E-03 1.23399E-19
5.23711E-03 1.17745E-19
5.36383E-03 1.12414E-19
5.49207E-03 1.07382E-19
5.62181E-03 1.02631E-19
5.75306E-03 9.81422E-20
5.88581E-03 9.38967E-20
6.02007E-03 8.98806E-20
6.15583E-03 8.60789E-20
6.29310E-03 8.24769E-20
6.43187E-03 7.90634E-20
6.57214E-03 7.58261E-20
6.71392E-03 7.27539E-20
6.85720E-03 6.98376E-20
7.00198E-03 6.70668E-20
7.14827E-03 6.44335E-20
7.29605E-03 6.19298E-20
7.44534E-03 5.95471E-20
7.59612E-03 5.72794E-20
7.97965E-03 5.20695E-20
8.37255E-03 4.74446E-20
8.77480E-03 4.33278E-20
9.18641E-03 3.96528E-20
9.60736E-03 3.63643E-20
1.00376E-02 3.34140E-20
1.04773E-02 3.07610E-20
1.09262E-02 2.83700E-20
1.13844E-02 2.62102E-20
1.18520E-02 2.42554E-20
1.23288E-02 2.24824E-20
1.28150E-02 2.08713E-20
1.33104E-02 1.94045E-20
1.38150E-02 1.80667E-20
1.43290E-02 1.68445E-20
1.48521E-02 1.57259E-20
1.53845E-02 1.47006E-20
1.59262E-02 1.37594E-20
1.64770E-02 1.28939E-20
1.70371E-02 1.20970E-20
1.76063E-02 1.13622E-20
1.81848E-02 1.06838E-20
1.87724E-02 1.00565E-20
1.93692E-02 9.47569E-21
1.99751E-02 8.93748E-21
2.05901E-02 8.43793E-21
2.12143E-02 7.97384E-21
2.18476E-02 7.54218E-21
2.24900E-02 7.14017E-21
2.31415E-02 6.76546E-21
2.38021E-02 6.41579E-21
2.44717E-02 6.08915E-21
2.51504E-02 5.78377E-21
2.58382E-02 5.49791E-21
2.65349E-02 5.23014E-21
2.72407E-02 4.97908E-21
2.79555E-02 4.74343E-21
2.86793E-02 4.52211E-21
2.94120E-02 4.31405E-21
3.01537E-02 4.11827E-21
3.09043E-02 3.93395E-21
3.16639E-02 3.76023E-21
3.24324E-02 3.59641E-21
3.32098E-02 3.44181E-21
3.39961E-02 3.29577E-21
3.47912E-02 3.15775E-21
3.55952E-02 3.02722E-21
3.64081E-02 2.90367E-21
3.72297E-02 2.78666E-21
3.80602E-02 2.67577E-21
3.88995E-02 2.57061E-21
3.97476E-02 2.47083E-21
4.06044E-02 2.37608E-21
4.14700E-02 2.28606E-21
4.23443E-02 2.20050E-21
4.32273E-02 2.11911E-21
4.41190E-02 2.04166E-21
4.50194E-02 1.96790E-21
4.59284E-02 1.89764E-21
4.68461E-02 1.83066E-21
4.87074E-02 1.70582E-21
5.06030E-02 1.59203E-21
5.25328E-02 1.48813E-21
5.44967E-02 1.39306E-21
5.64946E-02 1.30593E-21
5.85262E-02 1.22592E-21
6.05914E-02 1.15234E-21
6.26901E-02 1.08455E-21
6.48222E-02 1.02200E-21
6.69873E-02 9.64206E-22
6.91854E-02 9.10718E-22
7.14163E-02 8.61148E-22
7.36799E-02 8.15145E-22
7.59760E-02 7.72394E-22
7.83043E-02 7.32616E-22
8.06647E-02 6.95556E-22
8.30571E-02 6.60987E-22
8.54812E-02 6.28702E-22
8.79369E-02 5.98516E-22
9.04240E-02 5.70263E-22
9.29422E-02 5.43787E-22
9.54915E-02 5.18953E-22
9.80716E-02 4.95633E-22
1.00682E-01 4.73715E-22
1.03323E-01 4.53093E-22
1.05995E-01 4.33673E-22
1.08696E-01 4.15367E-22
1.11427E-01 3.98097E-22
1.14188E-01 3.81789E-22
1.16978E-01 3.66376E-22
1.19797E-01 3.51798E-22
1.22645E-01 3.37999E-22
1.25522E-01 3.24925E-22
1.28428E-01 3.12530E-22
1.31361E-01 3.00770E-22
1.34323E-01 2.89603E-22
1.37313E-01 2.78992E-22
1.40330E-01 2.68903E-22
1.43375E-01 2.59304E-22
1.46447E-01 2.50164E-22
1.49545E-01 2.41455E-22
1.52671E-01 2.33153E-22
1.55823E-01 2.25233E-22
1.59001E-01 2.17673E-22
1.62205E-01 2.10453E-22
1.65435E-01 2.03553E-22
1.68690E-01 1.96955E-22
1.71970E-01 1.90643E-22
1.75276E-01 1.84600E-22
1.78606E-01 1.78813E-22
1.81961E-01 1.73267E-22
1.85340E-01 1.67951E-22
1.88743E-01 1.62851E-22
1.92169E-01 1.57956E-22
1.95619E-01 1.53257E-22
1.99092E-01 1.48743E-22
2.02589E-01 1.44405E-22
2.06107E-01 1.40234E-22
2.09649E-01 1.36222E-22
2.13212E-01 1.32362E-22
2.16797E-01 1.28645E-22
2.20404E-01 1.25066E-22
2.24032E-01 1.21617E-22
2.27680E-01 1.18293E-22
2.31350E-01 1.15087E-22
2.35040E-01 1.11995E-22
2.38751E-01 1.09012E-22
2.42481E-01 1.06132E-22
2.46231E-01 1.03351E-22
2.50000E-01 1.00664E-22
2.53788E-01 9.80675E-23
2.57595E-01 9.55576E-23
2.61421E-01 9.31306E-23
2.65264E-01 9.07829E-23
2.69126E-01 8.85113E-23
2.73005E-01 8.63124E-23
2.76901E-01 8.41835E-23
2.80814E-01 8.21216E-23
2.84744E-01 8.01240E-23
2.88691E-01 7.81881E-23
2.92653E-01 7.63115E-23
2.96632E-01 7.44920E-23
3.00625E-01 7.27271E-23
3.04634E-01 7.10149E-23
3.08658E-01 6.93533E-23
3.12697E-01 6.77404E-23
3.16749E-01 6.61743E-23
3.20816E-01 6.46534E-23
3.24896E-01 6.31760E-23
3.28990E-01 6.17404E-23
3.33097E-01 6.03452E-23
3.37216E-01 5.89889E-23
3.41348E-01 5.76701E-23
3.45492E-01 5.63875E-23
3.49647E-01 5.51397E-23
3.53814E-01 5.39257E-23
3.57992E-01 5.27442E-23
3.62181E-01 5.15940E-23
3.66381E-01 5.04742E-23
3.70590E-01 4.93837E-23
3.74810E-01 4.83216E-23
3.79039E-01 4.72868E-23
3.83277E-01 4.62786E-23
3.87524E-01 4.52959E-23
3.91780E-01 4.43381E-23
3.96044E-01 4.34043E-23
4.00316E-01 4.24936E-23
4.04596E-01 4.16055E-23
4.08882E-01 4.07391E-23
4.13176E-01 3.98938E-23
4.17476E-01 3.90690E-23
4.21783E-01 3.82640E-23
4.26095E-01 3.74782E-23
4.30413E-01 3.67110E-23
4.34737E-01 3.59618E-23
4.39065E-01 3.52302E-23
4.43398E-01 3.45157E-23
4.47736E-01 3.38176E-23
4.52077E-01 3.31355E-23
4.56422E-01 3.24690E-23
4.60770E-01 3.18176E-23
4.65122E-01 3.11809E-23
4.69476E-01 3.05584E-23
4.73832E-01 2.99497E-23
4.78190E-01 2.93545E-23
4.82550E-01 2.87724E-23
4.86912E-01 2.82030E-23
4.91274E-01 2.76460E-23
4.95637E-01 2.71011E-23
5.00000E-01 2.65678E-23
5.04363E-01 2.60460E-23
5.08726E-01 2.55352E-23
5.13088E-01 2.50352E-23
5.17450E-01 2.45458E-23
5.21810E-01 2.40665E-23
5.26168E-01 2.35973E-23
5.30524E-01 2.31377E-23
5.34878E-01 2.26876E-23
5.39230E-01 2.22467E-23
5.43578E-01 2.18148E-23
5.47923E-01 2.13916E-23
5.52264E-01 2.09770E-23
5.56602E-01 2.05707E-23
5.60935E-01 2.01725E-23
5.65263E-01 1.97822E-23
5.69587E-01 1.93997E-23
5.73905E-01 1.90247E-23
5.78217E-01 1.86570E-23
5.82524E-01 1.82965E-23
5.86824E-01 1.79431E-23
5.91118E-01 1.75964E-23
5.95404E-01 1.72565E-23
5.99684E-01 1.69230E-23
6.03956E-01 1.65960E-23
6.08220E-01 1.62751E-23
6.12476E-01 1.59603E-23
6.16723E-01 1.56515E-23
6.20961E-01 1.53485E-23
6.25190E-01 1.50511E-23
6.29410E-01 1.47593E-23
6.33619E-01 1.44729E-23
6.37819E-01 1.41919E-23
6.42008E-01 1.39160E-23
6.46186E-01 1.36452E-23
6.50353E-01 1.33793E-23
6.54508E-01 1.31183E-23
6.58652E-01 1.28621E-23
6.62784E-01 1.26105E-23
6.66903E-01 1.23634E-23
6.71010E-01 1.21208E-23
6.75104E-01 1.18826E-23
6.79184E-01 1.16486E-23
6.83251E-01 1.14189E-23
6.87303E-01 1.11932E-23
6.91342E-01 1.09715E-23
6.95366E-01 1.07537E-23
6.99375E-01 1.05398E-23
7.03368E-01 1.03297E-23
7.07347E-01 1.01233E-23
7.11309E-01 9.92049E-24
7.15256E-01 9.72124E-24
7.19186E-01 9.52547E-24
7.23099E-01 9.33311E-24
7.26995E-01 9.14411E-24
7.30874E-01 8.95838E-24
7.34736E-01 8.77588E-24
7.38579E-01 8.59653E-24
7.42405E-01 8.42028E-24
7.46212E-01 8.24707E-24
7.50000E-01 8.07684E-24
7.53769E-01 7.90955E-24
7.57519E-01 7.74512E-24
7.61249E-01 7.58353E-24
7.64960E-01 7.42470E-24
7.68650E-01 7.26860E-24
7.72320E-01 7.11517E-24
7.75968E-01 6.96436E-24
7.79596E-01 6.81613E-24
7.83203E-01 6.67044E-24
7.86788E-01 6.52723E-24
7.90351E-01 6.38646E-24
7.93893E-01 6.24810E-24
7.97411E-01 6.11210E-24
8.00908E-01 5.97841E-24
8.04381E-01 5.84701E-24
8.07831E-01 5.71784E-24
8.11257E-01 5.59088E-24
8.14660E-01 5.46609E-24
8.18039E-01 5.34343E-24
8.21394E-01 5.22287E-24
8.24724E-01 5.10438E-24
8.28030E-01 4.98791E-24
8.31310E-01 4.87345E-24
8.34565E-01 4.76095E-24
8.37795E-01 4.65039E-24
8.40999E-01 4.54174E-24
8.44177E-01 4.43497E-24
8.47329E-01 4.33004E-24
8.50455E-01 4.22693E-24
8.53553E-01 4.12561E-24
8.56625E-01 4.02605E-24
8.59670E-01 3.92824E-24
8.62687E-01 3.83213E-24
8.65677E-01 3.73771E-24
8.68639E-01 3.64495E-24
8.71572E-01 3.55382E-24
8.74478E-01 3.46432E-24
8.77355E-01 3.37640E-24
8.80203E-01 3.29005E-24
8.83022E-01 3.20525E-24
8.85812E-01 3.12199E-24
8.88573E-01 3.04022E-24
8.91304E-01 2.95995E-24
8.94005E-01 2.88113E-24
8.96677E-01 2.80377E-24
8.99318E-01 2.72783E-24
9.01928E-01 2.65331E-24
9.04508E-01 2.58017E-24
9.07058E-01 2.50841E-24
9.09576E-01 2.43800E-24
9.12063E-01 2.36893E-24
9.14519E-01 2.30118E-24
9.16943E-01 2.23474E-24
9.19335E-01 2.16959E-24
9.21696E-01 2.10571E-24
9.24024E-01 2.04310E-24
9.26320E-01 1.98173E-24
9.28584E-01 1.92158E-24
9.30815E-01 1.86266E-24
9.33013E-01 1.80494E-24
9.35178E-01 1.74841E-24
9.37310E-01 1.69306E-24
9.39409E-01 1.63888E-24
9.41474E-01 1.58584E-24
9.43505E-01 1.53395E-24
9.45503E-01 1.48319E-24
9.47467E-01 1.43354E-24
9.49397E-01 1.38500E-24
9.51293E-01 1.33755E-24
9.53154E-01 1.29119E-24
9.54981E-01 1.24591E-24
9.56773E-01 1.20169E-24
9.58530E-01 1.15852E-24
9.60252E-01 1.11640E-24
9.61940E-01 1.07532E-24
9.63592E-01 1.03526E-24
9.65209E-01 9.96227E-25
9.66790E-01 9.58200E-25
9.68336E-01 9.21174E-25
9.69846E-01 8.85143E-25
9.71321E-01 8.50097E-25
9.72759E-01 8.16030E-25
9.74162E-01 7.82934E-25
9.75528E-01 7.50803E-25
9.76858E-01 7.19628E-25
9.78152E-01 6.89405E-25
9.79410E-01 6.60126E-25
9.80631E-01 6.31785E-25
9.81815E-01 6.04376E-25
9.82963E-01 5.77893E-25
9.84074E-01 5.52332E-25
9.85148E-01 5.27685E-25
9.86185E-01 5.03949E-25
9.87185E-01 4.81119E-25
9.88148E-01 4.59188E-25
9.89074E-01 4.38154E-25
9.89962E-01 4.18011E-25
9.90814E-01 3.98756E-25
9.91627E-01 3.80384E-25
9.92404E-01 3.62891E-25
9.93143E-01 3.46275E-25
9.93844E-01 3.30531E-25
9.94508E-01 3.15656E-25
9.95134E-01 3.01648E-25
9.95722E-01 2.88503E-25
9.96273E-01 2.76218E-25
9.96786E-01 2.64792E-25
9.97261E-01 2.54221E-25
9.97698E-01 2.44504E-25
9.98097E-01 2.35639E-25
9.98459E-01 2.27623E-25
9.98782E-01 2.20456E-25
9.99067E-01 2.14135E-25
9.99315E-01 2.08660E-25
9.99524E-01 2.04029E-25
9.99695E-01 2.00241E-25
9.99829E-01 1.97295E-25
9.99924E-01 1.95192E-25
9.99981E-01 1.93930E-25
1.00000E+00 1.93510E-25
