 #
 # Subroutine ELSEPA. Elastic scattering of electrons and positrons
 #                    by neutral atoms and positive ions
 #
 # Projectile: electron
 # Kinetic energy = 4.50000E+08 eV = 1.65372E+07 a.u.
 #
 # WARNING: High-energy factorization with free-atom DF screening.
 #          Absorption, polarization and exchange corrections are
 #          switched off.
 #          Phase shifts are calculated for the bare nucleus.
 #          Scattering amplitudes are not evaluated.
 #
 # Element: Rn,  Z =  86,  atomic weight = 2.22018E+02 g/mol
 #
 # Nuclear model: Fermi distribution
 #                Average radius = 6.47907E-13 cm
 #                Skin thickness = 5.46000E-14 cm
 #
 # Number of electrons = 86
 #
 # Total elastic cross section = 9.58801E-18 cm**2 = 3.42394E-01 a0**2
 # 1st transport cross section = 6.80970E-26 cm**2 = 2.43179E-09 a0**2
 # 2nd transport cross section = 2.04195E-25 cm**2 = 7.29193E-09 a0**2
 #
 #
 # Differential cross section:                       MU=(1-COS(THETA))/2
 #
 #  THETA        MU          DCS          DCS        Sherman      error
 #  (deg)                 (cm**2/sr)   (a0**2/sr)    function
 #----------------------------------------------------------------------
0.00000E+00 1.30450E-08
7.61557E-13 1.26006E-08
1.18994E-12 1.23604E-08
1.71346E-12 1.20770E-08
2.33225E-12 1.17535E-08
3.04617E-12 1.13970E-08
3.85530E-12 1.10134E-08
4.75964E-12 1.06089E-08
5.75917E-12 1.01893E-08
6.85391E-12 9.75539E-09
8.04379E-12 9.31548E-09
9.32893E-12 8.87521E-09
1.07092E-11 8.43871E-09
1.21847E-11 8.00940E-09
1.37554E-11 7.58889E-09
1.54213E-11 7.17720E-09
1.71823E-11 6.78021E-09
1.90386E-11 6.39922E-09
2.09900E-11 6.03515E-09
2.30367E-11 5.68849E-09
2.51785E-11 5.35746E-09
2.74156E-11 5.04349E-09
2.97478E-11 4.74746E-09
3.21752E-11 4.46889E-09
3.46979E-11 4.20717E-09
3.73157E-11 3.96152E-09
4.00286E-11 3.72990E-09
4.28368E-11 3.51332E-09
4.57402E-11 3.31094E-09
4.87388E-11 3.12191E-09
5.18325E-11 2.94540E-09
5.50215E-11 2.78018E-09
5.83057E-11 2.62562E-09
6.16850E-11 2.48143E-09
6.51595E-11 2.34689E-09
6.87293E-11 2.22130E-09
7.23943E-11 2.10402E-09
7.61544E-11 1.99405E-09
1.18991E-10 1.20914E-09
1.71347E-10 7.85178E-10
2.33223E-10 5.32171E-10
3.04617E-10 3.74737E-10
3.85531E-10 2.71806E-10
4.75965E-10 2.01998E-10
5.75917E-10 1.53323E-10
6.85389E-10 1.18302E-10
8.04380E-10 9.29036E-11
9.32891E-10 7.41124E-11
1.07092E-09 5.99250E-11
1.21847E-09 4.90192E-11
1.37554E-09 4.04843E-11
1.54213E-09 3.36898E-11
1.71823E-09 2.82588E-11
1.90386E-09 2.38711E-11
2.09900E-09 2.02936E-11
2.30367E-09 1.73534E-11
2.51785E-09 1.49124E-11
2.74156E-09 1.28859E-11
2.97478E-09 1.11839E-11
3.21752E-09 9.75015E-12
3.46978E-09 8.54066E-12
3.73156E-09 7.51533E-12
4.00286E-09 6.64012E-12
4.28368E-09 5.89085E-12
4.57402E-09 5.24589E-12
4.87388E-09 4.68788E-12
5.18326E-09 4.20283E-12
5.50215E-09 3.77898E-12
5.83057E-09 3.40731E-12
6.16850E-09 3.08070E-12
6.51596E-09 2.79275E-12
6.87293E-09 2.53808E-12
7.23942E-09 2.31217E-12
7.61544E-09 2.11089E-12
1.18991E-08 9.38719E-13
1.71347E-08 4.79863E-13
2.33223E-08 2.70563E-13
3.04617E-08 1.63999E-13
3.85531E-08 1.05062E-13
4.75965E-08 7.03360E-14
5.75917E-08 4.88250E-14
6.85389E-08 3.49409E-14
8.04380E-08 2.56623E-14
9.32891E-08 1.92727E-14
1.07092E-07 1.47565E-14
1.21847E-07 1.14906E-14
1.37554E-07 9.08108E-15
1.54213E-07 7.27152E-15
1.71823E-07 5.89100E-15
1.90386E-07 4.82287E-15
2.09900E-07 3.98600E-15
2.30367E-07 3.32283E-15
2.51785E-07 2.79184E-15
2.74156E-07 2.36266E-15
2.97478E-07 2.01276E-15
3.21752E-07 1.72522E-15
3.46978E-07 1.48718E-15
3.73156E-07 1.28877E-15
4.00286E-07 1.12234E-15
4.28368E-07 9.81909E-16
4.57402E-07 8.62756E-16
4.87388E-07 7.61133E-16
5.18325E-07 6.74035E-16
5.50215E-07 5.99044E-16
5.83057E-07 5.34196E-16
6.16850E-07 4.77890E-16
6.51596E-07 4.28811E-16
6.87293E-07 3.85874E-16
7.23942E-07 3.48181E-16
7.61543E-07 3.14980E-16
1.18991E-06 1.30114E-16
1.71347E-06 6.31197E-17
2.33223E-06 3.42182E-17
3.04617E-06 2.01235E-17
3.85531E-06 1.25946E-17
4.75964E-06 8.27964E-18
5.75916E-06 5.66410E-18
6.85388E-06 4.00445E-18
8.04378E-06 2.91049E-18
9.32888E-06 2.16584E-18
1.07092E-05 1.64482E-18
1.21846E-05 1.27146E-18
1.37553E-05 9.98278E-19
1.54212E-05 7.94683E-19
1.71822E-05 6.40446E-19
1.90385E-05 5.21542E-19
2.09899E-05 4.29590E-19
2.30365E-05 3.56967E-19
2.51783E-05 2.98963E-19
2.74153E-05 2.52202E-19
2.97475E-05 2.14202E-19
3.21749E-05 1.83098E-19
3.46974E-05 1.57458E-19
3.73152E-05 1.36175E-19
4.00281E-05 1.18386E-19
4.28362E-05 1.03417E-19
4.57395E-05 9.07402E-20
4.87380E-05 7.99440E-20
5.18317E-05 7.07024E-20
5.50205E-05 6.27554E-20
5.83045E-05 5.58933E-20
6.16838E-05 4.99450E-20
6.51582E-05 4.47693E-20
6.87277E-05 4.02487E-20
7.23925E-05 3.62857E-20
7.61524E-05 3.32772E-20
9.21439E-05 2.28100E-20
1.09658E-04 1.61611E-20
1.28695E-04 1.17737E-20
1.49255E-04 8.78151E-21
1.71338E-04 6.68298E-21
1.94942E-04 5.17609E-21
2.20070E-04 4.07106E-21
2.46720E-04 3.24563E-21
2.74892E-04 2.61889E-21
3.04586E-04 2.13596E-21
3.35803E-04 1.75897E-21
3.68542E-04 1.46115E-21
4.02802E-04 1.22334E-21
4.38585E-04 1.03160E-21
4.75889E-04 8.75593E-22
5.14715E-04 7.47640E-22
5.55063E-04 6.41889E-22
5.96931E-04 5.53887E-22
6.40321E-04 4.80181E-22
6.85233E-04 4.18079E-22
7.31665E-04 3.65467E-22
7.79618E-04 3.20662E-22
8.29092E-04 2.82324E-22
8.80086E-04 2.49370E-22
9.32601E-04 2.20926E-22
9.86636E-04 1.96278E-22
1.04219E-03 1.74839E-22
1.09927E-03 1.56127E-22
1.15786E-03 1.39741E-22
1.21797E-03 1.25348E-22
1.27961E-03 1.12668E-22
1.34276E-03 1.01467E-22
1.40743E-03 9.15458E-23
1.47362E-03 8.27368E-23
1.54133E-03 7.48971E-23
1.61056E-03 6.79044E-23
1.68131E-03 6.16540E-23
1.75357E-03 5.60559E-23
1.82735E-03 5.10325E-23
1.90265E-03 4.65166E-23
1.97947E-03 4.24499E-23
2.05780E-03 3.87817E-23
2.13765E-03 3.54678E-23
2.21902E-03 3.24695E-23
2.30190E-03 2.97529E-23
2.38630E-03 2.72881E-23
2.47222E-03 2.50489E-23
2.55965E-03 2.30121E-23
2.64859E-03 2.11573E-23
2.73905E-03 1.94663E-23
2.83103E-03 1.79229E-23
2.92452E-03 1.65129E-23
3.01952E-03 1.52233E-23
3.11604E-03 1.40429E-23
3.21407E-03 1.29613E-23
3.31362E-03 1.19695E-23
3.41468E-03 1.10593E-23
3.51725E-03 1.02233E-23
3.62133E-03 9.45482E-24
3.72692E-03 8.74795E-24
3.83403E-03 8.09729E-24
3.94265E-03 7.49799E-24
4.05278E-03 6.94562E-24
4.16442E-03 6.43623E-24
4.27757E-03 5.96619E-24
4.39223E-03 5.53222E-24
4.50840E-03 5.13135E-24
4.62608E-03 4.76087E-24
4.74527E-03 4.41831E-24
4.86597E-03 4.10143E-24
4.98817E-03 3.80817E-24
5.11188E-03 3.53666E-24
5.23711E-03 3.28519E-24
5.36383E-03 3.05219E-24
5.49207E-03 2.83624E-24
5.62181E-03 2.63601E-24
5.75306E-03 2.45031E-24
5.88581E-03 2.27803E-24
6.02007E-03 2.11816E-24
6.15583E-03 1.96975E-24
6.29310E-03 1.83197E-24
6.43187E-03 1.70400E-24
6.57214E-03 1.58514E-24
6.71392E-03 1.47471E-24
6.85720E-03 1.37208E-24
7.00198E-03 1.27670E-24
7.14827E-03 1.18804E-24
7.29605E-03 1.10560E-24
7.44534E-03 1.02895E-24
7.59612E-03 9.57670E-25
7.97965E-03 8.00497E-25
8.37255E-03 6.69296E-25
8.77480E-03 5.59726E-25
9.18641E-03 4.68192E-25
9.60736E-03 3.91712E-25
1.00376E-02 3.27809E-25
1.04773E-02 2.74416E-25
1.09262E-02 2.29813E-25
1.13844E-02 1.92560E-25
1.18520E-02 1.61456E-25
1.23288E-02 1.35494E-25
1.28150E-02 1.13831E-25
1.33104E-02 9.57622E-26
1.38150E-02 8.06953E-26
1.43290E-02 6.81346E-26
1.48521E-02 5.76644E-26
1.53845E-02 4.89366E-26
1.59262E-02 4.16596E-26
1.64770E-02 3.55893E-26
1.70371E-02 3.05217E-26
1.76063E-02 2.62862E-26
1.81848E-02 2.27406E-26
1.87724E-02 1.97662E-26
1.93692E-02 1.72645E-26
1.99751E-02 1.51535E-26
2.05901E-02 1.33652E-26
2.12143E-02 1.18435E-26
2.18476E-02 1.05419E-26
2.24900E-02 9.42218E-27
2.31415E-02 8.45298E-27
2.38021E-02 7.60854E-27
2.44717E-02 6.86779E-27
2.51504E-02 6.21357E-27
2.58382E-02 5.63192E-27
2.65349E-02 5.11151E-27
2.72407E-02 4.64314E-27
2.79555E-02 4.21938E-27
2.86793E-02 3.83423E-27
2.94120E-02 3.48282E-27
3.01537E-02 3.16121E-27
3.09043E-02 2.86618E-27
3.16639E-02 2.59513E-27
3.24324E-02 2.34586E-27
3.32098E-02 2.11657E-27
3.39961E-02 1.90573E-27
3.47912E-02 1.71201E-27
3.55952E-02 1.53425E-27
3.64081E-02 1.37141E-27
3.72297E-02 1.22255E-27
3.80602E-02 1.08680E-27
3.88995E-02 9.63316E-28
3.97476E-02 8.51334E-28
4.06044E-02 7.50099E-28
4.14700E-02 6.58891E-28
4.23443E-02 5.77011E-28
4.32273E-02 5.03783E-28
4.41190E-02 4.38554E-28
4.50194E-02 3.80690E-28
4.59284E-02 3.29585E-28
4.68461E-02 2.84654E-28
4.87074E-02 2.11105E-28
5.06030E-02 1.55902E-28
5.25328E-02 1.15365E-28
5.44967E-02 8.62877E-29
5.64946E-02 6.59422E-29
5.85262E-02 5.20583E-29
6.05914E-02 4.27949E-29
6.26901E-02 3.66997E-29
6.48222E-02 3.26619E-29
6.69873E-02 2.98631E-29
6.91854E-02 2.77268E-29
7.14163E-02 2.58714E-29
7.36799E-02 2.40662E-29
7.59760E-02 2.21925E-29
7.83043E-02 2.02113E-29
8.06647E-02 1.81355E-29
8.30571E-02 1.60082E-29
8.54812E-02 1.38868E-29
8.79369E-02 1.18306E-29
9.04240E-02 9.89327E-30
9.29422E-02 8.11766E-30
9.54915E-02 6.53395E-30
9.80716E-02 5.15912E-30
1.00682E-01 3.99791E-30
1.03323E-01 3.04466E-30
1.05995E-01 2.28546E-30
1.08696E-01 1.70057E-30
1.11427E-01 1.26662E-30
1.14188E-01 9.58659E-31
1.16978E-01 7.51829E-31
1.19797E-01 6.22677E-31
1.22645E-01 5.50082E-31
1.25522E-01 5.15850E-31
1.28428E-01 5.04983E-31
1.31361E-01 5.05712E-31
1.34323E-01 5.09325E-31
1.37313E-01 5.09857E-31
1.40330E-01 5.03702E-31
1.43375E-01 4.89172E-31
1.46447E-01 4.66059E-31
1.49545E-01 4.35213E-31
1.52671E-01 3.98172E-31
1.55823E-01 3.56841E-31
1.59001E-01 3.13228E-31
1.62205E-01 2.69256E-31
1.65435E-01 2.26619E-31
1.68690E-01 1.86698E-31
1.71970E-01 1.50523E-31
1.75276E-01 1.18767E-31
1.78606E-01 9.17655E-32
1.81961E-01 6.95632E-32
1.85340E-01 5.19629E-32
1.88743E-01 3.85844E-32
1.92169E-01 2.89213E-32
1.95619E-01 2.23951E-32
1.99092E-01 1.84012E-32
2.02589E-01 1.63480E-32
2.06107E-01 1.56864E-32
2.09649E-01 1.59305E-32
2.13212E-01 1.66708E-32
2.16797E-01 1.75793E-32
2.20404E-01 1.84093E-32
2.24032E-01 1.89902E-32
2.27680E-01 1.92196E-32
2.31350E-01 1.90525E-32
2.35040E-01 1.84900E-32
2.38751E-01 1.75679E-32
2.42481E-01 1.63456E-32
2.46231E-01 1.48964E-32
2.50000E-01 1.32989E-32
2.53788E-01 1.16306E-32
2.57595E-01 9.96258E-33
2.61421E-01 8.35583E-33
2.65264E-01 6.85935E-33
2.69126E-01 5.50924E-33
2.73005E-01 4.32879E-33
2.76901E-01 3.32947E-33
2.80814E-01 2.51235E-33
2.84744E-01 1.86994E-33
2.88691E-01 1.38814E-33
2.92653E-01 1.04820E-33
2.96632E-01 8.28547E-34
3.00625E-01 7.06463E-34
3.04634E-01 6.59441E-34
3.08658E-01 6.66299E-34
3.12697E-01 7.07993E-34
3.16749E-01 7.68149E-34
3.20816E-01 8.33358E-34
3.24896E-01 8.93239E-34
3.28990E-01 9.40339E-34
3.33097E-01 9.69899E-34
3.37216E-01 9.79514E-34
3.41348E-01 9.68755E-34
3.45492E-01 9.38748E-34
3.49647E-01 8.91771E-34
3.53814E-01 8.30869E-34
3.57992E-01 7.59505E-34
3.62181E-01 6.81270E-34
3.66381E-01 5.99638E-34
3.70590E-01 5.17790E-34
3.74810E-01 4.38477E-34
3.79039E-01 3.63949E-34
3.83277E-01 2.95918E-34
3.87524E-01 2.35557E-34
3.91780E-01 1.83536E-34
3.96044E-01 1.40070E-34
4.00316E-01 1.04989E-34
4.04596E-01 7.78083E-35
4.08882E-01 5.78093E-35
4.13176E-01 4.41103E-35
4.17476E-01 3.57370E-35
4.21783E-01 3.16823E-35
4.26095E-01 3.09575E-35
4.30413E-01 3.26332E-35
4.34737E-01 3.58693E-35
4.39065E-01 3.99357E-35
4.43398E-01 4.42236E-35
4.47736E-01 4.82495E-35
4.52077E-01 5.16522E-35
4.56422E-01 5.41851E-35
4.60770E-01 5.57044E-35
4.65122E-01 5.61550E-35
4.69476E-01 5.55555E-35
4.73832E-01 5.39819E-35
4.78190E-01 5.15524E-35
4.82550E-01 4.84133E-35
4.86912E-01 4.47262E-35
4.91274E-01 4.06568E-35
4.95637E-01 3.63663E-35
5.00000E-01 3.20040E-35
5.04363E-01 2.77026E-35
5.08726E-01 2.35744E-35
5.13088E-01 1.97100E-35
5.17450E-01 1.61776E-35
5.21810E-01 1.30237E-35
5.26168E-01 1.02748E-35
5.30524E-01 7.93926E-36
5.34878E-01 6.01034E-36
5.39230E-01 4.46847E-36
5.43578E-01 3.28437E-36
5.47923E-01 2.42164E-36
5.52264E-01 1.83939E-36
5.56602E-01 1.49450E-36
5.60935E-01 1.34357E-36
5.65263E-01 1.34456E-36
5.69587E-01 1.45811E-36
5.73905E-01 1.64847E-36
5.78217E-01 1.88415E-36
5.82524E-01 2.13833E-36
5.86824E-01 2.38890E-36
5.91118E-01 2.61852E-36
5.95404E-01 2.81422E-36
5.99684E-01 2.96718E-36
6.03956E-01 3.07222E-36
6.08220E-01 3.12725E-36
6.12476E-01 3.13287E-36
6.16723E-01 3.09178E-36
6.20961E-01 3.00820E-36
6.25190E-01 2.88757E-36
6.29410E-01 2.73603E-36
6.33619E-01 2.55999E-36
6.37819E-01 2.36595E-36
6.42008E-01 2.16020E-36
6.46186E-01 1.94857E-36
6.50353E-01 1.73637E-36
6.54508E-01 1.52818E-36
6.58652E-01 1.32792E-36
6.62784E-01 1.13874E-36
6.66903E-01 9.63084E-37
6.71010E-01 8.02666E-37
6.75104E-01 6.58591E-37
6.79184E-01 5.31372E-37
6.83251E-01 4.21019E-37
6.87303E-01 3.27128E-37
6.91342E-01 2.48941E-37
6.95366E-01 1.85438E-37
6.99375E-01 1.35391E-37
7.03368E-01 9.74448E-38
7.07347E-01 1.00000E-45
7.11309E-01 1.00000E-45
7.15256E-01 1.00000E-45
7.19186E-01 1.00000E-45
7.23099E-01 1.00000E-45
7.26995E-01 1.00000E-45
7.30874E-01 1.00000E-45
7.34736E-01 1.00000E-45
7.38579E-01 1.00000E-45
7.42405E-01 1.00000E-45
7.46212E-01 1.00000E-45
7.50000E-01 1.00000E-45
7.53769E-01 1.00000E-45
7.57519E-01 1.00000E-45
7.61249E-01 1.00000E-45
7.64960E-01 1.00000E-45
7.68650E-01 1.00000E-45
7.72320E-01 1.00000E-45
7.75968E-01 1.00000E-45
7.79596E-01 1.00000E-45
7.83203E-01 1.00000E-45
7.86788E-01 1.00000E-45
7.90351E-01 1.00000E-45
7.93893E-01 1.00000E-45
7.97411E-01 1.00000E-45
8.00908E-01 1.00000E-45
8.04381E-01 1.00000E-45
8.07831E-01 1.00000E-45
8.11257E-01 1.00000E-45
8.14660E-01 1.00000E-45
8.18039E-01 1.00000E-45
8.21394E-01 1.00000E-45
8.24724E-01 1.00000E-45
8.28030E-01 1.00000E-45
8.31310E-01 1.00000E-45
8.34565E-01 1.00000E-45
8.37795E-01 1.00000E-45
8.40999E-01 1.00000E-45
8.44177E-01 1.00000E-45
8.47329E-01 1.00000E-45
8.50455E-01 1.00000E-45
8.53553E-01 1.00000E-45
8.56625E-01 1.00000E-45
8.59670E-01 1.00000E-45
8.62687E-01 1.00000E-45
8.65677E-01 1.00000E-45
8.68639E-01 1.00000E-45
8.71572E-01 1.00000E-45
8.74478E-01 1.00000E-45
8.77355E-01 1.00000E-45
8.80203E-01 1.00000E-45
8.83022E-01 1.00000E-45
8.85812E-01 1.00000E-45
8.88573E-01 1.00000E-45
8.91304E-01 1.00000E-45
8.94005E-01 1.00000E-45
8.96677E-01 1.00000E-45
8.99318E-01 1.00000E-45
9.01928E-01 1.00000E-45
9.04508E-01 1.00000E-45
9.07058E-01 1.00000E-45
9.09576E-01 1.00000E-45
9.12063E-01 1.00000E-45
9.14519E-01 1.00000E-45
9.16943E-01 1.00000E-45
9.19335E-01 1.00000E-45
9.21696E-01 1.00000E-45
9.24024E-01 1.00000E-45
9.26320E-01 1.00000E-45
9.28584E-01 1.00000E-45
9.30815E-01 1.00000E-45
9.33013E-01 1.00000E-45
9.35178E-01 1.00000E-45
9.37310E-01 1.00000E-45
9.39409E-01 1.00000E-45
9.41474E-01 1.00000E-45
9.43505E-01 1.00000E-45
9.45503E-01 1.00000E-45
9.47467E-01 1.00000E-45
9.49397E-01 1.00000E-45
9.51293E-01 1.00000E-45
9.53154E-01 1.00000E-45
9.54981E-01 1.00000E-45
9.56773E-01 1.00000E-45
9.58530E-01 1.00000E-45
9.60252E-01 1.00000E-45
9.61940E-01 1.00000E-45
9.63592E-01 1.00000E-45
9.65209E-01 1.00000E-45
9.66790E-01 1.00000E-45
9.68336E-01 1.00000E-45
9.69846E-01 1.00000E-45
9.71321E-01 1.00000E-45
9.72759E-01 1.00000E-45
9.74162E-01 1.00000E-45
9.75528E-01 1.00000E-45
9.76858E-01 1.00000E-45
9.78152E-01 1.00000E-45
9.79410E-01 1.00000E-45
9.80631E-01 1.00000E-45
9.81815E-01 1.00000E-45
9.82963E-01 1.00000E-45
9.84074E-01 1.00000E-45
9.85148E-01 1.00000E-45
9.86185E-01 1.00000E-45
9.87185E-01 1.00000E-45
9.88148E-01 1.00000E-45
9.89074E-01 1.00000E-45
9.89962E-01 1.00000E-45
9.90814E-01 1.00000E-45
9.91627E-01 1.00000E-45
9.92404E-01 1.00000E-45
9.93143E-01 1.00000E-45
9.93844E-01 1.00000E-45
9.94508E-01 1.00000E-45
9.95134E-01 1.00000E-45
9.95722E-01 1.00000E-45
9.96273E-01 1.00000E-45
9.96786E-01 1.00000E-45
9.97261E-01 1.00000E-45
9.97698E-01 1.00000E-45
9.98097E-01 1.00000E-45
9.98459E-01 1.00000E-45
9.98782E-01 1.00000E-45
9.99067E-01 1.00000E-45
9.99315E-01 1.00000E-45
9.99524E-01 1.00000E-45
9.99695E-01 1.00000E-45
9.99829E-01 1.00000E-45
9.99924E-01 1.00000E-45
9.99981E-01 1.00000E-45
1.00000E+00 1.00000E-45
