 #
 # Subroutine ELSEPA. Elastic scattering of electrons and positrons
 #                    by neutral atoms and positive ions
 #
 # Projectile: electron
 # Kinetic energy = 4.50000E+08 eV = 1.65372E+07 a.u.
 #
 # WARNING: High-energy factorization with free-atom DF screening.
 #          Absorption, polarization and exchange corrections are
 #          switched off.
 #          Phase shifts are calculated for the bare nucleus.
 #          Scattering amplitudes are not evaluated.
 #
 # Element:  N,  Z =   7,  atomic weight = 1.40067E+01 g/mol
 #
 # Nuclear model: Fermi distribution
 #                Average radius = 2.57926E-13 cm
 #                Skin thickness = 5.46000E-14 cm
 #
 # Number of electrons =  7
 #
 # Total elastic cross section = 2.59967E-19 cm**2 = 9.28359E-03 a0**2
 # 1st transport cross section = 5.48119E-28 cm**2 = 1.95737E-11 a0**2
 # 2nd transport cross section = 1.64276E-27 cm**2 = 5.86640E-11 a0**2
 #
 #
 # Differential cross section:                       MU=(1-COS(THETA))/2
 #
 #  THETA        MU          DCS          DCS        Sherman      error
 #  (deg)                 (cm**2/sr)   (a0**2/sr)    function
 #----------------------------------------------------------------------
0.00000E+00 3.78386E-10
7.61557E-13 3.69021E-10
1.18994E-12 3.63905E-10
1.71346E-12 3.57792E-10
2.33225E-12 3.50752E-10
3.04617E-12 3.42876E-10
3.85530E-12 3.34255E-10
4.75964E-12 3.24985E-10
5.75917E-12 3.15166E-10
6.85391E-12 3.04895E-10
8.04379E-12 2.93890E-10
9.32893E-12 2.82502E-10
1.07092E-11 2.71658E-10
1.21847E-11 2.60911E-10
1.37554E-11 2.49142E-10
1.54213E-11 2.38153E-10
1.71823E-11 2.27799E-10
1.90386E-11 2.16333E-10
2.09900E-11 2.05756E-10
2.30367E-11 1.96011E-10
2.51785E-11 1.85503E-10
2.74156E-11 1.75720E-10
2.97478E-11 1.66758E-10
3.21752E-11 1.57517E-10
3.46979E-11 1.48747E-10
3.73157E-11 1.40734E-10
4.00286E-11 1.32777E-10
4.28368E-11 1.25103E-10
4.57402E-11 1.18098E-10
4.87388E-11 1.11348E-10
5.18325E-11 1.04757E-10
5.50215E-11 9.87378E-11
5.83057E-11 9.30702E-11
6.16850E-11 8.74880E-11
6.51595E-11 8.23846E-11
6.87293E-11 7.76599E-11
7.23943E-11 7.29807E-11
7.61544E-11 6.86957E-11
1.18991E-10 3.78197E-11
1.71347E-10 2.14677E-11
2.33223E-10 1.27143E-11
3.04617E-10 7.89182E-12
3.85531E-10 5.12165E-12
4.75965E-10 3.46385E-12
5.75917E-10 2.42972E-12
6.85389E-10 1.75888E-12
8.04380E-10 1.30854E-12
9.32891E-10 9.96583E-13
1.07092E-09 7.74282E-13
1.21847E-09 6.11967E-13
1.37554E-09 4.90945E-13
1.54213E-09 3.99011E-13
1.71823E-09 3.28012E-13
1.90386E-09 2.72268E-13
2.09900E-09 2.27990E-13
2.30367E-09 1.92448E-13
2.51785E-09 1.63623E-13
2.74156E-09 1.40023E-13
2.97478E-09 1.20491E-13
3.21752E-09 1.04252E-13
3.46978E-09 9.06585E-14
3.73156E-09 7.92053E-14
4.00286E-09 6.94964E-14
4.28368E-09 6.12079E-14
4.57402E-09 5.41142E-14
4.87388E-09 4.80138E-14
5.18326E-09 4.27439E-14
5.50215E-09 3.81699E-14
5.83057E-09 3.41835E-14
6.16850E-09 3.07008E-14
6.51596E-09 2.76475E-14
6.87293E-09 2.49618E-14
7.23942E-09 2.25904E-14
7.61544E-09 2.04909E-14
1.18991E-08 8.60512E-15
1.71347E-08 4.19930E-15
2.33223E-08 2.28047E-15
3.04617E-08 1.34122E-15
3.85531E-08 8.38932E-16
4.75965E-08 5.51072E-16
5.75917E-08 3.76673E-16
6.85389E-08 2.66088E-16
8.04380E-08 1.93252E-16
9.32891E-08 1.43711E-16
1.07092E-07 1.09072E-16
1.21847E-07 8.42661E-17
1.37554E-07 6.61271E-17
1.54213E-07 5.26159E-17
1.71823E-07 4.23846E-17
1.90386E-07 3.45233E-17
2.09900E-07 2.84030E-17
2.30367E-07 2.35808E-17
2.51785E-07 1.97399E-17
2.74156E-07 1.66501E-17
2.97478E-07 1.41419E-17
3.21752E-07 1.20887E-17
3.46978E-07 1.03950E-17
3.73156E-07 8.98774E-18
4.00286E-07 7.81079E-18
4.28368E-07 6.82034E-18
4.57402E-07 5.98202E-18
4.87388E-07 5.26864E-18
5.18325E-07 4.65850E-18
5.50215E-07 4.13418E-18
5.83057E-07 3.68159E-18
6.16850E-07 3.28928E-18
6.51596E-07 2.94786E-18
6.87293E-07 2.64961E-18
7.23942E-07 2.38814E-18
7.61543E-07 2.15815E-18
1.18991E-06 8.84023E-19
1.71347E-06 4.26341E-19
2.33223E-06 2.30138E-19
3.04617E-06 1.34908E-19
3.85531E-06 8.42254E-20
4.75964E-06 5.52623E-20
5.75916E-06 3.77463E-20
6.85388E-06 2.66524E-20
8.04378E-06 1.93510E-20
9.32888E-06 1.43873E-20
1.07092E-05 1.09180E-20
1.21846E-05 8.43419E-21
1.37553E-05 6.61825E-21
1.54212E-05 5.26580E-21
1.71822E-05 4.24186E-21
1.90385E-05 3.45627E-21
2.09899E-05 2.84346E-21
2.30365E-05 2.36040E-21
2.51783E-05 1.97562E-21
2.74153E-05 1.66620E-21
2.97475E-05 1.41516E-21
3.21749E-05 1.20977E-21
3.46974E-05 1.04039E-21
3.73152E-05 8.99661E-22
4.00281E-05 7.81927E-22
4.28362E-05 6.82806E-22
4.57395E-05 5.98876E-22
4.87380E-05 5.27437E-22
5.18317E-05 4.66337E-22
5.50205E-05 4.13842E-22
5.83045E-05 3.68544E-22
6.16838E-05 3.29289E-22
6.51582E-05 2.95132E-22
6.87277E-05 2.65291E-22
7.23925E-05 2.39125E-22
7.61524E-05 2.15194E-22
9.21439E-05 1.46852E-22
1.09658E-04 1.03606E-22
1.28695E-04 7.51473E-23
1.49255E-04 5.58118E-23
1.71338E-04 4.23056E-23
1.94942E-04 3.26395E-23
2.20070E-04 2.55787E-23
2.46720E-04 2.03223E-23
2.74892E-04 1.63460E-23
3.04586E-04 1.32932E-23
3.35803E-04 1.09182E-23
3.68542E-04 9.04871E-24
4.02802E-04 7.56075E-24
4.38585E-04 6.36508E-24
4.75889E-04 5.39529E-24
5.14715E-04 4.60226E-24
5.55063E-04 3.94878E-24
5.96931E-04 3.40640E-24
6.40321E-04 2.95334E-24
6.85233E-04 2.57249E-24
7.31665E-04 2.25056E-24
7.79618E-04 1.97695E-24
8.29092E-04 1.74325E-24
8.80086E-04 1.54270E-24
9.32601E-04 1.36983E-24
9.86636E-04 1.22021E-24
1.04219E-03 1.09019E-24
1.09927E-03 9.76795E-25
1.15786E-03 8.77545E-25
1.21797E-03 7.90381E-25
1.27961E-03 7.13600E-25
1.34276E-03 6.45751E-25
1.40743E-03 5.85631E-25
1.47362E-03 5.32211E-25
1.54133E-03 4.84620E-25
1.61056E-03 4.42120E-25
1.68131E-03 4.04073E-25
1.75357E-03 3.69939E-25
1.82735E-03 3.39245E-25
1.90265E-03 3.11590E-25
1.97947E-03 2.86623E-25
2.05780E-03 2.64037E-25
2.13765E-03 2.43571E-25
2.21902E-03 2.24991E-25
2.30190E-03 2.08096E-25
2.38630E-03 1.92707E-25
2.47222E-03 1.78667E-25
2.55965E-03 1.65841E-25
2.64859E-03 1.54104E-25
2.73905E-03 1.43350E-25
2.83103E-03 1.33483E-25
2.92452E-03 1.24418E-25
3.01952E-03 1.16079E-25
3.11604E-03 1.08398E-25
3.21407E-03 1.01316E-25
3.31362E-03 9.47772E-26
3.41468E-03 8.87344E-26
3.51725E-03 8.31436E-26
3.62133E-03 7.79655E-26
3.72692E-03 7.31651E-26
3.83403E-03 6.87100E-26
3.94265E-03 6.45718E-26
4.05278E-03 6.07243E-26
4.16442E-03 5.71439E-26
4.27757E-03 5.38091E-26
4.39223E-03 5.07005E-26
4.50840E-03 4.78004E-26
4.62608E-03 4.50925E-26
4.74527E-03 4.25623E-26
4.86597E-03 4.01962E-26
4.98817E-03 3.79820E-26
5.11188E-03 3.59086E-26
5.23711E-03 3.39655E-26
5.36383E-03 3.21434E-26
5.49207E-03 3.04335E-26
5.62181E-03 2.88280E-26
5.75306E-03 2.73196E-26
5.88581E-03 2.59015E-26
6.02007E-03 2.45675E-26
6.15583E-03 2.33120E-26
6.29310E-03 2.21295E-26
6.43187E-03 2.10153E-26
6.57214E-03 1.99649E-26
6.71392E-03 1.89741E-26
6.85720E-03 1.80390E-26
7.00198E-03 1.71561E-26
7.14827E-03 1.63220E-26
7.29605E-03 1.55337E-26
7.44534E-03 1.47883E-26
7.59612E-03 1.40832E-26
7.97965E-03 1.24808E-26
8.37255E-03 1.10809E-26
8.77480E-03 9.85487E-27
9.18641E-03 8.77859E-27
9.60736E-03 7.83166E-27
1.00376E-02 6.99679E-27
1.04773E-02 6.25925E-27
1.09262E-02 5.60647E-27
1.13844E-02 5.02768E-27
1.18520E-02 4.51362E-27
1.23288E-02 4.05633E-27
1.28150E-02 3.64893E-27
1.33104E-02 3.28544E-27
1.38150E-02 2.96071E-27
1.43290E-02 2.67022E-27
1.48521E-02 2.41005E-27
1.53845E-02 2.17677E-27
1.59262E-02 1.96737E-27
1.64770E-02 1.77920E-27
1.70371E-02 1.60996E-27
1.76063E-02 1.45759E-27
1.81848E-02 1.32030E-27
1.87724E-02 1.19649E-27
1.93692E-02 1.08476E-27
1.99751E-02 9.83838E-28
2.05901E-02 8.92629E-28
2.12143E-02 8.10142E-28
2.18476E-02 7.35497E-28
2.24900E-02 6.67909E-28
2.31415E-02 6.06678E-28
2.38021E-02 5.51179E-28
2.44717E-02 5.00851E-28
2.51504E-02 4.55192E-28
2.58382E-02 4.13752E-28
2.65349E-02 3.76128E-28
2.72407E-02 3.41956E-28
2.79555E-02 3.10909E-28
2.86793E-02 2.82694E-28
2.94120E-02 2.57045E-28
3.01537E-02 2.33723E-28
3.09043E-02 2.12513E-28
3.16639E-02 1.93220E-28
3.24324E-02 1.75667E-28
3.32098E-02 1.59696E-28
3.39961E-02 1.45162E-28
3.47912E-02 1.31934E-28
3.55952E-02 1.19895E-28
3.64081E-02 1.08936E-28
3.72297E-02 9.89612E-29
3.80602E-02 8.98814E-29
3.88995E-02 8.16165E-29
3.97476E-02 7.40936E-29
4.06044E-02 6.72464E-29
4.14700E-02 6.10148E-29
4.23443E-02 5.53438E-29
4.32273E-02 5.01836E-29
4.41190E-02 4.54889E-29
4.50194E-02 4.12182E-29
4.59284E-02 3.73340E-29
4.68461E-02 3.38019E-29
4.87074E-02 2.76720E-29
5.06030E-02 2.26102E-29
5.25328E-02 1.84352E-29
5.44967E-02 1.49960E-29
5.64946E-02 1.21672E-29
5.85262E-02 9.84435E-30
6.05914E-02 7.94047E-30
6.26901E-02 6.38324E-30
6.48222E-02 5.11246E-30
6.69873E-02 4.07808E-30
6.91854E-02 3.23848E-30
7.14163E-02 2.55910E-30
7.36799E-02 2.01125E-30
7.59760E-02 1.57115E-30
7.83043E-02 1.21911E-30
8.06647E-02 9.38831E-31
8.30571E-02 7.16869E-31
8.54812E-02 5.42138E-31
8.79369E-02 4.05520E-31
9.04240E-02 2.99529E-31
9.29422E-02 2.18036E-31
9.54915E-02 1.56037E-31
9.80716E-02 1.09458E-31
1.00682E-01 7.49935E-32
1.03323E-01 4.99728E-32
1.05995E-01 3.22462E-32
1.08696E-01 2.00921E-32
1.11427E-01 1.21396E-32
1.14188E-01 7.30368E-33
1.16978E-01 4.73191E-33
1.19797E-01 3.76024E-33
1.22645E-01 3.87660E-33
1.25522E-01 4.69092E-33
1.28428E-01 5.91049E-33
1.31361E-01 7.31984E-33
1.34323E-01 8.76425E-33
1.37313E-01 1.01364E-32
1.40330E-01 1.13657E-32
1.43375E-01 1.24094E-32
1.46447E-01 1.32456E-32
1.49545E-01 1.38680E-32
1.52671E-01 1.42811E-32
1.55823E-01 1.44972E-32
1.59001E-01 1.45333E-32
1.62205E-01 1.44094E-32
1.65435E-01 1.41468E-32
1.68690E-01 1.37672E-32
1.71970E-01 1.32914E-32
1.75276E-01 1.27394E-32
1.78606E-01 1.21293E-32
1.81961E-01 1.14778E-32
1.85340E-01 1.07995E-32
1.88743E-01 1.01073E-32
1.92169E-01 9.41215E-33
1.95619E-01 8.72343E-33
1.99092E-01 8.04883E-33
2.02589E-01 7.39455E-33
2.06107E-01 6.76549E-33
2.09649E-01 6.16535E-33
2.13212E-01 5.59683E-33
2.16797E-01 5.06166E-33
2.20404E-01 4.56085E-33
2.24032E-01 4.09477E-33
2.27680E-01 3.66320E-33
2.31350E-01 3.26553E-33
2.35040E-01 2.90075E-33
2.38751E-01 2.56762E-33
2.42481E-01 2.26467E-33
2.46231E-01 1.99030E-33
2.50000E-01 1.74279E-33
2.53788E-01 1.52039E-33
2.57595E-01 1.32132E-33
2.61421E-01 1.14381E-33
2.65264E-01 9.86142E-34
2.69126E-01 8.46626E-34
2.73005E-01 7.23652E-34
2.76901E-01 6.15683E-34
2.80814E-01 5.21271E-34
2.84744E-01 4.39057E-34
2.88691E-01 3.67769E-34
2.92653E-01 3.06235E-34
2.96632E-01 2.53362E-34
3.00625E-01 2.08164E-34
3.04634E-01 1.69727E-34
3.08658E-01 1.37225E-34
3.12697E-01 1.09913E-34
3.16749E-01 8.71143E-35
3.20816E-01 6.82275E-35
3.24896E-01 5.27109E-35
3.28990E-01 4.00851E-35
3.33097E-01 2.99240E-35
3.37216E-01 2.18526E-35
3.41348E-01 1.55410E-35
3.45492E-01 1.07013E-35
3.49647E-01 7.08191E-36
3.53814E-01 4.46585E-36
3.57992E-01 2.66596E-36
3.62181E-01 1.52152E-36
3.66381E-01 8.95697E-37
3.70590E-01 6.72706E-37
3.74810E-01 7.55042E-37
3.79039E-01 1.06172E-36
3.83277E-01 1.52532E-36
3.87524E-01 2.09105E-36
3.91780E-01 2.71432E-36
3.96044E-01 3.35972E-36
4.00316E-01 3.99978E-36
4.04596E-01 4.61288E-36
4.08882E-01 5.18375E-36
4.13176E-01 5.70070E-36
4.17476E-01 6.15662E-36
4.21783E-01 6.54719E-36
4.26095E-01 6.87105E-36
4.30413E-01 7.12733E-36
4.34737E-01 7.31865E-36
4.39065E-01 7.44765E-36
4.43398E-01 7.51837E-36
4.47736E-01 7.53459E-36
4.52077E-01 7.50152E-36
4.56422E-01 7.42384E-36
4.60770E-01 7.30695E-36
4.65122E-01 7.15543E-36
4.69476E-01 6.97440E-36
4.73832E-01 6.76851E-36
4.78190E-01 6.54162E-36
4.82550E-01 6.29854E-36
4.86912E-01 6.04283E-36
4.91274E-01 5.77778E-36
4.95637E-01 5.50671E-36
5.00000E-01 5.23198E-36
5.04363E-01 4.95708E-36
5.08726E-01 4.68317E-36
5.13088E-01 4.41274E-36
5.17450E-01 4.14720E-36
5.21810E-01 3.88794E-36
5.26168E-01 3.63630E-36
5.30524E-01 3.39309E-36
5.34878E-01 3.15872E-36
5.39230E-01 2.93426E-36
5.43578E-01 2.71990E-36
5.47923E-01 2.51589E-36
5.52264E-01 2.32243E-36
5.56602E-01 2.13950E-36
5.60935E-01 1.96702E-36
5.65263E-01 1.80479E-36
5.69587E-01 1.65283E-36
5.73905E-01 1.51059E-36
5.78217E-01 1.37793E-36
5.82524E-01 1.25447E-36
5.86824E-01 1.13995E-36
5.91118E-01 1.03375E-36
5.95404E-01 9.35659E-37
5.99684E-01 8.45134E-37
6.03956E-01 7.61868E-37
6.08220E-01 6.85358E-37
6.12476E-01 6.15358E-37
6.16723E-01 5.51263E-37
6.20961E-01 4.92808E-37
6.25190E-01 4.39528E-37
6.29410E-01 3.91148E-37
6.33619E-01 3.47270E-37
6.37819E-01 3.07507E-37
6.42008E-01 2.71692E-37
6.46186E-01 2.39355E-37
6.50353E-01 2.10315E-37
6.54508E-01 1.84252E-37
6.58652E-01 1.60944E-37
6.62784E-01 1.40119E-37
6.66903E-01 1.21597E-37
6.71010E-01 1.05173E-37
6.75104E-01 9.05783E-38
6.79184E-01 7.76917E-38
6.83251E-01 6.63636E-38
6.87303E-01 5.64164E-38
6.91342E-01 4.76924E-38
6.95366E-01 4.01027E-38
6.99375E-01 3.34810E-38
7.03368E-01 2.78065E-38
7.07347E-01 2.28905E-38
7.11309E-01 1.86898E-38
7.15256E-01 1.50974E-38
7.19186E-01 1.20646E-38
7.23099E-01 9.51967E-39
7.26995E-01 7.39555E-39
7.30874E-01 5.64543E-39
7.34736E-01 4.21896E-39
7.38579E-01 3.06991E-39
7.42405E-01 2.16372E-39
7.46212E-01 1.46599E-39
7.50000E-01 9.42187E-40
7.53769E-01 5.70630E-40
7.57519E-01 3.23885E-40
7.61249E-01 1.81926E-40
7.64960E-01 1.26239E-40
7.68650E-01 1.40162E-40
7.72320E-01 2.10981E-40
7.75968E-01 3.24422E-40
7.79596E-01 4.70129E-40
7.83203E-01 6.42089E-40
7.86788E-01 8.30916E-40
7.90351E-01 1.02795E-39
7.93893E-01 1.22883E-39
7.97411E-01 1.43240E-39
8.00908E-01 1.62970E-39
8.04381E-01 1.82074E-39
8.07831E-01 2.00741E-39
8.11257E-01 2.18114E-39
8.14660E-01 2.33942E-39
8.18039E-01 2.48762E-39
8.21394E-01 2.62716E-39
8.24724E-01 2.74343E-39
8.28030E-01 2.85172E-39
8.31310E-01 2.94921E-39
8.34565E-01 3.02458E-39
8.37795E-01 3.08565E-39
8.40999E-01 3.14624E-39
8.44177E-01 3.18119E-39
8.47329E-01 3.21114E-39
8.50455E-01 3.23177E-39
8.53553E-01 3.23185E-39
8.56625E-01 3.22771E-39
8.59670E-01 3.21428E-39
8.62687E-01 3.18740E-39
8.65677E-01 3.15874E-39
8.68639E-01 3.12655E-39
8.71572E-01 3.07982E-39
8.74478E-01 3.03667E-39
8.77355E-01 2.97765E-39
8.80203E-01 2.92113E-39
8.83022E-01 2.86175E-39
8.85812E-01 2.79443E-39
8.88573E-01 2.72223E-39
8.91304E-01 2.65556E-39
8.94005E-01 2.58530E-39
8.96677E-01 2.50382E-39
8.99318E-01 2.43523E-39
9.01928E-01 2.35684E-39
9.04508E-01 2.28233E-39
9.07058E-01 2.20923E-39
9.09576E-01 2.13502E-39
9.12063E-01 2.06003E-39
9.14519E-01 1.98520E-39
9.16943E-01 1.91248E-39
9.19335E-01 1.83975E-39
9.21696E-01 1.76502E-39
9.24024E-01 1.69632E-39
9.26320E-01 1.62524E-39
9.28584E-01 1.55958E-39
9.30815E-01 1.49204E-39
9.33013E-01 1.42964E-39
9.35178E-01 1.36530E-39
9.37310E-01 1.30570E-39
9.39409E-01 1.24516E-39
9.41474E-01 1.18571E-39
9.43505E-01 1.13198E-39
9.45503E-01 1.07678E-39
9.47467E-01 1.02190E-39
9.49397E-01 9.70099E-40
9.51293E-01 9.21747E-40
9.53154E-01 8.76259E-40
9.54981E-01 8.31306E-40
9.56773E-01 7.83789E-40
9.58530E-01 7.43572E-40
9.60252E-01 7.03023E-40
9.61940E-01 6.66028E-40
9.63592E-01 6.28278E-40
9.65209E-01 5.94489E-40
9.66790E-01 5.59802E-40
9.68336E-01 5.26813E-40
9.69846E-01 4.94736E-40
9.71321E-01 4.67255E-40
9.72759E-01 4.36843E-40
9.74162E-01 4.06655E-40
9.75528E-01 3.84748E-40
9.76858E-01 3.58538E-40
9.78152E-01 3.36135E-40
9.79410E-01 3.10952E-40
9.80631E-01 2.88706E-40
9.81815E-01 2.67527E-40
9.82963E-01 2.50193E-40
9.84074E-01 2.28045E-40
9.85148E-01 2.13392E-40
9.86185E-01 1.93204E-40
9.87185E-01 1.77680E-40
9.88148E-01 1.61869E-40
9.89074E-01 1.48224E-40
9.89962E-01 1.35032E-40
9.90814E-01 1.23252E-40
9.91627E-01 1.09919E-40
9.92404E-01 9.93850E-41
9.93143E-01 8.86566E-41
9.93844E-01 8.07236E-41
9.94508E-01 7.06664E-41
9.95134E-01 6.18274E-41
9.95722E-01 5.47168E-41
9.96273E-01 4.84309E-41
9.96786E-01 4.10491E-41
9.97261E-01 3.56830E-41
9.97698E-01 2.91008E-41
9.98097E-01 2.47900E-41
9.98459E-01 1.98212E-41
9.98782E-01 1.59911E-41
9.99067E-01 1.29600E-41
9.99315E-01 8.23145E-42
9.99524E-01 6.47246E-42
9.99695E-01 4.56969E-42
9.99829E-01 2.58108E-42
9.99924E-01 1.16792E-42
9.99981E-01 9.17932E-43
1.00000E+00 4.26319E-42
