 #
 # Subroutine ELSEPA. Elastic scattering of electrons and positrons
 #                    by neutral atoms and positive ions
 #
 # Projectile: electron
 # Kinetic energy = 1.25000E+08 eV = 4.59367E+06 a.u.
 #
 # WARNING: High-energy factorization with free-atom DF screening.
 #          Absorption, polarization and exchange corrections are
 #          switched off.
 #          Phase shifts are calculated for the bare nucleus.
 #          Scattering amplitudes are not evaluated.
 #
 # Element:  N,  Z =   7,  atomic weight = 1.40067E+01 g/mol
 #
 # Nuclear model: Fermi distribution
 #                Average radius = 2.57926E-13 cm
 #                Skin thickness = 5.46000E-14 cm
 #
 # Number of electrons =  7
 #
 # Total elastic cross section = 2.60176E-19 cm**2 = 9.29104E-03 a0**2
 # 1st transport cross section = 6.99364E-27 cm**2 = 2.49748E-10 a0**2
 # 2nd transport cross section = 2.07691E-26 cm**2 = 7.41680E-10 a0**2
 #
 #
 # Differential cross section:                       MU=(1-COS(THETA))/2
 #
 #  THETA        MU          DCS          DCS        Sherman      error
 #  (deg)                 (cm**2/sr)   (a0**2/sr)    function
 #----------------------------------------------------------------------
0.00000E+00 2.93689E-11
7.61557E-13 2.93113E-11
1.18994E-12 2.92791E-11
1.71346E-12 2.92398E-11
2.33225E-12 2.91935E-11
3.04617E-12 2.91402E-11
3.85530E-12 2.90800E-11
4.75964E-12 2.90128E-11
5.75917E-12 2.89389E-11
6.85391E-12 2.88583E-11
8.04379E-12 2.87710E-11
9.32893E-12 2.86772E-11
1.07092E-11 2.85770E-11
1.21847E-11 2.84704E-11
1.37554E-11 2.83577E-11
1.54213E-11 2.82386E-11
1.71823E-11 2.81135E-11
1.90386E-11 2.79826E-11
2.09900E-11 2.78459E-11
2.30367E-11 2.77036E-11
2.51785E-11 2.75559E-11
2.74156E-11 2.74028E-11
2.97478E-11 2.72446E-11
3.21752E-11 2.70812E-11
3.46979E-11 2.69127E-11
3.73157E-11 2.67395E-11
4.00286E-11 2.65617E-11
4.28368E-11 2.63796E-11
4.57402E-11 2.61932E-11
4.87388E-11 2.60027E-11
5.18325E-11 2.58083E-11
5.50215E-11 2.56102E-11
5.83057E-11 2.54080E-11
6.16850E-11 2.52024E-11
6.51595E-11 2.49935E-11
6.87293E-11 2.47816E-11
7.23943E-11 2.45667E-11
7.61544E-11 2.43491E-11
1.18991E-10 2.19876E-11
1.71347E-10 1.95910E-11
2.33223E-10 1.72256E-11
3.04617E-10 1.49810E-11
3.85531E-10 1.28944E-11
4.75965E-10 1.10073E-11
5.75917E-10 9.35353E-12
6.85389E-10 7.92414E-12
8.04380E-10 6.70140E-12
9.32891E-10 5.66338E-12
1.07092E-09 4.78700E-12
1.21847E-09 4.04994E-12
1.37554E-09 3.43159E-12
1.54213E-09 2.91074E-12
1.71823E-09 2.47573E-12
1.90386E-09 2.11215E-12
2.09900E-09 1.80783E-12
2.30367E-09 1.55246E-12
2.51785E-09 1.33779E-12
2.74156E-09 1.15709E-12
2.97478E-09 1.00445E-12
3.21752E-09 8.75032E-13
3.46978E-09 7.64977E-13
3.73156E-09 6.71177E-13
4.00286E-09 5.90959E-13
4.28368E-09 5.22131E-13
4.57402E-09 4.62885E-13
4.87388E-09 4.11723E-13
5.18326E-09 3.67403E-13
5.50215E-09 3.28887E-13
5.83057E-09 2.95304E-13
6.16850E-09 2.65932E-13
6.51596E-09 2.40159E-13
6.87293E-09 2.17471E-13
7.23942E-09 1.97438E-13
7.61544E-09 1.79696E-13
1.18991E-08 7.87942E-14
1.71347E-08 4.05154E-14
2.33223E-08 2.31567E-14
3.04617E-08 1.42464E-14
3.85531E-08 9.25201E-15
4.75965E-08 6.26440E-15
5.75917E-08 4.38604E-15
6.85389E-08 3.15820E-15
8.04380E-08 2.32883E-15
9.32891E-08 1.75288E-15
1.07092E-07 1.34320E-15
1.21847E-07 1.04570E-15
1.37554E-07 8.25691E-16
1.54213E-07 6.60289E-16
1.71823E-07 5.34088E-16
1.90386E-07 4.36491E-16
2.09900E-07 3.60103E-16
2.30367E-07 2.99652E-16
2.51785E-07 2.51324E-16
2.74156E-07 2.12326E-16
2.97478E-07 1.80583E-16
3.21752E-07 1.54541E-16
3.46978E-07 1.33016E-16
3.73156E-07 1.15104E-16
4.00286E-07 1.00102E-16
4.28368E-07 8.74617E-17
4.57402E-07 7.67517E-17
4.87388E-07 6.76295E-17
5.18325E-07 5.98214E-17
5.50215E-07 5.31068E-17
5.83057E-07 4.73074E-17
6.16850E-07 4.22776E-17
6.51596E-07 3.78982E-17
6.87293E-07 3.40710E-17
7.23942E-07 3.07145E-17
7.61543E-07 2.77610E-17
1.18991E-06 1.13823E-17
1.71347E-06 5.49143E-18
2.33223E-06 2.96464E-18
3.04617E-06 1.73796E-18
3.85531E-06 1.08507E-18
4.75964E-06 7.11955E-19
5.75916E-06 4.86300E-19
6.85388E-06 3.43376E-19
8.04378E-06 2.49311E-19
9.32888E-06 1.85362E-19
1.07092E-05 1.40665E-19
1.21846E-05 1.08665E-19
1.37553E-05 8.52690E-20
1.54212E-05 6.78444E-20
1.71822E-05 5.46520E-20
1.90385E-05 4.45306E-20
2.09899E-05 3.66352E-20
2.30365E-05 3.04115E-20
2.51783E-05 2.54540E-20
2.74153E-05 2.14675E-20
2.97475E-05 1.82331E-20
3.21749E-05 1.55868E-20
3.46974E-05 1.34045E-20
3.73152E-05 1.15914E-20
4.00281E-05 1.00745E-20
4.28362E-05 8.79739E-21
4.57395E-05 7.71602E-21
4.87380E-05 6.79559E-21
5.18317E-05 6.00837E-21
5.50205E-05 5.33202E-21
5.83045E-05 4.74839E-21
6.16838E-05 4.24263E-21
6.51582E-05 3.80254E-21
6.87277E-05 3.41807E-21
7.23925E-05 3.08094E-21
7.61524E-05 2.78338E-21
9.21439E-05 1.90100E-21
1.09658E-04 1.34241E-21
1.28695E-04 9.74635E-22
1.49255E-04 7.24635E-22
1.71338E-04 5.49910E-22
1.94942E-04 4.24787E-22
2.20070E-04 3.33332E-22
2.46720E-04 2.65201E-22
2.74892E-04 2.13627E-22
3.04586E-04 1.74000E-22
3.35803E-04 1.43146E-22
3.68542E-04 1.18840E-22
4.02802E-04 9.94771E-23
4.38585E-04 8.39030E-23
4.75889E-04 7.12591E-23
5.14715E-04 6.09092E-23
5.55063E-04 5.23718E-23
5.96931E-04 4.52779E-23
6.40321E-04 3.93456E-23
6.85233E-04 3.43529E-23
7.31665E-04 3.01275E-23
7.79618E-04 2.65318E-23
8.29092E-04 2.34564E-23
8.80086E-04 2.08139E-23
9.32601E-04 1.85328E-23
9.86636E-04 1.65557E-23
1.04219E-03 1.48351E-23
1.09927E-03 1.33321E-23
1.15786E-03 1.20145E-23
1.21797E-03 1.08556E-23
1.27961E-03 9.83297E-24
1.34276E-03 8.92779E-24
1.40743E-03 8.12432E-24
1.47362E-03 7.40910E-24
1.54133E-03 6.77076E-24
1.61056E-03 6.19964E-24
1.68131E-03 5.68736E-24
1.75357E-03 5.22685E-24
1.82735E-03 4.81192E-24
1.90265E-03 4.43729E-24
1.97947E-03 4.09835E-24
2.05780E-03 3.79109E-24
2.13765E-03 3.51204E-24
2.21902E-03 3.25814E-24
2.30190E-03 3.02672E-24
2.38630E-03 2.81544E-24
2.47222E-03 2.62222E-24
2.55965E-03 2.44526E-24
2.64859E-03 2.28293E-24
2.73905E-03 2.13382E-24
2.83103E-03 1.99665E-24
2.92452E-03 1.87029E-24
3.01952E-03 1.75374E-24
3.11604E-03 1.64609E-24
3.21407E-03 1.54655E-24
3.31362E-03 1.45440E-24
3.41468E-03 1.36898E-24
3.51725E-03 1.28972E-24
3.62133E-03 1.21609E-24
3.72692E-03 1.14762E-24
3.83403E-03 1.08388E-24
3.94265E-03 1.02448E-24
4.05278E-03 9.69080E-25
4.16442E-03 9.17356E-25
4.27757E-03 8.69021E-25
4.39223E-03 8.23811E-25
4.50840E-03 7.81490E-25
4.62608E-03 7.41836E-25
4.74527E-03 7.04652E-25
4.86597E-03 6.69757E-25
4.98817E-03 6.36982E-25
5.11188E-03 6.06176E-25
5.23711E-03 5.77198E-25
5.36383E-03 5.49921E-25
5.49207E-03 5.24226E-25
5.62181E-03 5.00004E-25
5.75306E-03 4.77156E-25
5.88581E-03 4.55589E-25
6.02007E-03 4.35218E-25
6.15583E-03 4.15965E-25
6.29310E-03 3.97757E-25
6.43187E-03 3.80527E-25
6.57214E-03 3.64212E-25
6.71392E-03 3.48756E-25
6.85720E-03 3.34104E-25
7.00198E-03 3.20207E-25
7.14827E-03 3.07019E-25
7.29605E-03 2.94497E-25
7.44534E-03 2.82601E-25
7.59612E-03 2.71294E-25
7.97965E-03 2.45384E-25
8.37255E-03 2.22467E-25
8.77480E-03 2.02138E-25
9.18641E-03 1.84055E-25
9.60736E-03 1.67929E-25
1.00376E-02 1.53512E-25
1.04773E-02 1.40591E-25
1.09262E-02 1.28985E-25
1.13844E-02 1.18537E-25
1.18520E-02 1.09112E-25
1.23288E-02 1.00592E-25
1.28150E-02 9.28755E-26
1.33104E-02 8.58741E-26
1.38150E-02 7.95098E-26
1.43290E-02 7.37148E-26
1.48521E-02 6.84293E-26
1.53845E-02 6.36009E-26
1.59262E-02 5.91832E-26
1.64770E-02 5.51352E-26
1.70371E-02 5.14208E-26
1.76063E-02 4.80076E-26
1.81848E-02 4.48671E-26
1.87724E-02 4.19738E-26
1.93692E-02 3.93047E-26
1.99751E-02 3.68396E-26
2.05901E-02 3.45602E-26
2.12143E-02 3.24501E-26
2.18476E-02 3.04946E-26
2.24900E-02 2.86803E-26
2.31415E-02 2.69954E-26
2.38021E-02 2.54291E-26
2.44717E-02 2.39715E-26
2.51504E-02 2.26139E-26
2.58382E-02 2.13482E-26
2.65349E-02 2.01671E-26
2.72407E-02 1.90641E-26
2.79555E-02 1.80330E-26
2.86793E-02 1.70684E-26
2.94120E-02 1.61653E-26
3.01537E-02 1.53190E-26
3.09043E-02 1.45255E-26
3.16639E-02 1.37809E-26
3.24324E-02 1.30816E-26
3.32098E-02 1.24244E-26
3.39961E-02 1.18064E-26
3.47912E-02 1.12248E-26
3.55952E-02 1.06772E-26
3.64081E-02 1.01612E-26
3.72297E-02 9.67466E-27
3.80602E-02 9.21567E-27
3.88995E-02 8.78239E-27
3.97476E-02 8.37315E-27
4.06044E-02 7.98638E-27
4.14700E-02 7.62066E-27
4.23443E-02 7.27466E-27
4.32273E-02 6.94712E-27
4.41190E-02 6.63692E-27
4.50194E-02 6.34298E-27
4.59284E-02 6.06430E-27
4.68461E-02 5.79998E-27
4.87074E-02 5.31101E-27
5.06030E-02 4.86989E-27
5.25328E-02 4.47121E-27
5.44967E-02 4.11030E-27
5.64946E-02 3.78303E-27
5.85262E-02 3.48582E-27
6.05914E-02 3.21549E-27
6.26901E-02 2.96926E-27
6.48222E-02 2.74467E-27
6.69873E-02 2.53954E-27
6.91854E-02 2.35195E-27
7.14163E-02 2.18018E-27
7.36799E-02 2.02271E-27
7.59760E-02 1.87819E-27
7.83043E-02 1.74540E-27
8.06647E-02 1.62325E-27
8.30571E-02 1.51079E-27
8.54812E-02 1.40713E-27
8.79369E-02 1.31150E-27
9.04240E-02 1.22319E-27
9.29422E-02 1.14157E-27
9.54915E-02 1.06606E-27
9.80716E-02 9.96156E-28
1.00682E-01 9.31376E-28
1.03323E-01 8.71303E-28
1.05995E-01 8.15550E-28
1.08696E-01 7.63770E-28
1.11427E-01 7.15644E-28
1.14188E-01 6.70883E-28
1.16978E-01 6.29223E-28
1.19797E-01 5.90425E-28
1.22645E-01 5.54269E-28
1.25522E-01 5.20553E-28
1.28428E-01 4.89096E-28
1.31361E-01 4.59727E-28
1.34323E-01 4.32294E-28
1.37313E-01 4.06654E-28
1.40330E-01 3.82678E-28
1.43375E-01 3.60245E-28
1.46447E-01 3.39247E-28
1.49545E-01 3.19582E-28
1.52671E-01 3.01156E-28
1.55823E-01 2.83884E-28
1.59001E-01 2.67685E-28
1.62205E-01 2.52488E-28
1.65435E-01 2.38223E-28
1.68690E-01 2.24828E-28
1.71970E-01 2.12245E-28
1.75276E-01 2.00421E-28
1.78606E-01 1.89304E-28
1.81961E-01 1.78850E-28
1.85340E-01 1.69015E-28
1.88743E-01 1.59759E-28
1.92169E-01 1.51045E-28
1.95619E-01 1.42839E-28
1.99092E-01 1.35109E-28
2.02589E-01 1.27824E-28
2.06107E-01 1.20958E-28
2.09649E-01 1.14483E-28
2.13212E-01 1.08377E-28
2.16797E-01 1.02616E-28
2.20404E-01 9.71793E-29
2.24032E-01 9.20475E-29
2.27680E-01 8.72022E-29
2.31350E-01 8.26261E-29
2.35040E-01 7.83034E-29
2.38751E-01 7.42190E-29
2.42481E-01 7.03588E-29
2.46231E-01 6.67098E-29
2.50000E-01 6.32595E-29
2.53788E-01 5.99966E-29
2.57595E-01 5.69101E-29
2.61421E-01 5.39899E-29
2.65264E-01 5.12265E-29
2.69126E-01 4.86110E-29
2.73005E-01 4.61350E-29
2.76901E-01 4.37906E-29
2.80814E-01 4.15705E-29
2.84744E-01 3.94676E-29
2.88691E-01 3.74755E-29
2.92653E-01 3.55880E-29
2.96632E-01 3.37993E-29
3.00625E-01 3.21039E-29
3.04634E-01 3.04968E-29
3.08658E-01 2.89732E-29
3.12697E-01 2.75284E-29
3.16749E-01 2.61582E-29
3.20816E-01 2.48586E-29
3.24896E-01 2.36257E-29
3.28990E-01 2.24561E-29
3.33097E-01 2.13462E-29
3.37216E-01 2.02929E-29
3.41348E-01 1.92932E-29
3.45492E-01 1.83443E-29
3.49647E-01 1.74435E-29
3.53814E-01 1.65882E-29
3.57992E-01 1.57760E-29
3.62181E-01 1.50047E-29
3.66381E-01 1.42722E-29
3.70590E-01 1.35764E-29
3.74810E-01 1.29154E-29
3.79039E-01 1.22875E-29
3.83277E-01 1.16908E-29
3.87524E-01 1.11238E-29
3.91780E-01 1.05850E-29
3.96044E-01 1.00729E-29
4.00316E-01 9.58622E-30
4.04596E-01 9.12355E-30
4.08882E-01 8.68371E-30
4.13176E-01 8.26554E-30
4.17476E-01 7.86794E-30
4.21783E-01 7.48988E-30
4.26095E-01 7.13035E-30
4.30413E-01 6.78843E-30
4.34737E-01 6.46323E-30
4.39065E-01 6.15391E-30
4.43398E-01 5.85968E-30
4.47736E-01 5.57978E-30
4.52077E-01 5.31349E-30
4.56422E-01 5.06014E-30
4.60770E-01 4.81908E-30
4.65122E-01 4.58970E-30
4.69476E-01 4.37143E-30
4.73832E-01 4.16371E-30
4.78190E-01 3.96601E-30
4.82550E-01 3.77786E-30
4.86912E-01 3.59876E-30
4.91274E-01 3.42829E-30
4.95637E-01 3.26602E-30
5.00000E-01 3.11154E-30
5.04363E-01 2.96447E-30
5.08726E-01 2.82445E-30
5.13088E-01 2.69113E-30
5.17450E-01 2.56419E-30
5.21810E-01 2.44332E-30
5.26168E-01 2.32822E-30
5.30524E-01 2.21862E-30
5.34878E-01 2.11423E-30
5.39230E-01 2.01482E-30
5.43578E-01 1.92014E-30
5.47923E-01 1.82996E-30
5.52264E-01 1.74407E-30
5.56602E-01 1.66225E-30
5.60935E-01 1.58431E-30
5.65263E-01 1.51007E-30
5.69587E-01 1.43935E-30
5.73905E-01 1.37197E-30
5.78217E-01 1.30777E-30
5.82524E-01 1.24661E-30
5.86824E-01 1.18834E-30
5.91118E-01 1.13282E-30
5.95404E-01 1.07992E-30
5.99684E-01 1.02951E-30
6.03956E-01 9.81472E-31
6.08220E-01 9.35698E-31
6.12476E-01 8.92076E-31
6.16723E-01 8.50505E-31
6.20961E-01 8.10888E-31
6.25190E-01 7.73130E-31
6.29410E-01 7.37144E-31
6.33619E-01 7.02845E-31
6.37819E-01 6.70154E-31
6.42008E-01 6.38995E-31
6.46186E-01 6.09295E-31
6.50353E-01 5.80984E-31
6.54508E-01 5.53997E-31
6.58652E-01 5.28272E-31
6.62784E-01 5.03748E-31
6.66903E-01 4.80370E-31
6.71010E-01 4.58083E-31
6.75104E-01 4.36835E-31
6.79184E-01 4.16579E-31
6.83251E-01 3.97266E-31
6.87303E-01 3.78853E-31
6.91342E-01 3.61297E-31
6.95366E-01 3.44558E-31
6.99375E-01 3.28597E-31
7.03368E-01 3.13380E-31
7.07347E-01 2.98869E-31
7.11309E-01 2.85032E-31
7.15256E-01 2.71837E-31
7.19186E-01 2.59256E-31
7.23099E-01 2.47257E-31
7.26995E-01 2.35816E-31
7.30874E-01 2.24904E-31
7.34736E-01 2.14498E-31
7.38579E-01 2.04575E-31
7.42405E-01 1.95110E-31
7.46212E-01 1.86084E-31
7.50000E-01 1.77475E-31
7.53769E-01 1.69265E-31
7.57519E-01 1.61434E-31
7.61249E-01 1.53964E-31
7.64960E-01 1.46840E-31
7.68650E-01 1.40045E-31
7.72320E-01 1.33563E-31
7.75968E-01 1.27381E-31
7.79596E-01 1.21484E-31
7.83203E-01 1.15858E-31
7.86788E-01 1.10492E-31
7.90351E-01 1.05373E-31
7.93893E-01 1.00490E-31
7.97411E-01 9.58318E-32
8.00908E-01 9.13880E-32
8.04381E-01 8.71487E-32
8.07831E-01 8.31043E-32
8.11257E-01 7.92459E-32
8.14660E-01 7.55649E-32
8.18039E-01 7.20530E-32
8.21394E-01 6.87024E-32
8.24724E-01 6.55058E-32
8.28030E-01 6.24559E-32
8.31310E-01 5.95459E-32
8.34565E-01 5.67695E-32
8.37795E-01 5.41204E-32
8.40999E-01 5.15927E-32
8.44177E-01 4.91810E-32
8.47329E-01 4.68798E-32
8.50455E-01 4.46839E-32
8.53553E-01 4.25888E-32
8.56625E-01 4.05895E-32
8.59670E-01 3.86817E-32
8.62687E-01 3.68613E-32
8.65677E-01 3.51241E-32
8.68639E-01 3.34664E-32
8.71572E-01 3.18846E-32
8.74478E-01 3.03749E-32
8.77355E-01 2.89344E-32
8.80203E-01 2.75597E-32
8.83022E-01 2.62478E-32
8.85812E-01 2.49958E-32
8.88573E-01 2.38011E-32
8.91304E-01 2.26608E-32
8.94005E-01 2.15726E-32
8.96677E-01 2.05342E-32
8.99318E-01 1.95431E-32
9.01928E-01 1.85973E-32
9.04508E-01 1.76946E-32
9.07058E-01 1.68332E-32
9.09576E-01 1.60110E-32
9.12063E-01 1.52264E-32
9.14519E-01 1.44775E-32
9.16943E-01 1.37629E-32
9.19335E-01 1.30809E-32
9.21696E-01 1.24300E-32
9.24024E-01 1.18088E-32
9.26320E-01 1.12160E-32
9.28584E-01 1.06502E-32
9.30815E-01 1.01103E-32
9.33013E-01 9.59510E-33
9.35178E-01 9.10345E-33
9.37310E-01 8.63426E-33
9.39409E-01 8.18657E-33
9.41474E-01 7.75939E-33
9.43505E-01 7.35176E-33
9.45503E-01 6.96286E-33
9.47467E-01 6.59182E-33
9.49397E-01 6.23783E-33
9.51293E-01 5.90011E-33
9.53154E-01 5.57795E-33
9.54981E-01 5.27067E-33
9.56773E-01 4.97762E-33
9.58530E-01 4.69810E-33
9.60252E-01 4.43156E-33
9.61940E-01 4.17741E-33
9.63592E-01 3.93513E-33
9.65209E-01 3.70415E-33
9.66790E-01 3.48402E-33
9.68336E-01 3.27425E-33
9.69846E-01 3.07439E-33
9.71321E-01 2.88398E-33
9.72759E-01 2.70268E-33
9.74162E-01 2.53006E-33
9.75528E-01 2.36570E-33
9.76858E-01 2.20934E-33
9.78152E-01 2.06059E-33
9.79410E-01 1.91917E-33
9.80631E-01 1.78474E-33
9.81815E-01 1.65702E-33
9.82963E-01 1.53573E-33
9.84074E-01 1.42067E-33
9.85148E-01 1.31149E-33
9.86185E-01 1.20807E-33
9.87185E-01 1.11010E-33
9.88148E-01 1.01742E-33
9.89074E-01 9.29810E-34
9.89962E-01 8.47090E-34
9.90814E-01 7.69082E-34
9.91627E-01 6.95638E-34
9.92404E-01 6.26571E-34
9.93143E-01 5.61756E-34
9.93844E-01 5.01033E-34
9.94508E-01 4.44308E-34
9.95134E-01 3.91436E-34
9.95722E-01 3.42300E-34
9.96273E-01 2.96804E-34
9.96786E-01 2.54863E-34
9.97261E-01 2.16366E-34
9.97698E-01 1.81254E-34
9.98097E-01 1.49427E-34
9.98459E-01 1.20839E-34
9.98782E-01 9.54168E-35
9.99067E-01 7.31098E-35
9.99315E-01 5.38850E-35
9.99524E-01 3.76700E-35
9.99695E-01 2.44543E-35
9.99829E-01 1.42075E-35
9.99924E-01 6.90340E-36
9.99981E-01 2.52696E-36
1.00000E+00 1.08033E-36
