 #
 # Subroutine ELSEPA. Elastic scattering of electrons and positrons
 #                    by neutral atoms and positive ions
 #
 # Projectile: electron
 # Kinetic energy = 1.75000E+07 eV = 6.43113E+05 a.u.
 #
 # WARNING: High-energy factorization with free-atom DF screening.
 #          Absorption, polarization and exchange corrections are
 #          switched off.
 #          Phase shifts are calculated for the bare nucleus.
 #          Scattering amplitudes are not evaluated.
 #
 # Element:  N,  Z =   7,  atomic weight = 1.40067E+01 g/mol
 #
 # Nuclear model: Fermi distribution
 #                Average radius = 2.57926E-13 cm
 #                Skin thickness = 5.46000E-14 cm
 #
 # Number of electrons =  7
 #
 # Total elastic cross section = 2.60181E-19 cm**2 = 9.29125E-03 a0**2
 # 1st transport cross section = 2.90206E-25 cm**2 = 1.03634E-08 a0**2
 # 2nd transport cross section = 8.40342E-25 cm**2 = 3.00092E-08 a0**2
 #
 #
 # Differential cross section:                       MU=(1-COS(THETA))/2
 #
 #  THETA        MU          DCS          DCS        Sherman      error
 #  (deg)                 (cm**2/sr)   (a0**2/sr)    function
 #----------------------------------------------------------------------
0.00000E+00 6.04784E-13
7.61557E-13 6.04758E-13
1.18994E-12 6.04745E-13
1.71346E-12 6.04728E-13
2.33225E-12 6.04708E-13
3.04617E-12 6.04685E-13
3.85530E-12 6.04659E-13
4.75964E-12 6.04630E-13
5.75917E-12 6.04597E-13
6.85391E-12 6.04562E-13
8.04379E-12 6.04524E-13
9.32893E-12 6.04483E-13
1.07092E-11 6.04439E-13
1.21847E-11 6.04391E-13
1.37554E-11 6.04341E-13
1.54213E-11 6.04288E-13
1.71823E-11 6.04231E-13
1.90386E-11 6.04172E-13
2.09900E-11 6.04110E-13
2.30367E-11 6.04044E-13
2.51785E-11 6.03976E-13
2.74156E-11 6.03904E-13
2.97478E-11 6.03830E-13
3.21752E-11 6.03752E-13
3.46979E-11 6.03672E-13
3.73157E-11 6.03588E-13
4.00286E-11 6.03502E-13
4.28368E-11 6.03412E-13
4.57402E-11 6.03320E-13
4.87388E-11 6.03224E-13
5.18325E-11 6.03126E-13
5.50215E-11 6.03024E-13
5.83057E-11 6.02919E-13
6.16850E-11 6.02812E-13
6.51595E-11 6.02701E-13
6.87293E-11 6.02588E-13
7.23943E-11 6.02472E-13
7.61544E-11 6.02352E-13
1.18991E-10 6.00993E-13
1.71347E-10 5.99338E-13
2.33223E-10 5.97392E-13
3.04617E-10 5.95158E-13
3.85531E-10 5.92640E-13
4.75965E-10 5.89845E-13
5.75917E-10 5.86780E-13
6.85389E-10 5.83446E-13
8.04380E-10 5.79854E-13
9.32891E-10 5.76012E-13
1.07092E-09 5.71929E-13
1.21847E-09 5.67603E-13
1.37554E-09 5.63051E-13
1.54213E-09 5.58286E-13
1.71823E-09 5.53312E-13
1.90386E-09 5.48129E-13
2.09900E-09 5.42760E-13
2.30367E-09 5.37215E-13
2.51785E-09 5.31495E-13
2.74156E-09 5.25609E-13
2.97478E-09 5.19577E-13
3.21752E-09 5.13410E-13
3.46978E-09 5.07102E-13
3.73156E-09 5.00672E-13
4.00286E-09 4.94139E-13
4.28368E-09 4.87511E-13
4.57402E-09 4.80774E-13
4.87388E-09 4.73694E-13
5.18326E-09 4.66256E-13
5.50215E-09 4.58944E-13
5.83057E-09 4.51766E-13
6.16850E-09 4.44726E-13
6.51596E-09 4.37830E-13
6.87293E-09 4.31081E-13
7.23942E-09 4.24483E-13
7.61544E-09 4.17315E-13
1.18991E-08 3.46102E-13
1.71347E-08 2.81197E-13
2.33223E-08 2.25261E-13
3.04617E-08 1.78301E-13
3.85531E-08 1.40123E-13
4.75965E-08 1.10045E-13
5.75917E-08 8.65596E-14
6.85389E-08 6.81729E-14
8.04380E-08 5.39380E-14
9.32891E-08 4.29418E-14
1.07092E-07 3.44184E-14
1.21847E-07 2.77496E-14
1.37554E-07 2.25499E-14
1.54213E-07 1.84659E-14
1.71823E-07 1.52341E-14
1.90386E-07 1.26571E-14
2.09900E-07 1.05922E-14
2.30367E-07 8.92621E-15
2.51785E-07 7.57288E-15
2.74156E-07 6.46641E-15
2.97478E-07 5.55591E-15
3.21752E-07 4.80159E-15
3.46978E-07 4.17252E-15
3.73156E-07 3.64468E-15
4.00286E-07 3.19922E-15
4.28368E-07 2.82120E-15
4.57402E-07 2.49878E-15
4.87388E-07 2.22232E-15
5.18325E-07 1.98408E-15
5.50215E-07 1.77785E-15
5.83057E-07 1.59847E-15
6.16850E-07 1.44162E-15
6.51596E-07 1.30422E-15
6.87293E-07 1.18336E-15
7.23942E-07 1.07630E-15
7.61543E-07 9.81550E-16
1.18991E-06 4.36706E-16
1.71347E-06 2.24610E-16
2.33223E-06 1.27064E-16
3.04617E-06 7.70313E-17
3.85531E-06 4.92585E-17
4.75964E-06 3.28792E-17
5.75916E-06 2.27379E-17
6.85388E-06 1.62011E-17
8.04378E-06 1.18414E-17
9.32888E-06 8.84800E-18
1.07092E-05 6.73985E-18
1.21846E-05 5.22168E-18
1.37553E-05 4.10664E-18
1.54212E-05 3.27321E-18
1.71822E-05 2.64038E-18
1.90385E-05 2.15375E-18
2.09899E-05 1.77347E-18
2.30365E-05 1.47326E-18
2.51783E-05 1.23384E-18
2.74153E-05 1.04111E-18
2.97475E-05 8.84607E-19
3.21749E-05 7.56475E-19
3.46974E-05 6.50745E-19
3.73152E-05 5.62856E-19
4.00281E-05 4.89298E-19
4.28362E-05 4.27347E-19
4.57395E-05 3.74874E-19
4.87380E-05 3.30199E-19
5.18317E-05 2.91981E-19
5.50205E-05 2.59139E-19
5.83045E-05 2.30793E-19
6.16838E-05 2.06226E-19
6.51582E-05 1.84846E-19
6.87277E-05 1.66166E-19
7.23925E-05 1.49784E-19
7.61524E-05 1.35368E-19
9.21439E-05 9.24734E-20
1.09658E-04 6.53097E-20
1.28695E-04 4.74225E-20
1.49255E-04 3.52623E-20
1.71338E-04 2.67629E-20
1.94942E-04 2.06759E-20
2.20070E-04 1.62265E-20
2.46720E-04 1.29116E-20
2.74892E-04 1.04020E-20
3.04586E-04 8.47364E-21
3.35803E-04 6.97212E-21
3.68542E-04 5.78913E-21
4.02802E-04 4.84665E-21
4.38585E-04 4.08853E-21
4.75889E-04 3.47299E-21
5.14715E-04 2.96909E-21
5.55063E-04 2.55339E-21
5.96931E-04 2.20795E-21
6.40321E-04 1.91904E-21
6.85233E-04 1.67587E-21
7.31665E-04 1.47005E-21
7.79618E-04 1.29488E-21
8.29092E-04 1.14504E-21
8.80086E-04 1.01628E-21
9.32601E-04 9.05116E-22
9.86636E-04 8.08755E-22
1.04219E-03 7.24883E-22
1.09927E-03 6.51611E-22
1.15786E-03 5.87372E-22
1.21797E-03 5.30857E-22
1.27961E-03 4.80984E-22
1.34276E-03 4.36832E-22
1.40743E-03 3.97635E-22
1.47362E-03 3.62738E-22
1.54133E-03 3.31588E-22
1.61056E-03 3.03713E-22
1.68131E-03 2.78706E-22
1.75357E-03 2.56223E-22
1.82735E-03 2.35962E-22
1.90265E-03 2.17666E-22
1.97947E-03 2.01110E-22
2.05780E-03 1.86098E-22
2.13765E-03 1.72463E-22
2.21902E-03 1.60054E-22
2.30190E-03 1.48741E-22
2.38630E-03 1.38411E-22
2.47222E-03 1.28963E-22
2.55965E-03 1.20308E-22
2.64859E-03 1.12366E-22
2.73905E-03 1.05070E-22
2.83103E-03 9.83569E-23
2.92452E-03 9.21714E-23
3.01952E-03 8.64648E-23
3.11604E-03 8.11932E-23
3.21407E-03 7.63176E-23
3.31362E-03 7.18025E-23
3.41468E-03 6.76166E-23
3.51725E-03 6.37314E-23
3.62133E-03 6.01214E-23
3.72692E-03 5.67635E-23
3.83403E-03 5.36369E-23
3.94265E-03 5.07227E-23
4.05278E-03 4.80038E-23
4.16442E-03 4.54648E-23
4.27757E-03 4.30914E-23
4.39223E-03 4.08710E-23
4.50840E-03 3.87918E-23
4.62608E-03 3.68432E-23
4.74527E-03 3.50155E-23
4.86597E-03 3.32998E-23
4.98817E-03 3.16879E-23
5.11188E-03 3.01724E-23
5.23711E-03 2.87464E-23
5.36383E-03 2.74037E-23
5.49207E-03 2.61385E-23
5.62181E-03 2.49456E-23
5.75306E-03 2.38199E-23
5.88581E-03 2.27570E-23
6.02007E-03 2.17528E-23
6.15583E-03 2.08034E-23
6.29310E-03 1.99052E-23
6.43187E-03 1.90550E-23
6.57214E-03 1.82497E-23
6.71392E-03 1.74865E-23
6.85720E-03 1.67628E-23
7.00198E-03 1.60762E-23
7.14827E-03 1.54243E-23
7.29605E-03 1.48052E-23
7.44534E-03 1.42169E-23
7.59612E-03 1.36574E-23
7.97965E-03 1.23747E-23
8.37255E-03 1.12391E-23
8.77480E-03 1.02308E-23
9.18641E-03 9.33311E-24
9.60736E-03 8.53175E-24
1.00376E-02 7.81459E-24
1.04773E-02 7.17121E-24
1.09262E-02 6.59270E-24
1.13844E-02 6.07136E-24
1.18520E-02 5.60054E-24
1.23288E-02 5.17448E-24
1.28150E-02 4.78816E-24
1.33104E-02 4.43723E-24
1.38150E-02 4.11785E-24
1.43290E-02 3.82669E-24
1.48521E-02 3.56080E-24
1.53845E-02 3.31760E-24
1.59262E-02 3.09480E-24
1.64770E-02 2.89038E-24
1.70371E-02 2.70255E-24
1.76063E-02 2.52973E-24
1.81848E-02 2.37049E-24
1.87724E-02 2.22358E-24
1.93692E-02 2.08786E-24
1.99751E-02 1.96234E-24
2.05901E-02 1.84609E-24
2.12143E-02 1.73832E-24
2.18476E-02 1.63830E-24
2.24900E-02 1.54535E-24
2.31415E-02 1.45890E-24
2.38021E-02 1.37840E-24
2.44717E-02 1.30337E-24
2.51504E-02 1.23337E-24
2.58382E-02 1.16799E-24
2.65349E-02 1.10689E-24
2.72407E-02 1.04972E-24
2.79555E-02 9.96191E-25
2.86793E-02 9.46024E-25
2.94120E-02 8.98969E-25
3.01537E-02 8.54797E-25
3.09043E-02 8.13300E-25
3.16639E-02 7.74285E-25
3.24324E-02 7.37577E-25
3.32098E-02 7.03013E-25
3.39961E-02 6.70445E-25
3.47912E-02 6.39737E-25
3.55952E-02 6.10762E-25
3.64081E-02 5.83405E-25
3.72297E-02 5.57558E-25
3.80602E-02 5.33123E-25
3.88995E-02 5.10007E-25
3.97476E-02 4.88127E-25
4.06044E-02 4.67404E-25
4.14700E-02 4.47765E-25
4.23443E-02 4.29144E-25
4.32273E-02 4.11477E-25
4.41190E-02 3.94706E-25
4.50194E-02 3.78778E-25
4.59284E-02 3.63642E-25
4.68461E-02 3.49252E-25
4.87074E-02 3.22536E-25
5.06030E-02 2.98316E-25
5.25328E-02 2.76317E-25
5.44967E-02 2.56300E-25
5.64946E-02 2.38054E-25
5.85262E-02 2.21395E-25
6.05914E-02 2.06160E-25
6.26901E-02 1.92206E-25
6.48222E-02 1.79406E-25
6.69873E-02 1.67647E-25
6.91854E-02 1.56829E-25
7.14163E-02 1.46864E-25
7.36799E-02 1.37673E-25
7.59760E-02 1.29184E-25
7.83043E-02 1.21334E-25
8.06647E-02 1.14067E-25
8.30571E-02 1.07331E-25
8.54812E-02 1.01081E-25
8.79369E-02 9.52747E-26
9.04240E-02 8.98757E-26
9.29422E-02 8.48499E-26
9.54915E-02 8.01671E-26
9.80716E-02 7.57994E-26
1.00682E-01 7.17219E-26
1.03323E-01 6.79118E-26
1.05995E-01 6.43484E-26
1.08696E-01 6.10129E-26
1.11427E-01 5.78880E-26
1.14188E-01 5.49580E-26
1.16978E-01 5.22086E-26
1.19797E-01 4.96266E-26
1.22645E-01 4.72000E-26
1.25522E-01 4.49177E-26
1.28428E-01 4.27696E-26
1.31361E-01 4.07464E-26
1.34323E-01 3.88395E-26
1.37313E-01 3.70410E-26
1.40330E-01 3.53436E-26
1.43375E-01 3.37406E-26
1.46447E-01 3.22259E-26
1.49545E-01 3.07936E-26
1.52671E-01 2.94385E-26
1.55823E-01 2.81556E-26
1.59001E-01 2.69405E-26
1.62205E-01 2.57889E-26
1.65435E-01 2.46968E-26
1.68690E-01 2.36607E-26
1.71970E-01 2.26771E-26
1.75276E-01 2.17429E-26
1.78606E-01 2.08553E-26
1.81961E-01 2.00113E-26
1.85340E-01 1.92086E-26
1.88743E-01 1.84447E-26
1.92169E-01 1.77174E-26
1.95619E-01 1.70246E-26
1.99092E-01 1.63645E-26
2.02589E-01 1.57351E-26
2.06107E-01 1.51349E-26
2.09649E-01 1.45621E-26
2.13212E-01 1.40154E-26
2.16797E-01 1.34934E-26
2.20404E-01 1.29946E-26
2.24032E-01 1.25179E-26
2.27680E-01 1.20622E-26
2.31350E-01 1.16264E-26
2.35040E-01 1.12093E-26
2.38751E-01 1.08102E-26
2.42481E-01 1.04280E-26
2.46231E-01 1.00620E-26
2.50000E-01 9.71125E-27
2.53788E-01 9.37510E-27
2.57595E-01 9.05280E-27
2.61421E-01 8.74368E-27
2.65264E-01 8.44711E-27
2.69126E-01 8.16249E-27
2.73005E-01 7.88925E-27
2.76901E-01 7.62686E-27
2.80814E-01 7.37480E-27
2.84744E-01 7.13261E-27
2.88691E-01 6.89983E-27
2.92653E-01 6.67602E-27
2.96632E-01 6.46079E-27
3.00625E-01 6.25374E-27
3.04634E-01 6.05451E-27
3.08658E-01 5.86275E-27
3.12697E-01 5.67813E-27
3.16749E-01 5.50035E-27
3.20816E-01 5.32909E-27
3.24896E-01 5.16410E-27
3.28990E-01 5.00508E-27
3.33097E-01 4.85179E-27
3.37216E-01 4.70400E-27
3.41348E-01 4.56145E-27
3.45492E-01 4.42395E-27
3.49647E-01 4.29128E-27
3.53814E-01 4.16323E-27
3.57992E-01 4.03963E-27
3.62181E-01 3.92029E-27
3.66381E-01 3.80503E-27
3.70590E-01 3.69370E-27
3.74810E-01 3.58614E-27
3.79039E-01 3.48220E-27
3.83277E-01 3.38173E-27
3.87524E-01 3.28461E-27
3.91780E-01 3.19069E-27
3.96044E-01 3.09986E-27
4.00316E-01 3.01200E-27
4.04596E-01 2.92700E-27
4.08882E-01 2.84474E-27
4.13176E-01 2.76512E-27
4.17476E-01 2.68805E-27
4.21783E-01 2.61342E-27
4.26095E-01 2.54115E-27
4.30413E-01 2.47116E-27
4.34737E-01 2.40335E-27
4.39065E-01 2.33765E-27
4.43398E-01 2.27398E-27
4.47736E-01 2.21228E-27
4.52077E-01 2.15246E-27
4.56422E-01 2.09446E-27
4.60770E-01 2.03821E-27
4.65122E-01 1.98367E-27
4.69476E-01 1.93076E-27
4.73832E-01 1.87942E-27
4.78190E-01 1.82961E-27
4.82550E-01 1.78127E-27
4.86912E-01 1.73436E-27
4.91274E-01 1.68881E-27
4.95637E-01 1.64459E-27
5.00000E-01 1.60165E-27
5.04363E-01 1.55995E-27
5.08726E-01 1.51945E-27
5.13088E-01 1.48010E-27
5.17450E-01 1.44187E-27
5.21810E-01 1.40473E-27
5.26168E-01 1.36863E-27
5.30524E-01 1.33354E-27
5.34878E-01 1.29943E-27
5.39230E-01 1.26627E-27
5.43578E-01 1.23403E-27
5.47923E-01 1.20268E-27
5.52264E-01 1.17218E-27
5.56602E-01 1.14252E-27
5.60935E-01 1.11367E-27
5.65263E-01 1.08559E-27
5.69587E-01 1.05828E-27
5.73905E-01 1.03169E-27
5.78217E-01 1.00582E-27
5.82524E-01 9.80638E-28
5.86824E-01 9.56123E-28
5.91118E-01 9.32256E-28
5.95404E-01 9.09017E-28
5.99684E-01 8.86387E-28
6.03956E-01 8.64348E-28
6.08220E-01 8.42882E-28
6.12476E-01 8.21973E-28
6.16723E-01 8.01602E-28
6.20961E-01 7.81756E-28
6.25190E-01 7.62418E-28
6.29410E-01 7.43574E-28
6.33619E-01 7.25208E-28
6.37819E-01 7.07308E-28
6.42008E-01 6.89860E-28
6.46186E-01 6.72851E-28
6.50353E-01 6.56268E-28
6.54508E-01 6.40099E-28
6.58652E-01 6.24333E-28
6.62784E-01 6.08958E-28
6.66903E-01 5.93964E-28
6.71010E-01 5.79339E-28
6.75104E-01 5.65073E-28
6.79184E-01 5.51156E-28
6.83251E-01 5.37579E-28
6.87303E-01 5.24333E-28
6.91342E-01 5.11407E-28
6.95366E-01 4.98795E-28
6.99375E-01 4.86486E-28
7.03368E-01 4.74473E-28
7.07347E-01 4.62748E-28
7.11309E-01 4.51304E-28
7.15256E-01 4.40131E-28
7.19186E-01 4.29225E-28
7.23099E-01 4.18577E-28
7.26995E-01 4.08180E-28
7.30874E-01 3.98029E-28
7.34736E-01 3.88116E-28
7.38579E-01 3.78435E-28
7.42405E-01 3.68981E-28
7.46212E-01 3.59748E-28
7.50000E-01 3.50729E-28
7.53769E-01 3.41920E-28
7.57519E-01 3.33315E-28
7.61249E-01 3.24908E-28
7.64960E-01 3.16696E-28
7.68650E-01 3.08672E-28
7.72320E-01 3.00833E-28
7.75968E-01 2.93174E-28
7.79596E-01 2.85690E-28
7.83203E-01 2.78376E-28
7.86788E-01 2.71229E-28
7.90351E-01 2.64245E-28
7.93893E-01 2.57420E-28
7.97411E-01 2.50749E-28
8.00908E-01 2.44229E-28
8.04381E-01 2.37857E-28
8.07831E-01 2.31628E-28
8.11257E-01 2.25540E-28
8.14660E-01 2.19589E-28
8.18039E-01 2.13772E-28
8.21394E-01 2.08085E-28
8.24724E-01 2.02526E-28
8.28030E-01 1.97092E-28
8.31310E-01 1.91780E-28
8.34565E-01 1.86586E-28
8.37795E-01 1.81509E-28
8.40999E-01 1.76545E-28
8.44177E-01 1.71692E-28
8.47329E-01 1.66948E-28
8.50455E-01 1.62309E-28
8.53553E-01 1.57775E-28
8.56625E-01 1.53341E-28
8.59670E-01 1.49007E-28
8.62687E-01 1.44769E-28
8.65677E-01 1.40627E-28
8.68639E-01 1.36576E-28
8.71572E-01 1.32617E-28
8.74478E-01 1.28746E-28
8.77355E-01 1.24962E-28
8.80203E-01 1.21263E-28
8.83022E-01 1.17647E-28
8.85812E-01 1.14113E-28
8.88573E-01 1.10658E-28
8.91304E-01 1.07281E-28
8.94005E-01 1.03981E-28
8.96677E-01 1.00755E-28
8.99318E-01 9.76027E-29
9.01928E-01 9.45222E-29
9.04508E-01 9.15120E-29
9.07058E-01 8.85708E-29
9.09576E-01 8.56971E-29
9.12063E-01 8.28897E-29
9.14519E-01 8.01472E-29
9.16943E-01 7.74684E-29
9.19335E-01 7.48521E-29
9.21696E-01 7.22970E-29
9.24024E-01 6.98020E-29
9.26320E-01 6.73660E-29
9.28584E-01 6.49878E-29
9.30815E-01 6.26664E-29
9.33013E-01 6.04008E-29
9.35178E-01 5.81899E-29
9.37310E-01 5.60327E-29
9.39409E-01 5.39284E-29
9.41474E-01 5.18760E-29
9.43505E-01 4.98745E-29
9.45503E-01 4.79231E-29
9.47467E-01 4.60209E-29
9.49397E-01 4.41672E-29
9.51293E-01 4.23610E-29
9.53154E-01 4.06017E-29
9.54981E-01 3.88884E-29
9.56773E-01 3.72205E-29
9.58530E-01 3.55972E-29
9.60252E-01 3.40178E-29
9.61940E-01 3.24816E-29
9.63592E-01 3.09881E-29
9.65209E-01 2.95365E-29
9.66790E-01 2.81262E-29
9.68336E-01 2.67567E-29
9.69846E-01 2.54273E-29
9.71321E-01 2.41376E-29
9.72759E-01 2.28870E-29
9.74162E-01 2.16749E-29
9.75528E-01 2.05008E-29
9.76858E-01 1.93643E-29
9.78152E-01 1.82649E-29
9.79410E-01 1.72022E-29
9.80631E-01 1.61756E-29
9.81815E-01 1.51848E-29
9.82963E-01 1.42294E-29
9.84074E-01 1.33090E-29
9.85148E-01 1.24231E-29
9.86185E-01 1.15715E-29
9.87185E-01 1.07538E-29
9.88148E-01 9.96964E-30
9.89074E-01 9.21871E-30
9.89962E-01 8.50071E-30
9.90814E-01 7.81535E-30
9.91627E-01 7.16237E-30
9.92404E-01 6.54147E-30
9.93143E-01 5.95243E-30
9.93844E-01 5.39498E-30
9.94508E-01 4.86894E-30
9.95134E-01 4.37407E-30
9.95722E-01 3.91017E-30
9.96273E-01 3.47707E-30
9.96786E-01 3.07458E-30
9.97261E-01 2.70255E-30
9.97698E-01 2.36083E-30
9.98097E-01 2.04927E-30
9.98459E-01 1.76776E-30
9.98782E-01 1.51618E-30
9.99067E-01 1.29444E-30
9.99315E-01 1.10244E-30
9.99524E-01 9.40102E-31
9.99695E-01 8.07372E-31
9.99829E-01 7.04195E-31
9.99924E-01 6.30524E-31
9.99981E-01 5.86342E-31
1.00000E+00 5.71661E-31
