 #
 # Subroutine ELSEPA. Elastic scattering of electrons and positrons
 #                    by neutral atoms and positive ions
 #
 # Projectile: electron
 # Kinetic energy = 9.00000E+08 eV = 3.30744E+07 a.u.
 #
 # WARNING: High-energy factorization with free-atom DF screening.
 #          Absorption, polarization and exchange corrections are
 #          switched off.
 #          Phase shifts are calculated for the bare nucleus.
 #          Scattering amplitudes are not evaluated.
 #
 # Element:  N,  Z =   7,  atomic weight = 1.40067E+01 g/mol
 #
 # Nuclear model: Fermi distribution
 #                Average radius = 2.57926E-13 cm
 #                Skin thickness = 5.46000E-14 cm
 #
 # Number of electrons =  7
 #
 # Total elastic cross section = 2.59634E-19 cm**2 = 9.27171E-03 a0**2
 # 1st transport cross section = 1.37350E-28 cm**2 = 4.90487E-12 a0**2
 # 2nd transport cross section = 4.11950E-28 cm**2 = 1.47110E-11 a0**2
 #
 #
 # Differential cross section:                       MU=(1-COS(THETA))/2
 #
 #  THETA        MU          DCS          DCS        Sherman      error
 #  (deg)                 (cm**2/sr)   (a0**2/sr)    function
 #----------------------------------------------------------------------
0.00000E+00 1.51183E-09
7.61557E-13 1.37010E-09
1.18994E-12 1.29868E-09
1.71346E-12 1.21848E-09
2.33225E-12 1.12908E-09
3.04617E-12 1.04290E-09
3.85530E-12 9.51966E-10
4.75964E-12 8.64851E-10
5.75917E-12 7.83621E-10
6.85391E-12 7.02593E-10
8.04379E-12 6.29893E-10
9.32893E-12 5.62783E-10
1.07092E-11 5.00342E-10
1.21847E-11 4.45385E-10
1.37554E-11 3.94946E-10
1.54213E-11 3.49990E-10
1.71823E-11 3.10709E-10
1.90386E-11 2.74843E-10
2.09900E-11 2.43607E-10
2.30367E-11 2.16173E-10
2.51785E-11 1.91590E-10
2.74156E-11 1.70234E-10
2.97478E-11 1.51354E-10
3.21752E-11 1.34682E-10
3.46979E-11 1.20137E-10
3.73157E-11 1.07220E-10
4.00286E-11 9.58790E-11
4.28368E-11 8.59345E-11
4.57402E-11 7.70630E-11
4.87388E-11 6.92796E-11
5.18325E-11 6.24041E-11
5.50215E-11 5.62965E-11
5.83057E-11 5.09008E-11
6.16850E-11 4.60996E-11
6.51595E-11 4.18282E-11
6.87293E-11 3.80303E-11
7.23943E-11 3.46311E-11
7.61544E-11 3.15965E-11
1.18991E-10 1.38688E-11
1.71347E-10 7.04230E-12
2.33223E-10 3.99009E-12
3.04617E-10 2.45013E-12
3.85531E-10 1.59752E-12
4.75965E-10 1.09007E-12
5.75917E-10 7.70510E-13
6.85389E-10 5.60626E-13
8.04380E-10 4.17407E-13
9.32891E-10 3.17131E-13
1.07092E-09 2.45072E-13
1.21847E-09 1.92248E-13
1.37554E-09 1.52833E-13
1.54213E-09 1.22929E-13
1.71823E-09 9.99510E-14
1.90386E-09 8.20490E-14
2.09900E-09 6.79552E-14
2.30367E-09 5.67393E-14
2.51785E-09 4.77272E-14
2.74156E-09 4.04257E-14
2.97478E-09 3.44575E-14
3.21752E-09 2.95459E-14
3.46978E-09 2.54738E-14
3.73156E-09 2.20762E-14
4.00286E-09 1.92240E-14
4.28368E-09 1.68156E-14
4.57402E-09 1.47715E-14
4.87388E-09 1.30273E-14
5.18326E-09 1.15324E-14
5.50215E-09 1.02451E-14
5.83057E-09 9.13194E-15
6.16850E-09 8.16556E-15
6.51596E-09 7.32329E-15
6.87293E-09 6.58664E-15
7.23942E-09 5.94010E-15
7.61544E-09 5.37081E-15
1.18991E-08 2.20674E-15
1.71347E-08 1.06553E-15
2.33223E-08 5.75480E-16
3.04617E-08 3.37437E-16
3.85531E-08 2.10695E-16
4.75965E-08 1.38245E-16
5.75917E-08 9.44264E-17
6.85389E-08 6.66732E-17
8.04380E-08 4.84074E-17
9.32891E-08 3.59900E-17
1.07092E-07 2.73108E-17
1.21847E-07 2.10973E-17
1.37554E-07 1.65545E-17
1.54213E-07 1.31712E-17
1.71823E-07 1.06097E-17
1.90386E-07 8.64177E-18
2.09900E-07 7.10966E-18
2.30367E-07 5.90254E-18
2.51785E-07 4.94107E-18
2.74156E-07 4.16764E-18
2.97478E-07 3.53979E-18
3.21752E-07 3.02584E-18
3.46978E-07 2.60188E-18
3.73156E-07 2.24964E-18
4.00286E-07 1.95504E-18
4.28368E-07 1.70712E-18
4.57402E-07 1.49728E-18
4.87388E-07 1.31872E-18
5.18325E-07 1.16600E-18
5.50215E-07 1.03476E-18
5.83057E-07 9.21481E-19
6.16850E-07 8.23286E-19
6.51596E-07 7.37829E-19
6.87293E-07 6.63178E-19
7.23942E-07 5.97734E-19
7.61543E-07 5.40167E-19
1.18991E-06 2.21261E-19
1.71347E-06 1.06708E-19
2.33223E-06 5.76003E-20
3.04617E-06 3.37654E-20
3.85531E-06 2.10804E-20
4.75964E-06 1.38313E-20
5.75916E-06 9.44731E-21
6.85388E-06 6.67067E-21
8.04378E-06 4.84324E-21
9.32888E-06 3.60092E-21
1.07092E-05 2.73260E-21
1.21846E-05 2.11094E-21
1.37553E-05 1.65644E-21
1.54212E-05 1.31795E-21
1.71822E-05 1.06167E-21
1.90385E-05 8.65048E-22
2.09899E-05 7.11672E-22
2.30365E-05 5.90769E-22
2.51783E-05 4.94465E-22
2.74153E-05 4.17022E-22
2.97475E-05 3.54191E-22
3.21749E-05 3.02785E-22
3.46974E-05 2.60392E-22
3.73152E-05 2.25170E-22
4.00281E-05 1.95703E-22
4.28362E-05 1.70895E-22
4.57395E-05 1.49889E-22
4.87380E-05 1.32009E-22
5.18317E-05 1.16716E-22
5.50205E-05 1.03578E-22
5.83045E-05 9.22404E-23
6.16838E-05 8.24156E-23
6.51582E-05 7.38665E-23
6.87277E-05 6.63980E-23
7.23925E-05 5.98491E-23
7.61524E-05 5.31800E-23
9.21439E-05 3.61932E-23
1.09658E-04 2.54596E-23
1.28695E-04 1.84070E-23
1.49255E-04 1.36234E-23
1.71338E-04 1.02881E-23
1.94942E-04 7.90575E-24
2.20070E-04 6.16923E-24
2.46720E-04 4.87934E-24
2.74892E-04 3.90595E-24
3.04586E-04 3.16049E-24
3.35803E-04 2.58211E-24
3.68542E-04 2.12813E-24
4.02802E-04 1.76786E-24
4.38585E-04 1.47926E-24
4.75889E-04 1.24596E-24
5.14715E-04 1.05583E-24
5.55063E-04 8.99714E-25
5.96931E-04 7.70624E-25
6.40321E-04 6.63215E-25
6.85233E-04 5.73290E-25
7.31665E-04 4.97597E-25
7.79618E-04 4.33548E-25
8.29092E-04 3.79088E-25
8.80086E-04 3.32576E-25
9.32601E-04 2.92677E-25
9.86636E-04 2.58319E-25
1.04219E-03 2.28618E-25
1.09927E-03 2.02854E-25
1.15786E-03 1.80430E-25
1.21797E-03 1.60850E-25
1.27961E-03 1.43704E-25
1.34276E-03 1.28646E-25
1.40743E-03 1.15388E-25
1.47362E-03 1.03683E-25
1.54133E-03 9.33255E-26
1.61056E-03 8.41395E-26
1.68131E-03 7.59741E-26
1.75357E-03 6.87015E-26
1.82735E-03 6.22110E-26
1.90265E-03 5.64077E-26
1.97947E-03 5.12096E-26
2.05780E-03 4.65455E-26
2.13765E-03 4.23540E-26
2.21902E-03 3.85810E-26
2.30190E-03 3.51800E-26
2.38630E-03 3.21098E-26
2.47222E-03 2.93344E-26
2.55965E-03 2.68225E-26
2.64859E-03 2.45460E-26
2.73905E-03 2.24805E-26
2.83103E-03 2.06044E-26
2.92452E-03 1.88983E-26
3.01952E-03 1.73453E-26
3.11604E-03 1.59303E-26
3.21407E-03 1.46397E-26
3.31362E-03 1.34615E-26
3.41468E-03 1.23850E-26
3.51725E-03 1.14006E-26
3.62133E-03 1.04997E-26
3.72692E-03 9.67465E-27
3.83403E-03 8.91839E-27
3.94265E-03 8.22477E-27
4.05278E-03 7.58814E-27
4.16442E-03 7.00346E-27
4.27757E-03 6.46617E-27
4.39223E-03 5.97211E-27
4.50840E-03 5.51757E-27
4.62608E-03 5.09916E-27
4.74527E-03 4.71380E-27
4.86597E-03 4.35872E-27
4.98817E-03 4.03138E-27
5.11188E-03 3.72948E-27
5.23711E-03 3.45093E-27
5.36383E-03 3.19381E-27
5.49207E-03 2.95639E-27
5.62181E-03 2.73707E-27
5.75306E-03 2.53441E-27
5.88581E-03 2.34708E-27
6.02007E-03 2.17387E-27
6.15583E-03 2.01366E-27
6.29310E-03 1.86544E-27
6.43187E-03 1.72828E-27
6.57214E-03 1.60132E-27
6.71392E-03 1.48377E-27
6.85720E-03 1.37492E-27
7.00198E-03 1.27409E-27
7.14827E-03 1.18069E-27
7.29605E-03 1.09415E-27
7.44534E-03 1.01395E-27
7.59612E-03 9.39614E-28
7.97965E-03 7.76662E-28
8.37255E-03 6.41768E-28
8.77480E-03 5.30048E-28
9.18641E-03 4.37491E-28
9.60736E-03 3.60802E-28
1.00376E-02 2.97263E-28
1.04773E-02 2.44632E-28
1.09262E-02 2.01053E-28
1.13844E-02 1.64989E-28
1.18520E-02 1.35167E-28
1.23288E-02 1.10527E-28
1.28150E-02 9.01918E-29
1.33104E-02 7.34294E-29
1.38150E-02 5.96321E-29
1.43290E-02 4.82936E-29
1.48521E-02 3.89927E-29
1.53845E-02 3.13787E-29
1.59262E-02 2.51597E-29
1.64770E-02 2.00928E-29
1.70371E-02 1.59759E-29
1.76063E-02 1.26412E-29
1.81848E-02 9.94922E-30
1.87724E-02 7.78421E-30
1.93692E-02 6.05028E-30
1.99751E-02 4.66803E-30
2.05901E-02 3.57186E-30
2.12143E-02 2.70763E-30
2.18476E-02 2.03077E-30
2.24900E-02 1.50466E-30
2.31415E-02 1.09926E-30
2.38021E-02 7.90047E-31
2.44717E-02 5.57016E-31
2.51504E-02 3.83925E-31
2.58382E-02 2.57632E-31
2.65349E-02 1.67550E-31
2.72407E-02 1.05191E-31
2.79555E-02 6.37863E-32
2.86793E-02 3.79733E-32
2.94120E-02 2.35338E-32
3.01537E-02 1.71776E-32
3.09043E-02 1.63637E-32
3.16639E-02 1.91538E-32
3.24324E-02 2.40905E-32
3.32098E-02 3.00985E-32
3.39961E-02 3.64036E-32
3.47912E-02 4.24666E-32
3.55952E-02 4.79302E-32
3.64081E-02 5.25755E-32
3.72297E-02 5.62879E-32
3.80602E-02 5.90292E-32
3.88995E-02 6.08162E-32
3.97476E-02 6.17035E-32
4.06044E-02 6.17702E-32
4.14700E-02 6.11100E-32
4.23443E-02 5.98234E-32
4.32273E-02 5.80118E-32
4.41190E-02 5.57744E-32
4.50194E-02 5.32041E-32
4.59284E-02 5.03869E-32
4.68461E-02 4.73999E-32
4.87074E-02 4.11810E-32
5.06030E-02 3.49865E-32
5.25328E-02 2.91228E-32
5.44967E-02 2.37831E-32
5.64946E-02 1.90709E-32
5.85262E-02 1.50214E-32
6.05914E-02 1.16225E-32
6.26901E-02 8.83019E-33
6.48222E-02 6.58242E-33
6.69873E-02 4.80839E-33
6.91854E-02 3.43570E-33
7.14163E-02 2.39504E-33
7.36799E-02 1.62301E-33
7.59760E-02 1.06373E-33
7.83043E-02 6.69379E-34
8.06647E-02 4.00067E-34
8.30571E-02 2.23320E-34
8.54812E-02 1.13289E-34
8.79369E-02 4.98635E-35
9.04240E-02 1.77622E-35
9.29422E-02 5.66407E-36
9.54915E-02 5.42090E-36
9.80716E-02 1.13660E-35
1.00682E-01 1.97266E-35
1.03323E-01 2.81381E-35
1.05995E-01 3.52510E-35
1.08696E-01 4.04238E-35
1.11427E-01 4.34824E-35
1.14188E-01 4.45473E-35
1.16978E-01 4.39004E-35
1.19797E-01 4.18984E-35
1.22645E-01 3.89110E-35
1.25522E-01 3.52835E-35
1.28428E-01 3.13163E-35
1.31361E-01 2.72543E-35
1.34323E-01 2.32874E-35
1.37313E-01 1.95520E-35
1.40330E-01 1.61385E-35
1.43375E-01 1.30975E-35
1.46447E-01 1.04501E-35
1.49545E-01 8.19281E-36
1.52671E-01 6.30642E-36
1.55823E-01 4.75985E-36
1.59001E-01 3.51641E-36
1.62205E-01 2.53631E-36
1.65435E-01 1.78009E-36
1.68690E-01 1.20977E-36
1.71970E-01 7.90784E-37
1.75276E-01 4.92185E-37
1.78606E-01 2.87194E-37
1.81961E-01 1.53216E-37
1.85340E-01 7.15378E-38
1.88743E-01 2.71147E-38
1.92169E-01 8.07715E-39
1.95619E-01 5.34083E-39
1.99092E-01 1.21464E-38
2.02589E-01 2.36304E-38
2.06107E-01 3.64734E-38
2.09649E-01 4.84927E-38
2.13212E-01 5.84584E-38
2.16797E-01 6.57280E-38
2.20404E-01 7.01205E-38
2.24032E-01 7.18414E-38
2.27680E-01 7.11421E-38
2.31350E-01 6.85029E-38
2.35040E-01 6.43387E-38
2.38751E-01 5.91422E-38
2.42481E-01 5.32736E-38
2.46231E-01 4.71266E-38
2.50000E-01 4.09670E-38
2.53788E-01 3.50255E-38
2.57595E-01 2.94674E-38
2.61421E-01 2.43891E-38
2.65264E-01 1.98575E-38
2.69126E-01 1.58932E-38
2.73005E-01 1.24885E-38
2.76901E-01 9.61765E-39
2.80814E-01 7.24288E-39
2.84744E-01 5.32054E-39
2.88691E-01 3.79221E-39
2.92653E-01 2.61227E-39
2.96632E-01 1.71708E-39
3.00625E-01 1.06856E-39
3.04634E-01 6.15614E-40
3.08658E-01 1.00000E-45
3.12697E-01 1.00000E-45
3.16749E-01 1.00000E-45
3.20816E-01 1.00000E-45
3.24896E-01 1.00000E-45
3.28990E-01 1.00000E-45
3.33097E-01 1.00000E-45
3.37216E-01 1.00000E-45
3.41348E-01 1.00000E-45
3.45492E-01 1.00000E-45
3.49647E-01 1.00000E-45
3.53814E-01 1.00000E-45
3.57992E-01 1.00000E-45
3.62181E-01 1.00000E-45
3.66381E-01 1.00000E-45
3.70590E-01 1.00000E-45
3.74810E-01 1.00000E-45
3.79039E-01 1.00000E-45
3.83277E-01 1.00000E-45
3.87524E-01 1.00000E-45
3.91780E-01 1.00000E-45
3.96044E-01 1.00000E-45
4.00316E-01 1.00000E-45
4.04596E-01 1.00000E-45
4.08882E-01 1.00000E-45
4.13176E-01 1.00000E-45
4.17476E-01 1.00000E-45
4.21783E-01 1.00000E-45
4.26095E-01 1.00000E-45
4.30413E-01 1.00000E-45
4.34737E-01 1.00000E-45
4.39065E-01 1.00000E-45
4.43398E-01 1.00000E-45
4.47736E-01 1.00000E-45
4.52077E-01 1.00000E-45
4.56422E-01 1.00000E-45
4.60770E-01 1.00000E-45
4.65122E-01 1.00000E-45
4.69476E-01 1.00000E-45
4.73832E-01 1.00000E-45
4.78190E-01 1.00000E-45
4.82550E-01 1.00000E-45
4.86912E-01 1.00000E-45
4.91274E-01 1.00000E-45
4.95637E-01 1.00000E-45
5.00000E-01 1.00000E-45
5.04363E-01 1.00000E-45
5.08726E-01 1.00000E-45
5.13088E-01 1.00000E-45
5.17450E-01 1.00000E-45
5.21810E-01 1.00000E-45
5.26168E-01 1.00000E-45
5.30524E-01 1.00000E-45
5.34878E-01 1.00000E-45
5.39230E-01 1.00000E-45
5.43578E-01 1.00000E-45
5.47923E-01 1.00000E-45
5.52264E-01 1.00000E-45
5.56602E-01 1.00000E-45
5.60935E-01 1.00000E-45
5.65263E-01 1.00000E-45
5.69587E-01 1.00000E-45
5.73905E-01 1.00000E-45
5.78217E-01 1.00000E-45
5.82524E-01 1.00000E-45
5.86824E-01 1.00000E-45
5.91118E-01 1.00000E-45
5.95404E-01 1.00000E-45
5.99684E-01 1.00000E-45
6.03956E-01 1.00000E-45
6.08220E-01 1.00000E-45
6.12476E-01 1.00000E-45
6.16723E-01 1.00000E-45
6.20961E-01 1.00000E-45
6.25190E-01 1.00000E-45
6.29410E-01 1.00000E-45
6.33619E-01 1.00000E-45
6.37819E-01 1.00000E-45
6.42008E-01 1.00000E-45
6.46186E-01 1.00000E-45
6.50353E-01 1.00000E-45
6.54508E-01 1.00000E-45
6.58652E-01 1.00000E-45
6.62784E-01 1.00000E-45
6.66903E-01 1.00000E-45
6.71010E-01 1.00000E-45
6.75104E-01 1.00000E-45
6.79184E-01 1.00000E-45
6.83251E-01 1.00000E-45
6.87303E-01 1.00000E-45
6.91342E-01 1.00000E-45
6.95366E-01 1.00000E-45
6.99375E-01 1.00000E-45
7.03368E-01 1.00000E-45
7.07347E-01 1.00000E-45
7.11309E-01 1.00000E-45
7.15256E-01 1.00000E-45
7.19186E-01 1.00000E-45
7.23099E-01 1.00000E-45
7.26995E-01 1.00000E-45
7.30874E-01 1.00000E-45
7.34736E-01 1.00000E-45
7.38579E-01 1.00000E-45
7.42405E-01 1.00000E-45
7.46212E-01 1.00000E-45
7.50000E-01 1.00000E-45
7.53769E-01 1.00000E-45
7.57519E-01 1.00000E-45
7.61249E-01 1.00000E-45
7.64960E-01 1.00000E-45
7.68650E-01 1.00000E-45
7.72320E-01 1.00000E-45
7.75968E-01 1.00000E-45
7.79596E-01 1.00000E-45
7.83203E-01 1.00000E-45
7.86788E-01 1.00000E-45
7.90351E-01 1.00000E-45
7.93893E-01 1.00000E-45
7.97411E-01 1.00000E-45
8.00908E-01 1.00000E-45
8.04381E-01 1.00000E-45
8.07831E-01 1.00000E-45
8.11257E-01 1.00000E-45
8.14660E-01 1.00000E-45
8.18039E-01 1.00000E-45
8.21394E-01 1.00000E-45
8.24724E-01 1.00000E-45
8.28030E-01 1.00000E-45
8.31310E-01 1.00000E-45
8.34565E-01 1.00000E-45
8.37795E-01 1.00000E-45
8.40999E-01 1.00000E-45
8.44177E-01 1.00000E-45
8.47329E-01 1.00000E-45
8.50455E-01 1.00000E-45
8.53553E-01 1.00000E-45
8.56625E-01 1.00000E-45
8.59670E-01 1.00000E-45
8.62687E-01 1.00000E-45
8.65677E-01 1.00000E-45
8.68639E-01 1.00000E-45
8.71572E-01 1.00000E-45
8.74478E-01 1.00000E-45
8.77355E-01 1.00000E-45
8.80203E-01 1.00000E-45
8.83022E-01 1.00000E-45
8.85812E-01 1.00000E-45
8.88573E-01 1.00000E-45
8.91304E-01 1.00000E-45
8.94005E-01 1.00000E-45
8.96677E-01 1.00000E-45
8.99318E-01 1.00000E-45
9.01928E-01 1.00000E-45
9.04508E-01 1.00000E-45
9.07058E-01 1.00000E-45
9.09576E-01 1.00000E-45
9.12063E-01 1.00000E-45
9.14519E-01 1.00000E-45
9.16943E-01 1.00000E-45
9.19335E-01 1.00000E-45
9.21696E-01 1.00000E-45
9.24024E-01 1.00000E-45
9.26320E-01 1.00000E-45
9.28584E-01 1.00000E-45
9.30815E-01 1.00000E-45
9.33013E-01 1.00000E-45
9.35178E-01 1.00000E-45
9.37310E-01 1.00000E-45
9.39409E-01 1.00000E-45
9.41474E-01 1.00000E-45
9.43505E-01 1.00000E-45
9.45503E-01 1.00000E-45
9.47467E-01 1.00000E-45
9.49397E-01 1.00000E-45
9.51293E-01 1.00000E-45
9.53154E-01 1.00000E-45
9.54981E-01 1.00000E-45
9.56773E-01 1.00000E-45
9.58530E-01 1.00000E-45
9.60252E-01 1.00000E-45
9.61940E-01 1.00000E-45
9.63592E-01 1.00000E-45
9.65209E-01 1.00000E-45
9.66790E-01 1.00000E-45
9.68336E-01 1.00000E-45
9.69846E-01 1.00000E-45
9.71321E-01 1.00000E-45
9.72759E-01 1.00000E-45
9.74162E-01 1.00000E-45
9.75528E-01 1.00000E-45
9.76858E-01 1.00000E-45
9.78152E-01 1.00000E-45
9.79410E-01 1.00000E-45
9.80631E-01 1.00000E-45
9.81815E-01 1.00000E-45
9.82963E-01 1.00000E-45
9.84074E-01 1.00000E-45
9.85148E-01 1.00000E-45
9.86185E-01 1.00000E-45
9.87185E-01 1.00000E-45
9.88148E-01 1.00000E-45
9.89074E-01 1.00000E-45
9.89962E-01 1.00000E-45
9.90814E-01 1.00000E-45
9.91627E-01 1.00000E-45
9.92404E-01 1.00000E-45
9.93143E-01 1.00000E-45
9.93844E-01 1.00000E-45
9.94508E-01 1.00000E-45
9.95134E-01 1.00000E-45
9.95722E-01 1.00000E-45
9.96273E-01 1.00000E-45
9.96786E-01 1.00000E-45
9.97261E-01 1.00000E-45
9.97698E-01 1.00000E-45
9.98097E-01 1.00000E-45
9.98459E-01 1.00000E-45
9.98782E-01 1.00000E-45
9.99067E-01 1.00000E-45
9.99315E-01 1.00000E-45
9.99524E-01 1.00000E-45
9.99695E-01 1.00000E-45
9.99829E-01 1.00000E-45
9.99924E-01 1.00000E-45
9.99981E-01 1.00000E-45
1.00000E+00 1.00000E-45
