 #
 # Subroutine ELSEPA. Elastic scattering of electrons and positrons
 #                    by neutral atoms and positive ions
 #
 # Projectile: electron
 # Kinetic energy = 9.00000E+07 eV = 3.30744E+06 a.u.
 #
 # WARNING: High-energy factorization with free-atom DF screening.
 #          Absorption, polarization and exchange corrections are
 #          switched off.
 #          Phase shifts are calculated for the bare nucleus.
 #          Scattering amplitudes are not evaluated.
 #
 # Element:  N,  Z =   7,  atomic weight = 1.40067E+01 g/mol
 #
 # Nuclear model: Fermi distribution
 #                Average radius = 2.57926E-13 cm
 #                Skin thickness = 5.46000E-14 cm
 #
 # Number of electrons =  7
 #
 # Total elastic cross section = 2.60284E-19 cm**2 = 9.29491E-03 a0**2
 # 1st transport cross section = 1.33126E-26 cm**2 = 4.75402E-10 a0**2
 # 2nd transport cross section = 3.93134E-26 cm**2 = 1.40391E-09 a0**2
 #
 #
 # Differential cross section:                       MU=(1-COS(THETA))/2
 #
 #  THETA        MU          DCS          DCS        Sherman      error
 #  (deg)                 (cm**2/sr)   (a0**2/sr)    function
 #----------------------------------------------------------------------
0.00000E+00 1.52731E-11
7.61557E-13 1.52575E-11
1.18994E-12 1.52487E-11
1.71346E-12 1.52381E-11
2.33225E-12 1.52255E-11
3.04617E-12 1.52110E-11
3.85530E-12 1.51946E-11
4.75964E-12 1.51763E-11
5.75917E-12 1.51561E-11
6.85391E-12 1.51341E-11
8.04379E-12 1.51101E-11
9.32893E-12 1.50844E-11
1.07092E-11 1.50568E-11
1.21847E-11 1.50274E-11
1.37554E-11 1.49961E-11
1.54213E-11 1.49631E-11
1.71823E-11 1.49283E-11
1.90386E-11 1.48918E-11
2.09900E-11 1.48535E-11
2.30367E-11 1.48136E-11
2.51785E-11 1.47718E-11
2.74156E-11 1.47285E-11
2.97478E-11 1.46835E-11
3.21752E-11 1.46368E-11
3.46979E-11 1.45886E-11
3.73157E-11 1.45388E-11
4.00286E-11 1.44874E-11
4.28368E-11 1.44346E-11
4.57402E-11 1.43801E-11
4.87388E-11 1.43242E-11
5.18325E-11 1.42671E-11
5.50215E-11 1.42082E-11
5.83057E-11 1.41481E-11
6.16850E-11 1.40867E-11
6.51595E-11 1.40238E-11
6.87293E-11 1.39598E-11
7.23943E-11 1.38944E-11
7.61544E-11 1.38277E-11
1.18991E-10 1.31003E-11
1.71347E-10 1.22836E-11
2.33223E-10 1.13745E-11
3.04617E-10 1.04960E-11
3.85531E-10 9.57806E-12
4.75965E-10 8.69200E-12
5.75917E-10 7.87403E-12
6.85389E-10 7.05196E-12
8.04380E-10 6.31468E-12
9.32891E-10 5.64166E-12
1.07092E-09 5.00978E-12
1.21847E-09 4.45441E-12
1.37554E-09 3.95000E-12
1.54213E-09 3.49657E-12
1.71823E-09 3.10101E-12
1.90386E-09 2.74312E-12
2.09900E-09 2.42911E-12
2.30367E-09 2.15555E-12
2.51785E-09 1.90887E-12
2.74156E-09 1.69480E-12
2.97478E-09 1.50687E-12
3.21752E-09 1.33997E-12
3.46978E-09 1.19456E-12
3.73156E-09 1.06612E-12
4.00286E-09 9.52857E-13
4.28368E-09 8.53634E-13
4.57402E-09 7.65497E-13
4.87388E-09 6.87930E-13
5.18326E-09 6.19645E-13
5.50215E-09 5.58826E-13
5.83057E-09 5.05127E-13
6.16850E-09 4.57476E-13
6.51596E-09 4.14989E-13
6.87293E-09 3.77235E-13
7.23942E-09 3.43513E-13
7.61544E-09 3.13362E-13
1.18991E-08 1.37489E-13
1.71347E-08 6.98197E-14
2.33223E-08 3.95660E-14
3.04617E-08 2.43003E-14
3.85531E-08 1.58441E-14
4.75965E-08 1.08122E-14
5.75917E-08 7.64133E-15
6.85389E-08 5.55876E-15
8.04380E-08 4.13868E-15
9.32891E-08 3.14375E-15
1.07092E-07 2.42935E-15
1.21847E-07 1.90535E-15
1.37554E-07 1.51459E-15
1.54213E-07 1.21810E-15
1.71823E-07 9.90275E-16
1.90386E-07 8.12887E-16
2.09900E-07 6.73180E-16
2.30367E-07 5.62057E-16
2.51785E-07 4.72745E-16
2.74156E-07 4.00393E-16
2.97478E-07 3.41277E-16
3.21752E-07 2.92614E-16
3.46978E-07 2.52282E-16
3.73156E-07 2.18623E-16
4.00286E-07 1.90372E-16
4.28368E-07 1.66519E-16
4.57402E-07 1.46273E-16
4.87388E-07 1.29001E-16
5.18325E-07 1.14195E-16
5.50215E-07 1.01447E-16
5.83057E-07 9.04233E-17
6.16850E-07 8.08532E-17
6.51596E-07 7.25131E-17
6.87293E-07 6.52182E-17
7.23942E-07 5.88163E-17
7.61543E-07 5.31790E-17
1.18991E-06 2.18495E-17
1.71347E-06 1.05502E-17
2.33223E-06 5.69816E-18
3.04617E-06 3.34124E-18
3.85531E-06 2.08633E-18
4.75964E-06 1.36896E-18
5.75916E-06 9.35077E-19
6.85388E-06 6.60266E-19
8.04378E-06 4.79395E-19
9.32888E-06 3.56432E-19
1.07092E-05 2.70486E-19
1.21846E-05 2.08953E-19
1.37553E-05 1.63965E-19
1.54212E-05 1.30460E-19
1.71822E-05 1.05092E-19
1.90385E-05 8.56295E-20
2.09899E-05 7.04473E-20
2.30365E-05 5.84795E-20
2.51783E-05 4.89468E-20
2.74153E-05 4.12809E-20
2.97475E-05 3.50613E-20
3.21749E-05 2.99727E-20
3.46974E-05 2.57763E-20
3.73152E-05 2.22897E-20
4.00281E-05 1.93728E-20
4.28362E-05 1.69170E-20
4.57395E-05 1.48376E-20
4.87380E-05 1.30677E-20
5.18317E-05 1.15539E-20
5.50205E-05 1.02533E-20
5.83045E-05 9.13099E-21
6.16838E-05 8.15843E-21
6.51582E-05 7.31215E-21
6.87277E-05 6.57283E-21
7.23925E-05 5.92455E-21
7.61524E-05 5.35320E-21
9.21439E-05 3.65627E-21
1.09658E-04 2.58200E-21
1.28695E-04 1.87470E-21
1.49255E-04 1.39389E-21
1.71338E-04 1.05784E-21
1.94942E-04 8.17189E-22
2.20070E-04 6.41287E-22
2.46720E-04 5.10241E-22
2.74892E-04 4.11039E-22
3.04586E-04 3.34813E-22
3.35803E-04 2.75463E-22
3.68542E-04 2.28706E-22
4.02802E-04 1.91456E-22
4.38585E-04 1.61494E-22
4.75889E-04 1.37169E-22
5.14715E-04 1.17256E-22
5.55063E-04 1.00829E-22
5.96931E-04 8.71796E-23
6.40321E-04 7.57645E-23
6.85233E-04 6.61570E-23
7.31665E-04 5.80255E-23
7.79618E-04 5.11054E-23
8.29092E-04 4.51866E-23
8.80086E-04 4.01005E-23
9.32601E-04 3.57097E-23
9.86636E-04 3.19039E-23
1.04219E-03 2.85916E-23
1.09927E-03 2.56981E-23
1.15786E-03 2.31614E-23
1.21797E-03 2.09300E-23
1.27961E-03 1.89609E-23
1.34276E-03 1.72178E-23
1.40743E-03 1.56705E-23
1.47362E-03 1.42930E-23
1.54133E-03 1.30635E-23
1.61056E-03 1.19634E-23
1.68131E-03 1.09766E-23
1.75357E-03 1.00894E-23
1.82735E-03 9.28994E-24
1.90265E-03 8.56809E-24
1.97947E-03 7.91496E-24
2.05780E-03 7.32281E-24
2.13765E-03 6.78500E-24
2.21902E-03 6.29559E-24
2.30190E-03 5.84949E-24
2.38630E-03 5.44217E-24
2.47222E-03 5.06965E-24
2.55965E-03 4.72843E-24
2.64859E-03 4.41540E-24
2.73905E-03 4.12782E-24
2.83103E-03 3.86324E-24
2.92452E-03 3.61949E-24
3.01952E-03 3.39464E-24
3.11604E-03 3.18695E-24
3.21407E-03 2.99489E-24
3.31362E-03 2.81704E-24
3.41468E-03 2.65219E-24
3.51725E-03 2.49919E-24
3.62133E-03 2.35705E-24
3.72692E-03 2.22485E-24
3.83403E-03 2.10177E-24
3.94265E-03 1.98707E-24
4.05278E-03 1.88007E-24
4.16442E-03 1.78016E-24
4.27757E-03 1.68679E-24
4.39223E-03 1.59944E-24
4.50840E-03 1.51766E-24
4.62608E-03 1.44102E-24
4.74527E-03 1.36915E-24
4.86597E-03 1.30169E-24
4.98817E-03 1.23833E-24
5.11188E-03 1.17876E-24
5.23711E-03 1.12272E-24
5.36383E-03 1.06996E-24
5.49207E-03 1.02025E-24
5.62181E-03 9.73391E-25
5.75306E-03 9.29179E-25
5.88581E-03 8.87440E-25
6.02007E-03 8.48011E-25
6.15583E-03 8.10739E-25
6.29310E-03 7.75485E-25
6.43187E-03 7.42118E-25
6.57214E-03 7.10520E-25
6.71392E-03 6.80580E-25
6.85720E-03 6.52192E-25
7.00198E-03 6.25264E-25
7.14827E-03 5.99705E-25
7.29605E-03 5.75433E-25
7.44534E-03 5.52370E-25
7.59612E-03 5.30446E-25
7.97965E-03 4.80191E-25
8.37255E-03 4.35720E-25
8.77480E-03 3.96255E-25
9.18641E-03 3.61135E-25
9.60736E-03 3.29800E-25
1.00376E-02 3.01771E-25
1.04773E-02 2.76639E-25
1.09262E-02 2.54053E-25
1.13844E-02 2.33710E-25
1.18520E-02 2.15348E-25
1.23288E-02 1.98742E-25
1.28150E-02 1.83693E-25
1.33104E-02 1.70031E-25
1.38150E-02 1.57605E-25
1.43290E-02 1.46283E-25
1.48521E-02 1.35951E-25
1.53845E-02 1.26507E-25
1.59262E-02 1.17860E-25
1.64770E-02 1.09932E-25
1.70371E-02 1.02653E-25
1.76063E-02 9.59592E-26
1.81848E-02 8.97962E-26
1.87724E-02 8.41143E-26
1.93692E-02 7.88692E-26
1.99751E-02 7.40215E-26
2.05901E-02 6.95356E-26
2.12143E-02 6.53799E-26
2.18476E-02 6.15257E-26
2.24900E-02 5.79473E-26
2.31415E-02 5.46214E-26
2.38021E-02 5.15271E-26
2.44717E-02 4.86454E-26
2.51504E-02 4.59590E-26
2.58382E-02 4.34525E-26
2.65349E-02 4.11116E-26
2.72407E-02 3.89234E-26
2.79555E-02 3.68763E-26
2.86793E-02 3.49594E-26
2.94120E-02 3.31632E-26
3.01537E-02 3.14786E-26
3.09043E-02 2.98974E-26
3.16639E-02 2.84122E-26
3.24324E-02 2.70162E-26
3.32098E-02 2.57030E-26
3.39961E-02 2.44669E-26
3.47912E-02 2.33025E-26
3.55952E-02 2.22049E-26
3.64081E-02 2.11697E-26
3.72297E-02 2.01926E-26
3.80602E-02 1.92699E-26
3.88995E-02 1.83979E-26
3.97476E-02 1.75734E-26
4.06044E-02 1.67934E-26
4.14700E-02 1.60550E-26
4.23443E-02 1.53556E-26
4.32273E-02 1.46928E-26
4.41190E-02 1.40644E-26
4.50194E-02 1.34682E-26
4.59284E-02 1.29023E-26
4.68461E-02 1.23649E-26
4.87074E-02 1.13691E-26
5.06030E-02 1.04685E-26
5.25328E-02 9.65248E-27
5.44967E-02 8.91187E-27
5.64946E-02 8.23855E-27
5.85262E-02 7.62542E-27
6.05914E-02 7.06621E-27
6.26901E-02 6.55542E-27
6.48222E-02 6.08818E-27
6.69873E-02 5.66018E-27
6.91854E-02 5.26760E-27
7.14163E-02 4.90703E-27
7.36799E-02 4.57545E-27
7.59760E-02 4.27017E-27
7.83043E-02 3.98875E-27
8.06647E-02 3.72905E-27
8.30571E-02 3.48912E-27
8.54812E-02 3.26722E-27
8.79369E-02 3.06178E-27
9.04240E-02 2.87140E-27
9.29422E-02 2.69480E-27
9.54915E-02 2.53082E-27
9.80716E-02 2.37844E-27
1.00682E-01 2.23669E-27
1.03323E-01 2.10473E-27
1.05995E-01 1.98178E-27
1.08696E-01 1.86713E-27
1.11427E-01 1.76014E-27
1.14188E-01 1.66021E-27
1.16978E-01 1.56682E-27
1.19797E-01 1.47947E-27
1.22645E-01 1.39771E-27
1.25522E-01 1.32113E-27
1.28428E-01 1.24937E-27
1.31361E-01 1.18206E-27
1.34323E-01 1.11890E-27
1.37313E-01 1.05959E-27
1.40330E-01 1.00387E-27
1.43375E-01 9.51482E-28
1.46447E-01 9.02205E-28
1.49545E-01 8.55828E-28
1.52671E-01 8.12155E-28
1.55823E-01 7.71009E-28
1.59001E-01 7.32222E-28
1.62205E-01 6.95641E-28
1.65435E-01 6.61123E-28
1.68690E-01 6.28538E-28
1.71970E-01 5.97762E-28
1.75276E-01 5.68681E-28
1.78606E-01 5.41190E-28
1.81961E-01 5.15191E-28
1.85340E-01 4.90593E-28
1.88743E-01 4.67309E-28
1.92169E-01 4.45262E-28
1.95619E-01 4.24377E-28
1.99092E-01 4.04585E-28
2.02589E-01 3.85823E-28
2.06107E-01 3.68029E-28
2.09649E-01 3.51148E-28
2.13212E-01 3.35127E-28
2.16797E-01 3.19917E-28
2.20404E-01 3.05473E-28
2.24032E-01 2.91751E-28
2.27680E-01 2.78711E-28
2.31350E-01 2.66314E-28
2.35040E-01 2.54527E-28
2.38751E-01 2.43314E-28
2.42481E-01 2.32646E-28
2.46231E-01 2.22492E-28
2.50000E-01 2.12826E-28
2.53788E-01 2.03620E-28
2.57595E-01 1.94852E-28
2.61421E-01 1.86497E-28
2.65264E-01 1.78534E-28
2.69126E-01 1.70944E-28
2.73005E-01 1.63705E-28
2.76901E-01 1.56802E-28
2.80814E-01 1.50216E-28
2.84744E-01 1.43931E-28
2.88691E-01 1.37932E-28
2.92653E-01 1.32206E-28
2.96632E-01 1.26737E-28
3.00625E-01 1.21515E-28
3.04634E-01 1.16525E-28
3.08658E-01 1.11758E-28
3.12697E-01 1.07202E-28
3.16749E-01 1.02846E-28
3.20816E-01 9.86820E-29
3.24896E-01 9.47000E-29
3.28990E-01 9.08912E-29
3.33097E-01 8.72476E-29
3.37216E-01 8.37613E-29
3.41348E-01 8.04250E-29
3.45492E-01 7.72315E-29
3.49647E-01 7.41743E-29
3.53814E-01 7.12470E-29
3.57992E-01 6.84436E-29
3.62181E-01 6.57585E-29
3.66381E-01 6.31861E-29
3.70590E-01 6.07215E-29
3.74810E-01 5.83597E-29
3.79039E-01 5.60960E-29
3.83277E-01 5.39261E-29
3.87524E-01 5.18458E-29
3.91780E-01 4.98511E-29
3.96044E-01 4.79381E-29
4.00316E-01 4.61032E-29
4.04596E-01 4.43431E-29
4.08882E-01 4.26545E-29
4.13176E-01 4.10341E-29
4.17476E-01 3.94792E-29
4.21783E-01 3.79867E-29
4.26095E-01 3.65541E-29
4.30413E-01 3.51787E-29
4.34737E-01 3.38581E-29
4.39065E-01 3.25899E-29
4.43398E-01 3.13720E-29
4.47736E-01 3.02022E-29
4.52077E-01 2.90785E-29
4.56422E-01 2.79989E-29
4.60770E-01 2.69615E-29
4.65122E-01 2.59647E-29
4.69476E-01 2.50067E-29
4.73832E-01 2.40859E-29
4.78190E-01 2.32008E-29
4.82550E-01 2.23498E-29
4.86912E-01 2.15317E-29
4.91274E-01 2.07450E-29
4.95637E-01 1.99885E-29
5.00000E-01 1.92609E-29
5.04363E-01 1.85610E-29
5.08726E-01 1.78878E-29
5.13088E-01 1.72402E-29
5.17450E-01 1.66171E-29
5.21810E-01 1.60175E-29
5.26168E-01 1.54406E-29
5.30524E-01 1.48853E-29
5.34878E-01 1.43509E-29
5.39230E-01 1.38364E-29
5.43578E-01 1.33412E-29
5.47923E-01 1.28645E-29
5.52264E-01 1.24055E-29
5.56602E-01 1.19635E-29
5.60935E-01 1.15379E-29
5.65263E-01 1.11280E-29
5.69587E-01 1.07333E-29
5.73905E-01 1.03530E-29
5.78217E-01 9.98676E-30
5.82524E-01 9.63392E-30
5.86824E-01 9.29399E-30
5.91118E-01 8.96646E-30
5.95404E-01 8.65087E-30
5.99684E-01 8.34675E-30
6.03956E-01 8.05368E-30
6.08220E-01 7.77122E-30
6.12476E-01 7.49897E-30
6.16723E-01 7.23655E-30
6.20961E-01 6.98358E-30
6.25190E-01 6.73971E-30
6.29410E-01 6.50459E-30
6.33619E-01 6.27789E-30
6.37819E-01 6.05930E-30
6.42008E-01 5.84852E-30
6.46186E-01 5.64525E-30
6.50353E-01 5.44920E-30
6.54508E-01 5.26013E-30
6.58652E-01 5.07775E-30
6.62784E-01 4.90183E-30
6.66903E-01 4.73213E-30
6.71010E-01 4.56842E-30
6.75104E-01 4.41046E-30
6.79184E-01 4.25807E-30
6.83251E-01 4.11102E-30
6.87303E-01 3.96913E-30
6.91342E-01 3.83220E-30
6.95366E-01 3.70006E-30
6.99375E-01 3.57253E-30
7.03368E-01 3.44944E-30
7.07347E-01 3.33063E-30
7.11309E-01 3.21595E-30
7.15256E-01 3.10524E-30
7.19186E-01 2.99837E-30
7.23099E-01 2.89519E-30
7.26995E-01 2.79557E-30
7.30874E-01 2.69939E-30
7.34736E-01 2.60652E-30
7.38579E-01 2.51684E-30
7.42405E-01 2.43024E-30
7.46212E-01 2.34661E-30
7.50000E-01 2.26584E-30
7.53769E-01 2.18783E-30
7.57519E-01 2.11248E-30
7.61249E-01 2.03970E-30
7.64960E-01 1.96941E-30
7.68650E-01 1.90150E-30
7.72320E-01 1.83589E-30
7.75968E-01 1.77252E-30
7.79596E-01 1.71129E-30
7.83203E-01 1.65213E-30
7.86788E-01 1.59497E-30
7.90351E-01 1.53974E-30
7.93893E-01 1.48637E-30
7.97411E-01 1.43480E-30
8.00908E-01 1.38496E-30
8.04381E-01 1.33679E-30
8.07831E-01 1.29025E-30
8.11257E-01 1.24526E-30
8.14660E-01 1.20178E-30
8.18039E-01 1.15975E-30
8.21394E-01 1.11913E-30
8.24724E-01 1.07986E-30
8.28030E-01 1.04190E-30
8.31310E-01 1.00521E-30
8.34565E-01 9.69736E-31
8.37795E-01 9.35443E-31
8.40999E-01 9.02288E-31
8.44177E-01 8.70234E-31
8.47329E-01 8.39243E-31
8.50455E-01 8.09278E-31
8.53553E-01 7.80306E-31
8.56625E-01 7.52292E-31
8.59670E-01 7.25204E-31
8.62687E-01 6.99011E-31
8.65677E-01 6.73683E-31
8.68639E-01 6.49190E-31
8.71572E-01 6.25505E-31
8.74478E-01 6.02600E-31
8.77355E-01 5.80450E-31
8.80203E-01 5.59030E-31
8.83022E-01 5.38314E-31
8.85812E-01 5.18280E-31
8.88573E-01 4.98906E-31
8.91304E-01 4.80168E-31
8.94005E-01 4.62047E-31
8.96677E-01 4.44522E-31
8.99318E-01 4.27573E-31
9.01928E-01 4.11182E-31
9.04508E-01 3.95330E-31
9.07058E-01 3.79999E-31
9.09576E-01 3.65173E-31
9.12063E-01 3.50836E-31
9.14519E-01 3.36971E-31
9.16943E-01 3.23563E-31
9.19335E-01 3.10597E-31
9.21696E-01 2.98060E-31
9.24024E-01 2.85937E-31
9.26320E-01 2.74216E-31
9.28584E-01 2.62883E-31
9.30815E-01 2.51927E-31
9.33013E-01 2.41334E-31
9.35178E-01 2.31095E-31
9.37310E-01 2.21198E-31
9.39409E-01 2.11632E-31
9.41474E-01 2.02386E-31
9.43505E-01 1.93452E-31
9.45503E-01 1.84819E-31
9.47467E-01 1.76478E-31
9.49397E-01 1.68420E-31
9.51293E-01 1.60637E-31
9.53154E-01 1.53120E-31
9.54981E-01 1.45862E-31
9.56773E-01 1.38854E-31
9.58530E-01 1.32090E-31
9.60252E-01 1.25562E-31
9.61940E-01 1.19262E-31
9.63592E-01 1.13186E-31
9.65209E-01 1.07325E-31
9.66790E-01 1.01675E-31
9.68336E-01 9.62288E-32
9.69846E-01 9.09811E-32
9.71321E-01 8.59260E-32
9.72759E-01 8.10589E-32
9.74162E-01 7.63744E-32
9.75528E-01 7.18672E-32
9.76858E-01 6.75333E-32
9.78152E-01 6.33679E-32
9.79410E-01 5.93668E-32
9.80631E-01 5.55257E-32
9.81815E-01 5.18407E-32
9.82963E-01 4.83079E-32
9.84074E-01 4.49240E-32
9.85148E-01 4.16849E-32
9.86185E-01 3.85881E-32
9.87185E-01 3.56297E-32
9.88148E-01 3.28069E-32
9.89074E-01 3.01169E-32
9.89962E-01 2.75568E-32
9.90814E-01 2.51240E-32
9.91627E-01 2.28163E-32
9.92404E-01 2.06309E-32
9.93143E-01 1.85659E-32
9.93844E-01 1.66189E-32
9.94508E-01 1.47882E-32
9.95134E-01 1.30719E-32
9.95722E-01 1.14681E-32
9.96273E-01 9.97515E-33
9.96786E-01 8.59177E-33
9.97261E-01 7.31634E-33
9.97698E-01 6.14774E-33
9.98097E-01 5.08458E-33
9.98459E-01 4.12595E-33
9.98782E-01 3.27078E-33
9.99067E-01 2.51824E-33
9.99315E-01 1.86769E-33
9.99524E-01 1.31818E-33
9.99695E-01 8.69386E-34
9.99829E-01 5.20818E-34
9.99924E-01 2.72088E-34
9.99981E-01 1.22955E-34
1.00000E+00 7.33846E-35
