 #
 # Subroutine ELSEPA. Elastic scattering of electrons and positrons
 #                    by neutral atoms and positive ions
 #
 # Projectile: electron
 # Kinetic energy = 6.00000E+06 eV = 2.20496E+05 a.u.
 #
 # WARNING: High-energy factorization with free-atom DF screening.
 #          Absorption, polarization and exchange corrections are
 #          switched off.
 #          Phase shifts are calculated for the bare nucleus.
 #          Scattering amplitudes are not evaluated.
 #
 # Element:  N,  Z =   7,  atomic weight = 1.40067E+01 g/mol
 #
 # Nuclear model: Fermi distribution
 #                Average radius = 2.57926E-13 cm
 #                Skin thickness = 5.46000E-14 cm
 #
 # Number of electrons =  7
 #
 # Total elastic cross section = 2.61871E-19 cm**2 = 9.35159E-03 a0**2
 # 1st transport cross section = 1.94126E-24 cm**2 = 6.93236E-08 a0**2
 # 2nd transport cross section = 5.58145E-24 cm**2 = 1.99317E-07 a0**2
 #
 #
 # Differential cross section:                       MU=(1-COS(THETA))/2
 #
 #  THETA        MU          DCS          DCS        Sherman      error
 #  (deg)                 (cm**2/sr)   (a0**2/sr)    function
 #----------------------------------------------------------------------
0.00000E+00 7.90350E-14
7.61557E-13 7.90346E-14
1.18994E-12 7.90343E-14
1.71346E-12 7.90341E-14
2.33225E-12 7.90337E-14
3.04617E-12 7.90333E-14
3.85530E-12 7.90329E-14
4.75964E-12 7.90324E-14
5.75917E-12 7.90318E-14
6.85391E-12 7.90312E-14
8.04379E-12 7.90306E-14
9.32893E-12 7.90299E-14
1.07092E-11 7.90291E-14
1.21847E-11 7.90283E-14
1.37554E-11 7.90274E-14
1.54213E-11 7.90265E-14
1.71823E-11 7.90256E-14
1.90386E-11 7.90245E-14
2.09900E-11 7.90235E-14
2.30367E-11 7.90224E-14
2.51785E-11 7.90212E-14
2.74156E-11 7.90200E-14
2.97478E-11 7.90187E-14
3.21752E-11 7.90174E-14
3.46979E-11 7.90160E-14
3.73157E-11 7.90146E-14
4.00286E-11 7.90131E-14
4.28368E-11 7.90116E-14
4.57402E-11 7.90100E-14
4.87388E-11 7.90083E-14
5.18325E-11 7.90067E-14
5.50215E-11 7.90049E-14
5.83057E-11 7.90031E-14
6.16850E-11 7.90013E-14
6.51595E-11 7.89994E-14
6.87293E-11 7.89975E-14
7.23943E-11 7.89955E-14
7.61544E-11 7.89934E-14
1.18991E-10 7.89701E-14
1.71347E-10 7.89417E-14
2.33223E-10 7.89082E-14
3.04617E-10 7.88695E-14
3.85531E-10 7.88257E-14
4.75965E-10 7.87768E-14
5.75917E-10 7.87228E-14
6.85389E-10 7.86637E-14
8.04380E-10 7.85997E-14
9.32891E-10 7.85305E-14
1.07092E-09 7.84564E-14
1.21847E-09 7.83772E-14
1.37554E-09 7.82931E-14
1.54213E-09 7.82040E-14
1.71823E-09 7.81099E-14
1.90386E-09 7.80111E-14
2.09900E-09 7.79072E-14
2.30367E-09 7.77988E-14
2.51785E-09 7.76851E-14
2.74156E-09 7.75671E-14
2.97478E-09 7.74439E-14
3.21752E-09 7.73164E-14
3.46978E-09 7.71838E-14
3.73156E-09 7.70469E-14
4.00286E-09 7.69052E-14
4.28368E-09 7.67590E-14
4.57402E-09 7.66084E-14
4.87388E-09 7.64529E-14
5.18326E-09 7.62936E-14
5.50215E-09 7.61291E-14
5.83057E-09 7.59611E-14
6.16850E-09 7.57878E-14
6.51596E-09 7.56111E-14
6.87293E-09 7.54295E-14
7.23942E-09 7.52442E-14
7.61544E-09 7.50545E-14
1.18991E-08 7.29425E-14
1.71347E-08 7.04749E-14
2.33223E-08 6.77123E-14
3.04617E-08 6.47119E-14
3.85531E-08 6.14678E-14
4.75965E-08 5.80711E-14
5.75917E-08 5.48860E-14
6.85389E-08 5.13602E-14
8.04380E-08 4.81710E-14
9.32891E-08 4.47978E-14
1.07092E-07 4.17140E-14
1.21847E-07 3.86368E-14
1.37554E-07 3.57613E-14
1.54213E-07 3.30295E-14
1.71823E-07 3.04259E-14
1.90386E-07 2.80472E-14
2.09900E-07 2.57444E-14
2.30367E-07 2.37016E-14
2.51785E-07 2.17021E-14
2.74156E-07 1.99474E-14
2.97478E-07 1.82535E-14
3.21752E-07 1.67494E-14
3.46978E-07 1.53378E-14
3.73156E-07 1.40613E-14
4.00286E-07 1.28886E-14
4.28368E-07 1.18132E-14
4.57402E-07 1.08404E-14
4.87388E-07 9.93922E-15
5.18325E-07 9.13261E-15
5.50215E-07 8.37999E-15
5.83057E-07 7.70931E-15
6.16850E-07 7.08355E-15
6.51596E-07 6.52275E-15
6.87293E-07 6.00539E-15
7.23942E-07 5.53682E-15
7.61543E-07 5.10792E-15
1.18991E-06 2.40096E-15
1.71347E-06 1.24152E-15
2.33223E-06 7.01116E-16
3.04617E-06 4.26699E-16
3.85531E-06 2.75968E-16
4.75964E-06 1.87423E-16
5.75916E-06 1.32367E-16
6.85388E-06 9.64934E-17
8.04378E-06 7.21846E-17
9.32888E-06 5.51721E-17
1.07092E-05 4.29220E-17
1.21846E-05 3.39098E-17
1.37553E-05 2.71498E-17
1.54212E-05 2.19939E-17
1.71822E-05 1.80032E-17
1.90385E-05 1.48789E-17
2.09899E-05 1.23963E-17
2.30365E-05 1.04048E-17
2.51783E-05 8.79427E-18
2.74153E-05 7.48152E-18
2.97475E-05 6.40337E-18
3.21749E-05 5.51151E-18
3.46974E-05 4.76867E-18
3.73152E-05 4.14593E-18
4.00281E-05 3.62057E-18
4.28362E-05 3.17501E-18
4.57395E-05 2.79531E-18
4.87380E-05 2.47023E-18
5.18317E-05 2.19074E-18
5.50205E-05 1.94945E-18
5.83045E-05 1.74034E-18
6.16838E-05 1.55838E-18
6.51582E-05 1.39947E-18
6.87277E-05 1.26021E-18
7.23925E-05 1.13774E-18
7.61524E-05 1.02970E-18
9.21439E-05 7.06576E-19
1.09658E-04 5.00580E-19
1.28695E-04 3.64287E-19
1.49255E-04 2.71309E-19
1.71338E-04 2.06154E-19
1.94942E-04 1.59405E-19
2.20070E-04 1.25184E-19
2.46720E-04 9.96602E-20
2.74892E-04 8.03214E-20
3.04586E-04 6.54512E-20
3.35803E-04 5.38666E-20
3.68542E-04 4.47357E-20
4.02802E-04 3.74587E-20
4.38585E-04 3.16035E-20
4.75889E-04 2.68485E-20
5.14715E-04 2.29551E-20
5.55063E-04 1.97427E-20
5.96931E-04 1.70729E-20
6.40321E-04 1.48397E-20
6.85233E-04 1.29599E-20
7.31665E-04 1.13687E-20
7.79618E-04 1.00143E-20
8.29092E-04 8.85568E-21
8.80086E-04 7.85995E-21
9.32601E-04 7.00030E-21
9.86636E-04 6.25511E-21
1.04219E-03 5.60649E-21
1.09927E-03 5.03984E-21
1.15786E-03 4.54304E-21
1.21797E-03 4.10597E-21
1.27961E-03 3.72027E-21
1.34276E-03 3.37880E-21
1.40743E-03 3.07565E-21
1.47362E-03 2.80576E-21
1.54133E-03 2.56484E-21
1.61056E-03 2.34925E-21
1.68131E-03 2.15584E-21
1.75357E-03 1.98195E-21
1.82735E-03 1.82525E-21
1.90265E-03 1.68373E-21
1.97947E-03 1.55568E-21
2.05780E-03 1.43957E-21
2.13765E-03 1.33411E-21
2.21902E-03 1.23813E-21
2.30190E-03 1.15063E-21
2.38630E-03 1.07073E-21
2.47222E-03 9.97649E-22
2.55965E-03 9.30701E-22
2.64859E-03 8.69277E-22
2.73905E-03 8.12841E-22
2.83103E-03 7.60913E-22
2.92452E-03 7.13068E-22
3.01952E-03 6.68927E-22
3.11604E-03 6.28150E-22
3.21407E-03 5.90435E-22
3.31362E-03 5.55510E-22
3.41468E-03 5.23131E-22
3.51725E-03 4.93077E-22
3.62133E-03 4.65152E-22
3.72692E-03 4.39178E-22
3.83403E-03 4.14991E-22
3.94265E-03 3.92449E-22
4.05278E-03 3.71416E-22
4.16442E-03 3.51775E-22
4.27757E-03 3.33415E-22
4.39223E-03 3.16239E-22
4.50840E-03 3.00155E-22
4.62608E-03 2.85080E-22
4.74527E-03 2.70941E-22
4.86597E-03 2.57668E-22
4.98817E-03 2.45199E-22
5.11188E-03 2.33475E-22
5.23711E-03 2.22443E-22
5.36383E-03 2.12056E-22
5.49207E-03 2.02268E-22
5.62181E-03 1.93039E-22
5.75306E-03 1.84330E-22
5.88581E-03 1.76108E-22
6.02007E-03 1.68338E-22
6.15583E-03 1.60993E-22
6.29310E-03 1.54044E-22
6.43187E-03 1.47467E-22
6.57214E-03 1.41236E-22
6.71392E-03 1.35332E-22
6.85720E-03 1.29733E-22
7.00198E-03 1.24420E-22
7.14827E-03 1.19377E-22
7.29605E-03 1.14587E-22
7.44534E-03 1.10035E-22
7.59612E-03 1.05707E-22
7.97965E-03 9.57818E-23
8.37255E-03 8.69953E-23
8.77480E-03 7.91939E-23
9.18641E-03 7.22479E-23
9.60736E-03 6.60472E-23
1.00376E-02 6.04978E-23
1.04773E-02 5.55193E-23
1.09262E-02 5.10426E-23
1.13844E-02 4.70083E-23
1.18520E-02 4.33648E-23
1.23288E-02 4.00676E-23
1.28150E-02 3.70780E-23
1.33104E-02 3.43620E-23
1.38150E-02 3.18903E-23
1.43290E-02 2.96368E-23
1.48521E-02 2.75789E-23
1.53845E-02 2.56965E-23
1.59262E-02 2.39721E-23
1.64770E-02 2.23898E-23
1.70371E-02 2.09360E-23
1.76063E-02 1.95982E-23
1.81848E-02 1.83655E-23
1.87724E-02 1.72283E-23
1.93692E-02 1.61777E-23
1.99751E-02 1.52059E-23
2.05901E-02 1.43060E-23
2.12143E-02 1.34716E-23
2.18476E-02 1.26972E-23
2.24900E-02 1.19775E-23
2.31415E-02 1.13082E-23
2.38021E-02 1.06849E-23
2.44717E-02 1.01039E-23
2.51504E-02 9.56182E-24
2.58382E-02 9.05560E-24
2.65349E-02 8.58241E-24
2.72407E-02 8.13969E-24
2.79555E-02 7.72513E-24
2.86793E-02 7.33659E-24
2.94120E-02 6.97215E-24
3.01537E-02 6.63003E-24
3.09043E-02 6.30861E-24
3.16639E-02 6.00641E-24
3.24324E-02 5.72206E-24
3.32098E-02 5.45432E-24
3.39961E-02 5.20203E-24
3.47912E-02 4.96413E-24
3.55952E-02 4.73965E-24
3.64081E-02 4.52770E-24
3.72297E-02 4.32744E-24
3.80602E-02 4.13811E-24
3.88995E-02 3.95900E-24
3.97476E-02 3.78945E-24
4.06044E-02 3.62886E-24
4.14700E-02 3.47667E-24
4.23443E-02 3.33236E-24
4.32273E-02 3.19544E-24
4.41190E-02 3.06546E-24
4.50194E-02 2.94200E-24
4.59284E-02 2.82468E-24
4.68461E-02 2.71314E-24
4.87074E-02 2.50603E-24
5.06030E-02 2.31826E-24
5.25328E-02 2.14770E-24
5.44967E-02 1.99248E-24
5.64946E-02 1.85098E-24
5.85262E-02 1.72178E-24
6.05914E-02 1.60361E-24
6.26901E-02 1.49536E-24
6.48222E-02 1.39606E-24
6.69873E-02 1.30482E-24
6.91854E-02 1.22088E-24
7.14163E-02 1.14354E-24
7.36799E-02 1.07220E-24
7.59760E-02 1.00631E-24
7.83043E-02 9.45367E-25
8.06647E-02 8.88942E-25
8.30571E-02 8.36636E-25
8.54812E-02 7.88096E-25
8.79369E-02 7.43000E-25
9.04240E-02 7.01060E-25
9.29422E-02 6.62014E-25
9.54915E-02 6.25628E-25
9.80716E-02 5.91686E-25
1.00682E-01 5.59995E-25
1.03323E-01 5.30379E-25
1.05995E-01 5.02676E-25
1.08696E-01 4.76741E-25
1.11427E-01 4.52440E-25
1.14188E-01 4.29652E-25
1.16978E-01 4.08265E-25
1.19797E-01 3.88178E-25
1.22645E-01 3.69296E-25
1.25522E-01 3.51535E-25
1.28428E-01 3.34815E-25
1.31361E-01 3.19065E-25
1.34323E-01 3.04219E-25
1.37313E-01 2.90213E-25
1.40330E-01 2.76994E-25
1.43375E-01 2.64507E-25
1.46447E-01 2.52706E-25
1.49545E-01 2.41545E-25
1.52671E-01 2.30984E-25
1.55823E-01 2.20985E-25
1.59001E-01 2.11511E-25
1.62205E-01 2.02531E-25
1.65435E-01 1.94014E-25
1.68690E-01 1.85932E-25
1.71970E-01 1.78259E-25
1.75276E-01 1.70969E-25
1.78606E-01 1.64041E-25
1.81961E-01 1.57453E-25
1.85340E-01 1.51185E-25
1.88743E-01 1.45220E-25
1.92169E-01 1.39539E-25
1.95619E-01 1.34127E-25
1.99092E-01 1.28969E-25
2.02589E-01 1.24051E-25
2.06107E-01 1.19359E-25
2.09649E-01 1.14881E-25
2.13212E-01 1.10605E-25
2.16797E-01 1.06522E-25
2.20404E-01 1.02620E-25
2.24032E-01 9.88901E-26
2.27680E-01 9.53233E-26
2.31350E-01 9.19112E-26
2.35040E-01 8.86459E-26
2.38751E-01 8.55198E-26
2.42481E-01 8.25260E-26
2.46231E-01 7.96579E-26
2.50000E-01 7.69092E-26
2.53788E-01 7.42741E-26
2.57595E-01 7.17470E-26
2.61421E-01 6.93227E-26
2.65264E-01 6.69963E-26
2.69126E-01 6.47631E-26
2.73005E-01 6.26186E-26
2.76901E-01 6.05588E-26
2.80814E-01 5.85797E-26
2.84744E-01 5.66775E-26
2.88691E-01 5.48488E-26
2.92653E-01 5.30901E-26
2.96632E-01 5.13984E-26
3.00625E-01 4.97706E-26
3.04634E-01 4.82038E-26
3.08658E-01 4.66954E-26
3.12697E-01 4.52429E-26
3.16749E-01 4.38437E-26
3.20816E-01 4.24955E-26
3.24896E-01 4.11963E-26
3.28990E-01 3.99438E-26
3.33097E-01 3.87361E-26
3.37216E-01 3.75713E-26
3.41348E-01 3.64477E-26
3.45492E-01 3.53634E-26
3.49647E-01 3.43170E-26
3.53814E-01 3.33068E-26
3.57992E-01 3.23313E-26
3.62181E-01 3.13892E-26
3.66381E-01 3.04791E-26
3.70590E-01 2.95997E-26
3.74810E-01 2.87498E-26
3.79039E-01 2.79283E-26
3.83277E-01 2.71341E-26
3.87524E-01 2.63660E-26
3.91780E-01 2.56231E-26
3.96044E-01 2.49043E-26
4.00316E-01 2.42089E-26
4.04596E-01 2.35358E-26
4.08882E-01 2.28843E-26
4.13176E-01 2.22535E-26
4.17476E-01 2.16426E-26
4.21783E-01 2.10510E-26
4.26095E-01 2.04779E-26
4.30413E-01 1.99226E-26
4.34737E-01 1.93845E-26
4.39065E-01 1.88630E-26
4.43398E-01 1.83574E-26
4.47736E-01 1.78673E-26
4.52077E-01 1.73919E-26
4.56422E-01 1.69309E-26
4.60770E-01 1.64837E-26
4.65122E-01 1.60498E-26
4.69476E-01 1.56288E-26
4.73832E-01 1.52202E-26
4.78190E-01 1.48236E-26
4.82550E-01 1.44386E-26
4.86912E-01 1.40648E-26
4.91274E-01 1.37017E-26
4.95637E-01 1.33491E-26
5.00000E-01 1.30067E-26
5.04363E-01 1.26739E-26
5.08726E-01 1.23506E-26
5.13088E-01 1.20364E-26
5.17450E-01 1.17311E-26
5.21810E-01 1.14342E-26
5.26168E-01 1.11457E-26
5.30524E-01 1.08651E-26
5.34878E-01 1.05922E-26
5.39230E-01 1.03268E-26
5.43578E-01 1.00687E-26
5.47923E-01 9.81762E-27
5.52264E-01 9.57330E-27
5.56602E-01 9.33557E-27
5.60935E-01 9.10422E-27
5.65263E-01 8.87904E-27
5.69587E-01 8.65985E-27
5.73905E-01 8.44647E-27
5.78217E-01 8.23870E-27
5.82524E-01 8.03640E-27
5.86824E-01 7.83938E-27
5.91118E-01 7.64749E-27
5.95404E-01 7.46058E-27
5.99684E-01 7.27849E-27
6.03956E-01 7.10109E-27
6.08220E-01 6.92823E-27
6.12476E-01 6.75978E-27
6.16723E-01 6.59561E-27
6.20961E-01 6.43560E-27
6.25190E-01 6.27962E-27
6.29410E-01 6.12756E-27
6.33619E-01 5.97930E-27
6.37819E-01 5.83475E-27
6.42008E-01 5.69378E-27
6.46186E-01 5.55630E-27
6.50353E-01 5.42221E-27
6.54508E-01 5.29142E-27
6.58652E-01 5.16383E-27
6.62784E-01 5.03935E-27
6.66903E-01 4.91790E-27
6.71010E-01 4.79939E-27
6.75104E-01 4.68375E-27
6.79184E-01 4.57088E-27
6.83251E-01 4.46073E-27
6.87303E-01 4.35321E-27
6.91342E-01 4.24825E-27
6.95366E-01 4.14578E-27
6.99375E-01 4.04575E-27
7.03368E-01 3.94807E-27
7.07347E-01 3.85269E-27
7.11309E-01 3.75956E-27
7.15256E-01 3.66860E-27
7.19186E-01 3.57976E-27
7.23099E-01 3.49299E-27
7.26995E-01 3.40824E-27
7.30874E-01 3.32544E-27
7.34736E-01 3.24456E-27
7.38579E-01 3.16554E-27
7.42405E-01 3.08833E-27
7.46212E-01 3.01289E-27
7.50000E-01 2.93917E-27
7.53769E-01 2.86714E-27
7.57519E-01 2.79674E-27
7.61249E-01 2.72793E-27
7.64960E-01 2.66069E-27
7.68650E-01 2.59496E-27
7.72320E-01 2.53071E-27
7.75968E-01 2.46791E-27
7.79596E-01 2.40652E-27
7.83203E-01 2.34650E-27
7.86788E-01 2.28782E-27
7.90351E-01 2.23046E-27
7.93893E-01 2.17437E-27
7.97411E-01 2.11953E-27
8.00908E-01 2.06590E-27
8.04381E-01 2.01347E-27
8.07831E-01 1.96220E-27
8.11257E-01 1.91206E-27
8.14660E-01 1.86302E-27
8.18039E-01 1.81507E-27
8.21394E-01 1.76818E-27
8.24724E-01 1.72232E-27
8.28030E-01 1.67746E-27
8.31310E-01 1.63360E-27
8.34565E-01 1.59069E-27
8.37795E-01 1.54873E-27
8.40999E-01 1.50769E-27
8.44177E-01 1.46755E-27
8.47329E-01 1.42829E-27
8.50455E-01 1.38989E-27
8.53553E-01 1.35233E-27
8.56625E-01 1.31559E-27
8.59670E-01 1.27966E-27
8.62687E-01 1.24452E-27
8.65677E-01 1.21015E-27
8.68639E-01 1.17653E-27
8.71572E-01 1.14365E-27
8.74478E-01 1.11150E-27
8.77355E-01 1.08005E-27
8.80203E-01 1.04930E-27
8.83022E-01 1.01922E-27
8.85812E-01 9.89813E-28
8.88573E-01 9.61055E-28
8.91304E-01 9.32934E-28
8.94005E-01 9.05438E-28
8.96677E-01 8.78555E-28
8.99318E-01 8.52272E-28
9.01928E-01 8.26578E-28
9.04508E-01 8.01461E-28
9.07058E-01 7.76909E-28
9.09576E-01 7.52912E-28
9.12063E-01 7.29460E-28
9.14519E-01 7.06541E-28
9.16943E-01 6.84146E-28
9.19335E-01 6.62264E-28
9.21696E-01 6.40888E-28
9.24024E-01 6.20006E-28
9.26320E-01 5.99610E-28
9.28584E-01 5.79691E-28
9.30815E-01 5.60242E-28
9.33013E-01 5.41252E-28
9.35178E-01 5.22715E-28
9.37310E-01 5.04623E-28
9.39409E-01 4.86967E-28
9.41474E-01 4.69741E-28
9.43505E-01 4.52937E-28
9.45503E-01 4.36548E-28
9.47467E-01 4.20567E-28
9.49397E-01 4.04989E-28
9.51293E-01 3.89805E-28
9.53154E-01 3.75010E-28
9.54981E-01 3.60599E-28
9.56773E-01 3.46564E-28
9.58530E-01 3.32901E-28
9.60252E-01 3.19604E-28
9.61940E-01 3.06666E-28
9.63592E-01 2.94085E-28
9.65209E-01 2.81853E-28
9.66790E-01 2.69966E-28
9.68336E-01 2.58420E-28
9.69846E-01 2.47209E-28
9.71321E-01 2.36330E-28
9.72759E-01 2.25777E-28
9.74162E-01 2.15548E-28
9.75528E-01 2.05637E-28
9.76858E-01 1.96041E-28
9.78152E-01 1.86756E-28
9.79410E-01 1.77779E-28
9.80631E-01 1.69105E-28
9.81815E-01 1.60732E-28
9.82963E-01 1.52656E-28
9.84074E-01 1.44874E-28
9.85148E-01 1.37383E-28
9.86185E-01 1.30181E-28
9.87185E-01 1.23264E-28
9.88148E-01 1.16629E-28
9.89074E-01 1.10275E-28
9.89962E-01 1.04198E-28
9.90814E-01 9.83966E-29
9.91627E-01 9.28685E-29
9.92404E-01 8.76112E-29
9.93143E-01 8.26230E-29
9.93844E-01 7.79017E-29
9.94508E-01 7.34459E-29
9.95134E-01 6.92536E-29
9.95722E-01 6.53233E-29
9.96273E-01 6.16535E-29
9.96786E-01 5.82428E-29
9.97261E-01 5.50899E-29
9.97698E-01 5.21937E-29
9.98097E-01 4.95528E-29
9.98459E-01 4.71665E-29
9.98782E-01 4.50337E-29
9.99067E-01 4.31539E-29
9.99315E-01 4.15262E-29
9.99524E-01 4.01497E-29
9.99695E-01 3.90243E-29
9.99829E-01 3.81494E-29
9.99924E-01 3.75247E-29
9.99981E-01 3.71502E-29
1.00000E+00 3.70263E-29
