 #
 # Subroutine ELSEPA. Elastic scattering of electrons and positrons
 #                    by neutral atoms and positive ions
 #
 # Projectile: electron
 # Kinetic energy = 8.00000E+07 eV = 2.93995E+06 a.u.
 #
 # WARNING: High-energy factorization with free-atom DF screening.
 #          Absorption, polarization and exchange corrections are
 #          switched off.
 #          Phase shifts are calculated for the bare nucleus.
 #          Scattering amplitudes are not evaluated.
 #
 # Element:  N,  Z =   7,  atomic weight = 1.40067E+01 g/mol
 #
 # Nuclear model: Fermi distribution
 #                Average radius = 2.57926E-13 cm
 #                Skin thickness = 5.46000E-14 cm
 #
 # Number of electrons =  7
 #
 # Total elastic cross section = 2.60284E-19 cm**2 = 9.29490E-03 a0**2
 # 1st transport cross section = 1.67359E-26 cm**2 = 5.97652E-10 a0**2
 # 2nd transport cross section = 4.93184E-26 cm**2 = 1.76119E-09 a0**2
 #
 #
 # Differential cross section:                       MU=(1-COS(THETA))/2
 #
 #  THETA        MU          DCS          DCS        Sherman      error
 #  (deg)                 (cm**2/sr)   (a0**2/sr)    function
 #----------------------------------------------------------------------
0.00000E+00 1.20847E-11
7.61557E-13 1.20749E-11
1.18994E-12 1.20694E-11
1.71346E-12 1.20627E-11
2.33225E-12 1.20548E-11
3.04617E-12 1.20458E-11
3.85530E-12 1.20355E-11
4.75964E-12 1.20240E-11
5.75917E-12 1.20113E-11
6.85391E-12 1.19975E-11
8.04379E-12 1.19825E-11
9.32893E-12 1.19663E-11
1.07092E-11 1.19489E-11
1.21847E-11 1.19304E-11
1.37554E-11 1.19107E-11
1.54213E-11 1.18900E-11
1.71823E-11 1.18680E-11
1.90386E-11 1.18450E-11
2.09900E-11 1.18208E-11
2.30367E-11 1.17956E-11
2.51785E-11 1.17693E-11
2.74156E-11 1.17418E-11
2.97478E-11 1.17133E-11
3.21752E-11 1.16837E-11
3.46979E-11 1.16531E-11
3.73157E-11 1.16215E-11
4.00286E-11 1.15888E-11
4.28368E-11 1.15553E-11
4.57402E-11 1.15205E-11
4.87388E-11 1.14850E-11
5.18325E-11 1.14483E-11
5.50215E-11 1.14108E-11
5.83057E-11 1.13723E-11
6.16850E-11 1.13329E-11
6.51595E-11 1.12927E-11
6.87293E-11 1.12514E-11
7.23943E-11 1.12094E-11
7.61544E-11 1.11664E-11
1.18991E-10 1.06937E-11
1.71347E-10 1.01544E-11
2.33223E-10 9.56559E-12
3.04617E-10 8.91782E-12
3.85531E-10 8.30046E-12
4.75965E-10 7.65001E-12
5.75917E-10 7.03118E-12
6.85389E-10 6.42973E-12
8.04380E-10 5.84960E-12
9.32891E-10 5.32064E-12
1.07092E-09 4.80296E-12
1.21847E-09 4.34694E-12
1.37554E-09 3.90803E-12
1.54213E-09 3.51961E-12
1.71823E-09 3.16186E-12
1.90386E-09 2.83873E-12
2.09900E-09 2.55068E-12
2.30367E-09 2.28635E-12
2.51785E-09 2.05552E-12
2.74156E-09 1.84245E-12
2.97478E-09 1.65613E-12
3.21752E-09 1.48777E-12
3.46978E-09 1.33829E-12
3.73156E-09 1.20524E-12
4.00286E-09 1.08571E-12
4.28368E-09 9.80379E-13
4.57402E-09 8.84898E-13
4.87388E-09 8.00733E-13
5.18326E-09 7.24969E-13
5.50215E-09 6.57533E-13
5.83057E-09 5.97137E-13
6.16850E-09 5.43023E-13
6.51596E-09 4.94765E-13
6.87293E-09 4.51220E-13
7.23942E-09 4.12334E-13
7.61544E-09 3.77211E-13
1.18991E-08 1.67996E-13
1.71347E-08 8.53406E-14
2.33223E-08 4.81649E-14
3.04617E-08 2.94740E-14
3.85531E-08 1.91785E-14
4.75965E-08 1.30824E-14
5.75917E-08 9.25683E-15
6.85389E-08 6.74852E-15
8.04380E-08 5.03710E-15
9.32891E-08 3.83762E-15
1.07092E-07 2.97413E-15
1.21847E-07 2.33949E-15
1.37554E-07 1.86487E-15
1.54213E-07 1.50361E-15
1.71823E-07 1.22534E-15
1.90386E-07 1.00794E-15
2.09900E-07 8.36347E-16
2.30367E-07 6.99488E-16
2.51785E-07 5.89257E-16
2.74156E-07 4.99784E-16
2.97478E-07 4.26503E-16
3.21752E-07 3.66098E-16
3.46978E-07 3.15942E-16
3.73156E-07 2.74032E-16
4.00286E-07 2.38810E-16
4.28368E-07 2.09031E-16
4.57402E-07 1.83732E-16
4.87388E-07 1.62125E-16
5.18325E-07 1.43590E-16
5.50215E-07 1.27617E-16
5.83057E-07 1.13795E-16
6.16850E-07 1.01789E-16
6.51596E-07 9.13184E-17
6.87293E-07 8.21562E-17
7.23942E-07 7.41110E-17
7.61543E-07 6.70239E-17
1.18991E-06 2.75785E-17
1.71347E-06 1.33248E-17
2.33223E-06 7.19883E-18
3.04617E-06 4.22183E-18
3.85531E-06 2.63641E-18
4.75964E-06 1.73007E-18
5.75916E-06 1.18176E-18
6.85388E-06 8.34458E-19
8.04378E-06 6.05873E-19
9.32888E-06 4.50470E-19
1.07092E-05 3.41849E-19
1.21846E-05 2.64083E-19
1.37553E-05 2.07226E-19
1.54212E-05 1.64881E-19
1.71822E-05 1.32820E-19
1.90385E-05 1.08222E-19
2.09899E-05 8.90347E-20
2.30365E-05 7.39093E-20
2.51783E-05 6.18614E-20
2.74153E-05 5.21729E-20
2.97475E-05 4.43123E-20
3.21749E-05 3.78811E-20
3.46974E-05 3.25774E-20
3.73152E-05 2.81709E-20
4.00281E-05 2.44844E-20
4.28362E-05 2.13807E-20
4.57395E-05 1.87526E-20
4.87380E-05 1.65156E-20
5.18317E-05 1.46024E-20
5.50205E-05 1.29587E-20
5.83045E-05 1.15403E-20
6.16838E-05 1.03111E-20
6.51582E-05 9.24151E-21
6.87277E-05 8.30712E-21
7.23925E-05 7.48778E-21
7.61524E-05 6.76592E-21
9.21439E-05 4.62121E-21
1.09658E-04 3.26345E-21
1.28695E-04 2.36950E-21
1.49255E-04 1.76181E-21
1.71338E-04 1.33707E-21
1.94942E-04 1.03291E-21
2.20070E-04 8.10582E-22
2.46720E-04 6.44951E-22
2.74892E-04 5.19565E-22
3.04586E-04 4.23219E-22
3.35803E-04 3.48204E-22
3.68542E-04 2.89104E-22
4.02802E-04 2.42021E-22
4.38585E-04 2.04150E-22
4.75889E-04 1.73402E-22
5.14715E-04 1.48232E-22
5.55063E-04 1.27469E-22
5.96931E-04 1.10215E-22
6.40321E-04 9.57858E-23
6.85233E-04 8.36412E-23
7.31665E-04 7.33624E-23
7.79618E-04 6.46149E-23
8.29092E-04 5.71328E-23
8.80086E-04 5.07033E-23
9.32601E-04 4.51528E-23
9.86636E-04 4.03417E-23
1.04219E-03 3.61543E-23
1.09927E-03 3.24964E-23
1.15786E-03 2.92895E-23
1.21797E-03 2.64685E-23
1.27961E-03 2.39791E-23
1.34276E-03 2.17754E-23
1.40743E-03 1.98191E-23
1.47362E-03 1.80775E-23
1.54133E-03 1.65231E-23
1.61056E-03 1.51321E-23
1.68131E-03 1.38844E-23
1.75357E-03 1.27626E-23
1.82735E-03 1.17518E-23
1.90265E-03 1.08391E-23
1.97947E-03 1.00132E-23
2.05780E-03 9.26446E-24
2.13765E-03 8.58439E-24
2.21902E-03 7.96552E-24
2.30190E-03 7.40139E-24
2.38630E-03 6.88630E-24
2.47222E-03 6.41520E-24
2.55965E-03 5.98368E-24
2.64859E-03 5.58779E-24
2.73905E-03 5.22409E-24
2.83103E-03 4.88947E-24
2.92452E-03 4.58119E-24
3.01952E-03 4.29681E-24
3.11604E-03 4.03411E-24
3.21407E-03 3.79118E-24
3.31362E-03 3.56623E-24
3.41468E-03 3.35770E-24
3.51725E-03 3.16417E-24
3.62133E-03 2.98436E-24
3.72692E-03 2.81713E-24
3.83403E-03 2.66143E-24
3.94265E-03 2.51633E-24
4.05278E-03 2.38096E-24
4.16442E-03 2.25456E-24
4.27757E-03 2.13642E-24
4.39223E-03 2.02590E-24
4.50840E-03 1.92243E-24
4.62608E-03 1.82546E-24
4.74527E-03 1.73452E-24
4.86597E-03 1.64916E-24
4.98817E-03 1.56898E-24
5.11188E-03 1.49360E-24
5.23711E-03 1.42268E-24
5.36383E-03 1.35591E-24
5.49207E-03 1.29300E-24
5.62181E-03 1.23369E-24
5.75306E-03 1.17774E-24
5.88581E-03 1.12491E-24
6.02007E-03 1.07500E-24
6.15583E-03 1.02782E-24
6.29310E-03 9.83194E-25
6.43187E-03 9.40957E-25
6.57214E-03 9.00956E-25
6.71392E-03 8.63052E-25
6.85720E-03 8.27114E-25
7.00198E-03 7.93021E-25
7.14827E-03 7.60660E-25
7.29605E-03 7.29927E-25
7.44534E-03 7.00726E-25
7.59612E-03 6.72965E-25
7.97965E-03 6.09324E-25
8.37255E-03 5.53004E-25
8.77480E-03 5.03018E-25
9.18641E-03 4.58531E-25
9.60736E-03 4.18833E-25
1.00376E-02 3.83320E-25
1.04773E-02 3.51475E-25
1.09262E-02 3.22852E-25
1.13844E-02 2.97068E-25
1.18520E-02 2.73793E-25
1.23288E-02 2.52741E-25
1.28150E-02 2.33661E-25
1.33104E-02 2.16336E-25
1.38150E-02 2.00577E-25
1.43290E-02 1.86217E-25
1.48521E-02 1.73110E-25
1.53845E-02 1.61127E-25
1.59262E-02 1.50155E-25
1.64770E-02 1.40094E-25
1.70371E-02 1.30854E-25
1.76063E-02 1.22357E-25
1.81848E-02 1.14532E-25
1.87724E-02 1.07316E-25
1.93692E-02 1.00655E-25
1.99751E-02 9.44967E-26
2.05901E-02 8.87975E-26
2.12143E-02 8.35169E-26
2.18476E-02 7.86186E-26
2.24900E-02 7.40700E-26
2.31415E-02 6.98417E-26
2.38021E-02 6.59070E-26
2.44717E-02 6.22421E-26
2.51504E-02 5.88250E-26
2.58382E-02 5.56360E-26
2.65349E-02 5.26572E-26
2.72407E-02 4.98723E-26
2.79555E-02 4.72663E-26
2.86793E-02 4.48258E-26
2.94120E-02 4.25382E-26
3.01537E-02 4.03925E-26
3.09043E-02 3.83781E-26
3.16639E-02 3.64856E-26
3.24324E-02 3.47063E-26
3.32098E-02 3.30322E-26
3.39961E-02 3.14561E-26
3.47912E-02 2.99710E-26
3.55952E-02 2.85709E-26
3.64081E-02 2.72501E-26
3.72297E-02 2.60031E-26
3.80602E-02 2.48252E-26
3.88995E-02 2.37119E-26
3.97476E-02 2.26590E-26
4.06044E-02 2.16625E-26
4.14700E-02 2.07191E-26
4.23443E-02 1.98252E-26
4.32273E-02 1.89780E-26
4.41190E-02 1.81744E-26
4.50194E-02 1.74119E-26
4.59284E-02 1.66880E-26
4.68461E-02 1.60003E-26
4.87074E-02 1.47255E-26
5.06030E-02 1.35719E-26
5.25328E-02 1.25262E-26
5.44967E-02 1.15766E-26
5.64946E-02 1.07127E-26
5.85262E-02 9.92557E-27
6.05914E-02 9.20725E-27
6.26901E-02 8.55073E-27
6.48222E-02 7.94981E-27
6.69873E-02 7.39901E-27
6.91854E-02 6.89345E-27
7.14163E-02 6.42882E-27
7.36799E-02 6.00126E-27
7.59760E-02 5.60732E-27
7.83043E-02 5.24393E-27
8.06647E-02 4.90834E-27
8.30571E-02 4.59808E-27
8.54812E-02 4.31092E-27
8.79369E-02 4.04486E-27
9.04240E-02 3.79812E-27
9.29422E-02 3.56905E-27
9.54915E-02 3.35619E-27
9.80716E-02 3.15822E-27
1.00682E-01 2.97391E-27
1.03323E-01 2.80219E-27
1.05995E-01 2.64206E-27
1.08696E-01 2.49261E-27
1.11427E-01 2.35302E-27
1.14188E-01 2.22253E-27
1.16978E-01 2.10046E-27
1.19797E-01 1.98619E-27
1.22645E-01 1.87913E-27
1.25522E-01 1.77877E-27
1.28428E-01 1.68462E-27
1.31361E-01 1.59623E-27
1.34323E-01 1.51321E-27
1.37313E-01 1.43517E-27
1.40330E-01 1.36177E-27
1.43375E-01 1.29270E-27
1.46447E-01 1.22766E-27
1.49545E-01 1.16638E-27
1.52671E-01 1.10862E-27
1.55823E-01 1.05414E-27
1.59001E-01 1.00272E-27
1.62205E-01 9.54177E-28
1.65435E-01 9.08320E-28
1.68690E-01 8.64979E-28
1.71970E-01 8.23998E-28
1.75276E-01 7.85229E-28
1.78606E-01 7.48536E-28
1.81961E-01 7.13793E-28
1.85340E-01 6.80882E-28
1.88743E-01 6.49692E-28
1.92169E-01 6.20122E-28
1.95619E-01 5.92075E-28
1.99092E-01 5.65463E-28
2.02589E-01 5.40202E-28
2.06107E-01 5.16214E-28
2.09649E-01 4.93427E-28
2.13212E-01 4.71773E-28
2.16797E-01 4.51187E-28
2.20404E-01 4.31611E-28
2.24032E-01 4.12988E-28
2.27680E-01 3.95267E-28
2.31350E-01 3.78397E-28
2.35040E-01 3.62332E-28
2.38751E-01 3.47030E-28
2.42481E-01 3.32450E-28
2.46231E-01 3.18553E-28
2.50000E-01 3.05303E-28
2.53788E-01 2.92667E-28
2.57595E-01 2.80613E-28
2.61421E-01 2.69110E-28
2.65264E-01 2.58130E-28
2.69126E-01 2.47647E-28
2.73005E-01 2.37636E-28
2.76901E-01 2.28073E-28
2.80814E-01 2.18935E-28
2.84744E-01 2.10201E-28
2.88691E-01 2.01852E-28
2.92653E-01 1.93868E-28
2.96632E-01 1.86233E-28
3.00625E-01 1.78928E-28
3.04634E-01 1.71938E-28
3.08658E-01 1.65248E-28
3.12697E-01 1.58844E-28
3.16749E-01 1.52711E-28
3.20816E-01 1.46838E-28
3.24896E-01 1.41212E-28
3.28990E-01 1.35822E-28
3.33097E-01 1.30657E-28
3.37216E-01 1.25706E-28
3.41348E-01 1.20959E-28
3.45492E-01 1.16408E-28
3.49647E-01 1.12043E-28
3.53814E-01 1.07856E-28
3.57992E-01 1.03839E-28
3.62181E-01 9.99849E-29
3.66381E-01 9.62857E-29
3.70590E-01 9.27348E-29
3.74810E-01 8.93256E-29
3.79039E-01 8.60521E-29
3.83277E-01 8.29083E-29
3.87524E-01 7.98886E-29
3.91780E-01 7.69875E-29
3.96044E-01 7.42001E-29
4.00316E-01 7.15214E-29
4.04596E-01 6.89468E-29
4.08882E-01 6.64720E-29
4.13176E-01 6.40926E-29
4.17476E-01 6.18047E-29
4.21783E-01 5.96045E-29
4.26095E-01 5.74882E-29
4.30413E-01 5.54525E-29
4.34737E-01 5.34939E-29
4.39065E-01 5.16093E-29
4.43398E-01 4.97958E-29
4.47736E-01 4.80502E-29
4.52077E-01 4.63700E-29
4.56422E-01 4.47525E-29
4.60770E-01 4.31950E-29
4.65122E-01 4.16953E-29
4.69476E-01 4.02510E-29
4.73832E-01 3.88599E-29
4.78190E-01 3.75198E-29
4.82550E-01 3.62288E-29
4.86912E-01 3.49849E-29
4.91274E-01 3.37863E-29
4.95637E-01 3.26311E-29
5.00000E-01 3.15178E-29
5.04363E-01 3.04446E-29
5.08726E-01 2.94100E-29
5.13088E-01 2.84125E-29
5.17450E-01 2.74507E-29
5.21810E-01 2.65232E-29
5.26168E-01 2.56287E-29
5.30524E-01 2.47660E-29
5.34878E-01 2.39338E-29
5.39230E-01 2.31309E-29
5.43578E-01 2.23564E-29
5.47923E-01 2.16090E-29
5.52264E-01 2.08878E-29
5.56602E-01 2.01918E-29
5.60935E-01 1.95201E-29
5.65263E-01 1.88717E-29
5.69587E-01 1.82458E-29
5.73905E-01 1.76415E-29
5.78217E-01 1.70582E-29
5.82524E-01 1.64949E-29
5.86824E-01 1.59509E-29
5.91118E-01 1.54256E-29
5.95404E-01 1.49183E-29
5.99684E-01 1.44283E-29
6.03956E-01 1.39550E-29
6.08220E-01 1.34977E-29
6.12476E-01 1.30560E-29
6.16723E-01 1.26291E-29
6.20961E-01 1.22167E-29
6.25190E-01 1.18182E-29
6.29410E-01 1.14331E-29
6.33619E-01 1.10609E-29
6.37819E-01 1.07011E-29
6.42008E-01 1.03534E-29
6.46186E-01 1.00172E-29
6.50353E-01 9.69229E-30
6.54508E-01 9.37811E-30
6.58652E-01 9.07435E-30
6.62784E-01 8.78063E-30
6.66903E-01 8.49661E-30
6.71010E-01 8.22195E-30
6.75104E-01 7.95631E-30
6.79184E-01 7.69939E-30
6.83251E-01 7.45089E-30
6.87303E-01 7.21052E-30
6.91342E-01 6.97799E-30
6.95366E-01 6.75304E-30
6.99375E-01 6.53540E-30
7.03368E-01 6.32483E-30
7.07347E-01 6.12108E-30
7.11309E-01 5.92392E-30
7.15256E-01 5.73314E-30
7.19186E-01 5.54850E-30
7.23099E-01 5.36981E-30
7.26995E-01 5.19686E-30
7.30874E-01 5.02946E-30
7.34736E-01 4.86742E-30
7.38579E-01 4.71056E-30
7.42405E-01 4.55871E-30
7.46212E-01 4.41170E-30
7.50000E-01 4.26937E-30
7.53769E-01 4.13157E-30
7.57519E-01 3.99814E-30
7.61249E-01 3.86893E-30
7.64960E-01 3.74382E-30
7.68650E-01 3.62266E-30
7.72320E-01 3.50531E-30
7.75968E-01 3.39167E-30
7.79596E-01 3.28160E-30
7.83203E-01 3.17499E-30
7.86788E-01 3.07173E-30
7.90351E-01 2.97170E-30
7.93893E-01 2.87480E-30
7.97411E-01 2.78093E-30
8.00908E-01 2.68999E-30
8.04381E-01 2.60189E-30
8.07831E-01 2.51653E-30
8.11257E-01 2.43382E-30
8.14660E-01 2.35368E-30
8.18039E-01 2.27603E-30
8.21394E-01 2.20079E-30
8.24724E-01 2.12788E-30
8.28030E-01 2.05722E-30
8.31310E-01 1.98874E-30
8.34565E-01 1.92239E-30
8.37795E-01 1.85807E-30
8.40999E-01 1.79574E-30
8.44177E-01 1.73533E-30
8.47329E-01 1.67677E-30
8.50455E-01 1.62002E-30
8.53553E-01 1.56501E-30
8.56625E-01 1.51169E-30
8.59670E-01 1.46000E-30
8.62687E-01 1.40990E-30
8.65677E-01 1.36134E-30
8.68639E-01 1.31426E-30
8.71572E-01 1.26862E-30
8.74478E-01 1.22438E-30
8.77355E-01 1.18149E-30
8.80203E-01 1.13992E-30
8.83022E-01 1.09961E-30
8.85812E-01 1.06054E-30
8.88573E-01 1.02267E-30
8.91304E-01 9.85947E-31
8.94005E-01 9.50351E-31
8.96677E-01 9.15845E-31
8.99318E-01 8.82393E-31
9.01928E-01 8.49966E-31
9.04508E-01 8.18531E-31
9.07058E-01 7.88060E-31
9.09576E-01 7.58523E-31
9.12063E-01 7.29893E-31
9.14519E-01 7.02143E-31
9.16943E-01 6.75246E-31
9.19335E-01 6.49177E-31
9.21696E-01 6.23912E-31
9.24024E-01 5.99427E-31
9.26320E-01 5.75700E-31
9.28584E-01 5.52709E-31
9.30815E-01 5.30431E-31
9.33013E-01 5.08847E-31
9.35178E-01 4.87937E-31
9.37310E-01 4.67681E-31
9.39409E-01 4.48061E-31
9.41474E-01 4.29058E-31
9.43505E-01 4.10656E-31
9.45503E-01 3.92838E-31
9.47467E-01 3.75587E-31
9.49397E-01 3.58887E-31
9.51293E-01 3.42724E-31
9.53154E-01 3.27083E-31
9.54981E-01 3.11949E-31
9.56773E-01 2.97310E-31
9.58530E-01 2.83151E-31
9.60252E-01 2.69460E-31
9.61940E-01 2.56225E-31
9.63592E-01 2.43434E-31
9.65209E-01 2.31075E-31
9.66790E-01 2.19138E-31
9.68336E-01 2.07612E-31
9.69846E-01 1.96486E-31
9.71321E-01 1.85750E-31
9.72759E-01 1.75396E-31
9.74162E-01 1.65414E-31
9.75528E-01 1.55794E-31
9.76858E-01 1.46530E-31
9.78152E-01 1.37611E-31
9.79410E-01 1.29032E-31
9.80631E-01 1.20783E-31
9.81815E-01 1.12858E-31
9.82963E-01 1.05249E-31
9.84074E-01 9.79513E-32
9.85148E-01 9.09564E-32
9.86185E-01 8.42598E-32
9.87185E-01 7.78546E-32
9.88148E-01 7.17357E-32
9.89074E-01 6.58974E-32
9.89962E-01 6.03349E-32
9.90814E-01 5.50433E-32
9.91627E-01 5.00182E-32
9.92404E-01 4.52548E-32
9.93143E-01 4.07494E-32
9.93844E-01 3.64976E-32
9.94508E-01 3.24963E-32
9.95134E-01 2.87417E-32
9.95722E-01 2.52305E-32
9.96273E-01 2.19598E-32
9.96786E-01 1.89268E-32
9.97261E-01 1.61288E-32
9.97698E-01 1.35636E-32
9.98097E-01 1.12285E-32
9.98459E-01 9.12201E-33
9.98782E-01 7.24200E-33
9.99067E-01 5.58695E-33
9.99315E-01 4.15564E-33
9.99524E-01 2.94635E-33
9.99695E-01 1.95842E-33
9.99829E-01 1.19095E-33
9.99924E-01 6.43226E-34
9.99981E-01 3.14790E-34
1.00000E+00 2.05571E-34
