 #
 # Subroutine ELSEPA. Elastic scattering of electrons and positrons
 #                    by neutral atoms and positive ions
 #
 # Projectile: electron
 # Kinetic energy = 8.00000E+06 eV = 2.93995E+05 a.u.
 #
 # WARNING: High-energy factorization with free-atom DF screening.
 #          Absorption, polarization and exchange corrections are
 #          switched off.
 #          Phase shifts are calculated for the bare nucleus.
 #          Scattering amplitudes are not evaluated.
 #
 # Element:  N,  Z =   7,  atomic weight = 1.40067E+01 g/mol
 #
 # Nuclear model: Fermi distribution
 #                Average radius = 2.57926E-13 cm
 #                Skin thickness = 5.46000E-14 cm
 #
 # Number of electrons =  7
 #
 # Total elastic cross section = 2.61239E-19 cm**2 = 9.32901E-03 a0**2
 # 1st transport cross section = 1.17754E-24 cm**2 = 4.20507E-08 a0**2
 # 2nd transport cross section = 3.39230E-24 cm**2 = 1.21141E-07 a0**2
 #
 #
 # Differential cross section:                       MU=(1-COS(THETA))/2
 #
 #  THETA        MU          DCS          DCS        Sherman      error
 #  (deg)                 (cm**2/sr)   (a0**2/sr)    function
 #----------------------------------------------------------------------
0.00000E+00 1.35047E-13
7.61557E-13 1.35046E-13
1.18994E-12 1.35045E-13
1.71346E-12 1.35044E-13
2.33225E-12 1.35043E-13
3.04617E-12 1.35042E-13
3.85530E-12 1.35041E-13
4.75964E-12 1.35039E-13
5.75917E-12 1.35038E-13
6.85391E-12 1.35036E-13
8.04379E-12 1.35034E-13
9.32893E-12 1.35032E-13
1.07092E-11 1.35030E-13
1.21847E-11 1.35027E-13
1.37554E-11 1.35025E-13
1.54213E-11 1.35022E-13
1.71823E-11 1.35020E-13
1.90386E-11 1.35017E-13
2.09900E-11 1.35013E-13
2.30367E-11 1.35010E-13
2.51785E-11 1.35007E-13
2.74156E-11 1.35003E-13
2.97478E-11 1.34999E-13
3.21752E-11 1.34996E-13
3.46979E-11 1.34992E-13
3.73157E-11 1.34987E-13
4.00286E-11 1.34983E-13
4.28368E-11 1.34979E-13
4.57402E-11 1.34974E-13
4.87388E-11 1.34969E-13
5.18325E-11 1.34964E-13
5.50215E-11 1.34959E-13
5.83057E-11 1.34954E-13
6.16850E-11 1.34949E-13
6.51595E-11 1.34943E-13
6.87293E-11 1.34937E-13
7.23943E-11 1.34932E-13
7.61544E-11 1.34926E-13
1.18991E-10 1.34858E-13
1.71347E-10 1.34774E-13
2.33223E-10 1.34676E-13
3.04617E-10 1.34563E-13
3.85531E-10 1.34436E-13
4.75965E-10 1.34293E-13
5.75917E-10 1.34136E-13
6.85389E-10 1.33964E-13
8.04380E-10 1.33777E-13
9.32891E-10 1.33576E-13
1.07092E-09 1.33360E-13
1.21847E-09 1.33130E-13
1.37554E-09 1.32887E-13
1.54213E-09 1.32628E-13
1.71823E-09 1.32356E-13
1.90386E-09 1.32071E-13
2.09900E-09 1.31771E-13
2.30367E-09 1.31458E-13
2.51785E-09 1.31131E-13
2.74156E-09 1.30792E-13
2.97478E-09 1.30439E-13
3.21752E-09 1.30073E-13
3.46978E-09 1.29695E-13
3.73156E-09 1.29303E-13
4.00286E-09 1.28900E-13
4.28368E-09 1.28484E-13
4.57402E-09 1.28056E-13
4.87388E-09 1.27617E-13
5.18326E-09 1.27165E-13
5.50215E-09 1.26702E-13
5.83057E-09 1.26228E-13
6.16850E-09 1.25742E-13
6.51596E-09 1.25247E-13
6.87293E-09 1.24739E-13
7.23942E-09 1.24222E-13
7.61544E-09 1.23695E-13
1.18991E-08 1.17907E-13
1.71347E-08 1.11348E-13
2.33223E-08 1.04063E-13
3.04617E-08 9.66339E-14
3.85531E-08 8.90358E-14
4.75965E-08 8.18535E-14
5.75917E-08 7.43766E-14
6.85389E-08 6.75830E-14
8.04380E-08 6.10351E-14
9.32891E-08 5.49316E-14
1.07092E-07 4.94572E-14
1.21847E-07 4.42044E-14
1.37554E-07 3.95995E-14
1.54213E-07 3.53571E-14
1.71823E-07 3.15532E-14
1.90386E-07 2.81971E-14
2.09900E-07 2.51132E-14
2.30367E-07 2.24283E-14
2.51785E-07 2.00069E-14
2.74156E-07 1.78650E-14
2.97478E-07 1.59801E-14
3.21752E-07 1.42820E-14
3.46978E-07 1.27981E-14
3.73156E-07 1.14705E-14
4.00286E-07 1.02978E-14
4.28368E-07 9.26188E-15
4.57402E-07 8.33478E-15
4.87388E-07 7.51814E-15
5.18325E-07 6.78729E-15
5.50215E-07 6.13931E-15
5.83057E-07 5.56365E-15
6.16850E-07 5.04826E-15
6.51596E-07 4.59026E-15
6.87293E-07 4.17936E-15
7.23942E-07 3.81215E-15
7.61543E-07 3.48315E-15
1.18991E-06 1.53852E-15
1.71347E-06 7.81006E-16
2.33223E-06 4.41534E-16
3.04617E-06 2.70705E-16
3.85531E-06 1.76325E-16
4.75964E-06 1.20342E-16
5.75916E-06 8.51202E-17
6.85388E-06 6.20038E-17
8.04378E-06 4.62333E-17
9.32888E-06 3.51831E-17
1.07092E-05 2.72280E-17
1.21846E-05 2.13937E-17
1.37553E-05 1.70288E-17
1.54212E-05 1.37167E-17
1.71822E-05 1.11646E-17
1.90385E-05 9.17852E-18
2.09899E-05 7.60855E-18
2.30365E-05 6.35756E-18
2.51783E-05 5.35102E-18
2.74153E-05 4.53490E-18
2.97475E-05 3.86769E-18
3.21749E-05 3.31834E-18
3.46974E-05 2.86266E-18
3.73152E-05 2.48222E-18
4.00281E-05 2.16251E-18
4.28362E-05 1.89234E-18
4.57395E-05 1.66277E-18
4.87380E-05 1.46680E-18
5.18317E-05 1.29873E-18
5.50205E-05 1.15399E-18
5.83045E-05 1.02883E-18
6.16838E-05 9.20157E-19
6.51582E-05 8.25434E-19
6.87277E-05 7.42561E-19
7.23925E-05 6.69794E-19
7.61524E-05 6.05689E-19
9.21439E-05 4.14520E-19
1.09658E-04 2.93125E-19
1.28695E-04 2.13031E-19
1.49255E-04 1.58504E-19
1.71338E-04 1.20353E-19
1.94942E-04 9.30109E-20
2.20070E-04 7.30129E-20
2.46720E-04 5.81081E-20
2.74892E-04 4.68208E-20
3.04586E-04 3.81453E-20
3.35803E-04 3.13888E-20
3.68542E-04 2.60648E-20
4.02802E-04 2.18227E-20
4.38585E-04 1.84101E-20
4.75889E-04 1.56387E-20
5.14715E-04 1.33699E-20
5.55063E-04 1.14981E-20
5.96931E-04 9.94271E-21
6.40321E-04 8.64183E-21
6.85233E-04 7.54686E-21
7.31665E-04 6.62005E-21
7.79618E-04 5.83127E-21
8.29092E-04 5.15656E-21
8.80086E-04 4.57674E-21
9.32601E-04 4.07616E-21
9.86636E-04 3.64223E-21
1.04219E-03 3.26454E-21
1.09927E-03 2.93458E-21
1.15786E-03 2.64529E-21
1.21797E-03 2.39079E-21
1.27961E-03 2.16620E-21
1.34276E-03 1.96737E-21
1.40743E-03 1.79085E-21
1.47362E-03 1.63369E-21
1.54133E-03 1.49341E-21
1.61056E-03 1.36788E-21
1.68131E-03 1.25526E-21
1.75357E-03 1.15401E-21
1.82735E-03 1.06276E-21
1.90265E-03 9.80364E-22
1.97947E-03 9.05803E-22
2.05780E-03 8.38197E-22
2.13765E-03 7.76788E-22
2.21902E-03 7.20901E-22
2.30190E-03 6.69955E-22
2.38630E-03 6.23432E-22
2.47222E-03 5.80879E-22
2.55965E-03 5.41898E-22
2.64859E-03 5.06133E-22
2.73905E-03 4.73272E-22
2.83103E-03 4.43036E-22
2.92452E-03 4.15178E-22
3.01952E-03 3.89477E-22
3.11604E-03 3.65734E-22
3.21407E-03 3.43775E-22
3.31362E-03 3.23439E-22
3.41468E-03 3.04586E-22
3.51725E-03 2.87088E-22
3.62133E-03 2.70828E-22
3.72692E-03 2.55704E-22
3.83403E-03 2.41622E-22
3.94265E-03 2.28496E-22
4.05278E-03 2.16250E-22
4.16442E-03 2.04814E-22
4.27757E-03 1.94124E-22
4.39223E-03 1.84123E-22
4.50840E-03 1.74758E-22
4.62608E-03 1.65981E-22
4.74527E-03 1.57749E-22
4.86597E-03 1.50021E-22
4.98817E-03 1.42760E-22
5.11188E-03 1.35934E-22
5.23711E-03 1.29511E-22
5.36383E-03 1.23463E-22
5.49207E-03 1.17765E-22
5.62181E-03 1.12391E-22
5.75306E-03 1.07320E-22
5.88581E-03 1.02533E-22
6.02007E-03 9.80094E-23
6.15583E-03 9.37326E-23
6.29310E-03 8.96868E-23
6.43187E-03 8.58570E-23
6.57214E-03 8.22295E-23
6.71392E-03 7.87917E-23
6.85720E-03 7.55317E-23
7.00198E-03 7.24386E-23
7.14827E-03 6.95023E-23
7.29605E-03 6.67134E-23
7.44534E-03 6.40630E-23
7.59612E-03 6.15429E-23
7.97965E-03 5.57644E-23
8.37255E-03 5.06486E-23
8.77480E-03 4.61064E-23
9.18641E-03 4.20622E-23
9.60736E-03 3.84520E-23
1.00376E-02 3.52211E-23
1.04773E-02 3.23225E-23
1.09262E-02 2.97161E-23
1.13844E-02 2.73672E-23
1.18520E-02 2.52459E-23
1.23288E-02 2.33262E-23
1.28150E-02 2.15856E-23
1.33104E-02 2.00044E-23
1.38150E-02 1.85653E-23
1.43290E-02 1.72533E-23
1.48521E-02 1.60552E-23
1.53845E-02 1.49593E-23
1.59262E-02 1.39553E-23
1.64770E-02 1.30341E-23
1.70371E-02 1.21876E-23
1.76063E-02 1.14088E-23
1.81848E-02 1.06912E-23
1.87724E-02 1.00291E-23
1.93692E-02 9.41739E-24
1.99751E-02 8.85164E-24
2.05901E-02 8.32772E-24
2.12143E-02 7.84197E-24
2.18476E-02 7.39110E-24
2.24900E-02 6.97215E-24
2.31415E-02 6.58245E-24
2.38021E-02 6.21958E-24
2.44717E-02 5.88135E-24
2.51504E-02 5.56578E-24
2.58382E-02 5.27107E-24
2.65349E-02 4.99560E-24
2.72407E-02 4.73786E-24
2.79555E-02 4.49652E-24
2.86793E-02 4.27033E-24
2.94120E-02 4.05817E-24
3.01537E-02 3.85900E-24
3.09043E-02 3.67189E-24
3.16639E-02 3.49596E-24
3.24324E-02 3.33043E-24
3.32098E-02 3.17457E-24
3.39961E-02 3.02770E-24
3.47912E-02 2.88921E-24
3.55952E-02 2.75853E-24
3.64081E-02 2.63515E-24
3.72297E-02 2.51857E-24
3.80602E-02 2.40836E-24
3.88995E-02 2.30409E-24
3.97476E-02 2.20540E-24
4.06044E-02 2.11191E-24
4.14700E-02 2.02332E-24
4.23443E-02 1.93932E-24
4.32273E-02 1.85961E-24
4.41190E-02 1.78395E-24
4.50194E-02 1.71209E-24
4.59284E-02 1.64380E-24
4.68461E-02 1.57886E-24
4.87074E-02 1.45831E-24
5.06030E-02 1.34901E-24
5.25328E-02 1.24973E-24
5.44967E-02 1.15938E-24
5.64946E-02 1.07702E-24
5.85262E-02 1.00182E-24
6.05914E-02 9.33040E-25
6.26901E-02 8.70036E-25
6.48222E-02 8.12236E-25
6.69873E-02 7.59133E-25
6.91854E-02 7.10278E-25
7.14163E-02 6.65269E-25
7.36799E-02 6.23748E-25
7.59760E-02 5.85398E-25
7.83043E-02 5.49932E-25
8.06647E-02 5.17094E-25
8.30571E-02 4.86654E-25
8.54812E-02 4.58405E-25
8.79369E-02 4.32162E-25
9.04240E-02 4.07755E-25
9.29422E-02 3.85033E-25
9.54915E-02 3.63859E-25
9.80716E-02 3.44108E-25
1.00682E-01 3.25667E-25
1.03323E-01 3.08434E-25
1.05995E-01 2.92314E-25
1.08696E-01 2.77223E-25
1.11427E-01 2.63083E-25
1.14188E-01 2.49824E-25
1.16978E-01 2.37380E-25
1.19797E-01 2.25693E-25
1.22645E-01 2.14707E-25
1.25522E-01 2.04373E-25
1.28428E-01 1.94646E-25
1.31361E-01 1.85483E-25
1.34323E-01 1.76845E-25
1.37313E-01 1.68698E-25
1.40330E-01 1.61007E-25
1.43375E-01 1.53743E-25
1.46447E-01 1.46878E-25
1.49545E-01 1.40386E-25
1.52671E-01 1.34243E-25
1.55823E-01 1.28426E-25
1.59001E-01 1.22915E-25
1.62205E-01 1.17692E-25
1.65435E-01 1.12738E-25
1.68690E-01 1.08037E-25
1.71970E-01 1.03574E-25
1.75276E-01 9.93344E-26
1.78606E-01 9.53051E-26
1.81961E-01 9.14736E-26
1.85340E-01 8.78287E-26
1.88743E-01 8.43594E-26
1.92169E-01 8.10559E-26
1.95619E-01 7.79087E-26
1.99092E-01 7.49091E-26
2.02589E-01 7.20490E-26
2.06107E-01 6.93206E-26
2.09649E-01 6.67169E-26
2.13212E-01 6.42310E-26
2.16797E-01 6.18567E-26
2.20404E-01 5.95880E-26
2.24032E-01 5.74194E-26
2.27680E-01 5.53457E-26
2.31350E-01 5.33620E-26
2.35040E-01 5.14637E-26
2.38751E-01 4.96464E-26
2.42481E-01 4.79060E-26
2.46231E-01 4.62387E-26
2.50000E-01 4.46409E-26
2.53788E-01 4.31092E-26
2.57595E-01 4.16403E-26
2.61421E-01 4.02312E-26
2.65264E-01 3.88790E-26
2.69126E-01 3.75810E-26
2.73005E-01 3.63347E-26
2.76901E-01 3.51376E-26
2.80814E-01 3.39874E-26
2.84744E-01 3.28820E-26
2.88691E-01 3.18193E-26
2.92653E-01 3.07973E-26
2.96632E-01 2.98143E-26
3.00625E-01 2.88684E-26
3.04634E-01 2.79581E-26
3.08658E-01 2.70817E-26
3.12697E-01 2.62377E-26
3.16749E-01 2.54248E-26
3.20816E-01 2.46416E-26
3.24896E-01 2.38868E-26
3.28990E-01 2.31592E-26
3.33097E-01 2.24576E-26
3.37216E-01 2.17810E-26
3.41348E-01 2.11283E-26
3.45492E-01 2.04985E-26
3.49647E-01 1.98907E-26
3.53814E-01 1.93040E-26
3.57992E-01 1.87375E-26
3.62181E-01 1.81903E-26
3.66381E-01 1.76618E-26
3.70590E-01 1.71511E-26
3.74810E-01 1.66576E-26
3.79039E-01 1.61806E-26
3.83277E-01 1.57194E-26
3.87524E-01 1.52734E-26
3.91780E-01 1.48420E-26
3.96044E-01 1.44247E-26
4.00316E-01 1.40210E-26
4.04596E-01 1.36302E-26
4.08882E-01 1.32520E-26
4.13176E-01 1.28858E-26
4.17476E-01 1.25313E-26
4.21783E-01 1.21878E-26
4.26095E-01 1.18552E-26
4.30413E-01 1.15329E-26
4.34737E-01 1.12206E-26
4.39065E-01 1.09179E-26
4.43398E-01 1.06245E-26
4.47736E-01 1.03401E-26
4.52077E-01 1.00643E-26
4.56422E-01 9.79674E-27
4.60770E-01 9.53726E-27
4.65122E-01 9.28552E-27
4.69476E-01 9.04126E-27
4.73832E-01 8.80421E-27
4.78190E-01 8.57412E-27
4.82550E-01 8.35077E-27
4.86912E-01 8.13392E-27
4.91274E-01 7.92334E-27
4.95637E-01 7.71883E-27
5.00000E-01 7.52018E-27
5.04363E-01 7.32720E-27
5.08726E-01 7.13970E-27
5.13088E-01 6.95749E-27
5.17450E-01 6.78041E-27
5.21810E-01 6.60829E-27
5.26168E-01 6.44096E-27
5.30524E-01 6.27827E-27
5.34878E-01 6.12007E-27
5.39230E-01 5.96622E-27
5.43578E-01 5.81658E-27
5.47923E-01 5.67101E-27
5.52264E-01 5.52938E-27
5.56602E-01 5.39158E-27
5.60935E-01 5.25748E-27
5.65263E-01 5.12697E-27
5.69587E-01 4.99994E-27
5.73905E-01 4.87627E-27
5.78217E-01 4.75587E-27
5.82524E-01 4.63864E-27
5.86824E-01 4.52448E-27
5.91118E-01 4.41329E-27
5.95404E-01 4.30499E-27
5.99684E-01 4.19950E-27
6.03956E-01 4.09672E-27
6.08220E-01 3.99658E-27
6.12476E-01 3.89900E-27
6.16723E-01 3.80391E-27
6.20961E-01 3.71123E-27
6.25190E-01 3.62089E-27
6.29410E-01 3.53282E-27
6.33619E-01 3.44696E-27
6.37819E-01 3.36325E-27
6.42008E-01 3.28162E-27
6.46186E-01 3.20201E-27
6.50353E-01 3.12438E-27
6.54508E-01 3.04865E-27
6.58652E-01 2.97478E-27
6.62784E-01 2.90272E-27
6.66903E-01 2.83241E-27
6.71010E-01 2.76382E-27
6.75104E-01 2.69688E-27
6.79184E-01 2.63155E-27
6.83251E-01 2.56780E-27
6.87303E-01 2.50558E-27
6.91342E-01 2.44484E-27
6.95366E-01 2.38554E-27
6.99375E-01 2.32766E-27
7.03368E-01 2.27114E-27
7.07347E-01 2.21596E-27
7.11309E-01 2.16208E-27
7.15256E-01 2.10946E-27
7.19186E-01 2.05807E-27
7.23099E-01 2.00788E-27
7.26995E-01 1.95886E-27
7.30874E-01 1.91097E-27
7.34736E-01 1.86419E-27
7.38579E-01 1.81849E-27
7.42405E-01 1.77385E-27
7.46212E-01 1.73022E-27
7.50000E-01 1.68760E-27
7.53769E-01 1.64595E-27
7.57519E-01 1.60525E-27
7.61249E-01 1.56547E-27
7.64960E-01 1.52660E-27
7.68650E-01 1.48860E-27
7.72320E-01 1.45147E-27
7.75968E-01 1.41517E-27
7.79596E-01 1.37969E-27
7.83203E-01 1.34500E-27
7.86788E-01 1.31109E-27
7.90351E-01 1.27794E-27
7.93893E-01 1.24553E-27
7.97411E-01 1.21385E-27
8.00908E-01 1.18286E-27
8.04381E-01 1.15257E-27
8.07831E-01 1.12295E-27
8.11257E-01 1.09399E-27
8.14660E-01 1.06567E-27
8.18039E-01 1.03797E-27
8.21394E-01 1.01088E-27
8.24724E-01 9.84398E-28
8.28030E-01 9.58496E-28
8.31310E-01 9.33163E-28
8.34565E-01 9.08389E-28
8.37795E-01 8.84160E-28
8.40999E-01 8.60464E-28
8.44177E-01 8.37288E-28
8.47329E-01 8.14622E-28
8.50455E-01 7.92454E-28
8.53553E-01 7.70773E-28
8.56625E-01 7.49569E-28
8.59670E-01 7.28830E-28
8.62687E-01 7.08548E-28
8.65677E-01 6.88712E-28
8.68639E-01 6.69312E-28
8.71572E-01 6.50339E-28
8.74478E-01 6.31785E-28
8.77355E-01 6.13640E-28
8.80203E-01 5.95896E-28
8.83022E-01 5.78545E-28
8.85812E-01 5.61578E-28
8.88573E-01 5.44988E-28
8.91304E-01 5.28766E-28
8.94005E-01 5.12906E-28
8.96677E-01 4.97400E-28
8.99318E-01 4.82241E-28
9.01928E-01 4.67423E-28
9.04508E-01 4.52937E-28
9.07058E-01 4.38779E-28
9.09576E-01 4.24941E-28
9.12063E-01 4.11418E-28
9.14519E-01 3.98203E-28
9.16943E-01 3.85291E-28
9.19335E-01 3.72676E-28
9.21696E-01 3.60352E-28
9.24024E-01 3.48314E-28
9.26320E-01 3.36556E-28
9.28584E-01 3.25075E-28
9.30815E-01 3.13864E-28
9.33013E-01 3.02919E-28
9.35178E-01 2.92235E-28
9.37310E-01 2.81807E-28
9.39409E-01 2.71632E-28
9.41474E-01 2.61705E-28
9.43505E-01 2.52022E-28
9.45503E-01 2.42578E-28
9.47467E-01 2.33370E-28
9.49397E-01 2.24394E-28
9.51293E-01 2.15645E-28
9.53154E-01 2.07122E-28
9.54981E-01 1.98819E-28
9.56773E-01 1.90734E-28
9.58530E-01 1.82863E-28
9.60252E-01 1.75203E-28
9.61940E-01 1.67750E-28
9.63592E-01 1.60503E-28
9.65209E-01 1.53458E-28
9.66790E-01 1.46611E-28
9.68336E-01 1.39961E-28
9.69846E-01 1.33505E-28
9.71321E-01 1.27239E-28
9.72759E-01 1.21162E-28
9.74162E-01 1.15271E-28
9.75528E-01 1.09564E-28
9.76858E-01 1.04038E-28
9.78152E-01 9.86915E-29
9.79410E-01 9.35222E-29
9.80631E-01 8.85280E-29
9.81815E-01 8.37070E-29
9.82963E-01 7.90571E-29
9.84074E-01 7.45768E-29
9.85148E-01 7.02641E-29
9.86185E-01 6.61175E-29
9.87185E-01 6.21351E-29
9.88148E-01 5.83157E-29
9.89074E-01 5.46575E-29
9.89962E-01 5.11593E-29
9.90814E-01 4.78197E-29
9.91627E-01 4.46375E-29
9.92404E-01 4.16112E-29
9.93143E-01 3.87398E-29
9.93844E-01 3.60221E-29
9.94508E-01 3.34574E-29
9.95134E-01 3.10443E-29
9.95722E-01 2.87820E-29
9.96273E-01 2.66697E-29
9.96786E-01 2.47066E-29
9.97261E-01 2.28918E-29
9.97698E-01 2.12248E-29
9.98097E-01 1.97048E-29
9.98459E-01 1.83314E-29
9.98782E-01 1.71039E-29
9.99067E-01 1.60220E-29
9.99315E-01 1.50851E-29
9.99524E-01 1.42929E-29
9.99695E-01 1.36452E-29
9.99829E-01 1.31417E-29
9.99924E-01 1.27822E-29
9.99981E-01 1.25666E-29
1.00000E+00 1.24951E-29
