 #
 # Subroutine ELSEPA. Elastic scattering of electrons and positrons
 #                    by neutral atoms and positive ions
 #
 # Projectile: electron
 # Kinetic energy = 2.50000E+07 eV = 9.18733E+05 a.u.
 #
 # WARNING: High-energy factorization with free-atom DF screening.
 #          Absorption, polarization and exchange corrections are
 #          switched off.
 #          Phase shifts are calculated for the bare nucleus.
 #          Scattering amplitudes are not evaluated.
 #
 # Element:  N,  Z =   7,  atomic weight = 1.40067E+01 g/mol
 #
 # Nuclear model: Fermi distribution
 #                Average radius = 2.57926E-13 cm
 #                Skin thickness = 5.46000E-14 cm
 #
 # Number of electrons =  7
 #
 # Total elastic cross section = 2.59985E-19 cm**2 = 9.28422E-03 a0**2
 # 1st transport cross section = 1.50858E-25 cm**2 = 5.38724E-09 a0**2
 # 2nd transport cross section = 4.37992E-25 cm**2 = 1.56410E-08 a0**2
 #
 #
 # Differential cross section:                       MU=(1-COS(THETA))/2
 #
 #  THETA        MU          DCS          DCS        Sherman      error
 #  (deg)                 (cm**2/sr)   (a0**2/sr)    function
 #----------------------------------------------------------------------
0.00000E+00 1.21333E-12
7.61557E-13 1.21323E-12
1.18994E-12 1.21317E-12
1.71346E-12 1.21311E-12
2.33225E-12 1.21303E-12
3.04617E-12 1.21293E-12
3.85530E-12 1.21283E-12
4.75964E-12 1.21271E-12
5.75917E-12 1.21258E-12
6.85391E-12 1.21244E-12
8.04379E-12 1.21229E-12
9.32893E-12 1.21212E-12
1.07092E-11 1.21195E-12
1.21847E-11 1.21176E-12
1.37554E-11 1.21155E-12
1.54213E-11 1.21134E-12
1.71823E-11 1.21111E-12
1.90386E-11 1.21088E-12
2.09900E-11 1.21063E-12
2.30367E-11 1.21036E-12
2.51785E-11 1.21009E-12
2.74156E-11 1.20980E-12
2.97478E-11 1.20950E-12
3.21752E-11 1.20919E-12
3.46979E-11 1.20887E-12
3.73157E-11 1.20853E-12
4.00286E-11 1.20819E-12
4.28368E-11 1.20783E-12
4.57402E-11 1.20745E-12
4.87388E-11 1.20707E-12
5.18325E-11 1.20668E-12
5.50215E-11 1.20627E-12
5.83057E-11 1.20585E-12
6.16850E-11 1.20542E-12
6.51595E-11 1.20498E-12
6.87293E-11 1.20452E-12
7.23943E-11 1.20406E-12
7.61544E-11 1.20358E-12
1.18991E-10 1.19815E-12
1.71347E-10 1.19156E-12
2.33223E-10 1.18385E-12
3.04617E-10 1.17503E-12
3.85531E-10 1.16517E-12
4.75965E-10 1.15428E-12
5.75917E-10 1.14240E-12
6.85389E-10 1.12960E-12
8.04380E-10 1.11593E-12
9.32891E-10 1.10143E-12
1.07092E-09 1.08615E-12
1.21847E-09 1.07014E-12
1.37554E-09 1.05348E-12
1.54213E-09 1.03622E-12
1.71823E-09 1.01842E-12
1.90386E-09 1.00012E-12
2.09900E-09 9.81370E-13
2.30367E-09 9.62255E-13
2.51785E-09 9.41587E-13
2.74156E-09 9.20731E-13
2.97478E-09 9.00409E-13
3.21752E-09 8.80656E-13
3.46978E-09 8.61493E-13
3.73156E-09 8.42432E-13
4.00286E-09 8.20544E-13
4.28368E-09 7.99465E-13
4.57402E-09 7.79190E-13
4.87388E-09 7.59710E-13
5.18326E-09 7.41011E-13
5.50215E-09 7.21026E-13
5.83057E-09 7.00267E-13
6.16850E-09 6.80433E-13
6.51596E-09 6.61490E-13
6.87293E-09 6.43406E-13
7.23942E-09 6.26145E-13
7.61544E-09 6.06614E-13
1.18991E-08 4.43830E-13
1.71347E-08 3.17186E-13
2.33223E-08 2.25218E-13
3.04617E-08 1.60174E-13
3.85531E-08 1.14720E-13
4.75965E-08 8.30145E-14
5.75917E-08 6.08253E-14
6.85389E-08 4.52358E-14
8.04380E-08 3.41566E-14
9.32891E-08 2.61750E-14
1.07092E-07 2.03460E-14
1.21847E-07 1.60350E-14
1.37554E-07 1.28057E-14
1.54213E-07 1.03537E-14
1.71823E-07 8.46691E-15
1.90386E-07 6.99662E-15
2.09900E-07 5.83762E-15
2.30367E-07 4.91417E-15
2.51785E-07 4.17072E-15
2.74156E-07 3.56636E-15
2.97478E-07 3.07026E-15
3.21752E-07 2.65972E-15
3.46978E-07 2.31758E-15
3.73156E-07 2.02980E-15
4.00286E-07 1.78704E-15
4.28368E-07 1.57959E-15
4.57402E-07 1.40264E-15
4.87388E-07 1.24984E-15
5.18325E-07 1.11793E-15
5.50215E-07 1.00316E-15
5.83057E-07 9.02958E-16
6.16850E-07 8.15233E-16
6.51596E-07 7.37812E-16
6.87293E-07 6.69719E-16
7.23942E-07 6.09057E-16
7.61543E-07 5.55415E-16
1.18991E-06 2.43868E-16
1.71347E-06 1.22839E-16
2.33223E-06 6.81117E-17
3.04617E-06 4.06100E-17
3.85531E-06 2.56309E-17
4.75964E-06 1.69385E-17
5.75916E-06 1.16259E-17
6.85388E-06 8.23665E-18
8.04378E-06 5.99445E-18
9.32888E-06 4.46448E-18
1.07092E-05 3.39218E-18
1.21846E-05 2.62294E-18
1.37553E-05 2.05967E-18
1.54212E-05 1.63967E-18
1.71822E-05 1.32139E-18
1.90385E-05 1.07702E-18
2.09899E-05 8.86301E-19
2.30365E-05 7.35890E-19
2.51783E-05 6.16039E-19
2.74153E-05 5.19630E-19
2.97475E-05 4.41391E-19
3.21749E-05 3.77366E-19
3.46974E-05 3.24557E-19
3.73152E-05 2.80675E-19
4.00281E-05 2.43958E-19
4.28362E-05 2.13044E-19
4.57395E-05 1.86864E-19
4.87380E-05 1.64580E-19
5.18317E-05 1.45517E-19
5.50205E-05 1.29138E-19
5.83045E-05 1.15004E-19
6.16838E-05 1.02756E-19
6.51582E-05 9.20975E-20
6.87277E-05 8.27863E-20
7.23925E-05 7.46216E-20
7.61524E-05 6.74364E-20
9.21439E-05 4.60622E-20
1.09658E-04 3.25301E-20
1.28695E-04 2.36203E-20
1.49255E-04 1.75633E-20
1.71338E-04 1.33298E-20
1.94942E-04 1.02979E-20
2.20070E-04 8.08176E-21
2.46720E-04 6.43068E-21
2.74892E-04 5.18075E-21
3.04586E-04 4.22029E-21
3.35803E-04 3.47244E-21
3.68542E-04 2.88324E-21
4.02802E-04 2.41383E-21
4.38585E-04 2.03624E-21
4.75889E-04 1.72967E-21
5.14715E-04 1.47870E-21
5.55063E-04 1.27166E-21
5.96931E-04 1.09962E-21
6.40321E-04 9.55729E-22
6.85233E-04 8.34619E-22
7.31665E-04 7.32110E-22
7.79618E-04 6.44869E-22
8.29092E-04 5.70246E-22
8.80086E-04 5.06118E-22
9.32601E-04 4.50754E-22
9.86636E-04 4.02763E-22
1.04219E-03 3.60992E-22
1.09927E-03 3.24501E-22
1.15786E-03 2.92508E-22
1.21797E-03 2.64362E-22
1.27961E-03 2.39524E-22
1.34276E-03 2.17535E-22
1.40743E-03 1.98014E-22
1.47362E-03 1.80635E-22
1.54133E-03 1.65122E-22
1.61056E-03 1.51240E-22
1.68131E-03 1.38786E-22
1.75357E-03 1.27590E-22
1.82735E-03 1.17500E-22
1.90265E-03 1.08388E-22
1.97947E-03 1.00143E-22
2.05780E-03 9.26671E-23
2.13765E-03 8.58766E-23
2.21902E-03 7.96969E-23
2.30190E-03 7.40634E-23
2.38630E-03 6.89191E-23
2.47222E-03 6.42139E-23
2.55965E-03 5.99037E-23
2.64859E-03 5.59491E-23
2.73905E-03 5.23157E-23
2.83103E-03 4.89726E-23
2.92452E-03 4.58924E-23
3.01952E-03 4.30507E-23
3.11604E-03 4.04255E-23
3.21407E-03 3.79976E-23
3.31362E-03 3.57492E-23
3.41468E-03 3.36648E-23
3.51725E-03 3.17301E-23
3.62133E-03 2.99325E-23
3.72692E-03 2.82604E-23
3.83403E-03 2.67035E-23
3.94265E-03 2.52523E-23
4.05278E-03 2.38985E-23
4.16442E-03 2.26341E-23
4.27757E-03 2.14524E-23
4.39223E-03 2.03467E-23
4.50840E-03 1.93114E-23
4.62608E-03 1.83411E-23
4.74527E-03 1.74311E-23
4.86597E-03 1.65767E-23
4.98817E-03 1.57741E-23
5.11188E-03 1.50195E-23
5.23711E-03 1.43095E-23
5.36383E-03 1.36410E-23
5.49207E-03 1.30110E-23
5.62181E-03 1.24170E-23
5.75306E-03 1.18566E-23
5.88581E-03 1.13273E-23
6.02007E-03 1.08273E-23
6.15583E-03 1.03546E-23
6.29310E-03 9.90743E-24
6.43187E-03 9.48412E-24
6.57214E-03 9.08317E-24
6.71392E-03 8.70320E-24
6.85720E-03 8.34288E-24
7.00198E-03 8.00102E-24
7.14827E-03 7.67650E-24
7.29605E-03 7.36826E-24
7.44534E-03 7.07533E-24
7.59612E-03 6.79682E-24
7.97965E-03 6.15820E-24
8.37255E-03 5.59285E-24
8.77480E-03 5.09090E-24
9.18641E-03 4.64401E-24
9.60736E-03 4.24508E-24
1.00376E-02 3.88807E-24
1.04773E-02 3.56781E-24
1.09262E-02 3.27984E-24
1.13844E-02 3.02033E-24
1.18520E-02 2.78598E-24
1.23288E-02 2.57391E-24
1.28150E-02 2.38163E-24
1.33104E-02 2.20696E-24
1.38150E-02 2.04801E-24
1.43290E-02 1.90310E-24
1.48521E-02 1.77077E-24
1.53845E-02 1.64974E-24
1.59262E-02 1.53886E-24
1.64770E-02 1.43713E-24
1.70371E-02 1.34367E-24
1.76063E-02 1.25767E-24
1.81848E-02 1.17843E-24
1.87724E-02 1.10533E-24
1.93692E-02 1.03781E-24
1.99751E-02 9.75351E-25
2.05901E-02 9.17517E-25
2.12143E-02 8.63899E-25
2.18476E-02 8.14135E-25
2.24900E-02 7.67897E-25
2.31415E-02 7.24889E-25
2.38021E-02 6.84845E-25
2.44717E-02 6.47522E-25
2.51504E-02 6.12702E-25
2.58382E-02 5.80186E-25
2.65349E-02 5.49794E-25
2.72407E-02 5.21361E-25
2.79555E-02 4.94739E-25
2.86793E-02 4.69789E-25
2.94120E-02 4.46388E-25
3.01537E-02 4.24423E-25
3.09043E-02 4.03788E-25
3.16639E-02 3.84388E-25
3.24324E-02 3.66135E-25
3.32098E-02 3.48950E-25
3.39961E-02 3.32758E-25
3.47912E-02 3.17491E-25
3.55952E-02 3.03086E-25
3.64081E-02 2.89487E-25
3.72297E-02 2.76638E-25
3.80602E-02 2.64492E-25
3.88995E-02 2.53002E-25
3.97476E-02 2.42127E-25
4.06044E-02 2.31827E-25
4.14700E-02 2.22067E-25
4.23443E-02 2.12813E-25
4.32273E-02 2.04033E-25
4.41190E-02 1.95700E-25
4.50194E-02 1.87785E-25
4.59284E-02 1.80265E-25
4.68461E-02 1.73115E-25
4.87074E-02 1.59842E-25
5.06030E-02 1.47811E-25
5.25328E-02 1.36884E-25
5.44967E-02 1.26942E-25
5.64946E-02 1.17881E-25
5.85262E-02 1.09609E-25
6.05914E-02 1.02045E-25
6.26901E-02 9.51177E-26
6.48222E-02 8.87638E-26
6.69873E-02 8.29276E-26
6.91854E-02 7.75593E-26
7.14163E-02 7.26147E-26
7.36799E-02 6.80544E-26
7.59760E-02 6.38433E-26
7.83043E-02 5.99497E-26
8.06647E-02 5.63455E-26
8.30571E-02 5.30053E-26
8.54812E-02 4.99063E-26
8.79369E-02 4.70279E-26
9.04240E-02 4.43517E-26
9.29422E-02 4.18609E-26
9.54915E-02 3.95404E-26
9.80716E-02 3.73763E-26
1.00682E-01 3.53564E-26
1.03323E-01 3.34691E-26
1.05995E-01 3.17044E-26
1.08696E-01 3.00527E-26
1.11427E-01 2.85056E-26
1.14188E-01 2.70552E-26
1.16978E-01 2.56944E-26
1.19797E-01 2.44167E-26
1.22645E-01 2.32161E-26
1.25522E-01 2.20871E-26
1.28428E-01 2.10246E-26
1.31361E-01 2.00241E-26
1.34323E-01 1.90812E-26
1.37313E-01 1.81921E-26
1.40330E-01 1.73532E-26
1.43375E-01 1.65610E-26
1.46447E-01 1.58126E-26
1.49545E-01 1.51051E-26
1.52671E-01 1.44358E-26
1.55823E-01 1.38023E-26
1.59001E-01 1.32024E-26
1.62205E-01 1.26339E-26
1.65435E-01 1.20950E-26
1.68690E-01 1.15837E-26
1.71970E-01 1.10985E-26
1.75276E-01 1.06377E-26
1.78606E-01 1.02000E-26
1.81961E-01 9.78391E-27
1.85340E-01 9.38822E-27
1.88743E-01 9.01176E-27
1.92169E-01 8.65341E-27
1.95619E-01 8.31216E-27
1.99092E-01 7.98704E-27
2.02589E-01 7.67715E-27
2.06107E-01 7.38166E-27
2.09649E-01 7.09978E-27
2.13212E-01 6.83077E-27
2.16797E-01 6.57394E-27
2.20404E-01 6.32864E-27
2.24032E-01 6.09426E-27
2.27680E-01 5.87023E-27
2.31350E-01 5.65601E-27
2.35040E-01 5.45110E-27
2.38751E-01 5.25503E-27
2.42481E-01 5.06734E-27
2.46231E-01 4.88761E-27
2.50000E-01 4.71545E-27
2.53788E-01 4.55048E-27
2.57595E-01 4.39235E-27
2.61421E-01 4.24073E-27
2.65264E-01 4.09530E-27
2.69126E-01 3.95577E-27
2.73005E-01 3.82185E-27
2.76901E-01 3.69328E-27
2.80814E-01 3.56981E-27
2.84744E-01 3.45121E-27
2.88691E-01 3.33724E-27
2.92653E-01 3.22770E-27
2.96632E-01 3.12238E-27
3.00625E-01 3.02110E-27
3.04634E-01 2.92367E-27
3.08658E-01 2.82992E-27
3.12697E-01 2.73969E-27
3.16749E-01 2.65282E-27
3.20816E-01 2.56917E-27
3.24896E-01 2.48860E-27
3.28990E-01 2.41097E-27
3.33097E-01 2.33616E-27
3.37216E-01 2.26405E-27
3.41348E-01 2.19453E-27
3.45492E-01 2.12749E-27
3.49647E-01 2.06282E-27
3.53814E-01 2.00042E-27
3.57992E-01 1.94021E-27
3.62181E-01 1.88210E-27
3.66381E-01 1.82599E-27
3.70590E-01 1.77181E-27
3.74810E-01 1.71948E-27
3.79039E-01 1.66893E-27
3.83277E-01 1.62008E-27
3.87524E-01 1.57288E-27
3.91780E-01 1.52725E-27
3.96044E-01 1.48313E-27
4.00316E-01 1.44047E-27
4.04596E-01 1.39921E-27
4.08882E-01 1.35930E-27
4.13176E-01 1.32068E-27
4.17476E-01 1.28331E-27
4.21783E-01 1.24714E-27
4.26095E-01 1.21213E-27
4.30413E-01 1.17823E-27
4.34737E-01 1.14539E-27
4.39065E-01 1.11360E-27
4.43398E-01 1.08279E-27
4.47736E-01 1.05295E-27
4.52077E-01 1.02402E-27
4.56422E-01 9.95992E-28
4.60770E-01 9.68820E-28
4.65122E-01 9.42477E-28
4.69476E-01 9.16933E-28
4.73832E-01 8.92161E-28
4.78190E-01 8.68132E-28
4.82550E-01 8.44823E-28
4.86912E-01 8.22207E-28
4.91274E-01 8.00262E-28
4.95637E-01 7.78963E-28
5.00000E-01 7.58290E-28
5.04363E-01 7.38220E-28
5.08726E-01 7.18734E-28
5.13088E-01 6.99812E-28
5.17450E-01 6.81436E-28
5.21810E-01 6.63586E-28
5.26168E-01 6.46247E-28
5.30524E-01 6.29400E-28
5.34878E-01 6.13031E-28
5.39230E-01 5.97123E-28
5.43578E-01 5.81661E-28
5.47923E-01 5.66632E-28
5.52264E-01 5.52021E-28
5.56602E-01 5.37815E-28
5.60935E-01 5.24001E-28
5.65263E-01 5.10567E-28
5.69587E-01 4.97501E-28
5.73905E-01 4.84790E-28
5.78217E-01 4.72426E-28
5.82524E-01 4.60395E-28
5.86824E-01 4.48689E-28
5.91118E-01 4.37297E-28
5.95404E-01 4.26210E-28
5.99684E-01 4.15417E-28
6.03956E-01 4.04912E-28
6.08220E-01 3.94684E-28
6.12476E-01 3.84725E-28
6.16723E-01 3.75028E-28
6.20961E-01 3.65584E-28
6.25190E-01 3.56386E-28
6.29410E-01 3.47427E-28
6.33619E-01 3.38700E-28
6.37819E-01 3.30197E-28
6.42008E-01 3.21913E-28
6.46186E-01 3.13842E-28
6.50353E-01 3.05976E-28
6.54508E-01 2.98310E-28
6.58652E-01 2.90838E-28
6.62784E-01 2.83555E-28
6.66903E-01 2.76455E-28
6.71010E-01 2.69534E-28
6.75104E-01 2.62786E-28
6.79184E-01 2.56206E-28
6.83251E-01 2.49789E-28
6.87303E-01 2.43532E-28
6.91342E-01 2.37429E-28
6.95366E-01 2.31477E-28
6.99375E-01 2.25671E-28
7.03368E-01 2.20007E-28
7.07347E-01 2.14481E-28
7.11309E-01 2.09091E-28
7.15256E-01 2.03831E-28
7.19186E-01 1.98698E-28
7.23099E-01 1.93689E-28
7.26995E-01 1.88801E-28
7.30874E-01 1.84031E-28
7.34736E-01 1.79375E-28
7.38579E-01 1.74830E-28
7.42405E-01 1.70394E-28
7.46212E-01 1.66063E-28
7.50000E-01 1.61835E-28
7.53769E-01 1.57708E-28
7.57519E-01 1.53678E-28
7.61249E-01 1.49742E-28
7.64960E-01 1.45900E-28
7.68650E-01 1.42148E-28
7.72320E-01 1.38483E-28
7.75968E-01 1.34905E-28
7.79596E-01 1.31410E-28
7.83203E-01 1.27996E-28
7.86788E-01 1.24662E-28
7.90351E-01 1.21405E-28
7.93893E-01 1.18224E-28
7.97411E-01 1.15116E-28
8.00908E-01 1.12080E-28
8.04381E-01 1.09114E-28
8.07831E-01 1.06217E-28
8.11257E-01 1.03386E-28
8.14660E-01 1.00620E-28
8.18039E-01 9.79182E-29
8.21394E-01 9.52779E-29
8.24724E-01 9.26982E-29
8.28030E-01 9.01774E-29
8.31310E-01 8.77144E-29
8.34565E-01 8.53076E-29
8.37795E-01 8.29558E-29
8.40999E-01 8.06577E-29
8.44177E-01 7.84120E-29
8.47329E-01 7.62175E-29
8.50455E-01 7.40731E-29
8.53553E-01 7.19775E-29
8.56625E-01 6.99297E-29
8.59670E-01 6.79286E-29
8.62687E-01 6.59732E-29
8.65677E-01 6.40623E-29
8.68639E-01 6.21950E-29
8.71572E-01 6.03704E-29
8.74478E-01 5.85874E-29
8.77355E-01 5.68452E-29
8.80203E-01 5.51429E-29
8.83022E-01 5.34796E-29
8.85812E-01 5.18545E-29
8.88573E-01 5.02667E-29
8.91304E-01 4.87154E-29
8.94005E-01 4.71999E-29
8.96677E-01 4.57194E-29
8.99318E-01 4.42732E-29
9.01928E-01 4.28605E-29
9.04508E-01 4.14807E-29
9.07058E-01 4.01330E-29
9.09576E-01 3.88169E-29
9.12063E-01 3.75316E-29
9.14519E-01 3.62766E-29
9.16943E-01 3.50512E-29
9.19335E-01 3.38549E-29
9.21696E-01 3.26871E-29
9.24024E-01 3.15472E-29
9.26320E-01 3.04346E-29
9.28584E-01 2.93490E-29
9.30815E-01 2.82896E-29
9.33013E-01 2.72561E-29
9.35178E-01 2.62480E-29
9.37310E-01 2.52647E-29
9.39409E-01 2.43059E-29
9.41474E-01 2.33710E-29
9.43505E-01 2.24597E-29
9.45503E-01 2.15716E-29
9.47467E-01 2.07061E-29
9.49397E-01 1.98630E-29
9.51293E-01 1.90418E-29
9.53154E-01 1.82421E-29
9.54981E-01 1.74637E-29
9.56773E-01 1.67061E-29
9.58530E-01 1.59690E-29
9.60252E-01 1.52521E-29
9.61940E-01 1.45550E-29
9.63592E-01 1.38775E-29
9.65209E-01 1.32191E-29
9.66790E-01 1.25798E-29
9.68336E-01 1.19591E-29
9.69846E-01 1.13567E-29
9.71321E-01 1.07725E-29
9.72759E-01 1.02062E-29
9.74162E-01 9.65743E-30
9.75528E-01 9.12603E-30
9.76858E-01 8.61178E-30
9.78152E-01 8.11443E-30
9.79410E-01 7.63378E-30
9.80631E-01 7.16961E-30
9.81815E-01 6.72171E-30
9.82963E-01 6.28990E-30
9.84074E-01 5.87400E-30
9.85148E-01 5.47380E-30
9.86185E-01 5.08916E-30
9.87185E-01 4.71989E-30
9.88148E-01 4.36584E-30
9.89074E-01 4.02686E-30
9.89962E-01 3.70281E-30
9.90814E-01 3.39354E-30
9.91627E-01 3.09892E-30
9.92404E-01 2.81883E-30
9.93143E-01 2.55315E-30
9.93844E-01 2.30175E-30
9.94508E-01 2.06455E-30
9.95134E-01 1.84143E-30
9.95722E-01 1.63231E-30
9.96273E-01 1.43708E-30
9.96786E-01 1.25568E-30
9.97261E-01 1.08801E-30
9.97698E-01 9.34030E-31
9.98097E-01 7.93645E-31
9.98459E-01 6.66811E-31
9.98782E-01 5.53470E-31
9.99067E-01 4.53576E-31
9.99315E-01 3.67091E-31
9.99524E-01 2.93964E-31
9.99695E-01 2.34179E-31
9.99829E-01 1.87706E-31
9.99924E-01 1.54525E-31
9.99981E-01 1.34624E-31
1.00000E+00 1.28007E-31
