 #
 # Subroutine ELSEPA. Elastic scattering of electrons and positrons
 #                    by neutral atoms and positive ions
 #
 # Projectile: electron
 # Kinetic energy = 1.00000E+07 eV = 3.67493E+05 a.u.
 #
 # WARNING: High-energy factorization with free-atom DF screening.
 #          Absorption, polarization and exchange corrections are
 #          switched off.
 #          Phase shifts are calculated for the bare nucleus.
 #          Scattering amplitudes are not evaluated.
 #
 # Element: Tl,  Z =  81,  atomic weight = 2.04383E+02 g/mol
 #
 # Nuclear model: Fermi distribution
 #                Average radius = 6.30278E-13 cm
 #                Skin thickness = 5.46000E-14 cm
 #
 # Number of electrons = 81
 #
 # Total elastic cross section = 8.30948E-18 cm**2 = 2.96737E-01 a0**2
 # 1st transport cross section = 1.07183E-22 cm**2 = 3.82756E-06 a0**2
 # 2nd transport cross section = 2.93197E-22 cm**2 = 1.04702E-05 a0**2
 #
 #
 # Differential cross section:                       MU=(1-COS(THETA))/2
 #
 #  THETA        MU          DCS          DCS        Sherman      error
 #  (deg)                 (cm**2/sr)   (a0**2/sr)    function
 #----------------------------------------------------------------------
0.00000E+00 6.23774E-12
7.61557E-13 6.23756E-12
1.18994E-12 6.23745E-12
1.71346E-12 6.23733E-12
2.33225E-12 6.23718E-12
3.04617E-12 6.23701E-12
3.85530E-12 6.23681E-12
4.75964E-12 6.23660E-12
5.75917E-12 6.23636E-12
6.85391E-12 6.23609E-12
8.04379E-12 6.23581E-12
9.32893E-12 6.23550E-12
1.07092E-11 6.23517E-12
1.21847E-11 6.23482E-12
1.37554E-11 6.23444E-12
1.54213E-11 6.23404E-12
1.71823E-11 6.23362E-12
1.90386E-11 6.23318E-12
2.09900E-11 6.23271E-12
2.30367E-11 6.23223E-12
2.51785E-11 6.23171E-12
2.74156E-11 6.23118E-12
2.97478E-11 6.23062E-12
3.21752E-11 6.23004E-12
3.46979E-11 6.22944E-12
3.73157E-11 6.22882E-12
4.00286E-11 6.22817E-12
4.28368E-11 6.22750E-12
4.57402E-11 6.22681E-12
4.87388E-11 6.22610E-12
5.18325E-11 6.22536E-12
5.50215E-11 6.22460E-12
5.83057E-11 6.22382E-12
6.16850E-11 6.22301E-12
6.51595E-11 6.22219E-12
6.87293E-11 6.22134E-12
7.23943E-11 6.22047E-12
7.61544E-11 6.21957E-12
1.18991E-10 6.20941E-12
1.71347E-10 6.19704E-12
2.33223E-10 6.18248E-12
3.04617E-10 6.16578E-12
3.85531E-10 6.14696E-12
4.75965E-10 6.12606E-12
5.75917E-10 6.10313E-12
6.85389E-10 6.07821E-12
8.04380E-10 6.05136E-12
9.32891E-10 6.02264E-12
1.07092E-09 5.99209E-12
1.21847E-09 5.95979E-12
1.37554E-09 5.92578E-12
1.54213E-09 5.89015E-12
1.71823E-09 5.85295E-12
1.90386E-09 5.81425E-12
2.09900E-09 5.77412E-12
2.30367E-09 5.73254E-12
2.51785E-09 5.68973E-12
2.74156E-09 5.64575E-12
2.97478E-09 5.60068E-12
3.21752E-09 5.55460E-12
3.46978E-09 5.50732E-12
3.73156E-09 5.45913E-12
4.00286E-09 5.41016E-12
4.28368E-09 5.36048E-12
4.57402E-09 5.31016E-12
4.87388E-09 5.25900E-12
5.18326E-09 5.20719E-12
5.50215E-09 5.15496E-12
5.83057E-09 5.10237E-12
6.16850E-09 5.04948E-12
6.51596E-09 4.99615E-12
6.87293E-09 4.94233E-12
7.23942E-09 4.88840E-12
7.61544E-09 4.83441E-12
1.18991E-08 4.29525E-12
1.71347E-08 3.78240E-12
2.33223E-08 3.31636E-12
3.04617E-08 2.90414E-12
3.85531E-08 2.54496E-12
4.75965E-08 2.23426E-12
5.75917E-08 1.96625E-12
6.85389E-08 1.73489E-12
8.04380E-08 1.53486E-12
9.32891E-08 1.36163E-12
1.07092E-07 1.21119E-12
1.21847E-07 1.08015E-12
1.37554E-07 9.65662E-13
1.54213E-07 8.65339E-13
1.71823E-07 7.77185E-13
1.90386E-07 6.99519E-13
2.09900E-07 6.30331E-13
2.30367E-07 5.64832E-13
2.51785E-07 5.09450E-13
2.74156E-07 4.62315E-13
2.97478E-07 4.21947E-13
3.21752E-07 3.87170E-13
3.46978E-07 3.51744E-13
3.73156E-07 3.20380E-13
4.00286E-07 2.93157E-13
4.28368E-07 2.69413E-13
4.57402E-07 2.48608E-13
4.87388E-07 2.28615E-13
5.18325E-07 2.10141E-13
5.50215E-07 1.93841E-13
5.83057E-07 1.79405E-13
6.16850E-07 1.66573E-13
6.51596E-07 1.54635E-13
6.87293E-07 1.43320E-13
7.23942E-07 1.33201E-13
7.61543E-07 1.24123E-13
1.18991E-06 6.54207E-14
1.71347E-06 3.79587E-14
2.33223E-06 2.35006E-14
3.04617E-06 1.52385E-14
3.85531E-06 1.02552E-14
4.75964E-06 7.13143E-15
5.75916E-06 5.10691E-15
6.85388E-06 3.75436E-15
8.04378E-06 2.82842E-15
9.32888E-06 2.17478E-15
1.07092E-05 1.70087E-15
1.21846E-05 1.35009E-15
1.37553E-05 1.08598E-15
1.54212E-05 8.83887E-16
1.71822E-05 7.26848E-16
1.90385E-05 6.02809E-16
2.09899E-05 5.04719E-16
2.30365E-05 4.25459E-16
2.51783E-05 3.61682E-16
2.74153E-05 3.08846E-16
2.97475E-05 2.65638E-16
3.21749E-05 2.29484E-16
3.46974E-05 1.99474E-16
3.73152E-05 1.74130E-16
4.00281E-05 1.52789E-16
4.28362E-05 1.34574E-16
4.57395E-05 1.19027E-16
4.87380E-05 1.05634E-16
5.18317E-05 9.40754E-17
5.50205E-05 8.40442E-17
5.83045E-05 7.53119E-17
6.16838E-05 6.76871E-17
6.51582E-05 6.09992E-17
6.87277E-05 5.51248E-17
7.23925E-05 4.99345E-17
7.61524E-05 4.53454E-17
9.21439E-05 3.15051E-17
1.09658E-04 2.25657E-17
1.28695E-04 1.65884E-17
1.49255E-04 1.24684E-17
1.71338E-04 9.55424E-18
1.94942E-04 7.44513E-18
2.20070E-04 5.88789E-18
2.46720E-04 4.71765E-18
2.74892E-04 3.82435E-18
3.04586E-04 3.13283E-18
3.35803E-04 2.59079E-18
3.68542E-04 2.16103E-18
4.02802E-04 1.81678E-18
4.38585E-04 1.53841E-18
4.75889E-04 1.31136E-18
5.14715E-04 1.12471E-18
5.55063E-04 9.70128E-19
5.96931E-04 8.41232E-19
6.40321E-04 7.33067E-19
6.85233E-04 6.41758E-19
7.31665E-04 5.64255E-19
7.79618E-04 4.98121E-19
8.29092E-04 4.41417E-19
8.80086E-04 3.92573E-19
9.32601E-04 3.50315E-19
9.86636E-04 3.13607E-19
1.04219E-03 2.81595E-19
1.09927E-03 2.53577E-19
1.15786E-03 2.28968E-19
1.21797E-03 2.07282E-19
1.27961E-03 1.88112E-19
1.34276E-03 1.71115E-19
1.40743E-03 1.56002E-19
1.47362E-03 1.42526E-19
1.54133E-03 1.30480E-19
1.61056E-03 1.19685E-19
1.68131E-03 1.09988E-19
1.75357E-03 1.01258E-19
1.82735E-03 9.33798E-20
1.90265E-03 8.62567E-20
1.97947E-03 7.98029E-20
2.05780E-03 7.39442E-20
2.13765E-03 6.86155E-20
2.21902E-03 6.37609E-20
2.30190E-03 5.93304E-20
2.38630E-03 5.52798E-20
2.47222E-03 5.15706E-20
2.55965E-03 4.81691E-20
2.64859E-03 4.50450E-20
2.73905E-03 4.21716E-20
2.83103E-03 3.95247E-20
2.92452E-03 3.70835E-20
3.01952E-03 3.48290E-20
3.11604E-03 3.27444E-20
3.21407E-03 3.08142E-20
3.31362E-03 2.90251E-20
3.41468E-03 2.73649E-20
3.51725E-03 2.58224E-20
3.62133E-03 2.43878E-20
3.72692E-03 2.30522E-20
3.83403E-03 2.18073E-20
3.94265E-03 2.06461E-20
4.05278E-03 1.95616E-20
4.16442E-03 1.85479E-20
4.27757E-03 1.75996E-20
4.39223E-03 1.67116E-20
4.50840E-03 1.58793E-20
4.62608E-03 1.50986E-20
4.74527E-03 1.43657E-20
4.86597E-03 1.36771E-20
4.98817E-03 1.30297E-20
5.11188E-03 1.24205E-20
5.23711E-03 1.18467E-20
5.36383E-03 1.13060E-20
5.49207E-03 1.07961E-20
5.62181E-03 1.03150E-20
5.75306E-03 9.86054E-21
5.88581E-03 9.43112E-21
6.02007E-03 9.02507E-21
6.15583E-03 8.64087E-21
6.29310E-03 8.27711E-21
6.43187E-03 7.93249E-21
6.57214E-03 7.60582E-21
6.71392E-03 7.29599E-21
6.85720E-03 7.00195E-21
7.00198E-03 6.72275E-21
7.14827E-03 6.45749E-21
7.29605E-03 6.20534E-21
7.44534E-03 5.96554E-21
7.59612E-03 5.73734E-21
7.97965E-03 5.21339E-21
8.37255E-03 4.74863E-21
8.77480E-03 4.33518E-21
9.18641E-03 3.96636E-21
9.60736E-03 3.63648E-21
1.00376E-02 3.34068E-21
1.04773E-02 3.07479E-21
1.09262E-02 2.83525E-21
1.13844E-02 2.61896E-21
1.18520E-02 2.42324E-21
1.23288E-02 2.24579E-21
1.28150E-02 2.08457E-21
1.33104E-02 1.93782E-21
1.38150E-02 1.80400E-21
1.43290E-02 1.68176E-21
1.48521E-02 1.56991E-21
1.53845E-02 1.46739E-21
1.59262E-02 1.37329E-21
1.64770E-02 1.28677E-21
1.70371E-02 1.20711E-21
1.76063E-02 1.13366E-21
1.81848E-02 1.06584E-21
1.87724E-02 1.00314E-21
1.93692E-02 9.45094E-22
1.99751E-02 8.91293E-22
2.05901E-02 8.41365E-22
2.12143E-02 7.94976E-22
2.18476E-02 7.51825E-22
2.24900E-02 7.11643E-22
2.31415E-02 6.74184E-22
2.38021E-02 6.39227E-22
2.44717E-02 6.06573E-22
2.51504E-02 5.76039E-22
2.58382E-02 5.47460E-22
2.65349E-02 5.20685E-22
2.72407E-02 4.95578E-22
2.79555E-02 4.72013E-22
2.86793E-02 4.49878E-22
2.94120E-02 4.29067E-22
3.01537E-02 4.09486E-22
3.09043E-02 3.91046E-22
3.16639E-02 3.73668E-22
3.24324E-02 3.57278E-22
3.32098E-02 3.41809E-22
3.39961E-02 3.27197E-22
3.47912E-02 3.13385E-22
3.55952E-02 3.00321E-22
3.64081E-02 2.87956E-22
3.72297E-02 2.76244E-22
3.80602E-02 2.65145E-22
3.88995E-02 2.54618E-22
3.97476E-02 2.44628E-22
4.06044E-02 2.35143E-22
4.14700E-02 2.26131E-22
4.23443E-02 2.17563E-22
4.32273E-02 2.09414E-22
4.41190E-02 2.01658E-22
4.50194E-02 1.94273E-22
4.59284E-02 1.87236E-22
4.68461E-02 1.80528E-22
4.87074E-02 1.68026E-22
5.06030E-02 1.56630E-22
5.25328E-02 1.46224E-22
5.44967E-02 1.36703E-22
5.64946E-02 1.27977E-22
5.85262E-02 1.19966E-22
6.05914E-02 1.12598E-22
6.26901E-02 1.05812E-22
6.48222E-02 9.95512E-23
6.69873E-02 9.37670E-23
6.91854E-02 8.84154E-23
7.14163E-02 8.34572E-23
7.36799E-02 7.88570E-23
7.59760E-02 7.45834E-23
7.83043E-02 7.06086E-23
8.06647E-02 6.69069E-23
8.30571E-02 6.34553E-23
8.54812E-02 6.02336E-23
8.79369E-02 5.72230E-23
9.04240E-02 5.44063E-23
9.29422E-02 5.17687E-23
9.54915E-02 4.92962E-23
9.80716E-02 4.69758E-23
1.00682E-01 4.47967E-23
1.03323E-01 4.27478E-23
1.05995E-01 4.08198E-23
1.08696E-01 3.90041E-23
1.11427E-01 3.72925E-23
1.14188E-01 3.56778E-23
1.16978E-01 3.41532E-23
1.19797E-01 3.27125E-23
1.22645E-01 3.13501E-23
1.25522E-01 3.00608E-23
1.28428E-01 2.88397E-23
1.31361E-01 2.76824E-23
1.34323E-01 2.65849E-23
1.37313E-01 2.55432E-23
1.40330E-01 2.45540E-23
1.43375E-01 2.36140E-23
1.46447E-01 2.27201E-23
1.49545E-01 2.18696E-23
1.52671E-01 2.10600E-23
1.55823E-01 2.02886E-23
1.59001E-01 1.95534E-23
1.62205E-01 1.88523E-23
1.65435E-01 1.81833E-23
1.68690E-01 1.75446E-23
1.71970E-01 1.69345E-23
1.75276E-01 1.63514E-23
1.78606E-01 1.57939E-23
1.81961E-01 1.52605E-23
1.85340E-01 1.47500E-23
1.88743E-01 1.42612E-23
1.92169E-01 1.37929E-23
1.95619E-01 1.33442E-23
1.99092E-01 1.29138E-23
2.02589E-01 1.25010E-23
2.06107E-01 1.21049E-23
2.09649E-01 1.17246E-23
2.13212E-01 1.13594E-23
2.16797E-01 1.10084E-23
2.20404E-01 1.06711E-23
2.24032E-01 1.03468E-23
2.27680E-01 1.00348E-23
2.31350E-01 9.73463E-24
2.35040E-01 9.44569E-24
2.38751E-01 9.16747E-24
2.42481E-01 8.89951E-24
2.46231E-01 8.64128E-24
2.50000E-01 8.39216E-24
2.53788E-01 8.15195E-24
2.57595E-01 7.92026E-24
2.61421E-01 7.69672E-24
2.65264E-01 7.48096E-24
2.69126E-01 7.27267E-24
2.73005E-01 7.07151E-24
2.76901E-01 6.87719E-24
2.80814E-01 6.68943E-24
2.84744E-01 6.50794E-24
2.88691E-01 6.33248E-24
2.92653E-01 6.16279E-24
2.96632E-01 5.99864E-24
3.00625E-01 5.83982E-24
3.04634E-01 5.68610E-24
3.08658E-01 5.53729E-24
3.12697E-01 5.39320E-24
3.16749E-01 5.25363E-24
3.20816E-01 5.11842E-24
3.24896E-01 4.98740E-24
3.28990E-01 4.86041E-24
3.33097E-01 4.73729E-24
3.37216E-01 4.61791E-24
3.41348E-01 4.50212E-24
3.45492E-01 4.38979E-24
3.49647E-01 4.28080E-24
3.53814E-01 4.17502E-24
3.57992E-01 4.07234E-24
3.62181E-01 3.97264E-24
3.66381E-01 3.87582E-24
3.70590E-01 3.78179E-24
3.74810E-01 3.69043E-24
3.79039E-01 3.60166E-24
3.83277E-01 3.51539E-24
3.87524E-01 3.43153E-24
3.91780E-01 3.35000E-24
3.96044E-01 3.27073E-24
4.00316E-01 3.19363E-24
4.04596E-01 3.11863E-24
4.08882E-01 3.04566E-24
4.13176E-01 2.97466E-24
4.17476E-01 2.90556E-24
4.21783E-01 2.83830E-24
4.26095E-01 2.77282E-24
4.30413E-01 2.70907E-24
4.34737E-01 2.64698E-24
4.39065E-01 2.58650E-24
4.43398E-01 2.52759E-24
4.47736E-01 2.47020E-24
4.52077E-01 2.41427E-24
4.56422E-01 2.35976E-24
4.60770E-01 2.30664E-24
4.65122E-01 2.25485E-24
4.69476E-01 2.20435E-24
4.73832E-01 2.15511E-24
4.78190E-01 2.10709E-24
4.82550E-01 2.06026E-24
4.86912E-01 2.01457E-24
4.91274E-01 1.96999E-24
4.95637E-01 1.92650E-24
5.00000E-01 1.88405E-24
5.04363E-01 1.84262E-24
5.08726E-01 1.80219E-24
5.13088E-01 1.76271E-24
5.17450E-01 1.72417E-24
5.21810E-01 1.68654E-24
5.26168E-01 1.64978E-24
5.30524E-01 1.61389E-24
5.34878E-01 1.57882E-24
5.39230E-01 1.54457E-24
5.43578E-01 1.51111E-24
5.47923E-01 1.47841E-24
5.52264E-01 1.44646E-24
5.56602E-01 1.41523E-24
5.60935E-01 1.38470E-24
5.65263E-01 1.35487E-24
5.69587E-01 1.32570E-24
5.73905E-01 1.29718E-24
5.78217E-01 1.26930E-24
5.82524E-01 1.24203E-24
5.86824E-01 1.21537E-24
5.91118E-01 1.18928E-24
5.95404E-01 1.16377E-24
5.99684E-01 1.13882E-24
6.03956E-01 1.11440E-24
6.08220E-01 1.09051E-24
6.12476E-01 1.06714E-24
6.16723E-01 1.04426E-24
6.20961E-01 1.02188E-24
6.25190E-01 9.99970E-25
6.29410E-01 9.78525E-25
6.33619E-01 9.57534E-25
6.37819E-01 9.36984E-25
6.42008E-01 9.16865E-25
6.46186E-01 8.97166E-25
6.50353E-01 8.77878E-25
6.54508E-01 8.58990E-25
6.58652E-01 8.40493E-25
6.62784E-01 8.22377E-25
6.66903E-01 8.04634E-25
6.71010E-01 7.87254E-25
6.75104E-01 7.70230E-25
6.79184E-01 7.53552E-25
6.83251E-01 7.37213E-25
6.87303E-01 7.21205E-25
6.91342E-01 7.05521E-25
6.95366E-01 6.90152E-25
6.99375E-01 6.75092E-25
7.03368E-01 6.60333E-25
7.07347E-01 6.45869E-25
7.11309E-01 6.31694E-25
7.15256E-01 6.17800E-25
7.19186E-01 6.04182E-25
7.23099E-01 5.90833E-25
7.26995E-01 5.77748E-25
7.30874E-01 5.64920E-25
7.34736E-01 5.52344E-25
7.38579E-01 5.40015E-25
7.42405E-01 5.27927E-25
7.46212E-01 5.16076E-25
7.50000E-01 5.04455E-25
7.53769E-01 4.93061E-25
7.57519E-01 4.81888E-25
7.61249E-01 4.70931E-25
7.64960E-01 4.60187E-25
7.68650E-01 4.49650E-25
7.72320E-01 4.39317E-25
7.75968E-01 4.29183E-25
7.79596E-01 4.19244E-25
7.83203E-01 4.09497E-25
7.86788E-01 3.99936E-25
7.90351E-01 3.90559E-25
7.93893E-01 3.81362E-25
7.97411E-01 3.72341E-25
8.00908E-01 3.63493E-25
8.04381E-01 3.54814E-25
8.07831E-01 3.46302E-25
8.11257E-01 3.37951E-25
8.14660E-01 3.29761E-25
8.18039E-01 3.21727E-25
8.21394E-01 3.13846E-25
8.24724E-01 3.06116E-25
8.28030E-01 2.98534E-25
8.31310E-01 2.91097E-25
8.34565E-01 2.83802E-25
8.37795E-01 2.76646E-25
8.40999E-01 2.69628E-25
8.44177E-01 2.62744E-25
8.47329E-01 2.55991E-25
8.50455E-01 2.49369E-25
8.53553E-01 2.42874E-25
8.56625E-01 2.36503E-25
8.59670E-01 2.30256E-25
8.62687E-01 2.24129E-25
8.65677E-01 2.18120E-25
8.68639E-01 2.12228E-25
8.71572E-01 2.06450E-25
8.74478E-01 2.00785E-25
8.77355E-01 1.95230E-25
8.80203E-01 1.89784E-25
8.83022E-01 1.84444E-25
8.85812E-01 1.79210E-25
8.88573E-01 1.74079E-25
8.91304E-01 1.69049E-25
8.94005E-01 1.64119E-25
8.96677E-01 1.59288E-25
8.99318E-01 1.54553E-25
9.01928E-01 1.49914E-25
9.04508E-01 1.45368E-25
9.07058E-01 1.40914E-25
9.09576E-01 1.36551E-25
9.12063E-01 1.32278E-25
9.14519E-01 1.28092E-25
9.16943E-01 1.23994E-25
9.19335E-01 1.19981E-25
9.21696E-01 1.16051E-25
9.24024E-01 1.12205E-25
9.26320E-01 1.08441E-25
9.28584E-01 1.04757E-25
9.30815E-01 1.01153E-25
9.33013E-01 9.76269E-26
9.35178E-01 9.41782E-26
9.37310E-01 9.08057E-26
9.39409E-01 8.75083E-26
9.41474E-01 8.42852E-26
9.43505E-01 8.11352E-26
9.45503E-01 7.80575E-26
9.47467E-01 7.50512E-26
9.49397E-01 7.21153E-26
9.51293E-01 6.92489E-26
9.53154E-01 6.64513E-26
9.54981E-01 6.37215E-26
9.56773E-01 6.10589E-26
9.58530E-01 5.84625E-26
9.60252E-01 5.59317E-26
9.61940E-01 5.34656E-26
9.63592E-01 5.10637E-26
9.65209E-01 4.87251E-26
9.66790E-01 4.64492E-26
9.68336E-01 4.42354E-26
9.69846E-01 4.20829E-26
9.71321E-01 3.99913E-26
9.72759E-01 3.79598E-26
9.74162E-01 3.59880E-26
9.75528E-01 3.40752E-26
9.76858E-01 3.22208E-26
9.78152E-01 3.04245E-26
9.79410E-01 2.86856E-26
9.80631E-01 2.70037E-26
9.81815E-01 2.53783E-26
9.82963E-01 2.38089E-26
9.84074E-01 2.22951E-26
9.85148E-01 2.08365E-26
9.86185E-01 1.94327E-26
9.87185E-01 1.80832E-26
9.88148E-01 1.67877E-26
9.89074E-01 1.55458E-26
9.89962E-01 1.43573E-26
9.90814E-01 1.32216E-26
9.91627E-01 1.21387E-26
9.92404E-01 1.11080E-26
9.93143E-01 1.01295E-26
9.93844E-01 9.20269E-27
9.94508E-01 8.32744E-27
9.95134E-01 7.50347E-27
9.95722E-01 6.73057E-27
9.96273E-01 6.00852E-27
9.96786E-01 5.33712E-27
9.97261E-01 4.71619E-27
9.97698E-01 4.14556E-27
9.98097E-01 3.62507E-27
9.98459E-01 3.15458E-27
9.98782E-01 2.73395E-27
9.99067E-01 2.36308E-27
9.99315E-01 2.04187E-27
9.99524E-01 1.77022E-27
9.99695E-01 1.54806E-27
9.99829E-01 1.37534E-27
9.99924E-01 1.25200E-27
9.99981E-01 1.17801E-27
1.00000E+00 1.15334E-27
