 #
 # Subroutine ELSEPA. Elastic scattering of electrons and positrons
 #                    by neutral atoms and positive ions
 #
 # Projectile: electron
 # Kinetic energy = 4.00000E+07 eV = 1.46997E+06 a.u.
 #
 # WARNING: High-energy factorization with free-atom DF screening.
 #          Absorption, polarization and exchange corrections are
 #          switched off.
 #          Phase shifts are calculated for the bare nucleus.
 #          Scattering amplitudes are not evaluated.
 #
 # Element: Tl,  Z =  81,  atomic weight = 2.04383E+02 g/mol
 #
 # Nuclear model: Fermi distribution
 #                Average radius = 6.30278E-13 cm
 #                Skin thickness = 5.46000E-14 cm
 #
 # Number of electrons = 81
 #
 # Total elastic cross section = 8.28415E-18 cm**2 = 2.95833E-01 a0**2
 # 1st transport cross section = 7.64255E-24 cm**2 = 2.72920E-07 a0**2
 # 2nd transport cross section = 2.21938E-23 cm**2 = 7.92556E-07 a0**2
 #
 #
 # Differential cross section:                       MU=(1-COS(THETA))/2
 #
 #  THETA        MU          DCS          DCS        Sherman      error
 #  (deg)                 (cm**2/sr)   (a0**2/sr)    function
 #----------------------------------------------------------------------
0.00000E+00 9.26585E-11
7.61557E-13 9.26179E-11
1.18994E-12 9.25952E-11
1.71346E-12 9.25675E-11
2.33225E-12 9.25348E-11
3.04617E-12 9.24971E-11
3.85530E-12 9.24545E-11
4.75964E-12 9.24068E-11
5.75917E-12 9.23543E-11
6.85391E-12 9.22968E-11
8.04379E-12 9.22344E-11
9.32893E-12 9.21671E-11
1.07092E-11 9.20949E-11
1.21847E-11 9.20179E-11
1.37554E-11 9.19361E-11
1.54213E-11 9.18495E-11
1.71823E-11 9.17582E-11
1.90386E-11 9.16621E-11
2.09900E-11 9.15613E-11
2.30367E-11 9.14558E-11
2.51785E-11 9.13457E-11
2.74156E-11 9.12310E-11
2.97478E-11 9.11117E-11
3.21752E-11 9.09879E-11
3.46979E-11 9.08595E-11
3.73157E-11 9.07268E-11
4.00286E-11 9.05896E-11
4.28368E-11 9.04481E-11
4.57402E-11 9.03023E-11
4.87388E-11 9.01521E-11
5.18325E-11 8.99977E-11
5.50215E-11 8.98392E-11
5.83057E-11 8.96765E-11
6.16850E-11 8.95097E-11
6.51595E-11 8.93389E-11
6.87293E-11 8.91641E-11
7.23943E-11 8.89854E-11
7.61544E-11 8.88027E-11
1.18991E-10 8.67747E-11
1.71347E-10 8.44182E-11
2.33223E-10 8.17992E-11
3.04617E-10 7.89761E-11
3.85531E-10 7.60043E-11
4.75965E-10 7.29442E-11
5.75917E-10 6.98459E-11
6.85389E-10 6.67444E-11
8.04380E-10 6.36740E-11
9.32891E-10 6.06696E-11
1.07092E-09 5.77538E-11
1.21847E-09 5.49290E-11
1.37554E-09 5.22131E-11
1.54213E-09 4.96188E-11
1.71823E-09 4.71498E-11
1.90386E-09 4.47887E-11
2.09900E-09 4.25503E-11
2.30367E-09 4.04340E-11
2.51785E-09 3.84344E-11
2.74156E-09 3.65311E-11
2.97478E-09 3.47370E-11
3.21752E-09 3.30467E-11
3.46978E-09 3.14502E-11
3.73156E-09 2.99345E-11
4.00286E-09 2.85071E-11
4.28368E-09 2.71626E-11
4.57402E-09 2.58896E-11
4.87388E-09 2.46825E-11
5.18326E-09 2.35446E-11
5.50215E-09 2.24715E-11
5.83057E-09 2.14519E-11
6.16850E-09 2.04857E-11
6.51596E-09 1.95734E-11
6.87293E-09 1.87115E-11
7.23942E-09 1.78896E-11
7.61544E-09 1.71109E-11
1.18991E-08 1.11909E-11
1.71347E-08 7.45271E-12
2.33223E-08 5.21864E-12
3.04617E-08 3.73015E-12
3.85531E-08 2.71999E-12
4.75965E-08 2.03808E-12
5.75917E-08 1.56170E-12
6.85389E-08 1.21622E-12
8.04380E-08 9.62156E-13
9.32891E-08 7.73138E-13
1.07092E-07 6.29421E-13
1.21847E-07 5.16710E-13
1.37554E-07 4.28026E-13
1.54213E-07 3.57662E-13
1.71823E-07 3.01116E-13
1.90386E-07 2.54641E-13
2.09900E-07 2.16712E-13
2.30367E-07 1.85535E-13
2.51785E-07 1.59687E-13
2.74156E-07 1.37982E-13
2.97478E-07 1.19852E-13
3.21752E-07 1.04621E-13
3.46978E-07 9.17519E-14
3.73156E-07 8.07075E-14
4.00286E-07 7.12982E-14
4.28368E-07 6.32477E-14
4.57402E-07 5.63196E-14
4.87388E-07 5.03304E-14
5.18325E-07 4.51374E-14
5.50215E-07 4.06137E-14
5.83057E-07 3.66467E-14
6.16850E-07 3.31566E-14
6.51596E-07 3.00787E-14
6.87293E-07 2.73547E-14
7.23942E-07 2.49297E-14
7.61543E-07 2.27702E-14
1.18991E-06 1.01892E-14
1.71347E-06 5.22374E-15
2.33223E-06 2.94948E-15
3.04617E-06 1.78901E-15
3.85531E-06 1.14703E-15
4.75964E-06 7.68644E-16
5.75916E-06 5.34093E-16
6.85388E-06 3.82558E-16
8.04378E-06 2.81185E-16
9.32888E-06 2.11297E-16
1.07092E-05 1.61866E-16
1.21846E-05 1.26100E-16
1.37553E-05 9.96985E-17
1.54212E-05 7.98623E-17
1.71822E-05 6.47233E-17
1.90385E-05 5.29727E-17
2.09899E-05 4.38259E-17
2.30365E-05 3.65623E-17
2.51783E-05 3.07318E-17
2.74153E-05 2.60099E-17
2.97475E-05 2.21565E-17
3.21749E-05 1.89901E-17
3.46974E-05 1.63706E-17
3.73152E-05 1.41894E-17
4.00281E-05 1.23611E-17
4.28362E-05 1.08186E-17
4.57395E-05 9.50922E-18
4.87380E-05 8.39159E-18
5.18317E-05 7.43287E-18
5.50205E-05 6.60686E-18
5.83045E-05 5.89236E-18
6.16838E-05 5.27198E-18
6.51582E-05 4.73135E-18
6.87277E-05 4.25848E-18
7.23925E-05 3.84340E-18
7.61524E-05 3.47682E-18
9.21439E-05 2.38557E-18
1.09658E-04 1.69100E-18
1.28695E-04 1.23207E-18
1.49255E-04 9.18866E-19
1.71338E-04 6.99264E-19
1.94942E-04 5.41570E-19
2.20070E-04 4.25967E-19
2.46720E-04 3.39658E-19
2.74892E-04 2.74165E-19
3.04586E-04 2.23739E-19
3.35803E-04 1.84406E-19
3.68542E-04 1.53359E-19
4.02802E-04 1.28588E-19
4.38585E-04 1.08631E-19
4.75889E-04 9.24044E-20
5.14715E-04 7.91035E-20
5.55063E-04 6.81161E-20
5.96931E-04 5.89758E-20
6.40321E-04 5.13217E-20
6.85233E-04 4.48728E-20
7.31665E-04 3.94083E-20
7.79618E-04 3.47529E-20
8.29092E-04 3.07672E-20
8.80086E-04 2.73384E-20
9.32601E-04 2.43757E-20
9.86636E-04 2.18050E-20
1.04219E-03 1.95656E-20
1.09927E-03 1.76075E-20
1.15786E-03 1.58893E-20
1.21797E-03 1.43765E-20
1.27961E-03 1.30403E-20
1.34276E-03 1.18564E-20
1.40743E-03 1.08045E-20
1.47362E-03 9.86730E-21
1.54133E-03 9.03003E-21
1.61056E-03 8.28015E-21
1.68131E-03 7.60695E-21
1.75357E-03 7.00118E-21
1.82735E-03 6.45484E-21
1.90265E-03 5.96110E-21
1.97947E-03 5.51396E-21
2.05780E-03 5.10823E-21
2.13765E-03 4.73939E-21
2.21902E-03 4.40346E-21
2.30190E-03 4.09698E-21
2.38630E-03 3.81688E-21
2.47222E-03 3.56050E-21
2.55965E-03 3.32544E-21
2.64859E-03 3.10961E-21
2.73905E-03 2.91115E-21
2.83103E-03 2.72839E-21
2.92452E-03 2.55987E-21
3.01952E-03 2.40427E-21
3.11604E-03 2.26042E-21
3.21407E-03 2.12725E-21
3.31362E-03 2.00384E-21
3.41468E-03 1.88933E-21
3.51725E-03 1.78296E-21
3.62133E-03 1.68403E-21
3.72692E-03 1.59195E-21
3.83403E-03 1.50613E-21
3.94265E-03 1.42607E-21
4.05278E-03 1.35132E-21
4.16442E-03 1.28145E-21
4.27757E-03 1.21608E-21
4.39223E-03 1.15487E-21
4.50840E-03 1.09751E-21
4.62608E-03 1.04370E-21
4.74527E-03 9.93189E-22
4.86597E-03 9.45729E-22
4.98817E-03 9.01100E-22
5.11188E-03 8.59103E-22
5.23711E-03 8.19554E-22
5.36383E-03 7.82281E-22
5.49207E-03 7.47126E-22
5.62181E-03 7.13948E-22
5.75306E-03 6.82614E-22
5.88581E-03 6.53002E-22
6.02007E-03 6.24995E-22
6.15583E-03 5.98493E-22
6.29310E-03 5.73401E-22
6.43187E-03 5.49625E-22
6.57214E-03 5.27082E-22
6.71392E-03 5.05701E-22
6.85720E-03 4.85406E-22
7.00198E-03 4.66131E-22
7.14827E-03 4.47817E-22
7.29605E-03 4.30405E-22
7.44534E-03 4.13843E-22
7.59612E-03 3.98079E-22
7.97965E-03 3.61875E-22
8.37255E-03 3.29744E-22
8.77480E-03 3.01147E-22
9.18641E-03 2.75623E-22
9.60736E-03 2.52781E-22
1.00376E-02 2.32288E-22
1.04773E-02 2.13857E-22
1.09262E-02 1.97243E-22
1.13844E-02 1.82232E-22
1.18520E-02 1.68641E-22
1.23288E-02 1.56310E-22
1.28150E-02 1.45101E-22
1.33104E-02 1.34891E-22
1.38150E-02 1.25576E-22
1.43290E-02 1.17062E-22
1.48521E-02 1.09267E-22
1.53845E-02 1.02119E-22
1.59262E-02 9.55537E-23
1.64770E-02 8.95157E-23
1.70371E-02 8.39485E-23
1.76063E-02 7.88123E-23
1.81848E-02 7.40674E-23
1.87724E-02 6.96781E-23
1.93692E-02 6.56127E-23
1.99751E-02 6.18426E-23
2.05901E-02 5.83421E-23
2.12143E-02 5.50881E-23
2.18476E-02 5.20600E-23
2.24900E-02 4.92389E-23
2.31415E-02 4.66080E-23
2.38021E-02 4.41518E-23
2.44717E-02 4.18565E-23
2.51504E-02 3.97095E-23
2.58382E-02 3.76992E-23
2.65349E-02 3.58153E-23
2.72407E-02 3.40483E-23
2.79555E-02 3.23894E-23
2.86793E-02 3.08308E-23
2.94120E-02 2.93651E-23
3.01537E-02 2.79857E-23
3.09043E-02 2.66866E-23
3.16639E-02 2.54621E-23
3.24324E-02 2.43072E-23
3.32098E-02 2.32170E-23
3.39961E-02 2.21872E-23
3.47912E-02 2.12138E-23
3.55952E-02 2.02931E-23
3.64081E-02 1.94218E-23
3.72297E-02 1.85965E-23
3.80602E-02 1.78144E-23
3.88995E-02 1.70729E-23
3.97476E-02 1.63693E-23
4.06044E-02 1.57013E-23
4.14700E-02 1.50668E-23
4.23443E-02 1.44639E-23
4.32273E-02 1.38905E-23
4.41190E-02 1.33449E-23
4.50194E-02 1.28257E-23
4.59284E-02 1.23311E-23
4.68461E-02 1.18599E-23
4.87074E-02 1.09822E-23
5.06030E-02 1.01832E-23
5.25328E-02 9.45433E-24
5.44967E-02 8.78844E-24
5.64946E-02 8.17904E-24
5.85262E-02 7.62047E-24
6.05914E-02 7.10770E-24
6.26901E-02 6.63631E-24
6.48222E-02 6.20233E-24
6.69873E-02 5.80227E-24
6.91854E-02 5.43299E-24
7.14163E-02 5.09170E-24
7.36799E-02 4.77590E-24
7.59760E-02 4.48335E-24
7.83043E-02 4.21202E-24
8.06647E-02 3.96011E-24
8.30571E-02 3.72599E-24
8.54812E-02 3.50817E-24
8.79369E-02 3.30533E-24
9.04240E-02 3.11626E-24
9.29422E-02 2.93987E-24
9.54915E-02 2.77515E-24
9.80716E-02 2.62121E-24
1.00682E-01 2.47722E-24
1.03323E-01 2.34243E-24
1.05995E-01 2.21616E-24
1.08696E-01 2.09778E-24
1.11427E-01 1.98671E-24
1.14188E-01 1.88243E-24
1.16978E-01 1.78447E-24
1.19797E-01 1.69237E-24
1.22645E-01 1.60572E-24
1.25522E-01 1.52417E-24
1.28428E-01 1.44735E-24
1.31361E-01 1.37496E-24
1.34323E-01 1.30670E-24
1.37313E-01 1.24229E-24
1.40330E-01 1.18149E-24
1.43375E-01 1.12407E-24
1.46447E-01 1.06981E-24
1.49545E-01 1.01851E-24
1.52671E-01 9.69983E-25
1.55823E-01 9.24064E-25
1.59001E-01 8.80590E-25
1.62205E-01 8.39412E-25
1.65435E-01 8.00394E-25
1.68690E-01 7.63406E-25
1.71970E-01 7.28328E-25
1.75276E-01 6.95049E-25
1.78606E-01 6.63464E-25
1.81961E-01 6.33476E-25
1.85340E-01 6.04993E-25
1.88743E-01 5.77931E-25
1.92169E-01 5.52209E-25
1.95619E-01 5.27753E-25
1.99092E-01 5.04493E-25
2.02589E-01 4.82364E-25
2.06107E-01 4.61303E-25
2.09649E-01 4.41254E-25
2.13212E-01 4.22161E-25
2.16797E-01 4.03975E-25
2.20404E-01 3.86646E-25
2.24032E-01 3.70131E-25
2.27680E-01 3.54386E-25
2.31350E-01 3.39372E-25
2.35040E-01 3.25052E-25
2.38751E-01 3.11389E-25
2.42481E-01 2.98350E-25
2.46231E-01 2.85904E-25
2.50000E-01 2.74022E-25
2.53788E-01 2.62674E-25
2.57595E-01 2.51835E-25
2.61421E-01 2.41480E-25
2.65264E-01 2.31585E-25
2.69126E-01 2.22127E-25
2.73005E-01 2.13085E-25
2.76901E-01 2.04440E-25
2.80814E-01 1.96172E-25
2.84744E-01 1.88263E-25
2.88691E-01 1.80697E-25
2.92653E-01 1.73457E-25
2.96632E-01 1.66528E-25
3.00625E-01 1.59896E-25
3.04634E-01 1.53546E-25
3.08658E-01 1.47466E-25
3.12697E-01 1.41644E-25
3.16749E-01 1.36066E-25
3.20816E-01 1.30723E-25
3.24896E-01 1.25604E-25
3.28990E-01 1.20699E-25
3.33097E-01 1.15997E-25
3.37216E-01 1.11491E-25
3.41348E-01 1.07170E-25
3.45492E-01 1.03028E-25
3.49647E-01 9.90556E-26
3.53814E-01 9.52459E-26
3.57992E-01 9.15918E-26
3.62181E-01 8.80865E-26
3.66381E-01 8.47234E-26
3.70590E-01 8.14964E-26
3.74810E-01 7.83996E-26
3.79039E-01 7.54275E-26
3.83277E-01 7.25746E-26
3.87524E-01 6.98360E-26
3.91780E-01 6.72067E-26
3.96044E-01 6.46821E-26
4.00316E-01 6.22578E-26
4.04596E-01 5.99296E-26
4.08882E-01 5.76933E-26
4.13176E-01 5.55453E-26
4.17476E-01 5.34818E-26
4.21783E-01 5.14992E-26
4.26095E-01 4.95943E-26
4.30413E-01 4.77638E-26
4.34737E-01 4.60046E-26
4.39065E-01 4.43138E-26
4.43398E-01 4.26887E-26
4.47736E-01 4.11264E-26
4.52077E-01 3.96246E-26
4.56422E-01 3.81806E-26
4.60770E-01 3.67922E-26
4.65122E-01 3.54570E-26
4.69476E-01 3.41731E-26
4.73832E-01 3.29382E-26
4.78190E-01 3.17504E-26
4.82550E-01 3.06079E-26
4.86912E-01 2.95088E-26
4.91274E-01 2.84514E-26
4.95637E-01 2.74340E-26
5.00000E-01 2.64551E-26
5.04363E-01 2.55130E-26
5.08726E-01 2.46065E-26
5.13088E-01 2.37339E-26
5.17450E-01 2.28941E-26
5.21810E-01 2.20857E-26
5.26168E-01 2.13075E-26
5.30524E-01 2.05584E-26
5.34878E-01 1.98371E-26
5.39230E-01 1.91425E-26
5.43578E-01 1.84738E-26
5.47923E-01 1.78298E-26
5.52264E-01 1.72095E-26
5.56602E-01 1.66121E-26
5.60935E-01 1.60367E-26
5.65263E-01 1.54825E-26
5.69587E-01 1.49485E-26
5.73905E-01 1.44341E-26
5.78217E-01 1.39385E-26
5.82524E-01 1.34609E-26
5.86824E-01 1.30007E-26
5.91118E-01 1.25572E-26
5.95404E-01 1.21297E-26
5.99684E-01 1.17177E-26
6.03956E-01 1.13206E-26
6.08220E-01 1.09378E-26
6.12476E-01 1.05688E-26
6.16723E-01 1.02129E-26
6.20961E-01 9.86987E-27
6.25190E-01 9.53904E-27
6.29410E-01 9.22000E-27
6.33619E-01 8.91232E-27
6.37819E-01 8.61555E-27
6.42008E-01 8.32929E-27
6.46186E-01 8.05315E-27
6.50353E-01 7.78674E-27
6.54508E-01 7.52970E-27
6.58652E-01 7.28169E-27
6.62784E-01 7.04236E-27
6.66903E-01 6.81139E-27
6.71010E-01 6.58847E-27
6.75104E-01 6.37330E-27
6.79184E-01 6.16559E-27
6.83251E-01 5.96506E-27
6.87303E-01 5.77146E-27
6.91342E-01 5.58451E-27
6.95366E-01 5.40399E-27
6.99375E-01 5.22964E-27
7.03368E-01 5.06125E-27
7.07347E-01 4.89859E-27
7.11309E-01 4.74146E-27
7.15256E-01 4.58964E-27
7.19186E-01 4.44296E-27
7.23099E-01 4.30121E-27
7.26995E-01 4.16421E-27
7.30874E-01 4.03181E-27
7.34736E-01 3.90382E-27
7.38579E-01 3.78009E-27
7.42405E-01 3.66046E-27
7.46212E-01 3.54478E-27
7.50000E-01 3.43292E-27
7.53769E-01 3.32473E-27
7.57519E-01 3.22008E-27
7.61249E-01 3.11885E-27
7.64960E-01 3.02090E-27
7.68650E-01 2.92613E-27
7.72320E-01 2.83442E-27
7.75968E-01 2.74567E-27
7.79596E-01 2.65975E-27
7.83203E-01 2.57658E-27
7.86788E-01 2.49606E-27
7.90351E-01 2.41810E-27
7.93893E-01 2.34259E-27
7.97411E-01 2.26946E-27
8.00908E-01 2.19863E-27
8.04381E-01 2.13001E-27
8.07831E-01 2.06352E-27
8.11257E-01 1.99910E-27
8.14660E-01 1.93666E-27
8.18039E-01 1.87615E-27
8.21394E-01 1.81749E-27
8.24724E-01 1.76062E-27
8.28030E-01 1.70547E-27
8.31310E-01 1.65200E-27
8.34565E-01 1.60014E-27
8.37795E-01 1.54984E-27
8.40999E-01 1.50104E-27
8.44177E-01 1.45370E-27
8.47329E-01 1.40776E-27
8.50455E-01 1.36319E-27
8.53553E-01 1.31992E-27
8.56625E-01 1.27792E-27
8.59670E-01 1.23715E-27
8.62687E-01 1.19757E-27
8.65677E-01 1.15914E-27
8.68639E-01 1.12182E-27
8.71572E-01 1.08557E-27
8.74478E-01 1.05036E-27
8.77355E-01 1.01616E-27
8.80203E-01 9.82937E-28
8.83022E-01 9.50656E-28
8.85812E-01 9.19288E-28
8.88573E-01 8.88807E-28
8.91304E-01 8.59183E-28
8.94005E-01 8.30391E-28
8.96677E-01 8.02405E-28
8.99318E-01 7.75201E-28
9.01928E-01 7.48754E-28
9.04508E-01 7.23043E-28
9.07058E-01 6.98045E-28
9.09576E-01 6.73740E-28
9.12063E-01 6.50106E-28
9.14519E-01 6.27125E-28
9.16943E-01 6.04778E-28
9.19335E-01 5.83047E-28
9.21696E-01 5.61915E-28
9.24024E-01 5.41364E-28
9.26320E-01 5.21379E-28
9.28584E-01 5.01944E-28
9.30815E-01 4.83045E-28
9.33013E-01 4.64667E-28
9.35178E-01 4.46797E-28
9.37310E-01 4.29420E-28
9.39409E-01 4.12526E-28
9.41474E-01 3.96101E-28
9.43505E-01 3.80133E-28
9.45503E-01 3.64612E-28
9.47467E-01 3.49526E-28
9.49397E-01 3.34865E-28
9.51293E-01 3.20620E-28
9.53154E-01 3.06779E-28
9.54981E-01 2.93335E-28
9.56773E-01 2.80279E-28
9.58530E-01 2.67601E-28
9.60252E-01 2.55293E-28
9.61940E-01 2.43349E-28
9.63592E-01 2.31759E-28
9.65209E-01 2.20517E-28
9.66790E-01 2.09616E-28
9.68336E-01 1.99050E-28
9.69846E-01 1.88811E-28
9.71321E-01 1.78894E-28
9.72759E-01 1.69293E-28
9.74162E-01 1.60002E-28
9.75528E-01 1.51015E-28
9.76858E-01 1.42329E-28
9.78152E-01 1.33937E-28
9.79410E-01 1.25834E-28
9.80631E-01 1.18017E-28
9.81815E-01 1.10481E-28
9.82963E-01 1.03222E-28
9.84074E-01 9.62363E-29
9.85148E-01 8.95194E-29
9.86185E-01 8.30680E-29
9.87185E-01 7.68788E-29
9.88148E-01 7.09484E-29
9.89074E-01 6.52738E-29
9.89962E-01 5.98521E-29
9.90814E-01 5.46804E-29
9.91627E-01 4.97561E-29
9.92404E-01 4.50768E-29
9.93143E-01 4.06400E-29
9.93844E-01 3.64436E-29
9.94508E-01 3.24854E-29
9.95134E-01 2.87635E-29
9.95722E-01 2.52761E-29
9.96273E-01 2.20215E-29
9.96786E-01 1.89981E-29
9.97261E-01 1.62043E-29
9.97698E-01 1.36390E-29
9.98097E-01 1.13007E-29
9.98459E-01 9.18853E-30
9.98782E-01 7.30134E-30
9.99067E-01 5.63826E-30
9.99315E-01 4.19851E-30
9.99524E-01 2.98140E-30
9.99695E-01 1.98637E-30
9.99829E-01 1.21294E-30
9.99924E-01 6.60755E-31
9.99981E-01 3.29545E-31
1.00000E+00 2.19159E-31
