 #
 # Subroutine ELSEPA. Elastic scattering of electrons and positrons
 #                    by neutral atoms and positive ions
 #
 # Projectile: electron
 # Kinetic energy = 8.00000E+07 eV = 2.93995E+06 a.u.
 #
 # WARNING: High-energy factorization with free-atom DF screening.
 #          Absorption, polarization and exchange corrections are
 #          switched off.
 #          Phase shifts are calculated for the bare nucleus.
 #          Scattering amplitudes are not evaluated.
 #
 # Element: Tl,  Z =  81,  atomic weight = 2.04383E+02 g/mol
 #
 # Nuclear model: Fermi distribution
 #                Average radius = 6.30278E-13 cm
 #                Skin thickness = 5.46000E-14 cm
 #
 # Number of electrons = 81
 #
 # Total elastic cross section = 8.28575E-18 cm**2 = 2.95890E-01 a0**2
 # 1st transport cross section = 1.92876E-24 cm**2 = 6.88772E-08 a0**2
 # 2nd transport cross section = 5.71929E-24 cm**2 = 2.04240E-07 a0**2
 #
 #
 # Differential cross section:                       MU=(1-COS(THETA))/2
 #
 #  THETA        MU          DCS          DCS        Sherman      error
 #  (deg)                 (cm**2/sr)   (a0**2/sr)    function
 #----------------------------------------------------------------------
0.00000E+00 3.65974E-10
7.61557E-13 3.65344E-10
1.18994E-12 3.64992E-10
1.71346E-12 3.64562E-10
2.33225E-12 3.64056E-10
3.04617E-12 3.63474E-10
3.85530E-12 3.62817E-10
4.75964E-12 3.62086E-10
5.75917E-12 3.61281E-10
6.85391E-12 3.60404E-10
8.04379E-12 3.59455E-10
9.32893E-12 3.58436E-10
1.07092E-11 3.57348E-10
1.21847E-11 3.56193E-10
1.37554E-11 3.54972E-10
1.54213E-11 3.53685E-10
1.71823E-11 3.52336E-10
1.90386E-11 3.50925E-10
2.09900E-11 3.49454E-10
2.30367E-11 3.47924E-10
2.51785E-11 3.46338E-10
2.74156E-11 3.44698E-10
2.97478E-11 3.43004E-10
3.21752E-11 3.41259E-10
3.46979E-11 3.39464E-10
3.73157E-11 3.37619E-10
4.00286E-11 3.35728E-10
4.28368E-11 3.33794E-10
4.57402E-11 3.31821E-10
4.87388E-11 3.29809E-10
5.18325E-11 3.27761E-10
5.50215E-11 3.25680E-10
5.83057E-11 3.23553E-10
6.16850E-11 3.21395E-10
6.51595E-11 3.19209E-10
6.87293E-11 3.16996E-10
7.23943E-11 3.14760E-10
7.61544E-11 3.12501E-10
1.18991E-10 2.88868E-10
1.71347E-10 2.64529E-10
2.33223E-10 2.40653E-10
3.04617E-10 2.18040E-10
3.85531E-10 1.97112E-10
4.75965E-10 1.78029E-10
5.75917E-10 1.60832E-10
6.85389E-10 1.45375E-10
8.04380E-10 1.31594E-10
9.32891E-10 1.19245E-10
1.07092E-09 1.08269E-10
1.21847E-09 9.84133E-11
1.37554E-09 8.96397E-11
1.54213E-09 8.17482E-11
1.71823E-09 7.46926E-11
1.90386E-09 6.83341E-11
2.09900E-09 6.26205E-11
2.30367E-09 5.74607E-11
2.51785E-09 5.28017E-11
2.74156E-09 4.85858E-11
2.97478E-09 4.47618E-11
3.21752E-09 4.12950E-11
3.46978E-09 3.81377E-11
3.73156E-09 3.50738E-11
4.00286E-09 3.23019E-11
4.28368E-09 2.98615E-11
4.57402E-09 2.77049E-11
4.87388E-09 2.57919E-11
5.18326E-09 2.40890E-11
5.50215E-09 2.25681E-11
5.83057E-09 2.09480E-11
6.16850E-09 1.94802E-11
6.51596E-09 1.81655E-11
6.87293E-09 1.69843E-11
7.23942E-09 1.59202E-11
7.61544E-09 1.49589E-11
1.18991E-08 8.19265E-12
1.71347E-08 4.88890E-12
2.33223E-08 3.11145E-12
3.04617E-08 2.07956E-12
3.85531E-08 1.44115E-12
4.75965E-08 1.02623E-12
5.75917E-08 7.48437E-13
6.85389E-08 5.56676E-13
8.04380E-08 4.22273E-13
9.32891E-08 3.25806E-13
1.07092E-07 2.55365E-13
1.21847E-07 2.03187E-13
1.37554E-07 1.63966E-13
1.54213E-07 1.33864E-13
1.71823E-07 1.10443E-13
1.90386E-07 9.19438E-14
2.09900E-07 7.71953E-14
2.30367E-07 6.53110E-14
2.51785E-07 5.56480E-14
2.74156E-07 4.77171E-14
2.97478E-07 4.11506E-14
3.21752E-07 3.56764E-14
3.46978E-07 3.10802E-14
3.73156E-07 2.71838E-14
4.00286E-07 2.38933E-14
4.28368E-07 2.11073E-14
4.57402E-07 1.86880E-14
4.87388E-07 1.66191E-14
5.18325E-07 1.48322E-14
5.50215E-07 1.32699E-14
5.83057E-07 1.19156E-14
6.16850E-07 1.07271E-14
6.51596E-07 9.68178E-15
6.87293E-07 8.76532E-15
7.23942E-07 7.94996E-15
7.61543E-07 7.22877E-15
1.18991E-06 3.10653E-15
1.71347E-06 1.54620E-15
2.33223E-06 8.53883E-16
3.04617E-06 5.09553E-16
3.85531E-06 3.22685E-16
4.75964E-06 2.14137E-16
5.75916E-06 1.47606E-16
6.85388E-06 1.05000E-16
8.04378E-06 7.66984E-17
9.32888E-06 5.73141E-17
1.07092E-05 4.36808E-17
1.21846E-05 3.38688E-17
1.37553E-05 2.66631E-17
1.54212E-05 2.12759E-17
1.71822E-05 1.71833E-17
1.90385E-05 1.40210E-17
2.09899E-05 1.15690E-17
2.30365E-05 9.62880E-18
2.51783E-05 8.07649E-18
2.74153E-05 6.82300E-18
2.97475E-05 5.80271E-18
3.21749E-05 4.96626E-18
3.46974E-05 4.27577E-18
3.73152E-05 3.70182E-18
4.00281E-05 3.22149E-18
4.28362E-05 2.81684E-18
4.57395E-05 2.47377E-18
4.87380E-05 2.18129E-18
5.18317E-05 1.93065E-18
5.50205E-05 1.71492E-18
5.83045E-05 1.52846E-18
6.16838E-05 1.36670E-18
6.51582E-05 1.22583E-18
6.87277E-05 1.10270E-18
7.23925E-05 9.94681E-19
7.61524E-05 8.99416E-19
9.21439E-05 6.16016E-19
1.09658E-04 4.35977E-19
1.28695E-04 3.17219E-19
1.49255E-04 2.36296E-19
1.71338E-04 1.79633E-19
1.94942E-04 1.38995E-19
2.20070E-04 1.09239E-19
2.46720E-04 8.70460E-20
2.74892E-04 7.02216E-20
3.04586E-04 5.72787E-20
3.35803E-04 4.71907E-20
3.68542E-04 3.92332E-20
4.02802E-04 3.28882E-20
4.38585E-04 2.77787E-20
4.75889E-04 2.36264E-20
5.14715E-04 2.02240E-20
5.55063E-04 1.74144E-20
5.96931E-04 1.50778E-20
6.40321E-04 1.31215E-20
6.85233E-04 1.14736E-20
7.31665E-04 1.00775E-20
7.79618E-04 8.88822E-21
8.29092E-04 7.87007E-21
8.80086E-04 6.99425E-21
9.32601E-04 6.23749E-21
9.86636E-04 5.58088E-21
1.04219E-03 5.00883E-21
1.09927E-03 4.50864E-21
1.15786E-03 4.06966E-21
1.21797E-03 3.68314E-21
1.27961E-03 3.34168E-21
1.34276E-03 3.03913E-21
1.40743E-03 2.77025E-21
1.47362E-03 2.53065E-21
1.54133E-03 2.31655E-21
1.61056E-03 2.12479E-21
1.68131E-03 1.95257E-21
1.75357E-03 1.79758E-21
1.82735E-03 1.65776E-21
1.90265E-03 1.53137E-21
1.97947E-03 1.41689E-21
2.05780E-03 1.31298E-21
2.13765E-03 1.21849E-21
2.21902E-03 1.13241E-21
2.30190E-03 1.05386E-21
2.38630E-03 9.82044E-22
2.47222E-03 9.16293E-22
2.55965E-03 8.55994E-22
2.64859E-03 8.00611E-22
2.73905E-03 7.49670E-22
2.83103E-03 7.02746E-22
2.92452E-03 6.59466E-22
3.01952E-03 6.19491E-22
3.11604E-03 5.82523E-22
3.21407E-03 5.48292E-22
3.31362E-03 5.16559E-22
3.41468E-03 4.87106E-22
3.51725E-03 4.59738E-22
3.62133E-03 4.34281E-22
3.72692E-03 4.10575E-22
3.83403E-03 3.88478E-22
3.94265E-03 3.67860E-22
4.05278E-03 3.48604E-22
4.16442E-03 3.30605E-22
4.27757E-03 3.13748E-22
4.39223E-03 2.97957E-22
4.50840E-03 2.83154E-22
4.62608E-03 2.69265E-22
4.74527E-03 2.56222E-22
4.86597E-03 2.43964E-22
4.98817E-03 2.32435E-22
5.11188E-03 2.21583E-22
5.23711E-03 2.11361E-22
5.36383E-03 2.01724E-22
5.49207E-03 1.92633E-22
5.62181E-03 1.84051E-22
5.75306E-03 1.75944E-22
5.88581E-03 1.68281E-22
6.02007E-03 1.61032E-22
6.15583E-03 1.54171E-22
6.29310E-03 1.47672E-22
6.43187E-03 1.41514E-22
6.57214E-03 1.35675E-22
6.71392E-03 1.30134E-22
6.85720E-03 1.24874E-22
7.00198E-03 1.19878E-22
7.14827E-03 1.15130E-22
7.29605E-03 1.10615E-22
7.44534E-03 1.06320E-22
7.59612E-03 1.02231E-22
7.97965E-03 9.28376E-23
8.37255E-03 8.44987E-23
8.77480E-03 7.70747E-23
9.18641E-03 7.04470E-23
9.60736E-03 6.45147E-23
1.00376E-02 5.91918E-23
1.04773E-02 5.44042E-23
1.09262E-02 5.00883E-23
1.13844E-02 4.61892E-23
1.18520E-02 4.26593E-23
1.23288E-02 3.94572E-23
1.28150E-02 3.65470E-23
1.33104E-02 3.38972E-23
1.38150E-02 3.14803E-23
1.43290E-02 2.92721E-23
1.48521E-02 2.72512E-23
1.53845E-02 2.53989E-23
1.59262E-02 2.36986E-23
1.64770E-02 2.21355E-23
1.70371E-02 2.06965E-23
1.76063E-02 1.93701E-23
1.81848E-02 1.81457E-23
1.87724E-02 1.70142E-23
1.93692E-02 1.59673E-23
1.99751E-02 1.49974E-23
2.05901E-02 1.40979E-23
2.12143E-02 1.32628E-23
2.18476E-02 1.24866E-23
2.24900E-02 1.17645E-23
2.31415E-02 1.10920E-23
2.38021E-02 1.04651E-23
2.44717E-02 9.88021E-24
2.51504E-02 9.33397E-24
2.58382E-02 8.82339E-24
2.65349E-02 8.34575E-24
2.72407E-02 7.89856E-24
2.79555E-02 7.47953E-24
2.86793E-02 7.08661E-24
2.94120E-02 6.71787E-24
3.01537E-02 6.37158E-24
3.09043E-02 6.04615E-24
3.16639E-02 5.74010E-24
3.24324E-02 5.45210E-24
3.32098E-02 5.18089E-24
3.39961E-02 4.92535E-24
3.47912E-02 4.68441E-24
3.55952E-02 4.45711E-24
3.64081E-02 4.24255E-24
3.72297E-02 4.03989E-24
3.80602E-02 3.84839E-24
3.88995E-02 3.66732E-24
3.97476E-02 3.49602E-24
4.06044E-02 3.33389E-24
4.14700E-02 3.18036E-24
4.23443E-02 3.03490E-24
4.32273E-02 2.89703E-24
4.41190E-02 2.76629E-24
4.50194E-02 2.64225E-24
4.59284E-02 2.52452E-24
4.68461E-02 2.41273E-24
4.87074E-02 2.20562E-24
5.06030E-02 2.01844E-24
5.25328E-02 1.84900E-24
5.44967E-02 1.69541E-24
5.64946E-02 1.55599E-24
5.85262E-02 1.42927E-24
6.05914E-02 1.31394E-24
6.26901E-02 1.20886E-24
6.48222E-02 1.11300E-24
6.69873E-02 1.02547E-24
6.91854E-02 9.45444E-25
7.14163E-02 8.72219E-25
7.36799E-02 8.05151E-25
7.59760E-02 7.43665E-25
7.83043E-02 6.87248E-25
8.06647E-02 6.35440E-25
8.30571E-02 5.87827E-25
8.54812E-02 5.44036E-25
8.79369E-02 5.03730E-25
9.04240E-02 4.66608E-25
9.29422E-02 4.32394E-25
9.54915E-02 4.00842E-25
9.80716E-02 3.71727E-25
1.00682E-01 3.44845E-25
1.03323E-01 3.20011E-25
1.05995E-01 2.97057E-25
1.08696E-01 2.75831E-25
1.11427E-01 2.56193E-25
1.14188E-01 2.38015E-25
1.16978E-01 2.21183E-25
1.19797E-01 2.05590E-25
1.22645E-01 1.91138E-25
1.25522E-01 1.77741E-25
1.28428E-01 1.65315E-25
1.31361E-01 1.53788E-25
1.34323E-01 1.43090E-25
1.37313E-01 1.33159E-25
1.40330E-01 1.23937E-25
1.43375E-01 1.15371E-25
1.46447E-01 1.07412E-25
1.49545E-01 1.00017E-25
1.52671E-01 9.31421E-26
1.55823E-01 8.67506E-26
1.59001E-01 8.08071E-26
1.62205E-01 7.52790E-26
1.65435E-01 7.01363E-26
1.68690E-01 6.53515E-26
1.71970E-01 6.08989E-26
1.75276E-01 5.67548E-26
1.78606E-01 5.28974E-26
1.81961E-01 4.93062E-26
1.85340E-01 4.59626E-26
1.88743E-01 4.28491E-26
1.92169E-01 3.99497E-26
1.95619E-01 3.72493E-26
1.99092E-01 3.47340E-26
2.02589E-01 3.23911E-26
2.06107E-01 3.02085E-26
2.09649E-01 2.81751E-26
2.13212E-01 2.62807E-26
2.16797E-01 2.45156E-26
2.20404E-01 2.28710E-26
2.24032E-01 2.13385E-26
2.27680E-01 1.99105E-26
2.31350E-01 1.85798E-26
2.35040E-01 1.73398E-26
2.38751E-01 1.61843E-26
2.42481E-01 1.51074E-26
2.46231E-01 1.41038E-26
2.50000E-01 1.31686E-26
2.53788E-01 1.22970E-26
2.57595E-01 1.14848E-26
2.61421E-01 1.07278E-26
2.65264E-01 1.00224E-26
2.69126E-01 9.36493E-27
2.73005E-01 8.75225E-27
2.76901E-01 8.18128E-27
2.80814E-01 7.64917E-27
2.84744E-01 7.15328E-27
2.88691E-01 6.69114E-27
2.92653E-01 6.26046E-27
2.96632E-01 5.85908E-27
3.00625E-01 5.48502E-27
3.04634E-01 5.13640E-27
3.08658E-01 4.81149E-27
3.12697E-01 4.50867E-27
3.16749E-01 4.22643E-27
3.20816E-01 3.96336E-27
3.24896E-01 3.71815E-27
3.28990E-01 3.48957E-27
3.33097E-01 3.27648E-27
3.37216E-01 3.07782E-27
3.41348E-01 2.89259E-27
3.45492E-01 2.71987E-27
3.49647E-01 2.55879E-27
3.53814E-01 2.40856E-27
3.57992E-01 2.26842E-27
3.62181E-01 2.13768E-27
3.66381E-01 2.01568E-27
3.70590E-01 1.90182E-27
3.74810E-01 1.79553E-27
3.79039E-01 1.69629E-27
3.83277E-01 1.60360E-27
3.87524E-01 1.51702E-27
3.91780E-01 1.43611E-27
3.96044E-01 1.36047E-27
4.00316E-01 1.28975E-27
4.04596E-01 1.22360E-27
4.08882E-01 1.16169E-27
4.13176E-01 1.10374E-27
4.17476E-01 1.04946E-27
4.21783E-01 9.98591E-28
4.26095E-01 9.50904E-28
4.30413E-01 9.06173E-28
4.34737E-01 8.64189E-28
4.39065E-01 8.24762E-28
4.43398E-01 7.87712E-28
4.47736E-01 7.52874E-28
4.52077E-01 7.20092E-28
4.56422E-01 6.89225E-28
4.60770E-01 6.60138E-28
4.65122E-01 6.32708E-28
4.69476E-01 6.06820E-28
4.73832E-01 5.82368E-28
4.78190E-01 5.59254E-28
4.82550E-01 5.37384E-28
4.86912E-01 5.16676E-28
4.91274E-01 4.97048E-28
4.95637E-01 4.78429E-28
5.00000E-01 4.60750E-28
5.04363E-01 4.43950E-28
5.08726E-01 4.27968E-28
5.13088E-01 4.12752E-28
5.17450E-01 3.98251E-28
5.21810E-01 3.84420E-28
5.26168E-01 3.71214E-28
5.30524E-01 3.58595E-28
5.34878E-01 3.46525E-28
5.39230E-01 3.34971E-28
5.43578E-01 3.23901E-28
5.47923E-01 3.13285E-28
5.52264E-01 3.03097E-28
5.56602E-01 2.93311E-28
5.60935E-01 2.83905E-28
5.65263E-01 2.74856E-28
5.69587E-01 2.66145E-28
5.73905E-01 2.57753E-28
5.78217E-01 2.49663E-28
5.82524E-01 2.41859E-28
5.86824E-01 2.34327E-28
5.91118E-01 2.27053E-28
5.95404E-01 2.20024E-28
5.99684E-01 2.13228E-28
6.03956E-01 2.06655E-28
6.08220E-01 2.00294E-28
6.12476E-01 1.94135E-28
6.16723E-01 1.88171E-28
6.20961E-01 1.82392E-28
6.25190E-01 1.76791E-28
6.29410E-01 1.71362E-28
6.33619E-01 1.66096E-28
6.37819E-01 1.60988E-28
6.42008E-01 1.56032E-28
6.46186E-01 1.51223E-28
6.50353E-01 1.46555E-28
6.54508E-01 1.42024E-28
6.58652E-01 1.37624E-28
6.62784E-01 1.33352E-28
6.66903E-01 1.29203E-28
6.71010E-01 1.25174E-28
6.75104E-01 1.21260E-28
6.79184E-01 1.17459E-28
6.83251E-01 1.13767E-28
6.87303E-01 1.10180E-28
6.91342E-01 1.06697E-28
6.95366E-01 1.03313E-28
6.99375E-01 1.00026E-28
7.03368E-01 9.68339E-29
7.07347E-01 9.37334E-29
7.11309E-01 9.07223E-29
7.15256E-01 8.77982E-29
7.19186E-01 8.49587E-29
7.23099E-01 8.22017E-29
7.26995E-01 7.95249E-29
7.30874E-01 7.69263E-29
7.34736E-01 7.44039E-29
7.38579E-01 7.19556E-29
7.42405E-01 6.95796E-29
7.46212E-01 6.72740E-29
7.50000E-01 6.50370E-29
7.53769E-01 6.28667E-29
7.57519E-01 6.07616E-29
7.61249E-01 5.87198E-29
7.64960E-01 5.67397E-29
7.68650E-01 5.48198E-29
7.72320E-01 5.29584E-29
7.75968E-01 5.11540E-29
7.79596E-01 4.94050E-29
7.83203E-01 4.77101E-29
7.86788E-01 4.60677E-29
7.90351E-01 4.44765E-29
7.93893E-01 4.29351E-29
7.97411E-01 4.14420E-29
8.00908E-01 3.99961E-29
8.04381E-01 3.85959E-29
8.07831E-01 3.72403E-29
8.11257E-01 3.59279E-29
8.14660E-01 3.46576E-29
8.18039E-01 3.34281E-29
8.21394E-01 3.22384E-29
8.24724E-01 3.10872E-29
8.28030E-01 2.99734E-29
8.31310E-01 2.88960E-29
8.34565E-01 2.78539E-29
8.37795E-01 2.68460E-29
8.40999E-01 2.58714E-29
8.44177E-01 2.49289E-29
8.47329E-01 2.40178E-29
8.50455E-01 2.31369E-29
8.53553E-01 2.22855E-29
8.56625E-01 2.14625E-29
8.59670E-01 2.06672E-29
8.62687E-01 1.98986E-29
8.65677E-01 1.91559E-29
8.68639E-01 1.84383E-29
8.71572E-01 1.77450E-29
8.74478E-01 1.70752E-29
8.77355E-01 1.64282E-29
8.80203E-01 1.58033E-29
8.83022E-01 1.51997E-29
8.85812E-01 1.46167E-29
8.88573E-01 1.40537E-29
8.91304E-01 1.35100E-29
8.94005E-01 1.29850E-29
8.96677E-01 1.24781E-29
8.99318E-01 1.19886E-29
9.01928E-01 1.15160E-29
9.04508E-01 1.10597E-29
9.07058E-01 1.06192E-29
9.09576E-01 1.01940E-29
9.12063E-01 9.78343E-30
9.14519E-01 9.38713E-30
9.16943E-01 9.00459E-30
9.19335E-01 8.63534E-30
9.21696E-01 8.27892E-30
9.24024E-01 7.93490E-30
9.26320E-01 7.60287E-30
9.28584E-01 7.28240E-30
9.30815E-01 6.97312E-30
9.33013E-01 6.67463E-30
9.35178E-01 6.38658E-30
9.37310E-01 6.10861E-30
9.39409E-01 5.84037E-30
9.41474E-01 5.58155E-30
9.43505E-01 5.33181E-30
9.45503E-01 5.09086E-30
9.47467E-01 4.85841E-30
9.49397E-01 4.63416E-30
9.51293E-01 4.41785E-30
9.53154E-01 4.20921E-30
9.54981E-01 4.00799E-30
9.56773E-01 3.81395E-30
9.58530E-01 3.62686E-30
9.60252E-01 3.44648E-30
9.61940E-01 3.27262E-30
9.63592E-01 3.10505E-30
9.65209E-01 2.94358E-30
9.66790E-01 2.78803E-30
9.68336E-01 2.63821E-30
9.69846E-01 2.49394E-30
9.71321E-01 2.35506E-30
9.72759E-01 2.22141E-30
9.74162E-01 2.09284E-30
9.75528E-01 1.96920E-30
9.76858E-01 1.85035E-30
9.78152E-01 1.73615E-30
9.79410E-01 1.62649E-30
9.80631E-01 1.52123E-30
9.81815E-01 1.42027E-30
9.82963E-01 1.32349E-30
9.84074E-01 1.23079E-30
9.85148E-01 1.14207E-30
9.86185E-01 1.05723E-30
9.87185E-01 9.76190E-31
9.88148E-01 8.98854E-31
9.89074E-01 8.25145E-31
9.89962E-01 7.54987E-31
9.90814E-01 6.88307E-31
9.91627E-01 6.25038E-31
9.92404E-01 5.65114E-31
9.93143E-01 5.08475E-31
9.93844E-01 4.55064E-31
9.94508E-01 4.04829E-31
9.95134E-01 3.57718E-31
9.95722E-01 3.13686E-31
9.96273E-01 2.72690E-31
9.96786E-01 2.34689E-31
9.97261E-01 1.99647E-31
9.97698E-01 1.67530E-31
9.98097E-01 1.38306E-31
9.98459E-01 1.11949E-31
9.98782E-01 8.84326E-32
9.99067E-01 6.77347E-32
9.99315E-01 4.98358E-32
9.99524E-01 3.47189E-32
9.99695E-01 2.23699E-32
9.99829E-01 1.27770E-32
9.99924E-01 5.93142E-33
9.99981E-01 1.82663E-33
1.00000E+00 4.58748E-34
