 #
 # Subroutine ELSEPA. Elastic scattering of electrons and positrons
 #                    by neutral atoms and positive ions
 #
 # Projectile: electron
 # Kinetic energy = 2.00000E+08 eV = 7.34987E+06 a.u.
 #
 # WARNING: High-energy factorization with free-atom DF screening.
 #          Absorption, polarization and exchange corrections are
 #          switched off.
 #          Phase shifts are calculated for the bare nucleus.
 #          Scattering amplitudes are not evaluated.
 #
 # Element: Tl,  Z =  81,  atomic weight = 2.04383E+02 g/mol
 #
 # Nuclear model: Fermi distribution
 #                Average radius = 6.30278E-13 cm
 #                Skin thickness = 5.46000E-14 cm
 #
 # Number of electrons = 81
 #
 # Total elastic cross section = 8.28324E-18 cm**2 = 2.95800E-01 a0**2
 # 1st transport cross section = 3.08506E-25 cm**2 = 1.10170E-08 a0**2
 # 2nd transport cross section = 9.23429E-25 cm**2 = 3.29762E-08 a0**2
 #
 #
 # Differential cross section:                       MU=(1-COS(THETA))/2
 #
 #  THETA        MU          DCS          DCS        Sherman      error
 #  (deg)                 (cm**2/sr)   (a0**2/sr)    function
 #----------------------------------------------------------------------
0.00000E+00 2.26995E-09
7.61557E-13 2.24601E-09
1.18994E-12 2.23279E-09
1.71346E-12 2.21684E-09
2.33225E-12 2.19829E-09
3.04617E-12 2.17728E-09
3.85530E-12 2.15396E-09
4.75964E-12 2.12848E-09
5.75917E-12 2.10103E-09
6.85391E-12 2.07172E-09
8.04379E-12 2.04087E-09
9.32893E-12 2.00859E-09
1.07092E-11 1.97499E-09
1.21847E-11 1.94041E-09
1.37554E-11 1.90487E-09
1.54213E-11 1.86859E-09
1.71823E-11 1.83186E-09
1.90386E-11 1.79454E-09
2.09900E-11 1.75703E-09
2.30367E-11 1.71949E-09
2.51785E-11 1.68168E-09
2.74156E-11 1.64414E-09
2.97478E-11 1.60677E-09
3.21752E-11 1.56956E-09
3.46979E-11 1.53289E-09
3.73157E-11 1.49650E-09
4.00286E-11 1.46060E-09
4.28368E-11 1.42545E-09
4.57402E-11 1.39057E-09
4.87388E-11 1.35647E-09
5.18325E-11 1.32315E-09
5.50215E-11 1.29020E-09
5.83057E-11 1.25819E-09
6.16850E-11 1.22685E-09
6.51595E-11 1.19608E-09
6.87293E-11 1.16629E-09
7.23943E-11 1.13700E-09
7.61544E-11 1.10847E-09
1.18991E-10 8.61761E-10
1.71347E-10 6.75164E-10
2.33223E-10 5.34035E-10
3.04617E-10 4.26694E-10
3.85531E-10 3.44081E-10
4.75965E-10 2.79770E-10
5.75917E-10 2.29071E-10
6.85389E-10 1.86838E-10
8.04380E-10 1.55846E-10
9.32891E-10 1.31211E-10
1.07092E-09 1.09956E-10
1.21847E-09 9.36449E-11
1.37554E-09 7.98962E-11
1.54213E-09 6.84395E-11
1.71823E-09 5.93324E-11
1.90386E-09 5.13605E-11
2.09900E-09 4.48030E-11
2.30367E-09 3.93984E-11
2.51785E-09 3.46146E-11
2.74156E-09 3.06490E-11
2.97478E-09 2.72521E-11
3.21752E-09 2.42703E-11
3.46978E-09 2.17492E-11
3.73156E-09 1.95197E-11
4.00286E-09 1.75702E-11
4.28368E-09 1.58955E-11
4.57402E-09 1.43731E-11
4.87388E-09 1.30465E-11
5.18326E-09 1.18823E-11
5.50215E-09 1.08177E-11
5.83057E-09 9.88524E-12
6.16850E-09 9.04773E-12
6.51596E-09 8.28721E-12
6.87293E-09 7.61458E-12
7.23942E-09 6.99894E-12
7.61544E-09 6.44355E-12
1.18991E-08 3.03942E-12
1.71347E-08 1.60498E-12
2.33223E-08 9.29852E-13
3.04617E-08 5.77974E-13
3.85531E-08 3.78680E-13
4.75965E-08 2.58709E-13
5.75917E-08 1.82697E-13
6.85389E-08 1.32704E-13
8.04380E-08 9.86945E-14
9.32891E-08 7.49257E-14
1.07092E-07 5.79081E-14
1.21847E-07 4.54599E-14
1.37554E-07 3.61824E-14
1.54213E-07 2.91531E-14
1.71823E-07 2.37487E-14
1.90386E-07 1.95389E-14
2.09900E-07 1.62208E-14
2.30367E-07 1.35775E-14
2.51785E-07 1.14511E-14
2.74156E-07 9.72460E-15
2.97478E-07 8.31178E-15
3.21752E-07 7.14676E-15
3.46978E-07 6.17922E-15
3.73156E-07 5.37026E-15
4.00286E-07 4.68966E-15
4.28368E-07 4.11372E-15
4.57402E-07 3.62367E-15
4.87388E-07 3.20455E-15
5.18325E-07 2.84438E-15
5.50215E-07 2.53344E-15
5.83057E-07 2.26387E-15
6.16850E-07 2.02918E-15
6.51596E-07 1.82413E-15
6.87293E-07 1.64433E-15
7.23942E-07 1.48614E-15
7.61543E-07 1.34651E-15
1.18991E-06 5.62469E-16
1.71347E-06 2.74562E-16
2.33223E-06 1.49436E-16
3.04617E-06 8.81413E-17
3.85531E-06 5.52981E-17
4.75964E-06 3.64286E-17
5.75916E-06 2.49661E-17
6.85388E-06 1.76791E-17
8.04378E-06 1.28675E-17
9.32888E-06 9.58721E-18
1.07092E-05 7.28884E-18
1.21846E-05 5.63976E-18
1.37553E-05 4.43178E-18
1.54212E-05 3.53060E-18
1.71822E-05 2.84726E-18
1.90385E-05 2.32010E-18
2.09899E-05 1.91196E-18
2.30365E-05 1.58944E-18
2.51783E-05 1.33173E-18
2.74153E-05 1.12388E-18
2.97475E-05 9.54885E-19
3.21749E-05 8.16486E-19
3.46974E-05 7.02351E-19
3.73152E-05 6.07572E-19
4.00281E-05 5.28324E-19
4.28362E-05 4.61618E-19
4.57395E-05 4.05115E-19
4.87380E-05 3.56979E-19
5.18317E-05 3.15763E-19
5.50205E-05 2.80312E-19
5.83045E-05 2.49695E-19
6.16838E-05 2.23149E-19
6.51582E-05 2.00046E-19
6.87277E-05 1.79866E-19
7.23925E-05 1.62173E-19
7.61524E-05 1.46969E-19
9.21439E-05 1.00581E-19
1.09658E-04 7.11522E-20
1.28695E-04 5.17607E-20
1.49255E-04 3.85571E-20
1.71338E-04 2.93166E-20
1.94942E-04 2.26916E-20
2.20070E-04 1.78412E-20
2.46720E-04 1.42235E-20
2.74892E-04 1.14806E-20
3.04586E-04 9.37006E-21
3.35803E-04 7.72448E-21
3.68542E-04 6.42593E-21
4.02802E-04 5.39002E-21
4.38585E-04 4.55540E-21
4.75889E-04 3.87676E-21
5.14715E-04 3.32037E-21
5.55063E-04 2.86063E-21
5.96931E-04 2.47806E-21
6.40321E-04 2.15759E-21
6.85233E-04 1.88747E-21
7.31665E-04 1.65833E-21
7.79618E-04 1.46301E-21
8.29092E-04 1.29568E-21
8.80086E-04 1.15165E-21
9.32601E-04 1.02712E-21
9.86636E-04 9.18993E-22
1.04219E-03 8.24736E-22
1.09927E-03 7.42264E-22
1.15786E-03 6.69845E-22
1.21797E-03 6.06040E-22
1.27961E-03 5.49645E-22
1.34276E-03 4.99646E-22
1.40743E-03 4.55193E-22
1.47362E-03 4.15558E-22
1.54133E-03 3.80129E-22
1.61056E-03 3.48379E-22
1.68131E-03 3.19858E-22
1.75357E-03 2.94180E-22
1.82735E-03 2.71009E-22
1.90265E-03 2.50058E-22
1.97947E-03 2.31076E-22
2.05780E-03 2.13844E-22
2.13765E-03 1.98172E-22
2.21902E-03 1.83894E-22
2.30190E-03 1.70863E-22
2.38630E-03 1.58951E-22
2.47222E-03 1.48044E-22
2.55965E-03 1.38043E-22
2.64859E-03 1.28858E-22
2.73905E-03 1.20412E-22
2.83103E-03 1.12633E-22
2.92452E-03 1.05461E-22
3.01952E-03 9.88380E-23
3.11604E-03 9.27160E-23
3.21407E-03 8.70497E-23
3.31362E-03 8.17993E-23
3.41468E-03 7.69288E-23
3.51725E-03 7.24059E-23
3.62133E-03 6.82012E-23
3.72692E-03 6.42886E-23
3.83403E-03 6.06440E-23
3.94265E-03 5.72460E-23
4.05278E-03 5.40748E-23
4.16442E-03 5.11127E-23
4.27757E-03 4.83435E-23
4.39223E-03 4.57525E-23
4.50840E-03 4.33261E-23
4.62608E-03 4.10522E-23
4.74527E-03 3.89194E-23
4.86597E-03 3.69176E-23
4.98817E-03 3.50372E-23
5.11188E-03 3.32697E-23
5.23711E-03 3.16072E-23
5.36383E-03 3.00422E-23
5.49207E-03 2.85683E-23
5.62181E-03 2.71791E-23
5.75306E-03 2.58689E-23
5.88581E-03 2.46326E-23
6.02007E-03 2.34653E-23
6.15583E-03 2.23624E-23
6.29310E-03 2.13199E-23
6.43187E-03 2.03339E-23
6.57214E-03 1.94008E-23
6.71392E-03 1.85174E-23
6.85720E-03 1.76805E-23
7.00198E-03 1.68874E-23
7.14827E-03 1.61353E-23
7.29605E-03 1.54219E-23
7.44534E-03 1.47447E-23
7.59612E-03 1.41017E-23
7.97965E-03 1.26310E-23
8.37255E-03 1.13341E-23
8.77480E-03 1.01876E-23
9.18641E-03 9.17171E-24
9.60736E-03 8.26946E-24
1.00376E-02 7.46649E-24
1.04773E-02 6.75043E-24
1.09262E-02 6.11069E-24
1.13844E-02 5.53810E-24
1.18520E-02 5.02474E-24
1.23288E-02 4.56374E-24
1.28150E-02 4.14914E-24
1.33104E-02 3.77571E-24
1.38150E-02 3.43891E-24
1.43290E-02 3.13475E-24
1.48521E-02 2.85973E-24
1.53845E-02 2.61075E-24
1.59262E-02 2.38510E-24
1.64770E-02 2.18038E-24
1.70371E-02 1.99446E-24
1.76063E-02 1.82545E-24
1.81848E-02 1.67167E-24
1.87724E-02 1.53163E-24
1.93692E-02 1.40400E-24
1.99751E-02 1.28758E-24
2.05901E-02 1.18131E-24
2.12143E-02 1.08425E-24
2.18476E-02 9.95524E-25
2.24900E-02 9.14378E-25
2.31415E-02 8.40116E-25
2.38021E-02 7.72117E-25
2.44717E-02 7.09820E-25
2.51504E-02 6.52718E-25
2.58382E-02 6.00353E-25
2.65349E-02 5.52311E-25
2.72407E-02 5.08217E-25
2.79555E-02 4.67730E-25
2.86793E-02 4.30543E-25
2.94120E-02 3.96373E-25
3.01537E-02 3.64968E-25
3.09043E-02 3.36093E-25
3.16639E-02 3.09539E-25
3.24324E-02 2.85113E-25
3.32098E-02 2.62638E-25
3.39961E-02 2.41955E-25
3.47912E-02 2.22918E-25
3.55952E-02 2.05391E-25
3.64081E-02 1.89253E-25
3.72297E-02 1.74392E-25
3.80602E-02 1.60704E-25
3.88995E-02 1.48097E-25
3.97476E-02 1.36483E-25
4.06044E-02 1.25784E-25
4.14700E-02 1.15926E-25
4.23443E-02 1.06844E-25
4.32273E-02 9.84759E-26
4.41190E-02 9.07653E-26
4.50194E-02 8.36606E-26
4.59284E-02 7.71143E-26
4.68461E-02 7.10825E-26
4.87074E-02 6.04044E-26
5.06030E-02 5.13409E-26
5.25328E-02 4.36495E-26
5.44967E-02 3.71243E-26
5.64946E-02 3.15905E-26
5.85262E-02 2.68992E-26
6.05914E-02 2.29235E-26
6.26901E-02 1.95558E-26
6.48222E-02 1.67041E-26
6.69873E-02 1.42903E-26
6.91854E-02 1.22476E-26
7.14163E-02 1.05194E-26
7.36799E-02 9.05729E-27
7.59760E-02 7.82029E-27
7.83043E-02 6.77345E-27
8.06647E-02 5.88708E-27
8.30571E-02 5.13599E-27
8.54812E-02 4.49881E-27
8.79369E-02 3.95746E-27
9.04240E-02 3.49662E-27
9.29422E-02 3.10337E-27
9.54915E-02 2.76680E-27
9.80716E-02 2.47773E-27
1.00682E-01 2.22846E-27
1.03323E-01 2.01251E-27
1.05995E-01 1.82447E-27
1.08696E-01 1.65982E-27
1.11427E-01 1.51479E-27
1.14188E-01 1.38626E-27
1.16978E-01 1.27163E-27
1.19797E-01 1.16877E-27
1.22645E-01 1.07589E-27
1.25522E-01 9.91539E-28
1.28428E-01 9.14530E-28
1.31361E-01 8.43879E-28
1.34323E-01 7.78783E-28
1.37313E-01 7.18587E-28
1.40330E-01 6.62752E-28
1.43375E-01 6.10840E-28
1.46447E-01 5.62487E-28
1.49545E-01 5.17395E-28
1.52671E-01 4.75313E-28
1.55823E-01 4.36031E-28
1.59001E-01 3.99371E-28
1.62205E-01 3.65176E-28
1.65435E-01 3.33309E-28
1.68690E-01 3.03648E-28
1.71970E-01 2.76079E-28
1.75276E-01 2.50499E-28
1.78606E-01 2.26808E-28
1.81961E-01 2.04911E-28
1.85340E-01 1.84718E-28
1.88743E-01 1.66139E-28
1.92169E-01 1.49087E-28
1.95619E-01 1.33477E-28
1.99092E-01 1.19226E-28
2.02589E-01 1.06252E-28
2.06107E-01 9.44741E-29
2.09649E-01 8.38141E-29
2.13212E-01 7.41956E-29
2.16797E-01 6.55444E-29
2.20404E-01 5.77889E-29
2.24032E-01 5.08597E-29
2.27680E-01 4.46905E-29
2.31350E-01 3.92177E-29
2.35040E-01 3.43806E-29
2.38751E-01 3.01220E-29
2.42481E-01 2.63875E-29
2.46231E-01 2.31260E-29
2.50000E-01 2.02897E-29
2.53788E-01 1.78339E-29
2.57595E-01 1.57172E-29
2.61421E-01 1.39010E-29
2.65264E-01 1.23501E-29
2.69126E-01 1.10321E-29
2.73005E-01 9.91716E-30
2.76901E-01 8.97849E-30
2.80814E-01 8.19169E-30
2.84744E-01 7.53484E-30
2.88691E-01 6.98831E-30
2.92653E-01 6.53459E-30
2.96632E-01 6.15820E-30
3.00625E-01 5.84553E-30
3.04634E-01 5.58465E-30
3.08658E-01 5.36522E-30
3.12697E-01 5.17836E-30
3.16749E-01 5.01646E-30
3.20816E-01 4.87311E-30
3.24896E-01 4.74297E-30
3.28990E-01 4.62162E-30
3.33097E-01 4.50550E-30
3.37216E-01 4.39179E-30
3.41348E-01 4.27830E-30
3.45492E-01 4.16341E-30
3.49647E-01 4.04599E-30
3.53814E-01 3.92530E-30
3.57992E-01 3.80096E-30
3.62181E-01 3.67286E-30
3.66381E-01 3.54113E-30
3.70590E-01 3.40608E-30
3.74810E-01 3.26815E-30
3.79039E-01 3.12791E-30
3.83277E-01 2.98599E-30
3.87524E-01 2.84305E-30
3.91780E-01 2.69979E-30
3.96044E-01 2.55691E-30
4.00316E-01 2.41508E-30
4.04596E-01 2.27497E-30
4.08882E-01 2.13718E-30
4.13176E-01 2.00229E-30
4.17476E-01 1.87081E-30
4.21783E-01 1.74321E-30
4.26095E-01 1.61988E-30
4.30413E-01 1.50118E-30
4.34737E-01 1.38738E-30
4.39065E-01 1.27871E-30
4.43398E-01 1.17534E-30
4.47736E-01 1.07738E-30
4.52077E-01 9.84912E-31
4.56422E-01 8.97946E-31
4.60770E-01 8.16463E-31
4.65122E-01 7.40400E-31
4.69476E-01 6.69664E-31
4.73832E-01 6.04129E-31
4.78190E-01 5.43644E-31
4.82550E-01 4.88033E-31
4.86912E-01 4.37105E-31
4.91274E-01 3.90652E-31
4.95637E-01 3.48454E-31
5.00000E-01 3.10283E-31
5.04363E-01 2.75906E-31
5.08726E-01 2.45086E-31
5.13088E-01 2.17586E-31
5.17450E-01 1.93171E-31
5.21810E-01 1.71608E-31
5.26168E-01 1.52670E-31
5.30524E-01 1.36137E-31
5.34878E-01 1.21794E-31
5.39230E-01 1.09439E-31
5.43578E-01 9.88746E-32
5.47923E-01 8.99170E-32
5.52264E-01 8.23910E-32
5.56602E-01 7.61329E-32
5.60935E-01 7.09894E-32
5.65263E-01 6.68182E-32
5.69587E-01 6.34881E-32
5.73905E-01 6.08781E-32
5.78217E-01 5.88778E-32
5.82524E-01 5.73870E-32
5.86824E-01 5.63150E-32
5.91118E-01 5.55803E-32
5.95404E-01 5.51106E-32
5.99684E-01 5.48414E-32
6.03956E-01 5.47166E-32
6.08220E-01 5.46869E-32
6.12476E-01 5.47101E-32
6.16723E-01 5.47503E-32
6.20961E-01 5.47773E-32
6.25190E-01 5.47660E-32
6.29410E-01 5.46965E-32
6.33619E-01 5.45528E-32
6.37819E-01 5.43229E-32
6.42008E-01 5.39985E-32
6.46186E-01 5.35740E-32
6.50353E-01 5.30466E-32
6.54508E-01 5.24157E-32
6.58652E-01 5.16828E-32
6.62784E-01 5.08510E-32
6.66903E-01 4.99248E-32
6.71010E-01 4.89098E-32
6.75104E-01 4.78124E-32
6.79184E-01 4.66398E-32
6.83251E-01 4.53997E-32
6.87303E-01 4.41000E-32
6.91342E-01 4.27489E-32
6.95366E-01 4.13545E-32
6.99375E-01 3.99250E-32
7.03368E-01 3.84683E-32
7.07347E-01 3.69921E-32
7.11309E-01 3.55038E-32
7.15256E-01 3.40105E-32
7.19186E-01 3.25187E-32
7.23099E-01 3.10347E-32
7.26995E-01 2.95642E-32
7.30874E-01 2.81124E-32
7.34736E-01 2.66841E-32
7.38579E-01 2.52836E-32
7.42405E-01 2.39146E-32
7.46212E-01 2.25806E-32
7.50000E-01 2.12844E-32
7.53769E-01 2.00284E-32
7.57519E-01 1.88147E-32
7.61249E-01 1.76449E-32
7.64960E-01 1.65202E-32
7.68650E-01 1.54416E-32
7.72320E-01 1.44095E-32
7.75968E-01 1.34244E-32
7.79596E-01 1.24861E-32
7.83203E-01 1.15945E-32
7.86788E-01 1.07491E-32
7.90351E-01 9.94908E-33
7.93893E-01 9.19375E-33
7.97411E-01 8.48204E-33
8.00908E-01 7.81281E-33
8.04381E-01 7.18481E-33
8.07831E-01 6.59670E-33
8.11257E-01 6.04703E-33
8.14660E-01 5.53434E-33
8.18039E-01 5.05708E-33
8.21394E-01 4.61368E-33
8.24724E-01 4.20258E-33
8.28030E-01 3.82218E-33
8.31310E-01 3.47090E-33
8.34565E-01 3.14715E-33
8.37795E-01 2.84941E-33
8.40999E-01 2.57613E-33
8.44177E-01 2.32583E-33
8.47329E-01 2.09707E-33
8.50455E-01 1.88843E-33
8.53553E-01 1.69856E-33
8.56625E-01 1.52615E-33
8.59670E-01 1.36996E-33
8.62687E-01 1.22877E-33
8.65677E-01 1.10146E-33
8.68639E-01 9.86925E-34
8.71572E-01 8.84144E-34
8.74478E-01 7.92142E-34
8.77355E-01 7.10000E-34
8.80203E-01 6.36856E-34
8.83022E-01 5.71902E-34
8.85812E-01 5.14381E-34
8.88573E-01 4.63587E-34
8.91304E-01 4.18865E-34
8.94005E-01 3.79604E-34
8.96677E-01 3.45242E-34
8.99318E-01 3.15258E-34
9.01928E-01 2.89174E-34
9.04508E-01 2.66550E-34
9.07058E-01 2.46984E-34
9.09576E-01 2.30109E-34
9.12063E-01 2.15590E-34
9.14519E-01 2.03124E-34
9.16943E-01 1.92438E-34
9.19335E-01 1.83284E-34
9.21696E-01 1.75441E-34
9.24024E-01 1.68710E-34
9.26320E-01 1.62914E-34
9.28584E-01 1.57896E-34
9.30815E-01 1.53519E-34
9.33013E-01 1.49659E-34
9.35178E-01 1.46212E-34
9.37310E-01 1.43084E-34
9.39409E-01 1.40195E-34
9.41474E-01 1.37479E-34
9.43505E-01 1.34877E-34
9.45503E-01 1.32341E-34
9.47467E-01 1.29831E-34
9.49397E-01 1.27315E-34
9.51293E-01 1.24767E-34
9.53154E-01 1.22167E-34
9.54981E-01 1.19500E-34
9.56773E-01 1.16756E-34
9.58530E-01 1.13929E-34
9.60252E-01 1.11015E-34
9.61940E-01 1.08014E-34
9.63592E-01 1.04929E-34
9.65209E-01 1.01763E-34
9.66790E-01 9.85223E-35
9.68336E-01 9.52145E-35
9.69846E-01 9.18477E-35
9.71321E-01 8.84298E-35
9.72759E-01 8.49724E-35
9.74162E-01 8.14838E-35
9.75528E-01 7.79746E-35
9.76858E-01 7.44554E-35
9.78152E-01 7.09362E-35
9.79410E-01 6.74269E-35
9.80631E-01 6.39380E-35
9.81815E-01 6.04780E-35
9.82963E-01 5.70568E-35
9.84074E-01 5.36824E-35
9.85148E-01 5.03636E-35
9.86185E-01 4.71084E-35
9.87185E-01 4.39237E-35
9.88148E-01 4.08166E-35
9.89074E-01 3.77934E-35
9.89962E-01 3.48601E-35
9.90814E-01 3.20220E-35
9.91627E-01 2.92841E-35
9.92404E-01 2.66508E-35
9.93143E-01 2.41265E-35
9.93844E-01 2.17146E-35
9.94508E-01 1.94189E-35
9.95134E-01 1.72420E-35
9.95722E-01 1.51866E-35
9.96273E-01 1.32553E-35
9.96786E-01 1.14498E-35
9.97261E-01 9.77230E-36
9.97698E-01 8.22401E-36
9.98097E-01 6.80645E-36
9.98459E-01 5.52106E-36
9.98782E-01 4.36857E-36
9.99067E-01 3.34977E-36
9.99315E-01 2.46563E-36
9.99524E-01 1.71669E-36
9.99695E-01 1.10316E-36
9.99829E-01 6.25655E-37
9.99924E-01 2.84351E-37
9.99981E-01 7.95302E-38
1.00000E+00 1.11576E-38
