 #
 # Subroutine ELSEPA. Elastic scattering of electrons and positrons
 #                    by neutral atoms and positive ions
 #
 # Projectile: electron
 # Kinetic energy = 8.00000E+08 eV = 2.93995E+07 a.u.
 #
 # WARNING: High-energy factorization with free-atom DF screening.
 #          Absorption, polarization and exchange corrections are
 #          switched off.
 #          Phase shifts are calculated for the bare nucleus.
 #          Scattering amplitudes are not evaluated.
 #
 # Element: Tl,  Z =  81,  atomic weight = 2.04383E+02 g/mol
 #
 # Nuclear model: Fermi distribution
 #                Average radius = 6.30278E-13 cm
 #                Skin thickness = 5.46000E-14 cm
 #
 # Number of electrons = 81
 #
 # Total elastic cross section = 8.26169E-18 cm**2 = 2.95030E-01 a0**2
 # 1st transport cross section = 1.91858E-26 cm**2 = 6.85136E-10 a0**2
 # 2nd transport cross section = 5.75486E-26 cm**2 = 2.05510E-09 a0**2
 #
 #
 # Differential cross section:                       MU=(1-COS(THETA))/2
 #
 #  THETA        MU          DCS          DCS        Sherman      error
 #  (deg)                 (cm**2/sr)   (a0**2/sr)    function
 #----------------------------------------------------------------------
0.00000E+00 3.61805E-08
7.61557E-13 3.09449E-08
1.18994E-12 2.86256E-08
1.71346E-12 2.62330E-08
2.33225E-12 2.38832E-08
3.04617E-12 2.16533E-08
3.85530E-12 1.95888E-08
4.75964E-12 1.77019E-08
5.75917E-12 1.60021E-08
6.85391E-12 1.44704E-08
8.04379E-12 1.31055E-08
9.32893E-12 1.18806E-08
1.07092E-11 1.07904E-08
1.21847E-11 9.81327E-09
1.37554E-11 8.94063E-09
1.54213E-11 8.15777E-09
1.71823E-11 7.45526E-09
1.90386E-11 6.82401E-09
2.09900E-11 6.25459E-09
2.30367E-11 5.74201E-09
2.51785E-11 5.27728E-09
2.74156E-11 4.85818E-09
2.97478E-11 4.47645E-09
3.21752E-11 4.13118E-09
3.46979E-11 3.81618E-09
3.73157E-11 3.51433E-09
4.00286E-11 3.23607E-09
4.28368E-11 2.99108E-09
4.57402E-11 2.77456E-09
4.87388E-11 2.58249E-09
5.18325E-11 2.41151E-09
5.50215E-11 2.25879E-09
5.83057E-11 2.10172E-09
6.16850E-11 1.95415E-09
6.51595E-11 1.82196E-09
6.87293E-11 1.70321E-09
7.23943E-11 1.59622E-09
7.61544E-11 1.49957E-09
1.18991E-10 8.23044E-10
1.71347E-10 4.91145E-10
2.33223E-10 3.12912E-10
3.04617E-10 2.09146E-10
3.85531E-10 1.45094E-10
4.75965E-10 1.03338E-10
5.75917E-10 7.54293E-11
6.85389E-10 5.61090E-11
8.04380E-10 4.25752E-11
9.32891E-10 3.28572E-11
1.07092E-09 2.57522E-11
1.21847E-09 2.04921E-11
1.37554E-09 1.65351E-11
1.54213E-09 1.35014E-11
1.71823E-09 1.11388E-11
1.90386E-09 9.27459E-12
2.09900E-09 7.78657E-12
2.30367E-09 6.58859E-12
2.51785E-09 5.61359E-12
2.74156E-09 4.81421E-12
2.97478E-09 4.15167E-12
3.21752E-09 3.59972E-12
3.46978E-09 3.13607E-12
3.73156E-09 2.74333E-12
4.00286E-09 2.41095E-12
4.28368E-09 2.12960E-12
4.57402E-09 1.88605E-12
4.87388E-09 1.67706E-12
5.18326E-09 1.49713E-12
5.50215E-09 1.33930E-12
5.83057E-09 1.20249E-12
6.16850E-09 1.08279E-12
6.51596E-09 9.77192E-13
6.87293E-09 8.84611E-13
7.23942E-09 8.02491E-13
7.61544E-09 7.29633E-13
1.18991E-08 3.13621E-13
1.71347E-08 1.56087E-13
2.33223E-08 8.61961E-14
3.04617E-08 5.14340E-14
3.85531E-08 3.25675E-14
4.75965E-08 2.16104E-14
5.75917E-08 1.48950E-14
6.85389E-08 1.05942E-14
8.04380E-08 7.73781E-15
9.32891E-08 5.78151E-15
1.07092E-07 4.40563E-15
1.21847E-07 3.41552E-15
1.37554E-07 2.68848E-15
1.54213E-07 2.14495E-15
1.71823E-07 1.73209E-15
1.90386E-07 1.41398E-15
2.09900E-07 1.16566E-15
2.30367E-07 9.69555E-16
2.51785E-07 8.13022E-16
2.74156E-07 6.86850E-16
2.97478E-07 5.84239E-16
3.21752E-07 5.00100E-16
3.46978E-07 4.30580E-16
3.73156E-07 3.72733E-16
4.00286E-07 3.24284E-16
4.28368E-07 2.83459E-16
4.57402E-07 2.48862E-16
4.87388E-07 2.19386E-16
5.18325E-07 1.94147E-16
5.50215E-07 1.72436E-16
5.83057E-07 1.53677E-16
6.16850E-07 1.37400E-16
6.51596E-07 1.23223E-16
6.87293E-07 1.10827E-16
7.23942E-07 9.99514E-17
7.61543E-07 9.03773E-17
1.18991E-06 3.71824E-17
1.71347E-06 1.79808E-17
2.33223E-06 9.72347E-18
3.04617E-06 5.70717E-18
3.85531E-06 3.56642E-18
4.75964E-06 2.34170E-18
5.75916E-06 1.60039E-18
6.85388E-06 1.13055E-18
8.04378E-06 8.21168E-19
9.32888E-06 6.10744E-19
1.07092E-05 4.63613E-19
1.21846E-05 3.58242E-19
1.37553E-05 2.81182E-19
1.54212E-05 2.23775E-19
1.71822E-05 1.80302E-19
1.90385E-05 1.46803E-19
2.09899E-05 1.20893E-19
2.30365E-05 1.00438E-19
2.51783E-05 8.41060E-20
2.74153E-05 7.09436E-20
2.97475E-05 6.02493E-20
3.21749E-05 5.14965E-20
3.46974E-05 4.42823E-20
3.73152E-05 3.82948E-20
4.00281E-05 3.32913E-20
4.28362E-05 2.90818E-20
4.57395E-05 2.55154E-20
4.87380E-05 2.24782E-20
5.18317E-05 1.98785E-20
5.50205E-05 1.76431E-20
5.83045E-05 1.57131E-20
6.16838E-05 1.40402E-20
6.51582E-05 1.25846E-20
6.87277E-05 1.13134E-20
7.23925E-05 1.01991E-20
7.61524E-05 9.45151E-21
9.21439E-05 6.46389E-21
1.09658E-04 4.56473E-21
1.28695E-04 3.31117E-21
1.49255E-04 2.45651E-21
1.71338E-04 1.85790E-21
1.94942E-04 1.42863E-21
2.20070E-04 1.11447E-21
2.46720E-04 8.80406E-22
2.74892E-04 7.03254E-22
3.04586E-04 5.67286E-22
3.35803E-04 4.61621E-22
3.68542E-04 3.78579E-22
4.02802E-04 3.12658E-22
4.38585E-04 2.59848E-22
4.75889E-04 2.17190E-22
5.14715E-04 1.82474E-22
5.55063E-04 1.54025E-22
5.96931E-04 1.30566E-22
6.40321E-04 1.11111E-22
6.85233E-04 9.48890E-23
7.31665E-04 8.12985E-23
7.79618E-04 6.98605E-23
8.29092E-04 6.01950E-23
8.80086E-04 5.19954E-23
9.32601E-04 4.50151E-23
9.86636E-04 3.90533E-23
1.04219E-03 3.39458E-23
1.09927E-03 2.95581E-23
1.15786E-03 2.57787E-23
1.21797E-03 2.25157E-23
1.27961E-03 1.96920E-23
1.34276E-03 1.72436E-23
1.40743E-03 1.51164E-23
1.47362E-03 1.32651E-23
1.54133E-03 1.16512E-23
1.61056E-03 1.02422E-23
1.68131E-03 9.01028E-24
1.75357E-03 7.93190E-24
1.82735E-03 6.98676E-24
1.90265E-03 6.15754E-24
1.97947E-03 5.42929E-24
2.05780E-03 4.78915E-24
2.13765E-03 4.22600E-24
2.21902E-03 3.73023E-24
2.30190E-03 3.29349E-24
2.38630E-03 2.90853E-24
2.47222E-03 2.56904E-24
2.55965E-03 2.26951E-24
2.64859E-03 2.00515E-24
2.73905E-03 1.77174E-24
2.83103E-03 1.56561E-24
2.92452E-03 1.38354E-24
3.01952E-03 1.22269E-24
3.11604E-03 1.08058E-24
3.21407E-03 9.55006E-25
3.31362E-03 8.44050E-25
3.41468E-03 7.46013E-25
3.51725E-03 6.59395E-25
3.62133E-03 5.82874E-25
3.72692E-03 5.15282E-25
3.83403E-03 4.55586E-25
3.94265E-03 4.02875E-25
4.05278E-03 3.56339E-25
4.16442E-03 3.15266E-25
4.27757E-03 2.79022E-25
4.39223E-03 2.47048E-25
4.50840E-03 2.18848E-25
4.62608E-03 1.93982E-25
4.74527E-03 1.72062E-25
4.86597E-03 1.52742E-25
4.98817E-03 1.35718E-25
5.11188E-03 1.20719E-25
5.23711E-03 1.07506E-25
5.36383E-03 9.58662E-26
5.49207E-03 8.56130E-26
5.62181E-03 7.65802E-26
5.75306E-03 6.86211E-26
5.88581E-03 6.16061E-26
6.02007E-03 5.54205E-26
6.15583E-03 4.99633E-26
6.29310E-03 4.51453E-26
6.43187E-03 4.08877E-26
6.57214E-03 3.71215E-26
6.71392E-03 3.37854E-26
6.85720E-03 3.08261E-26
7.00198E-03 2.81963E-26
7.14827E-03 2.58548E-26
7.29605E-03 2.37653E-26
7.44534E-03 2.18961E-26
7.59612E-03 2.02195E-26
7.97965E-03 1.67193E-26
8.37255E-03 1.39791E-26
8.77480E-03 1.17867E-26
9.18641E-03 9.99425E-27
9.60736E-03 8.49924E-27
1.00376E-02 7.23130E-27
1.04773E-02 6.14228E-27
1.09262E-02 5.19912E-27
1.13844E-02 4.37886E-27
1.18520E-02 3.66505E-27
1.23288E-02 3.04539E-27
1.28150E-02 2.51007E-27
1.33104E-02 2.05076E-27
1.38150E-02 1.65997E-27
1.43290E-02 1.33070E-27
1.48521E-02 1.05626E-27
1.53845E-02 8.30227E-28
1.59262E-02 6.46461E-28
1.64770E-02 4.99127E-28
1.70371E-02 3.82769E-28
1.76063E-02 2.92360E-28
1.81848E-02 2.23339E-28
1.87724E-02 1.71639E-28
1.93692E-02 1.33697E-28
1.99751E-02 1.06448E-28
2.05901E-02 8.73035E-29
2.12143E-02 7.41232E-29
2.18476E-02 6.51761E-29
2.24900E-02 5.90967E-29
2.31415E-02 5.48384E-29
2.38021E-02 5.16272E-29
2.44717E-02 4.89160E-29
2.51504E-02 4.63417E-29
2.58382E-02 4.36861E-29
2.65349E-02 4.08409E-29
2.72407E-02 3.77782E-29
2.79555E-02 3.45244E-29
2.86793E-02 3.11399E-29
2.94120E-02 2.77027E-29
3.01537E-02 2.42955E-29
3.09043E-02 2.09974E-29
3.16639E-02 1.78772E-29
3.24324E-02 1.49900E-29
3.32098E-02 1.23759E-29
3.39961E-02 1.00594E-29
3.47912E-02 8.05070E-30
3.55952E-02 6.34737E-30
3.64081E-02 4.93644E-30
3.72297E-02 3.79680E-30
3.80602E-02 2.90156E-30
3.88995E-02 2.22025E-30
3.97476E-02 1.72078E-30
4.06044E-02 1.37116E-30
4.14700E-02 1.14079E-30
4.23443E-02 1.00152E-30
4.32273E-02 9.28313E-31
4.41190E-02 8.99680E-31
4.50194E-02 8.97825E-31
4.59284E-02 9.08607E-31
4.68461E-02 9.21341E-31
4.87074E-02 9.25185E-31
5.06030E-02 8.79093E-31
5.25328E-02 7.82397E-31
5.44967E-02 6.50747E-31
5.64946E-02 5.05420E-31
5.85262E-02 3.66050E-31
6.05914E-02 2.46707E-31
6.26901E-02 1.54689E-31
6.48222E-02 9.11789E-32
6.69873E-02 5.28973E-32
6.91854E-02 3.40588E-32
7.14163E-02 2.81347E-32
7.36799E-02 2.91601E-32
7.59760E-02 3.25017E-32
7.83043E-02 3.51330E-32
8.06647E-02 3.55407E-32
8.30571E-02 3.34039E-32
8.54812E-02 2.91841E-32
8.79369E-02 2.37268E-32
9.04240E-02 1.79417E-32
9.29422E-02 1.25890E-32
9.54915E-02 8.17191E-33
9.80716E-02 4.91689E-33
1.00682E-01 2.81384E-33
1.03323E-01 1.68773E-33
1.05995E-01 1.27762E-33
1.08696E-01 1.30605E-33
1.11427E-01 1.52932E-33
1.14188E-01 1.76593E-33
1.16978E-01 1.90529E-33
1.19797E-01 1.90157E-33
1.22645E-01 1.75861E-33
1.25522E-01 1.51140E-33
1.28428E-01 1.20840E-33
1.31361E-01 8.97561E-34
1.34323E-01 6.17105E-34
1.37313E-01 3.91210E-34
1.40330E-01 2.29625E-34
1.43375E-01 1.30047E-34
1.46447E-01 8.19258E-35
1.49545E-01 7.05539E-35
1.52671E-01 8.06486E-35
1.55823E-01 9.89477E-35
1.59001E-01 1.15686E-34
1.62205E-01 1.25041E-34
1.65435E-01 1.24796E-34
1.68690E-01 1.15512E-34
1.71970E-01 9.95069E-35
1.75276E-01 7.98573E-35
1.78606E-01 5.96003E-35
1.81961E-01 4.11889E-35
1.85340E-01 2.62204E-35
1.88743E-01 1.53968E-35
1.92169E-01 8.65021E-36
1.95619E-01 5.36289E-36
1.99092E-01 4.61530E-36
2.02589E-01 5.41230E-36
2.06107E-01 6.85682E-36
2.09649E-01 8.25757E-36
2.13212E-01 9.17306E-36
2.16797E-01 9.40324E-36
2.20404E-01 8.94572E-36
2.24032E-01 7.93404E-36
2.27680E-01 6.57288E-36
2.31350E-01 5.08168E-36
2.35040E-01 3.65273E-36
2.38751E-01 2.42634E-36
2.42481E-01 1.48168E-36
2.46231E-01 8.40165E-37
2.50000E-01 4.77235E-37
2.53788E-01 3.38037E-37
2.57595E-01 3.53539E-37
2.61421E-01 4.54396E-37
2.65264E-01 5.81040E-37
2.69126E-01 6.89509E-37
2.73005E-01 7.53327E-37
2.76901E-01 7.62249E-37
2.80814E-01 7.18973E-37
2.84744E-01 6.34853E-37
2.88691E-01 5.25565E-37
2.92653E-01 4.07382E-37
2.96632E-01 2.94437E-37
3.00625E-01 1.97082E-37
3.04634E-01 1.00000E-45
3.08658E-01 1.00000E-45
3.12697E-01 1.00000E-45
3.16749E-01 1.00000E-45
3.20816E-01 1.00000E-45
3.24896E-01 1.00000E-45
3.28990E-01 1.00000E-45
3.33097E-01 1.00000E-45
3.37216E-01 1.00000E-45
3.41348E-01 1.00000E-45
3.45492E-01 1.00000E-45
3.49647E-01 1.00000E-45
3.53814E-01 1.00000E-45
3.57992E-01 1.00000E-45
3.62181E-01 1.00000E-45
3.66381E-01 1.00000E-45
3.70590E-01 1.00000E-45
3.74810E-01 1.00000E-45
3.79039E-01 1.00000E-45
3.83277E-01 1.00000E-45
3.87524E-01 1.00000E-45
3.91780E-01 1.00000E-45
3.96044E-01 1.00000E-45
4.00316E-01 1.00000E-45
4.04596E-01 1.00000E-45
4.08882E-01 1.00000E-45
4.13176E-01 1.00000E-45
4.17476E-01 1.00000E-45
4.21783E-01 1.00000E-45
4.26095E-01 1.00000E-45
4.30413E-01 1.00000E-45
4.34737E-01 1.00000E-45
4.39065E-01 1.00000E-45
4.43398E-01 1.00000E-45
4.47736E-01 1.00000E-45
4.52077E-01 1.00000E-45
4.56422E-01 1.00000E-45
4.60770E-01 1.00000E-45
4.65122E-01 1.00000E-45
4.69476E-01 1.00000E-45
4.73832E-01 1.00000E-45
4.78190E-01 1.00000E-45
4.82550E-01 1.00000E-45
4.86912E-01 1.00000E-45
4.91274E-01 1.00000E-45
4.95637E-01 1.00000E-45
5.00000E-01 1.00000E-45
5.04363E-01 1.00000E-45
5.08726E-01 1.00000E-45
5.13088E-01 1.00000E-45
5.17450E-01 1.00000E-45
5.21810E-01 1.00000E-45
5.26168E-01 1.00000E-45
5.30524E-01 1.00000E-45
5.34878E-01 1.00000E-45
5.39230E-01 1.00000E-45
5.43578E-01 1.00000E-45
5.47923E-01 1.00000E-45
5.52264E-01 1.00000E-45
5.56602E-01 1.00000E-45
5.60935E-01 1.00000E-45
5.65263E-01 1.00000E-45
5.69587E-01 1.00000E-45
5.73905E-01 1.00000E-45
5.78217E-01 1.00000E-45
5.82524E-01 1.00000E-45
5.86824E-01 1.00000E-45
5.91118E-01 1.00000E-45
5.95404E-01 1.00000E-45
5.99684E-01 1.00000E-45
6.03956E-01 1.00000E-45
6.08220E-01 1.00000E-45
6.12476E-01 1.00000E-45
6.16723E-01 1.00000E-45
6.20961E-01 1.00000E-45
6.25190E-01 1.00000E-45
6.29410E-01 1.00000E-45
6.33619E-01 1.00000E-45
6.37819E-01 1.00000E-45
6.42008E-01 1.00000E-45
6.46186E-01 1.00000E-45
6.50353E-01 1.00000E-45
6.54508E-01 1.00000E-45
6.58652E-01 1.00000E-45
6.62784E-01 1.00000E-45
6.66903E-01 1.00000E-45
6.71010E-01 1.00000E-45
6.75104E-01 1.00000E-45
6.79184E-01 1.00000E-45
6.83251E-01 1.00000E-45
6.87303E-01 1.00000E-45
6.91342E-01 1.00000E-45
6.95366E-01 1.00000E-45
6.99375E-01 1.00000E-45
7.03368E-01 1.00000E-45
7.07347E-01 1.00000E-45
7.11309E-01 1.00000E-45
7.15256E-01 1.00000E-45
7.19186E-01 1.00000E-45
7.23099E-01 1.00000E-45
7.26995E-01 1.00000E-45
7.30874E-01 1.00000E-45
7.34736E-01 1.00000E-45
7.38579E-01 1.00000E-45
7.42405E-01 1.00000E-45
7.46212E-01 1.00000E-45
7.50000E-01 1.00000E-45
7.53769E-01 1.00000E-45
7.57519E-01 1.00000E-45
7.61249E-01 1.00000E-45
7.64960E-01 1.00000E-45
7.68650E-01 1.00000E-45
7.72320E-01 1.00000E-45
7.75968E-01 1.00000E-45
7.79596E-01 1.00000E-45
7.83203E-01 1.00000E-45
7.86788E-01 1.00000E-45
7.90351E-01 1.00000E-45
7.93893E-01 1.00000E-45
7.97411E-01 1.00000E-45
8.00908E-01 1.00000E-45
8.04381E-01 1.00000E-45
8.07831E-01 1.00000E-45
8.11257E-01 1.00000E-45
8.14660E-01 1.00000E-45
8.18039E-01 1.00000E-45
8.21394E-01 1.00000E-45
8.24724E-01 1.00000E-45
8.28030E-01 1.00000E-45
8.31310E-01 1.00000E-45
8.34565E-01 1.00000E-45
8.37795E-01 1.00000E-45
8.40999E-01 1.00000E-45
8.44177E-01 1.00000E-45
8.47329E-01 1.00000E-45
8.50455E-01 1.00000E-45
8.53553E-01 1.00000E-45
8.56625E-01 1.00000E-45
8.59670E-01 1.00000E-45
8.62687E-01 1.00000E-45
8.65677E-01 1.00000E-45
8.68639E-01 1.00000E-45
8.71572E-01 1.00000E-45
8.74478E-01 1.00000E-45
8.77355E-01 1.00000E-45
8.80203E-01 1.00000E-45
8.83022E-01 1.00000E-45
8.85812E-01 1.00000E-45
8.88573E-01 1.00000E-45
8.91304E-01 1.00000E-45
8.94005E-01 1.00000E-45
8.96677E-01 1.00000E-45
8.99318E-01 1.00000E-45
9.01928E-01 1.00000E-45
9.04508E-01 1.00000E-45
9.07058E-01 1.00000E-45
9.09576E-01 1.00000E-45
9.12063E-01 1.00000E-45
9.14519E-01 1.00000E-45
9.16943E-01 1.00000E-45
9.19335E-01 1.00000E-45
9.21696E-01 1.00000E-45
9.24024E-01 1.00000E-45
9.26320E-01 1.00000E-45
9.28584E-01 1.00000E-45
9.30815E-01 1.00000E-45
9.33013E-01 1.00000E-45
9.35178E-01 1.00000E-45
9.37310E-01 1.00000E-45
9.39409E-01 1.00000E-45
9.41474E-01 1.00000E-45
9.43505E-01 1.00000E-45
9.45503E-01 1.00000E-45
9.47467E-01 1.00000E-45
9.49397E-01 1.00000E-45
9.51293E-01 1.00000E-45
9.53154E-01 1.00000E-45
9.54981E-01 1.00000E-45
9.56773E-01 1.00000E-45
9.58530E-01 1.00000E-45
9.60252E-01 1.00000E-45
9.61940E-01 1.00000E-45
9.63592E-01 1.00000E-45
9.65209E-01 1.00000E-45
9.66790E-01 1.00000E-45
9.68336E-01 1.00000E-45
9.69846E-01 1.00000E-45
9.71321E-01 1.00000E-45
9.72759E-01 1.00000E-45
9.74162E-01 1.00000E-45
9.75528E-01 1.00000E-45
9.76858E-01 1.00000E-45
9.78152E-01 1.00000E-45
9.79410E-01 1.00000E-45
9.80631E-01 1.00000E-45
9.81815E-01 1.00000E-45
9.82963E-01 1.00000E-45
9.84074E-01 1.00000E-45
9.85148E-01 1.00000E-45
9.86185E-01 1.00000E-45
9.87185E-01 1.00000E-45
9.88148E-01 1.00000E-45
9.89074E-01 1.00000E-45
9.89962E-01 1.00000E-45
9.90814E-01 1.00000E-45
9.91627E-01 1.00000E-45
9.92404E-01 1.00000E-45
9.93143E-01 1.00000E-45
9.93844E-01 1.00000E-45
9.94508E-01 1.00000E-45
9.95134E-01 1.00000E-45
9.95722E-01 1.00000E-45
9.96273E-01 1.00000E-45
9.96786E-01 1.00000E-45
9.97261E-01 1.00000E-45
9.97698E-01 1.00000E-45
9.98097E-01 1.00000E-45
9.98459E-01 1.00000E-45
9.98782E-01 1.00000E-45
9.99067E-01 1.00000E-45
9.99315E-01 1.00000E-45
9.99524E-01 1.00000E-45
9.99695E-01 1.00000E-45
9.99829E-01 1.00000E-45
9.99924E-01 1.00000E-45
9.99981E-01 1.00000E-45
1.00000E+00 1.00000E-45
