 #
 # Subroutine ELSEPA. Elastic scattering of electrons and positrons
 #                    by neutral atoms and positive ions
 #
 # Projectile: electron
 # Kinetic energy = 3.50000E+07 eV = 1.28623E+06 a.u.
 #
 # WARNING: High-energy factorization with free-atom DF screening.
 #          Absorption, polarization and exchange corrections are
 #          switched off.
 #          Phase shifts are calculated for the bare nucleus.
 #          Scattering amplitudes are not evaluated.
 #
 # Element: Tl,  Z =  81,  atomic weight = 2.04383E+02 g/mol
 #
 # Nuclear model: Fermi distribution
 #                Average radius = 6.30278E-13 cm
 #                Skin thickness = 5.46000E-14 cm
 #
 # Number of electrons = 81
 #
 # Total elastic cross section = 8.28544E-18 cm**2 = 2.95879E-01 a0**2
 # 1st transport cross section = 9.94036E-24 cm**2 = 3.54977E-07 a0**2
 # 2nd transport cross section = 2.86996E-23 cm**2 = 1.02488E-06 a0**2
 #
 #
 # Differential cross section:                       MU=(1-COS(THETA))/2
 #
 #  THETA        MU          DCS          DCS        Sherman      error
 #  (deg)                 (cm**2/sr)   (a0**2/sr)    function
 #----------------------------------------------------------------------
0.00000E+00 7.11976E-11
7.61557E-13 7.11736E-11
1.18994E-12 7.11602E-11
1.71346E-12 7.11438E-11
2.33225E-12 7.11245E-11
3.04617E-12 7.11022E-11
3.85530E-12 7.10770E-11
4.75964E-12 7.10488E-11
5.75917E-12 7.10177E-11
6.85391E-12 7.09837E-11
8.04379E-12 7.09468E-11
9.32893E-12 7.09070E-11
1.07092E-11 7.08643E-11
1.21847E-11 7.08187E-11
1.37554E-11 7.07702E-11
1.54213E-11 7.07189E-11
1.71823E-11 7.06647E-11
1.90386E-11 7.06076E-11
2.09900E-11 7.05478E-11
2.30367E-11 7.04852E-11
2.51785E-11 7.04197E-11
2.74156E-11 7.03515E-11
2.97478E-11 7.02806E-11
3.21752E-11 7.02069E-11
3.46979E-11 7.01304E-11
3.73157E-11 7.00513E-11
4.00286E-11 6.99695E-11
4.28368E-11 6.98850E-11
4.57402E-11 6.97979E-11
4.87388E-11 6.97082E-11
5.18325E-11 6.96158E-11
5.50215E-11 6.95209E-11
5.83057E-11 6.94234E-11
6.16850E-11 6.93234E-11
6.51595E-11 6.92208E-11
6.87293E-11 6.91158E-11
7.23943E-11 6.90083E-11
7.61544E-11 6.88984E-11
1.18991E-10 6.76709E-11
1.71347E-10 6.62298E-11
2.33223E-10 6.46032E-11
3.04617E-10 6.28273E-11
3.85531E-10 6.09308E-11
4.75965E-10 5.89431E-11
5.75917E-10 5.68986E-11
6.85389E-10 5.48164E-11
8.04380E-10 5.27227E-11
9.32891E-10 5.06429E-11
1.07092E-09 4.85813E-11
1.21847E-09 4.65610E-11
1.37554E-09 4.45972E-11
1.54213E-09 4.26791E-11
1.71823E-09 4.08311E-11
1.90386E-09 3.90549E-11
2.09900E-09 3.73388E-11
2.30367E-09 3.57011E-11
2.51785E-09 3.41351E-11
2.74156E-09 3.26329E-11
2.97478E-09 3.12069E-11
3.21752E-09 2.98451E-11
3.46978E-09 2.85451E-11
3.73156E-09 2.73145E-11
4.00286E-09 2.61378E-11
4.28368E-09 2.50187E-11
4.57402E-09 2.39604E-11
4.87388E-09 2.29457E-11
5.18326E-09 2.19836E-11
5.50215E-09 2.10738E-11
5.83057E-09 2.01985E-11
6.16850E-09 1.93706E-11
6.51596E-09 1.85850E-11
6.87293E-09 1.78307E-11
7.23942E-09 1.71168E-11
7.61544E-09 1.64368E-11
1.18991E-08 1.11298E-11
1.71347E-08 7.74327E-12
2.33223E-08 5.44095E-12
3.04617E-08 3.99163E-12
3.85531E-08 2.96586E-12
4.75965E-08 2.24315E-12
5.75917E-08 1.73673E-12
6.85389E-08 1.36029E-12
8.04380E-08 1.08305E-12
9.32891E-08 8.76543E-13
1.07092E-07 7.15321E-13
1.21847E-07 5.90926E-13
1.37554E-07 4.93642E-13
1.54213E-07 4.14198E-13
1.71823E-07 3.50709E-13
1.90386E-07 2.99021E-13
2.09900E-07 2.55852E-13
2.30367E-07 2.20362E-13
2.51785E-07 1.90667E-13
2.74156E-07 1.65548E-13
2.97478E-07 1.44483E-13
3.21752E-07 1.26539E-13
3.46978E-07 1.11225E-13
3.73156E-07 9.81871E-14
4.00286E-07 8.69389E-14
4.28368E-07 7.72746E-14
4.57402E-07 6.89454E-14
4.87388E-07 6.16324E-14
5.18325E-07 5.52843E-14
5.50215E-07 4.97541E-14
5.83057E-07 4.48960E-14
6.16850E-07 4.06374E-14
6.51596E-07 3.68863E-14
6.87293E-07 3.35596E-14
7.23942E-07 3.06114E-14
7.61543E-07 2.79852E-14
1.18991E-06 1.26053E-14
1.71347E-06 6.51236E-15
2.33223E-06 3.69429E-15
3.04617E-06 2.25190E-15
3.85531E-06 1.44889E-15
4.75964E-06 9.74279E-16
5.75916E-06 6.78735E-16
6.85388E-06 4.87111E-16
8.04378E-06 3.58613E-16
9.32888E-06 2.69783E-16
1.07092E-05 2.06877E-16
1.21846E-05 1.61309E-16
1.37553E-05 1.27634E-16
1.54212E-05 1.02324E-16
1.71822E-05 8.29904E-17
1.90385E-05 6.79770E-17
2.09899E-05 5.62854E-17
2.30365E-05 4.69907E-17
2.51783E-05 3.95259E-17
2.74153E-05 3.34752E-17
2.97475E-05 2.85331E-17
3.21749E-05 2.44697E-17
3.46974E-05 2.11054E-17
3.73152E-05 1.83022E-17
4.00281E-05 1.59511E-17
4.28362E-05 1.39659E-17
4.57395E-05 1.22800E-17
4.87380E-05 1.08401E-17
5.18317E-05 9.60440E-18
5.50205E-05 8.53934E-18
5.83045E-05 7.61759E-18
6.16838E-05 6.81701E-18
6.51582E-05 6.11911E-18
6.87277E-05 5.50848E-18
7.23925E-05 4.97234E-18
7.61524E-05 4.49883E-18
9.21439E-05 3.08828E-18
1.09658E-04 2.18992E-18
1.28695E-04 1.59608E-18
1.49255E-04 1.19067E-18
1.71338E-04 9.06333E-19
1.94942E-04 7.02098E-19
2.20070E-04 5.52348E-19
2.46720E-04 4.40516E-19
2.74892E-04 3.55640E-19
3.04586E-04 2.90277E-19
3.35803E-04 2.39283E-19
3.68542E-04 1.99025E-19
4.02802E-04 1.66899E-19
4.38585E-04 1.41011E-19
4.75889E-04 1.19960E-19
5.14715E-04 1.02702E-19
5.55063E-04 8.84441E-20
5.96931E-04 7.65814E-20
6.40321E-04 6.66465E-20
6.85233E-04 5.82750E-20
7.31665E-04 5.11808E-20
7.79618E-04 4.51364E-20
8.29092E-04 3.99610E-20
8.80086E-04 3.55085E-20
9.32601E-04 3.16610E-20
9.86636E-04 2.83224E-20
1.04219E-03 2.54138E-20
1.09927E-03 2.28706E-20
1.15786E-03 2.06387E-20
1.21797E-03 1.86736E-20
1.27961E-03 1.69378E-20
1.34276E-03 1.54000E-20
1.40743E-03 1.40335E-20
1.47362E-03 1.28159E-20
1.54133E-03 1.17282E-20
1.61056E-03 1.07540E-20
1.68131E-03 9.87942E-21
1.75357E-03 9.09242E-21
1.82735E-03 8.38265E-21
1.90265E-03 7.74121E-21
1.97947E-03 7.16030E-21
2.05780E-03 6.63321E-21
2.13765E-03 6.15403E-21
2.21902E-03 5.71761E-21
2.30190E-03 5.31947E-21
2.38630E-03 4.95561E-21
2.47222E-03 4.62255E-21
2.55965E-03 4.31720E-21
2.64859E-03 4.03683E-21
2.73905E-03 3.77904E-21
2.83103E-03 3.54164E-21
2.92452E-03 3.32275E-21
3.01952E-03 3.12065E-21
3.11604E-03 2.93380E-21
3.21407E-03 2.76085E-21
3.31362E-03 2.60057E-21
3.41468E-03 2.45185E-21
3.51725E-03 2.31371E-21
3.62133E-03 2.18525E-21
3.72692E-03 2.06566E-21
3.83403E-03 1.95422E-21
3.94265E-03 1.85027E-21
4.05278E-03 1.75321E-21
4.16442E-03 1.66249E-21
4.27757E-03 1.57762E-21
4.39223E-03 1.49816E-21
4.50840E-03 1.42369E-21
4.62608E-03 1.35384E-21
4.74527E-03 1.28827E-21
4.86597E-03 1.22666E-21
4.98817E-03 1.16873E-21
5.11188E-03 1.11422E-21
5.23711E-03 1.06289E-21
5.36383E-03 1.01452E-21
5.49207E-03 9.68896E-22
5.62181E-03 9.25842E-22
5.75306E-03 8.85180E-22
5.88581E-03 8.46753E-22
6.02007E-03 8.10416E-22
6.15583E-03 7.76031E-22
6.29310E-03 7.43475E-22
6.43187E-03 7.12628E-22
6.57214E-03 6.83385E-22
6.71392E-03 6.55647E-22
6.85720E-03 6.29322E-22
7.00198E-03 6.04322E-22
7.14827E-03 5.80566E-22
7.29605E-03 5.57983E-22
7.44534E-03 5.36502E-22
7.59612E-03 5.16061E-22
7.97965E-03 4.69109E-22
8.37255E-03 4.27450E-22
8.77480E-03 3.90374E-22
9.18641E-03 3.57286E-22
9.60736E-03 3.27680E-22
1.00376E-02 3.01119E-22
1.04773E-02 2.77234E-22
1.09262E-02 2.55705E-22
1.13844E-02 2.36255E-22
1.18520E-02 2.18647E-22
1.23288E-02 2.02673E-22
1.28150E-02 1.88153E-22
1.33104E-02 1.74930E-22
1.38150E-02 1.62865E-22
1.43290E-02 1.51839E-22
1.48521E-02 1.41743E-22
1.53845E-02 1.32486E-22
1.59262E-02 1.23983E-22
1.64770E-02 1.16162E-22
1.70371E-02 1.08957E-22
1.76063E-02 1.02310E-22
1.81848E-02 9.61700E-23
1.87724E-02 9.04905E-23
1.93692E-02 8.52304E-23
1.99751E-02 8.03527E-23
2.05901E-02 7.58244E-23
2.12143E-02 7.16158E-23
2.18476E-02 6.76976E-23
2.24900E-02 6.40460E-23
2.31415E-02 6.06404E-23
2.38021E-02 5.74610E-23
2.44717E-02 5.44898E-23
2.51504E-02 5.17104E-23
2.58382E-02 4.91081E-23
2.65349E-02 4.66693E-23
2.72407E-02 4.43816E-23
2.79555E-02 4.22338E-23
2.86793E-02 4.02158E-23
2.94120E-02 3.83179E-23
3.01537E-02 3.65318E-23
3.09043E-02 3.48494E-23
3.16639E-02 3.32635E-23
3.24324E-02 3.17675E-23
3.32098E-02 3.03553E-23
3.39961E-02 2.90212E-23
3.47912E-02 2.77601E-23
3.55952E-02 2.65671E-23
3.64081E-02 2.54378E-23
3.72297E-02 2.43681E-23
3.80602E-02 2.33544E-23
3.88995E-02 2.23929E-23
3.97476E-02 2.14806E-23
4.06044E-02 2.06143E-23
4.14700E-02 1.97914E-23
4.23443E-02 1.90091E-23
4.32273E-02 1.82651E-23
4.41190E-02 1.75572E-23
4.50194E-02 1.68831E-23
4.59284E-02 1.62410E-23
4.68461E-02 1.56291E-23
4.87074E-02 1.44891E-23
5.06030E-02 1.34507E-23
5.25328E-02 1.25031E-23
5.44967E-02 1.16368E-23
5.64946E-02 1.08437E-23
5.85262E-02 1.01163E-23
6.05914E-02 9.44818E-24
6.26901E-02 8.83358E-24
6.48222E-02 8.26740E-24
6.69873E-02 7.74512E-24
6.91854E-02 7.26269E-24
7.14163E-02 6.81651E-24
7.36799E-02 6.40335E-24
7.59760E-02 6.02030E-24
7.83043E-02 5.66476E-24
8.06647E-02 5.33440E-24
8.30571E-02 5.02710E-24
8.54812E-02 4.74096E-24
8.79369E-02 4.47426E-24
9.04240E-02 4.22543E-24
9.29422E-02 3.99306E-24
9.54915E-02 3.77587E-24
9.80716E-02 3.57268E-24
1.00682E-01 3.38243E-24
1.03323E-01 3.20416E-24
1.05995E-01 3.03697E-24
1.08696E-01 2.88006E-24
1.11427E-01 2.73268E-24
1.14188E-01 2.59415E-24
1.16978E-01 2.46385E-24
1.19797E-01 2.34121E-24
1.22645E-01 2.22570E-24
1.25522E-01 2.11684E-24
1.28428E-01 2.01418E-24
1.31361E-01 1.91730E-24
1.34323E-01 1.82583E-24
1.37313E-01 1.73942E-24
1.40330E-01 1.65773E-24
1.43375E-01 1.58048E-24
1.46447E-01 1.50738E-24
1.49545E-01 1.43817E-24
1.52671E-01 1.37261E-24
1.55823E-01 1.31048E-24
1.59001E-01 1.25157E-24
1.62205E-01 1.19569E-24
1.65435E-01 1.14266E-24
1.68690E-01 1.09231E-24
1.71970E-01 1.04449E-24
1.75276E-01 9.99052E-25
1.78606E-01 9.55854E-25
1.81961E-01 9.14774E-25
1.85340E-01 8.75693E-25
1.88743E-01 8.38498E-25
1.92169E-01 8.03086E-25
1.95619E-01 7.69360E-25
1.99092E-01 7.37227E-25
2.02589E-01 7.06603E-25
2.06107E-01 6.77407E-25
2.09649E-01 6.49562E-25
2.13212E-01 6.22999E-25
2.16797E-01 5.97650E-25
2.20404E-01 5.73452E-25
2.24032E-01 5.50346E-25
2.27680E-01 5.28278E-25
2.31350E-01 5.07193E-25
2.35040E-01 4.87043E-25
2.38751E-01 4.67781E-25
2.42481E-01 4.49363E-25
2.46231E-01 4.31747E-25
2.50000E-01 4.14895E-25
2.53788E-01 3.98769E-25
2.57595E-01 3.83335E-25
2.61421E-01 3.68558E-25
2.65264E-01 3.54409E-25
2.69126E-01 3.40856E-25
2.73005E-01 3.27873E-25
2.76901E-01 3.15432E-25
2.80814E-01 3.03508E-25
2.84744E-01 2.92078E-25
2.88691E-01 2.81119E-25
2.92653E-01 2.70609E-25
2.96632E-01 2.60528E-25
3.00625E-01 2.50857E-25
3.04634E-01 2.41576E-25
3.08658E-01 2.32670E-25
3.12697E-01 2.24120E-25
3.16749E-01 2.15913E-25
3.20816E-01 2.08031E-25
3.24896E-01 2.00462E-25
3.28990E-01 1.93191E-25
3.33097E-01 1.86206E-25
3.37216E-01 1.79494E-25
3.41348E-01 1.73044E-25
3.45492E-01 1.66845E-25
3.49647E-01 1.60885E-25
3.53814E-01 1.55155E-25
3.57992E-01 1.49646E-25
3.62181E-01 1.44347E-25
3.66381E-01 1.39250E-25
3.70590E-01 1.34347E-25
3.74810E-01 1.29630E-25
3.79039E-01 1.25091E-25
3.83277E-01 1.20722E-25
3.87524E-01 1.16518E-25
3.91780E-01 1.12471E-25
3.96044E-01 1.08574E-25
4.00316E-01 1.04823E-25
4.04596E-01 1.01210E-25
4.08882E-01 9.77304E-26
4.13176E-01 9.43791E-26
4.17476E-01 9.11508E-26
4.21783E-01 8.80407E-26
4.26095E-01 8.50440E-26
4.30413E-01 8.21563E-26
4.34737E-01 7.93734E-26
4.39065E-01 7.66912E-26
4.43398E-01 7.41057E-26
4.47736E-01 7.16133E-26
4.52077E-01 6.92102E-26
4.56422E-01 6.68932E-26
4.60770E-01 6.46588E-26
4.65122E-01 6.25040E-26
4.69476E-01 6.04257E-26
4.73832E-01 5.84209E-26
4.78190E-01 5.64870E-26
4.82550E-01 5.46212E-26
4.86912E-01 5.28210E-26
4.91274E-01 5.10839E-26
4.95637E-01 4.94075E-26
5.00000E-01 4.77895E-26
5.04363E-01 4.62279E-26
5.08726E-01 4.47205E-26
5.13088E-01 4.32653E-26
5.17450E-01 4.18604E-26
5.21810E-01 4.05038E-26
5.26168E-01 3.91940E-26
5.30524E-01 3.79290E-26
5.34878E-01 3.67074E-26
5.39230E-01 3.55274E-26
5.43578E-01 3.43877E-26
5.47923E-01 3.32867E-26
5.52264E-01 3.22230E-26
5.56602E-01 3.11953E-26
5.60935E-01 3.02023E-26
5.65263E-01 2.92427E-26
5.69587E-01 2.83154E-26
5.73905E-01 2.74192E-26
5.78217E-01 2.65530E-26
5.82524E-01 2.57156E-26
5.86824E-01 2.49062E-26
5.91118E-01 2.41236E-26
5.95404E-01 2.33670E-26
5.99684E-01 2.26354E-26
6.03956E-01 2.19279E-26
6.08220E-01 2.12438E-26
6.12476E-01 2.05821E-26
6.16723E-01 1.99421E-26
6.20961E-01 1.93230E-26
6.25190E-01 1.87242E-26
6.29410E-01 1.81448E-26
6.33619E-01 1.75843E-26
6.37819E-01 1.70419E-26
6.42008E-01 1.65170E-26
6.46186E-01 1.60091E-26
6.50353E-01 1.55176E-26
6.54508E-01 1.50418E-26
6.58652E-01 1.45812E-26
6.62784E-01 1.41354E-26
6.66903E-01 1.37038E-26
6.71010E-01 1.32859E-26
6.75104E-01 1.28813E-26
6.79184E-01 1.24895E-26
6.83251E-01 1.21100E-26
6.87303E-01 1.17425E-26
6.91342E-01 1.13866E-26
6.95366E-01 1.10418E-26
6.99375E-01 1.07078E-26
7.03368E-01 1.03843E-26
7.07347E-01 1.00708E-26
7.11309E-01 9.76698E-27
7.15256E-01 9.47261E-27
7.19186E-01 9.18734E-27
7.23099E-01 8.91085E-27
7.26995E-01 8.64286E-27
7.30874E-01 8.38308E-27
7.34736E-01 8.13124E-27
7.38579E-01 7.88708E-27
7.42405E-01 7.65035E-27
7.46212E-01 7.42080E-27
7.50000E-01 7.19819E-27
7.53769E-01 6.98230E-27
7.57519E-01 6.77290E-27
7.61249E-01 6.56979E-27
7.64960E-01 6.37275E-27
7.68650E-01 6.18160E-27
7.72320E-01 5.99614E-27
7.75968E-01 5.81618E-27
7.79596E-01 5.64155E-27
7.83203E-01 5.47208E-27
7.86788E-01 5.30760E-27
7.90351E-01 5.14794E-27
7.93893E-01 4.99296E-27
7.97411E-01 4.84251E-27
8.00908E-01 4.69644E-27
8.04381E-01 4.55461E-27
8.07831E-01 4.41689E-27
8.11257E-01 4.28315E-27
8.14660E-01 4.15326E-27
8.18039E-01 4.02710E-27
8.21394E-01 3.90456E-27
8.24724E-01 3.78551E-27
8.28030E-01 3.66987E-27
8.31310E-01 3.55750E-27
8.34565E-01 3.44833E-27
8.37795E-01 3.34224E-27
8.40999E-01 3.23914E-27
8.44177E-01 3.13895E-27
8.47329E-01 3.04156E-27
8.50455E-01 2.94690E-27
8.53553E-01 2.85489E-27
8.56625E-01 2.76544E-27
8.59670E-01 2.67848E-27
8.62687E-01 2.59393E-27
8.65677E-01 2.51172E-27
8.68639E-01 2.43178E-27
8.71572E-01 2.35405E-27
8.74478E-01 2.27845E-27
8.77355E-01 2.20493E-27
8.80203E-01 2.13343E-27
8.83022E-01 2.06388E-27
8.85812E-01 1.99624E-27
8.88573E-01 1.93044E-27
8.91304E-01 1.86643E-27
8.94005E-01 1.80417E-27
8.96677E-01 1.74360E-27
8.99318E-01 1.68468E-27
9.01928E-01 1.62736E-27
9.04508E-01 1.57160E-27
9.07058E-01 1.51734E-27
9.09576E-01 1.46456E-27
9.12063E-01 1.41321E-27
9.14519E-01 1.36326E-27
9.16943E-01 1.31466E-27
9.19335E-01 1.26738E-27
9.21696E-01 1.22139E-27
9.24024E-01 1.17665E-27
9.26320E-01 1.13312E-27
9.28584E-01 1.09079E-27
9.30815E-01 1.04961E-27
9.33013E-01 1.00956E-27
9.35178E-01 9.70617E-28
9.37310E-01 9.32744E-28
9.39409E-01 8.95917E-28
9.41474E-01 8.60113E-28
9.43505E-01 8.25306E-28
9.45503E-01 7.91473E-28
9.47467E-01 7.58591E-28
9.49397E-01 7.26638E-28
9.51293E-01 6.95593E-28
9.53154E-01 6.65436E-28
9.54981E-01 6.36146E-28
9.56773E-01 6.07706E-28
9.58530E-01 5.80096E-28
9.60252E-01 5.53299E-28
9.61940E-01 5.27298E-28
9.63592E-01 5.02076E-28
9.65209E-01 4.77619E-28
9.66790E-01 4.53909E-28
9.68336E-01 4.30934E-28
9.69846E-01 4.08678E-28
9.71321E-01 3.87129E-28
9.72759E-01 3.66272E-28
9.74162E-01 3.46097E-28
9.75528E-01 3.26590E-28
9.76858E-01 3.07740E-28
9.78152E-01 2.89535E-28
9.79410E-01 2.71966E-28
9.80631E-01 2.55022E-28
9.81815E-01 2.38693E-28
9.82963E-01 2.22970E-28
9.84074E-01 2.07844E-28
9.85148E-01 1.93305E-28
9.86185E-01 1.79347E-28
9.87185E-01 1.65960E-28
9.88148E-01 1.53138E-28
9.89074E-01 1.40873E-28
9.89962E-01 1.29159E-28
9.90814E-01 1.17989E-28
9.91627E-01 1.07356E-28
9.92404E-01 9.72556E-29
9.93143E-01 8.76817E-29
9.93844E-01 7.86291E-29
9.94508E-01 7.00928E-29
9.95134E-01 6.20684E-29
9.95722E-01 5.45515E-29
9.96273E-01 4.75379E-29
9.96786E-01 4.10241E-29
9.97261E-01 3.50065E-29
9.97698E-01 2.94820E-29
9.98097E-01 2.44475E-29
9.98459E-01 1.99004E-29
9.98782E-01 1.58384E-29
9.99067E-01 1.22593E-29
9.99315E-01 9.16118E-30
9.99524E-01 6.54243E-30
9.99695E-01 4.40169E-30
9.99829E-01 2.73783E-30
9.99924E-01 1.54998E-30
9.99981E-01 8.37519E-31
1.00000E+00 6.00075E-31
