 #
 # Subroutine ELSEPA. Elastic scattering of electrons and positrons
 #                    by neutral atoms and positive ions
 #
 # Projectile: electron
 # Kinetic energy = 1.50000E+07 eV = 5.51240E+05 a.u.
 #
 # WARNING: High-energy factorization with free-atom DF screening.
 #          Absorption, polarization and exchange corrections are
 #          switched off.
 #          Phase shifts are calculated for the bare nucleus.
 #          Scattering amplitudes are not evaluated.
 #
 # Element: Tl,  Z =  81,  atomic weight = 2.04383E+02 g/mol
 #
 # Nuclear model: Fermi distribution
 #                Average radius = 6.30278E-13 cm
 #                Skin thickness = 5.46000E-14 cm
 #
 # Number of electrons = 81
 #
 # Total elastic cross section = 8.29634E-18 cm**2 = 2.96268E-01 a0**2
 # 1st transport cross section = 5.06889E-23 cm**2 = 1.81013E-06 a0**2
 # 2nd transport cross section = 1.40786E-22 cm**2 = 5.02756E-06 a0**2
 #
 #
 # Differential cross section:                       MU=(1-COS(THETA))/2
 #
 #  THETA        MU          DCS          DCS        Sherman      error
 #  (deg)                 (cm**2/sr)   (a0**2/sr)    function
 #----------------------------------------------------------------------
0.00000E+00 1.35837E-11
7.61557E-13 1.35828E-11
1.18994E-12 1.35824E-11
1.71346E-12 1.35818E-11
2.33225E-12 1.35811E-11
3.04617E-12 1.35802E-11
3.85530E-12 1.35793E-11
4.75964E-12 1.35783E-11
5.75917E-12 1.35772E-11
6.85391E-12 1.35759E-11
8.04379E-12 1.35746E-11
9.32893E-12 1.35731E-11
1.07092E-11 1.35715E-11
1.21847E-11 1.35699E-11
1.37554E-11 1.35681E-11
1.54213E-11 1.35662E-11
1.71823E-11 1.35642E-11
1.90386E-11 1.35621E-11
2.09900E-11 1.35599E-11
2.30367E-11 1.35576E-11
2.51785E-11 1.35551E-11
2.74156E-11 1.35526E-11
2.97478E-11 1.35500E-11
3.21752E-11 1.35472E-11
3.46979E-11 1.35444E-11
3.73157E-11 1.35414E-11
4.00286E-11 1.35384E-11
4.28368E-11 1.35352E-11
4.57402E-11 1.35319E-11
4.87388E-11 1.35286E-11
5.18325E-11 1.35251E-11
5.50215E-11 1.35215E-11
5.83057E-11 1.35178E-11
6.16850E-11 1.35140E-11
6.51595E-11 1.35101E-11
6.87293E-11 1.35061E-11
7.23943E-11 1.35020E-11
7.61544E-11 1.34978E-11
1.18991E-10 1.34499E-11
1.71347E-10 1.33920E-11
2.33223E-10 1.33241E-11
3.04617E-10 1.32467E-11
3.85531E-10 1.31600E-11
4.75965E-10 1.30646E-11
5.75917E-10 1.29607E-11
6.85389E-10 1.28488E-11
8.04380E-10 1.27293E-11
9.32891E-10 1.26029E-11
1.07092E-09 1.24696E-11
1.21847E-09 1.23305E-11
1.37554E-09 1.21860E-11
1.54213E-09 1.20365E-11
1.71823E-09 1.18820E-11
1.90386E-09 1.17239E-11
2.09900E-09 1.15625E-11
2.30367E-09 1.13974E-11
2.51785E-09 1.12298E-11
2.74156E-09 1.10605E-11
2.97478E-09 1.08895E-11
3.21752E-09 1.07164E-11
3.46978E-09 1.05429E-11
3.73156E-09 1.03693E-11
4.00286E-09 1.01947E-11
4.28368E-09 1.00201E-11
4.57402E-09 9.84650E-12
4.87388E-09 9.67388E-12
5.18326E-09 9.50083E-12
5.50215E-09 9.32961E-12
5.83057E-09 9.16046E-12
6.16850E-09 8.99199E-12
6.51596E-09 8.82495E-12
6.87293E-09 8.66055E-12
7.23942E-09 8.49874E-12
7.61544E-09 8.33718E-12
1.18991E-08 6.86430E-12
1.71347E-08 5.64550E-12
2.33223E-08 4.65872E-12
3.04617E-08 3.86558E-12
3.85531E-08 3.22690E-12
4.75965E-08 2.70988E-12
5.75917E-08 2.28865E-12
6.85389E-08 1.94287E-12
8.04380E-08 1.65740E-12
9.32891E-08 1.42054E-12
1.07092E-07 1.21053E-12
1.21847E-07 1.04311E-12
1.37554E-07 9.10414E-13
1.54213E-07 7.97688E-13
1.71823E-07 6.94016E-13
1.90386E-07 6.09884E-13
2.09900E-07 5.40890E-13
2.30367E-07 4.77564E-13
2.51785E-07 4.23285E-13
2.74156E-07 3.77930E-13
2.97478E-07 3.38873E-13
3.21752E-07 3.03094E-13
3.46978E-07 2.72701E-13
3.73156E-07 2.46718E-13
4.00286E-07 2.23135E-13
4.28368E-07 2.02273E-13
4.57402E-07 1.84203E-13
4.87388E-07 1.68320E-13
5.18325E-07 1.53611E-13
5.50215E-07 1.40727E-13
5.83057E-07 1.29392E-13
6.16850E-07 1.19006E-13
6.51596E-07 1.09585E-13
6.87293E-07 1.01224E-13
7.23942E-07 9.37484E-14
7.61543E-07 8.67013E-14
1.18991E-06 4.31489E-14
1.71347E-06 2.35550E-14
2.33223E-06 1.38317E-14
3.04617E-06 8.63523E-15
3.85531E-06 5.69188E-15
4.75964E-06 3.91402E-15
5.75916E-06 2.78287E-15
6.85388E-06 2.03496E-15
8.04378E-06 1.52317E-15
9.32888E-06 1.16262E-15
1.07092E-05 9.02045E-16
1.21846E-05 7.11393E-16
1.37553E-05 5.68827E-16
1.54212E-05 4.59793E-16
1.71822E-05 3.75864E-16
1.90385E-05 3.10153E-16
2.09899E-05 2.58441E-16
2.30365E-05 2.17007E-16
2.51783E-05 1.83529E-16
2.74153E-05 1.56220E-16
2.97475E-05 1.33736E-16
3.21749E-05 1.15170E-16
3.46974E-05 9.97363E-17
3.73152E-05 8.67973E-17
4.00281E-05 7.59023E-17
4.28362E-05 6.66752E-17
4.57395E-05 5.88074E-17
4.87380E-05 5.20605E-17
5.18317E-05 4.62552E-17
5.50205E-05 4.12381E-17
5.83045E-05 3.68789E-17
6.16838E-05 3.30838E-17
6.51582E-05 2.97679E-17
6.87277E-05 2.68581E-17
7.23925E-05 2.42961E-17
7.61524E-05 2.20318E-17
9.21439E-05 1.52391E-17
1.09658E-04 1.08748E-17
1.28695E-04 7.96767E-18
1.49255E-04 5.96976E-18
1.71338E-04 4.56047E-18
1.94942E-04 3.54333E-18
2.20070E-04 2.79448E-18
2.46720E-04 2.23334E-18
2.74892E-04 1.80624E-18
3.04586E-04 1.47655E-18
3.35803E-04 1.21881E-18
3.68542E-04 1.01498E-18
4.02802E-04 8.52072E-19
4.38585E-04 7.20618E-19
4.75889E-04 6.13598E-19
5.14715E-04 5.25765E-19
5.55063E-04 4.53125E-19
5.96931E-04 3.92635E-19
6.40321E-04 3.41930E-19
6.85233E-04 2.99169E-19
7.31665E-04 2.62904E-19
7.79618E-04 2.31984E-19
8.29092E-04 2.05491E-19
8.80086E-04 1.82683E-19
9.32601E-04 1.62962E-19
9.86636E-04 1.45838E-19
1.04219E-03 1.30912E-19
1.09927E-03 1.17854E-19
1.15786E-03 1.06388E-19
1.21797E-03 9.62877E-20
1.27961E-03 8.73618E-20
1.34276E-03 7.94500E-20
1.40743E-03 7.24170E-20
1.47362E-03 6.61479E-20
1.54133E-03 6.05452E-20
1.61056E-03 5.55254E-20
1.68131E-03 5.10171E-20
1.75357E-03 4.69590E-20
1.82735E-03 4.32981E-20
1.90265E-03 3.99886E-20
1.97947E-03 3.69907E-20
2.05780E-03 3.42698E-20
2.13765E-03 3.17957E-20
2.21902E-03 2.95418E-20
2.30190E-03 2.74851E-20
2.38630E-03 2.56052E-20
2.47222E-03 2.38842E-20
2.55965E-03 2.23061E-20
2.64859E-03 2.08569E-20
2.73905E-03 1.95242E-20
2.83103E-03 1.82969E-20
2.92452E-03 1.71650E-20
3.01952E-03 1.61199E-20
3.11604E-03 1.51536E-20
3.21407E-03 1.42591E-20
3.31362E-03 1.34301E-20
3.41468E-03 1.26608E-20
3.51725E-03 1.19462E-20
3.62133E-03 1.12817E-20
3.72692E-03 1.06631E-20
3.83403E-03 1.00867E-20
3.94265E-03 9.54894E-21
4.05278E-03 9.04685E-21
4.16442E-03 8.57759E-21
4.27757E-03 8.13861E-21
4.39223E-03 7.72759E-21
4.50840E-03 7.34242E-21
4.62608E-03 6.98115E-21
4.74527E-03 6.64203E-21
4.86597E-03 6.32345E-21
4.98817E-03 6.02391E-21
5.11188E-03 5.74207E-21
5.23711E-03 5.47669E-21
5.36383E-03 5.22661E-21
5.49207E-03 4.99079E-21
5.62181E-03 4.76825E-21
5.75306E-03 4.55812E-21
5.88581E-03 4.35955E-21
6.02007E-03 4.17179E-21
6.15583E-03 3.99415E-21
6.29310E-03 3.82597E-21
6.43187E-03 3.66666E-21
6.57214E-03 3.51565E-21
6.71392E-03 3.37242E-21
6.85720E-03 3.23650E-21
7.00198E-03 3.10745E-21
7.14827E-03 2.98484E-21
7.29605E-03 2.86830E-21
7.44534E-03 2.75747E-21
7.59612E-03 2.65201E-21
7.97965E-03 2.40987E-21
8.37255E-03 2.19509E-21
8.77480E-03 2.00404E-21
9.18641E-03 1.83361E-21
9.60736E-03 1.68118E-21
1.00376E-02 1.54450E-21
1.04773E-02 1.42164E-21
1.09262E-02 1.31095E-21
1.13844E-02 1.21100E-21
1.18520E-02 1.12056E-21
1.23288E-02 1.03855E-21
1.28150E-02 9.64046E-22
1.33104E-02 8.96224E-22
1.38150E-02 8.34374E-22
1.43290E-02 7.77873E-22
1.48521E-02 7.26168E-22
1.53845E-02 6.78775E-22
1.59262E-02 6.35267E-22
1.64770E-02 5.95263E-22
1.70371E-02 5.58427E-22
1.76063E-02 5.24461E-22
1.81848E-02 4.93095E-22
1.87724E-02 4.64094E-22
1.93692E-02 4.37244E-22
1.99751E-02 4.12355E-22
2.05901E-02 3.89255E-22
2.12143E-02 3.67789E-22
2.18476E-02 3.47820E-22
2.24900E-02 3.29223E-22
2.31415E-02 3.11885E-22
2.38021E-02 2.95704E-22
2.44717E-02 2.80586E-22
2.51504E-02 2.66448E-22
2.58382E-02 2.53214E-22
2.65349E-02 2.40815E-22
2.72407E-02 2.29186E-22
2.79555E-02 2.18271E-22
2.86793E-02 2.08017E-22
2.94120E-02 1.98376E-22
3.01537E-02 1.89303E-22
3.09043E-02 1.80758E-22
3.16639E-02 1.72705E-22
3.24324E-02 1.65109E-22
3.32098E-02 1.57939E-22
3.39961E-02 1.51165E-22
3.47912E-02 1.44762E-22
3.55952E-02 1.38705E-22
3.64081E-02 1.32972E-22
3.72297E-02 1.27541E-22
3.80602E-02 1.22394E-22
3.88995E-02 1.17512E-22
3.97476E-02 1.12879E-22
4.06044E-02 1.08479E-22
4.14700E-02 1.04299E-22
4.23443E-02 1.00324E-22
4.32273E-02 9.65444E-23
4.41190E-02 9.29458E-23
4.50194E-02 8.95190E-23
4.59284E-02 8.62545E-23
4.68461E-02 8.31421E-23
4.87074E-02 7.73406E-23
5.06030E-02 7.20528E-23
5.25328E-02 6.72235E-23
5.44967E-02 6.28053E-23
5.64946E-02 5.87557E-23
5.85262E-02 5.50380E-23
6.05914E-02 5.16190E-23
6.26901E-02 4.84700E-23
6.48222E-02 4.55652E-23
6.69873E-02 4.28818E-23
6.91854E-02 4.03992E-23
7.14163E-02 3.80994E-23
7.36799E-02 3.59661E-23
7.59760E-02 3.39846E-23
7.83043E-02 3.21419E-23
8.06647E-02 3.04262E-23
8.30571E-02 2.88269E-23
8.54812E-02 2.73345E-23
8.79369E-02 2.59401E-23
9.04240E-02 2.46362E-23
9.29422E-02 2.34155E-23
9.54915E-02 2.22715E-23
9.80716E-02 2.11985E-23
1.00682E-01 2.01910E-23
1.03323E-01 1.92443E-23
1.05995E-01 1.83539E-23
1.08696E-01 1.75158E-23
1.11427E-01 1.67263E-23
1.14188E-01 1.59815E-23
1.16978E-01 1.52783E-23
1.19797E-01 1.46142E-23
1.22645E-01 1.39865E-23
1.25522E-01 1.33928E-23
1.28428E-01 1.28309E-23
1.31361E-01 1.22986E-23
1.34323E-01 1.17942E-23
1.37313E-01 1.13158E-23
1.40330E-01 1.08617E-23
1.43375E-01 1.04306E-23
1.46447E-01 1.00208E-23
1.49545E-01 9.63131E-24
1.52671E-01 9.26073E-24
1.55823E-01 8.90799E-24
1.59001E-01 8.57204E-24
1.62205E-01 8.25190E-24
1.65435E-01 7.94668E-24
1.68690E-01 7.65552E-24
1.71970E-01 7.37765E-24
1.75276E-01 7.11231E-24
1.78606E-01 6.85883E-24
1.81961E-01 6.61656E-24
1.85340E-01 6.38490E-24
1.88743E-01 6.16327E-24
1.92169E-01 5.95117E-24
1.95619E-01 5.74808E-24
1.99092E-01 5.55354E-24
2.02589E-01 5.36712E-24
2.06107E-01 5.18840E-24
2.09649E-01 5.01700E-24
2.13212E-01 4.85255E-24
2.16797E-01 4.69471E-24
2.20404E-01 4.54317E-24
2.24032E-01 4.39761E-24
2.27680E-01 4.25775E-24
2.31350E-01 4.12332E-24
2.35040E-01 3.99406E-24
2.38751E-01 3.86974E-24
2.42481E-01 3.75012E-24
2.46231E-01 3.63499E-24
2.50000E-01 3.52415E-24
2.53788E-01 3.41740E-24
2.57595E-01 3.31456E-24
2.61421E-01 3.21546E-24
2.65264E-01 3.11993E-24
2.69126E-01 3.02782E-24
2.73005E-01 2.93898E-24
2.76901E-01 2.85328E-24
2.80814E-01 2.77056E-24
2.84744E-01 2.69073E-24
2.88691E-01 2.61364E-24
2.92653E-01 2.53919E-24
2.96632E-01 2.46727E-24
3.00625E-01 2.39777E-24
3.04634E-01 2.33060E-24
3.08658E-01 2.26566E-24
3.12697E-01 2.20287E-24
3.16749E-01 2.14214E-24
3.20816E-01 2.08339E-24
3.24896E-01 2.02654E-24
3.28990E-01 1.97151E-24
3.33097E-01 1.91824E-24
3.37216E-01 1.86667E-24
3.41348E-01 1.81671E-24
3.45492E-01 1.76833E-24
3.49647E-01 1.72144E-24
3.53814E-01 1.67601E-24
3.57992E-01 1.63198E-24
3.62181E-01 1.58929E-24
3.66381E-01 1.54789E-24
3.70590E-01 1.50775E-24
3.74810E-01 1.46881E-24
3.79039E-01 1.43103E-24
3.83277E-01 1.39437E-24
3.87524E-01 1.35879E-24
3.91780E-01 1.32425E-24
3.96044E-01 1.29072E-24
4.00316E-01 1.25816E-24
4.04596E-01 1.22654E-24
4.08882E-01 1.19583E-24
4.13176E-01 1.16599E-24
4.17476E-01 1.13699E-24
4.21783E-01 1.10882E-24
4.26095E-01 1.08143E-24
4.30413E-01 1.05481E-24
4.34737E-01 1.02892E-24
4.39065E-01 1.00376E-24
4.43398E-01 9.79277E-25
4.47736E-01 9.55467E-25
4.52077E-01 9.32305E-25
4.56422E-01 9.09769E-25
4.60770E-01 8.87839E-25
4.65122E-01 8.66497E-25
4.69476E-01 8.45723E-25
4.73832E-01 8.25500E-25
4.78190E-01 8.05811E-25
4.82550E-01 7.86639E-25
4.86912E-01 7.67968E-25
4.91274E-01 7.49784E-25
4.95637E-01 7.32070E-25
5.00000E-01 7.14813E-25
5.04363E-01 6.97998E-25
5.08726E-01 6.81614E-25
5.13088E-01 6.65646E-25
5.17450E-01 6.50082E-25
5.21810E-01 6.34911E-25
5.26168E-01 6.20121E-25
5.30524E-01 6.05700E-25
5.34878E-01 5.91639E-25
5.39230E-01 5.77926E-25
5.43578E-01 5.64551E-25
5.47923E-01 5.51505E-25
5.52264E-01 5.38779E-25
5.56602E-01 5.26363E-25
5.60935E-01 5.14248E-25
5.65263E-01 5.02426E-25
5.69587E-01 4.90889E-25
5.73905E-01 4.79629E-25
5.78217E-01 4.68638E-25
5.82524E-01 4.57909E-25
5.86824E-01 4.47434E-25
5.91118E-01 4.37206E-25
5.95404E-01 4.27220E-25
5.99684E-01 4.17468E-25
6.03956E-01 4.07943E-25
6.08220E-01 3.98641E-25
6.12476E-01 3.89554E-25
6.16723E-01 3.80677E-25
6.20961E-01 3.72005E-25
6.25190E-01 3.63532E-25
6.29410E-01 3.55253E-25
6.33619E-01 3.47163E-25
6.37819E-01 3.39257E-25
6.42008E-01 3.31529E-25
6.46186E-01 3.23976E-25
6.50353E-01 3.16594E-25
6.54508E-01 3.09376E-25
6.58652E-01 3.02321E-25
6.62784E-01 2.95422E-25
6.66903E-01 2.88677E-25
6.71010E-01 2.82082E-25
6.75104E-01 2.75632E-25
6.79184E-01 2.69324E-25
6.83251E-01 2.63155E-25
6.87303E-01 2.57121E-25
6.91342E-01 2.51219E-25
6.95366E-01 2.45445E-25
6.99375E-01 2.39797E-25
7.03368E-01 2.34271E-25
7.07347E-01 2.28864E-25
7.11309E-01 2.23574E-25
7.15256E-01 2.18398E-25
7.19186E-01 2.13333E-25
7.23099E-01 2.08376E-25
7.26995E-01 2.03525E-25
7.30874E-01 1.98778E-25
7.34736E-01 1.94131E-25
7.38579E-01 1.89583E-25
7.42405E-01 1.85131E-25
7.46212E-01 1.80773E-25
7.50000E-01 1.76507E-25
7.53769E-01 1.72330E-25
7.57519E-01 1.68241E-25
7.61249E-01 1.64238E-25
7.64960E-01 1.60319E-25
7.68650E-01 1.56481E-25
7.72320E-01 1.52723E-25
7.75968E-01 1.49044E-25
7.79596E-01 1.45441E-25
7.83203E-01 1.41913E-25
7.86788E-01 1.38458E-25
7.90351E-01 1.35074E-25
7.93893E-01 1.31760E-25
7.97411E-01 1.28515E-25
8.00908E-01 1.25337E-25
8.04381E-01 1.22224E-25
8.07831E-01 1.19175E-25
8.11257E-01 1.16189E-25
8.14660E-01 1.13264E-25
8.18039E-01 1.10399E-25
8.21394E-01 1.07594E-25
8.24724E-01 1.04845E-25
8.28030E-01 1.02153E-25
8.31310E-01 9.95167E-26
8.34565E-01 9.69340E-26
8.37795E-01 9.44044E-26
8.40999E-01 9.19266E-26
8.44177E-01 8.94996E-26
8.47329E-01 8.71224E-26
8.50455E-01 8.47940E-26
8.53553E-01 8.25135E-26
8.56625E-01 8.02798E-26
8.59670E-01 7.80921E-26
8.62687E-01 7.59494E-26
8.65677E-01 7.38509E-26
8.68639E-01 7.17957E-26
8.71572E-01 6.97830E-26
8.74478E-01 6.78120E-26
8.77355E-01 6.58818E-26
8.80203E-01 6.39917E-26
8.83022E-01 6.21410E-26
8.85812E-01 6.03289E-26
8.88573E-01 5.85547E-26
8.91304E-01 5.68177E-26
8.94005E-01 5.51173E-26
8.96677E-01 5.34527E-26
8.99318E-01 5.18233E-26
9.01928E-01 5.02286E-26
9.04508E-01 4.86678E-26
9.07058E-01 4.71404E-26
9.09576E-01 4.56458E-26
9.12063E-01 4.41834E-26
9.14519E-01 4.27527E-26
9.16943E-01 4.13532E-26
9.19335E-01 3.99842E-26
9.21696E-01 3.86454E-26
9.24024E-01 3.73363E-26
9.26320E-01 3.60562E-26
9.28584E-01 3.48048E-26
9.30815E-01 3.35816E-26
9.33013E-01 3.23862E-26
9.35178E-01 3.12181E-26
9.37310E-01 3.00768E-26
9.39409E-01 2.89621E-26
9.41474E-01 2.78734E-26
9.43505E-01 2.68104E-26
9.45503E-01 2.57728E-26
9.47467E-01 2.47601E-26
9.49397E-01 2.37719E-26
9.51293E-01 2.28080E-26
9.53154E-01 2.18680E-26
9.54981E-01 2.09515E-26
9.56773E-01 2.00583E-26
9.58530E-01 1.91879E-26
9.60252E-01 1.83403E-26
9.61940E-01 1.75149E-26
9.63592E-01 1.67116E-26
9.65209E-01 1.59300E-26
9.66790E-01 1.51700E-26
9.68336E-01 1.44311E-26
9.69846E-01 1.37133E-26
9.71321E-01 1.30162E-26
9.72759E-01 1.23395E-26
9.74162E-01 1.16832E-26
9.75528E-01 1.10469E-26
9.76858E-01 1.04304E-26
9.78152E-01 9.83353E-27
9.79410E-01 9.25609E-27
9.80631E-01 8.69788E-27
9.81815E-01 8.15870E-27
9.82963E-01 7.63838E-27
9.84074E-01 7.13675E-27
9.85148E-01 6.65363E-27
9.86185E-01 6.18887E-27
9.87185E-01 5.74231E-27
9.88148E-01 5.31381E-27
9.89074E-01 4.90322E-27
9.89962E-01 4.51040E-27
9.90814E-01 4.13523E-27
9.91627E-01 3.77759E-27
9.92404E-01 3.43735E-27
9.93143E-01 3.11440E-27
9.93844E-01 2.80865E-27
9.94508E-01 2.51998E-27
9.95134E-01 2.24830E-27
9.95722E-01 1.99354E-27
9.96273E-01 1.75559E-27
9.96786E-01 1.53439E-27
9.97261E-01 1.32986E-27
9.97698E-01 1.14193E-27
9.98097E-01 9.70552E-28
9.98459E-01 8.15662E-28
9.98782E-01 6.77210E-28
9.99067E-01 5.55152E-28
9.99315E-01 4.49448E-28
9.99524E-01 3.60065E-28
9.99695E-01 2.86972E-28
9.99829E-01 2.30147E-28
9.99924E-01 1.89571E-28
9.99981E-01 1.65230E-28
1.00000E+00 1.57117E-28
