 #
 # Subroutine ELSEPA. Elastic scattering of electrons and positrons
 #                    by neutral atoms and positive ions
 #
 # Projectile: electron
 # Kinetic energy = 3.50000E+08 eV = 1.28623E+07 a.u.
 #
 # WARNING: High-energy factorization with free-atom DF screening.
 #          Absorption, polarization and exchange corrections are
 #          switched off.
 #          Phase shifts are calculated for the bare nucleus.
 #          Scattering amplitudes are not evaluated.
 #
 # Element: Tl,  Z =  81,  atomic weight = 2.04383E+02 g/mol
 #
 # Nuclear model: Fermi distribution
 #                Average radius = 6.30278E-13 cm
 #                Skin thickness = 5.46000E-14 cm
 #
 # Number of electrons = 81
 #
 # Total elastic cross section = 8.28148E-18 cm**2 = 2.95737E-01 a0**2
 # 1st transport cross section = 1.00571E-25 cm**2 = 3.59147E-09 a0**2
 # 2nd transport cross section = 3.01482E-25 cm**2 = 1.07661E-08 a0**2
 #
 #
 # Differential cross section:                       MU=(1-COS(THETA))/2
 #
 #  THETA        MU          DCS          DCS        Sherman      error
 #  (deg)                 (cm**2/sr)   (a0**2/sr)    function
 #----------------------------------------------------------------------
0.00000E+00 6.93654E-09
7.61557E-13 6.71802E-09
1.18994E-12 6.60122E-09
1.71346E-12 6.46398E-09
2.33225E-12 6.30889E-09
3.04617E-12 6.13940E-09
3.85530E-12 5.95801E-09
4.75964E-12 5.76780E-09
5.75917E-12 5.57190E-09
6.85391E-12 5.37178E-09
8.04379E-12 5.17058E-09
9.32893E-12 4.97025E-09
1.07092E-11 4.77130E-09
1.21847E-11 4.57639E-09
1.37554E-11 4.38600E-09
1.54213E-11 4.20045E-09
1.71823E-11 4.02153E-09
1.90386E-11 3.84847E-09
2.09900E-11 3.68195E-09
2.30367E-11 3.52293E-09
2.51785E-11 3.36967E-09
2.74156E-11 3.22354E-09
2.97478E-11 3.08459E-09
3.21752E-11 2.95093E-09
3.46979E-11 2.82424E-09
3.73157E-11 2.70364E-09
4.00286E-11 2.58819E-09
4.28368E-11 2.47895E-09
4.57402E-11 2.37465E-09
4.87388E-11 2.27522E-09
5.18325E-11 2.18118E-09
5.50215E-11 2.09100E-09
5.83057E-11 2.00537E-09
6.16850E-11 1.92433E-09
6.51595E-11 1.84629E-09
6.87293E-11 1.77242E-09
7.23943E-11 1.70218E-09
7.61544E-11 1.63476E-09
1.18991E-10 1.11096E-09
1.71347E-10 7.75011E-10
2.33223E-10 5.45899E-10
3.04617E-10 4.02089E-10
3.85531E-10 2.98258E-10
4.75965E-10 2.26276E-10
5.75917E-10 1.75561E-10
6.85389E-10 1.37322E-10
8.04380E-10 1.09516E-10
9.32891E-10 8.86396E-11
1.07092E-09 7.23474E-11
1.21847E-09 5.98442E-11
1.37554E-09 4.99418E-11
1.54213E-09 4.19614E-11
1.71823E-09 3.55764E-11
1.90386E-09 3.03087E-11
2.09900E-09 2.59680E-11
2.30367E-09 2.23932E-11
2.51785E-09 1.93635E-11
2.74156E-09 1.68318E-11
2.97478E-09 1.47010E-11
3.21752E-09 1.28719E-11
3.46978E-09 1.13235E-11
3.73156E-09 9.99736E-12
4.00286E-09 8.85338E-12
4.28368E-09 7.87226E-12
4.57402E-09 7.02297E-12
4.87388E-09 6.28141E-12
5.18326E-09 5.63591E-12
5.50215E-09 5.07061E-12
5.83057E-09 4.57628E-12
6.16850E-09 4.14271E-12
6.51596E-09 3.75927E-12
6.87293E-09 3.42074E-12
7.23942E-09 3.12041E-12
7.61544E-09 2.85230E-12
1.18991E-08 1.28561E-12
1.71347E-08 6.64485E-13
2.33223E-08 3.77176E-13
3.04617E-08 2.29862E-13
3.85531E-08 1.47970E-13
4.75965E-08 9.95271E-14
5.75917E-08 6.93295E-14
6.85389E-08 4.97668E-14
8.04380E-08 3.66333E-14
9.32891E-08 2.75606E-14
1.07092E-07 2.11340E-14
1.21847E-07 1.64761E-14
1.37554E-07 1.30363E-14
1.54213E-07 1.04497E-14
1.71823E-07 8.47464E-15
1.90386E-07 6.94537E-15
2.09900E-07 5.74571E-15
2.30367E-07 4.79438E-15
2.51785E-07 4.03179E-15
2.74156E-07 3.41485E-15
2.97478E-07 2.91144E-15
3.21752E-07 2.49726E-15
3.46978E-07 2.15414E-15
3.73156E-07 1.86785E-15
4.00286E-07 1.62753E-15
4.28368E-07 1.42460E-15
4.57402E-07 1.25228E-15
4.87388E-07 1.10523E-15
5.18325E-07 9.79110E-16
5.50215E-07 8.70466E-16
5.83057E-07 7.76473E-16
6.16850E-07 6.94817E-16
6.51596E-07 6.23619E-16
6.87293E-07 5.61303E-16
7.23942E-07 5.06580E-16
7.61543E-07 4.58366E-16
1.18991E-06 1.89608E-16
1.71347E-06 9.20667E-17
2.33223E-06 4.99474E-17
3.04617E-06 2.93915E-17
3.85531E-06 1.84043E-17
4.75964E-06 1.21039E-17
5.75916E-06 8.28303E-18
6.85388E-06 5.85761E-18
8.04378E-06 4.25836E-18
9.32888E-06 3.16947E-18
1.07092E-05 2.40739E-18
1.21846E-05 1.86118E-18
1.37553E-05 1.46147E-18
1.54212E-05 1.16352E-18
1.71822E-05 9.37779E-19
1.90385E-05 7.63759E-19
2.09899E-05 6.29109E-19
2.30365E-05 5.22770E-19
2.51783E-05 4.37845E-19
2.74153E-05 3.69382E-19
2.97475E-05 3.13743E-19
3.21749E-05 2.68196E-19
3.46974E-05 2.30647E-19
3.73152E-05 1.99477E-19
4.00281E-05 1.73422E-19
4.28362E-05 1.51497E-19
4.57395E-05 1.32930E-19
4.87380E-05 1.17116E-19
5.18317E-05 1.03579E-19
5.50205E-05 9.19377E-20
5.83045E-05 8.18854E-20
6.16838E-05 7.31713E-20
6.51582E-05 6.55891E-20
6.87277E-05 5.89665E-20
7.23925E-05 5.31612E-20
7.61524E-05 4.84847E-20
9.21439E-05 3.32069E-20
1.09658E-04 2.35094E-20
1.28695E-04 1.71152E-20
1.49255E-04 1.27582E-20
1.71338E-04 9.70665E-21
1.94942E-04 7.51711E-21
2.20070E-04 5.91308E-21
2.46720E-04 4.71505E-21
2.74892E-04 3.80598E-21
3.04586E-04 3.10596E-21
3.35803E-04 2.55977E-21
3.68542E-04 2.12847E-21
4.02802E-04 1.78419E-21
4.38585E-04 1.50666E-21
4.75889E-04 1.28089E-21
5.14715E-04 1.09572E-21
5.55063E-04 9.42657E-22
5.96931E-04 8.15254E-22
6.40321E-04 7.08508E-22
6.85233E-04 6.18524E-22
7.31665E-04 5.42242E-22
7.79618E-04 4.77229E-22
8.29092E-04 4.21550E-22
8.80086E-04 3.73640E-22
9.32601E-04 3.32238E-22
9.86636E-04 2.96313E-22
1.04219E-03 2.65020E-22
1.09927E-03 2.37663E-22
1.15786E-03 2.13664E-22
1.21797E-03 1.92544E-22
1.27961E-03 1.73900E-22
1.34276E-03 1.57393E-22
1.40743E-03 1.42739E-22
1.47362E-03 1.29694E-22
1.54133E-03 1.18055E-22
1.61056E-03 1.07643E-22
1.68131E-03 9.83097E-23
1.75357E-03 8.99244E-23
1.82735E-03 8.23753E-23
1.90265E-03 7.55659E-23
1.97947E-03 6.94120E-23
2.05780E-03 6.38407E-23
2.13765E-03 5.87880E-23
2.21902E-03 5.41982E-23
2.30190E-03 5.00222E-23
2.38630E-03 4.62171E-23
2.47222E-03 4.27448E-23
2.55965E-03 3.95718E-23
2.64859E-03 3.66685E-23
2.73905E-03 3.40085E-23
2.83103E-03 3.15685E-23
2.92452E-03 2.93275E-23
3.01952E-03 2.72670E-23
3.11604E-03 2.53704E-23
3.21407E-03 2.36228E-23
3.31362E-03 2.20109E-23
3.41468E-03 2.05226E-23
3.51725E-03 1.91472E-23
3.62133E-03 1.78749E-23
3.72692E-03 1.66971E-23
3.83403E-03 1.56057E-23
3.94265E-03 1.45936E-23
4.05278E-03 1.36542E-23
4.16442E-03 1.27818E-23
4.27757E-03 1.19709E-23
4.39223E-03 1.12167E-23
4.50840E-03 1.05147E-23
4.62608E-03 9.86084E-24
4.74527E-03 9.25149E-24
4.86597E-03 8.68324E-24
4.98817E-03 8.15300E-24
5.11188E-03 7.65795E-24
5.23711E-03 7.19550E-24
5.36383E-03 6.76326E-24
5.49207E-03 6.35906E-24
5.62181E-03 5.98089E-24
5.75306E-03 5.62690E-24
5.88581E-03 5.29539E-24
6.02007E-03 4.98479E-24
6.15583E-03 4.69365E-24
6.29310E-03 4.42065E-24
6.43187E-03 4.16454E-24
6.57214E-03 3.92419E-24
6.71392E-03 3.69855E-24
6.85720E-03 3.48663E-24
7.00198E-03 3.28753E-24
7.14827E-03 3.10041E-24
7.29605E-03 2.92449E-24
7.44534E-03 2.75906E-24
7.59612E-03 2.60343E-24
7.97965E-03 2.25327E-24
8.37255E-03 1.95200E-24
8.77480E-03 1.69237E-24
9.18641E-03 1.46832E-24
9.60736E-03 1.27471E-24
1.00376E-02 1.10723E-24
1.04773E-02 9.62192E-25
1.09262E-02 8.36476E-25
1.13844E-02 7.27421E-25
1.18520E-02 6.32752E-25
1.23288E-02 5.50521E-25
1.28150E-02 4.79057E-25
1.33104E-02 4.16925E-25
1.38150E-02 3.62886E-25
1.43290E-02 3.15874E-25
1.48521E-02 2.74968E-25
1.53845E-02 2.39371E-25
1.59262E-02 2.08390E-25
1.64770E-02 1.81429E-25
1.70371E-02 1.57967E-25
1.76063E-02 1.37551E-25
1.81848E-02 1.19790E-25
1.87724E-02 1.04341E-25
1.93692E-02 9.09065E-26
1.99751E-02 7.92268E-26
2.05901E-02 6.90757E-26
2.12143E-02 6.02559E-26
2.18476E-02 5.25952E-26
2.24900E-02 4.59433E-26
2.31415E-02 4.01691E-26
2.38021E-02 3.51582E-26
2.44717E-02 3.08107E-26
2.51504E-02 2.70396E-26
2.58382E-02 2.37687E-26
2.65349E-02 2.09319E-26
2.72407E-02 1.84713E-26
2.79555E-02 1.63367E-26
2.86793E-02 1.44841E-26
2.94120E-02 1.28756E-26
3.01537E-02 1.14778E-26
3.09043E-02 1.02621E-26
3.16639E-02 9.20339E-27
3.24324E-02 8.28005E-27
3.32098E-02 7.47330E-27
3.39961E-02 6.76691E-27
3.47912E-02 6.14686E-27
3.55952E-02 5.60106E-27
3.64081E-02 5.11908E-27
3.72297E-02 4.69198E-27
3.80602E-02 4.31206E-27
3.88995E-02 3.97272E-27
3.97476E-02 3.66834E-27
4.06044E-02 3.39409E-27
4.14700E-02 3.14586E-27
4.23443E-02 2.92018E-27
4.32273E-02 2.71406E-27
4.41190E-02 2.52500E-27
4.50194E-02 2.35087E-27
4.59284E-02 2.18988E-27
4.68461E-02 2.04050E-27
4.87074E-02 1.77171E-27
5.06030E-02 1.53651E-27
5.25328E-02 1.32923E-27
5.44967E-02 1.14581E-27
5.64946E-02 9.83267E-28
5.85262E-02 8.39357E-28
6.05914E-02 7.12301E-28
6.26901E-02 6.00614E-28
6.48222E-02 5.02988E-28
6.69873E-02 4.18218E-28
6.91854E-02 3.45165E-28
7.14163E-02 2.82726E-28
7.36799E-02 2.29837E-28
7.59760E-02 1.85466E-28
7.83043E-02 1.48620E-28
8.06647E-02 1.18356E-28
8.30571E-02 9.37878E-29
8.54812E-02 7.40891E-29
8.79369E-02 5.85039E-29
9.04240E-02 4.63473E-29
9.29422E-02 3.70077E-29
9.54915E-02 2.99465E-29
9.80716E-02 2.46962E-29
1.00682E-01 2.08566E-29
1.03323E-01 1.80911E-29
1.05995E-01 1.61210E-29
1.08696E-01 1.47199E-29
1.11427E-01 1.37080E-29
1.14188E-01 1.29459E-29
1.16978E-01 1.23286E-29
1.19797E-01 1.17805E-29
1.22645E-01 1.12497E-29
1.25522E-01 1.07035E-29
1.28428E-01 1.01241E-29
1.31361E-01 9.50536E-30
1.34323E-01 8.84895E-30
1.37313E-01 8.16226E-30
1.40330E-01 7.45604E-30
1.43375E-01 6.74270E-30
1.46447E-01 6.03499E-30
1.49545E-01 5.34504E-30
1.52671E-01 4.68366E-30
1.55823E-01 4.05989E-30
1.59001E-01 3.48085E-30
1.62205E-01 2.95159E-30
1.65435E-01 2.47521E-30
1.68690E-01 2.05297E-30
1.71970E-01 1.68453E-30
1.75276E-01 1.36820E-30
1.78606E-01 1.10117E-30
1.81961E-01 8.79791E-31
1.85340E-01 6.99850E-31
1.88743E-01 5.56762E-31
1.92169E-01 4.45793E-31
1.95619E-01 3.62233E-31
1.99092E-01 3.01533E-31
2.02589E-01 2.59420E-31
2.06107E-01 2.31977E-31
2.09649E-01 2.15699E-31
2.13212E-01 2.07520E-31
2.16797E-01 2.04827E-31
2.20404E-01 2.05453E-31
2.24032E-01 2.07652E-31
2.27680E-01 2.10072E-31
2.31350E-01 2.11715E-31
2.35040E-01 2.11896E-31
2.38751E-01 2.10198E-31
2.42481E-01 2.06424E-31
2.46231E-01 2.00557E-31
2.50000E-01 1.92719E-31
2.53788E-01 1.83131E-31
2.57595E-01 1.72085E-31
2.61421E-01 1.59909E-31
2.65264E-01 1.46949E-31
2.69126E-01 1.33545E-31
2.73005E-01 1.20020E-31
2.76901E-01 1.06666E-31
2.80814E-01 9.37360E-32
2.84744E-01 8.14427E-32
2.88691E-01 6.99538E-32
2.92653E-01 5.93930E-32
2.96632E-01 4.98428E-32
3.00625E-01 4.13471E-32
3.04634E-01 3.39155E-32
3.08658E-01 2.75285E-32
3.12697E-01 2.21423E-32
3.16749E-01 1.76936E-32
3.20816E-01 1.41049E-32
3.24896E-01 1.12893E-32
3.28990E-01 9.15383E-33
3.33097E-01 7.60394E-33
3.37216E-01 6.54613E-33
3.41348E-01 5.89066E-33
3.45492E-01 5.55353E-33
3.49647E-01 5.45793E-33
3.53814E-01 5.53526E-33
3.57992E-01 5.72571E-33
3.62181E-01 5.97847E-33
3.66381E-01 6.25158E-33
3.70590E-01 6.51160E-33
3.74810E-01 6.73302E-33
3.79039E-01 6.89756E-33
3.83277E-01 6.99338E-33
3.87524E-01 7.01420E-33
3.91780E-01 6.95841E-33
3.96044E-01 6.82825E-33
4.00316E-01 6.62892E-33
4.04596E-01 6.36788E-33
4.08882E-01 6.05411E-33
4.13176E-01 5.69750E-33
4.17476E-01 5.30833E-33
4.21783E-01 4.89681E-33
4.26095E-01 4.47273E-33
4.30413E-01 4.04517E-33
4.34737E-01 3.62233E-33
4.39065E-01 3.21132E-33
4.43398E-01 2.81816E-33
4.47736E-01 2.44770E-33
4.52077E-01 2.10366E-33
4.56422E-01 1.78869E-33
4.60770E-01 1.50439E-33
4.65122E-01 1.25149E-33
4.69476E-01 1.02990E-33
4.73832E-01 8.38840E-34
4.78190E-01 6.76964E-34
4.82550E-01 5.42478E-34
4.86912E-01 4.33246E-34
4.91274E-01 3.46897E-34
4.95637E-01 2.80919E-34
5.00000E-01 2.32741E-34
5.04363E-01 1.99809E-34
5.08726E-01 1.79642E-34
5.13088E-01 1.69885E-34
5.17450E-01 1.68344E-34
5.21810E-01 1.73016E-34
5.26168E-01 1.82104E-34
5.30524E-01 1.94033E-34
5.34878E-01 2.07447E-34
5.39230E-01 2.21207E-34
5.43578E-01 2.34386E-34
5.47923E-01 2.46251E-34
5.52264E-01 2.56254E-34
5.56602E-01 2.64010E-34
5.60935E-01 2.69280E-34
5.65263E-01 2.71950E-34
5.69587E-01 2.72016E-34
5.73905E-01 2.69559E-34
5.78217E-01 2.64735E-34
5.82524E-01 2.57750E-34
5.86824E-01 2.48851E-34
5.91118E-01 2.38310E-34
5.95404E-01 2.26412E-34
5.99684E-01 2.13445E-34
6.03956E-01 1.99693E-34
6.08220E-01 1.85427E-34
6.12476E-01 1.70899E-34
6.16723E-01 1.56341E-34
6.20961E-01 1.41960E-34
6.25190E-01 1.27936E-34
6.29410E-01 1.14423E-34
6.33619E-01 1.01546E-34
6.37819E-01 8.94061E-35
6.42008E-01 7.80784E-35
6.46186E-01 6.76146E-35
6.50353E-01 5.80456E-35
6.54508E-01 4.93830E-35
6.58652E-01 4.16219E-35
6.62784E-01 3.47427E-35
6.66903E-01 2.87145E-35
6.71010E-01 2.34958E-35
6.75104E-01 1.90382E-35
6.79184E-01 1.52875E-35
6.83251E-01 1.21854E-35
6.87303E-01 9.67166E-36
6.91342E-01 7.68539E-36
6.95366E-01 6.16578E-36
6.99375E-01 5.05386E-36
7.03368E-01 4.29280E-36
7.07347E-01 3.82884E-36
7.11309E-01 3.61176E-36
7.15256E-01 3.59518E-36
7.19186E-01 3.73688E-36
7.23099E-01 3.99888E-36
7.26995E-01 4.34743E-36
7.30874E-01 4.75297E-36
7.34736E-01 5.19002E-36
7.38579E-01 5.63696E-36
7.42405E-01 6.07581E-36
7.46212E-01 6.49192E-36
7.50000E-01 6.87378E-36
7.53769E-01 7.21258E-36
7.57519E-01 7.50212E-36
7.61249E-01 7.73826E-36
7.64960E-01 7.91884E-36
7.68650E-01 8.04330E-36
7.72320E-01 8.11240E-36
7.75968E-01 8.12804E-36
7.79596E-01 8.09297E-36
7.83203E-01 8.01078E-36
7.86788E-01 7.88530E-36
7.90351E-01 7.72091E-36
7.93893E-01 7.52209E-36
7.97411E-01 7.29348E-36
8.00908E-01 7.03957E-36
8.04381E-01 6.76488E-36
8.07831E-01 6.47374E-36
8.11257E-01 6.17011E-36
8.14660E-01 5.85784E-36
8.18039E-01 5.54042E-36
8.21394E-01 5.22108E-36
8.24724E-01 4.90263E-36
8.28030E-01 4.58762E-36
8.31310E-01 4.27829E-36
8.34565E-01 3.97651E-36
8.37795E-01 3.68391E-36
8.40999E-01 3.40182E-36
8.44177E-01 3.13124E-36
8.47329E-01 2.87302E-36
8.50455E-01 2.62779E-36
8.53553E-01 2.39591E-36
8.56625E-01 2.17756E-36
8.59670E-01 1.97283E-36
8.62687E-01 1.78163E-36
8.65677E-01 1.60376E-36
8.68639E-01 1.43891E-36
8.71572E-01 1.28669E-36
8.74478E-01 1.14665E-36
8.77355E-01 1.01829E-36
8.80203E-01 9.01041E-37
8.83022E-01 7.94354E-37
8.85812E-01 6.97637E-37
8.88573E-01 6.10243E-37
8.91304E-01 5.31621E-37
8.94005E-01 4.61116E-37
8.96677E-01 3.98173E-37
8.99318E-01 3.42217E-37
9.01928E-01 2.92670E-37
9.04508E-01 2.49000E-37
9.07058E-01 2.10699E-37
9.09576E-01 1.77281E-37
9.12063E-01 1.48280E-37
9.14519E-01 1.23266E-37
9.16943E-01 1.01838E-37
9.19335E-01 8.36165E-38
9.21696E-01 6.82493E-38
9.24024E-01 5.54097E-38
9.26320E-01 4.48017E-38
9.28584E-01 3.61494E-38
9.30815E-01 2.92107E-38
9.33013E-01 2.37481E-38
9.35178E-01 1.95645E-38
9.37310E-01 1.64676E-38
9.39409E-01 1.42925E-38
9.41474E-01 1.28898E-38
9.43505E-01 1.21261E-38
9.45503E-01 1.18822E-38
9.47467E-01 1.20549E-38
9.49397E-01 1.25515E-38
9.51293E-01 1.32915E-38
9.53154E-01 1.42063E-38
9.54981E-01 1.52347E-38
9.56773E-01 1.63258E-38
9.58530E-01 1.74363E-38
9.60252E-01 1.85319E-38
9.61940E-01 1.95774E-38
9.63592E-01 2.05546E-38
9.65209E-01 2.14394E-38
9.66790E-01 2.22202E-38
9.68336E-01 2.28828E-38
9.69846E-01 2.34211E-38
9.71321E-01 2.38370E-38
9.72759E-01 2.41147E-38
9.74162E-01 2.42664E-38
9.75528E-01 2.42918E-38
9.76858E-01 2.41919E-38
9.78152E-01 2.39724E-38
9.79410E-01 2.36428E-38
9.80631E-01 2.32010E-38
9.81815E-01 2.26665E-38
9.82963E-01 2.20395E-38
9.84074E-01 2.13355E-38
9.85148E-01 2.05583E-38
9.86185E-01 1.97151E-38
9.87185E-01 1.88197E-38
9.88148E-01 1.78779E-38
9.89074E-01 1.68992E-38
9.89962E-01 1.58927E-38
9.90814E-01 1.48659E-38
9.91627E-01 1.38275E-38
9.92404E-01 1.27871E-38
9.93143E-01 1.17489E-38
9.93844E-01 1.07241E-38
9.94508E-01 9.71315E-39
9.95134E-01 8.72757E-39
9.95722E-01 7.77369E-39
9.96273E-01 6.85407E-39
9.96786E-01 5.97602E-39
9.97261E-01 5.14332E-39
9.97698E-01 4.36313E-39
9.98097E-01 3.63826E-39
9.98459E-01 2.96870E-39
9.98782E-01 2.36124E-39
9.99067E-01 1.82037E-39
9.99315E-01 1.34481E-39
9.99524E-01 9.37348E-40
9.99695E-01 6.03524E-40
9.99829E-01 3.41800E-40
9.99924E-01 1.54000E-40
9.99981E-01 4.08304E-41
1.00000E+00 4.10274E-42
