 #
 # Subroutine ELSEPA. Elastic scattering of electrons and positrons
 #                    by neutral atoms and positive ions
 #
 # Projectile: electron
 # Kinetic energy = 9.00000E+08 eV = 3.30744E+07 a.u.
 #
 # WARNING: High-energy factorization with free-atom DF screening.
 #          Absorption, polarization and exchange corrections are
 #          switched off.
 #          Phase shifts are calculated for the bare nucleus.
 #          Scattering amplitudes are not evaluated.
 #
 # Element: Tl,  Z =  81,  atomic weight = 2.04383E+02 g/mol
 #
 # Nuclear model: Fermi distribution
 #                Average radius = 6.30278E-13 cm
 #                Skin thickness = 5.46000E-14 cm
 #
 # Number of electrons = 81
 #
 # Total elastic cross section = 8.24992E-18 cm**2 = 2.94610E-01 a0**2
 # 1st transport cross section = 1.51508E-26 cm**2 = 5.41047E-10 a0**2
 # 2nd transport cross section = 4.54471E-26 cm**2 = 1.62294E-09 a0**2
 #
 #
 # Differential cross section:                       MU=(1-COS(THETA))/2
 #
 #  THETA        MU          DCS          DCS        Sherman      error
 #  (deg)                 (cm**2/sr)   (a0**2/sr)    function
 #----------------------------------------------------------------------
0.00000E+00 4.57844E-08
7.61557E-13 3.77151E-08
1.18994E-12 3.43336E-08
1.71346E-12 3.09573E-08
2.33225E-12 2.77441E-08
3.04617E-12 2.47901E-08
3.85530E-12 2.21218E-08
4.75964E-12 1.97440E-08
5.75917E-12 1.76446E-08
6.85391E-12 1.57876E-08
8.04379E-12 1.41544E-08
9.32893E-12 1.27180E-08
1.07092E-11 1.14458E-08
1.21847E-11 1.03244E-08
1.37554E-11 9.33174E-09
1.54213E-11 8.44861E-09
1.71823E-11 7.66503E-09
1.90386E-11 6.96581E-09
2.09900E-11 6.34069E-09
2.30367E-11 5.78235E-09
2.51785E-11 5.28053E-09
2.74156E-11 4.82990E-09
2.97478E-11 4.40138E-09
3.21752E-11 4.01454E-09
3.46979E-11 3.67896E-09
3.73157E-11 3.38648E-09
4.00286E-11 3.13037E-09
4.28368E-11 2.90514E-09
4.57402E-11 2.68496E-09
4.87388E-11 2.47332E-09
5.18325E-11 2.28633E-09
5.50215E-11 2.12052E-09
5.83057E-11 1.97296E-09
6.16850E-11 1.84119E-09
6.51595E-11 1.71573E-09
6.87293E-11 1.59441E-09
7.23943E-11 1.48559E-09
7.61544E-11 1.38771E-09
1.18991E-10 7.48382E-10
1.71347E-10 4.41173E-10
2.33223E-10 2.77713E-10
3.04617E-10 1.83650E-10
3.85531E-10 1.25626E-10
4.75965E-10 8.84577E-11
5.75917E-10 6.39213E-11
6.85389E-10 4.72481E-11
8.04380E-10 3.56464E-11
9.32891E-10 2.74286E-11
1.07092E-09 2.14825E-11
1.21847E-09 1.70895E-11
1.37554E-09 1.37742E-11
1.54213E-09 1.12282E-11
1.71823E-09 9.24955E-12
1.90386E-09 7.69145E-12
2.09900E-09 6.45007E-12
2.30367E-09 5.45062E-12
2.51785E-09 4.63695E-12
2.74156E-09 3.96954E-12
2.97478E-09 3.41583E-12
3.21752E-09 2.95712E-12
3.46978E-09 2.57484E-12
3.73156E-09 2.24995E-12
4.00286E-09 1.97672E-12
4.28368E-09 1.74251E-12
4.57402E-09 1.54242E-12
4.87388E-09 1.37057E-12
5.18326E-09 1.22141E-12
5.50215E-09 1.09270E-12
5.83057E-09 9.79846E-13
6.16850E-09 8.81503E-13
6.51596E-09 7.95176E-13
6.87293E-09 7.19006E-13
7.23942E-09 6.52021E-13
7.61544E-09 5.92292E-13
1.18991E-08 2.53075E-13
1.71347E-08 1.25541E-13
2.33223E-08 6.91971E-14
3.04617E-08 4.12229E-14
3.85531E-08 2.60608E-14
4.75965E-08 1.72670E-14
5.75917E-08 1.18850E-14
6.85389E-08 8.44380E-15
8.04380E-08 6.16158E-15
9.32891E-08 4.60040E-15
1.07092E-07 3.50360E-15
1.21847E-07 2.71498E-15
1.37554E-07 2.13627E-15
1.54213E-07 1.70388E-15
1.71823E-07 1.37558E-15
1.90386E-07 1.12269E-15
2.09900E-07 9.25358E-16
2.30367E-07 7.69550E-16
2.51785E-07 6.45206E-16
2.74156E-07 5.44998E-16
2.97478E-07 4.63515E-16
3.21752E-07 3.96708E-16
3.46978E-07 3.41517E-16
3.73156E-07 2.95601E-16
4.00286E-07 2.57147E-16
4.28368E-07 2.24749E-16
4.57402E-07 1.97296E-16
4.87388E-07 1.73909E-16
5.18325E-07 1.53886E-16
5.50215E-07 1.36664E-16
5.83057E-07 1.21784E-16
6.16850E-07 1.08876E-16
6.51596E-07 9.76325E-17
6.87293E-07 8.78034E-17
7.23942E-07 7.91806E-17
7.61543E-07 7.15905E-17
1.18991E-06 2.94341E-17
1.71347E-06 1.42276E-17
2.33223E-06 7.69154E-18
3.04617E-06 4.51355E-18
3.85531E-06 2.82009E-18
4.75964E-06 1.85144E-18
5.75916E-06 1.26522E-18
6.85388E-06 8.93722E-19
8.04378E-06 6.49112E-19
9.32888E-06 4.82756E-19
1.07092E-05 3.66446E-19
1.21846E-05 2.83151E-19
1.37553E-05 2.22238E-19
1.54212E-05 1.76862E-19
1.71822E-05 1.42500E-19
1.90385E-05 1.16023E-19
2.09899E-05 9.55449E-20
2.30365E-05 7.93779E-20
2.51783E-05 6.64706E-20
2.74153E-05 5.60682E-20
2.97475E-05 4.76169E-20
3.21749E-05 4.07009E-20
3.46974E-05 3.49999E-20
3.73152E-05 3.02662E-20
4.00281E-05 2.63101E-20
4.28362E-05 2.29815E-20
4.57395E-05 2.01631E-20
4.87380E-05 1.77631E-20
5.18317E-05 1.57087E-20
5.50205E-05 1.39422E-20
5.83045E-05 1.24170E-20
6.16838E-05 1.10950E-20
6.51582E-05 9.94481E-21
6.87277E-05 8.94027E-21
7.23925E-05 8.05973E-21
7.61524E-05 7.47069E-21
9.21439E-05 5.10138E-21
1.09658E-04 3.59564E-21
1.28695E-04 2.60223E-21
1.49255E-04 1.92542E-21
1.71338E-04 1.45183E-21
1.94942E-04 1.11261E-21
2.20070E-04 8.64714E-22
2.46720E-04 6.80338E-22
2.74892E-04 5.41062E-22
3.04586E-04 4.34402E-22
3.35803E-04 3.51718E-22
3.68542E-04 2.86913E-22
4.02802E-04 2.35622E-22
4.38585E-04 1.94666E-22
4.75889E-04 1.61699E-22
5.14715E-04 1.34971E-22
5.55063E-04 1.13155E-22
5.96931E-04 9.52438E-23
6.40321E-04 8.04561E-23
6.85233E-04 6.81860E-23
7.31665E-04 5.79583E-23
7.79618E-04 4.93966E-23
8.29092E-04 4.22022E-23
8.80086E-04 3.61351E-23
9.32601E-04 3.10020E-23
9.86636E-04 2.66462E-23
1.04219E-03 2.29397E-23
1.09927E-03 1.97779E-23
1.15786E-03 1.70744E-23
1.21797E-03 1.47581E-23
1.27961E-03 1.27695E-23
1.34276E-03 1.10593E-23
1.40743E-03 9.58615E-24
1.47362E-03 8.31535E-24
1.54133E-03 7.21769E-24
1.61056E-03 6.26841E-24
1.68131E-03 5.44659E-24
1.75357E-03 4.73446E-24
1.82735E-03 4.11683E-24
1.90265E-03 3.58079E-24
1.97947E-03 3.11525E-24
2.05780E-03 2.71073E-24
2.13765E-03 2.35907E-24
2.21902E-03 2.05324E-24
2.30190E-03 1.78719E-24
2.38630E-03 1.55570E-24
2.47222E-03 1.35425E-24
2.55965E-03 1.17892E-24
2.64859E-03 1.02634E-24
2.73905E-03 8.93539E-25
2.83103E-03 7.77976E-25
2.92452E-03 6.77427E-25
3.01952E-03 5.89955E-25
3.11604E-03 5.13877E-25
3.21407E-03 4.47727E-25
3.31362E-03 3.90223E-25
3.41468E-03 3.40252E-25
3.51725E-03 2.96840E-25
3.62133E-03 2.59137E-25
3.72692E-03 2.26404E-25
3.83403E-03 1.97993E-25
3.94265E-03 1.73340E-25
4.05278E-03 1.51952E-25
4.16442E-03 1.33400E-25
4.27757E-03 1.17309E-25
4.39223E-03 1.03352E-25
4.50840E-03 9.12450E-26
4.62608E-03 8.07397E-26
4.74527E-03 7.16203E-26
4.86597E-03 6.36989E-26
4.98817E-03 5.68126E-26
5.11188E-03 5.08196E-26
5.23711E-03 4.55971E-26
5.36383E-03 4.10386E-26
5.49207E-03 3.70519E-26
5.62181E-03 3.35574E-26
5.75306E-03 3.04864E-26
5.88581E-03 2.77796E-26
6.02007E-03 2.53859E-26
6.15583E-03 2.32616E-26
6.29310E-03 2.13691E-26
6.43187E-03 1.96761E-26
6.57214E-03 1.81551E-26
6.71392E-03 1.67827E-26
6.85720E-03 1.55387E-26
7.00198E-03 1.44063E-26
7.14827E-03 1.33709E-26
7.29605E-03 1.24204E-26
7.44534E-03 1.15444E-26
7.59612E-03 1.07341E-26
7.97965E-03 8.95056E-27
8.37255E-03 7.44782E-27
8.77480E-03 6.16878E-27
9.18641E-03 5.07527E-27
9.60736E-03 4.14080E-27
1.00376E-02 3.34575E-27
1.04773E-02 2.67440E-27
1.09262E-02 2.11313E-27
1.13844E-02 1.64946E-27
1.18520E-02 1.27158E-27
1.23288E-02 9.68242E-28
1.28150E-02 7.28722E-28
1.33104E-02 5.42976E-28
1.38150E-02 4.01732E-28
1.43290E-02 2.96608E-28
1.48521E-02 2.20176E-28
1.53845E-02 1.66001E-28
1.59262E-02 1.28629E-28
1.64770E-02 1.03552E-28
1.70371E-02 8.71346E-29
1.76063E-02 7.65294E-29
1.81848E-02 6.95785E-29
1.87724E-02 6.47097E-29
1.93692E-02 6.08340E-29
1.99751E-02 5.72485E-29
2.05901E-02 5.35478E-29
2.12143E-02 4.95462E-29
2.18476E-02 4.52108E-29
2.24900E-02 4.06073E-29
2.31415E-02 3.58564E-29
2.38021E-02 3.11012E-29
2.44717E-02 2.64837E-29
2.51504E-02 2.21289E-29
2.58382E-02 1.81359E-29
2.65349E-02 1.45741E-29
2.72407E-02 1.14823E-29
2.79555E-02 8.87183E-30
2.86793E-02 6.73036E-30
2.94120E-02 5.02698E-30
3.01537E-02 3.71746E-30
3.09043E-02 2.74930E-30
3.16639E-02 2.06629E-30
3.24324E-02 1.61221E-30
3.32098E-02 1.33391E-30
3.39961E-02 1.18335E-30
3.47912E-02 1.11906E-30
3.55952E-02 1.10675E-30
3.64081E-02 1.11944E-30
3.72297E-02 1.13714E-30
3.80602E-02 1.14614E-30
3.88995E-02 1.13820E-30
3.97476E-02 1.10951E-30
4.06044E-02 1.05970E-30
4.14700E-02 9.90899E-31
4.23443E-02 9.06856E-31
4.32273E-02 8.12174E-31
4.41190E-02 7.11715E-31
4.50194E-02 6.10126E-31
4.59284E-02 5.11510E-31
4.68461E-02 4.19215E-31
4.87074E-02 2.62707E-31
5.06030E-02 1.50512E-31
5.25328E-02 8.13215E-32
5.44967E-02 4.66788E-32
5.64946E-02 3.52291E-32
5.85262E-02 3.60583E-32
6.05914E-02 4.07061E-32
6.26901E-02 4.39027E-32
6.48222E-02 4.33500E-32
6.69873E-02 3.89580E-32
6.91854E-02 3.19114E-32
7.14163E-02 2.38322E-32
7.36799E-02 1.61834E-32
7.59760E-02 9.94940E-33
7.83043E-02 5.55643E-33
8.06647E-02 2.95598E-33
8.30571E-02 1.78999E-33
8.54812E-02 1.56869E-33
8.79369E-02 1.81565E-33
9.04240E-02 2.15943E-33
9.29422E-02 2.37051E-33
9.54915E-02 2.35494E-33
9.80716E-02 2.12164E-33
1.00682E-01 1.73977E-33
1.03323E-01 1.29892E-33
1.05995E-01 8.79707E-34
1.08696E-01 5.37239E-34
1.11427E-01 2.96467E-34
1.14188E-01 1.56055E-34
1.16978E-01 9.68793E-35
1.19797E-01 9.16156E-35
1.22645E-01 1.12928E-34
1.25522E-01 1.38935E-34
1.28428E-01 1.55711E-34
1.31361E-01 1.57280E-34
1.34323E-01 1.43968E-34
1.37313E-01 1.20010E-34
1.40330E-01 9.11718E-35
1.43375E-01 6.28813E-35
1.46447E-01 3.90864E-35
1.49545E-01 2.18274E-35
1.52671E-01 1.13727E-35
1.55823E-01 6.69474E-36
1.59001E-01 6.06997E-36
1.62205E-01 7.63476E-36
1.65435E-01 9.79325E-36
1.68690E-01 1.14406E-35
1.71970E-01 1.20154E-35
1.75276E-01 1.14248E-35
1.78606E-01 9.90136E-36
1.81961E-01 7.84026E-36
1.85340E-01 5.65848E-36
1.88743E-01 3.69605E-36
1.92169E-01 2.16611E-36
1.95619E-01 1.14748E-36
1.99092E-01 6.07708E-37
2.02589E-01 4.41665E-37
2.06107E-01 5.13098E-37
2.09649E-01 6.89684E-37
2.13212E-01 8.66580E-37
2.16797E-01 9.77425E-37
2.20404E-01 9.94476E-37
2.24032E-01 9.21248E-37
2.27680E-01 7.81454E-37
2.31350E-01 6.07528E-37
2.35040E-01 4.31145E-37
2.38751E-01 2.76887E-37
2.42481E-01 1.00000E-45
2.46231E-01 1.00000E-45
2.50000E-01 1.00000E-45
2.53788E-01 1.00000E-45
2.57595E-01 1.00000E-45
2.61421E-01 1.00000E-45
2.65264E-01 1.00000E-45
2.69126E-01 1.00000E-45
2.73005E-01 1.00000E-45
2.76901E-01 1.00000E-45
2.80814E-01 1.00000E-45
2.84744E-01 1.00000E-45
2.88691E-01 1.00000E-45
2.92653E-01 1.00000E-45
2.96632E-01 1.00000E-45
3.00625E-01 1.00000E-45
3.04634E-01 1.00000E-45
3.08658E-01 1.00000E-45
3.12697E-01 1.00000E-45
3.16749E-01 1.00000E-45
3.20816E-01 1.00000E-45
3.24896E-01 1.00000E-45
3.28990E-01 1.00000E-45
3.33097E-01 1.00000E-45
3.37216E-01 1.00000E-45
3.41348E-01 1.00000E-45
3.45492E-01 1.00000E-45
3.49647E-01 1.00000E-45
3.53814E-01 1.00000E-45
3.57992E-01 1.00000E-45
3.62181E-01 1.00000E-45
3.66381E-01 1.00000E-45
3.70590E-01 1.00000E-45
3.74810E-01 1.00000E-45
3.79039E-01 1.00000E-45
3.83277E-01 1.00000E-45
3.87524E-01 1.00000E-45
3.91780E-01 1.00000E-45
3.96044E-01 1.00000E-45
4.00316E-01 1.00000E-45
4.04596E-01 1.00000E-45
4.08882E-01 1.00000E-45
4.13176E-01 1.00000E-45
4.17476E-01 1.00000E-45
4.21783E-01 1.00000E-45
4.26095E-01 1.00000E-45
4.30413E-01 1.00000E-45
4.34737E-01 1.00000E-45
4.39065E-01 1.00000E-45
4.43398E-01 1.00000E-45
4.47736E-01 1.00000E-45
4.52077E-01 1.00000E-45
4.56422E-01 1.00000E-45
4.60770E-01 1.00000E-45
4.65122E-01 1.00000E-45
4.69476E-01 1.00000E-45
4.73832E-01 1.00000E-45
4.78190E-01 1.00000E-45
4.82550E-01 1.00000E-45
4.86912E-01 1.00000E-45
4.91274E-01 1.00000E-45
4.95637E-01 1.00000E-45
5.00000E-01 1.00000E-45
5.04363E-01 1.00000E-45
5.08726E-01 1.00000E-45
5.13088E-01 1.00000E-45
5.17450E-01 1.00000E-45
5.21810E-01 1.00000E-45
5.26168E-01 1.00000E-45
5.30524E-01 1.00000E-45
5.34878E-01 1.00000E-45
5.39230E-01 1.00000E-45
5.43578E-01 1.00000E-45
5.47923E-01 1.00000E-45
5.52264E-01 1.00000E-45
5.56602E-01 1.00000E-45
5.60935E-01 1.00000E-45
5.65263E-01 1.00000E-45
5.69587E-01 1.00000E-45
5.73905E-01 1.00000E-45
5.78217E-01 1.00000E-45
5.82524E-01 1.00000E-45
5.86824E-01 1.00000E-45
5.91118E-01 1.00000E-45
5.95404E-01 1.00000E-45
5.99684E-01 1.00000E-45
6.03956E-01 1.00000E-45
6.08220E-01 1.00000E-45
6.12476E-01 1.00000E-45
6.16723E-01 1.00000E-45
6.20961E-01 1.00000E-45
6.25190E-01 1.00000E-45
6.29410E-01 1.00000E-45
6.33619E-01 1.00000E-45
6.37819E-01 1.00000E-45
6.42008E-01 1.00000E-45
6.46186E-01 1.00000E-45
6.50353E-01 1.00000E-45
6.54508E-01 1.00000E-45
6.58652E-01 1.00000E-45
6.62784E-01 1.00000E-45
6.66903E-01 1.00000E-45
6.71010E-01 1.00000E-45
6.75104E-01 1.00000E-45
6.79184E-01 1.00000E-45
6.83251E-01 1.00000E-45
6.87303E-01 1.00000E-45
6.91342E-01 1.00000E-45
6.95366E-01 1.00000E-45
6.99375E-01 1.00000E-45
7.03368E-01 1.00000E-45
7.07347E-01 1.00000E-45
7.11309E-01 1.00000E-45
7.15256E-01 1.00000E-45
7.19186E-01 1.00000E-45
7.23099E-01 1.00000E-45
7.26995E-01 1.00000E-45
7.30874E-01 1.00000E-45
7.34736E-01 1.00000E-45
7.38579E-01 1.00000E-45
7.42405E-01 1.00000E-45
7.46212E-01 1.00000E-45
7.50000E-01 1.00000E-45
7.53769E-01 1.00000E-45
7.57519E-01 1.00000E-45
7.61249E-01 1.00000E-45
7.64960E-01 1.00000E-45
7.68650E-01 1.00000E-45
7.72320E-01 1.00000E-45
7.75968E-01 1.00000E-45
7.79596E-01 1.00000E-45
7.83203E-01 1.00000E-45
7.86788E-01 1.00000E-45
7.90351E-01 1.00000E-45
7.93893E-01 1.00000E-45
7.97411E-01 1.00000E-45
8.00908E-01 1.00000E-45
8.04381E-01 1.00000E-45
8.07831E-01 1.00000E-45
8.11257E-01 1.00000E-45
8.14660E-01 1.00000E-45
8.18039E-01 1.00000E-45
8.21394E-01 1.00000E-45
8.24724E-01 1.00000E-45
8.28030E-01 1.00000E-45
8.31310E-01 1.00000E-45
8.34565E-01 1.00000E-45
8.37795E-01 1.00000E-45
8.40999E-01 1.00000E-45
8.44177E-01 1.00000E-45
8.47329E-01 1.00000E-45
8.50455E-01 1.00000E-45
8.53553E-01 1.00000E-45
8.56625E-01 1.00000E-45
8.59670E-01 1.00000E-45
8.62687E-01 1.00000E-45
8.65677E-01 1.00000E-45
8.68639E-01 1.00000E-45
8.71572E-01 1.00000E-45
8.74478E-01 1.00000E-45
8.77355E-01 1.00000E-45
8.80203E-01 1.00000E-45
8.83022E-01 1.00000E-45
8.85812E-01 1.00000E-45
8.88573E-01 1.00000E-45
8.91304E-01 1.00000E-45
8.94005E-01 1.00000E-45
8.96677E-01 1.00000E-45
8.99318E-01 1.00000E-45
9.01928E-01 1.00000E-45
9.04508E-01 1.00000E-45
9.07058E-01 1.00000E-45
9.09576E-01 1.00000E-45
9.12063E-01 1.00000E-45
9.14519E-01 1.00000E-45
9.16943E-01 1.00000E-45
9.19335E-01 1.00000E-45
9.21696E-01 1.00000E-45
9.24024E-01 1.00000E-45
9.26320E-01 1.00000E-45
9.28584E-01 1.00000E-45
9.30815E-01 1.00000E-45
9.33013E-01 1.00000E-45
9.35178E-01 1.00000E-45
9.37310E-01 1.00000E-45
9.39409E-01 1.00000E-45
9.41474E-01 1.00000E-45
9.43505E-01 1.00000E-45
9.45503E-01 1.00000E-45
9.47467E-01 1.00000E-45
9.49397E-01 1.00000E-45
9.51293E-01 1.00000E-45
9.53154E-01 1.00000E-45
9.54981E-01 1.00000E-45
9.56773E-01 1.00000E-45
9.58530E-01 1.00000E-45
9.60252E-01 1.00000E-45
9.61940E-01 1.00000E-45
9.63592E-01 1.00000E-45
9.65209E-01 1.00000E-45
9.66790E-01 1.00000E-45
9.68336E-01 1.00000E-45
9.69846E-01 1.00000E-45
9.71321E-01 1.00000E-45
9.72759E-01 1.00000E-45
9.74162E-01 1.00000E-45
9.75528E-01 1.00000E-45
9.76858E-01 1.00000E-45
9.78152E-01 1.00000E-45
9.79410E-01 1.00000E-45
9.80631E-01 1.00000E-45
9.81815E-01 1.00000E-45
9.82963E-01 1.00000E-45
9.84074E-01 1.00000E-45
9.85148E-01 1.00000E-45
9.86185E-01 1.00000E-45
9.87185E-01 1.00000E-45
9.88148E-01 1.00000E-45
9.89074E-01 1.00000E-45
9.89962E-01 1.00000E-45
9.90814E-01 1.00000E-45
9.91627E-01 1.00000E-45
9.92404E-01 1.00000E-45
9.93143E-01 1.00000E-45
9.93844E-01 1.00000E-45
9.94508E-01 1.00000E-45
9.95134E-01 1.00000E-45
9.95722E-01 1.00000E-45
9.96273E-01 1.00000E-45
9.96786E-01 1.00000E-45
9.97261E-01 1.00000E-45
9.97698E-01 1.00000E-45
9.98097E-01 1.00000E-45
9.98459E-01 1.00000E-45
9.98782E-01 1.00000E-45
9.99067E-01 1.00000E-45
9.99315E-01 1.00000E-45
9.99524E-01 1.00000E-45
9.99695E-01 1.00000E-45
9.99829E-01 1.00000E-45
9.99924E-01 1.00000E-45
9.99981E-01 1.00000E-45
1.00000E+00 1.00000E-45
