 #
 # Subroutine ELSEPA. Elastic scattering of electrons and positrons
 #                    by neutral atoms and positive ions
 #
 # Projectile: positron
 # Kinetic energy = 1.25000E+08 eV = 4.59367E+06 a.u.
 #
 # WARNING: High-energy factorization with free-atom DF screening.
 #          Absorption, polarization and exchange corrections are
 #          switched off.
 #          Phase shifts are calculated for the bare nucleus.
 #          Scattering amplitudes are not evaluated.
 #
 # Element:  O,  Z =   8,  atomic weight = 1.59994E+01 g/mol
 #
 # Nuclear model: Fermi distribution
 #                Average radius = 2.69620E-13 cm
 #                Skin thickness = 5.46000E-14 cm
 #
 # Number of electrons =  8
 #
 # Total elastic cross section = 2.74175E-19 cm**2 = 9.79097E-03 a0**2
 # 1st transport cross section = 8.99495E-27 cm**2 = 3.21215E-10 a0**2
 # 2nd transport cross section = 2.67136E-26 cm**2 = 9.53961E-10 a0**2
 #
 #
 # Differential cross section:                       MU=(1-COS(THETA))/2
 #
 #  THETA        MU          DCS          DCS        Sherman      error
 #  (deg)                 (cm**2/sr)   (a0**2/sr)    function
 #----------------------------------------------------------------------
0.00000E+00 2.37676E-11
7.61557E-13 2.37312E-11
1.18994E-12 2.37109E-11
1.71346E-12 2.36861E-11
2.33225E-12 2.36568E-11
3.04617E-12 2.36232E-11
3.85530E-12 2.35851E-11
4.75964E-12 2.35427E-11
5.75917E-12 2.34959E-11
6.85391E-12 2.34448E-11
8.04379E-12 2.33895E-11
9.32893E-12 2.33300E-11
1.07092E-11 2.32664E-11
1.21847E-11 2.31986E-11
1.37554E-11 2.31269E-11
1.54213E-11 2.30510E-11
1.71823E-11 2.29712E-11
1.90386E-11 2.28875E-11
2.09900E-11 2.28001E-11
2.30367E-11 2.27089E-11
2.51785E-11 2.26141E-11
2.74156E-11 2.25157E-11
2.97478E-11 2.24138E-11
3.21752E-11 2.23084E-11
3.46979E-11 2.21996E-11
3.73157E-11 2.20875E-11
4.00286E-11 2.19721E-11
4.28368E-11 2.18537E-11
4.57402E-11 2.17323E-11
4.87388E-11 2.16080E-11
5.18325E-11 2.14809E-11
5.50215E-11 2.13510E-11
5.83057E-11 2.12182E-11
6.16850E-11 2.10828E-11
6.51595E-11 2.09449E-11
6.87293E-11 2.08047E-11
7.23943E-11 2.06622E-11
7.61544E-11 2.05175E-11
1.18991E-10 1.89175E-11
1.71347E-10 1.72493E-11
2.33223E-10 1.55495E-11
3.04617E-10 1.38811E-11
3.85531E-10 1.22720E-11
4.75965E-10 1.07609E-11
5.75917E-10 9.38848E-12
6.85389E-10 8.16027E-12
8.04380E-10 7.07355E-12
9.32891E-10 6.12045E-12
1.07092E-09 5.29025E-12
1.21847E-09 4.57086E-12
1.37554E-09 3.94996E-12
1.54213E-09 3.41148E-12
1.71823E-09 2.95036E-12
1.90386E-09 2.55588E-12
2.09900E-09 2.21839E-12
2.30367E-09 1.92941E-12
2.51785E-09 1.68184E-12
2.74156E-09 1.46966E-12
2.97478E-09 1.28747E-12
3.21752E-09 1.13056E-12
3.46978E-09 9.95212E-13
3.73156E-09 8.78449E-13
4.00286E-09 7.77483E-13
4.28368E-09 6.89977E-13
4.57402E-09 6.13960E-13
4.87388E-09 5.47770E-13
5.18326E-09 4.90002E-13
5.50215E-09 4.39463E-13
5.83057E-09 3.95110E-13
6.16850E-09 3.56127E-13
6.51596E-09 3.21774E-13
6.87293E-09 2.91426E-13
7.23942E-09 2.64548E-13
7.61544E-09 2.40685E-13
1.18991E-08 1.04284E-13
1.71347E-08 5.28525E-14
2.33223E-08 2.98934E-14
3.04617E-08 1.82809E-14
3.85531E-08 1.18411E-14
4.75965E-08 8.01405E-15
5.75917E-08 5.61581E-15
6.85389E-08 4.04964E-15
8.04380E-08 2.99132E-15
9.32891E-08 2.25552E-15
1.07092E-07 1.73129E-15
1.21847E-07 1.34992E-15
1.37554E-07 1.06740E-15
1.54213E-07 8.54631E-16
1.71823E-07 6.92036E-16
1.90386E-07 5.66110E-16
2.09900E-07 4.67421E-16
2.30367E-07 3.89231E-16
2.51785E-07 3.26658E-16
2.74156E-07 2.76118E-16
2.97478E-07 2.34946E-16
3.21752E-07 2.01145E-16
3.46978E-07 1.73190E-16
3.73156E-07 1.49914E-16
4.00286E-07 1.30410E-16
4.28368E-07 1.13969E-16
4.57402E-07 1.00033E-16
4.87388E-07 8.81598E-17
5.18325E-07 7.79937E-17
5.50215E-07 6.92490E-17
5.83057E-07 6.16943E-17
6.16850E-07 5.51408E-17
6.51596E-07 4.94336E-17
6.87293E-07 4.44452E-17
7.23942E-07 4.00698E-17
7.61543E-07 3.62191E-17
1.18991E-06 1.48557E-17
1.71347E-06 7.16793E-18
2.33223E-06 3.86992E-18
3.04617E-06 2.26864E-18
3.85531E-06 1.41629E-18
4.75964E-06 9.29211E-19
5.75916E-06 6.34649E-19
6.85388E-06 4.48093E-19
8.04378E-06 3.25317E-19
9.32888E-06 2.41855E-19
1.07092E-05 1.83522E-19
1.21846E-05 1.41761E-19
1.37553E-05 1.11231E-19
1.54212E-05 8.84948E-20
1.71822E-05 7.12817E-20
1.90385E-05 5.80729E-20
2.09899E-05 4.77735E-20
2.30365E-05 3.96557E-20
2.51783E-05 3.31899E-20
2.74153E-05 2.79904E-20
2.97475E-05 2.37716E-20
3.21749E-05 2.03198E-20
3.46974E-05 1.74733E-20
3.73152E-05 1.51084E-20
4.00281E-05 1.31301E-20
4.28362E-05 1.14648E-20
4.57395E-05 1.00549E-20
4.87380E-05 8.85493E-21
5.18317E-05 7.82867E-21
5.50205E-05 6.94696E-21
5.83045E-05 6.18612E-21
6.16838E-05 5.52679E-21
6.51582E-05 4.95308E-21
6.87277E-05 4.45192E-21
7.23925E-05 4.01251E-21
7.61524E-05 3.62488E-21
9.21439E-05 2.47508E-21
1.09658E-04 1.74728E-21
1.28695E-04 1.26824E-21
1.49255E-04 9.42666E-22
1.71338E-04 7.15167E-22
1.94942E-04 5.52294E-22
2.20070E-04 4.33266E-22
2.46720E-04 3.44617E-22
2.74892E-04 2.77522E-22
3.04586E-04 2.25981E-22
3.35803E-04 1.85861E-22
3.68542E-04 1.54260E-22
4.02802E-04 1.29091E-22
4.38585E-04 1.08852E-22
4.75889E-04 9.24237E-23
5.14715E-04 7.89791E-23
5.55063E-04 6.78909E-23
5.96931E-04 5.86797E-23
6.40321E-04 5.09782E-23
6.85233E-04 4.44980E-23
7.31665E-04 3.90146E-23
7.79618E-04 3.43494E-23
8.29092E-04 3.03602E-23
8.80086E-04 2.69331E-23
9.32601E-04 2.39753E-23
9.86636E-04 2.14122E-23
1.04219E-03 1.91820E-23
1.09927E-03 1.72343E-23
1.15786E-03 1.55273E-23
1.21797E-03 1.40260E-23
1.27961E-03 1.27016E-23
1.34276E-03 1.15296E-23
1.40743E-03 1.04894E-23
1.47362E-03 9.56367E-24
1.54133E-03 8.73760E-24
1.61056E-03 7.99865E-24
1.68131E-03 7.33597E-24
1.75357E-03 6.74037E-24
1.82735E-03 6.20383E-24
1.90265E-03 5.71949E-24
1.97947E-03 5.28138E-24
2.05780E-03 4.88429E-24
2.13765E-03 4.52373E-24
2.21902E-03 4.19571E-24
2.30190E-03 3.89681E-24
2.38630E-03 3.62396E-24
2.47222E-03 3.37449E-24
2.55965E-03 3.14606E-24
2.64859E-03 2.93655E-24
2.73905E-03 2.74413E-24
2.83103E-03 2.56715E-24
2.92452E-03 2.40415E-24
3.01952E-03 2.25384E-24
3.11604E-03 2.11503E-24
3.21407E-03 1.98671E-24
3.31362E-03 1.86792E-24
3.41468E-03 1.75783E-24
3.51725E-03 1.65570E-24
3.62133E-03 1.56084E-24
3.72692E-03 1.47265E-24
3.83403E-03 1.39056E-24
3.94265E-03 1.31408E-24
4.05278E-03 1.24276E-24
4.16442E-03 1.17618E-24
4.27757E-03 1.11398E-24
4.39223E-03 1.05581E-24
4.50840E-03 1.00136E-24
4.62608E-03 9.50361E-25
4.74527E-03 9.02542E-25
4.86597E-03 8.57673E-25
4.98817E-03 8.15539E-25
5.11188E-03 7.75943E-25
5.23711E-03 7.38703E-25
5.36383E-03 7.03654E-25
5.49207E-03 6.70644E-25
5.62181E-03 6.39532E-25
5.75306E-03 6.10190E-25
5.88581E-03 5.82497E-25
6.02007E-03 5.56345E-25
6.15583E-03 5.31631E-25
6.29310E-03 5.08264E-25
6.43187E-03 4.86155E-25
6.57214E-03 4.65224E-25
6.71392E-03 4.45397E-25
6.85720E-03 4.26605E-25
7.00198E-03 4.08785E-25
7.14827E-03 3.91877E-25
7.29605E-03 3.75825E-25
7.44534E-03 3.60578E-25
7.59612E-03 3.46089E-25
7.97965E-03 3.12895E-25
8.37255E-03 2.83547E-25
8.77480E-03 2.57524E-25
9.18641E-03 2.34387E-25
9.60736E-03 2.13760E-25
1.00376E-02 1.95326E-25
1.04773E-02 1.78812E-25
1.09262E-02 1.63985E-25
1.13844E-02 1.50641E-25
1.18520E-02 1.38609E-25
1.23288E-02 1.27736E-25
1.28150E-02 1.17893E-25
1.33104E-02 1.08964E-25
1.38150E-02 1.00852E-25
1.43290E-02 9.34670E-26
1.48521E-02 8.67342E-26
1.53845E-02 8.05857E-26
1.59262E-02 7.49622E-26
1.64770E-02 6.98112E-26
1.70371E-02 6.50862E-26
1.76063E-02 6.07459E-26
1.81848E-02 5.67537E-26
1.87724E-02 5.30768E-26
1.93692E-02 4.96862E-26
1.99751E-02 4.65556E-26
2.05901E-02 4.36619E-26
2.12143E-02 4.09839E-26
2.18476E-02 3.85028E-26
2.24900E-02 3.62018E-26
2.31415E-02 3.40654E-26
2.38021E-02 3.20800E-26
2.44717E-02 3.02331E-26
2.51504E-02 2.85133E-26
2.58382E-02 2.69104E-26
2.65349E-02 2.54151E-26
2.72407E-02 2.40190E-26
2.79555E-02 2.27144E-26
2.86793E-02 2.14942E-26
2.94120E-02 2.03522E-26
3.01537E-02 1.92823E-26
3.09043E-02 1.82794E-26
3.16639E-02 1.73385E-26
3.24324E-02 1.64552E-26
3.32098E-02 1.56253E-26
3.39961E-02 1.48450E-26
3.47912E-02 1.41110E-26
3.55952E-02 1.34199E-26
3.64081E-02 1.27690E-26
3.72297E-02 1.21553E-26
3.80602E-02 1.15766E-26
3.88995E-02 1.10304E-26
3.97476E-02 1.05146E-26
4.06044E-02 1.00273E-26
4.14700E-02 9.56657E-27
4.23443E-02 9.13080E-27
4.32273E-02 8.71839E-27
4.41190E-02 8.32788E-27
4.50194E-02 7.95793E-27
4.59284E-02 7.60727E-27
4.68461E-02 7.27474E-27
4.87074E-02 6.65979E-27
5.06030E-02 6.10523E-27
5.25328E-02 5.60424E-27
5.44967E-02 5.15087E-27
5.64946E-02 4.73993E-27
5.85262E-02 4.36685E-27
6.05914E-02 4.02764E-27
6.26901E-02 3.71877E-27
6.48222E-02 3.43714E-27
6.69873E-02 3.17999E-27
6.91854E-02 2.94489E-27
7.14163E-02 2.72968E-27
7.36799E-02 2.53245E-27
7.59760E-02 2.35147E-27
7.83043E-02 2.18522E-27
8.06647E-02 2.03234E-27
8.30571E-02 1.89160E-27
8.54812E-02 1.76192E-27
8.79369E-02 1.64229E-27
9.04240E-02 1.53184E-27
9.29422E-02 1.42978E-27
9.54915E-02 1.33537E-27
9.80716E-02 1.24798E-27
1.00682E-01 1.16701E-27
1.03323E-01 1.09192E-27
1.05995E-01 1.02225E-27
1.08696E-01 9.57542E-28
1.11427E-01 8.97406E-28
1.14188E-01 8.41479E-28
1.16978E-01 7.89429E-28
1.19797E-01 7.40955E-28
1.22645E-01 6.95782E-28
1.25522E-01 6.53660E-28
1.28428E-01 6.14357E-28
1.31361E-01 5.77663E-28
1.34323E-01 5.43386E-28
1.37313E-01 5.11347E-28
1.40330E-01 4.81386E-28
1.43375E-01 4.53351E-28
1.46447E-01 4.27107E-28
1.49545E-01 4.02525E-28
1.52671E-01 3.79490E-28
1.55823E-01 3.57894E-28
1.59001E-01 3.37638E-28
1.62205E-01 3.18629E-28
1.65435E-01 3.00785E-28
1.68690E-01 2.84025E-28
1.71970E-01 2.68278E-28
1.75276E-01 2.53477E-28
1.78606E-01 2.39559E-28
1.81961E-01 2.26466E-28
1.85340E-01 2.14146E-28
1.88743E-01 2.02547E-28
1.92169E-01 1.91625E-28
1.95619E-01 1.81336E-28
1.99092E-01 1.71641E-28
2.02589E-01 1.62501E-28
2.06107E-01 1.53883E-28
2.09649E-01 1.45754E-28
2.13212E-01 1.38084E-28
2.16797E-01 1.30845E-28
2.20404E-01 1.24011E-28
2.24032E-01 1.17557E-28
2.27680E-01 1.11461E-28
2.31350E-01 1.05701E-28
2.35040E-01 1.00257E-28
2.38751E-01 9.51109E-29
2.42481E-01 9.02447E-29
2.46231E-01 8.56424E-29
2.50000E-01 8.12884E-29
2.53788E-01 7.71685E-29
2.57595E-01 7.32692E-29
2.61421E-01 6.95779E-29
2.65264E-01 6.60827E-29
2.69126E-01 6.27725E-29
2.73005E-01 5.96369E-29
2.76901E-01 5.66660E-29
2.80814E-01 5.38508E-29
2.84744E-01 5.11824E-29
2.88691E-01 4.86528E-29
2.92653E-01 4.62544E-29
2.96632E-01 4.39798E-29
3.00625E-01 4.18224E-29
3.04634E-01 3.97757E-29
3.08658E-01 3.78338E-29
3.12697E-01 3.59909E-29
3.16749E-01 3.42418E-29
3.20816E-01 3.25814E-29
3.24896E-01 3.10050E-29
3.28990E-01 2.95081E-29
3.33097E-01 2.80865E-29
3.37216E-01 2.67362E-29
3.41348E-01 2.54535E-29
3.45492E-01 2.42347E-29
3.49647E-01 2.30766E-29
3.53814E-01 2.19760E-29
3.57992E-01 2.09299E-29
3.62181E-01 1.99354E-29
3.66381E-01 1.89900E-29
3.70590E-01 1.80910E-29
3.74810E-01 1.72362E-29
3.79039E-01 1.64231E-29
3.83277E-01 1.56498E-29
3.87524E-01 1.49141E-29
3.91780E-01 1.42143E-29
3.96044E-01 1.35483E-29
4.00316E-01 1.29146E-29
4.04596E-01 1.23116E-29
4.08882E-01 1.17376E-29
4.13176E-01 1.11912E-29
4.17476E-01 1.06710E-29
4.21783E-01 1.01758E-29
4.26095E-01 9.70433E-30
4.30413E-01 9.25534E-30
4.34737E-01 8.82774E-30
4.39065E-01 8.42049E-30
4.43398E-01 8.03259E-30
4.47736E-01 7.66307E-30
4.52077E-01 7.31105E-30
4.56422E-01 6.97566E-30
4.60770E-01 6.65609E-30
4.65122E-01 6.35157E-30
4.69476E-01 6.06136E-30
4.73832E-01 5.78478E-30
4.78190E-01 5.52116E-30
4.82550E-01 5.26988E-30
4.86912E-01 5.03034E-30
4.91274E-01 4.80197E-30
4.95637E-01 4.58424E-30
5.00000E-01 4.37663E-30
5.04363E-01 4.17867E-30
5.08726E-01 3.98989E-30
5.13088E-01 3.80984E-30
5.17450E-01 3.63813E-30
5.21810E-01 3.47434E-30
5.26168E-01 3.31811E-30
5.30524E-01 3.16907E-30
5.34878E-01 3.02689E-30
5.39230E-01 2.89124E-30
5.43578E-01 2.76181E-30
5.47923E-01 2.63831E-30
5.52264E-01 2.52045E-30
5.56602E-01 2.40799E-30
5.60935E-01 2.30065E-30
5.65263E-01 2.19821E-30
5.69587E-01 2.10043E-30
5.73905E-01 2.00709E-30
5.78217E-01 1.91799E-30
5.82524E-01 1.83294E-30
5.86824E-01 1.75173E-30
5.91118E-01 1.67420E-30
5.95404E-01 1.60018E-30
5.99684E-01 1.52949E-30
6.03956E-01 1.46199E-30
6.08220E-01 1.39753E-30
6.12476E-01 1.33597E-30
6.16723E-01 1.27718E-30
6.20961E-01 1.22102E-30
6.25190E-01 1.16738E-30
6.29410E-01 1.11615E-30
6.33619E-01 1.06720E-30
6.37819E-01 1.02045E-30
6.42008E-01 9.75775E-31
6.46186E-01 9.33096E-31
6.50353E-01 8.92317E-31
6.54508E-01 8.53352E-31
6.58652E-01 8.16119E-31
6.62784E-01 7.80538E-31
6.66903E-01 7.46535E-31
6.71010E-01 7.14039E-31
6.75104E-01 6.82980E-31
6.79184E-01 6.53295E-31
6.83251E-01 6.24920E-31
6.87303E-01 5.97797E-31
6.91342E-01 5.71869E-31
6.95366E-01 5.47082E-31
6.99375E-01 5.23386E-31
7.03368E-01 5.00730E-31
7.07347E-01 4.79069E-31
7.11309E-01 4.58358E-31
7.15256E-01 4.38553E-31
7.19186E-01 4.19616E-31
7.23099E-01 4.01505E-31
7.26995E-01 3.84186E-31
7.30874E-01 3.67622E-31
7.34736E-01 3.51781E-31
7.38579E-01 3.36628E-31
7.42405E-01 3.22135E-31
7.46212E-01 3.08272E-31
7.50000E-01 2.95010E-31
7.53769E-01 2.82324E-31
7.57519E-01 2.70187E-31
7.61249E-01 2.58575E-31
7.64960E-01 2.47466E-31
7.68650E-01 2.36836E-31
7.72320E-01 2.26665E-31
7.75968E-01 2.16933E-31
7.79596E-01 2.07619E-31
7.83203E-01 1.98707E-31
7.86788E-01 1.90177E-31
7.90351E-01 1.82015E-31
7.93893E-01 1.74202E-31
7.97411E-01 1.66724E-31
8.00908E-01 1.59566E-31
8.04381E-01 1.52715E-31
8.07831E-01 1.46157E-31
8.11257E-01 1.39878E-31
8.14660E-01 1.33868E-31
8.18039E-01 1.28114E-31
8.21394E-01 1.22605E-31
8.24724E-01 1.17330E-31
8.28030E-01 1.12279E-31
8.31310E-01 1.07443E-31
8.34565E-01 1.02813E-31
8.37795E-01 9.83783E-32
8.40999E-01 9.41315E-32
8.44177E-01 9.00648E-32
8.47329E-01 8.61698E-32
8.50455E-01 8.24396E-32
8.53553E-01 7.88666E-32
8.56625E-01 7.54445E-32
8.59670E-01 7.21664E-32
8.62687E-01 6.90266E-32
8.65677E-01 6.60187E-32
8.68639E-01 6.31373E-32
8.71572E-01 6.03771E-32
8.74478E-01 5.77326E-32
8.77355E-01 5.51990E-32
8.80203E-01 5.27716E-32
8.83022E-01 5.04459E-32
8.85812E-01 4.82176E-32
8.88573E-01 4.60824E-32
8.91304E-01 4.40365E-32
8.94005E-01 4.20761E-32
8.96677E-01 4.01974E-32
8.99318E-01 3.83972E-32
9.01928E-01 3.66721E-32
9.04508E-01 3.50188E-32
9.07058E-01 3.34344E-32
9.09576E-01 3.19160E-32
9.12063E-01 3.04607E-32
9.14519E-01 2.90661E-32
9.16943E-01 2.77294E-32
9.19335E-01 2.64484E-32
9.21696E-01 2.52206E-32
9.24024E-01 2.40439E-32
9.26320E-01 2.29161E-32
9.28584E-01 2.18352E-32
9.30815E-01 2.07992E-32
9.33013E-01 1.98064E-32
9.35178E-01 1.88548E-32
9.37310E-01 1.79429E-32
9.39409E-01 1.70688E-32
9.41474E-01 1.62314E-32
9.43505E-01 1.54287E-32
9.45503E-01 1.46596E-32
9.47467E-01 1.39226E-32
9.49397E-01 1.32165E-32
9.51293E-01 1.25399E-32
9.53154E-01 1.18917E-32
9.54981E-01 1.12709E-32
9.56773E-01 1.06761E-32
9.58530E-01 1.01065E-32
9.60252E-01 9.56098E-33
9.61940E-01 9.03872E-33
9.63592E-01 8.53859E-33
9.65209E-01 8.05992E-33
9.66790E-01 7.60178E-33
9.68336E-01 7.16337E-33
9.69846E-01 6.74396E-33
9.71321E-01 6.34280E-33
9.72759E-01 5.95924E-33
9.74162E-01 5.59256E-33
9.75528E-01 5.24215E-33
9.76858E-01 4.90742E-33
9.78152E-01 4.58779E-33
9.79410E-01 4.28269E-33
9.80631E-01 3.99163E-33
9.81815E-01 3.71404E-33
9.82963E-01 3.44955E-33
9.84074E-01 3.19767E-33
9.85148E-01 2.95793E-33
9.86185E-01 2.72994E-33
9.87185E-01 2.51329E-33
9.88148E-01 2.30768E-33
9.89074E-01 2.11272E-33
9.89962E-01 1.92805E-33
9.90814E-01 1.75343E-33
9.91627E-01 1.58845E-33
9.92404E-01 1.43296E-33
9.93143E-01 1.28664E-33
9.93844E-01 1.14921E-33
9.94508E-01 1.02048E-33
9.95134E-01 9.00229E-34
9.95722E-01 7.88231E-34
9.96273E-01 6.84298E-34
9.96786E-01 5.88313E-34
9.97261E-01 5.00047E-34
9.97698E-01 4.19380E-34
9.98097E-01 3.46171E-34
9.98459E-01 2.80295E-34
9.98782E-01 2.21663E-34
9.99067E-01 1.70152E-34
9.99315E-01 1.25678E-34
9.99524E-01 8.81662E-35
9.99695E-01 5.75521E-35
9.99829E-01 3.38177E-35
9.99924E-01 1.68778E-35
9.99981E-01 6.73380E-36
1.00000E+00 3.34709E-36
