 #
 # Subroutine ELSEPA. Elastic scattering of electrons and positrons
 #                    by neutral atoms and positive ions
 #
 # Projectile: positron
 # Kinetic energy = 3.00000E+07 eV = 1.10248E+06 a.u.
 #
 # WARNING: High-energy factorization with free-atom DF screening.
 #          Absorption, polarization and exchange corrections are
 #          switched off.
 #          Phase shifts are calculated for the bare nucleus.
 #          Scattering amplitudes are not evaluated.
 #
 # Element:  O,  Z =   8,  atomic weight = 1.59994E+01 g/mol
 #
 # Nuclear model: Fermi distribution
 #                Average radius = 2.69620E-13 cm
 #                Skin thickness = 5.46000E-14 cm
 #
 # Number of electrons =  8
 #
 # Total elastic cross section = 2.73834E-19 cm**2 = 9.77879E-03 a0**2
 # 1st transport cross section = 1.36692E-25 cm**2 = 4.88134E-09 a0**2
 # 2nd transport cross section = 3.98320E-25 cm**2 = 1.42243E-08 a0**2
 #
 #
 # Differential cross section:                       MU=(1-COS(THETA))/2
 #
 #  THETA        MU          DCS          DCS        Sherman      error
 #  (deg)                 (cm**2/sr)   (a0**2/sr)    function
 #----------------------------------------------------------------------
0.00000E+00 1.40454E-12
7.61557E-13 1.40441E-12
1.18994E-12 1.40434E-12
1.71346E-12 1.40425E-12
2.33225E-12 1.40415E-12
3.04617E-12 1.40403E-12
3.85530E-12 1.40390E-12
4.75964E-12 1.40374E-12
5.75917E-12 1.40358E-12
6.85391E-12 1.40340E-12
8.04379E-12 1.40320E-12
9.32893E-12 1.40298E-12
1.07092E-11 1.40275E-12
1.21847E-11 1.40251E-12
1.37554E-11 1.40225E-12
1.54213E-11 1.40197E-12
1.71823E-11 1.40168E-12
1.90386E-11 1.40137E-12
2.09900E-11 1.40105E-12
2.30367E-11 1.40071E-12
2.51785E-11 1.40036E-12
2.74156E-11 1.39999E-12
2.97478E-11 1.39960E-12
3.21752E-11 1.39920E-12
3.46979E-11 1.39878E-12
3.73157E-11 1.39835E-12
4.00286E-11 1.39790E-12
4.28368E-11 1.39744E-12
4.57402E-11 1.39696E-12
4.87388E-11 1.39647E-12
5.18325E-11 1.39596E-12
5.50215E-11 1.39544E-12
5.83057E-11 1.39490E-12
6.16850E-11 1.39434E-12
6.51595E-11 1.39377E-12
6.87293E-11 1.39319E-12
7.23943E-11 1.39258E-12
7.61544E-11 1.39197E-12
1.18991E-10 1.38498E-12
1.71347E-10 1.37652E-12
2.33223E-10 1.36661E-12
3.04617E-10 1.35531E-12
3.85531E-10 1.34266E-12
4.75965E-10 1.32873E-12
5.75917E-10 1.31358E-12
6.85389E-10 1.29728E-12
8.04380E-10 1.27990E-12
9.32891E-10 1.26151E-12
1.07092E-09 1.24216E-12
1.21847E-09 1.22196E-12
1.37554E-09 1.20098E-12
1.54213E-09 1.17930E-12
1.71823E-09 1.15615E-12
1.90386E-09 1.13162E-12
2.09900E-09 1.10778E-12
2.30367E-09 1.08467E-12
2.51785E-09 1.06234E-12
2.74156E-09 1.03712E-12
2.97478E-09 1.01133E-12
3.21752E-09 9.86628E-13
3.46978E-09 9.63013E-13
3.73156E-09 9.40291E-13
4.00286E-09 9.13644E-13
4.28368E-09 8.88324E-13
4.57402E-09 8.64282E-13
4.87388E-09 8.41464E-13
5.18326E-09 8.18058E-13
5.50215E-09 7.93013E-13
5.83057E-09 7.69332E-13
6.16850E-09 7.46941E-13
6.51596E-09 7.25770E-13
6.87293E-09 7.02924E-13
7.23942E-09 6.80252E-13
7.61544E-09 6.58862E-13
1.18991E-08 4.72082E-13
1.71347E-08 3.32446E-13
2.33223E-08 2.32910E-13
3.04617E-08 1.63579E-13
3.85531E-08 1.16012E-13
4.75965E-08 8.33515E-14
5.75917E-08 6.07897E-14
6.85389E-08 4.50280E-14
8.04380E-08 3.38792E-14
9.32891E-08 2.58886E-14
1.07092E-07 2.00806E-14
1.21847E-07 1.57984E-14
1.37554E-07 1.25948E-14
1.54213E-07 1.01654E-14
1.71823E-07 8.29864E-15
1.90386E-07 6.84680E-15
2.09900E-07 5.70385E-15
2.30367E-07 4.79376E-15
2.51785E-07 4.06159E-15
2.74156E-07 3.46715E-15
2.97478E-07 2.97957E-15
3.21752E-07 2.57701E-15
3.46978E-07 2.24114E-15
3.73156E-07 1.95987E-15
4.00286E-07 1.72174E-15
4.28368E-07 1.51977E-15
4.57402E-07 1.34673E-15
4.87388E-07 1.19824E-15
5.18325E-07 1.06981E-15
5.50215E-07 9.58426E-16
5.83057E-07 8.61296E-16
6.16850E-07 7.76250E-16
6.51596E-07 7.01592E-16
6.87293E-07 6.35660E-16
7.23942E-07 5.77448E-16
7.61543E-07 5.25636E-16
1.18991E-06 2.28110E-16
1.71347E-06 1.13966E-16
2.33223E-06 6.28582E-17
3.04617E-06 3.73455E-17
3.85531E-06 2.35149E-17
4.75964E-06 1.55147E-17
5.75916E-06 1.06367E-17
6.85388E-06 7.52953E-18
8.04378E-06 5.47650E-18
9.32888E-06 4.07684E-18
1.07092E-05 3.09653E-18
1.21846E-05 2.39364E-18
1.37553E-05 1.87916E-18
1.54212E-05 1.49567E-18
1.71822E-05 1.20514E-18
1.90385E-05 9.82072E-19
2.09899E-05 8.08062E-19
2.30365E-05 6.70865E-19
2.51783E-05 5.61558E-19
2.74153E-05 4.73636E-19
2.97475E-05 4.02285E-19
3.21749E-05 3.43897E-19
3.46974E-05 2.95740E-19
3.73152E-05 2.55726E-19
4.00281E-05 2.22252E-19
4.28362E-05 1.94071E-19
4.57395E-05 1.70210E-19
4.87380E-05 1.49900E-19
5.18317E-05 1.32529E-19
5.50205E-05 1.17603E-19
5.83045E-05 1.04724E-19
6.16838E-05 9.35629E-20
6.51582E-05 8.38511E-20
6.87277E-05 7.53673E-20
7.23925E-05 6.79288E-20
7.61524E-05 6.13835E-20
9.21439E-05 4.19160E-20
1.09658E-04 2.95928E-20
1.28695E-04 2.14813E-20
1.49255E-04 1.59681E-20
1.71338E-04 1.21155E-20
1.94942E-04 9.35718E-21
2.20070E-04 7.34127E-21
2.46720E-04 5.83981E-21
2.74892E-04 4.70335E-21
3.04586E-04 3.83029E-21
3.35803E-04 3.15064E-21
3.68542E-04 2.61529E-21
4.02802E-04 2.18888E-21
4.38585E-04 1.84595E-21
4.75889E-04 1.56758E-21
5.14715E-04 1.33975E-21
5.55063E-04 1.15183E-21
5.96931E-04 9.95718E-22
6.40321E-04 8.65178E-22
6.85233E-04 7.55329E-22
7.31665E-04 6.62371E-22
7.79618E-04 5.83275E-22
8.29092E-04 5.15634E-22
8.80086E-04 4.57518E-22
9.32601E-04 4.07356E-22
9.86636E-04 3.63884E-22
1.04219E-03 3.26054E-22
1.09927E-03 2.93012E-22
1.15786E-03 2.64050E-22
1.21797E-03 2.38576E-22
1.27961E-03 2.16100E-22
1.34276E-03 1.96207E-22
1.40743E-03 1.78551E-22
1.47362E-03 1.62835E-22
1.54133E-03 1.48809E-22
1.61056E-03 1.36261E-22
1.68131E-03 1.25006E-22
1.75357E-03 1.14889E-22
1.82735E-03 1.05774E-22
1.90265E-03 9.75450E-23
1.97947E-03 9.01001E-23
2.05780E-03 8.33513E-23
2.13765E-03 7.72223E-23
2.21902E-03 7.16458E-23
2.30190E-03 6.65632E-23
2.38630E-03 6.19230E-23
2.47222E-03 5.76798E-23
2.55965E-03 5.37935E-23
2.64859E-03 5.02287E-23
2.73905E-03 4.69541E-23
2.83103E-03 4.39417E-23
2.92452E-03 4.11668E-23
3.01952E-03 3.86073E-23
3.11604E-03 3.62433E-23
3.21407E-03 3.40574E-23
3.31362E-03 3.20336E-23
3.41468E-03 3.01577E-23
3.51725E-03 2.84170E-23
3.62133E-03 2.67999E-23
3.72692E-03 2.52961E-23
3.83403E-03 2.38961E-23
3.94265E-03 2.25915E-23
4.05278E-03 2.13746E-23
4.16442E-03 2.02385E-23
4.27757E-03 1.91767E-23
4.39223E-03 1.81835E-23
4.50840E-03 1.72537E-23
4.62608E-03 1.63825E-23
4.74527E-03 1.55655E-23
4.86597E-03 1.47988E-23
4.98817E-03 1.40785E-23
5.11188E-03 1.34015E-23
5.23711E-03 1.27647E-23
5.36383E-03 1.21651E-23
5.49207E-03 1.16003E-23
5.62181E-03 1.10678E-23
5.75306E-03 1.05655E-23
5.88581E-03 1.00913E-23
6.02007E-03 9.64337E-24
6.15583E-03 9.21995E-24
6.29310E-03 8.81948E-24
6.43187E-03 8.44047E-24
6.57214E-03 8.08157E-24
6.71392E-03 7.74150E-24
6.85720E-03 7.41909E-24
7.00198E-03 7.11326E-24
7.14827E-03 6.82299E-24
7.29605E-03 6.54734E-24
7.44534E-03 6.28545E-24
7.59612E-03 6.03649E-24
7.97965E-03 5.46583E-24
8.37255E-03 4.96089E-24
8.77480E-03 4.51281E-24
9.18641E-03 4.11407E-24
9.60736E-03 3.75831E-24
1.00376E-02 3.44009E-24
1.04773E-02 3.15476E-24
1.09262E-02 2.89833E-24
1.13844E-02 2.66736E-24
1.18520E-02 2.45887E-24
1.23288E-02 2.27031E-24
1.28150E-02 2.09942E-24
1.33104E-02 1.94427E-24
1.38150E-02 1.80313E-24
1.43290E-02 1.67454E-24
1.48521E-02 1.55716E-24
1.53845E-02 1.44986E-24
1.59262E-02 1.35160E-24
1.64770E-02 1.26150E-24
1.70371E-02 1.17876E-24
1.76063E-02 1.10266E-24
1.81848E-02 1.03258E-24
1.87724E-02 9.67954E-25
1.93692E-02 9.08286E-25
1.99751E-02 8.53126E-25
2.05901E-02 8.02071E-25
2.12143E-02 7.54761E-25
2.18476E-02 7.10871E-25
2.24900E-02 6.70111E-25
2.31415E-02 6.32216E-25
2.38021E-02 5.96948E-25
2.44717E-02 5.64093E-25
2.51504E-02 5.33455E-25
2.58382E-02 5.04858E-25
2.65349E-02 4.78141E-25
2.72407E-02 4.53158E-25
2.79555E-02 4.29776E-25
2.86793E-02 4.07874E-25
2.94120E-02 3.87341E-25
3.01537E-02 3.68075E-25
3.09043E-02 3.49986E-25
3.16639E-02 3.32986E-25
3.24324E-02 3.17000E-25
3.32098E-02 3.01955E-25
3.39961E-02 2.87785E-25
3.47912E-02 2.74432E-25
3.55952E-02 2.61838E-25
3.64081E-02 2.49953E-25
3.72297E-02 2.38730E-25
3.80602E-02 2.28125E-25
3.88995E-02 2.18098E-25
3.97476E-02 2.08611E-25
4.06044E-02 1.99630E-25
4.14700E-02 1.91124E-25
4.23443E-02 1.83062E-25
4.32273E-02 1.75417E-25
4.41190E-02 1.68163E-25
4.50194E-02 1.61277E-25
4.59284E-02 1.54737E-25
4.68461E-02 1.48522E-25
4.87074E-02 1.36992E-25
5.06030E-02 1.26550E-25
5.25328E-02 1.17074E-25
5.44967E-02 1.08460E-25
5.64946E-02 1.00616E-25
5.85262E-02 9.34610E-26
6.05914E-02 8.69240E-26
6.26901E-02 8.09422E-26
6.48222E-02 7.54603E-26
6.69873E-02 7.04293E-26
6.91854E-02 6.58054E-26
7.14163E-02 6.15501E-26
7.36799E-02 5.76288E-26
7.59760E-02 5.40106E-26
7.83043E-02 5.06681E-26
8.06647E-02 4.75765E-26
8.30571E-02 4.47137E-26
8.54812E-02 4.20598E-26
8.79369E-02 3.95968E-26
9.04240E-02 3.73087E-26
9.29422E-02 3.51808E-26
9.54915E-02 3.31999E-26
9.80716E-02 3.13541E-26
1.00682E-01 2.96325E-26
1.03323E-01 2.80254E-26
1.05995E-01 2.65237E-26
1.08696E-01 2.51194E-26
1.11427E-01 2.38050E-26
1.14188E-01 2.25737E-26
1.16978E-01 2.14194E-26
1.19797E-01 2.03363E-26
1.22645E-01 1.93195E-26
1.25522E-01 1.83639E-26
1.28428E-01 1.74654E-26
1.31361E-01 1.66200E-26
1.34323E-01 1.58239E-26
1.37313E-01 1.50737E-26
1.40330E-01 1.43664E-26
1.43375E-01 1.36990E-26
1.46447E-01 1.30689E-26
1.49545E-01 1.24738E-26
1.52671E-01 1.19112E-26
1.55823E-01 1.13791E-26
1.59001E-01 1.08755E-26
1.62205E-01 1.03987E-26
1.65435E-01 9.94700E-27
1.68690E-01 9.51883E-27
1.71970E-01 9.11275E-27
1.75276E-01 8.72742E-27
1.78606E-01 8.36161E-27
1.81961E-01 8.01414E-27
1.85340E-01 7.68395E-27
1.88743E-01 7.37002E-27
1.92169E-01 7.07142E-27
1.95619E-01 6.78726E-27
1.99092E-01 6.51672E-27
2.02589E-01 6.25905E-27
2.06107E-01 6.01352E-27
2.09649E-01 5.77946E-27
2.13212E-01 5.55624E-27
2.16797E-01 5.34328E-27
2.20404E-01 5.14002E-27
2.24032E-01 4.94595E-27
2.27680E-01 4.76057E-27
2.31350E-01 4.58344E-27
2.35040E-01 4.41412E-27
2.38751E-01 4.25221E-27
2.42481E-01 4.09733E-27
2.46231E-01 3.94912E-27
2.50000E-01 3.80725E-27
2.53788E-01 3.67140E-27
2.57595E-01 3.54127E-27
2.61421E-01 3.41658E-27
2.65264E-01 3.29706E-27
2.69126E-01 3.18246E-27
2.73005E-01 3.07255E-27
2.76901E-01 2.96710E-27
2.80814E-01 2.86590E-27
2.84744E-01 2.76875E-27
2.88691E-01 2.67547E-27
2.92653E-01 2.58586E-27
2.96632E-01 2.49977E-27
3.00625E-01 2.41703E-27
3.04634E-01 2.33748E-27
3.08658E-01 2.26100E-27
3.12697E-01 2.18743E-27
3.16749E-01 2.11665E-27
3.20816E-01 2.04853E-27
3.24896E-01 1.98297E-27
3.28990E-01 1.91984E-27
3.33097E-01 1.85904E-27
3.37216E-01 1.80048E-27
3.41348E-01 1.74405E-27
3.45492E-01 1.68967E-27
3.49647E-01 1.63725E-27
3.53814E-01 1.58670E-27
3.57992E-01 1.53795E-27
3.62181E-01 1.49093E-27
3.66381E-01 1.44557E-27
3.70590E-01 1.40179E-27
3.74810E-01 1.35953E-27
3.79039E-01 1.31873E-27
3.83277E-01 1.27934E-27
3.87524E-01 1.24129E-27
3.91780E-01 1.20453E-27
3.96044E-01 1.16902E-27
4.00316E-01 1.13470E-27
4.04596E-01 1.10153E-27
4.08882E-01 1.06946E-27
4.13176E-01 1.03844E-27
4.17476E-01 1.00845E-27
4.21783E-01 9.79444E-28
4.26095E-01 9.51378E-28
4.30413E-01 9.24220E-28
4.34737E-01 8.97937E-28
4.39065E-01 8.72495E-28
4.43398E-01 8.47864E-28
4.47736E-01 8.24014E-28
4.52077E-01 8.00917E-28
4.56422E-01 7.78544E-28
4.60770E-01 7.56870E-28
4.65122E-01 7.35870E-28
4.69476E-01 7.15519E-28
4.73832E-01 6.95795E-28
4.78190E-01 6.76675E-28
4.82550E-01 6.58138E-28
4.86912E-01 6.40163E-28
4.91274E-01 6.22731E-28
4.95637E-01 6.05824E-28
5.00000E-01 5.89422E-28
5.04363E-01 5.73509E-28
5.08726E-01 5.58067E-28
5.13088E-01 5.43082E-28
5.17450E-01 5.28537E-28
5.21810E-01 5.14417E-28
5.26168E-01 5.00709E-28
5.30524E-01 4.87399E-28
5.34878E-01 4.74472E-28
5.39230E-01 4.61918E-28
5.43578E-01 4.49723E-28
5.47923E-01 4.37876E-28
5.52264E-01 4.26365E-28
5.56602E-01 4.15180E-28
5.60935E-01 4.04310E-28
5.65263E-01 3.93744E-28
5.69587E-01 3.83474E-28
5.73905E-01 3.73490E-28
5.78217E-01 3.63782E-28
5.82524E-01 3.54343E-28
5.86824E-01 3.45162E-28
5.91118E-01 3.36234E-28
5.95404E-01 3.27549E-28
5.99684E-01 3.19100E-28
6.03956E-01 3.10880E-28
6.08220E-01 3.02882E-28
6.12476E-01 2.95099E-28
6.16723E-01 2.87524E-28
6.20961E-01 2.80152E-28
6.25190E-01 2.72976E-28
6.29410E-01 2.65989E-28
6.33619E-01 2.59188E-28
6.37819E-01 2.52565E-28
6.42008E-01 2.46116E-28
6.46186E-01 2.39836E-28
6.50353E-01 2.33719E-28
6.54508E-01 2.27761E-28
6.58652E-01 2.21957E-28
6.62784E-01 2.16303E-28
6.66903E-01 2.10794E-28
6.71010E-01 2.05427E-28
6.75104E-01 2.00196E-28
6.79184E-01 1.95099E-28
6.83251E-01 1.90131E-28
6.87303E-01 1.85289E-28
6.91342E-01 1.80569E-28
6.95366E-01 1.75968E-28
6.99375E-01 1.71483E-28
7.03368E-01 1.67109E-28
7.07347E-01 1.62845E-28
7.11309E-01 1.58687E-28
7.15256E-01 1.54632E-28
7.19186E-01 1.50677E-28
7.23099E-01 1.46820E-28
7.26995E-01 1.43058E-28
7.30874E-01 1.39388E-28
7.34736E-01 1.35808E-28
7.38579E-01 1.32315E-28
7.42405E-01 1.28908E-28
7.46212E-01 1.25583E-28
7.50000E-01 1.22339E-28
7.53769E-01 1.19173E-28
7.57519E-01 1.16084E-28
7.61249E-01 1.13069E-28
7.64960E-01 1.10127E-28
7.68650E-01 1.07255E-28
7.72320E-01 1.04452E-28
7.75968E-01 1.01716E-28
7.79596E-01 9.90453E-29
7.83203E-01 9.64379E-29
7.86788E-01 9.38925E-29
7.90351E-01 9.14074E-29
7.93893E-01 8.89812E-29
7.97411E-01 8.66122E-29
8.00908E-01 8.42992E-29
8.04381E-01 8.20406E-29
8.07831E-01 7.98352E-29
8.11257E-01 7.76815E-29
8.14660E-01 7.55784E-29
8.18039E-01 7.35245E-29
8.21394E-01 7.15187E-29
8.24724E-01 6.95598E-29
8.28030E-01 6.76466E-29
8.31310E-01 6.57780E-29
8.34565E-01 6.39530E-29
8.37795E-01 6.21706E-29
8.40999E-01 6.04296E-29
8.44177E-01 5.87291E-29
8.47329E-01 5.70681E-29
8.50455E-01 5.54458E-29
8.53553E-01 5.38612E-29
8.56625E-01 5.23134E-29
8.59670E-01 5.08015E-29
8.62687E-01 4.93248E-29
8.65677E-01 4.78824E-29
8.68639E-01 4.64735E-29
8.71572E-01 4.50974E-29
8.74478E-01 4.37533E-29
8.77355E-01 4.24406E-29
8.80203E-01 4.11584E-29
8.83022E-01 3.99061E-29
8.85812E-01 3.86830E-29
8.88573E-01 3.74886E-29
8.91304E-01 3.63221E-29
8.94005E-01 3.51830E-29
8.96677E-01 3.40707E-29
8.99318E-01 3.29845E-29
9.01928E-01 3.19239E-29
9.04508E-01 3.08885E-29
9.07058E-01 2.98775E-29
9.09576E-01 2.88906E-29
9.12063E-01 2.79272E-29
9.14519E-01 2.69869E-29
9.16943E-01 2.60691E-29
9.19335E-01 2.51734E-29
9.21696E-01 2.42994E-29
9.24024E-01 2.34465E-29
9.26320E-01 2.26145E-29
9.28584E-01 2.18028E-29
9.30815E-01 2.10111E-29
9.33013E-01 2.02390E-29
9.35178E-01 1.94861E-29
9.37310E-01 1.87520E-29
9.39409E-01 1.80364E-29
9.41474E-01 1.73389E-29
9.43505E-01 1.66592E-29
9.45503E-01 1.59970E-29
9.47467E-01 1.53519E-29
9.49397E-01 1.47236E-29
9.51293E-01 1.41119E-29
9.53154E-01 1.35164E-29
9.54981E-01 1.29369E-29
9.56773E-01 1.23731E-29
9.58530E-01 1.18247E-29
9.60252E-01 1.12914E-29
9.61940E-01 1.07731E-29
9.63592E-01 1.02694E-29
9.65209E-01 9.78014E-30
9.66790E-01 9.30509E-30
9.68336E-01 8.84401E-30
9.69846E-01 8.39671E-30
9.71321E-01 7.96296E-30
9.72759E-01 7.54258E-30
9.74162E-01 7.13535E-30
9.75528E-01 6.74111E-30
9.76858E-01 6.35966E-30
9.78152E-01 5.99083E-30
9.79410E-01 5.63446E-30
9.80631E-01 5.29038E-30
9.81815E-01 4.95843E-30
9.82963E-01 4.63847E-30
9.84074E-01 4.33035E-30
9.85148E-01 4.03392E-30
9.86185E-01 3.74906E-30
9.87185E-01 3.47564E-30
9.88148E-01 3.21353E-30
9.89074E-01 2.96262E-30
9.89962E-01 2.72279E-30
9.90814E-01 2.49394E-30
9.91627E-01 2.27595E-30
9.92404E-01 2.06875E-30
9.93143E-01 1.87224E-30
9.93844E-01 1.68631E-30
9.94508E-01 1.51090E-30
9.95134E-01 1.34592E-30
9.95722E-01 1.19130E-30
9.96273E-01 1.04698E-30
9.96786E-01 9.12888E-31
9.97261E-01 7.88963E-31
9.97698E-01 6.75153E-31
9.98097E-01 5.71407E-31
9.98459E-01 4.77678E-31
9.98782E-01 3.93929E-31
9.99067E-01 3.20118E-31
9.99315E-01 2.56214E-31
9.99524E-01 2.02187E-31
9.99695E-01 1.58015E-31
9.99829E-01 1.23684E-31
9.99924E-01 9.91695E-32
9.99981E-01 8.44671E-32
1.00000E+00 7.95635E-32
