 #
 # Subroutine ELSEPA. Elastic scattering of electrons and positrons
 #                    by neutral atoms and positive ions
 #
 # Projectile: positron
 # Kinetic energy = 1.50000E+07 eV = 5.51240E+05 a.u.
 #
 # WARNING: High-energy factorization with free-atom DF screening.
 #          Absorption, polarization and exchange corrections are
 #          switched off.
 #          Phase shifts are calculated for the bare nucleus.
 #          Scattering amplitudes are not evaluated.
 #
 # Element:  O,  Z =   8,  atomic weight = 1.59994E+01 g/mol
 #
 # Nuclear model: Fermi distribution
 #                Average radius = 2.69620E-13 cm
 #                Skin thickness = 5.46000E-14 cm
 #
 # Number of electrons =  8
 #
 # Total elastic cross section = 2.74323E-19 cm**2 = 9.79627E-03 a0**2
 # 1st transport cross section = 4.85639E-25 cm**2 = 1.73425E-08 a0**2
 # 2nd transport cross section = 1.40863E-24 cm**2 = 5.03029E-08 a0**2
 #
 #
 # Differential cross section:                       MU=(1-COS(THETA))/2
 #
 #  THETA        MU          DCS          DCS        Sherman      error
 #  (deg)                 (cm**2/sr)   (a0**2/sr)    function
 #----------------------------------------------------------------------
0.00000E+00 3.62996E-13
7.61557E-13 3.62987E-13
1.18994E-12 3.62982E-13
1.71346E-12 3.62976E-13
2.33225E-12 3.62969E-13
3.04617E-12 3.62961E-13
3.85530E-12 3.62952E-13
4.75964E-12 3.62942E-13
5.75917E-12 3.62931E-13
6.85391E-12 3.62918E-13
8.04379E-12 3.62905E-13
9.32893E-12 3.62891E-13
1.07092E-11 3.62875E-13
1.21847E-11 3.62859E-13
1.37554E-11 3.62841E-13
1.54213E-11 3.62823E-13
1.71823E-11 3.62803E-13
1.90386E-11 3.62783E-13
2.09900E-11 3.62761E-13
2.30367E-11 3.62738E-13
2.51785E-11 3.62714E-13
2.74156E-11 3.62689E-13
2.97478E-11 3.62664E-13
3.21752E-11 3.62637E-13
3.46979E-11 3.62609E-13
3.73157E-11 3.62580E-13
4.00286E-11 3.62550E-13
4.28368E-11 3.62518E-13
4.57402E-11 3.62486E-13
4.87388E-11 3.62453E-13
5.18325E-11 3.62419E-13
5.50215E-11 3.62383E-13
5.83057E-11 3.62347E-13
6.16850E-11 3.62310E-13
6.51595E-11 3.62271E-13
6.87293E-11 3.62232E-13
7.23943E-11 3.62191E-13
7.61544E-11 3.62149E-13
1.18991E-10 3.61676E-13
1.71347E-10 3.61100E-13
2.33223E-10 3.60421E-13
3.04617E-10 3.59640E-13
3.85531E-10 3.58757E-13
4.75965E-10 3.57776E-13
5.75917E-10 3.56695E-13
6.85389E-10 3.55517E-13
8.04380E-10 3.54243E-13
9.32891E-10 3.52874E-13
1.07092E-09 3.51413E-13
1.21847E-09 3.49861E-13
1.37554E-09 3.48220E-13
1.54213E-09 3.46492E-13
1.71823E-09 3.44679E-13
1.90386E-09 3.42784E-13
2.09900E-09 3.40808E-13
2.30367E-09 3.38754E-13
2.51785E-09 3.36621E-13
2.74156E-09 3.34414E-13
2.97478E-09 3.32136E-13
3.21752E-09 3.29789E-13
3.46978E-09 3.27376E-13
3.73156E-09 3.24899E-13
4.00286E-09 3.22362E-13
4.28368E-09 3.19766E-13
4.57402E-09 3.17115E-13
4.87388E-09 3.14410E-13
5.18326E-09 3.11656E-13
5.50215E-09 3.08850E-13
5.83057E-09 3.05997E-13
6.16850E-09 3.03102E-13
6.51596E-09 3.00070E-13
6.87293E-09 2.96812E-13
7.23942E-09 2.93596E-13
7.61544E-09 2.90424E-13
1.18991E-08 2.58728E-13
1.71347E-08 2.26493E-13
2.33223E-08 1.95478E-13
3.04617E-08 1.66833E-13
3.85531E-08 1.41182E-13
4.75965E-08 1.18744E-13
5.75917E-08 9.94624E-14
6.85389E-08 8.29983E-14
8.04380E-08 6.92060E-14
9.32891E-08 5.77337E-14
1.07092E-07 4.82297E-14
1.21847E-07 4.03747E-14
1.37554E-07 3.38890E-14
1.54213E-07 2.85311E-14
1.71823E-07 2.41038E-14
1.90386E-07 2.04404E-14
2.09900E-07 1.74012E-14
2.30367E-07 1.48727E-14
2.51785E-07 1.27603E-14
2.74156E-07 1.09924E-14
2.97478E-07 9.50818E-15
3.21752E-07 8.25790E-15
3.46978E-07 7.20090E-15
3.73156E-07 6.30401E-15
4.00286E-07 5.54007E-15
4.28368E-07 4.88687E-15
4.57402E-07 4.32622E-15
4.87388E-07 3.84320E-15
5.18325E-07 3.42554E-15
5.50215E-07 3.06312E-15
5.83057E-07 2.74761E-15
6.16850E-07 2.47203E-15
6.51596E-07 2.23048E-15
6.87293E-07 2.01805E-15
7.23942E-07 1.83081E-15
7.61543E-07 1.66523E-15
1.18991E-06 7.25103E-16
1.71347E-06 3.69931E-16
2.33223E-06 2.09670E-16
3.04617E-06 1.27903E-16
3.85531E-06 8.24220E-17
4.75964E-06 5.54405E-17
5.75916E-06 3.86082E-17
6.85388E-06 2.76704E-17
8.04378E-06 2.03255E-17
9.32888E-06 1.52503E-17
1.07092E-05 1.16560E-17
1.21846E-05 9.05516E-18
1.37553E-05 7.13753E-18
1.54212E-05 5.69946E-18
1.71822E-05 4.60446E-18
1.90385E-05 3.76025E-18
2.09899E-05 3.09949E-18
2.30365E-05 2.57703E-18
2.51783E-05 2.15977E-18
2.74153E-05 1.82348E-18
2.97475E-05 1.55011E-18
3.21749E-05 1.32609E-18
3.46974E-05 1.14109E-18
3.73152E-05 9.87216E-19
4.00281E-05 8.58375E-19
4.28362E-05 7.49824E-19
4.57395E-05 6.57854E-19
4.87380E-05 5.79529E-19
5.18317E-05 5.12506E-19
5.50205E-05 4.54895E-19
5.83045E-05 4.05160E-19
6.16838E-05 3.62044E-19
6.51582E-05 3.24514E-19
6.87277E-05 2.91722E-19
7.23925E-05 2.62962E-19
7.61524E-05 2.37653E-19
9.21439E-05 1.62338E-19
1.09658E-04 1.14636E-19
1.28695E-04 8.32264E-20
1.49255E-04 6.18729E-20
1.71338E-04 4.69485E-20
1.94942E-04 3.62613E-20
2.20070E-04 2.84497E-20
2.46720E-04 2.26314E-20
2.74892E-04 1.82275E-20
3.04586E-04 1.48441E-20
3.35803E-04 1.22103E-20
3.68542E-04 1.01357E-20
4.02802E-04 8.48320E-21
4.38585E-04 7.15422E-21
4.75889E-04 6.07543E-21
5.14715E-04 5.19248E-21
5.55063E-04 4.46422E-21
5.96931E-04 3.85919E-21
6.40321E-04 3.35328E-21
6.85233E-04 2.92755E-21
7.31665E-04 2.56728E-21
7.79618E-04 2.26074E-21
8.29092E-04 1.99859E-21
8.80086E-04 1.77335E-21
9.32601E-04 1.57894E-21
9.86636E-04 1.41045E-21
1.04219E-03 1.26383E-21
1.09927E-03 1.13577E-21
1.15786E-03 1.02352E-21
1.21797E-03 9.24783E-22
1.27961E-03 8.37671E-22
1.34276E-03 7.60569E-22
1.40743E-03 6.92134E-22
1.47362E-03 6.31220E-22
1.54133E-03 5.76857E-22
1.61056E-03 5.28220E-22
1.68131E-03 4.84597E-22
1.75357E-03 4.45384E-22
1.82735E-03 4.10055E-22
1.90265E-03 3.78157E-22
1.97947E-03 3.49300E-22
2.05780E-03 3.23141E-22
2.13765E-03 2.99384E-22
2.21902E-03 2.77768E-22
2.30190E-03 2.58067E-22
2.38630E-03 2.40080E-22
2.47222E-03 2.23632E-22
2.55965E-03 2.08568E-22
2.64859E-03 1.94749E-22
2.73905E-03 1.82056E-22
2.83103E-03 1.70379E-22
2.92452E-03 1.59622E-22
3.01952E-03 1.49700E-22
3.11604E-03 1.40536E-22
3.21407E-03 1.32062E-22
3.31362E-03 1.24217E-22
3.41468E-03 1.16945E-22
3.51725E-03 1.10197E-22
3.62133E-03 1.03928E-22
3.72692E-03 9.80978E-23
3.83403E-03 9.26704E-23
3.94265E-03 8.76128E-23
4.05278E-03 8.28952E-23
4.16442E-03 7.84904E-23
4.27757E-03 7.43740E-23
4.39223E-03 7.05236E-23
4.50840E-03 6.69188E-23
4.62608E-03 6.35411E-23
4.74527E-03 6.03736E-23
4.86597E-03 5.74007E-23
4.98817E-03 5.46083E-23
5.11188E-03 5.19835E-23
5.23711E-03 4.95142E-23
5.36383E-03 4.71896E-23
5.49207E-03 4.49996E-23
5.62181E-03 4.29350E-23
5.75306E-03 4.09873E-23
5.88581E-03 3.91486E-23
6.02007E-03 3.74117E-23
6.15583E-03 3.57699E-23
6.29310E-03 3.42171E-23
6.43187E-03 3.27474E-23
6.57214E-03 3.13557E-23
6.71392E-03 3.00370E-23
6.85720E-03 2.87868E-23
7.00198E-03 2.76008E-23
7.14827E-03 2.64752E-23
7.29605E-03 2.54063E-23
7.44534E-03 2.43907E-23
7.59612E-03 2.34252E-23
7.97965E-03 2.12121E-23
8.37255E-03 1.92538E-23
8.77480E-03 1.75160E-23
9.18641E-03 1.59695E-23
9.60736E-03 1.45896E-23
1.00376E-02 1.33553E-23
1.04773E-02 1.22485E-23
1.09262E-02 1.12538E-23
1.13844E-02 1.03578E-23
1.18520E-02 9.54901E-24
1.23288E-02 8.81745E-24
1.28150E-02 8.15446E-24
1.33104E-02 7.55246E-24
1.38150E-02 7.00486E-24
1.43290E-02 6.50587E-24
1.48521E-02 6.05040E-24
1.53845E-02 5.63399E-24
1.59262E-02 5.25269E-24
1.64770E-02 4.90300E-24
1.70371E-02 4.58185E-24
1.76063E-02 4.28649E-24
1.81848E-02 4.01446E-24
1.87724E-02 3.76361E-24
1.93692E-02 3.53198E-24
1.99751E-02 3.31784E-24
2.05901E-02 3.11962E-24
2.12143E-02 2.93593E-24
2.18476E-02 2.76552E-24
2.24900E-02 2.60724E-24
2.31415E-02 2.46008E-24
2.38021E-02 2.32312E-24
2.44717E-02 2.19552E-24
2.51504E-02 2.07652E-24
2.58382E-02 1.96544E-24
2.65349E-02 1.86166E-24
2.72407E-02 1.76461E-24
2.79555E-02 1.67377E-24
2.86793E-02 1.58867E-24
2.94120E-02 1.50889E-24
3.01537E-02 1.43403E-24
3.09043E-02 1.36374E-24
3.16639E-02 1.29767E-24
3.24324E-02 1.23554E-24
3.32098E-02 1.17706E-24
3.39961E-02 1.12198E-24
3.47912E-02 1.07007E-24
3.55952E-02 1.02111E-24
3.64081E-02 9.74905E-25
3.72297E-02 9.31267E-25
3.80602E-02 8.90028E-25
3.88995E-02 8.51034E-25
3.97476E-02 8.14138E-25
4.06044E-02 7.79208E-25
4.14700E-02 7.46120E-25
4.23443E-02 7.14758E-25
4.32273E-02 6.85016E-25
4.41190E-02 6.56794E-25
4.50194E-02 6.30001E-25
4.59284E-02 6.04551E-25
4.68461E-02 5.80364E-25
4.87074E-02 5.35487E-25
5.06030E-02 4.94835E-25
5.25328E-02 4.57940E-25
5.44967E-02 4.24395E-25
5.64946E-02 3.93842E-25
5.85262E-02 3.65967E-25
6.05914E-02 3.40495E-25
6.26901E-02 3.17183E-25
6.48222E-02 2.95814E-25
6.69873E-02 2.76198E-25
6.91854E-02 2.58166E-25
7.14163E-02 2.41568E-25
7.36799E-02 2.26269E-25
7.59760E-02 2.12150E-25
7.83043E-02 1.99104E-25
8.06647E-02 1.87034E-25
8.30571E-02 1.75855E-25
8.54812E-02 1.65489E-25
8.79369E-02 1.55867E-25
9.04240E-02 1.46926E-25
9.29422E-02 1.38608E-25
9.54915E-02 1.30863E-25
9.80716E-02 1.23645E-25
1.00682E-01 1.16911E-25
1.03323E-01 1.10622E-25
1.05995E-01 1.04745E-25
1.08696E-01 9.92473E-26
1.11427E-01 9.41001E-26
1.14188E-01 8.92771E-26
1.16978E-01 8.47543E-26
1.19797E-01 8.05097E-26
1.22645E-01 7.65231E-26
1.25522E-01 7.27760E-26
1.28428E-01 6.92514E-26
1.31361E-01 6.59338E-26
1.34323E-01 6.28090E-26
1.37313E-01 5.98635E-26
1.40330E-01 5.70854E-26
1.43375E-01 5.44635E-26
1.46447E-01 5.19873E-26
1.49545E-01 4.96474E-26
1.52671E-01 4.74348E-26
1.55823E-01 4.53415E-26
1.59001E-01 4.33599E-26
1.62205E-01 4.14829E-26
1.65435E-01 3.97040E-26
1.68690E-01 3.80172E-26
1.71970E-01 3.64169E-26
1.75276E-01 3.48979E-26
1.78606E-01 3.34552E-26
1.81961E-01 3.20844E-26
1.85340E-01 3.07812E-26
1.88743E-01 2.95418E-26
1.92169E-01 2.83624E-26
1.95619E-01 2.72397E-26
1.99092E-01 2.61703E-26
2.02589E-01 2.51514E-26
2.06107E-01 2.41801E-26
2.09649E-01 2.32539E-26
2.13212E-01 2.23702E-26
2.16797E-01 2.15267E-26
2.20404E-01 2.07213E-26
2.24032E-01 1.99520E-26
2.27680E-01 1.92169E-26
2.31350E-01 1.85142E-26
2.35040E-01 1.78421E-26
2.38751E-01 1.71992E-26
2.42481E-01 1.65840E-26
2.46231E-01 1.59950E-26
2.50000E-01 1.54309E-26
2.53788E-01 1.48905E-26
2.57595E-01 1.43726E-26
2.61421E-01 1.38762E-26
2.65264E-01 1.34001E-26
2.69126E-01 1.29434E-26
2.73005E-01 1.25052E-26
2.76901E-01 1.20845E-26
2.80814E-01 1.16806E-26
2.84744E-01 1.12927E-26
2.88691E-01 1.09201E-26
2.92653E-01 1.05619E-26
2.96632E-01 1.02177E-26
3.00625E-01 9.88664E-27
3.04634E-01 9.56824E-27
3.08658E-01 9.26192E-27
3.12697E-01 8.96713E-27
3.16749E-01 8.68337E-27
3.20816E-01 8.41015E-27
3.24896E-01 8.14701E-27
3.28990E-01 7.89352E-27
3.33097E-01 7.64927E-27
3.37216E-01 7.41385E-27
3.41348E-01 7.18690E-27
3.45492E-01 6.96806E-27
3.49647E-01 6.75698E-27
3.53814E-01 6.55335E-27
3.57992E-01 6.35686E-27
3.62181E-01 6.16721E-27
3.66381E-01 5.98413E-27
3.70590E-01 5.80735E-27
3.74810E-01 5.63662E-27
3.79039E-01 5.47169E-27
3.83277E-01 5.31234E-27
3.87524E-01 5.15834E-27
3.91780E-01 5.00949E-27
3.96044E-01 4.86558E-27
4.00316E-01 4.72642E-27
4.04596E-01 4.59183E-27
4.08882E-01 4.46163E-27
4.13176E-01 4.33566E-27
4.17476E-01 4.21375E-27
4.21783E-01 4.09576E-27
4.26095E-01 3.98153E-27
4.30413E-01 3.87093E-27
4.34737E-01 3.76382E-27
4.39065E-01 3.66008E-27
4.43398E-01 3.55958E-27
4.47736E-01 3.46220E-27
4.52077E-01 3.36783E-27
4.56422E-01 3.27636E-27
4.60770E-01 3.18769E-27
4.65122E-01 3.10171E-27
4.69476E-01 3.01834E-27
4.73832E-01 2.93749E-27
4.78190E-01 2.85905E-27
4.82550E-01 2.78296E-27
4.86912E-01 2.70912E-27
4.91274E-01 2.63746E-27
4.95637E-01 2.56791E-27
5.00000E-01 2.50039E-27
5.04363E-01 2.43484E-27
5.08726E-01 2.37119E-27
5.13088E-01 2.30937E-27
5.17450E-01 2.24932E-27
5.21810E-01 2.19099E-27
5.26168E-01 2.13432E-27
5.30524E-01 2.07925E-27
5.34878E-01 2.02573E-27
5.39230E-01 1.97372E-27
5.43578E-01 1.92315E-27
5.47923E-01 1.87399E-27
5.52264E-01 1.82619E-27
5.56602E-01 1.77971E-27
5.60935E-01 1.73451E-27
5.65263E-01 1.69053E-27
5.69587E-01 1.64776E-27
5.73905E-01 1.60614E-27
5.78217E-01 1.56564E-27
5.82524E-01 1.52624E-27
5.86824E-01 1.48788E-27
5.91118E-01 1.45055E-27
5.95404E-01 1.41421E-27
5.99684E-01 1.37883E-27
6.03956E-01 1.34438E-27
6.08220E-01 1.31083E-27
6.12476E-01 1.27816E-27
6.16723E-01 1.24634E-27
6.20961E-01 1.21534E-27
6.25190E-01 1.18514E-27
6.29410E-01 1.15572E-27
6.33619E-01 1.12706E-27
6.37819E-01 1.09912E-27
6.42008E-01 1.07190E-27
6.46186E-01 1.04536E-27
6.50353E-01 1.01950E-27
6.54508E-01 9.94285E-28
6.58652E-01 9.69704E-28
6.62784E-01 9.45736E-28
6.66903E-01 9.22366E-28
6.71010E-01 8.99576E-28
6.75104E-01 8.77349E-28
6.79184E-01 8.55670E-28
6.83251E-01 8.34524E-28
6.87303E-01 8.13896E-28
6.91342E-01 7.93772E-28
6.95366E-01 7.74137E-28
6.99375E-01 7.54979E-28
7.03368E-01 7.36284E-28
7.07347E-01 7.18040E-28
7.11309E-01 7.00234E-28
7.15256E-01 6.82856E-28
7.19186E-01 6.65893E-28
7.23099E-01 6.49334E-28
7.26995E-01 6.33169E-28
7.30874E-01 6.17387E-28
7.34736E-01 6.01979E-28
7.38579E-01 5.86933E-28
7.42405E-01 5.72242E-28
7.46212E-01 5.57895E-28
7.50000E-01 5.43884E-28
7.53769E-01 5.30200E-28
7.57519E-01 5.16835E-28
7.61249E-01 5.03780E-28
7.64960E-01 4.91028E-28
7.68650E-01 4.78571E-28
7.72320E-01 4.66401E-28
7.75968E-01 4.54512E-28
7.79596E-01 4.42895E-28
7.83203E-01 4.31546E-28
7.86788E-01 4.20456E-28
7.90351E-01 4.09620E-28
7.93893E-01 3.99031E-28
7.97411E-01 3.88683E-28
8.00908E-01 3.78571E-28
8.04381E-01 3.68688E-28
8.07831E-01 3.59029E-28
8.11257E-01 3.49589E-28
8.14660E-01 3.40363E-28
8.18039E-01 3.31344E-28
8.21394E-01 3.22529E-28
8.24724E-01 3.13913E-28
8.28030E-01 3.05491E-28
8.31310E-01 2.97258E-28
8.34565E-01 2.89210E-28
8.37795E-01 2.81343E-28
8.40999E-01 2.73653E-28
8.44177E-01 2.66135E-28
8.47329E-01 2.58785E-28
8.50455E-01 2.51600E-28
8.53553E-01 2.44577E-28
8.56625E-01 2.37711E-28
8.59670E-01 2.30998E-28
8.62687E-01 2.24437E-28
8.65677E-01 2.18022E-28
8.68639E-01 2.11751E-28
8.71572E-01 2.05621E-28
8.74478E-01 1.99629E-28
8.77355E-01 1.93771E-28
8.80203E-01 1.88046E-28
8.83022E-01 1.82449E-28
8.85812E-01 1.76979E-28
8.88573E-01 1.71632E-28
8.91304E-01 1.66406E-28
8.94005E-01 1.61299E-28
8.96677E-01 1.56308E-28
8.99318E-01 1.51431E-28
9.01928E-01 1.46665E-28
9.04508E-01 1.42008E-28
9.07058E-01 1.37457E-28
9.09576E-01 1.33012E-28
9.12063E-01 1.28669E-28
9.14519E-01 1.24427E-28
9.16943E-01 1.20284E-28
9.19335E-01 1.16237E-28
9.21696E-01 1.12286E-28
9.24024E-01 1.08427E-28
9.26320E-01 1.04660E-28
9.28584E-01 1.00982E-28
9.30815E-01 9.73924E-29
9.33013E-01 9.38891E-29
9.35178E-01 9.04706E-29
9.37310E-01 8.71353E-29
9.39409E-01 8.38817E-29
9.41474E-01 8.07085E-29
9.43505E-01 7.76141E-29
9.45503E-01 7.45973E-29
9.47467E-01 7.16567E-29
9.49397E-01 6.87910E-29
9.51293E-01 6.59990E-29
9.53154E-01 6.32794E-29
9.54981E-01 6.06312E-29
9.56773E-01 5.80531E-29
9.58530E-01 5.55439E-29
9.60252E-01 5.31027E-29
9.61940E-01 5.07285E-29
9.63592E-01 4.84201E-29
9.65209E-01 4.61766E-29
9.66790E-01 4.39971E-29
9.68336E-01 4.18805E-29
9.69846E-01 3.98261E-29
9.71321E-01 3.78330E-29
9.72759E-01 3.59003E-29
9.74162E-01 3.40272E-29
9.75528E-01 3.22129E-29
9.76858E-01 3.04567E-29
9.78152E-01 2.87578E-29
9.79410E-01 2.71156E-29
9.80631E-01 2.55294E-29
9.81815E-01 2.39984E-29
9.82963E-01 2.25221E-29
9.84074E-01 2.10999E-29
9.85148E-01 1.97311E-29
9.86185E-01 1.84153E-29
9.87185E-01 1.71518E-29
9.88148E-01 1.59402E-29
9.89074E-01 1.47800E-29
9.89962E-01 1.36707E-29
9.90814E-01 1.26118E-29
9.91627E-01 1.16029E-29
9.92404E-01 1.06436E-29
9.93143E-01 9.73353E-30
9.93844E-01 8.87229E-30
9.94508E-01 8.05957E-30
9.95134E-01 7.29502E-30
9.95722E-01 6.57832E-30
9.96273E-01 5.90919E-30
9.96786E-01 5.28738E-30
9.97261E-01 4.71262E-30
9.97698E-01 4.18469E-30
9.98097E-01 3.70336E-30
9.98459E-01 3.26845E-30
9.98782E-01 2.87981E-30
9.99067E-01 2.53723E-30
9.99315E-01 2.24061E-30
9.99524E-01 1.98982E-30
9.99695E-01 1.78476E-30
9.99829E-01 1.62537E-30
9.99924E-01 1.51156E-30
9.99981E-01 1.44330E-30
1.00000E+00 1.42052E-30
