 #
 # Subroutine ELSEPA. Elastic scattering of electrons and positrons
 #                    by neutral atoms and positive ions
 #
 # Projectile: positron
 # Kinetic energy = 4.50000E+08 eV = 1.65372E+07 a.u.
 #
 # WARNING: High-energy factorization with free-atom DF screening.
 #          Absorption, polarization and exchange corrections are
 #          switched off.
 #          Phase shifts are calculated for the bare nucleus.
 #          Scattering amplitudes are not evaluated.
 #
 # Element:  O,  Z =   8,  atomic weight = 1.59994E+01 g/mol
 #
 # Nuclear model: Fermi distribution
 #                Average radius = 2.69620E-13 cm
 #                Skin thickness = 5.46000E-14 cm
 #
 # Number of electrons =  8
 #
 # Total elastic cross section = 2.73838E-19 cm**2 = 9.77892E-03 a0**2
 # 1st transport cross section = 7.07778E-28 cm**2 = 2.52752E-11 a0**2
 # 2nd transport cross section = 2.12132E-27 cm**2 = 7.57539E-11 a0**2
 #
 #
 # Differential cross section:                       MU=(1-COS(THETA))/2
 #
 #  THETA        MU          DCS          DCS        Sherman      error
 #  (deg)                 (cm**2/sr)   (a0**2/sr)    function
 #----------------------------------------------------------------------
0.00000E+00 3.06220E-10
7.61557E-13 3.00294E-10
1.18994E-12 2.97039E-10
1.71346E-12 2.93132E-10
2.33225E-12 2.88608E-10
3.04617E-12 2.83514E-10
3.85530E-12 2.77899E-10
4.75964E-12 2.71814E-10
5.75917E-12 2.65313E-10
6.85391E-12 2.58451E-10
8.04379E-12 2.50997E-10
9.32893E-12 2.43194E-10
1.07092E-11 2.35734E-10
1.21847E-11 2.28269E-10
1.37554E-11 2.19917E-10
1.54213E-11 2.12084E-10
1.71823E-11 2.04658E-10
1.90386E-11 1.96206E-10
2.09900E-11 1.88373E-10
2.30367E-11 1.81121E-10
2.51785E-11 1.73079E-10
2.74156E-11 1.65540E-10
2.97478E-11 1.58599E-10
3.21752E-11 1.51264E-10
3.46979E-11 1.44227E-10
3.73157E-11 1.37768E-10
4.00286E-11 1.31219E-10
4.28368E-11 1.24811E-10
4.57402E-11 1.18934E-10
4.87388E-11 1.13178E-10
5.18325E-11 1.07456E-10
5.50215E-11 1.02207E-10
5.83057E-11 9.72055E-11
6.16850E-11 9.21730E-11
6.51595E-11 8.75522E-11
6.87293E-11 8.32425E-11
7.23943E-11 7.88693E-11
7.61544E-11 7.48480E-11
1.18991E-10 4.42838E-11
1.71347E-10 2.65340E-11
2.33223E-10 1.63131E-11
3.04617E-10 1.03685E-11
3.85531E-10 6.81937E-12
4.75965E-10 4.63834E-12
5.75917E-10 3.25520E-12
6.85389E-10 2.35014E-12
8.04380E-10 1.74041E-12
9.32891E-10 1.31852E-12
1.07092E-09 1.01883E-12
1.21847E-09 8.01113E-13
1.37554E-09 6.39661E-13
1.54213E-09 5.17707E-13
1.71823E-09 4.24056E-13
1.90386E-09 3.50984E-13
2.09900E-09 2.93233E-13
2.30367E-09 2.47070E-13
2.51785E-09 2.09769E-13
2.74156E-09 1.79331E-13
2.97478E-09 1.54223E-13
3.21752E-09 1.33392E-13
3.46978E-09 1.15983E-13
3.73156E-09 1.01336E-13
4.00286E-09 8.89321E-14
4.28368E-09 7.83531E-14
4.57402E-09 6.93023E-14
4.87388E-09 6.15204E-14
5.18326E-09 5.47984E-14
5.50215E-09 4.89636E-14
5.83057E-09 4.38771E-14
6.16850E-09 3.94317E-14
6.51596E-09 3.55328E-14
6.87293E-09 3.21016E-14
7.23942E-09 2.90703E-14
7.61544E-09 2.63849E-14
1.18991E-08 1.11382E-14
1.71347E-08 5.45355E-15
2.33223E-08 2.96754E-15
3.04617E-08 1.74743E-15
3.85531E-08 1.09385E-15
4.75965E-08 7.18869E-16
5.75917E-08 4.91523E-16
6.85389E-08 3.47295E-16
8.04380E-08 2.52267E-16
9.32891E-08 1.87617E-16
1.07092E-07 1.42405E-16
1.21847E-07 1.10024E-16
1.37554E-07 8.63439E-17
1.54213E-07 6.87039E-17
1.71823E-07 5.53466E-17
1.90386E-07 4.50829E-17
2.09900E-07 3.70915E-17
2.30367E-07 3.07944E-17
2.51785E-07 2.57783E-17
2.74156E-07 2.17432E-17
2.97478E-07 1.84676E-17
3.21752E-07 1.57863E-17
3.46978E-07 1.35744E-17
3.73156E-07 1.17367E-17
4.00286E-07 1.01997E-17
4.28368E-07 8.90622E-18
4.57402E-07 7.81146E-18
4.87388E-07 6.87985E-18
5.18325E-07 6.08308E-18
5.50215E-07 5.39838E-18
5.83057E-07 4.80736E-18
6.16850E-07 4.29505E-18
6.51596E-07 3.84921E-18
6.87293E-07 3.45974E-18
7.23942E-07 3.11831E-18
7.61543E-07 2.81797E-18
1.18991E-06 1.15421E-18
1.71347E-06 5.56606E-19
2.33223E-06 3.00432E-19
3.04617E-06 1.76102E-19
3.85531E-06 1.09935E-19
4.75964E-06 7.21259E-20
5.75916E-06 4.92611E-20
6.85388E-06 3.47803E-20
8.04378E-06 2.52504E-20
9.32888E-06 1.87721E-20
1.07092E-05 1.42444E-20
1.21846E-05 1.10030E-20
1.37553E-05 8.63336E-21
1.54212E-05 6.86861E-21
1.71822E-05 5.53258E-21
1.90385E-05 4.50737E-21
2.09899E-05 3.70796E-21
2.30365E-05 3.07789E-21
2.51783E-05 2.57604E-21
2.74153E-05 2.17247E-21
2.97475E-05 1.84503E-21
3.21749E-05 1.57712E-21
3.46974E-05 1.35619E-21
3.73152E-05 1.17263E-21
4.00281E-05 1.01909E-21
4.28362E-05 8.89838E-22
4.57395E-05 7.80408E-22
4.87380E-05 6.87272E-22
5.18317E-05 6.07619E-22
5.50205E-05 5.39185E-22
5.83045E-05 4.80132E-22
6.16838E-05 4.28958E-22
6.51582E-05 3.84430E-22
6.87277E-05 3.45533E-22
7.23925E-05 3.11429E-22
7.61524E-05 2.80271E-22
9.21439E-05 1.91213E-22
1.09658E-04 1.34865E-22
1.28695E-04 9.77942E-23
1.49255E-04 7.26121E-23
1.71338E-04 5.50253E-23
1.94942E-04 4.24419E-23
2.20070E-04 3.32516E-23
2.46720E-04 2.64115E-23
2.74892E-04 2.12382E-23
3.04586E-04 1.72671E-23
3.35803E-04 1.41784E-23
3.68542E-04 1.17477E-23
4.02802E-04 9.81339E-24
4.38585E-04 8.25932E-24
4.75889E-04 6.99913E-24
5.14715E-04 5.96883E-24
5.55063E-04 5.12000E-24
5.96931E-04 4.41563E-24
6.40321E-04 3.82736E-24
6.85233E-04 3.33296E-24
7.31665E-04 2.91512E-24
7.79618E-04 2.56008E-24
8.29092E-04 2.25687E-24
8.80086E-04 1.99674E-24
9.32601E-04 1.77255E-24
9.86636E-04 1.57855E-24
1.04219E-03 1.41000E-24
1.09927E-03 1.26302E-24
1.15786E-03 1.13441E-24
1.21797E-03 1.02148E-24
1.27961E-03 9.22017E-25
1.34276E-03 8.34147E-25
1.40743E-03 7.56301E-25
1.47362E-03 6.87144E-25
1.54133E-03 6.25546E-25
1.61056E-03 5.70547E-25
1.68131E-03 5.21321E-25
1.75357E-03 4.77165E-25
1.82735E-03 4.37469E-25
1.90265E-03 4.01708E-25
1.97947E-03 3.69429E-25
2.05780E-03 3.40236E-25
2.13765E-03 3.13788E-25
2.21902E-03 2.89781E-25
2.30190E-03 2.67955E-25
2.38630E-03 2.48079E-25
2.47222E-03 2.29950E-25
2.55965E-03 2.13389E-25
2.64859E-03 1.98240E-25
2.73905E-03 1.84361E-25
2.83103E-03 1.71629E-25
2.92452E-03 1.59935E-25
3.01952E-03 1.49179E-25
3.11604E-03 1.39274E-25
3.21407E-03 1.30143E-25
3.31362E-03 1.21715E-25
3.41468E-03 1.13927E-25
3.51725E-03 1.06723E-25
3.62133E-03 1.00052E-25
3.72692E-03 9.38687E-26
3.83403E-03 8.81316E-26
3.94265E-03 8.28035E-26
4.05278E-03 7.78507E-26
4.16442E-03 7.32426E-26
4.27757E-03 6.89515E-26
4.39223E-03 6.49522E-26
4.50840E-03 6.12218E-26
4.62608E-03 5.77395E-26
4.74527E-03 5.44862E-26
4.86597E-03 5.14447E-26
4.98817E-03 4.85989E-26
5.11188E-03 4.59346E-26
5.23711E-03 4.34382E-26
5.36383E-03 4.10977E-26
5.49207E-03 3.89020E-26
5.62181E-03 3.68406E-26
5.75306E-03 3.49043E-26
5.88581E-03 3.30842E-26
6.02007E-03 3.13725E-26
6.15583E-03 2.97617E-26
6.29310E-03 2.82450E-26
6.43187E-03 2.68162E-26
6.57214E-03 2.54694E-26
6.71392E-03 2.41993E-26
6.85720E-03 2.30009E-26
7.00198E-03 2.18696E-26
7.14827E-03 2.08011E-26
7.29605E-03 1.97914E-26
7.44534E-03 1.88369E-26
7.59612E-03 1.79342E-26
7.97965E-03 1.58834E-26
8.37255E-03 1.40927E-26
8.77480E-03 1.25253E-26
9.18641E-03 1.11500E-26
9.60736E-03 9.94070E-27
1.00376E-02 8.87508E-27
1.04773E-02 7.93420E-27
1.09262E-02 7.10191E-27
1.13844E-02 6.36437E-27
1.18520E-02 5.70969E-27
1.23288E-02 5.12764E-27
1.28150E-02 4.60938E-27
1.33104E-02 4.14727E-27
1.38150E-02 3.73466E-27
1.43290E-02 3.36579E-27
1.48521E-02 3.03561E-27
1.53845E-02 2.73973E-27
1.59262E-02 2.47431E-27
1.64770E-02 2.23595E-27
1.70371E-02 2.02170E-27
1.76063E-02 1.82894E-27
1.81848E-02 1.65537E-27
1.87724E-02 1.49894E-27
1.93692E-02 1.35786E-27
1.99751E-02 1.23052E-27
2.05901E-02 1.11551E-27
2.12143E-02 1.01158E-27
2.18476E-02 9.17586E-28
2.24900E-02 8.32543E-28
2.31415E-02 7.55555E-28
2.38021E-02 6.85824E-28
2.44717E-02 6.22638E-28
2.51504E-02 5.65357E-28
2.58382E-02 5.13409E-28
2.65349E-02 4.66281E-28
2.72407E-02 4.23511E-28
2.79555E-02 3.84684E-28
2.86793E-02 3.49427E-28
2.94120E-02 3.17403E-28
3.01537E-02 2.88309E-28
3.09043E-02 2.61873E-28
3.16639E-02 2.37846E-28
3.24324E-02 2.16006E-28
3.32098E-02 1.96152E-28
3.39961E-02 1.78101E-28
3.47912E-02 1.61688E-28
3.55952E-02 1.46764E-28
3.64081E-02 1.33193E-28
3.72297E-02 1.20851E-28
3.80602E-02 1.09629E-28
3.88995E-02 9.94242E-29
3.97476E-02 9.01452E-29
4.06044E-02 8.17087E-29
4.14700E-02 7.40388E-29
4.23443E-02 6.70667E-29
4.32273E-02 6.07297E-29
4.41190E-02 5.49709E-29
4.50194E-02 4.97384E-29
4.59284E-02 4.49851E-29
4.68461E-02 4.06680E-29
4.87074E-02 3.31894E-29
5.06030E-02 2.70301E-29
5.25328E-02 2.19636E-29
5.44967E-02 1.78019E-29
5.64946E-02 1.43891E-29
5.85262E-02 1.15954E-29
6.05914E-02 9.31323E-30
6.26901E-02 7.45308E-30
6.48222E-02 5.94070E-30
6.69873E-02 4.71448E-30
6.91854E-02 3.72332E-30
7.14163E-02 2.92488E-30
7.36799E-02 2.28409E-30
7.59760E-02 1.77198E-30
7.83043E-02 1.36461E-30
8.06647E-02 1.04225E-30
8.30571E-02 7.88652E-31
8.54812E-02 5.90482E-31
8.79369E-02 4.36801E-31
9.04240E-02 3.18667E-31
9.29422E-02 2.28788E-31
9.54915E-02 1.61237E-31
9.80716E-02 1.11211E-31
1.00682E-01 7.48342E-32
1.03323E-01 4.89915E-32
1.05995E-01 3.11918E-32
1.08696E-01 1.94539E-32
1.11427E-01 1.22120E-32
1.14188E-01 8.23740E-33
1.16978E-01 6.57443E-33
1.19797E-01 6.48706E-33
1.22645E-01 7.41537E-33
1.25522E-01 8.93972E-33
1.28428E-01 1.07516E-32
1.31361E-01 1.26296E-32
1.34323E-01 1.44206E-32
1.37313E-01 1.60236E-32
1.40330E-01 1.73775E-32
1.43375E-01 1.84509E-32
1.46447E-01 1.92345E-32
1.49545E-01 1.97344E-32
1.52671E-01 1.99675E-32
1.55823E-01 1.99575E-32
1.59001E-01 1.97321E-32
1.62205E-01 1.93211E-32
1.65435E-01 1.87541E-32
1.68690E-01 1.80602E-32
1.71970E-01 1.72667E-32
1.75276E-01 1.63987E-32
1.78606E-01 1.54788E-32
1.81961E-01 1.45270E-32
1.85340E-01 1.35608E-32
1.88743E-01 1.25951E-32
1.92169E-01 1.16422E-32
1.95619E-01 1.07124E-32
1.99092E-01 9.81394E-33
2.02589E-01 8.95310E-33
2.06107E-01 8.13464E-33
2.09649E-01 7.36183E-33
2.13212E-01 6.63677E-33
2.16797E-01 5.96049E-33
2.20404E-01 5.33315E-33
2.24032E-01 4.75420E-33
2.27680E-01 4.22249E-33
2.31350E-01 3.73644E-33
2.35040E-01 3.29411E-33
2.38751E-01 2.89329E-33
2.42481E-01 2.53160E-33
2.46231E-01 2.20657E-33
2.50000E-01 1.91566E-33
2.53788E-01 1.65632E-33
2.57595E-01 1.42606E-33
2.61421E-01 1.22243E-33
2.65264E-01 1.04307E-33
2.69126E-01 8.85759E-34
2.73005E-01 7.48354E-34
2.76901E-01 6.28852E-34
2.80814E-01 5.25390E-34
2.84744E-01 4.36231E-34
2.88691E-01 3.59779E-34
2.92653E-01 2.94563E-34
2.96632E-01 2.39238E-34
3.00625E-01 1.92586E-34
3.04634E-01 1.53505E-34
3.08658E-01 1.21000E-34
3.12697E-01 9.41793E-35
3.16749E-01 7.22487E-35
3.20816E-01 5.44996E-35
3.24896E-01 4.03075E-35
3.28990E-01 2.91202E-35
3.33097E-01 2.04548E-35
3.37216E-01 1.38894E-35
3.41348E-01 9.05726E-36
3.45492E-01 5.64221E-36
3.49647E-01 3.37173E-36
3.53814E-01 2.01331E-36
3.57992E-01 1.36941E-36
3.62181E-01 1.27332E-36
3.66381E-01 1.58591E-36
3.70590E-01 2.19098E-36
3.74810E-01 2.99383E-36
3.79039E-01 3.91683E-36
3.83277E-01 4.89830E-36
3.87524E-01 5.88886E-36
3.91780E-01 6.85109E-36
3.96044E-01 7.75700E-36
4.00316E-01 8.58538E-36
4.04596E-01 9.32278E-36
4.08882E-01 9.95999E-36
4.13176E-01 1.04932E-35
4.17476E-01 1.09213E-35
4.21783E-01 1.12459E-35
4.26095E-01 1.14718E-35
4.30413E-01 1.16036E-35
4.34737E-01 1.16482E-35
4.39065E-01 1.16131E-35
4.43398E-01 1.15058E-35
4.47736E-01 1.13347E-35
4.52077E-01 1.11076E-35
4.56422E-01 1.08320E-35
4.60770E-01 1.05154E-35
4.65122E-01 1.01652E-35
4.69476E-01 9.78732E-36
4.73832E-01 9.38866E-36
4.78190E-01 8.97434E-36
4.82550E-01 8.55019E-36
4.86912E-01 8.11985E-36
4.91274E-01 7.68789E-36
4.95637E-01 7.25775E-36
5.00000E-01 6.83244E-36
5.04363E-01 6.41528E-36
5.08726E-01 6.00778E-36
5.13088E-01 5.61188E-36
5.17450E-01 5.22942E-36
5.21810E-01 4.86154E-36
5.26168E-01 4.50903E-36
5.30524E-01 4.17252E-36
5.34878E-01 3.85262E-36
5.39230E-01 3.54944E-36
5.43578E-01 3.26319E-36
5.47923E-01 2.99338E-36
5.52264E-01 2.74020E-36
5.56602E-01 2.50313E-36
5.60935E-01 2.28179E-36
5.65263E-01 2.07556E-36
5.69587E-01 1.88409E-36
5.73905E-01 1.70663E-36
5.78217E-01 1.54260E-36
5.82524E-01 1.39128E-36
5.86824E-01 1.25211E-36
5.91118E-01 1.12421E-36
5.95404E-01 1.00721E-36
5.99684E-01 9.00253E-37
6.03956E-01 8.02640E-37
6.08220E-01 7.13889E-37
6.12476E-01 6.33369E-37
6.16723E-01 5.60420E-37
6.20961E-01 4.94522E-37
6.25190E-01 4.35110E-37
6.29410E-01 3.81692E-37
6.33619E-01 3.33809E-37
6.37819E-01 2.90908E-37
6.42008E-01 2.52678E-37
6.46186E-01 2.18708E-37
6.50353E-01 1.88461E-37
6.54508E-01 1.61737E-37
6.58652E-01 1.38162E-37
6.62784E-01 1.17446E-37
6.66903E-01 9.92872E-38
6.71010E-01 8.34666E-38
6.75104E-01 6.96963E-38
6.79184E-01 5.77829E-38
6.83251E-01 4.75374E-38
6.87303E-01 3.87598E-38
6.91342E-01 3.12790E-38
6.95366E-01 2.49459E-38
6.99375E-01 1.96341E-38
7.03368E-01 1.52103E-38
7.07347E-01 1.15618E-38
7.11309E-01 8.60633E-39
7.15256E-01 6.23579E-39
7.19186E-01 4.36743E-39
7.23099E-01 2.93664E-39
7.26995E-01 1.87867E-39
7.30874E-01 1.13415E-39
7.34736E-01 6.54691E-40
7.38579E-01 3.94783E-40
7.42405E-01 3.16166E-40
7.46212E-01 3.82031E-40
7.50000E-01 5.69173E-40
7.53769E-01 8.44606E-40
7.57519E-01 1.18917E-39
7.61249E-01 1.58242E-39
7.64960E-01 2.01058E-39
7.68650E-01 2.46054E-39
7.72320E-01 2.91350E-39
7.75968E-01 3.36173E-39
7.79596E-01 3.81325E-39
7.83203E-01 4.23533E-39
7.86788E-01 4.64350E-39
7.90351E-01 5.02114E-39
7.93893E-01 5.36819E-39
7.97411E-01 5.69871E-39
8.00908E-01 5.98787E-39
8.04381E-01 6.24403E-39
8.07831E-01 6.46845E-39
8.11257E-01 6.67501E-39
8.14660E-01 6.83435E-39
8.18039E-01 6.96178E-39
8.21394E-01 7.08107E-39
8.24724E-01 7.15724E-39
8.28030E-01 7.20523E-39
8.31310E-01 7.23551E-39
8.34565E-01 7.24322E-39
8.37795E-01 7.21842E-39
8.40999E-01 7.19599E-39
8.44177E-01 7.12637E-39
8.47329E-01 7.06663E-39
8.50455E-01 6.96455E-39
8.53553E-01 6.87188E-39
8.56625E-01 6.75208E-39
8.59670E-01 6.64153E-39
8.62687E-01 6.49576E-39
8.65677E-01 6.36066E-39
8.68639E-01 6.20927E-39
8.71572E-01 6.04395E-39
8.74478E-01 5.88702E-39
8.77355E-01 5.72764E-39
8.80203E-01 5.56004E-39
8.83022E-01 5.39307E-39
8.85812E-01 5.22202E-39
8.88573E-01 5.04715E-39
8.91304E-01 4.87861E-39
8.94005E-01 4.70518E-39
8.96677E-01 4.54168E-39
8.99318E-01 4.36913E-39
9.01928E-01 4.20379E-39
9.04508E-01 4.04876E-39
9.07058E-01 3.89266E-39
9.09576E-01 3.73097E-39
9.12063E-01 3.58539E-39
9.14519E-01 3.43015E-39
9.16943E-01 3.28793E-39
9.19335E-01 3.14513E-39
9.21696E-01 3.00858E-39
9.24024E-01 2.87138E-39
9.26320E-01 2.73647E-39
9.28584E-01 2.61688E-39
9.30815E-01 2.49237E-39
9.33013E-01 2.37173E-39
9.35178E-01 2.25657E-39
9.37310E-01 2.14040E-39
9.39409E-01 2.04402E-39
9.41474E-01 1.92989E-39
9.43505E-01 1.83744E-39
9.45503E-01 1.73935E-39
9.47467E-01 1.65179E-39
9.49397E-01 1.56256E-39
9.51293E-01 1.47468E-39
9.53154E-01 1.39947E-39
9.54981E-01 1.31831E-39
9.56773E-01 1.24357E-39
9.58530E-01 1.17418E-39
9.60252E-01 1.11230E-39
9.61940E-01 1.03979E-39
9.63592E-01 9.84699E-40
9.65209E-01 9.22187E-40
9.66790E-01 8.66117E-40
9.68336E-01 8.13386E-40
9.69846E-01 7.63808E-40
9.71321E-01 7.17071E-40
9.72759E-01 6.68449E-40
9.74162E-01 6.25690E-40
9.75528E-01 5.85156E-40
9.76858E-01 5.45192E-40
9.78152E-01 5.06867E-40
9.79410E-01 4.71315E-40
9.80631E-01 4.36287E-40
9.81815E-01 4.07918E-40
9.82963E-01 3.75807E-40
9.84074E-01 3.43500E-40
9.85148E-01 3.15732E-40
9.86185E-01 2.90113E-40
9.87185E-01 2.69369E-40
9.88148E-01 2.44364E-40
9.89074E-01 2.21654E-40
9.89962E-01 2.03367E-40
9.90814E-01 1.80611E-40
9.91627E-01 1.67875E-40
9.92404E-01 1.48789E-40
9.93143E-01 1.31000E-40
9.93844E-01 1.18314E-40
9.94508E-01 1.04476E-40
9.95134E-01 9.08967E-41
9.95722E-01 8.00818E-41
9.96273E-01 7.20220E-41
9.96786E-01 5.96682E-41
9.97261E-01 5.10598E-41
9.97698E-01 4.28379E-41
9.98097E-01 3.56780E-41
9.98459E-01 2.95882E-41
9.98782E-01 2.24626E-41
9.99067E-01 1.65348E-41
9.99315E-01 1.18104E-41
9.99524E-01 8.62286E-42
9.99695E-01 7.03076E-42
9.99829E-01 2.98938E-42
9.99924E-01 1.90323E-42
9.99981E-01 3.25011E-43
1.00000E+00 1.48925E-43
