 #
 # Subroutine ELSEPA. Elastic scattering of electrons and positrons
 #                    by neutral atoms and positive ions
 #
 # Projectile: positron
 # Kinetic energy = 1.75000E+08 eV = 6.43113E+06 a.u.
 #
 # WARNING: High-energy factorization with free-atom DF screening.
 #          Absorption, polarization and exchange corrections are
 #          switched off.
 #          Phase shifts are calculated for the bare nucleus.
 #          Scattering amplitudes are not evaluated.
 #
 # Element:  O,  Z =   8,  atomic weight = 1.59994E+01 g/mol
 #
 # Nuclear model: Fermi distribution
 #                Average radius = 2.69620E-13 cm
 #                Skin thickness = 5.46000E-14 cm
 #
 # Number of electrons =  8
 #
 # Total elastic cross section = 2.73995E-19 cm**2 = 9.78454E-03 a0**2
 # 1st transport cross section = 4.63240E-27 cm**2 = 1.65426E-10 a0**2
 # 2nd transport cross section = 1.38173E-26 cm**2 = 4.93424E-10 a0**2
 #
 #
 # Differential cross section:                       MU=(1-COS(THETA))/2
 #
 #  THETA        MU          DCS          DCS        Sherman      error
 #  (deg)                 (cm**2/sr)   (a0**2/sr)    function
 #----------------------------------------------------------------------
0.00000E+00 4.64763E-11
7.61557E-13 4.63376E-11
1.18994E-12 4.62601E-11
1.71346E-12 4.61657E-11
2.33225E-12 4.60546E-11
3.04617E-12 4.59269E-11
3.85530E-12 4.57828E-11
4.75964E-12 4.56225E-11
5.75917E-12 4.54463E-11
6.85391E-12 4.52546E-11
8.04379E-12 4.50476E-11
9.32893E-12 4.48253E-11
1.07092E-11 4.45885E-11
1.21847E-11 4.43375E-11
1.37554E-11 4.40728E-11
1.54213E-11 4.37940E-11
1.71823E-11 4.35022E-11
1.90386E-11 4.31979E-11
2.09900E-11 4.28817E-11
2.30367E-11 4.25531E-11
2.51785E-11 4.22130E-11
2.74156E-11 4.18624E-11
2.97478E-11 4.15016E-11
3.21752E-11 4.11307E-11
3.46979E-11 4.07498E-11
3.73157E-11 4.03602E-11
4.00286E-11 3.99626E-11
4.28368E-11 3.95572E-11
4.57402E-11 3.91432E-11
4.87388E-11 3.87227E-11
5.18325E-11 3.82690E-11
5.50215E-11 3.77993E-11
5.83057E-11 3.73367E-11
6.16850E-11 3.68817E-11
6.51595E-11 3.64347E-11
6.87293E-11 3.59959E-11
7.23943E-11 3.55655E-11
7.61544E-11 3.51439E-11
1.18991E-10 3.04352E-11
1.71347E-10 2.58288E-11
2.33223E-10 2.16163E-11
3.04617E-10 1.79099E-11
3.85531E-10 1.47037E-11
4.75965E-10 1.19970E-11
5.75917E-10 9.77605E-12
6.85389E-10 7.96854E-12
8.04380E-10 6.50187E-12
9.32891E-10 5.30973E-12
1.07092E-09 4.35280E-12
1.21847E-09 3.58332E-12
1.37554E-09 2.96377E-12
1.54213E-09 2.46135E-12
1.71823E-09 2.05486E-12
1.90386E-09 1.72463E-12
2.09900E-09 1.45513E-12
2.30367E-09 1.23387E-12
2.51785E-09 1.05166E-12
2.74156E-09 9.01043E-13
2.97478E-09 7.75914E-13
3.21752E-09 6.71404E-13
3.46978E-09 5.83681E-13
3.73156E-09 5.09733E-13
4.00286E-09 4.47096E-13
4.28368E-09 3.93793E-13
4.57402E-09 3.48229E-13
4.87388E-09 3.09126E-13
5.18326E-09 2.75409E-13
5.50215E-09 2.46233E-13
5.83057E-09 2.20895E-13
6.16850E-09 1.98788E-13
6.51596E-09 1.79417E-13
6.87293E-09 1.62405E-13
7.23942E-09 1.47409E-13
7.61544E-09 1.34132E-13
1.18991E-08 5.87059E-14
1.71347E-08 2.99936E-14
2.33223E-08 1.69633E-14
3.04617E-08 1.03093E-14
3.85531E-08 6.61467E-15
4.75965E-08 4.43016E-15
5.75917E-08 3.07307E-15
6.85389E-08 2.19529E-15
8.04380E-08 1.60804E-15
9.32891E-08 1.20368E-15
1.07092E-07 9.18214E-16
1.21847E-07 7.12218E-16
1.37554E-07 5.60661E-16
1.54213E-07 4.47219E-16
1.71823E-07 3.60984E-16
1.90386E-07 2.94511E-16
2.09900E-07 2.42621E-16
2.30367E-07 2.01647E-16
2.51785E-07 1.68953E-16
2.74156E-07 1.42613E-16
2.97478E-07 1.21203E-16
3.21752E-07 1.03660E-16
3.46978E-07 8.91744E-17
3.73156E-07 7.71306E-17
4.00286E-07 6.70511E-17
4.28368E-07 5.85641E-17
4.57402E-07 5.13774E-17
4.87388E-07 4.52592E-17
5.18325E-07 4.00246E-17
5.50215E-07 3.55250E-17
5.83057E-07 3.16399E-17
6.16850E-07 2.82714E-17
6.51596E-07 2.53393E-17
6.87293E-07 2.27775E-17
7.23942E-07 2.05313E-17
7.61543E-07 1.85552E-17
1.18991E-06 7.60317E-18
1.71347E-06 3.66698E-18
2.33223E-06 1.97933E-18
3.04617E-06 1.16023E-18
3.85531E-06 7.24309E-19
4.75964E-06 4.75206E-19
5.75916E-06 3.24562E-19
6.85388E-06 2.29155E-19
8.04378E-06 1.66367E-19
9.32888E-06 1.23684E-19
1.07092E-05 9.38521E-20
1.21846E-05 7.24959E-20
1.37553E-05 5.68830E-20
1.54212E-05 4.52556E-20
1.71822E-05 3.64529E-20
1.90385E-05 2.96980E-20
2.09899E-05 2.44309E-20
2.30365E-05 2.02795E-20
2.51783E-05 1.69730E-20
2.74153E-05 1.43140E-20
2.97475E-05 1.21565E-20
3.21749E-05 1.03913E-20
3.46974E-05 8.93563E-21
3.73152E-05 7.72625E-21
4.00281E-05 6.71458E-21
4.28362E-05 5.86297E-21
4.57395E-05 5.14195E-21
4.87380E-05 4.52830E-21
5.18317E-05 4.00348E-21
5.50205E-05 3.55259E-21
5.83045E-05 3.16350E-21
6.16838E-05 2.82632E-21
6.51582E-05 2.53294E-21
6.87277E-05 2.27665E-21
7.23925E-05 2.05194E-21
7.61524E-05 1.85317E-21
9.21439E-05 1.26527E-21
1.09658E-04 8.93156E-22
1.28695E-04 6.48237E-22
1.49255E-04 4.81786E-22
1.71338E-04 3.65482E-22
1.94942E-04 2.82220E-22
2.20070E-04 2.21375E-22
2.46720E-04 1.76061E-22
2.74892E-04 1.41767E-22
3.04586E-04 1.15425E-22
3.35803E-04 9.49202E-23
3.68542E-04 7.87711E-23
4.02802E-04 6.59100E-23
4.38585E-04 5.55682E-23
4.75889E-04 4.71747E-23
5.14715E-04 4.03059E-23
5.55063E-04 3.46416E-23
5.96931E-04 2.99364E-23
6.40321E-04 2.60028E-23
6.85233E-04 2.26932E-23
7.31665E-04 1.98930E-23
7.79618E-04 1.75109E-23
8.29092E-04 1.54741E-23
8.80086E-04 1.37245E-23
9.32601E-04 1.22146E-23
9.86636E-04 1.09064E-23
1.04219E-03 9.76824E-24
1.09927E-03 8.77435E-24
1.15786E-03 7.90337E-24
1.21797E-03 7.13747E-24
1.27961E-03 6.46189E-24
1.34276E-03 5.86408E-24
1.40743E-03 5.33362E-24
1.47362E-03 4.86158E-24
1.54133E-03 4.44042E-24
1.61056E-03 4.06373E-24
1.68131E-03 3.72596E-24
1.75357E-03 3.42244E-24
1.82735E-03 3.14905E-24
1.90265E-03 2.90230E-24
1.97947E-03 2.67913E-24
2.05780E-03 2.47690E-24
2.13765E-03 2.29329E-24
2.21902E-03 2.12629E-24
2.30190E-03 1.97414E-24
2.38630E-03 1.83527E-24
2.47222E-03 1.70833E-24
2.55965E-03 1.59211E-24
2.64859E-03 1.48553E-24
2.73905E-03 1.38767E-24
2.83103E-03 1.29768E-24
2.92452E-03 1.21482E-24
3.01952E-03 1.13841E-24
3.11604E-03 1.06788E-24
3.21407E-03 1.00268E-24
3.31362E-03 9.42335E-25
3.41468E-03 8.86429E-25
3.51725E-03 8.34571E-25
3.62133E-03 7.86417E-25
3.72692E-03 7.41655E-25
3.83403E-03 7.00002E-25
3.94265E-03 6.61205E-25
4.05278E-03 6.25031E-25
4.16442E-03 5.91273E-25
4.27757E-03 5.59740E-25
4.39223E-03 5.30258E-25
4.50840E-03 5.02670E-25
4.62608E-03 4.76833E-25
4.74527E-03 4.52616E-25
4.86597E-03 4.29899E-25
4.98817E-03 4.08571E-25
5.11188E-03 3.88534E-25
5.23711E-03 3.69694E-25
5.36383E-03 3.51967E-25
5.49207E-03 3.35276E-25
5.62181E-03 3.19550E-25
5.75306E-03 3.04722E-25
5.88581E-03 2.90731E-25
6.02007E-03 2.77523E-25
6.15583E-03 2.65045E-25
6.29310E-03 2.53250E-25
6.43187E-03 2.42093E-25
6.57214E-03 2.31534E-25
6.71392E-03 2.21536E-25
6.85720E-03 2.12062E-25
7.00198E-03 2.03081E-25
7.14827E-03 1.94562E-25
7.29605E-03 1.86477E-25
7.44534E-03 1.78800E-25
7.59612E-03 1.71507E-25
7.97965E-03 1.54809E-25
8.37255E-03 1.40059E-25
8.77480E-03 1.26991E-25
9.18641E-03 1.15382E-25
9.60736E-03 1.05043E-25
1.00376E-02 9.58113E-26
1.04773E-02 8.75494E-26
1.09262E-02 8.01384E-26
1.13844E-02 7.34763E-26
1.18520E-02 6.74748E-26
1.23288E-02 6.20577E-26
1.28150E-02 5.71587E-26
1.33104E-02 5.27201E-26
1.38150E-02 4.86915E-26
1.43290E-02 4.50289E-26
1.48521E-02 4.16934E-26
1.53845E-02 3.86512E-26
1.59262E-02 3.58722E-26
1.64770E-02 3.33299E-26
1.70371E-02 3.10009E-26
1.76063E-02 2.88643E-26
1.81848E-02 2.69017E-26
1.87724E-02 2.50967E-26
1.93692E-02 2.34344E-26
1.99751E-02 2.19019E-26
2.05901E-02 2.04873E-26
2.12143E-02 1.91802E-26
2.18476E-02 1.79710E-26
2.24900E-02 1.68513E-26
2.31415E-02 1.58133E-26
2.38021E-02 1.48502E-26
2.44717E-02 1.39557E-26
2.51504E-02 1.31242E-26
2.58382E-02 1.23504E-26
2.65349E-02 1.16299E-26
2.72407E-02 1.09583E-26
2.79555E-02 1.03318E-26
2.86793E-02 9.74693E-27
2.94120E-02 9.20047E-27
3.01537E-02 8.68953E-27
3.09043E-02 8.21144E-27
3.16639E-02 7.76376E-27
3.24324E-02 7.34428E-27
3.32098E-02 6.95094E-27
3.39961E-02 6.58188E-27
3.47912E-02 6.23537E-27
3.55952E-02 5.90983E-27
3.64081E-02 5.60380E-27
3.72297E-02 5.31595E-27
3.80602E-02 5.04503E-27
3.88995E-02 4.78990E-27
3.97476E-02 4.54952E-27
4.06044E-02 4.32290E-27
4.14700E-02 4.10914E-27
4.23443E-02 3.90742E-27
4.32273E-02 3.71696E-27
4.41190E-02 3.53703E-27
4.50194E-02 3.36699E-27
4.59284E-02 3.20620E-27
4.68461E-02 3.05410E-27
4.87074E-02 2.77386E-27
5.06030E-02 2.52242E-27
5.25328E-02 2.29646E-27
5.44967E-02 2.09308E-27
5.64946E-02 1.90973E-27
5.85262E-02 1.74422E-27
6.05914E-02 1.59459E-27
6.26901E-02 1.45914E-27
6.48222E-02 1.33638E-27
6.69873E-02 1.22499E-27
6.91854E-02 1.12378E-27
7.14163E-02 1.03173E-27
7.36799E-02 9.47924E-28
7.59760E-02 8.71538E-28
7.83043E-02 8.01849E-28
8.06647E-02 7.38210E-28
8.30571E-02 6.80043E-28
8.54812E-02 6.26830E-28
8.79369E-02 5.78110E-28
9.04240E-02 5.33466E-28
9.29422E-02 4.92526E-28
9.54915E-02 4.54954E-28
9.80716E-02 4.20450E-28
1.00682E-01 3.88740E-28
1.03323E-01 3.59579E-28
1.05995E-01 3.32746E-28
1.08696E-01 3.08038E-28
1.11427E-01 2.85275E-28
1.14188E-01 2.64291E-28
1.16978E-01 2.44938E-28
1.19797E-01 2.27078E-28
1.22645E-01 2.10588E-28
1.25522E-01 1.95357E-28
1.28428E-01 1.81280E-28
1.31361E-01 1.68266E-28
1.34323E-01 1.56228E-28
1.37313E-01 1.45089E-28
1.40330E-01 1.34777E-28
1.43375E-01 1.25228E-28
1.46447E-01 1.16381E-28
1.49545E-01 1.08182E-28
1.52671E-01 1.00582E-28
1.55823E-01 9.35338E-29
1.59001E-01 8.69956E-29
1.62205E-01 8.09287E-29
1.65435E-01 7.52974E-29
1.68690E-01 7.00691E-29
1.71970E-01 6.52137E-29
1.75276E-01 6.07034E-29
1.78606E-01 5.65126E-29
1.81961E-01 5.26178E-29
1.85340E-01 4.89973E-29
1.88743E-01 4.56311E-29
1.92169E-01 4.25007E-29
1.95619E-01 3.95889E-29
1.99092E-01 3.68800E-29
2.02589E-01 3.43595E-29
2.06107E-01 3.20138E-29
2.09649E-01 2.98304E-29
2.13212E-01 2.77979E-29
2.16797E-01 2.59054E-29
2.20404E-01 2.41432E-29
2.24032E-01 2.25020E-29
2.27680E-01 2.09733E-29
2.31350E-01 1.95493E-29
2.35040E-01 1.82226E-29
2.38751E-01 1.69865E-29
2.42481E-01 1.58346E-29
2.46231E-01 1.47612E-29
2.50000E-01 1.37608E-29
2.53788E-01 1.28283E-29
2.57595E-01 1.19591E-29
2.61421E-01 1.11488E-29
2.65264E-01 1.03934E-29
2.69126E-01 9.68913E-30
2.73005E-01 9.03249E-30
2.76901E-01 8.42023E-30
2.80814E-01 7.84932E-30
2.84744E-01 7.31696E-30
2.88691E-01 6.82053E-30
2.92653E-01 6.35758E-30
2.96632E-01 5.92585E-30
3.00625E-01 5.52322E-30
3.04634E-01 5.14774E-30
3.08658E-01 4.79755E-30
3.12697E-01 4.47097E-30
3.16749E-01 4.16639E-30
3.20816E-01 3.88233E-30
3.24896E-01 3.61742E-30
3.28990E-01 3.37036E-30
3.33097E-01 3.13996E-30
3.37216E-01 2.92509E-30
3.41348E-01 2.72472E-30
3.45492E-01 2.53786E-30
3.49647E-01 2.36362E-30
3.53814E-01 2.20115E-30
3.57992E-01 2.04966E-30
3.62181E-01 1.90841E-30
3.66381E-01 1.77671E-30
3.70590E-01 1.65393E-30
3.74810E-01 1.53947E-30
3.79039E-01 1.43277E-30
3.83277E-01 1.33331E-30
3.87524E-01 1.24060E-30
3.91780E-01 1.15419E-30
3.96044E-01 1.07367E-30
4.00316E-01 9.98627E-31
4.04596E-01 9.28703E-31
4.08882E-01 8.63552E-31
4.13176E-01 8.02854E-31
4.17476E-01 7.46309E-31
4.21783E-01 6.93638E-31
4.26095E-01 6.44581E-31
4.30413E-01 5.98894E-31
4.34737E-01 5.56350E-31
4.39065E-01 5.16738E-31
4.43398E-01 4.79859E-31
4.47736E-01 4.45529E-31
4.52077E-01 4.13576E-31
4.56422E-01 3.83838E-31
4.60770E-01 3.56167E-31
4.65122E-01 3.30421E-31
4.69476E-01 3.06470E-31
4.73832E-01 2.84193E-31
4.78190E-01 2.63475E-31
4.82550E-01 2.44210E-31
4.86912E-01 2.26299E-31
4.91274E-01 2.09650E-31
4.95637E-01 1.94176E-31
5.00000E-01 1.79797E-31
5.04363E-01 1.66438E-31
5.08726E-01 1.54029E-31
5.13088E-01 1.42504E-31
5.17450E-01 1.31803E-31
5.21810E-01 1.21868E-31
5.26168E-01 1.12648E-31
5.30524E-01 1.04091E-31
5.34878E-01 9.61525E-32
5.39230E-01 8.87892E-32
5.43578E-01 8.19611E-32
5.47923E-01 7.56307E-32
5.52264E-01 6.97633E-32
5.56602E-01 6.43264E-32
5.60935E-01 5.92897E-32
5.65263E-01 5.46252E-32
5.69587E-01 5.03064E-32
5.73905E-01 4.63090E-32
5.78217E-01 4.26102E-32
5.82524E-01 3.91887E-32
5.86824E-01 3.60248E-32
5.91118E-01 3.31000E-32
5.95404E-01 3.03972E-32
5.99684E-01 2.79004E-32
6.03956E-01 2.55948E-32
6.08220E-01 2.34666E-32
6.12476E-01 2.15029E-32
6.16723E-01 1.96917E-32
6.20961E-01 1.80219E-32
6.25190E-01 1.64831E-32
6.29410E-01 1.50656E-32
6.33619E-01 1.37607E-32
6.37819E-01 1.25598E-32
6.42008E-01 1.14552E-32
6.46186E-01 1.04399E-32
6.50353E-01 9.50696E-33
6.54508E-01 8.65034E-33
6.58652E-01 7.86423E-33
6.62784E-01 7.14326E-33
6.66903E-01 6.48248E-33
6.71010E-01 5.87727E-33
6.75104E-01 5.32334E-33
6.79184E-01 4.81673E-33
6.83251E-01 4.35376E-33
6.87303E-01 3.93101E-33
6.91342E-01 3.54531E-33
6.95366E-01 3.19373E-33
6.99375E-01 2.87355E-33
7.03368E-01 2.58226E-33
7.07347E-01 2.31752E-33
7.11309E-01 2.07719E-33
7.15256E-01 1.85927E-33
7.19186E-01 1.66190E-33
7.23099E-01 1.48338E-33
7.26995E-01 1.32214E-33
7.30874E-01 1.17672E-33
7.34736E-01 1.04578E-33
7.38579E-01 9.28065E-34
7.42405E-01 8.22435E-34
7.46212E-01 7.27837E-34
7.50000E-01 6.43289E-34
7.53769E-01 5.67900E-34
7.57519E-01 5.00840E-34
7.61249E-01 4.41348E-34
7.64960E-01 3.88724E-34
7.68650E-01 3.42326E-34
7.72320E-01 3.01561E-34
7.75968E-01 2.65886E-34
7.79596E-01 2.34804E-34
7.83203E-01 2.07856E-34
7.86788E-01 1.84626E-34
7.90351E-01 1.64729E-34
7.93893E-01 1.47814E-34
7.97411E-01 1.33564E-34
8.00908E-01 1.21683E-34
8.04381E-01 1.11906E-34
8.07831E-01 1.03989E-34
8.11257E-01 9.77143E-35
8.14660E-01 9.28744E-35
8.18039E-01 8.92898E-35
8.21394E-01 8.68014E-35
8.24724E-01 8.52494E-35
8.28030E-01 8.45022E-35
8.31310E-01 8.44405E-35
8.34565E-01 8.49525E-35
8.37795E-01 8.59357E-35
8.40999E-01 8.73124E-35
8.44177E-01 8.89867E-35
8.47329E-01 9.09065E-35
8.50455E-01 9.29907E-35
8.53553E-01 9.52013E-35
8.56625E-01 9.74757E-35
8.59670E-01 9.97837E-35
8.62687E-01 1.02070E-34
8.65677E-01 1.04320E-34
8.68639E-01 1.06493E-34
8.71572E-01 1.08566E-34
8.74478E-01 1.10527E-34
8.77355E-01 1.12354E-34
8.80203E-01 1.14030E-34
8.83022E-01 1.15546E-34
8.85812E-01 1.16892E-34
8.88573E-01 1.18061E-34
8.91304E-01 1.19051E-34
8.94005E-01 1.19853E-34
8.96677E-01 1.20474E-34
8.99318E-01 1.20904E-34
9.01928E-01 1.21151E-34
9.04508E-01 1.21218E-34
9.07058E-01 1.21103E-34
9.09576E-01 1.20808E-34
9.12063E-01 1.20347E-34
9.14519E-01 1.19712E-34
9.16943E-01 1.18921E-34
9.19335E-01 1.17972E-34
9.21696E-01 1.16875E-34
9.24024E-01 1.15633E-34
9.26320E-01 1.14255E-34
9.28584E-01 1.12756E-34
9.30815E-01 1.11129E-34
9.33013E-01 1.09388E-34
9.35178E-01 1.07541E-34
9.37310E-01 1.05591E-34
9.39409E-01 1.03559E-34
9.41474E-01 1.01428E-34
9.43505E-01 9.92297E-35
9.45503E-01 9.69542E-35
9.47467E-01 9.46190E-35
9.49397E-01 9.22225E-35
9.51293E-01 8.97736E-35
9.53154E-01 8.72866E-35
9.54981E-01 8.47549E-35
9.56773E-01 8.21933E-35
9.58530E-01 7.96073E-35
9.60252E-01 7.70043E-35
9.61940E-01 7.43767E-35
9.63592E-01 7.17508E-35
9.65209E-01 6.91133E-35
9.66790E-01 6.64799E-35
9.68336E-01 6.38531E-35
9.69846E-01 6.12377E-35
9.71321E-01 5.86379E-35
9.72759E-01 5.60543E-35
9.74162E-01 5.34976E-35
9.75528E-01 5.09686E-35
9.76858E-01 4.84699E-35
9.78152E-01 4.60062E-35
9.79410E-01 4.35818E-35
9.80631E-01 4.11983E-35
9.81815E-01 3.88639E-35
9.82963E-01 3.65729E-35
9.84074E-01 3.43314E-35
9.85148E-01 3.21459E-35
9.86185E-01 3.00172E-35
9.87185E-01 2.79500E-35
9.88148E-01 2.59387E-35
9.89074E-01 2.39913E-35
9.89962E-01 2.21118E-35
9.90814E-01 2.02942E-35
9.91627E-01 1.85535E-35
9.92404E-01 1.68766E-35
9.93143E-01 1.52721E-35
9.93844E-01 1.37450E-35
9.94508E-01 1.22911E-35
9.95134E-01 1.09129E-35
9.95722E-01 9.61423E-36
9.96273E-01 8.39606E-36
9.96786E-01 7.25297E-36
9.97261E-01 6.19341E-36
9.97698E-01 5.21517E-36
9.98097E-01 4.31963E-36
9.98459E-01 3.50763E-36
9.98782E-01 2.77775E-36
9.99067E-01 2.13288E-36
9.99315E-01 1.57339E-36
9.99524E-01 1.10001E-36
9.99695E-01 7.13044E-37
9.99829E-01 4.09200E-37
9.99924E-01 1.93646E-37
9.99981E-01 6.33164E-38
1.00000E+00 2.04864E-38
