 #
 # Subroutine ELSEPA. Elastic scattering of electrons and positrons
 #                    by neutral atoms and positive ions
 #
 # Projectile: positron
 # Kinetic energy = 6.00000E+06 eV = 2.20496E+05 a.u.
 #
 # WARNING: High-energy factorization with free-atom DF screening.
 #          Absorption, polarization and exchange corrections are
 #          switched off.
 #          Phase shifts are calculated for the bare nucleus.
 #          Scattering amplitudes are not evaluated.
 #
 # Element:  O,  Z =   8,  atomic weight = 1.59994E+01 g/mol
 #
 # Nuclear model: Fermi distribution
 #                Average radius = 2.69620E-13 cm
 #                Skin thickness = 5.46000E-14 cm
 #
 # Number of electrons =  8
 #
 # Total elastic cross section = 2.75749E-19 cm**2 = 9.84717E-03 a0**2
 # 1st transport cross section = 2.44302E-24 cm**2 = 8.72419E-08 a0**2
 # 2nd transport cross section = 7.04601E-24 cm**2 = 2.51618E-07 a0**2
 #
 #
 # Differential cross section:                       MU=(1-COS(THETA))/2
 #
 #  THETA        MU          DCS          DCS        Sherman      error
 #  (deg)                 (cm**2/sr)   (a0**2/sr)    function
 #----------------------------------------------------------------------
0.00000E+00 6.39614E-14
7.61557E-13 6.39610E-14
1.18994E-12 6.39609E-14
1.71346E-12 6.39607E-14
2.33225E-12 6.39605E-14
3.04617E-12 6.39602E-14
3.85530E-12 6.39599E-14
4.75964E-12 6.39596E-14
5.75917E-12 6.39592E-14
6.85391E-12 6.39589E-14
8.04379E-12 6.39584E-14
9.32893E-12 6.39580E-14
1.07092E-11 6.39575E-14
1.21847E-11 6.39570E-14
1.37554E-11 6.39564E-14
1.54213E-11 6.39559E-14
1.71823E-11 6.39552E-14
1.90386E-11 6.39546E-14
2.09900E-11 6.39539E-14
2.30367E-11 6.39532E-14
2.51785E-11 6.39525E-14
2.74156E-11 6.39517E-14
2.97478E-11 6.39509E-14
3.21752E-11 6.39500E-14
3.46979E-11 6.39492E-14
3.73157E-11 6.39482E-14
4.00286E-11 6.39473E-14
4.28368E-11 6.39463E-14
4.57402E-11 6.39453E-14
4.87388E-11 6.39443E-14
5.18325E-11 6.39432E-14
5.50215E-11 6.39421E-14
5.83057E-11 6.39410E-14
6.16850E-11 6.39398E-14
6.51595E-11 6.39386E-14
6.87293E-11 6.39374E-14
7.23943E-11 6.39361E-14
7.61544E-11 6.39348E-14
1.18991E-10 6.39201E-14
1.71347E-10 6.39021E-14
2.33223E-10 6.38809E-14
3.04617E-10 6.38564E-14
3.85531E-10 6.38288E-14
4.75965E-10 6.37978E-14
5.75917E-10 6.37638E-14
6.85389E-10 6.37264E-14
8.04380E-10 6.36859E-14
9.32891E-10 6.36422E-14
1.07092E-09 6.35953E-14
1.21847E-09 6.35452E-14
1.37554E-09 6.34920E-14
1.54213E-09 6.34357E-14
1.71823E-09 6.33762E-14
1.90386E-09 6.33136E-14
2.09900E-09 6.32478E-14
2.30367E-09 6.31791E-14
2.51785E-09 6.31071E-14
2.74156E-09 6.30323E-14
2.97478E-09 6.29541E-14
3.21752E-09 6.28732E-14
3.46978E-09 6.27891E-14
3.73156E-09 6.27021E-14
4.00286E-09 6.26121E-14
4.28368E-09 6.25191E-14
4.57402E-09 6.24233E-14
4.87388E-09 6.23244E-14
5.18326E-09 6.22229E-14
5.50215E-09 6.21180E-14
5.83057E-09 6.20110E-14
6.16850E-09 6.19004E-14
6.51596E-09 6.17875E-14
6.87293E-09 6.16715E-14
7.23942E-09 6.15530E-14
7.61544E-09 6.14316E-14
1.18991E-08 6.00739E-14
1.71347E-08 5.84729E-14
2.33223E-08 5.66611E-14
3.04617E-08 5.46688E-14
3.85531E-08 5.24796E-14
4.75965E-08 5.01504E-14
5.75917E-08 4.79508E-14
6.85389E-08 4.54480E-14
8.04380E-08 4.31696E-14
9.32891E-08 4.06913E-14
1.07092E-07 3.84033E-14
1.21847E-07 3.60633E-14
1.37554E-07 3.38445E-14
1.54213E-07 3.16940E-14
1.71823E-07 2.96037E-14
1.90386E-07 2.76656E-14
2.09900E-07 2.57426E-14
2.30367E-07 2.40208E-14
2.51785E-07 2.22856E-14
2.74156E-07 2.07530E-14
2.97478E-07 1.92308E-14
3.21752E-07 1.78676E-14
3.46978E-07 1.65587E-14
3.73156E-07 1.53604E-14
4.00286E-07 1.42399E-14
4.28368E-07 1.31960E-14
4.57402E-07 1.22398E-14
4.87388E-07 1.13368E-14
5.18325E-07 1.05223E-14
5.50215E-07 9.74541E-15
5.83057E-07 9.04990E-15
6.16850E-07 8.38639E-15
6.51596E-07 7.78866E-15
6.87293E-07 7.22753E-15
7.23942E-07 6.71519E-15
7.61543E-07 6.24004E-15
1.18991E-06 3.09746E-15
1.71347E-06 1.64619E-15
2.33223E-06 9.38605E-16
3.04617E-06 5.70690E-16
3.85531E-06 3.66870E-16
4.75964E-06 2.47246E-16
5.75916E-06 1.73275E-16
6.85388E-06 1.25452E-16
8.04378E-06 9.33204E-17
9.32888E-06 7.10150E-17
1.07092E-05 5.50766E-17
1.21846E-05 4.34202E-17
1.37553E-05 3.47181E-17
1.54212E-05 2.81051E-17
1.71822E-05 2.30004E-17
1.90385E-05 1.90107E-17
2.09899E-05 1.58453E-17
2.30365E-05 1.33081E-17
2.51783E-05 1.12566E-17
2.74153E-05 9.58412E-18
2.97475E-05 8.20989E-18
3.21749E-05 7.07236E-18
3.46974E-05 6.12421E-18
3.73152E-05 5.32875E-18
4.00281E-05 4.65712E-18
4.28362E-05 4.08706E-18
4.57395E-05 3.60088E-18
4.87380E-05 3.18428E-18
5.18317E-05 2.82580E-18
5.50205E-05 2.51606E-18
5.83045E-05 2.24739E-18
6.16838E-05 2.01341E-18
6.51582E-05 1.80893E-18
6.87277E-05 1.62960E-18
7.23925E-05 1.47181E-18
7.61524E-05 1.33253E-18
9.21439E-05 9.15444E-19
1.09658E-04 6.49058E-19
1.28695E-04 4.72588E-19
1.49255E-04 3.52082E-19
1.71338E-04 2.67576E-19
1.94942E-04 2.06915E-19
2.20070E-04 1.62492E-19
2.46720E-04 1.29354E-19
2.74892E-04 1.04241E-19
3.04586E-04 8.49301E-20
3.35803E-04 6.98859E-20
3.68542E-04 5.80281E-20
4.02802E-04 4.85789E-20
4.38585E-04 4.09764E-20
4.75889E-04 3.48030E-20
5.14715E-04 2.97490E-20
5.55063E-04 2.55795E-20
5.96931E-04 2.21149E-20
6.40321E-04 1.92173E-20
6.85233E-04 1.67787E-20
7.31665E-04 1.47147E-20
7.79618E-04 1.29584E-20
8.29092E-04 1.14563E-20
8.80086E-04 1.01656E-20
9.32601E-04 9.05146E-21
9.86636E-04 8.08583E-21
1.04219E-03 7.24549E-21
1.09927E-03 6.51140E-21
1.15786E-03 5.86791E-21
1.21797E-03 5.30192E-21
1.27961E-03 4.80254E-21
1.34276E-03 4.36053E-21
1.40743E-03 3.96821E-21
1.47362E-03 3.61900E-21
1.54133E-03 3.30735E-21
1.61056E-03 3.02852E-21
1.68131E-03 2.77843E-21
1.75357E-03 2.55362E-21
1.82735E-03 2.35108E-21
1.90265E-03 2.16821E-21
1.97947E-03 2.00276E-21
2.05780E-03 1.85279E-21
2.13765E-03 1.71659E-21
2.21902E-03 1.59266E-21
2.30190E-03 1.47971E-21
2.38630E-03 1.37659E-21
2.47222E-03 1.28228E-21
2.55965E-03 1.19591E-21
2.64859E-03 1.11669E-21
2.73905E-03 1.04391E-21
2.83103E-03 9.76960E-22
2.92452E-03 9.15286E-22
3.01952E-03 8.58399E-22
3.11604E-03 8.05858E-22
3.21407E-03 7.57273E-22
3.31362E-03 7.12290E-22
3.41468E-03 6.70596E-22
3.51725E-03 6.31904E-22
3.62133E-03 5.95960E-22
3.72692E-03 5.62533E-22
3.83403E-03 5.31414E-22
3.94265E-03 5.02415E-22
4.05278E-03 4.75365E-22
4.16442E-03 4.50109E-22
4.27757E-03 4.26507E-22
4.39223E-03 4.04429E-22
4.50840E-03 3.83760E-22
4.62608E-03 3.64392E-22
4.74527E-03 3.46230E-22
4.86597E-03 3.29184E-22
4.98817E-03 3.13172E-22
5.11188E-03 2.98121E-22
5.23711E-03 2.83962E-22
5.36383E-03 2.70633E-22
5.49207E-03 2.58075E-22
5.62181E-03 2.46237E-22
5.75306E-03 2.35068E-22
5.88581E-03 2.24525E-22
6.02007E-03 2.14565E-22
6.15583E-03 2.05151E-22
6.29310E-03 1.96246E-22
6.43187E-03 1.87819E-22
6.57214E-03 1.79838E-22
6.71392E-03 1.72277E-22
6.85720E-03 1.65107E-22
7.00198E-03 1.58307E-22
7.14827E-03 1.51852E-22
7.29605E-03 1.45722E-22
7.44534E-03 1.39898E-22
7.59612E-03 1.34362E-22
7.97965E-03 1.21671E-22
8.37255E-03 1.10441E-22
8.77480E-03 1.00475E-22
9.18641E-03 9.16059E-23
9.60736E-03 8.36925E-23
1.00376E-02 7.66138E-23
1.04773E-02 7.02665E-23
1.09262E-02 6.45617E-23
1.13844E-02 5.94230E-23
1.18520E-02 5.47845E-23
1.23288E-02 5.05888E-23
1.28150E-02 4.67862E-23
1.33104E-02 4.33335E-23
1.38150E-02 4.01927E-23
1.43290E-02 3.73307E-23
1.48521E-02 3.47182E-23
1.53845E-02 3.23298E-23
1.59262E-02 3.01426E-23
1.64770E-02 2.81369E-23
1.70371E-02 2.62947E-23
1.76063E-02 2.46004E-23
1.81848E-02 2.30400E-23
1.87724E-02 2.16010E-23
1.93692E-02 2.02723E-23
1.99751E-02 1.90438E-23
2.05901E-02 1.79067E-23
2.12143E-02 1.68530E-23
2.18476E-02 1.58753E-23
2.24900E-02 1.49673E-23
2.31415E-02 1.41230E-23
2.38021E-02 1.33372E-23
2.44717E-02 1.26051E-23
2.51504E-02 1.19224E-23
2.58382E-02 1.12851E-23
2.65349E-02 1.06896E-23
2.72407E-02 1.01327E-23
2.79555E-02 9.61151E-24
2.86793E-02 9.12323E-24
2.94120E-02 8.66543E-24
3.01537E-02 8.23586E-24
3.09043E-02 7.83246E-24
3.16639E-02 7.45335E-24
3.24324E-02 7.09679E-24
3.32098E-02 6.76120E-24
3.39961E-02 6.44511E-24
3.47912E-02 6.14719E-24
3.55952E-02 5.86620E-24
3.64081E-02 5.60100E-24
3.72297E-02 5.35054E-24
3.80602E-02 5.11385E-24
3.88995E-02 4.89003E-24
3.97476E-02 4.67825E-24
4.06044E-02 4.47775E-24
4.14700E-02 4.28782E-24
4.23443E-02 4.10779E-24
4.32273E-02 3.93705E-24
4.41190E-02 3.77504E-24
4.50194E-02 3.62123E-24
4.59284E-02 3.47512E-24
4.68461E-02 3.33626E-24
4.87074E-02 3.07861E-24
5.06030E-02 2.84520E-24
5.25328E-02 2.63335E-24
5.44967E-02 2.44072E-24
5.64946E-02 2.26527E-24
5.85262E-02 2.10518E-24
6.05914E-02 1.95889E-24
6.26901E-02 1.82499E-24
6.48222E-02 1.70224E-24
6.69873E-02 1.58956E-24
6.91854E-02 1.48597E-24
7.14163E-02 1.39061E-24
7.36799E-02 1.30271E-24
7.59760E-02 1.22158E-24
7.83043E-02 1.14661E-24
8.06647E-02 1.07725E-24
8.30571E-02 1.01300E-24
8.54812E-02 9.53422E-25
8.79369E-02 8.98113E-25
9.04240E-02 8.46712E-25
9.29422E-02 7.98895E-25
9.54915E-02 7.54367E-25
9.80716E-02 7.12862E-25
1.00682E-01 6.74138E-25
1.03323E-01 6.37974E-25
1.05995E-01 6.04172E-25
1.08696E-01 5.72550E-25
1.11427E-01 5.42942E-25
1.14188E-01 5.15196E-25
1.16978E-01 4.89175E-25
1.19797E-01 4.64752E-25
1.22645E-01 4.41812E-25
1.25522E-01 4.20248E-25
1.28428E-01 3.99963E-25
1.31361E-01 3.80867E-25
1.34323E-01 3.62878E-25
1.37313E-01 3.45921E-25
1.40330E-01 3.29926E-25
1.43375E-01 3.14828E-25
1.46447E-01 3.00569E-25
1.49545E-01 2.87092E-25
1.52671E-01 2.74348E-25
1.55823E-01 2.62289E-25
1.59001E-01 2.50873E-25
1.62205E-01 2.40058E-25
1.65435E-01 2.29807E-25
1.68690E-01 2.20086E-25
1.71970E-01 2.10863E-25
1.75276E-01 2.02106E-25
1.78606E-01 1.93789E-25
1.81961E-01 1.85886E-25
1.85340E-01 1.78371E-25
1.88743E-01 1.71224E-25
1.92169E-01 1.64421E-25
1.95619E-01 1.57945E-25
1.99092E-01 1.51776E-25
2.02589E-01 1.45897E-25
2.06107E-01 1.40292E-25
2.09649E-01 1.34947E-25
2.13212E-01 1.29846E-25
2.16797E-01 1.24977E-25
2.20404E-01 1.20328E-25
2.24032E-01 1.15886E-25
2.27680E-01 1.11640E-25
2.31350E-01 1.07582E-25
2.35040E-01 1.03700E-25
2.38751E-01 9.99855E-26
2.42481E-01 9.64305E-26
2.46231E-01 9.30267E-26
2.50000E-01 8.97666E-26
2.53788E-01 8.66429E-26
2.57595E-01 8.36490E-26
2.61421E-01 8.07784E-26
2.65264E-01 7.80253E-26
2.69126E-01 7.53840E-26
2.73005E-01 7.28491E-26
2.76901E-01 7.04155E-26
2.80814E-01 6.80786E-26
2.84744E-01 6.58337E-26
2.88691E-01 6.36767E-26
2.92653E-01 6.16035E-26
2.96632E-01 5.96103E-26
3.00625E-01 5.76933E-26
3.04634E-01 5.58493E-26
3.08658E-01 5.40749E-26
3.12697E-01 5.23671E-26
3.16749E-01 5.07229E-26
3.20816E-01 4.91395E-26
3.24896E-01 4.76143E-26
3.28990E-01 4.61447E-26
3.33097E-01 4.47285E-26
3.37216E-01 4.33633E-26
3.41348E-01 4.20469E-26
3.45492E-01 4.07774E-26
3.49647E-01 3.95527E-26
3.53814E-01 3.83710E-26
3.57992E-01 3.72305E-26
3.62181E-01 3.61295E-26
3.66381E-01 3.50665E-26
3.70590E-01 3.40399E-26
3.74810E-01 3.30483E-26
3.79039E-01 3.20901E-26
3.83277E-01 3.11642E-26
3.87524E-01 3.02693E-26
3.91780E-01 2.94040E-26
3.96044E-01 2.85674E-26
4.00316E-01 2.77582E-26
4.04596E-01 2.69754E-26
4.08882E-01 2.62181E-26
4.13176E-01 2.54852E-26
4.17476E-01 2.47758E-26
4.21783E-01 2.40890E-26
4.26095E-01 2.34240E-26
4.30413E-01 2.27800E-26
4.34737E-01 2.21563E-26
4.39065E-01 2.15520E-26
4.43398E-01 2.09664E-26
4.47736E-01 2.03989E-26
4.52077E-01 1.98489E-26
4.56422E-01 1.93157E-26
4.60770E-01 1.87986E-26
4.65122E-01 1.82972E-26
4.69476E-01 1.78109E-26
4.73832E-01 1.73391E-26
4.78190E-01 1.68814E-26
4.82550E-01 1.64372E-26
4.86912E-01 1.60061E-26
4.91274E-01 1.55877E-26
4.95637E-01 1.51814E-26
5.00000E-01 1.47870E-26
5.04363E-01 1.44039E-26
5.08726E-01 1.40319E-26
5.13088E-01 1.36705E-26
5.17450E-01 1.33194E-26
5.21810E-01 1.29782E-26
5.26168E-01 1.26467E-26
5.30524E-01 1.23245E-26
5.34878E-01 1.20112E-26
5.39230E-01 1.17067E-26
5.43578E-01 1.14107E-26
5.47923E-01 1.11227E-26
5.52264E-01 1.08427E-26
5.56602E-01 1.05704E-26
5.60935E-01 1.03054E-26
5.65263E-01 1.00476E-26
5.69587E-01 9.79682E-27
5.73905E-01 9.55273E-27
5.78217E-01 9.31516E-27
5.82524E-01 9.08392E-27
5.86824E-01 8.85881E-27
5.91118E-01 8.63964E-27
5.95404E-01 8.42623E-27
5.99684E-01 8.21842E-27
6.03956E-01 8.01602E-27
6.08220E-01 7.81887E-27
6.12476E-01 7.62683E-27
6.16723E-01 7.43974E-27
6.20961E-01 7.25744E-27
6.25190E-01 7.07981E-27
6.29410E-01 6.90671E-27
6.33619E-01 6.73799E-27
6.37819E-01 6.57354E-27
6.42008E-01 6.41323E-27
6.46186E-01 6.25694E-27
6.50353E-01 6.10456E-27
6.54508E-01 5.95598E-27
6.58652E-01 5.81108E-27
6.62784E-01 5.66977E-27
6.66903E-01 5.53194E-27
6.71010E-01 5.39750E-27
6.75104E-01 5.26634E-27
6.79184E-01 5.13839E-27
6.83251E-01 5.01354E-27
6.87303E-01 4.89173E-27
6.91342E-01 4.77285E-27
6.95366E-01 4.65684E-27
6.99375E-01 4.54361E-27
7.03368E-01 4.43309E-27
7.07347E-01 4.32521E-27
7.11309E-01 4.21989E-27
7.15256E-01 4.11707E-27
7.19186E-01 4.01668E-27
7.23099E-01 3.91866E-27
7.26995E-01 3.82294E-27
7.30874E-01 3.72946E-27
7.34736E-01 3.63817E-27
7.38579E-01 3.54901E-27
7.42405E-01 3.46192E-27
7.46212E-01 3.37686E-27
7.50000E-01 3.29375E-27
7.53769E-01 3.21257E-27
7.57519E-01 3.13326E-27
7.61249E-01 3.05577E-27
7.64960E-01 2.98005E-27
7.68650E-01 2.90606E-27
7.72320E-01 2.83377E-27
7.75968E-01 2.76311E-27
7.79596E-01 2.69407E-27
7.83203E-01 2.62658E-27
7.86788E-01 2.56063E-27
7.90351E-01 2.49617E-27
7.93893E-01 2.43315E-27
7.97411E-01 2.37156E-27
8.00908E-01 2.31135E-27
8.04381E-01 2.25249E-27
8.07831E-01 2.19496E-27
8.11257E-01 2.13870E-27
8.14660E-01 2.08371E-27
8.18039E-01 2.02994E-27
8.21394E-01 1.97737E-27
8.24724E-01 1.92597E-27
8.28030E-01 1.87572E-27
8.31310E-01 1.82658E-27
8.34565E-01 1.77853E-27
8.37795E-01 1.73155E-27
8.40999E-01 1.68561E-27
8.44177E-01 1.64069E-27
8.47329E-01 1.59676E-27
8.50455E-01 1.55381E-27
8.53553E-01 1.51181E-27
8.56625E-01 1.47074E-27
8.59670E-01 1.43058E-27
8.62687E-01 1.39131E-27
8.65677E-01 1.35291E-27
8.68639E-01 1.31536E-27
8.71572E-01 1.27865E-27
8.74478E-01 1.24275E-27
8.77355E-01 1.20765E-27
8.80203E-01 1.17333E-27
8.83022E-01 1.13977E-27
8.85812E-01 1.10697E-27
8.88573E-01 1.07489E-27
8.91304E-01 1.04354E-27
8.94005E-01 1.01289E-27
8.96677E-01 9.82925E-28
8.99318E-01 9.53638E-28
9.01928E-01 9.25012E-28
9.04508E-01 8.97035E-28
9.07058E-01 8.69693E-28
9.09576E-01 8.42974E-28
9.12063E-01 8.16866E-28
9.14519E-01 7.91357E-28
9.16943E-01 7.66435E-28
9.19335E-01 7.42090E-28
9.21696E-01 7.18310E-28
9.24024E-01 6.95086E-28
9.26320E-01 6.72406E-28
9.28584E-01 6.50260E-28
9.30815E-01 6.28640E-28
9.33013E-01 6.07534E-28
9.35178E-01 5.86935E-28
9.37310E-01 5.66834E-28
9.39409E-01 5.47220E-28
9.41474E-01 5.28087E-28
9.43505E-01 5.09426E-28
9.45503E-01 4.91229E-28
9.47467E-01 4.73487E-28
9.49397E-01 4.56194E-28
9.51293E-01 4.39343E-28
9.53154E-01 4.22926E-28
9.54981E-01 4.06936E-28
9.56773E-01 3.91366E-28
9.58530E-01 3.76210E-28
9.60252E-01 3.61462E-28
9.61940E-01 3.47116E-28
9.63592E-01 3.33165E-28
9.65209E-01 3.19605E-28
9.66790E-01 3.06428E-28
9.68336E-01 2.93630E-28
9.69846E-01 2.81206E-28
9.71321E-01 2.69151E-28
9.72759E-01 2.57459E-28
9.74162E-01 2.46126E-28
9.75528E-01 2.35147E-28
9.76858E-01 2.24518E-28
9.78152E-01 2.14235E-28
9.79410E-01 2.04293E-28
9.80631E-01 1.94689E-28
9.81815E-01 1.85418E-28
9.82963E-01 1.76477E-28
9.84074E-01 1.67863E-28
9.85148E-01 1.59571E-28
9.86185E-01 1.51599E-28
9.87185E-01 1.43943E-28
9.88148E-01 1.36601E-28
9.89074E-01 1.29570E-28
9.89962E-01 1.22846E-28
9.90814E-01 1.16427E-28
9.91627E-01 1.10311E-28
9.92404E-01 1.04495E-28
9.93143E-01 9.89774E-29
9.93844E-01 9.37550E-29
9.94508E-01 8.88265E-29
9.95134E-01 8.41897E-29
9.95722E-01 7.98428E-29
9.96273E-01 7.57842E-29
9.96786E-01 7.20124E-29
9.97261E-01 6.85258E-29
9.97698E-01 6.53231E-29
9.98097E-01 6.24030E-29
9.98459E-01 5.97644E-29
9.98782E-01 5.74064E-29
9.99067E-01 5.53278E-29
9.99315E-01 5.35279E-29
9.99524E-01 5.20061E-29
9.99695E-01 5.07618E-29
9.99829E-01 4.97947E-29
9.99924E-01 4.91040E-29
9.99981E-01 4.86898E-29
1.00000E+00 4.85514E-29
