 #
 # Subroutine ELSEPA. Elastic scattering of electrons and positrons
 #                    by neutral atoms and positive ions
 #
 # Projectile: positron
 # Kinetic energy = 4.00000E+06 eV = 1.46997E+05 a.u.
 #
 # WARNING: High-energy factorization with free-atom DF screening.
 #          Absorption, polarization and exchange corrections are
 #          switched off.
 #          Phase shifts are calculated for the bare nucleus.
 #          Scattering amplitudes are not evaluated.
 #
 # Element:  O,  Z =   8,  atomic weight = 1.59994E+01 g/mol
 #
 # Nuclear model: Fermi distribution
 #                Average radius = 2.69620E-13 cm
 #                Skin thickness = 5.46000E-14 cm
 #
 # Number of electrons =  8
 #
 # Total elastic cross section = 2.77348E-19 cm**2 = 9.90426E-03 a0**2
 # 1st transport cross section = 4.85118E-24 cm**2 = 1.73239E-07 a0**2
 # 2nd transport cross section = 1.39504E-23 cm**2 = 4.98179E-07 a0**2
 #
 #
 # Differential cross section:                       MU=(1-COS(THETA))/2
 #
 #  THETA        MU          DCS          DCS        Sherman      error
 #  (deg)                 (cm**2/sr)   (a0**2/sr)    function
 #----------------------------------------------------------------------
0.00000E+00 3.07021E-14
7.61557E-13 3.07020E-14
1.18994E-12 3.07020E-14
1.71346E-12 3.07019E-14
2.33225E-12 3.07019E-14
3.04617E-12 3.07018E-14
3.85530E-12 3.07017E-14
4.75964E-12 3.07017E-14
5.75917E-12 3.07016E-14
6.85391E-12 3.07015E-14
8.04379E-12 3.07014E-14
9.32893E-12 3.07013E-14
1.07092E-11 3.07012E-14
1.21847E-11 3.07011E-14
1.37554E-11 3.07009E-14
1.54213E-11 3.07008E-14
1.71823E-11 3.07007E-14
1.90386E-11 3.07005E-14
2.09900E-11 3.07003E-14
2.30367E-11 3.07002E-14
2.51785E-11 3.07000E-14
2.74156E-11 3.06998E-14
2.97478E-11 3.06996E-14
3.21752E-11 3.06994E-14
3.46979E-11 3.06992E-14
3.73157E-11 3.06990E-14
4.00286E-11 3.06988E-14
4.28368E-11 3.06986E-14
4.57402E-11 3.06984E-14
4.87388E-11 3.06981E-14
5.18325E-11 3.06979E-14
5.50215E-11 3.06976E-14
5.83057E-11 3.06974E-14
6.16850E-11 3.06971E-14
6.51595E-11 3.06968E-14
6.87293E-11 3.06965E-14
7.23943E-11 3.06962E-14
7.61544E-11 3.06959E-14
1.18991E-10 3.06926E-14
1.71347E-10 3.06884E-14
2.33223E-10 3.06835E-14
3.04617E-10 3.06779E-14
3.85531E-10 3.06716E-14
4.75965E-10 3.06645E-14
5.75917E-10 3.06566E-14
6.85389E-10 3.06480E-14
8.04380E-10 3.06387E-14
9.32891E-10 3.06287E-14
1.07092E-09 3.06179E-14
1.21847E-09 3.06063E-14
1.37554E-09 3.05941E-14
1.54213E-09 3.05811E-14
1.71823E-09 3.05674E-14
1.90386E-09 3.05529E-14
2.09900E-09 3.05377E-14
2.30367E-09 3.05218E-14
2.51785E-09 3.05052E-14
2.74156E-09 3.04878E-14
2.97478E-09 3.04698E-14
3.21752E-09 3.04510E-14
3.46978E-09 3.04314E-14
3.73156E-09 3.04112E-14
4.00286E-09 3.03903E-14
4.28368E-09 3.03686E-14
4.57402E-09 3.03463E-14
4.87388E-09 3.03232E-14
5.18326E-09 3.02994E-14
5.50215E-09 3.02750E-14
5.83057E-09 3.02498E-14
6.16850E-09 3.02239E-14
6.51596E-09 3.01973E-14
6.87293E-09 3.01702E-14
7.23942E-09 3.01421E-14
7.61544E-09 3.01135E-14
1.18991E-08 2.97902E-14
1.71347E-08 2.94021E-14
2.33223E-08 2.89529E-14
3.04617E-08 2.84468E-14
3.85531E-08 2.78887E-14
4.75965E-08 2.72838E-14
5.75917E-08 2.66372E-14
6.85389E-08 2.59546E-14
8.04380E-08 2.52174E-14
9.32891E-08 2.44369E-14
1.07092E-07 2.36901E-14
1.21847E-07 2.29563E-14
1.37554E-07 2.21188E-14
1.54213E-07 2.13329E-14
1.71823E-07 2.05978E-14
1.90386E-07 1.97545E-14
2.09900E-07 1.89668E-14
2.30367E-07 1.82373E-14
2.51785E-07 1.74451E-14
2.74156E-07 1.66856E-14
2.97478E-07 1.59861E-14
3.21752E-07 1.52633E-14
3.46978E-07 1.45532E-14
3.73156E-07 1.39011E-14
4.00286E-07 1.32553E-14
4.28368E-07 1.26077E-14
4.57402E-07 1.20136E-14
4.87388E-07 1.14452E-14
5.18325E-07 1.08661E-14
5.50215E-07 1.03348E-14
5.83057E-07 9.84008E-15
6.16850E-07 9.33019E-15
6.51596E-07 8.86192E-15
6.87293E-07 8.43127E-15
7.23942E-07 7.99126E-15
7.61543E-07 7.58335E-15
1.18991E-06 4.49785E-15
1.71347E-06 2.70046E-15
2.33223E-06 1.66332E-15
3.04617E-06 1.05813E-15
3.85531E-06 6.96340E-16
4.75964E-06 4.73787E-16
5.75916E-06 3.32563E-16
6.85388E-06 2.40112E-16
8.04378E-06 1.77812E-16
9.32888E-06 1.34700E-16
1.07092E-05 1.04071E-16
1.21846E-05 8.18232E-17
1.37553E-05 6.53272E-17
1.54212E-05 5.28688E-17
1.71822E-05 4.33012E-17
1.90385E-05 3.58442E-17
2.09899E-05 2.99448E-17
2.30365E-05 2.52277E-17
2.51783E-05 2.14165E-17
2.74153E-05 1.83047E-17
2.97475E-05 1.57414E-17
3.21749E-05 1.36160E-17
3.46974E-05 1.18402E-17
3.73152E-05 1.03461E-17
4.00281E-05 9.07915E-18
4.28362E-05 7.99965E-18
4.57395E-05 7.07575E-18
4.87380E-05 6.28119E-18
5.18317E-05 5.59482E-18
5.50205E-05 4.99844E-18
5.83045E-05 4.47933E-18
6.16838E-05 4.02574E-18
6.51582E-05 3.62792E-18
6.87277E-05 3.27767E-18
7.23925E-05 2.96811E-18
7.61524E-05 2.69400E-18
9.21439E-05 1.86712E-18
1.09658E-04 1.33298E-18
1.28695E-04 9.75826E-19
1.49255E-04 7.30067E-19
1.71338E-04 5.56684E-19
1.94942E-04 4.31615E-19
2.20070E-04 3.39660E-19
2.46720E-04 2.70846E-19
2.74892E-04 2.18560E-19
3.04586E-04 1.78267E-19
3.35803E-04 1.46821E-19
3.68542E-04 1.21999E-19
4.02802E-04 1.02195E-19
4.38585E-04 8.62459E-20
4.75889E-04 7.32838E-20
5.14715E-04 6.26642E-20
5.55063E-04 5.38977E-20
5.96931E-04 4.66095E-20
6.40321E-04 4.05115E-20
6.85233E-04 3.53774E-20
7.31665E-04 3.10308E-20
7.79618E-04 2.73308E-20
8.29092E-04 2.41656E-20
8.80086E-04 2.14454E-20
9.32601E-04 1.90968E-20
9.86636E-04 1.70609E-20
1.04219E-03 1.52889E-20
1.09927E-03 1.37410E-20
1.15786E-03 1.23839E-20
1.21797E-03 1.11901E-20
1.27961E-03 1.01367E-20
1.34276E-03 9.20422E-21
1.40743E-03 8.37647E-21
1.47362E-03 7.63964E-21
1.54133E-03 6.98199E-21
1.61056E-03 6.39357E-21
1.68131E-03 5.86578E-21
1.75357E-03 5.39132E-21
1.82735E-03 4.96382E-21
1.90265E-03 4.57783E-21
1.97947E-03 4.22861E-21
2.05780E-03 3.91202E-21
2.13765E-03 3.62450E-21
2.21902E-03 3.36288E-21
2.30190E-03 3.12440E-21
2.38630E-03 2.90667E-21
2.47222E-03 2.70757E-21
2.55965E-03 2.52521E-21
2.64859E-03 2.35793E-21
2.73905E-03 2.20426E-21
2.83103E-03 2.06290E-21
2.92452E-03 1.93268E-21
3.01952E-03 1.81257E-21
3.11604E-03 1.70163E-21
3.21407E-03 1.59904E-21
3.31362E-03 1.50406E-21
3.41468E-03 1.41603E-21
3.51725E-03 1.33433E-21
3.62133E-03 1.25843E-21
3.72692E-03 1.18785E-21
3.83403E-03 1.12215E-21
3.94265E-03 1.06091E-21
4.05278E-03 1.00380E-21
4.16442E-03 9.50470E-22
4.27757E-03 9.00632E-22
4.39223E-03 8.54014E-22
4.50840E-03 8.10370E-22
4.62608E-03 7.69475E-22
4.74527E-03 7.31125E-22
4.86597E-03 6.95130E-22
4.98817E-03 6.61321E-22
5.11188E-03 6.29540E-22
5.23711E-03 5.99642E-22
5.36383E-03 5.71497E-22
5.49207E-03 5.44980E-22
5.62181E-03 5.19982E-22
5.75306E-03 4.96399E-22
5.88581E-03 4.74135E-22
6.02007E-03 4.53105E-22
6.15583E-03 4.33225E-22
6.29310E-03 4.14422E-22
6.43187E-03 3.96627E-22
6.57214E-03 3.79775E-22
6.71392E-03 3.63807E-22
6.85720E-03 3.48669E-22
7.00198E-03 3.34308E-22
7.14827E-03 3.20678E-22
7.29605E-03 3.07734E-22
7.44534E-03 2.95436E-22
7.59612E-03 2.83745E-22
7.97965E-03 2.56946E-22
8.37255E-03 2.33232E-22
8.77480E-03 2.12187E-22
9.18641E-03 1.93459E-22
9.60736E-03 1.76748E-22
1.00376E-02 1.61800E-22
1.04773E-02 1.48396E-22
1.09262E-02 1.36349E-22
1.13844E-02 1.25498E-22
1.18520E-02 1.15702E-22
1.23288E-02 1.06842E-22
1.28150E-02 9.88118E-23
1.33104E-02 9.15204E-23
1.38150E-02 8.48877E-23
1.43290E-02 7.88436E-23
1.48521E-02 7.33267E-23
1.53845E-02 6.82827E-23
1.59262E-02 6.36638E-23
1.64770E-02 5.94280E-23
1.70371E-02 5.55376E-23
1.76063E-02 5.19596E-23
1.81848E-02 4.86642E-23
1.87724E-02 4.56252E-23
1.93692E-02 4.28190E-23
1.99751E-02 4.02247E-23
2.05901E-02 3.78232E-23
2.12143E-02 3.55977E-23
2.18476E-02 3.35329E-23
2.24900E-02 3.16152E-23
2.31415E-02 2.98322E-23
2.38021E-02 2.81726E-23
2.44717E-02 2.66265E-23
2.51504E-02 2.51845E-23
2.58382E-02 2.38385E-23
2.65349E-02 2.25809E-23
2.72407E-02 2.14048E-23
2.79555E-02 2.03039E-23
2.86793E-02 1.92726E-23
2.94120E-02 1.83057E-23
3.01537E-02 1.73985E-23
3.09043E-02 1.65465E-23
3.16639E-02 1.57457E-23
3.24324E-02 1.49926E-23
3.32098E-02 1.42838E-23
3.39961E-02 1.36162E-23
3.47912E-02 1.29870E-23
3.55952E-02 1.23935E-23
3.64081E-02 1.18333E-23
3.72297E-02 1.13043E-23
3.80602E-02 1.08044E-23
3.88995E-02 1.03316E-23
3.97476E-02 9.88428E-24
4.06044E-02 9.46078E-24
4.14700E-02 9.05959E-24
4.23443E-02 8.67932E-24
4.32273E-02 8.31868E-24
4.41190E-02 7.97647E-24
4.50194E-02 7.65156E-24
4.59284E-02 7.34294E-24
4.68461E-02 7.04962E-24
4.87074E-02 6.50536E-24
5.06030E-02 6.01231E-24
5.25328E-02 5.56480E-24
5.44967E-02 5.15788E-24
5.64946E-02 4.78724E-24
5.85262E-02 4.44906E-24
6.05914E-02 4.14001E-24
6.26901E-02 3.85713E-24
6.48222E-02 3.59781E-24
6.69873E-02 3.35976E-24
6.91854E-02 3.14091E-24
7.14163E-02 2.93944E-24
7.36799E-02 2.75373E-24
7.59760E-02 2.58232E-24
7.83043E-02 2.42392E-24
8.06647E-02 2.27737E-24
8.30571E-02 2.14162E-24
8.54812E-02 2.01573E-24
8.79369E-02 1.89886E-24
9.04240E-02 1.79025E-24
9.29422E-02 1.68921E-24
9.54915E-02 1.59512E-24
9.80716E-02 1.50742E-24
1.00682E-01 1.42559E-24
1.03323E-01 1.34917E-24
1.05995E-01 1.27773E-24
1.08696E-01 1.21091E-24
1.11427E-01 1.14833E-24
1.14188E-01 1.08970E-24
1.16978E-01 1.03470E-24
1.19797E-01 9.83086E-25
1.22645E-01 9.34601E-25
1.25522E-01 8.89024E-25
1.28428E-01 8.46149E-25
1.31361E-01 8.05787E-25
1.34323E-01 7.67764E-25
1.37313E-01 7.31921E-25
1.40330E-01 6.98110E-25
1.43375E-01 6.66196E-25
1.46447E-01 6.36052E-25
1.49545E-01 6.07563E-25
1.52671E-01 5.80622E-25
1.55823E-01 5.55130E-25
1.59001E-01 5.30994E-25
1.62205E-01 5.08129E-25
1.65435E-01 4.86457E-25
1.68690E-01 4.65904E-25
1.71970E-01 4.46403E-25
1.75276E-01 4.27888E-25
1.78606E-01 4.10303E-25
1.81961E-01 3.93591E-25
1.85340E-01 3.77701E-25
1.88743E-01 3.62587E-25
1.92169E-01 3.48202E-25
1.95619E-01 3.34506E-25
1.99092E-01 3.21460E-25
2.02589E-01 3.09027E-25
2.06107E-01 2.97174E-25
2.09649E-01 2.85868E-25
2.13212E-01 2.75080E-25
2.16797E-01 2.64782E-25
2.20404E-01 2.54947E-25
2.24032E-01 2.45551E-25
2.27680E-01 2.36571E-25
2.31350E-01 2.27985E-25
2.35040E-01 2.19774E-25
2.38751E-01 2.11916E-25
2.42481E-01 2.04396E-25
2.46231E-01 1.97195E-25
2.50000E-01 1.90297E-25
2.53788E-01 1.83688E-25
2.57595E-01 1.77354E-25
2.61421E-01 1.71280E-25
2.65264E-01 1.65454E-25
2.69126E-01 1.59865E-25
2.73005E-01 1.54501E-25
2.76901E-01 1.49351E-25
2.80814E-01 1.44406E-25
2.84744E-01 1.39655E-25
2.88691E-01 1.35090E-25
2.92653E-01 1.30702E-25
2.96632E-01 1.26483E-25
3.00625E-01 1.22426E-25
3.04634E-01 1.18522E-25
3.08658E-01 1.14766E-25
3.12697E-01 1.11151E-25
3.16749E-01 1.07670E-25
3.20816E-01 1.04318E-25
3.24896E-01 1.01089E-25
3.28990E-01 9.79780E-26
3.33097E-01 9.49794E-26
3.37216E-01 9.20888E-26
3.41348E-01 8.93015E-26
3.45492E-01 8.66132E-26
3.49647E-01 8.40198E-26
3.53814E-01 8.15173E-26
3.57992E-01 7.91021E-26
3.62181E-01 7.67704E-26
3.66381E-01 7.45191E-26
3.70590E-01 7.23447E-26
3.74810E-01 7.02442E-26
3.79039E-01 6.82147E-26
3.83277E-01 6.62534E-26
3.87524E-01 6.43575E-26
3.91780E-01 6.25245E-26
3.96044E-01 6.07520E-26
4.00316E-01 5.90376E-26
4.04596E-01 5.73792E-26
4.08882E-01 5.57744E-26
4.13176E-01 5.42214E-26
4.17476E-01 5.27182E-26
4.21783E-01 5.12629E-26
4.26095E-01 4.98536E-26
4.30413E-01 4.84888E-26
4.34737E-01 4.71668E-26
4.39065E-01 4.58860E-26
4.43398E-01 4.46448E-26
4.47736E-01 4.34419E-26
4.52077E-01 4.22760E-26
4.56422E-01 4.11455E-26
4.60770E-01 4.00494E-26
4.65122E-01 3.89864E-26
4.69476E-01 3.79553E-26
4.73832E-01 3.69549E-26
4.78190E-01 3.59844E-26
4.82550E-01 3.50425E-26
4.86912E-01 3.41283E-26
4.91274E-01 3.32409E-26
4.95637E-01 3.23793E-26
5.00000E-01 3.15427E-26
5.04363E-01 3.07302E-26
5.08726E-01 2.99410E-26
5.13088E-01 2.91744E-26
5.17450E-01 2.84296E-26
5.21810E-01 2.77058E-26
5.26168E-01 2.70024E-26
5.30524E-01 2.63188E-26
5.34878E-01 2.56542E-26
5.39230E-01 2.50080E-26
5.43578E-01 2.43797E-26
5.47923E-01 2.37687E-26
5.52264E-01 2.31745E-26
5.56602E-01 2.25964E-26
5.60935E-01 2.20341E-26
5.65263E-01 2.14869E-26
5.69587E-01 2.09545E-26
5.73905E-01 2.04363E-26
5.78217E-01 1.99319E-26
5.82524E-01 1.94410E-26
5.86824E-01 1.89630E-26
5.91118E-01 1.84977E-26
5.95404E-01 1.80445E-26
5.99684E-01 1.76032E-26
6.03956E-01 1.71734E-26
6.08220E-01 1.67547E-26
6.12476E-01 1.63468E-26
6.16723E-01 1.59494E-26
6.20961E-01 1.55622E-26
6.25190E-01 1.51848E-26
6.29410E-01 1.48171E-26
6.33619E-01 1.44586E-26
6.37819E-01 1.41092E-26
6.42008E-01 1.37686E-26
6.46186E-01 1.34365E-26
6.50353E-01 1.31127E-26
6.54508E-01 1.27969E-26
6.58652E-01 1.24890E-26
6.62784E-01 1.21886E-26
6.66903E-01 1.18956E-26
6.71010E-01 1.16098E-26
6.75104E-01 1.13310E-26
6.79184E-01 1.10590E-26
6.83251E-01 1.07936E-26
6.87303E-01 1.05346E-26
6.91342E-01 1.02818E-26
6.95366E-01 1.00351E-26
6.99375E-01 9.79432E-27
7.03368E-01 9.55927E-27
7.07347E-01 9.32982E-27
7.11309E-01 9.10581E-27
7.15256E-01 8.88710E-27
7.19186E-01 8.67355E-27
7.23099E-01 8.46502E-27
7.26995E-01 8.26137E-27
7.30874E-01 8.06249E-27
7.34736E-01 7.86824E-27
7.38579E-01 7.67852E-27
7.42405E-01 7.49319E-27
7.46212E-01 7.31215E-27
7.50000E-01 7.13528E-27
7.53769E-01 6.96249E-27
7.57519E-01 6.79366E-27
7.61249E-01 6.62870E-27
7.64960E-01 6.46751E-27
7.68650E-01 6.30999E-27
7.72320E-01 6.15606E-27
7.75968E-01 6.00563E-27
7.79596E-01 5.85860E-27
7.83203E-01 5.71489E-27
7.86788E-01 5.57443E-27
7.90351E-01 5.43714E-27
7.93893E-01 5.30293E-27
7.97411E-01 5.17173E-27
8.00908E-01 5.04347E-27
8.04381E-01 4.91808E-27
8.07831E-01 4.79550E-27
8.11257E-01 4.67565E-27
8.14660E-01 4.55847E-27
8.18039E-01 4.44389E-27
8.21394E-01 4.33187E-27
8.24724E-01 4.22233E-27
8.28030E-01 4.11522E-27
8.31310E-01 4.01048E-27
8.34565E-01 3.90807E-27
8.37795E-01 3.80792E-27
8.40999E-01 3.70999E-27
8.44177E-01 3.61422E-27
8.47329E-01 3.52057E-27
8.50455E-01 3.42898E-27
8.53553E-01 3.33942E-27
8.56625E-01 3.25184E-27
8.59670E-01 3.16620E-27
8.62687E-01 3.08245E-27
8.65677E-01 3.00054E-27
8.68639E-01 2.92046E-27
8.71572E-01 2.84214E-27
8.74478E-01 2.76556E-27
8.77355E-01 2.69067E-27
8.80203E-01 2.61745E-27
8.83022E-01 2.54586E-27
8.85812E-01 2.47586E-27
8.88573E-01 2.40742E-27
8.91304E-01 2.34051E-27
8.94005E-01 2.27510E-27
8.96677E-01 2.21115E-27
8.99318E-01 2.14864E-27
9.01928E-01 2.08754E-27
9.04508E-01 2.02782E-27
9.07058E-01 1.96945E-27
9.09576E-01 1.91241E-27
9.12063E-01 1.85667E-27
9.14519E-01 1.80221E-27
9.16943E-01 1.74900E-27
9.19335E-01 1.69701E-27
9.21696E-01 1.64623E-27
9.24024E-01 1.59664E-27
9.26320E-01 1.54820E-27
9.28584E-01 1.50090E-27
9.30815E-01 1.45472E-27
9.33013E-01 1.40964E-27
9.35178E-01 1.36564E-27
9.37310E-01 1.32270E-27
9.39409E-01 1.28080E-27
9.41474E-01 1.23993E-27
9.43505E-01 1.20006E-27
9.45503E-01 1.16118E-27
9.47467E-01 1.12327E-27
9.49397E-01 1.08632E-27
9.51293E-01 1.05031E-27
9.53154E-01 1.01523E-27
9.54981E-01 9.81055E-28
9.56773E-01 9.47780E-28
9.58530E-01 9.15389E-28
9.60252E-01 8.83867E-28
9.61940E-01 8.53204E-28
9.63592E-01 8.23383E-28
9.65209E-01 7.94396E-28
9.66790E-01 7.66229E-28
9.68336E-01 7.38870E-28
9.69846E-01 7.12309E-28
9.71321E-01 6.86536E-28
9.72759E-01 6.61539E-28
9.74162E-01 6.37308E-28
9.75528E-01 6.13834E-28
9.76858E-01 5.91107E-28
9.78152E-01 5.69118E-28
9.79410E-01 5.47859E-28
9.80631E-01 5.27321E-28
9.81815E-01 5.07495E-28
9.82963E-01 4.88375E-28
9.84074E-01 4.69952E-28
9.85148E-01 4.52219E-28
9.86185E-01 4.35169E-28
9.87185E-01 4.18796E-28
9.88148E-01 4.03092E-28
9.89074E-01 3.88053E-28
9.89962E-01 3.73671E-28
9.90814E-01 3.59941E-28
9.91627E-01 3.46859E-28
9.92404E-01 3.34418E-28
9.93143E-01 3.22615E-28
9.93844E-01 3.11443E-28
9.94508E-01 3.00900E-28
9.95134E-01 2.90981E-28
9.95722E-01 2.81682E-28
9.96273E-01 2.72999E-28
9.96786E-01 2.64930E-28
9.97261E-01 2.57471E-28
9.97698E-01 2.50619E-28
9.98097E-01 2.44372E-28
9.98459E-01 2.38727E-28
9.98782E-01 2.33682E-28
9.99067E-01 2.29235E-28
9.99315E-01 2.25384E-28
9.99524E-01 2.22129E-28
9.99695E-01 2.19466E-28
9.99829E-01 2.17397E-28
9.99924E-01 2.15920E-28
9.99981E-01 2.15033E-28
1.00000E+00 2.14737E-28
