 #
 # Subroutine ELSEPA. Elastic scattering of electrons and positrons
 #                    by neutral atoms and positive ions
 #
 # Projectile: positron
 # Kinetic energy = 3.00000E+08 eV = 1.10248E+07 a.u.
 #
 # WARNING: High-energy factorization with free-atom DF screening.
 #          Absorption, polarization and exchange corrections are
 #          switched off.
 #          Phase shifts are calculated for the bare nucleus.
 #          Scattering amplitudes are not evaluated.
 #
 # Element:  O,  Z =   8,  atomic weight = 1.59994E+01 g/mol
 #
 # Nuclear model: Fermi distribution
 #                Average radius = 2.69620E-13 cm
 #                Skin thickness = 5.46000E-14 cm
 #
 # Number of electrons =  8
 #
 # Total elastic cross section = 2.73725E-19 cm**2 = 9.77491E-03 a0**2
 # 1st transport cross section = 1.58804E-27 cm**2 = 5.67098E-11 a0**2
 # 2nd transport cross section = 4.75413E-27 cm**2 = 1.69773E-10 a0**2
 #
 #
 # Differential cross section:                       MU=(1-COS(THETA))/2
 #
 #  THETA        MU          DCS          DCS        Sherman      error
 #  (deg)                 (cm**2/sr)   (a0**2/sr)    function
 #----------------------------------------------------------------------
0.00000E+00 1.36252E-10
7.61557E-13 1.35068E-10
1.18994E-12 1.34410E-10
1.71346E-12 1.33613E-10
2.33225E-12 1.32679E-10
3.04617E-12 1.31614E-10
3.85530E-12 1.30422E-10
4.75964E-12 1.29108E-10
5.75917E-12 1.27678E-10
6.85391E-12 1.26138E-10
8.04379E-12 1.24495E-10
9.32893E-12 1.22756E-10
1.07092E-11 1.20927E-10
1.21847E-11 1.19016E-10
1.37554E-11 1.17030E-10
1.54213E-11 1.14976E-10
1.71823E-11 1.12843E-10
1.90386E-11 1.10481E-10
2.09900E-11 1.08182E-10
2.30367E-11 1.05951E-10
2.51785E-11 1.03792E-10
2.74156E-11 1.01533E-10
2.97478E-11 9.90298E-11
3.21752E-11 9.66297E-11
3.46979E-11 9.43322E-11
3.73157E-11 9.21360E-11
4.00286E-11 8.97354E-11
4.28368E-11 8.72605E-11
4.57402E-11 8.49081E-11
4.87388E-11 8.26732E-11
5.18325E-11 8.05511E-11
5.50215E-11 7.81464E-11
5.83057E-11 7.58172E-11
6.16850E-11 7.36130E-11
6.51595E-11 7.15273E-11
6.87293E-11 6.94970E-11
7.23943E-11 6.72564E-11
7.61544E-11 6.51411E-11
1.18991E-10 4.69669E-11
1.71347E-10 3.32647E-11
2.33223E-10 2.34290E-11
3.04617E-10 1.65486E-11
3.85531E-10 1.17858E-11
4.75965E-10 8.49011E-12
5.75917E-10 6.20534E-12
6.85389E-10 4.60430E-12
8.04380E-10 3.46881E-12
9.32891E-10 2.65324E-12
1.07092E-09 2.05951E-12
1.21847E-09 1.62108E-12
1.37554E-09 1.29271E-12
1.54213E-09 1.04347E-12
1.71823E-09 8.51885E-13
1.90386E-09 7.02764E-13
2.09900E-09 5.85430E-13
2.30367E-09 4.91942E-13
2.51785E-09 4.16770E-13
2.74156E-09 3.55704E-13
2.97478E-09 3.05669E-13
3.21752E-09 2.64315E-13
3.46978E-09 2.29870E-13
3.73156E-09 2.00981E-13
4.00286E-09 1.76571E-13
4.28368E-09 1.55845E-13
4.57402E-09 1.38103E-13
4.87388E-09 1.22881E-13
5.18326E-09 1.09704E-13
5.50215E-09 9.82995E-14
5.83057E-09 8.83250E-14
6.16850E-09 7.96254E-14
6.51596E-09 7.19533E-14
6.87293E-09 6.52109E-14
7.23942E-09 5.92282E-14
7.61544E-09 5.39311E-14
1.18991E-08 2.34245E-14
1.71347E-08 1.17144E-14
2.33223E-08 6.46627E-15
3.04617E-08 3.84362E-15
3.85531E-08 2.42112E-15
4.75965E-08 1.59788E-15
5.75917E-08 1.09571E-15
6.85389E-08 7.75760E-16
8.04380E-08 5.64309E-16
9.32891E-08 4.20129E-16
1.07092E-07 3.19133E-16
1.21847E-07 2.46709E-16
1.37554E-07 1.93696E-16
1.54213E-07 1.54176E-16
1.71823E-07 1.24234E-16
1.90386E-07 1.01216E-16
2.09900E-07 8.32888E-17
2.30367E-07 6.91588E-17
2.51785E-07 5.79011E-17
2.74156E-07 4.88430E-17
2.97478E-07 4.14885E-17
3.21752E-07 3.54672E-17
3.46978E-07 3.04995E-17
3.73156E-07 2.63717E-17
4.00286E-07 2.29191E-17
4.28368E-07 2.00134E-17
4.57402E-07 1.75539E-17
4.87388E-07 1.54608E-17
5.18325E-07 1.36703E-17
5.50215E-07 1.21317E-17
5.83057E-07 1.08035E-17
6.16850E-07 9.65228E-18
6.51596E-07 8.65036E-18
6.87293E-07 7.77513E-18
7.23942E-07 7.00784E-18
7.61543E-07 6.33291E-18
1.18991E-06 2.59395E-18
1.71347E-06 1.25092E-18
2.33223E-06 6.75196E-19
3.04617E-06 3.95775E-19
3.85531E-06 2.47072E-19
4.75964E-06 1.62098E-19
5.75916E-06 1.10711E-19
6.85388E-06 7.81667E-20
8.04378E-06 5.67489E-20
9.32888E-06 4.21893E-20
1.07092E-05 3.20135E-20
1.21846E-05 2.47287E-20
1.37553E-05 1.94030E-20
1.54212E-05 1.54369E-20
1.71822E-05 1.24342E-20
1.90385E-05 1.01301E-20
2.09899E-05 8.33346E-21
2.30365E-05 6.91741E-21
2.51783E-05 5.78953E-21
2.74153E-05 4.88253E-21
2.97475E-05 4.14662E-21
3.21749E-05 3.54451E-21
3.46974E-05 3.04797E-21
3.73152E-05 2.63544E-21
4.00281E-05 2.29036E-21
4.28362E-05 1.99987E-21
4.57395E-05 1.75393E-21
4.87380E-05 1.54461E-21
5.18317E-05 1.36560E-21
5.50205E-05 1.21179E-21
5.83045E-05 1.07908E-21
6.16838E-05 9.64065E-22
6.51582E-05 8.63990E-22
6.87277E-05 7.76570E-22
7.23925E-05 6.99922E-22
7.61524E-05 6.31366E-22
9.21439E-05 4.30960E-22
1.09658E-04 3.04129E-22
1.28695E-04 2.20663E-22
1.49255E-04 1.63948E-22
1.71338E-04 1.24326E-22
1.94942E-04 9.59659E-23
2.20070E-04 7.52453E-23
2.46720E-04 5.98171E-23
2.74892E-04 4.81435E-23
3.04586E-04 3.91786E-23
3.35803E-04 3.22023E-23
3.68542E-04 2.67092E-23
4.02802E-04 2.23358E-23
4.38585E-04 1.88201E-23
4.75889E-04 1.59675E-23
5.14715E-04 1.36338E-23
5.55063E-04 1.17100E-23
5.96931E-04 1.01125E-23
6.40321E-04 8.77744E-24
6.85233E-04 7.65458E-24
7.31665E-04 6.70490E-24
7.79618E-04 5.89732E-24
8.29092E-04 5.20709E-24
8.80086E-04 4.61444E-24
9.32601E-04 4.10322E-24
9.86636E-04 3.66046E-24
1.04219E-03 3.27544E-24
1.09927E-03 2.93938E-24
1.15786E-03 2.64502E-24
1.21797E-03 2.38631E-24
1.27961E-03 2.15822E-24
1.34276E-03 1.95650E-24
1.40743E-03 1.77760E-24
1.47362E-03 1.61849E-24
1.54133E-03 1.47661E-24
1.61056E-03 1.34979E-24
1.68131E-03 1.23614E-24
1.75357E-03 1.13407E-24
1.82735E-03 1.04219E-24
1.90265E-03 9.59319E-25
1.97947E-03 8.84418E-25
2.05780E-03 8.16587E-25
2.13765E-03 7.55047E-25
2.21902E-03 6.99111E-25
2.30190E-03 6.48183E-25
2.38630E-03 6.01737E-25
2.47222E-03 5.59310E-25
2.55965E-03 5.20496E-25
2.64859E-03 4.84932E-25
2.73905E-03 4.52300E-25
2.83103E-03 4.22317E-25
2.92452E-03 3.94730E-25
3.01952E-03 3.69315E-25
3.11604E-03 3.45871E-25
3.21407E-03 3.24219E-25
3.31362E-03 3.04199E-25
3.41468E-03 2.85666E-25
3.51725E-03 2.68491E-25
3.62133E-03 2.52558E-25
3.72692E-03 2.37760E-25
3.83403E-03 2.24003E-25
3.94265E-03 2.11202E-25
4.05278E-03 1.99278E-25
4.16442E-03 1.88161E-25
4.27757E-03 1.77788E-25
4.39223E-03 1.68099E-25
4.50840E-03 1.59042E-25
4.62608E-03 1.50569E-25
4.74527E-03 1.42635E-25
4.86597E-03 1.35201E-25
4.98817E-03 1.28230E-25
5.11188E-03 1.21687E-25
5.23711E-03 1.15542E-25
5.36383E-03 1.09768E-25
5.49207E-03 1.04336E-25
5.62181E-03 9.92251E-26
5.75306E-03 9.44115E-26
5.88581E-03 8.98754E-26
6.02007E-03 8.55982E-26
6.15583E-03 8.15625E-26
6.29310E-03 7.77524E-26
6.43187E-03 7.41533E-26
6.57214E-03 7.07514E-26
6.71392E-03 6.75343E-26
6.85720E-03 6.44900E-26
7.00198E-03 6.16080E-26
7.14827E-03 5.88779E-26
7.29605E-03 5.62906E-26
7.44534E-03 5.38373E-26
7.59612E-03 5.15100E-26
7.97965E-03 4.61944E-26
8.37255E-03 4.15160E-26
8.77480E-03 3.73871E-26
9.18641E-03 3.37336E-26
9.60736E-03 3.04926E-26
1.00376E-02 2.76108E-26
1.04773E-02 2.50426E-26
1.09262E-02 2.27490E-26
1.13844E-02 2.06962E-26
1.18520E-02 1.88556E-26
1.23288E-02 1.72020E-26
1.28150E-02 1.57137E-26
1.33104E-02 1.43719E-26
1.38150E-02 1.31603E-26
1.43290E-02 1.20644E-26
1.48521E-02 1.10718E-26
1.53845E-02 1.01713E-26
1.59262E-02 9.35324E-27
1.64770E-02 8.60915E-27
1.70371E-02 7.93144E-27
1.76063E-02 7.31343E-27
1.81848E-02 6.74919E-27
1.87724E-02 6.23345E-27
1.93692E-02 5.76152E-27
1.99751E-02 5.32923E-27
2.05901E-02 4.93285E-27
2.12143E-02 4.56903E-27
2.18476E-02 4.23478E-27
2.24900E-02 3.92743E-27
2.31415E-02 3.64456E-27
2.38021E-02 3.38400E-27
2.44717E-02 3.14380E-27
2.51504E-02 2.92219E-27
2.58382E-02 2.71757E-27
2.65349E-02 2.52852E-27
2.72407E-02 2.35371E-27
2.79555E-02 2.19197E-27
2.86793E-02 2.04223E-27
2.94120E-02 1.90349E-27
3.01537E-02 1.77489E-27
3.09043E-02 1.65560E-27
3.16639E-02 1.54490E-27
3.24324E-02 1.44210E-27
3.32098E-02 1.34659E-27
3.39961E-02 1.25781E-27
3.47912E-02 1.17524E-27
3.55952E-02 1.09842E-27
3.64081E-02 1.02691E-27
3.72297E-02 9.60311E-28
3.80602E-02 8.98264E-28
3.88995E-02 8.40433E-28
3.97476E-02 7.86509E-28
4.06044E-02 7.36211E-28
4.14700E-02 6.89276E-28
4.23443E-02 6.45464E-28
4.32273E-02 6.04554E-28
4.41190E-02 5.66341E-28
4.50194E-02 5.30636E-28
4.59284E-02 4.97264E-28
4.68461E-02 4.66064E-28
4.87074E-02 4.09592E-28
5.06030E-02 3.60151E-28
5.25328E-02 3.16824E-28
5.44967E-02 2.78821E-28
5.64946E-02 2.45460E-28
5.85262E-02 2.16153E-28
6.05914E-02 1.90389E-28
6.26901E-02 1.67726E-28
6.48222E-02 1.47780E-28
6.69873E-02 1.30217E-28
6.91854E-02 1.14745E-28
7.14163E-02 1.01111E-28
7.36799E-02 8.90914E-29
7.59760E-02 7.84928E-29
7.83043E-02 6.91452E-29
8.06647E-02 6.08994E-29
8.30571E-02 5.36247E-29
8.54812E-02 4.72062E-29
8.79369E-02 4.15429E-29
9.04240E-02 3.65461E-29
9.29422E-02 3.21375E-29
9.54915E-02 2.82483E-29
9.80716E-02 2.48177E-29
1.00682E-01 2.17923E-29
1.03323E-01 1.91247E-29
1.05995E-01 1.67734E-29
1.08696E-01 1.47014E-29
1.11427E-01 1.28761E-29
1.14188E-01 1.12690E-29
1.16978E-01 9.85437E-30
1.19797E-01 8.60991E-30
1.22645E-01 7.51569E-30
1.25522E-01 6.55411E-30
1.28428E-01 5.70963E-30
1.31361E-01 4.96848E-30
1.34323E-01 4.31848E-30
1.37313E-01 3.74885E-30
1.40330E-01 3.25008E-30
1.43375E-01 2.81374E-30
1.46447E-01 2.43237E-30
1.49545E-01 2.09937E-30
1.52671E-01 1.80893E-30
1.55823E-01 1.55590E-30
1.59001E-01 1.33573E-30
1.62205E-01 1.14440E-30
1.65435E-01 9.78362E-31
1.68690E-01 8.34489E-31
1.71970E-01 7.10021E-31
1.75276E-01 6.02523E-31
1.78606E-01 5.09851E-31
1.81961E-01 4.30118E-31
1.85340E-01 3.61663E-31
1.88743E-01 3.03023E-31
1.92169E-01 2.52916E-31
1.95619E-01 2.10216E-31
1.99092E-01 1.73933E-31
2.02589E-01 1.43202E-31
2.06107E-01 1.17264E-31
2.09649E-01 9.54569E-32
2.13212E-01 7.72014E-32
2.16797E-01 6.19922E-32
2.20404E-01 4.93897E-32
2.24032E-01 3.90109E-32
2.27680E-01 3.05235E-32
2.31350E-01 2.36394E-32
2.35040E-01 1.81091E-32
2.38751E-01 1.37171E-32
2.42481E-01 1.02777E-32
2.46231E-01 7.63131E-33
2.50000E-01 5.64086E-33
2.53788E-01 4.18920E-33
2.57595E-01 3.17639E-33
2.61421E-01 2.51750E-33
2.65264E-01 2.14062E-33
2.69126E-01 1.98511E-33
2.73005E-01 2.00008E-33
2.76901E-01 2.14303E-33
2.80814E-01 2.37874E-33
2.84744E-01 2.67816E-33
2.88691E-01 3.01760E-33
2.92653E-01 3.37788E-33
2.96632E-01 3.74369E-33
3.00625E-01 4.10298E-33
3.04634E-01 4.44647E-33
3.08658E-01 4.76721E-33
3.12697E-01 5.06011E-33
3.16749E-01 5.32179E-33
3.20816E-01 5.55007E-33
3.24896E-01 5.74394E-33
3.28990E-01 5.90318E-33
3.33097E-01 6.02830E-33
3.37216E-01 6.12033E-33
3.41348E-01 6.18071E-33
3.45492E-01 6.21122E-33
3.49647E-01 6.21380E-33
3.53814E-01 6.19056E-33
3.57992E-01 6.14367E-33
3.62181E-01 6.07538E-33
3.66381E-01 5.98783E-33
3.70590E-01 5.88326E-33
3.74810E-01 5.76370E-33
3.79039E-01 5.63120E-33
3.83277E-01 5.48764E-33
3.87524E-01 5.33484E-33
3.91780E-01 5.17448E-33
3.96044E-01 5.00810E-33
4.00316E-01 4.83717E-33
4.04596E-01 4.66299E-33
4.08882E-01 4.48678E-33
4.13176E-01 4.30961E-33
4.17476E-01 4.13247E-33
4.21783E-01 3.95624E-33
4.26095E-01 3.78167E-33
4.30413E-01 3.60945E-33
4.34737E-01 3.44017E-33
4.39065E-01 3.27432E-33
4.43398E-01 3.11236E-33
4.47736E-01 2.95462E-33
4.52077E-01 2.80141E-33
4.56422E-01 2.65297E-33
4.60770E-01 2.50949E-33
4.65122E-01 2.37108E-33
4.69476E-01 2.23786E-33
4.73832E-01 2.10987E-33
4.78190E-01 1.98713E-33
4.82550E-01 1.86962E-33
4.86912E-01 1.75732E-33
4.91274E-01 1.65016E-33
4.95637E-01 1.54806E-33
5.00000E-01 1.45092E-33
5.04363E-01 1.35861E-33
5.08726E-01 1.27103E-33
5.13088E-01 1.18804E-33
5.17450E-01 1.10950E-33
5.21810E-01 1.03524E-33
5.26168E-01 9.65122E-34
5.30524E-01 8.98992E-34
5.34878E-01 8.36684E-34
5.39230E-01 7.78044E-34
5.43578E-01 7.22908E-34
5.47923E-01 6.71128E-34
5.52264E-01 6.22540E-34
5.56602E-01 5.76994E-34
5.60935E-01 5.34339E-34
5.65263E-01 4.94431E-34
5.69587E-01 4.57124E-34
5.73905E-01 4.22283E-34
5.78217E-01 3.89772E-34
5.82524E-01 3.59464E-34
5.86824E-01 3.31232E-34
5.91118E-01 3.04961E-34
5.95404E-01 2.80530E-34
5.99684E-01 2.57832E-34
6.03956E-01 2.36765E-34
6.08220E-01 2.17225E-34
6.12476E-01 1.99116E-34
6.16723E-01 1.82349E-34
6.20961E-01 1.66838E-34
6.25190E-01 1.52501E-34
6.29410E-01 1.39260E-34
6.33619E-01 1.27041E-34
6.37819E-01 1.15778E-34
6.42008E-01 1.05401E-34
6.46186E-01 9.58504E-35
6.50353E-01 8.70717E-35
6.54508E-01 7.90061E-35
6.58652E-01 7.16039E-35
6.62784E-01 6.48165E-35
6.66903E-01 5.85994E-35
6.71010E-01 5.29091E-35
6.75104E-01 4.77078E-35
6.79184E-01 4.29576E-35
6.83251E-01 3.86236E-35
6.87303E-01 3.46741E-35
6.91342E-01 3.10793E-35
6.95366E-01 2.78113E-35
6.99375E-01 2.48434E-35
7.03368E-01 2.21519E-35
7.07347E-01 1.97143E-35
7.11309E-01 1.75087E-35
7.15256E-01 1.55166E-35
7.19186E-01 1.37205E-35
7.23099E-01 1.21031E-35
7.26995E-01 1.06489E-35
7.30874E-01 9.34416E-36
7.34736E-01 8.17521E-36
7.38579E-01 7.13045E-36
7.42405E-01 6.19851E-36
7.46212E-01 5.36872E-36
7.50000E-01 4.63245E-36
7.53769E-01 3.98015E-36
7.57519E-01 3.40417E-36
7.61249E-01 2.89710E-36
7.64960E-01 2.45228E-36
7.68650E-01 2.06355E-36
7.72320E-01 1.72506E-36
7.75968E-01 1.43174E-36
7.79596E-01 1.17915E-36
7.83203E-01 9.62544E-37
7.86788E-01 7.78312E-37
7.90351E-01 6.22743E-37
7.93893E-01 4.92653E-37
7.97411E-01 3.85176E-37
8.00908E-01 2.97519E-37
8.04381E-01 2.27330E-37
8.07831E-01 1.72430E-37
8.11257E-01 1.30848E-37
8.14660E-01 1.00814E-37
8.18039E-01 8.07482E-38
8.21394E-01 6.91508E-38
8.24724E-01 6.48385E-38
8.28030E-01 6.66374E-38
8.31310E-01 7.34844E-38
8.34565E-01 8.44943E-38
8.37795E-01 9.89415E-38
8.40999E-01 1.15892E-37
8.44177E-01 1.35082E-37
8.47329E-01 1.55544E-37
8.50455E-01 1.77235E-37
8.53553E-01 1.99304E-37
8.56625E-01 2.21735E-37
8.59670E-01 2.43873E-37
8.62687E-01 2.65929E-37
8.65677E-01 2.87202E-37
8.68639E-01 3.07817E-37
8.71572E-01 3.27619E-37
8.74478E-01 3.46220E-37
8.77355E-01 3.63662E-37
8.80203E-01 3.79958E-37
8.83022E-01 3.94946E-37
8.85812E-01 4.08666E-37
8.88573E-01 4.21104E-37
8.91304E-01 4.32109E-37
8.94005E-01 4.41861E-37
8.96677E-01 4.50150E-37
8.99318E-01 4.57304E-37
9.01928E-01 4.63097E-37
9.04508E-01 4.67512E-37
9.07058E-01 4.70781E-37
9.09576E-01 4.73037E-37
9.12063E-01 4.73945E-37
9.14519E-01 4.74020E-37
9.16943E-01 4.72904E-37
9.19335E-01 4.70901E-37
9.21696E-01 4.67937E-37
9.24024E-01 4.64203E-37
9.26320E-01 4.59697E-37
9.28584E-01 4.54212E-37
9.30815E-01 4.48210E-37
9.33013E-01 4.41566E-37
9.35178E-01 4.34299E-37
9.37310E-01 4.26597E-37
9.39409E-01 4.18057E-37
9.41474E-01 4.09548E-37
9.43505E-01 4.00245E-37
9.45503E-01 3.90799E-37
9.47467E-01 3.80885E-37
9.49397E-01 3.70825E-37
9.51293E-01 3.60586E-37
9.53154E-01 3.49934E-37
9.54981E-01 3.39347E-37
9.56773E-01 3.28560E-37
9.58530E-01 3.17625E-37
9.60252E-01 3.06515E-37
9.61940E-01 2.95712E-37
9.63592E-01 2.84529E-37
9.65209E-01 2.73623E-37
9.66790E-01 2.62659E-37
9.68336E-01 2.51734E-37
9.69846E-01 2.40872E-37
9.71321E-01 2.30098E-37
9.72759E-01 2.19555E-37
9.74162E-01 2.09048E-37
9.75528E-01 1.98690E-37
9.76858E-01 1.88539E-37
9.78152E-01 1.78577E-37
9.79410E-01 1.68785E-37
9.80631E-01 1.59235E-37
9.81815E-01 1.49762E-37
9.82963E-01 1.40674E-37
9.84074E-01 1.31876E-37
9.85148E-01 1.23239E-37
9.86185E-01 1.14837E-37
9.87185E-01 1.06597E-37
9.88148E-01 9.87949E-38
9.89074E-01 9.12385E-38
9.89962E-01 8.38696E-38
9.90814E-01 7.69597E-38
9.91627E-01 7.00700E-38
9.92404E-01 6.37035E-38
9.93143E-01 5.76297E-38
9.93844E-01 5.17303E-38
9.94508E-01 4.62009E-38
9.95134E-01 4.10001E-38
9.95722E-01 3.60494E-38
9.96273E-01 3.13487E-38
9.96786E-01 2.71215E-38
9.97261E-01 2.31153E-38
9.97698E-01 1.94369E-38
9.98097E-01 1.60661E-38
9.98459E-01 1.30017E-38
9.98782E-01 1.03133E-38
9.99067E-01 7.92474E-39
9.99315E-01 5.84062E-39
9.99524E-01 4.05043E-39
9.99695E-01 2.55741E-39
9.99829E-01 1.48028E-39
9.99924E-01 6.56610E-40
9.99981E-01 1.92577E-40
1.00000E+00 2.19543E-41
