 #
 # Subroutine ELSEPA. Elastic scattering of electrons and positrons
 #                    by neutral atoms and positive ions
 #
 # Projectile: positron
 # Kinetic energy = 8.00000E+07 eV = 2.93995E+06 a.u.
 #
 # WARNING: High-energy factorization with free-atom DF screening.
 #          Absorption, polarization and exchange corrections are
 #          switched off.
 #          Phase shifts are calculated for the bare nucleus.
 #          Scattering amplitudes are not evaluated.
 #
 # Element:  O,  Z =   8,  atomic weight = 1.59994E+01 g/mol
 #
 # Nuclear model: Fermi distribution
 #                Average radius = 2.69620E-13 cm
 #                Skin thickness = 5.46000E-14 cm
 #
 # Number of electrons =  8
 #
 # Total elastic cross section = 2.74197E-19 cm**2 = 9.79174E-03 a0**2
 # 1st transport cross section = 2.14455E-26 cm**2 = 7.65834E-10 a0**2
 # 2nd transport cross section = 6.32242E-26 cm**2 = 2.25778E-09 a0**2
 #
 #
 # Differential cross section:                       MU=(1-COS(THETA))/2
 #
 #  THETA        MU          DCS          DCS        Sherman      error
 #  (deg)                 (cm**2/sr)   (a0**2/sr)    function
 #----------------------------------------------------------------------
0.00000E+00 9.77987E-12
7.61557E-13 9.77367E-12
1.18994E-12 9.77021E-12
1.71346E-12 9.76600E-12
2.33225E-12 9.76102E-12
3.04617E-12 9.75528E-12
3.85530E-12 9.74879E-12
4.75964E-12 9.74154E-12
5.75917E-12 9.73355E-12
6.85391E-12 9.72480E-12
8.04379E-12 9.71531E-12
9.32893E-12 9.70508E-12
1.07092E-11 9.69410E-12
1.21847E-11 9.68241E-12
1.37554E-11 9.66995E-12
1.54213E-11 9.65679E-12
1.71823E-11 9.64290E-12
1.90386E-11 9.62829E-12
2.09900E-11 9.61299E-12
2.30367E-11 9.59694E-12
2.51785E-11 9.58024E-12
2.74156E-11 9.56277E-12
2.97478E-11 9.54467E-12
3.21752E-11 9.52585E-12
3.46979E-11 9.50636E-12
3.73157E-11 9.48622E-12
4.00286E-11 9.46537E-12
4.28368E-11 9.44394E-12
4.57402E-11 9.42174E-12
4.87388E-11 9.39900E-12
5.18325E-11 9.37554E-12
5.50215E-11 9.35150E-12
5.83057E-11 9.32683E-12
6.16850E-11 9.30151E-12
6.51595E-11 9.27568E-12
6.87293E-11 9.24910E-12
7.23943E-11 9.22207E-12
7.61544E-11 9.19434E-12
1.18991E-10 8.88743E-12
1.71347E-10 8.53235E-12
2.33223E-10 8.13848E-12
3.04617E-10 7.69513E-12
3.85531E-10 7.26735E-12
4.75965E-10 6.80482E-12
5.75917E-10 6.35639E-12
6.85389E-10 5.91087E-12
8.04380E-10 5.47005E-12
9.32891E-10 5.06120E-12
1.07092E-09 4.64832E-12
1.21847E-09 4.27929E-12
1.37554E-09 3.91286E-12
1.54213E-09 3.58292E-12
1.71823E-09 3.27155E-12
1.90386E-09 2.98400E-12
2.09900E-09 2.72305E-12
2.30367E-09 2.47718E-12
2.51785E-09 2.25975E-12
2.74156E-09 2.05329E-12
2.97478E-09 1.87047E-12
3.21752E-09 1.70166E-12
3.46978E-09 1.54930E-12
3.73156E-09 1.41156E-12
4.00286E-09 1.28538E-12
4.28368E-09 1.17306E-12
4.57402E-09 1.06896E-12
4.87388E-09 9.76400E-13
5.18326E-09 8.91611E-13
5.50215E-09 8.15324E-13
5.83057E-09 7.46155E-13
6.16850E-09 6.83329E-13
6.51596E-09 6.26836E-13
6.87293E-09 5.75075E-13
7.23942E-09 5.28578E-13
7.61544E-09 4.86022E-13
1.18991E-08 2.23545E-13
1.71347E-08 1.14362E-13
2.33223E-08 6.42145E-14
3.04617E-08 3.89315E-14
3.85531E-08 2.50940E-14
4.75965E-08 1.69809E-14
5.75917E-08 1.19441E-14
6.85389E-08 8.67070E-15
8.04380E-08 6.45566E-15
9.32891E-08 4.91152E-15
1.07092E-07 3.80459E-15
1.21847E-07 2.99323E-15
1.37554E-07 2.38735E-15
1.54213E-07 1.92655E-15
1.71823E-07 1.57161E-15
1.90386E-07 1.29421E-15
2.09900E-07 1.07511E-15
2.30367E-07 9.00188E-16
2.51785E-07 7.59152E-16
2.74156E-07 6.44552E-16
2.97478E-07 5.50577E-16
3.21752E-07 4.73030E-16
3.46978E-07 4.08567E-16
3.73156E-07 3.54645E-16
4.00286E-07 3.09283E-16
4.28368E-07 2.70892E-16
4.57402E-07 2.38249E-16
4.87388E-07 2.10345E-16
5.18325E-07 1.86389E-16
5.50215E-07 1.65732E-16
5.83057E-07 1.47843E-16
6.16850E-07 1.32295E-16
6.51596E-07 1.18726E-16
6.87293E-07 1.06848E-16
7.23942E-07 9.64123E-17
7.61543E-07 8.72153E-17
1.18991E-06 3.59462E-17
1.71347E-06 1.73800E-17
2.33223E-06 9.39258E-18
3.04617E-06 5.50911E-18
3.85531E-06 3.44043E-18
4.75964E-06 2.25767E-18
5.75916E-06 1.54217E-18
6.85388E-06 1.08893E-18
8.04378E-06 7.90581E-19
9.32888E-06 5.87759E-19
1.07092E-05 4.46001E-19
1.21846E-05 3.44516E-19
1.37553E-05 2.70322E-19
1.54212E-05 2.15067E-19
1.71822E-05 1.73235E-19
1.90385E-05 1.41134E-19
2.09899E-05 1.16104E-19
2.30365E-05 9.63756E-20
2.51783E-05 8.06620E-20
2.74153E-05 6.80256E-20
2.97475E-05 5.77727E-20
3.21749E-05 4.93839E-20
3.46974E-05 4.24659E-20
3.73152E-05 3.67185E-20
4.00281E-05 3.19107E-20
4.28362E-05 2.78634E-20
4.57395E-05 2.44369E-20
4.87380E-05 2.15206E-20
5.18317E-05 1.90264E-20
5.50205E-05 1.68836E-20
5.83045E-05 1.50344E-20
6.16838E-05 1.34320E-20
6.51582E-05 1.20377E-20
6.87277E-05 1.08197E-20
7.23925E-05 9.75184E-21
7.61524E-05 8.81128E-21
9.21439E-05 6.01660E-21
1.09658E-04 4.24759E-21
1.28695E-04 3.08320E-21
1.49255E-04 2.29182E-21
1.71338E-04 1.73881E-21
1.94942E-04 1.34289E-21
2.20070E-04 1.05354E-21
2.46720E-04 8.38031E-22
2.74892E-04 6.74918E-22
3.04586E-04 5.49612E-22
3.35803E-04 4.52069E-22
3.68542E-04 3.75236E-22
4.02802E-04 3.14040E-22
4.38585E-04 2.64826E-22
4.75889E-04 2.24879E-22
5.14715E-04 1.92184E-22
5.55063E-04 1.65219E-22
5.96931E-04 1.42817E-22
6.40321E-04 1.24086E-22
6.85233E-04 1.08324E-22
7.31665E-04 9.49867E-23
7.79618E-04 8.36384E-23
8.29092E-04 7.39338E-23
8.80086E-04 6.55962E-23
9.32601E-04 5.84000E-23
9.86636E-04 5.21636E-23
1.04219E-03 4.67369E-23
1.09927E-03 4.19972E-23
1.15786E-03 3.78430E-23
1.21797E-03 3.41892E-23
1.27961E-03 3.09656E-23
1.34276E-03 2.81126E-23
1.40743E-03 2.55804E-23
1.47362E-03 2.33266E-23
1.54133E-03 2.13153E-23
1.61056E-03 1.95160E-23
1.68131E-03 1.79022E-23
1.75357E-03 1.64517E-23
1.82735E-03 1.51449E-23
1.90265E-03 1.39651E-23
1.97947E-03 1.28979E-23
2.05780E-03 1.19304E-23
2.13765E-03 1.10519E-23
2.21902E-03 1.02526E-23
2.30190E-03 9.52417E-24
2.38630E-03 8.85916E-24
2.47222E-03 8.25108E-24
2.55965E-03 7.69419E-24
2.64859E-03 7.18339E-24
2.73905E-03 6.71421E-24
2.83103E-03 6.28262E-24
2.92452E-03 5.88509E-24
3.01952E-03 5.51843E-24
3.11604E-03 5.17982E-24
3.21407E-03 4.86673E-24
3.31362E-03 4.57688E-24
3.41468E-03 4.30823E-24
3.51725E-03 4.05896E-24
3.62133E-03 3.82741E-24
3.72692E-03 3.61209E-24
3.83403E-03 3.41166E-24
3.94265E-03 3.22490E-24
4.05278E-03 3.05071E-24
4.16442E-03 2.88808E-24
4.27757E-03 2.73612E-24
4.39223E-03 2.59399E-24
4.50840E-03 2.46094E-24
4.62608E-03 2.33628E-24
4.74527E-03 2.21939E-24
4.86597E-03 2.10969E-24
4.98817E-03 2.00666E-24
5.11188E-03 1.90983E-24
5.23711E-03 1.81874E-24
5.36383E-03 1.73300E-24
5.49207E-03 1.65223E-24
5.62181E-03 1.57609E-24
5.75306E-03 1.50428E-24
5.88581E-03 1.43649E-24
6.02007E-03 1.37245E-24
6.15583E-03 1.31194E-24
6.29310E-03 1.25470E-24
6.43187E-03 1.20054E-24
6.57214E-03 1.14926E-24
6.71392E-03 1.10067E-24
6.85720E-03 1.05461E-24
7.00198E-03 1.01093E-24
7.14827E-03 9.69471E-25
7.29605E-03 9.30106E-25
7.44534E-03 8.92708E-25
7.59612E-03 8.57161E-25
7.97965E-03 7.75698E-25
8.37255E-03 7.03637E-25
8.77480E-03 6.39708E-25
9.18641E-03 5.82837E-25
9.60736E-03 5.32111E-25
1.00376E-02 4.86752E-25
1.04773E-02 4.46094E-25
1.09262E-02 4.09566E-25
1.13844E-02 3.76675E-25
1.18520E-02 3.46998E-25
1.23288E-02 3.20165E-25
1.28150E-02 2.95856E-25
1.33104E-02 2.73793E-25
1.38150E-02 2.53732E-25
1.43290E-02 2.35459E-25
1.48521E-02 2.18788E-25
1.53845E-02 2.03552E-25
1.59262E-02 1.89608E-25
1.64770E-02 1.76826E-25
1.70371E-02 1.65092E-25
1.76063E-02 1.54305E-25
1.81848E-02 1.44376E-25
1.87724E-02 1.35224E-25
1.93692E-02 1.26777E-25
1.99751E-02 1.18972E-25
2.05901E-02 1.11752E-25
2.12143E-02 1.05064E-25
2.18476E-02 9.88625E-26
2.24900E-02 9.31060E-26
2.31415E-02 8.77569E-26
2.38021E-02 8.27811E-26
2.44717E-02 7.81481E-26
2.51504E-02 7.38300E-26
2.58382E-02 6.98016E-26
2.65349E-02 6.60400E-26
2.72407E-02 6.25245E-26
2.79555E-02 5.92361E-26
2.86793E-02 5.61575E-26
2.94120E-02 5.32730E-26
3.01537E-02 5.05681E-26
3.09043E-02 4.80297E-26
3.16639E-02 4.56458E-26
3.24324E-02 4.34052E-26
3.32098E-02 4.12979E-26
3.39961E-02 3.93144E-26
3.47912E-02 3.74462E-26
3.55952E-02 3.56855E-26
3.64081E-02 3.40250E-26
3.72297E-02 3.24579E-26
3.80602E-02 3.09781E-26
3.88995E-02 2.95798E-26
3.97476E-02 2.82578E-26
4.06044E-02 2.70071E-26
4.14700E-02 2.58233E-26
4.23443E-02 2.47021E-26
4.32273E-02 2.36396E-26
4.41190E-02 2.26323E-26
4.50194E-02 2.16767E-26
4.59284E-02 2.07698E-26
4.68461E-02 1.99086E-26
4.87074E-02 1.83126E-26
5.06030E-02 1.68693E-26
5.25328E-02 1.55617E-26
5.44967E-02 1.43749E-26
5.64946E-02 1.32960E-26
5.85262E-02 1.23134E-26
6.05914E-02 1.14172E-26
6.26901E-02 1.05985E-26
6.48222E-02 9.84953E-27
6.69873E-02 9.16340E-27
6.91854E-02 8.53395E-27
7.14163E-02 7.95574E-27
7.36799E-02 7.42392E-27
7.59760E-02 6.93416E-27
7.83043E-02 6.48260E-27
8.06647E-02 6.06576E-27
8.30571E-02 5.68056E-27
8.54812E-02 5.32420E-27
8.79369E-02 4.99418E-27
9.04240E-02 4.68823E-27
9.29422E-02 4.40433E-27
9.54915E-02 4.14062E-27
9.80716E-02 3.89545E-27
1.00682E-01 3.66730E-27
1.03323E-01 3.45481E-27
1.05995E-01 3.25672E-27
1.08696E-01 3.07192E-27
1.11427E-01 2.89937E-27
1.14188E-01 2.73813E-27
1.16978E-01 2.58735E-27
1.19797E-01 2.44624E-27
1.22645E-01 2.31408E-27
1.25522E-01 2.19023E-27
1.28428E-01 2.07407E-27
1.31361E-01 1.96506E-27
1.34323E-01 1.86269E-27
1.37313E-01 1.76650E-27
1.40330E-01 1.67605E-27
1.43375E-01 1.59096E-27
1.46447E-01 1.51085E-27
1.49545E-01 1.43539E-27
1.52671E-01 1.36428E-27
1.55823E-01 1.29722E-27
1.59001E-01 1.23395E-27
1.62205E-01 1.17423E-27
1.65435E-01 1.11782E-27
1.68690E-01 1.06452E-27
1.71970E-01 1.01412E-27
1.75276E-01 9.66461E-28
1.78606E-01 9.21359E-28
1.81961E-01 8.78659E-28
1.85340E-01 8.38216E-28
1.88743E-01 7.99894E-28
1.92169E-01 7.63566E-28
1.95619E-01 7.29115E-28
1.99092E-01 6.96429E-28
2.02589E-01 6.65405E-28
2.06107E-01 6.35949E-28
2.09649E-01 6.07969E-28
2.13212E-01 5.81382E-28
2.16797E-01 5.56109E-28
2.20404E-01 5.32077E-28
2.24032E-01 5.09217E-28
2.27680E-01 4.87463E-28
2.31350E-01 4.66756E-28
2.35040E-01 4.47038E-28
2.38751E-01 4.28256E-28
2.42481E-01 4.10360E-28
2.46231E-01 3.93302E-28
2.50000E-01 3.77039E-28
2.53788E-01 3.61529E-28
2.57595E-01 3.46733E-28
2.61421E-01 3.32613E-28
2.65264E-01 3.19135E-28
2.69126E-01 3.06266E-28
2.73005E-01 2.93976E-28
2.76901E-01 2.82234E-28
2.80814E-01 2.71014E-28
2.84744E-01 2.60289E-28
2.88691E-01 2.50036E-28
2.92653E-01 2.40231E-28
2.96632E-01 2.30852E-28
3.00625E-01 2.21878E-28
3.04634E-01 2.13290E-28
3.08658E-01 2.05069E-28
3.12697E-01 1.97199E-28
3.16749E-01 1.89661E-28
3.20816E-01 1.82441E-28
3.24896E-01 1.75524E-28
3.28990E-01 1.68896E-28
3.33097E-01 1.62542E-28
3.37216E-01 1.56452E-28
3.41348E-01 1.50611E-28
3.45492E-01 1.45010E-28
3.49647E-01 1.39637E-28
3.53814E-01 1.34482E-28
3.57992E-01 1.29535E-28
3.62181E-01 1.24787E-28
3.66381E-01 1.20229E-28
3.70590E-01 1.15853E-28
3.74810E-01 1.11651E-28
3.79039E-01 1.07614E-28
3.83277E-01 1.03736E-28
3.87524E-01 1.00011E-28
3.91780E-01 9.64303E-29
3.96044E-01 9.29892E-29
4.00316E-01 8.96813E-29
4.04596E-01 8.65010E-29
4.08882E-01 8.34428E-29
4.13176E-01 8.05016E-29
4.17476E-01 7.76726E-29
4.21783E-01 7.49510E-29
4.26095E-01 7.23323E-29
4.30413E-01 6.98124E-29
4.34737E-01 6.73871E-29
4.39065E-01 6.50525E-29
4.43398E-01 6.28050E-29
4.47736E-01 6.06410E-29
4.52077E-01 5.85572E-29
4.56422E-01 5.65502E-29
4.60770E-01 5.46170E-29
4.65122E-01 5.27546E-29
4.69476E-01 5.09603E-29
4.73832E-01 4.92312E-29
4.78190E-01 4.75649E-29
4.82550E-01 4.59589E-29
4.86912E-01 4.44107E-29
4.91274E-01 4.29182E-29
4.95637E-01 4.14792E-29
5.00000E-01 4.00915E-29
5.04363E-01 3.87532E-29
5.08726E-01 3.74625E-29
5.13088E-01 3.62173E-29
5.17450E-01 3.50162E-29
5.21810E-01 3.38572E-29
5.26168E-01 3.27389E-29
5.30524E-01 3.16597E-29
5.34878E-01 3.06181E-29
5.39230E-01 2.96128E-29
5.43578E-01 2.86423E-29
5.47923E-01 2.77053E-29
5.52264E-01 2.68007E-29
5.56602E-01 2.59271E-29
5.60935E-01 2.50835E-29
5.65263E-01 2.42687E-29
5.69587E-01 2.34818E-29
5.73905E-01 2.27216E-29
5.78217E-01 2.19871E-29
5.82524E-01 2.12776E-29
5.86824E-01 2.05920E-29
5.91118E-01 1.99294E-29
5.95404E-01 1.92891E-29
5.99684E-01 1.86703E-29
6.03956E-01 1.80721E-29
6.08220E-01 1.74939E-29
6.12476E-01 1.69349E-29
6.16723E-01 1.63945E-29
6.20961E-01 1.58719E-29
6.25190E-01 1.53666E-29
6.29410E-01 1.48779E-29
6.33619E-01 1.44052E-29
6.37819E-01 1.39481E-29
6.42008E-01 1.35059E-29
6.46186E-01 1.30782E-29
6.50353E-01 1.26644E-29
6.54508E-01 1.22640E-29
6.58652E-01 1.18766E-29
6.62784E-01 1.15017E-29
6.66903E-01 1.11390E-29
6.71010E-01 1.07879E-29
6.75104E-01 1.04481E-29
6.79184E-01 1.01192E-29
6.83251E-01 9.80083E-30
6.87303E-01 9.49263E-30
6.91342E-01 9.19426E-30
6.95366E-01 8.90537E-30
6.99375E-01 8.62565E-30
7.03368E-01 8.35480E-30
7.07347E-01 8.09251E-30
7.11309E-01 7.83851E-30
7.15256E-01 7.59250E-30
7.19186E-01 7.35423E-30
7.23099E-01 7.12343E-30
7.26995E-01 6.89986E-30
7.30874E-01 6.68328E-30
7.34736E-01 6.47347E-30
7.38579E-01 6.27018E-30
7.42405E-01 6.07322E-30
7.46212E-01 5.88237E-30
7.50000E-01 5.69744E-30
7.53769E-01 5.51823E-30
7.57519E-01 5.34455E-30
7.61249E-01 5.17622E-30
7.64960E-01 5.01308E-30
7.68650E-01 4.85494E-30
7.72320E-01 4.70166E-30
7.75968E-01 4.55308E-30
7.79596E-01 4.40903E-30
7.83203E-01 4.26939E-30
7.86788E-01 4.13400E-30
7.90351E-01 4.00274E-30
7.93893E-01 3.87546E-30
7.97411E-01 3.75205E-30
8.00908E-01 3.63238E-30
8.04381E-01 3.51633E-30
8.07831E-01 3.40378E-30
8.11257E-01 3.29464E-30
8.14660E-01 3.18878E-30
8.18039E-01 3.08612E-30
8.21394E-01 2.98654E-30
8.24724E-01 2.88995E-30
8.28030E-01 2.79626E-30
8.31310E-01 2.70537E-30
8.34565E-01 2.61721E-30
8.37795E-01 2.53169E-30
8.40999E-01 2.44871E-30
8.44177E-01 2.36822E-30
8.47329E-01 2.29012E-30
8.50455E-01 2.21436E-30
8.53553E-01 2.14084E-30
8.56625E-01 2.06952E-30
8.59670E-01 2.00031E-30
8.62687E-01 1.93316E-30
8.65677E-01 1.86800E-30
8.68639E-01 1.80478E-30
8.71572E-01 1.74343E-30
8.74478E-01 1.68390E-30
8.77355E-01 1.62613E-30
8.80203E-01 1.57008E-30
8.83022E-01 1.51568E-30
8.85812E-01 1.46290E-30
8.88573E-01 1.41168E-30
8.91304E-01 1.36198E-30
8.94005E-01 1.31375E-30
8.96677E-01 1.26694E-30
8.99318E-01 1.22153E-30
9.01928E-01 1.17746E-30
9.04508E-01 1.13470E-30
9.07058E-01 1.09321E-30
9.09576E-01 1.05295E-30
9.12063E-01 1.01389E-30
9.14519E-01 9.75994E-31
9.16943E-01 9.39226E-31
9.19335E-01 9.03556E-31
9.21696E-01 8.68953E-31
9.24024E-01 8.35387E-31
9.26320E-01 8.02828E-31
9.28584E-01 7.71247E-31
9.30815E-01 7.40619E-31
9.33013E-01 7.10917E-31
9.35178E-01 6.82114E-31
9.37310E-01 6.54188E-31
9.39409E-01 6.27111E-31
9.41474E-01 6.00865E-31
9.43505E-01 5.75423E-31
9.45503E-01 5.50767E-31
9.47467E-01 5.26874E-31
9.49397E-01 5.03724E-31
9.51293E-01 4.81299E-31
9.53154E-01 4.59577E-31
9.54981E-01 4.38544E-31
9.56773E-01 4.18179E-31
9.58530E-01 3.98466E-31
9.60252E-01 3.79389E-31
9.61940E-01 3.60933E-31
9.63592E-01 3.43079E-31
9.65209E-01 3.25817E-31
9.66790E-01 3.09129E-31
9.68336E-01 2.93004E-31
9.69846E-01 2.77426E-31
9.71321E-01 2.62384E-31
9.72759E-01 2.47865E-31
9.74162E-01 2.33857E-31
9.75528E-01 2.20349E-31
9.76858E-01 2.07330E-31
9.78152E-01 1.94789E-31
9.79410E-01 1.82716E-31
9.80631E-01 1.71101E-31
9.81815E-01 1.59934E-31
9.82963E-01 1.49207E-31
9.84074E-01 1.38912E-31
9.85148E-01 1.29039E-31
9.86185E-01 1.19580E-31
9.87185E-01 1.10528E-31
9.88148E-01 1.01876E-31
9.89074E-01 9.36167E-32
9.89962E-01 8.57433E-32
9.90814E-01 7.82502E-32
9.91627E-01 7.11301E-32
9.92404E-01 6.43787E-32
9.93143E-01 5.79900E-32
9.93844E-01 5.19584E-32
9.94508E-01 4.62798E-32
9.95134E-01 4.09495E-32
9.95722E-01 3.59629E-32
9.96273E-01 3.13162E-32
9.96786E-01 2.70062E-32
9.97261E-01 2.30288E-32
9.97698E-01 1.93811E-32
9.98097E-01 1.60603E-32
9.98459E-01 1.30635E-32
9.98782E-01 1.03887E-32
9.99067E-01 8.03353E-33
9.99315E-01 5.99607E-33
9.99524E-01 4.27472E-33
9.99695E-01 2.86811E-33
9.99829E-01 1.77552E-33
9.99924E-01 9.95530E-34
9.99981E-01 5.27890E-34
1.00000E+00 3.71940E-34
