 #
 # Subroutine ELSEPA. Elastic scattering of electrons and positrons
 #                    by neutral atoms and positive ions
 #
 # Projectile: positron
 # Kinetic energy = 3.50000E+07 eV = 1.28623E+06 a.u.
 #
 # WARNING: High-energy factorization with free-atom DF screening.
 #          Absorption, polarization and exchange corrections are
 #          switched off.
 #          Phase shifts are calculated for the bare nucleus.
 #          Scattering amplitudes are not evaluated.
 #
 # Element: Be,  Z =   4,  atomic weight = 9.01220E+00 g/mol
 #
 # Nuclear model: Fermi distribution
 #                Average radius = 2.22669E-13 cm
 #                Skin thickness = 5.46000E-14 cm
 #
 # Number of electrons =  4
 #
 # Total elastic cross section = 1.70313E-19 cm**2 = 6.08198E-03 a0**2
 # 1st transport cross section = 2.65666E-26 cm**2 = 9.48709E-10 a0**2
 # 2nd transport cross section = 7.75052E-26 cm**2 = 2.76776E-09 a0**2
 #
 #
 # Differential cross section:                       MU=(1-COS(THETA))/2
 #
 #  THETA        MU          DCS          DCS        Sherman      error
 #  (deg)                 (cm**2/sr)   (a0**2/sr)    function
 #----------------------------------------------------------------------
0.00000E+00 4.50275E-12
7.61557E-13 4.50080E-12
1.18994E-12 4.49971E-12
1.71346E-12 4.49837E-12
2.33225E-12 4.49679E-12
3.04617E-12 4.49497E-12
3.85530E-12 4.49291E-12
4.75964E-12 4.49061E-12
5.75917E-12 4.48806E-12
6.85391E-12 4.48528E-12
8.04379E-12 4.48226E-12
9.32893E-12 4.47900E-12
1.07092E-11 4.47550E-12
1.21847E-11 4.47177E-12
1.37554E-11 4.46779E-12
1.54213E-11 4.46359E-12
1.71823E-11 4.45915E-12
1.90386E-11 4.45447E-12
2.09900E-11 4.44956E-12
2.30367E-11 4.44442E-12
2.51785E-11 4.43905E-12
2.74156E-11 4.43346E-12
2.97478E-11 4.42763E-12
3.21752E-11 4.42157E-12
3.46979E-11 4.41529E-12
3.73157E-11 4.40879E-12
4.00286E-11 4.40206E-12
4.28368E-11 4.39511E-12
4.57402E-11 4.38794E-12
4.87388E-11 4.38056E-12
5.18325E-11 4.37294E-12
5.50215E-11 4.36512E-12
5.83057E-11 4.35709E-12
6.16850E-11 4.34885E-12
6.51595E-11 4.34038E-12
6.87293E-11 4.33171E-12
7.23943E-11 4.32284E-12
7.61544E-11 4.31377E-12
1.18991E-10 4.21206E-12
1.71347E-10 4.09208E-12
2.33223E-10 3.95599E-12
3.04617E-10 3.80640E-12
3.85531E-10 3.64573E-12
4.75965E-10 3.47676E-12
5.75917E-10 3.30181E-12
6.85389E-10 3.12352E-12
8.04380E-10 2.94390E-12
9.32891E-10 2.76520E-12
1.07092E-09 2.58899E-12
1.21847E-09 2.41699E-12
1.37554E-09 2.24644E-12
1.54213E-09 2.08513E-12
1.71823E-09 1.93345E-12
1.90386E-09 1.79147E-12
2.09900E-09 1.65187E-12
2.30367E-09 1.52223E-12
2.51785E-09 1.40234E-12
2.74156E-09 1.29174E-12
2.97478E-09 1.18605E-12
3.21752E-09 1.08895E-12
3.46978E-09 9.99932E-13
3.73156E-09 9.18423E-13
4.00286E-09 8.42274E-13
4.28368E-09 7.72655E-13
4.57402E-09 7.09080E-13
4.87388E-09 6.51037E-13
5.18326E-09 5.97689E-13
5.50215E-09 5.48989E-13
5.83057E-09 5.04539E-13
6.16850E-09 4.63959E-13
6.51596E-09 4.27061E-13
6.87293E-09 3.93351E-13
7.23942E-09 3.62536E-13
7.61544E-09 3.34352E-13
1.18991E-08 1.58141E-13
1.71347E-08 8.33756E-14
2.33223E-08 4.86730E-14
3.04617E-08 3.07914E-14
3.85531E-08 2.07773E-14
4.75965E-08 1.47032E-14
5.75917E-08 1.07794E-14
6.85389E-08 8.12811E-15
8.04380E-08 6.26712E-15
9.32891E-08 4.91931E-15
1.07092E-07 3.91618E-15
1.21847E-07 3.15731E-15
1.37554E-07 2.56924E-15
1.54213E-07 2.11466E-15
1.71823E-07 1.75461E-15
1.90386E-07 1.46585E-15
2.09900E-07 1.23467E-15
2.30367E-07 1.04541E-15
2.51785E-07 8.90707E-16
2.74156E-07 7.63531E-16
2.97478E-07 6.57177E-16
3.21752E-07 5.68769E-16
3.46978E-07 4.94415E-16
3.73156E-07 4.31531E-16
4.00286E-07 3.78332E-16
4.28368E-07 3.32823E-16
4.57402E-07 2.93893E-16
4.87388E-07 2.60466E-16
5.18325E-07 2.31513E-16
5.50215E-07 2.06469E-16
5.83057E-07 1.84670E-16
6.16850E-07 1.65631E-16
6.51596E-07 1.48979E-16
6.87293E-07 1.34325E-16
7.23942E-07 1.21418E-16
7.61543E-07 1.10020E-16
1.18991E-06 4.57960E-17
1.71347E-06 2.22376E-17
2.33223E-06 1.20426E-17
3.04617E-06 7.07110E-18
3.85531E-06 4.41858E-18
4.75964E-06 2.90055E-18
5.75916E-06 1.98147E-18
6.85388E-06 1.39924E-18
8.04378E-06 1.01598E-18
9.32888E-06 7.55406E-19
1.07092E-05 5.73261E-19
1.21846E-05 4.42850E-19
1.37553E-05 3.47500E-19
1.54212E-05 2.76485E-19
1.71822E-05 2.22718E-19
1.90385E-05 1.81407E-19
2.09899E-05 1.49245E-19
2.30365E-05 1.23966E-19
2.51783E-05 1.03711E-19
2.74153E-05 8.74368E-20
2.97475E-05 7.42518E-20
3.21749E-05 6.34787E-20
3.46974E-05 5.46013E-20
3.73152E-05 4.72257E-20
4.00281E-05 4.10511E-20
4.28362E-05 3.58474E-20
4.57395E-05 3.14371E-20
4.87380E-05 2.76813E-20
5.18317E-05 2.44694E-20
5.50205E-05 2.17115E-20
5.83045E-05 1.93337E-20
6.16838E-05 1.72748E-20
6.51582E-05 1.54838E-20
6.87277E-05 1.39192E-20
7.23925E-05 1.25465E-20
7.61524E-05 1.13377E-20
9.21439E-05 7.74036E-21
1.09658E-04 5.46617E-21
1.28695E-04 3.96779E-21
1.49255E-04 2.94966E-21
1.71338E-04 2.23831E-21
1.94942E-04 1.72867E-21
2.20070E-04 1.35647E-21
2.46720E-04 1.07904E-21
2.74892E-04 8.69146E-22
3.04586E-04 7.07862E-22
3.35803E-04 5.82283E-22
3.68542E-04 4.83397E-22
4.02802E-04 4.04593E-22
4.38585E-04 3.41240E-22
4.75889E-04 2.89797E-22
5.14715E-04 2.47695E-22
5.55063E-04 2.12971E-22
5.96931E-04 1.84114E-22
6.40321E-04 1.59992E-22
6.85233E-04 1.39685E-22
7.31665E-04 1.22503E-22
7.79618E-04 1.07883E-22
8.29092E-04 9.53772E-23
8.80086E-04 8.46344E-23
9.32601E-04 7.53592E-23
9.86636E-04 6.73222E-23
1.04219E-03 6.03270E-23
1.09927E-03 5.42171E-23
1.15786E-03 4.88617E-23
1.21797E-03 4.41503E-23
1.27961E-03 3.99941E-23
1.34276E-03 3.63146E-23
1.40743E-03 3.30489E-23
1.47362E-03 3.01420E-23
1.54133E-03 2.75474E-23
1.61056E-03 2.52263E-23
1.68131E-03 2.31440E-23
1.75357E-03 2.12725E-23
1.82735E-03 1.95860E-23
1.90265E-03 1.80634E-23
1.97947E-03 1.66858E-23
2.05780E-03 1.54369E-23
2.13765E-03 1.43028E-23
2.21902E-03 1.32707E-23
2.30190E-03 1.23301E-23
2.38630E-03 1.14713E-23
2.47222E-03 1.06859E-23
2.55965E-03 9.96655E-24
2.64859E-03 9.30662E-24
2.73905E-03 8.70045E-24
2.83103E-03 8.14276E-24
2.92452E-03 7.62901E-24
3.01952E-03 7.15514E-24
3.11604E-03 6.71741E-24
3.21407E-03 6.31268E-24
3.31362E-03 5.93790E-24
3.41468E-03 5.59053E-24
3.51725E-03 5.26816E-24
3.62133E-03 4.96866E-24
3.72692E-03 4.69014E-24
3.83403E-03 4.43083E-24
3.94265E-03 4.18919E-24
4.05278E-03 3.96377E-24
4.16442E-03 3.75330E-24
4.27757E-03 3.55660E-24
4.39223E-03 3.37260E-24
4.50840E-03 3.20034E-24
4.62608E-03 3.03891E-24
4.74527E-03 2.88753E-24
4.86597E-03 2.74545E-24
4.98817E-03 2.61198E-24
5.11188E-03 2.48653E-24
5.23711E-03 2.36849E-24
5.36383E-03 2.25738E-24
5.49207E-03 2.15269E-24
5.62181E-03 2.05400E-24
5.75306E-03 1.96089E-24
5.88581E-03 1.87298E-24
6.02007E-03 1.78994E-24
6.15583E-03 1.71145E-24
6.29310E-03 1.63720E-24
6.43187E-03 1.56693E-24
6.57214E-03 1.50038E-24
6.71392E-03 1.43733E-24
6.85720E-03 1.37754E-24
7.00198E-03 1.32083E-24
7.14827E-03 1.26700E-24
7.29605E-03 1.21588E-24
7.44534E-03 1.16731E-24
7.59612E-03 1.12113E-24
7.97965E-03 1.01528E-24
8.37255E-03 9.21613E-25
8.77480E-03 8.38480E-25
9.18641E-03 7.64495E-25
9.60736E-03 6.98476E-25
1.00376E-02 6.39417E-25
1.04773E-02 5.86457E-25
1.09262E-02 5.38855E-25
1.13844E-02 4.95975E-25
1.18520E-02 4.57266E-25
1.23288E-02 4.22251E-25
1.28150E-02 3.90516E-25
1.33104E-02 3.61698E-25
1.38150E-02 3.35483E-25
1.43290E-02 3.11594E-25
1.48521E-02 2.89787E-25
1.53845E-02 2.69848E-25
1.59262E-02 2.51590E-25
1.64770E-02 2.34845E-25
1.70371E-02 2.19466E-25
1.76063E-02 2.05320E-25
1.81848E-02 1.92292E-25
1.87724E-02 1.80277E-25
1.93692E-02 1.69183E-25
1.99751E-02 1.58925E-25
2.05901E-02 1.49430E-25
2.12143E-02 1.40631E-25
2.18476E-02 1.32467E-25
2.24900E-02 1.24884E-25
2.31415E-02 1.17834E-25
2.38021E-02 1.11272E-25
2.44717E-02 1.05158E-25
2.51504E-02 9.94567E-26
2.58382E-02 9.41343E-26
2.65349E-02 8.91614E-26
2.72407E-02 8.45108E-26
2.79555E-02 8.01578E-26
2.86793E-02 7.60799E-26
2.94120E-02 7.22566E-26
3.01537E-02 6.86691E-26
3.09043E-02 6.53001E-26
3.16639E-02 6.21340E-26
3.24324E-02 5.91562E-26
3.32098E-02 5.63536E-26
3.39961E-02 5.37138E-26
3.47912E-02 5.12258E-26
3.55952E-02 4.88792E-26
3.64081E-02 4.66645E-26
3.72297E-02 4.45730E-26
3.80602E-02 4.25964E-26
3.88995E-02 4.07274E-26
3.97476E-02 3.89590E-26
4.06044E-02 3.72848E-26
4.14700E-02 3.56988E-26
4.23443E-02 3.41956E-26
4.32273E-02 3.27700E-26
4.41190E-02 3.14173E-26
4.50194E-02 3.01331E-26
4.59284E-02 2.89133E-26
4.68461E-02 2.77540E-26
4.87074E-02 2.56031E-26
5.06030E-02 2.36548E-26
5.25328E-02 2.18865E-26
5.44967E-02 2.02789E-26
5.64946E-02 1.88147E-26
5.85262E-02 1.74789E-26
6.05914E-02 1.62584E-26
6.26901E-02 1.51413E-26
6.48222E-02 1.41175E-26
6.69873E-02 1.31777E-26
6.91854E-02 1.23139E-26
7.14163E-02 1.15188E-26
7.36799E-02 1.07861E-26
7.59760E-02 1.01099E-26
7.83043E-02 9.48511E-27
8.06647E-02 8.90718E-27
8.30571E-02 8.37196E-27
8.54812E-02 7.87573E-27
8.79369E-02 7.41515E-27
9.04240E-02 6.98722E-27
9.29422E-02 6.58920E-27
9.54915E-02 6.21865E-27
9.80716E-02 5.87332E-27
1.00682E-01 5.55121E-27
1.03323E-01 5.25048E-27
1.05995E-01 4.96945E-27
1.08696E-01 4.70661E-27
1.11427E-01 4.46057E-27
1.14188E-01 4.23008E-27
1.16978E-01 4.01397E-27
1.19797E-01 3.81119E-27
1.22645E-01 3.62078E-27
1.25522E-01 3.44184E-27
1.28428E-01 3.27357E-27
1.31361E-01 3.11522E-27
1.34323E-01 2.96609E-27
1.37313E-01 2.82556E-27
1.40330E-01 2.69305E-27
1.43375E-01 2.56801E-27
1.46447E-01 2.44996E-27
1.49545E-01 2.33843E-27
1.52671E-01 2.23300E-27
1.55823E-01 2.13328E-27
1.59001E-01 2.03890E-27
1.62205E-01 1.94953E-27
1.65435E-01 1.86486E-27
1.68690E-01 1.78459E-27
1.71970E-01 1.70847E-27
1.75276E-01 1.63623E-27
1.78606E-01 1.56764E-27
1.81961E-01 1.50249E-27
1.85340E-01 1.44057E-27
1.88743E-01 1.38171E-27
1.92169E-01 1.32571E-27
1.95619E-01 1.27242E-27
1.99092E-01 1.22168E-27
2.02589E-01 1.17336E-27
2.06107E-01 1.12730E-27
2.09649E-01 1.08340E-27
2.13212E-01 1.04153E-27
2.16797E-01 1.00159E-27
2.20404E-01 9.63457E-28
2.24032E-01 9.27051E-28
2.27680E-01 8.92275E-28
2.31350E-01 8.59045E-28
2.35040E-01 8.27280E-28
2.38751E-01 7.96904E-28
2.42481E-01 7.67846E-28
2.46231E-01 7.40040E-28
2.50000E-01 7.13422E-28
2.53788E-01 6.87933E-28
2.57595E-01 6.63517E-28
2.61421E-01 6.40121E-28
2.65264E-01 6.17696E-28
2.69126E-01 5.96194E-28
2.73005E-01 5.75572E-28
2.76901E-01 5.55786E-28
2.80814E-01 5.36798E-28
2.84744E-01 5.18570E-28
2.88691E-01 5.01066E-28
2.92653E-01 4.84253E-28
2.96632E-01 4.68099E-28
3.00625E-01 4.52574E-28
3.04634E-01 4.37650E-28
3.08658E-01 4.23299E-28
3.12697E-01 4.09495E-28
3.16749E-01 3.96216E-28
3.20816E-01 3.83436E-28
3.24896E-01 3.71135E-28
3.28990E-01 3.59291E-28
3.33097E-01 3.47886E-28
3.37216E-01 3.36899E-28
3.41348E-01 3.26313E-28
3.45492E-01 3.16111E-28
3.49647E-01 3.06277E-28
3.53814E-01 2.96796E-28
3.57992E-01 2.87652E-28
3.62181E-01 2.78833E-28
3.66381E-01 2.70324E-28
3.70590E-01 2.62112E-28
3.74810E-01 2.54187E-28
3.79039E-01 2.46536E-28
3.83277E-01 2.39148E-28
3.87524E-01 2.32013E-28
3.91780E-01 2.25120E-28
3.96044E-01 2.18461E-28
4.00316E-01 2.12026E-28
4.04596E-01 2.05806E-28
4.08882E-01 1.99793E-28
4.13176E-01 1.93980E-28
4.17476E-01 1.88358E-28
4.21783E-01 1.82920E-28
4.26095E-01 1.77659E-28
4.30413E-01 1.72569E-28
4.34737E-01 1.67643E-28
4.39065E-01 1.62875E-28
4.43398E-01 1.58259E-28
4.47736E-01 1.53790E-28
4.52077E-01 1.49463E-28
4.56422E-01 1.45271E-28
4.60770E-01 1.41210E-28
4.65122E-01 1.37277E-28
4.69476E-01 1.33465E-28
4.73832E-01 1.29770E-28
4.78190E-01 1.26189E-28
4.82550E-01 1.22718E-28
4.86912E-01 1.19352E-28
4.91274E-01 1.16088E-28
4.95637E-01 1.12922E-28
5.00000E-01 1.09852E-28
5.04363E-01 1.06873E-28
5.08726E-01 1.03983E-28
5.13088E-01 1.01178E-28
5.17450E-01 9.84557E-29
5.21810E-01 9.58136E-29
5.26168E-01 9.32486E-29
5.30524E-01 9.07583E-29
5.34878E-01 8.83401E-29
5.39230E-01 8.59917E-29
5.43578E-01 8.37108E-29
5.47923E-01 8.14951E-29
5.52264E-01 7.93426E-29
5.56602E-01 7.72511E-29
5.60935E-01 7.52188E-29
5.65263E-01 7.32437E-29
5.69587E-01 7.13240E-29
5.73905E-01 6.94579E-29
5.78217E-01 6.76437E-29
5.82524E-01 6.58797E-29
5.86824E-01 6.41645E-29
5.91118E-01 6.24965E-29
5.95404E-01 6.08742E-29
5.99684E-01 5.92961E-29
6.03956E-01 5.77610E-29
6.08220E-01 5.62675E-29
6.12476E-01 5.48143E-29
6.16723E-01 5.34001E-29
6.20961E-01 5.20240E-29
6.25190E-01 5.06845E-29
6.29410E-01 4.93808E-29
6.33619E-01 4.81116E-29
6.37819E-01 4.68760E-29
6.42008E-01 4.56729E-29
6.46186E-01 4.45014E-29
6.50353E-01 4.33606E-29
6.54508E-01 4.22496E-29
6.58652E-01 4.11674E-29
6.62784E-01 4.01134E-29
6.66903E-01 3.90865E-29
6.71010E-01 3.80861E-29
6.75104E-01 3.71114E-29
6.79184E-01 3.61616E-29
6.83251E-01 3.52361E-29
6.87303E-01 3.43341E-29
6.91342E-01 3.34551E-29
6.95366E-01 3.25982E-29
6.99375E-01 3.17630E-29
7.03368E-01 3.09488E-29
7.07347E-01 3.01550E-29
7.11309E-01 2.93811E-29
7.15256E-01 2.86264E-29
7.19186E-01 2.78906E-29
7.23099E-01 2.71730E-29
7.26995E-01 2.64732E-29
7.30874E-01 2.57906E-29
7.34736E-01 2.51249E-29
7.38579E-01 2.44755E-29
7.42405E-01 2.38421E-29
7.46212E-01 2.32241E-29
7.50000E-01 2.26212E-29
7.53769E-01 2.20330E-29
7.57519E-01 2.14590E-29
7.61249E-01 2.08990E-29
7.64960E-01 2.03525E-29
7.68650E-01 1.98192E-29
7.72320E-01 1.92987E-29
7.75968E-01 1.87908E-29
7.79596E-01 1.82950E-29
7.83203E-01 1.78111E-29
7.86788E-01 1.73387E-29
7.90351E-01 1.68777E-29
7.93893E-01 1.64276E-29
7.97411E-01 1.59882E-29
8.00908E-01 1.55593E-29
8.04381E-01 1.51405E-29
8.07831E-01 1.47316E-29
8.11257E-01 1.43324E-29
8.14660E-01 1.39426E-29
8.18039E-01 1.35620E-29
8.21394E-01 1.31904E-29
8.24724E-01 1.28275E-29
8.28030E-01 1.24732E-29
8.31310E-01 1.21271E-29
8.34565E-01 1.17892E-29
8.37795E-01 1.14592E-29
8.40999E-01 1.11370E-29
8.44177E-01 1.08223E-29
8.47329E-01 1.05149E-29
8.50455E-01 1.02148E-29
8.53553E-01 9.92164E-30
8.56625E-01 9.63538E-30
8.59670E-01 9.35579E-30
8.62687E-01 9.08276E-30
8.65677E-01 8.81610E-30
8.68639E-01 8.55568E-30
8.71572E-01 8.30136E-30
8.74478E-01 8.05300E-30
8.77355E-01 7.81047E-30
8.80203E-01 7.57360E-30
8.83022E-01 7.34231E-30
8.85812E-01 7.11645E-30
8.88573E-01 6.89590E-30
8.91304E-01 6.68056E-30
8.94005E-01 6.47030E-30
8.96677E-01 6.26500E-30
8.99318E-01 6.06457E-30
9.01928E-01 5.86889E-30
9.04508E-01 5.67787E-30
9.07058E-01 5.49141E-30
9.09576E-01 5.30939E-30
9.12063E-01 5.13176E-30
9.14519E-01 4.95838E-30
9.16943E-01 4.78919E-30
9.19335E-01 4.62410E-30
9.21696E-01 4.46303E-30
9.24024E-01 4.30588E-30
9.26320E-01 4.15258E-30
9.28584E-01 4.00306E-30
9.30815E-01 3.85724E-30
9.33013E-01 3.71504E-30
9.35178E-01 3.57640E-30
9.37310E-01 3.44125E-30
9.39409E-01 3.30950E-30
9.41474E-01 3.18112E-30
9.43505E-01 3.05603E-30
9.45503E-01 2.93417E-30
9.47467E-01 2.81547E-30
9.49397E-01 2.69989E-30
9.51293E-01 2.58736E-30
9.53154E-01 2.47783E-30
9.54981E-01 2.37126E-30
9.56773E-01 2.26758E-30
9.58530E-01 2.16675E-30
9.60252E-01 2.06870E-30
9.61940E-01 1.97342E-30
9.63592E-01 1.88084E-30
9.65209E-01 1.79093E-30
9.66790E-01 1.70362E-30
9.68336E-01 1.61891E-30
9.69846E-01 1.53672E-30
9.71321E-01 1.45704E-30
9.72759E-01 1.37982E-30
9.74162E-01 1.30503E-30
9.75528E-01 1.23262E-30
9.76858E-01 1.16257E-30
9.78152E-01 1.09485E-30
9.79410E-01 1.02941E-30
9.80631E-01 9.66245E-31
9.81815E-01 9.05306E-31
9.82963E-01 8.46577E-31
9.84074E-01 7.90023E-31
9.85148E-01 7.35617E-31
9.86185E-01 6.83339E-31
9.87185E-01 6.33161E-31
9.88148E-01 5.85070E-31
9.89074E-01 5.39030E-31
9.89962E-01 4.95029E-31
9.90814E-01 4.53044E-31
9.91627E-01 4.13054E-31
9.92404E-01 3.75050E-31
9.93143E-01 3.39003E-31
9.93844E-01 3.04899E-31
9.94508E-01 2.72730E-31
9.95134E-01 2.42473E-31
9.95722E-01 2.14118E-31
9.96273E-01 1.87648E-31
9.96786E-01 1.63061E-31
9.97261E-01 1.40336E-31
9.97698E-01 1.19469E-31
9.98097E-01 1.00443E-31
9.98459E-01 8.32605E-32
9.98782E-01 6.79038E-32
9.99067E-01 5.43708E-32
9.99315E-01 4.26522E-32
9.99524E-01 3.27478E-32
9.99695E-01 2.46509E-32
9.99829E-01 1.83571E-32
9.99924E-01 1.38629E-32
9.99981E-01 1.11683E-32
1.00000E+00 1.02722E-32
