 #
 # Subroutine ELSEPA. Elastic scattering of electrons and positrons
 #                    by neutral atoms and positive ions
 #
 # Projectile: positron
 # Kinetic energy = 1.75000E+08 eV = 6.43113E+06 a.u.
 #
 # WARNING: High-energy factorization with free-atom DF screening.
 #          Absorption, polarization and exchange corrections are
 #          switched off.
 #          Phase shifts are calculated for the bare nucleus.
 #          Scattering amplitudes are not evaluated.
 #
 # Element: Be,  Z =   4,  atomic weight = 9.01220E+00 g/mol
 #
 # Nuclear model: Fermi distribution
 #                Average radius = 2.22669E-13 cm
 #                Skin thickness = 5.46000E-14 cm
 #
 # Number of electrons =  4
 #
 # Total elastic cross section = 1.69973E-19 cm**2 = 6.06986E-03 a0**2
 # 1st transport cross section = 1.20046E-27 cm**2 = 4.28692E-11 a0**2
 # 2nd transport cross section = 3.57773E-27 cm**2 = 1.27763E-10 a0**2
 #
 #
 # Differential cross section:                       MU=(1-COS(THETA))/2
 #
 #  THETA        MU          DCS          DCS        Sherman      error
 #  (deg)                 (cm**2/sr)   (a0**2/sr)    function
 #----------------------------------------------------------------------
0.00000E+00 1.09992E-10
7.61557E-13 1.08839E-10
1.18994E-12 1.08198E-10
1.71346E-12 1.07421E-10
2.33225E-12 1.06513E-10
3.04617E-12 1.05477E-10
3.85530E-12 1.04320E-10
4.75964E-12 1.03046E-10
5.75917E-12 1.01661E-10
6.85391E-12 1.00174E-10
8.04379E-12 9.85895E-11
9.32893E-12 9.69146E-11
1.07092E-11 9.51579E-11
1.21847E-11 9.33270E-11
1.37554E-11 9.14295E-11
1.54213E-11 8.94711E-11
1.71823E-11 8.74613E-11
1.90386E-11 8.54079E-11
2.09900E-11 8.33186E-11
2.30367E-11 8.11987E-11
2.51785E-11 7.90562E-11
2.74156E-11 7.68989E-11
2.97478E-11 7.47333E-11
3.21752E-11 7.25646E-11
3.46979E-11 7.03980E-11
3.73157E-11 6.82409E-11
4.00286E-11 6.60984E-11
4.28368E-11 6.39751E-11
4.57402E-11 6.18731E-11
4.87388E-11 5.97991E-11
5.18325E-11 5.77214E-11
5.50215E-11 5.56670E-11
5.83057E-11 5.36680E-11
6.16850E-11 5.17256E-11
6.51595E-11 4.98405E-11
6.87293E-11 4.80133E-11
7.23943E-11 4.62440E-11
7.61544E-11 4.45326E-11
1.18991E-10 2.96879E-11
1.71347E-10 1.94393E-11
2.33223E-10 1.27467E-11
3.04617E-10 8.47425E-12
3.85531E-10 5.75955E-12
4.75965E-10 4.01964E-12
5.75917E-10 2.88196E-12
6.85389E-10 2.12145E-12
8.04380E-10 1.60119E-12
9.32891E-10 1.23712E-12
1.07092E-09 9.75205E-13
1.21847E-09 7.82206E-13
1.37554E-09 6.37568E-13
1.54213E-09 5.27175E-13
1.71823E-09 4.41108E-13
1.90386E-09 3.72882E-13
2.09900E-09 3.18021E-13
2.30367E-09 2.73342E-13
2.51785E-09 2.36583E-13
2.74156E-09 2.06070E-13
2.97478E-09 1.80521E-13
3.21752E-09 1.58933E-13
3.46978E-09 1.40538E-13
3.73156E-09 1.24771E-13
4.00286E-09 1.11176E-13
4.28368E-09 9.93912E-14
4.57402E-09 8.91191E-14
4.87388E-09 8.01473E-14
5.18326E-09 7.22152E-14
5.50215E-09 6.52478E-14
5.83057E-09 5.91648E-14
6.16850E-09 5.37600E-14
6.51596E-09 4.88849E-14
6.87293E-09 4.45871E-14
7.23942E-09 4.07715E-14
7.61544E-09 3.72848E-14
1.18991E-08 1.67448E-14
1.71347E-08 8.49075E-15
2.33223E-08 4.71503E-15
3.04617E-08 2.81052E-15
3.85531E-08 1.77270E-15
4.75965E-08 1.17067E-15
5.75917E-08 8.03005E-16
6.85389E-08 5.68614E-16
8.04380E-08 4.13653E-16
9.32891E-08 3.07971E-16
1.07092E-07 2.33938E-16
1.21847E-07 1.80848E-16
1.37554E-07 1.41985E-16
1.54213E-07 1.13015E-16
1.71823E-07 9.10656E-17
1.90386E-07 7.41921E-17
2.09900E-07 6.10451E-17
2.30367E-07 5.06848E-17
2.51785E-07 4.24319E-17
2.74156E-07 3.57923E-17
2.97478E-07 3.04020E-17
3.21752E-07 2.59892E-17
3.46978E-07 2.23487E-17
3.73156E-07 1.93239E-17
4.00286E-07 1.67939E-17
4.28368E-07 1.46647E-17
4.57402E-07 1.28625E-17
4.87388E-07 1.13288E-17
5.18325E-07 1.00170E-17
5.50215E-07 8.88975E-18
5.83057E-07 7.91666E-18
6.16850E-07 7.07315E-18
6.51596E-07 6.33904E-18
6.87293E-07 5.69774E-18
7.23942E-07 5.13553E-18
7.61543E-07 4.64098E-18
1.18991E-06 1.90111E-18
1.71347E-06 9.16851E-19
2.33223E-06 4.94901E-19
3.04617E-06 2.90103E-19
3.85531E-06 1.81109E-19
4.75964E-06 1.18825E-19
5.75916E-06 8.11580E-20
6.85388E-06 5.73022E-20
8.04378E-06 4.16022E-20
9.32888E-06 3.09294E-20
1.07092E-05 2.34699E-20
1.21846E-05 1.81297E-20
1.37553E-05 1.42255E-20
1.54212E-05 1.13179E-20
1.71822E-05 9.11660E-21
1.90385E-05 7.42540E-21
2.09899E-05 6.10879E-21
2.30365E-05 5.07399E-21
2.51783E-05 4.24482E-21
2.74153E-05 3.57866E-21
2.97475E-05 3.03896E-21
3.21749E-05 2.59801E-21
3.46974E-05 2.23467E-21
3.73152E-05 1.93279E-21
4.00281E-05 1.68007E-21
4.28362E-05 1.46709E-21
4.57395E-05 1.28658E-21
4.87380E-05 1.13287E-21
5.18317E-05 1.00141E-21
5.50205E-05 8.88537E-22
5.83045E-05 7.91222E-22
6.16838E-05 7.06957E-22
6.51582E-05 6.33663E-22
6.87277E-05 5.69629E-22
7.23925E-05 5.13453E-22
7.61524E-05 4.63744E-22
9.21439E-05 3.16562E-22
1.09658E-04 2.23525E-22
1.28695E-04 1.62230E-22
1.49255E-04 1.20584E-22
1.71338E-04 9.14896E-23
1.94942E-04 7.06468E-23
2.20070E-04 5.54261E-23
2.46720E-04 4.40821E-23
2.74892E-04 3.55003E-23
3.04586E-04 2.89067E-23
3.35803E-04 2.37733E-23
3.68542E-04 1.97316E-23
4.02802E-04 1.65110E-23
4.38585E-04 1.39222E-23
4.75889E-04 1.18203E-23
5.14715E-04 1.01003E-23
5.55063E-04 8.68200E-24
5.96931E-04 7.50345E-24
6.40321E-04 6.51839E-24
6.85233E-04 5.68930E-24
7.31665E-04 4.98790E-24
7.79618E-04 4.39114E-24
8.29092E-04 3.88081E-24
8.80086E-04 3.44249E-24
9.32601E-04 3.06411E-24
9.86636E-04 2.73630E-24
1.04219E-03 2.45104E-24
1.09927E-03 2.20194E-24
1.15786E-03 1.98363E-24
1.21797E-03 1.79162E-24
1.27961E-03 1.62227E-24
1.34276E-03 1.47238E-24
1.40743E-03 1.33937E-24
1.47362E-03 1.22101E-24
1.54133E-03 1.11538E-24
1.61056E-03 1.02091E-24
1.68131E-03 9.36185E-25
1.75357E-03 8.60049E-25
1.82735E-03 7.91462E-25
1.90265E-03 7.29553E-25
1.97947E-03 6.73559E-25
2.05780E-03 6.22806E-25
2.13765E-03 5.76731E-25
2.21902E-03 5.34814E-25
2.30190E-03 4.96622E-25
2.38630E-03 4.61761E-25
2.47222E-03 4.29889E-25
2.55965E-03 4.00709E-25
2.64859E-03 3.73946E-25
2.73905E-03 3.49371E-25
2.83103E-03 3.26769E-25
2.92452E-03 3.05954E-25
3.01952E-03 2.86761E-25
3.11604E-03 2.69039E-25
3.21407E-03 2.52657E-25
3.31362E-03 2.37493E-25
3.41468E-03 2.23443E-25
3.51725E-03 2.10409E-25
3.62133E-03 1.98304E-25
3.72692E-03 1.87052E-25
3.83403E-03 1.76578E-25
3.94265E-03 1.66823E-25
4.05278E-03 1.57726E-25
4.16442E-03 1.49235E-25
4.27757E-03 1.41304E-25
4.39223E-03 1.33887E-25
4.50840E-03 1.26946E-25
4.62608E-03 1.20445E-25
4.74527E-03 1.14350E-25
4.86597E-03 1.08633E-25
4.98817E-03 1.03264E-25
5.11188E-03 9.82200E-26
5.23711E-03 9.34764E-26
5.36383E-03 8.90129E-26
5.49207E-03 8.48094E-26
5.62181E-03 8.08483E-26
5.75306E-03 7.71132E-26
5.88581E-03 7.35884E-26
6.02007E-03 7.02605E-26
6.15583E-03 6.71160E-26
6.29310E-03 6.41433E-26
6.43187E-03 6.13312E-26
6.57214E-03 5.86693E-26
6.71392E-03 5.61485E-26
6.85720E-03 5.37595E-26
7.00198E-03 5.14945E-26
7.14827E-03 4.93458E-26
7.29605E-03 4.73062E-26
7.44534E-03 4.53695E-26
7.59612E-03 4.35292E-26
7.97965E-03 3.93146E-26
8.37255E-03 3.55903E-26
8.77480E-03 3.22896E-26
9.18641E-03 2.93565E-26
9.60736E-03 2.67431E-26
1.00376E-02 2.44088E-26
1.04773E-02 2.23189E-26
1.09262E-02 2.04435E-26
1.13844E-02 1.87569E-26
1.18520E-02 1.72369E-26
1.23288E-02 1.58644E-26
1.28150E-02 1.46226E-26
1.33104E-02 1.34970E-26
1.38150E-02 1.24750E-26
1.43290E-02 1.15454E-26
1.48521E-02 1.06984E-26
1.53845E-02 9.92553E-27
1.59262E-02 9.21920E-27
1.64770E-02 8.57273E-27
1.70371E-02 7.98021E-27
1.76063E-02 7.43638E-27
1.81848E-02 6.93659E-27
1.87724E-02 6.47668E-27
1.93692E-02 6.05294E-27
1.99751E-02 5.66206E-27
2.05901E-02 5.30108E-27
2.12143E-02 4.96732E-27
2.18476E-02 4.65841E-27
2.24900E-02 4.37220E-27
2.31415E-02 4.10673E-27
2.38021E-02 3.86027E-27
2.44717E-02 3.63123E-27
2.51504E-02 3.41819E-27
2.58382E-02 3.21984E-27
2.65349E-02 3.03501E-27
2.72407E-02 2.86263E-27
2.79555E-02 2.70173E-27
2.86793E-02 2.55142E-27
2.94120E-02 2.41090E-27
3.01537E-02 2.27942E-27
3.09043E-02 2.15631E-27
3.16639E-02 2.04096E-27
3.24324E-02 1.93280E-27
3.32098E-02 1.83131E-27
3.39961E-02 1.73602E-27
3.47912E-02 1.64648E-27
3.55952E-02 1.56231E-27
3.64081E-02 1.48312E-27
3.72297E-02 1.40858E-27
3.80602E-02 1.33837E-27
3.88995E-02 1.27221E-27
3.97476E-02 1.20982E-27
4.06044E-02 1.15096E-27
4.14700E-02 1.09539E-27
4.23443E-02 1.04292E-27
4.32273E-02 9.93327E-28
4.41190E-02 9.46444E-28
4.50194E-02 9.02099E-28
4.59284E-02 8.60132E-28
4.68461E-02 8.20400E-28
4.87074E-02 7.47100E-28
5.06030E-02 6.81219E-28
5.25328E-02 6.21907E-28
5.44967E-02 5.68421E-28
5.64946E-02 5.20115E-28
5.85262E-02 4.76422E-28
6.05914E-02 4.36845E-28
6.26901E-02 4.00947E-28
6.48222E-02 3.68344E-28
6.69873E-02 3.38697E-28
6.91854E-02 3.11703E-28
7.14163E-02 2.87098E-28
7.36799E-02 2.64645E-28
7.59760E-02 2.44134E-28
7.83043E-02 2.25377E-28
8.06647E-02 2.08207E-28
8.30571E-02 1.92475E-28
8.54812E-02 1.78047E-28
8.79369E-02 1.64804E-28
9.04240E-02 1.52637E-28
9.29422E-02 1.41450E-28
9.54915E-02 1.31156E-28
9.80716E-02 1.21676E-28
1.00682E-01 1.12939E-28
1.03323E-01 1.04882E-28
1.05995E-01 9.74466E-29
1.08696E-01 9.05798E-29
1.11427E-01 8.42343E-29
1.14188E-01 7.83669E-29
1.16978E-01 7.29383E-29
1.19797E-01 6.79129E-29
1.22645E-01 6.32580E-29
1.25522E-01 5.89440E-29
1.28428E-01 5.49439E-29
1.31361E-01 5.12329E-29
1.34323E-01 4.77885E-29
1.37313E-01 4.45900E-29
1.40330E-01 4.16185E-29
1.43375E-01 3.88567E-29
1.46447E-01 3.62887E-29
1.49545E-01 3.38999E-29
1.52671E-01 3.16769E-29
1.55823E-01 2.96075E-29
1.59001E-01 2.76802E-29
1.62205E-01 2.58846E-29
1.65435E-01 2.42113E-29
1.68690E-01 2.26513E-29
1.71970E-01 2.11964E-29
1.75276E-01 1.98392E-29
1.78606E-01 1.85728E-29
1.81961E-01 1.73906E-29
1.85340E-01 1.62868E-29
1.88743E-01 1.52559E-29
1.92169E-01 1.42929E-29
1.95619E-01 1.33929E-29
1.99092E-01 1.25517E-29
2.02589E-01 1.17653E-29
2.06107E-01 1.10298E-29
2.09649E-01 1.03419E-29
2.13212E-01 9.69835E-30
2.16797E-01 9.09611E-30
2.20404E-01 8.53244E-30
2.24032E-01 8.00475E-30
2.27680E-01 7.51066E-30
2.31350E-01 7.04794E-30
2.35040E-01 6.61452E-30
2.38751E-01 6.20847E-30
2.42481E-01 5.82799E-30
2.46231E-01 5.47142E-30
2.50000E-01 5.13720E-30
2.53788E-01 4.82389E-30
2.57595E-01 4.53012E-30
2.61421E-01 4.25464E-30
2.65264E-01 3.99628E-30
2.69126E-01 3.75393E-30
2.73005E-01 3.52658E-30
2.76901E-01 3.31327E-30
2.80814E-01 3.11310E-30
2.84744E-01 2.92525E-30
2.88691E-01 2.74894E-30
2.92653E-01 2.58343E-30
2.96632E-01 2.42806E-30
3.00625E-01 2.28218E-30
3.04634E-01 2.14520E-30
3.08658E-01 2.01656E-30
3.12697E-01 1.89575E-30
3.16749E-01 1.78228E-30
3.20816E-01 1.67569E-30
3.24896E-01 1.57555E-30
3.28990E-01 1.48148E-30
3.33097E-01 1.39309E-30
3.37216E-01 1.31003E-30
3.41348E-01 1.23198E-30
3.45492E-01 1.15863E-30
3.49647E-01 1.08969E-30
3.53814E-01 1.02489E-30
3.57992E-01 9.63981E-31
3.62181E-01 9.06724E-31
3.66381E-01 8.52897E-31
3.70590E-01 8.02292E-31
3.74810E-01 7.54712E-31
3.79039E-01 7.09975E-31
3.83277E-01 6.67909E-31
3.87524E-01 6.28352E-31
3.91780E-01 5.91151E-31
3.96044E-01 5.56167E-31
4.00316E-01 5.23265E-31
4.04596E-01 4.92319E-31
4.08882E-01 4.63213E-31
4.13176E-01 4.35835E-31
4.17476E-01 4.10083E-31
4.21783E-01 3.85859E-31
4.26095E-01 3.63070E-31
4.30413E-01 3.41632E-31
4.34737E-01 3.21464E-31
4.39065E-01 3.02490E-31
4.43398E-01 2.84639E-31
4.47736E-01 2.67844E-31
4.52077E-01 2.52041E-31
4.56422E-01 2.37173E-31
4.60770E-01 2.23183E-31
4.65122E-01 2.10019E-31
4.69476E-01 1.97633E-31
4.73832E-01 1.85977E-31
4.78190E-01 1.75009E-31
4.82550E-01 1.64688E-31
4.86912E-01 1.54976E-31
4.91274E-01 1.45836E-31
4.95637E-01 1.37235E-31
5.00000E-01 1.29141E-31
5.04363E-01 1.21524E-31
5.08726E-01 1.14355E-31
5.13088E-01 1.07609E-31
5.17450E-01 1.01259E-31
5.21810E-01 9.52844E-32
5.26168E-01 8.96610E-32
5.30524E-01 8.43686E-32
5.34878E-01 7.93877E-32
5.39230E-01 7.47001E-32
5.43578E-01 7.02884E-32
5.47923E-01 6.61363E-32
5.52264E-01 6.22287E-32
5.56602E-01 5.85510E-32
5.60935E-01 5.50898E-32
5.65263E-01 5.18322E-32
5.69587E-01 4.87664E-32
5.73905E-01 4.58812E-32
5.78217E-01 4.31657E-32
5.82524E-01 4.06102E-32
5.86824E-01 3.82051E-32
5.91118E-01 3.59417E-32
5.95404E-01 3.38115E-32
5.99684E-01 3.18068E-32
6.03956E-01 2.99202E-32
6.08220E-01 2.81448E-32
6.12476E-01 2.64740E-32
6.16723E-01 2.49016E-32
6.20961E-01 2.34221E-32
6.25190E-01 2.20297E-32
6.29410E-01 2.07195E-32
6.33619E-01 1.94865E-32
6.37819E-01 1.83264E-32
6.42008E-01 1.72347E-32
6.46186E-01 1.62075E-32
6.50353E-01 1.52410E-32
6.54508E-01 1.43315E-32
6.58652E-01 1.34759E-32
6.62784E-01 1.26708E-32
6.66903E-01 1.19134E-32
6.71010E-01 1.12007E-32
6.75104E-01 1.05302E-32
6.79184E-01 9.89956E-33
6.83251E-01 9.30613E-33
6.87303E-01 8.74795E-33
6.91342E-01 8.22284E-33
6.95366E-01 7.72884E-33
6.99375E-01 7.26423E-33
7.03368E-01 6.82716E-33
7.07347E-01 6.41610E-33
7.11309E-01 6.02945E-33
7.15256E-01 5.66582E-33
7.19186E-01 5.32383E-33
7.23099E-01 5.00212E-33
7.26995E-01 4.69968E-33
7.30874E-01 4.41524E-33
7.34736E-01 4.14780E-33
7.38579E-01 3.89627E-33
7.42405E-01 3.65977E-33
7.46212E-01 3.43744E-33
7.50000E-01 3.22839E-33
7.53769E-01 3.03187E-33
7.57519E-01 2.84712E-33
7.61249E-01 2.67339E-33
7.64960E-01 2.51016E-33
7.68650E-01 2.35669E-33
7.72320E-01 2.21243E-33
7.75968E-01 2.07687E-33
7.79596E-01 1.94946E-33
7.83203E-01 1.82969E-33
7.86788E-01 1.71719E-33
7.90351E-01 1.61147E-33
7.93893E-01 1.51214E-33
7.97411E-01 1.41880E-33
8.00908E-01 1.33110E-33
8.04381E-01 1.24873E-33
8.07831E-01 1.17134E-33
8.11257E-01 1.09866E-33
8.14660E-01 1.03039E-33
8.18039E-01 9.66276E-34
8.21394E-01 9.06042E-34
8.24724E-01 8.49507E-34
8.28030E-01 7.96397E-34
8.31310E-01 7.46551E-34
8.34565E-01 6.99741E-34
8.37795E-01 6.55815E-34
8.40999E-01 6.14558E-34
8.44177E-01 5.75852E-34
8.47329E-01 5.39516E-34
8.50455E-01 5.05418E-34
8.53553E-01 4.73411E-34
8.56625E-01 4.43395E-34
8.59670E-01 4.15216E-34
8.62687E-01 3.88799E-34
8.65677E-01 3.64005E-34
8.68639E-01 3.40746E-34
8.71572E-01 3.18930E-34
8.74478E-01 2.98478E-34
8.77355E-01 2.79308E-34
8.80203E-01 2.61314E-34
8.83022E-01 2.44453E-34
8.85812E-01 2.28650E-34
8.88573E-01 2.13825E-34
8.91304E-01 1.99939E-34
8.94005E-01 1.86933E-34
8.96677E-01 1.74732E-34
8.99318E-01 1.63311E-34
9.01928E-01 1.52600E-34
9.04508E-01 1.42578E-34
9.07058E-01 1.33184E-34
9.09576E-01 1.24386E-34
9.12063E-01 1.16154E-34
9.14519E-01 1.08440E-34
9.16943E-01 1.01217E-34
9.19335E-01 9.44620E-35
9.21696E-01 8.81390E-35
9.24024E-01 8.22151E-35
9.26320E-01 7.66783E-35
9.28584E-01 7.14931E-35
9.30815E-01 6.66471E-35
9.33013E-01 6.21103E-35
9.35178E-01 5.78671E-35
9.37310E-01 5.39081E-35
9.39409E-01 5.01918E-35
9.41474E-01 4.67272E-35
9.43505E-01 4.34854E-35
9.45503E-01 4.04594E-35
9.47467E-01 3.76237E-35
9.49397E-01 3.49815E-35
9.51293E-01 3.25107E-35
9.53154E-01 3.01993E-35
9.54981E-01 2.80446E-35
9.56773E-01 2.60322E-35
9.58530E-01 2.41545E-35
9.60252E-01 2.23946E-35
9.61940E-01 2.07591E-35
9.63592E-01 1.92297E-35
9.65209E-01 1.78065E-35
9.66790E-01 1.64726E-35
9.68336E-01 1.52359E-35
9.69846E-01 1.40764E-35
9.71321E-01 1.29983E-35
9.72759E-01 1.19933E-35
9.74162E-01 1.10558E-35
9.75528E-01 1.01829E-35
9.76858E-01 9.36885E-36
9.78152E-01 8.61230E-36
9.79410E-01 7.90530E-36
9.80631E-01 7.24894E-36
9.81815E-01 6.63708E-36
9.82963E-01 6.07047E-36
9.84074E-01 5.54256E-36
9.85148E-01 5.04999E-36
9.86185E-01 4.59331E-36
9.87185E-01 4.16785E-36
9.88148E-01 3.77648E-36
9.89074E-01 3.41058E-36
9.89962E-01 3.07285E-36
9.90814E-01 2.75985E-36
9.91627E-01 2.46958E-36
9.92404E-01 2.20402E-36
9.93143E-01 1.95754E-36
9.93844E-01 1.72901E-36
9.94508E-01 1.52106E-36
9.95134E-01 1.32897E-36
9.95722E-01 1.15323E-36
9.96273E-01 9.91087E-37
9.96786E-01 8.46215E-37
9.97261E-01 7.13534E-37
9.97698E-01 5.94372E-37
9.98097E-01 4.86270E-37
9.98459E-01 3.91906E-37
9.98782E-01 3.07527E-37
9.99067E-01 2.34555E-37
9.99315E-01 1.71279E-37
9.99524E-01 1.18610E-37
9.99695E-01 7.64873E-38
9.99829E-01 4.40422E-38
9.99924E-01 2.07360E-38
9.99981E-01 6.85141E-39
1.00000E+00 2.45414E-39
