 #
 # Subroutine ELSEPA. Elastic scattering of electrons and positrons
 #                    by neutral atoms and positive ions
 #
 # Projectile: positron
 # Kinetic energy = 9.00000E+08 eV = 3.30744E+07 a.u.
 #
 # WARNING: High-energy factorization with free-atom DF screening.
 #          Absorption, polarization and exchange corrections are
 #          switched off.
 #          Phase shifts are calculated for the bare nucleus.
 #          Scattering amplitudes are not evaluated.
 #
 # Element: Be,  Z =   4,  atomic weight = 9.01220E+00 g/mol
 #
 # Nuclear model: Fermi distribution
 #                Average radius = 2.22669E-13 cm
 #                Skin thickness = 5.46000E-14 cm
 #
 # Number of electrons =  4
 #
 # Total elastic cross section = 1.67176E-19 cm**2 = 5.96995E-03 a0**2
 # 1st transport cross section = 4.59950E-29 cm**2 = 1.64251E-12 a0**2
 # 2nd transport cross section = 1.37946E-28 cm**2 = 4.92614E-12 a0**2
 #
 #
 # Differential cross section:                       MU=(1-COS(THETA))/2
 #
 #  THETA        MU          DCS          DCS        Sherman      error
 #  (deg)                 (cm**2/sr)   (a0**2/sr)    function
 #----------------------------------------------------------------------
0.00000E+00 2.89554E-09
7.61557E-13 2.21967E-09
1.18994E-12 1.92998E-09
1.71346E-12 1.64069E-09
2.33225E-12 1.36592E-09
3.04617E-12 1.12548E-09
3.85530E-12 9.14839E-10
4.75964E-12 7.39526E-10
5.75917E-12 5.95772E-10
6.85391E-12 4.78685E-10
8.04379E-12 3.85350E-10
9.32893E-12 3.10956E-10
1.07092E-11 2.52084E-10
1.21847E-11 2.05363E-10
1.37554E-11 1.68392E-10
1.54213E-11 1.39018E-10
1.71823E-11 1.15476E-10
1.90386E-11 9.67383E-11
2.09900E-11 8.15708E-11
2.30367E-11 6.92457E-11
2.51785E-11 5.92505E-11
2.74156E-11 5.09971E-11
2.97478E-11 4.41871E-11
3.21752E-11 3.85303E-11
3.46979E-11 3.37736E-11
3.73157E-11 2.97826E-11
4.00286E-11 2.63928E-11
4.28368E-11 2.34942E-11
4.57402E-11 2.10116E-11
4.87388E-11 1.88674E-11
5.18325E-11 1.70128E-11
5.50215E-11 1.54000E-11
5.83057E-11 1.39859E-11
6.16850E-11 1.27432E-11
6.51595E-11 1.16444E-11
6.87293E-11 1.06691E-11
7.23943E-11 9.79985E-12
7.61544E-11 9.02230E-12
1.18991E-10 4.36981E-12
1.71347E-10 2.40134E-12
2.33223E-10 1.42683E-12
3.04617E-10 8.96357E-13
3.85531E-10 5.88908E-13
4.75965E-10 4.00983E-13
5.75917E-10 2.81360E-13
6.85389E-10 2.02761E-13
8.04380E-10 1.49411E-13
9.32891E-10 1.12367E-13
1.07092E-09 8.60165E-14
1.21847E-09 6.68978E-14
1.37554E-09 5.27728E-14
1.54213E-09 4.21619E-14
1.71823E-09 3.40765E-14
1.90386E-09 2.78291E-14
2.09900E-09 2.29449E-14
2.30367E-09 1.90827E-14
2.51785E-09 1.59972E-14
2.74156E-09 1.35094E-14
2.97478E-09 1.14855E-14
3.21752E-09 9.82605E-15
3.46978E-09 8.45517E-15
3.73156E-09 7.31480E-15
4.00286E-09 6.36007E-15
4.28368E-09 5.55592E-15
4.57402E-09 4.87479E-15
4.87388E-09 4.29477E-15
5.18326E-09 3.79843E-15
5.50215E-09 3.37170E-15
5.83057E-09 3.00319E-15
6.16850E-09 2.68364E-15
6.51596E-09 2.40545E-15
6.87293E-09 2.16237E-15
7.23942E-09 1.94921E-15
7.61544E-09 1.76159E-15
1.18991E-08 7.21837E-16
1.71347E-08 3.48184E-16
2.33223E-08 1.87966E-16
3.04617E-08 1.10191E-16
3.85531E-08 6.87958E-17
4.75965E-08 4.51387E-17
5.75917E-08 3.08313E-17
6.85389E-08 2.17694E-17
8.04380E-08 1.58054E-17
9.32891E-08 1.17509E-17
1.07092E-07 8.91710E-18
1.21847E-07 6.88830E-18
1.37554E-07 5.40504E-18
1.54213E-07 4.30038E-18
1.71823E-07 3.46405E-18
1.90386E-07 2.82150E-18
2.09900E-07 2.32126E-18
2.30367E-07 1.92713E-18
2.51785E-07 1.61321E-18
2.74156E-07 1.36068E-18
2.97478E-07 1.15569E-18
3.21752E-07 9.87891E-19
3.46978E-07 8.49468E-19
3.73156E-07 7.34463E-19
4.00286E-07 6.38278E-19
4.28368E-07 5.57335E-19
4.57402E-07 4.88826E-19
4.87388E-07 4.30528E-19
5.18325E-07 3.80667E-19
5.50215E-07 3.37819E-19
5.83057E-07 3.00834E-19
6.16850E-07 2.68775E-19
6.51596E-07 2.40875E-19
6.87293E-07 2.16503E-19
7.23942E-07 1.95137E-19
7.61543E-07 1.76342E-19
1.18991E-06 7.22288E-20
1.71347E-06 3.48319E-20
2.33223E-06 1.88011E-20
3.04617E-06 1.10206E-20
3.85531E-06 6.88000E-21
4.75964E-06 4.51388E-21
5.75916E-06 3.08298E-21
6.85388E-06 2.17675E-21
8.04378E-06 1.58035E-21
9.32888E-06 1.17491E-21
1.07092E-05 8.91547E-22
1.21846E-05 6.88685E-22
1.37553E-05 5.40377E-22
1.54212E-05 4.29927E-22
1.71822E-05 3.46308E-22
1.90385E-05 2.82064E-22
2.09899E-05 2.32051E-22
2.30365E-05 1.92743E-22
2.51783E-05 1.61245E-22
2.74153E-05 1.35940E-22
2.97475E-05 1.15439E-22
3.21749E-05 9.86886E-23
3.46974E-05 8.48865E-23
3.73152E-05 7.34194E-23
4.00281E-05 6.38196E-23
4.28362E-05 5.57293E-23
4.57395E-05 4.88725E-23
4.87380E-05 4.30333E-23
5.18317E-05 3.80397E-23
5.50205E-05 3.37521E-23
5.83045E-05 3.00555E-23
6.16838E-05 2.68546E-23
6.51582E-05 2.40704E-23
6.87277E-05 2.16380E-23
7.23925E-05 1.95041E-23
7.61524E-05 1.73677E-23
9.21439E-05 1.18201E-23
1.09658E-04 8.31892E-24
1.28695E-04 6.01622E-24
1.49255E-04 4.45462E-24
1.71338E-04 3.36585E-24
1.94942E-04 2.58758E-24
2.20070E-04 2.02056E-24
2.46720E-04 1.59900E-24
2.74892E-04 1.28092E-24
3.04586E-04 1.03722E-24
3.35803E-04 8.48048E-25
3.68542E-04 6.99562E-25
4.02802E-04 5.81628E-25
4.38585E-04 4.87153E-25
4.75889E-04 4.10722E-25
5.14715E-04 3.48410E-25
5.55063E-04 2.97226E-25
5.96931E-04 2.54868E-25
6.40321E-04 2.19615E-25
6.85233E-04 1.90073E-25
7.31665E-04 1.65195E-25
7.79618E-04 1.44128E-25
8.29092E-04 1.26201E-25
8.80086E-04 1.10881E-25
9.32601E-04 9.77262E-26
9.86636E-04 8.63913E-26
1.04219E-03 7.65828E-26
1.09927E-03 6.80669E-26
1.15786E-03 6.06486E-26
1.21797E-03 5.41638E-26
1.27961E-03 4.84806E-26
1.34276E-03 4.34832E-26
1.40743E-03 3.90785E-26
1.47362E-03 3.51857E-26
1.54133E-03 3.17365E-26
1.61056E-03 2.86740E-26
1.68131E-03 2.59480E-26
1.75357E-03 2.35171E-26
1.82735E-03 2.13445E-26
1.90265E-03 1.93993E-26
1.97947E-03 1.76545E-26
2.05780E-03 1.60864E-26
2.13765E-03 1.46752E-26
2.21902E-03 1.34027E-26
2.30190E-03 1.22539E-26
2.38630E-03 1.12151E-26
2.47222E-03 1.02743E-26
2.55965E-03 9.42141E-27
2.64859E-03 8.64693E-27
2.73905E-03 7.94300E-27
2.83103E-03 7.30229E-27
2.92452E-03 6.71851E-27
3.01952E-03 6.18605E-27
3.11604E-03 5.69981E-27
3.21407E-03 5.25542E-27
3.31362E-03 4.84880E-27
3.41468E-03 4.47646E-27
3.51725E-03 4.13518E-27
3.62133E-03 3.82208E-27
3.72692E-03 3.53464E-27
3.83403E-03 3.27050E-27
3.94265E-03 3.02762E-27
4.05278E-03 2.80411E-27
4.16442E-03 2.59828E-27
4.27757E-03 2.40862E-27
4.39223E-03 2.23372E-27
4.50840E-03 2.07235E-27
4.62608E-03 1.92336E-27
4.74527E-03 1.78573E-27
4.86597E-03 1.65852E-27
4.98817E-03 1.54087E-27
5.11188E-03 1.43202E-27
5.23711E-03 1.33125E-27
5.36383E-03 1.23793E-27
5.49207E-03 1.15145E-27
5.62181E-03 1.07129E-27
5.75306E-03 9.96955E-28
5.88581E-03 9.27984E-28
6.02007E-03 8.63976E-28
6.15583E-03 8.04543E-28
6.29310E-03 7.49345E-28
6.43187E-03 6.98061E-28
6.57214E-03 6.50394E-28
6.71392E-03 6.06083E-28
6.85720E-03 5.64871E-28
7.00198E-03 5.26536E-28
7.14827E-03 4.90865E-28
7.29605E-03 4.57665E-28
7.44534E-03 4.26758E-28
7.59612E-03 3.97976E-28
7.97965E-03 3.34359E-28
8.37255E-03 2.81033E-28
8.77480E-03 2.36283E-28
9.18641E-03 1.98694E-28
9.60736E-03 1.67095E-28
1.00376E-02 1.40514E-28
1.04773E-02 1.18141E-28
1.09262E-02 9.93031E-29
1.13844E-02 8.34369E-29
1.18520E-02 7.00715E-29
1.23288E-02 5.88122E-29
1.28150E-02 4.93275E-29
1.33104E-02 4.13392E-29
1.38150E-02 3.46129E-29
1.43290E-02 2.89516E-29
1.48521E-02 2.41888E-29
1.53845E-02 2.01844E-29
1.59262E-02 1.68199E-29
1.64770E-02 1.39953E-29
1.70371E-02 1.16262E-29
1.76063E-02 9.64111E-30
1.81848E-02 7.97974E-30
1.87724E-02 6.59103E-30
1.93692E-02 5.43184E-30
1.99751E-02 4.46571E-30
2.05901E-02 3.66183E-30
2.12143E-02 2.99415E-30
2.18476E-02 2.44070E-30
2.24900E-02 1.98291E-30
2.31415E-02 1.60514E-30
2.38021E-02 1.29420E-30
2.44717E-02 1.03897E-30
2.51504E-02 8.30105E-31
2.58382E-02 6.59757E-31
2.65349E-02 5.21329E-31
2.72407E-02 4.09292E-31
2.79555E-02 3.19021E-31
2.86793E-02 2.46648E-31
2.94120E-02 1.88948E-31
3.01537E-02 1.43234E-31
3.09043E-02 1.07276E-31
3.16639E-02 7.92228E-32
3.24324E-02 5.75455E-32
3.32098E-02 4.09834E-32
3.39961E-02 2.85000E-32
3.47912E-02 1.92467E-32
3.55952E-02 1.25307E-32
3.64081E-02 7.78945E-33
3.72297E-02 4.56795E-33
3.80602E-02 2.50034E-33
3.88995E-02 1.29421E-33
3.97476E-02 7.17515E-34
4.06044E-02 5.87616E-34
4.14700E-02 7.62202E-34
4.23443E-02 1.13166E-33
4.32273E-02 1.61278E-33
4.41190E-02 2.14356E-33
4.50194E-02 2.67886E-33
4.59284E-02 3.18689E-33
4.68461E-02 3.64633E-33
4.87074E-02 4.37260E-33
5.06030E-02 4.81676E-33
5.25328E-02 4.99411E-33
5.44967E-02 4.94722E-33
5.64946E-02 4.72845E-33
5.85262E-02 4.38958E-33
6.05914E-02 3.97667E-33
6.26901E-02 3.52762E-33
6.48222E-02 3.07183E-33
6.69873E-02 2.63068E-33
6.91854E-02 2.21867E-33
7.14163E-02 1.84458E-33
7.36799E-02 1.51282E-33
7.59760E-02 1.22447E-33
7.83043E-02 9.78312E-34
8.06647E-02 7.71549E-34
8.30571E-02 6.00506E-34
8.54812E-02 4.61054E-34
8.79369E-02 3.48956E-34
9.04240E-02 2.60104E-34
9.29422E-02 1.90680E-34
9.54915E-02 1.37241E-34
9.80716E-02 9.67464E-35
1.00682E-01 6.65840E-35
1.03323E-01 4.45411E-35
1.05995E-01 2.87819E-35
1.08696E-01 1.78023E-35
1.11427E-01 1.03947E-35
1.14188E-01 5.60163E-36
1.16978E-01 2.67708E-36
1.19797E-01 1.04918E-36
1.22645E-01 2.88535E-37
1.25522E-01 7.85908E-38
1.28428E-01 1.92139E-37
1.31361E-01 4.70804E-37
1.34323E-01 8.08305E-37
1.37313E-01 1.13760E-36
1.40330E-01 1.41906E-36
1.43375E-01 1.63404E-36
1.46447E-01 1.77615E-36
1.49545E-01 1.84842E-36
1.52671E-01 1.85859E-36
1.55823E-01 1.81734E-36
1.59001E-01 1.73556E-36
1.62205E-01 1.62419E-36
1.65435E-01 1.49313E-36
1.68690E-01 1.35108E-36
1.71970E-01 1.20507E-36
1.75276E-01 1.06047E-36
1.78606E-01 9.21546E-37
1.81961E-01 7.91405E-37
1.85340E-01 6.71844E-37
1.88743E-01 5.64057E-37
1.92169E-01 4.68368E-37
1.95619E-01 3.84846E-37
1.99092E-01 3.12613E-37
2.02589E-01 2.51325E-37
2.06107E-01 1.99734E-37
2.09649E-01 1.56850E-37
2.13212E-01 1.21673E-37
2.16797E-01 9.31354E-38
2.20404E-01 7.02571E-38
2.24032E-01 5.21457E-38
2.27680E-01 3.80145E-38
2.31350E-01 2.71444E-38
2.35040E-01 1.89045E-38
2.38751E-01 1.28017E-38
2.42481E-01 8.35851E-39
2.46231E-01 5.21685E-39
2.50000E-01 3.07271E-39
2.53788E-01 1.66066E-39
2.57595E-01 7.98191E-40
2.61421E-01 1.00000E-45
2.65264E-01 1.00000E-45
2.69126E-01 1.00000E-45
2.73005E-01 1.00000E-45
2.76901E-01 1.00000E-45
2.80814E-01 1.00000E-45
2.84744E-01 1.00000E-45
2.88691E-01 1.00000E-45
2.92653E-01 1.00000E-45
2.96632E-01 1.00000E-45
3.00625E-01 1.00000E-45
3.04634E-01 1.00000E-45
3.08658E-01 1.00000E-45
3.12697E-01 1.00000E-45
3.16749E-01 1.00000E-45
3.20816E-01 1.00000E-45
3.24896E-01 1.00000E-45
3.28990E-01 1.00000E-45
3.33097E-01 1.00000E-45
3.37216E-01 1.00000E-45
3.41348E-01 1.00000E-45
3.45492E-01 1.00000E-45
3.49647E-01 1.00000E-45
3.53814E-01 1.00000E-45
3.57992E-01 1.00000E-45
3.62181E-01 1.00000E-45
3.66381E-01 1.00000E-45
3.70590E-01 1.00000E-45
3.74810E-01 1.00000E-45
3.79039E-01 1.00000E-45
3.83277E-01 1.00000E-45
3.87524E-01 1.00000E-45
3.91780E-01 1.00000E-45
3.96044E-01 1.00000E-45
4.00316E-01 1.00000E-45
4.04596E-01 1.00000E-45
4.08882E-01 1.00000E-45
4.13176E-01 1.00000E-45
4.17476E-01 1.00000E-45
4.21783E-01 1.00000E-45
4.26095E-01 1.00000E-45
4.30413E-01 1.00000E-45
4.34737E-01 1.00000E-45
4.39065E-01 1.00000E-45
4.43398E-01 1.00000E-45
4.47736E-01 1.00000E-45
4.52077E-01 1.00000E-45
4.56422E-01 1.00000E-45
4.60770E-01 1.00000E-45
4.65122E-01 1.00000E-45
4.69476E-01 1.00000E-45
4.73832E-01 1.00000E-45
4.78190E-01 1.00000E-45
4.82550E-01 1.00000E-45
4.86912E-01 1.00000E-45
4.91274E-01 1.00000E-45
4.95637E-01 1.00000E-45
5.00000E-01 1.00000E-45
5.04363E-01 1.00000E-45
5.08726E-01 1.00000E-45
5.13088E-01 1.00000E-45
5.17450E-01 1.00000E-45
5.21810E-01 1.00000E-45
5.26168E-01 1.00000E-45
5.30524E-01 1.00000E-45
5.34878E-01 1.00000E-45
5.39230E-01 1.00000E-45
5.43578E-01 1.00000E-45
5.47923E-01 1.00000E-45
5.52264E-01 1.00000E-45
5.56602E-01 1.00000E-45
5.60935E-01 1.00000E-45
5.65263E-01 1.00000E-45
5.69587E-01 1.00000E-45
5.73905E-01 1.00000E-45
5.78217E-01 1.00000E-45
5.82524E-01 1.00000E-45
5.86824E-01 1.00000E-45
5.91118E-01 1.00000E-45
5.95404E-01 1.00000E-45
5.99684E-01 1.00000E-45
6.03956E-01 1.00000E-45
6.08220E-01 1.00000E-45
6.12476E-01 1.00000E-45
6.16723E-01 1.00000E-45
6.20961E-01 1.00000E-45
6.25190E-01 1.00000E-45
6.29410E-01 1.00000E-45
6.33619E-01 1.00000E-45
6.37819E-01 1.00000E-45
6.42008E-01 1.00000E-45
6.46186E-01 1.00000E-45
6.50353E-01 1.00000E-45
6.54508E-01 1.00000E-45
6.58652E-01 1.00000E-45
6.62784E-01 1.00000E-45
6.66903E-01 1.00000E-45
6.71010E-01 1.00000E-45
6.75104E-01 1.00000E-45
6.79184E-01 1.00000E-45
6.83251E-01 1.00000E-45
6.87303E-01 1.00000E-45
6.91342E-01 1.00000E-45
6.95366E-01 1.00000E-45
6.99375E-01 1.00000E-45
7.03368E-01 1.00000E-45
7.07347E-01 1.00000E-45
7.11309E-01 1.00000E-45
7.15256E-01 1.00000E-45
7.19186E-01 1.00000E-45
7.23099E-01 1.00000E-45
7.26995E-01 1.00000E-45
7.30874E-01 1.00000E-45
7.34736E-01 1.00000E-45
7.38579E-01 1.00000E-45
7.42405E-01 1.00000E-45
7.46212E-01 1.00000E-45
7.50000E-01 1.00000E-45
7.53769E-01 1.00000E-45
7.57519E-01 1.00000E-45
7.61249E-01 1.00000E-45
7.64960E-01 1.00000E-45
7.68650E-01 1.00000E-45
7.72320E-01 1.00000E-45
7.75968E-01 1.00000E-45
7.79596E-01 1.00000E-45
7.83203E-01 1.00000E-45
7.86788E-01 1.00000E-45
7.90351E-01 1.00000E-45
7.93893E-01 1.00000E-45
7.97411E-01 1.00000E-45
8.00908E-01 1.00000E-45
8.04381E-01 1.00000E-45
8.07831E-01 1.00000E-45
8.11257E-01 1.00000E-45
8.14660E-01 1.00000E-45
8.18039E-01 1.00000E-45
8.21394E-01 1.00000E-45
8.24724E-01 1.00000E-45
8.28030E-01 1.00000E-45
8.31310E-01 1.00000E-45
8.34565E-01 1.00000E-45
8.37795E-01 1.00000E-45
8.40999E-01 1.00000E-45
8.44177E-01 1.00000E-45
8.47329E-01 1.00000E-45
8.50455E-01 1.00000E-45
8.53553E-01 1.00000E-45
8.56625E-01 1.00000E-45
8.59670E-01 1.00000E-45
8.62687E-01 1.00000E-45
8.65677E-01 1.00000E-45
8.68639E-01 1.00000E-45
8.71572E-01 1.00000E-45
8.74478E-01 1.00000E-45
8.77355E-01 1.00000E-45
8.80203E-01 1.00000E-45
8.83022E-01 1.00000E-45
8.85812E-01 1.00000E-45
8.88573E-01 1.00000E-45
8.91304E-01 1.00000E-45
8.94005E-01 1.00000E-45
8.96677E-01 1.00000E-45
8.99318E-01 1.00000E-45
9.01928E-01 1.00000E-45
9.04508E-01 1.00000E-45
9.07058E-01 1.00000E-45
9.09576E-01 1.00000E-45
9.12063E-01 1.00000E-45
9.14519E-01 1.00000E-45
9.16943E-01 1.00000E-45
9.19335E-01 1.00000E-45
9.21696E-01 1.00000E-45
9.24024E-01 1.00000E-45
9.26320E-01 1.00000E-45
9.28584E-01 1.00000E-45
9.30815E-01 1.00000E-45
9.33013E-01 1.00000E-45
9.35178E-01 1.00000E-45
9.37310E-01 1.00000E-45
9.39409E-01 1.00000E-45
9.41474E-01 1.00000E-45
9.43505E-01 1.00000E-45
9.45503E-01 1.00000E-45
9.47467E-01 1.00000E-45
9.49397E-01 1.00000E-45
9.51293E-01 1.00000E-45
9.53154E-01 1.00000E-45
9.54981E-01 1.00000E-45
9.56773E-01 1.00000E-45
9.58530E-01 1.00000E-45
9.60252E-01 1.00000E-45
9.61940E-01 1.00000E-45
9.63592E-01 1.00000E-45
9.65209E-01 1.00000E-45
9.66790E-01 1.00000E-45
9.68336E-01 1.00000E-45
9.69846E-01 1.00000E-45
9.71321E-01 1.00000E-45
9.72759E-01 1.00000E-45
9.74162E-01 1.00000E-45
9.75528E-01 1.00000E-45
9.76858E-01 1.00000E-45
9.78152E-01 1.00000E-45
9.79410E-01 1.00000E-45
9.80631E-01 1.00000E-45
9.81815E-01 1.00000E-45
9.82963E-01 1.00000E-45
9.84074E-01 1.00000E-45
9.85148E-01 1.00000E-45
9.86185E-01 1.00000E-45
9.87185E-01 1.00000E-45
9.88148E-01 1.00000E-45
9.89074E-01 1.00000E-45
9.89962E-01 1.00000E-45
9.90814E-01 1.00000E-45
9.91627E-01 1.00000E-45
9.92404E-01 1.00000E-45
9.93143E-01 1.00000E-45
9.93844E-01 1.00000E-45
9.94508E-01 1.00000E-45
9.95134E-01 1.00000E-45
9.95722E-01 1.00000E-45
9.96273E-01 1.00000E-45
9.96786E-01 1.00000E-45
9.97261E-01 1.00000E-45
9.97698E-01 1.00000E-45
9.98097E-01 1.00000E-45
9.98459E-01 1.00000E-45
9.98782E-01 1.00000E-45
9.99067E-01 1.00000E-45
9.99315E-01 1.00000E-45
9.99524E-01 1.00000E-45
9.99695E-01 1.00000E-45
9.99829E-01 1.00000E-45
9.99924E-01 1.00000E-45
9.99981E-01 1.00000E-45
1.00000E+00 1.00000E-45
