 #
 # Subroutine ELSEPA. Elastic scattering of electrons and positrons
 #                    by neutral atoms and positive ions
 #
 # Projectile: positron
 # Kinetic energy = 1.50000E+07 eV = 5.51240E+05 a.u.
 #
 # WARNING: High-energy factorization with free-atom DF screening.
 #          Absorption, polarization and exchange corrections are
 #          switched off.
 #          Phase shifts are calculated for the bare nucleus.
 #          Scattering amplitudes are not evaluated.
 #
 # Element: Be,  Z =   4,  atomic weight = 9.01220E+00 g/mol
 #
 # Nuclear model: Fermi distribution
 #                Average radius = 2.22669E-13 cm
 #                Skin thickness = 5.46000E-14 cm
 #
 # Number of electrons =  4
 #
 # Total elastic cross section = 1.70115E-19 cm**2 = 6.07493E-03 a0**2
 # 1st transport cross section = 1.26013E-25 cm**2 = 4.50000E-09 a0**2
 # 2nd transport cross section = 3.65605E-25 cm**2 = 1.30560E-08 a0**2
 #
 #
 # Differential cross section:                       MU=(1-COS(THETA))/2
 #
 #  THETA        MU          DCS          DCS        Sherman      error
 #  (deg)                 (cm**2/sr)   (a0**2/sr)    function
 #----------------------------------------------------------------------
0.00000E+00 8.59076E-13
7.61557E-13 8.59005E-13
1.18994E-12 8.58965E-13
1.71346E-12 8.58916E-13
2.33225E-12 8.58859E-13
3.04617E-12 8.58792E-13
3.85530E-12 8.58717E-13
4.75964E-12 8.58633E-13
5.75917E-12 8.58540E-13
6.85391E-12 8.58438E-13
8.04379E-12 8.58328E-13
9.32893E-12 8.58209E-13
1.07092E-11 8.58080E-13
1.21847E-11 8.57944E-13
1.37554E-11 8.57798E-13
1.54213E-11 8.57643E-13
1.71823E-11 8.57480E-13
1.90386E-11 8.57308E-13
2.09900E-11 8.57127E-13
2.30367E-11 8.56938E-13
2.51785E-11 8.56740E-13
2.74156E-11 8.56533E-13
2.97478E-11 8.56317E-13
3.21752E-11 8.56092E-13
3.46979E-11 8.55859E-13
3.73157E-11 8.55617E-13
4.00286E-11 8.55367E-13
4.28368E-11 8.55108E-13
4.57402E-11 8.54840E-13
4.87388E-11 8.54563E-13
5.18325E-11 8.54278E-13
5.50215E-11 8.53984E-13
5.83057E-11 8.53681E-13
6.16850E-11 8.53370E-13
6.51595E-11 8.53050E-13
6.87293E-11 8.52722E-13
7.23943E-11 8.52385E-13
7.61544E-11 8.52039E-13
1.18991E-10 8.48117E-13
1.71347E-10 8.43355E-13
2.33223E-10 8.37774E-13
3.04617E-10 8.31396E-13
3.85531E-10 8.24244E-13
4.75965E-10 8.16349E-13
5.75917E-10 8.07738E-13
6.85389E-10 7.98443E-13
8.04380E-10 7.88499E-13
9.32891E-10 7.77944E-13
1.07092E-09 7.66815E-13
1.21847E-09 7.55151E-13
1.37554E-09 7.42992E-13
1.54213E-09 7.30380E-13
1.71823E-09 7.17355E-13
1.90386E-09 7.03958E-13
2.09900E-09 6.90232E-13
2.30367E-09 6.76217E-13
2.51785E-09 6.61947E-13
2.74156E-09 6.47467E-13
2.97478E-09 6.32817E-13
3.21752E-09 6.18035E-13
3.46978E-09 6.03159E-13
3.73156E-09 5.88223E-13
4.00286E-09 5.73261E-13
4.28368E-09 5.58307E-13
4.57402E-09 5.43390E-13
4.87388E-09 5.28540E-13
5.18326E-09 5.13783E-13
5.50215E-09 4.99140E-13
5.83057E-09 4.84637E-13
6.16850E-09 4.70300E-13
6.51596E-09 4.56020E-13
6.87293E-09 4.41705E-13
7.23942E-09 4.27725E-13
7.61544E-09 4.14085E-13
1.18991E-08 2.94491E-13
1.71347E-08 2.04309E-13
2.33223E-08 1.40459E-13
3.04617E-08 9.68434E-14
3.85531E-08 6.75353E-14
4.75965E-08 4.78967E-14
5.75917E-08 3.46518E-14
6.85389E-08 2.56201E-14
8.04380E-08 1.93474E-14
9.32891E-08 1.49086E-14
1.07092E-07 1.17066E-14
1.21847E-07 9.35233E-15
1.37554E-07 7.58890E-15
1.54213E-07 6.24223E-15
1.71823E-07 5.19984E-15
1.90386E-07 4.38138E-15
2.09900E-07 3.72836E-15
2.30367E-07 3.20001E-15
2.51785E-07 2.76712E-15
2.74156E-07 2.40861E-15
2.97478E-07 2.10905E-15
3.21752E-07 1.85676E-15
3.46978E-07 1.64274E-15
3.73156E-07 1.45995E-15
4.00286E-07 1.30278E-15
4.28368E-07 1.16678E-15
4.57402E-07 1.04841E-15
4.87388E-07 9.44840E-16
5.18325E-07 8.53828E-16
5.50215E-07 7.73504E-16
5.83057E-07 7.02423E-16
6.16850E-07 6.39348E-16
6.51596E-07 5.82964E-16
6.87293E-07 5.32332E-16
7.23942E-07 4.87495E-16
7.61543E-07 4.47658E-16
1.18991E-06 2.05032E-16
1.71347E-06 1.05517E-16
2.33223E-06 5.91894E-17
3.04617E-06 3.55094E-17
3.85531E-06 2.24947E-17
4.75964E-06 1.48998E-17
5.75916E-06 1.02416E-17
6.85388E-06 7.26239E-18
8.04378E-06 5.28860E-18
9.32888E-06 3.94040E-18
1.07092E-05 2.99478E-18
1.21846E-05 2.31607E-18
1.37553E-05 1.81891E-18
1.54212E-05 1.44812E-18
1.71822E-05 1.16707E-18
1.90385E-05 9.50958E-19
2.09899E-05 7.82595E-19
2.30365E-05 6.50186E-19
2.51783E-05 5.44039E-19
2.74153E-05 4.58709E-19
2.97475E-05 3.89565E-19
3.21749E-05 3.33062E-19
3.46974E-05 2.86498E-19
3.73152E-05 2.47807E-19
4.00281E-05 2.15416E-19
4.28362E-05 1.88116E-19
4.57395E-05 1.64978E-19
4.87380E-05 1.45274E-19
5.18317E-05 1.28421E-19
5.50205E-05 1.13951E-19
5.83045E-05 1.01474E-19
6.16838E-05 9.06690E-20
6.51582E-05 8.12705E-20
6.87277E-05 7.30591E-20
7.23925E-05 6.58554E-20
7.61524E-05 5.95126E-20
9.21439E-05 4.06322E-20
1.09658E-04 2.86952E-20
1.28695E-04 2.08302E-20
1.49255E-04 1.54856E-20
1.71338E-04 1.17513E-20
1.94942E-04 9.07590E-21
2.20070E-04 7.12189E-21
2.46720E-04 5.66542E-21
2.74892E-04 4.56344E-21
3.04586E-04 3.71668E-21
3.35803E-04 3.05736E-21
3.68542E-04 2.53818E-21
4.02802E-04 2.12443E-21
4.38585E-04 1.79180E-21
4.75889E-04 1.52170E-21
5.14715E-04 1.30064E-21
5.55063E-04 1.11832E-21
5.96931E-04 9.66807E-22
6.40321E-04 8.40145E-22
6.85233E-04 7.33522E-22
7.31665E-04 6.43305E-22
7.79618E-04 5.66533E-22
8.29092E-04 5.00869E-22
8.80086E-04 4.44460E-22
9.32601E-04 3.95756E-22
9.86636E-04 3.53554E-22
1.04219E-03 3.16822E-22
1.09927E-03 2.84739E-22
1.15786E-03 2.56617E-22
1.21797E-03 2.31876E-22
1.27961E-03 2.10051E-22
1.34276E-03 1.90729E-22
1.40743E-03 1.73580E-22
1.47362E-03 1.58315E-22
1.54133E-03 1.44690E-22
1.61056E-03 1.32500E-22
1.68131E-03 1.21565E-22
1.75357E-03 1.11737E-22
1.82735E-03 1.02880E-22
1.90265E-03 9.48839E-23
1.97947E-03 8.76496E-23
2.05780E-03 8.10906E-23
2.13765E-03 7.51344E-23
2.21902E-03 6.97142E-23
2.30190E-03 6.47741E-23
2.38630E-03 6.02637E-23
2.47222E-03 5.61386E-23
2.55965E-03 5.23608E-23
2.64859E-03 4.88948E-23
2.73905E-03 4.57111E-23
2.83103E-03 4.27819E-23
2.92452E-03 4.00836E-23
3.01952E-03 3.75946E-23
3.11604E-03 3.52956E-23
3.21407E-03 3.31697E-23
3.31362E-03 3.12012E-23
3.41468E-03 2.93766E-23
3.51725E-03 2.76833E-23
3.62133E-03 2.61101E-23
3.72692E-03 2.46471E-23
3.83403E-03 2.32850E-23
3.94265E-03 2.20157E-23
4.05278E-03 2.08315E-23
4.16442E-03 1.97259E-23
4.27757E-03 1.86927E-23
4.39223E-03 1.77260E-23
4.50840E-03 1.68211E-23
4.62608E-03 1.59731E-23
4.74527E-03 1.51778E-23
4.86597E-03 1.44314E-23
4.98817E-03 1.37302E-23
5.11188E-03 1.30711E-23
5.23711E-03 1.24510E-23
5.36383E-03 1.18672E-23
5.49207E-03 1.13172E-23
5.62181E-03 1.07987E-23
5.75306E-03 1.03095E-23
5.88581E-03 9.84761E-24
6.02007E-03 9.41132E-24
6.15583E-03 8.99888E-24
6.29310E-03 8.60876E-24
6.43187E-03 8.23954E-24
6.57214E-03 7.88986E-24
6.71392E-03 7.55854E-24
6.85720E-03 7.24438E-24
7.00198E-03 6.94637E-24
7.14827E-03 6.66350E-24
7.29605E-03 6.39486E-24
7.44534E-03 6.13962E-24
7.59612E-03 5.89695E-24
7.97965E-03 5.34068E-24
8.37255E-03 4.84839E-24
8.77480E-03 4.41146E-24
9.18641E-03 4.02259E-24
9.60736E-03 3.67557E-24
1.00376E-02 3.36512E-24
1.04773E-02 3.08672E-24
1.09262E-02 2.83647E-24
1.13844E-02 2.61103E-24
1.18520E-02 2.40751E-24
1.23288E-02 2.22341E-24
1.28150E-02 2.05653E-24
1.33104E-02 1.90499E-24
1.38150E-02 1.76713E-24
1.43290E-02 1.64149E-24
1.48521E-02 1.52680E-24
1.53845E-02 1.42192E-24
1.59262E-02 1.32588E-24
1.64770E-02 1.23780E-24
1.70371E-02 1.15689E-24
1.76063E-02 1.08246E-24
1.81848E-02 1.01392E-24
1.87724E-02 9.50694E-25
1.93692E-02 8.92310E-25
1.99751E-02 8.38328E-25
2.05901E-02 7.88355E-25
2.12143E-02 7.42040E-25
2.18476E-02 6.99066E-25
2.24900E-02 6.59149E-25
2.31415E-02 6.22032E-25
2.38021E-02 5.87482E-25
2.44717E-02 5.55290E-25
2.51504E-02 5.25265E-25
2.58382E-02 4.97235E-25
2.65349E-02 4.71044E-25
2.72407E-02 4.46548E-25
2.79555E-02 4.23618E-25
2.86793E-02 4.02135E-25
2.94120E-02 3.81992E-25
3.01537E-02 3.63089E-25
3.09043E-02 3.45336E-25
3.16639E-02 3.28650E-25
3.24324E-02 3.12956E-25
3.32098E-02 2.98183E-25
3.39961E-02 2.84267E-25
3.47912E-02 2.71150E-25
3.55952E-02 2.58778E-25
3.64081E-02 2.47100E-25
3.72297E-02 2.36070E-25
3.80602E-02 2.25645E-25
3.88995E-02 2.15787E-25
3.97476E-02 2.06458E-25
4.06044E-02 1.97625E-25
4.14700E-02 1.89257E-25
4.23443E-02 1.81325E-25
4.32273E-02 1.73802E-25
4.41190E-02 1.66662E-25
4.50194E-02 1.59883E-25
4.59284E-02 1.53444E-25
4.68461E-02 1.47323E-25
4.87074E-02 1.35965E-25
5.06030E-02 1.25674E-25
5.25328E-02 1.16332E-25
5.44967E-02 1.07836E-25
5.64946E-02 1.00097E-25
5.85262E-02 9.30348E-26
6.05914E-02 8.65799E-26
6.26901E-02 8.06710E-26
6.48222E-02 7.52537E-26
6.69873E-02 7.02799E-26
6.91854E-02 6.57068E-26
7.14163E-02 6.14964E-26
7.36799E-02 5.76149E-26
7.59760E-02 5.40320E-26
7.83043E-02 5.07206E-26
8.06647E-02 4.76565E-26
8.30571E-02 4.48180E-26
8.54812E-02 4.21855E-26
8.79369E-02 3.97413E-26
9.04240E-02 3.74697E-26
9.29422E-02 3.53561E-26
9.54915E-02 3.33878E-26
9.80716E-02 3.15528E-26
1.00682E-01 2.98406E-26
1.03323E-01 2.82415E-26
1.05995E-01 2.67467E-26
1.08696E-01 2.53481E-26
1.11427E-01 2.40384E-26
1.14188E-01 2.28110E-26
1.16978E-01 2.16598E-26
1.19797E-01 2.05792E-26
1.22645E-01 1.95641E-26
1.25522E-01 1.86099E-26
1.28428E-01 1.77121E-26
1.31361E-01 1.68669E-26
1.34323E-01 1.60707E-26
1.37313E-01 1.53200E-26
1.40330E-01 1.46119E-26
1.43375E-01 1.39435E-26
1.46447E-01 1.33121E-26
1.49545E-01 1.27153E-26
1.52671E-01 1.21510E-26
1.55823E-01 1.16169E-26
1.59001E-01 1.11113E-26
1.62205E-01 1.06323E-26
1.65435E-01 1.01782E-26
1.68690E-01 9.74759E-27
1.71970E-01 9.33898E-27
1.75276E-01 8.95105E-27
1.78606E-01 8.58256E-27
1.81961E-01 8.23237E-27
1.85340E-01 7.89941E-27
1.88743E-01 7.58268E-27
1.92169E-01 7.28124E-27
1.95619E-01 6.99423E-27
1.99092E-01 6.72083E-27
2.02589E-01 6.46028E-27
2.06107E-01 6.21188E-27
2.09649E-01 5.97494E-27
2.13212E-01 5.74885E-27
2.16797E-01 5.53303E-27
2.20404E-01 5.32692E-27
2.24032E-01 5.13001E-27
2.27680E-01 4.94182E-27
2.31350E-01 4.76189E-27
2.35040E-01 4.58980E-27
2.38751E-01 4.42514E-27
2.42481E-01 4.26754E-27
2.46231E-01 4.11663E-27
2.50000E-01 3.97209E-27
2.53788E-01 3.83360E-27
2.57595E-01 3.70086E-27
2.61421E-01 3.57359E-27
2.65264E-01 3.45152E-27
2.69126E-01 3.33441E-27
2.73005E-01 3.22202E-27
2.76901E-01 3.11412E-27
2.80814E-01 3.01050E-27
2.84744E-01 2.91097E-27
2.88691E-01 2.81534E-27
2.92653E-01 2.72341E-27
2.96632E-01 2.63504E-27
3.00625E-01 2.55005E-27
3.04634E-01 2.46829E-27
3.08658E-01 2.38962E-27
3.12697E-01 2.31390E-27
3.16749E-01 2.24101E-27
3.20816E-01 2.17081E-27
3.24896E-01 2.10319E-27
3.28990E-01 2.03805E-27
3.33097E-01 1.97526E-27
3.37216E-01 1.91474E-27
3.41348E-01 1.85639E-27
3.45492E-01 1.80012E-27
3.49647E-01 1.74583E-27
3.53814E-01 1.69345E-27
3.57992E-01 1.64290E-27
3.62181E-01 1.59411E-27
3.66381E-01 1.54700E-27
3.70590E-01 1.50150E-27
3.74810E-01 1.45755E-27
3.79039E-01 1.41510E-27
3.83277E-01 1.37407E-27
3.87524E-01 1.33441E-27
3.91780E-01 1.29607E-27
3.96044E-01 1.25901E-27
4.00316E-01 1.22316E-27
4.04596E-01 1.18848E-27
4.08882E-01 1.15493E-27
4.13176E-01 1.12246E-27
4.17476E-01 1.09104E-27
4.21783E-01 1.06063E-27
4.26095E-01 1.03118E-27
4.30413E-01 1.00266E-27
4.34737E-01 9.75035E-28
4.39065E-01 9.48277E-28
4.43398E-01 9.22351E-28
4.47736E-01 8.97228E-28
4.52077E-01 8.72878E-28
4.56422E-01 8.49273E-28
4.60770E-01 8.26388E-28
4.65122E-01 8.04196E-28
4.69476E-01 7.82673E-28
4.73832E-01 7.61796E-28
4.78190E-01 7.41542E-28
4.82550E-01 7.21889E-28
4.86912E-01 7.02818E-28
4.91274E-01 6.84306E-28
4.95637E-01 6.66337E-28
5.00000E-01 6.48891E-28
5.04363E-01 6.31950E-28
5.08726E-01 6.15499E-28
5.13088E-01 5.99519E-28
5.17450E-01 5.83996E-28
5.21810E-01 5.68914E-28
5.26168E-01 5.54259E-28
5.30524E-01 5.40017E-28
5.34878E-01 5.26175E-28
5.39230E-01 5.12719E-28
5.43578E-01 4.99637E-28
5.47923E-01 4.86917E-28
5.52264E-01 4.74548E-28
5.56602E-01 4.62518E-28
5.60935E-01 4.50816E-28
5.65263E-01 4.39433E-28
5.69587E-01 4.28358E-28
5.73905E-01 4.17581E-28
5.78217E-01 4.07094E-28
5.82524E-01 3.96887E-28
5.86824E-01 3.86952E-28
5.91118E-01 3.77281E-28
5.95404E-01 3.67865E-28
5.99684E-01 3.58697E-28
6.03956E-01 3.49768E-28
6.08220E-01 3.41073E-28
6.12476E-01 3.32604E-28
6.16723E-01 3.24355E-28
6.20961E-01 3.16318E-28
6.25190E-01 3.08487E-28
6.29410E-01 3.00858E-28
6.33619E-01 2.93422E-28
6.37819E-01 2.86176E-28
6.42008E-01 2.79113E-28
6.46186E-01 2.72229E-28
6.50353E-01 2.65517E-28
6.54508E-01 2.58973E-28
6.58652E-01 2.52593E-28
6.62784E-01 2.46372E-28
6.66903E-01 2.40305E-28
6.71010E-01 2.34387E-28
6.75104E-01 2.28616E-28
6.79184E-01 2.22986E-28
6.83251E-01 2.17494E-28
6.87303E-01 2.12135E-28
6.91342E-01 2.06907E-28
6.95366E-01 2.01806E-28
6.99375E-01 1.96828E-28
7.03368E-01 1.91970E-28
7.07347E-01 1.87228E-28
7.11309E-01 1.82600E-28
7.15256E-01 1.78082E-28
7.19186E-01 1.73672E-28
7.23099E-01 1.69366E-28
7.26995E-01 1.65163E-28
7.30874E-01 1.61058E-28
7.34736E-01 1.57051E-28
7.38579E-01 1.53137E-28
7.42405E-01 1.49315E-28
7.46212E-01 1.45582E-28
7.50000E-01 1.41936E-28
7.53769E-01 1.38375E-28
7.57519E-01 1.34897E-28
7.61249E-01 1.31499E-28
7.64960E-01 1.28179E-28
7.68650E-01 1.24936E-28
7.72320E-01 1.21767E-28
7.75968E-01 1.18671E-28
7.79596E-01 1.15646E-28
7.83203E-01 1.12690E-28
7.86788E-01 1.09801E-28
7.90351E-01 1.06978E-28
7.93893E-01 1.04220E-28
7.97411E-01 1.01523E-28
8.00908E-01 9.88883E-29
8.04381E-01 9.63128E-29
8.07831E-01 9.37953E-29
8.11257E-01 9.13347E-29
8.14660E-01 8.89294E-29
8.18039E-01 8.65783E-29
8.21394E-01 8.42798E-29
8.24724E-01 8.20331E-29
8.28030E-01 7.98366E-29
8.31310E-01 7.76894E-29
8.34565E-01 7.55902E-29
8.37795E-01 7.35380E-29
8.40999E-01 7.15316E-29
8.44177E-01 6.95701E-29
8.47329E-01 6.76524E-29
8.50455E-01 6.57775E-29
8.53553E-01 6.39444E-29
8.56625E-01 6.21524E-29
8.59670E-01 6.04002E-29
8.62687E-01 5.86873E-29
8.65677E-01 5.70126E-29
8.68639E-01 5.53753E-29
8.71572E-01 5.37746E-29
8.74478E-01 5.22098E-29
8.77355E-01 5.06801E-29
8.80203E-01 4.91846E-29
8.83022E-01 4.77227E-29
8.85812E-01 4.62937E-29
8.88573E-01 4.48968E-29
8.91304E-01 4.35314E-29
8.94005E-01 4.21970E-29
8.96677E-01 4.08927E-29
8.99318E-01 3.96180E-29
9.01928E-01 3.83723E-29
9.04508E-01 3.71551E-29
9.07058E-01 3.59657E-29
9.09576E-01 3.48035E-29
9.12063E-01 3.36682E-29
9.14519E-01 3.25591E-29
9.16943E-01 3.14756E-29
9.19335E-01 3.04175E-29
9.21696E-01 2.93841E-29
9.24024E-01 2.83749E-29
9.26320E-01 2.73895E-29
9.28584E-01 2.64275E-29
9.30815E-01 2.54885E-29
9.33013E-01 2.45720E-29
9.35178E-01 2.36776E-29
9.37310E-01 2.28050E-29
9.39409E-01 2.19536E-29
9.41474E-01 2.11233E-29
9.43505E-01 2.03135E-29
9.45503E-01 1.95240E-29
9.47467E-01 1.87543E-29
9.49397E-01 1.80042E-29
9.51293E-01 1.72734E-29
9.53154E-01 1.65614E-29
9.54981E-01 1.58681E-29
9.56773E-01 1.51932E-29
9.58530E-01 1.45362E-29
9.60252E-01 1.38970E-29
9.61940E-01 1.32753E-29
9.63592E-01 1.26708E-29
9.65209E-01 1.20833E-29
9.66790E-01 1.15125E-29
9.68336E-01 1.09582E-29
9.69846E-01 1.04201E-29
9.71321E-01 9.89801E-30
9.72759E-01 9.39175E-30
9.74162E-01 8.90108E-30
9.75528E-01 8.42580E-30
9.76858E-01 7.96571E-30
9.78152E-01 7.52063E-30
9.79410E-01 7.09035E-30
9.80631E-01 6.67474E-30
9.81815E-01 6.27358E-30
9.82963E-01 5.88677E-30
9.84074E-01 5.51409E-30
9.85148E-01 5.15539E-30
9.86185E-01 4.81055E-30
9.87185E-01 4.47942E-30
9.88148E-01 4.16191E-30
9.89074E-01 3.85781E-30
9.89962E-01 3.56706E-30
9.90814E-01 3.28952E-30
9.91627E-01 3.02507E-30
9.92404E-01 2.77366E-30
9.93143E-01 2.53510E-30
9.93844E-01 2.30934E-30
9.94508E-01 2.09632E-30
9.95134E-01 1.89589E-30
9.95722E-01 1.70801E-30
9.96273E-01 1.53258E-30
9.96786E-01 1.36959E-30
9.97261E-01 1.21891E-30
9.97698E-01 1.08051E-30
9.98097E-01 9.54303E-31
9.98459E-01 8.40302E-31
9.98782E-01 7.38399E-31
9.99067E-01 6.48581E-31
9.99315E-01 5.70794E-31
9.99524E-01 5.05057E-31
9.99695E-01 4.51303E-31
9.99829E-01 4.09514E-31
9.99924E-01 3.79672E-31
9.99981E-01 3.61789E-31
1.00000E+00 3.55853E-31
