 #
 # Subroutine ELSEPA. Elastic scattering of electrons and positrons
 #                    by neutral atoms and positive ions
 #
 # Projectile: positron
 # Kinetic energy = 4.50000E+06 eV = 1.65372E+05 a.u.
 #
 # WARNING: High-energy factorization with free-atom DF screening.
 #          Absorption, polarization and exchange corrections are
 #          switched off.
 #          Phase shifts are calculated for the bare nucleus.
 #          Scattering amplitudes are not evaluated.
 #
 # Element: Be,  Z =   4,  atomic weight = 9.01220E+00 g/mol
 #
 # Nuclear model: Fermi distribution
 #                Average radius = 2.22669E-13 cm
 #                Skin thickness = 5.46000E-14 cm
 #
 # Number of electrons =  4
 #
 # Total elastic cross section = 1.72079E-19 cm**2 = 6.14507E-03 a0**2
 # 1st transport cross section = 1.04105E-24 cm**2 = 3.71764E-08 a0**2
 # 2nd transport cross section = 2.99857E-24 cm**2 = 1.07081E-07 a0**2
 #
 #
 # Differential cross section:                       MU=(1-COS(THETA))/2
 #
 #  THETA        MU          DCS          DCS        Sherman      error
 #  (deg)                 (cm**2/sr)   (a0**2/sr)    function
 #----------------------------------------------------------------------
0.00000E+00 8.96604E-14
7.61557E-13 8.96596E-14
1.18994E-12 8.96592E-14
1.71346E-12 8.96587E-14
2.33225E-12 8.96580E-14
3.04617E-12 8.96573E-14
3.85530E-12 8.96565E-14
4.75964E-12 8.96556E-14
5.75917E-12 8.96546E-14
6.85391E-12 8.96535E-14
8.04379E-12 8.96523E-14
9.32893E-12 8.96510E-14
1.07092E-11 8.96496E-14
1.21847E-11 8.96481E-14
1.37554E-11 8.96465E-14
1.54213E-11 8.96449E-14
1.71823E-11 8.96431E-14
1.90386E-11 8.96412E-14
2.09900E-11 8.96393E-14
2.30367E-11 8.96372E-14
2.51785E-11 8.96350E-14
2.74156E-11 8.96328E-14
2.97478E-11 8.96305E-14
3.21752E-11 8.96280E-14
3.46979E-11 8.96255E-14
3.73157E-11 8.96229E-14
4.00286E-11 8.96201E-14
4.28368E-11 8.96173E-14
4.57402E-11 8.96144E-14
4.87388E-11 8.96114E-14
5.18325E-11 8.96083E-14
5.50215E-11 8.96051E-14
5.83057E-11 8.96018E-14
6.16850E-11 8.95984E-14
6.51595E-11 8.95949E-14
6.87293E-11 8.95914E-14
7.23943E-11 8.95877E-14
7.61544E-11 8.95839E-14
1.18991E-10 8.95410E-14
1.71347E-10 8.94886E-14
2.33223E-10 8.94267E-14
3.04617E-10 8.93555E-14
3.85531E-10 8.92748E-14
4.75965E-10 8.91847E-14
5.75917E-10 8.90853E-14
6.85389E-10 8.89766E-14
8.04380E-10 8.88586E-14
9.32891E-10 8.87315E-14
1.07092E-09 8.85952E-14
1.21847E-09 8.84498E-14
1.37554E-09 8.82955E-14
1.54213E-09 8.81321E-14
1.71823E-09 8.79598E-14
1.90386E-09 8.77789E-14
2.09900E-09 8.75889E-14
2.30367E-09 8.73904E-14
2.51785E-09 8.71834E-14
2.74156E-09 8.69677E-14
2.97478E-09 8.67437E-14
3.21752E-09 8.65114E-14
3.46978E-09 8.62707E-14
3.73156E-09 8.60221E-14
4.00286E-09 8.57653E-14
4.28368E-09 8.55004E-14
4.57402E-09 8.52281E-14
4.87388E-09 8.49477E-14
5.18326E-09 8.46597E-14
5.50215E-09 8.43646E-14
5.83057E-09 8.40616E-14
6.16850E-09 8.37514E-14
6.51596E-09 8.34346E-14
6.87293E-09 8.31100E-14
7.23942E-09 8.27788E-14
7.61544E-09 8.24413E-14
1.18991E-08 7.87167E-14
1.71347E-08 7.44633E-14
2.33223E-08 6.98196E-14
3.04617E-08 6.49303E-14
3.85531E-08 5.99239E-14
4.75965E-08 5.49227E-14
5.75917E-08 5.00229E-14
6.85389E-08 4.52398E-14
8.04380E-08 4.07436E-14
9.32891E-08 3.66263E-14
1.07092E-07 3.27352E-14
1.21847E-07 2.91829E-14
1.37554E-07 2.60049E-14
1.54213E-07 2.30774E-14
1.71823E-07 2.04710E-14
1.90386E-07 1.81651E-14
2.09900E-07 1.60873E-14
2.30367E-07 1.42577E-14
2.51785E-07 1.26456E-14
2.74156E-07 1.12190E-14
2.97478E-07 9.96407E-15
3.21752E-07 8.86134E-15
3.46978E-07 7.89319E-15
3.73156E-07 7.03971E-15
4.00286E-07 6.29112E-15
4.28368E-07 5.63416E-15
4.57402E-07 5.05265E-15
4.87388E-07 4.54314E-15
5.18325E-07 4.09394E-15
5.50215E-07 3.69429E-15
5.83057E-07 3.34418E-15
6.16850E-07 3.03315E-15
6.51596E-07 2.75487E-15
6.87293E-07 2.51089E-15
7.23942E-07 2.29215E-15
7.61543E-07 2.09562E-15
1.18991E-06 9.59824E-16
1.71347E-06 5.15457E-16
2.33223E-06 3.09873E-16
3.04617E-06 2.00608E-16
3.85531E-06 1.36876E-16
4.75964E-06 9.70463E-17
5.75916E-06 7.07665E-17
6.85388E-06 5.27396E-17
8.04378E-06 4.01278E-17
9.32888E-06 3.10279E-17
1.07092E-05 2.43348E-17
1.21846E-05 1.93242E-17
1.37553E-05 1.55090E-17
1.54212E-05 1.25767E-17
1.71822E-05 1.02950E-17
1.90385E-05 8.50088E-18
2.09899E-05 7.08218E-18
2.30365E-05 5.93547E-18
2.51783E-05 5.00819E-18
2.74153E-05 4.25337E-18
2.97475E-05 3.63419E-18
3.21749E-05 3.12340E-18
3.46974E-05 2.69888E-18
3.73152E-05 2.34360E-18
4.00281E-05 2.04428E-18
4.28362E-05 1.79059E-18
4.57395E-05 1.57452E-18
4.87380E-05 1.38972E-18
5.18317E-05 1.23100E-18
5.50205E-05 1.09425E-18
5.83045E-05 9.75969E-19
6.16838E-05 8.73265E-19
6.51582E-05 7.83717E-19
6.87277E-05 7.05311E-19
7.23925E-05 6.36393E-19
7.61524E-05 5.75619E-19
9.21439E-05 3.94084E-19
1.09658E-04 2.78814E-19
1.28695E-04 2.02647E-19
1.49255E-04 1.50784E-19
1.71338E-04 1.14494E-19
1.94942E-04 8.84683E-20
2.20070E-04 6.94443E-20
2.46720E-04 5.52545E-20
2.74892E-04 4.45116E-20
3.04586E-04 3.62556E-20
3.35803E-04 2.98265E-20
3.68542E-04 2.47631E-20
4.02802E-04 2.07278E-20
4.38585E-04 1.74833E-20
4.75889E-04 1.48486E-20
5.14715E-04 1.26920E-20
5.55063E-04 1.09133E-20
5.96931E-04 9.43505E-21
6.40321E-04 8.19920E-21
6.85233E-04 7.15885E-21
7.31665E-04 6.27853E-21
7.79618E-04 5.52939E-21
8.29092E-04 4.88862E-21
8.80086E-04 4.33813E-21
9.32601E-04 3.86285E-21
9.86636E-04 3.45098E-21
1.04219E-03 3.09250E-21
1.09927E-03 2.77938E-21
1.15786E-03 2.50491E-21
1.21797E-03 2.26345E-21
1.27961E-03 2.05043E-21
1.34276E-03 1.86185E-21
1.40743E-03 1.69446E-21
1.47362E-03 1.54546E-21
1.54133E-03 1.41247E-21
1.61056E-03 1.29349E-21
1.68131E-03 1.18676E-21
1.75357E-03 1.09082E-21
1.82735E-03 1.00437E-21
1.90265E-03 9.26313E-22
1.97947E-03 8.55696E-22
2.05780E-03 7.91670E-22
2.13765E-03 7.33528E-22
2.21902E-03 6.80617E-22
2.30190E-03 6.32393E-22
2.38630E-03 5.88363E-22
2.47222E-03 5.48095E-22
2.55965E-03 5.11215E-22
2.64859E-03 4.77379E-22
2.73905E-03 4.46299E-22
2.83103E-03 4.17705E-22
2.92452E-03 3.91362E-22
3.01952E-03 3.67064E-22
3.11604E-03 3.44620E-22
3.21407E-03 3.23866E-22
3.31362E-03 3.04648E-22
3.41468E-03 2.86835E-22
3.51725E-03 2.70304E-22
3.62133E-03 2.54945E-22
3.72692E-03 2.40662E-22
3.83403E-03 2.27364E-22
3.94265E-03 2.14971E-22
4.05278E-03 2.03411E-22
4.16442E-03 1.92616E-22
4.27757E-03 1.82529E-22
4.39223E-03 1.73091E-22
4.50840E-03 1.64256E-22
4.62608E-03 1.55977E-22
4.74527E-03 1.48212E-22
4.86597E-03 1.40925E-22
4.98817E-03 1.34079E-22
5.11188E-03 1.27644E-22
5.23711E-03 1.21589E-22
5.36383E-03 1.15889E-22
5.49207E-03 1.10519E-22
5.62181E-03 1.05456E-22
5.75306E-03 1.00680E-22
5.88581E-03 9.61701E-23
6.02007E-03 9.19102E-23
6.15583E-03 8.78831E-23
6.29310E-03 8.40740E-23
6.43187E-03 8.04688E-23
6.57214E-03 7.70545E-23
6.71392E-03 7.38194E-23
6.85720E-03 7.07519E-23
7.00198E-03 6.78420E-23
7.14827E-03 6.50800E-23
7.29605E-03 6.24569E-23
7.44534E-03 5.99646E-23
7.59612E-03 5.75951E-23
7.97965E-03 5.21632E-23
8.37255E-03 4.73562E-23
8.77480E-03 4.30896E-23
9.18641E-03 3.92922E-23
9.60736E-03 3.59036E-23
1.00376E-02 3.28720E-23
1.04773E-02 3.01532E-23
1.09262E-02 2.77094E-23
1.13844E-02 2.55078E-23
1.18520E-02 2.35203E-23
1.23288E-02 2.17223E-23
1.28150E-02 2.00925E-23
1.33104E-02 1.86125E-23
1.38150E-02 1.72661E-23
1.43290E-02 1.60390E-23
1.48521E-02 1.49188E-23
1.53845E-02 1.38945E-23
1.59262E-02 1.29565E-23
1.64770E-02 1.20961E-23
1.70371E-02 1.13058E-23
1.76063E-02 1.05789E-23
1.81848E-02 9.90928E-24
1.87724E-02 9.29172E-24
1.93692E-02 8.72142E-24
1.99751E-02 8.19410E-24
2.05901E-02 7.70593E-24
2.12143E-02 7.25349E-24
2.18476E-02 6.83368E-24
2.24900E-02 6.44372E-24
2.31415E-02 6.08110E-24
2.38021E-02 5.74356E-24
2.44717E-02 5.42905E-24
2.51504E-02 5.13571E-24
2.58382E-02 4.86186E-24
2.65349E-02 4.60595E-24
2.72407E-02 4.36661E-24
2.79555E-02 4.14257E-24
2.86793E-02 3.93266E-24
2.94120E-02 3.73583E-24
3.01537E-02 3.55112E-24
3.09043E-02 3.37764E-24
3.16639E-02 3.21459E-24
3.24324E-02 3.06122E-24
3.32098E-02 2.91685E-24
3.39961E-02 2.78086E-24
3.47912E-02 2.65267E-24
3.55952E-02 2.53175E-24
3.64081E-02 2.41761E-24
3.72297E-02 2.30981E-24
3.80602E-02 2.20792E-24
3.88995E-02 2.11156E-24
3.97476E-02 2.02038E-24
4.06044E-02 1.93404E-24
4.14700E-02 1.85225E-24
4.23443E-02 1.77471E-24
4.32273E-02 1.70116E-24
4.41190E-02 1.63137E-24
4.50194E-02 1.56510E-24
4.59284E-02 1.50214E-24
4.68461E-02 1.44230E-24
4.87074E-02 1.33126E-24
5.06030E-02 1.23063E-24
5.25328E-02 1.13929E-24
5.44967E-02 1.05621E-24
5.64946E-02 9.80526E-25
5.85262E-02 9.11457E-25
6.05914E-02 8.48325E-25
6.26901E-02 7.90528E-25
6.48222E-02 7.37537E-25
6.69873E-02 6.88880E-25
6.91854E-02 6.44140E-25
7.14163E-02 6.02946E-25
7.36799E-02 5.64966E-25
7.59760E-02 5.29906E-25
7.83043E-02 4.97501E-25
8.06647E-02 4.67513E-25
8.30571E-02 4.39731E-25
8.54812E-02 4.13963E-25
8.79369E-02 3.90037E-25
9.04240E-02 3.67798E-25
9.29422E-02 3.47105E-25
9.54915E-02 3.27832E-25
9.80716E-02 3.09863E-25
1.00682E-01 2.93095E-25
1.03323E-01 2.77434E-25
1.05995E-01 2.62792E-25
1.08696E-01 2.49092E-25
1.11427E-01 2.36261E-25
1.14188E-01 2.24236E-25
1.16978E-01 2.12956E-25
1.19797E-01 2.02367E-25
1.22645E-01 1.92419E-25
1.25522E-01 1.83066E-25
1.28428E-01 1.74266E-25
1.31361E-01 1.65981E-25
1.34323E-01 1.58174E-25
1.37313E-01 1.50814E-25
1.40330E-01 1.43870E-25
1.43375E-01 1.37315E-25
1.46447E-01 1.31122E-25
1.49545E-01 1.25268E-25
1.52671E-01 1.19732E-25
1.55823E-01 1.14492E-25
1.59001E-01 1.09530E-25
1.62205E-01 1.04830E-25
1.65435E-01 1.00373E-25
1.68690E-01 9.61465E-26
1.71970E-01 9.21352E-26
1.75276E-01 8.83265E-26
1.78606E-01 8.47083E-26
1.81961E-01 8.12693E-26
1.85340E-01 7.79991E-26
1.88743E-01 7.48880E-26
1.92169E-01 7.19267E-26
1.95619E-01 6.91068E-26
1.99092E-01 6.64202E-26
2.02589E-01 6.38597E-26
2.06107E-01 6.14181E-26
2.09649E-01 5.90890E-26
2.13212E-01 5.68662E-26
2.16797E-01 5.47441E-26
2.20404E-01 5.27172E-26
2.24032E-01 5.07806E-26
2.27680E-01 4.89294E-26
2.31350E-01 4.71592E-26
2.35040E-01 4.54659E-26
2.38751E-01 4.38455E-26
2.42481E-01 4.22944E-26
2.46231E-01 4.08089E-26
2.50000E-01 3.93859E-26
2.53788E-01 3.80222E-26
2.57595E-01 3.67150E-26
2.61421E-01 3.54615E-26
2.65264E-01 3.42590E-26
2.69126E-01 3.31052E-26
2.73005E-01 3.19977E-26
2.76901E-01 3.09343E-26
2.80814E-01 2.99130E-26
2.84744E-01 2.89318E-26
2.88691E-01 2.79888E-26
2.92653E-01 2.70823E-26
2.96632E-01 2.62106E-26
3.00625E-01 2.53722E-26
3.04634E-01 2.45655E-26
3.08658E-01 2.37892E-26
3.12697E-01 2.30419E-26
3.16749E-01 2.23223E-26
3.20816E-01 2.16293E-26
3.24896E-01 2.09616E-26
3.28990E-01 2.03182E-26
3.33097E-01 1.96980E-26
3.37216E-01 1.91001E-26
3.41348E-01 1.85234E-26
3.45492E-01 1.79672E-26
3.49647E-01 1.74306E-26
3.53814E-01 1.69128E-26
3.57992E-01 1.64129E-26
3.62181E-01 1.59303E-26
3.66381E-01 1.54642E-26
3.70590E-01 1.50141E-26
3.74810E-01 1.45792E-26
3.79039E-01 1.41589E-26
3.83277E-01 1.37528E-26
3.87524E-01 1.33601E-26
3.91780E-01 1.29804E-26
3.96044E-01 1.26132E-26
4.00316E-01 1.22581E-26
4.04596E-01 1.19144E-26
4.08882E-01 1.15819E-26
4.13176E-01 1.12601E-26
4.17476E-01 1.09485E-26
4.21783E-01 1.06468E-26
4.26095E-01 1.03547E-26
4.30413E-01 1.00718E-26
4.34737E-01 9.79766E-27
4.39065E-01 9.53207E-27
4.43398E-01 9.27468E-27
4.47736E-01 9.02521E-27
4.52077E-01 8.78337E-27
4.56422E-01 8.54888E-27
4.60770E-01 8.32148E-27
4.65122E-01 8.10093E-27
4.69476E-01 7.88699E-27
4.73832E-01 7.67941E-27
4.78190E-01 7.47798E-27
4.82550E-01 7.28250E-27
4.86912E-01 7.09275E-27
4.91274E-01 6.90853E-27
4.95637E-01 6.72967E-27
5.00000E-01 6.55597E-27
5.04363E-01 6.38727E-27
5.08726E-01 6.22340E-27
5.13088E-01 6.06419E-27
5.17450E-01 5.90950E-27
5.21810E-01 5.75917E-27
5.26168E-01 5.61306E-27
5.30524E-01 5.47104E-27
5.34878E-01 5.33296E-27
5.39230E-01 5.19871E-27
5.43578E-01 5.06816E-27
5.47923E-01 4.94119E-27
5.52264E-01 4.81769E-27
5.56602E-01 4.69755E-27
5.60935E-01 4.58066E-27
5.65263E-01 4.46692E-27
5.69587E-01 4.35623E-27
5.73905E-01 4.24850E-27
5.78217E-01 4.14364E-27
5.82524E-01 4.04155E-27
5.86824E-01 3.94216E-27
5.91118E-01 3.84538E-27
5.95404E-01 3.75113E-27
5.99684E-01 3.65934E-27
6.03956E-01 3.56993E-27
6.08220E-01 3.48283E-27
6.12476E-01 3.39797E-27
6.16723E-01 3.31529E-27
6.20961E-01 3.23472E-27
6.25190E-01 3.15620E-27
6.29410E-01 3.07967E-27
6.33619E-01 3.00508E-27
6.37819E-01 2.93236E-27
6.42008E-01 2.86146E-27
6.46186E-01 2.79233E-27
6.50353E-01 2.72492E-27
6.54508E-01 2.65919E-27
6.58652E-01 2.59507E-27
6.62784E-01 2.53254E-27
6.66903E-01 2.47153E-27
6.71010E-01 2.41202E-27
6.75104E-01 2.35396E-27
6.79184E-01 2.29731E-27
6.83251E-01 2.24203E-27
6.87303E-01 2.18808E-27
6.91342E-01 2.13543E-27
6.95366E-01 2.08404E-27
6.99375E-01 2.03387E-27
7.03368E-01 1.98490E-27
7.07347E-01 1.93710E-27
7.11309E-01 1.89042E-27
7.15256E-01 1.84485E-27
7.19186E-01 1.80035E-27
7.23099E-01 1.75689E-27
7.26995E-01 1.71445E-27
7.30874E-01 1.67299E-27
7.34736E-01 1.63251E-27
7.38579E-01 1.59296E-27
7.42405E-01 1.55433E-27
7.46212E-01 1.51658E-27
7.50000E-01 1.47971E-27
7.53769E-01 1.44369E-27
7.57519E-01 1.40849E-27
7.61249E-01 1.37409E-27
7.64960E-01 1.34048E-27
7.68650E-01 1.30763E-27
7.72320E-01 1.27553E-27
7.75968E-01 1.24415E-27
7.79596E-01 1.21349E-27
7.83203E-01 1.18351E-27
7.86788E-01 1.15422E-27
7.90351E-01 1.12558E-27
7.93893E-01 1.09758E-27
7.97411E-01 1.07021E-27
8.00908E-01 1.04345E-27
8.04381E-01 1.01729E-27
8.07831E-01 9.91715E-28
8.11257E-01 9.66707E-28
8.14660E-01 9.42256E-28
8.18039E-01 9.18348E-28
8.21394E-01 8.94969E-28
8.24724E-01 8.72109E-28
8.28030E-01 8.49755E-28
8.31310E-01 8.27896E-28
8.34565E-01 8.06519E-28
8.37795E-01 7.85616E-28
8.40999E-01 7.65173E-28
8.44177E-01 7.45182E-28
8.47329E-01 7.25632E-28
8.50455E-01 7.06513E-28
8.53553E-01 6.87815E-28
8.56625E-01 6.69530E-28
8.59670E-01 6.51648E-28
8.62687E-01 6.34162E-28
8.65677E-01 6.17060E-28
8.68639E-01 6.00337E-28
8.71572E-01 5.83983E-28
8.74478E-01 5.67991E-28
8.77355E-01 5.52353E-28
8.80203E-01 5.37061E-28
8.83022E-01 5.22108E-28
8.85812E-01 5.07489E-28
8.88573E-01 4.93194E-28
8.91304E-01 4.79218E-28
8.94005E-01 4.65555E-28
8.96677E-01 4.52197E-28
8.99318E-01 4.39139E-28
9.01928E-01 4.26375E-28
9.04508E-01 4.13899E-28
9.07058E-01 4.01705E-28
9.09576E-01 3.89788E-28
9.12063E-01 3.78144E-28
9.14519E-01 3.66764E-28
9.16943E-01 3.55646E-28
9.19335E-01 3.44784E-28
9.21696E-01 3.34174E-28
9.24024E-01 3.23811E-28
9.26320E-01 3.13689E-28
9.28584E-01 3.03806E-28
9.30815E-01 2.94156E-28
9.33013E-01 2.84735E-28
9.35178E-01 2.75540E-28
9.37310E-01 2.66566E-28
9.39409E-01 2.57809E-28
9.41474E-01 2.49266E-28
9.43505E-01 2.40933E-28
9.45503E-01 2.32807E-28
9.47467E-01 2.24883E-28
9.49397E-01 2.17160E-28
9.51293E-01 2.09633E-28
9.53154E-01 2.02299E-28
9.54981E-01 1.95156E-28
9.56773E-01 1.88201E-28
9.58530E-01 1.81430E-28
9.60252E-01 1.74840E-28
9.61940E-01 1.68430E-28
9.63592E-01 1.62196E-28
9.65209E-01 1.56136E-28
9.66790E-01 1.50247E-28
9.68336E-01 1.44527E-28
9.69846E-01 1.38974E-28
9.71321E-01 1.33585E-28
9.72759E-01 1.28359E-28
9.74162E-01 1.23293E-28
9.75528E-01 1.18385E-28
9.76858E-01 1.13633E-28
9.78152E-01 1.09035E-28
9.79410E-01 1.04590E-28
9.80631E-01 1.00296E-28
9.81815E-01 9.61501E-29
9.82963E-01 9.21522E-29
9.84074E-01 8.82998E-29
9.85148E-01 8.45915E-29
9.86185E-01 8.10262E-29
9.87185E-01 7.76021E-29
9.88148E-01 7.43185E-29
9.89074E-01 7.11733E-29
9.89962E-01 6.81658E-29
9.90814E-01 6.52946E-29
9.91627E-01 6.25586E-29
9.92404E-01 5.99573E-29
9.93143E-01 5.74886E-29
9.93844E-01 5.51523E-29
9.94508E-01 5.29477E-29
9.95134E-01 5.08732E-29
9.95722E-01 4.89284E-29
9.96273E-01 4.71124E-29
9.96786E-01 4.54251E-29
9.97261E-01 4.38649E-29
9.97698E-01 4.24321E-29
9.98097E-01 4.11253E-29
9.98459E-01 3.99449E-29
9.98782E-01 3.88897E-29
9.99067E-01 3.79595E-29
9.99315E-01 3.71538E-29
9.99524E-01 3.64733E-29
9.99695E-01 3.59167E-29
9.99829E-01 3.54838E-29
9.99924E-01 3.51747E-29
9.99981E-01 3.49898E-29
1.00000E+00 3.49288E-29
