 #
 # Subroutine ELSEPA. Elastic scattering of electrons and positrons
 #                    by neutral atoms and positive ions
 #
 # Projectile: positron
 # Kinetic energy = 5.00000E+08 eV = 1.83747E+07 a.u.
 #
 # WARNING: High-energy factorization with free-atom DF screening.
 #          Absorption, polarization and exchange corrections are
 #          switched off.
 #          Phase shifts are calculated for the bare nucleus.
 #          Scattering amplitudes are not evaluated.
 #
 # Element: Be,  Z =   4,  atomic weight = 9.01220E+00 g/mol
 #
 # Nuclear model: Fermi distribution
 #                Average radius = 2.22669E-13 cm
 #                Skin thickness = 5.46000E-14 cm
 #
 # Number of electrons =  4
 #
 # Total elastic cross section = 1.69973E-19 cm**2 = 6.06985E-03 a0**2
 # 1st transport cross section = 1.48753E-28 cm**2 = 5.31206E-12 a0**2
 # 2nd transport cross section = 4.45855E-28 cm**2 = 1.59218E-11 a0**2
 #
 #
 # Differential cross section:                       MU=(1-COS(THETA))/2
 #
 #  THETA        MU          DCS          DCS        Sherman      error
 #  (deg)                 (cm**2/sr)   (a0**2/sr)    function
 #----------------------------------------------------------------------
0.00000E+00 8.94498E-10
7.61557E-13 8.21927E-10
1.18994E-12 7.84511E-10
1.71346E-12 7.41802E-10
2.33225E-12 6.95206E-10
3.04617E-12 6.46173E-10
3.85530E-12 5.96014E-10
4.75964E-12 5.45933E-10
5.75917E-12 4.96922E-10
6.85391E-12 4.49074E-10
8.04379E-12 4.04227E-10
9.32893E-12 3.63192E-10
1.07092E-11 3.24323E-10
1.21847E-11 2.88983E-10
1.37554E-11 2.57390E-10
1.54213E-11 2.28231E-10
1.71823E-11 2.02361E-10
1.90386E-11 1.79449E-10
2.09900E-11 1.58854E-10
2.30367E-11 1.40729E-10
2.51785E-11 1.24757E-10
2.74156E-11 1.10640E-10
2.97478E-11 9.82284E-11
3.21752E-11 8.73319E-11
3.46979E-11 7.77644E-11
3.73157E-11 6.93338E-11
4.00286E-11 6.19531E-11
4.28368E-11 5.54679E-11
4.57402E-11 4.97295E-11
4.87388E-11 4.47152E-11
5.18325E-11 4.02846E-11
5.50215E-11 3.63437E-11
5.83057E-11 3.29032E-11
6.16850E-11 2.98373E-11
6.51595E-11 2.70991E-11
6.87293E-11 2.46998E-11
7.23943E-11 2.25447E-11
7.61544E-11 2.06159E-11
1.18991E-10 9.44325E-12
1.71347E-10 5.07411E-12
2.33223E-10 3.05121E-12
3.04617E-10 1.97546E-12
3.85531E-10 1.34795E-12
4.75965E-10 9.55506E-13
5.75917E-10 6.96682E-13
6.85389E-10 5.19115E-13
8.04380E-10 3.94862E-13
9.32891E-10 3.05243E-13
1.07092E-09 2.39343E-13
1.21847E-09 1.90023E-13
1.37554E-09 1.52530E-13
1.54213E-09 1.23667E-13
1.71823E-09 1.01214E-13
1.90386E-09 8.35640E-14
2.09900E-09 6.95458E-14
2.30367E-09 5.83070E-14
2.51785E-09 4.92211E-14
2.74156E-09 4.18170E-14
2.97478E-09 3.57368E-14
3.21752E-09 3.07087E-14
3.46978E-09 2.65256E-14
3.73156E-09 2.30254E-14
4.00286E-09 2.00793E-14
4.28368E-09 1.75860E-14
4.57402E-09 1.54652E-14
4.87388E-09 1.36527E-14
5.18326E-09 1.20962E-14
5.50215E-09 1.07540E-14
5.83057E-09 9.59175E-15
6.16850E-09 8.58162E-15
6.51596E-09 7.70049E-15
6.87293E-09 6.92910E-15
7.23942E-09 6.25154E-15
7.61544E-09 5.65455E-15
1.18991E-08 2.32839E-15
1.71347E-08 1.12523E-15
2.33223E-08 6.07951E-16
3.04617E-08 3.56472E-16
3.85531E-08 2.22586E-16
4.75965E-08 1.46058E-16
5.75917E-08 9.97696E-17
6.85389E-08 7.04493E-17
8.04380E-08 5.11509E-17
9.32891E-08 3.80307E-17
1.07092E-07 2.88601E-17
1.21847E-07 2.22944E-17
1.37554E-07 1.74940E-17
1.54213E-07 1.39189E-17
1.71823E-07 1.12121E-17
1.90386E-07 9.13245E-18
2.09900E-07 7.51337E-18
2.30367E-07 6.23772E-18
2.51785E-07 5.22166E-18
2.74156E-07 4.40431E-18
2.97478E-07 3.74081E-18
3.21752E-07 3.19768E-18
3.46978E-07 2.74963E-18
3.73156E-07 2.37738E-18
4.00286E-07 2.06605E-18
4.28368E-07 1.80405E-18
4.57402E-07 1.58230E-18
4.87388E-07 1.39359E-18
5.18325E-07 1.23220E-18
5.50215E-07 1.09350E-18
5.83057E-07 9.73788E-19
6.16850E-07 8.70016E-19
6.51596E-07 7.79705E-19
6.87293E-07 7.00814E-19
7.23942E-07 6.31654E-19
7.61543E-07 5.70818E-19
1.18991E-06 2.33805E-19
1.71347E-06 1.12752E-19
2.33223E-06 6.08598E-20
3.04617E-06 3.56743E-20
3.85531E-06 2.22709E-20
4.75964E-06 1.46117E-20
5.75916E-06 9.97979E-21
6.85388E-06 7.04626E-21
8.04378E-06 5.11567E-21
9.32888E-06 3.80326E-21
1.07092E-05 2.88599E-21
1.21846E-05 2.22932E-21
1.37553E-05 1.74923E-21
1.54212E-05 1.39170E-21
1.71822E-05 1.12102E-21
1.90385E-05 9.13060E-22
2.09899E-05 7.51163E-22
2.30365E-05 6.23920E-22
2.51783E-05 5.21960E-22
2.74153E-05 4.40046E-22
2.97475E-05 3.73682E-22
3.21749E-05 3.19461E-22
3.46974E-05 2.74783E-22
3.73152E-05 2.37663E-22
4.00281E-05 2.06588E-22
4.28362E-05 1.80399E-22
4.57395E-05 1.58203E-22
4.87380E-05 1.39301E-22
5.18317E-05 1.23137E-22
5.50205E-05 1.09258E-22
5.83045E-05 9.72914E-23
6.16838E-05 8.69299E-23
6.51582E-05 7.79175E-23
6.87277E-05 7.00436E-23
7.23925E-05 6.31360E-23
7.61524E-05 5.67982E-23
9.21439E-05 3.87392E-23
1.09658E-04 2.73288E-23
1.28695E-04 1.98150E-23
1.49255E-04 1.47124E-23
1.71338E-04 1.11497E-23
1.94942E-04 8.59895E-24
2.20070E-04 6.73744E-24
2.46720E-04 5.35101E-24
2.74892E-04 4.30291E-24
3.04586E-04 3.49826E-24
3.35803E-04 2.87231E-24
3.68542E-04 2.37989E-24
4.02802E-04 1.98786E-24
4.38585E-04 1.67303E-24
4.75889E-04 1.41767E-24
5.14715E-04 1.20891E-24
5.55063E-04 1.03695E-24
5.96931E-04 8.94214E-25
6.40321E-04 7.75051E-25
6.85233E-04 6.74874E-25
7.31665E-04 5.90229E-25
7.79618E-04 5.18304E-25
8.29092E-04 4.56877E-25
8.80086E-04 4.04188E-25
9.32601E-04 3.58769E-25
9.86636E-04 3.19477E-25
1.04219E-03 2.85336E-25
1.09927E-03 2.55568E-25
1.15786E-03 2.29521E-25
1.21797E-03 2.06649E-25
1.27961E-03 1.86510E-25
1.34276E-03 1.68715E-25
1.40743E-03 1.52953E-25
1.47362E-03 1.38951E-25
1.54133E-03 1.26479E-25
1.61056E-03 1.15345E-25
1.68131E-03 1.05379E-25
1.75357E-03 9.64415E-26
1.82735E-03 8.84064E-26
1.90265E-03 8.11686E-26
1.97947E-03 7.46364E-26
2.05780E-03 6.87285E-26
2.13765E-03 6.33770E-26
2.21902E-03 5.85194E-26
2.30190E-03 5.41038E-26
2.38630E-03 5.00830E-26
2.47222E-03 4.64157E-26
2.55965E-03 4.30664E-26
2.64859E-03 4.00022E-26
2.73905E-03 3.71958E-26
2.83103E-03 3.46214E-26
2.92452E-03 3.22569E-26
3.01952E-03 3.00826E-26
3.11604E-03 2.80803E-26
3.21407E-03 2.62348E-26
3.31362E-03 2.45314E-26
3.41468E-03 2.29577E-26
3.51725E-03 2.15021E-26
3.62133E-03 2.01544E-26
3.72692E-03 1.89054E-26
3.83403E-03 1.77465E-26
3.94265E-03 1.66705E-26
4.05278E-03 1.56704E-26
4.16442E-03 1.47400E-26
4.27757E-03 1.38737E-26
4.39223E-03 1.30664E-26
4.50840E-03 1.23136E-26
4.62608E-03 1.16108E-26
4.74527E-03 1.09545E-26
4.86597E-03 1.03409E-26
4.98817E-03 9.76683E-27
5.11188E-03 9.22950E-27
5.23711E-03 8.72608E-27
5.36383E-03 8.25421E-27
5.49207E-03 7.81156E-27
5.62181E-03 7.39608E-27
5.75306E-03 7.00586E-27
5.88581E-03 6.63912E-27
6.02007E-03 6.29429E-27
6.15583E-03 5.96982E-27
6.29310E-03 5.66438E-27
6.43187E-03 5.37668E-27
6.57214E-03 5.10553E-27
6.71392E-03 4.84988E-27
6.85720E-03 4.60869E-27
7.00198E-03 4.38105E-27
7.14827E-03 4.16608E-27
7.29605E-03 3.96299E-27
7.44534E-03 3.77104E-27
7.59612E-03 3.58951E-27
7.97965E-03 3.17729E-27
8.37255E-03 2.81753E-27
8.77480E-03 2.50277E-27
9.18641E-03 2.22675E-27
9.60736E-03 1.98415E-27
1.00376E-02 1.77049E-27
1.04773E-02 1.58195E-27
1.09262E-02 1.41525E-27
1.13844E-02 1.26761E-27
1.18520E-02 1.13663E-27
1.23288E-02 1.02025E-27
1.28150E-02 9.16682E-28
1.33104E-02 8.24386E-28
1.38150E-02 7.42026E-28
1.43290E-02 6.68437E-28
1.48521E-02 6.02606E-28
1.53845E-02 5.43648E-28
1.59262E-02 4.90788E-28
1.64770E-02 4.43347E-28
1.70371E-02 4.00727E-28
1.76063E-02 3.62405E-28
1.81848E-02 3.27915E-28
1.87724E-02 2.96850E-28
1.93692E-02 2.68848E-28
1.99751E-02 2.43588E-28
2.05901E-02 2.20785E-28
2.12143E-02 2.00188E-28
2.18476E-02 1.81571E-28
2.24900E-02 1.64735E-28
2.31415E-02 1.49500E-28
2.38021E-02 1.35707E-28
2.44717E-02 1.23215E-28
2.51504E-02 1.11894E-28
2.58382E-02 1.01631E-28
2.65349E-02 9.23234E-29
2.72407E-02 8.38792E-29
2.79555E-02 7.62157E-29
2.86793E-02 6.92586E-29
2.94120E-02 6.29409E-29
3.01537E-02 5.72023E-29
3.09043E-02 5.19886E-29
3.16639E-02 4.72506E-29
3.24324E-02 4.29442E-29
3.32098E-02 3.90294E-29
3.39961E-02 3.54699E-29
3.47912E-02 3.22332E-29
3.55952E-02 2.92896E-29
3.64081E-02 2.66123E-29
3.72297E-02 2.41771E-29
3.80602E-02 2.19620E-29
3.88995E-02 1.99469E-29
3.97476E-02 1.81139E-29
4.06044E-02 1.64464E-29
4.14700E-02 1.49295E-29
4.23443E-02 1.35496E-29
4.32273E-02 1.22946E-29
4.41190E-02 1.11530E-29
4.50194E-02 1.01148E-29
4.59284E-02 9.17077E-30
4.68461E-02 8.31236E-30
4.87074E-02 6.82256E-30
5.06030E-02 5.59199E-30
5.25328E-02 4.57632E-30
5.44967E-02 3.73878E-30
5.64946E-02 3.04884E-30
5.85262E-02 2.48117E-30
6.05914E-02 2.01471E-30
6.26901E-02 1.63199E-30
6.48222E-02 1.31848E-30
6.69873E-02 1.06214E-30
6.91854E-02 8.52946E-31
7.14163E-02 6.82611E-31
7.36799E-02 5.44245E-31
7.59760E-02 4.32143E-31
7.83043E-02 3.41581E-31
8.06647E-02 2.68654E-31
8.30571E-02 2.10131E-31
8.54812E-02 1.63349E-31
8.79369E-02 1.26113E-31
9.04240E-02 9.66153E-32
9.29422E-02 7.33729E-32
9.54915E-02 5.51690E-32
9.80716E-02 4.10087E-32
1.00682E-01 3.00797E-32
1.03323E-01 2.17210E-32
1.05995E-01 1.53958E-32
1.08696E-01 1.06701E-32
1.11427E-01 7.19364E-33
1.14188E-01 4.68530E-33
1.16978E-01 2.92022E-33
1.19797E-01 1.71953E-33
1.22645E-01 9.41692E-34
1.25522E-01 4.75450E-34
1.28428E-01 2.33989E-34
1.31361E-01 1.50167E-34
1.34323E-01 1.72586E-34
1.37313E-01 2.62386E-34
1.40330E-01 3.90659E-34
1.43375E-01 5.36285E-34
1.46447E-01 6.84278E-34
1.49545E-01 8.24349E-34
1.52671E-01 9.49831E-34
1.55823E-01 1.05677E-33
1.59001E-01 1.14325E-33
1.62205E-01 1.20883E-33
1.65435E-01 1.25410E-33
1.68690E-01 1.28032E-33
1.71970E-01 1.28923E-33
1.75276E-01 1.28282E-33
1.78606E-01 1.26318E-33
1.81961E-01 1.23236E-33
1.85340E-01 1.19239E-33
1.88743E-01 1.14515E-33
1.92169E-01 1.09236E-33
1.95619E-01 1.03556E-33
1.99092E-01 9.76150E-34
2.02589E-01 9.15283E-34
2.06107E-01 8.54005E-34
2.09649E-01 7.93167E-34
2.13212E-01 7.33468E-34
2.16797E-01 6.75480E-34
2.20404E-01 6.19648E-34
2.24032E-01 5.66311E-34
2.27680E-01 5.15708E-34
2.31350E-01 4.68002E-34
2.35040E-01 4.23289E-34
2.38751E-01 3.81595E-34
2.42481E-01 3.42914E-34
2.46231E-01 3.07189E-34
2.50000E-01 2.74335E-34
2.53788E-01 2.44251E-34
2.57595E-01 2.16799E-34
2.61421E-01 1.91857E-34
2.65264E-01 1.69265E-34
2.69126E-01 1.48881E-34
2.73005E-01 1.30545E-34
2.76901E-01 1.14110E-34
2.80814E-01 9.94264E-35
2.84744E-01 8.63490E-35
2.88691E-01 7.47400E-35
2.92653E-01 6.44689E-35
2.96632E-01 5.54083E-35
3.00625E-01 4.74446E-35
3.04634E-01 4.04646E-35
3.08658E-01 3.43717E-35
3.12697E-01 2.90688E-35
3.16749E-01 2.44706E-35
3.20816E-01 2.04986E-35
3.24896E-01 1.70805E-35
3.28990E-01 1.41512E-35
3.33097E-01 1.16520E-35
3.37216E-01 9.52905E-36
3.41348E-01 7.73484E-36
3.45492E-01 6.22698E-36
3.49647E-01 4.96639E-36
3.53814E-01 3.91948E-36
3.57992E-01 3.05658E-36
3.62181E-01 2.35085E-36
3.66381E-01 1.77896E-36
3.70590E-01 1.32052E-36
3.74810E-01 9.57485E-37
3.79039E-01 6.74566E-37
3.83277E-01 4.58315E-37
3.87524E-01 2.96806E-37
3.91780E-01 1.80464E-37
3.96044E-01 1.00358E-37
4.00316E-01 4.94962E-38
4.04596E-01 2.16298E-38
4.08882E-01 1.15857E-38
4.13176E-01 1.50522E-38
4.17476E-01 2.84574E-38
4.21783E-01 4.88491E-38
4.26095E-01 7.38030E-38
4.30413E-01 1.01296E-37
4.34737E-01 1.29959E-37
4.39065E-01 1.58460E-37
4.43398E-01 1.85860E-37
4.47736E-01 2.11701E-37
4.52077E-01 2.35185E-37
4.56422E-01 2.56178E-37
4.60770E-01 2.74443E-37
4.65122E-01 2.89905E-37
4.69476E-01 3.02428E-37
4.73832E-01 3.12285E-37
4.78190E-01 3.19433E-37
4.82550E-01 3.24102E-37
4.86912E-01 3.26460E-37
4.91274E-01 3.26545E-37
4.95637E-01 3.24897E-37
5.00000E-01 3.21270E-37
5.04363E-01 3.16376E-37
5.08726E-01 3.10074E-37
5.13088E-01 3.02488E-37
5.17450E-01 2.94013E-37
5.21810E-01 2.84835E-37
5.26168E-01 2.74975E-37
5.30524E-01 2.64623E-37
5.34878E-01 2.53863E-37
5.39230E-01 2.42933E-37
5.43578E-01 2.31826E-37
5.47923E-01 2.20636E-37
5.52264E-01 2.09643E-37
5.56602E-01 1.98594E-37
5.60935E-01 1.87808E-37
5.65263E-01 1.77139E-37
5.69587E-01 1.66828E-37
5.73905E-01 1.56826E-37
5.78217E-01 1.47128E-37
5.82524E-01 1.37813E-37
5.86824E-01 1.28844E-37
5.91118E-01 1.20320E-37
5.95404E-01 1.12127E-37
5.99684E-01 1.04331E-37
6.03956E-01 9.69267E-38
6.08220E-01 8.99335E-38
6.12476E-01 8.33218E-38
6.16723E-01 7.70642E-38
6.20961E-01 7.12417E-38
6.25190E-01 6.57228E-38
6.29410E-01 6.05812E-38
6.33619E-01 5.57506E-38
6.37819E-01 5.12568E-38
6.42008E-01 4.70832E-38
6.46186E-01 4.31929E-38
6.50353E-01 3.95682E-38
6.54508E-01 3.61820E-38
6.58652E-01 3.30839E-38
6.62784E-01 3.02047E-38
6.66903E-01 2.75464E-38
6.71010E-01 2.50694E-38
6.75104E-01 2.27888E-38
6.79184E-01 2.07442E-38
6.83251E-01 1.87995E-38
6.87303E-01 1.70562E-38
6.91342E-01 1.54367E-38
6.95366E-01 1.39391E-38
6.99375E-01 1.25996E-38
7.03368E-01 1.13491E-38
7.07347E-01 1.02296E-38
7.11309E-01 9.19736E-39
7.15256E-01 8.26908E-39
7.19186E-01 7.42462E-39
7.23099E-01 6.62152E-39
7.26995E-01 5.94101E-39
7.30874E-01 5.30905E-39
7.34736E-01 4.74848E-39
7.38579E-01 4.22413E-39
7.42405E-01 3.75300E-39
7.46212E-01 3.33982E-39
7.50000E-01 2.96288E-39
7.53769E-01 2.62939E-39
7.57519E-01 2.32948E-39
7.61249E-01 2.04295E-39
7.64960E-01 1.80939E-39
7.68650E-01 1.58941E-39
7.72320E-01 1.39172E-39
7.75968E-01 1.21933E-39
7.79596E-01 1.06732E-39
7.83203E-01 9.20907E-40
7.86788E-01 8.02397E-40
7.90351E-01 6.97756E-40
7.93893E-01 6.03588E-40
7.97411E-01 5.18592E-40
8.00908E-01 4.43751E-40
8.04381E-01 3.80435E-40
8.07831E-01 3.21601E-40
8.11257E-01 2.73704E-40
8.14660E-01 2.30084E-40
8.18039E-01 1.94409E-40
8.21394E-01 1.59442E-40
8.24724E-01 1.33542E-40
8.28030E-01 1.08158E-40
8.31310E-01 8.89112E-41
8.34565E-01 7.12905E-41
8.37795E-01 5.83981E-41
8.40999E-01 4.51594E-41
8.44177E-01 3.60128E-41
8.47329E-01 2.76174E-41
8.50455E-01 2.09903E-41
8.53553E-01 1.50412E-41
8.56625E-01 1.12081E-41
8.59670E-01 1.00000E-45
8.62687E-01 1.00000E-45
8.65677E-01 1.00000E-45
8.68639E-01 1.00000E-45
8.71572E-01 1.00000E-45
8.74478E-01 1.00000E-45
8.77355E-01 1.00000E-45
8.80203E-01 1.00000E-45
8.83022E-01 1.00000E-45
8.85812E-01 1.00000E-45
8.88573E-01 1.00000E-45
8.91304E-01 1.00000E-45
8.94005E-01 1.00000E-45
8.96677E-01 1.00000E-45
8.99318E-01 1.00000E-45
9.01928E-01 1.00000E-45
9.04508E-01 1.00000E-45
9.07058E-01 1.00000E-45
9.09576E-01 1.00000E-45
9.12063E-01 1.00000E-45
9.14519E-01 1.00000E-45
9.16943E-01 1.00000E-45
9.19335E-01 1.00000E-45
9.21696E-01 1.00000E-45
9.24024E-01 1.00000E-45
9.26320E-01 1.00000E-45
9.28584E-01 1.00000E-45
9.30815E-01 1.00000E-45
9.33013E-01 1.00000E-45
9.35178E-01 1.00000E-45
9.37310E-01 1.00000E-45
9.39409E-01 1.00000E-45
9.41474E-01 1.00000E-45
9.43505E-01 1.00000E-45
9.45503E-01 1.00000E-45
9.47467E-01 1.00000E-45
9.49397E-01 1.00000E-45
9.51293E-01 1.00000E-45
9.53154E-01 1.00000E-45
9.54981E-01 1.00000E-45
9.56773E-01 1.00000E-45
9.58530E-01 1.00000E-45
9.60252E-01 1.00000E-45
9.61940E-01 1.00000E-45
9.63592E-01 1.00000E-45
9.65209E-01 1.00000E-45
9.66790E-01 1.00000E-45
9.68336E-01 1.00000E-45
9.69846E-01 1.00000E-45
9.71321E-01 1.00000E-45
9.72759E-01 1.00000E-45
9.74162E-01 1.00000E-45
9.75528E-01 1.00000E-45
9.76858E-01 1.00000E-45
9.78152E-01 1.00000E-45
9.79410E-01 1.00000E-45
9.80631E-01 1.00000E-45
9.81815E-01 1.00000E-45
9.82963E-01 1.00000E-45
9.84074E-01 1.00000E-45
9.85148E-01 1.00000E-45
9.86185E-01 1.00000E-45
9.87185E-01 1.00000E-45
9.88148E-01 1.00000E-45
9.89074E-01 1.00000E-45
9.89962E-01 1.00000E-45
9.90814E-01 1.00000E-45
9.91627E-01 1.00000E-45
9.92404E-01 1.00000E-45
9.93143E-01 1.00000E-45
9.93844E-01 1.00000E-45
9.94508E-01 1.00000E-45
9.95134E-01 1.00000E-45
9.95722E-01 1.00000E-45
9.96273E-01 1.00000E-45
9.96786E-01 1.00000E-45
9.97261E-01 1.00000E-45
9.97698E-01 1.00000E-45
9.98097E-01 1.00000E-45
9.98459E-01 1.00000E-45
9.98782E-01 1.00000E-45
9.99067E-01 1.00000E-45
9.99315E-01 1.00000E-45
9.99524E-01 1.00000E-45
9.99695E-01 1.00000E-45
9.99829E-01 1.00000E-45
9.99924E-01 1.00000E-45
9.99981E-01 1.00000E-45
1.00000E+00 1.00000E-45
