 #
 # Subroutine ELSEPA. Elastic scattering of electrons and positrons
 #                    by neutral atoms and positive ions
 #
 # Projectile: positron
 # Kinetic energy = 9.00000E+06 eV = 3.30744E+05 a.u.
 #
 # WARNING: High-energy factorization with free-atom DF screening.
 #          Absorption, polarization and exchange corrections are
 #          switched off.
 #          Phase shifts are calculated for the bare nucleus.
 #          Scattering amplitudes are not evaluated.
 #
 # Element: Be,  Z =   4,  atomic weight = 9.01220E+00 g/mol
 #
 # Nuclear model: Fermi distribution
 #                Average radius = 2.22669E-13 cm
 #                Skin thickness = 5.46000E-14 cm
 #
 # Number of electrons =  4
 #
 # Total elastic cross section = 1.70579E-19 cm**2 = 6.09150E-03 a0**2
 # 1st transport cross section = 3.14121E-25 cm**2 = 1.12175E-08 a0**2
 # 2nd transport cross section = 9.08735E-25 cm**2 = 3.24515E-08 a0**2
 #
 #
 # Differential cross section:                       MU=(1-COS(THETA))/2
 #
 #  THETA        MU          DCS          DCS        Sherman      error
 #  (deg)                 (cm**2/sr)   (a0**2/sr)    function
 #----------------------------------------------------------------------
0.00000E+00 3.23001E-13
7.61557E-13 3.22991E-13
1.18994E-12 3.22986E-13
1.71346E-12 3.22979E-13
2.33225E-12 3.22971E-13
3.04617E-12 3.22961E-13
3.85530E-12 3.22951E-13
4.75964E-12 3.22939E-13
5.75917E-12 3.22926E-13
6.85391E-12 3.22911E-13
8.04379E-12 3.22896E-13
9.32893E-12 3.22879E-13
1.07092E-11 3.22861E-13
1.21847E-11 3.22841E-13
1.37554E-11 3.22821E-13
1.54213E-11 3.22799E-13
1.71823E-11 3.22776E-13
1.90386E-11 3.22751E-13
2.09900E-11 3.22726E-13
2.30367E-11 3.22699E-13
2.51785E-11 3.22671E-13
2.74156E-11 3.22642E-13
2.97478E-11 3.22611E-13
3.21752E-11 3.22579E-13
3.46979E-11 3.22546E-13
3.73157E-11 3.22512E-13
4.00286E-11 3.22476E-13
4.28368E-11 3.22440E-13
4.57402E-11 3.22402E-13
4.87388E-11 3.22363E-13
5.18325E-11 3.22322E-13
5.50215E-11 3.22280E-13
5.83057E-11 3.22238E-13
6.16850E-11 3.22193E-13
6.51595E-11 3.22148E-13
6.87293E-11 3.22101E-13
7.23943E-11 3.22053E-13
7.61544E-11 3.22004E-13
1.18991E-10 3.21446E-13
1.71347E-10 3.20765E-13
2.33223E-10 3.19963E-13
3.04617E-10 3.19041E-13
3.85531E-10 3.18001E-13
4.75965E-10 3.16842E-13
5.75917E-10 3.15569E-13
6.85389E-10 3.14183E-13
8.04380E-10 3.12685E-13
9.32891E-10 3.11077E-13
1.07092E-09 3.09364E-13
1.21847E-09 3.07545E-13
1.37554E-09 3.05625E-13
1.54213E-09 3.03607E-13
1.71823E-09 3.01490E-13
1.90386E-09 2.99281E-13
2.09900E-09 2.96984E-13
2.30367E-09 2.94596E-13
2.51785E-09 2.92126E-13
2.74156E-09 2.89578E-13
2.97478E-09 2.86949E-13
3.21752E-09 2.84248E-13
3.46978E-09 2.81479E-13
3.73156E-09 2.78638E-13
4.00286E-09 2.75736E-13
4.28368E-09 2.72778E-13
4.57402E-09 2.69758E-13
4.87388E-09 2.66688E-13
5.18326E-09 2.63572E-13
5.50215E-09 2.60405E-13
5.83057E-09 2.57199E-13
6.16850E-09 2.53958E-13
6.51596E-09 2.50676E-13
6.87293E-09 2.47364E-13
7.23942E-09 2.44029E-13
7.61544E-09 2.40663E-13
1.18991E-08 2.06372E-13
1.71347E-08 1.72780E-13
2.33223E-08 1.41636E-13
3.04617E-08 1.14708E-13
3.85531E-08 9.20961E-14
4.75965E-08 7.32892E-14
5.75917E-08 5.82558E-14
6.85389E-08 4.63159E-14
8.04380E-08 3.68951E-14
9.32891E-08 2.95282E-14
1.07092E-07 2.37532E-14
1.21847E-07 1.92531E-14
1.37554E-07 1.57155E-14
1.54213E-07 1.29186E-14
1.71823E-07 1.07187E-14
1.90386E-07 8.95962E-15
2.09900E-07 7.54350E-15
2.30367E-07 6.40793E-15
2.51785E-07 5.48056E-15
2.74156E-07 4.71823E-15
2.97478E-07 4.09291E-15
3.21752E-07 3.57136E-15
3.46978E-07 3.13374E-15
3.73156E-07 2.76663E-15
4.00286E-07 2.45391E-15
4.28368E-07 2.18626E-15
4.57402E-07 1.95802E-15
4.87388E-07 1.76072E-15
5.18325E-07 1.58937E-15
5.50215E-07 1.44005E-15
5.83057E-07 1.30895E-15
6.16850E-07 1.19341E-15
6.51596E-07 1.09108E-15
6.87293E-07 1.00009E-15
7.23942E-07 9.18959E-16
7.61543E-07 8.46228E-16
1.18991E-06 4.09872E-16
1.71347E-06 2.24160E-16
2.33223E-06 1.32367E-16
3.04617E-06 8.27955E-17
3.85531E-06 5.41629E-17
4.75964E-06 3.67189E-17
5.75916E-06 2.56915E-17
6.85388E-06 1.84668E-17
8.04378E-06 1.35826E-17
9.32888E-06 1.01986E-17
1.07092E-05 7.79803E-18
1.21846E-05 6.05838E-18
1.37553E-05 4.77524E-18
1.54212E-05 3.81282E-18
1.71822E-05 3.07982E-18
1.90385E-05 2.51414E-18
2.09899E-05 2.07415E-18
2.30365E-05 1.72362E-18
2.51783E-05 1.44373E-18
2.74153E-05 1.21841E-18
2.97475E-05 1.03552E-18
3.21749E-05 8.85875E-19
3.46974E-05 7.62416E-19
3.73152E-05 6.59734E-19
4.00281E-05 5.73703E-19
4.28362E-05 5.01154E-19
4.57395E-05 4.39629E-19
4.87380E-05 3.87208E-19
5.18317E-05 3.42358E-19
5.50205E-05 3.03832E-19
5.83045E-05 2.70602E-19
6.16838E-05 2.41818E-19
6.51582E-05 2.16773E-19
6.87277E-05 1.94879E-19
7.23925E-05 1.75669E-19
7.61524E-05 1.58755E-19
9.21439E-05 1.08403E-19
1.09658E-04 7.65624E-20
1.28695E-04 5.55812E-20
1.49255E-04 4.13224E-20
1.71338E-04 3.13590E-20
1.94942E-04 2.42204E-20
2.20070E-04 1.90063E-20
2.46720E-04 1.51198E-20
2.74892E-04 1.21791E-20
3.04586E-04 9.91943E-21
3.35803E-04 8.15992E-21
3.68542E-04 6.77433E-21
4.02802E-04 5.67012E-21
4.38585E-04 4.78238E-21
4.75889E-04 4.06152E-21
5.14715E-04 3.47153E-21
5.55063E-04 2.98493E-21
5.96931E-04 2.58053E-21
6.40321E-04 2.24247E-21
6.85233E-04 1.95789E-21
7.31665E-04 1.71710E-21
7.79618E-04 1.51219E-21
8.29092E-04 1.33693E-21
8.80086E-04 1.18636E-21
9.32601E-04 1.05637E-21
9.86636E-04 9.43725E-22
1.04219E-03 8.45682E-22
1.09927E-03 7.60046E-22
1.15786E-03 6.84984E-22
1.21797E-03 6.18948E-22
1.27961E-03 5.60692E-22
1.34276E-03 5.09118E-22
1.40743E-03 4.63344E-22
1.47362E-03 4.22597E-22
1.54133E-03 3.86228E-22
1.61056E-03 3.53692E-22
1.68131E-03 3.24504E-22
1.75357E-03 2.98269E-22
1.82735E-03 2.74628E-22
1.90265E-03 2.53284E-22
1.97947E-03 2.33973E-22
2.05780E-03 2.16465E-22
2.13765E-03 2.00566E-22
2.21902E-03 1.86098E-22
2.30190E-03 1.72912E-22
2.38630E-03 1.60872E-22
2.47222E-03 1.49861E-22
2.55965E-03 1.39776E-22
2.64859E-03 1.30524E-22
2.73905E-03 1.22026E-22
2.83103E-03 1.14207E-22
2.92452E-03 1.07004E-22
3.01952E-03 1.00360E-22
3.11604E-03 9.42232E-23
3.21407E-03 8.85484E-23
3.31362E-03 8.32937E-23
3.41468E-03 7.84231E-23
3.51725E-03 7.39030E-23
3.62133E-03 6.97035E-23
3.72692E-03 6.57982E-23
3.83403E-03 6.21621E-23
3.94265E-03 5.87738E-23
4.05278E-03 5.56129E-23
4.16442E-03 5.26615E-23
4.27757E-03 4.99032E-23
4.39223E-03 4.73229E-23
4.50840E-03 4.49072E-23
4.62608E-03 4.26435E-23
4.74527E-03 4.05205E-23
4.86597E-03 3.85280E-23
4.98817E-03 3.66562E-23
5.11188E-03 3.48967E-23
5.23711E-03 3.32413E-23
5.36383E-03 3.16830E-23
5.49207E-03 3.02147E-23
5.62181E-03 2.88304E-23
5.75306E-03 2.75245E-23
5.88581E-03 2.62915E-23
6.02007E-03 2.51268E-23
6.15583E-03 2.40257E-23
6.29310E-03 2.29843E-23
6.43187E-03 2.19986E-23
6.57214E-03 2.10652E-23
6.71392E-03 2.01807E-23
6.85720E-03 1.93420E-23
7.00198E-03 1.85464E-23
7.14827E-03 1.77913E-23
7.29605E-03 1.70741E-23
7.44534E-03 1.63927E-23
7.59612E-03 1.57449E-23
7.97965E-03 1.42598E-23
8.37255E-03 1.29456E-23
8.77480E-03 1.17791E-23
9.18641E-03 1.07409E-23
9.60736E-03 9.81450E-24
1.00376E-02 8.98569E-24
1.04773E-02 8.24241E-24
1.09262E-02 7.57431E-24
1.13844E-02 6.97243E-24
1.18520E-02 6.42907E-24
1.23288E-02 5.93753E-24
1.28150E-02 5.49199E-24
1.33104E-02 5.08740E-24
1.38150E-02 4.71931E-24
1.43290E-02 4.38386E-24
1.48521E-02 4.07763E-24
1.53845E-02 3.79762E-24
1.59262E-02 3.54118E-24
1.64770E-02 3.30598E-24
1.70371E-02 3.08995E-24
1.76063E-02 2.89123E-24
1.81848E-02 2.70820E-24
1.87724E-02 2.53938E-24
1.93692E-02 2.38349E-24
1.99751E-02 2.23934E-24
2.05901E-02 2.10590E-24
2.12143E-02 1.98223E-24
2.18476E-02 1.86747E-24
2.24900E-02 1.76088E-24
2.31415E-02 1.66176E-24
2.38021E-02 1.56950E-24
2.44717E-02 1.48353E-24
2.51504E-02 1.40335E-24
2.58382E-02 1.32850E-24
2.65349E-02 1.25855E-24
2.72407E-02 1.19313E-24
2.79555E-02 1.13189E-24
2.86793E-02 1.07452E-24
2.94120E-02 1.02072E-24
3.01537E-02 9.70239E-25
3.09043E-02 9.22825E-25
3.16639E-02 8.78260E-25
3.24324E-02 8.36343E-25
3.32098E-02 7.96886E-25
3.39961E-02 7.59719E-25
3.47912E-02 7.24684E-25
3.55952E-02 6.91637E-25
3.64081E-02 6.60444E-25
3.72297E-02 6.30982E-25
3.80602E-02 6.03136E-25
3.88995E-02 5.76803E-25
3.97476E-02 5.51884E-25
4.06044E-02 5.28289E-25
4.14700E-02 5.05936E-25
4.23443E-02 4.84746E-25
4.32273E-02 4.64649E-25
4.41190E-02 4.45576E-25
4.50194E-02 4.27467E-25
4.59284E-02 4.10263E-25
4.68461E-02 3.93911E-25
4.87074E-02 3.63566E-25
5.06030E-02 3.36071E-25
5.25328E-02 3.11111E-25
5.44967E-02 2.88412E-25
5.64946E-02 2.67732E-25
5.85262E-02 2.48861E-25
6.05914E-02 2.31612E-25
6.26901E-02 2.15821E-25
6.48222E-02 2.01344E-25
6.69873E-02 1.88051E-25
6.91854E-02 1.75828E-25
7.14163E-02 1.64575E-25
7.36799E-02 1.54200E-25
7.59760E-02 1.44623E-25
7.83043E-02 1.35771E-25
8.06647E-02 1.27580E-25
8.30571E-02 1.19991E-25
8.54812E-02 1.12953E-25
8.79369E-02 1.06418E-25
9.04240E-02 1.00345E-25
9.29422E-02 9.46931E-26
9.54915E-02 8.94296E-26
9.80716E-02 8.45227E-26
1.00682E-01 7.99437E-26
1.03323E-01 7.56669E-26
1.05995E-01 7.16688E-26
1.08696E-01 6.79279E-26
1.11427E-01 6.44247E-26
1.14188E-01 6.11414E-26
1.16978E-01 5.80617E-26
1.19797E-01 5.51707E-26
1.22645E-01 5.24548E-26
1.25522E-01 4.99015E-26
1.28428E-01 4.74993E-26
1.31361E-01 4.52376E-26
1.34323E-01 4.31067E-26
1.37313E-01 4.10977E-26
1.40330E-01 3.92025E-26
1.43375E-01 3.74133E-26
1.46447E-01 3.57231E-26
1.49545E-01 3.41256E-26
1.52671E-01 3.26147E-26
1.55823E-01 3.11849E-26
1.59001E-01 2.98311E-26
1.62205E-01 2.85484E-26
1.65435E-01 2.73325E-26
1.68690E-01 2.61792E-26
1.71970E-01 2.50849E-26
1.75276E-01 2.40458E-26
1.78606E-01 2.30588E-26
1.81961E-01 2.21207E-26
1.85340E-01 2.12286E-26
1.88743E-01 2.03800E-26
1.92169E-01 1.95723E-26
1.95619E-01 1.88032E-26
1.99092E-01 1.80706E-26
2.02589E-01 1.73723E-26
2.06107E-01 1.67065E-26
2.09649E-01 1.60714E-26
2.13212E-01 1.54653E-26
2.16797E-01 1.48867E-26
2.20404E-01 1.43341E-26
2.24032E-01 1.38061E-26
2.27680E-01 1.33014E-26
2.31350E-01 1.28189E-26
2.35040E-01 1.23573E-26
2.38751E-01 1.19157E-26
2.42481E-01 1.14929E-26
2.46231E-01 1.10881E-26
2.50000E-01 1.07003E-26
2.53788E-01 1.03286E-26
2.57595E-01 9.97244E-27
2.61421E-01 9.63088E-27
2.65264E-01 9.30326E-27
2.69126E-01 8.98891E-27
2.73005E-01 8.68720E-27
2.76901E-01 8.39752E-27
2.80814E-01 8.11932E-27
2.84744E-01 7.85205E-27
2.88691E-01 7.59522E-27
2.92653E-01 7.34834E-27
2.96632E-01 7.11096E-27
3.00625E-01 6.88265E-27
3.04634E-01 6.66301E-27
3.08658E-01 6.45163E-27
3.12697E-01 6.24817E-27
3.16749E-01 6.05227E-27
3.20816E-01 5.86361E-27
3.24896E-01 5.68186E-27
3.28990E-01 5.50673E-27
3.33097E-01 5.33793E-27
3.37216E-01 5.17520E-27
3.41348E-01 5.01829E-27
3.45492E-01 4.86694E-27
3.49647E-01 4.72093E-27
3.53814E-01 4.58003E-27
3.57992E-01 4.44404E-27
3.62181E-01 4.31276E-27
3.66381E-01 4.18598E-27
3.70590E-01 4.06354E-27
3.74810E-01 3.94526E-27
3.79039E-01 3.83097E-27
3.83277E-01 3.72051E-27
3.87524E-01 3.61374E-27
3.91780E-01 3.51051E-27
3.96044E-01 3.41068E-27
4.00316E-01 3.31412E-27
4.04596E-01 3.22071E-27
4.08882E-01 3.13032E-27
4.13176E-01 3.04285E-27
4.17476E-01 2.95818E-27
4.21783E-01 2.87620E-27
4.26095E-01 2.79682E-27
4.30413E-01 2.71994E-27
4.34737E-01 2.64547E-27
4.39065E-01 2.57332E-27
4.43398E-01 2.50340E-27
4.47736E-01 2.43564E-27
4.52077E-01 2.36995E-27
4.56422E-01 2.30627E-27
4.60770E-01 2.24452E-27
4.65122E-01 2.18464E-27
4.69476E-01 2.12655E-27
4.73832E-01 2.07019E-27
4.78190E-01 2.01551E-27
4.82550E-01 1.96245E-27
4.86912E-01 1.91095E-27
4.91274E-01 1.86096E-27
4.95637E-01 1.81242E-27
5.00000E-01 1.76529E-27
5.04363E-01 1.71952E-27
5.08726E-01 1.67506E-27
5.13088E-01 1.63187E-27
5.17450E-01 1.58991E-27
5.21810E-01 1.54914E-27
5.26168E-01 1.50951E-27
5.30524E-01 1.47100E-27
5.34878E-01 1.43356E-27
5.39230E-01 1.39716E-27
5.43578E-01 1.36177E-27
5.47923E-01 1.32735E-27
5.52264E-01 1.29388E-27
5.56602E-01 1.26132E-27
5.60935E-01 1.22964E-27
5.65263E-01 1.19882E-27
5.69587E-01 1.16883E-27
5.73905E-01 1.13964E-27
5.78217E-01 1.11124E-27
5.82524E-01 1.08359E-27
5.86824E-01 1.05667E-27
5.91118E-01 1.03046E-27
5.95404E-01 1.00494E-27
5.99684E-01 9.80085E-28
6.03956E-01 9.55878E-28
6.08220E-01 9.32300E-28
6.12476E-01 9.09332E-28
6.16723E-01 8.86954E-28
6.20961E-01 8.65150E-28
6.25190E-01 8.43903E-28
6.29410E-01 8.23197E-28
6.33619E-01 8.03016E-28
6.37819E-01 7.83344E-28
6.42008E-01 7.64167E-28
6.46186E-01 7.45471E-28
6.50353E-01 7.27242E-28
6.54508E-01 7.09467E-28
6.58652E-01 6.92132E-28
6.62784E-01 6.75226E-28
6.66903E-01 6.58736E-28
6.71010E-01 6.42651E-28
6.75104E-01 6.26960E-28
6.79184E-01 6.11651E-28
6.83251E-01 5.96713E-28
6.87303E-01 5.82138E-28
6.91342E-01 5.67915E-28
6.95366E-01 5.54033E-28
6.99375E-01 5.40485E-28
7.03368E-01 5.27261E-28
7.07347E-01 5.14352E-28
7.11309E-01 5.01749E-28
7.15256E-01 4.89446E-28
7.19186E-01 4.77433E-28
7.23099E-01 4.65703E-28
7.26995E-01 4.54249E-28
7.30874E-01 4.43064E-28
7.34736E-01 4.32140E-28
7.38579E-01 4.21470E-28
7.42405E-01 4.11048E-28
7.46212E-01 4.00868E-28
7.50000E-01 3.90923E-28
7.53769E-01 3.81208E-28
7.57519E-01 3.71717E-28
7.61249E-01 3.62443E-28
7.64960E-01 3.53382E-28
7.68650E-01 3.44528E-28
7.72320E-01 3.35876E-28
7.75968E-01 3.27420E-28
7.79596E-01 3.19157E-28
7.83203E-01 3.11081E-28
7.86788E-01 3.03188E-28
7.90351E-01 2.95474E-28
7.93893E-01 2.87933E-28
7.97411E-01 2.80562E-28
8.00908E-01 2.73356E-28
8.04381E-01 2.66312E-28
8.07831E-01 2.59426E-28
8.11257E-01 2.52694E-28
8.14660E-01 2.46113E-28
8.18039E-01 2.39678E-28
8.21394E-01 2.33387E-28
8.24724E-01 2.27236E-28
8.28030E-01 2.21222E-28
8.31310E-01 2.15341E-28
8.34565E-01 2.09591E-28
8.37795E-01 2.03969E-28
8.40999E-01 1.98471E-28
8.44177E-01 1.93096E-28
8.47329E-01 1.87839E-28
8.50455E-01 1.82699E-28
8.53553E-01 1.77673E-28
8.56625E-01 1.72758E-28
8.59670E-01 1.67952E-28
8.62687E-01 1.63253E-28
8.65677E-01 1.58658E-28
8.68639E-01 1.54165E-28
8.71572E-01 1.49771E-28
8.74478E-01 1.45476E-28
8.77355E-01 1.41276E-28
8.80203E-01 1.37169E-28
8.83022E-01 1.33154E-28
8.85812E-01 1.29228E-28
8.88573E-01 1.25390E-28
8.91304E-01 1.21639E-28
8.94005E-01 1.17971E-28
8.96677E-01 1.14386E-28
8.99318E-01 1.10882E-28
9.01928E-01 1.07456E-28
9.04508E-01 1.04109E-28
9.07058E-01 1.00838E-28
9.09576E-01 9.76406E-29
9.12063E-01 9.45170E-29
9.14519E-01 9.14649E-29
9.16943E-01 8.84832E-29
9.19335E-01 8.55705E-29
9.21696E-01 8.27256E-29
9.24024E-01 7.99469E-29
9.26320E-01 7.72335E-29
9.28584E-01 7.45841E-29
9.30815E-01 7.19975E-29
9.33013E-01 6.94726E-29
9.35178E-01 6.70083E-29
9.37310E-01 6.46036E-29
9.39409E-01 6.22571E-29
9.41474E-01 5.99683E-29
9.43505E-01 5.77359E-29
9.45503E-01 5.55591E-29
9.47467E-01 5.34367E-29
9.49397E-01 5.13681E-29
9.51293E-01 4.93523E-29
9.53154E-01 4.73884E-29
9.54981E-01 4.54757E-29
9.56773E-01 4.36133E-29
9.58530E-01 4.18005E-29
9.60252E-01 4.00363E-29
9.61940E-01 3.83203E-29
9.63592E-01 3.66516E-29
9.65209E-01 3.50296E-29
9.66790E-01 3.34534E-29
9.68336E-01 3.19229E-29
9.69846E-01 3.04367E-29
9.71321E-01 2.89948E-29
9.72759E-01 2.75964E-29
9.74162E-01 2.62410E-29
9.75528E-01 2.49279E-29
9.76858E-01 2.36566E-29
9.78152E-01 2.24268E-29
9.79410E-01 2.12377E-29
9.80631E-01 2.00890E-29
9.81815E-01 1.89802E-29
9.82963E-01 1.79110E-29
9.84074E-01 1.68807E-29
9.85148E-01 1.58891E-29
9.86185E-01 1.49356E-29
9.87185E-01 1.40201E-29
9.88148E-01 1.31421E-29
9.89074E-01 1.23011E-29
9.89962E-01 1.14970E-29
9.90814E-01 1.07294E-29
9.91627E-01 9.99793E-30
9.92404E-01 9.30249E-30
9.93143E-01 8.64259E-30
9.93844E-01 8.01804E-30
9.94508E-01 7.42871E-30
9.95134E-01 6.87421E-30
9.95722E-01 6.35438E-30
9.96273E-01 5.86900E-30
9.96786E-01 5.41799E-30
9.97261E-01 5.00103E-30
9.97698E-01 4.61807E-30
9.98097E-01 4.26881E-30
9.98459E-01 3.95334E-30
9.98782E-01 3.67133E-30
9.99067E-01 3.42275E-30
9.99315E-01 3.20746E-30
9.99524E-01 3.02555E-30
9.99695E-01 2.87679E-30
9.99829E-01 2.76112E-30
9.99924E-01 2.67853E-30
9.99981E-01 2.62906E-30
1.00000E+00 2.61267E-30
