 #
 # Subroutine ELSEPA. Elastic scattering of electrons and positrons
 #                    by neutral atoms and positive ions
 #
 # Projectile: positron
 # Kinetic energy = 7.00000E+07 eV = 2.57245E+06 a.u.
 #
 # WARNING: High-energy factorization with free-atom DF screening.
 #          Absorption, polarization and exchange corrections are
 #          switched off.
 #          Phase shifts are calculated for the bare nucleus.
 #          Scattering amplitudes are not evaluated.
 #
 # Element: Be,  Z =   4,  atomic weight = 9.01220E+00 g/mol
 #
 # Nuclear model: Fermi distribution
 #                Average radius = 2.22669E-13 cm
 #                Skin thickness = 5.46000E-14 cm
 #
 # Number of electrons =  4
 #
 # Total elastic cross section = 1.70220E-19 cm**2 = 6.07868E-03 a0**2
 # 1st transport cross section = 7.17174E-27 cm**2 = 2.56107E-10 a0**2
 # 2nd transport cross section = 2.10827E-26 cm**2 = 7.52877E-10 a0**2
 #
 #
 # Differential cross section:                       MU=(1-COS(THETA))/2
 #
 #  THETA        MU          DCS          DCS        Sherman      error
 #  (deg)                 (cm**2/sr)   (a0**2/sr)    function
 #----------------------------------------------------------------------
0.00000E+00 1.77528E-11
7.61557E-13 1.77225E-11
1.18994E-12 1.77056E-11
1.71346E-12 1.76849E-11
2.33225E-12 1.76604E-11
3.04617E-12 1.76323E-11
3.85530E-12 1.76005E-11
4.75964E-12 1.75651E-11
5.75917E-12 1.75260E-11
6.85391E-12 1.74834E-11
8.04379E-12 1.74372E-11
9.32893E-12 1.73875E-11
1.07092E-11 1.73343E-11
1.21847E-11 1.72777E-11
1.37554E-11 1.72177E-11
1.54213E-11 1.71544E-11
1.71823E-11 1.70877E-11
1.90386E-11 1.70179E-11
2.09900E-11 1.69449E-11
2.30367E-11 1.68688E-11
2.51785E-11 1.67895E-11
2.74156E-11 1.67074E-11
2.97478E-11 1.66222E-11
3.21752E-11 1.65343E-11
3.46979E-11 1.64435E-11
3.73157E-11 1.63501E-11
4.00286E-11 1.62538E-11
4.28368E-11 1.61552E-11
4.57402E-11 1.60538E-11
4.87388E-11 1.59502E-11
5.18325E-11 1.58441E-11
5.50215E-11 1.57358E-11
5.83057E-11 1.56252E-11
6.16850E-11 1.55126E-11
6.51595E-11 1.53978E-11
6.87293E-11 1.52811E-11
7.23943E-11 1.51624E-11
7.61544E-11 1.50421E-11
1.18991E-10 1.37558E-11
1.71347E-10 1.23751E-11
2.33223E-10 1.09719E-11
3.04617E-10 9.60546E-12
3.85531E-10 8.30032E-12
4.75965E-10 7.14052E-12
5.75917E-10 6.07908E-12
6.85389E-10 5.16487E-12
8.04380E-10 4.36172E-12
9.32891E-10 3.68283E-12
1.07092E-09 3.10286E-12
1.21847E-09 2.61713E-12
1.37554E-09 2.20935E-12
1.54213E-09 1.86886E-12
1.71823E-09 1.58563E-12
1.90386E-09 1.34888E-12
2.09900E-09 1.15252E-12
2.30367E-09 9.87776E-13
2.51785E-09 8.50922E-13
2.74156E-09 7.35477E-13
2.97478E-09 6.39124E-13
3.21752E-09 5.57321E-13
3.46978E-09 4.88582E-13
3.73156E-09 4.29817E-13
4.00286E-09 3.80038E-13
4.28368E-09 3.37176E-13
4.57402E-09 3.00552E-13
4.87388E-09 2.68791E-13
5.18326E-09 2.41411E-13
5.50215E-09 2.17498E-13
5.83057E-09 1.96701E-13
6.16850E-09 1.78415E-13
6.51596E-09 1.62377E-13
6.87293E-09 1.48183E-13
7.23942E-09 1.35606E-13
7.61544E-09 1.24395E-13
1.18991E-08 5.93369E-14
1.71347E-08 3.27958E-14
2.33223E-08 1.98540E-14
3.04617E-08 1.27493E-14
3.85531E-08 8.54696E-15
4.75965E-08 5.92653E-15
5.75917E-08 4.22811E-15
6.85389E-08 3.08906E-15
8.04380E-08 2.30292E-15
9.32891E-08 1.74760E-15
1.07092E-07 1.34812E-15
1.21847E-07 1.05522E-15
1.37554E-07 8.36779E-16
1.54213E-07 6.71338E-16
1.71823E-07 5.44504E-16
1.90386E-07 4.46016E-16
2.09900E-07 3.68654E-16
2.30367E-07 3.07217E-16
2.51785E-07 2.57991E-16
2.74156E-07 2.18188E-16
2.97478E-07 1.85737E-16
3.21752E-07 1.59066E-16
3.46978E-07 1.36997E-16
3.73156E-07 1.18613E-16
4.00286E-07 1.03201E-16
4.28368E-07 9.02042E-17
4.57402E-07 7.91847E-17
4.87388E-07 6.97938E-17
5.18325E-07 6.17513E-17
5.50215E-07 5.48323E-17
5.83057E-07 4.88535E-17
6.16850E-07 4.36667E-17
6.51596E-07 3.91490E-17
6.87293E-07 3.52001E-17
7.23942E-07 3.17359E-17
7.61543E-07 2.86871E-17
1.18991E-06 1.17683E-17
1.71347E-06 5.67721E-18
2.33223E-06 3.06502E-18
3.04617E-06 1.79688E-18
3.85531E-06 1.12187E-18
4.75964E-06 7.36094E-19
5.75916E-06 5.02778E-19
6.85388E-06 3.55002E-19
8.04378E-06 2.57743E-19
9.32888E-06 1.91624E-19
1.07092E-05 1.45411E-19
1.21846E-05 1.12326E-19
1.37553E-05 8.81379E-20
1.54212E-05 7.01237E-20
1.71822E-05 5.64854E-20
1.90385E-05 4.60072E-20
2.09899E-05 3.78498E-20
2.30365E-05 3.14384E-20
2.51783E-05 2.63010E-20
2.74153E-05 2.21736E-20
2.97475E-05 1.88297E-20
3.21749E-05 1.60975E-20
3.46974E-05 1.38462E-20
3.73152E-05 1.19758E-20
4.00281E-05 1.04099E-20
4.28362E-05 9.09030E-21
4.57395E-05 7.97187E-21
4.87380E-05 7.01942E-21
5.18317E-05 6.20490E-21
5.50205E-05 5.50554E-21
5.83045E-05 4.90257E-21
6.16838E-05 4.38045E-21
6.51582E-05 3.92630E-21
6.87277E-05 3.52954E-21
7.23925E-05 3.18146E-21
7.61524E-05 2.87476E-21
9.21439E-05 1.96257E-21
1.09658E-04 1.38592E-21
1.28695E-04 1.00599E-21
1.49255E-04 7.47837E-22
1.71338E-04 5.67474E-22
1.94942E-04 4.38257E-22
2.20070E-04 3.43888E-22
2.46720E-04 2.73549E-22
2.74892E-04 2.20332E-22
3.04586E-04 1.79441E-22
3.35803E-04 1.47603E-22
3.68542E-04 1.22533E-22
4.02802E-04 1.02554E-22
4.38585E-04 8.64933E-23
4.75889E-04 7.34518E-23
5.14715E-04 6.27785E-23
5.55063E-04 5.39759E-23
5.96931E-04 4.66607E-23
6.40321E-04 4.05456E-23
6.85233E-04 3.53981E-23
7.31665E-04 3.10428E-23
7.79618E-04 2.73367E-23
8.29092E-04 2.41669E-23
8.80086E-04 2.14440E-23
9.32601E-04 1.90931E-23
9.86636E-04 1.70560E-23
1.04219E-03 1.52831E-23
1.09927E-03 1.37345E-23
1.15786E-03 1.23773E-23
1.21797E-03 1.11832E-23
1.27961E-03 1.01299E-23
1.34276E-03 9.19749E-24
1.40743E-03 8.36993E-24
1.47362E-03 7.63329E-24
1.54133E-03 6.97582E-24
1.61056E-03 6.38767E-24
1.68131E-03 5.86006E-24
1.75357E-03 5.38585E-24
1.82735E-03 4.95856E-24
1.90265E-03 4.57278E-24
1.97947E-03 4.22378E-24
2.05780E-03 3.90737E-24
2.13765E-03 3.62006E-24
2.21902E-03 3.35861E-24
2.30190E-03 3.12033E-24
2.38630E-03 2.90279E-24
2.47222E-03 2.70384E-24
2.55965E-03 2.52164E-24
2.64859E-03 2.35450E-24
2.73905E-03 2.20097E-24
2.83103E-03 2.05973E-24
2.92452E-03 1.92962E-24
3.01952E-03 1.80962E-24
3.11604E-03 1.69878E-24
3.21407E-03 1.59629E-24
3.31362E-03 1.50139E-24
3.41468E-03 1.41344E-24
3.51725E-03 1.33182E-24
3.62133E-03 1.25599E-24
3.72692E-03 1.18548E-24
3.83403E-03 1.11983E-24
3.94265E-03 1.05866E-24
4.05278E-03 1.00160E-24
4.16442E-03 9.48330E-25
4.27757E-03 8.98546E-25
4.39223E-03 8.51975E-25
4.50840E-03 8.08380E-25
4.62608E-03 7.67528E-25
4.74527E-03 7.29221E-25
4.86597E-03 6.93268E-25
4.98817E-03 6.59497E-25
5.11188E-03 6.27754E-25
5.23711E-03 5.97892E-25
5.36383E-03 5.69781E-25
5.49207E-03 5.43298E-25
5.62181E-03 5.18331E-25
5.75306E-03 4.94779E-25
5.88581E-03 4.72545E-25
6.02007E-03 4.51544E-25
6.15583E-03 4.31691E-25
6.29310E-03 4.12915E-25
6.43187E-03 3.95146E-25
6.57214E-03 3.78319E-25
6.71392E-03 3.62376E-25
6.85720E-03 3.47261E-25
7.00198E-03 3.32923E-25
7.14827E-03 3.19315E-25
7.29605E-03 3.06393E-25
7.44534E-03 2.94116E-25
7.59612E-03 2.82445E-25
7.97965E-03 2.55695E-25
8.37255E-03 2.32027E-25
8.77480E-03 2.11024E-25
9.18641E-03 1.92337E-25
9.60736E-03 1.75664E-25
1.00376E-02 1.60752E-25
1.04773E-02 1.47382E-25
1.09262E-02 1.35367E-25
1.13844E-02 1.24547E-25
1.18520E-02 1.14780E-25
1.23288E-02 1.05948E-25
1.28150E-02 9.79445E-26
1.33104E-02 9.06785E-26
1.38150E-02 8.40700E-26
1.43290E-02 7.80491E-26
1.48521E-02 7.25544E-26
1.53845E-02 6.75317E-26
1.59262E-02 6.29333E-26
1.64770E-02 5.87170E-26
1.70371E-02 5.48454E-26
1.76063E-02 5.12855E-26
1.81848E-02 4.80075E-26
1.87724E-02 4.49853E-26
1.93692E-02 4.21953E-26
1.99751E-02 3.96164E-26
2.05901E-02 3.72299E-26
2.12143E-02 3.50189E-26
2.18476E-02 3.29681E-26
2.24900E-02 3.10639E-26
2.31415E-02 2.92938E-26
2.38021E-02 2.76468E-26
2.44717E-02 2.61128E-26
2.51504E-02 2.46826E-26
2.58382E-02 2.33480E-26
2.65349E-02 2.21014E-26
2.72407E-02 2.09359E-26
2.79555E-02 1.98454E-26
2.86793E-02 1.88241E-26
2.94120E-02 1.78669E-26
3.01537E-02 1.69690E-26
3.09043E-02 1.61261E-26
3.16639E-02 1.53343E-26
3.24324E-02 1.45898E-26
3.32098E-02 1.38893E-26
3.39961E-02 1.32297E-26
3.47912E-02 1.26084E-26
3.55952E-02 1.20225E-26
3.64081E-02 1.14698E-26
3.72297E-02 1.09479E-26
3.80602E-02 1.04550E-26
3.88995E-02 9.98909E-27
3.97476E-02 9.54841E-27
4.06044E-02 9.13136E-27
4.14700E-02 8.73646E-27
4.23443E-02 8.36231E-27
4.32273E-02 8.00763E-27
4.41190E-02 7.67122E-27
4.50194E-02 7.35197E-27
4.59284E-02 7.04885E-27
4.68461E-02 6.76090E-27
4.87074E-02 6.22699E-27
5.06030E-02 5.74377E-27
5.25328E-02 5.30561E-27
5.44967E-02 4.90762E-27
5.64946E-02 4.54547E-27
5.85262E-02 4.21540E-27
6.05914E-02 3.91409E-27
6.26901E-02 3.63861E-27
6.48222E-02 3.38637E-27
6.69873E-02 3.15507E-27
6.91854E-02 2.94269E-27
7.14163E-02 2.74742E-27
7.36799E-02 2.56765E-27
7.59760E-02 2.40194E-27
7.83043E-02 2.24900E-27
8.06647E-02 2.10769E-27
8.30571E-02 1.97698E-27
8.54812E-02 1.85593E-27
8.79369E-02 1.74371E-27
9.04240E-02 1.63957E-27
9.29422E-02 1.54283E-27
9.54915E-02 1.45288E-27
9.80716E-02 1.36917E-27
1.00682E-01 1.29118E-27
1.03323E-01 1.21846E-27
1.05995E-01 1.15060E-27
1.08696E-01 1.08722E-27
1.11427E-01 1.02797E-27
1.14188E-01 9.72539E-28
1.16978E-01 9.20644E-28
1.19797E-01 8.72020E-28
1.22645E-01 8.26427E-28
1.25522E-01 7.83647E-28
1.28428E-01 7.43476E-28
1.31361E-01 7.05730E-28
1.34323E-01 6.70238E-28
1.37313E-01 6.36846E-28
1.40330E-01 6.05407E-28
1.43375E-01 5.75791E-28
1.46447E-01 5.47873E-28
1.49545E-01 5.21542E-28
1.52671E-01 4.96692E-28
1.55823E-01 4.73228E-28
1.59001E-01 4.51059E-28
1.62205E-01 4.30103E-28
1.65435E-01 4.10282E-28
1.68690E-01 3.91527E-28
1.71970E-01 3.73771E-28
1.75276E-01 3.56951E-28
1.78606E-01 3.41012E-28
1.81961E-01 3.25899E-28
1.85340E-01 3.11564E-28
1.88743E-01 2.97961E-28
1.92169E-01 2.85045E-28
1.95619E-01 2.72778E-28
1.99092E-01 2.61121E-28
2.02589E-01 2.50040E-28
2.06107E-01 2.39501E-28
2.09649E-01 2.29475E-28
2.13212E-01 2.19933E-28
2.16797E-01 2.10848E-28
2.20404E-01 2.02195E-28
2.24032E-01 1.93949E-28
2.27680E-01 1.86090E-28
2.31350E-01 1.78596E-28
2.35040E-01 1.71448E-28
2.38751E-01 1.64628E-28
2.42481E-01 1.58118E-28
2.46231E-01 1.51903E-28
2.50000E-01 1.45966E-28
2.53788E-01 1.40294E-28
2.57595E-01 1.34874E-28
2.61421E-01 1.29692E-28
2.65264E-01 1.24737E-28
2.69126E-01 1.19996E-28
2.73005E-01 1.15461E-28
2.76901E-01 1.11120E-28
2.80814E-01 1.06964E-28
2.84744E-01 1.02984E-28
2.88691E-01 9.91717E-29
2.92653E-01 9.55190E-29
2.96632E-01 9.20183E-29
3.00625E-01 8.86623E-29
3.04634E-01 8.54444E-29
3.08658E-01 8.23580E-29
3.12697E-01 7.93971E-29
3.16749E-01 7.65559E-29
3.20816E-01 7.38289E-29
3.24896E-01 7.12110E-29
3.28990E-01 6.86971E-29
3.33097E-01 6.62827E-29
3.37216E-01 6.39632E-29
3.41348E-01 6.17345E-29
3.45492E-01 5.95925E-29
3.49647E-01 5.75335E-29
3.53814E-01 5.55538E-29
3.57992E-01 5.36500E-29
3.62181E-01 5.18188E-29
3.66381E-01 5.00572E-29
3.70590E-01 4.83620E-29
3.74810E-01 4.67306E-29
3.79039E-01 4.51601E-29
3.83277E-01 4.36482E-29
3.87524E-01 4.21922E-29
3.91780E-01 4.07900E-29
3.96044E-01 3.94392E-29
4.00316E-01 3.81378E-29
4.04596E-01 3.68837E-29
4.08882E-01 3.56750E-29
4.13176E-01 3.45099E-29
4.17476E-01 3.33867E-29
4.21783E-01 3.23036E-29
4.26095E-01 3.12590E-29
4.30413E-01 3.02515E-29
4.34737E-01 2.92795E-29
4.39065E-01 2.83416E-29
4.43398E-01 2.74366E-29
4.47736E-01 2.65631E-29
4.52077E-01 2.57200E-29
4.56422E-01 2.49060E-29
4.60770E-01 2.41200E-29
4.65122E-01 2.33610E-29
4.69476E-01 2.26279E-29
4.73832E-01 2.19198E-29
4.78190E-01 2.12357E-29
4.82550E-01 2.05747E-29
4.86912E-01 1.99359E-29
4.91274E-01 1.93186E-29
4.95637E-01 1.87218E-29
5.00000E-01 1.81450E-29
5.04363E-01 1.75873E-29
5.08726E-01 1.70480E-29
5.13088E-01 1.65264E-29
5.17450E-01 1.60220E-29
5.21810E-01 1.55341E-29
5.26168E-01 1.50621E-29
5.30524E-01 1.46054E-29
5.34878E-01 1.41635E-29
5.39230E-01 1.37358E-29
5.43578E-01 1.33219E-29
5.47923E-01 1.29213E-29
5.52264E-01 1.25335E-29
5.56602E-01 1.21580E-29
5.60935E-01 1.17944E-29
5.65263E-01 1.14424E-29
5.69587E-01 1.11014E-29
5.73905E-01 1.07712E-29
5.78217E-01 1.04513E-29
5.82524E-01 1.01415E-29
5.86824E-01 9.84124E-30
5.91118E-01 9.55035E-30
5.95404E-01 9.26847E-30
5.99684E-01 8.99529E-30
6.03956E-01 8.73053E-30
6.08220E-01 8.47391E-30
6.12476E-01 8.22514E-30
6.16723E-01 7.98396E-30
6.20961E-01 7.75014E-30
6.25190E-01 7.52341E-30
6.29410E-01 7.30355E-30
6.33619E-01 7.09033E-30
6.37819E-01 6.88353E-30
6.42008E-01 6.68295E-30
6.46186E-01 6.48838E-30
6.50353E-01 6.29962E-30
6.54508E-01 6.11648E-30
6.58652E-01 5.93880E-30
6.62784E-01 5.76638E-30
6.66903E-01 5.59907E-30
6.71010E-01 5.43669E-30
6.75104E-01 5.27909E-30
6.79184E-01 5.12612E-30
6.83251E-01 4.97763E-30
6.87303E-01 4.83349E-30
6.91342E-01 4.69354E-30
6.95366E-01 4.55766E-30
6.99375E-01 4.42574E-30
7.03368E-01 4.29763E-30
7.07347E-01 4.17322E-30
7.11309E-01 4.05240E-30
7.15256E-01 3.93505E-30
7.19186E-01 3.82108E-30
7.23099E-01 3.71036E-30
7.26995E-01 3.60282E-30
7.30874E-01 3.49834E-30
7.34736E-01 3.39683E-30
7.38579E-01 3.29821E-30
7.42405E-01 3.20238E-30
7.46212E-01 3.10927E-30
7.50000E-01 3.01878E-30
7.53769E-01 2.93085E-30
7.57519E-01 2.84539E-30
7.61249E-01 2.76232E-30
7.64960E-01 2.68159E-30
7.68650E-01 2.60312E-30
7.72320E-01 2.52683E-30
7.75968E-01 2.45268E-30
7.79596E-01 2.38059E-30
7.83203E-01 2.31050E-30
7.86788E-01 2.24235E-30
7.90351E-01 2.17610E-30
7.93893E-01 2.11168E-30
7.97411E-01 2.04903E-30
8.00908E-01 1.98811E-30
8.04381E-01 1.92888E-30
8.07831E-01 1.87126E-30
8.11257E-01 1.81524E-30
8.14660E-01 1.76074E-30
8.18039E-01 1.70774E-30
8.21394E-01 1.65619E-30
8.24724E-01 1.60605E-30
8.28030E-01 1.55728E-30
8.31310E-01 1.50984E-30
8.34565E-01 1.46369E-30
8.37795E-01 1.41879E-30
8.40999E-01 1.37512E-30
8.44177E-01 1.33263E-30
8.47329E-01 1.29130E-30
8.50455E-01 1.25108E-30
8.53553E-01 1.21196E-30
8.56625E-01 1.17390E-30
8.59670E-01 1.13686E-30
8.62687E-01 1.10083E-30
8.65677E-01 1.06578E-30
8.68639E-01 1.03167E-30
8.71572E-01 9.98486E-31
8.74478E-01 9.66199E-31
8.77355E-01 9.34786E-31
8.80203E-01 9.04219E-31
8.83022E-01 8.74481E-31
8.85812E-01 8.45548E-31
8.88573E-01 8.17396E-31
8.91304E-01 7.90008E-31
8.94005E-01 7.63363E-31
8.96677E-01 7.37438E-31
8.99318E-01 7.12219E-31
9.01928E-01 6.87683E-31
9.04508E-01 6.63816E-31
9.07058E-01 6.40598E-31
9.09576E-01 6.18014E-31
9.12063E-01 5.96047E-31
9.14519E-01 5.74681E-31
9.16943E-01 5.53900E-31
9.19335E-01 5.33691E-31
9.21696E-01 5.14039E-31
9.24024E-01 4.94928E-31
9.26320E-01 4.76348E-31
9.28584E-01 4.58283E-31
9.30815E-01 4.40722E-31
9.33013E-01 4.23651E-31
9.35178E-01 4.07059E-31
9.37310E-01 3.90937E-31
9.39409E-01 3.75267E-31
9.41474E-01 3.60045E-31
9.43505E-01 3.45256E-31
9.45503E-01 3.30894E-31
9.47467E-01 3.16943E-31
9.49397E-01 3.03400E-31
9.51293E-01 2.90252E-31
9.53154E-01 2.77489E-31
9.54981E-01 2.65106E-31
9.56773E-01 2.53092E-31
9.58530E-01 2.41440E-31
9.60252E-01 2.30139E-31
9.61940E-01 2.19186E-31
9.63592E-01 2.08570E-31
9.65209E-01 1.98287E-31
9.66790E-01 1.88326E-31
9.68336E-01 1.78685E-31
9.69846E-01 1.69354E-31
9.71321E-01 1.60328E-31
9.72759E-01 1.51601E-31
9.74162E-01 1.43167E-31
9.75528E-01 1.35021E-31
9.76858E-01 1.27156E-31
9.78152E-01 1.19569E-31
9.79410E-01 1.12252E-31
9.80631E-01 1.05203E-31
9.81815E-01 9.84165E-32
9.82963E-01 9.18884E-32
9.84074E-01 8.56134E-32
9.85148E-01 7.95872E-32
9.86185E-01 7.38068E-32
9.87185E-01 6.82676E-32
9.88148E-01 6.29678E-32
9.89074E-01 5.79015E-32
9.89962E-01 5.30671E-32
9.90814E-01 4.84606E-32
9.91627E-01 4.40791E-32
9.92404E-01 3.99209E-32
9.93143E-01 3.59817E-32
9.93844E-01 3.22591E-32
9.94508E-01 2.87520E-32
9.95134E-01 2.54567E-32
9.95722E-01 2.23717E-32
9.96273E-01 1.94944E-32
9.96786E-01 1.68245E-32
9.97261E-01 1.43587E-32
9.97698E-01 1.20961E-32
9.98097E-01 1.00347E-32
9.98459E-01 8.17425E-33
9.98782E-01 6.51236E-33
9.99067E-01 5.04867E-33
9.99315E-01 3.78169E-33
9.99524E-01 2.71124E-33
9.99695E-01 1.83655E-33
9.99829E-01 1.15684E-33
9.99924E-01 6.71542E-34
9.99981E-01 3.80571E-34
1.00000E+00 2.83773E-34
