 #
 # Subroutine ELSEPA. Elastic scattering of electrons and positrons
 #                    by neutral atoms and positive ions
 #
 # Projectile: positron
 # Kinetic energy = 1.00000E+06 eV = 3.67493E+04 a.u.
 #
 # Element: Be,  Z =   4,  atomic weight = 9.01220E+00 g/mol
 #
 # Nuclear model: Fermi distribution
 #                Average radius = 2.22669E-13 cm
 #                Skin thickness = 5.46000E-14 cm
 #
 # Number of electrons =  4
 #
 # Electron density: Read from file Data/z_004.d
 #                   Number of data points =  757
 #                   Volume integral = 4.00000E+00
 #
 # LDA absorption potential (only electron-hole excitations):
 #                           Delta = 2.52270E+00 eV
 #                            Aabs = 2.00000E+00
 #
 # Total elastic cross section = 1.91890E-19 cm**2 = 6.85252E-03 a0**2
 # 1st transport cross section = 1.14907E-23 cm**2 = 4.10341E-07 a0**2
 # 2nd transport cross section = 3.25772E-23 cm**2 = 1.16335E-06 a0**2
 #
 #    Absorption cross section = 2.75481E-19 cm**2 = 9.83760E-03 a0**2
 #   Grand total cross section = 4.67846E-19 cm**2 = 1.67071E-02 a0**2
 #
 #
 # Differential cross section:                       MU=(1-COS(THETA))/2
 #
 #  THETA        MU          DCS          DCS        Sherman      error
 #  (deg)                 (cm**2/sr)   (a0**2/sr)    function
 #----------------------------------------------------------------------
0.00000E+00 8.15410E-15
7.61557E-13 8.15409E-15
1.18994E-12 8.15409E-15
1.71346E-12 8.15408E-15
2.33225E-12 8.15408E-15
3.04617E-12 8.15407E-15
3.85530E-12 8.15407E-15
4.75964E-12 8.15406E-15
5.75917E-12 8.15405E-15
6.85391E-12 8.15405E-15
8.04379E-12 8.15404E-15
9.32893E-12 8.15403E-15
1.07092E-11 8.15402E-15
1.21847E-11 8.15401E-15
1.37554E-11 8.15399E-15
1.54213E-11 8.15398E-15
1.71823E-11 8.15397E-15
1.90386E-11 8.15395E-15
2.09900E-11 8.15394E-15
2.30367E-11 8.15393E-15
2.51785E-11 8.15391E-15
2.74156E-11 8.15389E-15
2.97478E-11 8.15388E-15
3.21752E-11 8.15386E-15
3.46979E-11 8.15384E-15
3.73157E-11 8.15382E-15
4.00286E-11 8.15380E-15
4.28368E-11 8.15378E-15
4.57402E-11 8.15376E-15
4.87388E-11 8.15373E-15
5.18325E-11 8.15371E-15
5.50215E-11 8.15369E-15
5.83057E-11 8.15366E-15
6.16850E-11 8.15364E-15
6.51595E-11 8.15361E-15
6.87293E-11 8.15359E-15
7.23943E-11 8.15356E-15
7.61544E-11 8.15353E-15
1.18991E-10 8.15321E-15
1.71347E-10 8.15283E-15
2.33223E-10 8.15237E-15
3.04617E-10 8.15184E-15
3.85531E-10 8.15124E-15
4.75965E-10 8.15057E-15
5.75917E-10 8.14983E-15
6.85389E-10 8.14902E-15
8.04380E-10 8.14813E-15
9.32891E-10 8.14718E-15
1.07092E-09 8.14616E-15
1.21847E-09 8.14507E-15
1.37554E-09 8.14390E-15
1.54213E-09 8.14267E-15
1.71823E-09 8.14137E-15
1.90386E-09 8.13999E-15
2.09900E-09 8.13855E-15
2.30367E-09 8.13703E-15
2.51785E-09 8.13545E-15
2.74156E-09 8.13380E-15
2.97478E-09 8.13207E-15
3.21752E-09 8.13028E-15
3.46978E-09 8.12842E-15
3.73156E-09 8.12648E-15
4.00286E-09 8.12448E-15
4.28368E-09 8.12241E-15
4.57402E-09 8.12027E-15
4.87388E-09 8.11805E-15
5.18326E-09 8.11577E-15
5.50215E-09 8.11342E-15
5.83057E-09 8.11101E-15
6.16850E-09 8.10852E-15
6.51596E-09 8.10596E-15
6.87293E-09 8.10333E-15
7.23942E-09 8.10064E-15
7.61544E-09 8.09787E-15
1.18991E-08 8.06647E-15
1.71347E-08 8.02832E-15
2.33223E-08 7.98353E-15
3.04617E-08 7.93226E-15
3.85531E-08 7.87467E-15
4.75965E-08 7.81097E-15
5.75917E-08 7.74135E-15
6.85389E-08 7.66605E-15
8.04380E-08 7.58529E-15
9.32891E-08 7.49933E-15
1.07092E-07 7.40843E-15
1.21847E-07 7.31288E-15
1.37554E-07 7.21295E-15
1.54213E-07 7.10893E-15
1.71823E-07 7.00112E-15
1.90386E-07 6.88982E-15
2.09900E-07 6.77533E-15
2.30367E-07 6.65796E-15
2.51785E-07 6.53801E-15
2.74156E-07 6.41577E-15
2.97478E-07 6.29155E-15
3.21752E-07 6.16564E-15
3.46978E-07 6.03832E-15
3.73156E-07 5.90988E-15
4.00286E-07 5.78058E-15
4.28368E-07 5.65069E-15
4.57402E-07 5.52046E-15
4.87388E-07 5.39014E-15
5.18325E-07 5.25996E-15
5.50215E-07 5.13014E-15
5.83057E-07 5.00089E-15
6.16850E-07 4.87241E-15
6.51596E-07 4.74488E-15
6.87293E-07 4.61848E-15
7.23942E-07 4.49337E-15
7.61543E-07 4.36970E-15
1.18991E-06 3.23679E-15
1.71347E-06 2.33236E-15
2.33223E-06 1.65733E-15
3.04617E-06 1.17424E-15
3.85531E-06 8.36485E-16
4.75964E-06 6.02631E-16
5.75916E-06 4.40717E-16
6.85388E-06 3.27859E-16
8.04378E-06 2.48313E-16
9.32888E-06 1.91459E-16
1.07092E-05 1.50190E-16
1.21846E-05 1.19744E-16
1.37553E-05 9.69156E-17
1.54212E-05 7.95226E-17
1.71822E-05 6.60670E-17
1.90385E-05 5.55054E-17
2.09899E-05 4.71020E-17
2.30365E-05 4.03310E-17
2.51783E-05 3.48112E-17
2.74153E-05 3.02629E-17
2.97475E-05 2.64782E-17
3.21749E-05 2.33004E-17
3.46974E-05 2.06103E-17
3.73152E-05 1.83160E-17
4.00281E-05 1.63459E-17
4.28362E-05 1.46436E-17
4.57395E-05 1.31645E-17
4.87380E-05 1.18727E-17
5.18317E-05 1.07392E-17
5.50205E-05 9.74032E-18
5.83045E-05 8.85655E-18
6.16838E-05 8.07174E-18
6.51582E-05 7.37248E-18
6.87277E-05 6.74751E-18
7.23925E-05 6.18736E-18
7.61524E-05 5.68399E-18
9.21439E-05 4.11438E-18
1.09658E-04 3.04598E-18
1.28695E-04 2.29859E-18
1.49255E-04 1.76360E-18
1.71338E-04 1.37318E-18
1.94942E-04 1.08337E-18
2.20070E-04 8.64945E-19
2.46720E-04 6.98115E-19
2.74892E-04 5.69043E-19
3.04586E-04 4.68112E-19
3.35803E-04 3.88302E-19
3.68542E-04 3.24626E-19
4.02802E-04 2.73335E-19
4.38585E-04 2.31695E-19
4.75889E-04 1.97620E-19
5.14715E-04 1.69531E-19
5.55063E-04 1.46228E-19
5.96931E-04 1.26759E-19
6.40321E-04 1.10413E-19
6.85233E-04 9.65955E-20
7.31665E-04 8.48688E-20
7.79618E-04 7.48542E-20
8.29092E-04 6.62709E-20
8.80086E-04 5.88765E-20
9.32601E-04 5.24811E-20
9.86636E-04 4.69287E-20
1.04219E-03 4.20874E-20
1.09927E-03 3.78548E-20
1.15786E-03 3.41372E-20
1.21797E-03 3.08657E-20
1.27961E-03 2.79744E-20
1.34276E-03 2.54140E-20
1.40743E-03 2.31386E-20
1.47362E-03 2.11120E-20
1.54133E-03 1.93020E-20
1.61056E-03 1.76813E-20
1.68131E-03 1.62272E-20
1.75357E-03 1.49189E-20
1.82735E-03 1.37400E-20
1.90265E-03 1.26748E-20
1.97947E-03 1.17109E-20
2.05780E-03 1.08366E-20
2.13765E-03 1.00424E-20
2.21902E-03 9.31949E-21
2.30190E-03 8.66041E-21
2.38630E-03 8.05850E-21
2.47222E-03 7.50788E-21
2.55965E-03 7.00349E-21
2.64859E-03 6.54069E-21
2.73905E-03 6.11543E-21
2.83103E-03 5.72413E-21
2.92452E-03 5.36362E-21
3.01952E-03 5.03102E-21
3.11604E-03 4.72376E-21
3.21407E-03 4.43959E-21
3.31362E-03 4.17646E-21
3.41468E-03 3.93251E-21
3.51725E-03 3.70610E-21
3.62133E-03 3.49573E-21
3.72692E-03 3.30006E-21
3.83403E-03 3.11789E-21
3.94265E-03 2.94809E-21
4.05278E-03 2.78969E-21
4.16442E-03 2.64178E-21
4.27757E-03 2.50353E-21
4.39223E-03 2.37420E-21
4.50840E-03 2.25311E-21
4.62608E-03 2.13962E-21
4.74527E-03 2.03319E-21
4.86597E-03 1.93330E-21
4.98817E-03 1.83945E-21
5.11188E-03 1.75122E-21
5.23711E-03 1.66822E-21
5.36383E-03 1.59008E-21
5.49207E-03 1.51645E-21
5.62181E-03 1.44702E-21
5.75306E-03 1.38153E-21
5.88581E-03 1.31969E-21
6.02007E-03 1.26127E-21
6.15583E-03 1.20604E-21
6.29310E-03 1.15380E-21
6.43187E-03 1.10436E-21
6.57214E-03 1.05754E-21
6.71392E-03 1.01316E-21
6.85720E-03 9.71091E-22
7.00198E-03 9.31178E-22
7.14827E-03 8.93295E-22
7.29605E-03 8.57314E-22
7.44534E-03 8.23126E-22
7.59612E-03 7.90622E-22
7.97965E-03 7.16108E-22
8.37255E-03 6.50158E-22
8.77480E-03 5.91620E-22
9.18641E-03 5.39521E-22
9.60736E-03 4.93023E-22
1.00376E-02 4.51424E-22
1.04773E-02 4.14115E-22
1.09262E-02 3.80577E-22
1.13844E-02 3.50363E-22
1.18520E-02 3.23085E-22
1.23288E-02 2.98407E-22
1.28150E-02 2.76038E-22
1.33104E-02 2.55723E-22
1.38150E-02 2.37240E-22
1.43290E-02 2.20395E-22
1.48521E-02 2.05017E-22
1.53845E-02 1.90955E-22
1.59262E-02 1.78076E-22
1.64770E-02 1.66263E-22
1.70371E-02 1.55412E-22
1.76063E-02 1.45430E-22
1.81848E-02 1.36236E-22
1.87724E-02 1.27756E-22
1.93692E-02 1.19924E-22
1.99751E-02 1.12682E-22
2.05901E-02 1.05977E-22
2.12143E-02 9.97629E-23
2.18476E-02 9.39967E-23
2.24900E-02 8.86403E-23
2.31415E-02 8.36591E-23
2.38021E-02 7.90221E-23
2.44717E-02 7.47014E-23
2.51504E-02 7.06714E-23
2.58382E-02 6.69090E-23
2.65349E-02 6.33930E-23
2.72407E-02 6.01042E-23
2.79555E-02 5.70255E-23
2.86793E-02 5.41410E-23
2.94120E-02 5.14362E-23
3.01537E-02 4.88977E-23
3.09043E-02 4.65135E-23
3.16639E-02 4.42723E-23
3.24324E-02 4.21642E-23
3.32098E-02 4.01797E-23
3.39961E-02 3.83104E-23
3.47912E-02 3.65481E-23
3.55952E-02 3.48857E-23
3.64081E-02 3.33164E-23
3.72297E-02 3.18341E-23
3.80602E-02 3.04332E-23
3.88995E-02 2.91082E-23
3.97476E-02 2.78543E-23
4.06044E-02 2.66669E-23
4.14700E-02 2.55419E-23
4.23443E-02 2.44754E-23
4.32273E-02 2.34638E-23
4.41190E-02 2.25038E-23
4.50194E-02 2.15921E-23
4.59284E-02 2.07260E-23
4.68461E-02 1.99027E-23
4.87074E-02 1.83747E-23
5.06030E-02 1.69901E-23
5.25328E-02 1.57329E-23
5.44967E-02 1.45894E-23
5.64946E-02 1.35475E-23
5.85262E-02 1.25965E-23
6.05914E-02 1.17272E-23
6.26901E-02 1.09313E-23
6.48222E-02 1.02013E-23
6.69873E-02 9.53109E-24
6.91854E-02 8.91469E-24
7.14163E-02 8.34703E-24
7.36799E-02 7.82363E-24
7.59760E-02 7.34037E-24
7.83043E-02 6.89364E-24
8.06647E-02 6.48020E-24
8.30571E-02 6.09709E-24
8.54812E-02 5.74169E-24
8.79369E-02 5.41165E-24
9.04240E-02 5.10482E-24
9.29422E-02 4.81927E-24
9.54915E-02 4.55331E-24
9.80716E-02 4.30528E-24
1.00682E-01 4.07380E-24
1.03323E-01 3.85754E-24
1.05995E-01 3.65532E-24
1.08696E-01 3.46608E-24
1.11427E-01 3.28883E-24
1.14188E-01 3.12267E-24
1.16978E-01 2.96678E-24
1.19797E-01 2.82041E-24
1.22645E-01 2.68287E-24
1.25522E-01 2.55353E-24
1.28428E-01 2.43182E-24
1.31361E-01 2.31720E-24
1.34323E-01 2.20919E-24
1.37313E-01 2.10734E-24
1.40330E-01 2.01122E-24
1.43375E-01 1.92046E-24
1.46447E-01 1.83471E-24
1.49545E-01 1.75363E-24
1.52671E-01 1.67693E-24
1.55823E-01 1.60433E-24
1.59001E-01 1.53557E-24
1.62205E-01 1.47041E-24
1.65435E-01 1.40862E-24
1.68690E-01 1.34999E-24
1.71970E-01 1.29435E-24
1.75276E-01 1.24150E-24
1.78606E-01 1.19129E-24
1.81961E-01 1.14356E-24
1.85340E-01 1.09815E-24
1.88743E-01 1.05495E-24
1.92169E-01 1.01381E-24
1.95619E-01 9.74628E-25
1.99092E-01 9.37291E-25
2.02589E-01 9.01696E-25
2.06107E-01 8.67748E-25
2.09649E-01 8.35355E-25
2.13212E-01 8.04432E-25
2.16797E-01 7.74901E-25
2.20404E-01 7.46688E-25
2.24032E-01 7.19725E-25
2.27680E-01 6.93945E-25
2.31350E-01 6.69287E-25
2.35040E-01 6.45694E-25
2.38751E-01 6.23110E-25
2.42481E-01 6.01484E-25
2.46231E-01 5.80768E-25
2.50000E-01 5.60918E-25
2.53788E-01 5.41891E-25
2.57595E-01 5.23647E-25
2.61421E-01 5.06147E-25
2.65264E-01 4.89355E-25
2.69126E-01 4.73236E-25
2.73005E-01 4.57760E-25
2.76901E-01 4.42897E-25
2.80814E-01 4.28617E-25
2.84744E-01 4.14895E-25
2.88691E-01 4.01703E-25
2.92653E-01 3.89017E-25
2.96632E-01 3.76815E-25
3.00625E-01 3.65074E-25
3.04634E-01 3.53774E-25
3.08658E-01 3.42897E-25
3.12697E-01 3.32423E-25
3.16749E-01 3.22335E-25
3.20816E-01 3.12615E-25
3.24896E-01 3.03247E-25
3.28990E-01 2.94216E-25
3.33097E-01 2.85508E-25
3.37216E-01 2.77111E-25
3.41348E-01 2.69012E-25
3.45492E-01 2.61197E-25
3.49647E-01 2.53652E-25
3.53814E-01 2.46368E-25
3.57992E-01 2.39336E-25
3.62181E-01 2.32545E-25
3.66381E-01 2.25985E-25
3.70590E-01 2.19646E-25
3.74810E-01 2.13519E-25
3.79039E-01 2.07596E-25
3.83277E-01 2.01869E-25
3.87524E-01 1.96332E-25
3.91780E-01 1.90975E-25
3.96044E-01 1.85793E-25
4.00316E-01 1.80779E-25
4.04596E-01 1.75926E-25
4.08882E-01 1.71227E-25
4.13176E-01 1.66678E-25
4.17476E-01 1.62273E-25
4.21783E-01 1.58006E-25
4.26095E-01 1.53872E-25
4.30413E-01 1.49866E-25
4.34737E-01 1.45985E-25
4.39065E-01 1.42222E-25
4.43398E-01 1.38574E-25
4.47736E-01 1.35037E-25
4.52077E-01 1.31606E-25
4.56422E-01 1.28279E-25
4.60770E-01 1.25051E-25
4.65122E-01 1.21919E-25
4.69476E-01 1.18879E-25
4.73832E-01 1.15929E-25
4.78190E-01 1.13065E-25
4.82550E-01 1.10284E-25
4.86912E-01 1.07584E-25
4.91274E-01 1.04961E-25
4.95637E-01 1.02413E-25
5.00000E-01 9.99384E-26
5.04363E-01 9.75335E-26
5.08726E-01 9.51964E-26
5.13088E-01 9.29249E-26
5.17450E-01 9.07168E-26
5.21810E-01 8.85702E-26
5.26168E-01 8.64829E-26
5.30524E-01 8.44530E-26
5.34878E-01 8.24786E-26
5.39230E-01 8.05580E-26
5.43578E-01 7.86896E-26
5.47923E-01 7.68716E-26
5.52264E-01 7.51025E-26
5.56602E-01 7.33808E-26
5.60935E-01 7.17048E-26
5.65263E-01 7.00733E-26
5.69587E-01 6.84848E-26
5.73905E-01 6.69380E-26
5.78217E-01 6.54317E-26
5.82524E-01 6.39647E-26
5.86824E-01 6.25357E-26
5.91118E-01 6.11436E-26
5.95404E-01 5.97872E-26
5.99684E-01 5.84655E-26
6.03956E-01 5.71775E-26
6.08220E-01 5.59222E-26
6.12476E-01 5.46988E-26
6.16723E-01 5.35060E-26
6.20961E-01 5.23432E-26
6.25190E-01 5.12094E-26
6.29410E-01 5.01038E-26
6.33619E-01 4.90256E-26
6.37819E-01 4.79739E-26
6.42008E-01 4.69482E-26
6.46186E-01 4.59476E-26
6.50353E-01 4.49714E-26
6.54508E-01 4.40189E-26
6.58652E-01 4.30894E-26
6.62784E-01 4.21824E-26
6.66903E-01 4.12972E-26
6.71010E-01 4.04331E-26
6.75104E-01 3.95898E-26
6.79184E-01 3.87664E-26
6.83251E-01 3.79626E-26
6.87303E-01 3.71778E-26
6.91342E-01 3.64114E-26
6.95366E-01 3.56630E-26
6.99375E-01 3.49321E-26
7.03368E-01 3.42183E-26
7.07347E-01 3.35211E-26
7.11309E-01 3.28400E-26
7.15256E-01 3.21746E-26
7.19186E-01 3.15245E-26
7.23099E-01 3.08893E-26
7.26995E-01 3.02688E-26
7.30874E-01 2.96623E-26
7.34736E-01 2.90697E-26
7.38579E-01 2.84906E-26
7.42405E-01 2.79245E-26
7.46212E-01 2.73712E-26
7.50000E-01 2.68303E-26
7.53769E-01 2.63016E-26
7.57519E-01 2.57848E-26
7.61249E-01 2.52794E-26
7.64960E-01 2.47854E-26
7.68650E-01 2.43024E-26
7.72320E-01 2.38300E-26
7.75968E-01 2.33682E-26
7.79596E-01 2.29165E-26
7.83203E-01 2.24748E-26
7.86788E-01 2.20428E-26
7.90351E-01 2.16204E-26
7.93893E-01 2.12072E-26
7.97411E-01 2.08030E-26
8.00908E-01 2.04076E-26
8.04381E-01 2.00209E-26
8.07831E-01 1.96426E-26
8.11257E-01 1.92726E-26
8.14660E-01 1.89106E-26
8.18039E-01 1.85565E-26
8.21394E-01 1.82100E-26
8.24724E-01 1.78710E-26
8.28030E-01 1.75394E-26
8.31310E-01 1.72149E-26
8.34565E-01 1.68975E-26
8.37795E-01 1.65870E-26
8.40999E-01 1.62831E-26
8.44177E-01 1.59858E-26
8.47329E-01 1.56948E-26
8.50455E-01 1.54102E-26
8.53553E-01 1.51317E-26
8.56625E-01 1.48592E-26
8.59670E-01 1.45926E-26
8.62687E-01 1.43318E-26
8.65677E-01 1.40765E-26
8.68639E-01 1.38268E-26
8.71572E-01 1.35825E-26
8.74478E-01 1.33434E-26
8.77355E-01 1.31096E-26
8.80203E-01 1.28809E-26
8.83022E-01 1.26571E-26
8.85812E-01 1.24382E-26
8.88573E-01 1.22240E-26
8.91304E-01 1.20145E-26
8.94005E-01 1.18096E-26
8.96677E-01 1.16092E-26
8.99318E-01 1.14133E-26
9.01928E-01 1.12216E-26
9.04508E-01 1.10342E-26
9.07058E-01 1.08509E-26
9.09576E-01 1.06717E-26
9.12063E-01 1.04965E-26
9.14519E-01 1.03253E-26
9.16943E-01 1.01579E-26
9.19335E-01 9.99434E-27
9.21696E-01 9.83446E-27
9.24024E-01 9.67821E-27
9.26320E-01 9.52554E-27
9.28584E-01 9.37644E-27
9.30815E-01 9.23078E-27
9.33013E-01 9.08855E-27
9.35178E-01 8.94968E-27
9.37310E-01 8.81404E-27
9.39409E-01 8.68167E-27
9.41474E-01 8.55244E-27
9.43505E-01 8.42636E-27
9.45503E-01 8.30339E-27
9.47467E-01 8.18343E-27
9.49397E-01 8.06649E-27
9.51293E-01 7.95245E-27
9.53154E-01 7.84128E-27
9.54981E-01 7.73297E-27
9.56773E-01 7.62745E-27
9.58530E-01 7.52473E-27
9.60252E-01 7.42474E-27
9.61940E-01 7.32741E-27
9.63592E-01 7.23277E-27
9.65209E-01 7.14068E-27
9.66790E-01 7.05118E-27
9.68336E-01 6.96423E-27
9.69846E-01 6.87977E-27
9.71321E-01 6.79784E-27
9.72759E-01 6.71833E-27
9.74162E-01 6.64124E-27
9.75528E-01 6.56654E-27
9.76858E-01 6.49414E-27
9.78152E-01 6.42412E-27
9.79410E-01 6.35639E-27
9.80631E-01 6.29096E-27
9.81815E-01 6.22781E-27
9.82963E-01 6.16685E-27
9.84074E-01 6.10811E-27
9.85148E-01 6.05154E-27
9.86185E-01 5.99712E-27
9.87185E-01 5.94489E-27
9.88148E-01 5.89476E-27
9.89074E-01 5.84678E-27
9.89962E-01 5.80089E-27
9.90814E-01 5.75703E-27
9.91627E-01 5.71526E-27
9.92404E-01 5.67548E-27
9.93143E-01 5.63776E-27
9.93844E-01 5.60208E-27
9.94508E-01 5.56838E-27
9.95134E-01 5.53672E-27
9.95722E-01 5.50699E-27
9.96273E-01 5.47921E-27
9.96786E-01 5.45341E-27
9.97261E-01 5.42951E-27
9.97698E-01 5.40762E-27
9.98097E-01 5.38766E-27
9.98459E-01 5.36961E-27
9.98782E-01 5.35352E-27
9.99067E-01 5.33924E-27
9.99315E-01 5.32691E-27
9.99524E-01 5.31647E-27
9.99695E-01 5.30791E-27
9.99829E-01 5.30138E-27
9.99924E-01 5.29666E-27
9.99981E-01 5.29390E-27
1.00000E+00 5.29347E-27
