 #
 # Subroutine ELSEPA. Elastic scattering of electrons and positrons
 #                    by neutral atoms and positive ions
 #
 # Projectile: positron
 # Kinetic energy = 2.50000E+07 eV = 9.18733E+05 a.u.
 #
 # WARNING: High-energy factorization with free-atom DF screening.
 #          Absorption, polarization and exchange corrections are
 #          switched off.
 #          Phase shifts are calculated for the bare nucleus.
 #          Scattering amplitudes are not evaluated.
 #
 # Element: Be,  Z =   4,  atomic weight = 9.01220E+00 g/mol
 #
 # Nuclear model: Fermi distribution
 #                Average radius = 2.22669E-13 cm
 #                Skin thickness = 5.46000E-14 cm
 #
 # Number of electrons =  4
 #
 # Total elastic cross section = 1.70188E-19 cm**2 = 6.07752E-03 a0**2
 # 1st transport cross section = 4.95730E-26 cm**2 = 1.77028E-09 a0**2
 # 2nd transport cross section = 1.44270E-25 cm**2 = 5.15197E-09 a0**2
 #
 #
 # Differential cross section:                       MU=(1-COS(THETA))/2
 #
 #  THETA        MU          DCS          DCS        Sherman      error
 #  (deg)                 (cm**2/sr)   (a0**2/sr)    function
 #----------------------------------------------------------------------
0.00000E+00 2.32384E-12
7.61557E-13 2.32332E-12
1.18994E-12 2.32303E-12
1.71346E-12 2.32268E-12
2.33225E-12 2.32226E-12
3.04617E-12 2.32177E-12
3.85530E-12 2.32122E-12
4.75964E-12 2.32061E-12
5.75917E-12 2.31993E-12
6.85391E-12 2.31918E-12
8.04379E-12 2.31838E-12
9.32893E-12 2.31751E-12
1.07092E-11 2.31657E-12
1.21847E-11 2.31557E-12
1.37554E-11 2.31451E-12
1.54213E-11 2.31338E-12
1.71823E-11 2.31219E-12
1.90386E-11 2.31094E-12
2.09900E-11 2.30962E-12
2.30367E-11 2.30824E-12
2.51785E-11 2.30680E-12
2.74156E-11 2.30529E-12
2.97478E-11 2.30372E-12
3.21752E-11 2.30209E-12
3.46979E-11 2.30040E-12
3.73157E-11 2.29865E-12
4.00286E-11 2.29683E-12
4.28368E-11 2.29495E-12
4.57402E-11 2.29301E-12
4.87388E-11 2.29101E-12
5.18325E-11 2.28895E-12
5.50215E-11 2.28682E-12
5.83057E-11 2.28464E-12
6.16850E-11 2.28239E-12
6.51595E-11 2.28009E-12
6.87293E-11 2.27772E-12
7.23943E-11 2.27530E-12
7.61544E-11 2.27282E-12
1.18991E-10 2.24478E-12
1.71347E-10 2.21111E-12
2.33223E-10 2.17219E-12
3.04617E-10 2.12841E-12
3.85531E-10 2.08020E-12
4.75965E-10 2.02801E-12
5.75917E-10 1.97232E-12
6.85389E-10 1.91363E-12
8.04380E-10 1.85246E-12
9.32891E-10 1.78929E-12
1.07092E-09 1.72458E-12
1.21847E-09 1.65880E-12
1.37554E-09 1.59241E-12
1.54213E-09 1.52583E-12
1.71823E-09 1.45944E-12
1.90386E-09 1.39357E-12
2.09900E-09 1.32853E-12
2.30367E-09 1.26464E-12
2.51785E-09 1.20093E-12
2.74156E-09 1.13896E-12
2.97478E-09 1.07950E-12
3.21752E-09 1.02262E-12
3.46978E-09 9.68313E-13
3.73156E-09 9.16230E-13
4.00286E-09 8.64302E-13
4.28368E-09 8.15095E-13
4.57402E-09 7.68537E-13
4.87388E-09 7.24544E-13
5.18326E-09 6.83025E-13
5.50215E-09 6.43046E-13
5.83057E-09 6.04760E-13
6.16850E-09 5.68766E-13
6.51596E-09 5.34950E-13
6.87293E-09 5.03198E-13
7.23942E-09 4.73398E-13
7.61544E-09 4.44845E-13
1.18991E-08 2.41126E-13
1.71347E-08 1.35295E-13
2.33223E-08 8.00306E-14
3.04617E-08 5.01149E-14
3.85531E-08 3.31231E-14
4.75965E-08 2.29669E-14
5.75917E-08 1.65763E-14
6.85389E-08 1.23730E-14
8.04380E-08 9.49519E-15
9.32891E-08 7.44955E-15
1.07092E-07 5.95021E-15
1.21847E-07 4.82471E-15
1.37554E-07 3.96329E-15
1.54213E-07 3.29188E-15
1.71823E-07 2.75973E-15
1.90386E-07 2.33160E-15
2.09900E-07 1.98357E-15
2.30367E-07 1.69834E-15
2.51785E-07 1.46068E-15
2.74156E-07 1.26475E-15
2.97478E-07 1.10020E-15
3.21752E-07 9.60615E-16
3.46978E-07 8.43056E-16
3.73156E-07 7.41654E-16
4.00286E-07 6.55905E-16
4.28368E-07 5.80842E-16
4.57402E-07 5.16752E-16
4.87388E-07 4.60664E-16
5.18325E-07 4.12060E-16
5.50215E-07 3.69522E-16
5.83057E-07 3.32215E-16
6.16850E-07 2.99498E-16
6.51596E-07 2.70502E-16
6.87293E-07 2.45018E-16
7.23942E-07 2.22266E-16
7.61543E-07 2.02173E-16
1.18991E-06 8.62510E-17
1.71347E-06 4.24043E-17
2.33223E-06 2.31130E-17
3.04617E-06 1.36208E-17
3.85531E-06 8.52949E-18
4.75964E-06 5.60660E-18
5.75916E-06 3.83385E-18
6.85388E-06 2.70901E-18
8.04378E-06 1.96781E-18
9.32888E-06 1.46346E-18
1.07092E-05 1.11066E-18
1.21846E-05 8.58048E-19
1.37553E-05 6.73335E-19
1.54212E-05 5.35754E-19
1.71822E-05 4.31582E-19
1.90385E-05 3.51541E-19
2.09899E-05 2.89223E-19
2.30365E-05 2.40239E-19
2.51783E-05 2.00990E-19
2.74153E-05 1.69454E-19
2.97475E-05 1.43904E-19
3.21749E-05 1.23027E-19
3.46974E-05 1.05823E-19
3.73152E-05 9.15286E-20
4.00281E-05 7.95622E-20
4.28362E-05 6.94774E-20
4.57395E-05 6.09301E-20
4.87380E-05 5.36512E-20
5.18317E-05 4.74264E-20
5.50205E-05 4.20813E-20
5.83045E-05 3.74729E-20
6.16838E-05 3.34823E-20
6.51582E-05 3.00113E-20
6.87277E-05 2.69786E-20
7.23925E-05 2.43182E-20
7.61524E-05 2.19756E-20
9.21439E-05 1.50031E-20
1.09658E-04 1.05952E-20
1.28695E-04 7.69093E-21
1.49255E-04 5.71748E-21
1.71338E-04 4.33866E-21
1.94942E-04 3.35083E-21
2.20070E-04 2.62937E-21
2.46720E-04 2.09163E-21
2.74892E-04 1.68477E-21
3.04586E-04 1.37214E-21
3.35803E-04 1.12872E-21
3.68542E-04 9.37042E-22
4.02802E-04 7.84288E-22
4.38585E-04 6.61485E-22
4.75889E-04 5.61768E-22
5.14715E-04 4.80156E-22
5.55063E-04 4.12847E-22
5.96931E-04 3.56910E-22
6.40321E-04 3.10149E-22
6.85233E-04 2.70786E-22
7.31665E-04 2.37481E-22
7.79618E-04 2.09139E-22
8.29092E-04 1.84897E-22
8.80086E-04 1.64073E-22
9.32601E-04 1.46093E-22
9.86636E-04 1.30513E-22
1.04219E-03 1.16953E-22
1.09927E-03 1.05109E-22
1.15786E-03 9.47273E-23
1.21797E-03 8.55941E-23
1.27961E-03 7.75371E-23
1.34276E-03 7.04043E-23
1.40743E-03 6.40736E-23
1.47362E-03 5.84383E-23
1.54133E-03 5.34085E-23
1.61056E-03 4.89088E-23
1.68131E-03 4.48722E-23
1.75357E-03 4.12439E-23
1.82735E-03 3.79746E-23
1.90265E-03 3.50227E-23
1.97947E-03 3.23522E-23
2.05780E-03 2.99310E-23
2.13765E-03 2.77323E-23
2.21902E-03 2.57315E-23
2.30190E-03 2.39079E-23
2.38630E-03 2.22430E-23
2.47222E-03 2.07203E-23
2.55965E-03 1.93257E-23
2.64859E-03 1.80463E-23
2.73905E-03 1.68711E-23
2.83103E-03 1.57899E-23
2.92452E-03 1.47939E-23
3.01952E-03 1.38751E-23
3.11604E-03 1.30265E-23
3.21407E-03 1.22418E-23
3.31362E-03 1.15152E-23
3.41468E-03 1.08417E-23
3.51725E-03 1.02166E-23
3.62133E-03 9.63594E-24
3.72692E-03 9.09594E-24
3.83403E-03 8.59316E-24
3.94265E-03 8.12465E-24
4.05278E-03 7.68758E-24
4.16442E-03 7.27949E-24
4.27757E-03 6.89811E-24
4.39223E-03 6.54133E-24
4.50840E-03 6.20733E-24
4.62608E-03 5.89433E-24
4.74527E-03 5.60080E-24
4.86597E-03 5.32530E-24
4.98817E-03 5.06650E-24
5.11188E-03 4.82323E-24
5.23711E-03 4.59436E-24
5.36383E-03 4.37890E-24
5.49207E-03 4.17590E-24
5.62181E-03 3.98451E-24
5.75306E-03 3.80396E-24
5.88581E-03 3.63350E-24
6.02007E-03 3.47247E-24
6.15583E-03 3.32025E-24
6.29310E-03 3.17627E-24
6.43187E-03 3.04001E-24
6.57214E-03 2.91095E-24
6.71392E-03 2.78867E-24
6.85720E-03 2.67273E-24
7.00198E-03 2.56275E-24
7.14827E-03 2.45836E-24
7.29605E-03 2.35921E-24
7.44534E-03 2.26502E-24
7.59612E-03 2.17546E-24
7.97965E-03 1.97017E-24
8.37255E-03 1.78850E-24
8.77480E-03 1.62726E-24
9.18641E-03 1.48376E-24
9.60736E-03 1.35571E-24
1.00376E-02 1.24115E-24
1.04773E-02 1.13842E-24
1.09262E-02 1.04609E-24
1.13844E-02 9.62903E-25
1.18520E-02 8.87810E-25
1.23288E-02 8.19881E-25
1.28150E-02 7.58312E-25
1.33104E-02 7.02402E-25
1.38150E-02 6.51539E-25
1.43290E-02 6.05186E-25
1.48521E-02 5.62873E-25
1.53845E-02 5.24184E-25
1.59262E-02 4.88754E-25
1.64770E-02 4.56260E-25
1.70371E-02 4.26413E-25
1.76063E-02 3.98961E-25
1.81848E-02 3.73676E-25
1.87724E-02 3.50357E-25
1.93692E-02 3.28822E-25
1.99751E-02 3.08912E-25
2.05901E-02 2.90481E-25
2.12143E-02 2.73399E-25
2.18476E-02 2.57551E-25
2.24900E-02 2.42830E-25
2.31415E-02 2.29142E-25
2.38021E-02 2.16401E-25
2.44717E-02 2.04530E-25
2.51504E-02 1.93459E-25
2.58382E-02 1.83123E-25
2.65349E-02 1.73466E-25
2.72407E-02 1.64435E-25
2.79555E-02 1.55980E-25
2.86793E-02 1.48060E-25
2.94120E-02 1.40634E-25
3.01537E-02 1.33665E-25
3.09043E-02 1.27121E-25
3.16639E-02 1.20970E-25
3.24324E-02 1.15185E-25
3.32098E-02 1.09740E-25
3.39961E-02 1.04611E-25
3.47912E-02 9.97763E-26
3.55952E-02 9.52163E-26
3.64081E-02 9.09124E-26
3.72297E-02 8.68476E-26
3.80602E-02 8.30060E-26
3.88995E-02 7.93732E-26
3.97476E-02 7.59357E-26
4.06044E-02 7.26812E-26
4.14700E-02 6.95980E-26
4.23443E-02 6.66755E-26
4.32273E-02 6.39038E-26
4.41190E-02 6.12736E-26
4.50194E-02 5.87764E-26
4.59284E-02 5.64042E-26
4.68461E-02 5.41496E-26
4.87074E-02 4.99661E-26
5.06030E-02 4.61759E-26
5.25328E-02 4.27357E-26
5.44967E-02 3.96075E-26
5.64946E-02 3.67580E-26
5.85262E-02 3.41580E-26
6.05914E-02 3.17819E-26
6.26901E-02 2.96070E-26
6.48222E-02 2.76133E-26
6.69873E-02 2.57829E-26
6.91854E-02 2.41002E-26
7.14163E-02 2.25512E-26
7.36799E-02 2.11233E-26
7.59760E-02 1.98054E-26
7.83043E-02 1.85876E-26
8.06647E-02 1.74608E-26
8.30571E-02 1.64171E-26
8.54812E-02 1.54492E-26
8.79369E-02 1.45508E-26
9.04240E-02 1.37158E-26
9.29422E-02 1.29391E-26
9.54915E-02 1.22158E-26
9.80716E-02 1.15416E-26
1.00682E-01 1.09126E-26
1.03323E-01 1.03252E-26
1.05995E-01 9.77625E-27
1.08696E-01 9.26268E-27
1.11427E-01 8.78184E-27
1.14188E-01 8.33127E-27
1.16978E-01 7.90873E-27
1.19797E-01 7.51217E-27
1.22645E-01 7.13970E-27
1.25522E-01 6.78960E-27
1.28428E-01 6.46029E-27
1.31361E-01 6.15031E-27
1.34323E-01 5.85833E-27
1.37313E-01 5.58311E-27
1.40330E-01 5.32353E-27
1.43375E-01 5.07853E-27
1.46447E-01 4.84715E-27
1.49545E-01 4.62851E-27
1.52671E-01 4.42176E-27
1.55823E-01 4.22616E-27
1.59001E-01 4.04100E-27
1.62205E-01 3.86561E-27
1.65435E-01 3.69940E-27
1.68690E-01 3.54179E-27
1.71970E-01 3.39227E-27
1.75276E-01 3.25034E-27
1.78606E-01 3.11555E-27
1.81961E-01 2.98747E-27
1.85340E-01 2.86573E-27
1.88743E-01 2.74993E-27
1.92169E-01 2.63976E-27
1.95619E-01 2.53487E-27
1.99092E-01 2.43498E-27
2.02589E-01 2.33981E-27
2.06107E-01 2.24909E-27
2.09649E-01 2.16257E-27
2.13212E-01 2.08004E-27
2.16797E-01 2.00127E-27
2.20404E-01 1.92606E-27
2.24032E-01 1.85423E-27
2.27680E-01 1.78559E-27
2.31350E-01 1.71997E-27
2.35040E-01 1.65723E-27
2.38751E-01 1.59721E-27
2.42481E-01 1.53978E-27
2.46231E-01 1.48480E-27
2.50000E-01 1.43216E-27
2.53788E-01 1.38172E-27
2.57595E-01 1.33340E-27
2.61421E-01 1.28707E-27
2.65264E-01 1.24266E-27
2.69126E-01 1.20005E-27
2.73005E-01 1.15917E-27
2.76901E-01 1.11994E-27
2.80814E-01 1.08227E-27
2.84744E-01 1.04610E-27
2.88691E-01 1.01135E-27
2.92653E-01 9.77958E-28
2.96632E-01 9.45864E-28
3.00625E-01 9.15008E-28
3.04634E-01 8.85333E-28
3.08658E-01 8.56787E-28
3.12697E-01 8.29319E-28
3.16749E-01 8.02882E-28
3.20816E-01 7.77430E-28
3.24896E-01 7.52921E-28
3.28990E-01 7.29314E-28
3.33097E-01 7.06570E-28
3.37216E-01 6.84651E-28
3.41348E-01 6.63524E-28
3.45492E-01 6.43155E-28
3.49647E-01 6.23512E-28
3.53814E-01 6.04564E-28
3.57992E-01 5.86283E-28
3.62181E-01 5.68642E-28
3.66381E-01 5.51615E-28
3.70590E-01 5.35176E-28
3.74810E-01 5.19303E-28
3.79039E-01 5.03971E-28
3.83277E-01 4.89160E-28
3.87524E-01 4.74850E-28
3.91780E-01 4.61019E-28
3.96044E-01 4.47651E-28
4.00316E-01 4.34726E-28
4.04596E-01 4.22227E-28
4.08882E-01 4.10139E-28
4.13176E-01 3.98446E-28
4.17476E-01 3.87132E-28
4.21783E-01 3.76184E-28
4.26095E-01 3.65587E-28
4.30413E-01 3.55328E-28
4.34737E-01 3.45395E-28
4.39065E-01 3.35777E-28
4.43398E-01 3.26460E-28
4.47736E-01 3.17435E-28
4.52077E-01 3.08691E-28
4.56422E-01 3.00218E-28
4.60770E-01 2.92005E-28
4.65122E-01 2.84044E-28
4.69476E-01 2.76326E-28
4.73832E-01 2.68842E-28
4.78190E-01 2.61584E-28
4.82550E-01 2.54544E-28
4.86912E-01 2.47715E-28
4.91274E-01 2.41089E-28
4.95637E-01 2.34659E-28
5.00000E-01 2.28418E-28
5.04363E-01 2.22361E-28
5.08726E-01 2.16481E-28
5.13088E-01 2.10771E-28
5.17450E-01 2.05227E-28
5.21810E-01 1.99842E-28
5.26168E-01 1.94612E-28
5.30524E-01 1.89531E-28
5.34878E-01 1.84594E-28
5.39230E-01 1.79797E-28
5.43578E-01 1.75136E-28
5.47923E-01 1.70605E-28
5.52264E-01 1.66200E-28
5.56602E-01 1.61918E-28
5.60935E-01 1.57755E-28
5.65263E-01 1.53707E-28
5.69587E-01 1.49769E-28
5.73905E-01 1.45940E-28
5.78217E-01 1.42214E-28
5.82524E-01 1.38590E-28
5.86824E-01 1.35064E-28
5.91118E-01 1.31633E-28
5.95404E-01 1.28293E-28
5.99684E-01 1.25043E-28
6.03956E-01 1.21879E-28
6.08220E-01 1.18800E-28
6.12476E-01 1.15801E-28
6.16723E-01 1.12881E-28
6.20961E-01 1.10038E-28
6.25190E-01 1.07269E-28
6.29410E-01 1.04572E-28
6.33619E-01 1.01945E-28
6.37819E-01 9.93863E-29
6.42008E-01 9.68930E-29
6.46186E-01 9.44637E-29
6.50353E-01 9.20965E-29
6.54508E-01 8.97895E-29
6.58652E-01 8.75411E-29
6.62784E-01 8.53496E-29
6.66903E-01 8.32133E-29
6.71010E-01 8.11308E-29
6.75104E-01 7.91003E-29
6.79184E-01 7.71207E-29
6.83251E-01 7.51902E-29
6.87303E-01 7.33077E-29
6.91342E-01 7.14718E-29
6.95366E-01 6.96811E-29
6.99375E-01 6.79345E-29
7.03368E-01 6.62306E-29
7.07347E-01 6.45685E-29
7.11309E-01 6.29468E-29
7.15256E-01 6.13646E-29
7.19186E-01 5.98207E-29
7.23099E-01 5.83141E-29
7.26995E-01 5.68438E-29
7.30874E-01 5.54089E-29
7.34736E-01 5.40084E-29
7.38579E-01 5.26414E-29
7.42405E-01 5.13070E-29
7.46212E-01 5.00044E-29
7.50000E-01 4.87327E-29
7.53769E-01 4.74911E-29
7.57519E-01 4.62789E-29
7.61249E-01 4.50952E-29
7.64960E-01 4.39394E-29
7.68650E-01 4.28107E-29
7.72320E-01 4.17084E-29
7.75968E-01 4.06320E-29
7.79596E-01 3.95806E-29
7.83203E-01 3.85537E-29
7.86788E-01 3.75507E-29
7.90351E-01 3.65710E-29
7.93893E-01 3.56140E-29
7.97411E-01 3.46791E-29
8.00908E-01 3.37658E-29
8.04381E-01 3.28735E-29
8.07831E-01 3.20018E-29
8.11257E-01 3.11501E-29
8.14660E-01 3.03180E-29
8.18039E-01 2.95049E-29
8.21394E-01 2.87105E-29
8.24724E-01 2.79342E-29
8.28030E-01 2.71757E-29
8.31310E-01 2.64346E-29
8.34565E-01 2.57103E-29
8.37795E-01 2.50025E-29
8.40999E-01 2.43109E-29
8.44177E-01 2.36350E-29
8.47329E-01 2.29746E-29
8.50455E-01 2.23291E-29
8.53553E-01 2.16984E-29
8.56625E-01 2.10820E-29
8.59670E-01 2.04796E-29
8.62687E-01 1.98909E-29
8.65677E-01 1.93157E-29
8.68639E-01 1.87535E-29
8.71572E-01 1.82042E-29
8.74478E-01 1.76673E-29
8.77355E-01 1.71428E-29
8.80203E-01 1.66302E-29
8.83022E-01 1.61293E-29
8.85812E-01 1.56399E-29
8.88573E-01 1.51617E-29
8.91304E-01 1.46945E-29
8.94005E-01 1.42381E-29
8.96677E-01 1.37922E-29
8.99318E-01 1.33565E-29
9.01928E-01 1.29310E-29
9.04508E-01 1.25153E-29
9.07058E-01 1.21093E-29
9.09576E-01 1.17128E-29
9.12063E-01 1.13256E-29
9.14519E-01 1.09474E-29
9.16943E-01 1.05782E-29
9.19335E-01 1.02177E-29
9.21696E-01 9.86576E-30
9.24024E-01 9.52221E-30
9.26320E-01 9.18692E-30
9.28584E-01 8.85969E-30
9.30815E-01 8.54039E-30
9.33013E-01 8.22886E-30
9.35178E-01 7.92495E-30
9.37310E-01 7.62856E-30
9.39409E-01 7.33947E-30
9.41474E-01 7.05763E-30
9.43505E-01 6.78286E-30
9.45503E-01 6.51506E-30
9.47467E-01 6.25407E-30
9.49397E-01 5.99983E-30
9.51293E-01 5.75218E-30
9.53154E-01 5.51101E-30
9.54981E-01 5.27623E-30
9.56773E-01 5.04773E-30
9.58530E-01 4.82540E-30
9.60252E-01 4.60913E-30
9.61940E-01 4.39886E-30
9.63592E-01 4.19446E-30
9.65209E-01 3.99586E-30
9.66790E-01 3.80295E-30
9.68336E-01 3.61569E-30
9.69846E-01 3.43394E-30
9.71321E-01 3.25766E-30
9.72759E-01 3.08676E-30
9.74162E-01 2.92117E-30
9.75528E-01 2.76081E-30
9.76858E-01 2.60560E-30
9.78152E-01 2.45551E-30
9.79410E-01 2.31043E-30
9.80631E-01 2.17033E-30
9.81815E-01 2.03514E-30
9.82963E-01 1.90480E-30
9.84074E-01 1.77926E-30
9.85148E-01 1.65844E-30
9.86185E-01 1.54232E-30
9.87185E-01 1.43084E-30
9.88148E-01 1.32396E-30
9.89074E-01 1.22161E-30
9.89962E-01 1.12377E-30
9.90814E-01 1.03039E-30
9.91627E-01 9.41435E-31
9.92404E-01 8.56872E-31
9.93143E-01 7.76648E-31
9.93844E-01 7.00734E-31
9.94508E-01 6.29113E-31
9.95134E-01 5.61737E-31
9.95722E-01 4.98585E-31
9.96273E-01 4.39624E-31
9.96786E-01 3.84848E-31
9.97261E-01 3.34214E-31
9.97698E-01 2.87712E-31
9.98097E-01 2.45310E-31
9.98459E-01 2.07011E-31
9.98782E-01 1.72779E-31
9.99067E-01 1.42609E-31
9.99315E-01 1.16482E-31
9.99524E-01 9.44000E-32
9.99695E-01 7.63459E-32
9.99829E-01 6.23112E-32
9.99924E-01 5.22894E-32
9.99981E-01 4.62814E-32
1.00000E+00 4.42844E-32
