 #
 # Subroutine ELSEPA. Elastic scattering of electrons and positrons
 #                    by neutral atoms and positive ions
 #
 # Projectile: electron
 # Kinetic energy = 7.00000E+06 eV = 2.57245E+05 a.u.
 #
 # WARNING: High-energy factorization with free-atom DF screening.
 #          Absorption, polarization and exchange corrections are
 #          switched off.
 #          Phase shifts are calculated for the bare nucleus.
 #          Scattering amplitudes are not evaluated.
 #
 # Element: Re,  Z =  75,  atomic weight = 1.86207E+02 g/mol
 #
 # Nuclear model: Fermi distribution
 #                Average radius = 6.11011E-13 cm
 #                Skin thickness = 5.46000E-14 cm
 #
 # Number of electrons = 75
 #
 # Total elastic cross section = 7.64641E-18 cm**2 = 2.73058E-01 a0**2
 # 1st transport cross section = 1.72978E-22 cm**2 = 6.17716E-06 a0**2
 # 2nd transport cross section = 4.71717E-22 cm**2 = 1.68453E-05 a0**2
 #
 #
 # Differential cross section:                       MU=(1-COS(THETA))/2
 #
 #  THETA        MU          DCS          DCS        Sherman      error
 #  (deg)                 (cm**2/sr)   (a0**2/sr)    function
 #----------------------------------------------------------------------
0.00000E+00 3.05557E-12
7.61557E-13 3.05553E-12
1.18994E-12 3.05551E-12
1.71346E-12 3.05548E-12
2.33225E-12 3.05544E-12
3.04617E-12 3.05541E-12
3.85530E-12 3.05536E-12
4.75964E-12 3.05532E-12
5.75917E-12 3.05526E-12
6.85391E-12 3.05521E-12
8.04379E-12 3.05514E-12
9.32893E-12 3.05508E-12
1.07092E-11 3.05500E-12
1.21847E-11 3.05493E-12
1.37554E-11 3.05484E-12
1.54213E-11 3.05475E-12
1.71823E-11 3.05466E-12
1.90386E-11 3.05456E-12
2.09900E-11 3.05446E-12
2.30367E-11 3.05435E-12
2.51785E-11 3.05424E-12
2.74156E-11 3.05412E-12
2.97478E-11 3.05400E-12
3.21752E-11 3.05387E-12
3.46979E-11 3.05374E-12
3.73157E-11 3.05360E-12
4.00286E-11 3.05346E-12
4.28368E-11 3.05331E-12
4.57402E-11 3.05316E-12
4.87388E-11 3.05300E-12
5.18325E-11 3.05284E-12
5.50215E-11 3.05267E-12
5.83057E-11 3.05250E-12
6.16850E-11 3.05232E-12
6.51595E-11 3.05214E-12
6.87293E-11 3.05195E-12
7.23943E-11 3.05176E-12
7.61544E-11 3.05156E-12
1.18991E-10 3.04932E-12
1.71347E-10 3.04658E-12
2.33223E-10 3.04334E-12
3.04617E-10 3.03962E-12
3.85531E-10 3.03541E-12
4.75965E-10 3.03071E-12
5.75917E-10 3.02554E-12
6.85389E-10 3.01989E-12
8.04380E-10 3.01377E-12
9.32891E-10 3.00718E-12
1.07092E-09 3.00013E-12
1.21847E-09 2.99263E-12
1.37554E-09 2.98468E-12
1.54213E-09 2.97629E-12
1.71823E-09 2.96746E-12
1.90386E-09 2.95820E-12
2.09900E-09 2.94852E-12
2.30367E-09 2.93843E-12
2.51785E-09 2.92793E-12
2.74156E-09 2.91703E-12
2.97478E-09 2.90575E-12
3.21752E-09 2.89408E-12
3.46978E-09 2.88203E-12
3.73156E-09 2.86963E-12
4.00286E-09 2.85687E-12
4.28368E-09 2.84366E-12
4.57402E-09 2.83011E-12
4.87388E-09 2.81627E-12
5.18326E-09 2.80216E-12
5.50215E-09 2.78778E-12
5.83057E-09 2.77316E-12
6.16850E-09 2.75830E-12
6.51596E-09 2.74306E-12
6.87293E-09 2.72738E-12
7.23942E-09 2.71149E-12
7.61544E-09 2.69542E-12
1.18991E-08 2.52388E-12
1.71347E-08 2.33835E-12
2.33223E-08 2.14777E-12
3.04617E-08 1.96017E-12
3.85531E-08 1.77963E-12
4.75965E-08 1.61064E-12
5.75917E-08 1.45530E-12
6.85389E-08 1.31334E-12
8.04380E-08 1.18577E-12
9.32891E-08 1.07153E-12
1.07092E-07 9.69421E-13
1.21847E-07 8.78774E-13
1.37554E-07 7.98041E-13
1.54213E-07 7.26217E-13
1.71823E-07 6.62415E-13
1.90386E-07 6.05333E-13
2.09900E-07 5.54399E-13
2.30367E-07 5.08850E-13
2.51785E-07 4.67822E-13
2.74156E-07 4.30985E-13
2.97478E-07 3.97746E-13
3.21752E-07 3.67641E-13
3.46978E-07 3.40415E-13
3.73156E-07 3.15639E-13
4.00286E-07 2.93089E-13
4.28368E-07 2.71326E-13
4.57402E-07 2.51460E-13
4.87388E-07 2.33816E-13
5.18325E-07 2.18094E-13
5.50215E-07 2.04038E-13
5.83057E-07 1.91433E-13
6.16850E-07 1.80096E-13
6.51596E-07 1.69118E-13
6.87293E-07 1.58099E-13
7.23942E-07 1.48162E-13
7.61543E-07 1.39177E-13
1.18991E-06 7.91933E-14
1.71347E-06 4.82626E-14
2.33223E-06 3.10365E-14
3.04617E-06 2.08609E-14
3.85531E-06 1.44280E-14
4.75964E-06 1.02517E-14
5.75916E-06 7.46045E-15
6.85388E-06 5.53597E-15
8.04378E-06 4.19347E-15
9.32888E-06 3.23568E-15
1.07092E-05 2.53850E-15
1.21846E-05 2.02081E-15
1.37553E-05 1.63135E-15
1.54212E-05 1.33343E-15
1.71822E-05 1.10188E-15
1.90385E-05 9.18221E-16
2.09899E-05 7.72441E-16
2.30365E-05 6.54523E-16
2.51783E-05 5.58091E-16
2.74153E-05 4.78803E-16
2.97475E-05 4.13093E-16
3.21749E-05 3.58249E-16
3.46974E-05 3.12247E-16
3.73152E-05 2.73381E-16
4.00281E-05 2.40385E-16
4.28362E-05 2.12093E-16
4.57395E-05 1.87915E-16
4.87380E-05 1.67219E-16
5.18317E-05 1.49139E-16
5.50205E-05 1.33454E-16
5.83045E-05 1.19853E-16
6.16838E-05 1.07846E-16
6.51582E-05 9.73337E-17
6.87277E-05 8.81209E-17
7.23925E-05 7.99141E-17
7.61524E-05 7.26630E-17
9.21439E-05 5.07435E-17
1.09658E-04 3.64811E-17
1.28695E-04 2.69073E-17
1.49255E-04 2.02797E-17
1.71338E-04 1.55739E-17
1.94942E-04 1.21607E-17
2.20070E-04 9.63444E-18
2.46720E-04 7.73251E-18
2.74892E-04 6.27877E-18
3.04586E-04 5.15116E-18
3.35803E-04 4.26612E-18
3.68542E-04 3.56352E-18
4.02802E-04 2.99964E-18
4.38585E-04 2.54316E-18
4.75889E-04 2.17030E-18
5.14715E-04 1.86330E-18
5.55063E-04 1.60877E-18
5.96931E-04 1.39622E-18
6.40321E-04 1.21766E-18
6.85233E-04 1.06678E-18
7.31665E-04 9.38544E-19
7.79618E-04 8.29037E-19
8.29092E-04 7.35067E-19
8.80086E-04 6.54046E-19
9.32601E-04 5.83909E-19
9.86636E-04 5.22941E-19
1.04219E-03 4.69739E-19
1.09927E-03 4.23152E-19
1.15786E-03 3.82210E-19
1.21797E-03 3.46116E-19
1.27961E-03 3.14198E-19
1.34276E-03 2.85883E-19
1.40743E-03 2.60699E-19
1.47362E-03 2.38237E-19
1.54133E-03 2.18152E-19
1.61056E-03 2.00147E-19
1.68131E-03 1.83970E-19
1.75357E-03 1.69400E-19
1.82735E-03 1.56252E-19
1.90265E-03 1.44360E-19
1.97947E-03 1.33583E-19
2.05780E-03 1.23798E-19
2.13765E-03 1.14897E-19
2.21902E-03 1.06786E-19
2.30190E-03 9.93821E-20
2.38630E-03 9.26119E-20
2.47222E-03 8.64118E-20
2.55965E-03 8.07246E-20
2.64859E-03 7.55004E-20
2.73905E-03 7.06946E-20
2.83103E-03 6.62672E-20
2.92452E-03 6.21833E-20
3.01952E-03 5.84111E-20
3.11604E-03 5.49223E-20
3.21407E-03 5.16919E-20
3.31362E-03 4.86971E-20
3.41468E-03 4.59176E-20
3.51725E-03 4.33349E-20
3.62133E-03 4.09325E-20
3.72692E-03 3.86955E-20
3.83403E-03 3.66104E-20
3.94265E-03 3.46648E-20
4.05278E-03 3.28478E-20
4.16442E-03 3.11490E-20
4.27757E-03 2.95598E-20
4.39223E-03 2.80712E-20
4.50840E-03 2.66761E-20
4.62608E-03 2.53672E-20
4.74527E-03 2.41384E-20
4.86597E-03 2.29836E-20
4.98817E-03 2.18978E-20
5.11188E-03 2.08759E-20
5.23711E-03 1.99134E-20
5.36383E-03 1.90063E-20
5.49207E-03 1.81507E-20
5.62181E-03 1.73433E-20
5.75306E-03 1.65806E-20
5.88581E-03 1.58598E-20
6.02007E-03 1.51782E-20
6.15583E-03 1.45332E-20
6.29310E-03 1.39224E-20
6.43187E-03 1.33437E-20
6.57214E-03 1.27952E-20
6.71392E-03 1.22748E-20
6.85720E-03 1.17809E-20
7.00198E-03 1.13119E-20
7.14827E-03 1.08662E-20
7.29605E-03 1.04426E-20
7.44534E-03 1.00396E-20
7.59612E-03 9.65615E-21
7.97965E-03 8.77555E-21
8.37255E-03 7.99423E-21
8.77480E-03 7.29904E-21
9.18641E-03 6.67876E-21
9.60736E-03 6.12386E-21
1.00376E-02 5.62621E-21
1.04773E-02 5.17880E-21
1.09262E-02 4.77566E-21
1.13844E-02 4.41159E-21
1.18520E-02 4.08211E-21
1.23288E-02 3.78332E-21
1.28150E-02 3.51183E-21
1.33104E-02 3.26468E-21
1.38150E-02 3.03928E-21
1.43290E-02 2.83336E-21
1.48521E-02 2.64491E-21
1.53845E-02 2.47218E-21
1.59262E-02 2.31360E-21
1.64770E-02 2.16780E-21
1.70371E-02 2.03354E-21
1.76063E-02 1.90974E-21
1.81848E-02 1.79543E-21
1.87724E-02 1.68973E-21
1.93692E-02 1.59188E-21
1.99751E-02 1.50117E-21
2.05901E-02 1.41699E-21
2.12143E-02 1.33878E-21
2.18476E-02 1.26602E-21
2.24900E-02 1.19826E-21
2.31415E-02 1.13510E-21
2.38021E-02 1.07615E-21
2.44717E-02 1.02109E-21
2.51504E-02 9.69598E-22
2.58382E-02 9.21402E-22
2.65349E-02 8.76250E-22
2.72407E-02 8.33910E-22
2.79555E-02 7.94172E-22
2.86793E-02 7.56844E-22
2.94120E-02 7.21751E-22
3.01537E-02 6.88732E-22
3.09043E-02 6.57637E-22
3.16639E-02 6.28335E-22
3.24324E-02 6.00698E-22
3.32098E-02 5.74614E-22
3.39961E-02 5.49977E-22
3.47912E-02 5.26691E-22
3.55952E-02 5.04666E-22
3.64081E-02 4.83820E-22
3.72297E-02 4.64077E-22
3.80602E-02 4.45366E-22
3.88995E-02 4.27623E-22
3.97476E-02 4.10786E-22
4.06044E-02 3.94799E-22
4.14700E-02 3.79611E-22
4.23443E-02 3.65174E-22
4.32273E-02 3.51442E-22
4.41190E-02 3.38374E-22
4.50194E-02 3.25931E-22
4.59284E-02 3.14076E-22
4.68461E-02 3.02777E-22
4.87074E-02 2.81719E-22
5.06030E-02 2.62529E-22
5.25328E-02 2.45008E-22
5.44967E-02 2.28981E-22
5.64946E-02 2.14295E-22
5.85262E-02 2.00815E-22
6.05914E-02 1.88420E-22
6.26901E-02 1.77006E-22
6.48222E-02 1.66479E-22
6.69873E-02 1.56756E-22
6.91854E-02 1.47761E-22
7.14163E-02 1.39430E-22
7.36799E-02 1.31703E-22
7.59760E-02 1.24526E-22
7.83043E-02 1.17853E-22
8.06647E-02 1.11639E-22
8.30571E-02 1.05848E-22
8.54812E-02 1.00443E-22
8.79369E-02 9.53942E-23
9.04240E-02 9.06721E-23
9.29422E-02 8.62512E-23
9.54915E-02 8.21082E-23
9.80716E-02 7.82217E-23
1.00682E-01 7.45723E-23
1.03323E-01 7.11423E-23
1.05995E-01 6.79158E-23
1.08696E-01 6.48778E-23
1.11427E-01 6.20150E-23
1.14188E-01 5.93150E-23
1.16978E-01 5.67665E-23
1.19797E-01 5.43590E-23
1.22645E-01 5.20830E-23
1.25522E-01 4.99297E-23
1.28428E-01 4.78910E-23
1.31361E-01 4.59594E-23
1.34323E-01 4.41280E-23
1.37313E-01 4.23904E-23
1.40330E-01 4.07408E-23
1.43375E-01 3.91736E-23
1.46447E-01 3.76839E-23
1.49545E-01 3.62668E-23
1.52671E-01 3.49181E-23
1.55823E-01 3.36336E-23
1.59001E-01 3.24097E-23
1.62205E-01 3.12428E-23
1.65435E-01 3.01296E-23
1.68690E-01 2.90672E-23
1.71970E-01 2.80526E-23
1.75276E-01 2.70831E-23
1.78606E-01 2.61564E-23
1.81961E-01 2.52701E-23
1.85340E-01 2.44222E-23
1.88743E-01 2.36102E-23
1.92169E-01 2.28326E-23
1.95619E-01 2.20876E-23
1.99092E-01 2.13734E-23
2.02589E-01 2.06884E-23
2.06107E-01 2.00312E-23
2.09649E-01 1.94004E-23
2.13212E-01 1.87947E-23
2.16797E-01 1.82129E-23
2.20404E-01 1.76537E-23
2.24032E-01 1.71162E-23
2.27680E-01 1.65992E-23
2.31350E-01 1.61019E-23
2.35040E-01 1.56232E-23
2.38751E-01 1.51623E-23
2.42481E-01 1.47184E-23
2.46231E-01 1.42908E-23
2.50000E-01 1.38787E-23
2.53788E-01 1.34814E-23
2.57595E-01 1.30982E-23
2.61421E-01 1.27285E-23
2.65264E-01 1.23718E-23
2.69126E-01 1.20275E-23
2.73005E-01 1.16950E-23
2.76901E-01 1.13738E-23
2.80814E-01 1.10636E-23
2.84744E-01 1.07637E-23
2.88691E-01 1.04738E-23
2.92653E-01 1.01935E-23
2.96632E-01 9.92242E-24
3.00625E-01 9.66013E-24
3.04634E-01 9.40629E-24
3.08658E-01 9.16058E-24
3.12697E-01 8.92268E-24
3.16749E-01 8.69227E-24
3.20816E-01 8.46908E-24
3.24896E-01 8.25281E-24
3.28990E-01 8.04322E-24
3.33097E-01 7.84004E-24
3.37216E-01 7.64302E-24
3.41348E-01 7.45195E-24
3.45492E-01 7.26661E-24
3.49647E-01 7.08677E-24
3.53814E-01 6.91225E-24
3.57992E-01 6.74284E-24
3.62181E-01 6.57836E-24
3.66381E-01 6.41865E-24
3.70590E-01 6.26352E-24
3.74810E-01 6.11281E-24
3.79039E-01 5.96638E-24
3.83277E-01 5.82408E-24
3.87524E-01 5.68575E-24
3.91780E-01 5.55127E-24
3.96044E-01 5.42050E-24
4.00316E-01 5.29332E-24
4.04596E-01 5.16961E-24
4.08882E-01 5.04925E-24
4.13176E-01 4.93213E-24
4.17476E-01 4.81815E-24
4.21783E-01 4.70720E-24
4.26095E-01 4.59919E-24
4.30413E-01 4.49401E-24
4.34737E-01 4.39158E-24
4.39065E-01 4.29182E-24
4.43398E-01 4.19463E-24
4.47736E-01 4.09994E-24
4.52077E-01 4.00767E-24
4.56422E-01 3.91774E-24
4.60770E-01 3.83008E-24
4.65122E-01 3.74463E-24
4.69476E-01 3.66129E-24
4.73832E-01 3.58000E-24
4.78190E-01 3.50071E-24
4.82550E-01 3.42338E-24
4.86912E-01 3.34793E-24
4.91274E-01 3.27432E-24
4.95637E-01 3.20248E-24
5.00000E-01 3.13237E-24
5.04363E-01 3.06394E-24
5.08726E-01 2.99714E-24
5.13088E-01 2.93192E-24
5.17450E-01 2.86824E-24
5.21810E-01 2.80605E-24
5.26168E-01 2.74531E-24
5.30524E-01 2.68598E-24
5.34878E-01 2.62802E-24
5.39230E-01 2.57140E-24
5.43578E-01 2.51607E-24
5.47923E-01 2.46200E-24
5.52264E-01 2.40916E-24
5.56602E-01 2.35752E-24
5.60935E-01 2.30703E-24
5.65263E-01 2.25767E-24
5.69587E-01 2.20941E-24
5.73905E-01 2.16222E-24
5.78217E-01 2.11608E-24
5.82524E-01 2.07095E-24
5.86824E-01 2.02681E-24
5.91118E-01 1.98363E-24
5.95404E-01 1.94138E-24
5.99684E-01 1.90006E-24
6.03956E-01 1.85962E-24
6.08220E-01 1.82005E-24
6.12476E-01 1.78132E-24
6.16723E-01 1.74342E-24
6.20961E-01 1.70632E-24
6.25190E-01 1.67001E-24
6.29410E-01 1.63446E-24
6.33619E-01 1.59966E-24
6.37819E-01 1.56558E-24
6.42008E-01 1.53222E-24
6.46186E-01 1.49954E-24
6.50353E-01 1.46755E-24
6.54508E-01 1.43621E-24
6.58652E-01 1.40551E-24
6.62784E-01 1.37545E-24
6.66903E-01 1.34599E-24
6.71010E-01 1.31714E-24
6.75104E-01 1.28887E-24
6.79184E-01 1.26117E-24
6.83251E-01 1.23403E-24
6.87303E-01 1.20744E-24
6.91342E-01 1.18138E-24
6.95366E-01 1.15584E-24
6.99375E-01 1.13080E-24
7.03368E-01 1.10627E-24
7.07347E-01 1.08222E-24
7.11309E-01 1.05865E-24
7.15256E-01 1.03554E-24
7.19186E-01 1.01289E-24
7.23099E-01 9.90678E-25
7.26995E-01 9.68903E-25
7.30874E-01 9.47554E-25
7.34736E-01 9.26621E-25
7.38579E-01 9.06095E-25
7.42405E-01 8.85967E-25
7.46212E-01 8.66229E-25
7.50000E-01 8.46873E-25
7.53769E-01 8.27890E-25
7.57519E-01 8.09273E-25
7.61249E-01 7.91014E-25
7.64960E-01 7.73105E-25
7.68650E-01 7.55540E-25
7.72320E-01 7.38311E-25
7.75968E-01 7.21411E-25
7.79596E-01 7.04835E-25
7.83203E-01 6.88574E-25
7.86788E-01 6.72623E-25
7.90351E-01 6.56976E-25
7.93893E-01 6.41626E-25
7.97411E-01 6.26568E-25
8.00908E-01 6.11796E-25
8.04381E-01 5.97305E-25
8.07831E-01 5.83088E-25
8.11257E-01 5.69141E-25
8.14660E-01 5.55458E-25
8.18039E-01 5.42034E-25
8.21394E-01 5.28865E-25
8.24724E-01 5.15946E-25
8.28030E-01 5.03271E-25
8.31310E-01 4.90837E-25
8.34565E-01 4.78639E-25
8.37795E-01 4.66672E-25
8.40999E-01 4.54933E-25
8.44177E-01 4.43416E-25
8.47329E-01 4.32119E-25
8.50455E-01 4.21037E-25
8.53553E-01 4.10166E-25
8.56625E-01 3.99503E-25
8.59670E-01 3.89044E-25
8.62687E-01 3.78785E-25
8.65677E-01 3.68724E-25
8.68639E-01 3.58855E-25
8.71572E-01 3.49177E-25
8.74478E-01 3.39686E-25
8.77355E-01 3.30379E-25
8.80203E-01 3.21252E-25
8.83022E-01 3.12303E-25
8.85812E-01 3.03529E-25
8.88573E-01 2.94927E-25
8.91304E-01 2.86494E-25
8.94005E-01 2.78227E-25
8.96677E-01 2.70125E-25
8.99318E-01 2.62183E-25
9.01928E-01 2.54400E-25
9.04508E-01 2.46773E-25
9.07058E-01 2.39301E-25
9.09576E-01 2.31979E-25
9.12063E-01 2.24807E-25
9.14519E-01 2.17782E-25
9.16943E-01 2.10901E-25
9.19335E-01 2.04163E-25
9.21696E-01 1.97566E-25
9.24024E-01 1.91107E-25
9.26320E-01 1.84785E-25
9.28584E-01 1.78597E-25
9.30815E-01 1.72543E-25
9.33013E-01 1.66619E-25
9.35178E-01 1.60824E-25
9.37310E-01 1.55157E-25
9.39409E-01 1.49616E-25
9.41474E-01 1.44199E-25
9.43505E-01 1.38904E-25
9.45503E-01 1.33730E-25
9.47467E-01 1.28676E-25
9.49397E-01 1.23740E-25
9.51293E-01 1.18920E-25
9.53154E-01 1.14215E-25
9.54981E-01 1.09624E-25
9.56773E-01 1.05146E-25
9.58530E-01 1.00778E-25
9.60252E-01 9.65208E-26
9.61940E-01 9.23720E-26
9.63592E-01 8.83307E-26
9.65209E-01 8.43957E-26
9.66790E-01 8.05659E-26
9.68336E-01 7.68402E-26
9.69846E-01 7.32176E-26
9.71321E-01 6.96971E-26
9.72759E-01 6.62776E-26
9.74162E-01 6.29582E-26
9.75528E-01 5.97380E-26
9.76858E-01 5.66161E-26
9.78152E-01 5.35916E-26
9.79410E-01 5.06637E-26
9.80631E-01 4.78315E-26
9.81815E-01 4.50943E-26
9.82963E-01 4.24513E-26
9.84074E-01 3.99018E-26
9.85148E-01 3.74451E-26
9.86185E-01 3.50805E-26
9.87185E-01 3.28074E-26
9.88148E-01 3.06252E-26
9.89074E-01 2.85331E-26
9.89962E-01 2.65308E-26
9.90814E-01 2.46176E-26
9.91627E-01 2.27930E-26
9.92404E-01 2.10566E-26
9.93143E-01 1.94077E-26
9.93844E-01 1.78461E-26
9.94508E-01 1.63713E-26
9.95134E-01 1.49829E-26
9.95722E-01 1.36804E-26
9.96273E-01 1.24636E-26
9.96786E-01 1.13322E-26
9.97261E-01 1.02857E-26
9.97698E-01 9.32406E-27
9.98097E-01 8.44686E-27
9.98459E-01 7.65391E-27
9.98782E-01 6.94500E-27
9.99067E-01 6.31993E-27
9.99315E-01 5.77855E-27
9.99524E-01 5.32070E-27
9.99695E-01 4.94626E-27
9.99829E-01 4.65513E-27
9.99924E-01 4.44724E-27
9.99981E-01 4.32253E-27
1.00000E+00 4.28096E-27
