 #
 # Subroutine ELSEPA. Elastic scattering of electrons and positrons
 #                    by neutral atoms and positive ions
 #
 # Projectile: electron
 # Kinetic energy = 8.00000E+06 eV = 2.93995E+05 a.u.
 #
 # WARNING: High-energy factorization with free-atom DF screening.
 #          Absorption, polarization and exchange corrections are
 #          switched off.
 #          Phase shifts are calculated for the bare nucleus.
 #          Scattering amplitudes are not evaluated.
 #
 # Element: Re,  Z =  75,  atomic weight = 1.86207E+02 g/mol
 #
 # Nuclear model: Fermi distribution
 #                Average radius = 6.11011E-13 cm
 #                Skin thickness = 5.46000E-14 cm
 #
 # Number of electrons = 75
 #
 # Total elastic cross section = 7.63824E-18 cm**2 = 2.72767E-01 a0**2
 # 1st transport cross section = 1.36497E-22 cm**2 = 4.87440E-06 a0**2
 # 2nd transport cross section = 3.73537E-22 cm**2 = 1.33393E-05 a0**2
 #
 #
 # Differential cross section:                       MU=(1-COS(THETA))/2
 #
 #  THETA        MU          DCS          DCS        Sherman      error
 #  (deg)                 (cm**2/sr)   (a0**2/sr)    function
 #----------------------------------------------------------------------
0.00000E+00 3.92336E-12
7.61557E-13 3.92329E-12
1.18994E-12 3.92325E-12
1.71346E-12 3.92320E-12
2.33225E-12 3.92315E-12
3.04617E-12 3.92309E-12
3.85530E-12 3.92302E-12
4.75964E-12 3.92294E-12
5.75917E-12 3.92285E-12
6.85391E-12 3.92276E-12
8.04379E-12 3.92265E-12
9.32893E-12 3.92254E-12
1.07092E-11 3.92242E-12
1.21847E-11 3.92229E-12
1.37554E-11 3.92216E-12
1.54213E-11 3.92201E-12
1.71823E-11 3.92186E-12
1.90386E-11 3.92170E-12
2.09900E-11 3.92153E-12
2.30367E-11 3.92135E-12
2.51785E-11 3.92116E-12
2.74156E-11 3.92097E-12
2.97478E-11 3.92077E-12
3.21752E-11 3.92056E-12
3.46979E-11 3.92034E-12
3.73157E-11 3.92011E-12
4.00286E-11 3.91988E-12
4.28368E-11 3.91963E-12
4.57402E-11 3.91938E-12
4.87388E-11 3.91912E-12
5.18325E-11 3.91885E-12
5.50215E-11 3.91858E-12
5.83057E-11 3.91829E-12
6.16850E-11 3.91800E-12
6.51595E-11 3.91770E-12
6.87293E-11 3.91739E-12
7.23943E-11 3.91707E-12
7.61544E-11 3.91675E-12
1.18991E-10 3.91304E-12
1.71347E-10 3.90852E-12
2.33223E-10 3.90319E-12
3.04617E-10 3.89706E-12
3.85531E-10 3.89013E-12
4.75965E-10 3.88241E-12
5.75917E-10 3.87390E-12
6.85389E-10 3.86463E-12
8.04380E-10 3.85459E-12
9.32891E-10 3.84380E-12
1.07092E-09 3.83226E-12
1.21847E-09 3.82000E-12
1.37554E-09 3.80702E-12
1.54213E-09 3.79333E-12
1.71823E-09 3.77895E-12
1.90386E-09 3.76390E-12
2.09900E-09 3.74818E-12
2.30367E-09 3.73182E-12
2.51785E-09 3.71483E-12
2.74156E-09 3.69722E-12
2.97478E-09 3.67901E-12
3.21752E-09 3.66020E-12
3.46978E-09 3.64067E-12
3.73156E-09 3.62065E-12
4.00286E-09 3.60018E-12
4.28368E-09 3.57928E-12
4.57402E-09 3.55796E-12
4.87388E-09 3.53626E-12
5.18326E-09 3.51379E-12
5.50215E-09 3.49082E-12
5.83057E-09 3.46752E-12
6.16850E-09 3.44392E-12
6.51596E-09 3.42004E-12
6.87293E-09 3.39590E-12
7.23942E-09 3.37136E-12
7.61544E-09 3.34609E-12
1.18991E-08 3.08247E-12
1.71347E-08 2.80616E-12
2.33223E-08 2.53184E-12
3.04617E-08 2.26928E-12
3.85531E-08 2.02629E-12
4.75965E-08 1.80475E-12
5.75917E-08 1.60726E-12
6.85389E-08 1.43168E-12
8.04380E-08 1.27767E-12
9.32891E-08 1.14237E-12
1.07092E-07 1.02408E-12
1.21847E-07 9.20453E-13
1.37554E-07 8.29564E-13
1.54213E-07 7.49777E-13
1.71823E-07 6.79346E-13
1.90386E-07 6.17257E-13
2.09900E-07 5.62031E-13
2.30367E-07 5.13067E-13
2.51785E-07 4.69264E-13
2.74156E-07 4.30155E-13
2.97478E-07 3.95018E-13
3.21752E-07 3.62995E-13
3.46978E-07 3.32427E-13
3.73156E-07 3.05746E-13
4.00286E-07 2.82357E-13
4.28368E-07 2.61768E-13
4.57402E-07 2.43570E-13
4.87388E-07 2.27426E-13
5.18325E-07 2.11111E-13
5.50215E-07 1.95850E-13
5.83057E-07 1.82254E-13
6.16850E-07 1.70102E-13
6.51596E-07 1.59206E-13
6.87293E-07 1.49407E-13
7.23942E-07 1.40250E-13
7.61543E-07 1.31067E-13
1.18991E-06 7.24502E-14
1.71347E-06 4.33341E-14
2.33223E-06 2.74276E-14
3.04617E-06 1.80673E-14
3.85531E-06 1.23223E-14
4.75964E-06 8.63540E-15
5.75916E-06 6.22290E-15
6.85388E-06 4.59123E-15
8.04378E-06 3.46801E-15
9.32888E-06 2.66831E-15
1.07092E-05 2.09137E-15
1.21846E-05 1.66556E-15
1.37553E-05 1.34443E-15
1.54212E-05 1.09779E-15
1.71822E-05 9.05274E-16
1.90385E-05 7.53025E-16
2.09899E-05 6.32238E-16
2.30365E-05 5.34822E-16
2.51783E-05 4.55270E-16
2.74153E-05 3.89867E-16
2.97475E-05 3.35671E-16
3.21749E-05 2.90497E-16
3.46974E-05 2.52553E-16
3.73152E-05 2.20878E-16
4.00281E-05 1.93954E-16
4.28362E-05 1.70990E-16
4.57395E-05 1.51453E-16
4.87380E-05 1.34454E-16
5.18317E-05 1.19844E-16
5.50205E-05 1.07160E-16
5.83045E-05 9.60777E-17
6.16838E-05 8.64380E-17
6.51582E-05 7.79372E-17
6.87277E-05 7.04750E-17
7.23925E-05 6.38981E-17
7.61524E-05 5.80485E-17
9.21439E-05 4.04348E-17
1.09658E-04 2.90143E-17
1.28695E-04 2.13667E-17
1.49255E-04 1.60811E-17
1.71338E-04 1.23373E-17
1.94942E-04 9.62363E-18
2.20070E-04 7.61767E-18
2.46720E-04 6.10898E-18
2.74892E-04 4.95597E-18
3.04586E-04 4.06298E-18
3.35803E-04 3.36215E-18
3.68542E-04 2.80628E-18
4.02802E-04 2.36056E-18
4.38585E-04 1.99997E-18
4.75889E-04 1.70564E-18
5.14715E-04 1.46353E-18
5.55063E-04 1.26290E-18
5.96931E-04 1.09551E-18
6.40321E-04 9.54978E-19
6.85233E-04 8.36282E-19
7.31665E-04 7.35501E-19
7.79618E-04 6.49460E-19
8.29092E-04 5.75670E-19
8.80086E-04 5.12081E-19
9.32601E-04 4.57055E-19
9.86636E-04 4.09242E-19
1.04219E-03 3.67535E-19
1.09927E-03 3.31024E-19
1.15786E-03 2.98947E-19
1.21797E-03 2.70677E-19
1.27961E-03 2.45680E-19
1.34276E-03 2.23514E-19
1.40743E-03 2.03800E-19
1.47362E-03 1.86221E-19
1.54133E-03 1.70504E-19
1.61056E-03 1.56418E-19
1.68131E-03 1.43762E-19
1.75357E-03 1.32366E-19
1.82735E-03 1.22083E-19
1.90265E-03 1.12783E-19
1.97947E-03 1.04356E-19
2.05780E-03 9.67054E-20
2.13765E-03 8.97467E-20
2.21902E-03 8.34057E-20
2.30190E-03 7.76180E-20
2.38630E-03 7.23261E-20
2.47222E-03 6.74801E-20
2.55965E-03 6.30354E-20
2.64859E-03 5.89527E-20
2.73905E-03 5.51973E-20
2.83103E-03 5.17377E-20
2.92452E-03 4.85467E-20
3.01952E-03 4.55993E-20
3.11604E-03 4.28737E-20
3.21407E-03 4.03498E-20
3.31362E-03 3.80105E-20
3.41468E-03 3.58390E-20
3.51725E-03 3.38218E-20
3.62133E-03 3.19453E-20
3.72692E-03 3.01980E-20
3.83403E-03 2.85697E-20
3.94265E-03 2.70501E-20
4.05278E-03 2.56312E-20
4.16442E-03 2.43048E-20
4.27757E-03 2.30637E-20
4.39223E-03 2.19015E-20
4.50840E-03 2.08121E-20
4.62608E-03 1.97902E-20
4.74527E-03 1.88309E-20
4.86597E-03 1.79293E-20
4.98817E-03 1.70816E-20
5.11188E-03 1.62839E-20
5.23711E-03 1.55326E-20
5.36383E-03 1.48246E-20
5.49207E-03 1.41567E-20
5.62181E-03 1.35265E-20
5.75306E-03 1.29313E-20
5.88581E-03 1.23687E-20
6.02007E-03 1.18368E-20
6.15583E-03 1.13334E-20
6.29310E-03 1.08568E-20
6.43187E-03 1.04053E-20
6.57214E-03 9.97720E-21
6.71392E-03 9.57116E-21
6.85720E-03 9.18582E-21
7.00198E-03 8.81987E-21
7.14827E-03 8.47219E-21
7.29605E-03 8.14167E-21
7.44534E-03 7.82730E-21
7.59612E-03 7.52816E-21
7.97965E-03 6.84119E-21
8.37255E-03 6.23177E-21
8.77480E-03 5.68954E-21
9.18641E-03 5.20578E-21
9.60736E-03 4.77304E-21
1.00376E-02 4.38495E-21
1.04773E-02 4.03609E-21
1.09262E-02 3.72174E-21
1.13844E-02 3.43788E-21
1.18520E-02 3.18100E-21
1.23288E-02 2.94806E-21
1.28150E-02 2.73641E-21
1.33104E-02 2.54375E-21
1.38150E-02 2.36805E-21
1.43290E-02 2.20754E-21
1.48521E-02 2.06066E-21
1.53845E-02 1.92602E-21
1.59262E-02 1.80243E-21
1.64770E-02 1.68879E-21
1.70371E-02 1.58415E-21
1.76063E-02 1.48767E-21
1.81848E-02 1.39858E-21
1.87724E-02 1.31621E-21
1.93692E-02 1.23996E-21
1.99751E-02 1.16927E-21
2.05901E-02 1.10368E-21
2.12143E-02 1.04273E-21
2.18476E-02 9.86033E-22
2.24900E-02 9.33236E-22
2.31415E-02 8.84018E-22
2.38021E-02 8.38088E-22
2.44717E-02 7.95183E-22
2.51504E-02 7.55062E-22
2.58382E-02 7.17510E-22
2.65349E-02 6.82329E-22
2.72407E-02 6.49340E-22
2.79555E-02 6.18379E-22
2.86793E-02 5.89296E-22
2.94120E-02 5.61953E-22
3.01537E-02 5.36227E-22
3.09043E-02 5.12001E-22
3.16639E-02 4.89171E-22
3.24324E-02 4.67640E-22
3.32098E-02 4.47318E-22
3.39961E-02 4.28123E-22
3.47912E-02 4.09982E-22
3.55952E-02 3.92823E-22
3.64081E-02 3.76582E-22
3.72297E-02 3.61201E-22
3.80602E-02 3.46625E-22
3.88995E-02 3.32801E-22
3.97476E-02 3.19684E-22
4.06044E-02 3.07230E-22
4.14700E-02 2.95398E-22
4.23443E-02 2.84151E-22
4.32273E-02 2.73454E-22
4.41190E-02 2.63273E-22
4.50194E-02 2.53580E-22
4.59284E-02 2.44346E-22
4.68461E-02 2.35543E-22
4.87074E-02 2.19140E-22
5.06030E-02 2.04191E-22
5.25328E-02 1.90543E-22
5.44967E-02 1.78059E-22
5.64946E-02 1.66620E-22
5.85262E-02 1.56120E-22
6.05914E-02 1.46466E-22
6.26901E-02 1.37577E-22
6.48222E-02 1.29378E-22
6.69873E-02 1.21805E-22
6.91854E-02 1.14800E-22
7.14163E-02 1.08312E-22
7.36799E-02 1.02295E-22
7.59760E-02 9.67067E-23
7.83043E-02 9.15103E-23
8.06647E-02 8.66726E-23
8.30571E-02 8.21635E-23
8.54812E-02 7.79559E-23
8.79369E-02 7.40252E-23
9.04240E-02 7.03493E-23
9.29422E-02 6.69080E-23
9.54915E-02 6.36832E-23
9.80716E-02 6.06583E-23
1.00682E-01 5.78181E-23
1.03323E-01 5.51489E-23
1.05995E-01 5.26381E-23
1.08696E-01 5.02743E-23
1.11427E-01 4.80470E-23
1.14188E-01 4.59464E-23
1.16978E-01 4.39638E-23
1.19797E-01 4.20912E-23
1.22645E-01 4.03210E-23
1.25522E-01 3.86463E-23
1.28428E-01 3.70609E-23
1.31361E-01 3.55590E-23
1.34323E-01 3.41351E-23
1.37313E-01 3.27842E-23
1.40330E-01 3.15018E-23
1.43375E-01 3.02838E-23
1.46447E-01 2.91260E-23
1.49545E-01 2.80247E-23
1.52671E-01 2.69768E-23
1.55823E-01 2.59789E-23
1.59001E-01 2.50280E-23
1.62205E-01 2.41216E-23
1.65435E-01 2.32571E-23
1.68690E-01 2.24320E-23
1.71970E-01 2.16442E-23
1.75276E-01 2.08916E-23
1.78606E-01 2.01722E-23
1.81961E-01 1.94843E-23
1.85340E-01 1.88261E-23
1.88743E-01 1.81962E-23
1.92169E-01 1.75929E-23
1.95619E-01 1.70149E-23
1.99092E-01 1.64609E-23
2.02589E-01 1.59297E-23
2.06107E-01 1.54201E-23
2.09649E-01 1.49311E-23
2.13212E-01 1.44615E-23
2.16797E-01 1.40106E-23
2.20404E-01 1.35773E-23
2.24032E-01 1.31608E-23
2.27680E-01 1.27602E-23
2.31350E-01 1.23750E-23
2.35040E-01 1.20043E-23
2.38751E-01 1.16474E-23
2.42481E-01 1.13038E-23
2.46231E-01 1.09727E-23
2.50000E-01 1.06538E-23
2.53788E-01 1.03463E-23
2.57595E-01 1.00498E-23
2.61421E-01 9.76390E-24
2.65264E-01 9.48800E-24
2.69126E-01 9.22173E-24
2.73005E-01 8.96467E-24
2.76901E-01 8.71642E-24
2.80814E-01 8.47662E-24
2.84744E-01 8.24492E-24
2.88691E-01 8.02096E-24
2.92653E-01 7.80445E-24
2.96632E-01 7.59508E-24
3.00625E-01 7.39255E-24
3.04634E-01 7.19659E-24
3.08658E-01 7.00694E-24
3.12697E-01 6.82335E-24
3.16749E-01 6.64559E-24
3.20816E-01 6.47342E-24
3.24896E-01 6.30663E-24
3.28990E-01 6.14502E-24
3.33097E-01 5.98839E-24
3.37216E-01 5.83654E-24
3.41348E-01 5.68931E-24
3.45492E-01 5.54652E-24
3.49647E-01 5.40801E-24
3.53814E-01 5.27362E-24
3.57992E-01 5.14320E-24
3.62181E-01 5.01661E-24
3.66381E-01 4.89366E-24
3.70590E-01 4.77425E-24
3.74810E-01 4.65827E-24
3.79039E-01 4.54560E-24
3.83277E-01 4.43613E-24
3.87524E-01 4.32974E-24
3.91780E-01 4.22633E-24
3.96044E-01 4.12580E-24
4.00316E-01 4.02805E-24
4.04596E-01 3.93298E-24
4.08882E-01 3.84051E-24
4.13176E-01 3.75055E-24
4.17476E-01 3.66302E-24
4.21783E-01 3.57784E-24
4.26095E-01 3.49492E-24
4.30413E-01 3.41420E-24
4.34737E-01 3.33561E-24
4.39065E-01 3.25908E-24
4.43398E-01 3.18454E-24
4.47736E-01 3.11192E-24
4.52077E-01 3.04118E-24
4.56422E-01 2.97225E-24
4.60770E-01 2.90508E-24
4.65122E-01 2.83960E-24
4.69476E-01 2.77578E-24
4.73832E-01 2.71355E-24
4.78190E-01 2.65287E-24
4.82550E-01 2.59370E-24
4.86912E-01 2.53598E-24
4.91274E-01 2.47968E-24
4.95637E-01 2.42475E-24
5.00000E-01 2.37116E-24
5.04363E-01 2.31886E-24
5.08726E-01 2.26781E-24
5.13088E-01 2.21799E-24
5.17450E-01 2.16935E-24
5.21810E-01 2.12187E-24
5.26168E-01 2.07550E-24
5.30524E-01 2.03022E-24
5.34878E-01 1.98599E-24
5.39230E-01 1.94280E-24
5.43578E-01 1.90060E-24
5.47923E-01 1.85937E-24
5.52264E-01 1.81909E-24
5.56602E-01 1.77972E-24
5.60935E-01 1.74125E-24
5.65263E-01 1.70365E-24
5.69587E-01 1.66690E-24
5.73905E-01 1.63097E-24
5.78217E-01 1.59584E-24
5.82524E-01 1.56149E-24
5.86824E-01 1.52790E-24
5.91118E-01 1.49505E-24
5.95404E-01 1.46292E-24
5.99684E-01 1.43149E-24
6.03956E-01 1.40075E-24
6.08220E-01 1.37068E-24
6.12476E-01 1.34125E-24
6.16723E-01 1.31246E-24
6.20961E-01 1.28428E-24
6.25190E-01 1.25671E-24
6.29410E-01 1.22972E-24
6.33619E-01 1.20331E-24
6.37819E-01 1.17745E-24
6.42008E-01 1.15214E-24
6.46186E-01 1.12736E-24
6.50353E-01 1.10309E-24
6.54508E-01 1.07934E-24
6.58652E-01 1.05607E-24
6.62784E-01 1.03329E-24
6.66903E-01 1.01097E-24
6.71010E-01 9.89119E-25
6.75104E-01 9.67713E-25
6.79184E-01 9.46744E-25
6.83251E-01 9.26202E-25
6.87303E-01 9.06078E-25
6.91342E-01 8.86361E-25
6.95366E-01 8.67042E-25
6.99375E-01 8.48113E-25
7.03368E-01 8.29564E-25
7.07347E-01 8.11386E-25
7.11309E-01 7.93572E-25
7.15256E-01 7.76113E-25
7.19186E-01 7.59001E-25
7.23099E-01 7.42229E-25
7.26995E-01 7.25789E-25
7.30874E-01 7.09673E-25
7.34736E-01 6.93875E-25
7.38579E-01 6.78387E-25
7.42405E-01 6.63203E-25
7.46212E-01 6.48317E-25
7.50000E-01 6.33721E-25
7.53769E-01 6.19410E-25
7.57519E-01 6.05378E-25
7.61249E-01 5.91619E-25
7.64960E-01 5.78127E-25
7.68650E-01 5.64896E-25
7.72320E-01 5.51922E-25
7.75968E-01 5.39198E-25
7.79596E-01 5.26719E-25
7.83203E-01 5.14482E-25
7.86788E-01 5.02480E-25
7.90351E-01 4.90708E-25
7.93893E-01 4.79163E-25
7.97411E-01 4.67840E-25
8.00908E-01 4.56734E-25
8.04381E-01 4.45841E-25
8.07831E-01 4.35157E-25
8.11257E-01 4.24677E-25
8.14660E-01 4.14399E-25
8.18039E-01 4.04317E-25
8.21394E-01 3.94428E-25
8.24724E-01 3.84728E-25
8.28030E-01 3.75214E-25
8.31310E-01 3.65882E-25
8.34565E-01 3.56729E-25
8.37795E-01 3.47752E-25
8.40999E-01 3.38947E-25
8.44177E-01 3.30310E-25
8.47329E-01 3.21840E-25
8.50455E-01 3.13532E-25
8.53553E-01 3.05385E-25
8.56625E-01 2.97394E-25
8.59670E-01 2.89558E-25
8.62687E-01 2.81873E-25
8.65677E-01 2.74337E-25
8.68639E-01 2.66948E-25
8.71572E-01 2.59702E-25
8.74478E-01 2.52597E-25
8.77355E-01 2.45631E-25
8.80203E-01 2.38802E-25
8.83022E-01 2.32106E-25
8.85812E-01 2.25543E-25
8.88573E-01 2.19109E-25
8.91304E-01 2.12803E-25
8.94005E-01 2.06622E-25
8.96677E-01 2.00565E-25
8.99318E-01 1.94629E-25
9.01928E-01 1.88812E-25
9.04508E-01 1.83114E-25
9.07058E-01 1.77531E-25
9.09576E-01 1.72062E-25
9.12063E-01 1.66705E-25
9.14519E-01 1.61459E-25
9.16943E-01 1.56322E-25
9.19335E-01 1.51292E-25
9.21696E-01 1.46367E-25
9.24024E-01 1.41547E-25
9.26320E-01 1.36829E-25
9.28584E-01 1.32212E-25
9.30815E-01 1.27696E-25
9.33013E-01 1.23277E-25
9.35178E-01 1.18955E-25
9.37310E-01 1.14729E-25
9.39409E-01 1.10598E-25
9.41474E-01 1.06559E-25
9.43505E-01 1.02612E-25
9.45503E-01 9.87559E-26
9.47467E-01 9.49892E-26
9.49397E-01 9.13109E-26
9.51293E-01 8.77198E-26
9.53154E-01 8.42149E-26
9.54981E-01 8.07951E-26
9.56773E-01 7.74595E-26
9.58530E-01 7.42069E-26
9.60252E-01 7.10366E-26
9.61940E-01 6.79475E-26
9.63592E-01 6.49387E-26
9.65209E-01 6.20094E-26
9.66790E-01 5.91587E-26
9.68336E-01 5.63857E-26
9.69846E-01 5.36897E-26
9.71321E-01 5.10700E-26
9.72759E-01 4.85256E-26
9.74162E-01 4.60560E-26
9.75528E-01 4.36604E-26
9.76858E-01 4.13380E-26
9.78152E-01 3.90883E-26
9.79410E-01 3.69106E-26
9.80631E-01 3.48043E-26
9.81815E-01 3.27688E-26
9.82963E-01 3.08035E-26
9.84074E-01 2.89079E-26
9.85148E-01 2.70813E-26
9.86185E-01 2.53234E-26
9.87185E-01 2.36336E-26
9.88148E-01 2.20114E-26
9.89074E-01 2.04564E-26
9.89962E-01 1.89681E-26
9.90814E-01 1.75462E-26
9.91627E-01 1.61902E-26
9.92404E-01 1.48997E-26
9.93143E-01 1.36744E-26
9.93844E-01 1.25140E-26
9.94508E-01 1.14182E-26
9.95134E-01 1.03865E-26
9.95722E-01 9.41882E-27
9.96273E-01 8.51479E-27
9.96786E-01 7.67419E-27
9.97261E-01 6.89678E-27
9.97698E-01 6.18234E-27
9.98097E-01 5.53069E-27
9.98459E-01 4.94164E-27
9.98782E-01 4.41503E-27
9.99067E-01 3.95072E-27
9.99315E-01 3.54857E-27
9.99524E-01 3.20847E-27
9.99695E-01 2.93034E-27
9.99829E-01 2.71410E-27
9.99924E-01 2.55968E-27
9.99981E-01 2.46704E-27
1.00000E+00 2.43617E-27
