 #
 # Subroutine ELSEPA. Elastic scattering of electrons and positrons
 #                    by neutral atoms and positive ions
 #
 # Projectile: electron
 # Kinetic energy = 6.00000E+06 eV = 2.20496E+05 a.u.
 #
 # WARNING: High-energy factorization with free-atom DF screening.
 #          Absorption, polarization and exchange corrections are
 #          switched off.
 #          Phase shifts are calculated for the bare nucleus.
 #          Scattering amplitudes are not evaluated.
 #
 # Element: Re,  Z =  75,  atomic weight = 1.86207E+02 g/mol
 #
 # Nuclear model: Fermi distribution
 #                Average radius = 6.11011E-13 cm
 #                Skin thickness = 5.46000E-14 cm
 #
 # Number of electrons = 75
 #
 # Total elastic cross section = 7.66054E-18 cm**2 = 2.73563E-01 a0**2
 # 1st transport cross section = 2.26682E-22 cm**2 = 8.09497E-06 a0**2
 # 2nd transport cross section = 6.15792E-22 cm**2 = 2.19903E-05 a0**2
 #
 #
 # Differential cross section:                       MU=(1-COS(THETA))/2
 #
 #  THETA        MU          DCS          DCS        Sherman      error
 #  (deg)                 (cm**2/sr)   (a0**2/sr)    function
 #----------------------------------------------------------------------
0.00000E+00 2.29611E-12
7.61557E-13 2.29608E-12
1.18994E-12 2.29607E-12
1.71346E-12 2.29605E-12
2.33225E-12 2.29604E-12
3.04617E-12 2.29601E-12
3.85530E-12 2.29599E-12
4.75964E-12 2.29596E-12
5.75917E-12 2.29593E-12
6.85391E-12 2.29590E-12
8.04379E-12 2.29587E-12
9.32893E-12 2.29583E-12
1.07092E-11 2.29579E-12
1.21847E-11 2.29574E-12
1.37554E-11 2.29570E-12
1.54213E-11 2.29565E-12
1.71823E-11 2.29560E-12
1.90386E-11 2.29554E-12
2.09900E-11 2.29548E-12
2.30367E-11 2.29542E-12
2.51785E-11 2.29536E-12
2.74156E-11 2.29529E-12
2.97478E-11 2.29522E-12
3.21752E-11 2.29515E-12
3.46979E-11 2.29508E-12
3.73157E-11 2.29500E-12
4.00286E-11 2.29492E-12
4.28368E-11 2.29484E-12
4.57402E-11 2.29475E-12
4.87388E-11 2.29466E-12
5.18325E-11 2.29457E-12
5.50215E-11 2.29447E-12
5.83057E-11 2.29438E-12
6.16850E-11 2.29428E-12
6.51595E-11 2.29417E-12
6.87293E-11 2.29407E-12
7.23943E-11 2.29396E-12
7.61544E-11 2.29385E-12
1.18991E-10 2.29258E-12
1.71347E-10 2.29103E-12
2.33223E-10 2.28921E-12
3.04617E-10 2.28710E-12
3.85531E-10 2.28473E-12
4.75965E-10 2.28207E-12
5.75917E-10 2.27914E-12
6.85389E-10 2.27594E-12
8.04380E-10 2.27247E-12
9.32891E-10 2.26874E-12
1.07092E-09 2.26474E-12
1.21847E-09 2.26047E-12
1.37554E-09 2.25595E-12
1.54213E-09 2.25117E-12
1.71823E-09 2.24613E-12
1.90386E-09 2.24084E-12
2.09900E-09 2.23531E-12
2.30367E-09 2.22953E-12
2.51785E-09 2.22350E-12
2.74156E-09 2.21724E-12
2.97478E-09 2.21075E-12
3.21752E-09 2.20402E-12
3.46978E-09 2.19707E-12
3.73156E-09 2.18990E-12
4.00286E-09 2.18250E-12
4.28368E-09 2.17489E-12
4.57402E-09 2.16708E-12
4.87388E-09 2.15905E-12
5.18326E-09 2.15083E-12
5.50215E-09 2.14239E-12
5.83057E-09 2.13368E-12
6.16850E-09 2.12482E-12
6.51596E-09 2.11579E-12
6.87293E-09 2.10661E-12
7.23942E-09 2.09728E-12
7.61544E-09 2.08780E-12
1.18991E-08 1.98460E-12
1.71347E-08 1.86978E-12
2.33223E-08 1.74808E-12
3.04617E-08 1.62405E-12
3.85531E-08 1.50123E-12
4.75965E-08 1.38238E-12
5.75917E-08 1.26939E-12
6.85389E-08 1.16307E-12
8.04380E-08 1.06461E-12
9.32891E-08 9.74204E-13
1.07092E-07 8.91715E-13
1.21847E-07 8.16788E-13
1.37554E-07 7.48779E-13
1.54213E-07 6.87232E-13
1.71823E-07 6.31673E-13
1.90386E-07 5.81522E-13
2.09900E-07 5.36230E-13
2.30367E-07 4.95266E-13
2.51785E-07 4.58070E-13
2.74156E-07 4.24359E-13
2.97478E-07 3.93752E-13
3.21752E-07 3.65912E-13
3.46978E-07 3.40541E-13
3.73156E-07 3.17323E-13
4.00286E-07 2.96064E-13
4.28368E-07 2.76588E-13
4.57402E-07 2.58713E-13
4.87388E-07 2.42279E-13
5.18325E-07 2.27135E-13
5.50215E-07 2.12912E-13
5.83057E-07 1.98979E-13
6.16850E-07 1.86432E-13
6.51596E-07 1.75103E-13
6.87293E-07 1.64850E-13
7.23942E-07 1.55547E-13
7.61543E-07 1.47087E-13
1.18991E-06 8.63728E-14
1.71347E-06 5.37834E-14
2.33223E-06 3.51984E-14
3.04617E-06 2.40257E-14
3.85531E-06 1.69373E-14
4.75964E-06 1.22460E-14
5.75916E-06 9.03832E-15
6.85388E-06 6.78086E-15
8.04378E-06 5.17523E-15
9.32888E-06 4.01301E-15
1.07092E-05 3.15829E-15
1.21846E-05 2.52023E-15
1.37553E-05 2.03749E-15
1.54212E-05 1.66455E-15
1.71822E-05 1.37505E-15
1.90385E-05 1.14679E-15
2.09899E-05 9.66213E-16
2.30365E-05 8.20283E-16
2.51783E-05 7.00828E-16
2.74153E-05 6.02318E-16
2.97475E-05 5.20525E-16
3.21749E-05 4.52221E-16
3.46974E-05 3.94867E-16
3.73152E-05 3.46390E-16
4.00281E-05 3.05181E-16
4.28362E-05 2.69945E-16
4.57395E-05 2.39640E-16
4.87380E-05 2.13443E-16
5.18317E-05 1.90699E-16
5.50205E-05 1.70848E-16
5.83045E-05 1.53435E-16
6.16838E-05 1.38275E-16
6.51582E-05 1.25027E-16
6.87277E-05 1.13221E-16
7.23925E-05 1.02792E-16
7.61524E-05 9.35829E-17
9.21439E-05 6.55630E-17
1.09658E-04 4.72628E-17
1.28695E-04 3.49323E-17
1.49255E-04 2.63756E-17
1.71338E-04 2.02892E-17
1.94942E-04 1.58635E-17
2.20070E-04 1.25818E-17
2.46720E-04 1.01077E-17
2.74892E-04 8.21431E-18
3.04586E-04 6.74529E-18
3.35803E-04 5.59121E-18
3.68542E-04 4.67416E-18
4.02802E-04 3.93770E-18
4.38585E-04 3.34098E-18
4.75889E-04 2.85329E-18
5.14715E-04 2.45153E-18
5.55063E-04 2.11812E-18
5.96931E-04 1.83948E-18
6.40321E-04 1.60520E-18
6.85233E-04 1.40708E-18
7.31665E-04 1.23863E-18
7.79618E-04 1.09466E-18
8.29092E-04 9.71025E-19
8.80086E-04 8.64355E-19
9.32601E-04 7.71956E-19
9.86636E-04 6.91596E-19
1.04219E-03 6.21439E-19
1.09927E-03 5.59973E-19
1.15786E-03 5.05927E-19
1.21797E-03 4.58259E-19
1.27961E-03 4.16089E-19
1.34276E-03 3.78671E-19
1.40743E-03 3.45379E-19
1.47362E-03 3.15675E-19
1.54133E-03 2.89105E-19
1.61056E-03 2.65282E-19
1.68131E-03 2.43872E-19
1.75357E-03 2.24588E-19
1.82735E-03 2.07179E-19
1.90265E-03 1.91432E-19
1.97947E-03 1.77158E-19
2.05780E-03 1.64197E-19
2.13765E-03 1.52406E-19
2.21902E-03 1.41659E-19
2.30190E-03 1.31847E-19
2.38630E-03 1.22875E-19
2.47222E-03 1.14657E-19
2.55965E-03 1.07119E-19
2.64859E-03 1.00193E-19
2.73905E-03 9.38219E-20
2.83103E-03 8.79516E-20
2.92452E-03 8.25363E-20
3.01952E-03 7.75341E-20
3.11604E-03 7.29076E-20
3.21407E-03 6.86233E-20
3.31362E-03 6.46512E-20
3.41468E-03 6.09643E-20
3.51725E-03 5.75384E-20
3.62133E-03 5.43515E-20
3.72692E-03 5.13838E-20
3.83403E-03 4.86174E-20
3.94265E-03 4.60361E-20
4.05278E-03 4.36252E-20
4.16442E-03 4.13713E-20
4.27757E-03 3.92622E-20
4.39223E-03 3.72870E-20
4.50840E-03 3.54354E-20
4.62608E-03 3.36983E-20
4.74527E-03 3.20673E-20
4.86597E-03 3.05347E-20
4.98817E-03 2.90933E-20
5.11188E-03 2.77368E-20
5.23711E-03 2.64591E-20
5.36383E-03 2.52549E-20
5.49207E-03 2.41189E-20
5.62181E-03 2.30468E-20
5.75306E-03 2.20343E-20
5.88581E-03 2.10772E-20
6.02007E-03 2.01722E-20
6.15583E-03 1.93156E-20
6.29310E-03 1.85047E-20
6.43187E-03 1.77361E-20
6.57214E-03 1.70077E-20
6.71392E-03 1.63165E-20
6.85720E-03 1.56606E-20
7.00198E-03 1.50375E-20
7.14827E-03 1.44457E-20
7.29605E-03 1.38829E-20
7.44534E-03 1.33477E-20
7.59612E-03 1.28382E-20
7.97965E-03 1.16683E-20
8.37255E-03 1.06303E-20
8.77480E-03 9.70656E-21
9.18641E-03 8.88230E-21
9.60736E-03 8.14486E-21
1.00376E-02 7.48343E-21
1.04773E-02 6.88877E-21
1.09262E-02 6.35289E-21
1.13844E-02 5.86892E-21
1.18520E-02 5.43088E-21
1.23288E-02 5.03362E-21
1.28150E-02 4.67265E-21
1.33104E-02 4.34402E-21
1.38150E-02 4.04430E-21
1.43290E-02 3.77045E-21
1.48521E-02 3.51984E-21
1.53845E-02 3.29011E-21
1.59262E-02 3.07919E-21
1.64770E-02 2.88526E-21
1.70371E-02 2.70668E-21
1.76063E-02 2.54199E-21
1.81848E-02 2.38992E-21
1.87724E-02 2.24931E-21
1.93692E-02 2.11914E-21
1.99751E-02 1.99846E-21
2.05901E-02 1.88646E-21
2.12143E-02 1.78240E-21
2.18476E-02 1.68559E-21
2.24900E-02 1.59544E-21
2.31415E-02 1.51139E-21
2.38021E-02 1.43296E-21
2.44717E-02 1.35968E-21
2.51504E-02 1.29116E-21
2.58382E-02 1.22703E-21
2.65349E-02 1.16694E-21
2.72407E-02 1.11059E-21
2.79555E-02 1.05771E-21
2.86793E-02 1.00803E-21
2.94120E-02 9.61326E-22
3.01537E-02 9.17379E-22
3.09043E-02 8.75996E-22
3.16639E-02 8.36995E-22
3.24324E-02 8.00211E-22
3.32098E-02 7.65494E-22
3.39961E-02 7.32701E-22
3.47912E-02 7.01708E-22
3.55952E-02 6.72390E-22
3.64081E-02 6.44643E-22
3.72297E-02 6.18363E-22
3.80602E-02 5.93456E-22
3.88995E-02 5.69838E-22
3.97476E-02 5.47424E-22
4.06044E-02 5.26144E-22
4.14700E-02 5.05926E-22
4.23443E-02 4.86707E-22
4.32273E-02 4.68427E-22
4.41190E-02 4.51030E-22
4.50194E-02 4.34465E-22
4.59284E-02 4.18684E-22
4.68461E-02 4.03641E-22
4.87074E-02 3.75606E-22
5.06030E-02 3.50057E-22
5.25328E-02 3.26730E-22
5.44967E-02 3.05391E-22
5.64946E-02 2.85836E-22
5.85262E-02 2.67887E-22
6.05914E-02 2.51383E-22
6.26901E-02 2.36184E-22
6.48222E-02 2.22165E-22
6.69873E-02 2.09216E-22
6.91854E-02 1.97238E-22
7.14163E-02 1.86142E-22
7.36799E-02 1.75850E-22
7.59760E-02 1.66292E-22
7.83043E-02 1.57403E-22
8.06647E-02 1.49126E-22
8.30571E-02 1.41411E-22
8.54812E-02 1.34211E-22
8.79369E-02 1.27485E-22
9.04240E-02 1.21193E-22
9.29422E-02 1.15303E-22
9.54915E-02 1.09782E-22
9.80716E-02 1.04603E-22
1.00682E-01 9.97398E-23
1.03323E-01 9.51686E-23
1.05995E-01 9.08681E-23
1.08696E-01 8.68187E-23
1.11427E-01 8.30025E-23
1.14188E-01 7.94030E-23
1.16978E-01 7.60051E-23
1.19797E-01 7.27951E-23
1.22645E-01 6.97602E-23
1.25522E-01 6.68886E-23
1.28428E-01 6.41696E-23
1.31361E-01 6.15933E-23
1.34323E-01 5.91504E-23
1.37313E-01 5.68324E-23
1.40330E-01 5.46315E-23
1.43375E-01 5.25404E-23
1.46447E-01 5.05524E-23
1.49545E-01 4.86612E-23
1.52671E-01 4.68610E-23
1.55823E-01 4.51465E-23
1.59001E-01 4.35125E-23
1.62205E-01 4.19545E-23
1.65435E-01 4.04681E-23
1.68690E-01 3.90493E-23
1.71970E-01 3.76941E-23
1.75276E-01 3.63992E-23
1.78606E-01 3.51612E-23
1.81961E-01 3.39770E-23
1.85340E-01 3.28438E-23
1.88743E-01 3.17588E-23
1.92169E-01 3.07195E-23
1.95619E-01 2.97235E-23
1.99092E-01 2.87686E-23
2.02589E-01 2.78528E-23
2.06107E-01 2.69739E-23
2.09649E-01 2.61302E-23
2.13212E-01 2.53200E-23
2.16797E-01 2.45415E-23
2.20404E-01 2.37933E-23
2.24032E-01 2.30740E-23
2.27680E-01 2.23820E-23
2.31350E-01 2.17162E-23
2.35040E-01 2.10753E-23
2.38751E-01 2.04582E-23
2.42481E-01 1.98637E-23
2.46231E-01 1.92910E-23
2.50000E-01 1.87388E-23
2.53788E-01 1.82064E-23
2.57595E-01 1.76929E-23
2.61421E-01 1.71975E-23
2.65264E-01 1.67193E-23
2.69126E-01 1.62576E-23
2.73005E-01 1.58117E-23
2.76901E-01 1.53809E-23
2.80814E-01 1.49647E-23
2.84744E-01 1.45624E-23
2.88691E-01 1.41734E-23
2.92653E-01 1.37972E-23
2.96632E-01 1.34333E-23
3.00625E-01 1.30811E-23
3.04634E-01 1.27403E-23
3.08658E-01 1.24103E-23
3.12697E-01 1.20907E-23
3.16749E-01 1.17811E-23
3.20816E-01 1.14812E-23
3.24896E-01 1.11905E-23
3.28990E-01 1.09087E-23
3.33097E-01 1.06355E-23
3.37216E-01 1.03706E-23
3.41348E-01 1.01136E-23
3.45492E-01 9.86421E-24
3.49647E-01 9.62223E-24
3.53814E-01 9.38734E-24
3.57992E-01 9.15930E-24
3.62181E-01 8.93785E-24
3.66381E-01 8.72276E-24
3.70590E-01 8.51382E-24
3.74810E-01 8.31079E-24
3.79039E-01 8.11349E-24
3.83277E-01 7.92169E-24
3.87524E-01 7.73523E-24
3.91780E-01 7.55391E-24
3.96044E-01 7.37757E-24
4.00316E-01 7.20603E-24
4.04596E-01 7.03913E-24
4.08882E-01 6.87672E-24
4.13176E-01 6.71865E-24
4.17476E-01 6.56478E-24
4.21783E-01 6.41497E-24
4.26095E-01 6.26910E-24
4.30413E-01 6.12702E-24
4.34737E-01 5.98863E-24
4.39065E-01 5.85381E-24
4.43398E-01 5.72245E-24
4.47736E-01 5.59442E-24
4.52077E-01 5.46964E-24
4.56422E-01 5.34800E-24
4.60770E-01 5.22941E-24
4.65122E-01 5.11376E-24
4.69476E-01 5.00098E-24
4.73832E-01 4.89098E-24
4.78190E-01 4.78367E-24
4.82550E-01 4.67897E-24
4.86912E-01 4.57681E-24
4.91274E-01 4.47711E-24
4.95637E-01 4.37979E-24
5.00000E-01 4.28480E-24
5.04363E-01 4.19206E-24
5.08726E-01 4.10151E-24
5.13088E-01 4.01308E-24
5.17450E-01 3.92672E-24
5.21810E-01 3.84236E-24
5.26168E-01 3.75996E-24
5.30524E-01 3.67945E-24
5.34878E-01 3.60079E-24
5.39230E-01 3.52391E-24
5.43578E-01 3.44878E-24
5.47923E-01 3.37535E-24
5.52264E-01 3.30357E-24
5.56602E-01 3.23339E-24
5.60935E-01 3.16478E-24
5.65263E-01 3.09768E-24
5.69587E-01 3.03207E-24
5.73905E-01 2.96790E-24
5.78217E-01 2.90513E-24
5.82524E-01 2.84373E-24
5.86824E-01 2.78366E-24
5.91118E-01 2.72489E-24
5.95404E-01 2.66738E-24
5.99684E-01 2.61111E-24
6.03956E-01 2.55604E-24
6.08220E-01 2.50213E-24
6.12476E-01 2.44937E-24
6.16723E-01 2.39772E-24
6.20961E-01 2.34716E-24
6.25190E-01 2.29764E-24
6.29410E-01 2.24915E-24
6.33619E-01 2.20166E-24
6.37819E-01 2.15516E-24
6.42008E-01 2.10961E-24
6.46186E-01 2.06500E-24
6.50353E-01 2.02131E-24
6.54508E-01 1.97850E-24
6.58652E-01 1.93657E-24
6.62784E-01 1.89548E-24
6.66903E-01 1.85523E-24
6.71010E-01 1.81578E-24
6.75104E-01 1.77713E-24
6.79184E-01 1.73925E-24
6.83251E-01 1.70212E-24
6.87303E-01 1.66574E-24
6.91342E-01 1.63007E-24
6.95366E-01 1.59511E-24
6.99375E-01 1.56084E-24
7.03368E-01 1.52725E-24
7.07347E-01 1.49431E-24
7.11309E-01 1.46201E-24
7.15256E-01 1.43035E-24
7.19186E-01 1.39931E-24
7.23099E-01 1.36886E-24
7.26995E-01 1.33901E-24
7.30874E-01 1.30973E-24
7.34736E-01 1.28102E-24
7.38579E-01 1.25286E-24
7.42405E-01 1.22524E-24
7.46212E-01 1.19815E-24
7.50000E-01 1.17158E-24
7.53769E-01 1.14552E-24
7.57519E-01 1.11995E-24
7.61249E-01 1.09487E-24
7.64960E-01 1.07027E-24
7.68650E-01 1.04613E-24
7.72320E-01 1.02246E-24
7.75968E-01 9.99226E-25
7.79596E-01 9.76435E-25
7.83203E-01 9.54074E-25
7.86788E-01 9.32135E-25
7.90351E-01 9.10610E-25
7.93893E-01 8.89490E-25
7.97411E-01 8.68767E-25
8.00908E-01 8.48434E-25
8.04381E-01 8.28484E-25
8.07831E-01 8.08908E-25
8.11257E-01 7.89699E-25
8.14660E-01 7.70852E-25
8.18039E-01 7.52358E-25
8.21394E-01 7.34211E-25
8.24724E-01 7.16405E-25
8.28030E-01 6.98934E-25
8.31310E-01 6.81791E-25
8.34565E-01 6.64970E-25
8.37795E-01 6.48465E-25
8.40999E-01 6.32271E-25
8.44177E-01 6.16382E-25
8.47329E-01 6.00793E-25
8.50455E-01 5.85498E-25
8.53553E-01 5.70492E-25
8.56625E-01 5.55770E-25
8.59670E-01 5.41328E-25
8.62687E-01 5.27159E-25
8.65677E-01 5.13261E-25
8.68639E-01 4.99627E-25
8.71572E-01 4.86254E-25
8.74478E-01 4.73138E-25
8.77355E-01 4.60273E-25
8.80203E-01 4.47656E-25
8.83022E-01 4.35283E-25
8.85812E-01 4.23150E-25
8.88573E-01 4.11253E-25
8.91304E-01 3.99587E-25
8.94005E-01 3.88151E-25
8.96677E-01 3.76939E-25
8.99318E-01 3.65949E-25
9.01928E-01 3.55177E-25
9.04508E-01 3.44619E-25
9.07058E-01 3.34273E-25
9.09576E-01 3.24135E-25
9.12063E-01 3.14202E-25
9.14519E-01 3.04472E-25
9.16943E-01 2.94941E-25
9.19335E-01 2.85606E-25
9.21696E-01 2.76464E-25
9.24024E-01 2.67513E-25
9.26320E-01 2.58751E-25
9.28584E-01 2.50174E-25
9.30815E-01 2.41780E-25
9.33013E-01 2.33567E-25
9.35178E-01 2.25531E-25
9.37310E-01 2.17672E-25
9.39409E-01 2.09986E-25
9.41474E-01 2.02471E-25
9.43505E-01 1.95126E-25
9.45503E-01 1.87947E-25
9.47467E-01 1.80934E-25
9.49397E-01 1.74083E-25
9.51293E-01 1.67393E-25
9.53154E-01 1.60863E-25
9.54981E-01 1.54489E-25
9.56773E-01 1.48271E-25
9.58530E-01 1.42207E-25
9.60252E-01 1.36295E-25
9.61940E-01 1.30533E-25
9.63592E-01 1.24920E-25
9.65209E-01 1.19454E-25
9.66790E-01 1.14134E-25
9.68336E-01 1.08958E-25
9.69846E-01 1.03924E-25
9.71321E-01 9.90324E-26
9.72759E-01 9.42804E-26
9.74162E-01 8.96673E-26
9.75528E-01 8.51916E-26
9.76858E-01 8.08521E-26
9.78152E-01 7.66478E-26
9.79410E-01 7.25774E-26
9.80631E-01 6.86398E-26
9.81815E-01 6.48340E-26
9.82963E-01 6.11590E-26
9.84074E-01 5.76138E-26
9.85148E-01 5.41973E-26
9.86185E-01 5.09088E-26
9.87185E-01 4.77473E-26
9.88148E-01 4.47120E-26
9.89074E-01 4.18020E-26
9.89962E-01 3.90167E-26
9.90814E-01 3.63552E-26
9.91627E-01 3.38168E-26
9.92404E-01 3.14010E-26
9.93143E-01 2.91070E-26
9.93844E-01 2.69342E-26
9.94508E-01 2.48821E-26
9.95134E-01 2.29501E-26
9.95722E-01 2.11377E-26
9.96273E-01 1.94445E-26
9.96786E-01 1.78699E-26
9.97261E-01 1.64136E-26
9.97698E-01 1.50753E-26
9.98097E-01 1.38545E-26
9.98459E-01 1.27509E-26
9.98782E-01 1.17642E-26
9.99067E-01 1.08943E-26
9.99315E-01 1.01407E-26
9.99524E-01 9.50349E-27
9.99695E-01 8.98232E-27
9.99829E-01 8.57712E-27
9.99924E-01 8.28776E-27
9.99981E-01 8.11417E-27
1.00000E+00 8.05631E-27
