 #
 # Subroutine ELSEPA. Elastic scattering of electrons and positrons
 #                    by neutral atoms and positive ions
 #
 # Projectile: electron
 # Kinetic energy = 1.25000E+07 eV = 4.59367E+05 a.u.
 #
 # WARNING: High-energy factorization with free-atom DF screening.
 #          Absorption, polarization and exchange corrections are
 #          switched off.
 #          Phase shifts are calculated for the bare nucleus.
 #          Scattering amplitudes are not evaluated.
 #
 # Element: Re,  Z =  75,  atomic weight = 1.86207E+02 g/mol
 #
 # Nuclear model: Fermi distribution
 #                Average radius = 6.11011E-13 cm
 #                Skin thickness = 5.46000E-14 cm
 #
 # Number of electrons = 75
 #
 # Total elastic cross section = 7.61934E-18 cm**2 = 2.72092E-01 a0**2
 # 1st transport cross section = 6.07829E-23 cm**2 = 2.17060E-06 a0**2
 # 2nd transport cross section = 1.68549E-22 cm**2 = 6.01901E-06 a0**2
 #
 #
 # Differential cross section:                       MU=(1-COS(THETA))/2
 #
 #  THETA        MU          DCS          DCS        Sherman      error
 #  (deg)                 (cm**2/sr)   (a0**2/sr)    function
 #----------------------------------------------------------------------
0.00000E+00 9.16891E-12
7.61557E-13 9.16854E-12
1.18994E-12 9.16834E-12
1.71346E-12 9.16809E-12
2.33225E-12 9.16779E-12
3.04617E-12 9.16745E-12
3.85530E-12 9.16706E-12
4.75964E-12 9.16663E-12
5.75917E-12 9.16616E-12
6.85391E-12 9.16564E-12
8.04379E-12 9.16507E-12
9.32893E-12 9.16446E-12
1.07092E-11 9.16380E-12
1.21847E-11 9.16310E-12
1.37554E-11 9.16235E-12
1.54213E-11 9.16156E-12
1.71823E-11 9.16072E-12
1.90386E-11 9.15984E-12
2.09900E-11 9.15891E-12
2.30367E-11 9.15794E-12
2.51785E-11 9.15693E-12
2.74156E-11 9.15586E-12
2.97478E-11 9.15476E-12
3.21752E-11 9.15361E-12
3.46979E-11 9.15241E-12
3.73157E-11 9.15117E-12
4.00286E-11 9.14988E-12
4.28368E-11 9.14855E-12
4.57402E-11 9.14718E-12
4.87388E-11 9.14576E-12
5.18325E-11 9.14430E-12
5.50215E-11 9.14279E-12
5.83057E-11 9.14123E-12
6.16850E-11 9.13964E-12
6.51595E-11 9.13799E-12
6.87293E-11 9.13631E-12
7.23943E-11 9.13458E-12
7.61544E-11 9.13280E-12
1.18991E-10 9.11262E-12
1.71347E-10 9.08806E-12
2.33223E-10 9.05919E-12
3.04617E-10 9.02607E-12
3.85531E-10 8.98879E-12
4.75965E-10 8.94743E-12
5.75917E-10 8.90210E-12
6.85389E-10 8.85290E-12
8.04380E-10 8.79995E-12
9.32891E-10 8.74337E-12
1.07092E-09 8.68329E-12
1.21847E-09 8.61984E-12
1.37554E-09 8.55308E-12
1.54213E-09 8.48274E-12
1.71823E-09 8.40983E-12
1.90386E-09 8.33456E-12
2.09900E-09 8.25710E-12
2.30367E-09 8.17587E-12
2.51785E-09 8.09262E-12
2.74156E-09 8.00774E-12
2.97478E-09 7.92143E-12
3.21752E-09 7.83220E-12
3.46978E-09 7.74110E-12
3.73156E-09 7.64910E-12
4.00286E-09 7.55639E-12
4.28368E-09 7.46184E-12
4.57402E-09 7.36536E-12
4.87388E-09 7.26867E-12
5.18326E-09 7.17191E-12
5.50215E-09 7.07450E-12
5.83057E-09 6.97497E-12
6.16850E-09 6.87581E-12
6.51596E-09 6.77715E-12
6.87293E-09 6.67906E-12
7.23942E-09 6.57855E-12
7.61544E-09 6.47890E-12
1.18991E-08 5.51291E-12
1.71347E-08 4.63662E-12
2.33223E-08 3.88264E-12
3.04617E-08 3.25452E-12
3.85531E-08 2.73763E-12
4.75965E-08 2.31617E-12
5.75917E-08 1.97223E-12
6.85389E-08 1.68967E-12
8.04380E-08 1.45680E-12
9.32891E-08 1.26315E-12
1.07092E-07 1.10090E-12
1.21847E-07 9.64258E-13
1.37554E-07 8.47019E-13
1.54213E-07 7.41708E-13
1.71823E-07 6.55883E-13
1.90386E-07 5.85248E-13
2.09900E-07 5.26573E-13
2.30367E-07 4.69026E-13
2.51785E-07 4.19986E-13
2.74156E-07 3.78651E-13
2.97478E-07 3.43557E-13
3.21752E-07 3.10594E-13
3.46978E-07 2.81089E-13
3.73156E-07 2.55732E-13
4.00286E-07 2.33815E-13
4.28368E-07 2.13774E-13
4.57402E-07 1.95224E-13
4.87388E-07 1.79027E-13
5.18325E-07 1.64819E-13
5.50215E-07 1.52024E-13
5.83057E-07 1.39877E-13
6.16850E-07 1.29133E-13
6.51596E-07 1.19593E-13
6.87293E-07 1.11084E-13
7.23942E-07 1.02834E-13
7.61543E-07 9.54589E-14
1.18991E-06 4.86357E-14
1.71347E-06 2.69140E-14
2.33223E-06 1.59234E-14
3.04617E-06 9.99784E-15
3.85531E-06 6.60155E-15
4.75964E-06 4.55000E-15
5.75916E-06 3.25025E-15
6.85388E-06 2.38626E-15
8.04378E-06 1.79234E-15
9.32888E-06 1.37284E-15
1.07092E-05 1.06939E-15
1.21846E-05 8.45204E-16
1.37553E-05 6.76396E-16
1.54212E-05 5.47454E-16
1.71822E-05 4.48164E-16
1.90385E-05 3.70149E-16
2.09899E-05 3.08621E-16
2.30365E-05 2.59486E-16
2.51783E-05 2.19512E-16
2.74153E-05 1.86990E-16
2.97475E-05 1.60225E-16
3.21749E-05 1.38069E-16
3.46974E-05 1.19667E-16
3.73152E-05 1.04194E-16
4.00281E-05 9.11865E-17
4.28362E-05 8.01422E-17
4.57395E-05 7.07217E-17
4.87380E-05 6.26530E-17
5.18317E-05 5.56865E-17
5.50205E-05 4.96700E-17
5.83045E-05 4.44395E-17
6.16838E-05 3.98827E-17
6.51582E-05 3.58997E-17
6.87277E-05 3.23999E-17
7.23925E-05 2.93217E-17
7.61524E-05 2.65975E-17
9.21439E-05 1.84179E-17
1.09658E-04 1.31548E-17
1.28695E-04 9.64623E-18
1.49255E-04 7.23243E-18
1.71338E-04 5.52839E-18
1.94942E-04 4.29771E-18
2.20070E-04 3.39094E-18
2.46720E-04 2.71114E-18
2.74892E-04 2.19346E-18
3.04586E-04 1.79363E-18
3.35803E-04 1.48094E-18
3.68542E-04 1.23357E-18
4.02802E-04 1.03579E-18
4.38585E-04 8.76171E-19
4.75889E-04 7.46183E-19
5.14715E-04 6.39474E-19
5.55063E-04 5.51211E-19
5.96931E-04 4.77692E-19
6.40321E-04 4.16058E-19
6.85233E-04 3.64074E-19
7.31665E-04 3.19981E-19
7.79618E-04 2.82381E-19
8.29092E-04 2.50159E-19
8.80086E-04 2.22417E-19
9.32601E-04 1.98428E-19
9.86636E-04 1.77595E-19
1.04219E-03 1.59435E-19
1.09927E-03 1.43544E-19
1.15786E-03 1.29591E-19
1.21797E-03 1.17298E-19
1.27961E-03 1.06433E-19
1.34276E-03 9.68022E-20
1.40743E-03 8.82397E-20
1.47362E-03 8.06068E-20
1.54133E-03 7.37847E-20
1.61056E-03 6.76719E-20
1.68131E-03 6.21817E-20
1.75357E-03 5.72393E-20
1.82735E-03 5.27803E-20
1.90265E-03 4.87490E-20
1.97947E-03 4.50969E-20
2.05780E-03 4.17820E-20
2.13765E-03 3.87676E-20
2.21902E-03 3.60214E-20
2.30190E-03 3.35154E-20
2.38630E-03 3.12245E-20
2.47222E-03 2.91271E-20
2.55965E-03 2.72038E-20
2.64859E-03 2.54375E-20
2.73905E-03 2.38130E-20
2.83103E-03 2.23169E-20
2.92452E-03 2.09371E-20
3.01952E-03 1.96630E-20
3.11604E-03 1.84849E-20
3.21407E-03 1.73942E-20
3.31362E-03 1.63834E-20
3.41468E-03 1.54454E-20
3.51725E-03 1.45740E-20
3.62133E-03 1.37637E-20
3.72692E-03 1.30093E-20
3.83403E-03 1.23063E-20
3.94265E-03 1.16504E-20
4.05278E-03 1.10380E-20
4.16442E-03 1.04656E-20
4.27757E-03 9.93019E-21
4.39223E-03 9.42882E-21
4.50840E-03 8.95895E-21
4.62608E-03 8.51824E-21
4.74527E-03 8.10453E-21
4.86597E-03 7.71585E-21
4.98817E-03 7.35041E-21
5.11188E-03 7.00654E-21
5.23711E-03 6.68274E-21
5.36383E-03 6.37760E-21
5.49207E-03 6.08985E-21
5.62181E-03 5.81831E-21
5.75306E-03 5.56189E-21
5.88581E-03 5.31958E-21
6.02007E-03 5.09047E-21
6.15583E-03 4.87368E-21
6.29310E-03 4.66844E-21
6.43187E-03 4.47401E-21
6.57214E-03 4.28971E-21
6.71392E-03 4.11490E-21
6.85720E-03 3.94902E-21
7.00198E-03 3.79151E-21
7.14827E-03 3.64187E-21
7.29605E-03 3.49962E-21
7.44534E-03 3.36434E-21
7.59612E-03 3.23562E-21
7.97965E-03 2.94006E-21
8.37255E-03 2.67789E-21
8.77480E-03 2.44467E-21
9.18641E-03 2.23663E-21
9.60736E-03 2.05055E-21
1.00376E-02 1.88370E-21
1.04773E-02 1.73372E-21
1.09262E-02 1.59859E-21
1.13844E-02 1.47658E-21
1.18520E-02 1.36617E-21
1.23288E-02 1.26606E-21
1.28150E-02 1.17511E-21
1.33104E-02 1.09232E-21
1.38150E-02 1.01682E-21
1.43290E-02 9.47847E-22
1.48521E-02 8.84735E-22
1.53845E-02 8.26889E-22
1.59262E-02 7.73786E-22
1.64770E-02 7.24962E-22
1.70371E-02 6.80008E-22
1.76063E-02 6.38555E-22
1.81848E-02 6.00280E-22
1.87724E-02 5.64893E-22
1.93692E-02 5.32132E-22
1.99751E-02 5.01765E-22
2.05901E-02 4.73582E-22
2.12143E-02 4.47396E-22
2.18476E-02 4.23038E-22
2.24900E-02 4.00355E-22
2.31415E-02 3.79209E-22
2.38021E-02 3.59475E-22
2.44717E-02 3.41040E-22
2.51504E-02 3.23802E-22
2.58382E-02 3.07667E-22
2.65349E-02 2.92551E-22
2.72407E-02 2.78377E-22
2.79555E-02 2.65073E-22
2.86793E-02 2.52577E-22
2.94120E-02 2.40828E-22
3.01537E-02 2.29773E-22
3.09043E-02 2.19363E-22
3.16639E-02 2.09553E-22
3.24324E-02 2.00301E-22
3.32098E-02 1.91568E-22
3.39961E-02 1.83320E-22
3.47912E-02 1.75524E-22
3.55952E-02 1.68150E-22
3.64081E-02 1.61171E-22
3.72297E-02 1.54562E-22
3.80602E-02 1.48298E-22
3.88995E-02 1.42357E-22
3.97476E-02 1.36720E-22
4.06044E-02 1.31369E-22
4.14700E-02 1.26284E-22
4.23443E-02 1.21451E-22
4.32273E-02 1.16854E-22
4.41190E-02 1.12480E-22
4.50194E-02 1.08314E-22
4.59284E-02 1.04346E-22
4.68461E-02 1.00564E-22
4.87074E-02 9.35157E-23
5.06030E-02 8.70932E-23
5.25328E-02 8.12297E-23
5.44967E-02 7.58666E-23
5.64946E-02 7.09529E-23
5.85262E-02 6.64430E-23
6.05914E-02 6.22971E-23
6.26901E-02 5.84797E-23
6.48222E-02 5.49595E-23
6.69873E-02 5.17086E-23
6.91854E-02 4.87020E-23
7.14163E-02 4.59177E-23
7.36799E-02 4.33358E-23
7.59760E-02 4.09384E-23
7.83043E-02 3.87097E-23
8.06647E-02 3.66353E-23
8.30571E-02 3.47023E-23
8.54812E-02 3.28989E-23
8.79369E-02 3.12147E-23
9.04240E-02 2.96400E-23
9.29422E-02 2.81664E-23
9.54915E-02 2.67858E-23
9.80716E-02 2.54912E-23
1.00682E-01 2.42761E-23
1.03323E-01 2.31345E-23
1.05995E-01 2.20611E-23
1.08696E-01 2.10509E-23
1.11427E-01 2.00993E-23
1.14188E-01 1.92023E-23
1.16978E-01 1.83560E-23
1.19797E-01 1.75570E-23
1.22645E-01 1.68020E-23
1.25522E-01 1.60881E-23
1.28428E-01 1.54126E-23
1.31361E-01 1.47729E-23
1.34323E-01 1.41668E-23
1.37313E-01 1.35921E-23
1.40330E-01 1.30468E-23
1.43375E-01 1.25291E-23
1.46447E-01 1.20373E-23
1.49545E-01 1.15699E-23
1.52671E-01 1.11253E-23
1.55823E-01 1.07021E-23
1.59001E-01 1.02990E-23
1.62205E-01 9.91500E-24
1.65435E-01 9.54891E-24
1.68690E-01 9.19976E-24
1.71970E-01 8.86658E-24
1.75276E-01 8.54850E-24
1.78606E-01 8.24467E-24
1.81961E-01 7.95432E-24
1.85340E-01 7.67672E-24
1.88743E-01 7.41120E-24
1.92169E-01 7.15710E-24
1.95619E-01 6.91383E-24
1.99092E-01 6.68083E-24
2.02589E-01 6.45757E-24
2.06107E-01 6.24356E-24
2.09649E-01 6.03833E-24
2.13212E-01 5.84144E-24
2.16797E-01 5.65248E-24
2.20404E-01 5.47106E-24
2.24032E-01 5.29682E-24
2.27680E-01 5.12940E-24
2.31350E-01 4.96850E-24
2.35040E-01 4.81378E-24
2.38751E-01 4.66498E-24
2.42481E-01 4.52181E-24
2.46231E-01 4.38402E-24
2.50000E-01 4.25135E-24
2.53788E-01 4.12359E-24
2.57595E-01 4.00050E-24
2.61421E-01 3.88188E-24
2.65264E-01 3.76754E-24
2.69126E-01 3.65728E-24
2.73005E-01 3.55093E-24
2.76901E-01 3.44833E-24
2.80814E-01 3.34931E-24
2.84744E-01 3.25372E-24
2.88691E-01 3.16141E-24
2.92653E-01 3.07226E-24
2.96632E-01 2.98612E-24
3.00625E-01 2.90289E-24
3.04634E-01 2.82243E-24
3.08658E-01 2.74464E-24
3.12697E-01 2.66941E-24
3.16749E-01 2.59663E-24
3.20816E-01 2.52622E-24
3.24896E-01 2.45808E-24
3.28990E-01 2.39212E-24
3.33097E-01 2.32825E-24
3.37216E-01 2.26640E-24
3.41348E-01 2.20649E-24
3.45492E-01 2.14845E-24
3.49647E-01 2.09220E-24
3.53814E-01 2.03768E-24
3.57992E-01 1.98483E-24
3.62181E-01 1.93358E-24
3.66381E-01 1.88388E-24
3.70590E-01 1.83566E-24
3.74810E-01 1.78888E-24
3.79039E-01 1.74349E-24
3.83277E-01 1.69944E-24
3.87524E-01 1.65667E-24
3.91780E-01 1.61514E-24
3.96044E-01 1.57482E-24
4.00316E-01 1.53565E-24
4.04596E-01 1.49760E-24
4.08882E-01 1.46063E-24
4.13176E-01 1.42471E-24
4.17476E-01 1.38980E-24
4.21783E-01 1.35586E-24
4.26095E-01 1.32286E-24
4.30413E-01 1.29077E-24
4.34737E-01 1.25957E-24
4.39065E-01 1.22921E-24
4.43398E-01 1.19968E-24
4.47736E-01 1.17095E-24
4.52077E-01 1.14299E-24
4.56422E-01 1.11578E-24
4.60770E-01 1.08929E-24
4.65122E-01 1.06351E-24
4.69476E-01 1.03840E-24
4.73832E-01 1.01395E-24
4.78190E-01 9.90135E-25
4.82550E-01 9.66940E-25
4.86912E-01 9.44343E-25
4.91274E-01 9.22326E-25
4.95637E-01 9.00873E-25
5.00000E-01 8.79965E-25
5.04363E-01 8.59586E-25
5.08726E-01 8.39721E-25
5.13088E-01 8.20354E-25
5.17450E-01 8.01470E-25
5.21810E-01 7.83056E-25
5.26168E-01 7.65097E-25
5.30524E-01 7.47581E-25
5.34878E-01 7.30494E-25
5.39230E-01 7.13825E-25
5.43578E-01 6.97560E-25
5.47923E-01 6.81689E-25
5.52264E-01 6.66201E-25
5.56602E-01 6.51084E-25
5.60935E-01 6.36329E-25
5.65263E-01 6.21924E-25
5.69587E-01 6.07861E-25
5.73905E-01 5.94130E-25
5.78217E-01 5.80722E-25
5.82524E-01 5.67628E-25
5.86824E-01 5.54839E-25
5.91118E-01 5.42348E-25
5.95404E-01 5.30145E-25
5.99684E-01 5.18224E-25
6.03956E-01 5.06577E-25
6.08220E-01 4.95196E-25
6.12476E-01 4.84074E-25
6.16723E-01 4.73206E-25
6.20961E-01 4.62583E-25
6.25190E-01 4.52200E-25
6.29410E-01 4.42050E-25
6.33619E-01 4.32128E-25
6.37819E-01 4.22427E-25
6.42008E-01 4.12942E-25
6.46186E-01 4.03667E-25
6.50353E-01 3.94598E-25
6.54508E-01 3.85728E-25
6.58652E-01 3.77052E-25
6.62784E-01 3.68567E-25
6.66903E-01 3.60267E-25
6.71010E-01 3.52147E-25
6.75104E-01 3.44203E-25
6.79184E-01 3.36432E-25
6.83251E-01 3.28827E-25
6.87303E-01 3.21387E-25
6.91342E-01 3.14105E-25
6.95366E-01 3.06980E-25
6.99375E-01 3.00006E-25
7.03368E-01 2.93181E-25
7.07347E-01 2.86500E-25
7.11309E-01 2.79961E-25
7.15256E-01 2.73559E-25
7.19186E-01 2.67293E-25
7.23099E-01 2.61158E-25
7.26995E-01 2.55151E-25
7.30874E-01 2.49270E-25
7.34736E-01 2.43512E-25
7.38579E-01 2.37873E-25
7.42405E-01 2.32352E-25
7.46212E-01 2.26945E-25
7.50000E-01 2.21649E-25
7.53769E-01 2.16464E-25
7.57519E-01 2.11384E-25
7.61249E-01 2.06410E-25
7.64960E-01 2.01537E-25
7.68650E-01 1.96765E-25
7.72320E-01 1.92090E-25
7.75968E-01 1.87510E-25
7.79596E-01 1.83024E-25
7.83203E-01 1.78630E-25
7.86788E-01 1.74324E-25
7.90351E-01 1.70107E-25
7.93893E-01 1.65975E-25
7.97411E-01 1.61926E-25
8.00908E-01 1.57960E-25
8.04381E-01 1.54074E-25
8.07831E-01 1.50267E-25
8.11257E-01 1.46536E-25
8.14660E-01 1.42881E-25
8.18039E-01 1.39300E-25
8.21394E-01 1.35791E-25
8.24724E-01 1.32353E-25
8.28030E-01 1.28984E-25
8.31310E-01 1.25683E-25
8.34565E-01 1.22449E-25
8.37795E-01 1.19280E-25
8.40999E-01 1.16175E-25
8.44177E-01 1.13133E-25
8.47329E-01 1.10152E-25
8.50455E-01 1.07231E-25
8.53553E-01 1.04370E-25
8.56625E-01 1.01566E-25
8.59670E-01 9.88192E-26
8.62687E-01 9.61280E-26
8.65677E-01 9.34916E-26
8.68639E-01 9.09087E-26
8.71572E-01 8.83785E-26
8.74478E-01 8.58999E-26
8.77355E-01 8.34720E-26
8.80203E-01 8.10939E-26
8.83022E-01 7.87646E-26
8.85812E-01 7.64832E-26
8.88573E-01 7.42490E-26
8.91304E-01 7.20610E-26
8.94005E-01 6.99184E-26
8.96677E-01 6.78204E-26
8.99318E-01 6.57663E-26
9.01928E-01 6.37553E-26
9.04508E-01 6.17866E-26
9.07058E-01 5.98595E-26
9.09576E-01 5.79733E-26
9.12063E-01 5.61273E-26
9.14519E-01 5.43209E-26
9.16943E-01 5.25534E-26
9.19335E-01 5.08242E-26
9.21696E-01 4.91326E-26
9.24024E-01 4.74780E-26
9.26320E-01 4.58599E-26
9.28584E-01 4.42777E-26
9.30815E-01 4.27308E-26
9.33013E-01 4.12186E-26
9.35178E-01 3.97407E-26
9.37310E-01 3.82965E-26
9.39409E-01 3.68856E-26
9.41474E-01 3.55074E-26
9.43505E-01 3.41614E-26
9.45503E-01 3.28472E-26
9.47467E-01 3.15644E-26
9.49397E-01 3.03124E-26
9.51293E-01 2.90910E-26
9.53154E-01 2.78996E-26
9.54981E-01 2.67378E-26
9.56773E-01 2.56053E-26
9.58530E-01 2.45017E-26
9.60252E-01 2.34266E-26
9.61940E-01 2.23797E-26
9.63592E-01 2.13605E-26
9.65209E-01 2.03688E-26
9.66790E-01 1.94042E-26
9.68336E-01 1.84665E-26
9.69846E-01 1.75552E-26
9.71321E-01 1.66702E-26
9.72759E-01 1.58110E-26
9.74162E-01 1.49775E-26
9.75528E-01 1.41693E-26
9.76858E-01 1.33862E-26
9.78152E-01 1.26279E-26
9.79410E-01 1.18942E-26
9.80631E-01 1.11849E-26
9.81815E-01 1.04997E-26
9.82963E-01 9.83837E-27
9.84074E-01 9.20073E-27
9.85148E-01 8.58657E-27
9.86185E-01 7.99568E-27
9.87185E-01 7.42789E-27
9.88148E-01 6.88300E-27
9.89074E-01 6.36084E-27
9.89962E-01 5.86125E-27
9.90814E-01 5.38407E-27
9.91627E-01 4.92914E-27
9.92404E-01 4.49632E-27
9.93143E-01 4.08548E-27
9.93844E-01 3.69647E-27
9.94508E-01 3.32918E-27
9.95134E-01 2.98350E-27
9.95722E-01 2.65931E-27
9.96273E-01 2.35650E-27
9.96786E-01 2.07500E-27
9.97261E-01 1.81470E-27
9.97698E-01 1.57552E-27
9.98097E-01 1.35739E-27
9.98459E-01 1.16025E-27
9.98782E-01 9.84017E-28
9.99067E-01 8.28650E-28
9.99315E-01 6.94098E-28
9.99524E-01 5.80317E-28
9.99695E-01 4.87272E-28
9.99829E-01 4.14934E-28
9.99924E-01 3.63281E-28
9.99981E-01 3.32295E-28
1.00000E+00 3.21967E-28
