 #
 # Subroutine ELSEPA. Elastic scattering of electrons and positrons
 #                    by neutral atoms and positive ions
 #
 # Projectile: electron
 # Kinetic energy = 4.00000E+06 eV = 1.46997E+05 a.u.
 #
 # WARNING: High-energy factorization with free-atom DF screening.
 #          Absorption, polarization and exchange corrections are
 #          switched off.
 #          Phase shifts are calculated for the bare nucleus.
 #          Scattering amplitudes are not evaluated.
 #
 # Element: Re,  Z =  75,  atomic weight = 1.86207E+02 g/mol
 #
 # Nuclear model: Fermi distribution
 #                Average radius = 6.11011E-13 cm
 #                Skin thickness = 5.46000E-14 cm
 #
 # Number of electrons = 75
 #
 # Total elastic cross section = 7.71591E-18 cm**2 = 2.75540E-01 a0**2
 # 1st transport cross section = 4.54134E-22 cm**2 = 1.62174E-05 a0**2
 # 2nd transport cross section = 1.22192E-21 cm**2 = 4.36354E-05 a0**2
 #
 #
 # Differential cross section:                       MU=(1-COS(THETA))/2
 #
 #  THETA        MU          DCS          DCS        Sherman      error
 #  (deg)                 (cm**2/sr)   (a0**2/sr)    function
 #----------------------------------------------------------------------
0.00000E+00 1.10215E-12
7.61557E-13 1.10215E-12
1.18994E-12 1.10215E-12
1.71346E-12 1.10214E-12
2.33225E-12 1.10214E-12
3.04617E-12 1.10213E-12
3.85530E-12 1.10213E-12
4.75964E-12 1.10212E-12
5.75917E-12 1.10211E-12
6.85391E-12 1.10211E-12
8.04379E-12 1.10210E-12
9.32893E-12 1.10209E-12
1.07092E-11 1.10208E-12
1.21847E-11 1.10207E-12
1.37554E-11 1.10206E-12
1.54213E-11 1.10205E-12
1.71823E-11 1.10204E-12
1.90386E-11 1.10203E-12
2.09900E-11 1.10201E-12
2.30367E-11 1.10200E-12
2.51785E-11 1.10198E-12
2.74156E-11 1.10197E-12
2.97478E-11 1.10195E-12
3.21752E-11 1.10194E-12
3.46979E-11 1.10192E-12
3.73157E-11 1.10190E-12
4.00286E-11 1.10188E-12
4.28368E-11 1.10186E-12
4.57402E-11 1.10184E-12
4.87388E-11 1.10182E-12
5.18325E-11 1.10180E-12
5.50215E-11 1.10178E-12
5.83057E-11 1.10176E-12
6.16850E-11 1.10174E-12
6.51595E-11 1.10171E-12
6.87293E-11 1.10169E-12
7.23943E-11 1.10166E-12
7.61544E-11 1.10164E-12
1.18991E-10 1.10135E-12
1.71347E-10 1.10099E-12
2.33223E-10 1.10058E-12
3.04617E-10 1.10009E-12
3.85531E-10 1.09955E-12
4.75965E-10 1.09894E-12
5.75917E-10 1.09826E-12
6.85389E-10 1.09753E-12
8.04380E-10 1.09673E-12
9.32891E-10 1.09586E-12
1.07092E-09 1.09494E-12
1.21847E-09 1.09395E-12
1.37554E-09 1.09290E-12
1.54213E-09 1.09179E-12
1.71823E-09 1.09061E-12
1.90386E-09 1.08938E-12
2.09900E-09 1.08808E-12
2.30367E-09 1.08673E-12
2.51785E-09 1.08531E-12
2.74156E-09 1.08384E-12
2.97478E-09 1.08230E-12
3.21752E-09 1.08071E-12
3.46978E-09 1.07906E-12
3.73156E-09 1.07735E-12
4.00286E-09 1.07558E-12
4.28368E-09 1.07376E-12
4.57402E-09 1.07188E-12
4.87388E-09 1.06994E-12
5.18326E-09 1.06795E-12
5.50215E-09 1.06590E-12
5.83057E-09 1.06380E-12
6.16850E-09 1.06165E-12
6.51596E-09 1.05945E-12
6.87293E-09 1.05719E-12
7.23942E-09 1.05488E-12
7.61544E-09 1.05252E-12
1.18991E-08 1.02621E-12
1.71347E-08 9.95583E-13
2.33223E-08 9.61294E-13
3.04617E-08 9.24215E-13
3.85531E-08 8.85140E-13
4.75965E-08 8.44816E-13
5.75917E-08 8.03891E-13
6.85389E-08 7.62699E-13
8.04380E-08 7.22022E-13
9.32891E-08 6.82279E-13
1.07092E-07 6.43796E-13
1.21847E-07 6.06811E-13
1.37554E-07 5.71343E-13
1.54213E-07 5.37585E-13
1.71823E-07 5.05683E-13
1.90386E-07 4.75645E-13
2.09900E-07 4.47444E-13
2.30367E-07 4.21003E-13
2.51785E-07 3.96166E-13
2.74156E-07 3.72990E-13
2.97478E-07 3.51386E-13
3.21752E-07 3.31256E-13
3.46978E-07 3.12506E-13
3.73156E-07 2.94975E-13
4.00286E-07 2.78625E-13
4.28368E-07 2.63396E-13
4.57402E-07 2.49203E-13
4.87388E-07 2.35968E-13
5.18325E-07 2.23602E-13
5.50215E-07 2.12008E-13
5.83057E-07 2.01176E-13
6.16850E-07 1.91047E-13
6.51596E-07 1.81565E-13
6.87293E-07 1.72681E-13
7.23942E-07 1.64316E-13
7.61543E-07 1.56457E-13
1.18991E-06 9.86283E-14
1.71347E-06 6.54329E-14
2.33223E-06 4.49571E-14
3.04617E-06 3.19981E-14
3.85531E-06 2.34364E-14
4.75964E-06 1.75799E-14
5.75916E-06 1.34476E-14
6.85388E-06 1.04218E-14
8.04378E-06 8.20007E-15
9.32888E-06 6.53410E-15
1.07092E-05 5.26326E-15
1.21846E-05 4.28002E-15
1.37553E-05 3.50638E-15
1.54212E-05 2.89536E-15
1.71822E-05 2.41027E-15
1.90385E-05 2.02059E-15
2.09899E-05 1.70820E-15
2.30365E-05 1.45348E-15
2.51783E-05 1.24391E-15
2.74153E-05 1.07139E-15
2.97475E-05 9.27767E-16
3.21749E-05 8.07497E-16
3.46974E-05 7.06636E-16
3.73152E-05 6.21472E-16
4.00281E-05 5.49161E-16
4.28362E-05 4.87372E-16
4.57395E-05 4.34223E-16
4.87380E-05 3.88231E-16
5.18317E-05 3.48198E-16
5.50205E-05 3.13160E-16
5.83045E-05 2.82444E-16
6.16838E-05 2.55432E-16
6.51582E-05 2.31602E-16
6.87277E-05 2.10516E-16
7.23925E-05 1.91774E-16
7.61524E-05 1.75085E-16
9.21439E-05 1.24067E-16
1.09658E-04 9.02973E-17
1.28695E-04 6.72062E-17
1.49255E-04 5.10874E-17
1.71338E-04 3.95293E-17
1.94942E-04 3.10628E-17
2.20070E-04 2.47400E-17
2.46720E-04 1.99459E-17
2.74892E-04 1.62614E-17
3.04586E-04 1.33915E-17
3.35803E-04 1.11288E-17
3.68542E-04 9.32480E-18
4.02802E-04 7.87131E-18
4.38585E-04 6.69125E-18
4.75889E-04 5.72499E-18
5.14715E-04 4.92761E-18
5.55063E-04 4.26479E-18
5.96931E-04 3.70978E-18
6.40321E-04 3.24240E-18
6.85233E-04 2.84664E-18
7.31665E-04 2.50968E-18
7.79618E-04 2.22128E-18
8.29092E-04 1.97323E-18
8.80086E-04 1.75885E-18
9.32601E-04 1.57289E-18
9.86636E-04 1.41095E-18
1.04219E-03 1.26937E-18
1.09927E-03 1.14515E-18
1.15786E-03 1.03574E-18
1.21797E-03 9.39119E-19
1.27961E-03 8.53529E-19
1.34276E-03 7.77492E-19
1.40743E-03 7.09756E-19
1.47362E-03 6.49243E-19
1.54133E-03 5.95045E-19
1.61056E-03 5.46399E-19
1.68131E-03 5.02637E-19
1.75357E-03 4.63181E-19
1.82735E-03 4.27532E-19
1.90265E-03 3.95247E-19
1.97947E-03 3.65962E-19
2.05780E-03 3.39349E-19
2.13765E-03 3.15119E-19
2.21902E-03 2.93022E-19
2.30190E-03 2.72833E-19
2.38630E-03 2.54358E-19
2.47222E-03 2.37427E-19
2.55965E-03 2.21888E-19
2.64859E-03 2.07606E-19
2.73905E-03 1.94460E-19
2.83103E-03 1.82341E-19
2.92452E-03 1.71157E-19
3.01952E-03 1.60822E-19
3.11604E-03 1.51260E-19
3.21407E-03 1.42403E-19
3.31362E-03 1.34188E-19
3.41468E-03 1.26560E-19
3.51725E-03 1.19470E-19
3.62133E-03 1.12873E-19
3.72692E-03 1.06728E-19
3.83403E-03 1.00999E-19
3.94265E-03 9.56515E-20
4.05278E-03 9.06559E-20
4.16442E-03 8.59849E-20
4.27757E-03 8.16132E-20
4.39223E-03 7.75182E-20
4.50840E-03 7.36788E-20
4.62608E-03 7.00760E-20
4.74527E-03 6.66928E-20
4.86597E-03 6.35132E-20
4.98817E-03 6.05225E-20
5.11188E-03 5.77075E-20
5.23711E-03 5.50556E-20
5.36383E-03 5.25558E-20
5.49207E-03 5.01977E-20
5.62181E-03 4.79718E-20
5.75306E-03 4.58691E-20
5.88581E-03 4.38815E-20
6.02007E-03 4.20015E-20
6.15583E-03 4.02223E-20
6.29310E-03 3.85373E-20
6.43187E-03 3.69406E-20
6.57214E-03 3.54267E-20
6.71392E-03 3.39904E-20
6.85720E-03 3.26270E-20
7.00198E-03 3.13322E-20
7.14827E-03 3.01017E-20
7.29605E-03 2.89318E-20
7.44534E-03 2.78188E-20
7.59612E-03 2.67595E-20
7.97965E-03 2.43264E-20
8.37255E-03 2.21671E-20
8.77480E-03 2.02451E-20
9.18641E-03 1.85297E-20
9.60736E-03 1.69947E-20
1.00376E-02 1.56177E-20
1.04773E-02 1.43793E-20
1.09262E-02 1.32632E-20
1.13844E-02 1.22550E-20
1.18520E-02 1.13423E-20
1.23288E-02 1.05144E-20
1.28150E-02 9.76199E-21
1.33104E-02 9.07691E-21
1.38150E-02 8.45199E-21
1.43290E-02 7.88091E-21
1.48521E-02 7.35817E-21
1.53845E-02 6.87894E-21
1.59262E-02 6.43889E-21
1.64770E-02 6.03421E-21
1.70371E-02 5.66150E-21
1.76063E-02 5.31775E-21
1.81848E-02 5.00028E-21
1.87724E-02 4.70671E-21
1.93692E-02 4.43487E-21
1.99751E-02 4.18286E-21
2.05901E-02 3.94893E-21
2.12143E-02 3.73153E-21
2.18476E-02 3.52928E-21
2.24900E-02 3.34091E-21
2.31415E-02 3.16529E-21
2.38021E-02 3.00136E-21
2.44717E-02 2.84820E-21
2.51504E-02 2.70497E-21
2.58382E-02 2.57089E-21
2.65349E-02 2.44527E-21
2.72407E-02 2.32745E-21
2.79555E-02 2.21686E-21
2.86793E-02 2.11297E-21
2.94120E-02 2.01528E-21
3.01537E-02 1.92336E-21
3.09043E-02 1.83679E-21
3.16639E-02 1.75520E-21
3.24324E-02 1.67824E-21
3.32098E-02 1.60560E-21
3.39961E-02 1.53698E-21
3.47912E-02 1.47212E-21
3.55952E-02 1.41077E-21
3.64081E-02 1.35269E-21
3.72297E-02 1.29768E-21
3.80602E-02 1.24555E-21
3.88995E-02 1.19610E-21
3.97476E-02 1.14918E-21
4.06044E-02 1.10463E-21
4.14700E-02 1.06229E-21
4.23443E-02 1.02205E-21
4.32273E-02 9.83770E-22
4.41190E-02 9.47339E-22
4.50194E-02 9.12646E-22
4.59284E-02 8.79593E-22
4.68461E-02 8.48085E-22
4.87074E-02 7.89360E-22
5.06030E-02 7.35836E-22
5.25328E-02 6.86961E-22
5.44967E-02 6.42247E-22
5.64946E-02 6.01268E-22
5.85262E-02 5.63647E-22
6.05914E-02 5.29053E-22
6.26901E-02 4.97191E-22
6.48222E-02 4.67801E-22
6.69873E-02 4.40650E-22
6.91854E-02 4.15532E-22
7.14163E-02 3.92261E-22
7.36799E-02 3.70674E-22
7.59760E-02 3.50623E-22
7.83043E-02 3.31974E-22
8.06647E-02 3.14608E-22
8.30571E-02 2.98419E-22
8.54812E-02 2.83309E-22
8.79369E-02 2.69190E-22
9.04240E-02 2.55983E-22
9.29422E-02 2.43616E-22
9.54915E-02 2.32024E-22
9.80716E-02 2.21148E-22
1.00682E-01 2.10933E-22
1.03323E-01 2.01330E-22
1.05995E-01 1.92295E-22
1.08696E-01 1.83786E-22
1.11427E-01 1.75766E-22
1.14188E-01 1.68201E-22
1.16978E-01 1.61058E-22
1.19797E-01 1.54309E-22
1.22645E-01 1.47926E-22
1.25522E-01 1.41887E-22
1.28428E-01 1.36167E-22
1.31361E-01 1.30747E-22
1.34323E-01 1.25606E-22
1.37313E-01 1.20727E-22
1.40330E-01 1.16094E-22
1.43375E-01 1.11691E-22
1.46447E-01 1.07505E-22
1.49545E-01 1.03521E-22
1.52671E-01 9.97289E-23
1.55823E-01 9.61161E-23
1.59001E-01 9.26726E-23
1.62205E-01 8.93883E-23
1.65435E-01 8.62542E-23
1.68690E-01 8.32620E-23
1.71970E-01 8.04035E-23
1.75276E-01 7.76714E-23
1.78606E-01 7.50589E-23
1.81961E-01 7.25593E-23
1.85340E-01 7.01668E-23
1.88743E-01 6.78755E-23
1.92169E-01 6.56802E-23
1.95619E-01 6.35760E-23
1.99092E-01 6.15580E-23
2.02589E-01 5.96220E-23
2.06107E-01 5.77638E-23
2.09649E-01 5.59795E-23
2.13212E-01 5.42655E-23
2.16797E-01 5.26183E-23
2.20404E-01 5.10347E-23
2.24032E-01 4.95117E-23
2.27680E-01 4.80464E-23
2.31350E-01 4.66361E-23
2.35040E-01 4.52782E-23
2.38751E-01 4.39702E-23
2.42481E-01 4.27100E-23
2.46231E-01 4.14953E-23
2.50000E-01 4.03241E-23
2.53788E-01 3.91945E-23
2.57595E-01 3.81046E-23
2.61421E-01 3.70527E-23
2.65264E-01 3.60372E-23
2.69126E-01 3.50564E-23
2.73005E-01 3.41090E-23
2.76901E-01 3.31934E-23
2.80814E-01 3.23084E-23
2.84744E-01 3.14528E-23
2.88691E-01 3.06252E-23
2.92653E-01 2.98245E-23
2.96632E-01 2.90498E-23
3.00625E-01 2.82998E-23
3.04634E-01 2.75737E-23
3.08658E-01 2.68705E-23
3.12697E-01 2.61892E-23
3.16749E-01 2.55291E-23
3.20816E-01 2.48894E-23
3.24896E-01 2.42692E-23
3.28990E-01 2.36677E-23
3.33097E-01 2.30844E-23
3.37216E-01 2.25186E-23
3.41348E-01 2.19695E-23
3.45492E-01 2.14365E-23
3.49647E-01 2.09192E-23
3.53814E-01 2.04168E-23
3.57992E-01 1.99289E-23
3.62181E-01 1.94550E-23
3.66381E-01 1.89945E-23
3.70590E-01 1.85470E-23
3.74810E-01 1.81120E-23
3.79039E-01 1.76892E-23
3.83277E-01 1.72780E-23
3.87524E-01 1.68781E-23
3.91780E-01 1.64891E-23
3.96044E-01 1.61106E-23
4.00316E-01 1.57423E-23
4.04596E-01 1.53838E-23
4.08882E-01 1.50349E-23
4.13176E-01 1.46952E-23
4.17476E-01 1.43643E-23
4.21783E-01 1.40421E-23
4.26095E-01 1.37282E-23
4.30413E-01 1.34225E-23
4.34737E-01 1.31245E-23
4.39065E-01 1.28341E-23
4.43398E-01 1.25510E-23
4.47736E-01 1.22750E-23
4.52077E-01 1.20059E-23
4.56422E-01 1.17435E-23
4.60770E-01 1.14876E-23
4.65122E-01 1.12379E-23
4.69476E-01 1.09944E-23
4.73832E-01 1.07567E-23
4.78190E-01 1.05248E-23
4.82550E-01 1.02985E-23
4.86912E-01 1.00775E-23
4.91274E-01 9.86176E-24
4.95637E-01 9.65111E-24
5.00000E-01 9.44541E-24
5.04363E-01 9.24452E-24
5.08726E-01 9.04831E-24
5.13088E-01 8.85663E-24
5.17450E-01 8.66936E-24
5.21810E-01 8.48634E-24
5.26168E-01 8.30749E-24
5.30524E-01 8.13268E-24
5.34878E-01 7.96182E-24
5.39230E-01 7.79480E-24
5.43578E-01 7.63150E-24
5.47923E-01 7.47183E-24
5.52264E-01 7.31569E-24
5.56602E-01 7.16298E-24
5.60935E-01 7.01360E-24
5.65263E-01 6.86748E-24
5.69587E-01 6.72453E-24
5.73905E-01 6.58467E-24
5.78217E-01 6.44781E-24
5.82524E-01 6.31389E-24
5.86824E-01 6.18282E-24
5.91118E-01 6.05453E-24
5.95404E-01 5.92895E-24
5.99684E-01 5.80602E-24
6.03956E-01 5.68566E-24
6.08220E-01 5.56781E-24
6.12476E-01 5.45241E-24
6.16723E-01 5.33940E-24
6.20961E-01 5.22872E-24
6.25190E-01 5.12031E-24
6.29410E-01 5.01413E-24
6.33619E-01 4.91011E-24
6.37819E-01 4.80820E-24
6.42008E-01 4.70836E-24
6.46186E-01 4.61053E-24
6.50353E-01 4.51466E-24
6.54508E-01 4.42072E-24
6.58652E-01 4.32865E-24
6.62784E-01 4.23841E-24
6.66903E-01 4.14996E-24
6.71010E-01 4.06326E-24
6.75104E-01 3.97827E-24
6.79184E-01 3.89495E-24
6.83251E-01 3.81326E-24
6.87303E-01 3.73316E-24
6.91342E-01 3.65463E-24
6.95366E-01 3.57762E-24
6.99375E-01 3.50210E-24
7.03368E-01 3.42803E-24
7.07347E-01 3.35540E-24
7.11309E-01 3.28416E-24
7.15256E-01 3.21428E-24
7.19186E-01 3.14574E-24
7.23099E-01 3.07850E-24
7.26995E-01 3.01255E-24
7.30874E-01 2.94784E-24
7.34736E-01 2.88436E-24
7.38579E-01 2.82209E-24
7.42405E-01 2.76098E-24
7.46212E-01 2.70103E-24
7.50000E-01 2.64220E-24
7.53769E-01 2.58448E-24
7.57519E-01 2.52783E-24
7.61249E-01 2.47225E-24
7.64960E-01 2.41770E-24
7.68650E-01 2.36417E-24
7.72320E-01 2.31164E-24
7.75968E-01 2.26008E-24
7.79596E-01 2.20949E-24
7.83203E-01 2.15983E-24
7.86788E-01 2.11109E-24
7.90351E-01 2.06325E-24
7.93893E-01 2.01630E-24
7.97411E-01 1.97022E-24
8.00908E-01 1.92498E-24
8.04381E-01 1.88059E-24
8.07831E-01 1.83701E-24
8.11257E-01 1.79424E-24
8.14660E-01 1.75226E-24
8.18039E-01 1.71105E-24
8.21394E-01 1.67060E-24
8.24724E-01 1.63090E-24
8.28030E-01 1.59194E-24
8.31310E-01 1.55369E-24
8.34565E-01 1.51615E-24
8.37795E-01 1.47931E-24
8.40999E-01 1.44315E-24
8.44177E-01 1.40766E-24
8.47329E-01 1.37283E-24
8.50455E-01 1.33864E-24
8.53553E-01 1.30509E-24
8.56625E-01 1.27217E-24
8.59670E-01 1.23986E-24
8.62687E-01 1.20816E-24
8.65677E-01 1.17705E-24
8.68639E-01 1.14652E-24
8.71572E-01 1.11658E-24
8.74478E-01 1.08719E-24
8.77355E-01 1.05836E-24
8.80203E-01 1.03009E-24
8.83022E-01 1.00234E-24
8.85812E-01 9.75134E-25
8.88573E-01 9.48446E-25
8.91304E-01 9.22272E-25
8.94005E-01 8.96603E-25
8.96677E-01 8.71433E-25
8.99318E-01 8.46754E-25
9.01928E-01 8.22558E-25
9.04508E-01 7.98839E-25
9.07058E-01 7.75588E-25
9.09576E-01 7.52800E-25
9.12063E-01 7.30468E-25
9.14519E-01 7.08586E-25
9.16943E-01 6.87146E-25
9.19335E-01 6.66143E-25
9.21696E-01 6.45570E-25
9.24024E-01 6.25423E-25
9.26320E-01 6.05695E-25
9.28584E-01 5.86380E-25
9.30815E-01 5.67473E-25
9.33013E-01 5.48968E-25
9.35178E-01 5.30861E-25
9.37310E-01 5.13147E-25
9.39409E-01 4.95820E-25
9.41474E-01 4.78876E-25
9.43505E-01 4.62309E-25
9.45503E-01 4.46117E-25
9.47467E-01 4.30293E-25
9.49397E-01 4.14834E-25
9.51293E-01 3.99735E-25
9.53154E-01 3.84993E-25
9.54981E-01 3.70603E-25
9.56773E-01 3.56561E-25
9.58530E-01 3.42865E-25
9.60252E-01 3.29509E-25
9.61940E-01 3.16490E-25
9.63592E-01 3.03806E-25
9.65209E-01 2.91452E-25
9.66790E-01 2.79426E-25
9.68336E-01 2.67724E-25
9.69846E-01 2.56342E-25
9.71321E-01 2.45279E-25
9.72759E-01 2.34531E-25
9.74162E-01 2.24096E-25
9.75528E-01 2.13970E-25
9.76858E-01 2.04151E-25
9.78152E-01 1.94636E-25
9.79410E-01 1.85423E-25
9.80631E-01 1.76510E-25
9.81815E-01 1.67894E-25
9.82963E-01 1.59573E-25
9.84074E-01 1.51546E-25
9.85148E-01 1.43809E-25
9.86185E-01 1.36361E-25
9.87185E-01 1.29199E-25
9.88148E-01 1.22323E-25
9.89074E-01 1.15731E-25
9.89962E-01 1.09420E-25
9.90814E-01 1.03389E-25
9.91627E-01 9.76369E-26
9.92404E-01 9.21618E-26
9.93143E-01 8.69625E-26
9.93844E-01 8.20376E-26
9.94508E-01 7.73859E-26
9.95134E-01 7.30062E-26
9.95722E-01 6.88974E-26
9.96273E-01 6.50585E-26
9.96786E-01 6.14885E-26
9.97261E-01 5.81865E-26
9.97698E-01 5.51517E-26
9.98097E-01 5.23833E-26
9.98459E-01 4.98807E-26
9.98782E-01 4.76432E-26
9.99067E-01 4.56702E-26
9.99315E-01 4.39613E-26
9.99524E-01 4.25161E-26
9.99695E-01 4.13340E-26
9.99829E-01 4.04150E-26
9.99924E-01 3.97587E-26
9.99981E-01 3.93650E-26
1.00000E+00 3.92338E-26
