 #
 # Subroutine ELSEPA. Elastic scattering of electrons and positrons
 #                    by neutral atoms and positive ions
 #
 # Projectile: electron
 # Kinetic energy = 8.00000E+08 eV = 2.93995E+07 a.u.
 #
 # WARNING: High-energy factorization with free-atom DF screening.
 #          Absorption, polarization and exchange corrections are
 #          switched off.
 #          Phase shifts are calculated for the bare nucleus.
 #          Scattering amplitudes are not evaluated.
 #
 # Element: Re,  Z =  75,  atomic weight = 1.86207E+02 g/mol
 #
 # Nuclear model: Fermi distribution
 #                Average radius = 6.11011E-13 cm
 #                Skin thickness = 5.46000E-14 cm
 #
 # Number of electrons = 75
 #
 # Total elastic cross section = 7.58376E-18 cm**2 = 2.70821E-01 a0**2
 # 1st transport cross section = 1.65865E-26 cm**2 = 5.92314E-10 a0**2
 # 2nd transport cross section = 4.97519E-26 cm**2 = 1.77667E-09 a0**2
 #
 #
 # Differential cross section:                       MU=(1-COS(THETA))/2
 #
 #  THETA        MU          DCS          DCS        Sherman      error
 #  (deg)                 (cm**2/sr)   (a0**2/sr)    function
 #----------------------------------------------------------------------
0.00000E+00 3.47081E-08
7.61557E-13 3.01062E-08
1.18994E-12 2.79573E-08
1.71346E-12 2.56735E-08
2.33225E-12 2.33673E-08
3.04617E-12 2.11266E-08
3.85530E-12 1.90175E-08
4.75964E-12 1.70675E-08
5.75917E-12 1.53039E-08
6.85391E-12 1.37158E-08
8.04379E-12 1.23083E-08
9.32893E-12 1.10573E-08
1.07092E-11 9.95611E-09
1.21847E-11 8.98254E-09
1.37554E-11 8.12481E-09
1.54213E-11 7.36632E-09
1.71823E-11 6.69500E-09
1.90386E-11 6.09958E-09
2.09900E-11 5.56920E-09
2.30367E-11 5.09688E-09
2.51785E-11 4.67325E-09
2.74156E-11 4.29438E-09
2.97478E-11 3.95230E-09
3.21752E-11 3.64481E-09
3.46979E-11 3.36607E-09
3.73157E-11 3.10168E-09
4.00286E-11 2.85908E-09
4.28368E-11 2.64537E-09
4.57402E-11 2.45640E-09
4.87388E-11 2.28868E-09
5.18325E-11 2.13931E-09
5.50215E-11 2.00582E-09
5.83057E-11 1.86948E-09
6.16850E-11 1.74158E-09
6.51595E-11 1.62690E-09
6.87293E-11 1.52378E-09
7.23943E-11 1.43079E-09
7.61544E-11 1.34670E-09
1.18991E-10 7.52771E-10
1.71347E-10 4.54323E-10
2.33223E-10 2.89947E-10
3.04617E-10 1.92629E-10
3.85531E-10 1.32335E-10
4.75965E-10 9.32798E-11
5.75917E-10 6.74873E-11
6.85389E-10 4.98973E-11
8.04380E-10 3.77172E-11
9.32891E-10 2.90599E-11
1.07092E-09 2.27679E-11
1.21847E-09 1.81237E-11
1.37554E-09 1.46325E-11
1.54213E-09 1.19549E-11
1.71823E-09 9.86758E-12
1.90386E-09 8.21849E-12
2.09900E-09 6.90038E-12
2.30367E-09 5.83805E-12
2.51785E-09 4.97263E-12
2.74156E-09 4.26272E-12
2.97478E-09 3.67410E-12
3.21752E-09 3.18368E-12
3.46978E-09 2.77171E-12
3.73156E-09 2.42283E-12
4.00286E-09 2.12768E-12
4.28368E-09 1.87793E-12
4.57402E-09 1.66188E-12
4.87388E-09 1.47657E-12
5.18326E-09 1.31711E-12
5.50215E-09 1.17736E-12
5.83057E-09 1.05628E-12
6.16850E-09 9.50425E-13
6.51596E-09 8.57140E-13
6.87293E-09 7.75384E-13
7.23942E-09 7.02945E-13
7.61544E-09 6.38728E-13
1.18991E-08 2.73345E-13
1.71347E-08 1.35804E-13
2.33223E-08 7.49240E-14
3.04617E-08 4.46597E-14
3.85531E-08 2.82415E-14
4.75965E-08 1.87148E-14
5.75917E-08 1.28833E-14
6.85389E-08 9.15386E-15
8.04380E-08 6.68029E-15
9.32891E-08 4.98812E-15
1.07092E-07 3.79918E-15
1.21847E-07 2.94425E-15
1.37554E-07 2.31685E-15
1.54213E-07 1.84804E-15
1.71823E-07 1.49206E-15
1.90386E-07 1.21784E-15
2.09900E-07 1.00384E-15
2.30367E-07 8.34861E-16
2.51785E-07 6.99997E-16
2.74156E-07 5.91304E-16
2.97478E-07 5.02917E-16
3.21752E-07 4.30447E-16
3.46978E-07 3.70573E-16
3.73156E-07 3.20757E-16
4.00286E-07 2.79037E-16
4.28368E-07 2.43886E-16
4.57402E-07 2.14098E-16
4.87388E-07 1.88722E-16
5.18325E-07 1.66996E-16
5.50215E-07 1.48308E-16
5.83057E-07 1.32162E-16
6.16850E-07 1.18153E-16
6.51596E-07 1.05953E-16
6.87293E-07 9.52863E-17
7.23942E-07 8.59289E-17
7.61543E-07 7.76918E-17
1.18991E-06 3.19419E-17
1.71347E-06 1.54391E-17
2.33223E-06 8.34610E-18
3.04617E-06 4.89749E-18
3.85531E-06 3.05988E-18
4.75964E-06 2.00883E-18
5.75916E-06 1.37275E-18
6.85388E-06 9.69662E-19
8.04378E-06 7.04260E-19
9.32888E-06 5.23767E-19
1.07092E-05 3.97572E-19
1.21846E-05 3.07201E-19
1.37553E-05 2.41113E-19
1.54212E-05 1.91882E-19
1.71822E-05 1.54602E-19
1.90385E-05 1.25882E-19
2.09899E-05 1.03655E-19
2.30365E-05 8.61113E-20
2.51783E-05 7.21074E-20
2.74153E-05 6.08228E-20
2.97475E-05 5.16547E-20
3.21749E-05 4.41509E-20
3.46974E-05 3.79657E-20
3.73152E-05 3.28321E-20
4.00281E-05 2.85419E-20
4.28362E-05 2.49314E-20
4.57395E-05 2.18737E-20
4.87380E-05 1.92700E-20
5.18317E-05 1.70412E-20
5.50205E-05 1.51249E-20
5.83045E-05 1.34702E-20
6.16838E-05 1.20360E-20
6.51582E-05 1.07882E-20
6.87277E-05 9.69846E-21
7.23925E-05 8.74325E-21
7.61524E-05 8.05734E-21
9.21439E-05 5.50474E-21
1.09658E-04 3.88353E-21
1.28695E-04 2.81445E-21
1.49255E-04 2.08618E-21
1.71338E-04 1.57660E-21
1.94942E-04 1.21148E-21
2.20070E-04 9.44490E-22
2.46720E-04 7.45744E-22
2.74892E-04 5.95433E-22
3.04586E-04 4.80154E-22
3.35803E-04 3.90624E-22
3.68542E-04 3.20307E-22
4.02802E-04 2.64517E-22
4.38585E-04 2.19845E-22
4.75889E-04 1.83777E-22
5.14715E-04 1.54433E-22
5.55063E-04 1.30393E-22
5.96931E-04 1.10575E-22
6.40321E-04 9.41400E-23
6.85233E-04 8.04384E-23
7.31665E-04 6.89588E-23
7.79618E-04 5.92970E-23
8.29092E-04 5.11309E-23
8.80086E-04 4.42020E-23
9.32601E-04 3.83016E-23
9.86636E-04 3.32603E-23
1.04219E-03 2.89396E-23
1.09927E-03 2.52258E-23
1.15786E-03 2.20252E-23
1.21797E-03 1.92600E-23
1.27961E-03 1.68655E-23
1.34276E-03 1.47875E-23
1.40743E-03 1.29807E-23
1.47362E-03 1.14067E-23
1.54133E-03 1.00333E-23
1.61056E-03 8.83295E-24
1.68131E-03 7.78234E-24
1.75357E-03 6.86156E-24
1.82735E-03 6.05356E-24
1.90265E-03 5.34373E-24
1.97947E-03 4.71949E-24
2.05780E-03 4.16999E-24
2.13765E-03 3.68587E-24
2.21902E-03 3.25901E-24
2.30190E-03 2.88238E-24
2.38630E-03 2.54985E-24
2.47222E-03 2.25610E-24
2.55965E-03 1.99648E-24
2.64859E-03 1.76692E-24
2.73905E-03 1.56387E-24
2.83103E-03 1.38420E-24
2.92452E-03 1.22520E-24
3.01952E-03 1.08445E-24
3.11604E-03 9.59845E-25
3.21407E-03 8.49518E-25
3.31362E-03 7.51831E-25
3.41468E-03 6.65336E-25
3.51725E-03 5.88754E-25
3.62133E-03 5.20955E-25
3.72692E-03 4.60940E-25
3.83403E-03 4.07823E-25
3.94265E-03 3.60822E-25
4.05278E-03 3.19241E-25
4.16442E-03 2.82465E-25
4.27757E-03 2.49949E-25
4.39223E-03 2.21207E-25
4.50840E-03 1.95810E-25
4.62608E-03 1.73377E-25
4.74527E-03 1.53568E-25
4.86597E-03 1.36083E-25
4.98817E-03 1.20655E-25
5.11188E-03 1.07046E-25
5.23711E-03 9.50467E-26
5.36383E-03 8.44692E-26
5.49207E-03 7.51478E-26
5.62181E-03 6.69355E-26
5.75306E-03 5.97015E-26
5.88581E-03 5.33302E-26
6.02007E-03 4.77189E-26
6.15583E-03 4.27767E-26
6.29310E-03 3.84231E-26
6.43187E-03 3.45870E-26
6.57214E-03 3.12053E-26
6.71392E-03 2.82224E-26
6.85720E-03 2.55892E-26
7.00198E-03 2.32624E-26
7.14827E-03 2.12039E-26
7.29605E-03 1.93800E-26
7.44534E-03 1.77613E-26
7.59612E-03 1.63217E-26
7.97965E-03 1.33643E-26
8.37255E-03 1.11077E-26
8.77480E-03 9.34931E-27
9.18641E-03 7.94637E-27
9.60736E-03 6.79938E-27
1.00376E-02 5.83987E-27
1.04773E-02 5.02123E-27
1.09262E-02 4.31206E-27
1.13844E-02 3.69133E-27
1.18520E-02 3.14494E-27
1.23288E-02 2.66321E-27
1.28150E-02 2.23924E-27
1.33104E-02 1.86776E-27
1.38150E-02 1.54438E-27
1.43290E-02 1.26515E-27
1.48521E-02 1.02632E-27
1.53845E-02 8.24168E-28
1.59262E-02 6.55025E-28
1.64770E-02 5.15246E-28
1.70371E-02 4.01265E-28
1.76063E-02 3.09647E-28
1.81848E-02 2.37138E-28
1.87724E-02 1.80708E-28
1.93692E-02 1.37591E-28
1.99751E-02 1.05300E-28
2.05901E-02 8.16457E-29
2.12143E-02 6.47303E-29
2.18476E-02 5.29440E-29
2.24900E-02 4.49470E-29
2.31415E-02 3.96480E-29
2.38021E-02 3.61803E-29
2.44717E-02 3.38741E-29
2.51504E-02 3.22292E-29
2.58382E-02 3.08879E-29
2.65349E-02 2.96090E-29
2.72407E-02 2.82445E-29
2.79555E-02 2.67177E-29
2.86793E-02 2.50050E-29
2.94120E-02 2.31198E-29
3.01537E-02 2.10994E-29
3.09043E-02 1.89945E-29
3.16639E-02 1.68606E-29
3.24324E-02 1.47527E-29
3.32098E-02 1.27203E-29
3.39961E-02 1.08051E-29
3.47912E-02 9.03956E-30
3.55952E-02 7.44628E-30
3.64081E-02 6.03847E-30
3.72297E-02 4.82074E-30
3.80602E-02 3.79028E-30
3.88995E-02 2.93825E-30
3.97476E-02 2.25116E-30
4.06044E-02 1.71230E-30
4.14700E-02 1.30304E-30
4.23443E-02 1.00391E-30
4.32273E-02 7.95597E-31
4.41190E-02 6.59698E-31
4.50194E-02 5.79276E-31
4.59284E-02 5.39259E-31
4.68461E-02 5.26671E-31
4.87074E-02 5.42762E-31
5.06030E-02 5.66324E-31
5.25328E-02 5.65537E-31
5.44967E-02 5.30655E-31
5.64946E-02 4.66016E-31
5.85262E-02 3.82945E-31
6.05914E-02 2.94363E-31
6.26901E-02 2.11322E-31
6.48222E-02 1.41310E-31
6.69873E-02 8.79050E-32
6.91854E-02 5.13256E-32
7.14163E-02 2.94183E-32
7.36799E-02 1.87461E-32
7.59760E-02 1.55381E-32
7.83043E-02 1.63804E-32
8.06647E-02 1.86165E-32
8.30571E-02 2.04890E-32
8.54812E-02 2.10871E-32
8.79369E-02 2.01753E-32
9.04240E-02 1.79724E-32
9.29422E-02 1.49353E-32
9.54915E-02 1.15808E-32
9.80716E-02 8.36226E-33
1.00682E-01 5.60207E-33
1.03323E-01 3.47173E-33
1.05995E-01 2.00625E-33
1.08696E-01 1.13818E-33
1.11427E-01 7.38791E-34
1.14188E-01 6.56691E-34
1.16978E-01 7.48118E-34
1.19797E-01 8.96474E-34
1.22645E-01 1.02129E-33
1.25522E-01 1.07853E-33
1.28428E-01 1.05500E-33
1.31361E-01 9.59662E-34
1.34323E-01 8.14217E-34
1.37313E-01 6.44807E-34
1.40330E-01 4.75735E-34
1.43375E-01 3.25602E-34
1.46447E-01 2.05690E-34
1.49545E-01 1.20118E-34
1.52671E-01 6.71832E-35
1.55823E-01 4.12558E-35
1.59001E-01 3.47650E-35
1.62205E-01 3.99003E-35
1.65435E-01 4.98452E-35
1.68690E-01 5.94868E-35
1.71970E-01 6.56469E-35
1.75276E-01 6.69437E-35
1.78606E-01 6.34206E-35
1.81961E-01 5.60686E-35
1.85340E-01 4.63518E-35
1.88743E-01 3.58074E-35
1.92169E-01 2.57596E-35
1.95619E-01 1.71572E-35
1.99092E-01 1.05216E-35
2.02589E-01 5.97952E-36
2.06107E-01 3.34930E-36
2.09649E-01 2.25126E-36
2.13212E-01 2.21708E-36
2.16797E-01 2.78160E-36
2.20404E-01 3.54819E-36
2.24032E-01 4.22503E-36
2.27680E-01 4.63557E-36
2.31350E-01 4.70904E-36
2.35040E-01 4.45819E-36
2.38751E-01 3.95139E-36
2.42481E-01 3.28488E-36
2.46231E-01 2.55910E-36
2.50000E-01 1.86149E-36
2.53788E-01 1.25634E-36
2.57595E-01 7.81013E-37
2.61421E-01 4.47408E-37
2.65264E-01 2.46784E-37
2.69126E-01 1.56303E-37
2.73005E-01 1.45857E-37
2.76901E-01 1.84087E-37
2.80814E-01 2.42921E-37
2.84744E-01 3.00421E-37
2.88691E-01 3.42001E-37
2.92653E-01 3.60267E-37
2.96632E-01 3.53922E-37
3.00625E-01 3.26157E-37
3.04634E-01 2.82864E-37
3.08658E-01 2.30999E-37
3.12697E-01 1.77272E-37
3.16749E-01 1.27224E-37
3.20816E-01 1.00000E-45
3.24896E-01 1.00000E-45
3.28990E-01 1.00000E-45
3.33097E-01 1.00000E-45
3.37216E-01 1.00000E-45
3.41348E-01 1.00000E-45
3.45492E-01 1.00000E-45
3.49647E-01 1.00000E-45
3.53814E-01 1.00000E-45
3.57992E-01 1.00000E-45
3.62181E-01 1.00000E-45
3.66381E-01 1.00000E-45
3.70590E-01 1.00000E-45
3.74810E-01 1.00000E-45
3.79039E-01 1.00000E-45
3.83277E-01 1.00000E-45
3.87524E-01 1.00000E-45
3.91780E-01 1.00000E-45
3.96044E-01 1.00000E-45
4.00316E-01 1.00000E-45
4.04596E-01 1.00000E-45
4.08882E-01 1.00000E-45
4.13176E-01 1.00000E-45
4.17476E-01 1.00000E-45
4.21783E-01 1.00000E-45
4.26095E-01 1.00000E-45
4.30413E-01 1.00000E-45
4.34737E-01 1.00000E-45
4.39065E-01 1.00000E-45
4.43398E-01 1.00000E-45
4.47736E-01 1.00000E-45
4.52077E-01 1.00000E-45
4.56422E-01 1.00000E-45
4.60770E-01 1.00000E-45
4.65122E-01 1.00000E-45
4.69476E-01 1.00000E-45
4.73832E-01 1.00000E-45
4.78190E-01 1.00000E-45
4.82550E-01 1.00000E-45
4.86912E-01 1.00000E-45
4.91274E-01 1.00000E-45
4.95637E-01 1.00000E-45
5.00000E-01 1.00000E-45
5.04363E-01 1.00000E-45
5.08726E-01 1.00000E-45
5.13088E-01 1.00000E-45
5.17450E-01 1.00000E-45
5.21810E-01 1.00000E-45
5.26168E-01 1.00000E-45
5.30524E-01 1.00000E-45
5.34878E-01 1.00000E-45
5.39230E-01 1.00000E-45
5.43578E-01 1.00000E-45
5.47923E-01 1.00000E-45
5.52264E-01 1.00000E-45
5.56602E-01 1.00000E-45
5.60935E-01 1.00000E-45
5.65263E-01 1.00000E-45
5.69587E-01 1.00000E-45
5.73905E-01 1.00000E-45
5.78217E-01 1.00000E-45
5.82524E-01 1.00000E-45
5.86824E-01 1.00000E-45
5.91118E-01 1.00000E-45
5.95404E-01 1.00000E-45
5.99684E-01 1.00000E-45
6.03956E-01 1.00000E-45
6.08220E-01 1.00000E-45
6.12476E-01 1.00000E-45
6.16723E-01 1.00000E-45
6.20961E-01 1.00000E-45
6.25190E-01 1.00000E-45
6.29410E-01 1.00000E-45
6.33619E-01 1.00000E-45
6.37819E-01 1.00000E-45
6.42008E-01 1.00000E-45
6.46186E-01 1.00000E-45
6.50353E-01 1.00000E-45
6.54508E-01 1.00000E-45
6.58652E-01 1.00000E-45
6.62784E-01 1.00000E-45
6.66903E-01 1.00000E-45
6.71010E-01 1.00000E-45
6.75104E-01 1.00000E-45
6.79184E-01 1.00000E-45
6.83251E-01 1.00000E-45
6.87303E-01 1.00000E-45
6.91342E-01 1.00000E-45
6.95366E-01 1.00000E-45
6.99375E-01 1.00000E-45
7.03368E-01 1.00000E-45
7.07347E-01 1.00000E-45
7.11309E-01 1.00000E-45
7.15256E-01 1.00000E-45
7.19186E-01 1.00000E-45
7.23099E-01 1.00000E-45
7.26995E-01 1.00000E-45
7.30874E-01 1.00000E-45
7.34736E-01 1.00000E-45
7.38579E-01 1.00000E-45
7.42405E-01 1.00000E-45
7.46212E-01 1.00000E-45
7.50000E-01 1.00000E-45
7.53769E-01 1.00000E-45
7.57519E-01 1.00000E-45
7.61249E-01 1.00000E-45
7.64960E-01 1.00000E-45
7.68650E-01 1.00000E-45
7.72320E-01 1.00000E-45
7.75968E-01 1.00000E-45
7.79596E-01 1.00000E-45
7.83203E-01 1.00000E-45
7.86788E-01 1.00000E-45
7.90351E-01 1.00000E-45
7.93893E-01 1.00000E-45
7.97411E-01 1.00000E-45
8.00908E-01 1.00000E-45
8.04381E-01 1.00000E-45
8.07831E-01 1.00000E-45
8.11257E-01 1.00000E-45
8.14660E-01 1.00000E-45
8.18039E-01 1.00000E-45
8.21394E-01 1.00000E-45
8.24724E-01 1.00000E-45
8.28030E-01 1.00000E-45
8.31310E-01 1.00000E-45
8.34565E-01 1.00000E-45
8.37795E-01 1.00000E-45
8.40999E-01 1.00000E-45
8.44177E-01 1.00000E-45
8.47329E-01 1.00000E-45
8.50455E-01 1.00000E-45
8.53553E-01 1.00000E-45
8.56625E-01 1.00000E-45
8.59670E-01 1.00000E-45
8.62687E-01 1.00000E-45
8.65677E-01 1.00000E-45
8.68639E-01 1.00000E-45
8.71572E-01 1.00000E-45
8.74478E-01 1.00000E-45
8.77355E-01 1.00000E-45
8.80203E-01 1.00000E-45
8.83022E-01 1.00000E-45
8.85812E-01 1.00000E-45
8.88573E-01 1.00000E-45
8.91304E-01 1.00000E-45
8.94005E-01 1.00000E-45
8.96677E-01 1.00000E-45
8.99318E-01 1.00000E-45
9.01928E-01 1.00000E-45
9.04508E-01 1.00000E-45
9.07058E-01 1.00000E-45
9.09576E-01 1.00000E-45
9.12063E-01 1.00000E-45
9.14519E-01 1.00000E-45
9.16943E-01 1.00000E-45
9.19335E-01 1.00000E-45
9.21696E-01 1.00000E-45
9.24024E-01 1.00000E-45
9.26320E-01 1.00000E-45
9.28584E-01 1.00000E-45
9.30815E-01 1.00000E-45
9.33013E-01 1.00000E-45
9.35178E-01 1.00000E-45
9.37310E-01 1.00000E-45
9.39409E-01 1.00000E-45
9.41474E-01 1.00000E-45
9.43505E-01 1.00000E-45
9.45503E-01 1.00000E-45
9.47467E-01 1.00000E-45
9.49397E-01 1.00000E-45
9.51293E-01 1.00000E-45
9.53154E-01 1.00000E-45
9.54981E-01 1.00000E-45
9.56773E-01 1.00000E-45
9.58530E-01 1.00000E-45
9.60252E-01 1.00000E-45
9.61940E-01 1.00000E-45
9.63592E-01 1.00000E-45
9.65209E-01 1.00000E-45
9.66790E-01 1.00000E-45
9.68336E-01 1.00000E-45
9.69846E-01 1.00000E-45
9.71321E-01 1.00000E-45
9.72759E-01 1.00000E-45
9.74162E-01 1.00000E-45
9.75528E-01 1.00000E-45
9.76858E-01 1.00000E-45
9.78152E-01 1.00000E-45
9.79410E-01 1.00000E-45
9.80631E-01 1.00000E-45
9.81815E-01 1.00000E-45
9.82963E-01 1.00000E-45
9.84074E-01 1.00000E-45
9.85148E-01 1.00000E-45
9.86185E-01 1.00000E-45
9.87185E-01 1.00000E-45
9.88148E-01 1.00000E-45
9.89074E-01 1.00000E-45
9.89962E-01 1.00000E-45
9.90814E-01 1.00000E-45
9.91627E-01 1.00000E-45
9.92404E-01 1.00000E-45
9.93143E-01 1.00000E-45
9.93844E-01 1.00000E-45
9.94508E-01 1.00000E-45
9.95134E-01 1.00000E-45
9.95722E-01 1.00000E-45
9.96273E-01 1.00000E-45
9.96786E-01 1.00000E-45
9.97261E-01 1.00000E-45
9.97698E-01 1.00000E-45
9.98097E-01 1.00000E-45
9.98459E-01 1.00000E-45
9.98782E-01 1.00000E-45
9.99067E-01 1.00000E-45
9.99315E-01 1.00000E-45
9.99524E-01 1.00000E-45
9.99695E-01 1.00000E-45
9.99829E-01 1.00000E-45
9.99924E-01 1.00000E-45
9.99981E-01 1.00000E-45
1.00000E+00 1.00000E-45
