 #
 # Subroutine ELSEPA. Elastic scattering of electrons and positrons
 #                    by neutral atoms and positive ions
 #
 # Projectile: electron
 # Kinetic energy = 4.00000E+07 eV = 1.46997E+06 a.u.
 #
 # WARNING: High-energy factorization with free-atom DF screening.
 #          Absorption, polarization and exchange corrections are
 #          switched off.
 #          Phase shifts are calculated for the bare nucleus.
 #          Scattering amplitudes are not evaluated.
 #
 # Element: Re,  Z =  75,  atomic weight = 1.86207E+02 g/mol
 #
 # Nuclear model: Fermi distribution
 #                Average radius = 6.11011E-13 cm
 #                Skin thickness = 5.46000E-14 cm
 #
 # Number of electrons = 75
 #
 # Total elastic cross section = 7.60608E-18 cm**2 = 2.71618E-01 a0**2
 # 1st transport cross section = 6.58187E-24 cm**2 = 2.35043E-07 a0**2
 # 2nd transport cross section = 1.91250E-23 cm**2 = 6.82966E-07 a0**2
 #
 #
 # Differential cross section:                       MU=(1-COS(THETA))/2
 #
 #  THETA        MU          DCS          DCS        Sherman      error
 #  (deg)                 (cm**2/sr)   (a0**2/sr)    function
 #----------------------------------------------------------------------
0.00000E+00 8.88879E-11
7.61557E-13 8.88535E-11
1.18994E-12 8.88342E-11
1.71346E-12 8.88108E-11
2.33225E-12 8.87831E-11
3.04617E-12 8.87512E-11
3.85530E-12 8.87150E-11
4.75964E-12 8.86747E-11
5.75917E-12 8.86301E-11
6.85391E-12 8.85814E-11
8.04379E-12 8.85285E-11
9.32893E-12 8.84714E-11
1.07092E-11 8.84102E-11
1.21847E-11 8.83448E-11
1.37554E-11 8.82753E-11
1.54213E-11 8.82017E-11
1.71823E-11 8.81240E-11
1.90386E-11 8.80423E-11
2.09900E-11 8.79565E-11
2.30367E-11 8.78667E-11
2.51785E-11 8.77729E-11
2.74156E-11 8.76750E-11
2.97478E-11 8.75732E-11
3.21752E-11 8.74675E-11
3.46979E-11 8.73579E-11
3.73157E-11 8.72444E-11
4.00286E-11 8.71270E-11
4.28368E-11 8.70059E-11
4.57402E-11 8.68809E-11
4.87388E-11 8.67521E-11
5.18325E-11 8.66196E-11
5.50215E-11 8.64833E-11
5.83057E-11 8.63434E-11
6.16850E-11 8.61998E-11
6.51595E-11 8.60527E-11
6.87293E-11 8.59019E-11
7.23943E-11 8.57476E-11
7.61544E-11 8.55897E-11
1.18991E-10 8.38263E-11
1.71347E-10 8.17455E-11
2.33223E-10 7.94099E-11
3.04617E-10 7.68541E-11
3.85531E-10 7.41141E-11
4.75965E-10 7.12530E-11
5.75917E-10 6.83168E-11
6.85389E-10 6.53274E-11
8.04380E-10 6.23223E-11
9.32891E-10 5.93490E-11
1.07092E-09 5.64336E-11
1.21847E-09 5.35736E-11
1.37554E-09 5.08013E-11
1.54213E-09 4.81382E-11
1.71823E-09 4.55919E-11
1.90386E-09 4.31444E-11
2.09900E-09 4.08212E-11
2.30367E-09 3.86246E-11
2.51785E-09 3.65504E-11
2.74156E-09 3.45803E-11
2.97478E-09 3.27294E-11
3.21752E-09 3.09922E-11
3.46978E-09 2.93590E-11
3.73156E-09 2.78184E-11
4.00286E-09 2.63758E-11
4.28368E-09 2.50250E-11
4.57402E-09 2.37550E-11
4.87388E-09 2.25602E-11
5.18326E-09 2.14412E-11
5.50215E-09 2.03927E-11
5.83057E-09 1.94045E-11
6.16850E-09 1.84749E-11
6.51596E-09 1.76027E-11
6.87293E-09 1.67837E-11
7.23942E-09 1.60089E-11
7.61544E-09 1.52794E-11
1.18991E-08 9.87773E-12
1.71347E-08 6.59378E-12
2.33223E-08 4.64576E-12
3.04617E-08 3.35293E-12
3.85531E-08 2.46883E-12
4.75965E-08 1.86572E-12
5.75917E-08 1.43952E-12
6.85389E-08 1.12570E-12
8.04380E-08 8.91749E-13
9.32891E-08 7.16139E-13
1.07092E-07 5.81650E-13
1.21847E-07 4.75529E-13
1.37554E-07 3.91993E-13
1.54213E-07 3.25838E-13
1.71823E-07 2.72847E-13
1.90386E-07 2.29580E-13
2.09900E-07 1.94502E-13
2.30367E-07 1.65854E-13
2.51785E-07 1.42262E-13
2.74156E-07 1.22619E-13
2.97478E-07 1.06298E-13
3.21752E-07 9.26514E-14
3.46978E-07 8.11734E-14
3.73156E-07 7.13706E-14
4.00286E-07 6.30374E-14
4.28368E-07 5.59196E-14
4.57402E-07 4.98025E-14
4.87388E-07 4.45178E-14
5.18325E-07 3.99362E-14
5.50215E-07 3.59449E-14
5.83057E-07 3.24438E-14
6.16850E-07 2.93620E-14
6.51596E-07 2.66429E-14
6.87293E-07 2.42350E-14
7.23942E-07 2.20896E-14
7.61543E-07 2.01779E-14
1.18991E-06 9.01548E-15
1.71347E-06 4.60512E-15
2.33223E-06 2.59000E-15
3.04617E-06 1.56563E-15
3.85531E-06 1.00125E-15
4.75964E-06 6.69827E-16
5.75916E-06 4.64949E-16
6.85388E-06 3.32817E-16
8.04378E-06 2.44507E-16
9.32888E-06 1.83648E-16
1.07092E-05 1.40612E-16
1.21846E-05 1.09478E-16
1.37553E-05 8.65003E-17
1.54212E-05 6.92430E-17
1.71822E-05 5.60786E-17
1.90385E-05 4.58691E-17
2.09899E-05 3.79221E-17
2.30365E-05 3.16169E-17
2.51783E-05 2.65604E-17
2.74153E-05 2.24688E-17
2.97475E-05 1.91321E-17
3.21749E-05 1.63919E-17
3.46974E-05 1.41262E-17
3.73152E-05 1.22405E-17
4.00281E-05 1.06605E-17
4.28362E-05 9.32803E-18
4.57395E-05 8.19743E-18
4.87380E-05 7.23273E-18
5.18317E-05 6.40543E-18
5.50205E-05 5.69284E-18
5.83045E-05 5.07657E-18
6.16838E-05 4.54160E-18
6.51582E-05 4.07547E-18
6.87277E-05 3.66784E-18
7.23925E-05 3.31007E-18
7.61524E-05 2.99465E-18
9.21439E-05 2.05429E-18
1.09658E-04 1.45590E-18
1.28695E-04 1.06060E-18
1.49255E-04 7.90854E-19
1.71338E-04 6.01754E-19
1.94942E-04 4.65978E-19
2.20070E-04 3.66456E-19
2.46720E-04 2.92165E-19
2.74892E-04 2.35798E-19
3.04586E-04 1.92406E-19
3.35803E-04 1.58562E-19
3.68542E-04 1.31852E-19
4.02802E-04 1.10545E-19
4.38585E-04 9.33787E-20
4.75889E-04 7.94242E-20
5.14715E-04 6.79863E-20
5.55063E-04 5.85389E-20
5.96931E-04 5.06804E-20
6.40321E-04 4.41002E-20
6.85233E-04 3.85565E-20
7.31665E-04 3.38594E-20
7.79618E-04 2.98581E-20
8.29092E-04 2.64324E-20
8.80086E-04 2.34856E-20
9.32601E-04 2.09396E-20
9.86636E-04 1.87305E-20
1.04219E-03 1.68062E-20
1.09927E-03 1.51237E-20
1.15786E-03 1.36473E-20
1.21797E-03 1.23475E-20
1.27961E-03 1.11995E-20
1.34276E-03 1.01823E-20
1.40743E-03 9.27863E-21
1.47362E-03 8.47343E-21
1.54133E-03 7.75414E-21
1.61056E-03 7.10995E-21
1.68131E-03 6.53163E-21
1.75357E-03 6.01124E-21
1.82735E-03 5.54193E-21
1.90265E-03 5.11780E-21
1.97947E-03 4.73371E-21
2.05780E-03 4.38520E-21
2.13765E-03 4.06837E-21
2.21902E-03 3.77983E-21
2.30190E-03 3.51658E-21
2.38630E-03 3.27600E-21
2.47222E-03 3.05579E-21
2.55965E-03 2.85390E-21
2.64859E-03 2.66853E-21
2.73905E-03 2.49808E-21
2.83103E-03 2.34112E-21
2.92452E-03 2.19639E-21
3.01952E-03 2.06276E-21
3.11604E-03 1.93921E-21
3.21407E-03 1.82485E-21
3.31362E-03 1.71887E-21
3.41468E-03 1.62054E-21
3.51725E-03 1.52919E-21
3.62133E-03 1.44425E-21
3.72692E-03 1.36517E-21
3.83403E-03 1.29148E-21
3.94265E-03 1.22274E-21
4.05278E-03 1.15855E-21
4.16442E-03 1.09856E-21
4.27757E-03 1.04244E-21
4.39223E-03 9.89893E-22
4.50840E-03 9.40645E-22
4.62608E-03 8.94451E-22
4.74527E-03 8.51087E-22
4.86597E-03 8.10345E-22
4.98817E-03 7.72036E-22
5.11188E-03 7.35986E-22
5.23711E-03 7.02039E-22
5.36383E-03 6.70047E-22
5.49207E-03 6.39874E-22
5.62181E-03 6.11399E-22
5.75306E-03 5.84508E-22
5.88581E-03 5.59095E-22
6.02007E-03 5.35062E-22
6.15583E-03 5.12320E-22
6.29310E-03 4.90790E-22
6.43187E-03 4.70389E-22
6.57214E-03 4.51048E-22
6.71392E-03 4.32704E-22
6.85720E-03 4.15293E-22
7.00198E-03 3.98759E-22
7.14827E-03 3.83048E-22
7.29605E-03 3.68113E-22
7.44534E-03 3.53907E-22
7.59612E-03 3.40388E-22
7.97965E-03 3.09339E-22
8.37255E-03 2.81789E-22
8.77480E-03 2.57272E-22
9.18641E-03 2.35394E-22
9.60736E-03 2.15818E-22
1.00376E-02 1.98258E-22
1.04773E-02 1.82468E-22
1.09262E-02 1.68237E-22
1.13844E-02 1.55382E-22
1.18520E-02 1.43745E-22
1.23288E-02 1.33189E-22
1.28150E-02 1.23596E-22
1.33104E-02 1.14860E-22
1.38150E-02 1.06891E-22
1.43290E-02 9.96092E-23
1.48521E-02 9.29437E-23
1.53845E-02 8.68327E-23
1.59262E-02 8.12217E-23
1.64770E-02 7.60588E-23
1.70371E-02 7.13034E-23
1.76063E-02 6.69174E-23
1.81848E-02 6.28666E-23
1.87724E-02 5.91204E-23
1.93692E-02 5.56515E-23
1.99751E-02 5.24354E-23
2.05901E-02 4.94502E-23
2.12143E-02 4.66760E-23
2.18476E-02 4.40950E-23
2.24900E-02 4.16912E-23
2.31415E-02 3.94500E-23
2.38021E-02 3.73583E-23
2.44717E-02 3.54042E-23
2.51504E-02 3.35768E-23
2.58382E-02 3.18663E-23
2.65349E-02 3.02638E-23
2.72407E-02 2.87612E-23
2.79555E-02 2.73510E-23
2.86793E-02 2.60263E-23
2.94120E-02 2.47811E-23
3.01537E-02 2.36095E-23
3.09043E-02 2.25064E-23
3.16639E-02 2.14670E-23
3.24324E-02 2.04869E-23
3.32098E-02 1.95620E-23
3.39961E-02 1.86887E-23
3.47912E-02 1.78635E-23
3.55952E-02 1.70831E-23
3.64081E-02 1.63448E-23
3.72297E-02 1.56458E-23
3.80602E-02 1.49835E-23
3.88995E-02 1.43558E-23
3.97476E-02 1.37603E-23
4.06044E-02 1.31952E-23
4.14700E-02 1.26586E-23
4.23443E-02 1.21488E-23
4.32273E-02 1.16641E-23
4.41190E-02 1.12031E-23
4.50194E-02 1.07644E-23
4.59284E-02 1.03468E-23
4.68461E-02 9.94894E-24
4.87074E-02 9.20829E-24
5.06030E-02 8.53434E-24
5.25328E-02 7.91999E-24
5.44967E-02 7.35901E-24
5.64946E-02 6.84591E-24
5.85262E-02 6.37587E-24
6.05914E-02 5.94461E-24
6.26901E-02 5.54835E-24
6.48222E-02 5.18375E-24
6.69873E-02 4.84781E-24
6.91854E-02 4.53787E-24
7.14163E-02 4.25157E-24
7.36799E-02 3.98678E-24
7.59760E-02 3.74160E-24
7.83043E-02 3.51431E-24
8.06647E-02 3.30339E-24
8.30571E-02 3.10745E-24
8.54812E-02 2.92523E-24
8.79369E-02 2.75561E-24
9.04240E-02 2.59757E-24
9.29422E-02 2.45019E-24
9.54915E-02 2.31261E-24
9.80716E-02 2.18409E-24
1.00682E-01 2.06391E-24
1.03323E-01 1.95145E-24
1.05995E-01 1.84614E-24
1.08696E-01 1.74743E-24
1.11427E-01 1.65485E-24
1.14188E-01 1.56796E-24
1.16978E-01 1.48635E-24
1.19797E-01 1.40965E-24
1.22645E-01 1.33751E-24
1.25522E-01 1.26962E-24
1.28428E-01 1.20570E-24
1.31361E-01 1.14546E-24
1.34323E-01 1.08868E-24
1.37313E-01 1.03511E-24
1.40330E-01 9.84556E-25
1.43375E-01 9.36814E-25
1.46447E-01 8.91706E-25
1.49545E-01 8.49066E-25
1.52671E-01 8.08739E-25
1.55823E-01 7.70581E-25
1.59001E-01 7.34458E-25
1.62205E-01 7.00248E-25
1.65435E-01 6.67833E-25
1.68690E-01 6.37106E-25
1.71970E-01 6.07969E-25
1.75276E-01 5.80326E-25
1.78606E-01 5.54091E-25
1.81961E-01 5.29182E-25
1.85340E-01 5.05524E-25
1.88743E-01 4.83046E-25
1.92169E-01 4.61680E-25
1.95619E-01 4.41366E-25
1.99092E-01 4.22043E-25
2.02589E-01 4.03659E-25
2.06107E-01 3.86161E-25
2.09649E-01 3.69502E-25
2.13212E-01 3.53637E-25
2.16797E-01 3.38523E-25
2.20404E-01 3.24120E-25
2.24032E-01 3.10391E-25
2.27680E-01 2.97301E-25
2.31350E-01 2.84817E-25
2.35040E-01 2.72907E-25
2.38751E-01 2.61542E-25
2.42481E-01 2.50694E-25
2.46231E-01 2.40337E-25
2.50000E-01 2.30447E-25
2.53788E-01 2.21000E-25
2.57595E-01 2.11975E-25
2.61421E-01 2.03350E-25
2.65264E-01 1.95106E-25
2.69126E-01 1.87225E-25
2.73005E-01 1.79688E-25
2.76901E-01 1.72479E-25
2.80814E-01 1.65584E-25
2.84744E-01 1.58986E-25
2.88691E-01 1.52671E-25
2.92653E-01 1.46627E-25
2.96632E-01 1.40841E-25
3.00625E-01 1.35300E-25
3.04634E-01 1.29993E-25
3.08658E-01 1.24910E-25
3.12697E-01 1.20041E-25
3.16749E-01 1.15375E-25
3.20816E-01 1.10903E-25
3.24896E-01 1.06616E-25
3.28990E-01 1.02507E-25
3.33097E-01 9.85674E-26
3.37216E-01 9.47892E-26
3.41348E-01 9.11656E-26
3.45492E-01 8.76897E-26
3.49647E-01 8.43551E-26
3.53814E-01 8.11555E-26
3.57992E-01 7.80851E-26
3.62181E-01 7.51382E-26
3.66381E-01 7.23096E-26
3.70590E-01 6.95941E-26
3.74810E-01 6.69869E-26
3.79039E-01 6.44833E-26
3.83277E-01 6.20790E-26
3.87524E-01 5.97697E-26
3.91780E-01 5.75515E-26
3.96044E-01 5.54204E-26
4.00316E-01 5.33729E-26
4.04596E-01 5.14054E-26
4.08882E-01 4.95147E-26
4.13176E-01 4.76975E-26
4.17476E-01 4.59507E-26
4.21783E-01 4.42716E-26
4.26095E-01 4.26572E-26
4.30413E-01 4.11050E-26
4.34737E-01 3.96125E-26
4.39065E-01 3.81771E-26
4.43398E-01 3.67965E-26
4.47736E-01 3.54686E-26
4.52077E-01 3.41913E-26
4.56422E-01 3.29624E-26
4.60770E-01 3.17801E-26
4.65122E-01 3.06424E-26
4.69476E-01 2.95477E-26
4.73832E-01 2.84941E-26
4.78190E-01 2.74801E-26
4.82550E-01 2.65041E-26
4.86912E-01 2.55646E-26
4.91274E-01 2.46601E-26
4.95637E-01 2.37893E-26
5.00000E-01 2.29509E-26
5.04363E-01 2.21435E-26
5.08726E-01 2.13660E-26
5.13088E-01 2.06173E-26
5.17450E-01 1.98961E-26
5.21810E-01 1.92015E-26
5.26168E-01 1.85323E-26
5.30524E-01 1.78877E-26
5.34878E-01 1.72667E-26
5.39230E-01 1.66683E-26
5.43578E-01 1.60918E-26
5.47923E-01 1.55362E-26
5.52264E-01 1.50008E-26
5.56602E-01 1.44847E-26
5.60935E-01 1.39874E-26
5.65263E-01 1.35080E-26
5.69587E-01 1.30458E-26
5.73905E-01 1.26003E-26
5.78217E-01 1.21708E-26
5.82524E-01 1.17566E-26
5.86824E-01 1.13573E-26
5.91118E-01 1.09722E-26
5.95404E-01 1.06008E-26
5.99684E-01 1.02427E-26
6.03956E-01 9.89721E-27
6.08220E-01 9.56400E-27
6.12476E-01 9.24257E-27
6.16723E-01 8.93248E-27
6.20961E-01 8.63332E-27
6.25190E-01 8.34467E-27
6.29410E-01 8.06615E-27
6.33619E-01 7.79739E-27
6.37819E-01 7.53802E-27
6.42008E-01 7.28769E-27
6.46186E-01 7.04609E-27
6.50353E-01 6.81288E-27
6.54508E-01 6.58775E-27
6.58652E-01 6.37042E-27
6.62784E-01 6.16059E-27
6.66903E-01 5.95800E-27
6.71010E-01 5.76237E-27
6.75104E-01 5.57346E-27
6.79184E-01 5.39102E-27
6.83251E-01 5.21482E-27
6.87303E-01 5.04462E-27
6.91342E-01 4.88022E-27
6.95366E-01 4.72140E-27
6.99375E-01 4.56797E-27
7.03368E-01 4.41972E-27
7.07347E-01 4.27647E-27
7.11309E-01 4.13804E-27
7.15256E-01 4.00426E-27
7.19186E-01 3.87496E-27
7.23099E-01 3.74999E-27
7.26995E-01 3.62918E-27
7.30874E-01 3.51239E-27
7.34736E-01 3.39947E-27
7.38579E-01 3.29029E-27
7.42405E-01 3.18472E-27
7.46212E-01 3.08262E-27
7.50000E-01 2.98388E-27
7.53769E-01 2.88838E-27
7.57519E-01 2.79599E-27
7.61249E-01 2.70662E-27
7.64960E-01 2.62015E-27
7.68650E-01 2.53648E-27
7.72320E-01 2.45552E-27
7.75968E-01 2.37717E-27
7.79596E-01 2.30134E-27
7.83203E-01 2.22795E-27
7.86788E-01 2.15689E-27
7.90351E-01 2.08811E-27
7.93893E-01 2.02151E-27
7.97411E-01 1.95703E-27
8.00908E-01 1.89458E-27
8.04381E-01 1.83410E-27
8.07831E-01 1.77553E-27
8.11257E-01 1.71878E-27
8.14660E-01 1.66382E-27
8.18039E-01 1.61056E-27
8.21394E-01 1.55896E-27
8.24724E-01 1.50896E-27
8.28030E-01 1.46050E-27
8.31310E-01 1.41353E-27
8.34565E-01 1.36801E-27
8.37795E-01 1.32388E-27
8.40999E-01 1.28110E-27
8.44177E-01 1.23961E-27
8.47329E-01 1.19939E-27
8.50455E-01 1.16038E-27
8.53553E-01 1.12255E-27
8.56625E-01 1.08586E-27
8.59670E-01 1.05027E-27
8.62687E-01 1.01574E-27
8.65677E-01 9.82248E-28
8.68639E-01 9.49747E-28
8.71572E-01 9.18211E-28
8.74478E-01 8.87608E-28
8.77355E-01 8.57909E-28
8.80203E-01 8.29084E-28
8.83022E-01 8.01106E-28
8.85812E-01 7.73948E-28
8.88573E-01 7.47584E-28
8.91304E-01 7.21989E-28
8.94005E-01 6.97140E-28
8.96677E-01 6.73013E-28
8.99318E-01 6.49586E-28
9.01928E-01 6.26838E-28
9.04508E-01 6.04748E-28
9.07058E-01 5.83296E-28
9.09576E-01 5.62463E-28
9.12063E-01 5.42230E-28
9.14519E-01 5.22580E-28
9.16943E-01 5.03496E-28
9.19335E-01 4.84961E-28
9.21696E-01 4.66959E-28
9.24024E-01 4.49475E-28
9.26320E-01 4.32494E-28
9.28584E-01 4.16001E-28
9.30815E-01 3.99984E-28
9.33013E-01 3.84429E-28
9.35178E-01 3.69323E-28
9.37310E-01 3.54654E-28
9.39409E-01 3.40410E-28
9.41474E-01 3.26580E-28
9.43505E-01 3.13153E-28
9.45503E-01 3.00118E-28
9.47467E-01 2.87466E-28
9.49397E-01 2.75186E-28
9.51293E-01 2.63269E-28
9.53154E-01 2.51707E-28
9.54981E-01 2.40490E-28
9.56773E-01 2.29610E-28
9.58530E-01 2.19059E-28
9.60252E-01 2.08829E-28
9.61940E-01 1.98913E-28
9.63592E-01 1.89305E-28
9.65209E-01 1.79995E-28
9.66790E-01 1.70980E-28
9.68336E-01 1.62251E-28
9.69846E-01 1.53803E-28
9.71321E-01 1.45630E-28
9.72759E-01 1.37726E-28
9.74162E-01 1.30086E-28
9.75528E-01 1.22706E-28
9.76858E-01 1.15579E-28
9.78152E-01 1.08701E-28
9.79410E-01 1.02068E-28
9.80631E-01 9.56745E-29
9.81815E-01 8.95175E-29
9.82963E-01 8.35925E-29
9.84074E-01 7.78958E-29
9.85148E-01 7.24236E-29
9.86185E-01 6.71725E-29
9.87185E-01 6.21393E-29
9.88148E-01 5.73207E-29
9.89074E-01 5.27137E-29
9.89962E-01 4.83156E-29
9.90814E-01 4.41234E-29
9.91627E-01 4.01348E-29
9.92404E-01 3.63473E-29
9.93143E-01 3.27585E-29
9.93844E-01 2.93664E-29
9.94508E-01 2.61688E-29
9.95134E-01 2.31638E-29
9.95722E-01 2.03497E-29
9.96273E-01 1.77248E-29
9.96786E-01 1.52875E-29
9.97261E-01 1.30364E-29
9.97698E-01 1.09702E-29
9.98097E-01 9.08769E-30
9.98459E-01 7.38773E-30
9.98782E-01 5.86933E-30
9.99067E-01 4.53164E-30
9.99315E-01 3.37386E-30
9.99524E-01 2.39533E-30
9.99695E-01 1.59548E-30
9.99829E-01 9.73860E-31
9.99924E-01 5.30097E-31
9.99981E-01 2.63942E-31
1.00000E+00 1.75240E-31
