 #
 # Subroutine ELSEPA. Elastic scattering of electrons and positrons
 #                    by neutral atoms and positive ions
 #
 # Projectile: electron
 # Kinetic energy = 2.50000E+08 eV = 9.18733E+06 a.u.
 #
 # WARNING: High-energy factorization with free-atom DF screening.
 #          Absorption, polarization and exchange corrections are
 #          switched off.
 #          Phase shifts are calculated for the bare nucleus.
 #          Scattering amplitudes are not evaluated.
 #
 # Element: Re,  Z =  75,  atomic weight = 1.86207E+02 g/mol
 #
 # Nuclear model: Fermi distribution
 #                Average radius = 6.11011E-13 cm
 #                Skin thickness = 5.46000E-14 cm
 #
 # Number of electrons = 75
 #
 # Total elastic cross section = 7.60468E-18 cm**2 = 2.71568E-01 a0**2
 # 1st transport cross section = 1.70483E-25 cm**2 = 6.08806E-09 a0**2
 # 2nd transport cross section = 5.10698E-25 cm**2 = 1.82374E-08 a0**2
 #
 #
 # Differential cross section:                       MU=(1-COS(THETA))/2
 #
 #  THETA        MU          DCS          DCS        Sherman      error
 #  (deg)                 (cm**2/sr)   (a0**2/sr)    function
 #----------------------------------------------------------------------
0.00000E+00 3.39899E-09
7.61557E-13 3.34975E-09
1.18994E-12 3.32261E-09
1.71346E-12 3.28996E-09
2.33225E-12 3.25207E-09
3.04617E-12 3.20927E-09
3.85530E-12 3.16180E-09
4.75964E-12 3.11008E-09
5.75917E-12 3.05509E-09
6.85391E-12 2.99606E-09
8.04379E-12 2.93483E-09
9.32893E-12 2.87037E-09
1.07092E-11 2.80442E-09
1.21847E-11 2.73635E-09
1.37554E-11 2.66726E-09
1.54213E-11 2.59719E-09
1.71823E-11 2.52641E-09
1.90386E-11 2.45576E-09
2.09900E-11 2.38459E-09
2.30367E-11 2.31457E-09
2.51785E-11 2.24411E-09
2.74156E-11 2.17548E-09
2.97478E-11 2.10684E-09
3.21752E-11 2.04015E-09
3.46979E-11 1.97422E-09
3.73157E-11 1.91008E-09
4.00286E-11 1.84732E-09
4.28368E-11 1.78614E-09
4.57402E-11 1.72685E-09
4.87388E-11 1.66889E-09
5.18325E-11 1.61321E-09
5.50215E-11 1.55863E-09
5.83057E-11 1.50652E-09
6.16850E-11 1.45543E-09
6.51595E-11 1.40667E-09
6.87293E-11 1.35921E-09
7.23943E-11 1.31372E-09
7.61544E-11 1.26975E-09
1.18991E-10 9.12008E-10
1.71347E-10 6.69658E-10
2.33223E-10 5.03311E-10
3.04617E-10 3.85945E-10
3.85531E-10 2.99633E-10
4.75965E-10 2.35532E-10
5.75917E-10 1.90969E-10
6.85389E-10 1.53615E-10
8.04380E-10 1.26716E-10
9.32891E-10 1.04396E-10
1.07092E-09 8.73725E-11
1.21847E-09 7.34367E-11
1.37554E-09 6.22846E-11
1.54213E-09 5.31867E-11
1.71823E-09 4.56341E-11
1.90386E-09 3.94673E-11
2.09900E-09 3.41927E-11
2.30367E-09 2.98775E-11
2.51785E-09 2.60948E-11
2.74156E-09 2.29746E-11
2.97478E-09 2.02212E-11
3.21752E-09 1.79053E-11
3.46978E-09 1.58753E-11
3.73156E-09 1.41300E-11
4.00286E-09 1.26077E-11
4.28368E-09 1.12763E-11
4.57402E-09 1.01184E-11
4.87388E-09 9.09249E-12
5.18326E-09 8.20075E-12
5.50215E-09 7.40327E-12
5.83057E-09 6.70812E-12
6.16850E-09 6.08386E-12
6.51596E-09 5.53522E-12
6.87293E-09 5.04388E-12
7.23942E-09 4.60752E-12
7.61544E-09 4.21693E-12
1.18991E-08 1.92062E-12
1.71347E-08 1.00795E-12
2.33223E-08 5.80702E-13
3.04617E-08 3.58009E-13
3.85531E-08 2.32197E-13
4.75965E-08 1.57143E-13
5.75917E-08 1.10092E-13
6.85389E-08 7.93997E-14
8.04380E-08 5.86931E-14
9.32891E-08 4.43164E-14
1.07092E-07 3.40763E-14
1.21847E-07 2.66309E-14
1.37554E-07 2.11141E-14
1.54213E-07 1.69562E-14
1.71823E-07 1.37744E-14
1.90386E-07 1.13060E-14
2.09900E-07 9.36726E-15
2.30367E-07 7.82670E-15
2.51785E-07 6.59035E-15
2.74156E-07 5.58891E-15
2.97478E-07 4.77070E-15
3.21752E-07 4.09686E-15
3.46978E-07 3.53784E-15
3.73156E-07 3.07093E-15
4.00286E-07 2.67840E-15
4.28368E-07 2.34654E-15
4.57402E-07 2.06446E-15
4.87388E-07 1.82346E-15
5.18325E-07 1.61658E-15
5.50215E-07 1.43818E-15
5.83057E-07 1.28369E-15
6.16850E-07 1.14935E-15
6.51596E-07 1.03211E-15
6.87293E-07 9.29428E-16
7.23942E-07 8.39190E-16
7.61543E-07 7.59631E-16
1.18991E-06 3.15108E-16
1.71347E-06 1.53247E-16
2.33223E-06 8.32359E-17
3.04617E-06 4.90273E-17
3.85531E-06 3.07249E-17
4.75964E-06 2.02209E-17
5.75916E-06 1.38459E-17
6.85388E-06 9.79654E-18
8.04378E-06 7.12490E-18
9.32888E-06 5.30492E-18
1.07092E-05 4.03062E-18
1.21846E-05 3.11695E-18
1.37553E-05 2.44808E-18
1.54212E-05 1.94937E-18
1.71822E-05 1.57143E-18
1.90385E-05 1.28007E-18
2.09899E-05 1.05445E-18
2.30365E-05 8.76275E-19
2.51783E-05 7.33985E-19
2.74153E-05 6.19277E-19
2.97475E-05 5.26049E-19
3.21749E-05 4.49720E-19
3.46974E-05 3.86784E-19
3.73152E-05 3.34532E-19
4.00281E-05 2.90851E-19
4.28362E-05 2.54090E-19
4.57395E-05 2.22958E-19
4.87380E-05 1.96441E-19
5.18317E-05 1.73740E-19
5.50205E-05 1.54218E-19
5.83045E-05 1.37359E-19
6.16838E-05 1.22745E-19
6.51582E-05 1.10028E-19
6.87277E-05 9.89204E-20
7.23925E-05 8.91834E-20
7.61524E-05 8.09964E-20
9.21439E-05 5.54332E-20
1.09658E-04 3.92162E-20
1.28695E-04 2.85304E-20
1.49255E-04 2.12533E-20
1.71338E-04 1.61603E-20
1.94942E-04 1.25082E-20
2.20070E-04 9.83406E-21
2.46720E-04 7.83937E-21
2.74892E-04 6.32676E-21
3.04586E-04 5.16278E-21
3.35803E-04 4.25513E-21
3.68542E-04 3.53887E-21
4.02802E-04 2.96748E-21
4.38585E-04 2.50704E-21
4.75889E-04 2.13257E-21
5.14715E-04 1.82555E-21
5.55063E-04 1.57187E-21
5.96931E-04 1.36078E-21
6.40321E-04 1.18395E-21
6.85233E-04 1.03491E-21
7.31665E-04 9.08578E-22
7.79618E-04 8.00908E-22
8.29092E-04 7.08687E-22
8.80086E-04 6.29323E-22
9.32601E-04 5.60722E-22
9.86636E-04 5.01176E-22
1.04219E-03 4.49286E-22
1.09927E-03 4.03900E-22
1.15786E-03 3.64061E-22
1.21797E-03 3.28977E-22
1.27961E-03 2.97981E-22
1.34276E-03 2.70515E-22
1.40743E-03 2.46107E-22
1.47362E-03 2.24358E-22
1.54133E-03 2.04928E-22
1.61056E-03 1.87526E-22
1.68131E-03 1.71905E-22
1.75357E-03 1.57850E-22
1.82735E-03 1.45177E-22
1.90265E-03 1.33727E-22
1.97947E-03 1.23361E-22
2.05780E-03 1.13958E-22
2.13765E-03 1.05414E-22
2.21902E-03 9.76371E-23
2.30190E-03 9.05459E-23
2.38630E-03 8.40695E-23
2.47222E-03 7.81457E-23
2.55965E-03 7.27191E-23
2.64859E-03 6.77408E-23
2.73905E-03 6.31676E-23
2.83103E-03 5.89607E-23
2.92452E-03 5.50858E-23
3.01952E-03 5.15124E-23
3.11604E-03 4.82129E-23
3.21407E-03 4.51629E-23
3.31362E-03 4.23403E-23
3.41468E-03 3.97254E-23
3.51725E-03 3.73002E-23
3.62133E-03 3.50488E-23
3.72692E-03 3.29566E-23
3.83403E-03 3.10105E-23
3.94265E-03 2.91987E-23
4.05278E-03 2.75103E-23
4.16442E-03 2.59357E-23
4.27757E-03 2.44658E-23
4.39223E-03 2.30927E-23
4.50840E-03 2.18088E-23
4.62608E-03 2.06076E-23
4.74527E-03 1.94828E-23
4.86597E-03 1.84289E-23
4.98817E-03 1.74406E-23
5.11188E-03 1.65132E-23
5.23711E-03 1.56424E-23
5.36383E-03 1.48243E-23
5.49207E-03 1.40551E-23
5.62181E-03 1.33315E-23
5.75306E-03 1.26504E-23
5.88581E-03 1.20089E-23
6.02007E-03 1.14043E-23
6.15583E-03 1.08343E-23
6.29310E-03 1.02966E-23
6.43187E-03 9.78900E-24
6.57214E-03 9.30968E-24
6.71392E-03 8.85681E-24
6.85720E-03 8.42872E-24
7.00198E-03 8.02387E-24
7.14827E-03 7.64083E-24
7.29605E-03 7.27825E-24
7.44534E-03 6.93490E-24
7.59612E-03 6.60962E-24
7.97965E-03 5.86858E-24
8.37255E-03 5.21899E-24
8.77480E-03 4.64825E-24
9.18641E-03 4.14569E-24
9.60736E-03 3.70227E-24
1.00376E-02 3.31028E-24
1.04773E-02 2.96314E-24
1.09262E-02 2.65518E-24
1.13844E-02 2.38155E-24
1.18520E-02 2.13806E-24
1.23288E-02 1.92108E-24
1.28150E-02 1.72747E-24
1.33104E-02 1.55451E-24
1.38150E-02 1.39979E-24
1.43290E-02 1.26126E-24
1.48521E-02 1.13709E-24
1.53845E-02 1.02568E-24
1.59262E-02 9.25627E-25
1.64770E-02 8.35705E-25
1.70371E-02 7.54820E-25
1.76063E-02 6.82013E-25
1.81848E-02 6.16430E-25
1.87724E-02 5.57319E-25
1.93692E-02 5.04008E-25
1.99751E-02 4.55904E-25
2.05901E-02 4.12475E-25
2.12143E-02 3.73250E-25
2.18476E-02 3.37807E-25
2.24900E-02 3.05770E-25
2.31415E-02 2.76800E-25
2.38021E-02 2.50598E-25
2.44717E-02 2.26891E-25
2.51504E-02 2.05437E-25
2.58382E-02 1.86018E-25
2.65349E-02 1.68438E-25
2.72407E-02 1.52521E-25
2.79555E-02 1.38107E-25
2.86793E-02 1.25054E-25
2.94120E-02 1.13232E-25
3.01537E-02 1.02526E-25
3.09043E-02 9.28285E-26
3.16639E-02 8.40461E-26
3.24324E-02 7.60923E-26
3.32098E-02 6.88895E-26
3.39961E-02 6.23672E-26
3.47912E-02 5.64618E-26
3.55952E-02 5.11156E-26
3.64081E-02 4.62762E-26
3.72297E-02 4.18964E-26
3.80602E-02 3.79332E-26
3.88995E-02 3.43475E-26
3.97476E-02 3.11042E-26
4.06044E-02 2.81710E-26
4.14700E-02 2.55189E-26
4.23443E-02 2.31216E-26
4.32273E-02 2.09549E-26
4.41190E-02 1.89973E-26
4.50194E-02 1.72289E-26
4.59284E-02 1.56317E-26
4.68461E-02 1.41897E-26
4.87074E-02 1.17128E-26
5.06030E-02 9.69592E-27
5.25328E-02 8.05446E-27
5.44967E-02 6.71906E-27
5.64946E-02 5.63265E-27
5.85262E-02 4.74843E-27
6.05914E-02 4.02805E-27
6.26901E-02 3.44014E-27
6.48222E-02 2.95912E-27
6.69873E-02 2.56415E-27
6.91854E-02 2.23833E-27
7.14163E-02 1.96797E-27
7.36799E-02 1.74206E-27
7.59760E-02 1.55172E-27
7.83043E-02 1.38986E-27
8.06647E-02 1.25083E-27
8.30571E-02 1.13014E-27
8.54812E-02 1.02427E-27
8.79369E-02 9.30438E-28
9.04240E-02 8.46468E-28
9.29422E-02 7.70680E-28
9.54915E-02 7.01769E-28
9.80716E-02 6.38732E-28
1.00682E-01 5.80797E-28
1.03323E-01 5.27370E-28
1.05995E-01 4.77994E-28
1.08696E-01 4.32314E-28
1.11427E-01 3.90048E-28
1.14188E-01 3.50970E-28
1.16978E-01 3.14890E-28
1.19797E-01 2.81645E-28
1.22645E-01 2.51089E-28
1.25522E-01 2.23087E-28
1.28428E-01 1.97509E-28
1.31361E-01 1.74228E-28
1.34323E-01 1.53119E-28
1.37313E-01 1.34056E-28
1.40330E-01 1.16915E-28
1.43375E-01 1.01570E-28
1.46447E-01 8.78960E-29
1.49545E-01 7.57706E-29
1.52671E-01 6.50718E-29
1.55823E-01 5.56812E-29
1.59001E-01 4.74834E-29
1.62205E-01 4.03674E-29
1.65435E-01 3.42271E-29
1.68690E-01 2.89615E-29
1.71970E-01 2.44753E-29
1.75276E-01 2.06793E-29
1.78606E-01 1.74905E-29
1.81961E-01 1.48321E-29
1.85340E-01 1.26338E-29
1.88743E-01 1.08313E-29
1.92169E-01 9.36648E-30
1.95619E-01 8.18720E-30
1.99092E-01 7.24686E-30
2.02589E-01 6.50424E-30
2.06107E-01 5.92313E-30
2.09649E-01 5.47201E-30
2.13212E-01 5.12370E-30
2.16797E-01 4.85498E-30
2.20404E-01 4.64625E-30
2.24032E-01 4.48114E-30
2.27680E-01 4.34622E-30
2.31350E-01 4.23062E-30
2.35040E-01 4.12573E-30
2.38751E-01 4.02492E-30
2.42481E-01 3.92324E-30
2.46231E-01 3.81719E-30
2.50000E-01 3.70446E-30
2.53788E-01 3.58375E-30
2.57595E-01 3.45456E-30
2.61421E-01 3.31703E-30
2.65264E-01 3.17181E-30
2.69126E-01 3.01987E-30
2.73005E-01 2.86248E-30
2.76901E-01 2.70104E-30
2.80814E-01 2.53704E-30
2.84744E-01 2.37199E-30
2.88691E-01 2.20736E-30
2.92653E-01 2.04455E-30
2.96632E-01 1.88485E-30
3.00625E-01 1.72941E-30
3.04634E-01 1.57927E-30
3.08658E-01 1.43529E-30
3.12697E-01 1.29818E-30
3.16749E-01 1.16852E-30
3.20816E-01 1.04672E-30
3.24896E-01 9.33054E-31
3.28990E-01 8.27686E-31
3.33097E-01 7.30644E-31
3.37216E-01 6.41860E-31
3.41348E-01 5.61170E-31
3.45492E-01 4.88334E-31
3.49647E-01 4.23044E-31
3.53814E-01 3.64940E-31
3.57992E-01 3.13618E-31
3.62181E-01 2.68644E-31
3.66381E-01 2.29563E-31
3.70590E-01 1.95907E-31
3.74810E-01 1.67205E-31
3.79039E-01 1.42989E-31
3.83277E-01 1.22801E-31
3.87524E-01 1.06197E-31
3.91780E-01 9.27519E-32
3.96044E-01 8.20620E-32
4.00316E-01 7.37494E-32
4.04596E-01 6.74622E-32
4.08882E-01 6.28764E-32
4.13176E-01 5.96963E-32
4.17476E-01 5.76546E-32
4.21783E-01 5.65121E-32
4.26095E-01 5.60568E-32
4.30413E-01 5.61032E-32
4.34737E-01 5.64908E-32
4.39065E-01 5.70824E-32
4.43398E-01 5.77630E-32
4.47736E-01 5.84378E-32
4.52077E-01 5.90303E-32
4.56422E-01 5.94807E-32
4.60770E-01 5.97444E-32
4.65122E-01 5.97898E-32
4.69476E-01 5.95966E-32
4.73832E-01 5.91549E-32
4.78190E-01 5.84630E-32
4.82550E-01 5.75261E-32
4.86912E-01 5.63553E-32
4.91274E-01 5.49664E-32
4.95637E-01 5.33783E-32
5.00000E-01 5.16129E-32
5.04363E-01 4.96935E-32
5.08726E-01 4.76444E-32
5.13088E-01 4.54902E-32
5.17450E-01 4.32553E-32
5.21810E-01 4.09634E-32
5.26168E-01 3.86372E-32
5.30524E-01 3.62980E-32
5.34878E-01 3.39657E-32
5.39230E-01 3.16582E-32
5.43578E-01 2.93918E-32
5.47923E-01 2.71808E-32
5.52264E-01 2.50377E-32
5.56602E-01 2.29731E-32
5.60935E-01 2.09958E-32
5.65263E-01 1.91126E-32
5.69587E-01 1.73291E-32
5.73905E-01 1.56490E-32
5.78217E-01 1.40746E-32
5.82524E-01 1.26071E-32
5.86824E-01 1.12463E-32
5.91118E-01 9.99117E-33
5.95404E-01 8.83954E-33
5.99684E-01 7.78860E-33
6.03956E-01 6.83484E-33
6.08220E-01 5.97422E-33
6.12476E-01 5.20224E-33
6.16723E-01 4.51407E-33
6.20961E-01 3.90465E-33
6.25190E-01 3.36875E-33
6.29410E-01 2.90107E-33
6.33619E-01 2.49629E-33
6.37819E-01 2.14914E-33
6.42008E-01 1.85447E-33
6.46186E-01 1.60725E-33
6.50353E-01 1.40264E-33
6.54508E-01 1.23602E-33
6.58652E-01 1.10299E-33
6.62784E-01 9.99409E-34
6.66903E-01 9.21414E-34
6.71010E-01 8.65399E-34
6.75104E-01 8.28042E-34
6.79184E-01 8.06294E-34
6.83251E-01 7.97382E-34
6.87303E-01 7.98799E-34
6.91342E-01 8.08295E-34
6.95366E-01 8.23869E-34
6.99375E-01 8.43758E-34
7.03368E-01 8.66419E-34
7.07347E-01 8.90520E-34
7.11309E-01 9.14926E-34
7.15256E-01 9.38678E-34
7.19186E-01 9.60986E-34
7.23099E-01 9.81209E-34
7.26995E-01 9.98844E-34
7.30874E-01 1.01351E-33
7.34736E-01 1.02494E-33
7.38579E-01 1.03295E-33
7.42405E-01 1.03745E-33
7.46212E-01 1.03842E-33
7.50000E-01 1.03591E-33
7.53769E-01 1.03002E-33
7.57519E-01 1.02087E-33
7.61249E-01 1.00865E-33
7.64960E-01 9.93553E-34
7.68650E-01 9.75804E-34
7.72320E-01 9.55637E-34
7.75968E-01 9.33297E-34
7.79596E-01 9.09035E-34
7.83203E-01 8.83101E-34
7.86788E-01 8.55740E-34
7.90351E-01 8.27197E-34
7.93893E-01 7.97703E-34
7.97411E-01 7.67481E-34
8.00908E-01 7.36742E-34
8.04381E-01 7.05686E-34
8.07831E-01 6.74496E-34
8.11257E-01 6.43342E-34
8.14660E-01 6.12380E-34
8.18039E-01 5.81751E-34
8.21394E-01 5.51580E-34
8.24724E-01 5.21980E-34
8.28030E-01 4.93049E-34
8.31310E-01 4.64870E-34
8.34565E-01 4.37515E-34
8.37795E-01 4.11044E-34
8.40999E-01 3.85505E-34
8.44177E-01 3.60937E-34
8.47329E-01 3.37365E-34
8.50455E-01 3.14811E-34
8.53553E-01 2.93283E-34
8.56625E-01 2.72786E-34
8.59670E-01 2.53316E-34
8.62687E-01 2.34863E-34
8.65677E-01 2.17413E-34
8.68639E-01 2.00946E-34
8.71572E-01 1.85440E-34
8.74478E-01 1.70869E-34
8.77355E-01 1.57203E-34
8.80203E-01 1.44411E-34
8.83022E-01 1.32460E-34
8.85812E-01 1.21315E-34
8.88573E-01 1.10942E-34
8.91304E-01 1.01304E-34
8.94005E-01 9.23655E-35
8.96677E-01 8.40901E-35
8.99318E-01 7.64421E-35
9.01928E-01 6.93854E-35
9.04508E-01 6.28864E-35
9.07058E-01 5.69108E-35
9.09576E-01 5.14257E-35
9.12063E-01 4.63992E-35
9.14519E-01 4.18007E-35
9.16943E-01 3.76009E-35
9.19335E-01 3.37713E-35
9.21696E-01 3.02854E-35
9.24024E-01 2.71174E-35
9.26320E-01 2.42433E-35
9.28584E-01 2.16399E-35
9.30815E-01 1.92860E-35
9.33013E-01 1.71610E-35
9.35178E-01 1.52460E-35
9.37310E-01 1.35231E-35
9.39409E-01 1.19757E-35
9.41474E-01 1.05884E-35
9.43505E-01 9.34678E-36
9.45503E-01 8.23743E-36
9.47467E-01 7.24812E-36
9.49397E-01 6.36738E-36
9.51293E-01 5.58472E-36
9.53154E-01 4.89049E-36
9.54981E-01 4.27593E-36
9.56773E-01 3.73278E-36
9.58530E-01 3.25376E-36
9.60252E-01 2.83206E-36
9.61940E-01 2.46154E-36
9.63592E-01 2.13663E-36
9.65209E-01 1.85232E-36
9.66790E-01 1.60395E-36
9.68336E-01 1.38743E-36
9.69846E-01 1.19906E-36
9.71321E-01 1.03549E-36
9.72759E-01 8.93718E-37
9.74162E-01 7.71085E-37
9.75528E-01 6.65175E-37
9.76858E-01 5.73854E-37
9.78152E-01 4.95266E-37
9.79410E-01 4.27695E-37
9.80631E-01 3.69685E-37
9.81815E-01 3.19919E-37
9.82963E-01 2.77251E-37
9.84074E-01 2.40675E-37
9.85148E-01 2.09310E-37
9.86185E-01 1.82399E-37
9.87185E-01 1.59273E-37
9.88148E-01 1.39355E-37
9.89074E-01 1.22161E-37
9.89962E-01 1.07264E-37
9.90814E-01 9.43042E-38
9.91627E-01 8.29760E-38
9.92404E-01 7.30236E-38
9.93143E-01 6.42288E-38
9.93844E-01 5.64133E-38
9.94508E-01 4.94310E-38
9.95134E-01 4.31624E-38
9.95722E-01 3.75088E-38
9.96273E-01 3.23907E-38
9.96786E-01 2.77513E-38
9.97261E-01 2.35389E-38
9.97698E-01 1.97237E-38
9.98097E-01 1.62745E-38
9.98459E-01 1.31761E-38
9.98782E-01 1.04119E-38
9.99067E-01 7.97875E-39
9.99315E-01 5.86981E-39
9.99524E-01 4.08371E-39
9.99695E-01 2.62041E-39
9.99829E-01 1.48086E-39
9.99924E-01 6.65038E-40
9.99981E-01 1.75737E-40
1.00000E+00 1.21280E-41
