 #
 # Subroutine ELSEPA. Elastic scattering of electrons and positrons
 #                    by neutral atoms and positive ions
 #
 # Projectile: electron
 # Kinetic energy = 3.00000E+08 eV = 1.10248E+07 a.u.
 #
 # WARNING: High-energy factorization with free-atom DF screening.
 #          Absorption, polarization and exchange corrections are
 #          switched off.
 #          Phase shifts are calculated for the bare nucleus.
 #          Scattering amplitudes are not evaluated.
 #
 # Element: Re,  Z =  75,  atomic weight = 1.86207E+02 g/mol
 #
 # Nuclear model: Fermi distribution
 #                Average radius = 6.11011E-13 cm
 #                Skin thickness = 5.46000E-14 cm
 #
 # Number of electrons = 75
 #
 # Total elastic cross section = 7.60468E-18 cm**2 = 2.71568E-01 a0**2
 # 1st transport cross section = 1.18337E-25 cm**2 = 4.22590E-09 a0**2
 # 2nd transport cross section = 3.54645E-25 cm**2 = 1.26646E-08 a0**2
 #
 #
 # Differential cross section:                       MU=(1-COS(THETA))/2
 #
 #  THETA        MU          DCS          DCS        Sherman      error
 #  (deg)                 (cm**2/sr)   (a0**2/sr)    function
 #----------------------------------------------------------------------
0.00000E+00 4.89122E-09
7.61557E-13 4.78983E-09
1.18994E-12 4.73441E-09
1.71346E-12 4.66817E-09
2.33225E-12 4.59190E-09
3.04617E-12 4.50608E-09
3.85530E-12 4.41287E-09
4.75964E-12 4.31175E-09
5.75917E-12 4.20560E-09
6.85391E-12 4.09320E-09
8.04379E-12 3.97785E-09
9.32893E-12 3.85870E-09
1.07092E-11 3.73803E-09
1.21847E-11 3.61597E-09
1.37554E-11 3.49342E-09
1.54213E-11 3.37168E-09
1.71823E-11 3.25017E-09
1.90386E-11 3.13135E-09
2.09900E-11 3.01316E-09
2.30367E-11 2.89885E-09
2.51785E-11 2.78601E-09
2.74156E-11 2.67726E-09
2.97478E-11 2.57117E-09
3.21752E-11 2.46889E-09
3.46979E-11 2.37011E-09
3.73157E-11 2.27478E-09
4.00286E-11 2.18351E-09
4.28368E-11 2.09527E-09
4.57402E-11 2.01144E-09
4.87388E-11 1.93021E-09
5.18325E-11 1.85328E-09
5.50215E-11 1.77906E-09
5.83057E-11 1.70861E-09
6.16850E-11 1.64105E-09
6.51595E-11 1.57667E-09
6.87293E-11 1.51527E-09
7.23943E-11 1.45653E-09
7.61544E-11 1.40077E-09
1.18991E-10 9.64235E-10
1.71347E-10 6.86207E-10
2.33223E-10 5.02300E-10
3.04617E-10 3.71901E-10
3.85531E-10 2.86527E-10
4.75965E-10 2.21239E-10
5.75917E-10 1.75824E-10
6.85389E-10 1.39715E-10
8.04380E-10 1.13464E-10
9.32891E-10 9.26066E-11
1.07092E-09 7.66108E-11
1.21847E-09 6.38373E-11
1.37554E-09 5.36160E-11
1.54213E-09 4.53992E-11
1.71823E-09 3.85954E-11
1.90386E-09 3.30940E-11
2.09900E-09 2.84142E-11
2.30367E-09 2.45938E-11
2.51785E-09 2.13115E-11
2.74156E-09 1.85842E-11
2.97478E-09 1.62447E-11
3.21752E-09 1.42638E-11
3.46978E-09 1.25656E-11
3.73156E-09 1.11062E-11
4.00286E-09 9.85380E-12
4.28368E-09 8.76500E-12
4.57402E-09 7.82816E-12
4.87388E-09 7.00601E-12
5.18326E-09 6.29421E-12
5.50215E-09 5.66759E-12
5.83057E-09 5.12039E-12
6.16850E-09 4.63837E-12
6.51596E-09 4.21181E-12
6.87293E-09 3.83265E-12
7.23942E-09 3.49590E-12
7.61544E-09 3.19671E-12
1.18991E-08 1.45219E-12
1.71347E-08 7.55842E-13
2.33223E-08 4.31524E-13
3.04617E-08 2.63640E-13
3.85531E-08 1.69917E-13
4.75965E-08 1.14400E-13
5.75917E-08 7.98243E-14
6.85389E-08 5.73511E-14
8.04380E-08 4.22694E-14
9.32891E-08 3.18351E-14
1.07092E-07 2.44308E-14
1.21847E-07 1.90637E-14
1.37554E-07 1.50925E-14
1.54213E-07 1.21048E-14
1.71823E-07 9.82228E-15
1.90386E-07 8.05257E-15
2.09900E-07 6.66445E-15
2.30367E-07 5.56288E-15
2.51785E-07 4.67941E-15
2.74156E-07 3.96457E-15
2.97478E-07 3.38089E-15
3.21752E-07 2.90063E-15
3.46978E-07 2.50265E-15
3.73156E-07 2.17045E-15
4.00286E-07 1.89153E-15
4.28368E-07 1.65597E-15
4.57402E-07 1.45588E-15
4.87388E-07 1.28510E-15
5.18325E-07 1.13861E-15
5.50215E-07 1.01238E-15
5.83057E-07 9.03170E-16
6.16850E-07 8.08274E-16
6.51596E-07 7.25517E-16
6.87293E-07 6.53084E-16
7.23942E-07 5.89460E-16
7.61543E-07 5.33400E-16
1.18991E-06 2.20782E-16
1.71347E-06 1.07248E-16
2.33223E-06 5.82012E-17
3.04617E-06 3.42561E-17
3.85531E-06 2.14539E-17
4.75964E-06 1.41113E-17
5.75916E-06 9.65765E-18
6.85388E-06 6.83019E-18
8.04378E-06 4.96567E-18
9.32888E-06 3.69605E-18
1.07092E-05 2.80744E-18
1.21846E-05 2.17052E-18
1.37553E-05 1.70440E-18
1.54212E-05 1.35694E-18
1.71822E-05 1.09369E-18
1.90385E-05 8.90787E-19
2.09899E-05 7.33692E-19
2.30365E-05 6.09650E-19
2.51783E-05 5.10607E-19
2.74153E-05 4.30772E-19
2.97475E-05 3.65895E-19
3.21749E-05 3.12782E-19
3.46974E-05 2.68994E-19
3.73152E-05 2.32642E-19
4.00281E-05 2.02255E-19
4.28362E-05 1.76683E-19
4.57395E-05 1.55029E-19
4.87380E-05 1.36586E-19
5.18317E-05 1.20798E-19
5.50205E-05 1.07221E-19
5.83045E-05 9.54973E-20
6.16838E-05 8.53345E-20
6.51582E-05 7.64915E-20
6.87277E-05 6.87682E-20
7.23925E-05 6.19979E-20
7.61524E-05 5.64136E-20
9.21439E-05 3.86169E-20
1.09658E-04 2.73249E-20
1.28695E-04 1.98828E-20
1.49255E-04 1.48137E-20
1.71338E-04 1.12652E-20
1.94942E-04 8.72006E-21
2.20070E-04 6.85607E-21
2.46720E-04 5.46543E-21
2.74892E-04 4.41074E-21
3.04586E-04 3.59894E-21
3.35803E-04 2.96564E-21
3.68542E-04 2.46579E-21
4.02802E-04 2.06697E-21
4.38585E-04 1.74560E-21
4.75889E-04 1.48427E-21
5.14715E-04 1.27000E-21
5.55063E-04 1.09295E-21
5.96931E-04 9.45622E-22
6.40321E-04 8.22212E-22
6.85233E-04 7.18204E-22
7.31665E-04 6.30046E-22
7.79618E-04 5.54923E-22
8.29092E-04 4.90589E-22
8.80086E-04 4.35235E-22
9.32601E-04 3.87399E-22
9.86636E-04 3.45888E-22
1.04219E-03 3.09725E-22
1.09927E-03 2.78105E-22
1.15786E-03 2.50361E-22
1.21797E-03 2.25937E-22
1.27961E-03 2.04370E-22
1.34276E-03 1.85267E-22
1.40743E-03 1.68301E-22
1.47362E-03 1.53192E-22
1.54133E-03 1.39701E-22
1.61056E-03 1.27627E-22
1.68131E-03 1.16796E-22
1.75357E-03 1.07058E-22
1.82735E-03 9.82835E-23
1.90265E-03 9.03623E-23
1.97947E-03 8.31971E-23
2.05780E-03 7.67038E-23
2.13765E-03 7.08089E-23
2.21902E-03 6.54480E-23
2.30190E-03 6.05648E-23
2.38630E-03 5.61098E-23
2.47222E-03 5.20392E-23
2.55965E-03 4.83145E-23
2.64859E-03 4.49016E-23
2.73905E-03 4.17700E-23
2.83103E-03 3.88929E-23
2.92452E-03 3.62463E-23
3.01952E-03 3.38088E-23
3.11604E-03 3.15613E-23
3.21407E-03 2.94866E-23
3.31362E-03 2.75694E-23
3.41468E-03 2.57959E-23
3.51725E-03 2.41536E-23
3.62133E-03 2.26313E-23
3.72692E-03 2.12191E-23
3.83403E-03 1.99076E-23
3.94265E-03 1.86886E-23
4.05278E-03 1.75547E-23
4.16442E-03 1.64991E-23
4.27757E-03 1.55155E-23
4.39223E-03 1.45983E-23
4.50840E-03 1.37424E-23
4.62608E-03 1.29431E-23
4.74527E-03 1.21962E-23
4.86597E-03 1.14978E-23
4.98817E-03 1.08442E-23
5.11188E-03 1.02322E-23
5.23711E-03 9.65878E-24
5.36383E-03 9.12122E-24
5.49207E-03 8.61695E-24
5.62181E-03 8.14365E-24
5.75306E-03 7.69918E-24
5.88581E-03 7.28154E-24
6.02007E-03 6.88893E-24
6.15583E-03 6.51965E-24
6.29310E-03 6.17214E-24
6.43187E-03 5.84497E-24
6.57214E-03 5.53681E-24
6.71392E-03 5.24642E-24
6.85720E-03 4.97265E-24
7.00198E-03 4.71445E-24
7.14827E-03 4.47083E-24
7.29605E-03 4.24088E-24
7.44534E-03 4.02374E-24
7.59612E-03 3.81862E-24
7.97965E-03 3.35372E-24
8.37255E-03 2.94930E-24
8.77480E-03 2.59678E-24
9.18641E-03 2.28891E-24
9.60736E-03 2.01958E-24
1.00376E-02 1.78357E-24
1.04773E-02 1.57646E-24
1.09262E-02 1.39445E-24
1.13844E-02 1.23430E-24
1.18520E-02 1.09321E-24
1.23288E-02 9.68777E-25
1.28150E-02 8.58926E-25
1.33104E-02 7.61858E-25
1.38150E-02 6.76013E-25
1.43290E-02 6.00036E-25
1.48521E-02 5.32746E-25
1.53845E-02 4.73113E-25
1.59262E-02 4.20235E-25
1.64770E-02 3.73326E-25
1.70371E-02 3.31692E-25
1.76063E-02 2.94727E-25
1.81848E-02 2.61897E-25
1.87724E-02 2.32731E-25
1.93692E-02 2.06816E-25
1.99751E-02 1.83785E-25
2.05901E-02 1.63314E-25
2.12143E-02 1.45119E-25
2.18476E-02 1.28944E-25
2.24900E-02 1.14567E-25
2.31415E-02 1.01788E-25
2.38021E-02 9.04307E-26
2.44717E-02 8.03378E-26
2.51504E-02 7.13702E-26
2.58382E-02 6.34038E-26
2.65349E-02 5.63285E-26
2.72407E-02 5.00461E-26
2.79555E-02 4.44693E-26
2.86793E-02 3.95202E-26
2.94120E-02 3.51295E-26
3.01537E-02 3.12355E-26
3.09043E-02 2.77830E-26
3.16639E-02 2.47231E-26
3.24324E-02 2.20120E-26
3.32098E-02 1.96108E-26
3.39961E-02 1.74846E-26
3.47912E-02 1.56025E-26
3.55952E-02 1.39370E-26
3.64081E-02 1.24635E-26
3.72297E-02 1.11600E-26
3.80602E-02 1.00072E-26
3.88995E-02 8.98763E-27
3.97476E-02 8.08590E-27
4.06044E-02 7.28831E-27
4.14700E-02 6.58266E-27
4.23443E-02 5.95815E-27
4.32273E-02 5.40517E-27
4.41190E-02 4.91520E-27
4.50194E-02 4.48071E-27
4.59284E-02 4.09502E-27
4.68461E-02 3.75221E-27
4.87074E-02 3.17501E-27
5.06030E-02 2.71431E-27
5.25328E-02 2.34312E-27
5.44967E-02 2.04063E-27
5.64946E-02 1.79085E-27
5.85262E-02 1.58161E-27
6.05914E-02 1.40368E-27
6.26901E-02 1.25014E-27
6.48222E-02 1.11581E-27
6.69873E-02 9.96849E-28
6.91854E-02 8.90442E-28
7.14163E-02 7.94523E-28
7.36799E-02 7.07582E-28
7.59760E-02 6.28516E-28
7.83043E-02 5.56505E-28
8.06647E-02 4.90930E-28
8.30571E-02 4.31306E-28
8.54812E-02 3.77237E-28
8.79369E-02 3.28377E-28
9.04240E-02 2.84412E-28
9.29422E-02 2.45046E-28
9.54915E-02 2.09985E-28
9.80716E-02 1.78941E-28
1.00682E-01 1.51623E-28
1.03323E-01 1.27742E-28
1.05995E-01 1.07008E-28
1.08696E-01 8.91370E-29
1.11427E-01 7.38514E-29
1.14188E-01 6.08814E-29
1.16978E-01 4.99693E-29
1.19797E-01 4.08704E-29
1.22645E-01 3.33553E-29
1.25522E-01 2.72109E-29
1.28428E-01 2.22413E-29
1.31361E-01 1.82681E-29
1.34323E-01 1.51307E-29
1.37313E-01 1.26858E-29
1.40330E-01 1.08070E-29
1.43375E-01 9.38396E-30
1.46447E-01 8.32157E-30
1.49545E-01 7.53867E-30
1.52671E-01 6.96703E-30
1.55823E-01 6.55010E-30
1.59001E-01 6.24177E-30
1.62205E-01 6.00520E-30
1.65435E-01 5.81158E-30
1.68690E-01 5.63904E-30
1.71970E-01 5.47163E-30
1.75276E-01 5.29829E-30
1.78606E-01 5.11200E-30
1.81961E-01 4.90897E-30
1.85340E-01 4.68796E-30
1.88743E-01 4.44963E-30
1.92169E-01 4.19607E-30
1.95619E-01 3.93026E-30
1.99092E-01 3.65578E-30
2.02589E-01 3.37647E-30
2.06107E-01 3.09621E-30
2.09649E-01 2.81870E-30
2.13212E-01 2.54737E-30
2.16797E-01 2.28523E-30
2.20404E-01 2.03486E-30
2.24032E-01 1.79836E-30
2.27680E-01 1.57736E-30
2.31350E-01 1.37299E-30
2.35040E-01 1.18595E-30
2.38751E-01 1.01654E-30
2.42481E-01 8.64698E-31
2.46231E-01 7.30041E-31
2.50000E-01 6.11929E-31
2.53788E-01 5.09510E-31
2.57595E-01 4.21770E-31
2.61421E-01 3.47576E-31
2.65264E-01 2.85719E-31
2.69126E-01 2.34950E-31
2.73005E-01 1.94015E-31
2.76901E-01 1.61679E-31
2.80814E-01 1.36752E-31
2.84744E-01 1.18107E-31
2.88691E-01 1.04690E-31
2.92653E-01 9.55360E-32
2.96632E-01 8.97705E-32
3.00625E-01 8.66149E-32
3.04634E-01 8.53866E-32
3.08658E-01 8.54972E-32
3.12697E-01 8.64490E-32
3.16749E-01 8.78296E-32
3.20816E-01 8.93063E-32
3.24896E-01 9.06186E-32
3.28990E-01 9.15711E-32
3.33097E-01 9.20258E-32
3.37216E-01 9.18946E-32
3.41348E-01 9.11315E-32
3.45492E-01 8.97261E-32
3.49647E-01 8.76961E-32
3.53814E-01 8.50822E-32
3.57992E-01 8.19413E-32
3.62181E-01 7.83425E-32
3.66381E-01 7.43623E-32
3.70590E-01 7.00811E-32
3.74810E-01 6.55795E-32
3.79039E-01 6.09364E-32
3.83277E-01 5.62267E-32
3.87524E-01 5.15195E-32
3.91780E-01 4.68772E-32
3.96044E-01 4.23548E-32
4.00316E-01 3.79991E-32
4.04596E-01 3.38492E-32
4.08882E-01 2.99361E-32
4.13176E-01 2.62830E-32
4.17476E-01 2.29063E-32
4.21783E-01 1.98155E-32
4.26095E-01 1.70141E-32
4.30413E-01 1.45006E-32
4.34737E-01 1.22686E-32
4.39065E-01 1.03082E-32
4.43398E-01 8.60620E-33
4.47736E-01 7.14695E-33
4.52077E-01 5.91300E-33
4.56422E-01 4.88567E-33
4.60770E-01 4.04554E-33
4.65122E-01 3.37293E-33
4.69476E-01 2.84830E-33
4.73832E-01 2.45260E-33
4.78190E-01 2.16753E-33
4.82550E-01 1.97577E-33
4.86912E-01 1.86118E-33
4.91274E-01 1.80887E-33
4.95637E-01 1.80533E-33
5.00000E-01 1.83844E-33
5.04363E-01 1.89751E-33
5.08726E-01 1.97322E-33
5.13088E-01 2.05760E-33
5.17450E-01 2.14397E-33
5.21810E-01 2.22684E-33
5.26168E-01 2.30183E-33
5.30524E-01 2.36560E-33
5.34878E-01 2.41570E-33
5.39230E-01 2.45050E-33
5.43578E-01 2.46909E-33
5.47923E-01 2.47113E-33
5.52264E-01 2.45684E-33
5.56602E-01 2.42683E-33
5.60935E-01 2.38205E-33
5.65263E-01 2.32372E-33
5.69587E-01 2.25325E-33
5.73905E-01 2.17215E-33
5.78217E-01 2.08204E-33
5.82524E-01 1.98454E-33
5.86824E-01 1.88125E-33
5.91118E-01 1.77376E-33
5.95404E-01 1.66353E-33
5.99684E-01 1.55195E-33
6.03956E-01 1.44032E-33
6.08220E-01 1.32977E-33
6.12476E-01 1.22134E-33
6.16723E-01 1.11590E-33
6.20961E-01 1.01423E-33
6.25190E-01 9.16948E-34
6.29410E-01 8.24555E-34
6.33619E-01 7.37437E-34
6.37819E-01 6.55868E-34
6.42008E-01 5.80023E-34
6.46186E-01 5.09982E-34
6.50353E-01 4.45745E-34
6.54508E-01 3.87241E-34
6.58652E-01 3.34336E-34
6.62784E-01 2.86845E-34
6.66903E-01 2.44539E-34
6.71010E-01 2.07155E-34
6.75104E-01 1.74405E-34
6.79184E-01 1.45981E-34
6.83251E-01 1.21565E-34
6.87303E-01 1.00829E-34
6.91342E-01 8.34485E-35
6.95366E-01 6.91000E-35
6.99375E-01 5.74686E-35
7.03368E-01 4.82502E-35
7.07347E-01 4.11539E-35
7.11309E-01 3.59045E-35
7.15256E-01 3.22438E-35
7.19186E-01 2.99317E-35
7.23099E-01 2.87468E-35
7.26995E-01 2.84870E-35
7.30874E-01 2.89690E-35
7.34736E-01 3.00285E-35
7.38579E-01 3.15191E-35
7.42405E-01 3.33122E-35
7.46212E-01 3.52958E-35
7.50000E-01 3.73736E-35
7.53769E-01 3.94640E-35
7.57519E-01 4.14988E-35
7.61249E-01 4.34223E-35
7.64960E-01 4.51903E-35
7.68650E-01 4.67686E-35
7.72320E-01 4.81319E-35
7.75968E-01 4.92633E-35
7.79596E-01 5.01526E-35
7.83203E-01 5.07956E-35
7.86788E-01 5.11935E-35
7.90351E-01 5.13515E-35
7.93893E-01 5.12784E-35
7.97411E-01 5.09861E-35
8.00908E-01 5.04885E-35
8.04381E-01 4.98010E-35
8.07831E-01 4.89404E-35
8.11257E-01 4.79240E-35
8.14660E-01 4.67697E-35
8.18039E-01 4.54952E-35
8.21394E-01 4.41179E-35
8.24724E-01 4.26549E-35
8.28030E-01 4.11223E-35
8.31310E-01 3.95358E-35
8.34565E-01 3.79099E-35
8.37795E-01 3.62580E-35
8.40999E-01 3.45928E-35
8.44177E-01 3.29254E-35
8.47329E-01 3.12664E-35
8.50455E-01 2.96248E-35
8.53553E-01 2.80087E-35
8.56625E-01 2.64251E-35
8.59670E-01 2.48803E-35
8.62687E-01 2.33794E-35
8.65677E-01 2.19266E-35
8.68639E-01 2.05254E-35
8.71572E-01 1.91784E-35
8.74478E-01 1.78877E-35
8.77355E-01 1.66546E-35
8.80203E-01 1.54798E-35
8.83022E-01 1.43637E-35
8.85812E-01 1.33061E-35
8.88573E-01 1.23064E-35
8.91304E-01 1.13637E-35
8.94005E-01 1.04767E-35
8.96677E-01 9.64409E-36
8.99318E-01 8.86409E-36
9.01928E-01 8.13508E-36
9.04508E-01 7.45491E-36
9.07058E-01 6.82158E-36
9.09576E-01 6.23303E-36
9.12063E-01 5.68707E-36
9.14519E-01 5.18159E-36
9.16943E-01 4.71433E-36
9.19335E-01 4.28326E-36
9.21696E-01 3.88614E-36
9.24024E-01 3.52096E-36
9.26320E-01 3.18568E-36
9.28584E-01 2.87837E-36
9.30815E-01 2.59711E-36
9.33013E-01 2.34014E-36
9.35178E-01 2.10570E-36
9.37310E-01 1.89217E-36
9.39409E-01 1.69796E-36
9.41474E-01 1.52159E-36
9.43505E-01 1.36168E-36
9.45503E-01 1.21691E-36
9.47467E-01 1.08603E-36
9.49397E-01 9.67900E-37
9.51293E-01 8.61435E-37
9.53154E-01 7.65637E-37
9.54981E-01 6.79536E-37
9.56773E-01 6.02317E-37
9.58530E-01 5.33128E-37
9.60252E-01 4.71255E-37
9.61940E-01 4.16004E-37
9.63592E-01 3.66743E-37
9.65209E-01 3.22871E-37
9.66790E-01 2.83891E-37
9.68336E-01 2.49305E-37
9.69846E-01 2.18657E-37
9.71321E-01 1.91546E-37
9.72759E-01 1.67602E-37
9.74162E-01 1.46484E-37
9.75528E-01 1.27893E-37
9.76858E-01 1.11557E-37
9.78152E-01 9.72063E-38
9.79410E-01 8.46347E-38
9.80631E-01 7.36286E-38
9.81815E-01 6.40074E-38
9.82963E-01 5.56066E-38
9.84074E-01 4.82813E-38
9.85148E-01 4.19000E-38
9.86185E-01 3.63423E-38
9.87185E-01 3.15049E-38
9.88148E-01 2.73036E-38
9.89074E-01 2.36469E-38
9.89962E-01 2.04646E-38
9.90814E-01 1.76985E-38
9.91627E-01 1.52896E-38
9.92404E-01 1.31911E-38
9.93143E-01 1.13623E-38
9.93844E-01 9.76351E-39
9.94508E-01 8.36786E-39
9.95134E-01 7.14497E-39
9.95722E-01 6.07273E-39
9.96273E-01 5.13081E-39
9.96786E-01 4.30673E-39
9.97261E-01 3.58104E-39
9.97698E-01 2.94571E-39
9.98097E-01 2.38765E-39
9.98459E-01 1.90368E-39
9.98782E-01 1.48181E-39
9.99067E-01 1.12158E-39
9.99315E-01 8.16143E-40
9.99524E-01 5.62392E-40
9.99695E-01 3.57487E-40
9.99829E-01 2.01028E-40
9.99924E-01 8.94739E-41
9.99981E-01 2.36478E-41
1.00000E+00 1.31625E-42
