 #
 # Subroutine ELSEPA. Elastic scattering of electrons and positrons
 #                    by neutral atoms and positive ions
 #
 # Projectile: electron
 # Kinetic energy = 4.00000E+08 eV = 1.46997E+07 a.u.
 #
 # WARNING: High-energy factorization with free-atom DF screening.
 #          Absorption, polarization and exchange corrections are
 #          switched off.
 #          Phase shifts are calculated for the bare nucleus.
 #          Scattering amplitudes are not evaluated.
 #
 # Element: Re,  Z =  75,  atomic weight = 1.86207E+02 g/mol
 #
 # Nuclear model: Fermi distribution
 #                Average radius = 6.11011E-13 cm
 #                Skin thickness = 5.46000E-14 cm
 #
 # Number of electrons = 75
 #
 # Total elastic cross section = 7.60246E-18 cm**2 = 2.71489E-01 a0**2
 # 1st transport cross section = 6.65076E-26 cm**2 = 2.37503E-09 a0**2
 # 2nd transport cross section = 1.99405E-25 cm**2 = 7.12088E-09 a0**2
 #
 #
 # Differential cross section:                       MU=(1-COS(THETA))/2
 #
 #  THETA        MU          DCS          DCS        Sherman      error
 #  (deg)                 (cm**2/sr)   (a0**2/sr)    function
 #----------------------------------------------------------------------
0.00000E+00 8.68811E-09
7.61557E-13 8.37269E-09
1.18994E-12 8.20386E-09
1.71346E-12 8.00454E-09
2.33225E-12 7.78068E-09
3.04617E-12 7.53489E-09
3.85530E-12 7.27164E-09
4.75964E-12 6.99649E-09
5.75917E-12 6.71382E-09
6.85391E-12 6.42438E-09
8.04379E-12 6.13421E-09
9.32893E-12 5.84674E-09
1.07092E-11 5.56386E-09
1.21847E-11 5.28562E-09
1.37554E-11 5.01644E-09
1.54213E-11 4.75750E-09
1.71823E-11 4.50824E-09
1.90386E-11 4.26936E-09
2.09900E-11 4.04259E-09
2.30367E-11 3.82788E-09
2.51785E-11 3.62346E-09
2.74156E-11 3.43048E-09
2.97478E-11 3.24897E-09
3.21752E-11 3.07830E-09
3.46979E-11 2.91671E-09
3.73157E-11 2.76523E-09
4.00286E-11 2.62327E-09
4.28368E-11 2.48976E-09
4.57402E-11 2.36399E-09
4.87388E-11 2.24617E-09
5.18325E-11 2.13576E-09
5.50215E-11 2.03163E-09
5.83057E-11 1.93373E-09
6.16850E-11 1.84188E-09
6.51595E-11 1.75567E-09
6.87293E-11 1.67399E-09
7.23943E-11 1.59723E-09
7.61544E-11 1.52504E-09
1.18991E-10 9.88049E-10
1.71347E-10 6.61232E-10
2.33223E-10 4.67215E-10
3.04617E-10 3.36597E-10
3.85531E-10 2.48443E-10
4.75965E-10 1.88104E-10
5.75917E-10 1.45360E-10
6.85389E-10 1.13525E-10
8.04380E-10 9.00721E-11
9.32891E-10 7.24391E-11
1.07092E-09 5.88572E-11
1.21847E-09 4.81244E-11
1.37554E-09 3.97230E-11
1.54213E-09 3.30567E-11
1.71823E-09 2.76703E-11
1.90386E-09 2.33003E-11
2.09900E-09 1.97560E-11
2.30367E-09 1.68563E-11
2.51785E-09 1.44524E-11
2.74156E-09 1.24628E-11
2.97478E-09 1.08075E-11
3.21752E-09 9.42061E-12
3.46978E-09 8.25110E-12
3.73156E-09 7.25802E-12
4.00286E-09 6.41112E-12
4.28368E-09 5.68661E-12
4.57402E-09 5.06376E-12
4.87388E-09 4.52662E-12
5.18326E-09 4.06107E-12
5.50215E-09 3.65469E-12
5.83057E-09 3.29870E-12
6.16850E-09 2.98588E-12
6.51596E-09 2.70988E-12
6.87293E-09 2.46455E-12
7.23942E-09 2.24668E-12
7.61544E-09 2.05262E-12
1.18991E-08 9.17604E-13
1.71347E-08 4.69009E-13
2.33223E-08 2.63796E-13
3.04617E-08 1.59513E-13
3.85531E-08 1.02030E-13
4.75965E-08 6.82629E-14
5.75917E-08 4.73846E-14
6.85389E-08 3.39150E-14
8.04380E-08 2.49125E-14
9.32891E-08 1.87111E-14
1.07092E-07 1.43258E-14
1.21847E-07 1.11532E-14
1.37554E-07 8.81179E-15
1.54213E-07 7.05301E-15
1.71823E-07 5.71146E-15
1.90386E-07 4.67385E-15
2.09900E-07 3.86122E-15
2.30367E-07 3.21753E-15
2.51785E-07 2.70238E-15
2.74156E-07 2.28616E-15
2.97478E-07 1.94699E-15
3.21752E-07 1.66841E-15
3.46978E-07 1.43788E-15
3.73156E-07 1.24581E-15
4.00286E-07 1.08474E-15
4.28368E-07 9.48877E-16
4.57402E-07 8.33631E-16
4.87388E-07 7.35363E-16
5.18325E-07 6.51159E-16
5.50215E-07 5.78672E-16
5.83057E-07 5.15998E-16
6.16850E-07 4.61586E-16
6.51596E-07 4.14163E-16
6.87293E-07 3.72680E-16
7.23942E-07 3.36264E-16
7.61543E-07 3.04192E-16
1.18991E-06 1.25629E-16
1.71347E-06 6.09284E-17
2.33223E-06 3.30200E-17
3.04617E-06 1.94127E-17
3.85531E-06 1.21461E-17
4.75964E-06 7.98269E-18
5.75916E-06 5.45967E-18
6.85388E-06 3.85913E-18
8.04378E-06 2.80437E-18
9.32888E-06 2.08656E-18
1.07092E-05 1.58440E-18
1.21846E-05 1.22461E-18
1.37553E-05 9.61402E-19
1.54212E-05 7.65261E-19
1.71822E-05 6.16689E-19
1.90385E-05 5.02207E-19
2.09899E-05 4.13587E-19
2.30365E-05 3.43625E-19
2.51783E-05 2.87770E-19
2.74153E-05 2.42755E-19
2.97475E-05 2.06178E-19
3.21749E-05 1.76238E-19
3.46974E-05 1.51556E-19
3.73152E-05 1.31067E-19
4.00281E-05 1.13941E-19
4.28362E-05 9.95309E-20
4.57395E-05 8.73287E-20
4.87380E-05 7.69369E-20
5.18317E-05 6.80413E-20
5.50205E-05 6.03921E-20
5.83045E-05 5.37871E-20
6.16838E-05 4.80618E-20
6.51582E-05 4.30803E-20
6.87277E-05 3.87296E-20
7.23925E-05 3.49159E-20
7.61524E-05 3.18966E-20
9.21439E-05 2.18409E-20
1.09658E-04 1.54579E-20
1.28695E-04 1.12494E-20
1.49255E-04 8.38172E-21
1.71338E-04 6.37353E-21
1.94942E-04 4.93227E-21
2.20070E-04 3.87639E-21
2.46720E-04 3.08843E-21
2.74892E-04 2.49067E-21
3.04586E-04 2.03053E-21
3.35803E-04 1.67163E-21
3.68542E-04 1.38835E-21
4.02802E-04 1.16234E-21
4.38585E-04 9.80238E-22
4.75889E-04 8.32190E-22
5.14715E-04 7.10836E-22
5.55063E-04 6.10601E-22
5.96931E-04 5.27230E-22
6.40321E-04 4.57432E-22
6.85233E-04 3.98645E-22
7.31665E-04 3.48853E-22
7.79618E-04 3.06458E-22
8.29092E-04 2.70185E-22
8.80086E-04 2.39007E-22
9.32601E-04 2.12093E-22
9.86636E-04 1.88766E-22
1.04219E-03 1.68471E-22
1.09927E-03 1.50750E-22
1.15786E-03 1.35225E-22
1.21797E-03 1.21579E-22
1.27961E-03 1.09550E-22
1.34276E-03 9.89146E-23
1.40743E-03 8.94865E-23
1.47362E-03 8.11068E-23
1.54133E-03 7.36408E-23
1.61056E-03 6.69733E-23
1.68131E-03 6.10057E-23
1.75357E-03 5.56532E-23
1.82735E-03 5.08427E-23
1.90265E-03 4.65111E-23
1.97947E-03 4.26034E-23
2.05780E-03 3.90721E-23
2.13765E-03 3.58755E-23
2.21902E-03 3.29773E-23
2.30190E-03 3.03455E-23
2.38630E-03 2.79522E-23
2.47222E-03 2.57726E-23
2.55965E-03 2.37851E-23
2.64859E-03 2.19703E-23
2.73905E-03 2.03112E-23
2.83103E-03 1.87925E-23
2.92452E-03 1.74009E-23
3.01952E-03 1.61243E-23
3.11604E-03 1.49520E-23
3.21407E-03 1.38742E-23
3.31362E-03 1.28826E-23
3.41468E-03 1.19692E-23
3.51725E-03 1.11272E-23
3.62133E-03 1.03503E-23
3.72692E-03 9.63289E-24
3.83403E-03 8.96989E-24
3.94265E-03 8.35668E-24
4.05278E-03 7.78911E-24
4.16442E-03 7.26340E-24
4.27757E-03 6.77614E-24
4.39223E-03 6.32420E-24
4.50840E-03 5.90476E-24
4.62608E-03 5.51525E-24
4.74527E-03 5.15332E-24
4.86597E-03 4.81681E-24
4.98817E-03 4.50378E-24
5.11188E-03 4.21242E-24
5.23711E-03 3.94112E-24
5.36383E-03 3.68835E-24
5.49207E-03 3.45274E-24
5.62181E-03 3.23304E-24
5.75306E-03 3.02807E-24
5.88581E-03 2.83677E-24
6.02007E-03 2.65815E-24
6.15583E-03 2.49131E-24
6.29310E-03 2.33542E-24
6.43187E-03 2.18971E-24
6.57214E-03 2.05346E-24
6.71392E-03 1.92602E-24
6.85720E-03 1.80679E-24
7.00198E-03 1.69519E-24
7.14827E-03 1.59072E-24
7.29605E-03 1.49288E-24
7.44534E-03 1.40124E-24
7.59612E-03 1.31538E-24
7.97965E-03 1.12358E-24
8.37255E-03 9.60289E-25
8.77480E-03 8.21114E-25
9.18641E-03 7.02366E-25
9.60736E-03 6.00957E-25
1.00376E-02 5.14291E-25
1.04773E-02 4.40178E-25
1.09262E-02 3.76769E-25
1.13844E-02 3.22496E-25
1.18520E-02 2.76033E-25
1.23288E-02 2.36248E-25
1.28150E-02 2.02179E-25
1.33104E-02 1.73007E-25
1.38150E-02 1.48031E-25
1.43290E-02 1.26652E-25
1.48521E-02 1.08356E-25
1.53845E-02 9.27058E-26
1.59262E-02 7.93232E-26
1.64770E-02 6.78854E-26
1.70371E-02 5.81147E-26
1.76063E-02 4.97728E-26
1.81848E-02 4.26549E-26
1.87724E-02 3.65848E-26
1.93692E-02 3.14114E-26
1.99751E-02 2.70046E-26
2.05901E-02 2.32528E-26
2.12143E-02 2.00599E-26
2.18476E-02 1.73437E-26
2.24900E-02 1.50334E-26
2.31415E-02 1.30685E-26
2.38021E-02 1.13971E-26
2.44717E-02 9.97479E-27
2.51504E-02 8.76352E-27
2.58382E-02 7.73089E-27
2.65349E-02 6.84925E-27
2.72407E-02 6.09507E-27
2.79555E-02 5.44834E-27
2.86793E-02 4.89207E-27
2.94120E-02 4.41191E-27
3.01537E-02 3.99570E-27
3.09043E-02 3.63321E-27
3.16639E-02 3.31583E-27
3.24324E-02 3.03634E-27
3.32098E-02 2.78870E-27
3.39961E-02 2.56788E-27
3.47912E-02 2.36969E-27
3.55952E-02 2.19065E-27
3.64081E-02 2.02791E-27
3.72297E-02 1.87911E-27
3.80602E-02 1.74229E-27
3.88995E-02 1.61589E-27
3.97476E-02 1.49860E-27
4.06044E-02 1.38938E-27
4.14700E-02 1.28736E-27
4.23443E-02 1.19184E-27
4.32273E-02 1.10227E-27
4.41190E-02 1.01818E-27
4.50194E-02 9.39187E-28
4.59284E-02 8.64972E-28
4.68461E-02 7.95271E-28
4.87074E-02 6.68529E-28
5.06030E-02 5.57437E-28
5.25328E-02 4.60720E-28
5.44967E-02 3.77223E-28
5.64946E-02 3.05831E-28
5.85262E-02 2.45441E-28
6.05914E-02 1.94948E-28
6.26901E-02 1.53255E-28
6.48222E-02 1.19288E-28
6.69873E-02 9.20106E-29
6.91854E-02 7.04427E-29
7.14163E-02 5.36731E-29
7.36799E-02 4.08705E-29
7.59760E-02 3.12901E-29
7.83043E-02 2.42765E-29
8.06647E-02 1.92638E-29
8.30571E-02 1.57726E-29
8.54812E-02 1.34046E-29
8.79369E-02 1.18362E-29
9.04240E-02 1.08108E-29
9.29422E-02 1.01303E-29
9.54915E-02 9.64693E-30
9.80716E-02 9.25488E-30
1.00682E-01 8.88283E-30
1.03323E-01 8.48674E-30
1.05995E-01 8.04356E-30
1.08696E-01 7.54578E-30
1.11427E-01 6.99674E-30
1.14188E-01 6.40685E-30
1.16978E-01 5.79045E-30
1.19797E-01 5.16350E-30
1.22645E-01 4.54178E-30
1.25522E-01 3.93968E-30
1.28428E-01 3.36942E-30
1.31361E-01 2.84063E-30
1.34323E-01 2.36019E-30
1.37313E-01 1.93231E-30
1.40330E-01 1.55879E-30
1.43375E-01 1.23928E-30
1.46447E-01 9.71679E-31
1.49545E-01 7.52552E-31
1.52671E-01 5.77472E-31
1.55823E-01 4.41396E-31
1.59001E-01 3.38978E-31
1.62205E-01 2.64837E-31
1.65435E-01 2.13772E-31
1.68690E-01 1.80927E-31
1.71970E-01 1.61910E-31
1.75276E-01 1.52869E-31
1.78606E-01 1.50520E-31
1.81961E-01 1.52162E-31
1.85340E-01 1.55648E-31
1.88743E-01 1.59348E-31
1.92169E-01 1.62099E-31
1.95619E-01 1.63140E-31
1.99092E-01 1.62050E-31
2.02589E-01 1.58679E-31
2.06107E-01 1.53094E-31
2.09649E-01 1.45515E-31
2.13212E-01 1.36264E-31
2.16797E-01 1.25725E-31
2.20404E-01 1.14308E-31
2.24032E-01 1.02414E-31
2.27680E-01 9.04190E-32
2.31350E-01 7.86561E-32
2.35040E-01 6.74059E-32
2.38751E-01 5.68918E-32
2.42481E-01 4.72789E-32
2.46231E-01 3.86762E-32
2.50000E-01 3.11411E-32
2.53788E-01 2.46858E-32
2.57595E-01 1.92841E-32
2.61421E-01 1.48793E-32
2.65264E-01 1.13913E-32
2.69126E-01 8.72381E-33
2.73005E-01 6.77126E-33
2.76901E-01 5.42405E-33
2.80814E-01 4.57356E-33
2.84744E-01 4.11602E-33
2.88691E-01 3.95547E-33
2.92653E-01 4.00587E-33
2.96632E-01 4.19234E-33
3.00625E-01 4.45186E-33
3.04634E-01 4.73325E-33
3.08658E-01 4.99673E-33
3.12697E-01 5.21313E-33
3.16749E-01 5.36284E-33
3.20816E-01 5.43454E-33
3.24896E-01 5.42393E-33
3.28990E-01 5.33237E-33
3.33097E-01 5.16563E-33
3.37216E-01 4.93265E-33
3.41348E-01 4.64447E-33
3.45492E-01 4.31331E-33
3.49647E-01 3.95170E-33
3.53814E-01 3.57189E-33
3.57992E-01 3.18531E-33
3.62181E-01 2.80222E-33
3.66381E-01 2.43143E-33
3.70590E-01 2.08020E-33
3.74810E-01 1.75417E-33
3.79039E-01 1.45743E-33
3.83277E-01 1.19255E-33
3.87524E-01 9.60786E-34
3.91780E-01 7.62199E-34
3.96044E-01 5.95857E-34
4.00316E-01 4.60027E-34
4.04596E-01 3.52359E-34
4.08882E-01 2.70065E-34
4.13176E-01 2.10087E-34
4.17476E-01 1.69240E-34
4.21783E-01 1.44338E-34
4.26095E-01 1.32301E-34
4.30413E-01 1.30230E-34
4.34737E-01 1.35477E-34
4.39065E-01 1.45680E-34
4.43398E-01 1.58794E-34
4.47736E-01 1.73095E-34
4.52077E-01 1.87183E-34
4.56422E-01 1.99964E-34
4.60770E-01 2.10630E-34
4.65122E-01 2.18634E-34
4.69476E-01 2.23656E-34
4.73832E-01 2.25573E-34
4.78190E-01 2.24423E-34
4.82550E-01 2.20375E-34
4.86912E-01 2.13696E-34
4.91274E-01 2.04721E-34
4.95637E-01 1.93832E-34
5.00000E-01 1.81430E-34
5.04363E-01 1.67921E-34
5.08726E-01 1.53697E-34
5.13088E-01 1.39125E-34
5.17450E-01 1.24538E-34
5.21810E-01 1.10230E-34
5.26168E-01 9.64488E-35
5.30524E-01 8.33992E-35
5.34878E-01 7.12390E-35
5.39230E-01 6.00835E-35
5.43578E-01 5.00073E-35
5.47923E-01 4.10483E-35
5.52264E-01 3.32123E-35
5.56602E-01 2.64771E-35
5.60935E-01 2.07981E-35
5.65263E-01 1.61121E-35
5.69587E-01 1.23422E-35
5.73905E-01 9.40220E-36
5.78217E-01 7.19980E-36
5.82524E-01 5.64045E-36
5.86824E-01 4.62981E-36
5.91118E-01 4.07647E-36
5.95404E-01 3.89355E-36
5.99684E-01 4.00036E-36
6.03956E-01 4.32343E-36
6.08220E-01 4.79712E-36
6.12476E-01 5.36404E-36
6.16723E-01 5.97511E-36
6.20961E-01 6.58938E-36
6.25190E-01 7.17372E-36
6.29410E-01 7.70225E-36
6.33619E-01 8.15582E-36
6.37819E-01 8.52126E-36
6.42008E-01 8.79070E-36
6.46186E-01 8.96081E-36
6.50353E-01 9.03210E-36
6.54508E-01 9.00820E-36
6.58652E-01 8.89516E-36
6.62784E-01 8.70094E-36
6.66903E-01 8.43477E-36
6.71010E-01 8.10670E-36
6.75104E-01 7.72720E-36
6.79184E-01 7.30673E-36
6.83251E-01 6.85552E-36
6.87303E-01 6.38330E-36
6.91342E-01 5.89912E-36
6.95366E-01 5.41122E-36
6.99375E-01 4.92691E-36
7.03368E-01 4.45264E-36
7.07347E-01 3.99378E-36
7.11309E-01 3.55487E-36
7.15256E-01 3.13944E-36
7.19186E-01 2.75022E-36
7.23099E-01 2.38909E-36
7.26995E-01 2.05725E-36
7.30874E-01 1.75520E-36
7.34736E-01 1.48294E-36
7.38579E-01 1.23994E-36
7.42405E-01 1.02526E-36
7.46212E-01 8.37674E-37
7.50000E-01 6.75657E-37
7.53769E-01 5.37512E-37
7.57519E-01 4.21416E-37
7.61249E-01 3.25463E-37
7.64960E-01 2.47699E-37
7.68650E-01 1.86205E-37
7.72320E-01 1.39078E-37
7.75968E-01 1.04493E-37
7.79596E-01 8.07174E-38
7.83203E-01 6.61222E-38
7.86788E-01 5.91879E-38
7.90351E-01 5.85292E-38
7.93893E-01 6.28852E-38
7.97411E-01 7.11227E-38
8.00908E-01 8.22403E-38
8.04381E-01 9.53591E-38
8.07831E-01 1.09717E-37
8.11257E-01 1.24665E-37
8.14660E-01 1.39659E-37
8.18039E-01 1.54251E-37
8.21394E-01 1.68080E-37
8.24724E-01 1.80863E-37
8.28030E-01 1.92387E-37
8.31310E-01 2.02507E-37
8.34565E-01 2.11123E-37
8.37795E-01 2.18183E-37
8.40999E-01 2.23683E-37
8.44177E-01 2.27640E-37
8.47329E-01 2.30107E-37
8.50455E-01 2.31148E-37
8.53553E-01 2.30854E-37
8.56625E-01 2.29318E-37
8.59670E-01 2.26653E-37
8.62687E-01 2.22967E-37
8.65677E-01 2.18371E-37
8.68639E-01 2.12989E-37
8.71572E-01 2.06921E-37
8.74478E-01 2.00282E-37
8.77355E-01 1.93175E-37
8.80203E-01 1.85691E-37
8.83022E-01 1.77925E-37
8.85812E-01 1.69963E-37
8.88573E-01 1.61881E-37
8.91304E-01 1.53745E-37
8.94005E-01 1.45623E-37
8.96677E-01 1.37564E-37
8.99318E-01 1.29618E-37
9.01928E-01 1.21838E-37
9.04508E-01 1.14246E-37
9.07058E-01 1.06877E-37
9.09576E-01 9.97545E-38
9.12063E-01 9.28998E-38
9.14519E-01 8.63304E-38
9.16943E-01 8.00511E-38
9.19335E-01 7.40778E-38
9.21696E-01 6.84050E-38
9.24024E-01 6.30401E-38
9.26320E-01 5.79771E-38
9.28584E-01 5.32166E-38
9.30815E-01 4.87492E-38
9.33013E-01 4.45708E-38
9.35178E-01 4.06708E-38
9.37310E-01 3.70418E-38
9.39409E-01 3.36705E-38
9.41474E-01 3.05476E-38
9.43505E-01 2.76613E-38
9.45503E-01 2.50002E-38
9.47467E-01 2.25502E-38
9.49397E-01 2.03012E-38
9.51293E-01 1.82411E-38
9.53154E-01 1.63590E-38
9.54981E-01 1.46401E-38
9.56773E-01 1.30780E-38
9.58530E-01 1.16578E-38
9.60252E-01 1.03719E-38
9.61940E-01 9.20973E-39
9.63592E-01 8.16120E-39
9.65209E-01 7.21544E-39
9.66790E-01 6.36759E-39
9.68336E-01 5.60835E-39
9.69846E-01 4.92899E-39
9.71321E-01 4.32282E-39
9.72759E-01 3.78337E-39
9.74162E-01 3.30379E-39
9.75528E-01 2.87902E-39
9.76858E-01 2.50418E-39
9.78152E-01 1.00000E-45
9.79410E-01 1.00000E-45
9.80631E-01 1.00000E-45
9.81815E-01 1.00000E-45
9.82963E-01 1.00000E-45
9.84074E-01 1.00000E-45
9.85148E-01 1.00000E-45
9.86185E-01 1.00000E-45
9.87185E-01 1.00000E-45
9.88148E-01 1.00000E-45
9.89074E-01 1.00000E-45
9.89962E-01 1.00000E-45
9.90814E-01 1.00000E-45
9.91627E-01 1.00000E-45
9.92404E-01 1.00000E-45
9.93143E-01 1.00000E-45
9.93844E-01 1.00000E-45
9.94508E-01 1.00000E-45
9.95134E-01 1.00000E-45
9.95722E-01 1.00000E-45
9.96273E-01 1.00000E-45
9.96786E-01 1.00000E-45
9.97261E-01 1.00000E-45
9.97698E-01 1.00000E-45
9.98097E-01 1.00000E-45
9.98459E-01 1.00000E-45
9.98782E-01 1.00000E-45
9.99067E-01 1.00000E-45
9.99315E-01 1.00000E-45
9.99524E-01 1.00000E-45
9.99695E-01 1.00000E-45
9.99829E-01 1.00000E-45
9.99924E-01 1.00000E-45
9.99981E-01 1.00000E-45
1.00000E+00 1.00000E-45
