 #
 # Subroutine ELSEPA. Elastic scattering of electrons and positrons
 #                    by neutral atoms and positive ions
 #
 # Projectile: electron
 # Kinetic energy = 2.50000E+07 eV = 9.18733E+05 a.u.
 #
 # WARNING: High-energy factorization with free-atom DF screening.
 #          Absorption, polarization and exchange corrections are
 #          switched off.
 #          Phase shifts are calculated for the bare nucleus.
 #          Scattering amplitudes are not evaluated.
 #
 # Element: Re,  Z =  75,  atomic weight = 1.86207E+02 g/mol
 #
 # Nuclear model: Fermi distribution
 #                Average radius = 6.11011E-13 cm
 #                Skin thickness = 5.46000E-14 cm
 #
 # Number of electrons = 75
 #
 # Total elastic cross section = 7.60923E-18 cm**2 = 2.71731E-01 a0**2
 # 1st transport cross section = 1.64528E-23 cm**2 = 5.87540E-07 a0**2
 # 2nd transport cross section = 4.68559E-23 cm**2 = 1.67325E-06 a0**2
 #
 #
 # Differential cross section:                       MU=(1-COS(THETA))/2
 #
 #  THETA        MU          DCS          DCS        Sherman      error
 #  (deg)                 (cm**2/sr)   (a0**2/sr)    function
 #----------------------------------------------------------------------
0.00000E+00 3.52494E-11
7.61557E-13 3.52439E-11
1.18994E-12 3.52409E-11
1.71346E-12 3.52372E-11
2.33225E-12 3.52329E-11
3.04617E-12 3.52278E-11
3.85530E-12 3.52221E-11
4.75964E-12 3.52158E-11
5.75917E-12 3.52087E-11
6.85391E-12 3.52010E-11
8.04379E-12 3.51927E-11
9.32893E-12 3.51837E-11
1.07092E-11 3.51740E-11
1.21847E-11 3.51636E-11
1.37554E-11 3.51526E-11
1.54213E-11 3.51410E-11
1.71823E-11 3.51286E-11
1.90386E-11 3.51156E-11
2.09900E-11 3.51020E-11
2.30367E-11 3.50877E-11
2.51785E-11 3.50728E-11
2.74156E-11 3.50572E-11
2.97478E-11 3.50409E-11
3.21752E-11 3.50240E-11
3.46979E-11 3.50065E-11
3.73157E-11 3.49883E-11
4.00286E-11 3.49695E-11
4.28368E-11 3.49500E-11
4.57402E-11 3.49299E-11
4.87388E-11 3.49092E-11
5.18325E-11 3.48878E-11
5.50215E-11 3.48658E-11
5.83057E-11 3.48431E-11
6.16850E-11 3.48198E-11
6.51595E-11 3.47959E-11
6.87293E-11 3.47714E-11
7.23943E-11 3.47462E-11
7.61544E-11 3.47205E-11
1.18991E-10 3.44291E-11
1.71347E-10 3.40787E-11
2.33223E-10 3.36724E-11
3.04617E-10 3.32138E-11
3.85531E-10 3.27049E-11
4.75965E-10 3.21526E-11
5.75917E-10 3.15634E-11
6.85389E-10 3.09348E-11
8.04380E-10 3.02820E-11
9.32891E-10 2.95951E-11
1.07092E-09 2.88963E-11
1.21847E-09 2.81702E-11
1.37554E-09 2.74405E-11
1.54213E-09 2.66945E-11
1.71823E-09 2.59496E-11
1.90386E-09 2.51989E-11
2.09900E-09 2.44525E-11
2.30367E-09 2.37102E-11
2.51785E-09 2.29739E-11
2.74156E-09 2.22501E-11
2.97478E-09 2.15332E-11
3.21752E-09 2.08359E-11
3.46978E-09 2.01454E-11
3.73156E-09 1.94801E-11
4.00286E-09 1.88213E-11
4.28368E-09 1.81894E-11
4.57402E-09 1.75677E-11
4.87388E-09 1.69710E-11
5.18326E-09 1.63885E-11
5.50215E-09 1.58282E-11
5.83057E-09 1.52850E-11
6.16850E-09 1.47612E-11
6.51596E-09 1.42565E-11
6.87293E-09 1.37686E-11
7.23942E-09 1.33012E-11
7.61544E-09 1.28479E-11
1.18991E-08 9.18801E-12
1.71347E-08 6.72599E-12
2.33223E-08 5.04101E-12
3.04617E-08 3.85763E-12
3.85531E-08 2.98058E-12
4.75965E-08 2.34713E-12
5.75917E-08 1.89240E-12
6.85389E-08 1.52485E-12
8.04380E-08 1.25697E-12
9.32891E-08 1.03316E-12
1.07092E-07 8.66105E-13
1.21847E-07 7.25075E-13
1.37554E-07 6.15857E-13
1.54213E-07 5.24104E-13
1.71823E-07 4.50257E-13
1.90386E-07 3.88200E-13
2.09900E-07 3.36697E-13
2.30367E-07 2.93349E-13
2.51785E-07 2.56458E-13
2.74156E-07 2.25362E-13
2.97478E-07 1.98360E-13
3.21752E-07 1.75562E-13
3.46978E-07 1.55458E-13
3.73156E-07 1.38442E-13
4.00286E-07 1.23270E-13
4.28368E-07 1.10322E-13
4.57402E-07 9.88035E-14
4.87388E-07 8.88341E-14
5.18325E-07 7.99967E-14
5.50215E-07 7.22517E-14
5.83057E-07 6.53951E-14
6.16850E-07 5.93270E-14
6.51596E-07 5.39517E-14
6.87293E-07 4.91576E-14
7.23942E-07 4.49024E-14
7.61543E-07 4.10827E-14
1.18991E-06 1.87064E-14
1.71347E-06 9.81568E-15
2.33223E-06 5.65014E-15
3.04617E-06 3.48141E-15
3.85531E-06 2.25612E-15
4.75964E-06 1.52659E-15
5.75916E-06 1.06934E-15
6.85388E-06 7.71155E-16
8.04378E-06 5.69837E-16
9.32888E-06 4.30105E-16
1.07092E-05 3.30721E-16
1.21846E-05 2.58477E-16
1.37553E-05 2.04946E-16
1.54212E-05 1.64600E-16
1.71822E-05 1.33717E-16
1.90385E-05 1.09691E-16
2.09899E-05 9.09416E-17
2.30365E-05 7.60248E-17
2.51783E-05 6.40295E-17
2.74153E-05 5.42966E-17
2.97475E-05 4.63372E-17
3.21749E-05 3.97823E-17
3.46974E-05 3.43495E-17
3.73152E-05 2.98172E-17
4.00281E-05 2.60110E-17
4.28362E-05 2.27942E-17
4.57395E-05 2.00589E-17
4.87380E-05 1.77200E-17
5.18317E-05 1.57108E-17
5.50205E-05 1.39774E-17
5.83045E-05 1.24761E-17
6.16838E-05 1.11710E-17
6.51582E-05 1.00324E-17
6.87277E-05 9.03532E-18
7.23925E-05 8.15930E-18
7.61524E-05 7.38634E-18
9.21439E-05 5.07704E-18
1.09658E-04 3.60363E-18
1.28695E-04 2.62846E-18
1.49255E-04 1.96206E-18
1.71338E-04 1.49433E-18
1.94942E-04 1.15816E-18
2.20070E-04 9.11540E-19
2.46720E-04 7.27285E-19
2.74892E-04 5.87374E-19
3.04586E-04 4.79592E-19
3.35803E-04 3.95468E-19
3.68542E-04 3.29031E-19
4.02802E-04 2.75996E-19
4.38585E-04 2.33245E-19
4.75889E-04 1.98473E-19
5.14715E-04 1.69956E-19
5.55063E-04 1.46389E-19
5.96931E-04 1.26777E-19
6.40321E-04 1.10348E-19
6.85233E-04 9.65011E-20
7.31665E-04 8.47640E-20
7.79618E-04 7.47619E-20
8.29092E-04 6.61961E-20
8.80086E-04 5.88254E-20
9.32601E-04 5.24553E-20
9.86636E-04 4.69269E-20
1.04219E-03 4.21099E-20
1.09927E-03 3.78973E-20
1.15786E-03 3.42001E-20
1.21797E-03 3.09444E-20
1.27961E-03 2.80683E-20
1.34276E-03 2.55199E-20
1.40743E-03 2.32554E-20
1.47362E-03 2.12375E-20
1.54133E-03 1.94346E-20
1.61056E-03 1.78199E-20
1.68131E-03 1.63701E-20
1.75357E-03 1.50655E-20
1.82735E-03 1.38888E-20
1.90265E-03 1.28254E-20
1.97947E-03 1.18624E-20
2.05780E-03 1.09885E-20
2.13765E-03 1.01940E-20
2.21902E-03 9.47046E-21
2.30190E-03 8.81034E-21
2.38630E-03 8.20707E-21
2.47222E-03 7.65487E-21
2.55965E-03 7.14862E-21
2.64859E-03 6.68380E-21
2.73905E-03 6.25640E-21
2.83103E-03 5.86283E-21
2.92452E-03 5.49995E-21
3.01952E-03 5.16490E-21
3.11604E-03 4.85517E-21
3.21407E-03 4.56847E-21
3.31362E-03 4.30279E-21
3.41468E-03 4.05629E-21
3.51725E-03 3.82732E-21
3.62133E-03 3.61442E-21
3.72692E-03 3.41623E-21
3.83403E-03 3.23155E-21
3.94265E-03 3.05930E-21
4.05278E-03 2.89846E-21
4.16442E-03 2.74816E-21
4.27757E-03 2.60755E-21
4.39223E-03 2.47591E-21
4.50840E-03 2.35254E-21
4.62608E-03 2.23684E-21
4.74527E-03 2.12823E-21
4.86597E-03 2.02620E-21
4.98817E-03 1.93027E-21
5.11188E-03 1.84001E-21
5.23711E-03 1.75502E-21
5.36383E-03 1.67492E-21
5.49207E-03 1.59940E-21
5.62181E-03 1.52813E-21
5.75306E-03 1.46083E-21
5.88581E-03 1.39723E-21
6.02007E-03 1.33710E-21
6.15583E-03 1.28020E-21
6.29310E-03 1.22633E-21
6.43187E-03 1.17530E-21
6.57214E-03 1.12693E-21
6.71392E-03 1.08105E-21
6.85720E-03 1.03751E-21
7.00198E-03 9.96167E-22
7.14827E-03 9.56888E-22
7.29605E-03 9.19550E-22
7.44534E-03 8.84039E-22
7.59612E-03 8.50248E-22
7.97965E-03 7.72656E-22
8.37255E-03 7.03825E-22
8.77480E-03 6.42587E-22
9.18641E-03 5.87953E-22
9.60736E-03 5.39080E-22
1.00376E-02 4.95250E-22
1.04773E-02 4.55846E-22
1.09262E-02 4.20340E-22
1.13844E-02 3.88275E-22
1.18520E-02 3.59254E-22
1.23288E-02 3.32935E-22
1.28150E-02 3.09019E-22
1.33104E-02 2.87246E-22
1.38150E-02 2.67387E-22
1.43290E-02 2.49242E-22
1.48521E-02 2.32636E-22
1.53845E-02 2.17412E-22
1.59262E-02 2.03434E-22
1.64770E-02 1.90579E-22
1.70371E-02 1.78742E-22
1.76063E-02 1.67825E-22
1.81848E-02 1.57743E-22
1.87724E-02 1.48419E-22
1.93692E-02 1.39787E-22
1.99751E-02 1.31784E-22
2.05901E-02 1.24355E-22
2.12143E-02 1.17452E-22
2.18476E-02 1.11030E-22
2.24900E-02 1.05048E-22
2.31415E-02 9.94709E-23
2.38021E-02 9.42656E-23
2.44717E-02 8.94024E-23
2.51504E-02 8.48544E-23
2.58382E-02 8.05970E-23
2.65349E-02 7.66080E-23
2.72407E-02 7.28671E-23
2.79555E-02 6.93558E-23
2.86793E-02 6.60572E-23
2.94120E-02 6.29558E-23
3.01537E-02 6.00374E-23
3.09043E-02 5.72891E-23
3.16639E-02 5.46990E-23
3.24324E-02 5.22561E-23
3.32098E-02 4.99504E-23
3.39961E-02 4.77726E-23
3.47912E-02 4.57142E-23
3.55952E-02 4.37673E-23
3.64081E-02 4.19247E-23
3.72297E-02 4.01796E-23
3.80602E-02 3.85260E-23
3.88995E-02 3.69579E-23
3.97476E-02 3.54701E-23
4.06044E-02 3.40575E-23
4.14700E-02 3.27150E-23
4.23443E-02 3.14389E-23
4.32273E-02 3.02254E-23
4.41190E-02 2.90707E-23
4.50194E-02 2.79713E-23
4.59284E-02 2.69241E-23
4.68461E-02 2.59261E-23
4.87074E-02 2.40667E-23
5.06030E-02 2.23729E-23
5.25328E-02 2.08272E-23
5.44967E-02 1.94140E-23
5.64946E-02 1.81198E-23
5.85262E-02 1.69326E-23
6.05914E-02 1.58418E-23
6.26901E-02 1.48381E-23
6.48222E-02 1.39131E-23
6.69873E-02 1.30594E-23
6.91854E-02 1.22705E-23
7.14163E-02 1.15405E-23
7.36799E-02 1.08641E-23
7.59760E-02 1.02367E-23
7.83043E-02 9.65387E-24
8.06647E-02 9.11195E-24
8.30571E-02 8.60747E-24
8.54812E-02 8.13734E-24
8.79369E-02 7.69876E-24
9.04240E-02 7.28919E-24
9.29422E-02 6.90634E-24
9.54915E-02 6.54813E-24
9.80716E-02 6.21265E-24
1.00682E-01 5.89819E-24
1.03323E-01 5.60318E-24
1.05995E-01 5.32616E-24
1.08696E-01 5.06584E-24
1.11427E-01 4.82101E-24
1.14188E-01 4.59057E-24
1.16978E-01 4.37352E-24
1.19797E-01 4.16891E-24
1.22645E-01 3.97591E-24
1.25522E-01 3.79373E-24
1.28428E-01 3.62165E-24
1.31361E-01 3.45899E-24
1.34323E-01 3.30515E-24
1.37313E-01 3.15955E-24
1.40330E-01 3.02168E-24
1.43375E-01 2.89103E-24
1.46447E-01 2.76718E-24
1.49545E-01 2.64968E-24
1.52671E-01 2.53816E-24
1.55823E-01 2.43226E-24
1.59001E-01 2.33164E-24
1.62205E-01 2.23599E-24
1.65435E-01 2.14501E-24
1.68690E-01 2.05845E-24
1.71970E-01 1.97603E-24
1.75276E-01 1.89754E-24
1.78606E-01 1.82274E-24
1.81961E-01 1.75144E-24
1.85340E-01 1.68344E-24
1.88743E-01 1.61856E-24
1.92169E-01 1.55663E-24
1.95619E-01 1.49750E-24
1.99092E-01 1.44101E-24
2.02589E-01 1.38703E-24
2.06107E-01 1.33542E-24
2.09649E-01 1.28606E-24
2.13212E-01 1.23885E-24
2.16797E-01 1.19366E-24
2.20404E-01 1.15040E-24
2.24032E-01 1.10897E-24
2.27680E-01 1.06927E-24
2.31350E-01 1.03124E-24
2.35040E-01 9.94776E-25
2.38751E-01 9.59811E-25
2.42481E-01 9.26273E-25
2.46231E-01 8.94092E-25
2.50000E-01 8.63206E-25
2.53788E-01 8.33554E-25
2.57595E-01 8.05078E-25
2.61421E-01 7.77725E-25
2.65264E-01 7.51442E-25
2.69126E-01 7.26181E-25
2.73005E-01 7.01896E-25
2.76901E-01 6.78544E-25
2.80814E-01 6.56083E-25
2.84744E-01 6.34473E-25
2.88691E-01 6.13677E-25
2.92653E-01 5.93661E-25
2.96632E-01 5.74390E-25
3.00625E-01 5.55831E-25
3.04634E-01 5.37956E-25
3.08658E-01 5.20735E-25
3.12697E-01 5.04139E-25
3.16749E-01 4.88144E-25
3.20816E-01 4.72725E-25
3.24896E-01 4.57856E-25
3.28990E-01 4.43517E-25
3.33097E-01 4.29685E-25
3.37216E-01 4.16340E-25
3.41348E-01 4.03461E-25
3.45492E-01 3.91032E-25
3.49647E-01 3.79033E-25
3.53814E-01 3.67447E-25
3.57992E-01 3.56259E-25
3.62181E-01 3.45452E-25
3.66381E-01 3.35013E-25
3.70590E-01 3.24926E-25
3.74810E-01 3.15179E-25
3.79039E-01 3.05757E-25
3.83277E-01 2.96650E-25
3.87524E-01 2.87844E-25
3.91780E-01 2.79329E-25
3.96044E-01 2.71094E-25
4.00316E-01 2.63128E-25
4.04596E-01 2.55422E-25
4.08882E-01 2.47965E-25
4.13176E-01 2.40749E-25
4.17476E-01 2.33764E-25
4.21783E-01 2.27004E-25
4.26095E-01 2.20458E-25
4.30413E-01 2.14121E-25
4.34737E-01 2.07983E-25
4.39065E-01 2.02039E-25
4.43398E-01 1.96281E-25
4.47736E-01 1.90702E-25
4.52077E-01 1.85297E-25
4.56422E-01 1.80060E-25
4.60770E-01 1.74984E-25
4.65122E-01 1.70064E-25
4.69476E-01 1.65294E-25
4.73832E-01 1.60670E-25
4.78190E-01 1.56186E-25
4.82550E-01 1.51838E-25
4.86912E-01 1.47621E-25
4.91274E-01 1.43531E-25
4.95637E-01 1.39563E-25
5.00000E-01 1.35714E-25
5.04363E-01 1.31979E-25
5.08726E-01 1.28354E-25
5.13088E-01 1.24837E-25
5.17450E-01 1.21423E-25
5.21810E-01 1.18109E-25
5.26168E-01 1.14891E-25
5.30524E-01 1.11768E-25
5.34878E-01 1.08735E-25
5.39230E-01 1.05789E-25
5.43578E-01 1.02929E-25
5.47923E-01 1.00150E-25
5.52264E-01 9.74517E-26
5.56602E-01 9.48299E-26
5.60935E-01 9.22827E-26
5.65263E-01 8.98078E-26
5.69587E-01 8.74028E-26
5.73905E-01 8.50656E-26
5.78217E-01 8.27940E-26
5.82524E-01 8.05860E-26
5.86824E-01 7.84397E-26
5.91118E-01 7.63532E-26
5.95404E-01 7.43245E-26
5.99684E-01 7.23520E-26
6.03956E-01 7.04339E-26
6.08220E-01 6.85686E-26
6.12476E-01 6.67545E-26
6.16723E-01 6.49899E-26
6.20961E-01 6.32735E-26
6.25190E-01 6.16038E-26
6.29410E-01 5.99793E-26
6.33619E-01 5.83988E-26
6.37819E-01 5.68609E-26
6.42008E-01 5.53644E-26
6.46186E-01 5.39080E-26
6.50353E-01 5.24906E-26
6.54508E-01 5.11110E-26
6.58652E-01 4.97681E-26
6.62784E-01 4.84608E-26
6.66903E-01 4.71882E-26
6.71010E-01 4.59491E-26
6.75104E-01 4.47427E-26
6.79184E-01 4.35679E-26
6.83251E-01 4.24239E-26
6.87303E-01 4.13099E-26
6.91342E-01 4.02248E-26
6.95366E-01 3.91680E-26
6.99375E-01 3.81386E-26
7.03368E-01 3.71359E-26
7.07347E-01 3.61590E-26
7.11309E-01 3.52073E-26
7.15256E-01 3.42800E-26
7.19186E-01 3.33766E-26
7.23099E-01 3.24962E-26
7.26995E-01 3.16383E-26
7.30874E-01 3.08023E-26
7.34736E-01 2.99875E-26
7.38579E-01 2.91933E-26
7.42405E-01 2.84192E-26
7.46212E-01 2.76647E-26
7.50000E-01 2.69292E-26
7.53769E-01 2.62122E-26
7.57519E-01 2.55132E-26
7.61249E-01 2.48317E-26
7.64960E-01 2.41672E-26
7.68650E-01 2.35193E-26
7.72320E-01 2.28875E-26
7.75968E-01 2.22714E-26
7.79596E-01 2.16706E-26
7.83203E-01 2.10847E-26
7.86788E-01 2.05133E-26
7.90351E-01 1.99559E-26
7.93893E-01 1.94123E-26
7.97411E-01 1.88821E-26
8.00908E-01 1.83649E-26
8.04381E-01 1.78604E-26
8.07831E-01 1.73682E-26
8.11257E-01 1.68881E-26
8.14660E-01 1.64197E-26
8.18039E-01 1.59627E-26
8.21394E-01 1.55168E-26
8.24724E-01 1.50818E-26
8.28030E-01 1.46574E-26
8.31310E-01 1.42433E-26
8.34565E-01 1.38392E-26
8.37795E-01 1.34449E-26
8.40999E-01 1.30602E-26
8.44177E-01 1.26847E-26
8.47329E-01 1.23184E-26
8.50455E-01 1.19609E-26
8.53553E-01 1.16120E-26
8.56625E-01 1.12716E-26
8.59670E-01 1.09393E-26
8.62687E-01 1.06151E-26
8.65677E-01 1.02988E-26
8.68639E-01 9.99001E-27
8.71572E-01 9.68872E-27
8.74478E-01 9.39469E-27
8.77355E-01 9.10777E-27
8.80203E-01 8.82778E-27
8.83022E-01 8.55455E-27
8.85812E-01 8.28794E-27
8.88573E-01 8.02777E-27
8.91304E-01 7.77392E-27
8.94005E-01 7.52622E-27
8.96677E-01 7.28454E-27
8.99318E-01 7.04875E-27
9.01928E-01 6.81869E-27
9.04508E-01 6.59426E-27
9.07058E-01 6.37532E-27
9.09576E-01 6.16174E-27
9.12063E-01 5.95342E-27
9.14519E-01 5.75023E-27
9.16943E-01 5.55206E-27
9.19335E-01 5.35880E-27
9.21696E-01 5.17035E-27
9.24024E-01 4.98660E-27
9.26320E-01 4.80746E-27
9.28584E-01 4.63282E-27
9.30815E-01 4.46259E-27
9.33013E-01 4.29669E-27
9.35178E-01 4.13502E-27
9.37310E-01 3.97749E-27
9.39409E-01 3.82403E-27
9.41474E-01 3.67455E-27
9.43505E-01 3.52896E-27
9.45503E-01 3.38721E-27
9.47467E-01 3.24920E-27
9.49397E-01 3.11487E-27
9.51293E-01 2.98416E-27
9.53154E-01 2.85698E-27
9.54981E-01 2.73328E-27
9.56773E-01 2.61299E-27
9.58530E-01 2.49605E-27
9.60252E-01 2.38240E-27
9.61940E-01 2.27198E-27
9.63592E-01 2.16473E-27
9.65209E-01 2.06061E-27
9.66790E-01 1.95956E-27
9.68336E-01 1.86153E-27
9.69846E-01 1.76646E-27
9.71321E-01 1.67432E-27
9.72759E-01 1.58505E-27
9.74162E-01 1.49861E-27
9.75528E-01 1.41495E-27
9.76858E-01 1.33405E-27
9.78152E-01 1.25585E-27
9.79410E-01 1.18032E-27
9.80631E-01 1.10742E-27
9.81815E-01 1.03711E-27
9.82963E-01 9.69362E-28
9.84074E-01 9.04142E-28
9.85148E-01 8.41418E-28
9.86185E-01 7.81158E-28
9.87185E-01 7.23334E-28
9.88148E-01 6.67918E-28
9.89074E-01 6.14882E-28
9.89962E-01 5.64202E-28
9.90814E-01 5.15853E-28
9.91627E-01 4.69811E-28
9.92404E-01 4.26055E-28
9.93143E-01 3.84564E-28
9.93844E-01 3.45317E-28
9.94508E-01 3.08296E-28
9.95134E-01 2.73483E-28
9.95722E-01 2.40863E-28
9.96273E-01 2.10418E-28
9.96786E-01 1.82135E-28
9.97261E-01 1.56001E-28
9.97698E-01 1.32003E-28
9.98097E-01 1.10129E-28
9.98459E-01 9.03695E-29
9.98782E-01 7.27148E-29
9.99067E-01 5.71568E-29
9.99315E-01 4.36879E-29
9.99524E-01 3.23020E-29
9.99695E-01 2.29935E-29
9.99829E-01 1.57581E-29
9.99924E-01 1.05924E-29
9.99981E-01 7.49393E-30
1.00000E+00 6.46127E-30
