 #
 # Subroutine ELSEPA. Elastic scattering of electrons and positrons
 #                    by neutral atoms and positive ions
 #
 # Projectile: electron
 # Kinetic energy = 2.50000E+07 eV = 9.18733E+05 a.u.
 #
 # WARNING: High-energy factorization with free-atom DF screening.
 #          Absorption, polarization and exchange corrections are
 #          switched off.
 #          Phase shifts are calculated for the bare nucleus.
 #          Scattering amplitudes are not evaluated.
 #
 # Element: Sc,  Z =  21,  atomic weight = 4.49559E+01 g/mol
 #
 # Nuclear model: Fermi distribution
 #                Average radius = 3.80463E-13 cm
 #                Skin thickness = 5.46000E-14 cm
 #
 # Number of electrons = 21
 #
 # Total elastic cross section = 1.86777E-18 cm**2 = 6.66993E-02 a0**2
 # 1st transport cross section = 1.31290E-24 cm**2 = 4.68845E-08 a0**2
 # 2nd transport cross section = 3.79815E-24 cm**2 = 1.35634E-07 a0**2
 #
 #
 # Differential cross section:                       MU=(1-COS(THETA))/2
 #
 #  THETA        MU          DCS          DCS        Sherman      error
 #  (deg)                 (cm**2/sr)   (a0**2/sr)    function
 #----------------------------------------------------------------------
0.00000E+00 2.14877E-11
7.61557E-13 2.14811E-11
1.18994E-12 2.14774E-11
1.71346E-12 2.14728E-11
2.33225E-12 2.14675E-11
3.04617E-12 2.14613E-11
3.85530E-12 2.14542E-11
4.75964E-12 2.14464E-11
5.75917E-12 2.14378E-11
6.85391E-12 2.14283E-11
8.04379E-12 2.14180E-11
9.32893E-12 2.14069E-11
1.07092E-11 2.13950E-11
1.21847E-11 2.13822E-11
1.37554E-11 2.13687E-11
1.54213E-11 2.13544E-11
1.71823E-11 2.13392E-11
1.90386E-11 2.13233E-11
2.09900E-11 2.13065E-11
2.30367E-11 2.12890E-11
2.51785E-11 2.12706E-11
2.74156E-11 2.12515E-11
2.97478E-11 2.12316E-11
3.21752E-11 2.12109E-11
3.46979E-11 2.11894E-11
3.73157E-11 2.11672E-11
4.00286E-11 2.11442E-11
4.28368E-11 2.11204E-11
4.57402E-11 2.10958E-11
4.87388E-11 2.10705E-11
5.18325E-11 2.10445E-11
5.50215E-11 2.10176E-11
5.83057E-11 2.09901E-11
6.16850E-11 2.09618E-11
6.51595E-11 2.09327E-11
6.87293E-11 2.09029E-11
7.23943E-11 2.08724E-11
7.61544E-11 2.08412E-11
1.18991E-10 2.04902E-11
1.71347E-10 2.00732E-11
2.33223E-10 1.95964E-11
3.04617E-10 1.90672E-11
3.85531E-10 1.84935E-11
4.75965E-10 1.78824E-11
5.75917E-10 1.72412E-11
6.85389E-10 1.65795E-11
8.04380E-10 1.59013E-11
9.32891E-10 1.52182E-11
1.07092E-09 1.45307E-11
1.21847E-09 1.38510E-11
1.37554E-09 1.31775E-11
1.54213E-09 1.25204E-11
1.71823E-09 1.18781E-11
1.90386E-09 1.12577E-11
2.09900E-09 1.06587E-11
2.30367E-09 1.00841E-11
2.51785E-09 9.53522E-12
2.74156E-09 9.01120E-12
2.97478E-09 8.51535E-12
3.21752E-09 8.04326E-12
3.46978E-09 7.60026E-12
3.73156E-09 7.17900E-12
4.00286E-09 6.78650E-12
4.28368E-09 6.41416E-12
4.57402E-09 6.06760E-12
4.87388E-09 5.74038E-12
5.18326E-09 5.43540E-12
5.50215E-09 5.14876E-12
5.83057E-09 4.88100E-12
6.16850E-09 4.63029E-12
6.51596E-09 4.39548E-12
6.87293E-09 4.17623E-12
7.23942E-09 3.97031E-12
7.61544E-09 3.77837E-12
1.18991E-08 2.39955E-12
1.71347E-08 1.62732E-12
2.33223E-08 1.15303E-12
3.04617E-08 8.39575E-13
3.85531E-08 6.16847E-13
4.75965E-08 4.61124E-13
5.75917E-08 3.52933E-13
6.85389E-08 2.69428E-13
8.04380E-08 2.10448E-13
9.32891E-08 1.64445E-13
1.07092E-07 1.30973E-13
1.21847E-07 1.04980E-13
1.37554E-07 8.53609E-14
1.54213E-07 7.00930E-14
1.71823E-07 5.82029E-14
1.90386E-07 4.88038E-14
2.09900E-07 4.13069E-14
2.30367E-07 3.52607E-14
2.51785E-07 3.03330E-14
2.74156E-07 2.62835E-14
2.97478E-07 2.29126E-14
3.21752E-07 2.01003E-14
3.46978E-07 1.77101E-14
3.73156E-07 1.56939E-14
4.00286E-07 1.39463E-14
4.28368E-07 1.24563E-14
4.57402E-07 1.11499E-14
4.87388E-07 1.00216E-14
5.18325E-07 9.02608E-15
5.50215E-07 8.15501E-15
5.83057E-07 7.38348E-15
6.16850E-07 6.70043E-15
6.51596E-07 6.09401E-15
6.87293E-07 5.55159E-15
7.23942E-07 5.06921E-15
7.61543E-07 4.63396E-15
1.18991E-06 2.05602E-15
1.71347E-06 1.02995E-15
2.33223E-06 5.67612E-16
3.04617E-06 3.37667E-16
3.85531E-06 2.13400E-16
4.75964E-06 1.41614E-16
5.75916E-06 9.77475E-17
6.85388E-06 6.96876E-17
8.04378E-06 5.10346E-17
9.32888E-06 3.82360E-17
1.07092E-05 2.92139E-17
1.21846E-05 2.27037E-17
1.37553E-05 1.79095E-17
1.54212E-05 1.43155E-17
1.71822E-05 1.15778E-17
1.90385E-05 9.46276E-18
2.09899E-05 7.80931E-18
2.30365E-05 6.50098E-18
2.51783E-05 5.45486E-18
2.74153E-05 4.61042E-18
2.97475E-05 3.92284E-18
3.21749E-05 3.35848E-18
3.46974E-05 2.89193E-18
3.73152E-05 2.50356E-18
4.00281E-05 2.17818E-18
4.28362E-05 1.90393E-18
4.57395E-05 1.67144E-18
4.87380E-05 1.47331E-18
5.18317E-05 1.30364E-18
5.50205E-05 1.15767E-18
5.83045E-05 1.03154E-18
6.16838E-05 9.22123E-19
6.51582E-05 8.26826E-19
6.87277E-05 7.43518E-19
7.23925E-05 6.70440E-19
7.61524E-05 6.06114E-19
9.21439E-05 4.14550E-19
1.09658E-04 2.93010E-19
1.28695E-04 2.12922E-19
1.49255E-04 1.58418E-19
1.71338E-04 1.20293E-19
1.94942E-04 9.29787E-20
2.20070E-04 7.29973E-20
2.46720E-04 5.81083E-20
2.74892E-04 4.68301E-20
3.04586E-04 3.81616E-20
3.35803E-04 3.14099E-20
3.68542E-04 2.60883E-20
4.02802E-04 2.18481E-20
4.38585E-04 1.84359E-20
4.75889E-04 1.56650E-20
5.14715E-04 1.33961E-20
5.55063E-04 1.15237E-20
5.96931E-04 9.96763E-21
6.40321E-04 8.66575E-21
6.85233E-04 7.56983E-21
7.31665E-04 6.64194E-21
7.79618E-04 5.85211E-21
8.29092E-04 5.17638E-21
8.80086E-04 4.59552E-21
9.32601E-04 4.09397E-21
9.86636E-04 3.65909E-21
1.04219E-03 3.28052E-21
1.09927E-03 2.94971E-21
1.15786E-03 2.65962E-21
1.21797E-03 2.40437E-21
1.27961E-03 2.17906E-21
1.34276E-03 1.97956E-21
1.40743E-03 1.80241E-21
1.47362E-03 1.64466E-21
1.54133E-03 1.50382E-21
1.61056E-03 1.37777E-21
1.68131E-03 1.26466E-21
1.75357E-03 1.16294E-21
1.82735E-03 1.07126E-21
1.90265E-03 9.88456E-22
1.97947E-03 9.13509E-22
2.05780E-03 8.45543E-22
2.13765E-03 7.83791E-22
2.21902E-03 7.27584E-22
2.30190E-03 6.76334E-22
2.38630E-03 6.29525E-22
2.47222E-03 5.86703E-22
2.55965E-03 5.47466E-22
2.64859E-03 5.11461E-22
2.73905E-03 4.78372E-22
2.83103E-03 4.47921E-22
2.92452E-03 4.19859E-22
3.01952E-03 3.93964E-22
3.11604E-03 3.70039E-22
3.21407E-03 3.47906E-22
3.31362E-03 3.27405E-22
3.41468E-03 3.08396E-22
3.51725E-03 2.90749E-22
3.62133E-03 2.74348E-22
3.72692E-03 2.59090E-22
3.83403E-03 2.44880E-22
3.94265E-03 2.31633E-22
4.05278E-03 2.19271E-22
4.16442E-03 2.07724E-22
4.27757E-03 1.96929E-22
4.39223E-03 1.86828E-22
4.50840E-03 1.77367E-22
4.62608E-03 1.68499E-22
4.74527E-03 1.60179E-22
4.86597E-03 1.52368E-22
4.98817E-03 1.45027E-22
5.11188E-03 1.38125E-22
5.23711E-03 1.31629E-22
5.36383E-03 1.25511E-22
5.49207E-03 1.19745E-22
5.62181E-03 1.14307E-22
5.75306E-03 1.09175E-22
5.88581E-03 1.04329E-22
6.02007E-03 9.97484E-23
6.15583E-03 9.54174E-23
6.29310E-03 9.13195E-23
6.43187E-03 8.74396E-23
6.57214E-03 8.37640E-23
6.71392E-03 8.02799E-23
6.85720E-03 7.69754E-23
7.00198E-03 7.38395E-23
7.14827E-03 7.08621E-23
7.29605E-03 6.80336E-23
7.44534E-03 6.53450E-23
7.59612E-03 6.27883E-23
7.97965E-03 5.69236E-23
8.37255E-03 5.17293E-23
8.77480E-03 4.71153E-23
9.18641E-03 4.30053E-23
9.60736E-03 3.93347E-23
1.00376E-02 3.60482E-23
1.04773E-02 3.30984E-23
1.09262E-02 3.04449E-23
1.13844E-02 2.80525E-23
1.18520E-02 2.58909E-23
1.23288E-02 2.39339E-23
1.28150E-02 2.21587E-23
1.33104E-02 2.05454E-23
1.38150E-02 1.90764E-23
1.43290E-02 1.77367E-23
1.48521E-02 1.65127E-23
1.53845E-02 1.53926E-23
1.59262E-02 1.43661E-23
1.64770E-02 1.34238E-23
1.70371E-02 1.25576E-23
1.76063E-02 1.17603E-23
1.81848E-02 1.10253E-23
1.87724E-02 1.03469E-23
1.93692E-02 9.72000E-24
1.99751E-02 9.13988E-24
2.05901E-02 8.60244E-24
2.12143E-02 8.10396E-24
2.18476E-02 7.64110E-24
2.24900E-02 7.21084E-24
2.31415E-02 6.81046E-24
2.38021E-02 6.43749E-24
2.44717E-02 6.08973E-24
2.51504E-02 5.76514E-24
2.58382E-02 5.46189E-24
2.65349E-02 5.17833E-24
2.72407E-02 4.91293E-24
2.79555E-02 4.66432E-24
2.86793E-02 4.43123E-24
2.94120E-02 4.21252E-24
3.01537E-02 4.00713E-24
3.09043E-02 3.81410E-24
3.16639E-02 3.63255E-24
3.24324E-02 3.46166E-24
3.32098E-02 3.30070E-24
3.39961E-02 3.14898E-24
3.47912E-02 3.00586E-24
3.55952E-02 2.87077E-24
3.64081E-02 2.74317E-24
3.72297E-02 2.62258E-24
3.80602E-02 2.50853E-24
3.88995E-02 2.40060E-24
3.97476E-02 2.29840E-24
4.06044E-02 2.20157E-24
4.14700E-02 2.10977E-24
4.23443E-02 2.02270E-24
4.32273E-02 1.94006E-24
4.41190E-02 1.86159E-24
4.50194E-02 1.78703E-24
4.59284E-02 1.71616E-24
4.68461E-02 1.64875E-24
4.87074E-02 1.52355E-24
5.06030E-02 1.40997E-24
5.25328E-02 1.30673E-24
5.44967E-02 1.21274E-24
5.64946E-02 1.12700E-24
5.85262E-02 1.04868E-24
6.05914E-02 9.77000E-25
6.26901E-02 9.11309E-25
6.48222E-02 8.51013E-25
6.69873E-02 7.95590E-25
6.91854E-02 7.44574E-25
7.14163E-02 6.97553E-25
7.36799E-02 6.54156E-25
7.59760E-02 6.14054E-25
7.83043E-02 5.76952E-25
8.06647E-02 5.42584E-25
8.30571E-02 5.10712E-25
8.54812E-02 4.81123E-25
8.79369E-02 4.53624E-25
9.04240E-02 4.28039E-25
9.29422E-02 4.04212E-25
9.54915E-02 3.81999E-25
9.80716E-02 3.61273E-25
1.00682E-01 3.41914E-25
1.03323E-01 3.23817E-25
1.05995E-01 3.06885E-25
1.08696E-01 2.91028E-25
1.11427E-01 2.76167E-25
1.14188E-01 2.62226E-25
1.16978E-01 2.49140E-25
1.19797E-01 2.36846E-25
1.22645E-01 2.25288E-25
1.25522E-01 2.14413E-25
1.28428E-01 2.04174E-25
1.31361E-01 1.94527E-25
1.34323E-01 1.85431E-25
1.37313E-01 1.76850E-25
1.40330E-01 1.68749E-25
1.43375E-01 1.61096E-25
1.46447E-01 1.53862E-25
1.49545E-01 1.47019E-25
1.52671E-01 1.40544E-25
1.55823E-01 1.34413E-25
1.59001E-01 1.28604E-25
1.62205E-01 1.23097E-25
1.65435E-01 1.17873E-25
1.68690E-01 1.12916E-25
1.71970E-01 1.08210E-25
1.75276E-01 1.03739E-25
1.78606E-01 9.94893E-26
1.81961E-01 9.54486E-26
1.85340E-01 9.16045E-26
1.88743E-01 8.79458E-26
1.92169E-01 8.44619E-26
1.95619E-01 8.11430E-26
1.99092E-01 7.79799E-26
2.02589E-01 7.49640E-26
2.06107E-01 7.20872E-26
2.09649E-01 6.93420E-26
2.13212E-01 6.67213E-26
2.16797E-01 6.42185E-26
2.20404E-01 6.18273E-26
2.24032E-01 5.95419E-26
2.27680E-01 5.73568E-26
2.31350E-01 5.52669E-26
2.35040E-01 5.32672E-26
2.38751E-01 5.13531E-26
2.42481E-01 4.95205E-26
2.46231E-01 4.77651E-26
2.50000E-01 4.60833E-26
2.53788E-01 4.44713E-26
2.57595E-01 4.29259E-26
2.61421E-01 4.14437E-26
2.65264E-01 4.00217E-26
2.69126E-01 3.86571E-26
2.73005E-01 3.73471E-26
2.76901E-01 3.60893E-26
2.80814E-01 3.48811E-26
2.84744E-01 3.37203E-26
2.88691E-01 3.26047E-26
2.92653E-01 3.15322E-26
2.96632E-01 3.05010E-26
3.00625E-01 2.95091E-26
3.04634E-01 2.85547E-26
3.08658E-01 2.76364E-26
3.12697E-01 2.67523E-26
3.16749E-01 2.59012E-26
3.20816E-01 2.50814E-26
3.24896E-01 2.42918E-26
3.28990E-01 2.35309E-26
3.33097E-01 2.27976E-26
3.37216E-01 2.20907E-26
3.41348E-01 2.14091E-26
3.45492E-01 2.07518E-26
3.49647E-01 2.01177E-26
3.53814E-01 1.95058E-26
3.57992E-01 1.89154E-26
3.62181E-01 1.83455E-26
3.66381E-01 1.77952E-26
3.70590E-01 1.72639E-26
3.74810E-01 1.67506E-26
3.79039E-01 1.62549E-26
3.83277E-01 1.57758E-26
3.87524E-01 1.53128E-26
3.91780E-01 1.48653E-26
3.96044E-01 1.44326E-26
4.00316E-01 1.40143E-26
4.04596E-01 1.36096E-26
4.08882E-01 1.32182E-26
4.13176E-01 1.28395E-26
4.17476E-01 1.24731E-26
4.21783E-01 1.21184E-26
4.26095E-01 1.17751E-26
4.30413E-01 1.14427E-26
4.34737E-01 1.11209E-26
4.39065E-01 1.08092E-26
4.43398E-01 1.05072E-26
4.47736E-01 1.02147E-26
4.52077E-01 9.93131E-27
4.56422E-01 9.65664E-27
4.60770E-01 9.39042E-27
4.65122E-01 9.13235E-27
4.69476E-01 8.88215E-27
4.73832E-01 8.63953E-27
4.78190E-01 8.40423E-27
4.82550E-01 8.17601E-27
4.86912E-01 7.95461E-27
4.91274E-01 7.73980E-27
4.95637E-01 7.53136E-27
5.00000E-01 7.32907E-27
5.04363E-01 7.13273E-27
5.08726E-01 6.94213E-27
5.13088E-01 6.75708E-27
5.17450E-01 6.57740E-27
5.21810E-01 6.40291E-27
5.26168E-01 6.23344E-27
5.30524E-01 6.06882E-27
5.34878E-01 5.90890E-27
5.39230E-01 5.75352E-27
5.43578E-01 5.60254E-27
5.47923E-01 5.45581E-27
5.52264E-01 5.31320E-27
5.56602E-01 5.17457E-27
5.60935E-01 5.03981E-27
5.65263E-01 4.90879E-27
5.69587E-01 4.78138E-27
5.73905E-01 4.65748E-27
5.78217E-01 4.53698E-27
5.82524E-01 4.41978E-27
5.86824E-01 4.30576E-27
5.91118E-01 4.19484E-27
5.95404E-01 4.08691E-27
5.99684E-01 3.98189E-27
6.03956E-01 3.87968E-27
6.08220E-01 3.78021E-27
6.12476E-01 3.68339E-27
6.16723E-01 3.58914E-27
6.20961E-01 3.49739E-27
6.25190E-01 3.40805E-27
6.29410E-01 3.32107E-27
6.33619E-01 3.23636E-27
6.37819E-01 3.15386E-27
6.42008E-01 3.07351E-27
6.46186E-01 2.99525E-27
6.50353E-01 2.91900E-27
6.54508E-01 2.84473E-27
6.58652E-01 2.77236E-27
6.62784E-01 2.70185E-27
6.66903E-01 2.63314E-27
6.71010E-01 2.56618E-27
6.75104E-01 2.50092E-27
6.79184E-01 2.43731E-27
6.83251E-01 2.37530E-27
6.87303E-01 2.31486E-27
6.91342E-01 2.25594E-27
6.95366E-01 2.19849E-27
6.99375E-01 2.14247E-27
7.03368E-01 2.08785E-27
7.07347E-01 2.03459E-27
7.11309E-01 1.98264E-27
7.15256E-01 1.93198E-27
7.19186E-01 1.88257E-27
7.23099E-01 1.83437E-27
7.26995E-01 1.78735E-27
7.30874E-01 1.74149E-27
7.34736E-01 1.69674E-27
7.38579E-01 1.65308E-27
7.42405E-01 1.61048E-27
7.46212E-01 1.56892E-27
7.50000E-01 1.52836E-27
7.53769E-01 1.48878E-27
7.57519E-01 1.45015E-27
7.61249E-01 1.41245E-27
7.64960E-01 1.37566E-27
7.68650E-01 1.33975E-27
7.72320E-01 1.30469E-27
7.75968E-01 1.27047E-27
7.79596E-01 1.23707E-27
7.83203E-01 1.20446E-27
7.86788E-01 1.17262E-27
7.90351E-01 1.14154E-27
7.93893E-01 1.11119E-27
7.97411E-01 1.08156E-27
8.00908E-01 1.05263E-27
8.04381E-01 1.02438E-27
8.07831E-01 9.96793E-28
8.11257E-01 9.69855E-28
8.14660E-01 9.43550E-28
8.18039E-01 9.17861E-28
8.21394E-01 8.92774E-28
8.24724E-01 8.68274E-28
8.28030E-01 8.44346E-28
8.31310E-01 8.20977E-28
8.34565E-01 7.98154E-28
8.37795E-01 7.75863E-28
8.40999E-01 7.54092E-28
8.44177E-01 7.32828E-28
8.47329E-01 7.12060E-28
8.50455E-01 6.91775E-28
8.53553E-01 6.71962E-28
8.56625E-01 6.52611E-28
8.59670E-01 6.33711E-28
8.62687E-01 6.15250E-28
8.65677E-01 5.97220E-28
8.68639E-01 5.79610E-28
8.71572E-01 5.62411E-28
8.74478E-01 5.45613E-28
8.77355E-01 5.29207E-28
8.80203E-01 5.13184E-28
8.83022E-01 4.97537E-28
8.85812E-01 4.82256E-28
8.88573E-01 4.67333E-28
8.91304E-01 4.52761E-28
8.94005E-01 4.38532E-28
8.96677E-01 4.24639E-28
8.99318E-01 4.11073E-28
9.01928E-01 3.97829E-28
9.04508E-01 3.84899E-28
9.07058E-01 3.72276E-28
9.09576E-01 3.59954E-28
9.12063E-01 3.47928E-28
9.14519E-01 3.36189E-28
9.16943E-01 3.24734E-28
9.19335E-01 3.13555E-28
9.21696E-01 3.02648E-28
9.24024E-01 2.92006E-28
9.26320E-01 2.81624E-28
9.28584E-01 2.71498E-28
9.30815E-01 2.61622E-28
9.33013E-01 2.51990E-28
9.35178E-01 2.42600E-28
9.37310E-01 2.33445E-28
9.39409E-01 2.24521E-28
9.41474E-01 2.15825E-28
9.43505E-01 2.07351E-28
9.45503E-01 1.99095E-28
9.47467E-01 1.91054E-28
9.49397E-01 1.83224E-28
9.51293E-01 1.75600E-28
9.53154E-01 1.68180E-28
9.54981E-01 1.60959E-28
9.56773E-01 1.53934E-28
9.58530E-01 1.47102E-28
9.60252E-01 1.40459E-28
9.61940E-01 1.34003E-28
9.63592E-01 1.27730E-28
9.65209E-01 1.21637E-28
9.66790E-01 1.15722E-28
9.68336E-01 1.09981E-28
9.69846E-01 1.04412E-28
9.71321E-01 9.90122E-29
9.72759E-01 9.37793E-29
9.74162E-01 8.87107E-29
9.75528E-01 8.38040E-29
9.76858E-01 7.90570E-29
9.78152E-01 7.44675E-29
9.79410E-01 7.00333E-29
9.80631E-01 6.57523E-29
9.81815E-01 6.16226E-29
9.82963E-01 5.76423E-29
9.84074E-01 5.38096E-29
9.85148E-01 5.01226E-29
9.86185E-01 4.65797E-29
9.87185E-01 4.31793E-29
9.88148E-01 3.99199E-29
9.89074E-01 3.67998E-29
9.89962E-01 3.38177E-29
9.90814E-01 3.09723E-29
9.91627E-01 2.82622E-29
9.92404E-01 2.56863E-29
9.93143E-01 2.32432E-29
9.93844E-01 2.09320E-29
9.94508E-01 1.87516E-29
9.95134E-01 1.67010E-29
9.95722E-01 1.47793E-29
9.96273E-01 1.29856E-29
9.96786E-01 1.13190E-29
9.97261E-01 9.77891E-30
9.97698E-01 8.36455E-30
9.98097E-01 7.07531E-30
9.98459E-01 5.91058E-30
9.98782E-01 4.86987E-30
9.99067E-01 3.95268E-30
9.99315E-01 3.15862E-30
9.99524E-01 2.48733E-30
9.99695E-01 1.93850E-30
9.99829E-01 1.51189E-30
9.99924E-01 1.20730E-30
9.99981E-01 1.02460E-30
1.00000E+00 9.63721E-31
