 #
 # Subroutine ELSEPA. Elastic scattering of electrons and positrons
 #                    by neutral atoms and positive ions
 #
 # Projectile: electron
 # Kinetic energy = 3.00000E+07 eV = 1.10248E+06 a.u.
 #
 # WARNING: High-energy factorization with free-atom DF screening.
 #          Absorption, polarization and exchange corrections are
 #          switched off.
 #          Phase shifts are calculated for the bare nucleus.
 #          Scattering amplitudes are not evaluated.
 #
 # Element: Sc,  Z =  21,  atomic weight = 4.49559E+01 g/mol
 #
 # Nuclear model: Fermi distribution
 #                Average radius = 3.80463E-13 cm
 #                Skin thickness = 5.46000E-14 cm
 #
 # Number of electrons = 21
 #
 # Total elastic cross section = 1.86767E-18 cm**2 = 6.66957E-02 a0**2
 # 1st transport cross section = 9.34641E-25 cm**2 = 3.33766E-08 a0**2
 # 2nd transport cross section = 2.71071E-24 cm**2 = 9.68010E-08 a0**2
 #
 #
 # Differential cross section:                       MU=(1-COS(THETA))/2
 #
 #  THETA        MU          DCS          DCS        Sherman      error
 #  (deg)                 (cm**2/sr)   (a0**2/sr)    function
 #----------------------------------------------------------------------
0.00000E+00 3.07361E-11
7.61557E-13 3.07225E-11
1.18994E-12 3.07149E-11
1.71346E-12 3.07056E-11
2.33225E-12 3.06946E-11
3.04617E-12 3.06820E-11
3.85530E-12 3.06676E-11
4.75964E-12 3.06516E-11
5.75917E-12 3.06339E-11
6.85391E-12 3.06145E-11
8.04379E-12 3.05935E-11
9.32893E-12 3.05709E-11
1.07092E-11 3.05465E-11
1.21847E-11 3.05206E-11
1.37554E-11 3.04930E-11
1.54213E-11 3.04637E-11
1.71823E-11 3.04329E-11
1.90386E-11 3.04004E-11
2.09900E-11 3.03663E-11
2.30367E-11 3.03306E-11
2.51785E-11 3.02933E-11
2.74156E-11 3.02545E-11
2.97478E-11 3.02140E-11
3.21752E-11 3.01720E-11
3.46979E-11 3.01284E-11
3.73157E-11 3.00833E-11
4.00286E-11 3.00367E-11
4.28368E-11 2.99885E-11
4.57402E-11 2.99389E-11
4.87388E-11 2.98877E-11
5.18325E-11 2.98350E-11
5.50215E-11 2.97809E-11
5.83057E-11 2.97253E-11
6.16850E-11 2.96683E-11
6.51595E-11 2.96098E-11
6.87293E-11 2.95499E-11
7.23943E-11 2.94885E-11
7.61544E-11 2.94258E-11
1.18991E-10 2.87252E-11
1.71347E-10 2.79024E-11
2.33223E-10 2.69747E-11
3.04617E-10 2.59623E-11
3.85531E-10 2.48801E-11
4.75965E-10 2.37530E-11
5.75917E-10 2.25929E-11
6.85389E-10 2.14215E-11
8.04380E-10 2.02502E-11
9.32891E-10 1.90937E-11
1.07092E-09 1.79639E-11
1.21847E-09 1.68662E-11
1.37554E-09 1.58146E-11
1.54213E-09 1.48043E-11
1.71823E-09 1.38518E-11
1.90386E-09 1.29467E-11
2.09900E-09 1.20991E-11
2.30367E-09 1.13031E-11
2.51785E-09 1.05603E-11
2.74156E-09 9.86964E-12
2.97478E-09 9.22590E-12
3.21752E-09 8.63217E-12
3.46978E-09 8.07861E-12
3.73156E-09 7.57100E-12
4.00286E-09 7.09871E-12
4.28368E-09 6.66439E-12
4.57402E-09 6.26212E-12
4.87388E-09 5.89083E-12
5.18326E-09 5.54802E-12
5.50215E-09 5.23034E-12
5.83057E-09 4.93754E-12
6.16850E-09 4.66522E-12
6.51596E-09 4.41412E-12
6.87293E-09 4.18029E-12
7.23942E-09 3.96360E-12
7.61544E-09 3.76181E-12
1.18991E-08 2.34435E-12
1.71347E-08 1.55700E-12
2.33223E-08 1.07223E-12
3.04617E-08 7.44522E-13
3.85531E-08 5.40107E-13
4.75965E-08 3.89306E-13
5.75917E-08 2.89213E-13
6.85389E-08 2.16621E-13
8.04380E-08 1.65646E-13
9.32891E-08 1.28541E-13
1.07092E-07 1.01401E-13
1.21847E-07 8.12287E-14
1.37554E-07 6.59631E-14
1.54213E-07 5.42967E-14
1.71823E-07 4.51822E-14
1.90386E-07 3.80141E-14
2.09900E-07 3.22636E-14
2.30367E-07 2.76138E-14
2.51785E-07 2.38029E-14
2.74156E-07 2.06422E-14
2.97478E-07 1.80118E-14
3.21752E-07 1.57797E-14
3.46978E-07 1.39022E-14
3.73156E-07 1.22783E-14
4.00286E-07 1.08954E-14
4.28368E-07 9.69248E-15
4.57402E-07 8.65223E-15
4.87388E-07 7.74423E-15
5.18325E-07 6.94852E-15
5.50215E-07 6.25246E-15
5.83057E-07 5.63565E-15
6.16850E-07 5.09486E-15
6.51596E-07 4.61134E-15
6.87293E-07 4.18490E-15
7.23942E-07 3.80375E-15
7.61543E-07 3.46466E-15
1.18991E-06 1.49175E-15
1.71347E-06 7.37017E-16
2.33223E-06 4.04499E-16
3.04617E-06 2.40477E-16
3.85531E-06 1.52059E-16
4.75964E-06 1.00941E-16
5.75916E-06 6.96534E-17
6.85388E-06 4.96234E-17
8.04378E-06 3.63099E-17
9.32888E-06 2.71721E-17
1.07092E-05 2.07361E-17
1.21846E-05 1.60944E-17
1.37553E-05 1.26797E-17
1.54212E-05 1.01234E-17
1.71822E-05 8.17816E-18
1.90385E-05 6.67769E-18
2.09899E-05 5.50590E-18
2.30365E-05 4.57964E-18
2.51783E-05 3.83986E-18
2.74153E-05 3.24318E-18
2.97475E-05 2.75783E-18
3.21749E-05 2.35985E-18
3.46974E-05 2.03104E-18
3.73152E-05 1.75754E-18
4.00281E-05 1.52852E-18
4.28362E-05 1.33559E-18
4.57395E-05 1.17214E-18
4.87380E-05 1.03291E-18
5.18317E-05 9.13734E-19
5.50205E-05 8.11238E-19
5.83045E-05 7.22708E-19
6.16838E-05 6.45928E-19
6.51582E-05 5.79075E-19
6.87277E-05 5.20653E-19
7.23925E-05 4.69416E-19
7.61524E-05 4.24323E-19
9.21439E-05 2.90098E-19
1.09658E-04 2.04988E-19
1.28695E-04 1.48929E-19
1.49255E-04 1.10789E-19
1.71338E-04 8.41171E-20
1.94942E-04 6.50114E-20
2.20070E-04 5.10368E-20
2.46720E-04 4.06247E-20
2.74892E-04 3.27385E-20
3.04586E-04 2.66774E-20
3.35803E-04 2.19569E-20
3.68542E-04 1.82364E-20
4.02802E-04 1.52720E-20
4.38585E-04 1.28866E-20
4.75889E-04 1.09496E-20
5.14715E-04 9.36349E-21
5.55063E-04 8.05467E-21
5.96931E-04 6.96691E-21
6.40321E-04 6.05688E-21
6.85233E-04 5.29083E-21
7.31665E-04 4.64225E-21
7.79618E-04 4.09017E-21
8.29092E-04 3.61784E-21
8.80086E-04 3.21184E-21
9.32601E-04 2.86128E-21
9.86636E-04 2.55731E-21
1.04219E-03 2.29271E-21
1.09927E-03 2.06149E-21
1.15786E-03 1.85873E-21
1.21797E-03 1.68033E-21
1.27961E-03 1.52285E-21
1.34276E-03 1.38342E-21
1.40743E-03 1.25960E-21
1.47362E-03 1.14935E-21
1.54133E-03 1.05092E-21
1.61056E-03 9.62812E-22
1.68131E-03 8.83763E-22
1.75357E-03 8.12672E-22
1.82735E-03 7.48598E-22
1.90265E-03 6.90724E-22
1.97947E-03 6.38344E-22
2.05780E-03 5.90844E-22
2.13765E-03 5.47687E-22
2.21902E-03 5.08405E-22
2.30190E-03 4.72588E-22
2.38630E-03 4.39874E-22
2.47222E-03 4.09947E-22
2.55965E-03 3.82527E-22
2.64859E-03 3.57364E-22
2.73905E-03 3.34241E-22
2.83103E-03 3.12960E-22
2.92452E-03 2.93349E-22
3.01952E-03 2.75253E-22
3.11604E-03 2.58533E-22
3.21407E-03 2.43066E-22
3.31362E-03 2.28740E-22
3.41468E-03 2.15456E-22
3.51725E-03 2.03123E-22
3.62133E-03 1.91663E-22
3.72692E-03 1.81000E-22
3.83403E-03 1.71071E-22
3.94265E-03 1.61813E-22
4.05278E-03 1.53175E-22
4.16442E-03 1.45107E-22
4.27757E-03 1.37563E-22
4.39223E-03 1.30505E-22
4.50840E-03 1.23894E-22
4.62608E-03 1.17697E-22
4.74527E-03 1.11884E-22
4.86597E-03 1.06426E-22
4.98817E-03 1.01297E-22
5.11188E-03 9.64736E-23
5.23711E-03 9.19347E-23
5.36383E-03 8.76601E-23
5.49207E-03 8.36314E-23
5.62181E-03 7.98320E-23
5.75306E-03 7.62462E-23
5.88581E-03 7.28600E-23
6.02007E-03 6.96599E-23
6.15583E-03 6.66339E-23
6.29310E-03 6.37708E-23
6.43187E-03 6.10600E-23
6.57214E-03 5.84920E-23
6.71392E-03 5.60579E-23
6.85720E-03 5.37492E-23
7.00198E-03 5.15584E-23
7.14827E-03 4.94783E-23
7.29605E-03 4.75022E-23
7.44534E-03 4.56239E-23
7.59612E-03 4.38377E-23
7.97965E-03 3.97407E-23
8.37255E-03 3.61121E-23
8.77480E-03 3.28890E-23
9.18641E-03 3.00180E-23
9.60736E-03 2.74541E-23
1.00376E-02 2.51585E-23
1.04773E-02 2.30982E-23
1.09262E-02 2.12449E-23
1.13844E-02 1.95740E-23
1.18520E-02 1.80644E-23
1.23288E-02 1.66977E-23
1.28150E-02 1.54580E-23
1.33104E-02 1.43314E-23
1.38150E-02 1.33057E-23
1.43290E-02 1.23702E-23
1.48521E-02 1.15155E-23
1.53845E-02 1.07335E-23
1.59262E-02 1.00168E-23
1.64770E-02 9.35897E-24
1.70371E-02 8.75429E-24
1.76063E-02 8.19769E-24
1.81848E-02 7.68465E-24
1.87724E-02 7.21113E-24
1.93692E-02 6.77354E-24
1.99751E-02 6.36865E-24
2.05901E-02 5.99356E-24
2.12143E-02 5.64568E-24
2.18476E-02 5.32267E-24
2.24900E-02 5.02243E-24
2.31415E-02 4.74306E-24
2.38021E-02 4.48283E-24
2.44717E-02 4.24019E-24
2.51504E-02 4.01374E-24
2.58382E-02 3.80219E-24
2.65349E-02 3.60438E-24
2.72407E-02 3.41926E-24
2.79555E-02 3.24585E-24
2.86793E-02 3.08328E-24
2.94120E-02 2.93075E-24
3.01537E-02 2.78751E-24
3.09043E-02 2.65291E-24
3.16639E-02 2.52631E-24
3.24324E-02 2.40716E-24
3.32098E-02 2.29494E-24
3.39961E-02 2.18916E-24
3.47912E-02 2.08939E-24
3.55952E-02 1.99523E-24
3.64081E-02 1.90629E-24
3.72297E-02 1.82224E-24
3.80602E-02 1.74276E-24
3.88995E-02 1.66754E-24
3.97476E-02 1.59633E-24
4.06044E-02 1.52886E-24
4.14700E-02 1.46490E-24
4.23443E-02 1.40424E-24
4.32273E-02 1.34668E-24
4.41190E-02 1.29202E-24
4.50194E-02 1.24009E-24
4.59284E-02 1.19073E-24
4.68461E-02 1.14378E-24
4.87074E-02 1.05660E-24
5.06030E-02 9.77527E-25
5.25328E-02 9.05667E-25
5.44967E-02 8.40248E-25
5.64946E-02 7.80590E-25
5.85262E-02 7.26094E-25
6.05914E-02 6.76236E-25
6.26901E-02 6.30549E-25
6.48222E-02 5.88622E-25
6.69873E-02 5.50091E-25
6.91854E-02 5.14631E-25
7.14163E-02 4.81953E-25
7.36799E-02 4.51801E-25
7.59760E-02 4.23943E-25
7.83043E-02 3.98175E-25
8.06647E-02 3.74311E-25
8.30571E-02 3.52185E-25
8.54812E-02 3.31648E-25
8.79369E-02 3.12565E-25
9.04240E-02 2.94815E-25
9.29422E-02 2.78289E-25
9.54915E-02 2.62886E-25
9.80716E-02 2.48516E-25
1.00682E-01 2.35099E-25
1.03323E-01 2.22559E-25
1.05995E-01 2.10828E-25
1.08696E-01 1.99846E-25
1.11427E-01 1.89556E-25
1.14188E-01 1.79906E-25
1.16978E-01 1.70849E-25
1.19797E-01 1.62343E-25
1.22645E-01 1.54349E-25
1.25522E-01 1.46829E-25
1.28428E-01 1.39750E-25
1.31361E-01 1.33083E-25
1.34323E-01 1.26799E-25
1.37313E-01 1.20871E-25
1.40330E-01 1.15277E-25
1.43375E-01 1.09994E-25
1.46447E-01 1.05002E-25
1.49545E-01 1.00282E-25
1.52671E-01 9.58162E-26
1.55823E-01 9.15887E-26
1.59001E-01 8.75847E-26
1.62205E-01 8.37902E-26
1.65435E-01 8.01922E-26
1.68690E-01 7.67790E-26
1.71970E-01 7.35392E-26
1.75276E-01 7.04626E-26
1.78606E-01 6.75395E-26
1.81961E-01 6.47608E-26
1.85340E-01 6.21184E-26
1.88743E-01 5.96041E-26
1.92169E-01 5.72109E-26
1.95619E-01 5.49319E-26
1.99092E-01 5.27606E-26
2.02589E-01 5.06910E-26
2.06107E-01 4.87177E-26
2.09649E-01 4.68354E-26
2.13212E-01 4.50391E-26
2.16797E-01 4.33243E-26
2.20404E-01 4.16865E-26
2.24032E-01 4.01219E-26
2.27680E-01 3.86264E-26
2.31350E-01 3.71967E-26
2.35040E-01 3.58292E-26
2.38751E-01 3.45209E-26
2.42481E-01 3.32687E-26
2.46231E-01 3.20698E-26
2.50000E-01 3.09216E-26
2.53788E-01 2.98215E-26
2.57595E-01 2.87673E-26
2.61421E-01 2.77567E-26
2.65264E-01 2.67875E-26
2.69126E-01 2.58579E-26
2.73005E-01 2.49659E-26
2.76901E-01 2.41097E-26
2.80814E-01 2.32877E-26
2.84744E-01 2.24983E-26
2.88691E-01 2.17400E-26
2.92653E-01 2.10113E-26
2.96632E-01 2.03110E-26
3.00625E-01 1.96377E-26
3.04634E-01 1.89902E-26
3.08658E-01 1.83674E-26
3.12697E-01 1.77682E-26
3.16749E-01 1.71915E-26
3.20816E-01 1.66364E-26
3.24896E-01 1.61019E-26
3.28990E-01 1.55871E-26
3.33097E-01 1.50913E-26
3.37216E-01 1.46136E-26
3.41348E-01 1.41531E-26
3.45492E-01 1.37093E-26
3.49647E-01 1.32814E-26
3.53814E-01 1.28688E-26
3.57992E-01 1.24707E-26
3.62181E-01 1.20867E-26
3.66381E-01 1.17162E-26
3.70590E-01 1.13585E-26
3.74810E-01 1.10133E-26
3.79039E-01 1.06800E-26
3.83277E-01 1.03581E-26
3.87524E-01 1.00471E-26
3.91780E-01 9.74673E-27
3.96044E-01 9.45647E-27
4.00316E-01 9.17595E-27
4.04596E-01 8.90480E-27
4.08882E-01 8.64266E-27
4.13176E-01 8.38918E-27
4.17476E-01 8.14404E-27
4.21783E-01 7.90692E-27
4.26095E-01 7.67752E-27
4.30413E-01 7.45555E-27
4.34737E-01 7.24073E-27
4.39065E-01 7.03281E-27
4.43398E-01 6.83153E-27
4.47736E-01 6.63665E-27
4.52077E-01 6.44794E-27
4.56422E-01 6.26516E-27
4.60770E-01 6.08812E-27
4.65122E-01 5.91660E-27
4.69476E-01 5.75040E-27
4.73832E-01 5.58935E-27
4.78190E-01 5.43326E-27
4.82550E-01 5.28195E-27
4.86912E-01 5.13526E-27
4.91274E-01 4.99302E-27
4.95637E-01 4.85509E-27
5.00000E-01 4.72132E-27
5.04363E-01 4.59156E-27
5.08726E-01 4.46568E-27
5.13088E-01 4.34354E-27
5.17450E-01 4.22502E-27
5.21810E-01 4.11000E-27
5.26168E-01 3.99837E-27
5.30524E-01 3.89000E-27
5.34878E-01 3.78479E-27
5.39230E-01 3.68264E-27
5.43578E-01 3.58345E-27
5.47923E-01 3.48712E-27
5.52264E-01 3.39355E-27
5.56602E-01 3.30266E-27
5.60935E-01 3.21437E-27
5.65263E-01 3.12858E-27
5.69587E-01 3.04522E-27
5.73905E-01 2.96421E-27
5.78217E-01 2.88547E-27
5.82524E-01 2.80894E-27
5.86824E-01 2.73455E-27
5.91118E-01 2.66222E-27
5.95404E-01 2.59190E-27
5.99684E-01 2.52352E-27
6.03956E-01 2.45703E-27
6.08220E-01 2.39235E-27
6.12476E-01 2.32945E-27
6.16723E-01 2.26826E-27
6.20961E-01 2.20873E-27
6.25190E-01 2.15081E-27
6.29410E-01 2.09446E-27
6.33619E-01 2.03962E-27
6.37819E-01 1.98626E-27
6.42008E-01 1.93432E-27
6.46186E-01 1.88376E-27
6.50353E-01 1.83455E-27
6.54508E-01 1.78665E-27
6.58652E-01 1.74001E-27
6.62784E-01 1.69459E-27
6.66903E-01 1.65038E-27
6.71010E-01 1.60732E-27
6.75104E-01 1.56538E-27
6.79184E-01 1.52454E-27
6.83251E-01 1.48476E-27
6.87303E-01 1.44600E-27
6.91342E-01 1.40826E-27
6.95366E-01 1.37148E-27
6.99375E-01 1.33565E-27
7.03368E-01 1.30074E-27
7.07347E-01 1.26672E-27
7.11309E-01 1.23357E-27
7.15256E-01 1.20126E-27
7.19186E-01 1.16977E-27
7.23099E-01 1.13908E-27
7.26995E-01 1.10917E-27
7.30874E-01 1.08001E-27
7.34736E-01 1.05158E-27
7.38579E-01 1.02387E-27
7.42405E-01 9.96853E-28
7.46212E-01 9.70510E-28
7.50000E-01 9.44825E-28
7.53769E-01 9.19779E-28
7.57519E-01 8.95355E-28
7.61249E-01 8.71536E-28
7.64960E-01 8.48307E-28
7.68650E-01 8.25652E-28
7.72320E-01 8.03556E-28
7.75968E-01 7.82003E-28
7.79596E-01 7.60980E-28
7.83203E-01 7.40473E-28
7.86788E-01 7.20467E-28
7.90351E-01 7.00952E-28
7.93893E-01 6.81912E-28
7.97411E-01 6.63337E-28
8.00908E-01 6.45214E-28
8.04381E-01 6.27531E-28
8.07831E-01 6.10278E-28
8.11257E-01 5.93444E-28
8.14660E-01 5.77017E-28
8.18039E-01 5.60988E-28
8.21394E-01 5.45346E-28
8.24724E-01 5.30082E-28
8.28030E-01 5.15186E-28
8.31310E-01 5.00650E-28
8.34565E-01 4.86464E-28
8.37795E-01 4.72619E-28
8.40999E-01 4.59107E-28
8.44177E-01 4.45921E-28
8.47329E-01 4.33051E-28
8.50455E-01 4.20491E-28
8.53553E-01 4.08232E-28
8.56625E-01 3.96268E-28
8.59670E-01 3.84592E-28
8.62687E-01 3.73196E-28
8.65677E-01 3.62073E-28
8.68639E-01 3.51218E-28
8.71572E-01 3.40625E-28
8.74478E-01 3.30286E-28
8.77355E-01 3.20195E-28
8.80203E-01 3.10348E-28
8.83022E-01 3.00739E-28
8.85812E-01 2.91361E-28
8.88573E-01 2.82210E-28
8.91304E-01 2.73280E-28
8.94005E-01 2.64567E-28
8.96677E-01 2.56065E-28
8.99318E-01 2.47770E-28
9.01928E-01 2.39676E-28
9.04508E-01 2.31781E-28
9.07058E-01 2.24078E-28
9.09576E-01 2.16565E-28
9.12063E-01 2.09236E-28
9.14519E-01 2.02088E-28
9.16943E-01 1.95117E-28
9.19335E-01 1.88318E-28
9.21696E-01 1.81690E-28
9.24024E-01 1.75226E-28
9.26320E-01 1.68925E-28
9.28584E-01 1.62783E-28
9.30815E-01 1.56797E-28
9.33013E-01 1.50962E-28
9.35178E-01 1.45277E-28
9.37310E-01 1.39739E-28
9.39409E-01 1.34343E-28
9.41474E-01 1.29088E-28
9.43505E-01 1.23970E-28
9.45503E-01 1.18987E-28
9.47467E-01 1.14137E-28
9.49397E-01 1.09416E-28
9.51293E-01 1.04823E-28
9.53154E-01 1.00355E-28
9.54981E-01 9.60088E-29
9.56773E-01 9.17832E-29
9.58530E-01 8.76759E-29
9.60252E-01 8.36845E-29
9.61940E-01 7.98071E-29
9.63592E-01 7.60417E-29
9.65209E-01 7.23863E-29
9.66790E-01 6.88391E-29
9.68336E-01 6.53982E-29
9.69846E-01 6.20620E-29
9.71321E-01 5.88287E-29
9.72759E-01 5.56967E-29
9.74162E-01 5.26644E-29
9.75528E-01 4.97302E-29
9.76858E-01 4.68928E-29
9.78152E-01 4.41505E-29
9.79410E-01 4.15022E-29
9.80631E-01 3.89464E-29
9.81815E-01 3.64819E-29
9.82963E-01 3.41074E-29
9.84074E-01 3.18218E-29
9.85148E-01 2.96239E-29
9.86185E-01 2.75126E-29
9.87185E-01 2.54869E-29
9.88148E-01 2.35457E-29
9.89074E-01 2.16882E-29
9.89962E-01 1.99133E-29
9.90814E-01 1.82203E-29
9.91627E-01 1.66082E-29
9.92404E-01 1.50763E-29
9.93143E-01 1.36238E-29
9.93844E-01 1.22500E-29
9.94508E-01 1.09543E-29
9.95134E-01 9.73592E-30
9.95722E-01 8.59437E-30
9.96273E-01 7.52905E-30
9.96786E-01 6.53945E-30
9.97261E-01 5.62509E-30
9.97698E-01 4.78550E-30
9.98097E-01 4.02029E-30
9.98459E-01 3.32908E-30
9.98782E-01 2.71153E-30
9.99067E-01 2.16734E-30
9.99315E-01 1.69625E-30
9.99524E-01 1.29802E-30
9.99695E-01 9.72453E-31
9.99829E-01 7.19402E-31
9.99924E-01 5.38740E-31
9.99981E-01 4.30378E-31
1.00000E+00 3.94268E-31
