 #
 # Subroutine ELSEPA. Elastic scattering of electrons and positrons
 #                    by neutral atoms and positive ions
 #
 # Projectile: electron
 # Kinetic energy = 2.50000E+06 eV = 9.18733E+04 a.u.
 #
 # WARNING: High-energy factorization with free-atom DF screening.
 #          Absorption, polarization and exchange corrections are
 #          switched off.
 #          Phase shifts are calculated for the bare nucleus.
 #          Scattering amplitudes are not evaluated.
 #
 # Element: Sc,  Z =  21,  atomic weight = 4.49559E+01 g/mol
 #
 # Nuclear model: Fermi distribution
 #                Average radius = 3.80463E-13 cm
 #                Skin thickness = 5.46000E-14 cm
 #
 # Number of electrons = 21
 #
 # Total elastic cross section = 1.92352E-18 cm**2 = 6.86902E-02 a0**2
 # 1st transport cross section = 7.25274E-23 cm**2 = 2.59000E-06 a0**2
 # 2nd transport cross section = 2.05137E-22 cm**2 = 7.32558E-06 a0**2
 #
 #
 # Differential cross section:                       MU=(1-COS(THETA))/2
 #
 #  THETA        MU          DCS          DCS        Sherman      error
 #  (deg)                 (cm**2/sr)   (a0**2/sr)    function
 #----------------------------------------------------------------------
0.00000E+00 2.99335E-13
7.61557E-13 2.99334E-13
1.18994E-12 2.99333E-13
1.71346E-12 2.99332E-13
2.33225E-12 2.99331E-13
3.04617E-12 2.99330E-13
3.85530E-12 2.99329E-13
4.75964E-12 2.99327E-13
5.75917E-12 2.99325E-13
6.85391E-12 2.99324E-13
8.04379E-12 2.99322E-13
9.32893E-12 2.99320E-13
1.07092E-11 2.99317E-13
1.21847E-11 2.99315E-13
1.37554E-11 2.99312E-13
1.54213E-11 2.99310E-13
1.71823E-11 2.99307E-13
1.90386E-11 2.99304E-13
2.09900E-11 2.99301E-13
2.30367E-11 2.99297E-13
2.51785E-11 2.99294E-13
2.74156E-11 2.99290E-13
2.97478E-11 2.99286E-13
3.21752E-11 2.99282E-13
3.46979E-11 2.99278E-13
3.73157E-11 2.99274E-13
4.00286E-11 2.99270E-13
4.28368E-11 2.99265E-13
4.57402E-11 2.99260E-13
4.87388E-11 2.99255E-13
5.18325E-11 2.99250E-13
5.50215E-11 2.99245E-13
5.83057E-11 2.99240E-13
6.16850E-11 2.99234E-13
6.51595E-11 2.99229E-13
6.87293E-11 2.99223E-13
7.23943E-11 2.99217E-13
7.61544E-11 2.99211E-13
1.18991E-10 2.99141E-13
1.71347E-10 2.99055E-13
2.33223E-10 2.98954E-13
3.04617E-10 2.98838E-13
3.85531E-10 2.98706E-13
4.75965E-10 2.98558E-13
5.75917E-10 2.98396E-13
6.85389E-10 2.98218E-13
8.04380E-10 2.98024E-13
9.32891E-10 2.97815E-13
1.07092E-09 2.97591E-13
1.21847E-09 2.97352E-13
1.37554E-09 2.97098E-13
1.54213E-09 2.96829E-13
1.71823E-09 2.96544E-13
1.90386E-09 2.96245E-13
2.09900E-09 2.95931E-13
2.30367E-09 2.95602E-13
2.51785E-09 2.95258E-13
2.74156E-09 2.94900E-13
2.97478E-09 2.94527E-13
3.21752E-09 2.94140E-13
3.46978E-09 2.93738E-13
3.73156E-09 2.93322E-13
4.00286E-09 2.92892E-13
4.28368E-09 2.92447E-13
4.57402E-09 2.91989E-13
4.87388E-09 2.91517E-13
5.18326E-09 2.91031E-13
5.50215E-09 2.90531E-13
5.83057E-09 2.90017E-13
6.16850E-09 2.89491E-13
6.51596E-09 2.88950E-13
6.87293E-09 2.88397E-13
7.23942E-09 2.87830E-13
7.61544E-09 2.87251E-13
1.18991E-08 2.80769E-13
1.71347E-08 2.73140E-13
2.33223E-08 2.64517E-13
3.04617E-08 2.55079E-13
3.85531E-08 2.44968E-13
4.75965E-08 2.34387E-13
5.75917E-08 2.23458E-13
6.85389E-08 2.12395E-13
8.04380E-08 2.01260E-13
9.32891E-08 1.90266E-13
1.07092E-07 1.79431E-13
1.21847E-07 1.68918E-13
1.37554E-07 1.58739E-13
1.54213E-07 1.48988E-13
1.71823E-07 1.39687E-13
1.90386E-07 1.30856E-13
2.09900E-07 1.22536E-13
2.30367E-07 1.14683E-13
2.51785E-07 1.07362E-13
2.74156E-07 1.00475E-13
2.97478E-07 9.41089E-14
3.21752E-07 8.81404E-14
3.46978E-07 8.26371E-14
3.73156E-07 7.75033E-14
4.00286E-07 7.27657E-14
4.28368E-07 6.83665E-14
4.57402E-07 6.42988E-14
4.87388E-07 6.05341E-14
5.18325E-07 5.70438E-14
5.50215E-07 5.38201E-14
5.83057E-07 5.08224E-14
6.16850E-07 4.80558E-14
6.51596E-07 4.54760E-14
6.87293E-07 4.30930E-14
7.23942E-07 4.08684E-14
7.61543E-07 3.88042E-14
1.18991E-06 2.42555E-14
1.71347E-06 1.61747E-14
2.33223E-06 1.11988E-14
3.04617E-06 7.83341E-15
3.85531E-06 5.67334E-15
4.75964E-06 4.13396E-15
5.75916E-06 3.08458E-15
6.85388E-06 2.31461E-15
8.04378E-06 1.77656E-15
9.32888E-06 1.37760E-15
1.07092E-05 1.08827E-15
1.21846E-05 8.71055E-16
1.37553E-05 7.07509E-16
1.54212E-05 5.81843E-16
1.71822E-05 4.84128E-16
1.90385E-05 4.07082E-16
2.09899E-05 3.45428E-16
2.30365E-05 2.95689E-16
2.51783E-05 2.54763E-16
2.74153E-05 2.21146E-16
2.97475E-05 1.92802E-16
3.21749E-05 1.69158E-16
3.46974E-05 1.48910E-16
3.73152E-05 1.31744E-16
4.00281E-05 1.16903E-16
4.28362E-05 1.04126E-16
4.57395E-05 9.30097E-17
4.87380E-05 8.33100E-17
5.18317E-05 7.48348E-17
5.50205E-05 6.73560E-17
5.83045E-05 6.08011E-17
6.16838E-05 5.49636E-17
6.51582E-05 4.98322E-17
6.87277E-05 4.52267E-17
7.23925E-05 4.11553E-17
7.61524E-05 3.75002E-17
9.21439E-05 2.63286E-17
1.09658E-04 1.89589E-17
1.28695E-04 1.39629E-17
1.49255E-04 1.04949E-17
1.71338E-04 8.03515E-18
1.94942E-04 6.25480E-18
2.20070E-04 4.94190E-18
2.46720E-04 3.95704E-18
2.74892E-04 3.20630E-18
3.04586E-04 2.62686E-18
3.35803E-04 2.17319E-18
3.68542E-04 1.81417E-18
4.02802E-04 1.52648E-18
4.38585E-04 1.29421E-18
4.75889E-04 1.10444E-18
5.14715E-04 9.48600E-19
5.55063E-04 8.19238E-19
5.96931E-04 7.11392E-19
6.40321E-04 6.20707E-19
6.85233E-04 5.44101E-19
7.31665E-04 4.78965E-19
7.79618E-04 4.23306E-19
8.29092E-04 3.75526E-19
8.80086E-04 3.34284E-19
9.32601E-04 2.98585E-19
9.86636E-04 2.67493E-19
1.04219E-03 2.40380E-19
1.09927E-03 2.16582E-19
1.15786E-03 1.95680E-19
1.21797E-03 1.77222E-19
1.27961E-03 1.60900E-19
1.34276E-03 1.46406E-19
1.40743E-03 1.33510E-19
1.47362E-03 1.22002E-19
1.54133E-03 1.11704E-19
1.61056E-03 1.02472E-19
1.68131E-03 9.41702E-20
1.75357E-03 8.66957E-20
1.82735E-03 7.99428E-20
1.90265E-03 7.38385E-20
1.97947E-03 6.83016E-20
2.05780E-03 6.32765E-20
2.13765E-03 5.87029E-20
2.21902E-03 5.45361E-20
2.30190E-03 5.07317E-20
2.38630E-03 4.72533E-20
2.47222E-03 4.40681E-20
2.55965E-03 4.11462E-20
2.64859E-03 3.84630E-20
2.73905E-03 3.59943E-20
2.83103E-03 3.37213E-20
2.92452E-03 3.16241E-20
3.01952E-03 2.96880E-20
3.11604E-03 2.78974E-20
3.21407E-03 2.62401E-20
3.31362E-03 2.47039E-20
3.41468E-03 2.32787E-20
3.51725E-03 2.19547E-20
3.62133E-03 2.07236E-20
3.72692E-03 1.95777E-20
3.83403E-03 1.85098E-20
3.94265E-03 1.75140E-20
4.05278E-03 1.65841E-20
4.16442E-03 1.57154E-20
4.27757E-03 1.49027E-20
4.39223E-03 1.41420E-20
4.50840E-03 1.34292E-20
4.62608E-03 1.27608E-20
4.74527E-03 1.21336E-20
4.86597E-03 1.15444E-20
4.98817E-03 1.09907E-20
5.11188E-03 1.04698E-20
5.23711E-03 9.97939E-21
5.36383E-03 9.51742E-21
5.49207E-03 9.08195E-21
5.62181E-03 8.67110E-21
5.75306E-03 8.28330E-21
5.88581E-03 7.91694E-21
6.02007E-03 7.57067E-21
6.15583E-03 7.24314E-21
6.29310E-03 6.93318E-21
6.43187E-03 6.63964E-21
6.57214E-03 6.36151E-21
6.71392E-03 6.09782E-21
6.85720E-03 5.84767E-21
7.00198E-03 5.61025E-21
7.14827E-03 5.38478E-21
7.29605E-03 5.17055E-21
7.44534E-03 4.96688E-21
7.59612E-03 4.77318E-21
7.97965E-03 4.32873E-21
8.37255E-03 3.93495E-21
8.77480E-03 3.58504E-21
9.18641E-03 3.27325E-21
9.60736E-03 2.99472E-21
1.00376E-02 2.74526E-21
1.04773E-02 2.52131E-21
1.09262E-02 2.31979E-21
1.13844E-02 2.13806E-21
1.18520E-02 1.97383E-21
1.23288E-02 1.82511E-21
1.28150E-02 1.69018E-21
1.33104E-02 1.56752E-21
1.38150E-02 1.45582E-21
1.43290E-02 1.35393E-21
1.48521E-02 1.26082E-21
1.53845E-02 1.17560E-21
1.59262E-02 1.09748E-21
1.64770E-02 1.02577E-21
1.70371E-02 9.59831E-22
1.76063E-02 8.99124E-22
1.81848E-02 8.43157E-22
1.87724E-02 7.91491E-22
1.93692E-02 7.43734E-22
1.99751E-02 6.99536E-22
2.05901E-02 6.58583E-22
2.12143E-02 6.20593E-22
2.18476E-02 5.85311E-22
2.24900E-02 5.52509E-22
2.31415E-02 5.21980E-22
2.38021E-02 4.93538E-22
2.44717E-02 4.67012E-22
2.51504E-02 4.42250E-22
2.58382E-02 4.19113E-22
2.65349E-02 3.97474E-22
2.72407E-02 3.77217E-22
2.79555E-02 3.58239E-22
2.86793E-02 3.40443E-22
2.94120E-02 3.23741E-22
3.01537E-02 3.08055E-22
3.09043E-02 2.93309E-22
3.16639E-02 2.79439E-22
3.24324E-02 2.66380E-22
3.32098E-02 2.54078E-22
3.39961E-02 2.42480E-22
3.47912E-02 2.31538E-22
3.55952E-02 2.21208E-22
3.64081E-02 2.11449E-22
3.72297E-02 2.02224E-22
3.80602E-02 1.93498E-22
3.88995E-02 1.85238E-22
3.97476E-02 1.77416E-22
4.06044E-02 1.70003E-22
4.14700E-02 1.62975E-22
4.23443E-02 1.56307E-22
4.32273E-02 1.49977E-22
4.41190E-02 1.43965E-22
4.50194E-02 1.38252E-22
4.59284E-02 1.32820E-22
4.68461E-02 1.27652E-22
4.87074E-02 1.18052E-22
5.06030E-02 1.09339E-22
5.25328E-02 1.01416E-22
5.44967E-02 9.41990E-23
5.64946E-02 8.76136E-23
5.85262E-02 8.15944E-23
6.05914E-02 7.60839E-23
6.26901E-02 7.10312E-23
6.48222E-02 6.63913E-23
6.69873E-02 6.21243E-23
6.91854E-02 5.81948E-23
7.14163E-02 5.45711E-23
7.36799E-02 5.12250E-23
7.59760E-02 4.81314E-23
7.83043E-02 4.52678E-23
8.06647E-02 4.26137E-23
8.30571E-02 4.01512E-23
8.54812E-02 3.78637E-23
8.79369E-02 3.57366E-23
9.04240E-02 3.37565E-23
9.29422E-02 3.19114E-23
9.54915E-02 3.01903E-23
9.80716E-02 2.85834E-23
1.00682E-01 2.70816E-23
1.03323E-01 2.56769E-23
1.05995E-01 2.43617E-23
1.08696E-01 2.31294E-23
1.11427E-01 2.19736E-23
1.14188E-01 2.08888E-23
1.16978E-01 1.98698E-23
1.19797E-01 1.89118E-23
1.22645E-01 1.80106E-23
1.25522E-01 1.71621E-23
1.28428E-01 1.63626E-23
1.31361E-01 1.56088E-23
1.34323E-01 1.48977E-23
1.37313E-01 1.42262E-23
1.40330E-01 1.35919E-23
1.43375E-01 1.29922E-23
1.46447E-01 1.24249E-23
1.49545E-01 1.18880E-23
1.52671E-01 1.13794E-23
1.55823E-01 1.08975E-23
1.59001E-01 1.04406E-23
1.62205E-01 1.00070E-23
1.65435E-01 9.59552E-24
1.68690E-01 9.20468E-24
1.71970E-01 8.83328E-24
1.75276E-01 8.48018E-24
1.78606E-01 8.14430E-24
1.81961E-01 7.82464E-24
1.85340E-01 7.52028E-24
1.88743E-01 7.23035E-24
1.92169E-01 6.95402E-24
1.95619E-01 6.69055E-24
1.99092E-01 6.43923E-24
2.02589E-01 6.19938E-24
2.06107E-01 5.97040E-24
2.09649E-01 5.75168E-24
2.13212E-01 5.54269E-24
2.16797E-01 5.34292E-24
2.20404E-01 5.15187E-24
2.24032E-01 4.96910E-24
2.27680E-01 4.79419E-24
2.31350E-01 4.62672E-24
2.35040E-01 4.46633E-24
2.38751E-01 4.31266E-24
2.42481E-01 4.16537E-24
2.46231E-01 4.02416E-24
2.50000E-01 3.88872E-24
2.53788E-01 3.75877E-24
2.57595E-01 3.63405E-24
2.61421E-01 3.51431E-24
2.65264E-01 3.39932E-24
2.69126E-01 3.28885E-24
2.73005E-01 3.18269E-24
2.76901E-01 3.08064E-24
2.80814E-01 2.98251E-24
2.84744E-01 2.88812E-24
2.88691E-01 2.79731E-24
2.92653E-01 2.70991E-24
2.96632E-01 2.62578E-24
3.00625E-01 2.54476E-24
3.04634E-01 2.46672E-24
3.08658E-01 2.39154E-24
3.12697E-01 2.31908E-24
3.16749E-01 2.24923E-24
3.20816E-01 2.18188E-24
3.24896E-01 2.11692E-24
3.28990E-01 2.05426E-24
3.33097E-01 1.99379E-24
3.37216E-01 1.93543E-24
3.41348E-01 1.87909E-24
3.45492E-01 1.82468E-24
3.49647E-01 1.77213E-24
3.53814E-01 1.72137E-24
3.57992E-01 1.67231E-24
3.62181E-01 1.62490E-24
3.66381E-01 1.57907E-24
3.70590E-01 1.53475E-24
3.74810E-01 1.49189E-24
3.79039E-01 1.45042E-24
3.83277E-01 1.41031E-24
3.87524E-01 1.37149E-24
3.91780E-01 1.33391E-24
3.96044E-01 1.29754E-24
4.00316E-01 1.26231E-24
4.04596E-01 1.22820E-24
4.08882E-01 1.19515E-24
4.13176E-01 1.16314E-24
4.17476E-01 1.13211E-24
4.21783E-01 1.10204E-24
4.26095E-01 1.07289E-24
4.30413E-01 1.04463E-24
4.34737E-01 1.01723E-24
4.39065E-01 9.90646E-25
4.43398E-01 9.64861E-25
4.47736E-01 9.39844E-25
4.52077E-01 9.15569E-25
4.56422E-01 8.92008E-25
4.60770E-01 8.69138E-25
4.65122E-01 8.46935E-25
4.69476E-01 8.25376E-25
4.73832E-01 8.04438E-25
4.78190E-01 7.84102E-25
4.82550E-01 7.64345E-25
4.86912E-01 7.45151E-25
4.91274E-01 7.26498E-25
4.95637E-01 7.08370E-25
5.00000E-01 6.90750E-25
5.04363E-01 6.73619E-25
5.08726E-01 6.56964E-25
5.13088E-01 6.40768E-25
5.17450E-01 6.25016E-25
5.21810E-01 6.09695E-25
5.26168E-01 5.94790E-25
5.30524E-01 5.80289E-25
5.34878E-01 5.66177E-25
5.39230E-01 5.52445E-25
5.43578E-01 5.39078E-25
5.47923E-01 5.26067E-25
5.52264E-01 5.13399E-25
5.56602E-01 5.01065E-25
5.60935E-01 4.89054E-25
5.65263E-01 4.77357E-25
5.69587E-01 4.65963E-25
5.73905E-01 4.54864E-25
5.78217E-01 4.44051E-25
5.82524E-01 4.33515E-25
5.86824E-01 4.23248E-25
5.91118E-01 4.13242E-25
5.95404E-01 4.03490E-25
5.99684E-01 3.93983E-25
6.03956E-01 3.84715E-25
6.08220E-01 3.75680E-25
6.12476E-01 3.66869E-25
6.16723E-01 3.58277E-25
6.20961E-01 3.49897E-25
6.25190E-01 3.41724E-25
6.29410E-01 3.33752E-25
6.33619E-01 3.25974E-25
6.37819E-01 3.18385E-25
6.42008E-01 3.10981E-25
6.46186E-01 3.03755E-25
6.50353E-01 2.96703E-25
6.54508E-01 2.89821E-25
6.58652E-01 2.83103E-25
6.62784E-01 2.76545E-25
6.66903E-01 2.70143E-25
6.71010E-01 2.63893E-25
6.75104E-01 2.57789E-25
6.79184E-01 2.51829E-25
6.83251E-01 2.46009E-25
6.87303E-01 2.40325E-25
6.91342E-01 2.34773E-25
6.95366E-01 2.29350E-25
6.99375E-01 2.24052E-25
7.03368E-01 2.18876E-25
7.07347E-01 2.13820E-25
7.11309E-01 2.08879E-25
7.15256E-01 2.04051E-25
7.19186E-01 1.99333E-25
7.23099E-01 1.94723E-25
7.26995E-01 1.90216E-25
7.30874E-01 1.85812E-25
7.34736E-01 1.81507E-25
7.38579E-01 1.77299E-25
7.42405E-01 1.73185E-25
7.46212E-01 1.69163E-25
7.50000E-01 1.65231E-25
7.53769E-01 1.61386E-25
7.57519E-01 1.57627E-25
7.61249E-01 1.53951E-25
7.64960E-01 1.50356E-25
7.68650E-01 1.46840E-25
7.72320E-01 1.43402E-25
7.75968E-01 1.40040E-25
7.79596E-01 1.36751E-25
7.83203E-01 1.33534E-25
7.86788E-01 1.30388E-25
7.90351E-01 1.27310E-25
7.93893E-01 1.24299E-25
7.97411E-01 1.21354E-25
8.00908E-01 1.18472E-25
8.04381E-01 1.15653E-25
8.07831E-01 1.12896E-25
8.11257E-01 1.10197E-25
8.14660E-01 1.07557E-25
8.18039E-01 1.04974E-25
8.21394E-01 1.02447E-25
8.24724E-01 9.99739E-26
8.28030E-01 9.75542E-26
8.31310E-01 9.51865E-26
8.34565E-01 9.28697E-26
8.37795E-01 9.06027E-26
8.40999E-01 8.83844E-26
8.44177E-01 8.62137E-26
8.47329E-01 8.40896E-26
8.50455E-01 8.20111E-26
8.53553E-01 7.99773E-26
8.56625E-01 7.79871E-26
8.59670E-01 7.60397E-26
8.62687E-01 7.41341E-26
8.65677E-01 7.22695E-26
8.68639E-01 7.04451E-26
8.71572E-01 6.86599E-26
8.74478E-01 6.69133E-26
8.77355E-01 6.52043E-26
8.80203E-01 6.35323E-26
8.83022E-01 6.18966E-26
8.85812E-01 6.02963E-26
8.88573E-01 5.87308E-26
8.91304E-01 5.71994E-26
8.94005E-01 5.57014E-26
8.96677E-01 5.42362E-26
8.99318E-01 5.28031E-26
9.01928E-01 5.14016E-26
9.04508E-01 5.00310E-26
9.07058E-01 4.86908E-26
9.09576E-01 4.73803E-26
9.12063E-01 4.60991E-26
9.14519E-01 4.48465E-26
9.16943E-01 4.36221E-26
9.19335E-01 4.24254E-26
9.21696E-01 4.12558E-26
9.24024E-01 4.01129E-26
9.26320E-01 3.89962E-26
9.28584E-01 3.79053E-26
9.30815E-01 3.68396E-26
9.33013E-01 3.57989E-26
9.35178E-01 3.47825E-26
9.37310E-01 3.37903E-26
9.39409E-01 3.28216E-26
9.41474E-01 3.18762E-26
9.43505E-01 3.09537E-26
9.45503E-01 3.00537E-26
9.47467E-01 2.91758E-26
9.49397E-01 2.83198E-26
9.51293E-01 2.74852E-26
9.53154E-01 2.66718E-26
9.54981E-01 2.58791E-26
9.56773E-01 2.51070E-26
9.58530E-01 2.43552E-26
9.60252E-01 2.36232E-26
9.61940E-01 2.29109E-26
9.63592E-01 2.22180E-26
9.65209E-01 2.15441E-26
9.66790E-01 2.08891E-26
9.68336E-01 2.02528E-26
9.69846E-01 1.96347E-26
9.71321E-01 1.90348E-26
9.72759E-01 1.84528E-26
9.74162E-01 1.78885E-26
9.75528E-01 1.73416E-26
9.76858E-01 1.68120E-26
9.78152E-01 1.62994E-26
9.79410E-01 1.58037E-26
9.80631E-01 1.53247E-26
9.81815E-01 1.48622E-26
9.82963E-01 1.44160E-26
9.84074E-01 1.39860E-26
9.85148E-01 1.35720E-26
9.86185E-01 1.31739E-26
9.87185E-01 1.27915E-26
9.88148E-01 1.24246E-26
9.89074E-01 1.20732E-26
9.89962E-01 1.17371E-26
9.90814E-01 1.14162E-26
9.91627E-01 1.11103E-26
9.92404E-01 1.08194E-26
9.93143E-01 1.05434E-26
9.93844E-01 1.02821E-26
9.94508E-01 1.00355E-26
9.95134E-01 9.80338E-27
9.95722E-01 9.58578E-27
9.96273E-01 9.38259E-27
9.96786E-01 9.19373E-27
9.97261E-01 9.01912E-27
9.97698E-01 8.85872E-27
9.98097E-01 8.71246E-27
9.98459E-01 8.58028E-27
9.98782E-01 8.46215E-27
9.99067E-01 8.35801E-27
9.99315E-01 8.26783E-27
9.99524E-01 8.19159E-27
9.99695E-01 8.12924E-27
9.99829E-01 8.08077E-27
9.99924E-01 8.04616E-27
9.99981E-01 8.02540E-27
1.00000E+00 8.01848E-27
