 #
 # Subroutine ELSEPA. Elastic scattering of electrons and positrons
 #                    by neutral atoms and positive ions
 #
 # Projectile: electron
 # Kinetic energy = 1.00000E+09 eV = 3.67493E+07 a.u.
 #
 # WARNING: High-energy factorization with free-atom DF screening.
 #          Absorption, polarization and exchange corrections are
 #          switched off.
 #          Phase shifts are calculated for the bare nucleus.
 #          Scattering amplitudes are not evaluated.
 #
 # Element: Sc,  Z =  21,  atomic weight = 4.49559E+01 g/mol
 #
 # Nuclear model: Fermi distribution
 #                Average radius = 3.80463E-13 cm
 #                Skin thickness = 5.46000E-14 cm
 #
 # Number of electrons = 21
 #
 # Total elastic cross section = 1.81948E-18 cm**2 = 6.49749E-02 a0**2
 # 1st transport cross section = 9.31765E-28 cm**2 = 3.32739E-11 a0**2
 # 2nd transport cross section = 2.79492E-27 cm**2 = 9.98085E-11 a0**2
 #
 #
 # Differential cross section:                       MU=(1-COS(THETA))/2
 #
 #  THETA        MU          DCS          DCS        Sherman      error
 #  (deg)                 (cm**2/sr)   (a0**2/sr)    function
 #----------------------------------------------------------------------
0.00000E+00 3.30506E-08
7.61557E-13 2.16266E-08
1.18994E-12 1.76790E-08
1.71346E-12 1.42272E-08
2.33225E-12 1.13882E-08
3.04617E-12 9.13717E-09
3.85530E-12 7.38771E-09
4.75964E-12 6.03815E-09
5.75917E-12 4.99516E-09
6.85391E-12 4.18280E-09
8.04379E-12 3.54164E-09
9.32893E-12 3.02823E-09
1.07092E-11 2.61117E-09
1.21847E-11 2.26758E-09
1.37554E-11 1.98085E-09
1.54213E-11 1.73847E-09
1.71823E-11 1.53187E-09
1.90386E-11 1.35435E-09
2.09900E-11 1.20081E-09
2.30367E-11 1.06666E-09
2.51785E-11 9.42236E-10
2.74156E-11 8.37257E-10
2.97478E-11 7.48157E-10
3.21752E-11 6.72101E-10
3.46979E-11 6.06821E-10
3.73157E-11 5.45347E-10
4.00286E-11 4.88894E-10
4.28368E-11 4.40114E-10
4.57402E-11 3.97776E-10
4.87388E-11 3.60871E-10
5.18325E-11 3.28288E-10
5.50215E-11 2.97157E-10
5.83057E-11 2.69831E-10
6.16850E-11 2.45759E-10
6.51595E-11 2.24483E-10
6.87293E-11 2.05617E-10
7.23943E-11 1.88330E-10
7.61544E-11 1.72629E-10
1.18991E-10 8.02643E-11
1.71347E-10 4.31704E-11
2.33223E-10 2.57475E-11
3.04617E-10 1.64529E-11
3.85531E-10 1.10188E-11
4.75965E-10 7.63532E-12
5.75917E-10 5.43469E-12
6.85389E-10 3.95480E-12
8.04380E-10 2.93621E-12
9.32891E-10 2.21999E-12
1.07092E-09 1.70633E-12
1.21847E-09 1.33136E-12
1.37554E-09 1.05318E-12
1.54213E-09 8.43670E-13
1.71823E-09 6.83719E-13
1.90386E-09 5.59973E-13
2.09900E-09 4.63058E-13
2.30367E-09 3.86299E-13
2.51785E-09 3.24832E-13
2.74156E-09 2.75262E-13
2.97478E-09 2.34792E-13
3.21752E-09 2.01569E-13
3.46978E-09 1.74031E-13
3.73156E-09 1.51072E-13
4.00286E-09 1.31794E-13
4.28368E-09 1.15505E-13
4.57402E-09 1.01675E-13
4.87388E-09 8.98494E-14
5.18326E-09 7.97132E-14
5.50215E-09 7.09550E-14
5.83057E-09 6.33830E-14
6.16850E-09 5.67847E-14
6.51596E-09 5.10317E-14
6.87293E-09 4.59848E-14
7.23942E-09 4.15493E-14
7.61544E-09 3.76352E-14
1.18991E-08 1.56880E-14
1.71347E-08 7.64263E-15
2.33223E-08 4.15009E-15
3.04617E-08 2.44158E-15
3.85531E-08 1.52781E-15
4.75965E-08 1.00392E-15
5.75917E-08 6.86401E-16
6.85389E-08 4.84997E-16
8.04380E-08 3.52305E-16
9.32891E-08 2.62029E-16
1.07092E-07 1.98895E-16
1.21847E-07 1.53677E-16
1.37554E-07 1.20606E-16
1.54213E-07 9.59708E-17
1.71823E-07 7.73153E-17
1.90386E-07 6.29800E-17
2.09900E-07 5.18180E-17
2.30367E-07 4.30227E-17
2.51785E-07 3.60166E-17
2.74156E-07 3.03803E-17
2.97478E-07 2.58046E-17
3.21752E-07 2.20587E-17
3.46978E-07 1.89686E-17
3.73156E-07 1.64011E-17
4.00286E-07 1.42536E-17
4.28368E-07 1.24464E-17
4.57402E-07 1.09168E-17
4.87388E-07 9.61503E-18
5.18325E-07 8.50168E-18
5.50215E-07 7.54491E-18
5.83057E-07 6.71902E-18
6.16850E-07 6.00311E-18
6.51596E-07 5.38006E-18
6.87293E-07 4.83579E-18
7.23942E-07 4.35863E-18
7.61543E-07 3.93891E-18
1.18991E-06 1.61360E-18
1.71347E-06 7.78254E-19
2.33223E-06 4.20128E-19
3.04617E-06 2.46297E-19
3.85531E-06 1.53778E-19
4.75964E-06 1.00904E-19
5.75916E-06 6.89254E-20
6.85388E-06 4.86707E-20
8.04378E-06 3.53396E-20
9.32888E-06 2.62763E-20
1.07092E-05 1.99413E-20
1.21846E-05 1.54057E-20
1.37553E-05 1.20895E-20
1.54212E-05 9.61958E-21
1.71822E-05 7.74951E-21
1.90385E-05 6.31243E-21
2.09899E-05 5.19409E-21
2.30365E-05 4.31277E-21
2.51783E-05 3.61062E-21
2.74153E-05 3.04567E-21
2.97475E-05 2.58699E-21
3.21749E-05 2.21152E-21
3.46974E-05 1.90179E-21
3.73152E-05 1.64448E-21
4.00281E-05 1.42928E-21
4.28362E-05 1.24818E-21
4.57395E-05 1.09488E-21
4.87380E-05 9.64404E-22
5.18317E-05 8.52797E-22
5.50205E-05 7.56875E-22
5.83045E-05 6.74070E-22
6.16838E-05 6.02289E-22
6.51582E-05 5.39820E-22
6.87277E-05 4.85250E-22
7.23925E-05 4.37409E-22
7.61524E-05 3.84387E-22
9.21439E-05 2.60936E-22
1.09658E-04 1.82980E-22
1.28695E-04 1.31851E-22
1.49255E-04 9.72191E-23
1.71338E-04 7.31148E-23
1.94942E-04 5.59349E-23
2.20070E-04 4.34361E-23
2.46720E-04 3.41768E-23
2.74892E-04 2.72062E-23
3.04586E-04 2.18834E-23
3.35803E-04 1.77662E-23
3.68542E-04 1.45448E-23
4.02802E-04 1.19978E-23
4.38585E-04 9.96478E-24
4.75889E-04 8.32798E-24
5.14715E-04 6.99966E-24
5.55063E-04 5.91387E-24
5.96931E-04 5.02035E-24
6.40321E-04 4.28052E-24
6.85233E-04 3.66444E-24
7.31665E-04 3.14870E-24
7.79618E-04 2.71484E-24
8.29092E-04 2.34818E-24
8.80086E-04 2.03701E-24
9.32601E-04 1.77189E-24
9.86636E-04 1.54515E-24
1.04219E-03 1.35058E-24
1.09927E-03 1.18307E-24
1.15786E-03 1.03843E-24
1.21797E-03 9.13170E-25
1.27961E-03 8.04415E-25
1.34276E-03 7.09754E-25
1.40743E-03 6.27166E-25
1.47362E-03 5.54955E-25
1.54133E-03 4.91688E-25
1.61056E-03 4.36149E-25
1.68131E-03 3.87307E-25
1.75357E-03 3.44281E-25
1.82735E-03 3.06318E-25
1.90265E-03 2.72773E-25
1.97947E-03 2.43090E-25
2.05780E-03 2.16791E-25
2.13765E-03 1.93461E-25
2.21902E-03 1.72741E-25
2.30190E-03 1.54320E-25
2.38630E-03 1.37927E-25
2.47222E-03 1.23325E-25
2.55965E-03 1.10307E-25
2.64859E-03 9.86923E-26
2.73905E-03 8.83225E-26
2.83103E-03 7.90578E-26
2.92452E-03 7.07755E-26
3.01952E-03 6.33674E-26
3.11604E-03 5.67379E-26
3.21407E-03 5.08025E-26
3.31362E-03 4.54867E-26
3.41468E-03 4.07240E-26
3.51725E-03 3.64557E-26
3.62133E-03 3.26296E-26
3.72692E-03 2.91991E-26
3.83403E-03 2.61229E-26
3.94265E-03 2.33642E-26
4.05278E-03 2.08900E-26
4.16442E-03 1.86709E-26
4.27757E-03 1.66807E-26
4.39223E-03 1.48959E-26
4.50840E-03 1.32954E-26
4.62608E-03 1.18606E-26
4.74527E-03 1.05744E-26
4.86597E-03 9.42186E-27
4.98817E-03 8.38926E-27
5.11188E-03 7.46446E-27
5.23711E-03 6.63653E-27
5.36383E-03 5.89562E-27
5.49207E-03 5.23290E-27
5.62181E-03 4.64043E-27
5.75306E-03 4.11104E-27
5.88581E-03 3.63832E-27
6.02007E-03 3.21648E-27
6.15583E-03 2.84031E-27
6.29310E-03 2.50512E-27
6.43187E-03 2.20669E-27
6.57214E-03 1.94124E-27
6.71392E-03 1.70533E-27
6.85720E-03 1.49589E-27
7.00198E-03 1.31016E-27
7.14827E-03 1.14563E-27
7.29605E-03 1.00007E-27
7.44534E-03 8.71464E-28
7.59612E-03 7.57989E-28
7.97965E-03 5.30207E-28
8.37255E-03 3.65970E-28
8.77480E-03 2.49008E-28
9.18641E-03 1.66938E-28
9.60736E-03 1.10376E-28
1.00376E-02 7.22453E-29
1.04773E-02 4.72497E-29
1.09262E-02 3.14526E-29
1.13844E-02 2.19572E-29
1.18520E-02 1.66566E-29
1.23288E-02 1.40400E-29
1.28150E-02 1.30439E-29
1.33104E-02 1.29369E-29
1.38150E-02 1.32314E-29
1.43290E-02 1.36167E-29
1.48521E-02 1.39081E-29
1.53845E-02 1.40086E-29
1.59262E-02 1.38803E-29
1.64770E-02 1.35238E-29
1.70371E-02 1.29629E-29
1.76063E-02 1.22340E-29
1.81848E-02 1.13785E-29
1.87724E-02 1.04379E-29
1.93692E-02 9.45088E-30
1.99751E-02 8.45128E-30
2.05901E-02 7.46738E-30
2.12143E-02 6.52162E-30
2.18476E-02 5.63089E-30
2.24900E-02 4.80695E-30
2.31415E-02 4.05710E-30
2.38021E-02 3.38489E-30
2.44717E-02 2.79076E-30
2.51504E-02 2.27277E-30
2.58382E-02 1.82716E-30
2.65349E-02 1.44889E-30
2.72407E-02 1.13210E-30
2.79555E-02 8.70498E-31
2.86793E-02 6.57638E-31
2.94120E-02 4.87178E-31
3.01537E-02 3.53050E-31
3.09043E-02 2.49585E-31
3.16639E-02 1.71600E-31
3.24324E-02 1.14439E-31
3.32098E-02 7.39919E-32
3.39961E-02 4.66942E-32
3.47912E-02 2.95011E-32
3.55952E-02 1.98566E-32
3.64081E-02 1.56517E-32
3.72297E-02 1.51795E-32
3.80602E-02 1.70872E-32
3.88995E-02 2.03289E-32
3.97476E-02 2.41203E-32
4.06044E-02 2.78953E-32
4.14700E-02 3.12675E-32
4.23443E-02 3.39942E-32
4.32273E-02 3.59457E-32
4.41190E-02 3.70782E-32
4.50194E-02 3.74109E-32
4.59284E-02 3.70070E-32
4.68461E-02 3.59577E-32
4.87074E-02 3.23584E-32
5.06030E-02 2.75018E-32
5.25328E-02 2.21874E-32
5.44967E-02 1.70291E-32
5.64946E-02 1.24310E-32
5.85262E-02 8.60686E-33
6.05914E-02 5.61942E-33
6.26901E-02 3.42548E-33
6.48222E-02 1.91835E-33
6.69873E-02 9.62337E-34
6.91854E-02 4.18020E-34
7.14163E-02 1.58610E-34
7.36799E-02 7.87722E-35
7.59760E-02 9.77045E-35
7.83043E-02 1.58303E-34
8.06647E-02 2.23992E-34
8.30571E-02 2.74477E-34
8.54812E-02 3.01331E-34
8.79369E-02 3.03974E-34
9.04240E-02 2.86356E-34
9.29422E-02 2.54451E-34
9.54915E-02 2.14534E-34
9.80716E-02 1.72128E-34
1.00682E-01 1.31485E-34
1.03323E-01 9.54394E-35
1.05995E-01 6.55206E-35
1.08696E-01 4.21891E-35
1.11427E-01 2.51295E-35
1.14188E-01 1.35370E-35
1.16978E-01 6.36367E-36
1.19797E-01 2.50802E-36
1.22645E-01 9.46801E-37
1.25522E-01 8.12229E-37
1.28428E-01 1.42595E-36
1.31361E-01 2.30075E-36
1.34323E-01 3.12136E-36
1.37313E-01 3.71375E-36
1.40330E-01 4.01042E-36
1.43375E-01 4.01664E-36
1.46447E-01 3.78131E-36
1.49545E-01 3.37363E-36
1.52671E-01 2.86619E-36
1.55823E-01 2.32396E-36
1.59001E-01 1.79844E-36
1.62205E-01 1.32549E-36
1.65435E-01 9.26009E-37
1.68690E-01 6.08182E-37
1.71970E-01 3.70451E-37
1.75276E-01 2.04662E-37
1.78606E-01 9.88934E-38
1.81961E-01 3.97848E-38
1.85340E-01 1.42613E-38
1.88743E-01 1.06915E-38
1.92169E-01 1.95255E-38
1.95619E-01 3.35262E-38
1.99092E-01 4.76948E-38
2.02589E-01 5.89937E-38
2.06107E-01 6.59696E-38
2.09649E-01 6.83209E-38
2.13212E-01 6.65147E-38
2.16797E-01 6.14354E-38
2.20404E-01 5.41343E-38
2.24032E-01 4.56412E-38
2.27680E-01 3.68482E-38
2.31350E-01 2.84567E-38
2.35040E-01 2.09541E-38
2.38751E-01 1.46289E-38
2.42481E-01 9.59282E-39
2.46231E-01 1.00000E-45
2.50000E-01 1.00000E-45
2.53788E-01 1.00000E-45
2.57595E-01 1.00000E-45
2.61421E-01 1.00000E-45
2.65264E-01 1.00000E-45
2.69126E-01 1.00000E-45
2.73005E-01 1.00000E-45
2.76901E-01 1.00000E-45
2.80814E-01 1.00000E-45
2.84744E-01 1.00000E-45
2.88691E-01 1.00000E-45
2.92653E-01 1.00000E-45
2.96632E-01 1.00000E-45
3.00625E-01 1.00000E-45
3.04634E-01 1.00000E-45
3.08658E-01 1.00000E-45
3.12697E-01 1.00000E-45
3.16749E-01 1.00000E-45
3.20816E-01 1.00000E-45
3.24896E-01 1.00000E-45
3.28990E-01 1.00000E-45
3.33097E-01 1.00000E-45
3.37216E-01 1.00000E-45
3.41348E-01 1.00000E-45
3.45492E-01 1.00000E-45
3.49647E-01 1.00000E-45
3.53814E-01 1.00000E-45
3.57992E-01 1.00000E-45
3.62181E-01 1.00000E-45
3.66381E-01 1.00000E-45
3.70590E-01 1.00000E-45
3.74810E-01 1.00000E-45
3.79039E-01 1.00000E-45
3.83277E-01 1.00000E-45
3.87524E-01 1.00000E-45
3.91780E-01 1.00000E-45
3.96044E-01 1.00000E-45
4.00316E-01 1.00000E-45
4.04596E-01 1.00000E-45
4.08882E-01 1.00000E-45
4.13176E-01 1.00000E-45
4.17476E-01 1.00000E-45
4.21783E-01 1.00000E-45
4.26095E-01 1.00000E-45
4.30413E-01 1.00000E-45
4.34737E-01 1.00000E-45
4.39065E-01 1.00000E-45
4.43398E-01 1.00000E-45
4.47736E-01 1.00000E-45
4.52077E-01 1.00000E-45
4.56422E-01 1.00000E-45
4.60770E-01 1.00000E-45
4.65122E-01 1.00000E-45
4.69476E-01 1.00000E-45
4.73832E-01 1.00000E-45
4.78190E-01 1.00000E-45
4.82550E-01 1.00000E-45
4.86912E-01 1.00000E-45
4.91274E-01 1.00000E-45
4.95637E-01 1.00000E-45
5.00000E-01 1.00000E-45
5.04363E-01 1.00000E-45
5.08726E-01 1.00000E-45
5.13088E-01 1.00000E-45
5.17450E-01 1.00000E-45
5.21810E-01 1.00000E-45
5.26168E-01 1.00000E-45
5.30524E-01 1.00000E-45
5.34878E-01 1.00000E-45
5.39230E-01 1.00000E-45
5.43578E-01 1.00000E-45
5.47923E-01 1.00000E-45
5.52264E-01 1.00000E-45
5.56602E-01 1.00000E-45
5.60935E-01 1.00000E-45
5.65263E-01 1.00000E-45
5.69587E-01 1.00000E-45
5.73905E-01 1.00000E-45
5.78217E-01 1.00000E-45
5.82524E-01 1.00000E-45
5.86824E-01 1.00000E-45
5.91118E-01 1.00000E-45
5.95404E-01 1.00000E-45
5.99684E-01 1.00000E-45
6.03956E-01 1.00000E-45
6.08220E-01 1.00000E-45
6.12476E-01 1.00000E-45
6.16723E-01 1.00000E-45
6.20961E-01 1.00000E-45
6.25190E-01 1.00000E-45
6.29410E-01 1.00000E-45
6.33619E-01 1.00000E-45
6.37819E-01 1.00000E-45
6.42008E-01 1.00000E-45
6.46186E-01 1.00000E-45
6.50353E-01 1.00000E-45
6.54508E-01 1.00000E-45
6.58652E-01 1.00000E-45
6.62784E-01 1.00000E-45
6.66903E-01 1.00000E-45
6.71010E-01 1.00000E-45
6.75104E-01 1.00000E-45
6.79184E-01 1.00000E-45
6.83251E-01 1.00000E-45
6.87303E-01 1.00000E-45
6.91342E-01 1.00000E-45
6.95366E-01 1.00000E-45
6.99375E-01 1.00000E-45
7.03368E-01 1.00000E-45
7.07347E-01 1.00000E-45
7.11309E-01 1.00000E-45
7.15256E-01 1.00000E-45
7.19186E-01 1.00000E-45
7.23099E-01 1.00000E-45
7.26995E-01 1.00000E-45
7.30874E-01 1.00000E-45
7.34736E-01 1.00000E-45
7.38579E-01 1.00000E-45
7.42405E-01 1.00000E-45
7.46212E-01 1.00000E-45
7.50000E-01 1.00000E-45
7.53769E-01 1.00000E-45
7.57519E-01 1.00000E-45
7.61249E-01 1.00000E-45
7.64960E-01 1.00000E-45
7.68650E-01 1.00000E-45
7.72320E-01 1.00000E-45
7.75968E-01 1.00000E-45
7.79596E-01 1.00000E-45
7.83203E-01 1.00000E-45
7.86788E-01 1.00000E-45
7.90351E-01 1.00000E-45
7.93893E-01 1.00000E-45
7.97411E-01 1.00000E-45
8.00908E-01 1.00000E-45
8.04381E-01 1.00000E-45
8.07831E-01 1.00000E-45
8.11257E-01 1.00000E-45
8.14660E-01 1.00000E-45
8.18039E-01 1.00000E-45
8.21394E-01 1.00000E-45
8.24724E-01 1.00000E-45
8.28030E-01 1.00000E-45
8.31310E-01 1.00000E-45
8.34565E-01 1.00000E-45
8.37795E-01 1.00000E-45
8.40999E-01 1.00000E-45
8.44177E-01 1.00000E-45
8.47329E-01 1.00000E-45
8.50455E-01 1.00000E-45
8.53553E-01 1.00000E-45
8.56625E-01 1.00000E-45
8.59670E-01 1.00000E-45
8.62687E-01 1.00000E-45
8.65677E-01 1.00000E-45
8.68639E-01 1.00000E-45
8.71572E-01 1.00000E-45
8.74478E-01 1.00000E-45
8.77355E-01 1.00000E-45
8.80203E-01 1.00000E-45
8.83022E-01 1.00000E-45
8.85812E-01 1.00000E-45
8.88573E-01 1.00000E-45
8.91304E-01 1.00000E-45
8.94005E-01 1.00000E-45
8.96677E-01 1.00000E-45
8.99318E-01 1.00000E-45
9.01928E-01 1.00000E-45
9.04508E-01 1.00000E-45
9.07058E-01 1.00000E-45
9.09576E-01 1.00000E-45
9.12063E-01 1.00000E-45
9.14519E-01 1.00000E-45
9.16943E-01 1.00000E-45
9.19335E-01 1.00000E-45
9.21696E-01 1.00000E-45
9.24024E-01 1.00000E-45
9.26320E-01 1.00000E-45
9.28584E-01 1.00000E-45
9.30815E-01 1.00000E-45
9.33013E-01 1.00000E-45
9.35178E-01 1.00000E-45
9.37310E-01 1.00000E-45
9.39409E-01 1.00000E-45
9.41474E-01 1.00000E-45
9.43505E-01 1.00000E-45
9.45503E-01 1.00000E-45
9.47467E-01 1.00000E-45
9.49397E-01 1.00000E-45
9.51293E-01 1.00000E-45
9.53154E-01 1.00000E-45
9.54981E-01 1.00000E-45
9.56773E-01 1.00000E-45
9.58530E-01 1.00000E-45
9.60252E-01 1.00000E-45
9.61940E-01 1.00000E-45
9.63592E-01 1.00000E-45
9.65209E-01 1.00000E-45
9.66790E-01 1.00000E-45
9.68336E-01 1.00000E-45
9.69846E-01 1.00000E-45
9.71321E-01 1.00000E-45
9.72759E-01 1.00000E-45
9.74162E-01 1.00000E-45
9.75528E-01 1.00000E-45
9.76858E-01 1.00000E-45
9.78152E-01 1.00000E-45
9.79410E-01 1.00000E-45
9.80631E-01 1.00000E-45
9.81815E-01 1.00000E-45
9.82963E-01 1.00000E-45
9.84074E-01 1.00000E-45
9.85148E-01 1.00000E-45
9.86185E-01 1.00000E-45
9.87185E-01 1.00000E-45
9.88148E-01 1.00000E-45
9.89074E-01 1.00000E-45
9.89962E-01 1.00000E-45
9.90814E-01 1.00000E-45
9.91627E-01 1.00000E-45
9.92404E-01 1.00000E-45
9.93143E-01 1.00000E-45
9.93844E-01 1.00000E-45
9.94508E-01 1.00000E-45
9.95134E-01 1.00000E-45
9.95722E-01 1.00000E-45
9.96273E-01 1.00000E-45
9.96786E-01 1.00000E-45
9.97261E-01 1.00000E-45
9.97698E-01 1.00000E-45
9.98097E-01 1.00000E-45
9.98459E-01 1.00000E-45
9.98782E-01 1.00000E-45
9.99067E-01 1.00000E-45
9.99315E-01 1.00000E-45
9.99524E-01 1.00000E-45
9.99695E-01 1.00000E-45
9.99829E-01 1.00000E-45
9.99924E-01 1.00000E-45
9.99981E-01 1.00000E-45
1.00000E+00 1.00000E-45
