 #
 # Subroutine ELSEPA. Elastic scattering of electrons and positrons
 #                    by neutral atoms and positive ions
 #
 # Projectile: electron
 # Kinetic energy = 2.50000E+08 eV = 9.18733E+06 a.u.
 #
 # WARNING: High-energy factorization with free-atom DF screening.
 #          Absorption, polarization and exchange corrections are
 #          switched off.
 #          Phase shifts are calculated for the bare nucleus.
 #          Scattering amplitudes are not evaluated.
 #
 # Element: Sc,  Z =  21,  atomic weight = 4.49559E+01 g/mol
 #
 # Nuclear model: Fermi distribution
 #                Average radius = 3.80463E-13 cm
 #                Skin thickness = 5.46000E-14 cm
 #
 # Number of electrons = 21
 #
 # Total elastic cross section = 1.86676E-18 cm**2 = 6.66632E-02 a0**2
 # 1st transport cross section = 1.48489E-26 cm**2 = 5.30263E-10 a0**2
 # 2nd transport cross section = 4.44563E-26 cm**2 = 1.58756E-09 a0**2
 #
 #
 # Differential cross section:                       MU=(1-COS(THETA))/2
 #
 #  THETA        MU          DCS          DCS        Sherman      error
 #  (deg)                 (cm**2/sr)   (a0**2/sr)    function
 #----------------------------------------------------------------------
0.00000E+00 2.07200E-09
7.61557E-13 2.01180E-09
1.18994E-12 1.97909E-09
1.71346E-12 1.94018E-09
2.33225E-12 1.89564E-09
3.04617E-12 1.84614E-09
3.85530E-12 1.79239E-09
4.75964E-12 1.73508E-09
5.75917E-12 1.67477E-09
6.85391E-12 1.61251E-09
8.04379E-12 1.54853E-09
9.32893E-12 1.48394E-09
1.07092E-11 1.41888E-09
1.21847E-11 1.35425E-09
1.37554E-11 1.29025E-09
1.54213E-11 1.22744E-09
1.71823E-11 1.16618E-09
1.90386E-11 1.10656E-09
2.09900E-11 1.04918E-09
2.30367E-11 9.93678E-10
2.51785E-11 9.40894E-10
2.74156E-11 8.90096E-10
2.97478E-11 8.42145E-10
3.21752E-11 7.96325E-10
3.46979E-11 7.53160E-10
3.73157E-11 7.12244E-10
4.00286E-11 6.73712E-10
4.28368E-11 6.37450E-10
4.57402E-11 6.03268E-10
4.87388E-11 5.71303E-10
5.18325E-11 5.41116E-10
5.50215E-11 5.13034E-10
5.83057E-11 4.86478E-10
6.16850E-11 4.61830E-10
6.51595E-11 4.38561E-10
6.87293E-11 4.16879E-10
7.23943E-11 3.96491E-10
7.61544E-11 3.77415E-10
1.18991E-10 2.40213E-10
1.71347E-10 1.63157E-10
2.33223E-10 1.15872E-10
3.04617E-10 8.45916E-11
3.85531E-10 6.25351E-11
4.75965E-10 4.67071E-11
5.75917E-10 3.59954E-11
6.85389E-10 2.74616E-11
8.04380E-10 2.14778E-11
9.32891E-10 1.68306E-11
1.07092E-09 1.33968E-11
1.21847E-09 1.07658E-11
1.37554E-09 8.74952E-12
1.54213E-09 7.19143E-12
1.71823E-09 5.96849E-12
1.90386E-09 5.00554E-12
2.09900E-09 4.23427E-12
2.30367E-09 3.61450E-12
2.51785E-09 3.10752E-12
2.74156E-09 2.69264E-12
2.97478E-09 2.34628E-12
3.21752E-09 2.05789E-12
3.46978E-09 1.81328E-12
3.73156E-09 1.60601E-12
4.00286E-09 1.42817E-12
4.28368E-09 1.27486E-12
4.57402E-09 1.14233E-12
4.87388E-09 1.02619E-12
5.18326E-09 9.25345E-13
5.50215E-09 8.35645E-13
5.83057E-09 7.57442E-13
6.16850E-09 6.87168E-13
6.51596E-09 6.25394E-13
6.87293E-09 5.69857E-13
7.23942E-09 5.20476E-13
7.61544E-09 4.76093E-13
1.18991E-08 2.11924E-13
1.71347E-08 1.06352E-13
2.33223E-08 5.86593E-14
3.04617E-08 3.48992E-14
3.85531E-08 2.20548E-14
4.75965E-08 1.46332E-14
5.75917E-08 1.00989E-14
6.85389E-08 7.19891E-15
8.04380E-08 5.27219E-15
9.32891E-08 3.95042E-15
1.07092E-07 3.01826E-15
1.21847E-07 2.34561E-15
1.37554E-07 1.85029E-15
1.54213E-07 1.47897E-15
1.71823E-07 1.19618E-15
1.90386E-07 9.77753E-16
2.09900E-07 8.06893E-16
2.30367E-07 6.71675E-16
2.51785E-07 5.63572E-16
2.74156E-07 4.76323E-16
2.97478E-07 4.05290E-16
3.21752E-07 3.46992E-16
3.46978E-07 2.98788E-16
3.73156E-07 2.58656E-16
4.00286E-07 2.25025E-16
4.28368E-07 1.96677E-16
4.57402E-07 1.72648E-16
4.87388E-07 1.52174E-16
5.18325E-07 1.34642E-16
5.50215E-07 1.19560E-16
5.83057E-07 1.06529E-16
6.16850E-07 9.52238E-17
6.51596E-07 8.53770E-17
6.87293E-07 7.67694E-17
7.23942E-07 6.92185E-17
7.61543E-07 6.25727E-17
1.18991E-06 2.56840E-17
1.71347E-06 1.23985E-17
2.33223E-06 6.69611E-18
3.04617E-06 3.92653E-18
3.85531E-06 2.45194E-18
4.75964E-06 1.60904E-18
5.75916E-06 1.09918E-18
6.85388E-06 7.76205E-19
8.04378E-06 5.63620E-19
9.32888E-06 4.19084E-19
1.07092E-05 3.18053E-19
1.21846E-05 2.45717E-19
1.37553E-05 1.92827E-19
1.54212E-05 1.53433E-19
1.71822E-05 1.23607E-19
1.90385E-05 1.00686E-19
2.09899E-05 8.28482E-20
2.30365E-05 6.87911E-20
2.51783E-05 5.75917E-20
2.74153E-05 4.85805E-20
2.97475E-05 4.12645E-20
3.21749E-05 3.52755E-20
3.46974E-05 3.03352E-20
3.73152E-05 2.62309E-20
4.00281E-05 2.27983E-20
4.28362E-05 1.99096E-20
4.57395E-05 1.74643E-20
4.87380E-05 1.53832E-20
5.18317E-05 1.36030E-20
5.50205E-05 1.20729E-20
5.83045E-05 1.07521E-20
6.16838E-05 9.60715E-21
6.51582E-05 8.61072E-21
6.87277E-05 7.74027E-21
7.23925E-05 6.97715E-21
7.61524E-05 6.29795E-21
9.21439E-05 4.30188E-21
1.09658E-04 3.03745E-21
1.28695E-04 2.20525E-21
1.49255E-04 1.63940E-21
1.71338E-04 1.24391E-21
1.94942E-04 9.60742E-22
2.20070E-04 7.53711E-22
2.46720E-04 5.99524E-22
2.74892E-04 4.82787E-22
3.04586E-04 3.93103E-22
3.35803E-04 3.23283E-22
3.68542E-04 2.68278E-22
4.02802E-04 2.24471E-22
4.38585E-04 1.89234E-22
4.75889E-04 1.60635E-22
5.14715E-04 1.37227E-22
5.55063E-04 1.17921E-22
5.96931E-04 1.01884E-22
6.40321E-04 8.84750E-23
6.85233E-04 7.71933E-23
7.31665E-04 6.76470E-23
7.79618E-04 5.95260E-23
8.29092E-04 5.25824E-23
8.80086E-04 4.66176E-23
9.32601E-04 4.14707E-23
9.86636E-04 3.70110E-23
1.04219E-03 3.31315E-23
1.09927E-03 2.97440E-23
1.15786E-03 2.67757E-23
1.21797E-03 2.41659E-23
1.27961E-03 2.18641E-23
1.34276E-03 1.98277E-23
1.40743E-03 1.80209E-23
1.47362E-03 1.64135E-23
1.54133E-03 1.49796E-23
1.61056E-03 1.36974E-23
1.68131E-03 1.25481E-23
1.75357E-03 1.15154E-23
1.82735E-03 1.05856E-23
1.90265E-03 9.74664E-24
1.97947E-03 8.98811E-24
2.05780E-03 8.30096E-24
2.13765E-03 7.67733E-24
2.21902E-03 7.11033E-24
2.30190E-03 6.59392E-24
2.38630E-03 6.12282E-24
2.47222E-03 5.69235E-24
2.55965E-03 5.29842E-24
2.64859E-03 4.93737E-24
2.73905E-03 4.60600E-24
2.83103E-03 4.30143E-24
2.92452E-03 4.02113E-24
3.01952E-03 3.76283E-24
3.11604E-03 3.52450E-24
3.21407E-03 3.30433E-24
3.31362E-03 3.10070E-24
3.41468E-03 2.91216E-24
3.51725E-03 2.73738E-24
3.62133E-03 2.57519E-24
3.72692E-03 2.42454E-24
3.83403E-03 2.28445E-24
3.94265E-03 2.15406E-24
4.05278E-03 2.03258E-24
4.16442E-03 1.91930E-24
4.27757E-03 1.81357E-24
4.39223E-03 1.71480E-24
4.50840E-03 1.62245E-24
4.62608E-03 1.53604E-24
4.74527E-03 1.45512E-24
4.86597E-03 1.37927E-24
4.98817E-03 1.30814E-24
5.11188E-03 1.24137E-24
5.23711E-03 1.17865E-24
5.36383E-03 1.11970E-24
5.49207E-03 1.06425E-24
5.62181E-03 1.01205E-24
5.75306E-03 9.62888E-25
5.88581E-03 9.16555E-25
6.02007E-03 8.72859E-25
6.15583E-03 8.31626E-25
6.29310E-03 7.92694E-25
6.43187E-03 7.55914E-25
6.57214E-03 7.21145E-25
6.71392E-03 6.88261E-25
6.85720E-03 6.57142E-25
7.00198E-03 6.27677E-25
7.14827E-03 5.99765E-25
7.29605E-03 5.73310E-25
7.44534E-03 5.48224E-25
7.59612E-03 5.24423E-25
7.97965E-03 4.70060E-25
8.37255E-03 4.22208E-25
8.77480E-03 3.79974E-25
9.18641E-03 3.42600E-25
9.60736E-03 3.09448E-25
1.00376E-02 2.79972E-25
1.04773E-02 2.53705E-25
1.09262E-02 2.30249E-25
1.13844E-02 2.09261E-25
1.18520E-02 1.90445E-25
1.23288E-02 1.73546E-25
1.28150E-02 1.58341E-25
1.33104E-02 1.44637E-25
1.38150E-02 1.32268E-25
1.43290E-02 1.21085E-25
1.48521E-02 1.10960E-25
1.53845E-02 1.01780E-25
1.59262E-02 9.34451E-26
1.64770E-02 8.58687E-26
1.70371E-02 7.89727E-26
1.76063E-02 7.26886E-26
1.81848E-02 6.69557E-26
1.87724E-02 6.17198E-26
1.93692E-02 5.69329E-26
1.99751E-02 5.25520E-26
2.05901E-02 4.85389E-26
2.12143E-02 4.48592E-26
2.18476E-02 4.14823E-26
2.24900E-02 3.83806E-26
2.31415E-02 3.55294E-26
2.38021E-02 3.29062E-26
2.44717E-02 3.04912E-26
2.51504E-02 2.82661E-26
2.58382E-02 2.62145E-26
2.65349E-02 2.43217E-26
2.72407E-02 2.25743E-26
2.79555E-02 2.09601E-26
2.86793E-02 1.94681E-26
2.94120E-02 1.80881E-26
3.01537E-02 1.68112E-26
3.09043E-02 1.56290E-26
3.16639E-02 1.45340E-26
3.24324E-02 1.35191E-26
3.32098E-02 1.25782E-26
3.39961E-02 1.17054E-26
3.47912E-02 1.08955E-26
3.55952E-02 1.01437E-26
3.64081E-02 9.44542E-27
3.72297E-02 8.79674E-27
3.80602E-02 8.19388E-27
3.88995E-02 7.63343E-27
3.97476E-02 7.11223E-27
4.06044E-02 6.62740E-27
4.14700E-02 6.17627E-27
4.23443E-02 5.75638E-27
4.32273E-02 5.36546E-27
4.41190E-02 5.00144E-27
4.50194E-02 4.66239E-27
4.59284E-02 4.34652E-27
4.68461E-02 4.05219E-27
4.87074E-02 3.52219E-27
5.06030E-02 3.06155E-27
5.25328E-02 2.66095E-27
5.44967E-02 2.31241E-27
5.64946E-02 2.00904E-27
5.85262E-02 1.74491E-27
6.05914E-02 1.51491E-27
6.26901E-02 1.31460E-27
6.48222E-02 1.14013E-27
6.69873E-02 9.88193E-28
6.91854E-02 8.55887E-28
7.14163E-02 7.40701E-28
7.36799E-02 6.40451E-28
7.59760E-02 5.53233E-28
7.83043E-02 4.77388E-28
8.06647E-02 4.11469E-28
8.30571E-02 3.54215E-28
8.54812E-02 3.04520E-28
8.79369E-02 2.61423E-28
9.04240E-02 2.24081E-28
9.29422E-02 1.91758E-28
9.54915E-02 1.63810E-28
9.80716E-02 1.39673E-28
1.00682E-01 1.18856E-28
1.03323E-01 1.00927E-28
1.05995E-01 8.55100E-29
1.08696E-01 7.22748E-29
1.11427E-01 6.09335E-29
1.14188E-01 5.12344E-29
1.16978E-01 4.29573E-29
1.19797E-01 3.59102E-29
1.22645E-01 2.99255E-29
1.25522E-01 2.48570E-29
1.28428E-01 2.05772E-29
1.31361E-01 1.69751E-29
1.34323E-01 1.39544E-29
1.37313E-01 1.14310E-29
1.40330E-01 9.33236E-30
1.43375E-01 7.59523E-30
1.46447E-01 6.16504E-30
1.49545E-01 4.99461E-30
1.52671E-01 4.04324E-30
1.55823E-01 3.27586E-30
1.59001E-01 2.66237E-30
1.62205E-01 2.17693E-30
1.65435E-01 1.79747E-30
1.68690E-01 1.50517E-30
1.71970E-01 1.28400E-30
1.75276E-01 1.12042E-30
1.78606E-01 1.00297E-30
1.81961E-01 9.22038E-31
1.85340E-01 8.69573E-31
1.88743E-01 8.38885E-31
1.92169E-01 8.24440E-31
1.95619E-01 8.21701E-31
1.99092E-01 8.26973E-31
2.02589E-01 8.37282E-31
2.06107E-01 8.50264E-31
2.09649E-01 8.64066E-31
2.13212E-01 8.77265E-31
2.16797E-01 8.88799E-31
2.20404E-01 8.97900E-31
2.24032E-01 9.04048E-31
2.27680E-01 9.06920E-31
2.31350E-01 9.06355E-31
2.35040E-01 9.02320E-31
2.38751E-01 8.94881E-31
2.42481E-01 8.84182E-31
2.46231E-01 8.70424E-31
2.50000E-01 8.53849E-31
2.53788E-01 8.34725E-31
2.57595E-01 8.13339E-31
2.61421E-01 7.89982E-31
2.65264E-01 7.64948E-31
2.69126E-01 7.38523E-31
2.73005E-01 7.10985E-31
2.76901E-01 6.82596E-31
2.80814E-01 6.53604E-31
2.84744E-01 6.24240E-31
2.88691E-01 5.94714E-31
2.92653E-01 5.65219E-31
2.96632E-01 5.35928E-31
3.00625E-01 5.06994E-31
3.04634E-01 4.78554E-31
3.08658E-01 4.50726E-31
3.12697E-01 4.23609E-31
3.16749E-01 3.97290E-31
3.20816E-01 3.71838E-31
3.24896E-01 3.47309E-31
3.28990E-01 3.23747E-31
3.33097E-01 3.01183E-31
3.37216E-01 2.79640E-31
3.41348E-01 2.59129E-31
3.45492E-01 2.39653E-31
3.49647E-01 2.21209E-31
3.53814E-01 2.03786E-31
3.57992E-01 1.87368E-31
3.62181E-01 1.71934E-31
3.66381E-01 1.57459E-31
3.70590E-01 1.43915E-31
3.74810E-01 1.31269E-31
3.79039E-01 1.19490E-31
3.83277E-01 1.08541E-31
3.87524E-01 9.83860E-32
3.91780E-01 8.89883E-32
3.96044E-01 8.03102E-32
4.00316E-01 7.23140E-32
4.04596E-01 6.49622E-32
4.08882E-01 5.82178E-32
4.13176E-01 5.20445E-32
4.17476E-01 4.64067E-32
4.21783E-01 4.12698E-32
4.26095E-01 3.66004E-32
4.30413E-01 3.23662E-32
4.34737E-01 2.85363E-32
4.39065E-01 2.50809E-32
4.43398E-01 2.19719E-32
4.47736E-01 1.91822E-32
4.52077E-01 1.66865E-32
4.56422E-01 1.44605E-32
4.60770E-01 1.24816E-32
4.65122E-01 1.07285E-32
4.69476E-01 9.18102E-33
4.73832E-01 7.82053E-33
4.78190E-01 6.62955E-33
4.82550E-01 5.59182E-33
4.86912E-01 4.69225E-33
4.91274E-01 3.91687E-33
4.95637E-01 3.25278E-33
5.00000E-01 2.68808E-33
5.04363E-01 2.21184E-33
5.08726E-01 1.81405E-33
5.13088E-01 1.48552E-33
5.17450E-01 1.21791E-33
5.21810E-01 1.00360E-33
5.26168E-01 8.35676E-34
5.30524E-01 7.07903E-34
5.34878E-01 6.14642E-34
5.39230E-01 5.50822E-34
5.43578E-01 5.11899E-34
5.47923E-01 4.93813E-34
5.52264E-01 4.92951E-34
5.56602E-01 5.06106E-34
5.60935E-01 5.30449E-34
5.65263E-01 5.63496E-34
5.69587E-01 6.03072E-34
5.73905E-01 6.47288E-34
5.78217E-01 6.94513E-34
5.82524E-01 7.43346E-34
5.86824E-01 7.92598E-34
5.91118E-01 8.41268E-34
5.95404E-01 8.88524E-34
5.99684E-01 9.33681E-34
6.03956E-01 9.76192E-34
6.08220E-01 1.01562E-33
6.12476E-01 1.05165E-33
6.16723E-01 1.08403E-33
6.20961E-01 1.11262E-33
6.25190E-01 1.13731E-33
6.29410E-01 1.15809E-33
6.33619E-01 1.17497E-33
6.37819E-01 1.18801E-33
6.42008E-01 1.19732E-33
6.46186E-01 1.20301E-33
6.50353E-01 1.20524E-33
6.54508E-01 1.20419E-33
6.58652E-01 1.20002E-33
6.62784E-01 1.19293E-33
6.66903E-01 1.18313E-33
6.71010E-01 1.17081E-33
6.75104E-01 1.15618E-33
6.79184E-01 1.13945E-33
6.83251E-01 1.12081E-33
6.87303E-01 1.10046E-33
6.91342E-01 1.07860E-33
6.95366E-01 1.05541E-33
6.99375E-01 1.03106E-33
7.03368E-01 1.00573E-33
7.07347E-01 9.79576E-34
7.11309E-01 9.52751E-34
7.15256E-01 9.25397E-34
7.19186E-01 8.97650E-34
7.23099E-01 8.69633E-34
7.26995E-01 8.41462E-34
7.30874E-01 8.13245E-34
7.34736E-01 7.85079E-34
7.38579E-01 7.57053E-34
7.42405E-01 7.29250E-34
7.46212E-01 7.01742E-34
7.50000E-01 6.74596E-34
7.53769E-01 6.47870E-34
7.57519E-01 6.21616E-34
7.61249E-01 5.95878E-34
7.64960E-01 5.70698E-34
7.68650E-01 5.46107E-34
7.72320E-01 5.22135E-34
7.75968E-01 4.98805E-34
7.79596E-01 4.76136E-34
7.83203E-01 4.54141E-34
7.86788E-01 4.32832E-34
7.90351E-01 4.12215E-34
7.93893E-01 3.92295E-34
7.97411E-01 3.73071E-34
8.00908E-01 3.54542E-34
8.04381E-01 3.36705E-34
8.07831E-01 3.19551E-34
8.11257E-01 3.03073E-34
8.14660E-01 2.87261E-34
8.18039E-01 2.72102E-34
8.21394E-01 2.57585E-34
8.24724E-01 2.43694E-34
8.28030E-01 2.30416E-34
8.31310E-01 2.17734E-34
8.34565E-01 2.05631E-34
8.37795E-01 1.94092E-34
8.40999E-01 1.83099E-34
8.44177E-01 1.72634E-34
8.47329E-01 1.62679E-34
8.50455E-01 1.53217E-34
8.53553E-01 1.44229E-34
8.56625E-01 1.35699E-34
8.59670E-01 1.27609E-34
8.62687E-01 1.19940E-34
8.65677E-01 1.12676E-34
8.68639E-01 1.05801E-34
8.71572E-01 9.92961E-35
8.74478E-01 9.31469E-35
8.77355E-01 8.73372E-35
8.80203E-01 8.18510E-35
8.83022E-01 7.66739E-35
8.85812E-01 7.17912E-35
8.88573E-01 6.71887E-35
8.91304E-01 6.28526E-35
8.94005E-01 5.87699E-35
8.96677E-01 5.49278E-35
8.99318E-01 5.13140E-35
9.01928E-01 4.79167E-35
9.04508E-01 4.47247E-35
9.07058E-01 4.17271E-35
9.09576E-01 3.89133E-35
9.12063E-01 3.62735E-35
9.14519E-01 3.37980E-35
9.16943E-01 3.14778E-35
9.19335E-01 2.93041E-35
9.21696E-01 2.72686E-35
9.24024E-01 2.53636E-35
9.26320E-01 2.35812E-35
9.28584E-01 2.19146E-35
9.30815E-01 2.03565E-35
9.33013E-01 1.89012E-35
9.35178E-01 1.75418E-35
9.37310E-01 1.62729E-35
9.39409E-01 1.50889E-35
9.41474E-01 1.39846E-35
9.43505E-01 1.29550E-35
9.45503E-01 1.19955E-35
9.47467E-01 1.11017E-35
9.49397E-01 1.02696E-35
9.51293E-01 9.49484E-36
9.53154E-01 8.77409E-36
9.54981E-01 8.10378E-36
9.56773E-01 7.48061E-36
9.58530E-01 6.90151E-36
9.60252E-01 6.36351E-36
9.61940E-01 5.86397E-36
9.63592E-01 5.40025E-36
9.65209E-01 4.97004E-36
9.66790E-01 4.57100E-36
9.68336E-01 4.20095E-36
9.69846E-01 3.85808E-36
9.71321E-01 3.54037E-36
9.72759E-01 3.24619E-36
9.74162E-01 2.97384E-36
9.75528E-01 2.72185E-36
9.76858E-01 2.48871E-36
9.78152E-01 2.27314E-36
9.79410E-01 2.07394E-36
9.80631E-01 1.88992E-36
9.81815E-01 1.71996E-36
9.82963E-01 1.56308E-36
9.84074E-01 1.41837E-36
9.85148E-01 1.28494E-36
9.86185E-01 1.16192E-36
9.87185E-01 1.04863E-36
9.88148E-01 9.44345E-37
9.89074E-01 8.48353E-37
9.89962E-01 7.60175E-37
9.90814E-01 6.79102E-37
9.91627E-01 6.04781E-37
9.92404E-01 5.36625E-37
9.93143E-01 4.74175E-37
9.93844E-01 4.17100E-37
9.94508E-01 3.64978E-37
9.95134E-01 3.17491E-37
9.95722E-01 2.74321E-37
9.96273E-01 2.35144E-37
9.96786E-01 1.99745E-37
9.97261E-01 1.67836E-37
9.97698E-01 1.39223E-37
9.98097E-01 1.13748E-37
9.98459E-01 9.11687E-38
9.98782E-01 7.13848E-38
9.99067E-01 5.42417E-38
9.99315E-01 3.96059E-38
9.99524E-01 2.74109E-38
9.99695E-01 1.75263E-38
9.99829E-01 9.91431E-39
9.99924E-01 4.50968E-39
9.99981E-01 1.28401E-39
1.00000E+00 2.20195E-40
