 #
 # Subroutine ELSEPA. Elastic scattering of electrons and positrons
 #                    by neutral atoms and positive ions
 #
 # Projectile: electron
 # Kinetic energy = 1.25000E+08 eV = 4.59367E+06 a.u.
 #
 # WARNING: High-energy factorization with free-atom DF screening.
 #          Absorption, polarization and exchange corrections are
 #          switched off.
 #          Phase shifts are calculated for the bare nucleus.
 #          Scattering amplitudes are not evaluated.
 #
 # Element: Sc,  Z =  21,  atomic weight = 4.49559E+01 g/mol
 #
 # Nuclear model: Fermi distribution
 #                Average radius = 3.80463E-13 cm
 #                Skin thickness = 5.46000E-14 cm
 #
 # Number of electrons = 21
 #
 # Total elastic cross section = 1.86649E-18 cm**2 = 6.66535E-02 a0**2
 # 1st transport cross section = 5.89911E-26 cm**2 = 2.10661E-09 a0**2
 # 2nd transport cross section = 1.75697E-25 cm**2 = 6.27424E-09 a0**2
 #
 #
 # Differential cross section:                       MU=(1-COS(THETA))/2
 #
 #  THETA        MU          DCS          DCS        Sherman      error
 #  (deg)                 (cm**2/sr)   (a0**2/sr)    function
 #----------------------------------------------------------------------
0.00000E+00 5.20115E-10
7.61557E-13 5.16257E-10
1.18994E-12 5.14107E-10
1.71346E-12 5.11498E-10
2.33225E-12 5.08439E-10
3.04617E-12 5.04944E-10
3.85530E-12 5.01027E-10
4.75964E-12 4.96701E-10
5.75917E-12 4.91985E-10
6.85391E-12 4.86896E-10
8.04379E-12 4.81454E-10
9.32893E-12 4.75678E-10
1.07092E-11 4.69589E-10
1.21847E-11 4.63209E-10
1.37554E-11 4.56559E-10
1.54213E-11 4.49672E-10
1.71823E-11 4.42563E-10
1.90386E-11 4.35242E-10
2.09900E-11 4.27731E-10
2.30367E-11 4.20060E-10
2.51785E-11 4.12286E-10
2.74156E-11 4.04386E-10
2.97478E-11 3.96379E-10
3.21752E-11 3.88285E-10
3.46979E-11 3.80178E-10
3.73157E-11 3.72036E-10
4.00286E-11 3.63861E-10
4.28368E-11 3.55669E-10
4.57402E-11 3.47512E-10
4.87388E-11 3.39420E-10
5.18325E-11 3.31355E-10
5.50215E-11 3.23329E-10
5.83057E-11 3.15357E-10
6.16850E-11 3.07546E-10
6.51595E-11 2.99807E-10
6.87293E-11 2.92148E-10
7.23943E-11 2.84578E-10
7.61544E-11 2.77177E-10
1.18991E-10 2.10799E-10
1.71347E-10 1.59474E-10
2.33223E-10 1.21659E-10
3.04617E-10 9.43646E-11
3.85531E-10 7.45806E-11
4.75965E-10 6.00441E-11
5.75917E-10 4.91440E-11
6.85389E-10 4.07760E-11
8.04380E-10 3.42089E-11
9.32891E-10 2.89521E-11
1.07092E-09 2.46657E-11
1.21847E-09 2.11297E-11
1.37554E-09 1.81816E-11
1.54213E-09 1.56090E-11
1.71823E-09 1.34305E-11
1.90386E-09 1.16594E-11
2.09900E-09 1.02064E-11
2.30367E-09 8.97853E-12
2.51785E-09 7.81674E-12
2.74156E-09 6.85035E-12
2.97478E-09 6.04084E-12
3.21752E-09 5.35819E-12
3.46978E-09 4.73637E-12
3.73156E-09 4.19648E-12
4.00286E-09 3.73576E-12
4.28368E-09 3.34053E-12
4.57402E-09 2.99324E-12
4.87388E-09 2.68371E-12
5.18326E-09 2.41517E-12
5.50215E-09 2.18120E-12
5.83057E-09 1.97643E-12
6.16850E-09 1.79259E-12
6.51596E-09 1.63076E-12
6.87293E-09 1.48783E-12
7.23942E-09 1.36118E-12
7.61544E-09 1.24776E-12
1.18991E-08 5.84974E-13
1.71347E-08 3.17865E-13
2.33223E-08 1.88828E-13
3.04617E-08 1.18655E-13
3.85531E-08 7.78012E-14
4.75965E-08 5.28013E-14
5.75917E-08 3.69110E-14
6.85389E-08 2.64908E-14
8.04380E-08 1.94665E-14
9.32891E-08 1.46101E-14
1.07092E-07 1.11742E-14
1.21847E-07 8.69208E-15
1.37554E-07 6.86394E-15
1.54213E-07 5.49303E-15
1.71823E-07 4.45043E-15
1.90386E-07 3.64465E-15
2.09900E-07 3.01485E-15
2.30367E-07 2.51534E-15
2.51785E-07 2.11604E-15
2.74156E-07 1.79307E-15
2.97478E-07 1.52971E-15
3.21752E-07 1.31318E-15
3.46978E-07 1.13361E-15
3.73156E-07 9.83955E-16
4.00286E-07 8.58033E-16
4.28368E-07 7.51764E-16
4.57402E-07 6.61397E-16
4.87388E-07 5.84226E-16
5.18325E-07 5.18002E-16
5.50215E-07 4.60855E-16
5.83057E-07 4.11417E-16
6.16850E-07 3.68370E-16
6.51596E-07 3.30834E-16
6.87293E-07 2.97935E-16
7.23942E-07 2.69022E-16
7.61543E-07 2.43531E-16
1.18991E-06 1.00946E-16
1.71347E-06 4.89873E-17
2.33223E-06 2.65346E-17
3.04617E-06 1.55864E-17
3.85531E-06 9.74329E-18
4.75964E-06 6.39821E-18
5.75916E-06 4.37279E-18
6.85388E-06 3.08891E-18
8.04378E-06 2.24343E-18
9.32888E-06 1.66840E-18
1.07092E-05 1.26635E-18
1.21846E-05 9.78427E-19
1.37553E-05 7.67879E-19
1.54212E-05 6.11041E-19
1.71822E-05 4.92280E-19
1.90385E-05 4.01010E-19
2.09899E-05 3.29978E-19
2.30365E-05 2.73996E-19
2.51783E-05 2.29394E-19
2.74153E-05 1.93505E-19
2.97475E-05 1.64367E-19
3.21749E-05 1.40513E-19
3.46974E-05 1.20836E-19
3.73152E-05 1.04488E-19
4.00281E-05 9.08155E-20
4.28362E-05 7.93090E-20
4.57395E-05 6.95690E-20
4.87380E-05 6.12792E-20
5.18317E-05 5.41879E-20
5.50205E-05 4.80932E-20
5.83045E-05 4.28319E-20
6.16838E-05 3.82710E-20
6.51582E-05 3.43017E-20
6.87277E-05 3.08343E-20
7.23925E-05 2.77944E-20
7.61524E-05 2.51140E-20
9.21439E-05 1.71589E-20
1.09658E-04 1.21191E-20
1.28695E-04 8.80160E-21
1.49255E-04 6.54556E-21
1.71338E-04 4.96845E-21
1.94942E-04 3.83904E-21
2.20070E-04 3.01314E-21
2.46720E-04 2.39792E-21
2.74892E-04 1.93202E-21
3.04586E-04 1.57400E-21
3.35803E-04 1.29521E-21
3.68542E-04 1.07551E-21
4.02802E-04 9.00481E-22
4.38585E-04 7.59655E-22
4.75889E-04 6.45317E-22
5.14715E-04 5.51702E-22
5.55063E-04 4.74464E-22
5.96931E-04 4.10280E-22
6.40321E-04 3.56590E-22
6.85233E-04 3.11401E-22
7.31665E-04 2.73147E-22
7.79618E-04 2.40589E-22
8.29092E-04 2.12739E-22
8.80086E-04 1.88803E-22
9.32601E-04 1.68139E-22
9.86636E-04 1.50224E-22
1.04219E-03 1.34632E-22
1.09927E-03 1.21009E-22
1.15786E-03 1.09066E-22
1.21797E-03 9.85584E-23
1.27961E-03 8.92853E-23
1.34276E-03 8.10764E-23
1.40743E-03 7.37884E-23
1.47362E-03 6.73001E-23
1.54133E-03 6.15085E-23
1.61056E-03 5.63257E-23
1.68131E-03 5.16766E-23
1.75357E-03 4.74965E-23
1.82735E-03 4.37299E-23
1.90265E-03 4.03285E-23
1.97947E-03 3.72508E-23
2.05780E-03 3.44605E-23
2.13765E-03 3.19259E-23
2.21902E-03 2.96195E-23
2.30190E-03 2.75171E-23
2.38630E-03 2.55974E-23
2.47222E-03 2.38418E-23
2.55965E-03 2.22336E-23
2.64859E-03 2.07582E-23
2.73905E-03 1.94028E-23
2.83103E-03 1.81558E-23
2.92452E-03 1.70070E-23
3.01952E-03 1.59473E-23
3.11604E-03 1.49684E-23
3.21407E-03 1.40632E-23
3.31362E-03 1.32251E-23
3.41468E-03 1.24482E-23
3.51725E-03 1.17272E-23
3.62133E-03 1.10573E-23
3.72692E-03 1.04344E-23
3.83403E-03 9.85447E-24
3.94265E-03 9.31402E-24
4.05278E-03 8.80989E-24
4.16442E-03 8.33919E-24
4.27757E-03 7.89931E-24
4.39223E-03 7.48784E-24
4.50840E-03 7.10263E-24
4.62608E-03 6.74170E-24
4.74527E-03 6.40322E-24
4.86597E-03 6.08556E-24
4.98817E-03 5.78719E-24
5.11188E-03 5.50673E-24
5.23711E-03 5.24292E-24
5.36383E-03 4.99457E-24
5.49207E-03 4.76062E-24
5.62181E-03 4.54008E-24
5.75306E-03 4.33204E-24
5.88581E-03 4.13566E-24
6.02007E-03 3.95017E-24
6.15583E-03 3.77485E-24
6.29310E-03 3.60905E-24
6.43187E-03 3.45215E-24
6.57214E-03 3.30359E-24
6.71392E-03 3.16284E-24
6.85720E-03 3.02942E-24
7.00198E-03 2.90287E-24
7.14827E-03 2.78278E-24
7.29605E-03 2.66875E-24
7.44534E-03 2.56043E-24
7.59612E-03 2.45747E-24
7.97965E-03 2.22155E-24
8.37255E-03 2.01289E-24
8.77480E-03 1.82781E-24
9.18641E-03 1.66321E-24
9.60736E-03 1.51643E-24
1.00376E-02 1.38523E-24
1.04773E-02 1.26766E-24
1.09262E-02 1.16208E-24
1.13844E-02 1.06705E-24
1.18520E-02 9.81341E-25
1.23288E-02 9.03888E-25
1.28150E-02 8.33760E-25
1.33104E-02 7.70146E-25
1.38150E-02 7.12340E-25
1.43290E-02 6.59722E-25
1.48521E-02 6.11749E-25
1.53845E-02 5.67940E-25
1.59262E-02 5.27874E-25
1.64770E-02 4.91177E-25
1.70371E-02 4.57519E-25
1.76063E-02 4.26605E-25
1.81848E-02 3.98175E-25
1.87724E-02 3.71996E-25
1.93692E-02 3.47859E-25
1.99751E-02 3.25580E-25
2.05901E-02 3.04990E-25
2.12143E-02 2.85942E-25
2.18476E-02 2.68300E-25
2.24900E-02 2.51943E-25
2.31415E-02 2.36763E-25
2.38021E-02 2.22661E-25
2.44717E-02 2.09548E-25
2.51504E-02 1.97343E-25
2.58382E-02 1.85973E-25
2.65349E-02 1.75372E-25
2.72407E-02 1.65479E-25
2.79555E-02 1.56239E-25
2.86793E-02 1.47603E-25
2.94120E-02 1.39525E-25
3.01537E-02 1.31962E-25
3.09043E-02 1.24878E-25
3.16639E-02 1.18235E-25
3.24324E-02 1.12004E-25
3.32098E-02 1.06154E-25
3.39961E-02 1.00659E-25
3.47912E-02 9.54927E-26
3.55952E-02 9.06335E-26
3.64081E-02 8.60600E-26
3.72297E-02 8.17529E-26
3.80602E-02 7.76943E-26
3.88995E-02 7.38676E-26
3.97476E-02 7.02576E-26
4.06044E-02 6.68503E-26
4.14700E-02 6.36324E-26
4.23443E-02 6.05920E-26
4.32273E-02 5.77177E-26
4.41190E-02 5.49992E-26
4.50194E-02 5.24268E-26
4.59284E-02 4.99915E-26
4.68461E-02 4.76850E-26
4.87074E-02 4.34274E-26
5.06030E-02 3.95982E-26
5.25328E-02 3.61484E-26
5.44967E-02 3.30355E-26
5.64946E-02 3.02225E-26
5.85262E-02 2.76767E-26
6.05914E-02 2.53696E-26
6.26901E-02 2.32759E-26
6.48222E-02 2.13737E-26
6.69873E-02 1.96431E-26
6.91854E-02 1.80670E-26
7.14163E-02 1.66299E-26
7.36799E-02 1.53182E-26
7.59760E-02 1.41197E-26
7.83043E-02 1.30235E-26
8.06647E-02 1.20199E-26
8.30571E-02 1.11003E-26
8.54812E-02 1.02570E-26
8.79369E-02 9.48289E-27
9.04240E-02 8.77178E-27
9.29422E-02 8.11804E-27
9.54915E-02 7.51658E-27
9.80716E-02 6.96284E-27
1.00682E-01 6.45268E-27
1.03323E-01 5.98235E-27
1.05995E-01 5.54848E-27
1.08696E-01 5.14800E-27
1.11427E-01 4.77811E-27
1.14188E-01 4.43630E-27
1.16978E-01 4.12027E-27
1.19797E-01 3.82791E-27
1.22645E-01 3.55732E-27
1.25522E-01 3.30677E-27
1.28428E-01 3.07466E-27
1.31361E-01 2.85954E-27
1.34323E-01 2.66009E-27
1.37313E-01 2.47508E-27
1.40330E-01 2.30342E-27
1.43375E-01 2.14408E-27
1.46447E-01 1.99611E-27
1.49545E-01 1.85867E-27
1.52671E-01 1.73097E-27
1.55823E-01 1.61228E-27
1.59001E-01 1.50192E-27
1.62205E-01 1.39930E-27
1.65435E-01 1.30383E-27
1.68690E-01 1.21501E-27
1.71970E-01 1.13234E-27
1.75276E-01 1.05539E-27
1.78606E-01 9.83737E-28
1.81961E-01 9.17012E-28
1.85340E-01 8.54862E-28
1.88743E-01 7.96962E-28
1.92169E-01 7.43013E-28
1.95619E-01 6.92738E-28
1.99092E-01 6.45879E-28
2.02589E-01 6.02198E-28
2.06107E-01 5.61475E-28
2.09649E-01 5.23505E-28
2.13212E-01 4.88099E-28
2.16797E-01 4.55079E-28
2.20404E-01 4.24283E-28
2.24032E-01 3.95558E-28
2.27680E-01 3.68763E-28
2.31350E-01 3.43767E-28
2.35040E-01 3.20448E-28
2.38751E-01 2.98692E-28
2.42481E-01 2.78394E-28
2.46231E-01 2.59456E-28
2.50000E-01 2.41786E-28
2.53788E-01 2.25300E-28
2.57595E-01 2.09917E-28
2.61421E-01 1.95564E-28
2.65264E-01 1.82172E-28
2.69126E-01 1.69677E-28
2.73005E-01 1.58019E-28
2.76901E-01 1.47143E-28
2.80814E-01 1.36997E-28
2.84744E-01 1.27532E-28
2.88691E-01 1.18702E-28
2.92653E-01 1.10466E-28
2.96632E-01 1.02784E-28
3.00625E-01 9.56202E-29
3.04634E-01 8.89393E-29
3.08658E-01 8.27096E-29
3.12697E-01 7.69013E-29
3.16749E-01 7.14863E-29
3.20816E-01 6.64387E-29
3.24896E-01 6.17341E-29
3.28990E-01 5.73497E-29
3.33097E-01 5.32643E-29
3.37216E-01 4.94581E-29
3.41348E-01 4.59125E-29
3.45492E-01 4.26102E-29
3.49647E-01 3.95350E-29
3.53814E-01 3.66718E-29
3.57992E-01 3.40064E-29
3.62181E-01 3.15258E-29
3.66381E-01 2.92174E-29
3.70590E-01 2.70699E-29
3.74810E-01 2.50724E-29
3.79039E-01 2.32148E-29
3.83277E-01 2.14878E-29
3.87524E-01 1.98826E-29
3.91780E-01 1.83909E-29
3.96044E-01 1.70051E-29
4.00316E-01 1.57180E-29
4.04596E-01 1.45229E-29
4.08882E-01 1.34136E-29
4.13176E-01 1.23842E-29
4.17476E-01 1.14292E-29
4.21783E-01 1.05436E-29
4.26095E-01 9.72250E-30
4.30413E-01 8.96157E-30
4.34737E-01 8.25662E-30
4.39065E-01 7.60377E-30
4.43398E-01 6.99939E-30
4.47736E-01 6.44011E-30
4.52077E-01 5.92277E-30
4.56422E-01 5.44442E-30
4.60770E-01 5.00232E-30
4.65122E-01 4.59391E-30
4.69476E-01 4.21679E-30
4.73832E-01 3.86873E-30
4.78190E-01 3.54765E-30
4.82550E-01 3.25161E-30
4.86912E-01 2.97881E-30
4.91274E-01 2.72756E-30
4.95637E-01 2.49629E-30
5.00000E-01 2.28354E-30
5.04363E-01 2.08794E-30
5.08726E-01 1.90823E-30
5.13088E-01 1.74323E-30
5.17450E-01 1.59183E-30
5.21810E-01 1.45302E-30
5.26168E-01 1.32584E-30
5.30524E-01 1.20940E-30
5.34878E-01 1.10290E-30
5.39230E-01 1.00555E-30
5.43578E-01 9.16654E-31
5.47923E-01 8.35548E-31
5.52264E-01 7.61621E-31
5.56602E-01 6.94302E-31
5.60935E-01 6.33066E-31
5.65263E-01 5.77423E-31
5.69587E-01 5.26918E-31
5.73905E-01 4.81132E-31
5.78217E-01 4.39675E-31
5.82524E-01 4.02186E-31
5.86824E-01 3.68332E-31
5.91118E-01 3.37805E-31
5.95404E-01 3.10318E-31
5.99684E-01 2.85608E-31
6.03956E-01 2.63431E-31
6.08220E-01 2.43563E-31
6.12476E-01 2.25795E-31
6.16723E-01 2.09938E-31
6.20961E-01 1.95814E-31
6.25190E-01 1.83262E-31
6.29410E-01 1.72132E-31
6.33619E-01 1.62287E-31
6.37819E-01 1.53601E-31
6.42008E-01 1.45958E-31
6.46186E-01 1.39253E-31
6.50353E-01 1.33388E-31
6.54508E-01 1.28274E-31
6.58652E-01 1.23830E-31
6.62784E-01 1.19981E-31
6.66903E-01 1.16660E-31
6.71010E-01 1.13806E-31
6.75104E-01 1.11361E-31
6.79184E-01 1.09275E-31
6.83251E-01 1.07502E-31
6.87303E-01 1.06000E-31
6.91342E-01 1.04730E-31
6.95366E-01 1.03658E-31
6.99375E-01 1.02755E-31
7.03368E-01 1.01991E-31
7.07347E-01 1.01343E-31
7.11309E-01 1.00787E-31
7.15256E-01 1.00305E-31
7.19186E-01 9.98783E-32
7.23099E-01 9.94917E-32
7.26995E-01 9.91314E-32
7.30874E-01 9.87855E-32
7.34736E-01 9.84434E-32
7.38579E-01 9.80960E-32
7.42405E-01 9.77355E-32
7.46212E-01 9.73553E-32
7.50000E-01 9.69497E-32
7.53769E-01 9.65139E-32
7.57519E-01 9.60441E-32
7.61249E-01 9.55373E-32
7.64960E-01 9.49910E-32
7.68650E-01 9.44034E-32
7.72320E-01 9.37733E-32
7.75968E-01 9.30999E-32
7.79596E-01 9.23829E-32
7.83203E-01 9.16224E-32
7.86788E-01 9.08186E-32
7.90351E-01 8.99724E-32
7.93893E-01 8.90846E-32
7.97411E-01 8.81564E-32
8.00908E-01 8.71891E-32
8.04381E-01 8.61842E-32
8.07831E-01 8.51433E-32
8.11257E-01 8.40682E-32
8.14660E-01 8.29606E-32
8.18039E-01 8.18225E-32
8.21394E-01 8.06558E-32
8.24724E-01 7.94625E-32
8.28030E-01 7.82445E-32
8.31310E-01 7.70038E-32
8.34565E-01 7.57424E-32
8.37795E-01 7.44624E-32
8.40999E-01 7.31656E-32
8.44177E-01 7.18540E-32
8.47329E-01 7.05295E-32
8.50455E-01 6.91939E-32
8.53553E-01 6.78490E-32
8.56625E-01 6.64966E-32
8.59670E-01 6.51385E-32
8.62687E-01 6.37761E-32
8.65677E-01 6.24112E-32
8.68639E-01 6.10453E-32
8.71572E-01 5.96798E-32
8.74478E-01 5.83162E-32
8.77355E-01 5.69557E-32
8.80203E-01 5.55997E-32
8.83022E-01 5.42495E-32
8.85812E-01 5.29061E-32
8.88573E-01 5.15707E-32
8.91304E-01 5.02443E-32
8.94005E-01 4.89279E-32
8.96677E-01 4.76224E-32
8.99318E-01 4.63287E-32
9.01928E-01 4.50477E-32
9.04508E-01 4.37800E-32
9.07058E-01 4.25264E-32
9.09576E-01 4.12875E-32
9.12063E-01 4.00640E-32
9.14519E-01 3.88564E-32
9.16943E-01 3.76652E-32
9.19335E-01 3.64910E-32
9.21696E-01 3.53341E-32
9.24024E-01 3.41949E-32
9.26320E-01 3.30739E-32
9.28584E-01 3.19712E-32
9.30815E-01 3.08872E-32
9.33013E-01 2.98222E-32
9.35178E-01 2.87763E-32
9.37310E-01 2.77498E-32
9.39409E-01 2.67428E-32
9.41474E-01 2.57554E-32
9.43505E-01 2.47878E-32
9.45503E-01 2.38400E-32
9.47467E-01 2.29120E-32
9.49397E-01 2.20040E-32
9.51293E-01 2.11160E-32
9.53154E-01 2.02479E-32
9.54981E-01 1.93998E-32
9.56773E-01 1.85715E-32
9.58530E-01 1.77632E-32
9.60252E-01 1.69746E-32
9.61940E-01 1.62057E-32
9.63592E-01 1.54566E-32
9.65209E-01 1.47269E-32
9.66790E-01 1.40167E-32
9.68336E-01 1.33259E-32
9.69846E-01 1.26543E-32
9.71321E-01 1.20018E-32
9.72759E-01 1.13683E-32
9.74162E-01 1.07536E-32
9.75528E-01 1.01576E-32
9.76858E-01 9.58021E-33
9.78152E-01 9.02120E-33
9.79410E-01 8.48046E-33
9.80631E-01 7.95783E-33
9.81815E-01 7.45318E-33
9.82963E-01 6.96634E-33
9.84074E-01 6.49717E-33
9.85148E-01 6.04551E-33
9.86185E-01 5.61124E-33
9.87185E-01 5.19418E-33
9.88148E-01 4.79421E-33
9.89074E-01 4.41118E-33
9.89962E-01 4.04494E-33
9.90814E-01 3.69538E-33
9.91627E-01 3.36234E-33
9.92404E-01 3.04571E-33
9.93143E-01 2.74536E-33
9.93844E-01 2.46117E-33
9.94508E-01 2.19303E-33
9.95134E-01 1.94082E-33
9.95722E-01 1.70444E-33
9.96273E-01 1.48379E-33
9.96786E-01 1.27878E-33
9.97261E-01 1.08932E-33
9.97698E-01 9.15327E-34
9.98097E-01 7.56719E-34
9.98459E-01 6.13435E-34
9.98782E-01 4.85404E-34
9.99067E-01 3.72571E-34
9.99315E-01 2.74888E-34
9.99524E-01 1.92306E-34
9.99695E-01 1.24793E-34
9.99829E-01 7.23145E-35
9.99924E-01 3.48474E-35
9.99981E-01 1.23740E-35
1.00000E+00 4.88093E-36
