 #
 # Subroutine ELSEPA. Elastic scattering of electrons and positrons
 #                    by neutral atoms and positive ions
 #
 # Projectile: electron
 # Kinetic energy = 7.00000E+07 eV = 2.57245E+06 a.u.
 #
 # WARNING: High-energy factorization with free-atom DF screening.
 #          Absorption, polarization and exchange corrections are
 #          switched off.
 #          Phase shifts are calculated for the bare nucleus.
 #          Scattering amplitudes are not evaluated.
 #
 # Element: Sc,  Z =  21,  atomic weight = 4.49559E+01 g/mol
 #
 # Nuclear model: Fermi distribution
 #                Average radius = 3.80463E-13 cm
 #                Skin thickness = 5.46000E-14 cm
 #
 # Number of electrons = 21
 #
 # Total elastic cross section = 1.86663E-18 cm**2 = 6.66585E-02 a0**2
 # 1st transport cross section = 1.84834E-25 cm**2 = 6.60053E-09 a0**2
 # 2nd transport cross section = 5.44897E-25 cm**2 = 1.94586E-08 a0**2
 #
 #
 # Differential cross section:                       MU=(1-COS(THETA))/2
 #
 #  THETA        MU          DCS          DCS        Sherman      error
 #  (deg)                 (cm**2/sr)   (a0**2/sr)    function
 #----------------------------------------------------------------------
0.00000E+00 1.64153E-10
7.61557E-13 1.63767E-10
1.18994E-12 1.63551E-10
1.71346E-12 1.63287E-10
2.33225E-12 1.62976E-10
3.04617E-12 1.62619E-10
3.85530E-12 1.62215E-10
4.75964E-12 1.61765E-10
5.75917E-12 1.61271E-10
6.85391E-12 1.60731E-10
8.04379E-12 1.60148E-10
9.32893E-12 1.59522E-10
1.07092E-11 1.58854E-10
1.21847E-11 1.58144E-10
1.37554E-11 1.57393E-10
1.54213E-11 1.56603E-10
1.71823E-11 1.55774E-10
1.90386E-11 1.54907E-10
2.09900E-11 1.54004E-10
2.30367E-11 1.53065E-10
2.51785E-11 1.52091E-10
2.74156E-11 1.51084E-10
2.97478E-11 1.50045E-10
3.21752E-11 1.48975E-10
3.46979E-11 1.47875E-10
3.73157E-11 1.46746E-10
4.00286E-11 1.45590E-10
4.28368E-11 1.44407E-10
4.57402E-11 1.43200E-10
4.87388E-11 1.41972E-10
5.18325E-11 1.40721E-10
5.50215E-11 1.39448E-10
5.83057E-11 1.38154E-10
6.16850E-11 1.36840E-10
6.51595E-11 1.35509E-10
6.87293E-11 1.34159E-10
7.23943E-11 1.32795E-10
7.61544E-11 1.31424E-10
1.18991E-10 1.17189E-10
1.71347E-10 1.02787E-10
2.33223E-10 8.90465E-11
3.04617E-10 7.65432E-11
3.85531E-10 6.54973E-11
4.75965E-10 5.59671E-11
5.75917E-10 4.78961E-11
6.85389E-10 4.11342E-11
8.04380E-10 3.54882E-11
9.32891E-10 3.07844E-11
1.07092E-09 2.68739E-11
1.21847E-09 2.35998E-11
1.37554E-09 2.08454E-11
1.54213E-09 1.85156E-11
1.71823E-09 1.65306E-11
1.90386E-09 1.48263E-11
2.09900E-09 1.33532E-11
2.30367E-09 1.20691E-11
2.51785E-09 1.09436E-11
2.74156E-09 9.95156E-12
2.97478E-09 9.07108E-12
3.21752E-09 8.28530E-12
3.46978E-09 7.58237E-12
3.73156E-09 6.95117E-12
4.00286E-09 6.38024E-12
4.28368E-09 5.86426E-12
4.57402E-09 5.39688E-12
4.87388E-09 4.94403E-12
5.18326E-09 4.53799E-12
5.50215E-09 4.17737E-12
5.83057E-09 3.85616E-12
6.16850E-09 3.56921E-12
6.51596E-09 3.31218E-12
6.87293E-09 3.08131E-12
7.23942E-09 2.87051E-12
7.61544E-09 2.65237E-12
1.18991E-08 1.31058E-12
1.71347E-08 7.09044E-13
2.33223E-08 4.17619E-13
3.04617E-08 2.64583E-13
3.85531E-08 1.77856E-13
4.75965E-08 1.25064E-13
5.75917E-08 9.08968E-14
6.85389E-08 6.77204E-14
8.04380E-08 5.14820E-14
9.32891E-08 3.97854E-14
1.07092E-07 3.11375E-14
1.21847E-07 2.46707E-14
1.37554E-07 1.97632E-14
1.54213E-07 1.59880E-14
1.71823E-07 1.30523E-14
1.90386E-07 1.07497E-14
2.09900E-07 8.92593E-15
2.30367E-07 7.46645E-15
2.51785E-07 6.29075E-15
2.74156E-07 5.33616E-15
2.97478E-07 4.55502E-15
3.21752E-07 3.91132E-15
3.46978E-07 3.37744E-15
3.73156E-07 2.93175E-15
4.00286E-07 2.55726E-15
4.28368E-07 2.24091E-15
4.57402E-07 1.97221E-15
4.87388E-07 1.74255E-15
5.18325E-07 1.54572E-15
5.50215E-07 1.37627E-15
5.83057E-07 1.22933E-15
6.16850E-07 1.10163E-15
6.51596E-07 9.90316E-16
6.87293E-07 8.92679E-16
7.23942E-07 8.06834E-16
7.61543E-07 7.31207E-16
1.18991E-06 3.06783E-16
1.71347E-06 1.50507E-16
2.33223E-06 8.22063E-17
3.04617E-06 4.85789E-17
3.85531E-06 3.04968E-17
4.75964E-06 2.00867E-17
5.75916E-06 1.37575E-17
6.85388E-06 9.73337E-18
8.04378E-06 7.07737E-18
9.32888E-06 5.26787E-18
1.07092E-05 4.00103E-18
1.21846E-05 3.09291E-18
1.37553E-05 2.42831E-18
1.54212E-05 1.93294E-18
1.71822E-05 1.55765E-18
1.90385E-05 1.26911E-18
2.09899E-05 1.04448E-18
2.30365E-05 8.67401E-19
2.51783E-05 7.26284E-19
2.74153E-05 6.12715E-19
2.97475E-05 5.20493E-19
3.21749E-05 4.44986E-19
3.46974E-05 3.82694E-19
3.73152E-05 3.30936E-19
4.00281E-05 2.87645E-19
4.28362E-05 2.51210E-19
4.57395E-05 2.20366E-19
4.87380E-05 1.94113E-19
5.18317E-05 1.71654E-19
5.50205E-05 1.52351E-19
5.83045E-05 1.35687E-19
6.16838E-05 1.21241E-19
6.51582E-05 1.08668E-19
6.87277E-05 9.76846E-20
7.23925E-05 8.80554E-20
7.61524E-05 7.95791E-20
9.21439E-05 5.43767E-20
1.09658E-04 3.84089E-20
1.28695E-04 2.78971E-20
1.49255E-04 2.07483E-20
1.71338E-04 1.57506E-20
1.94942E-04 1.21714E-20
2.20070E-04 9.55395E-21
2.46720E-04 7.60406E-21
2.74892E-04 6.12735E-21
3.04586E-04 4.99252E-21
3.35803E-04 4.10876E-21
3.68542E-04 3.41228E-21
4.02802E-04 2.85739E-21
4.38585E-04 2.41089E-21
4.75889E-04 2.04835E-21
5.14715E-04 1.75150E-21
5.55063E-04 1.50656E-21
5.96931E-04 1.30300E-21
6.40321E-04 1.13270E-21
6.85233E-04 9.89360E-22
7.31665E-04 8.68004E-22
7.79618E-04 7.64708E-22
8.29092E-04 6.76339E-22
8.80086E-04 6.00382E-22
9.32601E-04 5.34801E-22
9.86636E-04 4.77940E-22
1.04219E-03 4.28443E-22
1.09927E-03 3.85195E-22
1.15786E-03 3.47272E-22
1.21797E-03 3.13905E-22
1.27961E-03 2.84454E-22
1.34276E-03 2.58378E-22
1.40743E-03 2.35225E-22
1.47362E-03 2.14609E-22
1.54133E-03 1.96205E-22
1.61056E-03 1.79732E-22
1.68131E-03 1.64954E-22
1.75357E-03 1.51664E-22
1.82735E-03 1.39686E-22
1.90265E-03 1.28869E-22
1.97947E-03 1.19079E-22
2.05780E-03 1.10201E-22
2.13765E-03 1.02136E-22
2.21902E-03 9.47957E-23
2.30190E-03 8.81031E-23
2.38630E-03 8.19911E-23
2.47222E-03 7.64000E-23
2.55965E-03 7.12776E-23
2.64859E-03 6.65774E-23
2.73905E-03 6.22583E-23
2.83103E-03 5.82839E-23
2.92452E-03 5.46216E-23
3.01952E-03 5.12425E-23
3.11604E-03 4.81206E-23
3.21407E-03 4.52329E-23
3.31362E-03 4.25585E-23
3.41468E-03 4.00789E-23
3.51725E-03 3.77771E-23
3.62133E-03 3.56382E-23
3.72692E-03 3.36485E-23
3.83403E-03 3.17957E-23
3.94265E-03 3.00685E-23
4.05278E-03 2.84570E-23
4.16442E-03 2.69520E-23
4.27757E-03 2.55451E-23
4.39223E-03 2.42287E-23
4.50840E-03 2.29960E-23
4.62608E-03 2.18405E-23
4.74527E-03 2.07567E-23
4.86597E-03 1.97392E-23
4.98817E-03 1.87833E-23
5.11188E-03 1.78844E-23
5.23711E-03 1.70386E-23
5.36383E-03 1.62422E-23
5.49207E-03 1.54916E-23
5.62181E-03 1.47839E-23
5.75306E-03 1.41160E-23
5.88581E-03 1.34854E-23
6.02007E-03 1.28895E-23
6.15583E-03 1.23262E-23
6.29310E-03 1.17932E-23
6.43187E-03 1.12886E-23
6.57214E-03 1.08107E-23
6.71392E-03 1.03578E-23
6.85720E-03 9.92825E-24
7.00198E-03 9.52071E-24
7.14827E-03 9.13381E-24
7.29605E-03 8.76632E-24
7.44534E-03 8.41707E-24
7.59612E-03 8.08500E-24
7.97965E-03 7.32351E-24
8.37255E-03 6.64934E-24
8.77480E-03 6.05074E-24
9.18641E-03 5.51777E-24
9.60736E-03 5.04200E-24
1.00376E-02 4.61621E-24
1.04773E-02 4.23424E-24
1.09262E-02 3.89078E-24
1.13844E-02 3.58129E-24
1.18520E-02 3.30180E-24
1.23288E-02 3.04890E-24
1.28150E-02 2.81961E-24
1.33104E-02 2.61135E-24
1.38150E-02 2.42183E-24
1.43290E-02 2.24908E-24
1.48521E-02 2.09134E-24
1.53845E-02 1.94709E-24
1.59262E-02 1.81496E-24
1.64770E-02 1.69376E-24
1.70371E-02 1.58242E-24
1.76063E-02 1.47999E-24
1.81848E-02 1.38564E-24
1.87724E-02 1.29861E-24
1.93692E-02 1.21823E-24
1.99751E-02 1.14391E-24
2.05901E-02 1.07511E-24
2.12143E-02 1.01134E-24
2.18476E-02 9.52171E-25
2.24900E-02 8.97211E-25
2.31415E-02 8.46106E-25
2.38021E-02 7.98539E-25
2.44717E-02 7.54220E-25
2.51504E-02 7.12888E-25
2.58382E-02 6.74306E-25
2.65349E-02 6.38257E-25
2.72407E-02 6.04546E-25
2.79555E-02 5.72995E-25
2.86793E-02 5.43439E-25
2.94120E-02 5.15731E-25
3.01537E-02 4.89733E-25
3.09043E-02 4.65323E-25
3.16639E-02 4.42384E-25
3.24324E-02 4.20814E-25
3.32098E-02 4.00515E-25
3.39961E-02 3.81400E-25
3.47912E-02 3.63387E-25
3.55952E-02 3.46401E-25
3.64081E-02 3.30373E-25
3.72297E-02 3.15240E-25
3.80602E-02 3.00942E-25
3.88995E-02 2.87426E-25
3.97476E-02 2.74642E-25
4.06044E-02 2.62541E-25
4.14700E-02 2.51083E-25
4.23443E-02 2.40226E-25
4.32273E-02 2.29933E-25
4.41190E-02 2.20169E-25
4.50194E-02 2.10904E-25
4.59284E-02 2.02106E-25
4.68461E-02 1.93749E-25
4.87074E-02 1.78253E-25
5.06030E-02 1.64228E-25
5.25328E-02 1.51513E-25
5.44967E-02 1.39965E-25
5.64946E-02 1.29458E-25
5.85262E-02 1.19885E-25
6.05914E-02 1.11147E-25
6.26901E-02 1.03162E-25
6.48222E-02 9.58521E-26
6.69873E-02 8.91524E-26
6.91854E-02 8.30035E-26
7.14163E-02 7.73526E-26
7.36799E-02 7.21531E-26
7.59760E-02 6.73631E-26
7.83043E-02 6.29452E-26
8.06647E-02 5.88660E-26
8.30571E-02 5.50953E-26
8.54812E-02 5.16062E-26
8.79369E-02 4.83744E-26
9.04240E-02 4.53779E-26
9.29422E-02 4.25969E-26
9.54915E-02 4.00136E-26
9.80716E-02 3.76117E-26
1.00682E-01 3.53766E-26
1.03323E-01 3.32948E-26
1.05995E-01 3.13544E-26
1.08696E-01 2.95442E-26
1.11427E-01 2.78543E-26
1.14188E-01 2.62754E-26
1.16978E-01 2.47991E-26
1.19797E-01 2.34179E-26
1.22645E-01 2.21246E-26
1.25522E-01 2.09130E-26
1.28428E-01 1.97770E-26
1.31361E-01 1.87113E-26
1.34323E-01 1.77110E-26
1.37313E-01 1.67714E-26
1.40330E-01 1.58883E-26
1.43375E-01 1.50580E-26
1.46447E-01 1.42767E-26
1.49545E-01 1.35412E-26
1.52671E-01 1.28485E-26
1.55823E-01 1.21957E-26
1.59001E-01 1.15802E-26
1.62205E-01 1.09996E-26
1.65435E-01 1.04517E-26
1.68690E-01 9.93430E-27
1.71970E-01 9.44561E-27
1.75276E-01 8.98378E-27
1.78606E-01 8.54715E-27
1.81961E-01 8.13417E-27
1.85340E-01 7.74340E-27
1.88743E-01 7.37349E-27
1.92169E-01 7.02321E-27
1.95619E-01 6.69137E-27
1.99092E-01 6.37688E-27
2.02589E-01 6.07875E-27
2.06107E-01 5.79600E-27
2.09649E-01 5.52776E-27
2.13212E-01 5.27320E-27
2.16797E-01 5.03153E-27
2.20404E-01 4.80203E-27
2.24032E-01 4.58402E-27
2.27680E-01 4.37685E-27
2.31350E-01 4.17994E-27
2.35040E-01 3.99271E-27
2.38751E-01 3.81464E-27
2.42481E-01 3.64524E-27
2.46231E-01 3.48403E-27
2.50000E-01 3.33057E-27
2.53788E-01 3.18447E-27
2.57595E-01 3.04532E-27
2.61421E-01 2.91277E-27
2.65264E-01 2.78646E-27
2.69126E-01 2.66609E-27
2.73005E-01 2.55133E-27
2.76901E-01 2.44191E-27
2.80814E-01 2.33754E-27
2.84744E-01 2.23799E-27
2.88691E-01 2.14299E-27
2.92653E-01 2.05233E-27
2.96632E-01 1.96579E-27
3.00625E-01 1.88317E-27
3.04634E-01 1.80426E-27
3.08658E-01 1.72890E-27
3.12697E-01 1.65690E-27
3.16749E-01 1.58811E-27
3.20816E-01 1.52236E-27
3.24896E-01 1.45952E-27
3.28990E-01 1.39944E-27
3.33097E-01 1.34200E-27
3.37216E-01 1.28706E-27
3.41348E-01 1.23451E-27
3.45492E-01 1.18424E-27
3.49647E-01 1.13614E-27
3.53814E-01 1.09011E-27
3.57992E-01 1.04605E-27
3.62181E-01 1.00388E-27
3.66381E-01 9.63501E-28
3.70590E-01 9.24840E-28
3.74810E-01 8.87815E-28
3.79039E-01 8.52353E-28
3.83277E-01 8.18383E-28
3.87524E-01 7.85838E-28
3.91780E-01 7.54653E-28
3.96044E-01 7.24769E-28
4.00316E-01 6.96128E-28
4.04596E-01 6.68674E-28
4.08882E-01 6.42355E-28
4.13176E-01 6.17121E-28
4.17476E-01 5.92925E-28
4.21783E-01 5.69721E-28
4.26095E-01 5.47466E-28
4.30413E-01 5.26119E-28
4.34737E-01 5.05641E-28
4.39065E-01 4.85994E-28
4.43398E-01 4.67143E-28
4.47736E-01 4.49054E-28
4.52077E-01 4.31694E-28
4.56422E-01 4.15031E-28
4.60770E-01 3.99038E-28
4.65122E-01 3.83684E-28
4.69476E-01 3.68944E-28
4.73832E-01 3.54791E-28
4.78190E-01 3.41201E-28
4.82550E-01 3.28150E-28
4.86912E-01 3.15617E-28
4.91274E-01 3.03578E-28
4.95637E-01 2.92015E-28
5.00000E-01 2.80906E-28
5.04363E-01 2.70235E-28
5.08726E-01 2.59981E-28
5.13088E-01 2.50129E-28
5.17450E-01 2.40662E-28
5.21810E-01 2.31565E-28
5.26168E-01 2.22821E-28
5.30524E-01 2.14417E-28
5.34878E-01 2.06340E-28
5.39230E-01 1.98575E-28
5.43578E-01 1.91110E-28
5.47923E-01 1.83933E-28
5.52264E-01 1.77034E-28
5.56602E-01 1.70399E-28
5.60935E-01 1.64020E-28
5.65263E-01 1.57885E-28
5.69587E-01 1.51985E-28
5.73905E-01 1.46310E-28
5.78217E-01 1.40853E-28
5.82524E-01 1.35603E-28
5.86824E-01 1.30554E-28
5.91118E-01 1.25696E-28
5.95404E-01 1.21023E-28
5.99684E-01 1.16527E-28
6.03956E-01 1.12201E-28
6.08220E-01 1.08039E-28
6.12476E-01 1.04034E-28
6.16723E-01 1.00180E-28
6.20961E-01 9.64715E-29
6.25190E-01 9.29023E-29
6.29410E-01 8.94673E-29
6.33619E-01 8.61612E-29
6.37819E-01 8.29790E-29
6.42008E-01 7.99160E-29
6.46186E-01 7.69675E-29
6.50353E-01 7.41292E-29
6.54508E-01 7.13967E-29
6.58652E-01 6.87662E-29
6.62784E-01 6.62336E-29
6.66903E-01 6.37951E-29
6.71010E-01 6.14473E-29
6.75104E-01 5.91866E-29
6.79184E-01 5.70098E-29
6.83251E-01 5.49135E-29
6.87303E-01 5.28948E-29
6.91342E-01 5.09508E-29
6.95366E-01 4.90785E-29
6.99375E-01 4.72753E-29
7.03368E-01 4.55386E-29
7.07347E-01 4.38658E-29
7.11309E-01 4.22546E-29
7.15256E-01 4.07025E-29
7.19186E-01 3.92075E-29
7.23099E-01 3.77673E-29
7.26995E-01 3.63799E-29
7.30874E-01 3.50434E-29
7.34736E-01 3.37557E-29
7.38579E-01 3.25151E-29
7.42405E-01 3.13199E-29
7.46212E-01 3.01682E-29
7.50000E-01 2.90586E-29
7.53769E-01 2.79894E-29
7.57519E-01 2.69592E-29
7.61249E-01 2.59664E-29
7.64960E-01 2.50097E-29
7.68650E-01 2.40878E-29
7.72320E-01 2.31994E-29
7.75968E-01 2.23432E-29
7.79596E-01 2.15180E-29
7.83203E-01 2.07227E-29
7.86788E-01 1.99562E-29
7.90351E-01 1.92175E-29
7.93893E-01 1.85054E-29
7.97411E-01 1.78191E-29
8.00908E-01 1.71575E-29
8.04381E-01 1.65198E-29
8.07831E-01 1.59051E-29
8.11257E-01 1.53126E-29
8.14660E-01 1.47414E-29
8.18039E-01 1.41907E-29
8.21394E-01 1.36599E-29
8.24724E-01 1.31481E-29
8.28030E-01 1.26548E-29
8.31310E-01 1.21791E-29
8.34565E-01 1.17205E-29
8.37795E-01 1.12784E-29
8.40999E-01 1.08521E-29
8.44177E-01 1.04411E-29
8.47329E-01 1.00448E-29
8.50455E-01 9.66274E-30
8.53553E-01 9.29432E-30
8.56625E-01 8.93909E-30
8.59670E-01 8.59656E-30
8.62687E-01 8.26627E-30
8.65677E-01 7.94779E-30
8.68639E-01 7.64068E-30
8.71572E-01 7.34455E-30
8.74478E-01 7.05899E-30
8.77355E-01 6.78363E-30
8.80203E-01 6.51809E-30
8.83022E-01 6.26203E-30
8.85812E-01 6.01511E-30
8.88573E-01 5.77700E-30
8.91304E-01 5.54738E-30
8.94005E-01 5.32596E-30
8.96677E-01 5.11244E-30
8.99318E-01 4.90654E-30
9.01928E-01 4.70799E-30
9.04508E-01 4.51653E-30
9.07058E-01 4.33190E-30
9.09576E-01 4.15387E-30
9.12063E-01 3.98221E-30
9.14519E-01 3.81668E-30
9.16943E-01 3.65707E-30
9.19335E-01 3.50318E-30
9.21696E-01 3.35480E-30
9.24024E-01 3.21175E-30
9.26320E-01 3.07383E-30
9.28584E-01 2.94086E-30
9.30815E-01 2.81268E-30
9.33013E-01 2.68911E-30
9.35178E-01 2.57000E-30
9.37310E-01 2.45520E-30
9.39409E-01 2.34455E-30
9.41474E-01 2.23792E-30
9.43505E-01 2.13516E-30
9.45503E-01 2.03614E-30
9.47467E-01 1.94074E-30
9.49397E-01 1.84884E-30
9.51293E-01 1.76031E-30
9.53154E-01 1.67504E-30
9.54981E-01 1.59292E-30
9.56773E-01 1.51386E-30
9.58530E-01 1.43774E-30
9.60252E-01 1.36447E-30
9.61940E-01 1.29396E-30
9.63592E-01 1.22612E-30
9.65209E-01 1.16086E-30
9.66790E-01 1.09809E-30
9.68336E-01 1.03774E-30
9.69846E-01 9.79739E-31
9.71321E-01 9.24002E-31
9.72759E-01 8.70463E-31
9.74162E-01 8.19053E-31
9.75528E-01 7.69709E-31
9.76858E-01 7.22366E-31
9.78152E-01 6.76967E-31
9.79410E-01 6.33453E-31
9.80631E-01 5.91769E-31
9.81815E-01 5.51864E-31
9.82963E-01 5.13686E-31
9.84074E-01 4.77189E-31
9.85148E-01 4.42325E-31
9.86185E-01 4.09052E-31
9.87185E-01 3.77327E-31
9.88148E-01 3.47112E-31
9.89074E-01 3.18367E-31
9.89962E-01 2.91057E-31
9.90814E-01 2.65148E-31
9.91627E-01 2.40607E-31
9.92404E-01 2.17404E-31
9.93143E-01 1.95509E-31
9.93844E-01 1.74896E-31
9.94508E-01 1.55539E-31
9.95134E-01 1.37413E-31
9.95722E-01 1.20496E-31
9.96273E-01 1.04767E-31
9.96786E-01 9.02060E-32
9.97261E-01 7.67951E-32
9.97698E-01 6.45175E-32
9.98097E-01 5.33581E-32
9.98459E-01 4.33028E-32
9.98782E-01 3.43393E-32
9.99067E-01 2.64564E-32
9.99315E-01 1.96442E-32
9.99524E-01 1.38943E-32
9.99695E-01 9.19951E-33
9.99829E-01 5.55406E-33
9.99924E-01 2.95338E-33
9.99981E-01 1.39427E-33
1.00000E+00 8.74909E-34
