 #
 # Subroutine ELSEPA. Elastic scattering of electrons and positrons
 #                    by neutral atoms and positive ions
 #
 # Projectile: electron
 # Kinetic energy = 2.00000E+08 eV = 7.34987E+06 a.u.
 #
 # WARNING: High-energy factorization with free-atom DF screening.
 #          Absorption, polarization and exchange corrections are
 #          switched off.
 #          Phase shifts are calculated for the bare nucleus.
 #          Scattering amplitudes are not evaluated.
 #
 # Element: Sc,  Z =  21,  atomic weight = 4.49559E+01 g/mol
 #
 # Nuclear model: Fermi distribution
 #                Average radius = 3.80463E-13 cm
 #                Skin thickness = 5.46000E-14 cm
 #
 # Number of electrons = 21
 #
 # Total elastic cross section = 1.86670E-18 cm**2 = 6.66609E-02 a0**2
 # 1st transport cross section = 2.31685E-26 cm**2 = 8.27364E-10 a0**2
 # 2nd transport cross section = 6.92906E-26 cm**2 = 2.47441E-09 a0**2
 #
 #
 # Differential cross section:                       MU=(1-COS(THETA))/2
 #
 #  THETA        MU          DCS          DCS        Sherman      error
 #  (deg)                 (cm**2/sr)   (a0**2/sr)    function
 #----------------------------------------------------------------------
0.00000E+00 1.32743E-09
7.61557E-13 1.30253E-09
1.18994E-12 1.28883E-09
1.71346E-12 1.27238E-09
2.33225E-12 1.25333E-09
3.04617E-12 1.23188E-09
3.85530E-12 1.20824E-09
4.75964E-12 1.18260E-09
5.75917E-12 1.15521E-09
6.85391E-12 1.12635E-09
8.04379E-12 1.09613E-09
9.32893E-12 1.06485E-09
1.07092E-11 1.03281E-09
1.21847E-11 1.00007E-09
1.37554E-11 9.66996E-10
1.54213E-11 9.33734E-10
1.71823E-11 9.00337E-10
1.90386E-11 8.67267E-10
2.09900E-11 8.34421E-10
2.30367E-11 8.01920E-10
2.51785E-11 7.70200E-10
2.74156E-11 7.38989E-10
2.97478E-11 7.08543E-10
3.21752E-11 6.79041E-10
3.46979E-11 6.50259E-10
3.73157E-11 6.22541E-10
4.00286E-11 5.95786E-10
4.28368E-11 5.69854E-10
4.57402E-11 5.45170E-10
4.87388E-11 5.21371E-10
5.18325E-11 4.98488E-10
5.50215E-11 4.76802E-10
5.83057E-11 4.55938E-10
6.16850E-11 4.36055E-10
6.51595E-11 4.17185E-10
6.87293E-11 3.99084E-10
7.23943E-11 3.81971E-10
7.61544E-11 3.65683E-10
1.18991E-10 2.41553E-10
1.71347E-10 1.67291E-10
2.33223E-10 1.21099E-10
3.04617E-10 9.06643E-11
3.85531E-10 6.94977E-11
4.75965E-10 5.41269E-11
5.75917E-10 4.25980E-11
6.85389E-10 3.34386E-11
8.04380E-10 2.68451E-11
9.32891E-10 2.17646E-11
1.07092E-09 1.75658E-11
1.21847E-09 1.44040E-11
1.37554E-09 1.18543E-11
1.54213E-09 9.80434E-12
1.71823E-09 8.20334E-12
1.90386E-09 6.88516E-12
2.09900E-09 5.82614E-12
2.30367E-09 4.97160E-12
2.51785E-09 4.26280E-12
2.74156E-09 3.68240E-12
2.97478E-09 3.20122E-12
3.21752E-09 2.79802E-12
3.46978E-09 2.46033E-12
3.73156E-09 2.17392E-12
4.00286E-09 1.93011E-12
4.28368E-09 1.72212E-12
4.57402E-09 1.54169E-12
4.87388E-09 1.38598E-12
5.18326E-09 1.25076E-12
5.50215E-09 1.13139E-12
5.83057E-09 1.02717E-12
6.16850E-09 9.34942E-13
6.51596E-09 8.52749E-13
6.87293E-09 7.80209E-13
7.23942E-09 7.14837E-13
7.61544E-09 6.56314E-13
1.18991E-08 3.04463E-13
1.71347E-08 1.57664E-13
2.33223E-08 8.84806E-14
3.04617E-08 5.30560E-14
3.85531E-08 3.36202E-14
4.75965E-08 2.23145E-14
5.75917E-08 1.53936E-14
6.85389E-08 1.09693E-14
8.04380E-08 8.03271E-15
9.32891E-08 6.02037E-15
1.07092E-07 4.60303E-15
1.21847E-07 3.58061E-15
1.37554E-07 2.82765E-15
1.54213E-07 2.26293E-15
1.71823E-07 1.83254E-15
1.90386E-07 1.49979E-15
2.09900E-07 1.23923E-15
2.30367E-07 1.03282E-15
2.51785E-07 8.67592E-16
2.74156E-07 7.34041E-16
2.97478E-07 6.25179E-16
3.21752E-07 5.35732E-16
3.46978E-07 4.61693E-16
3.73156E-07 3.99986E-16
4.00286E-07 3.48230E-16
4.28368E-07 3.04562E-16
4.57402E-07 2.67515E-16
4.87388E-07 2.35921E-16
5.18325E-07 2.08846E-16
5.50215E-07 1.85538E-16
5.83057E-07 1.65386E-16
6.16850E-07 1.47890E-16
6.51596E-07 1.32644E-16
6.87293E-07 1.19309E-16
7.23942E-07 1.07606E-16
7.61543E-07 9.73011E-17
1.18991E-06 4.00100E-17
1.71347E-06 1.93304E-17
2.33223E-06 1.04443E-17
3.04617E-06 6.12593E-18
3.85531E-06 3.82592E-18
4.75964E-06 2.51092E-18
5.75916E-06 1.71538E-18
6.85388E-06 1.21140E-18
8.04378E-06 8.79653E-19
9.32888E-06 6.54089E-19
1.07092E-05 4.96412E-19
1.21846E-05 3.83515E-19
1.37553E-05 3.00967E-19
1.54212E-05 2.39484E-19
1.71822E-05 1.92930E-19
1.90385E-05 1.57155E-19
2.09899E-05 1.29314E-19
2.30365E-05 1.07374E-19
2.51783E-05 8.98931E-20
2.74153E-05 7.58280E-20
2.97475E-05 6.44088E-20
3.21749E-05 5.50608E-20
3.46974E-05 4.73497E-20
3.73152E-05 4.09434E-20
4.00281E-05 3.55857E-20
4.28362E-05 3.10767E-20
4.57395E-05 2.72599E-20
4.87380E-05 2.40116E-20
5.18317E-05 2.12328E-20
5.50205E-05 1.88446E-20
5.83045E-05 1.67830E-20
6.16838E-05 1.49958E-20
6.51582E-05 1.34405E-20
6.87277E-05 1.20818E-20
7.23925E-05 1.08906E-20
7.61524E-05 9.83547E-21
9.21439E-05 6.71908E-21
1.09658E-04 4.74487E-21
1.28695E-04 3.44542E-21
1.49255E-04 2.56182E-21
1.71338E-04 1.94417E-21
1.94942E-04 1.50190E-21
2.20070E-04 1.17852E-21
2.46720E-04 9.37653E-22
2.74892E-04 7.55270E-22
3.04586E-04 6.15136E-22
3.35803E-04 5.06026E-22
3.68542E-04 4.20056E-22
4.02802E-04 3.51577E-22
4.38585E-04 2.96489E-22
4.75889E-04 2.51769E-22
5.14715E-04 2.15161E-22
5.55063E-04 1.84962E-22
5.96931E-04 1.59873E-22
6.40321E-04 1.38889E-22
6.85233E-04 1.21232E-22
7.31665E-04 1.06288E-22
7.79618E-04 9.35720E-23
8.29092E-04 8.26972E-23
8.80086E-04 7.33531E-23
9.32601E-04 6.52884E-23
9.86636E-04 5.82987E-23
1.04219E-03 5.22167E-23
1.09927E-03 4.69045E-23
1.15786E-03 4.22484E-23
1.21797E-03 3.81535E-23
1.27961E-03 3.45407E-23
1.34276E-03 3.13436E-23
1.40743E-03 2.85060E-23
1.47362E-03 2.59807E-23
1.54133E-03 2.37274E-23
1.61056E-03 2.17116E-23
1.68131E-03 1.99041E-23
1.75357E-03 1.82795E-23
1.82735E-03 1.68162E-23
1.90265E-03 1.54953E-23
1.97947E-03 1.43006E-23
2.05780E-03 1.32179E-23
2.13765E-03 1.22349E-23
2.21902E-03 1.13408E-23
2.30190E-03 1.05261E-23
2.38630E-03 9.78252E-24
2.47222E-03 9.10281E-24
2.55965E-03 8.48050E-24
2.64859E-03 7.90988E-24
2.73905E-03 7.38590E-24
2.83103E-03 6.90408E-24
2.92452E-03 6.46043E-24
3.01952E-03 6.05139E-24
3.11604E-03 5.67378E-24
3.21407E-03 5.32477E-24
3.31362E-03 5.00180E-24
3.41468E-03 4.70258E-24
3.51725E-03 4.42507E-24
3.62133E-03 4.16740E-24
3.72692E-03 3.92791E-24
3.83403E-03 3.70509E-24
3.94265E-03 3.49758E-24
4.05278E-03 3.30413E-24
4.16442E-03 3.12362E-24
4.27757E-03 2.95504E-24
4.39223E-03 2.79745E-24
4.50840E-03 2.65003E-24
4.62608E-03 2.51198E-24
4.74527E-03 2.38262E-24
4.86597E-03 2.26129E-24
4.98817E-03 2.14742E-24
5.11188E-03 2.04046E-24
5.23711E-03 1.93992E-24
5.36383E-03 1.84534E-24
5.49207E-03 1.75632E-24
5.62181E-03 1.67247E-24
5.75306E-03 1.59342E-24
5.88581E-03 1.51887E-24
6.02007E-03 1.44851E-24
6.15583E-03 1.38206E-24
6.29310E-03 1.31927E-24
6.43187E-03 1.25990E-24
6.57214E-03 1.20373E-24
6.71392E-03 1.15057E-24
6.85720E-03 1.10021E-24
7.00198E-03 1.05249E-24
7.14827E-03 1.00725E-24
7.29605E-03 9.64326E-25
7.44534E-03 9.23590E-25
7.59612E-03 8.84908E-25
7.97965E-03 7.96411E-25
8.37255E-03 7.18330E-25
8.77480E-03 6.49247E-25
9.18641E-03 5.87962E-25
9.60736E-03 5.33458E-25
1.00376E-02 4.84868E-25
1.04773E-02 4.41450E-25
1.09262E-02 4.02568E-25
1.13844E-02 3.67677E-25
1.18520E-02 3.36303E-25
1.23288E-02 3.08038E-25
1.28150E-02 2.82527E-25
1.33104E-02 2.59460E-25
1.38150E-02 2.38570E-25
1.43290E-02 2.19619E-25
1.48521E-02 2.02400E-25
1.53845E-02 1.86733E-25
1.59262E-02 1.72457E-25
1.64770E-02 1.59430E-25
1.70371E-02 1.47527E-25
1.76063E-02 1.36637E-25
1.81848E-02 1.26663E-25
1.87724E-02 1.17515E-25
1.93692E-02 1.09116E-25
1.99751E-02 1.01396E-25
2.05901E-02 9.42931E-26
2.12143E-02 8.77506E-26
2.18476E-02 8.17186E-26
2.24900E-02 7.61519E-26
2.31415E-02 7.10098E-26
2.38021E-02 6.62557E-26
2.44717E-02 6.18566E-26
2.51504E-02 5.77826E-26
2.58382E-02 5.40066E-26
2.65349E-02 5.05040E-26
2.72407E-02 4.72527E-26
2.79555E-02 4.42324E-26
2.86793E-02 4.14248E-26
2.94120E-02 3.88130E-26
3.01537E-02 3.63818E-26
3.09043E-02 3.41173E-26
3.16639E-02 3.20068E-26
3.24324E-02 3.00386E-26
3.32098E-02 2.82020E-26
3.39961E-02 2.64873E-26
3.47912E-02 2.48855E-26
3.55952E-02 2.33885E-26
3.64081E-02 2.19886E-26
3.72297E-02 2.06789E-26
3.80602E-02 1.94530E-26
3.88995E-02 1.83051E-26
3.97476E-02 1.72296E-26
4.06044E-02 1.62216E-26
4.14700E-02 1.52765E-26
4.23443E-02 1.43899E-26
4.32273E-02 1.35580E-26
4.41190E-02 1.27770E-26
4.50194E-02 1.20435E-26
4.59284E-02 1.13545E-26
4.68461E-02 1.07070E-26
4.87074E-02 9.52598E-27
5.06030E-02 8.48098E-27
5.25328E-02 7.55527E-27
5.44967E-02 6.73434E-27
5.64946E-02 6.00558E-27
5.85262E-02 5.35805E-27
6.05914E-02 4.78217E-27
6.26901E-02 4.26961E-27
6.48222E-02 3.81307E-27
6.69873E-02 3.40614E-27
6.91854E-02 3.04321E-27
7.14163E-02 2.71934E-27
7.36799E-02 2.43017E-27
7.59760E-02 2.17187E-27
7.83043E-02 1.94104E-27
8.06647E-02 1.73469E-27
8.30571E-02 1.55017E-27
8.54812E-02 1.38512E-27
8.79369E-02 1.23745E-27
9.04240E-02 1.10532E-27
9.29422E-02 9.87067E-28
9.54915E-02 8.81228E-28
9.80716E-02 7.86495E-28
1.00682E-01 7.01702E-28
1.03323E-01 6.25808E-28
1.05995E-01 5.57885E-28
1.08696E-01 4.97102E-28
1.11427E-01 4.42717E-28
1.14188E-01 3.94067E-28
1.16978E-01 3.50556E-28
1.19797E-01 3.11653E-28
1.22645E-01 2.76881E-28
1.25522E-01 2.45812E-28
1.28428E-01 2.18063E-28
1.31361E-01 1.93290E-28
1.34323E-01 1.71185E-28
1.37313E-01 1.51470E-28
1.40330E-01 1.33898E-28
1.43375E-01 1.18246E-28
1.46447E-01 1.04312E-28
1.49545E-01 9.19174E-29
1.52671E-01 8.09006E-29
1.55823E-01 7.11164E-29
1.59001E-01 6.24346E-29
1.62205E-01 5.47383E-29
1.65435E-01 4.79224E-29
1.68690E-01 4.18927E-29
1.71970E-01 3.65646E-29
1.75276E-01 3.18622E-29
1.78606E-01 2.77174E-29
1.81961E-01 2.40692E-29
1.85340E-01 2.08627E-29
1.88743E-01 1.80490E-29
1.92169E-01 1.55840E-29
1.95619E-01 1.34285E-29
1.99092E-01 1.15472E-29
2.02589E-01 9.90856E-30
2.06107E-01 8.48454E-30
2.09649E-01 7.24996E-30
2.13212E-01 6.18238E-30
2.16797E-01 5.26180E-30
2.20404E-01 4.47037E-30
2.24032E-01 3.79224E-30
2.27680E-01 3.21328E-30
2.31350E-01 2.72096E-30
2.35040E-01 2.30415E-30
2.38751E-01 1.95297E-30
2.42481E-01 1.65871E-30
2.46231E-01 1.41364E-30
2.50000E-01 1.21096E-30
2.53788E-01 1.04466E-30
2.57595E-01 9.09473E-31
2.61421E-01 8.00760E-31
2.65264E-01 7.14465E-31
2.69126E-01 6.47041E-31
2.73005E-01 5.95398E-31
2.76901E-01 5.56847E-31
2.80814E-01 5.29058E-31
2.84744E-01 5.10020E-31
2.88691E-01 4.98000E-31
2.92653E-01 4.91513E-31
2.96632E-01 4.89293E-31
3.00625E-01 4.90265E-31
3.04634E-01 4.93523E-31
3.08658E-01 4.98306E-31
3.12697E-01 5.03986E-31
3.16749E-01 5.10043E-31
3.20816E-01 5.16056E-31
3.24896E-01 5.21689E-31
3.28990E-01 5.26678E-31
3.33097E-01 5.30820E-31
3.37216E-01 5.33966E-31
3.41348E-01 5.36013E-31
3.45492E-01 5.36895E-31
3.49647E-01 5.36579E-31
3.53814E-01 5.35057E-31
3.57992E-01 5.32345E-31
3.62181E-01 5.28474E-31
3.66381E-01 5.23491E-31
3.70590E-01 5.17453E-31
3.74810E-01 5.10426E-31
3.79039E-01 5.02481E-31
3.83277E-01 4.93694E-31
3.87524E-01 4.84144E-31
3.91780E-01 4.73908E-31
3.96044E-01 4.63067E-31
4.00316E-01 4.51698E-31
4.04596E-01 4.39876E-31
4.08882E-01 4.27675E-31
4.13176E-01 4.15166E-31
4.17476E-01 4.02416E-31
4.21783E-01 3.89487E-31
4.26095E-01 3.76440E-31
4.30413E-01 3.63329E-31
4.34737E-01 3.50207E-31
4.39065E-01 3.37120E-31
4.43398E-01 3.24112E-31
4.47736E-01 3.11223E-31
4.52077E-01 2.98489E-31
4.56422E-01 2.85940E-31
4.60770E-01 2.73606E-31
4.65122E-01 2.61512E-31
4.69476E-01 2.49680E-31
4.73832E-01 2.38128E-31
4.78190E-01 2.26873E-31
4.82550E-01 2.15927E-31
4.86912E-01 2.05302E-31
4.91274E-01 1.95006E-31
4.95637E-01 1.85046E-31
5.00000E-01 1.75425E-31
5.04363E-01 1.66147E-31
5.08726E-01 1.57212E-31
5.13088E-01 1.48620E-31
5.17450E-01 1.40369E-31
5.21810E-01 1.32456E-31
5.26168E-01 1.24878E-31
5.30524E-01 1.17628E-31
5.34878E-01 1.10701E-31
5.39230E-01 1.04090E-31
5.43578E-01 9.77889E-32
5.47923E-01 9.17892E-32
5.52264E-01 8.60830E-32
5.56602E-01 8.06616E-32
5.60935E-01 7.55164E-32
5.65263E-01 7.06382E-32
5.69587E-01 6.60181E-32
5.73905E-01 6.16467E-32
5.78217E-01 5.75148E-32
5.82524E-01 5.36130E-32
5.86824E-01 4.99321E-32
5.91118E-01 4.64629E-32
5.95404E-01 4.31964E-32
5.99684E-01 4.01236E-32
6.03956E-01 3.72358E-32
6.08220E-01 3.45243E-32
6.12476E-01 3.19808E-32
6.16723E-01 2.95970E-32
6.20961E-01 2.73651E-32
6.25190E-01 2.52772E-32
6.29410E-01 2.33260E-32
6.33619E-01 2.15041E-32
6.37819E-01 1.98046E-32
6.42008E-01 1.82209E-32
6.46186E-01 1.67463E-32
6.50353E-01 1.53747E-32
6.54508E-01 1.41002E-32
6.58652E-01 1.29170E-32
6.62784E-01 1.18197E-32
6.66903E-01 1.08032E-32
6.71010E-01 9.86234E-33
6.75104E-01 8.99251E-33
6.79184E-01 8.18920E-33
6.83251E-01 7.44812E-33
6.87303E-01 6.76522E-33
6.91342E-01 6.13665E-33
6.95366E-01 5.55879E-33
6.99375E-01 5.02817E-33
7.03368E-01 4.54156E-33
7.07347E-01 4.09587E-33
7.11309E-01 3.68821E-33
7.15256E-01 3.31585E-33
7.19186E-01 2.97622E-33
7.23099E-01 2.66692E-33
7.26995E-01 2.38566E-33
7.30874E-01 2.13034E-33
7.34736E-01 1.89895E-33
7.38579E-01 1.68963E-33
7.42405E-01 1.50063E-33
7.46212E-01 1.33033E-33
7.50000E-01 1.17720E-33
7.53769E-01 1.03982E-33
7.57519E-01 9.16863E-34
7.61249E-01 8.07110E-34
7.64960E-01 7.09412E-34
7.68650E-01 6.22706E-34
7.72320E-01 5.46009E-34
7.75968E-01 4.78406E-34
7.79596E-01 4.19053E-34
7.83203E-01 3.67169E-34
7.86788E-01 3.22033E-34
7.90351E-01 2.82979E-34
7.93893E-01 2.49396E-34
7.97411E-01 2.20719E-34
8.00908E-01 1.96431E-34
8.04381E-01 1.76057E-34
8.07831E-01 1.59162E-34
8.11257E-01 1.45348E-34
8.14660E-01 1.34252E-34
8.18039E-01 1.25542E-34
8.21394E-01 1.18917E-34
8.24724E-01 1.14105E-34
8.28030E-01 1.10854E-34
8.31310E-01 1.08943E-34
8.34565E-01 1.08167E-34
8.37795E-01 1.08344E-34
8.40999E-01 1.09311E-34
8.44177E-01 1.10920E-34
8.47329E-01 1.13040E-34
8.50455E-01 1.15555E-34
8.53553E-01 1.18362E-34
8.56625E-01 1.21368E-34
8.59670E-01 1.24495E-34
8.62687E-01 1.27671E-34
8.65677E-01 1.30836E-34
8.68639E-01 1.33938E-34
8.71572E-01 1.36931E-34
8.74478E-01 1.39777E-34
8.77355E-01 1.42445E-34
8.80203E-01 1.44909E-34
8.83022E-01 1.47147E-34
8.85812E-01 1.49142E-34
8.88573E-01 1.50882E-34
8.91304E-01 1.52358E-34
8.94005E-01 1.53564E-34
8.96677E-01 1.54497E-34
8.99318E-01 1.55156E-34
9.01928E-01 1.55543E-34
9.04508E-01 1.55662E-34
9.07058E-01 1.55517E-34
9.09576E-01 1.55115E-34
9.12063E-01 1.54464E-34
9.14519E-01 1.53573E-34
9.16943E-01 1.52450E-34
9.19335E-01 1.51107E-34
9.21696E-01 1.49554E-34
9.24024E-01 1.47801E-34
9.26320E-01 1.45861E-34
9.28584E-01 1.43745E-34
9.30815E-01 1.41464E-34
9.33013E-01 1.39032E-34
9.35178E-01 1.36457E-34
9.37310E-01 1.33754E-34
9.39409E-01 1.30933E-34
9.41474E-01 1.28004E-34
9.43505E-01 1.24980E-34
9.45503E-01 1.21871E-34
9.47467E-01 1.18687E-34
9.49397E-01 1.15439E-34
9.51293E-01 1.12136E-34
9.53154E-01 1.08787E-34
9.54981E-01 1.05402E-34
9.56773E-01 1.01990E-34
9.58530E-01 9.85578E-35
9.60252E-01 9.51145E-35
9.61940E-01 9.16674E-35
9.63592E-01 8.82237E-35
9.65209E-01 8.47904E-35
9.66790E-01 8.13740E-35
9.68336E-01 7.79803E-35
9.69846E-01 7.46157E-35
9.71321E-01 7.12853E-35
9.72759E-01 6.79944E-35
9.74162E-01 6.47478E-35
9.75528E-01 6.15502E-35
9.76858E-01 5.84057E-35
9.78152E-01 5.53183E-35
9.79410E-01 5.22920E-35
9.80631E-01 4.93300E-35
9.81815E-01 4.64356E-35
9.82963E-01 4.36118E-35
9.84074E-01 4.08615E-35
9.85148E-01 3.81872E-35
9.86185E-01 3.55910E-35
9.87185E-01 3.30755E-35
9.88148E-01 3.06426E-35
9.89074E-01 2.82939E-35
9.89962E-01 2.60315E-35
9.90814E-01 2.38564E-35
9.91627E-01 2.17707E-35
9.92404E-01 1.97753E-35
9.93143E-01 1.78712E-35
9.93844E-01 1.60598E-35
9.94508E-01 1.43419E-35
9.95134E-01 1.27185E-35
9.95722E-01 1.11902E-35
9.96273E-01 9.75772E-36
9.96786E-01 8.42179E-36
9.97261E-01 7.18282E-36
9.97698E-01 6.04134E-36
9.98097E-01 4.99797E-36
9.98459E-01 4.05276E-36
9.98782E-01 3.20635E-36
9.99067E-01 2.45889E-36
9.99315E-01 1.81058E-36
9.99524E-01 1.26176E-36
9.99695E-01 8.12410E-37
9.99829E-01 4.62800E-37
9.99924E-01 2.12986E-37
9.99981E-01 6.30733E-38
1.00000E+00 1.31667E-38
