 #
 # Subroutine ELSEPA. Elastic scattering of electrons and positrons
 #                    by neutral atoms and positive ions
 #
 # Projectile: electron
 # Kinetic energy = 9.00000E+08 eV = 3.30744E+07 a.u.
 #
 # WARNING: High-energy factorization with free-atom DF screening.
 #          Absorption, polarization and exchange corrections are
 #          switched off.
 #          Phase shifts are calculated for the bare nucleus.
 #          Scattering amplitudes are not evaluated.
 #
 # Element: Ag,  Z =  47,  atomic weight = 1.07868E+02 g/mol
 #
 # Nuclear model: Fermi distribution
 #                Average radius = 5.09348E-13 cm
 #                Skin thickness = 5.46000E-14 cm
 #
 # Number of electrons = 47
 #
 # Total elastic cross section = 4.26712E-18 cm**2 = 1.52382E-01 a0**2
 # 1st transport cross section = 5.38803E-27 cm**2 = 1.92410E-10 a0**2
 # 2nd transport cross section = 1.61621E-26 cm**2 = 5.77157E-10 a0**2
 #
 #
 # Differential cross section:                       MU=(1-COS(THETA))/2
 #
 #  THETA        MU          DCS          DCS        Sherman      error
 #  (deg)                 (cm**2/sr)   (a0**2/sr)    function
 #----------------------------------------------------------------------
0.00000E+00 2.25942E-08
7.61557E-13 1.92550E-08
1.18994E-12 1.77826E-08
1.71346E-12 1.62667E-08
2.33225E-12 1.47800E-08
3.04617E-12 1.33766E-08
3.85530E-12 1.20760E-08
4.75964E-12 1.08905E-08
5.75917E-12 9.82270E-09
6.85391E-12 8.85888E-09
8.04379E-12 7.99614E-09
9.32893E-12 7.22480E-09
1.07092E-11 6.52992E-09
1.21847E-11 5.90860E-09
1.37554E-11 5.35104E-09
1.54213E-11 4.84849E-09
1.71823E-11 4.39784E-09
1.90386E-11 3.99168E-09
2.09900E-11 3.62546E-09
2.30367E-11 3.29623E-09
2.51785E-11 2.99857E-09
2.74156E-11 2.73017E-09
2.97478E-11 2.47288E-09
3.21752E-11 2.24040E-09
3.46979E-11 2.03940E-09
3.73157E-11 1.86480E-09
4.00286E-11 1.71242E-09
4.28368E-11 1.57885E-09
4.57402E-11 1.44835E-09
4.87388E-11 1.32312E-09
5.18325E-11 1.21294E-09
5.50215E-11 1.11564E-09
5.83057E-11 1.02941E-09
6.16850E-11 9.52733E-10
6.51595E-11 8.80464E-10
6.87293E-11 8.11363E-10
7.23943E-11 7.49645E-10
7.61544E-11 6.94365E-10
1.18991E-10 3.47064E-10
1.71347E-10 1.94122E-10
2.33223E-10 1.18924E-10
3.04617E-10 7.78525E-11
3.85531E-10 5.32525E-11
4.75965E-10 3.75956E-11
5.75917E-10 2.72091E-11
6.85389E-10 2.00710E-11
8.04380E-10 1.50721E-11
9.32891E-10 1.15102E-11
1.07092E-09 8.92630E-12
1.21847E-09 7.02575E-12
1.37554E-09 5.60387E-12
1.54213E-09 4.52431E-12
1.71823E-09 3.69460E-12
1.90386E-09 3.04857E-12
2.09900E-09 2.53938E-12
2.30367E-09 2.13340E-12
2.51785E-09 1.80598E-12
2.74156E-09 1.53945E-12
2.97478E-09 1.32007E-12
3.21752E-09 1.13901E-12
3.46978E-09 9.88529E-13
3.73156E-09 8.61459E-13
4.00286E-09 7.54740E-13
4.28368E-09 6.63627E-13
4.57402E-09 5.85953E-13
4.87388E-09 5.19379E-13
5.18326E-09 4.61767E-13
5.50215E-09 4.12116E-13
5.83057E-09 3.68709E-13
6.16850E-09 3.30938E-13
6.51596E-09 2.97855E-13
6.87293E-09 2.68735E-13
7.23942E-09 2.43156E-13
7.61544E-09 2.20427E-13
1.18991E-08 9.24511E-14
1.71347E-08 4.52130E-14
2.33223E-08 2.46501E-14
3.04617E-08 1.45643E-14
3.85531E-08 9.15190E-15
4.75965E-08 6.03727E-15
5.75917E-08 4.14229E-15
6.85389E-08 2.93586E-15
8.04380E-08 2.13830E-15
9.32891E-08 1.59401E-15
1.07092E-07 1.21232E-15
1.21847E-07 9.38277E-16
1.37554E-07 7.37427E-16
1.54213E-07 5.87523E-16
1.71823E-07 4.73823E-16
1.90386E-07 3.86326E-16
2.09900E-07 3.18113E-16
2.30367E-07 2.64304E-16
2.51785E-07 2.21399E-16
2.74156E-07 1.86853E-16
2.97478E-07 1.58786E-16
3.21752E-07 1.35794E-16
3.46978E-07 1.16815E-16
3.73156E-07 1.01037E-16
4.00286E-07 8.78344E-17
4.28368E-07 7.67187E-17
4.57402E-07 6.73066E-17
4.87388E-07 5.92940E-17
5.18325E-07 5.24387E-17
5.50215E-07 4.65458E-17
5.83057E-07 4.14577E-17
6.16850E-07 3.70460E-17
6.51596E-07 3.32058E-17
6.87293E-07 2.98503E-17
7.23942E-07 2.69082E-17
7.61543E-07 2.43197E-17
1.18991E-06 9.97030E-18
1.71347E-06 4.81081E-18
2.33223E-06 2.59775E-18
3.04617E-06 1.52321E-18
3.85531E-06 9.51173E-19
4.75964E-06 6.24207E-19
5.75916E-06 4.26432E-19
6.85388E-06 3.01148E-19
8.04378E-06 2.18683E-19
9.32888E-06 1.62614E-19
1.07092E-05 1.23419E-19
1.21846E-05 9.53554E-20
1.37553E-05 7.48351E-20
1.54212E-05 5.95508E-20
1.71822E-05 4.79776E-20
1.90385E-05 3.90757E-20
2.09899E-05 3.21630E-20
2.30365E-05 2.67120E-20
2.51783E-05 2.23656E-20
2.74153E-05 1.88662E-20
2.97475E-05 1.60241E-20
3.21749E-05 1.36977E-20
3.46974E-05 1.17793E-20
3.73152E-05 1.01862E-20
4.00281E-05 8.85417E-21
4.28362E-05 7.73332E-21
4.57395E-05 6.78442E-21
4.87380E-05 5.97657E-21
5.18317E-05 5.28528E-21
5.50205E-05 4.69099E-21
5.83045E-05 4.17790E-21
6.16838E-05 3.73313E-21
6.51582E-05 3.34611E-21
6.87277E-05 3.00808E-21
7.23925E-05 2.71176E-21
7.61524E-05 2.42370E-21
9.21439E-05 1.64773E-21
1.09658E-04 1.15684E-21
1.28695E-04 8.34418E-22
1.49255E-04 6.15663E-22
1.71338E-04 4.63220E-22
1.94942E-04 3.54427E-22
2.20070E-04 2.75194E-22
2.46720E-04 2.16445E-22
2.74892E-04 1.72181E-22
3.04586E-04 1.38364E-22
3.35803E-04 1.12194E-22
3.68542E-04 9.17136E-23
4.02802E-04 7.55195E-23
4.38585E-04 6.25951E-23
4.75889E-04 5.21931E-23
5.14715E-04 4.37556E-23
5.55063E-04 3.68637E-23
5.96931E-04 3.11973E-23
6.40321E-04 2.65107E-23
6.85233E-04 2.26132E-23
7.31665E-04 1.93553E-23
7.79618E-04 1.66195E-23
8.29092E-04 1.43118E-23
8.80086E-04 1.23576E-23
9.32601E-04 1.06965E-23
9.86636E-04 9.27959E-24
1.04219E-03 8.06711E-24
1.09927E-03 7.02643E-24
1.15786E-03 6.13072E-24
1.21797E-03 5.35778E-24
1.27961E-03 4.68917E-24
1.34276E-03 4.10951E-24
1.40743E-03 3.60591E-24
1.47362E-03 3.16755E-24
1.54133E-03 2.78528E-24
1.61056E-03 2.45137E-24
1.68131E-03 2.15925E-24
1.75357E-03 1.90332E-24
1.82735E-03 1.67881E-24
1.90265E-03 1.48161E-24
1.97947E-03 1.30821E-24
2.05780E-03 1.15558E-24
2.13765E-03 1.02111E-24
2.21902E-03 9.02538E-25
2.30190E-03 7.97902E-25
2.38630E-03 7.05504E-25
2.47222E-03 6.23861E-25
2.55965E-03 5.51685E-25
2.64859E-03 4.87847E-25
2.73905E-03 4.31363E-25
2.83103E-03 3.81369E-25
2.92452E-03 3.37109E-25
3.01952E-03 2.97917E-25
3.11604E-03 2.63209E-25
3.21407E-03 2.32469E-25
3.31362E-03 2.05244E-25
3.41468E-03 1.81132E-25
3.51725E-03 1.59782E-25
3.62133E-03 1.40878E-25
3.72692E-03 1.24146E-25
3.83403E-03 1.09339E-25
3.94265E-03 9.62409E-26
4.05278E-03 8.46589E-26
4.16442E-03 7.44220E-26
4.27757E-03 6.53788E-26
4.39223E-03 5.73946E-26
4.50840E-03 5.03498E-26
4.62608E-03 4.41380E-26
4.74527E-03 3.86650E-26
4.86597E-03 3.38465E-26
4.98817E-03 2.96080E-26
5.11188E-03 2.58831E-26
5.23711E-03 2.26126E-26
5.36383E-03 1.97442E-26
5.49207E-03 1.72310E-26
5.62181E-03 1.50316E-26
5.75306E-03 1.31091E-26
5.88581E-03 1.14308E-26
6.02007E-03 9.96744E-27
6.15583E-03 8.69332E-27
6.29310E-03 7.58546E-27
6.43187E-03 6.62355E-27
6.57214E-03 5.78958E-27
6.71392E-03 5.06759E-27
6.85720E-03 4.44347E-27
7.00198E-03 3.90476E-27
7.14827E-03 3.44043E-27
7.29605E-03 3.04077E-27
7.44534E-03 2.69722E-27
7.59612E-03 2.40225E-27
7.97965E-03 1.83591E-27
8.37255E-03 1.45107E-27
8.77480E-03 1.18855E-27
9.18641E-03 1.00671E-27
9.60736E-03 8.76783E-28
1.00376E-02 7.79273E-28
1.04773E-02 7.01358E-28
1.09262E-02 6.34905E-28
1.13844E-02 5.75021E-28
1.18520E-02 5.18998E-28
1.23288E-02 4.65543E-28
1.28150E-02 4.14237E-28
1.33104E-02 3.65156E-28
1.38150E-02 3.18618E-28
1.43290E-02 2.75011E-28
1.48521E-02 2.34698E-28
1.53845E-02 1.97954E-28
1.59262E-02 1.64945E-28
1.64770E-02 1.35722E-28
1.70371E-02 1.10228E-28
1.76063E-02 8.83144E-29
1.81848E-02 6.97619E-29
1.87724E-02 5.42979E-29
1.93692E-02 4.16163E-29
1.99751E-02 3.13946E-29
2.05901E-02 2.33078E-29
2.12143E-02 1.70403E-29
2.18476E-02 1.22939E-29
2.24900E-02 8.79469E-30
2.31415E-02 6.29635E-30
2.38021E-02 4.58258E-30
2.44717E-02 3.46726E-30
2.51504E-02 2.79372E-30
2.58382E-02 2.43304E-30
2.65349E-02 2.28168E-30
2.72407E-02 2.25873E-30
2.79555E-02 2.30306E-30
2.86793E-02 2.37028E-30
2.94120E-02 2.42996E-30
3.01537E-02 2.46292E-30
3.09043E-02 2.45879E-30
3.16639E-02 2.41390E-30
3.24324E-02 2.32939E-30
3.32098E-02 2.20968E-30
3.39961E-02 2.06116E-30
3.47912E-02 1.89121E-30
3.55952E-02 1.70745E-30
3.64081E-02 1.51711E-30
3.72297E-02 1.32670E-30
3.80602E-02 1.14178E-30
3.88995E-02 9.66790E-31
3.97476E-02 8.05089E-31
4.06044E-02 6.58958E-31
4.14700E-02 5.29711E-31
4.23443E-02 4.17816E-31
4.32273E-02 3.23037E-31
4.41190E-02 2.44575E-31
4.50194E-02 1.81220E-31
4.59284E-02 1.31469E-31
4.68461E-02 9.36568E-32
4.87074E-02 4.69140E-32
5.06030E-02 2.76455E-32
5.25328E-02 2.44122E-32
5.44967E-02 2.85320E-32
5.64946E-02 3.42002E-32
5.85262E-02 3.81440E-32
6.05914E-02 3.90400E-32
6.26901E-02 3.68763E-32
6.48222E-02 3.23751E-32
6.69873E-02 2.65396E-32
6.91854E-02 2.03435E-32
7.14163E-02 1.45548E-32
7.36799E-02 9.66769E-33
7.59760E-02 5.90829E-33
7.83043E-02 3.28587E-33
8.06647E-02 1.66178E-33
8.30571E-02 8.18367E-34
8.54812E-02 5.16449E-34
8.79369E-02 5.36225E-34
9.04240E-02 7.01074E-34
9.29422E-02 8.86666E-34
9.54915E-02 1.01920E-33
9.80716E-02 1.06687E-33
1.00682E-01 1.02835E-33
1.03323E-01 9.20899E-34
1.05995E-01 7.70165E-34
1.08696E-01 6.02512E-34
1.11427E-01 4.40097E-34
1.14188E-01 2.98464E-34
1.16978E-01 1.86087E-34
1.19797E-01 1.05234E-34
1.22645E-01 5.35292E-35
1.25522E-01 2.57267E-35
1.28428E-01 1.53435E-35
1.31361E-01 1.59447E-35
1.34323E-01 2.20038E-35
1.37313E-01 2.93505E-35
1.40330E-01 3.52774E-35
1.43375E-01 3.84040E-35
1.46447E-01 3.83985E-35
1.49545E-01 3.56451E-35
1.52671E-01 3.09240E-35
1.55823E-01 2.51436E-35
1.59001E-01 1.91482E-35
1.62205E-01 1.36014E-35
1.65435E-01 8.93697E-36
1.68690E-01 5.36127E-36
1.71970E-01 2.89001E-36
1.75276E-01 1.40154E-36
1.78606E-01 6.93850E-37
1.81961E-01 5.35521E-37
1.85340E-01 7.05024E-37
1.88743E-01 1.01653E-36
1.92169E-01 1.33272E-36
1.95619E-01 1.56707E-36
1.99092E-01 1.67842E-36
2.02589E-01 1.66132E-36
2.06107E-01 1.53455E-36
2.09649E-01 1.33017E-36
2.13212E-01 1.08427E-36
2.16797E-01 8.30209E-37
2.20404E-01 5.94441E-37
2.24032E-01 3.94624E-37
2.27680E-01 2.39622E-37
2.31350E-01 1.30739E-37
2.35040E-01 6.36606E-38
2.38751E-01 1.00000E-45
2.42481E-01 1.00000E-45
2.46231E-01 1.00000E-45
2.50000E-01 1.00000E-45
2.53788E-01 1.00000E-45
2.57595E-01 1.00000E-45
2.61421E-01 1.00000E-45
2.65264E-01 1.00000E-45
2.69126E-01 1.00000E-45
2.73005E-01 1.00000E-45
2.76901E-01 1.00000E-45
2.80814E-01 1.00000E-45
2.84744E-01 1.00000E-45
2.88691E-01 1.00000E-45
2.92653E-01 1.00000E-45
2.96632E-01 1.00000E-45
3.00625E-01 1.00000E-45
3.04634E-01 1.00000E-45
3.08658E-01 1.00000E-45
3.12697E-01 1.00000E-45
3.16749E-01 1.00000E-45
3.20816E-01 1.00000E-45
3.24896E-01 1.00000E-45
3.28990E-01 1.00000E-45
3.33097E-01 1.00000E-45
3.37216E-01 1.00000E-45
3.41348E-01 1.00000E-45
3.45492E-01 1.00000E-45
3.49647E-01 1.00000E-45
3.53814E-01 1.00000E-45
3.57992E-01 1.00000E-45
3.62181E-01 1.00000E-45
3.66381E-01 1.00000E-45
3.70590E-01 1.00000E-45
3.74810E-01 1.00000E-45
3.79039E-01 1.00000E-45
3.83277E-01 1.00000E-45
3.87524E-01 1.00000E-45
3.91780E-01 1.00000E-45
3.96044E-01 1.00000E-45
4.00316E-01 1.00000E-45
4.04596E-01 1.00000E-45
4.08882E-01 1.00000E-45
4.13176E-01 1.00000E-45
4.17476E-01 1.00000E-45
4.21783E-01 1.00000E-45
4.26095E-01 1.00000E-45
4.30413E-01 1.00000E-45
4.34737E-01 1.00000E-45
4.39065E-01 1.00000E-45
4.43398E-01 1.00000E-45
4.47736E-01 1.00000E-45
4.52077E-01 1.00000E-45
4.56422E-01 1.00000E-45
4.60770E-01 1.00000E-45
4.65122E-01 1.00000E-45
4.69476E-01 1.00000E-45
4.73832E-01 1.00000E-45
4.78190E-01 1.00000E-45
4.82550E-01 1.00000E-45
4.86912E-01 1.00000E-45
4.91274E-01 1.00000E-45
4.95637E-01 1.00000E-45
5.00000E-01 1.00000E-45
5.04363E-01 1.00000E-45
5.08726E-01 1.00000E-45
5.13088E-01 1.00000E-45
5.17450E-01 1.00000E-45
5.21810E-01 1.00000E-45
5.26168E-01 1.00000E-45
5.30524E-01 1.00000E-45
5.34878E-01 1.00000E-45
5.39230E-01 1.00000E-45
5.43578E-01 1.00000E-45
5.47923E-01 1.00000E-45
5.52264E-01 1.00000E-45
5.56602E-01 1.00000E-45
5.60935E-01 1.00000E-45
5.65263E-01 1.00000E-45
5.69587E-01 1.00000E-45
5.73905E-01 1.00000E-45
5.78217E-01 1.00000E-45
5.82524E-01 1.00000E-45
5.86824E-01 1.00000E-45
5.91118E-01 1.00000E-45
5.95404E-01 1.00000E-45
5.99684E-01 1.00000E-45
6.03956E-01 1.00000E-45
6.08220E-01 1.00000E-45
6.12476E-01 1.00000E-45
6.16723E-01 1.00000E-45
6.20961E-01 1.00000E-45
6.25190E-01 1.00000E-45
6.29410E-01 1.00000E-45
6.33619E-01 1.00000E-45
6.37819E-01 1.00000E-45
6.42008E-01 1.00000E-45
6.46186E-01 1.00000E-45
6.50353E-01 1.00000E-45
6.54508E-01 1.00000E-45
6.58652E-01 1.00000E-45
6.62784E-01 1.00000E-45
6.66903E-01 1.00000E-45
6.71010E-01 1.00000E-45
6.75104E-01 1.00000E-45
6.79184E-01 1.00000E-45
6.83251E-01 1.00000E-45
6.87303E-01 1.00000E-45
6.91342E-01 1.00000E-45
6.95366E-01 1.00000E-45
6.99375E-01 1.00000E-45
7.03368E-01 1.00000E-45
7.07347E-01 1.00000E-45
7.11309E-01 1.00000E-45
7.15256E-01 1.00000E-45
7.19186E-01 1.00000E-45
7.23099E-01 1.00000E-45
7.26995E-01 1.00000E-45
7.30874E-01 1.00000E-45
7.34736E-01 1.00000E-45
7.38579E-01 1.00000E-45
7.42405E-01 1.00000E-45
7.46212E-01 1.00000E-45
7.50000E-01 1.00000E-45
7.53769E-01 1.00000E-45
7.57519E-01 1.00000E-45
7.61249E-01 1.00000E-45
7.64960E-01 1.00000E-45
7.68650E-01 1.00000E-45
7.72320E-01 1.00000E-45
7.75968E-01 1.00000E-45
7.79596E-01 1.00000E-45
7.83203E-01 1.00000E-45
7.86788E-01 1.00000E-45
7.90351E-01 1.00000E-45
7.93893E-01 1.00000E-45
7.97411E-01 1.00000E-45
8.00908E-01 1.00000E-45
8.04381E-01 1.00000E-45
8.07831E-01 1.00000E-45
8.11257E-01 1.00000E-45
8.14660E-01 1.00000E-45
8.18039E-01 1.00000E-45
8.21394E-01 1.00000E-45
8.24724E-01 1.00000E-45
8.28030E-01 1.00000E-45
8.31310E-01 1.00000E-45
8.34565E-01 1.00000E-45
8.37795E-01 1.00000E-45
8.40999E-01 1.00000E-45
8.44177E-01 1.00000E-45
8.47329E-01 1.00000E-45
8.50455E-01 1.00000E-45
8.53553E-01 1.00000E-45
8.56625E-01 1.00000E-45
8.59670E-01 1.00000E-45
8.62687E-01 1.00000E-45
8.65677E-01 1.00000E-45
8.68639E-01 1.00000E-45
8.71572E-01 1.00000E-45
8.74478E-01 1.00000E-45
8.77355E-01 1.00000E-45
8.80203E-01 1.00000E-45
8.83022E-01 1.00000E-45
8.85812E-01 1.00000E-45
8.88573E-01 1.00000E-45
8.91304E-01 1.00000E-45
8.94005E-01 1.00000E-45
8.96677E-01 1.00000E-45
8.99318E-01 1.00000E-45
9.01928E-01 1.00000E-45
9.04508E-01 1.00000E-45
9.07058E-01 1.00000E-45
9.09576E-01 1.00000E-45
9.12063E-01 1.00000E-45
9.14519E-01 1.00000E-45
9.16943E-01 1.00000E-45
9.19335E-01 1.00000E-45
9.21696E-01 1.00000E-45
9.24024E-01 1.00000E-45
9.26320E-01 1.00000E-45
9.28584E-01 1.00000E-45
9.30815E-01 1.00000E-45
9.33013E-01 1.00000E-45
9.35178E-01 1.00000E-45
9.37310E-01 1.00000E-45
9.39409E-01 1.00000E-45
9.41474E-01 1.00000E-45
9.43505E-01 1.00000E-45
9.45503E-01 1.00000E-45
9.47467E-01 1.00000E-45
9.49397E-01 1.00000E-45
9.51293E-01 1.00000E-45
9.53154E-01 1.00000E-45
9.54981E-01 1.00000E-45
9.56773E-01 1.00000E-45
9.58530E-01 1.00000E-45
9.60252E-01 1.00000E-45
9.61940E-01 1.00000E-45
9.63592E-01 1.00000E-45
9.65209E-01 1.00000E-45
9.66790E-01 1.00000E-45
9.68336E-01 1.00000E-45
9.69846E-01 1.00000E-45
9.71321E-01 1.00000E-45
9.72759E-01 1.00000E-45
9.74162E-01 1.00000E-45
9.75528E-01 1.00000E-45
9.76858E-01 1.00000E-45
9.78152E-01 1.00000E-45
9.79410E-01 1.00000E-45
9.80631E-01 1.00000E-45
9.81815E-01 1.00000E-45
9.82963E-01 1.00000E-45
9.84074E-01 1.00000E-45
9.85148E-01 1.00000E-45
9.86185E-01 1.00000E-45
9.87185E-01 1.00000E-45
9.88148E-01 1.00000E-45
9.89074E-01 1.00000E-45
9.89962E-01 1.00000E-45
9.90814E-01 1.00000E-45
9.91627E-01 1.00000E-45
9.92404E-01 1.00000E-45
9.93143E-01 1.00000E-45
9.93844E-01 1.00000E-45
9.94508E-01 1.00000E-45
9.95134E-01 1.00000E-45
9.95722E-01 1.00000E-45
9.96273E-01 1.00000E-45
9.96786E-01 1.00000E-45
9.97261E-01 1.00000E-45
9.97698E-01 1.00000E-45
9.98097E-01 1.00000E-45
9.98459E-01 1.00000E-45
9.98782E-01 1.00000E-45
9.99067E-01 1.00000E-45
9.99315E-01 1.00000E-45
9.99524E-01 1.00000E-45
9.99695E-01 1.00000E-45
9.99829E-01 1.00000E-45
9.99924E-01 1.00000E-45
9.99981E-01 1.00000E-45
1.00000E+00 1.00000E-45
