 #
 # Subroutine ELSEPA. Elastic scattering of electrons and positrons
 #                    by neutral atoms and positive ions
 #
 # Projectile: electron
 # Kinetic energy = 5.00000E+06 eV = 1.83747E+05 a.u.
 #
 # WARNING: High-energy factorization with free-atom DF screening.
 #          Absorption, polarization and exchange corrections are
 #          switched off.
 #          Phase shifts are calculated for the bare nucleus.
 #          Scattering amplitudes are not evaluated.
 #
 # Element: Ag,  Z =  47,  atomic weight = 1.07868E+02 g/mol
 #
 # Nuclear model: Fermi distribution
 #                Average radius = 5.09348E-13 cm
 #                Skin thickness = 5.46000E-14 cm
 #
 # Number of electrons = 47
 #
 # Total elastic cross section = 4.32893E-18 cm**2 = 1.54589E-01 a0**2
 # 1st transport cross section = 1.17021E-22 cm**2 = 4.17890E-06 a0**2
 # 2nd transport cross section = 3.27192E-22 cm**2 = 1.16842E-05 a0**2
 #
 #
 # Differential cross section:                       MU=(1-COS(THETA))/2
 #
 #  THETA        MU          DCS          DCS        Sherman      error
 #  (deg)                 (cm**2/sr)   (a0**2/sr)    function
 #----------------------------------------------------------------------
0.00000E+00 8.46212E-13
7.61557E-13 8.46207E-13
1.18994E-12 8.46203E-13
1.71346E-12 8.46200E-13
2.33225E-12 8.46195E-13
3.04617E-12 8.46190E-13
3.85530E-12 8.46184E-13
4.75964E-12 8.46178E-13
5.75917E-12 8.46171E-13
6.85391E-12 8.46163E-13
8.04379E-12 8.46155E-13
9.32893E-12 8.46145E-13
1.07092E-11 8.46135E-13
1.21847E-11 8.46125E-13
1.37554E-11 8.46114E-13
1.54213E-11 8.46102E-13
1.71823E-11 8.46089E-13
1.90386E-11 8.46076E-13
2.09900E-11 8.46062E-13
2.30367E-11 8.46047E-13
2.51785E-11 8.46032E-13
2.74156E-11 8.46016E-13
2.97478E-11 8.45999E-13
3.21752E-11 8.45982E-13
3.46979E-11 8.45964E-13
3.73157E-11 8.45945E-13
4.00286E-11 8.45926E-13
4.28368E-11 8.45906E-13
4.57402E-11 8.45885E-13
4.87388E-11 8.45864E-13
5.18325E-11 8.45842E-13
5.50215E-11 8.45819E-13
5.83057E-11 8.45795E-13
6.16850E-11 8.45771E-13
6.51595E-11 8.45746E-13
6.87293E-11 8.45721E-13
7.23943E-11 8.45695E-13
7.61544E-11 8.45668E-13
1.18991E-10 8.45362E-13
1.71347E-10 8.44989E-13
2.33223E-10 8.44548E-13
3.04617E-10 8.44040E-13
3.85531E-10 8.43464E-13
4.75965E-10 8.42822E-13
5.75917E-10 8.42114E-13
6.85389E-10 8.41340E-13
8.04380E-10 8.40499E-13
9.32891E-10 8.39594E-13
1.07092E-09 8.38624E-13
1.21847E-09 8.37589E-13
1.37554E-09 8.36490E-13
1.54213E-09 8.35328E-13
1.71823E-09 8.34103E-13
1.90386E-09 8.32815E-13
2.09900E-09 8.31466E-13
2.30367E-09 8.30055E-13
2.51785E-09 8.28585E-13
2.74156E-09 8.27054E-13
2.97478E-09 8.25464E-13
3.21752E-09 8.23816E-13
3.46978E-09 8.22110E-13
3.73156E-09 8.20348E-13
4.00286E-09 8.18529E-13
4.28368E-09 8.16655E-13
4.57402E-09 8.14726E-13
4.87388E-09 8.12744E-13
5.18326E-09 8.10709E-13
5.50215E-09 8.08622E-13
5.83057E-09 8.06484E-13
6.16850E-09 8.04296E-13
6.51596E-09 8.02058E-13
6.87293E-09 7.99773E-13
7.23942E-09 7.97440E-13
7.61544E-09 7.95060E-13
1.18991E-08 7.68929E-13
1.71347E-08 7.39253E-13
2.33223E-08 7.07039E-13
3.04617E-08 6.73236E-13
3.85531E-08 6.38688E-13
4.75965E-08 6.04107E-13
5.75917E-08 5.70059E-13
6.85389E-08 5.36972E-13
8.04380E-08 5.05148E-13
9.32891E-08 4.74783E-13
1.07092E-07 4.45987E-13
1.21847E-07 4.18804E-13
1.37554E-07 3.93228E-13
1.54213E-07 3.69223E-13
1.71823E-07 3.46726E-13
1.90386E-07 3.25666E-13
2.09900E-07 3.05960E-13
2.30367E-07 2.87527E-13
2.51785E-07 2.70285E-13
2.74156E-07 2.54154E-13
2.97478E-07 2.39058E-13
3.21752E-07 2.24928E-13
3.46978E-07 2.11696E-13
3.73156E-07 1.99302E-13
4.00286E-07 1.87689E-13
4.28368E-07 1.76803E-13
4.57402E-07 1.66596E-13
4.87388E-07 1.57023E-13
5.18325E-07 1.48043E-13
5.50215E-07 1.39616E-13
5.83057E-07 1.31706E-13
6.16850E-07 1.24281E-13
6.51596E-07 1.17309E-13
6.87293E-07 1.10762E-13
7.23942E-07 1.04611E-13
7.61543E-07 9.88333E-14
1.18991E-06 5.70510E-14
1.71347E-06 3.42429E-14
2.33223E-06 2.14892E-14
3.04617E-06 1.41253E-14
3.85531E-06 9.70527E-15
4.75964E-06 6.93647E-15
5.75916E-06 5.12504E-15
6.85388E-06 3.89013E-15
8.04378E-06 3.01672E-15
9.32888E-06 2.37938E-15
1.07092E-05 1.90228E-15
1.21846E-05 1.53780E-15
1.37553E-05 1.25485E-15
1.54212E-05 1.03239E-15
1.71822E-05 8.55692E-16
1.90385E-05 7.14131E-16
2.09899E-05 5.99878E-16
2.30365E-05 5.07046E-16
2.51783E-05 4.31148E-16
2.74153E-05 3.68724E-16
2.97475E-05 3.17085E-16
3.21749E-05 2.74127E-16
3.46974E-05 2.38193E-16
3.73152E-05 2.07970E-16
4.00281E-05 1.82417E-16
4.28362E-05 1.60699E-16
4.57395E-05 1.42150E-16
4.87380E-05 1.26231E-16
5.18317E-05 1.12504E-16
5.50205E-05 1.00615E-16
5.83045E-05 9.02751E-17
6.16838E-05 8.12451E-17
6.51582E-05 7.33287E-17
6.87277E-05 6.63632E-17
7.23925E-05 6.02131E-17
7.61524E-05 5.47653E-17
9.21439E-05 3.82971E-17
1.09658E-04 2.75906E-17
1.28695E-04 2.03747E-17
1.49255E-04 1.53650E-17
1.71338E-04 1.17991E-17
1.94942E-04 9.20600E-18
2.20070E-04 7.28497E-18
2.46720E-04 5.83817E-18
2.74892E-04 4.73237E-18
3.04586E-04 3.87590E-18
3.35803E-04 3.20447E-18
3.68542E-04 2.67228E-18
4.02802E-04 2.24614E-18
4.38585E-04 1.90173E-18
4.75889E-04 1.62097E-18
5.14715E-04 1.39025E-18
5.55063E-04 1.19925E-18
5.96931E-04 1.04004E-18
6.40321E-04 9.06462E-19
6.85233E-04 7.93723E-19
7.31665E-04 6.98032E-19
7.79618E-04 6.16384E-19
8.29092E-04 5.46372E-19
8.80086E-04 4.86057E-19
9.32601E-04 4.33869E-19
9.86636E-04 3.88524E-19
1.04219E-03 3.48972E-19
1.09927E-03 3.14345E-19
1.15786E-03 2.83923E-19
1.21797E-03 2.57106E-19
1.27961E-03 2.33393E-19
1.34276E-03 2.12361E-19
1.40743E-03 1.93654E-19
1.47362E-03 1.76969E-19
1.54133E-03 1.62049E-19
1.61056E-03 1.48675E-19
1.68131E-03 1.36656E-19
1.75357E-03 1.25833E-19
1.82735E-03 1.16063E-19
1.90265E-03 1.07227E-19
1.97947E-03 9.92190E-20
2.05780E-03 9.19474E-20
2.13765E-03 8.53323E-20
2.21902E-03 7.93037E-20
2.30190E-03 7.38002E-20
2.38630E-03 6.87677E-20
2.47222E-03 6.41586E-20
2.55965E-03 5.99307E-20
2.64859E-03 5.60468E-20
2.73905E-03 5.24737E-20
2.83103E-03 4.91820E-20
2.92452E-03 4.61455E-20
3.01952E-03 4.33407E-20
3.11604E-03 4.07468E-20
3.21407E-03 3.83449E-20
3.31362E-03 3.61181E-20
3.41468E-03 3.40514E-20
3.51725E-03 3.21312E-20
3.62133E-03 3.03450E-20
3.72692E-03 2.86818E-20
3.83403E-03 2.71316E-20
3.94265E-03 2.56852E-20
4.05278E-03 2.43345E-20
4.16442E-03 2.30718E-20
4.27757E-03 2.18904E-20
4.39223E-03 2.07840E-20
4.50840E-03 1.97471E-20
4.62608E-03 1.87744E-20
4.74527E-03 1.78612E-20
4.86597E-03 1.70031E-20
4.98817E-03 1.61963E-20
5.11188E-03 1.54371E-20
5.23711E-03 1.47220E-20
5.36383E-03 1.40482E-20
5.49207E-03 1.34127E-20
5.62181E-03 1.28130E-20
5.75306E-03 1.22466E-20
5.88581E-03 1.17114E-20
6.02007E-03 1.12053E-20
6.15583E-03 1.07265E-20
6.29310E-03 1.02731E-20
6.43187E-03 9.84358E-21
6.57214E-03 9.43644E-21
6.71392E-03 9.05028E-21
6.85720E-03 8.68382E-21
7.00198E-03 8.33585E-21
7.14827E-03 8.00527E-21
7.29605E-03 7.69104E-21
7.44534E-03 7.39219E-21
7.59612E-03 7.10783E-21
7.97965E-03 6.45495E-21
8.37255E-03 5.87590E-21
8.77480E-03 5.36083E-21
9.18641E-03 4.90143E-21
9.60736E-03 4.49060E-21
1.00376E-02 4.12228E-21
1.04773E-02 3.79128E-21
1.09262E-02 3.49313E-21
1.13844E-02 3.22399E-21
1.18520E-02 2.98052E-21
1.23288E-02 2.75981E-21
1.28150E-02 2.55936E-21
1.33104E-02 2.37695E-21
1.38150E-02 2.21068E-21
1.43290E-02 2.05884E-21
1.48521E-02 1.91995E-21
1.53845E-02 1.79270E-21
1.59262E-02 1.67593E-21
1.64770E-02 1.56862E-21
1.70371E-02 1.46986E-21
1.76063E-02 1.37884E-21
1.81848E-02 1.29484E-21
1.87724E-02 1.21721E-21
1.93692E-02 1.14538E-21
1.99751E-02 1.07883E-21
2.05901E-02 1.01711E-21
2.12143E-02 9.59795E-22
2.18476E-02 9.06508E-22
2.24900E-02 8.56916E-22
2.31415E-02 8.10711E-22
2.38021E-02 7.67621E-22
2.44717E-02 7.27389E-22
2.51504E-02 6.89797E-22
2.58382E-02 6.54631E-22
2.65349E-02 6.21710E-22
2.72407E-02 5.90860E-22
2.79555E-02 5.61925E-22
2.86793E-02 5.34765E-22
2.94120E-02 5.09248E-22
3.01537E-02 4.85257E-22
3.09043E-02 4.62681E-22
3.16639E-02 4.41422E-22
3.24324E-02 4.21387E-22
3.32098E-02 4.02492E-22
3.39961E-02 3.84659E-22
3.47912E-02 3.67818E-22
3.55952E-02 3.51901E-22
3.64081E-02 3.36849E-22
3.72297E-02 3.22604E-22
3.80602E-02 3.09116E-22
3.88995E-02 2.96336E-22
3.97476E-02 2.84219E-22
4.06044E-02 2.72724E-22
4.14700E-02 2.61814E-22
4.23443E-02 2.51451E-22
4.32273E-02 2.41604E-22
4.41190E-02 2.32242E-22
4.50194E-02 2.23335E-22
4.59284E-02 2.14858E-22
4.68461E-02 2.06785E-22
4.87074E-02 1.91762E-22
5.06030E-02 1.78098E-22
5.25328E-02 1.65647E-22
5.44967E-02 1.54281E-22
5.64946E-02 1.43888E-22
5.85262E-02 1.34367E-22
6.05914E-02 1.25633E-22
6.26901E-02 1.17606E-22
6.48222E-02 1.10220E-22
6.69873E-02 1.03413E-22
6.91854E-02 9.71303E-23
7.14163E-02 9.13245E-23
7.36799E-02 8.59519E-23
7.59760E-02 8.09741E-23
7.83043E-02 7.63562E-23
8.06647E-02 7.20673E-23
8.30571E-02 6.80792E-23
8.54812E-02 6.43668E-23
8.79369E-02 6.09073E-23
9.04240E-02 5.76800E-23
9.29422E-02 5.46663E-23
9.54915E-02 5.18490E-23
9.80716E-02 4.92132E-23
1.00682E-01 4.67445E-23
1.03323E-01 4.44305E-23
1.05995E-01 4.22595E-23
1.08696E-01 4.02209E-23
1.11427E-01 3.83049E-23
1.14188E-01 3.65028E-23
1.16978E-01 3.48063E-23
1.19797E-01 3.32082E-23
1.22645E-01 3.17016E-23
1.25522E-01 3.02801E-23
1.28428E-01 2.89381E-23
1.31361E-01 2.76700E-23
1.34323E-01 2.64712E-23
1.37313E-01 2.53369E-23
1.40330E-01 2.42631E-23
1.43375E-01 2.32459E-23
1.46447E-01 2.22818E-23
1.49545E-01 2.13673E-23
1.52671E-01 2.04994E-23
1.55823E-01 1.96752E-23
1.59001E-01 1.88922E-23
1.62205E-01 1.81478E-23
1.65435E-01 1.74397E-23
1.68690E-01 1.67659E-23
1.71970E-01 1.61243E-23
1.75276E-01 1.55131E-23
1.78606E-01 1.49305E-23
1.81961E-01 1.43749E-23
1.85340E-01 1.38449E-23
1.88743E-01 1.33390E-23
1.92169E-01 1.28559E-23
1.95619E-01 1.23944E-23
1.99092E-01 1.19533E-23
2.02589E-01 1.15315E-23
2.06107E-01 1.11280E-23
2.09649E-01 1.07418E-23
2.13212E-01 1.03721E-23
2.16797E-01 1.00180E-23
2.20404E-01 9.67879E-24
2.24032E-01 9.35361E-24
2.27680E-01 9.04179E-24
2.31350E-01 8.74268E-24
2.35040E-01 8.45566E-24
2.38751E-01 8.18016E-24
2.42481E-01 7.91560E-24
2.46231E-01 7.66148E-24
2.50000E-01 7.41729E-24
2.53788E-01 7.18256E-24
2.57595E-01 6.95684E-24
2.61421E-01 6.73974E-24
2.65264E-01 6.53086E-24
2.69126E-01 6.32983E-24
2.73005E-01 6.13629E-24
2.76901E-01 5.94990E-24
2.80814E-01 5.77034E-24
2.84744E-01 5.59731E-24
2.88691E-01 5.43053E-24
2.92653E-01 5.26973E-24
2.96632E-01 5.11467E-24
3.00625E-01 4.96509E-24
3.04634E-01 4.82075E-24
3.08658E-01 4.68143E-24
3.12697E-01 4.54692E-24
3.16749E-01 4.41703E-24
3.20816E-01 4.29156E-24
3.24896E-01 4.17035E-24
3.28990E-01 4.05323E-24
3.33097E-01 3.94001E-24
3.37216E-01 3.83054E-24
3.41348E-01 3.72465E-24
3.45492E-01 3.62222E-24
3.49647E-01 3.52315E-24
3.53814E-01 3.42729E-24
3.57992E-01 3.33449E-24
3.62181E-01 3.24463E-24
3.66381E-01 3.15762E-24
3.70590E-01 3.07334E-24
3.74810E-01 2.99171E-24
3.79039E-01 2.91261E-24
3.83277E-01 2.83596E-24
3.87524E-01 2.76165E-24
3.91780E-01 2.68961E-24
3.96044E-01 2.61975E-24
4.00316E-01 2.55199E-24
4.04596E-01 2.48626E-24
4.08882E-01 2.42249E-24
4.13176E-01 2.36061E-24
4.17476E-01 2.30055E-24
4.21783E-01 2.24224E-24
4.26095E-01 2.18563E-24
4.30413E-01 2.13065E-24
4.34737E-01 2.07726E-24
4.39065E-01 2.02539E-24
4.43398E-01 1.97500E-24
4.47736E-01 1.92603E-24
4.52077E-01 1.87844E-24
4.56422E-01 1.83218E-24
4.60770E-01 1.78721E-24
4.65122E-01 1.74348E-24
4.69476E-01 1.70095E-24
4.73832E-01 1.65959E-24
4.78190E-01 1.61935E-24
4.82550E-01 1.58021E-24
4.86912E-01 1.54212E-24
4.91274E-01 1.50505E-24
4.95637E-01 1.46897E-24
5.00000E-01 1.43385E-24
5.04363E-01 1.39965E-24
5.08726E-01 1.36636E-24
5.13088E-01 1.33393E-24
5.17450E-01 1.30235E-24
5.21810E-01 1.27159E-24
5.26168E-01 1.24162E-24
5.30524E-01 1.21242E-24
5.34878E-01 1.18397E-24
5.39230E-01 1.15624E-24
5.43578E-01 1.12921E-24
5.47923E-01 1.10286E-24
5.52264E-01 1.07717E-24
5.56602E-01 1.05212E-24
5.60935E-01 1.02770E-24
5.65263E-01 1.00388E-24
5.69587E-01 9.80651E-25
5.73905E-01 9.57989E-25
5.78217E-01 9.35880E-25
5.82524E-01 9.14310E-25
5.86824E-01 8.93261E-25
5.91118E-01 8.72721E-25
5.95404E-01 8.52674E-25
5.99684E-01 8.33107E-25
6.03956E-01 8.14007E-25
6.08220E-01 7.95359E-25
6.12476E-01 7.77153E-25
6.16723E-01 7.59374E-25
6.20961E-01 7.42014E-25
6.25190E-01 7.25059E-25
6.29410E-01 7.08498E-25
6.33619E-01 6.92322E-25
6.37819E-01 6.76519E-25
6.42008E-01 6.61080E-25
6.46186E-01 6.45996E-25
6.50353E-01 6.31256E-25
6.54508E-01 6.16852E-25
6.58652E-01 6.02776E-25
6.62784E-01 5.89017E-25
6.66903E-01 5.75569E-25
6.71010E-01 5.62424E-25
6.75104E-01 5.49572E-25
6.79184E-01 5.37008E-25
6.83251E-01 5.24723E-25
6.87303E-01 5.12711E-25
6.91342E-01 5.00965E-25
6.95366E-01 4.89478E-25
6.99375E-01 4.78243E-25
7.03368E-01 4.67255E-25
7.07347E-01 4.56507E-25
7.11309E-01 4.45993E-25
7.15256E-01 4.35707E-25
7.19186E-01 4.25645E-25
7.23099E-01 4.15800E-25
7.26995E-01 4.06168E-25
7.30874E-01 3.96743E-25
7.34736E-01 3.87520E-25
7.38579E-01 3.78494E-25
7.42405E-01 3.69661E-25
7.46212E-01 3.61017E-25
7.50000E-01 3.52556E-25
7.53769E-01 3.44274E-25
7.57519E-01 3.36168E-25
7.61249E-01 3.28233E-25
7.64960E-01 3.20466E-25
7.68650E-01 3.12861E-25
7.72320E-01 3.05417E-25
7.75968E-01 2.98128E-25
7.79596E-01 2.90992E-25
7.83203E-01 2.84006E-25
7.86788E-01 2.77165E-25
7.90351E-01 2.70466E-25
7.93893E-01 2.63907E-25
7.97411E-01 2.57484E-25
8.00908E-01 2.51195E-25
8.04381E-01 2.45036E-25
8.07831E-01 2.39004E-25
8.11257E-01 2.33097E-25
8.14660E-01 2.27312E-25
8.18039E-01 2.21647E-25
8.21394E-01 2.16099E-25
8.24724E-01 2.10665E-25
8.28030E-01 2.05343E-25
8.31310E-01 2.00131E-25
8.34565E-01 1.95026E-25
8.37795E-01 1.90027E-25
8.40999E-01 1.85130E-25
8.44177E-01 1.80334E-25
8.47329E-01 1.75638E-25
8.50455E-01 1.71038E-25
8.53553E-01 1.66533E-25
8.56625E-01 1.62121E-25
8.59670E-01 1.57800E-25
8.62687E-01 1.53568E-25
8.65677E-01 1.49424E-25
8.68639E-01 1.45366E-25
8.71572E-01 1.41392E-25
8.74478E-01 1.37501E-25
8.77355E-01 1.33691E-25
8.80203E-01 1.29960E-25
8.83022E-01 1.26307E-25
8.85812E-01 1.22731E-25
8.88573E-01 1.19229E-25
8.91304E-01 1.15801E-25
8.94005E-01 1.12446E-25
8.96677E-01 1.09162E-25
8.99318E-01 1.05947E-25
9.01928E-01 1.02801E-25
9.04508E-01 9.97219E-26
9.07058E-01 9.67090E-26
9.09576E-01 9.37610E-26
9.12063E-01 9.08768E-26
9.14519E-01 8.80552E-26
9.16943E-01 8.52952E-26
9.19335E-01 8.25958E-26
9.21696E-01 7.99559E-26
9.24024E-01 7.73746E-26
9.26320E-01 7.48508E-26
9.28584E-01 7.23837E-26
9.30815E-01 6.99723E-26
9.33013E-01 6.76158E-26
9.35178E-01 6.53132E-26
9.37310E-01 6.30638E-26
9.39409E-01 6.08667E-26
9.41474E-01 5.87211E-26
9.43505E-01 5.66262E-26
9.45503E-01 5.45813E-26
9.47467E-01 5.25857E-26
9.49397E-01 5.06386E-26
9.51293E-01 4.87393E-26
9.53154E-01 4.68872E-26
9.54981E-01 4.50816E-26
9.56773E-01 4.33218E-26
9.58530E-01 4.16073E-26
9.60252E-01 3.99375E-26
9.61940E-01 3.83116E-26
9.63592E-01 3.67293E-26
9.65209E-01 3.51899E-26
9.66790E-01 3.36929E-26
9.68336E-01 3.22378E-26
9.69846E-01 3.08241E-26
9.71321E-01 2.94512E-26
9.72759E-01 2.81188E-26
9.74162E-01 2.68263E-26
9.75528E-01 2.55733E-26
9.76858E-01 2.43594E-26
9.78152E-01 2.31842E-26
9.79410E-01 2.20473E-26
9.80631E-01 2.09483E-26
9.81815E-01 1.98867E-26
9.82963E-01 1.88624E-26
9.84074E-01 1.78748E-26
9.85148E-01 1.69238E-26
9.86185E-01 1.60089E-26
9.87185E-01 1.51298E-26
9.88148E-01 1.42864E-26
9.89074E-01 1.34782E-26
9.89962E-01 1.27050E-26
9.90814E-01 1.19665E-26
9.91627E-01 1.12626E-26
9.92404E-01 1.05930E-26
9.93143E-01 9.95736E-27
9.93844E-01 9.35560E-27
9.94508E-01 8.78749E-27
9.95134E-01 8.25282E-27
9.95722E-01 7.75144E-27
9.96273E-01 7.28317E-27
9.96786E-01 6.84786E-27
9.97261E-01 6.44536E-27
9.97698E-01 6.07555E-27
9.98097E-01 5.73830E-27
9.98459E-01 5.43350E-27
9.98782E-01 5.16106E-27
9.99067E-01 4.92087E-27
9.99315E-01 4.71287E-27
9.99524E-01 4.53698E-27
9.99695E-01 4.39315E-27
9.99829E-01 4.28134E-27
9.99924E-01 4.20149E-27
9.99981E-01 4.15360E-27
1.00000E+00 4.13763E-27
