 #
 # Subroutine ELSEPA. Elastic scattering of electrons and positrons
 #                    by neutral atoms and positive ions
 #
 # Projectile: electron
 # Kinetic energy = 3.50000E+08 eV = 1.28623E+07 a.u.
 #
 # WARNING: High-energy factorization with free-atom DF screening.
 #          Absorption, polarization and exchange corrections are
 #          switched off.
 #          Phase shifts are calculated for the bare nucleus.
 #          Scattering amplitudes are not evaluated.
 #
 # Element: Ag,  Z =  47,  atomic weight = 1.07868E+02 g/mol
 #
 # Nuclear model: Fermi distribution
 #                Average radius = 5.09348E-13 cm
 #                Skin thickness = 5.46000E-14 cm
 #
 # Number of electrons = 47
 #
 # Total elastic cross section = 4.27776E-18 cm**2 = 1.52762E-01 a0**2
 # 1st transport cross section = 3.56286E-26 cm**2 = 1.27232E-09 a0**2
 # 2nd transport cross section = 1.06799E-25 cm**2 = 3.81386E-09 a0**2
 #
 #
 # Differential cross section:                       MU=(1-COS(THETA))/2
 #
 #  THETA        MU          DCS          DCS        Sherman      error
 #  (deg)                 (cm**2/sr)   (a0**2/sr)    function
 #----------------------------------------------------------------------
0.00000E+00 3.42312E-09
7.61557E-13 3.33541E-09
1.18994E-12 3.28806E-09
1.71346E-12 3.23200E-09
2.33225E-12 3.16795E-09
3.04617E-12 3.09752E-09
3.85530E-12 3.02119E-09
4.75964E-12 2.94027E-09
5.75917E-12 2.85621E-09
6.85391E-12 2.76893E-09
8.04379E-12 2.68032E-09
9.32893E-12 2.59118E-09
1.07092E-11 2.50127E-09
1.21847E-11 2.41239E-09
1.37554E-11 2.32457E-09
1.54213E-11 2.23787E-09
1.71823E-11 2.15359E-09
1.90386E-11 2.07107E-09
2.09900E-11 1.99088E-09
2.30367E-11 1.91374E-09
2.51785E-11 1.83847E-09
2.74156E-11 1.76618E-09
2.97478E-11 1.69694E-09
3.21752E-11 1.62959E-09
3.46979E-11 1.56537E-09
3.73157E-11 1.50377E-09
4.00286E-11 1.44426E-09
4.28368E-11 1.38764E-09
4.57402E-11 1.33314E-09
4.87388E-11 1.28080E-09
5.18325E-11 1.23104E-09
5.50215E-11 1.18291E-09
5.83057E-11 1.13695E-09
6.16850E-11 1.09324E-09
6.51595E-11 1.05076E-09
6.87293E-11 1.01038E-09
7.23943E-11 9.71769E-10
7.61544E-11 9.34429E-10
1.18991E-10 6.37137E-10
1.71347E-10 4.39415E-10
2.33223E-10 3.02116E-10
3.04617E-10 2.16649E-10
3.85531E-10 1.55579E-10
4.75965E-10 1.14255E-10
5.75917E-10 8.57901E-11
6.85389E-10 6.51670E-11
8.04380E-10 5.06037E-11
9.32891E-10 3.99953E-11
1.07092E-09 3.20650E-11
1.21847E-09 2.61191E-11
1.37554E-09 2.15485E-11
1.54213E-09 1.79671E-11
1.71823E-09 1.51445E-11
1.90386E-09 1.28636E-11
2.09900E-09 1.10052E-11
2.30367E-09 9.48529E-12
2.51785E-09 8.20746E-12
2.74156E-09 7.14080E-12
2.97478E-09 6.24385E-12
3.21752E-09 5.47232E-12
3.46978E-09 4.81773E-12
3.73156E-09 4.25531E-12
4.00286E-09 3.76763E-12
4.28368E-09 3.34805E-12
4.57402E-09 2.98262E-12
4.87388E-09 2.66338E-12
5.18326E-09 2.38534E-12
5.50215E-09 2.14071E-12
5.83057E-09 1.92640E-12
6.16850E-09 1.73826E-12
6.51596E-09 1.57151E-12
6.87293E-09 1.42446E-12
7.23942E-09 1.29412E-12
7.61544E-09 1.17804E-12
1.18991E-08 5.11611E-13
1.71347E-08 2.58390E-13
2.33223E-08 1.44708E-13
3.04617E-08 8.72911E-14
3.85531E-08 5.56754E-14
4.75965E-08 3.71222E-14
5.75917E-08 2.56539E-14
6.85389E-08 1.82814E-14
8.04380E-08 1.33692E-14
9.32891E-08 9.99912E-15
1.07092E-07 7.62664E-15
1.21847E-07 5.91739E-15
1.37554E-07 4.66166E-15
1.54213E-07 3.72220E-15
1.71823E-07 3.00815E-15
1.90386E-07 2.45761E-15
2.09900E-07 2.02753E-15
2.30367E-07 1.68768E-15
2.51785E-07 1.41619E-15
2.74156E-07 1.19720E-15
2.97478E-07 1.01899E-15
3.21752E-07 8.72747E-16
3.46978E-07 7.51841E-16
3.73156E-07 6.51165E-16
4.00286E-07 5.66794E-16
4.28368E-07 4.95658E-16
4.57402E-07 4.35334E-16
4.87388E-07 3.83916E-16
5.18325E-07 3.39866E-16
5.50215E-07 3.01954E-16
5.83057E-07 2.69183E-16
6.16850E-07 2.40735E-16
6.51596E-07 2.15948E-16
6.87293E-07 1.94267E-16
7.23942E-07 1.75239E-16
7.61543E-07 1.58483E-16
1.18991E-06 6.52765E-17
1.71347E-06 3.15801E-17
2.33223E-06 1.70798E-17
3.04617E-06 1.00250E-17
3.85531E-06 6.26436E-18
4.75964E-06 4.11291E-18
5.75916E-06 2.81071E-18
6.85388E-06 1.98544E-18
8.04378E-06 1.44203E-18
9.32888E-06 1.07245E-18
1.07092E-05 8.14057E-19
1.21846E-05 6.29010E-19
1.37553E-05 4.93686E-19
1.54212E-05 3.92879E-19
1.71822E-05 3.16542E-19
1.90385E-05 2.57821E-19
2.09899E-05 2.12218E-19
2.30365E-05 1.76257E-19
2.51783E-05 1.47582E-19
2.74153E-05 1.24494E-19
2.97475E-05 1.05742E-19
3.21749E-05 9.03928E-20
3.46974E-05 7.77342E-20
3.73152E-05 6.72219E-20
4.00281E-05 5.84324E-20
4.28362E-05 5.10363E-20
4.57395E-05 4.47744E-20
4.87380E-05 3.94435E-20
5.18317E-05 3.48814E-20
5.50205E-05 3.09596E-20
5.83045E-05 2.75735E-20
6.16838E-05 2.46383E-20
6.51582E-05 2.20841E-20
6.87277E-05 1.98533E-20
7.23925E-05 1.78977E-20
7.61524E-05 1.62172E-20
9.21439E-05 1.10844E-20
1.09658E-04 7.83073E-21
1.28695E-04 5.68833E-21
1.49255E-04 4.23052E-21
1.71338E-04 3.21112E-21
1.94942E-04 2.48078E-21
2.20070E-04 1.94655E-21
2.46720E-04 1.54849E-21
2.74892E-04 1.24697E-21
3.04586E-04 1.01524E-21
3.35803E-04 8.34763E-22
3.68542E-04 6.92533E-22
4.02802E-04 5.79222E-22
4.38585E-04 4.88058E-22
4.75889E-04 4.14050E-22
5.14715E-04 3.53465E-22
5.55063E-04 3.03492E-22
5.96931E-04 2.61977E-22
6.40321E-04 2.27264E-22
6.85233E-04 1.98060E-22
7.31665E-04 1.73350E-22
7.79618E-04 1.52333E-22
8.29092E-04 1.34366E-22
8.80086E-04 1.18936E-22
9.32601E-04 1.05626E-22
9.86636E-04 9.40976E-23
1.04219E-03 8.40731E-23
1.09927E-03 7.53243E-23
1.15786E-03 6.76624E-23
1.21797E-03 6.09301E-23
1.27961E-03 5.49962E-23
1.34276E-03 4.97505E-23
1.40743E-03 4.51000E-23
1.47362E-03 4.09663E-23
1.54133E-03 3.72824E-23
1.61056E-03 3.39914E-23
1.68131E-03 3.10445E-23
1.75357E-03 2.84000E-23
1.82735E-03 2.60217E-23
1.90265E-03 2.38785E-23
1.97947E-03 2.19434E-23
2.05780E-03 2.01929E-23
2.13765E-03 1.86065E-23
2.21902E-03 1.71665E-23
2.30190E-03 1.58571E-23
2.38630E-03 1.46646E-23
2.47222E-03 1.35769E-23
2.55965E-03 1.25834E-23
2.64859E-03 1.16745E-23
2.73905E-03 1.08421E-23
2.83103E-03 1.00785E-23
2.92452E-03 9.37734E-24
3.01952E-03 8.73262E-24
3.11604E-03 8.13913E-24
3.21407E-03 7.59217E-24
3.31362E-03 7.08754E-24
3.41468E-03 6.62147E-24
3.51725E-03 6.19057E-24
3.62133E-03 5.79179E-24
3.72692E-03 5.42239E-24
3.83403E-03 5.07989E-24
3.94265E-03 4.76203E-24
4.05278E-03 4.46679E-24
4.16442E-03 4.19233E-24
4.27757E-03 3.93699E-24
4.39223E-03 3.69923E-24
4.50840E-03 3.47768E-24
4.62608E-03 3.27108E-24
4.74527E-03 3.07828E-24
4.86597E-03 2.89824E-24
4.98817E-03 2.73000E-24
5.11188E-03 2.57267E-24
5.23711E-03 2.42547E-24
5.36383E-03 2.28765E-24
5.49207E-03 2.15853E-24
5.62181E-03 2.03751E-24
5.75306E-03 1.92399E-24
5.88581E-03 1.81747E-24
6.02007E-03 1.71746E-24
6.15583E-03 1.62350E-24
6.29310E-03 1.53520E-24
6.43187E-03 1.45216E-24
6.57214E-03 1.37404E-24
6.71392E-03 1.30051E-24
6.85720E-03 1.23127E-24
7.00198E-03 1.16605E-24
7.14827E-03 1.10458E-24
7.29605E-03 1.04662E-24
7.44534E-03 9.91953E-25
7.59612E-03 9.40371E-25
7.97965E-03 8.23679E-25
8.37255E-03 7.22438E-25
8.77480E-03 6.34418E-25
9.18641E-03 5.57744E-25
9.60736E-03 4.90833E-25
1.00376E-02 4.32344E-25
1.04773E-02 3.81137E-25
1.09262E-02 3.36241E-25
1.13844E-02 2.96827E-25
1.18520E-02 2.62183E-25
1.23288E-02 2.31697E-25
1.28150E-02 2.04843E-25
1.33104E-02 1.81165E-25
1.38150E-02 1.60271E-25
1.43290E-02 1.41818E-25
1.48521E-02 1.25511E-25
1.53845E-02 1.11090E-25
1.59262E-02 9.83309E-26
1.64770E-02 8.70368E-26
1.70371E-02 7.70354E-26
1.76063E-02 6.81757E-26
1.81848E-02 6.03252E-26
1.87724E-02 5.33677E-26
1.93692E-02 4.72005E-26
1.99751E-02 4.17335E-26
2.05901E-02 3.68871E-26
2.12143E-02 3.25908E-26
2.18476E-02 2.87828E-26
2.24900E-02 2.54078E-26
2.31415E-02 2.24174E-26
2.38021E-02 1.97683E-26
2.44717E-02 1.74224E-26
2.51504E-02 1.53457E-26
2.58382E-02 1.35081E-26
2.65349E-02 1.18829E-26
2.72407E-02 1.04463E-26
2.79555E-02 9.17711E-27
2.86793E-02 8.05658E-27
2.94120E-02 7.06798E-27
3.01537E-02 6.19645E-27
3.09043E-02 5.42874E-27
3.16639E-02 4.75307E-27
3.24324E-02 4.15895E-27
3.32098E-02 3.63705E-27
3.39961E-02 3.17907E-27
3.47912E-02 2.77762E-27
3.55952E-02 2.42611E-27
3.64081E-02 2.11871E-27
3.72297E-02 1.85022E-27
3.80602E-02 1.61601E-27
3.88995E-02 1.41198E-27
3.97476E-02 1.23448E-27
4.06044E-02 1.08029E-27
4.14700E-02 9.46542E-28
4.23443E-02 8.30687E-28
4.32273E-02 7.30481E-28
4.41190E-02 6.43935E-28
4.50194E-02 5.69292E-28
4.59284E-02 5.05001E-28
4.68461E-02 4.49696E-28
4.87074E-02 3.61374E-28
5.06030E-02 2.96349E-28
5.25328E-02 2.48497E-28
5.44967E-02 2.13151E-28
5.64946E-02 1.86785E-28
5.85262E-02 1.66765E-28
6.05914E-02 1.51149E-28
6.26901E-02 1.38524E-28
6.48222E-02 1.27887E-28
6.69873E-02 1.18540E-28
6.91854E-02 1.10013E-28
7.14163E-02 1.02007E-28
7.36799E-02 9.43417E-29
7.59760E-02 8.69225E-29
7.83043E-02 7.97129E-29
8.06647E-02 7.27128E-29
8.30571E-02 6.59443E-29
8.54812E-02 5.94400E-29
8.79369E-02 5.32361E-29
9.04240E-02 4.73666E-29
9.29422E-02 4.18605E-29
9.54915E-02 3.67398E-29
9.80716E-02 3.20188E-29
1.00682E-01 2.77038E-29
1.03323E-01 2.37940E-29
1.05995E-01 2.02818E-29
1.08696E-01 1.71541E-29
1.11427E-01 1.43929E-29
1.14188E-01 1.19768E-29
1.16978E-01 9.88180E-30
1.19797E-01 8.08210E-30
1.22645E-01 6.55105E-30
1.25522E-01 5.26181E-30
1.28428E-01 4.18793E-30
1.31361E-01 3.30384E-30
1.34323E-01 2.58524E-30
1.37313E-01 2.00936E-30
1.40330E-01 1.55514E-30
1.43375E-01 1.20339E-30
1.46447E-01 9.36799E-31
1.49545E-01 7.39952E-31
1.52671E-01 5.99296E-31
1.55823E-01 5.03049E-31
1.59001E-01 4.41104E-31
1.62205E-01 4.04903E-31
1.65435E-01 3.87312E-31
1.68690E-01 3.82471E-31
1.71970E-01 3.85664E-31
1.75276E-01 3.93176E-31
1.78606E-01 4.02157E-31
1.81961E-01 4.10502E-31
1.85340E-01 4.16729E-31
1.88743E-01 4.19872E-31
1.92169E-01 4.19384E-31
1.95619E-01 4.15053E-31
1.99092E-01 4.06923E-31
2.02589E-01 3.95227E-31
2.06107E-01 3.80336E-31
2.09649E-01 3.62707E-31
2.13212E-01 3.42848E-31
2.16797E-01 3.21281E-31
2.20404E-01 2.98527E-31
2.24032E-01 2.75078E-31
2.27680E-01 2.51389E-31
2.31350E-01 2.27867E-31
2.35040E-01 2.04866E-31
2.38751E-01 1.82684E-31
2.42481E-01 1.61562E-31
2.46231E-01 1.41690E-31
2.50000E-01 1.23204E-31
2.53788E-01 1.06196E-31
2.57595E-01 9.07132E-32
2.61421E-01 7.67683E-32
2.65264E-01 6.43417E-32
2.69126E-01 5.33880E-32
2.73005E-01 4.38405E-32
2.76901E-01 3.56167E-32
2.80814E-01 2.86218E-32
2.84744E-01 2.27534E-32
2.88691E-01 1.79045E-32
2.92653E-01 1.39669E-32
2.96632E-01 1.08333E-32
3.00625E-01 8.39958E-33
3.04634E-01 6.56656E-33
3.08658E-01 5.24111E-33
3.12697E-01 4.33709E-33
3.16749E-01 3.77597E-33
3.20816E-01 3.48712E-33
3.24896E-01 3.40795E-33
3.28990E-01 3.48373E-33
3.33097E-01 3.66742E-33
3.37216E-01 3.91921E-33
3.41348E-01 4.20606E-33
3.45492E-01 4.50120E-33
3.49647E-01 4.78349E-33
3.53814E-01 5.03686E-33
3.57992E-01 5.24968E-33
3.62181E-01 5.41417E-33
3.66381E-01 5.52584E-33
3.70590E-01 5.58292E-33
3.74810E-01 5.58589E-33
3.79039E-01 5.53701E-33
3.83277E-01 5.43990E-33
3.87524E-01 5.29917E-33
3.91780E-01 5.12011E-33
3.96044E-01 4.90839E-33
4.00316E-01 4.66985E-33
4.04596E-01 4.41032E-33
4.08882E-01 4.13542E-33
4.13176E-01 3.85047E-33
4.17476E-01 3.56038E-33
4.21783E-01 3.26962E-33
4.26095E-01 2.98214E-33
4.30413E-01 2.70137E-33
4.34737E-01 2.43021E-33
4.39065E-01 2.17106E-33
4.43398E-01 1.92579E-33
4.47736E-01 1.69584E-33
4.52077E-01 1.48220E-33
4.56422E-01 1.28547E-33
4.60770E-01 1.10590E-33
4.65122E-01 9.43451E-34
4.69476E-01 7.97809E-34
4.73832E-01 6.68444E-34
4.78190E-01 5.54651E-34
4.82550E-01 4.55584E-34
4.86912E-01 3.70291E-34
4.91274E-01 2.97748E-34
4.95637E-01 2.36885E-34
5.00000E-01 1.86614E-34
5.04363E-01 1.45848E-34
5.08726E-01 1.13519E-34
5.13088E-01 8.85952E-35
5.17450E-01 7.00912E-35
5.21810E-01 5.70786E-35
5.26168E-01 4.86921E-35
5.30524E-01 4.41348E-35
5.34878E-01 4.26803E-35
5.39230E-01 4.36743E-35
5.43578E-01 4.65341E-35
5.47923E-01 5.07466E-35
5.52264E-01 5.58663E-35
5.56602E-01 6.15114E-35
5.60935E-01 6.73602E-35
5.65263E-01 7.31466E-35
5.69587E-01 7.86553E-35
5.73905E-01 8.37174E-35
5.78217E-01 8.82052E-35
5.82524E-01 9.20276E-35
5.86824E-01 9.51256E-35
5.91118E-01 9.74676E-35
5.95404E-01 9.90455E-35
5.99684E-01 9.98705E-35
6.03956E-01 9.99697E-35
6.08220E-01 9.93831E-35
6.12476E-01 9.81599E-35
6.16723E-01 9.63567E-35
6.20961E-01 9.40345E-35
6.25190E-01 9.12573E-35
6.29410E-01 8.80899E-35
6.33619E-01 8.45966E-35
6.37819E-01 8.08403E-35
6.42008E-01 7.68809E-35
6.46186E-01 7.27754E-35
6.50353E-01 6.85764E-35
6.54508E-01 6.43326E-35
6.58652E-01 6.00876E-35
6.62784E-01 5.58809E-35
6.66903E-01 5.17467E-35
6.71010E-01 4.77149E-35
6.75104E-01 4.38107E-35
6.79184E-01 4.00551E-35
6.83251E-01 3.64648E-35
6.87303E-01 3.30530E-35
6.91342E-01 2.98291E-35
6.95366E-01 2.67994E-35
6.99375E-01 2.39675E-35
7.03368E-01 2.13343E-35
7.07347E-01 1.88985E-35
7.11309E-01 1.66568E-35
7.15256E-01 1.46044E-35
7.19186E-01 1.27350E-35
7.23099E-01 1.10413E-35
7.26995E-01 9.51504E-36
7.30874E-01 8.14740E-36
7.34736E-01 6.92902E-36
7.38579E-01 5.85024E-36
7.42405E-01 4.90130E-36
7.46212E-01 4.07239E-36
7.50000E-01 3.35386E-36
7.53769E-01 2.73620E-36
7.57519E-01 2.21023E-36
7.61249E-01 1.76710E-36
7.64960E-01 1.39837E-36
7.68650E-01 1.09602E-36
7.72320E-01 8.52515E-37
7.75968E-01 6.60807E-37
7.79596E-01 5.14333E-37
7.83203E-01 4.07033E-37
7.86788E-01 3.33339E-37
7.90351E-01 2.88169E-37
7.93893E-01 2.66908E-37
7.97411E-01 2.65397E-37
8.00908E-01 2.79906E-37
8.04381E-01 3.07114E-37
8.07831E-01 3.44086E-37
8.11257E-01 3.88251E-37
8.14660E-01 4.37364E-37
8.18039E-01 4.89496E-37
8.21394E-01 5.42999E-37
8.24724E-01 5.96480E-37
8.28030E-01 6.48786E-37
8.31310E-01 6.98968E-37
8.34565E-01 7.46270E-37
8.37795E-01 7.90104E-37
8.40999E-01 8.30024E-37
8.44177E-01 8.65722E-37
8.47329E-01 8.96992E-37
8.50455E-01 9.23730E-37
8.53553E-01 9.45918E-37
8.56625E-01 9.63600E-37
8.59670E-01 9.76884E-37
8.62687E-01 9.85917E-37
8.65677E-01 9.90891E-37
8.68639E-01 9.92024E-37
8.71572E-01 9.89554E-37
8.74478E-01 9.83735E-37
8.77355E-01 9.74832E-37
8.80203E-01 9.63114E-37
8.83022E-01 9.48850E-37
8.85812E-01 9.32306E-37
8.88573E-01 9.13746E-37
8.91304E-01 8.93418E-37
8.94005E-01 8.71570E-37
8.96677E-01 8.48430E-37
8.99318E-01 8.24221E-37
9.01928E-01 7.99144E-37
9.04508E-01 7.73395E-37
9.07058E-01 7.47151E-37
9.09576E-01 7.20578E-37
9.12063E-01 6.93822E-37
9.14519E-01 6.67024E-37
9.16943E-01 6.40302E-37
9.19335E-01 6.13771E-37
9.21696E-01 5.87527E-37
9.24024E-01 5.61657E-37
9.26320E-01 5.36235E-37
9.28584E-01 5.11327E-37
9.30815E-01 4.86988E-37
9.33013E-01 4.63264E-37
9.35178E-01 4.40196E-37
9.37310E-01 4.17811E-37
9.39409E-01 3.96135E-37
9.41474E-01 3.75184E-37
9.43505E-01 3.54972E-37
9.45503E-01 3.35506E-37
9.47467E-01 3.16786E-37
9.49397E-01 2.98813E-37
9.51293E-01 2.81582E-37
9.53154E-01 2.65086E-37
9.54981E-01 2.49312E-37
9.56773E-01 2.34249E-37
9.58530E-01 2.19880E-37
9.60252E-01 2.06193E-37
9.61940E-01 1.93165E-37
9.63592E-01 1.80781E-37
9.65209E-01 1.69019E-37
9.66790E-01 1.57861E-37
9.68336E-01 1.47285E-37
9.69846E-01 1.37269E-37
9.71321E-01 1.27792E-37
9.72759E-01 1.18835E-37
9.74162E-01 1.10372E-37
9.75528E-01 1.02387E-37
9.76858E-01 9.48565E-38
9.78152E-01 8.77603E-38
9.79410E-01 8.10783E-38
9.80631E-01 7.47929E-38
9.81815E-01 6.88829E-38
9.82963E-01 6.33310E-38
9.84074E-01 5.81202E-38
9.85148E-01 5.32322E-38
9.86185E-01 4.86519E-38
9.87185E-01 4.43633E-38
9.88148E-01 4.03513E-38
9.89074E-01 3.66021E-38
9.89962E-01 3.31023E-38
9.90814E-01 2.98394E-38
9.91627E-01 2.68008E-38
9.92404E-01 2.39762E-38
9.93143E-01 2.13530E-38
9.93844E-01 1.89224E-38
9.94508E-01 1.66750E-38
9.95134E-01 1.46019E-38
9.95722E-01 1.26946E-38
9.96273E-01 1.09455E-38
9.96786E-01 9.34698E-39
9.97261E-01 7.89329E-39
9.97698E-01 6.57814E-39
9.98097E-01 5.39553E-39
9.98459E-01 4.34111E-39
9.98782E-01 3.40959E-39
9.99067E-01 2.59727E-39
9.99315E-01 1.90070E-39
9.99524E-01 1.31619E-39
9.99695E-01 8.41647E-40
9.99829E-01 4.75036E-40
9.99924E-01 2.13963E-40
9.99981E-01 5.83116E-41
1.00000E+00 5.55614E-42
