 #
 # Subroutine ELSEPA. Elastic scattering of electrons and positrons
 #                    by neutral atoms and positive ions
 #
 # Projectile: electron
 # Kinetic energy = 7.00000E+07 eV = 2.57245E+06 a.u.
 #
 # WARNING: High-energy factorization with free-atom DF screening.
 #          Absorption, polarization and exchange corrections are
 #          switched off.
 #          Phase shifts are calculated for the bare nucleus.
 #          Scattering amplitudes are not evaluated.
 #
 # Element: Ag,  Z =  47,  atomic weight = 1.07868E+02 g/mol
 #
 # Nuclear model: Fermi distribution
 #                Average radius = 5.09348E-13 cm
 #                Skin thickness = 5.46000E-14 cm
 #
 # Number of electrons = 47
 #
 # Total elastic cross section = 4.28160E-18 cm**2 = 1.52899E-01 a0**2
 # 1st transport cross section = 8.81682E-25 cm**2 = 3.14854E-08 a0**2
 # 2nd transport cross section = 2.60632E-24 cm**2 = 9.30733E-08 a0**2
 #
 #
 # Differential cross section:                       MU=(1-COS(THETA))/2
 #
 #  THETA        MU          DCS          DCS        Sherman      error
 #  (deg)                 (cm**2/sr)   (a0**2/sr)    function
 #----------------------------------------------------------------------
0.00000E+00 1.38526E-10
7.61557E-13 1.38378E-10
1.18994E-12 1.38295E-10
1.71346E-12 1.38194E-10
2.33225E-12 1.38075E-10
3.04617E-12 1.37938E-10
3.85530E-12 1.37783E-10
4.75964E-12 1.37610E-10
5.75917E-12 1.37419E-10
6.85391E-12 1.37211E-10
8.04379E-12 1.36986E-10
9.32893E-12 1.36743E-10
1.07092E-11 1.36483E-10
1.21847E-11 1.36207E-10
1.37554E-11 1.35914E-10
1.54213E-11 1.35604E-10
1.71823E-11 1.35278E-10
1.90386E-11 1.34937E-10
2.09900E-11 1.34580E-10
2.30367E-11 1.34207E-10
2.51785E-11 1.33820E-10
2.74156E-11 1.33417E-10
2.97478E-11 1.33000E-10
3.21752E-11 1.32569E-10
3.46979E-11 1.32124E-10
3.73157E-11 1.31665E-10
4.00286E-11 1.31193E-10
4.28368E-11 1.30708E-10
4.57402E-11 1.30210E-10
4.87388E-11 1.29697E-10
5.18325E-11 1.29171E-10
5.50215E-11 1.28636E-10
5.83057E-11 1.28090E-10
6.16850E-11 1.27534E-10
6.51595E-11 1.26970E-10
6.87293E-11 1.26396E-10
7.23943E-11 1.25813E-10
7.61544E-11 1.25211E-10
1.18991E-10 1.18792E-10
1.71347E-10 1.11807E-10
2.33223E-10 1.04570E-10
3.04617E-10 9.72902E-11
3.85531E-10 9.02018E-11
4.75965E-10 8.34357E-11
5.75917E-10 7.70472E-11
6.85389E-10 7.10738E-11
8.04380E-10 6.55499E-11
9.32891E-10 6.04654E-11
1.07092E-09 5.57610E-11
1.21847E-09 5.14496E-11
1.37554E-09 4.75020E-11
1.54213E-09 4.38734E-11
1.71823E-09 4.05349E-11
1.90386E-09 3.74769E-11
2.09900E-09 3.46735E-11
2.30367E-09 3.20814E-11
2.51785E-09 2.97019E-11
2.74156E-09 2.75170E-11
2.97478E-09 2.55023E-11
3.21752E-09 2.36425E-11
3.46978E-09 2.19322E-11
3.73156E-09 2.03585E-11
4.00286E-09 1.89005E-11
4.28368E-09 1.75577E-11
4.57402E-09 1.63208E-11
4.87388E-09 1.50770E-11
5.18326E-09 1.39527E-11
5.50215E-09 1.29500E-11
5.83057E-09 1.20532E-11
6.16850E-09 1.12488E-11
6.51596E-09 1.05252E-11
6.87293E-09 9.87264E-12
7.23942E-09 9.27183E-12
7.61544E-09 8.62408E-12
1.18991E-08 4.54340E-12
1.71347E-08 2.59014E-12
2.33223E-08 1.58954E-12
3.04617E-08 1.03769E-12
3.85531E-08 7.13964E-13
4.75965E-08 5.11221E-13
5.75917E-08 3.76693E-13
6.85389E-08 2.83539E-13
8.04380E-08 2.17240E-13
9.32891E-08 1.68884E-13
1.07092E-07 1.32770E-13
1.21847E-07 1.05591E-13
1.37554E-07 8.48551E-14
1.54213E-07 6.88750E-14
1.71823E-07 5.64374E-14
1.90386E-07 4.66719E-14
2.09900E-07 3.89249E-14
2.30367E-07 3.27132E-14
2.51785E-07 2.76978E-14
2.74156E-07 2.36156E-14
2.97478E-07 2.02659E-14
3.21752E-07 1.74966E-14
3.46978E-07 1.51908E-14
3.73156E-07 1.32571E-14
4.00286E-07 1.16234E-14
4.28368E-07 1.02358E-14
4.57402E-07 9.05086E-15
4.87388E-07 8.02970E-15
5.18325E-07 7.15199E-15
5.50215E-07 6.39481E-15
5.83057E-07 5.73171E-15
6.16850E-07 5.15295E-15
6.51596E-07 4.64761E-15
6.87293E-07 4.20078E-15
7.23942E-07 3.80594E-15
7.61543E-07 3.45768E-15
1.18991E-06 1.46995E-15
1.71347E-06 7.23824E-16
2.33223E-06 3.95916E-16
3.04617E-06 2.34319E-16
3.85531E-06 1.47409E-16
4.75964E-06 9.73373E-17
5.75916E-06 6.68504E-17
6.85388E-06 4.74279E-17
8.04378E-06 3.45785E-17
9.32888E-06 2.58023E-17
1.07092E-05 1.96424E-17
1.21846E-05 1.52160E-17
1.37553E-05 1.19689E-17
1.54212E-05 9.54344E-18
1.71822E-05 7.70219E-18
1.90385E-05 6.28268E-18
2.09899E-05 5.17818E-18
2.30365E-05 4.30566E-18
2.51783E-05 3.60886E-18
2.74153E-05 3.04703E-18
2.97475E-05 2.59016E-18
3.21749E-05 2.21574E-18
3.46974E-05 1.90667E-18
3.73152E-05 1.64977E-18
4.00281E-05 1.43479E-18
4.28362E-05 1.25376E-18
4.57395E-05 1.10039E-18
4.87380E-05 9.69738E-19
5.18317E-05 8.57874E-19
5.50205E-05 7.61657E-19
5.83045E-05 6.78548E-19
6.16838E-05 6.06472E-19
6.51582E-05 5.43732E-19
6.87277E-05 4.88913E-19
7.23925E-05 4.40842E-19
7.61524E-05 3.98710E-19
9.21439E-05 2.72705E-19
1.09658E-04 1.92779E-19
1.28695E-04 1.40126E-19
1.49255E-04 1.04285E-19
1.71338E-04 7.92163E-20
1.94942E-04 6.12511E-20
2.20070E-04 4.81065E-20
2.46720E-04 3.83097E-20
2.74892E-04 3.08865E-20
3.04586E-04 2.51797E-20
3.35803E-04 2.07333E-20
3.68542E-04 1.72279E-20
4.02802E-04 1.44339E-20
4.38585E-04 1.21848E-20
4.75889E-04 1.03579E-20
5.14715E-04 8.86134E-21
5.55063E-04 7.62609E-21
5.96931E-04 6.59910E-21
6.40321E-04 5.73962E-21
6.85233E-04 5.01589E-21
7.31665E-04 4.40291E-21
7.79618E-04 3.88099E-21
8.29092E-04 3.43429E-21
8.80086E-04 3.05019E-21
9.32601E-04 2.71844E-21
9.86636E-04 2.43068E-21
1.04219E-03 2.18010E-21
1.09927E-03 1.96106E-21
1.15786E-03 1.76892E-21
1.21797E-03 1.59980E-21
1.27961E-03 1.45046E-21
1.34276E-03 1.31819E-21
1.40743E-03 1.20070E-21
1.47362E-03 1.09604E-21
1.54133E-03 1.00257E-21
1.61056E-03 9.18880E-22
1.68131E-03 8.43768E-22
1.75357E-03 7.76191E-22
1.82735E-03 7.15267E-22
1.90265E-03 6.60218E-22
1.97947E-03 6.10378E-22
2.05780E-03 5.65167E-22
2.13765E-03 5.24076E-22
2.21902E-03 4.86661E-22
2.30190E-03 4.52536E-22
2.38630E-03 4.21357E-22
2.47222E-03 3.92825E-22
2.55965E-03 3.66674E-22
2.64859E-03 3.42668E-22
2.73905E-03 3.20600E-22
2.83103E-03 3.00285E-22
2.92452E-03 2.81557E-22
3.01952E-03 2.64270E-22
3.11604E-03 2.48294E-22
3.21407E-03 2.33509E-22
3.31362E-03 2.19811E-22
3.41468E-03 2.07105E-22
3.51725E-03 1.95306E-22
3.62133E-03 1.84337E-22
3.72692E-03 1.74130E-22
3.83403E-03 1.64620E-22
3.94265E-03 1.55752E-22
4.05278E-03 1.47474E-22
4.16442E-03 1.39739E-22
4.27757E-03 1.32506E-22
4.39223E-03 1.25736E-22
4.50840E-03 1.19394E-22
4.62608E-03 1.13446E-22
4.74527E-03 1.07866E-22
4.86597E-03 1.02624E-22
4.98817E-03 9.76976E-23
5.11188E-03 9.30635E-23
5.23711E-03 8.87012E-23
5.36383E-03 8.45918E-23
5.49207E-03 8.07178E-23
5.62181E-03 7.70632E-23
5.75306E-03 7.36132E-23
5.88581E-03 7.03543E-23
6.02007E-03 6.72737E-23
6.15583E-03 6.43600E-23
6.29310E-03 6.16023E-23
6.43187E-03 5.89908E-23
6.57214E-03 5.65162E-23
6.71392E-03 5.41699E-23
6.85720E-03 5.19441E-23
7.00198E-03 4.98313E-23
7.14827E-03 4.78248E-23
7.29605E-03 4.59182E-23
7.44534E-03 4.41056E-23
7.59612E-03 4.23814E-23
7.97965E-03 3.84251E-23
8.37255E-03 3.49191E-23
8.77480E-03 3.18032E-23
9.18641E-03 2.90264E-23
9.60736E-03 2.65452E-23
1.00376E-02 2.43227E-23
1.04773E-02 2.23271E-23
1.09262E-02 2.05312E-23
1.13844E-02 1.89114E-23
1.18520E-02 1.74474E-23
1.23288E-02 1.61215E-23
1.28150E-02 1.49184E-23
1.33104E-02 1.38247E-23
1.38150E-02 1.28287E-23
1.43290E-02 1.19200E-23
1.48521E-02 1.10897E-23
1.53845E-02 1.03297E-23
1.59262E-02 9.63312E-24
1.64770E-02 8.99362E-24
1.70371E-02 8.40572E-24
1.76063E-02 7.86450E-24
1.81848E-02 7.36560E-24
1.87724E-02 6.90510E-24
1.93692E-02 6.47952E-24
1.99751E-02 6.08574E-24
2.05901E-02 5.72096E-24
2.12143E-02 5.38265E-24
2.18476E-02 5.06855E-24
2.24900E-02 4.77662E-24
2.31415E-02 4.50501E-24
2.38021E-02 4.25206E-24
2.44717E-02 4.01625E-24
2.51504E-02 3.79622E-24
2.58382E-02 3.59072E-24
2.65349E-02 3.39862E-24
2.72407E-02 3.21889E-24
2.79555E-02 3.05059E-24
2.86793E-02 2.89286E-24
2.94120E-02 2.74493E-24
3.01537E-02 2.60608E-24
3.09043E-02 2.47565E-24
3.16639E-02 2.35304E-24
3.24324E-02 2.23770E-24
3.32098E-02 2.12912E-24
3.39961E-02 2.02684E-24
3.47912E-02 1.93042E-24
3.55952E-02 1.83948E-24
3.64081E-02 1.75364E-24
3.72297E-02 1.67258E-24
3.80602E-02 1.59597E-24
3.88995E-02 1.52353E-24
3.97476E-02 1.45500E-24
4.06044E-02 1.39013E-24
4.14700E-02 1.32868E-24
4.23443E-02 1.27046E-24
4.32273E-02 1.21525E-24
4.41190E-02 1.16287E-24
4.50194E-02 1.11317E-24
4.59284E-02 1.06597E-24
4.68461E-02 1.02113E-24
4.87074E-02 9.37978E-25
5.06030E-02 8.62728E-25
5.25328E-02 7.94508E-25
5.44967E-02 7.32558E-25
5.64946E-02 6.76213E-25
5.85262E-02 6.24886E-25
6.05914E-02 5.78062E-25
6.26901E-02 5.35286E-25
6.48222E-02 4.96154E-25
6.69873E-02 4.60309E-25
6.91854E-02 4.27435E-25
7.14163E-02 3.97247E-25
7.36799E-02 3.69495E-25
7.59760E-02 3.43954E-25
7.83043E-02 3.20421E-25
8.06647E-02 2.98716E-25
8.30571E-02 2.78678E-25
8.54812E-02 2.60159E-25
8.79369E-02 2.43030E-25
9.04240E-02 2.27170E-25
9.29422E-02 2.12474E-25
9.54915E-02 1.98845E-25
9.80716E-02 1.86194E-25
1.00682E-01 1.74443E-25
1.03323E-01 1.63518E-25
1.05995E-01 1.53355E-25
1.08696E-01 1.43893E-25
1.11427E-01 1.35078E-25
1.14188E-01 1.26861E-25
1.16978E-01 1.19196E-25
1.19797E-01 1.12040E-25
1.22645E-01 1.05358E-25
1.25522E-01 9.91122E-26
1.28428E-01 9.32724E-26
1.31361E-01 8.78087E-26
1.34323E-01 8.26943E-26
1.37313E-01 7.79043E-26
1.40330E-01 7.34160E-26
1.43375E-01 6.92083E-26
1.46447E-01 6.52617E-26
1.49545E-01 6.15585E-26
1.52671E-01 5.80820E-26
1.55823E-01 5.48170E-26
1.59001E-01 5.17494E-26
1.62205E-01 4.88661E-26
1.65435E-01 4.61549E-26
1.68690E-01 4.36046E-26
1.71970E-01 4.12048E-26
1.75276E-01 3.89458E-26
1.78606E-01 3.68186E-26
1.81961E-01 3.48148E-26
1.85340E-01 3.29267E-26
1.88743E-01 3.11471E-26
1.92169E-01 2.94692E-26
1.95619E-01 2.78867E-26
1.99092E-01 2.63938E-26
2.02589E-01 2.49850E-26
2.06107E-01 2.36553E-26
2.09649E-01 2.23998E-26
2.13212E-01 2.12141E-26
2.16797E-01 2.00941E-26
2.20404E-01 1.90359E-26
2.24032E-01 1.80358E-26
2.27680E-01 1.70905E-26
2.31350E-01 1.61967E-26
2.35040E-01 1.53515E-26
2.38751E-01 1.45521E-26
2.42481E-01 1.37958E-26
2.46231E-01 1.30802E-26
2.50000E-01 1.24030E-26
2.53788E-01 1.17619E-26
2.57595E-01 1.11551E-26
2.61421E-01 1.05805E-26
2.65264E-01 1.00363E-26
2.69126E-01 9.52096E-27
2.73005E-01 9.03275E-27
2.76901E-01 8.57021E-27
2.80814E-01 8.13193E-27
2.84744E-01 7.71659E-27
2.88691E-01 7.32293E-27
2.92653E-01 6.94978E-27
2.96632E-01 6.59604E-27
3.00625E-01 6.26064E-27
3.04634E-01 5.94261E-27
3.08658E-01 5.64102E-27
3.12697E-01 5.35499E-27
3.16749E-01 5.08369E-27
3.20816E-01 4.82633E-27
3.24896E-01 4.58219E-27
3.28990E-01 4.35056E-27
3.33097E-01 4.13078E-27
3.37216E-01 3.92223E-27
3.41348E-01 3.72433E-27
3.45492E-01 3.53651E-27
3.49647E-01 3.35826E-27
3.53814E-01 3.18907E-27
3.57992E-01 3.02847E-27
3.62181E-01 2.87603E-27
3.66381E-01 2.73131E-27
3.70590E-01 2.59392E-27
3.74810E-01 2.46348E-27
3.79039E-01 2.33963E-27
3.83277E-01 2.22205E-27
3.87524E-01 2.11040E-27
3.91780E-01 2.00438E-27
3.96044E-01 1.90371E-27
4.00316E-01 1.80811E-27
4.04596E-01 1.71733E-27
4.08882E-01 1.63112E-27
4.13176E-01 1.54924E-27
4.17476E-01 1.47149E-27
4.21783E-01 1.39764E-27
4.26095E-01 1.32751E-27
4.30413E-01 1.26090E-27
4.34737E-01 1.19764E-27
4.39065E-01 1.13756E-27
4.43398E-01 1.08049E-27
4.47736E-01 1.02629E-27
4.52077E-01 9.74814E-28
4.56422E-01 9.25923E-28
4.60770E-01 8.79486E-28
4.65122E-01 8.35382E-28
4.69476E-01 7.93493E-28
4.73832E-01 7.53708E-28
4.78190E-01 7.15922E-28
4.82550E-01 6.80034E-28
4.86912E-01 6.45949E-28
4.91274E-01 6.13578E-28
4.95637E-01 5.82834E-28
5.00000E-01 5.53636E-28
5.04363E-01 5.25906E-28
5.08726E-01 4.99572E-28
5.13088E-01 4.74562E-28
5.17450E-01 4.50812E-28
5.21810E-01 4.28258E-28
5.26168E-01 4.06840E-28
5.30524E-01 3.86501E-28
5.34878E-01 3.67188E-28
5.39230E-01 3.48848E-28
5.43578E-01 3.31434E-28
5.47923E-01 3.14898E-28
5.52264E-01 2.99198E-28
5.56602E-01 2.84290E-28
5.60935E-01 2.70136E-28
5.65263E-01 2.56697E-28
5.69587E-01 2.43938E-28
5.73905E-01 2.31824E-28
5.78217E-01 2.20324E-28
5.82524E-01 2.09405E-28
5.86824E-01 1.99040E-28
5.91118E-01 1.89200E-28
5.95404E-01 1.79858E-28
5.99684E-01 1.70990E-28
6.03956E-01 1.62572E-28
6.08220E-01 1.54581E-28
6.12476E-01 1.46995E-28
6.16723E-01 1.39794E-28
6.20961E-01 1.32959E-28
6.25190E-01 1.26471E-28
6.29410E-01 1.20313E-28
6.33619E-01 1.14467E-28
6.37819E-01 1.08918E-28
6.42008E-01 1.03651E-28
6.46186E-01 9.86508E-29
6.50353E-01 9.39051E-29
6.54508E-01 8.94002E-29
6.58652E-01 8.51241E-29
6.62784E-01 8.10650E-29
6.66903E-01 7.72118E-29
6.71010E-01 7.35540E-29
6.75104E-01 7.00816E-29
6.79184E-01 6.67851E-29
6.83251E-01 6.36555E-29
6.87303E-01 6.06843E-29
6.91342E-01 5.78632E-29
6.95366E-01 5.51846E-29
6.99375E-01 5.26411E-29
7.03368E-01 5.02258E-29
7.07347E-01 4.79320E-29
7.11309E-01 4.57535E-29
7.15256E-01 4.36843E-29
7.19186E-01 4.17188E-29
7.23099E-01 3.98516E-29
7.26995E-01 3.80776E-29
7.30874E-01 3.63919E-29
7.34736E-01 3.47900E-29
7.38579E-01 3.32676E-29
7.42405E-01 3.18204E-29
7.46212E-01 3.04445E-29
7.50000E-01 2.91364E-29
7.53769E-01 2.78923E-29
7.57519E-01 2.67090E-29
7.61249E-01 2.55834E-29
7.64960E-01 2.45123E-29
7.68650E-01 2.34929E-29
7.72320E-01 2.25226E-29
7.75968E-01 2.15988E-29
7.79596E-01 2.07189E-29
7.83203E-01 1.98809E-29
7.86788E-01 1.90823E-29
7.90351E-01 1.83212E-29
7.93893E-01 1.75957E-29
7.97411E-01 1.69038E-29
8.00908E-01 1.62437E-29
8.04381E-01 1.56139E-29
8.07831E-01 1.50128E-29
8.11257E-01 1.44388E-29
8.14660E-01 1.38905E-29
8.18039E-01 1.33666E-29
8.21394E-01 1.28658E-29
8.24724E-01 1.23869E-29
8.28030E-01 1.19288E-29
8.31310E-01 1.14904E-29
8.34565E-01 1.10706E-29
8.37795E-01 1.06686E-29
8.40999E-01 1.02834E-29
8.44177E-01 9.91406E-30
8.47329E-01 9.55987E-30
8.50455E-01 9.22002E-30
8.53553E-01 8.89378E-30
8.56625E-01 8.58046E-30
8.59670E-01 8.27941E-30
8.62687E-01 7.99000E-30
8.65677E-01 7.71167E-30
8.68639E-01 7.44385E-30
8.71572E-01 7.18602E-30
8.74478E-01 6.93770E-30
8.77355E-01 6.69841E-30
8.80203E-01 6.46773E-30
8.83022E-01 6.24522E-30
8.85812E-01 6.03052E-30
8.88573E-01 5.82323E-30
8.91304E-01 5.62302E-30
8.94005E-01 5.42956E-30
8.96677E-01 5.24253E-30
8.99318E-01 5.06164E-30
9.01928E-01 4.88662E-30
9.04508E-01 4.71720E-30
9.07058E-01 4.55315E-30
9.09576E-01 4.39422E-30
9.12063E-01 4.24020E-30
9.14519E-01 4.09088E-30
9.16943E-01 3.94608E-30
9.19335E-01 3.80560E-30
9.21696E-01 3.66927E-30
9.24024E-01 3.53694E-30
9.26320E-01 3.40844E-30
9.28584E-01 3.28364E-30
9.30815E-01 3.16240E-30
9.33013E-01 3.04460E-30
9.35178E-01 2.93010E-30
9.37310E-01 2.81880E-30
9.39409E-01 2.71060E-30
9.41474E-01 2.60538E-30
9.43505E-01 2.50307E-30
9.45503E-01 2.40357E-30
9.47467E-01 2.30679E-30
9.49397E-01 2.21266E-30
9.51293E-01 2.12111E-30
9.53154E-01 2.03206E-30
9.54981E-01 1.94545E-30
9.56773E-01 1.86122E-30
9.58530E-01 1.77932E-30
9.60252E-01 1.69968E-30
9.61940E-01 1.62227E-30
9.63592E-01 1.54702E-30
9.65209E-01 1.47390E-30
9.66790E-01 1.40286E-30
9.68336E-01 1.33387E-30
9.69846E-01 1.26689E-30
9.71321E-01 1.20188E-30
9.72759E-01 1.13882E-30
9.74162E-01 1.07766E-30
9.75528E-01 1.01839E-30
9.76858E-01 9.60973E-31
9.78152E-01 9.05388E-31
9.79410E-01 8.51611E-31
9.80631E-01 7.99619E-31
9.81815E-01 7.49393E-31
9.82963E-01 7.00913E-31
9.84074E-01 6.54161E-31
9.85148E-01 6.09121E-31
9.86185E-01 5.65777E-31
9.87185E-01 5.24113E-31
9.88148E-01 4.84118E-31
9.89074E-01 4.45777E-31
9.89962E-01 4.09078E-31
9.90814E-01 3.74012E-31
9.91627E-01 3.40567E-31
9.92404E-01 3.08734E-31
9.93143E-01 2.78504E-31
9.93844E-01 2.49869E-31
9.94508E-01 2.22821E-31
9.95134E-01 1.97353E-31
9.95722E-01 1.73459E-31
9.96273E-01 1.51132E-31
9.96786E-01 1.30368E-31
9.97261E-01 1.11160E-31
9.97698E-01 9.35056E-32
9.98097E-01 7.73992E-32
9.98459E-01 6.28375E-32
9.98782E-01 4.98172E-32
9.99067E-01 3.83355E-32
9.99315E-01 2.83897E-32
9.99524E-01 1.99776E-32
9.99695E-01 1.30976E-32
9.99829E-01 7.74791E-33
9.99924E-01 3.92755E-33
9.99981E-01 1.63567E-33
1.00000E+00 8.71733E-34
