 #
 # Subroutine ELSEPA. Elastic scattering of electrons and positrons
 #                    by neutral atoms and positive ions
 #
 # Projectile: electron
 # Kinetic energy = 8.00000E+08 eV = 2.93995E+07 a.u.
 #
 # WARNING: High-energy factorization with free-atom DF screening.
 #          Absorption, polarization and exchange corrections are
 #          switched off.
 #          Phase shifts are calculated for the bare nucleus.
 #          Scattering amplitudes are not evaluated.
 #
 # Element: Ag,  Z =  47,  atomic weight = 1.07868E+02 g/mol
 #
 # Nuclear model: Fermi distribution
 #                Average radius = 5.09348E-13 cm
 #                Skin thickness = 5.46000E-14 cm
 #
 # Number of electrons = 47
 #
 # Total elastic cross section = 4.27186E-18 cm**2 = 1.52551E-01 a0**2
 # 1st transport cross section = 6.81852E-27 cm**2 = 2.43494E-10 a0**2
 # 2nd transport cross section = 2.04523E-26 cm**2 = 7.30365E-10 a0**2
 #
 #
 # Differential cross section:                       MU=(1-COS(THETA))/2
 #
 #  THETA        MU          DCS          DCS        Sherman      error
 #  (deg)                 (cm**2/sr)   (a0**2/sr)    function
 #----------------------------------------------------------------------
0.00000E+00 1.78547E-08
7.61557E-13 1.57028E-08
1.18994E-12 1.47073E-08
1.71346E-12 1.36529E-08
2.33225E-12 1.25889E-08
3.04617E-12 1.15524E-08
3.85530E-12 1.05701E-08
4.75964E-12 9.65124E-09
5.75917E-12 8.80751E-09
6.85391E-12 8.03181E-09
8.04379E-12 7.32929E-09
9.32893E-12 6.68753E-09
1.07092E-11 6.10802E-09
1.21847E-11 5.58041E-09
1.37554E-11 5.10286E-09
1.54213E-11 4.66865E-09
1.71823E-11 4.27425E-09
1.90386E-11 3.91590E-09
2.09900E-11 3.58923E-09
2.30367E-11 3.29264E-09
2.51785E-11 3.02142E-09
2.74156E-11 2.77533E-09
2.97478E-11 2.54971E-09
3.21752E-11 2.34482E-09
3.46979E-11 2.15713E-09
3.73157E-11 1.97596E-09
4.00286E-11 1.80864E-09
4.28368E-11 1.66176E-09
4.57402E-11 1.53234E-09
4.87388E-11 1.41787E-09
5.18325E-11 1.31628E-09
5.50215E-11 1.22579E-09
5.83057E-11 1.13266E-09
6.16850E-11 1.04536E-09
6.51595E-11 9.67458E-10
6.87293E-11 8.97725E-10
7.23943E-11 8.35134E-10
7.61544E-11 7.78800E-10
1.18991E-10 3.97304E-10
1.71347E-10 2.23186E-10
2.33223E-10 1.36591E-10
3.04617E-10 8.93925E-11
3.85531E-10 6.15078E-11
4.75965E-10 4.37962E-11
5.75917E-10 3.20408E-11
6.85389E-10 2.38765E-11
8.04380E-10 1.81140E-11
9.32891E-10 1.39324E-11
1.07092E-09 1.08650E-11
1.21847E-09 8.58121E-12
1.37554E-09 6.86251E-12
1.54213E-09 5.55055E-12
1.71823E-09 4.53685E-12
1.90386E-09 3.74472E-12
2.09900E-09 3.11897E-12
2.30367E-09 2.62005E-12
2.51785E-09 2.21808E-12
2.74156E-09 1.89138E-12
2.97478E-09 1.62312E-12
3.21752E-09 1.40125E-12
3.46978E-09 1.21621E-12
3.73156E-09 1.06056E-12
4.00286E-09 9.29326E-13
4.28368E-09 8.18406E-13
4.57402E-09 7.23002E-13
4.87388E-09 6.41318E-13
5.18326E-09 5.71103E-13
5.50215E-09 5.09781E-13
5.83057E-09 4.56686E-13
6.16850E-09 4.10323E-13
6.51596E-09 3.69534E-13
6.87293E-09 3.33812E-13
7.23942E-09 3.02199E-13
7.61544E-09 2.74204E-13
1.18991E-08 1.15685E-13
1.71347E-08 5.67244E-14
2.33223E-08 3.09598E-14
3.04617E-08 1.83031E-14
3.85531E-08 1.15062E-14
4.75965E-08 7.59349E-15
5.75917E-08 5.21236E-15
6.85389E-08 3.69590E-15
8.04380E-08 2.69305E-15
9.32891E-08 2.00840E-15
1.07092E-07 1.52807E-15
1.21847E-07 1.18308E-15
1.37554E-07 9.30133E-16
1.54213E-07 7.41275E-16
1.71823E-07 5.97980E-16
1.90386E-07 4.87674E-16
2.09900E-07 4.01652E-16
2.30367E-07 3.33776E-16
2.51785E-07 2.79642E-16
2.74156E-07 2.36044E-16
2.97478E-07 2.00616E-16
3.21752E-07 1.71589E-16
3.46978E-07 1.47623E-16
3.73156E-07 1.27697E-16
4.00286E-07 1.11021E-16
4.28368E-07 9.69789E-17
4.57402E-07 8.50873E-17
4.87388E-07 7.49631E-17
5.18325E-07 6.63003E-17
5.50215E-07 5.88530E-17
5.83057E-07 5.24222E-17
6.16850E-07 4.68460E-17
6.51596E-07 4.19917E-17
6.87293E-07 3.77499E-17
7.23942E-07 3.40304E-17
7.61543E-07 3.07577E-17
1.18991E-06 1.26126E-17
1.71347E-06 6.08645E-18
2.33223E-06 3.28678E-18
3.04617E-06 1.92731E-18
3.85531E-06 1.20355E-18
4.75964E-06 7.89842E-19
5.75916E-06 5.39594E-19
6.85388E-06 3.81069E-19
8.04378E-06 2.76721E-19
9.32888E-06 2.05772E-19
1.07092E-05 1.56176E-19
1.21846E-05 1.20664E-19
1.37553E-05 9.46974E-20
1.54212E-05 7.53567E-20
1.71822E-05 6.07118E-20
1.90385E-05 4.94471E-20
2.09899E-05 4.06997E-20
2.30365E-05 3.38019E-20
2.51783E-05 2.83020E-20
2.74153E-05 2.38740E-20
2.97475E-05 2.02777E-20
3.21749E-05 1.73337E-20
3.46974E-05 1.49061E-20
3.73152E-05 1.28900E-20
4.00281E-05 1.12045E-20
4.28362E-05 9.78610E-21
4.57395E-05 8.58532E-21
4.87380E-05 7.56302E-21
5.18317E-05 6.68824E-21
5.50205E-05 5.93619E-21
5.83045E-05 5.28690E-21
6.16838E-05 4.72407E-21
6.51582E-05 4.23432E-21
6.87277E-05 3.80656E-21
7.23925E-05 3.43159E-21
7.61524E-05 3.08185E-21
9.21439E-05 2.09841E-21
1.09658E-04 1.47585E-21
1.28695E-04 1.06662E-21
1.49255E-04 7.88708E-22
1.71338E-04 5.94839E-22
1.94942E-04 4.56319E-22
2.20070E-04 3.55304E-22
2.46720E-04 2.80296E-22
2.74892E-04 2.23694E-22
3.04586E-04 1.80375E-22
3.35803E-04 1.46790E-22
3.68542E-04 1.20455E-22
4.02802E-04 9.95869E-23
4.38585E-04 8.28940E-23
4.75889E-04 6.94261E-23
5.14715E-04 5.84736E-23
5.55063E-04 4.95027E-23
5.96931E-04 4.21055E-23
6.40321E-04 3.59688E-23
6.85233E-04 3.08488E-23
7.31665E-04 2.65545E-23
7.79618E-04 2.29354E-23
8.29092E-04 1.98714E-23
8.80086E-04 1.72665E-23
9.32601E-04 1.50432E-23
9.86636E-04 1.31386E-23
1.04219E-03 1.15016E-23
1.09927E-03 1.00899E-23
1.15786E-03 8.86901E-24
1.21797E-03 7.81013E-24
1.27961E-03 6.88936E-24
1.34276E-03 6.08672E-24
1.40743E-03 5.38544E-24
1.47362E-03 4.77141E-24
1.54133E-03 4.23268E-24
1.61056E-03 3.75912E-24
1.68131E-03 3.34210E-24
1.75357E-03 2.97427E-24
1.82735E-03 2.64931E-24
1.90265E-03 2.36180E-24
1.97947E-03 2.10709E-24
2.05780E-03 1.88115E-24
2.13765E-03 1.68048E-24
2.21902E-03 1.50206E-24
2.30190E-03 1.34325E-24
2.38630E-03 1.20178E-24
2.47222E-03 1.07562E-24
2.55965E-03 9.63039E-25
2.64859E-03 8.62490E-25
2.73905E-03 7.72627E-25
2.83103E-03 6.92262E-25
2.92452E-03 6.20350E-25
3.01952E-03 5.55968E-25
3.11604E-03 4.98301E-25
3.21407E-03 4.46627E-25
3.31362E-03 4.00306E-25
3.41468E-03 3.58770E-25
3.51725E-03 3.21515E-25
3.62133E-03 2.88092E-25
3.72692E-03 2.58102E-25
3.83403E-03 2.31189E-25
3.94265E-03 2.07035E-25
4.05278E-03 1.85356E-25
4.16442E-03 1.65899E-25
4.27757E-03 1.48436E-25
4.39223E-03 1.32765E-25
4.50840E-03 1.18703E-25
4.62608E-03 1.06087E-25
4.74527E-03 9.47708E-26
4.86597E-03 8.46233E-26
4.98817E-03 7.55261E-26
5.11188E-03 6.73732E-26
5.23711E-03 6.00692E-26
5.36383E-03 5.35284E-26
5.49207E-03 4.76737E-26
5.62181E-03 4.24357E-26
5.75306E-03 3.77518E-26
5.88581E-03 3.35658E-26
6.02007E-03 2.98270E-26
6.15583E-03 2.64899E-26
6.29310E-03 2.35133E-26
6.43187E-03 2.08602E-26
6.57214E-03 1.84973E-26
6.71392E-03 1.63945E-26
6.85720E-03 1.45247E-26
7.00198E-03 1.28637E-26
7.14827E-03 1.13895E-26
7.29605E-03 1.00823E-26
7.44534E-03 8.92446E-27
7.59612E-03 7.89987E-27
7.97965E-03 5.83078E-27
8.37255E-03 4.32125E-27
8.77480E-03 3.22796E-27
9.18641E-03 2.44185E-27
9.60736E-03 1.88038E-27
1.00376E-02 1.48146E-27
1.04773E-02 1.19872E-27
1.09262E-02 9.97844E-28
1.13844E-02 8.53685E-28
1.18520E-02 7.48080E-28
1.23288E-02 6.68100E-28
1.28150E-02 6.04729E-28
1.33104E-02 5.51835E-28
1.38150E-02 5.05385E-28
1.43290E-02 4.62848E-28
1.48521E-02 4.22746E-28
1.53845E-02 3.84312E-28
1.59262E-02 3.47248E-28
1.64770E-02 3.11538E-28
1.70371E-02 2.77328E-28
1.76063E-02 2.44829E-28
1.81848E-02 2.14264E-28
1.87724E-02 1.85829E-28
1.93692E-02 1.59673E-28
1.99751E-02 1.35888E-28
2.05901E-02 1.14508E-28
2.12143E-02 9.55107E-29
2.18476E-02 7.88274E-29
2.24900E-02 6.43487E-29
2.31415E-02 5.19346E-29
2.38021E-02 4.14225E-29
2.44717E-02 3.26365E-29
2.51504E-02 2.53934E-29
2.58382E-02 1.95098E-29
2.65349E-02 1.48068E-29
2.72407E-02 1.11138E-29
2.79555E-02 8.27193E-30
2.86793E-02 6.13556E-30
2.94120E-02 4.57380E-30
3.01537E-02 3.47091E-30
3.09043E-02 2.72626E-30
3.16639E-02 2.25387E-30
3.24324E-02 1.98159E-30
3.32098E-02 1.85001E-30
3.39961E-02 1.81125E-30
3.47912E-02 1.82771E-30
3.55952E-02 1.87069E-30
3.64081E-02 1.91914E-30
3.72297E-02 1.95840E-30
3.80602E-02 1.97903E-30
3.88995E-02 1.97582E-30
3.97476E-02 1.94677E-30
4.06044E-02 1.89234E-30
4.14700E-02 1.81472E-30
4.23443E-02 1.71722E-30
4.32273E-02 1.60383E-30
4.41190E-02 1.47880E-30
4.50194E-02 1.34637E-30
4.59284E-02 1.21053E-30
4.68461E-02 1.07487E-30
4.87074E-02 8.16010E-31
5.06030E-02 5.88104E-31
5.25328E-02 4.01017E-31
5.44967E-02 2.57435E-31
5.64946E-02 1.54760E-31
5.85262E-02 8.71009E-32
6.05914E-02 4.70214E-32
6.26901E-02 2.68968E-32
6.48222E-02 1.98344E-32
6.69873E-02 2.01898E-32
6.91854E-02 2.37566E-32
7.14163E-02 2.77189E-32
7.36799E-02 3.04570E-32
7.59760E-02 3.12800E-32
7.83043E-02 3.01460E-32
8.06647E-02 2.74053E-32
8.30571E-02 2.35919E-32
8.54812E-02 1.92700E-32
8.79369E-02 1.49353E-32
9.04240E-02 1.09620E-32
9.29422E-02 7.58751E-33
9.54915E-02 4.92095E-33
9.80716E-02 2.96736E-33
1.00682E-01 1.65764E-33
1.03323E-01 8.78732E-34
1.05995E-01 4.99887E-34
1.08696E-01 3.92808E-34
1.11427E-01 4.45186E-34
1.14188E-01 5.68053E-34
1.16978E-01 6.98043E-34
1.19797E-01 7.95932E-34
1.22645E-01 8.42844E-34
1.25522E-01 8.35324E-34
1.28428E-01 7.80234E-34
1.31361E-01 6.90139E-34
1.34323E-01 5.79570E-34
1.37313E-01 4.62313E-34
1.40330E-01 3.49724E-34
1.43375E-01 2.49912E-34
1.46447E-01 1.67623E-34
1.49545E-01 1.04591E-34
1.52671E-01 6.01677E-35
1.55823E-01 3.20605E-35
1.59001E-01 1.70483E-35
1.62205E-01 1.15990E-35
1.65435E-01 1.23413E-35
1.68690E-01 1.63779E-35
1.71970E-01 2.14528E-35
1.75276E-01 2.59960E-35
1.78606E-01 2.90787E-35
1.81961E-01 3.03101E-35
1.85340E-01 2.97061E-35
1.88743E-01 2.75533E-35
1.92169E-01 2.42843E-35
1.95619E-01 2.03758E-35
1.99092E-01 1.62740E-35
2.02589E-01 1.23462E-35
2.06107E-01 8.85777E-36
2.09649E-01 5.96748E-36
2.13212E-01 3.73781E-36
2.16797E-01 2.15311E-36
2.20404E-01 1.14190E-36
2.24032E-01 5.99240E-37
2.27680E-01 4.06550E-37
2.31350E-01 4.47405E-37
2.35040E-01 6.18691E-37
2.38751E-01 8.37202E-37
2.42481E-01 1.04227E-36
2.46231E-01 1.19532E-36
2.50000E-01 1.27718E-36
2.53788E-01 1.28425E-36
2.57595E-01 1.22408E-36
2.61421E-01 1.11112E-36
2.65264E-01 9.62970E-37
2.69126E-01 7.97392E-37
2.73005E-01 6.30196E-37
2.76901E-01 4.73951E-37
2.80814E-01 3.37415E-37
2.84744E-01 2.25564E-37
2.88691E-01 1.40016E-37
2.92653E-01 7.97118E-38
2.96632E-01 1.00000E-45
3.00625E-01 1.00000E-45
3.04634E-01 1.00000E-45
3.08658E-01 1.00000E-45
3.12697E-01 1.00000E-45
3.16749E-01 1.00000E-45
3.20816E-01 1.00000E-45
3.24896E-01 1.00000E-45
3.28990E-01 1.00000E-45
3.33097E-01 1.00000E-45
3.37216E-01 1.00000E-45
3.41348E-01 1.00000E-45
3.45492E-01 1.00000E-45
3.49647E-01 1.00000E-45
3.53814E-01 1.00000E-45
3.57992E-01 1.00000E-45
3.62181E-01 1.00000E-45
3.66381E-01 1.00000E-45
3.70590E-01 1.00000E-45
3.74810E-01 1.00000E-45
3.79039E-01 1.00000E-45
3.83277E-01 1.00000E-45
3.87524E-01 1.00000E-45
3.91780E-01 1.00000E-45
3.96044E-01 1.00000E-45
4.00316E-01 1.00000E-45
4.04596E-01 1.00000E-45
4.08882E-01 1.00000E-45
4.13176E-01 1.00000E-45
4.17476E-01 1.00000E-45
4.21783E-01 1.00000E-45
4.26095E-01 1.00000E-45
4.30413E-01 1.00000E-45
4.34737E-01 1.00000E-45
4.39065E-01 1.00000E-45
4.43398E-01 1.00000E-45
4.47736E-01 1.00000E-45
4.52077E-01 1.00000E-45
4.56422E-01 1.00000E-45
4.60770E-01 1.00000E-45
4.65122E-01 1.00000E-45
4.69476E-01 1.00000E-45
4.73832E-01 1.00000E-45
4.78190E-01 1.00000E-45
4.82550E-01 1.00000E-45
4.86912E-01 1.00000E-45
4.91274E-01 1.00000E-45
4.95637E-01 1.00000E-45
5.00000E-01 1.00000E-45
5.04363E-01 1.00000E-45
5.08726E-01 1.00000E-45
5.13088E-01 1.00000E-45
5.17450E-01 1.00000E-45
5.21810E-01 1.00000E-45
5.26168E-01 1.00000E-45
5.30524E-01 1.00000E-45
5.34878E-01 1.00000E-45
5.39230E-01 1.00000E-45
5.43578E-01 1.00000E-45
5.47923E-01 1.00000E-45
5.52264E-01 1.00000E-45
5.56602E-01 1.00000E-45
5.60935E-01 1.00000E-45
5.65263E-01 1.00000E-45
5.69587E-01 1.00000E-45
5.73905E-01 1.00000E-45
5.78217E-01 1.00000E-45
5.82524E-01 1.00000E-45
5.86824E-01 1.00000E-45
5.91118E-01 1.00000E-45
5.95404E-01 1.00000E-45
5.99684E-01 1.00000E-45
6.03956E-01 1.00000E-45
6.08220E-01 1.00000E-45
6.12476E-01 1.00000E-45
6.16723E-01 1.00000E-45
6.20961E-01 1.00000E-45
6.25190E-01 1.00000E-45
6.29410E-01 1.00000E-45
6.33619E-01 1.00000E-45
6.37819E-01 1.00000E-45
6.42008E-01 1.00000E-45
6.46186E-01 1.00000E-45
6.50353E-01 1.00000E-45
6.54508E-01 1.00000E-45
6.58652E-01 1.00000E-45
6.62784E-01 1.00000E-45
6.66903E-01 1.00000E-45
6.71010E-01 1.00000E-45
6.75104E-01 1.00000E-45
6.79184E-01 1.00000E-45
6.83251E-01 1.00000E-45
6.87303E-01 1.00000E-45
6.91342E-01 1.00000E-45
6.95366E-01 1.00000E-45
6.99375E-01 1.00000E-45
7.03368E-01 1.00000E-45
7.07347E-01 1.00000E-45
7.11309E-01 1.00000E-45
7.15256E-01 1.00000E-45
7.19186E-01 1.00000E-45
7.23099E-01 1.00000E-45
7.26995E-01 1.00000E-45
7.30874E-01 1.00000E-45
7.34736E-01 1.00000E-45
7.38579E-01 1.00000E-45
7.42405E-01 1.00000E-45
7.46212E-01 1.00000E-45
7.50000E-01 1.00000E-45
7.53769E-01 1.00000E-45
7.57519E-01 1.00000E-45
7.61249E-01 1.00000E-45
7.64960E-01 1.00000E-45
7.68650E-01 1.00000E-45
7.72320E-01 1.00000E-45
7.75968E-01 1.00000E-45
7.79596E-01 1.00000E-45
7.83203E-01 1.00000E-45
7.86788E-01 1.00000E-45
7.90351E-01 1.00000E-45
7.93893E-01 1.00000E-45
7.97411E-01 1.00000E-45
8.00908E-01 1.00000E-45
8.04381E-01 1.00000E-45
8.07831E-01 1.00000E-45
8.11257E-01 1.00000E-45
8.14660E-01 1.00000E-45
8.18039E-01 1.00000E-45
8.21394E-01 1.00000E-45
8.24724E-01 1.00000E-45
8.28030E-01 1.00000E-45
8.31310E-01 1.00000E-45
8.34565E-01 1.00000E-45
8.37795E-01 1.00000E-45
8.40999E-01 1.00000E-45
8.44177E-01 1.00000E-45
8.47329E-01 1.00000E-45
8.50455E-01 1.00000E-45
8.53553E-01 1.00000E-45
8.56625E-01 1.00000E-45
8.59670E-01 1.00000E-45
8.62687E-01 1.00000E-45
8.65677E-01 1.00000E-45
8.68639E-01 1.00000E-45
8.71572E-01 1.00000E-45
8.74478E-01 1.00000E-45
8.77355E-01 1.00000E-45
8.80203E-01 1.00000E-45
8.83022E-01 1.00000E-45
8.85812E-01 1.00000E-45
8.88573E-01 1.00000E-45
8.91304E-01 1.00000E-45
8.94005E-01 1.00000E-45
8.96677E-01 1.00000E-45
8.99318E-01 1.00000E-45
9.01928E-01 1.00000E-45
9.04508E-01 1.00000E-45
9.07058E-01 1.00000E-45
9.09576E-01 1.00000E-45
9.12063E-01 1.00000E-45
9.14519E-01 1.00000E-45
9.16943E-01 1.00000E-45
9.19335E-01 1.00000E-45
9.21696E-01 1.00000E-45
9.24024E-01 1.00000E-45
9.26320E-01 1.00000E-45
9.28584E-01 1.00000E-45
9.30815E-01 1.00000E-45
9.33013E-01 1.00000E-45
9.35178E-01 1.00000E-45
9.37310E-01 1.00000E-45
9.39409E-01 1.00000E-45
9.41474E-01 1.00000E-45
9.43505E-01 1.00000E-45
9.45503E-01 1.00000E-45
9.47467E-01 1.00000E-45
9.49397E-01 1.00000E-45
9.51293E-01 1.00000E-45
9.53154E-01 1.00000E-45
9.54981E-01 1.00000E-45
9.56773E-01 1.00000E-45
9.58530E-01 1.00000E-45
9.60252E-01 1.00000E-45
9.61940E-01 1.00000E-45
9.63592E-01 1.00000E-45
9.65209E-01 1.00000E-45
9.66790E-01 1.00000E-45
9.68336E-01 1.00000E-45
9.69846E-01 1.00000E-45
9.71321E-01 1.00000E-45
9.72759E-01 1.00000E-45
9.74162E-01 1.00000E-45
9.75528E-01 1.00000E-45
9.76858E-01 1.00000E-45
9.78152E-01 1.00000E-45
9.79410E-01 1.00000E-45
9.80631E-01 1.00000E-45
9.81815E-01 1.00000E-45
9.82963E-01 1.00000E-45
9.84074E-01 1.00000E-45
9.85148E-01 1.00000E-45
9.86185E-01 1.00000E-45
9.87185E-01 1.00000E-45
9.88148E-01 1.00000E-45
9.89074E-01 1.00000E-45
9.89962E-01 1.00000E-45
9.90814E-01 1.00000E-45
9.91627E-01 1.00000E-45
9.92404E-01 1.00000E-45
9.93143E-01 1.00000E-45
9.93844E-01 1.00000E-45
9.94508E-01 1.00000E-45
9.95134E-01 1.00000E-45
9.95722E-01 1.00000E-45
9.96273E-01 1.00000E-45
9.96786E-01 1.00000E-45
9.97261E-01 1.00000E-45
9.97698E-01 1.00000E-45
9.98097E-01 1.00000E-45
9.98459E-01 1.00000E-45
9.98782E-01 1.00000E-45
9.99067E-01 1.00000E-45
9.99315E-01 1.00000E-45
9.99524E-01 1.00000E-45
9.99695E-01 1.00000E-45
9.99829E-01 1.00000E-45
9.99924E-01 1.00000E-45
9.99981E-01 1.00000E-45
1.00000E+00 1.00000E-45
