 #
 # Subroutine ELSEPA. Elastic scattering of electrons and positrons
 #                    by neutral atoms and positive ions
 #
 # Projectile: electron
 # Kinetic energy = 3.50000E+07 eV = 1.28623E+06 a.u.
 #
 # WARNING: High-energy factorization with free-atom DF screening.
 #          Absorption, polarization and exchange corrections are
 #          switched off.
 #          Phase shifts are calculated for the bare nucleus.
 #          Scattering amplitudes are not evaluated.
 #
 # Element: Ag,  Z =  47,  atomic weight = 1.07868E+02 g/mol
 #
 # Nuclear model: Fermi distribution
 #                Average radius = 5.09348E-13 cm
 #                Skin thickness = 5.46000E-14 cm
 #
 # Number of electrons = 47
 #
 # Total elastic cross section = 4.27953E-18 cm**2 = 1.52825E-01 a0**2
 # 1st transport cross section = 3.41742E-24 cm**2 = 1.22038E-07 a0**2
 # 2nd transport cross section = 9.90890E-24 cm**2 = 3.53853E-07 a0**2
 #
 #
 # Differential cross section:                       MU=(1-COS(THETA))/2
 #
 #  THETA        MU          DCS          DCS        Sherman      error
 #  (deg)                 (cm**2/sr)   (a0**2/sr)    function
 #----------------------------------------------------------------------
0.00000E+00 3.51354E-11
7.61557E-13 3.51258E-11
1.18994E-12 3.51204E-11
1.71346E-12 3.51139E-11
2.33225E-12 3.51062E-11
3.04617E-12 3.50973E-11
3.85530E-12 3.50872E-11
4.75964E-12 3.50760E-11
5.75917E-12 3.50636E-11
6.85391E-12 3.50500E-11
8.04379E-12 3.50352E-11
9.32893E-12 3.50193E-11
1.07092E-11 3.50023E-11
1.21847E-11 3.49840E-11
1.37554E-11 3.49647E-11
1.54213E-11 3.49441E-11
1.71823E-11 3.49225E-11
1.90386E-11 3.48997E-11
2.09900E-11 3.48757E-11
2.30367E-11 3.48506E-11
2.51785E-11 3.48244E-11
2.74156E-11 3.47971E-11
2.97478E-11 3.47686E-11
3.21752E-11 3.47391E-11
3.46979E-11 3.47084E-11
3.73157E-11 3.46767E-11
4.00286E-11 3.46438E-11
4.28368E-11 3.46099E-11
4.57402E-11 3.45749E-11
4.87388E-11 3.45388E-11
5.18325E-11 3.45016E-11
5.50215E-11 3.44634E-11
5.83057E-11 3.44241E-11
6.16850E-11 3.43838E-11
6.51595E-11 3.43425E-11
6.87293E-11 3.43001E-11
7.23943E-11 3.42567E-11
7.61544E-11 3.42123E-11
1.18991E-10 3.37145E-11
1.71347E-10 3.31256E-11
2.33223E-10 3.24533E-11
3.04617E-10 3.17142E-11
3.85531E-10 3.09159E-11
4.75965E-10 3.00687E-11
5.75917E-10 2.91893E-11
6.85389E-10 2.82808E-11
8.04380E-10 2.73561E-11
9.32891E-10 2.64291E-11
1.07092E-09 2.54956E-11
1.21847E-09 2.45715E-11
1.37554E-09 2.36650E-11
1.54213E-09 2.27657E-11
1.71823E-09 2.18921E-11
1.90386E-09 2.10446E-11
2.09900E-09 2.02152E-11
2.30367E-09 1.94177E-11
2.51785E-09 1.86483E-11
2.74156E-09 1.79022E-11
2.97478E-09 1.71893E-11
3.21752E-09 1.65024E-11
3.46978E-09 1.58409E-11
3.73156E-09 1.52109E-11
4.00286E-09 1.46030E-11
4.28368E-09 1.40206E-11
4.57402E-09 1.34669E-11
4.87388E-09 1.29310E-11
5.18326E-09 1.24199E-11
5.50215E-09 1.19340E-11
5.83057E-09 1.14622E-11
6.16850E-09 1.10138E-11
6.51596E-09 1.05860E-11
6.87293E-09 1.01718E-11
7.23942E-09 9.77815E-12
7.61544E-09 9.40106E-12
1.18991E-08 6.38053E-12
1.71347E-08 4.38417E-12
2.33223E-08 3.00403E-12
3.04617E-08 2.14344E-12
3.85531E-08 1.54120E-12
4.75965E-08 1.12779E-12
5.75917E-08 8.45130E-13
6.85389E-08 6.42553E-13
8.04380E-08 4.98430E-13
9.32891E-08 3.94024E-13
1.07092E-07 3.15951E-13
1.21847E-07 2.57290E-13
1.37554E-07 2.12445E-13
1.54213E-07 1.77072E-13
1.71823E-07 1.49178E-13
1.90386E-07 1.26806E-13
2.09900E-07 1.08407E-13
2.30367E-07 9.33548E-14
2.51785E-07 8.08293E-14
2.74156E-07 7.02543E-14
2.97478E-07 6.13825E-14
3.21752E-07 5.38119E-14
3.46978E-07 4.73268E-14
3.73156E-07 4.17912E-14
4.00286E-07 3.69908E-14
4.28368E-07 3.28448E-14
4.57402E-07 2.92614E-14
4.87388E-07 2.61126E-14
5.18325E-07 2.33720E-14
5.50215E-07 2.09802E-14
5.83057E-07 1.88703E-14
6.16850E-07 1.70206E-14
6.51596E-07 1.53908E-14
6.87293E-07 1.39459E-14
7.23942E-07 1.26680E-14
7.61543E-07 1.15321E-14
1.18991E-06 5.00636E-15
1.71347E-06 2.52880E-15
2.33223E-06 1.41582E-15
3.04617E-06 8.54161E-16
3.85531E-06 5.44505E-16
4.75964E-06 3.62945E-16
5.75916E-06 2.50823E-16
6.85388E-06 1.78710E-16
8.04378E-06 1.30704E-16
9.32888E-06 9.77551E-17
1.07092E-05 7.45645E-17
1.21846E-05 5.78618E-17
1.37553E-05 4.55863E-17
1.54212E-05 3.64045E-17
1.71822E-05 2.94243E-17
1.90385E-05 2.40363E-17
2.09899E-05 1.98391E-17
2.30365E-05 1.65188E-17
2.51783E-05 1.38641E-17
2.74153E-05 1.17209E-17
2.97475E-05 9.97586E-18
3.21749E-05 8.54408E-18
3.46974E-05 7.36063E-18
3.73152E-05 6.37578E-18
4.00281E-05 5.55074E-18
4.28362E-05 4.85511E-18
4.57395E-05 4.26517E-18
4.87380E-05 3.76205E-18
5.18317E-05 3.33083E-18
5.50205E-05 2.95958E-18
5.83045E-05 2.63856E-18
6.16838E-05 2.35993E-18
6.51582E-05 2.11718E-18
6.87277E-05 1.90489E-18
7.23925E-05 1.71860E-18
7.61524E-05 1.55476E-18
9.21439E-05 1.06536E-18
1.09658E-04 7.54200E-19
1.28695E-04 5.48832E-19
1.49255E-04 4.08822E-19
1.71338E-04 3.10770E-19
1.94942E-04 2.40430E-19
2.20070E-04 1.88923E-19
2.46720E-04 1.50507E-19
2.74892E-04 1.21382E-19
3.04586E-04 9.89803E-20
3.35803E-04 8.15195E-20
3.68542E-04 6.77490E-20
4.02802E-04 5.67702E-20
4.38585E-04 4.79304E-20
4.75889E-04 4.07486E-20
5.14715E-04 3.48645E-20
5.55063E-04 3.00069E-20
5.96931E-04 2.59679E-20
6.40321E-04 2.25873E-20
6.85233E-04 1.97404E-20
7.31665E-04 1.73290E-20
7.79618E-04 1.52755E-20
8.29092E-04 1.35181E-20
8.80086E-04 1.20068E-20
9.32601E-04 1.07014E-20
9.86636E-04 9.56904E-21
1.04219E-03 8.58298E-21
1.09927E-03 7.72103E-21
1.15786E-03 6.96490E-21
1.21797E-03 6.29935E-21
1.27961E-03 5.71165E-21
1.34276E-03 5.19111E-21
1.40743E-03 4.72872E-21
1.47362E-03 4.31684E-21
1.54133E-03 3.94898E-21
1.61056E-03 3.61960E-21
1.68131E-03 3.32398E-21
1.75357E-03 3.05803E-21
1.82735E-03 2.81824E-21
1.90265E-03 2.60158E-21
1.97947E-03 2.40542E-21
2.05780E-03 2.22747E-21
2.13765E-03 2.06574E-21
2.21902E-03 1.91848E-21
2.30190E-03 1.78416E-21
2.38630E-03 1.66144E-21
2.47222E-03 1.54913E-21
2.55965E-03 1.44620E-21
2.64859E-03 1.35170E-21
2.73905E-03 1.26483E-21
2.83103E-03 1.18486E-21
2.92452E-03 1.11114E-21
3.01952E-03 1.04309E-21
3.11604E-03 9.80192E-22
3.21407E-03 9.21985E-22
3.31362E-03 8.68054E-22
3.41468E-03 8.18028E-22
3.51725E-03 7.71572E-22
3.62133E-03 7.28383E-22
3.72692E-03 6.88187E-22
3.83403E-03 6.50739E-22
3.94265E-03 6.15817E-22
4.05278E-03 5.83219E-22
4.16442E-03 5.52759E-22
4.27757E-03 5.24272E-22
4.39223E-03 4.97605E-22
4.50840E-03 4.72622E-22
4.62608E-03 4.49195E-22
4.74527E-03 4.27210E-22
4.86597E-03 4.06559E-22
4.98817E-03 3.87148E-22
5.11188E-03 3.68888E-22
5.23711E-03 3.51698E-22
5.36383E-03 3.35503E-22
5.49207E-03 3.20234E-22
5.62181E-03 3.05829E-22
5.75306E-03 2.92229E-22
5.88581E-03 2.79381E-22
6.02007E-03 2.67236E-22
6.15583E-03 2.55746E-22
6.29310E-03 2.44870E-22
6.43187E-03 2.34571E-22
6.57214E-03 2.24810E-22
6.71392E-03 2.15555E-22
6.85720E-03 2.06773E-22
7.00198E-03 1.98436E-22
7.14827E-03 1.90518E-22
7.29605E-03 1.82994E-22
7.44534E-03 1.75839E-22
7.59612E-03 1.69032E-22
7.97965E-03 1.53411E-22
8.37255E-03 1.39561E-22
8.77480E-03 1.27249E-22
9.18641E-03 1.16272E-22
9.60736E-03 1.06459E-22
1.00376E-02 9.76662E-23
1.04773E-02 8.97670E-23
1.09262E-02 8.26548E-23
1.13844E-02 7.62369E-23
1.18520E-02 7.04331E-23
1.23288E-02 6.51742E-23
1.28150E-02 6.03995E-23
1.33104E-02 5.60564E-23
1.38150E-02 5.20986E-23
1.43290E-02 4.84857E-23
1.48521E-02 4.51822E-23
1.53845E-02 4.21564E-23
1.59262E-02 3.93809E-23
1.64770E-02 3.68311E-23
1.70371E-02 3.44853E-23
1.76063E-02 3.23240E-23
1.81848E-02 3.03302E-23
1.87724E-02 2.84883E-23
1.93692E-02 2.67846E-23
1.99751E-02 2.52069E-23
2.05901E-02 2.37440E-23
2.12143E-02 2.23861E-23
2.18476E-02 2.11242E-23
2.24900E-02 1.99502E-23
2.31415E-02 1.88569E-23
2.38021E-02 1.78376E-23
2.44717E-02 1.68864E-23
2.51504E-02 1.59979E-23
2.58382E-02 1.51672E-23
2.65349E-02 1.43898E-23
2.72407E-02 1.36616E-23
2.79555E-02 1.29790E-23
2.86793E-02 1.23385E-23
2.94120E-02 1.17370E-23
3.01537E-02 1.11718E-23
3.09043E-02 1.06401E-23
3.16639E-02 1.01398E-23
3.24324E-02 9.66843E-24
3.32098E-02 9.22414E-24
3.39961E-02 8.80505E-24
3.47912E-02 8.40945E-24
3.55952E-02 8.03578E-24
3.64081E-02 7.68260E-24
3.72297E-02 7.34855E-24
3.80602E-02 7.03241E-24
3.88995E-02 6.73304E-24
3.97476E-02 6.44937E-24
4.06044E-02 6.18042E-24
4.14700E-02 5.92529E-24
4.23443E-02 5.68312E-24
4.32273E-02 5.45314E-24
4.41190E-02 5.23462E-24
4.50194E-02 5.02686E-24
4.59284E-02 4.82925E-24
4.68461E-02 4.64119E-24
4.87074E-02 4.29156E-24
5.06030E-02 3.97400E-24
5.25328E-02 3.68504E-24
5.44967E-02 3.42164E-24
5.64946E-02 3.18112E-24
5.85262E-02 2.96115E-24
6.05914E-02 2.75964E-24
6.26901E-02 2.57478E-24
6.48222E-02 2.40493E-24
6.69873E-02 2.24866E-24
6.91854E-02 2.10469E-24
7.14163E-02 1.97187E-24
7.36799E-02 1.84919E-24
7.59760E-02 1.73573E-24
7.83043E-02 1.63068E-24
8.06647E-02 1.53329E-24
8.30571E-02 1.44291E-24
8.54812E-02 1.35895E-24
8.79369E-02 1.28087E-24
9.04240E-02 1.20818E-24
9.29422E-02 1.14045E-24
9.54915E-02 1.07727E-24
9.80716E-02 1.01829E-24
1.00682E-01 9.63173E-25
1.03323E-01 9.11627E-25
1.05995E-01 8.63379E-25
1.08696E-01 8.18180E-25
1.11427E-01 7.75804E-25
1.14188E-01 7.36044E-25
1.16978E-01 6.98709E-25
1.19797E-01 6.63627E-25
1.22645E-01 6.30637E-25
1.25522E-01 5.99594E-25
1.28428E-01 5.70362E-25
1.31361E-01 5.42818E-25
1.34323E-01 5.16848E-25
1.37313E-01 4.92345E-25
1.40330E-01 4.69214E-25
1.43375E-01 4.47365E-25
1.46447E-01 4.26713E-25
1.49545E-01 4.07184E-25
1.52671E-01 3.88704E-25
1.55823E-01 3.71209E-25
1.59001E-01 3.54638E-25
1.62205E-01 3.38933E-25
1.65435E-01 3.24041E-25
1.68690E-01 3.09915E-25
1.71970E-01 2.96507E-25
1.75276E-01 2.83775E-25
1.78606E-01 2.71680E-25
1.81961E-01 2.60185E-25
1.85340E-01 2.49255E-25
1.88743E-01 2.38857E-25
1.92169E-01 2.28963E-25
1.95619E-01 2.19543E-25
1.99092E-01 2.10572E-25
2.02589E-01 2.02024E-25
2.06107E-01 1.93876E-25
2.09649E-01 1.86107E-25
2.13212E-01 1.78697E-25
2.16797E-01 1.71626E-25
2.20404E-01 1.64876E-25
2.24032E-01 1.58431E-25
2.27680E-01 1.52274E-25
2.31350E-01 1.46392E-25
2.35040E-01 1.40769E-25
2.38751E-01 1.35393E-25
2.42481E-01 1.30251E-25
2.46231E-01 1.25332E-25
2.50000E-01 1.20624E-25
2.53788E-01 1.16117E-25
2.57595E-01 1.11802E-25
2.61421E-01 1.07668E-25
2.65264E-01 1.03708E-25
2.69126E-01 9.99121E-26
2.73005E-01 9.62736E-26
2.76901E-01 9.27847E-26
2.80814E-01 8.94384E-26
2.84744E-01 8.62281E-26
2.88691E-01 8.31475E-26
2.92653E-01 8.01906E-26
2.96632E-01 7.73518E-26
3.00625E-01 7.46257E-26
3.04634E-01 7.20073E-26
3.08658E-01 6.94917E-26
3.12697E-01 6.70744E-26
3.16749E-01 6.47510E-26
3.20816E-01 6.25173E-26
3.24896E-01 6.03695E-26
3.28990E-01 5.83039E-26
3.33097E-01 5.63168E-26
3.37216E-01 5.44050E-26
3.41348E-01 5.25651E-26
3.45492E-01 5.07943E-26
3.49647E-01 4.90895E-26
3.53814E-01 4.74479E-26
3.57992E-01 4.58670E-26
3.62181E-01 4.43442E-26
3.66381E-01 4.28772E-26
3.70590E-01 4.14636E-26
3.74810E-01 4.01013E-26
3.79039E-01 3.87881E-26
3.83277E-01 3.75222E-26
3.87524E-01 3.63015E-26
3.91780E-01 3.51244E-26
3.96044E-01 3.39890E-26
4.00316E-01 3.28937E-26
4.04596E-01 3.18370E-26
4.08882E-01 3.08173E-26
4.13176E-01 2.98332E-26
4.17476E-01 2.88832E-26
4.21783E-01 2.79662E-26
4.26095E-01 2.70808E-26
4.30413E-01 2.62258E-26
4.34737E-01 2.54000E-26
4.39065E-01 2.46024E-26
4.43398E-01 2.38319E-26
4.47736E-01 2.30875E-26
4.52077E-01 2.23681E-26
4.56422E-01 2.16729E-26
4.60770E-01 2.10010E-26
4.65122E-01 2.03515E-26
4.69476E-01 1.97235E-26
4.73832E-01 1.91164E-26
4.78190E-01 1.85293E-26
4.82550E-01 1.79615E-26
4.86912E-01 1.74123E-26
4.91274E-01 1.68810E-26
4.95637E-01 1.63671E-26
5.00000E-01 1.58698E-26
5.04363E-01 1.53887E-26
5.08726E-01 1.49230E-26
5.13088E-01 1.44723E-26
5.17450E-01 1.40361E-26
5.21810E-01 1.36138E-26
5.26168E-01 1.32050E-26
5.30524E-01 1.28091E-26
5.34878E-01 1.24258E-26
5.39230E-01 1.20546E-26
5.43578E-01 1.16950E-26
5.47923E-01 1.13468E-26
5.52264E-01 1.10095E-26
5.56602E-01 1.06827E-26
5.60935E-01 1.03660E-26
5.65263E-01 1.00592E-26
5.69587E-01 9.76191E-27
5.73905E-01 9.47378E-27
5.78217E-01 9.19453E-27
5.82524E-01 8.92385E-27
5.86824E-01 8.66147E-27
5.91118E-01 8.40710E-27
5.95404E-01 8.16049E-27
5.99684E-01 7.92137E-27
6.03956E-01 7.68951E-27
6.08220E-01 7.46465E-27
6.12476E-01 7.24659E-27
6.16723E-01 7.03509E-27
6.20961E-01 6.82994E-27
6.25190E-01 6.63094E-27
6.29410E-01 6.43788E-27
6.33619E-01 6.25059E-27
6.37819E-01 6.06886E-27
6.42008E-01 5.89253E-27
6.46186E-01 5.72143E-27
6.50353E-01 5.55538E-27
6.54508E-01 5.39423E-27
6.58652E-01 5.23782E-27
6.62784E-01 5.08600E-27
6.66903E-01 4.93863E-27
6.71010E-01 4.79557E-27
6.75104E-01 4.65669E-27
6.79184E-01 4.52184E-27
6.83251E-01 4.39092E-27
6.87303E-01 4.26380E-27
6.91342E-01 4.14035E-27
6.95366E-01 4.02047E-27
6.99375E-01 3.90405E-27
7.03368E-01 3.79097E-27
7.07347E-01 3.68115E-27
7.11309E-01 3.57447E-27
7.15256E-01 3.47085E-27
7.19186E-01 3.37018E-27
7.23099E-01 3.27239E-27
7.26995E-01 3.17738E-27
7.30874E-01 3.08507E-27
7.34736E-01 2.99538E-27
7.38579E-01 2.90823E-27
7.42405E-01 2.82354E-27
7.46212E-01 2.74124E-27
7.50000E-01 2.66126E-27
7.53769E-01 2.58353E-27
7.57519E-01 2.50798E-27
7.61249E-01 2.43455E-27
7.64960E-01 2.36318E-27
7.68650E-01 2.29381E-27
7.72320E-01 2.22637E-27
7.75968E-01 2.16081E-27
7.79596E-01 2.09707E-27
7.83203E-01 2.03511E-27
7.86788E-01 1.97487E-27
7.90351E-01 1.91630E-27
7.93893E-01 1.85935E-27
7.97411E-01 1.80397E-27
8.00908E-01 1.75013E-27
8.04381E-01 1.69777E-27
8.07831E-01 1.64685E-27
8.11257E-01 1.59734E-27
8.14660E-01 1.54918E-27
8.18039E-01 1.50235E-27
8.21394E-01 1.45681E-27
8.24724E-01 1.41251E-27
8.28030E-01 1.36943E-27
8.31310E-01 1.32753E-27
8.34565E-01 1.28677E-27
8.37795E-01 1.24712E-27
8.40999E-01 1.20856E-27
8.44177E-01 1.17105E-27
8.47329E-01 1.13457E-27
8.50455E-01 1.09908E-27
8.53553E-01 1.06455E-27
8.56625E-01 1.03097E-27
8.59670E-01 9.98300E-28
8.62687E-01 9.66520E-28
8.65677E-01 9.35605E-28
8.68639E-01 9.05531E-28
8.71572E-01 8.76275E-28
8.74478E-01 8.47815E-28
8.77355E-01 8.20129E-28
8.80203E-01 7.93197E-28
8.83022E-01 7.66998E-28
8.85812E-01 7.41513E-28
8.88573E-01 7.16722E-28
8.91304E-01 6.92607E-28
8.94005E-01 6.69150E-28
8.96677E-01 6.46334E-28
8.99318E-01 6.24141E-28
9.01928E-01 6.02555E-28
9.04508E-01 5.81561E-28
9.07058E-01 5.61142E-28
9.09576E-01 5.41285E-28
9.12063E-01 5.21974E-28
9.14519E-01 5.03195E-28
9.16943E-01 4.84935E-28
9.19335E-01 4.67180E-28
9.21696E-01 4.49918E-28
9.24024E-01 4.33136E-28
9.26320E-01 4.16822E-28
9.28584E-01 4.00965E-28
9.30815E-01 3.85552E-28
9.33013E-01 3.70574E-28
9.35178E-01 3.56019E-28
9.37310E-01 3.41876E-28
9.39409E-01 3.28137E-28
9.41474E-01 3.14791E-28
9.43505E-01 3.01829E-28
9.45503E-01 2.89241E-28
9.47467E-01 2.77020E-28
9.49397E-01 2.65155E-28
9.51293E-01 2.53639E-28
9.53154E-01 2.42465E-28
9.54981E-01 2.31623E-28
9.56773E-01 2.21107E-28
9.58530E-01 2.10910E-28
9.60252E-01 2.01023E-28
9.61940E-01 1.91441E-28
9.63592E-01 1.82157E-28
9.65209E-01 1.73164E-28
9.66790E-01 1.64456E-28
9.68336E-01 1.56027E-28
9.69846E-01 1.47872E-28
9.71321E-01 1.39985E-28
9.72759E-01 1.32360E-28
9.74162E-01 1.24993E-28
9.75528E-01 1.17878E-28
9.76858E-01 1.11010E-28
9.78152E-01 1.04385E-28
9.79410E-01 9.79985E-29
9.80631E-01 9.18459E-29
9.81815E-01 8.59232E-29
9.82963E-01 8.02264E-29
9.84074E-01 7.47515E-29
9.85148E-01 6.94951E-29
9.86185E-01 6.44534E-29
9.87185E-01 5.96232E-29
9.88148E-01 5.50012E-29
9.89074E-01 5.05844E-29
9.89962E-01 4.63697E-29
9.90814E-01 4.23543E-29
9.91627E-01 3.85357E-29
9.92404E-01 3.49111E-29
9.93143E-01 3.14784E-29
9.93844E-01 2.82350E-29
9.94508E-01 2.51790E-29
9.95134E-01 2.23082E-29
9.95722E-01 1.96208E-29
9.96273E-01 1.71150E-29
9.96786E-01 1.47891E-29
9.97261E-01 1.26417E-29
9.97698E-01 1.06711E-29
9.98097E-01 8.87629E-30
9.98459E-01 7.25594E-30
9.98782E-01 5.80900E-30
9.99067E-01 4.53453E-30
9.99315E-01 3.43168E-30
9.99524E-01 2.49972E-30
9.99695E-01 1.73805E-30
9.99829E-01 1.14615E-30
9.99924E-01 7.23651E-31
9.99981E-01 4.70261E-31
1.00000E+00 3.85815E-31
