 #
 # Subroutine ELSEPA. Elastic scattering of electrons and positrons
 #                    by neutral atoms and positive ions
 #
 # Projectile: electron
 # Kinetic energy = 4.50000E+08 eV = 1.65372E+07 a.u.
 #
 # WARNING: High-energy factorization with free-atom DF screening.
 #          Absorption, polarization and exchange corrections are
 #          switched off.
 #          Phase shifts are calculated for the bare nucleus.
 #          Scattering amplitudes are not evaluated.
 #
 # Element: Ag,  Z =  47,  atomic weight = 1.07868E+02 g/mol
 #
 # Nuclear model: Fermi distribution
 #                Average radius = 5.09348E-13 cm
 #                Skin thickness = 5.46000E-14 cm
 #
 # Number of electrons = 47
 #
 # Total elastic cross section = 4.27818E-18 cm**2 = 1.52777E-01 a0**2
 # 1st transport cross section = 2.15514E-26 cm**2 = 7.69615E-10 a0**2
 # 2nd transport cross section = 6.46221E-26 cm**2 = 2.30770E-09 a0**2
 #
 #
 # Differential cross section:                       MU=(1-COS(THETA))/2
 #
 #  THETA        MU          DCS          DCS        Sherman      error
 #  (deg)                 (cm**2/sr)   (a0**2/sr)    function
 #----------------------------------------------------------------------
0.00000E+00 5.65496E-09
7.61557E-13 5.41960E-09
1.18994E-12 5.29560E-09
1.71346E-12 5.15179E-09
2.33225E-12 4.99135E-09
3.04617E-12 4.81843E-09
3.85530E-12 4.63672E-09
4.75964E-12 4.44964E-09
5.75917E-12 4.26021E-09
6.85391E-12 4.07001E-09
8.04379E-12 3.88188E-09
9.32893E-12 3.69775E-09
1.07092E-11 3.51895E-09
1.21847E-11 3.34639E-09
1.37554E-11 3.18044E-09
1.54213E-11 3.02085E-09
1.71823E-11 2.86874E-09
1.90386E-11 2.72412E-09
2.09900E-11 2.58689E-09
2.30367E-11 2.45686E-09
2.51785E-11 2.33310E-09
2.74156E-11 2.21570E-09
2.97478E-11 2.10471E-09
3.21752E-11 1.99979E-09
3.46979E-11 1.90062E-09
3.73157E-11 1.80683E-09
4.00286E-11 1.71744E-09
4.28368E-11 1.63295E-09
4.57402E-11 1.55305E-09
4.87388E-11 1.47748E-09
5.18325E-11 1.40598E-09
5.50215E-11 1.33803E-09
5.83057E-11 1.27344E-09
6.16850E-11 1.21229E-09
6.51595E-11 1.15439E-09
6.87293E-11 1.09954E-09
7.23943E-11 1.04757E-09
7.61544E-11 9.97975E-10
1.18991E-10 6.18038E-10
1.71347E-10 3.94631E-10
2.33223E-10 2.57244E-10
3.04617E-10 1.73493E-10
3.85531E-10 1.20801E-10
4.75965E-10 8.67069E-11
5.75917E-10 6.40435E-11
6.85389E-10 4.84994E-11
8.04380E-10 3.75885E-11
9.32891E-10 2.97117E-11
1.07092E-09 2.38753E-11
1.21847E-09 1.94498E-11
1.37554E-09 1.60193E-11
1.54213E-09 1.33041E-11
1.71823E-09 1.11390E-11
1.90386E-09 9.39182E-12
2.09900E-09 7.96760E-12
2.30367E-09 6.79665E-12
2.51785E-09 5.82354E-12
2.74156E-09 5.01353E-12
2.97478E-09 4.33517E-12
3.21752E-09 3.76463E-12
3.46978E-09 3.28312E-12
3.73156E-09 2.87493E-12
4.00286E-09 2.52679E-12
4.28368E-09 2.22949E-12
4.57402E-09 1.97447E-12
4.87388E-09 1.75476E-12
5.18326E-09 1.56473E-12
5.50215E-09 1.39964E-12
5.83057E-09 1.25574E-12
6.16850E-09 1.12999E-12
6.51596E-09 1.01974E-12
6.87293E-09 9.22764E-13
7.23942E-09 8.37194E-13
7.61544E-09 7.61416E-13
1.18991E-08 3.29700E-13
1.71347E-08 1.65746E-13
2.33223E-08 9.20866E-14
3.04617E-08 5.50520E-14
3.85531E-08 3.48425E-14
4.75965E-08 2.30896E-14
5.75917E-08 1.58926E-14
6.85389E-08 1.12920E-14
8.04380E-08 8.24217E-15
9.32891E-08 6.15648E-15
1.07092E-07 4.69127E-15
1.21847E-07 3.63755E-15
1.37554E-07 2.86403E-15
1.54213E-07 2.28579E-15
1.71823E-07 1.84650E-15
1.90386E-07 1.50790E-15
2.09900E-07 1.24350E-15
2.30367E-07 1.03461E-15
2.51785E-07 8.67803E-16
2.74156E-07 7.33295E-16
2.97478E-07 6.23862E-16
3.21752E-07 5.34096E-16
3.46978E-07 4.59903E-16
3.73156E-07 3.98151E-16
4.00286E-07 3.46419E-16
4.28368E-07 3.02817E-16
4.57402E-07 2.65860E-16
4.87388E-07 2.34369E-16
5.18325E-07 2.07402E-16
5.50215E-07 1.84202E-16
5.83057E-07 1.64155E-16
6.16850E-07 1.46760E-16
6.51596E-07 1.31607E-16
6.87293E-07 1.18360E-16
7.23942E-07 1.06737E-16
7.61543E-07 9.65048E-17
1.18991E-06 3.96680E-17
1.71347E-06 1.91675E-17
2.33223E-06 1.03587E-17
3.04617E-06 6.07703E-18
3.85531E-06 3.79612E-18
4.75964E-06 2.49180E-18
5.75916E-06 1.70258E-18
6.85388E-06 1.20252E-18
8.04378E-06 8.73312E-19
9.32888E-06 6.49447E-19
1.07092E-05 4.92941E-19
1.21846E-05 3.80870E-19
1.37553E-05 2.98920E-19
1.54212E-05 2.37875E-19
1.71822E-05 1.91651E-19
1.90385E-05 1.56095E-19
2.09899E-05 1.28483E-19
2.30365E-05 1.06709E-19
2.51783E-05 8.93475E-20
2.74153E-05 7.53689E-20
2.97475E-05 6.40162E-20
3.21749E-05 5.47229E-20
3.46974E-05 4.70592E-20
3.73152E-05 4.06949E-20
4.00281E-05 3.53737E-20
4.28362E-05 3.08960E-20
4.57395E-05 2.71053E-20
4.87380E-05 2.38778E-20
5.18317E-05 2.11160E-20
5.50205E-05 1.87418E-20
5.83045E-05 1.66920E-20
6.16838E-05 1.49151E-20
6.51582E-05 1.33689E-20
6.87277E-05 1.20184E-20
7.23925E-05 1.08345E-20
7.61524E-05 9.81385E-21
9.21439E-05 6.70501E-21
1.09658E-04 4.73439E-21
1.28695E-04 3.43700E-21
1.49255E-04 2.55434E-21
1.71338E-04 1.93728E-21
1.94942E-04 1.49531E-21
2.20070E-04 1.17212E-21
2.46720E-04 9.31401E-22
2.74892E-04 7.49131E-22
3.04586E-04 6.09116E-22
3.35803E-04 5.00123E-22
3.68542E-04 4.14279E-22
4.02802E-04 3.45933E-22
4.38585E-04 2.90982E-22
4.75889E-04 2.46407E-22
5.14715E-04 2.09945E-22
5.55063E-04 1.79896E-22
5.96931E-04 1.54957E-22
6.40321E-04 1.34123E-22
6.85233E-04 1.16615E-22
7.31665E-04 1.01817E-22
7.79618E-04 8.92449E-23
8.29092E-04 7.85110E-23
8.80086E-04 6.93047E-23
9.32601E-04 6.13740E-23
9.86636E-04 5.45146E-23
1.04219E-03 4.85589E-23
1.09927E-03 4.33692E-23
1.15786E-03 3.88317E-23
1.21797E-03 3.48513E-23
1.27961E-03 3.13492E-23
1.34276E-03 2.82589E-23
1.40743E-03 2.55244E-23
1.47362E-03 2.30985E-23
1.54133E-03 2.09410E-23
1.61056E-03 1.90176E-23
1.68131E-03 1.72991E-23
1.75357E-03 1.57604E-23
1.82735E-03 1.43797E-23
1.90265E-03 1.31385E-23
1.97947E-03 1.20205E-23
2.05780E-03 1.10118E-23
2.13765E-03 1.01000E-23
2.21902E-03 9.27453E-24
2.30190E-03 8.52601E-24
2.38630E-03 7.84624E-24
2.47222E-03 7.22802E-24
2.55965E-03 6.66499E-24
2.64859E-03 6.15153E-24
2.73905E-03 5.68269E-24
2.83103E-03 5.25405E-24
2.92452E-03 4.86171E-24
3.01952E-03 4.50219E-24
3.11604E-03 4.17236E-24
3.21407E-03 3.86948E-24
3.31362E-03 3.59104E-24
3.41468E-03 3.33483E-24
3.51725E-03 3.09885E-24
3.62133E-03 2.88131E-24
3.72692E-03 2.68059E-24
3.83403E-03 2.49523E-24
3.94265E-03 2.32393E-24
4.05278E-03 2.16548E-24
4.16442E-03 2.01882E-24
4.27757E-03 1.88297E-24
4.39223E-03 1.75704E-24
4.50840E-03 1.64024E-24
4.62608E-03 1.53182E-24
4.74527E-03 1.43113E-24
4.86597E-03 1.33756E-24
4.98817E-03 1.25055E-24
5.11188E-03 1.16960E-24
5.23711E-03 1.09424E-24
5.36383E-03 1.02406E-24
5.49207E-03 9.58661E-25
5.62181E-03 8.97690E-25
5.75306E-03 8.40822E-25
5.88581E-03 7.87756E-25
6.02007E-03 7.38216E-25
6.15583E-03 6.91950E-25
6.29310E-03 6.48724E-25
6.43187E-03 6.08322E-25
6.57214E-03 5.70547E-25
6.71392E-03 5.35214E-25
6.85720E-03 5.02155E-25
7.00198E-03 4.71213E-25
7.14827E-03 4.42243E-25
7.29605E-03 4.15113E-25
7.44534E-03 3.89697E-25
7.59612E-03 3.65881E-25
7.97965E-03 3.12659E-25
8.37255E-03 2.67325E-25
8.77480E-03 2.28658E-25
9.18641E-03 1.95639E-25
9.60736E-03 1.67414E-25
1.00376E-02 1.43267E-25
1.04773E-02 1.22595E-25
1.09262E-02 1.04886E-25
1.13844E-02 8.97098E-26
1.18520E-02 7.67003E-26
1.23288E-02 6.55460E-26
1.28150E-02 5.59820E-26
1.33104E-02 4.77821E-26
1.38150E-02 4.07531E-26
1.43290E-02 3.47297E-26
1.48521E-02 2.95703E-26
1.53845E-02 2.51533E-26
1.59262E-02 2.13744E-26
1.64770E-02 1.81439E-26
1.70371E-02 1.53846E-26
1.76063E-02 1.30303E-26
1.81848E-02 1.10237E-26
1.87724E-02 9.31553E-27
1.93692E-02 7.86344E-27
1.99751E-02 6.63083E-27
2.05901E-02 5.58619E-27
2.12143E-02 4.70234E-27
2.18476E-02 3.95591E-27
2.24900E-02 3.32674E-27
2.31415E-02 2.79749E-27
2.38021E-02 2.35324E-27
2.44717E-02 1.98117E-27
2.51504E-02 1.67027E-27
2.58382E-02 1.41110E-27
2.65349E-02 1.19556E-27
2.72407E-02 1.01674E-27
2.79555E-02 8.68721E-28
2.86793E-02 7.46467E-28
2.94120E-02 6.45688E-28
3.01537E-02 5.62744E-28
3.09043E-02 4.94553E-28
3.16639E-02 4.38510E-28
3.24324E-02 3.92424E-28
3.32098E-02 3.54456E-28
3.39961E-02 3.23070E-28
3.47912E-02 2.96985E-28
3.55952E-02 2.75143E-28
3.64081E-02 2.56670E-28
3.72297E-02 2.40852E-28
3.80602E-02 2.27108E-28
3.88995E-02 2.14968E-28
3.97476E-02 2.04059E-28
4.06044E-02 1.94084E-28
4.14700E-02 1.84813E-28
4.23443E-02 1.76068E-28
4.32273E-02 1.67718E-28
4.41190E-02 1.59663E-28
4.50194E-02 1.51837E-28
4.59284E-02 1.44193E-28
4.68461E-02 1.36703E-28
4.87074E-02 1.22143E-28
5.06030E-02 1.08152E-28
5.25328E-02 9.48127E-29
5.44967E-02 8.22406E-29
5.64946E-02 7.05484E-29
5.85262E-02 5.98274E-29
6.05914E-02 5.01383E-29
6.26901E-02 4.15083E-29
6.48222E-02 3.39327E-29
6.69873E-02 2.73792E-29
6.91854E-02 2.17928E-29
7.14163E-02 1.71022E-29
7.36799E-02 1.32246E-29
7.59760E-02 1.00712E-29
7.83043E-02 7.55115E-30
8.06647E-02 5.57513E-30
8.30571E-02 4.05809E-30
8.54812E-02 2.92108E-30
8.79369E-02 2.09258E-30
9.04240E-02 1.50918E-30
9.29422E-02 1.11586E-30
9.54915E-02 8.65804E-31
9.80716E-02 7.20066E-31
1.00682E-01 6.46934E-31
1.03323E-01 6.21225E-31
1.05995E-01 6.23497E-31
1.08696E-01 6.39245E-31
1.11427E-01 6.58109E-31
1.14188E-01 6.73130E-31
1.16978E-01 6.80064E-31
1.19797E-01 6.76771E-31
1.22645E-01 6.62680E-31
1.25522E-01 6.38336E-31
1.28428E-01 6.05023E-31
1.31361E-01 5.64463E-31
1.34323E-01 5.18573E-31
1.37313E-01 4.69290E-31
1.40330E-01 4.18441E-31
1.43375E-01 3.67654E-31
1.46447E-01 3.18312E-31
1.49545E-01 2.71525E-31
1.52671E-01 2.28128E-31
1.55823E-01 1.88697E-31
1.59001E-01 1.53571E-31
1.62205E-01 1.22880E-31
1.65435E-01 9.65856E-32
1.68690E-01 7.45092E-32
1.71970E-01 5.63694E-32
1.75276E-01 4.18121E-32
1.78606E-01 3.04382E-32
1.81961E-01 2.18280E-32
1.85340E-01 1.55601E-32
1.88743E-01 1.12277E-32
1.92169E-01 8.45004E-33
1.95619E-01 6.88093E-33
1.99092E-01 6.21360E-33
2.02589E-01 6.18339E-33
2.06107E-01 6.56805E-33
2.09649E-01 7.18644E-33
2.13212E-01 7.89583E-33
2.16797E-01 8.58845E-33
2.20404E-01 9.18734E-33
2.24032E-01 9.64203E-33
2.27680E-01 9.92413E-33
2.31350E-01 1.00231E-32
2.35040E-01 9.94222E-33
2.38751E-01 9.69500E-33
2.42481E-01 9.30201E-33
2.46231E-01 8.78814E-33
2.50000E-01 8.18033E-33
2.53788E-01 7.50578E-33
2.57595E-01 6.79054E-33
2.61421E-01 6.05848E-33
2.65264E-01 5.33061E-33
2.69126E-01 4.62469E-33
2.73005E-01 3.95507E-33
2.76901E-01 3.33267E-33
2.80814E-01 2.76520E-33
2.84744E-01 2.25740E-33
2.88691E-01 1.81142E-33
2.92653E-01 1.42715E-33
2.96632E-01 1.10265E-33
3.00625E-01 8.34573E-34
3.04634E-01 6.18470E-34
3.08658E-01 4.49190E-34
3.12697E-01 3.21156E-34
3.16749E-01 2.28639E-34
3.20816E-01 1.65967E-34
3.24896E-01 1.27703E-34
3.28990E-01 1.08777E-34
3.33097E-01 1.04580E-34
3.37216E-01 1.11022E-34
3.41348E-01 1.24562E-34
3.45492E-01 1.42218E-34
3.49647E-01 1.61549E-34
3.53814E-01 1.80624E-34
3.57992E-01 1.97983E-34
3.62181E-01 2.12589E-34
3.66381E-01 2.23770E-34
3.70590E-01 2.31168E-34
3.74810E-01 2.34684E-34
3.79039E-01 2.34421E-34
3.83277E-01 2.30643E-34
3.87524E-01 2.23725E-34
3.91780E-01 2.14115E-34
3.96044E-01 2.02305E-34
4.00316E-01 1.88797E-34
4.04596E-01 1.74084E-34
4.08882E-01 1.58634E-34
4.13176E-01 1.42872E-34
4.17476E-01 1.27177E-34
4.21783E-01 1.11871E-34
4.26095E-01 9.72226E-35
4.30413E-01 8.34431E-35
4.34737E-01 7.06901E-35
4.39065E-01 5.90715E-35
4.43398E-01 4.86497E-35
4.47736E-01 3.94474E-35
4.52077E-01 3.14532E-35
4.56422E-01 2.46276E-35
4.60770E-01 1.89087E-35
4.65122E-01 1.42176E-35
4.69476E-01 1.04635E-35
4.73832E-01 7.54808E-36
4.78190E-01 5.36966E-36
4.82550E-01 3.82626E-36
4.86912E-01 2.81856E-36
4.91274E-01 2.25207E-36
4.95637E-01 2.03876E-36
5.00000E-01 2.09832E-36
5.04363E-01 2.35885E-36
5.08726E-01 2.75733E-36
5.13088E-01 3.23962E-36
5.17450E-01 3.76029E-36
5.21810E-01 4.28224E-36
5.26168E-01 4.77613E-36
5.30524E-01 5.21969E-36
5.34878E-01 5.59704E-36
5.39230E-01 5.89783E-36
5.43578E-01 6.11651E-36
5.47923E-01 6.25151E-36
5.52264E-01 6.30457E-36
5.56602E-01 6.28000E-36
5.60935E-01 6.18404E-36
5.65263E-01 6.02434E-36
5.69587E-01 5.80942E-36
5.73905E-01 5.54827E-36
5.78217E-01 5.25000E-36
5.82524E-01 4.92350E-36
5.86824E-01 4.57727E-36
5.91118E-01 4.21920E-36
5.95404E-01 3.85645E-36
5.99684E-01 3.49537E-36
6.03956E-01 3.14149E-36
6.08220E-01 2.79942E-36
6.12476E-01 2.47298E-36
6.16723E-01 2.16512E-36
6.20961E-01 1.87808E-36
6.25190E-01 1.61335E-36
6.29410E-01 1.37181E-36
6.33619E-01 1.15379E-36
6.37819E-01 9.59139E-37
6.42008E-01 7.87286E-37
6.46186E-01 6.37345E-37
6.50353E-01 5.08165E-37
6.54508E-01 3.98399E-37
6.58652E-01 3.06559E-37
6.62784E-01 2.31072E-37
6.66903E-01 1.70322E-37
6.71010E-01 1.22689E-37
6.75104E-01 8.65837E-38
6.79184E-01 6.04703E-38
6.83251E-01 4.28895E-38
6.87303E-01 3.24743E-38
6.91342E-01 2.79604E-38
6.95366E-01 2.81935E-38
6.99375E-01 3.21340E-38
7.03368E-01 3.88565E-38
7.07347E-01 4.75490E-38
7.11309E-01 5.75090E-38
7.15256E-01 6.81386E-38
7.19186E-01 7.89371E-38
7.23099E-01 8.94955E-38
7.26995E-01 9.94869E-38
7.30874E-01 1.08659E-37
7.34736E-01 1.16825E-37
7.38579E-01 1.23858E-37
7.42405E-01 1.29680E-37
7.46212E-01 1.34257E-37
7.50000E-01 1.37591E-37
7.53769E-01 1.39711E-37
7.57519E-01 1.40670E-37
7.61249E-01 1.40541E-37
7.64960E-01 1.39409E-37
7.68650E-01 1.37366E-37
7.72320E-01 1.34512E-37
7.75968E-01 1.30949E-37
7.79596E-01 1.26779E-37
7.83203E-01 1.22101E-37
7.86788E-01 1.17013E-37
7.90351E-01 1.11604E-37
7.93893E-01 1.05961E-37
7.97411E-01 1.00161E-37
8.00908E-01 9.42763E-38
8.04381E-01 8.83722E-38
8.07831E-01 8.25057E-38
8.11257E-01 7.67254E-38
8.14660E-01 7.10762E-38
8.18039E-01 6.55928E-38
8.21394E-01 6.03057E-38
8.24724E-01 5.52391E-38
8.28030E-01 5.04105E-38
8.31310E-01 4.58343E-38
8.34565E-01 4.15187E-38
8.37795E-01 3.74688E-38
8.40999E-01 3.36860E-38
8.44177E-01 3.01682E-38
8.47329E-01 2.69117E-38
8.50455E-01 2.39100E-38
8.53553E-01 2.11545E-38
8.56625E-01 1.86358E-38
8.59670E-01 1.63430E-38
8.62687E-01 1.42651E-38
8.65677E-01 1.23896E-38
8.68639E-01 1.07044E-38
8.71572E-01 9.19691E-39
8.74478E-01 7.85497E-39
8.77355E-01 6.66600E-39
8.80203E-01 5.61814E-39
8.83022E-01 4.69970E-39
8.85812E-01 3.89946E-39
8.88573E-01 3.20650E-39
8.91304E-01 2.61079E-39
8.94005E-01 2.10240E-39
8.96677E-01 1.00000E-45
8.99318E-01 1.00000E-45
9.01928E-01 1.00000E-45
9.04508E-01 1.00000E-45
9.07058E-01 1.00000E-45
9.09576E-01 1.00000E-45
9.12063E-01 1.00000E-45
9.14519E-01 1.00000E-45
9.16943E-01 1.00000E-45
9.19335E-01 1.00000E-45
9.21696E-01 1.00000E-45
9.24024E-01 1.00000E-45
9.26320E-01 1.00000E-45
9.28584E-01 1.00000E-45
9.30815E-01 1.00000E-45
9.33013E-01 1.00000E-45
9.35178E-01 1.00000E-45
9.37310E-01 1.00000E-45
9.39409E-01 1.00000E-45
9.41474E-01 1.00000E-45
9.43505E-01 1.00000E-45
9.45503E-01 1.00000E-45
9.47467E-01 1.00000E-45
9.49397E-01 1.00000E-45
9.51293E-01 1.00000E-45
9.53154E-01 1.00000E-45
9.54981E-01 1.00000E-45
9.56773E-01 1.00000E-45
9.58530E-01 1.00000E-45
9.60252E-01 1.00000E-45
9.61940E-01 1.00000E-45
9.63592E-01 1.00000E-45
9.65209E-01 1.00000E-45
9.66790E-01 1.00000E-45
9.68336E-01 1.00000E-45
9.69846E-01 1.00000E-45
9.71321E-01 1.00000E-45
9.72759E-01 1.00000E-45
9.74162E-01 1.00000E-45
9.75528E-01 1.00000E-45
9.76858E-01 1.00000E-45
9.78152E-01 1.00000E-45
9.79410E-01 1.00000E-45
9.80631E-01 1.00000E-45
9.81815E-01 1.00000E-45
9.82963E-01 1.00000E-45
9.84074E-01 1.00000E-45
9.85148E-01 1.00000E-45
9.86185E-01 1.00000E-45
9.87185E-01 1.00000E-45
9.88148E-01 1.00000E-45
9.89074E-01 1.00000E-45
9.89962E-01 1.00000E-45
9.90814E-01 1.00000E-45
9.91627E-01 1.00000E-45
9.92404E-01 1.00000E-45
9.93143E-01 1.00000E-45
9.93844E-01 1.00000E-45
9.94508E-01 1.00000E-45
9.95134E-01 1.00000E-45
9.95722E-01 1.00000E-45
9.96273E-01 1.00000E-45
9.96786E-01 1.00000E-45
9.97261E-01 1.00000E-45
9.97698E-01 1.00000E-45
9.98097E-01 1.00000E-45
9.98459E-01 1.00000E-45
9.98782E-01 1.00000E-45
9.99067E-01 1.00000E-45
9.99315E-01 1.00000E-45
9.99524E-01 1.00000E-45
9.99695E-01 1.00000E-45
9.99829E-01 1.00000E-45
9.99924E-01 1.00000E-45
9.99981E-01 1.00000E-45
1.00000E+00 1.00000E-45
