 #
 # Subroutine ELSEPA. Elastic scattering of electrons and positrons
 #                    by neutral atoms and positive ions
 #
 # Projectile: electron
 # Kinetic energy = 1.25000E+07 eV = 4.59367E+05 a.u.
 #
 # WARNING: High-energy factorization with free-atom DF screening.
 #          Absorption, polarization and exchange corrections are
 #          switched off.
 #          Phase shifts are calculated for the bare nucleus.
 #          Scattering amplitudes are not evaluated.
 #
 # Element: Ag,  Z =  47,  atomic weight = 1.07868E+02 g/mol
 #
 # Nuclear model: Fermi distribution
 #                Average radius = 5.09348E-13 cm
 #                Skin thickness = 5.46000E-14 cm
 #
 # Number of electrons = 47
 #
 # Total elastic cross section = 4.28979E-18 cm**2 = 1.53191E-01 a0**2
 # 1st transport cross section = 2.33760E-23 cm**2 = 8.34773E-07 a0**2
 # 2nd transport cross section = 6.62240E-23 cm**2 = 2.36490E-06 a0**2
 #
 #
 # Differential cross section:                       MU=(1-COS(THETA))/2
 #
 #  THETA        MU          DCS          DCS        Sherman      error
 #  (deg)                 (cm**2/sr)   (a0**2/sr)    function
 #----------------------------------------------------------------------
0.00000E+00 4.71672E-12
7.61557E-13 4.71654E-12
1.18994E-12 4.71645E-12
1.71346E-12 4.71633E-12
2.33225E-12 4.71619E-12
3.04617E-12 4.71603E-12
3.85530E-12 4.71585E-12
4.75964E-12 4.71564E-12
5.75917E-12 4.71542E-12
6.85391E-12 4.71517E-12
8.04379E-12 4.71490E-12
9.32893E-12 4.71462E-12
1.07092E-11 4.71431E-12
1.21847E-11 4.71398E-12
1.37554E-11 4.71362E-12
1.54213E-11 4.71325E-12
1.71823E-11 4.71286E-12
1.90386E-11 4.71244E-12
2.09900E-11 4.71200E-12
2.30367E-11 4.71155E-12
2.51785E-11 4.71107E-12
2.74156E-11 4.71057E-12
2.97478E-11 4.71005E-12
3.21752E-11 4.70950E-12
3.46979E-11 4.70894E-12
3.73157E-11 4.70835E-12
4.00286E-11 4.70775E-12
4.28368E-11 4.70712E-12
4.57402E-11 4.70647E-12
4.87388E-11 4.70580E-12
5.18325E-11 4.70511E-12
5.50215E-11 4.70440E-12
5.83057E-11 4.70367E-12
6.16850E-11 4.70292E-12
6.51595E-11 4.70215E-12
6.87293E-11 4.70135E-12
7.23943E-11 4.70054E-12
7.61544E-11 4.69970E-12
1.18991E-10 4.69019E-12
1.71347E-10 4.67863E-12
2.33223E-10 4.66504E-12
3.04617E-10 4.64946E-12
3.85531E-10 4.63192E-12
4.75965E-10 4.61248E-12
5.75917E-10 4.59119E-12
6.85389E-10 4.56809E-12
8.04380E-10 4.54325E-12
9.32891E-10 4.51672E-12
1.07092E-09 4.48858E-12
1.21847E-09 4.45888E-12
1.37554E-09 4.42767E-12
1.54213E-09 4.39486E-12
1.71823E-09 4.36085E-12
1.90386E-09 4.32571E-12
2.09900E-09 4.28954E-12
2.30367E-09 4.25178E-12
2.51785E-09 4.21309E-12
2.74156E-09 4.17361E-12
2.97478E-09 4.13345E-12
3.21752E-09 4.09208E-12
3.46978E-09 4.04989E-12
3.73156E-09 4.00725E-12
4.00286E-09 3.96426E-12
4.28368E-09 3.92050E-12
4.57402E-09 3.87595E-12
4.87388E-09 3.83127E-12
5.18326E-09 3.78653E-12
5.50215E-09 3.74150E-12
5.83057E-09 3.69564E-12
6.16850E-09 3.64991E-12
6.51596E-09 3.60436E-12
6.87293E-09 3.55904E-12
7.23942E-09 3.51276E-12
7.61544E-09 3.46683E-12
1.18991E-08 3.02022E-12
1.71347E-08 2.61019E-12
2.33223E-08 2.24891E-12
3.04617E-08 1.93772E-12
3.85531E-08 1.67060E-12
4.75965E-08 1.44290E-12
5.75917E-08 1.24860E-12
6.85389E-08 1.08185E-12
8.04380E-08 9.39197E-13
9.32891E-08 8.16602E-13
1.07092E-07 7.11066E-13
1.21847E-07 6.20346E-13
1.37554E-07 5.41071E-13
1.54213E-07 4.68416E-13
1.71823E-07 4.09540E-13
1.90386E-07 3.61357E-13
2.09900E-07 3.21556E-13
2.30367E-07 2.82227E-13
2.51785E-07 2.48916E-13
2.74156E-07 2.21050E-13
2.97478E-07 1.97569E-13
3.21752E-07 1.75926E-13
3.46978E-07 1.56797E-13
3.73156E-07 1.40483E-13
4.00286E-07 1.26490E-13
4.28368E-07 1.14001E-13
4.57402E-07 1.02740E-13
4.87388E-07 9.29718E-14
5.18325E-07 8.44605E-14
5.50215E-07 7.69310E-14
5.83057E-07 7.00758E-14
6.16850E-07 6.40423E-14
6.51596E-07 5.87126E-14
6.87293E-07 5.39859E-14
7.23942E-07 4.96467E-14
7.61543E-07 4.57802E-14
1.18991E-06 2.25491E-14
1.71347E-06 1.25982E-14
2.33223E-06 7.58371E-15
3.04617E-06 4.80073E-15
3.85531E-06 3.15663E-15
4.75964E-06 2.14922E-15
5.75916E-06 1.51077E-15
6.85388E-06 1.09196E-15
8.04378E-06 8.09231E-16
9.32888E-06 6.13123E-16
1.07092E-05 4.73581E-16
1.21846E-05 3.71912E-16
1.37553E-05 2.96235E-16
1.54212E-05 2.38911E-16
1.71822E-05 1.94949E-16
1.90385E-05 1.60627E-16
2.09899E-05 1.33551E-16
2.30365E-05 1.11993E-16
2.51783E-05 9.45191E-17
2.74153E-05 8.03357E-17
2.97475E-05 6.86876E-17
3.21749E-05 5.90604E-17
3.46974E-05 5.10724E-17
3.73152E-05 4.43666E-17
4.00281E-05 3.87351E-17
4.28362E-05 3.39625E-17
4.57395E-05 2.99003E-17
4.87380E-05 2.64278E-17
5.18317E-05 2.34379E-17
5.50205E-05 2.08603E-17
5.83045E-05 1.86250E-17
6.16838E-05 1.66814E-17
6.51582E-05 1.49853E-17
6.87277E-05 1.34986E-17
7.23925E-05 1.21930E-17
7.61524E-05 1.10412E-17
9.21439E-05 7.59600E-18
1.09658E-04 5.39642E-18
1.28695E-04 3.93984E-18
1.49255E-04 2.94368E-18
1.71338E-04 2.24397E-18
1.94942E-04 1.74064E-18
2.20070E-04 1.37103E-18
2.46720E-04 1.09467E-18
2.74892E-04 8.84641E-19
3.04586E-04 7.22713E-19
3.35803E-04 5.96230E-19
3.68542E-04 4.96278E-19
4.02802E-04 4.16436E-19
4.38585E-04 3.52040E-19
4.75889E-04 2.99636E-19
5.14715E-04 2.56638E-19
5.55063E-04 2.21093E-19
5.96931E-04 1.91499E-19
6.40321E-04 1.66700E-19
6.85233E-04 1.45794E-19
7.31665E-04 1.28068E-19
7.79618E-04 1.12961E-19
8.29092E-04 1.00019E-19
8.80086E-04 8.88819E-20
9.32601E-04 7.92552E-20
9.86636E-04 7.08992E-20
1.04219E-03 6.36181E-20
1.09927E-03 5.72499E-20
1.15786E-03 5.16605E-20
1.21797E-03 4.67384E-20
1.27961E-03 4.23901E-20
1.34276E-03 3.85371E-20
1.40743E-03 3.51131E-20
1.47362E-03 3.20621E-20
1.54133E-03 2.93362E-20
1.61056E-03 2.68948E-20
1.68131E-03 2.47029E-20
1.75357E-03 2.27305E-20
1.82735E-03 2.09517E-20
1.90265E-03 1.93441E-20
1.97947E-03 1.78883E-20
2.05780E-03 1.65674E-20
2.13765E-03 1.53666E-20
2.21902E-03 1.42730E-20
2.30190E-03 1.32754E-20
2.38630E-03 1.23638E-20
2.47222E-03 1.15294E-20
2.55965E-03 1.07645E-20
2.64859E-03 1.00623E-20
2.73905E-03 9.41664E-21
2.83103E-03 8.82218E-21
2.92452E-03 8.27411E-21
3.01952E-03 7.76814E-21
3.11604E-03 7.30044E-21
3.21407E-03 6.86758E-21
3.31362E-03 6.46649E-21
3.41468E-03 6.09441E-21
3.51725E-03 5.74884E-21
3.62133E-03 5.42755E-21
3.72692E-03 5.12851E-21
3.83403E-03 4.84990E-21
3.94265E-03 4.59006E-21
4.05278E-03 4.34748E-21
4.16442E-03 4.12081E-21
4.27757E-03 3.90881E-21
4.39223E-03 3.71034E-21
4.50840E-03 3.52439E-21
4.62608E-03 3.35001E-21
4.74527E-03 3.18635E-21
4.86597E-03 3.03262E-21
4.98817E-03 2.88812E-21
5.11188E-03 2.75217E-21
5.23711E-03 2.62418E-21
5.36383E-03 2.50360E-21
5.49207E-03 2.38990E-21
5.62181E-03 2.28264E-21
5.75306E-03 2.18136E-21
5.88581E-03 2.08568E-21
6.02007E-03 1.99522E-21
6.15583E-03 1.90965E-21
6.29310E-03 1.82866E-21
6.43187E-03 1.75194E-21
6.57214E-03 1.67923E-21
6.71392E-03 1.61028E-21
6.85720E-03 1.54486E-21
7.00198E-03 1.48276E-21
7.14827E-03 1.42377E-21
7.29605E-03 1.36771E-21
7.44534E-03 1.31440E-21
7.59612E-03 1.26368E-21
7.97965E-03 1.14727E-21
8.37255E-03 1.04406E-21
8.77480E-03 9.52290E-22
9.18641E-03 8.70463E-22
9.60736E-03 7.97310E-22
1.00376E-02 7.31747E-22
1.04773E-02 6.72842E-22
1.09262E-02 6.19799E-22
1.13844E-02 5.71926E-22
1.18520E-02 5.28628E-22
1.23288E-02 4.89388E-22
1.28150E-02 4.53757E-22
1.33104E-02 4.21341E-22
1.38150E-02 3.91796E-22
1.43290E-02 3.64820E-22
1.48521E-02 3.40150E-22
1.53845E-02 3.17551E-22
1.59262E-02 2.96817E-22
1.64770E-02 2.77765E-22
1.70371E-02 2.60233E-22
1.76063E-02 2.44077E-22
1.81848E-02 2.29169E-22
1.87724E-02 2.15395E-22
1.93692E-02 2.02651E-22
1.99751E-02 1.90846E-22
2.05901E-02 1.79897E-22
2.12143E-02 1.69731E-22
2.18476E-02 1.60282E-22
2.24900E-02 1.51488E-22
2.31415E-02 1.43296E-22
2.38021E-02 1.35657E-22
2.44717E-02 1.28526E-22
2.51504E-02 1.21862E-22
2.58382E-02 1.15631E-22
2.65349E-02 1.09797E-22
2.72407E-02 1.04330E-22
2.79555E-02 9.92041E-23
2.86793E-02 9.43924E-23
2.94120E-02 8.98725E-23
3.01537E-02 8.56232E-23
3.09043E-02 8.16252E-23
3.16639E-02 7.78605E-23
3.24324E-02 7.43129E-23
3.32098E-02 7.09675E-23
3.39961E-02 6.78106E-23
3.47912E-02 6.48295E-23
3.55952E-02 6.20124E-23
3.64081E-02 5.93484E-23
3.72297E-02 5.68276E-23
3.80602E-02 5.44409E-23
3.88995E-02 5.21798E-23
3.97476E-02 5.00363E-23
4.06044E-02 4.80030E-23
4.14700E-02 4.60731E-23
4.23443E-02 4.42404E-23
4.32273E-02 4.24991E-23
4.41190E-02 4.08437E-23
4.50194E-02 3.92691E-23
4.59284E-02 3.77704E-23
4.68461E-02 3.63434E-23
4.87074E-02 3.36883E-23
5.06030E-02 3.12739E-23
5.25328E-02 2.90743E-23
5.44967E-02 2.70669E-23
5.64946E-02 2.52315E-23
5.85262E-02 2.35508E-23
6.05914E-02 2.20091E-23
6.26901E-02 2.05929E-23
6.48222E-02 1.92898E-23
6.69873E-02 1.80892E-23
6.91854E-02 1.69815E-23
7.14163E-02 1.59580E-23
7.36799E-02 1.50112E-23
7.59760E-02 1.41341E-23
7.83043E-02 1.33207E-23
8.06647E-02 1.25655E-23
8.30571E-02 1.18635E-23
8.54812E-02 1.12101E-23
8.79369E-02 1.06015E-23
9.04240E-02 1.00338E-23
9.29422E-02 9.50392E-24
9.54915E-02 9.00874E-24
9.80716E-02 8.54556E-24
1.00682E-01 8.11192E-24
1.03323E-01 7.70557E-24
1.05995E-01 7.32444E-24
1.08696E-01 6.96668E-24
1.11427E-01 6.63056E-24
1.14188E-01 6.31451E-24
1.16978E-01 6.01711E-24
1.19797E-01 5.73703E-24
1.22645E-01 5.47309E-24
1.25522E-01 5.22415E-24
1.28428E-01 4.98921E-24
1.31361E-01 4.76732E-24
1.34323E-01 4.55761E-24
1.37313E-01 4.35929E-24
1.40330E-01 4.17161E-24
1.43375E-01 3.99389E-24
1.46447E-01 3.82550E-24
1.49545E-01 3.66585E-24
1.52671E-01 3.51441E-24
1.55823E-01 3.37065E-24
1.59001E-01 3.23413E-24
1.62205E-01 3.10440E-24
1.65435E-01 2.98106E-24
1.68690E-01 2.86373E-24
1.71970E-01 2.75206E-24
1.75276E-01 2.64573E-24
1.78606E-01 2.54443E-24
1.81961E-01 2.44788E-24
1.85340E-01 2.35580E-24
1.88743E-01 2.26796E-24
1.92169E-01 2.18412E-24
1.95619E-01 2.10405E-24
1.99092E-01 2.02757E-24
2.02589E-01 1.95447E-24
2.06107E-01 1.88458E-24
2.09649E-01 1.81773E-24
2.13212E-01 1.75376E-24
2.16797E-01 1.69252E-24
2.20404E-01 1.63388E-24
2.24032E-01 1.57770E-24
2.27680E-01 1.52386E-24
2.31350E-01 1.47224E-24
2.35040E-01 1.42273E-24
2.38751E-01 1.37524E-24
2.42481E-01 1.32965E-24
2.46231E-01 1.28589E-24
2.50000E-01 1.24386E-24
2.53788E-01 1.20349E-24
2.57595E-01 1.16469E-24
2.61421E-01 1.12739E-24
2.65264E-01 1.09152E-24
2.69126E-01 1.05702E-24
2.73005E-01 1.02383E-24
2.76901E-01 9.91878E-25
2.80814E-01 9.61119E-25
2.84744E-01 9.31498E-25
2.88691E-01 9.02964E-25
2.92653E-01 8.75471E-25
2.96632E-01 8.48972E-25
3.00625E-01 8.23425E-25
3.04634E-01 7.98790E-25
3.08658E-01 7.75028E-25
3.12697E-01 7.52101E-25
3.16749E-01 7.29976E-25
3.20816E-01 7.08619E-25
3.24896E-01 6.87998E-25
3.28990E-01 6.68083E-25
3.33097E-01 6.48846E-25
3.37216E-01 6.30259E-25
3.41348E-01 6.12296E-25
3.45492E-01 5.94932E-25
3.49647E-01 5.78144E-25
3.53814E-01 5.61908E-25
3.57992E-01 5.46205E-25
3.62181E-01 5.31012E-25
3.66381E-01 5.16310E-25
3.70590E-01 5.02080E-25
3.74810E-01 4.88305E-25
3.79039E-01 4.74968E-25
3.83277E-01 4.62051E-25
3.87524E-01 4.49539E-25
3.91780E-01 4.37418E-25
3.96044E-01 4.25672E-25
4.00316E-01 4.14289E-25
4.04596E-01 4.03254E-25
4.08882E-01 3.92556E-25
4.13176E-01 3.82182E-25
4.17476E-01 3.72121E-25
4.21783E-01 3.62361E-25
4.26095E-01 3.52892E-25
4.30413E-01 3.43704E-25
4.34737E-01 3.34787E-25
4.39065E-01 3.26132E-25
4.43398E-01 3.17729E-25
4.47736E-01 3.09570E-25
4.52077E-01 3.01646E-25
4.56422E-01 2.93950E-25
4.60770E-01 2.86474E-25
4.65122E-01 2.79211E-25
4.69476E-01 2.72153E-25
4.73832E-01 2.65293E-25
4.78190E-01 2.58626E-25
4.82550E-01 2.52145E-25
4.86912E-01 2.45843E-25
4.91274E-01 2.39716E-25
4.95637E-01 2.33756E-25
5.00000E-01 2.27960E-25
5.04363E-01 2.22322E-25
5.08726E-01 2.16836E-25
5.13088E-01 2.11498E-25
5.17450E-01 2.06303E-25
5.21810E-01 2.01247E-25
5.26168E-01 1.96326E-25
5.30524E-01 1.91535E-25
5.34878E-01 1.86870E-25
5.39230E-01 1.82328E-25
5.43578E-01 1.77904E-25
5.47923E-01 1.73596E-25
5.52264E-01 1.69399E-25
5.56602E-01 1.65311E-25
5.60935E-01 1.61327E-25
5.65263E-01 1.57446E-25
5.69587E-01 1.53663E-25
5.73905E-01 1.49976E-25
5.78217E-01 1.46383E-25
5.82524E-01 1.42880E-25
5.86824E-01 1.39465E-25
5.91118E-01 1.36135E-25
5.95404E-01 1.32888E-25
5.99684E-01 1.29722E-25
6.03956E-01 1.26633E-25
6.08220E-01 1.23621E-25
6.12476E-01 1.20683E-25
6.16723E-01 1.17816E-25
6.20961E-01 1.15019E-25
6.25190E-01 1.12290E-25
6.29410E-01 1.09627E-25
6.33619E-01 1.07028E-25
6.37819E-01 1.04491E-25
6.42008E-01 1.02015E-25
6.46186E-01 9.95979E-26
6.50353E-01 9.72382E-26
6.54508E-01 9.49344E-26
6.58652E-01 9.26849E-26
6.62784E-01 9.04883E-26
6.66903E-01 8.83433E-26
6.71010E-01 8.62483E-26
6.75104E-01 8.42021E-26
6.79184E-01 8.22035E-26
6.83251E-01 8.02511E-26
6.87303E-01 7.83438E-26
6.91342E-01 7.64804E-26
6.95366E-01 7.46597E-26
6.99375E-01 7.28807E-26
7.03368E-01 7.11424E-26
7.07347E-01 6.94435E-26
7.11309E-01 6.77833E-26
7.15256E-01 6.61606E-26
7.19186E-01 6.45746E-26
7.23099E-01 6.30242E-26
7.26995E-01 6.15088E-26
7.30874E-01 6.00272E-26
7.34736E-01 5.85788E-26
7.38579E-01 5.71627E-26
7.42405E-01 5.57781E-26
7.46212E-01 5.44243E-26
7.50000E-01 5.31004E-26
7.53769E-01 5.18058E-26
7.57519E-01 5.05398E-26
7.61249E-01 4.93016E-26
7.64960E-01 4.80907E-26
7.68650E-01 4.69063E-26
7.72320E-01 4.57479E-26
7.75968E-01 4.46147E-26
7.79596E-01 4.35063E-26
7.83203E-01 4.24221E-26
7.86788E-01 4.13614E-26
7.90351E-01 4.03237E-26
7.93893E-01 3.93086E-26
7.97411E-01 3.83155E-26
8.00908E-01 3.73438E-26
8.04381E-01 3.63931E-26
8.07831E-01 3.54630E-26
8.11257E-01 3.45529E-26
8.14660E-01 3.36624E-26
8.18039E-01 3.27911E-26
8.21394E-01 3.19385E-26
8.24724E-01 3.11042E-26
8.28030E-01 3.02879E-26
8.31310E-01 2.94891E-26
8.34565E-01 2.87074E-26
8.37795E-01 2.79425E-26
8.40999E-01 2.71940E-26
8.44177E-01 2.64616E-26
8.47329E-01 2.57449E-26
8.50455E-01 2.50435E-26
8.53553E-01 2.43572E-26
8.56625E-01 2.36857E-26
8.59670E-01 2.30286E-26
8.62687E-01 2.23856E-26
8.65677E-01 2.17564E-26
8.68639E-01 2.11408E-26
8.71572E-01 2.05384E-26
8.74478E-01 1.99491E-26
8.77355E-01 1.93725E-26
8.80203E-01 1.88084E-26
8.83022E-01 1.82565E-26
8.85812E-01 1.77166E-26
8.88573E-01 1.71884E-26
8.91304E-01 1.66718E-26
8.94005E-01 1.61664E-26
8.96677E-01 1.56722E-26
8.99318E-01 1.51888E-26
9.01928E-01 1.47160E-26
9.04508E-01 1.42537E-26
9.07058E-01 1.38017E-26
9.09576E-01 1.33597E-26
9.12063E-01 1.29276E-26
9.14519E-01 1.25052E-26
9.16943E-01 1.20924E-26
9.19335E-01 1.16889E-26
9.21696E-01 1.12945E-26
9.24024E-01 1.09092E-26
9.26320E-01 1.05327E-26
9.28584E-01 1.01650E-26
9.30815E-01 9.80574E-27
9.33013E-01 9.45494E-27
9.35178E-01 9.11239E-27
9.37310E-01 8.77798E-27
9.39409E-01 8.45155E-27
9.41474E-01 8.13297E-27
9.43505E-01 7.82213E-27
9.45503E-01 7.51889E-27
9.47467E-01 7.22314E-27
9.49397E-01 6.93475E-27
9.51293E-01 6.65362E-27
9.53154E-01 6.37963E-27
9.54981E-01 6.11267E-27
9.56773E-01 5.85264E-27
9.58530E-01 5.59944E-27
9.60252E-01 5.35296E-27
9.61940E-01 5.11312E-27
9.63592E-01 4.87981E-27
9.65209E-01 4.65295E-27
9.66790E-01 4.43246E-27
9.68336E-01 4.21823E-27
9.69846E-01 4.01021E-27
9.71321E-01 3.80829E-27
9.72759E-01 3.61241E-27
9.74162E-01 3.42249E-27
9.75528E-01 3.23846E-27
9.76858E-01 3.06025E-27
9.78152E-01 2.88780E-27
9.79410E-01 2.72102E-27
9.80631E-01 2.55987E-27
9.81815E-01 2.40429E-27
9.82963E-01 2.25420E-27
9.84074E-01 2.10956E-27
9.85148E-01 1.97032E-27
9.86185E-01 1.83642E-27
9.87185E-01 1.70781E-27
9.88148E-01 1.58444E-27
9.89074E-01 1.46626E-27
9.89962E-01 1.35325E-27
9.90814E-01 1.24534E-27
9.91627E-01 1.14250E-27
9.92404E-01 1.04470E-27
9.93143E-01 9.51888E-28
9.93844E-01 8.64043E-28
9.94508E-01 7.81128E-28
9.95134E-01 7.03112E-28
9.95722E-01 6.29967E-28
9.96273E-01 5.61665E-28
9.96786E-01 4.98183E-28
9.97261E-01 4.39495E-28
9.97698E-01 3.85581E-28
9.98097E-01 3.36422E-28
9.98459E-01 2.91998E-28
9.98782E-01 2.52294E-28
9.99067E-01 2.17295E-28
9.99315E-01 1.86988E-28
9.99524E-01 1.61363E-28
9.99695E-01 1.40410E-28
9.99829E-01 1.24120E-28
9.99924E-01 1.12490E-28
9.99981E-01 1.05513E-28
1.00000E+00 1.03187E-28
