 #
 # Subroutine ELSEPA. Elastic scattering of electrons and positrons
 #                    by neutral atoms and positive ions
 #
 # Projectile: electron
 # Kinetic energy = 1.75000E+08 eV = 6.43113E+06 a.u.
 #
 # WARNING: High-energy factorization with free-atom DF screening.
 #          Absorption, polarization and exchange corrections are
 #          switched off.
 #          Phase shifts are calculated for the bare nucleus.
 #          Scattering amplitudes are not evaluated.
 #
 # Element: Ag,  Z =  47,  atomic weight = 1.07868E+02 g/mol
 #
 # Nuclear model: Fermi distribution
 #                Average radius = 5.09348E-13 cm
 #                Skin thickness = 5.46000E-14 cm
 #
 # Number of electrons = 47
 #
 # Total elastic cross section = 4.27972E-18 cm**2 = 1.52831E-01 a0**2
 # 1st transport cross section = 1.42403E-25 cm**2 = 5.08529E-09 a0**2
 # 2nd transport cross section = 4.25905E-25 cm**2 = 1.52093E-08 a0**2
 #
 #
 # Differential cross section:                       MU=(1-COS(THETA))/2
 #
 #  THETA        MU          DCS          DCS        Sherman      error
 #  (deg)                 (cm**2/sr)   (a0**2/sr)    function
 #----------------------------------------------------------------------
0.00000E+00 8.58276E-10
7.61557E-13 8.52646E-10
1.18994E-12 8.49517E-10
1.71346E-12 8.45724E-10
2.33225E-12 8.41286E-10
3.04617E-12 8.36223E-10
3.85530E-12 8.30559E-10
4.75964E-12 8.24320E-10
5.75917E-12 8.17533E-10
6.85391E-12 8.10227E-10
8.04379E-12 8.02405E-10
9.32893E-12 7.94128E-10
1.07092E-11 7.85476E-10
1.21847E-11 7.76425E-10
1.37554E-11 7.66965E-10
1.54213E-11 7.57245E-10
1.71823E-11 7.47253E-10
1.90386E-11 7.36910E-10
2.09900E-11 7.26420E-10
2.30367E-11 7.15789E-10
2.51785E-11 7.04852E-10
2.74156E-11 6.93871E-10
2.97478E-11 6.82876E-10
3.21752E-11 6.71612E-10
3.46979E-11 6.60389E-10
3.73157E-11 6.49236E-10
4.00286E-11 6.37908E-10
4.28368E-11 6.26655E-10
4.57402E-11 6.15539E-10
4.87388E-11 6.04339E-10
5.18325E-11 5.93227E-10
5.50215E-11 5.82304E-10
5.83057E-11 5.71379E-10
6.16850E-11 5.60540E-10
6.51595E-11 5.49927E-10
6.87293E-11 5.39384E-10
7.23943E-11 5.28914E-10
7.61544E-11 5.18694E-10
1.18991E-10 4.24864E-10
1.71347E-10 3.47308E-10
2.33223E-10 2.84491E-10
3.04617E-10 2.33762E-10
3.85531E-10 1.92691E-10
4.75965E-10 1.59320E-10
5.75917E-10 1.32074E-10
6.85389E-10 1.09823E-10
8.04380E-10 9.08136E-11
9.32891E-10 7.54790E-11
1.07092E-09 6.37974E-11
1.21847E-09 5.40959E-11
1.37554E-09 4.55578E-11
1.54213E-09 3.88526E-11
1.71823E-09 3.33603E-11
1.90386E-09 2.85213E-11
2.09900E-09 2.46183E-11
2.30367E-09 2.14109E-11
2.51785E-09 1.85923E-11
2.74156E-09 1.62656E-11
2.97478E-09 1.43293E-11
3.21752E-09 1.26291E-11
3.46978E-09 1.11967E-11
3.73156E-09 9.98258E-12
4.00286E-09 8.91839E-12
4.28368E-09 8.00275E-12
4.57402E-09 7.21438E-12
4.87388E-09 6.51858E-12
5.18326E-09 5.90965E-12
5.50215E-09 5.37840E-12
5.83057E-09 4.90506E-12
6.16850E-09 4.48430E-12
6.51596E-09 4.11313E-12
6.87293E-09 3.77961E-12
7.23942E-09 3.47862E-12
7.61544E-09 3.21064E-12
1.18991E-08 1.55817E-12
1.71347E-08 8.35192E-13
2.33223E-08 4.80474E-13
3.04617E-08 2.93799E-13
3.85531E-08 1.89344E-13
4.75965E-08 1.27591E-13
5.75917E-08 8.92841E-14
6.85389E-08 6.44397E-14
8.04380E-08 4.76859E-14
9.32891E-08 3.60876E-14
1.07092E-07 2.78182E-14
1.21847E-07 2.17691E-14
1.37554E-07 1.72775E-14
1.54213E-07 1.38838E-14
1.71823E-07 1.12806E-14
1.90386E-07 9.25725E-15
2.09900E-07 7.66331E-15
2.30367E-07 6.39711E-15
2.51785E-07 5.38120E-15
2.74156E-07 4.55861E-15
2.97478E-07 3.88686E-15
3.21752E-07 3.33376E-15
3.46978E-07 2.87555E-15
3.73156E-07 2.49338E-15
4.00286E-07 2.17262E-15
4.28368E-07 1.90181E-15
4.57402E-07 1.67181E-15
4.87388E-07 1.47559E-15
5.18325E-07 1.30736E-15
5.50215E-07 1.16247E-15
5.83057E-07 1.03712E-15
6.16850E-07 9.28213E-16
6.51596E-07 8.33256E-16
6.87293E-07 7.50157E-16
7.23942E-07 6.77180E-16
7.61543E-07 6.12877E-16
1.18991E-06 2.54133E-16
1.71347E-06 1.23624E-16
2.33223E-06 6.71428E-17
3.04617E-06 3.95335E-17
3.85531E-06 2.47613E-17
4.75964E-06 1.62857E-17
5.75916E-06 1.11442E-17
6.85388E-06 7.88006E-18
8.04378E-06 5.72782E-18
9.32888E-06 4.26252E-18
1.07092E-05 3.23713E-18
1.21846E-05 2.50229E-18
1.37553E-05 1.96460E-18
1.54212E-05 1.56387E-18
1.71822E-05 1.26030E-18
1.90385E-05 1.02670E-18
2.09899E-05 8.45238E-19
2.30365E-05 7.02105E-19
2.51783E-05 5.87951E-19
2.74153E-05 4.96023E-19
2.97475E-05 4.21350E-19
3.21749E-05 3.60214E-19
3.46974E-05 3.09792E-19
3.73152E-05 2.67914E-19
4.00281E-05 2.32896E-19
4.28362E-05 2.03427E-19
4.57395E-05 1.78476E-19
4.87380E-05 1.57232E-19
5.18317E-05 1.39052E-19
5.50205E-05 1.23421E-19
5.83045E-05 1.09926E-19
6.16838E-05 9.82268E-20
6.51582E-05 8.80461E-20
6.87277E-05 7.91539E-20
7.23925E-05 7.13586E-20
7.61524E-05 6.45946E-20
9.21439E-05 4.41615E-20
1.09658E-04 3.12088E-20
1.28695E-04 2.26799E-20
1.49255E-04 1.68760E-20
1.71338E-04 1.28175E-20
1.94942E-04 9.90941E-21
2.20070E-04 7.78192E-21
2.46720E-04 6.19642E-21
2.74892E-04 4.99512E-21
3.04586E-04 4.07162E-21
3.35803E-04 3.35210E-21
3.68542E-04 2.78487E-21
4.02802E-04 2.33277E-21
4.38585E-04 1.96884E-21
4.75889E-04 1.67324E-21
5.14715E-04 1.43110E-21
5.55063E-04 1.23124E-21
5.96931E-04 1.06508E-21
6.40321E-04 9.26029E-22
6.85233E-04 8.08942E-22
7.31665E-04 7.09783E-22
7.79618E-04 6.25356E-22
8.29092E-04 5.53108E-22
8.80086E-04 4.90990E-22
9.32601E-04 4.37342E-22
9.86636E-04 3.90816E-22
1.04219E-03 3.50307E-22
1.09927E-03 3.14902E-22
1.15786E-03 2.83851E-22
1.21797E-03 2.56524E-22
1.27961E-03 2.32400E-22
1.34276E-03 2.11037E-22
1.40743E-03 1.92066E-22
1.47362E-03 1.75171E-22
1.54133E-03 1.60086E-22
1.61056E-03 1.46583E-22
1.68131E-03 1.34468E-22
1.75357E-03 1.23572E-22
1.82735E-03 1.13752E-22
1.90265E-03 1.04882E-22
1.97947E-03 9.68548E-23
2.05780E-03 8.95756E-23
2.13765E-03 8.29625E-23
2.21902E-03 7.69437E-23
2.30190E-03 7.14565E-23
2.38630E-03 6.64455E-23
2.47222E-03 6.18620E-23
2.55965E-03 5.76632E-23
2.64859E-03 5.38109E-23
2.73905E-03 5.02715E-23
2.83103E-03 4.70150E-23
2.92452E-03 4.40148E-23
3.01952E-03 4.12471E-23
3.11604E-03 3.86907E-23
3.21407E-03 3.63266E-23
3.31362E-03 3.41377E-23
3.41468E-03 3.21088E-23
3.51725E-03 3.02260E-23
3.62133E-03 2.84770E-23
3.72692E-03 2.68505E-23
3.83403E-03 2.53365E-23
3.94265E-03 2.39257E-23
4.05278E-03 2.26099E-23
4.16442E-03 2.13816E-23
4.27757E-03 2.02338E-23
4.39223E-03 1.91605E-23
4.50840E-03 1.81558E-23
4.62608E-03 1.72146E-23
4.74527E-03 1.63322E-23
4.86597E-03 1.55043E-23
4.98817E-03 1.47269E-23
5.11188E-03 1.39964E-23
5.23711E-03 1.33094E-23
5.36383E-03 1.26630E-23
5.49207E-03 1.20542E-23
5.62181E-03 1.14805E-23
5.75306E-03 1.09396E-23
5.88581E-03 1.04291E-23
6.02007E-03 9.94723E-24
6.15583E-03 9.49195E-24
6.29310E-03 9.06157E-24
6.43187E-03 8.65450E-24
6.57214E-03 8.26925E-24
6.71392E-03 7.90445E-24
6.85720E-03 7.55883E-24
7.00198E-03 7.23120E-24
7.14827E-03 6.92046E-24
7.29605E-03 6.62560E-24
7.44534E-03 6.34565E-24
7.59612E-03 6.07975E-24
7.97965E-03 5.47112E-24
8.37255E-03 4.93377E-24
8.77480E-03 4.45806E-24
9.18641E-03 4.03582E-24
9.60736E-03 3.66011E-24
1.00376E-02 3.32501E-24
1.04773E-02 3.02548E-24
1.09262E-02 2.75715E-24
1.13844E-02 2.51629E-24
1.18520E-02 2.29967E-24
1.23288E-02 2.10448E-24
1.28150E-02 1.92829E-24
1.33104E-02 1.76898E-24
1.38150E-02 1.62470E-24
1.43290E-02 1.49382E-24
1.48521E-02 1.37492E-24
1.53845E-02 1.26676E-24
1.59262E-02 1.16822E-24
1.64770E-02 1.07833E-24
1.70371E-02 9.96234E-25
1.76063E-02 9.21156E-25
1.81848E-02 8.52419E-25
1.87724E-02 7.89416E-25
1.93692E-02 7.31606E-25
1.99751E-02 6.78506E-25
2.05901E-02 6.29683E-25
2.12143E-02 5.84751E-25
2.18476E-02 5.43359E-25
2.24900E-02 5.05196E-25
2.31415E-02 4.69979E-25
2.38021E-02 4.37454E-25
2.44717E-02 4.07390E-25
2.51504E-02 3.79582E-25
2.58382E-02 3.53839E-25
2.65349E-02 3.29993E-25
2.72407E-02 3.07887E-25
2.79555E-02 2.87382E-25
2.86793E-02 2.68349E-25
2.94120E-02 2.50672E-25
3.01537E-02 2.34244E-25
3.09043E-02 2.18969E-25
3.16639E-02 2.04757E-25
3.24324E-02 1.91529E-25
3.32098E-02 1.79208E-25
3.39961E-02 1.67729E-25
3.47912E-02 1.57027E-25
3.55952E-02 1.47047E-25
3.64081E-02 1.37734E-25
3.72297E-02 1.29042E-25
3.80602E-02 1.20924E-25
3.88995E-02 1.13341E-25
3.97476E-02 1.06255E-25
4.06044E-02 9.96298E-26
4.14700E-02 9.34343E-26
4.23443E-02 8.76384E-26
4.32273E-02 8.22147E-26
4.41190E-02 7.71378E-26
4.50194E-02 7.23840E-26
4.59284E-02 6.79316E-26
4.68461E-02 6.37604E-26
4.87074E-02 5.61879E-26
5.06030E-02 4.95322E-26
5.25328E-02 4.36772E-26
5.44967E-02 3.85227E-26
5.64946E-02 3.39817E-26
5.85262E-02 2.99789E-26
6.05914E-02 2.64486E-26
6.26901E-02 2.33335E-26
6.48222E-02 2.05839E-26
6.69873E-02 1.81560E-26
6.91854E-02 1.60118E-26
7.14163E-02 1.41176E-26
7.36799E-02 1.24442E-26
7.59760E-02 1.09657E-26
7.83043E-02 9.65943E-27
8.06647E-02 8.50541E-27
8.30571E-02 7.48602E-27
8.54812E-02 6.58570E-27
8.79369E-02 5.79074E-27
9.04240E-02 5.08901E-27
9.29422E-02 4.46980E-27
9.54915E-02 3.92362E-27
9.80716E-02 3.44208E-27
1.00682E-01 3.01775E-27
1.03323E-01 2.64404E-27
1.05995E-01 2.31513E-27
1.08696E-01 2.02583E-27
1.11427E-01 1.77157E-27
1.14188E-01 1.54828E-27
1.16978E-01 1.35234E-27
1.19797E-01 1.18058E-27
1.22645E-01 1.03013E-27
1.25522E-01 8.98503E-28
1.28428E-01 7.83453E-28
1.31361E-01 6.83007E-28
1.34323E-01 5.95414E-28
1.37313E-01 5.19120E-28
1.40330E-01 4.52752E-28
1.43375E-01 3.95092E-28
1.46447E-01 3.45065E-28
1.49545E-01 3.01719E-28
1.52671E-01 2.64213E-28
1.55823E-01 2.31806E-28
1.59001E-01 2.03842E-28
1.62205E-01 1.79746E-28
1.65435E-01 1.59008E-28
1.68690E-01 1.41183E-28
1.71970E-01 1.25878E-28
1.75276E-01 1.12749E-28
1.78606E-01 1.01496E-28
1.81961E-01 9.18535E-29
1.85340E-01 8.35929E-29
1.88743E-01 7.65132E-29
1.92169E-01 7.04402E-29
1.95619E-01 6.52224E-29
1.99092E-01 6.07289E-29
2.02589E-01 5.68464E-29
2.06107E-01 5.34775E-29
2.09649E-01 5.05385E-29
2.13212E-01 4.79577E-29
2.16797E-01 4.56741E-29
2.20404E-01 4.36359E-29
2.24032E-01 4.17991E-29
2.27680E-01 4.01269E-29
2.31350E-01 3.85884E-29
2.35040E-01 3.71580E-29
2.38751E-01 3.58147E-29
2.42481E-01 3.45410E-29
2.46231E-01 3.33231E-29
2.50000E-01 3.21497E-29
2.53788E-01 3.10121E-29
2.57595E-01 2.99035E-29
2.61421E-01 2.88187E-29
2.65264E-01 2.77541E-29
2.69126E-01 2.67071E-29
2.73005E-01 2.56760E-29
2.76901E-01 2.46599E-29
2.80814E-01 2.36585E-29
2.84744E-01 2.26721E-29
2.88691E-01 2.17010E-29
2.92653E-01 2.07461E-29
2.96632E-01 1.98084E-29
3.00625E-01 1.88887E-29
3.04634E-01 1.79883E-29
3.08658E-01 1.71081E-29
3.12697E-01 1.62493E-29
3.16749E-01 1.54129E-29
3.20816E-01 1.45998E-29
3.24896E-01 1.38107E-29
3.28990E-01 1.30465E-29
3.33097E-01 1.23077E-29
3.37216E-01 1.15948E-29
3.41348E-01 1.09082E-29
3.45492E-01 1.02480E-29
3.49647E-01 9.61456E-30
3.53814E-01 9.00774E-30
3.57992E-01 8.42749E-30
3.62181E-01 7.87364E-30
3.66381E-01 7.34590E-30
3.70590E-01 6.84391E-30
3.74810E-01 6.36724E-30
3.79039E-01 5.91537E-30
3.83277E-01 5.48775E-30
3.87524E-01 5.08375E-30
3.91780E-01 4.70270E-30
3.96044E-01 4.34390E-30
4.00316E-01 4.00661E-30
4.04596E-01 3.69007E-30
4.08882E-01 3.39350E-30
4.13176E-01 3.11609E-30
4.17476E-01 2.85705E-30
4.21783E-01 2.61556E-30
4.26095E-01 2.39081E-30
4.30413E-01 2.18200E-30
4.34737E-01 1.98834E-30
4.39065E-01 1.80904E-30
4.43398E-01 1.64333E-30
4.47736E-01 1.49045E-30
4.52077E-01 1.34967E-30
4.56422E-01 1.22027E-30
4.60770E-01 1.10157E-30
4.65122E-01 9.92880E-31
4.69476E-01 8.93569E-31
4.73832E-01 8.03012E-31
4.78190E-01 7.20614E-31
4.82550E-01 6.45805E-31
4.86912E-01 5.78043E-31
4.91274E-01 5.16810E-31
4.95637E-01 4.61615E-31
5.00000E-01 4.11992E-31
5.04363E-01 3.67500E-31
5.08726E-01 3.27724E-31
5.13088E-01 2.92271E-31
5.17450E-01 2.60774E-31
5.21810E-01 2.32887E-31
5.26168E-01 2.08287E-31
5.30524E-01 1.86671E-31
5.34878E-01 1.67758E-31
5.39230E-01 1.51287E-31
5.43578E-01 1.37014E-31
5.47923E-01 1.24713E-31
5.52264E-01 1.14177E-31
5.56602E-01 1.05214E-31
5.60935E-01 9.76463E-32
5.65263E-01 9.13126E-32
5.69587E-01 8.60642E-32
5.73905E-01 8.17654E-32
5.78217E-01 7.82926E-32
5.82524E-01 7.55336E-32
5.86824E-01 7.33868E-32
5.91118E-01 7.17603E-32
5.95404E-01 7.05715E-32
5.99684E-01 6.97463E-32
6.03956E-01 6.92186E-32
6.08220E-01 6.89293E-32
6.12476E-01 6.88264E-32
6.16723E-01 6.88638E-32
6.20961E-01 6.90014E-32
6.25190E-01 6.92040E-32
6.29410E-01 6.94412E-32
6.33619E-01 6.96872E-32
6.37819E-01 6.99197E-32
6.42008E-01 7.01203E-32
6.46186E-01 7.02737E-32
6.50353E-01 7.03673E-32
6.54508E-01 7.03914E-32
6.58652E-01 7.03383E-32
6.62784E-01 7.02025E-32
6.66903E-01 6.99802E-32
6.71010E-01 6.96693E-32
6.75104E-01 6.92689E-32
6.79184E-01 6.87795E-32
6.83251E-01 6.82025E-32
6.87303E-01 6.75401E-32
6.91342E-01 6.67953E-32
6.95366E-01 6.59718E-32
6.99375E-01 6.50736E-32
7.03368E-01 6.41053E-32
7.07347E-01 6.30716E-32
7.11309E-01 6.19776E-32
7.15256E-01 6.08283E-32
7.19186E-01 5.96290E-32
7.23099E-01 5.83849E-32
7.26995E-01 5.71012E-32
7.30874E-01 5.57831E-32
7.34736E-01 5.44356E-32
7.38579E-01 5.30636E-32
7.42405E-01 5.16719E-32
7.46212E-01 5.02651E-32
7.50000E-01 4.88474E-32
7.53769E-01 4.74231E-32
7.57519E-01 4.59962E-32
7.61249E-01 4.45702E-32
7.64960E-01 4.31488E-32
7.68650E-01 4.17351E-32
7.72320E-01 4.03321E-32
7.75968E-01 3.89428E-32
7.79596E-01 3.75695E-32
7.83203E-01 3.62147E-32
7.86788E-01 3.48805E-32
7.90351E-01 3.35687E-32
7.93893E-01 3.22811E-32
7.97411E-01 3.10191E-32
8.00908E-01 2.97842E-32
8.04381E-01 2.85774E-32
8.07831E-01 2.73996E-32
8.11257E-01 2.62518E-32
8.14660E-01 2.51345E-32
8.18039E-01 2.40483E-32
8.21394E-01 2.29935E-32
8.24724E-01 2.19705E-32
8.28030E-01 2.09792E-32
8.31310E-01 2.00199E-32
8.34565E-01 1.90923E-32
8.37795E-01 1.81964E-32
8.40999E-01 1.73319E-32
8.44177E-01 1.64985E-32
8.47329E-01 1.56959E-32
8.50455E-01 1.49235E-32
8.53553E-01 1.41809E-32
8.56625E-01 1.34675E-32
8.59670E-01 1.27829E-32
8.62687E-01 1.21262E-32
8.65677E-01 1.14970E-32
8.68639E-01 1.08944E-32
8.71572E-01 1.03179E-32
8.74478E-01 9.76672E-33
8.77355E-01 9.24009E-33
8.80203E-01 8.73730E-33
8.83022E-01 8.25759E-33
8.85812E-01 7.80023E-33
8.88573E-01 7.36446E-33
8.91304E-01 6.94953E-33
8.94005E-01 6.55471E-33
8.96677E-01 6.17925E-33
8.99318E-01 5.82243E-33
9.01928E-01 5.48353E-33
9.04508E-01 5.16185E-33
9.07058E-01 4.85668E-33
9.09576E-01 4.56734E-33
9.12063E-01 4.29319E-33
9.14519E-01 4.03355E-33
9.16943E-01 3.78780E-33
9.19335E-01 3.55533E-33
9.21696E-01 3.33553E-33
9.24024E-01 3.12783E-33
9.26320E-01 2.93165E-33
9.28584E-01 2.74646E-33
9.30815E-01 2.57173E-33
9.33013E-01 2.40694E-33
9.35178E-01 2.25162E-33
9.37310E-01 2.10528E-33
9.39409E-01 1.96748E-33
9.41474E-01 1.83777E-33
9.43505E-01 1.71575E-33
9.45503E-01 1.60099E-33
9.47467E-01 1.49313E-33
9.49397E-01 1.39179E-33
9.51293E-01 1.29662E-33
9.53154E-01 1.20728E-33
9.54981E-01 1.12346E-33
9.56773E-01 1.04484E-33
9.58530E-01 9.71132E-34
9.60252E-01 9.02060E-34
9.61940E-01 8.37357E-34
9.63592E-01 7.76772E-34
9.65209E-01 7.20065E-34
9.66790E-01 6.67011E-34
9.68336E-01 6.17393E-34
9.69846E-01 5.71007E-34
9.71321E-01 5.27661E-34
9.72759E-01 4.87170E-34
9.74162E-01 4.49362E-34
9.75528E-01 4.14074E-34
9.76858E-01 3.81152E-34
9.78152E-01 3.50448E-34
9.79410E-01 3.21827E-34
9.80631E-01 2.95158E-34
9.81815E-01 2.70321E-34
9.82963E-01 2.47199E-34
9.84074E-01 2.25685E-34
9.85148E-01 2.05679E-34
9.86185E-01 1.87085E-34
9.87185E-01 1.69815E-34
9.88148E-01 1.53784E-34
9.89074E-01 1.38915E-34
9.89962E-01 1.25134E-34
9.90814E-01 1.12375E-34
9.91627E-01 1.00572E-34
9.92404E-01 8.96681E-35
9.93143E-01 7.96071E-35
9.93844E-01 7.03381E-35
9.94508E-01 6.18139E-35
9.95134E-01 5.39909E-35
9.95722E-01 4.68286E-35
9.96273E-01 4.02899E-35
9.96786E-01 3.43409E-35
9.97261E-01 2.89504E-35
9.97698E-01 2.40902E-35
9.98097E-01 1.97347E-35
9.98459E-01 1.58609E-35
9.98782E-01 1.24483E-35
9.99067E-01 9.47871E-36
9.99315E-01 6.93643E-36
9.99524E-01 4.80784E-36
9.99695E-01 3.08160E-36
9.99829E-01 1.74846E-36
9.99924E-01 8.01299E-37
9.99981E-01 2.35004E-37
1.00000E+00 4.66475E-38
