 #
 # Subroutine ELSEPA. Elastic scattering of electrons and positrons
 #                    by neutral atoms and positive ions
 #
 # Projectile: electron
 # Kinetic energy = 6.00000E+06 eV = 2.20496E+05 a.u.
 #
 # WARNING: High-energy factorization with free-atom DF screening.
 #          Absorption, polarization and exchange corrections are
 #          switched off.
 #          Phase shifts are calculated for the bare nucleus.
 #          Scattering amplitudes are not evaluated.
 #
 # Element: Ag,  Z =  47,  atomic weight = 1.07868E+02 g/mol
 #
 # Nuclear model: Fermi distribution
 #                Average radius = 5.09348E-13 cm
 #                Skin thickness = 5.46000E-14 cm
 #
 # Number of electrons = 47
 #
 # Total elastic cross section = 4.31075E-18 cm**2 = 1.53940E-01 a0**2
 # 1st transport cross section = 8.56143E-23 cm**2 = 3.05734E-06 a0**2
 # 2nd transport cross section = 2.39968E-22 cm**2 = 8.56940E-06 a0**2
 #
 #
 # Differential cross section:                       MU=(1-COS(THETA))/2
 #
 #  THETA        MU          DCS          DCS        Sherman      error
 #  (deg)                 (cm**2/sr)   (a0**2/sr)    function
 #----------------------------------------------------------------------
0.00000E+00 1.18117E-12
7.61557E-13 1.18116E-12
1.18994E-12 1.18116E-12
1.71346E-12 1.18115E-12
2.33225E-12 1.18114E-12
3.04617E-12 1.18113E-12
3.85530E-12 1.18112E-12
4.75964E-12 1.18111E-12
5.75917E-12 1.18109E-12
6.85391E-12 1.18108E-12
8.04379E-12 1.18106E-12
9.32893E-12 1.18104E-12
1.07092E-11 1.18102E-12
1.21847E-11 1.18100E-12
1.37554E-11 1.18098E-12
1.54213E-11 1.18096E-12
1.71823E-11 1.18093E-12
1.90386E-11 1.18091E-12
2.09900E-11 1.18088E-12
2.30367E-11 1.18085E-12
2.51785E-11 1.18082E-12
2.74156E-11 1.18079E-12
2.97478E-11 1.18076E-12
3.21752E-11 1.18072E-12
3.46979E-11 1.18069E-12
3.73157E-11 1.18065E-12
4.00286E-11 1.18061E-12
4.28368E-11 1.18057E-12
4.57402E-11 1.18053E-12
4.87388E-11 1.18049E-12
5.18325E-11 1.18045E-12
5.50215E-11 1.18040E-12
5.83057E-11 1.18036E-12
6.16850E-11 1.18031E-12
6.51595E-11 1.18026E-12
6.87293E-11 1.18021E-12
7.23943E-11 1.18016E-12
7.61544E-11 1.18011E-12
1.18991E-10 1.17951E-12
1.71347E-10 1.17878E-12
2.33223E-10 1.17792E-12
3.04617E-10 1.17693E-12
3.85531E-10 1.17581E-12
4.75965E-10 1.17456E-12
5.75917E-10 1.17318E-12
6.85389E-10 1.17167E-12
8.04380E-10 1.17004E-12
9.32891E-10 1.16828E-12
1.07092E-09 1.16640E-12
1.21847E-09 1.16439E-12
1.37554E-09 1.16227E-12
1.54213E-09 1.16002E-12
1.71823E-09 1.15765E-12
1.90386E-09 1.15516E-12
2.09900E-09 1.15256E-12
2.30367E-09 1.14985E-12
2.51785E-09 1.14702E-12
2.74156E-09 1.14408E-12
2.97478E-09 1.14103E-12
3.21752E-09 1.13788E-12
3.46978E-09 1.13462E-12
3.73156E-09 1.13126E-12
4.00286E-09 1.12779E-12
4.28368E-09 1.12423E-12
4.57402E-09 1.12057E-12
4.87388E-09 1.11681E-12
5.18326E-09 1.11297E-12
5.50215E-09 1.10902E-12
5.83057E-09 1.10496E-12
6.16850E-09 1.10083E-12
6.51596E-09 1.09662E-12
6.87293E-09 1.09233E-12
7.23942E-09 1.08798E-12
7.61544E-09 1.08355E-12
1.18991E-08 1.03553E-12
1.71347E-08 9.82321E-13
2.33223E-08 9.26116E-13
3.04617E-08 8.68904E-13
3.85531E-08 8.12215E-13
4.75965E-08 7.57181E-13
5.75917E-08 7.04553E-13
6.85389E-08 6.54578E-13
8.04380E-08 6.07741E-13
9.32891E-08 5.64107E-13
1.07092E-07 5.23619E-13
1.21847E-07 4.86148E-13
1.37554E-07 4.51400E-13
1.54213E-07 4.19241E-13
1.71823E-07 3.89561E-13
1.90386E-07 3.62165E-13
2.09900E-07 3.36867E-13
2.30367E-07 3.13477E-13
2.51785E-07 2.91746E-13
2.74156E-07 2.71656E-13
2.97478E-07 2.53073E-13
3.21752E-07 2.35874E-13
3.46978E-07 2.19945E-13
3.73156E-07 2.05137E-13
4.00286E-07 1.91391E-13
4.28368E-07 1.78652E-13
4.57402E-07 1.66839E-13
4.87388E-07 1.55881E-13
5.18325E-07 1.45703E-13
5.50215E-07 1.36042E-13
5.83057E-07 1.26415E-13
6.16850E-07 1.17770E-13
6.51596E-07 1.09987E-13
6.87293E-07 1.02963E-13
7.23942E-07 9.66076E-14
7.61543E-07 9.08443E-14
1.18991E-06 4.96953E-14
1.71347E-06 2.86966E-14
2.33223E-06 1.76417E-14
3.04617E-06 1.15259E-14
3.85531E-06 7.92581E-15
4.75964E-06 5.67757E-15
5.75916E-06 4.19693E-15
6.85388E-06 3.17317E-15
8.04378E-06 2.44411E-15
9.32888E-06 1.91070E-15
1.07092E-05 1.51230E-15
1.21846E-05 1.20992E-15
1.37553E-05 9.77196E-16
1.54212E-05 7.95889E-16
1.71822E-05 6.54018E-16
1.90385E-05 5.41885E-16
2.09899E-05 4.52828E-16
2.30365E-05 3.81202E-16
2.51783E-05 3.23061E-16
2.74153E-05 2.75570E-16
2.97475E-05 2.36514E-16
3.21749E-05 2.04191E-16
3.46974E-05 1.77278E-16
3.73152E-05 1.54719E-16
4.00281E-05 1.35692E-16
4.28362E-05 1.19543E-16
4.57395E-05 1.05751E-16
4.87380E-05 9.39073E-17
5.18317E-05 8.36844E-17
5.50205E-05 7.48122E-17
5.83045E-05 6.70712E-17
6.16838E-05 6.03376E-17
6.51582E-05 5.44574E-17
6.87277E-05 4.92449E-17
7.23925E-05 4.46486E-17
7.61524E-05 4.05934E-17
9.21439E-05 2.83012E-17
1.09658E-04 2.03087E-17
1.28695E-04 1.49412E-17
1.49255E-04 1.12289E-17
1.71338E-04 8.59789E-18
1.94942E-04 6.69203E-18
2.20070E-04 5.28459E-18
2.46720E-04 4.22797E-18
2.74892E-04 3.42260E-18
3.04586E-04 2.80034E-18
3.35803E-04 2.31339E-18
3.68542E-04 1.92800E-18
4.02802E-04 1.61971E-18
4.38585E-04 1.37080E-18
4.75889E-04 1.16805E-18
5.14715E-04 1.00153E-18
5.55063E-04 8.63742E-19
5.96931E-04 7.48914E-19
6.40321E-04 6.52602E-19
6.85233E-04 5.71335E-19
7.31665E-04 5.02370E-19
7.79618E-04 4.43537E-19
8.29092E-04 3.93094E-19
8.80086E-04 3.49640E-19
9.32601E-04 3.12045E-19
9.86636E-04 2.79386E-19
1.04219E-03 2.50902E-19
1.09927E-03 2.25968E-19
1.15786E-03 2.04063E-19
1.21797E-03 1.84756E-19
1.27961E-03 1.67686E-19
1.34276E-03 1.52549E-19
1.40743E-03 1.39087E-19
1.47362E-03 1.27082E-19
1.54133E-03 1.16347E-19
1.61056E-03 1.06726E-19
1.68131E-03 9.80823E-20
1.75357E-03 9.02988E-20
1.82735E-03 8.32747E-20
1.90265E-03 7.69223E-20
1.97947E-03 7.11661E-20
2.05780E-03 6.59402E-20
2.13765E-03 6.11869E-20
2.21902E-03 5.68558E-20
2.30190E-03 5.29025E-20
2.38630E-03 4.92880E-20
2.47222E-03 4.59781E-20
2.55965E-03 4.29425E-20
2.64859E-03 4.01543E-20
2.73905E-03 3.75896E-20
2.83103E-03 3.52273E-20
2.92452E-03 3.30483E-20
3.01952E-03 3.10360E-20
3.11604E-03 2.91751E-20
3.21407E-03 2.74523E-20
3.31362E-03 2.58554E-20
3.41468E-03 2.43734E-20
3.51725E-03 2.29965E-20
3.62133E-03 2.17160E-20
3.72692E-03 2.05239E-20
3.83403E-03 1.94128E-20
3.94265E-03 1.83763E-20
4.05278E-03 1.74083E-20
4.16442E-03 1.65037E-20
4.27757E-03 1.56573E-20
4.39223E-03 1.48648E-20
4.50840E-03 1.41221E-20
4.62608E-03 1.34255E-20
4.74527E-03 1.27715E-20
4.86597E-03 1.21572E-20
4.98817E-03 1.15795E-20
5.11188E-03 1.10359E-20
5.23711E-03 1.05241E-20
5.36383E-03 1.00418E-20
5.49207E-03 9.58695E-21
5.62181E-03 9.15775E-21
5.75306E-03 8.75247E-21
5.88581E-03 8.36950E-21
6.02007E-03 8.00741E-21
6.15583E-03 7.66480E-21
6.29310E-03 7.34047E-21
6.43187E-03 7.03321E-21
6.57214E-03 6.74201E-21
6.71392E-03 6.46580E-21
6.85720E-03 6.20372E-21
7.00198E-03 5.95486E-21
7.14827E-03 5.71847E-21
7.29605E-03 5.49377E-21
7.44534E-03 5.28009E-21
7.59612E-03 5.07678E-21
7.97965E-03 4.61003E-21
8.37255E-03 4.19611E-21
8.77480E-03 3.82798E-21
9.18641E-03 3.49967E-21
9.60736E-03 3.20609E-21
1.00376E-02 2.94293E-21
1.04773E-02 2.70645E-21
1.09262E-02 2.49347E-21
1.13844E-02 2.30122E-21
1.18520E-02 2.12731E-21
1.23288E-02 1.96968E-21
1.28150E-02 1.82653E-21
1.33104E-02 1.69627E-21
1.38150E-02 1.57754E-21
1.43290E-02 1.46912E-21
1.48521E-02 1.36996E-21
1.53845E-02 1.27911E-21
1.59262E-02 1.19575E-21
1.64770E-02 1.11915E-21
1.70371E-02 1.04865E-21
1.76063E-02 9.83674E-22
1.81848E-02 9.23715E-22
1.87724E-02 8.68308E-22
1.93692E-02 8.17042E-22
1.99751E-02 7.69550E-22
2.05901E-02 7.25500E-22
2.12143E-02 6.84596E-22
2.18476E-02 6.46570E-22
2.24900E-02 6.11180E-22
2.31415E-02 5.78210E-22
2.38021E-02 5.47461E-22
2.44717E-02 5.18756E-22
2.51504E-02 4.91932E-22
2.58382E-02 4.66842E-22
2.65349E-02 4.43353E-22
2.72407E-02 4.21342E-22
2.79555E-02 4.00699E-22
2.86793E-02 3.81322E-22
2.94120E-02 3.63118E-22
3.01537E-02 3.46002E-22
3.09043E-02 3.29897E-22
3.16639E-02 3.14731E-22
3.24324E-02 3.00439E-22
3.32098E-02 2.86960E-22
3.39961E-02 2.74240E-22
3.47912E-02 2.62226E-22
3.55952E-02 2.50873E-22
3.64081E-02 2.40136E-22
3.72297E-02 2.29976E-22
3.80602E-02 2.20355E-22
3.88995E-02 2.11240E-22
3.97476E-02 2.02598E-22
4.06044E-02 1.94399E-22
4.14700E-02 1.86618E-22
4.23443E-02 1.79227E-22
4.32273E-02 1.72204E-22
4.41190E-02 1.65527E-22
4.50194E-02 1.59175E-22
4.59284E-02 1.53130E-22
4.68461E-02 1.47372E-22
4.87074E-02 1.36659E-22
5.06030E-02 1.26915E-22
5.25328E-02 1.18037E-22
5.44967E-02 1.09932E-22
5.64946E-02 1.02521E-22
5.85262E-02 9.57323E-23
6.05914E-02 8.95044E-23
6.26901E-02 8.37820E-23
6.48222E-02 7.85158E-23
6.69873E-02 7.36627E-23
6.91854E-02 6.91837E-23
7.14163E-02 6.50446E-23
7.36799E-02 6.12147E-23
7.59760E-02 5.76662E-23
7.83043E-02 5.43745E-23
8.06647E-02 5.13174E-23
8.30571E-02 4.84747E-23
8.54812E-02 4.58286E-23
8.79369E-02 4.33628E-23
9.04240E-02 4.10627E-23
9.29422E-02 3.89148E-23
9.54915E-02 3.69071E-23
9.80716E-02 3.50286E-23
1.00682E-01 3.32694E-23
1.03323E-01 3.16205E-23
1.05995E-01 3.00735E-23
1.08696E-01 2.86208E-23
1.11427E-01 2.72556E-23
1.14188E-01 2.59716E-23
1.16978E-01 2.47629E-23
1.19797E-01 2.36244E-23
1.22645E-01 2.25511E-23
1.25522E-01 2.15384E-23
1.28428E-01 2.05823E-23
1.31361E-01 1.96790E-23
1.34323E-01 1.88251E-23
1.37313E-01 1.80172E-23
1.40330E-01 1.72524E-23
1.43375E-01 1.65280E-23
1.46447E-01 1.58413E-23
1.49545E-01 1.51900E-23
1.52671E-01 1.45719E-23
1.55823E-01 1.39850E-23
1.59001E-01 1.34275E-23
1.62205E-01 1.28974E-23
1.65435E-01 1.23933E-23
1.68690E-01 1.19135E-23
1.71970E-01 1.14567E-23
1.75276E-01 1.10216E-23
1.78606E-01 1.06069E-23
1.81961E-01 1.02114E-23
1.85340E-01 9.83410E-24
1.88743E-01 9.47400E-24
1.92169E-01 9.13016E-24
1.95619E-01 8.80169E-24
1.99092E-01 8.48776E-24
2.02589E-01 8.18757E-24
2.06107E-01 7.90042E-24
2.09649E-01 7.62565E-24
2.13212E-01 7.36261E-24
2.16797E-01 7.11069E-24
2.20404E-01 6.86932E-24
2.24032E-01 6.63796E-24
2.27680E-01 6.41612E-24
2.31350E-01 6.20336E-24
2.35040E-01 5.99923E-24
2.38751E-01 5.80328E-24
2.42481E-01 5.61510E-24
2.46231E-01 5.43433E-24
2.50000E-01 5.26068E-24
2.53788E-01 5.09378E-24
2.57595E-01 4.93329E-24
2.61421E-01 4.77891E-24
2.65264E-01 4.63039E-24
2.69126E-01 4.48746E-24
2.73005E-01 4.34987E-24
2.76901E-01 4.21737E-24
2.80814E-01 4.08973E-24
2.84744E-01 3.96674E-24
2.88691E-01 3.84821E-24
2.92653E-01 3.73394E-24
2.96632E-01 3.62374E-24
3.00625E-01 3.51744E-24
3.04634E-01 3.41487E-24
3.08658E-01 3.31587E-24
3.12697E-01 3.22031E-24
3.16749E-01 3.12804E-24
3.20816E-01 3.03891E-24
3.24896E-01 2.95281E-24
3.28990E-01 2.86960E-24
3.33097E-01 2.78918E-24
3.37216E-01 2.71143E-24
3.41348E-01 2.63625E-24
3.45492E-01 2.56353E-24
3.49647E-01 2.49317E-24
3.53814E-01 2.42509E-24
3.57992E-01 2.35920E-24
3.62181E-01 2.29542E-24
3.66381E-01 2.23365E-24
3.70590E-01 2.17384E-24
3.74810E-01 2.11589E-24
3.79039E-01 2.05975E-24
3.83277E-01 2.00535E-24
3.87524E-01 1.95262E-24
3.91780E-01 1.90150E-24
3.96044E-01 1.85193E-24
4.00316E-01 1.80386E-24
4.04596E-01 1.75723E-24
4.08882E-01 1.71199E-24
4.13176E-01 1.66810E-24
4.17476E-01 1.62550E-24
4.21783E-01 1.58414E-24
4.26095E-01 1.54400E-24
4.30413E-01 1.50501E-24
4.34737E-01 1.46715E-24
4.39065E-01 1.43038E-24
4.43398E-01 1.39465E-24
4.47736E-01 1.35994E-24
4.52077E-01 1.32620E-24
4.56422E-01 1.29341E-24
4.60770E-01 1.26154E-24
4.65122E-01 1.23054E-24
4.69476E-01 1.20041E-24
4.73832E-01 1.17110E-24
4.78190E-01 1.14259E-24
4.82550E-01 1.11485E-24
4.86912E-01 1.08787E-24
4.91274E-01 1.06161E-24
4.95637E-01 1.03606E-24
5.00000E-01 1.01118E-24
5.04363E-01 9.86963E-25
5.08726E-01 9.63384E-25
5.13088E-01 9.40425E-25
5.17450E-01 9.18065E-25
5.21810E-01 8.96286E-25
5.26168E-01 8.75070E-25
5.30524E-01 8.54401E-25
5.34878E-01 8.34261E-25
5.39230E-01 8.14635E-25
5.43578E-01 7.95507E-25
5.47923E-01 7.76862E-25
5.52264E-01 7.58687E-25
5.56602E-01 7.40967E-25
5.60935E-01 7.23689E-25
5.65263E-01 7.06840E-25
5.69587E-01 6.90407E-25
5.73905E-01 6.74379E-25
5.78217E-01 6.58744E-25
5.82524E-01 6.43490E-25
5.86824E-01 6.28608E-25
5.91118E-01 6.14085E-25
5.95404E-01 5.99913E-25
5.99684E-01 5.86081E-25
6.03956E-01 5.72580E-25
6.08220E-01 5.59400E-25
6.12476E-01 5.46533E-25
6.16723E-01 5.33971E-25
6.20961E-01 5.21704E-25
6.25190E-01 5.09724E-25
6.29410E-01 4.98025E-25
6.33619E-01 4.86598E-25
6.37819E-01 4.75437E-25
6.42008E-01 4.64533E-25
6.46186E-01 4.53880E-25
6.50353E-01 4.43472E-25
6.54508E-01 4.33302E-25
6.58652E-01 4.23363E-25
6.62784E-01 4.13651E-25
6.66903E-01 4.04158E-25
6.71010E-01 3.94879E-25
6.75104E-01 3.85809E-25
6.79184E-01 3.76943E-25
6.83251E-01 3.68274E-25
6.87303E-01 3.59799E-25
6.91342E-01 3.51512E-25
6.95366E-01 3.43408E-25
6.99375E-01 3.35483E-25
7.03368E-01 3.27733E-25
7.07347E-01 3.20153E-25
7.11309E-01 3.12738E-25
7.15256E-01 3.05486E-25
7.19186E-01 2.98391E-25
7.23099E-01 2.91450E-25
7.26995E-01 2.84660E-25
7.30874E-01 2.78016E-25
7.34736E-01 2.71516E-25
7.38579E-01 2.65155E-25
7.42405E-01 2.58930E-25
7.46212E-01 2.52839E-25
7.50000E-01 2.46878E-25
7.53769E-01 2.41043E-25
7.57519E-01 2.35333E-25
7.61249E-01 2.29744E-25
7.64960E-01 2.24273E-25
7.68650E-01 2.18918E-25
7.72320E-01 2.13675E-25
7.75968E-01 2.08543E-25
7.79596E-01 2.03519E-25
7.83203E-01 1.98600E-25
7.86788E-01 1.93784E-25
7.90351E-01 1.89069E-25
7.93893E-01 1.84453E-25
7.97411E-01 1.79933E-25
8.00908E-01 1.75507E-25
8.04381E-01 1.71173E-25
8.07831E-01 1.66929E-25
8.11257E-01 1.62774E-25
8.14660E-01 1.58704E-25
8.18039E-01 1.54719E-25
8.21394E-01 1.50817E-25
8.24724E-01 1.46995E-25
8.28030E-01 1.43253E-25
8.31310E-01 1.39588E-25
8.34565E-01 1.35999E-25
8.37795E-01 1.32484E-25
8.40999E-01 1.29042E-25
8.44177E-01 1.25671E-25
8.47329E-01 1.22370E-25
8.50455E-01 1.19137E-25
8.53553E-01 1.15971E-25
8.56625E-01 1.12871E-25
8.59670E-01 1.09835E-25
8.62687E-01 1.06862E-25
8.65677E-01 1.03950E-25
8.68639E-01 1.01100E-25
8.71572E-01 9.83083E-26
8.74478E-01 9.55753E-26
8.77355E-01 9.28993E-26
8.80203E-01 9.02793E-26
8.83022E-01 8.77142E-26
8.85812E-01 8.52031E-26
8.88573E-01 8.27448E-26
8.91304E-01 8.03385E-26
8.94005E-01 7.79831E-26
8.96677E-01 7.56777E-26
8.99318E-01 7.34214E-26
9.01928E-01 7.12134E-26
9.04508E-01 6.90526E-26
9.07058E-01 6.69384E-26
9.09576E-01 6.48699E-26
9.12063E-01 6.28462E-26
9.14519E-01 6.08667E-26
9.16943E-01 5.89305E-26
9.19335E-01 5.70369E-26
9.21696E-01 5.51852E-26
9.24024E-01 5.33747E-26
9.26320E-01 5.16047E-26
9.28584E-01 4.98746E-26
9.30815E-01 4.81836E-26
9.33013E-01 4.65312E-26
9.35178E-01 4.49168E-26
9.37310E-01 4.33397E-26
9.39409E-01 4.17994E-26
9.41474E-01 4.02953E-26
9.43505E-01 3.88268E-26
9.45503E-01 3.73935E-26
9.47467E-01 3.59948E-26
9.49397E-01 3.46301E-26
9.51293E-01 3.32991E-26
9.53154E-01 3.20012E-26
9.54981E-01 3.07359E-26
9.56773E-01 2.95029E-26
9.58530E-01 2.83016E-26
9.60252E-01 2.71316E-26
9.61940E-01 2.59926E-26
9.63592E-01 2.48841E-26
9.65209E-01 2.38057E-26
9.66790E-01 2.27571E-26
9.68336E-01 2.17379E-26
9.69846E-01 2.07476E-26
9.71321E-01 1.97861E-26
9.72759E-01 1.88529E-26
9.74162E-01 1.79478E-26
9.75528E-01 1.70703E-26
9.76858E-01 1.62203E-26
9.78152E-01 1.53974E-26
9.79410E-01 1.46013E-26
9.80631E-01 1.38318E-26
9.81815E-01 1.30885E-26
9.82963E-01 1.23714E-26
9.84074E-01 1.16800E-26
9.85148E-01 1.10142E-26
9.86185E-01 1.03737E-26
9.87185E-01 9.75831E-27
9.88148E-01 9.16786E-27
9.89074E-01 8.60212E-27
9.89962E-01 8.06091E-27
9.90814E-01 7.54404E-27
9.91627E-01 7.05134E-27
9.92404E-01 6.58263E-27
9.93143E-01 6.13778E-27
9.93844E-01 5.71661E-27
9.94508E-01 5.31900E-27
9.95134E-01 4.94482E-27
9.95722E-01 4.59393E-27
9.96273E-01 4.26622E-27
9.96786E-01 3.96158E-27
9.97261E-01 3.67991E-27
9.97698E-01 3.42111E-27
9.98097E-01 3.18511E-27
9.98459E-01 2.97182E-27
9.98782E-01 2.78117E-27
9.99067E-01 2.61309E-27
9.99315E-01 2.46754E-27
9.99524E-01 2.34447E-27
9.99695E-01 2.24382E-27
9.99829E-01 2.16558E-27
9.99924E-01 2.10971E-27
9.99981E-01 2.07619E-27
1.00000E+00 2.06502E-27
