 #
 # Subroutine ELSEPA. Elastic scattering of electrons and positrons
 #                    by neutral atoms and positive ions
 #
 # Projectile: positron
 # Kinetic energy = 9.00000E+06 eV = 3.30744E+05 a.u.
 #
 # WARNING: High-energy factorization with free-atom DF screening.
 #          Absorption, polarization and exchange corrections are
 #          switched off.
 #          Phase shifts are calculated for the bare nucleus.
 #          Scattering amplitudes are not evaluated.
 #
 # Element: Te,  Z =  52,  atomic weight = 1.27600E+02 g/mol
 #
 # Nuclear model: Fermi distribution
 #                Average radius = 5.38684E-13 cm
 #                Skin thickness = 5.46000E-14 cm
 #
 # Number of electrons = 52
 #
 # Total elastic cross section = 5.53446E-18 cm**2 = 1.97639E-01 a0**2
 # 1st transport cross section = 4.28110E-23 cm**2 = 1.52881E-06 a0**2
 # 2nd transport cross section = 1.23856E-22 cm**2 = 4.42298E-06 a0**2
 #
 #
 # Differential cross section:                       MU=(1-COS(THETA))/2
 #
 #  THETA        MU          DCS          DCS        Sherman      error
 #  (deg)                 (cm**2/sr)   (a0**2/sr)    function
 #----------------------------------------------------------------------
0.00000E+00 4.07490E-12
7.61557E-13 4.07481E-12
1.18994E-12 4.07477E-12
1.71346E-12 4.07471E-12
2.33225E-12 4.07465E-12
3.04617E-12 4.07458E-12
3.85530E-12 4.07450E-12
4.75964E-12 4.07440E-12
5.75917E-12 4.07430E-12
6.85391E-12 4.07419E-12
8.04379E-12 4.07407E-12
9.32893E-12 4.07394E-12
1.07092E-11 4.07380E-12
1.21847E-11 4.07366E-12
1.37554E-11 4.07350E-12
1.54213E-11 4.07333E-12
1.71823E-11 4.07315E-12
1.90386E-11 4.07297E-12
2.09900E-11 4.07277E-12
2.30367E-11 4.07257E-12
2.51785E-11 4.07235E-12
2.74156E-11 4.07213E-12
2.97478E-11 4.07189E-12
3.21752E-11 4.07165E-12
3.46979E-11 4.07140E-12
3.73157E-11 4.07114E-12
4.00286E-11 4.07087E-12
4.28368E-11 4.07059E-12
4.57402E-11 4.07030E-12
4.87388E-11 4.07000E-12
5.18325E-11 4.06969E-12
5.50215E-11 4.06937E-12
5.83057E-11 4.06904E-12
6.16850E-11 4.06870E-12
6.51595E-11 4.06836E-12
6.87293E-11 4.06800E-12
7.23943E-11 4.06764E-12
7.61544E-11 4.06726E-12
1.18991E-10 4.06300E-12
1.71347E-10 4.05781E-12
2.33223E-10 4.05169E-12
3.04617E-10 4.04464E-12
3.85531E-10 4.03668E-12
4.75965E-10 4.02782E-12
5.75917E-10 4.01806E-12
6.85389E-10 4.00742E-12
8.04380E-10 3.99589E-12
9.32891E-10 3.98351E-12
1.07092E-09 3.97027E-12
1.21847E-09 3.95620E-12
1.37554E-09 3.94130E-12
1.54213E-09 3.92560E-12
1.71823E-09 3.90910E-12
1.90386E-09 3.89183E-12
2.09900E-09 3.87380E-12
2.30367E-09 3.85503E-12
2.51785E-09 3.83553E-12
2.74156E-09 3.81507E-12
2.97478E-09 3.79399E-12
3.21752E-09 3.77236E-12
3.46978E-09 3.75022E-12
3.73156E-09 3.72758E-12
4.00286E-09 3.70439E-12
4.28368E-09 3.68001E-12
4.57402E-09 3.65521E-12
4.87388E-09 3.63004E-12
5.18326E-09 3.60451E-12
5.50215E-09 3.57867E-12
5.83057E-09 3.55218E-12
6.16850E-09 3.52470E-12
6.51596E-09 3.49698E-12
6.87293E-09 3.46906E-12
7.23942E-09 3.44096E-12
7.61544E-09 3.41271E-12
1.18991E-08 3.11005E-12
1.71347E-08 2.79408E-12
2.33223E-08 2.48199E-12
3.04617E-08 2.18498E-12
3.85531E-08 1.91152E-12
4.75965E-08 1.66643E-12
5.75917E-08 1.45053E-12
6.85389E-08 1.26202E-12
8.04380E-08 1.09958E-12
9.32891E-08 9.60426E-13
1.07092E-07 8.41494E-13
1.21847E-07 7.39739E-13
1.37554E-07 6.52879E-13
1.54213E-07 5.78562E-13
1.71823E-07 5.14712E-13
1.90386E-07 4.59644E-13
2.09900E-07 4.12019E-13
2.30367E-07 3.70643E-13
2.51785E-07 3.34468E-13
2.74156E-07 3.01046E-13
2.97478E-07 2.72191E-13
3.21752E-07 2.47376E-13
3.46978E-07 2.25922E-13
3.73156E-07 2.07282E-13
4.00286E-07 1.90713E-13
4.28368E-07 1.74036E-13
4.57402E-07 1.59447E-13
4.87388E-07 1.46633E-13
5.18325E-07 1.35331E-13
5.50215E-07 1.25325E-13
5.83057E-07 1.15993E-13
6.16850E-07 1.06873E-13
6.51596E-07 9.87607E-14
6.87293E-07 9.15212E-14
7.23942E-07 8.50408E-14
7.61543E-07 7.92229E-14
1.18991E-06 3.97271E-14
1.71347E-06 2.19094E-14
2.33223E-06 1.31505E-14
3.04617E-06 8.45932E-15
3.85531E-06 5.73498E-15
4.75964E-06 4.04145E-15
5.75916E-06 2.93074E-15
6.85388E-06 2.17078E-15
8.04378E-06 1.63715E-15
9.32888E-06 1.25540E-15
1.07092E-05 9.76923E-16
1.21846E-05 7.70162E-16
1.37553E-05 6.14771E-16
1.54212E-05 4.96492E-16
1.71822E-05 4.05362E-16
1.90385E-05 3.34212E-16
2.09899E-05 2.78279E-16
2.30365E-05 2.33619E-16
2.51783E-05 1.97583E-16
2.74153E-05 1.68186E-16
2.97475E-05 1.44176E-16
3.21749E-05 1.24300E-16
3.46974E-05 1.07755E-16
3.73152E-05 9.39193E-17
4.00281E-05 8.22044E-17
4.28362E-05 7.23119E-17
4.57395E-05 6.38196E-17
4.87380E-05 5.65634E-17
5.18317E-05 5.02924E-17
5.50205E-05 4.48652E-17
5.83045E-05 4.01530E-17
6.16838E-05 3.60325E-17
6.51582E-05 3.24387E-17
6.87277E-05 2.92666E-17
7.23925E-05 2.64811E-17
7.61524E-05 2.40129E-17
9.21439E-05 1.65967E-17
1.09658E-04 1.18227E-17
1.28695E-04 8.64434E-18
1.49255E-04 6.46297E-18
1.71338E-04 4.92728E-18
1.94942E-04 3.82086E-18
2.20070E-04 3.00809E-18
2.46720E-04 2.40030E-18
2.74892E-04 1.93843E-18
3.04586E-04 1.58248E-18
3.35803E-04 1.30457E-18
3.68542E-04 1.08508E-18
4.02802E-04 9.09839E-19
4.38585E-04 7.68570E-19
4.75889E-04 6.53675E-19
5.14715E-04 5.59453E-19
5.55063E-04 4.81594E-19
5.96931E-04 4.16805E-19
6.40321E-04 3.62543E-19
6.85233E-04 3.16819E-19
7.31665E-04 2.78067E-19
7.79618E-04 2.45055E-19
8.29092E-04 2.16791E-19
8.80086E-04 1.92478E-19
9.32601E-04 1.71472E-19
9.86636E-04 1.53250E-19
1.04219E-03 1.37379E-19
1.09927E-03 1.23505E-19
1.15786E-03 1.11335E-19
1.21797E-03 1.00624E-19
1.27961E-03 9.11671E-20
1.34276E-03 8.27920E-20
1.40743E-03 7.53542E-20
1.47362E-03 6.87309E-20
1.54133E-03 6.28173E-20
1.61056E-03 5.75241E-20
1.68131E-03 5.27752E-20
1.75357E-03 4.85048E-20
1.82735E-03 4.46562E-20
1.90265E-03 4.11806E-20
1.97947E-03 3.80356E-20
2.05780E-03 3.51840E-20
2.13765E-03 3.25938E-20
2.21902E-03 3.02368E-20
2.30190E-03 2.80883E-20
2.38630E-03 2.61265E-20
2.47222E-03 2.43325E-20
2.55965E-03 2.26891E-20
2.64859E-03 2.11818E-20
2.73905E-03 1.97970E-20
2.83103E-03 1.85232E-20
2.92452E-03 1.73498E-20
3.01952E-03 1.62674E-20
3.11604E-03 1.52678E-20
3.21407E-03 1.43436E-20
3.31362E-03 1.34879E-20
3.41468E-03 1.26948E-20
3.51725E-03 1.19589E-20
3.62133E-03 1.12754E-20
3.72692E-03 1.06397E-20
3.83403E-03 1.00481E-20
3.94265E-03 9.49683E-21
4.05278E-03 8.98268E-21
4.16442E-03 8.50271E-21
4.27757E-03 8.05424E-21
4.39223E-03 7.63479E-21
4.50840E-03 7.24218E-21
4.62608E-03 6.87437E-21
4.74527E-03 6.52951E-21
4.86597E-03 6.20589E-21
4.98817E-03 5.90199E-21
5.11188E-03 5.61638E-21
5.23711E-03 5.34774E-21
5.36383E-03 5.09490E-21
5.49207E-03 4.85676E-21
5.62181E-03 4.63229E-21
5.75306E-03 4.42058E-21
5.88581E-03 4.22077E-21
6.02007E-03 4.03206E-21
6.15583E-03 3.85373E-21
6.29310E-03 3.68509E-21
6.43187E-03 3.52553E-21
6.57214E-03 3.37447E-21
6.71392E-03 3.23137E-21
6.85720E-03 3.09574E-21
7.00198E-03 2.96710E-21
7.14827E-03 2.84505E-21
7.29605E-03 2.72917E-21
7.44534E-03 2.61910E-21
7.59612E-03 2.51449E-21
7.97965E-03 2.27481E-21
8.37255E-03 2.06286E-21
8.77480E-03 1.87490E-21
9.18641E-03 1.70775E-21
9.60736E-03 1.55872E-21
1.00376E-02 1.42550E-21
1.04773E-02 1.30613E-21
1.09262E-02 1.19892E-21
1.13844E-02 1.10242E-21
1.18520E-02 1.01538E-21
1.23288E-02 9.36704E-22
1.28150E-02 8.65455E-22
1.33104E-02 8.00808E-22
1.38150E-02 7.42046E-22
1.43290E-02 6.88540E-22
1.48521E-02 6.39738E-22
1.53845E-02 5.95153E-22
1.59262E-02 5.54356E-22
1.64770E-02 5.16971E-22
1.70371E-02 4.82662E-22
1.76063E-02 4.51131E-22
1.81848E-02 4.22113E-22
1.87724E-02 3.95373E-22
1.93692E-02 3.70701E-22
1.99751E-02 3.47909E-22
2.05901E-02 3.26827E-22
2.12143E-02 3.07305E-22
2.18476E-02 2.89206E-22
2.24900E-02 2.72410E-22
2.31415E-02 2.56804E-22
2.38021E-02 2.42291E-22
2.44717E-02 2.28780E-22
2.51504E-02 2.16189E-22
2.58382E-02 2.04444E-22
2.65349E-02 1.93479E-22
2.72407E-02 1.83233E-22
2.79555E-02 1.73649E-22
2.86793E-02 1.64678E-22
2.94120E-02 1.56273E-22
3.01537E-02 1.48393E-22
3.09043E-02 1.40998E-22
3.16639E-02 1.34053E-22
3.24324E-02 1.27526E-22
3.32098E-02 1.21388E-22
3.39961E-02 1.15611E-22
3.47912E-02 1.10170E-22
3.55952E-02 1.05041E-22
3.64081E-02 1.00205E-22
3.72297E-02 9.56407E-23
3.80602E-02 9.13304E-23
3.88995E-02 8.72574E-23
3.97476E-02 8.34064E-23
4.06044E-02 7.97632E-23
4.14700E-02 7.63145E-23
4.23443E-02 7.30480E-23
4.32273E-02 6.99524E-23
4.41190E-02 6.70171E-23
4.50194E-02 6.42322E-23
4.59284E-02 6.15887E-23
4.68461E-02 5.90781E-23
4.87074E-02 5.44249E-23
5.06030E-02 5.02155E-23
5.25328E-02 4.64002E-23
5.44967E-02 4.29360E-23
5.64946E-02 3.97851E-23
5.85262E-02 3.69143E-23
6.05914E-02 3.42942E-23
6.26901E-02 3.18995E-23
6.48222E-02 2.97073E-23
6.69873E-02 2.76976E-23
6.91854E-02 2.58525E-23
7.14163E-02 2.41563E-23
7.36799E-02 2.25950E-23
7.59760E-02 2.11558E-23
7.83043E-02 1.98276E-23
8.06647E-02 1.86004E-23
8.30571E-02 1.74652E-23
8.54812E-02 1.64138E-23
8.79369E-02 1.54391E-23
9.04240E-02 1.45344E-23
9.29422E-02 1.36939E-23
9.54915E-02 1.29122E-23
9.80716E-02 1.21845E-23
1.00682E-01 1.15065E-23
1.03323E-01 1.08740E-23
1.05995E-01 1.02836E-23
1.08696E-01 9.73196E-24
1.11427E-01 9.21614E-24
1.14188E-01 8.73328E-24
1.16978E-01 8.28104E-24
1.19797E-01 7.85713E-24
1.22645E-01 7.45937E-24
1.25522E-01 7.08595E-24
1.28428E-01 6.73512E-24
1.31361E-01 6.40524E-24
1.34323E-01 6.09485E-24
1.37313E-01 5.80262E-24
1.40330E-01 5.52729E-24
1.43375E-01 5.26770E-24
1.46447E-01 5.02282E-24
1.49545E-01 4.79166E-24
1.52671E-01 4.57331E-24
1.55823E-01 4.36694E-24
1.59001E-01 4.17179E-24
1.62205E-01 3.98713E-24
1.65435E-01 3.81230E-24
1.68690E-01 3.64670E-24
1.71970E-01 3.48974E-24
1.75276E-01 3.34090E-24
1.78606E-01 3.19969E-24
1.81961E-01 3.06565E-24
1.85340E-01 2.93834E-24
1.88743E-01 2.81738E-24
1.92169E-01 2.70240E-24
1.95619E-01 2.59303E-24
1.99092E-01 2.48897E-24
2.02589E-01 2.38992E-24
2.06107E-01 2.29558E-24
2.09649E-01 2.20570E-24
2.13212E-01 2.12003E-24
2.16797E-01 2.03834E-24
2.20404E-01 1.96040E-24
2.24032E-01 1.88603E-24
2.27680E-01 1.81503E-24
2.31350E-01 1.74721E-24
2.35040E-01 1.68241E-24
2.38751E-01 1.62047E-24
2.42481E-01 1.56125E-24
2.46231E-01 1.50461E-24
2.50000E-01 1.45041E-24
2.53788E-01 1.39853E-24
2.57595E-01 1.34886E-24
2.61421E-01 1.30128E-24
2.65264E-01 1.25569E-24
2.69126E-01 1.21199E-24
2.73005E-01 1.17010E-24
2.76901E-01 1.12992E-24
2.80814E-01 1.09138E-24
2.84744E-01 1.05439E-24
2.88691E-01 1.01888E-24
2.92653E-01 9.84779E-25
2.96632E-01 9.52028E-25
3.00625E-01 9.20561E-25
3.04634E-01 8.90319E-25
3.08658E-01 8.61246E-25
3.12697E-01 8.33290E-25
3.16749E-01 8.06400E-25
3.20816E-01 7.80529E-25
3.24896E-01 7.55631E-25
3.28990E-01 7.31664E-25
3.33097E-01 7.08588E-25
3.37216E-01 6.86363E-25
3.41348E-01 6.64952E-25
3.45492E-01 6.44322E-25
3.49647E-01 6.24438E-25
3.53814E-01 6.05270E-25
3.57992E-01 5.86786E-25
3.62181E-01 5.68959E-25
3.66381E-01 5.51762E-25
3.70590E-01 5.35168E-25
3.74810E-01 5.19152E-25
3.79039E-01 5.03692E-25
3.83277E-01 4.88764E-25
3.87524E-01 4.74347E-25
3.91780E-01 4.60422E-25
3.96044E-01 4.46967E-25
4.00316E-01 4.33966E-25
4.04596E-01 4.21399E-25
4.08882E-01 4.09251E-25
4.13176E-01 3.97504E-25
4.17476E-01 3.86144E-25
4.21783E-01 3.75156E-25
4.26095E-01 3.64525E-25
4.30413E-01 3.54237E-25
4.34737E-01 3.44281E-25
4.39065E-01 3.34643E-25
4.43398E-01 3.25312E-25
4.47736E-01 3.16277E-25
4.52077E-01 3.07526E-25
4.56422E-01 2.99049E-25
4.60770E-01 2.90836E-25
4.65122E-01 2.82877E-25
4.69476E-01 2.75164E-25
4.73832E-01 2.67688E-25
4.78190E-01 2.60440E-25
4.82550E-01 2.53412E-25
4.86912E-01 2.46596E-25
4.91274E-01 2.39985E-25
4.95637E-01 2.33572E-25
5.00000E-01 2.27350E-25
5.04363E-01 2.21312E-25
5.08726E-01 2.15452E-25
5.13088E-01 2.09764E-25
5.17450E-01 2.04243E-25
5.21810E-01 1.98881E-25
5.26168E-01 1.93675E-25
5.30524E-01 1.88619E-25
5.34878E-01 1.83707E-25
5.39230E-01 1.78936E-25
5.43578E-01 1.74300E-25
5.47923E-01 1.69796E-25
5.52264E-01 1.65418E-25
5.56602E-01 1.61162E-25
5.60935E-01 1.57026E-25
5.65263E-01 1.53004E-25
5.69587E-01 1.49094E-25
5.73905E-01 1.45291E-25
5.78217E-01 1.41592E-25
5.82524E-01 1.37995E-25
5.86824E-01 1.34495E-25
5.91118E-01 1.31090E-25
5.95404E-01 1.27777E-25
5.99684E-01 1.24552E-25
6.03956E-01 1.21414E-25
6.08220E-01 1.18360E-25
6.12476E-01 1.15386E-25
6.16723E-01 1.12492E-25
6.20961E-01 1.09673E-25
6.25190E-01 1.06928E-25
6.29410E-01 1.04255E-25
6.33619E-01 1.01651E-25
6.37819E-01 9.91153E-26
6.42008E-01 9.66447E-26
6.46186E-01 9.42377E-26
6.50353E-01 9.18923E-26
6.54508E-01 8.96068E-26
6.58652E-01 8.73795E-26
6.62784E-01 8.52087E-26
6.66903E-01 8.30927E-26
6.71010E-01 8.10300E-26
6.75104E-01 7.90190E-26
6.79184E-01 7.70583E-26
6.83251E-01 7.51465E-26
6.87303E-01 7.32822E-26
6.91342E-01 7.14640E-26
6.95366E-01 6.96907E-26
6.99375E-01 6.79610E-26
7.03368E-01 6.62737E-26
7.07347E-01 6.46277E-26
7.11309E-01 6.30217E-26
7.15256E-01 6.14548E-26
7.19186E-01 5.99258E-26
7.23099E-01 5.84338E-26
7.26995E-01 5.69777E-26
7.30874E-01 5.55565E-26
7.34736E-01 5.41694E-26
7.38579E-01 5.28154E-26
7.42405E-01 5.14937E-26
7.46212E-01 5.02033E-26
7.50000E-01 4.89435E-26
7.53769E-01 4.77135E-26
7.57519E-01 4.65124E-26
7.61249E-01 4.53396E-26
7.64960E-01 4.41944E-26
7.68650E-01 4.30759E-26
7.72320E-01 4.19835E-26
7.75968E-01 4.09166E-26
7.79596E-01 3.98745E-26
7.83203E-01 3.88565E-26
7.86788E-01 3.78622E-26
7.90351E-01 3.68908E-26
7.93893E-01 3.59418E-26
7.97411E-01 3.50146E-26
8.00908E-01 3.41088E-26
8.04381E-01 3.32237E-26
8.07831E-01 3.23590E-26
8.11257E-01 3.15140E-26
8.14660E-01 3.06883E-26
8.18039E-01 2.98814E-26
8.21394E-01 2.90929E-26
8.24724E-01 2.83224E-26
8.28030E-01 2.75693E-26
8.31310E-01 2.68334E-26
8.34565E-01 2.61141E-26
8.37795E-01 2.54112E-26
8.40999E-01 2.47242E-26
8.44177E-01 2.40527E-26
8.47329E-01 2.33964E-26
8.50455E-01 2.27550E-26
8.53553E-01 2.21281E-26
8.56625E-01 2.15153E-26
8.59670E-01 2.09164E-26
8.62687E-01 2.03310E-26
8.65677E-01 1.97588E-26
8.68639E-01 1.91996E-26
8.71572E-01 1.86531E-26
8.74478E-01 1.81189E-26
8.77355E-01 1.75968E-26
8.80203E-01 1.70866E-26
8.83022E-01 1.65879E-26
8.85812E-01 1.61006E-26
8.88573E-01 1.56244E-26
8.91304E-01 1.51590E-26
8.94005E-01 1.47043E-26
8.96677E-01 1.42599E-26
8.99318E-01 1.38257E-26
9.01928E-01 1.34016E-26
9.04508E-01 1.29871E-26
9.07058E-01 1.25823E-26
9.09576E-01 1.21868E-26
9.12063E-01 1.18005E-26
9.14519E-01 1.14233E-26
9.16943E-01 1.10548E-26
9.19335E-01 1.06950E-26
9.21696E-01 1.03437E-26
9.24024E-01 1.00007E-26
9.26320E-01 9.66588E-27
9.28584E-01 9.33905E-27
9.30815E-01 9.02008E-27
9.33013E-01 8.70882E-27
9.35178E-01 8.40513E-27
9.37310E-01 8.10886E-27
9.39409E-01 7.81989E-27
9.41474E-01 7.53808E-27
9.43505E-01 7.26331E-27
9.45503E-01 6.99545E-27
9.47467E-01 6.73439E-27
9.49397E-01 6.48000E-27
9.51293E-01 6.23217E-27
9.53154E-01 5.99080E-27
9.54981E-01 5.75578E-27
9.56773E-01 5.52700E-27
9.58530E-01 5.30437E-27
9.60252E-01 5.08778E-27
9.61940E-01 4.87715E-27
9.63592E-01 4.67238E-27
9.65209E-01 4.47338E-27
9.66790E-01 4.28007E-27
9.68336E-01 4.09236E-27
9.69846E-01 3.91018E-27
9.71321E-01 3.73344E-27
9.72759E-01 3.56207E-27
9.74162E-01 3.39600E-27
9.75528E-01 3.23516E-27
9.76858E-01 3.07947E-27
9.78152E-01 2.92888E-27
9.79410E-01 2.78332E-27
9.80631E-01 2.64272E-27
9.81815E-01 2.50703E-27
9.82963E-01 2.37620E-27
9.84074E-01 2.25016E-27
9.85148E-01 2.12887E-27
9.86185E-01 2.01228E-27
9.87185E-01 1.90033E-27
9.88148E-01 1.79298E-27
9.89074E-01 1.69018E-27
9.89962E-01 1.59190E-27
9.90814E-01 1.49809E-27
9.91627E-01 1.40872E-27
9.92404E-01 1.32374E-27
9.93143E-01 1.24313E-27
9.93844E-01 1.16684E-27
9.94508E-01 1.09485E-27
9.95134E-01 1.02713E-27
9.95722E-01 9.63655E-28
9.96273E-01 9.04393E-28
9.96786E-01 8.49321E-28
9.97261E-01 7.98418E-28
9.97698E-01 7.51663E-28
9.98097E-01 7.09036E-28
9.98459E-01 6.70521E-28
9.98782E-01 6.36103E-28
9.99067E-01 6.05766E-28
9.99315E-01 5.79499E-28
9.99524E-01 5.57291E-28
9.99695E-01 5.39133E-28
9.99829E-01 5.25017E-28
9.99924E-01 5.14939E-28
9.99981E-01 5.08894E-28
1.00000E+00 5.06879E-28
