 #
 # Subroutine ELSEPA. Elastic scattering of electrons and positrons
 #                    by neutral atoms and positive ions
 #
 # Projectile: positron
 # Kinetic energy = 5.00000E+06 eV = 1.83747E+05 a.u.
 #
 # WARNING: High-energy factorization with free-atom DF screening.
 #          Absorption, polarization and exchange corrections are
 #          switched off.
 #          Phase shifts are calculated for the bare nucleus.
 #          Scattering amplitudes are not evaluated.
 #
 # Element: Te,  Z =  52,  atomic weight = 1.27600E+02 g/mol
 #
 # Nuclear model: Fermi distribution
 #                Average radius = 5.38684E-13 cm
 #                Skin thickness = 5.46000E-14 cm
 #
 # Number of electrons = 52
 #
 # Total elastic cross section = 5.57250E-18 cm**2 = 1.98997E-01 a0**2
 # 1st transport cross section = 1.16329E-22 cm**2 = 4.15417E-06 a0**2
 # 2nd transport cross section = 3.34980E-22 cm**2 = 1.19623E-05 a0**2
 #
 #
 # Differential cross section:                       MU=(1-COS(THETA))/2
 #
 #  THETA        MU          DCS          DCS        Sherman      error
 #  (deg)                 (cm**2/sr)   (a0**2/sr)    function
 #----------------------------------------------------------------------
0.00000E+00 1.36812E-12
7.61557E-13 1.36811E-12
1.18994E-12 1.36811E-12
1.71346E-12 1.36810E-12
2.33225E-12 1.36809E-12
3.04617E-12 1.36808E-12
3.85530E-12 1.36808E-12
4.75964E-12 1.36806E-12
5.75917E-12 1.36805E-12
6.85391E-12 1.36804E-12
8.04379E-12 1.36803E-12
9.32893E-12 1.36801E-12
1.07092E-11 1.36800E-12
1.21847E-11 1.36798E-12
1.37554E-11 1.36796E-12
1.54213E-11 1.36794E-12
1.71823E-11 1.36792E-12
1.90386E-11 1.36790E-12
2.09900E-11 1.36788E-12
2.30367E-11 1.36786E-12
2.51785E-11 1.36783E-12
2.74156E-11 1.36781E-12
2.97478E-11 1.36778E-12
3.21752E-11 1.36775E-12
3.46979E-11 1.36772E-12
3.73157E-11 1.36769E-12
4.00286E-11 1.36766E-12
4.28368E-11 1.36763E-12
4.57402E-11 1.36760E-12
4.87388E-11 1.36756E-12
5.18325E-11 1.36753E-12
5.50215E-11 1.36749E-12
5.83057E-11 1.36746E-12
6.16850E-11 1.36742E-12
6.51595E-11 1.36738E-12
6.87293E-11 1.36734E-12
7.23943E-11 1.36730E-12
7.61544E-11 1.36726E-12
1.18991E-10 1.36677E-12
1.71347E-10 1.36619E-12
2.33223E-10 1.36550E-12
3.04617E-10 1.36470E-12
3.85531E-10 1.36380E-12
4.75965E-10 1.36279E-12
5.75917E-10 1.36168E-12
6.85389E-10 1.36046E-12
8.04380E-10 1.35915E-12
9.32891E-10 1.35773E-12
1.07092E-09 1.35620E-12
1.21847E-09 1.35458E-12
1.37554E-09 1.35285E-12
1.54213E-09 1.35103E-12
1.71823E-09 1.34910E-12
1.90386E-09 1.34707E-12
2.09900E-09 1.34495E-12
2.30367E-09 1.34273E-12
2.51785E-09 1.34041E-12
2.74156E-09 1.33799E-12
2.97478E-09 1.33548E-12
3.21752E-09 1.33287E-12
3.46978E-09 1.33017E-12
3.73156E-09 1.32738E-12
4.00286E-09 1.32449E-12
4.28368E-09 1.32152E-12
4.57402E-09 1.31845E-12
4.87388E-09 1.31529E-12
5.18326E-09 1.31205E-12
5.50215E-09 1.30872E-12
5.83057E-09 1.30531E-12
6.16850E-09 1.30181E-12
6.51596E-09 1.29822E-12
6.87293E-09 1.29456E-12
7.23942E-09 1.29081E-12
7.61544E-09 1.28698E-12
1.18991E-08 1.24459E-12
1.71347E-08 1.19563E-12
2.33223E-08 1.14151E-12
3.04617E-08 1.08365E-12
3.85531E-08 1.02340E-12
4.75965E-08 9.62043E-13
5.75917E-08 9.00680E-13
6.85389E-08 8.40265E-13
8.04380E-08 7.81568E-13
9.32891E-08 7.25184E-13
1.07092E-07 6.71547E-13
1.21847E-07 6.20944E-13
1.37554E-07 5.73539E-13
1.54213E-07 5.29392E-13
1.71823E-07 4.88482E-13
1.90386E-07 4.50726E-13
2.09900E-07 4.15996E-13
2.30367E-07 3.84132E-13
2.51785E-07 3.54956E-13
2.74156E-07 3.28280E-13
2.97478E-07 3.03914E-13
3.21752E-07 2.81670E-13
3.46978E-07 2.61366E-13
3.73156E-07 2.42833E-13
4.00286E-07 2.25906E-13
4.28368E-07 2.10439E-13
4.57402E-07 1.96292E-13
4.87388E-07 1.83339E-13
5.18325E-07 1.71466E-13
5.50215E-07 1.60569E-13
5.83057E-07 1.50553E-13
6.16850E-07 1.41335E-13
6.51596E-07 1.32837E-13
6.87293E-07 1.24993E-13
7.23942E-07 1.17739E-13
7.61543E-07 1.11022E-13
1.18991E-06 6.46801E-14
1.71347E-06 4.00328E-14
2.33223E-06 2.57823E-14
3.04617E-06 1.71553E-14
3.85531E-06 1.17770E-14
4.75964E-06 8.33768E-15
5.75916E-06 6.07969E-15
6.85388E-06 4.55490E-15
8.04378E-06 3.49494E-15
9.32888E-06 2.73684E-15
1.07092E-05 2.18006E-15
1.21846E-05 1.76131E-15
1.37553E-05 1.43981E-15
1.54212E-05 1.18864E-15
1.71822E-05 9.89561E-16
1.90385E-05 8.29874E-16
2.09899E-05 7.00490E-16
2.30365E-05 5.94786E-16
2.51783E-05 5.07810E-16
2.74153E-05 4.35791E-16
2.97475E-05 3.75820E-16
3.21749E-05 3.25621E-16
3.46974E-05 2.83395E-16
3.73152E-05 2.47710E-16
4.00281E-05 2.17416E-16
4.28362E-05 1.91586E-16
4.57395E-05 1.69468E-16
4.87380E-05 1.50450E-16
5.18317E-05 1.34031E-16
5.50205E-05 1.19801E-16
5.83045E-05 1.07419E-16
6.16838E-05 9.66070E-17
6.51582E-05 8.71314E-17
6.87277E-05 7.87986E-17
7.23925E-05 7.14465E-17
7.61524E-05 6.49391E-17
9.21439E-05 4.53123E-17
1.09658E-04 3.25997E-17
1.28695E-04 2.40571E-17
1.49255E-04 1.81378E-17
1.71338E-04 1.39287E-17
1.94942E-04 1.08689E-17
2.20070E-04 8.60163E-18
2.46720E-04 6.89326E-18
2.74892E-04 5.58677E-18
3.04586E-04 4.57425E-18
3.35803E-04 3.78007E-18
3.68542E-04 3.15033E-18
4.02802E-04 2.64596E-18
4.38585E-04 2.23829E-18
4.75889E-04 1.90597E-18
5.14715E-04 1.63295E-18
5.55063E-04 1.40701E-18
5.96931E-04 1.21876E-18
6.40321E-04 1.06091E-18
6.85233E-04 9.27771E-19
7.31665E-04 8.14852E-19
7.79618E-04 7.18581E-19
8.29092E-04 6.36100E-19
8.80086E-04 5.65109E-19
9.32601E-04 5.03740E-19
9.86636E-04 4.50472E-19
1.04219E-03 4.04054E-19
1.09927E-03 3.63456E-19
1.15786E-03 3.27826E-19
1.21797E-03 2.96451E-19
1.27961E-03 2.68735E-19
1.34276E-03 2.44180E-19
1.40743E-03 2.22361E-19
1.47362E-03 2.02922E-19
1.54133E-03 1.85557E-19
1.61056E-03 1.70007E-19
1.68131E-03 1.56049E-19
1.75357E-03 1.43491E-19
1.82735E-03 1.32169E-19
1.90265E-03 1.21938E-19
1.97947E-03 1.12676E-19
2.05780E-03 1.04275E-19
2.13765E-03 9.66402E-20
2.21902E-03 8.96894E-20
2.30190E-03 8.33505E-20
2.38630E-03 7.75601E-20
2.47222E-03 7.22622E-20
2.55965E-03 6.74076E-20
2.64859E-03 6.29525E-20
2.73905E-03 5.88581E-20
2.83103E-03 5.50900E-20
2.92452E-03 5.16176E-20
3.01952E-03 4.84134E-20
3.11604E-03 4.54531E-20
3.21407E-03 4.27147E-20
3.31362E-03 4.01787E-20
3.41468E-03 3.78273E-20
3.51725E-03 3.56446E-20
3.62133E-03 3.36166E-20
3.72692E-03 3.17300E-20
3.83403E-03 2.99734E-20
3.94265E-03 2.83362E-20
4.05278E-03 2.68087E-20
4.16442E-03 2.53822E-20
4.27757E-03 2.40490E-20
4.39223E-03 2.28017E-20
4.50840E-03 2.16339E-20
4.62608E-03 2.05395E-20
4.74527E-03 1.95131E-20
4.86597E-03 1.85498E-20
4.98817E-03 1.76448E-20
5.11188E-03 1.67941E-20
5.23711E-03 1.59937E-20
5.36383E-03 1.52403E-20
5.49207E-03 1.45304E-20
5.62181E-03 1.38612E-20
5.75306E-03 1.32299E-20
5.88581E-03 1.26339E-20
6.02007E-03 1.20709E-20
6.15583E-03 1.15387E-20
6.29310E-03 1.10354E-20
6.43187E-03 1.05591E-20
6.57214E-03 1.01081E-20
6.71392E-03 9.68072E-21
6.85720E-03 9.27560E-21
7.00198E-03 8.89132E-21
7.14827E-03 8.52661E-21
7.29605E-03 8.18031E-21
7.44534E-03 7.85131E-21
7.59612E-03 7.53859E-21
7.97965E-03 6.82188E-21
8.37255E-03 6.18788E-21
8.77480E-03 5.62543E-21
9.18641E-03 5.12508E-21
9.60736E-03 4.67882E-21
1.00376E-02 4.27980E-21
1.04773E-02 3.92216E-21
1.09262E-02 3.60087E-21
1.13844E-02 3.31161E-21
1.18520E-02 3.05063E-21
1.23288E-02 2.81470E-21
1.28150E-02 2.60098E-21
1.33104E-02 2.40703E-21
1.38150E-02 2.23071E-21
1.43290E-02 2.07012E-21
1.48521E-02 1.92363E-21
1.53845E-02 1.78977E-21
1.59262E-02 1.66727E-21
1.64770E-02 1.55500E-21
1.70371E-02 1.45195E-21
1.76063E-02 1.35723E-21
1.81848E-02 1.27005E-21
1.87724E-02 1.18970E-21
1.93692E-02 1.11556E-21
1.99751E-02 1.04706E-21
2.05901E-02 9.83694E-22
2.12143E-02 9.25010E-22
2.18476E-02 8.70600E-22
2.24900E-02 8.20100E-22
2.31415E-02 7.73175E-22
2.38021E-02 7.29533E-22
2.44717E-02 6.88896E-22
2.51504E-02 6.51028E-22
2.58382E-02 6.15700E-22
2.65349E-02 5.82716E-22
2.72407E-02 5.51890E-22
2.79555E-02 5.23057E-22
2.86793E-02 4.96065E-22
2.94120E-02 4.70775E-22
3.01537E-02 4.47061E-22
3.09043E-02 4.24806E-22
3.16639E-02 4.03906E-22
3.24324E-02 3.84263E-22
3.32098E-02 3.65787E-22
3.39961E-02 3.48397E-22
3.47912E-02 3.32017E-22
3.55952E-02 3.16579E-22
3.64081E-02 3.02018E-22
3.72297E-02 2.88276E-22
3.80602E-02 2.75298E-22
3.88995E-02 2.63034E-22
3.97476E-02 2.51438E-22
4.06044E-02 2.40467E-22
4.14700E-02 2.30081E-22
4.23443E-02 2.20244E-22
4.32273E-02 2.10920E-22
4.41190E-02 2.02079E-22
4.50194E-02 1.93691E-22
4.59284E-02 1.85729E-22
4.68461E-02 1.78167E-22
4.87074E-02 1.64149E-22
5.06030E-02 1.51467E-22
5.25328E-02 1.39972E-22
5.44967E-02 1.29534E-22
5.64946E-02 1.20039E-22
5.85262E-02 1.11387E-22
6.05914E-02 1.03491E-22
6.26901E-02 9.62732E-23
6.48222E-02 8.96653E-23
6.69873E-02 8.36071E-23
6.91854E-02 7.80449E-23
7.14163E-02 7.29312E-23
7.36799E-02 6.82236E-23
7.59760E-02 6.38841E-23
7.83043E-02 5.98791E-23
8.06647E-02 5.61782E-23
8.30571E-02 5.27545E-23
8.54812E-02 4.95837E-23
8.79369E-02 4.66437E-23
9.04240E-02 4.39149E-23
9.29422E-02 4.13794E-23
9.54915E-02 3.90212E-23
9.80716E-02 3.68257E-23
1.00682E-01 3.47798E-23
1.03323E-01 3.28715E-23
1.05995E-01 3.10900E-23
1.08696E-01 2.94253E-23
1.11427E-01 2.78685E-23
1.14188E-01 2.64113E-23
1.16978E-01 2.50462E-23
1.19797E-01 2.37665E-23
1.22645E-01 2.25659E-23
1.25522E-01 2.14386E-23
1.28428E-01 2.03793E-23
1.31361E-01 1.93833E-23
1.34323E-01 1.84461E-23
1.37313E-01 1.75636E-23
1.40330E-01 1.67321E-23
1.43375E-01 1.59482E-23
1.46447E-01 1.52086E-23
1.49545E-01 1.45103E-23
1.52671E-01 1.38508E-23
1.55823E-01 1.32273E-23
1.59001E-01 1.26377E-23
1.62205E-01 1.20798E-23
1.65435E-01 1.15515E-23
1.68690E-01 1.10511E-23
1.71970E-01 1.05768E-23
1.75276E-01 1.01270E-23
1.78606E-01 9.70015E-24
1.81961E-01 9.29496E-24
1.85340E-01 8.91012E-24
1.88743E-01 8.54444E-24
1.92169E-01 8.19679E-24
1.95619E-01 7.86613E-24
1.99092E-01 7.55148E-24
2.02589E-01 7.25192E-24
2.06107E-01 6.96660E-24
2.09649E-01 6.69474E-24
2.13212E-01 6.43560E-24
2.16797E-01 6.18848E-24
2.20404E-01 5.95272E-24
2.24032E-01 5.72770E-24
2.27680E-01 5.51285E-24
2.31350E-01 5.30763E-24
2.35040E-01 5.11153E-24
2.38751E-01 4.92409E-24
2.42481E-01 4.74486E-24
2.46231E-01 4.57340E-24
2.50000E-01 4.40934E-24
2.53788E-01 4.25227E-24
2.57595E-01 4.10187E-24
2.61421E-01 3.95780E-24
2.65264E-01 3.81974E-24
2.69126E-01 3.68742E-24
2.73005E-01 3.56054E-24
2.76901E-01 3.43884E-24
2.80814E-01 3.32207E-24
2.84744E-01 3.21000E-24
2.88691E-01 3.10240E-24
2.92653E-01 2.99908E-24
2.96632E-01 2.89983E-24
3.00625E-01 2.80446E-24
3.04634E-01 2.71280E-24
3.08658E-01 2.62467E-24
3.12697E-01 2.53991E-24
3.16749E-01 2.45838E-24
3.20816E-01 2.37992E-24
3.24896E-01 2.30442E-24
3.28990E-01 2.23174E-24
3.33097E-01 2.16175E-24
3.37216E-01 2.09433E-24
3.41348E-01 2.02937E-24
3.45492E-01 1.96676E-24
3.49647E-01 1.90643E-24
3.53814E-01 1.84827E-24
3.57992E-01 1.79218E-24
3.62181E-01 1.73806E-24
3.66381E-01 1.68585E-24
3.70590E-01 1.63547E-24
3.74810E-01 1.58684E-24
3.79039E-01 1.53989E-24
3.83277E-01 1.49456E-24
3.87524E-01 1.45077E-24
3.91780E-01 1.40847E-24
3.96044E-01 1.36759E-24
4.00316E-01 1.32809E-24
4.04596E-01 1.28990E-24
4.08882E-01 1.25298E-24
4.13176E-01 1.21728E-24
4.17476E-01 1.18275E-24
4.21783E-01 1.14934E-24
4.26095E-01 1.11702E-24
4.30413E-01 1.08573E-24
4.34737E-01 1.05545E-24
4.39065E-01 1.02614E-24
4.43398E-01 9.97758E-25
4.47736E-01 9.70269E-25
4.52077E-01 9.43643E-25
4.56422E-01 9.17846E-25
4.60770E-01 8.92851E-25
4.65122E-01 8.68627E-25
4.69476E-01 8.45148E-25
4.73832E-01 8.22386E-25
4.78190E-01 8.00317E-25
4.82550E-01 7.78914E-25
4.86912E-01 7.58156E-25
4.91274E-01 7.38018E-25
4.95637E-01 7.18481E-25
5.00000E-01 6.99523E-25
5.04363E-01 6.81125E-25
5.08726E-01 6.63267E-25
5.13088E-01 6.45931E-25
5.17450E-01 6.29098E-25
5.21810E-01 6.12752E-25
5.26168E-01 5.96877E-25
5.30524E-01 5.81457E-25
5.34878E-01 5.66477E-25
5.39230E-01 5.51923E-25
5.43578E-01 5.37780E-25
5.47923E-01 5.24035E-25
5.52264E-01 5.10675E-25
5.56602E-01 4.97687E-25
5.60935E-01 4.85060E-25
5.65263E-01 4.72782E-25
5.69587E-01 4.60842E-25
5.73905E-01 4.49230E-25
5.78217E-01 4.37934E-25
5.82524E-01 4.26944E-25
5.86824E-01 4.16252E-25
5.91118E-01 4.05848E-25
5.95404E-01 3.95723E-25
5.99684E-01 3.85869E-25
6.03956E-01 3.76276E-25
6.08220E-01 3.66938E-25
6.12476E-01 3.57846E-25
6.16723E-01 3.48993E-25
6.20961E-01 3.40372E-25
6.25190E-01 3.31976E-25
6.29410E-01 3.23798E-25
6.33619E-01 3.15831E-25
6.37819E-01 3.08070E-25
6.42008E-01 3.00508E-25
6.46186E-01 2.93139E-25
6.50353E-01 2.85958E-25
6.54508E-01 2.78960E-25
6.58652E-01 2.72139E-25
6.62784E-01 2.65489E-25
6.66903E-01 2.59007E-25
6.71010E-01 2.52687E-25
6.75104E-01 2.46524E-25
6.79184E-01 2.40515E-25
6.83251E-01 2.34654E-25
6.87303E-01 2.28938E-25
6.91342E-01 2.23363E-25
6.95366E-01 2.17925E-25
6.99375E-01 2.12619E-25
7.03368E-01 2.07443E-25
7.07347E-01 2.02392E-25
7.11309E-01 1.97464E-25
7.15256E-01 1.92655E-25
7.19186E-01 1.87961E-25
7.23099E-01 1.83380E-25
7.26995E-01 1.78909E-25
7.30874E-01 1.74544E-25
7.34736E-01 1.70284E-25
7.38579E-01 1.66124E-25
7.42405E-01 1.62063E-25
7.46212E-01 1.58098E-25
7.50000E-01 1.54226E-25
7.53769E-01 1.50445E-25
7.57519E-01 1.46752E-25
7.61249E-01 1.43146E-25
7.64960E-01 1.39623E-25
7.68650E-01 1.36183E-25
7.72320E-01 1.32822E-25
7.75968E-01 1.29540E-25
7.79596E-01 1.26333E-25
7.83203E-01 1.23200E-25
7.86788E-01 1.20139E-25
7.90351E-01 1.17148E-25
7.93893E-01 1.14226E-25
7.97411E-01 1.11370E-25
8.00908E-01 1.08580E-25
8.04381E-01 1.05854E-25
8.07831E-01 1.03189E-25
8.11257E-01 1.00585E-25
8.14660E-01 9.80401E-26
8.18039E-01 9.55528E-26
8.21394E-01 9.31218E-26
8.24724E-01 9.07458E-26
8.28030E-01 8.84234E-26
8.31310E-01 8.61534E-26
8.34565E-01 8.39345E-26
8.37795E-01 8.17656E-26
8.40999E-01 7.96455E-26
8.44177E-01 7.75731E-26
8.47329E-01 7.55472E-26
8.50455E-01 7.35669E-26
8.53553E-01 7.16310E-26
8.56625E-01 6.97386E-26
8.59670E-01 6.78887E-26
8.62687E-01 6.60804E-26
8.65677E-01 6.43126E-26
8.68639E-01 6.25846E-26
8.71572E-01 6.08955E-26
8.74478E-01 5.92443E-26
8.77355E-01 5.76303E-26
8.80203E-01 5.60527E-26
8.83022E-01 5.45107E-26
8.85812E-01 5.30035E-26
8.88573E-01 5.15304E-26
8.91304E-01 5.00907E-26
8.94005E-01 4.86836E-26
8.96677E-01 4.73085E-26
8.99318E-01 4.59648E-26
9.01928E-01 4.46518E-26
9.04508E-01 4.33688E-26
9.07058E-01 4.21153E-26
9.09576E-01 4.08906E-26
9.12063E-01 3.96943E-26
9.14519E-01 3.85256E-26
9.16943E-01 3.73842E-26
9.19335E-01 3.62694E-26
9.21696E-01 3.51808E-26
9.24024E-01 3.41178E-26
9.26320E-01 3.30800E-26
9.28584E-01 3.20669E-26
9.30815E-01 3.10780E-26
9.33013E-01 3.01128E-26
9.35178E-01 2.91710E-26
9.37310E-01 2.82522E-26
9.39409E-01 2.73558E-26
9.41474E-01 2.64816E-26
9.43505E-01 2.56291E-26
9.45503E-01 2.47980E-26
9.47467E-01 2.39878E-26
9.49397E-01 2.31983E-26
9.51293E-01 2.24291E-26
9.53154E-01 2.16798E-26
9.54981E-01 2.09501E-26
9.56773E-01 2.02398E-26
9.58530E-01 1.95484E-26
9.60252E-01 1.88758E-26
9.61940E-01 1.82216E-26
9.63592E-01 1.75855E-26
9.65209E-01 1.69673E-26
9.66790E-01 1.63668E-26
9.68336E-01 1.57835E-26
9.69846E-01 1.52174E-26
9.71321E-01 1.46682E-26
9.72759E-01 1.41356E-26
9.74162E-01 1.36194E-26
9.75528E-01 1.31194E-26
9.76858E-01 1.26354E-26
9.78152E-01 1.21672E-26
9.79410E-01 1.17146E-26
9.80631E-01 1.12775E-26
9.81815E-01 1.08555E-26
9.82963E-01 1.04486E-26
9.84074E-01 1.00566E-26
9.85148E-01 9.67939E-27
9.86185E-01 9.31671E-27
9.87185E-01 8.96847E-27
9.88148E-01 8.63451E-27
9.89074E-01 8.31470E-27
9.89962E-01 8.00892E-27
9.90814E-01 7.71704E-27
9.91627E-01 7.43894E-27
9.92404E-01 7.17451E-27
9.93143E-01 6.92364E-27
9.93844E-01 6.68624E-27
9.94508E-01 6.46220E-27
9.95134E-01 6.25143E-27
9.95722E-01 6.05386E-27
9.96273E-01 5.86940E-27
9.96786E-01 5.69798E-27
9.97261E-01 5.53953E-27
9.97698E-01 5.39399E-27
9.98097E-01 5.26130E-27
9.98459E-01 5.14140E-27
9.98782E-01 5.03425E-27
9.99067E-01 4.93981E-27
9.99315E-01 4.85803E-27
9.99524E-01 4.78890E-27
9.99695E-01 4.73236E-27
9.99829E-01 4.68842E-27
9.99924E-01 4.65704E-27
9.99981E-01 4.63822E-27
1.00000E+00 4.63195E-27
