 #
 # Subroutine ELSEPA. Elastic scattering of electrons and positrons
 #                    by neutral atoms and positive ions
 #
 # Projectile: positron
 # Kinetic energy = 2.50000E+08 eV = 9.18733E+06 a.u.
 #
 # WARNING: High-energy factorization with free-atom DF screening.
 #          Absorption, polarization and exchange corrections are
 #          switched off.
 #          Phase shifts are calculated for the bare nucleus.
 #          Scattering amplitudes are not evaluated.
 #
 # Element: Te,  Z =  52,  atomic weight = 1.27600E+02 g/mol
 #
 # Nuclear model: Fermi distribution
 #                Average radius = 5.38684E-13 cm
 #                Skin thickness = 5.46000E-14 cm
 #
 # Number of electrons = 52
 #
 # Total elastic cross section = 5.52007E-18 cm**2 = 1.97125E-01 a0**2
 # 1st transport cross section = 8.36038E-26 cm**2 = 2.98555E-09 a0**2
 # 2nd transport cross section = 2.50409E-25 cm**2 = 8.94227E-09 a0**2
 #
 #
 # Differential cross section:                       MU=(1-COS(THETA))/2
 #
 #  THETA        MU          DCS          DCS        Sherman      error
 #  (deg)                 (cm**2/sr)   (a0**2/sr)    function
 #----------------------------------------------------------------------
0.00000E+00 2.82695E-09
7.61557E-13 2.79068E-09
1.18994E-12 2.77062E-09
1.71346E-12 2.74641E-09
2.33225E-12 2.71821E-09
3.04617E-12 2.68623E-09
3.85530E-12 2.65054E-09
4.75964E-12 2.61143E-09
5.75917E-12 2.56978E-09
6.85391E-12 2.52455E-09
8.04379E-12 2.47759E-09
9.32893E-12 2.42756E-09
1.07092E-11 2.37623E-09
1.21847E-11 2.32269E-09
1.37554E-11 2.26805E-09
1.54213E-11 2.21218E-09
1.71823E-11 2.15526E-09
1.90386E-11 2.09814E-09
2.09900E-11 2.03992E-09
2.30367E-11 1.98251E-09
2.51785E-11 1.92388E-09
2.74156E-11 1.86674E-09
2.97478E-11 1.80876E-09
3.21752E-11 1.75233E-09
3.46979E-11 1.69592E-09
3.73157E-11 1.64079E-09
4.00286E-11 1.58644E-09
4.28368E-11 1.53310E-09
4.57402E-11 1.48119E-09
4.87388E-11 1.43001E-09
5.18325E-11 1.38077E-09
5.50215E-11 1.33203E-09
5.83057E-11 1.28552E-09
6.16850E-11 1.23948E-09
6.51595E-11 1.19555E-09
6.87293E-11 1.15252E-09
7.23943E-11 1.11124E-09
7.61544E-11 1.07119E-09
1.18991E-10 7.43689E-10
1.71347E-10 5.24784E-10
2.33223E-10 3.80123E-10
3.04617E-10 2.82825E-10
3.85531E-10 2.14678E-10
4.75965E-10 1.65823E-10
5.75917E-10 1.32185E-10
6.85389E-10 1.04741E-10
8.04380E-10 8.51265E-11
9.32891E-10 6.89406E-11
1.07092E-09 5.66976E-11
1.21847E-09 4.67569E-11
1.37554E-09 3.88752E-11
1.54213E-09 3.25472E-11
1.71823E-09 2.73799E-11
1.90386E-09 2.32346E-11
2.09900E-09 1.97904E-11
2.30367E-09 1.70064E-11
2.51785E-09 1.46664E-11
2.74156E-09 1.27485E-11
2.97478E-09 1.11270E-11
3.21752E-09 9.77415E-12
3.46978E-09 8.62385E-12
3.73156E-09 7.64775E-12
4.00286E-09 6.81108E-12
4.28368E-09 6.09032E-12
4.57402E-09 5.46777E-12
4.87388E-09 4.92352E-12
5.18326E-09 4.45068E-12
5.50215E-09 4.03123E-12
5.83057E-09 3.66500E-12
6.16850E-09 3.33630E-12
6.51596E-09 3.04691E-12
6.87293E-09 2.78644E-12
7.23942E-09 2.55445E-12
7.61544E-09 2.34540E-12
1.18991E-08 1.08147E-12
1.71347E-08 5.57743E-13
2.33223E-08 3.14047E-13
3.04617E-08 1.90213E-13
3.85531E-08 1.22030E-13
4.75965E-08 8.20143E-14
5.75917E-08 5.71955E-14
6.85389E-08 4.11088E-14
8.04380E-08 3.02977E-14
9.32891E-08 2.28115E-14
1.07092E-07 1.74902E-14
1.21847E-07 1.36286E-14
1.37554E-07 1.07730E-14
1.54213E-07 8.62518E-15
1.71823E-07 6.98545E-15
1.90386E-07 5.71654E-15
2.09900E-07 4.72255E-15
2.30367E-07 3.93498E-15
2.51785E-07 3.30478E-15
2.74156E-07 2.79576E-15
2.97478E-07 2.38106E-15
3.21752E-07 2.04049E-15
3.46978E-07 1.75870E-15
3.73156E-07 1.52394E-15
4.00286E-07 1.32708E-15
4.28368E-07 1.16103E-15
4.57402E-07 1.02017E-15
4.87388E-07 9.00063E-16
5.18325E-07 7.97136E-16
5.50215E-07 7.08522E-16
5.83057E-07 6.31898E-16
6.16850E-07 5.65360E-16
6.51596E-07 5.07360E-16
6.87293E-07 4.56615E-16
7.23942E-07 4.12062E-16
7.61543E-07 3.72816E-16
1.18991E-06 1.54137E-16
1.71347E-06 7.47824E-17
2.33223E-06 4.05262E-17
3.04617E-06 2.38191E-17
3.85531E-06 1.48973E-17
4.75964E-06 9.78651E-18
5.75916E-06 6.69032E-18
6.85388E-06 4.72683E-18
8.04378E-06 3.43335E-18
9.32888E-06 2.55339E-18
1.07092E-05 1.93803E-18
1.21846E-05 1.49730E-18
1.37553E-05 1.17498E-18
1.54212E-05 9.34881E-19
1.71822E-05 7.53072E-19
1.90385E-05 6.13194E-19
2.09899E-05 5.04639E-19
2.30365E-05 4.19031E-19
2.51783E-05 3.50767E-19
2.74153E-05 2.95805E-19
2.97475E-05 2.51171E-19
3.21749E-05 2.14641E-19
3.46974E-05 1.84525E-19
3.73152E-05 1.59523E-19
4.00281E-05 1.38624E-19
4.28362E-05 1.21041E-19
4.57395E-05 1.06159E-19
4.87380E-05 9.34899E-20
5.18317E-05 8.26509E-20
5.50205E-05 7.33341E-20
5.83045E-05 6.52917E-20
6.16838E-05 5.83223E-20
6.51582E-05 5.22591E-20
6.87277E-05 4.69648E-20
7.23925E-05 4.23251E-20
7.61524E-05 3.83110E-20
9.21439E-05 2.61558E-20
1.09658E-04 1.84582E-20
1.28695E-04 1.33949E-20
1.49255E-04 9.95277E-21
1.71338E-04 7.54824E-21
1.94942E-04 5.82706E-21
2.20070E-04 4.56919E-21
2.46720E-04 3.63274E-21
2.74892E-04 2.92395E-21
3.04586E-04 2.37965E-21
3.35803E-04 1.95603E-21
3.68542E-04 1.62240E-21
4.02802E-04 1.35678E-21
4.38585E-04 1.14320E-21
4.75889E-04 9.69909E-22
5.14715E-04 8.28123E-22
5.55063E-04 7.11226E-22
5.96931E-04 6.14155E-22
6.40321E-04 5.33015E-22
6.85233E-04 4.64775E-22
7.31665E-04 4.07051E-22
7.79618E-04 3.57963E-22
8.29092E-04 3.16007E-22
8.80086E-04 2.79978E-22
9.32601E-04 2.48901E-22
9.86636E-04 2.21983E-22
1.04219E-03 1.98576E-22
1.09927E-03 1.78146E-22
1.15786E-03 1.60250E-22
1.21797E-03 1.44522E-22
1.27961E-03 1.30656E-22
1.34276E-03 1.18394E-22
1.40743E-03 1.07519E-22
1.47362E-03 9.78479E-23
1.54133E-03 8.92250E-23
1.61056E-03 8.15174E-23
1.68131E-03 7.46116E-23
1.75357E-03 6.84100E-23
1.82735E-03 6.28287E-23
1.90265E-03 5.77950E-23
1.97947E-03 5.32462E-23
2.05780E-03 4.91276E-23
2.13765E-03 4.53916E-23
2.21902E-03 4.19966E-23
2.30190E-03 3.89063E-23
2.38630E-03 3.60886E-23
2.47222E-03 3.35154E-23
2.55965E-03 3.11619E-23
2.64859E-03 2.90062E-23
2.73905E-03 2.70288E-23
2.83103E-03 2.52126E-23
2.92452E-03 2.35420E-23
3.01952E-03 2.20035E-23
3.11604E-03 2.05849E-23
3.21407E-03 1.92753E-23
3.31362E-03 1.80649E-23
3.41468E-03 1.69448E-23
3.51725E-03 1.59073E-23
3.62133E-03 1.49452E-23
3.72692E-03 1.40522E-23
3.83403E-03 1.32224E-23
3.94265E-03 1.24507E-23
4.05278E-03 1.17322E-23
4.16442E-03 1.10627E-23
4.27757E-03 1.04384E-23
4.39223E-03 9.85563E-24
4.50840E-03 9.31122E-24
4.62608E-03 8.80221E-24
4.74527E-03 8.32593E-24
4.86597E-03 7.87995E-24
4.98817E-03 7.46200E-24
5.11188E-03 7.07006E-24
5.23711E-03 6.70223E-24
5.36383E-03 6.35680E-24
5.49207E-03 6.03218E-24
5.62181E-03 5.72692E-24
5.75306E-03 5.43968E-24
5.88581E-03 5.16923E-24
6.02007E-03 4.91444E-24
6.15583E-03 4.67424E-24
6.29310E-03 4.44768E-24
6.43187E-03 4.23386E-24
6.57214E-03 4.03195E-24
6.71392E-03 3.84119E-24
6.85720E-03 3.66086E-24
7.00198E-03 3.49031E-24
7.14827E-03 3.32892E-24
7.29605E-03 3.17613E-24
7.44534E-03 3.03142E-24
7.59612E-03 2.89428E-24
7.97965E-03 2.58167E-24
8.37255E-03 2.30735E-24
8.77480E-03 2.06598E-24
9.18641E-03 1.85309E-24
9.60736E-03 1.66487E-24
1.00376E-02 1.49810E-24
1.04773E-02 1.35001E-24
1.09262E-02 1.21825E-24
1.13844E-02 1.10080E-24
1.18520E-02 9.95911E-25
1.23288E-02 9.02075E-25
1.28150E-02 8.17993E-25
1.33104E-02 7.42530E-25
1.38150E-02 6.74704E-25
1.43290E-02 6.13653E-25
1.48521E-02 5.58627E-25
1.53845E-02 5.08968E-25
1.59262E-02 4.64095E-25
1.64770E-02 4.23501E-25
1.70371E-02 3.86736E-25
1.76063E-02 3.53402E-25
1.81848E-02 3.23150E-25
1.87724E-02 2.95667E-25
1.93692E-02 2.70677E-25
1.99751E-02 2.47933E-25
2.05901E-02 2.27216E-25
2.12143E-02 2.08330E-25
2.18476E-02 1.91101E-25
2.24900E-02 1.75370E-25
2.31415E-02 1.60999E-25
2.38021E-02 1.47860E-25
2.44717E-02 1.35841E-25
2.51504E-02 1.24839E-25
2.58382E-02 1.14763E-25
2.65349E-02 1.05529E-25
2.72407E-02 9.70638E-26
2.79555E-02 8.92987E-26
2.86793E-02 8.21726E-26
2.94120E-02 7.56303E-26
3.01537E-02 6.96213E-26
3.09043E-02 6.41001E-26
3.16639E-02 5.90253E-26
3.24324E-02 5.43592E-26
3.32098E-02 5.00676E-26
3.39961E-02 4.61191E-26
3.47912E-02 4.24854E-26
3.55952E-02 3.91405E-26
3.64081E-02 3.60608E-26
3.72297E-02 3.32245E-26
3.80602E-02 3.06120E-26
3.88995E-02 2.82052E-26
3.97476E-02 2.59874E-26
4.06044E-02 2.39436E-26
4.14700E-02 2.20599E-26
4.23443E-02 2.03235E-26
4.32273E-02 1.87228E-26
4.41190E-02 1.72470E-26
4.50194E-02 1.58863E-26
4.59284E-02 1.46318E-26
4.68461E-02 1.34749E-26
4.87074E-02 1.14247E-26
5.06030E-02 9.68149E-27
5.25328E-02 8.19961E-27
5.44967E-02 6.94015E-27
5.64946E-02 5.87013E-27
5.85262E-02 4.96145E-27
6.05914E-02 4.19023E-27
6.26901E-02 3.53610E-27
6.48222E-02 2.98171E-27
6.69873E-02 2.51225E-27
6.91854E-02 2.11509E-27
7.14163E-02 1.77944E-27
7.36799E-02 1.49609E-27
7.59760E-02 1.25718E-27
7.83043E-02 1.05600E-27
8.06647E-02 8.86816E-28
8.30571E-02 7.44741E-28
8.54812E-02 6.25603E-28
8.79369E-02 5.25849E-28
9.04240E-02 4.42450E-28
9.29422E-02 3.72830E-28
9.54915E-02 3.14797E-28
9.80716E-02 2.66490E-28
1.00682E-01 2.26332E-28
1.03323E-01 1.92984E-28
1.05995E-01 1.65317E-28
1.08696E-01 1.42375E-28
1.11427E-01 1.23355E-28
1.14188E-01 1.07581E-28
1.16978E-01 9.44848E-29
1.19797E-01 8.35923E-29
1.22645E-01 7.45076E-29
1.25522E-01 6.69012E-29
1.28428E-01 6.05001E-29
1.31361E-01 5.50787E-29
1.34323E-01 5.04514E-29
1.37313E-01 4.64662E-29
1.40330E-01 4.29991E-29
1.43375E-01 3.99495E-29
1.46447E-01 3.72365E-29
1.49545E-01 3.47950E-29
1.52671E-01 3.25734E-29
1.55823E-01 3.05310E-29
1.59001E-01 2.86359E-29
1.62205E-01 2.68633E-29
1.65435E-01 2.51945E-29
1.68690E-01 2.36150E-29
1.71970E-01 2.21144E-29
1.75276E-01 2.06847E-29
1.78606E-01 1.93203E-29
1.81961E-01 1.80173E-29
1.85340E-01 1.67729E-29
1.88743E-01 1.55852E-29
1.92169E-01 1.44528E-29
1.95619E-01 1.33749E-29
1.99092E-01 1.23506E-29
2.02589E-01 1.13795E-29
2.06107E-01 1.04607E-29
2.09649E-01 9.59366E-30
2.13212E-01 8.77751E-30
2.16797E-01 8.01130E-30
2.20404E-01 7.29392E-30
2.24032E-01 6.62412E-30
2.27680E-01 6.00049E-30
2.31350E-01 5.42151E-30
2.35040E-01 4.88551E-30
2.38751E-01 4.39076E-30
2.42481E-01 3.93541E-30
2.46231E-01 3.51757E-30
2.50000E-01 3.13529E-30
2.53788E-01 2.78661E-30
2.57595E-01 2.46955E-30
2.61421E-01 2.18216E-30
2.65264E-01 1.92247E-30
2.69126E-01 1.68860E-30
2.73005E-01 1.47868E-30
2.76901E-01 1.29089E-30
2.80814E-01 1.12351E-30
2.84744E-01 9.74868E-31
2.88691E-01 8.43364E-31
2.92653E-01 7.27488E-31
2.96632E-01 6.25808E-31
3.00625E-01 5.36978E-31
3.04634E-01 4.59734E-31
3.08658E-01 3.92898E-31
3.12697E-01 3.35373E-31
3.16749E-01 2.86143E-31
3.20816E-01 2.44272E-31
3.24896E-01 2.08899E-31
3.28990E-01 1.79236E-31
3.33097E-01 1.54565E-31
3.37216E-01 1.34235E-31
3.41348E-01 1.17656E-31
3.45492E-01 1.04297E-31
3.49647E-01 9.36825E-32
3.53814E-01 8.53873E-32
3.57992E-01 7.90345E-32
3.62181E-01 7.42904E-32
3.66381E-01 7.08620E-32
3.70590E-01 6.84930E-32
3.74810E-01 6.69609E-32
3.79039E-01 6.60734E-32
3.83277E-01 6.56661E-32
3.87524E-01 6.55993E-32
3.91780E-01 6.57556E-32
3.96044E-01 6.60373E-32
4.00316E-01 6.63643E-32
4.04596E-01 6.66722E-32
4.08882E-01 6.69099E-32
4.13176E-01 6.70383E-32
4.17476E-01 6.70284E-32
4.21783E-01 6.68602E-32
4.26095E-01 6.65208E-32
4.30413E-01 6.60041E-32
4.34737E-01 6.53088E-32
4.39065E-01 6.44381E-32
4.43398E-01 6.33988E-32
4.47736E-01 6.22000E-32
4.52077E-01 6.08533E-32
4.56422E-01 5.93717E-32
4.60770E-01 5.77693E-32
4.65122E-01 5.60607E-32
4.69476E-01 5.42610E-32
4.73832E-01 5.23850E-32
4.78190E-01 5.04475E-32
4.82550E-01 4.84628E-32
4.86912E-01 4.64446E-32
4.91274E-01 4.44059E-32
4.95637E-01 4.23588E-32
5.00000E-01 4.03145E-32
5.04363E-01 3.82834E-32
5.08726E-01 3.62750E-32
5.13088E-01 3.42976E-32
5.17450E-01 3.23588E-32
5.21810E-01 3.04652E-32
5.26168E-01 2.86224E-32
5.30524E-01 2.68354E-32
5.34878E-01 2.51082E-32
5.39230E-01 2.34439E-32
5.43578E-01 2.18453E-32
5.47923E-01 2.03142E-32
5.52264E-01 1.88519E-32
5.56602E-01 1.74591E-32
5.60935E-01 1.61360E-32
5.65263E-01 1.48824E-32
5.69587E-01 1.36977E-32
5.73905E-01 1.25809E-32
5.78217E-01 1.15307E-32
5.82524E-01 1.05456E-32
5.86824E-01 9.62361E-33
5.91118E-01 8.76290E-33
5.95404E-01 7.96129E-33
5.99684E-01 7.21651E-33
6.03956E-01 6.52620E-33
6.08220E-01 5.88793E-33
6.12476E-01 5.29923E-33
6.16723E-01 4.75760E-33
6.20961E-01 4.26055E-33
6.25190E-01 3.80560E-33
6.29410E-01 3.39028E-33
6.33619E-01 3.01221E-33
6.37819E-01 2.66901E-33
6.42008E-01 2.35840E-33
6.46186E-01 2.07815E-33
6.50353E-01 1.82613E-33
6.54508E-01 1.60027E-33
6.58652E-01 1.39859E-33
6.62784E-01 1.21921E-33
6.66903E-01 1.06033E-33
6.71010E-01 9.20252E-34
6.75104E-01 7.97362E-34
6.79184E-01 6.90140E-34
6.83251E-01 5.97155E-34
6.87303E-01 5.17067E-34
6.91342E-01 4.48620E-34
6.95366E-01 3.90643E-34
6.99375E-01 3.42048E-34
7.03368E-01 3.01824E-34
7.07347E-01 2.69036E-34
7.11309E-01 2.42821E-34
7.15256E-01 2.22385E-34
7.19186E-01 2.07002E-34
7.23099E-01 1.96003E-34
7.26995E-01 1.88782E-34
7.30874E-01 1.84788E-34
7.34736E-01 1.83519E-34
7.38579E-01 1.84523E-34
7.42405E-01 1.87398E-34
7.46212E-01 1.91775E-34
7.50000E-01 1.97331E-34
7.53769E-01 2.03779E-34
7.57519E-01 2.10865E-34
7.61249E-01 2.18365E-34
7.64960E-01 2.26083E-34
7.68650E-01 2.33851E-34
7.72320E-01 2.41525E-34
7.75968E-01 2.48981E-34
7.79596E-01 2.56115E-34
7.83203E-01 2.62842E-34
7.86788E-01 2.69091E-34
7.90351E-01 2.74808E-34
7.93893E-01 2.79950E-34
7.97411E-01 2.84485E-34
8.00908E-01 2.88393E-34
8.04381E-01 2.91662E-34
8.07831E-01 2.94287E-34
8.11257E-01 2.96272E-34
8.14660E-01 2.97622E-34
8.18039E-01 2.98354E-34
8.21394E-01 2.98484E-34
8.24724E-01 2.98032E-34
8.28030E-01 2.97023E-34
8.31310E-01 2.95483E-34
8.34565E-01 2.93439E-34
8.37795E-01 2.90922E-34
8.40999E-01 2.87962E-34
8.44177E-01 2.84588E-34
8.47329E-01 2.80832E-34
8.50455E-01 2.76726E-34
8.53553E-01 2.72298E-34
8.56625E-01 2.67581E-34
8.59670E-01 2.62604E-34
8.62687E-01 2.57395E-34
8.65677E-01 2.51981E-34
8.68639E-01 2.46391E-34
8.71572E-01 2.40649E-34
8.74478E-01 2.34781E-34
8.77355E-01 2.28809E-34
8.80203E-01 2.22757E-34
8.83022E-01 2.16643E-34
8.85812E-01 2.10489E-34
8.88573E-01 2.04313E-34
8.91304E-01 1.98132E-34
8.94005E-01 1.91961E-34
8.96677E-01 1.85815E-34
8.99318E-01 1.79709E-34
9.01928E-01 1.73654E-34
9.04508E-01 1.67663E-34
9.07058E-01 1.61743E-34
9.09576E-01 1.55906E-34
9.12063E-01 1.50160E-34
9.14519E-01 1.44512E-34
9.16943E-01 1.38968E-34
9.19335E-01 1.33534E-34
9.21696E-01 1.28216E-34
9.24024E-01 1.23016E-34
9.26320E-01 1.17940E-34
9.28584E-01 1.12989E-34
9.30815E-01 1.08166E-34
9.33013E-01 1.03472E-34
9.35178E-01 9.89100E-35
9.37310E-01 9.44788E-35
9.39409E-01 9.01796E-35
9.41474E-01 8.60118E-35
9.43505E-01 8.19755E-35
9.45503E-01 7.80698E-35
9.47467E-01 7.42931E-35
9.49397E-01 7.06444E-35
9.51293E-01 6.71226E-35
9.53154E-01 6.37251E-35
9.54981E-01 6.04507E-35
9.56773E-01 5.72962E-35
9.58530E-01 5.42604E-35
9.60252E-01 5.13402E-35
9.61940E-01 4.85335E-35
9.63592E-01 4.58373E-35
9.65209E-01 4.32496E-35
9.66790E-01 4.07667E-35
9.68336E-01 3.83867E-35
9.69846E-01 3.61066E-35
9.71321E-01 3.39238E-35
9.72759E-01 3.18350E-35
9.74162E-01 2.98381E-35
9.75528E-01 2.79299E-35
9.76858E-01 2.61077E-35
9.78152E-01 2.43690E-35
9.79410E-01 2.27112E-35
9.80631E-01 2.11315E-35
9.81815E-01 1.96275E-35
9.82963E-01 1.81967E-35
9.84074E-01 1.68367E-35
9.85148E-01 1.55451E-35
9.86185E-01 1.43196E-35
9.87185E-01 1.31581E-35
9.88148E-01 1.20581E-35
9.89074E-01 1.10180E-35
9.89962E-01 1.00355E-35
9.90814E-01 9.10899E-36
9.91627E-01 8.23623E-36
9.92404E-01 7.41583E-36
9.93143E-01 6.64587E-36
9.93844E-01 5.92499E-36
9.94508E-01 5.25153E-36
9.95134E-01 4.62407E-36
9.95722E-01 4.04128E-36
9.96273E-01 3.50197E-36
9.96786E-01 3.00488E-36
9.97261E-01 2.54905E-36
9.97698E-01 2.13322E-36
9.98097E-01 1.75676E-36
9.98459E-01 1.41872E-36
9.98782E-01 1.11834E-36
9.99067E-01 8.54734E-37
9.99315E-01 6.27646E-37
9.99524E-01 4.36270E-37
9.99695E-01 2.80365E-37
9.99829E-01 1.59370E-37
9.99924E-01 7.32345E-38
9.99981E-01 2.15856E-38
1.00000E+00 4.39614E-39
