 #
 # Subroutine ELSEPA. Elastic scattering of electrons and positrons
 #                    by neutral atoms and positive ions
 #
 # Projectile: positron
 # Kinetic energy = 1.25000E+08 eV = 4.59367E+06 a.u.
 #
 # WARNING: High-energy factorization with free-atom DF screening.
 #          Absorption, polarization and exchange corrections are
 #          switched off.
 #          Phase shifts are calculated for the bare nucleus.
 #          Scattering amplitudes are not evaluated.
 #
 # Element: Te,  Z =  52,  atomic weight = 1.27600E+02 g/mol
 #
 # Nuclear model: Fermi distribution
 #                Average radius = 5.38684E-13 cm
 #                Skin thickness = 5.46000E-14 cm
 #
 # Number of electrons = 52
 #
 # Total elastic cross section = 5.52133E-18 cm**2 = 1.97170E-01 a0**2
 # 1st transport cross section = 3.29424E-25 cm**2 = 1.17640E-08 a0**2
 # 2nd transport cross section = 9.82181E-25 cm**2 = 3.50743E-08 a0**2
 #
 #
 # Differential cross section:                       MU=(1-COS(THETA))/2
 #
 #  THETA        MU          DCS          DCS        Sherman      error
 #  (deg)                 (cm**2/sr)   (a0**2/sr)    function
 #----------------------------------------------------------------------
0.00000E+00 7.09623E-10
7.61557E-13 7.07316E-10
1.18994E-12 7.06026E-10
1.71346E-12 7.04456E-10
2.33225E-12 7.02607E-10
3.04617E-12 7.00483E-10
3.85530E-12 6.98089E-10
4.75964E-12 6.95428E-10
5.75917E-12 6.92505E-10
6.85391E-12 6.89326E-10
8.04379E-12 6.85895E-10
9.32893E-12 6.82220E-10
1.07092E-11 6.78306E-10
1.21847E-11 6.74161E-10
1.37554E-11 6.69791E-10
1.54213E-11 6.65167E-10
1.71823E-11 6.60324E-10
1.90386E-11 6.55315E-10
2.09900E-11 6.50152E-10
2.30367E-11 6.44820E-10
2.51785E-11 6.39186E-10
2.74156E-11 6.33432E-10
2.97478E-11 6.27569E-10
3.21752E-11 6.21609E-10
3.46979E-11 6.15372E-10
3.73157E-11 6.09003E-10
4.00286E-11 6.02571E-10
4.28368E-11 5.96087E-10
4.57402E-11 5.89446E-10
4.87388E-11 5.82597E-10
5.18325E-11 5.75730E-10
5.50215E-11 5.68853E-10
5.83057E-11 5.61969E-10
6.16850E-11 5.54777E-10
6.51595E-11 5.47606E-10
6.87293E-11 5.40465E-10
7.23943E-11 5.33361E-10
7.61544E-11 5.26076E-10
1.18991E-10 4.53303E-10
1.71347E-10 3.84040E-10
2.33223E-10 3.21870E-10
3.04617E-10 2.68083E-10
3.85531E-10 2.23058E-10
4.75965E-10 1.86006E-10
5.75917E-10 1.55760E-10
6.85389E-10 1.31190E-10
8.04380E-10 1.11248E-10
9.32891E-10 9.50004E-11
1.07092E-09 8.16662E-11
1.21847E-09 7.06687E-11
1.37554E-09 6.15264E-11
1.54213E-09 5.36162E-11
1.71823E-09 4.69153E-11
1.90386E-09 4.14213E-11
2.09900E-09 3.68760E-11
2.30367E-09 3.29984E-11
2.51785E-09 2.92767E-11
2.74156E-09 2.61515E-11
2.97478E-09 2.35084E-11
3.21752E-09 2.12579E-11
3.46978E-09 1.91076E-11
3.73156E-09 1.72046E-11
4.00286E-09 1.55673E-11
4.28368E-09 1.41513E-11
4.57402E-09 1.28640E-11
4.87388E-09 1.16636E-11
5.18326E-09 1.06163E-11
5.50215E-09 9.69864E-12
5.83057E-09 8.88970E-12
6.16850E-09 8.11653E-12
6.51596E-09 7.43370E-12
6.87293E-09 6.82855E-12
7.23942E-09 6.29046E-12
7.61544E-09 5.79311E-12
1.18991E-08 2.77421E-12
1.71347E-08 1.51856E-12
2.33223E-08 9.13795E-13
3.04617E-08 5.84655E-13
3.85531E-08 3.90603E-13
4.75965E-08 2.69501E-13
5.75917E-08 1.91178E-13
6.85389E-08 1.38943E-13
8.04380E-08 1.03211E-13
9.32891E-08 7.82255E-14
1.07092E-07 6.03824E-14
1.21847E-07 4.73778E-14
1.37554E-07 3.77122E-14
1.54213E-07 3.03933E-14
1.71823E-07 2.47941E-14
1.90386E-07 2.04264E-14
2.09900E-07 1.69952E-14
2.30367E-07 1.42446E-14
2.51785E-07 1.20368E-14
2.74156E-07 1.02378E-14
2.97478E-07 8.76332E-15
3.21752E-07 7.54507E-15
3.46978E-07 6.52921E-15
3.73156E-07 5.68037E-15
4.00286E-07 4.96217E-15
4.28368E-07 4.35495E-15
4.57402E-07 3.83677E-15
4.87388E-07 3.39331E-15
5.18325E-07 3.01200E-15
5.50215E-07 2.68220E-15
5.83057E-07 2.39658E-15
6.16850E-07 2.14738E-15
6.51596E-07 1.92993E-15
6.87293E-07 1.73909E-15
7.23942E-07 1.57124E-15
7.61543E-07 1.42314E-15
1.18991E-06 5.92688E-16
1.71347E-06 2.88969E-16
2.33223E-06 1.57259E-16
3.04617E-06 9.27732E-17
3.85531E-06 5.82129E-17
4.75964E-06 3.83487E-17
5.75916E-06 2.62778E-17
6.85388E-06 1.86022E-17
8.04378E-06 1.35340E-17
9.32888E-06 1.00791E-17
1.07092E-05 7.65886E-18
1.21846E-05 5.92288E-18
1.37553E-05 4.65170E-18
1.54212E-05 3.70371E-18
1.71822E-05 2.98521E-18
1.90385E-05 2.43198E-18
2.09899E-05 2.00232E-18
2.30365E-05 1.66328E-18
2.51783E-05 1.39278E-18
2.74153E-05 1.17489E-18
2.97475E-05 9.97864E-19
3.21749E-05 8.52931E-19
3.46974E-05 7.33405E-19
3.73152E-05 6.34143E-19
4.00281E-05 5.51153E-19
4.28362E-05 4.81317E-19
4.57395E-05 4.22191E-19
4.87380E-05 3.71851E-19
5.18317E-05 3.28774E-19
5.50205E-05 2.91740E-19
5.83045E-05 2.59769E-19
6.16838E-05 2.32058E-19
6.51582E-05 2.07949E-19
6.87277E-05 1.86895E-19
7.23925E-05 1.68441E-19
7.61524E-05 1.52288E-19
9.21439E-05 1.03979E-19
1.09658E-04 7.33831E-20
1.28695E-04 5.32564E-20
1.49255E-04 3.95738E-20
1.71338E-04 3.00156E-20
1.94942E-04 2.31740E-20
2.20070E-04 1.81740E-20
2.46720E-04 1.44518E-20
2.74892E-04 1.16345E-20
3.04586E-04 9.47108E-21
3.35803E-04 7.78731E-21
3.68542E-04 6.46127E-21
4.02802E-04 5.40551E-21
4.38585E-04 4.55657E-21
4.75889E-04 3.86773E-21
5.14715E-04 3.30406E-21
5.55063E-04 2.83929E-21
5.96931E-04 2.45331E-21
6.40321E-04 2.13064E-21
6.85233E-04 1.85921E-21
7.31665E-04 1.62957E-21
7.79618E-04 1.43424E-21
8.29092E-04 1.26726E-21
8.80086E-04 1.12383E-21
9.32601E-04 1.00007E-21
9.86636E-04 8.92852E-22
1.04219E-03 7.99583E-22
1.09927E-03 7.18144E-22
1.15786E-03 6.46784E-22
1.21797E-03 5.84043E-22
1.27961E-03 5.28702E-22
1.34276E-03 4.79740E-22
1.40743E-03 4.36293E-22
1.47362E-03 3.97636E-22
1.54133E-03 3.63150E-22
1.61056E-03 3.32306E-22
1.68131E-03 3.04654E-22
1.75357E-03 2.79806E-22
1.82735E-03 2.57429E-22
1.90265E-03 2.37233E-22
1.97947E-03 2.18968E-22
2.05780E-03 2.02419E-22
2.13765E-03 1.87395E-22
2.21902E-03 1.73731E-22
2.30190E-03 1.61283E-22
2.38630E-03 1.49923E-22
2.47222E-03 1.39539E-22
2.55965E-03 1.30032E-22
2.64859E-03 1.21316E-22
2.73905E-03 1.13313E-22
2.83103E-03 1.05954E-22
2.92452E-03 9.91781E-23
3.01952E-03 9.29311E-23
3.11604E-03 8.71642E-23
3.21407E-03 8.18339E-23
3.31362E-03 7.69014E-23
3.41468E-03 7.23315E-23
3.51725E-03 6.80930E-23
3.62133E-03 6.41575E-23
3.72692E-03 6.04994E-23
3.83403E-03 5.70957E-23
3.94265E-03 5.39255E-23
4.05278E-03 5.09699E-23
4.16442E-03 4.82119E-23
4.27757E-03 4.56358E-23
4.39223E-03 4.32275E-23
4.50840E-03 4.09740E-23
4.62608E-03 3.88638E-23
4.74527E-03 3.68859E-23
4.86597E-03 3.50306E-23
4.98817E-03 3.32890E-23
5.11188E-03 3.16529E-23
5.23711E-03 3.01146E-23
5.36383E-03 2.86673E-23
5.49207E-03 2.73047E-23
5.62181E-03 2.60209E-23
5.75306E-03 2.48105E-23
5.88581E-03 2.36686E-23
6.02007E-03 2.25906E-23
6.15583E-03 2.15723E-23
6.29310E-03 2.06097E-23
6.43187E-03 1.96994E-23
6.57214E-03 1.88379E-23
6.71392E-03 1.80221E-23
6.85720E-03 1.72493E-23
7.00198E-03 1.65166E-23
7.14827E-03 1.58217E-23
7.29605E-03 1.51623E-23
7.44534E-03 1.45362E-23
7.59612E-03 1.39415E-23
7.97965E-03 1.25799E-23
8.37255E-03 1.13774E-23
8.77480E-03 1.03122E-23
9.18641E-03 9.36619E-24
9.60736E-03 8.52379E-24
1.00376E-02 7.77181E-24
1.04773E-02 7.09894E-24
1.09262E-02 6.49551E-24
1.13844E-02 5.95316E-24
1.18520E-02 5.46472E-24
1.23288E-02 5.02393E-24
1.28150E-02 4.62540E-24
1.33104E-02 4.26441E-24
1.38150E-02 3.93684E-24
1.43290E-02 3.63911E-24
1.48521E-02 3.36804E-24
1.53845E-02 3.12087E-24
1.59262E-02 2.89514E-24
1.64770E-02 2.68870E-24
1.70371E-02 2.49963E-24
1.76063E-02 2.32623E-24
1.81848E-02 2.16701E-24
1.87724E-02 2.02060E-24
1.93692E-02 1.88582E-24
1.99751E-02 1.76159E-24
2.05901E-02 1.64697E-24
2.12143E-02 1.54108E-24
2.18476E-02 1.44316E-24
2.24900E-02 1.35251E-24
2.31415E-02 1.26851E-24
2.38021E-02 1.19060E-24
2.44717E-02 1.11826E-24
2.51504E-02 1.05104E-24
2.58382E-02 9.88514E-25
2.65349E-02 9.30307E-25
2.72407E-02 8.76075E-25
2.79555E-02 8.25504E-25
2.86793E-02 7.78311E-25
2.94120E-02 7.34236E-25
3.01537E-02 6.93041E-25
3.09043E-02 6.54510E-25
3.16639E-02 6.18446E-25
3.24324E-02 5.84667E-25
3.32098E-02 5.53006E-25
3.39961E-02 5.23313E-25
3.47912E-02 4.95445E-25
3.55952E-02 4.69276E-25
3.64081E-02 4.44686E-25
3.72297E-02 4.21567E-25
3.80602E-02 3.99818E-25
3.88995E-02 3.79346E-25
3.97476E-02 3.60066E-25
4.06044E-02 3.41898E-25
4.14700E-02 3.24771E-25
4.23443E-02 3.08615E-25
4.32273E-02 2.93368E-25
4.41190E-02 2.78972E-25
4.50194E-02 2.65373E-25
4.59284E-02 2.52521E-25
4.68461E-02 2.40370E-25
4.87074E-02 2.17999E-25
5.06030E-02 1.97948E-25
5.25328E-02 1.79948E-25
5.44967E-02 1.63764E-25
5.64946E-02 1.49191E-25
5.85262E-02 1.36050E-25
6.05914E-02 1.24184E-25
6.26901E-02 1.13455E-25
6.48222E-02 1.03743E-25
6.69873E-02 9.49403E-26
6.91854E-02 8.69530E-26
7.14163E-02 7.96975E-26
7.36799E-02 7.30998E-26
7.59760E-02 6.70942E-26
7.83043E-02 6.16224E-26
8.06647E-02 5.66322E-26
8.30571E-02 5.20773E-26
8.54812E-02 4.79161E-26
8.79369E-02 4.41114E-26
9.04240E-02 4.06301E-26
9.29422E-02 3.74421E-26
9.54915E-02 3.45208E-26
9.80716E-02 3.18418E-26
1.00682E-01 2.93836E-26
1.03323E-01 2.71263E-26
1.05995E-01 2.50525E-26
1.08696E-01 2.31459E-26
1.11427E-01 2.13921E-26
1.14188E-01 1.97781E-26
1.16978E-01 1.82918E-26
1.19797E-01 1.69226E-26
1.22645E-01 1.56605E-26
1.25522E-01 1.44966E-26
1.28428E-01 1.34229E-26
1.31361E-01 1.24320E-26
1.34323E-01 1.15170E-26
1.37313E-01 1.06718E-26
1.40330E-01 9.89085E-27
1.43375E-01 9.16898E-27
1.46447E-01 8.50148E-27
1.49545E-01 7.88406E-27
1.52671E-01 7.31279E-27
1.55823E-01 6.78405E-27
1.59001E-01 6.29454E-27
1.62205E-01 5.84123E-27
1.65435E-01 5.42134E-27
1.68690E-01 5.03229E-27
1.71970E-01 4.67174E-27
1.75276E-01 4.33753E-27
1.78606E-01 4.02767E-27
1.81961E-01 3.74032E-27
1.85340E-01 3.47380E-27
1.88743E-01 3.22655E-27
1.92169E-01 2.99715E-27
1.95619E-01 2.78426E-27
1.99092E-01 2.58666E-27
2.02589E-01 2.40324E-27
2.06107E-01 2.23295E-27
2.09649E-01 2.07484E-27
2.13212E-01 1.92800E-27
2.16797E-01 1.79163E-27
2.20404E-01 1.66496E-27
2.24032E-01 1.54730E-27
2.27680E-01 1.43799E-27
2.31350E-01 1.33643E-27
2.35040E-01 1.24206E-27
2.38751E-01 1.15437E-27
2.42481E-01 1.07288E-27
2.46231E-01 9.97152E-28
2.50000E-01 9.26769E-28
2.53788E-01 8.61353E-28
2.57595E-01 8.00550E-28
2.61421E-01 7.44034E-28
2.65264E-01 6.91501E-28
2.69126E-01 6.42669E-28
2.73005E-01 5.97276E-28
2.76901E-01 5.55079E-28
2.80814E-01 5.15853E-28
2.84744E-01 4.79389E-28
2.88691E-01 4.45493E-28
2.92653E-01 4.13983E-28
2.96632E-01 3.84691E-28
3.00625E-01 3.57463E-28
3.04634E-01 3.32152E-28
3.08658E-01 3.08625E-28
3.12697E-01 2.86757E-28
3.16749E-01 2.66430E-28
3.20816E-01 2.47537E-28
3.24896E-01 2.29977E-28
3.28990E-01 2.13657E-28
3.33097E-01 1.98489E-28
3.37216E-01 1.84394E-28
3.41348E-01 1.71295E-28
3.45492E-01 1.59124E-28
3.49647E-01 1.47814E-28
3.53814E-01 1.37306E-28
3.57992E-01 1.27543E-28
3.62181E-01 1.18472E-28
3.66381E-01 1.10046E-28
3.70590E-01 1.02219E-28
3.74810E-01 9.49481E-29
3.79039E-01 8.81951E-29
3.83277E-01 8.19233E-29
3.87524E-01 7.60986E-29
3.91780E-01 7.06897E-29
3.96044E-01 6.56671E-29
4.00316E-01 6.10035E-29
4.04596E-01 5.66737E-29
4.08882E-01 5.26539E-29
4.13176E-01 4.89223E-29
4.17476E-01 4.54583E-29
4.21783E-01 4.22431E-29
4.26095E-01 3.92589E-29
4.30413E-01 3.64892E-29
4.34737E-01 3.39190E-29
4.39065E-01 3.15338E-29
4.43398E-01 2.93205E-29
4.47736E-01 2.72669E-29
4.52077E-01 2.53615E-29
4.56422E-01 2.35936E-29
4.60770E-01 2.19535E-29
4.65122E-01 2.04320E-29
4.69476E-01 1.90205E-29
4.73832E-01 1.77111E-29
4.78190E-01 1.64965E-29
4.82550E-01 1.53697E-29
4.86912E-01 1.43246E-29
4.91274E-01 1.33551E-29
4.95637E-01 1.24557E-29
5.00000E-01 1.16215E-29
5.04363E-01 1.08476E-29
5.08726E-01 1.01297E-29
5.13088E-01 9.46360E-30
5.17450E-01 8.84563E-30
5.21810E-01 8.27226E-30
5.26168E-01 7.74020E-30
5.30524E-01 7.24644E-30
5.34878E-01 6.78816E-30
5.39230E-01 6.36276E-30
5.43578E-01 5.96782E-30
5.47923E-01 5.60110E-30
5.52264E-01 5.26053E-30
5.56602E-01 4.94416E-30
5.60935E-01 4.65022E-30
5.65263E-01 4.37704E-30
5.69587E-01 4.12309E-30
5.73905E-01 3.88695E-30
5.78217E-01 3.66729E-30
5.82524E-01 3.46290E-30
5.86824E-01 3.27264E-30
5.91118E-01 3.09546E-30
5.95404E-01 2.93040E-30
5.99684E-01 2.77654E-30
6.03956E-01 2.63307E-30
6.08220E-01 2.49920E-30
6.12476E-01 2.37423E-30
6.16723E-01 2.25750E-30
6.20961E-01 2.14839E-30
6.25190E-01 2.04634E-30
6.29410E-01 1.95082E-30
6.33619E-01 1.86136E-30
6.37819E-01 1.77751E-30
6.42008E-01 1.69885E-30
6.46186E-01 1.62500E-30
6.50353E-01 1.55562E-30
6.54508E-01 1.49036E-30
6.58652E-01 1.42894E-30
6.62784E-01 1.37107E-30
6.66903E-01 1.31650E-30
6.71010E-01 1.26498E-30
6.75104E-01 1.21630E-30
6.79184E-01 1.17026E-30
6.83251E-01 1.12667E-30
6.87303E-01 1.08536E-30
6.91342E-01 1.04616E-30
6.95366E-01 1.00893E-30
6.99375E-01 9.73541E-31
7.03368E-01 9.39855E-31
7.07347E-01 9.07762E-31
7.11309E-01 8.77155E-31
7.15256E-01 8.47935E-31
7.19186E-01 8.20011E-31
7.23099E-01 7.93299E-31
7.26995E-01 7.67721E-31
7.30874E-01 7.43206E-31
7.34736E-01 7.19687E-31
7.38579E-01 6.97104E-31
7.42405E-01 6.75400E-31
7.46212E-01 6.54522E-31
7.50000E-01 6.34424E-31
7.53769E-01 6.15059E-31
7.57519E-01 5.96387E-31
7.61249E-01 5.78370E-31
7.64960E-01 5.60973E-31
7.68650E-01 5.44163E-31
7.72320E-01 5.27909E-31
7.75968E-01 5.12184E-31
7.79596E-01 4.96962E-31
7.83203E-01 4.82218E-31
7.86788E-01 4.67931E-31
7.90351E-01 4.54079E-31
7.93893E-01 4.40644E-31
7.97411E-01 4.27606E-31
8.00908E-01 4.14950E-31
8.04381E-01 4.02659E-31
8.07831E-01 3.90720E-31
8.11257E-01 3.79118E-31
8.14660E-01 3.67840E-31
8.18039E-01 3.56876E-31
8.21394E-01 3.46212E-31
8.24724E-01 3.35840E-31
8.28030E-01 3.25748E-31
8.31310E-01 3.15928E-31
8.34565E-01 3.06371E-31
8.37795E-01 2.97068E-31
8.40999E-01 2.88012E-31
8.44177E-01 2.79194E-31
8.47329E-01 2.70609E-31
8.50455E-01 2.62249E-31
8.53553E-01 2.54108E-31
8.56625E-01 2.46179E-31
8.59670E-01 2.38457E-31
8.62687E-01 2.30936E-31
8.65677E-01 2.23611E-31
8.68639E-01 2.16477E-31
8.71572E-01 2.09529E-31
8.74478E-01 2.02762E-31
8.77355E-01 1.96171E-31
8.80203E-01 1.89753E-31
8.83022E-01 1.83502E-31
8.85812E-01 1.77415E-31
8.88573E-01 1.71488E-31
8.91304E-01 1.65716E-31
8.94005E-01 1.60097E-31
8.96677E-01 1.54627E-31
8.99318E-01 1.49302E-31
9.01928E-01 1.44118E-31
9.04508E-01 1.39073E-31
9.07058E-01 1.34163E-31
9.09576E-01 1.29385E-31
9.12063E-01 1.24736E-31
9.14519E-01 1.20214E-31
9.16943E-01 1.15814E-31
9.19335E-01 1.11535E-31
9.21696E-01 1.07373E-31
9.24024E-01 1.03327E-31
9.26320E-01 9.93924E-32
9.28584E-01 9.55678E-32
9.30815E-01 9.18505E-32
9.33013E-01 8.82381E-32
9.35178E-01 8.47281E-32
9.37310E-01 8.13183E-32
9.39409E-01 7.80064E-32
9.41474E-01 7.47902E-32
9.43505E-01 7.16676E-32
9.45503E-01 6.86364E-32
9.47467E-01 6.56946E-32
9.49397E-01 6.28403E-32
9.51293E-01 6.00714E-32
9.53154E-01 5.73860E-32
9.54981E-01 5.47823E-32
9.56773E-01 5.22586E-32
9.58530E-01 4.98130E-32
9.60252E-01 4.74438E-32
9.61940E-01 4.51493E-32
9.63592E-01 4.29280E-32
9.65209E-01 4.07783E-32
9.66790E-01 3.86985E-32
9.68336E-01 3.66873E-32
9.69846E-01 3.47431E-32
9.71321E-01 3.28646E-32
9.72759E-01 3.10503E-32
9.74162E-01 2.92990E-32
9.75528E-01 2.76093E-32
9.76858E-01 2.59801E-32
9.78152E-01 2.44100E-32
9.79410E-01 2.28980E-32
9.80631E-01 2.14428E-32
9.81815E-01 2.00435E-32
9.82963E-01 1.86989E-32
9.84074E-01 1.74080E-32
9.85148E-01 1.61698E-32
9.86185E-01 1.49834E-32
9.87185E-01 1.38480E-32
9.88148E-01 1.27624E-32
9.89074E-01 1.17261E-32
9.89962E-01 1.07381E-32
9.90814E-01 9.79774E-33
9.91627E-01 8.90421E-33
9.92404E-01 8.05685E-33
9.93143E-01 7.25498E-33
9.93844E-01 6.49798E-33
9.94508E-01 5.78525E-33
9.95134E-01 5.11622E-33
9.95722E-01 4.49037E-33
9.96273E-01 3.90721E-33
9.96786E-01 3.36627E-33
9.97261E-01 2.86711E-33
9.97698E-01 2.40934E-33
9.98097E-01 1.99260E-33
9.98459E-01 1.61655E-33
9.98782E-01 1.28089E-33
9.99067E-01 9.85347E-34
9.99315E-01 7.29693E-34
9.99524E-01 5.13717E-34
9.99695E-01 3.37242E-34
9.99829E-01 2.00135E-34
9.99924E-01 1.02278E-34
9.99981E-01 4.35965E-35
1.00000E+00 2.40396E-35
