 #
 # Subroutine ELSEPA. Elastic scattering of electrons and positrons
 #                    by neutral atoms and positive ions
 #
 # Projectile: positron
 # Kinetic energy = 1.50000E+06 eV = 5.51240E+04 a.u.
 #
 # WARNING: High-energy factorization with free-atom DF screening.
 #          Absorption, polarization and exchange corrections are
 #          switched off.
 #          Phase shifts are calculated for the bare nucleus.
 #          Scattering amplitudes are not evaluated.
 #
 # Element: Si,  Z =  14,  atomic weight = 2.80855E+01 g/mol
 #
 # Nuclear model: Fermi distribution
 #                Average radius = 3.25245E-13 cm
 #                Skin thickness = 5.46000E-14 cm
 #
 # Number of electrons = 14
 #
 # Total elastic cross section = 9.48622E-19 cm**2 = 3.38759E-02 a0**2
 # 1st transport cross section = 6.77503E-23 cm**2 = 2.41941E-06 a0**2
 # 2nd transport cross section = 1.92667E-22 cm**2 = 6.88028E-06 a0**2
 #
 #
 # Differential cross section:                       MU=(1-COS(THETA))/2
 #
 #  THETA        MU          DCS          DCS        Sherman      error
 #  (deg)                 (cm**2/sr)   (a0**2/sr)    function
 #----------------------------------------------------------------------
0.00000E+00 5.14629E-14
7.61557E-13 5.14628E-14
1.18994E-12 5.14628E-14
1.71346E-12 5.14627E-14
2.33225E-12 5.14627E-14
3.04617E-12 5.14626E-14
3.85530E-12 5.14625E-14
4.75964E-12 5.14625E-14
5.75917E-12 5.14624E-14
6.85391E-12 5.14623E-14
8.04379E-12 5.14622E-14
9.32893E-12 5.14621E-14
1.07092E-11 5.14620E-14
1.21847E-11 5.14619E-14
1.37554E-11 5.14617E-14
1.54213E-11 5.14616E-14
1.71823E-11 5.14615E-14
1.90386E-11 5.14613E-14
2.09900E-11 5.14612E-14
2.30367E-11 5.14610E-14
2.51785E-11 5.14609E-14
2.74156E-11 5.14607E-14
2.97478E-11 5.14605E-14
3.21752E-11 5.14603E-14
3.46979E-11 5.14601E-14
3.73157E-11 5.14599E-14
4.00286E-11 5.14597E-14
4.28368E-11 5.14595E-14
4.57402E-11 5.14593E-14
4.87388E-11 5.14590E-14
5.18325E-11 5.14588E-14
5.50215E-11 5.14586E-14
5.83057E-11 5.14583E-14
6.16850E-11 5.14580E-14
6.51595E-11 5.14578E-14
6.87293E-11 5.14575E-14
7.23943E-11 5.14572E-14
7.61544E-11 5.14569E-14
1.18991E-10 5.14537E-14
1.71347E-10 5.14497E-14
2.33223E-10 5.14451E-14
3.04617E-10 5.14397E-14
3.85531E-10 5.14336E-14
4.75965E-10 5.14269E-14
5.75917E-10 5.14194E-14
6.85389E-10 5.14112E-14
8.04380E-10 5.14023E-14
9.32891E-10 5.13927E-14
1.07092E-09 5.13825E-14
1.21847E-09 5.13715E-14
1.37554E-09 5.13598E-14
1.54213E-09 5.13474E-14
1.71823E-09 5.13343E-14
1.90386E-09 5.13205E-14
2.09900E-09 5.13061E-14
2.30367E-09 5.12909E-14
2.51785E-09 5.12750E-14
2.74156E-09 5.12585E-14
2.97478E-09 5.12412E-14
3.21752E-09 5.12232E-14
3.46978E-09 5.12046E-14
3.73156E-09 5.11853E-14
4.00286E-09 5.11653E-14
4.28368E-09 5.11445E-14
4.57402E-09 5.11231E-14
4.87388E-09 5.11010E-14
5.18326E-09 5.10783E-14
5.50215E-09 5.10548E-14
5.83057E-09 5.10307E-14
6.16850E-09 5.10059E-14
6.51596E-09 5.09804E-14
6.87293E-09 5.09542E-14
7.23942E-09 5.09274E-14
7.61544E-09 5.08998E-14
1.18991E-08 5.05879E-14
1.71347E-08 5.02105E-14
2.33223E-08 4.97697E-14
3.04617E-08 4.92682E-14
3.85531E-08 4.87082E-14
4.75965E-08 4.80933E-14
5.75917E-08 4.74267E-14
6.85389E-08 4.67111E-14
8.04380E-08 4.59511E-14
9.32891E-08 4.51500E-14
1.07092E-07 4.43111E-14
1.21847E-07 4.34395E-14
1.37554E-07 4.25377E-14
1.54213E-07 4.16102E-14
1.71823E-07 4.06616E-14
1.90386E-07 3.96936E-14
2.09900E-07 3.87118E-14
2.30367E-07 3.77193E-14
2.51785E-07 3.67183E-14
2.74156E-07 3.57138E-14
2.97478E-07 3.47076E-14
3.21752E-07 3.37027E-14
3.46978E-07 3.27030E-14
3.73156E-07 3.17089E-14
4.00286E-07 3.07242E-14
4.28368E-07 2.97235E-14
4.57402E-07 2.87373E-14
4.87388E-07 2.77778E-14
5.18325E-07 2.68459E-14
5.50215E-07 2.59420E-14
5.83057E-07 2.50664E-14
6.16850E-07 2.42191E-14
6.51596E-07 2.33712E-14
6.87293E-07 2.25177E-14
7.23942E-07 2.16955E-14
7.61543E-07 2.09041E-14
1.18991E-06 1.42979E-14
1.71347E-06 9.70939E-15
2.33223E-06 6.66213E-15
3.04617E-06 4.67041E-15
3.85531E-06 3.35982E-15
4.75964E-06 2.48571E-15
5.75916E-06 1.88970E-15
6.85388E-06 1.47320E-15
8.04378E-06 1.17418E-15
9.32888E-06 9.53846E-16
1.07092E-05 7.87303E-16
1.21846E-05 6.58712E-16
1.37553E-05 5.57143E-16
1.54212E-05 4.75570E-16
1.71822E-05 4.09139E-16
1.90385E-05 3.54019E-16
2.09899E-05 3.08040E-16
2.30365E-05 2.69271E-16
2.51783E-05 2.36226E-16
2.74153E-05 2.08020E-16
2.97475E-05 1.83728E-16
3.21749E-05 1.62721E-16
3.46974E-05 1.44529E-16
3.73152E-05 1.28648E-16
4.00281E-05 1.14791E-16
4.28362E-05 1.02469E-16
4.57395E-05 9.17902E-17
4.87380E-05 8.25820E-17
5.18317E-05 7.42321E-17
5.50205E-05 6.69138E-17
5.83045E-05 6.05350E-17
6.16838E-05 5.47328E-17
6.51582E-05 4.96246E-17
6.87277E-05 4.51297E-17
7.23925E-05 4.10318E-17
7.61524E-05 3.74045E-17
9.21439E-05 2.62821E-17
1.09658E-04 1.89217E-17
1.28695E-04 1.39461E-17
1.49255E-04 1.04951E-17
1.71338E-04 8.04710E-18
1.94942E-04 6.27543E-18
2.20070E-04 4.96796E-18
2.46720E-04 3.98633E-18
2.74892E-04 3.23771E-18
3.04586E-04 2.65821E-18
3.35803E-04 2.20392E-18
3.68542E-04 1.84349E-18
4.02802E-04 1.55432E-18
4.38585E-04 1.32012E-18
4.75889E-04 1.12865E-18
5.14715E-04 9.70827E-19
5.55063E-04 8.39789E-19
5.96931E-04 7.30163E-19
6.40321E-04 6.37902E-19
6.85233E-04 5.59790E-19
7.31665E-04 4.93257E-19
7.79618E-04 4.36329E-19
8.29092E-04 3.87371E-19
8.80086E-04 3.45073E-19
9.32601E-04 3.08386E-19
9.86636E-04 2.76429E-19
1.04219E-03 2.48494E-19
1.09927E-03 2.23991E-19
1.15786E-03 2.02417E-19
1.21797E-03 1.83371E-19
1.27961E-03 1.66505E-19
1.34276E-03 1.51522E-19
1.40743E-03 1.38182E-19
1.47362E-03 1.26270E-19
1.54133E-03 1.15608E-19
1.61056E-03 1.06043E-19
1.68131E-03 9.74409E-20
1.75357E-03 8.96899E-20
1.82735E-03 8.26911E-20
1.90265E-03 7.63575E-20
1.97947E-03 7.06163E-20
2.05780E-03 6.54020E-20
2.13765E-03 6.06576E-20
2.21902E-03 5.63339E-20
2.30190E-03 5.23866E-20
2.38630E-03 4.87774E-20
2.47222E-03 4.54724E-20
2.55965E-03 4.24411E-20
2.64859E-03 3.96572E-20
2.73905E-03 3.70968E-20
2.83103E-03 3.47387E-20
2.92452E-03 3.25643E-20
3.01952E-03 3.05566E-20
3.11604E-03 2.87006E-20
3.21407E-03 2.69829E-20
3.31362E-03 2.53911E-20
3.41468E-03 2.39146E-20
3.51725E-03 2.25434E-20
3.62133E-03 2.12686E-20
3.72692E-03 2.00824E-20
3.83403E-03 1.89774E-20
3.94265E-03 1.79470E-20
4.05278E-03 1.69854E-20
4.16442E-03 1.60869E-20
4.27757E-03 1.52471E-20
4.39223E-03 1.44610E-20
4.50840E-03 1.37248E-20
4.62608E-03 1.30347E-20
4.74527E-03 1.23872E-20
4.86597E-03 1.17793E-20
4.98817E-03 1.12081E-20
5.11188E-03 1.06711E-20
5.23711E-03 1.01656E-20
5.36383E-03 9.68970E-21
5.49207E-03 9.24114E-21
5.62181E-03 8.81821E-21
5.75306E-03 8.41907E-21
5.88581E-03 8.04221E-21
6.02007E-03 7.68612E-21
6.15583E-03 7.34946E-21
6.29310E-03 7.03098E-21
6.43187E-03 6.72949E-21
6.57214E-03 6.44395E-21
6.71392E-03 6.17333E-21
6.85720E-03 5.91674E-21
7.00198E-03 5.67328E-21
7.14827E-03 5.44219E-21
7.29605E-03 5.22269E-21
7.44534E-03 5.01412E-21
7.59612E-03 4.81583E-21
7.97965E-03 4.36120E-21
8.37255E-03 3.95881E-21
8.77480E-03 3.60164E-21
9.18641E-03 3.28374E-21
9.60736E-03 3.00004E-21
1.00376E-02 2.74624E-21
1.04773E-02 2.51863E-21
1.09262E-02 2.31405E-21
1.13844E-02 2.12976E-21
1.18520E-02 1.96340E-21
1.23288E-02 1.81292E-21
1.28150E-02 1.67654E-21
1.33104E-02 1.55270E-21
1.38150E-02 1.44005E-21
1.43290E-02 1.33740E-21
1.48521E-02 1.24370E-21
1.53845E-02 1.15804E-21
1.59262E-02 1.07960E-21
1.64770E-02 1.00767E-21
1.70371E-02 9.41609E-22
1.76063E-02 8.80855E-22
1.81848E-02 8.24904E-22
1.87724E-02 7.73309E-22
1.93692E-02 7.25670E-22
1.99751E-02 6.81630E-22
2.05901E-02 6.40867E-22
2.12143E-02 6.03094E-22
2.18476E-02 5.68053E-22
2.24900E-02 5.35509E-22
2.31415E-02 5.05253E-22
2.38021E-02 4.77094E-22
2.44717E-02 4.50862E-22
2.51504E-02 4.26400E-22
2.58382E-02 4.03568E-22
2.65349E-02 3.82237E-22
2.72407E-02 3.62290E-22
2.79555E-02 3.43622E-22
2.86793E-02 3.26135E-22
2.94120E-02 3.09741E-22
3.01537E-02 2.94359E-22
3.09043E-02 2.79915E-22
3.16639E-02 2.66343E-22
3.24324E-02 2.53578E-22
3.32098E-02 2.41565E-22
3.39961E-02 2.30250E-22
3.47912E-02 2.19586E-22
3.55952E-02 2.09529E-22
3.64081E-02 2.00038E-22
3.72297E-02 1.91076E-22
3.80602E-02 1.82607E-22
3.88995E-02 1.74599E-22
3.97476E-02 1.67024E-22
4.06044E-02 1.59852E-22
4.14700E-02 1.53059E-22
4.23443E-02 1.46620E-22
4.32273E-02 1.40515E-22
4.41190E-02 1.34722E-22
4.50194E-02 1.29223E-22
4.59284E-02 1.24000E-22
4.68461E-02 1.19036E-22
4.87074E-02 1.09828E-22
5.06030E-02 1.01487E-22
5.25328E-02 9.39179E-23
5.44967E-02 8.70369E-23
5.64946E-02 8.07704E-23
5.85262E-02 7.50539E-23
6.05914E-02 6.98306E-23
6.26901E-02 6.50506E-23
6.48222E-02 6.06696E-23
6.69873E-02 5.66483E-23
6.91854E-02 5.29521E-23
7.14163E-02 4.95501E-23
7.36799E-02 4.64146E-23
7.59760E-02 4.35212E-23
7.83043E-02 4.08477E-23
8.06647E-02 3.83746E-23
8.30571E-02 3.60841E-23
8.54812E-02 3.39603E-23
8.79369E-02 3.19890E-23
9.04240E-02 3.01572E-23
9.29422E-02 2.84534E-23
9.54915E-02 2.68670E-23
9.80716E-02 2.53884E-23
1.00682E-01 2.40091E-23
1.03323E-01 2.27211E-23
1.05995E-01 2.15173E-23
1.08696E-01 2.03913E-23
1.11427E-01 1.93372E-23
1.14188E-01 1.83494E-23
1.16978E-01 1.74231E-23
1.19797E-01 1.65538E-23
1.22645E-01 1.57374E-23
1.25522E-01 1.49700E-23
1.28428E-01 1.42481E-23
1.31361E-01 1.35687E-23
1.34323E-01 1.29287E-23
1.37313E-01 1.23254E-23
1.40330E-01 1.17564E-23
1.43375E-01 1.12194E-23
1.46447E-01 1.07122E-23
1.49545E-01 1.02329E-23
1.52671E-01 9.77967E-24
1.55823E-01 9.35085E-24
1.59001E-01 8.94489E-24
1.62205E-01 8.56034E-24
1.65435E-01 8.19588E-24
1.68690E-01 7.85027E-24
1.71970E-01 7.52235E-24
1.75276E-01 7.21106E-24
1.78606E-01 6.91540E-24
1.81961E-01 6.63446E-24
1.85340E-01 6.36735E-24
1.88743E-01 6.11328E-24
1.92169E-01 5.87150E-24
1.95619E-01 5.64131E-24
1.99092E-01 5.42205E-24
2.02589E-01 5.21311E-24
2.06107E-01 5.01392E-24
2.09649E-01 4.82394E-24
2.13212E-01 4.64266E-24
2.16797E-01 4.46962E-24
2.20404E-01 4.30438E-24
2.24032E-01 4.14652E-24
2.27680E-01 3.99565E-24
2.31350E-01 3.85140E-24
2.35040E-01 3.71345E-24
2.38751E-01 3.58145E-24
2.42481E-01 3.45511E-24
2.46231E-01 3.33414E-24
2.50000E-01 3.21827E-24
2.53788E-01 3.10726E-24
2.57595E-01 3.00085E-24
2.61421E-01 2.89882E-24
2.65264E-01 2.80097E-24
2.69126E-01 2.70708E-24
2.73005E-01 2.61698E-24
2.76901E-01 2.53048E-24
2.80814E-01 2.44741E-24
2.84744E-01 2.36760E-24
2.88691E-01 2.29092E-24
2.92653E-01 2.21721E-24
2.96632E-01 2.14635E-24
3.00625E-01 2.07819E-24
3.04634E-01 2.01262E-24
3.08658E-01 1.94953E-24
3.12697E-01 1.88879E-24
3.16749E-01 1.83032E-24
3.20816E-01 1.77401E-24
3.24896E-01 1.71976E-24
3.28990E-01 1.66749E-24
3.33097E-01 1.61711E-24
3.37216E-01 1.56854E-24
3.41348E-01 1.52171E-24
3.45492E-01 1.47653E-24
3.49647E-01 1.43295E-24
3.53814E-01 1.39090E-24
3.57992E-01 1.35031E-24
3.62181E-01 1.31113E-24
3.66381E-01 1.27329E-24
3.70590E-01 1.23674E-24
3.74810E-01 1.20144E-24
3.79039E-01 1.16732E-24
3.83277E-01 1.13435E-24
3.87524E-01 1.10248E-24
3.91780E-01 1.07166E-24
3.96044E-01 1.04186E-24
4.00316E-01 1.01303E-24
4.04596E-01 9.85138E-25
4.08882E-01 9.58150E-25
4.13176E-01 9.32030E-25
4.17476E-01 9.06746E-25
4.21783E-01 8.82265E-25
4.26095E-01 8.58558E-25
4.30413E-01 8.35595E-25
4.34737E-01 8.13351E-25
4.39065E-01 7.91798E-25
4.43398E-01 7.70911E-25
4.47736E-01 7.50666E-25
4.52077E-01 7.31040E-25
4.56422E-01 7.12011E-25
4.60770E-01 6.93558E-25
4.65122E-01 6.75659E-25
4.69476E-01 6.58296E-25
4.73832E-01 6.41450E-25
4.78190E-01 6.25103E-25
4.82550E-01 6.09237E-25
4.86912E-01 5.93837E-25
4.91274E-01 5.78885E-25
4.95637E-01 5.64368E-25
5.00000E-01 5.50269E-25
5.04363E-01 5.36575E-25
5.08726E-01 5.23273E-25
5.13088E-01 5.10349E-25
5.17450E-01 4.97791E-25
5.21810E-01 4.85586E-25
5.26168E-01 4.73723E-25
5.30524E-01 4.62192E-25
5.34878E-01 4.50980E-25
5.39230E-01 4.40079E-25
5.43578E-01 4.29477E-25
5.47923E-01 4.19165E-25
5.52264E-01 4.09135E-25
5.56602E-01 3.99376E-25
5.60935E-01 3.89881E-25
5.65263E-01 3.80642E-25
5.69587E-01 3.71649E-25
5.73905E-01 3.62897E-25
5.78217E-01 3.54376E-25
5.82524E-01 3.46081E-25
5.86824E-01 3.38003E-25
5.91118E-01 3.30138E-25
5.95404E-01 3.22477E-25
5.99684E-01 3.15015E-25
6.03956E-01 3.07746E-25
6.08220E-01 3.00665E-25
6.12476E-01 2.93765E-25
6.16723E-01 2.87041E-25
6.20961E-01 2.80488E-25
6.25190E-01 2.74102E-25
6.29410E-01 2.67877E-25
6.33619E-01 2.61808E-25
6.37819E-01 2.55891E-25
6.42008E-01 2.50122E-25
6.46186E-01 2.44496E-25
6.50353E-01 2.39009E-25
6.54508E-01 2.33658E-25
6.58652E-01 2.28438E-25
6.62784E-01 2.23346E-25
6.66903E-01 2.18379E-25
6.71010E-01 2.13532E-25
6.75104E-01 2.08803E-25
6.79184E-01 2.04187E-25
6.83251E-01 1.99683E-25
6.87303E-01 1.95287E-25
6.91342E-01 1.90996E-25
6.95366E-01 1.86807E-25
6.99375E-01 1.82718E-25
7.03368E-01 1.78725E-25
7.07347E-01 1.74827E-25
7.11309E-01 1.71020E-25
7.15256E-01 1.67303E-25
7.19186E-01 1.63672E-25
7.23099E-01 1.60127E-25
7.26995E-01 1.56663E-25
7.30874E-01 1.53280E-25
7.34736E-01 1.49975E-25
7.38579E-01 1.46746E-25
7.42405E-01 1.43591E-25
7.46212E-01 1.40509E-25
7.50000E-01 1.37497E-25
7.53769E-01 1.34554E-25
7.57519E-01 1.31678E-25
7.61249E-01 1.28867E-25
7.64960E-01 1.26119E-25
7.68650E-01 1.23434E-25
7.72320E-01 1.20809E-25
7.75968E-01 1.18244E-25
7.79596E-01 1.15735E-25
7.83203E-01 1.13283E-25
7.86788E-01 1.10886E-25
7.90351E-01 1.08542E-25
7.93893E-01 1.06251E-25
7.97411E-01 1.04010E-25
8.00908E-01 1.01819E-25
8.04381E-01 9.96770E-26
8.07831E-01 9.75821E-26
8.11257E-01 9.55334E-26
8.14660E-01 9.35299E-26
8.18039E-01 9.15706E-26
8.21394E-01 8.96544E-26
8.24724E-01 8.77803E-26
8.28030E-01 8.59474E-26
8.31310E-01 8.41546E-26
8.34565E-01 8.24012E-26
8.37795E-01 8.06863E-26
8.40999E-01 7.90088E-26
8.44177E-01 7.73681E-26
8.47329E-01 7.57633E-26
8.50455E-01 7.41936E-26
8.53553E-01 7.26582E-26
8.56625E-01 7.11565E-26
8.59670E-01 6.96875E-26
8.62687E-01 6.82508E-26
8.65677E-01 6.68454E-26
8.68639E-01 6.54709E-26
8.71572E-01 6.41265E-26
8.74478E-01 6.28115E-26
8.77355E-01 6.15255E-26
8.80203E-01 6.02677E-26
8.83022E-01 5.90376E-26
8.85812E-01 5.78346E-26
8.88573E-01 5.66582E-26
8.91304E-01 5.55079E-26
8.94005E-01 5.43830E-26
8.96677E-01 5.32831E-26
8.99318E-01 5.22077E-26
9.01928E-01 5.11563E-26
9.04508E-01 5.01284E-26
9.07058E-01 4.91237E-26
9.09576E-01 4.81415E-26
9.12063E-01 4.71816E-26
9.14519E-01 4.62435E-26
9.16943E-01 4.53267E-26
9.19335E-01 4.44309E-26
9.21696E-01 4.35557E-26
9.24024E-01 4.27007E-26
9.26320E-01 4.18655E-26
9.28584E-01 4.10498E-26
9.30815E-01 4.02533E-26
9.33013E-01 3.94756E-26
9.35178E-01 3.87163E-26
9.37310E-01 3.79752E-26
9.39409E-01 3.72519E-26
9.41474E-01 3.65462E-26
9.43505E-01 3.58577E-26
9.45503E-01 3.51862E-26
9.47467E-01 3.45314E-26
9.49397E-01 3.38929E-26
9.51293E-01 3.32707E-26
9.53154E-01 3.26643E-26
9.54981E-01 3.20736E-26
9.56773E-01 3.14983E-26
9.58530E-01 3.09382E-26
9.60252E-01 3.03931E-26
9.61940E-01 2.98626E-26
9.63592E-01 2.93468E-26
9.65209E-01 2.88452E-26
9.66790E-01 2.83577E-26
9.68336E-01 2.78842E-26
9.69846E-01 2.74245E-26
9.71321E-01 2.69782E-26
9.72759E-01 2.65454E-26
9.74162E-01 2.61258E-26
9.75528E-01 2.57192E-26
9.76858E-01 2.53256E-26
9.78152E-01 2.49446E-26
9.79410E-01 2.45763E-26
9.80631E-01 2.42204E-26
9.81815E-01 2.38768E-26
9.82963E-01 2.35454E-26
9.84074E-01 2.32261E-26
9.85148E-01 2.29186E-26
9.86185E-01 2.26230E-26
9.87185E-01 2.23391E-26
9.88148E-01 2.20668E-26
9.89074E-01 2.18060E-26
9.89962E-01 2.15565E-26
9.90814E-01 2.13184E-26
9.91627E-01 2.10914E-26
9.92404E-01 2.08756E-26
9.93143E-01 2.06708E-26
9.93844E-01 2.04770E-26
9.94508E-01 2.02940E-26
9.95134E-01 2.01219E-26
9.95722E-01 1.99605E-26
9.96273E-01 1.98098E-26
9.96786E-01 1.96698E-26
9.97261E-01 1.95403E-26
9.97698E-01 1.94214E-26
9.98097E-01 1.93129E-26
9.98459E-01 1.92149E-26
9.98782E-01 1.91274E-26
9.99067E-01 1.90501E-26
9.99315E-01 1.89833E-26
9.99524E-01 1.89268E-26
9.99695E-01 1.88806E-26
9.99829E-01 1.88446E-26
9.99924E-01 1.88190E-26
9.99981E-01 1.88036E-26
1.00000E+00 1.87985E-26
