 #
 # Subroutine ELSEPA. Elastic scattering of electrons and positrons
 #                    by neutral atoms and positive ions
 #
 # Projectile: positron
 # Kinetic energy = 8.00000E+08 eV = 2.93995E+07 a.u.
 #
 # WARNING: High-energy factorization with free-atom DF screening.
 #          Absorption, polarization and exchange corrections are
 #          switched off.
 #          Phase shifts are calculated for the bare nucleus.
 #          Scattering amplitudes are not evaluated.
 #
 # Element: Si,  Z =  14,  atomic weight = 2.80855E+01 g/mol
 #
 # Nuclear model: Fermi distribution
 #                Average radius = 3.25245E-13 cm
 #                Skin thickness = 5.46000E-14 cm
 #
 # Number of electrons = 14
 #
 # Total elastic cross section = 8.82650E-19 cm**2 = 3.15200E-02 a0**2
 # 1st transport cross section = 6.61724E-28 cm**2 = 2.36306E-11 a0**2
 # 2nd transport cross section = 1.98467E-27 cm**2 = 7.08739E-11 a0**2
 #
 #
 # Differential cross section:                       MU=(1-COS(THETA))/2
 #
 #  THETA        MU          DCS          DCS        Sherman      error
 #  (deg)                 (cm**2/sr)   (a0**2/sr)    function
 #----------------------------------------------------------------------
0.00000E+00 8.15465E-09
7.61557E-13 6.81833E-09
1.18994E-12 6.20077E-09
1.71346E-12 5.54925E-09
2.33225E-12 4.89882E-09
3.04617E-12 4.26560E-09
3.85530E-12 3.69847E-09
4.75964E-12 3.17405E-09
5.75917E-12 2.71881E-09
6.85391E-12 2.31969E-09
8.04379E-12 1.97751E-09
9.32893E-12 1.68710E-09
1.07092E-11 1.43957E-09
1.21847E-11 1.23291E-09
1.37554E-11 1.05739E-09
1.54213E-11 9.11092E-10
1.71823E-11 7.87801E-10
1.90386E-11 6.84373E-10
2.09900E-11 5.97201E-10
2.30367E-11 5.23616E-10
2.51785E-11 4.61269E-10
2.74156E-11 4.08307E-10
2.97478E-11 3.63079E-10
3.21752E-11 3.24366E-10
3.46979E-11 2.91030E-10
3.73157E-11 2.62230E-10
4.00286E-11 2.37224E-10
4.28368E-11 2.15418E-10
4.57402E-11 1.96314E-10
4.87388E-11 1.79514E-10
5.18325E-11 1.64651E-10
5.50215E-11 1.51475E-10
5.83057E-11 1.39720E-10
6.16850E-11 1.29207E-10
6.51595E-11 1.19771E-10
6.87293E-11 1.11249E-10
7.23943E-11 1.03569E-10
7.61544E-11 9.65619E-11
1.18991E-10 5.17983E-11
1.71347E-10 3.02772E-11
2.33223E-10 1.86179E-11
3.04617E-10 1.18800E-11
3.85531E-10 7.85049E-12
4.75965E-10 5.35336E-12
5.75917E-10 3.75082E-12
6.85389E-10 2.69899E-12
8.04380E-10 1.98783E-12
9.32891E-10 1.49561E-12
1.07092E-09 1.14695E-12
1.21847E-09 8.94581E-13
1.37554E-09 7.08451E-13
1.54213E-09 5.68663E-13
1.71823E-09 4.62024E-13
1.90386E-09 3.79477E-13
2.09900E-09 3.14721E-13
2.30367E-09 2.63334E-13
2.51785E-09 2.22085E-13
2.74156E-09 1.88666E-13
2.97478E-09 1.61337E-13
3.21752E-09 1.38803E-13
3.46978E-09 1.20089E-13
3.73156E-09 1.04428E-13
4.00286E-09 9.12462E-14
4.28368E-09 8.00813E-14
4.57402E-09 7.05731E-14
4.87388E-09 6.24359E-14
5.18326E-09 5.54350E-14
5.50215E-09 4.93884E-14
5.83057E-09 4.41415E-14
6.16850E-09 3.95718E-14
6.51596E-09 3.55771E-14
6.87293E-09 3.20717E-14
7.23942E-09 2.89868E-14
7.61544E-09 2.62622E-14
1.18991E-08 1.09513E-14
1.71347E-08 5.33001E-15
2.33223E-08 2.89133E-15
3.04617E-08 1.69966E-15
3.85531E-08 1.06290E-15
4.75965E-08 6.98117E-16
5.75917E-08 4.77158E-16
6.85389E-08 3.37065E-16
8.04380E-08 2.44798E-16
9.32891E-08 1.82042E-16
1.07092E-07 1.38163E-16
1.21847E-07 1.06741E-16
1.37554E-07 8.37642E-17
1.54213E-07 6.66493E-17
1.71823E-07 5.36903E-17
1.90386E-07 4.37330E-17
2.09900E-07 3.59795E-17
2.30367E-07 2.98704E-17
2.51785E-07 2.50045E-17
2.74156E-07 2.10903E-17
2.97478E-07 1.79129E-17
3.21752E-07 1.53120E-17
3.46978E-07 1.31664E-17
3.73156E-07 1.13839E-17
4.00286E-07 9.89299E-18
4.28368E-07 8.63838E-18
4.57402E-07 7.57649E-18
4.87388E-07 6.67287E-18
5.18325E-07 5.90004E-18
5.50215E-07 5.23591E-18
5.83057E-07 4.66266E-18
6.16850E-07 4.16575E-18
6.51596E-07 3.73331E-18
6.87293E-07 3.35555E-18
7.23942E-07 3.02438E-18
7.61543E-07 2.73308E-18
1.18991E-06 1.11940E-18
1.71347E-06 5.39800E-19
2.33223E-06 2.91352E-19
3.04617E-06 1.70774E-19
3.85531E-06 1.06606E-19
4.75964E-06 6.99397E-20
5.75916E-06 4.77666E-20
6.85388E-06 3.37242E-20
8.04378E-06 2.44830E-20
9.32888E-06 1.82010E-20
1.07092E-05 1.38107E-20
1.21846E-05 1.06677E-20
1.37553E-05 8.37002E-21
1.54212E-05 6.65891E-21
1.71822E-05 5.36352E-21
1.90385E-05 4.36856E-21
2.09899E-05 3.59385E-21
2.30365E-05 2.98340E-21
2.51783E-05 2.49717E-21
2.74153E-05 2.10605E-21
2.97475E-05 1.78860E-21
3.21749E-05 1.52880E-21
3.46974E-05 1.31451E-21
3.73152E-05 1.13649E-21
4.00281E-05 9.87615E-22
4.28362E-05 8.62326E-22
4.57395E-05 7.56278E-22
4.87380E-05 6.66033E-22
5.18317E-05 5.88850E-22
5.50205E-05 5.22529E-22
5.83045E-05 4.65288E-22
6.16838E-05 4.15677E-22
6.51582E-05 3.72506E-22
6.87277E-05 3.34797E-22
7.23925E-05 3.01740E-22
7.61524E-05 2.68555E-22
9.21439E-05 1.82759E-22
1.09658E-04 1.28531E-22
1.28695E-04 9.29150E-23
1.49255E-04 6.87579E-23
1.71338E-04 5.19160E-23
1.94942E-04 3.98896E-23
2.20070E-04 3.11224E-23
2.46720E-04 2.46123E-23
2.74892E-04 1.96994E-23
3.04586E-04 1.59376E-23
3.35803E-04 1.30192E-23
3.68542E-04 1.07286E-23
4.02802E-04 8.91129E-24
4.38585E-04 7.45546E-24
4.75889E-04 6.27876E-24
5.14715E-04 5.31989E-24
5.55063E-04 4.53265E-24
5.96931E-04 3.88179E-24
6.40321E-04 3.34024E-24
6.85233E-04 2.88693E-24
7.31665E-04 2.50539E-24
7.79618E-04 2.18257E-24
8.29092E-04 1.90811E-24
8.80086E-04 1.67372E-24
9.32601E-04 1.47269E-24
9.86636E-04 1.29959E-24
1.04219E-03 1.14997E-24
1.09927E-03 1.02019E-24
1.15786E-03 9.07243E-25
1.21797E-03 8.08638E-25
1.27961E-03 7.22298E-25
1.34276E-03 6.46481E-25
1.40743E-03 5.79729E-25
1.47362E-03 5.20808E-25
1.54133E-03 4.68675E-25
1.61056E-03 4.22442E-25
1.68131E-03 3.81352E-25
1.75357E-03 3.44757E-25
1.82735E-03 3.12103E-25
1.90265E-03 2.82909E-25
1.97947E-03 2.56764E-25
2.05780E-03 2.33307E-25
2.13765E-03 2.12230E-25
2.21902E-03 1.93260E-25
2.30190E-03 1.76163E-25
2.38630E-03 1.60731E-25
2.47222E-03 1.46783E-25
2.55965E-03 1.34161E-25
2.64859E-03 1.22725E-25
2.73905E-03 1.12350E-25
2.83103E-03 1.02927E-25
2.92452E-03 9.43612E-26
3.01952E-03 8.65650E-26
3.11604E-03 7.94628E-26
3.21407E-03 7.29866E-26
3.31362E-03 6.70759E-26
3.41468E-03 6.16767E-26
3.51725E-03 5.67407E-26
3.62133E-03 5.22246E-26
3.72692E-03 4.80895E-26
3.83403E-03 4.43005E-26
3.94265E-03 4.08264E-26
4.05278E-03 3.76388E-26
4.16442E-03 3.47123E-26
4.27757E-03 3.20238E-26
4.39223E-03 2.95527E-26
4.50840E-03 2.72801E-26
4.62608E-03 2.51890E-26
4.74527E-03 2.32639E-26
4.86597E-03 2.14908E-26
4.98817E-03 1.98570E-26
5.11188E-03 1.83509E-26
5.23711E-03 1.69620E-26
5.36383E-03 1.56807E-26
5.49207E-03 1.44982E-26
5.62181E-03 1.34065E-26
5.75306E-03 1.23984E-26
5.88581E-03 1.14671E-26
6.02007E-03 1.06065E-26
6.15583E-03 9.81119E-27
6.29310E-03 9.07590E-27
6.43187E-03 8.39598E-27
6.57214E-03 7.76713E-27
6.71392E-03 7.18540E-27
6.85720E-03 6.64717E-27
7.00198E-03 6.14910E-27
7.14827E-03 5.68813E-27
7.29605E-03 5.26144E-27
7.44534E-03 4.86644E-27
7.59612E-03 4.50074E-27
7.97965E-03 3.70064E-27
8.37255E-03 3.04039E-27
8.77480E-03 2.49545E-27
9.18641E-03 2.04572E-27
9.60736E-03 1.67467E-27
1.00376E-02 1.36869E-27
1.04773E-02 1.11654E-27
1.09262E-02 9.08934E-28
1.13844E-02 7.38205E-28
1.18520E-02 5.97991E-28
1.23288E-02 4.83019E-28
1.28150E-02 3.88917E-28
1.33104E-02 3.12056E-28
1.38150E-02 2.49425E-28
1.43290E-02 1.98525E-28
1.48521E-02 1.57279E-28
1.53845E-02 1.23967E-28
1.59262E-02 9.71622E-29
1.64770E-02 7.56819E-29
1.70371E-02 5.85475E-29
1.76063E-02 4.49505E-29
1.81848E-02 3.42231E-29
1.87724E-02 2.58155E-29
1.93692E-02 1.92753E-29
1.99751E-02 1.42316E-29
2.05901E-02 1.03808E-29
2.12143E-02 7.47527E-30
2.18476E-02 5.31364E-30
2.24900E-02 3.73286E-30
2.31415E-02 2.60142E-30
2.38021E-02 1.81383E-30
2.44717E-02 1.28587E-30
2.51504E-02 9.50805E-31
2.58382E-02 7.56137E-31
2.65349E-02 6.60916E-31
2.72407E-02 6.33548E-31
2.79555E-02 6.49966E-31
2.86793E-02 6.92123E-31
2.94120E-02 7.46755E-31
3.01537E-02 8.04371E-31
3.09043E-02 8.58425E-31
3.16639E-02 9.04644E-31
3.24324E-02 9.40491E-31
3.32098E-02 9.64722E-31
3.39961E-02 9.77046E-31
3.47912E-02 9.77845E-31
3.55952E-02 9.67959E-31
3.64081E-02 9.48518E-31
3.72297E-02 9.20818E-31
3.80602E-02 8.86217E-31
3.88995E-02 8.46072E-31
3.97476E-02 8.01684E-31
4.06044E-02 7.54266E-31
4.14700E-02 7.04917E-31
4.23443E-02 6.54618E-31
4.32273E-02 6.04217E-31
4.41190E-02 5.54440E-31
4.50194E-02 5.05886E-31
4.59284E-02 4.59042E-31
4.68461E-02 4.14290E-31
4.87074E-02 3.32113E-31
5.06030E-02 2.60682E-31
5.25328E-02 2.00298E-31
5.44967E-02 1.50542E-31
5.64946E-02 1.10529E-31
5.85262E-02 7.91146E-32
6.05914E-02 5.50478E-32
6.26901E-02 3.70812E-32
6.48222E-02 2.40442E-32
6.69873E-02 1.48868E-32
6.91854E-02 8.70091E-33
7.14163E-02 4.72577E-33
7.36799E-02 2.34245E-33
7.59760E-02 1.06152E-33
7.83043E-02 5.07137E-34
8.06647E-02 3.99521E-34
8.30571E-02 5.37786E-34
8.54812E-02 7.83832E-34
8.79369E-02 1.04807E-33
9.04240E-02 1.27717E-33
9.29422E-02 1.44390E-33
9.54915E-02 1.53896E-33
9.80716E-02 1.56465E-33
1.00682E-01 1.53008E-33
1.03323E-01 1.44767E-33
1.05995E-01 1.33076E-33
1.08696E-01 1.19208E-33
1.11427E-01 1.04277E-33
1.14188E-01 8.92000E-34
1.16978E-01 7.46772E-34
1.19797E-01 6.12073E-34
1.22645E-01 4.91075E-34
1.25522E-01 3.85433E-34
1.28428E-01 2.95595E-34
1.31361E-01 2.21108E-34
1.34323E-01 1.60889E-34
1.37313E-01 1.13460E-34
1.40330E-01 7.71357E-35
1.43375E-01 5.01756E-35
1.46447E-01 3.08888E-35
1.49545E-01 1.77095E-35
1.52671E-01 9.24257E-36
1.55823E-01 4.28613E-36
1.59001E-01 1.83706E-36
1.62205E-01 1.08399E-36
1.65435E-01 1.39157E-36
1.68690E-01 2.28027E-36
1.71970E-01 3.40312E-36
1.75276E-01 4.52305E-36
1.78606E-01 5.49012E-36
1.81961E-01 6.22214E-36
1.85340E-01 6.68624E-36
1.88743E-01 6.88508E-36
1.92169E-01 6.84348E-36
1.95619E-01 6.59982E-36
1.99092E-01 6.19827E-36
2.02589E-01 5.68398E-36
2.06107E-01 5.09905E-36
2.09649E-01 4.48072E-36
2.13212E-01 3.85997E-36
2.16797E-01 3.26107E-36
2.20404E-01 2.70193E-36
2.24032E-01 2.19461E-36
2.27680E-01 1.74600E-36
2.31350E-01 1.35882E-36
2.35040E-01 1.03242E-36
2.38751E-01 7.63714E-37
2.42481E-01 5.47865E-37
2.46231E-01 3.79059E-37
2.50000E-01 2.50947E-37
2.53788E-01 1.57136E-37
2.57595E-01 9.14543E-38
2.61421E-01 4.81845E-38
2.65264E-01 2.22209E-38
2.69126E-01 9.12461E-39
2.73005E-01 5.14933E-39
2.76901E-01 7.21966E-39
2.80814E-01 1.29067E-38
2.84744E-01 2.03352E-38
2.88691E-01 2.81288E-38
2.92653E-01 3.53448E-38
2.96632E-01 4.13954E-38
3.00625E-01 4.59415E-38
3.04634E-01 4.88761E-38
3.08658E-01 5.02378E-38
3.12697E-01 5.01658E-38
3.16749E-01 4.88451E-38
3.20816E-01 4.65240E-38
3.24896E-01 4.34358E-38
3.28990E-01 3.98042E-38
3.33097E-01 3.58539E-38
3.37216E-01 3.17587E-38
3.41348E-01 2.76774E-38
3.45492E-01 2.37329E-38
3.49647E-01 2.00268E-38
3.53814E-01 1.66216E-38
3.57992E-01 1.35632E-38
3.62181E-01 1.08692E-38
3.66381E-01 8.54436E-39
3.70590E-01 6.58016E-39
3.74810E-01 4.94847E-39
3.79039E-01 3.62509E-39
3.83277E-01 2.57375E-39
3.87524E-01 1.75958E-39
3.91780E-01 1.14704E-39
3.96044E-01 1.00000E-45
4.00316E-01 1.00000E-45
4.04596E-01 1.00000E-45
4.08882E-01 1.00000E-45
4.13176E-01 1.00000E-45
4.17476E-01 1.00000E-45
4.21783E-01 1.00000E-45
4.26095E-01 1.00000E-45
4.30413E-01 1.00000E-45
4.34737E-01 1.00000E-45
4.39065E-01 1.00000E-45
4.43398E-01 1.00000E-45
4.47736E-01 1.00000E-45
4.52077E-01 1.00000E-45
4.56422E-01 1.00000E-45
4.60770E-01 1.00000E-45
4.65122E-01 1.00000E-45
4.69476E-01 1.00000E-45
4.73832E-01 1.00000E-45
4.78190E-01 1.00000E-45
4.82550E-01 1.00000E-45
4.86912E-01 1.00000E-45
4.91274E-01 1.00000E-45
4.95637E-01 1.00000E-45
5.00000E-01 1.00000E-45
5.04363E-01 1.00000E-45
5.08726E-01 1.00000E-45
5.13088E-01 1.00000E-45
5.17450E-01 1.00000E-45
5.21810E-01 1.00000E-45
5.26168E-01 1.00000E-45
5.30524E-01 1.00000E-45
5.34878E-01 1.00000E-45
5.39230E-01 1.00000E-45
5.43578E-01 1.00000E-45
5.47923E-01 1.00000E-45
5.52264E-01 1.00000E-45
5.56602E-01 1.00000E-45
5.60935E-01 1.00000E-45
5.65263E-01 1.00000E-45
5.69587E-01 1.00000E-45
5.73905E-01 1.00000E-45
5.78217E-01 1.00000E-45
5.82524E-01 1.00000E-45
5.86824E-01 1.00000E-45
5.91118E-01 1.00000E-45
5.95404E-01 1.00000E-45
5.99684E-01 1.00000E-45
6.03956E-01 1.00000E-45
6.08220E-01 1.00000E-45
6.12476E-01 1.00000E-45
6.16723E-01 1.00000E-45
6.20961E-01 1.00000E-45
6.25190E-01 1.00000E-45
6.29410E-01 1.00000E-45
6.33619E-01 1.00000E-45
6.37819E-01 1.00000E-45
6.42008E-01 1.00000E-45
6.46186E-01 1.00000E-45
6.50353E-01 1.00000E-45
6.54508E-01 1.00000E-45
6.58652E-01 1.00000E-45
6.62784E-01 1.00000E-45
6.66903E-01 1.00000E-45
6.71010E-01 1.00000E-45
6.75104E-01 1.00000E-45
6.79184E-01 1.00000E-45
6.83251E-01 1.00000E-45
6.87303E-01 1.00000E-45
6.91342E-01 1.00000E-45
6.95366E-01 1.00000E-45
6.99375E-01 1.00000E-45
7.03368E-01 1.00000E-45
7.07347E-01 1.00000E-45
7.11309E-01 1.00000E-45
7.15256E-01 1.00000E-45
7.19186E-01 1.00000E-45
7.23099E-01 1.00000E-45
7.26995E-01 1.00000E-45
7.30874E-01 1.00000E-45
7.34736E-01 1.00000E-45
7.38579E-01 1.00000E-45
7.42405E-01 1.00000E-45
7.46212E-01 1.00000E-45
7.50000E-01 1.00000E-45
7.53769E-01 1.00000E-45
7.57519E-01 1.00000E-45
7.61249E-01 1.00000E-45
7.64960E-01 1.00000E-45
7.68650E-01 1.00000E-45
7.72320E-01 1.00000E-45
7.75968E-01 1.00000E-45
7.79596E-01 1.00000E-45
7.83203E-01 1.00000E-45
7.86788E-01 1.00000E-45
7.90351E-01 1.00000E-45
7.93893E-01 1.00000E-45
7.97411E-01 1.00000E-45
8.00908E-01 1.00000E-45
8.04381E-01 1.00000E-45
8.07831E-01 1.00000E-45
8.11257E-01 1.00000E-45
8.14660E-01 1.00000E-45
8.18039E-01 1.00000E-45
8.21394E-01 1.00000E-45
8.24724E-01 1.00000E-45
8.28030E-01 1.00000E-45
8.31310E-01 1.00000E-45
8.34565E-01 1.00000E-45
8.37795E-01 1.00000E-45
8.40999E-01 1.00000E-45
8.44177E-01 1.00000E-45
8.47329E-01 1.00000E-45
8.50455E-01 1.00000E-45
8.53553E-01 1.00000E-45
8.56625E-01 1.00000E-45
8.59670E-01 1.00000E-45
8.62687E-01 1.00000E-45
8.65677E-01 1.00000E-45
8.68639E-01 1.00000E-45
8.71572E-01 1.00000E-45
8.74478E-01 1.00000E-45
8.77355E-01 1.00000E-45
8.80203E-01 1.00000E-45
8.83022E-01 1.00000E-45
8.85812E-01 1.00000E-45
8.88573E-01 1.00000E-45
8.91304E-01 1.00000E-45
8.94005E-01 1.00000E-45
8.96677E-01 1.00000E-45
8.99318E-01 1.00000E-45
9.01928E-01 1.00000E-45
9.04508E-01 1.00000E-45
9.07058E-01 1.00000E-45
9.09576E-01 1.00000E-45
9.12063E-01 1.00000E-45
9.14519E-01 1.00000E-45
9.16943E-01 1.00000E-45
9.19335E-01 1.00000E-45
9.21696E-01 1.00000E-45
9.24024E-01 1.00000E-45
9.26320E-01 1.00000E-45
9.28584E-01 1.00000E-45
9.30815E-01 1.00000E-45
9.33013E-01 1.00000E-45
9.35178E-01 1.00000E-45
9.37310E-01 1.00000E-45
9.39409E-01 1.00000E-45
9.41474E-01 1.00000E-45
9.43505E-01 1.00000E-45
9.45503E-01 1.00000E-45
9.47467E-01 1.00000E-45
9.49397E-01 1.00000E-45
9.51293E-01 1.00000E-45
9.53154E-01 1.00000E-45
9.54981E-01 1.00000E-45
9.56773E-01 1.00000E-45
9.58530E-01 1.00000E-45
9.60252E-01 1.00000E-45
9.61940E-01 1.00000E-45
9.63592E-01 1.00000E-45
9.65209E-01 1.00000E-45
9.66790E-01 1.00000E-45
9.68336E-01 1.00000E-45
9.69846E-01 1.00000E-45
9.71321E-01 1.00000E-45
9.72759E-01 1.00000E-45
9.74162E-01 1.00000E-45
9.75528E-01 1.00000E-45
9.76858E-01 1.00000E-45
9.78152E-01 1.00000E-45
9.79410E-01 1.00000E-45
9.80631E-01 1.00000E-45
9.81815E-01 1.00000E-45
9.82963E-01 1.00000E-45
9.84074E-01 1.00000E-45
9.85148E-01 1.00000E-45
9.86185E-01 1.00000E-45
9.87185E-01 1.00000E-45
9.88148E-01 1.00000E-45
9.89074E-01 1.00000E-45
9.89962E-01 1.00000E-45
9.90814E-01 1.00000E-45
9.91627E-01 1.00000E-45
9.92404E-01 1.00000E-45
9.93143E-01 1.00000E-45
9.93844E-01 1.00000E-45
9.94508E-01 1.00000E-45
9.95134E-01 1.00000E-45
9.95722E-01 1.00000E-45
9.96273E-01 1.00000E-45
9.96786E-01 1.00000E-45
9.97261E-01 1.00000E-45
9.97698E-01 1.00000E-45
9.98097E-01 1.00000E-45
9.98459E-01 1.00000E-45
9.98782E-01 1.00000E-45
9.99067E-01 1.00000E-45
9.99315E-01 1.00000E-45
9.99524E-01 1.00000E-45
9.99695E-01 1.00000E-45
9.99829E-01 1.00000E-45
9.99924E-01 1.00000E-45
9.99981E-01 1.00000E-45
1.00000E+00 1.00000E-45
