 #
 # Subroutine ELSEPA. Elastic scattering of electrons and positrons
 #                    by neutral atoms and positive ions
 #
 # Projectile: positron
 # Kinetic energy = 9.00000E+07 eV = 3.30744E+06 a.u.
 #
 # WARNING: High-energy factorization with free-atom DF screening.
 #          Absorption, polarization and exchange corrections are
 #          switched off.
 #          Phase shifts are calculated for the bare nucleus.
 #          Scattering amplitudes are not evaluated.
 #
 # Element: Si,  Z =  14,  atomic weight = 2.80855E+01 g/mol
 #
 # Nuclear model: Fermi distribution
 #                Average radius = 3.25245E-13 cm
 #                Skin thickness = 5.46000E-14 cm
 #
 # Number of electrons = 14
 #
 # Total elastic cross section = 8.88379E-19 cm**2 = 3.17246E-02 a0**2
 # 1st transport cross section = 5.03968E-26 cm**2 = 1.79970E-09 a0**2
 # 2nd transport cross section = 1.49049E-25 cm**2 = 5.32264E-09 a0**2
 #
 #
 # Differential cross section:                       MU=(1-COS(THETA))/2
 #
 #  THETA        MU          DCS          DCS        Sherman      error
 #  (deg)                 (cm**2/sr)   (a0**2/sr)    function
 #----------------------------------------------------------------------
0.00000E+00 1.04249E-10
7.61557E-13 1.04001E-10
1.18994E-12 1.03861E-10
1.71346E-12 1.03692E-10
2.33225E-12 1.03492E-10
3.04617E-12 1.03262E-10
3.85530E-12 1.03003E-10
4.75964E-12 1.02714E-10
5.75917E-12 1.02396E-10
6.85391E-12 1.02050E-10
8.04379E-12 1.01675E-10
9.32893E-12 1.01273E-10
1.07092E-11 1.00843E-10
1.21847E-11 1.00386E-10
1.37554E-11 9.99037E-11
1.54213E-11 9.93952E-11
1.71823E-11 9.88622E-11
1.90386E-11 9.83042E-11
2.09900E-11 9.77226E-11
2.30367E-11 9.71186E-11
2.51785E-11 9.64910E-11
2.74156E-11 9.58423E-11
2.97478E-11 9.51729E-11
3.21752E-11 9.44823E-11
3.46979E-11 9.37731E-11
3.73157E-11 9.30448E-11
4.00286E-11 9.22981E-11
4.28368E-11 9.15352E-11
4.57402E-11 9.07547E-11
4.87388E-11 8.99589E-11
5.18325E-11 8.91495E-11
5.50215E-11 8.83238E-11
5.83057E-11 8.74861E-11
6.16850E-11 8.66363E-11
6.51595E-11 8.57734E-11
6.87293E-11 8.49009E-11
7.23943E-11 8.40178E-11
7.61544E-11 8.31247E-11
1.18991E-10 7.38491E-11
1.71347E-10 6.44038E-11
2.33223E-10 5.51905E-11
3.04617E-10 4.69552E-11
3.85531E-10 3.95050E-11
4.75965E-10 3.30954E-11
5.75917E-10 2.76973E-11
6.85389E-10 2.30874E-11
8.04380E-10 1.93027E-11
9.32891E-10 1.61793E-11
1.07092E-09 1.36001E-11
1.21847E-09 1.14929E-11
1.37554E-09 9.75944E-12
1.54213E-09 8.33492E-12
1.71823E-09 7.16134E-12
1.90386E-09 6.18991E-12
2.09900E-09 5.38319E-12
2.30367E-09 4.70928E-12
2.51785E-09 4.14440E-12
2.74156E-09 3.66746E-12
2.97478E-09 3.26276E-12
3.21752E-09 2.91751E-12
3.46978E-09 2.62109E-12
3.73156E-09 2.36527E-12
4.00286E-09 2.14308E-12
4.28368E-09 1.94932E-12
4.57402E-09 1.77908E-12
4.87388E-09 1.62894E-12
5.18326E-09 1.49619E-12
5.50215E-09 1.37750E-12
5.83057E-09 1.27161E-12
6.16850E-09 1.17666E-12
6.51596E-09 1.09071E-12
6.87293E-09 1.01324E-12
7.23942E-09 9.42809E-13
7.61544E-09 8.78540E-13
1.18991E-08 4.63095E-13
1.71347E-08 2.63472E-13
2.33223E-08 1.57668E-13
3.04617E-08 9.85811E-14
3.85531E-08 6.41334E-14
4.75965E-08 4.32426E-14
5.75917E-08 3.00979E-14
6.85389E-08 2.15686E-14
8.04380E-08 1.58532E-14
9.32891E-08 1.19183E-14
1.07092E-07 9.13903E-15
1.21847E-07 7.13055E-15
1.37554E-07 5.64959E-15
1.54213E-07 4.53699E-15
1.71823E-07 3.68765E-15
1.90386E-07 3.02959E-15
2.09900E-07 2.51292E-15
2.30367E-07 2.10257E-15
2.51785E-07 1.77294E-15
2.74156E-07 1.50574E-15
2.97478E-07 1.28714E-15
3.21752E-07 1.10687E-15
3.46978E-07 9.57122E-16
3.73156E-07 8.31824E-16
4.00286E-07 7.26380E-16
4.28368E-07 6.37091E-16
4.57402E-07 5.61083E-16
4.87388E-07 4.96059E-16
5.18325E-07 4.40149E-16
5.50215E-07 3.91882E-16
5.83057E-07 3.50026E-16
6.16850E-07 3.13593E-16
6.51596E-07 2.81764E-16
6.87293E-07 2.53853E-16
7.23942E-07 2.29304E-16
7.61543E-07 2.07638E-16
1.18991E-06 8.62137E-17
1.71347E-06 4.18526E-17
2.33223E-06 2.26686E-17
3.04617E-06 1.33132E-17
3.85531E-06 8.32047E-18
4.75964E-06 5.46268E-18
5.75916E-06 3.73260E-18
6.85388E-06 2.63614E-18
8.04378E-06 1.91420E-18
9.32888E-06 1.42328E-18
1.07092E-05 1.08009E-18
1.21846E-05 8.34364E-19
1.37553E-05 6.54698E-19
1.54212E-05 5.20881E-19
1.71822E-05 4.19554E-19
1.90385E-05 3.41726E-19
2.09899E-05 2.81126E-19
2.30365E-05 2.33375E-19
2.51783E-05 1.95340E-19
2.74153E-05 1.64746E-19
2.97475E-05 1.39914E-19
3.21749E-05 1.19591E-19
3.46974E-05 1.02828E-19
3.73152E-05 8.89030E-20
4.00281E-05 7.72570E-20
4.28362E-05 6.74563E-20
4.57395E-05 5.91607E-20
4.87380E-05 5.21012E-20
5.18317E-05 4.60635E-20
5.50205E-05 4.08755E-20
5.83045E-05 3.63978E-20
6.16838E-05 3.25169E-20
6.51582E-05 2.91398E-20
6.87277E-05 2.61900E-20
7.23925E-05 2.36040E-20
7.61524E-05 2.13266E-20
9.21439E-05 1.45618E-20
1.09658E-04 1.02786E-20
1.28695E-04 7.46030E-21
1.49255E-04 5.54477E-21
1.71338E-04 4.20630E-21
1.94942E-04 3.24823E-21
2.20070E-04 2.54799E-21
2.46720E-04 2.02658E-21
2.74892E-04 1.63192E-21
3.04586E-04 1.32878E-21
3.35803E-04 1.09283E-21
3.68542E-04 9.06977E-22
4.02802E-04 7.58977E-22
4.38585E-04 6.39954E-22
4.75889E-04 5.43356E-22
5.14715E-04 4.64302E-22
5.55063E-04 3.99105E-22
5.96931E-04 3.44950E-22
6.40321E-04 2.99669E-22
6.85233E-04 2.61572E-22
7.31665E-04 2.29336E-22
7.79618E-04 2.01911E-22
8.29092E-04 1.78460E-22
8.80086E-04 1.58314E-22
9.32601E-04 1.40928E-22
9.86636E-04 1.25862E-22
1.04219E-03 1.12753E-22
1.09927E-03 1.01305E-22
1.15786E-03 9.12719E-23
1.21797E-03 8.24485E-23
1.27961E-03 7.46643E-23
1.34276E-03 6.77759E-23
1.40743E-03 6.16625E-23
1.47362E-03 5.62218E-23
1.54133E-03 5.13670E-23
1.61056E-03 4.70241E-23
1.68131E-03 4.31297E-23
1.75357E-03 3.96294E-23
1.82735E-03 3.64763E-23
1.90265E-03 3.36299E-23
1.97947E-03 3.10552E-23
2.05780E-03 2.87216E-23
2.13765E-03 2.66026E-23
2.21902E-03 2.46750E-23
2.30190E-03 2.29184E-23
2.38630E-03 2.13149E-23
2.47222E-03 1.98488E-23
2.55965E-03 1.85063E-23
2.64859E-03 1.72751E-23
2.73905E-03 1.61442E-23
2.83103E-03 1.51041E-23
2.92452E-03 1.41462E-23
3.01952E-03 1.32627E-23
3.11604E-03 1.24469E-23
3.21407E-03 1.16927E-23
3.31362E-03 1.09945E-23
3.41468E-03 1.03475E-23
3.51725E-03 9.74718E-24
3.62133E-03 9.18961E-24
3.72692E-03 8.67119E-24
3.83403E-03 8.18866E-24
3.94265E-03 7.73909E-24
4.05278E-03 7.31983E-24
4.16442E-03 6.92845E-24
4.27757E-03 6.56276E-24
4.39223E-03 6.22077E-24
4.50840E-03 5.90066E-24
4.62608E-03 5.60079E-24
4.74527E-03 5.31962E-24
4.86597E-03 5.05580E-24
4.98817E-03 4.80804E-24
5.11188E-03 4.57519E-24
5.23711E-03 4.35620E-24
5.36383E-03 4.15008E-24
5.49207E-03 3.95593E-24
5.62181E-03 3.77295E-24
5.75306E-03 3.60036E-24
5.88581E-03 3.43747E-24
6.02007E-03 3.28363E-24
6.15583E-03 3.13825E-24
6.29310E-03 3.00077E-24
6.43187E-03 2.87069E-24
6.57214E-03 2.74754E-24
6.71392E-03 2.63088E-24
6.85720E-03 2.52030E-24
7.00198E-03 2.41543E-24
7.14827E-03 2.31592E-24
7.29605E-03 2.22144E-24
7.44534E-03 2.13170E-24
7.59612E-03 2.04641E-24
7.97965E-03 1.85099E-24
8.37255E-03 1.67818E-24
8.77480E-03 1.52492E-24
9.18641E-03 1.38862E-24
9.60736E-03 1.26709E-24
1.00376E-02 1.15845E-24
1.04773E-02 1.06111E-24
1.09262E-02 9.73684E-25
1.13844E-02 8.94991E-25
1.18520E-02 8.24009E-25
1.23288E-02 7.59853E-25
1.28150E-02 7.01753E-25
1.33104E-02 6.49038E-25
1.38150E-02 6.01124E-25
1.43290E-02 5.57498E-25
1.48521E-02 5.17709E-25
1.53845E-02 4.81361E-25
1.59262E-02 4.48105E-25
1.64770E-02 4.17633E-25
1.70371E-02 3.89671E-25
1.76063E-02 3.63976E-25
1.81848E-02 3.40332E-25
1.87724E-02 3.18548E-25
1.93692E-02 2.98451E-25
1.99751E-02 2.79889E-25
2.05901E-02 2.62723E-25
2.12143E-02 2.46830E-25
2.18476E-02 2.32099E-25
2.24900E-02 2.18431E-25
2.31415E-02 2.05736E-25
2.38021E-02 1.93931E-25
2.44717E-02 1.82945E-25
2.51504E-02 1.72710E-25
2.58382E-02 1.63166E-25
2.65349E-02 1.54258E-25
2.72407E-02 1.45936E-25
2.79555E-02 1.38156E-25
2.86793E-02 1.30875E-25
2.94120E-02 1.24056E-25
3.01537E-02 1.17665E-25
3.09043E-02 1.11671E-25
3.16639E-02 1.06044E-25
3.24324E-02 1.00757E-25
3.32098E-02 9.57878E-26
3.39961E-02 9.11127E-26
3.47912E-02 8.67116E-26
3.55952E-02 8.25657E-26
3.64081E-02 7.86577E-26
3.72297E-02 7.49714E-26
3.80602E-02 7.14922E-26
3.88995E-02 6.82065E-26
3.97476E-02 6.51016E-26
4.06044E-02 6.21659E-26
4.14700E-02 5.93885E-26
4.23443E-02 5.67595E-26
4.32273E-02 5.42696E-26
4.41190E-02 5.19101E-26
4.50194E-02 4.96731E-26
4.59284E-02 4.75512E-26
4.68461E-02 4.55373E-26
4.87074E-02 4.18086E-26
5.06030E-02 3.84405E-26
5.25328E-02 3.53925E-26
5.44967E-02 3.26295E-26
5.64946E-02 3.01205E-26
5.85262E-02 2.78385E-26
6.05914E-02 2.57597E-26
6.26901E-02 2.38632E-26
6.48222E-02 2.21305E-26
6.69873E-02 2.05452E-26
6.91854E-02 1.90928E-26
7.14163E-02 1.77605E-26
7.36799E-02 1.65368E-26
7.59760E-02 1.54114E-26
7.83043E-02 1.43752E-26
8.06647E-02 1.34202E-26
8.30571E-02 1.25389E-26
8.54812E-02 1.17248E-26
8.79369E-02 1.09720E-26
9.04240E-02 1.02753E-26
9.29422E-02 9.62967E-27
9.54915E-02 9.03097E-27
9.80716E-02 8.47524E-27
1.00682E-01 7.95893E-27
1.03323E-01 7.47885E-27
1.05995E-01 7.03208E-27
1.08696E-01 6.61596E-27
1.11427E-01 6.22810E-27
1.14188E-01 5.86630E-27
1.16978E-01 5.52855E-27
1.19797E-01 5.21303E-27
1.22645E-01 4.91807E-27
1.25522E-01 4.64215E-27
1.28428E-01 4.38385E-27
1.31361E-01 4.14191E-27
1.34323E-01 3.91514E-27
1.37313E-01 3.70245E-27
1.40330E-01 3.50286E-27
1.43375E-01 3.31546E-27
1.46447E-01 3.13939E-27
1.49545E-01 2.97387E-27
1.52671E-01 2.81821E-27
1.55823E-01 2.67172E-27
1.59001E-01 2.53380E-27
1.62205E-01 2.40388E-27
1.65435E-01 2.28144E-27
1.68690E-01 2.16599E-27
1.71970E-01 2.05709E-27
1.75276E-01 1.95431E-27
1.78606E-01 1.85727E-27
1.81961E-01 1.76561E-27
1.85340E-01 1.67899E-27
1.88743E-01 1.59710E-27
1.92169E-01 1.51965E-27
1.95619E-01 1.44638E-27
1.99092E-01 1.37703E-27
2.02589E-01 1.31136E-27
2.06107E-01 1.24917E-27
2.09649E-01 1.19023E-27
2.13212E-01 1.13437E-27
2.16797E-01 1.08140E-27
2.20404E-01 1.03116E-27
2.24032E-01 9.83490E-28
2.27680E-01 9.38246E-28
2.31350E-01 8.95289E-28
2.35040E-01 8.54492E-28
2.38751E-01 8.15734E-28
2.42481E-01 7.78903E-28
2.46231E-01 7.43892E-28
2.50000E-01 7.10603E-28
2.53788E-01 6.78942E-28
2.57595E-01 6.48820E-28
2.61421E-01 6.20156E-28
2.65264E-01 5.92872E-28
2.69126E-01 5.66894E-28
2.73005E-01 5.42155E-28
2.76901E-01 5.18588E-28
2.80814E-01 4.96134E-28
2.84744E-01 4.74734E-28
2.88691E-01 4.54335E-28
2.92653E-01 4.34885E-28
2.96632E-01 4.16335E-28
3.00625E-01 3.98641E-28
3.04634E-01 3.81759E-28
3.08658E-01 3.65648E-28
3.12697E-01 3.50271E-28
3.16749E-01 3.35590E-28
3.20816E-01 3.21572E-28
3.24896E-01 3.08183E-28
3.28990E-01 2.95394E-28
3.33097E-01 2.83175E-28
3.37216E-01 2.71498E-28
3.41348E-01 2.60338E-28
3.45492E-01 2.49669E-28
3.49647E-01 2.39469E-28
3.53814E-01 2.29714E-28
3.57992E-01 2.20384E-28
3.62181E-01 2.11459E-28
3.66381E-01 2.02921E-28
3.70590E-01 1.94750E-28
3.74810E-01 1.86929E-28
3.79039E-01 1.79444E-28
3.83277E-01 1.72278E-28
3.87524E-01 1.65416E-28
3.91780E-01 1.58845E-28
3.96044E-01 1.52552E-28
4.00316E-01 1.46523E-28
4.04596E-01 1.40747E-28
4.08882E-01 1.35213E-28
4.13176E-01 1.29909E-28
4.17476E-01 1.24826E-28
4.21783E-01 1.19954E-28
4.26095E-01 1.15282E-28
4.30413E-01 1.10804E-28
4.34737E-01 1.06509E-28
4.39065E-01 1.02390E-28
4.43398E-01 9.84390E-29
4.47736E-01 9.46491E-29
4.52077E-01 9.10130E-29
4.56422E-01 8.75243E-29
4.60770E-01 8.41764E-29
4.65122E-01 8.09633E-29
4.69476E-01 7.78793E-29
4.73832E-01 7.49189E-29
4.78190E-01 7.20767E-29
4.82550E-01 6.93479E-29
4.86912E-01 6.67275E-29
4.91274E-01 6.42110E-29
4.95637E-01 6.17941E-29
5.00000E-01 5.94726E-29
5.04363E-01 5.72425E-29
5.08726E-01 5.50999E-29
5.13088E-01 5.30413E-29
5.17450E-01 5.10632E-29
5.21810E-01 4.91622E-29
5.26168E-01 4.73351E-29
5.30524E-01 4.55790E-29
5.34878E-01 4.38909E-29
5.39230E-01 4.22680E-29
5.43578E-01 4.07077E-29
5.47923E-01 3.92075E-29
5.52264E-01 3.77648E-29
5.56602E-01 3.63774E-29
5.60935E-01 3.50430E-29
5.65263E-01 3.37596E-29
5.69587E-01 3.25250E-29
5.73905E-01 3.13373E-29
5.78217E-01 3.01947E-29
5.82524E-01 2.90952E-29
5.86824E-01 2.80373E-29
5.91118E-01 2.70193E-29
5.95404E-01 2.60395E-29
5.99684E-01 2.50965E-29
6.03956E-01 2.41889E-29
6.08220E-01 2.33152E-29
6.12476E-01 2.24741E-29
6.16723E-01 2.16643E-29
6.20961E-01 2.08846E-29
6.25190E-01 2.01339E-29
6.29410E-01 1.94110E-29
6.33619E-01 1.87148E-29
6.37819E-01 1.80443E-29
6.42008E-01 1.73985E-29
6.46186E-01 1.67764E-29
6.50353E-01 1.61772E-29
6.54508E-01 1.56000E-29
6.58652E-01 1.50439E-29
6.62784E-01 1.45080E-29
6.66903E-01 1.39918E-29
6.71010E-01 1.34943E-29
6.75104E-01 1.30148E-29
6.79184E-01 1.25528E-29
6.83251E-01 1.21075E-29
6.87303E-01 1.16783E-29
6.91342E-01 1.12646E-29
6.95366E-01 1.08658E-29
6.99375E-01 1.04813E-29
7.03368E-01 1.01107E-29
7.07347E-01 9.75333E-30
7.11309E-01 9.40876E-30
7.15256E-01 9.07651E-30
7.19186E-01 8.75613E-30
7.23099E-01 8.44715E-30
7.26995E-01 8.14917E-30
7.30874E-01 7.86178E-30
7.34736E-01 7.58458E-30
7.38579E-01 7.31720E-30
7.42405E-01 7.05927E-30
7.46212E-01 6.81046E-30
7.50000E-01 6.57041E-30
7.53769E-01 6.33882E-30
7.57519E-01 6.11537E-30
7.61249E-01 5.89976E-30
7.64960E-01 5.69171E-30
7.68650E-01 5.49095E-30
7.72320E-01 5.29720E-30
7.75968E-01 5.11022E-30
7.79596E-01 4.92976E-30
7.83203E-01 4.75558E-30
7.86788E-01 4.58745E-30
7.90351E-01 4.42516E-30
7.93893E-01 4.26850E-30
7.97411E-01 4.11727E-30
8.00908E-01 3.97126E-30
8.04381E-01 3.83030E-30
8.07831E-01 3.69420E-30
8.11257E-01 3.56279E-30
8.14660E-01 3.43590E-30
8.18039E-01 3.31338E-30
8.21394E-01 3.19506E-30
8.24724E-01 3.08079E-30
8.28030E-01 2.97044E-30
8.31310E-01 2.86387E-30
8.34565E-01 2.76093E-30
8.37795E-01 2.66152E-30
8.40999E-01 2.56549E-30
8.44177E-01 2.47273E-30
8.47329E-01 2.38313E-30
8.50455E-01 2.29657E-30
8.53553E-01 2.21296E-30
8.56625E-01 2.13218E-30
8.59670E-01 2.05414E-30
8.62687E-01 1.97874E-30
8.65677E-01 1.90590E-30
8.68639E-01 1.83552E-30
8.71572E-01 1.76752E-30
8.74478E-01 1.70181E-30
8.77355E-01 1.63832E-30
8.80203E-01 1.57698E-30
8.83022E-01 1.51770E-30
8.85812E-01 1.46042E-30
8.88573E-01 1.40506E-30
8.91304E-01 1.35158E-30
8.94005E-01 1.29989E-30
8.96677E-01 1.24994E-30
8.99318E-01 1.20167E-30
9.01928E-01 1.15502E-30
9.04508E-01 1.10994E-30
9.07058E-01 1.06638E-30
9.09576E-01 1.02429E-30
9.12063E-01 9.83606E-31
9.14519E-01 9.44296E-31
9.16943E-01 9.06309E-31
9.19335E-01 8.69602E-31
9.21696E-01 8.34133E-31
9.24024E-01 7.99861E-31
9.26320E-01 7.66746E-31
9.28584E-01 7.34750E-31
9.30815E-01 7.03838E-31
9.33013E-01 6.73974E-31
9.35178E-01 6.45123E-31
9.37310E-01 6.17254E-31
9.39409E-01 5.90335E-31
9.41474E-01 5.64335E-31
9.43505E-01 5.39225E-31
9.45503E-01 5.14977E-31
9.47467E-01 4.91564E-31
9.49397E-01 4.68959E-31
9.51293E-01 4.47138E-31
9.53154E-01 4.26075E-31
9.54981E-01 4.05748E-31
9.56773E-01 3.86134E-31
9.58530E-01 3.67211E-31
9.60252E-01 3.48959E-31
9.61940E-01 3.31357E-31
9.63592E-01 3.14385E-31
9.65209E-01 2.98026E-31
9.66790E-01 2.82261E-31
9.68336E-01 2.67073E-31
9.69846E-01 2.52445E-31
9.71321E-01 2.38362E-31
9.72759E-01 2.24808E-31
9.74162E-01 2.11768E-31
9.75528E-01 1.99229E-31
9.76858E-01 1.87176E-31
9.78152E-01 1.75596E-31
9.79410E-01 1.64478E-31
9.80631E-01 1.53809E-31
9.81815E-01 1.43577E-31
9.82963E-01 1.33772E-31
9.84074E-01 1.24383E-31
9.85148E-01 1.15400E-31
9.86185E-01 1.06813E-31
9.87185E-01 9.86133E-32
9.88148E-01 9.07920E-32
9.89074E-01 8.33409E-32
9.89962E-01 7.62519E-32
9.90814E-01 6.95174E-32
9.91627E-01 6.31304E-32
9.92404E-01 5.70840E-32
9.93143E-01 5.13719E-32
9.93844E-01 4.59879E-32
9.94508E-01 4.09263E-32
9.95134E-01 3.61819E-32
9.95722E-01 3.17495E-32
9.96273E-01 2.76246E-32
9.96786E-01 2.38027E-32
9.97261E-01 2.02798E-32
9.97698E-01 1.70522E-32
9.98097E-01 1.41166E-32
9.98459E-01 1.14698E-32
9.98782E-01 9.10895E-33
9.99067E-01 7.03168E-33
9.99315E-01 5.23578E-33
9.99524E-01 3.71935E-33
9.99695E-01 2.48081E-33
9.99829E-01 1.51884E-33
9.99924E-01 8.32439E-34
9.99981E-01 4.20886E-34
1.00000E+00 2.83755E-34
