 #
 # Subroutine ELSEPA. Elastic scattering of electrons and positrons
 #                    by neutral atoms and positive ions
 #
 # Projectile: positron
 # Kinetic energy = 3.50000E+08 eV = 1.28623E+07 a.u.
 #
 # WARNING: High-energy factorization with free-atom DF screening.
 #          Absorption, polarization and exchange corrections are
 #          switched off.
 #          Phase shifts are calculated for the bare nucleus.
 #          Scattering amplitudes are not evaluated.
 #
 # Element: Si,  Z =  14,  atomic weight = 2.80855E+01 g/mol
 #
 # Nuclear model: Fermi distribution
 #                Average radius = 3.25245E-13 cm
 #                Skin thickness = 5.46000E-14 cm
 #
 # Number of electrons = 14
 #
 # Total elastic cross section = 8.88807E-19 cm**2 = 3.17399E-02 a0**2
 # 1st transport cross section = 3.44307E-27 cm**2 = 1.22954E-10 a0**2
 # 2nd transport cross section = 1.03158E-26 cm**2 = 3.68383E-10 a0**2
 #
 #
 # Differential cross section:                       MU=(1-COS(THETA))/2
 #
 #  THETA        MU          DCS          DCS        Sherman      error
 #  (deg)                 (cm**2/sr)   (a0**2/sr)    function
 #----------------------------------------------------------------------
0.00000E+00 1.56341E-09
7.61557E-13 1.50902E-09
1.18994E-12 1.47962E-09
1.71346E-12 1.44480E-09
2.33225E-12 1.40513E-09
3.04617E-12 1.36126E-09
3.85530E-12 1.31387E-09
4.75964E-12 1.26364E-09
5.75917E-12 1.21126E-09
6.85391E-12 1.15737E-09
8.04379E-12 1.10263E-09
9.32893E-12 1.04754E-09
1.07092E-11 9.92712E-10
1.21847E-11 9.38504E-10
1.37554E-11 8.84009E-10
1.54213E-11 8.31541E-10
1.71823E-11 7.81807E-10
1.90386E-11 7.34863E-10
2.09900E-11 6.88213E-10
2.30367E-11 6.43610E-10
2.51785E-11 6.02005E-10
2.74156E-11 5.63278E-10
2.97478E-11 5.25745E-10
3.21752E-11 4.90213E-10
3.46979E-11 4.57354E-10
3.73157E-11 4.26993E-10
4.00286E-11 3.98107E-10
4.28368E-11 3.70944E-10
4.57402E-11 3.45921E-10
4.87388E-11 3.22871E-10
5.18325E-11 3.01218E-10
5.50215E-11 2.80950E-10
5.83057E-11 2.62294E-10
6.16850E-11 2.45116E-10
6.51595E-11 2.29103E-10
6.87293E-11 2.14164E-10
7.23943E-11 2.00397E-10
7.61544E-11 1.87703E-10
1.18991E-10 1.01788E-10
1.71347E-10 6.03565E-11
2.33223E-10 3.88650E-11
3.04617E-10 2.67263E-11
3.85531E-10 1.92931E-11
4.75965E-10 1.44172E-11
5.75917E-10 1.10439E-11
6.85389E-10 8.60911E-12
8.04380E-10 6.80532E-12
9.32891E-10 5.43531E-12
1.07092E-09 4.38222E-12
1.21847E-09 3.55987E-12
1.37554E-09 2.90665E-12
1.54213E-09 2.39946E-12
1.71823E-09 1.98819E-12
1.90386E-09 1.65961E-12
2.09900E-09 1.39452E-12
2.30367E-09 1.17673E-12
2.51785E-09 9.99735E-13
2.74156E-09 8.53473E-13
2.97478E-09 7.32427E-13
3.21752E-09 6.32000E-13
3.46978E-09 5.47584E-13
3.73156E-09 4.76824E-13
4.00286E-09 4.17026E-13
4.28368E-09 3.66214E-13
4.57402E-09 3.22945E-13
4.87388E-09 2.85835E-13
5.18326E-09 2.53928E-13
5.50215E-09 2.26378E-13
5.83057E-09 2.02462E-13
6.16850E-09 1.81657E-13
6.51596E-09 1.63472E-13
6.87293E-09 1.47524E-13
7.23942E-09 1.33498E-13
7.61544E-09 1.21109E-13
1.18991E-08 5.14374E-14
1.71347E-08 2.55717E-14
2.33223E-08 1.41355E-14
3.04617E-08 8.43573E-15
3.85531E-08 5.33662E-15
4.75965E-08 3.53567E-15
5.75917E-08 2.43237E-15
6.85389E-08 1.72665E-15
8.04380E-08 1.25864E-15
9.32891E-08 9.38617E-16
1.07092E-07 7.13925E-16
1.21847E-07 5.52492E-16
1.37554E-07 4.34137E-16
1.54213E-07 3.45795E-16
1.71823E-07 2.78796E-16
1.90386E-07 2.27245E-16
2.09900E-07 1.87065E-16
2.30367E-07 1.55377E-16
2.51785E-07 1.30118E-16
2.74156E-07 1.09786E-16
2.97478E-07 9.32720E-17
3.21752E-07 7.97476E-17
3.46978E-07 6.85868E-17
3.73156E-07 5.93110E-17
4.00286E-07 5.15509E-17
4.28368E-07 4.50190E-17
4.57402E-07 3.94892E-17
4.87388E-07 3.47828E-17
5.18325E-07 3.07569E-17
5.50215E-07 2.72968E-17
5.83057E-07 2.43097E-17
6.16850E-07 2.17202E-17
6.51596E-07 1.94665E-17
6.87293E-07 1.74975E-17
7.23942E-07 1.57713E-17
7.61543E-07 1.42527E-17
1.18991E-06 5.83851E-18
1.71347E-06 2.81549E-18
2.33223E-06 1.51964E-18
3.04617E-06 8.90733E-19
3.85531E-06 5.56045E-19
4.75964E-06 3.64798E-19
5.75916E-06 2.49146E-19
6.85388E-06 1.75902E-19
8.04378E-06 1.27701E-19
9.32888E-06 9.49351E-20
1.07092E-05 7.20353E-20
1.21846E-05 5.56419E-20
1.37553E-05 4.36574E-20
1.54212E-05 3.47324E-20
1.71822E-05 2.79758E-20
1.90385E-05 2.27861E-20
2.09899E-05 1.87453E-20
2.30365E-05 1.55612E-20
2.51783E-05 1.30250E-20
2.74153E-05 1.09850E-20
2.97475E-05 9.32925E-21
3.21749E-05 7.97410E-21
3.46974E-05 6.85640E-21
3.73152E-05 5.92788E-21
4.00281E-05 5.15134E-21
4.28362E-05 4.49784E-21
4.57395E-05 3.94470E-21
4.87380E-05 3.47399E-21
5.18317E-05 3.07141E-21
5.50205E-05 2.72548E-21
5.83045E-05 2.42691E-21
6.16838E-05 2.16814E-21
6.51582E-05 1.94297E-21
6.87277E-05 1.74628E-21
7.23925E-05 1.57386E-21
7.61524E-05 1.41854E-21
9.21439E-05 9.68043E-22
1.09658E-04 6.82890E-22
1.28695E-04 4.95314E-22
1.49255E-04 3.67868E-22
1.71338E-04 2.78848E-22
1.94942E-04 2.15153E-22
2.20070E-04 1.68618E-22
2.46720E-04 1.33984E-22
2.74892E-04 1.07781E-22
3.04586E-04 8.76652E-23
3.35803E-04 7.20160E-23
3.68542E-04 5.96967E-23
4.02802E-04 4.98923E-23
4.38585E-04 4.20125E-23
4.75889E-04 3.56216E-23
5.14715E-04 3.03950E-23
5.55063E-04 2.60876E-23
5.96931E-04 2.25125E-23
6.40321E-04 1.95255E-23
6.85233E-04 1.70145E-23
7.31665E-04 1.48916E-23
7.79618E-04 1.30871E-23
8.29092E-04 1.15455E-23
8.80086E-04 1.02224E-23
9.32601E-04 9.08167E-24
9.86636E-04 8.09414E-24
1.04219E-03 7.23583E-24
1.09927E-03 6.48705E-24
1.15786E-03 5.83152E-24
1.21797E-03 5.25569E-24
1.27961E-03 4.74828E-24
1.34276E-03 4.29980E-24
1.40743E-03 3.90227E-24
1.47362E-03 3.54894E-24
1.54133E-03 3.23406E-24
1.61056E-03 2.95276E-24
1.68131E-03 2.70085E-24
1.75357E-03 2.47475E-24
1.82735E-03 2.27137E-24
1.90265E-03 2.08805E-24
1.97947E-03 1.92247E-24
2.05780E-03 1.77263E-24
2.13765E-03 1.63679E-24
2.21902E-03 1.51340E-24
2.30190E-03 1.40115E-24
2.38630E-03 1.29886E-24
2.47222E-03 1.20549E-24
2.55965E-03 1.12015E-24
2.64859E-03 1.04201E-24
2.73905E-03 9.70374E-25
2.83103E-03 9.04609E-25
2.92452E-03 8.44154E-25
3.01952E-03 7.88507E-25
3.11604E-03 7.37223E-25
3.21407E-03 6.89903E-25
3.31362E-03 6.46190E-25
3.41468E-03 6.05763E-25
3.51725E-03 5.68334E-25
3.62133E-03 5.33644E-25
3.72692E-03 5.01460E-25
3.83403E-03 4.71570E-25
3.94265E-03 4.43785E-25
4.05278E-03 4.17933E-25
4.16442E-03 3.93856E-25
4.27757E-03 3.71413E-25
4.39223E-03 3.50474E-25
4.50840E-03 3.30924E-25
4.62608E-03 3.12655E-25
4.74527E-03 2.95568E-25
4.86597E-03 2.79577E-25
4.98817E-03 2.64598E-25
5.11188E-03 2.50558E-25
5.23711E-03 2.37389E-25
5.36383E-03 2.25028E-25
5.49207E-03 2.13417E-25
5.62181E-03 2.02504E-25
5.75306E-03 1.92240E-25
5.88581E-03 1.82581E-25
6.02007E-03 1.73485E-25
6.15583E-03 1.64915E-25
6.29310E-03 1.56835E-25
6.43187E-03 1.49214E-25
6.57214E-03 1.42020E-25
6.71392E-03 1.35227E-25
6.85720E-03 1.28808E-25
7.00198E-03 1.22740E-25
7.14827E-03 1.17001E-25
7.29605E-03 1.11571E-25
7.44534E-03 1.06429E-25
7.59612E-03 1.01560E-25
7.97965E-03 9.04684E-26
8.37255E-03 8.07467E-26
8.77480E-03 7.22032E-26
9.18641E-03 6.46764E-26
9.60736E-03 5.80297E-26
1.00376E-02 5.21471E-26
1.04773E-02 4.69297E-26
1.09262E-02 4.22931E-26
1.13844E-02 3.81646E-26
1.18520E-02 3.44820E-26
1.23288E-02 3.11913E-26
1.28150E-02 2.82460E-26
1.33104E-02 2.56058E-26
1.38150E-02 2.32355E-26
1.43290E-02 2.11045E-26
1.48521E-02 1.91860E-26
1.53845E-02 1.74566E-26
1.59262E-02 1.58958E-26
1.64770E-02 1.44855E-26
1.70371E-02 1.32097E-26
1.76063E-02 1.20544E-26
1.81848E-02 1.10071E-26
1.87724E-02 1.00568E-26
1.93692E-02 9.19380E-27
1.99751E-02 8.40930E-27
2.05901E-02 7.69559E-27
2.12143E-02 7.04576E-27
2.18476E-02 6.45364E-27
2.24900E-02 5.91373E-27
2.31415E-02 5.42108E-27
2.38021E-02 4.97125E-27
2.44717E-02 4.56027E-27
2.51504E-02 4.18457E-27
2.58382E-02 3.84092E-27
2.65349E-02 3.52642E-27
2.72407E-02 3.23845E-27
2.79555E-02 2.97465E-27
2.86793E-02 2.73289E-27
2.94120E-02 2.51123E-27
3.01537E-02 2.30791E-27
3.09043E-02 2.12136E-27
3.16639E-02 1.95012E-27
3.24324E-02 1.79289E-27
3.32098E-02 1.64847E-27
3.39961E-02 1.51579E-27
3.47912E-02 1.39387E-27
3.55952E-02 1.28179E-27
3.64081E-02 1.17874E-27
3.72297E-02 1.08398E-27
3.80602E-02 9.96823E-28
3.88995E-02 9.16644E-28
3.97476E-02 8.42875E-28
4.06044E-02 7.74994E-28
4.14700E-02 7.12524E-28
4.23443E-02 6.55028E-28
4.32273E-02 6.02106E-28
4.41190E-02 5.53391E-28
4.50194E-02 5.08547E-28
4.59284E-02 4.67264E-28
4.68461E-02 4.29260E-28
4.87074E-02 3.62067E-28
5.06030E-02 3.05128E-28
5.25328E-02 2.56890E-28
5.44967E-02 2.16037E-28
5.64946E-02 1.81455E-28
5.85262E-02 1.52199E-28
6.05914E-02 1.27466E-28
6.26901E-02 1.06575E-28
6.48222E-02 8.89460E-29
6.69873E-02 7.40866E-29
6.91854E-02 6.15773E-29
7.14163E-02 5.10610E-29
7.36799E-02 4.22338E-29
7.59760E-02 3.48373E-29
7.83043E-02 2.86510E-29
8.06647E-02 2.34878E-29
8.30571E-02 1.91882E-29
8.54812E-02 1.56167E-29
8.79369E-02 1.26580E-29
9.04240E-02 1.02144E-29
9.29422E-02 8.20277E-30
9.54915E-02 6.55279E-30
9.80716E-02 5.20485E-30
1.00682E-01 4.10856E-30
1.03323E-01 3.22134E-30
1.05995E-01 2.50730E-30
1.08696E-01 1.93622E-30
1.11427E-01 1.48271E-30
1.14188E-01 1.12550E-30
1.16978E-01 8.46775E-31
1.19797E-01 6.31700E-31
1.22645E-01 4.67924E-31
1.25522E-01 3.45212E-31
1.28428E-01 2.55108E-31
1.31361E-01 1.90657E-31
1.34323E-01 1.46165E-31
1.37313E-01 1.16991E-31
1.40330E-01 9.93797E-32
1.43375E-01 9.03077E-32
1.46447E-01 8.73639E-32
1.49545E-01 8.86418E-32
1.52671E-01 9.26513E-32
1.55823E-01 9.82430E-32
1.59001E-01 1.04546E-31
1.62205E-01 1.10915E-31
1.65435E-01 1.16885E-31
1.68690E-01 1.22137E-31
1.71970E-01 1.26465E-31
1.75276E-01 1.29753E-31
1.78606E-01 1.31953E-31
1.81961E-01 1.33069E-31
1.85340E-01 1.33141E-31
1.88743E-01 1.32237E-31
1.92169E-01 1.30445E-31
1.95619E-01 1.27859E-31
1.99092E-01 1.24582E-31
2.02589E-01 1.20717E-31
2.06107E-01 1.16366E-31
2.09649E-01 1.11625E-31
2.13212E-01 1.06586E-31
2.16797E-01 1.01333E-31
2.20404E-01 9.59415E-32
2.24032E-01 9.04805E-32
2.27680E-01 8.50102E-32
2.31350E-01 7.95834E-32
2.35040E-01 7.42450E-32
2.38751E-01 6.90331E-32
2.42481E-01 6.39788E-32
2.46231E-01 5.91076E-32
2.50000E-01 5.44391E-32
2.53788E-01 4.99881E-32
2.57595E-01 4.57649E-32
2.61421E-01 4.17758E-32
2.65264E-01 3.80241E-32
2.69126E-01 3.45096E-32
2.73005E-01 3.12301E-32
2.76901E-01 2.81812E-32
2.80814E-01 2.53567E-32
2.84744E-01 2.27491E-32
2.88691E-01 2.03497E-32
2.92653E-01 1.81492E-32
2.96632E-01 1.61376E-32
3.00625E-01 1.43046E-32
3.04634E-01 1.26394E-32
3.08658E-01 1.11316E-32
3.12697E-01 9.77057E-33
3.16749E-01 8.54591E-33
3.20816E-01 7.44749E-33
3.24896E-01 6.46552E-33
3.28990E-01 5.59059E-33
3.33097E-01 4.81370E-33
3.37216E-01 4.12631E-33
3.41348E-01 3.52035E-33
3.45492E-01 2.98822E-33
3.49647E-01 2.52281E-33
3.53814E-01 2.11750E-33
3.57992E-01 1.76612E-33
3.62181E-01 1.46300E-33
3.66381E-01 1.20289E-33
3.70590E-01 9.80957E-34
3.74810E-01 7.92812E-34
3.79039E-01 6.34433E-34
3.83277E-01 5.02173E-34
3.87524E-01 3.92726E-34
3.91780E-01 3.03113E-34
3.96044E-01 2.30655E-34
4.00316E-01 1.72952E-34
4.04596E-01 1.27861E-34
4.08882E-01 9.34770E-35
4.13176E-01 6.81145E-35
4.17476E-01 5.02854E-35
4.21783E-01 3.86827E-35
4.26095E-01 3.21655E-35
4.30413E-01 2.97396E-35
4.34737E-01 3.05463E-35
4.39065E-01 3.38462E-35
4.43398E-01 3.90076E-35
4.47736E-01 4.54955E-35
4.52077E-01 5.28584E-35
4.56422E-01 6.07212E-35
4.60770E-01 6.87746E-35
4.65122E-01 7.67675E-35
4.69476E-01 8.44981E-35
4.73832E-01 9.18103E-35
4.78190E-01 9.85832E-35
4.82550E-01 1.04730E-34
4.86912E-01 1.10193E-34
4.91274E-01 1.14933E-34
4.95637E-01 1.18934E-34
5.00000E-01 1.22195E-34
5.04363E-01 1.24727E-34
5.08726E-01 1.26552E-34
5.13088E-01 1.27702E-34
5.17450E-01 1.28213E-34
5.21810E-01 1.28125E-34
5.26168E-01 1.27484E-34
5.30524E-01 1.26335E-34
5.34878E-01 1.24726E-34
5.39230E-01 1.22705E-34
5.43578E-01 1.20317E-34
5.47923E-01 1.17609E-34
5.52264E-01 1.14624E-34
5.56602E-01 1.11403E-34
5.60935E-01 1.07988E-34
5.65263E-01 1.04415E-34
5.69587E-01 1.00719E-34
5.73905E-01 9.69314E-35
5.78217E-01 9.30824E-35
5.82524E-01 8.91983E-35
5.86824E-01 8.53045E-35
5.91118E-01 8.14222E-35
5.95404E-01 7.75702E-35
5.99684E-01 7.37679E-35
6.03956E-01 7.00280E-35
6.08220E-01 6.63650E-35
6.12476E-01 6.27894E-35
6.16723E-01 5.93112E-35
6.20961E-01 5.59372E-35
6.25190E-01 5.26745E-35
6.29410E-01 4.95276E-35
6.33619E-01 4.65005E-35
6.37819E-01 4.35950E-35
6.42008E-01 4.08131E-35
6.46186E-01 3.81551E-35
6.50353E-01 3.56211E-35
6.54508E-01 3.32101E-35
6.58652E-01 3.09201E-35
6.62784E-01 2.87498E-35
6.66903E-01 2.66957E-35
6.71010E-01 2.47560E-35
6.75104E-01 2.29267E-35
6.79184E-01 2.12045E-35
6.83251E-01 1.95859E-35
6.87303E-01 1.80668E-35
6.91342E-01 1.66435E-35
6.95366E-01 1.53119E-35
6.99375E-01 1.40679E-35
7.03368E-01 1.29074E-35
7.07347E-01 1.18264E-35
7.11309E-01 1.08211E-35
7.15256E-01 9.88712E-36
7.19186E-01 9.02097E-36
7.23099E-01 8.21866E-36
7.26995E-01 7.47655E-36
7.30874E-01 6.79126E-36
7.34736E-01 6.15910E-36
7.38579E-01 5.57692E-36
7.42405E-01 5.04145E-36
7.46212E-01 4.54975E-36
7.50000E-01 4.09883E-36
7.53769E-01 3.68603E-36
7.57519E-01 3.30847E-36
7.61249E-01 2.96392E-36
7.64960E-01 2.64981E-36
7.68650E-01 2.36405E-36
7.72320E-01 2.10440E-36
7.75968E-01 1.86895E-36
7.79596E-01 1.65582E-36
7.83203E-01 1.46319E-36
7.86788E-01 1.28947E-36
7.90351E-01 1.13313E-36
7.93893E-01 9.92695E-37
7.97411E-01 8.66837E-37
8.00908E-01 7.54287E-37
8.04381E-01 6.53916E-37
8.07831E-01 5.64634E-37
8.11257E-01 4.85439E-37
8.14660E-01 4.15389E-37
8.18039E-01 3.53652E-37
8.21394E-01 2.99422E-37
8.24724E-01 2.51981E-37
8.28030E-01 2.10644E-37
8.31310E-01 1.74798E-37
8.34565E-01 1.43885E-37
8.37795E-01 1.17380E-37
8.40999E-01 9.48088E-38
8.44177E-01 7.57413E-38
8.47329E-01 5.97784E-38
8.50455E-01 4.65599E-38
8.53553E-01 3.57617E-38
8.56625E-01 2.70895E-38
8.59670E-01 2.02682E-38
8.62687E-01 1.50596E-38
8.65677E-01 1.12534E-38
8.68639E-01 8.63988E-39
8.71572E-01 7.04781E-39
8.74478E-01 6.31460E-39
8.77355E-01 6.30588E-39
8.80203E-01 6.91068E-39
8.83022E-01 7.98892E-39
8.85812E-01 9.44962E-39
8.88573E-01 1.12323E-38
8.91304E-01 1.32202E-38
8.94005E-01 1.53864E-38
8.96677E-01 1.76532E-38
8.99318E-01 1.99666E-38
9.01928E-01 2.22968E-38
9.04508E-01 2.45950E-38
9.07058E-01 2.68471E-38
9.09576E-01 2.90141E-38
9.12063E-01 3.10777E-38
9.14519E-01 3.30149E-38
9.16943E-01 3.48268E-38
9.19335E-01 3.64851E-38
9.21696E-01 3.80030E-38
9.24024E-01 3.93548E-38
9.26320E-01 4.05402E-38
9.28584E-01 4.15845E-38
9.30815E-01 4.24574E-38
9.33013E-01 4.31726E-38
9.35178E-01 4.37230E-38
9.37310E-01 4.41594E-38
9.39409E-01 4.44243E-38
9.41474E-01 4.45528E-38
9.43505E-01 4.45337E-38
9.45503E-01 4.44214E-38
9.47467E-01 4.41449E-38
9.49397E-01 4.37737E-38
9.51293E-01 4.33043E-38
9.53154E-01 4.27286E-38
9.54981E-01 4.20512E-38
9.56773E-01 4.13082E-38
9.58530E-01 4.04713E-38
9.60252E-01 3.95849E-38
9.61940E-01 3.86213E-38
9.63592E-01 3.76134E-38
9.65209E-01 3.65472E-38
9.66790E-01 3.54403E-38
9.68336E-01 3.42947E-38
9.69846E-01 3.31318E-38
9.71321E-01 3.19261E-38
9.72759E-01 3.06938E-38
9.74162E-01 2.94562E-38
9.75528E-01 2.82220E-38
9.76858E-01 2.69647E-38
9.78152E-01 2.57050E-38
9.79410E-01 2.44414E-38
9.80631E-01 2.32073E-38
9.81815E-01 2.19524E-38
9.82963E-01 2.07350E-38
9.84074E-01 1.95096E-38
9.85148E-01 1.83207E-38
9.86185E-01 1.71428E-38
9.87185E-01 1.60042E-38
9.88148E-01 1.48752E-38
9.89074E-01 1.37818E-38
9.89962E-01 1.27159E-38
9.90814E-01 1.16896E-38
9.91627E-01 1.06950E-38
9.92404E-01 9.74246E-39
9.93143E-01 8.82002E-39
9.93844E-01 7.94091E-39
9.94508E-01 7.10375E-39
9.95134E-01 6.31210E-39
9.95722E-01 5.56115E-39
9.96273E-01 4.85825E-39
9.96786E-01 4.19181E-39
9.97261E-01 3.58764E-39
9.97698E-01 3.00985E-39
9.98097E-01 2.49858E-39
9.98459E-01 2.02402E-39
9.98782E-01 1.60097E-39
9.99067E-01 1.23155E-39
9.99315E-01 9.02668E-40
9.99524E-01 6.30502E-40
9.99695E-01 4.02861E-40
9.99829E-01 2.29739E-40
9.99924E-01 1.03866E-40
9.99981E-01 2.94932E-41
1.00000E+00 5.00048E-42
