 #
 # Subroutine ELSEPA. Elastic scattering of electrons and positrons
 #                    by neutral atoms and positive ions
 #
 # Projectile: positron
 # Kinetic energy = 3.00000E+07 eV = 1.10248E+06 a.u.
 #
 # WARNING: High-energy factorization with free-atom DF screening.
 #          Absorption, polarization and exchange corrections are
 #          switched off.
 #          Phase shifts are calculated for the bare nucleus.
 #          Scattering amplitudes are not evaluated.
 #
 # Element: Si,  Z =  14,  atomic weight = 2.80855E+01 g/mol
 #
 # Nuclear model: Fermi distribution
 #                Average radius = 3.25245E-13 cm
 #                Skin thickness = 5.46000E-14 cm
 #
 # Number of electrons = 14
 #
 # Total elastic cross section = 8.88993E-19 cm**2 = 3.17465E-02 a0**2
 # 1st transport cross section = 4.03388E-25 cm**2 = 1.44053E-08 a0**2
 # 2nd transport cross section = 1.17582E-24 cm**2 = 4.19892E-08 a0**2
 #
 #
 # Differential cross section:                       MU=(1-COS(THETA))/2
 #
 #  THETA        MU          DCS          DCS        Sherman      error
 #  (deg)                 (cm**2/sr)   (a0**2/sr)    function
 #----------------------------------------------------------------------
0.00000E+00 1.18463E-11
7.61557E-13 1.18431E-11
1.18994E-12 1.18412E-11
1.71346E-12 1.18390E-11
2.33225E-12 1.18364E-11
3.04617E-12 1.18334E-11
3.85530E-12 1.18300E-11
4.75964E-12 1.18262E-11
5.75917E-12 1.18220E-11
6.85391E-12 1.18174E-11
8.04379E-12 1.18124E-11
9.32893E-12 1.18070E-11
1.07092E-11 1.18012E-11
1.21847E-11 1.17951E-11
1.37554E-11 1.17885E-11
1.54213E-11 1.17816E-11
1.71823E-11 1.17742E-11
1.90386E-11 1.17665E-11
2.09900E-11 1.17583E-11
2.30367E-11 1.17498E-11
2.51785E-11 1.17409E-11
2.74156E-11 1.17317E-11
2.97478E-11 1.17220E-11
3.21752E-11 1.17119E-11
3.46979E-11 1.17015E-11
3.73157E-11 1.16907E-11
4.00286E-11 1.16795E-11
4.28368E-11 1.16680E-11
4.57402E-11 1.16560E-11
4.87388E-11 1.16437E-11
5.18325E-11 1.16311E-11
5.50215E-11 1.16180E-11
5.83057E-11 1.16046E-11
6.16850E-11 1.15908E-11
6.51595E-11 1.15767E-11
6.87293E-11 1.15622E-11
7.23943E-11 1.15473E-11
7.61544E-11 1.15321E-11
1.18991E-10 1.13607E-11
1.71347E-10 1.11562E-11
2.33223E-10 1.09212E-11
3.04617E-10 1.06587E-11
3.85531E-10 1.03720E-11
4.75965E-10 1.00643E-11
5.75917E-10 9.73926E-12
6.85389E-10 9.40021E-12
8.04380E-10 9.05051E-12
9.32891E-10 8.69335E-12
1.07092E-09 8.33167E-12
1.21847E-09 7.96843E-12
1.37554E-09 7.60625E-12
1.54213E-09 7.24742E-12
1.71823E-09 6.88923E-12
1.90386E-09 6.53398E-12
2.09900E-09 6.19406E-12
2.30367E-09 5.86996E-12
2.51785E-09 5.56190E-12
2.74156E-09 5.25381E-12
2.97478E-09 4.95612E-12
3.21752E-09 4.67577E-12
3.46978E-09 4.41222E-12
3.73156E-09 4.16428E-12
4.00286E-09 3.91703E-12
4.28368E-09 3.68589E-12
4.57402E-09 3.46998E-12
4.87388E-09 3.26843E-12
5.18326E-09 3.07686E-12
5.50215E-09 2.89262E-12
5.83057E-09 2.72107E-12
6.16850E-09 2.56136E-12
6.51596E-09 2.41267E-12
6.87293E-09 2.27064E-12
7.23942E-09 2.13708E-12
7.61544E-09 2.01282E-12
1.18991E-08 1.13554E-12
1.71347E-08 6.81405E-13
2.33223E-08 4.37638E-13
3.04617E-08 2.98950E-13
3.85531E-08 2.14733E-13
4.75965E-08 1.60327E-13
5.75917E-08 1.23236E-13
6.85389E-08 9.67868E-14
8.04380E-08 7.72449E-14
9.32891E-08 6.24078E-14
1.07092E-07 5.09055E-14
1.21847E-07 4.18617E-14
1.37554E-07 3.46644E-14
1.54213E-07 2.88820E-14
1.71823E-07 2.41657E-14
1.90386E-07 2.03478E-14
2.09900E-07 1.72341E-14
2.30367E-07 1.46651E-14
2.51785E-07 1.25328E-14
2.74156E-07 1.07670E-14
2.97478E-07 9.28146E-15
3.21752E-07 8.04420E-15
3.46978E-07 6.99213E-15
3.73156E-07 6.10913E-15
4.00286E-07 5.35269E-15
4.28368E-07 4.71130E-15
4.57402E-07 4.15954E-15
4.87388E-07 3.68662E-15
5.18325E-07 3.27771E-15
5.50215E-07 2.92397E-15
5.83057E-07 2.61634E-15
6.16850E-07 2.34807E-15
6.51596E-07 2.11338E-15
6.87293E-07 1.90725E-15
7.23942E-07 1.72587E-15
7.61543E-07 1.56551E-15
1.18991E-06 6.63631E-16
1.71347E-06 3.29836E-16
2.33223E-06 1.82633E-16
3.04617E-06 1.09277E-16
3.85531E-06 6.93208E-17
4.75964E-06 4.60444E-17
5.75916E-06 3.17466E-17
6.85388E-06 2.25770E-17
8.04378E-06 1.64824E-17
9.32888E-06 1.23066E-17
1.07092E-05 9.36973E-18
1.21846E-05 7.25676E-18
1.37553E-05 5.70581E-18
1.54212E-05 4.54705E-18
1.71822E-05 3.66749E-18
1.90385E-05 2.99048E-18
2.09899E-05 2.46239E-18
2.30365E-05 2.04566E-18
2.51783E-05 1.71333E-18
2.74153E-05 1.44574E-18
2.97475E-05 1.22836E-18
3.21749E-05 1.05032E-18
3.46974E-05 9.03386E-19
3.73152E-05 7.81256E-19
4.00281E-05 6.79070E-19
4.28362E-05 5.93042E-19
4.57395E-05 5.20201E-19
4.87380E-05 4.58196E-19
5.18317E-05 4.05152E-19
5.50205E-05 3.59562E-19
5.83045E-05 3.20206E-19
6.16838E-05 2.86090E-19
6.51582E-05 2.56398E-19
6.87277E-05 2.30460E-19
7.23925E-05 2.07718E-19
7.61524E-05 1.87709E-19
9.21439E-05 1.28193E-19
1.09658E-04 9.05008E-20
1.28695E-04 6.56937E-20
1.49255E-04 4.88289E-20
1.71338E-04 3.70436E-20
1.94942E-04 2.86076E-20
2.20070E-04 2.24416E-20
2.46720E-04 1.78501E-20
2.74892E-04 1.43748E-20
3.04586E-04 1.17053E-20
3.35803E-04 9.62735E-21
3.68542E-04 7.99058E-21
4.02802E-04 6.68714E-21
4.38585E-04 5.63885E-21
4.75889E-04 4.78805E-21
5.14715E-04 4.09173E-21
5.55063E-04 3.51746E-21
5.96931E-04 3.04042E-21
6.40321E-04 2.64154E-21
6.85233E-04 2.30593E-21
7.31665E-04 2.02193E-21
7.79618E-04 1.78031E-21
8.29092E-04 1.57369E-21
8.80086E-04 1.39618E-21
9.32601E-04 1.24299E-21
9.86636E-04 1.11022E-21
1.04219E-03 9.94706E-22
1.09927E-03 8.93815E-22
1.15786E-03 8.05387E-22
1.21797E-03 7.27618E-22
1.27961E-03 6.59005E-22
1.34276E-03 5.98283E-22
1.40743E-03 5.44390E-22
1.47362E-03 4.96425E-22
1.54133E-03 4.53621E-22
1.61056E-03 4.15329E-22
1.68131E-03 3.80988E-22
1.75357E-03 3.50120E-22
1.82735E-03 3.22312E-22
1.90265E-03 2.97207E-22
1.97947E-03 2.74497E-22
2.05780E-03 2.53912E-22
2.13765E-03 2.35218E-22
2.21902E-03 2.18212E-22
2.30190E-03 2.02712E-22
2.38630E-03 1.88563E-22
2.47222E-03 1.75625E-22
2.55965E-03 1.63776E-22
2.64859E-03 1.52909E-22
2.73905E-03 1.42926E-22
2.83103E-03 1.33744E-22
2.92452E-03 1.25287E-22
3.01952E-03 1.17486E-22
3.11604E-03 1.10282E-22
3.21407E-03 1.03621E-22
3.31362E-03 9.74540E-23
3.41468E-03 9.17386E-23
3.51725E-03 8.64353E-23
3.62133E-03 8.15090E-23
3.72692E-03 7.69281E-23
3.83403E-03 7.26639E-23
3.94265E-03 6.86905E-23
4.05278E-03 6.49845E-23
4.16442E-03 6.15245E-23
4.27757E-03 5.82914E-23
4.39223E-03 5.52674E-23
4.50840E-03 5.24365E-23
4.62608E-03 4.97842E-23
4.74527E-03 4.72972E-23
4.86597E-03 4.49631E-23
4.98817E-03 4.27710E-23
5.11188E-03 4.07105E-23
5.23711E-03 3.87723E-23
5.36383E-03 3.69479E-23
5.49207E-03 3.52292E-23
5.62181E-03 3.36091E-23
5.75306E-03 3.20808E-23
5.88581E-03 3.06381E-23
6.02007E-03 2.92755E-23
6.15583E-03 2.79876E-23
6.29310E-03 2.67695E-23
6.43187E-03 2.56168E-23
6.57214E-03 2.45253E-23
6.71392E-03 2.34912E-23
6.85720E-03 2.25109E-23
7.00198E-03 2.15810E-23
7.14827E-03 2.06985E-23
7.29605E-03 1.98605E-23
7.44534E-03 1.90644E-23
7.59612E-03 1.83076E-23
7.97965E-03 1.65732E-23
8.37255E-03 1.50389E-23
8.77480E-03 1.36775E-23
9.18641E-03 1.24663E-23
9.60736E-03 1.13858E-23
1.00376E-02 1.04194E-23
1.04773E-02 9.55315E-24
1.09262E-02 8.77473E-24
1.13844E-02 8.07372E-24
1.18520E-02 7.44107E-24
1.23288E-02 6.86896E-24
1.28150E-02 6.35058E-24
1.33104E-02 5.87999E-24
1.38150E-02 5.45201E-24
1.43290E-02 5.06210E-24
1.48521E-02 4.70629E-24
1.53845E-02 4.38105E-24
1.59262E-02 4.08330E-24
1.64770E-02 3.81030E-24
1.70371E-02 3.55963E-24
1.76063E-02 3.32913E-24
1.81848E-02 3.11690E-24
1.87724E-02 2.92122E-24
1.93692E-02 2.74058E-24
1.99751E-02 2.57362E-24
2.05901E-02 2.41910E-24
2.12143E-02 2.27595E-24
2.18476E-02 2.14316E-24
2.24900E-02 2.01987E-24
2.31415E-02 1.90525E-24
2.38021E-02 1.79861E-24
2.44717E-02 1.69927E-24
2.51504E-02 1.60665E-24
2.58382E-02 1.52022E-24
2.65349E-02 1.43948E-24
2.72407E-02 1.36400E-24
2.79555E-02 1.29336E-24
2.86793E-02 1.22720E-24
2.94120E-02 1.16519E-24
3.01537E-02 1.10702E-24
3.09043E-02 1.05240E-24
3.16639E-02 1.00109E-24
3.24324E-02 9.52840E-25
3.32098E-02 9.07439E-25
3.39961E-02 8.64689E-25
3.47912E-02 8.24405E-25
3.55952E-02 7.86420E-25
3.64081E-02 7.50578E-25
3.72297E-02 7.16738E-25
3.80602E-02 6.84766E-25
3.88995E-02 6.54540E-25
3.97476E-02 6.25949E-25
4.06044E-02 5.98887E-25
4.14700E-02 5.73257E-25
4.23443E-02 5.48971E-25
4.32273E-02 5.25944E-25
4.41190E-02 5.04100E-25
4.50194E-02 4.83367E-25
4.59284E-02 4.63677E-25
4.68461E-02 4.44969E-25
4.87074E-02 4.10271E-25
5.06030E-02 3.78855E-25
5.25328E-02 3.50356E-25
5.44967E-02 3.24457E-25
5.64946E-02 3.00880E-25
5.85262E-02 2.79380E-25
6.05914E-02 2.59743E-25
6.26901E-02 2.41780E-25
6.48222E-02 2.25323E-25
6.69873E-02 2.10223E-25
6.91854E-02 1.96350E-25
7.14163E-02 1.83587E-25
7.36799E-02 1.71828E-25
7.59760E-02 1.60982E-25
7.83043E-02 1.50966E-25
8.06647E-02 1.41704E-25
8.30571E-02 1.33130E-25
8.54812E-02 1.25183E-25
8.79369E-02 1.17811E-25
9.04240E-02 1.10964E-25
9.29422E-02 1.04599E-25
9.54915E-02 9.86745E-26
9.80716E-02 9.31560E-26
1.00682E-01 8.80104E-26
1.03323E-01 8.32082E-26
1.05995E-01 7.87224E-26
1.08696E-01 7.45286E-26
1.11427E-01 7.06045E-26
1.14188E-01 6.69296E-26
1.16978E-01 6.34853E-26
1.19797E-01 6.02548E-26
1.22645E-01 5.72224E-26
1.25522E-01 5.43738E-26
1.28428E-01 5.16959E-26
1.31361E-01 4.91768E-26
1.34323E-01 4.68054E-26
1.37313E-01 4.45715E-26
1.40330E-01 4.24658E-26
1.43375E-01 4.04796E-26
1.46447E-01 3.86050E-26
1.49545E-01 3.68346E-26
1.52671E-01 3.51616E-26
1.55823E-01 3.35798E-26
1.59001E-01 3.20832E-26
1.62205E-01 3.06665E-26
1.65435E-01 2.93248E-26
1.68690E-01 2.80533E-26
1.71970E-01 2.68478E-26
1.75276E-01 2.57042E-26
1.78606E-01 2.46188E-26
1.81961E-01 2.35881E-26
1.85340E-01 2.26089E-26
1.88743E-01 2.16783E-26
1.92169E-01 2.07932E-26
1.95619E-01 1.99513E-26
1.99092E-01 1.91499E-26
2.02589E-01 1.83868E-26
2.06107E-01 1.76599E-26
2.09649E-01 1.69672E-26
2.13212E-01 1.63067E-26
2.16797E-01 1.56767E-26
2.20404E-01 1.50756E-26
2.24032E-01 1.45018E-26
2.27680E-01 1.39539E-26
2.31350E-01 1.34305E-26
2.35040E-01 1.29303E-26
2.38751E-01 1.24521E-26
2.42481E-01 1.19949E-26
2.46231E-01 1.15574E-26
2.50000E-01 1.11387E-26
2.53788E-01 1.07380E-26
2.57595E-01 1.03542E-26
2.61421E-01 9.98652E-27
2.65264E-01 9.63422E-27
2.69126E-01 9.29651E-27
2.73005E-01 8.97270E-27
2.76901E-01 8.66212E-27
2.80814E-01 8.36414E-27
2.84744E-01 8.07816E-27
2.88691E-01 7.80362E-27
2.92653E-01 7.53999E-27
2.96632E-01 7.28676E-27
3.00625E-01 7.04345E-27
3.04634E-01 6.80961E-27
3.08658E-01 6.58482E-27
3.12697E-01 6.36866E-27
3.16749E-01 6.16075E-27
3.20816E-01 5.96073E-27
3.24896E-01 5.76824E-27
3.28990E-01 5.58296E-27
3.33097E-01 5.40457E-27
3.37216E-01 5.23277E-27
3.41348E-01 5.06729E-27
3.45492E-01 4.90785E-27
3.49647E-01 4.75419E-27
3.53814E-01 4.60608E-27
3.57992E-01 4.46328E-27
3.62181E-01 4.32557E-27
3.66381E-01 4.19274E-27
3.70590E-01 4.06459E-27
3.74810E-01 3.94093E-27
3.79039E-01 3.82157E-27
3.83277E-01 3.70635E-27
3.87524E-01 3.59510E-27
3.91780E-01 3.48765E-27
3.96044E-01 3.38387E-27
4.00316E-01 3.28359E-27
4.04596E-01 3.18670E-27
4.08882E-01 3.09305E-27
4.13176E-01 3.00252E-27
4.17476E-01 2.91499E-27
4.21783E-01 2.83035E-27
4.26095E-01 2.74848E-27
4.30413E-01 2.66929E-27
4.34737E-01 2.59266E-27
4.39065E-01 2.51851E-27
4.43398E-01 2.44674E-27
4.47736E-01 2.37726E-27
4.52077E-01 2.30999E-27
4.56422E-01 2.24486E-27
4.60770E-01 2.18177E-27
4.65122E-01 2.12066E-27
4.69476E-01 2.06146E-27
4.73832E-01 2.00410E-27
4.78190E-01 1.94850E-27
4.82550E-01 1.89462E-27
4.86912E-01 1.84238E-27
4.91274E-01 1.79174E-27
4.95637E-01 1.74263E-27
5.00000E-01 1.69501E-27
5.04363E-01 1.64881E-27
5.08726E-01 1.60400E-27
5.13088E-01 1.56052E-27
5.17450E-01 1.51834E-27
5.21810E-01 1.47739E-27
5.26168E-01 1.43765E-27
5.30524E-01 1.39908E-27
5.34878E-01 1.36162E-27
5.39230E-01 1.32526E-27
5.43578E-01 1.28994E-27
5.47923E-01 1.25564E-27
5.52264E-01 1.22233E-27
5.56602E-01 1.18996E-27
5.60935E-01 1.15852E-27
5.65263E-01 1.12796E-27
5.69587E-01 1.09827E-27
5.73905E-01 1.06941E-27
5.78217E-01 1.04136E-27
5.82524E-01 1.01409E-27
5.86824E-01 9.87575E-28
5.91118E-01 9.61796E-28
5.95404E-01 9.36726E-28
5.99684E-01 9.12345E-28
6.03956E-01 8.88630E-28
6.08220E-01 8.65562E-28
6.12476E-01 8.43119E-28
6.16723E-01 8.21284E-28
6.20961E-01 8.00037E-28
6.25190E-01 7.79361E-28
6.29410E-01 7.59238E-28
6.33619E-01 7.39652E-28
6.37819E-01 7.20586E-28
6.42008E-01 7.02026E-28
6.46186E-01 6.83955E-28
6.50353E-01 6.66360E-28
6.54508E-01 6.49226E-28
6.58652E-01 6.32540E-28
6.62784E-01 6.16289E-28
6.66903E-01 6.00460E-28
6.71010E-01 5.85041E-28
6.75104E-01 5.70019E-28
6.79184E-01 5.55384E-28
6.83251E-01 5.41125E-28
6.87303E-01 5.27230E-28
6.91342E-01 5.13689E-28
6.95366E-01 5.00493E-28
6.99375E-01 4.87631E-28
7.03368E-01 4.75094E-28
7.07347E-01 4.62873E-28
7.11309E-01 4.50959E-28
7.15256E-01 4.39344E-28
7.19186E-01 4.28020E-28
7.23099E-01 4.16977E-28
7.26995E-01 4.06209E-28
7.30874E-01 3.95709E-28
7.34736E-01 3.85468E-28
7.38579E-01 3.75480E-28
7.42405E-01 3.65737E-28
7.46212E-01 3.56234E-28
7.50000E-01 3.46964E-28
7.53769E-01 3.37920E-28
7.57519E-01 3.29097E-28
7.61249E-01 3.20489E-28
7.64960E-01 3.12090E-28
7.68650E-01 3.03894E-28
7.72320E-01 2.95896E-28
7.75968E-01 2.88091E-28
7.79596E-01 2.80475E-28
7.83203E-01 2.73041E-28
7.86788E-01 2.65786E-28
7.90351E-01 2.58705E-28
7.93893E-01 2.51793E-28
7.97411E-01 2.45046E-28
8.00908E-01 2.38460E-28
8.04381E-01 2.32030E-28
8.07831E-01 2.25753E-28
8.11257E-01 2.19626E-28
8.14660E-01 2.13643E-28
8.18039E-01 2.07802E-28
8.21394E-01 2.02099E-28
8.24724E-01 1.96531E-28
8.28030E-01 1.91094E-28
8.31310E-01 1.85786E-28
8.34565E-01 1.80602E-28
8.37795E-01 1.75540E-28
8.40999E-01 1.70598E-28
8.44177E-01 1.65771E-28
8.47329E-01 1.61058E-28
8.50455E-01 1.56455E-28
8.53553E-01 1.51961E-28
8.56625E-01 1.47572E-28
8.59670E-01 1.43286E-28
8.62687E-01 1.39100E-28
8.65677E-01 1.35013E-28
8.68639E-01 1.31022E-28
8.71572E-01 1.27124E-28
8.74478E-01 1.23318E-28
8.77355E-01 1.19601E-28
8.80203E-01 1.15972E-28
8.83022E-01 1.12428E-28
8.85812E-01 1.08968E-28
8.88573E-01 1.05590E-28
8.91304E-01 1.02291E-28
8.94005E-01 9.90703E-29
8.96677E-01 9.59260E-29
8.99318E-01 9.28564E-29
9.01928E-01 8.98598E-29
9.04508E-01 8.69347E-29
9.07058E-01 8.40795E-29
9.09576E-01 8.12927E-29
9.12063E-01 7.85729E-29
9.14519E-01 7.59187E-29
9.16943E-01 7.33287E-29
9.19335E-01 7.08015E-29
9.21696E-01 6.83360E-29
9.24024E-01 6.59307E-29
9.26320E-01 6.35845E-29
9.28584E-01 6.12961E-29
9.30815E-01 5.90645E-29
9.33013E-01 5.68885E-29
9.35178E-01 5.47671E-29
9.37310E-01 5.26990E-29
9.39409E-01 5.06834E-29
9.41474E-01 4.87192E-29
9.43505E-01 4.68054E-29
9.45503E-01 4.49412E-29
9.47467E-01 4.31255E-29
9.49397E-01 4.13574E-29
9.51293E-01 3.96362E-29
9.53154E-01 3.79610E-29
9.54981E-01 3.63309E-29
9.56773E-01 3.47452E-29
9.58530E-01 3.32031E-29
9.60252E-01 3.17039E-29
9.61940E-01 3.02468E-29
9.63592E-01 2.88311E-29
9.65209E-01 2.74562E-29
9.66790E-01 2.61214E-29
9.68336E-01 2.48260E-29
9.69846E-01 2.35695E-29
9.71321E-01 2.23513E-29
9.72759E-01 2.11707E-29
9.74162E-01 2.00272E-29
9.75528E-01 1.89203E-29
9.76858E-01 1.78495E-29
9.78152E-01 1.68143E-29
9.79410E-01 1.58141E-29
9.80631E-01 1.48485E-29
9.81815E-01 1.39171E-29
9.82963E-01 1.30194E-29
9.84074E-01 1.21550E-29
9.85148E-01 1.13235E-29
9.86185E-01 1.05245E-29
9.87185E-01 9.75768E-30
9.88148E-01 9.02265E-30
9.89074E-01 8.31908E-30
9.89962E-01 7.64665E-30
9.90814E-01 7.00504E-30
9.91627E-01 6.39397E-30
9.92404E-01 5.81315E-30
9.93143E-01 5.26231E-30
9.93844E-01 4.74121E-30
9.94508E-01 4.24960E-30
9.95134E-01 3.78727E-30
9.95722E-01 3.35400E-30
9.96273E-01 2.94959E-30
9.96786E-01 2.57386E-30
9.97261E-01 2.22665E-30
9.97698E-01 1.90779E-30
9.98097E-01 1.61713E-30
9.98459E-01 1.35456E-30
9.98782E-01 1.11994E-30
9.99067E-01 9.13168E-31
9.99315E-01 7.34157E-31
9.99524E-01 5.82823E-31
9.99695E-01 4.59098E-31
9.99829E-01 3.62925E-31
9.99924E-01 2.94261E-31
9.99981E-01 2.53075E-31
1.00000E+00 2.39348E-31
