 #
 # Subroutine ELSEPA. Elastic scattering of electrons and positrons
 #                    by neutral atoms and positive ions
 #
 # Projectile: positron
 # Kinetic energy = 7.00000E+06 eV = 2.57245E+05 a.u.
 #
 # WARNING: High-energy factorization with free-atom DF screening.
 #          Absorption, polarization and exchange corrections are
 #          switched off.
 #          Phase shifts are calculated for the bare nucleus.
 #          Scattering amplitudes are not evaluated.
 #
 # Element: Si,  Z =  14,  atomic weight = 2.80855E+01 g/mol
 #
 # Nuclear model: Fermi distribution
 #                Average radius = 3.25245E-13 cm
 #                Skin thickness = 5.46000E-14 cm
 #
 # Number of electrons = 14
 #
 # Total elastic cross section = 8.92555E-19 cm**2 = 3.18737E-02 a0**2
 # 1st transport cross section = 5.48426E-24 cm**2 = 1.95846E-07 a0**2
 # 2nd transport cross section = 1.58291E-23 cm**2 = 5.65268E-07 a0**2
 #
 #
 # Differential cross section:                       MU=(1-COS(THETA))/2
 #
 #  THETA        MU          DCS          DCS        Sherman      error
 #  (deg)                 (cm**2/sr)   (a0**2/sr)    function
 #----------------------------------------------------------------------
0.00000E+00 7.17903E-13
7.61557E-13 7.17890E-13
1.18994E-12 7.17884E-13
1.71346E-12 7.17875E-13
2.33225E-12 7.17866E-13
3.04617E-12 7.17854E-13
3.85530E-12 7.17842E-13
4.75964E-12 7.17827E-13
5.75917E-12 7.17812E-13
6.85391E-12 7.17795E-13
8.04379E-12 7.17776E-13
9.32893E-12 7.17756E-13
1.07092E-11 7.17735E-13
1.21847E-11 7.17712E-13
1.37554E-11 7.17687E-13
1.54213E-11 7.17662E-13
1.71823E-11 7.17634E-13
1.90386E-11 7.17606E-13
2.09900E-11 7.17575E-13
2.30367E-11 7.17544E-13
2.51785E-11 7.17511E-13
2.74156E-11 7.17476E-13
2.97478E-11 7.17440E-13
3.21752E-11 7.17402E-13
3.46979E-11 7.17363E-13
3.73157E-11 7.17323E-13
4.00286E-11 7.17281E-13
4.28368E-11 7.17238E-13
4.57402E-11 7.17193E-13
4.87388E-11 7.17147E-13
5.18325E-11 7.17099E-13
5.50215E-11 7.17050E-13
5.83057E-11 7.16999E-13
6.16850E-11 7.16947E-13
6.51595E-11 7.16894E-13
6.87293E-11 7.16839E-13
7.23943E-11 7.16783E-13
7.61544E-11 7.16725E-13
1.18991E-10 7.16067E-13
1.71347E-10 7.15264E-13
2.33223E-10 7.14317E-13
3.04617E-10 7.13228E-13
3.85531E-10 7.11996E-13
4.75965E-10 7.10624E-13
5.75917E-10 7.09112E-13
6.85389E-10 7.07460E-13
8.04380E-10 7.05673E-13
9.32891E-10 7.03749E-13
1.07092E-09 7.01692E-13
1.21847E-09 6.99501E-13
1.37554E-09 6.97183E-13
1.54213E-09 6.94732E-13
1.71823E-09 6.92159E-13
1.90386E-09 6.89457E-13
2.09900E-09 6.86637E-13
2.30367E-09 6.83693E-13
2.51785E-09 6.80636E-13
2.74156E-09 6.77460E-13
2.97478E-09 6.74174E-13
3.21752E-09 6.70776E-13
3.46978E-09 6.67272E-13
3.73156E-09 6.63663E-13
4.00286E-09 6.59951E-13
4.28368E-09 6.56142E-13
4.57402E-09 6.52234E-13
4.87388E-09 6.48237E-13
5.18326E-09 6.44144E-13
5.50215E-09 6.39971E-13
5.83057E-09 6.35704E-13
6.16850E-09 6.31367E-13
6.51596E-09 6.26939E-13
6.87293E-09 6.22449E-13
7.23942E-09 6.17873E-13
7.61544E-09 6.13241E-13
1.18991E-08 5.63732E-13
1.71347E-08 5.10643E-13
2.33223E-08 4.56687E-13
3.04617E-08 4.03362E-13
3.85531E-08 3.53660E-13
4.75965E-08 3.08071E-13
5.75917E-08 2.67060E-13
6.85389E-08 2.30570E-13
8.04380E-08 1.98852E-13
9.32891E-08 1.71149E-13
1.07092E-07 1.47549E-13
1.21847E-07 1.27168E-13
1.37554E-07 1.09972E-13
1.54213E-07 9.52172E-14
1.71823E-07 8.27899E-14
1.90386E-07 7.21684E-14
2.09900E-07 6.31861E-14
2.30367E-07 5.55222E-14
2.51785E-07 4.89983E-14
2.74156E-07 4.34177E-14
2.97478E-07 3.86347E-14
3.21752E-07 3.45211E-14
3.46978E-07 3.09703E-14
3.73156E-07 2.78949E-14
4.00286E-07 2.52207E-14
4.28368E-07 2.28863E-14
4.57402E-07 2.08407E-14
4.87388E-07 1.90411E-14
5.18325E-07 1.74512E-14
5.50215E-07 1.60422E-14
5.83057E-07 1.47868E-14
6.16850E-07 1.36671E-14
6.51596E-07 1.26603E-14
6.87293E-07 1.17571E-14
7.23942E-07 1.09385E-14
7.61543E-07 1.01997E-14
1.18991E-06 5.49445E-15
1.71347E-06 3.24975E-15
2.33223E-06 2.02601E-15
3.04617E-06 1.30723E-15
3.85531E-06 8.73515E-16
4.75964E-06 5.99607E-16
5.75916E-06 4.22327E-16
6.85388E-06 3.04920E-16
8.04378E-06 2.25068E-16
9.32888E-06 1.69504E-16
1.07092E-05 1.30049E-16
1.21846E-05 1.01448E-16
1.37553E-05 8.03217E-17
1.54212E-05 6.44569E-17
1.71822E-05 5.23543E-17
1.90385E-05 4.29879E-17
2.09899E-05 3.56444E-17
2.30365E-05 2.98181E-17
2.51783E-05 2.51433E-17
2.74153E-05 2.13573E-17
2.97475E-05 1.82636E-17
3.21749E-05 1.57133E-17
3.46974E-05 1.35957E-17
3.73152E-05 1.18250E-17
4.00281E-05 1.03342E-17
4.28362E-05 9.07156E-18
4.57395E-05 7.99642E-18
4.87380E-05 7.07589E-18
5.18317E-05 6.28399E-18
5.50205E-05 5.59988E-18
5.83045E-05 5.00627E-18
6.16838E-05 4.48910E-18
6.51582E-05 4.03696E-18
6.87277E-05 3.64022E-18
7.23925E-05 3.29082E-18
7.61524E-05 2.98225E-18
9.21439E-05 2.05637E-18
1.09658E-04 1.46252E-18
1.28695E-04 1.06774E-18
1.49255E-04 7.97214E-19
1.71338E-04 6.06945E-19
1.94942E-04 4.70034E-19
2.20070E-04 3.69544E-19
2.46720E-04 2.94463E-19
2.74892E-04 2.37474E-19
3.04586E-04 1.93599E-19
3.35803E-04 1.59385E-19
3.68542E-04 1.32393E-19
4.02802E-04 1.10871E-19
4.38585E-04 9.35427E-20
4.75889E-04 7.94662E-20
5.14715E-04 6.79369E-20
5.55063E-04 5.84219E-20
5.96931E-04 5.05136E-20
6.40321E-04 4.38977E-20
6.85233E-04 3.83289E-20
7.31665E-04 3.36149E-20
7.79618E-04 2.96029E-20
8.29092E-04 2.61713E-20
8.80086E-04 2.32223E-20
9.32601E-04 2.06768E-20
9.86636E-04 1.84703E-20
1.04219E-03 1.65501E-20
1.09927E-03 1.48728E-20
1.15786E-03 1.34025E-20
1.21797E-03 1.21092E-20
1.27961E-03 1.09681E-20
1.34276E-03 9.95810E-21
1.40743E-03 9.06162E-21
1.47362E-03 8.26367E-21
1.54133E-03 7.55155E-21
1.61056E-03 6.91442E-21
1.68131E-03 6.34301E-21
1.75357E-03 5.82936E-21
1.82735E-03 5.36660E-21
1.90265E-03 4.94880E-21
1.97947E-03 4.57083E-21
2.05780E-03 4.22822E-21
2.13765E-03 3.91707E-21
2.21902E-03 3.63398E-21
2.30190E-03 3.37595E-21
2.38630E-03 3.14037E-21
2.47222E-03 2.92497E-21
2.55965E-03 2.72770E-21
2.64859E-03 2.54675E-21
2.73905E-03 2.38055E-21
2.83103E-03 2.22766E-21
2.92452E-03 2.08684E-21
3.01952E-03 1.95695E-21
3.11604E-03 1.83700E-21
3.21407E-03 1.72609E-21
3.31362E-03 1.62341E-21
3.41468E-03 1.52824E-21
3.51725E-03 1.43993E-21
3.62133E-03 1.35790E-21
3.72692E-03 1.28162E-21
3.83403E-03 1.21061E-21
3.94265E-03 1.14444E-21
4.05278E-03 1.08272E-21
4.16442E-03 1.02511E-21
4.27757E-03 9.71263E-22
4.39223E-03 9.20903E-22
4.50840E-03 8.73759E-22
4.62608E-03 8.29587E-22
4.74527E-03 7.88167E-22
4.86597E-03 7.49295E-22
4.98817E-03 7.12785E-22
5.11188E-03 6.78468E-22
5.23711E-03 6.46187E-22
5.36383E-03 6.15800E-22
5.49207E-03 5.87174E-22
5.62181E-03 5.60189E-22
5.75306E-03 5.34733E-22
5.88581E-03 5.10704E-22
6.02007E-03 4.88006E-22
6.15583E-03 4.66553E-22
6.29310E-03 4.46263E-22
6.43187E-03 4.27062E-22
6.57214E-03 4.08880E-22
6.71392E-03 3.91653E-22
6.85720E-03 3.75322E-22
7.00198E-03 3.59831E-22
7.14827E-03 3.45129E-22
7.29605E-03 3.31169E-22
7.44534E-03 3.17905E-22
7.59612E-03 3.05298E-22
7.97965E-03 2.76402E-22
8.37255E-03 2.50837E-22
8.77480E-03 2.28153E-22
9.18641E-03 2.07970E-22
9.60736E-03 1.89964E-22
1.00376E-02 1.73860E-22
1.04773E-02 1.59423E-22
1.09262E-02 1.46449E-22
1.13844E-02 1.34765E-22
1.18520E-02 1.24219E-22
1.23288E-02 1.14682E-22
1.28150E-02 1.06041E-22
1.33104E-02 9.81949E-23
1.38150E-02 9.10593E-23
1.43290E-02 8.45580E-23
1.48521E-02 7.86248E-23
1.53845E-02 7.32011E-23
1.59262E-02 6.82354E-23
1.64770E-02 6.36822E-23
1.70371E-02 5.95011E-23
1.76063E-02 5.56562E-23
1.81848E-02 5.21158E-23
1.87724E-02 4.88513E-23
1.93692E-02 4.58374E-23
1.99751E-02 4.30514E-23
2.05901E-02 4.04730E-23
2.12143E-02 3.80840E-23
2.18476E-02 3.58678E-23
2.24900E-02 3.38098E-23
2.31415E-02 3.18967E-23
2.38021E-02 3.01163E-23
2.44717E-02 2.84578E-23
2.51504E-02 2.69114E-23
2.58382E-02 2.54681E-23
2.65349E-02 2.41198E-23
2.72407E-02 2.28591E-23
2.79555E-02 2.16792E-23
2.86793E-02 2.05741E-23
2.94120E-02 1.95382E-23
3.01537E-02 1.85662E-23
3.09043E-02 1.76537E-23
3.16639E-02 1.67962E-23
3.24324E-02 1.59898E-23
3.32098E-02 1.52309E-23
3.39961E-02 1.45163E-23
3.47912E-02 1.38428E-23
3.55952E-02 1.32078E-23
3.64081E-02 1.26084E-23
3.72297E-02 1.20425E-23
3.80602E-02 1.15078E-23
3.88995E-02 1.10022E-23
3.97476E-02 1.05239E-23
4.06044E-02 1.00711E-23
4.14700E-02 9.64229E-24
4.23443E-02 9.23587E-24
4.32273E-02 8.85048E-24
4.41190E-02 8.48484E-24
4.50194E-02 8.13775E-24
4.59284E-02 7.80810E-24
4.68461E-02 7.49484E-24
4.87074E-02 6.91373E-24
5.06030E-02 6.38744E-24
5.25328E-02 5.90990E-24
5.44967E-02 5.47581E-24
5.64946E-02 5.08053E-24
5.85262E-02 4.71998E-24
6.05914E-02 4.39058E-24
6.26901E-02 4.08916E-24
6.48222E-02 3.81294E-24
6.69873E-02 3.55942E-24
6.91854E-02 3.32643E-24
7.14163E-02 3.11201E-24
7.36799E-02 2.91441E-24
7.59760E-02 2.73208E-24
7.83043E-02 2.56364E-24
8.06647E-02 2.40784E-24
8.30571E-02 2.26356E-24
8.54812E-02 2.12981E-24
8.79369E-02 2.00567E-24
9.04240E-02 1.89033E-24
9.29422E-02 1.78306E-24
9.54915E-02 1.68320E-24
9.80716E-02 1.59014E-24
1.00682E-01 1.50333E-24
1.03323E-01 1.42229E-24
1.05995E-01 1.34656E-24
1.08696E-01 1.27573E-24
1.11427E-01 1.20943E-24
1.14188E-01 1.14731E-24
1.16978E-01 1.08907E-24
1.19797E-01 1.03442E-24
1.22645E-01 9.83093E-25
1.25522E-01 9.34862E-25
1.28428E-01 8.89503E-25
1.31361E-01 8.46813E-25
1.34323E-01 8.06608E-25
1.37313E-01 7.68717E-25
1.40330E-01 7.32984E-25
1.43375E-01 6.99264E-25
1.46447E-01 6.67423E-25
1.49545E-01 6.37337E-25
1.52671E-01 6.08893E-25
1.55823E-01 5.81986E-25
1.59001E-01 5.56517E-25
1.62205E-01 5.32395E-25
1.65435E-01 5.09538E-25
1.68690E-01 4.87866E-25
1.71970E-01 4.67307E-25
1.75276E-01 4.47795E-25
1.78606E-01 4.29266E-25
1.81961E-01 4.11661E-25
1.85340E-01 3.94928E-25
1.88743E-01 3.79014E-25
1.92169E-01 3.63872E-25
1.95619E-01 3.49459E-25
1.99092E-01 3.35733E-25
2.02589E-01 3.22656E-25
2.06107E-01 3.10191E-25
2.09649E-01 2.98304E-25
2.13212E-01 2.86965E-25
2.16797E-01 2.76143E-25
2.20404E-01 2.65811E-25
2.24032E-01 2.55942E-25
2.27680E-01 2.46512E-25
2.31350E-01 2.37499E-25
2.35040E-01 2.28880E-25
2.38751E-01 2.20635E-25
2.42481E-01 2.12745E-25
2.46231E-01 2.05192E-25
2.50000E-01 1.97959E-25
2.53788E-01 1.91031E-25
2.57595E-01 1.84392E-25
2.61421E-01 1.78027E-25
2.65264E-01 1.71924E-25
2.69126E-01 1.66070E-25
2.73005E-01 1.60453E-25
2.76901E-01 1.55062E-25
2.80814E-01 1.49886E-25
2.84744E-01 1.44914E-25
2.88691E-01 1.40138E-25
2.92653E-01 1.35549E-25
2.96632E-01 1.31137E-25
3.00625E-01 1.26895E-25
3.04634E-01 1.22816E-25
3.08658E-01 1.18891E-25
3.12697E-01 1.15114E-25
3.16749E-01 1.11478E-25
3.20816E-01 1.07977E-25
3.24896E-01 1.04606E-25
3.28990E-01 1.01359E-25
3.33097E-01 9.82293E-26
3.37216E-01 9.52134E-26
3.41348E-01 9.23059E-26
3.45492E-01 8.95023E-26
3.49647E-01 8.67983E-26
3.53814E-01 8.41897E-26
3.57992E-01 8.16726E-26
3.62181E-01 7.92431E-26
3.66381E-01 7.68978E-26
3.70590E-01 7.46332E-26
3.74810E-01 7.24460E-26
3.79039E-01 7.03332E-26
3.83277E-01 6.82918E-26
3.87524E-01 6.63190E-26
3.91780E-01 6.44121E-26
3.96044E-01 6.25684E-26
4.00316E-01 6.07856E-26
4.04596E-01 5.90613E-26
4.08882E-01 5.73933E-26
4.13176E-01 5.57793E-26
4.17476E-01 5.42175E-26
4.21783E-01 5.27057E-26
4.26095E-01 5.12421E-26
4.30413E-01 4.98250E-26
4.34737E-01 4.84526E-26
4.39065E-01 4.71232E-26
4.43398E-01 4.58353E-26
4.47736E-01 4.45874E-26
4.52077E-01 4.33780E-26
4.56422E-01 4.22058E-26
4.60770E-01 4.10693E-26
4.65122E-01 3.99674E-26
4.69476E-01 3.88988E-26
4.73832E-01 3.78624E-26
4.78190E-01 3.68569E-26
4.82550E-01 3.58814E-26
4.86912E-01 3.49348E-26
4.91274E-01 3.40161E-26
4.95637E-01 3.31244E-26
5.00000E-01 3.22586E-26
5.04363E-01 3.14180E-26
5.08726E-01 3.06018E-26
5.13088E-01 2.98089E-26
5.17450E-01 2.90388E-26
5.21810E-01 2.82907E-26
5.26168E-01 2.75637E-26
5.30524E-01 2.68573E-26
5.34878E-01 2.61707E-26
5.39230E-01 2.55033E-26
5.43578E-01 2.48545E-26
5.47923E-01 2.42237E-26
5.52264E-01 2.36103E-26
5.56602E-01 2.30137E-26
5.60935E-01 2.24335E-26
5.65263E-01 2.18690E-26
5.69587E-01 2.13199E-26
5.73905E-01 2.07856E-26
5.78217E-01 2.02656E-26
5.82524E-01 1.97596E-26
5.86824E-01 1.92670E-26
5.91118E-01 1.87875E-26
5.95404E-01 1.83207E-26
5.99684E-01 1.78662E-26
6.03956E-01 1.74236E-26
6.08220E-01 1.69926E-26
6.12476E-01 1.65728E-26
6.16723E-01 1.61638E-26
6.20961E-01 1.57654E-26
6.25190E-01 1.53773E-26
6.29410E-01 1.49991E-26
6.33619E-01 1.46305E-26
6.37819E-01 1.42713E-26
6.42008E-01 1.39212E-26
6.46186E-01 1.35800E-26
6.50353E-01 1.32473E-26
6.54508E-01 1.29229E-26
6.58652E-01 1.26067E-26
6.62784E-01 1.22983E-26
6.66903E-01 1.19975E-26
6.71010E-01 1.17042E-26
6.75104E-01 1.14181E-26
6.79184E-01 1.11390E-26
6.83251E-01 1.08667E-26
6.87303E-01 1.06011E-26
6.91342E-01 1.03419E-26
6.95366E-01 1.00890E-26
6.99375E-01 9.84221E-27
7.03368E-01 9.60135E-27
7.07347E-01 9.36626E-27
7.11309E-01 9.13680E-27
7.15256E-01 8.91280E-27
7.19186E-01 8.69413E-27
7.23099E-01 8.48065E-27
7.26995E-01 8.27220E-27
7.30874E-01 8.06867E-27
7.34736E-01 7.86993E-27
7.38579E-01 7.67584E-27
7.42405E-01 7.48629E-27
7.46212E-01 7.30116E-27
7.50000E-01 7.12034E-27
7.53769E-01 6.94371E-27
7.57519E-01 6.77117E-27
7.61249E-01 6.60261E-27
7.64960E-01 6.43794E-27
7.68650E-01 6.27705E-27
7.72320E-01 6.11985E-27
7.75968E-01 5.96625E-27
7.79596E-01 5.81615E-27
7.83203E-01 5.66948E-27
7.86788E-01 5.52614E-27
7.90351E-01 5.38606E-27
7.93893E-01 5.24916E-27
7.97411E-01 5.11535E-27
8.00908E-01 4.98456E-27
8.04381E-01 4.85672E-27
8.07831E-01 4.73176E-27
8.11257E-01 4.60961E-27
8.14660E-01 4.49021E-27
8.18039E-01 4.37348E-27
8.21394E-01 4.25936E-27
8.24724E-01 4.14780E-27
8.28030E-01 4.03874E-27
8.31310E-01 3.93211E-27
8.34565E-01 3.82786E-27
8.37795E-01 3.72593E-27
8.40999E-01 3.62628E-27
8.44177E-01 3.52885E-27
8.47329E-01 3.43358E-27
8.50455E-01 3.34044E-27
8.53553E-01 3.24937E-27
8.56625E-01 3.16032E-27
8.59670E-01 3.07326E-27
8.62687E-01 2.98814E-27
8.65677E-01 2.90491E-27
8.68639E-01 2.82354E-27
8.71572E-01 2.74398E-27
8.74478E-01 2.66620E-27
8.77355E-01 2.59015E-27
8.80203E-01 2.51581E-27
8.83022E-01 2.44312E-27
8.85812E-01 2.37207E-27
8.88573E-01 2.30261E-27
8.91304E-01 2.23471E-27
8.94005E-01 2.16835E-27
8.96677E-01 2.10348E-27
8.99318E-01 2.04007E-27
9.01928E-01 1.97811E-27
9.04508E-01 1.91755E-27
9.07058E-01 1.85838E-27
9.09576E-01 1.80056E-27
9.12063E-01 1.74407E-27
9.14519E-01 1.68887E-27
9.16943E-01 1.63496E-27
9.19335E-01 1.58229E-27
9.21696E-01 1.53085E-27
9.24024E-01 1.48062E-27
9.26320E-01 1.43157E-27
9.28584E-01 1.38368E-27
9.30815E-01 1.33693E-27
9.33013E-01 1.29129E-27
9.35178E-01 1.24676E-27
9.37310E-01 1.20330E-27
9.39409E-01 1.16090E-27
9.41474E-01 1.11954E-27
9.43505E-01 1.07921E-27
9.45503E-01 1.03988E-27
9.47467E-01 1.00154E-27
9.49397E-01 9.64173E-28
9.51293E-01 9.27761E-28
9.53154E-01 8.92290E-28
9.54981E-01 8.57744E-28
9.56773E-01 8.24108E-28
9.58530E-01 7.91370E-28
9.60252E-01 7.59514E-28
9.61940E-01 7.28527E-28
9.63592E-01 6.98397E-28
9.65209E-01 6.69110E-28
9.66790E-01 6.40655E-28
9.68336E-01 6.13020E-28
9.69846E-01 5.86193E-28
9.71321E-01 5.60163E-28
9.72759E-01 5.34920E-28
9.74162E-01 5.10453E-28
9.75528E-01 4.86753E-28
9.76858E-01 4.63808E-28
9.78152E-01 4.41611E-28
9.79410E-01 4.20152E-28
9.80631E-01 3.99422E-28
9.81815E-01 3.79413E-28
9.82963E-01 3.60117E-28
9.84074E-01 3.41526E-28
9.85148E-01 3.23633E-28
9.86185E-01 3.06430E-28
9.87185E-01 2.89911E-28
9.88148E-01 2.74068E-28
9.89074E-01 2.58896E-28
9.89962E-01 2.44389E-28
9.90814E-01 2.30540E-28
9.91627E-01 2.17345E-28
9.92404E-01 2.04798E-28
9.93143E-01 1.92893E-28
9.93844E-01 1.81627E-28
9.94508E-01 1.70995E-28
9.95134E-01 1.60993E-28
9.95722E-01 1.51616E-28
9.96273E-01 1.42862E-28
9.96786E-01 1.34726E-28
9.97261E-01 1.27205E-28
9.97698E-01 1.20297E-28
9.98097E-01 1.13999E-28
9.98459E-01 1.08307E-28
9.98782E-01 1.03221E-28
9.99067E-01 9.87383E-29
9.99315E-01 9.48565E-29
9.99524E-01 9.15744E-29
9.99695E-01 8.88909E-29
9.99829E-01 8.68047E-29
9.99924E-01 8.53152E-29
9.99981E-01 8.44217E-29
1.00000E+00 8.41240E-29
