 #
 # Subroutine ELSEPA. Elastic scattering of electrons and positrons
 #                    by neutral atoms and positive ions
 #
 # Projectile: positron
 # Kinetic energy = 9.00000E+08 eV = 3.30744E+07 a.u.
 #
 # WARNING: High-energy factorization with free-atom DF screening.
 #          Absorption, polarization and exchange corrections are
 #          switched off.
 #          Phase shifts are calculated for the bare nucleus.
 #          Scattering amplitudes are not evaluated.
 #
 # Element: Si,  Z =  14,  atomic weight = 2.80855E+01 g/mol
 #
 # Nuclear model: Fermi distribution
 #                Average radius = 3.25245E-13 cm
 #                Skin thickness = 5.46000E-14 cm
 #
 # Number of electrons = 14
 #
 # Total elastic cross section = 8.79325E-19 cm**2 = 3.14013E-02 a0**2
 # 1st transport cross section = 5.23075E-28 cm**2 = 1.86794E-11 a0**2
 # 2nd transport cross section = 1.56891E-27 cm**2 = 5.60269E-11 a0**2
 #
 #
 # Differential cross section:                       MU=(1-COS(THETA))/2
 #
 #  THETA        MU          DCS          DCS        Sherman      error
 #  (deg)                 (cm**2/sr)   (a0**2/sr)    function
 #----------------------------------------------------------------------
0.00000E+00 1.03193E-08
7.61557E-13 8.24619E-09
1.18994E-12 7.33370E-09
1.71346E-12 6.40333E-09
2.33225E-12 5.49395E-09
3.04617E-12 4.68066E-09
3.85530E-12 3.94127E-09
4.75964E-12 3.30608E-09
5.75917E-12 2.76871E-09
6.85391E-12 2.31042E-09
8.04379E-12 1.93350E-09
9.32893E-12 1.62137E-09
1.07092E-11 1.36386E-09
1.21847E-11 1.15316E-09
1.37554E-11 9.79505E-10
1.54213E-11 8.36807E-10
1.71823E-11 7.19133E-10
1.90386E-11 6.21667E-10
2.09900E-11 5.40687E-10
2.30367E-11 4.73027E-10
2.51785E-11 4.16281E-10
2.74156E-11 3.68358E-10
2.97478E-11 3.27701E-10
3.21752E-11 2.93003E-10
3.46979E-11 2.63216E-10
3.73157E-11 2.37506E-10
4.00286E-11 2.15183E-10
4.28368E-11 1.95723E-10
4.57402E-11 1.78610E-10
4.87388E-11 1.63536E-10
5.18325E-11 1.50191E-10
5.50215E-11 1.38279E-10
5.83057E-11 1.27659E-10
6.16850E-11 1.18110E-10
6.51595E-11 1.09494E-10
6.87293E-11 1.01730E-10
7.23943E-11 9.46457E-11
7.61544E-11 8.82084E-11
1.18991E-10 4.65349E-11
1.71347E-10 2.65135E-11
2.33223E-10 1.58871E-11
3.04617E-10 9.93688E-12
3.85531E-10 6.46980E-12
4.75965E-10 4.36309E-12
5.75917E-10 3.03785E-12
6.85389E-10 2.17729E-12
8.04380E-10 1.60034E-12
9.32891E-10 1.20316E-12
1.07092E-09 9.22560E-13
1.21847E-09 7.19809E-13
1.37554E-09 5.70297E-13
1.54213E-09 4.57981E-13
1.71823E-09 3.72250E-13
1.90386E-09 3.05814E-13
2.09900E-09 2.53668E-13
2.30367E-09 2.12242E-13
2.51785E-09 1.78975E-13
2.74156E-09 1.52008E-13
2.97478E-09 1.29940E-13
3.21752E-09 1.11746E-13
3.46978E-09 9.66288E-14
3.73156E-09 8.39834E-14
4.00286E-09 7.33403E-14
4.28368E-09 6.43266E-14
4.57402E-09 5.66551E-14
4.87388E-09 5.00899E-14
5.18326E-09 4.44465E-14
5.50215E-09 3.95736E-14
5.83057E-09 3.53480E-14
6.16850E-09 3.16702E-14
6.51596E-09 2.84560E-14
6.87293E-09 2.56383E-14
7.23942E-09 2.31594E-14
7.61544E-09 2.09718E-14
1.18991E-08 8.70969E-15
1.71347E-08 4.22878E-15
2.33223E-08 2.29069E-15
3.04617E-08 1.34543E-15
3.85531E-08 8.40937E-16
4.75965E-08 5.52143E-16
5.75917E-08 3.77301E-16
6.85389E-08 2.66485E-16
8.04380E-08 1.93517E-16
9.32891E-08 1.43896E-16
1.07092E-07 1.09206E-16
1.21847E-07 8.43661E-17
1.37554E-07 6.62034E-17
1.54213E-07 5.26750E-17
1.71823E-07 4.24308E-17
1.90386E-07 3.45600E-17
2.09900E-07 2.84326E-17
2.30367E-07 2.36048E-17
2.51785E-07 1.97596E-17
2.74156E-07 1.66665E-17
2.97478E-07 1.41555E-17
3.21752E-07 1.21002E-17
3.46978E-07 1.04047E-17
3.73156E-07 8.99598E-18
4.00286E-07 7.81783E-18
4.28368E-07 6.82639E-18
4.57402E-07 5.98724E-18
4.87388E-07 5.27316E-18
5.18325E-07 4.66244E-18
5.50215E-07 4.13762E-18
5.83057E-07 3.68461E-18
6.16850E-07 3.29193E-18
6.51596E-07 2.95020E-18
6.87293E-07 2.65168E-18
7.23942E-07 2.38998E-18
7.61543E-07 2.15979E-18
1.18991E-06 8.84593E-19
1.71347E-06 4.26570E-19
2.33223E-06 2.30237E-19
3.04617E-06 1.34952E-19
3.85531E-06 8.42440E-20
4.75964E-06 5.52688E-20
5.75916E-06 3.77469E-20
6.85388E-06 2.66500E-20
8.04378E-06 1.93473E-20
9.32888E-06 1.43831E-20
1.07092E-05 1.09137E-20
1.21846E-05 8.43000E-21
1.37553E-05 6.61429E-21
1.54212E-05 5.26211E-21
1.71822E-05 4.23845E-21
1.90385E-05 3.45219E-21
2.09899E-05 2.83999E-21
2.30365E-05 2.35759E-21
2.51783E-05 1.97335E-21
2.74153E-05 1.66428E-21
2.97475E-05 1.41342E-21
3.21749E-05 1.20811E-21
3.46974E-05 1.03877E-21
3.73152E-05 8.98098E-22
4.00281E-05 7.80449E-22
4.28362E-05 6.81441E-22
4.57395E-05 5.97638E-22
4.87380E-05 5.26323E-22
5.18317E-05 4.65330E-22
5.50205E-05 4.12921E-22
5.83045E-05 3.67687E-22
6.16838E-05 3.28482E-22
6.51582E-05 2.94367E-22
6.87277E-05 2.64568E-22
7.23925E-05 2.38445E-22
7.61524E-05 2.11311E-22
9.21439E-05 1.43669E-22
1.09658E-04 1.00935E-22
1.28695E-04 7.28838E-23
1.49255E-04 5.38689E-23
1.71338E-04 4.06206E-23
1.94942E-04 3.11669E-23
2.20070E-04 2.42803E-23
2.46720E-04 1.91708E-23
2.74892E-04 1.53181E-23
3.04586E-04 1.23708E-23
3.35803E-04 1.00866E-23
3.68542E-04 8.29555E-24
4.02802E-04 6.87611E-24
4.38585E-04 5.74032E-24
4.75889E-04 4.82340E-24
5.14715E-04 4.07716E-24
5.55063E-04 3.46531E-24
5.96931E-04 2.96016E-24
6.40321E-04 2.54046E-24
6.85233E-04 2.18967E-24
7.31665E-04 1.89489E-24
7.79618E-04 1.64589E-24
8.29092E-04 1.43457E-24
8.80086E-04 1.25441E-24
9.32601E-04 1.10018E-24
9.86636E-04 9.67639E-25
1.04219E-03 8.53306E-25
1.09927E-03 7.54342E-25
1.15786E-03 6.68401E-25
1.21797E-03 5.93539E-25
1.27961E-03 5.28140E-25
1.34276E-03 4.70850E-25
1.40743E-03 4.20535E-25
1.47362E-03 3.76235E-25
1.54133E-03 3.37143E-25
1.61056E-03 3.02569E-25
1.68131E-03 2.71928E-25
1.75357E-03 2.44719E-25
1.82735E-03 2.20511E-25
1.90265E-03 1.98936E-25
1.97947E-03 1.79674E-25
2.05780E-03 1.62450E-25
2.13765E-03 1.47025E-25
2.21902E-03 1.33190E-25
2.30190E-03 1.20765E-25
2.38630E-03 1.09591E-25
2.47222E-03 9.95297E-26
2.55965E-03 9.04594E-26
2.64859E-03 8.22734E-26
2.73905E-03 7.48774E-26
2.83103E-03 6.81884E-26
2.92452E-03 6.21329E-26
3.01952E-03 5.66459E-26
3.11604E-03 5.16695E-26
3.21407E-03 4.71527E-26
3.31362E-03 4.30495E-26
3.41468E-03 3.93195E-26
3.51725E-03 3.59262E-26
3.62133E-03 3.28371E-26
3.72692E-03 3.00233E-26
3.83403E-03 2.74586E-26
3.94265E-03 2.51196E-26
4.05278E-03 2.29854E-26
4.16442E-03 2.10370E-26
4.27757E-03 1.92574E-26
4.39223E-03 1.76313E-26
4.50840E-03 1.61449E-26
4.62608E-03 1.47855E-26
4.74527E-03 1.35419E-26
4.86597E-03 1.24039E-26
4.98817E-03 1.13621E-26
5.11188E-03 1.04082E-26
5.23711E-03 9.53450E-27
5.36383E-03 8.73409E-27
5.49207E-03 8.00066E-27
5.62181E-03 7.32849E-27
5.75306E-03 6.71235E-27
5.88581E-03 6.14748E-27
6.02007E-03 5.62957E-27
6.15583E-03 5.15466E-27
6.29310E-03 4.71913E-27
6.43187E-03 4.31971E-27
6.57214E-03 3.95338E-27
6.71392E-03 3.61740E-27
6.85720E-03 3.30924E-27
7.00198E-03 3.02662E-27
7.14827E-03 2.76742E-27
7.29605E-03 2.52972E-27
7.44534E-03 2.31175E-27
7.59612E-03 2.11190E-27
7.97965E-03 1.68206E-27
8.37255E-03 1.33646E-27
8.77480E-03 1.05893E-27
9.18641E-03 8.36416E-28
9.60736E-03 6.58339E-28
1.00376E-02 5.16142E-28
1.04773E-02 4.02888E-28
1.09262E-02 3.12952E-28
1.13844E-02 2.41775E-28
1.18520E-02 1.85659E-28
1.23288E-02 1.41609E-28
1.28150E-02 1.07201E-28
1.33104E-02 8.04738E-29
1.38150E-02 5.98442E-29
1.43290E-02 4.40363E-29
1.48521E-02 3.20236E-29
1.53845E-02 2.29828E-29
1.59262E-02 1.62553E-29
1.64770E-02 1.13161E-29
1.70371E-02 7.74828E-30
1.76063E-02 5.22238E-30
1.81848E-02 3.47928E-30
1.87724E-02 2.31652E-30
1.93692E-02 1.57693E-30
1.99751E-02 1.13957E-30
2.05901E-02 9.12224E-31
2.12143E-02 8.25446E-31
2.18476E-02 8.27648E-31
2.24900E-02 8.81199E-31
2.31415E-02 9.59277E-31
2.38021E-02 1.04335E-30
2.44717E-02 1.12118E-30
2.51504E-02 1.18522E-30
2.58382E-02 1.23139E-30
2.65349E-02 1.25808E-30
2.72407E-02 1.26541E-30
2.79555E-02 1.25466E-30
2.86793E-02 1.22781E-30
2.94120E-02 1.18723E-30
3.01537E-02 1.13545E-30
3.09043E-02 1.07497E-30
3.16639E-02 1.00817E-30
3.24324E-02 9.37232E-31
3.32098E-02 8.64085E-31
3.39961E-02 7.90395E-31
3.47912E-02 7.17560E-31
3.55952E-02 6.46721E-31
3.64081E-02 5.78777E-31
3.72297E-02 5.14407E-31
3.80602E-02 4.54093E-31
3.88995E-02 3.98149E-31
3.97476E-02 3.46742E-31
4.06044E-02 2.99919E-31
4.14700E-02 2.57626E-31
4.23443E-02 2.19732E-31
4.32273E-02 1.86046E-31
4.41190E-02 1.56330E-31
4.50194E-02 1.30318E-31
4.59284E-02 1.07724E-31
4.68461E-02 8.82534E-32
4.87074E-02 5.75046E-32
5.06030E-02 3.57957E-32
5.25328E-02 2.10656E-32
5.44967E-02 1.15402E-32
5.64946E-02 5.75539E-33
5.85262E-02 2.54856E-33
6.05914E-02 1.02950E-33
6.26901E-02 5.42053E-34
6.48222E-02 6.22398E-34
6.69873E-02 9.58637E-34
6.91854E-02 1.35430E-33
7.14163E-02 1.69710E-33
7.36799E-02 1.93336E-33
7.59760E-02 2.04791E-33
7.83043E-02 2.04886E-33
8.06647E-02 1.95665E-33
8.30571E-02 1.79652E-33
8.54812E-02 1.59362E-33
8.79369E-02 1.37023E-33
9.04240E-02 1.14434E-33
9.29422E-02 9.29286E-34
9.54915E-02 7.34003E-34
9.80716E-02 5.63595E-34
1.00682E-01 4.20095E-34
1.03323E-01 3.03238E-34
1.05995E-01 2.11174E-34
1.08696E-01 1.41087E-34
1.11427E-01 8.96822E-35
1.14188E-01 5.35605E-35
1.16978E-01 2.94799E-35
1.19797E-01 1.45205E-35
1.22645E-01 6.17348E-36
1.25522E-01 2.37342E-36
1.28428E-01 1.48828E-36
1.31361E-01 2.28309E-36
1.34323E-01 3.86761E-36
1.37313E-01 5.63790E-36
1.40330E-01 7.21733E-36
1.43375E-01 8.40182E-36
1.46447E-01 9.11141E-36
1.49545E-01 9.35045E-36
1.52671E-01 9.17493E-36
1.55823E-01 8.66774E-36
1.59001E-01 7.92164E-36
1.62205E-01 7.02610E-36
1.65435E-01 6.06045E-36
1.68690E-01 5.09005E-36
1.71970E-01 4.16437E-36
1.75276E-01 3.31811E-36
1.78606E-01 2.57219E-36
1.81961E-01 1.93644E-36
1.85340E-01 1.41162E-36
1.88743E-01 9.92194E-37
1.92169E-01 6.68093E-37
1.95619E-01 4.26862E-37
1.99092E-01 2.55002E-37
2.02589E-01 1.39166E-37
2.06107E-01 6.68613E-38
2.09649E-01 2.69877E-38
2.13212E-01 1.00657E-38
2.16797E-01 8.31732E-39
2.20404E-01 1.56131E-38
2.24032E-01 2.73257E-38
2.27680E-01 4.01570E-38
2.31350E-01 5.19026E-38
2.35040E-01 6.12622E-38
2.38751E-01 6.76105E-38
2.42481E-01 7.08450E-38
2.46231E-01 7.11774E-38
2.50000E-01 6.90412E-38
2.53788E-01 6.49514E-38
2.57595E-01 5.94569E-38
2.61421E-01 5.30887E-38
2.65264E-01 4.63014E-38
2.69126E-01 3.94724E-38
2.73005E-01 3.29026E-38
2.76901E-01 2.68020E-38
2.80814E-01 2.13260E-38
2.84744E-01 1.65454E-38
2.88691E-01 1.24867E-38
2.92653E-01 9.13931E-39
2.96632E-01 6.46159E-39
3.00625E-01 4.38270E-39
3.04634E-01 2.82625E-39
3.08658E-01 1.70864E-39
3.12697E-01 1.00000E-45
3.16749E-01 1.00000E-45
3.20816E-01 1.00000E-45
3.24896E-01 1.00000E-45
3.28990E-01 1.00000E-45
3.33097E-01 1.00000E-45
3.37216E-01 1.00000E-45
3.41348E-01 1.00000E-45
3.45492E-01 1.00000E-45
3.49647E-01 1.00000E-45
3.53814E-01 1.00000E-45
3.57992E-01 1.00000E-45
3.62181E-01 1.00000E-45
3.66381E-01 1.00000E-45
3.70590E-01 1.00000E-45
3.74810E-01 1.00000E-45
3.79039E-01 1.00000E-45
3.83277E-01 1.00000E-45
3.87524E-01 1.00000E-45
3.91780E-01 1.00000E-45
3.96044E-01 1.00000E-45
4.00316E-01 1.00000E-45
4.04596E-01 1.00000E-45
4.08882E-01 1.00000E-45
4.13176E-01 1.00000E-45
4.17476E-01 1.00000E-45
4.21783E-01 1.00000E-45
4.26095E-01 1.00000E-45
4.30413E-01 1.00000E-45
4.34737E-01 1.00000E-45
4.39065E-01 1.00000E-45
4.43398E-01 1.00000E-45
4.47736E-01 1.00000E-45
4.52077E-01 1.00000E-45
4.56422E-01 1.00000E-45
4.60770E-01 1.00000E-45
4.65122E-01 1.00000E-45
4.69476E-01 1.00000E-45
4.73832E-01 1.00000E-45
4.78190E-01 1.00000E-45
4.82550E-01 1.00000E-45
4.86912E-01 1.00000E-45
4.91274E-01 1.00000E-45
4.95637E-01 1.00000E-45
5.00000E-01 1.00000E-45
5.04363E-01 1.00000E-45
5.08726E-01 1.00000E-45
5.13088E-01 1.00000E-45
5.17450E-01 1.00000E-45
5.21810E-01 1.00000E-45
5.26168E-01 1.00000E-45
5.30524E-01 1.00000E-45
5.34878E-01 1.00000E-45
5.39230E-01 1.00000E-45
5.43578E-01 1.00000E-45
5.47923E-01 1.00000E-45
5.52264E-01 1.00000E-45
5.56602E-01 1.00000E-45
5.60935E-01 1.00000E-45
5.65263E-01 1.00000E-45
5.69587E-01 1.00000E-45
5.73905E-01 1.00000E-45
5.78217E-01 1.00000E-45
5.82524E-01 1.00000E-45
5.86824E-01 1.00000E-45
5.91118E-01 1.00000E-45
5.95404E-01 1.00000E-45
5.99684E-01 1.00000E-45
6.03956E-01 1.00000E-45
6.08220E-01 1.00000E-45
6.12476E-01 1.00000E-45
6.16723E-01 1.00000E-45
6.20961E-01 1.00000E-45
6.25190E-01 1.00000E-45
6.29410E-01 1.00000E-45
6.33619E-01 1.00000E-45
6.37819E-01 1.00000E-45
6.42008E-01 1.00000E-45
6.46186E-01 1.00000E-45
6.50353E-01 1.00000E-45
6.54508E-01 1.00000E-45
6.58652E-01 1.00000E-45
6.62784E-01 1.00000E-45
6.66903E-01 1.00000E-45
6.71010E-01 1.00000E-45
6.75104E-01 1.00000E-45
6.79184E-01 1.00000E-45
6.83251E-01 1.00000E-45
6.87303E-01 1.00000E-45
6.91342E-01 1.00000E-45
6.95366E-01 1.00000E-45
6.99375E-01 1.00000E-45
7.03368E-01 1.00000E-45
7.07347E-01 1.00000E-45
7.11309E-01 1.00000E-45
7.15256E-01 1.00000E-45
7.19186E-01 1.00000E-45
7.23099E-01 1.00000E-45
7.26995E-01 1.00000E-45
7.30874E-01 1.00000E-45
7.34736E-01 1.00000E-45
7.38579E-01 1.00000E-45
7.42405E-01 1.00000E-45
7.46212E-01 1.00000E-45
7.50000E-01 1.00000E-45
7.53769E-01 1.00000E-45
7.57519E-01 1.00000E-45
7.61249E-01 1.00000E-45
7.64960E-01 1.00000E-45
7.68650E-01 1.00000E-45
7.72320E-01 1.00000E-45
7.75968E-01 1.00000E-45
7.79596E-01 1.00000E-45
7.83203E-01 1.00000E-45
7.86788E-01 1.00000E-45
7.90351E-01 1.00000E-45
7.93893E-01 1.00000E-45
7.97411E-01 1.00000E-45
8.00908E-01 1.00000E-45
8.04381E-01 1.00000E-45
8.07831E-01 1.00000E-45
8.11257E-01 1.00000E-45
8.14660E-01 1.00000E-45
8.18039E-01 1.00000E-45
8.21394E-01 1.00000E-45
8.24724E-01 1.00000E-45
8.28030E-01 1.00000E-45
8.31310E-01 1.00000E-45
8.34565E-01 1.00000E-45
8.37795E-01 1.00000E-45
8.40999E-01 1.00000E-45
8.44177E-01 1.00000E-45
8.47329E-01 1.00000E-45
8.50455E-01 1.00000E-45
8.53553E-01 1.00000E-45
8.56625E-01 1.00000E-45
8.59670E-01 1.00000E-45
8.62687E-01 1.00000E-45
8.65677E-01 1.00000E-45
8.68639E-01 1.00000E-45
8.71572E-01 1.00000E-45
8.74478E-01 1.00000E-45
8.77355E-01 1.00000E-45
8.80203E-01 1.00000E-45
8.83022E-01 1.00000E-45
8.85812E-01 1.00000E-45
8.88573E-01 1.00000E-45
8.91304E-01 1.00000E-45
8.94005E-01 1.00000E-45
8.96677E-01 1.00000E-45
8.99318E-01 1.00000E-45
9.01928E-01 1.00000E-45
9.04508E-01 1.00000E-45
9.07058E-01 1.00000E-45
9.09576E-01 1.00000E-45
9.12063E-01 1.00000E-45
9.14519E-01 1.00000E-45
9.16943E-01 1.00000E-45
9.19335E-01 1.00000E-45
9.21696E-01 1.00000E-45
9.24024E-01 1.00000E-45
9.26320E-01 1.00000E-45
9.28584E-01 1.00000E-45
9.30815E-01 1.00000E-45
9.33013E-01 1.00000E-45
9.35178E-01 1.00000E-45
9.37310E-01 1.00000E-45
9.39409E-01 1.00000E-45
9.41474E-01 1.00000E-45
9.43505E-01 1.00000E-45
9.45503E-01 1.00000E-45
9.47467E-01 1.00000E-45
9.49397E-01 1.00000E-45
9.51293E-01 1.00000E-45
9.53154E-01 1.00000E-45
9.54981E-01 1.00000E-45
9.56773E-01 1.00000E-45
9.58530E-01 1.00000E-45
9.60252E-01 1.00000E-45
9.61940E-01 1.00000E-45
9.63592E-01 1.00000E-45
9.65209E-01 1.00000E-45
9.66790E-01 1.00000E-45
9.68336E-01 1.00000E-45
9.69846E-01 1.00000E-45
9.71321E-01 1.00000E-45
9.72759E-01 1.00000E-45
9.74162E-01 1.00000E-45
9.75528E-01 1.00000E-45
9.76858E-01 1.00000E-45
9.78152E-01 1.00000E-45
9.79410E-01 1.00000E-45
9.80631E-01 1.00000E-45
9.81815E-01 1.00000E-45
9.82963E-01 1.00000E-45
9.84074E-01 1.00000E-45
9.85148E-01 1.00000E-45
9.86185E-01 1.00000E-45
9.87185E-01 1.00000E-45
9.88148E-01 1.00000E-45
9.89074E-01 1.00000E-45
9.89962E-01 1.00000E-45
9.90814E-01 1.00000E-45
9.91627E-01 1.00000E-45
9.92404E-01 1.00000E-45
9.93143E-01 1.00000E-45
9.93844E-01 1.00000E-45
9.94508E-01 1.00000E-45
9.95134E-01 1.00000E-45
9.95722E-01 1.00000E-45
9.96273E-01 1.00000E-45
9.96786E-01 1.00000E-45
9.97261E-01 1.00000E-45
9.97698E-01 1.00000E-45
9.98097E-01 1.00000E-45
9.98459E-01 1.00000E-45
9.98782E-01 1.00000E-45
9.99067E-01 1.00000E-45
9.99315E-01 1.00000E-45
9.99524E-01 1.00000E-45
9.99695E-01 1.00000E-45
9.99829E-01 1.00000E-45
9.99924E-01 1.00000E-45
9.99981E-01 1.00000E-45
1.00000E+00 1.00000E-45
