 #
 # Subroutine ELSEPA. Elastic scattering of electrons and positrons
 #                    by neutral atoms and positive ions
 #
 # Projectile: positron
 # Kinetic energy = 8.00000E+08 eV = 2.93995E+07 a.u.
 #
 # WARNING: High-energy factorization with free-atom DF screening.
 #          Absorption, polarization and exchange corrections are
 #          switched off.
 #          Phase shifts are calculated for the bare nucleus.
 #          Scattering amplitudes are not evaluated.
 #
 # Element: Pa,  Z =  91,  atomic weight = 2.31036E+02 g/mol
 #
 # Nuclear model: Fermi distribution
 #                Average radius = 6.56564E-13 cm
 #                Skin thickness = 5.46000E-14 cm
 #
 # Number of electrons = 91
 #
 # Total elastic cross section = 1.16078E-17 cm**2 = 4.14522E-01 a0**2
 # 1st transport cross section = 2.38168E-26 cm**2 = 8.50513E-10 a0**2
 # 2nd transport cross section = 7.14389E-26 cm**2 = 2.55113E-09 a0**2
 #
 #
 # Differential cross section:                       MU=(1-COS(THETA))/2
 #
 #  THETA        MU          DCS          DCS        Sherman      error
 #  (deg)                 (cm**2/sr)   (a0**2/sr)    function
 #----------------------------------------------------------------------
0.00000E+00 8.85122E-08
7.61557E-13 6.91125E-08
1.18994E-12 6.11687E-08
1.71346E-12 5.34210E-08
2.33225E-12 4.62875E-08
3.04617E-12 3.99770E-08
3.85530E-12 3.45313E-08
4.75964E-12 2.99134E-08
5.75917E-12 2.60196E-08
6.85391E-12 2.27490E-08
8.04379E-12 1.99929E-08
9.32893E-12 1.76588E-08
1.07092E-11 1.56723E-08
1.21847E-11 1.39670E-08
1.37554E-11 1.24961E-08
1.54213E-11 1.12173E-08
1.71823E-11 1.01001E-08
1.90386E-11 9.11940E-09
2.09900E-11 8.25356E-09
2.30367E-11 7.48835E-09
2.51785E-11 6.80723E-09
2.74156E-11 6.20240E-09
2.97478E-11 5.66066E-09
3.21752E-11 5.17744E-09
3.46979E-11 4.74325E-09
3.73157E-11 4.33907E-09
4.00286E-11 3.97262E-09
4.28368E-11 3.65090E-09
4.57402E-11 3.36738E-09
4.87388E-11 3.11659E-09
5.18325E-11 2.89397E-09
5.50215E-11 2.69568E-09
5.83057E-11 2.50010E-09
6.16850E-11 2.31901E-09
6.51595E-11 2.15699E-09
6.87293E-11 2.01161E-09
7.23943E-11 1.88078E-09
7.61544E-11 1.76274E-09
1.18991E-10 9.59184E-10
1.71347E-10 5.69158E-10
2.33223E-10 3.59610E-10
3.04617E-10 2.38745E-10
3.85531E-10 1.65361E-10
4.75965E-10 1.18277E-10
5.75917E-10 8.70010E-11
6.85389E-10 6.53067E-11
8.04380E-10 4.99804E-11
9.32891E-10 3.88372E-11
1.07092E-09 3.05918E-11
1.21847E-09 2.44250E-11
1.37554E-09 1.97522E-11
1.54213E-09 1.61505E-11
1.71823E-09 1.33363E-11
1.90386E-09 1.11120E-11
2.09900E-09 9.33475E-12
2.30367E-09 7.90319E-12
2.51785E-09 6.73749E-12
2.74156E-09 5.78129E-12
2.97478E-09 4.98842E-12
3.21752E-09 4.32766E-12
3.46978E-09 3.77238E-12
3.73156E-09 3.30173E-12
4.00286E-09 2.90324E-12
4.28368E-09 2.56583E-12
4.57402E-09 2.27365E-12
4.87388E-09 2.02285E-12
5.18326E-09 1.80687E-12
5.50215E-09 1.61747E-12
5.83057E-09 1.45325E-12
6.16850E-09 1.30953E-12
6.51596E-09 1.18272E-12
6.87293E-09 1.07151E-12
7.23942E-09 9.72851E-13
7.61544E-09 8.85303E-13
1.18991E-08 3.83839E-13
1.71347E-08 1.92095E-13
2.33223E-08 1.06332E-13
3.04617E-08 6.35243E-14
3.85531E-08 4.02691E-14
4.75965E-08 2.67590E-14
5.75917E-08 1.84732E-14
6.85389E-08 1.31603E-14
8.04380E-08 9.62633E-15
9.32891E-08 7.20187E-15
1.07092E-07 5.49390E-15
1.21847E-07 4.26297E-15
1.37554E-07 3.35791E-15
1.54213E-07 2.68054E-15
1.71823E-07 2.16556E-15
1.90386E-07 1.76846E-15
2.09900E-07 1.45830E-15
2.30367E-07 1.21325E-15
2.51785E-07 1.01756E-15
2.74156E-07 8.59788E-16
2.97478E-07 7.31445E-16
3.21752E-07 6.26185E-16
3.46978E-07 5.39200E-16
3.73156E-07 4.66811E-16
4.00286E-07 4.06174E-16
4.28368E-07 3.55076E-16
4.57402E-07 3.11767E-16
4.87388E-07 2.74866E-16
5.18325E-07 2.43268E-16
5.50215E-07 2.16083E-16
5.83057E-07 1.92593E-16
6.16850E-07 1.72210E-16
6.51596E-07 1.54454E-16
6.87293E-07 1.38928E-16
7.23942E-07 1.25306E-16
7.61543E-07 1.13312E-16
1.18991E-06 4.66513E-17
1.71347E-06 2.25709E-17
2.33223E-06 1.22093E-17
3.04617E-06 7.16720E-18
3.85531E-06 4.47890E-18
4.75964E-06 2.94063E-18
5.75916E-06 2.00945E-18
6.85388E-06 1.41927E-18
8.04378E-06 1.03065E-18
9.32888E-06 7.66352E-19
1.07092E-05 5.81575E-19
1.21846E-05 4.49264E-19
1.37553E-05 3.52517E-19
1.54212E-05 2.80457E-19
1.71822E-05 2.25899E-19
1.90385E-05 1.83845E-19
2.09899E-05 1.51362E-19
2.30365E-05 1.25715E-19
2.51783E-05 1.05239E-19
2.74153E-05 8.87367E-20
2.97475E-05 7.53321E-20
3.21749E-05 6.43646E-20
3.46974E-05 5.53280E-20
3.73152E-05 4.78303E-20
4.00281E-05 4.15664E-20
4.28362E-05 3.62994E-20
4.57395E-05 3.18389E-20
4.87380E-05 2.80386E-20
5.18317E-05 2.47868E-20
5.50205E-05 2.19916E-20
5.83045E-05 1.95790E-20
6.16838E-05 1.74883E-20
6.51582E-05 1.56697E-20
6.87277E-05 1.40818E-20
7.23925E-05 1.26901E-20
7.61524E-05 1.17880E-20
9.21439E-05 8.06069E-21
1.09658E-04 5.69236E-21
1.28695E-04 4.12933E-21
1.49255E-04 3.06404E-21
1.71338E-04 2.31788E-21
1.94942E-04 1.78286E-21
2.20070E-04 1.39128E-21
2.46720E-04 1.09951E-21
2.74892E-04 8.78669E-22
3.04586E-04 7.09127E-22
3.35803E-04 5.77355E-22
3.68542E-04 4.73767E-22
4.02802E-04 3.91514E-22
4.38585E-04 3.25603E-22
4.75889E-04 2.72344E-22
5.14715E-04 2.28987E-22
5.55063E-04 1.93443E-22
5.96931E-04 1.64122E-22
6.40321E-04 1.39794E-22
6.85233E-04 1.19500E-22
7.31665E-04 1.02490E-22
7.79618E-04 8.81666E-23
8.29092E-04 7.60557E-23
8.80086E-04 6.57755E-23
9.32601E-04 5.70183E-23
9.86636E-04 4.95338E-23
1.04219E-03 4.31170E-23
1.09927E-03 3.76003E-23
1.15786E-03 3.28446E-23
1.21797E-03 2.87349E-23
1.27961E-03 2.51753E-23
1.34276E-03 2.20855E-23
1.40743E-03 1.93984E-23
1.47362E-03 1.70571E-23
1.54133E-03 1.50136E-23
1.61056E-03 1.32273E-23
1.68131E-03 1.16634E-23
1.75357E-03 1.02925E-23
1.82735E-03 9.08911E-24
1.90265E-03 8.03165E-24
1.97947E-03 7.10138E-24
2.05780E-03 6.28221E-24
2.13765E-03 5.56021E-24
2.21902E-03 4.92333E-24
2.30190E-03 4.36111E-24
2.38630E-03 3.86444E-24
2.47222E-03 3.42543E-24
2.55965E-03 3.03715E-24
2.64859E-03 2.69357E-24
2.73905E-03 2.38940E-24
2.83103E-03 2.12002E-24
2.92452E-03 1.88137E-24
3.01952E-03 1.66988E-24
3.11604E-03 1.48241E-24
3.21407E-03 1.31619E-24
3.31362E-03 1.16879E-24
3.41468E-03 1.03806E-24
3.51725E-03 9.22106E-25
3.62133E-03 8.19246E-25
3.72692E-03 7.27997E-25
3.83403E-03 6.47047E-25
3.94265E-03 5.75234E-25
4.05278E-03 5.11526E-25
4.16442E-03 4.55012E-25
4.27757E-03 4.04880E-25
4.39223E-03 3.60412E-25
4.50840E-03 3.20970E-25
4.62608E-03 2.85988E-25
4.74527E-03 2.54963E-25
4.86597E-03 2.27447E-25
4.98817E-03 2.03046E-25
5.11188E-03 1.81405E-25
5.23711E-03 1.62212E-25
5.36383E-03 1.45188E-25
5.49207E-03 1.30088E-25
5.62181E-03 1.16690E-25
5.75306E-03 1.04801E-25
5.88581E-03 9.42475E-26
6.02007E-03 8.48759E-26
6.15583E-03 7.65501E-26
6.29310E-03 6.91492E-26
6.43187E-03 6.25662E-26
6.57214E-03 5.67063E-26
6.71392E-03 5.14852E-26
6.85720E-03 4.68287E-26
7.00198E-03 4.26709E-26
7.14827E-03 3.89536E-26
7.29605E-03 3.56252E-26
7.44534E-03 3.26405E-26
7.59612E-03 2.99593E-26
7.97965E-03 2.43623E-26
8.37255E-03 2.00058E-26
8.77480E-03 1.65651E-26
9.18641E-03 1.38059E-26
9.60736E-03 1.15594E-26
1.00376E-02 9.70439E-27
1.04773E-02 8.15396E-27
1.09262E-02 6.84554E-27
1.13844E-02 5.73374E-27
1.18520E-02 4.78514E-27
1.23288E-02 3.97463E-27
1.28150E-02 3.28275E-27
1.33104E-02 2.69390E-27
1.38150E-02 2.19512E-27
1.43290E-02 1.77526E-27
1.48521E-02 1.42450E-27
1.53845E-02 1.13401E-27
1.59262E-02 8.95747E-28
1.64770E-02 7.02400E-28
1.70371E-02 5.47305E-28
1.76063E-02 4.24435E-28
1.81848E-02 3.28382E-28
1.87724E-02 2.54348E-28
1.93692E-02 1.98125E-28
1.99751E-02 1.56076E-28
2.05901E-02 1.25100E-28
2.12143E-02 1.02598E-28
2.18476E-02 8.64265E-29
2.24900E-02 7.48548E-29
2.31415E-02 6.65124E-29
2.38021E-02 6.03426E-29
2.44717E-02 5.55537E-29
2.51504E-02 5.15746E-29
2.58382E-02 4.80129E-29
2.65349E-02 4.46174E-29
2.72407E-02 4.12448E-29
2.79555E-02 3.78314E-29
2.86793E-02 3.43693E-29
2.94120E-02 3.08866E-29
3.01537E-02 2.74321E-29
3.09043E-02 2.40631E-29
3.16639E-02 2.08371E-29
3.24324E-02 1.78055E-29
3.32098E-02 1.50101E-29
3.39961E-02 1.24810E-29
3.47912E-02 1.02364E-29
3.55952E-02 8.28262E-30
3.64081E-02 6.61574E-30
3.72297E-02 5.22308E-30
3.80602E-02 4.08514E-30
3.88995E-02 3.17749E-30
3.97476E-02 2.47260E-30
4.06044E-02 1.94153E-30
4.14700E-02 1.55533E-30
4.23443E-02 1.28623E-30
4.32273E-02 1.10849E-30
4.41190E-02 9.99041E-31
4.50194E-02 9.37874E-31
4.59284E-02 9.08196E-31
4.68461E-02 8.96422E-31
4.87074E-02 8.87314E-31
5.06030E-02 8.58059E-31
5.25328E-02 7.89841E-31
5.44967E-02 6.85648E-31
5.64946E-02 5.59610E-31
5.85262E-02 4.28836E-31
6.05914E-02 3.08153E-31
6.26901E-02 2.07495E-31
6.48222E-02 1.31342E-31
6.69873E-02 7.94888E-32
6.91854E-02 4.84805E-32
7.14163E-02 3.31773E-32
7.36799E-02 2.81086E-32
7.59760E-02 2.84361E-32
7.83043E-02 3.04877E-32
8.06647E-02 3.19156E-32
8.30571E-02 3.15801E-32
8.54812E-02 2.92739E-32
8.79369E-02 2.53894E-32
9.04240E-02 2.06055E-32
9.29422E-02 1.56391E-32
9.54915E-02 1.10833E-32
9.80716E-02 7.32640E-33
1.00682E-01 4.53947E-33
1.03323E-01 2.70835E-33
1.05995E-01 1.68995E-33
1.08696E-01 1.27366E-33
1.11427E-01 1.23524E-33
1.14188E-01 1.37619E-33
1.16978E-01 1.54636E-33
1.19797E-01 1.65137E-33
1.22645E-01 1.64851E-33
1.25522E-01 1.53554E-33
1.28428E-01 1.33650E-33
1.31361E-01 1.08793E-33
1.34323E-01 8.27676E-34
1.37313E-01 5.87207E-34
1.40330E-01 3.87669E-34
1.43375E-01 2.39033E-34
1.46447E-01 1.41510E-34
1.49545E-01 8.82274E-35
1.52671E-01 6.83118E-35
1.55823E-01 6.97191E-35
1.59001E-01 8.14159E-35
1.62205E-01 9.47465E-35
1.65435E-01 1.04009E-34
1.68690E-01 1.06388E-34
1.71970E-01 1.01456E-34
1.75276E-01 9.04501E-35
1.78606E-01 7.55082E-35
1.81961E-01 5.90075E-35
1.85340E-01 4.30681E-35
1.88743E-01 2.92567E-35
1.92169E-01 1.84732E-35
1.95619E-01 1.09823E-35
1.99092E-01 6.54064E-36
2.02589E-01 4.56993E-36
2.06107E-01 4.33350E-36
2.09649E-01 5.08806E-36
2.13212E-01 6.19354E-36
2.16797E-01 7.17554E-36
2.20404E-01 7.74524E-36
2.24032E-01 7.78558E-36
2.27680E-01 7.31594E-36
2.31350E-01 6.44670E-36
2.35040E-01 5.33357E-36
2.38751E-01 4.13892E-36
2.42481E-01 3.00314E-36
2.46231E-01 2.02816E-36
2.50000E-01 1.27153E-36
2.53788E-01 7.49022E-37
2.57595E-01 4.42973E-37
2.61421E-01 3.13282E-37
2.65264E-01 3.08865E-37
2.69126E-01 3.77548E-37
2.73005E-01 4.73484E-37
2.76901E-01 5.61641E-37
2.80814E-01 6.19532E-37
2.84744E-01 6.36729E-37
2.88691E-01 6.12816E-37
2.92653E-01 5.54533E-37
2.96632E-01 4.72700E-37
3.00625E-01 3.79466E-37
3.04634E-01 2.86128E-37
3.08658E-01 2.01686E-37
3.12697E-01 1.32109E-37
3.16749E-01 8.02465E-38
3.20816E-01 1.00000E-45
3.24896E-01 1.00000E-45
3.28990E-01 1.00000E-45
3.33097E-01 1.00000E-45
3.37216E-01 1.00000E-45
3.41348E-01 1.00000E-45
3.45492E-01 1.00000E-45
3.49647E-01 1.00000E-45
3.53814E-01 1.00000E-45
3.57992E-01 1.00000E-45
3.62181E-01 1.00000E-45
3.66381E-01 1.00000E-45
3.70590E-01 1.00000E-45
3.74810E-01 1.00000E-45
3.79039E-01 1.00000E-45
3.83277E-01 1.00000E-45
3.87524E-01 1.00000E-45
3.91780E-01 1.00000E-45
3.96044E-01 1.00000E-45
4.00316E-01 1.00000E-45
4.04596E-01 1.00000E-45
4.08882E-01 1.00000E-45
4.13176E-01 1.00000E-45
4.17476E-01 1.00000E-45
4.21783E-01 1.00000E-45
4.26095E-01 1.00000E-45
4.30413E-01 1.00000E-45
4.34737E-01 1.00000E-45
4.39065E-01 1.00000E-45
4.43398E-01 1.00000E-45
4.47736E-01 1.00000E-45
4.52077E-01 1.00000E-45
4.56422E-01 1.00000E-45
4.60770E-01 1.00000E-45
4.65122E-01 1.00000E-45
4.69476E-01 1.00000E-45
4.73832E-01 1.00000E-45
4.78190E-01 1.00000E-45
4.82550E-01 1.00000E-45
4.86912E-01 1.00000E-45
4.91274E-01 1.00000E-45
4.95637E-01 1.00000E-45
5.00000E-01 1.00000E-45
5.04363E-01 1.00000E-45
5.08726E-01 1.00000E-45
5.13088E-01 1.00000E-45
5.17450E-01 1.00000E-45
5.21810E-01 1.00000E-45
5.26168E-01 1.00000E-45
5.30524E-01 1.00000E-45
5.34878E-01 1.00000E-45
5.39230E-01 1.00000E-45
5.43578E-01 1.00000E-45
5.47923E-01 1.00000E-45
5.52264E-01 1.00000E-45
5.56602E-01 1.00000E-45
5.60935E-01 1.00000E-45
5.65263E-01 1.00000E-45
5.69587E-01 1.00000E-45
5.73905E-01 1.00000E-45
5.78217E-01 1.00000E-45
5.82524E-01 1.00000E-45
5.86824E-01 1.00000E-45
5.91118E-01 1.00000E-45
5.95404E-01 1.00000E-45
5.99684E-01 1.00000E-45
6.03956E-01 1.00000E-45
6.08220E-01 1.00000E-45
6.12476E-01 1.00000E-45
6.16723E-01 1.00000E-45
6.20961E-01 1.00000E-45
6.25190E-01 1.00000E-45
6.29410E-01 1.00000E-45
6.33619E-01 1.00000E-45
6.37819E-01 1.00000E-45
6.42008E-01 1.00000E-45
6.46186E-01 1.00000E-45
6.50353E-01 1.00000E-45
6.54508E-01 1.00000E-45
6.58652E-01 1.00000E-45
6.62784E-01 1.00000E-45
6.66903E-01 1.00000E-45
6.71010E-01 1.00000E-45
6.75104E-01 1.00000E-45
6.79184E-01 1.00000E-45
6.83251E-01 1.00000E-45
6.87303E-01 1.00000E-45
6.91342E-01 1.00000E-45
6.95366E-01 1.00000E-45
6.99375E-01 1.00000E-45
7.03368E-01 1.00000E-45
7.07347E-01 1.00000E-45
7.11309E-01 1.00000E-45
7.15256E-01 1.00000E-45
7.19186E-01 1.00000E-45
7.23099E-01 1.00000E-45
7.26995E-01 1.00000E-45
7.30874E-01 1.00000E-45
7.34736E-01 1.00000E-45
7.38579E-01 1.00000E-45
7.42405E-01 1.00000E-45
7.46212E-01 1.00000E-45
7.50000E-01 1.00000E-45
7.53769E-01 1.00000E-45
7.57519E-01 1.00000E-45
7.61249E-01 1.00000E-45
7.64960E-01 1.00000E-45
7.68650E-01 1.00000E-45
7.72320E-01 1.00000E-45
7.75968E-01 1.00000E-45
7.79596E-01 1.00000E-45
7.83203E-01 1.00000E-45
7.86788E-01 1.00000E-45
7.90351E-01 1.00000E-45
7.93893E-01 1.00000E-45
7.97411E-01 1.00000E-45
8.00908E-01 1.00000E-45
8.04381E-01 1.00000E-45
8.07831E-01 1.00000E-45
8.11257E-01 1.00000E-45
8.14660E-01 1.00000E-45
8.18039E-01 1.00000E-45
8.21394E-01 1.00000E-45
8.24724E-01 1.00000E-45
8.28030E-01 1.00000E-45
8.31310E-01 1.00000E-45
8.34565E-01 1.00000E-45
8.37795E-01 1.00000E-45
8.40999E-01 1.00000E-45
8.44177E-01 1.00000E-45
8.47329E-01 1.00000E-45
8.50455E-01 1.00000E-45
8.53553E-01 1.00000E-45
8.56625E-01 1.00000E-45
8.59670E-01 1.00000E-45
8.62687E-01 1.00000E-45
8.65677E-01 1.00000E-45
8.68639E-01 1.00000E-45
8.71572E-01 1.00000E-45
8.74478E-01 1.00000E-45
8.77355E-01 1.00000E-45
8.80203E-01 1.00000E-45
8.83022E-01 1.00000E-45
8.85812E-01 1.00000E-45
8.88573E-01 1.00000E-45
8.91304E-01 1.00000E-45
8.94005E-01 1.00000E-45
8.96677E-01 1.00000E-45
8.99318E-01 1.00000E-45
9.01928E-01 1.00000E-45
9.04508E-01 1.00000E-45
9.07058E-01 1.00000E-45
9.09576E-01 1.00000E-45
9.12063E-01 1.00000E-45
9.14519E-01 1.00000E-45
9.16943E-01 1.00000E-45
9.19335E-01 1.00000E-45
9.21696E-01 1.00000E-45
9.24024E-01 1.00000E-45
9.26320E-01 1.00000E-45
9.28584E-01 1.00000E-45
9.30815E-01 1.00000E-45
9.33013E-01 1.00000E-45
9.35178E-01 1.00000E-45
9.37310E-01 1.00000E-45
9.39409E-01 1.00000E-45
9.41474E-01 1.00000E-45
9.43505E-01 1.00000E-45
9.45503E-01 1.00000E-45
9.47467E-01 1.00000E-45
9.49397E-01 1.00000E-45
9.51293E-01 1.00000E-45
9.53154E-01 1.00000E-45
9.54981E-01 1.00000E-45
9.56773E-01 1.00000E-45
9.58530E-01 1.00000E-45
9.60252E-01 1.00000E-45
9.61940E-01 1.00000E-45
9.63592E-01 1.00000E-45
9.65209E-01 1.00000E-45
9.66790E-01 1.00000E-45
9.68336E-01 1.00000E-45
9.69846E-01 1.00000E-45
9.71321E-01 1.00000E-45
9.72759E-01 1.00000E-45
9.74162E-01 1.00000E-45
9.75528E-01 1.00000E-45
9.76858E-01 1.00000E-45
9.78152E-01 1.00000E-45
9.79410E-01 1.00000E-45
9.80631E-01 1.00000E-45
9.81815E-01 1.00000E-45
9.82963E-01 1.00000E-45
9.84074E-01 1.00000E-45
9.85148E-01 1.00000E-45
9.86185E-01 1.00000E-45
9.87185E-01 1.00000E-45
9.88148E-01 1.00000E-45
9.89074E-01 1.00000E-45
9.89962E-01 1.00000E-45
9.90814E-01 1.00000E-45
9.91627E-01 1.00000E-45
9.92404E-01 1.00000E-45
9.93143E-01 1.00000E-45
9.93844E-01 1.00000E-45
9.94508E-01 1.00000E-45
9.95134E-01 1.00000E-45
9.95722E-01 1.00000E-45
9.96273E-01 1.00000E-45
9.96786E-01 1.00000E-45
9.97261E-01 1.00000E-45
9.97698E-01 1.00000E-45
9.98097E-01 1.00000E-45
9.98459E-01 1.00000E-45
9.98782E-01 1.00000E-45
9.99067E-01 1.00000E-45
9.99315E-01 1.00000E-45
9.99524E-01 1.00000E-45
9.99695E-01 1.00000E-45
9.99829E-01 1.00000E-45
9.99924E-01 1.00000E-45
9.99981E-01 1.00000E-45
1.00000E+00 1.00000E-45
