 #
 # Subroutine ELSEPA. Elastic scattering of electrons and positrons
 #                    by neutral atoms and positive ions
 #
 # Projectile: positron
 # Kinetic energy = 1.50000E+07 eV = 5.51240E+05 a.u.
 #
 # WARNING: High-energy factorization with free-atom DF screening.
 #          Absorption, polarization and exchange corrections are
 #          switched off.
 #          Phase shifts are calculated for the bare nucleus.
 #          Scattering amplitudes are not evaluated.
 #
 # Element: Pa,  Z =  91,  atomic weight = 2.31036E+02 g/mol
 #
 # Nuclear model: Fermi distribution
 #                Average radius = 6.56564E-13 cm
 #                Skin thickness = 5.46000E-14 cm
 #
 # Number of electrons = 91
 #
 # Total elastic cross section = 1.16991E-17 cm**2 = 4.17782E-01 a0**2
 # 1st transport cross section = 4.88702E-23 cm**2 = 1.74519E-06 a0**2
 # 2nd transport cross section = 1.41693E-22 cm**2 = 5.05996E-06 a0**2
 #
 #
 # Differential cross section:                       MU=(1-COS(THETA))/2
 #
 #  THETA        MU          DCS          DCS        Sherman      error
 #  (deg)                 (cm**2/sr)   (a0**2/sr)    function
 #----------------------------------------------------------------------
0.00000E+00 3.32314E-11
7.61557E-13 3.32279E-11
1.18994E-12 3.32260E-11
1.71346E-12 3.32237E-11
2.33225E-12 3.32209E-11
3.04617E-12 3.32178E-11
3.85530E-12 3.32142E-11
4.75964E-12 3.32102E-11
5.75917E-12 3.32057E-11
6.85391E-12 3.32009E-11
8.04379E-12 3.31956E-11
9.32893E-12 3.31900E-11
1.07092E-11 3.31839E-11
1.21847E-11 3.31774E-11
1.37554E-11 3.31704E-11
1.54213E-11 3.31631E-11
1.71823E-11 3.31553E-11
1.90386E-11 3.31472E-11
2.09900E-11 3.31386E-11
2.30367E-11 3.31296E-11
2.51785E-11 3.31202E-11
2.74156E-11 3.31103E-11
2.97478E-11 3.31001E-11
3.21752E-11 3.30895E-11
3.46979E-11 3.30784E-11
3.73157E-11 3.30669E-11
4.00286E-11 3.30551E-11
4.28368E-11 3.30428E-11
4.57402E-11 3.30301E-11
4.87388E-11 3.30170E-11
5.18325E-11 3.30035E-11
5.50215E-11 3.29896E-11
5.83057E-11 3.29752E-11
6.16850E-11 3.29605E-11
6.51595E-11 3.29454E-11
6.87293E-11 3.29299E-11
7.23943E-11 3.29140E-11
7.61544E-11 3.28976E-11
1.18991E-10 3.27126E-11
1.71347E-10 3.24889E-11
2.33223E-10 3.22278E-11
3.04617E-10 3.19308E-11
3.85531E-10 3.15998E-11
4.75965E-10 3.12365E-11
5.75917E-10 3.08431E-11
6.85389E-10 3.04217E-11
8.04380E-10 2.99745E-11
9.32891E-10 2.95038E-11
1.07092E-09 2.90133E-11
1.21847E-09 2.85032E-11
1.37554E-09 2.79756E-11
1.54213E-09 2.74340E-11
1.71823E-09 2.68827E-11
1.90386E-09 2.63204E-11
2.09900E-09 2.57489E-11
2.30367E-09 2.51752E-11
2.51785E-09 2.45977E-11
2.74156E-09 2.40168E-11
2.97478E-09 2.34358E-11
3.21752E-09 2.28601E-11
3.46978E-09 2.22857E-11
3.73156E-09 2.17138E-11
4.00286E-09 2.11510E-11
4.28368E-09 2.05955E-11
4.57402E-09 2.00458E-11
4.87388E-09 1.95039E-11
5.18326E-09 1.89762E-11
5.50215E-09 1.84567E-11
5.83057E-09 1.79458E-11
6.16850E-09 1.74487E-11
6.51596E-09 1.69641E-11
6.87293E-09 1.64894E-11
7.23942E-09 1.60254E-11
7.61544E-09 1.55780E-11
1.18991E-08 1.17474E-11
1.71347E-08 8.98231E-12
2.33223E-08 7.00044E-12
3.04617E-08 5.55563E-12
3.85531E-08 4.47642E-12
4.75965E-08 3.65115E-12
5.75917E-08 3.00784E-12
6.85389E-08 2.49870E-12
8.04380E-08 2.09147E-12
9.32891E-08 1.76318E-12
1.07092E-07 1.48483E-12
1.21847E-07 1.26536E-12
1.37554E-07 1.09237E-12
1.54213E-07 9.48596E-13
1.71823E-07 8.21473E-13
1.90386E-07 7.18550E-13
2.09900E-07 6.34340E-13
2.30367E-07 5.58837E-13
2.51785E-07 4.94590E-13
2.74156E-07 4.40946E-13
2.97478E-07 3.94848E-13
3.21752E-07 3.52843E-13
3.46978E-07 3.17178E-13
3.73156E-07 2.86700E-13
4.00286E-07 2.58984E-13
4.28368E-07 2.34453E-13
4.57402E-07 2.13219E-13
4.87388E-07 1.94560E-13
5.18325E-07 1.77252E-13
5.50215E-07 1.62103E-13
5.83057E-07 1.48789E-13
6.16850E-07 1.36620E-13
6.51596E-07 1.25604E-13
6.87293E-07 1.15833E-13
7.23942E-07 1.07111E-13
7.61543E-07 9.89579E-14
1.18991E-06 4.92018E-14
1.71347E-06 2.72635E-14
2.33223E-06 1.62627E-14
3.04617E-06 1.02469E-14
3.85531E-06 6.78176E-15
4.75964E-06 4.67061E-15
5.75916E-06 3.32358E-15
6.85388E-06 2.43217E-15
8.04378E-06 1.82179E-15
9.32888E-06 1.39156E-15
1.07092E-05 1.08041E-15
1.21846E-05 8.52656E-16
1.37553E-05 6.82287E-16
1.54212E-05 5.52029E-16
1.71822E-05 4.51745E-16
1.90385E-05 3.73162E-16
2.09899E-05 3.11396E-16
2.30365E-05 2.61847E-16
2.51783E-05 2.21762E-16
2.74153E-05 1.89019E-16
2.97475E-05 1.62011E-16
3.21749E-05 1.39676E-16
3.46974E-05 1.21081E-16
3.73152E-05 1.05461E-16
4.00281E-05 9.22860E-17
4.28362E-05 8.11122E-17
4.57395E-05 7.15702E-17
4.87380E-05 6.33756E-17
5.18317E-05 5.63191E-17
5.50205E-05 5.02160E-17
5.83045E-05 4.49087E-17
6.16838E-05 4.02862E-17
6.51582E-05 3.62459E-17
6.87277E-05 3.26991E-17
7.23925E-05 2.95757E-17
7.61524E-05 2.68179E-17
9.21439E-05 1.85389E-17
1.09658E-04 1.32243E-17
1.28695E-04 9.68630E-18
1.49255E-04 7.25649E-18
1.71338E-04 5.54259E-18
1.94942E-04 4.30564E-18
2.20070E-04 3.39474E-18
2.46720E-04 2.71195E-18
2.74892E-04 2.19218E-18
3.04586E-04 1.79086E-18
3.35803E-04 1.47714E-18
3.68542E-04 1.22903E-18
4.02802E-04 1.03079E-18
4.38585E-04 8.70868E-19
4.75889E-04 7.40722E-19
5.14715E-04 6.33968E-19
5.55063E-04 5.45730E-19
5.96931E-04 4.72299E-19
6.40321E-04 4.10792E-19
6.85233E-04 3.58960E-19
7.31665E-04 3.15041E-19
7.79618E-04 2.77623E-19
8.29092E-04 2.45593E-19
8.80086E-04 2.18042E-19
9.32601E-04 1.94242E-19
9.86636E-04 1.73596E-19
1.04219E-03 1.55617E-19
1.09927E-03 1.39903E-19
1.15786E-03 1.26118E-19
1.21797E-03 1.13986E-19
1.27961E-03 1.03276E-19
1.34276E-03 9.37920E-20
1.40743E-03 8.53697E-20
1.47362E-03 7.78695E-20
1.54133E-03 7.11733E-20
1.61056E-03 6.51796E-20
1.68131E-03 5.98021E-20
1.75357E-03 5.49664E-20
1.82735E-03 5.06083E-20
1.90265E-03 4.66726E-20
1.97947E-03 4.31109E-20
2.05780E-03 3.98815E-20
2.13765E-03 3.69480E-20
2.21902E-03 3.42784E-20
2.30190E-03 3.18448E-20
2.38630E-03 2.96226E-20
2.47222E-03 2.75903E-20
2.55965E-03 2.57287E-20
2.64859E-03 2.40209E-20
2.73905E-03 2.24519E-20
2.83103E-03 2.10085E-20
2.92452E-03 1.96788E-20
3.01952E-03 1.84522E-20
3.11604E-03 1.73193E-20
3.21407E-03 1.62717E-20
3.31362E-03 1.53018E-20
3.41468E-03 1.44027E-20
3.51725E-03 1.35685E-20
3.62133E-03 1.27935E-20
3.72692E-03 1.20728E-20
3.83403E-03 1.14019E-20
3.94265E-03 1.07768E-20
4.05278E-03 1.01937E-20
4.16442E-03 9.64934E-21
4.27757E-03 9.14065E-21
4.39223E-03 8.66489E-21
4.50840E-03 8.21952E-21
4.62608E-03 7.80226E-21
4.74527E-03 7.41101E-21
4.86597E-03 7.04385E-21
4.98817E-03 6.69903E-21
5.11188E-03 6.37494E-21
5.23711E-03 6.07010E-21
5.36383E-03 5.78317E-21
5.49207E-03 5.51291E-21
5.62181E-03 5.25816E-21
5.75306E-03 5.01787E-21
5.88581E-03 4.79107E-21
6.02007E-03 4.57686E-21
6.15583E-03 4.37443E-21
6.29310E-03 4.18300E-21
6.43187E-03 4.00186E-21
6.57214E-03 3.83037E-21
6.71392E-03 3.66790E-21
6.85720E-03 3.51391E-21
7.00198E-03 3.36786E-21
7.14827E-03 3.22928E-21
7.29605E-03 3.09771E-21
7.44534E-03 2.97272E-21
7.59612E-03 2.85393E-21
7.97965E-03 2.58176E-21
8.37255E-03 2.34108E-21
8.77480E-03 2.12762E-21
9.18641E-03 1.93779E-21
9.60736E-03 1.76852E-21
1.00376E-02 1.61721E-21
1.04773E-02 1.48164E-21
1.09262E-02 1.35987E-21
1.13844E-02 1.25027E-21
1.18520E-02 1.15142E-21
1.23288E-02 1.06206E-21
1.28150E-02 9.81148E-22
1.33104E-02 9.07732E-22
1.38150E-02 8.41000E-22
1.43290E-02 7.80241E-22
1.48521E-02 7.24826E-22
1.53845E-02 6.74203E-22
1.59262E-02 6.27883E-22
1.64770E-02 5.85440E-22
1.70371E-02 5.46492E-22
1.76063E-02 5.10701E-22
1.81848E-02 4.77765E-22
1.87724E-02 4.47416E-22
1.93692E-02 4.19417E-22
1.99751E-02 3.93554E-22
2.05901E-02 3.69634E-22
2.12143E-02 3.47485E-22
2.18476E-02 3.26954E-22
2.24900E-02 3.07903E-22
2.31415E-02 2.90204E-22
2.38021E-02 2.73746E-22
2.44717E-02 2.58425E-22
2.51504E-02 2.44150E-22
2.58382E-02 2.30836E-22
2.65349E-02 2.18408E-22
2.72407E-02 2.06795E-22
2.79555E-02 1.95935E-22
2.86793E-02 1.85770E-22
2.94120E-02 1.76249E-22
3.01537E-02 1.67323E-22
3.09043E-02 1.58947E-22
3.16639E-02 1.51083E-22
3.24324E-02 1.43693E-22
3.32098E-02 1.36744E-22
3.39961E-02 1.30205E-22
3.47912E-02 1.24047E-22
3.55952E-02 1.18244E-22
3.64081E-02 1.12772E-22
3.72297E-02 1.07609E-22
3.80602E-02 1.02734E-22
3.88995E-02 9.81278E-23
3.97476E-02 9.37739E-23
4.06044E-02 8.96553E-23
4.14700E-02 8.57569E-23
4.23443E-02 8.20654E-23
4.32273E-02 7.85679E-23
4.41190E-02 7.52515E-23
4.50194E-02 7.21058E-23
4.59284E-02 6.91206E-23
4.68461E-02 6.62860E-23
4.87074E-02 6.10329E-23
5.06030E-02 5.62829E-23
5.25328E-02 5.19790E-23
5.44967E-02 4.80728E-23
5.64946E-02 4.45209E-23
5.85262E-02 4.12861E-23
6.05914E-02 3.83350E-23
6.26901E-02 3.56387E-23
6.48222E-02 3.31713E-23
6.69873E-02 3.09103E-23
6.91854E-02 2.88353E-23
7.14163E-02 2.69285E-23
7.36799E-02 2.51739E-23
7.59760E-02 2.35573E-23
7.83043E-02 2.20660E-23
8.06647E-02 2.06887E-23
8.30571E-02 1.94151E-23
8.54812E-02 1.82361E-23
8.79369E-02 1.71435E-23
9.04240E-02 1.61298E-23
9.29422E-02 1.51885E-23
9.54915E-02 1.43134E-23
9.80716E-02 1.34991E-23
1.00682E-01 1.27407E-23
1.03323E-01 1.20337E-23
1.05995E-01 1.13740E-23
1.08696E-01 1.07580E-23
1.11427E-01 1.01822E-23
1.14188E-01 9.64376E-24
1.16978E-01 9.13986E-24
1.19797E-01 8.66685E-24
1.22645E-01 8.22329E-24
1.25522E-01 7.80704E-24
1.28428E-01 7.41613E-24
1.31361E-01 7.04875E-24
1.34323E-01 6.70325E-24
1.37313E-01 6.37809E-24
1.40330E-01 6.07188E-24
1.43375E-01 5.78333E-24
1.46447E-01 5.51124E-24
1.49545E-01 5.25451E-24
1.52671E-01 5.01213E-24
1.55823E-01 4.78315E-24
1.59001E-01 4.56672E-24
1.62205E-01 4.36203E-24
1.65435E-01 4.16833E-24
1.68690E-01 3.98493E-24
1.71970E-01 3.81119E-24
1.75276E-01 3.64651E-24
1.78606E-01 3.49035E-24
1.81961E-01 3.34218E-24
1.85340E-01 3.20154E-24
1.88743E-01 3.06796E-24
1.92169E-01 2.94104E-24
1.95619E-01 2.82038E-24
1.99092E-01 2.70564E-24
2.02589E-01 2.59646E-24
2.06107E-01 2.49253E-24
2.09649E-01 2.39356E-24
2.13212E-01 2.29927E-24
2.16797E-01 2.20940E-24
2.20404E-01 2.12371E-24
2.24032E-01 2.04197E-24
2.27680E-01 1.96397E-24
2.31350E-01 1.88951E-24
2.35040E-01 1.81841E-24
2.38751E-01 1.75047E-24
2.42481E-01 1.68555E-24
2.46231E-01 1.62348E-24
2.50000E-01 1.56412E-24
2.53788E-01 1.50733E-24
2.57595E-01 1.45298E-24
2.61421E-01 1.40094E-24
2.65264E-01 1.35111E-24
2.69126E-01 1.30337E-24
2.73005E-01 1.25762E-24
2.76901E-01 1.21376E-24
2.80814E-01 1.17171E-24
2.84744E-01 1.13137E-24
2.88691E-01 1.09267E-24
2.92653E-01 1.05552E-24
2.96632E-01 1.01986E-24
3.00625E-01 9.85615E-25
3.04634E-01 9.52718E-25
3.08658E-01 9.21107E-25
3.12697E-01 8.90726E-25
3.16749E-01 8.61517E-25
3.20816E-01 8.33429E-25
3.24896E-01 8.06411E-25
3.28990E-01 7.80415E-25
3.33097E-01 7.55398E-25
3.37216E-01 7.31315E-25
3.41348E-01 7.08126E-25
3.45492E-01 6.85793E-25
3.49647E-01 6.64279E-25
3.53814E-01 6.43549E-25
3.57992E-01 6.23569E-25
3.62181E-01 6.04308E-25
3.66381E-01 5.85736E-25
3.70590E-01 5.67825E-25
3.74810E-01 5.50546E-25
3.79039E-01 5.33875E-25
3.83277E-01 5.17785E-25
3.87524E-01 5.02255E-25
3.91780E-01 4.87260E-25
3.96044E-01 4.72780E-25
4.00316E-01 4.58794E-25
4.04596E-01 4.45283E-25
4.08882E-01 4.32227E-25
4.13176E-01 4.19609E-25
4.17476E-01 4.07412E-25
4.21783E-01 3.95620E-25
4.26095E-01 3.84217E-25
4.30413E-01 3.73188E-25
4.34737E-01 3.62519E-25
4.39065E-01 3.52197E-25
4.43398E-01 3.42208E-25
4.47736E-01 3.32539E-25
4.52077E-01 3.23180E-25
4.56422E-01 3.14118E-25
4.60770E-01 3.05342E-25
4.65122E-01 2.96843E-25
4.69476E-01 2.88609E-25
4.73832E-01 2.80632E-25
4.78190E-01 2.72902E-25
4.82550E-01 2.65411E-25
4.86912E-01 2.58149E-25
4.91274E-01 2.51109E-25
4.95637E-01 2.44283E-25
5.00000E-01 2.37663E-25
5.04363E-01 2.31242E-25
5.08726E-01 2.25013E-25
5.13088E-01 2.18971E-25
5.17450E-01 2.13107E-25
5.21810E-01 2.07416E-25
5.26168E-01 2.01893E-25
5.30524E-01 1.96531E-25
5.34878E-01 1.91326E-25
5.39230E-01 1.86271E-25
5.43578E-01 1.81362E-25
5.47923E-01 1.76594E-25
5.52264E-01 1.71962E-25
5.56602E-01 1.67463E-25
5.60935E-01 1.63090E-25
5.65263E-01 1.58842E-25
5.69587E-01 1.54712E-25
5.73905E-01 1.50698E-25
5.78217E-01 1.46797E-25
5.82524E-01 1.43003E-25
5.86824E-01 1.39314E-25
5.91118E-01 1.35727E-25
5.95404E-01 1.32238E-25
5.99684E-01 1.28844E-25
6.03956E-01 1.25542E-25
6.08220E-01 1.22330E-25
6.12476E-01 1.19205E-25
6.16723E-01 1.16163E-25
6.20961E-01 1.13203E-25
6.25190E-01 1.10322E-25
6.29410E-01 1.07517E-25
6.33619E-01 1.04787E-25
6.37819E-01 1.02128E-25
6.42008E-01 9.95394E-26
6.46186E-01 9.70183E-26
6.50353E-01 9.45630E-26
6.54508E-01 9.21715E-26
6.58652E-01 8.98418E-26
6.62784E-01 8.75723E-26
6.66903E-01 8.53610E-26
6.71010E-01 8.32063E-26
6.75104E-01 8.11067E-26
6.79184E-01 7.90604E-26
6.83251E-01 7.70661E-26
6.87303E-01 7.51221E-26
6.91342E-01 7.32270E-26
6.95366E-01 7.13795E-26
6.99375E-01 6.95783E-26
7.03368E-01 6.78219E-26
7.07347E-01 6.61093E-26
7.11309E-01 6.44390E-26
7.15256E-01 6.28101E-26
7.19186E-01 6.12213E-26
7.23099E-01 5.96715E-26
7.26995E-01 5.81597E-26
7.30874E-01 5.66848E-26
7.34736E-01 5.52458E-26
7.38579E-01 5.38418E-26
7.42405E-01 5.24717E-26
7.46212E-01 5.11348E-26
7.50000E-01 4.98301E-26
7.53769E-01 4.85567E-26
7.57519E-01 4.73139E-26
7.61249E-01 4.61008E-26
7.64960E-01 4.49166E-26
7.68650E-01 4.37606E-26
7.72320E-01 4.26321E-26
7.75968E-01 4.15303E-26
7.79596E-01 4.04546E-26
7.83203E-01 3.94042E-26
7.86788E-01 3.83785E-26
7.90351E-01 3.73770E-26
7.93893E-01 3.63989E-26
7.97411E-01 3.54437E-26
8.00908E-01 3.45109E-26
8.04381E-01 3.35998E-26
8.07831E-01 3.27099E-26
8.11257E-01 3.18407E-26
8.14660E-01 3.09917E-26
8.18039E-01 3.01624E-26
8.21394E-01 2.93522E-26
8.24724E-01 2.85608E-26
8.28030E-01 2.77877E-26
8.31310E-01 2.70324E-26
8.34565E-01 2.62945E-26
8.37795E-01 2.55736E-26
8.40999E-01 2.48693E-26
8.44177E-01 2.41812E-26
8.47329E-01 2.35089E-26
8.50455E-01 2.28521E-26
8.53553E-01 2.22103E-26
8.56625E-01 2.15832E-26
8.59670E-01 2.09705E-26
8.62687E-01 2.03719E-26
8.65677E-01 1.97871E-26
8.68639E-01 1.92156E-26
8.71572E-01 1.86573E-26
8.74478E-01 1.81118E-26
8.77355E-01 1.75788E-26
8.80203E-01 1.70581E-26
8.83022E-01 1.65494E-26
8.85812E-01 1.60525E-26
8.88573E-01 1.55669E-26
8.91304E-01 1.50926E-26
8.94005E-01 1.46293E-26
8.96677E-01 1.41768E-26
8.99318E-01 1.37347E-26
9.01928E-01 1.33029E-26
9.04508E-01 1.28812E-26
9.07058E-01 1.24694E-26
9.09576E-01 1.20672E-26
9.12063E-01 1.16745E-26
9.14519E-01 1.12911E-26
9.16943E-01 1.09167E-26
9.19335E-01 1.05513E-26
9.21696E-01 1.01945E-26
9.24024E-01 9.84634E-27
9.26320E-01 9.50653E-27
9.28584E-01 9.17493E-27
9.30815E-01 8.85140E-27
9.33013E-01 8.53576E-27
9.35178E-01 8.22789E-27
9.37310E-01 7.92762E-27
9.39409E-01 7.63483E-27
9.41474E-01 7.34936E-27
9.43505E-01 7.07109E-27
9.45503E-01 6.79989E-27
9.47467E-01 6.53564E-27
9.49397E-01 6.27820E-27
9.51293E-01 6.02747E-27
9.53154E-01 5.78332E-27
9.54981E-01 5.54565E-27
9.56773E-01 5.31435E-27
9.58530E-01 5.08931E-27
9.60252E-01 4.87043E-27
9.61940E-01 4.65761E-27
9.63592E-01 4.45076E-27
9.65209E-01 4.24978E-27
9.66790E-01 4.05458E-27
9.68336E-01 3.86508E-27
9.69846E-01 3.68119E-27
9.71321E-01 3.50283E-27
9.72759E-01 3.32992E-27
9.74162E-01 3.16239E-27
9.75528E-01 3.00016E-27
9.76858E-01 2.84316E-27
9.78152E-01 2.69132E-27
9.79410E-01 2.54457E-27
9.80631E-01 2.40286E-27
9.81815E-01 2.26611E-27
9.82963E-01 2.13428E-27
9.84074E-01 2.00730E-27
9.85148E-01 1.88511E-27
9.86185E-01 1.76768E-27
9.87185E-01 1.65493E-27
9.88148E-01 1.54683E-27
9.89074E-01 1.44334E-27
9.89962E-01 1.34439E-27
9.90814E-01 1.24997E-27
9.91627E-01 1.16001E-27
9.92404E-01 1.07449E-27
9.93143E-01 9.93366E-28
9.93844E-01 9.16607E-28
9.94508E-01 8.44179E-28
9.95134E-01 7.76052E-28
9.95722E-01 7.12196E-28
9.96273E-01 6.52585E-28
9.96786E-01 5.97194E-28
9.97261E-01 5.45998E-28
9.97698E-01 4.98977E-28
9.98097E-01 4.56111E-28
9.98459E-01 4.17381E-28
9.98782E-01 3.82772E-28
9.99067E-01 3.52269E-28
9.99315E-01 3.25858E-28
9.99524E-01 3.03530E-28
9.99695E-01 2.85274E-28
9.99829E-01 2.71082E-28
9.99924E-01 2.60950E-28
9.99981E-01 2.54872E-28
1.00000E+00 2.52847E-28
