 #
 # Subroutine ELSEPA. Elastic scattering of electrons and positrons
 #                    by neutral atoms and positive ions
 #
 # Projectile: positron
 # Kinetic energy = 6.00000E+07 eV = 2.20496E+06 a.u.
 #
 # WARNING: High-energy factorization with free-atom DF screening.
 #          Absorption, polarization and exchange corrections are
 #          switched off.
 #          Phase shifts are calculated for the bare nucleus.
 #          Scattering amplitudes are not evaluated.
 #
 # Element: Pa,  Z =  91,  atomic weight = 2.31036E+02 g/mol
 #
 # Nuclear model: Fermi distribution
 #                Average radius = 6.56564E-13 cm
 #                Skin thickness = 5.46000E-14 cm
 #
 # Number of electrons = 91
 #
 # Total elastic cross section = 1.16886E-17 cm**2 = 4.17406E-01 a0**2
 # 1st transport cross section = 3.90695E-24 cm**2 = 1.39520E-07 a0**2
 # 2nd transport cross section = 1.14976E-23 cm**2 = 4.10585E-07 a0**2
 #
 #
 # Differential cross section:                       MU=(1-COS(THETA))/2
 #
 #  THETA        MU          DCS          DCS        Sherman      error
 #  (deg)                 (cm**2/sr)   (a0**2/sr)    function
 #----------------------------------------------------------------------
0.00000E+00 5.05752E-10
7.61557E-13 5.04970E-10
1.18994E-12 5.04533E-10
1.71346E-12 5.03999E-10
2.33225E-12 5.03370E-10
3.04617E-12 5.02646E-10
3.85530E-12 5.01828E-10
4.75964E-12 5.00916E-10
5.75917E-12 4.99911E-10
6.85391E-12 4.98815E-10
8.04379E-12 4.97628E-10
9.32893E-12 4.96351E-10
1.07092E-11 4.94986E-10
1.21847E-11 4.93534E-10
1.37554E-11 4.91996E-10
1.54213E-11 4.90373E-10
1.71823E-11 4.88667E-10
1.90386E-11 4.86880E-10
2.09900E-11 4.85013E-10
2.30367E-11 4.83068E-10
2.51785E-11 4.81046E-10
2.74156E-11 4.78950E-10
2.97478E-11 4.76780E-10
3.21752E-11 4.74539E-10
3.46979E-11 4.72229E-10
3.73157E-11 4.69852E-10
4.00286E-11 4.67409E-10
4.28368E-11 4.64903E-10
4.57402E-11 4.62336E-10
4.87388E-11 4.59710E-10
5.18325E-11 4.57026E-10
5.50215E-11 4.54287E-10
5.83057E-11 4.51495E-10
6.16850E-11 4.48653E-10
6.51595E-11 4.45769E-10
6.87293E-11 4.42840E-10
7.23943E-11 4.39865E-10
7.61544E-11 4.36844E-10
1.18991E-10 4.04747E-10
1.71347E-10 3.70669E-10
2.33223E-10 3.36373E-10
3.04617E-10 3.03222E-10
3.85531E-10 2.72144E-10
4.75965E-10 2.43688E-10
5.75917E-10 2.18086E-10
6.85389E-10 1.95302E-10
8.04380E-10 1.75184E-10
9.32891E-10 1.57502E-10
1.07092E-09 1.41991E-10
1.21847E-09 1.28385E-10
1.37554E-09 1.16430E-10
1.54213E-09 1.05899E-10
1.71823E-09 9.65897E-11
1.90386E-09 8.83264E-11
2.09900E-09 8.09612E-11
2.30367E-09 7.43742E-11
2.51785E-09 6.84619E-11
2.74156E-09 6.31371E-11
2.97478E-09 5.83265E-11
3.21752E-09 5.39681E-11
3.46978E-09 5.00092E-11
3.73156E-09 4.64050E-11
4.00286E-09 4.31170E-11
4.28368E-09 4.01073E-11
4.57402E-09 3.73515E-11
4.87388E-09 3.48256E-11
5.18326E-09 3.25071E-11
5.50215E-09 3.03765E-11
5.83057E-09 2.84161E-11
6.16850E-09 2.66104E-11
6.51596E-09 2.48644E-11
6.87293E-09 2.32497E-11
7.23942E-09 2.17874E-11
7.61544E-09 2.04603E-11
1.18991E-08 1.16572E-11
1.71347E-08 7.16993E-12
2.33223E-08 4.67166E-12
3.04617E-08 3.17964E-12
3.85531E-08 2.24130E-12
4.75965E-08 1.62688E-12
5.75917E-08 1.21072E-12
6.85389E-08 9.21431E-13
8.04380E-08 7.14650E-13
9.32891E-08 5.63174E-13
1.07092E-07 4.49842E-13
1.21847E-07 3.63524E-13
1.37554E-07 2.96795E-13
1.54213E-07 2.44705E-13
1.71823E-07 2.03208E-13
1.90386E-07 1.70071E-13
2.09900E-07 1.43452E-13
2.30367E-07 1.21891E-13
2.51785E-07 1.04266E-13
2.74156E-07 8.97314E-14
2.97478E-07 7.76527E-14
3.21752E-07 6.75474E-14
3.46978E-07 5.90432E-14
3.73156E-07 5.18477E-14
4.00286E-07 4.57270E-14
4.28368E-07 4.04900E-14
4.57402E-07 3.59874E-14
4.87388E-07 3.20970E-14
5.18325E-07 2.87198E-14
5.50215E-07 2.57757E-14
5.83057E-07 2.31996E-14
6.16850E-07 2.09379E-14
6.51596E-07 1.89347E-14
6.87293E-07 1.71697E-14
7.23942E-07 1.56153E-14
7.61543E-07 1.42389E-14
1.18991E-06 6.24157E-15
1.71347E-06 3.16153E-15
2.33223E-06 1.76863E-15
3.04617E-06 1.06395E-15
3.85531E-06 6.77136E-16
4.75964E-06 4.51118E-16
5.75916E-06 3.12083E-16
6.85388E-06 2.22786E-16
8.04378E-06 1.63297E-16
9.32888E-06 1.22420E-16
1.07092E-05 9.35740E-17
1.21846E-05 7.27432E-17
1.37553E-05 5.73939E-17
1.54212E-05 4.58827E-17
1.71822E-05 3.71142E-17
1.90385E-05 3.03183E-17
2.09899E-05 2.50443E-17
2.30365E-05 2.08624E-17
2.51783E-05 1.75105E-17
2.74153E-05 1.48001E-17
2.97475E-05 1.25917E-17
3.21749E-05 1.07798E-17
3.46974E-05 9.28312E-18
3.73152E-05 8.03850E-18
4.00281E-05 6.99641E-18
4.28362E-05 6.11811E-18
4.57395E-05 5.37329E-18
4.87380E-05 4.73814E-18
5.18317E-05 4.19381E-18
5.50205E-05 3.72522E-18
5.83045E-05 3.32021E-18
6.16838E-05 2.96879E-18
6.51582E-05 2.66271E-18
6.87277E-05 2.39516E-18
7.23925E-05 2.16041E-18
7.61524E-05 1.95366E-18
9.21439E-05 1.33758E-18
1.09658E-04 9.46213E-19
1.28695E-04 6.88032E-19
1.49255E-04 5.12159E-19
1.71338E-04 3.89017E-19
1.94942E-04 3.00736E-19
2.20070E-04 2.36114E-19
2.46720E-04 1.87936E-19
2.74892E-04 1.51433E-19
3.04586E-04 1.23365E-19
3.35803E-04 1.01504E-19
3.68542E-04 8.42705E-20
4.02802E-04 7.05394E-20
4.38585E-04 5.94911E-20
4.75889E-04 5.05199E-20
5.14715E-04 4.31760E-20
5.55063E-04 3.71168E-20
5.96931E-04 3.20827E-20
6.40321E-04 2.78724E-20
6.85233E-04 2.43294E-20
7.31665E-04 2.13311E-20
7.79618E-04 1.87797E-20
8.29092E-04 1.65981E-20
8.80086E-04 1.47236E-20
9.32601E-04 1.31059E-20
9.86636E-04 1.17039E-20
1.04219E-03 1.04841E-20
1.09927E-03 9.41883E-21
1.15786E-03 8.48518E-21
1.21797E-03 7.66413E-21
1.27961E-03 6.93982E-21
1.34276E-03 6.29888E-21
1.40743E-03 5.73008E-21
1.47362E-03 5.22389E-21
1.54133E-03 4.77226E-21
1.61056E-03 4.36825E-21
1.68131E-03 4.00600E-21
1.75357E-03 3.68044E-21
1.82735E-03 3.38719E-21
1.90265E-03 3.12249E-21
1.97947E-03 2.88308E-21
2.05780E-03 2.66611E-21
2.13765E-03 2.46911E-21
2.21902E-03 2.28992E-21
2.30190E-03 2.12664E-21
2.38630E-03 1.97762E-21
2.47222E-03 1.84137E-21
2.55965E-03 1.71662E-21
2.64859E-03 1.60223E-21
2.73905E-03 1.49716E-21
2.83103E-03 1.40055E-21
2.92452E-03 1.31157E-21
3.01952E-03 1.22952E-21
3.11604E-03 1.15376E-21
3.21407E-03 1.08373E-21
3.31362E-03 1.01891E-21
3.41468E-03 9.58842E-22
3.51725E-03 9.03120E-22
3.62133E-03 8.51371E-22
3.72692E-03 8.03258E-22
3.83403E-03 7.58483E-22
3.94265E-03 7.16770E-22
4.05278E-03 6.77872E-22
4.16442E-03 6.41566E-22
4.27757E-03 6.07646E-22
4.39223E-03 5.75928E-22
4.50840E-03 5.46242E-22
4.62608E-03 5.18435E-22
4.74527E-03 4.92366E-22
4.86597E-03 4.67907E-22
4.98817E-03 4.44939E-22
5.11188E-03 4.23357E-22
5.23711E-03 4.03059E-22
5.36383E-03 3.83958E-22
5.49207E-03 3.65967E-22
5.62181E-03 3.49013E-22
5.75306E-03 3.33023E-22
5.88581E-03 3.17933E-22
6.02007E-03 3.03684E-22
6.15583E-03 2.90218E-22
6.29310E-03 2.77487E-22
6.43187E-03 2.65442E-22
6.57214E-03 2.54039E-22
6.71392E-03 2.43239E-22
6.85720E-03 2.33003E-22
7.00198E-03 2.23297E-22
7.14827E-03 2.14089E-22
7.29605E-03 2.05349E-22
7.44534E-03 1.97050E-22
7.59612E-03 1.89166E-22
7.97965E-03 1.71082E-22
8.37255E-03 1.55086E-22
8.77480E-03 1.40902E-22
9.18641E-03 1.28291E-22
9.60736E-03 1.17048E-22
1.00376E-02 1.07000E-22
1.04773E-02 9.79975E-23
1.09262E-02 8.99138E-23
1.13844E-02 8.26388E-23
1.18520E-02 7.60777E-23
1.23288E-02 7.01484E-23
1.28150E-02 6.47796E-23
1.33104E-02 5.99092E-23
1.38150E-02 5.54828E-23
1.43290E-02 5.14531E-23
1.48521E-02 4.77783E-23
1.53845E-02 4.44217E-23
1.59262E-02 4.13510E-23
1.64770E-02 3.85377E-23
1.70371E-02 3.59563E-23
1.76063E-02 3.35845E-23
1.81848E-02 3.14023E-23
1.87724E-02 2.93919E-23
1.93692E-02 2.75374E-23
1.99751E-02 2.58246E-23
2.05901E-02 2.42408E-23
2.12143E-02 2.27746E-23
2.18476E-02 2.14157E-23
2.24900E-02 2.01550E-23
2.31415E-02 1.89840E-23
2.38021E-02 1.78953E-23
2.44717E-02 1.68821E-23
2.51504E-02 1.59383E-23
2.58382E-02 1.50582E-23
2.65349E-02 1.42368E-23
2.72407E-02 1.34696E-23
2.79555E-02 1.27522E-23
2.86793E-02 1.20810E-23
2.94120E-02 1.14525E-23
3.01537E-02 1.08633E-23
3.09043E-02 1.03108E-23
3.16639E-02 9.79207E-24
3.24324E-02 9.30482E-24
3.32098E-02 8.84679E-24
3.39961E-02 8.41591E-24
3.47912E-02 8.01029E-24
3.55952E-02 7.62821E-24
3.64081E-02 7.26805E-24
3.72297E-02 6.92834E-24
3.80602E-02 6.60772E-24
3.88995E-02 6.30493E-24
3.97476E-02 6.01880E-24
4.06044E-02 5.74827E-24
4.14700E-02 5.49234E-24
4.23443E-02 5.25008E-24
4.32273E-02 5.02064E-24
4.41190E-02 4.80322E-24
4.50194E-02 4.59708E-24
4.59284E-02 4.40155E-24
4.68461E-02 4.21597E-24
4.87074E-02 3.87236E-24
5.06030E-02 3.56197E-24
5.25328E-02 3.28108E-24
5.44967E-02 3.02643E-24
5.64946E-02 2.79518E-24
5.85262E-02 2.58483E-24
6.05914E-02 2.39320E-24
6.26901E-02 2.21835E-24
6.48222E-02 2.05859E-24
6.69873E-02 1.91240E-24
6.91854E-02 1.77844E-24
7.14163E-02 1.65554E-24
7.36799E-02 1.54263E-24
7.59760E-02 1.43879E-24
7.83043E-02 1.34315E-24
8.06647E-02 1.25498E-24
8.30571E-02 1.17360E-24
8.54812E-02 1.09841E-24
8.79369E-02 1.02886E-24
9.04240E-02 9.64470E-25
9.29422E-02 9.04790E-25
9.54915E-02 8.49425E-25
9.80716E-02 7.98016E-25
1.00682E-01 7.50237E-25
1.03323E-01 7.05793E-25
1.05995E-01 6.64416E-25
1.08696E-01 6.25862E-25
1.11427E-01 5.89909E-25
1.14188E-01 5.56356E-25
1.16978E-01 5.25019E-25
1.19797E-01 4.95729E-25
1.22645E-01 4.68333E-25
1.25522E-01 4.42690E-25
1.28428E-01 4.18672E-25
1.31361E-01 3.96161E-25
1.34323E-01 3.75048E-25
1.37313E-01 3.55234E-25
1.40330E-01 3.36627E-25
1.43375E-01 3.19143E-25
1.46447E-01 3.02705E-25
1.49545E-01 2.87241E-25
1.52671E-01 2.72685E-25
1.55823E-01 2.58976E-25
1.59001E-01 2.46058E-25
1.62205E-01 2.33879E-25
1.65435E-01 2.22391E-25
1.68690E-01 2.11549E-25
1.71970E-01 2.01312E-25
1.75276E-01 1.91641E-25
1.78606E-01 1.82501E-25
1.81961E-01 1.73858E-25
1.85340E-01 1.65682E-25
1.88743E-01 1.57944E-25
1.92169E-01 1.50618E-25
1.95619E-01 1.43678E-25
1.99092E-01 1.37102E-25
2.02589E-01 1.30868E-25
2.06107E-01 1.24955E-25
2.09649E-01 1.19346E-25
2.13212E-01 1.14021E-25
2.16797E-01 1.08966E-25
2.20404E-01 1.04165E-25
2.24032E-01 9.96026E-26
2.27680E-01 9.52662E-26
2.31350E-01 9.11429E-26
2.35040E-01 8.72210E-26
2.38751E-01 8.34893E-26
2.42481E-01 7.99375E-26
2.46231E-01 7.65558E-26
2.50000E-01 7.33351E-26
2.53788E-01 7.02667E-26
2.57595E-01 6.73425E-26
2.61421E-01 6.45549E-26
2.65264E-01 6.18967E-26
2.69126E-01 5.93612E-26
2.73005E-01 5.69421E-26
2.76901E-01 5.46333E-26
2.80814E-01 5.24292E-26
2.84744E-01 5.03245E-26
2.88691E-01 4.83141E-26
2.92653E-01 4.63934E-26
2.96632E-01 4.45579E-26
3.00625E-01 4.28033E-26
3.04634E-01 4.11257E-26
3.08658E-01 3.95212E-26
3.12697E-01 3.79864E-26
3.16749E-01 3.65178E-26
3.20816E-01 3.51123E-26
3.24896E-01 3.37668E-26
3.28990E-01 3.24785E-26
3.33097E-01 3.12447E-26
3.37216E-01 3.00628E-26
3.41348E-01 2.89303E-26
3.45492E-01 2.78451E-26
3.49647E-01 2.68049E-26
3.53814E-01 2.58075E-26
3.57992E-01 2.48512E-26
3.62181E-01 2.39339E-26
3.66381E-01 2.30540E-26
3.70590E-01 2.22097E-26
3.74810E-01 2.13994E-26
3.79039E-01 2.06216E-26
3.83277E-01 1.98750E-26
3.87524E-01 1.91580E-26
3.91780E-01 1.84694E-26
3.96044E-01 1.78079E-26
4.00316E-01 1.71724E-26
4.04596E-01 1.65618E-26
4.08882E-01 1.59749E-26
4.13176E-01 1.54108E-26
4.17476E-01 1.48684E-26
4.21783E-01 1.43469E-26
4.26095E-01 1.38454E-26
4.30413E-01 1.33630E-26
4.34737E-01 1.28988E-26
4.39065E-01 1.24523E-26
4.43398E-01 1.20226E-26
4.47736E-01 1.16090E-26
4.52077E-01 1.12108E-26
4.56422E-01 1.08275E-26
4.60770E-01 1.04584E-26
4.65122E-01 1.01030E-26
4.69476E-01 9.76058E-27
4.73832E-01 9.43077E-27
4.78190E-01 9.11300E-27
4.82550E-01 8.80681E-27
4.86912E-01 8.51173E-27
4.91274E-01 8.22732E-27
4.95637E-01 7.95314E-27
5.00000E-01 7.68881E-27
5.04363E-01 7.43394E-27
5.08726E-01 7.18815E-27
5.13088E-01 6.95108E-27
5.17450E-01 6.72241E-27
5.21810E-01 6.50181E-27
5.26168E-01 6.28897E-27
5.30524E-01 6.08358E-27
5.34878E-01 5.88536E-27
5.39230E-01 5.69405E-27
5.43578E-01 5.50938E-27
5.47923E-01 5.33109E-27
5.52264E-01 5.15895E-27
5.56602E-01 4.99272E-27
5.60935E-01 4.83219E-27
5.65263E-01 4.67714E-27
5.69587E-01 4.52737E-27
5.73905E-01 4.38268E-27
5.78217E-01 4.24289E-27
5.82524E-01 4.10782E-27
5.86824E-01 3.97729E-27
5.91118E-01 3.85113E-27
5.95404E-01 3.72919E-27
5.99684E-01 3.61132E-27
6.03956E-01 3.49736E-27
6.08220E-01 3.38718E-27
6.12476E-01 3.28065E-27
6.16723E-01 3.17762E-27
6.20961E-01 3.07798E-27
6.25190E-01 2.98160E-27
6.29410E-01 2.88837E-27
6.33619E-01 2.79818E-27
6.37819E-01 2.71093E-27
6.42008E-01 2.62649E-27
6.46186E-01 2.54479E-27
6.50353E-01 2.46572E-27
6.54508E-01 2.38920E-27
6.58652E-01 2.31513E-27
6.62784E-01 2.24342E-27
6.66903E-01 2.17401E-27
6.71010E-01 2.10680E-27
6.75104E-01 2.04172E-27
6.79184E-01 1.97871E-27
6.83251E-01 1.91769E-27
6.87303E-01 1.85858E-27
6.91342E-01 1.80134E-27
6.95366E-01 1.74589E-27
6.99375E-01 1.69217E-27
7.03368E-01 1.64013E-27
7.07347E-01 1.58971E-27
7.11309E-01 1.54085E-27
7.15256E-01 1.49351E-27
7.19186E-01 1.44763E-27
7.23099E-01 1.40317E-27
7.26995E-01 1.36007E-27
7.30874E-01 1.31830E-27
7.34736E-01 1.27780E-27
7.38579E-01 1.23855E-27
7.42405E-01 1.20049E-27
7.46212E-01 1.16359E-27
7.50000E-01 1.12781E-27
7.53769E-01 1.09311E-27
7.57519E-01 1.05947E-27
7.61249E-01 1.02684E-27
7.64960E-01 9.95188E-28
7.68650E-01 9.64492E-28
7.72320E-01 9.34717E-28
7.75968E-01 9.05833E-28
7.79596E-01 8.77813E-28
7.83203E-01 8.50628E-28
7.86788E-01 8.24254E-28
7.90351E-01 7.98663E-28
7.93893E-01 7.73832E-28
7.97411E-01 7.49736E-28
8.00908E-01 7.26352E-28
8.04381E-01 7.03659E-28
8.07831E-01 6.81635E-28
8.11257E-01 6.60259E-28
8.14660E-01 6.39512E-28
8.18039E-01 6.19372E-28
8.21394E-01 5.99823E-28
8.24724E-01 5.80846E-28
8.28030E-01 5.62423E-28
8.31310E-01 5.44537E-28
8.34565E-01 5.27173E-28
8.37795E-01 5.10313E-28
8.40999E-01 4.93944E-28
8.44177E-01 4.78050E-28
8.47329E-01 4.62616E-28
8.50455E-01 4.47630E-28
8.53553E-01 4.33078E-28
8.56625E-01 4.18946E-28
8.59670E-01 4.05222E-28
8.62687E-01 3.91895E-28
8.65677E-01 3.78952E-28
8.68639E-01 3.66382E-28
8.71572E-01 3.54174E-28
8.74478E-01 3.42317E-28
8.77355E-01 3.30802E-28
8.80203E-01 3.19618E-28
8.83022E-01 3.08755E-28
8.85812E-01 2.98205E-28
8.88573E-01 2.87959E-28
8.91304E-01 2.78007E-28
8.94005E-01 2.68341E-28
8.96677E-01 2.58953E-28
8.99318E-01 2.49836E-28
9.01928E-01 2.40981E-28
9.04508E-01 2.32381E-28
9.07058E-01 2.24029E-28
9.09576E-01 2.15918E-28
9.12063E-01 2.08041E-28
9.14519E-01 2.00393E-28
9.16943E-01 1.92965E-28
9.19335E-01 1.85753E-28
9.21696E-01 1.78751E-28
9.24024E-01 1.71952E-28
9.26320E-01 1.65352E-28
9.28584E-01 1.58945E-28
9.30815E-01 1.52725E-28
9.33013E-01 1.46688E-28
9.35178E-01 1.40829E-28
9.37310E-01 1.35144E-28
9.39409E-01 1.29627E-28
9.41474E-01 1.24274E-28
9.43505E-01 1.19082E-28
9.45503E-01 1.14045E-28
9.47467E-01 1.09160E-28
9.49397E-01 1.04424E-28
9.51293E-01 9.98319E-29
9.53154E-01 9.53806E-29
9.54981E-01 9.10667E-29
9.56773E-01 8.68868E-29
9.58530E-01 8.28376E-29
9.60252E-01 7.89160E-29
9.61940E-01 7.51190E-29
9.63592E-01 7.14436E-29
9.65209E-01 6.78869E-29
9.66790E-01 6.44464E-29
9.68336E-01 6.11193E-29
9.69846E-01 5.79030E-29
9.71321E-01 5.47952E-29
9.72759E-01 5.17934E-29
9.74162E-01 4.88954E-29
9.75528E-01 4.60990E-29
9.76858E-01 4.34020E-29
9.78152E-01 4.08024E-29
9.79410E-01 3.82983E-29
9.80631E-01 3.58878E-29
9.81815E-01 3.35690E-29
9.82963E-01 3.13402E-29
9.84074E-01 2.91998E-29
9.85148E-01 2.71461E-29
9.86185E-01 2.51777E-29
9.87185E-01 2.32929E-29
9.88148E-01 2.14905E-29
9.89074E-01 1.97691E-29
9.89962E-01 1.81275E-29
9.90814E-01 1.65643E-29
9.91627E-01 1.50784E-29
9.92404E-01 1.36688E-29
9.93143E-01 1.23344E-29
9.93844E-01 1.10742E-29
9.94508E-01 9.88727E-30
9.95134E-01 8.77275E-30
9.95722E-01 7.72983E-30
9.96273E-01 6.75772E-30
9.96786E-01 5.85572E-30
9.97261E-01 5.02315E-30
9.97698E-01 4.25942E-30
9.98097E-01 3.56396E-30
9.98459E-01 2.93626E-30
9.98782E-01 2.37586E-30
9.99067E-01 1.88235E-30
9.99315E-01 1.45537E-30
9.99524E-01 1.09461E-30
9.99695E-01 7.99795E-31
9.99829E-01 5.70719E-31
9.99924E-01 4.07215E-31
9.99981E-01 3.09159E-31
1.00000E+00 2.76482E-31
