 #
 # Subroutine ELSEPA. Elastic scattering of electrons and positrons
 #                    by neutral atoms and positive ions
 #
 # Projectile: positron
 # Kinetic energy = 2.50000E+07 eV = 9.18733E+05 a.u.
 #
 # WARNING: High-energy factorization with free-atom DF screening.
 #          Absorption, polarization and exchange corrections are
 #          switched off.
 #          Phase shifts are calculated for the bare nucleus.
 #          Scattering amplitudes are not evaluated.
 #
 # Element: Pa,  Z =  91,  atomic weight = 2.31036E+02 g/mol
 #
 # Nuclear model: Fermi distribution
 #                Average radius = 6.56564E-13 cm
 #                Skin thickness = 5.46000E-14 cm
 #
 # Number of electrons = 91
 #
 # Total elastic cross section = 1.16928E-17 cm**2 = 4.17558E-01 a0**2
 # 1st transport cross section = 1.96207E-23 cm**2 = 7.00667E-07 a0**2
 # 2nd transport cross section = 5.71212E-23 cm**2 = 2.03984E-06 a0**2
 #
 #
 # Differential cross section:                       MU=(1-COS(THETA))/2
 #
 #  THETA        MU          DCS          DCS        Sherman      error
 #  (deg)                 (cm**2/sr)   (a0**2/sr)    function
 #----------------------------------------------------------------------
0.00000E+00 8.98925E-11
7.61557E-13 8.98676E-11
1.18994E-12 8.98537E-11
1.71346E-12 8.98367E-11
2.33225E-12 8.98166E-11
3.04617E-12 8.97936E-11
3.85530E-12 8.97674E-11
4.75964E-12 8.97382E-11
5.75917E-12 8.97060E-11
6.85391E-12 8.96707E-11
8.04379E-12 8.96324E-11
9.32893E-12 8.95910E-11
1.07092E-11 8.95466E-11
1.21847E-11 8.94993E-11
1.37554E-11 8.94489E-11
1.54213E-11 8.93955E-11
1.71823E-11 8.93391E-11
1.90386E-11 8.92798E-11
2.09900E-11 8.92175E-11
2.30367E-11 8.91522E-11
2.51785E-11 8.90840E-11
2.74156E-11 8.90128E-11
2.97478E-11 8.89387E-11
3.21752E-11 8.88617E-11
3.46979E-11 8.87818E-11
3.73157E-11 8.86991E-11
4.00286E-11 8.86134E-11
4.28368E-11 8.85249E-11
4.57402E-11 8.84336E-11
4.87388E-11 8.83394E-11
5.18325E-11 8.82424E-11
5.50215E-11 8.81426E-11
5.83057E-11 8.80400E-11
6.16850E-11 8.79347E-11
6.51595E-11 8.78266E-11
6.87293E-11 8.77158E-11
7.23943E-11 8.76023E-11
7.61544E-11 8.74861E-11
1.18991E-10 8.61802E-11
1.71347E-10 8.46278E-11
2.33223E-10 8.28527E-11
3.04617E-10 8.08809E-11
3.85531E-10 7.87429E-11
4.75965E-10 7.64631E-11
5.75917E-10 7.40669E-11
6.85389E-10 7.15921E-11
8.04380E-10 6.90498E-11
9.32891E-10 6.64863E-11
1.07092E-09 6.38979E-11
1.21847E-09 6.13346E-11
1.37554E-09 5.87852E-11
1.54213E-09 5.62902E-11
1.71823E-09 5.38422E-11
1.90386E-09 5.14671E-11
2.09900E-09 4.91635E-11
2.30367E-09 4.69420E-11
2.51785E-09 4.48080E-11
2.74156E-09 4.27586E-11
2.97478E-09 4.08054E-11
3.21752E-09 3.89348E-11
3.46978E-09 3.71630E-11
3.73156E-09 3.54691E-11
4.00286E-09 3.38718E-11
4.28368E-09 3.23486E-11
4.57402E-09 3.09122E-11
4.87388E-09 2.95475E-11
5.18326E-09 2.82587E-11
5.50215E-09 2.70377E-11
5.83057E-09 2.58830E-11
6.16850E-09 2.47906E-11
6.51596E-09 2.37563E-11
6.87293E-09 2.27778E-11
7.23942E-09 2.18508E-11
7.61544E-09 2.09729E-11
1.18991E-08 1.42952E-11
1.71347E-08 1.01338E-11
2.33223E-08 7.38508E-12
3.04617E-08 5.50115E-12
3.85531E-08 4.14923E-12
4.75965E-08 3.19797E-12
5.75917E-08 2.52925E-12
6.85389E-08 2.01015E-12
8.04380E-08 1.63544E-12
9.32891E-08 1.33279E-12
1.07092E-07 1.10784E-12
1.21847E-07 9.21636E-13
1.37554E-07 7.78025E-13
1.54213E-07 6.58762E-13
1.71823E-07 5.63231E-13
1.90386E-07 4.83756E-13
2.09900E-07 4.18207E-13
2.30367E-07 3.63531E-13
2.51785E-07 3.17415E-13
2.74156E-07 2.78779E-13
2.97478E-07 2.45604E-13
3.21752E-07 2.17655E-13
3.46978E-07 1.93286E-13
3.73156E-07 1.72637E-13
4.00286E-07 1.54378E-13
4.28368E-07 1.38762E-13
4.57402E-07 1.24896E-13
4.87388E-07 1.12870E-13
5.18325E-07 1.02174E-13
5.50215E-07 9.27728E-14
5.83057E-07 8.43998E-14
6.16850E-07 7.69527E-14
6.51596E-07 7.03141E-14
6.87293E-07 6.43484E-14
7.23942E-07 5.90263E-14
7.61543E-07 5.42017E-14
1.18991E-06 2.51620E-14
1.71347E-06 1.32385E-14
2.33223E-06 7.63175E-15
3.04617E-06 4.71607E-15
3.85531E-06 3.06739E-15
4.75964E-06 2.08356E-15
5.75916E-06 1.46557E-15
6.85388E-06 1.06151E-15
8.04378E-06 7.87857E-16
9.32888E-06 5.97110E-16
1.07092E-05 4.60813E-16
1.21846E-05 3.61247E-16
1.37553E-05 2.87125E-16
1.54212E-05 2.31021E-16
1.71822E-05 1.87919E-16
1.90385E-05 1.54266E-16
2.09899E-05 1.28002E-16
2.30365E-05 1.07069E-16
2.51783E-05 9.02126E-17
2.74153E-05 7.65243E-17
2.97475E-05 6.53267E-17
3.21749E-05 5.61050E-17
3.46974E-05 4.84627E-17
3.73152E-05 4.20875E-17
4.00281E-05 3.67334E-17
4.28362E-05 3.22075E-17
4.57395E-05 2.83580E-17
4.87380E-05 2.50652E-17
5.18317E-05 2.22356E-17
5.50205E-05 1.97933E-17
5.83045E-05 1.76770E-17
6.16838E-05 1.58362E-17
6.51582E-05 1.42291E-17
6.87277E-05 1.28207E-17
7.23925E-05 1.15823E-17
7.61524E-05 1.04897E-17
9.21439E-05 7.21831E-18
1.09658E-04 5.12641E-18
1.28695E-04 3.73923E-18
1.49255E-04 2.79041E-18
1.71338E-04 2.12389E-18
1.94942E-04 1.64480E-18
2.20070E-04 1.29335E-18
2.46720E-04 1.03084E-18
2.74892E-04 8.31646E-19
3.04586E-04 6.78266E-19
3.35803E-04 5.58651E-19
3.68542E-04 4.64251E-19
4.02802E-04 3.88956E-19
4.38585E-04 3.28313E-19
4.75889E-04 2.79025E-19
5.14715E-04 2.38642E-19
5.55063E-04 2.05296E-19
5.96931E-04 1.77570E-19
6.40321E-04 1.54363E-19
6.85233E-04 1.34820E-19
7.31665E-04 1.18270E-19
7.79618E-04 1.04178E-19
8.29092E-04 9.21208E-20
8.80086E-04 8.17547E-20
9.32601E-04 7.28037E-20
9.86636E-04 6.50423E-20
1.04219E-03 5.82857E-20
1.09927E-03 5.23823E-20
1.15786E-03 4.72058E-20
1.21797E-03 4.26517E-20
1.27961E-03 3.86324E-20
1.34276E-03 3.50742E-20
1.40743E-03 3.19155E-20
1.47362E-03 2.91034E-20
1.54133E-03 2.65934E-20
1.61056E-03 2.43475E-20
1.68131E-03 2.23330E-20
1.75357E-03 2.05220E-20
1.82735E-03 1.88903E-20
1.90265E-03 1.74171E-20
1.97947E-03 1.60843E-20
2.05780E-03 1.48761E-20
2.13765E-03 1.37789E-20
2.21902E-03 1.27806E-20
2.30190E-03 1.18709E-20
2.38630E-03 1.10403E-20
2.47222E-03 1.02809E-20
2.55965E-03 9.58537E-21
2.64859E-03 8.94748E-21
2.73905E-03 8.36157E-21
2.83103E-03 7.82266E-21
2.92452E-03 7.32630E-21
3.01952E-03 6.86853E-21
3.11604E-03 6.44581E-21
3.21407E-03 6.05498E-21
3.31362E-03 5.69319E-21
3.41468E-03 5.35792E-21
3.51725E-03 5.04685E-21
3.62133E-03 4.75793E-21
3.72692E-03 4.48930E-21
3.83403E-03 4.23928E-21
3.94265E-03 4.00634E-21
4.05278E-03 3.78910E-21
4.16442E-03 3.58632E-21
4.27757E-03 3.39686E-21
4.39223E-03 3.21969E-21
4.50840E-03 3.05386E-21
4.62608E-03 2.89852E-21
4.74527E-03 2.75288E-21
4.86597E-03 2.61622E-21
4.98817E-03 2.48789E-21
5.11188E-03 2.36730E-21
5.23711E-03 2.25388E-21
5.36383E-03 2.14714E-21
5.49207E-03 2.04661E-21
5.62181E-03 1.95187E-21
5.75306E-03 1.86250E-21
5.88581E-03 1.77817E-21
6.02007E-03 1.69853E-21
6.15583E-03 1.62327E-21
6.29310E-03 1.55211E-21
6.43187E-03 1.48479E-21
6.57214E-03 1.42105E-21
6.71392E-03 1.36067E-21
6.85720E-03 1.30345E-21
7.00198E-03 1.24919E-21
7.14827E-03 1.19770E-21
7.29605E-03 1.14882E-21
7.44534E-03 1.10240E-21
7.59612E-03 1.05828E-21
7.97965E-03 9.57197E-22
8.37255E-03 8.67830E-22
8.77480E-03 7.88588E-22
9.18641E-03 7.18127E-22
9.60736E-03 6.55312E-22
1.00376E-02 5.99170E-22
1.04773E-02 5.48870E-22
1.09262E-02 5.03704E-22
1.13844E-02 4.63054E-22
1.18520E-02 4.26393E-22
1.23288E-02 3.93262E-22
1.28150E-02 3.63261E-22
1.33104E-02 3.36045E-22
1.38150E-02 3.11310E-22
1.43290E-02 2.88790E-22
1.48521E-02 2.68254E-22
1.53845E-02 2.49493E-22
1.59262E-02 2.32332E-22
1.64770E-02 2.16606E-22
1.70371E-02 2.02178E-22
1.76063E-02 1.88919E-22
1.81848E-02 1.76719E-22
1.87724E-02 1.65479E-22
1.93692E-02 1.55109E-22
1.99751E-02 1.45532E-22
2.05901E-02 1.36674E-22
2.12143E-02 1.28473E-22
2.18476E-02 1.20872E-22
2.24900E-02 1.13818E-22
2.31415E-02 1.07267E-22
2.38021E-02 1.01174E-22
2.44717E-02 9.55032E-23
2.51504E-02 9.02195E-23
2.58382E-02 8.52921E-23
2.65349E-02 8.06924E-23
2.72407E-02 7.63950E-23
2.79555E-02 7.23764E-23
2.86793E-02 6.86154E-23
2.94120E-02 6.50924E-23
3.01537E-02 6.17899E-23
3.09043E-02 5.86914E-23
3.16639E-02 5.57823E-23
3.24324E-02 5.30487E-23
3.32098E-02 5.04784E-23
3.39961E-02 4.80598E-23
3.47912E-02 4.57823E-23
3.55952E-02 4.36364E-23
3.64081E-02 4.16130E-23
3.72297E-02 3.97038E-23
3.80602E-02 3.79015E-23
3.88995E-02 3.61988E-23
3.97476E-02 3.45895E-23
4.06044E-02 3.30674E-23
4.14700E-02 3.16272E-23
4.23443E-02 3.02639E-23
4.32273E-02 2.89727E-23
4.41190E-02 2.77463E-23
4.50194E-02 2.65831E-23
4.59284E-02 2.54792E-23
4.68461E-02 2.44310E-23
4.87074E-02 2.24890E-23
5.06030E-02 2.07331E-23
5.25328E-02 1.91424E-23
5.44967E-02 1.76988E-23
5.64946E-02 1.63865E-23
5.85262E-02 1.51914E-23
6.05914E-02 1.41013E-23
6.26901E-02 1.31054E-23
6.48222E-02 1.21943E-23
6.69873E-02 1.13595E-23
6.91854E-02 1.05935E-23
7.14163E-02 9.88970E-24
7.36799E-02 9.24220E-24
7.59760E-02 8.64572E-24
7.83043E-02 8.09558E-24
8.06647E-02 7.58755E-24
8.30571E-02 7.11788E-24
8.54812E-02 6.68317E-24
8.79369E-02 6.28039E-24
9.04240E-02 5.90679E-24
9.29422E-02 5.55990E-24
9.54915E-02 5.23749E-24
9.80716E-02 4.93754E-24
1.00682E-01 4.65822E-24
1.03323E-01 4.39787E-24
1.05995E-01 4.15499E-24
1.08696E-01 3.92820E-24
1.11427E-01 3.71626E-24
1.14188E-01 3.51803E-24
1.16978E-01 3.33248E-24
1.19797E-01 3.15866E-24
1.22645E-01 2.99569E-24
1.25522E-01 2.84280E-24
1.28428E-01 2.69925E-24
1.31361E-01 2.56438E-24
1.34323E-01 2.43757E-24
1.37313E-01 2.31826E-24
1.40330E-01 2.20593E-24
1.43375E-01 2.10010E-24
1.46447E-01 2.00034E-24
1.49545E-01 1.90624E-24
1.52671E-01 1.81742E-24
1.55823E-01 1.73354E-24
1.59001E-01 1.65428E-24
1.62205E-01 1.57934E-24
1.65435E-01 1.50844E-24
1.68690E-01 1.44134E-24
1.71970E-01 1.37779E-24
1.75276E-01 1.31757E-24
1.78606E-01 1.26048E-24
1.81961E-01 1.20634E-24
1.85340E-01 1.15496E-24
1.88743E-01 1.10618E-24
1.92169E-01 1.05984E-24
1.95619E-01 1.01581E-24
1.99092E-01 9.73950E-25
2.02589E-01 9.34134E-25
2.06107E-01 8.96246E-25
2.09649E-01 8.60178E-25
2.13212E-01 8.25828E-25
2.16797E-01 7.93101E-25
2.20404E-01 7.61908E-25
2.24032E-01 7.32164E-25
2.27680E-01 7.03791E-25
2.31350E-01 6.76717E-25
2.35040E-01 6.50871E-25
2.38751E-01 6.26189E-25
2.42481E-01 6.02610E-25
2.46231E-01 5.80076E-25
2.50000E-01 5.58534E-25
2.53788E-01 5.37932E-25
2.57595E-01 5.18224E-25
2.61421E-01 4.99364E-25
2.65264E-01 4.81310E-25
2.69126E-01 4.64021E-25
2.73005E-01 4.47460E-25
2.76901E-01 4.31592E-25
2.80814E-01 4.16382E-25
2.84744E-01 4.01800E-25
2.88691E-01 3.87814E-25
2.92653E-01 3.74397E-25
2.96632E-01 3.61522E-25
3.00625E-01 3.49163E-25
3.04634E-01 3.37297E-25
3.08658E-01 3.25900E-25
3.12697E-01 3.14951E-25
3.16749E-01 3.04430E-25
3.20816E-01 2.94317E-25
3.24896E-01 2.84595E-25
3.28990E-01 2.75244E-25
3.33097E-01 2.66250E-25
3.37216E-01 2.57596E-25
3.41348E-01 2.49268E-25
3.45492E-01 2.41250E-25
3.49647E-01 2.33531E-25
3.53814E-01 2.26096E-25
3.57992E-01 2.18934E-25
3.62181E-01 2.12034E-25
3.66381E-01 2.05383E-25
3.70590E-01 1.98973E-25
3.74810E-01 1.92792E-25
3.79039E-01 1.86831E-25
3.83277E-01 1.81082E-25
3.87524E-01 1.75535E-25
3.91780E-01 1.70182E-25
3.96044E-01 1.65016E-25
4.00316E-01 1.60028E-25
4.04596E-01 1.55213E-25
4.08882E-01 1.50562E-25
4.13176E-01 1.46070E-25
4.17476E-01 1.41730E-25
4.21783E-01 1.37537E-25
4.26095E-01 1.33484E-25
4.30413E-01 1.29566E-25
4.34737E-01 1.25778E-25
4.39065E-01 1.22115E-25
4.43398E-01 1.18573E-25
4.47736E-01 1.15146E-25
4.52077E-01 1.11831E-25
4.56422E-01 1.08622E-25
4.60770E-01 1.05517E-25
4.65122E-01 1.02512E-25
4.69476E-01 9.96021E-26
4.73832E-01 9.67846E-26
4.78190E-01 9.40559E-26
4.82550E-01 9.14129E-26
4.86912E-01 8.88526E-26
4.91274E-01 8.63718E-26
4.95637E-01 8.39678E-26
5.00000E-01 8.16379E-26
5.04363E-01 7.93795E-26
5.08726E-01 7.71900E-26
5.13088E-01 7.50670E-26
5.17450E-01 7.30083E-26
5.21810E-01 7.10115E-26
5.26168E-01 6.90746E-26
5.30524E-01 6.71955E-26
5.34878E-01 6.53722E-26
5.39230E-01 6.36029E-26
5.43578E-01 6.18857E-26
5.47923E-01 6.02189E-26
5.52264E-01 5.86008E-26
5.56602E-01 5.70297E-26
5.60935E-01 5.55041E-26
5.65263E-01 5.40225E-26
5.69587E-01 5.25835E-26
5.73905E-01 5.11856E-26
5.78217E-01 4.98275E-26
5.82524E-01 4.85080E-26
5.86824E-01 4.72257E-26
5.91118E-01 4.59796E-26
5.95404E-01 4.47684E-26
5.99684E-01 4.35910E-26
6.03956E-01 4.24463E-26
6.08220E-01 4.13334E-26
6.12476E-01 4.02512E-26
6.16723E-01 3.91987E-26
6.20961E-01 3.81751E-26
6.25190E-01 3.71795E-26
6.29410E-01 3.62109E-26
6.33619E-01 3.52685E-26
6.37819E-01 3.43516E-26
6.42008E-01 3.34594E-26
6.46186E-01 3.25911E-26
6.50353E-01 3.17459E-26
6.54508E-01 3.09233E-26
6.58652E-01 3.01225E-26
6.62784E-01 2.93429E-26
6.66903E-01 2.85838E-26
6.71010E-01 2.78446E-26
6.75104E-01 2.71248E-26
6.79184E-01 2.64238E-26
6.83251E-01 2.57410E-26
6.87303E-01 2.50759E-26
6.91342E-01 2.44279E-26
6.95366E-01 2.37967E-26
6.99375E-01 2.31817E-26
7.03368E-01 2.25824E-26
7.07347E-01 2.19984E-26
7.11309E-01 2.14293E-26
7.15256E-01 2.08746E-26
7.19186E-01 2.03340E-26
7.23099E-01 1.98070E-26
7.26995E-01 1.92932E-26
7.30874E-01 1.87924E-26
7.34736E-01 1.83040E-26
7.38579E-01 1.78279E-26
7.42405E-01 1.73636E-26
7.46212E-01 1.69108E-26
7.50000E-01 1.64692E-26
7.53769E-01 1.60386E-26
7.57519E-01 1.56185E-26
7.61249E-01 1.52088E-26
7.64960E-01 1.48091E-26
7.68650E-01 1.44192E-26
7.72320E-01 1.40388E-26
7.75968E-01 1.36677E-26
7.79596E-01 1.33056E-26
7.83203E-01 1.29523E-26
7.86788E-01 1.26075E-26
7.90351E-01 1.22710E-26
7.93893E-01 1.19427E-26
7.97411E-01 1.16223E-26
8.00908E-01 1.13095E-26
8.04381E-01 1.10043E-26
8.07831E-01 1.07064E-26
8.11257E-01 1.04155E-26
8.14660E-01 1.01317E-26
8.18039E-01 9.85456E-27
8.21394E-01 9.58404E-27
8.24724E-01 9.31996E-27
8.28030E-01 9.06214E-27
8.31310E-01 8.81044E-27
8.34565E-01 8.56470E-27
8.37795E-01 8.32477E-27
8.40999E-01 8.09052E-27
8.44177E-01 7.86180E-27
8.47329E-01 7.63848E-27
8.50455E-01 7.42043E-27
8.53553E-01 7.20753E-27
8.56625E-01 6.99964E-27
8.59670E-01 6.79665E-27
8.62687E-01 6.59845E-27
8.65677E-01 6.40491E-27
8.68639E-01 6.21594E-27
8.71572E-01 6.03142E-27
8.74478E-01 5.85125E-27
8.77355E-01 5.67534E-27
8.80203E-01 5.50357E-27
8.83022E-01 5.33586E-27
8.85812E-01 5.17212E-27
8.88573E-01 5.01225E-27
8.91304E-01 4.85617E-27
8.94005E-01 4.70380E-27
8.96677E-01 4.55505E-27
8.99318E-01 4.40983E-27
9.01928E-01 4.26808E-27
9.04508E-01 4.12972E-27
9.07058E-01 3.99467E-27
9.09576E-01 3.86287E-27
9.12063E-01 3.73424E-27
9.14519E-01 3.60872E-27
9.16943E-01 3.48623E-27
9.19335E-01 3.36673E-27
9.21696E-01 3.25014E-27
9.24024E-01 3.13640E-27
9.26320E-01 3.02546E-27
9.28584E-01 2.91726E-27
9.30815E-01 2.81175E-27
9.33013E-01 2.70887E-27
9.35178E-01 2.60856E-27
9.37310E-01 2.51079E-27
9.39409E-01 2.41550E-27
9.41474E-01 2.32263E-27
9.43505E-01 2.23216E-27
9.45503E-01 2.14402E-27
9.47467E-01 2.05818E-27
9.49397E-01 1.97460E-27
9.51293E-01 1.89323E-27
9.53154E-01 1.81403E-27
9.54981E-01 1.73697E-27
9.56773E-01 1.66201E-27
9.58530E-01 1.58911E-27
9.60252E-01 1.51823E-27
9.61940E-01 1.44935E-27
9.63592E-01 1.38242E-27
9.65209E-01 1.31742E-27
9.66790E-01 1.25432E-27
9.68336E-01 1.19308E-27
9.69846E-01 1.13368E-27
9.71321E-01 1.07609E-27
9.72759E-01 1.02027E-27
9.74162E-01 9.66215E-28
9.75528E-01 9.13885E-28
9.76858E-01 8.63260E-28
9.78152E-01 8.14315E-28
9.79410E-01 7.67028E-28
9.80631E-01 7.21376E-28
9.81815E-01 6.77339E-28
9.82963E-01 6.34896E-28
9.84074E-01 5.94027E-28
9.85148E-01 5.54713E-28
9.86185E-01 5.16937E-28
9.87185E-01 4.80680E-28
9.88148E-01 4.45927E-28
9.89074E-01 4.12660E-28
9.89962E-01 3.80865E-28
9.90814E-01 3.50527E-28
9.91627E-01 3.21633E-28
9.92404E-01 2.94169E-28
9.93143E-01 2.68122E-28
9.93844E-01 2.43482E-28
9.94508E-01 2.20235E-28
9.95134E-01 1.98373E-28
9.95722E-01 1.77885E-28
9.96273E-01 1.58762E-28
9.96786E-01 1.40994E-28
9.97261E-01 1.24575E-28
9.97698E-01 1.09497E-28
9.98097E-01 9.57519E-29
9.98459E-01 8.33348E-29
9.98782E-01 7.22397E-29
9.99067E-01 6.24617E-29
9.99315E-01 5.39963E-29
9.99524E-01 4.68397E-29
9.99695E-01 4.09887E-29
9.99829E-01 3.64406E-29
9.99924E-01 3.31935E-29
9.99981E-01 3.12458E-29
1.00000E+00 3.05966E-29
