 #
 # Subroutine ELSEPA. Elastic scattering of electrons and positrons
 #                    by neutral atoms and positive ions
 #
 # Projectile: positron
 # Kinetic energy = 3.50000E+08 eV = 1.28623E+07 a.u.
 #
 # WARNING: High-energy factorization with free-atom DF screening.
 #          Absorption, polarization and exchange corrections are
 #          switched off.
 #          Phase shifts are calculated for the bare nucleus.
 #          Scattering amplitudes are not evaluated.
 #
 # Element: Pa,  Z =  91,  atomic weight = 2.31036E+02 g/mol
 #
 # Nuclear model: Fermi distribution
 #                Average radius = 6.56564E-13 cm
 #                Skin thickness = 5.46000E-14 cm
 #
 # Number of electrons = 91
 #
 # Total elastic cross section = 1.16868E-17 cm**2 = 4.17343E-01 a0**2
 # 1st transport cross section = 1.23915E-25 cm**2 = 4.42507E-09 a0**2
 # 2nd transport cross section = 3.71432E-25 cm**2 = 1.32641E-08 a0**2
 #
 #
 # Differential cross section:                       MU=(1-COS(THETA))/2
 #
 #  THETA        MU          DCS          DCS        Sherman      error
 #  (deg)                 (cm**2/sr)   (a0**2/sr)    function
 #----------------------------------------------------------------------
0.00000E+00 1.69696E-08
7.61557E-13 1.61289E-08
1.18994E-12 1.56862E-08
1.71346E-12 1.51722E-08
2.33225E-12 1.46013E-08
3.04617E-12 1.39852E-08
3.85530E-12 1.33397E-08
4.75964E-12 1.26767E-08
5.75917E-12 1.20060E-08
6.85391E-12 1.13422E-08
8.04379E-12 1.06896E-08
9.32893E-12 1.00553E-08
1.07092E-11 9.44791E-09
1.21847E-11 8.86690E-09
1.37554E-11 8.31664E-09
1.54213E-11 7.79928E-09
1.71823E-11 7.31265E-09
1.90386E-11 6.85896E-09
2.09900E-11 6.43620E-09
2.30367E-11 6.04228E-09
2.51785E-11 5.67778E-09
2.74156E-11 5.33923E-09
2.97478E-11 5.02521E-09
3.21752E-11 4.73476E-09
3.46979E-11 4.46517E-09
3.73157E-11 4.21526E-09
4.00286E-11 3.98329E-09
4.28368E-11 3.76784E-09
4.57402E-11 3.56749E-09
4.87388E-11 3.38083E-09
5.18325E-11 3.20710E-09
5.50215E-11 3.04463E-09
5.83057E-11 2.89286E-09
6.16850E-11 2.75118E-09
6.51595E-11 2.61780E-09
6.87293E-11 2.49299E-09
7.23943E-11 2.37589E-09
7.61544E-11 2.26533E-09
1.18991E-10 1.45059E-09
1.71347E-10 9.69051E-10
2.33223E-10 6.63847E-10
3.04617E-10 4.78265E-10
3.85531E-10 3.51086E-10
4.75965E-10 2.64755E-10
5.75917E-10 2.04763E-10
6.85389E-10 1.59852E-10
8.04380E-10 1.27175E-10
9.32891E-10 1.02625E-10
1.07092E-09 8.34487E-11
1.21847E-09 6.87698E-11
1.37554E-09 5.71870E-11
1.54213E-09 4.79274E-11
1.71823E-09 4.05586E-11
1.90386E-09 3.45375E-11
2.09900E-09 2.96114E-11
2.30367E-09 2.55715E-11
2.51785E-09 2.21717E-11
2.74156E-09 1.93339E-11
2.97478E-09 1.69475E-11
3.21752E-09 1.48976E-11
3.46978E-09 1.31579E-11
3.73156E-09 1.16630E-11
4.00286E-09 1.03665E-11
4.28368E-09 9.25025E-12
4.57402E-09 8.27866E-12
4.87388E-09 7.42462E-12
5.18326E-09 6.67795E-12
5.50215E-09 6.02000E-12
5.83057E-09 5.44249E-12
6.16850E-09 4.93438E-12
6.51596E-09 4.48274E-12
6.87293E-09 4.08316E-12
7.23942E-09 3.72776E-12
7.61544E-09 3.40961E-12
1.18991E-08 1.54187E-12
1.71347E-08 7.98881E-13
2.33223E-08 4.54536E-13
3.04617E-08 2.77754E-13
3.85531E-08 1.79412E-13
4.75965E-08 1.21150E-13
5.75917E-08 8.47096E-14
6.85389E-08 6.10032E-14
8.04380E-08 4.50137E-14
9.32891E-08 3.39235E-14
1.07092E-07 2.60433E-14
1.21847E-07 2.03185E-14
1.37554E-07 1.60854E-14
1.54213E-07 1.28997E-14
1.71823E-07 1.04662E-14
1.90386E-07 8.58169E-15
2.09900E-07 7.10321E-15
2.30367E-07 5.93064E-15
2.51785E-07 4.99052E-15
2.74156E-07 4.22972E-15
2.97478E-07 3.60867E-15
3.21752E-07 3.09745E-15
3.46978E-07 2.67368E-15
3.73156E-07 2.31988E-15
4.00286E-07 2.02267E-15
4.28368E-07 1.77153E-15
4.57402E-07 1.55811E-15
4.87388E-07 1.37586E-15
5.18325E-07 1.21944E-15
5.50215E-07 1.08460E-15
5.83057E-07 9.67873E-16
6.16850E-07 8.66401E-16
6.51596E-07 7.77874E-16
6.87293E-07 7.00351E-16
7.23942E-07 6.32238E-16
7.61543E-07 5.72200E-16
1.18991E-06 2.37014E-16
1.71347E-06 1.15140E-16
2.33223E-06 6.24802E-17
3.04617E-06 3.67737E-17
3.85531E-06 2.30307E-17
4.75964E-06 1.51486E-17
5.75916E-06 1.03676E-17
6.85388E-06 7.33218E-18
8.04378E-06 5.33040E-18
9.32888E-06 3.96726E-18
1.07092E-05 3.01316E-18
1.21846E-05 2.32928E-18
1.37553E-05 1.82880E-18
1.54212E-05 1.45574E-18
1.71822E-05 1.17309E-18
1.90385E-05 9.55093E-19
2.09899E-05 7.86623E-19
2.30365E-05 6.53544E-19
2.51783E-05 5.47246E-19
2.74153E-05 4.61548E-19
2.97475E-05 3.91913E-19
3.21749E-05 3.34918E-19
3.46974E-05 2.87944E-19
3.73152E-05 2.48957E-19
4.00281E-05 2.16375E-19
4.28362E-05 1.88960E-19
4.57395E-05 1.65749E-19
4.87380E-05 1.45984E-19
5.18317E-05 1.29069E-19
5.50205E-05 1.14526E-19
5.83045E-05 1.01972E-19
6.16838E-05 9.10912E-20
6.51582E-05 8.16255E-20
6.87277E-05 7.33590E-20
7.23925E-05 6.61139E-20
7.61524E-05 6.01083E-20
9.21439E-05 4.10971E-20
1.09658E-04 2.90465E-20
1.28695E-04 2.11103E-20
1.49255E-04 1.57108E-20
1.71338E-04 1.19335E-20
1.94942E-04 9.22729E-21
2.20070E-04 7.24741E-21
2.46720E-04 5.77114E-21
2.74892E-04 4.65179E-21
3.04586E-04 3.79089E-21
3.35803E-04 3.12010E-21
3.68542E-04 2.59105E-21
4.02802E-04 2.16929E-21
4.38585E-04 1.82971E-21
4.75889E-04 1.55378E-21
5.14715E-04 1.32774E-21
5.55063E-04 1.14111E-21
5.96931E-04 9.85939E-22
6.40321E-04 8.56070E-22
6.85233E-04 7.46709E-22
7.31665E-04 6.54098E-22
7.79618E-04 5.75245E-22
8.29092E-04 5.07781E-22
8.80086E-04 4.49785E-22
9.32601E-04 3.99713E-22
9.86636E-04 3.56304E-22
1.04219E-03 3.18522E-22
1.09927E-03 2.85522E-22
1.15786E-03 2.56595E-22
1.21797E-03 2.31157E-22
1.27961E-03 2.08718E-22
1.34276E-03 1.88866E-22
1.40743E-03 1.71253E-22
1.47362E-03 1.55585E-22
1.54133E-03 1.41613E-22
1.61056E-03 1.29123E-22
1.68131E-03 1.17931E-22
1.75357E-03 1.07882E-22
1.82735E-03 9.88394E-23
1.90265E-03 9.06865E-23
1.97947E-03 8.33213E-23
2.05780E-03 7.66559E-23
2.13765E-03 7.06131E-23
2.21902E-03 6.51255E-23
2.30190E-03 6.01341E-23
2.38630E-03 5.55870E-23
2.47222E-03 5.14386E-23
2.55965E-03 4.76484E-23
2.64859E-03 4.41808E-23
2.73905E-03 4.10042E-23
2.83103E-03 3.80903E-23
2.92452E-03 3.54143E-23
3.01952E-03 3.29538E-23
3.11604E-03 3.06889E-23
3.21407E-03 2.86017E-23
3.31362E-03 2.66763E-23
3.41468E-03 2.48984E-23
3.51725E-03 2.32549E-23
3.62133E-03 2.17344E-23
3.72692E-03 2.03263E-23
3.83403E-03 1.90212E-23
3.94265E-03 1.78104E-23
4.05278E-03 1.66863E-23
4.16442E-03 1.56418E-23
4.27757E-03 1.46705E-23
4.39223E-03 1.37666E-23
4.50840E-03 1.29248E-23
4.62608E-03 1.21403E-23
4.74527E-03 1.14088E-23
4.86597E-03 1.07261E-23
4.98817E-03 1.00886E-23
5.11188E-03 9.49301E-24
5.23711E-03 8.93616E-24
5.36383E-03 8.41525E-24
5.49207E-03 7.92770E-24
5.62181E-03 7.47112E-24
5.75306E-03 7.04331E-24
5.88581E-03 6.64225E-24
6.02007E-03 6.26610E-24
6.15583E-03 5.91312E-24
6.29310E-03 5.58174E-24
6.43187E-03 5.27049E-24
6.57214E-03 4.97803E-24
6.71392E-03 4.70311E-24
6.85720E-03 4.44455E-24
7.00198E-03 4.20130E-24
7.14827E-03 3.97236E-24
7.29605E-03 3.75680E-24
7.44534E-03 3.55377E-24
7.59612E-03 3.36247E-24
7.97965E-03 2.93082E-24
8.37255E-03 2.55778E-24
8.77480E-03 2.23478E-24
9.18641E-03 1.95462E-24
9.60736E-03 1.71122E-24
1.00376E-02 1.49944E-24
1.04773E-02 1.31491E-24
1.09262E-02 1.15393E-24
1.13844E-02 1.01333E-24
1.18520E-02 8.90386E-25
1.23288E-02 7.82782E-25
1.28150E-02 6.88517E-25
1.33104E-02 6.05869E-25
1.38150E-02 5.33353E-25
1.43290E-02 4.69683E-25
1.48521E-02 4.13746E-25
1.53845E-02 3.64576E-25
1.59262E-02 3.21333E-25
1.64770E-02 2.83287E-25
1.70371E-02 2.49801E-25
1.76063E-02 2.20318E-25
1.81848E-02 1.94352E-25
1.87724E-02 1.71479E-25
1.93692E-02 1.51327E-25
1.99751E-02 1.33568E-25
2.05901E-02 1.17917E-25
2.12143E-02 1.04122E-25
2.18476E-02 9.19627E-26
2.24900E-02 8.12442E-26
2.31415E-02 7.17958E-26
2.38021E-02 6.34669E-26
2.44717E-02 5.61249E-26
2.51504E-02 4.96529E-26
2.58382E-02 4.39481E-26
2.65349E-02 3.89194E-26
2.72407E-02 3.44868E-26
2.79555E-02 3.05797E-26
2.86793E-02 2.71356E-26
2.94120E-02 2.40995E-26
3.01537E-02 2.14228E-26
3.09043E-02 1.90627E-26
3.16639E-02 1.69815E-26
3.24324E-02 1.51456E-26
3.32098E-02 1.35257E-26
3.39961E-02 1.20959E-26
3.47912E-02 1.08333E-26
3.55952E-02 9.71771E-27
3.64081E-02 8.73135E-27
3.72297E-02 7.85860E-27
3.80602E-02 7.08568E-27
3.88995E-02 6.40049E-27
3.97476E-02 5.79235E-27
4.06044E-02 5.25192E-27
4.14700E-02 4.77096E-27
4.23443E-02 4.34224E-27
4.32273E-02 3.95944E-27
4.41190E-02 3.61699E-27
4.50194E-02 3.31003E-27
4.59284E-02 3.03430E-27
4.68461E-02 2.78605E-27
4.87074E-02 2.35940E-27
5.06030E-02 2.00861E-27
5.25328E-02 1.71731E-27
5.44967E-02 1.47303E-27
5.64946E-02 1.26629E-27
5.85262E-02 1.08988E-27
6.05914E-02 9.38264E-28
6.26901E-02 8.07227E-28
6.48222E-02 6.93495E-28
6.69873E-02 5.94509E-28
6.91854E-02 5.08241E-28
7.14163E-02 4.33051E-28
7.36799E-02 3.67588E-28
7.59760E-02 3.10715E-28
7.83043E-02 2.61454E-28
8.06647E-02 2.18951E-28
8.30571E-02 1.82443E-28
8.54812E-02 1.51248E-28
8.79369E-02 1.24745E-28
9.04240E-02 1.02368E-28
9.29422E-02 8.36019E-29
9.54915E-02 6.79778E-29
9.80716E-02 5.50689E-29
1.00682E-01 4.44897E-29
1.03323E-01 3.58934E-29
1.05995E-01 2.89707E-29
1.08696E-01 2.34473E-29
1.11427E-01 1.90823E-29
1.14188E-01 1.56658E-29
1.16978E-01 1.30166E-29
1.19797E-01 1.09801E-29
1.22645E-01 9.42561E-30
1.25522E-01 8.24409E-30
1.28428E-01 7.34566E-30
1.31361E-01 6.65734E-30
1.34323E-01 6.12082E-30
1.37313E-01 5.69040E-30
1.40330E-01 5.33104E-30
1.43375E-01 5.01661E-30
1.46447E-01 4.72832E-30
1.49545E-01 4.45328E-30
1.52671E-01 4.18329E-30
1.55823E-01 3.91377E-30
1.59001E-01 3.64283E-30
1.62205E-01 3.37051E-30
1.65435E-01 3.09819E-30
1.68690E-01 2.82803E-30
1.71970E-01 2.56260E-30
1.75276E-01 2.30460E-30
1.78606E-01 2.05657E-30
1.81961E-01 1.82080E-30
1.85340E-01 1.59920E-30
1.88743E-01 1.39323E-30
1.92169E-01 1.20393E-30
1.95619E-01 1.03187E-30
1.99092E-01 8.77231E-31
2.02589E-01 7.39817E-31
2.06107E-01 6.19112E-31
2.09649E-01 5.14335E-31
2.13212E-01 4.24502E-31
2.16797E-01 3.48476E-31
2.20404E-01 2.85017E-31
2.24032E-01 2.32831E-31
2.27680E-01 1.90609E-31
2.31350E-01 1.57061E-31
2.35040E-01 1.30946E-31
2.38751E-01 1.11091E-31
2.42481E-01 9.64103E-32
2.46231E-01 8.59167E-32
2.50000E-01 7.87258E-32
2.53788E-01 7.40607E-32
2.57595E-01 7.12506E-32
2.61421E-01 6.97276E-32
2.65264E-01 6.90212E-32
2.69126E-01 6.87510E-32
2.73005E-01 6.86189E-32
2.76901E-01 6.83997E-32
2.80814E-01 6.79322E-32
2.84744E-01 6.71102E-32
2.88691E-01 6.58736E-32
2.92653E-01 6.41998E-32
2.96632E-01 6.20963E-32
3.00625E-01 5.95935E-32
3.04634E-01 5.67381E-32
3.08658E-01 5.35883E-32
3.12697E-01 5.02087E-32
3.16749E-01 4.66663E-32
3.20816E-01 4.30278E-32
3.24896E-01 3.93567E-32
3.28990E-01 3.57116E-32
3.33097E-01 3.21448E-32
3.37216E-01 2.87018E-32
3.41348E-01 2.54202E-32
3.45492E-01 2.23304E-32
3.49647E-01 1.94550E-32
3.53814E-01 1.68097E-32
3.57992E-01 1.44036E-32
3.62181E-01 1.22401E-32
3.66381E-01 1.03173E-32
3.70590E-01 8.62904E-33
3.74810E-01 7.16537E-33
3.79039E-01 5.91358E-33
3.83277E-01 4.85874E-33
3.87524E-01 3.98441E-33
3.91780E-01 3.27319E-33
3.96044E-01 2.70726E-33
4.00316E-01 2.26883E-33
4.04596E-01 1.94054E-33
4.08882E-01 1.70572E-33
4.13176E-01 1.54869E-33
4.17476E-01 1.45491E-33
4.21783E-01 1.41110E-33
4.26095E-01 1.40534E-33
4.30413E-01 1.42712E-33
4.34737E-01 1.46728E-33
4.39065E-01 1.51802E-33
4.43398E-01 1.57283E-33
4.47736E-01 1.62642E-33
4.52077E-01 1.67460E-33
4.56422E-01 1.71421E-33
4.60770E-01 1.74300E-33
4.65122E-01 1.75950E-33
4.69476E-01 1.76296E-33
4.73832E-01 1.75318E-33
4.78190E-01 1.73046E-33
4.82550E-01 1.69547E-33
4.86912E-01 1.64919E-33
4.91274E-01 1.59282E-33
4.95637E-01 1.52771E-33
5.00000E-01 1.45528E-33
5.04363E-01 1.37700E-33
5.08726E-01 1.29432E-33
5.13088E-01 1.20865E-33
5.17450E-01 1.12133E-33
5.21810E-01 1.03359E-33
5.26168E-01 9.46545E-34
5.30524E-01 8.61190E-34
5.34878E-01 7.78389E-34
5.39230E-01 6.98870E-34
5.43578E-01 6.23232E-34
5.47923E-01 5.51947E-34
5.52264E-01 4.85366E-34
5.56602E-01 4.23727E-34
5.60935E-01 3.67168E-34
5.65263E-01 3.15732E-34
5.69587E-01 2.69383E-34
5.73905E-01 2.28016E-34
5.78217E-01 1.91463E-34
5.82524E-01 1.59509E-34
5.86824E-01 1.31902E-34
5.91118E-01 1.08358E-34
5.95404E-01 8.85720E-35
5.99684E-01 7.22269E-35
6.03956E-01 5.89988E-35
6.08220E-01 4.85637E-35
6.12476E-01 4.06025E-35
6.16723E-01 3.48054E-35
6.20961E-01 3.08758E-35
6.25190E-01 2.85329E-35
6.29410E-01 2.75139E-35
6.33619E-01 2.75756E-35
6.37819E-01 2.84954E-35
6.42008E-01 3.00726E-35
6.46186E-01 3.21265E-35
6.50353E-01 3.44986E-35
6.54508E-01 3.70501E-35
6.58652E-01 3.96621E-35
6.62784E-01 4.22341E-35
6.66903E-01 4.46830E-35
6.71010E-01 4.69420E-35
6.75104E-01 4.89587E-35
6.79184E-01 5.06941E-35
6.83251E-01 5.21213E-35
6.87303E-01 5.32241E-35
6.91342E-01 5.39945E-35
6.95366E-01 5.44336E-35
6.99375E-01 5.45484E-35
7.03368E-01 5.43514E-35
7.07347E-01 5.38605E-35
7.11309E-01 5.30952E-35
7.15256E-01 5.20798E-35
7.19186E-01 5.08384E-35
7.23099E-01 4.93972E-35
7.26995E-01 4.77832E-35
7.30874E-01 4.60227E-35
7.34736E-01 4.41415E-35
7.38579E-01 4.21647E-35
7.42405E-01 4.01169E-35
7.46212E-01 3.80201E-35
7.50000E-01 3.58954E-35
7.53769E-01 3.37624E-35
7.57519E-01 3.16384E-35
7.61249E-01 2.95393E-35
7.64960E-01 2.74791E-35
7.68650E-01 2.54698E-35
7.72320E-01 2.35218E-35
7.75968E-01 2.16438E-35
7.79596E-01 1.98429E-35
7.83203E-01 1.81248E-35
7.86788E-01 1.64936E-35
7.90351E-01 1.49525E-35
7.93893E-01 1.35030E-35
7.97411E-01 1.21461E-35
8.00908E-01 1.08812E-35
8.04381E-01 9.70774E-36
8.07831E-01 8.62369E-36
8.11257E-01 7.62692E-36
8.14660E-01 6.71444E-36
8.18039E-01 5.88299E-36
8.21394E-01 5.12903E-36
8.24724E-01 4.44863E-36
8.28030E-01 3.83776E-36
8.31310E-01 3.29225E-36
8.34565E-01 2.80791E-36
8.37795E-01 2.38042E-36
8.40999E-01 2.00558E-36
8.44177E-01 1.67930E-36
8.47329E-01 1.39750E-36
8.50455E-01 1.15628E-36
8.53553E-01 9.51851E-37
8.56625E-01 7.80631E-37
8.59670E-01 6.39214E-37
8.62687E-01 5.24358E-37
8.65677E-01 4.33045E-37
8.68639E-01 3.62447E-37
8.71572E-01 3.09947E-37
8.74478E-01 2.73110E-37
8.77355E-01 2.49714E-37
8.80203E-01 2.37699E-37
8.83022E-01 2.35238E-37
8.85812E-01 2.40623E-37
8.88573E-01 2.52356E-37
8.91304E-01 2.69099E-37
8.94005E-01 2.89632E-37
8.96677E-01 3.12876E-37
8.99318E-01 3.37981E-37
9.01928E-01 3.64077E-37
9.04508E-01 3.90473E-37
9.07058E-01 4.16597E-37
9.09576E-01 4.41981E-37
9.12063E-01 4.66150E-37
9.14519E-01 4.88813E-37
9.16943E-01 5.09713E-37
9.19335E-01 5.28641E-37
9.21696E-01 5.45427E-37
9.24024E-01 5.60016E-37
9.26320E-01 5.72306E-37
9.28584E-01 5.82334E-37
9.30815E-01 5.90035E-37
9.33013E-01 5.95513E-37
9.35178E-01 5.98814E-37
9.37310E-01 6.00006E-37
9.39409E-01 5.99184E-37
9.41474E-01 5.96443E-37
9.43505E-01 5.91921E-37
9.45503E-01 5.85768E-37
9.47467E-01 5.77988E-37
9.49397E-01 5.68849E-37
9.51293E-01 5.58369E-37
9.53154E-01 5.46743E-37
9.54981E-01 5.34052E-37
9.56773E-01 5.20487E-37
9.58530E-01 5.06074E-37
9.60252E-01 4.90962E-37
9.61940E-01 4.75313E-37
9.63592E-01 4.59119E-37
9.65209E-01 4.42604E-37
9.66790E-01 4.25786E-37
9.68336E-01 4.08707E-37
9.69846E-01 3.91544E-37
9.71321E-01 3.74370E-37
9.72759E-01 3.57166E-37
9.74162E-01 3.40045E-37
9.75528E-01 3.23091E-37
9.76858E-01 3.06328E-37
9.78152E-01 2.89787E-37
9.79410E-01 2.73552E-37
9.80631E-01 2.57610E-37
9.81815E-01 2.42008E-37
9.82963E-01 2.26843E-37
9.84074E-01 2.12057E-37
9.85148E-01 1.97719E-37
9.86185E-01 1.83805E-37
9.87185E-01 1.70391E-37
9.88148E-01 1.57431E-37
9.89074E-01 1.44963E-37
9.89962E-01 1.33009E-37
9.90814E-01 1.21537E-37
9.91627E-01 1.10632E-37
9.92404E-01 1.00195E-37
9.93143E-01 9.03241E-38
9.93844E-01 8.09353E-38
9.94508E-01 7.21024E-38
9.95134E-01 6.37713E-38
9.95722E-01 5.59817E-38
9.96273E-01 4.86828E-38
9.96786E-01 4.19210E-38
9.97261E-01 3.56804E-38
9.97698E-01 2.99500E-38
9.98097E-01 2.47213E-38
9.98459E-01 2.00119E-38
9.98782E-01 1.57967E-38
9.99067E-01 1.20901E-38
9.99315E-01 8.87939E-39
9.99524E-01 6.17596E-39
9.99695E-01 3.95732E-39
9.99829E-01 2.25003E-39
9.99924E-01 1.01405E-39
9.99981E-01 2.84868E-40
1.00000E+00 3.58773E-41
