 #
 # Subroutine ELSEPA. Elastic scattering of electrons and positrons
 #                    by neutral atoms and positive ions
 #
 # Projectile: positron
 # Kinetic energy = 4.00000E+07 eV = 1.46997E+06 a.u.
 #
 # WARNING: High-energy factorization with free-atom DF screening.
 #          Absorption, polarization and exchange corrections are
 #          switched off.
 #          Phase shifts are calculated for the bare nucleus.
 #          Scattering amplitudes are not evaluated.
 #
 # Element: Pa,  Z =  91,  atomic weight = 2.31036E+02 g/mol
 #
 # Nuclear model: Fermi distribution
 #                Average radius = 6.56564E-13 cm
 #                Skin thickness = 5.46000E-14 cm
 #
 # Number of electrons = 91
 #
 # Total elastic cross section = 1.16900E-17 cm**2 = 4.17458E-01 a0**2
 # 1st transport cross section = 8.32129E-24 cm**2 = 2.97159E-07 a0**2
 # 2nd transport cross section = 2.43414E-23 cm**2 = 8.69248E-07 a0**2
 #
 #
 # Differential cross section:                       MU=(1-COS(THETA))/2
 #
 #  THETA        MU          DCS          DCS        Sherman      error
 #  (deg)                 (cm**2/sr)   (a0**2/sr)    function
 #----------------------------------------------------------------------
0.00000E+00 2.26681E-10
7.61557E-13 2.26523E-10
1.18994E-12 2.26435E-10
1.71346E-12 2.26327E-10
2.33225E-12 2.26200E-10
3.04617E-12 2.26054E-10
3.85530E-12 2.25889E-10
4.75964E-12 2.25704E-10
5.75917E-12 2.25500E-10
6.85391E-12 2.25277E-10
8.04379E-12 2.25035E-10
9.32893E-12 2.24775E-10
1.07092E-11 2.24495E-10
1.21847E-11 2.24197E-10
1.37554E-11 2.23881E-10
1.54213E-11 2.23546E-10
1.71823E-11 2.23193E-10
1.90386E-11 2.22821E-10
2.09900E-11 2.22432E-10
2.30367E-11 2.22026E-10
2.51785E-11 2.21601E-10
2.74156E-11 2.21159E-10
2.97478E-11 2.20700E-10
3.21752E-11 2.20224E-10
3.46979E-11 2.19731E-10
3.73157E-11 2.19222E-10
4.00286E-11 2.18696E-10
4.28368E-11 2.18153E-10
4.57402E-11 2.17595E-10
4.87388E-11 2.17021E-10
5.18325E-11 2.16431E-10
5.50215E-11 2.15826E-10
5.83057E-11 2.15206E-10
6.16850E-11 2.14571E-10
6.51595E-11 2.13922E-10
6.87293E-11 2.13258E-10
7.23943E-11 2.12580E-10
7.61544E-11 2.11888E-10
1.18991E-10 2.04264E-10
1.71347E-10 1.95567E-10
2.33223E-10 1.86054E-10
3.04617E-10 1.76022E-10
3.85531E-10 1.65747E-10
4.75965E-10 1.55431E-10
5.75917E-10 1.45263E-10
6.85389E-10 1.35420E-10
8.04380E-10 1.26013E-10
9.32891E-10 1.17097E-10
1.07092E-09 1.08719E-10
1.21847E-09 1.00934E-10
1.37554E-09 9.37197E-11
1.54213E-09 8.70558E-11
1.71823E-09 8.09228E-11
1.90386E-09 7.53094E-11
2.09900E-09 7.01602E-11
2.30367E-09 6.54408E-11
2.51785E-09 6.11190E-11
2.74156E-09 5.71619E-11
2.97478E-09 5.35305E-11
3.21752E-09 5.01967E-11
3.46978E-09 4.71323E-11
3.73156E-09 4.43070E-11
4.00286E-09 4.17015E-11
4.28368E-09 3.92960E-11
4.57402E-09 3.70678E-11
4.87388E-09 3.49983E-11
5.18326E-09 3.30780E-11
5.50215E-09 3.12941E-11
5.83057E-09 2.96281E-11
6.16850E-09 2.80718E-11
6.51596E-09 2.66199E-11
6.87293E-09 2.52637E-11
7.23942E-09 2.39881E-11
7.61544E-09 2.27922E-11
1.18991E-08 1.41095E-11
1.71347E-08 9.07611E-12
2.33223E-08 6.20007E-12
3.04617E-08 4.37861E-12
3.85531E-08 3.17747E-12
4.75965E-08 2.37374E-12
5.75917E-08 1.81442E-12
6.85389E-08 1.40812E-12
8.04380E-08 1.10922E-12
9.32891E-08 8.87480E-13
1.07092E-07 7.19632E-13
1.21847E-07 5.89215E-13
1.37554E-07 4.87555E-13
1.54213E-07 4.07499E-13
1.71823E-07 3.43602E-13
1.90386E-07 2.91470E-13
2.09900E-07 2.48999E-13
2.30367E-07 2.14091E-13
2.51785E-07 1.85112E-13
2.74156E-07 1.60677E-13
2.97478E-07 1.40167E-13
3.21752E-07 1.22848E-13
3.46978E-07 1.08133E-13
3.73156E-07 9.53950E-14
4.00286E-07 8.44866E-14
4.28368E-07 7.51087E-14
4.57402E-07 6.69968E-14
4.87388E-07 5.99528E-14
5.18325E-07 5.38265E-14
5.50215E-07 4.84751E-14
5.83057E-07 4.37691E-14
6.16850E-07 3.96211E-14
6.51596E-07 3.59586E-14
6.87293E-07 3.27138E-14
7.23942E-07 2.98227E-14
7.61543E-07 2.72471E-14
1.18991E-06 1.22235E-14
1.71347E-06 6.28187E-15
2.33223E-06 3.55689E-15
3.04617E-06 2.16558E-15
3.85531E-06 1.39429E-15
4.75964E-06 9.37866E-16
5.75916E-06 6.53526E-16
6.85388E-06 4.68962E-16
8.04378E-06 3.45049E-16
9.32888E-06 2.59420E-16
1.07092E-05 1.98785E-16
1.21846E-05 1.54890E-16
1.37553E-05 1.22487E-16
1.54212E-05 9.81438E-17
1.71822E-05 7.95674E-17
1.90385E-05 6.51408E-17
2.09899E-05 5.39232E-17
2.30365E-05 4.50100E-17
2.51783E-05 3.78506E-17
2.74153E-05 3.20487E-17
2.97475E-05 2.73112E-17
3.21749E-05 2.34163E-17
3.46974E-05 2.01925E-17
3.73152E-05 1.75067E-17
4.00281E-05 1.52541E-17
4.28362E-05 1.33526E-17
4.57395E-05 1.17377E-17
4.87380E-05 1.03587E-17
5.18317E-05 9.17540E-18
5.50205E-05 8.15560E-18
5.83045E-05 7.27327E-18
6.16838E-05 6.50700E-18
6.51582E-05 5.83907E-18
6.87277E-05 5.25474E-18
7.23925E-05 4.74172E-18
7.61524E-05 4.28967E-18
9.21439E-05 2.94075E-18
1.09658E-04 2.08245E-18
1.28695E-04 1.51557E-18
1.49255E-04 1.12903E-18
1.71338E-04 8.58174E-19
1.94942E-04 6.63855E-19
2.20070E-04 5.21519E-19
2.46720E-04 4.15337E-19
2.74892E-04 3.34840E-19
3.04586E-04 2.72909E-19
3.35803E-04 2.24647E-19
3.68542E-04 1.86583E-19
4.02802E-04 1.56241E-19
4.38585E-04 1.31816E-19
4.75889E-04 1.11975E-19
5.14715E-04 9.57264E-20
5.55063E-04 8.23151E-20
5.96931E-04 7.11691E-20
6.40321E-04 6.18440E-20
6.85233E-04 5.39944E-20
7.31665E-04 4.73496E-20
7.79618E-04 4.16939E-20
8.29092E-04 3.68565E-20
8.80086E-04 3.26991E-20
9.32601E-04 2.91105E-20
9.86636E-04 2.59999E-20
1.04219E-03 2.32929E-20
1.09927E-03 2.09284E-20
1.15786E-03 1.88557E-20
1.21797E-03 1.70328E-20
1.27961E-03 1.54243E-20
1.34276E-03 1.40008E-20
1.40743E-03 1.27374E-20
1.47362E-03 1.16129E-20
1.54133E-03 1.06095E-20
1.61056E-03 9.71185E-21
1.68131E-03 8.90687E-21
1.75357E-03 8.18336E-21
1.82735E-03 7.53159E-21
1.90265E-03 6.94326E-21
1.97947E-03 6.41106E-21
2.05780E-03 5.92874E-21
2.13765E-03 5.49079E-21
2.21902E-03 5.09240E-21
2.30190E-03 4.72937E-21
2.38630E-03 4.39800E-21
2.47222E-03 4.09507E-21
2.55965E-03 3.81767E-21
2.64859E-03 3.56328E-21
2.73905E-03 3.32965E-21
2.83103E-03 3.11478E-21
2.92452E-03 2.91691E-21
3.01952E-03 2.73444E-21
3.11604E-03 2.56596E-21
3.21407E-03 2.41020E-21
3.31362E-03 2.26604E-21
3.41468E-03 2.13245E-21
3.51725E-03 2.00852E-21
3.62133E-03 1.89342E-21
3.72692E-03 1.78642E-21
3.83403E-03 1.68684E-21
3.94265E-03 1.59406E-21
4.05278E-03 1.50755E-21
4.16442E-03 1.42680E-21
4.27757E-03 1.35136E-21
4.39223E-03 1.28082E-21
4.50840E-03 1.21479E-21
4.62608E-03 1.15295E-21
4.74527E-03 1.09497E-21
4.86597E-03 1.04058E-21
4.98817E-03 9.89495E-22
5.11188E-03 9.41495E-22
5.23711E-03 8.96357E-22
5.36383E-03 8.53878E-22
5.49207E-03 8.13869E-22
5.62181E-03 7.76163E-22
5.75306E-03 7.40606E-22
5.88581E-03 7.07051E-22
6.02007E-03 6.75360E-22
6.15583E-03 6.45416E-22
6.29310E-03 6.17106E-22
6.43187E-03 5.90320E-22
6.57214E-03 5.64961E-22
6.71392E-03 5.40944E-22
6.85720E-03 5.18181E-22
7.00198E-03 4.96594E-22
7.14827E-03 4.76113E-22
7.29605E-03 4.56671E-22
7.44534E-03 4.38204E-22
7.59612E-03 4.20655E-22
7.97965E-03 3.80453E-22
8.37255E-03 3.44910E-22
8.77480E-03 3.13395E-22
9.18641E-03 2.85375E-22
9.60736E-03 2.60396E-22
1.00376E-02 2.38072E-22
1.04773E-02 2.18072E-22
1.09262E-02 2.00113E-22
1.13844E-02 1.83951E-22
1.18520E-02 1.69375E-22
1.23288E-02 1.56202E-22
1.28150E-02 1.44276E-22
1.33104E-02 1.33456E-22
1.38150E-02 1.23623E-22
1.43290E-02 1.14672E-22
1.48521E-02 1.06509E-22
1.53845E-02 9.90530E-23
1.59262E-02 9.22331E-23
1.64770E-02 8.59862E-23
1.70371E-02 8.02578E-23
1.76063E-02 7.49868E-23
1.81848E-02 7.01353E-23
1.87724E-02 6.56656E-23
1.93692E-02 6.15424E-23
1.99751E-02 5.77340E-23
2.05901E-02 5.42122E-23
2.12143E-02 5.09517E-23
2.18476E-02 4.79297E-23
2.24900E-02 4.51256E-23
2.31415E-02 4.25210E-23
2.38021E-02 4.00992E-23
2.44717E-02 3.78451E-23
2.51504E-02 3.57450E-23
2.58382E-02 3.37866E-23
2.65349E-02 3.19586E-23
2.72407E-02 3.02508E-23
2.79555E-02 2.86539E-23
2.86793E-02 2.71594E-23
2.94120E-02 2.57596E-23
3.01537E-02 2.44475E-23
3.09043E-02 2.32165E-23
3.16639E-02 2.20609E-23
3.24324E-02 2.09750E-23
3.32098E-02 1.99541E-23
3.39961E-02 1.89935E-23
3.47912E-02 1.80890E-23
3.55952E-02 1.72368E-23
3.64081E-02 1.64333E-23
3.72297E-02 1.56753E-23
3.80602E-02 1.49596E-23
3.88995E-02 1.42836E-23
3.97476E-02 1.36446E-23
4.06044E-02 1.30403E-23
4.14700E-02 1.24685E-23
4.23443E-02 1.19270E-23
4.32273E-02 1.14140E-23
4.41190E-02 1.09278E-23
4.50194E-02 1.04666E-23
4.59284E-02 1.00290E-23
4.68461E-02 9.61357E-24
4.87074E-02 8.84396E-24
5.06030E-02 8.14826E-24
5.25328E-02 7.51820E-24
5.44967E-02 6.94655E-24
5.64946E-02 6.42701E-24
5.85262E-02 5.95403E-24
6.05914E-02 5.52275E-24
6.26901E-02 5.12889E-24
6.48222E-02 4.76866E-24
6.69873E-02 4.43870E-24
6.91854E-02 4.13606E-24
7.14163E-02 3.85811E-24
7.36799E-02 3.60248E-24
7.59760E-02 3.36709E-24
7.83043E-02 3.15008E-24
8.06647E-02 2.94977E-24
8.30571E-02 2.76467E-24
8.54812E-02 2.59342E-24
8.79369E-02 2.43483E-24
9.04240E-02 2.28779E-24
9.29422E-02 2.15134E-24
9.54915E-02 2.02458E-24
9.80716E-02 1.90672E-24
1.00682E-01 1.79702E-24
1.03323E-01 1.69482E-24
1.05995E-01 1.59954E-24
1.08696E-01 1.51062E-24
1.11427E-01 1.42757E-24
1.14188E-01 1.34995E-24
1.16978E-01 1.27733E-24
1.19797E-01 1.20934E-24
1.22645E-01 1.14565E-24
1.25522E-01 1.08593E-24
1.28428E-01 1.02989E-24
1.31361E-01 9.77279E-25
1.34323E-01 9.27846E-25
1.37313E-01 8.81369E-25
1.40330E-01 8.37644E-25
1.43375E-01 7.96480E-25
1.46447E-01 7.57704E-25
1.49545E-01 7.21156E-25
1.52671E-01 6.86686E-25
1.55823E-01 6.54157E-25
1.59001E-01 6.23444E-25
1.62205E-01 5.94428E-25
1.65435E-01 5.67001E-25
1.68690E-01 5.41061E-25
1.71970E-01 5.16516E-25
1.75276E-01 4.93279E-25
1.78606E-01 4.71269E-25
1.81961E-01 4.50411E-25
1.85340E-01 4.30635E-25
1.88743E-01 4.11876E-25
1.92169E-01 3.94075E-25
1.95619E-01 3.77173E-25
1.99092E-01 3.61120E-25
2.02589E-01 3.45865E-25
2.06107E-01 3.31363E-25
2.09649E-01 3.17570E-25
2.13212E-01 3.04448E-25
2.16797E-01 2.91957E-25
2.20404E-01 2.80064E-25
2.24032E-01 2.68735E-25
2.27680E-01 2.57939E-25
2.31350E-01 2.47647E-25
2.35040E-01 2.37833E-25
2.38751E-01 2.28470E-25
2.42481E-01 2.19535E-25
2.46231E-01 2.11005E-25
2.50000E-01 2.02860E-25
2.53788E-01 1.95079E-25
2.57595E-01 1.87643E-25
2.61421E-01 1.80535E-25
2.65264E-01 1.73738E-25
2.69126E-01 1.67237E-25
2.73005E-01 1.61016E-25
2.76901E-01 1.55063E-25
2.80814E-01 1.49363E-25
2.84744E-01 1.43904E-25
2.88691E-01 1.38676E-25
2.92653E-01 1.33665E-25
2.96632E-01 1.28863E-25
3.00625E-01 1.24259E-25
3.04634E-01 1.19843E-25
3.08658E-01 1.15608E-25
3.12697E-01 1.11544E-25
3.16749E-01 1.07643E-25
3.20816E-01 1.03899E-25
3.24896E-01 1.00303E-25
3.28990E-01 9.68496E-26
3.33097E-01 9.35319E-26
3.37216E-01 9.03438E-26
3.41348E-01 8.72795E-26
3.45492E-01 8.43335E-26
3.49647E-01 8.15006E-26
3.53814E-01 7.87759E-26
3.57992E-01 7.61546E-26
3.62181E-01 7.36323E-26
3.66381E-01 7.12047E-26
3.70590E-01 6.88678E-26
3.74810E-01 6.66176E-26
3.79039E-01 6.44505E-26
3.83277E-01 6.23631E-26
3.87524E-01 6.03520E-26
3.91780E-01 5.84140E-26
3.96044E-01 5.65461E-26
4.00316E-01 5.47454E-26
4.04596E-01 5.30092E-26
4.08882E-01 5.13348E-26
4.13176E-01 4.97198E-26
4.17476E-01 4.81617E-26
4.21783E-01 4.66583E-26
4.26095E-01 4.52074E-26
4.30413E-01 4.38069E-26
4.34737E-01 4.24548E-26
4.39065E-01 4.11493E-26
4.43398E-01 3.98885E-26
4.47736E-01 3.86706E-26
4.52077E-01 3.74941E-26
4.56422E-01 3.63574E-26
4.60770E-01 3.52588E-26
4.65122E-01 3.41970E-26
4.69476E-01 3.31706E-26
4.73832E-01 3.21783E-26
4.78190E-01 3.12187E-26
4.82550E-01 3.02906E-26
4.86912E-01 2.93929E-26
4.91274E-01 2.85245E-26
4.95637E-01 2.76843E-26
5.00000E-01 2.68712E-26
5.04363E-01 2.60842E-26
5.08726E-01 2.53225E-26
5.13088E-01 2.45850E-26
5.17450E-01 2.38710E-26
5.21810E-01 2.31796E-26
5.26168E-01 2.25100E-26
5.30524E-01 2.18614E-26
5.34878E-01 2.12331E-26
5.39230E-01 2.06243E-26
5.43578E-01 2.00344E-26
5.47923E-01 1.94627E-26
5.52264E-01 1.89086E-26
5.56602E-01 1.83715E-26
5.60935E-01 1.78508E-26
5.65263E-01 1.73459E-26
5.69587E-01 1.68563E-26
5.73905E-01 1.63815E-26
5.78217E-01 1.59210E-26
5.82524E-01 1.54743E-26
5.86824E-01 1.50409E-26
5.91118E-01 1.46204E-26
5.95404E-01 1.42123E-26
5.99684E-01 1.38164E-26
6.03956E-01 1.34320E-26
6.08220E-01 1.30590E-26
6.12476E-01 1.26968E-26
6.16723E-01 1.23452E-26
6.20961E-01 1.20038E-26
6.25190E-01 1.16723E-26
6.29410E-01 1.13503E-26
6.33619E-01 1.10376E-26
6.37819E-01 1.07338E-26
6.42008E-01 1.04387E-26
6.46186E-01 1.01520E-26
6.50353E-01 9.87343E-27
6.54508E-01 9.60274E-27
6.58652E-01 9.33967E-27
6.62784E-01 9.08399E-27
6.66903E-01 8.83547E-27
6.71010E-01 8.59389E-27
6.75104E-01 8.35904E-27
6.79184E-01 8.13070E-27
6.83251E-01 7.90868E-27
6.87303E-01 7.69278E-27
6.91342E-01 7.48283E-27
6.95366E-01 7.27863E-27
6.99375E-01 7.08002E-27
7.03368E-01 6.88682E-27
7.07347E-01 6.69887E-27
7.11309E-01 6.51603E-27
7.15256E-01 6.33813E-27
7.19186E-01 6.16503E-27
7.23099E-01 5.99658E-27
7.26995E-01 5.83266E-27
7.30874E-01 5.67312E-27
7.34736E-01 5.51784E-27
7.38579E-01 5.36670E-27
7.42405E-01 5.21957E-27
7.46212E-01 5.07633E-27
7.50000E-01 4.93689E-27
7.53769E-01 4.80112E-27
7.57519E-01 4.66893E-27
7.61249E-01 4.54020E-27
7.64960E-01 4.41485E-27
7.68650E-01 4.29277E-27
7.72320E-01 4.17388E-27
7.75968E-01 4.05808E-27
7.79596E-01 3.94528E-27
7.83203E-01 3.83541E-27
7.86788E-01 3.72838E-27
7.90351E-01 3.62412E-27
7.93893E-01 3.52254E-27
7.97411E-01 3.42358E-27
8.00908E-01 3.32715E-27
8.04381E-01 3.23320E-27
8.07831E-01 3.14165E-27
8.11257E-01 3.05244E-27
8.14660E-01 2.96550E-27
8.18039E-01 2.88078E-27
8.21394E-01 2.79821E-27
8.24724E-01 2.71774E-27
8.28030E-01 2.63931E-27
8.31310E-01 2.56287E-27
8.34565E-01 2.48836E-27
8.37795E-01 2.41574E-27
8.40999E-01 2.34495E-27
8.44177E-01 2.27594E-27
8.47329E-01 2.20868E-27
8.50455E-01 2.14311E-27
8.53553E-01 2.07919E-27
8.56625E-01 2.01688E-27
8.59670E-01 1.95613E-27
8.62687E-01 1.89691E-27
8.65677E-01 1.83918E-27
8.68639E-01 1.78290E-27
8.71572E-01 1.72803E-27
8.74478E-01 1.67454E-27
8.77355E-01 1.62239E-27
8.80203E-01 1.57156E-27
8.83022E-01 1.52200E-27
8.85812E-01 1.47369E-27
8.88573E-01 1.42659E-27
8.91304E-01 1.38068E-27
8.94005E-01 1.33593E-27
8.96677E-01 1.29231E-27
8.99318E-01 1.24979E-27
9.01928E-01 1.20834E-27
9.04508E-01 1.16795E-27
9.07058E-01 1.12858E-27
9.09576E-01 1.09021E-27
9.12063E-01 1.05282E-27
9.14519E-01 1.01638E-27
9.16943E-01 9.80877E-28
9.19335E-01 9.46285E-28
9.21696E-01 9.12584E-28
9.24024E-01 8.79754E-28
9.26320E-01 8.47775E-28
9.28584E-01 8.16628E-28
9.30815E-01 7.86295E-28
9.33013E-01 7.56757E-28
9.35178E-01 7.27997E-28
9.37310E-01 6.99999E-28
9.39409E-01 6.72746E-28
9.41474E-01 6.46222E-28
9.43505E-01 6.20412E-28
9.45503E-01 5.95300E-28
9.47467E-01 5.70873E-28
9.49397E-01 5.47116E-28
9.51293E-01 5.24015E-28
9.53154E-01 5.01559E-28
9.54981E-01 4.79732E-28
9.56773E-01 4.58524E-28
9.58530E-01 4.37922E-28
9.60252E-01 4.17915E-28
9.61940E-01 3.98490E-28
9.63592E-01 3.79639E-28
9.65209E-01 3.61348E-28
9.66790E-01 3.43610E-28
9.68336E-01 3.26413E-28
9.69846E-01 3.09748E-28
9.71321E-01 2.93606E-28
9.72759E-01 2.77978E-28
9.74162E-01 2.62854E-28
9.75528E-01 2.48228E-28
9.76858E-01 2.34091E-28
9.78152E-01 2.20435E-28
9.79410E-01 2.07252E-28
9.80631E-01 1.94536E-28
9.81815E-01 1.82279E-28
9.82963E-01 1.70474E-28
9.84074E-01 1.59117E-28
9.85148E-01 1.48199E-28
9.86185E-01 1.37715E-28
9.87185E-01 1.27661E-28
9.88148E-01 1.18029E-28
9.89074E-01 1.08815E-28
9.89962E-01 1.00015E-28
9.90814E-01 9.16222E-29
9.91627E-01 8.36335E-29
9.92404E-01 7.60444E-29
9.93143E-01 6.88507E-29
9.93844E-01 6.20485E-29
9.94508E-01 5.56343E-29
9.95134E-01 4.96046E-29
9.95722E-01 4.39562E-29
9.96273E-01 3.86862E-29
9.96786E-01 3.37916E-29
9.97261E-01 2.92699E-29
9.97698E-01 2.51187E-29
9.98097E-01 2.13359E-29
9.98459E-01 1.79193E-29
9.98782E-01 1.48672E-29
9.99067E-01 1.21779E-29
9.99315E-01 9.85009E-30
9.99524E-01 7.88248E-30
9.99695E-01 6.27403E-30
9.99829E-01 5.02389E-30
9.99924E-01 4.13142E-30
9.99981E-01 3.59611E-30
1.00000E+00 3.41771E-30
