 #
 # Subroutine ELSEPA. Elastic scattering of electrons and positrons
 #                    by neutral atoms and positive ions
 #
 # Projectile: positron
 # Kinetic energy = 5.00000E+07 eV = 1.83747E+06 a.u.
 #
 # WARNING: High-energy factorization with free-atom DF screening.
 #          Absorption, polarization and exchange corrections are
 #          switched off.
 #          Phase shifts are calculated for the bare nucleus.
 #          Scattering amplitudes are not evaluated.
 #
 # Element: Pa,  Z =  91,  atomic weight = 2.31036E+02 g/mol
 #
 # Nuclear model: Fermi distribution
 #                Average radius = 6.56564E-13 cm
 #                Skin thickness = 5.46000E-14 cm
 #
 # Number of electrons = 91
 #
 # Total elastic cross section = 1.16877E-17 cm**2 = 4.17376E-01 a0**2
 # 1st transport cross section = 5.50037E-24 cm**2 = 1.96422E-07 a0**2
 # 2nd transport cross section = 1.61385E-23 cm**2 = 5.76317E-07 a0**2
 #
 #
 # Differential cross section:                       MU=(1-COS(THETA))/2
 #
 #  THETA        MU          DCS          DCS        Sherman      error
 #  (deg)                 (cm**2/sr)   (a0**2/sr)    function
 #----------------------------------------------------------------------
0.00000E+00 3.52404E-10
7.61557E-13 3.52024E-10
1.18994E-12 3.51811E-10
1.71346E-12 3.51551E-10
2.33225E-12 3.51245E-10
3.04617E-12 3.50893E-10
3.85530E-12 3.50494E-10
4.75964E-12 3.50049E-10
5.75917E-12 3.49559E-10
6.85391E-12 3.49023E-10
8.04379E-12 3.48442E-10
9.32893E-12 3.47817E-10
1.07092E-11 3.47147E-10
1.21847E-11 3.46434E-10
1.37554E-11 3.45677E-10
1.54213E-11 3.44878E-10
1.71823E-11 3.44036E-10
1.90386E-11 3.43152E-10
2.09900E-11 3.42227E-10
2.30367E-11 3.41262E-10
2.51785E-11 3.40256E-10
2.74156E-11 3.39211E-10
2.97478E-11 3.38128E-10
3.21752E-11 3.37006E-10
3.46979E-11 3.35847E-10
3.73157E-11 3.34651E-10
4.00286E-11 3.33419E-10
4.28368E-11 3.32152E-10
4.57402E-11 3.30850E-10
4.87388E-11 3.29515E-10
5.18325E-11 3.28147E-10
5.50215E-11 3.26746E-10
5.83057E-11 3.25314E-10
6.16850E-11 3.23852E-10
6.51595E-11 3.22360E-10
6.87293E-11 3.20839E-10
7.23943E-11 3.19290E-10
7.61544E-11 3.17714E-10
1.18991E-10 3.00664E-10
1.71347E-10 2.81829E-10
2.33223E-10 2.62044E-10
3.04617E-10 2.42036E-10
3.85531E-10 2.22399E-10
4.75965E-10 2.03580E-10
5.75917E-10 1.85882E-10
6.85389E-10 1.69486E-10
8.04380E-10 1.54477E-10
9.32891E-10 1.40855E-10
1.07092E-09 1.28557E-10
1.21847E-09 1.17498E-10
1.37554E-09 1.07577E-10
1.54213E-09 9.86845E-11
1.71823E-09 9.07127E-11
1.90386E-09 8.35587E-11
2.09900E-09 7.71276E-11
2.30367E-09 7.13338E-11
2.51785E-09 6.61010E-11
2.74156E-09 6.13625E-11
2.97478E-09 5.70598E-11
3.21752E-09 5.31380E-11
3.46978E-09 4.95566E-11
3.73156E-09 4.62788E-11
4.00286E-09 4.32721E-11
4.28368E-09 4.05083E-11
4.57402E-09 3.79627E-11
4.87388E-09 3.56140E-11
5.18326E-09 3.34434E-11
5.50215E-09 3.14344E-11
5.83057E-09 2.95726E-11
6.16850E-09 2.78449E-11
6.51596E-09 2.62400E-11
6.87293E-09 2.47468E-11
7.23942E-09 2.33553E-11
7.61544E-09 2.20592E-11
1.18991E-08 1.28441E-11
1.71347E-08 8.08717E-12
2.33223E-08 5.36876E-12
3.04617E-08 3.71669E-12
3.85531E-08 2.65926E-12
4.75965E-08 1.95444E-12
5.75917E-08 1.46968E-12
6.85389E-08 1.12762E-12
8.04380E-08 8.80415E-13
9.32891E-08 6.98096E-13
1.07092E-07 5.61295E-13
1.21847E-07 4.56773E-13
1.37554E-07 3.75619E-13
1.54213E-07 3.11717E-13
1.71823E-07 2.60786E-13
1.90386E-07 2.19765E-13
2.09900E-07 1.86470E-13
2.30367E-07 1.59196E-13
2.51785E-07 1.36557E-13
2.74156E-07 1.17804E-13
2.97478E-07 1.02183E-13
3.21752E-07 8.90806E-14
3.46978E-07 7.80300E-14
3.73156E-07 6.86528E-14
4.00286E-07 6.06493E-14
4.28368E-07 5.37831E-14
4.57402E-07 4.78655E-14
4.87388E-07 4.27445E-14
5.18325E-07 3.82960E-14
5.50215E-07 3.44171E-14
5.83057E-07 3.10225E-14
6.16850E-07 2.80407E-14
6.51596E-07 2.54116E-14
6.87293E-07 2.30850E-14
7.23942E-07 2.10186E-14
7.61543E-07 1.91786E-14
1.18991E-06 8.47928E-15
1.71347E-06 4.32147E-15
2.33223E-06 2.43280E-15
3.04617E-06 1.47240E-15
3.85531E-06 9.41987E-16
4.75964E-06 6.29861E-16
5.75916E-06 4.36679E-16
6.85388E-06 3.12200E-16
8.04378E-06 2.29120E-16
9.32888E-06 1.71954E-16
1.07092E-05 1.31581E-16
1.21846E-05 1.02407E-16
1.37553E-05 8.08927E-17
1.54212E-05 6.47426E-17
1.71822E-05 5.24283E-17
1.90385E-05 4.28734E-17
2.09899E-05 3.54493E-17
2.30365E-05 2.95561E-17
2.51783E-05 2.48275E-17
2.74153E-05 2.09994E-17
2.97475E-05 1.78772E-17
3.21749E-05 1.53134E-17
3.46974E-05 1.31938E-17
3.73152E-05 1.14298E-17
4.00281E-05 9.95195E-18
4.28362E-05 8.70564E-18
4.57395E-05 7.64814E-18
4.87380E-05 6.74592E-18
5.18317E-05 5.97239E-18
5.50205E-05 5.30624E-18
5.83045E-05 4.73028E-18
6.16838E-05 4.23040E-18
6.51582E-05 3.79490E-18
6.87277E-05 3.41410E-18
7.23925E-05 3.07994E-18
7.61524E-05 2.78560E-18
9.21439E-05 1.90807E-18
1.09658E-04 1.35034E-18
1.28695E-04 9.82256E-19
1.49255E-04 7.31417E-19
1.71338E-04 5.55731E-19
1.94942E-04 4.29741E-19
2.20070E-04 3.37487E-19
2.46720E-04 2.68689E-19
2.74892E-04 2.16551E-19
3.04586E-04 1.76450E-19
3.35803E-04 1.45208E-19
3.68542E-04 1.20575E-19
4.02802E-04 1.00945E-19
4.38585E-04 8.51463E-20
4.75889E-04 7.23157E-20
5.14715E-04 6.18106E-20
5.55063E-04 5.31420E-20
5.96931E-04 4.59389E-20
6.40321E-04 3.99138E-20
6.85233E-04 3.48429E-20
7.31665E-04 3.05511E-20
7.79618E-04 2.68988E-20
8.29092E-04 2.37754E-20
8.80086E-04 2.10914E-20
9.32601E-04 1.87749E-20
9.86636E-04 1.67673E-20
1.04219E-03 1.50203E-20
1.09927E-03 1.34946E-20
1.15786E-03 1.21573E-20
1.21797E-03 1.09812E-20
1.27961E-03 9.94366E-21
1.34276E-03 9.02547E-21
1.40743E-03 8.21061E-21
1.47362E-03 7.48540E-21
1.54133E-03 6.83832E-21
1.61056E-03 6.25949E-21
1.68131E-03 5.74045E-21
1.75357E-03 5.27395E-21
1.82735E-03 4.85376E-21
1.90265E-03 4.47448E-21
1.97947E-03 4.13140E-21
2.05780E-03 3.82049E-21
2.13765E-03 3.53819E-21
2.21902E-03 3.28141E-21
2.30190E-03 3.04743E-21
2.38630E-03 2.83386E-21
2.47222E-03 2.63862E-21
2.55965E-03 2.45985E-21
2.64859E-03 2.29590E-21
2.73905E-03 2.14535E-21
2.83103E-03 2.00689E-21
2.92452E-03 1.87937E-21
3.01952E-03 1.76179E-21
3.11604E-03 1.65323E-21
3.21407E-03 1.55287E-21
3.31362E-03 1.45997E-21
3.41468E-03 1.37390E-21
3.51725E-03 1.29405E-21
3.62133E-03 1.21988E-21
3.72692E-03 1.15094E-21
3.83403E-03 1.08678E-21
3.94265E-03 1.02700E-21
4.05278E-03 9.71264E-22
4.16442E-03 9.19235E-22
4.27757E-03 8.70629E-22
4.39223E-03 8.25181E-22
4.50840E-03 7.82642E-22
4.62608E-03 7.42797E-22
4.74527E-03 7.05444E-22
4.86597E-03 6.70396E-22
4.98817E-03 6.37487E-22
5.11188E-03 6.06562E-22
5.23711E-03 5.77480E-22
5.36383E-03 5.50110E-22
5.49207E-03 5.24334E-22
5.62181E-03 5.00042E-22
5.75306E-03 4.77132E-22
5.88581E-03 4.55512E-22
6.02007E-03 4.35095E-22
6.15583E-03 4.15803E-22
6.29310E-03 3.97562E-22
6.43187E-03 3.80304E-22
6.57214E-03 3.63966E-22
6.71392E-03 3.48491E-22
6.85720E-03 3.33825E-22
7.00198E-03 3.19917E-22
7.14827E-03 3.06721E-22
7.29605E-03 2.94194E-22
7.44534E-03 2.82295E-22
7.59612E-03 2.70988E-22
7.97965E-03 2.45085E-22
8.37255E-03 2.22185E-22
8.77480E-03 2.01879E-22
9.18641E-03 1.83826E-22
9.60736E-03 1.67732E-22
1.00376E-02 1.53350E-22
1.04773E-02 1.40469E-22
1.09262E-02 1.28908E-22
1.13844E-02 1.18492E-22
1.18520E-02 1.09094E-22
1.23288E-02 1.00602E-22
1.28150E-02 9.29119E-23
1.33104E-02 8.59361E-23
1.38150E-02 7.95963E-23
1.43290E-02 7.38247E-23
1.48521E-02 6.85614E-23
1.53845E-02 6.37538E-23
1.59262E-02 5.93557E-23
1.64770E-02 5.53262E-23
1.70371E-02 5.16288E-23
1.76063E-02 4.82316E-23
1.81848E-02 4.51058E-23
1.87724E-02 4.22260E-23
1.93692E-02 3.95694E-23
1.99751E-02 3.71158E-23
2.05901E-02 3.48468E-23
2.12143E-02 3.27462E-23
2.18476E-02 3.07993E-23
2.24900E-02 2.89929E-23
2.31415E-02 2.73150E-23
2.38021E-02 2.57549E-23
2.44717E-02 2.43029E-23
2.51504E-02 2.29502E-23
2.58382E-02 2.16888E-23
2.65349E-02 2.05114E-23
2.72407E-02 1.94115E-23
2.79555E-02 1.83831E-23
2.86793E-02 1.74207E-23
2.94120E-02 1.65194E-23
3.01537E-02 1.56745E-23
3.09043E-02 1.48819E-23
3.16639E-02 1.41379E-23
3.24324E-02 1.34389E-23
3.32098E-02 1.27817E-23
3.39961E-02 1.21634E-23
3.47912E-02 1.15813E-23
3.55952E-02 1.10329E-23
3.64081E-02 1.05158E-23
3.72297E-02 1.00281E-23
3.80602E-02 9.56766E-24
3.88995E-02 9.13278E-24
3.97476E-02 8.72178E-24
4.06044E-02 8.33311E-24
4.14700E-02 7.96535E-24
4.23443E-02 7.61717E-24
4.32273E-02 7.28735E-24
4.41190E-02 6.97476E-24
4.50194E-02 6.67834E-24
4.59284E-02 6.39710E-24
4.68461E-02 6.13013E-24
4.87074E-02 5.63567E-24
5.06030E-02 5.18883E-24
5.25328E-02 4.78426E-24
5.44967E-02 4.41732E-24
5.64946E-02 4.08393E-24
5.85262E-02 3.78053E-24
6.05914E-02 3.50398E-24
6.26901E-02 3.25151E-24
6.48222E-02 3.02069E-24
6.69873E-02 2.80935E-24
6.91854E-02 2.61559E-24
7.14163E-02 2.43771E-24
7.36799E-02 2.27419E-24
7.59760E-02 2.12369E-24
7.83043E-02 1.98500E-24
8.06647E-02 1.85704E-24
8.30571E-02 1.73886E-24
8.54812E-02 1.62958E-24
8.79369E-02 1.52843E-24
9.04240E-02 1.43470E-24
9.29422E-02 1.34777E-24
9.54915E-02 1.26705E-24
9.80716E-02 1.19205E-24
1.00682E-01 1.12228E-24
1.03323E-01 1.05732E-24
1.05995E-01 9.96792E-25
1.08696E-01 9.40345E-25
1.11427E-01 8.87658E-25
1.14188E-01 8.38443E-25
1.16978E-01 7.92434E-25
1.19797E-01 7.49389E-25
1.22645E-01 7.09089E-25
1.25522E-01 6.71330E-25
1.28428E-01 6.35928E-25
1.31361E-01 6.02712E-25
1.34323E-01 5.71526E-25
1.37313E-01 5.42228E-25
1.40330E-01 5.14686E-25
1.43375E-01 4.88777E-25
1.46447E-01 4.64391E-25
1.49545E-01 4.41424E-25
1.52671E-01 4.19782E-25
1.55823E-01 3.99375E-25
1.59001E-01 3.80123E-25
1.62205E-01 3.61951E-25
1.65435E-01 3.44788E-25
1.68690E-01 3.28571E-25
1.71970E-01 3.13240E-25
1.75276E-01 2.98738E-25
1.78606E-01 2.85015E-25
1.81961E-01 2.72022E-25
1.85340E-01 2.59714E-25
1.88743E-01 2.48051E-25
1.92169E-01 2.36994E-25
1.95619E-01 2.26506E-25
1.99092E-01 2.16554E-25
2.02589E-01 2.07106E-25
2.06107E-01 1.98134E-25
2.09649E-01 1.89609E-25
2.13212E-01 1.81507E-25
2.16797E-01 1.73803E-25
2.20404E-01 1.66474E-25
2.24032E-01 1.59501E-25
2.27680E-01 1.52864E-25
2.31350E-01 1.46543E-25
2.35040E-01 1.40522E-25
2.38751E-01 1.34784E-25
2.42481E-01 1.29314E-25
2.46231E-01 1.24099E-25
2.50000E-01 1.19124E-25
2.53788E-01 1.14376E-25
2.57595E-01 1.09845E-25
2.61421E-01 1.05519E-25
2.65264E-01 1.01386E-25
2.69126E-01 9.74386E-26
2.73005E-01 9.36657E-26
2.76901E-01 9.00591E-26
2.80814E-01 8.66103E-26
2.84744E-01 8.33115E-26
2.88691E-01 8.01553E-26
2.92653E-01 7.71348E-26
2.96632E-01 7.42433E-26
3.00625E-01 7.14745E-26
3.04634E-01 6.88227E-26
3.08658E-01 6.62821E-26
3.12697E-01 6.38474E-26
3.16749E-01 6.15138E-26
3.20816E-01 5.92765E-26
3.24896E-01 5.71309E-26
3.28990E-01 5.50728E-26
3.33097E-01 5.30982E-26
3.37216E-01 5.12032E-26
3.41348E-01 4.93843E-26
3.45492E-01 4.76379E-26
3.49647E-01 4.59609E-26
3.53814E-01 4.43501E-26
3.57992E-01 4.28026E-26
3.62181E-01 4.13155E-26
3.66381E-01 3.98862E-26
3.70590E-01 3.85123E-26
3.74810E-01 3.71912E-26
3.79039E-01 3.59207E-26
3.83277E-01 3.46986E-26
3.87524E-01 3.35229E-26
3.91780E-01 3.23915E-26
3.96044E-01 3.13026E-26
4.00316E-01 3.02544E-26
4.04596E-01 2.92452E-26
4.08882E-01 2.82733E-26
4.13176E-01 2.73373E-26
4.17476E-01 2.64356E-26
4.21783E-01 2.55668E-26
4.26095E-01 2.47296E-26
4.30413E-01 2.39227E-26
4.34737E-01 2.31448E-26
4.39065E-01 2.23949E-26
4.43398E-01 2.16717E-26
4.47736E-01 2.09743E-26
4.52077E-01 2.03015E-26
4.56422E-01 1.96525E-26
4.60770E-01 1.90262E-26
4.65122E-01 1.84218E-26
4.69476E-01 1.78385E-26
4.73832E-01 1.72753E-26
4.78190E-01 1.67317E-26
4.82550E-01 1.62067E-26
4.86912E-01 1.56996E-26
4.91274E-01 1.52099E-26
4.95637E-01 1.47368E-26
5.00000E-01 1.42797E-26
5.04363E-01 1.38381E-26
5.08726E-01 1.34112E-26
5.13088E-01 1.29986E-26
5.17450E-01 1.25998E-26
5.21810E-01 1.22142E-26
5.26168E-01 1.18414E-26
5.30524E-01 1.14808E-26
5.34878E-01 1.11321E-26
5.39230E-01 1.07948E-26
5.43578E-01 1.04685E-26
5.47923E-01 1.01527E-26
5.52264E-01 9.84721E-27
5.56602E-01 9.55154E-27
5.60935E-01 9.26537E-27
5.65263E-01 8.98835E-27
5.69587E-01 8.72017E-27
5.73905E-01 8.46052E-27
5.78217E-01 8.20910E-27
5.82524E-01 7.96561E-27
5.86824E-01 7.72978E-27
5.91118E-01 7.50135E-27
5.95404E-01 7.28007E-27
5.99684E-01 7.06567E-27
6.03956E-01 6.85794E-27
6.08220E-01 6.65663E-27
6.12476E-01 6.46154E-27
6.16723E-01 6.27245E-27
6.20961E-01 6.08915E-27
6.25190E-01 5.91146E-27
6.29410E-01 5.73919E-27
6.33619E-01 5.57214E-27
6.37819E-01 5.41016E-27
6.42008E-01 5.25307E-27
6.46186E-01 5.10071E-27
6.50353E-01 4.95292E-27
6.54508E-01 4.80955E-27
6.58652E-01 4.67046E-27
6.62784E-01 4.53552E-27
6.66903E-01 4.40457E-27
6.71010E-01 4.27750E-27
6.75104E-01 4.15418E-27
6.79184E-01 4.03448E-27
6.83251E-01 3.91830E-27
6.87303E-01 3.80552E-27
6.91342E-01 3.69603E-27
6.95366E-01 3.58973E-27
6.99375E-01 3.48651E-27
7.03368E-01 3.38628E-27
7.07347E-01 3.28894E-27
7.11309E-01 3.19441E-27
7.15256E-01 3.10259E-27
7.19186E-01 3.01341E-27
7.23099E-01 2.92677E-27
7.26995E-01 2.84260E-27
7.30874E-01 2.76083E-27
7.34736E-01 2.68138E-27
7.38579E-01 2.60418E-27
7.42405E-01 2.52916E-27
7.46212E-01 2.45625E-27
7.50000E-01 2.38539E-27
7.53769E-01 2.31653E-27
7.57519E-01 2.24958E-27
7.61249E-01 2.18451E-27
7.64960E-01 2.12125E-27
7.68650E-01 2.05975E-27
7.72320E-01 1.99996E-27
7.75968E-01 1.94183E-27
7.79596E-01 1.88530E-27
7.83203E-01 1.83033E-27
7.86788E-01 1.77687E-27
7.90351E-01 1.72489E-27
7.93893E-01 1.67433E-27
7.97411E-01 1.62515E-27
8.00908E-01 1.57732E-27
8.04381E-01 1.53079E-27
8.07831E-01 1.48553E-27
8.11257E-01 1.44151E-27
8.14660E-01 1.39868E-27
8.18039E-01 1.35701E-27
8.21394E-01 1.31646E-27
8.24724E-01 1.27702E-27
8.28030E-01 1.23864E-27
8.31310E-01 1.20129E-27
8.34565E-01 1.16495E-27
8.37795E-01 1.12959E-27
8.40999E-01 1.09518E-27
8.44177E-01 1.06169E-27
8.47329E-01 1.02910E-27
8.50455E-01 9.97383E-28
8.53553E-01 9.66515E-28
8.56625E-01 9.36473E-28
8.59670E-01 9.07234E-28
8.62687E-01 8.78776E-28
8.65677E-01 8.51078E-28
8.68639E-01 8.24120E-28
8.71572E-01 7.97880E-28
8.74478E-01 7.72340E-28
8.77355E-01 7.47482E-28
8.80203E-01 7.23286E-28
8.83022E-01 6.99736E-28
8.85812E-01 6.76814E-28
8.88573E-01 6.54504E-28
8.91304E-01 6.32789E-28
8.94005E-01 6.11654E-28
8.96677E-01 5.91084E-28
8.99318E-01 5.71064E-28
9.01928E-01 5.51580E-28
9.04508E-01 5.32619E-28
9.07058E-01 5.14166E-28
9.09576E-01 4.96209E-28
9.12063E-01 4.78735E-28
9.14519E-01 4.61733E-28
9.16943E-01 4.45190E-28
9.19335E-01 4.29095E-28
9.21696E-01 4.13437E-28
9.24024E-01 3.98204E-28
9.26320E-01 3.83388E-28
9.28584E-01 3.68977E-28
9.30815E-01 3.54961E-28
9.33013E-01 3.41332E-28
9.35178E-01 3.28079E-28
9.37310E-01 3.15195E-28
9.39409E-01 3.02670E-28
9.41474E-01 2.90496E-28
9.43505E-01 2.78665E-28
9.45503E-01 2.67169E-28
9.47467E-01 2.56000E-28
9.49397E-01 2.45151E-28
9.51293E-01 2.34615E-28
9.53154E-01 2.24385E-28
9.54981E-01 2.14454E-28
9.56773E-01 2.04815E-28
9.58530E-01 1.95463E-28
9.60252E-01 1.86391E-28
9.61940E-01 1.77593E-28
9.63592E-01 1.69064E-28
9.65209E-01 1.60798E-28
9.66790E-01 1.52790E-28
9.68336E-01 1.45034E-28
9.69846E-01 1.37526E-28
9.71321E-01 1.30261E-28
9.72759E-01 1.23234E-28
9.74162E-01 1.16441E-28
9.75528E-01 1.09877E-28
9.76858E-01 1.03538E-28
9.78152E-01 9.74206E-29
9.79410E-01 9.15203E-29
9.80631E-01 8.58337E-29
9.81815E-01 8.03571E-29
9.82963E-01 7.50870E-29
9.84074E-01 7.00202E-29
9.85148E-01 6.51534E-29
9.86185E-01 6.04837E-29
9.87185E-01 5.60081E-29
9.88148E-01 5.17238E-29
9.89074E-01 4.76281E-29
9.89962E-01 4.37185E-29
9.90814E-01 3.99926E-29
9.91627E-01 3.64481E-29
9.92404E-01 3.30827E-29
9.93143E-01 2.98943E-29
9.93844E-01 2.68811E-29
9.94508E-01 2.40411E-29
9.95134E-01 2.13726E-29
9.95722E-01 1.88739E-29
9.96273E-01 1.65436E-29
9.96786E-01 1.43801E-29
9.97261E-01 1.23821E-29
9.97698E-01 1.05485E-29
9.98097E-01 8.87803E-30
9.98459E-01 7.36974E-30
9.98782E-01 6.02268E-30
9.99067E-01 4.83604E-30
9.99315E-01 3.80908E-30
9.99524E-01 2.94117E-30
9.99695E-01 2.23179E-30
9.99829E-01 1.68049E-30
9.99924E-01 1.28696E-30
9.99981E-01 1.05093E-30
1.00000E+00 9.72267E-31
