 #
 # Subroutine ELSEPA. Elastic scattering of electrons and positrons
 #                    by neutral atoms and positive ions
 #
 # Projectile: positron
 # Kinetic energy = 1.75000E+07 eV = 6.43113E+05 a.u.
 #
 # WARNING: High-energy factorization with free-atom DF screening.
 #          Absorption, polarization and exchange corrections are
 #          switched off.
 #          Phase shifts are calculated for the bare nucleus.
 #          Scattering amplitudes are not evaluated.
 #
 # Element: Pa,  Z =  91,  atomic weight = 2.31036E+02 g/mol
 #
 # Nuclear model: Fermi distribution
 #                Average radius = 6.56564E-13 cm
 #                Skin thickness = 5.46000E-14 cm
 #
 # Number of electrons = 91
 #
 # Total elastic cross section = 1.16964E-17 cm**2 = 4.17686E-01 a0**2
 # 1st transport cross section = 3.71878E-23 cm**2 = 1.32800E-06 a0**2
 # 2nd transport cross section = 1.07950E-22 cm**2 = 3.85497E-06 a0**2
 #
 #
 # Differential cross section:                       MU=(1-COS(THETA))/2
 #
 #  THETA        MU          DCS          DCS        Sherman      error
 #  (deg)                 (cm**2/sr)   (a0**2/sr)    function
 #----------------------------------------------------------------------
0.00000E+00 4.48068E-11
7.61557E-13 4.48006E-11
1.18994E-12 4.47971E-11
1.71346E-12 4.47929E-11
2.33225E-12 4.47879E-11
3.04617E-12 4.47821E-11
3.85530E-12 4.47756E-11
4.75964E-12 4.47684E-11
5.75917E-12 4.47603E-11
6.85391E-12 4.47515E-11
8.04379E-12 4.47420E-11
9.32893E-12 4.47317E-11
1.07092E-11 4.47206E-11
1.21847E-11 4.47088E-11
1.37554E-11 4.46962E-11
1.54213E-11 4.46829E-11
1.71823E-11 4.46688E-11
1.90386E-11 4.46540E-11
2.09900E-11 4.46384E-11
2.30367E-11 4.46221E-11
2.51785E-11 4.46050E-11
2.74156E-11 4.45872E-11
2.97478E-11 4.45686E-11
3.21752E-11 4.45493E-11
3.46979E-11 4.45292E-11
3.73157E-11 4.45085E-11
4.00286E-11 4.44869E-11
4.28368E-11 4.44647E-11
4.57402E-11 4.44417E-11
4.87388E-11 4.44179E-11
5.18325E-11 4.43935E-11
5.50215E-11 4.43683E-11
5.83057E-11 4.43424E-11
6.16850E-11 4.43157E-11
6.51595E-11 4.42884E-11
6.87293E-11 4.42603E-11
7.23943E-11 4.42315E-11
7.61544E-11 4.42020E-11
1.18991E-10 4.38681E-11
1.71347E-10 4.34657E-11
2.33223E-10 4.29981E-11
3.04617E-10 4.24690E-11
3.85531E-10 4.18823E-11
4.75965E-10 4.12425E-11
5.75917E-10 4.05543E-11
6.85389E-10 3.98224E-11
8.04380E-10 3.90537E-11
9.32891E-10 3.82500E-11
1.07092E-09 3.74153E-11
1.21847E-09 3.65601E-11
1.37554E-09 3.56850E-11
1.54213E-09 3.47926E-11
1.71823E-09 3.38939E-11
1.90386E-09 3.29887E-11
2.09900E-09 3.20780E-11
2.30367E-09 3.11728E-11
2.51785E-09 3.02724E-11
2.74156E-09 2.93759E-11
2.97478E-09 2.84936E-11
3.21752E-09 2.76247E-11
3.46978E-09 2.67667E-11
3.73156E-09 2.59285E-11
4.00286E-09 2.51096E-11
4.28368E-09 2.43063E-11
4.57402E-09 2.35258E-11
4.87388E-09 2.27682E-11
5.18326E-09 2.20288E-11
5.50215E-09 2.13131E-11
5.83057E-09 2.06219E-11
6.16850E-09 1.99499E-11
6.51596E-09 1.93013E-11
6.87293E-09 1.86771E-11
7.23942E-09 1.80720E-11
7.61544E-09 1.74890E-11
1.18991E-08 1.27383E-11
1.71347E-08 9.51170E-12
2.33223E-08 7.27962E-12
3.04617E-08 5.68233E-12
3.85531E-08 4.50466E-12
4.75965E-08 3.61602E-12
5.75917E-08 2.93370E-12
6.85389E-08 2.40304E-12
8.04380E-08 1.96999E-12
9.32891E-08 1.64056E-12
1.07092E-07 1.38969E-12
1.21847E-07 1.17494E-12
1.37554E-07 1.00192E-12
1.54213E-07 8.65303E-13
1.71823E-07 7.47365E-13
1.90386E-07 6.49367E-13
2.09900E-07 5.69722E-13
2.30367E-07 5.00133E-13
2.51785E-07 4.40817E-13
2.74156E-07 3.91504E-13
2.97478E-07 3.48033E-13
3.21752E-07 3.10242E-13
3.46978E-07 2.78246E-13
3.73156E-07 2.49881E-13
4.00286E-07 2.24859E-13
4.28368E-07 2.03353E-13
4.57402E-07 1.84202E-13
4.87388E-07 1.67118E-13
5.18325E-07 1.52247E-13
5.50215E-07 1.38941E-13
5.83057E-07 1.26961E-13
6.16850E-07 1.16419E-13
6.51596E-07 1.06937E-13
6.87293E-07 9.83267E-14
7.23942E-07 9.06792E-14
7.61543E-07 8.37645E-14
1.18991E-06 4.09187E-14
1.71347E-06 2.22726E-14
2.33223E-06 1.30694E-14
3.04617E-06 8.17644E-15
3.85531E-06 5.38054E-15
4.75964E-06 3.68995E-15
5.75916E-06 2.61778E-15
6.85388E-06 1.90855E-15
8.04378E-06 1.42324E-15
9.32888E-06 1.08405E-15
1.07092E-05 8.40565E-16
1.21846E-05 6.62071E-16
1.37553E-05 5.28667E-16
1.54212E-05 4.27249E-16
1.71822E-05 3.49134E-16
1.90385E-05 2.87923E-16
2.09899E-05 2.39940E-16
2.30365E-05 2.01502E-16
2.51783E-05 1.70343E-16
2.74153E-05 1.44917E-16
2.97475E-05 1.24032E-16
3.21749E-05 1.06768E-16
3.46974E-05 9.24098E-17
3.73152E-05 8.03897E-17
4.00281E-05 7.02581E-17
4.28362E-05 6.16770E-17
4.57395E-05 5.43660E-17
4.87380E-05 4.81042E-17
5.18317E-05 4.27164E-17
5.50205E-05 3.80586E-17
5.83045E-05 3.40182E-17
6.16838E-05 3.05015E-17
6.51582E-05 2.74293E-17
6.87277E-05 2.47359E-17
7.23925E-05 2.23663E-17
7.61524E-05 2.02733E-17
9.21439E-05 1.39983E-17
1.09658E-04 9.97433E-18
1.28695E-04 7.29764E-18
1.49255E-04 5.46076E-18
1.71338E-04 4.16613E-18
1.94942E-04 3.23277E-18
2.20070E-04 2.54624E-18
2.46720E-04 2.03227E-18
2.74892E-04 1.64143E-18
3.04586E-04 1.33999E-18
3.35803E-04 1.10458E-18
3.68542E-04 9.18558E-19
4.02802E-04 7.70040E-19
4.38585E-04 6.50322E-19
4.75889E-04 5.52950E-19
5.14715E-04 4.73119E-19
5.55063E-04 4.07164E-19
5.96931E-04 3.52299E-19
6.40321E-04 3.06358E-19
6.85233E-04 2.67656E-19
7.31665E-04 2.34868E-19
7.79618E-04 2.06943E-19
8.29092E-04 1.83041E-19
8.80086E-04 1.62487E-19
9.32601E-04 1.44734E-19
9.86636E-04 1.29336E-19
1.04219E-03 1.15928E-19
1.09927E-03 1.04211E-19
1.15786E-03 9.39330E-20
1.21797E-03 8.48894E-20
1.27961E-03 7.69062E-20
1.34276E-03 6.98372E-20
1.40743E-03 6.35603E-20
1.47362E-03 5.79712E-20
1.54133E-03 5.29815E-20
1.61056E-03 4.85157E-20
1.68131E-03 4.45095E-20
1.75357E-03 4.09072E-20
1.82735E-03 3.76609E-20
1.90265E-03 3.47294E-20
1.97947E-03 3.20768E-20
2.05780E-03 2.96718E-20
2.13765E-03 2.74873E-20
2.21902E-03 2.54995E-20
2.30190E-03 2.36876E-20
2.38630E-03 2.20332E-20
2.47222E-03 2.05202E-20
2.55965E-03 1.91344E-20
2.64859E-03 1.78632E-20
2.73905E-03 1.66955E-20
2.83103E-03 1.56212E-20
2.92452E-03 1.46316E-20
3.01952E-03 1.37189E-20
3.11604E-03 1.28759E-20
3.21407E-03 1.20964E-20
3.31362E-03 1.13748E-20
3.41468E-03 1.07059E-20
3.51725E-03 1.00853E-20
3.62133E-03 9.50878E-21
3.72692E-03 8.97270E-21
3.83403E-03 8.47370E-21
3.94265E-03 8.00875E-21
4.05278E-03 7.57510E-21
4.16442E-03 7.17026E-21
4.27757E-03 6.79198E-21
4.39223E-03 6.43819E-21
4.50840E-03 6.10704E-21
4.62608E-03 5.79678E-21
4.74527E-03 5.50588E-21
4.86597E-03 5.23292E-21
4.98817E-03 4.97656E-21
5.11188E-03 4.73563E-21
5.23711E-03 4.50903E-21
5.36383E-03 4.29574E-21
5.49207E-03 4.09484E-21
5.62181E-03 3.90550E-21
5.75306E-03 3.72690E-21
5.88581E-03 3.55834E-21
6.02007E-03 3.39915E-21
6.15583E-03 3.24871E-21
6.29310E-03 3.10645E-21
6.43187E-03 2.97185E-21
6.57214E-03 2.84441E-21
6.71392E-03 2.72369E-21
6.85720E-03 2.60927E-21
7.00198E-03 2.50075E-21
7.14827E-03 2.39778E-21
7.29605E-03 2.30003E-21
7.44534E-03 2.20717E-21
7.59612E-03 2.11892E-21
7.97965E-03 1.91674E-21
8.37255E-03 1.73795E-21
8.77480E-03 1.57940E-21
9.18641E-03 1.43840E-21
9.60736E-03 1.31269E-21
1.00376E-02 1.20033E-21
1.04773E-02 1.09965E-21
1.09262E-02 1.00923E-21
1.13844E-02 9.27856E-22
1.18520E-02 8.54455E-22
1.23288E-02 7.88117E-22
1.28150E-02 7.28045E-22
1.33104E-02 6.73543E-22
1.38150E-02 6.24005E-22
1.43290E-02 5.78903E-22
1.48521E-02 5.37769E-22
1.53845E-02 5.00194E-22
1.59262E-02 4.65814E-22
1.64770E-02 4.34313E-22
1.70371E-02 4.05407E-22
1.76063E-02 3.78844E-22
1.81848E-02 3.54400E-22
1.87724E-02 3.31879E-22
1.93692E-02 3.11102E-22
1.99751E-02 2.91909E-22
2.05901E-02 2.74159E-22
2.12143E-02 2.57725E-22
2.18476E-02 2.42491E-22
2.24900E-02 2.28355E-22
2.31415E-02 2.15223E-22
2.38021E-02 2.03011E-22
2.44717E-02 1.91645E-22
2.51504E-02 1.81054E-22
2.58382E-02 1.71176E-22
2.65349E-02 1.61956E-22
2.72407E-02 1.53341E-22
2.79555E-02 1.45284E-22
2.86793E-02 1.37744E-22
2.94120E-02 1.30681E-22
3.01537E-02 1.24059E-22
3.09043E-02 1.17846E-22
3.16639E-02 1.12013E-22
3.24324E-02 1.06531E-22
3.32098E-02 1.01377E-22
3.39961E-02 9.65263E-23
3.47912E-02 9.19589E-23
3.55952E-02 8.76546E-23
3.64081E-02 8.35961E-23
3.72297E-02 7.97667E-23
3.80602E-02 7.61509E-23
3.88995E-02 7.27349E-23
3.97476E-02 6.95058E-23
4.06044E-02 6.64513E-23
4.14700E-02 6.35603E-23
4.23443E-02 6.08227E-23
4.32273E-02 5.82287E-23
4.41190E-02 5.57695E-23
4.50194E-02 5.34368E-23
4.59284E-02 5.12230E-23
4.68461E-02 4.91209E-23
4.87074E-02 4.52258E-23
5.06030E-02 4.17035E-23
5.25328E-02 3.85124E-23
5.44967E-02 3.56161E-23
5.64946E-02 3.29827E-23
5.85262E-02 3.05843E-23
6.05914E-02 2.83965E-23
6.26901E-02 2.63976E-23
6.48222E-02 2.45685E-23
6.69873E-02 2.28925E-23
6.91854E-02 2.13544E-23
7.14163E-02 1.99411E-23
7.36799E-02 1.86407E-23
7.59760E-02 1.74427E-23
7.83043E-02 1.63376E-23
8.06647E-02 1.53171E-23
8.30571E-02 1.43737E-23
8.54812E-02 1.35009E-23
8.79369E-02 1.26915E-23
9.04240E-02 1.19400E-23
9.29422E-02 1.12421E-23
9.54915E-02 1.05934E-23
9.80716E-02 9.98974E-24
1.00682E-01 9.42752E-24
1.03323E-01 8.90341E-24
1.05995E-01 8.41438E-24
1.08696E-01 7.95768E-24
1.11427E-01 7.53080E-24
1.14188E-01 7.13148E-24
1.16978E-01 6.75762E-24
1.19797E-01 6.40734E-24
1.22645E-01 6.07888E-24
1.25522E-01 5.77065E-24
1.28428E-01 5.48121E-24
1.31361E-01 5.20920E-24
1.34323E-01 4.95340E-24
1.37313E-01 4.71268E-24
1.40330E-01 4.48599E-24
1.43375E-01 4.27239E-24
1.46447E-01 4.07099E-24
1.49545E-01 3.88097E-24
1.52671E-01 3.70158E-24
1.55823E-01 3.53212E-24
1.59001E-01 3.37195E-24
1.62205E-01 3.22048E-24
1.65435E-01 3.07715E-24
1.68690E-01 2.94145E-24
1.71970E-01 2.81291E-24
1.75276E-01 2.69108E-24
1.78606E-01 2.57556E-24
1.81961E-01 2.46596E-24
1.85340E-01 2.36193E-24
1.88743E-01 2.26313E-24
1.92169E-01 2.16927E-24
1.95619E-01 2.08004E-24
1.99092E-01 1.99519E-24
2.02589E-01 1.91446E-24
2.06107E-01 1.83762E-24
2.09649E-01 1.76445E-24
2.13212E-01 1.69475E-24
2.16797E-01 1.62832E-24
2.20404E-01 1.56498E-24
2.24032E-01 1.50457E-24
2.27680E-01 1.44693E-24
2.31350E-01 1.39191E-24
2.35040E-01 1.33937E-24
2.38751E-01 1.28917E-24
2.42481E-01 1.24121E-24
2.46231E-01 1.19536E-24
2.50000E-01 1.15151E-24
2.53788E-01 1.10956E-24
2.57595E-01 1.06942E-24
2.61421E-01 1.03099E-24
2.65264E-01 9.94196E-25
2.69126E-01 9.58947E-25
2.73005E-01 9.25171E-25
2.76901E-01 8.92796E-25
2.80814E-01 8.61754E-25
2.84744E-01 8.31981E-25
2.88691E-01 8.03417E-25
2.92653E-01 7.76005E-25
2.96632E-01 7.49690E-25
3.00625E-01 7.24421E-25
3.04634E-01 7.00151E-25
3.08658E-01 6.76832E-25
3.12697E-01 6.54422E-25
3.16749E-01 6.32879E-25
3.20816E-01 6.12165E-25
3.24896E-01 5.92241E-25
3.28990E-01 5.73074E-25
3.33097E-01 5.54629E-25
3.37216E-01 5.36876E-25
3.41348E-01 5.19783E-25
3.45492E-01 5.03323E-25
3.49647E-01 4.87467E-25
3.53814E-01 4.72191E-25
3.57992E-01 4.57470E-25
3.62181E-01 4.43279E-25
3.66381E-01 4.29598E-25
3.70590E-01 4.16405E-25
3.74810E-01 4.03679E-25
3.79039E-01 3.91401E-25
3.83277E-01 3.79554E-25
3.87524E-01 3.68119E-25
3.91780E-01 3.57080E-25
3.96044E-01 3.46421E-25
4.00316E-01 3.36127E-25
4.04596E-01 3.26183E-25
4.08882E-01 3.16576E-25
4.13176E-01 3.07292E-25
4.17476E-01 2.98318E-25
4.21783E-01 2.89644E-25
4.26095E-01 2.81256E-25
4.30413E-01 2.73145E-25
4.34737E-01 2.65299E-25
4.39065E-01 2.57709E-25
4.43398E-01 2.50365E-25
4.47736E-01 2.43257E-25
4.52077E-01 2.36378E-25
4.56422E-01 2.29717E-25
4.60770E-01 2.23269E-25
4.65122E-01 2.17023E-25
4.69476E-01 2.10974E-25
4.73832E-01 2.05114E-25
4.78190E-01 1.99437E-25
4.82550E-01 1.93935E-25
4.86912E-01 1.88602E-25
4.91274E-01 1.83433E-25
4.95637E-01 1.78421E-25
5.00000E-01 1.73562E-25
5.04363E-01 1.68849E-25
5.08726E-01 1.64278E-25
5.13088E-01 1.59844E-25
5.17450E-01 1.55542E-25
5.21810E-01 1.51367E-25
5.26168E-01 1.47315E-25
5.30524E-01 1.43383E-25
5.34878E-01 1.39565E-25
5.39230E-01 1.35859E-25
5.43578E-01 1.32260E-25
5.47923E-01 1.28765E-25
5.52264E-01 1.25370E-25
5.56602E-01 1.22072E-25
5.60935E-01 1.18868E-25
5.65263E-01 1.15755E-25
5.69587E-01 1.12730E-25
5.73905E-01 1.09790E-25
5.78217E-01 1.06932E-25
5.82524E-01 1.04154E-25
5.86824E-01 1.01453E-25
5.91118E-01 9.88271E-26
5.95404E-01 9.62731E-26
5.99684E-01 9.37892E-26
6.03956E-01 9.13731E-26
6.08220E-01 8.90227E-26
6.12476E-01 8.67361E-26
6.16723E-01 8.45111E-26
6.20961E-01 8.23460E-26
6.25190E-01 8.02389E-26
6.29410E-01 7.81881E-26
6.33619E-01 7.61917E-26
6.37819E-01 7.42482E-26
6.42008E-01 7.23561E-26
6.46186E-01 7.05136E-26
6.50353E-01 6.87195E-26
6.54508E-01 6.69721E-26
6.58652E-01 6.52703E-26
6.62784E-01 6.36125E-26
6.66903E-01 6.19976E-26
6.71010E-01 6.04242E-26
6.75104E-01 5.88912E-26
6.79184E-01 5.73974E-26
6.83251E-01 5.59416E-26
6.87303E-01 5.45229E-26
6.91342E-01 5.31400E-26
6.95366E-01 5.17921E-26
6.99375E-01 5.04780E-26
7.03368E-01 4.91969E-26
7.07347E-01 4.79478E-26
7.11309E-01 4.67299E-26
7.15256E-01 4.55422E-26
7.19186E-01 4.43840E-26
7.23099E-01 4.32543E-26
7.26995E-01 4.21525E-26
7.30874E-01 4.10777E-26
7.34736E-01 4.00293E-26
7.38579E-01 3.90065E-26
7.42405E-01 3.80085E-26
7.46212E-01 3.70349E-26
7.50000E-01 3.60848E-26
7.53769E-01 3.51577E-26
7.57519E-01 3.42529E-26
7.61249E-01 3.33699E-26
7.64960E-01 3.25081E-26
7.68650E-01 3.16669E-26
7.72320E-01 3.08458E-26
7.75968E-01 3.00443E-26
7.79596E-01 2.92618E-26
7.83203E-01 2.84979E-26
7.86788E-01 2.77520E-26
7.90351E-01 2.70238E-26
7.93893E-01 2.63128E-26
7.97411E-01 2.56185E-26
8.00908E-01 2.49405E-26
8.04381E-01 2.42785E-26
8.07831E-01 2.36319E-26
8.11257E-01 2.30005E-26
8.14660E-01 2.23838E-26
8.18039E-01 2.17814E-26
8.21394E-01 2.11931E-26
8.24724E-01 2.06185E-26
8.28030E-01 2.00573E-26
8.31310E-01 1.95090E-26
8.34565E-01 1.89735E-26
8.37795E-01 1.84503E-26
8.40999E-01 1.79393E-26
8.44177E-01 1.74401E-26
8.47329E-01 1.69524E-26
8.50455E-01 1.64760E-26
8.53553E-01 1.60105E-26
8.56625E-01 1.55559E-26
8.59670E-01 1.51117E-26
8.62687E-01 1.46777E-26
8.65677E-01 1.42538E-26
8.68639E-01 1.38397E-26
8.71572E-01 1.34351E-26
8.74478E-01 1.30399E-26
8.77355E-01 1.26538E-26
8.80203E-01 1.22766E-26
8.83022E-01 1.19082E-26
8.85812E-01 1.15482E-26
8.88573E-01 1.11967E-26
8.91304E-01 1.08533E-26
8.94005E-01 1.05179E-26
8.96677E-01 1.01903E-26
8.99318E-01 9.87040E-27
9.01928E-01 9.55795E-27
9.04508E-01 9.25283E-27
9.07058E-01 8.95489E-27
9.09576E-01 8.66397E-27
9.12063E-01 8.37992E-27
9.14519E-01 8.10261E-27
9.16943E-01 7.83190E-27
9.19335E-01 7.56766E-27
9.21696E-01 7.30974E-27
9.24024E-01 7.05804E-27
9.26320E-01 6.81242E-27
9.28584E-01 6.57277E-27
9.30815E-01 6.33896E-27
9.33013E-01 6.11090E-27
9.35178E-01 5.88846E-27
9.37310E-01 5.67154E-27
9.39409E-01 5.46004E-27
9.41474E-01 5.25385E-27
9.43505E-01 5.05289E-27
9.45503E-01 4.85704E-27
9.47467E-01 4.66623E-27
9.49397E-01 4.48037E-27
9.51293E-01 4.29936E-27
9.53154E-01 4.12312E-27
9.54981E-01 3.95157E-27
9.56773E-01 3.78464E-27
9.58530E-01 3.62224E-27
9.60252E-01 3.46429E-27
9.61940E-01 3.31074E-27
9.63592E-01 3.16150E-27
9.65209E-01 3.01651E-27
9.66790E-01 2.87571E-27
9.68336E-01 2.73902E-27
9.69846E-01 2.60639E-27
9.71321E-01 2.47776E-27
9.72759E-01 2.35308E-27
9.74162E-01 2.23227E-27
9.75528E-01 2.11530E-27
9.76858E-01 2.00211E-27
9.78152E-01 1.89264E-27
9.79410E-01 1.78686E-27
9.80631E-01 1.68471E-27
9.81815E-01 1.58615E-27
9.82963E-01 1.49113E-27
9.84074E-01 1.39961E-27
9.85148E-01 1.31156E-27
9.86185E-01 1.22693E-27
9.87185E-01 1.14569E-27
9.88148E-01 1.06781E-27
9.89074E-01 9.93237E-28
9.89962E-01 9.21953E-28
9.90814E-01 8.53923E-28
9.91627E-01 7.89120E-28
9.92404E-01 7.27513E-28
9.93143E-01 6.69078E-28
9.93844E-01 6.13788E-28
9.94508E-01 5.61619E-28
9.95134E-01 5.12550E-28
9.95722E-01 4.66559E-28
9.96273E-01 4.23627E-28
9.96786E-01 3.83734E-28
9.97261E-01 3.46865E-28
9.97698E-01 3.13003E-28
9.98097E-01 2.82133E-28
9.98459E-01 2.54243E-28
9.98782E-01 2.29321E-28
9.99067E-01 2.07355E-28
9.99315E-01 1.88337E-28
9.99524E-01 1.72259E-28
9.99695E-01 1.59114E-28
9.99829E-01 1.48895E-28
9.99924E-01 1.41599E-28
9.99981E-01 1.37223E-28
1.00000E+00 1.35764E-28
