 #
 # Subroutine ELSEPA. Elastic scattering of electrons and positrons
 #                    by neutral atoms and positive ions
 #
 # Projectile: positron
 # Kinetic energy = 4.00000E+08 eV = 1.46997E+07 a.u.
 #
 # WARNING: High-energy factorization with free-atom DF screening.
 #          Absorption, polarization and exchange corrections are
 #          switched off.
 #          Phase shifts are calculated for the bare nucleus.
 #          Scattering amplitudes are not evaluated.
 #
 # Element: Pa,  Z =  91,  atomic weight = 2.31036E+02 g/mol
 #
 # Nuclear model: Fermi distribution
 #                Average radius = 6.56564E-13 cm
 #                Skin thickness = 5.46000E-14 cm
 #
 # Number of electrons = 91
 #
 # Total elastic cross section = 1.16836E-17 cm**2 = 4.17228E-01 a0**2
 # 1st transport cross section = 9.49923E-26 cm**2 = 3.39224E-09 a0**2
 # 2nd transport cross section = 2.84794E-25 cm**2 = 1.01702E-08 a0**2
 #
 #
 # Differential cross section:                       MU=(1-COS(THETA))/2
 #
 #  THETA        MU          DCS          DCS        Sherman      error
 #  (deg)                 (cm**2/sr)   (a0**2/sr)    function
 #----------------------------------------------------------------------
0.00000E+00 2.21563E-08
7.61557E-13 2.07412E-08
1.18994E-12 2.00105E-08
1.71346E-12 1.91757E-08
2.33225E-12 1.82609E-08
3.04617E-12 1.72952E-08
3.85530E-12 1.63034E-08
4.75964E-12 1.53055E-08
5.75917E-12 1.43196E-08
6.85391E-12 1.33651E-08
8.04379E-12 1.24492E-08
9.32893E-12 1.15792E-08
1.07092E-11 1.07610E-08
1.21847E-11 9.99947E-09
1.37554E-11 9.29157E-09
1.54213E-11 8.63663E-09
1.71823E-11 8.03423E-09
1.90386E-11 7.48111E-09
2.09900E-11 6.97301E-09
2.30367E-11 6.50696E-09
2.51785E-11 6.08029E-09
2.74156E-11 5.68878E-09
2.97478E-11 5.32938E-09
3.21752E-11 4.99934E-09
3.46979E-11 4.69549E-09
3.73157E-11 4.41554E-09
4.00286E-11 4.15737E-09
4.28368E-11 3.91869E-09
4.57402E-11 3.69731E-09
4.87388E-11 3.49216E-09
5.18325E-11 3.30184E-09
5.50215E-11 3.12430E-09
5.83057E-11 2.95874E-09
6.16850E-11 2.80446E-09
6.51595E-11 2.66051E-09
6.87293E-11 2.52509E-09
7.23943E-11 2.39841E-09
7.61544E-11 2.27980E-09
1.18991E-10 1.41493E-09
1.71347E-10 9.12444E-10
2.33223E-10 6.24751E-10
3.04617E-10 4.40530E-10
3.85531E-10 3.20287E-10
4.75965E-10 2.39664E-10
5.75917E-10 1.83454E-10
6.85389E-10 1.42209E-10
8.04380E-10 1.12171E-10
9.32891E-10 8.98396E-11
1.07092E-09 7.28547E-11
1.21847E-09 5.96447E-11
1.37554E-09 4.93907E-11
1.54213E-09 4.13083E-11
1.71823E-09 3.48143E-11
1.90386E-09 2.95464E-11
2.09900E-09 2.52583E-11
2.30367E-09 2.17317E-11
2.51785E-09 1.87803E-11
2.74156E-09 1.63126E-11
2.97478E-09 1.42394E-11
3.21752E-09 1.24842E-11
3.46978E-09 1.09854E-11
3.73156E-09 9.70008E-12
4.00286E-09 8.59428E-12
4.28368E-09 7.64066E-12
4.57402E-09 6.81518E-12
4.87388E-09 6.10023E-12
5.18326E-09 5.47822E-12
5.50215E-09 4.93317E-12
5.83057E-09 4.45464E-12
6.16850E-09 4.03353E-12
6.51596E-09 3.66157E-12
6.87293E-09 3.33070E-12
7.23942E-09 3.03683E-12
7.61544E-09 2.77510E-12
1.18991E-08 1.24576E-12
1.71347E-08 6.40757E-13
2.33223E-08 3.62899E-13
3.04617E-08 2.21067E-13
3.85531E-08 1.42408E-13
4.75965E-08 9.58422E-14
5.75917E-08 6.68185E-14
6.85389E-08 4.79632E-14
8.04380E-08 3.52990E-14
9.32891E-08 2.65484E-14
1.07092E-07 2.03491E-14
1.21847E-07 1.58598E-14
1.37554E-07 1.25449E-14
1.54213E-07 1.00536E-14
1.71823E-07 8.15224E-15
1.90386E-07 6.68049E-15
2.09900E-07 5.52673E-15
2.30367E-07 4.61180E-15
2.51785E-07 3.87861E-15
2.74156E-07 3.28538E-15
2.97478E-07 2.80128E-15
3.21752E-07 2.40308E-15
3.46978E-07 2.07311E-15
3.73156E-07 1.79780E-15
4.00286E-07 1.56665E-15
4.28368E-07 1.37141E-15
4.57402E-07 1.20563E-15
4.87388E-07 1.06412E-15
5.18325E-07 9.42748E-16
5.50215E-07 8.38180E-16
5.83057E-07 7.47696E-16
6.16850E-07 6.69086E-16
6.51596E-07 6.00532E-16
6.87293E-07 5.40531E-16
7.23942E-07 4.87835E-16
7.61543E-07 4.41404E-16
1.18991E-06 1.82549E-16
1.71347E-06 8.86091E-17
2.33223E-06 4.80570E-17
3.04617E-06 2.82717E-17
3.85531E-06 1.76989E-17
4.75964E-06 1.16374E-17
5.75916E-06 7.96210E-18
6.85388E-06 5.62940E-18
8.04378E-06 4.09151E-18
9.32888E-06 3.04454E-18
1.07092E-05 2.31192E-18
1.21846E-05 1.78691E-18
1.37553E-05 1.40275E-18
1.54212E-05 1.11646E-18
1.71822E-05 8.99584E-19
1.90385E-05 7.32338E-19
2.09899E-05 6.03102E-19
2.30365E-05 5.01032E-19
2.51783E-05 4.19508E-19
2.74153E-05 3.53790E-19
2.97475E-05 3.00394E-19
3.21749E-05 2.56694E-19
3.46974E-05 2.20681E-19
3.73152E-05 1.90792E-19
4.00281E-05 1.65816E-19
4.28362E-05 1.44801E-19
4.57395E-05 1.27010E-19
4.87380E-05 1.11861E-19
5.18317E-05 9.88964E-20
5.50205E-05 8.77514E-20
5.83045E-05 7.81301E-20
6.16838E-05 6.97920E-20
6.51582E-05 6.25384E-20
6.87277E-05 5.62039E-20
7.23925E-05 5.06520E-20
7.61524E-05 4.61606E-20
9.21439E-05 3.15707E-20
1.09658E-04 2.23201E-20
1.28695E-04 1.62261E-20
1.49255E-04 1.20788E-20
1.71338E-04 9.17766E-21
1.94942E-04 7.09712E-21
2.20070E-04 5.57361E-21
2.46720E-04 4.43756E-21
2.74892E-04 3.57650E-21
3.04586E-04 2.91407E-21
3.35803E-04 2.39780E-21
3.68542E-04 1.99055E-21
4.02802E-04 1.66582E-21
4.38585E-04 1.40434E-21
4.75889E-04 1.19186E-21
5.14715E-04 1.01778E-21
5.55063E-04 8.74055E-22
5.96931E-04 7.54565E-22
6.40321E-04 6.54568E-22
6.85233E-04 5.70374E-22
7.31665E-04 4.99090E-22
7.79618E-04 4.38412E-22
8.29092E-04 3.86513E-22
8.80086E-04 3.41914E-22
9.32601E-04 3.03423E-22
9.86636E-04 2.70071E-22
1.04219E-03 2.41057E-22
1.09927E-03 2.15730E-22
1.15786E-03 1.93543E-22
1.21797E-03 1.74045E-22
1.27961E-03 1.56859E-22
1.34276E-03 1.41665E-22
1.40743E-03 1.28198E-22
1.47362E-03 1.16228E-22
1.54133E-03 1.05564E-22
1.61056E-03 9.60411E-23
1.68131E-03 8.75176E-23
1.75357E-03 7.98725E-23
1.82735E-03 7.30014E-23
1.90265E-03 6.68140E-23
1.97947E-03 6.12317E-23
2.05780E-03 5.61866E-23
2.13765E-03 5.16193E-23
2.21902E-03 4.74776E-23
2.30190E-03 4.37163E-23
2.38630E-03 4.02951E-23
2.47222E-03 3.71790E-23
2.55965E-03 3.43368E-23
2.64859E-03 3.17410E-23
2.73905E-03 2.93673E-23
2.83103E-03 2.71941E-23
2.92452E-03 2.52020E-23
3.01952E-03 2.33740E-23
3.11604E-03 2.16947E-23
3.21407E-03 2.01504E-23
3.31362E-03 1.87288E-23
3.41468E-03 1.74190E-23
3.51725E-03 1.62110E-23
3.62133E-03 1.50959E-23
3.72692E-03 1.40657E-23
3.83403E-03 1.31131E-23
3.94265E-03 1.22317E-23
4.05278E-03 1.14153E-23
4.16442E-03 1.06587E-23
4.27757E-03 9.95707E-24
4.39223E-03 9.30584E-24
4.50840E-03 8.70105E-24
4.62608E-03 8.13900E-24
4.74527E-03 7.61636E-24
4.86597E-03 7.13008E-24
4.98817E-03 6.67735E-24
5.11188E-03 6.25563E-24
5.23711E-03 5.86259E-24
5.36383E-03 5.49607E-24
5.49207E-03 5.15413E-24
5.62181E-03 4.83495E-24
5.75306E-03 4.53688E-24
5.88581E-03 4.25841E-24
6.02007E-03 3.99811E-24
6.15583E-03 3.75472E-24
6.29310E-03 3.52703E-24
6.43187E-03 3.31395E-24
6.57214E-03 3.11447E-24
6.71392E-03 2.92765E-24
6.85720E-03 2.75262E-24
7.00198E-03 2.58859E-24
7.14827E-03 2.43481E-24
7.29605E-03 2.29060E-24
7.44534E-03 2.15532E-24
7.59612E-03 2.02838E-24
7.97965E-03 1.74402E-24
8.37255E-03 1.50090E-24
8.77480E-03 1.29275E-24
9.18641E-03 1.11428E-24
9.60736E-03 9.61077E-25
1.00376E-02 8.29417E-25
1.04773E-02 7.16158E-25
1.09262E-02 6.18644E-25
1.13844E-02 5.34621E-25
1.18520E-02 4.62173E-25
1.23288E-02 3.99669E-25
1.28150E-02 3.45718E-25
1.33104E-02 2.99128E-25
1.38150E-02 2.58881E-25
1.43290E-02 2.24105E-25
1.48521E-02 1.94048E-25
1.53845E-02 1.68065E-25
1.59262E-02 1.45603E-25
1.64770E-02 1.26181E-25
1.70371E-02 1.09389E-25
1.76063E-02 9.48691E-26
1.81848E-02 8.23150E-26
1.87724E-02 7.14606E-26
1.93692E-02 6.20761E-26
1.99751E-02 5.39628E-26
2.05901E-02 4.69486E-26
2.12143E-02 4.08847E-26
2.18476E-02 3.56420E-26
2.24900E-02 3.11090E-26
2.31415E-02 2.71892E-26
2.38021E-02 2.37987E-26
2.44717E-02 2.08654E-26
2.51504E-02 1.83264E-26
2.58382E-02 1.61276E-26
2.65349E-02 1.42221E-26
2.72407E-02 1.25695E-26
2.79555E-02 1.11347E-26
2.86793E-02 9.88758E-27
2.94120E-02 8.80204E-27
3.01537E-02 7.85562E-27
3.09043E-02 7.02898E-27
3.16639E-02 6.30545E-27
3.24324E-02 5.67072E-27
3.32098E-02 5.11247E-27
3.39961E-02 4.62015E-27
3.47912E-02 4.18468E-27
3.55952E-02 3.79831E-27
3.64081E-02 3.45438E-27
3.72297E-02 3.14722E-27
3.80602E-02 2.87196E-27
3.88995E-02 2.62444E-27
3.97476E-02 2.40113E-27
4.06044E-02 2.19900E-27
4.14700E-02 2.01546E-27
4.23443E-02 1.84832E-27
4.32273E-02 1.69569E-27
4.41190E-02 1.55596E-27
4.50194E-02 1.42777E-27
4.59284E-02 1.30991E-27
4.68461E-02 1.20139E-27
4.87074E-02 1.00897E-27
5.06030E-02 8.44783E-28
5.25328E-02 7.04480E-28
5.44967E-02 5.84642E-28
5.64946E-02 4.82514E-28
5.85262E-02 3.95804E-28
6.05914E-02 3.22561E-28
6.26901E-02 2.61076E-28
6.48222E-02 2.09834E-28
6.69873E-02 1.67473E-28
6.91854E-02 1.32766E-28
7.14163E-02 1.04605E-28
7.36799E-02 8.19922E-29
7.59760E-02 6.40362E-29
7.83043E-02 4.99462E-29
8.06647E-02 3.90269E-29
8.30571E-02 3.06743E-29
8.54812E-02 2.43691E-29
8.79369E-02 1.96712E-29
9.04240E-02 1.62124E-29
9.29422E-02 1.36893E-29
9.54915E-02 1.18560E-29
9.80716E-02 1.05173E-29
1.00682E-01 9.52078E-30
1.03323E-01 8.75101E-30
1.05995E-01 8.12279E-30
1.08696E-01 7.57576E-30
1.11427E-01 7.06929E-30
1.14188E-01 6.57810E-30
1.16978E-01 6.08846E-30
1.19797E-01 5.59504E-30
1.22645E-01 5.09824E-30
1.25522E-01 4.60212E-30
1.28428E-01 4.11275E-30
1.31361E-01 3.63697E-30
1.34323E-01 3.18147E-30
1.37313E-01 2.75223E-30
1.40330E-01 2.35409E-30
1.43375E-01 1.99059E-30
1.46447E-01 1.66392E-30
1.49545E-01 1.37499E-30
1.52671E-01 1.12354E-30
1.55823E-01 9.08282E-31
1.59001E-01 7.27168E-31
1.62205E-01 5.77525E-31
1.65435E-01 4.56274E-31
1.68690E-01 3.60100E-31
1.71970E-01 2.85610E-31
1.75276E-01 2.29457E-31
1.78606E-01 1.88451E-31
1.81961E-01 1.59628E-31
1.85340E-01 1.40313E-31
1.88743E-01 1.28149E-31
1.92169E-01 1.21109E-31
1.95619E-01 1.17501E-31
1.99092E-01 1.15950E-31
2.02589E-01 1.15378E-31
2.06107E-01 1.14978E-31
2.09649E-01 1.14174E-31
2.13212E-01 1.12596E-31
2.16797E-01 1.10036E-31
2.20404E-01 1.06425E-31
2.24032E-01 1.01792E-31
2.27680E-01 9.62440E-32
2.31350E-01 8.99355E-32
2.35040E-01 8.30518E-32
2.38751E-01 7.57898E-32
2.42481E-01 6.83449E-32
2.46231E-01 6.09003E-32
2.50000E-01 5.36199E-32
2.53788E-01 4.66436E-32
2.57595E-01 4.00843E-32
2.61421E-01 3.40278E-32
2.65264E-01 2.85330E-32
2.69126E-01 2.36342E-32
2.73005E-01 1.93432E-32
2.76901E-01 1.56525E-32
2.80814E-01 1.25391E-32
2.84744E-01 9.96693E-33
2.88691E-01 7.89111E-33
2.92653E-01 6.26033E-33
2.96632E-01 5.01980E-33
3.00625E-01 4.11364E-33
3.04634E-01 3.48685E-33
3.08658E-01 3.08691E-33
3.12697E-01 2.86503E-33
3.16749E-01 2.77703E-33
3.20816E-01 2.78385E-33
3.24896E-01 2.85190E-33
3.28990E-01 2.95306E-33
3.33097E-01 3.06453E-33
3.37216E-01 3.16853E-33
3.41348E-01 3.25192E-33
3.45492E-01 3.30565E-33
3.49647E-01 3.32425E-33
3.53814E-01 3.30530E-33
3.57992E-01 3.24883E-33
3.62181E-01 3.15686E-33
3.66381E-01 3.03283E-33
3.70590E-01 2.88124E-33
3.74810E-01 2.70719E-33
3.79039E-01 2.51608E-33
3.83277E-01 2.31335E-33
3.87524E-01 2.10421E-33
3.91780E-01 1.89348E-33
3.96044E-01 1.68552E-33
4.00316E-01 1.48407E-33
4.04596E-01 1.29225E-33
4.08882E-01 1.11254E-33
4.13176E-01 9.46797E-34
4.17476E-01 7.96280E-34
4.21783E-01 6.61696E-34
4.26095E-01 5.43269E-34
4.30413E-01 4.40796E-34
4.34737E-01 3.53721E-34
4.39065E-01 2.81202E-34
4.43398E-01 2.22177E-34
4.47736E-01 1.75430E-34
4.52077E-01 1.39641E-34
4.56422E-01 1.13443E-34
4.60770E-01 9.54663E-35
4.65122E-01 8.43700E-35
4.69476E-01 7.88771E-35
4.73832E-01 7.77962E-35
4.78190E-01 8.00387E-35
4.82550E-01 8.46301E-35
4.86912E-01 9.07165E-35
4.91274E-01 9.75667E-35
4.95637E-01 1.04570E-34
5.00000E-01 1.11232E-34
5.04363E-01 1.17169E-34
5.08726E-01 1.22095E-34
5.13088E-01 1.25815E-34
5.17450E-01 1.28215E-34
5.21810E-01 1.29248E-34
5.26168E-01 1.28924E-34
5.30524E-01 1.27302E-34
5.34878E-01 1.24473E-34
5.39230E-01 1.20562E-34
5.43578E-01 1.15708E-34
5.47923E-01 1.10063E-34
5.52264E-01 1.03783E-34
5.56602E-01 9.70255E-35
5.60935E-01 8.99416E-35
5.65263E-01 8.26748E-35
5.69587E-01 7.53562E-35
5.73905E-01 6.81034E-35
5.78217E-01 6.10207E-35
5.82524E-01 5.41963E-35
5.86824E-01 4.77029E-35
5.91118E-01 4.15988E-35
5.95404E-01 3.59275E-35
5.99684E-01 3.07189E-35
6.03956E-01 2.59907E-35
6.08220E-01 2.17496E-35
6.12476E-01 1.79926E-35
6.16723E-01 1.47079E-35
6.20961E-01 1.18772E-35
6.25190E-01 9.47655E-36
6.29410E-01 7.47739E-36
6.33619E-01 5.84818E-36
6.37819E-01 4.55516E-36
6.42008E-01 3.56366E-36
6.46186E-01 2.83839E-36
6.50353E-01 2.34478E-36
6.54508E-01 2.04915E-36
6.58652E-01 1.91944E-36
6.62784E-01 1.92554E-36
6.66903E-01 2.03951E-36
6.71010E-01 2.23590E-36
6.75104E-01 2.49177E-36
6.79184E-01 2.78684E-36
6.83251E-01 3.10335E-36
6.87303E-01 3.42604E-36
6.91342E-01 3.74230E-36
6.95366E-01 4.04156E-36
6.99375E-01 4.31553E-36
7.03368E-01 4.55791E-36
7.07347E-01 4.76393E-36
7.11309E-01 4.93088E-36
7.15256E-01 5.05687E-36
7.19186E-01 5.14169E-36
7.23099E-01 5.18596E-36
7.26995E-01 5.19098E-36
7.30874E-01 5.15892E-36
7.34736E-01 5.09254E-36
7.38579E-01 4.99487E-36
7.42405E-01 4.86906E-36
7.46212E-01 4.71878E-36
7.50000E-01 4.54750E-36
7.53769E-01 4.35874E-36
7.57519E-01 4.15600E-36
7.61249E-01 3.94252E-36
7.64960E-01 3.72140E-36
7.68650E-01 3.49561E-36
7.72320E-01 3.26783E-36
7.75968E-01 3.04046E-36
7.79596E-01 2.81565E-36
7.83203E-01 2.59528E-36
7.86788E-01 2.38101E-36
7.90351E-01 2.17414E-36
7.93893E-01 1.97592E-36
7.97411E-01 1.78709E-36
8.00908E-01 1.60851E-36
8.04381E-01 1.44051E-36
8.07831E-01 1.28350E-36
8.11257E-01 1.13754E-36
8.14660E-01 1.00270E-36
8.18039E-01 8.78829E-37
8.21394E-01 7.65694E-37
8.24724E-01 6.62986E-37
8.28030E-01 5.70308E-37
8.31310E-01 4.87212E-37
8.34565E-01 4.13172E-37
8.37795E-01 3.47688E-37
8.40999E-01 2.90196E-37
8.44177E-01 2.40105E-37
8.47329E-01 1.96861E-37
8.50455E-01 1.59878E-37
8.53553E-01 1.28619E-37
8.56625E-01 1.02533E-37
8.59670E-01 8.10855E-38
8.62687E-01 6.37915E-38
8.65677E-01 5.01708E-38
8.68639E-01 3.97827E-38
8.71572E-01 3.22011E-38
8.74478E-01 2.70451E-38
8.77355E-01 2.39578E-38
8.80203E-01 2.26143E-38
8.83022E-01 2.27140E-38
8.85812E-01 2.39940E-38
8.88573E-01 2.62112E-38
8.91304E-01 2.91475E-38
8.94005E-01 3.26189E-38
8.96677E-01 3.64655E-38
8.99318E-01 4.05202E-38
9.01928E-01 4.46778E-38
9.04508E-01 4.88330E-38
9.07058E-01 5.28917E-38
9.09576E-01 5.67734E-38
9.12063E-01 6.04392E-38
9.14519E-01 6.38306E-38
9.16943E-01 6.69102E-38
9.19335E-01 6.96559E-38
9.21696E-01 7.20578E-38
9.24024E-01 7.40943E-38
9.26320E-01 7.57771E-38
9.28584E-01 7.70906E-38
9.30815E-01 7.80673E-38
9.33013E-01 7.86969E-38
9.35178E-01 7.89974E-38
9.37310E-01 7.89894E-38
9.39409E-01 7.86904E-38
9.41474E-01 7.81226E-38
9.43505E-01 7.72998E-38
9.45503E-01 7.62314E-38
9.47467E-01 7.49793E-38
9.49397E-01 7.35177E-38
9.51293E-01 7.19025E-38
9.53154E-01 7.01322E-38
9.54981E-01 6.82404E-38
9.56773E-01 6.62225E-38
9.58530E-01 6.41261E-38
9.60252E-01 6.19576E-38
9.61940E-01 5.97153E-38
9.63592E-01 5.74501E-38
9.65209E-01 5.51345E-38
9.66790E-01 5.28047E-38
9.68336E-01 5.04876E-38
9.69846E-01 4.81629E-38
9.71321E-01 4.58385E-38
9.72759E-01 4.35529E-38
9.74162E-01 4.12974E-38
9.75528E-01 3.90698E-38
9.76858E-01 3.68853E-38
9.78152E-01 3.47543E-38
9.79410E-01 3.26675E-38
9.80631E-01 3.06460E-38
9.81815E-01 2.86874E-38
9.82963E-01 2.67737E-38
9.84074E-01 2.49336E-38
9.85148E-01 2.31541E-38
9.86185E-01 2.14508E-38
9.87185E-01 1.98049E-38
9.88148E-01 1.82367E-38
9.89074E-01 1.67380E-38
9.89962E-01 1.53041E-38
9.90814E-01 1.39490E-38
9.91627E-01 1.26459E-38
9.92404E-01 1.14272E-38
9.93143E-01 1.02622E-38
9.93844E-01 9.17742E-39
9.94508E-01 8.14841E-39
9.95134E-01 7.19155E-39
9.95722E-01 6.29330E-39
9.96273E-01 5.46804E-39
9.96786E-01 4.69889E-39
9.97261E-01 3.98974E-39
9.97698E-01 3.34205E-39
9.98097E-01 2.75677E-39
9.98459E-01 2.22660E-39
9.98782E-01 1.75767E-39
9.99067E-01 1.34401E-39
9.99315E-01 9.87894E-40
9.99524E-01 6.84852E-40
9.99695E-01 4.40431E-40
9.99829E-01 2.45620E-40
9.99924E-01 1.12130E-40
9.99981E-01 2.85107E-41
1.00000E+00 2.39819E-42
