 #
 # Subroutine ELSEPA. Elastic scattering of electrons and positrons
 #                    by neutral atoms and positive ions
 #
 # Projectile: positron
 # Kinetic energy = 3.00000E+06 eV = 1.10248E+05 a.u.
 #
 # WARNING: High-energy factorization with free-atom DF screening.
 #          Absorption, polarization and exchange corrections are
 #          switched off.
 #          Phase shifts are calculated for the bare nucleus.
 #          Scattering amplitudes are not evaluated.
 #
 # Element: Pa,  Z =  91,  atomic weight = 2.31036E+02 g/mol
 #
 # Nuclear model: Fermi distribution
 #                Average radius = 6.56564E-13 cm
 #                Skin thickness = 5.46000E-14 cm
 #
 # Number of electrons = 91
 #
 # Total elastic cross section = 1.19232E-17 cm**2 = 4.25786E-01 a0**2
 # 1st transport cross section = 7.28790E-22 cm**2 = 2.60256E-05 a0**2
 # 2nd transport cross section = 2.08048E-21 cm**2 = 7.42955E-05 a0**2
 #
 #
 # Differential cross section:                       MU=(1-COS(THETA))/2
 #
 #  THETA        MU          DCS          DCS        Sherman      error
 #  (deg)                 (cm**2/sr)   (a0**2/sr)    function
 #----------------------------------------------------------------------
0.00000E+00 1.70267E-12
7.61557E-13 1.70266E-12
1.18994E-12 1.70265E-12
1.71346E-12 1.70265E-12
2.33225E-12 1.70264E-12
3.04617E-12 1.70263E-12
3.85530E-12 1.70262E-12
4.75964E-12 1.70261E-12
5.75917E-12 1.70260E-12
6.85391E-12 1.70258E-12
8.04379E-12 1.70257E-12
9.32893E-12 1.70256E-12
1.07092E-11 1.70254E-12
1.21847E-11 1.70252E-12
1.37554E-11 1.70250E-12
1.54213E-11 1.70248E-12
1.71823E-11 1.70246E-12
1.90386E-11 1.70244E-12
2.09900E-11 1.70242E-12
2.30367E-11 1.70240E-12
2.51785E-11 1.70237E-12
2.74156E-11 1.70234E-12
2.97478E-11 1.70232E-12
3.21752E-11 1.70229E-12
3.46979E-11 1.70226E-12
3.73157E-11 1.70223E-12
4.00286E-11 1.70220E-12
4.28368E-11 1.70217E-12
4.57402E-11 1.70213E-12
4.87388E-11 1.70210E-12
5.18325E-11 1.70206E-12
5.50215E-11 1.70203E-12
5.83057E-11 1.70199E-12
6.16850E-11 1.70195E-12
6.51595E-11 1.70191E-12
6.87293E-11 1.70187E-12
7.23943E-11 1.70183E-12
7.61544E-11 1.70178E-12
1.18991E-10 1.70129E-12
1.71347E-10 1.70070E-12
2.33223E-10 1.69999E-12
3.04617E-10 1.69918E-12
3.85531E-10 1.69826E-12
4.75965E-10 1.69724E-12
5.75917E-10 1.69610E-12
6.85389E-10 1.69487E-12
8.04380E-10 1.69352E-12
9.32891E-10 1.69208E-12
1.07092E-09 1.69052E-12
1.21847E-09 1.68887E-12
1.37554E-09 1.68711E-12
1.54213E-09 1.68524E-12
1.71823E-09 1.68328E-12
1.90386E-09 1.68121E-12
2.09900E-09 1.67904E-12
2.30367E-09 1.67677E-12
2.51785E-09 1.67440E-12
2.74156E-09 1.67193E-12
2.97478E-09 1.66937E-12
3.21752E-09 1.66670E-12
3.46978E-09 1.66394E-12
3.73156E-09 1.66108E-12
4.00286E-09 1.65813E-12
4.28368E-09 1.65508E-12
4.57402E-09 1.65194E-12
4.87388E-09 1.64871E-12
5.18326E-09 1.64539E-12
5.50215E-09 1.64197E-12
5.83057E-09 1.63847E-12
6.16850E-09 1.63488E-12
6.51596E-09 1.63120E-12
6.87293E-09 1.62743E-12
7.23942E-09 1.62358E-12
7.61544E-09 1.61964E-12
1.18991E-08 1.57591E-12
1.71347E-08 1.52510E-12
2.33223E-08 1.46861E-12
3.04617E-08 1.40756E-12
3.85531E-08 1.34357E-12
4.75965E-08 1.27771E-12
5.75917E-08 1.21104E-12
6.85389E-08 1.14495E-12
8.04380E-08 1.07984E-12
9.32891E-08 1.01657E-12
1.07092E-07 9.55791E-13
1.21847E-07 8.97565E-13
1.37554E-07 8.42468E-13
1.54213E-07 7.90480E-13
1.71823E-07 7.41520E-13
1.90386E-07 6.95931E-13
2.09900E-07 6.53301E-13
2.30367E-07 6.13596E-13
2.51785E-07 5.76804E-13
2.74156E-07 5.42580E-13
2.97478E-07 5.10865E-13
3.21752E-07 4.81463E-13
3.46978E-07 4.54167E-13
3.73156E-07 4.28865E-13
4.00286E-07 4.05358E-13
4.28368E-07 3.83525E-13
4.57402E-07 3.63197E-13
4.87388E-07 3.44275E-13
5.18325E-07 3.26642E-13
5.50215E-07 3.10151E-13
5.83057E-07 2.94766E-13
6.16850E-07 2.80348E-13
6.51596E-07 2.66826E-13
6.87293E-07 2.54176E-13
7.23942E-07 2.42241E-13
7.61543E-07 2.31035E-13
1.18991E-06 1.48193E-13
1.71347E-06 9.91802E-14
2.33223E-06 6.80216E-14
3.04617E-06 4.90943E-14
3.85531E-06 3.59949E-14
4.75964E-06 2.71829E-14
5.75916E-06 2.10191E-14
6.85388E-06 1.64143E-14
8.04378E-06 1.30736E-14
9.32888E-06 1.05394E-14
1.07092E-05 8.57845E-15
1.21846E-05 7.07462E-15
1.37553E-05 5.87819E-15
1.54212E-05 4.92936E-15
1.71822E-05 4.17339E-15
1.90385E-05 3.54863E-15
2.09899E-05 3.04638E-15
2.30365E-05 2.63159E-15
2.51783E-05 2.28200E-15
2.74153E-05 1.99035E-15
2.97475E-05 1.74304E-15
3.21749E-05 1.53237E-15
3.46974E-05 1.35368E-15
3.73152E-05 1.19925E-15
4.00281E-05 1.06644E-15
4.28362E-05 9.51907E-16
4.57395E-05 8.51678E-16
4.87380E-05 7.64295E-16
5.18317E-05 6.87307E-16
5.50205E-05 6.19515E-16
5.83045E-05 5.60092E-16
6.16838E-05 5.07576E-16
6.51582E-05 4.61131E-16
6.87277E-05 4.20044E-16
7.23925E-05 3.83352E-16
7.61524E-05 3.50660E-16
9.21439E-05 2.50192E-16
1.09658E-04 1.83335E-16
1.28695E-04 1.37552E-16
1.49255E-04 1.05276E-16
1.71338E-04 8.19570E-17
1.94942E-04 6.47173E-17
2.20070E-04 5.17945E-17
2.46720E-04 4.19556E-17
2.74892E-04 3.43749E-17
3.04586E-04 2.84065E-17
3.35803E-04 2.36967E-17
3.68542E-04 1.99302E-17
4.02802E-04 1.68771E-17
4.38585E-04 1.43945E-17
4.75889E-04 1.23505E-17
5.14715E-04 1.06557E-17
5.55063E-04 9.24437E-18
5.96931E-04 8.05597E-18
6.40321E-04 7.05265E-18
6.85233E-04 6.20143E-18
7.31665E-04 5.47216E-18
7.79618E-04 4.84755E-18
8.29092E-04 4.30915E-18
8.80086E-04 3.84249E-18
9.32601E-04 3.43758E-18
9.86636E-04 3.08407E-18
1.04219E-03 2.77461E-18
1.09927E-03 2.50316E-18
1.15786E-03 2.26365E-18
1.21797E-03 2.05216E-18
1.27961E-03 1.86482E-18
1.34276E-03 1.69816E-18
1.40743E-03 1.54979E-18
1.47362E-03 1.41722E-18
1.54133E-03 1.29847E-18
1.61056E-03 1.19196E-18
1.68131E-03 1.09608E-18
1.75357E-03 1.00965E-18
1.82735E-03 9.31604E-19
1.90265E-03 8.60892E-19
1.97947E-03 7.96787E-19
2.05780E-03 7.38540E-19
2.13765E-03 6.85487E-19
2.21902E-03 6.37130E-19
2.30190E-03 5.92947E-19
2.38630E-03 5.52515E-19
2.47222E-03 5.15482E-19
2.55965E-03 4.81475E-19
2.64859E-03 4.50226E-19
2.73905E-03 4.21474E-19
2.83103E-03 3.94957E-19
2.92452E-03 3.70497E-19
3.01952E-03 3.47894E-19
3.11604E-03 3.26976E-19
3.21407E-03 3.07609E-19
3.31362E-03 2.89643E-19
3.41468E-03 2.72964E-19
3.51725E-03 2.57468E-19
3.62133E-03 2.43044E-19
3.72692E-03 2.29614E-19
3.83403E-03 2.17096E-19
3.94265E-03 2.05411E-19
4.05278E-03 1.94500E-19
4.16442E-03 1.84300E-19
4.27757E-03 1.74754E-19
4.39223E-03 1.65817E-19
4.50840E-03 1.57438E-19
4.62608E-03 1.49579E-19
4.74527E-03 1.42203E-19
4.86597E-03 1.35270E-19
4.98817E-03 1.28754E-19
5.11188E-03 1.22623E-19
5.23711E-03 1.16849E-19
5.36383E-03 1.11410E-19
5.49207E-03 1.06281E-19
5.62181E-03 1.01441E-19
5.75306E-03 9.68730E-20
5.88581E-03 9.25560E-20
6.02007E-03 8.84759E-20
6.15583E-03 8.46169E-20
6.29310E-03 8.09637E-20
6.43187E-03 7.75048E-20
6.57214E-03 7.42272E-20
6.71392E-03 7.11195E-20
6.85720E-03 6.81721E-20
7.00198E-03 6.53743E-20
7.14827E-03 6.27176E-20
7.29605E-03 6.01939E-20
7.44534E-03 5.77944E-20
7.59612E-03 5.55127E-20
7.97965E-03 5.02789E-20
8.37255E-03 4.56434E-20
8.77480E-03 4.15267E-20
9.18641E-03 3.78603E-20
9.60736E-03 3.45873E-20
1.00376E-02 3.16579E-20
1.04773E-02 2.90301E-20
1.09262E-02 2.66675E-20
1.13844E-02 2.45387E-20
1.18520E-02 2.26167E-20
1.23288E-02 2.08778E-20
1.28150E-02 1.93017E-20
1.33104E-02 1.78705E-20
1.38150E-02 1.65685E-20
1.43290E-02 1.53821E-20
1.48521E-02 1.42992E-20
1.53845E-02 1.33092E-20
1.59262E-02 1.24028E-20
1.64770E-02 1.15716E-20
1.70371E-02 1.08083E-20
1.76063E-02 1.01065E-20
1.81848E-02 9.46019E-21
1.87724E-02 8.86432E-21
1.93692E-02 8.31419E-21
1.99751E-02 7.80580E-21
2.05901E-02 7.33528E-21
2.12143E-02 6.89939E-21
2.18476E-02 6.49515E-21
2.24900E-02 6.11976E-21
2.31415E-02 5.77088E-21
2.38021E-02 5.44628E-21
2.44717E-02 5.14395E-21
2.51504E-02 4.86214E-21
2.58382E-02 4.59914E-21
2.65349E-02 4.35353E-21
2.72407E-02 4.12394E-21
2.79555E-02 3.90911E-21
2.86793E-02 3.70796E-21
2.94120E-02 3.51945E-21
3.01537E-02 3.34263E-21
3.09043E-02 3.17667E-21
3.16639E-02 3.02076E-21
3.24324E-02 2.87419E-21
3.32098E-02 2.73632E-21
3.39961E-02 2.60651E-21
3.47912E-02 2.48423E-21
3.55952E-02 2.36895E-21
3.64081E-02 2.26020E-21
3.72297E-02 2.15755E-21
3.80602E-02 2.06059E-21
3.88995E-02 1.96895E-21
3.97476E-02 1.88229E-21
4.06044E-02 1.80028E-21
4.14700E-02 1.72263E-21
4.23443E-02 1.64908E-21
4.32273E-02 1.57935E-21
4.41190E-02 1.51323E-21
4.50194E-02 1.45048E-21
4.59284E-02 1.39091E-21
4.68461E-02 1.33433E-21
4.87074E-02 1.22943E-21
5.06030E-02 1.13450E-21
5.25328E-02 1.04845E-21
5.44967E-02 9.70288E-22
5.64946E-02 8.99176E-22
5.85262E-02 8.34371E-22
6.05914E-02 7.75218E-22
6.26901E-02 7.21139E-22
6.48222E-02 6.71626E-22
6.69873E-02 6.26225E-22
6.91854E-02 5.84539E-22
7.14163E-02 5.46212E-22
7.36799E-02 5.10924E-22
7.59760E-02 4.78395E-22
7.83043E-02 4.48373E-22
8.06647E-02 4.20630E-22
8.30571E-02 3.94964E-22
8.54812E-02 3.71192E-22
8.79369E-02 3.49151E-22
9.04240E-02 3.28694E-22
9.29422E-02 3.09686E-22
9.54915E-02 2.92007E-22
9.80716E-02 2.75549E-22
1.00682E-01 2.60213E-22
1.03323E-01 2.45909E-22
1.05995E-01 2.32555E-22
1.08696E-01 2.20078E-22
1.11427E-01 2.08410E-22
1.14188E-01 1.97490E-22
1.16978E-01 1.87261E-22
1.19797E-01 1.77672E-22
1.22645E-01 1.68676E-22
1.25522E-01 1.60230E-22
1.28428E-01 1.52295E-22
1.31361E-01 1.44835E-22
1.34323E-01 1.37815E-22
1.37313E-01 1.31207E-22
1.40330E-01 1.24980E-22
1.43375E-01 1.19110E-22
1.46447E-01 1.13573E-22
1.49545E-01 1.08346E-22
1.52671E-01 1.03409E-22
1.55823E-01 9.87431E-23
1.59001E-01 9.43309E-23
1.62205E-01 9.01564E-23
1.65435E-01 8.62043E-23
1.68690E-01 8.24609E-23
1.71970E-01 7.89131E-23
1.75276E-01 7.55490E-23
1.78606E-01 7.23575E-23
1.81961E-01 6.93281E-23
1.85340E-01 6.64513E-23
1.88743E-01 6.37179E-23
1.92169E-01 6.11197E-23
1.95619E-01 5.86488E-23
1.99092E-01 5.62978E-23
2.02589E-01 5.40600E-23
2.06107E-01 5.19289E-23
2.09649E-01 4.98986E-23
2.13212E-01 4.79635E-23
2.16797E-01 4.61183E-23
2.20404E-01 4.43583E-23
2.24032E-01 4.26787E-23
2.27680E-01 4.10752E-23
2.31350E-01 3.95438E-23
2.35040E-01 3.80808E-23
2.38751E-01 3.66825E-23
2.42481E-01 3.53456E-23
2.46231E-01 3.40669E-23
2.50000E-01 3.28434E-23
2.53788E-01 3.16724E-23
2.57595E-01 3.05513E-23
2.61421E-01 2.94774E-23
2.65264E-01 2.84486E-23
2.69126E-01 2.74625E-23
2.73005E-01 2.65171E-23
2.76901E-01 2.56105E-23
2.80814E-01 2.47407E-23
2.84744E-01 2.39061E-23
2.88691E-01 2.31049E-23
2.92653E-01 2.23357E-23
2.96632E-01 2.15968E-23
3.00625E-01 2.08869E-23
3.04634E-01 2.02047E-23
3.08658E-01 1.95489E-23
3.12697E-01 1.89183E-23
3.16749E-01 1.83117E-23
3.20816E-01 1.77282E-23
3.24896E-01 1.71666E-23
3.28990E-01 1.66261E-23
3.33097E-01 1.61056E-23
3.37216E-01 1.56044E-23
3.41348E-01 1.51215E-23
3.45492E-01 1.46562E-23
3.49647E-01 1.42078E-23
3.53814E-01 1.37756E-23
3.57992E-01 1.33587E-23
3.62181E-01 1.29567E-23
3.66381E-01 1.25689E-23
3.70590E-01 1.21947E-23
3.74810E-01 1.18335E-23
3.79039E-01 1.14849E-23
3.83277E-01 1.11482E-23
3.87524E-01 1.08231E-23
3.91780E-01 1.05091E-23
3.96044E-01 1.02057E-23
4.00316E-01 9.91253E-24
4.04596E-01 9.62915E-24
4.08882E-01 9.35518E-24
4.13176E-01 9.09028E-24
4.17476E-01 8.83408E-24
4.21783E-01 8.58626E-24
4.26095E-01 8.34649E-24
4.30413E-01 8.11448E-24
4.34737E-01 7.88992E-24
4.39065E-01 7.67255E-24
4.43398E-01 7.46209E-24
4.47736E-01 7.25828E-24
4.52077E-01 7.06089E-24
4.56422E-01 6.86967E-24
4.60770E-01 6.68440E-24
4.65122E-01 6.50486E-24
4.69476E-01 6.33085E-24
4.73832E-01 6.16217E-24
4.78190E-01 5.99863E-24
4.82550E-01 5.84005E-24
4.86912E-01 5.68625E-24
4.91274E-01 5.53706E-24
4.95637E-01 5.39233E-24
5.00000E-01 5.25190E-24
5.04363E-01 5.11563E-24
5.08726E-01 4.98336E-24
5.13088E-01 4.85497E-24
5.17450E-01 4.73031E-24
5.21810E-01 4.60927E-24
5.26168E-01 4.49173E-24
5.30524E-01 4.37755E-24
5.34878E-01 4.26664E-24
5.39230E-01 4.15888E-24
5.43578E-01 4.05418E-24
5.47923E-01 3.95242E-24
5.52264E-01 3.85352E-24
5.56602E-01 3.75738E-24
5.60935E-01 3.66392E-24
5.65263E-01 3.57304E-24
5.69587E-01 3.48467E-24
5.73905E-01 3.39872E-24
5.78217E-01 3.31512E-24
5.82524E-01 3.23380E-24
5.86824E-01 3.15467E-24
5.91118E-01 3.07768E-24
5.95404E-01 3.00276E-24
5.99684E-01 2.92983E-24
6.03956E-01 2.85885E-24
6.08220E-01 2.78975E-24
6.12476E-01 2.72248E-24
6.16723E-01 2.65697E-24
6.20961E-01 2.59318E-24
6.25190E-01 2.53106E-24
6.29410E-01 2.47055E-24
6.33619E-01 2.41161E-24
6.37819E-01 2.35418E-24
6.42008E-01 2.29823E-24
6.46186E-01 2.24372E-24
6.50353E-01 2.19059E-24
6.54508E-01 2.13881E-24
6.58652E-01 2.08834E-24
6.62784E-01 2.03914E-24
6.66903E-01 1.99118E-24
6.71010E-01 1.94442E-24
6.75104E-01 1.89882E-24
6.79184E-01 1.85436E-24
6.83251E-01 1.81100E-24
6.87303E-01 1.76871E-24
6.91342E-01 1.72746E-24
6.95366E-01 1.68722E-24
6.99375E-01 1.64796E-24
7.03368E-01 1.60966E-24
7.07347E-01 1.57229E-24
7.11309E-01 1.53582E-24
7.15256E-01 1.50024E-24
7.19186E-01 1.46550E-24
7.23099E-01 1.43161E-24
7.26995E-01 1.39852E-24
7.30874E-01 1.36622E-24
7.34736E-01 1.33469E-24
7.38579E-01 1.30390E-24
7.42405E-01 1.27384E-24
7.46212E-01 1.24449E-24
7.50000E-01 1.21583E-24
7.53769E-01 1.18784E-24
7.57519E-01 1.16051E-24
7.61249E-01 1.13381E-24
7.64960E-01 1.10774E-24
7.68650E-01 1.08227E-24
7.72320E-01 1.05739E-24
7.75968E-01 1.03308E-24
7.79596E-01 1.00934E-24
7.83203E-01 9.86138E-25
7.86788E-01 9.63472E-25
7.90351E-01 9.41325E-25
7.93893E-01 9.19684E-25
7.97411E-01 8.98537E-25
8.00908E-01 8.77872E-25
8.04381E-01 8.57676E-25
8.07831E-01 8.37938E-25
8.11257E-01 8.18648E-25
8.14660E-01 7.99793E-25
8.18039E-01 7.81365E-25
8.21394E-01 7.63353E-25
8.24724E-01 7.45748E-25
8.28030E-01 7.28538E-25
8.31310E-01 7.11716E-25
8.34565E-01 6.95272E-25
8.37795E-01 6.79198E-25
8.40999E-01 6.63484E-25
8.44177E-01 6.48123E-25
8.47329E-01 6.33106E-25
8.50455E-01 6.18426E-25
8.53553E-01 6.04074E-25
8.56625E-01 5.90044E-25
8.59670E-01 5.76327E-25
8.62687E-01 5.62918E-25
8.65677E-01 5.49808E-25
8.68639E-01 5.36992E-25
8.71572E-01 5.24464E-25
8.74478E-01 5.12216E-25
8.77355E-01 5.00243E-25
8.80203E-01 4.88539E-25
8.83022E-01 4.77098E-25
8.85812E-01 4.65915E-25
8.88573E-01 4.54984E-25
8.91304E-01 4.44300E-25
8.94005E-01 4.33858E-25
8.96677E-01 4.23652E-25
8.99318E-01 4.13679E-25
9.01928E-01 4.03932E-25
9.04508E-01 3.94408E-25
9.07058E-01 3.85103E-25
9.09576E-01 3.76010E-25
9.12063E-01 3.67127E-25
9.14519E-01 3.58450E-25
9.16943E-01 3.49973E-25
9.19335E-01 3.41694E-25
9.21696E-01 3.33609E-25
9.24024E-01 3.25713E-25
9.26320E-01 3.18004E-25
9.28584E-01 3.10478E-25
9.30815E-01 3.03131E-25
9.33013E-01 2.95960E-25
9.35178E-01 2.88962E-25
9.37310E-01 2.82134E-25
9.39409E-01 2.75472E-25
9.41474E-01 2.68975E-25
9.43505E-01 2.62639E-25
9.45503E-01 2.56461E-25
9.47467E-01 2.50438E-25
9.49397E-01 2.44569E-25
9.51293E-01 2.38850E-25
9.53154E-01 2.33278E-25
9.54981E-01 2.27853E-25
9.56773E-01 2.22571E-25
9.58530E-01 2.17430E-25
9.60252E-01 2.12427E-25
9.61940E-01 2.07561E-25
9.63592E-01 2.02830E-25
9.65209E-01 1.98232E-25
9.66790E-01 1.93764E-25
9.68336E-01 1.89426E-25
9.69846E-01 1.85214E-25
9.71321E-01 1.81127E-25
9.72759E-01 1.77164E-25
9.74162E-01 1.73323E-25
9.75528E-01 1.69603E-25
9.76858E-01 1.66001E-25
9.78152E-01 1.62517E-25
9.79410E-01 1.59148E-25
9.80631E-01 1.55895E-25
9.81815E-01 1.52754E-25
9.82963E-01 1.49725E-25
9.84074E-01 1.46807E-25
9.85148E-01 1.43999E-25
9.86185E-01 1.41299E-25
9.87185E-01 1.38706E-25
9.88148E-01 1.36220E-25
9.89074E-01 1.33839E-25
9.89962E-01 1.31562E-25
9.90814E-01 1.29388E-25
9.91627E-01 1.27318E-25
9.92404E-01 1.25349E-25
9.93143E-01 1.23480E-25
9.93844E-01 1.21712E-25
9.94508E-01 1.20044E-25
9.95134E-01 1.18474E-25
9.95722E-01 1.17003E-25
9.96273E-01 1.15629E-25
9.96786E-01 1.14352E-25
9.97261E-01 1.13172E-25
9.97698E-01 1.12088E-25
9.98097E-01 1.11100E-25
9.98459E-01 1.10207E-25
9.98782E-01 1.09408E-25
9.99067E-01 1.08705E-25
9.99315E-01 1.08096E-25
9.99524E-01 1.07581E-25
9.99695E-01 1.07160E-25
9.99829E-01 1.06832E-25
9.99924E-01 1.06599E-25
9.99981E-01 1.06458E-25
1.00000E+00 1.06412E-25
