 #
 # Subroutine ELSEPA. Elastic scattering of electrons and positrons
 #                    by neutral atoms and positive ions
 #
 # Projectile: positron
 # Kinetic energy = 4.50000E+06 eV = 1.65372E+05 a.u.
 #
 # WARNING: High-energy factorization with free-atom DF screening.
 #          Absorption, polarization and exchange corrections are
 #          switched off.
 #          Phase shifts are calculated for the bare nucleus.
 #          Scattering amplitudes are not evaluated.
 #
 # Element: Gd,  Z =  64,  atomic weight = 1.57250E+02 g/mol
 #
 # Nuclear model: Fermi distribution
 #                Average radius = 5.77538E-13 cm
 #                Skin thickness = 5.46000E-14 cm
 #
 # Number of electrons = 64
 #
 # Total elastic cross section = 7.46500E-18 cm**2 = 2.66580E-01 a0**2
 # 1st transport cross section = 2.02639E-22 cm**2 = 7.23637E-06 a0**2
 # 2nd transport cross section = 5.82644E-22 cm**2 = 2.08066E-05 a0**2
 #
 #
 # Differential cross section:                       MU=(1-COS(THETA))/2
 #
 #  THETA        MU          DCS          DCS        Sherman      error
 #  (deg)                 (cm**2/sr)   (a0**2/sr)    function
 #----------------------------------------------------------------------
0.00000E+00 2.15788E-12
7.61557E-13 2.15786E-12
1.18994E-12 2.15784E-12
1.71346E-12 2.15783E-12
2.33225E-12 2.15781E-12
3.04617E-12 2.15779E-12
3.85530E-12 2.15776E-12
4.75964E-12 2.15773E-12
5.75917E-12 2.15770E-12
6.85391E-12 2.15767E-12
8.04379E-12 2.15763E-12
9.32893E-12 2.15759E-12
1.07092E-11 2.15755E-12
1.21847E-11 2.15750E-12
1.37554E-11 2.15746E-12
1.54213E-11 2.15740E-12
1.71823E-11 2.15735E-12
1.90386E-11 2.15729E-12
2.09900E-11 2.15723E-12
2.30367E-11 2.15717E-12
2.51785E-11 2.15711E-12
2.74156E-11 2.15704E-12
2.97478E-11 2.15697E-12
3.21752E-11 2.15689E-12
3.46979E-11 2.15682E-12
3.73157E-11 2.15674E-12
4.00286E-11 2.15665E-12
4.28368E-11 2.15657E-12
4.57402E-11 2.15648E-12
4.87388E-11 2.15639E-12
5.18325E-11 2.15630E-12
5.50215E-11 2.15620E-12
5.83057E-11 2.15610E-12
6.16850E-11 2.15600E-12
6.51595E-11 2.15589E-12
6.87293E-11 2.15578E-12
7.23943E-11 2.15567E-12
7.61544E-11 2.15556E-12
1.18991E-10 2.15426E-12
1.71347E-10 2.15268E-12
2.33223E-10 2.15081E-12
3.04617E-10 2.14866E-12
3.85531E-10 2.14623E-12
4.75965E-10 2.14352E-12
5.75917E-10 2.14053E-12
6.85389E-10 2.13727E-12
8.04380E-10 2.13373E-12
9.32891E-10 2.12992E-12
1.07092E-09 2.12584E-12
1.21847E-09 2.12149E-12
1.37554E-09 2.11688E-12
1.54213E-09 2.11201E-12
1.71823E-09 2.10688E-12
1.90386E-09 2.10150E-12
2.09900E-09 2.09587E-12
2.30367E-09 2.08998E-12
2.51785E-09 2.08386E-12
2.74156E-09 2.07749E-12
2.97478E-09 2.07088E-12
3.21752E-09 2.06405E-12
3.46978E-09 2.05698E-12
3.73156E-09 2.04969E-12
4.00286E-09 2.04218E-12
4.28368E-09 2.03446E-12
4.57402E-09 2.02652E-12
4.87388E-09 2.01838E-12
5.18326E-09 2.01004E-12
5.50215E-09 2.00149E-12
5.83057E-09 1.99276E-12
6.16850E-09 1.98384E-12
6.51596E-09 1.97474E-12
6.87293E-09 1.96546E-12
7.23942E-09 1.95601E-12
7.61544E-09 1.94639E-12
1.18991E-08 1.84230E-12
1.71347E-08 1.72717E-12
2.33223E-08 1.60608E-12
3.04617E-08 1.48350E-12
3.85531E-08 1.36309E-12
4.75965E-08 1.24763E-12
5.75917E-08 1.13907E-12
6.85389E-08 1.03870E-12
8.04380E-08 9.46833E-13
9.32891E-08 8.63513E-13
1.07092E-07 7.88433E-13
1.21847E-07 7.21078E-13
1.37554E-07 6.60816E-13
1.54213E-07 6.06965E-13
1.71823E-07 5.58841E-13
1.90386E-07 5.15792E-13
2.09900E-07 4.77212E-13
2.30367E-07 4.42554E-13
2.51785E-07 4.11317E-13
2.74156E-07 3.83073E-13
2.97478E-07 3.57453E-13
3.21752E-07 3.34138E-13
3.46978E-07 3.12855E-13
3.73156E-07 2.93366E-13
4.00286E-07 2.75467E-13
4.28368E-07 2.58983E-13
4.57402E-07 2.43763E-13
4.87388E-07 2.29677E-13
5.18325E-07 2.16604E-13
5.50215E-07 2.04434E-13
5.83057E-07 1.93104E-13
6.16850E-07 1.82542E-13
6.51596E-07 1.72680E-13
6.87293E-07 1.63461E-13
7.23942E-07 1.54834E-13
7.61543E-07 1.46752E-13
1.18991E-06 8.73527E-14
1.71347E-06 5.56009E-14
2.33223E-06 3.69929E-14
3.04617E-06 2.55679E-14
3.85531E-06 1.82258E-14
4.75964E-06 1.33130E-14
5.75916E-06 9.91569E-15
6.85388E-06 7.49928E-15
8.04378E-06 5.76176E-15
9.32888E-06 4.49196E-15
1.07092E-05 3.55062E-15
1.21846E-05 2.84345E-15
1.37553E-05 2.30533E-15
1.54212E-05 1.89066E-15
1.71822E-05 1.56714E-15
1.90385E-05 1.31108E-15
2.09899E-05 1.10767E-15
2.30365E-05 9.43437E-16
2.51783E-05 8.08246E-16
2.74153E-05 6.96797E-16
2.97475E-05 6.04224E-16
3.21749E-05 5.26770E-16
3.46974E-05 4.61507E-16
3.73152E-05 4.06131E-16
4.00281E-05 3.58830E-16
4.28362E-05 3.18176E-16
4.57395E-05 2.83046E-16
4.87380E-05 2.52553E-16
5.18317E-05 2.25980E-16
5.50205E-05 2.02743E-16
5.83045E-05 1.82388E-16
6.16838E-05 1.64506E-16
6.51582E-05 1.48753E-16
6.87277E-05 1.34832E-16
7.23925E-05 1.22493E-16
7.61524E-05 1.11522E-16
9.21439E-05 7.81314E-17
1.09658E-04 5.63081E-17
1.28695E-04 4.16119E-17
1.49255E-04 3.14151E-17
1.71338E-04 2.41670E-17
1.94942E-04 1.88970E-17
2.20070E-04 1.49904E-17
2.46720E-04 1.20443E-17
2.74892E-04 9.78778E-18
3.04586E-04 8.03578E-18
3.35803E-04 6.65849E-18
3.68542E-04 5.56348E-18
4.02802E-04 4.68387E-18
4.38585E-04 3.97103E-18
4.75889E-04 3.38846E-18
5.14715E-04 2.90860E-18
5.55063E-04 2.51049E-18
5.96931E-04 2.17799E-18
6.40321E-04 1.89856E-18
6.85233E-04 1.66237E-18
7.31665E-04 1.46166E-18
7.79618E-04 1.29024E-18
8.29092E-04 1.14312E-18
8.80086E-04 1.01628E-18
9.32601E-04 9.06503E-19
9.86636E-04 8.11103E-19
1.04219E-03 7.27887E-19
1.09927E-03 6.55040E-19
1.15786E-03 5.91053E-19
1.21797E-03 5.34667E-19
1.27961E-03 4.84827E-19
1.34276E-03 4.40644E-19
1.40743E-03 4.01367E-19
1.47362E-03 3.66356E-19
1.54133E-03 3.35068E-19
1.61056E-03 3.07041E-19
1.68131E-03 2.81877E-19
1.75357E-03 2.59231E-19
1.82735E-03 2.38809E-19
1.90265E-03 2.20353E-19
1.97947E-03 2.03642E-19
2.05780E-03 1.88481E-19
2.13765E-03 1.74701E-19
2.21902E-03 1.62154E-19
2.30190E-03 1.50710E-19
2.38630E-03 1.40255E-19
2.47222E-03 1.30689E-19
2.55965E-03 1.21922E-19
2.64859E-03 1.13876E-19
2.73905E-03 1.06480E-19
2.83103E-03 9.96741E-20
2.92452E-03 9.34013E-20
3.01952E-03 8.76127E-20
3.11604E-03 8.22642E-20
3.21407E-03 7.73164E-20
3.31362E-03 7.27336E-20
3.41468E-03 6.84841E-20
3.51725E-03 6.45393E-20
3.62133E-03 6.08736E-20
3.72692E-03 5.74634E-20
3.83403E-03 5.42878E-20
3.94265E-03 5.13277E-20
4.05278E-03 4.85658E-20
4.16442E-03 4.59865E-20
4.27757E-03 4.35755E-20
4.39223E-03 4.13197E-20
4.50840E-03 3.92073E-20
4.62608E-03 3.72277E-20
4.74527E-03 3.53708E-20
4.86597E-03 3.36277E-20
4.98817E-03 3.19903E-20
5.11188E-03 3.04508E-20
5.23711E-03 2.90023E-20
5.36383E-03 2.76386E-20
5.49207E-03 2.63537E-20
5.62181E-03 2.51422E-20
5.75306E-03 2.39991E-20
5.88581E-03 2.29200E-20
6.02007E-03 2.19005E-20
6.15583E-03 2.09367E-20
6.29310E-03 2.00251E-20
6.43187E-03 1.91623E-20
6.57214E-03 1.83452E-20
6.71392E-03 1.75710E-20
6.85720E-03 1.68369E-20
7.00198E-03 1.61406E-20
7.14827E-03 1.54797E-20
7.29605E-03 1.48520E-20
7.44534E-03 1.42557E-20
7.59612E-03 1.36888E-20
7.97965E-03 1.23894E-20
8.37255E-03 1.12396E-20
8.77480E-03 1.02195E-20
9.18641E-03 9.31175E-21
9.60736E-03 8.50196E-21
1.00376E-02 7.77776E-21
1.04773E-02 7.12855E-21
1.09262E-02 6.54524E-21
1.13844E-02 6.01999E-21
1.18520E-02 5.54602E-21
1.23288E-02 5.11746E-21
1.28150E-02 4.72922E-21
1.33104E-02 4.37683E-21
1.38150E-02 4.05642E-21
1.43290E-02 3.76457E-21
1.48521E-02 3.49830E-21
1.53845E-02 3.25497E-21
1.59262E-02 3.03227E-21
1.64770E-02 2.82815E-21
1.70371E-02 2.64077E-21
1.76063E-02 2.46853E-21
1.81848E-02 2.30999E-21
1.87724E-02 2.16386E-21
1.93692E-02 2.02901E-21
1.99751E-02 1.90441E-21
2.05901E-02 1.78914E-21
2.12143E-02 1.68238E-21
2.18476E-02 1.58340E-21
2.24900E-02 1.49152E-21
2.31415E-02 1.40615E-21
2.38021E-02 1.32674E-21
2.44717E-02 1.25281E-21
2.51504E-02 1.18390E-21
2.58382E-02 1.11963E-21
2.65349E-02 1.05961E-21
2.72407E-02 1.00352E-21
2.79555E-02 9.51051E-22
2.86793E-02 9.01934E-22
2.94120E-02 8.55915E-22
3.01537E-02 8.12763E-22
3.09043E-02 7.72267E-22
3.16639E-02 7.34235E-22
3.24324E-02 6.98491E-22
3.32098E-02 6.64872E-22
3.39961E-02 6.33228E-22
3.47912E-02 6.03424E-22
3.55952E-02 5.75333E-22
3.64081E-02 5.48839E-22
3.72297E-02 5.23836E-22
3.80602E-02 5.00223E-22
3.88995E-02 4.77911E-22
3.97476E-02 4.56814E-22
4.06044E-02 4.36854E-22
4.14700E-02 4.17959E-22
4.23443E-02 4.00063E-22
4.32273E-02 3.83102E-22
4.41190E-02 3.67020E-22
4.50194E-02 3.51762E-22
4.59284E-02 3.37278E-22
4.68461E-02 3.23523E-22
4.87074E-02 2.98028E-22
5.06030E-02 2.74964E-22
5.25328E-02 2.54060E-22
5.44967E-02 2.35081E-22
5.64946E-02 2.17817E-22
5.85262E-02 2.02089E-22
6.05914E-02 1.87735E-22
6.26901E-02 1.74616E-22
6.48222E-02 1.62606E-22
6.69873E-02 1.51597E-22
6.91854E-02 1.41491E-22
7.14163E-02 1.32200E-22
7.36799E-02 1.23648E-22
7.59760E-02 1.15766E-22
7.83043E-02 1.08492E-22
8.06647E-02 1.01771E-22
8.30571E-02 9.55547E-23
8.54812E-02 8.97978E-23
8.79369E-02 8.44608E-23
9.04240E-02 7.95077E-23
9.29422E-02 7.49062E-23
9.54915E-02 7.06268E-23
9.80716E-02 6.66433E-23
1.00682E-01 6.29316E-23
1.03323E-01 5.94700E-23
1.05995E-01 5.62387E-23
1.08696E-01 5.32198E-23
1.11427E-01 5.03968E-23
1.14188E-01 4.77549E-23
1.16978E-01 4.52803E-23
1.19797E-01 4.29607E-23
1.22645E-01 4.07847E-23
1.25522E-01 3.87419E-23
1.28428E-01 3.68226E-23
1.31361E-01 3.50182E-23
1.34323E-01 3.33206E-23
1.37313E-01 3.17222E-23
1.40330E-01 3.02164E-23
1.43375E-01 2.87968E-23
1.46447E-01 2.74577E-23
1.49545E-01 2.61937E-23
1.52671E-01 2.49999E-23
1.55823E-01 2.38716E-23
1.59001E-01 2.28047E-23
1.62205E-01 2.17952E-23
1.65435E-01 2.08395E-23
1.68690E-01 1.99342E-23
1.71970E-01 1.90763E-23
1.75276E-01 1.82628E-23
1.78606E-01 1.74910E-23
1.81961E-01 1.67585E-23
1.85340E-01 1.60628E-23
1.88743E-01 1.54018E-23
1.92169E-01 1.47735E-23
1.95619E-01 1.41759E-23
1.99092E-01 1.36073E-23
2.02589E-01 1.30661E-23
2.06107E-01 1.25507E-23
2.09649E-01 1.20597E-23
2.13212E-01 1.15917E-23
2.16797E-01 1.11454E-23
2.20404E-01 1.07197E-23
2.24032E-01 1.03134E-23
2.27680E-01 9.92557E-24
2.31350E-01 9.55516E-24
2.35040E-01 9.20126E-24
2.38751E-01 8.86302E-24
2.42481E-01 8.53960E-24
2.46231E-01 8.23026E-24
2.50000E-01 7.93428E-24
2.53788E-01 7.65098E-24
2.57595E-01 7.37972E-24
2.61421E-01 7.11991E-24
2.65264E-01 6.87099E-24
2.69126E-01 6.63240E-24
2.73005E-01 6.40366E-24
2.76901E-01 6.18428E-24
2.80814E-01 5.97381E-24
2.84744E-01 5.77184E-24
2.88691E-01 5.57796E-24
2.92653E-01 5.39179E-24
2.96632E-01 5.21297E-24
3.00625E-01 5.04117E-24
3.04634E-01 4.87606E-24
3.08658E-01 4.71733E-24
3.12697E-01 4.56469E-24
3.16749E-01 4.41788E-24
3.20816E-01 4.27663E-24
3.24896E-01 4.14070E-24
3.28990E-01 4.00985E-24
3.33097E-01 3.88385E-24
3.37216E-01 3.76251E-24
3.41348E-01 3.64561E-24
3.45492E-01 3.53297E-24
3.49647E-01 3.42441E-24
3.53814E-01 3.31975E-24
3.57992E-01 3.21883E-24
3.62181E-01 3.12149E-24
3.66381E-01 3.02759E-24
3.70590E-01 2.93699E-24
3.74810E-01 2.84953E-24
3.79039E-01 2.76511E-24
3.83277E-01 2.68359E-24
3.87524E-01 2.60487E-24
3.91780E-01 2.52882E-24
3.96044E-01 2.45535E-24
4.00316E-01 2.38435E-24
4.04596E-01 2.31572E-24
4.08882E-01 2.24937E-24
4.13176E-01 2.18522E-24
4.17476E-01 2.12317E-24
4.21783E-01 2.06315E-24
4.26095E-01 2.00508E-24
4.30413E-01 1.94889E-24
4.34737E-01 1.89450E-24
4.39065E-01 1.84185E-24
4.43398E-01 1.79088E-24
4.47736E-01 1.74151E-24
4.52077E-01 1.69370E-24
4.56422E-01 1.64738E-24
4.60770E-01 1.60251E-24
4.65122E-01 1.55902E-24
4.69476E-01 1.51687E-24
4.73832E-01 1.47602E-24
4.78190E-01 1.43640E-24
4.82550E-01 1.39799E-24
4.86912E-01 1.36074E-24
4.91274E-01 1.32460E-24
4.95637E-01 1.28955E-24
5.00000E-01 1.25553E-24
5.04363E-01 1.22252E-24
5.08726E-01 1.19049E-24
5.13088E-01 1.15939E-24
5.17450E-01 1.12919E-24
5.21810E-01 1.09988E-24
5.26168E-01 1.07140E-24
5.30524E-01 1.04375E-24
5.34878E-01 1.01689E-24
5.39230E-01 9.90788E-25
5.43578E-01 9.65429E-25
5.47923E-01 9.40784E-25
5.52264E-01 9.16832E-25
5.56602E-01 8.93548E-25
5.60935E-01 8.70913E-25
5.65263E-01 8.48904E-25
5.69587E-01 8.27502E-25
5.73905E-01 8.06688E-25
5.78217E-01 7.86443E-25
5.82524E-01 7.66748E-25
5.86824E-01 7.47588E-25
5.91118E-01 7.28944E-25
5.95404E-01 7.10802E-25
5.99684E-01 6.93145E-25
6.03956E-01 6.75959E-25
6.08220E-01 6.59228E-25
6.12476E-01 6.42941E-25
6.16723E-01 6.27082E-25
6.20961E-01 6.11639E-25
6.25190E-01 5.96599E-25
6.29410E-01 5.81950E-25
6.33619E-01 5.67682E-25
6.37819E-01 5.53781E-25
6.42008E-01 5.40238E-25
6.46186E-01 5.27043E-25
6.50353E-01 5.14184E-25
6.54508E-01 5.01652E-25
6.58652E-01 4.89437E-25
6.62784E-01 4.77532E-25
6.66903E-01 4.65925E-25
6.71010E-01 4.54610E-25
6.75104E-01 4.43577E-25
6.79184E-01 4.32819E-25
6.83251E-01 4.22328E-25
6.87303E-01 4.12096E-25
6.91342E-01 4.02116E-25
6.95366E-01 3.92382E-25
6.99375E-01 3.82886E-25
7.03368E-01 3.73621E-25
7.07347E-01 3.64582E-25
7.11309E-01 3.55763E-25
7.15256E-01 3.47156E-25
7.19186E-01 3.38757E-25
7.23099E-01 3.30560E-25
7.26995E-01 3.22559E-25
7.30874E-01 3.14749E-25
7.34736E-01 3.07125E-25
7.38579E-01 2.99683E-25
7.42405E-01 2.92416E-25
7.46212E-01 2.85322E-25
7.50000E-01 2.78394E-25
7.53769E-01 2.71630E-25
7.57519E-01 2.65024E-25
7.61249E-01 2.58572E-25
7.64960E-01 2.52271E-25
7.68650E-01 2.46117E-25
7.72320E-01 2.40106E-25
7.75968E-01 2.34233E-25
7.79596E-01 2.28497E-25
7.83203E-01 2.22893E-25
7.86788E-01 2.17418E-25
7.90351E-01 2.12069E-25
7.93893E-01 2.06842E-25
7.97411E-01 2.01735E-25
8.00908E-01 1.96745E-25
8.04381E-01 1.91868E-25
8.07831E-01 1.87103E-25
8.11257E-01 1.82446E-25
8.14660E-01 1.77895E-25
8.18039E-01 1.73447E-25
8.21394E-01 1.69099E-25
8.24724E-01 1.64850E-25
8.28030E-01 1.60697E-25
8.31310E-01 1.56638E-25
8.34565E-01 1.52670E-25
8.37795E-01 1.48792E-25
8.40999E-01 1.45001E-25
8.44177E-01 1.41295E-25
8.47329E-01 1.37673E-25
8.50455E-01 1.34132E-25
8.53553E-01 1.30671E-25
8.56625E-01 1.27287E-25
8.59670E-01 1.23979E-25
8.62687E-01 1.20746E-25
8.65677E-01 1.17586E-25
8.68639E-01 1.14496E-25
8.71572E-01 1.11476E-25
8.74478E-01 1.08524E-25
8.77355E-01 1.05638E-25
8.80203E-01 1.02818E-25
8.83022E-01 1.00061E-25
8.85812E-01 9.73664E-26
8.88573E-01 9.47328E-26
8.91304E-01 9.21589E-26
8.94005E-01 8.96434E-26
8.96677E-01 8.71851E-26
8.99318E-01 8.47828E-26
9.01928E-01 8.24355E-26
9.04508E-01 8.01419E-26
9.07058E-01 7.79010E-26
9.09576E-01 7.57117E-26
9.12063E-01 7.35730E-26
9.14519E-01 7.14839E-26
9.16943E-01 6.94434E-26
9.19335E-01 6.74505E-26
9.21696E-01 6.55044E-26
9.24024E-01 6.36042E-26
9.26320E-01 6.17490E-26
9.28584E-01 5.99379E-26
9.30815E-01 5.81701E-26
9.33013E-01 5.64448E-26
9.35178E-01 5.47613E-26
9.37310E-01 5.31187E-26
9.39409E-01 5.15164E-26
9.41474E-01 4.99537E-26
9.43505E-01 4.84298E-26
9.45503E-01 4.69440E-26
9.47467E-01 4.54958E-26
9.49397E-01 4.40845E-26
9.51293E-01 4.27094E-26
9.53154E-01 4.13700E-26
9.54981E-01 4.00657E-26
9.56773E-01 3.87959E-26
9.58530E-01 3.75601E-26
9.60252E-01 3.63578E-26
9.61940E-01 3.51884E-26
9.63592E-01 3.40514E-26
9.65209E-01 3.29463E-26
9.66790E-01 3.18727E-26
9.68336E-01 3.08302E-26
9.69846E-01 2.98182E-26
9.71321E-01 2.88364E-26
9.72759E-01 2.78843E-26
9.74162E-01 2.69616E-26
9.75528E-01 2.60679E-26
9.76858E-01 2.52027E-26
9.78152E-01 2.43658E-26
9.79410E-01 2.35567E-26
9.80631E-01 2.27753E-26
9.81815E-01 2.20210E-26
9.82963E-01 2.12937E-26
9.84074E-01 2.05930E-26
9.85148E-01 1.99186E-26
9.86185E-01 1.92703E-26
9.87185E-01 1.86478E-26
9.88148E-01 1.80508E-26
9.89074E-01 1.74791E-26
9.89962E-01 1.69325E-26
9.90814E-01 1.64108E-26
9.91627E-01 1.59136E-26
9.92404E-01 1.54410E-26
9.93143E-01 1.49925E-26
9.93844E-01 1.45681E-26
9.94508E-01 1.41676E-26
9.95134E-01 1.37909E-26
9.95722E-01 1.34377E-26
9.96273E-01 1.31080E-26
9.96786E-01 1.28016E-26
9.97261E-01 1.25183E-26
9.97698E-01 1.22582E-26
9.98097E-01 1.20210E-26
9.98459E-01 1.18066E-26
9.98782E-01 1.16151E-26
9.99067E-01 1.14463E-26
9.99315E-01 1.13001E-26
9.99524E-01 1.11765E-26
9.99695E-01 1.10755E-26
9.99829E-01 1.09969E-26
9.99924E-01 1.09408E-26
9.99981E-01 1.09072E-26
1.00000E+00 1.08960E-26
