 #
 # Subroutine ELSEPA. Elastic scattering of electrons and positrons
 #                    by neutral atoms and positive ions
 #
 # Projectile: positron
 # Kinetic energy = 7.00000E+06 eV = 2.57245E+05 a.u.
 #
 # WARNING: High-energy factorization with free-atom DF screening.
 #          Absorption, polarization and exchange corrections are
 #          switched off.
 #          Phase shifts are calculated for the bare nucleus.
 #          Scattering amplitudes are not evaluated.
 #
 # Element: Gd,  Z =  64,  atomic weight = 1.57250E+02 g/mol
 #
 # Nuclear model: Fermi distribution
 #                Average radius = 5.77538E-13 cm
 #                Skin thickness = 5.46000E-14 cm
 #
 # Number of electrons = 64
 #
 # Total elastic cross section = 7.42761E-18 cm**2 = 2.65245E-01 a0**2
 # 1st transport cross section = 9.67463E-23 cm**2 = 3.45487E-06 a0**2
 # 2nd transport cross section = 2.79262E-22 cm**2 = 9.97262E-06 a0**2
 #
 #
 # Differential cross section:                       MU=(1-COS(THETA))/2
 #
 #  THETA        MU          DCS          DCS        Sherman      error
 #  (deg)                 (cm**2/sr)   (a0**2/sr)    function
 #----------------------------------------------------------------------
0.00000E+00 4.84814E-12
7.61557E-13 4.84801E-12
1.18994E-12 4.84794E-12
1.71346E-12 4.84786E-12
2.33225E-12 4.84776E-12
3.04617E-12 4.84765E-12
3.85530E-12 4.84753E-12
4.75964E-12 4.84739E-12
5.75917E-12 4.84723E-12
6.85391E-12 4.84706E-12
8.04379E-12 4.84688E-12
9.32893E-12 4.84668E-12
1.07092E-11 4.84646E-12
1.21847E-11 4.84624E-12
1.37554E-11 4.84599E-12
1.54213E-11 4.84574E-12
1.71823E-11 4.84546E-12
1.90386E-11 4.84518E-12
2.09900E-11 4.84488E-12
2.30367E-11 4.84456E-12
2.51785E-11 4.84423E-12
2.74156E-11 4.84389E-12
2.97478E-11 4.84353E-12
3.21752E-11 4.84316E-12
3.46979E-11 4.84277E-12
3.73157E-11 4.84236E-12
4.00286E-11 4.84195E-12
4.28368E-11 4.84152E-12
4.57402E-11 4.84107E-12
4.87388E-11 4.84061E-12
5.18325E-11 4.84013E-12
5.50215E-11 4.83965E-12
5.83057E-11 4.83914E-12
6.16850E-11 4.83862E-12
6.51595E-11 4.83809E-12
6.87293E-11 4.83754E-12
7.23943E-11 4.83698E-12
7.61544E-11 4.83641E-12
1.18991E-10 4.82985E-12
1.71347E-10 4.82187E-12
2.33223E-10 4.81246E-12
3.04617E-10 4.80165E-12
3.85531E-10 4.78945E-12
4.75965E-10 4.77588E-12
5.75917E-10 4.76095E-12
6.85389E-10 4.74469E-12
8.04380E-10 4.72712E-12
9.32891E-10 4.70827E-12
1.07092E-09 4.68816E-12
1.21847E-09 4.66682E-12
1.37554E-09 4.64427E-12
1.54213E-09 4.62056E-12
1.71823E-09 4.59572E-12
1.90386E-09 4.56977E-12
2.09900E-09 4.54274E-12
2.30367E-09 4.51469E-12
2.51785E-09 4.48564E-12
2.74156E-09 4.45562E-12
2.97478E-09 4.42468E-12
3.21752E-09 4.39286E-12
3.46978E-09 4.36020E-12
3.73156E-09 4.32672E-12
4.00286E-09 4.29248E-12
4.28368E-09 4.25762E-12
4.57402E-09 4.22207E-12
4.87388E-09 4.18585E-12
5.18326E-09 4.14897E-12
5.50215E-09 4.11148E-12
5.83057E-09 4.07341E-12
6.16850E-09 4.03481E-12
6.51596E-09 3.99586E-12
6.87293E-09 3.95668E-12
7.23942E-09 3.91708E-12
7.61544E-09 3.87709E-12
1.18991E-08 3.46603E-12
1.71347E-08 3.05744E-12
2.33223E-08 2.67405E-12
3.04617E-08 2.32813E-12
3.85531E-08 2.02599E-12
4.75965E-08 1.76631E-12
5.75917E-08 1.54552E-12
6.85389E-08 1.35936E-12
8.04380E-08 1.20192E-12
9.32891E-08 1.06855E-12
1.07092E-07 9.54981E-13
1.21847E-07 8.57634E-13
1.37554E-07 7.73525E-13
1.54213E-07 7.00327E-13
1.71823E-07 6.36273E-13
1.90386E-07 5.79634E-13
2.09900E-07 5.29428E-13
2.30367E-07 4.84704E-13
2.51785E-07 4.44500E-13
2.74156E-07 4.08424E-13
2.97478E-07 3.75864E-13
3.21752E-07 3.46356E-13
3.46978E-07 3.19661E-13
3.73156E-07 2.95360E-13
4.00286E-07 2.73247E-13
4.28368E-07 2.51938E-13
4.57402E-07 2.32528E-13
4.87388E-07 2.15324E-13
5.18325E-07 2.00025E-13
5.50215E-07 1.86375E-13
5.83057E-07 1.74160E-13
6.16850E-07 1.63194E-13
6.51596E-07 1.52659E-13
6.87293E-07 1.42189E-13
7.23942E-07 1.32764E-13
7.61543E-07 1.24257E-13
1.18991E-06 6.84981E-14
1.71347E-06 4.07017E-14
2.33223E-06 2.55352E-14
3.04617E-06 1.67449E-14
3.85531E-06 1.13354E-14
4.75964E-06 7.92515E-15
5.75916E-06 5.70898E-15
6.85388E-06 4.22020E-15
8.04378E-06 3.19679E-15
9.32888E-06 2.47269E-15
1.07092E-05 1.94670E-15
1.21846E-05 1.55531E-15
1.37553E-05 1.25906E-15
1.54212E-05 1.03089E-15
1.71822E-05 8.52502E-16
1.90385E-05 7.10293E-16
2.09899E-05 5.96823E-16
2.30365E-05 5.04844E-16
2.51783E-05 4.29529E-16
2.74153E-05 3.67612E-16
2.97475E-05 3.16340E-16
3.21749E-05 2.73609E-16
3.46974E-05 2.37836E-16
3.73152E-05 2.07684E-16
4.00281E-05 1.82154E-16
4.28362E-05 1.60349E-16
4.57395E-05 1.41754E-16
4.87380E-05 1.25858E-16
5.18317E-05 1.12041E-16
5.50205E-05 1.00080E-16
5.83045E-05 8.97182E-17
6.16838E-05 8.06121E-17
6.51582E-05 7.26518E-17
6.87277E-05 6.56806E-17
7.23925E-05 5.94963E-17
7.61524E-05 5.40385E-17
9.21439E-05 3.75922E-17
1.09658E-04 2.69474E-17
1.28695E-04 1.98255E-17
1.49255E-04 1.49070E-17
1.71338E-04 1.14210E-17
1.94942E-04 8.89642E-18
2.20070E-04 7.03048E-18
2.46720E-04 5.62786E-18
2.74892E-04 4.55754E-18
3.04586E-04 3.72896E-18
3.35803E-04 3.07993E-18
3.68542E-04 2.56584E-18
4.02802E-04 2.15424E-18
4.38585E-04 1.82179E-18
4.75889E-04 1.55091E-18
5.14715E-04 1.32840E-18
5.55063E-04 1.14434E-18
5.96931E-04 9.91000E-19
6.40321E-04 8.62451E-19
6.85233E-04 7.54058E-19
7.31665E-04 6.62125E-19
7.79618E-04 5.83766E-19
8.29092E-04 5.16646E-19
8.80086E-04 4.58879E-19
9.32601E-04 4.08955E-19
9.86636E-04 3.65627E-19
1.04219E-03 3.27878E-19
1.09927E-03 2.94870E-19
1.15786E-03 2.65904E-19
1.21797E-03 2.40403E-19
1.27961E-03 2.17883E-19
1.34276E-03 1.97931E-19
1.40743E-03 1.80208E-19
1.47362E-03 1.64421E-19
1.54133E-03 1.50321E-19
1.61056E-03 1.37698E-19
1.68131E-03 1.26369E-19
1.75357E-03 1.16178E-19
1.82735E-03 1.06992E-19
1.90265E-03 9.86930E-20
1.97947E-03 9.11811E-20
2.05780E-03 8.43689E-20
2.13765E-03 7.81786E-20
2.21902E-03 7.25444E-20
2.30190E-03 6.74069E-20
2.38630E-03 6.27148E-20
2.47222E-03 5.84226E-20
2.55965E-03 5.44901E-20
2.64859E-03 5.08817E-20
2.73905E-03 4.75662E-20
2.83103E-03 4.45151E-20
2.92452E-03 4.17040E-20
3.01952E-03 3.91105E-20
3.11604E-03 3.67145E-20
3.21407E-03 3.44986E-20
3.31362E-03 3.24467E-20
3.41468E-03 3.05444E-20
3.51725E-03 2.87789E-20
3.62133E-03 2.71385E-20
3.72692E-03 2.56129E-20
3.83403E-03 2.41925E-20
3.94265E-03 2.28688E-20
4.05278E-03 2.16339E-20
4.16442E-03 2.04808E-20
4.27757E-03 1.94033E-20
4.39223E-03 1.83952E-20
4.50840E-03 1.74516E-20
4.62608E-03 1.65673E-20
4.74527E-03 1.57380E-20
4.86597E-03 1.49598E-20
4.98817E-03 1.42288E-20
5.11188E-03 1.35416E-20
5.23711E-03 1.28953E-20
5.36383E-03 1.22868E-20
5.49207E-03 1.17136E-20
5.62181E-03 1.11733E-20
5.75306E-03 1.06636E-20
5.88581E-03 1.01824E-20
6.02007E-03 9.72796E-21
6.15583E-03 9.29844E-21
6.29310E-03 8.89221E-21
6.43187E-03 8.50780E-21
6.57214E-03 8.14383E-21
6.71392E-03 7.79898E-21
6.85720E-03 7.47211E-21
7.00198E-03 7.16205E-21
7.14827E-03 6.86784E-21
7.29605E-03 6.58846E-21
7.44534E-03 6.32308E-21
7.59612E-03 6.07083E-21
7.97965E-03 5.49280E-21
8.37255E-03 4.98154E-21
8.77480E-03 4.52805E-21
9.18641E-03 4.12469E-21
9.60736E-03 3.76498E-21
1.00376E-02 3.44339E-21
1.04773E-02 3.15519E-21
1.09262E-02 2.89631E-21
1.13844E-02 2.66328E-21
1.18520E-02 2.45305E-21
1.23288E-02 2.26302E-21
1.28150E-02 2.09091E-21
1.33104E-02 1.93473E-21
1.38150E-02 1.79276E-21
1.43290E-02 1.66348E-21
1.48521E-02 1.54555E-21
1.53845E-02 1.43781E-21
1.59262E-02 1.33922E-21
1.64770E-02 1.24888E-21
1.70371E-02 1.16596E-21
1.76063E-02 1.08976E-21
1.81848E-02 1.01962E-21
1.87724E-02 9.54997E-22
1.93692E-02 8.95365E-22
1.99751E-02 8.40276E-22
2.05901E-02 7.89321E-22
2.12143E-02 7.42136E-22
2.18476E-02 6.98394E-22
2.24900E-02 6.57797E-22
2.31415E-02 6.20081E-22
2.38021E-02 5.85004E-22
2.44717E-02 5.52348E-22
2.51504E-02 5.21918E-22
2.58382E-02 4.93534E-22
2.65349E-02 4.67035E-22
2.72407E-02 4.42272E-22
2.79555E-02 4.19113E-22
2.86793E-02 3.97434E-22
2.94120E-02 3.77125E-22
3.01537E-02 3.58083E-22
3.09043E-02 3.40215E-22
3.16639E-02 3.23435E-22
3.24324E-02 3.07667E-22
3.32098E-02 2.92836E-22
3.39961E-02 2.78879E-22
3.47912E-02 2.65734E-22
3.55952E-02 2.53346E-22
3.64081E-02 2.41663E-22
3.72297E-02 2.30638E-22
3.80602E-02 2.20228E-22
3.88995E-02 2.10391E-22
3.97476E-02 2.01091E-22
4.06044E-02 1.92293E-22
4.14700E-02 1.83964E-22
4.23443E-02 1.76077E-22
4.32273E-02 1.68602E-22
4.41190E-02 1.61515E-22
4.50194E-02 1.54791E-22
4.59284E-02 1.48409E-22
4.68461E-02 1.42349E-22
4.87074E-02 1.31117E-22
5.06030E-02 1.20957E-22
5.25328E-02 1.11750E-22
5.44967E-02 1.03391E-22
5.64946E-02 9.57886E-23
5.85262E-02 8.88630E-23
6.05914E-02 8.25434E-23
6.26901E-02 7.67677E-23
6.48222E-02 7.14812E-23
6.69873E-02 6.66355E-23
6.91854E-02 6.21874E-23
7.14163E-02 5.80986E-23
7.36799E-02 5.43352E-23
7.59760E-02 5.08669E-23
7.83043E-02 4.76665E-23
8.06647E-02 4.47099E-23
8.30571E-02 4.19751E-23
8.54812E-02 3.94427E-23
8.79369E-02 3.70952E-23
9.04240E-02 3.49167E-23
9.29422E-02 3.28930E-23
9.54915E-02 3.10111E-23
9.80716E-02 2.92594E-23
1.00682E-01 2.76274E-23
1.03323E-01 2.61054E-23
1.05995E-01 2.46848E-23
1.08696E-01 2.33577E-23
1.11427E-01 2.21167E-23
1.14188E-01 2.09554E-23
1.16978E-01 1.98678E-23
1.19797E-01 1.88483E-23
1.22645E-01 1.78920E-23
1.25522E-01 1.69943E-23
1.28428E-01 1.61510E-23
1.31361E-01 1.53581E-23
1.34323E-01 1.46122E-23
1.37313E-01 1.39100E-23
1.40330E-01 1.32485E-23
1.43375E-01 1.26249E-23
1.46447E-01 1.20367E-23
1.49545E-01 1.14815E-23
1.52671E-01 1.09572E-23
1.55823E-01 1.04616E-23
1.59001E-01 9.99309E-24
1.62205E-01 9.54981E-24
1.65435E-01 9.13017E-24
1.68690E-01 8.73270E-24
1.71970E-01 8.35604E-24
1.75276E-01 7.99891E-24
1.78606E-01 7.66011E-24
1.81961E-01 7.33854E-24
1.85340E-01 7.03317E-24
1.88743E-01 6.74305E-24
1.92169E-01 6.46729E-24
1.95619E-01 6.20505E-24
1.99092E-01 5.95554E-24
2.02589E-01 5.71806E-24
2.06107E-01 5.49192E-24
2.09649E-01 5.27648E-24
2.13212E-01 5.07115E-24
2.16797E-01 4.87538E-24
2.20404E-01 4.68864E-24
2.24032E-01 4.51044E-24
2.27680E-01 4.34033E-24
2.31350E-01 4.17787E-24
2.35040E-01 4.02267E-24
2.38751E-01 3.87434E-24
2.42481E-01 3.73253E-24
2.46231E-01 3.59689E-24
2.50000E-01 3.46713E-24
2.53788E-01 3.34293E-24
2.57595E-01 3.22402E-24
2.61421E-01 3.11013E-24
2.65264E-01 3.00102E-24
2.69126E-01 2.89645E-24
2.73005E-01 2.79620E-24
2.76901E-01 2.70006E-24
2.80814E-01 2.60784E-24
2.84744E-01 2.51934E-24
2.88691E-01 2.43440E-24
2.92653E-01 2.35284E-24
2.96632E-01 2.27450E-24
3.00625E-01 2.19924E-24
3.04634E-01 2.12692E-24
3.08658E-01 2.05740E-24
3.12697E-01 1.99056E-24
3.16749E-01 1.92627E-24
3.20816E-01 1.86442E-24
3.24896E-01 1.80490E-24
3.28990E-01 1.74761E-24
3.33097E-01 1.69245E-24
3.37216E-01 1.63933E-24
3.41348E-01 1.58816E-24
3.45492E-01 1.53886E-24
3.49647E-01 1.49135E-24
3.53814E-01 1.44555E-24
3.57992E-01 1.40139E-24
3.62181E-01 1.35880E-24
3.66381E-01 1.31771E-24
3.70590E-01 1.27807E-24
3.74810E-01 1.23982E-24
3.79039E-01 1.20289E-24
3.83277E-01 1.16724E-24
3.87524E-01 1.13281E-24
3.91780E-01 1.09955E-24
3.96044E-01 1.06742E-24
4.00316E-01 1.03638E-24
4.04596E-01 1.00637E-24
4.08882E-01 9.77370E-25
4.13176E-01 9.49326E-25
4.17476E-01 9.22206E-25
4.21783E-01 8.95975E-25
4.26095E-01 8.70598E-25
4.30413E-01 8.46043E-25
4.34737E-01 8.22276E-25
4.39065E-01 7.99270E-25
4.43398E-01 7.76998E-25
4.47736E-01 7.55431E-25
4.52077E-01 7.34544E-25
4.56422E-01 7.14313E-25
4.60770E-01 6.94712E-25
4.65122E-01 6.75720E-25
4.69476E-01 6.57314E-25
4.73832E-01 6.39474E-25
4.78190E-01 6.22178E-25
4.82550E-01 6.05409E-25
4.86912E-01 5.89146E-25
4.91274E-01 5.73373E-25
4.95637E-01 5.58073E-25
5.00000E-01 5.43228E-25
5.04363E-01 5.28824E-25
5.08726E-01 5.14845E-25
5.13088E-01 5.01276E-25
5.17450E-01 4.88104E-25
5.21810E-01 4.75315E-25
5.26168E-01 4.62897E-25
5.30524E-01 4.50836E-25
5.34878E-01 4.39121E-25
5.39230E-01 4.27741E-25
5.43578E-01 4.16684E-25
5.47923E-01 4.05940E-25
5.52264E-01 3.95498E-25
5.56602E-01 3.85350E-25
5.60935E-01 3.75484E-25
5.65263E-01 3.65893E-25
5.69587E-01 3.56567E-25
5.73905E-01 3.47498E-25
5.78217E-01 3.38678E-25
5.82524E-01 3.30099E-25
5.86824E-01 3.21753E-25
5.91118E-01 3.13633E-25
5.95404E-01 3.05732E-25
5.99684E-01 2.98043E-25
6.03956E-01 2.90560E-25
6.08220E-01 2.83277E-25
6.12476E-01 2.76186E-25
6.16723E-01 2.69283E-25
6.20961E-01 2.62562E-25
6.25190E-01 2.56017E-25
6.29410E-01 2.49643E-25
6.33619E-01 2.43435E-25
6.37819E-01 2.37388E-25
6.42008E-01 2.31497E-25
6.46186E-01 2.25757E-25
6.50353E-01 2.20164E-25
6.54508E-01 2.14715E-25
6.58652E-01 2.09404E-25
6.62784E-01 2.04227E-25
6.66903E-01 1.99182E-25
6.71010E-01 1.94263E-25
6.75104E-01 1.89468E-25
6.79184E-01 1.84793E-25
6.83251E-01 1.80234E-25
6.87303E-01 1.75788E-25
6.91342E-01 1.71453E-25
6.95366E-01 1.67224E-25
6.99375E-01 1.63099E-25
7.03368E-01 1.59076E-25
7.07347E-01 1.55150E-25
7.11309E-01 1.51321E-25
7.15256E-01 1.47584E-25
7.19186E-01 1.43938E-25
7.23099E-01 1.40380E-25
7.26995E-01 1.36907E-25
7.30874E-01 1.33518E-25
7.34736E-01 1.30210E-25
7.38579E-01 1.26980E-25
7.42405E-01 1.23828E-25
7.46212E-01 1.20750E-25
7.50000E-01 1.17746E-25
7.53769E-01 1.14812E-25
7.57519E-01 1.11947E-25
7.61249E-01 1.09150E-25
7.64960E-01 1.06418E-25
7.68650E-01 1.03750E-25
7.72320E-01 1.01145E-25
7.75968E-01 9.85995E-26
7.79596E-01 9.61135E-26
7.83203E-01 9.36852E-26
7.86788E-01 9.13131E-26
7.90351E-01 8.89957E-26
7.93893E-01 8.67317E-26
7.97411E-01 8.45197E-26
8.00908E-01 8.23586E-26
8.04381E-01 8.02469E-26
8.07831E-01 7.81836E-26
8.11257E-01 7.61675E-26
8.14660E-01 7.41973E-26
8.18039E-01 7.22720E-26
8.21394E-01 7.03905E-26
8.24724E-01 6.85517E-26
8.28030E-01 6.67547E-26
8.31310E-01 6.49985E-26
8.34565E-01 6.32820E-26
8.37795E-01 6.16044E-26
8.40999E-01 5.99647E-26
8.44177E-01 5.83621E-26
8.47329E-01 5.67957E-26
8.50455E-01 5.52647E-26
8.53553E-01 5.37683E-26
8.56625E-01 5.23056E-26
8.59670E-01 5.08759E-26
8.62687E-01 4.94785E-26
8.65677E-01 4.81127E-26
8.68639E-01 4.67777E-26
8.71572E-01 4.54728E-26
8.74478E-01 4.41975E-26
8.77355E-01 4.29510E-26
8.80203E-01 4.17327E-26
8.83022E-01 4.05421E-26
8.85812E-01 3.93785E-26
8.88573E-01 3.82413E-26
8.91304E-01 3.71300E-26
8.94005E-01 3.60440E-26
8.96677E-01 3.49829E-26
8.99318E-01 3.39460E-26
9.01928E-01 3.29329E-26
9.04508E-01 3.19431E-26
9.07058E-01 3.09762E-26
9.09576E-01 3.00316E-26
9.12063E-01 2.91089E-26
9.14519E-01 2.82077E-26
9.16943E-01 2.73276E-26
9.19335E-01 2.64681E-26
9.21696E-01 2.56288E-26
9.24024E-01 2.48094E-26
9.26320E-01 2.40094E-26
9.28584E-01 2.32286E-26
9.30815E-01 2.24665E-26
9.33013E-01 2.17228E-26
9.35178E-01 2.09971E-26
9.37310E-01 2.02892E-26
9.39409E-01 1.95987E-26
9.41474E-01 1.89252E-26
9.43505E-01 1.82686E-26
9.45503E-01 1.76285E-26
9.47467E-01 1.70046E-26
9.49397E-01 1.63966E-26
9.51293E-01 1.58043E-26
9.53154E-01 1.52274E-26
9.54981E-01 1.46656E-26
9.56773E-01 1.41188E-26
9.58530E-01 1.35866E-26
9.60252E-01 1.30689E-26
9.61940E-01 1.25654E-26
9.63592E-01 1.20759E-26
9.65209E-01 1.16002E-26
9.66790E-01 1.11380E-26
9.68336E-01 1.06893E-26
9.69846E-01 1.02537E-26
9.71321E-01 9.83116E-27
9.72759E-01 9.42144E-27
9.74162E-01 9.02437E-27
9.75528E-01 8.63978E-27
9.76858E-01 8.26752E-27
9.78152E-01 7.90743E-27
9.79410E-01 7.55936E-27
9.80631E-01 7.22316E-27
9.81815E-01 6.89869E-27
9.82963E-01 6.58582E-27
9.84074E-01 6.28442E-27
9.85148E-01 5.99436E-27
9.86185E-01 5.71552E-27
9.87185E-01 5.44778E-27
9.88148E-01 5.19104E-27
9.89074E-01 4.94520E-27
9.89962E-01 4.71014E-27
9.90814E-01 4.48578E-27
9.91627E-01 4.27201E-27
9.92404E-01 4.06877E-27
9.93143E-01 3.87595E-27
9.93844E-01 3.69348E-27
9.94508E-01 3.52130E-27
9.95134E-01 3.35932E-27
9.95722E-01 3.20748E-27
9.96273E-01 3.06573E-27
9.96786E-01 2.93400E-27
9.97261E-01 2.81223E-27
9.97698E-01 2.70039E-27
9.98097E-01 2.59843E-27
9.98459E-01 2.50630E-27
9.98782E-01 2.42396E-27
9.99067E-01 2.35140E-27
9.99315E-01 2.28856E-27
9.99524E-01 2.23544E-27
9.99695E-01 2.19200E-27
9.99829E-01 2.15823E-27
9.99924E-01 2.13413E-27
9.99981E-01 2.11966E-27
1.00000E+00 2.11484E-27
