 #
 # Subroutine ELSEPA. Elastic scattering of electrons and positrons
 #                    by neutral atoms and positive ions
 #
 # Projectile: positron
 # Kinetic energy = 8.00000E+06 eV = 2.93995E+05 a.u.
 #
 # WARNING: High-energy factorization with free-atom DF screening.
 #          Absorption, polarization and exchange corrections are
 #          switched off.
 #          Phase shifts are calculated for the bare nucleus.
 #          Scattering amplitudes are not evaluated.
 #
 # Element: Gd,  Z =  64,  atomic weight = 1.57250E+02 g/mol
 #
 # Nuclear model: Fermi distribution
 #                Average radius = 5.77538E-13 cm
 #                Skin thickness = 5.46000E-14 cm
 #
 # Number of electrons = 64
 #
 # Total elastic cross section = 7.42101E-18 cm**2 = 2.65009E-01 a0**2
 # 1st transport cross section = 7.70177E-23 cm**2 = 2.75035E-06 a0**2
 # 2nd transport cross section = 2.22551E-22 cm**2 = 7.94743E-06 a0**2
 #
 #
 # Differential cross section:                       MU=(1-COS(THETA))/2
 #
 #  THETA        MU          DCS          DCS        Sherman      error
 #  (deg)                 (cm**2/sr)   (a0**2/sr)    function
 #----------------------------------------------------------------------
0.00000E+00 6.22501E-12
7.61557E-13 6.22481E-12
1.18994E-12 6.22470E-12
1.71346E-12 6.22456E-12
2.33225E-12 6.22441E-12
3.04617E-12 6.22422E-12
3.85530E-12 6.22401E-12
4.75964E-12 6.22378E-12
5.75917E-12 6.22353E-12
6.85391E-12 6.22325E-12
8.04379E-12 6.22294E-12
9.32893E-12 6.22262E-12
1.07092E-11 6.22226E-12
1.21847E-11 6.22189E-12
1.37554E-11 6.22149E-12
1.54213E-11 6.22107E-12
1.71823E-11 6.22062E-12
1.90386E-11 6.22015E-12
2.09900E-11 6.21965E-12
2.30367E-11 6.21913E-12
2.51785E-11 6.21859E-12
2.74156E-11 6.21802E-12
2.97478E-11 6.21743E-12
3.21752E-11 6.21681E-12
3.46979E-11 6.21617E-12
3.73157E-11 6.21551E-12
4.00286E-11 6.21482E-12
4.28368E-11 6.21411E-12
4.57402E-11 6.21338E-12
4.87388E-11 6.21262E-12
5.18325E-11 6.21183E-12
5.50215E-11 6.21103E-12
5.83057E-11 6.21020E-12
6.16850E-11 6.20934E-12
6.51595E-11 6.20847E-12
6.87293E-11 6.20756E-12
7.23943E-11 6.20664E-12
7.61544E-11 6.20569E-12
1.18991E-10 6.19490E-12
1.71347E-10 6.18175E-12
2.33223E-10 6.16628E-12
3.04617E-10 6.14852E-12
3.85531E-10 6.12849E-12
4.75965E-10 6.10623E-12
5.75917E-10 6.08179E-12
6.85389E-10 6.05521E-12
8.04380E-10 6.02653E-12
9.32891E-10 5.99581E-12
1.07092E-09 5.96311E-12
1.21847E-09 5.92847E-12
1.37554E-09 5.89197E-12
1.54213E-09 5.85366E-12
1.71823E-09 5.81360E-12
1.90386E-09 5.77187E-12
2.09900E-09 5.72854E-12
2.30367E-09 5.68367E-12
2.51785E-09 5.63734E-12
2.74156E-09 5.58962E-12
2.97478E-09 5.54058E-12
3.21752E-09 5.49034E-12
3.46978E-09 5.43907E-12
3.73156E-09 5.38665E-12
4.00286E-09 5.33314E-12
4.28368E-09 5.27862E-12
4.57402E-09 5.22315E-12
4.87388E-09 5.16680E-12
5.18326E-09 5.11004E-12
5.50215E-09 5.05271E-12
5.83057E-09 4.99471E-12
6.16850E-09 4.93610E-12
6.51596E-09 4.87695E-12
6.87293E-09 4.81733E-12
7.23942E-09 4.75746E-12
7.61544E-09 4.69778E-12
1.18991E-08 4.09738E-12
1.71347E-08 3.52727E-12
2.33223E-08 3.01630E-12
3.04617E-08 2.57649E-12
3.85531E-08 2.20620E-12
4.75965E-08 1.89953E-12
5.75917E-08 1.64590E-12
6.85389E-08 1.43646E-12
8.04380E-08 1.26222E-12
9.32891E-08 1.11618E-12
1.07092E-07 9.92657E-13
1.21847E-07 8.87151E-13
1.37554E-07 7.96180E-13
1.54213E-07 7.17187E-13
1.71823E-07 6.47913E-13
1.90386E-07 5.87032E-13
2.09900E-07 5.32937E-13
2.30367E-07 4.84977E-13
2.51785E-07 4.42039E-13
2.74156E-07 4.03687E-13
2.97478E-07 3.69222E-13
3.21752E-07 3.37832E-13
3.46978E-07 3.07934E-13
3.73156E-07 2.81899E-13
4.00286E-07 2.59129E-13
4.28368E-07 2.39131E-13
4.57402E-07 2.21497E-13
4.87388E-07 2.05887E-13
5.18325E-07 1.90306E-13
5.50215E-07 1.75816E-13
5.83057E-07 1.62934E-13
6.16850E-07 1.51443E-13
6.51596E-07 1.41162E-13
6.87293E-07 1.31934E-13
7.23942E-07 1.23371E-13
7.61543E-07 1.14917E-13
1.18991E-06 6.16167E-14
1.71347E-06 3.58401E-14
2.33223E-06 2.20580E-14
3.04617E-06 1.41818E-14
3.85531E-06 9.50316E-15
4.75964E-06 6.60068E-15
5.75916E-06 4.74357E-15
6.85388E-06 3.50669E-15
8.04378E-06 2.65853E-15
9.32888E-06 2.05411E-15
1.07092E-05 1.61527E-15
1.21846E-05 1.28887E-15
1.37553E-05 1.04098E-15
1.54212E-05 8.49554E-16
1.71822E-05 6.99518E-16
1.90385E-05 5.80693E-16
2.09899E-05 4.86175E-16
2.30365E-05 4.10022E-16
2.51783E-05 3.47968E-16
2.74153E-05 2.97092E-16
2.97475E-05 2.55063E-16
3.21749E-05 2.20147E-16
3.46974E-05 1.90932E-16
3.73152E-05 1.66571E-16
4.00281E-05 1.45945E-16
4.28362E-05 1.28410E-16
4.57395E-05 1.13508E-16
4.87380E-05 1.00612E-16
5.18317E-05 8.95390E-17
5.50205E-05 7.99487E-17
5.83045E-05 7.15935E-17
6.16838E-05 6.43311E-17
6.51582E-05 5.79452E-17
6.87277E-05 5.23455E-17
7.23925E-05 4.74154E-17
7.61524E-05 4.30411E-17
9.21439E-05 2.98925E-17
1.09658E-04 2.13952E-17
1.28695E-04 1.57171E-17
1.49255E-04 1.17989E-17
1.71338E-04 9.02795E-18
1.94942E-04 7.02253E-18
2.20070E-04 5.54286E-18
2.46720E-04 4.43229E-18
2.74892E-04 3.58546E-18
3.04586E-04 2.93122E-18
3.35803E-04 2.41908E-18
3.68542E-04 2.01389E-18
4.02802E-04 1.68985E-18
4.38585E-04 1.42833E-18
4.75889E-04 1.21540E-18
5.14715E-04 1.04064E-18
5.55063E-04 8.96137E-19
5.96931E-04 7.75827E-19
6.40321E-04 6.75021E-19
6.85233E-04 5.90040E-19
7.31665E-04 5.18007E-19
7.79618E-04 4.56617E-19
8.29092E-04 4.04049E-19
8.80086E-04 3.58818E-19
9.32601E-04 3.19735E-19
9.86636E-04 2.85822E-19
1.04219E-03 2.56281E-19
1.09927E-03 2.30454E-19
1.15786E-03 2.07792E-19
1.21797E-03 1.87845E-19
1.27961E-03 1.70228E-19
1.34276E-03 1.54626E-19
1.40743E-03 1.40766E-19
1.47362E-03 1.28422E-19
1.54133E-03 1.17398E-19
1.61056E-03 1.07529E-19
1.68131E-03 9.86730E-20
1.75357E-03 9.07076E-20
1.82735E-03 8.35277E-20
1.90265E-03 7.70421E-20
1.97947E-03 7.11722E-20
2.05780E-03 6.58488E-20
2.13765E-03 6.10125E-20
2.21902E-03 5.66106E-20
2.30190E-03 5.25973E-20
2.38630E-03 4.89321E-20
2.47222E-03 4.55796E-20
2.55965E-03 4.25082E-20
2.64859E-03 3.96903E-20
2.73905E-03 3.71012E-20
2.83103E-03 3.47189E-20
2.92452E-03 3.25240E-20
3.01952E-03 3.04992E-20
3.11604E-03 2.86288E-20
3.21407E-03 2.68990E-20
3.31362E-03 2.52974E-20
3.41468E-03 2.38127E-20
3.51725E-03 2.24349E-20
3.62133E-03 2.11548E-20
3.72692E-03 1.99643E-20
3.83403E-03 1.88561E-20
3.94265E-03 1.78232E-20
4.05278E-03 1.68599E-20
4.16442E-03 1.59604E-20
4.27757E-03 1.51198E-20
4.39223E-03 1.43336E-20
4.50840E-03 1.35976E-20
4.62608E-03 1.29079E-20
4.74527E-03 1.22613E-20
4.86597E-03 1.16543E-20
4.98817E-03 1.10843E-20
5.11188E-03 1.05486E-20
5.23711E-03 1.00446E-20
5.36383E-03 9.57022E-21
5.49207E-03 9.12335E-21
5.62181E-03 8.70213E-21
5.75306E-03 8.30482E-21
5.88581E-03 7.92978E-21
6.02007E-03 7.57556E-21
6.15583E-03 7.24079E-21
6.29310E-03 6.92420E-21
6.43187E-03 6.62463E-21
6.57214E-03 6.34098E-21
6.71392E-03 6.07226E-21
6.85720E-03 5.81756E-21
7.00198E-03 5.57597E-21
7.14827E-03 5.34673E-21
7.29605E-03 5.12907E-21
7.44534E-03 4.92231E-21
7.59612E-03 4.72581E-21
7.97965E-03 4.27551E-21
8.37255E-03 3.87729E-21
8.77480E-03 3.52409E-21
9.18641E-03 3.20997E-21
9.60736E-03 2.92985E-21
1.00376E-02 2.67944E-21
1.04773E-02 2.45505E-21
1.09262E-02 2.25351E-21
1.13844E-02 2.07209E-21
1.18520E-02 1.90844E-21
1.23288E-02 1.76052E-21
1.28150E-02 1.62656E-21
1.33104E-02 1.50500E-21
1.38150E-02 1.39451E-21
1.43290E-02 1.29390E-21
1.48521E-02 1.20213E-21
1.53845E-02 1.11830E-21
1.59262E-02 1.04158E-21
1.64770E-02 9.71286E-22
1.70371E-02 9.06772E-22
1.76063E-02 8.47482E-22
1.81848E-02 7.92920E-22
1.87724E-02 7.42643E-22
1.93692E-02 6.96253E-22
1.99751E-02 6.53397E-22
2.05901E-02 6.13760E-22
2.12143E-02 5.77057E-22
2.18476E-02 5.43032E-22
2.24900E-02 5.11455E-22
2.31415E-02 4.82119E-22
2.38021E-02 4.54837E-22
2.44717E-02 4.29439E-22
2.51504E-02 4.05772E-22
2.58382E-02 3.83697E-22
2.65349E-02 3.63088E-22
2.72407E-02 3.43831E-22
2.79555E-02 3.25821E-22
2.86793E-02 3.08962E-22
2.94120E-02 2.93169E-22
3.01537E-02 2.78361E-22
3.09043E-02 2.64467E-22
3.16639E-02 2.51419E-22
3.24324E-02 2.39158E-22
3.32098E-02 2.27626E-22
3.39961E-02 2.16774E-22
3.47912E-02 2.06553E-22
3.55952E-02 1.96921E-22
3.64081E-02 1.87837E-22
3.72297E-02 1.79266E-22
3.80602E-02 1.71171E-22
3.88995E-02 1.63523E-22
3.97476E-02 1.56293E-22
4.06044E-02 1.49452E-22
4.14700E-02 1.42978E-22
4.23443E-02 1.36845E-22
4.32273E-02 1.31034E-22
4.41190E-02 1.25525E-22
4.50194E-02 1.20298E-22
4.59284E-02 1.15337E-22
4.68461E-02 1.10625E-22
4.87074E-02 1.01894E-22
5.06030E-02 9.39958E-23
5.25328E-02 8.68388E-23
5.44967E-02 8.03413E-23
5.64946E-02 7.44320E-23
5.85262E-02 6.90486E-23
6.05914E-02 6.41366E-23
6.26901E-02 5.96476E-23
6.48222E-02 5.55387E-23
6.69873E-02 5.17724E-23
6.91854E-02 4.83152E-23
7.14163E-02 4.51375E-23
7.36799E-02 4.22127E-23
7.59760E-02 3.95172E-23
7.83043E-02 3.70299E-23
8.06647E-02 3.47322E-23
8.30571E-02 3.26070E-23
8.54812E-02 3.06390E-23
8.79369E-02 2.88147E-23
9.04240E-02 2.71219E-23
9.29422E-02 2.55493E-23
9.54915E-02 2.40870E-23
9.80716E-02 2.27258E-23
1.00682E-01 2.14577E-23
1.03323E-01 2.02751E-23
1.05995E-01 1.91713E-23
1.08696E-01 1.81400E-23
1.11427E-01 1.71758E-23
1.14188E-01 1.62736E-23
1.16978E-01 1.54285E-23
1.19797E-01 1.46365E-23
1.22645E-01 1.38935E-23
1.25522E-01 1.31960E-23
1.28428E-01 1.25408E-23
1.31361E-01 1.19249E-23
1.34323E-01 1.13454E-23
1.37313E-01 1.07999E-23
1.40330E-01 1.02860E-23
1.43375E-01 9.80156E-24
1.46447E-01 9.34463E-24
1.49545E-01 8.91336E-24
1.52671E-01 8.50604E-24
1.55823E-01 8.12112E-24
1.59001E-01 7.75718E-24
1.62205E-01 7.41285E-24
1.65435E-01 7.08690E-24
1.68690E-01 6.77818E-24
1.71970E-01 6.48563E-24
1.75276E-01 6.20824E-24
1.78606E-01 5.94510E-24
1.81961E-01 5.69535E-24
1.85340E-01 5.45819E-24
1.88743E-01 5.23287E-24
1.92169E-01 5.01871E-24
1.95619E-01 4.81505E-24
1.99092E-01 4.62129E-24
2.02589E-01 4.43687E-24
2.06107E-01 4.26126E-24
2.09649E-01 4.09396E-24
2.13212E-01 3.93451E-24
2.16797E-01 3.78249E-24
2.20404E-01 3.63749E-24
2.24032E-01 3.49912E-24
2.27680E-01 3.36704E-24
2.31350E-01 3.24090E-24
2.35040E-01 3.12039E-24
2.38751E-01 3.00523E-24
2.42481E-01 2.89513E-24
2.46231E-01 2.78982E-24
2.50000E-01 2.68908E-24
2.53788E-01 2.59265E-24
2.57595E-01 2.50034E-24
2.61421E-01 2.41193E-24
2.65264E-01 2.32723E-24
2.69126E-01 2.24605E-24
2.73005E-01 2.16824E-24
2.76901E-01 2.09361E-24
2.80814E-01 2.02202E-24
2.84744E-01 1.95333E-24
2.88691E-01 1.88740E-24
2.92653E-01 1.82410E-24
2.96632E-01 1.76330E-24
3.00625E-01 1.70489E-24
3.04634E-01 1.64876E-24
3.08658E-01 1.59480E-24
3.12697E-01 1.54293E-24
3.16749E-01 1.49304E-24
3.20816E-01 1.44504E-24
3.24896E-01 1.39885E-24
3.28990E-01 1.35440E-24
3.33097E-01 1.31160E-24
3.37216E-01 1.27038E-24
3.41348E-01 1.23067E-24
3.45492E-01 1.19241E-24
3.49647E-01 1.15555E-24
3.53814E-01 1.12000E-24
3.57992E-01 1.08574E-24
3.62181E-01 1.05269E-24
3.66381E-01 1.02081E-24
3.70590E-01 9.90058E-25
3.74810E-01 9.60377E-25
3.79039E-01 9.31727E-25
3.83277E-01 9.04067E-25
3.87524E-01 8.77357E-25
3.91780E-01 8.51558E-25
3.96044E-01 8.26634E-25
4.00316E-01 8.02551E-25
4.04596E-01 7.79276E-25
4.08882E-01 7.56778E-25
4.13176E-01 7.35025E-25
4.17476E-01 7.13989E-25
4.21783E-01 6.93643E-25
4.26095E-01 6.73960E-25
4.30413E-01 6.54916E-25
4.34737E-01 6.36485E-25
4.39065E-01 6.18646E-25
4.43398E-01 6.01376E-25
4.47736E-01 5.84653E-25
4.52077E-01 5.68459E-25
4.56422E-01 5.52772E-25
4.60770E-01 5.37576E-25
4.65122E-01 5.22851E-25
4.69476E-01 5.08582E-25
4.73832E-01 4.94751E-25
4.78190E-01 4.81343E-25
4.82550E-01 4.68343E-25
4.86912E-01 4.55737E-25
4.91274E-01 4.43511E-25
4.95637E-01 4.31651E-25
5.00000E-01 4.20145E-25
5.04363E-01 4.08980E-25
5.08726E-01 3.98146E-25
5.13088E-01 3.87630E-25
5.17450E-01 3.77421E-25
5.21810E-01 3.67510E-25
5.26168E-01 3.57886E-25
5.30524E-01 3.48540E-25
5.34878E-01 3.39462E-25
5.39230E-01 3.30644E-25
5.43578E-01 3.22076E-25
5.47923E-01 3.13752E-25
5.52264E-01 3.05662E-25
5.56602E-01 2.97799E-25
5.60935E-01 2.90155E-25
5.65263E-01 2.82725E-25
5.69587E-01 2.75500E-25
5.73905E-01 2.68474E-25
5.78217E-01 2.61642E-25
5.82524E-01 2.54996E-25
5.86824E-01 2.48532E-25
5.91118E-01 2.42242E-25
5.95404E-01 2.36123E-25
5.99684E-01 2.30168E-25
6.03956E-01 2.24372E-25
6.08220E-01 2.18731E-25
6.12476E-01 2.13240E-25
6.16723E-01 2.07895E-25
6.20961E-01 2.02690E-25
6.25190E-01 1.97622E-25
6.29410E-01 1.92686E-25
6.33619E-01 1.87879E-25
6.37819E-01 1.83197E-25
6.42008E-01 1.78636E-25
6.46186E-01 1.74192E-25
6.50353E-01 1.69863E-25
6.54508E-01 1.65644E-25
6.58652E-01 1.61532E-25
6.62784E-01 1.57525E-25
6.66903E-01 1.53620E-25
6.71010E-01 1.49812E-25
6.75104E-01 1.46101E-25
6.79184E-01 1.42482E-25
6.83251E-01 1.38954E-25
6.87303E-01 1.35513E-25
6.91342E-01 1.32158E-25
6.95366E-01 1.28886E-25
6.99375E-01 1.25694E-25
7.03368E-01 1.22580E-25
7.07347E-01 1.19543E-25
7.11309E-01 1.16580E-25
7.15256E-01 1.13688E-25
7.19186E-01 1.10867E-25
7.23099E-01 1.08114E-25
7.26995E-01 1.05428E-25
7.30874E-01 1.02806E-25
7.34736E-01 1.00247E-25
7.38579E-01 9.77489E-26
7.42405E-01 9.53105E-26
7.46212E-01 9.29300E-26
7.50000E-01 9.06060E-26
7.53769E-01 8.83369E-26
7.57519E-01 8.61214E-26
7.61249E-01 8.39579E-26
7.64960E-01 8.18453E-26
7.68650E-01 7.97821E-26
7.72320E-01 7.77672E-26
7.75968E-01 7.57992E-26
7.79596E-01 7.38770E-26
7.83203E-01 7.19994E-26
7.86788E-01 7.01653E-26
7.90351E-01 6.83737E-26
7.93893E-01 6.66233E-26
7.97411E-01 6.49133E-26
8.00908E-01 6.32426E-26
8.04381E-01 6.16103E-26
8.07831E-01 6.00153E-26
8.11257E-01 5.84569E-26
8.14660E-01 5.69341E-26
8.18039E-01 5.54460E-26
8.21394E-01 5.39918E-26
8.24724E-01 5.25707E-26
8.28030E-01 5.11820E-26
8.31310E-01 4.98248E-26
8.34565E-01 4.84983E-26
8.37795E-01 4.72020E-26
8.40999E-01 4.59350E-26
8.44177E-01 4.46967E-26
8.47329E-01 4.34864E-26
8.50455E-01 4.23035E-26
8.53553E-01 4.11473E-26
8.56625E-01 4.00173E-26
8.59670E-01 3.89128E-26
8.62687E-01 3.78333E-26
8.65677E-01 3.67782E-26
8.68639E-01 3.57470E-26
8.71572E-01 3.47391E-26
8.74478E-01 3.37540E-26
8.77355E-01 3.27913E-26
8.80203E-01 3.18504E-26
8.83022E-01 3.09308E-26
8.85812E-01 3.00321E-26
8.88573E-01 2.91539E-26
8.91304E-01 2.82957E-26
8.94005E-01 2.74571E-26
8.96677E-01 2.66377E-26
8.99318E-01 2.58371E-26
9.01928E-01 2.50549E-26
9.04508E-01 2.42906E-26
9.07058E-01 2.35441E-26
9.09576E-01 2.28148E-26
9.12063E-01 2.21024E-26
9.14519E-01 2.14067E-26
9.16943E-01 2.07272E-26
9.19335E-01 2.00637E-26
9.21696E-01 1.94159E-26
9.24024E-01 1.87834E-26
9.26320E-01 1.81659E-26
9.28584E-01 1.75632E-26
9.30815E-01 1.69750E-26
9.33013E-01 1.64009E-26
9.35178E-01 1.58409E-26
9.37310E-01 1.52945E-26
9.39409E-01 1.47616E-26
9.41474E-01 1.42419E-26
9.43505E-01 1.37352E-26
9.45503E-01 1.32412E-26
9.47467E-01 1.27598E-26
9.49397E-01 1.22906E-26
9.51293E-01 1.18336E-26
9.53154E-01 1.13884E-26
9.54981E-01 1.09550E-26
9.56773E-01 1.05331E-26
9.58530E-01 1.01225E-26
9.60252E-01 9.72306E-27
9.61940E-01 9.33460E-27
9.63592E-01 8.95695E-27
9.65209E-01 8.58994E-27
9.66790E-01 8.23342E-27
9.68336E-01 7.88723E-27
9.69846E-01 7.55123E-27
9.71321E-01 7.22527E-27
9.72759E-01 6.90921E-27
9.74162E-01 6.60292E-27
9.75528E-01 6.30627E-27
9.76858E-01 6.01914E-27
9.78152E-01 5.74139E-27
9.79410E-01 5.47292E-27
9.80631E-01 5.21361E-27
9.81815E-01 4.96335E-27
9.82963E-01 4.72204E-27
9.84074E-01 4.48958E-27
9.85148E-01 4.26587E-27
9.86185E-01 4.05082E-27
9.87185E-01 3.84434E-27
9.88148E-01 3.64634E-27
9.89074E-01 3.45675E-27
9.89962E-01 3.27547E-27
9.90814E-01 3.10245E-27
9.91627E-01 2.93760E-27
9.92404E-01 2.78087E-27
9.93143E-01 2.63218E-27
9.93844E-01 2.49147E-27
9.94508E-01 2.35869E-27
9.95134E-01 2.23379E-27
9.95722E-01 2.11670E-27
9.96273E-01 2.00739E-27
9.96786E-01 1.90581E-27
9.97261E-01 1.81192E-27
9.97698E-01 1.72568E-27
9.98097E-01 1.64706E-27
9.98459E-01 1.57602E-27
9.98782E-01 1.51253E-27
9.99067E-01 1.45658E-27
9.99315E-01 1.40813E-27
9.99524E-01 1.36716E-27
9.99695E-01 1.33367E-27
9.99829E-01 1.30764E-27
9.99924E-01 1.28905E-27
9.99981E-01 1.27790E-27
1.00000E+00 1.27418E-27
