 #
 # Subroutine ELSEPA. Elastic scattering of electrons and positrons
 #                    by neutral atoms and positive ions
 #
 # Projectile: positron
 # Kinetic energy = 6.00000E+08 eV = 2.20496E+07 a.u.
 #
 # WARNING: High-energy factorization with free-atom DF screening.
 #          Absorption, polarization and exchange corrections are
 #          switched off.
 #          Phase shifts are calculated for the bare nucleus.
 #          Scattering amplitudes are not evaluated.
 #
 # Element: Gd,  Z =  64,  atomic weight = 1.57250E+02 g/mol
 #
 # Nuclear model: Fermi distribution
 #                Average radius = 5.77538E-13 cm
 #                Skin thickness = 5.46000E-14 cm
 #
 # Number of electrons = 64
 #
 # Total elastic cross section = 7.37775E-18 cm**2 = 2.63464E-01 a0**2
 # 1st transport cross section = 2.17345E-26 cm**2 = 7.76153E-10 a0**2
 # 2nd transport cross section = 6.51856E-26 cm**2 = 2.32782E-09 a0**2
 #
 #
 # Differential cross section:                       MU=(1-COS(THETA))/2
 #
 #  THETA        MU          DCS          DCS        Sherman      error
 #  (deg)                 (cm**2/sr)   (a0**2/sr)    function
 #----------------------------------------------------------------------
0.00000E+00 3.09900E-08
7.61557E-13 2.67452E-08
1.18994E-12 2.47670E-08
1.71346E-12 2.26669E-08
2.33225E-12 2.05539E-08
3.04617E-12 1.85130E-08
3.85530E-12 1.66023E-08
4.75964E-12 1.48553E-08
5.75917E-12 1.32871E-08
6.85391E-12 1.18971E-08
8.04379E-12 1.06743E-08
9.32893E-12 9.60378E-09
1.07092E-11 8.66871E-09
1.21847E-11 7.85189E-09
1.37554E-11 7.13713E-09
1.54213E-11 6.50981E-09
1.71823E-11 5.95711E-09
1.90386E-11 5.46797E-09
2.09900E-11 5.03306E-09
2.30367E-11 4.64415E-09
2.51785E-11 4.29490E-09
2.74156E-11 3.97995E-09
2.97478E-11 3.69478E-09
3.21752E-11 3.43563E-09
3.46979E-11 3.19932E-09
3.73157E-11 2.98322E-09
4.00286E-11 2.78505E-09
4.28368E-11 2.60292E-09
4.57402E-11 2.43519E-09
4.87388E-11 2.28038E-09
5.18325E-11 2.13711E-09
5.50215E-11 2.00457E-09
5.83057E-11 1.88182E-09
6.16850E-11 1.76801E-09
6.51595E-11 1.65839E-09
6.87293E-11 1.55331E-09
7.23943E-11 1.45805E-09
7.61544E-11 1.37152E-09
1.18991E-10 7.91314E-10
1.71347E-10 4.87123E-10
2.33223E-10 3.16237E-10
3.04617E-10 2.13812E-10
3.85531E-10 1.49104E-10
4.75965E-10 1.06610E-10
5.75917E-10 7.78734E-11
6.85389E-10 5.80314E-11
8.04380E-10 4.41019E-11
9.32891E-10 3.41364E-11
1.07092E-09 2.68736E-11
1.21847E-09 2.14834E-11
1.37554E-09 1.74119E-11
1.54213E-09 1.42893E-11
1.71823E-09 1.18457E-11
1.90386E-09 9.91111E-12
2.09900E-09 8.36351E-12
2.30367E-09 7.10998E-12
2.51785E-09 6.08420E-12
2.74156E-09 5.23672E-12
2.97478E-09 4.53064E-12
3.21752E-09 3.93825E-12
3.46978E-09 3.43836E-12
3.73156E-09 3.01443E-12
4.00286E-09 2.65327E-12
4.28368E-09 2.34421E-12
4.57402E-09 2.07856E-12
4.87388E-09 1.84920E-12
5.18326E-09 1.65027E-12
5.50215E-09 1.47716E-12
5.83057E-09 1.32600E-12
6.16850E-09 1.19359E-12
6.51596E-09 1.07695E-12
6.87293E-09 9.74103E-13
7.23942E-09 8.83637E-13
7.61544E-09 8.03790E-13
1.18991E-08 3.45619E-13
1.71347E-08 1.72587E-13
2.33223E-08 9.56008E-14
3.04617E-08 5.71325E-14
3.85531E-08 3.61906E-14
4.75965E-08 2.40122E-14
5.75917E-08 1.65450E-14
6.85389E-08 1.17635E-14
8.04380E-08 8.58935E-15
9.32891E-08 6.41650E-15
1.07092E-07 4.88906E-15
1.21847E-07 3.79014E-15
1.37554E-07 2.98338E-15
1.54213E-07 2.38036E-15
1.71823E-07 1.92234E-15
1.90386E-07 1.56939E-15
2.09900E-07 1.29388E-15
2.30367E-07 1.07629E-15
2.51785E-07 9.02585E-16
2.74156E-07 7.62557E-16
2.97478E-07 6.48666E-16
3.21752E-07 5.55268E-16
3.46978E-07 4.78090E-16
3.73156E-07 4.13866E-16
4.00286E-07 3.60072E-16
4.28368E-07 3.14740E-16
4.57402E-07 2.76320E-16
4.87388E-07 2.43586E-16
5.18325E-07 2.15557E-16
5.50215E-07 1.91445E-16
5.83057E-07 1.70611E-16
6.16850E-07 1.52534E-16
6.51596E-07 1.36787E-16
6.87293E-07 1.23020E-16
7.23942E-07 1.10942E-16
7.61543E-07 1.00309E-16
1.18991E-06 4.12415E-17
1.71347E-06 1.99304E-17
2.33223E-06 1.07711E-17
3.04617E-06 6.31845E-18
3.85531E-06 3.94634E-18
4.75964E-06 2.58988E-18
5.75916E-06 1.76919E-18
6.85388E-06 1.24925E-18
8.04378E-06 9.06998E-19
9.32888E-06 6.74303E-19
1.07092E-05 5.11654E-19
1.21846E-05 3.95208E-19
1.37553E-05 3.10075E-19
1.54212E-05 2.46674E-19
1.71822E-05 1.98676E-19
1.90385E-05 1.61732E-19
2.09899E-05 1.33108E-19
2.30365E-05 1.10530E-19
2.51783E-05 9.25195E-20
2.74153E-05 7.80147E-20
2.97475E-05 6.62347E-20
3.21749E-05 5.65949E-20
3.46974E-05 4.86498E-20
3.73152E-05 4.20556E-20
4.00281E-05 3.65452E-20
4.28362E-05 3.19099E-20
4.57395E-05 2.79864E-20
4.87380E-05 2.46463E-20
5.18317E-05 2.17883E-20
5.50205E-05 1.93316E-20
5.83045E-05 1.72110E-20
6.16838E-05 1.53733E-20
6.51582E-05 1.37748E-20
6.87277E-05 1.23791E-20
7.23925E-05 1.11559E-20
7.61524E-05 1.01601E-20
9.21439E-05 6.93380E-21
1.09658E-04 4.88945E-21
1.28695E-04 3.54423E-21
1.49255E-04 2.62944E-21
1.71338E-04 1.99033E-21
1.94942E-04 1.53288E-21
2.20070E-04 1.19864E-21
2.46720E-04 9.49912E-22
2.74892E-04 7.61780E-22
3.04586E-04 6.17430E-22
3.35803E-04 5.05211E-22
3.68542E-04 4.16952E-22
4.02802E-04 3.46796E-22
4.38585E-04 2.90488E-22
4.75889E-04 2.44898E-22
5.14715E-04 2.07683E-22
5.55063E-04 1.77080E-22
5.96931E-04 1.51741E-22
6.40321E-04 1.30627E-22
6.85233E-04 1.12931E-22
7.31665E-04 9.80177E-23
7.79618E-04 8.53860E-23
8.29092E-04 7.46358E-23
8.80086E-04 6.54465E-23
9.32601E-04 5.75589E-23
9.86636E-04 5.07621E-23
1.04219E-03 4.48840E-23
1.09927E-03 3.97830E-23
1.15786E-03 3.53420E-23
1.21797E-03 3.14638E-23
1.27961E-03 2.80675E-23
1.34276E-03 2.50851E-23
1.40743E-03 2.24594E-23
1.47362E-03 2.01421E-23
1.54133E-03 1.80925E-23
1.61056E-03 1.62755E-23
1.68131E-03 1.46615E-23
1.75357E-03 1.32250E-23
1.82735E-03 1.19441E-23
1.90265E-03 1.08000E-23
1.97947E-03 9.77630E-24
2.05780E-03 8.85891E-24
2.13765E-03 8.03554E-24
2.21902E-03 7.29550E-24
2.30190E-03 6.62945E-24
2.38630E-03 6.02920E-24
2.47222E-03 5.48760E-24
2.55965E-03 4.99834E-24
2.64859E-03 4.55586E-24
2.73905E-03 4.15528E-24
2.83103E-03 3.79224E-24
2.92452E-03 3.46293E-24
3.01952E-03 3.16393E-24
3.11604E-03 2.89222E-24
3.21407E-03 2.64510E-24
3.31362E-03 2.42018E-24
3.41468E-03 2.21530E-24
3.51725E-03 2.02856E-24
3.62133E-03 1.85822E-24
3.72692E-03 1.70276E-24
3.83403E-03 1.56078E-24
3.94265E-03 1.43105E-24
4.05278E-03 1.31244E-24
4.16442E-03 1.20395E-24
4.27757E-03 1.10467E-24
4.39223E-03 1.01377E-24
4.50840E-03 9.30517E-25
4.62608E-03 8.54233E-25
4.74527E-03 7.84310E-25
4.86597E-03 7.20197E-25
4.98817E-03 6.61392E-25
5.11188E-03 6.07440E-25
5.23711E-03 5.57928E-25
5.36383E-03 5.12479E-25
5.49207E-03 4.70751E-25
5.62181E-03 4.32431E-25
5.75306E-03 3.97234E-25
5.88581E-03 3.64901E-25
6.02007E-03 3.35195E-25
6.15583E-03 3.07899E-25
6.29310E-03 2.82815E-25
6.43187E-03 2.59762E-25
6.57214E-03 2.38574E-25
6.71392E-03 2.19100E-25
6.85720E-03 2.01199E-25
7.00198E-03 1.84745E-25
7.14827E-03 1.69622E-25
7.29605E-03 1.55721E-25
7.44534E-03 1.42944E-25
7.59612E-03 1.31202E-25
7.97965E-03 1.05841E-25
8.37255E-03 8.53201E-26
8.77480E-03 6.87283E-26
9.18641E-03 5.53267E-26
9.60736E-03 4.45149E-26
1.00376E-02 3.58041E-26
1.04773E-02 2.87965E-26
1.09262E-02 2.31683E-26
1.13844E-02 1.86556E-26
1.18520E-02 1.50435E-26
1.23288E-02 1.21573E-26
1.28150E-02 9.85474E-27
1.33104E-02 8.02049E-27
1.38150E-02 6.56093E-27
1.43290E-02 5.40030E-27
1.48521E-02 4.47745E-27
1.53845E-02 3.74308E-27
1.59262E-02 3.15762E-27
1.64770E-02 2.68939E-27
1.70371E-02 2.31313E-27
1.76063E-02 2.00878E-27
1.81848E-02 1.76049E-27
1.87724E-02 1.55580E-27
1.93692E-02 1.38497E-27
1.99751E-02 1.24043E-27
2.05901E-02 1.11636E-27
2.12143E-02 1.00829E-27
2.18476E-02 9.12850E-28
2.24900E-02 8.27491E-28
2.31415E-02 7.50320E-28
2.38021E-02 6.79942E-28
2.44717E-02 6.15335E-28
2.51504E-02 5.55760E-28
2.58382E-02 5.00680E-28
2.65349E-02 4.49707E-28
2.72407E-02 4.02554E-28
2.79555E-02 3.59001E-28
2.86793E-02 3.18874E-28
2.94120E-02 2.82021E-28
3.01537E-02 2.48306E-28
3.09043E-02 2.17593E-28
3.16639E-02 1.89746E-28
3.24324E-02 1.64627E-28
3.32098E-02 1.42087E-28
3.39961E-02 1.21976E-28
3.47912E-02 1.04138E-28
3.55952E-02 8.84109E-29
3.64081E-02 7.46347E-29
3.72297E-02 6.26476E-29
3.80602E-02 5.22901E-29
3.88995E-02 4.34064E-29
3.97476E-02 3.58457E-29
4.06044E-02 2.94641E-29
4.14700E-02 2.41249E-29
4.23443E-02 1.96999E-29
4.32273E-02 1.60699E-29
4.41190E-02 1.31249E-29
4.50194E-02 1.07646E-29
4.59284E-02 8.89826E-30
4.68461E-02 7.44434E-30
4.87074E-02 5.49309E-30
5.06030E-02 4.43327E-30
5.25328E-02 3.90971E-30
5.44967E-02 3.67078E-30
5.64946E-02 3.54887E-30
5.85262E-02 3.44156E-30
6.05914E-02 3.29466E-30
6.26901E-02 3.08762E-30
6.48222E-02 2.82161E-30
6.69873E-02 2.51025E-30
6.91854E-02 2.17270E-30
7.14163E-02 1.82897E-30
7.36799E-02 1.49685E-30
7.59760E-02 1.19037E-30
7.83043E-02 9.19090E-31
8.06647E-02 6.88299E-31
8.30571E-02 4.99487E-31
8.54812E-02 3.51142E-31
8.79369E-02 2.39592E-31
9.04240E-02 1.59821E-31
9.29422E-02 1.06177E-31
9.54915E-02 7.29483E-32
9.80716E-02 5.47867E-32
1.00682E-01 4.69851E-32
1.03323E-01 4.56325E-32
1.05995E-01 4.76628E-32
1.08696E-01 5.08260E-32
1.11427E-01 5.36056E-32
1.14188E-01 5.51045E-32
1.16978E-01 5.49161E-32
1.19797E-01 5.29969E-32
1.22645E-01 4.95484E-32
1.25522E-01 4.49159E-32
1.28428E-01 3.95067E-32
1.31361E-01 3.37286E-32
1.34323E-01 2.79478E-32
1.37313E-01 2.24633E-32
1.40330E-01 1.74955E-32
1.43375E-01 1.31850E-32
1.46447E-01 9.59987E-33
1.49545E-01 6.74632E-33
1.52671E-01 4.58301E-33
1.55823E-01 3.03508E-33
1.59001E-01 2.00755E-33
1.62205E-01 1.39699E-33
1.65435E-01 1.10088E-33
1.68690E-01 1.02453E-33
1.71970E-01 1.08569E-33
1.75276E-01 1.21708E-33
1.78606E-01 1.36709E-33
1.81961E-01 1.49923E-33
1.85340E-01 1.59057E-33
1.88743E-01 1.62962E-33
1.92169E-01 1.61391E-33
1.95619E-01 1.54757E-33
1.99092E-01 1.43906E-33
2.02589E-01 1.29922E-33
2.06107E-01 1.13963E-33
2.09649E-01 9.71417E-34
2.13212E-01 8.04361E-34
2.16797E-01 6.46411E-34
2.20404E-01 5.03443E-34
2.24032E-01 3.79263E-34
2.27680E-01 2.75769E-34
2.31350E-01 1.93228E-34
2.35040E-01 1.30609E-34
2.38751E-01 8.59405E-35
2.42481E-01 5.66473E-35
2.46231E-01 3.98563E-35
2.50000E-01 3.26513E-35
2.53788E-01 3.22715E-35
2.57595E-01 3.62528E-35
2.61421E-01 4.25156E-35
2.65264E-01 4.94063E-35
2.69126E-01 5.56990E-35
2.73005E-01 6.05705E-35
2.76901E-01 6.35514E-35
2.80814E-01 6.44682E-35
2.84744E-01 6.33779E-35
2.88691E-01 6.05037E-35
2.92653E-01 5.61765E-35
2.96632E-01 5.07811E-35
3.00625E-01 4.47151E-35
3.04634E-01 3.83545E-35
3.08658E-01 3.20316E-35
3.12697E-01 2.60189E-35
3.16749E-01 2.05239E-35
3.20816E-01 1.56872E-35
3.24896E-01 1.15877E-35
3.28990E-01 8.24926E-36
3.33097E-01 5.65079E-36
3.37216E-01 3.73656E-36
3.41348E-01 2.42656E-36
3.45492E-01 1.62624E-36
3.49647E-01 1.23503E-36
3.53814E-01 1.15342E-36
3.57992E-01 1.28828E-36
3.62181E-01 1.55702E-36
3.66381E-01 1.88966E-36
3.70590E-01 2.23017E-36
3.74810E-01 2.53653E-36
3.79039E-01 2.77987E-36
3.83277E-01 2.94315E-36
3.87524E-01 3.01929E-36
3.91780E-01 3.00951E-36
3.96044E-01 2.92111E-36
4.00316E-01 2.76550E-36
4.04596E-01 2.55674E-36
4.08882E-01 2.30990E-36
4.13176E-01 2.03995E-36
4.17476E-01 1.76075E-36
4.21783E-01 1.48451E-36
4.26095E-01 1.22123E-36
4.30413E-01 9.78728E-37
4.34737E-01 7.62469E-37
4.39065E-01 5.75762E-37
4.43398E-01 4.19955E-37
4.47736E-01 2.94783E-37
4.52077E-01 1.98624E-37
4.56422E-01 1.28884E-37
4.60770E-01 8.22948E-38
4.65122E-01 5.51949E-38
4.69476E-01 4.38097E-38
4.73832E-01 4.44223E-38
4.78190E-01 5.35707E-38
4.82550E-01 6.81375E-38
4.86912E-01 8.54648E-38
4.91274E-01 1.03336E-37
4.95637E-01 1.20035E-37
5.00000E-01 1.34319E-37
5.04363E-01 1.45338E-37
5.08726E-01 1.52646E-37
5.13088E-01 1.56118E-37
5.17450E-01 1.55863E-37
5.21810E-01 1.52206E-37
5.26168E-01 1.45598E-37
5.30524E-01 1.36574E-37
5.34878E-01 1.25718E-37
5.39230E-01 1.13606E-37
5.43578E-01 1.00789E-37
5.47923E-01 8.77665E-38
5.52264E-01 7.49727E-38
5.56602E-01 6.27693E-38
5.60935E-01 5.14359E-38
5.65263E-01 4.11799E-38
5.69587E-01 3.21303E-38
5.73905E-01 2.43565E-38
5.78217E-01 1.78656E-38
5.82524E-01 1.26192E-38
5.86824E-01 8.54023E-39
5.91118E-01 1.00000E-45
5.95404E-01 1.00000E-45
5.99684E-01 1.00000E-45
6.03956E-01 1.00000E-45
6.08220E-01 1.00000E-45
6.12476E-01 1.00000E-45
6.16723E-01 1.00000E-45
6.20961E-01 1.00000E-45
6.25190E-01 1.00000E-45
6.29410E-01 1.00000E-45
6.33619E-01 1.00000E-45
6.37819E-01 1.00000E-45
6.42008E-01 1.00000E-45
6.46186E-01 1.00000E-45
6.50353E-01 1.00000E-45
6.54508E-01 1.00000E-45
6.58652E-01 1.00000E-45
6.62784E-01 1.00000E-45
6.66903E-01 1.00000E-45
6.71010E-01 1.00000E-45
6.75104E-01 1.00000E-45
6.79184E-01 1.00000E-45
6.83251E-01 1.00000E-45
6.87303E-01 1.00000E-45
6.91342E-01 1.00000E-45
6.95366E-01 1.00000E-45
6.99375E-01 1.00000E-45
7.03368E-01 1.00000E-45
7.07347E-01 1.00000E-45
7.11309E-01 1.00000E-45
7.15256E-01 1.00000E-45
7.19186E-01 1.00000E-45
7.23099E-01 1.00000E-45
7.26995E-01 1.00000E-45
7.30874E-01 1.00000E-45
7.34736E-01 1.00000E-45
7.38579E-01 1.00000E-45
7.42405E-01 1.00000E-45
7.46212E-01 1.00000E-45
7.50000E-01 1.00000E-45
7.53769E-01 1.00000E-45
7.57519E-01 1.00000E-45
7.61249E-01 1.00000E-45
7.64960E-01 1.00000E-45
7.68650E-01 1.00000E-45
7.72320E-01 1.00000E-45
7.75968E-01 1.00000E-45
7.79596E-01 1.00000E-45
7.83203E-01 1.00000E-45
7.86788E-01 1.00000E-45
7.90351E-01 1.00000E-45
7.93893E-01 1.00000E-45
7.97411E-01 1.00000E-45
8.00908E-01 1.00000E-45
8.04381E-01 1.00000E-45
8.07831E-01 1.00000E-45
8.11257E-01 1.00000E-45
8.14660E-01 1.00000E-45
8.18039E-01 1.00000E-45
8.21394E-01 1.00000E-45
8.24724E-01 1.00000E-45
8.28030E-01 1.00000E-45
8.31310E-01 1.00000E-45
8.34565E-01 1.00000E-45
8.37795E-01 1.00000E-45
8.40999E-01 1.00000E-45
8.44177E-01 1.00000E-45
8.47329E-01 1.00000E-45
8.50455E-01 1.00000E-45
8.53553E-01 1.00000E-45
8.56625E-01 1.00000E-45
8.59670E-01 1.00000E-45
8.62687E-01 1.00000E-45
8.65677E-01 1.00000E-45
8.68639E-01 1.00000E-45
8.71572E-01 1.00000E-45
8.74478E-01 1.00000E-45
8.77355E-01 1.00000E-45
8.80203E-01 1.00000E-45
8.83022E-01 1.00000E-45
8.85812E-01 1.00000E-45
8.88573E-01 1.00000E-45
8.91304E-01 1.00000E-45
8.94005E-01 1.00000E-45
8.96677E-01 1.00000E-45
8.99318E-01 1.00000E-45
9.01928E-01 1.00000E-45
9.04508E-01 1.00000E-45
9.07058E-01 1.00000E-45
9.09576E-01 1.00000E-45
9.12063E-01 1.00000E-45
9.14519E-01 1.00000E-45
9.16943E-01 1.00000E-45
9.19335E-01 1.00000E-45
9.21696E-01 1.00000E-45
9.24024E-01 1.00000E-45
9.26320E-01 1.00000E-45
9.28584E-01 1.00000E-45
9.30815E-01 1.00000E-45
9.33013E-01 1.00000E-45
9.35178E-01 1.00000E-45
9.37310E-01 1.00000E-45
9.39409E-01 1.00000E-45
9.41474E-01 1.00000E-45
9.43505E-01 1.00000E-45
9.45503E-01 1.00000E-45
9.47467E-01 1.00000E-45
9.49397E-01 1.00000E-45
9.51293E-01 1.00000E-45
9.53154E-01 1.00000E-45
9.54981E-01 1.00000E-45
9.56773E-01 1.00000E-45
9.58530E-01 1.00000E-45
9.60252E-01 1.00000E-45
9.61940E-01 1.00000E-45
9.63592E-01 1.00000E-45
9.65209E-01 1.00000E-45
9.66790E-01 1.00000E-45
9.68336E-01 1.00000E-45
9.69846E-01 1.00000E-45
9.71321E-01 1.00000E-45
9.72759E-01 1.00000E-45
9.74162E-01 1.00000E-45
9.75528E-01 1.00000E-45
9.76858E-01 1.00000E-45
9.78152E-01 1.00000E-45
9.79410E-01 1.00000E-45
9.80631E-01 1.00000E-45
9.81815E-01 1.00000E-45
9.82963E-01 1.00000E-45
9.84074E-01 1.00000E-45
9.85148E-01 1.00000E-45
9.86185E-01 1.00000E-45
9.87185E-01 1.00000E-45
9.88148E-01 1.00000E-45
9.89074E-01 1.00000E-45
9.89962E-01 1.00000E-45
9.90814E-01 1.00000E-45
9.91627E-01 1.00000E-45
9.92404E-01 1.00000E-45
9.93143E-01 1.00000E-45
9.93844E-01 1.00000E-45
9.94508E-01 1.00000E-45
9.95134E-01 1.00000E-45
9.95722E-01 1.00000E-45
9.96273E-01 1.00000E-45
9.96786E-01 1.00000E-45
9.97261E-01 1.00000E-45
9.97698E-01 1.00000E-45
9.98097E-01 1.00000E-45
9.98459E-01 1.00000E-45
9.98782E-01 1.00000E-45
9.99067E-01 1.00000E-45
9.99315E-01 1.00000E-45
9.99524E-01 1.00000E-45
9.99695E-01 1.00000E-45
9.99829E-01 1.00000E-45
9.99924E-01 1.00000E-45
9.99981E-01 1.00000E-45
1.00000E+00 1.00000E-45
