 #
 # Subroutine ELSEPA. Elastic scattering of electrons and positrons
 #                    by neutral atoms and positive ions
 #
 # Projectile: positron
 # Kinetic energy = 1.00000E+07 eV = 3.67493E+05 a.u.
 #
 # WARNING: High-energy factorization with free-atom DF screening.
 #          Absorption, polarization and exchange corrections are
 #          switched off.
 #          Phase shifts are calculated for the bare nucleus.
 #          Scattering amplitudes are not evaluated.
 #
 # Element: Gd,  Z =  64,  atomic weight = 1.57250E+02 g/mol
 #
 # Nuclear model: Fermi distribution
 #                Average radius = 5.77538E-13 cm
 #                Skin thickness = 5.46000E-14 cm
 #
 # Number of electrons = 64
 #
 # Total elastic cross section = 7.41200E-18 cm**2 = 2.64687E-01 a0**2
 # 1st transport cross section = 5.23824E-23 cm**2 = 1.87061E-06 a0**2
 # 2nd transport cross section = 1.51621E-22 cm**2 = 5.41448E-06 a0**2
 #
 #
 # Differential cross section:                       MU=(1-COS(THETA))/2
 #
 #  THETA        MU          DCS          DCS        Sherman      error
 #  (deg)                 (cm**2/sr)   (a0**2/sr)    function
 #----------------------------------------------------------------------
0.00000E+00 9.49440E-12
7.61557E-13 9.49393E-12
1.18994E-12 9.49367E-12
1.71346E-12 9.49336E-12
2.33225E-12 9.49299E-12
3.04617E-12 9.49256E-12
3.85530E-12 9.49208E-12
4.75964E-12 9.49154E-12
5.75917E-12 9.49095E-12
6.85391E-12 9.49030E-12
8.04379E-12 9.48959E-12
9.32893E-12 9.48883E-12
1.07092E-11 9.48802E-12
1.21847E-11 9.48714E-12
1.37554E-11 9.48621E-12
1.54213E-11 9.48523E-12
1.71823E-11 9.48419E-12
1.90386E-11 9.48309E-12
2.09900E-11 9.48194E-12
2.30367E-11 9.48073E-12
2.51785E-11 9.47947E-12
2.74156E-11 9.47815E-12
2.97478E-11 9.47677E-12
3.21752E-11 9.47534E-12
3.46979E-11 9.47386E-12
3.73157E-11 9.47232E-12
4.00286E-11 9.47072E-12
4.28368E-11 9.46907E-12
4.57402E-11 9.46736E-12
4.87388E-11 9.46560E-12
5.18325E-11 9.46378E-12
5.50215E-11 9.46190E-12
5.83057E-11 9.45998E-12
6.16850E-11 9.45799E-12
6.51595E-11 9.45595E-12
6.87293E-11 9.45386E-12
7.23943E-11 9.45171E-12
7.61544E-11 9.44951E-12
1.18991E-10 9.42447E-12
1.71347E-10 9.39403E-12
2.33223E-10 9.35827E-12
3.04617E-10 9.31730E-12
3.85531E-10 9.27122E-12
4.75965E-10 9.22016E-12
5.75917E-10 9.16428E-12
6.85389E-10 9.10371E-12
8.04380E-10 9.03863E-12
9.32891E-10 8.96920E-12
1.07092E-09 8.89561E-12
1.21847E-09 8.81805E-12
1.37554E-09 8.73671E-12
1.54213E-09 8.65179E-12
1.71823E-09 8.56351E-12
1.90386E-09 8.47207E-12
2.09900E-09 8.37772E-12
2.30367E-09 8.28095E-12
2.51785E-09 8.18152E-12
2.74156E-09 8.07962E-12
2.97478E-09 7.97546E-12
3.21752E-09 7.86924E-12
3.46978E-09 7.76208E-12
3.73156E-09 7.65341E-12
4.00286E-09 7.54326E-12
4.28368E-09 7.43183E-12
4.57402E-09 7.31929E-12
4.87388E-09 7.20670E-12
5.18326E-09 7.09384E-12
5.50215E-09 6.98039E-12
5.83057E-09 6.86650E-12
6.16850E-09 6.75234E-12
6.51596E-09 6.63871E-12
6.87293E-09 6.52600E-12
7.23942E-09 6.41342E-12
7.61544E-09 6.30109E-12
1.18991E-08 5.23334E-12
1.71347E-08 4.30945E-12
2.33223E-08 3.55118E-12
3.04617E-08 2.94613E-12
3.85531E-08 2.46832E-12
4.75965E-08 2.09033E-12
5.75917E-08 1.78852E-12
6.85389E-08 1.54425E-12
8.04380E-08 1.34358E-12
9.32891E-08 1.17645E-12
1.07092E-07 1.03553E-12
1.21847E-07 9.15458E-13
1.37554E-07 8.12281E-13
1.54213E-07 7.23022E-13
1.71823E-07 6.45390E-13
1.90386E-07 5.77586E-13
2.09900E-07 5.17714E-13
2.30367E-07 4.61873E-13
2.51785E-07 4.14760E-13
2.74156E-07 3.74751E-13
2.97478E-07 3.40560E-13
3.21752E-07 3.11167E-13
3.46978E-07 2.81901E-13
3.73156E-07 2.56099E-13
4.00286E-07 2.33733E-13
4.28368E-07 2.14251E-13
4.57402E-07 1.97202E-13
4.87388E-07 1.81003E-13
5.18325E-07 1.66127E-13
5.50215E-07 1.53012E-13
5.83057E-07 1.41405E-13
6.16850E-07 1.31096E-13
6.51596E-07 1.21517E-13
6.87293E-07 1.12452E-13
7.23942E-07 1.04350E-13
7.61543E-07 9.70884E-14
1.18991E-06 4.99141E-14
1.71347E-06 2.78627E-14
2.33223E-06 1.65988E-14
3.04617E-06 1.04796E-14
3.85531E-06 6.96489E-15
4.75964E-06 4.83380E-15
5.75916E-06 3.47356E-15
6.85388E-06 2.56569E-15
8.04378E-06 1.93926E-15
9.32888E-06 1.49300E-15
1.07092E-05 1.16693E-15
1.21846E-05 9.24239E-16
1.37553E-05 7.40954E-16
1.54212E-05 6.00637E-16
1.71822E-05 4.91782E-16
1.90385E-05 4.06142E-16
2.09899E-05 3.38533E-16
2.30365E-05 2.84219E-16
2.51783E-05 2.40635E-16
2.74153E-05 2.04805E-16
2.97475E-05 1.75562E-16
3.21749E-05 1.51243E-16
3.46974E-05 1.31091E-16
3.73152E-05 1.14158E-16
4.00281E-05 9.99281E-17
4.28362E-05 8.78318E-17
4.57395E-05 7.75310E-17
4.87380E-05 6.86871E-17
5.18317E-05 6.10730E-17
5.50205E-05 5.44810E-17
5.83045E-05 4.87547E-17
6.16838E-05 4.37634E-17
6.51582E-05 3.93936E-17
6.87277E-05 3.55605E-17
7.23925E-05 3.21798E-17
7.61524E-05 2.91954E-17
9.21439E-05 2.02108E-17
1.09658E-04 1.44253E-17
1.28695E-04 1.05665E-17
1.49255E-04 7.91242E-18
1.71338E-04 6.04018E-18
1.94942E-04 4.68896E-18
2.20070E-04 3.69450E-18
2.46720E-04 2.94974E-18
2.74892E-04 2.38315E-18
3.04586E-04 1.94611E-18
3.35803E-04 1.60465E-18
3.68542E-04 1.33481E-18
4.02802E-04 1.11931E-18
4.38585E-04 9.45537E-19
4.75889E-04 8.04185E-19
5.14715E-04 6.88257E-19
5.55063E-04 5.92465E-19
5.96931E-04 5.12755E-19
6.40321E-04 4.45994E-19
6.85233E-04 3.89741E-19
7.31665E-04 3.42072E-19
7.79618E-04 3.01462E-19
8.29092E-04 2.66695E-19
8.80086E-04 2.36790E-19
9.32601E-04 2.10954E-19
9.86636E-04 1.88541E-19
1.04219E-03 1.69021E-19
1.09927E-03 1.51958E-19
1.15786E-03 1.36990E-19
1.21797E-03 1.23816E-19
1.27961E-03 1.12185E-19
1.34276E-03 1.01884E-19
1.40743E-03 9.27362E-20
1.47362E-03 8.45892E-20
1.54133E-03 7.73152E-20
1.61056E-03 7.08041E-20
1.68131E-03 6.49622E-20
1.75357E-03 5.97087E-20
1.82735E-03 5.49739E-20
1.90265E-03 5.06978E-20
1.97947E-03 4.68281E-20
2.05780E-03 4.33193E-20
2.13765E-03 4.01318E-20
2.21902E-03 3.72313E-20
2.30190E-03 3.45873E-20
2.38630E-03 3.21729E-20
2.47222E-03 2.99647E-20
2.55965E-03 2.79421E-20
2.64859E-03 2.60866E-20
2.73905E-03 2.43820E-20
2.83103E-03 2.28138E-20
2.92452E-03 2.13691E-20
3.01952E-03 2.00366E-20
3.11604E-03 1.88059E-20
3.21407E-03 1.76678E-20
3.31362E-03 1.66141E-20
3.41468E-03 1.56375E-20
3.51725E-03 1.47313E-20
3.62133E-03 1.38895E-20
3.72692E-03 1.31067E-20
3.83403E-03 1.23780E-20
3.94265E-03 1.16990E-20
4.05278E-03 1.10658E-20
4.16442E-03 1.04746E-20
4.27757E-03 9.92212E-21
4.39223E-03 9.40545E-21
4.50840E-03 8.92182E-21
4.62608E-03 8.46870E-21
4.74527E-03 8.04385E-21
4.86597E-03 7.64517E-21
4.98817E-03 7.27077E-21
5.11188E-03 6.91888E-21
5.23711E-03 6.58791E-21
5.36383E-03 6.27640E-21
5.49207E-03 5.98298E-21
5.62181E-03 5.70642E-21
5.75306E-03 5.44557E-21
5.88581E-03 5.19936E-21
6.02007E-03 4.96685E-21
6.15583E-03 4.74711E-21
6.29310E-03 4.53932E-21
6.43187E-03 4.34271E-21
6.57214E-03 4.15657E-21
6.71392E-03 3.98024E-21
6.85720E-03 3.81310E-21
7.00198E-03 3.65459E-21
7.14827E-03 3.50419E-21
7.29605E-03 3.36140E-21
7.44534E-03 3.22576E-21
7.59612E-03 3.09685E-21
7.97965E-03 2.80150E-21
8.37255E-03 2.54034E-21
8.77480E-03 2.30873E-21
9.18641E-03 2.10276E-21
9.60736E-03 1.91912E-21
1.00376E-02 1.75497E-21
1.04773E-02 1.60788E-21
1.09262E-02 1.47579E-21
1.13844E-02 1.35690E-21
1.18520E-02 1.24966E-21
1.23288E-02 1.15273E-21
1.28150E-02 1.06496E-21
1.33104E-02 9.85324E-22
1.38150E-02 9.12939E-22
1.43290E-02 8.47032E-22
1.48521E-02 7.86921E-22
1.53845E-02 7.32009E-22
1.59262E-02 6.81767E-22
1.64770E-02 6.35728E-22
1.70371E-02 5.93479E-22
1.76063E-02 5.54653E-22
1.81848E-02 5.18924E-22
1.87724E-02 4.86002E-22
1.93692E-02 4.55628E-22
1.99751E-02 4.27570E-22
2.05901E-02 4.01620E-22
2.12143E-02 3.77591E-22
2.18476E-02 3.55316E-22
2.24900E-02 3.34644E-22
2.31415E-02 3.15440E-22
2.38021E-02 2.97582E-22
2.44717E-02 2.80957E-22
2.51504E-02 2.65466E-22
2.58382E-02 2.51017E-22
2.65349E-02 2.37529E-22
2.72407E-02 2.24925E-22
2.79555E-02 2.13138E-22
2.86793E-02 2.02105E-22
2.94120E-02 1.91769E-22
3.01537E-02 1.82078E-22
3.09043E-02 1.72986E-22
3.16639E-02 1.64447E-22
3.24324E-02 1.56424E-22
3.32098E-02 1.48878E-22
3.39961E-02 1.41777E-22
3.47912E-02 1.35089E-22
3.55952E-02 1.28787E-22
3.64081E-02 1.22843E-22
3.72297E-02 1.17235E-22
3.80602E-02 1.11939E-22
3.88995E-02 1.06935E-22
3.97476E-02 1.02204E-22
4.06044E-02 9.77294E-23
4.14700E-02 9.34935E-23
4.23443E-02 8.94817E-23
4.32273E-02 8.56801E-23
4.41190E-02 8.20756E-23
4.50194E-02 7.86563E-23
4.59284E-02 7.54109E-23
4.68461E-02 7.23290E-23
4.87074E-02 6.66173E-23
5.06030E-02 6.14511E-23
5.25328E-02 5.67697E-23
5.44967E-02 5.25199E-23
5.64946E-02 4.86548E-23
5.85262E-02 4.51340E-23
6.05914E-02 4.19215E-23
6.26901E-02 3.89856E-23
6.48222E-02 3.62985E-23
6.69873E-02 3.38355E-23
6.91854E-02 3.15747E-23
7.14163E-02 2.94967E-23
7.36799E-02 2.75842E-23
7.59760E-02 2.58217E-23
7.83043E-02 2.41954E-23
8.06647E-02 2.26930E-23
8.30571E-02 2.13035E-23
8.54812E-02 2.00168E-23
8.79369E-02 1.88241E-23
9.04240E-02 1.77174E-23
9.29422E-02 1.66893E-23
9.54915E-02 1.57333E-23
9.80716E-02 1.48436E-23
1.00682E-01 1.40146E-23
1.03323E-01 1.32415E-23
1.05995E-01 1.25200E-23
1.08696E-01 1.18460E-23
1.11427E-01 1.12158E-23
1.14188E-01 1.06261E-23
1.16978E-01 1.00738E-23
1.19797E-01 9.55611E-24
1.22645E-01 9.07056E-24
1.25522E-01 8.61476E-24
1.28428E-01 8.18659E-24
1.31361E-01 7.78409E-24
1.34323E-01 7.40543E-24
1.37313E-01 7.04898E-24
1.40330E-01 6.71320E-24
1.43375E-01 6.39668E-24
1.46447E-01 6.09814E-24
1.49545E-01 5.81637E-24
1.52671E-01 5.55026E-24
1.55823E-01 5.29881E-24
1.59001E-01 5.06105E-24
1.62205E-01 4.83612E-24
1.65435E-01 4.62320E-24
1.68690E-01 4.42155E-24
1.71970E-01 4.23046E-24
1.75276E-01 4.04928E-24
1.78606E-01 3.87742E-24
1.81961E-01 3.71431E-24
1.85340E-01 3.55942E-24
1.88743E-01 3.41228E-24
1.92169E-01 3.27243E-24
1.95619E-01 3.13944E-24
1.99092E-01 3.01292E-24
2.02589E-01 2.89251E-24
2.06107E-01 2.77785E-24
2.09649E-01 2.66862E-24
2.13212E-01 2.56453E-24
2.16797E-01 2.46529E-24
2.20404E-01 2.37063E-24
2.24032E-01 2.28029E-24
2.27680E-01 2.19406E-24
2.31350E-01 2.11172E-24
2.35040E-01 2.03306E-24
2.38751E-01 1.95788E-24
2.42481E-01 1.88601E-24
2.46231E-01 1.81728E-24
2.50000E-01 1.75153E-24
2.53788E-01 1.68860E-24
2.57595E-01 1.62836E-24
2.61421E-01 1.57066E-24
2.65264E-01 1.51539E-24
2.69126E-01 1.46242E-24
2.73005E-01 1.41165E-24
2.76901E-01 1.36296E-24
2.80814E-01 1.31625E-24
2.84744E-01 1.27144E-24
2.88691E-01 1.22843E-24
2.92653E-01 1.18713E-24
2.96632E-01 1.14747E-24
3.00625E-01 1.10937E-24
3.04634E-01 1.07276E-24
3.08658E-01 1.03757E-24
3.12697E-01 1.00374E-24
3.16749E-01 9.71204E-25
3.20816E-01 9.39905E-25
3.24896E-01 9.09788E-25
3.28990E-01 8.80801E-25
3.33097E-01 8.52895E-25
3.37216E-01 8.26022E-25
3.41348E-01 8.00139E-25
3.45492E-01 7.75202E-25
3.49647E-01 7.51171E-25
3.53814E-01 7.28008E-25
3.57992E-01 7.05676E-25
3.62181E-01 6.84140E-25
3.66381E-01 6.63367E-25
3.70590E-01 6.43326E-25
3.74810E-01 6.23987E-25
3.79039E-01 6.05321E-25
3.83277E-01 5.87301E-25
3.87524E-01 5.69900E-25
3.91780E-01 5.53094E-25
3.96044E-01 5.36859E-25
4.00316E-01 5.21173E-25
4.04596E-01 5.06013E-25
4.08882E-01 4.91360E-25
4.13176E-01 4.77194E-25
4.17476E-01 4.63495E-25
4.21783E-01 4.50247E-25
4.26095E-01 4.37431E-25
4.30413E-01 4.25032E-25
4.34737E-01 4.13032E-25
4.39065E-01 4.01419E-25
4.43398E-01 3.90177E-25
4.47736E-01 3.79291E-25
4.52077E-01 3.68751E-25
4.56422E-01 3.58541E-25
4.60770E-01 3.48651E-25
4.65122E-01 3.39069E-25
4.69476E-01 3.29783E-25
4.73832E-01 3.20784E-25
4.78190E-01 3.12060E-25
4.82550E-01 3.03603E-25
4.86912E-01 2.95402E-25
4.91274E-01 2.87448E-25
4.95637E-01 2.79734E-25
5.00000E-01 2.72250E-25
5.04363E-01 2.64988E-25
5.08726E-01 2.57942E-25
5.13088E-01 2.51104E-25
5.17450E-01 2.44465E-25
5.21810E-01 2.38021E-25
5.26168E-01 2.31764E-25
5.30524E-01 2.25688E-25
5.34878E-01 2.19786E-25
5.39230E-01 2.14054E-25
5.43578E-01 2.08485E-25
5.47923E-01 2.03074E-25
5.52264E-01 1.97816E-25
5.56602E-01 1.92707E-25
5.60935E-01 1.87740E-25
5.65263E-01 1.82912E-25
5.69587E-01 1.78218E-25
5.73905E-01 1.73653E-25
5.78217E-01 1.69215E-25
5.82524E-01 1.64898E-25
5.86824E-01 1.60699E-25
5.91118E-01 1.56614E-25
5.95404E-01 1.52639E-25
5.99684E-01 1.48772E-25
6.03956E-01 1.45009E-25
6.08220E-01 1.41346E-25
6.12476E-01 1.37781E-25
6.16723E-01 1.34311E-25
6.20961E-01 1.30932E-25
6.25190E-01 1.27642E-25
6.29410E-01 1.24439E-25
6.33619E-01 1.21319E-25
6.37819E-01 1.18280E-25
6.42008E-01 1.15320E-25
6.46186E-01 1.12437E-25
6.50353E-01 1.09628E-25
6.54508E-01 1.06891E-25
6.58652E-01 1.04223E-25
6.62784E-01 1.01624E-25
6.66903E-01 9.90907E-26
6.71010E-01 9.66214E-26
6.75104E-01 9.42144E-26
6.79184E-01 9.18677E-26
6.83251E-01 8.95798E-26
6.87303E-01 8.73490E-26
6.91342E-01 8.51736E-26
6.95366E-01 8.30521E-26
6.99375E-01 8.09831E-26
7.03368E-01 7.89649E-26
7.07347E-01 7.69963E-26
7.11309E-01 7.50759E-26
7.15256E-01 7.32023E-26
7.19186E-01 7.13743E-26
7.23099E-01 6.95906E-26
7.26995E-01 6.78501E-26
7.30874E-01 6.61515E-26
7.34736E-01 6.44937E-26
7.38579E-01 6.28757E-26
7.42405E-01 6.12964E-26
7.46212E-01 5.97547E-26
7.50000E-01 5.82497E-26
7.53769E-01 5.67804E-26
7.57519E-01 5.53459E-26
7.61249E-01 5.39453E-26
7.64960E-01 5.25776E-26
7.68650E-01 5.12421E-26
7.72320E-01 4.99378E-26
7.75968E-01 4.86641E-26
7.79596E-01 4.74201E-26
7.83203E-01 4.62051E-26
7.86788E-01 4.50183E-26
7.90351E-01 4.38591E-26
7.93893E-01 4.27266E-26
7.97411E-01 4.16204E-26
8.00908E-01 4.05397E-26
8.04381E-01 3.94839E-26
8.07831E-01 3.84523E-26
8.11257E-01 3.74444E-26
8.14660E-01 3.64597E-26
8.18039E-01 3.54974E-26
8.21394E-01 3.45572E-26
8.24724E-01 3.36385E-26
8.28030E-01 3.27407E-26
8.31310E-01 3.18634E-26
8.34565E-01 3.10060E-26
8.37795E-01 3.01681E-26
8.40999E-01 2.93493E-26
8.44177E-01 2.85491E-26
8.47329E-01 2.77671E-26
8.50455E-01 2.70028E-26
8.53553E-01 2.62558E-26
8.56625E-01 2.55258E-26
8.59670E-01 2.48123E-26
8.62687E-01 2.41150E-26
8.65677E-01 2.34336E-26
8.68639E-01 2.27676E-26
8.71572E-01 2.21167E-26
8.74478E-01 2.14806E-26
8.77355E-01 2.08589E-26
8.80203E-01 2.02514E-26
8.83022E-01 1.96578E-26
8.85812E-01 1.90776E-26
8.88573E-01 1.85108E-26
8.91304E-01 1.79568E-26
8.94005E-01 1.74156E-26
8.96677E-01 1.68868E-26
8.99318E-01 1.63701E-26
9.01928E-01 1.58653E-26
9.04508E-01 1.53722E-26
9.07058E-01 1.48906E-26
9.09576E-01 1.44201E-26
9.12063E-01 1.39605E-26
9.14519E-01 1.35117E-26
9.16943E-01 1.30735E-26
9.19335E-01 1.26455E-26
9.21696E-01 1.22277E-26
9.24024E-01 1.18198E-26
9.26320E-01 1.14216E-26
9.28584E-01 1.10330E-26
9.30815E-01 1.06537E-26
9.33013E-01 1.02836E-26
9.35178E-01 9.92258E-27
9.37310E-01 9.57037E-27
9.39409E-01 9.22685E-27
9.41474E-01 8.89186E-27
9.43505E-01 8.56526E-27
9.45503E-01 8.24689E-27
9.47467E-01 7.93661E-27
9.49397E-01 7.63428E-27
9.51293E-01 7.33976E-27
9.53154E-01 7.05293E-27
9.54981E-01 6.77366E-27
9.56773E-01 6.50183E-27
9.58530E-01 6.23730E-27
9.60252E-01 5.97997E-27
9.61940E-01 5.72973E-27
9.63592E-01 5.48646E-27
9.65209E-01 5.25006E-27
9.66790E-01 5.02043E-27
9.68336E-01 4.79746E-27
9.69846E-01 4.58106E-27
9.71321E-01 4.37114E-27
9.72759E-01 4.16761E-27
9.74162E-01 3.97037E-27
9.75528E-01 3.77935E-27
9.76858E-01 3.59446E-27
9.78152E-01 3.41563E-27
9.79410E-01 3.24277E-27
9.80631E-01 3.07582E-27
9.81815E-01 2.91471E-27
9.82963E-01 2.75936E-27
9.84074E-01 2.60971E-27
9.85148E-01 2.46570E-27
9.86185E-01 2.32727E-27
9.87185E-01 2.19436E-27
9.88148E-01 2.06691E-27
9.89074E-01 1.94488E-27
9.89962E-01 1.82820E-27
9.90814E-01 1.71684E-27
9.91627E-01 1.61075E-27
9.92404E-01 1.50987E-27
9.93143E-01 1.41418E-27
9.93844E-01 1.32363E-27
9.94508E-01 1.23818E-27
9.95134E-01 1.15780E-27
9.95722E-01 1.08245E-27
9.96273E-01 1.01211E-27
9.96786E-01 9.46744E-28
9.97261E-01 8.86327E-28
9.97698E-01 8.30833E-28
9.98097E-01 7.80241E-28
9.98459E-01 7.34530E-28
9.98782E-01 6.93679E-28
9.99067E-01 6.57674E-28
9.99315E-01 6.26500E-28
9.99524E-01 6.00142E-28
9.99695E-01 5.78592E-28
9.99829E-01 5.61840E-28
9.99924E-01 5.49879E-28
9.99981E-01 5.42704E-28
1.00000E+00 5.40313E-28
