 #
 # Subroutine ELSEPA. Elastic scattering of electrons and positrons
 #                    by neutral atoms and positive ions
 #
 # Projectile: positron
 # Kinetic energy = 1.50000E+07 eV = 5.51240E+05 a.u.
 #
 # WARNING: High-energy factorization with free-atom DF screening.
 #          Absorption, polarization and exchange corrections are
 #          switched off.
 #          Phase shifts are calculated for the bare nucleus.
 #          Scattering amplitudes are not evaluated.
 #
 # Element: Gd,  Z =  64,  atomic weight = 1.57250E+02 g/mol
 #
 # Nuclear model: Fermi distribution
 #                Average radius = 5.77538E-13 cm
 #                Skin thickness = 5.46000E-14 cm
 #
 # Number of electrons = 64
 #
 # Total elastic cross section = 7.40567E-18 cm**2 = 2.64461E-01 a0**2
 # 1st transport cross section = 2.56834E-23 cm**2 = 9.17171E-07 a0**2
 # 2nd transport cross section = 7.45596E-23 cm**2 = 2.66257E-06 a0**2
 #
 #
 # Differential cross section:                       MU=(1-COS(THETA))/2
 #
 #  THETA        MU          DCS          DCS        Sherman      error
 #  (deg)                 (cm**2/sr)   (a0**2/sr)    function
 #----------------------------------------------------------------------
0.00000E+00 2.06756E-11
7.61557E-13 2.06734E-11
1.18994E-12 2.06722E-11
1.71346E-12 2.06708E-11
2.33225E-12 2.06690E-11
3.04617E-12 2.06670E-11
3.85530E-12 2.06647E-11
4.75964E-12 2.06622E-11
5.75917E-12 2.06594E-11
6.85391E-12 2.06563E-11
8.04379E-12 2.06530E-11
9.32893E-12 2.06494E-11
1.07092E-11 2.06455E-11
1.21847E-11 2.06414E-11
1.37554E-11 2.06370E-11
1.54213E-11 2.06323E-11
1.71823E-11 2.06274E-11
1.90386E-11 2.06222E-11
2.09900E-11 2.06168E-11
2.30367E-11 2.06110E-11
2.51785E-11 2.06051E-11
2.74156E-11 2.05988E-11
2.97478E-11 2.05923E-11
3.21752E-11 2.05856E-11
3.46979E-11 2.05786E-11
3.73157E-11 2.05713E-11
4.00286E-11 2.05638E-11
4.28368E-11 2.05560E-11
4.57402E-11 2.05479E-11
4.87388E-11 2.05396E-11
5.18325E-11 2.05310E-11
5.50215E-11 2.05222E-11
5.83057E-11 2.05131E-11
6.16850E-11 2.05038E-11
6.51595E-11 2.04942E-11
6.87293E-11 2.04843E-11
7.23943E-11 2.04742E-11
7.61544E-11 2.04638E-11
1.18991E-10 2.03464E-11
1.71347E-10 2.02045E-11
2.33223E-10 2.00388E-11
3.04617E-10 1.98504E-11
3.85531E-10 1.96404E-11
4.75965E-10 1.94101E-11
5.75917E-10 1.91606E-11
6.85389E-10 1.88935E-11
8.04380E-10 1.86101E-11
9.32891E-10 1.83119E-11
1.07092E-09 1.80014E-11
1.21847E-09 1.76785E-11
1.37554E-09 1.73446E-11
1.54213E-09 1.70020E-11
1.71823E-09 1.66535E-11
1.90386E-09 1.62980E-11
2.09900E-09 1.59370E-11
2.30367E-09 1.55748E-11
2.51785E-09 1.52105E-11
2.74156E-09 1.48441E-11
2.97478E-09 1.44778E-11
3.21752E-09 1.41155E-11
3.46978E-09 1.37540E-11
3.73156E-09 1.33941E-11
4.00286E-09 1.30406E-11
4.28368E-09 1.26919E-11
4.57402E-09 1.23469E-11
4.87388E-09 1.20071E-11
5.18326E-09 1.16769E-11
5.50215E-09 1.13518E-11
5.83057E-09 1.10323E-11
6.16850E-09 1.07220E-11
6.51596E-09 1.04199E-11
6.87293E-09 1.01241E-11
7.23942E-09 9.83500E-12
7.61544E-09 9.55726E-12
1.18991E-08 7.19140E-12
1.71347E-08 5.50664E-12
2.33223E-08 4.31493E-12
3.04617E-08 3.45427E-12
3.85531E-08 2.81373E-12
4.75965E-08 2.32251E-12
5.75917E-08 1.93629E-12
6.85389E-08 1.62661E-12
8.04380E-08 1.37506E-12
9.32891E-08 1.16895E-12
1.07092E-07 9.89475E-13
1.21847E-07 8.47148E-13
1.37554E-07 7.34701E-13
1.54213E-07 6.40194E-13
1.71823E-07 5.54870E-13
1.90386E-07 4.85760E-13
2.09900E-07 4.29191E-13
2.30367E-07 3.77973E-13
2.51785E-07 3.34279E-13
2.74156E-07 2.97809E-13
2.97478E-07 2.66446E-13
3.21752E-07 2.37775E-13
3.46978E-07 2.13448E-13
3.73156E-07 1.92674E-13
4.00286E-07 1.73722E-13
4.28368E-07 1.56937E-13
4.57402E-07 1.42422E-13
4.87388E-07 1.29666E-13
5.18325E-07 1.17762E-13
5.50215E-07 1.07360E-13
5.83057E-07 9.82311E-14
6.16850E-07 8.98556E-14
6.51596E-07 8.22614E-14
6.87293E-07 7.55404E-14
7.23942E-07 6.95506E-14
7.61543E-07 6.39324E-14
1.18991E-06 3.01326E-14
1.71347E-06 1.60271E-14
2.33223E-06 9.39361E-15
3.04617E-06 5.90431E-15
3.85531E-06 3.91072E-15
4.75964E-06 2.69078E-15
5.75916E-06 1.90735E-15
6.85388E-06 1.38733E-15
8.04378E-06 1.03199E-15
9.32888E-06 7.82781E-16
1.07092E-05 6.03891E-16
1.21846E-05 4.73718E-16
1.37553E-05 3.76940E-16
1.54212E-05 3.03466E-16
1.71822E-05 2.47178E-16
1.90385E-05 2.03346E-16
2.09899E-05 1.68946E-16
2.30365E-05 1.41511E-16
2.51783E-05 1.19427E-16
2.74153E-05 1.01475E-16
2.97475E-05 8.67420E-17
3.21749E-05 7.45981E-17
3.46974E-05 6.45180E-17
3.73152E-05 5.60798E-17
4.00281E-05 4.89824E-17
4.28362E-05 4.29777E-17
4.57395E-05 3.78627E-17
4.87380E-05 3.34806E-17
5.18317E-05 2.97133E-17
5.50205E-05 2.64599E-17
5.83045E-05 2.36350E-17
6.16838E-05 2.11774E-17
6.51582E-05 1.90317E-17
6.87277E-05 1.71502E-17
7.23925E-05 1.54951E-17
7.61524E-05 1.40352E-17
9.21439E-05 9.66007E-18
1.09658E-04 6.86109E-18
1.28695E-04 5.00537E-18
1.49255E-04 3.73572E-18
1.71338E-04 2.84412E-18
1.94942E-04 2.20309E-18
2.20070E-04 1.73281E-18
2.46720E-04 1.38151E-18
2.74892E-04 1.11483E-18
3.04586E-04 9.09474E-19
3.35803E-04 7.49260E-19
3.68542E-04 6.22797E-19
4.02802E-04 5.21901E-19
4.38585E-04 4.40610E-19
4.75889E-04 3.74531E-19
5.14715E-04 3.20370E-19
5.55063E-04 2.75642E-19
5.96931E-04 2.38441E-19
6.40321E-04 2.07300E-19
6.85233E-04 1.81070E-19
7.31665E-04 1.58853E-19
7.79618E-04 1.39935E-19
8.29092E-04 1.23745E-19
8.80086E-04 1.09825E-19
9.32601E-04 9.78033E-20
9.86636E-04 8.73783E-20
1.04219E-03 7.83031E-20
1.09927E-03 7.03730E-20
1.15786E-03 6.34189E-20
1.21797E-03 5.73007E-20
1.27961E-03 5.19008E-20
1.34276E-03 4.71204E-20
1.40743E-03 4.28764E-20
1.47362E-03 3.90982E-20
1.54133E-03 3.57258E-20
1.61056E-03 3.27082E-20
1.68131E-03 3.00015E-20
1.75357E-03 2.75682E-20
1.82735E-03 2.53759E-20
1.90265E-03 2.33965E-20
1.97947E-03 2.16057E-20
2.05780E-03 1.99824E-20
2.13765E-03 1.85082E-20
2.21902E-03 1.71670E-20
2.30190E-03 1.59447E-20
2.38630E-03 1.48288E-20
2.47222E-03 1.38086E-20
2.55965E-03 1.28742E-20
2.64859E-03 1.20172E-20
2.73905E-03 1.12302E-20
2.83103E-03 1.05062E-20
2.92452E-03 9.83941E-21
3.01952E-03 9.22447E-21
3.11604E-03 8.65664E-21
3.21407E-03 8.13166E-21
3.31362E-03 7.64571E-21
3.41468E-03 7.19537E-21
3.51725E-03 6.77755E-21
3.62133E-03 6.38949E-21
3.72692E-03 6.02870E-21
3.83403E-03 5.69290E-21
3.94265E-03 5.38005E-21
4.05278E-03 5.08830E-21
4.16442E-03 4.81597E-21
4.27757E-03 4.56154E-21
4.39223E-03 4.32360E-21
4.50840E-03 4.10090E-21
4.62608E-03 3.89229E-21
4.74527E-03 3.69671E-21
4.86597E-03 3.51321E-21
4.98817E-03 3.34089E-21
5.11188E-03 3.17895E-21
5.23711E-03 3.02666E-21
5.36383E-03 2.88334E-21
5.49207E-03 2.74835E-21
5.62181E-03 2.62113E-21
5.75306E-03 2.50115E-21
5.88581E-03 2.38791E-21
6.02007E-03 2.28098E-21
6.15583E-03 2.17993E-21
6.29310E-03 2.08439E-21
6.43187E-03 1.99399E-21
6.57214E-03 1.90842E-21
6.71392E-03 1.82736E-21
6.85720E-03 1.75053E-21
7.00198E-03 1.67768E-21
7.14827E-03 1.60856E-21
7.29605E-03 1.54293E-21
7.44534E-03 1.48060E-21
7.59612E-03 1.42137E-21
7.97965E-03 1.28567E-21
8.37255E-03 1.16569E-21
8.77480E-03 1.05931E-21
9.18641E-03 9.64716E-22
9.60736E-03 8.80385E-22
1.00376E-02 8.05012E-22
1.04773E-02 7.37485E-22
1.09262E-02 6.76846E-22
1.13844E-02 6.22273E-22
1.18520E-02 5.73052E-22
1.23288E-02 5.28570E-22
1.28150E-02 4.88290E-22
1.33104E-02 4.51748E-22
1.38150E-02 4.18537E-22
1.43290E-02 3.88299E-22
1.48521E-02 3.60722E-22
1.53845E-02 3.35532E-22
1.59262E-02 3.12485E-22
1.64770E-02 2.91368E-22
1.70371E-02 2.71990E-22
1.76063E-02 2.54183E-22
1.81848E-02 2.37798E-22
1.87724E-02 2.22701E-22
1.93692E-02 2.08773E-22
1.99751E-02 1.95906E-22
2.05901E-02 1.84008E-22
2.12143E-02 1.72990E-22
2.18476E-02 1.62778E-22
2.24900E-02 1.53301E-22
2.31415E-02 1.44497E-22
2.38021E-02 1.36310E-22
2.44717E-02 1.28690E-22
2.51504E-02 1.21589E-22
2.58382E-02 1.14966E-22
2.65349E-02 1.08783E-22
2.72407E-02 1.03007E-22
2.79555E-02 9.76042E-23
2.86793E-02 9.25476E-23
2.94120E-02 8.78107E-23
3.01537E-02 8.33698E-23
3.09043E-02 7.92031E-23
3.16639E-02 7.52905E-23
3.24324E-02 7.16138E-23
3.32098E-02 6.81562E-23
3.39961E-02 6.49024E-23
3.47912E-02 6.18383E-23
3.55952E-02 5.89506E-23
3.64081E-02 5.62275E-23
3.72297E-02 5.36580E-23
3.80602E-02 5.12318E-23
3.88995E-02 4.89395E-23
3.97476E-02 4.67723E-23
4.06044E-02 4.47222E-23
4.14700E-02 4.27819E-23
4.23443E-02 4.09442E-23
4.32273E-02 3.92029E-23
4.41190E-02 3.75519E-23
4.50194E-02 3.59858E-23
4.59284E-02 3.44993E-23
4.68461E-02 3.30878E-23
4.87074E-02 3.04720E-23
5.06030E-02 2.81061E-23
5.25328E-02 2.59624E-23
5.44967E-02 2.40163E-23
5.64946E-02 2.22466E-23
5.85262E-02 2.06346E-23
6.05914E-02 1.91639E-23
6.26901E-02 1.78199E-23
6.48222E-02 1.65898E-23
6.69873E-02 1.54624E-23
6.91854E-02 1.44277E-23
7.14163E-02 1.34766E-23
7.36799E-02 1.26013E-23
7.59760E-02 1.17948E-23
7.83043E-02 1.10506E-23
8.06647E-02 1.03632E-23
8.30571E-02 9.72747E-24
8.54812E-02 9.13885E-24
8.79369E-02 8.59326E-24
9.04240E-02 8.08701E-24
9.29422E-02 7.61679E-24
9.54915E-02 7.17959E-24
9.80716E-02 6.77269E-24
1.00682E-01 6.39364E-24
1.03323E-01 6.04012E-24
1.05995E-01 5.71019E-24
1.08696E-01 5.40200E-24
1.11427E-01 5.11387E-24
1.14188E-01 4.84426E-24
1.16978E-01 4.59180E-24
1.19797E-01 4.35519E-24
1.22645E-01 4.13327E-24
1.25522E-01 3.92497E-24
1.28428E-01 3.72932E-24
1.31361E-01 3.54540E-24
1.34323E-01 3.37241E-24
1.37313E-01 3.20957E-24
1.40330E-01 3.05618E-24
1.43375E-01 2.91162E-24
1.46447E-01 2.77527E-24
1.49545E-01 2.64660E-24
1.52671E-01 2.52509E-24
1.55823E-01 2.41028E-24
1.59001E-01 2.30174E-24
1.62205E-01 2.19906E-24
1.65435E-01 2.10188E-24
1.68690E-01 2.00985E-24
1.71970E-01 1.92265E-24
1.75276E-01 1.83998E-24
1.78606E-01 1.76157E-24
1.81961E-01 1.68716E-24
1.85340E-01 1.61651E-24
1.88743E-01 1.54940E-24
1.92169E-01 1.48562E-24
1.95619E-01 1.42498E-24
1.99092E-01 1.36730E-24
2.02589E-01 1.31240E-24
2.06107E-01 1.26013E-24
2.09649E-01 1.21035E-24
2.13212E-01 1.16291E-24
2.16797E-01 1.11769E-24
2.20404E-01 1.07456E-24
2.24032E-01 1.03341E-24
2.27680E-01 9.94140E-25
2.31350E-01 9.56641E-25
2.35040E-01 9.20824E-25
2.38751E-01 8.86599E-25
2.42481E-01 8.53884E-25
2.46231E-01 8.22602E-25
2.50000E-01 7.92677E-25
2.53788E-01 7.64043E-25
2.57595E-01 7.36634E-25
2.61421E-01 7.10387E-25
2.65264E-01 6.85247E-25
2.69126E-01 6.61158E-25
2.73005E-01 6.38069E-25
2.76901E-01 6.15932E-25
2.80814E-01 5.94700E-25
2.84744E-01 5.74331E-25
2.88691E-01 5.54783E-25
2.92653E-01 5.36019E-25
2.96632E-01 5.18000E-25
3.00625E-01 5.00693E-25
3.04634E-01 4.84065E-25
3.08658E-01 4.68085E-25
3.12697E-01 4.52722E-25
3.16749E-01 4.37951E-25
3.20816E-01 4.23743E-25
3.24896E-01 4.10074E-25
3.28990E-01 3.96920E-25
3.33097E-01 3.84259E-25
3.37216E-01 3.72068E-25
3.41348E-01 3.60328E-25
3.45492E-01 3.49019E-25
3.49647E-01 3.38123E-25
3.53814E-01 3.27622E-25
3.57992E-01 3.17499E-25
3.62181E-01 3.07739E-25
3.66381E-01 2.98327E-25
3.70590E-01 2.89247E-25
3.74810E-01 2.80487E-25
3.79039E-01 2.72033E-25
3.83277E-01 2.63873E-25
3.87524E-01 2.55995E-25
3.91780E-01 2.48387E-25
3.96044E-01 2.41040E-25
4.00316E-01 2.33941E-25
4.04596E-01 2.27083E-25
4.08882E-01 2.20455E-25
4.13176E-01 2.14048E-25
4.17476E-01 2.07853E-25
4.21783E-01 2.01864E-25
4.26095E-01 1.96071E-25
4.30413E-01 1.90467E-25
4.34737E-01 1.85045E-25
4.39065E-01 1.79798E-25
4.43398E-01 1.74720E-25
4.47736E-01 1.69804E-25
4.52077E-01 1.65045E-25
4.56422E-01 1.60436E-25
4.60770E-01 1.55972E-25
4.65122E-01 1.51648E-25
4.69476E-01 1.47459E-25
4.73832E-01 1.43399E-25
4.78190E-01 1.39465E-25
4.82550E-01 1.35651E-25
4.86912E-01 1.31954E-25
4.91274E-01 1.28369E-25
4.95637E-01 1.24893E-25
5.00000E-01 1.21521E-25
5.04363E-01 1.18250E-25
5.08726E-01 1.15077E-25
5.13088E-01 1.11997E-25
5.17450E-01 1.09009E-25
5.21810E-01 1.06109E-25
5.26168E-01 1.03293E-25
5.30524E-01 1.00559E-25
5.34878E-01 9.79045E-26
5.39230E-01 9.53266E-26
5.43578E-01 9.28227E-26
5.47923E-01 9.03904E-26
5.52264E-01 8.80274E-26
5.56602E-01 8.57313E-26
5.60935E-01 8.35000E-26
5.65263E-01 8.13315E-26
5.69587E-01 7.92236E-26
5.73905E-01 7.71744E-26
5.78217E-01 7.51821E-26
5.82524E-01 7.32448E-26
5.86824E-01 7.13609E-26
5.91118E-01 6.95285E-26
5.95404E-01 6.77462E-26
5.99684E-01 6.60123E-26
6.03956E-01 6.43253E-26
6.08220E-01 6.26839E-26
6.12476E-01 6.10865E-26
6.16723E-01 5.95318E-26
6.20961E-01 5.80186E-26
6.25190E-01 5.65455E-26
6.29410E-01 5.51114E-26
6.33619E-01 5.37151E-26
6.37819E-01 5.23555E-26
6.42008E-01 5.10313E-26
6.46186E-01 4.97417E-26
6.50353E-01 4.84856E-26
6.54508E-01 4.72620E-26
6.58652E-01 4.60699E-26
6.62784E-01 4.49084E-26
6.66903E-01 4.37767E-26
6.71010E-01 4.26738E-26
6.75104E-01 4.15990E-26
6.79184E-01 4.05514E-26
6.83251E-01 3.95303E-26
6.87303E-01 3.85348E-26
6.91342E-01 3.75644E-26
6.95366E-01 3.66182E-26
6.99375E-01 3.56956E-26
7.03368E-01 3.47959E-26
7.07347E-01 3.39185E-26
7.11309E-01 3.30628E-26
7.15256E-01 3.22281E-26
7.19186E-01 3.14140E-26
7.23099E-01 3.06198E-26
7.26995E-01 2.98449E-26
7.30874E-01 2.90890E-26
7.34736E-01 2.83513E-26
7.38579E-01 2.76316E-26
7.42405E-01 2.69292E-26
7.46212E-01 2.62437E-26
7.50000E-01 2.55747E-26
7.53769E-01 2.49217E-26
7.57519E-01 2.42843E-26
7.61249E-01 2.36622E-26
7.64960E-01 2.30548E-26
7.68650E-01 2.24618E-26
7.72320E-01 2.18829E-26
7.75968E-01 2.13176E-26
7.79596E-01 2.07657E-26
7.83203E-01 2.02267E-26
7.86788E-01 1.97004E-26
7.90351E-01 1.91865E-26
7.93893E-01 1.86845E-26
7.97411E-01 1.81943E-26
8.00908E-01 1.77155E-26
8.04381E-01 1.72478E-26
8.07831E-01 1.67910E-26
8.11257E-01 1.63448E-26
8.14660E-01 1.59089E-26
8.18039E-01 1.54831E-26
8.21394E-01 1.50672E-26
8.24724E-01 1.46608E-26
8.28030E-01 1.42638E-26
8.31310E-01 1.38759E-26
8.34565E-01 1.34970E-26
8.37795E-01 1.31267E-26
8.40999E-01 1.27650E-26
8.44177E-01 1.24115E-26
8.47329E-01 1.20662E-26
8.50455E-01 1.17288E-26
8.53553E-01 1.13991E-26
8.56625E-01 1.10769E-26
8.59670E-01 1.07621E-26
8.62687E-01 1.04546E-26
8.65677E-01 1.01541E-26
8.68639E-01 9.86044E-27
8.71572E-01 9.57354E-27
8.74478E-01 9.29322E-27
8.77355E-01 9.01933E-27
8.80203E-01 8.75173E-27
8.83022E-01 8.49028E-27
8.85812E-01 8.23485E-27
8.88573E-01 7.98530E-27
8.91304E-01 7.74151E-27
8.94005E-01 7.50336E-27
8.96677E-01 7.27072E-27
8.99318E-01 7.04347E-27
9.01928E-01 6.82151E-27
9.04508E-01 6.60472E-27
9.07058E-01 6.39300E-27
9.09576E-01 6.18623E-27
9.12063E-01 5.98432E-27
9.14519E-01 5.78718E-27
9.16943E-01 5.59469E-27
9.19335E-01 5.40678E-27
9.21696E-01 5.22334E-27
9.24024E-01 5.04430E-27
9.26320E-01 4.86956E-27
9.28584E-01 4.69904E-27
9.30815E-01 4.53266E-27
9.33013E-01 4.37034E-27
9.35178E-01 4.21200E-27
9.37310E-01 4.05758E-27
9.39409E-01 3.90699E-27
9.41474E-01 3.76017E-27
9.43505E-01 3.61705E-27
9.45503E-01 3.47756E-27
9.47467E-01 3.34164E-27
9.49397E-01 3.20923E-27
9.51293E-01 3.08026E-27
9.53154E-01 2.95467E-27
9.54981E-01 2.83242E-27
9.56773E-01 2.71344E-27
9.58530E-01 2.59767E-27
9.60252E-01 2.48508E-27
9.61940E-01 2.37560E-27
9.63592E-01 2.26919E-27
9.65209E-01 2.16579E-27
9.66790E-01 2.06537E-27
9.68336E-01 1.96789E-27
9.69846E-01 1.87328E-27
9.71321E-01 1.78152E-27
9.72759E-01 1.69256E-27
9.74162E-01 1.60637E-27
9.75528E-01 1.52290E-27
9.76858E-01 1.44213E-27
9.78152E-01 1.36401E-27
9.79410E-01 1.28851E-27
9.80631E-01 1.21559E-27
9.81815E-01 1.14523E-27
9.82963E-01 1.07740E-27
9.84074E-01 1.01207E-27
9.85148E-01 9.49198E-28
9.86185E-01 8.88772E-28
9.87185E-01 8.30761E-28
9.88148E-01 7.75139E-28
9.89074E-01 7.21885E-28
9.89962E-01 6.70974E-28
9.90814E-01 6.22385E-28
9.91627E-01 5.76097E-28
9.92404E-01 5.32091E-28
9.93143E-01 4.90348E-28
9.93844E-01 4.50850E-28
9.94508E-01 4.13581E-28
9.95134E-01 3.78525E-28
9.95722E-01 3.45666E-28
9.96273E-01 3.14991E-28
9.96786E-01 2.86488E-28
9.97261E-01 2.60144E-28
9.97698E-01 2.35948E-28
9.98097E-01 2.13889E-28
9.98459E-01 1.93959E-28
9.98782E-01 1.76150E-28
9.99067E-01 1.60453E-28
9.99315E-01 1.46863E-28
9.99524E-01 1.35372E-28
9.99695E-01 1.25978E-28
9.99829E-01 1.18675E-28
9.99924E-01 1.13461E-28
9.99981E-01 1.10334E-28
1.00000E+00 1.09291E-28
