 #
 # Subroutine ELSEPA. Elastic scattering of electrons and positrons
 #                    by neutral atoms and positive ions
 #
 # Projectile: positron
 # Kinetic energy = 8.00000E+08 eV = 2.93995E+07 a.u.
 #
 # WARNING: High-energy factorization with free-atom DF screening.
 #          Absorption, polarization and exchange corrections are
 #          switched off.
 #          Phase shifts are calculated for the bare nucleus.
 #          Scattering amplitudes are not evaluated.
 #
 # Element: Gd,  Z =  64,  atomic weight = 1.57250E+02 g/mol
 #
 # Nuclear model: Fermi distribution
 #                Average radius = 5.77538E-13 cm
 #                Skin thickness = 5.46000E-14 cm
 #
 # Number of electrons = 64
 #
 # Total elastic cross section = 7.34624E-18 cm**2 = 2.62339E-01 a0**2
 # 1st transport cross section = 1.22373E-26 cm**2 = 4.37001E-10 a0**2
 # 2nd transport cross section = 3.67062E-26 cm**2 = 1.31080E-09 a0**2
 #
 #
 # Differential cross section:                       MU=(1-COS(THETA))/2
 #
 #  THETA        MU          DCS          DCS        Sherman      error
 #  (deg)                 (cm**2/sr)   (a0**2/sr)    function
 #----------------------------------------------------------------------
0.00000E+00 5.50699E-08
7.61557E-13 4.27831E-08
1.18994E-12 3.77732E-08
1.71346E-12 3.29042E-08
2.33225E-12 2.84414E-08
3.04617E-12 2.45151E-08
3.85530E-12 2.11474E-08
4.75964E-12 1.83120E-08
5.75917E-12 1.59370E-08
6.85391E-12 1.39576E-08
8.04379E-12 1.22991E-08
9.32893E-12 1.09035E-08
1.07092E-11 9.72019E-09
1.21847E-11 8.70746E-09
1.37554E-11 7.83459E-09
1.54213E-11 7.07518E-09
1.71823E-11 6.41006E-09
1.90386E-11 5.82383E-09
2.09900E-11 5.30343E-09
2.30367E-11 4.84060E-09
2.51785E-11 4.42548E-09
2.74156E-11 4.05411E-09
2.97478E-11 3.71851E-09
3.21752E-11 3.41680E-09
3.46979E-11 3.14329E-09
3.73157E-11 2.88419E-09
4.00286E-11 2.64698E-09
4.28368E-11 2.43847E-09
4.57402E-11 2.25449E-09
4.87388E-11 2.09156E-09
5.18325E-11 1.94676E-09
5.50215E-11 1.81763E-09
5.83057E-11 1.68737E-09
6.16850E-11 1.56584E-09
6.51595E-11 1.45707E-09
6.87293E-11 1.35946E-09
7.23943E-11 1.27160E-09
7.61544E-11 1.19231E-09
1.18991E-10 6.46531E-10
1.71347E-10 3.80187E-10
2.33223E-10 2.36368E-10
3.04617E-10 1.53214E-10
3.85531E-10 1.03199E-10
4.75965E-10 7.18561E-11
5.75917E-10 5.16810E-11
6.85389E-10 3.82048E-11
8.04380E-10 2.89565E-11
9.32891E-10 2.24008E-11
1.07092E-09 1.76254E-11
1.21847E-09 1.40760E-11
1.37554E-09 1.13885E-11
1.54213E-09 9.31289E-12
1.71823E-09 7.68589E-12
1.90386E-09 6.39534E-12
2.09900E-09 5.36090E-12
2.30367E-09 4.52618E-12
2.51785E-09 3.84605E-12
2.74156E-09 3.28870E-12
2.97478E-09 2.82743E-12
3.21752E-09 2.44398E-12
3.46978E-09 2.12275E-12
3.73156E-09 1.85170E-12
4.00286E-09 1.62291E-12
4.28368E-09 1.42951E-12
4.57402E-09 1.26305E-12
4.87388E-09 1.12049E-12
5.18326E-09 9.97965E-13
5.50215E-09 8.91084E-13
5.83057E-09 7.98529E-13
6.16850E-09 7.17758E-13
6.51596E-09 6.46783E-13
6.87293E-09 5.84606E-13
7.23942E-09 5.29627E-13
7.61544E-09 4.80957E-13
1.18991E-08 2.05063E-13
1.71347E-08 1.01613E-13
2.33223E-08 5.58792E-14
3.04617E-08 3.31914E-14
3.85531E-08 2.09225E-14
4.75965E-08 1.38290E-14
5.75917E-08 9.50133E-15
6.85389E-08 6.74130E-15
8.04380E-08 4.91464E-15
9.32891E-08 3.66701E-15
1.07092E-07 2.79143E-15
1.21847E-07 2.16236E-15
1.37554E-07 1.70098E-15
1.54213E-07 1.35637E-15
1.71823E-07 1.09479E-15
1.90386E-07 8.93338E-16
2.09900E-07 7.36162E-16
2.30367E-07 6.12079E-16
2.51785E-07 5.13068E-16
2.74156E-07 4.33286E-16
2.97478E-07 3.68421E-16
3.21752E-07 3.15249E-16
3.46978E-07 2.71329E-16
3.73156E-07 2.34794E-16
4.00286E-07 2.04203E-16
4.28368E-07 1.78435E-16
4.57402E-07 1.56603E-16
4.87388E-07 1.38009E-16
5.18325E-07 1.22094E-16
5.50215E-07 1.08406E-16
5.83057E-07 9.65830E-17
6.16850E-07 8.63278E-17
6.51596E-07 7.73978E-17
6.87293E-07 6.95923E-17
7.23942E-07 6.27462E-17
7.61543E-07 5.67210E-17
1.18991E-06 2.32841E-17
1.71347E-06 1.12416E-17
2.33223E-06 6.07164E-18
3.04617E-06 3.56026E-18
3.85531E-06 2.22302E-18
4.75964E-06 1.45862E-18
5.75916E-06 9.96258E-19
6.85388E-06 7.03394E-19
8.04378E-06 5.10643E-19
9.32888E-06 3.79609E-19
1.07092E-05 2.88027E-19
1.21846E-05 2.22466E-19
1.37553E-05 1.74538E-19
1.54212E-05 1.38846E-19
1.71822E-05 1.11826E-19
1.90385E-05 9.10301E-20
2.09899E-05 7.49180E-20
2.30365E-05 6.22091E-20
2.51783E-05 5.20719E-20
2.74153E-05 4.39079E-20
2.97475E-05 3.72777E-20
3.21749E-05 3.18522E-20
3.46974E-05 2.73807E-20
3.73152E-05 2.36696E-20
4.00281E-05 2.05680E-20
4.28362E-05 1.79590E-20
4.57395E-05 1.57506E-20
4.87380E-05 1.38706E-20
5.18317E-05 1.22620E-20
5.50205E-05 1.08793E-20
5.83045E-05 9.68572E-21
6.16838E-05 8.65141E-21
6.51582E-05 7.75172E-21
6.87277E-05 6.96621E-21
7.23925E-05 6.27786E-21
7.61524E-05 5.70829E-21
9.21439E-05 3.88789E-21
1.09658E-04 2.73494E-21
1.28695E-04 1.97679E-21
1.49255E-04 1.46170E-21
1.71338E-04 1.10226E-21
1.94942E-04 8.45361E-22
2.20070E-04 6.57969E-22
2.46720E-04 5.18799E-22
2.74892E-04 4.13766E-22
3.04586E-04 3.33380E-22
3.35803E-04 2.71062E-22
3.68542E-04 2.22201E-22
4.02802E-04 1.83492E-22
4.38585E-04 1.52538E-22
4.75889E-04 1.27575E-22
5.14715E-04 1.07284E-22
5.55063E-04 9.06750E-23
5.96931E-04 7.69892E-23
6.40321E-04 6.56444E-23
6.85233E-04 5.61878E-23
7.31665E-04 4.82644E-23
7.79618E-04 4.15941E-23
8.29092E-04 3.59538E-23
8.80086E-04 3.11649E-23
9.32601E-04 2.70834E-23
9.86636E-04 2.35924E-23
1.04219E-03 2.05965E-23
1.09927E-03 1.80176E-23
1.15786E-03 1.57913E-23
1.21797E-03 1.38642E-23
1.27961E-03 1.21918E-23
1.34276E-03 1.07371E-23
1.40743E-03 9.46890E-24
1.47362E-03 8.36111E-24
1.54133E-03 7.39154E-24
1.61056E-03 6.54143E-24
1.68131E-03 5.79480E-24
1.75357E-03 5.13804E-24
1.82735E-03 4.55948E-24
1.90265E-03 4.04911E-24
1.97947E-03 3.59834E-24
2.05780E-03 3.19973E-24
2.13765E-03 2.84685E-24
2.21902E-03 2.53416E-24
2.30190E-03 2.25680E-24
2.38630E-03 2.01058E-24
2.47222E-03 1.79183E-24
2.55965E-03 1.59734E-24
2.64859E-03 1.42431E-24
2.73905E-03 1.27027E-24
2.83103E-03 1.13307E-24
2.92452E-03 1.01081E-24
3.01952E-03 9.01816E-25
3.11604E-03 8.04610E-25
3.21407E-03 7.17890E-25
3.31362E-03 6.40505E-25
3.41468E-03 5.71433E-25
3.51725E-03 5.09770E-25
3.62133E-03 4.54715E-25
3.72692E-03 4.05555E-25
3.83403E-03 3.61656E-25
3.94265E-03 3.22456E-25
4.05278E-03 2.87453E-25
4.16442E-03 2.56199E-25
4.27757E-03 2.28296E-25
4.39223E-03 2.03389E-25
4.50840E-03 1.81160E-25
4.62608E-03 1.61325E-25
4.74527E-03 1.43631E-25
4.86597E-03 1.27852E-25
4.98817E-03 1.13784E-25
5.11188E-03 1.01246E-25
5.23711E-03 9.00769E-26
5.36383E-03 8.01302E-26
5.49207E-03 7.12760E-26
5.62181E-03 6.33980E-26
5.75306E-03 5.63916E-26
5.88581E-03 5.01635E-26
6.02007E-03 4.46300E-26
6.15583E-03 3.97161E-26
6.29310E-03 3.53546E-26
6.43187E-03 3.14855E-26
6.57214E-03 2.80548E-26
6.71392E-03 2.50146E-26
6.85720E-03 2.23215E-26
7.00198E-03 1.99372E-26
7.14827E-03 1.78270E-26
7.29605E-03 1.59603E-26
7.44534E-03 1.43095E-26
7.59612E-03 1.28500E-26
7.97965E-03 9.90027E-27
8.37255E-03 7.73335E-27
8.77480E-03 6.13816E-27
9.18641E-03 4.95785E-27
9.60736E-03 4.07662E-27
1.00376E-02 3.40968E-27
1.04773E-02 2.89550E-27
1.09262E-02 2.48989E-27
1.13844E-02 2.16153E-27
1.18520E-02 1.88849E-27
1.23288E-02 1.65568E-27
1.28150E-02 1.45289E-27
1.33104E-02 1.27331E-27
1.38150E-02 1.11254E-27
1.43290E-02 9.67722E-28
1.48521E-02 8.37022E-28
1.53845E-02 7.19238E-28
1.59262E-02 6.13520E-28
1.64770E-02 5.19198E-28
1.70371E-02 4.35661E-28
1.76063E-02 3.62303E-28
1.81848E-02 2.98481E-28
1.87724E-02 2.43512E-28
1.93692E-02 1.96672E-28
1.99751E-02 1.57209E-28
2.05901E-02 1.24358E-28
2.12143E-02 9.73608E-29
2.18476E-02 7.54752E-29
2.24900E-02 5.79942E-29
2.31415E-02 4.42547E-29
2.38021E-02 3.36461E-29
2.44717E-02 2.56157E-29
2.51504E-02 1.96715E-29
2.58382E-02 1.53831E-29
2.65349E-02 1.23800E-29
2.72407E-02 1.03490E-29
2.79555E-02 9.03016E-30
2.86793E-02 8.21221E-30
2.94120E-02 7.72731E-30
3.01537E-02 7.44565E-30
3.09043E-02 7.27006E-30
3.16639E-02 7.13084E-30
3.24324E-02 6.98085E-30
3.32098E-02 6.79109E-30
3.39961E-02 6.54662E-30
3.47912E-02 6.24315E-30
3.55952E-02 5.88395E-30
3.64081E-02 5.47738E-30
3.72297E-02 5.03485E-30
3.80602E-02 4.56915E-30
3.88995E-02 4.09325E-30
3.97476E-02 3.61940E-30
4.06044E-02 3.15846E-30
4.14700E-02 2.71959E-30
4.23443E-02 2.31000E-30
4.32273E-02 1.93495E-30
4.41190E-02 1.59784E-30
4.50194E-02 1.30034E-30
4.59284E-02 1.04263E-30
4.68461E-02 8.23616E-31
4.87074E-02 4.92662E-31
5.06030E-02 2.83266E-31
5.25328E-02 1.66178E-31
5.44967E-02 1.12507E-31
5.64946E-02 9.72115E-32
5.85262E-02 1.00850E-31
6.05914E-02 1.09957E-31
6.26901E-02 1.16488E-31
6.48222E-02 1.16740E-31
6.69873E-02 1.10089E-31
6.91854E-02 9.77831E-32
7.14163E-02 8.19465E-32
7.36799E-02 6.48388E-32
7.59760E-02 4.83918E-32
7.83043E-02 3.39778E-32
8.06647E-02 2.23576E-32
8.30571E-02 1.37474E-32
8.54812E-02 7.94977E-33
8.79369E-02 4.50512E-33
9.04240E-02 2.83310E-33
9.29422E-02 2.34570E-33
9.54915E-02 2.52517E-33
9.80716E-02 2.96688E-33
1.00682E-01 3.39286E-33
1.03323E-01 3.64379E-33
1.05995E-01 3.65771E-33
1.08696E-01 3.44274E-33
1.11427E-01 3.04975E-33
1.14188E-01 2.54855E-33
1.16978E-01 2.00979E-33
1.19797E-01 1.49312E-33
1.22645E-01 1.04108E-33
1.25522E-01 6.77686E-34
1.28428E-01 4.10213E-34
1.31361E-01 2.32947E-34
1.34323E-01 1.31632E-34
1.37313E-01 8.77684E-35
1.40330E-01 8.22049E-35
1.43375E-01 9.77267E-35
1.46447E-01 1.20604E-34
1.49545E-01 1.41210E-34
1.52671E-01 1.53910E-34
1.55823E-01 1.56470E-34
1.59001E-01 1.49205E-34
1.62205E-01 1.34070E-34
1.65435E-01 1.13821E-34
1.68690E-01 9.13429E-35
1.71970E-01 6.91765E-35
1.75276E-01 4.92457E-35
1.78606E-01 3.27564E-35
1.81961E-01 2.02270E-35
1.85340E-01 1.16051E-35
1.88743E-01 6.42741E-36
1.92169E-01 3.98856E-36
1.95619E-01 3.49307E-36
1.99092E-01 4.17572E-36
2.02589E-01 5.38338E-36
2.06107E-01 6.62007E-36
2.09649E-01 7.55867E-36
2.13212E-01 8.02902E-36
2.16797E-01 7.99008E-36
2.20404E-01 7.49452E-36
2.24032E-01 6.65216E-36
2.27680E-01 5.59744E-36
2.31350E-01 4.46365E-36
2.35040E-01 3.36503E-36
2.38751E-01 2.38677E-36
2.42481E-01 1.58153E-36
2.46231E-01 9.71324E-37
2.50000E-01 5.52536E-37
2.53788E-01 3.03007E-37
2.57595E-01 1.89267E-37
2.61421E-01 1.73283E-37
2.65264E-01 2.17908E-37
2.69126E-01 2.90721E-37
2.73005E-01 3.66369E-37
2.76901E-01 4.27331E-37
2.80814E-01 4.63682E-37
2.84744E-01 4.72018E-37
2.88691E-01 4.53879E-37
2.92653E-01 4.14174E-37
2.96632E-01 3.59528E-37
3.00625E-01 2.97043E-37
3.04634E-01 2.33217E-37
3.08658E-01 1.73393E-37
3.12697E-01 1.21327E-37
3.16749E-01 7.92269E-38
3.20816E-01 4.78226E-38
3.24896E-01 1.00000E-45
3.28990E-01 1.00000E-45
3.33097E-01 1.00000E-45
3.37216E-01 1.00000E-45
3.41348E-01 1.00000E-45
3.45492E-01 1.00000E-45
3.49647E-01 1.00000E-45
3.53814E-01 1.00000E-45
3.57992E-01 1.00000E-45
3.62181E-01 1.00000E-45
3.66381E-01 1.00000E-45
3.70590E-01 1.00000E-45
3.74810E-01 1.00000E-45
3.79039E-01 1.00000E-45
3.83277E-01 1.00000E-45
3.87524E-01 1.00000E-45
3.91780E-01 1.00000E-45
3.96044E-01 1.00000E-45
4.00316E-01 1.00000E-45
4.04596E-01 1.00000E-45
4.08882E-01 1.00000E-45
4.13176E-01 1.00000E-45
4.17476E-01 1.00000E-45
4.21783E-01 1.00000E-45
4.26095E-01 1.00000E-45
4.30413E-01 1.00000E-45
4.34737E-01 1.00000E-45
4.39065E-01 1.00000E-45
4.43398E-01 1.00000E-45
4.47736E-01 1.00000E-45
4.52077E-01 1.00000E-45
4.56422E-01 1.00000E-45
4.60770E-01 1.00000E-45
4.65122E-01 1.00000E-45
4.69476E-01 1.00000E-45
4.73832E-01 1.00000E-45
4.78190E-01 1.00000E-45
4.82550E-01 1.00000E-45
4.86912E-01 1.00000E-45
4.91274E-01 1.00000E-45
4.95637E-01 1.00000E-45
5.00000E-01 1.00000E-45
5.04363E-01 1.00000E-45
5.08726E-01 1.00000E-45
5.13088E-01 1.00000E-45
5.17450E-01 1.00000E-45
5.21810E-01 1.00000E-45
5.26168E-01 1.00000E-45
5.30524E-01 1.00000E-45
5.34878E-01 1.00000E-45
5.39230E-01 1.00000E-45
5.43578E-01 1.00000E-45
5.47923E-01 1.00000E-45
5.52264E-01 1.00000E-45
5.56602E-01 1.00000E-45
5.60935E-01 1.00000E-45
5.65263E-01 1.00000E-45
5.69587E-01 1.00000E-45
5.73905E-01 1.00000E-45
5.78217E-01 1.00000E-45
5.82524E-01 1.00000E-45
5.86824E-01 1.00000E-45
5.91118E-01 1.00000E-45
5.95404E-01 1.00000E-45
5.99684E-01 1.00000E-45
6.03956E-01 1.00000E-45
6.08220E-01 1.00000E-45
6.12476E-01 1.00000E-45
6.16723E-01 1.00000E-45
6.20961E-01 1.00000E-45
6.25190E-01 1.00000E-45
6.29410E-01 1.00000E-45
6.33619E-01 1.00000E-45
6.37819E-01 1.00000E-45
6.42008E-01 1.00000E-45
6.46186E-01 1.00000E-45
6.50353E-01 1.00000E-45
6.54508E-01 1.00000E-45
6.58652E-01 1.00000E-45
6.62784E-01 1.00000E-45
6.66903E-01 1.00000E-45
6.71010E-01 1.00000E-45
6.75104E-01 1.00000E-45
6.79184E-01 1.00000E-45
6.83251E-01 1.00000E-45
6.87303E-01 1.00000E-45
6.91342E-01 1.00000E-45
6.95366E-01 1.00000E-45
6.99375E-01 1.00000E-45
7.03368E-01 1.00000E-45
7.07347E-01 1.00000E-45
7.11309E-01 1.00000E-45
7.15256E-01 1.00000E-45
7.19186E-01 1.00000E-45
7.23099E-01 1.00000E-45
7.26995E-01 1.00000E-45
7.30874E-01 1.00000E-45
7.34736E-01 1.00000E-45
7.38579E-01 1.00000E-45
7.42405E-01 1.00000E-45
7.46212E-01 1.00000E-45
7.50000E-01 1.00000E-45
7.53769E-01 1.00000E-45
7.57519E-01 1.00000E-45
7.61249E-01 1.00000E-45
7.64960E-01 1.00000E-45
7.68650E-01 1.00000E-45
7.72320E-01 1.00000E-45
7.75968E-01 1.00000E-45
7.79596E-01 1.00000E-45
7.83203E-01 1.00000E-45
7.86788E-01 1.00000E-45
7.90351E-01 1.00000E-45
7.93893E-01 1.00000E-45
7.97411E-01 1.00000E-45
8.00908E-01 1.00000E-45
8.04381E-01 1.00000E-45
8.07831E-01 1.00000E-45
8.11257E-01 1.00000E-45
8.14660E-01 1.00000E-45
8.18039E-01 1.00000E-45
8.21394E-01 1.00000E-45
8.24724E-01 1.00000E-45
8.28030E-01 1.00000E-45
8.31310E-01 1.00000E-45
8.34565E-01 1.00000E-45
8.37795E-01 1.00000E-45
8.40999E-01 1.00000E-45
8.44177E-01 1.00000E-45
8.47329E-01 1.00000E-45
8.50455E-01 1.00000E-45
8.53553E-01 1.00000E-45
8.56625E-01 1.00000E-45
8.59670E-01 1.00000E-45
8.62687E-01 1.00000E-45
8.65677E-01 1.00000E-45
8.68639E-01 1.00000E-45
8.71572E-01 1.00000E-45
8.74478E-01 1.00000E-45
8.77355E-01 1.00000E-45
8.80203E-01 1.00000E-45
8.83022E-01 1.00000E-45
8.85812E-01 1.00000E-45
8.88573E-01 1.00000E-45
8.91304E-01 1.00000E-45
8.94005E-01 1.00000E-45
8.96677E-01 1.00000E-45
8.99318E-01 1.00000E-45
9.01928E-01 1.00000E-45
9.04508E-01 1.00000E-45
9.07058E-01 1.00000E-45
9.09576E-01 1.00000E-45
9.12063E-01 1.00000E-45
9.14519E-01 1.00000E-45
9.16943E-01 1.00000E-45
9.19335E-01 1.00000E-45
9.21696E-01 1.00000E-45
9.24024E-01 1.00000E-45
9.26320E-01 1.00000E-45
9.28584E-01 1.00000E-45
9.30815E-01 1.00000E-45
9.33013E-01 1.00000E-45
9.35178E-01 1.00000E-45
9.37310E-01 1.00000E-45
9.39409E-01 1.00000E-45
9.41474E-01 1.00000E-45
9.43505E-01 1.00000E-45
9.45503E-01 1.00000E-45
9.47467E-01 1.00000E-45
9.49397E-01 1.00000E-45
9.51293E-01 1.00000E-45
9.53154E-01 1.00000E-45
9.54981E-01 1.00000E-45
9.56773E-01 1.00000E-45
9.58530E-01 1.00000E-45
9.60252E-01 1.00000E-45
9.61940E-01 1.00000E-45
9.63592E-01 1.00000E-45
9.65209E-01 1.00000E-45
9.66790E-01 1.00000E-45
9.68336E-01 1.00000E-45
9.69846E-01 1.00000E-45
9.71321E-01 1.00000E-45
9.72759E-01 1.00000E-45
9.74162E-01 1.00000E-45
9.75528E-01 1.00000E-45
9.76858E-01 1.00000E-45
9.78152E-01 1.00000E-45
9.79410E-01 1.00000E-45
9.80631E-01 1.00000E-45
9.81815E-01 1.00000E-45
9.82963E-01 1.00000E-45
9.84074E-01 1.00000E-45
9.85148E-01 1.00000E-45
9.86185E-01 1.00000E-45
9.87185E-01 1.00000E-45
9.88148E-01 1.00000E-45
9.89074E-01 1.00000E-45
9.89962E-01 1.00000E-45
9.90814E-01 1.00000E-45
9.91627E-01 1.00000E-45
9.92404E-01 1.00000E-45
9.93143E-01 1.00000E-45
9.93844E-01 1.00000E-45
9.94508E-01 1.00000E-45
9.95134E-01 1.00000E-45
9.95722E-01 1.00000E-45
9.96273E-01 1.00000E-45
9.96786E-01 1.00000E-45
9.97261E-01 1.00000E-45
9.97698E-01 1.00000E-45
9.98097E-01 1.00000E-45
9.98459E-01 1.00000E-45
9.98782E-01 1.00000E-45
9.99067E-01 1.00000E-45
9.99315E-01 1.00000E-45
9.99524E-01 1.00000E-45
9.99695E-01 1.00000E-45
9.99829E-01 1.00000E-45
9.99924E-01 1.00000E-45
9.99981E-01 1.00000E-45
1.00000E+00 1.00000E-45
