 #
 # Subroutine ELSEPA. Elastic scattering of electrons and positrons
 #                    by neutral atoms and positive ions
 #
 # Projectile: electron
 # Kinetic energy = 1.00000E+07 eV = 3.67493E+05 a.u.
 #
 # WARNING: High-energy factorization with free-atom DF screening.
 #          Absorption, polarization and exchange corrections are
 #          switched off.
 #          Phase shifts are calculated for the bare nucleus.
 #          Scattering amplitudes are not evaluated.
 #
 # Element: Ga,  Z =  31,  atomic weight = 6.97230E+01 g/mol
 #
 # Nuclear model: Fermi distribution
 #                Average radius = 4.40395E-13 cm
 #                Skin thickness = 5.46000E-14 cm
 #
 # Number of electrons = 31
 #
 # Total elastic cross section = 2.18689E-18 cm**2 = 7.80954E-02 a0**2
 # 1st transport cross section = 1.50163E-23 cm**2 = 5.36242E-07 a0**2
 # 2nd transport cross section = 4.28128E-23 cm**2 = 1.52887E-06 a0**2
 #
 #
 # Differential cross section:                       MU=(1-COS(THETA))/2
 #
 #  THETA        MU          DCS          DCS        Sherman      error
 #  (deg)                 (cm**2/sr)   (a0**2/sr)    function
 #----------------------------------------------------------------------
0.00000E+00 2.13334E-12
7.61557E-13 2.13327E-12
1.18994E-12 2.13323E-12
1.71346E-12 2.13318E-12
2.33225E-12 2.13313E-12
3.04617E-12 2.13306E-12
3.85530E-12 2.13298E-12
4.75964E-12 2.13290E-12
5.75917E-12 2.13281E-12
6.85391E-12 2.13271E-12
8.04379E-12 2.13260E-12
9.32893E-12 2.13248E-12
1.07092E-11 2.13235E-12
1.21847E-11 2.13222E-12
1.37554E-11 2.13207E-12
1.54213E-11 2.13192E-12
1.71823E-11 2.13176E-12
1.90386E-11 2.13158E-12
2.09900E-11 2.13140E-12
2.30367E-11 2.13122E-12
2.51785E-11 2.13102E-12
2.74156E-11 2.13081E-12
2.97478E-11 2.13060E-12
3.21752E-11 2.13037E-12
3.46979E-11 2.13014E-12
3.73157E-11 2.12990E-12
4.00286E-11 2.12965E-12
4.28368E-11 2.12939E-12
4.57402E-11 2.12913E-12
4.87388E-11 2.12885E-12
5.18325E-11 2.12857E-12
5.50215E-11 2.12827E-12
5.83057E-11 2.12797E-12
6.16850E-11 2.12766E-12
6.51595E-11 2.12734E-12
6.87293E-11 2.12702E-12
7.23943E-11 2.12668E-12
7.61544E-11 2.12633E-12
1.18991E-10 2.12241E-12
1.71347E-10 2.11764E-12
2.33223E-10 2.11202E-12
3.04617E-10 2.10557E-12
3.85531E-10 2.09829E-12
4.75965E-10 2.09022E-12
5.75917E-10 2.08135E-12
6.85389E-10 2.07172E-12
8.04380E-10 2.06133E-12
9.32891E-10 2.05021E-12
1.07092E-09 2.03838E-12
1.21847E-09 2.02587E-12
1.37554E-09 2.01269E-12
1.54213E-09 1.99887E-12
1.71823E-09 1.98444E-12
1.90386E-09 1.96942E-12
2.09900E-09 1.95383E-12
2.30367E-09 1.93765E-12
2.51785E-09 1.92099E-12
2.74156E-09 1.90388E-12
2.97478E-09 1.88637E-12
3.21752E-09 1.86847E-12
3.46978E-09 1.85003E-12
3.73156E-09 1.83124E-12
4.00286E-09 1.81215E-12
4.28368E-09 1.79280E-12
4.57402E-09 1.77322E-12
4.87388E-09 1.75326E-12
5.18326E-09 1.73303E-12
5.50215E-09 1.71264E-12
5.83057E-09 1.69214E-12
6.16850E-09 1.67153E-12
6.51596E-09 1.65073E-12
6.87293E-09 1.62971E-12
7.23942E-09 1.60866E-12
7.61544E-09 1.58761E-12
1.18991E-08 1.37790E-12
1.71347E-08 1.18047E-12
2.33223E-08 1.00438E-12
3.04617E-08 8.52786E-13
3.85531E-08 7.25104E-13
4.75965E-08 6.18900E-13
5.75917E-08 5.31073E-13
6.85389E-08 4.58505E-13
8.04380E-08 3.98414E-13
9.32891E-08 3.48450E-13
1.07092E-07 3.06659E-13
1.21847E-07 2.71464E-13
1.37554E-07 2.41606E-13
1.54213E-07 2.16085E-13
1.71823E-07 1.94110E-13
1.90386E-07 1.75053E-13
2.09900E-07 1.58287E-13
2.30367E-07 1.42623E-13
2.51785E-07 1.29342E-13
2.74156E-07 1.18008E-13
2.97478E-07 1.08276E-13
3.21752E-07 9.98693E-14
3.46978E-07 9.11815E-14
3.73156E-07 8.34586E-14
4.00286E-07 7.67391E-14
4.28368E-07 7.08642E-14
4.57402E-07 6.57040E-14
4.87388E-07 6.05848E-14
5.18325E-07 5.57778E-14
5.50215E-07 5.15333E-14
5.83057E-07 4.77712E-14
6.16850E-07 4.44245E-14
6.51596E-07 4.12429E-14
6.87293E-07 3.81448E-14
7.23942E-07 3.53769E-14
7.61543E-07 3.28966E-14
1.18991E-06 1.64762E-14
1.71347E-06 8.86295E-15
2.33223E-06 5.11624E-15
3.04617E-06 3.15254E-15
3.85531E-06 2.05533E-15
4.75964E-06 1.40396E-15
5.75916E-06 9.95673E-16
6.85388E-06 7.27613E-16
8.04378E-06 5.44876E-16
9.32888E-06 4.16260E-16
1.07092E-05 3.23326E-16
1.21846E-05 2.54746E-16
1.37553E-05 2.03251E-16
1.54212E-05 1.63998E-16
1.71822E-05 1.33667E-16
1.90385E-05 1.09938E-16
2.09899E-05 9.12001E-17
2.30365E-05 7.62129E-17
2.51783E-05 6.42275E-17
2.74153E-05 5.44327E-17
2.97475E-05 4.64589E-17
3.21749E-05 3.98651E-17
3.46974E-05 3.44110E-17
3.73152E-05 2.98510E-17
4.00281E-05 2.60272E-17
4.28362E-05 2.27943E-17
4.57395E-05 2.00503E-17
4.87380E-05 1.77067E-17
5.18317E-05 1.56968E-17
5.50205E-05 1.39645E-17
5.83045E-05 1.24653E-17
6.16838E-05 1.11628E-17
6.51582E-05 1.00266E-17
6.87277E-05 9.03219E-18
7.23925E-05 8.15837E-18
7.61524E-05 7.38846E-18
9.21439E-05 5.08633E-18
1.09658E-04 3.61662E-18
1.28695E-04 2.64234E-18
1.49255E-04 1.97542E-18
1.71338E-04 1.50644E-18
1.94942E-04 1.16875E-18
2.20070E-04 9.20612E-19
2.46720E-04 7.34960E-19
2.74892E-04 5.93814E-19
3.04586E-04 4.84975E-19
3.35803E-04 3.99955E-19
3.68542E-04 3.32771E-19
4.02802E-04 2.79114E-19
4.38585E-04 2.35845E-19
4.75889E-04 2.00644E-19
5.14715E-04 1.71771E-19
5.55063E-04 1.47910E-19
5.96931E-04 1.28052E-19
6.40321E-04 1.11419E-19
6.85233E-04 9.74019E-20
7.31665E-04 8.55221E-20
7.79618E-04 7.54007E-20
8.29092E-04 6.67341E-20
8.80086E-04 5.92786E-20
9.32601E-04 5.28367E-20
9.86636E-04 4.72474E-20
1.04219E-03 4.23787E-20
1.09927E-03 3.81221E-20
1.15786E-03 3.43874E-20
1.21797E-03 3.10996E-20
1.27961E-03 2.81961E-20
1.34276E-03 2.56242E-20
1.40743E-03 2.33394E-20
1.47362E-03 2.13041E-20
1.54133E-03 1.94863E-20
1.61056E-03 1.78587E-20
1.68131E-03 1.63978E-20
1.75357E-03 1.50836E-20
1.82735E-03 1.38987E-20
1.90265E-03 1.28282E-20
1.97947E-03 1.18590E-20
2.05780E-03 1.09798E-20
2.13765E-03 1.01808E-20
2.21902E-03 9.45340E-21
2.30190E-03 8.78994E-21
2.38630E-03 8.18383E-21
2.47222E-03 7.62920E-21
2.55965E-03 7.12089E-21
2.64859E-03 6.65434E-21
2.73905E-03 6.22549E-21
2.83103E-03 5.83073E-21
2.92452E-03 5.46686E-21
3.01952E-03 5.13102E-21
3.11604E-03 4.82066E-21
3.21407E-03 4.53348E-21
3.31362E-03 4.26744E-21
3.41468E-03 4.02069E-21
3.51725E-03 3.79158E-21
3.62133E-03 3.57861E-21
3.72692E-03 3.38044E-21
3.83403E-03 3.19584E-21
3.94265E-03 3.02372E-21
4.05278E-03 2.86307E-21
4.16442E-03 2.71298E-21
4.27757E-03 2.57264E-21
4.39223E-03 2.44129E-21
4.50840E-03 2.31825E-21
4.62608E-03 2.20289E-21
4.74527E-03 2.09465E-21
4.86597E-03 1.99300E-21
4.98817E-03 1.89746E-21
5.11188E-03 1.80760E-21
5.23711E-03 1.72303E-21
5.36383E-03 1.64336E-21
5.49207E-03 1.56826E-21
5.62181E-03 1.49742E-21
5.75306E-03 1.43055E-21
5.88581E-03 1.36739E-21
6.02007E-03 1.30769E-21
6.15583E-03 1.25123E-21
6.29310E-03 1.19779E-21
6.43187E-03 1.14719E-21
6.57214E-03 1.09925E-21
6.71392E-03 1.05379E-21
6.85720E-03 1.01067E-21
7.00198E-03 9.69747E-22
7.14827E-03 9.30881E-22
7.29605E-03 8.93952E-22
7.44534E-03 8.58845E-22
7.59612E-03 8.25452E-22
7.97965E-03 7.48833E-22
8.37255E-03 6.80940E-22
8.77480E-03 6.20605E-22
9.18641E-03 5.66837E-22
9.60736E-03 5.18794E-22
1.00376E-02 4.75760E-22
1.04773E-02 4.37117E-22
1.09262E-02 4.02339E-22
1.13844E-02 3.70969E-22
1.18520E-02 3.42612E-22
1.23288E-02 3.16928E-22
1.28150E-02 2.93619E-22
1.33104E-02 2.72424E-22
1.38150E-02 2.53118E-22
1.43290E-02 2.35502E-22
1.48521E-02 2.19399E-22
1.53845E-02 2.04658E-22
1.59262E-02 1.91140E-22
1.64770E-02 1.78727E-22
1.70371E-02 1.67310E-22
1.76063E-02 1.56796E-22
1.81848E-02 1.47100E-22
1.87724E-02 1.38146E-22
1.93692E-02 1.29866E-22
1.99751E-02 1.22202E-22
2.05901E-02 1.15098E-22
2.12143E-02 1.08505E-22
2.18476E-02 1.02381E-22
2.24900E-02 9.66848E-23
2.31415E-02 9.13818E-23
2.38021E-02 8.64397E-23
2.44717E-02 8.18290E-23
2.51504E-02 7.75236E-23
2.58382E-02 7.34991E-23
2.65349E-02 6.97341E-23
2.72407E-02 6.62084E-23
2.79555E-02 6.29040E-23
2.86793E-02 5.98044E-23
2.94120E-02 5.68946E-23
3.01537E-02 5.41605E-23
3.09043E-02 5.15897E-23
3.16639E-02 4.91705E-23
3.24324E-02 4.68922E-23
3.32098E-02 4.47451E-23
3.39961E-02 4.27203E-23
3.47912E-02 4.08093E-23
3.55952E-02 3.90045E-23
3.64081E-02 3.72990E-23
3.72297E-02 3.56862E-23
3.80602E-02 3.41601E-23
3.88995E-02 3.27151E-23
3.97476E-02 3.13462E-23
4.06044E-02 3.00485E-23
4.14700E-02 2.88176E-23
4.23443E-02 2.76495E-23
4.32273E-02 2.65402E-23
4.41190E-02 2.54862E-23
4.50194E-02 2.44844E-23
4.59284E-02 2.35315E-23
4.68461E-02 2.26248E-23
4.87074E-02 2.09392E-23
5.06030E-02 1.94083E-23
5.25328E-02 1.80155E-23
5.44967E-02 1.67459E-23
5.64946E-02 1.55866E-23
5.85262E-02 1.45263E-23
6.05914E-02 1.35549E-23
6.26901E-02 1.26637E-23
6.48222E-02 1.18447E-23
6.69873E-02 1.10911E-23
6.91854E-02 1.03966E-23
7.14163E-02 9.75576E-24
7.36799E-02 9.16365E-24
7.59760E-02 8.61588E-24
7.83043E-02 8.10848E-24
8.06647E-02 7.63794E-24
8.30571E-02 7.20109E-24
8.54812E-02 6.79503E-24
8.79369E-02 6.41719E-24
9.04240E-02 6.06529E-24
9.29422E-02 5.73714E-24
9.54915E-02 5.43087E-24
9.80716E-02 5.14477E-24
1.00682E-01 4.87722E-24
1.03323E-01 4.62681E-24
1.05995E-01 4.39222E-24
1.08696E-01 4.17228E-24
1.11427E-01 3.96589E-24
1.14188E-01 3.77207E-24
1.16978E-01 3.58989E-24
1.19797E-01 3.41854E-24
1.22645E-01 3.25723E-24
1.25522E-01 3.10528E-24
1.28428E-01 2.96204E-24
1.31361E-01 2.82691E-24
1.34323E-01 2.69935E-24
1.37313E-01 2.57885E-24
1.40330E-01 2.46495E-24
1.43375E-01 2.35721E-24
1.46447E-01 2.25525E-24
1.49545E-01 2.15869E-24
1.52671E-01 2.06719E-24
1.55823E-01 1.98043E-24
1.59001E-01 1.89813E-24
1.62205E-01 1.82001E-24
1.65435E-01 1.74582E-24
1.68690E-01 1.67533E-24
1.71970E-01 1.60830E-24
1.75276E-01 1.54455E-24
1.78606E-01 1.48388E-24
1.81961E-01 1.42611E-24
1.85340E-01 1.37109E-24
1.88743E-01 1.31864E-24
1.92169E-01 1.26864E-24
1.95619E-01 1.22094E-24
1.99092E-01 1.17542E-24
2.02589E-01 1.13196E-24
2.06107E-01 1.09045E-24
2.09649E-01 1.05078E-24
2.13212E-01 1.01286E-24
2.16797E-01 9.76602E-25
2.20404E-01 9.41910E-25
2.24032E-01 9.08709E-25
2.27680E-01 8.76921E-25
2.31350E-01 8.46475E-25
2.35040E-01 8.17303E-25
2.38751E-01 7.89343E-25
2.42481E-01 7.62535E-25
2.46231E-01 7.36822E-25
2.50000E-01 7.12151E-25
2.53788E-01 6.88472E-25
2.57595E-01 6.65738E-25
2.61421E-01 6.43903E-25
2.65264E-01 6.22927E-25
2.69126E-01 6.02768E-25
2.73005E-01 5.83388E-25
2.76901E-01 5.64753E-25
2.80814E-01 5.46829E-25
2.84744E-01 5.29582E-25
2.88691E-01 5.12983E-25
2.92653E-01 4.97003E-25
2.96632E-01 4.81615E-25
3.00625E-01 4.66792E-25
3.04634E-01 4.52510E-25
3.08658E-01 4.38746E-25
3.12697E-01 4.25477E-25
3.16749E-01 4.12682E-25
3.20816E-01 4.00342E-25
3.24896E-01 3.88436E-25
3.28990E-01 3.76948E-25
3.33097E-01 3.65860E-25
3.37216E-01 3.55154E-25
3.41348E-01 3.44817E-25
3.45492E-01 3.34832E-25
3.49647E-01 3.25185E-25
3.53814E-01 3.15864E-25
3.57992E-01 3.06854E-25
3.62181E-01 2.98144E-25
3.66381E-01 2.89722E-25
3.70590E-01 2.81577E-25
3.74810E-01 2.73698E-25
3.79039E-01 2.66074E-25
3.83277E-01 2.58696E-25
3.87524E-01 2.51555E-25
3.91780E-01 2.44642E-25
3.96044E-01 2.37947E-25
4.00316E-01 2.31464E-25
4.04596E-01 2.25183E-25
4.08882E-01 2.19099E-25
4.13176E-01 2.13202E-25
4.17476E-01 2.07488E-25
4.21783E-01 2.01948E-25
4.26095E-01 1.96577E-25
4.30413E-01 1.91368E-25
4.34737E-01 1.86317E-25
4.39065E-01 1.81416E-25
4.43398E-01 1.76662E-25
4.47736E-01 1.72049E-25
4.52077E-01 1.67572E-25
4.56422E-01 1.63226E-25
4.60770E-01 1.59006E-25
4.65122E-01 1.54910E-25
4.69476E-01 1.50931E-25
4.73832E-01 1.47067E-25
4.78190E-01 1.43313E-25
4.82550E-01 1.39666E-25
4.86912E-01 1.36123E-25
4.91274E-01 1.32679E-25
4.95637E-01 1.29331E-25
5.00000E-01 1.26077E-25
5.04363E-01 1.22913E-25
5.08726E-01 1.19837E-25
5.13088E-01 1.16845E-25
5.17450E-01 1.13935E-25
5.21810E-01 1.11105E-25
5.26168E-01 1.08351E-25
5.30524E-01 1.05671E-25
5.34878E-01 1.03064E-25
5.39230E-01 1.00526E-25
5.43578E-01 9.80555E-26
5.47923E-01 9.56507E-26
5.52264E-01 9.33094E-26
5.56602E-01 9.10296E-26
5.60935E-01 8.88095E-26
5.65263E-01 8.66472E-26
5.69587E-01 8.45410E-26
5.73905E-01 8.24892E-26
5.78217E-01 8.04903E-26
5.82524E-01 7.85425E-26
5.86824E-01 7.66445E-26
5.91118E-01 7.47946E-26
5.95404E-01 7.29917E-26
5.99684E-01 7.12341E-26
6.03956E-01 6.95208E-26
6.08220E-01 6.78502E-26
6.12476E-01 6.62214E-26
6.16723E-01 6.46329E-26
6.20961E-01 6.30838E-26
6.25190E-01 6.15728E-26
6.29410E-01 6.00989E-26
6.33619E-01 5.86611E-26
6.37819E-01 5.72583E-26
6.42008E-01 5.58896E-26
6.46186E-01 5.45540E-26
6.50353E-01 5.32507E-26
6.54508E-01 5.19786E-26
6.58652E-01 5.07370E-26
6.62784E-01 4.95251E-26
6.66903E-01 4.83420E-26
6.71010E-01 4.71869E-26
6.75104E-01 4.60591E-26
6.79184E-01 4.49579E-26
6.83251E-01 4.38826E-26
6.87303E-01 4.28325E-26
6.91342E-01 4.18068E-26
6.95366E-01 4.08051E-26
6.99375E-01 3.98265E-26
7.03368E-01 3.88706E-26
7.07347E-01 3.79368E-26
7.11309E-01 3.70244E-26
7.15256E-01 3.61330E-26
7.19186E-01 3.52620E-26
7.23099E-01 3.44108E-26
7.26995E-01 3.35790E-26
7.30874E-01 3.27660E-26
7.34736E-01 3.19715E-26
7.38579E-01 3.11949E-26
7.42405E-01 3.04358E-26
7.46212E-01 2.96938E-26
7.50000E-01 2.89684E-26
7.53769E-01 2.82592E-26
7.57519E-01 2.75659E-26
7.61249E-01 2.68880E-26
7.64960E-01 2.62251E-26
7.68650E-01 2.55770E-26
7.72320E-01 2.49432E-26
7.75968E-01 2.43234E-26
7.79596E-01 2.37173E-26
7.83203E-01 2.31245E-26
7.86788E-01 2.25448E-26
7.90351E-01 2.19777E-26
7.93893E-01 2.14231E-26
7.97411E-01 2.08807E-26
8.00908E-01 2.03501E-26
8.04381E-01 1.98310E-26
8.07831E-01 1.93233E-26
8.11257E-01 1.88266E-26
8.14660E-01 1.83407E-26
8.18039E-01 1.78654E-26
8.21394E-01 1.74004E-26
8.24724E-01 1.69455E-26
8.28030E-01 1.65004E-26
8.31310E-01 1.60650E-26
8.34565E-01 1.56390E-26
8.37795E-01 1.52222E-26
8.40999E-01 1.48144E-26
8.44177E-01 1.44154E-26
8.47329E-01 1.40251E-26
8.50455E-01 1.36432E-26
8.53553E-01 1.32696E-26
8.56625E-01 1.29040E-26
8.59670E-01 1.25464E-26
8.62687E-01 1.21965E-26
8.65677E-01 1.18542E-26
8.68639E-01 1.15193E-26
8.71572E-01 1.11917E-26
8.74478E-01 1.08712E-26
8.77355E-01 1.05576E-26
8.80203E-01 1.02509E-26
8.83022E-01 9.95092E-27
8.85812E-01 9.65747E-27
8.88573E-01 9.37044E-27
8.91304E-01 9.08971E-27
8.94005E-01 8.81515E-27
8.96677E-01 8.54665E-27
8.99318E-01 8.28407E-27
9.01928E-01 8.02732E-27
9.04508E-01 7.77628E-27
9.07058E-01 7.53084E-27
9.09576E-01 7.29088E-27
9.12063E-01 7.05632E-27
9.14519E-01 6.82705E-27
9.16943E-01 6.60297E-27
9.19335E-01 6.38398E-27
9.21696E-01 6.17000E-27
9.24024E-01 5.96094E-27
9.26320E-01 5.75670E-27
9.28584E-01 5.55720E-27
9.30815E-01 5.36236E-27
9.33013E-01 5.17209E-27
9.35178E-01 4.98632E-27
9.37310E-01 4.80498E-27
9.39409E-01 4.62798E-27
9.41474E-01 4.45526E-27
9.43505E-01 4.28674E-27
9.45503E-01 4.12236E-27
9.47467E-01 3.96205E-27
9.49397E-01 3.80574E-27
9.51293E-01 3.65338E-27
9.53154E-01 3.50489E-27
9.54981E-01 3.36023E-27
9.56773E-01 3.21933E-27
9.58530E-01 3.08214E-27
9.60252E-01 2.94861E-27
9.61940E-01 2.81867E-27
9.63592E-01 2.69229E-27
9.65209E-01 2.56940E-27
9.66790E-01 2.44997E-27
9.68336E-01 2.33395E-27
9.69846E-01 2.22128E-27
9.71321E-01 2.11193E-27
9.72759E-01 2.00586E-27
9.74162E-01 1.90302E-27
9.75528E-01 1.80337E-27
9.76858E-01 1.70688E-27
9.78152E-01 1.61350E-27
9.79410E-01 1.52321E-27
9.80631E-01 1.43597E-27
9.81815E-01 1.35174E-27
9.82963E-01 1.27050E-27
9.84074E-01 1.19220E-27
9.85148E-01 1.11683E-27
9.86185E-01 1.04435E-27
9.87185E-01 9.74740E-28
9.88148E-01 9.07968E-28
9.89074E-01 8.44010E-28
9.89962E-01 7.82844E-28
9.90814E-01 7.24445E-28
9.91627E-01 6.68792E-28
9.92404E-01 6.15864E-28
9.93143E-01 5.65641E-28
9.93844E-01 5.18105E-28
9.94508E-01 4.73238E-28
9.95134E-01 4.31022E-28
9.95722E-01 3.91443E-28
9.96273E-01 3.54486E-28
9.96786E-01 3.20136E-28
9.97261E-01 2.88382E-28
9.97698E-01 2.59211E-28
9.98097E-01 2.32613E-28
9.98459E-01 2.08577E-28
9.98782E-01 1.87095E-28
9.99067E-01 1.68160E-28
9.99315E-01 1.51763E-28
9.99524E-01 1.37899E-28
9.99695E-01 1.26562E-28
9.99829E-01 1.17749E-28
9.99924E-01 1.11457E-28
9.99981E-01 1.07682E-28
1.00000E+00 1.06424E-28
