 #
 # Subroutine ELSEPA. Elastic scattering of electrons and positrons
 #                    by neutral atoms and positive ions
 #
 # Projectile: electron
 # Kinetic energy = 3.50000E+08 eV = 1.28623E+07 a.u.
 #
 # WARNING: High-energy factorization with free-atom DF screening.
 #          Absorption, polarization and exchange corrections are
 #          switched off.
 #          Phase shifts are calculated for the bare nucleus.
 #          Scattering amplitudes are not evaluated.
 #
 # Element: Ga,  Z =  31,  atomic weight = 6.97230E+01 g/mol
 #
 # Nuclear model: Fermi distribution
 #                Average radius = 4.40395E-13 cm
 #                Skin thickness = 5.46000E-14 cm
 #
 # Number of electrons = 31
 #
 # Total elastic cross section = 2.18151E-18 cm**2 = 7.79033E-02 a0**2
 # 1st transport cross section = 1.59922E-26 cm**2 = 5.71091E-10 a0**2
 # 2nd transport cross section = 4.79327E-26 cm**2 = 1.71171E-09 a0**2
 #
 #
 # Differential cross section:                       MU=(1-COS(THETA))/2
 #
 #  THETA        MU          DCS          DCS        Sherman      error
 #  (deg)                 (cm**2/sr)   (a0**2/sr)    function
 #----------------------------------------------------------------------
0.00000E+00 2.37233E-09
7.61557E-13 2.28792E-09
1.18994E-12 2.24269E-09
1.71346E-12 2.18945E-09
2.33225E-12 2.12913E-09
3.04617E-12 2.06323E-09
3.85530E-12 1.99253E-09
4.75964E-12 1.91835E-09
5.75917E-12 1.84199E-09
6.85391E-12 1.76388E-09
8.04379E-12 1.68549E-09
9.32893E-12 1.60757E-09
1.07092E-11 1.53034E-09
1.21847E-11 1.45498E-09
1.37554E-11 1.38166E-09
1.54213E-11 1.31061E-09
1.71823E-11 1.24251E-09
1.90386E-11 1.17713E-09
2.09900E-11 1.11476E-09
2.30367E-11 1.05566E-09
2.51785E-11 9.99374E-10
2.74156E-11 9.46244E-10
2.97478E-11 8.96208E-10
3.21752E-11 8.48828E-10
3.46979E-11 8.04379E-10
3.73157E-11 7.62602E-10
4.00286E-11 7.23255E-10
4.28368E-11 6.86428E-10
4.57402E-11 6.51814E-10
4.87388E-11 6.19318E-10
5.18325E-11 5.88924E-10
5.50215E-11 5.60311E-10
5.83057E-11 5.33498E-10
6.16850E-11 5.08403E-10
6.51595E-11 4.84721E-10
6.87293E-11 4.62545E-10
7.23943E-11 4.41723E-10
7.61544E-11 4.22081E-10
1.18991E-10 2.78267E-10
1.71347E-10 1.93983E-10
2.33223E-10 1.38891E-10
3.04617E-10 1.04098E-10
3.85531E-10 7.84815E-11
4.75965E-10 6.01079E-11
5.75917E-10 4.68599E-11
6.85389E-10 3.63974E-11
8.04380E-10 2.86894E-11
9.32891E-10 2.28284E-11
1.07092E-09 1.82152E-11
1.21847E-09 1.47069E-11
1.37554E-09 1.19586E-11
1.54213E-09 9.79339E-12
1.71823E-09 8.09604E-12
1.90386E-09 6.73790E-12
2.09900E-09 5.65169E-12
2.30367E-09 4.77772E-12
2.51785E-09 4.06443E-12
2.74156E-09 3.48190E-12
2.97478E-09 3.00211E-12
3.21752E-09 2.60289E-12
3.46978E-09 2.26981E-12
3.73156E-09 1.98963E-12
4.00286E-09 1.75220E-12
4.28368E-09 1.55031E-12
4.57402E-09 1.37734E-12
4.87388E-09 1.22822E-12
5.18326E-09 1.09932E-12
5.50215E-09 9.87048E-13
5.83057E-09 8.89069E-13
6.16850E-09 8.03288E-13
6.51596E-09 7.27523E-13
6.87293E-09 6.60692E-13
7.23942E-09 6.01455E-13
7.61544E-09 5.48624E-13
1.18991E-08 2.41442E-13
1.71347E-08 1.21216E-13
2.33223E-08 6.69074E-14
3.04617E-08 3.97808E-14
3.85531E-08 2.50935E-14
4.75965E-08 1.66055E-14
5.75917E-08 1.14263E-14
6.85389E-08 8.12277E-15
8.04380E-08 5.93373E-15
9.32891E-08 4.43625E-15
1.07092E-07 3.38354E-15
1.21847E-07 2.62550E-15
1.37554E-07 2.06854E-15
1.54213E-07 1.65172E-15
1.71823E-07 1.33476E-15
1.90386E-07 1.09029E-15
2.09900E-07 8.99241E-16
2.30367E-07 7.48240E-16
2.51785E-07 6.27600E-16
2.74156E-07 5.30295E-16
2.97478E-07 4.51118E-16
3.21752E-07 3.86156E-16
3.46978E-07 3.32467E-16
3.73156E-07 2.87777E-16
4.00286E-07 2.50342E-16
4.28368E-07 2.18793E-16
4.57402E-07 1.92054E-16
4.87388E-07 1.69274E-16
5.18325E-07 1.49769E-16
5.50215E-07 1.32991E-16
5.83057E-07 1.18496E-16
6.16850E-07 1.05921E-16
6.51596E-07 9.49690E-17
6.87293E-07 8.53953E-17
7.23942E-07 7.69971E-17
7.61543E-07 6.96056E-17
1.18991E-06 2.85764E-17
1.71347E-06 1.37973E-17
2.33223E-06 7.45260E-18
3.04617E-06 4.37061E-18
3.85531E-06 2.72949E-18
4.75964E-06 1.79131E-18
5.75916E-06 1.22377E-18
6.85388E-06 8.64239E-19
8.04378E-06 6.27575E-19
9.32888E-06 4.66662E-19
1.07092E-05 3.54177E-19
1.21846E-05 2.73636E-19
1.37553E-05 2.14745E-19
1.54212E-05 1.70881E-19
1.71822E-05 1.37668E-19
1.90385E-05 1.12137E-19
2.09899E-05 9.22816E-20
2.30365E-05 7.66314E-20
2.51783E-05 6.41595E-20
2.74153E-05 5.41220E-20
2.97475E-05 4.59716E-20
3.21749E-05 3.92994E-20
3.46974E-05 3.37959E-20
3.73152E-05 2.92242E-20
4.00281E-05 2.54012E-20
4.28362E-05 2.21840E-20
4.57395E-05 1.94606E-20
4.87380E-05 1.71424E-20
5.18317E-05 1.51592E-20
5.50205E-05 1.34545E-20
5.83045E-05 1.19828E-20
6.16838E-05 1.07071E-20
6.51582E-05 9.59685E-21
6.87277E-05 8.62706E-21
7.23925E-05 7.77685E-21
7.61524E-05 7.01888E-21
9.21439E-05 4.79390E-21
1.09658E-04 3.38431E-21
1.28695E-04 2.45659E-21
1.49255E-04 1.82575E-21
1.71338E-04 1.38485E-21
1.94942E-04 1.06918E-21
2.20070E-04 8.38399E-22
2.46720E-04 6.66542E-22
2.74892E-04 5.36440E-22
3.04586E-04 4.36506E-22
3.35803E-04 3.58719E-22
3.68542E-04 2.97451E-22
4.02802E-04 2.48668E-22
4.38585E-04 2.09440E-22
4.75889E-04 1.77611E-22
5.14715E-04 1.51569E-22
5.55063E-04 1.30099E-22
5.96931E-04 1.12271E-22
6.40321E-04 9.73713E-23
6.85233E-04 8.48418E-23
7.31665E-04 7.42451E-23
7.79618E-04 6.52356E-23
8.29092E-04 5.75369E-23
8.80086E-04 5.09276E-23
9.32601E-04 4.52285E-23
9.86636E-04 4.02938E-23
1.04219E-03 3.60043E-23
1.09927E-03 3.22618E-23
1.15786E-03 2.89851E-23
1.21797E-03 2.61066E-23
1.27961E-03 2.35701E-23
1.34276E-03 2.13282E-23
1.40743E-03 1.93411E-23
1.47362E-03 1.75750E-23
1.54133E-03 1.60014E-23
1.61056E-03 1.45957E-23
1.68131E-03 1.33371E-23
1.75357E-03 1.22076E-23
1.82735E-03 1.11920E-23
1.90265E-03 1.02766E-23
1.97947E-03 9.45019E-24
2.05780E-03 8.70253E-24
2.13765E-03 8.02494E-24
2.21902E-03 7.40977E-24
2.30190E-03 6.85033E-24
2.38630E-03 6.34076E-24
2.47222E-03 5.87588E-24
2.55965E-03 5.45114E-24
2.64859E-03 5.06252E-24
2.73905E-03 4.70645E-24
2.83103E-03 4.37976E-24
2.92452E-03 4.07965E-24
3.01952E-03 3.80361E-24
3.11604E-03 3.54939E-24
3.21407E-03 3.31501E-24
3.31362E-03 3.09866E-24
3.41468E-03 2.89875E-24
3.51725E-03 2.71383E-24
3.62133E-03 2.54260E-24
3.72692E-03 2.38389E-24
3.83403E-03 2.23665E-24
3.94265E-03 2.09991E-24
4.05278E-03 1.97282E-24
4.16442E-03 1.85459E-24
4.27757E-03 1.74451E-24
4.39223E-03 1.64193E-24
4.50840E-03 1.54627E-24
4.62608E-03 1.45699E-24
4.74527E-03 1.37360E-24
4.86597E-03 1.29566E-24
4.98817E-03 1.22275E-24
5.11188E-03 1.15452E-24
5.23711E-03 1.09061E-24
5.36383E-03 1.03071E-24
5.49207E-03 9.74529E-25
5.62181E-03 9.21813E-25
5.75306E-03 8.72314E-25
5.88581E-03 8.25808E-25
6.02007E-03 7.82091E-25
6.15583E-03 7.40972E-25
6.29310E-03 7.02275E-25
6.43187E-03 6.65839E-25
6.57214E-03 6.31515E-25
6.71392E-03 5.99164E-25
6.85720E-03 5.68657E-25
7.00198E-03 5.39877E-25
7.14827E-03 5.12712E-25
7.29605E-03 4.87061E-25
7.44534E-03 4.62828E-25
7.59612E-03 4.39927E-25
7.97965E-03 3.87969E-25
8.37255E-03 3.42696E-25
8.77480E-03 3.03155E-25
9.18641E-03 2.68545E-25
9.60736E-03 2.38190E-25
1.00376E-02 2.11514E-25
1.04773E-02 1.88031E-25
1.09262E-02 1.67322E-25
1.13844E-02 1.49031E-25
1.18520E-02 1.32852E-25
1.23288E-02 1.18521E-25
1.28150E-02 1.05810E-25
1.33104E-02 9.45232E-26
1.38150E-02 8.44886E-26
1.43290E-02 7.55583E-26
1.48521E-02 6.76028E-26
1.53845E-02 6.05094E-26
1.59262E-02 5.41791E-26
1.64770E-02 4.85255E-26
1.70371E-02 4.34726E-26
1.76063E-02 3.89537E-26
1.81848E-02 3.49098E-26
1.87724E-02 3.12891E-26
1.93692E-02 2.80456E-26
1.99751E-02 2.51388E-26
2.05901E-02 2.25328E-26
2.12143E-02 2.01956E-26
2.18476E-02 1.80989E-26
2.24900E-02 1.62174E-26
2.31415E-02 1.45289E-26
2.38021E-02 1.30131E-26
2.44717E-02 1.16524E-26
2.51504E-02 1.04308E-26
2.58382E-02 9.33404E-27
2.65349E-02 8.34939E-27
2.72407E-02 7.46545E-27
2.79555E-02 6.67201E-27
2.86793E-02 5.95992E-27
2.94120E-02 5.32096E-27
3.01537E-02 4.74775E-27
3.09043E-02 4.23368E-27
3.16639E-02 3.77278E-27
3.24324E-02 3.35972E-27
3.32098E-02 2.98969E-27
3.39961E-02 2.65834E-27
3.47912E-02 2.36178E-27
3.55952E-02 2.09651E-27
3.64081E-02 1.85937E-27
3.72297E-02 1.64751E-27
3.80602E-02 1.45836E-27
3.88995E-02 1.28962E-27
3.97476E-02 1.13921E-27
4.06044E-02 1.00524E-27
4.14700E-02 8.86038E-28
4.23443E-02 7.80068E-28
4.32273E-02 6.85962E-28
4.41190E-02 6.02484E-28
4.50194E-02 5.28518E-28
4.59284E-02 4.63063E-28
4.68461E-02 4.05215E-28
4.87074E-02 3.09171E-28
5.06030E-02 2.34814E-28
5.25328E-02 1.77641E-28
5.44967E-02 1.34018E-28
5.64946E-02 1.01022E-28
5.85262E-02 7.63111E-29
6.05914E-02 5.80095E-29
6.26901E-02 4.46258E-29
6.48222E-02 3.49785E-29
6.69873E-02 2.81366E-29
6.91854E-02 2.33716E-29
7.14163E-02 2.01177E-29
7.36799E-02 1.79394E-29
7.59760E-02 1.65054E-29
7.83043E-02 1.55667E-29
8.06647E-02 1.49393E-29
8.30571E-02 1.44900E-29
8.54812E-02 1.41252E-29
8.79369E-02 1.37814E-29
9.04240E-02 1.34180E-29
9.29422E-02 1.30114E-29
9.54915E-02 1.25507E-29
9.80716E-02 1.20334E-29
1.00682E-01 1.14634E-29
1.03323E-01 1.08482E-29
1.05995E-01 1.01975E-29
1.08696E-01 9.52216E-30
1.11427E-01 8.83312E-30
1.14188E-01 8.14081E-30
1.16978E-01 7.45482E-30
1.19797E-01 6.78357E-30
1.22645E-01 6.13426E-30
1.25522E-01 5.51277E-30
1.28428E-01 4.92370E-30
1.31361E-01 4.37047E-30
1.34323E-01 3.85536E-30
1.37313E-01 3.37969E-30
1.40330E-01 2.94389E-30
1.43375E-01 2.54769E-30
1.46447E-01 2.19018E-30
1.49545E-01 1.86996E-30
1.52671E-01 1.58524E-30
1.55823E-01 1.33396E-30
1.59001E-01 1.11387E-30
1.62205E-01 9.22555E-31
1.65435E-01 7.57589E-31
1.68690E-01 6.16523E-31
1.71970E-01 4.96955E-31
1.75276E-01 3.96564E-31
1.78606E-01 3.13136E-31
1.81961E-01 2.44584E-31
1.85340E-01 1.88965E-31
1.88743E-01 1.44485E-31
1.92169E-01 1.09509E-31
1.95619E-01 8.25560E-32
1.99092E-01 6.22985E-32
2.02589E-01 4.75580E-32
2.06107E-01 3.72975E-32
2.09649E-01 3.06132E-32
2.13212E-01 2.67249E-32
2.16797E-01 2.49669E-32
2.20404E-01 2.47769E-32
2.24032E-01 2.56865E-32
2.27680E-01 2.73109E-32
2.31350E-01 2.93392E-32
2.35040E-01 3.15253E-32
2.38751E-01 3.36793E-32
2.42481E-01 3.56595E-32
2.46231E-01 3.73647E-32
2.50000E-01 3.87280E-32
2.53788E-01 3.97105E-32
2.57595E-01 4.02959E-32
2.61421E-01 4.04860E-32
2.65264E-01 4.02964E-32
2.69126E-01 3.97531E-32
2.73005E-01 3.88892E-32
2.76901E-01 3.77426E-32
2.80814E-01 3.63541E-32
2.84744E-01 3.47649E-32
2.88691E-01 3.30163E-32
2.92653E-01 3.11477E-32
2.96632E-01 2.91962E-32
3.00625E-01 2.71961E-32
3.04634E-01 2.51784E-32
3.08658E-01 2.31706E-32
3.12697E-01 2.11964E-32
3.16749E-01 1.92763E-32
3.20816E-01 1.74270E-32
3.24896E-01 1.56621E-32
3.28990E-01 1.39919E-32
3.33097E-01 1.24242E-32
3.37216E-01 1.09639E-32
3.41348E-01 9.61379E-33
3.45492E-01 8.37471E-33
3.49647E-01 7.24572E-33
3.53814E-01 6.22442E-33
3.57992E-01 5.30725E-33
3.62181E-01 4.48968E-33
3.66381E-01 3.76646E-33
3.70590E-01 3.13177E-33
3.74810E-01 2.57943E-33
3.79039E-01 2.10306E-33
3.83277E-01 1.69618E-33
3.87524E-01 1.35234E-33
3.91780E-01 1.06525E-33
3.96044E-01 8.28782E-34
4.00316E-01 6.37099E-34
4.04596E-01 4.84671E-34
4.08882E-01 3.66321E-34
4.13176E-01 2.77239E-34
4.17476E-01 2.13005E-34
4.21783E-01 1.69588E-34
4.26095E-01 1.43345E-34
4.30413E-01 1.31014E-34
4.34737E-01 1.29702E-34
4.39065E-01 1.36863E-34
4.43398E-01 1.50286E-34
4.47736E-01 1.68067E-34
4.52077E-01 1.88590E-34
4.56422E-01 2.10501E-34
4.60770E-01 2.32683E-34
4.65122E-01 2.54238E-34
4.69476E-01 2.74454E-34
4.73832E-01 2.92793E-34
4.78190E-01 3.08863E-34
4.82550E-01 3.22398E-34
4.86912E-01 3.33246E-34
4.91274E-01 3.41342E-34
4.95637E-01 3.46699E-34
5.00000E-01 3.49395E-34
5.04363E-01 3.49551E-34
5.08726E-01 3.47332E-34
5.13088E-01 3.42927E-34
5.17450E-01 3.36545E-34
5.21810E-01 3.28408E-34
5.26168E-01 3.18741E-34
5.30524E-01 3.07770E-34
5.34878E-01 2.95717E-34
5.39230E-01 2.82795E-34
5.43578E-01 2.69206E-34
5.47923E-01 2.55142E-34
5.52264E-01 2.40777E-34
5.56602E-01 2.26271E-34
5.60935E-01 2.11769E-34
5.65263E-01 1.97398E-34
5.69587E-01 1.83273E-34
5.73905E-01 1.69488E-34
5.78217E-01 1.56126E-34
5.82524E-01 1.43256E-34
5.86824E-01 1.30932E-34
5.91118E-01 1.19196E-34
5.95404E-01 1.08080E-34
5.99684E-01 9.76040E-35
6.03956E-01 8.77806E-35
6.08220E-01 7.86133E-35
6.12476E-01 7.00988E-35
6.16723E-01 6.22274E-35
6.20961E-01 5.49844E-35
6.25190E-01 4.83505E-35
6.29410E-01 4.23032E-35
6.33619E-01 3.68166E-35
6.37819E-01 3.18631E-35
6.42008E-01 2.74133E-35
6.46186E-01 2.34368E-35
6.50353E-01 1.99025E-35
6.54508E-01 1.67795E-35
6.58652E-01 1.40367E-35
6.62784E-01 1.16438E-35
6.66903E-01 9.57116E-36
6.71010E-01 7.79021E-36
6.75104E-01 6.27344E-36
6.79184E-01 4.99471E-36
6.83251E-01 3.92923E-36
6.87303E-01 3.05372E-36
6.91342E-01 2.34629E-36
6.95366E-01 1.78669E-36
6.99375E-01 1.35610E-36
7.03368E-01 1.03725E-36
7.07347E-01 8.14288E-37
7.11309E-01 6.72840E-37
7.15256E-01 5.99813E-37
7.19186E-01 5.83481E-37
7.23099E-01 6.13315E-37
7.26995E-01 6.79967E-37
7.30874E-01 7.75165E-37
7.34736E-01 8.91654E-37
7.38579E-01 1.02311E-36
7.42405E-01 1.16409E-36
7.46212E-01 1.30991E-36
7.50000E-01 1.45663E-36
7.53769E-01 1.60095E-36
7.57519E-01 1.74017E-36
7.61249E-01 1.87211E-36
7.64960E-01 1.99503E-36
7.68650E-01 2.10764E-36
7.72320E-01 2.20899E-36
7.75968E-01 2.29847E-36
7.79596E-01 2.37571E-36
7.83203E-01 2.44059E-36
7.86788E-01 2.49318E-36
7.90351E-01 2.53373E-36
7.93893E-01 2.56261E-36
7.97411E-01 2.58031E-36
8.00908E-01 2.58740E-36
8.04381E-01 2.58450E-36
8.07831E-01 2.57230E-36
8.11257E-01 2.55153E-36
8.14660E-01 2.52289E-36
8.18039E-01 2.48712E-36
8.21394E-01 2.44496E-36
8.24724E-01 2.39714E-36
8.28030E-01 2.34432E-36
8.31310E-01 2.28719E-36
8.34565E-01 2.22641E-36
8.37795E-01 2.16254E-36
8.40999E-01 2.09620E-36
8.44177E-01 2.02790E-36
8.47329E-01 1.95817E-36
8.50455E-01 1.88744E-36
8.53553E-01 1.81613E-36
8.56625E-01 1.74466E-36
8.59670E-01 1.67334E-36
8.62687E-01 1.60249E-36
8.65677E-01 1.53240E-36
8.68639E-01 1.46333E-36
8.71572E-01 1.39545E-36
8.74478E-01 1.32899E-36
8.77355E-01 1.26409E-36
8.80203E-01 1.20090E-36
8.83022E-01 1.13950E-36
8.85812E-01 1.08001E-36
8.88573E-01 1.02249E-36
8.91304E-01 9.67001E-37
8.94005E-01 9.13570E-37
8.96677E-01 8.62209E-37
8.99318E-01 8.12943E-37
9.01928E-01 7.65755E-37
9.04508E-01 7.20634E-37
9.07058E-01 6.77561E-37
9.09576E-01 6.36501E-37
9.12063E-01 5.97416E-37
9.14519E-01 5.60260E-37
9.16943E-01 5.24982E-37
9.19335E-01 4.91536E-37
9.21696E-01 4.59857E-37
9.24024E-01 4.29888E-37
9.26320E-01 4.01573E-37
9.28584E-01 3.74839E-37
9.30815E-01 3.49632E-37
9.33013E-01 3.25883E-37
9.35178E-01 3.03535E-37
9.37310E-01 2.82523E-37
9.39409E-01 2.62771E-37
9.41474E-01 2.44237E-37
9.43505E-01 2.26858E-37
9.45503E-01 2.10566E-37
9.47467E-01 1.95318E-37
9.49397E-01 1.81046E-37
9.51293E-01 1.67698E-37
9.53154E-01 1.55229E-37
9.54981E-01 1.43593E-37
9.56773E-01 1.32735E-37
9.58530E-01 1.22610E-37
9.60252E-01 1.13177E-37
9.61940E-01 1.04392E-37
9.63592E-01 9.62178E-38
9.65209E-01 8.86170E-38
9.66790E-01 8.15562E-38
9.68336E-01 7.49929E-38
9.69846E-01 6.89065E-38
9.71321E-01 6.32546E-38
9.72759E-01 5.80165E-38
9.74162E-01 5.31627E-38
9.75528E-01 4.86708E-38
9.76858E-01 4.45073E-38
9.78152E-01 4.06563E-38
9.79410E-01 3.70942E-38
9.80631E-01 3.38034E-38
9.81815E-01 3.07647E-38
9.82963E-01 2.79564E-38
9.84074E-01 2.53674E-38
9.85148E-01 2.29756E-38
9.86185E-01 2.07738E-38
9.87185E-01 1.87435E-38
9.88148E-01 1.68764E-38
9.89074E-01 1.51570E-38
9.89962E-01 1.35754E-38
9.90814E-01 1.21256E-38
9.91627E-01 1.07946E-38
9.92404E-01 9.57238E-39
9.93143E-01 8.45606E-39
9.93844E-01 7.43275E-39
9.94508E-01 6.50143E-39
9.95134E-01 5.65244E-39
9.95722E-01 4.88147E-39
9.96273E-01 4.18148E-39
9.96786E-01 3.54963E-39
9.97261E-01 2.98144E-39
9.97698E-01 2.47056E-39
9.98097E-01 2.01823E-39
9.98459E-01 1.61604E-39
9.98782E-01 1.26335E-39
9.99067E-01 9.58966E-40
9.99315E-01 6.99430E-40
9.99524E-01 4.84008E-40
9.99695E-01 3.08766E-40
9.99829E-01 1.74285E-40
9.99924E-01 7.84351E-41
9.99981E-01 2.15931E-41
1.00000E+00 2.54419E-42
