 #
 # Subroutine ELSEPA. Elastic scattering of electrons and positrons
 #                    by neutral atoms and positive ions
 #
 # Projectile: electron
 # Kinetic energy = 6.00000E+06 eV = 2.20496E+05 a.u.
 #
 # WARNING: High-energy factorization with free-atom DF screening.
 #          Absorption, polarization and exchange corrections are
 #          switched off.
 #          Phase shifts are calculated for the bare nucleus.
 #          Scattering amplitudes are not evaluated.
 #
 # Element: Ga,  Z =  31,  atomic weight = 6.97230E+01 g/mol
 #
 # Nuclear model: Fermi distribution
 #                Average radius = 4.40395E-13 cm
 #                Skin thickness = 5.46000E-14 cm
 #
 # Number of electrons = 31
 #
 # Total elastic cross section = 2.19620E-18 cm**2 = 7.84279E-02 a0**2
 # 1st transport cross section = 3.66863E-23 cm**2 = 1.31009E-06 a0**2
 # 2nd transport cross section = 1.04040E-22 cm**2 = 3.71535E-06 a0**2
 #
 #
 # Differential cross section:                       MU=(1-COS(THETA))/2
 #
 #  THETA        MU          DCS          DCS        Sherman      error
 #  (deg)                 (cm**2/sr)   (a0**2/sr)    function
 #----------------------------------------------------------------------
0.00000E+00 8.18593E-13
7.61557E-13 8.18582E-13
1.18994E-12 8.18576E-13
1.71346E-12 8.18569E-13
2.33225E-12 8.18561E-13
3.04617E-12 8.18551E-13
3.85530E-12 8.18540E-13
4.75964E-12 8.18528E-13
5.75917E-12 8.18515E-13
6.85391E-12 8.18500E-13
8.04379E-12 8.18484E-13
9.32893E-12 8.18466E-13
1.07092E-11 8.18448E-13
1.21847E-11 8.18428E-13
1.37554E-11 8.18406E-13
1.54213E-11 8.18384E-13
1.71823E-11 8.18360E-13
1.90386E-11 8.18335E-13
2.09900E-11 8.18309E-13
2.30367E-11 8.18281E-13
2.51785E-11 8.18252E-13
2.74156E-11 8.18222E-13
2.97478E-11 8.18190E-13
3.21752E-11 8.18157E-13
3.46979E-11 8.18123E-13
3.73157E-11 8.18088E-13
4.00286E-11 8.18051E-13
4.28368E-11 8.18013E-13
4.57402E-11 8.17974E-13
4.87388E-11 8.17934E-13
5.18325E-11 8.17892E-13
5.50215E-11 8.17849E-13
5.83057E-11 8.17805E-13
6.16850E-11 8.17759E-13
6.51595E-11 8.17712E-13
6.87293E-11 8.17664E-13
7.23943E-11 8.17614E-13
7.61544E-11 8.17564E-13
1.18991E-10 8.16986E-13
1.71347E-10 8.16281E-13
2.33223E-10 8.15449E-13
3.04617E-10 8.14492E-13
3.85531E-10 8.13408E-13
4.75965E-10 8.12201E-13
5.75917E-10 8.10869E-13
6.85389E-10 8.09416E-13
8.04380E-10 8.07840E-13
9.32891E-10 8.06145E-13
1.07092E-09 8.04331E-13
1.21847E-09 8.02400E-13
1.37554E-09 8.00352E-13
1.54213E-09 7.98190E-13
1.71823E-09 7.95916E-13
1.90386E-09 7.93530E-13
2.09900E-09 7.91036E-13
2.30367E-09 7.88434E-13
2.51785E-09 7.85726E-13
2.74156E-09 7.82916E-13
2.97478E-09 7.80004E-13
3.21752E-09 7.76992E-13
3.46978E-09 7.73884E-13
3.73156E-09 7.70681E-13
4.00286E-09 7.67385E-13
4.28368E-09 7.63999E-13
4.57402E-09 7.60525E-13
4.87388E-09 7.56966E-13
5.18326E-09 7.53323E-13
5.50215E-09 7.49596E-13
5.83057E-09 7.45776E-13
6.16850E-09 7.41885E-13
6.51596E-09 7.37925E-13
6.87293E-09 7.33900E-13
7.23942E-09 7.29812E-13
7.61544E-09 7.25665E-13
1.18991E-08 6.81080E-13
1.71347E-08 6.32654E-13
2.33223E-08 5.82648E-13
3.04617E-08 5.32998E-13
3.85531E-08 4.85125E-13
4.75965E-08 4.40000E-13
5.75917E-08 3.98193E-13
6.85389E-08 3.59895E-13
8.04380E-08 3.25244E-13
9.32891E-08 2.94121E-13
1.07092E-07 2.66309E-13
1.21847E-07 2.41537E-13
1.37554E-07 2.19487E-13
1.54213E-07 1.99888E-13
1.71823E-07 1.82481E-13
1.90386E-07 1.67009E-13
2.09900E-07 1.53235E-13
2.30367E-07 1.40948E-13
2.51785E-07 1.29945E-13
2.74156E-07 1.20087E-13
2.97478E-07 1.11232E-13
3.21752E-07 1.03256E-13
3.46978E-07 9.60516E-14
3.73156E-07 8.95136E-14
4.00286E-07 8.35689E-14
4.28368E-07 7.81534E-14
4.57402E-07 7.32063E-14
4.87388E-07 6.86751E-14
5.18325E-07 6.45116E-14
5.50215E-07 6.06096E-14
5.83057E-07 5.67885E-14
6.16850E-07 5.33431E-14
6.51596E-07 5.02285E-14
6.87293E-07 4.74059E-14
7.23942E-07 4.48418E-14
7.61543E-07 4.25071E-14
1.18991E-06 2.53796E-14
1.71347E-06 1.57100E-14
2.33223E-06 9.99708E-15
3.04617E-06 6.55303E-15
3.85531E-06 4.41869E-15
4.75964E-06 3.06306E-15
5.75916E-06 2.18083E-15
6.85388E-06 1.59172E-15
8.04378E-06 1.19003E-15
9.32888E-06 9.09126E-16
1.07092E-05 7.07955E-16
1.21846E-05 5.60660E-16
1.37553E-05 4.50564E-16
1.54212E-05 3.66639E-16
1.71822E-05 3.01726E-16
1.90385E-05 2.50751E-16
2.09899E-05 2.10260E-16
2.30365E-05 1.77652E-16
2.51783E-05 1.51085E-16
2.74153E-05 1.29274E-16
2.97475E-05 1.11229E-16
3.21749E-05 9.61974E-17
3.46974E-05 8.35978E-17
3.73152E-05 7.29680E-17
4.00281E-05 6.39552E-17
4.28362E-05 5.62763E-17
4.57395E-05 4.97013E-17
4.87380E-05 4.40459E-17
5.18317E-05 3.91608E-17
5.50205E-05 3.49202E-17
5.83045E-05 3.12215E-17
6.16838E-05 2.80084E-17
6.51582E-05 2.52063E-17
6.87277E-05 2.27296E-17
7.23925E-05 2.05494E-17
7.61524E-05 1.86285E-17
9.21439E-05 1.28530E-17
1.09658E-04 9.14814E-18
1.28695E-04 6.68878E-18
1.49255E-04 5.00477E-18
1.71338E-04 3.82052E-18
1.94942E-04 2.96781E-18
2.20070E-04 2.34092E-18
2.46720E-04 1.87163E-18
2.74892E-04 1.51457E-18
3.04586E-04 1.23897E-18
3.35803E-04 1.02342E-18
3.68542E-04 8.52864E-19
4.02802E-04 7.16421E-19
4.38585E-04 6.06238E-19
4.75889E-04 5.16469E-19
5.14715E-04 4.42729E-19
5.55063E-04 3.81702E-19
5.96931E-04 3.30835E-19
6.40321E-04 2.88167E-19
6.85233E-04 2.52163E-19
7.31665E-04 2.21613E-19
7.79618E-04 1.95554E-19
8.29092E-04 1.73215E-19
8.80086E-04 1.53976E-19
9.32601E-04 1.37336E-19
9.86636E-04 1.22886E-19
1.04219E-03 1.10288E-19
1.09927E-03 9.92644E-20
1.15786E-03 8.95846E-20
1.21797E-03 8.10570E-20
1.27961E-03 7.35212E-20
1.34276E-03 6.68419E-20
1.40743E-03 6.09048E-20
1.47362E-03 5.56131E-20
1.54133E-03 5.08842E-20
1.61056E-03 4.66480E-20
1.68131E-03 4.28442E-20
1.75357E-03 3.94208E-20
1.82735E-03 3.63331E-20
1.90265E-03 3.35423E-20
1.97947E-03 3.10147E-20
2.05780E-03 2.87212E-20
2.13765E-03 2.66362E-20
2.21902E-03 2.47374E-20
2.30190E-03 2.30051E-20
2.38630E-03 2.14221E-20
2.47222E-03 1.99733E-20
2.55965E-03 1.86451E-20
2.64859E-03 1.74258E-20
2.73905E-03 1.63048E-20
2.83103E-03 1.52727E-20
2.92452E-03 1.43211E-20
3.01952E-03 1.34428E-20
3.11604E-03 1.26309E-20
3.21407E-03 1.18796E-20
3.31362E-03 1.11834E-20
3.41468E-03 1.05377E-20
3.51725E-03 9.93803E-21
3.62133E-03 9.38055E-21
3.72692E-03 8.86173E-21
3.83403E-03 8.37840E-21
3.94265E-03 7.92768E-21
4.05278E-03 7.50696E-21
4.16442E-03 7.11387E-21
4.27757E-03 6.74627E-21
4.39223E-03 6.40219E-21
4.50840E-03 6.07984E-21
4.62608E-03 5.77760E-21
4.74527E-03 5.49398E-21
4.86597E-03 5.22761E-21
4.98817E-03 4.97725E-21
5.11188E-03 4.74175E-21
5.23711E-03 4.52008E-21
5.36383E-03 4.31125E-21
5.49207E-03 4.11440E-21
5.62181E-03 3.92869E-21
5.75306E-03 3.75340E-21
5.88581E-03 3.58780E-21
6.02007E-03 3.43128E-21
6.15583E-03 3.28324E-21
6.29310E-03 3.14313E-21
6.43187E-03 3.01045E-21
6.57214E-03 2.88472E-21
6.71392E-03 2.76552E-21
6.85720E-03 2.65244E-21
7.00198E-03 2.54511E-21
7.14827E-03 2.44317E-21
7.29605E-03 2.34631E-21
7.44534E-03 2.25423E-21
7.59612E-03 2.16664E-21
7.97965E-03 1.96565E-21
8.37255E-03 1.78755E-21
8.77480E-03 1.62925E-21
9.18641E-03 1.48818E-21
9.60736E-03 1.36212E-21
1.00376E-02 1.24920E-21
1.04773E-02 1.14779E-21
1.09262E-02 1.05652E-21
1.13844E-02 9.74195E-22
1.18520E-02 8.99772E-22
1.23288E-02 8.32359E-22
1.28150E-02 7.71176E-22
1.33104E-02 7.15543E-22
1.38150E-02 6.64865E-22
1.43290E-02 6.18619E-22
1.48521E-02 5.76348E-22
1.53845E-02 5.37646E-22
1.59262E-02 5.02158E-22
1.64770E-02 4.69567E-22
1.70371E-02 4.39593E-22
1.76063E-02 4.11986E-22
1.81848E-02 3.86526E-22
1.87724E-02 3.63014E-22
1.93692E-02 3.41274E-22
1.99751E-02 3.21147E-22
2.05901E-02 3.02491E-22
2.12143E-02 2.85179E-22
2.18476E-02 2.69095E-22
2.24900E-02 2.54136E-22
2.31415E-02 2.40209E-22
2.38021E-02 2.27229E-22
2.44717E-02 2.15119E-22
2.51504E-02 2.03811E-22
2.58382E-02 1.93240E-22
2.65349E-02 1.83350E-22
2.72407E-02 1.74089E-22
2.79555E-02 1.65409E-22
2.86793E-02 1.57267E-22
2.94120E-02 1.49622E-22
3.01537E-02 1.42440E-22
3.09043E-02 1.35686E-22
3.16639E-02 1.29330E-22
3.24324E-02 1.23345E-22
3.32098E-02 1.17703E-22
3.39961E-02 1.12383E-22
3.47912E-02 1.07362E-22
3.55952E-02 1.02620E-22
3.64081E-02 9.81382E-23
3.72297E-02 9.39002E-23
3.80602E-02 8.98898E-23
3.88995E-02 8.60927E-23
3.97476E-02 8.24951E-23
4.06044E-02 7.90846E-23
4.14700E-02 7.58497E-23
4.23443E-02 7.27794E-23
4.32273E-02 6.98639E-23
4.41190E-02 6.70937E-23
4.50194E-02 6.44603E-23
4.59284E-02 6.19556E-23
4.68461E-02 5.95721E-23
4.87074E-02 5.51410E-23
5.06030E-02 5.11166E-23
5.25328E-02 4.74545E-23
5.44967E-02 4.41163E-23
5.64946E-02 4.10679E-23
5.85262E-02 3.82796E-23
6.05914E-02 3.57250E-23
6.26901E-02 3.33810E-23
6.48222E-02 3.12269E-23
6.69873E-02 2.92445E-23
6.91854E-02 2.74175E-23
7.14163E-02 2.57315E-23
7.36799E-02 2.41736E-23
7.59760E-02 2.27322E-23
7.83043E-02 2.13970E-23
8.06647E-02 2.01586E-23
8.30571E-02 1.90088E-23
8.54812E-02 1.79399E-23
8.79369E-02 1.69453E-23
9.04240E-02 1.60188E-23
9.29422E-02 1.51548E-23
9.54915E-02 1.43483E-23
9.80716E-02 1.35949E-23
1.00682E-01 1.28902E-23
1.03323E-01 1.22306E-23
1.05995E-01 1.16127E-23
1.08696E-01 1.10333E-23
1.11427E-01 1.04895E-23
1.14188E-01 9.97873E-24
1.16978E-01 9.49864E-24
1.19797E-01 9.04702E-24
1.22645E-01 8.62184E-24
1.25522E-01 8.22128E-24
1.28428E-01 7.84362E-24
1.31361E-01 7.48731E-24
1.34323E-01 7.15091E-24
1.37313E-01 6.83311E-24
1.40330E-01 6.53267E-24
1.43375E-01 6.24847E-24
1.46447E-01 5.97945E-24
1.49545E-01 5.72465E-24
1.52671E-01 5.48318E-24
1.55823E-01 5.25422E-24
1.59001E-01 5.03697E-24
1.62205E-01 4.83074E-24
1.65435E-01 4.63485E-24
1.68690E-01 4.44868E-24
1.71970E-01 4.27167E-24
1.75276E-01 4.10328E-24
1.78606E-01 3.94301E-24
1.81961E-01 3.79038E-24
1.85340E-01 3.64497E-24
1.88743E-01 3.50636E-24
1.92169E-01 3.37419E-24
1.95619E-01 3.24810E-24
1.99092E-01 3.12774E-24
2.02589E-01 3.01281E-24
2.06107E-01 2.90302E-24
2.09649E-01 2.79810E-24
2.13212E-01 2.69779E-24
2.16797E-01 2.60185E-24
2.20404E-01 2.51004E-24
2.24032E-01 2.42216E-24
2.27680E-01 2.33801E-24
2.31350E-01 2.25740E-24
2.35040E-01 2.18016E-24
2.38751E-01 2.10611E-24
2.42481E-01 2.03509E-24
2.46231E-01 1.96696E-24
2.50000E-01 1.90160E-24
2.53788E-01 1.83885E-24
2.57595E-01 1.77859E-24
2.61421E-01 1.72070E-24
2.65264E-01 1.66508E-24
2.69126E-01 1.61162E-24
2.73005E-01 1.56021E-24
2.76901E-01 1.51078E-24
2.80814E-01 1.46321E-24
2.84744E-01 1.41744E-24
2.88691E-01 1.37338E-24
2.92653E-01 1.33096E-24
2.96632E-01 1.29010E-24
3.00625E-01 1.25073E-24
3.04634E-01 1.21279E-24
3.08658E-01 1.17622E-24
3.12697E-01 1.14096E-24
3.16749E-01 1.10696E-24
3.20816E-01 1.07415E-24
3.24896E-01 1.04250E-24
3.28990E-01 1.01195E-24
3.33097E-01 9.82451E-25
3.37216E-01 9.53971E-25
3.41348E-01 9.26463E-25
3.45492E-01 8.99888E-25
3.49647E-01 8.74209E-25
3.53814E-01 8.49390E-25
3.57992E-01 8.25397E-25
3.62181E-01 8.02197E-25
3.66381E-01 7.79759E-25
3.70590E-01 7.58054E-25
3.74810E-01 7.37053E-25
3.79039E-01 7.16729E-25
3.83277E-01 6.97057E-25
3.87524E-01 6.78011E-25
3.91780E-01 6.59569E-25
3.96044E-01 6.41707E-25
4.00316E-01 6.24404E-25
4.04596E-01 6.07640E-25
4.08882E-01 5.91394E-25
4.13176E-01 5.75647E-25
4.17476E-01 5.60382E-25
4.21783E-01 5.45581E-25
4.26095E-01 5.31228E-25
4.30413E-01 5.17306E-25
4.34737E-01 5.03801E-25
4.39065E-01 4.90696E-25
4.43398E-01 4.77980E-25
4.47736E-01 4.65637E-25
4.52077E-01 4.53656E-25
4.56422E-01 4.42023E-25
4.60770E-01 4.30727E-25
4.65122E-01 4.19756E-25
4.69476E-01 4.09099E-25
4.73832E-01 3.98746E-25
4.78190E-01 3.88686E-25
4.82550E-01 3.78910E-25
4.86912E-01 3.69409E-25
4.91274E-01 3.60173E-25
4.95637E-01 3.51193E-25
5.00000E-01 3.42462E-25
5.04363E-01 3.33970E-25
5.08726E-01 3.25712E-25
5.13088E-01 3.17678E-25
5.17450E-01 3.09862E-25
5.21810E-01 3.02257E-25
5.26168E-01 2.94857E-25
5.30524E-01 2.87654E-25
5.34878E-01 2.80643E-25
5.39230E-01 2.73818E-25
5.43578E-01 2.67172E-25
5.47923E-01 2.60702E-25
5.52264E-01 2.54400E-25
5.56602E-01 2.48262E-25
5.60935E-01 2.42284E-25
5.65263E-01 2.36459E-25
5.69587E-01 2.30784E-25
5.73905E-01 2.25254E-25
5.78217E-01 2.19866E-25
5.82524E-01 2.14613E-25
5.86824E-01 2.09494E-25
5.91118E-01 2.04503E-25
5.95404E-01 1.99637E-25
5.99684E-01 1.94892E-25
6.03956E-01 1.90266E-25
6.08220E-01 1.85754E-25
6.12476E-01 1.81353E-25
6.16723E-01 1.77060E-25
6.20961E-01 1.72872E-25
6.25190E-01 1.68787E-25
6.29410E-01 1.64800E-25
6.33619E-01 1.60910E-25
6.37819E-01 1.57114E-25
6.42008E-01 1.53408E-25
6.46186E-01 1.49792E-25
6.50353E-01 1.46262E-25
6.54508E-01 1.42815E-25
6.58652E-01 1.39450E-25
6.62784E-01 1.36165E-25
6.66903E-01 1.32956E-25
6.71010E-01 1.29823E-25
6.75104E-01 1.26763E-25
6.79184E-01 1.23774E-25
6.83251E-01 1.20855E-25
6.87303E-01 1.18003E-25
6.91342E-01 1.15217E-25
6.95366E-01 1.12495E-25
6.99375E-01 1.09835E-25
7.03368E-01 1.07236E-25
7.07347E-01 1.04697E-25
7.11309E-01 1.02214E-25
7.15256E-01 9.97887E-26
7.19186E-01 9.74176E-26
7.23099E-01 9.51000E-26
7.26995E-01 9.28344E-26
7.30874E-01 9.06196E-26
7.34736E-01 8.84543E-26
7.38579E-01 8.63372E-26
7.42405E-01 8.42673E-26
7.46212E-01 8.22432E-26
7.50000E-01 8.02639E-26
7.53769E-01 7.83284E-26
7.57519E-01 7.64354E-26
7.61249E-01 7.45841E-26
7.64960E-01 7.27734E-26
7.68650E-01 7.10023E-26
7.72320E-01 6.92699E-26
7.75968E-01 6.75753E-26
7.79596E-01 6.59176E-26
7.83203E-01 6.42959E-26
7.86788E-01 6.27094E-26
7.90351E-01 6.11572E-26
7.93893E-01 5.96386E-26
7.97411E-01 5.81527E-26
8.00908E-01 5.66989E-26
8.04381E-01 5.52764E-26
8.07831E-01 5.38845E-26
8.11257E-01 5.25225E-26
8.14660E-01 5.11897E-26
8.18039E-01 4.98855E-26
8.21394E-01 4.86092E-26
8.24724E-01 4.73602E-26
8.28030E-01 4.61380E-26
8.31310E-01 4.49418E-26
8.34565E-01 4.37713E-26
8.37795E-01 4.26257E-26
8.40999E-01 4.15045E-26
8.44177E-01 4.04073E-26
8.47329E-01 3.93335E-26
8.50455E-01 3.82827E-26
8.53553E-01 3.72543E-26
8.56625E-01 3.62478E-26
8.59670E-01 3.52628E-26
8.62687E-01 3.42989E-26
8.65677E-01 3.33557E-26
8.68639E-01 3.24326E-26
8.71572E-01 3.15293E-26
8.74478E-01 3.06454E-26
8.77355E-01 2.97805E-26
8.80203E-01 2.89342E-26
8.83022E-01 2.81061E-26
8.85812E-01 2.72959E-26
8.88573E-01 2.65033E-26
8.91304E-01 2.57278E-26
8.94005E-01 2.49692E-26
8.96677E-01 2.42271E-26
8.99318E-01 2.35013E-26
9.01928E-01 2.27913E-26
9.04508E-01 2.20970E-26
9.07058E-01 2.14179E-26
9.09576E-01 2.07539E-26
9.12063E-01 2.01047E-26
9.14519E-01 1.94699E-26
9.16943E-01 1.88493E-26
9.19335E-01 1.82428E-26
9.21696E-01 1.76499E-26
9.24024E-01 1.70705E-26
9.26320E-01 1.65044E-26
9.28584E-01 1.59512E-26
9.30815E-01 1.54109E-26
9.33013E-01 1.48831E-26
9.35178E-01 1.43677E-26
9.37310E-01 1.38644E-26
9.39409E-01 1.33731E-26
9.41474E-01 1.28936E-26
9.43505E-01 1.24256E-26
9.45503E-01 1.19691E-26
9.47467E-01 1.15237E-26
9.49397E-01 1.10894E-26
9.51293E-01 1.06659E-26
9.53154E-01 1.02532E-26
9.54981E-01 9.85097E-27
9.56773E-01 9.45915E-27
9.58530E-01 9.07757E-27
9.60252E-01 8.70609E-27
9.61940E-01 8.34455E-27
9.63592E-01 7.99283E-27
9.65209E-01 7.65079E-27
9.66790E-01 7.31831E-27
9.68336E-01 6.99525E-27
9.69846E-01 6.68149E-27
9.71321E-01 6.37692E-27
9.72759E-01 6.08142E-27
9.74162E-01 5.79489E-27
9.75528E-01 5.51721E-27
9.76858E-01 5.24828E-27
9.78152E-01 4.98800E-27
9.79410E-01 4.73629E-27
9.80631E-01 4.49303E-27
9.81815E-01 4.25815E-27
9.82963E-01 4.03156E-27
9.84074E-01 3.81318E-27
9.85148E-01 3.60291E-27
9.86185E-01 3.40070E-27
9.87185E-01 3.20646E-27
9.88148E-01 3.02012E-27
9.89074E-01 2.84162E-27
9.89962E-01 2.67089E-27
9.90814E-01 2.50788E-27
9.91627E-01 2.35251E-27
9.92404E-01 2.20473E-27
9.93143E-01 2.06450E-27
9.93844E-01 1.93175E-27
9.94508E-01 1.80645E-27
9.95134E-01 1.68855E-27
9.95722E-01 1.57800E-27
9.96273E-01 1.47477E-27
9.96786E-01 1.37882E-27
9.97261E-01 1.29011E-27
9.97698E-01 1.20861E-27
9.98097E-01 1.13430E-27
9.98459E-01 1.06714E-27
9.98782E-01 1.00712E-27
9.99067E-01 9.54208E-28
9.99315E-01 9.08390E-28
9.99524E-01 8.69649E-28
9.99695E-01 8.37970E-28
9.99829E-01 8.13342E-28
9.99924E-01 7.95758E-28
9.99981E-01 7.85209E-28
1.00000E+00 7.81693E-28
