 #
 # Subroutine ELSEPA. Elastic scattering of electrons and positrons
 #                    by neutral atoms and positive ions
 #
 # Projectile: electron
 # Kinetic energy = 8.00000E+07 eV = 2.93995E+06 a.u.
 #
 # WARNING: High-energy factorization with free-atom DF screening.
 #          Absorption, polarization and exchange corrections are
 #          switched off.
 #          Phase shifts are calculated for the bare nucleus.
 #          Scattering amplitudes are not evaluated.
 #
 # Element: Ga,  Z =  31,  atomic weight = 6.97230E+01 g/mol
 #
 # Nuclear model: Fermi distribution
 #                Average radius = 4.40395E-13 cm
 #                Skin thickness = 5.46000E-14 cm
 #
 # Number of electrons = 31
 #
 # Total elastic cross section = 2.18087E-18 cm**2 = 7.78802E-02 a0**2
 # 1st transport cross section = 3.01788E-25 cm**2 = 1.07771E-08 a0**2
 # 2nd transport cross section = 8.93507E-25 cm**2 = 3.19077E-08 a0**2
 #
 #
 # Differential cross section:                       MU=(1-COS(THETA))/2
 #
 #  THETA        MU          DCS          DCS        Sherman      error
 #  (deg)                 (cm**2/sr)   (a0**2/sr)    function
 #----------------------------------------------------------------------
0.00000E+00 1.25165E-10
7.61557E-13 1.24922E-10
1.18994E-12 1.24787E-10
1.71346E-12 1.24621E-10
2.33225E-12 1.24426E-10
3.04617E-12 1.24201E-10
3.85530E-12 1.23948E-10
4.75964E-12 1.23665E-10
5.75917E-12 1.23354E-10
6.85391E-12 1.23015E-10
8.04379E-12 1.22649E-10
9.32893E-12 1.22255E-10
1.07092E-11 1.21834E-10
1.21847E-11 1.21388E-10
1.37554E-11 1.20915E-10
1.54213E-11 1.20417E-10
1.71823E-11 1.19895E-10
1.90386E-11 1.19348E-10
2.09900E-11 1.18779E-10
2.30367E-11 1.18186E-10
2.51785E-11 1.17571E-10
2.74156E-11 1.16935E-10
2.97478E-11 1.16277E-10
3.21752E-11 1.15600E-10
3.46979E-11 1.14904E-10
3.73157E-11 1.14186E-10
4.00286E-11 1.13449E-10
4.28368E-11 1.12697E-10
4.57402E-11 1.11930E-10
4.87388E-11 1.11148E-10
5.18325E-11 1.10352E-10
5.50215E-11 1.09544E-10
5.83057E-11 1.08714E-10
6.16850E-11 1.07872E-10
6.51595E-11 1.07020E-10
6.87293E-11 1.06158E-10
7.23943E-11 1.05287E-10
7.61544E-11 1.04408E-10
1.18991E-10 9.51887E-11
1.71347E-10 8.57077E-11
2.33223E-10 7.64564E-11
3.04617E-10 6.77832E-11
3.85531E-10 5.98789E-11
4.75965E-10 5.28165E-11
5.75917E-10 4.66038E-11
6.85389E-10 4.11794E-11
8.04380E-10 3.64833E-11
9.32891E-10 3.24170E-11
1.07092E-09 2.89128E-11
1.21847E-09 2.58776E-11
1.37554E-09 2.32555E-11
1.54213E-09 2.09746E-11
1.71823E-09 1.89908E-11
1.90386E-09 1.72534E-11
2.09900E-09 1.57291E-11
2.30367E-09 1.43835E-11
2.51785E-09 1.31918E-11
2.74156E-09 1.21313E-11
2.97478E-09 1.11832E-11
3.21752E-09 1.03331E-11
3.46978E-09 9.56622E-12
3.73156E-09 8.83153E-12
4.00286E-09 8.16793E-12
4.28368E-09 7.58249E-12
4.57402E-09 7.06402E-12
4.87388E-09 6.60319E-12
5.18326E-09 6.19214E-12
5.50215E-09 5.82426E-12
5.83057E-09 5.42669E-12
6.16850E-09 5.06549E-12
6.51596E-09 4.74134E-12
6.87293E-09 4.44959E-12
7.23942E-09 4.18625E-12
7.61544E-09 3.94792E-12
1.18991E-08 2.17929E-12
1.71347E-08 1.26377E-12
2.33223E-08 7.63083E-13
3.04617E-08 4.80663E-13
3.85531E-08 3.15698E-13
4.75965E-08 2.15508E-13
5.75917E-08 1.52418E-13
6.85389E-08 1.11132E-13
8.04380E-08 8.32029E-14
9.32891E-08 6.36771E-14
1.07092E-07 4.96601E-14
1.21847E-07 3.93389E-14
1.37554E-07 3.15990E-14
1.54213E-07 2.56717E-14
1.71823E-07 2.10720E-14
1.90386E-07 1.74480E-14
2.09900E-07 1.45649E-14
2.30367E-07 1.22465E-14
2.51785E-07 1.03665E-14
2.74156E-07 8.82933E-15
2.97478E-07 7.56281E-15
3.21752E-07 6.51268E-15
3.46978E-07 5.63603E-15
3.73156E-07 4.89814E-15
4.00286E-07 4.27769E-15
4.28368E-07 3.75409E-15
4.57402E-07 3.30445E-15
4.87388E-07 2.92106E-15
5.18325E-07 2.59175E-15
5.50215E-07 2.30652E-15
5.83057E-07 2.05994E-15
6.16850E-07 1.84521E-15
6.51596E-07 1.65761E-15
6.87293E-07 1.49352E-15
7.23942E-07 1.34898E-15
7.61543E-07 1.22160E-15
1.18991E-06 5.09333E-16
1.71347E-06 2.49125E-16
2.33223E-06 1.35981E-16
3.04617E-06 8.04046E-17
3.85531E-06 5.05317E-17
4.75964E-06 3.33219E-17
5.75916E-06 2.28481E-17
6.85388E-06 1.61811E-17
8.04378E-06 1.17756E-17
9.32888E-06 8.77124E-18
1.07092E-05 6.66600E-18
1.21846E-05 5.15567E-18
1.37553E-05 4.04960E-18
1.54212E-05 3.22470E-18
1.71822E-05 2.59944E-18
1.90385E-05 2.11839E-18
2.09899E-05 1.74400E-18
2.30365E-05 1.44872E-18
2.51783E-05 1.21329E-18
2.74153E-05 1.02372E-18
2.97475E-05 8.69740E-19
3.21749E-05 7.43642E-19
3.46974E-05 6.39604E-19
3.73152E-05 5.53159E-19
4.00281E-05 4.80854E-19
4.28362E-05 4.19996E-19
4.57395E-05 3.68470E-19
4.87380E-05 3.24606E-19
5.18317E-05 2.87073E-19
5.50205E-05 2.54808E-19
5.83045E-05 2.26951E-19
6.16838E-05 2.02799E-19
6.51582E-05 1.81780E-19
6.87277E-05 1.63417E-19
7.23925E-05 1.47319E-19
7.61524E-05 1.33169E-19
9.21439E-05 9.10180E-20
1.09658E-04 6.43043E-20
1.28695E-04 4.67162E-20
1.49255E-04 3.47518E-20
1.71338E-04 2.63864E-20
1.94942E-04 2.03943E-20
2.20070E-04 1.60116E-20
2.46720E-04 1.27462E-20
2.74892E-04 1.02728E-20
3.04586E-04 8.37178E-21
3.35803E-04 6.89108E-21
3.68542E-04 5.72401E-21
4.02802E-04 4.79406E-21
4.38585E-04 4.04566E-21
4.75889E-04 3.43790E-21
5.14715E-04 2.94018E-21
5.55063E-04 2.52945E-21
5.96931E-04 2.18805E-21
6.40321E-04 1.90241E-21
6.85233E-04 1.66194E-21
7.31665E-04 1.45833E-21
7.79618E-04 1.28499E-21
8.29092E-04 1.13669E-21
8.80086E-04 1.00919E-21
9.32601E-04 8.99099E-22
9.86636E-04 8.03630E-22
1.04219E-03 7.20517E-22
1.09927E-03 6.47884E-22
1.15786E-03 5.84187E-22
1.21797E-03 5.28135E-22
1.27961E-03 4.78654E-22
1.34276E-03 4.34839E-22
1.40743E-03 3.95930E-22
1.47362E-03 3.61280E-22
1.54133E-03 3.30343E-22
1.61056E-03 3.02648E-22
1.68131E-03 2.77801E-22
1.75357E-03 2.55452E-22
1.82735E-03 2.35308E-22
1.90265E-03 2.17112E-22
1.97947E-03 2.00642E-22
2.05780E-03 1.85706E-22
2.13765E-03 1.72135E-22
2.21902E-03 1.59782E-22
2.30190E-03 1.48518E-22
2.38630E-03 1.38230E-22
2.47222E-03 1.28817E-22
2.55965E-03 1.20193E-22
2.64859E-03 1.12278E-22
2.73905E-03 1.05004E-22
2.83103E-03 9.83103E-23
2.92452E-03 9.21413E-23
3.01952E-03 8.64487E-23
3.11604E-03 8.11889E-23
3.21407E-03 7.63230E-23
3.31362E-03 7.18161E-23
3.41468E-03 6.76369E-23
3.51725E-03 6.37572E-23
3.62133E-03 6.01516E-23
3.72692E-03 5.67971E-23
3.83403E-03 5.36731E-23
3.94265E-03 5.07607E-23
4.05278E-03 4.80430E-23
4.16442E-03 4.55046E-23
4.27757E-03 4.31315E-23
4.39223E-03 4.09109E-23
4.50840E-03 3.88311E-23
4.62608E-03 3.68817E-23
4.74527E-03 3.50529E-23
4.86597E-03 3.33358E-23
4.98817E-03 3.17224E-23
5.11188E-03 3.02053E-23
5.23711E-03 2.87776E-23
5.36383E-03 2.74331E-23
5.49207E-03 2.61660E-23
5.62181E-03 2.49710E-23
5.75306E-03 2.38433E-23
5.88581E-03 2.27784E-23
6.02007E-03 2.17721E-23
6.15583E-03 2.08206E-23
6.29310E-03 1.99203E-23
6.43187E-03 1.90680E-23
6.57214E-03 1.82607E-23
6.71392E-03 1.74955E-23
6.85720E-03 1.67698E-23
7.00198E-03 1.60811E-23
7.14827E-03 1.54274E-23
7.29605E-03 1.48063E-23
7.44534E-03 1.42161E-23
7.59612E-03 1.36549E-23
7.97965E-03 1.23678E-23
8.37255E-03 1.12281E-23
8.77480E-03 1.02160E-23
9.18641E-03 9.31480E-24
9.60736E-03 8.51021E-24
1.00376E-02 7.79008E-24
1.04773E-02 7.14400E-24
1.09262E-02 6.56304E-24
1.13844E-02 6.03947E-24
1.18520E-02 5.56664E-24
1.23288E-02 5.13877E-24
1.28150E-02 4.75084E-24
1.33104E-02 4.39846E-24
1.38150E-02 4.07781E-24
1.43290E-02 3.78552E-24
1.48521E-02 3.51864E-24
1.53845E-02 3.27458E-24
1.59262E-02 3.05104E-24
1.64770E-02 2.84599E-24
1.70371E-02 2.65764E-24
1.76063E-02 2.48437E-24
1.81848E-02 2.32478E-24
1.87724E-02 2.17759E-24
1.93692E-02 2.04167E-24
1.99751E-02 1.91600E-24
2.05901E-02 1.79967E-24
2.12143E-02 1.69187E-24
2.18476E-02 1.59186E-24
2.24900E-02 1.49899E-24
2.31415E-02 1.41264E-24
2.38021E-02 1.33228E-24
2.44717E-02 1.25743E-24
2.51504E-02 1.18764E-24
2.58382E-02 1.12250E-24
2.65349E-02 1.06166E-24
2.72407E-02 1.00477E-24
2.79555E-02 9.51545E-25
2.86793E-02 9.01700E-25
2.94120E-02 8.54983E-25
3.01537E-02 8.11164E-25
3.09043E-02 7.70033E-25
3.16639E-02 7.31395E-25
3.24324E-02 6.95074E-25
3.32098E-02 6.60906E-25
3.39961E-02 6.28742E-25
3.47912E-02 5.98444E-25
3.55952E-02 5.69885E-25
3.64081E-02 5.42948E-25
3.72297E-02 5.17525E-25
3.80602E-02 4.93516E-25
3.88995E-02 4.70830E-25
3.97476E-02 4.49381E-25
4.06044E-02 4.29090E-25
4.14700E-02 4.09884E-25
4.23443E-02 3.91696E-25
4.32273E-02 3.74461E-25
4.41190E-02 3.58123E-25
4.50194E-02 3.42625E-25
4.59284E-02 3.27918E-25
4.68461E-02 3.13955E-25
4.87074E-02 2.88088E-25
5.06030E-02 2.64706E-25
5.25328E-02 2.43534E-25
5.44967E-02 2.24330E-25
5.64946E-02 2.06883E-25
5.85262E-02 1.91008E-25
6.05914E-02 1.76542E-25
6.26901E-02 1.63340E-25
6.48222E-02 1.51276E-25
6.69873E-02 1.40237E-25
6.91854E-02 1.30123E-25
7.14163E-02 1.20845E-25
7.36799E-02 1.12324E-25
7.59760E-02 1.04489E-25
7.83043E-02 9.72772E-26
8.06647E-02 9.06315E-26
8.30571E-02 8.45013E-26
8.54812E-02 7.88411E-26
8.79369E-02 7.36099E-26
9.04240E-02 6.87706E-26
9.29422E-02 6.42899E-26
9.54915E-02 6.01376E-26
9.80716E-02 5.62864E-26
1.00682E-01 5.27116E-26
1.03323E-01 4.93908E-26
1.05995E-01 4.63036E-26
1.08696E-01 4.34314E-26
1.11427E-01 4.07575E-26
1.14188E-01 3.82662E-26
1.16978E-01 3.59438E-26
1.19797E-01 3.37772E-26
1.22645E-01 3.17549E-26
1.25522E-01 2.98659E-26
1.28428E-01 2.81006E-26
1.31361E-01 2.64499E-26
1.34323E-01 2.49054E-26
1.37313E-01 2.34596E-26
1.40330E-01 2.21055E-26
1.43375E-01 2.08366E-26
1.46447E-01 1.96470E-26
1.49545E-01 1.85311E-26
1.52671E-01 1.74840E-26
1.55823E-01 1.65009E-26
1.59001E-01 1.55775E-26
1.62205E-01 1.47099E-26
1.65435E-01 1.38944E-26
1.68690E-01 1.31275E-26
1.71970E-01 1.24060E-26
1.75276E-01 1.17270E-26
1.78606E-01 1.10878E-26
1.81961E-01 1.04858E-26
1.85340E-01 9.91861E-27
1.88743E-01 9.38413E-27
1.92169E-01 8.88028E-27
1.95619E-01 8.40514E-27
1.99092E-01 7.95695E-27
2.02589E-01 7.53405E-27
2.06107E-01 7.13491E-27
2.09649E-01 6.75808E-27
2.13212E-01 6.40222E-27
2.16797E-01 6.06607E-27
2.20404E-01 5.74847E-27
2.24032E-01 5.44832E-27
2.27680E-01 5.16459E-27
2.31350E-01 4.89631E-27
2.35040E-01 4.64260E-27
2.38751E-01 4.40261E-27
2.42481E-01 4.17554E-27
2.46231E-01 3.96067E-27
2.50000E-01 3.75729E-27
2.53788E-01 3.56474E-27
2.57595E-01 3.38243E-27
2.61421E-01 3.20978E-27
2.65264E-01 3.04624E-27
2.69126E-01 2.89131E-27
2.73005E-01 2.74451E-27
2.76901E-01 2.60539E-27
2.80814E-01 2.47353E-27
2.84744E-01 2.34853E-27
2.88691E-01 2.23003E-27
2.92653E-01 2.11765E-27
2.96632E-01 2.01109E-27
3.00625E-01 1.91001E-27
3.04634E-01 1.81413E-27
3.08658E-01 1.72317E-27
3.12697E-01 1.63686E-27
3.16749E-01 1.55496E-27
3.20816E-01 1.47724E-27
3.24896E-01 1.40347E-27
3.28990E-01 1.33344E-27
3.33097E-01 1.26697E-27
3.37216E-01 1.20386E-27
3.41348E-01 1.14394E-27
3.45492E-01 1.08704E-27
3.49647E-01 1.03300E-27
3.53814E-01 9.81684E-28
3.57992E-01 9.32942E-28
3.62181E-01 8.86645E-28
3.66381E-01 8.42666E-28
3.70590E-01 8.00886E-28
3.74810E-01 7.61194E-28
3.79039E-01 7.23481E-28
3.83277E-01 6.87649E-28
3.87524E-01 6.53601E-28
3.91780E-01 6.21246E-28
3.96044E-01 5.90499E-28
4.00316E-01 5.61279E-28
4.04596E-01 5.33509E-28
4.08882E-01 5.07115E-28
4.13176E-01 4.82029E-28
4.17476E-01 4.58185E-28
4.21783E-01 4.35520E-28
4.26095E-01 4.13976E-28
4.30413E-01 3.93497E-28
4.34737E-01 3.74029E-28
4.39065E-01 3.55523E-28
4.43398E-01 3.37929E-28
4.47736E-01 3.21204E-28
4.52077E-01 3.05303E-28
4.56422E-01 2.90187E-28
4.60770E-01 2.75815E-28
4.65122E-01 2.62152E-28
4.69476E-01 2.49162E-28
4.73832E-01 2.36812E-28
4.78190E-01 2.25070E-28
4.82550E-01 2.13906E-28
4.86912E-01 2.03293E-28
4.91274E-01 1.93202E-28
4.95637E-01 1.83608E-28
5.00000E-01 1.74487E-28
5.04363E-01 1.65815E-28
5.08726E-01 1.57571E-28
5.13088E-01 1.49733E-28
5.17450E-01 1.42281E-28
5.21810E-01 1.35196E-28
5.26168E-01 1.28461E-28
5.30524E-01 1.22059E-28
5.34878E-01 1.15972E-28
5.39230E-01 1.10185E-28
5.43578E-01 1.04685E-28
5.47923E-01 9.94560E-29
5.52264E-01 9.44855E-29
5.56602E-01 8.97609E-29
5.60935E-01 8.52700E-29
5.65263E-01 8.10013E-29
5.69587E-01 7.69440E-29
5.73905E-01 7.30878E-29
5.78217E-01 6.94227E-29
5.82524E-01 6.59394E-29
5.86824E-01 6.26290E-29
5.91118E-01 5.94830E-29
5.95404E-01 5.64934E-29
5.99684E-01 5.36524E-29
6.03956E-01 5.09528E-29
6.08220E-01 4.83876E-29
6.12476E-01 4.59502E-29
6.16723E-01 4.36344E-29
6.20961E-01 4.14342E-29
6.25190E-01 3.93439E-29
6.29410E-01 3.73580E-29
6.33619E-01 3.54714E-29
6.37819E-01 3.36793E-29
6.42008E-01 3.19770E-29
6.46186E-01 3.03600E-29
6.50353E-01 2.88242E-29
6.54508E-01 2.73655E-29
6.58652E-01 2.59801E-29
6.62784E-01 2.46644E-29
6.66903E-01 2.34149E-29
6.71010E-01 2.22284E-29
6.75104E-01 2.11017E-29
6.79184E-01 2.00319E-29
6.83251E-01 1.90161E-29
6.87303E-01 1.80517E-29
6.91342E-01 1.71360E-29
6.95366E-01 1.62668E-29
6.99375E-01 1.54415E-29
7.03368E-01 1.46582E-29
7.07347E-01 1.39146E-29
7.11309E-01 1.32087E-29
7.15256E-01 1.25388E-29
7.19186E-01 1.19029E-29
7.23099E-01 1.12995E-29
7.26995E-01 1.07267E-29
7.30874E-01 1.01832E-29
7.34736E-01 9.66738E-30
7.38579E-01 9.17791E-30
7.42405E-01 8.71345E-30
7.46212E-01 8.27273E-30
7.50000E-01 7.85455E-30
7.53769E-01 7.45777E-30
7.57519E-01 7.08131E-30
7.61249E-01 6.72413E-30
7.64960E-01 6.38526E-30
7.68650E-01 6.06375E-30
7.72320E-01 5.75874E-30
7.75968E-01 5.46937E-30
7.79596E-01 5.19484E-30
7.83203E-01 4.93441E-30
7.86788E-01 4.68734E-30
7.90351E-01 4.45295E-30
7.93893E-01 4.23060E-30
7.97411E-01 4.01965E-30
8.00908E-01 3.81953E-30
8.04381E-01 3.62968E-30
8.07831E-01 3.44956E-30
8.11257E-01 3.27867E-30
8.14660E-01 3.11655E-30
8.18039E-01 2.96272E-30
8.21394E-01 2.81677E-30
8.24724E-01 2.67828E-30
8.28030E-01 2.54687E-30
8.31310E-01 2.42217E-30
8.34565E-01 2.30382E-30
8.37795E-01 2.19150E-30
8.40999E-01 2.08489E-30
8.44177E-01 1.98370E-30
8.47329E-01 1.88764E-30
8.50455E-01 1.79644E-30
8.53553E-01 1.70985E-30
8.56625E-01 1.62762E-30
8.59670E-01 1.54953E-30
8.62687E-01 1.47536E-30
8.65677E-01 1.40491E-30
8.68639E-01 1.33797E-30
8.71572E-01 1.27437E-30
8.74478E-01 1.21392E-30
8.77355E-01 1.15647E-30
8.80203E-01 1.10185E-30
8.83022E-01 1.04992E-30
8.85812E-01 1.00053E-30
8.88573E-01 9.53551E-31
8.91304E-01 9.08855E-31
8.94005E-01 8.66322E-31
8.96677E-01 8.25839E-31
8.99318E-01 7.87298E-31
9.01928E-01 7.50597E-31
9.04508E-01 7.15640E-31
9.07058E-01 6.82335E-31
9.09576E-01 6.50596E-31
9.12063E-01 6.20342E-31
9.14519E-01 5.91495E-31
9.16943E-01 5.63982E-31
9.19335E-01 5.37734E-31
9.21696E-01 5.12685E-31
9.24024E-01 4.88775E-31
9.26320E-01 4.65944E-31
9.28584E-01 4.44138E-31
9.30815E-01 4.23303E-31
9.33013E-01 4.03392E-31
9.35178E-01 3.84358E-31
9.37310E-01 3.66156E-31
9.39409E-01 3.48745E-31
9.41474E-01 3.32087E-31
9.43505E-01 3.16143E-31
9.45503E-01 3.00880E-31
9.47467E-01 2.86263E-31
9.49397E-01 2.72264E-31
9.51293E-01 2.58851E-31
9.53154E-01 2.45997E-31
9.54981E-01 2.33677E-31
9.56773E-01 2.21866E-31
9.58530E-01 2.10541E-31
9.60252E-01 1.99680E-31
9.61940E-01 1.89262E-31
9.63592E-01 1.79268E-31
9.65209E-01 1.69680E-31
9.66790E-01 1.60481E-31
9.68336E-01 1.51655E-31
9.69846E-01 1.43187E-31
9.71321E-01 1.35062E-31
9.72759E-01 1.27267E-31
9.74162E-01 1.19790E-31
9.75528E-01 1.12618E-31
9.76858E-01 1.05740E-31
9.78152E-01 9.91472E-32
9.79410E-01 9.28282E-32
9.80631E-01 8.67743E-32
9.81815E-01 8.09770E-32
9.82963E-01 7.54281E-32
9.84074E-01 7.01201E-32
9.85148E-01 6.50458E-32
9.86185E-01 6.01987E-32
9.87185E-01 5.55726E-32
9.88148E-01 5.11617E-32
9.89074E-01 4.69605E-32
9.89962E-01 4.29641E-32
9.90814E-01 3.91676E-32
9.91627E-01 3.55668E-32
9.92404E-01 3.21575E-32
9.93143E-01 2.89359E-32
9.93844E-01 2.58986E-32
9.94508E-01 2.30422E-32
9.95134E-01 2.03638E-32
9.95722E-01 1.78606E-32
9.96273E-01 1.55300E-32
9.96786E-01 1.33697E-32
9.97261E-01 1.13776E-32
9.97698E-01 9.55164E-33
9.98097E-01 7.89013E-33
9.98459E-01 6.39147E-33
9.98782E-01 5.05425E-33
9.99067E-01 3.87722E-33
9.99315E-01 2.85929E-33
9.99524E-01 1.99952E-33
9.99695E-01 1.29713E-33
9.99829E-01 7.51488E-34
9.99924E-01 3.62091E-34
9.99981E-01 1.28591E-34
1.00000E+00 5.07826E-35
