 #
 # Subroutine ELSEPA. Elastic scattering of electrons and positrons
 #                    by neutral atoms and positive ions
 #
 # Projectile: electron
 # Kinetic energy = 5.00000E+07 eV = 1.83747E+06 a.u.
 #
 # WARNING: High-energy factorization with free-atom DF screening.
 #          Absorption, polarization and exchange corrections are
 #          switched off.
 #          Phase shifts are calculated for the bare nucleus.
 #          Scattering amplitudes are not evaluated.
 #
 # Element: Ga,  Z =  31,  atomic weight = 6.97230E+01 g/mol
 #
 # Nuclear model: Fermi distribution
 #                Average radius = 4.40395E-13 cm
 #                Skin thickness = 5.46000E-14 cm
 #
 # Number of electrons = 31
 #
 # Total elastic cross section = 2.18049E-18 cm**2 = 7.78666E-02 a0**2
 # 1st transport cross section = 7.56873E-25 cm**2 = 2.70284E-08 a0**2
 # 2nd transport cross section = 2.21654E-24 cm**2 = 7.91541E-08 a0**2
 #
 #
 # Differential cross section:                       MU=(1-COS(THETA))/2
 #
 #  THETA        MU          DCS          DCS        Sherman      error
 #  (deg)                 (cm**2/sr)   (a0**2/sr)    function
 #----------------------------------------------------------------------
0.00000E+00 4.92657E-11
7.61557E-13 4.92280E-11
1.18994E-12 4.92069E-11
1.71346E-12 4.91811E-11
2.33225E-12 4.91507E-11
3.04617E-12 4.91156E-11
3.85530E-12 4.90760E-11
4.75964E-12 4.90317E-11
5.75917E-12 4.89828E-11
6.85391E-12 4.89295E-11
8.04379E-12 4.88715E-11
9.32893E-12 4.88091E-11
1.07092E-11 4.87422E-11
1.21847E-11 4.86709E-11
1.37554E-11 4.85952E-11
1.54213E-11 4.85151E-11
1.71823E-11 4.84307E-11
1.90386E-11 4.83420E-11
2.09900E-11 4.82490E-11
2.30367E-11 4.81518E-11
2.51785E-11 4.80505E-11
2.74156E-11 4.79451E-11
2.97478E-11 4.78356E-11
3.21752E-11 4.77221E-11
3.46979E-11 4.76046E-11
3.73157E-11 4.74832E-11
4.00286E-11 4.73580E-11
4.28368E-11 4.72289E-11
4.57402E-11 4.70961E-11
4.87388E-11 4.69597E-11
5.18325E-11 4.68196E-11
5.50215E-11 4.66759E-11
5.83057E-11 4.65288E-11
6.16850E-11 4.63782E-11
6.51595E-11 4.62242E-11
6.87293E-11 4.60670E-11
7.23943E-11 4.59064E-11
7.61544E-11 4.57428E-11
1.18991E-10 4.39437E-11
1.71347E-10 4.19066E-11
2.33223E-10 3.97014E-11
3.04617E-10 3.73966E-11
3.85531E-10 3.50531E-11
4.75965E-10 3.27230E-11
5.75917E-10 3.04477E-11
6.85389E-10 2.82589E-11
8.04380E-10 2.61773E-11
9.32891E-10 2.42172E-11
1.07092E-09 2.23876E-11
1.21847E-09 2.06910E-11
1.37554E-09 1.91256E-11
1.54213E-09 1.76869E-11
1.71823E-09 1.63686E-11
1.90386E-09 1.51632E-11
2.09900E-09 1.40626E-11
2.30367E-09 1.30585E-11
2.51785E-09 1.21428E-11
2.74156E-09 1.13076E-11
2.97478E-09 1.05455E-11
3.21752E-09 9.84904E-12
3.46978E-09 9.21242E-12
3.73156E-09 8.62997E-12
4.00286E-09 8.09637E-12
4.28368E-09 7.60682E-12
4.57402E-09 7.15699E-12
4.87388E-09 6.74299E-12
5.18326E-09 6.36132E-12
5.50215E-09 6.00885E-12
5.83057E-09 5.68278E-12
6.16850E-09 5.38062E-12
6.51596E-09 5.10012E-12
6.87293E-09 4.83918E-12
7.23942E-09 4.59585E-12
7.61544E-09 4.36885E-12
1.18991E-08 2.71129E-12
1.71347E-08 1.79123E-12
2.33223E-08 1.22002E-12
3.04617E-08 8.48480E-13
3.85531E-08 6.00310E-13
4.75965E-08 4.31650E-13
5.75917E-08 3.15435E-13
6.85389E-08 2.34314E-13
8.04380E-08 1.76880E-13
9.32891E-08 1.35694E-13
1.07092E-07 1.05767E-13
1.21847E-07 8.36799E-14
1.37554E-07 6.71266E-14
1.54213E-07 5.45356E-14
1.71823E-07 4.48213E-14
1.90386E-07 3.72250E-14
2.09900E-07 3.12099E-14
2.30367E-07 2.63897E-14
2.51785E-07 2.24811E-14
2.74156E-07 1.92839E-14
2.97478E-07 1.66447E-14
3.21752E-07 1.44464E-14
3.46978E-07 1.26023E-14
3.73156E-07 1.10444E-14
4.00286E-07 9.72000E-15
4.28368E-07 8.58753E-15
4.57402E-07 7.61418E-15
4.87388E-07 6.77370E-15
5.18325E-07 6.04487E-15
5.50215E-07 5.41039E-15
5.83057E-07 4.85604E-15
6.16850E-07 4.37003E-15
6.51596E-07 3.94253E-15
6.87293E-07 3.56529E-15
7.23942E-07 3.23133E-15
7.61543E-07 2.93502E-15
1.18991E-06 1.24264E-15
1.71347E-06 6.10208E-16
2.33223E-06 3.33585E-16
3.04617E-06 1.97610E-16
3.85531E-06 1.24510E-16
4.75964E-06 8.23519E-17
5.75916E-06 5.66361E-17
6.85388E-06 4.02258E-17
8.04378E-06 2.93523E-17
9.32888E-06 2.19150E-17
1.07092E-05 1.66896E-17
1.21846E-05 1.29317E-17
1.37553E-05 1.01733E-17
1.54212E-05 8.11187E-18
1.71822E-05 6.54662E-18
1.90385E-05 5.34048E-18
2.09899E-05 4.40043E-18
2.30365E-05 3.65812E-18
2.51783E-05 3.06564E-18
2.74153E-05 2.58813E-18
2.97475E-05 2.19992E-18
3.21749E-05 1.88178E-18
3.46974E-05 1.61913E-18
3.73152E-05 1.40077E-18
4.00281E-05 1.21803E-18
4.28362E-05 1.06415E-18
4.57395E-05 9.33818E-19
4.87380E-05 8.22823E-19
5.18317E-05 7.27820E-19
5.50205E-05 6.46126E-19
5.83045E-05 5.75573E-19
6.16838E-05 5.14392E-19
6.51582E-05 4.61133E-19
6.87277E-05 4.14598E-19
7.23925E-05 3.73792E-19
7.61524E-05 3.37908E-19
9.21439E-05 2.31020E-19
1.09658E-04 1.63251E-19
1.28695E-04 1.18619E-19
1.49255E-04 8.82507E-20
1.71338E-04 6.70141E-20
1.94942E-04 5.18003E-20
2.20070E-04 4.06715E-20
2.46720E-04 3.23791E-20
2.74892E-04 2.60975E-20
3.04586E-04 2.12693E-20
3.35803E-04 1.75085E-20
3.68542E-04 1.45441E-20
4.02802E-04 1.21818E-20
4.38585E-04 1.02807E-20
4.75889E-04 8.73681E-21
5.14715E-04 7.47240E-21
5.55063E-04 6.42893E-21
5.96931E-04 5.56160E-21
6.40321E-04 4.83589E-21
6.85233E-04 4.22492E-21
7.31665E-04 3.70758E-21
7.79618E-04 3.26715E-21
8.29092E-04 2.89031E-21
8.80086E-04 2.56634E-21
9.32601E-04 2.28658E-21
9.86636E-04 2.04397E-21
1.04219E-03 1.83275E-21
1.09927E-03 1.64816E-21
1.15786E-03 1.48628E-21
1.21797E-03 1.34381E-21
1.27961E-03 1.21805E-21
1.34276E-03 1.10668E-21
1.40743E-03 1.00777E-21
1.47362E-03 9.19688E-22
1.54133E-03 8.41039E-22
1.61056E-03 7.70633E-22
1.68131E-03 7.07456E-22
1.75357E-03 6.50634E-22
1.82735E-03 5.99413E-22
1.90265E-03 5.53144E-22
1.97947E-03 5.11262E-22
2.05780E-03 4.73278E-22
2.13765E-03 4.38762E-22
2.21902E-03 4.07342E-22
2.30190E-03 3.78690E-22
2.38630E-03 3.52518E-22
2.47222E-03 3.28572E-22
2.55965E-03 3.06630E-22
2.64859E-03 2.86492E-22
2.73905E-03 2.67984E-22
2.83103E-03 2.50949E-22
2.92452E-03 2.35249E-22
3.01952E-03 2.20760E-22
3.11604E-03 2.07371E-22
3.21407E-03 1.94985E-22
3.31362E-03 1.83511E-22
3.41468E-03 1.72870E-22
3.51725E-03 1.62991E-22
3.62133E-03 1.53809E-22
3.72692E-03 1.45265E-22
3.83403E-03 1.37308E-22
3.94265E-03 1.29890E-22
4.05278E-03 1.22965E-22
4.16442E-03 1.16498E-22
4.27757E-03 1.10451E-22
4.39223E-03 1.04792E-22
4.50840E-03 9.94910E-23
4.62608E-03 9.45217E-23
4.74527E-03 8.98593E-23
4.86597E-03 8.54814E-23
4.98817E-03 8.13673E-23
5.11188E-03 7.74981E-23
5.23711E-03 7.38566E-23
5.36383E-03 7.04267E-23
5.49207E-03 6.71940E-23
5.62181E-03 6.41449E-23
5.75306E-03 6.12671E-23
5.88581E-03 5.85490E-23
6.02007E-03 5.59803E-23
6.15583E-03 5.35510E-23
6.29310E-03 5.12523E-23
6.43187E-03 4.90758E-23
6.57214E-03 4.70137E-23
6.71392E-03 4.50589E-23
6.85720E-03 4.32048E-23
7.00198E-03 4.14451E-23
7.14827E-03 3.97742E-23
7.29605E-03 3.81868E-23
7.44534E-03 3.66779E-23
7.59612E-03 3.52428E-23
7.97965E-03 3.19507E-23
8.37255E-03 2.90344E-23
8.77480E-03 2.64435E-23
9.18641E-03 2.41353E-23
9.60736E-03 2.20737E-23
1.00376E-02 2.02275E-23
1.04773E-02 1.85703E-23
1.09262E-02 1.70794E-23
1.13844E-02 1.57350E-23
1.18520E-02 1.45203E-23
1.23288E-02 1.34204E-23
1.28150E-02 1.24226E-23
1.33104E-02 1.15158E-23
1.38150E-02 1.06900E-23
1.43290E-02 9.93685E-24
1.48521E-02 9.24872E-24
1.53845E-02 8.61900E-24
1.59262E-02 8.04184E-24
1.64770E-02 7.51205E-24
1.70371E-02 7.02505E-24
1.76063E-02 6.57675E-24
1.81848E-02 6.16352E-24
1.87724E-02 5.78211E-24
1.93692E-02 5.42963E-24
1.99751E-02 5.10348E-24
2.05901E-02 4.80134E-24
2.12143E-02 4.52112E-24
2.18476E-02 4.26093E-24
2.24900E-02 4.01908E-24
2.31415E-02 3.79405E-24
2.38021E-02 3.58445E-24
2.44717E-02 3.38902E-24
2.51504E-02 3.20664E-24
2.58382E-02 3.03627E-24
2.65349E-02 2.87698E-24
2.72407E-02 2.72791E-24
2.79555E-02 2.58829E-24
2.86793E-02 2.45741E-24
2.94120E-02 2.33461E-24
3.01537E-02 2.21932E-24
3.09043E-02 2.11099E-24
3.16639E-02 2.00911E-24
3.24324E-02 1.91324E-24
3.32098E-02 1.82295E-24
3.39961E-02 1.73787E-24
3.47912E-02 1.65763E-24
3.55952E-02 1.58191E-24
3.64081E-02 1.51040E-24
3.72297E-02 1.44284E-24
3.80602E-02 1.37895E-24
3.88995E-02 1.31852E-24
3.97476E-02 1.26131E-24
4.06044E-02 1.20712E-24
4.14700E-02 1.15576E-24
4.23443E-02 1.10706E-24
4.32273E-02 1.06085E-24
4.41190E-02 1.01699E-24
4.50194E-02 9.75335E-25
4.59284E-02 9.35748E-25
4.68461E-02 8.98112E-25
4.87074E-02 8.28243E-25
5.06030E-02 7.64908E-25
5.25328E-02 7.07390E-25
5.44967E-02 6.55063E-25
5.64946E-02 6.07379E-25
5.85262E-02 5.63854E-25
6.05914E-02 5.24064E-25
6.26901E-02 4.87634E-25
6.48222E-02 4.54231E-25
6.69873E-02 4.23561E-25
6.91854E-02 3.95362E-25
7.14163E-02 3.69401E-25
7.36799E-02 3.45470E-25
7.59760E-02 3.23384E-25
7.83043E-02 3.02977E-25
8.06647E-02 2.84099E-25
8.30571E-02 2.66616E-25
8.54812E-02 2.50408E-25
8.79369E-02 2.35367E-25
9.04240E-02 2.21394E-25
9.29422E-02 2.08401E-25
9.54915E-02 1.96308E-25
9.80716E-02 1.85042E-25
1.00682E-01 1.74538E-25
1.03323E-01 1.64735E-25
1.05995E-01 1.55578E-25
1.08696E-01 1.47019E-25
1.11427E-01 1.39012E-25
1.14188E-01 1.31515E-25
1.16978E-01 1.24492E-25
1.19797E-01 1.17906E-25
1.22645E-01 1.11727E-25
1.25522E-01 1.05925E-25
1.28428E-01 1.00474E-25
1.31361E-01 9.53484E-26
1.34323E-01 9.05269E-26
1.37313E-01 8.59881E-26
1.40330E-01 8.17129E-26
1.43375E-01 7.76835E-26
1.46447E-01 7.38838E-26
1.49545E-01 7.02986E-26
1.52671E-01 6.69139E-26
1.55823E-01 6.37168E-26
1.59001E-01 6.06954E-26
1.62205E-01 5.78385E-26
1.65435E-01 5.51359E-26
1.68690E-01 5.25779E-26
1.71970E-01 5.01557E-26
1.75276E-01 4.78611E-26
1.78606E-01 4.56863E-26
1.81961E-01 4.36241E-26
1.85340E-01 4.16680E-26
1.88743E-01 3.98116E-26
1.92169E-01 3.80491E-26
1.95619E-01 3.63752E-26
1.99092E-01 3.47847E-26
2.02589E-01 3.32729E-26
2.06107E-01 3.18354E-26
2.09649E-01 3.04680E-26
2.13212E-01 2.91668E-26
2.16797E-01 2.79283E-26
2.20404E-01 2.67489E-26
2.24032E-01 2.56255E-26
2.27680E-01 2.45550E-26
2.31350E-01 2.35346E-26
2.35040E-01 2.25618E-26
2.38751E-01 2.16339E-26
2.42481E-01 2.07486E-26
2.46231E-01 1.99038E-26
2.50000E-01 1.90973E-26
2.53788E-01 1.83271E-26
2.57595E-01 1.75916E-26
2.61421E-01 1.68888E-26
2.65264E-01 1.62171E-26
2.69126E-01 1.55751E-26
2.73005E-01 1.49612E-26
2.76901E-01 1.43740E-26
2.80814E-01 1.38123E-26
2.84744E-01 1.32748E-26
2.88691E-01 1.27604E-26
2.92653E-01 1.22679E-26
2.96632E-01 1.17964E-26
3.00625E-01 1.13447E-26
3.04634E-01 1.09120E-26
3.08658E-01 1.04974E-26
3.12697E-01 1.01000E-26
3.16749E-01 9.71915E-27
3.20816E-01 9.35395E-27
3.24896E-01 9.00373E-27
3.28990E-01 8.66781E-27
3.33097E-01 8.34554E-27
3.37216E-01 8.03631E-27
3.41348E-01 7.73954E-27
3.45492E-01 7.45467E-27
3.49647E-01 7.18118E-27
3.53814E-01 6.91856E-27
3.57992E-01 6.66634E-27
3.62181E-01 6.42407E-27
3.66381E-01 6.19132E-27
3.70590E-01 5.96767E-27
3.74810E-01 5.75273E-27
3.79039E-01 5.54614E-27
3.83277E-01 5.34753E-27
3.87524E-01 5.15657E-27
3.91780E-01 4.97294E-27
3.96044E-01 4.79634E-27
4.00316E-01 4.62645E-27
4.04596E-01 4.46302E-27
4.08882E-01 4.30577E-27
4.13176E-01 4.15444E-27
4.17476E-01 4.00880E-27
4.21783E-01 3.86861E-27
4.26095E-01 3.73365E-27
4.30413E-01 3.60370E-27
4.34737E-01 3.47857E-27
4.39065E-01 3.35807E-27
4.43398E-01 3.24200E-27
4.47736E-01 3.13019E-27
4.52077E-01 3.02247E-27
4.56422E-01 2.91869E-27
4.60770E-01 2.81868E-27
4.65122E-01 2.72229E-27
4.69476E-01 2.62939E-27
4.73832E-01 2.53984E-27
4.78190E-01 2.45351E-27
4.82550E-01 2.37027E-27
4.86912E-01 2.29001E-27
4.91274E-01 2.21261E-27
4.95637E-01 2.13796E-27
5.00000E-01 2.06596E-27
5.04363E-01 1.99650E-27
5.08726E-01 1.92950E-27
5.13088E-01 1.86485E-27
5.17450E-01 1.80247E-27
5.21810E-01 1.74228E-27
5.26168E-01 1.68418E-27
5.30524E-01 1.62811E-27
5.34878E-01 1.57399E-27
5.39230E-01 1.52175E-27
5.43578E-01 1.47131E-27
5.47923E-01 1.42261E-27
5.52264E-01 1.37559E-27
5.56602E-01 1.33018E-27
5.60935E-01 1.28633E-27
5.65263E-01 1.24398E-27
5.69587E-01 1.20308E-27
5.73905E-01 1.16356E-27
5.78217E-01 1.12539E-27
5.82524E-01 1.08852E-27
5.86824E-01 1.05289E-27
5.91118E-01 1.01846E-27
5.95404E-01 9.85198E-28
5.99684E-01 9.53051E-28
6.03956E-01 9.21984E-28
6.08220E-01 8.91958E-28
6.12476E-01 8.62935E-28
6.16723E-01 8.34881E-28
6.20961E-01 8.07762E-28
6.25190E-01 7.81544E-28
6.29410E-01 7.56196E-28
6.33619E-01 7.31688E-28
6.37819E-01 7.07991E-28
6.42008E-01 6.85076E-28
6.46186E-01 6.62916E-28
6.50353E-01 6.41485E-28
6.54508E-01 6.20758E-28
6.58652E-01 6.00711E-28
6.62784E-01 5.81320E-28
6.66903E-01 5.62562E-28
6.71010E-01 5.44417E-28
6.75104E-01 5.26862E-28
6.79184E-01 5.09879E-28
6.83251E-01 4.93447E-28
6.87303E-01 4.77547E-28
6.91342E-01 4.62163E-28
6.95366E-01 4.47276E-28
6.99375E-01 4.32869E-28
7.03368E-01 4.18927E-28
7.07347E-01 4.05433E-28
7.11309E-01 3.92374E-28
7.15256E-01 3.79733E-28
7.19186E-01 3.67497E-28
7.23099E-01 3.55653E-28
7.26995E-01 3.44188E-28
7.30874E-01 3.33088E-28
7.34736E-01 3.22342E-28
7.38579E-01 3.11939E-28
7.42405E-01 3.01866E-28
7.46212E-01 2.92113E-28
7.50000E-01 2.82669E-28
7.53769E-01 2.73525E-28
7.57519E-01 2.64670E-28
7.61249E-01 2.56094E-28
7.64960E-01 2.47790E-28
7.68650E-01 2.39747E-28
7.72320E-01 2.31957E-28
7.75968E-01 2.24413E-28
7.79596E-01 2.17105E-28
7.83203E-01 2.10027E-28
7.86788E-01 2.03171E-28
7.90351E-01 1.96529E-28
7.93893E-01 1.90096E-28
7.97411E-01 1.83863E-28
8.00908E-01 1.77825E-28
8.04381E-01 1.71976E-28
8.07831E-01 1.66309E-28
8.11257E-01 1.60818E-28
8.14660E-01 1.55498E-28
8.18039E-01 1.50344E-28
8.21394E-01 1.45349E-28
8.24724E-01 1.40510E-28
8.28030E-01 1.35821E-28
8.31310E-01 1.31277E-28
8.34565E-01 1.26874E-28
8.37795E-01 1.22607E-28
8.40999E-01 1.18472E-28
8.44177E-01 1.14465E-28
8.47329E-01 1.10582E-28
8.50455E-01 1.06818E-28
8.53553E-01 1.03171E-28
8.56625E-01 9.96362E-29
8.59670E-01 9.62104E-29
8.62687E-01 9.28902E-29
8.65677E-01 8.96723E-29
8.68639E-01 8.65535E-29
8.71572E-01 8.35308E-29
8.74478E-01 8.06011E-29
8.77355E-01 7.77617E-29
8.80203E-01 7.50096E-29
8.83022E-01 7.23422E-29
8.85812E-01 6.97570E-29
8.88573E-01 6.72514E-29
8.91304E-01 6.48230E-29
8.94005E-01 6.24693E-29
8.96677E-01 6.01882E-29
8.99318E-01 5.79774E-29
9.01928E-01 5.58349E-29
9.04508E-01 5.37584E-29
9.07058E-01 5.17462E-29
9.09576E-01 4.97961E-29
9.12063E-01 4.79064E-29
9.14519E-01 4.60752E-29
9.16943E-01 4.43008E-29
9.19335E-01 4.25816E-29
9.21696E-01 4.09158E-29
9.24024E-01 3.93019E-29
9.26320E-01 3.77384E-29
9.28584E-01 3.62238E-29
9.30815E-01 3.47567E-29
9.33013E-01 3.33356E-29
9.35178E-01 3.19593E-29
9.37310E-01 3.06265E-29
9.39409E-01 2.93359E-29
9.41474E-01 2.80863E-29
9.43505E-01 2.68765E-29
9.45503E-01 2.57054E-29
9.47467E-01 2.45720E-29
9.49397E-01 2.34751E-29
9.51293E-01 2.24138E-29
9.53154E-01 2.13871E-29
9.54981E-01 2.03940E-29
9.56773E-01 1.94336E-29
9.58530E-01 1.85050E-29
9.60252E-01 1.76073E-29
9.61940E-01 1.67398E-29
9.63592E-01 1.59017E-29
9.65209E-01 1.50921E-29
9.66790E-01 1.43103E-29
9.68336E-01 1.35557E-29
9.69846E-01 1.28274E-29
9.71321E-01 1.21250E-29
9.72759E-01 1.14477E-29
9.74162E-01 1.07948E-29
9.75528E-01 1.01659E-29
9.76858E-01 9.56035E-30
9.78152E-01 8.97757E-30
9.79410E-01 8.41706E-30
9.80631E-01 7.87831E-30
9.81815E-01 7.36083E-30
9.82963E-01 6.86415E-30
9.84074E-01 6.38783E-30
9.85148E-01 5.93143E-30
9.86185E-01 5.49456E-30
9.87185E-01 5.07680E-30
9.88148E-01 4.67780E-30
9.89074E-01 4.29718E-30
9.89962E-01 3.93462E-30
9.90814E-01 3.58978E-30
9.91627E-01 3.26235E-30
9.92404E-01 2.95205E-30
9.93143E-01 2.65859E-30
9.93844E-01 2.38171E-30
9.94508E-01 2.12117E-30
9.95134E-01 1.87674E-30
9.95722E-01 1.64819E-30
9.96273E-01 1.43532E-30
9.96786E-01 1.23794E-30
9.97261E-01 1.05588E-30
9.97698E-01 8.88974E-31
9.98097E-01 7.37073E-31
9.98459E-01 6.00043E-31
9.98782E-01 4.77761E-31
9.99067E-01 3.70120E-31
9.99315E-01 2.77024E-31
9.99524E-01 1.98390E-31
9.99695E-01 1.34147E-31
9.99829E-01 8.42402E-32
9.99924E-01 4.86238E-32
9.99981E-01 2.72666E-32
1.00000E+00 2.01495E-32
