 #
 # Subroutine ELSEPA. Elastic scattering of electrons and positrons
 #                    by neutral atoms and positive ions
 #
 # Projectile: electron
 # Kinetic energy = 8.00000E+06 eV = 2.93995E+05 a.u.
 #
 # WARNING: High-energy factorization with free-atom DF screening.
 #          Absorption, polarization and exchange corrections are
 #          switched off.
 #          Phase shifts are calculated for the bare nucleus.
 #          Scattering amplitudes are not evaluated.
 #
 # Element: Ga,  Z =  31,  atomic weight = 6.97230E+01 g/mol
 #
 # Nuclear model: Fermi distribution
 #                Average radius = 4.40395E-13 cm
 #                Skin thickness = 5.46000E-14 cm
 #
 # Number of electrons = 31
 #
 # Total elastic cross section = 2.18976E-18 cm**2 = 7.81978E-02 a0**2
 # 1st transport cross section = 2.22628E-23 cm**2 = 7.95020E-07 a0**2
 # 2nd transport cross section = 6.33247E-23 cm**2 = 2.26137E-06 a0**2
 #
 #
 # Differential cross section:                       MU=(1-COS(THETA))/2
 #
 #  THETA        MU          DCS          DCS        Sherman      error
 #  (deg)                 (cm**2/sr)   (a0**2/sr)    function
 #----------------------------------------------------------------------
0.00000E+00 1.39873E-12
7.61557E-13 1.39870E-12
1.18994E-12 1.39868E-12
1.71346E-12 1.39866E-12
2.33225E-12 1.39864E-12
3.04617E-12 1.39861E-12
3.85530E-12 1.39858E-12
4.75964E-12 1.39854E-12
5.75917E-12 1.39850E-12
6.85391E-12 1.39846E-12
8.04379E-12 1.39841E-12
9.32893E-12 1.39836E-12
1.07092E-11 1.39830E-12
1.21847E-11 1.39825E-12
1.37554E-11 1.39818E-12
1.54213E-11 1.39812E-12
1.71823E-11 1.39805E-12
1.90386E-11 1.39797E-12
2.09900E-11 1.39790E-12
2.30367E-11 1.39782E-12
2.51785E-11 1.39773E-12
2.74156E-11 1.39764E-12
2.97478E-11 1.39755E-12
3.21752E-11 1.39745E-12
3.46979E-11 1.39735E-12
3.73157E-11 1.39725E-12
4.00286E-11 1.39714E-12
4.28368E-11 1.39703E-12
4.57402E-11 1.39692E-12
4.87388E-11 1.39680E-12
5.18325E-11 1.39668E-12
5.50215E-11 1.39655E-12
5.83057E-11 1.39642E-12
6.16850E-11 1.39629E-12
6.51595E-11 1.39615E-12
6.87293E-11 1.39601E-12
7.23943E-11 1.39587E-12
7.61544E-11 1.39572E-12
1.18991E-10 1.39403E-12
1.71347E-10 1.39197E-12
2.33223E-10 1.38955E-12
3.04617E-10 1.38676E-12
3.85531E-10 1.38361E-12
4.75965E-10 1.38010E-12
5.75917E-10 1.37625E-12
6.85389E-10 1.37204E-12
8.04380E-10 1.36750E-12
9.32891E-10 1.36262E-12
1.07092E-09 1.35742E-12
1.21847E-09 1.35189E-12
1.37554E-09 1.34605E-12
1.54213E-09 1.33990E-12
1.71823E-09 1.33345E-12
1.90386E-09 1.32671E-12
2.09900E-09 1.31969E-12
2.30367E-09 1.31239E-12
2.51785E-09 1.30483E-12
2.74156E-09 1.29701E-12
2.97478E-09 1.28894E-12
3.21752E-09 1.28063E-12
3.46978E-09 1.27205E-12
3.73156E-09 1.26327E-12
4.00286E-09 1.25430E-12
4.28368E-09 1.24514E-12
4.57402E-09 1.23581E-12
4.87388E-09 1.22632E-12
5.18326E-09 1.21659E-12
5.50215E-09 1.20668E-12
5.83057E-09 1.19665E-12
6.16850E-09 1.18649E-12
6.51596E-09 1.17622E-12
6.87293E-09 1.16584E-12
7.23942E-09 1.15535E-12
7.61544E-09 1.14466E-12
1.18991E-08 1.03458E-12
1.71347E-08 9.23055E-13
2.33223E-08 8.16116E-13
3.04617E-08 7.17354E-13
3.85531E-08 6.28840E-13
4.75965E-08 5.50773E-13
5.75917E-08 4.83069E-13
6.85389E-08 4.24584E-13
8.04380E-08 3.74481E-13
9.32891E-08 3.31509E-13
1.07092E-07 2.94712E-13
1.21847E-07 2.63112E-13
1.37554E-07 2.35896E-13
1.54213E-07 2.12386E-13
1.71823E-07 1.91953E-13
1.90386E-07 1.74162E-13
2.09900E-07 1.58533E-13
2.30367E-07 1.44799E-13
2.51785E-07 1.32618E-13
2.74156E-07 1.21805E-13
2.97478E-07 1.12135E-13
3.21752E-07 1.03346E-13
3.46978E-07 9.49608E-14
3.73156E-07 8.76298E-14
4.00286E-07 8.11925E-14
4.28368E-07 7.55165E-14
4.57402E-07 7.04920E-14
4.87388E-07 6.60270E-14
5.18325E-07 6.14300E-14
5.50215E-07 5.70987E-14
5.83057E-07 5.32363E-14
6.16850E-07 4.97808E-14
6.51596E-07 4.66796E-14
6.87293E-07 4.38879E-14
7.23942E-07 4.12475E-14
7.61543E-07 3.85174E-14
1.18991E-06 2.08784E-14
1.71347E-06 1.18976E-14
2.33223E-06 7.10434E-15
3.04617E-06 4.44203E-15
3.85531E-06 2.90814E-15
4.75964E-06 1.98304E-15
5.75916E-06 1.40302E-15
6.85388E-06 1.02372E-15
8.04378E-06 7.67017E-16
9.32888E-06 5.87147E-16
1.07092E-05 4.57871E-16
1.21846E-05 3.62647E-16
1.37553E-05 2.91030E-16
1.54212E-05 2.36235E-16
1.71822E-05 1.93638E-16
1.90385E-05 1.60150E-16
2.09899E-05 1.33526E-16
2.30365E-05 1.12166E-16
2.51783E-05 9.48396E-17
2.74153E-05 8.06924E-17
2.97475E-05 6.90466E-17
3.21749E-05 5.93969E-17
3.46974E-05 5.13402E-17
3.73152E-05 4.46290E-17
4.00281E-05 3.89626E-17
4.28362E-05 3.41581E-17
4.57395E-05 3.00825E-17
4.87380E-05 2.65772E-17
5.18317E-05 2.35734E-17
5.50205E-05 2.09814E-17
5.83045E-05 1.87330E-17
6.16838E-05 1.67813E-17
6.51582E-05 1.50746E-17
6.87277E-05 1.35809E-17
7.23925E-05 1.22689E-17
7.61524E-05 1.11108E-17
9.21439E-05 7.65081E-18
1.09658E-04 5.44128E-18
1.28695E-04 3.97738E-18
1.49255E-04 2.97528E-18
1.71338E-04 2.27062E-18
1.94942E-04 1.76308E-18
2.20070E-04 1.38994E-18
2.46720E-04 1.11061E-18
2.74892E-04 8.98070E-19
3.04586E-04 7.34076E-19
3.35803E-04 6.05839E-19
3.68542E-04 5.04439E-19
4.02802E-04 4.23380E-19
4.38585E-04 3.57971E-19
4.75889E-04 3.04715E-19
5.14715E-04 2.61002E-19
5.55063E-04 2.24854E-19
5.96931E-04 1.94751E-19
6.40321E-04 1.69522E-19
6.85233E-04 1.48248E-19
7.31665E-04 1.30211E-19
7.79618E-04 1.14835E-19
8.29092E-04 1.01664E-19
8.80086E-04 9.03289E-20
9.32601E-04 8.05314E-20
9.86636E-04 7.20276E-20
1.04219E-03 6.46181E-20
1.09927E-03 5.81380E-20
1.15786E-03 5.24510E-20
1.21797E-03 4.74434E-20
1.27961E-03 4.30200E-20
1.34276E-03 3.91009E-20
1.40743E-03 3.56187E-20
1.47362E-03 3.25162E-20
1.54133E-03 2.97447E-20
1.61056E-03 2.72628E-20
1.68131E-03 2.50348E-20
1.75357E-03 2.30303E-20
1.82735E-03 2.12228E-20
1.90265E-03 1.95895E-20
1.97947E-03 1.81107E-20
2.05780E-03 1.67691E-20
2.13765E-03 1.55497E-20
2.21902E-03 1.44394E-20
2.30190E-03 1.34267E-20
2.38630E-03 1.25014E-20
2.47222E-03 1.16547E-20
2.55965E-03 1.08787E-20
2.64859E-03 1.01663E-20
2.73905E-03 9.51149E-21
2.83103E-03 8.90868E-21
2.92452E-03 8.35301E-21
3.01952E-03 7.84012E-21
3.11604E-03 7.36611E-21
3.21407E-03 6.92749E-21
3.31362E-03 6.52114E-21
3.41468E-03 6.14424E-21
3.51725E-03 5.79427E-21
3.62133E-03 5.46894E-21
3.72692E-03 5.16620E-21
3.83403E-03 4.88420E-21
3.94265E-03 4.62123E-21
4.05278E-03 4.37580E-21
4.16442E-03 4.14649E-21
4.27757E-03 3.93207E-21
4.39223E-03 3.73138E-21
4.50840E-03 3.54338E-21
4.62608E-03 3.36711E-21
4.74527E-03 3.20171E-21
4.86597E-03 3.04638E-21
4.98817E-03 2.90039E-21
5.11188E-03 2.76308E-21
5.23711E-03 2.63383E-21
5.36383E-03 2.51208E-21
5.49207E-03 2.39732E-21
5.62181E-03 2.28906E-21
5.75306E-03 2.18686E-21
5.88581E-03 2.09033E-21
6.02007E-03 1.99910E-21
6.15583E-03 1.91280E-21
6.29310E-03 1.83114E-21
6.43187E-03 1.75380E-21
6.57214E-03 1.68052E-21
6.71392E-03 1.61105E-21
6.85720E-03 1.54514E-21
7.00198E-03 1.48259E-21
7.14827E-03 1.42319E-21
7.29605E-03 1.36674E-21
7.44534E-03 1.31308E-21
7.59612E-03 1.26204E-21
7.97965E-03 1.14492E-21
8.37255E-03 1.04114E-21
8.77480E-03 9.48912E-22
9.18641E-03 8.66719E-22
9.60736E-03 7.93278E-22
1.00376E-02 7.27490E-22
1.04773E-02 6.68416E-22
1.09262E-02 6.15248E-22
1.13844E-02 5.67289E-22
1.18520E-02 5.23938E-22
1.23288E-02 4.84670E-22
1.28150E-02 4.49033E-22
1.33104E-02 4.16629E-22
1.38150E-02 3.87112E-22
1.43290E-02 3.60177E-22
1.48521E-02 3.35558E-22
1.53845E-02 3.13018E-22
1.59262E-02 2.92350E-22
1.64770E-02 2.73369E-22
1.70371E-02 2.55913E-22
1.76063E-02 2.39837E-22
1.81848E-02 2.25010E-22
1.87724E-02 2.11318E-22
1.93692E-02 1.98658E-22
1.99751E-02 1.86938E-22
2.05901E-02 1.76075E-22
2.12143E-02 1.65994E-22
2.18476E-02 1.56628E-22
2.24900E-02 1.47918E-22
2.31415E-02 1.39808E-22
2.38021E-02 1.32250E-22
2.44717E-02 1.25199E-22
2.51504E-02 1.18615E-22
2.58382E-02 1.12460E-22
2.65349E-02 1.06702E-22
2.72407E-02 1.01310E-22
2.79555E-02 9.62567E-23
2.86793E-02 9.15162E-23
2.94120E-02 8.70657E-23
3.01537E-02 8.28842E-23
3.09043E-02 7.89522E-23
3.16639E-02 7.52520E-23
3.24324E-02 7.17674E-23
3.32098E-02 6.84833E-23
3.39961E-02 6.53861E-23
3.47912E-02 6.24631E-23
3.55952E-02 5.97025E-23
3.64081E-02 5.70938E-23
3.72297E-02 5.46267E-23
3.80602E-02 5.22923E-23
3.88995E-02 5.00820E-23
3.97476E-02 4.79878E-23
4.06044E-02 4.60027E-23
4.14700E-02 4.41197E-23
4.23443E-02 4.23326E-23
4.32273E-02 4.06356E-23
4.41190E-02 3.90233E-23
4.50194E-02 3.74906E-23
4.59284E-02 3.60328E-23
4.68461E-02 3.46455E-23
4.87074E-02 3.20666E-23
5.06030E-02 2.97244E-23
5.25328E-02 2.75932E-23
5.44967E-02 2.56505E-23
5.64946E-02 2.38766E-23
5.85262E-02 2.22540E-23
6.05914E-02 2.07675E-23
6.26901E-02 1.94036E-23
6.48222E-02 1.81502E-23
6.69873E-02 1.69968E-23
6.91854E-02 1.59339E-23
7.14163E-02 1.49530E-23
7.36799E-02 1.40466E-23
7.59760E-02 1.32081E-23
7.83043E-02 1.24314E-23
8.06647E-02 1.17110E-23
8.30571E-02 1.10422E-23
8.54812E-02 1.04205E-23
8.79369E-02 9.84199E-24
9.04240E-02 9.30312E-24
9.29422E-02 8.80065E-24
9.54915E-02 8.33166E-24
9.80716E-02 7.89348E-24
1.00682E-01 7.48373E-24
1.03323E-01 7.10020E-24
1.05995E-01 6.74090E-24
1.08696E-01 6.40399E-24
1.11427E-01 6.08784E-24
1.14188E-01 5.79092E-24
1.16978E-01 5.51182E-24
1.19797E-01 5.24928E-24
1.22645E-01 5.00213E-24
1.25522E-01 4.76930E-24
1.28428E-01 4.54980E-24
1.31361E-01 4.34271E-24
1.34323E-01 4.14721E-24
1.37313E-01 3.96253E-24
1.40330E-01 3.78795E-24
1.43375E-01 3.62279E-24
1.46447E-01 3.46648E-24
1.49545E-01 3.31845E-24
1.52671E-01 3.17816E-24
1.55823E-01 3.04514E-24
1.59001E-01 2.91894E-24
1.62205E-01 2.79914E-24
1.65435E-01 2.68536E-24
1.68690E-01 2.57724E-24
1.71970E-01 2.47443E-24
1.75276E-01 2.37664E-24
1.78606E-01 2.28357E-24
1.81961E-01 2.19494E-24
1.85340E-01 2.11051E-24
1.88743E-01 2.03004E-24
1.92169E-01 1.95331E-24
1.95619E-01 1.88010E-24
1.99092E-01 1.81024E-24
2.02589E-01 1.74353E-24
2.06107E-01 1.67981E-24
2.09649E-01 1.61892E-24
2.13212E-01 1.56070E-24
2.16797E-01 1.50503E-24
2.20404E-01 1.45176E-24
2.24032E-01 1.40077E-24
2.27680E-01 1.35195E-24
2.31350E-01 1.30519E-24
2.35040E-01 1.26038E-24
2.38751E-01 1.21743E-24
2.42481E-01 1.17624E-24
2.46231E-01 1.13673E-24
2.50000E-01 1.09882E-24
2.53788E-01 1.06243E-24
2.57595E-01 1.02749E-24
2.61421E-01 9.93933E-25
2.65264E-01 9.61688E-25
2.69126E-01 9.30697E-25
2.73005E-01 9.00902E-25
2.76901E-01 8.72249E-25
2.80814E-01 8.44685E-25
2.84744E-01 8.18161E-25
2.88691E-01 7.92631E-25
2.92653E-01 7.68050E-25
2.96632E-01 7.44377E-25
3.00625E-01 7.21572E-25
3.04634E-01 6.99597E-25
3.08658E-01 6.78416E-25
3.12697E-01 6.57995E-25
3.16749E-01 6.38302E-25
3.20816E-01 6.19306E-25
3.24896E-01 6.00978E-25
3.28990E-01 5.83291E-25
3.33097E-01 5.66217E-25
3.37216E-01 5.49731E-25
3.41348E-01 5.33809E-25
3.45492E-01 5.18430E-25
3.49647E-01 5.03569E-25
3.53814E-01 4.89208E-25
3.57992E-01 4.75326E-25
3.62181E-01 4.61904E-25
3.66381E-01 4.48925E-25
3.70590E-01 4.36370E-25
3.74810E-01 4.24224E-25
3.79039E-01 4.12470E-25
3.83277E-01 4.01095E-25
3.87524E-01 3.90083E-25
3.91780E-01 3.79421E-25
3.96044E-01 3.69095E-25
4.00316E-01 3.59094E-25
4.04596E-01 3.49404E-25
4.08882E-01 3.40016E-25
4.13176E-01 3.30917E-25
4.17476E-01 3.22097E-25
4.21783E-01 3.13546E-25
4.26095E-01 3.05254E-25
4.30413E-01 2.97213E-25
4.34737E-01 2.89413E-25
4.39065E-01 2.81845E-25
4.43398E-01 2.74502E-25
4.47736E-01 2.67376E-25
4.52077E-01 2.60459E-25
4.56422E-01 2.53744E-25
4.60770E-01 2.47224E-25
4.65122E-01 2.40892E-25
4.69476E-01 2.34743E-25
4.73832E-01 2.28769E-25
4.78190E-01 2.22966E-25
4.82550E-01 2.17326E-25
4.86912E-01 2.11846E-25
4.91274E-01 2.06519E-25
4.95637E-01 2.01340E-25
5.00000E-01 1.96306E-25
5.04363E-01 1.91410E-25
5.08726E-01 1.86649E-25
5.13088E-01 1.82019E-25
5.17450E-01 1.77514E-25
5.21810E-01 1.73132E-25
5.26168E-01 1.68867E-25
5.30524E-01 1.64718E-25
5.34878E-01 1.60679E-25
5.39230E-01 1.56747E-25
5.43578E-01 1.52920E-25
5.47923E-01 1.49194E-25
5.52264E-01 1.45565E-25
5.56602E-01 1.42032E-25
5.60935E-01 1.38590E-25
5.65263E-01 1.35237E-25
5.69587E-01 1.31971E-25
5.73905E-01 1.28789E-25
5.78217E-01 1.25689E-25
5.82524E-01 1.22667E-25
5.86824E-01 1.19722E-25
5.91118E-01 1.16851E-25
5.95404E-01 1.14053E-25
5.99684E-01 1.11325E-25
6.03956E-01 1.08665E-25
6.08220E-01 1.06071E-25
6.12476E-01 1.03541E-25
6.16723E-01 1.01074E-25
6.20961E-01 9.86677E-26
6.25190E-01 9.63201E-26
6.29410E-01 9.40298E-26
6.33619E-01 9.17951E-26
6.37819E-01 8.96146E-26
6.42008E-01 8.74868E-26
6.46186E-01 8.54101E-26
6.50353E-01 8.33831E-26
6.54508E-01 8.14046E-26
6.58652E-01 7.94731E-26
6.62784E-01 7.75875E-26
6.66903E-01 7.57464E-26
6.71010E-01 7.39487E-26
6.75104E-01 7.21933E-26
6.79184E-01 7.04789E-26
6.83251E-01 6.88045E-26
6.87303E-01 6.71690E-26
6.91342E-01 6.55715E-26
6.95366E-01 6.40109E-26
6.99375E-01 6.24863E-26
7.03368E-01 6.09967E-26
7.07347E-01 5.95412E-26
7.11309E-01 5.81189E-26
7.15256E-01 5.67291E-26
7.19186E-01 5.53708E-26
7.23099E-01 5.40434E-26
7.26995E-01 5.27459E-26
7.30874E-01 5.14776E-26
7.34736E-01 5.02379E-26
7.38579E-01 4.90259E-26
7.42405E-01 4.78411E-26
7.46212E-01 4.66827E-26
7.50000E-01 4.55501E-26
7.53769E-01 4.44426E-26
7.57519E-01 4.33597E-26
7.61249E-01 4.23007E-26
7.64960E-01 4.12651E-26
7.68650E-01 4.02523E-26
7.72320E-01 3.92618E-26
7.75968E-01 3.82930E-26
7.79596E-01 3.73454E-26
7.83203E-01 3.64185E-26
7.86788E-01 3.55119E-26
7.90351E-01 3.46249E-26
7.93893E-01 3.37573E-26
7.97411E-01 3.29086E-26
8.00908E-01 3.20782E-26
8.04381E-01 3.12658E-26
8.07831E-01 3.04710E-26
8.11257E-01 2.96934E-26
8.14660E-01 2.89326E-26
8.18039E-01 2.81881E-26
8.21394E-01 2.74598E-26
8.24724E-01 2.67470E-26
8.28030E-01 2.60497E-26
8.31310E-01 2.53673E-26
8.34565E-01 2.46996E-26
8.37795E-01 2.40462E-26
8.40999E-01 2.34069E-26
8.44177E-01 2.27813E-26
8.47329E-01 2.21691E-26
8.50455E-01 2.15700E-26
8.53553E-01 2.09839E-26
8.56625E-01 2.04103E-26
8.59670E-01 1.98490E-26
8.62687E-01 1.92999E-26
8.65677E-01 1.87625E-26
8.68639E-01 1.82367E-26
8.71572E-01 1.77222E-26
8.74478E-01 1.72189E-26
8.77355E-01 1.67264E-26
8.80203E-01 1.62446E-26
8.83022E-01 1.57732E-26
8.85812E-01 1.53121E-26
8.88573E-01 1.48610E-26
8.91304E-01 1.44197E-26
8.94005E-01 1.39880E-26
8.96677E-01 1.35659E-26
8.99318E-01 1.31530E-26
9.01928E-01 1.27491E-26
9.04508E-01 1.23542E-26
9.07058E-01 1.19681E-26
9.09576E-01 1.15906E-26
9.12063E-01 1.12214E-26
9.14519E-01 1.08606E-26
9.16943E-01 1.05079E-26
9.19335E-01 1.01631E-26
9.21696E-01 9.82623E-27
9.24024E-01 9.49701E-27
9.26320E-01 9.17536E-27
9.28584E-01 8.86113E-27
9.30815E-01 8.55419E-27
9.33013E-01 8.25443E-27
9.35178E-01 7.96172E-27
9.37310E-01 7.67595E-27
9.39409E-01 7.39699E-27
9.41474E-01 7.12473E-27
9.43505E-01 6.85908E-27
9.45503E-01 6.59991E-27
9.47467E-01 6.34713E-27
9.49397E-01 6.10064E-27
9.51293E-01 5.86034E-27
9.53154E-01 5.62613E-27
9.54981E-01 5.39793E-27
9.56773E-01 5.17564E-27
9.58530E-01 4.95918E-27
9.60252E-01 4.74846E-27
9.61940E-01 4.54340E-27
9.63592E-01 4.34393E-27
9.65209E-01 4.14997E-27
9.66790E-01 3.96143E-27
9.68336E-01 3.77825E-27
9.69846E-01 3.60037E-27
9.71321E-01 3.42770E-27
9.72759E-01 3.26019E-27
9.74162E-01 3.09777E-27
9.75528E-01 2.94039E-27
9.76858E-01 2.78797E-27
9.78152E-01 2.64047E-27
9.79410E-01 2.49782E-27
9.80631E-01 2.35999E-27
9.81815E-01 2.22690E-27
9.82963E-01 2.09852E-27
9.84074E-01 1.97479E-27
9.85148E-01 1.85567E-27
9.86185E-01 1.74112E-27
9.87185E-01 1.63110E-27
9.88148E-01 1.52555E-27
9.89074E-01 1.42445E-27
9.89962E-01 1.32775E-27
9.90814E-01 1.23543E-27
9.91627E-01 1.14744E-27
9.92404E-01 1.06375E-27
9.93143E-01 9.84340E-28
9.93844E-01 9.09173E-28
9.94508E-01 8.38223E-28
9.95134E-01 7.71464E-28
9.95722E-01 7.08872E-28
9.96273E-01 6.50423E-28
9.96786E-01 5.96098E-28
9.97261E-01 5.45875E-28
9.97698E-01 4.99737E-28
9.98097E-01 4.57666E-28
9.98459E-01 4.19648E-28
9.98782E-01 3.85669E-28
9.99067E-01 3.55716E-28
9.99315E-01 3.29779E-28
9.99524E-01 3.07848E-28
9.99695E-01 2.89916E-28
9.99829E-01 2.75975E-28
9.99924E-01 2.66020E-28
9.99981E-01 2.60049E-28
1.00000E+00 2.58059E-28
