 #
 # Subroutine ELSEPA. Elastic scattering of electrons and positrons
 #                    by neutral atoms and positive ions
 #
 # Projectile: electron
 # Kinetic energy = 1.25000E+06 eV = 4.59367E+04 a.u.
 #
 # WARNING: High-energy factorization with free-atom DF screening.
 #          Absorption, polarization and exchange corrections are
 #          switched off.
 #          Phase shifts are calculated for the bare nucleus.
 #          Scattering amplitudes are not evaluated.
 #
 # Element: Ga,  Z =  31,  atomic weight = 6.97230E+01 g/mol
 #
 # Nuclear model: Fermi distribution
 #                Average radius = 4.40395E-13 cm
 #                Skin thickness = 5.46000E-14 cm
 #
 # Number of electrons = 31
 #
 # Total elastic cross section = 2.38804E-18 cm**2 = 8.52785E-02 a0**2
 # 1st transport cross section = 4.63829E-22 cm**2 = 1.65636E-05 a0**2
 # 2nd transport cross section = 1.28820E-21 cm**2 = 4.60024E-05 a0**2
 #
 #
 # Differential cross section:                       MU=(1-COS(THETA))/2
 #
 #  THETA        MU          DCS          DCS        Sherman      error
 #  (deg)                 (cm**2/sr)   (a0**2/sr)    function
 #----------------------------------------------------------------------
0.00000E+00 5.98812E-14
7.61557E-13 5.98812E-14
1.18994E-12 5.98812E-14
1.71346E-12 5.98812E-14
2.33225E-12 5.98811E-14
3.04617E-12 5.98811E-14
3.85530E-12 5.98810E-14
4.75964E-12 5.98810E-14
5.75917E-12 5.98809E-14
6.85391E-12 5.98808E-14
8.04379E-12 5.98808E-14
9.32893E-12 5.98807E-14
1.07092E-11 5.98806E-14
1.21847E-11 5.98805E-14
1.37554E-11 5.98804E-14
1.54213E-11 5.98803E-14
1.71823E-11 5.98802E-14
1.90386E-11 5.98801E-14
2.09900E-11 5.98799E-14
2.30367E-11 5.98798E-14
2.51785E-11 5.98797E-14
2.74156E-11 5.98795E-14
2.97478E-11 5.98794E-14
3.21752E-11 5.98792E-14
3.46979E-11 5.98791E-14
3.73157E-11 5.98789E-14
4.00286E-11 5.98787E-14
4.28368E-11 5.98785E-14
4.57402E-11 5.98783E-14
4.87388E-11 5.98781E-14
5.18325E-11 5.98779E-14
5.50215E-11 5.98777E-14
5.83057E-11 5.98775E-14
6.16850E-11 5.98773E-14
6.51595E-11 5.98771E-14
6.87293E-11 5.98768E-14
7.23943E-11 5.98766E-14
7.61544E-11 5.98764E-14
1.18991E-10 5.98736E-14
1.71347E-10 5.98701E-14
2.33223E-10 5.98660E-14
3.04617E-10 5.98613E-14
3.85531E-10 5.98560E-14
4.75965E-10 5.98500E-14
5.75917E-10 5.98434E-14
6.85389E-10 5.98362E-14
8.04380E-10 5.98283E-14
9.32891E-10 5.98198E-14
1.07092E-09 5.98107E-14
1.21847E-09 5.98009E-14
1.37554E-09 5.97905E-14
1.54213E-09 5.97795E-14
1.71823E-09 5.97679E-14
1.90386E-09 5.97556E-14
2.09900E-09 5.97427E-14
2.30367E-09 5.97291E-14
2.51785E-09 5.97150E-14
2.74156E-09 5.97002E-14
2.97478E-09 5.96848E-14
3.21752E-09 5.96687E-14
3.46978E-09 5.96521E-14
3.73156E-09 5.96348E-14
4.00286E-09 5.96169E-14
4.28368E-09 5.95984E-14
4.57402E-09 5.95793E-14
4.87388E-09 5.95595E-14
5.18326E-09 5.95391E-14
5.50215E-09 5.95181E-14
5.83057E-09 5.94965E-14
6.16850E-09 5.94743E-14
6.51596E-09 5.94515E-14
6.87293E-09 5.94280E-14
7.23942E-09 5.94040E-14
7.61544E-09 5.93793E-14
1.18991E-08 5.90995E-14
1.71347E-08 5.87605E-14
2.33223E-08 5.83640E-14
3.04617E-08 5.79121E-14
3.85531E-08 5.74071E-14
4.75965E-08 5.68515E-14
5.75917E-08 5.62479E-14
6.85389E-08 5.55994E-14
8.04380E-08 5.49088E-14
9.32891E-08 5.41764E-14
1.07092E-07 5.34107E-14
1.21847E-07 5.26153E-14
1.37554E-07 5.17866E-14
1.54213E-07 5.09323E-14
1.71823E-07 5.00588E-14
1.90386E-07 4.91638E-14
2.09900E-07 4.82496E-14
2.30367E-07 4.73260E-14
2.51785E-07 4.63931E-14
2.74156E-07 4.54457E-14
2.97478E-07 4.44976E-14
3.21752E-07 4.35512E-14
3.46978E-07 4.25951E-14
3.73156E-07 4.16448E-14
4.00286E-07 4.07029E-14
4.28368E-07 3.97610E-14
4.57402E-07 3.88267E-14
4.87388E-07 3.79061E-14
5.18325E-07 3.69940E-14
5.50215E-07 3.60900E-14
5.83057E-07 3.52034E-14
6.16850E-07 3.43324E-14
6.51596E-07 3.34690E-14
6.87293E-07 3.26255E-14
7.23942E-07 3.18022E-14
7.61543E-07 3.09873E-14
1.18991E-06 2.38474E-14
1.71347E-06 1.84167E-14
2.33223E-06 1.43982E-14
3.04617E-06 1.14383E-14
3.85531E-06 9.23938E-15
4.75964E-06 7.58063E-15
5.75916E-06 6.30601E-15
6.85388E-06 5.30761E-15
8.04378E-06 4.51111E-15
9.32888E-06 3.82500E-15
1.07092E-05 3.29462E-15
1.21846E-05 2.87907E-15
1.37553E-05 2.49801E-15
1.54212E-05 2.17687E-15
1.71822E-05 1.91826E-15
1.90385E-05 1.68900E-15
2.09899E-05 1.48291E-15
2.30365E-05 1.31335E-15
2.51783E-05 1.16806E-15
2.74153E-05 1.03154E-15
2.97475E-05 9.17287E-16
3.21749E-05 8.20981E-16
3.46974E-05 7.29790E-16
3.73152E-05 6.51955E-16
4.00281E-05 5.85501E-16
4.28362E-05 5.24890E-16
4.57395E-05 4.71311E-16
4.87380E-05 4.25013E-16
5.18317E-05 3.83690E-16
5.50205E-05 3.46395E-16
5.83045E-05 3.13837E-16
6.16838E-05 2.85074E-16
6.51582E-05 2.58835E-16
6.87277E-05 2.35721E-16
7.23925E-05 2.15288E-16
7.61524E-05 1.96637E-16
9.21439E-05 1.39686E-16
1.09658E-04 1.01952E-16
1.28695E-04 7.62635E-17
1.49255E-04 5.82904E-17
1.71338E-04 4.54230E-17
1.94942E-04 3.59986E-17
2.20070E-04 2.89452E-17
2.46720E-04 2.35666E-17
2.74892E-04 1.93989E-17
3.04586E-04 1.61246E-17
3.35803E-04 1.35179E-17
3.68542E-04 1.14181E-17
4.02802E-04 9.70698E-18
4.38585E-04 8.30300E-18
4.75889E-04 7.14211E-18
5.14715E-04 6.17545E-18
5.55063E-04 5.36468E-18
5.96931E-04 4.68114E-18
6.40321E-04 4.10193E-18
6.85233E-04 3.60857E-18
7.31665E-04 3.18620E-18
7.79618E-04 2.82298E-18
8.29092E-04 2.50892E-18
8.80086E-04 2.23680E-18
9.32601E-04 2.00129E-18
9.86636E-04 1.79618E-18
1.04219E-03 1.61543E-18
1.09927E-03 1.45722E-18
1.15786E-03 1.31824E-18
1.21797E-03 1.19478E-18
1.27961E-03 1.08557E-18
1.34276E-03 9.88745E-19
1.40743E-03 9.02327E-19
1.47362E-03 8.25131E-19
1.54133E-03 7.56128E-19
1.61056E-03 6.94189E-19
1.68131E-03 6.38410E-19
1.75357E-03 5.88194E-19
1.82735E-03 5.42868E-19
1.90265E-03 5.01776E-19
1.97947E-03 4.64550E-19
2.05780E-03 4.30760E-19
2.13765E-03 3.99958E-19
2.21902E-03 3.71888E-19
2.30190E-03 3.46271E-19
2.38630E-03 3.22820E-19
2.47222E-03 3.01328E-19
2.55965E-03 2.81620E-19
2.64859E-03 2.63505E-19
2.73905E-03 2.46823E-19
2.83103E-03 2.31457E-19
2.92452E-03 2.17283E-19
3.01952E-03 2.04168E-19
3.11604E-03 1.92041E-19
3.21407E-03 1.80815E-19
3.31362E-03 1.70391E-19
3.41468E-03 1.60715E-19
3.51725E-03 1.51726E-19
3.62133E-03 1.43356E-19
3.72692E-03 1.35557E-19
3.83403E-03 1.28289E-19
3.94265E-03 1.21504E-19
4.05278E-03 1.15160E-19
4.16442E-03 1.09231E-19
4.27757E-03 1.03683E-19
4.39223E-03 9.84782E-20
4.50840E-03 9.36007E-20
4.62608E-03 8.90259E-20
4.74527E-03 8.47246E-20
4.86597E-03 8.06821E-20
4.98817E-03 7.68812E-20
5.11188E-03 7.33013E-20
5.23711E-03 6.99273E-20
5.36383E-03 6.67480E-20
5.49207E-03 6.37484E-20
5.62181E-03 6.09140E-20
5.75306E-03 5.82376E-20
5.88581E-03 5.57086E-20
6.02007E-03 5.33132E-20
6.15583E-03 5.10470E-20
6.29310E-03 4.89015E-20
6.43187E-03 4.68667E-20
6.57214E-03 4.49371E-20
6.71392E-03 4.31072E-20
6.85720E-03 4.13694E-20
7.00198E-03 3.97181E-20
7.14827E-03 3.81495E-20
7.29605E-03 3.66581E-20
7.44534E-03 3.52382E-20
7.59612E-03 3.38872E-20
7.97965E-03 3.07834E-20
8.37255E-03 2.80285E-20
8.77480E-03 2.55763E-20
9.18641E-03 2.33870E-20
9.60736E-03 2.14280E-20
1.00376E-02 1.96708E-20
1.04773E-02 1.80909E-20
1.09262E-02 1.66668E-20
1.13844E-02 1.53807E-20
1.18520E-02 1.42169E-20
1.23288E-02 1.31616E-20
1.28150E-02 1.22027E-20
1.33104E-02 1.13299E-20
1.38150E-02 1.05342E-20
1.43290E-02 9.80738E-21
1.48521E-02 9.14246E-21
1.53845E-02 8.53315E-21
1.59262E-02 7.97403E-21
1.64770E-02 7.46019E-21
1.70371E-02 6.98728E-21
1.76063E-02 6.55138E-21
1.81848E-02 6.14914E-21
1.87724E-02 5.77747E-21
1.93692E-02 5.43360E-21
1.99751E-02 5.11504E-21
2.05901E-02 4.81962E-21
2.12143E-02 4.54534E-21
2.18476E-02 4.29041E-21
2.24900E-02 4.05318E-21
2.31415E-02 3.83221E-21
2.38021E-02 3.62619E-21
2.44717E-02 3.43391E-21
2.51504E-02 3.25427E-21
2.58382E-02 3.08629E-21
2.65349E-02 2.92908E-21
2.72407E-02 2.78181E-21
2.79555E-02 2.64374E-21
2.86793E-02 2.51417E-21
2.94120E-02 2.39249E-21
3.01537E-02 2.27813E-21
3.09043E-02 2.17057E-21
3.16639E-02 2.06931E-21
3.24324E-02 1.97393E-21
3.32098E-02 1.88402E-21
3.39961E-02 1.79920E-21
3.47912E-02 1.71913E-21
3.55952E-02 1.64349E-21
3.64081E-02 1.57199E-21
3.72297E-02 1.50436E-21
3.80602E-02 1.44036E-21
3.88995E-02 1.37974E-21
3.97476E-02 1.32230E-21
4.06044E-02 1.26784E-21
4.14700E-02 1.21617E-21
4.23443E-02 1.16712E-21
4.32273E-02 1.12053E-21
4.41190E-02 1.07627E-21
4.50194E-02 1.03417E-21
4.59284E-02 9.94135E-22
4.68461E-02 9.56028E-22
4.87074E-02 8.85169E-22
5.06030E-02 8.20794E-22
5.25328E-02 7.62201E-22
5.44967E-02 7.08775E-22
5.64946E-02 6.59976E-22
5.85262E-02 6.15330E-22
6.05914E-02 5.74418E-22
6.26901E-02 5.36869E-22
6.48222E-02 5.02355E-22
6.69873E-02 4.70587E-22
6.91854E-02 4.41303E-22
7.14163E-02 4.14274E-22
7.36799E-02 3.89294E-22
7.59760E-02 3.66177E-22
7.83043E-02 3.44760E-22
8.06647E-02 3.24892E-22
8.30571E-02 3.06442E-22
8.54812E-02 2.89289E-22
8.79369E-02 2.73324E-22
9.04240E-02 2.58450E-22
9.29422E-02 2.44578E-22
9.54915E-02 2.31627E-22
9.80716E-02 2.19525E-22
1.00682E-01 2.08205E-22
1.03323E-01 1.97608E-22
1.05995E-01 1.87678E-22
1.08696E-01 1.78366E-22
1.11427E-01 1.69625E-22
1.14188E-01 1.61414E-22
1.16978E-01 1.53695E-22
1.19797E-01 1.46432E-22
1.22645E-01 1.39593E-22
1.25522E-01 1.33149E-22
1.28428E-01 1.27073E-22
1.31361E-01 1.21339E-22
1.34323E-01 1.15925E-22
1.37313E-01 1.10810E-22
1.40330E-01 1.05973E-22
1.43375E-01 1.01396E-22
1.46447E-01 9.70639E-23
1.49545E-01 9.29598E-23
1.52671E-01 8.90698E-23
1.55823E-01 8.53804E-23
1.59001E-01 8.18795E-23
1.62205E-01 7.85554E-23
1.65435E-01 7.53975E-23
1.68690E-01 7.23960E-23
1.71970E-01 6.95415E-23
1.75276E-01 6.68254E-23
1.78606E-01 6.42399E-23
1.81961E-01 6.17773E-23
1.85340E-01 5.94307E-23
1.88743E-01 5.71937E-23
1.92169E-01 5.50600E-23
1.95619E-01 5.30240E-23
1.99092E-01 5.10803E-23
2.02589E-01 4.92240E-23
2.06107E-01 4.74504E-23
2.09649E-01 4.57550E-23
2.13212E-01 4.41338E-23
2.16797E-01 4.25829E-23
2.20404E-01 4.10987E-23
2.24032E-01 3.96776E-23
2.27680E-01 3.83166E-23
2.31350E-01 3.70126E-23
2.35040E-01 3.57628E-23
2.38751E-01 3.45644E-23
2.42481E-01 3.34149E-23
2.46231E-01 3.23120E-23
2.50000E-01 3.12534E-23
2.53788E-01 3.02370E-23
2.57595E-01 2.92607E-23
2.61421E-01 2.83228E-23
2.65264E-01 2.74213E-23
2.69126E-01 2.65547E-23
2.73005E-01 2.57212E-23
2.76901E-01 2.49195E-23
2.80814E-01 2.41480E-23
2.84744E-01 2.34054E-23
2.88691E-01 2.26903E-23
2.92653E-01 2.20017E-23
2.96632E-01 2.13383E-23
3.00625E-01 2.06990E-23
3.04634E-01 2.00827E-23
3.08658E-01 1.94886E-23
3.12697E-01 1.89156E-23
3.16749E-01 1.83628E-23
3.20816E-01 1.78294E-23
3.24896E-01 1.73146E-23
3.28990E-01 1.68177E-23
3.33097E-01 1.63378E-23
3.37216E-01 1.58743E-23
3.41348E-01 1.54265E-23
3.45492E-01 1.49938E-23
3.49647E-01 1.45755E-23
3.53814E-01 1.41712E-23
3.57992E-01 1.37802E-23
3.62181E-01 1.34021E-23
3.66381E-01 1.30362E-23
3.70590E-01 1.26823E-23
3.74810E-01 1.23397E-23
3.79039E-01 1.20081E-23
3.83277E-01 1.16870E-23
3.87524E-01 1.13761E-23
3.91780E-01 1.10749E-23
3.96044E-01 1.07831E-23
4.00316E-01 1.05004E-23
4.04596E-01 1.02264E-23
4.08882E-01 9.96084E-24
4.13176E-01 9.70335E-24
4.17476E-01 9.45365E-24
4.21783E-01 9.21148E-24
4.26095E-01 8.97656E-24
4.30413E-01 8.74864E-24
4.34737E-01 8.52747E-24
4.39065E-01 8.31282E-24
4.43398E-01 8.10445E-24
4.47736E-01 7.90214E-24
4.52077E-01 7.70570E-24
4.56422E-01 7.51492E-24
4.60770E-01 7.32960E-24
4.65122E-01 7.14956E-24
4.69476E-01 6.97463E-24
4.73832E-01 6.80463E-24
4.78190E-01 6.63940E-24
4.82550E-01 6.47878E-24
4.86912E-01 6.32261E-24
4.91274E-01 6.17076E-24
4.95637E-01 6.02309E-24
5.00000E-01 5.87945E-24
5.04363E-01 5.73971E-24
5.08726E-01 5.60376E-24
5.13088E-01 5.47147E-24
5.17450E-01 5.34273E-24
5.21810E-01 5.21742E-24
5.26168E-01 5.09544E-24
5.30524E-01 4.97668E-24
5.34878E-01 4.86104E-24
5.39230E-01 4.74843E-24
5.43578E-01 4.63875E-24
5.47923E-01 4.53192E-24
5.52264E-01 4.42784E-24
5.56602E-01 4.32644E-24
5.60935E-01 4.22763E-24
5.65263E-01 4.13134E-24
5.69587E-01 4.03749E-24
5.73905E-01 3.94601E-24
5.78217E-01 3.85683E-24
5.82524E-01 3.76987E-24
5.86824E-01 3.68509E-24
5.91118E-01 3.60241E-24
5.95404E-01 3.52177E-24
5.99684E-01 3.44312E-24
6.03956E-01 3.36639E-24
6.08220E-01 3.29154E-24
6.12476E-01 3.21850E-24
6.16723E-01 3.14723E-24
6.20961E-01 3.07769E-24
6.25190E-01 3.00981E-24
6.29410E-01 2.94356E-24
6.33619E-01 2.87888E-24
6.37819E-01 2.81574E-24
6.42008E-01 2.75410E-24
6.46186E-01 2.69391E-24
6.50353E-01 2.63513E-24
6.54508E-01 2.57772E-24
6.58652E-01 2.52166E-24
6.62784E-01 2.46690E-24
6.66903E-01 2.41340E-24
6.71010E-01 2.36114E-24
6.75104E-01 2.31008E-24
6.79184E-01 2.26019E-24
6.83251E-01 2.21144E-24
6.87303E-01 2.16380E-24
6.91342E-01 2.11725E-24
6.95366E-01 2.07174E-24
6.99375E-01 2.02726E-24
7.03368E-01 1.98378E-24
7.07347E-01 1.94128E-24
7.11309E-01 1.89972E-24
7.15256E-01 1.85909E-24
7.19186E-01 1.81937E-24
7.23099E-01 1.78052E-24
7.26995E-01 1.74254E-24
7.30874E-01 1.70539E-24
7.34736E-01 1.66905E-24
7.38579E-01 1.63351E-24
7.42405E-01 1.59875E-24
7.46212E-01 1.56475E-24
7.50000E-01 1.53149E-24
7.53769E-01 1.49895E-24
7.57519E-01 1.46711E-24
7.61249E-01 1.43597E-24
7.64960E-01 1.40549E-24
7.68650E-01 1.37567E-24
7.72320E-01 1.34649E-24
7.75968E-01 1.31794E-24
7.79596E-01 1.29000E-24
7.83203E-01 1.26265E-24
7.86788E-01 1.23589E-24
7.90351E-01 1.20969E-24
7.93893E-01 1.18406E-24
7.97411E-01 1.15897E-24
8.00908E-01 1.13440E-24
8.04381E-01 1.11036E-24
8.07831E-01 1.08683E-24
8.11257E-01 1.06380E-24
8.14660E-01 1.04125E-24
8.18039E-01 1.01917E-24
8.21394E-01 9.97560E-25
8.24724E-01 9.76405E-25
8.28030E-01 9.55694E-25
8.31310E-01 9.35419E-25
8.34565E-01 9.15569E-25
8.37795E-01 8.96136E-25
8.40999E-01 8.77112E-25
8.44177E-01 8.58486E-25
8.47329E-01 8.40252E-25
8.50455E-01 8.22400E-25
8.53553E-01 8.04923E-25
8.56625E-01 7.87814E-25
8.59670E-01 7.71064E-25
8.62687E-01 7.54666E-25
8.65677E-01 7.38613E-25
8.68639E-01 7.22899E-25
8.71572E-01 7.07516E-25
8.74478E-01 6.92458E-25
8.77355E-01 6.77719E-25
8.80203E-01 6.63291E-25
8.83022E-01 6.49170E-25
8.85812E-01 6.35349E-25
8.88573E-01 6.21823E-25
8.91304E-01 6.08585E-25
8.94005E-01 5.95631E-25
8.96677E-01 5.82955E-25
8.99318E-01 5.70552E-25
9.01928E-01 5.58417E-25
9.04508E-01 5.46544E-25
9.07058E-01 5.34930E-25
9.09576E-01 5.23569E-25
9.12063E-01 5.12457E-25
9.14519E-01 5.01590E-25
9.16943E-01 4.90962E-25
9.19335E-01 4.80571E-25
9.21696E-01 4.70412E-25
9.24024E-01 4.60481E-25
9.26320E-01 4.50773E-25
9.28584E-01 4.41286E-25
9.30815E-01 4.32016E-25
9.33013E-01 4.22959E-25
9.35178E-01 4.14111E-25
9.37310E-01 4.05470E-25
9.39409E-01 3.97032E-25
9.41474E-01 3.88793E-25
9.43505E-01 3.80751E-25
9.45503E-01 3.72902E-25
9.47467E-01 3.65245E-25
9.49397E-01 3.57775E-25
9.51293E-01 3.50490E-25
9.53154E-01 3.43388E-25
9.54981E-01 3.36465E-25
9.56773E-01 3.29719E-25
9.58530E-01 3.23149E-25
9.60252E-01 3.16750E-25
9.61940E-01 3.10521E-25
9.63592E-01 3.04461E-25
9.65209E-01 2.98565E-25
9.66790E-01 2.92833E-25
9.68336E-01 2.87263E-25
9.69846E-01 2.81851E-25
9.71321E-01 2.76597E-25
9.72759E-01 2.71498E-25
9.74162E-01 2.66554E-25
9.75528E-01 2.61761E-25
9.76858E-01 2.57118E-25
9.78152E-01 2.52624E-25
9.79410E-01 2.48276E-25
9.80631E-01 2.44074E-25
9.81815E-01 2.40017E-25
9.82963E-01 2.36101E-25
9.84074E-01 2.32327E-25
9.85148E-01 2.28693E-25
9.86185E-01 2.25197E-25
9.87185E-01 2.21839E-25
9.88148E-01 2.18616E-25
9.89074E-01 2.15529E-25
9.89962E-01 2.12576E-25
9.90814E-01 2.09756E-25
9.91627E-01 2.07068E-25
9.92404E-01 2.04511E-25
9.93143E-01 2.02084E-25
9.93844E-01 1.99787E-25
9.94508E-01 1.97618E-25
9.95134E-01 1.95577E-25
9.95722E-01 1.93664E-25
9.96273E-01 1.91876E-25
9.96786E-01 1.90215E-25
9.97261E-01 1.88679E-25
9.97698E-01 1.87268E-25
9.98097E-01 1.85981E-25
9.98459E-01 1.84818E-25
9.98782E-01 1.83778E-25
9.99067E-01 1.82862E-25
9.99315E-01 1.82068E-25
9.99524E-01 1.81397E-25
9.99695E-01 1.80848E-25
9.99829E-01 1.80422E-25
9.99924E-01 1.80117E-25
9.99981E-01 1.79934E-25
1.00000E+00 1.79873E-25
