 #
 # Subroutine ELSEPA. Elastic scattering of electrons and positrons
 #                    by neutral atoms and positive ions
 #
 # Projectile: electron
 # Kinetic energy = 6.00000E+08 eV = 2.20496E+07 a.u.
 #
 # WARNING: High-energy factorization with free-atom DF screening.
 #          Absorption, polarization and exchange corrections are
 #          switched off.
 #          Phase shifts are calculated for the bare nucleus.
 #          Scattering amplitudes are not evaluated.
 #
 # Element: Ga,  Z =  31,  atomic weight = 6.97230E+01 g/mol
 #
 # Nuclear model: Fermi distribution
 #                Average radius = 4.40395E-13 cm
 #                Skin thickness = 5.46000E-14 cm
 #
 # Number of electrons = 31
 #
 # Total elastic cross section = 2.17671E-18 cm**2 = 7.77319E-02 a0**2
 # 1st transport cross section = 5.44564E-27 cm**2 = 1.94467E-10 a0**2
 # 2nd transport cross section = 1.63318E-26 cm**2 = 5.83218E-10 a0**2
 #
 #
 # Differential cross section:                       MU=(1-COS(THETA))/2
 #
 #  THETA        MU          DCS          DCS        Sherman      error
 #  (deg)                 (cm**2/sr)   (a0**2/sr)    function
 #----------------------------------------------------------------------
0.00000E+00 6.96329E-09
7.61557E-13 6.27658E-09
1.18994E-12 5.93973E-09
1.71346E-12 5.56853E-09
2.33225E-12 5.17902E-09
3.04617E-12 4.78533E-09
3.85530E-12 4.39872E-09
4.75964E-12 4.02763E-09
5.75917E-12 3.67757E-09
6.85391E-12 3.35191E-09
8.04379E-12 3.05255E-09
9.32893E-12 2.77963E-09
1.07092E-11 2.53240E-09
1.21847E-11 2.30944E-09
1.37554E-11 2.10899E-09
1.54213E-11 1.92912E-09
1.71823E-11 1.76789E-09
1.90386E-11 1.62338E-09
2.09900E-11 1.49382E-09
2.30367E-11 1.37742E-09
2.51785E-11 1.27280E-09
2.74156E-11 1.17862E-09
2.97478E-11 1.09368E-09
3.21752E-11 1.01691E-09
3.46979E-11 9.47370E-10
3.73157E-11 8.84223E-10
4.00286E-11 8.26745E-10
4.28368E-11 7.74297E-10
4.57402E-11 7.26322E-10
4.87388E-11 6.82318E-10
5.18325E-11 6.41826E-10
5.50215E-11 6.04523E-10
5.83057E-11 5.70083E-10
6.16850E-11 5.38217E-10
6.51595E-11 5.07542E-10
6.87293E-11 4.78082E-10
7.23943E-11 4.51302E-10
7.61544E-11 4.26906E-10
1.18991E-10 2.58807E-10
1.71347E-10 1.64050E-10
2.33223E-10 1.07019E-10
3.04617E-10 7.14965E-11
3.85531E-10 4.88732E-11
4.75965E-10 3.41898E-11
5.75917E-10 2.44703E-11
6.85389E-10 1.79151E-11
8.04380E-10 1.34087E-11
9.32891E-10 1.02426E-11
1.07092E-09 7.97034E-12
1.21847E-09 6.30608E-12
1.37554E-09 5.06354E-12
1.54213E-09 4.11947E-12
1.71823E-09 3.38964E-12
1.90386E-09 2.81738E-12
2.09900E-09 2.36292E-12
2.30367E-09 1.99744E-12
2.51785E-09 1.70046E-12
2.74156E-09 1.45682E-12
2.97478E-09 1.25520E-12
3.21752E-09 1.08708E-12
3.46978E-09 9.45948E-13
3.73156E-09 8.26768E-13
4.00286E-09 7.25575E-13
4.28368E-09 6.39221E-13
4.57402E-09 5.65180E-13
4.87388E-09 5.01406E-13
5.18326E-09 4.46232E-13
5.50215E-09 3.98336E-13
5.83057E-09 3.56609E-13
6.16850E-09 3.20134E-13
6.51596E-09 2.88079E-13
6.87293E-09 2.59868E-13
7.23942E-09 2.35087E-13
7.61544E-09 2.13246E-13
1.18991E-08 8.93654E-14
1.71347E-08 4.37422E-14
2.33223E-08 2.38973E-14
3.04617E-08 1.41520E-14
3.85531E-08 8.91104E-15
4.75965E-08 5.88834E-15
5.75917E-08 4.04543E-15
6.85389E-08 2.86996E-15
8.04380E-08 2.09174E-15
9.32891E-08 1.56007E-15
1.07092E-07 1.18691E-15
1.21847E-07 9.18809E-16
1.37554E-07 7.22225E-16
1.54213E-07 5.75459E-16
1.71823E-07 4.64112E-16
1.90386E-07 3.78411E-16
2.09900E-07 3.11591E-16
2.30367E-07 2.58878E-16
2.51785E-07 2.16846E-16
2.74156E-07 1.83002E-16
2.97478E-07 1.55506E-16
3.21752E-07 1.32983E-16
3.46978E-07 1.14391E-16
3.73156E-07 9.89358E-17
4.00286E-07 8.60035E-17
4.28368E-07 7.51160E-17
4.57402E-07 6.58974E-17
4.87388E-07 5.80500E-17
5.18325E-07 5.13363E-17
5.50215E-07 4.55654E-17
5.83057E-07 4.05829E-17
6.16850E-07 3.62630E-17
6.51596E-07 3.25027E-17
6.87293E-07 2.92174E-17
7.23942E-07 2.63368E-17
7.61543E-07 2.38025E-17
1.18991E-06 9.75596E-18
1.71347E-06 4.70666E-18
2.33223E-06 2.54123E-18
3.04617E-06 1.48994E-18
3.85531E-06 9.30338E-19
4.75964E-06 6.10498E-19
5.75916E-06 4.17044E-19
6.85388E-06 2.94505E-19
8.04378E-06 2.13849E-19
9.32888E-06 1.59013E-19
1.07092E-05 1.20681E-19
1.21846E-05 9.32363E-20
1.37553E-05 7.31692E-20
1.54212E-05 5.82228E-20
1.71822E-05 4.69059E-20
1.90385E-05 3.82068E-20
2.09899E-05 3.14416E-20
2.30365E-05 2.61092E-20
2.51783E-05 2.18597E-20
2.74153E-05 1.84398E-20
2.97475E-05 1.56628E-20
3.21749E-05 1.33895E-20
3.46974E-05 1.15144E-20
3.73152E-05 9.95676E-21
4.00281E-05 8.65421E-21
4.28362E-05 7.55808E-21
4.57395E-05 6.63019E-21
4.87380E-05 5.84039E-21
5.18317E-05 5.16470E-21
5.50205E-05 4.58391E-21
5.83045E-05 4.08250E-21
6.16838E-05 3.64785E-21
6.51582E-05 3.26959E-21
6.87277E-05 2.93918E-21
7.23925E-05 2.64952E-21
7.61524E-05 2.37713E-21
9.21439E-05 1.62089E-21
1.09658E-04 1.14215E-21
1.28695E-04 8.27328E-22
1.49255E-04 6.13457E-22
1.71338E-04 4.64141E-22
1.94942E-04 3.57358E-22
2.20070E-04 2.79393E-22
2.46720E-04 2.21416E-22
2.74892E-04 1.77592E-22
3.04586E-04 1.43985E-22
3.35803E-04 1.17872E-22
3.68542E-04 9.73428E-23
4.02802E-04 8.10299E-23
4.38585E-04 6.79402E-23
4.75889E-04 5.73434E-23
5.14715E-04 4.86938E-23
5.55063E-04 4.15807E-23
5.96931E-04 3.56900E-23
6.40321E-04 3.07803E-23
6.85233E-04 2.66637E-23
7.31665E-04 2.31927E-23
7.79618E-04 2.02510E-23
8.29092E-04 1.77456E-23
8.80086E-04 1.56022E-23
9.32601E-04 1.37605E-23
9.86636E-04 1.21719E-23
1.04219E-03 1.07963E-23
1.09927E-03 9.60091E-24
1.15786E-03 8.55869E-24
1.21797E-03 7.64710E-24
1.27961E-03 6.84739E-24
1.34276E-03 6.14383E-24
1.40743E-03 5.52319E-24
1.47362E-03 4.97431E-24
1.54133E-03 4.48770E-24
1.61056E-03 4.05532E-24
1.68131E-03 3.67027E-24
1.75357E-03 3.32666E-24
1.82735E-03 3.01942E-24
1.90265E-03 2.74418E-24
1.97947E-03 2.49716E-24
2.05780E-03 2.27508E-24
2.13765E-03 2.07510E-24
2.21902E-03 1.89474E-24
2.30190E-03 1.73182E-24
2.38630E-03 1.58445E-24
2.47222E-03 1.45096E-24
2.55965E-03 1.32988E-24
2.64859E-03 1.21993E-24
2.73905E-03 1.11995E-24
2.83103E-03 1.02895E-24
2.92452E-03 9.46018E-25
3.01952E-03 8.70364E-25
3.11604E-03 8.01277E-25
3.21407E-03 7.38129E-25
3.31362E-03 6.80353E-25
3.41468E-03 6.27446E-25
3.51725E-03 5.78957E-25
3.62133E-03 5.34481E-25
3.72692E-03 4.93653E-25
3.83403E-03 4.56146E-25
3.94265E-03 4.21665E-25
4.05278E-03 3.89945E-25
4.16442E-03 3.60745E-25
4.27757E-03 3.33849E-25
4.39223E-03 3.09059E-25
4.50840E-03 2.86198E-25
4.62608E-03 2.65104E-25
4.74527E-03 2.45630E-25
4.86597E-03 2.27643E-25
4.98817E-03 2.11022E-25
5.11188E-03 1.95656E-25
5.23711E-03 1.81444E-25
5.36383E-03 1.68294E-25
5.49207E-03 1.56122E-25
5.62181E-03 1.44851E-25
5.75306E-03 1.34412E-25
5.88581E-03 1.24738E-25
6.02007E-03 1.15772E-25
6.15583E-03 1.07460E-25
6.29310E-03 9.97504E-26
6.43187E-03 9.25992E-26
6.57214E-03 8.59640E-26
6.71392E-03 7.98063E-26
6.85720E-03 7.40904E-26
7.00198E-03 6.87838E-26
7.14827E-03 6.38562E-26
7.29605E-03 5.92798E-26
7.44534E-03 5.50292E-26
7.59612E-03 5.10804E-26
7.97965E-03 4.23903E-26
8.37255E-03 3.51567E-26
8.77480E-03 2.91335E-26
9.18641E-03 2.41178E-26
9.60736E-03 1.99415E-26
1.00376E-02 1.64654E-26
1.04773E-02 1.35735E-26
1.09262E-02 1.11696E-26
1.13844E-02 9.17320E-27
1.18520E-02 7.51720E-27
1.23288E-02 6.14549E-27
1.28150E-02 5.01113E-27
1.33104E-02 4.07481E-27
1.38150E-02 3.30359E-27
1.43290E-02 2.66989E-27
1.48521E-02 2.15058E-27
1.53845E-02 1.72627E-27
1.59262E-02 1.38072E-27
1.64770E-02 1.10035E-27
1.70371E-02 8.73778E-28
1.76063E-02 6.91501E-28
1.81848E-02 5.45581E-28
1.87724E-02 4.29405E-28
1.93692E-02 3.37468E-28
1.99751E-02 2.65202E-28
2.05901E-02 2.08818E-28
2.12143E-02 1.65191E-28
2.18476E-02 1.31743E-28
2.24900E-02 1.06362E-28
2.31415E-02 8.73193E-29
2.38021E-02 7.32095E-29
2.44717E-02 6.28951E-29
2.51504E-02 5.54610E-29
2.58382E-02 5.01766E-29
2.65349E-02 4.64629E-29
2.72407E-02 4.38659E-29
2.79555E-02 4.20333E-29
2.86793E-02 4.06962E-29
2.94120E-02 3.96525E-29
3.01537E-02 3.87539E-29
3.09043E-02 3.78951E-29
3.16639E-02 3.70045E-29
3.24324E-02 3.60368E-29
3.32098E-02 3.49666E-29
3.39961E-02 3.37840E-29
3.47912E-02 3.24897E-29
3.55952E-02 3.10928E-29
3.64081E-02 2.96072E-29
3.72297E-02 2.80501E-29
3.80602E-02 2.64406E-29
3.88995E-02 2.47980E-29
3.97476E-02 2.31413E-29
4.06044E-02 2.14882E-29
4.14700E-02 1.98553E-29
4.23443E-02 1.82569E-29
4.32273E-02 1.67057E-29
4.41190E-02 1.52124E-29
4.50194E-02 1.37854E-29
4.59284E-02 1.24317E-29
4.68461E-02 1.11561E-29
4.87074E-02 8.85099E-30
5.06030E-02 6.87976E-30
5.25328E-02 5.23383E-30
5.44967E-02 3.89150E-30
5.64946E-02 2.82265E-30
5.85262E-02 1.99261E-30
6.05914E-02 1.36525E-30
6.26901E-02 9.05265E-31
6.48222E-02 5.79766E-31
6.69873E-02 3.59281E-31
6.91854E-02 2.18271E-31
7.14163E-02 1.35280E-31
7.36799E-02 9.28193E-32
7.59760E-02 7.70708E-32
7.83043E-02 7.74764E-32
8.06647E-02 8.62781E-32
8.30571E-02 9.80433E-32
8.54812E-02 1.09209E-31
8.79369E-02 1.17665E-31
9.04240E-02 1.22385E-31
9.29422E-02 1.23113E-31
9.54915E-02 1.20109E-31
9.80716E-02 1.13942E-31
1.00682E-01 1.05337E-31
1.03323E-01 9.50614E-32
1.05995E-01 8.38436E-32
1.08696E-01 7.23273E-32
1.11427E-01 6.10436E-32
1.14188E-01 5.04011E-32
1.16978E-01 4.06883E-32
1.19797E-01 3.20846E-32
1.22645E-01 2.46752E-32
1.25522E-01 1.84686E-32
1.28428E-01 1.34147E-32
1.31361E-01 9.42153E-33
1.34323E-01 6.37033E-33
1.37313E-01 4.12844E-33
1.40330E-01 2.55955E-33
1.43375E-01 1.53162E-33
1.46447E-01 9.22524E-34
1.49545E-01 6.23660E-34
1.52671E-01 5.41937E-34
1.55823E-01 6.00394E-34
1.59001E-01 7.37793E-34
1.62205E-01 9.07491E-34
1.65435E-01 1.07583E-33
1.68690E-01 1.22026E-33
1.71970E-01 1.32740E-33
1.75276E-01 1.39109E-33
1.78606E-01 1.41062E-33
1.81961E-01 1.38916E-33
1.85340E-01 1.33238E-33
1.88743E-01 1.24732E-33
1.92169E-01 1.14155E-33
1.95619E-01 1.02246E-33
1.99092E-01 8.96843E-34
2.02589E-01 7.70566E-34
2.06107E-01 6.48429E-34
2.09649E-01 5.34117E-34
2.13212E-01 4.30230E-34
2.16797E-01 3.38381E-34
2.20404E-01 2.59324E-34
2.24032E-01 1.93099E-34
2.27680E-01 1.39187E-34
2.31350E-01 9.66572E-35
2.35040E-01 6.43052E-35
2.38751E-01 4.07686E-35
2.42481E-01 2.46279E-35
2.46231E-01 1.44855E-35
2.50000E-01 9.02574E-36
2.53788E-01 7.05604E-36
2.57595E-01 7.53331E-36
2.61421E-01 9.57627E-36
2.65264E-01 1.24672E-35
2.69126E-01 1.56451E-35
2.73005E-01 1.86935E-35
2.76901E-01 2.13236E-35
2.80814E-01 2.33556E-35
2.84744E-01 2.46996E-35
2.88691E-01 2.53364E-35
2.92653E-01 2.52998E-35
2.96632E-01 2.46610E-35
3.00625E-01 2.35144E-35
3.04634E-01 2.19667E-35
3.08658E-01 2.01272E-35
3.12697E-01 1.81013E-35
3.16749E-01 1.59850E-35
3.20816E-01 1.38621E-35
3.24896E-01 1.18022E-35
3.28990E-01 9.85970E-36
3.33097E-01 8.07493E-36
3.37216E-01 6.47444E-36
3.41348E-01 5.07281E-36
3.45492E-01 3.87427E-36
3.49647E-01 2.87467E-36
3.53814E-01 2.06328E-36
3.57992E-01 1.42460E-36
3.62181E-01 9.39981E-37
3.66381E-01 5.89035E-37
3.70590E-01 3.50810E-37
3.74810E-01 2.04784E-37
3.79039E-01 1.31567E-37
3.83277E-01 1.13447E-37
3.87524E-01 1.34721E-37
3.91780E-01 1.81888E-37
3.96044E-01 2.43689E-37
4.00316E-01 3.11065E-37
4.04596E-01 3.77014E-37
4.08882E-01 4.36414E-37
4.13176E-01 4.85789E-37
4.17476E-01 5.23084E-37
4.21783E-01 5.47401E-37
4.26095E-01 5.58772E-37
4.30413E-01 5.57938E-37
4.34737E-01 5.46145E-37
4.39065E-01 5.24959E-37
4.43398E-01 4.96126E-37
4.47736E-01 4.61444E-37
4.52077E-01 4.22667E-37
4.56422E-01 3.81433E-37
4.60770E-01 3.39213E-37
4.65122E-01 2.97275E-37
4.69476E-01 2.56676E-37
4.73832E-01 2.18249E-37
4.78190E-01 1.82625E-37
4.82550E-01 1.50236E-37
4.86912E-01 1.21341E-37
4.91274E-01 9.60448E-38
4.95637E-01 7.43254E-38
5.00000E-01 5.60597E-38
5.04363E-01 4.10413E-38
5.08726E-01 2.90091E-38
5.13088E-01 1.96590E-38
5.17450E-01 1.26682E-38
5.21810E-01 7.70623E-39
5.26168E-01 1.00000E-45
5.30524E-01 1.00000E-45
5.34878E-01 1.00000E-45
5.39230E-01 1.00000E-45
5.43578E-01 1.00000E-45
5.47923E-01 1.00000E-45
5.52264E-01 1.00000E-45
5.56602E-01 1.00000E-45
5.60935E-01 1.00000E-45
5.65263E-01 1.00000E-45
5.69587E-01 1.00000E-45
5.73905E-01 1.00000E-45
5.78217E-01 1.00000E-45
5.82524E-01 1.00000E-45
5.86824E-01 1.00000E-45
5.91118E-01 1.00000E-45
5.95404E-01 1.00000E-45
5.99684E-01 1.00000E-45
6.03956E-01 1.00000E-45
6.08220E-01 1.00000E-45
6.12476E-01 1.00000E-45
6.16723E-01 1.00000E-45
6.20961E-01 1.00000E-45
6.25190E-01 1.00000E-45
6.29410E-01 1.00000E-45
6.33619E-01 1.00000E-45
6.37819E-01 1.00000E-45
6.42008E-01 1.00000E-45
6.46186E-01 1.00000E-45
6.50353E-01 1.00000E-45
6.54508E-01 1.00000E-45
6.58652E-01 1.00000E-45
6.62784E-01 1.00000E-45
6.66903E-01 1.00000E-45
6.71010E-01 1.00000E-45
6.75104E-01 1.00000E-45
6.79184E-01 1.00000E-45
6.83251E-01 1.00000E-45
6.87303E-01 1.00000E-45
6.91342E-01 1.00000E-45
6.95366E-01 1.00000E-45
6.99375E-01 1.00000E-45
7.03368E-01 1.00000E-45
7.07347E-01 1.00000E-45
7.11309E-01 1.00000E-45
7.15256E-01 1.00000E-45
7.19186E-01 1.00000E-45
7.23099E-01 1.00000E-45
7.26995E-01 1.00000E-45
7.30874E-01 1.00000E-45
7.34736E-01 1.00000E-45
7.38579E-01 1.00000E-45
7.42405E-01 1.00000E-45
7.46212E-01 1.00000E-45
7.50000E-01 1.00000E-45
7.53769E-01 1.00000E-45
7.57519E-01 1.00000E-45
7.61249E-01 1.00000E-45
7.64960E-01 1.00000E-45
7.68650E-01 1.00000E-45
7.72320E-01 1.00000E-45
7.75968E-01 1.00000E-45
7.79596E-01 1.00000E-45
7.83203E-01 1.00000E-45
7.86788E-01 1.00000E-45
7.90351E-01 1.00000E-45
7.93893E-01 1.00000E-45
7.97411E-01 1.00000E-45
8.00908E-01 1.00000E-45
8.04381E-01 1.00000E-45
8.07831E-01 1.00000E-45
8.11257E-01 1.00000E-45
8.14660E-01 1.00000E-45
8.18039E-01 1.00000E-45
8.21394E-01 1.00000E-45
8.24724E-01 1.00000E-45
8.28030E-01 1.00000E-45
8.31310E-01 1.00000E-45
8.34565E-01 1.00000E-45
8.37795E-01 1.00000E-45
8.40999E-01 1.00000E-45
8.44177E-01 1.00000E-45
8.47329E-01 1.00000E-45
8.50455E-01 1.00000E-45
8.53553E-01 1.00000E-45
8.56625E-01 1.00000E-45
8.59670E-01 1.00000E-45
8.62687E-01 1.00000E-45
8.65677E-01 1.00000E-45
8.68639E-01 1.00000E-45
8.71572E-01 1.00000E-45
8.74478E-01 1.00000E-45
8.77355E-01 1.00000E-45
8.80203E-01 1.00000E-45
8.83022E-01 1.00000E-45
8.85812E-01 1.00000E-45
8.88573E-01 1.00000E-45
8.91304E-01 1.00000E-45
8.94005E-01 1.00000E-45
8.96677E-01 1.00000E-45
8.99318E-01 1.00000E-45
9.01928E-01 1.00000E-45
9.04508E-01 1.00000E-45
9.07058E-01 1.00000E-45
9.09576E-01 1.00000E-45
9.12063E-01 1.00000E-45
9.14519E-01 1.00000E-45
9.16943E-01 1.00000E-45
9.19335E-01 1.00000E-45
9.21696E-01 1.00000E-45
9.24024E-01 1.00000E-45
9.26320E-01 1.00000E-45
9.28584E-01 1.00000E-45
9.30815E-01 1.00000E-45
9.33013E-01 1.00000E-45
9.35178E-01 1.00000E-45
9.37310E-01 1.00000E-45
9.39409E-01 1.00000E-45
9.41474E-01 1.00000E-45
9.43505E-01 1.00000E-45
9.45503E-01 1.00000E-45
9.47467E-01 1.00000E-45
9.49397E-01 1.00000E-45
9.51293E-01 1.00000E-45
9.53154E-01 1.00000E-45
9.54981E-01 1.00000E-45
9.56773E-01 1.00000E-45
9.58530E-01 1.00000E-45
9.60252E-01 1.00000E-45
9.61940E-01 1.00000E-45
9.63592E-01 1.00000E-45
9.65209E-01 1.00000E-45
9.66790E-01 1.00000E-45
9.68336E-01 1.00000E-45
9.69846E-01 1.00000E-45
9.71321E-01 1.00000E-45
9.72759E-01 1.00000E-45
9.74162E-01 1.00000E-45
9.75528E-01 1.00000E-45
9.76858E-01 1.00000E-45
9.78152E-01 1.00000E-45
9.79410E-01 1.00000E-45
9.80631E-01 1.00000E-45
9.81815E-01 1.00000E-45
9.82963E-01 1.00000E-45
9.84074E-01 1.00000E-45
9.85148E-01 1.00000E-45
9.86185E-01 1.00000E-45
9.87185E-01 1.00000E-45
9.88148E-01 1.00000E-45
9.89074E-01 1.00000E-45
9.89962E-01 1.00000E-45
9.90814E-01 1.00000E-45
9.91627E-01 1.00000E-45
9.92404E-01 1.00000E-45
9.93143E-01 1.00000E-45
9.93844E-01 1.00000E-45
9.94508E-01 1.00000E-45
9.95134E-01 1.00000E-45
9.95722E-01 1.00000E-45
9.96273E-01 1.00000E-45
9.96786E-01 1.00000E-45
9.97261E-01 1.00000E-45
9.97698E-01 1.00000E-45
9.98097E-01 1.00000E-45
9.98459E-01 1.00000E-45
9.98782E-01 1.00000E-45
9.99067E-01 1.00000E-45
9.99315E-01 1.00000E-45
9.99524E-01 1.00000E-45
9.99695E-01 1.00000E-45
9.99829E-01 1.00000E-45
9.99924E-01 1.00000E-45
9.99981E-01 1.00000E-45
1.00000E+00 1.00000E-45
