 #
 # Subroutine ELSEPA. Elastic scattering of electrons and positrons
 #                    by neutral atoms and positive ions
 #
 # Projectile: electron
 # Kinetic energy = 4.50000E+06 eV = 1.65372E+05 a.u.
 #
 # WARNING: High-energy factorization with free-atom DF screening.
 #          Absorption, polarization and exchange corrections are
 #          switched off.
 #          Phase shifts are calculated for the bare nucleus.
 #          Scattering amplitudes are not evaluated.
 #
 # Element: Ga,  Z =  31,  atomic weight = 6.97230E+01 g/mol
 #
 # Nuclear model: Fermi distribution
 #                Average radius = 4.40395E-13 cm
 #                Skin thickness = 5.46000E-14 cm
 #
 # Number of electrons = 31
 #
 # Total elastic cross section = 2.20503E-18 cm**2 = 7.87429E-02 a0**2
 # 1st transport cross section = 5.98424E-23 cm**2 = 2.13701E-06 a0**2
 # 2nd transport cross section = 1.69190E-22 cm**2 = 6.04187E-06 a0**2
 #
 #
 # Differential cross section:                       MU=(1-COS(THETA))/2
 #
 #  THETA        MU          DCS          DCS        Sherman      error
 #  (deg)                 (cm**2/sr)   (a0**2/sr)    function
 #----------------------------------------------------------------------
0.00000E+00 4.84865E-13
7.61557E-13 4.84862E-13
1.18994E-12 4.84860E-13
1.71346E-12 4.84857E-13
2.33225E-12 4.84854E-13
3.04617E-12 4.84851E-13
3.85530E-12 4.84847E-13
4.75964E-12 4.84843E-13
5.75917E-12 4.84838E-13
6.85391E-12 4.84833E-13
8.04379E-12 4.84827E-13
9.32893E-12 4.84821E-13
1.07092E-11 4.84815E-13
1.21847E-11 4.84808E-13
1.37554E-11 4.84801E-13
1.54213E-11 4.84793E-13
1.71823E-11 4.84784E-13
1.90386E-11 4.84776E-13
2.09900E-11 4.84766E-13
2.30367E-11 4.84757E-13
2.51785E-11 4.84747E-13
2.74156E-11 4.84736E-13
2.97478E-11 4.84725E-13
3.21752E-11 4.84714E-13
3.46979E-11 4.84702E-13
3.73157E-11 4.84689E-13
4.00286E-11 4.84677E-13
4.28368E-11 4.84663E-13
4.57402E-11 4.84650E-13
4.87388E-11 4.84636E-13
5.18325E-11 4.84621E-13
5.50215E-11 4.84606E-13
5.83057E-11 4.84590E-13
6.16850E-11 4.84575E-13
6.51595E-11 4.84558E-13
6.87293E-11 4.84541E-13
7.23943E-11 4.84524E-13
7.61544E-11 4.84506E-13
1.18991E-10 4.84304E-13
1.71347E-10 4.84058E-13
2.33223E-10 4.83767E-13
3.04617E-10 4.83431E-13
3.85531E-10 4.83051E-13
4.75965E-10 4.82628E-13
5.75917E-10 4.82160E-13
6.85389E-10 4.81648E-13
8.04380E-10 4.81093E-13
9.32891E-10 4.80495E-13
1.07092E-09 4.79854E-13
1.21847E-09 4.79171E-13
1.37554E-09 4.78445E-13
1.54213E-09 4.77677E-13
1.71823E-09 4.76868E-13
1.90386E-09 4.76017E-13
2.09900E-09 4.75126E-13
2.30367E-09 4.74194E-13
2.51785E-09 4.73222E-13
2.74156E-09 4.72211E-13
2.97478E-09 4.71160E-13
3.21752E-09 4.70071E-13
3.46978E-09 4.68944E-13
3.73156E-09 4.67779E-13
4.00286E-09 4.66577E-13
4.28368E-09 4.65338E-13
4.57402E-09 4.64063E-13
4.87388E-09 4.62753E-13
5.18326E-09 4.61408E-13
5.50215E-09 4.60028E-13
5.83057E-09 4.58614E-13
6.16850E-09 4.57167E-13
6.51596E-09 4.55688E-13
6.87293E-09 4.54176E-13
7.23942E-09 4.52633E-13
7.61544E-09 4.51060E-13
1.18991E-08 4.33746E-13
1.71347E-08 4.14107E-13
2.33223E-08 3.92805E-13
3.04617E-08 3.70490E-13
3.85531E-08 3.47749E-13
4.75965E-08 3.25083E-13
5.75917E-08 3.02893E-13
6.85389E-08 2.81462E-13
8.04380E-08 2.61048E-13
9.32891E-08 2.41795E-13
1.07092E-07 2.23786E-13
1.21847E-07 2.07049E-13
1.37554E-07 1.91577E-13
1.54213E-07 1.77330E-13
1.71823E-07 1.64253E-13
1.90386E-07 1.52275E-13
2.09900E-07 1.41322E-13
2.30367E-07 1.31314E-13
2.51785E-07 1.22164E-13
2.74156E-07 1.13811E-13
2.97478E-07 1.06182E-13
3.21752E-07 9.92111E-14
3.46978E-07 9.28350E-14
3.73156E-07 8.69970E-14
4.00286E-07 8.16452E-14
4.28368E-07 7.67324E-14
4.57402E-07 7.22160E-14
4.87388E-07 6.80575E-14
5.18325E-07 6.42210E-14
5.50215E-07 6.06726E-14
5.83057E-07 5.73895E-14
6.16850E-07 5.43465E-14
6.51596E-07 5.15215E-14
6.87293E-07 4.88943E-14
7.23942E-07 4.64470E-14
7.61543E-07 4.41637E-14
1.18991E-06 2.74602E-14
1.71347E-06 1.82031E-14
2.33223E-06 1.24435E-14
3.04617E-06 8.68409E-15
3.85531E-06 6.16270E-15
4.75964E-06 4.44221E-15
5.75916E-06 3.25189E-15
6.85388E-06 2.41589E-15
8.04378E-06 1.82537E-15
9.32888E-06 1.40183E-15
1.07092E-05 1.09341E-15
1.21846E-05 8.65411E-16
1.37553E-05 6.94363E-16
1.54212E-05 5.64176E-16
1.71822E-05 4.63703E-16
1.90385E-05 3.85094E-16
2.09899E-05 3.22926E-16
2.30365E-05 2.73113E-16
2.51783E-05 2.32671E-16
2.74153E-05 1.99580E-16
2.97475E-05 1.72264E-16
3.21749E-05 1.49532E-16
3.46974E-05 1.30471E-16
3.73152E-05 1.14376E-16
4.00281E-05 1.00696E-16
4.28362E-05 8.89992E-17
4.57395E-05 7.89434E-17
4.87380E-05 7.02564E-17
5.18317E-05 6.27178E-17
5.50205E-05 5.61480E-17
5.83045E-05 5.04068E-17
6.16838E-05 4.53729E-17
6.51582E-05 4.09449E-17
6.87277E-05 3.70379E-17
7.23925E-05 3.35801E-17
7.61524E-05 3.05111E-17
9.21439E-05 2.12106E-17
1.09658E-04 1.51676E-17
1.28695E-04 1.11221E-17
1.49255E-04 8.33520E-18
1.71338E-04 6.36832E-18
1.94942E-04 4.94896E-18
2.20070E-04 3.90454E-18
2.46720E-04 3.12240E-18
2.74892E-04 2.52723E-18
3.04586E-04 2.06787E-18
3.35803E-04 1.70866E-18
3.68542E-04 1.42445E-18
4.02802E-04 1.19712E-18
4.38585E-04 1.01353E-18
4.75889E-04 8.63939E-19
5.14715E-04 7.41027E-19
5.55063E-04 6.39273E-19
5.96931E-04 5.54437E-19
6.40321E-04 4.83248E-19
6.85233E-04 4.23145E-19
7.31665E-04 3.72117E-19
7.79618E-04 3.28565E-19
8.29092E-04 2.91207E-19
8.80086E-04 2.59013E-19
9.32601E-04 2.31152E-19
9.86636E-04 2.06942E-19
1.04219E-03 1.85822E-19
1.09927E-03 1.67331E-19
1.15786E-03 1.51086E-19
1.21797E-03 1.36767E-19
1.27961E-03 1.24105E-19
1.34276E-03 1.12877E-19
1.40743E-03 1.02891E-19
1.47362E-03 9.39854E-20
1.54133E-03 8.60234E-20
1.61056E-03 7.88877E-20
1.68131E-03 7.24775E-20
1.75357E-03 6.67059E-20
1.82735E-03 6.14982E-20
1.90265E-03 5.67895E-20
1.97947E-03 5.25234E-20
2.05780E-03 4.86510E-20
2.13765E-03 4.51295E-20
2.21902E-03 4.19213E-20
2.30190E-03 3.89935E-20
2.38630E-03 3.63173E-20
2.47222E-03 3.38671E-20
2.55965E-03 3.16205E-20
2.64859E-03 2.95574E-20
2.73905E-03 2.76602E-20
2.83103E-03 2.59131E-20
2.92452E-03 2.43021E-20
3.01952E-03 2.28146E-20
3.11604E-03 2.14394E-20
3.21407E-03 2.01666E-20
3.31362E-03 1.89870E-20
3.41468E-03 1.78926E-20
3.51725E-03 1.68761E-20
3.62133E-03 1.59310E-20
3.72692E-03 1.50513E-20
3.83403E-03 1.42316E-20
3.94265E-03 1.34672E-20
4.05278E-03 1.27535E-20
4.16442E-03 1.20867E-20
4.27757E-03 1.14630E-20
4.39223E-03 1.08791E-20
4.50840E-03 1.03320E-20
4.62608E-03 9.81905E-21
4.74527E-03 9.33760E-21
4.86597E-03 8.88541E-21
4.98817E-03 8.46036E-21
5.11188E-03 8.06050E-21
5.23711E-03 7.68408E-21
5.36383E-03 7.32945E-21
5.49207E-03 6.99513E-21
5.62181E-03 6.67972E-21
5.75306E-03 6.38195E-21
5.88581E-03 6.10066E-21
6.02007E-03 5.83475E-21
6.15583E-03 5.58323E-21
6.29310E-03 5.34518E-21
6.43187E-03 5.11973E-21
6.57214E-03 4.90608E-21
6.71392E-03 4.70352E-21
6.85720E-03 4.51134E-21
7.00198E-03 4.32893E-21
7.14827E-03 4.15568E-21
7.29605E-03 3.99105E-21
7.44534E-03 3.83452E-21
7.59612E-03 3.68563E-21
7.97965E-03 3.34396E-21
8.37255E-03 3.04115E-21
8.77480E-03 2.77200E-21
9.18641E-03 2.53212E-21
9.60736E-03 2.31774E-21
1.00376E-02 2.12569E-21
1.04773E-02 1.95322E-21
1.09262E-02 1.79798E-21
1.13844E-02 1.65793E-21
1.18520E-02 1.53133E-21
1.23288E-02 1.41665E-21
1.28150E-02 1.31256E-21
1.33104E-02 1.21791E-21
1.38150E-02 1.13168E-21
1.43290E-02 1.05300E-21
1.48521E-02 9.81071E-22
1.53845E-02 9.15217E-22
1.59262E-02 8.54827E-22
1.64770E-02 7.99367E-22
1.70371E-02 7.48358E-22
1.76063E-02 7.01378E-22
1.81848E-02 6.58048E-22
1.87724E-02 6.18034E-22
1.93692E-02 5.81034E-22
1.99751E-02 5.46778E-22
2.05901E-02 5.15026E-22
2.12143E-02 4.85559E-22
2.18476E-02 4.58184E-22
2.24900E-02 4.32722E-22
2.31415E-02 4.09016E-22
2.38021E-02 3.86921E-22
2.44717E-02 3.66308E-22
2.51504E-02 3.47058E-22
2.58382E-02 3.29065E-22
2.65349E-02 3.12229E-22
2.72407E-02 2.96464E-22
2.79555E-02 2.81688E-22
2.86793E-02 2.67827E-22
2.94120E-02 2.54813E-22
3.01537E-02 2.42585E-22
3.09043E-02 2.31087E-22
3.16639E-02 2.20267E-22
3.24324E-02 2.10076E-22
3.32098E-02 2.00472E-22
3.39961E-02 1.91414E-22
3.47912E-02 1.82866E-22
3.55952E-02 1.74792E-22
3.64081E-02 1.67161E-22
3.72297E-02 1.59946E-22
3.80602E-02 1.53118E-22
3.88995E-02 1.46652E-22
3.97476E-02 1.40527E-22
4.06044E-02 1.34720E-22
4.14700E-02 1.29212E-22
4.23443E-02 1.23984E-22
4.32273E-02 1.19019E-22
4.41190E-02 1.14302E-22
4.50194E-02 1.09818E-22
4.59284E-02 1.05553E-22
4.68461E-02 1.01494E-22
4.87074E-02 9.39489E-23
5.06030E-02 8.70956E-23
5.25328E-02 8.08594E-23
5.44967E-02 7.51744E-23
5.64946E-02 6.99830E-23
5.85262E-02 6.52342E-23
6.05914E-02 6.08835E-23
6.26901E-02 5.68913E-23
6.48222E-02 5.32224E-23
6.69873E-02 4.98459E-23
6.91854E-02 4.67341E-23
7.14163E-02 4.38624E-23
7.36799E-02 4.12087E-23
7.59760E-02 3.87534E-23
7.83043E-02 3.64789E-23
8.06647E-02 3.43693E-23
8.30571E-02 3.24106E-23
8.54812E-02 3.05897E-23
8.79369E-02 2.88953E-23
9.04240E-02 2.73168E-23
9.29422E-02 2.58448E-23
9.54915E-02 2.44708E-23
9.80716E-02 2.31870E-23
1.00682E-01 2.19864E-23
1.03323E-01 2.08625E-23
1.05995E-01 1.98096E-23
1.08696E-01 1.88222E-23
1.11427E-01 1.78956E-23
1.14188E-01 1.70252E-23
1.16978E-01 1.62070E-23
1.19797E-01 1.54374E-23
1.22645E-01 1.47127E-23
1.25522E-01 1.40300E-23
1.28428E-01 1.33864E-23
1.31361E-01 1.27791E-23
1.34323E-01 1.22057E-23
1.37313E-01 1.16640E-23
1.40330E-01 1.11518E-23
1.43375E-01 1.06673E-23
1.46447E-01 1.02087E-23
1.49545E-01 9.77436E-24
1.52671E-01 9.36270E-24
1.55823E-01 8.97232E-24
1.59001E-01 8.60192E-24
1.62205E-01 8.25028E-24
1.65435E-01 7.91626E-24
1.68690E-01 7.59882E-24
1.71970E-01 7.29698E-24
1.75276E-01 7.00982E-24
1.78606E-01 6.73649E-24
1.81961E-01 6.47619E-24
1.85340E-01 6.22820E-24
1.88743E-01 5.99180E-24
1.92169E-01 5.76636E-24
1.95619E-01 5.55127E-24
1.99092E-01 5.34596E-24
2.02589E-01 5.14992E-24
2.06107E-01 4.96263E-24
2.09649E-01 4.78363E-24
2.13212E-01 4.61249E-24
2.16797E-01 4.44879E-24
2.20404E-01 4.29214E-24
2.24032E-01 4.14219E-24
2.27680E-01 3.99860E-24
2.31350E-01 3.86105E-24
2.35040E-01 3.72922E-24
2.38751E-01 3.60285E-24
2.42481E-01 3.48165E-24
2.46231E-01 3.36538E-24
2.50000E-01 3.25380E-24
2.53788E-01 3.14668E-24
2.57595E-01 3.04381E-24
2.61421E-01 2.94499E-24
2.65264E-01 2.85004E-24
2.69126E-01 2.75877E-24
2.73005E-01 2.67100E-24
2.76901E-01 2.58659E-24
2.80814E-01 2.50537E-24
2.84744E-01 2.42721E-24
2.88691E-01 2.35197E-24
2.92653E-01 2.27952E-24
2.96632E-01 2.20973E-24
3.00625E-01 2.14250E-24
3.04634E-01 2.07770E-24
3.08658E-01 2.01523E-24
3.12697E-01 1.95499E-24
3.16749E-01 1.89690E-24
3.20816E-01 1.84085E-24
3.24896E-01 1.78677E-24
3.28990E-01 1.73457E-24
3.33097E-01 1.68417E-24
3.37216E-01 1.63550E-24
3.41348E-01 1.58849E-24
3.45492E-01 1.54307E-24
3.49647E-01 1.49918E-24
3.53814E-01 1.45676E-24
3.57992E-01 1.41575E-24
3.62181E-01 1.37609E-24
3.66381E-01 1.33773E-24
3.70590E-01 1.30063E-24
3.74810E-01 1.26472E-24
3.79039E-01 1.22997E-24
3.83277E-01 1.19633E-24
3.87524E-01 1.16376E-24
3.91780E-01 1.13222E-24
3.96044E-01 1.10167E-24
4.00316E-01 1.07207E-24
4.04596E-01 1.04340E-24
4.08882E-01 1.01561E-24
4.13176E-01 9.88668E-25
4.17476E-01 9.62549E-25
4.21783E-01 9.37226E-25
4.26095E-01 9.12668E-25
4.30413E-01 8.88847E-25
4.34737E-01 8.65734E-25
4.39065E-01 8.43308E-25
4.43398E-01 8.21542E-25
4.47736E-01 8.00416E-25
4.52077E-01 7.79906E-25
4.56422E-01 7.59991E-25
4.60770E-01 7.40652E-25
4.65122E-01 7.21868E-25
4.69476E-01 7.03621E-25
4.73832E-01 6.85892E-25
4.78190E-01 6.68665E-25
4.82550E-01 6.51922E-25
4.86912E-01 6.35648E-25
4.91274E-01 6.19828E-25
4.95637E-01 6.04446E-25
5.00000E-01 5.89488E-25
5.04363E-01 5.74940E-25
5.08726E-01 5.60790E-25
5.13088E-01 5.47024E-25
5.17450E-01 5.33631E-25
5.21810E-01 5.20598E-25
5.26168E-01 5.07914E-25
5.30524E-01 4.95569E-25
5.34878E-01 4.83551E-25
5.39230E-01 4.71850E-25
5.43578E-01 4.60458E-25
5.47923E-01 4.49363E-25
5.52264E-01 4.38558E-25
5.56602E-01 4.28033E-25
5.60935E-01 4.17780E-25
5.65263E-01 4.07791E-25
5.69587E-01 3.98057E-25
5.73905E-01 3.88572E-25
5.78217E-01 3.79327E-25
5.82524E-01 3.70316E-25
5.86824E-01 3.61532E-25
5.91118E-01 3.52969E-25
5.95404E-01 3.44619E-25
5.99684E-01 3.36477E-25
6.03956E-01 3.28536E-25
6.08220E-01 3.20791E-25
6.12476E-01 3.13237E-25
6.16723E-01 3.05868E-25
6.20961E-01 2.98678E-25
6.25190E-01 2.91663E-25
6.29410E-01 2.84817E-25
6.33619E-01 2.78137E-25
6.37819E-01 2.71617E-25
6.42008E-01 2.65253E-25
6.46186E-01 2.59041E-25
6.50353E-01 2.52976E-25
6.54508E-01 2.47055E-25
6.58652E-01 2.41274E-25
6.62784E-01 2.35628E-25
6.66903E-01 2.30115E-25
6.71010E-01 2.24731E-25
6.75104E-01 2.19471E-25
6.79184E-01 2.14334E-25
6.83251E-01 2.09316E-25
6.87303E-01 2.04413E-25
6.91342E-01 1.99623E-25
6.95366E-01 1.94942E-25
6.99375E-01 1.90369E-25
7.03368E-01 1.85899E-25
7.07347E-01 1.81531E-25
7.11309E-01 1.77262E-25
7.15256E-01 1.73089E-25
7.19186E-01 1.69010E-25
7.23099E-01 1.65023E-25
7.26995E-01 1.61125E-25
7.30874E-01 1.57314E-25
7.34736E-01 1.53587E-25
7.38579E-01 1.49944E-25
7.42405E-01 1.46381E-25
7.46212E-01 1.42897E-25
7.50000E-01 1.39489E-25
7.53769E-01 1.36157E-25
7.57519E-01 1.32898E-25
7.61249E-01 1.29710E-25
7.64960E-01 1.26592E-25
7.68650E-01 1.23541E-25
7.72320E-01 1.20558E-25
7.75968E-01 1.17638E-25
7.79596E-01 1.14783E-25
7.83203E-01 1.11989E-25
7.86788E-01 1.09255E-25
7.90351E-01 1.06581E-25
7.93893E-01 1.03964E-25
7.97411E-01 1.01403E-25
8.00908E-01 9.88971E-26
8.04381E-01 9.64450E-26
8.07831E-01 9.40456E-26
8.11257E-01 9.16974E-26
8.14660E-01 8.93994E-26
8.18039E-01 8.71505E-26
8.21394E-01 8.49496E-26
8.24724E-01 8.27956E-26
8.28030E-01 8.06875E-26
8.31310E-01 7.86243E-26
8.34565E-01 7.66050E-26
8.37795E-01 7.46286E-26
8.40999E-01 7.26943E-26
8.44177E-01 7.08011E-26
8.47329E-01 6.89481E-26
8.50455E-01 6.71346E-26
8.53553E-01 6.53596E-26
8.56625E-01 6.36224E-26
8.59670E-01 6.19222E-26
8.62687E-01 6.02582E-26
8.65677E-01 5.86296E-26
8.68639E-01 5.70359E-26
8.71572E-01 5.54761E-26
8.74478E-01 5.39497E-26
8.77355E-01 5.24560E-26
8.80203E-01 5.09943E-26
8.83022E-01 4.95640E-26
8.85812E-01 4.81645E-26
8.88573E-01 4.67951E-26
8.91304E-01 4.54554E-26
8.94005E-01 4.41446E-26
8.96677E-01 4.28624E-26
8.99318E-01 4.16080E-26
9.01928E-01 4.03810E-26
9.04508E-01 3.91810E-26
9.07058E-01 3.80073E-26
9.09576E-01 3.68595E-26
9.12063E-01 3.57371E-26
9.14519E-01 3.46397E-26
9.16943E-01 3.35667E-26
9.19335E-01 3.25179E-26
9.21696E-01 3.14927E-26
9.24024E-01 3.04908E-26
9.26320E-01 2.95117E-26
9.28584E-01 2.85550E-26
9.30815E-01 2.76204E-26
9.33013E-01 2.67074E-26
9.35178E-01 2.58158E-26
9.37310E-01 2.49452E-26
9.39409E-01 2.40952E-26
9.41474E-01 2.32655E-26
9.43505E-01 2.24557E-26
9.45503E-01 2.16656E-26
9.47467E-01 2.08949E-26
9.49397E-01 2.01433E-26
9.51293E-01 1.94104E-26
9.53154E-01 1.86959E-26
9.54981E-01 1.79997E-26
9.56773E-01 1.73215E-26
9.58530E-01 1.66609E-26
9.60252E-01 1.60178E-26
9.61940E-01 1.53918E-26
9.63592E-01 1.47829E-26
9.65209E-01 1.41906E-26
9.66790E-01 1.36149E-26
9.68336E-01 1.30554E-26
9.69846E-01 1.25121E-26
9.71321E-01 1.19846E-26
9.72759E-01 1.14728E-26
9.74162E-01 1.09765E-26
9.75528E-01 1.04956E-26
9.76858E-01 1.00297E-26
9.78152E-01 9.57887E-27
9.79410E-01 9.14282E-27
9.80631E-01 8.72141E-27
9.81815E-01 8.31449E-27
9.82963E-01 7.92192E-27
9.84074E-01 7.54354E-27
9.85148E-01 7.17923E-27
9.86185E-01 6.82886E-27
9.87185E-01 6.49229E-27
9.88148E-01 6.16940E-27
9.89074E-01 5.86008E-27
9.89962E-01 5.56422E-27
9.90814E-01 5.28172E-27
9.91627E-01 5.01246E-27
9.92404E-01 4.75635E-27
9.93143E-01 4.51331E-27
9.93844E-01 4.28325E-27
9.94508E-01 4.06608E-27
9.95134E-01 3.86173E-27
9.95722E-01 3.67012E-27
9.96273E-01 3.49119E-27
9.96786E-01 3.32487E-27
9.97261E-01 3.17110E-27
9.97698E-01 3.02984E-27
9.98097E-01 2.90103E-27
9.98459E-01 2.78462E-27
9.98782E-01 2.68057E-27
9.99067E-01 2.58885E-27
9.99315E-01 2.50943E-27
9.99524E-01 2.44227E-27
9.99695E-01 2.38735E-27
9.99829E-01 2.34466E-27
9.99924E-01 2.31418E-27
9.99981E-01 2.29589E-27
1.00000E+00 2.28980E-27
