 #
 # Subroutine ELSEPA. Elastic scattering of electrons and positrons
 #                    by neutral atoms and positive ions
 #
 # Projectile: electron
 # Kinetic energy = 9.00000E+07 eV = 3.30744E+06 a.u.
 #
 # WARNING: High-energy factorization with free-atom DF screening.
 #          Absorption, polarization and exchange corrections are
 #          switched off.
 #          Phase shifts are calculated for the bare nucleus.
 #          Scattering amplitudes are not evaluated.
 #
 # Element: Ga,  Z =  31,  atomic weight = 6.97230E+01 g/mol
 #
 # Nuclear model: Fermi distribution
 #                Average radius = 4.40395E-13 cm
 #                Skin thickness = 5.46000E-14 cm
 #
 # Number of electrons = 31
 #
 # Total elastic cross section = 2.18083E-18 cm**2 = 7.78790E-02 a0**2
 # 1st transport cross section = 2.39157E-25 cm**2 = 8.54044E-09 a0**2
 # 2nd transport cross section = 7.09648E-25 cm**2 = 2.53420E-08 a0**2
 #
 #
 # Differential cross section:                       MU=(1-COS(THETA))/2
 #
 #  THETA        MU          DCS          DCS        Sherman      error
 #  (deg)                 (cm**2/sr)   (a0**2/sr)    function
 #----------------------------------------------------------------------
0.00000E+00 1.58189E-10
7.61557E-13 1.57801E-10
1.18994E-12 1.57585E-10
1.71346E-12 1.57321E-10
2.33225E-12 1.57010E-10
3.04617E-12 1.56652E-10
3.85530E-12 1.56248E-10
4.75964E-12 1.55800E-10
5.75917E-12 1.55306E-10
6.85391E-12 1.54769E-10
8.04379E-12 1.54188E-10
9.32893E-12 1.53565E-10
1.07092E-11 1.52901E-10
1.21847E-11 1.52196E-10
1.37554E-11 1.51452E-10
1.54213E-11 1.50670E-10
1.71823E-11 1.49851E-10
1.90386E-11 1.48995E-10
2.09900E-11 1.48105E-10
2.30367E-11 1.47181E-10
2.51785E-11 1.46224E-10
2.74156E-11 1.45237E-10
2.97478E-11 1.44215E-10
3.21752E-11 1.43166E-10
3.46979E-11 1.42090E-10
3.73157E-11 1.40991E-10
4.00286E-11 1.39870E-10
4.28368E-11 1.38727E-10
4.57402E-11 1.37555E-10
4.87388E-11 1.36360E-10
5.18325E-11 1.35149E-10
5.50215E-11 1.33922E-10
5.83057E-11 1.32681E-10
6.16850E-11 1.31428E-10
6.51595E-11 1.30153E-10
6.87293E-11 1.28861E-10
7.23943E-11 1.27560E-10
7.61544E-11 1.26253E-10
1.18991E-10 1.12856E-10
1.71347E-10 9.95576E-11
2.33223E-10 8.70430E-11
3.04617E-10 7.57373E-11
3.85531E-10 6.57745E-11
4.75965E-10 5.71470E-11
5.75917E-10 4.97715E-11
6.85389E-10 4.34936E-11
8.04380E-10 3.81678E-11
9.32891E-10 3.36552E-11
1.07092E-09 2.98155E-11
1.21847E-09 2.65424E-11
1.37554E-09 2.37425E-11
1.54213E-09 2.13287E-11
1.71823E-09 1.92419E-11
1.90386E-09 1.74284E-11
2.09900E-09 1.58382E-11
2.30367E-09 1.44413E-11
2.51785E-09 1.32068E-11
2.74156E-09 1.21075E-11
2.97478E-09 1.10682E-11
3.21752E-09 1.01449E-11
3.46978E-09 9.34223E-12
3.73156E-09 8.64098E-12
4.00286E-09 8.02557E-12
4.28368E-09 7.48314E-12
4.57402E-09 6.93109E-12
4.87388E-09 6.41286E-12
5.18326E-09 5.95404E-12
5.50215E-09 5.54631E-12
5.83057E-09 5.18270E-12
6.16850E-09 4.85735E-12
6.51596E-09 4.52964E-12
6.87293E-09 4.21576E-12
7.23942E-09 3.93405E-12
7.61544E-09 3.68047E-12
1.18991E-08 1.95457E-12
1.71347E-08 1.09322E-12
2.33223E-08 6.43537E-13
3.04617E-08 4.00003E-13
3.85531E-08 2.61036E-13
4.75965E-08 1.77958E-13
5.75917E-08 1.25969E-13
6.85389E-08 9.19951E-14
8.04380E-08 6.89228E-14
9.32891E-08 5.27645E-14
1.07092E-07 4.11173E-14
1.21847E-07 3.25272E-14
1.37554E-07 2.60664E-14
1.54213E-07 2.11168E-14
1.71823E-07 1.72789E-14
1.90386E-07 1.42668E-14
2.09900E-07 1.18736E-14
2.30367E-07 9.95649E-15
2.51785E-07 8.40626E-15
2.74156E-07 7.14195E-15
2.97478E-07 6.10110E-15
3.21752E-07 5.24432E-15
3.46978E-07 4.53275E-15
3.73156E-07 3.93506E-15
4.00286E-07 3.43407E-15
4.28368E-07 3.00836E-15
4.57402E-07 2.64709E-15
4.87388E-07 2.33834E-15
5.18325E-07 2.07307E-15
5.50215E-07 1.84473E-15
5.83057E-07 1.64657E-15
6.16850E-07 1.47457E-15
6.51596E-07 1.32442E-15
6.87293E-07 1.19295E-15
7.23942E-07 1.07751E-15
7.61543E-07 9.75633E-16
1.18991E-06 4.06654E-16
1.71347E-06 1.98791E-16
2.33223E-06 1.08410E-16
3.04617E-06 6.40328E-17
3.85531E-06 4.01997E-17
4.75964E-06 2.64850E-17
5.75916E-06 1.81463E-17
6.85388E-06 1.28431E-17
8.04378E-06 9.34174E-18
9.32888E-06 6.95544E-18
1.07092E-05 5.28423E-18
1.21846E-05 4.08585E-18
1.37553E-05 3.20857E-18
1.54212E-05 2.55451E-18
1.71822E-05 2.05888E-18
1.90385E-05 1.67765E-18
2.09899E-05 1.38100E-18
2.30365E-05 1.14708E-18
2.51783E-05 9.60588E-19
2.74153E-05 8.10452E-19
2.97475E-05 6.88508E-19
3.21749E-05 5.88657E-19
3.46974E-05 5.06280E-19
3.73152E-05 4.37838E-19
4.00281E-05 3.80595E-19
4.28362E-05 3.32416E-19
4.57395E-05 2.91627E-19
4.87380E-05 2.56904E-19
5.18317E-05 2.27195E-19
5.50205E-05 2.01656E-19
5.83045E-05 1.79607E-19
6.16838E-05 1.60491E-19
6.51582E-05 1.43855E-19
6.87277E-05 1.29322E-19
7.23925E-05 1.16581E-19
7.61524E-05 1.05383E-19
9.21439E-05 7.20247E-20
1.09658E-04 5.08842E-20
1.28695E-04 3.69658E-20
1.49255E-04 2.74981E-20
1.71338E-04 2.08785E-20
1.94942E-04 1.61369E-20
2.20070E-04 1.26689E-20
2.46720E-04 1.00850E-20
2.74892E-04 8.12789E-21
3.04586E-04 6.62367E-21
3.35803E-04 5.45206E-21
3.68542E-04 4.52861E-21
4.02802E-04 3.79279E-21
4.38585E-04 3.20063E-21
4.75889E-04 2.71975E-21
5.14715E-04 2.32594E-21
5.55063E-04 2.00096E-21
5.96931E-04 1.73084E-21
6.40321E-04 1.50485E-21
6.85233E-04 1.31459E-21
7.31665E-04 1.15350E-21
7.79618E-04 1.01636E-21
8.29092E-04 8.99023E-22
8.80086E-04 7.98155E-22
9.32601E-04 7.11057E-22
9.86636E-04 6.35529E-22
1.04219E-03 5.69776E-22
1.09927E-03 5.12317E-22
1.15786E-03 4.61926E-22
1.21797E-03 4.17586E-22
1.27961E-03 3.78442E-22
1.34276E-03 3.43785E-22
1.40743E-03 3.13005E-22
1.47362E-03 2.85597E-22
1.54133E-03 2.61125E-22
1.61056E-03 2.39220E-22
1.68131E-03 2.19566E-22
1.75357E-03 2.01890E-22
1.82735E-03 1.85957E-22
1.90265E-03 1.71566E-22
1.97947E-03 1.58541E-22
2.05780E-03 1.46729E-22
2.13765E-03 1.35997E-22
2.21902E-03 1.26228E-22
2.30190E-03 1.17321E-22
2.38630E-03 1.09185E-22
2.47222E-03 1.01742E-22
2.55965E-03 9.49228E-23
2.64859E-03 8.86650E-23
2.73905E-03 8.29141E-23
2.83103E-03 7.76218E-23
2.92452E-03 7.27446E-23
3.01952E-03 6.82443E-23
3.11604E-03 6.40863E-23
3.21407E-03 6.02398E-23
3.31362E-03 5.66773E-23
3.41468E-03 5.33739E-23
3.51725E-03 5.03074E-23
3.62133E-03 4.74576E-23
3.72692E-03 4.48065E-23
3.83403E-03 4.23376E-23
3.94265E-03 4.00361E-23
4.05278E-03 3.78885E-23
4.16442E-03 3.58827E-23
4.27757E-03 3.40076E-23
4.39223E-03 3.22531E-23
4.50840E-03 3.06099E-23
4.62608E-03 2.90698E-23
4.74527E-03 2.76251E-23
4.86597E-03 2.62687E-23
4.98817E-03 2.49943E-23
5.11188E-03 2.37960E-23
5.23711E-03 2.26684E-23
5.36383E-03 2.16066E-23
5.49207E-03 2.06059E-23
5.62181E-03 1.96623E-23
5.75306E-03 1.87718E-23
5.88581E-03 1.79310E-23
6.02007E-03 1.71365E-23
6.15583E-03 1.63853E-23
6.29310E-03 1.56746E-23
6.43187E-03 1.50019E-23
6.57214E-03 1.43646E-23
6.71392E-03 1.37607E-23
6.85720E-03 1.31879E-23
7.00198E-03 1.26445E-23
7.14827E-03 1.21286E-23
7.29605E-03 1.16386E-23
7.44534E-03 1.11729E-23
7.59612E-03 1.07301E-23
7.97965E-03 9.71482E-24
8.37255E-03 8.81597E-24
8.77480E-03 8.01794E-24
9.18641E-03 7.30747E-24
9.60736E-03 6.67330E-24
1.00376E-02 6.10583E-24
1.04773E-02 5.59682E-24
1.09262E-02 5.13922E-24
1.13844E-02 4.72692E-24
1.18520E-02 4.35467E-24
1.23288E-02 4.01791E-24
1.28150E-02 3.71265E-24
1.33104E-02 3.43544E-24
1.38150E-02 3.18326E-24
1.43290E-02 2.95345E-24
1.48521E-02 2.74368E-24
1.53845E-02 2.55190E-24
1.59262E-02 2.37629E-24
1.64770E-02 2.21526E-24
1.70371E-02 2.06739E-24
1.76063E-02 1.93141E-24
1.81848E-02 1.80619E-24
1.87724E-02 1.69075E-24
1.93692E-02 1.58418E-24
1.99751E-02 1.48568E-24
2.05901E-02 1.39454E-24
2.12143E-02 1.31011E-24
2.18476E-02 1.23181E-24
2.24900E-02 1.15912E-24
2.31415E-02 1.09157E-24
2.38021E-02 1.02873E-24
2.44717E-02 9.70211E-25
2.51504E-02 9.15672E-25
2.58382E-02 8.64794E-25
2.65349E-02 8.17289E-25
2.72407E-02 7.72894E-25
2.79555E-02 7.31372E-25
2.86793E-02 6.92504E-25
2.94120E-02 6.56092E-25
3.01537E-02 6.21954E-25
3.09043E-02 5.89925E-25
3.16639E-02 5.59851E-25
3.24324E-02 5.31594E-25
3.32098E-02 5.05025E-25
3.39961E-02 4.80027E-25
3.47912E-02 4.56490E-25
3.55952E-02 4.34315E-25
3.64081E-02 4.13411E-25
3.72297E-02 3.93692E-25
3.80602E-02 3.75080E-25
3.88995E-02 3.57502E-25
3.97476E-02 3.40892E-25
4.06044E-02 3.25188E-25
4.14700E-02 3.10331E-25
4.23443E-02 2.96270E-25
4.32273E-02 2.82953E-25
4.41190E-02 2.70337E-25
4.50194E-02 2.58376E-25
4.59284E-02 2.47033E-25
4.68461E-02 2.36271E-25
4.87074E-02 2.16350E-25
5.06030E-02 1.98366E-25
5.25328E-02 1.82102E-25
5.44967E-02 1.67371E-25
5.64946E-02 1.54005E-25
5.85262E-02 1.41860E-25
6.05914E-02 1.30809E-25
6.26901E-02 1.20739E-25
6.48222E-02 1.11551E-25
6.69873E-02 1.03156E-25
6.91854E-02 9.54761E-26
7.14163E-02 8.84425E-26
7.36799E-02 8.19932E-26
7.59760E-02 7.60732E-26
7.83043E-02 7.06331E-26
8.06647E-02 6.56290E-26
8.30571E-02 6.10212E-26
8.54812E-02 5.67745E-26
8.79369E-02 5.28569E-26
9.04240E-02 4.92396E-26
9.29422E-02 4.58968E-26
9.54915E-02 4.28051E-26
9.80716E-02 3.99434E-26
1.00682E-01 3.72925E-26
1.03323E-01 3.48350E-26
1.05995E-01 3.25552E-26
1.08696E-01 3.04388E-26
1.11427E-01 2.84728E-26
1.14188E-01 2.66452E-26
1.16978E-01 2.49453E-26
1.19797E-01 2.33632E-26
1.22645E-01 2.18898E-26
1.25522E-01 2.05170E-26
1.28428E-01 1.92371E-26
1.31361E-01 1.80433E-26
1.34323E-01 1.69291E-26
1.37313E-01 1.58888E-26
1.40330E-01 1.49169E-26
1.43375E-01 1.40087E-26
1.46447E-01 1.31594E-26
1.49545E-01 1.23650E-26
1.52671E-01 1.16216E-26
1.55823E-01 1.09256E-26
1.59001E-01 1.02738E-26
1.62205E-01 9.66307E-27
1.65435E-01 9.09070E-27
1.68690E-01 8.55405E-27
1.71970E-01 8.05073E-27
1.75276E-01 7.57851E-27
1.78606E-01 7.13533E-27
1.81961E-01 6.71927E-27
1.85340E-01 6.32857E-27
1.88743E-01 5.96156E-27
1.92169E-01 5.61672E-27
1.95619E-01 5.29263E-27
1.99092E-01 4.98794E-27
2.02589E-01 4.70145E-27
2.06107E-01 4.43198E-27
2.09649E-01 4.17847E-27
2.13212E-01 3.93993E-27
2.16797E-01 3.71542E-27
2.20404E-01 3.50408E-27
2.24032E-01 3.30508E-27
2.27680E-01 3.11768E-27
2.31350E-01 2.94117E-27
2.35040E-01 2.77488E-27
2.38751E-01 2.61820E-27
2.42481E-01 2.47054E-27
2.46231E-01 2.33137E-27
2.50000E-01 2.20019E-27
2.53788E-01 2.07650E-27
2.57595E-01 1.95987E-27
2.61421E-01 1.84989E-27
2.65264E-01 1.74615E-27
2.69126E-01 1.64830E-27
2.73005E-01 1.55599E-27
2.76901E-01 1.46890E-27
2.80814E-01 1.38672E-27
2.84744E-01 1.30917E-27
2.88691E-01 1.23598E-27
2.92653E-01 1.16690E-27
2.96632E-01 1.10170E-27
3.00625E-01 1.04015E-27
3.04634E-01 9.82044E-28
3.08658E-01 9.27186E-28
3.12697E-01 8.75390E-28
3.16749E-01 8.26484E-28
3.20816E-01 7.80304E-28
3.24896E-01 7.36696E-28
3.28990E-01 6.95514E-28
3.33097E-01 6.56622E-28
3.37216E-01 6.19893E-28
3.41348E-01 5.85203E-28
3.45492E-01 5.52440E-28
3.49647E-01 5.21496E-28
3.53814E-01 4.92268E-28
3.57992E-01 4.64662E-28
3.62181E-01 4.38588E-28
3.66381E-01 4.13959E-28
3.70590E-01 3.90697E-28
3.74810E-01 3.68724E-28
3.79039E-01 3.47970E-28
3.83277E-01 3.28367E-28
3.87524E-01 3.09852E-28
3.91780E-01 2.92365E-28
3.96044E-01 2.75848E-28
4.00316E-01 2.60248E-28
4.04596E-01 2.45515E-28
4.08882E-01 2.31601E-28
4.13176E-01 2.18461E-28
4.17476E-01 2.06051E-28
4.21783E-01 1.94333E-28
4.26095E-01 1.83268E-28
4.30413E-01 1.72820E-28
4.34737E-01 1.62955E-28
4.39065E-01 1.53640E-28
4.43398E-01 1.44847E-28
4.47736E-01 1.36545E-28
4.52077E-01 1.28709E-28
4.56422E-01 1.21312E-28
4.60770E-01 1.14330E-28
4.65122E-01 1.07740E-28
4.69476E-01 1.01521E-28
4.73832E-01 9.56526E-29
4.78190E-01 9.01151E-29
4.82550E-01 8.48903E-29
4.86912E-01 7.99609E-29
4.91274E-01 7.53108E-29
4.95637E-01 7.09244E-29
5.00000E-01 6.67871E-29
5.04363E-01 6.28852E-29
5.08726E-01 5.92056E-29
5.13088E-01 5.57360E-29
5.17450E-01 5.24648E-29
5.21810E-01 4.93808E-29
5.26168E-01 4.64738E-29
5.30524E-01 4.37338E-29
5.34878E-01 4.11515E-29
5.39230E-01 3.87182E-29
5.43578E-01 3.64255E-29
5.47923E-01 3.42655E-29
5.52264E-01 3.22308E-29
5.56602E-01 3.03143E-29
5.60935E-01 2.85095E-29
5.65263E-01 2.68099E-29
5.69587E-01 2.52098E-29
5.73905E-01 2.37034E-29
5.78217E-01 2.22855E-29
5.82524E-01 2.09511E-29
5.86824E-01 1.96953E-29
5.91118E-01 1.85138E-29
5.95404E-01 1.74023E-29
5.99684E-01 1.63567E-29
6.03956E-01 1.53734E-29
6.08220E-01 1.44488E-29
6.12476E-01 1.35794E-29
6.16723E-01 1.27621E-29
6.20961E-01 1.19939E-29
6.25190E-01 1.12719E-29
6.29410E-01 1.05935E-29
6.33619E-01 9.95618E-30
6.37819E-01 9.35745E-30
6.42008E-01 8.79511E-30
6.46186E-01 8.26701E-30
6.50353E-01 7.77116E-30
6.54508E-01 7.30564E-30
6.58652E-01 6.86866E-30
6.62784E-01 6.45855E-30
6.66903E-01 6.07370E-30
6.71010E-01 5.71260E-30
6.75104E-01 5.37385E-30
6.79184E-01 5.05609E-30
6.83251E-01 4.75808E-30
6.87303E-01 4.47861E-30
6.91342E-01 4.21658E-30
6.95366E-01 3.97091E-30
6.99375E-01 3.74062E-30
7.03368E-01 3.52477E-30
7.07347E-01 3.32247E-30
7.11309E-01 3.13289E-30
7.15256E-01 2.95525E-30
7.19186E-01 2.78880E-30
7.23099E-01 2.63286E-30
7.26995E-01 2.48677E-30
7.30874E-01 2.34991E-30
7.34736E-01 2.22170E-30
7.38579E-01 2.10159E-30
7.42405E-01 1.98909E-30
7.46212E-01 1.88370E-30
7.50000E-01 1.78496E-30
7.53769E-01 1.69246E-30
7.57519E-01 1.60580E-30
7.61249E-01 1.52459E-30
7.64960E-01 1.44849E-30
7.68650E-01 1.37716E-30
7.72320E-01 1.31029E-30
7.75968E-01 1.24760E-30
7.79596E-01 1.18880E-30
7.83203E-01 1.13363E-30
7.86788E-01 1.08187E-30
7.90351E-01 1.03327E-30
7.93893E-01 9.87636E-31
7.97411E-01 9.44761E-31
8.00908E-01 9.04461E-31
8.04381E-01 8.66562E-31
8.07831E-01 8.30901E-31
8.11257E-01 7.97326E-31
8.14660E-01 7.65693E-31
8.18039E-01 7.35870E-31
8.21394E-01 7.07732E-31
8.24724E-01 6.81162E-31
8.28030E-01 6.56052E-31
8.31310E-01 6.32300E-31
8.34565E-01 6.09812E-31
8.37795E-01 5.88500E-31
8.40999E-01 5.68280E-31
8.44177E-01 5.49076E-31
8.47329E-01 5.30817E-31
8.50455E-01 5.13436E-31
8.53553E-01 4.96872E-31
8.56625E-01 4.81066E-31
8.59670E-01 4.65966E-31
8.62687E-01 4.51521E-31
8.65677E-01 4.37686E-31
8.68639E-01 4.24417E-31
8.71572E-01 4.11676E-31
8.74478E-01 3.99425E-31
8.77355E-01 3.87630E-31
8.80203E-01 3.76260E-31
8.83022E-01 3.65285E-31
8.85812E-01 3.54680E-31
8.88573E-01 3.44419E-31
8.91304E-01 3.34479E-31
8.94005E-01 3.24840E-31
8.96677E-01 3.15481E-31
8.99318E-01 3.06386E-31
9.01928E-01 2.97538E-31
9.04508E-01 2.88922E-31
9.07058E-01 2.80523E-31
9.09576E-01 2.72331E-31
9.12063E-01 2.64333E-31
9.14519E-01 2.56519E-31
9.16943E-01 2.48879E-31
9.19335E-01 2.41405E-31
9.21696E-01 2.34089E-31
9.24024E-01 2.26924E-31
9.26320E-01 2.19903E-31
9.28584E-01 2.13021E-31
9.30815E-01 2.06273E-31
9.33013E-01 1.99654E-31
9.35178E-01 1.93160E-31
9.37310E-01 1.86787E-31
9.39409E-01 1.80532E-31
9.41474E-01 1.74392E-31
9.43505E-01 1.68364E-31
9.45503E-01 1.62448E-31
9.47467E-01 1.56640E-31
9.49397E-01 1.50939E-31
9.51293E-01 1.45343E-31
9.53154E-01 1.39852E-31
9.54981E-01 1.34465E-31
9.56773E-01 1.29181E-31
9.58530E-01 1.23998E-31
9.60252E-01 1.18918E-31
9.61940E-01 1.13939E-31
9.63592E-01 1.09062E-31
9.65209E-01 1.04286E-31
9.66790E-01 9.96114E-32
9.68336E-01 9.50382E-32
9.69846E-01 9.05666E-32
9.71321E-01 8.61969E-32
9.72759E-01 8.19294E-32
9.74162E-01 7.77645E-32
9.75528E-01 7.37026E-32
9.76858E-01 6.97441E-32
9.78152E-01 6.58894E-32
9.79410E-01 6.21391E-32
9.80631E-01 5.84937E-32
9.81815E-01 5.49536E-32
9.82963E-01 5.15195E-32
9.84074E-01 4.81917E-32
9.85148E-01 4.49710E-32
9.86185E-01 4.18577E-32
9.87185E-01 3.88525E-32
9.88148E-01 3.59559E-32
9.89074E-01 3.31683E-32
9.89962E-01 3.04904E-32
9.90814E-01 2.79224E-32
9.91627E-01 2.54651E-32
9.92404E-01 2.31188E-32
9.93143E-01 2.08840E-32
9.93844E-01 1.87611E-32
9.94508E-01 1.67505E-32
9.95134E-01 1.48526E-32
9.95722E-01 1.30679E-32
9.96273E-01 1.13966E-32
9.96786E-01 9.83907E-33
9.97261E-01 8.39566E-33
9.97698E-01 7.06664E-33
9.98097E-01 5.85228E-33
9.98459E-01 4.75283E-33
9.98782E-01 3.76851E-33
9.99067E-01 2.89952E-33
9.99315E-01 2.14603E-33
9.99524E-01 1.50820E-33
9.99695E-01 9.86169E-34
9.99829E-01 5.80031E-34
9.99924E-01 2.89874E-34
9.99981E-01 1.15755E-34
1.00000E+00 5.77156E-35
