 #
 # Subroutine ELSEPA. Elastic scattering of electrons and positrons
 #                    by neutral atoms and positive ions
 #
 # Projectile: electron
 # Kinetic energy = 7.00000E+06 eV = 2.57245E+05 a.u.
 #
 # WARNING: High-energy factorization with free-atom DF screening.
 #          Absorption, polarization and exchange corrections are
 #          switched off.
 #          Phase shifts are calculated for the bare nucleus.
 #          Scattering amplitudes are not evaluated.
 #
 # Element: Ga,  Z =  31,  atomic weight = 6.97230E+01 g/mol
 #
 # Nuclear model: Fermi distribution
 #                Average radius = 4.40395E-13 cm
 #                Skin thickness = 5.46000E-14 cm
 #
 # Number of electrons = 31
 #
 # Total elastic cross section = 2.19193E-18 cm**2 = 7.82751E-02 a0**2
 # 1st transport cross section = 2.81046E-23 cm**2 = 1.00363E-06 a0**2
 # 2nd transport cross section = 7.98305E-23 cm**2 = 2.85080E-06 a0**2
 #
 #
 # Differential cross section:                       MU=(1-COS(THETA))/2
 #
 #  THETA        MU          DCS          DCS        Sherman      error
 #  (deg)                 (cm**2/sr)   (a0**2/sr)    function
 #----------------------------------------------------------------------
0.00000E+00 1.08935E-12
7.61557E-13 1.08933E-12
1.18994E-12 1.08932E-12
1.71346E-12 1.08931E-12
2.33225E-12 1.08930E-12
3.04617E-12 1.08928E-12
3.85530E-12 1.08926E-12
4.75964E-12 1.08924E-12
5.75917E-12 1.08921E-12
6.85391E-12 1.08919E-12
8.04379E-12 1.08916E-12
9.32893E-12 1.08913E-12
1.07092E-11 1.08909E-12
1.21847E-11 1.08906E-12
1.37554E-11 1.08902E-12
1.54213E-11 1.08898E-12
1.71823E-11 1.08894E-12
1.90386E-11 1.08889E-12
2.09900E-11 1.08885E-12
2.30367E-11 1.08880E-12
2.51785E-11 1.08875E-12
2.74156E-11 1.08869E-12
2.97478E-11 1.08864E-12
3.21752E-11 1.08858E-12
3.46979E-11 1.08852E-12
3.73157E-11 1.08846E-12
4.00286E-11 1.08839E-12
4.28368E-11 1.08832E-12
4.57402E-11 1.08825E-12
4.87388E-11 1.08818E-12
5.18325E-11 1.08811E-12
5.50215E-11 1.08803E-12
5.83057E-11 1.08795E-12
6.16850E-11 1.08787E-12
6.51595E-11 1.08779E-12
6.87293E-11 1.08770E-12
7.23943E-11 1.08762E-12
7.61544E-11 1.08753E-12
1.18991E-10 1.08650E-12
1.71347E-10 1.08525E-12
2.33223E-10 1.08378E-12
3.04617E-10 1.08209E-12
3.85531E-10 1.08017E-12
4.75965E-10 1.07804E-12
5.75917E-10 1.07569E-12
6.85389E-10 1.07312E-12
8.04380E-10 1.07035E-12
9.32891E-10 1.06737E-12
1.07092E-09 1.06418E-12
1.21847E-09 1.06079E-12
1.37554E-09 1.05720E-12
1.54213E-09 1.05342E-12
1.71823E-09 1.04944E-12
1.90386E-09 1.04528E-12
2.09900E-09 1.04094E-12
2.30367E-09 1.03641E-12
2.51785E-09 1.03172E-12
2.74156E-09 1.02685E-12
2.97478E-09 1.02181E-12
3.21752E-09 1.01662E-12
3.46978E-09 1.01127E-12
3.73156E-09 1.00577E-12
4.00286E-09 1.00012E-12
4.28368E-09 9.94314E-13
4.57402E-09 9.88367E-13
4.87388E-09 9.82298E-13
5.18326E-09 9.76112E-13
5.50215E-09 9.69815E-13
5.83057E-09 9.63413E-13
6.16850E-09 9.56912E-13
6.51596E-09 9.50286E-13
6.87293E-09 9.43522E-13
7.23942E-09 9.36674E-13
7.61544E-09 9.29749E-13
1.18991E-08 8.56833E-13
1.71347E-08 7.80252E-13
2.33223E-08 7.03994E-13
3.04617E-08 6.31111E-13
3.85531E-08 5.63217E-13
4.75965E-08 5.01479E-13
5.75917E-08 4.46237E-13
6.85389E-08 3.97176E-13
8.04380E-08 3.54100E-13
9.32891E-08 3.16402E-13
1.07092E-07 2.83449E-13
1.21847E-07 2.54744E-13
1.37554E-07 2.29669E-13
1.54213E-07 2.07746E-13
1.71823E-07 1.88567E-13
1.90386E-07 1.71682E-13
2.09900E-07 1.56812E-13
2.30367E-07 1.43670E-13
2.51785E-07 1.31976E-13
2.74156E-07 1.21570E-13
2.97478E-07 1.12258E-13
3.21752E-07 1.03886E-13
3.46978E-07 9.63524E-14
3.73156E-07 8.95279E-14
4.00286E-07 8.33342E-14
4.28368E-07 7.73658E-14
4.57402E-07 7.19128E-14
4.87388E-07 6.70625E-14
5.18325E-07 6.27342E-14
5.50215E-07 5.88591E-14
5.83057E-07 5.53791E-14
6.16850E-07 5.22446E-14
6.51596E-07 4.91752E-14
6.87293E-07 4.60492E-14
7.23942E-07 4.32277E-14
7.61543E-07 4.06745E-14
1.18991E-06 2.32000E-14
1.71347E-06 1.37464E-14
2.33223E-06 8.43522E-15
3.04617E-06 5.38520E-15
3.85531E-06 3.55708E-15
4.75964E-06 2.43579E-15
5.75916E-06 1.72433E-15
6.85388E-06 1.25658E-15
8.04378E-06 9.40024E-16
9.32888E-06 7.19144E-16
1.07092E-05 5.60710E-16
1.21846E-05 4.44377E-16
1.37553E-05 3.57130E-16
1.54212E-05 2.90503E-16
1.71822E-05 2.38835E-16
1.90385E-05 1.98085E-16
2.09899E-05 1.65674E-16
2.30365E-05 1.39583E-16
2.51783E-05 1.18349E-16
2.74153E-05 1.00967E-16
2.97475E-05 8.66200E-17
3.21749E-05 7.46953E-17
3.46974E-05 6.47335E-17
3.73152E-05 5.63546E-17
4.00281E-05 4.92733E-17
4.28362E-05 4.32398E-17
4.57395E-05 3.81045E-17
4.87380E-05 3.37226E-17
5.18317E-05 2.99294E-17
5.50205E-05 2.66537E-17
5.83045E-05 2.38204E-17
6.16838E-05 2.13424E-17
6.51582E-05 1.91799E-17
6.87277E-05 1.72882E-17
7.23925E-05 1.56190E-17
7.61524E-05 1.41482E-17
9.21439E-05 9.74673E-18
1.09658E-04 6.93271E-18
1.28695E-04 5.06787E-18
1.49255E-04 3.79163E-18
1.71338E-04 2.89408E-18
1.94942E-04 2.24785E-18
2.20070E-04 1.77271E-18
2.46720E-04 1.41697E-18
2.74892E-04 1.14633E-18
3.04586E-04 9.37363E-19
3.35803E-04 7.73967E-19
3.68542E-04 6.44708E-19
4.02802E-04 5.41332E-19
4.38585E-04 4.57884E-19
4.75889E-04 3.89916E-19
5.14715E-04 3.34099E-19
5.55063E-04 2.87927E-19
5.96931E-04 2.49459E-19
6.40321E-04 2.17206E-19
6.85233E-04 1.90003E-19
7.31665E-04 1.66926E-19
7.79618E-04 1.47250E-19
8.29092E-04 1.30390E-19
8.80086E-04 1.15875E-19
9.32601E-04 1.03327E-19
9.86636E-04 9.24318E-20
1.04219E-03 8.29365E-20
1.09927E-03 7.46307E-20
1.15786E-03 6.73396E-20
1.21797E-03 6.09183E-20
1.27961E-03 5.52453E-20
1.34276E-03 5.02179E-20
1.40743E-03 4.57503E-20
1.47362E-03 4.17693E-20
1.54133E-03 3.82125E-20
1.61056E-03 3.50269E-20
1.68131E-03 3.21669E-20
1.75357E-03 2.95934E-20
1.82735E-03 2.72726E-20
1.90265E-03 2.51753E-20
1.97947E-03 2.32761E-20
2.05780E-03 2.15531E-20
2.13765E-03 1.99869E-20
2.21902E-03 1.85606E-20
2.30190E-03 1.72597E-20
2.38630E-03 1.60710E-20
2.47222E-03 1.49831E-20
2.55965E-03 1.39859E-20
2.64859E-03 1.30706E-20
2.73905E-03 1.22291E-20
2.83103E-03 1.14544E-20
2.92452E-03 1.07403E-20
3.01952E-03 1.00811E-20
3.11604E-03 9.47182E-21
3.21407E-03 8.90804E-21
3.31362E-03 8.38572E-21
3.41468E-03 7.90123E-21
3.51725E-03 7.45134E-21
3.62133E-03 7.03312E-21
3.72692E-03 6.64393E-21
3.83403E-03 6.28137E-21
3.94265E-03 5.94330E-21
4.05278E-03 5.62774E-21
4.16442E-03 5.33291E-21
4.27757E-03 5.05722E-21
4.39223E-03 4.79917E-21
4.50840E-03 4.55743E-21
4.62608E-03 4.33078E-21
4.74527E-03 4.11809E-21
4.86597E-03 3.91836E-21
4.98817E-03 3.73063E-21
5.11188E-03 3.55405E-21
5.23711E-03 3.38784E-21
5.36383E-03 3.23128E-21
5.49207E-03 3.08368E-21
5.62181E-03 2.94446E-21
5.75306E-03 2.81303E-21
5.88581E-03 2.68889E-21
6.02007E-03 2.57155E-21
6.15583E-03 2.46057E-21
6.29310E-03 2.35553E-21
6.43187E-03 2.25607E-21
6.57214E-03 2.16182E-21
6.71392E-03 2.07247E-21
6.85720E-03 1.98770E-21
7.00198E-03 1.90725E-21
7.14827E-03 1.83084E-21
7.29605E-03 1.75824E-21
7.44534E-03 1.68922E-21
7.59612E-03 1.62357E-21
7.97965E-03 1.47293E-21
8.37255E-03 1.33944E-21
8.77480E-03 1.22080E-21
9.18641E-03 1.11507E-21
9.60736E-03 1.02060E-21
1.00376E-02 9.35973E-22
1.04773E-02 8.59981E-22
1.09262E-02 7.91585E-22
1.13844E-02 7.29890E-22
1.18520E-02 6.74120E-22
1.23288E-02 6.23605E-22
1.28150E-02 5.77758E-22
1.33104E-02 5.36071E-22
1.38150E-02 4.98098E-22
1.43290E-02 4.63446E-22
1.48521E-02 4.31772E-22
1.53845E-02 4.02774E-22
1.59262E-02 3.76184E-22
1.64770E-02 3.51764E-22
1.70371E-02 3.29306E-22
1.76063E-02 3.08622E-22
1.81848E-02 2.89546E-22
1.87724E-02 2.71931E-22
1.93692E-02 2.55642E-22
1.99751E-02 2.40563E-22
2.05901E-02 2.26586E-22
2.12143E-02 2.13615E-22
2.18476E-02 2.01565E-22
2.24900E-02 1.90358E-22
2.31415E-02 1.79924E-22
2.38021E-02 1.70199E-22
2.44717E-02 1.61127E-22
2.51504E-02 1.52655E-22
2.58382E-02 1.44736E-22
2.65349E-02 1.37327E-22
2.72407E-02 1.30389E-22
2.79555E-02 1.23886E-22
2.86793E-02 1.17786E-22
2.94120E-02 1.12060E-22
3.01537E-02 1.06679E-22
3.09043E-02 1.01620E-22
3.16639E-02 9.68585E-23
3.24324E-02 9.23745E-23
3.32098E-02 8.81487E-23
3.39961E-02 8.41632E-23
3.47912E-02 8.04019E-23
3.55952E-02 7.68495E-23
3.64081E-02 7.34925E-23
3.72297E-02 7.03178E-23
3.80602E-02 6.73138E-23
3.88995E-02 6.44694E-23
3.97476E-02 6.17746E-23
4.06044E-02 5.92200E-23
4.14700E-02 5.67968E-23
4.23443E-02 5.44970E-23
4.32273E-02 5.23132E-23
4.41190E-02 5.02382E-23
4.50194E-02 4.82657E-23
4.59284E-02 4.63896E-23
4.68461E-02 4.46043E-23
4.87074E-02 4.12854E-23
5.06030E-02 3.82711E-23
5.25328E-02 3.55283E-23
5.44967E-02 3.30280E-23
5.64946E-02 3.07448E-23
5.85262E-02 2.86565E-23
6.05914E-02 2.67433E-23
6.26901E-02 2.49878E-23
6.48222E-02 2.33745E-23
6.69873E-02 2.18899E-23
6.91854E-02 2.05217E-23
7.14163E-02 1.92591E-23
7.36799E-02 1.80924E-23
7.59760E-02 1.70130E-23
7.83043E-02 1.60132E-23
8.06647E-02 1.50858E-23
8.30571E-02 1.42248E-23
8.54812E-02 1.34245E-23
8.79369E-02 1.26797E-23
9.04240E-02 1.19860E-23
9.29422E-02 1.13391E-23
9.54915E-02 1.07353E-23
9.80716E-02 1.01711E-23
1.00682E-01 9.64355E-24
1.03323E-01 9.14974E-24
1.05995E-01 8.68710E-24
1.08696E-01 8.25331E-24
1.11427E-01 7.84621E-24
1.14188E-01 7.46385E-24
1.16978E-01 7.10446E-24
1.19797E-01 6.76638E-24
1.22645E-01 6.44811E-24
1.25522E-01 6.14826E-24
1.28428E-01 5.86557E-24
1.31361E-01 5.59887E-24
1.34323E-01 5.34709E-24
1.37313E-01 5.10921E-24
1.40330E-01 4.88434E-24
1.43375E-01 4.67163E-24
1.46447E-01 4.47030E-24
1.49545E-01 4.27961E-24
1.52671E-01 4.09890E-24
1.55823E-01 3.92755E-24
1.59001E-01 3.76497E-24
1.62205E-01 3.61065E-24
1.65435E-01 3.46407E-24
1.68690E-01 3.32476E-24
1.71970E-01 3.19231E-24
1.75276E-01 3.06632E-24
1.78606E-01 2.94641E-24
1.81961E-01 2.83221E-24
1.85340E-01 2.72340E-24
1.88743E-01 2.61972E-24
1.92169E-01 2.52084E-24
1.95619E-01 2.42651E-24
1.99092E-01 2.33647E-24
2.02589E-01 2.25050E-24
2.06107E-01 2.16837E-24
2.09649E-01 2.08989E-24
2.13212E-01 2.01486E-24
2.16797E-01 1.94309E-24
2.20404E-01 1.87443E-24
2.24032E-01 1.80870E-24
2.27680E-01 1.74577E-24
2.31350E-01 1.68549E-24
2.35040E-01 1.62772E-24
2.38751E-01 1.57234E-24
2.42481E-01 1.51924E-24
2.46231E-01 1.46830E-24
2.50000E-01 1.41942E-24
2.53788E-01 1.37250E-24
2.57595E-01 1.32745E-24
2.61421E-01 1.28417E-24
2.65264E-01 1.24259E-24
2.69126E-01 1.20262E-24
2.73005E-01 1.16419E-24
2.76901E-01 1.12724E-24
2.80814E-01 1.09168E-24
2.84744E-01 1.05747E-24
2.88691E-01 1.02454E-24
2.92653E-01 9.92830E-25
2.96632E-01 9.62291E-25
3.00625E-01 9.32870E-25
3.04634E-01 9.04519E-25
3.08658E-01 8.77191E-25
3.12697E-01 8.50843E-25
3.16749E-01 8.25433E-25
3.20816E-01 8.00921E-25
3.24896E-01 7.77270E-25
3.28990E-01 7.54444E-25
3.33097E-01 7.32408E-25
3.37216E-01 7.11132E-25
3.41348E-01 6.90582E-25
3.45492E-01 6.70731E-25
3.49647E-01 6.51549E-25
3.53814E-01 6.33011E-25
3.57992E-01 6.15090E-25
3.62181E-01 5.97762E-25
3.66381E-01 5.81005E-25
3.70590E-01 5.64795E-25
3.74810E-01 5.49112E-25
3.79039E-01 5.33936E-25
3.83277E-01 5.19246E-25
3.87524E-01 5.05026E-25
3.91780E-01 4.91256E-25
3.96044E-01 4.77920E-25
4.00316E-01 4.65002E-25
4.04596E-01 4.52487E-25
4.08882E-01 4.40360E-25
4.13176E-01 4.28606E-25
4.17476E-01 4.17212E-25
4.21783E-01 4.06164E-25
4.26095E-01 3.95452E-25
4.30413E-01 3.85062E-25
4.34737E-01 3.74983E-25
4.39065E-01 3.65204E-25
4.43398E-01 3.55715E-25
4.47736E-01 3.46505E-25
4.52077E-01 3.37566E-25
4.56422E-01 3.28886E-25
4.60770E-01 3.20459E-25
4.65122E-01 3.12274E-25
4.69476E-01 3.04325E-25
4.73832E-01 2.96602E-25
4.78190E-01 2.89099E-25
4.82550E-01 2.81807E-25
4.86912E-01 2.74721E-25
4.91274E-01 2.67833E-25
4.95637E-01 2.61136E-25
5.00000E-01 2.54625E-25
5.04363E-01 2.48294E-25
5.08726E-01 2.42136E-25
5.13088E-01 2.36146E-25
5.17450E-01 2.30320E-25
5.21810E-01 2.24650E-25
5.26168E-01 2.19133E-25
5.30524E-01 2.13764E-25
5.34878E-01 2.08539E-25
5.39230E-01 2.03452E-25
5.43578E-01 1.98499E-25
5.47923E-01 1.93677E-25
5.52264E-01 1.88981E-25
5.56602E-01 1.84407E-25
5.60935E-01 1.79952E-25
5.65263E-01 1.75613E-25
5.69587E-01 1.71385E-25
5.73905E-01 1.67265E-25
5.78217E-01 1.63251E-25
5.82524E-01 1.59339E-25
5.86824E-01 1.55525E-25
5.91118E-01 1.51808E-25
5.95404E-01 1.48184E-25
5.99684E-01 1.44651E-25
6.03956E-01 1.41206E-25
6.08220E-01 1.37846E-25
6.12476E-01 1.34569E-25
6.16723E-01 1.31373E-25
6.20961E-01 1.28255E-25
6.25190E-01 1.25213E-25
6.29410E-01 1.22246E-25
6.33619E-01 1.19350E-25
6.37819E-01 1.16524E-25
6.42008E-01 1.13767E-25
6.46186E-01 1.11075E-25
6.50353E-01 1.08448E-25
6.54508E-01 1.05883E-25
6.58652E-01 1.03380E-25
6.62784E-01 1.00935E-25
6.66903E-01 9.85481E-26
6.71010E-01 9.62172E-26
6.75104E-01 9.39409E-26
6.79184E-01 9.17177E-26
6.83251E-01 8.95462E-26
6.87303E-01 8.74251E-26
6.91342E-01 8.53531E-26
6.95366E-01 8.33288E-26
6.99375E-01 8.13510E-26
7.03368E-01 7.94185E-26
7.07347E-01 7.75301E-26
7.11309E-01 7.56848E-26
7.15256E-01 7.38814E-26
7.19186E-01 7.21188E-26
7.23099E-01 7.03960E-26
7.26995E-01 6.87121E-26
7.30874E-01 6.70659E-26
7.34736E-01 6.54567E-26
7.38579E-01 6.38834E-26
7.42405E-01 6.23452E-26
7.46212E-01 6.08413E-26
7.50000E-01 5.93707E-26
7.53769E-01 5.79326E-26
7.57519E-01 5.65264E-26
7.61249E-01 5.51511E-26
7.64960E-01 5.38061E-26
7.68650E-01 5.24906E-26
7.72320E-01 5.12039E-26
7.75968E-01 4.99454E-26
7.79596E-01 4.87143E-26
7.83203E-01 4.75101E-26
7.86788E-01 4.63321E-26
7.90351E-01 4.51796E-26
7.93893E-01 4.40522E-26
7.97411E-01 4.29491E-26
8.00908E-01 4.18699E-26
8.04381E-01 4.08140E-26
8.07831E-01 3.97809E-26
8.11257E-01 3.87700E-26
8.14660E-01 3.77809E-26
8.18039E-01 3.68130E-26
8.21394E-01 3.58659E-26
8.24724E-01 3.49392E-26
8.28030E-01 3.40323E-26
8.31310E-01 3.31449E-26
8.34565E-01 3.22764E-26
8.37795E-01 3.14266E-26
8.40999E-01 3.05950E-26
8.44177E-01 2.97812E-26
8.47329E-01 2.89847E-26
8.50455E-01 2.82054E-26
8.53553E-01 2.74427E-26
8.56625E-01 2.66964E-26
8.59670E-01 2.59660E-26
8.62687E-01 2.52513E-26
8.65677E-01 2.45520E-26
8.68639E-01 2.38676E-26
8.71572E-01 2.31980E-26
8.74478E-01 2.25428E-26
8.77355E-01 2.19017E-26
8.80203E-01 2.12744E-26
8.83022E-01 2.06607E-26
8.85812E-01 2.00602E-26
8.88573E-01 1.94728E-26
8.91304E-01 1.88982E-26
8.94005E-01 1.83361E-26
8.96677E-01 1.77862E-26
8.99318E-01 1.72484E-26
9.01928E-01 1.67225E-26
9.04508E-01 1.62081E-26
9.07058E-01 1.57050E-26
9.09576E-01 1.52132E-26
9.12063E-01 1.47323E-26
9.14519E-01 1.42621E-26
9.16943E-01 1.38025E-26
9.19335E-01 1.33533E-26
9.21696E-01 1.29143E-26
9.24024E-01 1.24852E-26
9.26320E-01 1.20660E-26
9.28584E-01 1.16565E-26
9.30815E-01 1.12564E-26
9.33013E-01 1.08657E-26
9.35178E-01 1.04841E-26
9.37310E-01 1.01115E-26
9.39409E-01 9.74785E-27
9.41474E-01 9.39289E-27
9.43505E-01 9.04651E-27
9.45503E-01 8.70858E-27
9.47467E-01 8.37896E-27
9.49397E-01 8.05753E-27
9.51293E-01 7.74415E-27
9.53154E-01 7.43870E-27
9.54981E-01 7.14108E-27
9.56773E-01 6.85115E-27
9.58530E-01 6.56881E-27
9.60252E-01 6.29395E-27
9.61940E-01 6.02646E-27
9.63592E-01 5.76624E-27
9.65209E-01 5.51320E-27
9.66790E-01 5.26723E-27
9.68336E-01 5.02825E-27
9.69846E-01 4.79615E-27
9.71321E-01 4.57086E-27
9.72759E-01 4.35229E-27
9.74162E-01 4.14035E-27
9.75528E-01 3.93497E-27
9.76858E-01 3.73607E-27
9.78152E-01 3.54358E-27
9.79410E-01 3.35742E-27
9.80631E-01 3.17753E-27
9.81815E-01 3.00383E-27
9.82963E-01 2.83627E-27
9.84074E-01 2.67477E-27
9.85148E-01 2.51930E-27
9.86185E-01 2.36977E-27
9.87185E-01 2.22615E-27
9.88148E-01 2.08837E-27
9.89074E-01 1.95639E-27
9.89962E-01 1.83016E-27
9.90814E-01 1.70963E-27
9.91627E-01 1.59476E-27
9.92404E-01 1.48551E-27
9.93143E-01 1.38183E-27
9.93844E-01 1.28370E-27
9.94508E-01 1.19106E-27
9.95134E-01 1.10390E-27
9.95722E-01 1.02218E-27
9.96273E-01 9.45865E-28
9.96786E-01 8.74933E-28
9.97261E-01 8.09356E-28
9.97698E-01 7.49113E-28
9.98097E-01 6.94180E-28
9.98459E-01 6.44538E-28
9.98782E-01 6.00169E-28
9.99067E-01 5.61058E-28
9.99315E-01 5.27190E-28
9.99524E-01 4.98552E-28
9.99695E-01 4.75136E-28
9.99829E-01 4.56932E-28
9.99924E-01 4.43934E-28
9.99981E-01 4.36137E-28
1.00000E+00 4.33538E-28
