 #
 # Subroutine ELSEPA. Elastic scattering of electrons and positrons
 #                    by neutral atoms and positive ions
 #
 # Projectile: electron
 # Kinetic energy = 1.00000E+08 eV = 3.67493E+06 a.u.
 #
 # WARNING: High-energy factorization with free-atom DF screening.
 #          Absorption, polarization and exchange corrections are
 #          switched off.
 #          Phase shifts are calculated for the bare nucleus.
 #          Scattering amplitudes are not evaluated.
 #
 # Element: Ga,  Z =  31,  atomic weight = 6.97230E+01 g/mol
 #
 # Nuclear model: Fermi distribution
 #                Average radius = 4.40395E-13 cm
 #                Skin thickness = 5.46000E-14 cm
 #
 # Number of electrons = 31
 #
 # Total elastic cross section = 2.18127E-18 cm**2 = 7.78947E-02 a0**2
 # 1st transport cross section = 1.94144E-25 cm**2 = 6.93300E-09 a0**2
 # 2nd transport cross section = 5.77082E-25 cm**2 = 2.06080E-08 a0**2
 #
 #
 # Differential cross section:                       MU=(1-COS(THETA))/2
 #
 #  THETA        MU          DCS          DCS        Sherman      error
 #  (deg)                 (cm**2/sr)   (a0**2/sr)    function
 #----------------------------------------------------------------------
0.00000E+00 1.95074E-10
7.61557E-13 1.94486E-10
1.18994E-12 1.94157E-10
1.71346E-12 1.93756E-10
2.33225E-12 1.93284E-10
3.04617E-12 1.92742E-10
3.85530E-12 1.92131E-10
4.75964E-12 1.91452E-10
5.75917E-12 1.90707E-10
6.85391E-12 1.89896E-10
8.04379E-12 1.89021E-10
9.32893E-12 1.88084E-10
1.07092E-11 1.87087E-10
1.21847E-11 1.86031E-10
1.37554E-11 1.84917E-10
1.54213E-11 1.83749E-10
1.71823E-11 1.82528E-10
1.90386E-11 1.81255E-10
2.09900E-11 1.79934E-10
2.30367E-11 1.78565E-10
2.51785E-11 1.77146E-10
2.74156E-11 1.75687E-10
2.97478E-11 1.74192E-10
3.21752E-11 1.72661E-10
3.46979E-11 1.71099E-10
3.73157E-11 1.69492E-10
4.00286E-11 1.67853E-10
4.28368E-11 1.66188E-10
4.57402E-11 1.64501E-10
4.87388E-11 1.62793E-10
5.18325E-11 1.61062E-10
5.50215E-11 1.59297E-10
5.83057E-11 1.57518E-10
6.16850E-11 1.55728E-10
6.51595E-11 1.53929E-10
6.87293E-11 1.52122E-10
7.23943E-11 1.50289E-10
7.61544E-11 1.48448E-10
1.18991E-10 1.30032E-10
1.71347E-10 1.12407E-10
2.33223E-10 9.64158E-11
3.04617E-10 8.24464E-11
3.85531E-10 7.05274E-11
4.75965E-10 6.05010E-11
5.75917E-10 5.21294E-11
6.85389E-10 4.51575E-11
8.04380E-10 3.93419E-11
9.32891E-10 3.44819E-11
1.07092E-09 3.04009E-11
1.21847E-09 2.69541E-11
1.37554E-09 2.40240E-11
1.54213E-09 2.15155E-11
1.71823E-09 1.93511E-11
1.90386E-09 1.74734E-11
2.09900E-09 1.58339E-11
2.30367E-09 1.43742E-11
2.51785E-09 1.30127E-11
2.74156E-09 1.18500E-11
2.97478E-09 1.08512E-11
3.21752E-09 9.98822E-12
3.46978E-09 9.23858E-12
3.73156E-09 8.48394E-12
4.00286E-09 7.78705E-12
4.28368E-09 7.17779E-12
4.57402E-09 6.64272E-12
4.87388E-09 6.17081E-12
5.18326E-09 5.73337E-12
5.50215E-09 5.28911E-12
5.83057E-09 4.89543E-12
6.16850E-09 4.54531E-12
6.51596E-09 4.23287E-12
6.87293E-09 3.95313E-12
7.23942E-09 3.67050E-12
7.61544E-09 3.40895E-12
1.18991E-08 1.73773E-12
1.71347E-08 9.44260E-13
2.33223E-08 5.46968E-13
3.04617E-08 3.37410E-13
3.85531E-08 2.19899E-13
4.75965E-08 1.50088E-13
5.75917E-08 1.06398E-13
6.85389E-08 7.77468E-14
8.04380E-08 5.82389E-14
9.32891E-08 4.45290E-14
1.07092E-07 3.46287E-14
1.21847E-07 2.73192E-14
1.37554E-07 2.18244E-14
1.54213E-07 1.76300E-14
1.71823E-07 1.43839E-14
1.90386E-07 1.18428E-14
2.09900E-07 9.83195E-15
2.30367E-07 8.22418E-15
2.51785E-07 6.92644E-15
2.74156E-07 5.87903E-15
2.97478E-07 5.01596E-15
3.21752E-07 4.30752E-15
3.46978E-07 3.71784E-15
3.73156E-07 3.22604E-15
4.00286E-07 2.81257E-15
4.28368E-07 2.46325E-15
4.57402E-07 2.16659E-15
4.87388E-07 1.91314E-15
5.18325E-07 1.69592E-15
5.50215E-07 1.50857E-15
5.83057E-07 1.34662E-15
6.16850E-07 1.20572E-15
6.51596E-07 1.08295E-15
6.87293E-07 9.75374E-16
7.23942E-07 8.80933E-16
7.61543E-07 7.97653E-16
1.18991E-06 3.32371E-16
1.71347E-06 1.62339E-16
2.33223E-06 8.84368E-17
3.04617E-06 5.21799E-17
3.85531E-06 3.27292E-17
4.75964E-06 2.15471E-17
5.75916E-06 1.47543E-17
6.85388E-06 1.04375E-17
8.04378E-06 7.58905E-18
9.32888E-06 5.64878E-18
1.07092E-05 4.29049E-18
1.21846E-05 3.31684E-18
1.37553E-05 2.60427E-18
1.54212E-05 2.07312E-18
1.71822E-05 1.67072E-18
1.90385E-05 1.36124E-18
2.09899E-05 1.12046E-18
2.30365E-05 9.30609E-19
2.51783E-05 7.79273E-19
2.74153E-05 6.57447E-19
2.97475E-05 5.58503E-19
3.21749E-05 4.77490E-19
3.46974E-05 4.10658E-19
3.73152E-05 3.55134E-19
4.00281E-05 3.08697E-19
4.28362E-05 2.69614E-19
4.57395E-05 2.36527E-19
4.87380E-05 2.08362E-19
5.18317E-05 1.84264E-19
5.50205E-05 1.63549E-19
5.83045E-05 1.45665E-19
6.16838E-05 1.30160E-19
6.51582E-05 1.16667E-19
6.87277E-05 1.04880E-19
7.23925E-05 9.45462E-20
7.61524E-05 8.54652E-20
9.21439E-05 5.84100E-20
1.09658E-04 4.12648E-20
1.28695E-04 2.99771E-20
1.49255E-04 2.22990E-20
1.71338E-04 1.69307E-20
1.94942E-04 1.30854E-20
2.20070E-04 1.02731E-20
2.46720E-04 8.17770E-21
2.74892E-04 6.59058E-21
3.04586E-04 5.37076E-21
3.35803E-04 4.42068E-21
3.68542E-04 3.67184E-21
4.02802E-04 3.07516E-21
4.38585E-04 2.59497E-21
4.75889E-04 2.20503E-21
5.14715E-04 1.88570E-21
5.55063E-04 1.62218E-21
5.96931E-04 1.40315E-21
6.40321E-04 1.21990E-21
6.85233E-04 1.06563E-21
7.31665E-04 9.35009E-22
7.79618E-04 8.23815E-22
8.29092E-04 7.28680E-22
8.80086E-04 6.46896E-22
9.32601E-04 5.76278E-22
9.86636E-04 5.15043E-22
1.04219E-03 4.61732E-22
1.09927E-03 4.15148E-22
1.15786E-03 3.74295E-22
1.21797E-03 3.38348E-22
1.27961E-03 3.06615E-22
1.34276E-03 2.78518E-22
1.40743E-03 2.53567E-22
1.47362E-03 2.31349E-22
1.54133E-03 2.11512E-22
1.61056E-03 1.93756E-22
1.68131E-03 1.77825E-22
1.75357E-03 1.63498E-22
1.82735E-03 1.50584E-22
1.90265E-03 1.38920E-22
1.97947E-03 1.28364E-22
2.05780E-03 1.18791E-22
2.13765E-03 1.10093E-22
2.21902E-03 1.02177E-22
2.30190E-03 9.49586E-23
2.38630E-03 8.83662E-23
2.47222E-03 8.23354E-23
2.55965E-03 7.68098E-23
2.64859E-03 7.17395E-23
2.73905E-03 6.70801E-23
2.83103E-03 6.27924E-23
2.92452E-03 5.88412E-23
3.01952E-03 5.51955E-23
3.11604E-03 5.18272E-23
3.21407E-03 4.87115E-23
3.31362E-03 4.58259E-23
3.41468E-03 4.31503E-23
3.51725E-03 4.06667E-23
3.62133E-03 3.83588E-23
3.72692E-03 3.62118E-23
3.83403E-03 3.42125E-23
3.94265E-03 3.23488E-23
4.05278E-03 3.06099E-23
4.16442E-03 2.89859E-23
4.27757E-03 2.74678E-23
4.39223E-03 2.60474E-23
4.50840E-03 2.47173E-23
4.62608E-03 2.34706E-23
4.74527E-03 2.23012E-23
4.86597E-03 2.12034E-23
4.98817E-03 2.01720E-23
5.11188E-03 1.92022E-23
5.23711E-03 1.82897E-23
5.36383E-03 1.74305E-23
5.49207E-03 1.66208E-23
5.62181E-03 1.58574E-23
5.75306E-03 1.51370E-23
5.88581E-03 1.44568E-23
6.02007E-03 1.38141E-23
6.15583E-03 1.32066E-23
6.29310E-03 1.26318E-23
6.43187E-03 1.20877E-23
6.57214E-03 1.15724E-23
6.71392E-03 1.10840E-23
6.85720E-03 1.06209E-23
7.00198E-03 1.01816E-23
7.14827E-03 9.76456E-24
7.29605E-03 9.36847E-24
7.44534E-03 8.99207E-24
7.59612E-03 8.63421E-24
7.97965E-03 7.81375E-24
8.37255E-03 7.08757E-24
8.77480E-03 6.44297E-24
9.18641E-03 5.86924E-24
9.60736E-03 5.35724E-24
1.00376E-02 4.89921E-24
1.04773E-02 4.48847E-24
1.09262E-02 4.11930E-24
1.13844E-02 3.78678E-24
1.18520E-02 3.48664E-24
1.23288E-02 3.21518E-24
1.28150E-02 2.96919E-24
1.33104E-02 2.74587E-24
1.38150E-02 2.54278E-24
1.43290E-02 2.35776E-24
1.48521E-02 2.18893E-24
1.53845E-02 2.03462E-24
1.59262E-02 1.89338E-24
1.64770E-02 1.76391E-24
1.70371E-02 1.64506E-24
1.76063E-02 1.53580E-24
1.81848E-02 1.43523E-24
1.87724E-02 1.34255E-24
1.93692E-02 1.25702E-24
1.99751E-02 1.17800E-24
2.05901E-02 1.10491E-24
2.12143E-02 1.03723E-24
2.18476E-02 9.74488E-25
2.24900E-02 9.16267E-25
2.31415E-02 8.62184E-25
2.38021E-02 8.11895E-25
2.44717E-02 7.65089E-25
2.51504E-02 7.21484E-25
2.58382E-02 6.80824E-25
2.65349E-02 6.42878E-25
2.72407E-02 6.07433E-25
2.79555E-02 5.74297E-25
2.86793E-02 5.43296E-25
2.94120E-02 5.14267E-25
3.01537E-02 4.87066E-25
3.09043E-02 4.61558E-25
3.16639E-02 4.37620E-25
3.24324E-02 4.15140E-25
3.32098E-02 3.94015E-25
3.39961E-02 3.74149E-25
3.47912E-02 3.55456E-25
3.55952E-02 3.37855E-25
3.64081E-02 3.21271E-25
3.72297E-02 3.05637E-25
3.80602E-02 2.90889E-25
3.88995E-02 2.76970E-25
3.97476E-02 2.63825E-25
4.06044E-02 2.51404E-25
4.14700E-02 2.39661E-25
4.23443E-02 2.28554E-25
4.32273E-02 2.18043E-25
4.41190E-02 2.08090E-25
4.50194E-02 1.98661E-25
4.59284E-02 1.89725E-25
4.68461E-02 1.81252E-25
4.87074E-02 1.65586E-25
5.06030E-02 1.51463E-25
5.25328E-02 1.38710E-25
5.44967E-02 1.27176E-25
5.64946E-02 1.16727E-25
5.85262E-02 1.07249E-25
6.05914E-02 9.86372E-26
6.26901E-02 9.08033E-26
6.48222E-02 8.36673E-26
6.69873E-02 7.71590E-26
6.91854E-02 7.12160E-26
7.14163E-02 6.57829E-26
7.36799E-02 6.08104E-26
7.59760E-02 5.62547E-26
7.83043E-02 5.20766E-26
8.06647E-02 4.82409E-26
8.30571E-02 4.47163E-26
8.54812E-02 4.14746E-26
8.79369E-02 3.84904E-26
9.04240E-02 3.57411E-26
9.29422E-02 3.32059E-26
9.54915E-02 3.08665E-26
9.80716E-02 2.87061E-26
1.00682E-01 2.67095E-26
1.03323E-01 2.48631E-26
1.05995E-01 2.31543E-26
1.08696E-01 2.15720E-26
1.11427E-01 2.01058E-26
1.14188E-01 1.87463E-26
1.16978E-01 1.74852E-26
1.19797E-01 1.63145E-26
1.22645E-01 1.52274E-26
1.25522E-01 1.42172E-26
1.28428E-01 1.32780E-26
1.31361E-01 1.24045E-26
1.34323E-01 1.15917E-26
1.37313E-01 1.08349E-26
1.40330E-01 1.01302E-26
1.43375E-01 9.47353E-27
1.46447E-01 8.86147E-27
1.49545E-01 8.29075E-27
1.52671E-01 7.75838E-27
1.55823E-01 7.26161E-27
1.59001E-01 6.79791E-27
1.62205E-01 6.36494E-27
1.65435E-01 5.96052E-27
1.68690E-01 5.58267E-27
1.71970E-01 5.22954E-27
1.75276E-01 4.89942E-27
1.78606E-01 4.59073E-27
1.81961E-01 4.30201E-27
1.85340E-01 4.03190E-27
1.88743E-01 3.77914E-27
1.92169E-01 3.54257E-27
1.95619E-01 3.32110E-27
1.99092E-01 3.11373E-27
2.02589E-01 2.91952E-27
2.06107E-01 2.73761E-27
2.09649E-01 2.56718E-27
2.13212E-01 2.40750E-27
2.16797E-01 2.25785E-27
2.20404E-01 2.11758E-27
2.24032E-01 1.98610E-27
2.27680E-01 1.86283E-27
2.31350E-01 1.74724E-27
2.35040E-01 1.63885E-27
2.38751E-01 1.53720E-27
2.42481E-01 1.44186E-27
2.46231E-01 1.35243E-27
2.50000E-01 1.26853E-27
2.53788E-01 1.18982E-27
2.57595E-01 1.11598E-27
2.61421E-01 1.04669E-27
2.65264E-01 9.81668E-28
2.69126E-01 9.20657E-28
2.73005E-01 8.63403E-28
2.76901E-01 8.09672E-28
2.80814E-01 7.59247E-28
2.84744E-01 7.11922E-28
2.88691E-01 6.67508E-28
2.92653E-01 6.25823E-28
2.96632E-01 5.86700E-28
3.00625E-01 5.49983E-28
3.04634E-01 5.15522E-28
3.08658E-01 4.83181E-28
3.12697E-01 4.52828E-28
3.16749E-01 4.24343E-28
3.20816E-01 3.97611E-28
3.24896E-01 3.72526E-28
3.28990E-01 3.48987E-28
3.33097E-01 3.26899E-28
3.37216E-01 3.06174E-28
3.41348E-01 2.86730E-28
3.45492E-01 2.68488E-28
3.49647E-01 2.51375E-28
3.53814E-01 2.35322E-28
3.57992E-01 2.20265E-28
3.62181E-01 2.06143E-28
3.66381E-01 1.92900E-28
3.70590E-01 1.80482E-28
3.74810E-01 1.68838E-28
3.79039E-01 1.57921E-28
3.83277E-01 1.47688E-28
3.87524E-01 1.38096E-28
3.91780E-01 1.29106E-28
3.96044E-01 1.20682E-28
4.00316E-01 1.12789E-28
4.04596E-01 1.05395E-28
4.08882E-01 9.84683E-29
4.13176E-01 9.19811E-29
4.17476E-01 8.59063E-29
4.21783E-01 8.02186E-29
4.26095E-01 7.48941E-29
4.30413E-01 6.99105E-29
4.34737E-01 6.52468E-29
4.39065E-01 6.08831E-29
4.43398E-01 5.68010E-29
4.47736E-01 5.29830E-29
4.52077E-01 4.94126E-29
4.56422E-01 4.60746E-29
4.60770E-01 4.29543E-29
4.65122E-01 4.00383E-29
4.69476E-01 3.73137E-29
4.73832E-01 3.47685E-29
4.78190E-01 3.23914E-29
4.82550E-01 3.01719E-29
4.86912E-01 2.81000E-29
4.91274E-01 2.61664E-29
4.95637E-01 2.43622E-29
5.00000E-01 2.26793E-29
5.04363E-01 2.11099E-29
5.08726E-01 1.96467E-29
5.13088E-01 1.82829E-29
5.17450E-01 1.70121E-29
5.21810E-01 1.58283E-29
5.26168E-01 1.47259E-29
5.30524E-01 1.36996E-29
5.34878E-01 1.27443E-29
5.39230E-01 1.18555E-29
5.43578E-01 1.10288E-29
5.47923E-01 1.02601E-29
5.52264E-01 9.54553E-30
5.56602E-01 8.88151E-30
5.60935E-01 8.26466E-30
5.65263E-01 7.69183E-30
5.69587E-01 7.16005E-30
5.73905E-01 6.66655E-30
5.78217E-01 6.20873E-30
5.82524E-01 5.78415E-30
5.86824E-01 5.39054E-30
5.91118E-01 5.02578E-30
5.95404E-01 4.68785E-30
5.99684E-01 4.37490E-30
6.03956E-01 4.08518E-30
6.08220E-01 3.81706E-30
6.12476E-01 3.56901E-30
6.16723E-01 3.33961E-30
6.20961E-01 3.12752E-30
6.25190E-01 2.93151E-30
6.29410E-01 2.75040E-30
6.33619E-01 2.58312E-30
6.37819E-01 2.42866E-30
6.42008E-01 2.28606E-30
6.46186E-01 2.15446E-30
6.50353E-01 2.03302E-30
6.54508E-01 1.92099E-30
6.58652E-01 1.81765E-30
6.62784E-01 1.72234E-30
6.66903E-01 1.63445E-30
6.71010E-01 1.55340E-30
6.75104E-01 1.47865E-30
6.79184E-01 1.40971E-30
6.83251E-01 1.34612E-30
6.87303E-01 1.28746E-30
6.91342E-01 1.23331E-30
6.95366E-01 1.18333E-30
6.99375E-01 1.13716E-30
7.03368E-01 1.09448E-30
7.07347E-01 1.05501E-30
7.11309E-01 1.01848E-30
7.15256E-01 9.84623E-31
7.19186E-01 9.53222E-31
7.23099E-01 9.24059E-31
7.26995E-01 8.96935E-31
7.30874E-01 8.71669E-31
7.34736E-01 8.48093E-31
7.38579E-01 8.26053E-31
7.42405E-01 8.05407E-31
7.46212E-01 7.86023E-31
7.50000E-01 7.67783E-31
7.53769E-01 7.50576E-31
7.57519E-01 7.34302E-31
7.61249E-01 7.18868E-31
7.64960E-01 7.04191E-31
7.68650E-01 6.90193E-31
7.72320E-01 6.76806E-31
7.75968E-01 6.63964E-31
7.79596E-01 6.51611E-31
7.83203E-01 6.39694E-31
7.86788E-01 6.28165E-31
7.90351E-01 6.16982E-31
7.93893E-01 6.06105E-31
7.97411E-01 5.95501E-31
8.00908E-01 5.85138E-31
8.04381E-01 5.74988E-31
8.07831E-01 5.65026E-31
8.11257E-01 5.55231E-31
8.14660E-01 5.45583E-31
8.18039E-01 5.36064E-31
8.21394E-01 5.26659E-31
8.24724E-01 5.17356E-31
8.28030E-01 5.08144E-31
8.31310E-01 4.99011E-31
8.34565E-01 4.89951E-31
8.37795E-01 4.80955E-31
8.40999E-01 4.72019E-31
8.44177E-01 4.63137E-31
8.47329E-01 4.54307E-31
8.50455E-01 4.45524E-31
8.53553E-01 4.36787E-31
8.56625E-01 4.28094E-31
8.59670E-01 4.19446E-31
8.62687E-01 4.10840E-31
8.65677E-01 4.02279E-31
8.68639E-01 3.93761E-31
8.71572E-01 3.85289E-31
8.74478E-01 3.76864E-31
8.77355E-01 3.68487E-31
8.80203E-01 3.60161E-31
8.83022E-01 3.51886E-31
8.85812E-01 3.43666E-31
8.88573E-01 3.35502E-31
8.91304E-01 3.27397E-31
8.94005E-01 3.19354E-31
8.96677E-01 3.11375E-31
8.99318E-01 3.03462E-31
9.01928E-01 2.95618E-31
9.04508E-01 2.87846E-31
9.07058E-01 2.80148E-31
9.09576E-01 2.72526E-31
9.12063E-01 2.64984E-31
9.14519E-01 2.57522E-31
9.16943E-01 2.50145E-31
9.19335E-01 2.42853E-31
9.21696E-01 2.35650E-31
9.24024E-01 2.28537E-31
9.26320E-01 2.21515E-31
9.28584E-01 2.14589E-31
9.30815E-01 2.07758E-31
9.33013E-01 2.01024E-31
9.35178E-01 1.94390E-31
9.37310E-01 1.87857E-31
9.39409E-01 1.81427E-31
9.41474E-01 1.75100E-31
9.43505E-01 1.68879E-31
9.45503E-01 1.62763E-31
9.47467E-01 1.56755E-31
9.49397E-01 1.50855E-31
9.51293E-01 1.45065E-31
9.53154E-01 1.39385E-31
9.54981E-01 1.33816E-31
9.56773E-01 1.28359E-31
9.58530E-01 1.23014E-31
9.60252E-01 1.17782E-31
9.61940E-01 1.12663E-31
9.63592E-01 1.07658E-31
9.65209E-01 1.02767E-31
9.66790E-01 9.79910E-32
9.68336E-01 9.33296E-32
9.69846E-01 8.87831E-32
9.71321E-01 8.43518E-32
9.72759E-01 8.00357E-32
9.74162E-01 7.58349E-32
9.75528E-01 7.17493E-32
9.76858E-01 6.77791E-32
9.78152E-01 6.39242E-32
9.79410E-01 6.01844E-32
9.80631E-01 5.65597E-32
9.81815E-01 5.30499E-32
9.82963E-01 4.96549E-32
9.84074E-01 4.63745E-32
9.85148E-01 4.32085E-32
9.86185E-01 4.01567E-32
9.87185E-01 3.72188E-32
9.88148E-01 3.43947E-32
9.89074E-01 3.16840E-32
9.89962E-01 2.90866E-32
9.90814E-01 2.66021E-32
9.91627E-01 2.42304E-32
9.92404E-01 2.19711E-32
9.93143E-01 1.98239E-32
9.93844E-01 1.77888E-32
9.94508E-01 1.58652E-32
9.95134E-01 1.40531E-32
9.95722E-01 1.23522E-32
9.96273E-01 1.07622E-32
9.96786E-01 9.28290E-33
9.97261E-01 7.91411E-33
9.97698E-01 6.65563E-33
9.98097E-01 5.50724E-33
9.98459E-01 4.46879E-33
9.98782E-01 3.54010E-33
9.99067E-01 2.72102E-33
9.99315E-01 2.01142E-33
9.99524E-01 1.41118E-33
9.99695E-01 9.20227E-34
9.99829E-01 5.38454E-34
9.99924E-01 2.65806E-34
9.99981E-01 1.02234E-34
1.00000E+00 4.77168E-35
