 #
 # Subroutine ELSEPA. Elastic scattering of electrons and positrons
 #                    by neutral atoms and positive ions
 #
 # Projectile: electron
 # Kinetic energy = 1.75000E+08 eV = 6.43113E+06 a.u.
 #
 # WARNING: High-energy factorization with free-atom DF screening.
 #          Absorption, polarization and exchange corrections are
 #          switched off.
 #          Phase shifts are calculated for the bare nucleus.
 #          Scattering amplitudes are not evaluated.
 #
 # Element: Ga,  Z =  31,  atomic weight = 6.97230E+01 g/mol
 #
 # Nuclear model: Fermi distribution
 #                Average radius = 4.40395E-13 cm
 #                Skin thickness = 5.46000E-14 cm
 #
 # Number of electrons = 31
 #
 # Total elastic cross section = 2.18179E-18 cm**2 = 7.79131E-02 a0**2
 # 1st transport cross section = 6.38134E-26 cm**2 = 2.27882E-09 a0**2
 # 2nd transport cross section = 1.90785E-25 cm**2 = 6.81305E-09 a0**2
 #
 #
 # Differential cross section:                       MU=(1-COS(THETA))/2
 #
 #  THETA        MU          DCS          DCS        Sherman      error
 #  (deg)                 (cm**2/sr)   (a0**2/sr)    function
 #----------------------------------------------------------------------
0.00000E+00 5.94814E-10
7.61557E-13 5.89379E-10
1.18994E-12 5.86362E-10
1.71346E-12 5.82711E-10
2.33225E-12 5.78445E-10
3.04617E-12 5.73590E-10
3.85530E-12 5.68171E-10
4.75964E-12 5.62218E-10
5.75917E-12 5.55762E-10
6.85391E-12 5.48835E-10
8.04379E-12 5.41455E-10
9.32893E-12 5.33675E-10
1.07092E-11 5.25560E-10
1.21847E-11 5.17111E-10
1.37554E-11 5.08340E-10
1.54213E-11 4.99350E-10
1.71823E-11 4.90150E-10
1.90386E-11 4.80711E-10
2.09900E-11 4.71165E-10
2.30367E-11 4.61530E-10
2.51785E-11 4.51728E-10
2.74156E-11 4.41917E-10
2.97478E-11 4.32125E-10
3.21752E-11 4.22229E-10
3.46979E-11 4.12404E-10
3.73157E-11 4.02673E-10
4.00286E-11 3.92922E-10
4.28368E-11 3.83286E-10
4.57402E-11 3.73802E-10
4.87388E-11 3.64370E-10
5.18325E-11 3.55079E-10
5.50215E-11 3.45978E-10
5.83057E-11 3.36989E-10
6.16850E-11 3.28153E-10
6.51595E-11 3.19534E-10
6.87293E-11 3.11068E-10
7.23943E-11 3.02759E-10
7.61544E-11 2.94679E-10
1.18991E-10 2.24266E-10
1.71347E-10 1.71716E-10
2.33223E-10 1.33433E-10
3.04617E-10 1.05552E-10
3.85531E-10 8.50018E-11
4.75965E-10 6.95763E-11
5.75917E-10 5.77460E-11
6.85389E-10 4.84937E-11
8.04380E-10 4.08512E-11
9.32891E-10 3.47152E-11
1.07092E-09 2.99891E-11
1.21847E-09 2.60074E-11
1.37554E-09 2.24441E-11
1.54213E-09 1.96115E-11
1.71823E-09 1.72284E-11
1.90386E-09 1.50130E-11
2.09900E-09 1.32089E-11
2.30367E-09 1.16991E-11
2.51785E-09 1.02725E-11
2.74156E-09 9.08826E-12
2.97478E-09 8.09718E-12
3.21752E-09 7.16086E-12
3.46978E-09 6.37003E-12
3.73156E-09 5.69857E-12
4.00286E-09 5.08063E-12
4.28368E-09 4.54553E-12
4.57402E-09 4.08548E-12
4.87388E-09 3.66917E-12
5.18326E-09 3.30247E-12
5.50215E-09 2.98370E-12
5.83057E-09 2.69778E-12
6.16850E-09 2.44304E-12
6.51596E-09 2.21939E-12
6.87293E-09 2.01939E-12
7.23942E-09 1.83979E-12
7.61544E-09 1.68070E-12
1.18991E-08 7.48790E-13
1.71347E-08 3.86685E-13
2.33223E-08 2.21759E-13
3.04617E-08 1.36840E-13
3.85531E-08 8.89827E-14
4.75965E-08 6.02142E-14
5.75917E-08 4.20849E-14
6.85389E-08 3.02260E-14
8.04380E-08 2.22125E-14
9.32891E-08 1.66826E-14
1.07092E-07 1.27612E-14
1.21847E-07 9.91887E-15
1.37554E-07 7.82559E-15
1.54213E-07 6.25666E-15
1.71823E-07 5.06232E-15
1.90386E-07 4.14040E-15
2.09900E-07 3.41928E-15
2.30367E-07 2.84902E-15
2.51785E-07 2.39323E-15
2.74156E-07 2.02535E-15
2.97478E-07 1.72571E-15
3.21752E-07 1.47956E-15
3.46978E-07 1.27588E-15
3.73156E-07 1.10617E-15
4.00286E-07 9.63820E-16
4.28368E-07 8.43691E-16
4.57402E-07 7.41692E-16
4.87388E-07 6.54675E-16
5.18325E-07 5.80067E-16
5.50215E-07 5.15798E-16
5.83057E-07 4.60193E-16
6.16850E-07 4.11867E-16
6.51596E-07 3.69722E-16
6.87293E-07 3.32833E-16
7.23942E-07 3.00431E-16
7.61543E-07 2.71876E-16
1.18991E-06 1.12496E-16
1.71347E-06 5.45633E-17
2.33223E-06 2.95525E-17
3.04617E-06 1.73604E-17
3.85531E-06 1.08535E-17
4.75964E-06 7.12811E-18
5.75916E-06 4.87218E-18
6.85388E-06 3.44203E-18
8.04378E-06 2.50013E-18
9.32888E-06 1.85946E-18
1.07092E-05 1.41147E-18
1.21846E-05 1.09063E-18
1.37553E-05 8.55990E-19
1.54212E-05 6.81197E-19
1.71822E-05 5.48831E-19
1.90385E-05 4.47073E-19
2.09899E-05 3.67928E-19
2.30365E-05 3.05542E-19
2.51783E-05 2.55822E-19
2.74153E-05 2.15806E-19
2.97475E-05 1.83311E-19
3.21749E-05 1.56709E-19
3.46974E-05 1.34766E-19
3.73152E-05 1.16537E-19
4.00281E-05 1.01294E-19
4.28362E-05 8.84654E-20
4.57395E-05 7.76057E-20
4.87380E-05 6.83620E-20
5.18317E-05 6.04537E-20
5.50205E-05 5.36560E-20
5.83045E-05 4.77873E-20
6.16838E-05 4.26999E-20
6.51582E-05 3.82725E-20
6.87277E-05 3.44051E-20
7.23925E-05 3.10146E-20
7.61524E-05 2.80329E-20
9.21439E-05 1.91564E-20
1.09658E-04 1.35317E-20
1.28695E-04 9.82893E-21
1.49255E-04 7.31039E-21
1.71338E-04 5.54964E-21
1.94942E-04 4.28852E-21
2.20070E-04 3.36621E-21
2.46720E-04 2.67909E-21
2.74892E-04 2.15867E-21
3.04586E-04 1.75873E-21
3.35803E-04 1.44725E-21
3.68542E-04 1.20178E-21
4.02802E-04 1.00619E-21
4.38585E-04 8.48818E-22
4.75889E-04 7.21033E-22
5.14715E-04 6.16401E-22
5.55063E-04 5.30069E-22
5.96931E-04 4.58324E-22
6.40321E-04 3.98306E-22
6.85233E-04 3.47789E-22
7.31665E-04 3.05023E-22
7.79618E-04 2.68625E-22
8.29092E-04 2.37489E-22
8.80086E-04 2.10728E-22
9.32601E-04 1.87626E-22
9.86636E-04 1.67597E-22
1.04219E-03 1.50166E-22
1.09927E-03 1.34936E-22
1.15786E-03 1.21584E-22
1.21797E-03 1.09839E-22
1.27961E-03 9.94730E-23
1.34276E-03 9.02974E-23
1.40743E-03 8.21517E-23
1.47362E-03 7.49004E-23
1.54133E-03 6.84282E-23
1.61056E-03 6.26370E-23
1.68131E-03 5.74425E-23
1.75357E-03 5.27727E-23
1.82735E-03 4.85652E-23
1.90265E-03 4.47662E-23
1.97947E-03 4.13292E-23
2.05780E-03 3.82136E-23
2.13765E-03 3.53840E-23
2.21902E-03 3.28096E-23
2.30190E-03 3.04632E-23
2.38630E-03 2.83212E-23
2.47222E-03 2.63626E-23
2.55965E-03 2.45688E-23
2.64859E-03 2.29236E-23
2.73905E-03 2.14125E-23
2.83103E-03 2.00226E-23
2.92452E-03 1.87424E-23
3.01952E-03 1.75618E-23
3.11604E-03 1.64716E-23
3.21407E-03 1.54636E-23
3.31362E-03 1.45307E-23
3.41468E-03 1.36661E-23
3.51725E-03 1.28640E-23
3.62133E-03 1.21190E-23
3.72692E-03 1.14265E-23
3.83403E-03 1.07819E-23
3.94265E-03 1.01815E-23
4.05278E-03 9.62157E-24
4.16442E-03 9.09899E-24
4.27757E-03 8.61081E-24
4.39223E-03 8.15434E-24
4.50840E-03 7.72717E-24
4.62608E-03 7.32708E-24
4.74527E-03 6.95205E-24
4.86597E-03 6.60023E-24
4.98817E-03 6.26993E-24
5.11188E-03 5.95959E-24
5.23711E-03 5.66780E-24
5.36383E-03 5.39325E-24
5.49207E-03 5.13475E-24
5.62181E-03 4.89118E-24
5.75306E-03 4.66153E-24
5.88581E-03 4.44487E-24
6.02007E-03 4.24034E-24
6.15583E-03 4.04712E-24
6.29310E-03 3.86449E-24
6.43187E-03 3.69177E-24
6.57214E-03 3.52831E-24
6.71392E-03 3.37355E-24
6.85720E-03 3.22693E-24
7.00198E-03 3.08795E-24
7.14827E-03 2.95614E-24
7.29605E-03 2.83107E-24
7.44534E-03 2.71233E-24
7.59612E-03 2.59955E-24
7.97965E-03 2.34140E-24
8.37255E-03 2.11349E-24
8.77480E-03 1.91171E-24
9.18641E-03 1.73259E-24
9.60736E-03 1.57318E-24
1.00376E-02 1.43097E-24
1.04773E-02 1.30381E-24
1.09262E-02 1.18987E-24
1.13844E-02 1.08755E-24
1.18520E-02 9.95488E-25
1.23288E-02 9.12493E-25
1.28150E-02 8.37535E-25
1.33104E-02 7.69718E-25
1.38150E-02 7.08257E-25
1.43290E-02 6.52467E-25
1.48521E-02 6.01745E-25
1.53845E-02 5.55562E-25
1.59262E-02 5.13452E-25
1.64770E-02 4.75003E-25
1.70371E-02 4.39850E-25
1.76063E-02 4.07668E-25
1.81848E-02 3.78171E-25
1.87724E-02 3.51103E-25
1.93692E-02 3.26235E-25
1.99751E-02 3.03363E-25
2.05901E-02 2.82305E-25
2.12143E-02 2.62897E-25
2.18476E-02 2.44992E-25
2.24900E-02 2.28458E-25
2.31415E-02 2.13175E-25
2.38021E-02 1.99037E-25
2.44717E-02 1.85946E-25
2.51504E-02 1.73815E-25
2.58382E-02 1.62565E-25
2.65349E-02 1.52122E-25
2.72407E-02 1.42423E-25
2.79555E-02 1.33407E-25
2.86793E-02 1.25021E-25
2.94120E-02 1.17215E-25
3.01537E-02 1.09945E-25
3.09043E-02 1.03168E-25
3.16639E-02 9.68488E-26
3.24324E-02 9.09518E-26
3.32098E-02 8.54458E-26
3.39961E-02 8.03021E-26
3.47912E-02 7.54942E-26
3.55952E-02 7.09978E-26
3.64081E-02 6.67907E-26
3.72297E-02 6.28522E-26
3.80602E-02 5.91635E-26
3.88995E-02 5.57072E-26
3.97476E-02 5.24671E-26
4.06044E-02 4.94285E-26
4.14700E-02 4.65775E-26
4.23443E-02 4.39016E-26
4.32273E-02 4.13890E-26
4.41190E-02 3.90289E-26
4.50194E-02 3.68112E-26
4.59284E-02 3.47265E-26
4.68461E-02 3.27663E-26
4.87074E-02 2.91874E-26
5.06030E-02 2.60170E-26
5.25328E-02 2.32051E-26
5.44967E-02 2.07084E-26
5.64946E-02 1.84894E-26
5.85262E-02 1.65153E-26
6.05914E-02 1.47575E-26
6.26901E-02 1.31911E-26
6.48222E-02 1.17943E-26
6.69873E-02 1.05477E-26
6.91854E-02 9.43463E-27
7.14163E-02 8.44013E-27
7.36799E-02 7.55114E-27
7.59760E-02 6.75610E-27
7.83043E-02 6.04481E-27
8.06647E-02 5.40820E-27
8.30571E-02 4.83827E-27
8.54812E-02 4.32789E-27
8.79369E-02 3.87075E-27
9.04240E-02 3.46122E-27
9.29422E-02 3.09431E-27
9.54915E-02 2.76554E-27
9.80716E-02 2.47095E-27
1.00682E-01 2.20697E-27
1.03323E-01 1.97045E-27
1.05995E-01 1.75854E-27
1.08696E-01 1.56870E-27
1.11427E-01 1.39867E-27
1.14188E-01 1.24641E-27
1.16978E-01 1.11010E-27
1.19797E-01 9.88097E-28
1.22645E-01 8.78943E-28
1.25522E-01 7.81319E-28
1.28428E-01 6.94043E-28
1.31361E-01 6.16055E-28
1.34323E-01 5.46401E-28
1.37313E-01 4.84223E-28
1.40330E-01 4.28754E-28
1.43375E-01 3.79299E-28
1.46447E-01 3.35238E-28
1.49545E-01 2.96011E-28
1.52671E-01 2.61115E-28
1.55823E-01 2.30098E-28
1.59001E-01 2.02553E-28
1.62205E-01 1.78114E-28
1.65435E-01 1.56454E-28
1.68690E-01 1.37277E-28
1.71970E-01 1.20317E-28
1.75276E-01 1.05336E-28
1.78606E-01 9.21203E-29
1.81961E-01 8.04775E-29
1.85340E-01 7.02349E-29
1.88743E-01 6.12378E-29
1.92169E-01 5.33475E-29
1.95619E-01 4.64395E-29
1.99092E-01 4.04025E-29
2.02589E-01 3.51367E-29
2.06107E-01 3.05529E-29
2.09649E-01 2.65713E-29
2.13212E-01 2.31208E-29
2.16797E-01 2.01377E-29
2.20404E-01 1.75654E-29
2.24032E-01 1.53533E-29
2.27680E-01 1.34566E-29
2.31350E-01 1.18352E-29
2.35040E-01 1.04538E-29
2.38751E-01 9.28094E-30
2.42481E-01 8.28877E-30
2.46231E-01 7.45270E-30
2.50000E-01 6.75105E-30
2.53788E-01 6.16468E-30
2.57595E-01 5.67681E-30
2.61421E-01 5.27268E-30
2.65264E-01 4.93939E-30
2.69126E-01 4.66567E-30
2.73005E-01 4.44172E-30
2.76901E-01 4.25902E-30
2.80814E-01 4.11019E-30
2.84744E-01 3.98889E-30
2.88691E-01 3.88967E-30
2.92653E-01 3.80786E-30
2.96632E-01 3.73951E-30
3.00625E-01 3.68127E-30
3.04634E-01 3.63033E-30
3.08658E-01 3.58436E-30
3.12697E-01 3.54143E-30
3.16749E-01 3.49997E-30
3.20816E-01 3.45873E-30
3.24896E-01 3.41670E-30
3.28990E-01 3.37314E-30
3.33097E-01 3.32748E-30
3.37216E-01 3.27931E-30
3.41348E-01 3.22837E-30
3.45492E-01 3.17454E-30
3.49647E-01 3.11775E-30
3.53814E-01 3.05806E-30
3.57992E-01 2.99556E-30
3.62181E-01 2.93041E-30
3.66381E-01 2.86281E-30
3.70590E-01 2.79297E-30
3.74810E-01 2.72115E-30
3.79039E-01 2.64761E-30
3.83277E-01 2.57261E-30
3.87524E-01 2.49644E-30
3.91780E-01 2.41936E-30
3.96044E-01 2.34164E-30
4.00316E-01 2.26355E-30
4.04596E-01 2.18532E-30
4.08882E-01 2.10720E-30
4.13176E-01 2.02942E-30
4.17476E-01 1.95218E-30
4.21783E-01 1.87568E-30
4.26095E-01 1.80011E-30
4.30413E-01 1.72562E-30
4.34737E-01 1.65237E-30
4.39065E-01 1.58048E-30
4.43398E-01 1.51009E-30
4.47736E-01 1.44129E-30
4.52077E-01 1.37418E-30
4.56422E-01 1.30883E-30
4.60770E-01 1.24531E-30
4.65122E-01 1.18367E-30
4.69476E-01 1.12395E-30
4.73832E-01 1.06619E-30
4.78190E-01 1.01040E-30
4.82550E-01 9.56595E-31
4.86912E-01 9.04781E-31
4.91274E-01 8.54952E-31
4.95637E-01 8.07097E-31
5.00000E-01 7.61198E-31
5.04363E-01 7.17232E-31
5.08726E-01 6.75171E-31
5.13088E-01 6.34980E-31
5.17450E-01 5.96623E-31
5.21810E-01 5.60061E-31
5.26168E-01 5.25248E-31
5.30524E-01 4.92139E-31
5.34878E-01 4.60687E-31
5.39230E-01 4.30841E-31
5.43578E-01 4.02551E-31
5.47923E-01 3.75763E-31
5.52264E-01 3.50427E-31
5.56602E-01 3.26488E-31
5.60935E-01 3.03893E-31
5.65263E-01 2.82589E-31
5.69587E-01 2.62523E-31
5.73905E-01 2.43644E-31
5.78217E-01 2.25899E-31
5.82524E-01 2.09237E-31
5.86824E-01 1.93608E-31
5.91118E-01 1.78965E-31
5.95404E-01 1.65258E-31
5.99684E-01 1.52442E-31
6.03956E-01 1.40471E-31
6.08220E-01 1.29301E-31
6.12476E-01 1.18890E-31
6.16723E-01 1.09197E-31
6.20961E-01 1.00182E-31
6.25190E-01 9.18072E-32
6.29410E-01 8.40359E-32
6.33619E-01 7.68327E-32
6.37819E-01 7.01641E-32
6.42008E-01 6.39975E-32
6.46186E-01 5.83023E-32
6.50353E-01 5.30488E-32
6.54508E-01 4.82091E-32
6.58652E-01 4.37563E-32
6.62784E-01 3.96651E-32
6.66903E-01 3.59112E-32
6.71010E-01 3.24719E-32
6.75104E-01 2.93254E-32
6.79184E-01 2.64512E-32
6.83251E-01 2.38299E-32
6.87303E-01 2.14433E-32
6.91342E-01 1.92741E-32
6.95366E-01 1.73060E-32
6.99375E-01 1.55239E-32
7.03368E-01 1.39133E-32
7.07347E-01 1.24608E-32
7.11309E-01 1.11538E-32
7.15256E-01 9.98056E-33
7.19186E-01 8.92995E-33
7.23099E-01 7.99169E-33
7.26995E-01 7.15618E-33
7.30874E-01 6.41446E-33
7.34736E-01 5.75819E-33
7.38579E-01 5.17965E-33
7.42405E-01 4.67164E-33
7.46212E-01 4.22750E-33
7.50000E-01 3.84107E-33
7.53769E-01 3.50665E-33
7.57519E-01 3.21898E-33
7.61249E-01 2.97321E-33
7.64960E-01 2.76488E-33
7.68650E-01 2.58989E-33
7.72320E-01 2.44449E-33
7.75968E-01 2.32522E-33
7.79596E-01 2.22894E-33
7.83203E-01 2.15277E-33
7.86788E-01 2.09410E-33
7.90351E-01 2.05056E-33
7.93893E-01 2.01998E-33
7.97411E-01 2.00042E-33
8.00908E-01 1.99011E-33
8.04381E-01 1.98748E-33
8.07831E-01 1.99110E-33
8.11257E-01 1.99971E-33
8.14660E-01 2.01218E-33
8.18039E-01 2.02749E-33
8.21394E-01 2.04476E-33
8.24724E-01 2.06322E-33
8.28030E-01 2.08217E-33
8.31310E-01 2.10104E-33
8.34565E-01 2.11930E-33
8.37795E-01 2.13651E-33
8.40999E-01 2.15232E-33
8.44177E-01 2.16641E-33
8.47329E-01 2.17853E-33
8.50455E-01 2.18846E-33
8.53553E-01 2.19607E-33
8.56625E-01 2.20121E-33
8.59670E-01 2.20382E-33
8.62687E-01 2.20382E-33
8.65677E-01 2.20121E-33
8.68639E-01 2.19598E-33
8.71572E-01 2.18815E-33
8.74478E-01 2.17776E-33
8.77355E-01 2.16487E-33
8.80203E-01 2.14954E-33
8.83022E-01 2.13185E-33
8.85812E-01 2.11191E-33
8.88573E-01 2.08979E-33
8.91304E-01 2.06561E-33
8.94005E-01 2.03949E-33
8.96677E-01 2.01152E-33
8.99318E-01 1.98184E-33
9.01928E-01 1.95054E-33
9.04508E-01 1.91777E-33
9.07058E-01 1.88362E-33
9.09576E-01 1.84823E-33
9.12063E-01 1.81170E-33
9.14519E-01 1.77415E-33
9.16943E-01 1.73569E-33
9.19335E-01 1.69643E-33
9.21696E-01 1.65647E-33
9.24024E-01 1.61593E-33
9.26320E-01 1.57489E-33
9.28584E-01 1.53346E-33
9.30815E-01 1.49172E-33
9.33013E-01 1.44976E-33
9.35178E-01 1.40766E-33
9.37310E-01 1.36551E-33
9.39409E-01 1.32338E-33
9.41474E-01 1.28134E-33
9.43505E-01 1.23946E-33
9.45503E-01 1.19780E-33
9.47467E-01 1.15643E-33
9.49397E-01 1.11539E-33
9.51293E-01 1.07474E-33
9.53154E-01 1.03454E-33
9.54981E-01 9.94814E-34
9.56773E-01 9.55617E-34
9.58530E-01 9.16986E-34
9.60252E-01 8.78956E-34
9.61940E-01 8.41559E-34
9.63592E-01 8.04827E-34
9.65209E-01 7.68785E-34
9.66790E-01 7.33460E-34
9.68336E-01 6.98873E-34
9.69846E-01 6.65045E-34
9.71321E-01 6.31991E-34
9.72759E-01 5.99730E-34
9.74162E-01 5.68276E-34
9.75528E-01 5.37640E-34
9.76858E-01 5.07832E-34
9.78152E-01 4.78861E-34
9.79410E-01 4.50735E-34
9.80631E-01 4.23461E-34
9.81815E-01 3.97044E-34
9.82963E-01 3.71486E-34
9.84074E-01 3.46792E-34
9.85148E-01 3.22961E-34
9.86185E-01 2.99997E-34
9.87185E-01 2.77899E-34
9.88148E-01 2.56668E-34
9.89074E-01 2.36301E-34
9.89962E-01 2.16796E-34
9.90814E-01 1.98155E-34
9.91627E-01 1.80372E-34
9.92404E-01 1.63446E-34
9.93143E-01 1.47373E-34
9.93844E-01 1.32151E-34
9.94508E-01 1.17777E-34
9.95134E-01 1.04247E-34
9.95722E-01 9.15586E-35
9.96273E-01 7.97068E-35
9.96786E-01 6.86894E-35
9.97261E-01 5.85031E-35
9.97698E-01 4.91440E-35
9.98097E-01 4.06106E-35
9.98459E-01 3.28983E-35
9.98782E-01 2.60054E-35
9.99067E-01 1.99296E-35
9.99315E-01 1.46686E-35
9.99524E-01 1.02206E-35
9.99695E-01 6.58327E-36
9.99829E-01 3.75584E-36
9.99924E-01 1.73691E-36
9.99981E-01 5.25963E-37
1.00000E+00 1.22258E-37
