 #
 # Subroutine ELSEPA. Elastic scattering of electrons and positrons
 #                    by neutral atoms and positive ions
 #
 # Projectile: electron
 # Kinetic energy = 4.00000E+07 eV = 1.46997E+06 a.u.
 #
 # WARNING: High-energy factorization with free-atom DF screening.
 #          Absorption, polarization and exchange corrections are
 #          switched off.
 #          Phase shifts are calculated for the bare nucleus.
 #          Scattering amplitudes are not evaluated.
 #
 # Element: Ce,  Z =  58,  atomic weight = 1.40116E+02 g/mol
 #
 # Nuclear model: Fermi distribution
 #                Average radius = 5.55750E-13 cm
 #                Skin thickness = 5.46000E-14 cm
 #
 # Number of electrons = 58
 #
 # Total elastic cross section = 7.28415E-18 cm**2 = 2.60122E-01 a0**2
 # 1st transport cross section = 3.99396E-24 cm**2 = 1.42627E-07 a0**2
 # 2nd transport cross section = 1.16227E-23 cm**2 = 4.15053E-07 a0**2
 #
 #
 # Differential cross section:                       MU=(1-COS(THETA))/2
 #
 #  THETA        MU          DCS          DCS        Sherman      error
 #  (deg)                 (cm**2/sr)   (a0**2/sr)    function
 #----------------------------------------------------------------------
0.00000E+00 1.83843E-10
7.61557E-13 1.83669E-10
1.18994E-12 1.83571E-10
1.71346E-12 1.83452E-10
2.33225E-12 1.83312E-10
3.04617E-12 1.83150E-10
3.85530E-12 1.82966E-10
4.75964E-12 1.82762E-10
5.75917E-12 1.82537E-10
6.85391E-12 1.82290E-10
8.04379E-12 1.82023E-10
9.32893E-12 1.81735E-10
1.07092E-11 1.81427E-10
1.21847E-11 1.81098E-10
1.37554E-11 1.80749E-10
1.54213E-11 1.80380E-10
1.71823E-11 1.79992E-10
1.90386E-11 1.79584E-10
2.09900E-11 1.79156E-10
2.30367E-11 1.78710E-10
2.51785E-11 1.78244E-10
2.74156E-11 1.77760E-10
2.97478E-11 1.77258E-10
3.21752E-11 1.76738E-10
3.46979E-11 1.76200E-10
3.73157E-11 1.75644E-10
4.00286E-11 1.75072E-10
4.28368E-11 1.74482E-10
4.57402E-11 1.73876E-10
4.87388E-11 1.73253E-10
5.18325E-11 1.72615E-10
5.50215E-11 1.71960E-10
5.83057E-11 1.71291E-10
6.16850E-11 1.70607E-10
6.51595E-11 1.69907E-10
6.87293E-11 1.69194E-10
7.23943E-11 1.68467E-10
7.61544E-11 1.67726E-10
1.18991E-10 1.59648E-10
1.71347E-10 1.50663E-10
2.33223E-10 1.41023E-10
3.04617E-10 1.31133E-10
3.85531E-10 1.21334E-10
4.75965E-10 1.11771E-10
5.75917E-10 1.02613E-10
6.85389E-10 9.40608E-11
8.04380E-10 8.61667E-11
9.32891E-10 7.88969E-11
1.07092E-09 7.22594E-11
1.21847E-09 6.63067E-11
1.37554E-09 6.09442E-11
1.54213E-09 5.61071E-11
1.71823E-09 5.17558E-11
1.90386E-09 4.78851E-11
2.09900E-09 4.43978E-11
2.30367E-09 4.12520E-11
2.51785E-09 3.84143E-11
2.74156E-09 3.58596E-11
2.97478E-09 3.35365E-11
3.21752E-09 3.14208E-11
3.46978E-09 2.94907E-11
3.73156E-09 2.77224E-11
4.00286E-09 2.60965E-11
4.28368E-09 2.45989E-11
4.57402E-09 2.32140E-11
4.87388E-09 2.19280E-11
5.18326E-09 2.07342E-11
5.50215E-09 1.96243E-11
5.83057E-09 1.85859E-11
6.16850E-09 1.76141E-11
6.51596E-09 1.67058E-11
6.87293E-09 1.58558E-11
7.23942E-09 1.50541E-11
7.61544E-09 1.43009E-11
1.18991E-08 8.78942E-12
1.71347E-08 5.58430E-12
2.33223E-08 3.76794E-12
3.04617E-08 2.63162E-12
3.85531E-08 1.89046E-12
4.75965E-08 1.39754E-12
5.75917E-08 1.05620E-12
6.85389E-08 8.08898E-13
8.04380E-08 6.27672E-13
9.32891E-08 4.94152E-13
1.07092E-07 3.93960E-13
1.21847E-07 3.17157E-13
1.37554E-07 2.58284E-13
1.54213E-07 2.12704E-13
1.71823E-07 1.76970E-13
1.90386E-07 1.48527E-13
2.09900E-07 1.25775E-13
2.30367E-07 1.07380E-13
2.51785E-07 9.23502E-14
2.74156E-07 7.98989E-14
2.97478E-07 6.95445E-14
3.21752E-07 6.08668E-14
3.46978E-07 5.35341E-14
3.73156E-07 4.72401E-14
4.00286E-07 4.18558E-14
4.28368E-07 3.72257E-14
4.57402E-07 3.32137E-14
4.87388E-07 2.97197E-14
5.18325E-07 2.66737E-14
5.50215E-07 2.40068E-14
5.83057E-07 2.16545E-14
6.16850E-07 1.95765E-14
6.51596E-07 1.77391E-14
6.87293E-07 1.61092E-14
7.23942E-07 1.46547E-14
7.61543E-07 1.33583E-14
1.18991E-06 5.83384E-15
1.71347E-06 2.93540E-15
2.33223E-06 1.63812E-15
3.04617E-06 9.86151E-16
3.85531E-06 6.28901E-16
4.75964E-06 4.19670E-16
5.75916E-06 2.90531E-16
6.85388E-06 2.07363E-16
8.04378E-06 1.51875E-16
9.32888E-06 1.13723E-16
1.07092E-05 8.68167E-17
1.21846E-05 6.74093E-17
1.37553E-05 5.31306E-17
1.54212E-05 4.24391E-17
1.71822E-05 3.43066E-17
1.90385E-05 2.80216E-17
2.09899E-05 2.31310E-17
2.30365E-05 1.92609E-17
2.51783E-05 1.61649E-17
2.74153E-05 1.36648E-17
2.97475E-05 1.16290E-17
3.21749E-05 9.95878E-18
3.46974E-05 8.57873E-18
3.73152E-05 7.43063E-18
4.00281E-05 6.46910E-18
4.28362E-05 5.65858E-18
4.57395E-05 4.97120E-18
4.87380E-05 4.38497E-18
5.18317E-05 3.88248E-18
5.50205E-05 3.44981E-18
5.83045E-05 3.07573E-18
6.16838E-05 2.75105E-18
6.51582E-05 2.46819E-18
6.87277E-05 2.22086E-18
7.23925E-05 2.00382E-18
7.61524E-05 1.81304E-18
9.21439E-05 1.24276E-18
1.09658E-04 8.80085E-19
1.28695E-04 6.40664E-19
1.49255E-04 4.77378E-19
1.71338E-04 3.62996E-19
1.94942E-04 2.80917E-19
2.20070E-04 2.20794E-19
2.46720E-04 1.75942E-19
2.74892E-04 1.41928E-19
3.04586E-04 1.15760E-19
3.35803E-04 9.53595E-20
3.68542E-04 7.92668E-20
4.02802E-04 6.64343E-20
4.38585E-04 5.61001E-20
4.75889E-04 4.77026E-20
5.14715E-04 4.08216E-20
5.55063E-04 3.51400E-20
5.96931E-04 3.04152E-20
6.40321E-04 2.64600E-20
6.85233E-04 2.31287E-20
7.31665E-04 2.03067E-20
7.79618E-04 1.79033E-20
8.29092E-04 1.58460E-20
8.80086E-04 1.40767E-20
9.32601E-04 1.25483E-20
9.86636E-04 1.12223E-20
1.04219E-03 1.00675E-20
1.09927E-03 9.05795E-21
1.15786E-03 8.17221E-21
1.21797E-03 7.39249E-21
1.27961E-03 6.70390E-21
1.34276E-03 6.09394E-21
1.40743E-03 5.55205E-21
1.47362E-03 5.06929E-21
1.54133E-03 4.63808E-21
1.61056E-03 4.25195E-21
1.68131E-03 3.90534E-21
1.75357E-03 3.59348E-21
1.82735E-03 3.31226E-21
1.90265E-03 3.05815E-21
1.97947E-03 2.82806E-21
2.05780E-03 2.61930E-21
2.13765E-03 2.42954E-21
2.21902E-03 2.25674E-21
2.30190E-03 2.09911E-21
2.38630E-03 1.95508E-21
2.47222E-03 1.82325E-21
2.55965E-03 1.70240E-21
2.64859E-03 1.59145E-21
2.73905E-03 1.48944E-21
2.83103E-03 1.39552E-21
2.92452E-03 1.30893E-21
3.01952E-03 1.22899E-21
3.11604E-03 1.15509E-21
3.21407E-03 1.08670E-21
3.31362E-03 1.02333E-21
3.41468E-03 9.64528E-22
3.51725E-03 9.09921E-22
3.62133E-03 8.59147E-22
3.72692E-03 8.11886E-22
3.83403E-03 7.67850E-22
3.94265E-03 7.26779E-22
4.05278E-03 6.88435E-22
4.16442E-03 6.52603E-22
4.27757E-03 6.19085E-22
4.39223E-03 5.87707E-22
4.50840E-03 5.58305E-22
4.62608E-03 5.30731E-22
4.74527E-03 5.04848E-22
4.86597E-03 4.80535E-22
4.98817E-03 4.57679E-22
5.11188E-03 4.36175E-22
5.23711E-03 4.15926E-22
5.36383E-03 3.96847E-22
5.49207E-03 3.78859E-22
5.62181E-03 3.61885E-22
5.75306E-03 3.45856E-22
5.88581E-03 3.30711E-22
6.02007E-03 3.16394E-22
6.15583E-03 3.02848E-22
6.29310E-03 2.90023E-22
6.43187E-03 2.77875E-22
6.57214E-03 2.66363E-22
6.71392E-03 2.55443E-22
6.85720E-03 2.45081E-22
7.00198E-03 2.35244E-22
7.14827E-03 2.25899E-22
7.29605E-03 2.17016E-22
7.44534E-03 2.08569E-22
7.59612E-03 2.00532E-22
7.97965E-03 1.82081E-22
8.37255E-03 1.65718E-22
8.77480E-03 1.51165E-22
9.18641E-03 1.38185E-22
9.60736E-03 1.26579E-22
1.00376E-02 1.16173E-22
1.04773E-02 1.06822E-22
1.09262E-02 9.83999E-23
1.13844E-02 9.07967E-23
1.18520E-02 8.39185E-23
1.23288E-02 7.76835E-23
1.28150E-02 7.20205E-23
1.33104E-02 6.68674E-23
1.38150E-02 6.21698E-23
1.43290E-02 5.78793E-23
1.48521E-02 5.39547E-23
1.53845E-02 5.03590E-23
1.59262E-02 4.70594E-23
1.64770E-02 4.40270E-23
1.70371E-02 4.12361E-23
1.76063E-02 3.86638E-23
1.81848E-02 3.62899E-23
1.87724E-02 3.40961E-23
1.93692E-02 3.20663E-23
1.99751E-02 3.01858E-23
2.05901E-02 2.84415E-23
2.12143E-02 2.68219E-23
2.18476E-02 2.53161E-23
2.24900E-02 2.39148E-23
2.31415E-02 2.26093E-23
2.38021E-02 2.13919E-23
2.44717E-02 2.02554E-23
2.51504E-02 1.91934E-23
2.58382E-02 1.82001E-23
2.65349E-02 1.72703E-23
2.72407E-02 1.63991E-23
2.79555E-02 1.55821E-23
2.86793E-02 1.48153E-23
2.94120E-02 1.40950E-23
3.01537E-02 1.34178E-23
3.09043E-02 1.27808E-23
3.16639E-02 1.21810E-23
3.24324E-02 1.16158E-23
3.32098E-02 1.10830E-23
3.39961E-02 1.05802E-23
3.47912E-02 1.01054E-23
3.55952E-02 9.65687E-24
3.64081E-02 9.23279E-24
3.72297E-02 8.83158E-24
3.80602E-02 8.45179E-24
3.88995E-02 8.09204E-24
3.97476E-02 7.75108E-24
4.06044E-02 7.42773E-24
4.14700E-02 7.12093E-24
4.23443E-02 6.82965E-24
4.32273E-02 6.55296E-24
4.41190E-02 6.28999E-24
4.50194E-02 6.03993E-24
4.59284E-02 5.80203E-24
4.68461E-02 5.57558E-24
4.87074E-02 5.15447E-24
5.06030E-02 4.77183E-24
5.25328E-02 4.42353E-24
5.44967E-02 4.10594E-24
5.64946E-02 3.81586E-24
5.85262E-02 3.55048E-24
6.05914E-02 3.30732E-24
6.26901E-02 3.08420E-24
6.48222E-02 2.87916E-24
6.69873E-02 2.69048E-24
6.91854E-02 2.51663E-24
7.14163E-02 2.35623E-24
7.36799E-02 2.20806E-24
7.59760E-02 2.07101E-24
7.83043E-02 1.94412E-24
8.06647E-02 1.82649E-24
8.30571E-02 1.71733E-24
8.54812E-02 1.61593E-24
8.79369E-02 1.52163E-24
9.04240E-02 1.43386E-24
9.29422E-02 1.35208E-24
9.54915E-02 1.27582E-24
9.80716E-02 1.20464E-24
1.00682E-01 1.13814E-24
1.03323E-01 1.07596E-24
1.05995E-01 1.01778E-24
1.08696E-01 9.63293E-25
1.11427E-01 9.12226E-25
1.14188E-01 8.64330E-25
1.16978E-01 8.19376E-25
1.19797E-01 7.77151E-25
1.22645E-01 7.37465E-25
1.25522E-01 7.00138E-25
1.28428E-01 6.65009E-25
1.31361E-01 6.31926E-25
1.34323E-01 6.00752E-25
1.37313E-01 5.71359E-25
1.40330E-01 5.43629E-25
1.43375E-01 5.17453E-25
1.46447E-01 4.92730E-25
1.49545E-01 4.69367E-25
1.52671E-01 4.47278E-25
1.55823E-01 4.26383E-25
1.59001E-01 4.06607E-25
1.62205E-01 3.87881E-25
1.65435E-01 3.70141E-25
1.68690E-01 3.53327E-25
1.71970E-01 3.37385E-25
1.75276E-01 3.22261E-25
1.78606E-01 3.07908E-25
1.81961E-01 2.94281E-25
1.85340E-01 2.81338E-25
1.88743E-01 2.69040E-25
1.92169E-01 2.57349E-25
1.95619E-01 2.46233E-25
1.99092E-01 2.35657E-25
2.02589E-01 2.25594E-25
2.06107E-01 2.16013E-25
2.09649E-01 2.06890E-25
2.13212E-01 1.98199E-25
2.16797E-01 1.89917E-25
2.20404E-01 1.82023E-25
2.24032E-01 1.74495E-25
2.27680E-01 1.67314E-25
2.31350E-01 1.60463E-25
2.35040E-01 1.53925E-25
2.38751E-01 1.47682E-25
2.42481E-01 1.41721E-25
2.46231E-01 1.36027E-25
2.50000E-01 1.30586E-25
2.53788E-01 1.25386E-25
2.57595E-01 1.20414E-25
2.61421E-01 1.15661E-25
2.65264E-01 1.11114E-25
2.69126E-01 1.06764E-25
2.73005E-01 1.02602E-25
2.76901E-01 9.86176E-26
2.80814E-01 9.48032E-26
2.84744E-01 9.11506E-26
2.88691E-01 8.76521E-26
2.92653E-01 8.43006E-26
2.96632E-01 8.10891E-26
3.00625E-01 7.80111E-26
3.04634E-01 7.50605E-26
3.08658E-01 7.22316E-26
3.12697E-01 6.95186E-26
3.16749E-01 6.69165E-26
3.20816E-01 6.44201E-26
3.24896E-01 6.20247E-26
3.28990E-01 5.97259E-26
3.33097E-01 5.75194E-26
3.37216E-01 5.54010E-26
3.41348E-01 5.33670E-26
3.45492E-01 5.14136E-26
3.49647E-01 4.95373E-26
3.53814E-01 4.77348E-26
3.57992E-01 4.60030E-26
3.62181E-01 4.43387E-26
3.66381E-01 4.27392E-26
3.70590E-01 4.12016E-26
3.74810E-01 3.97233E-26
3.79039E-01 3.83020E-26
3.83277E-01 3.69351E-26
3.87524E-01 3.56204E-26
3.91780E-01 3.43557E-26
3.96044E-01 3.31391E-26
4.00316E-01 3.19684E-26
4.04596E-01 3.08418E-26
4.08882E-01 2.97576E-26
4.13176E-01 2.87139E-26
4.17476E-01 2.77092E-26
4.21783E-01 2.67419E-26
4.26095E-01 2.58105E-26
4.30413E-01 2.49135E-26
4.34737E-01 2.40496E-26
4.39065E-01 2.32175E-26
4.43398E-01 2.24158E-26
4.47736E-01 2.16435E-26
4.52077E-01 2.08993E-26
4.56422E-01 2.01822E-26
4.60770E-01 1.94911E-26
4.65122E-01 1.88249E-26
4.69476E-01 1.81828E-26
4.73832E-01 1.75638E-26
4.78190E-01 1.69669E-26
4.82550E-01 1.63915E-26
4.86912E-01 1.58365E-26
4.91274E-01 1.53013E-26
4.95637E-01 1.47851E-26
5.00000E-01 1.42872E-26
5.04363E-01 1.38069E-26
5.08726E-01 1.33436E-26
5.13088E-01 1.28965E-26
5.17450E-01 1.24651E-26
5.21810E-01 1.20488E-26
5.26168E-01 1.16471E-26
5.30524E-01 1.12593E-26
5.34878E-01 1.08851E-26
5.39230E-01 1.05238E-26
5.43578E-01 1.01750E-26
5.47923E-01 9.83833E-27
5.52264E-01 9.51322E-27
5.56602E-01 9.19930E-27
5.60935E-01 8.89616E-27
5.65263E-01 8.60340E-27
5.69587E-01 8.32065E-27
5.73905E-01 8.04755E-27
5.78217E-01 7.78375E-27
5.82524E-01 7.52892E-27
5.86824E-01 7.28273E-27
5.91118E-01 7.04487E-27
5.95404E-01 6.81505E-27
5.99684E-01 6.59299E-27
6.03956E-01 6.37840E-27
6.08220E-01 6.17102E-27
6.12476E-01 5.97059E-27
6.16723E-01 5.77688E-27
6.20961E-01 5.58963E-27
6.25190E-01 5.40864E-27
6.29410E-01 5.23366E-27
6.33619E-01 5.06451E-27
6.37819E-01 4.90096E-27
6.42008E-01 4.74284E-27
6.46186E-01 4.58994E-27
6.50353E-01 4.44208E-27
6.54508E-01 4.29910E-27
6.58652E-01 4.16082E-27
6.62784E-01 4.02708E-27
6.66903E-01 3.89772E-27
6.71010E-01 3.77260E-27
6.75104E-01 3.65156E-27
6.79184E-01 3.53447E-27
6.83251E-01 3.42120E-27
6.87303E-01 3.31160E-27
6.91342E-01 3.20556E-27
6.95366E-01 3.10296E-27
6.99375E-01 3.00368E-27
7.03368E-01 2.90760E-27
7.07347E-01 2.81462E-27
7.11309E-01 2.72463E-27
7.15256E-01 2.63754E-27
7.19186E-01 2.55324E-27
7.23099E-01 2.47164E-27
7.26995E-01 2.39265E-27
7.30874E-01 2.31618E-27
7.34736E-01 2.24215E-27
7.38579E-01 2.17048E-27
7.42405E-01 2.10109E-27
7.46212E-01 2.03390E-27
7.50000E-01 1.96883E-27
7.53769E-01 1.90583E-27
7.57519E-01 1.84481E-27
7.61249E-01 1.78572E-27
7.64960E-01 1.72850E-27
7.68650E-01 1.67307E-27
7.72320E-01 1.61938E-27
7.75968E-01 1.56737E-27
7.79596E-01 1.51699E-27
7.83203E-01 1.46819E-27
7.86788E-01 1.42091E-27
7.90351E-01 1.37511E-27
7.93893E-01 1.33073E-27
7.97411E-01 1.28772E-27
8.00908E-01 1.24606E-27
8.04381E-01 1.20568E-27
8.07831E-01 1.16655E-27
8.11257E-01 1.12864E-27
8.14660E-01 1.09189E-27
8.18039E-01 1.05628E-27
8.21394E-01 1.02176E-27
8.24724E-01 9.88299E-28
8.28030E-01 9.55868E-28
8.31310E-01 9.24431E-28
8.34565E-01 8.93957E-28
8.37795E-01 8.64415E-28
8.40999E-01 8.35774E-28
8.44177E-01 8.08008E-28
8.47329E-01 7.81088E-28
8.50455E-01 7.54987E-28
8.53553E-01 7.29679E-28
8.56625E-01 7.05140E-28
8.59670E-01 6.81346E-28
8.62687E-01 6.58273E-28
8.65677E-01 6.35898E-28
8.68639E-01 6.14201E-28
8.71572E-01 5.93159E-28
8.74478E-01 5.72753E-28
8.77355E-01 5.52963E-28
8.80203E-01 5.33770E-28
8.83022E-01 5.15156E-28
8.85812E-01 4.97103E-28
8.88573E-01 4.79593E-28
8.91304E-01 4.62611E-28
8.94005E-01 4.46140E-28
8.96677E-01 4.30164E-28
8.99318E-01 4.14669E-28
9.01928E-01 3.99641E-28
9.04508E-01 3.85065E-28
9.07058E-01 3.70927E-28
9.09576E-01 3.57216E-28
9.12063E-01 3.43917E-28
9.14519E-01 3.31019E-28
9.16943E-01 3.18511E-28
9.19335E-01 3.06380E-28
9.21696E-01 2.94616E-28
9.24024E-01 2.83208E-28
9.26320E-01 2.72145E-28
9.28584E-01 2.61419E-28
9.30815E-01 2.51018E-28
9.33013E-01 2.40935E-28
9.35178E-01 2.31159E-28
9.37310E-01 2.21683E-28
9.39409E-01 2.12498E-28
9.41474E-01 2.03596E-28
9.43505E-01 1.94968E-28
9.45503E-01 1.86609E-28
9.47467E-01 1.78509E-28
9.49397E-01 1.70662E-28
9.51293E-01 1.63062E-28
9.53154E-01 1.55702E-28
9.54981E-01 1.48576E-28
9.56773E-01 1.41676E-28
9.58530E-01 1.34999E-28
9.60252E-01 1.28537E-28
9.61940E-01 1.22285E-28
9.63592E-01 1.16239E-28
9.65209E-01 1.10392E-28
9.66790E-01 1.04741E-28
9.68336E-01 9.92794E-29
9.69846E-01 9.40040E-29
9.71321E-01 8.89099E-29
9.72759E-01 8.39931E-29
9.74162E-01 7.92493E-29
9.75528E-01 7.46746E-29
9.76858E-01 7.02654E-29
9.78152E-01 6.60180E-29
9.79410E-01 6.19288E-29
9.80631E-01 5.79947E-29
9.81815E-01 5.42123E-29
9.82963E-01 5.05786E-29
9.84074E-01 4.70906E-29
9.85148E-01 4.37457E-29
9.86185E-01 4.05409E-29
9.87185E-01 3.74739E-29
9.88148E-01 3.45421E-29
9.89074E-01 3.17431E-29
9.89962E-01 2.90748E-29
9.90814E-01 2.65350E-29
9.91627E-01 2.41217E-29
9.92404E-01 2.18330E-29
9.93143E-01 1.96671E-29
9.93844E-01 1.76223E-29
9.94508E-01 1.56969E-29
9.95134E-01 1.38894E-29
9.95722E-01 1.21984E-29
9.96273E-01 1.06227E-29
9.96786E-01 9.16084E-30
9.97261E-01 7.81184E-30
9.97698E-01 6.57459E-30
9.98097E-01 5.44812E-30
9.98459E-01 4.43157E-30
9.98782E-01 3.52413E-30
9.99067E-01 2.72510E-30
9.99315E-01 2.03386E-30
9.99524E-01 1.44987E-30
9.99695E-01 9.72677E-31
9.99829E-01 6.01911E-31
9.99924E-01 3.37284E-31
9.99981E-01 1.78589E-31
1.00000E+00 1.25706E-31
