 #
 # Subroutine ELSEPA. Elastic scattering of electrons and positrons
 #                    by neutral atoms and positive ions
 #
 # Projectile: electron
 # Kinetic energy = 1.75000E+07 eV = 6.43113E+05 a.u.
 #
 # WARNING: High-energy factorization with free-atom DF screening.
 #          Absorption, polarization and exchange corrections are
 #          switched off.
 #          Phase shifts are calculated for the bare nucleus.
 #          Scattering amplitudes are not evaluated.
 #
 # Element: Ce,  Z =  58,  atomic weight = 1.40116E+02 g/mol
 #
 # Nuclear model: Fermi distribution
 #                Average radius = 5.55750E-13 cm
 #                Skin thickness = 5.46000E-14 cm
 #
 # Number of electrons = 58
 #
 # Total elastic cross section = 7.29340E-18 cm**2 = 2.60452E-01 a0**2
 # 1st transport cross section = 1.93563E-23 cm**2 = 6.91226E-07 a0**2
 # 2nd transport cross section = 5.48777E-23 cm**2 = 1.95972E-06 a0**2
 #
 #
 # Differential cross section:                       MU=(1-COS(THETA))/2
 #
 #  THETA        MU          DCS          DCS        Sherman      error
 #  (deg)                 (cm**2/sr)   (a0**2/sr)    function
 #----------------------------------------------------------------------
0.00000E+00 3.63393E-11
7.61557E-13 3.63325E-11
1.18994E-12 3.63287E-11
1.71346E-12 3.63240E-11
2.33225E-12 3.63185E-11
3.04617E-12 3.63121E-11
3.85530E-12 3.63049E-11
4.75964E-12 3.62969E-11
5.75917E-12 3.62880E-11
6.85391E-12 3.62783E-11
8.04379E-12 3.62677E-11
9.32893E-12 3.62563E-11
1.07092E-11 3.62441E-11
1.21847E-11 3.62310E-11
1.37554E-11 3.62171E-11
1.54213E-11 3.62023E-11
1.71823E-11 3.61868E-11
1.90386E-11 3.61704E-11
2.09900E-11 3.61531E-11
2.30367E-11 3.61351E-11
2.51785E-11 3.61162E-11
2.74156E-11 3.60965E-11
2.97478E-11 3.60759E-11
3.21752E-11 3.60546E-11
3.46979E-11 3.60324E-11
3.73157E-11 3.60095E-11
4.00286E-11 3.59857E-11
4.28368E-11 3.59611E-11
4.57402E-11 3.59357E-11
4.87388E-11 3.59095E-11
5.18325E-11 3.58825E-11
5.50215E-11 3.58547E-11
5.83057E-11 3.58262E-11
6.16850E-11 3.57968E-11
6.51595E-11 3.57666E-11
6.87293E-11 3.57357E-11
7.23943E-11 3.57040E-11
7.61544E-11 3.56715E-11
1.18991E-10 3.53047E-11
1.71347E-10 3.48645E-11
2.33223E-10 3.43558E-11
3.04617E-10 3.37836E-11
3.85531E-10 3.31537E-11
4.75965E-10 3.24721E-11
5.75917E-10 3.17451E-11
6.85389E-10 3.09793E-11
8.04380E-10 3.01883E-11
9.32891E-10 2.93659E-11
1.07092E-09 2.85148E-11
1.21847E-09 2.76623E-11
1.37554E-09 2.67984E-11
1.54213E-09 2.59206E-11
1.71823E-09 2.50576E-11
1.90386E-09 2.41989E-11
2.09900E-09 2.33383E-11
2.30367E-09 2.25034E-11
2.51785E-09 2.16847E-11
2.74156E-09 2.08729E-11
2.97478E-09 2.00925E-11
3.21752E-09 1.93364E-11
3.46978E-09 1.85927E-11
3.73156E-09 1.78821E-11
4.00286E-09 1.72004E-11
4.28368E-09 1.65339E-11
4.57402E-09 1.58994E-11
4.87388E-09 1.52953E-11
5.18326E-09 1.47074E-11
5.50215E-09 1.41486E-11
5.83057E-09 1.36196E-11
6.16850E-09 1.31067E-11
6.51596E-09 1.26191E-11
6.87293E-09 1.21593E-11
7.23942E-09 1.17146E-11
7.61544E-09 1.12914E-11
1.18991E-08 8.02542E-12
1.71347E-08 5.95300E-12
2.33223E-08 4.55977E-12
3.04617E-08 3.56568E-12
3.85531E-08 2.82695E-12
4.75965E-08 2.26454E-12
5.75917E-08 1.83009E-12
6.85389E-08 1.49150E-12
8.04380E-08 1.21585E-12
9.32891E-08 1.00681E-12
1.07092E-07 8.48069E-13
1.21847E-07 7.13385E-13
1.37554E-07 6.05348E-13
1.54213E-07 5.20248E-13
1.71823E-07 4.47299E-13
1.90386E-07 3.86929E-13
2.09900E-07 3.37975E-13
2.30367E-07 2.95302E-13
2.51785E-07 2.59018E-13
2.74156E-07 2.28926E-13
2.97478E-07 2.02399E-13
3.21752E-07 1.79367E-13
3.46978E-07 1.59925E-13
3.73156E-07 1.42702E-13
4.00286E-07 1.27534E-13
4.28368E-07 1.14542E-13
4.57402E-07 1.03011E-13
4.87388E-07 9.27623E-14
5.18325E-07 8.38744E-14
5.50215E-07 7.59727E-14
5.83057E-07 6.89052E-14
6.16850E-07 6.27095E-14
6.51596E-07 5.71850E-14
6.87293E-07 5.22190E-14
7.23942E-07 4.78236E-14
7.61543E-07 4.38873E-14
1.18991E-06 2.05195E-14
1.71347E-06 1.10427E-14
2.33223E-06 6.48841E-15
3.04617E-06 4.04891E-15
3.85531E-06 2.64263E-15
4.75964E-06 1.79145E-15
5.75916E-06 1.25574E-15
6.85388E-06 9.05754E-16
8.04378E-06 6.69616E-16
9.32888E-06 5.06231E-16
1.07092E-05 3.90024E-16
1.21846E-05 3.05474E-16
1.37553E-05 2.42713E-16
1.54212E-05 1.95258E-16
1.71822E-05 1.58885E-16
1.90385E-05 1.30563E-16
2.09899E-05 1.08366E-16
2.30365E-05 9.06790E-17
2.51783E-05 7.64262E-17
2.74153E-05 6.48478E-17
2.97475E-05 5.53727E-17
3.21749E-05 4.75634E-17
3.46974E-05 4.10835E-17
3.73152E-05 3.56711E-17
4.00281E-05 3.11198E-17
4.28362E-05 2.72721E-17
4.57395E-05 2.40004E-17
4.87380E-05 2.12034E-17
5.18317E-05 1.88006E-17
5.50205E-05 1.67269E-17
5.83045E-05 1.49306E-17
6.16838E-05 1.33692E-17
6.51582E-05 1.20070E-17
6.87277E-05 1.08143E-17
7.23925E-05 9.76641E-18
7.61524E-05 8.84272E-18
9.21439E-05 6.07973E-18
1.09658E-04 4.31675E-18
1.28695E-04 3.14981E-18
1.49255E-04 2.35210E-18
1.71338E-04 1.79206E-18
1.94942E-04 1.38938E-18
2.20070E-04 1.09386E-18
2.46720E-04 8.72993E-19
2.74892E-04 7.05214E-19
3.04586E-04 5.75932E-19
3.35803E-04 4.74991E-19
3.68542E-04 3.95253E-19
4.02802E-04 3.31586E-19
4.38585E-04 2.80252E-19
4.75889E-04 2.38492E-19
5.14715E-04 2.04237E-19
5.55063E-04 1.75926E-19
5.96931E-04 1.52362E-19
6.40321E-04 1.32620E-19
6.85233E-04 1.15979E-19
7.31665E-04 1.01873E-19
7.79618E-04 8.98519E-20
8.29092E-04 7.95555E-20
8.80086E-04 7.06959E-20
9.32601E-04 6.30387E-20
9.86636E-04 5.63926E-20
1.04219E-03 5.06020E-20
1.09927E-03 4.55378E-20
1.15786E-03 4.10930E-20
1.21797E-03 3.71791E-20
1.27961E-03 3.37216E-20
1.34276E-03 3.06579E-20
1.40743E-03 2.79355E-20
1.47362E-03 2.55097E-20
1.54133E-03 2.33424E-20
1.61056E-03 2.14012E-20
1.68131E-03 1.96584E-20
1.75357E-03 1.80901E-20
1.82735E-03 1.66758E-20
1.90265E-03 1.53975E-20
1.97947E-03 1.42399E-20
2.05780E-03 1.31896E-20
2.13765E-03 1.22347E-20
2.21902E-03 1.13651E-20
2.30190E-03 1.05717E-20
2.38630E-03 9.84674E-21
2.47222E-03 9.18314E-21
2.55965E-03 8.57479E-21
2.64859E-03 8.01625E-21
2.73905E-03 7.50270E-21
2.83103E-03 7.02983E-21
2.92452E-03 6.59385E-21
3.01952E-03 6.19133E-21
3.11604E-03 5.81924E-21
3.21407E-03 5.47485E-21
3.31362E-03 5.15572E-21
3.41468E-03 4.85964E-21
3.51725E-03 4.58465E-21
3.62133E-03 4.32896E-21
3.72692E-03 4.09096E-21
3.83403E-03 3.86920E-21
3.94265E-03 3.66237E-21
4.05278E-03 3.46927E-21
4.16442E-03 3.28882E-21
4.27757E-03 3.12004E-21
4.39223E-03 2.96202E-21
4.50840E-03 2.81395E-21
4.62608E-03 2.67508E-21
4.74527E-03 2.54475E-21
4.86597E-03 2.42231E-21
4.98817E-03 2.30721E-21
5.11188E-03 2.19892E-21
5.23711E-03 2.09696E-21
5.36383E-03 2.00089E-21
5.49207E-03 1.91030E-21
5.62181E-03 1.82483E-21
5.75306E-03 1.74412E-21
5.88581E-03 1.66786E-21
6.02007E-03 1.59576E-21
6.15583E-03 1.52755E-21
6.29310E-03 1.46298E-21
6.43187E-03 1.40182E-21
6.57214E-03 1.34384E-21
6.71392E-03 1.28887E-21
6.85720E-03 1.23670E-21
7.00198E-03 1.18717E-21
7.14827E-03 1.14011E-21
7.29605E-03 1.09539E-21
7.44534E-03 1.05286E-21
7.59612E-03 1.01240E-21
7.97965E-03 9.19499E-22
8.37255E-03 8.37119E-22
8.77480E-03 7.63849E-22
9.18641E-03 6.98501E-22
9.60736E-03 6.40065E-22
1.00376E-02 5.87678E-22
1.04773E-02 5.40599E-22
1.09262E-02 4.98191E-22
1.13844E-02 4.59907E-22
1.18520E-02 4.25273E-22
1.23288E-02 3.93875E-22
1.28150E-02 3.65356E-22
1.33104E-02 3.39402E-22
1.38150E-02 3.15741E-22
1.43290E-02 2.94131E-22
1.48521E-02 2.74361E-22
1.53845E-02 2.56245E-22
1.59262E-02 2.39620E-22
1.64770E-02 2.24339E-22
1.70371E-02 2.10272E-22
1.76063E-02 1.97305E-22
1.81848E-02 1.85336E-22
1.87724E-02 1.74273E-22
1.93692E-02 1.64035E-22
1.99751E-02 1.54547E-22
2.05901E-02 1.45746E-22
2.12143E-02 1.37571E-22
2.18476E-02 1.29969E-22
2.24900E-02 1.22892E-22
2.31415E-02 1.16298E-22
2.38021E-02 1.10146E-22
2.44717E-02 1.04402E-22
2.51504E-02 9.90323E-23
2.58382E-02 9.40089E-23
2.65349E-02 8.93044E-23
2.72407E-02 8.48948E-23
2.79555E-02 8.07583E-23
2.86793E-02 7.68744E-23
2.94120E-02 7.32243E-23
3.01537E-02 6.97917E-23
3.09043E-02 6.65612E-23
3.16639E-02 6.35178E-23
3.24324E-02 6.06490E-23
3.32098E-02 5.79431E-23
3.39961E-02 5.53883E-23
3.47912E-02 5.29749E-23
3.55952E-02 5.06937E-23
3.64081E-02 4.85357E-23
3.72297E-02 4.64929E-23
3.80602E-02 4.45581E-23
3.88995E-02 4.27244E-23
3.97476E-02 4.09855E-23
4.06044E-02 3.93354E-23
4.14700E-02 3.77687E-23
4.23443E-02 3.62804E-23
4.32273E-02 3.48657E-23
4.41190E-02 3.35203E-23
4.50194E-02 3.22401E-23
4.59284E-02 3.10213E-23
4.68461E-02 2.98604E-23
4.87074E-02 2.76991E-23
5.06030E-02 2.57324E-23
5.25328E-02 2.39394E-23
5.44967E-02 2.23019E-23
5.64946E-02 2.08037E-23
5.85262E-02 1.94308E-23
6.05914E-02 1.81706E-23
6.26901E-02 1.70121E-23
6.48222E-02 1.59455E-23
6.69873E-02 1.49621E-23
6.91854E-02 1.40541E-23
7.14163E-02 1.32146E-23
7.36799E-02 1.24374E-23
7.59760E-02 1.17170E-23
7.83043E-02 1.10484E-23
8.06647E-02 1.04273E-23
8.30571E-02 9.84953E-24
8.54812E-02 9.31151E-24
8.79369E-02 8.80996E-24
9.04240E-02 8.34193E-24
9.29422E-02 7.90474E-24
9.54915E-02 7.49595E-24
9.80716E-02 7.11336E-24
1.00682E-01 6.75495E-24
1.03323E-01 6.41890E-24
1.05995E-01 6.10354E-24
1.08696E-01 5.80733E-24
1.11427E-01 5.52890E-24
1.14188E-01 5.26696E-24
1.16978E-01 5.02034E-24
1.19797E-01 4.78797E-24
1.22645E-01 4.56886E-24
1.25522E-01 4.36211E-24
1.28428E-01 4.16689E-24
1.31361E-01 3.98242E-24
1.34323E-01 3.80799E-24
1.37313E-01 3.64295E-24
1.40330E-01 3.48670E-24
1.43375E-01 3.33868E-24
1.46447E-01 3.19836E-24
1.49545E-01 3.06527E-24
1.52671E-01 2.93896E-24
1.55823E-01 2.81902E-24
1.59001E-01 2.70506E-24
1.62205E-01 2.59674E-24
1.65435E-01 2.49371E-24
1.68690E-01 2.39566E-24
1.71970E-01 2.30231E-24
1.75276E-01 2.21339E-24
1.78606E-01 2.12865E-24
1.81961E-01 2.04786E-24
1.85340E-01 1.97078E-24
1.88743E-01 1.89723E-24
1.92169E-01 1.82700E-24
1.95619E-01 1.75993E-24
1.99092E-01 1.69583E-24
2.02589E-01 1.63455E-24
2.06107E-01 1.57595E-24
2.09649E-01 1.51988E-24
2.13212E-01 1.46622E-24
2.16797E-01 1.41483E-24
2.20404E-01 1.36562E-24
2.24032E-01 1.31846E-24
2.27680E-01 1.27325E-24
2.31350E-01 1.22990E-24
2.35040E-01 1.18832E-24
2.38751E-01 1.14843E-24
2.42481E-01 1.11013E-24
2.46231E-01 1.07336E-24
2.50000E-01 1.03804E-24
2.53788E-01 1.00411E-24
2.57595E-01 9.71492E-25
2.61421E-01 9.40137E-25
2.65264E-01 9.09983E-25
2.69126E-01 8.80976E-25
2.73005E-01 8.53064E-25
2.76901E-01 8.26199E-25
2.80814E-01 8.00334E-25
2.84744E-01 7.75424E-25
2.88691E-01 7.51428E-25
2.92653E-01 7.28307E-25
2.96632E-01 7.06022E-25
3.00625E-01 6.84538E-25
3.04634E-01 6.63821E-25
3.08658E-01 6.43839E-25
3.12697E-01 6.24560E-25
3.16749E-01 6.05956E-25
3.20816E-01 5.87999E-25
3.24896E-01 5.70662E-25
3.28990E-01 5.53921E-25
3.33097E-01 5.37750E-25
3.37216E-01 5.22127E-25
3.41348E-01 5.07031E-25
3.45492E-01 4.92439E-25
3.49647E-01 4.78334E-25
3.53814E-01 4.64695E-25
3.57992E-01 4.51504E-25
3.62181E-01 4.38744E-25
3.66381E-01 4.26399E-25
3.70590E-01 4.14453E-25
3.74810E-01 4.02891E-25
3.79039E-01 3.91697E-25
3.83277E-01 3.80859E-25
3.87524E-01 3.70364E-25
3.91780E-01 3.60198E-25
3.96044E-01 3.50350E-25
4.00316E-01 3.40807E-25
4.04596E-01 3.31559E-25
4.08882E-01 3.22596E-25
4.13176E-01 3.13906E-25
4.17476E-01 3.05481E-25
4.21783E-01 2.97311E-25
4.26095E-01 2.89387E-25
4.30413E-01 2.81699E-25
4.34737E-01 2.74241E-25
4.39065E-01 2.67004E-25
4.43398E-01 2.59981E-25
4.47736E-01 2.53164E-25
4.52077E-01 2.46545E-25
4.56422E-01 2.40120E-25
4.60770E-01 2.33880E-25
4.65122E-01 2.27819E-25
4.69476E-01 2.21933E-25
4.73832E-01 2.16214E-25
4.78190E-01 2.10658E-25
4.82550E-01 2.05259E-25
4.86912E-01 2.00012E-25
4.91274E-01 1.94912E-25
4.95637E-01 1.89954E-25
5.00000E-01 1.85133E-25
5.04363E-01 1.80446E-25
5.08726E-01 1.75888E-25
5.13088E-01 1.71455E-25
5.17450E-01 1.67143E-25
5.21810E-01 1.62948E-25
5.26168E-01 1.58867E-25
5.30524E-01 1.54895E-25
5.34878E-01 1.51031E-25
5.39230E-01 1.47269E-25
5.43578E-01 1.43608E-25
5.47923E-01 1.40044E-25
5.52264E-01 1.36574E-25
5.56602E-01 1.33195E-25
5.60935E-01 1.29905E-25
5.65263E-01 1.26701E-25
5.69587E-01 1.23580E-25
5.73905E-01 1.20540E-25
5.78217E-01 1.17579E-25
5.82524E-01 1.14693E-25
5.86824E-01 1.11882E-25
5.91118E-01 1.09142E-25
5.95404E-01 1.06473E-25
5.99684E-01 1.03871E-25
6.03956E-01 1.01334E-25
6.08220E-01 9.88619E-26
6.12476E-01 9.64515E-26
6.16723E-01 9.41014E-26
6.20961E-01 9.18099E-26
6.25190E-01 8.95753E-26
6.29410E-01 8.73961E-26
6.33619E-01 8.52707E-26
6.37819E-01 8.31975E-26
6.42008E-01 8.11752E-26
6.46186E-01 7.92024E-26
6.50353E-01 7.72777E-26
6.54508E-01 7.53997E-26
6.58652E-01 7.35673E-26
6.62784E-01 7.17791E-26
6.66903E-01 7.00339E-26
6.71010E-01 6.83307E-26
6.75104E-01 6.66683E-26
6.79184E-01 6.50456E-26
6.83251E-01 6.34615E-26
6.87303E-01 6.19150E-26
6.91342E-01 6.04052E-26
6.95366E-01 5.89310E-26
6.99375E-01 5.74915E-26
7.03368E-01 5.60859E-26
7.07347E-01 5.47132E-26
7.11309E-01 5.33726E-26
7.15256E-01 5.20633E-26
7.19186E-01 5.07845E-26
7.23099E-01 4.95353E-26
7.26995E-01 4.83150E-26
7.30874E-01 4.71230E-26
7.34736E-01 4.59584E-26
7.38579E-01 4.48206E-26
7.42405E-01 4.37089E-26
7.46212E-01 4.26227E-26
7.50000E-01 4.15613E-26
7.53769E-01 4.05241E-26
7.57519E-01 3.95106E-26
7.61249E-01 3.85200E-26
7.64960E-01 3.75520E-26
7.68650E-01 3.66058E-26
7.72320E-01 3.56811E-26
7.75968E-01 3.47772E-26
7.79596E-01 3.38937E-26
7.83203E-01 3.30300E-26
7.86788E-01 3.21858E-26
7.90351E-01 3.13605E-26
7.93893E-01 3.05537E-26
7.97411E-01 2.97649E-26
8.00908E-01 2.89938E-26
8.04381E-01 2.82398E-26
8.07831E-01 2.75027E-26
8.11257E-01 2.67820E-26
8.14660E-01 2.60773E-26
8.18039E-01 2.53883E-26
8.21394E-01 2.47146E-26
8.24724E-01 2.40559E-26
8.28030E-01 2.34118E-26
8.31310E-01 2.27819E-26
8.34565E-01 2.21661E-26
8.37795E-01 2.15638E-26
8.40999E-01 2.09749E-26
8.44177E-01 2.03991E-26
8.47329E-01 1.98360E-26
8.50455E-01 1.92854E-26
8.53553E-01 1.87470E-26
8.56625E-01 1.82205E-26
8.59670E-01 1.77057E-26
8.62687E-01 1.72023E-26
8.65677E-01 1.67101E-26
8.68639E-01 1.62288E-26
8.71572E-01 1.57582E-26
8.74478E-01 1.52981E-26
8.77355E-01 1.48482E-26
8.80203E-01 1.44084E-26
8.83022E-01 1.39784E-26
8.85812E-01 1.35580E-26
8.88573E-01 1.31471E-26
8.91304E-01 1.27454E-26
8.94005E-01 1.23527E-26
8.96677E-01 1.19689E-26
8.99318E-01 1.15938E-26
9.01928E-01 1.12271E-26
9.04508E-01 1.08689E-26
9.07058E-01 1.05187E-26
9.09576E-01 1.01766E-26
9.12063E-01 9.84241E-27
9.14519E-01 9.51587E-27
9.16943E-01 9.19689E-27
9.19335E-01 8.88532E-27
9.21696E-01 8.58103E-27
9.24024E-01 8.28387E-27
9.26320E-01 7.99371E-27
9.28584E-01 7.71043E-27
9.30815E-01 7.43390E-27
9.33013E-01 7.16400E-27
9.35178E-01 6.90060E-27
9.37310E-01 6.64359E-27
9.39409E-01 6.39287E-27
9.41474E-01 6.14831E-27
9.43505E-01 5.90982E-27
9.45503E-01 5.67728E-27
9.47467E-01 5.45061E-27
9.49397E-01 5.22970E-27
9.51293E-01 5.01445E-27
9.53154E-01 4.80477E-27
9.54981E-01 4.60058E-27
9.56773E-01 4.40179E-27
9.58530E-01 4.20831E-27
9.60252E-01 4.02006E-27
9.61940E-01 3.83696E-27
9.63592E-01 3.65893E-27
9.65209E-01 3.48591E-27
9.66790E-01 3.31780E-27
9.68336E-01 3.15455E-27
9.69846E-01 2.99609E-27
9.71321E-01 2.84235E-27
9.72759E-01 2.69326E-27
9.74162E-01 2.54877E-27
9.75528E-01 2.40882E-27
9.76858E-01 2.27334E-27
9.78152E-01 2.14228E-27
9.79410E-01 2.01559E-27
9.80631E-01 1.89321E-27
9.81815E-01 1.77509E-27
9.82963E-01 1.66119E-27
9.84074E-01 1.55147E-27
9.85148E-01 1.44586E-27
9.86185E-01 1.34434E-27
9.87185E-01 1.24685E-27
9.88148E-01 1.15337E-27
9.89074E-01 1.06385E-27
9.89962E-01 9.78252E-28
9.90814E-01 8.96548E-28
9.91627E-01 8.18701E-28
9.92404E-01 7.44682E-28
9.93143E-01 6.74459E-28
9.93844E-01 6.08006E-28
9.94508E-01 5.45293E-28
9.95134E-01 4.86298E-28
9.95722E-01 4.30996E-28
9.96273E-01 3.79364E-28
9.96786E-01 3.31382E-28
9.97261E-01 2.87031E-28
9.97698E-01 2.46293E-28
9.98097E-01 2.09151E-28
9.98459E-01 1.75592E-28
9.98782E-01 1.45601E-28
9.99067E-01 1.19166E-28
9.99315E-01 9.62777E-29
9.99524E-01 7.69258E-29
9.99695E-01 6.11030E-29
9.99829E-01 4.88029E-29
9.99924E-01 4.00206E-29
9.99981E-01 3.47526E-29
1.00000E+00 3.29969E-29
