 #
 # Subroutine ELSEPA. Elastic scattering of electrons and positrons
 #                    by neutral atoms and positive ions
 #
 # Projectile: electron
 # Kinetic energy = 5.00000E+07 eV = 1.83747E+06 a.u.
 #
 # WARNING: High-energy factorization with free-atom DF screening.
 #          Absorption, polarization and exchange corrections are
 #          switched off.
 #          Phase shifts are calculated for the bare nucleus.
 #          Scattering amplitudes are not evaluated.
 #
 # Element: Ce,  Z =  58,  atomic weight = 1.40116E+02 g/mol
 #
 # Nuclear model: Fermi distribution
 #                Average radius = 5.55750E-13 cm
 #                Skin thickness = 5.46000E-14 cm
 #
 # Number of electrons = 58
 #
 # Total elastic cross section = 7.28274E-18 cm**2 = 2.60071E-01 a0**2
 # 1st transport cross section = 2.57868E-24 cm**2 = 9.20862E-08 a0**2
 # 2nd transport cross section = 7.55904E-24 cm**2 = 2.69938E-07 a0**2
 #
 #
 # Differential cross section:                       MU=(1-COS(THETA))/2
 #
 #  THETA        MU          DCS          DCS        Sherman      error
 #  (deg)                 (cm**2/sr)   (a0**2/sr)    function
 #----------------------------------------------------------------------
0.00000E+00 2.85807E-10
7.61557E-13 2.85387E-10
1.18994E-12 2.85151E-10
1.71346E-12 2.84864E-10
2.33225E-12 2.84525E-10
3.04617E-12 2.84135E-10
3.85530E-12 2.83694E-10
4.75964E-12 2.83202E-10
5.75917E-12 2.82660E-10
6.85391E-12 2.82069E-10
8.04379E-12 2.81428E-10
9.32893E-12 2.80739E-10
1.07092E-11 2.80002E-10
1.21847E-11 2.79217E-10
1.37554E-11 2.78386E-10
1.54213E-11 2.77509E-10
1.71823E-11 2.76587E-10
1.90386E-11 2.75620E-10
2.09900E-11 2.74609E-10
2.30367E-11 2.73555E-10
2.51785E-11 2.72460E-10
2.74156E-11 2.71323E-10
2.97478E-11 2.70146E-10
3.21752E-11 2.68931E-10
3.46979E-11 2.67676E-10
3.73157E-11 2.66385E-10
4.00286E-11 2.65057E-10
4.28368E-11 2.63694E-10
4.57402E-11 2.62297E-10
4.87388E-11 2.60866E-10
5.18325E-11 2.59404E-10
5.50215E-11 2.57910E-10
5.83057E-11 2.56387E-10
6.16850E-11 2.54835E-10
6.51595E-11 2.53255E-10
6.87293E-11 2.51648E-10
7.23943E-11 2.50016E-10
7.61544E-11 2.48360E-10
1.18991E-10 2.30779E-10
1.71347E-10 2.11910E-10
2.33223E-10 1.92767E-10
3.04617E-10 1.74123E-10
3.85531E-10 1.56533E-10
4.75965E-10 1.40343E-10
5.75917E-10 1.25719E-10
6.85389E-10 1.12694E-10
8.04380E-10 1.01224E-10
9.32891E-10 9.11858E-11
1.07092E-09 8.24055E-11
1.21847E-09 7.47315E-11
1.37554E-09 6.80167E-11
1.54213E-09 6.21260E-11
1.71823E-09 5.69390E-11
1.90386E-09 5.23513E-11
2.09900E-09 4.82739E-11
2.30367E-09 4.46314E-11
2.51785E-09 4.13610E-11
2.74156E-09 3.84103E-11
2.97478E-09 3.57360E-11
3.21752E-09 3.32991E-11
3.46978E-09 3.10717E-11
3.73156E-09 2.90295E-11
4.00286E-09 2.71521E-11
4.28368E-09 2.54218E-11
4.57402E-09 2.38240E-11
4.87388E-09 2.23458E-11
5.18326E-09 2.09762E-11
5.50215E-09 1.97056E-11
5.83057E-09 1.85255E-11
6.16850E-09 1.74284E-11
6.51596E-09 1.64076E-11
6.87293E-09 1.54567E-11
7.23942E-09 1.45697E-11
7.61544E-09 1.37429E-11
1.18991E-08 7.87868E-12
1.71347E-08 4.88828E-12
2.33223E-08 3.20269E-12
3.04617E-08 2.18865E-12
3.85531E-08 1.54334E-12
4.75965E-08 1.11501E-12
5.75917E-08 8.22162E-13
6.85389E-08 6.17631E-13
8.04380E-08 4.72154E-13
9.32891E-08 3.67128E-13
1.07092E-07 2.90188E-13
1.21847E-07 2.32855E-13
1.37554E-07 1.89410E-13
1.54213E-07 1.55952E-13
1.71823E-07 1.29787E-13
1.90386E-07 1.09029E-13
2.09900E-07 9.23584E-14
2.30367E-07 7.88031E-14
2.51785E-07 6.76284E-14
2.74156E-07 5.83730E-14
2.97478E-07 5.06480E-14
3.21752E-07 4.41463E-14
3.46978E-07 3.86440E-14
3.73156E-07 3.39602E-14
4.00286E-07 2.99520E-14
4.28368E-07 2.65060E-14
4.57402E-07 2.35316E-14
4.87388E-07 2.09552E-14
5.18325E-07 1.87166E-14
5.50215E-07 1.67657E-14
5.83057E-07 1.50604E-14
6.16850E-07 1.35653E-14
6.51596E-07 1.22505E-14
6.87293E-07 1.10905E-14
7.23942E-07 1.00639E-14
7.61543E-07 9.15304E-15
1.18991E-06 3.94613E-15
1.71347E-06 1.97798E-15
2.33223E-06 1.09926E-15
3.04617E-06 6.58507E-16
3.85531E-06 4.17904E-16
4.75964E-06 2.77639E-16
5.75916E-06 1.91456E-16
6.85388E-06 1.36223E-16
8.04378E-06 9.95276E-17
9.32888E-06 7.43872E-17
1.07092E-05 5.67053E-17
1.21846E-05 4.39798E-17
1.37553E-05 3.46333E-17
1.54212E-05 2.76441E-17
1.71822E-05 2.23337E-17
1.90385E-05 1.82335E-17
2.09899E-05 1.50448E-17
2.30365E-05 1.25229E-17
2.51783E-05 1.05063E-17
2.74153E-05 8.87841E-18
2.97475E-05 7.55329E-18
3.21749E-05 6.46649E-18
3.46974E-05 5.56876E-18
3.73152E-05 4.82209E-18
4.00281E-05 4.19692E-18
4.28362E-05 3.67007E-18
4.57395E-05 3.22335E-18
4.87380E-05 2.84248E-18
5.18317E-05 2.51610E-18
5.50205E-05 2.23513E-18
5.83045E-05 1.99227E-18
6.16838E-05 1.78153E-18
6.51582E-05 1.59798E-18
6.87277E-05 1.43753E-18
7.23925E-05 1.29676E-18
7.61524E-05 1.17315E-18
9.21439E-05 8.03538E-19
1.09658E-04 5.68678E-19
1.28695E-04 4.13751E-19
1.49255E-04 3.08159E-19
1.71338E-04 2.34234E-19
1.94942E-04 1.81213E-19
2.20070E-04 1.42391E-19
2.46720E-04 1.13440E-19
2.74892E-04 9.14921E-20
3.04586E-04 7.46116E-20
3.35803E-04 6.14544E-20
3.68542E-04 5.10779E-20
4.02802E-04 4.28050E-20
4.38585E-04 3.61437E-20
4.75889E-04 3.07314E-20
5.14715E-04 2.62971E-20
5.55063E-04 2.26361E-20
5.96931E-04 1.95918E-20
6.40321E-04 1.70436E-20
6.85233E-04 1.48975E-20
7.31665E-04 1.30796E-20
7.79618E-04 1.15314E-20
8.29092E-04 1.02062E-20
8.80086E-04 9.06660E-21
9.32601E-04 8.08212E-21
9.86636E-04 7.22809E-21
1.04219E-03 6.48431E-21
1.09927E-03 5.83408E-21
1.15786E-03 5.26360E-21
1.21797E-03 4.76141E-21
1.27961E-03 4.31793E-21
1.34276E-03 3.92508E-21
1.40743E-03 3.57606E-21
1.47362E-03 3.26514E-21
1.54133E-03 2.98742E-21
1.61056E-03 2.73872E-21
1.68131E-03 2.51547E-21
1.75357E-03 2.31461E-21
1.82735E-03 2.13349E-21
1.90265E-03 1.96982E-21
1.97947E-03 1.82161E-21
2.05780E-03 1.68715E-21
2.13765E-03 1.56492E-21
2.21902E-03 1.45362E-21
2.30190E-03 1.35208E-21
2.38630E-03 1.25930E-21
2.47222E-03 1.17438E-21
2.55965E-03 1.09653E-21
2.64859E-03 1.02507E-21
2.73905E-03 9.59354E-22
2.83103E-03 8.98851E-22
2.92452E-03 8.43069E-22
3.01952E-03 7.91569E-22
3.11604E-03 7.43962E-22
3.21407E-03 6.99902E-22
3.31362E-03 6.59072E-22
3.41468E-03 6.21191E-22
3.51725E-03 5.86010E-22
3.62133E-03 5.53298E-22
3.72692E-03 5.22848E-22
3.83403E-03 4.94476E-22
3.94265E-03 4.68015E-22
4.05278E-03 4.43308E-22
4.16442E-03 4.20221E-22
4.27757E-03 3.98626E-22
4.39223E-03 3.78407E-22
4.50840E-03 3.59462E-22
4.62608E-03 3.41695E-22
4.74527E-03 3.25018E-22
4.86597E-03 3.09352E-22
4.98817E-03 2.94624E-22
5.11188E-03 2.80767E-22
5.23711E-03 2.67720E-22
5.36383E-03 2.55426E-22
5.49207E-03 2.43834E-22
5.62181E-03 2.32896E-22
5.75306E-03 2.22568E-22
5.88581E-03 2.12810E-22
6.02007E-03 2.03583E-22
6.15583E-03 1.94854E-22
6.29310E-03 1.86591E-22
6.43187E-03 1.78763E-22
6.57214E-03 1.71344E-22
6.71392E-03 1.64308E-22
6.85720E-03 1.57631E-22
7.00198E-03 1.51292E-22
7.14827E-03 1.45270E-22
7.29605E-03 1.39547E-22
7.44534E-03 1.34104E-22
7.59612E-03 1.28925E-22
7.97965E-03 1.17036E-22
8.37255E-03 1.06493E-22
8.77480E-03 9.71168E-23
9.18641E-03 8.87537E-23
9.60736E-03 8.12754E-23
1.00376E-02 7.45716E-23
1.04773E-02 6.85475E-23
1.09262E-02 6.31218E-23
1.13844E-02 5.82243E-23
1.18520E-02 5.37942E-23
1.23288E-02 4.97787E-23
1.28150E-02 4.61319E-23
1.33104E-02 4.28138E-23
1.38150E-02 3.97893E-23
1.43290E-02 3.70277E-23
1.48521E-02 3.45018E-23
1.53845E-02 3.21879E-23
1.59262E-02 3.00649E-23
1.64770E-02 2.81140E-23
1.70371E-02 2.63188E-23
1.76063E-02 2.46646E-23
1.81848E-02 2.31381E-23
1.87724E-02 2.17278E-23
1.93692E-02 2.04230E-23
1.99751E-02 1.92145E-23
2.05901E-02 1.80938E-23
2.12143E-02 1.70533E-23
2.18476E-02 1.60863E-23
2.24900E-02 1.51865E-23
2.31415E-02 1.43485E-23
2.38021E-02 1.35671E-23
2.44717E-02 1.28379E-23
2.51504E-02 1.21567E-23
2.58382E-02 1.15197E-23
2.65349E-02 1.09236E-23
2.72407E-02 1.03652E-23
2.79555E-02 9.84176E-24
2.86793E-02 9.35059E-24
2.94120E-02 8.88936E-24
3.01537E-02 8.45590E-24
3.09043E-02 8.04823E-24
3.16639E-02 7.66453E-24
3.24324E-02 7.30312E-24
3.32098E-02 6.96247E-24
3.39961E-02 6.64117E-24
3.47912E-02 6.33791E-24
3.55952E-02 6.05148E-24
3.64081E-02 5.78078E-24
3.72297E-02 5.52479E-24
3.80602E-02 5.28256E-24
3.88995E-02 5.05321E-24
3.97476E-02 4.83592E-24
4.06044E-02 4.62996E-24
4.14700E-02 4.43461E-24
4.23443E-02 4.24923E-24
4.32273E-02 4.07321E-24
4.41190E-02 3.90601E-24
4.50194E-02 3.74708E-24
4.59284E-02 3.59596E-24
4.68461E-02 3.45218E-24
4.87074E-02 3.18500E-24
5.06030E-02 2.94248E-24
5.25328E-02 2.72196E-24
5.44967E-02 2.52110E-24
5.64946E-02 2.33785E-24
5.85262E-02 2.17040E-24
6.05914E-02 2.01715E-24
6.26901E-02 1.87671E-24
6.48222E-02 1.74781E-24
6.69873E-02 1.62935E-24
6.91854E-02 1.52034E-24
7.14163E-02 1.41990E-24
7.36799E-02 1.32725E-24
7.59760E-02 1.24169E-24
7.83043E-02 1.16258E-24
8.06647E-02 1.08935E-24
8.30571E-02 1.02150E-24
8.54812E-02 9.58571E-25
8.79369E-02 9.00146E-25
9.04240E-02 8.45853E-25
9.29422E-02 7.95352E-25
9.54915E-02 7.48337E-25
9.80716E-02 7.04530E-25
1.00682E-01 6.63677E-25
1.03323E-01 6.25550E-25
1.05995E-01 5.89938E-25
1.08696E-01 5.56650E-25
1.11427E-01 5.25511E-25
1.14188E-01 4.96363E-25
1.16978E-01 4.69058E-25
1.19797E-01 4.43464E-25
1.22645E-01 4.19457E-25
1.25522E-01 3.96925E-25
1.28428E-01 3.75763E-25
1.31361E-01 3.55878E-25
1.34323E-01 3.37180E-25
1.37313E-01 3.19590E-25
1.40330E-01 3.03032E-25
1.43375E-01 2.87438E-25
1.46447E-01 2.72744E-25
1.49545E-01 2.58891E-25
1.52671E-01 2.45824E-25
1.55823E-01 2.33494E-25
1.59001E-01 2.21852E-25
1.62205E-01 2.10856E-25
1.65435E-01 2.00466E-25
1.68690E-01 1.90643E-25
1.71970E-01 1.81353E-25
1.75276E-01 1.72563E-25
1.78606E-01 1.64244E-25
1.81961E-01 1.56367E-25
1.85340E-01 1.48905E-25
1.88743E-01 1.41834E-25
1.92169E-01 1.35132E-25
1.95619E-01 1.28777E-25
1.99092E-01 1.22749E-25
2.02589E-01 1.17029E-25
2.06107E-01 1.11599E-25
2.09649E-01 1.06444E-25
2.13212E-01 1.01548E-25
2.16797E-01 9.68966E-26
2.20404E-01 9.24763E-26
2.24032E-01 8.82743E-26
2.27680E-01 8.42789E-26
2.31350E-01 8.04788E-26
2.35040E-01 7.68636E-26
2.38751E-01 7.34234E-26
2.42481E-01 7.01489E-26
2.46231E-01 6.70313E-26
2.50000E-01 6.40625E-26
2.53788E-01 6.12346E-26
2.57595E-01 5.85404E-26
2.61421E-01 5.59730E-26
2.65264E-01 5.35259E-26
2.69126E-01 5.11930E-26
2.73005E-01 4.89684E-26
2.76901E-01 4.68468E-26
2.80814E-01 4.48230E-26
2.84744E-01 4.28920E-26
2.88691E-01 4.10494E-26
2.92653E-01 3.92906E-26
2.96632E-01 3.76117E-26
3.00625E-01 3.60087E-26
3.04634E-01 3.44779E-26
3.08658E-01 3.30159E-26
3.12697E-01 3.16192E-26
3.16749E-01 3.02849E-26
3.20816E-01 2.90098E-26
3.24896E-01 2.77912E-26
3.28990E-01 2.66264E-26
3.33097E-01 2.55130E-26
3.37216E-01 2.44484E-26
3.41348E-01 2.34303E-26
3.45492E-01 2.24567E-26
3.49647E-01 2.15255E-26
3.53814E-01 2.06346E-26
3.57992E-01 1.97823E-26
3.62181E-01 1.89668E-26
3.66381E-01 1.81864E-26
3.70590E-01 1.74395E-26
3.74810E-01 1.67245E-26
3.79039E-01 1.60401E-26
3.83277E-01 1.53849E-26
3.87524E-01 1.47575E-26
3.91780E-01 1.41568E-26
3.96044E-01 1.35814E-26
4.00316E-01 1.30303E-26
4.04596E-01 1.25025E-26
4.08882E-01 1.19968E-26
4.13176E-01 1.15124E-26
4.17476E-01 1.10482E-26
4.21783E-01 1.06035E-26
4.26095E-01 1.01773E-26
4.30413E-01 9.76876E-27
4.34737E-01 9.37725E-27
4.39065E-01 9.00196E-27
4.43398E-01 8.64221E-27
4.47736E-01 8.29732E-27
4.52077E-01 7.96665E-27
4.56422E-01 7.64960E-27
4.60770E-01 7.34557E-27
4.65122E-01 7.05403E-27
4.69476E-01 6.77442E-27
4.73832E-01 6.50625E-27
4.78190E-01 6.24903E-27
4.82550E-01 6.00230E-27
4.86912E-01 5.76562E-27
4.91274E-01 5.53856E-27
4.95637E-01 5.32071E-27
5.00000E-01 5.11169E-27
5.04363E-01 4.91114E-27
5.08726E-01 4.71869E-27
5.13088E-01 4.53401E-27
5.17450E-01 4.35678E-27
5.21810E-01 4.18668E-27
5.26168E-01 4.02342E-27
5.30524E-01 3.86672E-27
5.34878E-01 3.71630E-27
5.39230E-01 3.57191E-27
5.43578E-01 3.43329E-27
5.47923E-01 3.30021E-27
5.52264E-01 3.17245E-27
5.56602E-01 3.04977E-27
5.60935E-01 2.93198E-27
5.65263E-01 2.81888E-27
5.69587E-01 2.71027E-27
5.73905E-01 2.60596E-27
5.78217E-01 2.50579E-27
5.82524E-01 2.40959E-27
5.86824E-01 2.31719E-27
5.91118E-01 2.22844E-27
5.95404E-01 2.14319E-27
5.99684E-01 2.06130E-27
6.03956E-01 1.98264E-27
6.08220E-01 1.90706E-27
6.12476E-01 1.83446E-27
6.16723E-01 1.76470E-27
6.20961E-01 1.69768E-27
6.25190E-01 1.63328E-27
6.29410E-01 1.57140E-27
6.33619E-01 1.51194E-27
6.37819E-01 1.45480E-27
6.42008E-01 1.39988E-27
6.46186E-01 1.34711E-27
6.50353E-01 1.29638E-27
6.54508E-01 1.24762E-27
6.58652E-01 1.20076E-27
6.62784E-01 1.15571E-27
6.66903E-01 1.11241E-27
6.71010E-01 1.07078E-27
6.75104E-01 1.03075E-27
6.79184E-01 9.92272E-28
6.83251E-01 9.55274E-28
6.87303E-01 9.19699E-28
6.91342E-01 8.85491E-28
6.95366E-01 8.52595E-28
6.99375E-01 8.20959E-28
7.03368E-01 7.90534E-28
7.07347E-01 7.61272E-28
7.11309E-01 7.33126E-28
7.15256E-01 7.06053E-28
7.19186E-01 6.80010E-28
7.23099E-01 6.54957E-28
7.26995E-01 6.30854E-28
7.30874E-01 6.07664E-28
7.34736E-01 5.85352E-28
7.38579E-01 5.63882E-28
7.42405E-01 5.43222E-28
7.46212E-01 5.23340E-28
7.50000E-01 5.04205E-28
7.53769E-01 4.85788E-28
7.57519E-01 4.68061E-28
7.61249E-01 4.50997E-28
7.64960E-01 4.34569E-28
7.68650E-01 4.18754E-28
7.72320E-01 4.03527E-28
7.75968E-01 3.88865E-28
7.79596E-01 3.74747E-28
7.83203E-01 3.61150E-28
7.86788E-01 3.48056E-28
7.90351E-01 3.35443E-28
7.93893E-01 3.23294E-28
7.97411E-01 3.11591E-28
8.00908E-01 3.00316E-28
8.04381E-01 2.89453E-28
8.07831E-01 2.78986E-28
8.11257E-01 2.68899E-28
8.14660E-01 2.59179E-28
8.18039E-01 2.49810E-28
8.21394E-01 2.40779E-28
8.24724E-01 2.32074E-28
8.28030E-01 2.23682E-28
8.31310E-01 2.15590E-28
8.34565E-01 2.07788E-28
8.37795E-01 2.00265E-28
8.40999E-01 1.93009E-28
8.44177E-01 1.86010E-28
8.47329E-01 1.79260E-28
8.50455E-01 1.72747E-28
8.53553E-01 1.66464E-28
8.56625E-01 1.60402E-28
8.59670E-01 1.54552E-28
8.62687E-01 1.48907E-28
8.65677E-01 1.43458E-28
8.68639E-01 1.38199E-28
8.71572E-01 1.33122E-28
8.74478E-01 1.28221E-28
8.77355E-01 1.23488E-28
8.80203E-01 1.18919E-28
8.83022E-01 1.14506E-28
8.85812E-01 1.10244E-28
8.88573E-01 1.06127E-28
8.91304E-01 1.02151E-28
8.94005E-01 9.83098E-29
8.96677E-01 9.45986E-29
8.99318E-01 9.10129E-29
9.01928E-01 8.75480E-29
9.04508E-01 8.41997E-29
9.07058E-01 8.09637E-29
9.09576E-01 7.78362E-29
9.12063E-01 7.48132E-29
9.14519E-01 7.18911E-29
9.16943E-01 6.90663E-29
9.19335E-01 6.63355E-29
9.21696E-01 6.36953E-29
9.24024E-01 6.11426E-29
9.26320E-01 5.86745E-29
9.28584E-01 5.62881E-29
9.30815E-01 5.39805E-29
9.33013E-01 5.17492E-29
9.35178E-01 4.95916E-29
9.37310E-01 4.75053E-29
9.39409E-01 4.54878E-29
9.41474E-01 4.35370E-29
9.43505E-01 4.16507E-29
9.45503E-01 3.98268E-29
9.47467E-01 3.80633E-29
9.49397E-01 3.63584E-29
9.51293E-01 3.47102E-29
9.53154E-01 3.31170E-29
9.54981E-01 3.15770E-29
9.56773E-01 3.00886E-29
9.58530E-01 2.86504E-29
9.60252E-01 2.72608E-29
9.61940E-01 2.59185E-29
9.63592E-01 2.46220E-29
9.65209E-01 2.33701E-29
9.66790E-01 2.21614E-29
9.68336E-01 2.09949E-29
9.69846E-01 1.98694E-29
9.71321E-01 1.87837E-29
9.72759E-01 1.77369E-29
9.74162E-01 1.67279E-29
9.75528E-01 1.57558E-29
9.76858E-01 1.48196E-29
9.78152E-01 1.39186E-29
9.79410E-01 1.30517E-29
9.80631E-01 1.22183E-29
9.81815E-01 1.14176E-29
9.82963E-01 1.06489E-29
9.84074E-01 9.91140E-30
9.85148E-01 9.20453E-30
9.86185E-01 8.52764E-30
9.87185E-01 7.88013E-30
9.88148E-01 7.26143E-30
9.89074E-01 6.67101E-30
9.89962E-01 6.10836E-30
9.90814E-01 5.57298E-30
9.91627E-01 5.06443E-30
9.92404E-01 4.58227E-30
9.93143E-01 4.12609E-30
9.93844E-01 3.69551E-30
9.94508E-01 3.29017E-30
9.95134E-01 2.90973E-30
9.95722E-01 2.55388E-30
9.96273E-01 2.22232E-30
9.96786E-01 1.91478E-30
9.97261E-01 1.63100E-30
9.97698E-01 1.37077E-30
9.98097E-01 1.13386E-30
9.98459E-01 9.20083E-31
9.98782E-01 7.29268E-31
9.99067E-01 5.61261E-31
9.99315E-01 4.15925E-31
9.99524E-01 2.93145E-31
9.99695E-01 1.92822E-31
9.99829E-01 1.14876E-31
9.99924E-01 5.92447E-32
9.99981E-01 2.58836E-32
1.00000E+00 1.47662E-32
