 #
 # Subroutine ELSEPA. Elastic scattering of electrons and positrons
 #                    by neutral atoms and positive ions
 #
 # Projectile: electron
 # Kinetic energy = 1.50000E+06 eV = 5.51240E+04 a.u.
 #
 # WARNING: High-energy factorization with free-atom DF screening.
 #          Absorption, polarization and exchange corrections are
 #          switched off.
 #          Phase shifts are calculated for the bare nucleus.
 #          Scattering amplitudes are not evaluated.
 #
 # Element: Ce,  Z =  58,  atomic weight = 1.40116E+02 g/mol
 #
 # Nuclear model: Fermi distribution
 #                Average radius = 5.55750E-13 cm
 #                Skin thickness = 5.46000E-14 cm
 #
 # Number of electrons = 58
 #
 # Total elastic cross section = 7.80809E-18 cm**2 = 2.78832E-01 a0**2
 # 1st transport cross section = 1.27852E-21 cm**2 = 4.56566E-05 a0**2
 # 2nd transport cross section = 3.45989E-21 cm**2 = 1.23555E-04 a0**2
 #
 #
 # Differential cross section:                       MU=(1-COS(THETA))/2
 #
 #  THETA        MU          DCS          DCS        Sherman      error
 #  (deg)                 (cm**2/sr)   (a0**2/sr)    function
 #----------------------------------------------------------------------
0.00000E+00 4.53028E-13
7.61557E-13 4.53027E-13
1.18994E-12 4.53027E-13
1.71346E-12 4.53026E-13
2.33225E-12 4.53025E-13
3.04617E-12 4.53024E-13
3.85530E-12 4.53023E-13
4.75964E-12 4.53022E-13
5.75917E-12 4.53021E-13
6.85391E-12 4.53020E-13
8.04379E-12 4.53018E-13
9.32893E-12 4.53017E-13
1.07092E-11 4.53015E-13
1.21847E-11 4.53013E-13
1.37554E-11 4.53011E-13
1.54213E-11 4.53009E-13
1.71823E-11 4.53007E-13
1.90386E-11 4.53004E-13
2.09900E-11 4.53002E-13
2.30367E-11 4.52999E-13
2.51785E-11 4.52996E-13
2.74156E-11 4.52994E-13
2.97478E-11 4.52991E-13
3.21752E-11 4.52988E-13
3.46979E-11 4.52984E-13
3.73157E-11 4.52981E-13
4.00286E-11 4.52978E-13
4.28368E-11 4.52974E-13
4.57402E-11 4.52970E-13
4.87388E-11 4.52966E-13
5.18325E-11 4.52962E-13
5.50215E-11 4.52958E-13
5.83057E-11 4.52954E-13
6.16850E-11 4.52950E-13
6.51595E-11 4.52945E-13
6.87293E-11 4.52941E-13
7.23943E-11 4.52936E-13
7.61544E-11 4.52931E-13
1.18991E-10 4.52876E-13
1.71347E-10 4.52809E-13
2.33223E-10 4.52730E-13
3.04617E-10 4.52638E-13
3.85531E-10 4.52534E-13
4.75965E-10 4.52417E-13
5.75917E-10 4.52289E-13
6.85389E-10 4.52148E-13
8.04380E-10 4.51995E-13
9.32891E-10 4.51830E-13
1.07092E-09 4.51653E-13
1.21847E-09 4.51463E-13
1.37554E-09 4.51262E-13
1.54213E-09 4.51048E-13
1.71823E-09 4.50822E-13
1.90386E-09 4.50584E-13
2.09900E-09 4.50335E-13
2.30367E-09 4.50073E-13
2.51785E-09 4.49799E-13
2.74156E-09 4.49514E-13
2.97478E-09 4.49216E-13
3.21752E-09 4.48907E-13
3.46978E-09 4.48586E-13
3.73156E-09 4.48253E-13
4.00286E-09 4.47909E-13
4.28368E-09 4.47553E-13
4.57402E-09 4.47185E-13
4.87388E-09 4.46806E-13
5.18326E-09 4.46415E-13
5.50215E-09 4.46013E-13
5.83057E-09 4.45599E-13
6.16850E-09 4.45174E-13
6.51596E-09 4.44738E-13
6.87293E-09 4.44290E-13
7.23942E-09 4.43831E-13
7.61544E-09 4.43362E-13
1.18991E-08 4.38064E-13
1.71347E-08 4.31727E-13
2.33223E-08 4.24425E-13
3.04617E-08 4.16247E-13
3.85531E-08 4.07285E-13
4.75965E-08 3.97637E-13
5.75917E-08 3.87402E-13
6.85389E-08 3.76774E-13
8.04380E-08 3.65701E-13
9.32891E-08 3.54212E-13
1.07092E-07 3.42740E-13
1.21847E-07 3.31056E-13
1.37554E-07 3.19223E-13
1.54213E-07 3.07697E-13
1.71823E-07 2.96115E-13
1.90386E-07 2.84656E-13
2.09900E-07 2.73607E-13
2.30367E-07 2.62645E-13
2.51785E-07 2.52019E-13
2.74156E-07 2.41820E-13
2.97478E-07 2.31798E-13
3.21752E-07 2.22255E-13
3.46978E-07 2.13098E-13
3.73156E-07 2.04166E-13
4.00286E-07 1.95791E-13
4.28368E-07 1.87734E-13
4.57402E-07 1.79917E-13
4.87388E-07 1.72680E-13
5.18325E-07 1.65686E-13
5.50215E-07 1.58970E-13
5.83057E-07 1.52730E-13
6.16850E-07 1.46710E-13
6.51596E-07 1.40983E-13
6.87293E-07 1.35622E-13
7.23942E-07 1.30460E-13
7.61543E-07 1.25586E-13
1.18991E-06 8.83890E-14
1.71347E-06 6.51082E-14
2.33223E-06 4.94547E-14
3.04617E-06 3.82865E-14
3.85531E-06 3.00349E-14
4.75964E-06 2.38077E-14
5.75916E-06 1.90666E-14
6.85388E-06 1.52932E-14
8.04378E-06 1.24760E-14
9.32888E-06 1.03817E-14
1.07092E-05 8.60872E-15
1.21846E-05 7.23545E-15
1.37553E-05 6.16220E-15
1.54212E-05 5.23448E-15
1.71822E-05 4.49960E-15
1.90385E-05 3.89474E-15
2.09899E-05 3.37213E-15
2.30365E-05 2.94584E-15
2.51783E-05 2.58141E-15
2.74153E-05 2.26389E-15
2.97475E-05 1.99941E-15
3.21749E-05 1.76754E-15
3.46974E-05 1.56658E-15
3.73152E-05 1.39657E-15
4.00281E-05 1.24507E-15
4.28362E-05 1.11394E-15
4.57395E-05 1.00125E-15
4.87380E-05 8.99720E-16
5.18317E-05 8.11611E-16
5.50205E-05 7.34589E-16
5.83045E-05 6.65472E-16
6.16838E-05 6.04940E-16
6.51582E-05 5.51347E-16
6.87277E-05 5.03345E-16
7.23925E-05 4.60886E-16
7.61524E-05 4.22868E-16
9.21439E-05 3.05757E-16
1.09658E-04 2.27684E-16
1.28695E-04 1.73532E-16
1.49255E-04 1.34955E-16
1.71338E-04 1.06526E-16
1.94942E-04 8.52208E-17
2.20070E-04 6.89869E-17
2.46720E-04 5.63873E-17
2.74892E-04 4.65096E-17
3.04586E-04 3.86512E-17
3.35803E-04 3.23626E-17
3.68542E-04 2.72871E-17
4.02802E-04 2.31607E-17
4.38585E-04 1.97854E-17
4.75889E-04 1.69997E-17
5.14715E-04 1.46883E-17
5.55063E-04 1.27560E-17
5.96931E-04 1.11321E-17
6.40321E-04 9.75601E-18
6.85233E-04 8.59062E-18
7.31665E-04 7.59975E-18
7.79618E-04 6.74306E-18
8.29092E-04 6.00709E-18
8.80086E-04 5.37114E-18
9.32601E-04 4.81480E-18
9.86636E-04 4.33082E-18
1.04219E-03 3.90684E-18
1.09927E-03 3.53273E-18
1.15786E-03 3.20368E-18
1.21797E-03 2.91194E-18
1.27961E-03 2.65241E-18
1.34276E-03 2.42202E-18
1.40743E-03 2.21570E-18
1.47362E-03 2.03100E-18
1.54133E-03 1.86570E-18
1.61056E-03 1.71636E-18
1.68131E-03 1.58190E-18
1.75357E-03 1.46071E-18
1.82735E-03 1.35042E-18
1.90265E-03 1.25061E-18
1.97947E-03 1.15999E-18
2.05780E-03 1.07719E-18
2.13765E-03 1.00184E-18
2.21902E-03 9.32971E-19
2.30190E-03 8.69816E-19
2.38630E-03 8.12045E-19
2.47222E-03 7.58947E-19
2.55965E-03 7.10099E-19
2.64859E-03 6.65210E-19
2.73905E-03 6.23743E-19
2.83103E-03 5.85475E-19
2.92452E-03 5.50165E-19
3.01952E-03 5.17401E-19
3.11604E-03 4.87080E-19
3.21407E-03 4.58988E-19
3.31362E-03 4.32838E-19
3.41468E-03 4.08562E-19
3.51725E-03 3.85980E-19
3.62133E-03 3.64911E-19
3.72692E-03 3.45290E-19
3.83403E-03 3.26971E-19
3.94265E-03 3.09844E-19
4.05278E-03 2.93847E-19
4.16442E-03 2.78863E-19
4.27757E-03 2.64823E-19
4.39223E-03 2.51674E-19
4.50840E-03 2.39322E-19
4.62608E-03 2.27727E-19
4.74527E-03 2.16838E-19
4.86597E-03 2.06583E-19
4.98817E-03 1.96937E-19
5.11188E-03 1.87856E-19
5.23711E-03 1.79286E-19
5.36383E-03 1.71209E-19
5.49207E-03 1.63586E-19
5.62181E-03 1.56381E-19
5.75306E-03 1.49576E-19
5.88581E-03 1.43138E-19
6.02007E-03 1.37045E-19
6.15583E-03 1.31278E-19
6.29310E-03 1.25811E-19
6.43187E-03 1.20629E-19
6.57214E-03 1.15716E-19
6.71392E-03 1.11049E-19
6.85720E-03 1.06619E-19
7.00198E-03 1.02412E-19
7.14827E-03 9.84087E-20
7.29605E-03 9.46029E-20
7.44534E-03 9.09823E-20
7.59612E-03 8.75328E-20
7.97965E-03 7.96081E-20
8.37255E-03 7.25696E-20
8.77480E-03 6.63005E-20
9.18641E-03 6.07012E-20
9.60736E-03 5.56874E-20
1.00376E-02 5.11870E-20
1.04773E-02 4.71378E-20
1.09262E-02 4.34864E-20
1.13844E-02 4.01864E-20
1.18520E-02 3.71979E-20
1.23288E-02 3.44859E-20
1.28150E-02 3.20200E-20
1.33104E-02 2.97737E-20
1.38150E-02 2.77239E-20
1.43290E-02 2.58502E-20
1.48521E-02 2.41345E-20
1.53845E-02 2.25611E-20
1.59262E-02 2.11159E-20
1.64770E-02 1.97865E-20
1.70371E-02 1.85617E-20
1.76063E-02 1.74319E-20
1.81848E-02 1.63881E-20
1.87724E-02 1.54226E-20
1.93692E-02 1.45285E-20
1.99751E-02 1.36994E-20
2.05901E-02 1.29297E-20
2.12143E-02 1.22142E-20
2.18476E-02 1.15485E-20
2.24900E-02 1.09284E-20
2.31415E-02 1.03501E-20
2.38021E-02 9.81029E-21
2.44717E-02 9.30591E-21
2.51504E-02 8.83418E-21
2.58382E-02 8.39256E-21
2.65349E-02 7.97875E-21
2.72407E-02 7.59065E-21
2.79555E-02 7.22635E-21
2.86793E-02 6.88408E-21
2.94120E-02 6.56226E-21
3.01537E-02 6.25945E-21
3.09043E-02 5.97427E-21
3.16639E-02 5.70549E-21
3.24324E-02 5.45200E-21
3.32098E-02 5.21274E-21
3.39961E-02 4.98674E-21
3.47912E-02 4.77314E-21
3.55952E-02 4.57111E-21
3.64081E-02 4.37990E-21
3.72297E-02 4.19882E-21
3.80602E-02 4.02722E-21
3.88995E-02 3.86449E-21
3.97476E-02 3.71010E-21
4.06044E-02 3.56352E-21
4.14700E-02 3.42428E-21
4.23443E-02 3.29194E-21
4.32273E-02 3.16609E-21
4.41190E-02 3.04634E-21
4.50194E-02 2.93233E-21
4.59284E-02 2.82375E-21
4.68461E-02 2.72026E-21
4.87074E-02 2.52747E-21
5.06030E-02 2.35186E-21
5.25328E-02 2.19161E-21
5.44967E-02 2.04511E-21
5.64946E-02 1.91095E-21
5.85262E-02 1.78789E-21
6.05914E-02 1.67482E-21
6.26901E-02 1.57076E-21
6.48222E-02 1.47487E-21
6.69873E-02 1.38638E-21
6.91854E-02 1.30459E-21
7.14163E-02 1.22890E-21
7.36799E-02 1.15877E-21
7.59760E-02 1.09369E-21
7.83043E-02 1.03323E-21
8.06647E-02 9.77006E-22
8.30571E-02 9.24652E-22
8.54812E-02 8.75846E-22
8.79369E-02 8.30302E-22
9.04240E-02 7.87758E-22
9.29422E-02 7.47971E-22
9.54915E-02 7.10730E-22
9.80716E-02 6.75838E-22
1.00682E-01 6.43113E-22
1.03323E-01 6.12395E-22
1.05995E-01 5.83537E-22
1.08696E-01 5.56398E-22
1.11427E-01 5.30859E-22
1.14188E-01 5.06805E-22
1.16978E-01 4.84129E-22
1.19797E-01 4.62738E-22
1.22645E-01 4.42543E-22
1.25522E-01 4.23463E-22
1.28428E-01 4.05424E-22
1.31361E-01 3.88357E-22
1.34323E-01 3.72198E-22
1.37313E-01 3.56890E-22
1.40330E-01 3.42377E-22
1.43375E-01 3.28610E-22
1.46447E-01 3.15541E-22
1.49545E-01 3.03130E-22
1.52671E-01 2.91334E-22
1.55823E-01 2.80117E-22
1.59001E-01 2.69445E-22
1.62205E-01 2.59285E-22
1.65435E-01 2.49609E-22
1.68690E-01 2.40387E-22
1.71970E-01 2.31593E-22
1.75276E-01 2.23205E-22
1.78606E-01 2.15198E-22
1.81961E-01 2.07552E-22
1.85340E-01 2.00248E-22
1.88743E-01 1.93266E-22
1.92169E-01 1.86590E-22
1.95619E-01 1.80202E-22
1.99092E-01 1.74089E-22
2.02589E-01 1.68235E-22
2.06107E-01 1.62627E-22
2.09649E-01 1.57253E-22
2.13212E-01 1.52101E-22
2.16797E-01 1.47160E-22
2.20404E-01 1.42418E-22
2.24032E-01 1.37867E-22
2.27680E-01 1.33498E-22
2.31350E-01 1.29300E-22
2.35040E-01 1.25266E-22
2.38751E-01 1.21389E-22
2.42481E-01 1.17661E-22
2.46231E-01 1.14075E-22
2.50000E-01 1.10623E-22
2.53788E-01 1.07302E-22
2.57595E-01 1.04103E-22
2.61421E-01 1.01022E-22
2.65264E-01 9.80538E-23
2.69126E-01 9.51929E-23
2.73005E-01 9.24347E-23
2.76901E-01 8.97748E-23
2.80814E-01 8.72088E-23
2.84744E-01 8.47328E-23
2.88691E-01 8.23430E-23
2.92653E-01 8.00356E-23
2.96632E-01 7.78073E-23
3.00625E-01 7.56547E-23
3.04634E-01 7.35747E-23
3.08658E-01 7.15644E-23
3.12697E-01 6.96208E-23
3.16749E-01 6.77414E-23
3.20816E-01 6.59236E-23
3.24896E-01 6.41648E-23
3.28990E-01 6.24628E-23
3.33097E-01 6.08154E-23
3.37216E-01 5.92204E-23
3.41348E-01 5.76757E-23
3.45492E-01 5.61796E-23
3.49647E-01 5.47301E-23
3.53814E-01 5.33254E-23
3.57992E-01 5.19639E-23
3.62181E-01 5.06440E-23
3.66381E-01 4.93641E-23
3.70590E-01 4.81228E-23
3.74810E-01 4.69186E-23
3.79039E-01 4.57502E-23
3.83277E-01 4.46163E-23
3.87524E-01 4.35157E-23
3.91780E-01 4.24472E-23
3.96044E-01 4.14097E-23
4.00316E-01 4.04021E-23
4.04596E-01 3.94233E-23
4.08882E-01 3.84724E-23
4.13176E-01 3.75483E-23
4.17476E-01 3.66502E-23
4.21783E-01 3.57772E-23
4.26095E-01 3.49285E-23
4.30413E-01 3.41032E-23
4.34737E-01 3.33005E-23
4.39065E-01 3.25197E-23
4.43398E-01 3.17601E-23
4.47736E-01 3.10210E-23
4.52077E-01 3.03018E-23
4.56422E-01 2.96017E-23
4.60770E-01 2.89201E-23
4.65122E-01 2.82566E-23
4.69476E-01 2.76104E-23
4.73832E-01 2.69811E-23
4.78190E-01 2.63681E-23
4.82550E-01 2.57710E-23
4.86912E-01 2.51891E-23
4.91274E-01 2.46221E-23
4.95637E-01 2.40696E-23
5.00000E-01 2.35309E-23
5.04363E-01 2.30059E-23
5.08726E-01 2.24939E-23
5.13088E-01 2.19947E-23
5.17450E-01 2.15079E-23
5.21810E-01 2.10330E-23
5.26168E-01 2.05698E-23
5.30524E-01 2.01179E-23
5.34878E-01 1.96770E-23
5.39230E-01 1.92467E-23
5.43578E-01 1.88267E-23
5.47923E-01 1.84169E-23
5.52264E-01 1.80168E-23
5.56602E-01 1.76261E-23
5.60935E-01 1.72447E-23
5.65263E-01 1.68723E-23
5.69587E-01 1.65086E-23
5.73905E-01 1.61533E-23
5.78217E-01 1.58063E-23
5.82524E-01 1.54673E-23
5.86824E-01 1.51361E-23
5.91118E-01 1.48125E-23
5.95404E-01 1.44963E-23
5.99684E-01 1.41872E-23
6.03956E-01 1.38851E-23
6.08220E-01 1.35898E-23
6.12476E-01 1.33012E-23
6.16723E-01 1.30190E-23
6.20961E-01 1.27430E-23
6.25190E-01 1.24732E-23
6.29410E-01 1.22094E-23
6.33619E-01 1.19513E-23
6.37819E-01 1.16989E-23
6.42008E-01 1.14520E-23
6.46186E-01 1.12105E-23
6.50353E-01 1.09742E-23
6.54508E-01 1.07431E-23
6.58652E-01 1.05168E-23
6.62784E-01 1.02955E-23
6.66903E-01 1.00789E-23
6.71010E-01 9.86687E-24
6.75104E-01 9.65937E-24
6.79184E-01 9.45626E-24
6.83251E-01 9.25744E-24
6.87303E-01 9.06280E-24
6.91342E-01 8.87224E-24
6.95366E-01 8.68566E-24
6.99375E-01 8.50297E-24
7.03368E-01 8.32408E-24
7.07347E-01 8.14890E-24
7.11309E-01 7.97733E-24
7.15256E-01 7.80930E-24
7.19186E-01 7.64473E-24
7.23099E-01 7.48353E-24
7.26995E-01 7.32562E-24
7.30874E-01 7.17094E-24
7.34736E-01 7.01941E-24
7.38579E-01 6.87095E-24
7.42405E-01 6.72549E-24
7.46212E-01 6.58298E-24
7.50000E-01 6.44334E-24
7.53769E-01 6.30651E-24
7.57519E-01 6.17243E-24
7.61249E-01 6.04103E-24
7.64960E-01 5.91227E-24
7.68650E-01 5.78608E-24
7.72320E-01 5.66241E-24
7.75968E-01 5.54119E-24
7.79596E-01 5.42239E-24
7.83203E-01 5.30595E-24
7.86788E-01 5.19181E-24
7.90351E-01 5.07994E-24
7.93893E-01 4.97027E-24
7.97411E-01 4.86278E-24
8.00908E-01 4.75740E-24
8.04381E-01 4.65410E-24
8.07831E-01 4.55284E-24
8.11257E-01 4.45357E-24
8.14660E-01 4.35626E-24
8.18039E-01 4.26086E-24
8.21394E-01 4.16733E-24
8.24724E-01 4.07565E-24
8.28030E-01 3.98576E-24
8.31310E-01 3.89764E-24
8.34565E-01 3.81126E-24
8.37795E-01 3.72657E-24
8.40999E-01 3.64354E-24
8.44177E-01 3.56215E-24
8.47329E-01 3.48237E-24
8.50455E-01 3.40415E-24
8.53553E-01 3.32747E-24
8.56625E-01 3.25231E-24
8.59670E-01 3.17863E-24
8.62687E-01 3.10641E-24
8.65677E-01 3.03563E-24
8.68639E-01 2.96624E-24
8.71572E-01 2.89823E-24
8.74478E-01 2.83158E-24
8.77355E-01 2.76626E-24
8.80203E-01 2.70225E-24
8.83022E-01 2.63952E-24
8.85812E-01 2.57804E-24
8.88573E-01 2.51781E-24
8.91304E-01 2.45880E-24
8.94005E-01 2.40098E-24
8.96677E-01 2.34434E-24
8.99318E-01 2.28886E-24
9.01928E-01 2.23452E-24
9.04508E-01 2.18129E-24
9.07058E-01 2.12917E-24
9.09576E-01 2.07813E-24
9.12063E-01 2.02815E-24
9.14519E-01 1.97922E-24
9.16943E-01 1.93133E-24
9.19335E-01 1.88445E-24
9.21696E-01 1.83857E-24
9.24024E-01 1.79367E-24
9.26320E-01 1.74975E-24
9.28584E-01 1.70678E-24
9.30815E-01 1.66475E-24
9.33013E-01 1.62366E-24
9.35178E-01 1.58347E-24
9.37310E-01 1.54419E-24
9.39409E-01 1.50579E-24
9.41474E-01 1.46827E-24
9.43505E-01 1.43161E-24
9.45503E-01 1.39581E-24
9.47467E-01 1.36084E-24
9.49397E-01 1.32671E-24
9.51293E-01 1.29339E-24
9.53154E-01 1.26089E-24
9.54981E-01 1.22918E-24
9.56773E-01 1.19826E-24
9.58530E-01 1.16811E-24
9.60252E-01 1.13874E-24
9.61940E-01 1.11012E-24
9.63592E-01 1.08226E-24
9.65209E-01 1.05513E-24
9.66790E-01 1.02874E-24
9.68336E-01 1.00308E-24
9.69846E-01 9.78134E-25
9.71321E-01 9.53898E-25
9.72759E-01 9.30365E-25
9.74162E-01 9.07527E-25
9.75528E-01 8.85378E-25
9.76858E-01 8.63910E-25
9.78152E-01 8.43118E-25
9.79410E-01 8.22994E-25
9.80631E-01 8.03534E-25
9.81815E-01 7.84731E-25
9.82963E-01 7.66579E-25
9.84074E-01 7.49074E-25
9.85148E-01 7.32209E-25
9.86185E-01 7.15980E-25
9.87185E-01 7.00381E-25
9.88148E-01 6.85410E-25
9.89074E-01 6.71060E-25
9.89962E-01 6.57327E-25
9.90814E-01 6.44209E-25
9.91627E-01 6.31700E-25
9.92404E-01 6.19797E-25
9.93143E-01 6.08496E-25
9.93844E-01 5.97795E-25
9.94508E-01 5.87690E-25
9.95134E-01 5.78178E-25
9.95722E-01 5.69256E-25
9.96273E-01 5.60922E-25
9.96786E-01 5.53173E-25
9.97261E-01 5.46007E-25
9.97698E-01 5.39422E-25
9.98097E-01 5.33416E-25
9.98459E-01 5.27988E-25
9.98782E-01 5.23135E-25
9.99067E-01 5.18856E-25
9.99315E-01 5.15150E-25
9.99524E-01 5.12016E-25
9.99695E-01 5.09453E-25
9.99829E-01 5.07461E-25
9.99924E-01 5.06038E-25
9.99981E-01 5.05185E-25
1.00000E+00 5.04900E-25
