 #
 # Subroutine ELSEPA. Elastic scattering of electrons and positrons
 #                    by neutral atoms and positive ions
 #
 # Projectile: electron
 # Kinetic energy = 6.00000E+06 eV = 2.20496E+05 a.u.
 #
 # WARNING: High-energy factorization with free-atom DF screening.
 #          Absorption, polarization and exchange corrections are
 #          switched off.
 #          Phase shifts are calculated for the bare nucleus.
 #          Scattering amplitudes are not evaluated.
 #
 # Element: Ce,  Z =  58,  atomic weight = 1.40116E+02 g/mol
 #
 # Nuclear model: Fermi distribution
 #                Average radius = 5.55750E-13 cm
 #                Skin thickness = 5.46000E-14 cm
 #
 # Number of electrons = 58
 #
 # Total elastic cross section = 7.33522E-18 cm**2 = 2.61945E-01 a0**2
 # 1st transport cross section = 1.32590E-22 cm**2 = 4.73488E-06 a0**2
 # 2nd transport cross section = 3.67864E-22 cm**2 = 1.31367E-05 a0**2
 #
 #
 # Differential cross section:                       MU=(1-COS(THETA))/2
 #
 #  THETA        MU          DCS          DCS        Sherman      error
 #  (deg)                 (cm**2/sr)   (a0**2/sr)    function
 #----------------------------------------------------------------------
0.00000E+00 4.74894E-12
7.61557E-13 4.74882E-12
1.18994E-12 4.74876E-12
1.71346E-12 4.74868E-12
2.33225E-12 4.74859E-12
3.04617E-12 4.74848E-12
3.85530E-12 4.74836E-12
4.75964E-12 4.74822E-12
5.75917E-12 4.74807E-12
6.85391E-12 4.74790E-12
8.04379E-12 4.74772E-12
9.32893E-12 4.74753E-12
1.07092E-11 4.74732E-12
1.21847E-11 4.74710E-12
1.37554E-11 4.74686E-12
1.54213E-11 4.74661E-12
1.71823E-11 4.74634E-12
1.90386E-11 4.74606E-12
2.09900E-11 4.74577E-12
2.30367E-11 4.74546E-12
2.51785E-11 4.74513E-12
2.74156E-11 4.74480E-12
2.97478E-11 4.74444E-12
3.21752E-11 4.74408E-12
3.46979E-11 4.74370E-12
3.73157E-11 4.74330E-12
4.00286E-11 4.74289E-12
4.28368E-11 4.74247E-12
4.57402E-11 4.74203E-12
4.87388E-11 4.74158E-12
5.18325E-11 4.74111E-12
5.50215E-11 4.74063E-12
5.83057E-11 4.74014E-12
6.16850E-11 4.73963E-12
6.51595E-11 4.73911E-12
6.87293E-11 4.73857E-12
7.23943E-11 4.73802E-12
7.61544E-11 4.73745E-12
1.18991E-10 4.73101E-12
1.71347E-10 4.72316E-12
2.33223E-10 4.71390E-12
3.04617E-10 4.70326E-12
3.85531E-10 4.69125E-12
4.75965E-10 4.67788E-12
5.75917E-10 4.66318E-12
6.85389E-10 4.64717E-12
8.04380E-10 4.62986E-12
9.32891E-10 4.61128E-12
1.07092E-09 4.59146E-12
1.21847E-09 4.57042E-12
1.37554E-09 4.54821E-12
1.54213E-09 4.52483E-12
1.71823E-09 4.50033E-12
1.90386E-09 4.47474E-12
2.09900E-09 4.44809E-12
2.30367E-09 4.42041E-12
2.51785E-09 4.39175E-12
2.74156E-09 4.36214E-12
2.97478E-09 4.33161E-12
3.21752E-09 4.30021E-12
3.46978E-09 4.26796E-12
3.73156E-09 4.23492E-12
4.00286E-09 4.20112E-12
4.28368E-09 4.16659E-12
4.57402E-09 4.13138E-12
4.87388E-09 4.09553E-12
5.18326E-09 4.05908E-12
5.50215E-09 4.02216E-12
5.83057E-09 3.98512E-12
6.16850E-09 3.94746E-12
6.51596E-09 3.90922E-12
6.87293E-09 3.87044E-12
7.23942E-09 3.83114E-12
7.61544E-09 3.79136E-12
1.18991E-08 3.38451E-12
1.71347E-08 2.98055E-12
2.33223E-08 2.60238E-12
3.04617E-08 2.26191E-12
3.85531E-08 1.96436E-12
4.75965E-08 1.70951E-12
5.75917E-08 1.49397E-12
6.85389E-08 1.31357E-12
8.04380E-08 1.16162E-12
9.32891E-08 1.03327E-12
1.07092E-07 9.24252E-13
1.21847E-07 8.31005E-13
1.37554E-07 7.50620E-13
1.54213E-07 6.80661E-13
1.71823E-07 6.19291E-13
1.90386E-07 5.65078E-13
2.09900E-07 5.16890E-13
2.30367E-07 4.73807E-13
2.51785E-07 4.35012E-13
2.74156E-07 4.00043E-13
2.97478E-07 3.68428E-13
3.21752E-07 3.39773E-13
3.46978E-07 3.13745E-13
3.73156E-07 2.90009E-13
4.00286E-07 2.68361E-13
4.28368E-07 2.48621E-13
4.57402E-07 2.30600E-13
4.87388E-07 2.14131E-13
5.18325E-07 1.99058E-13
5.50215E-07 1.85064E-13
5.83057E-07 1.71649E-13
6.16850E-07 1.59613E-13
6.51596E-07 1.48788E-13
6.87293E-07 1.39027E-13
7.23942E-07 1.30205E-13
7.61543E-07 1.22211E-13
1.18991E-06 6.77633E-14
1.71347E-06 4.06087E-14
2.33223E-06 2.57083E-14
3.04617E-06 1.69735E-14
3.85531E-06 1.15938E-14
4.75964E-06 8.16400E-15
5.75916E-06 5.91403E-15
6.85388E-06 4.39524E-15
8.04378E-06 3.34600E-15
9.32888E-06 2.60092E-15
1.07092E-05 2.05804E-15
1.21846E-05 1.65312E-15
1.37553E-05 1.34479E-15
1.54212E-05 1.10463E-15
1.71822E-05 9.16002E-16
1.90385E-05 7.65660E-16
2.09899E-05 6.45252E-16
2.30365E-05 5.47222E-16
2.51783E-05 4.66560E-16
2.74153E-05 3.99887E-16
2.97475E-05 3.44477E-16
3.21749E-05 2.98214E-16
3.46974E-05 2.59414E-16
3.73152E-05 2.26694E-16
4.00281E-05 1.98970E-16
4.28362E-05 1.75359E-16
4.57395E-05 1.55142E-16
4.87380E-05 1.37747E-16
5.18317E-05 1.22715E-16
5.50205E-05 1.09664E-16
5.83045E-05 9.82824E-17
6.16838E-05 8.83838E-17
6.51582E-05 7.97420E-17
6.87277E-05 7.20978E-17
7.23925E-05 6.53612E-17
7.61524E-05 5.94182E-17
9.21439E-05 4.14474E-17
1.09658E-04 2.97965E-17
1.28695E-04 2.19779E-17
1.49255E-04 1.65661E-17
1.71338E-04 1.27233E-17
1.94942E-04 9.93210E-18
2.20070E-04 7.86417E-18
2.46720E-04 6.30655E-18
2.74892E-04 5.11561E-18
3.04586E-04 4.19275E-18
3.35803E-04 3.46866E-18
3.68542E-04 2.89423E-18
4.02802E-04 2.43373E-18
4.38585E-04 2.06130E-18
4.75889E-04 1.75750E-18
5.14715E-04 1.50770E-18
5.55063E-04 1.30080E-18
5.96931E-04 1.12824E-18
6.40321E-04 9.83400E-19
6.85233E-04 8.61130E-19
7.31665E-04 7.57329E-19
7.79618E-04 6.68750E-19
8.29092E-04 5.92784E-19
8.80086E-04 5.27331E-19
9.32601E-04 4.70696E-19
9.86636E-04 4.21490E-19
1.04219E-03 3.78571E-19
1.09927E-03 3.40998E-19
1.15786E-03 3.07988E-19
1.21797E-03 2.78892E-19
1.27961E-03 2.53165E-19
1.34276E-03 2.30349E-19
1.40743E-03 2.10057E-19
1.47362E-03 1.91960E-19
1.54133E-03 1.75778E-19
1.61056E-03 1.61272E-19
1.68131E-03 1.48239E-19
1.75357E-03 1.36503E-19
1.82735E-03 1.25910E-19
1.90265E-03 1.16329E-19
1.97947E-03 1.07646E-19
2.05780E-03 9.97629E-20
2.13765E-03 9.25914E-20
2.21902E-03 8.60559E-20
2.30190E-03 8.00898E-20
2.38630E-03 7.46341E-20
2.47222E-03 6.96375E-20
2.55965E-03 6.50543E-20
2.64859E-03 6.08439E-20
2.73905E-03 5.69707E-20
2.83103E-03 5.34021E-20
2.92452E-03 5.01103E-20
3.01952E-03 4.70695E-20
3.11604E-03 4.42573E-20
3.21407E-03 4.16532E-20
3.31362E-03 3.92390E-20
3.41468E-03 3.69981E-20
3.51725E-03 3.49159E-20
3.62133E-03 3.29790E-20
3.72692E-03 3.11755E-20
3.83403E-03 2.94943E-20
3.94265E-03 2.79257E-20
4.05278E-03 2.64606E-20
4.16442E-03 2.50910E-20
4.27757E-03 2.38095E-20
4.39223E-03 2.26094E-20
4.50840E-03 2.14844E-20
4.62608E-03 2.04291E-20
4.74527E-03 1.94382E-20
4.86597E-03 1.85071E-20
4.98817E-03 1.76315E-20
5.11188E-03 1.68075E-20
5.23711E-03 1.60315E-20
5.36383E-03 1.53000E-20
5.49207E-03 1.46101E-20
5.62181E-03 1.39590E-20
5.75306E-03 1.33441E-20
5.88581E-03 1.27630E-20
6.02007E-03 1.22134E-20
6.15583E-03 1.16933E-20
6.29310E-03 1.12010E-20
6.43187E-03 1.07344E-20
6.57214E-03 1.02921E-20
6.71392E-03 9.87255E-21
6.85720E-03 9.47441E-21
7.00198E-03 9.09627E-21
7.14827E-03 8.73704E-21
7.29605E-03 8.39550E-21
7.44534E-03 8.07068E-21
7.59612E-03 7.76155E-21
7.97965E-03 7.05171E-21
8.37255E-03 6.42197E-21
8.77480E-03 5.86169E-21
9.18641E-03 5.36181E-21
9.60736E-03 4.91466E-21
1.00376E-02 4.51368E-21
1.04773E-02 4.15323E-21
1.09262E-02 3.82847E-21
1.13844E-02 3.53521E-21
1.18520E-02 3.26984E-21
1.23288E-02 3.02922E-21
1.28150E-02 2.81061E-21
1.33104E-02 2.61164E-21
1.38150E-02 2.43020E-21
1.43290E-02 2.26445E-21
1.48521E-02 2.11280E-21
1.53845E-02 1.97382E-21
1.59262E-02 1.84625E-21
1.64770E-02 1.72897E-21
1.70371E-02 1.62100E-21
1.76063E-02 1.52145E-21
1.81848E-02 1.42955E-21
1.87724E-02 1.34460E-21
1.93692E-02 1.26597E-21
1.99751E-02 1.19310E-21
2.05901E-02 1.12548E-21
2.12143E-02 1.06267E-21
2.18476E-02 1.00425E-21
2.24900E-02 9.49871E-22
2.31415E-02 8.99184E-22
2.38021E-02 8.51895E-22
2.44717E-02 8.07731E-22
2.51504E-02 7.66445E-22
2.58382E-02 7.27812E-22
2.65349E-02 6.91630E-22
2.72407E-02 6.57712E-22
2.79555E-02 6.25887E-22
2.86793E-02 5.96003E-22
2.94120E-02 5.67916E-22
3.01537E-02 5.41498E-22
3.09043E-02 5.16630E-22
3.16639E-02 4.93202E-22
3.24324E-02 4.71114E-22
3.32098E-02 4.50275E-22
3.39961E-02 4.30599E-22
3.47912E-02 4.12010E-22
3.55952E-02 3.94433E-22
3.64081E-02 3.77805E-22
3.72297E-02 3.62062E-22
3.80602E-02 3.47149E-22
3.88995E-02 3.33013E-22
3.97476E-02 3.19605E-22
4.06044E-02 3.06880E-22
4.14700E-02 2.94796E-22
4.23443E-02 2.83315E-22
4.32273E-02 2.72400E-22
4.41190E-02 2.62017E-22
4.50194E-02 2.52135E-22
4.59284E-02 2.42726E-22
4.68461E-02 2.33762E-22
4.87074E-02 2.17068E-22
5.06030E-02 2.01871E-22
5.25328E-02 1.88011E-22
5.44967E-02 1.75347E-22
5.64946E-02 1.63755E-22
5.85262E-02 1.53127E-22
6.05914E-02 1.43367E-22
6.26901E-02 1.34390E-22
6.48222E-02 1.26121E-22
6.69873E-02 1.18493E-22
6.91854E-02 1.11446E-22
7.14163E-02 1.04927E-22
7.36799E-02 9.88883E-23
7.59760E-02 9.32881E-23
7.83043E-02 8.80878E-23
8.06647E-02 8.32529E-23
8.30571E-02 7.87527E-23
8.54812E-02 7.45591E-23
8.79369E-02 7.06474E-23
9.04240E-02 6.69945E-23
9.29422E-02 6.35798E-23
9.54915E-02 6.03845E-23
9.80716E-02 5.73917E-23
1.00682E-01 5.45859E-23
1.03323E-01 5.19531E-23
1.05995E-01 4.94805E-23
1.08696E-01 4.71561E-23
1.11427E-01 4.49694E-23
1.14188E-01 4.29103E-23
1.16978E-01 4.09700E-23
1.19797E-01 3.91403E-23
1.22645E-01 3.74134E-23
1.25522E-01 3.57824E-23
1.28428E-01 3.42409E-23
1.31361E-01 3.27828E-23
1.34323E-01 3.14029E-23
1.37313E-01 3.00960E-23
1.40330E-01 2.88574E-23
1.43375E-01 2.76828E-23
1.46447E-01 2.65681E-23
1.49545E-01 2.55098E-23
1.52671E-01 2.45044E-23
1.55823E-01 2.35486E-23
1.59001E-01 2.26396E-23
1.62205E-01 2.17744E-23
1.65435E-01 2.09506E-23
1.68690E-01 2.01658E-23
1.71970E-01 1.94178E-23
1.75276E-01 1.87044E-23
1.78606E-01 1.80237E-23
1.81961E-01 1.73739E-23
1.85340E-01 1.67532E-23
1.88743E-01 1.61602E-23
1.92169E-01 1.55933E-23
1.95619E-01 1.50512E-23
1.99092E-01 1.45325E-23
2.02589E-01 1.40359E-23
2.06107E-01 1.35604E-23
2.09649E-01 1.31049E-23
2.13212E-01 1.26683E-23
2.16797E-01 1.22497E-23
2.20404E-01 1.18483E-23
2.24032E-01 1.14630E-23
2.27680E-01 1.10932E-23
2.31350E-01 1.07381E-23
2.35040E-01 1.03970E-23
2.38751E-01 1.00693E-23
2.42481E-01 9.75422E-24
2.46231E-01 9.45122E-24
2.50000E-01 9.15981E-24
2.53788E-01 8.87942E-24
2.57595E-01 8.60950E-24
2.61421E-01 8.34960E-24
2.65264E-01 8.09928E-24
2.69126E-01 7.85812E-24
2.73005E-01 7.62571E-24
2.76901E-01 7.40166E-24
2.80814E-01 7.18560E-24
2.84744E-01 6.97719E-24
2.88691E-01 6.77610E-24
2.92653E-01 6.58203E-24
2.96632E-01 6.39469E-24
3.00625E-01 6.21377E-24
3.04634E-01 6.03902E-24
3.08658E-01 5.87019E-24
3.12697E-01 5.70703E-24
3.16749E-01 5.54931E-24
3.20816E-01 5.39682E-24
3.24896E-01 5.24934E-24
3.28990E-01 5.10668E-24
3.33097E-01 4.96864E-24
3.37216E-01 4.83505E-24
3.41348E-01 4.70573E-24
3.45492E-01 4.58052E-24
3.49647E-01 4.45926E-24
3.53814E-01 4.34179E-24
3.57992E-01 4.22799E-24
3.62181E-01 4.11770E-24
3.66381E-01 4.01080E-24
3.70590E-01 3.90716E-24
3.74810E-01 3.80667E-24
3.79039E-01 3.70920E-24
3.83277E-01 3.61466E-24
3.87524E-01 3.52292E-24
3.91780E-01 3.43390E-24
3.96044E-01 3.34750E-24
4.00316E-01 3.26362E-24
4.04596E-01 3.18217E-24
4.08882E-01 3.10307E-24
4.13176E-01 3.02625E-24
4.17476E-01 2.95161E-24
4.21783E-01 2.87909E-24
4.26095E-01 2.80861E-24
4.30413E-01 2.74011E-24
4.34737E-01 2.67352E-24
4.39065E-01 2.60877E-24
4.43398E-01 2.54581E-24
4.47736E-01 2.48457E-24
4.52077E-01 2.42500E-24
4.56422E-01 2.36704E-24
4.60770E-01 2.31064E-24
4.65122E-01 2.25576E-24
4.69476E-01 2.20234E-24
4.73832E-01 2.15033E-24
4.78190E-01 2.09970E-24
4.82550E-01 2.05039E-24
4.86912E-01 2.00238E-24
4.91274E-01 1.95561E-24
4.95637E-01 1.91004E-24
5.00000E-01 1.86565E-24
5.04363E-01 1.82240E-24
5.08726E-01 1.78024E-24
5.13088E-01 1.73916E-24
5.17450E-01 1.69911E-24
5.21810E-01 1.66006E-24
5.26168E-01 1.62199E-24
5.30524E-01 1.58486E-24
5.34878E-01 1.54866E-24
5.39230E-01 1.51334E-24
5.43578E-01 1.47888E-24
5.47923E-01 1.44527E-24
5.52264E-01 1.41247E-24
5.56602E-01 1.38047E-24
5.60935E-01 1.34923E-24
5.65263E-01 1.31874E-24
5.69587E-01 1.28898E-24
5.73905E-01 1.25993E-24
5.78217E-01 1.23157E-24
5.82524E-01 1.20387E-24
5.86824E-01 1.17682E-24
5.91118E-01 1.15040E-24
5.95404E-01 1.12460E-24
5.99684E-01 1.09940E-24
6.03956E-01 1.07477E-24
6.08220E-01 1.05072E-24
6.12476E-01 1.02721E-24
6.16723E-01 1.00424E-24
6.20961E-01 9.81790E-25
6.25190E-01 9.59849E-25
6.29410E-01 9.38402E-25
6.33619E-01 9.17437E-25
6.37819E-01 8.96942E-25
6.42008E-01 8.76903E-25
6.46186E-01 8.57310E-25
6.50353E-01 8.38150E-25
6.54508E-01 8.19413E-25
6.58652E-01 8.01088E-25
6.62784E-01 7.83165E-25
6.66903E-01 7.65633E-25
6.71010E-01 7.48483E-25
6.75104E-01 7.31705E-25
6.79184E-01 7.15290E-25
6.83251E-01 6.99228E-25
6.87303E-01 6.83512E-25
6.91342E-01 6.68133E-25
6.95366E-01 6.53083E-25
6.99375E-01 6.38353E-25
7.03368E-01 6.23936E-25
7.07347E-01 6.09825E-25
7.11309E-01 5.96011E-25
7.15256E-01 5.82489E-25
7.19186E-01 5.69251E-25
7.23099E-01 5.56290E-25
7.26995E-01 5.43601E-25
7.30874E-01 5.31176E-25
7.34736E-01 5.19010E-25
7.38579E-01 5.07096E-25
7.42405E-01 4.95429E-25
7.46212E-01 4.84003E-25
7.50000E-01 4.72813E-25
7.53769E-01 4.61853E-25
7.57519E-01 4.51119E-25
7.61249E-01 4.40604E-25
7.64960E-01 4.30305E-25
7.68650E-01 4.20215E-25
7.72320E-01 4.10332E-25
7.75968E-01 4.00650E-25
7.79596E-01 3.91165E-25
7.83203E-01 3.81872E-25
7.86788E-01 3.72767E-25
7.90351E-01 3.63847E-25
7.93893E-01 3.55107E-25
7.97411E-01 3.46544E-25
8.00908E-01 3.38154E-25
8.04381E-01 3.29932E-25
8.07831E-01 3.21876E-25
8.11257E-01 3.13983E-25
8.14660E-01 3.06248E-25
8.18039E-01 2.98668E-25
8.21394E-01 2.91241E-25
8.24724E-01 2.83963E-25
8.28030E-01 2.76831E-25
8.31310E-01 2.69842E-25
8.34565E-01 2.62993E-25
8.37795E-01 2.56282E-25
8.40999E-01 2.49706E-25
8.44177E-01 2.43262E-25
8.47329E-01 2.36947E-25
8.50455E-01 2.30759E-25
8.53553E-01 2.24696E-25
8.56625E-01 2.18755E-25
8.59670E-01 2.12933E-25
8.62687E-01 2.07229E-25
8.65677E-01 2.01640E-25
8.68639E-01 1.96165E-25
8.71572E-01 1.90800E-25
8.74478E-01 1.85545E-25
8.77355E-01 1.80396E-25
8.80203E-01 1.75352E-25
8.83022E-01 1.70411E-25
8.85812E-01 1.65572E-25
8.88573E-01 1.60831E-25
8.91304E-01 1.56189E-25
8.94005E-01 1.51642E-25
8.96677E-01 1.47189E-25
8.99318E-01 1.42830E-25
9.01928E-01 1.38561E-25
9.04508E-01 1.34381E-25
9.07058E-01 1.30289E-25
9.09576E-01 1.26284E-25
9.12063E-01 1.22364E-25
9.14519E-01 1.18528E-25
9.16943E-01 1.14773E-25
9.19335E-01 1.11100E-25
9.21696E-01 1.07506E-25
9.24024E-01 1.03990E-25
9.26320E-01 1.00552E-25
9.28584E-01 9.71892E-26
9.30815E-01 9.39014E-26
9.33013E-01 9.06871E-26
9.35178E-01 8.75453E-26
9.37310E-01 8.44750E-26
9.39409E-01 8.14749E-26
9.41474E-01 7.85442E-26
9.43505E-01 7.56818E-26
9.45503E-01 7.28868E-26
9.47467E-01 7.01581E-26
9.49397E-01 6.74950E-26
9.51293E-01 6.48964E-26
9.53154E-01 6.23616E-26
9.54981E-01 5.98896E-26
9.56773E-01 5.74797E-26
9.58530E-01 5.51310E-26
9.60252E-01 5.28429E-26
9.61940E-01 5.06144E-26
9.63592E-01 4.84450E-26
9.65209E-01 4.63338E-26
9.66790E-01 4.42803E-26
9.68336E-01 4.22836E-26
9.69846E-01 4.03432E-26
9.71321E-01 3.84585E-26
9.72759E-01 3.66288E-26
9.74162E-01 3.48536E-26
9.75528E-01 3.31322E-26
9.76858E-01 3.14642E-26
9.78152E-01 2.98489E-26
9.79410E-01 2.82860E-26
9.80631E-01 2.67747E-26
9.81815E-01 2.53148E-26
9.82963E-01 2.39057E-26
9.84074E-01 2.25470E-26
9.85148E-01 2.12383E-26
9.86185E-01 1.99791E-26
9.87185E-01 1.87690E-26
9.88148E-01 1.76077E-26
9.89074E-01 1.64948E-26
9.89962E-01 1.54299E-26
9.90814E-01 1.44128E-26
9.91627E-01 1.34430E-26
9.92404E-01 1.25203E-26
9.93143E-01 1.16445E-26
9.93844E-01 1.08152E-26
9.94508E-01 1.00321E-26
9.95134E-01 9.29510E-27
9.95722E-01 8.60389E-27
9.96273E-01 7.95826E-27
9.96786E-01 7.35802E-27
9.97261E-01 6.80299E-27
9.97698E-01 6.29298E-27
9.98097E-01 5.82785E-27
9.98459E-01 5.40745E-27
9.98782E-01 5.03165E-27
9.99067E-01 4.70033E-27
9.99315E-01 4.41339E-27
9.99524E-01 4.17075E-27
9.99695E-01 3.97232E-27
9.99829E-01 3.81806E-27
9.99924E-01 3.70790E-27
9.99981E-01 3.64182E-27
1.00000E+00 3.61980E-27
