 #
 # Subroutine ELSEPA. Elastic scattering of electrons and positrons
 #                    by neutral atoms and positive ions
 #
 # Projectile: electron
 # Kinetic energy = 1.25000E+08 eV = 4.59367E+06 a.u.
 #
 # WARNING: High-energy factorization with free-atom DF screening.
 #          Absorption, polarization and exchange corrections are
 #          switched off.
 #          Phase shifts are calculated for the bare nucleus.
 #          Scattering amplitudes are not evaluated.
 #
 # Element: Ce,  Z =  58,  atomic weight = 1.40116E+02 g/mol
 #
 # Nuclear model: Fermi distribution
 #                Average radius = 5.55750E-13 cm
 #                Skin thickness = 5.46000E-14 cm
 #
 # Number of electrons = 58
 #
 # Total elastic cross section = 7.28471E-18 cm**2 = 2.60142E-01 a0**2
 # 1st transport cross section = 4.18038E-25 cm**2 = 1.49284E-08 a0**2
 # 2nd transport cross section = 1.24741E-24 cm**2 = 4.45458E-08 a0**2
 #
 #
 # Differential cross section:                       MU=(1-COS(THETA))/2
 #
 #  THETA        MU          DCS          DCS        Sherman      error
 #  (deg)                 (cm**2/sr)   (a0**2/sr)    function
 #----------------------------------------------------------------------
0.00000E+00 1.76468E-09
7.61557E-13 1.74878E-09
1.18994E-12 1.73995E-09
1.71346E-12 1.72925E-09
2.33225E-12 1.71675E-09
3.04617E-12 1.70250E-09
3.85530E-12 1.68659E-09
4.75964E-12 1.66909E-09
5.75917E-12 1.65008E-09
6.85391E-12 1.62967E-09
8.04379E-12 1.60795E-09
9.32893E-12 1.58502E-09
1.07092E-11 1.56098E-09
1.21847E-11 1.53594E-09
1.37554E-11 1.51000E-09
1.54213E-11 1.48346E-09
1.71823E-11 1.45628E-09
1.90386E-11 1.42834E-09
2.09900E-11 1.39971E-09
2.30367E-11 1.37062E-09
2.51785E-11 1.34186E-09
2.74156E-11 1.31268E-09
2.97478E-11 1.28314E-09
3.21752E-11 1.25331E-09
3.46979E-11 1.22417E-09
3.73157E-11 1.19514E-09
4.00286E-11 1.16603E-09
4.28368E-11 1.13689E-09
4.57402E-11 1.10827E-09
4.87388E-11 1.08047E-09
5.18325E-11 1.05278E-09
5.50215E-11 1.02526E-09
5.83057E-11 9.97966E-10
6.16850E-11 9.72098E-10
6.51595E-11 9.46481E-10
6.87293E-11 9.21146E-10
7.23943E-11 8.96121E-10
7.61544E-11 8.72180E-10
1.18991E-10 6.64983E-10
1.71347E-10 5.13451E-10
2.33223E-10 4.04919E-10
3.04617E-10 3.26459E-10
3.85531E-10 2.67959E-10
4.75965E-10 2.23021E-10
5.75917E-10 1.87507E-10
6.85389E-10 1.58825E-10
8.04380E-10 1.35332E-10
9.32891E-10 1.15886E-10
1.07092E-09 9.96399E-11
1.21847E-09 8.60423E-11
1.37554E-09 7.46174E-11
1.54213E-09 6.46747E-11
1.71823E-09 5.62648E-11
1.90386E-09 4.93895E-11
2.09900E-09 4.37178E-11
2.30367E-09 3.89150E-11
2.51785E-09 3.44336E-11
2.74156E-09 3.06754E-11
2.97478E-09 2.75013E-11
3.21752E-09 2.48023E-11
3.46978E-09 2.23051E-11
3.73156E-09 2.01134E-11
4.00286E-09 1.82265E-11
4.28368E-09 1.65933E-11
4.57402E-09 1.51183E-11
4.87388E-09 1.37560E-11
5.18326E-09 1.25653E-11
5.50215E-09 1.15200E-11
5.83057E-09 1.05969E-11
6.16850E-09 9.70811E-12
6.51596E-09 8.92183E-12
6.87293E-09 8.22381E-12
7.23942E-09 7.60207E-12
7.61544E-09 7.01904E-12
1.18991E-08 3.39078E-12
1.71347E-08 1.82857E-12
2.33223E-08 1.08186E-12
3.04617E-08 6.87057E-13
3.85531E-08 4.59705E-13
4.75965E-08 3.19259E-13
5.75917E-08 2.28359E-13
6.85389E-08 1.67221E-13
8.04380E-08 1.24937E-13
9.32891E-08 9.50664E-14
1.07092E-07 7.35547E-14
1.21847E-07 5.77842E-14
1.37554E-07 4.60169E-14
1.54213E-07 3.70850E-14
1.71823E-07 3.02483E-14
1.90386E-07 2.49152E-14
2.09900E-07 2.07259E-14
2.30367E-07 1.73711E-14
2.51785E-07 1.46792E-14
2.74156E-07 1.24879E-14
2.97478E-07 1.06927E-14
3.21752E-07 9.21000E-15
3.46978E-07 7.97417E-15
3.73156E-07 6.94145E-15
4.00286E-07 6.06781E-15
4.28368E-07 5.32893E-15
4.57402E-07 4.69821E-15
4.87388E-07 4.15819E-15
5.18325E-07 3.69363E-15
5.50215E-07 3.29153E-15
5.83057E-07 2.94314E-15
6.16850E-07 2.63887E-15
6.51596E-07 2.37322E-15
6.87293E-07 2.13987E-15
7.23942E-07 1.93449E-15
7.61543E-07 1.75315E-15
1.18991E-06 7.32967E-16
1.71347E-06 3.57990E-16
2.33223E-06 1.94989E-16
3.04617E-06 1.15102E-16
3.85531E-06 7.22661E-17
4.75964E-06 4.76365E-17
5.75916E-06 3.26638E-17
6.85388E-06 2.31386E-17
8.04378E-06 1.68459E-17
9.32888E-06 1.25540E-17
1.07092E-05 9.54564E-18
1.21846E-05 7.38662E-18
1.37553E-05 5.80479E-18
1.54212E-05 4.62449E-18
1.71822E-05 3.72944E-18
1.90385E-05 3.03963E-18
2.09899E-05 2.50410E-18
2.30365E-05 2.08124E-18
2.51783E-05 1.74364E-18
2.74153E-05 1.47153E-18
2.97475E-05 1.25034E-18
3.21749E-05 1.06918E-18
3.46974E-05 9.19732E-19
3.73152E-05 7.95589E-19
4.00281E-05 6.91769E-19
4.28362E-05 6.04376E-19
4.57395E-05 5.30359E-19
4.87380E-05 4.67315E-19
5.18317E-05 4.13343E-19
5.50205E-05 3.66927E-19
5.83045E-05 3.26841E-19
6.16838E-05 2.92086E-19
6.51582E-05 2.61839E-19
6.87277E-05 2.35418E-19
7.23925E-05 2.12254E-19
7.61524E-05 1.92132E-19
9.21439E-05 1.31406E-19
1.09658E-04 9.28942E-20
1.28695E-04 6.75293E-20
1.49255E-04 5.02636E-20
1.71338E-04 3.81873E-20
1.94942E-04 2.95326E-20
2.20070E-04 2.31997E-20
2.46720E-04 1.84793E-20
2.74892E-04 1.49020E-20
3.04586E-04 1.21515E-20
3.35803E-04 1.00082E-20
3.68542E-04 8.31806E-21
4.02802E-04 6.97073E-21
4.38585E-04 5.88596E-21
4.75889E-04 5.00464E-21
5.14715E-04 4.28255E-21
5.55063E-04 3.68640E-21
5.96931E-04 3.19066E-21
6.40321E-04 2.77570E-21
6.85233E-04 2.42619E-21
7.31665E-04 2.13010E-21
7.79618E-04 1.87793E-21
8.29092E-04 1.66207E-21
8.80086E-04 1.47641E-21
9.32601E-04 1.31602E-21
9.86636E-04 1.17688E-21
1.04219E-03 1.05568E-21
1.09927E-03 9.49713E-22
1.15786E-03 8.56740E-22
1.21797E-03 7.74890E-22
1.27961E-03 7.02601E-22
1.34276E-03 6.38561E-22
1.40743E-03 5.81665E-22
1.47362E-03 5.30971E-22
1.54133E-03 4.85686E-22
1.61056E-03 4.45131E-22
1.68131E-03 4.08725E-22
1.75357E-03 3.75968E-22
1.82735E-03 3.46430E-22
1.90265E-03 3.19737E-22
1.97947E-03 2.95565E-22
2.05780E-03 2.73635E-22
2.13765E-03 2.53701E-22
2.21902E-03 2.35549E-22
2.30190E-03 2.18989E-22
2.38630E-03 2.03858E-22
2.47222E-03 1.90010E-22
2.55965E-03 1.77316E-22
2.64859E-03 1.65662E-22
2.73905E-03 1.54948E-22
2.83103E-03 1.45084E-22
2.92452E-03 1.35991E-22
3.01952E-03 1.27597E-22
3.11604E-03 1.19838E-22
3.21407E-03 1.12657E-22
3.31362E-03 1.06005E-22
3.41468E-03 9.98337E-23
3.51725E-03 9.41031E-23
3.62133E-03 8.87756E-23
3.72692E-03 8.38177E-23
3.83403E-03 7.91990E-23
3.94265E-03 7.48920E-23
4.05278E-03 7.08718E-23
4.16442E-03 6.71159E-23
4.27757E-03 6.36035E-23
4.39223E-03 6.03161E-23
4.50840E-03 5.72365E-23
4.62608E-03 5.43492E-23
4.74527E-03 5.16399E-23
4.86597E-03 4.90957E-23
4.98817E-03 4.67046E-23
5.11188E-03 4.44557E-23
5.23711E-03 4.23390E-23
5.36383E-03 4.03453E-23
5.49207E-03 3.84661E-23
5.62181E-03 3.66936E-23
5.75306E-03 3.50207E-23
5.88581E-03 3.34407E-23
6.02007E-03 3.19475E-23
6.15583E-03 3.05355E-23
6.29310E-03 2.91994E-23
6.43187E-03 2.79344E-23
6.57214E-03 2.67360E-23
6.71392E-03 2.56000E-23
6.85720E-03 2.45227E-23
7.00198E-03 2.35004E-23
7.14827E-03 2.25299E-23
7.29605E-03 2.16079E-23
7.44534E-03 2.07316E-23
7.59612E-03 1.98984E-23
7.97965E-03 1.79877E-23
8.37255E-03 1.62960E-23
8.77480E-03 1.47942E-23
9.18641E-03 1.34572E-23
9.60736E-03 1.22640E-23
1.00376E-02 1.11966E-23
1.04773E-02 1.02394E-23
1.09262E-02 9.37929E-24
1.13844E-02 8.60468E-24
1.18520E-02 7.90569E-24
1.23288E-02 7.27372E-24
1.28150E-02 6.70130E-24
1.33104E-02 6.18189E-24
1.38150E-02 5.70978E-24
1.43290E-02 5.27996E-24
1.48521E-02 4.88804E-24
1.53845E-02 4.53012E-24
1.59262E-02 4.20280E-24
1.64770E-02 3.90303E-24
1.70371E-02 3.62813E-24
1.76063E-02 3.37571E-24
1.81848E-02 3.14364E-24
1.87724E-02 2.93002E-24
1.93692E-02 2.73317E-24
1.99751E-02 2.55156E-24
2.05901E-02 2.38383E-24
2.12143E-02 2.22877E-24
2.18476E-02 2.08526E-24
2.24900E-02 1.95232E-24
2.31415E-02 1.82906E-24
2.38021E-02 1.71466E-24
2.44717E-02 1.60840E-24
2.51504E-02 1.50962E-24
2.58382E-02 1.41770E-24
2.65349E-02 1.33212E-24
2.72407E-02 1.25236E-24
2.79555E-02 1.17798E-24
2.86793E-02 1.10857E-24
2.94120E-02 1.04374E-24
3.01537E-02 9.83159E-25
3.09043E-02 9.26504E-25
3.16639E-02 8.73490E-25
3.24324E-02 8.23851E-25
3.32098E-02 7.77345E-25
3.39961E-02 7.33748E-25
3.47912E-02 6.92856E-25
3.55952E-02 6.54480E-25
3.64081E-02 6.18446E-25
3.72297E-02 5.84594E-25
3.80602E-02 5.52775E-25
3.88995E-02 5.22853E-25
3.97476E-02 4.94701E-25
4.06044E-02 4.68204E-25
4.14700E-02 4.43252E-25
4.23443E-02 4.19745E-25
4.32273E-02 3.97591E-25
4.41190E-02 3.76702E-25
4.50194E-02 3.57000E-25
4.59284E-02 3.38409E-25
4.68461E-02 3.20860E-25
4.87074E-02 2.88636E-25
5.06030E-02 2.59864E-25
5.25328E-02 2.34141E-25
5.44967E-02 2.11115E-25
5.64946E-02 1.90481E-25
5.85262E-02 1.71968E-25
6.05914E-02 1.55344E-25
6.26901E-02 1.40399E-25
6.48222E-02 1.26953E-25
6.69873E-02 1.14846E-25
6.91854E-02 1.03934E-25
7.14163E-02 9.40938E-26
7.36799E-02 8.52129E-26
7.59760E-02 7.71929E-26
7.83043E-02 6.99460E-26
8.06647E-02 6.33940E-26
8.30571E-02 5.74674E-26
8.54812E-02 5.21038E-26
8.79369E-02 4.72476E-26
9.04240E-02 4.28492E-26
9.29422E-02 3.88639E-26
9.54915E-02 3.52517E-26
9.80716E-02 3.19768E-26
1.00682E-01 2.90069E-26
1.03323E-01 2.63130E-26
1.05995E-01 2.38689E-26
1.08696E-01 2.16511E-26
1.11427E-01 1.96384E-26
1.14188E-01 1.78115E-26
1.16978E-01 1.61533E-26
1.19797E-01 1.46481E-26
1.22645E-01 1.32816E-26
1.25522E-01 1.20412E-26
1.28428E-01 1.09151E-26
1.31361E-01 9.89294E-27
1.34323E-01 8.96517E-27
1.37313E-01 8.12312E-27
1.40330E-01 7.35899E-27
1.43375E-01 6.66564E-27
1.46447E-01 6.03662E-27
1.49545E-01 5.46606E-27
1.52671E-01 4.94864E-27
1.55823E-01 4.47951E-27
1.59001E-01 4.05425E-27
1.62205E-01 3.66888E-27
1.65435E-01 3.31974E-27
1.68690E-01 3.00351E-27
1.71970E-01 2.71719E-27
1.75276E-01 2.45803E-27
1.78606E-01 2.22354E-27
1.81961E-01 2.01143E-27
1.85340E-01 1.81965E-27
1.88743E-01 1.64630E-27
1.92169E-01 1.48969E-27
1.95619E-01 1.34825E-27
1.99092E-01 1.22056E-27
2.02589E-01 1.10533E-27
2.06107E-01 1.00139E-27
2.09649E-01 9.07671E-28
2.13212E-01 8.23203E-28
2.16797E-01 7.47103E-28
2.20404E-01 6.78569E-28
2.24032E-01 6.16872E-28
2.27680E-01 5.61350E-28
2.31350E-01 5.11402E-28
2.35040E-01 4.66482E-28
2.38751E-01 4.26094E-28
2.42481E-01 3.89791E-28
2.46231E-01 3.57164E-28
2.50000E-01 3.27844E-28
2.53788E-01 3.01499E-28
2.57595E-01 2.77824E-28
2.61421E-01 2.56547E-28
2.65264E-01 2.37421E-28
2.69126E-01 2.20221E-28
2.73005E-01 2.04747E-28
2.76901E-01 1.90817E-28
2.80814E-01 1.78266E-28
2.84744E-01 1.66947E-28
2.88691E-01 1.56727E-28
2.92653E-01 1.47487E-28
2.96632E-01 1.39120E-28
3.00625E-01 1.31529E-28
3.04634E-01 1.24628E-28
3.08658E-01 1.18341E-28
3.12697E-01 1.12597E-28
3.16749E-01 1.07337E-28
3.20816E-01 1.02504E-28
3.24896E-01 9.80503E-29
3.28990E-01 9.39320E-29
3.33097E-01 9.01108E-29
3.37216E-01 8.65525E-29
3.41348E-01 8.32270E-29
3.45492E-01 8.01074E-29
3.49647E-01 7.71706E-29
3.53814E-01 7.43956E-29
3.57992E-01 7.17646E-29
3.62181E-01 6.92617E-29
3.66381E-01 6.68730E-29
3.70590E-01 6.45866E-29
3.74810E-01 6.23919E-29
3.79039E-01 6.02800E-29
3.83277E-01 5.82432E-29
3.87524E-01 5.62746E-29
3.91780E-01 5.43686E-29
3.96044E-01 5.25203E-29
4.00316E-01 5.07256E-29
4.04596E-01 4.89808E-29
4.08882E-01 4.72832E-29
4.13176E-01 4.56302E-29
4.17476E-01 4.40196E-29
4.21783E-01 4.24499E-29
4.26095E-01 4.09196E-29
4.30413E-01 3.94275E-29
4.34737E-01 3.79727E-29
4.39065E-01 3.65544E-29
4.43398E-01 3.51718E-29
4.47736E-01 3.38246E-29
4.52077E-01 3.25122E-29
4.56422E-01 3.12342E-29
4.60770E-01 2.99904E-29
4.65122E-01 2.87803E-29
4.69476E-01 2.76039E-29
4.73832E-01 2.64607E-29
4.78190E-01 2.53506E-29
4.82550E-01 2.42732E-29
4.86912E-01 2.32283E-29
4.91274E-01 2.22156E-29
4.95637E-01 2.12347E-29
5.00000E-01 2.02854E-29
5.04363E-01 1.93673E-29
5.08726E-01 1.84799E-29
5.13088E-01 1.76229E-29
5.17450E-01 1.67959E-29
5.21810E-01 1.59983E-29
5.26168E-01 1.52298E-29
5.30524E-01 1.44897E-29
5.34878E-01 1.37775E-29
5.39230E-01 1.30927E-29
5.43578E-01 1.24347E-29
5.47923E-01 1.18030E-29
5.52264E-01 1.11969E-29
5.56602E-01 1.06158E-29
5.60935E-01 1.00590E-29
5.65263E-01 9.52598E-30
5.69587E-01 9.01605E-30
5.73905E-01 8.52855E-30
5.78217E-01 8.06283E-30
5.82524E-01 7.61823E-30
5.86824E-01 7.19409E-30
5.91118E-01 6.78976E-30
5.95404E-01 6.40458E-30
5.99684E-01 6.03789E-30
6.03956E-01 5.68906E-30
6.08220E-01 5.35745E-30
6.12476E-01 5.04241E-30
6.16723E-01 4.74334E-30
6.20961E-01 4.45962E-30
6.25190E-01 4.19064E-30
6.29410E-01 3.93582E-30
6.33619E-01 3.69457E-30
6.37819E-01 3.46634E-30
6.42008E-01 3.25056E-30
6.46186E-01 3.04670E-30
6.50353E-01 2.85423E-30
6.54508E-01 2.67264E-30
6.58652E-01 2.50143E-30
6.62784E-01 2.34012E-30
6.66903E-01 2.18824E-30
6.71010E-01 2.04535E-30
6.75104E-01 1.91099E-30
6.79184E-01 1.78476E-30
6.83251E-01 1.66623E-30
6.87303E-01 1.55503E-30
6.91342E-01 1.45076E-30
6.95366E-01 1.35307E-30
6.99375E-01 1.26161E-30
7.03368E-01 1.17603E-30
7.07347E-01 1.09602E-30
7.11309E-01 1.02127E-30
7.15256E-01 9.51477E-31
7.19186E-01 8.86365E-31
7.23099E-01 8.25662E-31
7.26995E-01 7.69110E-31
7.30874E-01 7.16463E-31
7.34736E-01 6.67486E-31
7.38579E-01 6.21956E-31
7.42405E-01 5.79661E-31
7.46212E-01 5.40398E-31
7.50000E-01 5.03977E-31
7.53769E-01 4.70216E-31
7.57519E-01 4.38941E-31
7.61249E-01 4.09990E-31
7.64960E-01 3.83208E-31
7.68650E-01 3.58450E-31
7.72320E-01 3.35576E-31
7.75968E-01 3.14458E-31
7.79596E-01 2.94971E-31
7.83203E-01 2.77001E-31
7.86788E-01 2.60438E-31
7.90351E-01 2.45180E-31
7.93893E-01 2.31130E-31
7.97411E-01 2.18199E-31
8.00908E-01 2.06301E-31
8.04381E-01 1.95358E-31
8.07831E-01 1.85294E-31
8.11257E-01 1.76040E-31
8.14660E-01 1.67531E-31
8.18039E-01 1.59706E-31
8.21394E-01 1.52510E-31
8.24724E-01 1.45889E-31
8.28030E-01 1.39794E-31
8.31310E-01 1.34180E-31
8.34565E-01 1.29004E-31
8.37795E-01 1.24228E-31
8.40999E-01 1.19815E-31
8.44177E-01 1.15731E-31
8.47329E-01 1.11946E-31
8.50455E-01 1.08430E-31
8.53553E-01 1.05159E-31
8.56625E-01 1.02106E-31
8.59670E-01 9.92511E-32
8.62687E-01 9.65727E-32
8.65677E-01 9.40525E-32
8.68639E-01 9.16733E-32
8.71572E-01 8.94198E-32
8.74478E-01 8.72778E-32
8.77355E-01 8.52344E-32
8.80203E-01 8.32781E-32
8.83022E-01 8.13985E-32
8.85812E-01 7.95859E-32
8.88573E-01 7.78321E-32
8.91304E-01 7.61294E-32
8.94005E-01 7.44711E-32
8.96677E-01 7.28511E-32
8.99318E-01 7.12642E-32
9.01928E-01 6.97057E-32
9.04508E-01 6.81715E-32
9.07058E-01 6.66581E-32
9.09576E-01 6.51625E-32
9.12063E-01 6.36820E-32
9.14519E-01 6.22145E-32
9.16943E-01 6.07581E-32
9.19335E-01 5.93114E-32
9.21696E-01 5.78732E-32
9.24024E-01 5.64425E-32
9.26320E-01 5.50188E-32
9.28584E-01 5.36015E-32
9.30815E-01 5.21905E-32
9.33013E-01 5.07856E-32
9.35178E-01 4.93869E-32
9.37310E-01 4.79946E-32
9.39409E-01 4.66091E-32
9.41474E-01 4.52308E-32
9.43505E-01 4.38601E-32
9.45503E-01 4.24978E-32
9.47467E-01 4.11444E-32
9.49397E-01 3.98006E-32
9.51293E-01 3.84672E-32
9.53154E-01 3.71449E-32
9.54981E-01 3.58346E-32
9.56773E-01 3.45371E-32
9.58530E-01 3.32532E-32
9.60252E-01 3.19837E-32
9.61940E-01 3.07295E-32
9.63592E-01 2.94913E-32
9.65209E-01 2.82701E-32
9.66790E-01 2.70667E-32
9.68336E-01 2.58817E-32
9.69846E-01 2.47161E-32
9.71321E-01 2.35705E-32
9.72759E-01 2.24457E-32
9.74162E-01 2.13425E-32
9.75528E-01 2.02614E-32
9.76858E-01 1.92033E-32
9.78152E-01 1.81686E-32
9.79410E-01 1.71581E-32
9.80631E-01 1.61724E-32
9.81815E-01 1.52119E-32
9.82963E-01 1.42773E-32
9.84074E-01 1.33691E-32
9.85148E-01 1.24877E-32
9.86185E-01 1.16336E-32
9.87185E-01 1.08073E-32
9.88148E-01 1.00091E-32
9.89074E-01 9.23946E-33
9.89962E-01 8.49877E-33
9.90814E-01 7.78734E-33
9.91627E-01 7.10550E-33
9.92404E-01 6.45357E-33
9.93143E-01 5.83181E-33
9.93844E-01 5.24050E-33
9.94508E-01 4.67988E-33
9.95134E-01 4.15018E-33
9.95722E-01 3.65161E-33
9.96273E-01 3.18436E-33
9.96786E-01 2.74860E-33
9.97261E-01 2.34451E-33
9.97698E-01 1.97223E-33
9.98097E-01 1.63190E-33
9.98459E-01 1.32362E-33
9.98782E-01 1.04752E-33
9.99067E-01 8.03682E-34
9.99315E-01 5.92193E-34
9.99524E-01 4.13123E-34
9.99695E-01 2.66531E-34
9.99829E-01 1.52466E-34
9.99924E-01 7.09643E-35
9.99981E-01 2.20522E-35
1.00000E+00 5.75003E-36
