 #
 # Subroutine ELSEPA. Elastic scattering of electrons and positrons
 #                    by neutral atoms and positive ions
 #
 # Projectile: electron
 # Kinetic energy = 2.50000E+06 eV = 9.18733E+04 a.u.
 #
 # WARNING: High-energy factorization with free-atom DF screening.
 #          Absorption, polarization and exchange corrections are
 #          switched off.
 #          Phase shifts are calculated for the bare nucleus.
 #          Scattering amplitudes are not evaluated.
 #
 # Element: Ce,  Z =  58,  atomic weight = 1.40116E+02 g/mol
 #
 # Nuclear model: Fermi distribution
 #                Average radius = 5.55750E-13 cm
 #                Skin thickness = 5.46000E-14 cm
 #
 # Number of electrons = 58
 #
 # Total elastic cross section = 7.51190E-18 cm**2 = 2.68255E-01 a0**2
 # 1st transport cross section = 5.72149E-22 cm**2 = 2.04318E-05 a0**2
 # 2nd transport cross section = 1.56403E-21 cm**2 = 5.58526E-05 a0**2
 #
 #
 # Differential cross section:                       MU=(1-COS(THETA))/2
 #
 #  THETA        MU          DCS          DCS        Sherman      error
 #  (deg)                 (cm**2/sr)   (a0**2/sr)    function
 #----------------------------------------------------------------------
0.00000E+00 1.01560E-12
7.61557E-13 1.01560E-12
1.18994E-12 1.01559E-12
1.71346E-12 1.01559E-12
2.33225E-12 1.01558E-12
3.04617E-12 1.01558E-12
3.85530E-12 1.01557E-12
4.75964E-12 1.01557E-12
5.75917E-12 1.01556E-12
6.85391E-12 1.01555E-12
8.04379E-12 1.01555E-12
9.32893E-12 1.01554E-12
1.07092E-11 1.01553E-12
1.21847E-11 1.01552E-12
1.37554E-11 1.01551E-12
1.54213E-11 1.01550E-12
1.71823E-11 1.01549E-12
1.90386E-11 1.01547E-12
2.09900E-11 1.01546E-12
2.30367E-11 1.01545E-12
2.51785E-11 1.01543E-12
2.74156E-11 1.01542E-12
2.97478E-11 1.01540E-12
3.21752E-11 1.01538E-12
3.46979E-11 1.01537E-12
3.73157E-11 1.01535E-12
4.00286E-11 1.01533E-12
4.28368E-11 1.01531E-12
4.57402E-11 1.01529E-12
4.87388E-11 1.01527E-12
5.18325E-11 1.01525E-12
5.50215E-11 1.01523E-12
5.83057E-11 1.01521E-12
6.16850E-11 1.01519E-12
6.51595E-11 1.01516E-12
6.87293E-11 1.01514E-12
7.23943E-11 1.01511E-12
7.61544E-11 1.01509E-12
1.18991E-10 1.01480E-12
1.71347E-10 1.01445E-12
2.33223E-10 1.01403E-12
3.04617E-10 1.01355E-12
3.85531E-10 1.01301E-12
4.75965E-10 1.01240E-12
5.75917E-10 1.01173E-12
6.85389E-10 1.01100E-12
8.04380E-10 1.01020E-12
9.32891E-10 1.00934E-12
1.07092E-09 1.00842E-12
1.21847E-09 1.00744E-12
1.37554E-09 1.00639E-12
1.54213E-09 1.00529E-12
1.71823E-09 1.00412E-12
1.90386E-09 1.00289E-12
2.09900E-09 1.00160E-12
2.30367E-09 1.00025E-12
2.51785E-09 9.98843E-13
2.74156E-09 9.97375E-13
2.97478E-09 9.95848E-13
3.21752E-09 9.94263E-13
3.46978E-09 9.92620E-13
3.73156E-09 9.90920E-13
4.00286E-09 9.89162E-13
4.28368E-09 9.87349E-13
4.57402E-09 9.85479E-13
4.87388E-09 9.83554E-13
5.18326E-09 9.81574E-13
5.50215E-09 9.79541E-13
5.83057E-09 9.77453E-13
6.16850E-09 9.75313E-13
6.51596E-09 9.73119E-13
6.87293E-09 9.70876E-13
7.23942E-09 9.68579E-13
7.61544E-09 9.66233E-13
1.18991E-08 9.40140E-13
1.71347E-08 9.09778E-13
2.33223E-08 8.75915E-13
3.04617E-08 8.39596E-13
3.85531E-08 8.01034E-13
4.75965E-08 7.61631E-13
5.75917E-08 7.21326E-13
6.85389E-08 6.81754E-13
8.04380E-08 6.42221E-13
9.32891E-08 6.04463E-13
1.07092E-07 5.67576E-13
1.21847E-07 5.32781E-13
1.37554E-07 4.99521E-13
1.54213E-07 4.68357E-13
1.71823E-07 4.39099E-13
1.90386E-07 4.11748E-13
2.09900E-07 3.86442E-13
2.30367E-07 3.62765E-13
2.51785E-07 3.41101E-13
2.74156E-07 3.20776E-13
2.97478E-07 3.02322E-13
3.21752E-07 2.85012E-13
3.46978E-07 2.69234E-13
3.73156E-07 2.54503E-13
4.00286E-07 2.40973E-13
4.28368E-07 2.28390E-13
4.57402E-07 2.16749E-13
4.87388E-07 2.05937E-13
5.18325E-07 1.95875E-13
5.50215E-07 1.86518E-13
5.83057E-07 1.77770E-13
6.16850E-07 1.69609E-13
6.51596E-07 1.61956E-13
6.87293E-07 1.54782E-13
7.23942E-07 1.48042E-13
7.61543E-07 1.41691E-13
1.18991E-06 9.42120E-14
1.71347E-06 6.48881E-14
2.33223E-06 4.58213E-14
3.04617E-06 3.28049E-14
3.85531E-06 2.43925E-14
4.75964E-06 1.84167E-14
5.75916E-06 1.42913E-14
6.85388E-06 1.11768E-14
8.04378E-06 8.94702E-15
9.32888E-06 7.18525E-15
1.07092E-05 5.86854E-15
1.21846E-05 4.81182E-15
1.37553E-05 3.98920E-15
1.54212E-05 3.32452E-15
1.71822E-05 2.79166E-15
1.90385E-05 2.35838E-15
2.09899E-05 2.00546E-15
2.30365E-05 1.71712E-15
2.51783E-05 1.47694E-15
2.74153E-05 1.27909E-15
2.97475E-05 1.11229E-15
3.21749E-05 9.73455E-16
3.46974E-05 8.55612E-16
3.73152E-05 7.56167E-16
4.00281E-05 6.71069E-16
4.28362E-05 5.98206E-16
4.57395E-05 5.35268E-16
4.87380E-05 4.80633E-16
5.18317E-05 4.33056E-16
5.50205E-05 3.91254E-16
5.83045E-05 3.54634E-16
6.16838E-05 3.22169E-16
6.51582E-05 2.93597E-16
6.87277E-05 2.67852E-16
7.23925E-05 2.45041E-16
7.61524E-05 2.24518E-16
9.21439E-05 1.61214E-16
1.09658E-04 1.18580E-16
1.28695E-04 8.89423E-17
1.49255E-04 6.78677E-17
1.71338E-04 5.26300E-17
1.94942E-04 4.14224E-17
2.20070E-04 3.30404E-17
2.46720E-04 2.66742E-17
2.74892E-04 2.17637E-17
3.04586E-04 1.79496E-17
3.35803E-04 1.49378E-17
3.68542E-04 1.25403E-17
4.02802E-04 1.06029E-17
4.38585E-04 9.03258E-18
4.75889E-04 7.73954E-18
5.14715E-04 6.67456E-18
5.55063E-04 5.78443E-18
5.96931E-04 5.04017E-18
6.40321E-04 4.41112E-18
6.85233E-04 3.87803E-18
7.31665E-04 3.42296E-18
7.79618E-04 3.03278E-18
8.29092E-04 2.69686E-18
8.80086E-04 2.40592E-18
9.32601E-04 2.15357E-18
9.86636E-04 1.93302E-18
1.04219E-03 1.74040E-18
1.09927E-03 1.57079E-18
1.15786E-03 1.42164E-18
1.21797E-03 1.28957E-18
1.27961E-03 1.17262E-18
1.34276E-03 1.06856E-18
1.40743E-03 9.75836E-19
1.47362E-03 8.92953E-19
1.54133E-03 8.18677E-19
1.61056E-03 7.52002E-19
1.68131E-03 6.91949E-19
1.75357E-03 6.37830E-19
1.82735E-03 5.88856E-19
1.90265E-03 5.44551E-19
1.97947E-03 5.04303E-19
2.05780E-03 4.67746E-19
2.13765E-03 4.34432E-19
2.21902E-03 4.04055E-19
2.30190E-03 3.76289E-19
2.38630E-03 3.50879E-19
2.47222E-03 3.27588E-19
2.55965E-03 3.06202E-19
2.64859E-03 2.86548E-19
2.73905E-03 2.68445E-19
2.83103E-03 2.51766E-19
2.92452E-03 2.36359E-19
3.01952E-03 2.22128E-19
3.11604E-03 2.08952E-19
3.21407E-03 1.96748E-19
3.31362E-03 1.85426E-19
3.41468E-03 1.74913E-19
3.51725E-03 1.65139E-19
3.62133E-03 1.56043E-19
3.72692E-03 1.47570E-19
3.83403E-03 1.39667E-19
3.94265E-03 1.32291E-19
4.05278E-03 1.25398E-19
4.16442E-03 1.18954E-19
4.27757E-03 1.12919E-19
4.39223E-03 1.07267E-19
4.50840E-03 1.01966E-19
4.62608E-03 9.69919E-20
4.74527E-03 9.23195E-20
4.86597E-03 8.79279E-20
4.98817E-03 8.37965E-20
5.11188E-03 7.99070E-20
5.23711E-03 7.62429E-20
5.36383E-03 7.27879E-20
5.49207E-03 6.95289E-20
5.62181E-03 6.64512E-20
5.75306E-03 6.35444E-20
5.88581E-03 6.07955E-20
6.02007E-03 5.81957E-20
6.15583E-03 5.57343E-20
6.29310E-03 5.34034E-20
6.43187E-03 5.11941E-20
6.57214E-03 4.90991E-20
6.71392E-03 4.71113E-20
6.85720E-03 4.52241E-20
7.00198E-03 4.34316E-20
7.14827E-03 4.17277E-20
7.29605E-03 4.01078E-20
7.44534E-03 3.85663E-20
7.59612E-03 3.70993E-20
7.97965E-03 3.37283E-20
8.37255E-03 3.07358E-20
8.77480E-03 2.80715E-20
9.18641E-03 2.56928E-20
9.60736E-03 2.35638E-20
1.00376E-02 2.16533E-20
1.04773E-02 1.99349E-20
1.09262E-02 1.83857E-20
1.13844E-02 1.69859E-20
1.18520E-02 1.57185E-20
1.23288E-02 1.45688E-20
1.28150E-02 1.35236E-20
1.33104E-02 1.25717E-20
1.38150E-02 1.17033E-20
1.43290E-02 1.09097E-20
1.48521E-02 1.01832E-20
1.53845E-02 9.51700E-21
1.59262E-02 8.90523E-21
1.64770E-02 8.34259E-21
1.70371E-02 7.82438E-21
1.76063E-02 7.34641E-21
1.81848E-02 6.90497E-21
1.87724E-02 6.49675E-21
1.93692E-02 6.11873E-21
1.99751E-02 5.76829E-21
2.05901E-02 5.44301E-21
2.12143E-02 5.14072E-21
2.18476E-02 4.85951E-21
2.24900E-02 4.59761E-21
2.31415E-02 4.35343E-21
2.38021E-02 4.12555E-21
2.44717E-02 3.91267E-21
2.51504E-02 3.71360E-21
2.58382E-02 3.52727E-21
2.65349E-02 3.35270E-21
2.72407E-02 3.18903E-21
2.79555E-02 3.03540E-21
2.86793E-02 2.89113E-21
2.94120E-02 2.75547E-21
3.01537E-02 2.62787E-21
3.09043E-02 2.50770E-21
3.16639E-02 2.39448E-21
3.24324E-02 2.28770E-21
3.32098E-02 2.18695E-21
3.39961E-02 2.09180E-21
3.47912E-02 2.00188E-21
3.55952E-02 1.91685E-21
3.64081E-02 1.83638E-21
3.72297E-02 1.76019E-21
3.80602E-02 1.68800E-21
3.88995E-02 1.61956E-21
3.97476E-02 1.55462E-21
4.06044E-02 1.49299E-21
4.14700E-02 1.43445E-21
4.23443E-02 1.37883E-21
4.32273E-02 1.32593E-21
4.41190E-02 1.27561E-21
4.50194E-02 1.22771E-21
4.59284E-02 1.18209E-21
4.68461E-02 1.13863E-21
4.87074E-02 1.05766E-21
5.06030E-02 9.83938E-22
5.25328E-02 9.16678E-22
5.44967E-02 8.55204E-22
5.64946E-02 7.98923E-22
5.85262E-02 7.47307E-22
6.05914E-02 6.99896E-22
6.26901E-02 6.56277E-22
6.48222E-02 6.16089E-22
6.69873E-02 5.79006E-22
6.91854E-02 5.44741E-22
7.14163E-02 5.13038E-22
7.36799E-02 4.83665E-22
7.59760E-02 4.56417E-22
7.83043E-02 4.31109E-22
8.06647E-02 4.07576E-22
8.30571E-02 3.85666E-22
8.54812E-02 3.65246E-22
8.79369E-02 3.46193E-22
9.04240E-02 3.28398E-22
9.29422E-02 3.11759E-22
9.54915E-02 2.96187E-22
9.80716E-02 2.81599E-22
1.00682E-01 2.67920E-22
1.03323E-01 2.55081E-22
1.05995E-01 2.43021E-22
1.08696E-01 2.31682E-22
1.11427E-01 2.21012E-22
1.14188E-01 2.10963E-22
1.16978E-01 2.01492E-22
1.19797E-01 1.92559E-22
1.22645E-01 1.84126E-22
1.25522E-01 1.76160E-22
1.28428E-01 1.68629E-22
1.31361E-01 1.61505E-22
1.34323E-01 1.54760E-22
1.37313E-01 1.48372E-22
1.40330E-01 1.42316E-22
1.43375E-01 1.36571E-22
1.46447E-01 1.31120E-22
1.49545E-01 1.25942E-22
1.52671E-01 1.21022E-22
1.55823E-01 1.16344E-22
1.59001E-01 1.11894E-22
1.62205E-01 1.07657E-22
1.65435E-01 1.03623E-22
1.68690E-01 9.97783E-23
1.71970E-01 9.61128E-23
1.75276E-01 9.26164E-23
1.78606E-01 8.92795E-23
1.81961E-01 8.60934E-23
1.85340E-01 8.30498E-23
1.88743E-01 8.01409E-23
1.92169E-01 7.73595E-23
1.95619E-01 7.46987E-23
1.99092E-01 7.21524E-23
2.02589E-01 6.97143E-23
2.06107E-01 6.73791E-23
2.09649E-01 6.51414E-23
2.13212E-01 6.29962E-23
2.16797E-01 6.09389E-23
2.20404E-01 5.89651E-23
2.24032E-01 5.70708E-23
2.27680E-01 5.52520E-23
2.31350E-01 5.35051E-23
2.35040E-01 5.18266E-23
2.38751E-01 5.02133E-23
2.42481E-01 4.86621E-23
2.46231E-01 4.71701E-23
2.50000E-01 4.57346E-23
2.53788E-01 4.43529E-23
2.57595E-01 4.30225E-23
2.61421E-01 4.17413E-23
2.65264E-01 4.05069E-23
2.69126E-01 3.93174E-23
2.73005E-01 3.81706E-23
2.76901E-01 3.70648E-23
2.80814E-01 3.59982E-23
2.84744E-01 3.49691E-23
2.88691E-01 3.39758E-23
2.92653E-01 3.30170E-23
2.96632E-01 3.20910E-23
3.00625E-01 3.11967E-23
3.04634E-01 3.03325E-23
3.08658E-01 2.94974E-23
3.12697E-01 2.86901E-23
3.16749E-01 2.79096E-23
3.20816E-01 2.71546E-23
3.24896E-01 2.64242E-23
3.28990E-01 2.57175E-23
3.33097E-01 2.50335E-23
3.37216E-01 2.43713E-23
3.41348E-01 2.37301E-23
3.45492E-01 2.31091E-23
3.49647E-01 2.25075E-23
3.53814E-01 2.19245E-23
3.57992E-01 2.13596E-23
3.62181E-01 2.08119E-23
3.66381E-01 2.02809E-23
3.70590E-01 1.97660E-23
3.74810E-01 1.92665E-23
3.79039E-01 1.87819E-23
3.83277E-01 1.83116E-23
3.87524E-01 1.78552E-23
3.91780E-01 1.74122E-23
3.96044E-01 1.69820E-23
4.00316E-01 1.65643E-23
4.04596E-01 1.61585E-23
4.08882E-01 1.57644E-23
4.13176E-01 1.53814E-23
4.17476E-01 1.50092E-23
4.21783E-01 1.46475E-23
4.26095E-01 1.42958E-23
4.30413E-01 1.39539E-23
4.34737E-01 1.36214E-23
4.39065E-01 1.32980E-23
4.43398E-01 1.29834E-23
4.47736E-01 1.26773E-23
4.52077E-01 1.23795E-23
4.56422E-01 1.20896E-23
4.60770E-01 1.18074E-23
4.65122E-01 1.15327E-23
4.69476E-01 1.12652E-23
4.73832E-01 1.10048E-23
4.78190E-01 1.07511E-23
4.82550E-01 1.05040E-23
4.86912E-01 1.02632E-23
4.91274E-01 1.00286E-23
4.95637E-01 9.80004E-24
5.00000E-01 9.57724E-24
5.04363E-01 9.36007E-24
5.08726E-01 9.14835E-24
5.13088E-01 8.94192E-24
5.17450E-01 8.74061E-24
5.21810E-01 8.54429E-24
5.26168E-01 8.35280E-24
5.30524E-01 8.16599E-24
5.34878E-01 7.98374E-24
5.39230E-01 7.80592E-24
5.43578E-01 7.63238E-24
5.47923E-01 7.46302E-24
5.52264E-01 7.29771E-24
5.56602E-01 7.13633E-24
5.60935E-01 6.97879E-24
5.65263E-01 6.82496E-24
5.69587E-01 6.67474E-24
5.73905E-01 6.52805E-24
5.78217E-01 6.38476E-24
5.82524E-01 6.24480E-24
5.86824E-01 6.10808E-24
5.91118E-01 5.97449E-24
5.95404E-01 5.84396E-24
5.99684E-01 5.71641E-24
6.03956E-01 5.59176E-24
6.08220E-01 5.46992E-24
6.12476E-01 5.35083E-24
6.16723E-01 5.23440E-24
6.20961E-01 5.12058E-24
6.25190E-01 5.00930E-24
6.29410E-01 4.90048E-24
6.33619E-01 4.79407E-24
6.37819E-01 4.69000E-24
6.42008E-01 4.58821E-24
6.46186E-01 4.48865E-24
6.50353E-01 4.39126E-24
6.54508E-01 4.29598E-24
6.58652E-01 4.20276E-24
6.62784E-01 4.11155E-24
6.66903E-01 4.02229E-24
6.71010E-01 3.93495E-24
6.75104E-01 3.84947E-24
6.79184E-01 3.76581E-24
6.83251E-01 3.68392E-24
6.87303E-01 3.60376E-24
6.91342E-01 3.52529E-24
6.95366E-01 3.44847E-24
6.99375E-01 3.37325E-24
7.03368E-01 3.29961E-24
7.07347E-01 3.22750E-24
7.11309E-01 3.15689E-24
7.15256E-01 3.08773E-24
7.19186E-01 3.02001E-24
7.23099E-01 2.95369E-24
7.26995E-01 2.88872E-24
7.30874E-01 2.82509E-24
7.34736E-01 2.76276E-24
7.38579E-01 2.70170E-24
7.42405E-01 2.64188E-24
7.46212E-01 2.58328E-24
7.50000E-01 2.52587E-24
7.53769E-01 2.46961E-24
7.57519E-01 2.41450E-24
7.61249E-01 2.36049E-24
7.64960E-01 2.30757E-24
7.68650E-01 2.25571E-24
7.72320E-01 2.20488E-24
7.75968E-01 2.15508E-24
7.79596E-01 2.10627E-24
7.83203E-01 2.05843E-24
7.86788E-01 2.01155E-24
7.90351E-01 1.96560E-24
7.93893E-01 1.92056E-24
7.97411E-01 1.87642E-24
8.00908E-01 1.83315E-24
8.04381E-01 1.79074E-24
8.07831E-01 1.74917E-24
8.11257E-01 1.70842E-24
8.14660E-01 1.66847E-24
8.18039E-01 1.62932E-24
8.21394E-01 1.59094E-24
8.24724E-01 1.55331E-24
8.28030E-01 1.51643E-24
8.31310E-01 1.48028E-24
8.34565E-01 1.44484E-24
8.37795E-01 1.41010E-24
8.40999E-01 1.37605E-24
8.44177E-01 1.34267E-24
8.47329E-01 1.30995E-24
8.50455E-01 1.27788E-24
8.53553E-01 1.24644E-24
8.56625E-01 1.21562E-24
8.59670E-01 1.18542E-24
8.62687E-01 1.15582E-24
8.65677E-01 1.12680E-24
8.68639E-01 1.09837E-24
8.71572E-01 1.07050E-24
8.74478E-01 1.04318E-24
8.77355E-01 1.01642E-24
8.80203E-01 9.90192E-25
8.83022E-01 9.64492E-25
8.85812E-01 9.39311E-25
8.88573E-01 9.14640E-25
8.91304E-01 8.90470E-25
8.94005E-01 8.66792E-25
8.96677E-01 8.43598E-25
8.99318E-01 8.20879E-25
9.01928E-01 7.98628E-25
9.04508E-01 7.76837E-25
9.07058E-01 7.55498E-25
9.09576E-01 7.34605E-25
9.12063E-01 7.14148E-25
9.14519E-01 6.94123E-25
9.16943E-01 6.74522E-25
9.19335E-01 6.55337E-25
9.21696E-01 6.36563E-25
9.24024E-01 6.18194E-25
9.26320E-01 6.00223E-25
9.28584E-01 5.82644E-25
9.30815E-01 5.65451E-25
9.33013E-01 5.48639E-25
9.35178E-01 5.32202E-25
9.37310E-01 5.16134E-25
9.39409E-01 5.00431E-25
9.41474E-01 4.85087E-25
9.43505E-01 4.70097E-25
9.45503E-01 4.55456E-25
9.47467E-01 4.41160E-25
9.49397E-01 4.27204E-25
9.51293E-01 4.13583E-25
9.53154E-01 4.00294E-25
9.54981E-01 3.87331E-25
9.56773E-01 3.74691E-25
9.58530E-01 3.62370E-25
9.60252E-01 3.50364E-25
9.61940E-01 3.38669E-25
9.63592E-01 3.27281E-25
9.65209E-01 3.16197E-25
9.66790E-01 3.05413E-25
9.68336E-01 2.94926E-25
9.69846E-01 2.84733E-25
9.71321E-01 2.74831E-25
9.72759E-01 2.65216E-25
9.74162E-01 2.55886E-25
9.75528E-01 2.46837E-25
9.76858E-01 2.38068E-25
9.78152E-01 2.29574E-25
9.79410E-01 2.21354E-25
9.80631E-01 2.13405E-25
9.81815E-01 2.05725E-25
9.82963E-01 1.98312E-25
9.84074E-01 1.91162E-25
9.85148E-01 1.84274E-25
9.86185E-01 1.77647E-25
9.87185E-01 1.71277E-25
9.88148E-01 1.65163E-25
9.89074E-01 1.59303E-25
9.89962E-01 1.53696E-25
9.90814E-01 1.48339E-25
9.91627E-01 1.43231E-25
9.92404E-01 1.38371E-25
9.93143E-01 1.33757E-25
9.93844E-01 1.29388E-25
9.94508E-01 1.25263E-25
9.95134E-01 1.21379E-25
9.95722E-01 1.17737E-25
9.96273E-01 1.14334E-25
9.96786E-01 1.11171E-25
9.97261E-01 1.08245E-25
9.97698E-01 1.05557E-25
9.98097E-01 1.03105E-25
9.98459E-01 1.00889E-25
9.98782E-01 9.89083E-26
9.99067E-01 9.71616E-26
9.99315E-01 9.56489E-26
9.99524E-01 9.43697E-26
9.99695E-01 9.33235E-26
9.99829E-01 9.25102E-26
9.99924E-01 9.19294E-26
9.99981E-01 9.15810E-26
1.00000E+00 9.14649E-26
