 #
 # Subroutine ELSEPA. Elastic scattering of electrons and positrons
 #                    by neutral atoms and positive ions
 #
 # Projectile: electron
 # Kinetic energy = 4.50000E+06 eV = 1.65372E+05 a.u.
 #
 # WARNING: High-energy factorization with free-atom DF screening.
 #          Absorption, polarization and exchange corrections are
 #          switched off.
 #          Phase shifts are calculated for the bare nucleus.
 #          Scattering amplitudes are not evaluated.
 #
 # Element: Ce,  Z =  58,  atomic weight = 1.40116E+02 g/mol
 #
 # Nuclear model: Fermi distribution
 #                Average radius = 5.55750E-13 cm
 #                Skin thickness = 5.46000E-14 cm
 #
 # Number of electrons = 58
 #
 # Total elastic cross section = 7.36541E-18 cm**2 = 2.63024E-01 a0**2
 # 1st transport cross section = 2.16938E-22 cm**2 = 7.74699E-06 a0**2
 # 2nd transport cross section = 5.99018E-22 cm**2 = 2.13913E-05 a0**2
 #
 #
 # Differential cross section:                       MU=(1-COS(THETA))/2
 #
 #  THETA        MU          DCS          DCS        Sherman      error
 #  (deg)                 (cm**2/sr)   (a0**2/sr)    function
 #----------------------------------------------------------------------
0.00000E+00 2.81287E-12
7.61557E-13 2.81283E-12
1.18994E-12 2.81281E-12
1.71346E-12 2.81278E-12
2.33225E-12 2.81275E-12
3.04617E-12 2.81271E-12
3.85530E-12 2.81267E-12
4.75964E-12 2.81262E-12
5.75917E-12 2.81257E-12
6.85391E-12 2.81251E-12
8.04379E-12 2.81245E-12
9.32893E-12 2.81238E-12
1.07092E-11 2.81231E-12
1.21847E-11 2.81223E-12
1.37554E-11 2.81215E-12
1.54213E-11 2.81206E-12
1.71823E-11 2.81197E-12
1.90386E-11 2.81187E-12
2.09900E-11 2.81177E-12
2.30367E-11 2.81166E-12
2.51785E-11 2.81154E-12
2.74156E-11 2.81143E-12
2.97478E-11 2.81130E-12
3.21752E-11 2.81118E-12
3.46979E-11 2.81104E-12
3.73157E-11 2.81091E-12
4.00286E-11 2.81076E-12
4.28368E-11 2.81061E-12
4.57402E-11 2.81046E-12
4.87388E-11 2.81030E-12
5.18325E-11 2.81014E-12
5.50215E-11 2.80997E-12
5.83057E-11 2.80980E-12
6.16850E-11 2.80962E-12
6.51595E-11 2.80944E-12
6.87293E-11 2.80925E-12
7.23943E-11 2.80906E-12
7.61544E-11 2.80886E-12
1.18991E-10 2.80661E-12
1.71347E-10 2.80386E-12
2.33223E-10 2.80061E-12
3.04617E-10 2.79687E-12
3.85531E-10 2.79265E-12
4.75965E-10 2.78794E-12
5.75917E-10 2.78274E-12
6.85389E-10 2.77708E-12
8.04380E-10 2.77094E-12
9.32891E-10 2.76433E-12
1.07092E-09 2.75726E-12
1.21847E-09 2.74974E-12
1.37554E-09 2.74176E-12
1.54213E-09 2.73335E-12
1.71823E-09 2.72450E-12
1.90386E-09 2.71522E-12
2.09900E-09 2.70552E-12
2.30367E-09 2.69540E-12
2.51785E-09 2.68489E-12
2.74156E-09 2.67397E-12
2.97478E-09 2.66267E-12
3.21752E-09 2.65099E-12
3.46978E-09 2.63894E-12
3.73156E-09 2.62653E-12
4.00286E-09 2.61376E-12
4.28368E-09 2.60066E-12
4.57402E-09 2.58722E-12
4.87388E-09 2.57346E-12
5.18326E-09 2.55938E-12
5.50215E-09 2.54501E-12
5.83057E-09 2.53035E-12
6.16850E-09 2.51540E-12
6.51596E-09 2.50019E-12
6.87293E-09 2.48471E-12
7.23942E-09 2.46899E-12
7.61544E-09 2.45302E-12
1.18991E-08 2.28332E-12
1.71347E-08 2.10054E-12
2.33223E-08 1.91444E-12
3.04617E-08 1.73251E-12
3.85531E-08 1.56021E-12
4.75965E-08 1.40105E-12
5.75917E-08 1.25684E-12
6.85389E-08 1.12852E-12
8.04380E-08 1.01492E-12
9.32891E-08 9.14983E-13
1.07092E-07 8.27391E-13
1.21847E-07 7.50711E-13
1.37554E-07 6.83535E-13
1.54213E-07 6.24557E-13
1.71823E-07 5.72602E-13
1.90386E-07 5.26641E-13
2.09900E-07 4.85793E-13
2.30367E-07 4.49309E-13
2.51785E-07 4.16543E-13
2.74156E-07 3.86962E-13
2.97478E-07 3.60141E-13
3.21752E-07 3.35725E-13
3.46978E-07 3.13416E-13
3.73156E-07 2.92965E-13
4.00286E-07 2.74164E-13
4.28368E-07 2.56836E-13
4.57402E-07 2.40829E-13
4.87388E-07 2.26016E-13
5.18325E-07 2.12278E-13
5.50215E-07 1.99504E-13
5.83057E-07 1.87635E-13
6.16850E-07 1.76597E-13
6.51596E-07 1.66323E-13
6.87293E-07 1.56753E-13
7.23942E-07 1.47833E-13
7.61543E-07 1.39513E-13
1.18991E-06 8.02169E-14
1.71347E-06 4.98925E-14
2.33223E-06 3.27494E-14
3.04617E-06 2.24229E-14
3.85531E-06 1.58428E-14
4.75964E-06 1.14666E-14
5.75916E-06 8.46644E-15
6.85388E-06 6.35951E-15
8.04378E-06 4.86453E-15
9.32888E-06 3.78539E-15
1.07092E-05 2.99340E-15
1.21846E-05 2.40256E-15
1.37553E-05 1.95460E-15
1.54212E-05 1.60957E-15
1.71822E-05 1.33977E-15
1.90385E-05 1.12536E-15
2.09899E-05 9.53949E-16
2.30365E-05 8.14646E-16
2.51783E-05 6.99310E-16
2.74153E-05 6.03672E-16
2.97475E-05 5.23812E-16
3.21749E-05 4.56695E-16
3.46974E-05 3.99940E-16
3.73152E-05 3.51660E-16
4.00281E-05 3.10358E-16
4.28362E-05 2.74839E-16
4.57395E-05 2.44153E-16
4.87380E-05 2.17538E-16
5.18317E-05 1.94375E-16
5.50205E-05 1.74153E-16
5.83045E-05 1.56470E-16
6.16838E-05 1.40964E-16
6.51582E-05 1.27329E-16
6.87277E-05 1.15304E-16
7.23925E-05 1.04665E-16
7.61524E-05 9.52234E-17
9.21439E-05 6.66015E-17
1.09658E-04 4.79898E-17
1.28695E-04 3.54859E-17
1.49255E-04 2.68179E-17
1.71338E-04 2.06556E-17
1.94942E-04 1.61712E-17
2.20070E-04 1.28432E-17
2.46720E-04 1.03303E-17
2.74892E-04 8.40303E-18
3.04586E-04 6.90497E-18
3.35803E-04 5.72608E-18
3.68542E-04 4.78797E-18
4.02802E-04 4.03384E-18
4.38585E-04 3.42233E-18
4.75889E-04 2.92233E-18
5.14715E-04 2.51030E-18
5.55063E-04 2.16835E-18
5.96931E-04 1.88266E-18
6.40321E-04 1.64251E-18
6.85233E-04 1.43945E-18
7.31665E-04 1.26684E-18
7.79618E-04 1.11937E-18
8.29092E-04 9.92761E-19
8.80086E-04 8.83571E-19
9.32601E-04 7.89016E-19
9.86636E-04 7.06807E-19
1.04219E-03 6.35057E-19
1.09927E-03 5.72210E-19
1.15786E-03 5.16972E-19
1.21797E-03 4.68263E-19
1.27961E-03 4.25177E-19
1.34276E-03 3.86953E-19
1.40743E-03 3.52946E-19
1.47362E-03 3.22608E-19
1.54133E-03 2.95473E-19
1.61056E-03 2.71145E-19
1.68131E-03 2.49281E-19
1.75357E-03 2.29587E-19
1.82735E-03 2.11809E-19
1.90265E-03 1.95728E-19
1.97947E-03 1.81152E-19
2.05780E-03 1.67915E-19
2.13765E-03 1.55871E-19
2.21902E-03 1.44894E-19
2.30190E-03 1.34872E-19
2.38630E-03 1.25705E-19
2.47222E-03 1.17309E-19
2.55965E-03 1.09606E-19
2.64859E-03 1.02529E-19
2.73905E-03 9.60171E-20
2.83103E-03 9.00172E-20
2.92452E-03 8.44816E-20
3.01952E-03 7.93676E-20
3.11604E-03 7.46372E-20
3.21407E-03 7.02562E-20
3.31362E-03 6.61940E-20
3.41468E-03 6.24229E-20
3.51725E-03 5.89184E-20
3.62133E-03 5.56581E-20
3.72692E-03 5.26216E-20
3.83403E-03 4.97909E-20
3.94265E-03 4.71493E-20
4.05278E-03 4.46818E-20
4.16442E-03 4.23748E-20
4.27757E-03 4.02159E-20
4.39223E-03 3.81937E-20
4.50840E-03 3.62978E-20
4.62608E-03 3.45192E-20
4.74527E-03 3.28489E-20
4.86597E-03 3.12792E-20
4.98817E-03 2.98029E-20
5.11188E-03 2.84133E-20
5.23711E-03 2.71045E-20
5.36383E-03 2.58708E-20
5.49207E-03 2.47071E-20
5.62181E-03 2.36086E-20
5.75306E-03 2.25710E-20
5.88581E-03 2.15902E-20
6.02007E-03 2.06626E-20
6.15583E-03 1.97848E-20
6.29310E-03 1.89535E-20
6.43187E-03 1.81658E-20
6.57214E-03 1.74189E-20
6.71392E-03 1.67104E-20
6.85720E-03 1.60379E-20
7.00198E-03 1.53992E-20
7.14827E-03 1.47924E-20
7.29605E-03 1.42154E-20
7.44534E-03 1.36665E-20
7.59612E-03 1.31441E-20
7.97965E-03 1.19444E-20
8.37255E-03 1.08798E-20
8.77480E-03 9.93235E-21
9.18641E-03 9.08690E-21
9.60736E-03 8.33045E-21
1.00376E-02 7.65196E-21
1.04773E-02 7.04194E-21
1.09262E-02 6.49221E-21
1.13844E-02 5.99573E-21
1.18520E-02 5.54639E-21
1.23288E-02 5.13889E-21
1.28150E-02 4.76861E-21
1.33104E-02 4.43153E-21
1.38150E-02 4.12411E-21
1.43290E-02 3.84325E-21
1.48521E-02 3.58623E-21
1.53845E-02 3.35065E-21
1.59262E-02 3.13438E-21
1.64770E-02 2.93554E-21
1.70371E-02 2.75247E-21
1.76063E-02 2.58366E-21
1.81848E-02 2.42781E-21
1.87724E-02 2.28372E-21
1.93692E-02 2.15034E-21
1.99751E-02 2.02671E-21
2.05901E-02 1.91200E-21
2.12143E-02 1.80542E-21
2.18476E-02 1.70630E-21
2.24900E-02 1.61401E-21
2.31415E-02 1.52799E-21
2.38021E-02 1.44772E-21
2.44717E-02 1.37276E-21
2.51504E-02 1.30268E-21
2.58382E-02 1.23710E-21
2.65349E-02 1.17567E-21
2.72407E-02 1.11808E-21
2.79555E-02 1.06405E-21
2.86793E-02 1.01330E-21
2.94120E-02 9.65607E-22
3.01537E-02 9.20743E-22
3.09043E-02 8.78508E-22
3.16639E-02 8.38717E-22
3.24324E-02 8.01202E-22
3.32098E-02 7.65805E-22
3.39961E-02 7.32383E-22
3.47912E-02 7.00804E-22
3.55952E-02 6.70946E-22
3.64081E-02 6.42696E-22
3.72297E-02 6.15950E-22
3.80602E-02 5.90613E-22
3.88995E-02 5.66594E-22
3.97476E-02 5.43811E-22
4.06044E-02 5.22188E-22
4.14700E-02 5.01654E-22
4.23443E-02 4.82143E-22
4.32273E-02 4.63593E-22
4.41190E-02 4.45947E-22
4.50194E-02 4.29152E-22
4.59284E-02 4.13160E-22
4.68461E-02 3.97923E-22
4.87074E-02 3.69547E-22
5.06030E-02 3.43714E-22
5.25328E-02 3.20151E-22
5.44967E-02 2.98620E-22
5.64946E-02 2.78911E-22
5.85262E-02 2.60839E-22
6.05914E-02 2.44242E-22
6.26901E-02 2.28975E-22
6.48222E-02 2.14912E-22
6.69873E-02 2.01937E-22
6.91854E-02 1.89951E-22
7.14163E-02 1.78861E-22
7.36799E-02 1.68589E-22
7.59760E-02 1.59061E-22
7.83043E-02 1.50213E-22
8.06647E-02 1.41987E-22
8.30571E-02 1.34329E-22
8.54812E-02 1.27193E-22
8.79369E-02 1.20535E-22
9.04240E-02 1.14318E-22
9.29422E-02 1.08506E-22
9.54915E-02 1.03066E-22
9.80716E-02 9.79716E-23
1.00682E-01 9.31949E-23
1.03323E-01 8.87122E-23
1.05995E-01 8.45019E-23
1.08696E-01 8.05439E-23
1.11427E-01 7.68198E-23
1.14188E-01 7.33130E-23
1.16978E-01 7.00082E-23
1.19797E-01 6.68913E-23
1.22645E-01 6.39495E-23
1.25522E-01 6.11708E-23
1.28428E-01 5.85443E-23
1.31361E-01 5.60600E-23
1.34323E-01 5.37084E-23
1.37313E-01 5.14810E-23
1.40330E-01 4.93699E-23
1.43375E-01 4.73677E-23
1.46447E-01 4.54676E-23
1.49545E-01 4.36634E-23
1.52671E-01 4.19492E-23
1.55823E-01 4.03195E-23
1.59001E-01 3.87692E-23
1.62205E-01 3.72937E-23
1.65435E-01 3.58886E-23
1.68690E-01 3.45499E-23
1.71970E-01 3.32737E-23
1.75276E-01 3.20565E-23
1.78606E-01 3.08951E-23
1.81961E-01 2.97862E-23
1.85340E-01 2.87270E-23
1.88743E-01 2.77149E-23
1.92169E-01 2.67472E-23
1.95619E-01 2.58216E-23
1.99092E-01 2.49359E-23
2.02589E-01 2.40881E-23
2.06107E-01 2.32761E-23
2.09649E-01 2.24981E-23
2.13212E-01 2.17524E-23
2.16797E-01 2.10373E-23
2.20404E-01 2.03513E-23
2.24032E-01 1.96930E-23
2.27680E-01 1.90611E-23
2.31350E-01 1.84543E-23
2.35040E-01 1.78713E-23
2.38751E-01 1.73110E-23
2.42481E-01 1.67723E-23
2.46231E-01 1.62543E-23
2.50000E-01 1.57559E-23
2.53788E-01 1.52763E-23
2.57595E-01 1.48146E-23
2.61421E-01 1.43701E-23
2.65264E-01 1.39418E-23
2.69126E-01 1.35292E-23
2.73005E-01 1.31314E-23
2.76901E-01 1.27479E-23
2.80814E-01 1.23781E-23
2.84744E-01 1.20213E-23
2.88691E-01 1.16770E-23
2.92653E-01 1.13446E-23
2.96632E-01 1.10238E-23
3.00625E-01 1.07139E-23
3.04634E-01 1.04145E-23
3.08658E-01 1.01253E-23
3.12697E-01 9.84566E-24
3.16749E-01 9.57535E-24
3.20816E-01 9.31397E-24
3.24896E-01 9.06115E-24
3.28990E-01 8.81656E-24
3.33097E-01 8.57986E-24
3.37216E-01 8.35076E-24
3.41348E-01 8.12894E-24
3.45492E-01 7.91413E-24
3.49647E-01 7.70607E-24
3.53814E-01 7.50450E-24
3.57992E-01 7.30918E-24
3.62181E-01 7.11988E-24
3.66381E-01 6.93637E-24
3.70590E-01 6.75843E-24
3.74810E-01 6.58586E-24
3.79039E-01 6.41845E-24
3.83277E-01 6.25604E-24
3.87524E-01 6.09843E-24
3.91780E-01 5.94547E-24
3.96044E-01 5.79699E-24
4.00316E-01 5.65282E-24
4.04596E-01 5.51282E-24
4.08882E-01 5.37682E-24
4.13176E-01 5.24470E-24
4.17476E-01 5.11632E-24
4.21783E-01 4.99158E-24
4.26095E-01 4.87034E-24
4.30413E-01 4.75248E-24
4.34737E-01 4.63788E-24
4.39065E-01 4.52643E-24
4.43398E-01 4.41804E-24
4.47736E-01 4.31259E-24
4.52077E-01 4.21001E-24
4.56422E-01 4.11019E-24
4.60770E-01 4.01304E-24
4.65122E-01 3.91849E-24
4.69476E-01 3.82644E-24
4.73832E-01 3.73681E-24
4.78190E-01 3.64953E-24
4.82550E-01 3.56452E-24
4.86912E-01 3.48173E-24
4.91274E-01 3.40107E-24
4.95637E-01 3.32248E-24
5.00000E-01 3.24590E-24
5.04363E-01 3.17127E-24
5.08726E-01 3.09852E-24
5.13088E-01 3.02760E-24
5.17450E-01 2.95846E-24
5.21810E-01 2.89104E-24
5.26168E-01 2.82530E-24
5.30524E-01 2.76117E-24
5.34878E-01 2.69863E-24
5.39230E-01 2.63761E-24
5.43578E-01 2.57807E-24
5.47923E-01 2.51998E-24
5.52264E-01 2.46329E-24
5.56602E-01 2.40796E-24
5.60935E-01 2.35395E-24
5.65263E-01 2.30122E-24
5.69587E-01 2.24974E-24
5.73905E-01 2.19948E-24
5.78217E-01 2.15040E-24
5.82524E-01 2.10247E-24
5.86824E-01 2.05565E-24
5.91118E-01 2.00991E-24
5.95404E-01 1.96523E-24
5.99684E-01 1.92158E-24
6.03956E-01 1.87893E-24
6.08220E-01 1.83725E-24
6.12476E-01 1.79652E-24
6.16723E-01 1.75671E-24
6.20961E-01 1.71780E-24
6.25190E-01 1.67976E-24
6.29410E-01 1.64257E-24
6.33619E-01 1.60621E-24
6.37819E-01 1.57066E-24
6.42008E-01 1.53589E-24
6.46186E-01 1.50189E-24
6.50353E-01 1.46864E-24
6.54508E-01 1.43612E-24
6.58652E-01 1.40430E-24
6.62784E-01 1.37318E-24
6.66903E-01 1.34273E-24
6.71010E-01 1.31294E-24
6.75104E-01 1.28379E-24
6.79184E-01 1.25526E-24
6.83251E-01 1.22735E-24
6.87303E-01 1.20003E-24
6.91342E-01 1.17329E-24
6.95366E-01 1.14712E-24
6.99375E-01 1.12150E-24
7.03368E-01 1.09642E-24
7.07347E-01 1.07187E-24
7.11309E-01 1.04783E-24
7.15256E-01 1.02429E-24
7.19186E-01 1.00125E-24
7.23099E-01 9.78681E-25
7.26995E-01 9.56583E-25
7.30874E-01 9.34942E-25
7.34736E-01 9.13748E-25
7.38579E-01 8.92990E-25
7.42405E-01 8.72659E-25
7.46212E-01 8.52744E-25
7.50000E-01 8.33236E-25
7.53769E-01 8.14127E-25
7.57519E-01 7.95406E-25
7.61249E-01 7.77067E-25
7.64960E-01 7.59100E-25
7.68650E-01 7.41496E-25
7.72320E-01 7.24249E-25
7.75968E-01 7.07350E-25
7.79596E-01 6.90791E-25
7.83203E-01 6.74566E-25
7.86788E-01 6.58667E-25
7.90351E-01 6.43087E-25
7.93893E-01 6.27820E-25
7.97411E-01 6.12858E-25
8.00908E-01 5.98196E-25
8.04381E-01 5.83827E-25
8.07831E-01 5.69745E-25
8.11257E-01 5.55943E-25
8.14660E-01 5.42418E-25
8.18039E-01 5.29161E-25
8.21394E-01 5.16169E-25
8.24724E-01 5.03436E-25
8.28030E-01 4.90956E-25
8.31310E-01 4.78725E-25
8.34565E-01 4.66738E-25
8.37795E-01 4.54989E-25
8.40999E-01 4.43474E-25
8.44177E-01 4.32189E-25
8.47329E-01 4.21129E-25
8.50455E-01 4.10289E-25
8.53553E-01 3.99666E-25
8.56625E-01 3.89255E-25
8.59670E-01 3.79052E-25
8.62687E-01 3.69054E-25
8.65677E-01 3.59256E-25
8.68639E-01 3.49655E-25
8.71572E-01 3.40247E-25
8.74478E-01 3.31029E-25
8.77355E-01 3.21997E-25
8.80203E-01 3.13148E-25
8.83022E-01 3.04479E-25
8.85812E-01 2.95985E-25
8.88573E-01 2.87665E-25
8.91304E-01 2.79515E-25
8.94005E-01 2.71532E-25
8.96677E-01 2.63714E-25
8.99318E-01 2.56057E-25
9.01928E-01 2.48559E-25
9.04508E-01 2.41216E-25
9.07058E-01 2.34028E-25
9.09576E-01 2.26990E-25
9.12063E-01 2.20100E-25
9.14519E-01 2.13357E-25
9.16943E-01 2.06757E-25
9.19335E-01 2.00298E-25
9.21696E-01 1.93979E-25
9.24024E-01 1.87797E-25
9.26320E-01 1.81749E-25
9.28584E-01 1.75834E-25
9.30815E-01 1.70050E-25
9.33013E-01 1.64395E-25
9.35178E-01 1.58866E-25
9.37310E-01 1.53463E-25
9.39409E-01 1.48183E-25
9.41474E-01 1.43024E-25
9.43505E-01 1.37985E-25
9.45503E-01 1.33064E-25
9.47467E-01 1.28259E-25
9.49397E-01 1.23569E-25
9.51293E-01 1.18992E-25
9.53154E-01 1.14528E-25
9.54981E-01 1.10173E-25
9.56773E-01 1.05927E-25
9.58530E-01 1.01789E-25
9.60252E-01 9.77573E-26
9.61940E-01 9.38302E-26
9.63592E-01 9.00067E-26
9.65209E-01 8.62856E-26
9.66790E-01 8.26656E-26
9.68336E-01 7.91458E-26
9.69846E-01 7.57248E-26
9.71321E-01 7.24016E-26
9.72759E-01 6.91753E-26
9.74162E-01 6.60446E-26
9.75528E-01 6.30088E-26
9.76858E-01 6.00668E-26
9.78152E-01 5.72176E-26
9.79410E-01 5.44605E-26
9.80631E-01 5.17945E-26
9.81815E-01 4.92189E-26
9.82963E-01 4.67327E-26
9.84074E-01 4.43353E-26
9.85148E-01 4.20258E-26
9.86185E-01 3.98037E-26
9.87185E-01 3.76682E-26
9.88148E-01 3.56185E-26
9.89074E-01 3.36542E-26
9.89962E-01 3.17747E-26
9.90814E-01 2.99792E-26
9.91627E-01 2.82673E-26
9.92404E-01 2.66385E-26
9.93143E-01 2.50922E-26
9.93844E-01 2.36281E-26
9.94508E-01 2.22455E-26
9.95134E-01 2.09442E-26
9.95722E-01 1.97238E-26
9.96273E-01 1.85837E-26
9.96786E-01 1.75238E-26
9.97261E-01 1.65437E-26
9.97698E-01 1.56431E-26
9.98097E-01 1.48217E-26
9.98459E-01 1.40793E-26
9.98782E-01 1.34156E-26
9.99067E-01 1.28305E-26
9.99315E-01 1.23237E-26
9.99524E-01 1.18952E-26
9.99695E-01 1.15447E-26
9.99829E-01 1.12723E-26
9.99924E-01 1.10777E-26
9.99981E-01 1.09610E-26
1.00000E+00 1.09221E-26
