 #
 # Subroutine ELSEPA. Elastic scattering of electrons and positrons
 #                    by neutral atoms and positive ions
 #
 # Projectile: electron
 # Kinetic energy = 1.75000E+08 eV = 6.43113E+06 a.u.
 #
 # WARNING: High-energy factorization with free-atom DF screening.
 #          Absorption, polarization and exchange corrections are
 #          switched off.
 #          Phase shifts are calculated for the bare nucleus.
 #          Scattering amplitudes are not evaluated.
 #
 # Element: Ce,  Z =  58,  atomic weight = 1.40116E+02 g/mol
 #
 # Nuclear model: Fermi distribution
 #                Average radius = 5.55750E-13 cm
 #                Skin thickness = 5.46000E-14 cm
 #
 # Number of electrons = 58
 #
 # Total elastic cross section = 7.28526E-18 cm**2 = 2.60161E-01 a0**2
 # 1st transport cross section = 2.13456E-25 cm**2 = 7.62264E-09 a0**2
 # 2nd transport cross section = 6.38514E-25 cm**2 = 2.28017E-08 a0**2
 #
 #
 # Differential cross section:                       MU=(1-COS(THETA))/2
 #
 #  THETA        MU          DCS          DCS        Sherman      error
 #  (deg)                 (cm**2/sr)   (a0**2/sr)    function
 #----------------------------------------------------------------------
0.00000E+00 3.45072E-09
7.61557E-13 3.39039E-09
1.18994E-12 3.35721E-09
1.71346E-12 3.31738E-09
2.33225E-12 3.27129E-09
3.04617E-12 3.21938E-09
3.85530E-12 3.16216E-09
4.75964E-12 3.10015E-09
5.75917E-12 3.03391E-09
6.85391E-12 2.96398E-09
8.04379E-12 2.89143E-09
9.32893E-12 2.81631E-09
1.07092E-11 2.73843E-09
1.21847E-11 2.65924E-09
1.37554E-11 2.57992E-09
1.54213E-11 2.49917E-09
1.71823E-11 2.41816E-09
1.90386E-11 2.33887E-09
2.09900E-11 2.25925E-09
2.30367E-11 2.18000E-09
2.51785E-11 2.10397E-09
2.74156E-11 2.02841E-09
2.97478E-11 1.95356E-09
3.21752E-11 1.88290E-09
3.46979E-11 1.81327E-09
3.73157E-11 1.74481E-09
4.00286E-11 1.68032E-09
4.28368E-11 1.61756E-09
4.57402E-11 1.55621E-09
4.87388E-11 1.49838E-09
5.18325E-11 1.44273E-09
5.50215E-11 1.38855E-09
5.83057E-11 1.33735E-09
6.16850E-11 1.28854E-09
6.51595E-11 1.24118E-09
6.87293E-11 1.19625E-09
7.23943E-11 1.15373E-09
7.61544E-11 1.11257E-09
1.18991E-10 7.93244E-10
1.71347E-10 5.89877E-10
2.33223E-10 4.52897E-10
3.04617E-10 3.55248E-10
3.85531E-10 2.82625E-10
4.75965E-10 2.27172E-10
5.75917E-10 1.84134E-10
6.85389E-10 1.50480E-10
8.04380E-10 1.23269E-10
9.32891E-10 1.01940E-10
1.07092E-09 8.57330E-11
1.21847E-09 7.26317E-11
1.37554E-09 6.15468E-11
1.54213E-09 5.28144E-11
1.71823E-09 4.56758E-11
1.90386E-09 3.94592E-11
2.09900E-09 3.44188E-11
2.30367E-09 3.02458E-11
2.51785E-09 2.64985E-11
2.74156E-09 2.33914E-11
2.97478E-09 2.07939E-11
3.21752E-09 1.84117E-11
3.46978E-09 1.63991E-11
3.73156E-09 1.46892E-11
4.00286E-09 1.31322E-11
4.28368E-09 1.17843E-11
4.57402E-09 1.06238E-11
4.87388E-09 9.57571E-12
5.18326E-09 8.65203E-12
5.50215E-09 7.84753E-12
5.83057E-09 7.12512E-12
6.16850E-09 6.48046E-12
6.51596E-09 5.91324E-12
6.87293E-09 5.40481E-12
7.23942E-09 4.94712E-12
7.61544E-09 4.54076E-12
1.18991E-08 2.12382E-12
1.71347E-08 1.14259E-12
2.33223E-08 6.72352E-13
3.04617E-08 4.20504E-13
3.85531E-08 2.75057E-13
4.75965E-08 1.86685E-13
5.75917E-08 1.30932E-13
6.85389E-08 9.44811E-14
8.04380E-08 6.98516E-14
9.32891E-08 5.28198E-14
1.07092E-07 4.07025E-14
1.21847E-07 3.18655E-14
1.37554E-07 2.53149E-14
1.54213E-07 2.03707E-14
1.71823E-07 1.65795E-14
1.90386E-07 1.36321E-14
2.09900E-07 1.13079E-14
2.30367E-07 9.45873E-15
2.51785E-07 7.97248E-15
2.74156E-07 6.76672E-15
2.97478E-07 5.78001E-15
3.21752E-07 4.96553E-15
3.46978E-07 4.28937E-15
3.73156E-07 3.72429E-15
4.00286E-07 3.24909E-15
4.28368E-07 2.84716E-15
4.57402E-07 2.50510E-15
4.87388E-07 2.21285E-15
5.18325E-07 1.96195E-15
5.50215E-07 1.74558E-15
5.83057E-07 1.55818E-15
6.16850E-07 1.39517E-15
6.51596E-07 1.25292E-15
6.87293E-07 1.12834E-15
7.23942E-07 1.01886E-15
7.61543E-07 9.22334E-16
1.18991E-06 3.82904E-16
1.71347E-06 1.86391E-16
2.33223E-06 1.01318E-16
3.04617E-06 5.97128E-17
3.85531E-06 3.74366E-17
4.75964E-06 2.46446E-17
5.75916E-06 1.68777E-17
6.85388E-06 1.19427E-17
8.04378E-06 8.68615E-18
9.32888E-06 6.46745E-18
1.07092E-05 4.91385E-18
1.21846E-05 3.79987E-18
1.37553E-05 2.98436E-18
1.54212E-05 2.37631E-18
1.71822E-05 1.91552E-18
1.90385E-05 1.56058E-18
2.09899E-05 1.28518E-18
2.30365E-05 1.06783E-18
2.51783E-05 8.94366E-19
2.74153E-05 7.54603E-19
2.97475E-05 6.41037E-19
3.21749E-05 5.48050E-19
3.46974E-05 4.71363E-19
3.73152E-05 4.07675E-19
4.00281E-05 3.54425E-19
4.28362E-05 3.09610E-19
4.57395E-05 2.71661E-19
4.87380E-05 2.39343E-19
5.18317E-05 2.11680E-19
5.50205E-05 1.87893E-19
5.83045E-05 1.67353E-19
6.16838E-05 1.49546E-19
6.51582E-05 1.34051E-19
6.87277E-05 1.20517E-19
7.23925E-05 1.08653E-19
7.61524E-05 9.84385E-20
9.21439E-05 6.73227E-20
1.09658E-04 4.75922E-20
1.28695E-04 3.45979E-20
1.49255E-04 2.57528E-20
1.71338E-04 1.95663E-20
1.94942E-04 1.51325E-20
2.20070E-04 1.18879E-20
2.46720E-04 9.46936E-21
2.74892E-04 7.63640E-21
3.04586E-04 6.22695E-21
3.35803E-04 5.12854E-21
3.68542E-04 4.26236E-21
4.02802E-04 3.57181E-21
4.38585E-04 3.01578E-21
4.75889E-04 2.56400E-21
5.14715E-04 2.19384E-21
5.55063E-04 1.88821E-21
5.96931E-04 1.63405E-21
6.40321E-04 1.42129E-21
6.85233E-04 1.24209E-21
7.31665E-04 1.09028E-21
7.79618E-04 9.60968E-22
8.29092E-04 8.50275E-22
8.80086E-04 7.55073E-22
9.32601E-04 6.72827E-22
9.86636E-04 6.01476E-22
1.04219E-03 5.39331E-22
1.09927E-03 4.85001E-22
1.15786E-03 4.37334E-22
1.21797E-03 3.95373E-22
1.27961E-03 3.58316E-22
1.34276E-03 3.25491E-22
1.40743E-03 2.96330E-22
1.47362E-03 2.70354E-22
1.54133E-03 2.47152E-22
1.61056E-03 2.26377E-22
1.68131E-03 2.07731E-22
1.75357E-03 1.90956E-22
1.82735E-03 1.75832E-22
1.90265E-03 1.62168E-22
1.97947E-03 1.49797E-22
2.05780E-03 1.38576E-22
2.13765E-03 1.28379E-22
2.21902E-03 1.19095E-22
2.30190E-03 1.10629E-22
2.38630E-03 1.02895E-22
2.47222E-03 9.58182E-23
2.55965E-03 8.93337E-23
2.64859E-03 8.33827E-23
2.73905E-03 7.79134E-23
2.83103E-03 7.28799E-23
2.92452E-03 6.82412E-23
3.01952E-03 6.39609E-23
3.11604E-03 6.00062E-23
3.21407E-03 5.63480E-23
3.31362E-03 5.29600E-23
3.41468E-03 4.98188E-23
3.51725E-03 4.69030E-23
3.62133E-03 4.41938E-23
3.72692E-03 4.16737E-23
3.83403E-03 3.93273E-23
3.94265E-03 3.71404E-23
4.05278E-03 3.51003E-23
4.16442E-03 3.31953E-23
4.27757E-03 3.14150E-23
4.39223E-03 2.97496E-23
4.50840E-03 2.81904E-23
4.62608E-03 2.67296E-23
4.74527E-03 2.53597E-23
4.86597E-03 2.40741E-23
4.98817E-03 2.28668E-23
5.11188E-03 2.17320E-23
5.23711E-03 2.06647E-23
5.36383E-03 1.96601E-23
5.49207E-03 1.87140E-23
5.62181E-03 1.78222E-23
5.75306E-03 1.69812E-23
5.88581E-03 1.61876E-23
6.02007E-03 1.54381E-23
6.15583E-03 1.47300E-23
6.29310E-03 1.40606E-23
6.43187E-03 1.34273E-23
6.57214E-03 1.28279E-23
6.71392E-03 1.22602E-23
6.85720E-03 1.17224E-23
7.00198E-03 1.12125E-23
7.14827E-03 1.07288E-23
7.29605E-03 1.02698E-23
7.44534E-03 9.83400E-24
7.59612E-03 9.42002E-24
7.97965E-03 8.47236E-24
8.37255E-03 7.63561E-24
8.77480E-03 6.89477E-24
9.18641E-03 6.23719E-24
9.60736E-03 5.65209E-24
1.00376E-02 5.13027E-24
1.04773E-02 4.66387E-24
1.09262E-02 4.24613E-24
1.13844E-02 3.87123E-24
1.18520E-02 3.53413E-24
1.23288E-02 3.23048E-24
1.28150E-02 2.95647E-24
1.33104E-02 2.70881E-24
1.38150E-02 2.48461E-24
1.43290E-02 2.28134E-24
1.48521E-02 2.09677E-24
1.53845E-02 1.92896E-24
1.59262E-02 1.77618E-24
1.64770E-02 1.63691E-24
1.70371E-02 1.50979E-24
1.76063E-02 1.39363E-24
1.81848E-02 1.28738E-24
1.87724E-02 1.19007E-24
1.93692E-02 1.10086E-24
1.99751E-02 1.01900E-24
2.05901E-02 9.43814E-25
2.12143E-02 8.74690E-25
2.18476E-02 8.11085E-25
2.24900E-02 7.52510E-25
2.31415E-02 6.98522E-25
2.38021E-02 6.48725E-25
2.44717E-02 6.02758E-25
2.51504E-02 5.60296E-25
2.58382E-02 5.21046E-25
2.65349E-02 4.84740E-25
2.72407E-02 4.51136E-25
2.79555E-02 4.20015E-25
2.86793E-02 3.91175E-25
2.94120E-02 3.64435E-25
3.01537E-02 3.39628E-25
3.09043E-02 3.16603E-25
3.16639E-02 2.95221E-25
3.24324E-02 2.75356E-25
3.32098E-02 2.56891E-25
3.39961E-02 2.39721E-25
3.47912E-02 2.23747E-25
3.55952E-02 2.08882E-25
3.64081E-02 1.95041E-25
3.72297E-02 1.82151E-25
3.80602E-02 1.70141E-25
3.88995E-02 1.58949E-25
3.97476E-02 1.48514E-25
4.06044E-02 1.38783E-25
4.14700E-02 1.29705E-25
4.23443E-02 1.21235E-25
4.32273E-02 1.13330E-25
4.41190E-02 1.05950E-25
4.50194E-02 9.90588E-26
4.59284E-02 9.26227E-26
4.68461E-02 8.66103E-26
4.87074E-02 7.57430E-26
5.06030E-02 6.62495E-26
5.25328E-02 5.79511E-26
5.44967E-02 5.06935E-26
5.64946E-02 4.43435E-26
5.85262E-02 3.87857E-26
6.05914E-02 3.39199E-26
6.26901E-02 2.96591E-26
6.48222E-02 2.59277E-26
6.69873E-02 2.26598E-26
6.91854E-02 1.97979E-26
7.14163E-02 1.72917E-26
7.36799E-02 1.50974E-26
7.59760E-02 1.31766E-26
7.83043E-02 1.14957E-26
8.06647E-02 1.00253E-26
8.30571E-02 8.73944E-27
8.54812E-02 7.61559E-27
8.79369E-02 6.63383E-27
9.04240E-02 5.77667E-27
9.29422E-02 5.02877E-27
9.54915E-02 4.37665E-27
9.80716E-02 3.80845E-27
1.00682E-01 3.31376E-27
1.03323E-01 2.88341E-27
1.05995E-01 2.50935E-27
1.08696E-01 2.18451E-27
1.11427E-01 1.90265E-27
1.14188E-01 1.65832E-27
1.16978E-01 1.44671E-27
1.19797E-01 1.26361E-27
1.22645E-01 1.10533E-27
1.25522E-01 9.68608E-28
1.28428E-01 8.50616E-28
1.31361E-01 7.48861E-28
1.34323E-01 6.61165E-28
1.37313E-01 5.85625E-28
1.40330E-01 5.20577E-28
1.43375E-01 4.64572E-28
1.46447E-01 4.16347E-28
1.49545E-01 3.74802E-28
1.52671E-01 3.38984E-28
1.55823E-01 3.08064E-28
1.59001E-01 2.81326E-28
1.62205E-01 2.58150E-28
1.65435E-01 2.38002E-28
1.68690E-01 2.20424E-28
1.71970E-01 2.05020E-28
1.75276E-01 1.91453E-28
1.78606E-01 1.79436E-28
1.81961E-01 1.68722E-28
1.85340E-01 1.59103E-28
1.88743E-01 1.50405E-28
1.92169E-01 1.42478E-28
1.95619E-01 1.35200E-28
1.99092E-01 1.28466E-28
2.02589E-01 1.22191E-28
2.06107E-01 1.16303E-28
2.09649E-01 1.10746E-28
2.13212E-01 1.05472E-28
2.16797E-01 1.00443E-28
2.20404E-01 9.56284E-29
2.24032E-01 9.10043E-29
2.27680E-01 8.65518E-29
2.31350E-01 8.22567E-29
2.35040E-01 7.81079E-29
2.38751E-01 7.40974E-29
2.42481E-01 7.02191E-29
2.46231E-01 6.64691E-29
2.50000E-01 6.28443E-29
2.53788E-01 5.93431E-29
2.57595E-01 5.59641E-29
2.61421E-01 5.27066E-29
2.65264E-01 4.95703E-29
2.69126E-01 4.65548E-29
2.73005E-01 4.36596E-29
2.76901E-01 4.08845E-29
2.80814E-01 3.82286E-29
2.84744E-01 3.56913E-29
2.88691E-01 3.32714E-29
2.92653E-01 3.09675E-29
2.96632E-01 2.87781E-29
3.00625E-01 2.67012E-29
3.04634E-01 2.47347E-29
3.08658E-01 2.28762E-29
3.12697E-01 2.11229E-29
3.16749E-01 1.94721E-29
3.20816E-01 1.79207E-29
3.24896E-01 1.64654E-29
3.28990E-01 1.51030E-29
3.33097E-01 1.38300E-29
3.37216E-01 1.26427E-29
3.41348E-01 1.15377E-29
3.45492E-01 1.05112E-29
3.49647E-01 9.55963E-30
3.53814E-01 8.67923E-30
3.57992E-01 7.86638E-30
3.62181E-01 7.11747E-30
3.66381E-01 6.42893E-30
3.70590E-01 5.79727E-30
3.74810E-01 5.21908E-30
3.79039E-01 4.69102E-30
3.83277E-01 4.20987E-30
3.87524E-01 3.77252E-30
3.91780E-01 3.37594E-30
3.96044E-01 3.01725E-30
4.00316E-01 2.69368E-30
4.04596E-01 2.40259E-30
4.08882E-01 2.14145E-30
4.13176E-01 1.90787E-30
4.17476E-01 1.69959E-30
4.21783E-01 1.51447E-30
4.26095E-01 1.35049E-30
4.30413E-01 1.20574E-30
4.34737E-01 1.07847E-30
4.39065E-01 9.66998E-31
4.43398E-01 8.69786E-31
4.47736E-01 7.85391E-31
4.52077E-01 7.12480E-31
4.56422E-01 6.49817E-31
4.60770E-01 5.96263E-31
4.65122E-01 5.50771E-31
4.69476E-01 5.12380E-31
4.73832E-01 4.80212E-31
4.78190E-01 4.53466E-31
4.82550E-01 4.31414E-31
4.86912E-01 4.13398E-31
4.91274E-01 3.98824E-31
4.95637E-01 3.87156E-31
5.00000E-01 3.77916E-31
5.04363E-01 3.70678E-31
5.08726E-01 3.65063E-31
5.13088E-01 3.60737E-31
5.17450E-01 3.57406E-31
5.21810E-01 3.54815E-31
5.26168E-01 3.52742E-31
5.30524E-01 3.50996E-31
5.34878E-01 3.49416E-31
5.39230E-01 3.47864E-31
5.43578E-01 3.46228E-31
5.47923E-01 3.44414E-31
5.52264E-01 3.42348E-31
5.56602E-01 3.39974E-31
5.60935E-01 3.37247E-31
5.65263E-01 3.34137E-31
5.69587E-01 3.30625E-31
5.73905E-01 3.26703E-31
5.78217E-01 3.22368E-31
5.82524E-01 3.17627E-31
5.86824E-01 3.12493E-31
5.91118E-01 3.06981E-31
5.95404E-01 3.01114E-31
5.99684E-01 2.94914E-31
6.03956E-01 2.88411E-31
6.08220E-01 2.81631E-31
6.12476E-01 2.74605E-31
6.16723E-01 2.67363E-31
6.20961E-01 2.59936E-31
6.25190E-01 2.52356E-31
6.29410E-01 2.44652E-31
6.33619E-01 2.36855E-31
6.37819E-01 2.28992E-31
6.42008E-01 2.21093E-31
6.46186E-01 2.13182E-31
6.50353E-01 2.05286E-31
6.54508E-01 1.97427E-31
6.58652E-01 1.89627E-31
6.62784E-01 1.81908E-31
6.66903E-01 1.74287E-31
6.71010E-01 1.66782E-31
6.75104E-01 1.59408E-31
6.79184E-01 1.52179E-31
6.83251E-01 1.45107E-31
6.87303E-01 1.38204E-31
6.91342E-01 1.31478E-31
6.95366E-01 1.24937E-31
6.99375E-01 1.18588E-31
7.03368E-01 1.12437E-31
7.07347E-01 1.06487E-31
7.11309E-01 1.00742E-31
7.15256E-01 9.52037E-32
7.19186E-01 8.98731E-32
7.23099E-01 8.47503E-32
7.26995E-01 7.98347E-32
7.30874E-01 7.51249E-32
7.34736E-01 7.06188E-32
7.38579E-01 6.63138E-32
7.42405E-01 6.22066E-32
7.46212E-01 5.82935E-32
7.50000E-01 5.45702E-32
7.53769E-01 5.10324E-32
7.57519E-01 4.76752E-32
7.61249E-01 4.44934E-32
7.64960E-01 4.14818E-32
7.68650E-01 3.86349E-32
7.72320E-01 3.59470E-32
7.75968E-01 3.34125E-32
7.79596E-01 3.10255E-32
7.83203E-01 2.87801E-32
7.86788E-01 2.66707E-32
7.90351E-01 2.46913E-32
7.93893E-01 2.28362E-32
7.97411E-01 2.10998E-32
8.00908E-01 1.94764E-32
8.04381E-01 1.79604E-32
8.07831E-01 1.65466E-32
8.11257E-01 1.52297E-32
8.14660E-01 1.40044E-32
8.18039E-01 1.28659E-32
8.21394E-01 1.18093E-32
8.24724E-01 1.08300E-32
8.28030E-01 9.92338E-33
8.31310E-01 9.08519E-33
8.34565E-01 8.31122E-33
8.37795E-01 7.59750E-33
8.40999E-01 6.94018E-33
8.44177E-01 6.33562E-33
8.47329E-01 5.78033E-33
8.50455E-01 5.27097E-33
8.53553E-01 4.80440E-33
8.56625E-01 4.37761E-33
8.59670E-01 3.98776E-33
8.62687E-01 3.63216E-33
8.65677E-01 3.30827E-33
8.68639E-01 3.01368E-33
8.71572E-01 2.74615E-33
8.74478E-01 2.50355E-33
8.77355E-01 2.28389E-33
8.80203E-01 2.08530E-33
8.83022E-01 1.90602E-33
8.85812E-01 1.74443E-33
8.88573E-01 1.59899E-33
8.91304E-01 1.46829E-33
8.94005E-01 1.35100E-33
8.96677E-01 1.24589E-33
8.99318E-01 1.15182E-33
9.01928E-01 1.06774E-33
9.04508E-01 9.92676E-34
9.07058E-01 9.25722E-34
9.09576E-01 8.66054E-34
9.12063E-01 8.12907E-34
9.14519E-01 7.65584E-34
9.16943E-01 7.23444E-34
9.19335E-01 6.85902E-34
9.21696E-01 6.52425E-34
9.24024E-01 6.22528E-34
9.26320E-01 5.95769E-34
9.28584E-01 5.71751E-34
9.30815E-01 5.50113E-34
9.33013E-01 5.30529E-34
9.35178E-01 5.12711E-34
9.37310E-01 4.96397E-34
9.39409E-01 4.81354E-34
9.41474E-01 4.67378E-34
9.43505E-01 4.54285E-34
9.45503E-01 4.41916E-34
9.47467E-01 4.30131E-34
9.49397E-01 4.18807E-34
9.51293E-01 4.07840E-34
9.53154E-01 3.97141E-34
9.54981E-01 3.86632E-34
9.56773E-01 3.76250E-34
9.58530E-01 3.65943E-34
9.60252E-01 3.55668E-34
9.61940E-01 3.45393E-34
9.63592E-01 3.35091E-34
9.65209E-01 3.24744E-34
9.66790E-01 3.14342E-34
9.68336E-01 3.03878E-34
9.69846E-01 2.93350E-34
9.71321E-01 2.82761E-34
9.72759E-01 2.72119E-34
9.74162E-01 2.61433E-34
9.75528E-01 2.50716E-34
9.76858E-01 2.39982E-34
9.78152E-01 2.29248E-34
9.79410E-01 2.18533E-34
9.80631E-01 2.07856E-34
9.81815E-01 1.97236E-34
9.82963E-01 1.86695E-34
9.84074E-01 1.76255E-34
9.85148E-01 1.65937E-34
9.86185E-01 1.55762E-34
9.87185E-01 1.45752E-34
9.88148E-01 1.35929E-34
9.89074E-01 1.26313E-34
9.89962E-01 1.16925E-34
9.90814E-01 1.07785E-34
9.91627E-01 9.89115E-35
9.92404E-01 9.03243E-35
9.93143E-01 8.20409E-35
9.93844E-01 7.40784E-35
9.94508E-01 6.64533E-35
9.95134E-01 5.91810E-35
9.95722E-01 5.22761E-35
9.96273E-01 4.57524E-35
9.96786E-01 3.96229E-35
9.97261E-01 3.38996E-35
9.97698E-01 2.85934E-35
9.98097E-01 2.37147E-35
9.98459E-01 1.92728E-35
9.98782E-01 1.52760E-35
9.99067E-01 1.17319E-35
9.99315E-01 8.64692E-36
9.99524E-01 6.02696E-36
9.99695E-01 3.87679E-36
9.99829E-01 2.20031E-36
9.99924E-01 1.00067E-36
9.99981E-01 2.80017E-37
1.00000E+00 3.95508E-38
