 #
 # Subroutine ELSEPA. Elastic scattering of electrons and positrons
 #                    by neutral atoms and positive ions
 #
 # Projectile: positron
 # Kinetic energy = 6.00000E+07 eV = 2.20496E+06 a.u.
 #
 # WARNING: High-energy factorization with free-atom DF screening.
 #          Absorption, polarization and exchange corrections are
 #          switched off.
 #          Phase shifts are calculated for the bare nucleus.
 #          Scattering amplitudes are not evaluated.
 #
 # Element: Kr,  Z =  36,  atomic weight = 8.38000E+01 g/mol
 #
 # Nuclear model: Fermi distribution
 #                Average radius = 4.68236E-13 cm
 #                Skin thickness = 5.46000E-14 cm
 #
 # Number of electrons = 36
 #
 # Total elastic cross section = 2.81019E-18 cm**2 = 1.00354E-01 a0**2
 # 1st transport cross section = 6.76600E-25 cm**2 = 2.41618E-08 a0**2
 # 2nd transport cross section = 1.99222E-24 cm**2 = 7.11436E-08 a0**2
 #
 #
 # Differential cross section:                       MU=(1-COS(THETA))/2
 #
 #  THETA        MU          DCS          DCS        Sherman      error
 #  (deg)                 (cm**2/sr)   (a0**2/sr)    function
 #----------------------------------------------------------------------
0.00000E+00 6.53508E-11
7.61557E-13 6.53177E-11
1.18994E-12 6.52992E-11
1.71346E-12 6.52767E-11
2.33225E-12 6.52501E-11
3.04617E-12 6.52195E-11
3.85530E-12 6.51848E-11
4.75964E-12 6.51461E-11
5.75917E-12 6.51033E-11
6.85391E-12 6.50565E-11
8.04379E-12 6.50058E-11
9.32893E-12 6.49510E-11
1.07092E-11 6.48923E-11
1.21847E-11 6.48296E-11
1.37554E-11 6.47630E-11
1.54213E-11 6.46924E-11
1.71823E-11 6.46180E-11
1.90386E-11 6.45396E-11
2.09900E-11 6.44574E-11
2.30367E-11 6.43713E-11
2.51785E-11 6.42815E-11
2.74156E-11 6.41878E-11
2.97478E-11 6.40903E-11
3.21752E-11 6.39892E-11
3.46979E-11 6.38843E-11
3.73157E-11 6.37757E-11
4.00286E-11 6.36634E-11
4.28368E-11 6.35475E-11
4.57402E-11 6.34280E-11
4.87388E-11 6.33049E-11
5.18325E-11 6.31783E-11
5.50215E-11 6.30482E-11
5.83057E-11 6.29146E-11
6.16850E-11 6.27775E-11
6.51595E-11 6.26349E-11
6.87293E-11 6.24885E-11
7.23943E-11 6.23395E-11
7.61544E-11 6.21879E-11
1.18991E-10 6.05069E-11
1.71347E-10 5.85421E-11
2.33223E-10 5.63395E-11
3.04617E-10 5.39473E-11
3.85531E-10 5.14138E-11
4.75965E-10 4.87804E-11
5.75917E-10 4.60818E-11
6.85389E-10 4.33714E-11
8.04380E-10 4.06844E-11
9.32891E-10 3.80508E-11
1.07092E-09 3.54947E-11
1.21847E-09 3.30355E-11
1.37554E-09 3.06872E-11
1.54213E-09 2.84599E-11
1.71823E-09 2.63595E-11
1.90386E-09 2.43842E-11
2.09900E-09 2.25364E-11
2.30367E-09 2.08186E-11
2.51785E-09 1.92269E-11
2.74156E-09 1.77560E-11
2.97478E-09 1.64000E-11
3.21752E-09 1.51524E-11
3.46978E-09 1.40064E-11
3.73156E-09 1.29549E-11
4.00286E-09 1.19912E-11
4.28368E-09 1.11070E-11
4.57402E-09 1.02976E-11
4.87388E-09 9.55703E-12
5.18326E-09 8.87953E-12
5.50215E-09 8.25957E-12
5.83057E-09 7.69210E-12
6.16850E-09 7.17241E-12
6.51596E-09 6.67992E-12
6.87293E-09 6.22795E-12
7.23942E-09 5.81926E-12
7.61544E-09 5.44889E-12
1.18991E-08 3.04907E-12
1.71347E-08 1.87959E-12
2.33223E-08 1.23736E-12
3.04617E-08 8.49288E-13
3.85531E-08 5.99148E-13
4.75965E-08 4.31062E-13
5.75917E-08 3.15142E-13
6.85389E-08 2.34245E-13
8.04380E-08 1.76905E-13
9.32891E-08 1.35674E-13
1.07092E-07 1.05608E-13
1.21847E-07 8.33759E-14
1.37554E-07 6.67057E-14
1.54213E-07 5.40389E-14
1.71823E-07 4.42675E-14
1.90386E-07 3.66418E-14
2.09900E-07 3.06207E-14
2.30367E-07 2.58117E-14
2.51785E-07 2.19281E-14
2.74156E-07 1.87596E-14
2.97478E-07 1.61503E-14
3.21752E-07 1.39834E-14
3.46978E-07 1.21705E-14
3.73156E-07 1.06436E-14
4.00286E-07 9.34951E-15
4.28368E-07 8.24599E-15
4.57402E-07 7.30026E-15
4.87388E-07 6.48575E-15
5.18325E-07 5.78098E-15
5.50215E-07 5.16854E-15
5.83057E-07 4.63430E-15
6.16850E-07 4.16661E-15
6.51596E-07 3.75392E-15
6.87293E-07 3.39119E-15
7.23942E-07 3.07234E-15
7.61543E-07 2.79065E-15
1.18991E-06 1.17819E-15
1.71347E-06 5.77630E-16
2.33223E-06 3.15402E-16
3.04617E-06 1.86618E-16
3.85531E-06 1.17431E-16
4.75964E-06 7.75709E-17
5.75916E-06 5.32895E-17
6.85388E-06 3.78107E-17
8.04378E-06 2.75643E-17
9.32888E-06 2.05636E-17
1.07092E-05 1.56494E-17
1.21846E-05 1.21179E-17
1.37553E-05 9.52765E-18
1.54212E-05 7.59316E-18
1.71822E-05 6.12510E-18
1.90385E-05 4.99414E-18
2.09899E-05 4.11358E-18
2.30365E-05 3.41843E-18
2.51783E-05 2.86372E-18
2.74153E-05 2.41679E-18
2.97475E-05 2.05354E-18
3.21749E-05 1.75595E-18
3.46974E-05 1.51036E-18
3.73152E-05 1.30626E-18
4.00281E-05 1.13552E-18
4.28362E-05 9.91781E-19
4.57395E-05 8.70062E-19
4.87380E-05 7.66424E-19
5.18317E-05 6.77736E-19
5.50205E-05 6.01486E-19
5.83045E-05 5.35650E-19
6.16838E-05 4.78573E-19
6.51582E-05 4.28900E-19
6.87277E-05 3.85510E-19
7.23925E-05 3.47471E-19
7.61524E-05 3.14024E-19
9.21439E-05 2.14453E-19
1.09658E-04 1.51375E-19
1.28695E-04 1.09869E-19
1.49255E-04 8.16505E-20
1.71338E-04 6.19341E-20
1.94942E-04 4.78208E-20
2.20070E-04 3.75057E-20
2.46720E-04 2.98260E-20
2.74892E-04 2.40133E-20
3.04586E-04 1.95492E-20
3.35803E-04 1.60748E-20
3.68542E-04 1.33385E-20
4.02802E-04 1.11598E-20
4.38585E-04 9.40788E-21
4.75889E-04 7.98630E-21
5.14715E-04 6.82302E-21
5.55063E-04 5.86382E-21
5.96931E-04 5.06718E-21
6.40321E-04 4.40118E-21
6.85233E-04 3.84094E-21
7.31665E-04 3.36694E-21
7.79618E-04 2.96375E-21
8.29092E-04 2.61905E-21
8.80086E-04 2.32296E-21
9.32601E-04 2.06749E-21
9.86636E-04 1.84612E-21
1.04219E-03 1.65356E-21
1.09927E-03 1.48541E-21
1.15786E-03 1.33806E-21
1.21797E-03 1.20851E-21
1.27961E-03 1.09422E-21
1.34276E-03 9.93107E-22
1.40743E-03 9.03381E-22
1.47362E-03 8.23540E-22
1.54133E-03 7.52306E-22
1.61056E-03 6.88594E-22
1.68131E-03 6.31468E-22
1.75357E-03 5.80130E-22
1.82735E-03 5.33893E-22
1.90265E-03 4.92157E-22
1.97947E-03 4.54411E-22
2.05780E-03 4.20206E-22
2.13765E-03 3.89149E-22
2.21902E-03 3.60901E-22
2.30190E-03 3.35163E-22
2.38630E-03 3.11670E-22
2.47222E-03 2.90195E-22
2.55965E-03 2.70532E-22
2.64859E-03 2.52500E-22
2.73905E-03 2.35943E-22
2.83103E-03 2.20713E-22
2.92452E-03 2.06691E-22
3.01952E-03 1.93759E-22
3.11604E-03 1.81819E-22
3.21407E-03 1.70782E-22
3.31362E-03 1.60566E-22
3.41468E-03 1.51101E-22
3.51725E-03 1.42319E-22
3.62133E-03 1.34164E-22
3.72692E-03 1.26582E-22
3.83403E-03 1.19526E-22
3.94265E-03 1.12952E-22
4.05278E-03 1.06822E-22
4.16442E-03 1.01101E-22
4.27757E-03 9.57556E-23
4.39223E-03 9.07573E-23
4.50840E-03 8.60794E-23
4.62608E-03 8.16975E-23
4.74527E-03 7.75896E-23
4.86597E-03 7.37353E-23
4.98817E-03 7.01162E-23
5.11188E-03 6.67152E-23
5.23711E-03 6.35169E-23
5.36383E-03 6.05069E-23
5.49207E-03 5.76722E-23
5.62181E-03 5.50005E-23
5.75306E-03 5.24810E-23
5.88581E-03 5.01032E-23
6.02007E-03 4.78578E-23
6.15583E-03 4.57360E-23
6.29310E-03 4.37298E-23
6.43187E-03 4.18317E-23
6.57214E-03 4.00348E-23
6.71392E-03 3.83328E-23
6.85720E-03 3.67197E-23
7.00198E-03 3.51900E-23
7.14827E-03 3.37386E-23
7.29605E-03 3.23607E-23
7.44534E-03 3.10520E-23
7.59612E-03 2.98083E-23
7.97965E-03 2.69591E-23
8.37255E-03 2.44401E-23
8.77480E-03 2.22065E-23
9.18641E-03 2.02204E-23
9.60736E-03 1.84499E-23
1.00376E-02 1.68674E-23
1.04773E-02 1.54497E-23
1.09262E-02 1.41766E-23
1.13844E-02 1.30309E-23
1.18520E-02 1.19975E-23
1.23288E-02 1.10637E-23
1.28150E-02 1.02181E-23
1.33104E-02 9.45102E-24
1.38150E-02 8.75384E-24
1.43290E-02 8.11912E-24
1.48521E-02 7.54029E-24
1.53845E-02 7.01157E-24
1.59262E-02 6.52787E-24
1.64770E-02 6.08469E-24
1.70371E-02 5.67805E-24
1.76063E-02 5.30440E-24
1.81848E-02 4.96060E-24
1.87724E-02 4.64385E-24
1.93692E-02 4.35166E-24
1.99751E-02 4.08178E-24
2.05901E-02 3.83221E-24
2.12143E-02 3.60115E-24
2.18476E-02 3.38700E-24
2.24900E-02 3.18830E-24
2.31415E-02 3.00374E-24
2.38021E-02 2.83213E-24
2.44717E-02 2.67241E-24
2.51504E-02 2.52361E-24
2.58382E-02 2.38485E-24
2.65349E-02 2.25534E-24
2.72407E-02 2.13435E-24
2.79555E-02 2.02122E-24
2.86793E-02 1.91535E-24
2.94120E-02 1.81620E-24
3.01537E-02 1.72326E-24
3.09043E-02 1.63608E-24
3.16639E-02 1.55423E-24
3.24324E-02 1.47734E-24
3.32098E-02 1.40504E-24
3.39961E-02 1.33702E-24
3.47912E-02 1.27299E-24
3.55952E-02 1.21266E-24
3.64081E-02 1.15578E-24
3.72297E-02 1.10212E-24
3.80602E-02 1.05147E-24
3.88995E-02 1.00364E-24
3.97476E-02 9.58422E-25
4.06044E-02 9.15666E-25
4.14700E-02 8.75209E-25
4.23443E-02 8.36907E-25
4.32273E-02 8.00625E-25
4.41190E-02 7.66238E-25
4.50194E-02 7.33630E-25
4.59284E-02 7.02692E-25
4.68461E-02 6.73324E-25
4.87074E-02 6.18931E-25
5.06030E-02 5.69776E-25
5.25328E-02 5.25272E-25
5.44967E-02 4.84908E-25
5.64946E-02 4.48235E-25
5.85262E-02 4.14861E-25
6.05914E-02 3.84441E-25
6.26901E-02 3.56670E-25
6.48222E-02 3.31282E-25
6.69873E-02 3.08037E-25
6.91854E-02 2.86726E-25
7.14163E-02 2.67161E-25
7.36799E-02 2.49177E-25
7.59760E-02 2.32626E-25
7.83043E-02 2.17374E-25
8.06647E-02 2.03303E-25
8.30571E-02 1.90307E-25
8.54812E-02 1.78292E-25
8.79369E-02 1.67170E-25
9.04240E-02 1.56865E-25
9.29422E-02 1.47308E-25
9.54915E-02 1.38436E-25
9.80716E-02 1.30191E-25
1.00682E-01 1.22523E-25
1.03323E-01 1.15384E-25
1.05995E-01 1.08733E-25
1.08696E-01 1.02530E-25
1.11427E-01 9.67420E-26
1.14188E-01 9.13356E-26
1.16978E-01 8.62820E-26
1.19797E-01 8.15546E-26
1.22645E-01 7.71293E-26
1.25522E-01 7.29836E-26
1.28428E-01 6.90972E-26
1.31361E-01 6.54515E-26
1.34323E-01 6.20292E-26
1.37313E-01 5.88146E-26
1.40330E-01 5.57932E-26
1.43375E-01 5.29516E-26
1.46447E-01 5.02776E-26
1.49545E-01 4.77597E-26
1.52671E-01 4.53875E-26
1.55823E-01 4.31513E-26
1.59001E-01 4.10421E-26
1.62205E-01 3.90518E-26
1.65435E-01 3.71726E-26
1.68690E-01 3.53974E-26
1.71970E-01 3.37196E-26
1.75276E-01 3.21331E-26
1.78606E-01 3.06322E-26
1.81961E-01 2.92116E-26
1.85340E-01 2.78665E-26
1.88743E-01 2.65923E-26
1.92169E-01 2.53846E-26
1.95619E-01 2.42395E-26
1.99092E-01 2.31534E-26
2.02589E-01 2.21227E-26
2.06107E-01 2.11443E-26
2.09649E-01 2.02151E-26
2.13212E-01 1.93323E-26
2.16797E-01 1.84933E-26
2.20404E-01 1.76956E-26
2.24032E-01 1.69369E-26
2.27680E-01 1.62151E-26
2.31350E-01 1.55280E-26
2.35040E-01 1.48739E-26
2.38751E-01 1.42509E-26
2.42481E-01 1.36573E-26
2.46231E-01 1.30917E-26
2.50000E-01 1.25524E-26
2.53788E-01 1.20381E-26
2.57595E-01 1.15475E-26
2.61421E-01 1.10794E-26
2.65264E-01 1.06325E-26
2.69126E-01 1.02059E-26
2.73005E-01 9.79850E-27
2.76901E-01 9.40928E-27
2.80814E-01 9.03736E-27
2.84744E-01 8.68187E-27
2.88691E-01 8.34199E-27
2.92653E-01 8.01696E-27
2.96632E-01 7.70605E-27
3.00625E-01 7.40857E-27
3.04634E-01 7.12387E-27
3.08658E-01 6.85134E-27
3.12697E-01 6.59039E-27
3.16749E-01 6.34047E-27
3.20816E-01 6.10107E-27
3.24896E-01 5.87169E-27
3.28990E-01 5.65186E-27
3.33097E-01 5.44113E-27
3.37216E-01 5.23909E-27
3.41348E-01 5.04534E-27
3.45492E-01 4.85949E-27
3.49647E-01 4.68120E-27
3.53814E-01 4.51011E-27
3.57992E-01 4.34591E-27
3.62181E-01 4.18828E-27
3.66381E-01 4.03694E-27
3.70590E-01 3.89161E-27
3.74810E-01 3.75202E-27
3.79039E-01 3.61792E-27
3.83277E-01 3.48907E-27
3.87524E-01 3.36524E-27
3.91780E-01 3.24622E-27
3.96044E-01 3.13180E-27
4.00316E-01 3.02179E-27
4.04596E-01 2.91599E-27
4.08882E-01 2.81424E-27
4.13176E-01 2.71635E-27
4.17476E-01 2.62216E-27
4.21783E-01 2.53153E-27
4.26095E-01 2.44431E-27
4.30413E-01 2.36035E-27
4.34737E-01 2.27951E-27
4.39065E-01 2.20168E-27
4.43398E-01 2.12673E-27
4.47736E-01 2.05454E-27
4.52077E-01 1.98499E-27
4.56422E-01 1.91800E-27
4.60770E-01 1.85344E-27
4.65122E-01 1.79123E-27
4.69476E-01 1.73127E-27
4.73832E-01 1.67347E-27
4.78190E-01 1.61774E-27
4.82550E-01 1.56401E-27
4.86912E-01 1.51220E-27
4.91274E-01 1.46223E-27
4.95637E-01 1.41403E-27
5.00000E-01 1.36753E-27
5.04363E-01 1.32267E-27
5.08726E-01 1.27939E-27
5.13088E-01 1.23761E-27
5.17450E-01 1.19730E-27
5.21810E-01 1.15838E-27
5.26168E-01 1.12081E-27
5.30524E-01 1.08454E-27
5.34878E-01 1.04952E-27
5.39230E-01 1.01570E-27
5.43578E-01 9.83031E-28
5.47923E-01 9.51480E-28
5.52264E-01 9.21002E-28
5.56602E-01 8.91558E-28
5.60935E-01 8.63108E-28
5.65263E-01 8.35617E-28
5.69587E-01 8.09051E-28
5.73905E-01 7.83374E-28
5.78217E-01 7.58555E-28
5.82524E-01 7.34564E-28
5.86824E-01 7.11369E-28
5.91118E-01 6.88943E-28
5.95404E-01 6.67258E-28
5.99684E-01 6.46288E-28
6.03956E-01 6.26006E-28
6.08220E-01 6.06390E-28
6.12476E-01 5.87415E-28
6.16723E-01 5.69058E-28
6.20961E-01 5.51299E-28
6.25190E-01 5.34115E-28
6.29410E-01 5.17488E-28
6.33619E-01 5.01397E-28
6.37819E-01 4.85824E-28
6.42008E-01 4.70751E-28
6.46186E-01 4.56161E-28
6.50353E-01 4.42037E-28
6.54508E-01 4.28363E-28
6.58652E-01 4.15124E-28
6.62784E-01 4.02305E-28
6.66903E-01 3.89892E-28
6.71010E-01 3.77870E-28
6.75104E-01 3.66228E-28
6.79184E-01 3.54951E-28
6.83251E-01 3.44028E-28
6.87303E-01 3.33446E-28
6.91342E-01 3.23195E-28
6.95366E-01 3.13264E-28
6.99375E-01 3.03640E-28
7.03368E-01 2.94316E-28
7.07347E-01 2.85280E-28
7.11309E-01 2.76522E-28
7.15256E-01 2.68035E-28
7.19186E-01 2.59809E-28
7.23099E-01 2.51835E-28
7.26995E-01 2.44105E-28
7.30874E-01 2.36611E-28
7.34736E-01 2.29347E-28
7.38579E-01 2.22303E-28
7.42405E-01 2.15473E-28
7.46212E-01 2.08850E-28
7.50000E-01 2.02428E-28
7.53769E-01 1.96199E-28
7.57519E-01 1.90159E-28
7.61249E-01 1.84300E-28
7.64960E-01 1.78617E-28
7.68650E-01 1.73105E-28
7.72320E-01 1.67757E-28
7.75968E-01 1.62570E-28
7.79596E-01 1.57537E-28
7.83203E-01 1.52654E-28
7.86788E-01 1.47916E-28
7.90351E-01 1.43319E-28
7.93893E-01 1.38858E-28
7.97411E-01 1.34529E-28
8.00908E-01 1.30328E-28
8.04381E-01 1.26251E-28
8.07831E-01 1.22294E-28
8.11257E-01 1.18453E-28
8.14660E-01 1.14725E-28
8.18039E-01 1.11107E-28
8.21394E-01 1.07594E-28
8.24724E-01 1.04184E-28
8.28030E-01 1.00874E-28
8.31310E-01 9.76605E-29
8.34565E-01 9.45406E-29
8.37795E-01 9.15115E-29
8.40999E-01 8.85705E-29
8.44177E-01 8.57150E-29
8.47329E-01 8.29423E-29
8.50455E-01 8.02500E-29
8.53553E-01 7.76358E-29
8.56625E-01 7.50972E-29
8.59670E-01 7.26321E-29
8.62687E-01 7.02382E-29
8.65677E-01 6.79135E-29
8.68639E-01 6.56559E-29
8.71572E-01 6.34635E-29
8.74478E-01 6.13343E-29
8.77355E-01 5.92665E-29
8.80203E-01 5.72583E-29
8.83022E-01 5.53081E-29
8.85812E-01 5.34140E-29
8.88573E-01 5.15745E-29
8.91304E-01 4.97881E-29
8.94005E-01 4.80531E-29
8.96677E-01 4.63682E-29
8.99318E-01 4.47320E-29
9.01928E-01 4.31429E-29
9.04508E-01 4.15998E-29
9.07058E-01 4.01013E-29
9.09576E-01 3.86461E-29
9.12063E-01 3.72331E-29
9.14519E-01 3.58611E-29
9.16943E-01 3.45290E-29
9.19335E-01 3.32356E-29
9.21696E-01 3.19799E-29
9.24024E-01 3.07608E-29
9.26320E-01 2.95774E-29
9.28584E-01 2.84288E-29
9.30815E-01 2.73139E-29
9.33013E-01 2.62319E-29
9.35178E-01 2.51818E-29
9.37310E-01 2.41629E-29
9.39409E-01 2.31744E-29
9.41474E-01 2.22154E-29
9.43505E-01 2.12851E-29
9.45503E-01 2.03829E-29
9.47467E-01 1.95080E-29
9.49397E-01 1.86597E-29
9.51293E-01 1.78373E-29
9.53154E-01 1.70403E-29
9.54981E-01 1.62679E-29
9.56773E-01 1.55196E-29
9.58530E-01 1.47948E-29
9.60252E-01 1.40928E-29
9.61940E-01 1.34132E-29
9.63592E-01 1.27555E-29
9.65209E-01 1.21191E-29
9.66790E-01 1.15035E-29
9.68336E-01 1.09082E-29
9.69846E-01 1.03329E-29
9.71321E-01 9.77694E-30
9.72759E-01 9.24005E-30
9.74162E-01 8.72176E-30
9.75528E-01 8.22167E-30
9.76858E-01 7.73942E-30
9.78152E-01 7.27462E-30
9.79410E-01 6.82693E-30
9.80631E-01 6.39600E-30
9.81815E-01 5.98151E-30
9.82963E-01 5.58314E-30
9.84074E-01 5.20058E-30
9.85148E-01 4.83356E-30
9.86185E-01 4.48179E-30
9.87185E-01 4.14501E-30
9.88148E-01 3.82296E-30
9.89074E-01 3.51541E-30
9.89962E-01 3.22211E-30
9.90814E-01 2.94286E-30
9.91627E-01 2.67743E-30
9.92404E-01 2.42565E-30
9.93143E-01 2.18730E-30
9.93844E-01 1.96222E-30
9.94508E-01 1.75024E-30
9.95134E-01 1.55121E-30
9.95722E-01 1.36496E-30
9.96273E-01 1.19137E-30
9.96786E-01 1.03031E-30
9.97261E-01 8.81644E-31
9.97698E-01 7.45278E-31
9.98097E-01 6.21105E-31
9.98459E-01 5.09034E-31
9.98782E-01 4.08982E-31
9.99067E-01 3.20874E-31
9.99315E-01 2.44645E-31
9.99524E-01 1.80239E-31
9.99695E-01 1.27608E-31
9.99829E-01 8.67127E-32
9.99924E-01 5.75237E-32
9.99981E-01 4.00190E-32
1.00000E+00 3.41857E-32
