 #
 # Subroutine ELSEPA. Elastic scattering of electrons and positrons
 #                    by neutral atoms and positive ions
 #
 # Projectile: positron
 # Kinetic energy = 4.50000E+06 eV = 1.65372E+05 a.u.
 #
 # WARNING: High-energy factorization with free-atom DF screening.
 #          Absorption, polarization and exchange corrections are
 #          switched off.
 #          Phase shifts are calculated for the bare nucleus.
 #          Scattering amplitudes are not evaluated.
 #
 # Element: Kr,  Z =  36,  atomic weight = 8.38000E+01 g/mol
 #
 # Nuclear model: Fermi distribution
 #                Average radius = 4.68236E-13 cm
 #                Skin thickness = 5.46000E-14 cm
 #
 # Number of electrons = 36
 #
 # Total elastic cross section = 2.83682E-18 cm**2 = 1.01305E-01 a0**2
 # 1st transport cross section = 6.97515E-23 cm**2 = 2.49087E-06 a0**2
 # 2nd transport cross section = 2.00699E-22 cm**2 = 7.16708E-06 a0**2
 #
 #
 # Differential cross section:                       MU=(1-COS(THETA))/2
 #
 #  THETA        MU          DCS          DCS        Sherman      error
 #  (deg)                 (cm**2/sr)   (a0**2/sr)    function
 #----------------------------------------------------------------------
0.00000E+00 4.48158E-13
7.61557E-13 4.48156E-13
1.18994E-12 4.48155E-13
1.71346E-12 4.48154E-13
2.33225E-12 4.48152E-13
3.04617E-12 4.48151E-13
3.85530E-12 4.48149E-13
4.75964E-12 4.48147E-13
5.75917E-12 4.48145E-13
6.85391E-12 4.48143E-13
8.04379E-12 4.48140E-13
9.32893E-12 4.48137E-13
1.07092E-11 4.48134E-13
1.21847E-11 4.48131E-13
1.37554E-11 4.48128E-13
1.54213E-11 4.48125E-13
1.71823E-11 4.48121E-13
1.90386E-11 4.48117E-13
2.09900E-11 4.48113E-13
2.30367E-11 4.48109E-13
2.51785E-11 4.48105E-13
2.74156E-11 4.48100E-13
2.97478E-11 4.48095E-13
3.21752E-11 4.48090E-13
3.46979E-11 4.48085E-13
3.73157E-11 4.48080E-13
4.00286E-11 4.48074E-13
4.28368E-11 4.48069E-13
4.57402E-11 4.48063E-13
4.87388E-11 4.48057E-13
5.18325E-11 4.48050E-13
5.50215E-11 4.48044E-13
5.83057E-11 4.48037E-13
6.16850E-11 4.48030E-13
6.51595E-11 4.48023E-13
6.87293E-11 4.48016E-13
7.23943E-11 4.48008E-13
7.61544E-11 4.48001E-13
1.18991E-10 4.47914E-13
1.71347E-10 4.47809E-13
2.33223E-10 4.47684E-13
3.04617E-10 4.47541E-13
3.85531E-10 4.47378E-13
4.75965E-10 4.47197E-13
5.75917E-10 4.46997E-13
6.85389E-10 4.46778E-13
8.04380E-10 4.46541E-13
9.32891E-10 4.46285E-13
1.07092E-09 4.46010E-13
1.21847E-09 4.45716E-13
1.37554E-09 4.45404E-13
1.54213E-09 4.45074E-13
1.71823E-09 4.44725E-13
1.90386E-09 4.44358E-13
2.09900E-09 4.43972E-13
2.30367E-09 4.43568E-13
2.51785E-09 4.43146E-13
2.74156E-09 4.42706E-13
2.97478E-09 4.42248E-13
3.21752E-09 4.41772E-13
3.46978E-09 4.41278E-13
3.73156E-09 4.40766E-13
4.00286E-09 4.40237E-13
4.28368E-09 4.39690E-13
4.57402E-09 4.39126E-13
4.87388E-09 4.38544E-13
5.18326E-09 4.37945E-13
5.50215E-09 4.37329E-13
5.83057E-09 4.36696E-13
6.16850E-09 4.36046E-13
6.51596E-09 4.35379E-13
6.87293E-09 4.34695E-13
7.23942E-09 4.33995E-13
7.61544E-09 4.33278E-13
1.18991E-08 4.25179E-13
1.71347E-08 4.15620E-13
2.33223E-08 4.04731E-13
3.04617E-08 3.92686E-13
3.85531E-08 3.79671E-13
4.75965E-08 3.65871E-13
5.75917E-08 3.51461E-13
6.85389E-08 3.36520E-13
8.04380E-08 3.21316E-13
9.32891E-08 3.06007E-13
1.07092E-07 2.90735E-13
1.21847E-07 2.75628E-13
1.37554E-07 2.60794E-13
1.54213E-07 2.46322E-13
1.71823E-07 2.32289E-13
1.90386E-07 2.18751E-13
2.09900E-07 2.05753E-13
2.30367E-07 1.93317E-13
2.51785E-07 1.81424E-13
2.74156E-07 1.70146E-13
2.97478E-07 1.59483E-13
3.21752E-07 1.49431E-13
3.46978E-07 1.39975E-13
3.73156E-07 1.31099E-13
4.00286E-07 1.22784E-13
4.28368E-07 1.15005E-13
4.57402E-07 1.07739E-13
4.87388E-07 1.00959E-13
5.18325E-07 9.46345E-14
5.50215E-07 8.87329E-14
5.83057E-07 8.32428E-14
6.16850E-07 7.81375E-14
6.51596E-07 7.33916E-14
6.87293E-07 6.89806E-14
7.23942E-07 6.48812E-14
7.61543E-07 6.10711E-14
1.18991E-06 3.46209E-14
1.71347E-06 2.15363E-14
2.33223E-06 1.43191E-14
3.04617E-06 1.00013E-14
3.85531E-06 7.22734E-15
4.75964E-06 5.34614E-15
5.75916E-06 4.02102E-15
6.85388E-06 3.05963E-15
8.04378E-06 2.35714E-15
9.32888E-06 1.83688E-15
1.07092E-05 1.44721E-15
1.21846E-05 1.15238E-15
1.37553E-05 9.27155E-16
1.54212E-05 7.53465E-16
1.71822E-05 6.18253E-16
1.90385E-05 5.11929E-16
2.09899E-05 4.27752E-16
2.30365E-05 3.60370E-16
2.51783E-05 3.05802E-16
2.74153E-05 2.61342E-16
2.97475E-05 2.24826E-16
3.21749E-05 1.94601E-16
3.46974E-05 1.69396E-16
3.73152E-05 1.48225E-16
4.00281E-05 1.30317E-16
4.28362E-05 1.15072E-16
4.57395E-05 1.02015E-16
4.87380E-05 9.07710E-17
5.18317E-05 8.10396E-17
5.50205E-05 7.25778E-17
5.83045E-05 6.51947E-17
6.16838E-05 5.87284E-17
6.51582E-05 5.30443E-17
6.87277E-05 4.80304E-17
7.23925E-05 4.35925E-17
7.61524E-05 3.96519E-17
9.21439E-05 2.76842E-17
1.09658E-04 1.98680E-17
1.28695E-04 1.46069E-17
1.49255E-04 1.09645E-17
1.71338E-04 8.38361E-18
1.94942E-04 6.51557E-18
2.20070E-04 5.13825E-18
2.46720E-04 4.10564E-18
2.74892E-04 3.31953E-18
3.04586E-04 2.71285E-18
3.35803E-04 2.23868E-18
3.68542E-04 1.86379E-18
4.02802E-04 1.56424E-18
4.38585E-04 1.32259E-18
4.75889E-04 1.12591E-18
5.14715E-04 9.64509E-19
5.55063E-04 8.31046E-19
5.96931E-04 7.19903E-19
6.40321E-04 6.26745E-19
6.85233E-04 5.48182E-19
7.31665E-04 4.81551E-19
7.79618E-04 4.24740E-19
8.29092E-04 3.76057E-19
8.80086E-04 3.34145E-19
9.32601E-04 2.97905E-19
9.86636E-04 2.66442E-19
1.04219E-03 2.39019E-19
1.09927E-03 2.15028E-19
1.15786E-03 1.93967E-19
1.21797E-03 1.75418E-19
1.27961E-03 1.59028E-19
1.34276E-03 1.44504E-19
1.40743E-03 1.31597E-19
1.47362E-03 1.20094E-19
1.54133E-03 1.09818E-19
1.61056E-03 1.00614E-19
1.68131E-03 9.23514E-20
1.75357E-03 8.49172E-20
1.82735E-03 7.82140E-20
1.90265E-03 7.21570E-20
1.97947E-03 6.66733E-20
2.05780E-03 6.16989E-20
2.13765E-03 5.71783E-20
2.21902E-03 5.30627E-20
2.30190E-03 4.93094E-20
2.38630E-03 4.58809E-20
2.47222E-03 4.27441E-20
2.55965E-03 3.98699E-20
2.64859E-03 3.72324E-20
2.73905E-03 3.48085E-20
2.83103E-03 3.25780E-20
2.92452E-03 3.05226E-20
3.01952E-03 2.86262E-20
3.11604E-03 2.68742E-20
3.21407E-03 2.52537E-20
3.31362E-03 2.37529E-20
3.41468E-03 2.23616E-20
3.51725E-03 2.10702E-20
3.62133E-03 1.98704E-20
3.72692E-03 1.87544E-20
3.83403E-03 1.77153E-20
3.94265E-03 1.67469E-20
4.05278E-03 1.58435E-20
4.16442E-03 1.50000E-20
4.27757E-03 1.42116E-20
4.39223E-03 1.34741E-20
4.50840E-03 1.27837E-20
4.62608E-03 1.21367E-20
4.74527E-03 1.15299E-20
4.86597E-03 1.09604E-20
4.98817E-03 1.04255E-20
5.11188E-03 9.92271E-21
5.23711E-03 9.44972E-21
5.36383E-03 9.00445E-21
5.49207E-03 8.58499E-21
5.62181E-03 8.18955E-21
5.75306E-03 7.81653E-21
5.88581E-03 7.46439E-21
6.02007E-03 7.13178E-21
6.15583E-03 6.81740E-21
6.29310E-03 6.52007E-21
6.43187E-03 6.23870E-21
6.57214E-03 5.97228E-21
6.71392E-03 5.71986E-21
6.85720E-03 5.48057E-21
7.00198E-03 5.25361E-21
7.14827E-03 5.03821E-21
7.29605E-03 4.83369E-21
7.44534E-03 4.63939E-21
7.59612E-03 4.45471E-21
7.97965E-03 4.03147E-21
8.37255E-03 3.65709E-21
8.77480E-03 3.32497E-21
9.18641E-03 3.02954E-21
9.60736E-03 2.76603E-21
1.00376E-02 2.53042E-21
1.04773E-02 2.31925E-21
1.09262E-02 2.12954E-21
1.13844E-02 1.95874E-21
1.18520E-02 1.80463E-21
1.23288E-02 1.66530E-21
1.28150E-02 1.53909E-21
1.33104E-02 1.42454E-21
1.38150E-02 1.32040E-21
1.43290E-02 1.22554E-21
1.48521E-02 1.13901E-21
1.53845E-02 1.05993E-21
1.59262E-02 9.87553E-22
1.64770E-02 9.21214E-22
1.70371E-02 8.60319E-22
1.76063E-02 8.04341E-22
1.81848E-02 7.52813E-22
1.87724E-02 7.05320E-22
1.93692E-02 6.61489E-22
1.99751E-02 6.20987E-22
2.05901E-02 5.83517E-22
2.12143E-02 5.48811E-22
2.18476E-02 5.16630E-22
2.24900E-02 4.86756E-22
2.31415E-02 4.58995E-22
2.38021E-02 4.33171E-22
2.44717E-02 4.09124E-22
2.51504E-02 3.86711E-22
2.58382E-02 3.65800E-22
2.65349E-02 3.46272E-22
2.72407E-02 3.28020E-22
2.79555E-02 3.10946E-22
2.86793E-02 2.94959E-22
2.94120E-02 2.79978E-22
3.01537E-02 2.65928E-22
3.09043E-02 2.52742E-22
3.16639E-02 2.40356E-22
3.24324E-02 2.28712E-22
3.32098E-02 2.17760E-22
3.39961E-02 2.07449E-22
3.47912E-02 1.97736E-22
3.55952E-02 1.88580E-22
3.64081E-02 1.79943E-22
3.72297E-02 1.71790E-22
3.80602E-02 1.64090E-22
3.88995E-02 1.56812E-22
3.97476E-02 1.49929E-22
4.06044E-02 1.43416E-22
4.14700E-02 1.37250E-22
4.23443E-02 1.31408E-22
4.32273E-02 1.25871E-22
4.41190E-02 1.20619E-22
4.50194E-02 1.15635E-22
4.59284E-02 1.10904E-22
4.68461E-02 1.06410E-22
4.87074E-02 9.80768E-23
5.06030E-02 9.05356E-23
5.25328E-02 8.36980E-23
5.44967E-02 7.74870E-23
5.64946E-02 7.18353E-23
5.85262E-02 6.66839E-23
6.05914E-02 6.19809E-23
6.26901E-02 5.76805E-23
6.48222E-02 5.37422E-23
6.69873E-02 5.01304E-23
6.91854E-02 4.68132E-23
7.14163E-02 4.37625E-23
7.36799E-02 4.09530E-23
7.59760E-02 3.83625E-23
7.83043E-02 3.59709E-23
8.06647E-02 3.37602E-23
8.30571E-02 3.17144E-23
8.54812E-02 2.98191E-23
8.79369E-02 2.80612E-23
9.04240E-02 2.64291E-23
9.29422E-02 2.49121E-23
9.54915E-02 2.35007E-23
9.80716E-02 2.21863E-23
1.00682E-01 2.09611E-23
1.03323E-01 1.98179E-23
1.05995E-01 1.87504E-23
1.08696E-01 1.77525E-23
1.11427E-01 1.68190E-23
1.14188E-01 1.59450E-23
1.16978E-01 1.51260E-23
1.19797E-01 1.43579E-23
1.22645E-01 1.36371E-23
1.25522E-01 1.29601E-23
1.28428E-01 1.23238E-23
1.31361E-01 1.17254E-23
1.34323E-01 1.11620E-23
1.37313E-01 1.06315E-23
1.40330E-01 1.01314E-23
1.43375E-01 9.65974E-24
1.46447E-01 9.21463E-24
1.49545E-01 8.79432E-24
1.52671E-01 8.39717E-24
1.55823E-01 8.02168E-24
1.59001E-01 7.66646E-24
1.62205E-01 7.33022E-24
1.65435E-01 7.01177E-24
1.68690E-01 6.71001E-24
1.71970E-01 6.42391E-24
1.75276E-01 6.15251E-24
1.78606E-01 5.89493E-24
1.81961E-01 5.65034E-24
1.85340E-01 5.41796E-24
1.88743E-01 5.19708E-24
1.92169E-01 4.98703E-24
1.95619E-01 4.78719E-24
1.99092E-01 4.59698E-24
2.02589E-01 4.41585E-24
2.06107E-01 4.24329E-24
2.09649E-01 4.07882E-24
2.13212E-01 3.92200E-24
2.16797E-01 3.77241E-24
2.20404E-01 3.62965E-24
2.24032E-01 3.49337E-24
2.27680E-01 3.36322E-24
2.31350E-01 3.23887E-24
2.35040E-01 3.12002E-24
2.38751E-01 3.00638E-24
2.42481E-01 2.89768E-24
2.46231E-01 2.79368E-24
2.50000E-01 2.69413E-24
2.53788E-01 2.59881E-24
2.57595E-01 2.50752E-24
2.61421E-01 2.42004E-24
2.65264E-01 2.33620E-24
2.69126E-01 2.25581E-24
2.73005E-01 2.17871E-24
2.76901E-01 2.10474E-24
2.80814E-01 2.03375E-24
2.84744E-01 1.96560E-24
2.88691E-01 1.90016E-24
2.92653E-01 1.83731E-24
2.96632E-01 1.77691E-24
3.00625E-01 1.71886E-24
3.04634E-01 1.66306E-24
3.08658E-01 1.60939E-24
3.12697E-01 1.55777E-24
3.16749E-01 1.50809E-24
3.20816E-01 1.46029E-24
3.24896E-01 1.41427E-24
3.28990E-01 1.36996E-24
3.33097E-01 1.32728E-24
3.37216E-01 1.28615E-24
3.41348E-01 1.24653E-24
3.45492E-01 1.20833E-24
3.49647E-01 1.17150E-24
3.53814E-01 1.13599E-24
3.57992E-01 1.10174E-24
3.62181E-01 1.06869E-24
3.66381E-01 1.03680E-24
3.70590E-01 1.00602E-24
3.74810E-01 9.76300E-25
3.79039E-01 9.47600E-25
3.83277E-01 9.19880E-25
3.87524E-01 8.93102E-25
3.91780E-01 8.67228E-25
3.96044E-01 8.42223E-25
4.00316E-01 8.18053E-25
4.04596E-01 7.94683E-25
4.08882E-01 7.72081E-25
4.13176E-01 7.50218E-25
4.17476E-01 7.29067E-25
4.21783E-01 7.08605E-25
4.26095E-01 6.88804E-25
4.30413E-01 6.69637E-25
4.34737E-01 6.51079E-25
4.39065E-01 6.33108E-25
4.43398E-01 6.15703E-25
4.47736E-01 5.98844E-25
4.52077E-01 5.82512E-25
4.56422E-01 5.66686E-25
4.60770E-01 5.51349E-25
4.65122E-01 5.36483E-25
4.69476E-01 5.22070E-25
4.73832E-01 5.08095E-25
4.78190E-01 4.94541E-25
4.82550E-01 4.81395E-25
4.86912E-01 4.68643E-25
4.91274E-01 4.56270E-25
4.95637E-01 4.44264E-25
5.00000E-01 4.32612E-25
5.04363E-01 4.21301E-25
5.08726E-01 4.10320E-25
5.13088E-01 3.99658E-25
5.17450E-01 3.89304E-25
5.21810E-01 3.79248E-25
5.26168E-01 3.69479E-25
5.30524E-01 3.59990E-25
5.34878E-01 3.50769E-25
5.39230E-01 3.41809E-25
5.43578E-01 3.33100E-25
5.47923E-01 3.24635E-25
5.52264E-01 3.16406E-25
5.56602E-01 3.08405E-25
5.60935E-01 3.00624E-25
5.65263E-01 2.93057E-25
5.69587E-01 2.85698E-25
5.73905E-01 2.78539E-25
5.78217E-01 2.71574E-25
5.82524E-01 2.64797E-25
5.86824E-01 2.58202E-25
5.91118E-01 2.51784E-25
5.95404E-01 2.45537E-25
5.99684E-01 2.39456E-25
6.03956E-01 2.33535E-25
6.08220E-01 2.27771E-25
6.12476E-01 2.22158E-25
6.16723E-01 2.16691E-25
6.20961E-01 2.11367E-25
6.25190E-01 2.06181E-25
6.29410E-01 2.01129E-25
6.33619E-01 1.96206E-25
6.37819E-01 1.91410E-25
6.42008E-01 1.86737E-25
6.46186E-01 1.82182E-25
6.50353E-01 1.77742E-25
6.54508E-01 1.73415E-25
6.58652E-01 1.69197E-25
6.62784E-01 1.65084E-25
6.66903E-01 1.61074E-25
6.71010E-01 1.57164E-25
6.75104E-01 1.53351E-25
6.79184E-01 1.49632E-25
6.83251E-01 1.46004E-25
6.87303E-01 1.42466E-25
6.91342E-01 1.39014E-25
6.95366E-01 1.35647E-25
6.99375E-01 1.32361E-25
7.03368E-01 1.29155E-25
7.07347E-01 1.26027E-25
7.11309E-01 1.22974E-25
7.15256E-01 1.19994E-25
7.19186E-01 1.17085E-25
7.23099E-01 1.14246E-25
7.26995E-01 1.11475E-25
7.30874E-01 1.08769E-25
7.34736E-01 1.06127E-25
7.38579E-01 1.03548E-25
7.42405E-01 1.01029E-25
7.46212E-01 9.85696E-26
7.50000E-01 9.61676E-26
7.53769E-01 9.38218E-26
7.57519E-01 9.15306E-26
7.61249E-01 8.92926E-26
7.64960E-01 8.71065E-26
7.68650E-01 8.49710E-26
7.72320E-01 8.28848E-26
7.75968E-01 8.08466E-26
7.79596E-01 7.88553E-26
7.83203E-01 7.69096E-26
7.86788E-01 7.50085E-26
7.90351E-01 7.31507E-26
7.93893E-01 7.13354E-26
7.97411E-01 6.95613E-26
8.00908E-01 6.78275E-26
8.04381E-01 6.61331E-26
8.07831E-01 6.44770E-26
8.11257E-01 6.28584E-26
8.14660E-01 6.12763E-26
8.18039E-01 5.97299E-26
8.21394E-01 5.82184E-26
8.24724E-01 5.67408E-26
8.28030E-01 5.52965E-26
8.31310E-01 5.38845E-26
8.34565E-01 5.25043E-26
8.37795E-01 5.11550E-26
8.40999E-01 4.98359E-26
8.44177E-01 4.85463E-26
8.47329E-01 4.72856E-26
8.50455E-01 4.60531E-26
8.53553E-01 4.48481E-26
8.56625E-01 4.36701E-26
8.59670E-01 4.25184E-26
8.62687E-01 4.13925E-26
8.65677E-01 4.02918E-26
8.68639E-01 3.92157E-26
8.71572E-01 3.81637E-26
8.74478E-01 3.71353E-26
8.77355E-01 3.61299E-26
8.80203E-01 3.51471E-26
8.83022E-01 3.41864E-26
8.85812E-01 3.32473E-26
8.88573E-01 3.23294E-26
8.91304E-01 3.14322E-26
8.94005E-01 3.05552E-26
8.96677E-01 2.96982E-26
8.99318E-01 2.88606E-26
9.01928E-01 2.80420E-26
9.04508E-01 2.72422E-26
9.07058E-01 2.64606E-26
9.09576E-01 2.56970E-26
9.12063E-01 2.49509E-26
9.14519E-01 2.42221E-26
9.16943E-01 2.35102E-26
9.19335E-01 2.28149E-26
9.21696E-01 2.21358E-26
9.24024E-01 2.14727E-26
9.26320E-01 2.08252E-26
9.28584E-01 2.01931E-26
9.30815E-01 1.95761E-26
9.33013E-01 1.89738E-26
9.35178E-01 1.83861E-26
9.37310E-01 1.78126E-26
9.39409E-01 1.72532E-26
9.41474E-01 1.67075E-26
9.43505E-01 1.61754E-26
9.45503E-01 1.56565E-26
9.47467E-01 1.51508E-26
9.49397E-01 1.46578E-26
9.51293E-01 1.41775E-26
9.53154E-01 1.37097E-26
9.54981E-01 1.32541E-26
9.56773E-01 1.28105E-26
9.58530E-01 1.23787E-26
9.60252E-01 1.19586E-26
9.61940E-01 1.15500E-26
9.63592E-01 1.11527E-26
9.65209E-01 1.07666E-26
9.66790E-01 1.03914E-26
9.68336E-01 1.00270E-26
9.69846E-01 9.67337E-27
9.71321E-01 9.33022E-27
9.72759E-01 8.99745E-27
9.74162E-01 8.67492E-27
9.75528E-01 8.36251E-27
9.76858E-01 8.06008E-27
9.78152E-01 7.76750E-27
9.79410E-01 7.48466E-27
9.80631E-01 7.21145E-27
9.81815E-01 6.94774E-27
9.82963E-01 6.69344E-27
9.84074E-01 6.44844E-27
9.85148E-01 6.21264E-27
9.86185E-01 5.98594E-27
9.87185E-01 5.76825E-27
9.88148E-01 5.55949E-27
9.89074E-01 5.35958E-27
9.89962E-01 5.16842E-27
9.90814E-01 4.98595E-27
9.91627E-01 4.81209E-27
9.92404E-01 4.64677E-27
9.93143E-01 4.48992E-27
9.93844E-01 4.34149E-27
9.94508E-01 4.20141E-27
9.95134E-01 4.06963E-27
9.95722E-01 3.94610E-27
9.96273E-01 3.83076E-27
9.96786E-01 3.72358E-27
9.97261E-01 3.62450E-27
9.97698E-01 3.53349E-27
9.98097E-01 3.45052E-27
9.98459E-01 3.37555E-27
9.98782E-01 3.30854E-27
9.99067E-01 3.24949E-27
9.99315E-01 3.19835E-27
9.99524E-01 3.15511E-27
9.99695E-01 3.11976E-27
9.99829E-01 3.09228E-27
9.99924E-01 3.07266E-27
9.99981E-01 3.06089E-27
1.00000E+00 3.05697E-27
