 #
 # Subroutine ELSEPA. Elastic scattering of electrons and positrons
 #                    by neutral atoms and positive ions
 #
 # Projectile: positron
 # Kinetic energy = 1.00000E+09 eV = 3.67493E+07 a.u.
 #
 # WARNING: High-energy factorization with free-atom DF screening.
 #          Absorption, polarization and exchange corrections are
 #          switched off.
 #          Phase shifts are calculated for the bare nucleus.
 #          Scattering amplitudes are not evaluated.
 #
 # Element: Kr,  Z =  36,  atomic weight = 8.38000E+01 g/mol
 #
 # Nuclear model: Fermi distribution
 #                Average radius = 4.68236E-13 cm
 #                Skin thickness = 5.46000E-14 cm
 #
 # Number of electrons = 36
 #
 # Total elastic cross section = 2.79954E-18 cm**2 = 9.99733E-02 a0**2
 # 1st transport cross section = 2.60687E-27 cm**2 = 9.30931E-11 a0**2
 # 2nd transport cross section = 7.81975E-27 cm**2 = 2.79248E-10 a0**2
 #
 #
 # Differential cross section:                       MU=(1-COS(THETA))/2
 #
 #  THETA        MU          DCS          DCS        Sherman      error
 #  (deg)                 (cm**2/sr)   (a0**2/sr)    function
 #----------------------------------------------------------------------
0.00000E+00 1.78659E-08
7.61557E-13 1.56418E-08
1.18994E-12 1.45669E-08
1.71346E-12 1.33930E-08
2.33225E-12 1.21717E-08
3.04617E-12 1.09568E-08
3.85530E-12 9.78564E-09
4.75964E-12 8.68481E-09
5.75917E-12 7.67072E-09
6.85391E-12 6.74875E-09
8.04379E-12 5.92381E-09
9.32893E-12 5.19443E-09
1.07092E-11 4.55464E-09
1.21847E-11 3.99669E-09
1.37554E-11 3.51217E-09
1.54213E-11 3.09178E-09
1.71823E-11 2.72871E-09
1.90386E-11 2.41528E-09
2.09900E-11 2.14461E-09
2.30367E-11 1.90995E-09
2.51785E-11 1.69915E-09
2.74156E-11 1.52068E-09
2.97478E-11 1.36865E-09
3.21752E-11 1.23841E-09
3.46979E-11 1.12623E-09
3.73157E-11 1.02389E-09
4.00286E-11 9.31606E-10
4.28368E-11 8.51270E-10
4.57402E-11 7.81018E-10
4.87388E-11 7.19318E-10
5.18325E-11 6.64493E-10
5.50215E-11 6.12244E-10
5.83057E-11 5.65970E-10
6.16850E-11 5.24840E-10
6.51595E-11 4.88156E-10
6.87293E-11 4.55332E-10
7.23943E-11 4.24207E-10
7.61544E-11 3.95248E-10
1.18991E-10 2.11141E-10
1.71347E-10 1.20850E-10
2.33223E-10 7.25014E-11
3.04617E-10 4.54674E-11
3.85531E-10 2.97263E-11
4.75965E-10 2.02030E-11
5.75917E-10 1.42211E-11
6.85389E-10 1.03169E-11
8.04380E-10 7.68602E-12
9.32891E-10 5.85640E-12
1.07092E-09 4.54726E-12
1.21847E-09 3.58749E-12
1.37554E-09 2.86940E-12
1.54213E-09 2.32250E-12
1.71823E-09 1.89983E-12
1.90386E-09 1.56865E-12
2.09900E-09 1.30603E-12
2.30367E-09 1.09555E-12
2.51785E-09 9.24756E-13
2.74156E-09 7.86751E-13
2.97478E-09 6.72607E-13
3.21752E-09 5.78632E-13
3.46978E-09 5.00184E-13
3.73156E-09 4.34543E-13
4.00286E-09 3.79264E-13
4.28368E-09 3.32408E-13
4.57402E-09 2.92592E-13
4.87388E-09 2.58469E-13
5.18326E-09 2.29225E-13
5.50215E-09 2.03936E-13
5.83057E-09 1.82077E-13
6.16850E-09 1.63036E-13
6.51596E-09 1.46438E-13
6.87293E-09 1.31889E-13
7.23942E-09 1.19110E-13
7.61544E-09 1.07842E-13
1.18991E-08 4.48790E-14
1.71347E-08 2.19088E-14
2.33223E-08 1.19378E-14
3.04617E-08 7.04782E-15
3.85531E-08 4.42371E-15
4.75965E-08 2.91419E-15
5.75917E-08 1.99658E-15
6.85389E-08 1.41306E-15
8.04380E-08 1.02780E-15
9.32891E-08 7.65230E-16
1.07092E-07 5.81343E-16
1.21847E-07 4.49483E-16
1.37554E-07 3.52953E-16
1.54213E-07 2.80985E-16
1.71823E-07 2.26450E-16
1.90386E-07 1.84521E-16
2.09900E-07 1.51858E-16
2.30367E-07 1.26110E-16
2.51785E-07 1.05593E-16
2.74156E-07 8.90819E-17
2.97478E-07 7.56748E-17
3.21752E-07 6.46970E-17
3.46978E-07 5.56390E-17
3.73156E-07 4.81118E-17
4.00286E-07 4.18152E-17
4.28368E-07 3.65156E-17
4.57402E-07 3.20294E-17
4.87388E-07 2.82114E-17
5.18325E-07 2.49456E-17
5.50215E-07 2.21389E-17
5.83057E-07 1.97159E-17
6.16850E-07 1.76156E-17
6.51596E-07 1.57875E-17
6.87293E-07 1.41905E-17
7.23942E-07 1.27905E-17
7.61543E-07 1.15588E-17
1.18991E-06 4.73496E-18
1.71347E-06 2.28340E-18
2.33223E-06 1.23243E-18
3.04617E-06 7.22357E-19
3.85531E-06 4.50913E-19
4.75964E-06 2.95808E-19
5.75916E-06 2.02015E-19
6.85388E-06 1.42618E-19
8.04378E-06 1.03530E-19
9.32888E-06 7.69608E-20
1.07092E-05 5.83926E-20
1.21846E-05 4.51006E-20
1.37553E-05 3.53840E-20
1.54212E-05 2.81482E-20
1.71822E-05 2.26707E-20
1.90385E-05 1.84601E-20
2.09899E-05 1.51878E-20
2.30365E-05 1.26089E-20
2.51783E-05 1.05538E-20
2.74153E-05 8.90009E-21
2.97475E-05 7.55749E-21
3.21749E-05 6.45865E-21
3.46974E-05 5.55256E-21
3.73152E-05 4.80011E-21
4.00281E-05 4.17105E-21
4.28362E-05 3.64179E-21
4.57395E-05 3.19385E-21
4.87380E-05 2.81264E-21
5.18317E-05 2.48655E-21
5.50205E-05 2.20630E-21
5.83045E-05 1.96441E-21
6.16838E-05 1.75477E-21
6.51582E-05 1.57237E-21
6.87277E-05 1.41309E-21
7.23925E-05 1.27348E-21
7.61524E-05 1.12314E-21
9.21439E-05 7.61335E-22
1.09658E-04 5.32983E-22
1.28695E-04 3.83330E-22
1.49255E-04 2.82038E-22
1.71338E-04 2.11610E-22
1.94942E-04 1.61465E-22
2.20070E-04 1.25029E-22
2.46720E-04 9.80737E-23
2.74892E-04 7.78116E-23
3.04586E-04 6.23657E-23
3.35803E-04 5.04400E-23
3.68542E-04 4.11277E-23
4.02802E-04 3.37807E-23
4.38585E-04 2.79301E-23
4.75889E-04 2.32315E-23
5.14715E-04 1.94285E-23
5.55063E-04 1.63289E-23
5.96931E-04 1.37859E-23
6.40321E-04 1.16871E-23
6.85233E-04 9.94539E-24
7.31665E-04 8.49258E-24
7.79618E-04 7.27510E-24
8.29092E-04 6.25033E-24
8.80086E-04 5.38433E-24
9.32601E-04 4.64973E-24
9.86636E-04 4.02443E-24
1.04219E-03 3.49046E-24
1.09927E-03 3.03309E-24
1.15786E-03 2.64026E-24
1.21797E-03 2.30197E-24
1.27961E-03 2.00995E-24
1.34276E-03 1.75731E-24
1.40743E-03 1.53827E-24
1.47362E-03 1.34801E-24
1.54133E-03 1.18245E-24
1.61056E-03 1.03814E-24
1.68131E-03 9.12155E-25
1.75357E-03 8.02019E-25
1.82735E-03 7.05611E-25
1.90265E-03 6.21117E-25
1.97947E-03 5.46985E-25
2.05780E-03 4.81879E-25
2.13765E-03 4.24647E-25
2.21902E-03 3.74297E-25
2.30190E-03 3.29967E-25
2.38630E-03 2.90914E-25
2.47222E-03 2.56489E-25
2.55965E-03 2.26129E-25
2.64859E-03 1.99342E-25
2.73905E-03 1.75699E-25
2.83103E-03 1.54827E-25
2.92452E-03 1.36396E-25
3.01952E-03 1.20118E-25
3.11604E-03 1.05742E-25
3.21407E-03 9.30441E-26
3.31362E-03 8.18297E-26
3.41468E-03 7.19266E-26
3.51725E-03 6.31832E-26
3.62133E-03 5.54654E-26
3.72692E-03 4.86552E-26
3.83403E-03 4.26481E-26
3.94265E-03 3.73517E-26
4.05278E-03 3.26843E-26
4.16442E-03 2.85735E-26
4.27757E-03 2.49552E-26
4.39223E-03 2.17728E-26
4.50840E-03 1.89758E-26
4.62608E-03 1.65196E-26
4.74527E-03 1.43647E-26
4.86597E-03 1.24761E-26
4.98817E-03 1.08224E-26
5.11188E-03 9.37633E-27
5.23711E-03 8.11320E-27
5.36383E-03 7.01136E-27
5.49207E-03 6.05155E-27
5.62181E-03 5.21671E-27
5.75306E-03 4.49173E-27
5.88581E-03 3.86321E-27
6.02007E-03 3.31928E-27
6.15583E-03 2.84945E-27
6.29310E-03 2.44445E-27
6.43187E-03 2.09607E-27
6.57214E-03 1.79707E-27
6.71392E-03 1.54105E-27
6.85720E-03 1.32239E-27
7.00198E-03 1.13612E-27
7.14827E-03 9.77875E-28
7.29605E-03 8.43828E-28
7.44534E-03 7.30616E-28
7.59612E-03 6.35293E-28
7.97965E-03 4.59154E-28
8.37255E-03 3.47599E-28
8.77480E-03 2.78113E-28
9.18641E-03 2.35123E-28
9.60736E-03 2.08076E-28
1.00376E-02 1.90017E-28
1.04773E-02 1.76523E-28
1.09262E-02 1.64929E-28
1.13844E-02 1.53758E-28
1.18520E-02 1.42312E-28
1.23288E-02 1.30383E-28
1.28150E-02 1.18047E-28
1.33104E-02 1.05527E-28
1.38150E-02 9.31006E-29
1.43290E-02 8.10455E-29
1.48521E-02 6.96034E-29
1.53845E-02 5.89649E-29
1.59262E-02 4.92643E-29
1.64770E-02 4.05804E-29
1.70371E-02 3.29431E-29
1.76063E-02 2.63409E-29
1.81848E-02 2.07300E-29
1.87724E-02 1.60427E-29
1.93692E-02 1.21953E-29
1.99751E-02 9.09504E-30
2.05901E-02 6.64576E-30
2.12143E-02 4.75226E-30
2.18476E-02 3.32382E-30
2.24900E-02 2.27655E-30
2.31415E-02 1.53483E-30
2.38021E-02 1.03221E-30
2.44717E-02 7.11560E-31
2.51504E-02 5.24894E-31
2.58382E-02 4.32827E-31
2.65349E-02 4.03834E-31
2.72407E-02 4.13378E-31
2.79555E-02 4.42978E-31
2.86793E-02 4.79278E-31
2.94120E-02 5.13144E-31
3.01537E-02 5.38831E-31
3.09043E-02 5.53236E-31
3.16639E-02 5.55236E-31
3.24324E-02 5.45126E-31
3.32098E-02 5.24157E-31
3.39961E-02 4.94153E-31
3.47912E-02 4.57218E-31
3.55952E-02 4.15515E-31
3.64081E-02 3.71103E-31
3.72297E-02 3.25829E-31
3.80602E-02 2.81268E-31
3.88995E-02 2.38689E-31
3.97476E-02 1.99054E-31
4.06044E-02 1.63031E-31
4.14700E-02 1.31022E-31
4.23443E-02 1.03198E-31
4.32273E-02 7.95403E-32
4.41190E-02 5.98806E-32
4.50194E-02 4.39375E-32
4.59284E-02 3.13534E-32
4.68461E-02 2.17252E-32
4.87074E-02 9.65015E-33
5.06030E-02 4.45684E-33
5.25328E-02 3.35065E-33
5.44967E-02 4.20833E-33
5.64946E-02 5.60373E-33
5.85262E-02 6.71934E-33
6.05914E-02 7.20335E-33
6.26901E-02 7.01632E-33
6.48222E-02 6.29483E-33
6.69873E-02 5.24613E-33
6.91854E-02 4.07694E-33
7.14163E-02 2.95332E-33
7.36799E-02 1.98484E-33
7.59760E-02 1.22543E-33
7.83043E-02 6.83725E-34
8.06647E-02 3.37218E-34
8.30571E-02 1.46385E-34
8.54812E-02 6.63317E-35
8.79369E-02 5.50589E-35
9.04240E-02 7.82785E-35
9.29422E-02 1.11323E-34
9.54915E-02 1.38932E-34
9.80716E-02 1.53746E-34
1.00682E-01 1.54205E-34
1.03323E-01 1.42402E-34
1.05995E-01 1.22221E-34
1.08696E-01 9.79275E-35
1.11427E-01 7.32623E-35
1.14188E-01 5.09701E-35
1.16978E-01 3.26785E-35
1.19797E-01 1.90039E-35
1.22645E-01 9.78584E-36
1.25522E-01 4.36147E-36
1.28428E-01 1.82348E-36
1.31361E-01 1.22573E-36
1.34323E-01 1.72493E-36
1.37313E-01 2.65883E-36
1.40330E-01 3.57182E-36
1.43375E-01 4.20245E-36
1.46447E-01 4.44794E-36
1.49545E-01 4.31881E-36
1.52671E-01 3.89388E-36
1.55823E-01 3.28132E-36
1.59001E-01 2.59027E-36
1.62205E-01 1.91226E-36
1.65435E-01 1.31243E-36
1.68690E-01 8.27871E-37
1.71970E-01 4.70793E-37
1.75276E-01 2.34522E-37
1.78606E-01 1.00167E-37
1.81961E-01 4.28723E-38
1.85340E-01 3.69725E-38
1.88743E-01 5.95387E-38
1.92169E-01 9.24387E-38
1.95619E-01 1.23085E-37
1.99092E-01 1.44184E-37
2.02589E-01 1.52852E-37
2.06107E-01 1.49428E-37
2.09649E-01 1.36256E-37
2.13212E-01 1.16608E-37
2.16797E-01 9.38722E-38
2.20404E-01 7.09873E-38
2.24032E-01 5.01623E-38
2.27680E-01 3.27954E-38
2.31350E-01 1.94969E-38
2.35040E-01 1.00000E-45
2.38751E-01 1.00000E-45
2.42481E-01 1.00000E-45
2.46231E-01 1.00000E-45
2.50000E-01 1.00000E-45
2.53788E-01 1.00000E-45
2.57595E-01 1.00000E-45
2.61421E-01 1.00000E-45
2.65264E-01 1.00000E-45
2.69126E-01 1.00000E-45
2.73005E-01 1.00000E-45
2.76901E-01 1.00000E-45
2.80814E-01 1.00000E-45
2.84744E-01 1.00000E-45
2.88691E-01 1.00000E-45
2.92653E-01 1.00000E-45
2.96632E-01 1.00000E-45
3.00625E-01 1.00000E-45
3.04634E-01 1.00000E-45
3.08658E-01 1.00000E-45
3.12697E-01 1.00000E-45
3.16749E-01 1.00000E-45
3.20816E-01 1.00000E-45
3.24896E-01 1.00000E-45
3.28990E-01 1.00000E-45
3.33097E-01 1.00000E-45
3.37216E-01 1.00000E-45
3.41348E-01 1.00000E-45
3.45492E-01 1.00000E-45
3.49647E-01 1.00000E-45
3.53814E-01 1.00000E-45
3.57992E-01 1.00000E-45
3.62181E-01 1.00000E-45
3.66381E-01 1.00000E-45
3.70590E-01 1.00000E-45
3.74810E-01 1.00000E-45
3.79039E-01 1.00000E-45
3.83277E-01 1.00000E-45
3.87524E-01 1.00000E-45
3.91780E-01 1.00000E-45
3.96044E-01 1.00000E-45
4.00316E-01 1.00000E-45
4.04596E-01 1.00000E-45
4.08882E-01 1.00000E-45
4.13176E-01 1.00000E-45
4.17476E-01 1.00000E-45
4.21783E-01 1.00000E-45
4.26095E-01 1.00000E-45
4.30413E-01 1.00000E-45
4.34737E-01 1.00000E-45
4.39065E-01 1.00000E-45
4.43398E-01 1.00000E-45
4.47736E-01 1.00000E-45
4.52077E-01 1.00000E-45
4.56422E-01 1.00000E-45
4.60770E-01 1.00000E-45
4.65122E-01 1.00000E-45
4.69476E-01 1.00000E-45
4.73832E-01 1.00000E-45
4.78190E-01 1.00000E-45
4.82550E-01 1.00000E-45
4.86912E-01 1.00000E-45
4.91274E-01 1.00000E-45
4.95637E-01 1.00000E-45
5.00000E-01 1.00000E-45
5.04363E-01 1.00000E-45
5.08726E-01 1.00000E-45
5.13088E-01 1.00000E-45
5.17450E-01 1.00000E-45
5.21810E-01 1.00000E-45
5.26168E-01 1.00000E-45
5.30524E-01 1.00000E-45
5.34878E-01 1.00000E-45
5.39230E-01 1.00000E-45
5.43578E-01 1.00000E-45
5.47923E-01 1.00000E-45
5.52264E-01 1.00000E-45
5.56602E-01 1.00000E-45
5.60935E-01 1.00000E-45
5.65263E-01 1.00000E-45
5.69587E-01 1.00000E-45
5.73905E-01 1.00000E-45
5.78217E-01 1.00000E-45
5.82524E-01 1.00000E-45
5.86824E-01 1.00000E-45
5.91118E-01 1.00000E-45
5.95404E-01 1.00000E-45
5.99684E-01 1.00000E-45
6.03956E-01 1.00000E-45
6.08220E-01 1.00000E-45
6.12476E-01 1.00000E-45
6.16723E-01 1.00000E-45
6.20961E-01 1.00000E-45
6.25190E-01 1.00000E-45
6.29410E-01 1.00000E-45
6.33619E-01 1.00000E-45
6.37819E-01 1.00000E-45
6.42008E-01 1.00000E-45
6.46186E-01 1.00000E-45
6.50353E-01 1.00000E-45
6.54508E-01 1.00000E-45
6.58652E-01 1.00000E-45
6.62784E-01 1.00000E-45
6.66903E-01 1.00000E-45
6.71010E-01 1.00000E-45
6.75104E-01 1.00000E-45
6.79184E-01 1.00000E-45
6.83251E-01 1.00000E-45
6.87303E-01 1.00000E-45
6.91342E-01 1.00000E-45
6.95366E-01 1.00000E-45
6.99375E-01 1.00000E-45
7.03368E-01 1.00000E-45
7.07347E-01 1.00000E-45
7.11309E-01 1.00000E-45
7.15256E-01 1.00000E-45
7.19186E-01 1.00000E-45
7.23099E-01 1.00000E-45
7.26995E-01 1.00000E-45
7.30874E-01 1.00000E-45
7.34736E-01 1.00000E-45
7.38579E-01 1.00000E-45
7.42405E-01 1.00000E-45
7.46212E-01 1.00000E-45
7.50000E-01 1.00000E-45
7.53769E-01 1.00000E-45
7.57519E-01 1.00000E-45
7.61249E-01 1.00000E-45
7.64960E-01 1.00000E-45
7.68650E-01 1.00000E-45
7.72320E-01 1.00000E-45
7.75968E-01 1.00000E-45
7.79596E-01 1.00000E-45
7.83203E-01 1.00000E-45
7.86788E-01 1.00000E-45
7.90351E-01 1.00000E-45
7.93893E-01 1.00000E-45
7.97411E-01 1.00000E-45
8.00908E-01 1.00000E-45
8.04381E-01 1.00000E-45
8.07831E-01 1.00000E-45
8.11257E-01 1.00000E-45
8.14660E-01 1.00000E-45
8.18039E-01 1.00000E-45
8.21394E-01 1.00000E-45
8.24724E-01 1.00000E-45
8.28030E-01 1.00000E-45
8.31310E-01 1.00000E-45
8.34565E-01 1.00000E-45
8.37795E-01 1.00000E-45
8.40999E-01 1.00000E-45
8.44177E-01 1.00000E-45
8.47329E-01 1.00000E-45
8.50455E-01 1.00000E-45
8.53553E-01 1.00000E-45
8.56625E-01 1.00000E-45
8.59670E-01 1.00000E-45
8.62687E-01 1.00000E-45
8.65677E-01 1.00000E-45
8.68639E-01 1.00000E-45
8.71572E-01 1.00000E-45
8.74478E-01 1.00000E-45
8.77355E-01 1.00000E-45
8.80203E-01 1.00000E-45
8.83022E-01 1.00000E-45
8.85812E-01 1.00000E-45
8.88573E-01 1.00000E-45
8.91304E-01 1.00000E-45
8.94005E-01 1.00000E-45
8.96677E-01 1.00000E-45
8.99318E-01 1.00000E-45
9.01928E-01 1.00000E-45
9.04508E-01 1.00000E-45
9.07058E-01 1.00000E-45
9.09576E-01 1.00000E-45
9.12063E-01 1.00000E-45
9.14519E-01 1.00000E-45
9.16943E-01 1.00000E-45
9.19335E-01 1.00000E-45
9.21696E-01 1.00000E-45
9.24024E-01 1.00000E-45
9.26320E-01 1.00000E-45
9.28584E-01 1.00000E-45
9.30815E-01 1.00000E-45
9.33013E-01 1.00000E-45
9.35178E-01 1.00000E-45
9.37310E-01 1.00000E-45
9.39409E-01 1.00000E-45
9.41474E-01 1.00000E-45
9.43505E-01 1.00000E-45
9.45503E-01 1.00000E-45
9.47467E-01 1.00000E-45
9.49397E-01 1.00000E-45
9.51293E-01 1.00000E-45
9.53154E-01 1.00000E-45
9.54981E-01 1.00000E-45
9.56773E-01 1.00000E-45
9.58530E-01 1.00000E-45
9.60252E-01 1.00000E-45
9.61940E-01 1.00000E-45
9.63592E-01 1.00000E-45
9.65209E-01 1.00000E-45
9.66790E-01 1.00000E-45
9.68336E-01 1.00000E-45
9.69846E-01 1.00000E-45
9.71321E-01 1.00000E-45
9.72759E-01 1.00000E-45
9.74162E-01 1.00000E-45
9.75528E-01 1.00000E-45
9.76858E-01 1.00000E-45
9.78152E-01 1.00000E-45
9.79410E-01 1.00000E-45
9.80631E-01 1.00000E-45
9.81815E-01 1.00000E-45
9.82963E-01 1.00000E-45
9.84074E-01 1.00000E-45
9.85148E-01 1.00000E-45
9.86185E-01 1.00000E-45
9.87185E-01 1.00000E-45
9.88148E-01 1.00000E-45
9.89074E-01 1.00000E-45
9.89962E-01 1.00000E-45
9.90814E-01 1.00000E-45
9.91627E-01 1.00000E-45
9.92404E-01 1.00000E-45
9.93143E-01 1.00000E-45
9.93844E-01 1.00000E-45
9.94508E-01 1.00000E-45
9.95134E-01 1.00000E-45
9.95722E-01 1.00000E-45
9.96273E-01 1.00000E-45
9.96786E-01 1.00000E-45
9.97261E-01 1.00000E-45
9.97698E-01 1.00000E-45
9.98097E-01 1.00000E-45
9.98459E-01 1.00000E-45
9.98782E-01 1.00000E-45
9.99067E-01 1.00000E-45
9.99315E-01 1.00000E-45
9.99524E-01 1.00000E-45
9.99695E-01 1.00000E-45
9.99829E-01 1.00000E-45
9.99924E-01 1.00000E-45
9.99981E-01 1.00000E-45
1.00000E+00 1.00000E-45
