 #
 # Subroutine ELSEPA. Elastic scattering of electrons and positrons
 #                    by neutral atoms and positive ions
 #
 # Projectile: positron
 # Kinetic energy = 8.00000E+08 eV = 2.93995E+07 a.u.
 #
 # WARNING: High-energy factorization with free-atom DF screening.
 #          Absorption, polarization and exchange corrections are
 #          switched off.
 #          Phase shifts are calculated for the bare nucleus.
 #          Scattering amplitudes are not evaluated.
 #
 # Element: Kr,  Z =  36,  atomic weight = 8.38000E+01 g/mol
 #
 # Nuclear model: Fermi distribution
 #                Average radius = 4.68236E-13 cm
 #                Skin thickness = 5.46000E-14 cm
 #
 # Number of electrons = 36
 #
 # Total elastic cross section = 2.80565E-18 cm**2 = 1.00192E-01 a0**2
 # 1st transport cross section = 4.06891E-27 cm**2 = 1.45303E-10 a0**2
 # 2nd transport cross section = 1.22046E-26 cm**2 = 4.35835E-10 a0**2
 #
 #
 # Differential cross section:                       MU=(1-COS(THETA))/2
 #
 #  THETA        MU          DCS          DCS        Sherman      error
 #  (deg)                 (cm**2/sr)   (a0**2/sr)    function
 #----------------------------------------------------------------------
0.00000E+00 1.14371E-08
7.61557E-13 1.04949E-08
1.18994E-12 1.00130E-08
1.71346E-12 9.46787E-09
2.33225E-12 8.87753E-09
3.04617E-12 8.26001E-09
3.85530E-12 7.63573E-09
4.75964E-12 7.01335E-09
5.75917E-12 6.41308E-09
6.85391E-12 5.83403E-09
8.04379E-12 5.29315E-09
9.32893E-12 4.78499E-09
1.07092E-11 4.31947E-09
1.21847E-11 3.89181E-09
1.37554E-11 3.50454E-09
1.54213E-11 3.15432E-09
1.71823E-11 2.83956E-09
1.90386E-11 2.55785E-09
2.09900E-11 2.30582E-09
2.30367E-11 2.08163E-09
2.51785E-11 1.88152E-09
2.74156E-11 1.70405E-09
2.97478E-11 1.54570E-09
3.21752E-11 1.40523E-09
3.46979E-11 1.27997E-09
3.73157E-11 1.16555E-09
4.00286E-11 1.06301E-09
4.28368E-11 9.73158E-10
4.57402E-11 8.94130E-10
4.87388E-11 8.24359E-10
5.18325E-11 7.62545E-10
5.50215E-11 7.07590E-10
5.83057E-11 6.55230E-10
6.16850E-11 6.07333E-10
6.51595E-11 5.64496E-10
6.87293E-11 5.26070E-10
7.23943E-11 4.91506E-10
7.61544E-11 4.60330E-10
1.18991E-10 2.52933E-10
1.71347E-10 1.51949E-10
2.33223E-10 9.59549E-11
3.04617E-10 6.26287E-11
3.85531E-10 4.21385E-11
4.75965E-10 2.90933E-11
5.75917E-10 2.06507E-11
6.85389E-10 1.50190E-11
8.04380E-10 1.11891E-11
9.32891E-10 8.51315E-12
1.07092E-09 6.60136E-12
1.21847E-09 5.20611E-12
1.37554E-09 4.16767E-12
1.54213E-09 3.37964E-12
1.71823E-09 2.77157E-12
1.90386E-09 2.29548E-12
2.09900E-09 1.91779E-12
2.30367E-09 1.61507E-12
2.51785E-09 1.36966E-12
2.74156E-09 1.16919E-12
2.97478E-09 1.00370E-12
3.21752E-09 8.66351E-13
3.46978E-09 7.51398E-13
3.73156E-09 6.54391E-13
4.00286E-09 5.72535E-13
4.28368E-09 5.03401E-13
4.57402E-09 4.43858E-13
4.87388E-09 3.92907E-13
5.18326E-09 3.49159E-13
5.50215E-09 3.11023E-13
5.83057E-09 2.78039E-13
6.16850E-09 2.49296E-13
6.51596E-09 2.24081E-13
6.87293E-09 2.02021E-13
7.23942E-09 1.82565E-13
7.61544E-09 1.65378E-13
1.18991E-08 6.90009E-14
1.71347E-08 3.37131E-14
2.33223E-08 1.83896E-14
3.04617E-08 1.08727E-14
3.85531E-08 6.83500E-15
4.75965E-08 4.50935E-15
5.75917E-08 3.09362E-15
6.85389E-08 2.19201E-15
8.04380E-08 1.59595E-15
9.32891E-08 1.18923E-15
1.07092E-07 9.04090E-16
1.21847E-07 6.99435E-16
1.37554E-07 5.49499E-16
1.54213E-07 4.37636E-16
1.71823E-07 3.52822E-16
1.90386E-07 2.87580E-16
2.09900E-07 2.36734E-16
2.30367E-07 1.96638E-16
2.51785E-07 1.64677E-16
2.74156E-07 1.38951E-16
2.97478E-07 1.18055E-16
3.21752E-07 1.00942E-16
3.46978E-07 8.68186E-17
3.73156E-07 7.50803E-17
4.00286E-07 6.52597E-17
4.28368E-07 5.69930E-17
4.57402E-07 4.99944E-17
4.87388E-07 4.40374E-17
5.18325E-07 3.89416E-17
5.50215E-07 3.45618E-17
5.83057E-07 3.07806E-17
6.16850E-07 2.75026E-17
6.51596E-07 2.46494E-17
6.87293E-07 2.21567E-17
7.23942E-07 1.99712E-17
7.61543E-07 1.80486E-17
1.18991E-06 7.39472E-18
1.71347E-06 3.56635E-18
2.33223E-06 1.92497E-18
3.04617E-06 1.12830E-18
3.85531E-06 7.04328E-19
4.75964E-06 4.62059E-19
5.75916E-06 3.15555E-19
6.85388E-06 2.22775E-19
8.04378E-06 1.61720E-19
9.32888E-06 1.20217E-19
1.07092E-05 9.12130E-20
1.21846E-05 7.04503E-20
1.37553E-05 5.52723E-20
1.54212E-05 4.39698E-20
1.71822E-05 3.54136E-20
1.90385E-05 2.88364E-20
2.09899E-05 2.37249E-20
2.30365E-05 1.96963E-20
2.51783E-05 1.64861E-20
2.74153E-05 1.39028E-20
2.97475E-05 1.18056E-20
3.21749E-05 1.00891E-20
3.46974E-05 8.67366E-21
3.73152E-05 7.49825E-21
4.00281E-05 6.51560E-21
4.28362E-05 5.68885E-21
4.57395E-05 4.98912E-21
4.87380E-05 4.39362E-21
5.18317E-05 3.88424E-21
5.50205E-05 3.44646E-21
5.83045E-05 3.06860E-21
6.16838E-05 2.74112E-21
6.51582E-05 2.45620E-21
6.87277E-05 2.20738E-21
7.23925E-05 1.98930E-21
7.61524E-05 1.77446E-21
9.21439E-05 1.20642E-21
1.09658E-04 8.47392E-22
1.28695E-04 6.11710E-22
1.49255E-04 4.51894E-22
1.71338E-04 3.40545E-22
1.94942E-04 2.61084E-22
2.20070E-04 2.03202E-22
2.46720E-04 1.60266E-22
2.74892E-04 1.27895E-22
3.04586E-04 1.03142E-22
3.35803E-04 8.39639E-23
3.68542E-04 6.89345E-23
4.02802E-04 5.70307E-23
4.38585E-04 4.75121E-23
4.75889E-04 3.98343E-23
5.14715E-04 3.35912E-23
5.55063E-04 2.84776E-23
5.96931E-04 2.42605E-23
6.40321E-04 2.07611E-23
6.85233E-04 1.78403E-23
7.31665E-04 1.53893E-23
7.79618E-04 1.33223E-23
8.29092E-04 1.15709E-23
8.80086E-04 1.00806E-23
9.32601E-04 8.80725E-24
9.86636E-04 7.71514E-24
1.04219E-03 6.77516E-24
1.09927E-03 5.96340E-24
1.15786E-03 5.26019E-24
1.21797E-03 4.64920E-24
1.27961E-03 4.11688E-24
1.34276E-03 3.65190E-24
1.40743E-03 3.24472E-24
1.47362E-03 2.88736E-24
1.54133E-03 2.57302E-24
1.61056E-03 2.29596E-24
1.68131E-03 2.05128E-24
1.75357E-03 1.83481E-24
1.82735E-03 1.64296E-24
1.90265E-03 1.47266E-24
1.97947E-03 1.32125E-24
2.05780E-03 1.18644E-24
2.13765E-03 1.06624E-24
2.21902E-03 9.58947E-25
2.30190E-03 8.63044E-25
2.38630E-03 7.77228E-25
2.47222E-03 7.00354E-25
2.55965E-03 6.31422E-25
2.64859E-03 5.69552E-25
2.73905E-03 5.13972E-25
2.83103E-03 4.63999E-25
2.92452E-03 4.19034E-25
3.01952E-03 3.78546E-25
3.11604E-03 3.42063E-25
3.21407E-03 3.09169E-25
3.31362E-03 2.79493E-25
3.41468E-03 2.52707E-25
3.51725E-03 2.28517E-25
3.62133E-03 2.06661E-25
3.72692E-03 1.86907E-25
3.83403E-03 1.69045E-25
3.94265E-03 1.52889E-25
4.05278E-03 1.38272E-25
4.16442E-03 1.25043E-25
4.27757E-03 1.13069E-25
4.39223E-03 1.02229E-25
4.50840E-03 9.24127E-26
4.62608E-03 8.35234E-26
4.74527E-03 7.54728E-26
4.86597E-03 6.81814E-26
4.98817E-03 6.15775E-26
5.11188E-03 5.55964E-26
5.23711E-03 5.01797E-26
5.36383E-03 4.52745E-26
5.49207E-03 4.08331E-26
5.62181E-03 3.68121E-26
5.75306E-03 3.31726E-26
5.88581E-03 2.98789E-26
6.02007E-03 2.68990E-26
6.15583E-03 2.42037E-26
6.29310E-03 2.17666E-26
6.43187E-03 1.95637E-26
6.57214E-03 1.75732E-26
6.71392E-03 1.57755E-26
6.85720E-03 1.41525E-26
7.00198E-03 1.26880E-26
7.14827E-03 1.13672E-26
7.29605E-03 1.01766E-26
7.44534E-03 9.10406E-27
7.59612E-03 8.13845E-27
7.97965E-03 6.12828E-27
8.37255E-03 4.59183E-27
8.77480E-03 3.42356E-27
9.18641E-03 2.54049E-27
9.60736E-03 1.87744E-27
1.00376E-02 1.38332E-27
1.04773E-02 1.01818E-27
1.09262E-02 7.50855E-28
1.13844E-02 5.57154E-28
1.18520E-02 4.18372E-28
1.23288E-02 3.20125E-28
1.28150E-02 2.51428E-28
1.33104E-02 2.03951E-28
1.38150E-02 1.71441E-28
1.43290E-02 1.49250E-28
1.48521E-02 1.33975E-28
1.53845E-02 1.23163E-28
1.59262E-02 1.15081E-28
1.64770E-02 1.08542E-28
1.70371E-02 1.02759E-28
1.76063E-02 9.72427E-29
1.81848E-02 9.17114E-29
1.87724E-02 8.60321E-29
1.93692E-02 8.01700E-29
1.99751E-02 7.41535E-29
2.05901E-02 6.80473E-29
2.12143E-02 6.19340E-29
2.18476E-02 5.59008E-29
2.24900E-02 5.00306E-29
2.31415E-02 4.43971E-29
2.38021E-02 3.90611E-29
2.44717E-02 3.40699E-29
2.51504E-02 2.94565E-29
2.58382E-02 2.52412E-29
2.65349E-02 2.14321E-29
2.72407E-02 1.80274E-29
2.79555E-02 1.50166E-29
2.86793E-02 1.23826E-29
2.94120E-02 1.01030E-29
3.01537E-02 8.15178E-30
3.09043E-02 6.50065E-30
3.16639E-02 5.12013E-30
3.24324E-02 3.98053E-30
3.32098E-02 3.05271E-30
3.39961E-02 2.30872E-30
3.47912E-02 1.72226E-30
3.55952E-02 1.26898E-30
3.64081E-02 9.26671E-31
3.72297E-02 6.75423E-31
3.80602E-02 4.97595E-31
3.88995E-02 3.77797E-31
3.97476E-02 3.02793E-31
4.06044E-02 2.61366E-31
4.14700E-02 2.44167E-31
4.23443E-02 2.43537E-31
4.32273E-02 2.53328E-31
4.41190E-02 2.68721E-31
4.50194E-02 2.86049E-31
4.59284E-02 3.02622E-31
4.68461E-02 3.16574E-31
4.87074E-02 3.32381E-31
5.06030E-02 3.29740E-31
5.25328E-02 3.10195E-31
5.44967E-02 2.77948E-31
5.64946E-02 2.38061E-31
5.85262E-02 1.95321E-31
6.05914E-02 1.53630E-31
6.26901E-02 1.15766E-31
6.48222E-02 8.33884E-32
6.69873E-02 5.71922E-32
6.91854E-02 3.71279E-32
7.14163E-02 2.26347E-32
7.36799E-02 1.28557E-32
7.59760E-02 6.81343E-33
7.83043E-02 3.54114E-33
8.06647E-02 2.16943E-33
8.30571E-02 1.97478E-33
8.54812E-02 2.39734E-33
8.79369E-02 3.03670E-33
9.04240E-02 3.63353E-33
9.29422E-02 4.04363E-33
9.54915E-02 4.20974E-33
9.80716E-02 4.13452E-33
1.00682E-01 3.85716E-33
1.03323E-01 3.43462E-33
1.05995E-01 2.92781E-33
1.08696E-01 2.39236E-33
1.11427E-01 1.87340E-33
1.14188E-01 1.40334E-33
1.16978E-01 1.00196E-33
1.19797E-01 6.77916E-34
1.22645E-01 4.31011E-34
1.25522E-01 2.54723E-34
1.28428E-01 1.38632E-34
1.31361E-01 7.05206E-35
1.34323E-01 3.80071E-35
1.37313E-01 2.97109E-35
1.40330E-01 3.59673E-35
1.43375E-01 4.91605E-35
1.46447E-01 6.37623E-35
1.49545E-01 7.61635E-35
1.52671E-01 8.43763E-35
1.55823E-01 8.76811E-35
1.59001E-01 8.62628E-35
1.62205E-01 8.08807E-35
1.65435E-01 7.25881E-35
1.68690E-01 6.25160E-35
1.71970E-01 5.17202E-35
1.75276E-01 4.10844E-35
1.78606E-01 3.12746E-35
1.81961E-01 2.27299E-35
1.85340E-01 1.56795E-35
1.88743E-01 1.01769E-35
1.92169E-01 6.14120E-36
1.95619E-01 3.40016E-36
1.99092E-01 1.72960E-36
2.02589E-01 8.86688E-37
2.06107E-01 6.35611E-37
2.09649E-01 7.65383E-37
2.13212E-01 1.10044E-36
2.16797E-01 1.50508E-36
2.20404E-01 1.88315E-36
2.24032E-01 2.17439E-36
2.27680E-01 2.34860E-36
2.31350E-01 2.39905E-36
2.35040E-01 2.33563E-36
2.38751E-01 2.17873E-36
2.42481E-01 1.95386E-36
2.46231E-01 1.68766E-36
2.50000E-01 1.40477E-36
2.53788E-01 1.12600E-36
2.57595E-01 8.67281E-37
2.61421E-01 6.39529E-37
2.65264E-01 4.48903E-37
2.69126E-01 2.97364E-37
2.73005E-01 1.83644E-37
2.76901E-01 1.04102E-37
2.80814E-01 5.36354E-38
2.84744E-01 2.64204E-38
2.88691E-01 1.65870E-38
2.92653E-01 1.86616E-38
2.96632E-01 2.78780E-38
3.00625E-01 4.03584E-38
3.04634E-01 5.31618E-38
3.08658E-01 6.42462E-38
3.12697E-01 7.23757E-38
3.16749E-01 7.69837E-38
3.20816E-01 7.80241E-38
3.24896E-01 7.58292E-38
3.28990E-01 7.09695E-38
3.33097E-01 6.41375E-38
3.37216E-01 5.60595E-38
3.41348E-01 4.74078E-38
3.45492E-01 3.87698E-38
3.49647E-01 3.06113E-38
3.53814E-01 2.32730E-38
3.57992E-01 1.69533E-38
3.62181E-01 1.17567E-38
3.66381E-01 7.68490E-39
3.70590E-01 1.00000E-45
3.74810E-01 1.00000E-45
3.79039E-01 1.00000E-45
3.83277E-01 1.00000E-45
3.87524E-01 1.00000E-45
3.91780E-01 1.00000E-45
3.96044E-01 1.00000E-45
4.00316E-01 1.00000E-45
4.04596E-01 1.00000E-45
4.08882E-01 1.00000E-45
4.13176E-01 1.00000E-45
4.17476E-01 1.00000E-45
4.21783E-01 1.00000E-45
4.26095E-01 1.00000E-45
4.30413E-01 1.00000E-45
4.34737E-01 1.00000E-45
4.39065E-01 1.00000E-45
4.43398E-01 1.00000E-45
4.47736E-01 1.00000E-45
4.52077E-01 1.00000E-45
4.56422E-01 1.00000E-45
4.60770E-01 1.00000E-45
4.65122E-01 1.00000E-45
4.69476E-01 1.00000E-45
4.73832E-01 1.00000E-45
4.78190E-01 1.00000E-45
4.82550E-01 1.00000E-45
4.86912E-01 1.00000E-45
4.91274E-01 1.00000E-45
4.95637E-01 1.00000E-45
5.00000E-01 1.00000E-45
5.04363E-01 1.00000E-45
5.08726E-01 1.00000E-45
5.13088E-01 1.00000E-45
5.17450E-01 1.00000E-45
5.21810E-01 1.00000E-45
5.26168E-01 1.00000E-45
5.30524E-01 1.00000E-45
5.34878E-01 1.00000E-45
5.39230E-01 1.00000E-45
5.43578E-01 1.00000E-45
5.47923E-01 1.00000E-45
5.52264E-01 1.00000E-45
5.56602E-01 1.00000E-45
5.60935E-01 1.00000E-45
5.65263E-01 1.00000E-45
5.69587E-01 1.00000E-45
5.73905E-01 1.00000E-45
5.78217E-01 1.00000E-45
5.82524E-01 1.00000E-45
5.86824E-01 1.00000E-45
5.91118E-01 1.00000E-45
5.95404E-01 1.00000E-45
5.99684E-01 1.00000E-45
6.03956E-01 1.00000E-45
6.08220E-01 1.00000E-45
6.12476E-01 1.00000E-45
6.16723E-01 1.00000E-45
6.20961E-01 1.00000E-45
6.25190E-01 1.00000E-45
6.29410E-01 1.00000E-45
6.33619E-01 1.00000E-45
6.37819E-01 1.00000E-45
6.42008E-01 1.00000E-45
6.46186E-01 1.00000E-45
6.50353E-01 1.00000E-45
6.54508E-01 1.00000E-45
6.58652E-01 1.00000E-45
6.62784E-01 1.00000E-45
6.66903E-01 1.00000E-45
6.71010E-01 1.00000E-45
6.75104E-01 1.00000E-45
6.79184E-01 1.00000E-45
6.83251E-01 1.00000E-45
6.87303E-01 1.00000E-45
6.91342E-01 1.00000E-45
6.95366E-01 1.00000E-45
6.99375E-01 1.00000E-45
7.03368E-01 1.00000E-45
7.07347E-01 1.00000E-45
7.11309E-01 1.00000E-45
7.15256E-01 1.00000E-45
7.19186E-01 1.00000E-45
7.23099E-01 1.00000E-45
7.26995E-01 1.00000E-45
7.30874E-01 1.00000E-45
7.34736E-01 1.00000E-45
7.38579E-01 1.00000E-45
7.42405E-01 1.00000E-45
7.46212E-01 1.00000E-45
7.50000E-01 1.00000E-45
7.53769E-01 1.00000E-45
7.57519E-01 1.00000E-45
7.61249E-01 1.00000E-45
7.64960E-01 1.00000E-45
7.68650E-01 1.00000E-45
7.72320E-01 1.00000E-45
7.75968E-01 1.00000E-45
7.79596E-01 1.00000E-45
7.83203E-01 1.00000E-45
7.86788E-01 1.00000E-45
7.90351E-01 1.00000E-45
7.93893E-01 1.00000E-45
7.97411E-01 1.00000E-45
8.00908E-01 1.00000E-45
8.04381E-01 1.00000E-45
8.07831E-01 1.00000E-45
8.11257E-01 1.00000E-45
8.14660E-01 1.00000E-45
8.18039E-01 1.00000E-45
8.21394E-01 1.00000E-45
8.24724E-01 1.00000E-45
8.28030E-01 1.00000E-45
8.31310E-01 1.00000E-45
8.34565E-01 1.00000E-45
8.37795E-01 1.00000E-45
8.40999E-01 1.00000E-45
8.44177E-01 1.00000E-45
8.47329E-01 1.00000E-45
8.50455E-01 1.00000E-45
8.53553E-01 1.00000E-45
8.56625E-01 1.00000E-45
8.59670E-01 1.00000E-45
8.62687E-01 1.00000E-45
8.65677E-01 1.00000E-45
8.68639E-01 1.00000E-45
8.71572E-01 1.00000E-45
8.74478E-01 1.00000E-45
8.77355E-01 1.00000E-45
8.80203E-01 1.00000E-45
8.83022E-01 1.00000E-45
8.85812E-01 1.00000E-45
8.88573E-01 1.00000E-45
8.91304E-01 1.00000E-45
8.94005E-01 1.00000E-45
8.96677E-01 1.00000E-45
8.99318E-01 1.00000E-45
9.01928E-01 1.00000E-45
9.04508E-01 1.00000E-45
9.07058E-01 1.00000E-45
9.09576E-01 1.00000E-45
9.12063E-01 1.00000E-45
9.14519E-01 1.00000E-45
9.16943E-01 1.00000E-45
9.19335E-01 1.00000E-45
9.21696E-01 1.00000E-45
9.24024E-01 1.00000E-45
9.26320E-01 1.00000E-45
9.28584E-01 1.00000E-45
9.30815E-01 1.00000E-45
9.33013E-01 1.00000E-45
9.35178E-01 1.00000E-45
9.37310E-01 1.00000E-45
9.39409E-01 1.00000E-45
9.41474E-01 1.00000E-45
9.43505E-01 1.00000E-45
9.45503E-01 1.00000E-45
9.47467E-01 1.00000E-45
9.49397E-01 1.00000E-45
9.51293E-01 1.00000E-45
9.53154E-01 1.00000E-45
9.54981E-01 1.00000E-45
9.56773E-01 1.00000E-45
9.58530E-01 1.00000E-45
9.60252E-01 1.00000E-45
9.61940E-01 1.00000E-45
9.63592E-01 1.00000E-45
9.65209E-01 1.00000E-45
9.66790E-01 1.00000E-45
9.68336E-01 1.00000E-45
9.69846E-01 1.00000E-45
9.71321E-01 1.00000E-45
9.72759E-01 1.00000E-45
9.74162E-01 1.00000E-45
9.75528E-01 1.00000E-45
9.76858E-01 1.00000E-45
9.78152E-01 1.00000E-45
9.79410E-01 1.00000E-45
9.80631E-01 1.00000E-45
9.81815E-01 1.00000E-45
9.82963E-01 1.00000E-45
9.84074E-01 1.00000E-45
9.85148E-01 1.00000E-45
9.86185E-01 1.00000E-45
9.87185E-01 1.00000E-45
9.88148E-01 1.00000E-45
9.89074E-01 1.00000E-45
9.89962E-01 1.00000E-45
9.90814E-01 1.00000E-45
9.91627E-01 1.00000E-45
9.92404E-01 1.00000E-45
9.93143E-01 1.00000E-45
9.93844E-01 1.00000E-45
9.94508E-01 1.00000E-45
9.95134E-01 1.00000E-45
9.95722E-01 1.00000E-45
9.96273E-01 1.00000E-45
9.96786E-01 1.00000E-45
9.97261E-01 1.00000E-45
9.97698E-01 1.00000E-45
9.98097E-01 1.00000E-45
9.98459E-01 1.00000E-45
9.98782E-01 1.00000E-45
9.99067E-01 1.00000E-45
9.99315E-01 1.00000E-45
9.99524E-01 1.00000E-45
9.99695E-01 1.00000E-45
9.99829E-01 1.00000E-45
9.99924E-01 1.00000E-45
9.99981E-01 1.00000E-45
1.00000E+00 1.00000E-45
