 #
 # Subroutine ELSEPA. Elastic scattering of electrons and positrons
 #                    by neutral atoms and positive ions
 #
 # Projectile: positron
 # Kinetic energy = 3.50000E+06 eV = 1.28623E+05 a.u.
 #
 # WARNING: High-energy factorization with free-atom DF screening.
 #          Absorption, polarization and exchange corrections are
 #          switched off.
 #          Phase shifts are calculated for the bare nucleus.
 #          Scattering amplitudes are not evaluated.
 #
 # Element: Kr,  Z =  36,  atomic weight = 8.38000E+01 g/mol
 #
 # Nuclear model: Fermi distribution
 #                Average radius = 4.68236E-13 cm
 #                Skin thickness = 5.46000E-14 cm
 #
 # Number of electrons = 36
 #
 # Total elastic cross section = 2.85254E-18 cm**2 = 1.01866E-01 a0**2
 # 1st transport cross section = 1.05396E-22 cm**2 = 3.76377E-06 a0**2
 # 2nd transport cross section = 3.02554E-22 cm**2 = 1.08044E-05 a0**2
 #
 #
 # Differential cross section:                       MU=(1-COS(THETA))/2
 #
 #  THETA        MU          DCS          DCS        Sherman      error
 #  (deg)                 (cm**2/sr)   (a0**2/sr)    function
 #----------------------------------------------------------------------
0.00000E+00 2.87136E-13
7.61557E-13 2.87135E-13
1.18994E-12 2.87134E-13
1.71346E-12 2.87134E-13
2.33225E-12 2.87133E-13
3.04617E-12 2.87133E-13
3.85530E-12 2.87132E-13
4.75964E-12 2.87131E-13
5.75917E-12 2.87130E-13
6.85391E-12 2.87129E-13
8.04379E-12 2.87128E-13
9.32893E-12 2.87127E-13
1.07092E-11 2.87126E-13
1.21847E-11 2.87125E-13
1.37554E-11 2.87123E-13
1.54213E-11 2.87122E-13
1.71823E-11 2.87120E-13
1.90386E-11 2.87119E-13
2.09900E-11 2.87117E-13
2.30367E-11 2.87115E-13
2.51785E-11 2.87114E-13
2.74156E-11 2.87112E-13
2.97478E-11 2.87110E-13
3.21752E-11 2.87108E-13
3.46979E-11 2.87106E-13
3.73157E-11 2.87103E-13
4.00286E-11 2.87101E-13
4.28368E-11 2.87099E-13
4.57402E-11 2.87096E-13
4.87388E-11 2.87094E-13
5.18325E-11 2.87091E-13
5.50215E-11 2.87089E-13
5.83057E-11 2.87086E-13
6.16850E-11 2.87083E-13
6.51595E-11 2.87080E-13
6.87293E-11 2.87077E-13
7.23943E-11 2.87074E-13
7.61544E-11 2.87071E-13
1.18991E-10 2.87035E-13
1.71347E-10 2.86992E-13
2.33223E-10 2.86941E-13
3.04617E-10 2.86882E-13
3.85531E-10 2.86816E-13
4.75965E-10 2.86742E-13
5.75917E-10 2.86660E-13
6.85389E-10 2.86570E-13
8.04380E-10 2.86473E-13
9.32891E-10 2.86368E-13
1.07092E-09 2.86255E-13
1.21847E-09 2.86135E-13
1.37554E-09 2.86007E-13
1.54213E-09 2.85871E-13
1.71823E-09 2.85728E-13
1.90386E-09 2.85577E-13
2.09900E-09 2.85419E-13
2.30367E-09 2.85253E-13
2.51785E-09 2.85080E-13
2.74156E-09 2.84899E-13
2.97478E-09 2.84711E-13
3.21752E-09 2.84515E-13
3.46978E-09 2.84311E-13
3.73156E-09 2.84101E-13
4.00286E-09 2.83883E-13
4.28368E-09 2.83657E-13
4.57402E-09 2.83424E-13
4.87388E-09 2.83184E-13
5.18326E-09 2.82936E-13
5.50215E-09 2.82682E-13
5.83057E-09 2.82420E-13
6.16850E-09 2.82151E-13
6.51596E-09 2.81874E-13
6.87293E-09 2.81591E-13
7.23942E-09 2.81300E-13
7.61544E-09 2.81002E-13
1.18991E-08 2.77643E-13
1.71347E-08 2.73586E-13
2.33223E-08 2.68956E-13
3.04617E-08 2.63714E-13
3.85531E-08 2.57943E-13
4.75965E-08 2.51745E-13
5.75917E-08 2.45184E-13
6.85389E-08 2.38168E-13
8.04380E-08 2.30913E-13
9.32891E-08 2.23492E-13
1.07092E-07 2.15871E-13
1.21847E-07 2.08077E-13
1.37554E-07 2.00281E-13
1.54213E-07 1.92532E-13
1.71823E-07 1.84698E-13
1.90386E-07 1.76955E-13
2.09900E-07 1.69373E-13
2.30367E-07 1.61943E-13
2.51785E-07 1.54575E-13
2.74156E-07 1.47445E-13
2.97478E-07 1.40563E-13
3.21752E-07 1.33855E-13
3.46978E-07 1.27353E-13
3.73156E-07 1.21130E-13
4.00286E-07 1.15180E-13
4.28368E-07 1.09403E-13
4.57402E-07 1.03899E-13
4.87388E-07 9.86671E-14
5.18325E-07 9.36763E-14
5.50215E-07 8.88897E-14
5.83057E-07 8.43604E-14
6.16850E-07 8.00755E-14
6.51596E-07 7.59886E-14
6.87293E-07 7.21123E-14
7.23942E-07 6.84557E-14
7.61543E-07 6.50058E-14
1.18991E-06 3.93509E-14
1.71347E-06 2.47992E-14
2.33223E-06 1.67065E-14
3.04617E-06 1.17260E-14
3.85531E-06 8.55897E-15
4.75964E-06 6.44916E-15
5.75916E-06 4.97351E-15
6.85388E-06 3.87416E-15
8.04378E-06 3.06337E-15
9.32888E-06 2.45098E-15
1.07092E-05 1.97414E-15
1.21846E-05 1.60017E-15
1.37553E-05 1.30840E-15
1.54212E-05 1.07796E-15
1.71822E-05 8.92464E-16
1.90385E-05 7.44164E-16
2.09899E-05 6.25137E-16
2.30365E-05 5.28466E-16
2.51783E-05 4.49245E-16
2.74153E-05 3.84337E-16
2.97475E-05 3.30763E-16
3.21749E-05 2.86195E-16
3.46974E-05 2.48971E-16
3.73152E-05 2.17701E-16
4.00281E-05 1.91259E-16
4.28362E-05 1.68765E-16
4.57395E-05 1.49557E-16
4.87380E-05 1.33069E-16
5.18317E-05 1.18837E-16
5.50205E-05 1.06484E-16
5.83045E-05 9.57290E-17
6.16838E-05 8.63259E-17
6.51582E-05 7.80601E-17
6.87277E-05 7.07712E-17
7.23925E-05 6.43264E-17
7.61524E-05 5.86083E-17
9.21439E-05 4.12160E-17
1.09658E-04 2.98237E-17
1.28695E-04 2.20922E-17
1.49255E-04 1.66838E-17
1.71338E-04 1.28256E-17
1.94942E-04 1.00077E-17
2.20070E-04 7.91942E-18
2.46720E-04 6.34518E-18
2.74892E-04 5.13874E-18
3.04586E-04 4.20493E-18
3.35803E-04 3.47341E-18
3.68542E-04 2.89385E-18
4.02802E-04 2.42971E-18
4.38585E-04 2.05507E-18
4.75889E-04 1.74997E-18
5.14715E-04 1.49939E-18
5.55063E-04 1.29210E-18
5.96931E-04 1.11948E-18
6.40321E-04 9.74802E-19
6.85233E-04 8.52728E-19
7.31665E-04 7.49209E-19
7.79618E-04 6.60962E-19
8.29092E-04 5.85341E-19
8.80086E-04 5.20221E-19
9.32601E-04 4.63922E-19
9.86636E-04 4.15046E-19
1.04219E-03 3.72431E-19
1.09927E-03 3.35144E-19
1.15786E-03 3.02412E-19
1.21797E-03 2.73580E-19
1.27961E-03 2.48091E-19
1.34276E-03 2.25502E-19
1.40743E-03 2.05426E-19
1.47362E-03 1.87530E-19
1.54133E-03 1.71535E-19
1.61056E-03 1.57208E-19
1.68131E-03 1.44344E-19
1.75357E-03 1.32764E-19
1.82735E-03 1.22320E-19
1.90265E-03 1.12881E-19
1.97947E-03 1.04333E-19
2.05780E-03 9.65746E-20
2.13765E-03 8.95229E-20
2.21902E-03 8.31017E-20
2.30190E-03 7.72437E-20
2.38630E-03 7.18908E-20
2.47222E-03 6.69924E-20
2.55965E-03 6.25031E-20
2.64859E-03 5.83814E-20
2.73905E-03 5.45929E-20
2.83103E-03 5.11058E-20
2.92452E-03 4.78917E-20
3.01952E-03 4.49250E-20
3.11604E-03 4.21837E-20
3.21407E-03 3.96477E-20
3.31362E-03 3.72984E-20
3.41468E-03 3.51198E-20
3.51725E-03 3.30975E-20
3.62133E-03 3.12181E-20
3.72692E-03 2.94694E-20
3.83403E-03 2.78410E-20
3.94265E-03 2.63231E-20
4.05278E-03 2.49068E-20
4.16442E-03 2.35839E-20
4.27757E-03 2.23474E-20
4.39223E-03 2.11906E-20
4.50840E-03 2.01072E-20
4.62608E-03 1.90919E-20
4.74527E-03 1.81396E-20
4.86597E-03 1.72456E-20
4.98817E-03 1.64058E-20
5.11188E-03 1.56162E-20
5.23711E-03 1.48734E-20
5.36383E-03 1.41740E-20
5.49207E-03 1.35150E-20
5.62181E-03 1.28937E-20
5.75306E-03 1.23075E-20
5.88581E-03 1.17541E-20
6.02007E-03 1.12313E-20
6.15583E-03 1.07371E-20
6.29310E-03 1.02696E-20
6.43187E-03 9.82721E-21
6.57214E-03 9.40825E-21
6.71392E-03 9.01127E-21
6.85720E-03 8.63489E-21
7.00198E-03 8.27785E-21
7.14827E-03 7.93900E-21
7.29605E-03 7.61723E-21
7.44534E-03 7.31148E-21
7.59612E-03 7.02085E-21
7.97965E-03 6.35472E-21
8.37255E-03 5.76537E-21
8.77480E-03 5.24244E-21
9.18641E-03 4.77718E-21
9.60736E-03 4.36215E-21
1.00376E-02 3.99099E-21
1.04773E-02 3.65827E-21
1.09262E-02 3.35933E-21
1.13844E-02 3.09015E-21
1.18520E-02 2.84724E-21
1.23288E-02 2.62762E-21
1.28150E-02 2.42864E-21
1.33104E-02 2.24804E-21
1.38150E-02 2.08382E-21
1.43290E-02 1.93424E-21
1.48521E-02 1.79776E-21
1.53845E-02 1.67304E-21
1.59262E-02 1.55888E-21
1.64770E-02 1.45423E-21
1.70371E-02 1.35816E-21
1.76063E-02 1.26985E-21
1.81848E-02 1.18855E-21
1.87724E-02 1.11361E-21
1.93692E-02 1.04445E-21
1.99751E-02 9.80540E-22
2.05901E-02 9.21408E-22
2.12143E-02 8.66636E-22
2.18476E-02 8.15846E-22
2.24900E-02 7.68696E-22
2.31415E-02 7.24879E-22
2.38021E-02 6.84117E-22
2.44717E-02 6.46159E-22
2.51504E-02 6.10777E-22
2.58382E-02 5.77766E-22
2.65349E-02 5.46938E-22
2.72407E-02 5.18124E-22
2.79555E-02 4.91166E-22
2.86793E-02 4.65926E-22
2.94120E-02 4.42273E-22
3.01537E-02 4.20090E-22
3.09043E-02 3.99268E-22
3.16639E-02 3.79710E-22
3.24324E-02 3.61325E-22
3.32098E-02 3.44030E-22
3.39961E-02 3.27748E-22
3.47912E-02 3.12410E-22
3.55952E-02 2.97950E-22
3.64081E-02 2.84310E-22
3.72297E-02 2.71434E-22
3.80602E-02 2.59273E-22
3.88995E-02 2.47778E-22
3.97476E-02 2.36908E-22
4.06044E-02 2.26621E-22
4.14700E-02 2.16882E-22
4.23443E-02 2.07655E-22
4.32273E-02 1.98908E-22
4.41190E-02 1.90613E-22
4.50194E-02 1.82741E-22
4.59284E-02 1.75268E-22
4.68461E-02 1.68168E-22
4.87074E-02 1.55005E-22
5.06030E-02 1.43092E-22
5.25328E-02 1.32290E-22
5.44967E-02 1.22478E-22
5.64946E-02 1.13549E-22
5.85262E-02 1.05410E-22
6.05914E-02 9.79798E-23
6.26901E-02 9.11852E-23
6.48222E-02 8.49625E-23
6.69873E-02 7.92555E-23
6.91854E-02 7.40138E-23
7.14163E-02 6.91930E-23
7.36799E-02 6.47535E-23
7.59760E-02 6.06598E-23
7.83043E-02 5.68803E-23
8.06647E-02 5.33867E-23
8.30571E-02 5.01535E-23
8.54812E-02 4.71581E-23
8.79369E-02 4.43798E-23
9.04240E-02 4.18001E-23
9.29422E-02 3.94024E-23
9.54915E-02 3.71717E-23
9.80716E-02 3.50941E-23
1.00682E-01 3.31574E-23
1.03323E-01 3.13504E-23
1.05995E-01 2.96628E-23
1.08696E-01 2.80854E-23
1.11427E-01 2.66097E-23
1.14188E-01 2.52280E-23
1.16978E-01 2.39332E-23
1.19797E-01 2.27190E-23
1.22645E-01 2.15794E-23
1.25522E-01 2.05090E-23
1.28428E-01 1.95030E-23
1.31361E-01 1.85567E-23
1.34323E-01 1.76660E-23
1.37313E-01 1.68271E-23
1.40330E-01 1.60363E-23
1.43375E-01 1.52905E-23
1.46447E-01 1.45867E-23
1.49545E-01 1.39220E-23
1.52671E-01 1.32940E-23
1.55823E-01 1.27001E-23
1.59001E-01 1.21383E-23
1.62205E-01 1.16066E-23
1.65435E-01 1.11029E-23
1.68690E-01 1.06257E-23
1.71970E-01 1.01731E-23
1.75276E-01 9.74389E-24
1.78606E-01 9.33645E-24
1.81961E-01 8.94954E-24
1.85340E-01 8.58196E-24
1.88743E-01 8.23256E-24
1.92169E-01 7.90027E-24
1.95619E-01 7.58414E-24
1.99092E-01 7.28322E-24
2.02589E-01 6.99666E-24
2.06107E-01 6.72365E-24
2.09649E-01 6.46343E-24
2.13212E-01 6.21531E-24
2.16797E-01 5.97862E-24
2.20404E-01 5.75274E-24
2.24032E-01 5.53709E-24
2.27680E-01 5.33113E-24
2.31350E-01 5.13435E-24
2.35040E-01 4.94627E-24
2.38751E-01 4.76644E-24
2.42481E-01 4.59442E-24
2.46231E-01 4.42982E-24
2.50000E-01 4.27227E-24
2.53788E-01 4.12141E-24
2.57595E-01 3.97690E-24
2.61421E-01 3.83844E-24
2.65264E-01 3.70572E-24
2.69126E-01 3.57847E-24
2.73005E-01 3.45642E-24
2.76901E-01 3.33932E-24
2.80814E-01 3.22694E-24
2.84744E-01 3.11906E-24
2.88691E-01 3.01545E-24
2.92653E-01 2.91593E-24
2.96632E-01 2.82030E-24
3.00625E-01 2.72839E-24
3.04634E-01 2.64002E-24
3.08658E-01 2.55504E-24
3.12697E-01 2.47329E-24
3.16749E-01 2.39463E-24
3.20816E-01 2.31893E-24
3.24896E-01 2.24605E-24
3.28990E-01 2.17586E-24
3.33097E-01 2.10826E-24
3.37216E-01 2.04313E-24
3.41348E-01 1.98036E-24
3.45492E-01 1.91986E-24
3.49647E-01 1.86153E-24
3.53814E-01 1.80527E-24
3.57992E-01 1.75100E-24
3.62181E-01 1.69865E-24
3.66381E-01 1.64812E-24
3.70590E-01 1.59935E-24
3.74810E-01 1.55226E-24
3.79039E-01 1.50679E-24
3.83277E-01 1.46287E-24
3.87524E-01 1.42044E-24
3.91780E-01 1.37943E-24
3.96044E-01 1.33980E-24
4.00316E-01 1.30150E-24
4.04596E-01 1.26445E-24
4.08882E-01 1.22863E-24
4.13176E-01 1.19398E-24
4.17476E-01 1.16046E-24
4.21783E-01 1.12803E-24
4.26095E-01 1.09664E-24
4.30413E-01 1.06625E-24
4.34737E-01 1.03683E-24
4.39065E-01 1.00834E-24
4.43398E-01 9.80741E-25
4.47736E-01 9.54011E-25
4.52077E-01 9.28114E-25
4.56422E-01 9.03019E-25
4.60770E-01 8.78698E-25
4.65122E-01 8.55122E-25
4.69476E-01 8.32264E-25
4.73832E-01 8.10100E-25
4.78190E-01 7.88604E-25
4.82550E-01 7.67754E-25
4.86912E-01 7.47526E-25
4.91274E-01 7.27899E-25
4.95637E-01 7.08852E-25
5.00000E-01 6.90366E-25
5.04363E-01 6.72421E-25
5.08726E-01 6.54999E-25
5.13088E-01 6.38083E-25
5.17450E-01 6.21655E-25
5.21810E-01 6.05698E-25
5.26168E-01 5.90198E-25
5.30524E-01 5.75138E-25
5.34878E-01 5.60504E-25
5.39230E-01 5.46283E-25
5.43578E-01 5.32460E-25
5.47923E-01 5.19024E-25
5.52264E-01 5.05961E-25
5.56602E-01 4.93259E-25
5.60935E-01 4.80908E-25
5.65263E-01 4.68896E-25
5.69587E-01 4.57212E-25
5.73905E-01 4.45845E-25
5.78217E-01 4.34786E-25
5.82524E-01 4.24025E-25
5.86824E-01 4.13553E-25
5.91118E-01 4.03361E-25
5.95404E-01 3.93439E-25
5.99684E-01 3.83781E-25
6.03956E-01 3.74377E-25
6.08220E-01 3.65221E-25
6.12476E-01 3.56305E-25
6.16723E-01 3.47621E-25
6.20961E-01 3.39163E-25
6.25190E-01 3.30924E-25
6.29410E-01 3.22898E-25
6.33619E-01 3.15077E-25
6.37819E-01 3.07456E-25
6.42008E-01 3.00029E-25
6.46186E-01 2.92790E-25
6.50353E-01 2.85735E-25
6.54508E-01 2.78856E-25
6.58652E-01 2.72151E-25
6.62784E-01 2.65615E-25
6.66903E-01 2.59241E-25
6.71010E-01 2.53026E-25
6.75104E-01 2.46964E-25
6.79184E-01 2.41051E-25
6.83251E-01 2.35284E-25
6.87303E-01 2.29658E-25
6.91342E-01 2.24169E-25
6.95366E-01 2.18814E-25
6.99375E-01 2.13589E-25
7.03368E-01 2.08490E-25
7.07347E-01 2.03514E-25
7.11309E-01 1.98657E-25
7.15256E-01 1.93918E-25
7.19186E-01 1.89291E-25
7.23099E-01 1.84775E-25
7.26995E-01 1.80365E-25
7.30874E-01 1.76061E-25
7.34736E-01 1.71857E-25
7.38579E-01 1.67753E-25
7.42405E-01 1.63745E-25
7.46212E-01 1.59831E-25
7.50000E-01 1.56008E-25
7.53769E-01 1.52275E-25
7.57519E-01 1.48628E-25
7.61249E-01 1.45065E-25
7.64960E-01 1.41585E-25
7.68650E-01 1.38186E-25
7.72320E-01 1.34864E-25
7.75968E-01 1.31619E-25
7.79596E-01 1.28449E-25
7.83203E-01 1.25351E-25
7.86788E-01 1.22323E-25
7.90351E-01 1.19365E-25
7.93893E-01 1.16474E-25
7.97411E-01 1.13648E-25
8.00908E-01 1.10887E-25
8.04381E-01 1.08188E-25
8.07831E-01 1.05550E-25
8.11257E-01 1.02971E-25
8.14660E-01 1.00451E-25
8.18039E-01 9.79868E-26
8.21394E-01 9.55784E-26
8.24724E-01 9.32240E-26
8.28030E-01 9.09224E-26
8.31310E-01 8.86724E-26
8.34565E-01 8.64727E-26
8.37795E-01 8.43222E-26
8.40999E-01 8.22198E-26
8.44177E-01 8.01643E-26
8.47329E-01 7.81546E-26
8.50455E-01 7.61898E-26
8.53553E-01 7.42689E-26
8.56625E-01 7.23908E-26
8.59670E-01 7.05545E-26
8.62687E-01 6.87592E-26
8.65677E-01 6.70040E-26
8.68639E-01 6.52880E-26
8.71572E-01 6.36103E-26
8.74478E-01 6.19701E-26
8.77355E-01 6.03666E-26
8.80203E-01 5.87990E-26
8.83022E-01 5.72666E-26
8.85812E-01 5.57685E-26
8.88573E-01 5.43042E-26
8.91304E-01 5.28728E-26
8.94005E-01 5.14737E-26
8.96677E-01 5.01062E-26
8.99318E-01 4.87697E-26
9.01928E-01 4.74635E-26
9.04508E-01 4.61871E-26
9.07058E-01 4.49398E-26
9.09576E-01 4.37211E-26
9.12063E-01 4.25304E-26
9.14519E-01 4.13672E-26
9.16943E-01 4.02309E-26
9.19335E-01 3.91209E-26
9.21696E-01 3.80369E-26
9.24024E-01 3.69783E-26
9.26320E-01 3.59446E-26
9.28584E-01 3.49354E-26
9.30815E-01 3.39502E-26
9.33013E-01 3.29886E-26
9.35178E-01 3.20501E-26
9.37310E-01 3.11344E-26
9.39409E-01 3.02410E-26
9.41474E-01 2.93696E-26
9.43505E-01 2.85197E-26
9.45503E-01 2.76910E-26
9.47467E-01 2.68832E-26
9.49397E-01 2.60958E-26
9.51293E-01 2.53287E-26
9.53154E-01 2.45813E-26
9.54981E-01 2.38534E-26
9.56773E-01 2.31448E-26
9.58530E-01 2.24550E-26
9.60252E-01 2.17839E-26
9.61940E-01 2.11310E-26
9.63592E-01 2.04962E-26
9.65209E-01 1.98792E-26
9.66790E-01 1.92798E-26
9.68336E-01 1.86975E-26
9.69846E-01 1.81324E-26
9.71321E-01 1.75840E-26
9.72759E-01 1.70522E-26
9.74162E-01 1.65368E-26
9.75528E-01 1.60375E-26
9.76858E-01 1.55541E-26
9.78152E-01 1.50865E-26
9.79410E-01 1.46344E-26
9.80631E-01 1.41977E-26
9.81815E-01 1.37762E-26
9.82963E-01 1.33697E-26
9.84074E-01 1.29780E-26
9.85148E-01 1.26011E-26
9.86185E-01 1.22387E-26
9.87185E-01 1.18907E-26
9.88148E-01 1.15570E-26
9.89074E-01 1.12374E-26
9.89962E-01 1.09317E-26
9.90814E-01 1.06400E-26
9.91627E-01 1.03620E-26
9.92404E-01 1.00977E-26
9.93143E-01 9.84695E-27
9.93844E-01 9.60962E-27
9.94508E-01 9.38565E-27
9.95134E-01 9.17494E-27
9.95722E-01 8.97742E-27
9.96273E-01 8.79300E-27
9.96786E-01 8.62161E-27
9.97261E-01 8.46318E-27
9.97698E-01 8.31766E-27
9.98097E-01 8.18498E-27
9.98459E-01 8.06509E-27
9.98782E-01 7.95795E-27
9.99067E-01 7.86351E-27
9.99315E-01 7.78174E-27
9.99524E-01 7.71260E-27
9.99695E-01 7.65607E-27
9.99829E-01 7.61212E-27
9.99924E-01 7.58074E-27
9.99981E-01 7.56192E-27
1.00000E+00 7.55565E-27
