 #
 # Subroutine ELSEPA. Elastic scattering of electrons and positrons
 #                    by neutral atoms and positive ions
 #
 # Projectile: positron
 # Kinetic energy = 4.00000E+06 eV = 1.46997E+05 a.u.
 #
 # WARNING: High-energy factorization with free-atom DF screening.
 #          Absorption, polarization and exchange corrections are
 #          switched off.
 #          Phase shifts are calculated for the bare nucleus.
 #          Scattering amplitudes are not evaluated.
 #
 # Element: Kr,  Z =  36,  atomic weight = 8.38000E+01 g/mol
 #
 # Nuclear model: Fermi distribution
 #                Average radius = 4.68236E-13 cm
 #                Skin thickness = 5.46000E-14 cm
 #
 # Number of electrons = 36
 #
 # Total elastic cross section = 2.84390E-18 cm**2 = 1.01558E-01 a0**2
 # 1st transport cross section = 8.47282E-23 cm**2 = 3.02570E-06 a0**2
 # 2nd transport cross section = 2.43533E-22 cm**2 = 8.69674E-06 a0**2
 #
 #
 # Differential cross section:                       MU=(1-COS(THETA))/2
 #
 #  THETA        MU          DCS          DCS        Sherman      error
 #  (deg)                 (cm**2/sr)   (a0**2/sr)    function
 #----------------------------------------------------------------------
0.00000E+00 3.63185E-13
7.61557E-13 3.63183E-13
1.18994E-12 3.63183E-13
1.71346E-12 3.63182E-13
2.33225E-12 3.63181E-13
3.04617E-12 3.63180E-13
3.85530E-12 3.63179E-13
4.75964E-12 3.63178E-13
5.75917E-12 3.63176E-13
6.85391E-12 3.63175E-13
8.04379E-12 3.63173E-13
9.32893E-12 3.63171E-13
1.07092E-11 3.63169E-13
1.21847E-11 3.63167E-13
1.37554E-11 3.63165E-13
1.54213E-11 3.63163E-13
1.71823E-11 3.63161E-13
1.90386E-11 3.63158E-13
2.09900E-11 3.63155E-13
2.30367E-11 3.63153E-13
2.51785E-11 3.63150E-13
2.74156E-11 3.63147E-13
2.97478E-11 3.63144E-13
3.21752E-11 3.63140E-13
3.46979E-11 3.63137E-13
3.73157E-11 3.63133E-13
4.00286E-11 3.63130E-13
4.28368E-11 3.63126E-13
4.57402E-11 3.63122E-13
4.87388E-11 3.63118E-13
5.18325E-11 3.63114E-13
5.50215E-11 3.63110E-13
5.83057E-11 3.63105E-13
6.16850E-11 3.63101E-13
6.51595E-11 3.63096E-13
6.87293E-11 3.63091E-13
7.23943E-11 3.63087E-13
7.61544E-11 3.63082E-13
1.18991E-10 3.63025E-13
1.71347E-10 3.62955E-13
2.33223E-10 3.62874E-13
3.04617E-10 3.62779E-13
3.85531E-10 3.62673E-13
4.75965E-10 3.62554E-13
5.75917E-10 3.62423E-13
6.85389E-10 3.62279E-13
8.04380E-10 3.62123E-13
9.32891E-10 3.61955E-13
1.07092E-09 3.61775E-13
1.21847E-09 3.61582E-13
1.37554E-09 3.61377E-13
1.54213E-09 3.61160E-13
1.71823E-09 3.60931E-13
1.90386E-09 3.60689E-13
2.09900E-09 3.60436E-13
2.30367E-09 3.60171E-13
2.51785E-09 3.59893E-13
2.74156E-09 3.59604E-13
2.97478E-09 3.59302E-13
3.21752E-09 3.58989E-13
3.46978E-09 3.58664E-13
3.73156E-09 3.58328E-13
4.00286E-09 3.57979E-13
4.28368E-09 3.57619E-13
4.57402E-09 3.57247E-13
4.87388E-09 3.56864E-13
5.18326E-09 3.56469E-13
5.50215E-09 3.56062E-13
5.83057E-09 3.55644E-13
6.16850E-09 3.55215E-13
6.51596E-09 3.54775E-13
6.87293E-09 3.54323E-13
7.23942E-09 3.53860E-13
7.61544E-09 3.53386E-13
1.18991E-08 3.48040E-13
1.71347E-08 3.41675E-13
2.33223E-08 3.34340E-13
3.04617E-08 3.26168E-13
3.85531E-08 3.17274E-13
4.75965E-08 3.07778E-13
5.75917E-08 2.97782E-13
6.85389E-08 2.87248E-13
8.04380E-08 2.76427E-13
9.32891E-08 2.65428E-13
1.07092E-07 2.54347E-13
1.21847E-07 2.43271E-13
1.37554E-07 2.32166E-13
1.54213E-07 2.21150E-13
1.71823E-07 2.10352E-13
1.90386E-07 1.99820E-13
2.09900E-07 1.89596E-13
2.30367E-07 1.79686E-13
2.51785E-07 1.70036E-13
2.74156E-07 1.60784E-13
2.97478E-07 1.51937E-13
3.21752E-07 1.43501E-13
3.46978E-07 1.35475E-13
3.73156E-07 1.27798E-13
4.00286E-07 1.20512E-13
4.28368E-07 1.13628E-13
4.57402E-07 1.07134E-13
4.87388E-07 1.01015E-13
5.18325E-07 9.52436E-14
5.50215E-07 8.97883E-14
5.83057E-07 8.46690E-14
6.16850E-07 7.98676E-14
6.51596E-07 7.53664E-14
6.87293E-07 7.11479E-14
7.23942E-07 6.71786E-14
7.61543E-07 6.34598E-14
1.18991E-06 3.70053E-14
1.71347E-06 2.31354E-14
2.33223E-06 1.53944E-14
3.04617E-06 1.07864E-14
3.85531E-06 7.85077E-15
4.75964E-06 5.87299E-15
5.75916E-06 4.47806E-15
6.85388E-06 3.44880E-15
8.04378E-06 2.69035E-15
9.32888E-06 2.12163E-15
1.07092E-05 1.68931E-15
1.21846E-05 1.35707E-15
1.37553E-05 1.09834E-15
1.54212E-05 8.96431E-16
1.71822E-05 7.38024E-16
1.90385E-05 6.12551E-16
2.09899E-05 5.12593E-16
2.30365E-05 4.32121E-16
2.51783E-05 3.66785E-16
2.74153E-05 3.13476E-16
2.97475E-05 2.69604E-16
3.21749E-05 2.33241E-16
3.46974E-05 2.02930E-16
3.73152E-05 1.77484E-16
4.00281E-05 1.55993E-16
4.28362E-05 1.37730E-16
4.57395E-05 1.22117E-16
4.87380E-05 1.08691E-16
5.18317E-05 9.70818E-17
5.50205E-05 8.69887E-17
5.83045E-05 7.81861E-17
6.16838E-05 7.04788E-17
6.51582E-05 6.37057E-17
6.87277E-05 5.77325E-17
7.23925E-05 5.24410E-17
7.61524E-05 4.77428E-17
9.21439E-05 3.34721E-17
1.09658E-04 2.41223E-17
1.28695E-04 1.77825E-17
1.49255E-04 1.33886E-17
1.71338E-04 1.02620E-17
1.94942E-04 7.98999E-18
2.20070E-04 6.30822E-18
2.46720E-04 5.04429E-18
2.74892E-04 4.08086E-18
3.04586E-04 3.33650E-18
3.35803E-04 2.75416E-18
3.68542E-04 2.29343E-18
4.02802E-04 1.92504E-18
4.38585E-04 1.62780E-18
4.75889E-04 1.38586E-18
5.14715E-04 1.18729E-18
5.55063E-04 1.02310E-18
5.96931E-04 8.86331E-19
6.40321E-04 7.71692E-19
6.85233E-04 6.75021E-19
7.31665E-04 5.93036E-19
7.79618E-04 5.23139E-19
8.29092E-04 4.63239E-19
8.80086E-04 4.11663E-19
9.32601E-04 3.67069E-19
9.86636E-04 3.28351E-19
1.04219E-03 2.94603E-19
1.09927E-03 2.65078E-19
1.15786E-03 2.39151E-19
1.21797E-03 2.16313E-19
1.27961E-03 1.96133E-19
1.34276E-03 1.78248E-19
1.40743E-03 1.62353E-19
1.47362E-03 1.48186E-19
1.54133E-03 1.35525E-19
1.61056E-03 1.24186E-19
1.68131E-03 1.14005E-19
1.75357E-03 1.04843E-19
1.82735E-03 9.65813E-20
1.90265E-03 8.91137E-20
1.97947E-03 8.23519E-20
2.05780E-03 7.62175E-20
2.13765E-03 7.06421E-20
2.21902E-03 6.55656E-20
2.30190E-03 6.09352E-20
2.38630E-03 5.67047E-20
2.47222E-03 5.28338E-20
2.55965E-03 4.92865E-20
2.64859E-03 4.60309E-20
2.73905E-03 4.30387E-20
2.83103E-03 4.02845E-20
2.92452E-03 3.77463E-20
3.01952E-03 3.54042E-20
3.11604E-03 3.32403E-20
3.21407E-03 3.12385E-20
3.31362E-03 2.93845E-20
3.41468E-03 2.76654E-20
3.51725E-03 2.60697E-20
3.62133E-03 2.45869E-20
3.72692E-03 2.32077E-20
3.83403E-03 2.19234E-20
3.94265E-03 2.07263E-20
4.05278E-03 1.96094E-20
4.16442E-03 1.85665E-20
4.27757E-03 1.75917E-20
4.39223E-03 1.66797E-20
4.50840E-03 1.58258E-20
4.62608E-03 1.50256E-20
4.74527E-03 1.42752E-20
4.86597E-03 1.35708E-20
4.98817E-03 1.29091E-20
5.11188E-03 1.22871E-20
5.23711E-03 1.17019E-20
5.36383E-03 1.11509E-20
5.49207E-03 1.06319E-20
5.62181E-03 1.01426E-20
5.75306E-03 9.68098E-21
5.88581E-03 9.24518E-21
6.02007E-03 8.83352E-21
6.15583E-03 8.44442E-21
6.29310E-03 8.07641E-21
6.43187E-03 7.72812E-21
6.57214E-03 7.39833E-21
6.71392E-03 7.08585E-21
6.85720E-03 6.78961E-21
7.00198E-03 6.50861E-21
7.14827E-03 6.24194E-21
7.29605E-03 5.98871E-21
7.44534E-03 5.74813E-21
7.59612E-03 5.51945E-21
7.97965E-03 4.99535E-21
8.37255E-03 4.53171E-21
8.77480E-03 4.12037E-21
9.18641E-03 3.75444E-21
9.60736E-03 3.42804E-21
1.00376E-02 3.13617E-21
1.04773E-02 2.87456E-21
1.09262E-02 2.63952E-21
1.13844E-02 2.42790E-21
1.18520E-02 2.23694E-21
1.23288E-02 2.06430E-21
1.28150E-02 1.90790E-21
1.33104E-02 1.76596E-21
1.38150E-02 1.63689E-21
1.43290E-02 1.51934E-21
1.48521E-02 1.41209E-21
1.53845E-02 1.31408E-21
1.59262E-02 1.22438E-21
1.64770E-02 1.14215E-21
1.70371E-02 1.06667E-21
1.76063E-02 9.97287E-22
1.81848E-02 9.33415E-22
1.87724E-02 8.74542E-22
1.93692E-02 8.20208E-22
1.99751E-02 7.70001E-22
2.05901E-02 7.23550E-22
2.12143E-02 6.80525E-22
2.18476E-02 6.40629E-22
2.24900E-02 6.03594E-22
2.31415E-02 5.69177E-22
2.38021E-02 5.37161E-22
2.44717E-02 5.07348E-22
2.51504E-02 4.79559E-22
2.58382E-02 4.53632E-22
2.65349E-02 4.29421E-22
2.72407E-02 4.06791E-22
2.79555E-02 3.85620E-22
2.86793E-02 3.65798E-22
2.94120E-02 3.47223E-22
3.01537E-02 3.29802E-22
3.09043E-02 3.13452E-22
3.16639E-02 2.98093E-22
3.24324E-02 2.83656E-22
3.32098E-02 2.70075E-22
3.39961E-02 2.57290E-22
3.47912E-02 2.45246E-22
3.55952E-02 2.33892E-22
3.64081E-02 2.23181E-22
3.72297E-02 2.13071E-22
3.80602E-02 2.03522E-22
3.88995E-02 1.94497E-22
3.97476E-02 1.85962E-22
4.06044E-02 1.77885E-22
4.14700E-02 1.70238E-22
4.23443E-02 1.62994E-22
4.32273E-02 1.56127E-22
4.41190E-02 1.49614E-22
4.50194E-02 1.43434E-22
4.59284E-02 1.37566E-22
4.68461E-02 1.31992E-22
4.87074E-02 1.21658E-22
5.06030E-02 1.12306E-22
5.25328E-02 1.03826E-22
5.44967E-02 9.61225E-23
5.64946E-02 8.91131E-23
5.85262E-02 8.27240E-23
6.05914E-02 7.68910E-23
6.26901E-02 7.15572E-23
6.48222E-02 6.66726E-23
6.69873E-02 6.21928E-23
6.91854E-02 5.80784E-23
7.14163E-02 5.42944E-23
7.36799E-02 5.08097E-23
7.59760E-02 4.75965E-23
7.83043E-02 4.46299E-23
8.06647E-02 4.18878E-23
8.30571E-02 3.93502E-23
8.54812E-02 3.69991E-23
8.79369E-02 3.48186E-23
9.04240E-02 3.27940E-23
9.29422E-02 3.09122E-23
9.54915E-02 2.91614E-23
9.80716E-02 2.75309E-23
1.00682E-01 2.60110E-23
1.03323E-01 2.45929E-23
1.05995E-01 2.32685E-23
1.08696E-01 2.20306E-23
1.11427E-01 2.08725E-23
1.14188E-01 1.97882E-23
1.16978E-01 1.87722E-23
1.19797E-01 1.78194E-23
1.22645E-01 1.69251E-23
1.25522E-01 1.60852E-23
1.28428E-01 1.52958E-23
1.31361E-01 1.45533E-23
1.34323E-01 1.38544E-23
1.37313E-01 1.31961E-23
1.40330E-01 1.25757E-23
1.43375E-01 1.19905E-23
1.46447E-01 1.14382E-23
1.49545E-01 1.09167E-23
1.52671E-01 1.04239E-23
1.55823E-01 9.95804E-24
1.59001E-01 9.51728E-24
1.62205E-01 9.10008E-24
1.65435E-01 8.70495E-24
1.68690E-01 8.33051E-24
1.71970E-01 7.97550E-24
1.75276E-01 7.63873E-24
1.78606E-01 7.31909E-24
1.81961E-01 7.01557E-24
1.85340E-01 6.72722E-24
1.88743E-01 6.45313E-24
1.92169E-01 6.19248E-24
1.95619E-01 5.94449E-24
1.99092E-01 5.70844E-24
2.02589E-01 5.48365E-24
2.06107E-01 5.26949E-24
2.09649E-01 5.06538E-24
2.13212E-01 4.87076E-24
2.16797E-01 4.68511E-24
2.20404E-01 4.50795E-24
2.24032E-01 4.33881E-24
2.27680E-01 4.17728E-24
2.31350E-01 4.02294E-24
2.35040E-01 3.87542E-24
2.38751E-01 3.73438E-24
2.42481E-01 3.59947E-24
2.46231E-01 3.47038E-24
2.50000E-01 3.34682E-24
2.53788E-01 3.22852E-24
2.57595E-01 3.11520E-24
2.61421E-01 3.00661E-24
2.65264E-01 2.90254E-24
2.69126E-01 2.80275E-24
2.73005E-01 2.70704E-24
2.76901E-01 2.61522E-24
2.80814E-01 2.52710E-24
2.84744E-01 2.44251E-24
2.88691E-01 2.36127E-24
2.92653E-01 2.28324E-24
2.96632E-01 2.20826E-24
3.00625E-01 2.13620E-24
3.04634E-01 2.06691E-24
3.08658E-01 2.00029E-24
3.12697E-01 1.93619E-24
3.16749E-01 1.87453E-24
3.20816E-01 1.81518E-24
3.24896E-01 1.75804E-24
3.28990E-01 1.70302E-24
3.33097E-01 1.65003E-24
3.37216E-01 1.59897E-24
3.41348E-01 1.54977E-24
3.45492E-01 1.50234E-24
3.49647E-01 1.45661E-24
3.53814E-01 1.41252E-24
3.57992E-01 1.36998E-24
3.62181E-01 1.32894E-24
3.66381E-01 1.28934E-24
3.70590E-01 1.25112E-24
3.74810E-01 1.21421E-24
3.79039E-01 1.17857E-24
3.83277E-01 1.14415E-24
3.87524E-01 1.11090E-24
3.91780E-01 1.07876E-24
3.96044E-01 1.04770E-24
4.00316E-01 1.01768E-24
4.04596E-01 9.88657E-25
4.08882E-01 9.60588E-25
4.13176E-01 9.33437E-25
4.17476E-01 9.07171E-25
4.21783E-01 8.81754E-25
4.26095E-01 8.57156E-25
4.30413E-01 8.33345E-25
4.34737E-01 8.10293E-25
4.39065E-01 7.87971E-25
4.43398E-01 7.66352E-25
4.47736E-01 7.45412E-25
4.52077E-01 7.25124E-25
4.56422E-01 7.05464E-25
4.60770E-01 6.86411E-25
4.65122E-01 6.67941E-25
4.69476E-01 6.50034E-25
4.73832E-01 6.32671E-25
4.78190E-01 6.15832E-25
4.82550E-01 5.99500E-25
4.86912E-01 5.83657E-25
4.91274E-01 5.68285E-25
4.95637E-01 5.53368E-25
5.00000E-01 5.38890E-25
5.04363E-01 5.24836E-25
5.08726E-01 5.11190E-25
5.13088E-01 4.97940E-25
5.17450E-01 4.85073E-25
5.21810E-01 4.72578E-25
5.26168E-01 4.60440E-25
5.30524E-01 4.48649E-25
5.34878E-01 4.37190E-25
5.39230E-01 4.26054E-25
5.43578E-01 4.15231E-25
5.47923E-01 4.04710E-25
5.52264E-01 3.94481E-25
5.56602E-01 3.84537E-25
5.60935E-01 3.74867E-25
5.65263E-01 3.65462E-25
5.69587E-01 3.56315E-25
5.73905E-01 3.47417E-25
5.78217E-01 3.38759E-25
5.82524E-01 3.30335E-25
5.86824E-01 3.22138E-25
5.91118E-01 3.14159E-25
5.95404E-01 3.06393E-25
5.99684E-01 2.98833E-25
6.03956E-01 2.91474E-25
6.08220E-01 2.84307E-25
6.12476E-01 2.77329E-25
6.16723E-01 2.70533E-25
6.20961E-01 2.63914E-25
6.25190E-01 2.57466E-25
6.29410E-01 2.51184E-25
6.33619E-01 2.45064E-25
6.37819E-01 2.39100E-25
6.42008E-01 2.33288E-25
6.46186E-01 2.27625E-25
6.50353E-01 2.22104E-25
6.54508E-01 2.16723E-25
6.58652E-01 2.11477E-25
6.62784E-01 2.06363E-25
6.66903E-01 2.01376E-25
6.71010E-01 1.96513E-25
6.75104E-01 1.91771E-25
6.79184E-01 1.87145E-25
6.83251E-01 1.82634E-25
6.87303E-01 1.78233E-25
6.91342E-01 1.73940E-25
6.95366E-01 1.69751E-25
6.99375E-01 1.65664E-25
7.03368E-01 1.61676E-25
7.07347E-01 1.57784E-25
7.11309E-01 1.53986E-25
7.15256E-01 1.50279E-25
7.19186E-01 1.46661E-25
7.23099E-01 1.43129E-25
7.26995E-01 1.39681E-25
7.30874E-01 1.36314E-25
7.34736E-01 1.33028E-25
7.38579E-01 1.29818E-25
7.42405E-01 1.26685E-25
7.46212E-01 1.23624E-25
7.50000E-01 1.20636E-25
7.53769E-01 1.17717E-25
7.57519E-01 1.14866E-25
7.61249E-01 1.12081E-25
7.64960E-01 1.09360E-25
7.68650E-01 1.06703E-25
7.72320E-01 1.04106E-25
7.75968E-01 1.01570E-25
7.79596E-01 9.90915E-26
7.83203E-01 9.66699E-26
7.86788E-01 9.43037E-26
7.90351E-01 9.19914E-26
7.93893E-01 8.97319E-26
7.97411E-01 8.75236E-26
8.00908E-01 8.53655E-26
8.04381E-01 8.32563E-26
8.07831E-01 8.11948E-26
8.11257E-01 7.91799E-26
8.14660E-01 7.72104E-26
8.18039E-01 7.52853E-26
8.21394E-01 7.34035E-26
8.24724E-01 7.15640E-26
8.28030E-01 6.97657E-26
8.31310E-01 6.80078E-26
8.34565E-01 6.62893E-26
8.37795E-01 6.46093E-26
8.40999E-01 6.29668E-26
8.44177E-01 6.13611E-26
8.47329E-01 5.97913E-26
8.50455E-01 5.82565E-26
8.53553E-01 5.67560E-26
8.56625E-01 5.52891E-26
8.59670E-01 5.38549E-26
8.62687E-01 5.24527E-26
8.65677E-01 5.10819E-26
8.68639E-01 4.97417E-26
8.71572E-01 4.84315E-26
8.74478E-01 4.71506E-26
8.77355E-01 4.58984E-26
8.80203E-01 4.46743E-26
8.83022E-01 4.34777E-26
8.85812E-01 4.23080E-26
8.88573E-01 4.11646E-26
8.91304E-01 4.00469E-26
8.94005E-01 3.89546E-26
8.96677E-01 3.78869E-26
8.99318E-01 3.68435E-26
9.01928E-01 3.58238E-26
9.04508E-01 3.48273E-26
9.07058E-01 3.38536E-26
9.09576E-01 3.29022E-26
9.12063E-01 3.19727E-26
9.14519E-01 3.10647E-26
9.16943E-01 3.01777E-26
9.19335E-01 2.93114E-26
9.21696E-01 2.84652E-26
9.24024E-01 2.76390E-26
9.26320E-01 2.68322E-26
9.28584E-01 2.60445E-26
9.30815E-01 2.52756E-26
9.33013E-01 2.45252E-26
9.35178E-01 2.37928E-26
9.37310E-01 2.30781E-26
9.39409E-01 2.23810E-26
9.41474E-01 2.17009E-26
9.43505E-01 2.10378E-26
9.45503E-01 2.03911E-26
9.47467E-01 1.97608E-26
9.49397E-01 1.91464E-26
9.51293E-01 1.85478E-26
9.53154E-01 1.79647E-26
9.54981E-01 1.73968E-26
9.56773E-01 1.68439E-26
9.58530E-01 1.63058E-26
9.60252E-01 1.57821E-26
9.61940E-01 1.52728E-26
9.63592E-01 1.47776E-26
9.65209E-01 1.42963E-26
9.66790E-01 1.38286E-26
9.68336E-01 1.33744E-26
9.69846E-01 1.29335E-26
9.71321E-01 1.25058E-26
9.72759E-01 1.20909E-26
9.74162E-01 1.16889E-26
9.75528E-01 1.12994E-26
9.76858E-01 1.09224E-26
9.78152E-01 1.05576E-26
9.79410E-01 1.02050E-26
9.80631E-01 9.86437E-27
9.81815E-01 9.53560E-27
9.82963E-01 9.21855E-27
9.84074E-01 8.91309E-27
9.85148E-01 8.61910E-27
9.86185E-01 8.33646E-27
9.87185E-01 8.06505E-27
9.88148E-01 7.80477E-27
9.89074E-01 7.55551E-27
9.89962E-01 7.31717E-27
9.90814E-01 7.08965E-27
9.91627E-01 6.87287E-27
9.92404E-01 6.66674E-27
9.93143E-01 6.47117E-27
9.93844E-01 6.28609E-27
9.94508E-01 6.11143E-27
9.95134E-01 5.94712E-27
9.95722E-01 5.79308E-27
9.96273E-01 5.64927E-27
9.96786E-01 5.51561E-27
9.97261E-01 5.39207E-27
9.97698E-01 5.27859E-27
9.98097E-01 5.17513E-27
9.98459E-01 5.08164E-27
9.98782E-01 4.99809E-27
9.99067E-01 4.92445E-27
9.99315E-01 4.86068E-27
9.99524E-01 4.80677E-27
9.99695E-01 4.76269E-27
9.99829E-01 4.72842E-27
9.99924E-01 4.70395E-27
9.99981E-01 4.68928E-27
1.00000E+00 4.68439E-27
