 #
 # Subroutine ELSEPA. Elastic scattering of electrons and positrons
 #                    by neutral atoms and positive ions
 #
 # Projectile: positron
 # Kinetic energy = 3.00000E+08 eV = 1.10248E+07 a.u.
 #
 # WARNING: High-energy factorization with free-atom DF screening.
 #          Absorption, polarization and exchange corrections are
 #          switched off.
 #          Phase shifts are calculated for the bare nucleus.
 #          Scattering amplitudes are not evaluated.
 #
 # Element: Kr,  Z =  36,  atomic weight = 8.38000E+01 g/mol
 #
 # Nuclear model: Fermi distribution
 #                Average radius = 4.68236E-13 cm
 #                Skin thickness = 5.46000E-14 cm
 #
 # Number of electrons = 36
 #
 # Total elastic cross section = 2.80830E-18 cm**2 = 1.00286E-01 a0**2
 # 1st transport cross section = 2.87621E-26 cm**2 = 1.02711E-09 a0**2
 # 2nd transport cross section = 8.61805E-26 cm**2 = 3.07756E-09 a0**2
 #
 #
 # Differential cross section:                       MU=(1-COS(THETA))/2
 #
 #  THETA        MU          DCS          DCS        Sherman      error
 #  (deg)                 (cm**2/sr)   (a0**2/sr)    function
 #----------------------------------------------------------------------
0.00000E+00 1.61177E-09
7.61557E-13 1.59203E-09
1.18994E-12 1.58110E-09
1.71346E-12 1.56788E-09
2.33225E-12 1.55247E-09
3.04617E-12 1.53478E-09
3.85530E-12 1.51541E-09
4.75964E-12 1.49382E-09
5.75917E-12 1.47096E-09
6.85391E-12 1.44592E-09
8.04379E-12 1.41990E-09
9.32893E-12 1.39217E-09
1.07092E-11 1.36352E-09
1.21847E-11 1.33375E-09
1.37554E-11 1.30301E-09
1.54213E-11 1.27181E-09
1.71823E-11 1.23954E-09
1.90386E-11 1.20749E-09
2.09900E-11 1.17422E-09
2.30367E-11 1.14163E-09
2.51785E-11 1.10806E-09
2.74156E-11 1.07519E-09
2.97478E-11 1.04199E-09
3.21752E-11 1.00926E-09
3.46979E-11 9.76788E-10
3.73157E-11 9.44558E-10
4.00286E-11 9.13118E-10
4.28368E-11 8.81697E-10
4.57402E-11 8.51512E-10
4.87388E-11 8.21150E-10
5.18325E-11 7.92148E-10
5.50215E-11 7.63274E-10
5.83057E-11 7.35542E-10
6.16850E-11 7.08321E-10
6.51595E-11 6.81979E-10
6.87293E-11 6.56448E-10
7.23943E-11 6.31572E-10
7.61544E-11 6.07733E-10
1.18991E-10 4.09926E-10
1.71347E-10 2.78176E-10
2.33223E-10 1.92906E-10
3.04617E-10 1.36764E-10
3.85531E-10 1.01300E-10
4.75965E-10 7.65552E-11
5.75917E-10 5.97499E-11
6.85389E-10 4.71980E-11
8.04380E-10 3.81416E-11
9.32891E-10 3.10830E-11
1.07092E-09 2.56708E-11
1.21847E-09 2.13491E-11
1.37554E-09 1.78750E-11
1.54213E-09 1.50746E-11
1.71823E-09 1.27451E-11
1.90386E-09 1.08622E-11
2.09900E-09 9.25903E-12
2.30367E-09 7.95457E-12
2.51785E-09 6.83864E-12
2.74156E-09 5.91615E-12
2.97478E-09 5.13059E-12
3.21752E-09 4.47003E-12
3.46978E-09 3.90811E-12
3.73156E-09 3.42938E-12
4.00286E-09 3.02131E-12
4.28368E-09 2.67004E-12
4.57402E-09 2.36932E-12
4.87388E-09 2.10825E-12
5.18326E-09 1.88316E-12
5.50215E-09 1.68685E-12
5.83057E-09 1.51609E-12
6.16850E-09 1.36654E-12
6.51596E-09 1.23523E-12
6.87293E-09 1.11947E-12
7.23942E-09 1.01719E-12
7.61544E-09 9.26634E-13
1.18991E-08 4.08420E-13
1.71347E-08 2.08591E-13
2.33223E-08 1.17287E-13
3.04617E-08 7.06515E-14
3.85531E-08 4.49125E-14
4.75965E-08 2.98468E-14
5.75917E-08 2.05810E-14
6.85389E-08 1.46380E-14
8.04380E-08 1.06940E-14
9.32891E-08 7.99419E-15
1.07092E-07 6.09607E-15
1.21847E-07 4.73054E-15
1.37554E-07 3.72739E-15
1.54213E-07 2.97711E-15
1.71823E-07 2.40683E-15
1.90386E-07 1.96687E-15
2.09900E-07 1.62315E-15
2.30367E-07 1.35140E-15
2.51785E-07 1.13421E-15
2.74156E-07 9.58988E-16
2.97478E-07 8.16317E-16
3.21752E-07 6.99210E-16
3.46978E-07 6.02370E-16
3.73156E-07 5.21707E-16
4.00286E-07 4.54099E-16
4.28368E-07 3.97089E-16
4.57402E-07 3.48738E-16
4.87388E-07 3.07523E-16
5.18325E-07 2.72213E-16
5.50215E-07 2.41821E-16
5.83057E-07 2.15552E-16
6.16850E-07 1.92749E-16
6.51596E-07 1.72880E-16
6.87293E-07 1.55504E-16
7.23942E-07 1.40254E-16
7.61543E-07 1.26826E-16
1.18991E-06 5.21716E-17
1.71347E-06 2.52138E-17
2.33223E-06 1.36253E-17
3.04617E-06 7.99200E-18
3.85531E-06 4.99116E-18
4.75964E-06 3.27534E-18
5.75916E-06 2.23732E-18
6.85388E-06 1.57975E-18
8.04378E-06 1.14692E-18
9.32888E-06 8.52662E-19
1.07092E-05 6.46988E-19
1.21846E-05 4.99743E-19
1.37553E-05 3.92095E-19
1.54212E-05 3.11927E-19
1.71822E-05 2.51236E-19
1.90385E-05 2.04580E-19
2.09899E-05 1.68320E-19
2.30365E-05 1.39741E-19
2.51783E-05 1.16968E-19
2.74153E-05 9.86411E-20
2.97475E-05 8.37620E-20
3.21749E-05 7.15841E-20
3.46974E-05 6.15421E-20
3.73152E-05 5.32029E-20
4.00281E-05 4.62308E-20
4.28362E-05 4.03651E-20
4.57395E-05 3.54004E-20
4.87380E-05 3.11752E-20
5.18317E-05 2.75610E-20
5.50205E-05 2.44548E-20
5.83045E-05 2.17738E-20
6.16838E-05 1.94502E-20
6.51582E-05 1.74286E-20
6.87277E-05 1.56631E-20
7.23925E-05 1.41157E-20
7.61524E-05 1.27532E-20
9.21439E-05 8.70391E-21
1.09658E-04 6.14024E-21
1.28695E-04 4.45410E-21
1.49255E-04 3.30820E-21
1.71338E-04 2.50784E-21
1.94942E-04 1.93511E-21
2.20070E-04 1.51665E-21
2.46720E-04 1.20520E-21
2.74892E-04 9.69545E-22
3.04586E-04 7.88627E-22
3.35803E-04 6.47870E-22
3.68542E-04 5.37056E-22
4.02802E-04 4.48862E-22
4.38585E-04 3.77972E-22
4.75889E-04 3.20476E-22
5.14715E-04 2.73451E-22
5.55063E-04 2.34695E-22
5.96931E-04 2.02525E-22
6.40321E-04 1.75647E-22
6.85233E-04 1.53050E-22
7.31665E-04 1.33945E-22
7.79618E-04 1.17705E-22
8.29092E-04 1.03831E-22
8.80086E-04 9.19229E-23
9.32601E-04 8.16561E-23
9.86636E-04 7.27677E-23
1.04219E-03 6.50425E-23
1.09927E-03 5.83029E-23
1.15786E-03 5.24027E-23
1.21797E-03 4.72200E-23
1.27961E-03 4.26530E-23
1.34276E-03 3.86166E-23
1.40743E-03 3.50388E-23
1.47362E-03 3.18589E-23
1.54133E-03 2.90252E-23
1.61056E-03 2.64938E-23
1.68131E-03 2.42270E-23
1.75357E-03 2.21926E-23
1.82735E-03 2.03627E-23
1.90265E-03 1.87134E-23
1.97947E-03 1.72239E-23
2.05780E-03 1.58761E-23
2.13765E-03 1.46543E-23
2.21902E-03 1.35447E-23
2.30190E-03 1.25354E-23
2.38630E-03 1.16157E-23
2.47222E-03 1.07763E-23
2.55965E-03 1.00091E-23
2.64859E-03 9.30692E-24
2.73905E-03 8.66323E-24
2.83103E-03 8.07239E-24
2.92452E-03 7.52933E-24
3.01952E-03 7.02957E-24
3.11604E-03 6.56907E-24
3.21407E-03 6.14426E-24
3.31362E-03 5.75190E-24
3.41468E-03 5.38912E-24
3.51725E-03 5.05332E-24
3.62133E-03 4.74217E-24
3.72692E-03 4.45357E-24
3.83403E-03 4.18561E-24
3.94265E-03 3.93659E-24
4.05278E-03 3.70494E-24
4.16442E-03 3.48927E-24
4.27757E-03 3.28829E-24
4.39223E-03 3.10085E-24
4.50840E-03 2.92588E-24
4.62608E-03 2.76243E-24
4.74527E-03 2.60962E-24
4.86597E-03 2.46665E-24
4.98817E-03 2.33278E-24
5.11188E-03 2.20734E-24
5.23711E-03 2.08973E-24
5.36383E-03 1.97937E-24
5.49207E-03 1.87576E-24
5.62181E-03 1.77841E-24
5.75306E-03 1.68689E-24
5.88581E-03 1.60080E-24
6.02007E-03 1.51976E-24
6.15583E-03 1.44344E-24
6.29310E-03 1.37152E-24
6.43187E-03 1.30371E-24
6.57214E-03 1.23974E-24
6.71392E-03 1.17936E-24
6.85720E-03 1.12233E-24
7.00198E-03 1.06845E-24
7.14827E-03 1.01752E-24
7.29605E-03 9.69349E-25
7.44534E-03 9.23768E-25
7.59612E-03 8.80619E-25
7.97965E-03 7.82437E-25
8.37255E-03 6.96505E-25
8.77480E-03 6.21103E-25
9.18641E-03 5.54781E-25
9.60736E-03 4.96313E-25
1.00376E-02 4.44656E-25
1.04773E-02 3.98925E-25
1.09262E-02 3.58361E-25
1.13844E-02 3.22314E-25
1.18520E-02 2.90226E-25
1.23288E-02 2.61614E-25
1.28150E-02 2.36062E-25
1.33104E-02 2.13209E-25
1.38150E-02 1.92741E-25
1.43290E-02 1.74385E-25
1.48521E-02 1.57901E-25
1.53845E-02 1.43081E-25
1.59262E-02 1.29742E-25
1.64770E-02 1.17723E-25
1.70371E-02 1.06882E-25
1.76063E-02 9.70935E-26
1.81848E-02 8.82479E-26
1.87724E-02 8.02471E-26
1.93692E-02 7.30046E-26
1.99751E-02 6.64432E-26
2.05901E-02 6.04946E-26
2.12143E-02 5.50978E-26
2.18476E-02 5.01984E-26
2.24900E-02 4.57478E-26
2.31415E-02 4.17026E-26
2.38021E-02 3.80238E-26
2.44717E-02 3.46765E-26
2.51504E-02 3.16295E-26
2.58382E-02 2.88545E-26
2.65349E-02 2.63262E-26
2.72407E-02 2.40219E-26
2.79555E-02 2.19209E-26
2.86793E-02 2.00047E-26
2.94120E-02 1.82566E-26
3.01537E-02 1.66613E-26
3.09043E-02 1.52052E-26
3.16639E-02 1.38758E-26
3.24324E-02 1.26619E-26
3.32098E-02 1.15533E-26
3.39961E-02 1.05407E-26
3.47912E-02 9.61563E-27
3.55952E-02 8.77055E-27
3.64081E-02 7.99846E-27
3.72297E-02 7.29301E-27
3.80602E-02 6.64846E-27
3.88995E-02 6.05954E-27
3.97476E-02 5.52148E-27
4.06044E-02 5.02990E-27
4.14700E-02 4.58082E-27
4.23443E-02 4.17060E-27
4.32273E-02 3.79593E-27
4.41190E-02 3.45378E-27
4.50194E-02 3.14137E-27
4.59284E-02 2.85616E-27
4.68461E-02 2.59586E-27
4.87074E-02 2.14162E-27
5.06030E-02 1.76379E-27
5.25328E-02 1.44989E-27
5.44967E-02 1.18946E-27
5.64946E-02 9.73749E-28
5.85262E-02 7.95389E-28
6.05914E-02 6.48206E-28
6.26901E-02 5.27015E-28
6.48222E-02 4.27465E-28
6.69873E-02 3.45908E-28
6.91854E-02 2.79281E-28
7.14163E-02 2.25021E-28
7.36799E-02 1.80981E-28
7.59760E-02 1.45366E-28
7.83043E-02 1.16677E-28
8.06647E-02 9.36646E-29
8.30571E-02 7.52886E-29
8.54812E-02 6.06850E-29
8.79369E-02 4.91379E-29
9.04240E-02 4.00558E-29
9.29422E-02 3.29510E-29
9.54915E-02 2.74233E-29
9.80716E-02 2.31448E-29
1.00682E-01 1.98487E-29
1.03323E-01 1.73185E-29
1.05995E-01 1.53794E-29
1.08696E-01 1.38916E-29
1.11427E-01 1.27435E-29
1.14188E-01 1.18471E-29
1.16978E-01 1.11337E-29
1.19797E-01 1.05499E-29
1.22645E-01 1.00552E-29
1.25522E-01 9.61915E-30
1.28428E-01 9.21943E-30
1.31361E-01 8.84011E-30
1.34323E-01 8.47028E-30
1.37313E-01 8.10292E-30
1.40330E-01 7.73396E-30
1.43375E-01 7.36151E-30
1.46447E-01 6.98531E-30
1.49545E-01 6.60619E-30
1.52671E-01 6.22573E-30
1.55823E-01 5.84596E-30
1.59001E-01 5.46912E-30
1.62205E-01 5.09752E-30
1.65435E-01 4.73336E-30
1.68690E-01 4.37873E-30
1.71970E-01 4.03545E-30
1.75276E-01 3.70514E-30
1.78606E-01 3.38909E-30
1.81961E-01 3.08837E-30
1.85340E-01 2.80375E-30
1.88743E-01 2.53576E-30
1.92169E-01 2.28468E-30
1.95619E-01 2.05059E-30
1.99092E-01 1.83337E-30
2.02589E-01 1.63275E-30
2.06107E-01 1.44830E-30
2.09649E-01 1.27949E-30
2.13212E-01 1.12569E-30
2.16797E-01 9.86177E-31
2.20404E-01 8.60205E-31
2.24032E-01 7.46971E-31
2.27680E-01 6.45653E-31
2.31350E-01 5.55420E-31
2.35040E-01 4.75443E-31
2.38751E-01 4.04907E-31
2.42481E-01 3.43015E-31
2.46231E-01 2.88998E-31
2.50000E-01 2.42119E-31
2.53788E-01 2.01677E-31
2.57595E-01 1.67010E-31
2.61421E-01 1.37498E-31
2.65264E-01 1.12562E-31
2.69126E-01 9.16649E-32
2.73005E-01 7.43133E-32
2.76901E-01 6.00545E-32
2.80814E-01 4.84758E-32
2.84744E-01 3.92037E-32
2.88691E-01 3.19015E-32
2.92653E-01 2.62674E-32
2.96632E-01 2.20327E-32
3.00625E-01 1.89591E-32
3.04634E-01 1.68373E-32
3.08658E-01 1.54839E-32
3.12697E-01 1.47397E-32
3.16749E-01 1.44676E-32
3.20816E-01 1.45502E-32
3.24896E-01 1.48883E-32
3.28990E-01 1.53984E-32
3.33097E-01 1.60116E-32
3.37216E-01 1.66715E-32
3.41348E-01 1.73329E-32
3.45492E-01 1.79601E-32
3.49647E-01 1.85261E-32
3.53814E-01 1.90108E-32
3.57992E-01 1.94004E-32
3.62181E-01 1.96863E-32
3.66381E-01 1.98641E-32
3.70590E-01 1.99330E-32
3.74810E-01 1.98951E-32
3.79039E-01 1.97546E-32
3.83277E-01 1.95177E-32
3.87524E-01 1.91916E-32
3.91780E-01 1.87845E-32
3.96044E-01 1.83052E-32
4.00316E-01 1.77629E-32
4.04596E-01 1.71666E-32
4.08882E-01 1.65253E-32
4.13176E-01 1.58479E-32
4.17476E-01 1.51426E-32
4.21783E-01 1.44173E-32
4.26095E-01 1.36793E-32
4.30413E-01 1.29355E-32
4.34737E-01 1.21918E-32
4.39065E-01 1.14537E-32
4.43398E-01 1.07263E-32
4.47736E-01 1.00136E-32
4.52077E-01 9.31935E-33
4.56422E-01 8.64665E-33
4.60770E-01 7.99808E-33
4.65122E-01 7.37566E-33
4.69476E-01 6.78101E-33
4.73832E-01 6.21529E-33
4.78190E-01 5.67929E-33
4.82550E-01 5.17345E-33
4.86912E-01 4.69789E-33
4.91274E-01 4.25248E-33
4.95637E-01 3.83682E-33
5.00000E-01 3.45034E-33
5.04363E-01 3.09226E-33
5.08726E-01 2.76169E-33
5.13088E-01 2.45761E-33
5.17450E-01 2.17889E-33
5.21810E-01 1.92435E-33
5.26168E-01 1.69276E-33
5.30524E-01 1.48284E-33
5.34878E-01 1.29331E-33
5.39230E-01 1.12287E-33
5.43578E-01 9.70264E-34
5.47923E-01 8.34210E-34
5.52264E-01 7.13491E-34
5.56602E-01 6.06906E-34
5.60935E-01 5.13306E-34
5.65263E-01 4.31584E-34
5.69587E-01 3.60685E-34
5.73905E-01 2.99607E-34
5.78217E-01 2.47404E-34
5.82524E-01 2.03184E-34
5.86824E-01 1.66112E-34
5.91118E-01 1.35410E-34
5.95404E-01 1.10353E-34
5.99684E-01 9.02741E-35
6.03956E-01 7.45541E-35
6.08220E-01 6.26278E-35
6.12476E-01 5.39781E-35
6.16723E-01 4.81337E-35
6.20961E-01 4.46681E-35
6.25190E-01 4.31963E-35
6.29410E-01 4.33727E-35
6.33619E-01 4.48887E-35
6.37819E-01 4.74695E-35
6.42008E-01 5.08727E-35
6.46186E-01 5.48854E-35
6.50353E-01 5.93212E-35
6.54508E-01 6.40197E-35
6.58652E-01 6.88421E-35
6.62784E-01 7.36711E-35
6.66903E-01 7.84078E-35
6.71010E-01 8.29710E-35
6.75104E-01 8.72927E-35
6.79184E-01 9.13207E-35
6.83251E-01 9.50131E-35
6.87303E-01 9.83403E-35
6.91342E-01 1.01280E-34
6.95366E-01 1.03821E-34
6.99375E-01 1.05955E-34
7.03368E-01 1.07684E-34
7.07347E-01 1.09011E-34
7.11309E-01 1.09947E-34
7.15256E-01 1.10505E-34
7.19186E-01 1.10700E-34
7.23099E-01 1.10549E-34
7.26995E-01 1.10074E-34
7.30874E-01 1.09295E-34
7.34736E-01 1.08234E-34
7.38579E-01 1.06913E-34
7.42405E-01 1.05355E-34
7.46212E-01 1.03583E-34
7.50000E-01 1.01618E-34
7.53769E-01 9.94835E-35
7.57519E-01 9.71993E-35
7.61249E-01 9.47870E-35
7.64960E-01 9.22646E-35
7.68650E-01 8.96517E-35
7.72320E-01 8.69646E-35
7.75968E-01 8.42215E-35
7.79596E-01 8.14357E-35
7.83203E-01 7.86241E-35
7.86788E-01 7.57977E-35
7.90351E-01 7.29690E-35
7.93893E-01 7.01502E-35
7.97411E-01 6.73496E-35
8.00908E-01 6.45787E-35
8.04381E-01 6.18441E-35
8.07831E-01 5.91535E-35
8.11257E-01 5.65124E-35
8.14660E-01 5.39265E-35
8.18039E-01 5.14024E-35
8.21394E-01 4.89422E-35
8.24724E-01 4.65493E-35
8.28030E-01 4.42278E-35
8.31310E-01 4.19787E-35
8.34565E-01 3.98045E-35
8.37795E-01 3.77056E-35
8.40999E-01 3.56835E-35
8.44177E-01 3.37376E-35
8.47329E-01 3.18687E-35
8.50455E-01 3.00755E-35
8.53553E-01 2.83586E-35
8.56625E-01 2.67153E-35
8.59670E-01 2.51460E-35
8.62687E-01 2.36488E-35
8.65677E-01 2.22215E-35
8.68639E-01 2.08634E-35
8.71572E-01 1.95723E-35
8.74478E-01 1.83463E-35
8.77355E-01 1.71831E-35
8.80203E-01 1.60810E-35
8.83022E-01 1.50378E-35
8.85812E-01 1.40514E-35
8.88573E-01 1.31199E-35
8.91304E-01 1.22406E-35
8.94005E-01 1.14115E-35
8.96677E-01 1.06305E-35
8.99318E-01 9.89588E-36
9.01928E-01 9.20502E-36
9.04508E-01 8.55620E-36
9.07058E-01 7.94735E-36
9.09576E-01 7.37614E-36
9.12063E-01 6.84119E-36
9.14519E-01 6.34052E-36
9.16943E-01 5.87218E-36
9.19335E-01 5.43450E-36
9.21696E-01 5.02585E-36
9.24024E-01 4.64460E-36
9.26320E-01 4.28904E-36
9.28584E-01 3.95800E-36
9.30815E-01 3.64974E-36
9.33013E-01 3.36324E-36
9.35178E-01 3.09660E-36
9.37310E-01 2.84941E-36
9.39409E-01 2.61993E-36
9.41474E-01 2.40729E-36
9.43505E-01 2.21001E-36
9.45503E-01 2.02759E-36
9.47467E-01 1.85878E-36
9.49397E-01 1.70286E-36
9.51293E-01 1.55866E-36
9.53154E-01 1.42570E-36
9.54981E-01 1.30306E-36
9.56773E-01 1.18996E-36
9.58530E-01 1.08595E-36
9.60252E-01 9.90147E-37
9.61940E-01 9.02039E-37
9.63592E-01 8.21205E-37
9.65209E-01 7.46951E-37
9.66790E-01 6.78733E-37
9.68336E-01 6.16252E-37
9.69846E-01 5.59023E-37
9.71321E-01 5.06656E-37
9.72759E-01 4.58717E-37
9.74162E-01 4.14878E-37
9.75528E-01 3.74935E-37
9.76858E-01 3.38431E-37
9.78152E-01 3.05160E-37
9.79410E-01 2.74778E-37
9.80631E-01 2.47138E-37
9.81815E-01 2.21994E-37
9.82963E-01 1.99076E-37
9.84074E-01 1.78345E-37
9.85148E-01 1.59451E-37
9.86185E-01 1.42382E-37
9.87185E-01 1.26809E-37
9.88148E-01 1.12777E-37
9.89074E-01 1.00039E-37
9.89962E-01 8.85066E-38
9.90814E-01 7.81481E-38
9.91627E-01 6.87929E-38
9.92404E-01 6.03242E-38
9.93143E-01 5.27053E-38
9.93844E-01 4.58549E-38
9.94508E-01 3.97256E-38
9.95134E-01 3.41705E-38
9.95722E-01 2.92498E-38
9.96273E-01 2.48218E-38
9.96786E-01 2.08976E-38
9.97261E-01 1.74219E-38
9.97698E-01 1.43434E-38
9.98097E-01 1.16325E-38
9.98459E-01 9.26412E-39
9.98782E-01 7.20617E-39
9.99067E-01 5.46059E-39
9.99315E-01 3.95683E-39
9.99524E-01 2.72245E-39
9.99695E-01 1.73561E-39
9.99829E-01 9.80689E-40
9.99924E-01 4.43558E-40
9.99981E-01 1.21809E-40
1.00000E+00 1.37248E-41
