 #
 # Subroutine ELSEPA. Elastic scattering of electrons and positrons
 #                    by neutral atoms and positive ions
 #
 # Projectile: positron
 # Kinetic energy = 7.00000E+08 eV = 2.57245E+07 a.u.
 #
 # WARNING: High-energy factorization with free-atom DF screening.
 #          Absorption, polarization and exchange corrections are
 #          switched off.
 #          Phase shifts are calculated for the bare nucleus.
 #          Scattering amplitudes are not evaluated.
 #
 # Element: Kr,  Z =  36,  atomic weight = 8.38000E+01 g/mol
 #
 # Nuclear model: Fermi distribution
 #                Average radius = 4.68236E-13 cm
 #                Skin thickness = 5.46000E-14 cm
 #
 # Number of electrons = 36
 #
 # Total elastic cross section = 2.80795E-18 cm**2 = 1.00274E-01 a0**2
 # 1st transport cross section = 5.31139E-27 cm**2 = 1.89673E-10 a0**2
 # 2nd transport cross section = 1.59306E-26 cm**2 = 5.68891E-10 a0**2
 #
 #
 # Differential cross section:                       MU=(1-COS(THETA))/2
 #
 #  THETA        MU          DCS          DCS        Sherman      error
 #  (deg)                 (cm**2/sr)   (a0**2/sr)    function
 #----------------------------------------------------------------------
0.00000E+00 8.75814E-09
7.61557E-13 8.19774E-09
1.18994E-12 7.90426E-09
1.71346E-12 7.56695E-09
2.33225E-12 7.19628E-09
3.04617E-12 6.79781E-09
3.85530E-12 6.38420E-09
4.75964E-12 5.96586E-09
5.75917E-12 5.54949E-09
6.85391E-12 5.13738E-09
8.04379E-12 4.74024E-09
9.32893E-12 4.36174E-09
1.07092E-11 4.00203E-09
1.21847E-11 3.66370E-09
1.37554E-11 3.34960E-09
1.54213E-11 3.05963E-09
1.71823E-11 2.79097E-09
1.90386E-11 2.54536E-09
2.09900E-11 2.32171E-09
2.30367E-11 2.11813E-09
2.51785E-11 1.93284E-09
2.74156E-11 1.76537E-09
2.97478E-11 1.61414E-09
3.21752E-11 1.47720E-09
3.46979E-11 1.35358E-09
3.73157E-11 1.24216E-09
4.00286E-11 1.14168E-09
4.28368E-11 1.05075E-09
4.57402E-11 9.68715E-10
4.87388E-11 8.92320E-10
5.18325E-11 8.23068E-10
5.50215E-11 7.61402E-10
5.83057E-11 7.06330E-10
6.16850E-11 6.57005E-10
6.51595E-11 6.12707E-10
6.87293E-11 5.72815E-10
7.23943E-11 5.36798E-10
7.61544E-11 5.01628E-10
1.18991E-10 2.77283E-10
1.71347E-10 1.69349E-10
2.33223E-10 1.09796E-10
3.04617E-10 7.34576E-11
3.85531E-10 5.04732E-11
4.75965E-10 3.55149E-11
5.75917E-10 2.55253E-11
6.85389E-10 1.87008E-11
8.04380E-10 1.39849E-11
9.32891E-10 1.06599E-11
1.07092E-09 8.26809E-12
1.21847E-09 6.51686E-12
1.37554E-09 5.21137E-12
1.54213E-09 4.22306E-12
1.71823E-09 3.46235E-12
1.90386E-09 2.86857E-12
2.09900E-09 2.39876E-12
2.30367E-09 2.02233E-12
2.51785E-09 1.71731E-12
2.74156E-09 1.46808E-12
2.97478E-09 1.26268E-12
3.21752E-09 1.09192E-12
3.46978E-09 9.49013E-13
3.73156E-09 8.28667E-13
4.00286E-09 7.26685E-13
4.28368E-09 6.39697E-13
4.57402E-09 5.65237E-13
4.87388E-09 5.00933E-13
5.18326E-09 4.45531E-13
5.50215E-09 3.97773E-13
5.83057E-09 3.56055E-13
6.16850E-09 3.19508E-13
6.51596E-09 2.87628E-13
6.87293E-09 2.59570E-13
7.23942E-09 2.34727E-13
7.61544E-09 2.12836E-13
1.18991E-08 8.91787E-14
1.71347E-08 4.36105E-14
2.33223E-08 2.37973E-14
3.04617E-08 1.40769E-14
3.85531E-08 8.85527E-15
4.75965E-08 5.84680E-15
5.75917E-08 4.01426E-15
6.85389E-08 2.84644E-15
8.04380E-08 2.07383E-15
9.32891E-08 1.54626E-15
1.07092E-07 1.17614E-15
1.21847E-07 9.10318E-16
1.37554E-07 7.15456E-16
1.54213E-07 5.70004E-16
1.71823E-07 4.59673E-16
1.90386E-07 3.74768E-16
2.09900E-07 3.08575E-16
2.30367E-07 2.56360E-16
2.51785E-07 2.14728E-16
2.74156E-07 1.81209E-16
2.97478E-07 1.53978E-16
3.21752E-07 1.31672E-16
3.46978E-07 1.13260E-16
3.73156E-07 9.79555E-17
4.00286E-07 8.51494E-17
4.28368E-07 7.43683E-17
4.57402E-07 6.52400E-17
4.87388E-07 5.74696E-17
5.18325E-07 5.08220E-17
5.50215E-07 4.51079E-17
5.83057E-07 4.01746E-17
6.16850E-07 3.58974E-17
6.51596E-07 3.21744E-17
6.87293E-07 2.89216E-17
7.23942E-07 2.60695E-17
7.61543E-07 2.35605E-17
1.18991E-06 9.65453E-18
1.71347E-06 4.65658E-18
2.33223E-06 2.51355E-18
3.04617E-06 1.47333E-18
3.85531E-06 9.19721E-19
4.75964E-06 6.03370E-19
5.75916E-06 4.12065E-19
6.85388E-06 2.90911E-19
8.04378E-06 2.11182E-19
9.32888E-06 1.56987E-19
1.07092E-05 1.19111E-19
1.21846E-05 9.19986E-20
1.37553E-05 7.21784E-20
1.54212E-05 5.74188E-20
1.71822E-05 4.62456E-20
1.90385E-05 3.76566E-20
2.09899E-05 3.09816E-20
2.30365E-05 2.57209E-20
2.51783E-05 2.15289E-20
2.74153E-05 1.81555E-20
2.97475E-05 1.54167E-20
3.21749E-05 1.31752E-20
3.46974E-05 1.13268E-20
3.73152E-05 9.79185E-21
4.00281E-05 8.50862E-21
4.28362E-05 7.42898E-21
4.57395E-05 6.51522E-21
4.87380E-05 5.73756E-21
5.18317E-05 5.07236E-21
5.50205E-05 4.50068E-21
5.83045E-05 4.00724E-21
6.16838E-05 3.57959E-21
6.51582E-05 3.20752E-21
6.87277E-05 2.88259E-21
7.23925E-05 2.59780E-21
7.61524E-05 2.32715E-21
9.21439E-05 1.58405E-21
1.09658E-04 1.11411E-21
1.28695E-04 8.05425E-22
1.49255E-04 5.95960E-22
1.71338E-04 4.49904E-22
1.94942E-04 3.45585E-22
2.20070E-04 2.69523E-22
2.46720E-04 2.13042E-22
2.74892E-04 1.70412E-22
3.04586E-04 1.37773E-22
3.35803E-04 1.12453E-22
3.68542E-04 9.25817E-23
4.02802E-04 7.68198E-23
4.38585E-04 6.41959E-23
4.75889E-04 5.39961E-23
5.14715E-04 4.56875E-23
5.55063E-04 3.88692E-23
5.96931E-04 3.32351E-23
6.40321E-04 2.85499E-23
6.85233E-04 2.46309E-23
7.31665E-04 2.13345E-23
7.79618E-04 1.85480E-23
8.29092E-04 1.61809E-23
8.80086E-04 1.41614E-23
9.32601E-04 1.24311E-23
9.86636E-04 1.09428E-23
1.04219E-03 9.65798E-24
1.09927E-03 8.54496E-24
1.15786E-03 7.57765E-24
1.21797E-03 6.73437E-24
1.27961E-03 5.99710E-24
1.34276E-03 5.35075E-24
1.40743E-03 4.78264E-24
1.47362E-03 4.28207E-24
1.54133E-03 3.84000E-24
1.61056E-03 3.44874E-24
1.68131E-03 3.10171E-24
1.75357E-03 2.79332E-24
1.82735E-03 2.51875E-24
1.90265E-03 2.27386E-24
1.97947E-03 2.05506E-24
2.05780E-03 1.85927E-24
2.13765E-03 1.68380E-24
2.21902E-03 1.52631E-24
2.30190E-03 1.38476E-24
2.38630E-03 1.25738E-24
2.47222E-03 1.14260E-24
2.55965E-03 1.03906E-24
2.64859E-03 9.45547E-25
2.73905E-03 8.61001E-25
2.83103E-03 7.84486E-25
2.92452E-03 7.15171E-25
3.01952E-03 6.52322E-25
3.11604E-03 5.95286E-25
3.21407E-03 5.43483E-25
3.31362E-03 4.96395E-25
3.41468E-03 4.53563E-25
3.51725E-03 4.14574E-25
3.62133E-03 3.79060E-25
3.72692E-03 3.46691E-25
3.83403E-03 3.17171E-25
3.94265E-03 2.90234E-25
4.05278E-03 2.65642E-25
4.16442E-03 2.43180E-25
4.27757E-03 2.22654E-25
4.39223E-03 2.03888E-25
4.50840E-03 1.86726E-25
4.62608E-03 1.71024E-25
4.74527E-03 1.56654E-25
4.86597E-03 1.43497E-25
4.98817E-03 1.31449E-25
5.11188E-03 1.20413E-25
5.23711E-03 1.10302E-25
5.36383E-03 1.01035E-25
5.49207E-03 9.25423E-26
5.62181E-03 8.47564E-26
5.75306E-03 7.76179E-26
5.88581E-03 7.10723E-26
6.02007E-03 6.50698E-26
6.15583E-03 5.95648E-26
6.29310E-03 5.45161E-26
6.43187E-03 4.98855E-26
6.57214E-03 4.56386E-26
6.71392E-03 4.17435E-26
6.85720E-03 3.81713E-26
7.00198E-03 3.48955E-26
7.14827E-03 3.18916E-26
7.29605E-03 2.91374E-26
7.44534E-03 2.66125E-26
7.59612E-03 2.42981E-26
7.97965E-03 1.93238E-26
8.37255E-03 1.53293E-26
8.77480E-03 1.21268E-26
9.18641E-03 9.56430E-27
9.60736E-03 7.51868E-27
1.00376E-02 5.89006E-27
1.04773E-02 4.59742E-27
1.09262E-02 3.57502E-27
1.13844E-02 2.76952E-27
1.18520E-02 2.13768E-27
1.23288E-02 1.64447E-27
1.28150E-02 1.26154E-27
1.33104E-02 9.66011E-28
1.38150E-02 7.39418E-28
1.43290E-02 5.66928E-28
1.48521E-02 4.36646E-28
1.53845E-02 3.39073E-28
1.59262E-02 2.66649E-28
1.64770E-02 2.13389E-28
1.70371E-02 1.74580E-28
1.76063E-02 1.46535E-28
1.81848E-02 1.26391E-28
1.87724E-02 1.11945E-28
1.93692E-02 1.01519E-28
1.99751E-02 9.38495E-29
2.05901E-02 8.80030E-29
2.12143E-02 8.33006E-29
2.18476E-02 7.92617E-29
2.24900E-02 7.55575E-29
2.31415E-02 7.19737E-29
2.38021E-02 6.83811E-29
2.44717E-02 6.47127E-29
2.51504E-02 6.09452E-29
2.58382E-02 5.70852E-29
2.65349E-02 5.31582E-29
2.72407E-02 4.92008E-29
2.79555E-02 4.52548E-29
2.86793E-02 4.13624E-29
2.94120E-02 3.75640E-29
3.01537E-02 3.38956E-29
3.09043E-02 3.03881E-29
3.16639E-02 2.70664E-29
3.24324E-02 2.39495E-29
3.32098E-02 2.10506E-29
3.39961E-02 1.83775E-29
3.47912E-02 1.59332E-29
3.55952E-02 1.37164E-29
3.64081E-02 1.17221E-29
3.72297E-02 9.94249E-30
3.80602E-02 8.36723E-30
3.88995E-02 6.98432E-30
3.97476E-02 5.78046E-30
4.06044E-02 4.74156E-30
4.14700E-02 3.85313E-30
4.23443E-02 3.10064E-30
4.32273E-02 2.46982E-30
4.41190E-02 1.94683E-30
4.50194E-02 1.51851E-30
4.59284E-02 1.17249E-30
4.68461E-02 8.97258E-31
4.87074E-02 5.17911E-31
5.06030E-02 3.07636E-31
5.25328E-02 2.08775E-31
5.44967E-02 1.77643E-31
5.64946E-02 1.82704E-31
5.85262E-02 2.02480E-31
6.05914E-02 2.23438E-31
6.26901E-02 2.38028E-31
6.48222E-02 2.42966E-31
6.69873E-02 2.37812E-31
6.91854E-02 2.23843E-31
7.14163E-02 2.03210E-31
7.36799E-02 1.78336E-31
7.59760E-02 1.51530E-31
7.83043E-02 1.24752E-31
8.06647E-02 9.95102E-32
8.30571E-02 7.68397E-32
8.54812E-02 5.73372E-32
8.79369E-02 4.12305E-32
9.04240E-02 2.84600E-32
9.29422E-02 1.87631E-32
9.54915E-02 1.17497E-32
9.80716E-02 6.96775E-33
1.00682E-01 3.95343E-33
1.03323E-01 2.26813E-33
1.05995E-01 1.52243E-33
1.08696E-01 1.38916E-33
1.11427E-01 1.60790E-33
1.14188E-01 1.98303E-33
1.16978E-01 2.37756E-33
1.19797E-01 2.70438E-33
1.22645E-01 2.91651E-33
1.25522E-01 2.99729E-33
1.28428E-01 2.95143E-33
1.31361E-01 2.79717E-33
1.34323E-01 2.55994E-33
1.37313E-01 2.26749E-33
1.40330E-01 1.94644E-33
1.43375E-01 1.62003E-33
1.46447E-01 1.30686E-33
1.49545E-01 1.02054E-33
1.52671E-01 7.69785E-34
1.55823E-01 5.58981E-34
1.59001E-01 3.88924E-34
1.62205E-01 2.57671E-34
1.65435E-01 1.61370E-34
1.68690E-01 9.50243E-35
1.71970E-01 5.31249E-35
1.75276E-01 3.01676E-35
1.78606E-01 2.10207E-35
1.81961E-01 2.11698E-35
1.85340E-01 2.68531E-35
1.88743E-01 3.51051E-35
1.92169E-01 4.37332E-35
1.95619E-01 5.12450E-35
1.99092E-01 5.67482E-35
2.02589E-01 5.98350E-35
2.06107E-01 6.04655E-35
2.09649E-01 5.88583E-35
2.13212E-01 5.53938E-35
2.16797E-01 5.05341E-35
2.20404E-01 4.47594E-35
2.24032E-01 3.85226E-35
2.27680E-01 3.22194E-35
2.31350E-01 2.61693E-35
2.35040E-01 2.06112E-35
2.38751E-01 1.57036E-35
2.42481E-01 1.15327E-35
2.46231E-01 8.12307E-36
2.50000E-01 5.45030E-36
2.53788E-01 3.45421E-36
2.57595E-01 2.05109E-36
2.61421E-01 1.14442E-36
2.65264E-01 6.33927E-37
2.69126E-01 4.22922E-37
2.73005E-01 4.23090E-37
2.76901E-01 5.57870E-37
2.80814E-01 7.64123E-37
2.84744E-01 9.92522E-37
2.88691E-01 1.20697E-36
2.92653E-01 1.38337E-36
2.96632E-01 1.50782E-36
3.00625E-01 1.57481E-36
3.04634E-01 1.58519E-36
3.08658E-01 1.54443E-36
3.12697E-01 1.46088E-36
3.16749E-01 1.34443E-36
3.20816E-01 1.20540E-36
3.24896E-01 1.05364E-36
3.28990E-01 8.97978E-37
3.33097E-01 7.45822E-37
3.37216E-01 6.02959E-37
3.41348E-01 4.73604E-37
3.45492E-01 3.60405E-37
3.49647E-01 2.64653E-37
3.53814E-01 1.86470E-37
3.57992E-01 1.25135E-37
3.62181E-01 7.91858E-38
3.66381E-01 4.67583E-38
3.70590E-01 2.57640E-38
3.74810E-01 1.40089E-38
3.79039E-01 9.38307E-39
3.83277E-01 9.92627E-39
3.87524E-01 1.39140E-38
3.91780E-01 1.98780E-38
3.96044E-01 2.66288E-38
4.00316E-01 3.32535E-38
4.04596E-01 3.90928E-38
4.08882E-01 4.37127E-38
4.13176E-01 4.68918E-38
4.17476E-01 4.85485E-38
4.21783E-01 4.87410E-38
4.26095E-01 4.76094E-38
4.30413E-01 4.53611E-38
4.34737E-01 4.22327E-38
4.39065E-01 3.84679E-38
4.43398E-01 3.43029E-38
4.47736E-01 2.99558E-38
4.52077E-01 2.56144E-38
4.56422E-01 2.14279E-38
4.60770E-01 1.75281E-38
4.65122E-01 1.39837E-38
4.69476E-01 1.08579E-38
4.73832E-01 8.17664E-39
4.78190E-01 5.94035E-39
4.82550E-01 4.13680E-39
4.86912E-01 1.00000E-45
4.91274E-01 1.00000E-45
4.95637E-01 1.00000E-45
5.00000E-01 1.00000E-45
5.04363E-01 1.00000E-45
5.08726E-01 1.00000E-45
5.13088E-01 1.00000E-45
5.17450E-01 1.00000E-45
5.21810E-01 1.00000E-45
5.26168E-01 1.00000E-45
5.30524E-01 1.00000E-45
5.34878E-01 1.00000E-45
5.39230E-01 1.00000E-45
5.43578E-01 1.00000E-45
5.47923E-01 1.00000E-45
5.52264E-01 1.00000E-45
5.56602E-01 1.00000E-45
5.60935E-01 1.00000E-45
5.65263E-01 1.00000E-45
5.69587E-01 1.00000E-45
5.73905E-01 1.00000E-45
5.78217E-01 1.00000E-45
5.82524E-01 1.00000E-45
5.86824E-01 1.00000E-45
5.91118E-01 1.00000E-45
5.95404E-01 1.00000E-45
5.99684E-01 1.00000E-45
6.03956E-01 1.00000E-45
6.08220E-01 1.00000E-45
6.12476E-01 1.00000E-45
6.16723E-01 1.00000E-45
6.20961E-01 1.00000E-45
6.25190E-01 1.00000E-45
6.29410E-01 1.00000E-45
6.33619E-01 1.00000E-45
6.37819E-01 1.00000E-45
6.42008E-01 1.00000E-45
6.46186E-01 1.00000E-45
6.50353E-01 1.00000E-45
6.54508E-01 1.00000E-45
6.58652E-01 1.00000E-45
6.62784E-01 1.00000E-45
6.66903E-01 1.00000E-45
6.71010E-01 1.00000E-45
6.75104E-01 1.00000E-45
6.79184E-01 1.00000E-45
6.83251E-01 1.00000E-45
6.87303E-01 1.00000E-45
6.91342E-01 1.00000E-45
6.95366E-01 1.00000E-45
6.99375E-01 1.00000E-45
7.03368E-01 1.00000E-45
7.07347E-01 1.00000E-45
7.11309E-01 1.00000E-45
7.15256E-01 1.00000E-45
7.19186E-01 1.00000E-45
7.23099E-01 1.00000E-45
7.26995E-01 1.00000E-45
7.30874E-01 1.00000E-45
7.34736E-01 1.00000E-45
7.38579E-01 1.00000E-45
7.42405E-01 1.00000E-45
7.46212E-01 1.00000E-45
7.50000E-01 1.00000E-45
7.53769E-01 1.00000E-45
7.57519E-01 1.00000E-45
7.61249E-01 1.00000E-45
7.64960E-01 1.00000E-45
7.68650E-01 1.00000E-45
7.72320E-01 1.00000E-45
7.75968E-01 1.00000E-45
7.79596E-01 1.00000E-45
7.83203E-01 1.00000E-45
7.86788E-01 1.00000E-45
7.90351E-01 1.00000E-45
7.93893E-01 1.00000E-45
7.97411E-01 1.00000E-45
8.00908E-01 1.00000E-45
8.04381E-01 1.00000E-45
8.07831E-01 1.00000E-45
8.11257E-01 1.00000E-45
8.14660E-01 1.00000E-45
8.18039E-01 1.00000E-45
8.21394E-01 1.00000E-45
8.24724E-01 1.00000E-45
8.28030E-01 1.00000E-45
8.31310E-01 1.00000E-45
8.34565E-01 1.00000E-45
8.37795E-01 1.00000E-45
8.40999E-01 1.00000E-45
8.44177E-01 1.00000E-45
8.47329E-01 1.00000E-45
8.50455E-01 1.00000E-45
8.53553E-01 1.00000E-45
8.56625E-01 1.00000E-45
8.59670E-01 1.00000E-45
8.62687E-01 1.00000E-45
8.65677E-01 1.00000E-45
8.68639E-01 1.00000E-45
8.71572E-01 1.00000E-45
8.74478E-01 1.00000E-45
8.77355E-01 1.00000E-45
8.80203E-01 1.00000E-45
8.83022E-01 1.00000E-45
8.85812E-01 1.00000E-45
8.88573E-01 1.00000E-45
8.91304E-01 1.00000E-45
8.94005E-01 1.00000E-45
8.96677E-01 1.00000E-45
8.99318E-01 1.00000E-45
9.01928E-01 1.00000E-45
9.04508E-01 1.00000E-45
9.07058E-01 1.00000E-45
9.09576E-01 1.00000E-45
9.12063E-01 1.00000E-45
9.14519E-01 1.00000E-45
9.16943E-01 1.00000E-45
9.19335E-01 1.00000E-45
9.21696E-01 1.00000E-45
9.24024E-01 1.00000E-45
9.26320E-01 1.00000E-45
9.28584E-01 1.00000E-45
9.30815E-01 1.00000E-45
9.33013E-01 1.00000E-45
9.35178E-01 1.00000E-45
9.37310E-01 1.00000E-45
9.39409E-01 1.00000E-45
9.41474E-01 1.00000E-45
9.43505E-01 1.00000E-45
9.45503E-01 1.00000E-45
9.47467E-01 1.00000E-45
9.49397E-01 1.00000E-45
9.51293E-01 1.00000E-45
9.53154E-01 1.00000E-45
9.54981E-01 1.00000E-45
9.56773E-01 1.00000E-45
9.58530E-01 1.00000E-45
9.60252E-01 1.00000E-45
9.61940E-01 1.00000E-45
9.63592E-01 1.00000E-45
9.65209E-01 1.00000E-45
9.66790E-01 1.00000E-45
9.68336E-01 1.00000E-45
9.69846E-01 1.00000E-45
9.71321E-01 1.00000E-45
9.72759E-01 1.00000E-45
9.74162E-01 1.00000E-45
9.75528E-01 1.00000E-45
9.76858E-01 1.00000E-45
9.78152E-01 1.00000E-45
9.79410E-01 1.00000E-45
9.80631E-01 1.00000E-45
9.81815E-01 1.00000E-45
9.82963E-01 1.00000E-45
9.84074E-01 1.00000E-45
9.85148E-01 1.00000E-45
9.86185E-01 1.00000E-45
9.87185E-01 1.00000E-45
9.88148E-01 1.00000E-45
9.89074E-01 1.00000E-45
9.89962E-01 1.00000E-45
9.90814E-01 1.00000E-45
9.91627E-01 1.00000E-45
9.92404E-01 1.00000E-45
9.93143E-01 1.00000E-45
9.93844E-01 1.00000E-45
9.94508E-01 1.00000E-45
9.95134E-01 1.00000E-45
9.95722E-01 1.00000E-45
9.96273E-01 1.00000E-45
9.96786E-01 1.00000E-45
9.97261E-01 1.00000E-45
9.97698E-01 1.00000E-45
9.98097E-01 1.00000E-45
9.98459E-01 1.00000E-45
9.98782E-01 1.00000E-45
9.99067E-01 1.00000E-45
9.99315E-01 1.00000E-45
9.99524E-01 1.00000E-45
9.99695E-01 1.00000E-45
9.99829E-01 1.00000E-45
9.99924E-01 1.00000E-45
9.99981E-01 1.00000E-45
1.00000E+00 1.00000E-45
