 #
 # Subroutine ELSEPA. Elastic scattering of electrons and positrons
 #                    by neutral atoms and positive ions
 #
 # Projectile: positron
 # Kinetic energy = 8.00000E+07 eV = 2.93995E+06 a.u.
 #
 # WARNING: High-energy factorization with free-atom DF screening.
 #          Absorption, polarization and exchange corrections are
 #          switched off.
 #          Phase shifts are calculated for the bare nucleus.
 #          Scattering amplitudes are not evaluated.
 #
 # Element: Kr,  Z =  36,  atomic weight = 8.38000E+01 g/mol
 #
 # Nuclear model: Fermi distribution
 #                Average radius = 4.68236E-13 cm
 #                Skin thickness = 5.46000E-14 cm
 #
 # Number of electrons = 36
 #
 # Total elastic cross section = 2.80988E-18 cm**2 = 1.00343E-01 a0**2
 # 1st transport cross section = 3.89538E-25 cm**2 = 1.39107E-08 a0**2
 # 2nd transport cross section = 1.15275E-24 cm**2 = 4.11654E-08 a0**2
 #
 #
 # Differential cross section:                       MU=(1-COS(THETA))/2
 #
 #  THETA        MU          DCS          DCS        Sherman      error
 #  (deg)                 (cm**2/sr)   (a0**2/sr)    function
 #----------------------------------------------------------------------
0.00000E+00 1.15689E-10
7.61557E-13 1.15586E-10
1.18994E-12 1.15528E-10
1.71346E-12 1.15458E-10
2.33225E-12 1.15375E-10
3.04617E-12 1.15279E-10
3.85530E-12 1.15170E-10
4.75964E-12 1.15050E-10
5.75917E-12 1.14916E-10
6.85391E-12 1.14770E-10
8.04379E-12 1.14612E-10
9.32893E-12 1.14442E-10
1.07092E-11 1.14259E-10
1.21847E-11 1.14064E-10
1.37554E-11 1.13858E-10
1.54213E-11 1.13639E-10
1.71823E-11 1.13408E-10
1.90386E-11 1.13166E-10
2.09900E-11 1.12912E-10
2.30367E-11 1.12647E-10
2.51785E-11 1.12370E-10
2.74156E-11 1.12082E-10
2.97478E-11 1.11783E-10
3.21752E-11 1.11473E-10
3.46979E-11 1.11152E-10
3.73157E-11 1.10816E-10
4.00286E-11 1.10468E-10
4.28368E-11 1.10113E-10
4.57402E-11 1.09749E-10
4.87388E-11 1.09378E-10
5.18325E-11 1.09000E-10
5.50215E-11 1.08615E-10
5.83057E-11 1.08205E-10
6.16850E-11 1.07787E-10
6.51595E-11 1.07363E-10
6.87293E-11 1.06933E-10
7.23943E-11 1.06497E-10
7.61544E-11 1.06057E-10
1.18991E-10 1.01132E-10
1.71347E-10 9.55740E-11
2.33223E-10 8.95469E-11
3.04617E-10 8.32663E-11
3.85531E-10 7.69025E-11
4.75965E-10 7.05889E-11
5.75917E-10 6.44827E-11
6.85389E-10 5.86243E-11
8.04380E-10 5.31425E-11
9.32891E-10 4.80069E-11
1.07092E-09 4.33123E-11
1.21847E-09 3.89888E-11
1.37554E-09 3.50930E-11
1.54213E-09 3.15596E-11
1.71823E-09 2.83996E-11
1.90386E-09 2.55638E-11
2.09900E-09 2.30379E-11
2.30367E-09 2.07858E-11
2.51785E-09 1.87833E-11
2.74156E-09 1.70035E-11
2.97478E-09 1.54210E-11
3.21752E-09 1.40154E-11
3.46978E-09 1.27638E-11
3.73156E-09 1.16136E-11
4.00286E-09 1.05929E-11
4.28368E-09 9.69875E-12
4.57402E-09 8.91229E-12
4.87388E-09 8.21803E-12
5.18326E-09 7.60296E-12
5.50215E-09 7.05618E-12
5.83057E-09 6.52598E-12
6.16850E-09 6.04977E-12
6.51596E-09 5.62388E-12
6.87293E-09 5.24186E-12
7.23942E-09 4.89822E-12
7.61544E-09 4.58827E-12
1.18991E-08 2.51812E-12
1.71347E-08 1.51240E-12
2.33223E-08 9.53160E-13
3.04617E-08 6.21783E-13
3.85531E-08 4.17754E-13
4.75965E-08 2.88337E-13
5.75917E-08 2.04536E-13
6.85389E-08 1.48748E-13
8.04380E-08 1.10804E-13
9.32891E-08 8.43019E-14
1.07092E-07 6.53749E-14
1.21847E-07 5.15572E-14
1.37554E-07 4.12763E-14
1.54213E-07 3.34692E-14
1.71823E-07 2.74481E-14
1.90386E-07 2.27301E-14
2.09900E-07 1.89901E-14
2.30367E-07 1.59900E-14
2.51785E-07 1.35601E-14
2.74156E-07 1.15733E-14
2.97478E-07 9.93479E-15
3.21752E-07 8.57405E-15
3.46978E-07 7.43573E-15
3.73156E-07 6.47446E-15
4.00286E-07 5.66490E-15
4.28368E-07 4.98103E-15
4.57402E-07 4.39053E-15
4.87388E-07 3.88668E-15
5.18325E-07 3.45305E-15
5.50215E-07 3.07598E-15
5.83057E-07 2.74984E-15
6.16850E-07 2.46511E-15
6.51596E-07 2.21582E-15
6.87293E-07 1.99771E-15
7.23942E-07 1.80505E-15
7.61543E-07 1.63514E-15
1.18991E-06 6.82045E-16
1.71347E-06 3.33198E-16
2.33223E-06 1.81722E-16
3.04617E-06 1.07424E-16
3.85531E-06 6.75209E-17
4.75964E-06 4.45388E-17
5.75916E-06 3.05504E-17
6.85388E-06 2.16435E-17
8.04378E-06 1.57556E-17
9.32888E-06 1.17386E-17
1.07092E-05 8.92273E-18
1.21846E-05 6.90190E-18
1.37553E-05 5.42157E-18
1.54212E-05 4.31729E-18
1.71822E-05 3.48012E-18
1.90385E-05 2.83578E-18
2.09899E-05 2.33452E-18
2.30365E-05 1.93910E-18
2.51783E-05 1.62377E-18
2.74153E-05 1.36985E-18
2.97475E-05 1.16359E-18
3.21749E-05 9.94690E-19
3.46974E-05 8.55357E-19
3.73152E-05 7.39606E-19
4.00281E-05 6.42804E-19
4.28362E-05 5.61337E-19
4.57395E-05 4.92368E-19
4.87380E-05 4.33659E-19
5.18317E-05 3.83428E-19
5.50205E-05 3.40251E-19
5.83045E-05 3.02977E-19
6.16838E-05 2.70668E-19
6.51582E-05 2.42554E-19
6.87277E-05 2.17999E-19
7.23925E-05 1.96475E-19
7.61524E-05 1.77557E-19
9.21439E-05 1.21232E-19
1.09658E-04 8.55608E-20
1.28695E-04 6.20936E-20
1.49255E-04 4.61416E-20
1.71338E-04 3.49973E-20
1.94942E-04 2.70208E-20
2.20070E-04 2.11914E-20
2.46720E-04 1.68515E-20
2.74892E-04 1.35669E-20
3.04586E-04 1.10445E-20
3.35803E-04 9.08132E-21
3.68542E-04 7.53526E-21
4.02802E-04 6.30431E-21
4.38585E-04 5.31449E-21
4.75889E-04 4.51132E-21
5.14715E-04 3.85411E-21
5.55063E-04 3.31220E-21
5.96931E-04 2.86214E-21
6.40321E-04 2.48589E-21
6.85233E-04 2.16939E-21
7.31665E-04 1.90162E-21
7.79618E-04 1.67385E-21
8.29092E-04 1.47913E-21
8.80086E-04 1.31186E-21
9.32601E-04 1.16755E-21
9.86636E-04 1.04250E-21
1.04219E-03 9.33727E-22
1.09927E-03 8.38743E-22
1.15786E-03 7.55514E-22
1.21797E-03 6.82331E-22
1.27961E-03 6.17781E-22
1.34276E-03 5.60666E-22
1.40743E-03 5.09987E-22
1.47362E-03 4.64890E-22
1.54133E-03 4.24659E-22
1.61056E-03 3.88672E-22
1.68131E-03 3.56411E-22
1.75357E-03 3.27416E-22
1.82735E-03 3.01302E-22
1.90265E-03 2.77733E-22
1.97947E-03 2.56416E-22
2.05780E-03 2.37100E-22
2.13765E-03 2.19562E-22
2.21902E-03 2.03610E-22
2.30190E-03 1.89076E-22
2.38630E-03 1.75811E-22
2.47222E-03 1.63684E-22
2.55965E-03 1.52582E-22
2.64859E-03 1.42401E-22
2.73905E-03 1.33052E-22
2.83103E-03 1.24454E-22
2.92452E-03 1.16537E-22
3.01952E-03 1.09237E-22
3.11604E-03 1.02496E-22
3.21407E-03 9.62658E-23
3.31362E-03 9.04992E-23
3.41468E-03 8.51559E-23
3.51725E-03 8.01993E-23
3.62133E-03 7.55962E-23
3.72692E-03 7.13170E-23
3.83403E-03 6.73346E-23
3.94265E-03 6.36249E-23
4.05278E-03 6.01658E-23
4.16442E-03 5.69372E-23
4.27757E-03 5.39211E-23
4.39223E-03 5.11008E-23
4.50840E-03 4.84614E-23
4.62608E-03 4.59892E-23
4.74527E-03 4.36717E-23
4.86597E-03 4.14973E-23
4.98817E-03 3.94558E-23
5.11188E-03 3.75373E-23
5.23711E-03 3.57333E-23
5.36383E-03 3.40356E-23
5.49207E-03 3.24369E-23
5.62181E-03 3.09302E-23
5.75306E-03 2.95093E-23
5.88581E-03 2.81685E-23
6.02007E-03 2.69024E-23
6.15583E-03 2.57061E-23
6.29310E-03 2.45750E-23
6.43187E-03 2.35049E-23
6.57214E-03 2.24920E-23
6.71392E-03 2.15326E-23
6.85720E-03 2.06234E-23
7.00198E-03 1.97612E-23
7.14827E-03 1.89432E-23
7.29605E-03 1.81668E-23
7.44534E-03 1.74293E-23
7.59612E-03 1.67285E-23
7.97965E-03 1.51234E-23
8.37255E-03 1.37044E-23
8.77480E-03 1.24465E-23
9.18641E-03 1.13283E-23
9.60736E-03 1.03315E-23
1.00376E-02 9.44091E-24
1.04773E-02 8.64315E-24
1.09262E-02 7.92695E-24
1.13844E-02 7.28254E-24
1.18520E-02 6.70150E-24
1.23288E-02 6.17653E-24
1.28150E-02 5.70130E-24
1.33104E-02 5.27029E-24
1.38150E-02 4.87868E-24
1.43290E-02 4.52225E-24
1.48521E-02 4.19730E-24
1.53845E-02 3.90057E-24
1.59262E-02 3.62918E-24
1.64770E-02 3.38061E-24
1.70371E-02 3.15260E-24
1.76063E-02 2.94316E-24
1.81848E-02 2.75051E-24
1.87724E-02 2.57309E-24
1.93692E-02 2.40947E-24
1.99751E-02 2.25840E-24
2.05901E-02 2.11876E-24
2.12143E-02 1.98952E-24
2.18476E-02 1.86978E-24
2.24900E-02 1.75872E-24
2.31415E-02 1.65561E-24
2.38021E-02 1.55977E-24
2.44717E-02 1.47061E-24
2.51504E-02 1.38757E-24
2.58382E-02 1.31018E-24
2.65349E-02 1.23797E-24
2.72407E-02 1.17054E-24
2.79555E-02 1.10753E-24
2.86793E-02 1.04858E-24
2.94120E-02 9.93401E-25
3.01537E-02 9.41703E-25
3.09043E-02 8.93229E-25
3.16639E-02 8.47745E-25
3.24324E-02 8.05035E-25
3.32098E-02 7.64900E-25
3.39961E-02 7.27159E-25
3.47912E-02 6.91645E-25
3.55952E-02 6.58204E-25
3.64081E-02 6.26694E-25
3.72297E-02 5.96986E-25
3.80602E-02 5.68958E-25
3.88995E-02 5.42499E-25
3.97476E-02 5.17507E-25
4.06044E-02 4.93887E-25
4.14700E-02 4.71551E-25
4.23443E-02 4.50417E-25
4.32273E-02 4.30409E-25
4.41190E-02 4.11459E-25
4.50194E-02 3.93499E-25
4.59284E-02 3.76470E-25
4.68461E-02 3.60316E-25
4.87074E-02 3.30426E-25
5.06030E-02 3.03449E-25
5.25328E-02 2.79059E-25
5.44967E-02 2.56969E-25
5.64946E-02 2.36927E-25
5.85262E-02 2.18715E-25
6.05914E-02 2.02140E-25
6.26901E-02 1.87032E-25
6.48222E-02 1.73241E-25
6.69873E-02 1.60636E-25
6.91854E-02 1.49098E-25
7.14163E-02 1.38523E-25
7.36799E-02 1.28819E-25
7.59760E-02 1.19904E-25
7.83043E-02 1.11704E-25
8.06647E-02 1.04153E-25
8.30571E-02 9.71914E-26
8.54812E-02 9.07671E-26
8.79369E-02 8.48324E-26
9.04240E-02 7.93446E-26
9.29422E-02 7.42650E-26
9.54915E-02 6.95590E-26
9.80716E-02 6.51950E-26
1.00682E-01 6.11448E-26
1.03323E-01 5.73826E-26
1.05995E-01 5.38849E-26
1.08696E-01 5.06306E-26
1.11427E-01 4.76003E-26
1.14188E-01 4.47766E-26
1.16978E-01 4.21434E-26
1.19797E-01 3.96860E-26
1.22645E-01 3.73912E-26
1.25522E-01 3.52468E-26
1.28428E-01 3.32415E-26
1.31361E-01 3.13652E-26
1.34323E-01 2.96084E-26
1.37313E-01 2.79625E-26
1.40330E-01 2.64197E-26
1.43375E-01 2.49726E-26
1.46447E-01 2.36145E-26
1.49545E-01 2.23393E-26
1.52671E-01 2.11412E-26
1.55823E-01 2.00151E-26
1.59001E-01 1.89560E-26
1.62205E-01 1.79595E-26
1.65435E-01 1.70214E-26
1.68690E-01 1.61379E-26
1.71970E-01 1.53054E-26
1.75276E-01 1.45207E-26
1.78606E-01 1.37806E-26
1.81961E-01 1.30824E-26
1.85340E-01 1.24233E-26
1.88743E-01 1.18009E-26
1.92169E-01 1.12131E-26
1.95619E-01 1.06575E-26
1.99092E-01 1.01323E-26
2.02589E-01 9.63561E-27
2.06107E-01 9.16571E-27
2.09649E-01 8.72100E-27
2.13212E-01 8.29998E-27
2.16797E-01 7.90125E-27
2.20404E-01 7.52352E-27
2.24032E-01 7.16555E-27
2.27680E-01 6.82621E-27
2.31350E-01 6.50442E-27
2.35040E-01 6.19919E-27
2.38751E-01 5.90958E-27
2.42481E-01 5.63471E-27
2.46231E-01 5.37375E-27
2.50000E-01 5.12593E-27
2.53788E-01 4.89053E-27
2.57595E-01 4.66686E-27
2.61421E-01 4.45428E-27
2.65264E-01 4.25219E-27
2.69126E-01 4.06002E-27
2.73005E-01 3.87725E-27
2.76901E-01 3.70337E-27
2.80814E-01 3.53790E-27
2.84744E-01 3.38041E-27
2.88691E-01 3.23048E-27
2.92653E-01 3.08771E-27
2.96632E-01 2.95173E-27
3.00625E-01 2.82218E-27
3.04634E-01 2.69875E-27
3.08658E-01 2.58111E-27
3.12697E-01 2.46898E-27
3.16749E-01 2.36206E-27
3.20816E-01 2.26011E-27
3.24896E-01 2.16286E-27
3.28990E-01 2.07009E-27
3.33097E-01 1.98158E-27
3.37216E-01 1.89710E-27
3.41348E-01 1.81648E-27
3.45492E-01 1.73950E-27
3.49647E-01 1.66601E-27
3.53814E-01 1.59582E-27
3.57992E-01 1.52878E-27
3.62181E-01 1.46473E-27
3.66381E-01 1.40354E-27
3.70590E-01 1.34507E-27
3.74810E-01 1.28918E-27
3.79039E-01 1.23576E-27
3.83277E-01 1.18468E-27
3.87524E-01 1.13585E-27
3.91780E-01 1.08915E-27
3.96044E-01 1.04448E-27
4.00316E-01 1.00174E-27
4.04596E-01 9.60863E-28
4.08882E-01 9.21745E-28
4.13176E-01 8.84310E-28
4.17476E-01 8.48480E-28
4.21783E-01 8.14183E-28
4.26095E-01 7.81348E-28
4.30413E-01 7.49909E-28
4.34737E-01 7.19804E-28
4.39065E-01 6.90972E-28
4.43398E-01 6.63356E-28
4.47736E-01 6.36901E-28
4.52077E-01 6.11556E-28
4.56422E-01 5.87272E-28
4.60770E-01 5.64000E-28
4.65122E-01 5.41698E-28
4.69476E-01 5.20321E-28
4.73832E-01 4.99830E-28
4.78190E-01 4.80185E-28
4.82550E-01 4.61349E-28
4.86912E-01 4.43288E-28
4.91274E-01 4.25967E-28
4.95637E-01 4.09356E-28
5.00000E-01 3.93422E-28
5.04363E-01 3.78137E-28
5.08726E-01 3.63472E-28
5.13088E-01 3.49403E-28
5.17450E-01 3.35902E-28
5.21810E-01 3.22946E-28
5.26168E-01 3.10512E-28
5.30524E-01 2.98577E-28
5.34878E-01 2.87120E-28
5.39230E-01 2.76122E-28
5.43578E-01 2.65563E-28
5.47923E-01 2.55424E-28
5.52264E-01 2.45688E-28
5.56602E-01 2.36339E-28
5.60935E-01 2.27359E-28
5.65263E-01 2.18734E-28
5.69587E-01 2.10450E-28
5.73905E-01 2.02491E-28
5.78217E-01 1.94844E-28
5.82524E-01 1.87497E-28
5.86824E-01 1.80438E-28
5.91118E-01 1.73654E-28
5.95404E-01 1.67134E-28
5.99684E-01 1.60868E-28
6.03956E-01 1.54845E-28
6.08220E-01 1.49055E-28
6.12476E-01 1.43489E-28
6.16723E-01 1.38138E-28
6.20961E-01 1.32993E-28
6.25190E-01 1.28046E-28
6.29410E-01 1.23289E-28
6.33619E-01 1.18714E-28
6.37819E-01 1.14314E-28
6.42008E-01 1.10081E-28
6.46186E-01 1.06010E-28
6.50353E-01 1.02094E-28
6.54508E-01 9.83270E-29
6.58652E-01 9.47024E-29
6.62784E-01 9.12150E-29
6.66903E-01 8.78593E-29
6.71010E-01 8.46301E-29
6.75104E-01 8.15225E-29
6.79184E-01 7.85317E-29
6.83251E-01 7.56531E-29
6.87303E-01 7.28823E-29
6.91342E-01 7.02151E-29
6.95366E-01 6.76475E-29
6.99375E-01 6.51756E-29
7.03368E-01 6.27957E-29
7.07347E-01 6.05042E-29
7.11309E-01 5.82976E-29
7.15256E-01 5.61728E-29
7.19186E-01 5.41266E-29
7.23099E-01 5.21559E-29
7.26995E-01 5.02578E-29
7.30874E-01 4.84296E-29
7.34736E-01 4.66685E-29
7.38579E-01 4.49720E-29
7.42405E-01 4.33377E-29
7.46212E-01 4.17632E-29
7.50000E-01 4.02461E-29
7.53769E-01 3.87844E-29
7.57519E-01 3.73759E-29
7.61249E-01 3.60186E-29
7.64960E-01 3.47105E-29
7.68650E-01 3.34499E-29
7.72320E-01 3.22349E-29
7.75968E-01 3.10638E-29
7.79596E-01 2.99350E-29
7.83203E-01 2.88469E-29
7.86788E-01 2.77979E-29
7.90351E-01 2.67866E-29
7.93893E-01 2.58116E-29
7.97411E-01 2.48716E-29
8.00908E-01 2.39652E-29
8.04381E-01 2.30912E-29
8.07831E-01 2.22484E-29
8.11257E-01 2.14356E-29
8.14660E-01 2.06518E-29
8.18039E-01 1.98958E-29
8.21394E-01 1.91667E-29
8.24724E-01 1.84634E-29
8.28030E-01 1.77851E-29
8.31310E-01 1.71307E-29
8.34565E-01 1.64995E-29
8.37795E-01 1.58905E-29
8.40999E-01 1.53030E-29
8.44177E-01 1.47362E-29
8.47329E-01 1.41894E-29
8.50455E-01 1.36617E-29
8.53553E-01 1.31526E-29
8.56625E-01 1.26613E-29
8.59670E-01 1.21872E-29
8.62687E-01 1.17298E-29
8.65677E-01 1.12883E-29
8.68639E-01 1.08622E-29
8.71572E-01 1.04510E-29
8.74478E-01 1.00541E-29
8.77355E-01 9.67110E-30
8.80203E-01 9.30139E-30
8.83022E-01 8.94455E-30
8.85812E-01 8.60012E-30
8.88573E-01 8.26765E-30
8.91304E-01 7.94672E-30
8.94005E-01 7.63694E-30
8.96677E-01 7.33790E-30
8.99318E-01 7.04923E-30
9.01928E-01 6.77058E-30
9.04508E-01 6.50158E-30
9.07058E-01 6.24190E-30
9.09576E-01 5.99122E-30
9.12063E-01 5.74923E-30
9.14519E-01 5.51563E-30
9.16943E-01 5.29012E-30
9.19335E-01 5.07244E-30
9.21696E-01 4.86231E-30
9.24024E-01 4.65947E-30
9.26320E-01 4.46368E-30
9.28584E-01 4.27470E-30
9.30815E-01 4.09229E-30
9.33013E-01 3.91624E-30
9.35178E-01 3.74633E-30
9.37310E-01 3.58235E-30
9.39409E-01 3.42411E-30
9.41474E-01 3.27142E-30
9.43505E-01 3.12410E-30
9.45503E-01 2.98196E-30
9.47467E-01 2.84484E-30
9.49397E-01 2.71257E-30
9.51293E-01 2.58500E-30
9.53154E-01 2.46197E-30
9.54981E-01 2.34334E-30
9.56773E-01 2.22897E-30
9.58530E-01 2.11873E-30
9.60252E-01 2.01248E-30
9.61940E-01 1.91009E-30
9.63592E-01 1.81146E-30
9.65209E-01 1.71646E-30
9.66790E-01 1.62498E-30
9.68336E-01 1.53692E-30
9.69846E-01 1.45217E-30
9.71321E-01 1.37064E-30
9.72759E-01 1.29222E-30
9.74162E-01 1.21684E-30
9.75528E-01 1.14439E-30
9.76858E-01 1.07481E-30
9.78152E-01 1.00801E-30
9.79410E-01 9.43904E-31
9.80631E-01 8.82430E-31
9.81815E-01 8.23513E-31
9.82963E-01 7.67088E-31
9.84074E-01 7.13089E-31
9.85148E-01 6.61454E-31
9.86185E-01 6.12125E-31
9.87185E-01 5.65046E-31
9.88148E-01 5.20162E-31
9.89074E-01 4.77425E-31
9.89962E-01 4.36784E-31
9.90814E-01 3.98194E-31
9.91627E-01 3.61611E-31
9.92404E-01 3.26995E-31
9.93143E-01 2.94305E-31
9.93844E-01 2.63506E-31
9.94508E-01 2.34562E-31
9.95134E-01 2.07441E-31
9.95722E-01 1.82113E-31
9.96273E-01 1.58549E-31
9.96786E-01 1.36723E-31
9.97261E-01 1.16609E-31
9.97698E-01 9.81867E-32
9.98097E-01 8.14343E-32
9.98459E-01 6.63332E-32
9.98782E-01 5.28666E-32
9.99067E-01 4.10194E-32
9.99315E-01 3.07786E-32
9.99524E-01 2.21325E-32
9.99695E-01 1.50715E-32
9.99829E-01 9.58773E-33
9.99924E-01 5.67515E-33
9.99981E-01 3.32938E-33
1.00000E+00 2.54778E-33
