 #
 # Subroutine ELSEPA. Elastic scattering of electrons and positrons
 #                    by neutral atoms and positive ions
 #
 # Projectile: positron
 # Kinetic energy = 2.50000E+06 eV = 9.18733E+04 a.u.
 #
 # WARNING: High-energy factorization with free-atom DF screening.
 #          Absorption, polarization and exchange corrections are
 #          switched off.
 #          Phase shifts are calculated for the bare nucleus.
 #          Scattering amplitudes are not evaluated.
 #
 # Element: Pm,  Z =  61,  atomic weight = 1.44913E+02 g/mol
 #
 # Nuclear model: Fermi distribution
 #                Average radius = 5.62021E-13 cm
 #                Skin thickness = 5.46000E-14 cm
 #
 # Number of electrons = 61
 #
 # Total elastic cross section = 7.44809E-18 cm**2 = 2.65976E-01 a0**2
 # 1st transport cross section = 4.77955E-22 cm**2 = 1.70681E-05 a0**2
 # 2nd transport cross section = 1.36544E-21 cm**2 = 4.87606E-05 a0**2
 #
 #
 # Differential cross section:                       MU=(1-COS(THETA))/2
 #
 #  THETA        MU          DCS          DCS        Sherman      error
 #  (deg)                 (cm**2/sr)   (a0**2/sr)    function
 #----------------------------------------------------------------------
0.00000E+00 8.81638E-13
7.61557E-13 8.81634E-13
1.18994E-12 8.81631E-13
1.71346E-12 8.81628E-13
2.33225E-12 8.81624E-13
3.04617E-12 8.81620E-13
3.85530E-12 8.81616E-13
4.75964E-12 8.81610E-13
5.75917E-12 8.81605E-13
6.85391E-12 8.81599E-13
8.04379E-12 8.81592E-13
9.32893E-12 8.81585E-13
1.07092E-11 8.81577E-13
1.21847E-11 8.81569E-13
1.37554E-11 8.81560E-13
1.54213E-11 8.81551E-13
1.71823E-11 8.81541E-13
1.90386E-11 8.81531E-13
2.09900E-11 8.81520E-13
2.30367E-11 8.81509E-13
2.51785E-11 8.81497E-13
2.74156E-11 8.81485E-13
2.97478E-11 8.81472E-13
3.21752E-11 8.81459E-13
3.46979E-11 8.81445E-13
3.73157E-11 8.81431E-13
4.00286E-11 8.81416E-13
4.28368E-11 8.81401E-13
4.57402E-11 8.81385E-13
4.87388E-11 8.81369E-13
5.18325E-11 8.81352E-13
5.50215E-11 8.81334E-13
5.83057E-11 8.81316E-13
6.16850E-11 8.81298E-13
6.51595E-11 8.81279E-13
6.87293E-11 8.81260E-13
7.23943E-11 8.81240E-13
7.61544E-11 8.81219E-13
1.18991E-10 8.80986E-13
1.71347E-10 8.80703E-13
2.33223E-10 8.80368E-13
3.04617E-10 8.79982E-13
3.85531E-10 8.79545E-13
4.75965E-10 8.79058E-13
5.75917E-10 8.78521E-13
6.85389E-10 8.77933E-13
8.04380E-10 8.77294E-13
9.32891E-10 8.76606E-13
1.07092E-09 8.75868E-13
1.21847E-09 8.75080E-13
1.37554E-09 8.74243E-13
1.54213E-09 8.73357E-13
1.71823E-09 8.72421E-13
1.90386E-09 8.71438E-13
2.09900E-09 8.70405E-13
2.30367E-09 8.69325E-13
2.51785E-09 8.68197E-13
2.74156E-09 8.67021E-13
2.97478E-09 8.65799E-13
3.21752E-09 8.64529E-13
3.46978E-09 8.63213E-13
3.73156E-09 8.61851E-13
4.00286E-09 8.60443E-13
4.28368E-09 8.58989E-13
4.57402E-09 8.57491E-13
4.87388E-09 8.55948E-13
5.18326E-09 8.54361E-13
5.50215E-09 8.52731E-13
5.83057E-09 8.51057E-13
6.16850E-09 8.49340E-13
6.51596E-09 8.47581E-13
6.87293E-09 8.45780E-13
7.23942E-09 8.43938E-13
7.61544E-09 8.42055E-13
1.18991E-08 8.21082E-13
1.71347E-08 7.96605E-13
2.33223E-08 7.69210E-13
3.04617E-08 7.39672E-13
3.85531E-08 7.08220E-13
4.75965E-08 6.75879E-13
5.75917E-08 6.42687E-13
6.85389E-08 6.09836E-13
8.04380E-08 5.76918E-13
9.32891E-08 5.45198E-13
1.07092E-07 5.14102E-13
1.21847E-07 4.84535E-13
1.37554E-07 4.56143E-13
1.54213E-07 4.29358E-13
1.71823E-07 4.04075E-13
1.90386E-07 3.80310E-13
2.09900E-07 3.58187E-13
2.30367E-07 3.37404E-13
2.51785E-07 3.18263E-13
2.74156E-07 3.00254E-13
2.97478E-07 2.83795E-13
3.21752E-07 2.68323E-13
3.46978E-07 2.54143E-13
3.73156E-07 2.40874E-13
4.00286E-07 2.28637E-13
4.28368E-07 2.17229E-13
4.57402E-07 2.06644E-13
4.87388E-07 1.96790E-13
5.18325E-07 1.87598E-13
5.50215E-07 1.79033E-13
5.83057E-07 1.71011E-13
6.16850E-07 1.63513E-13
6.51596E-07 1.56474E-13
6.87293E-07 1.49861E-13
7.23942E-07 1.43642E-13
7.61543E-07 1.37773E-13
1.18991E-06 9.35719E-14
1.71347E-06 6.57598E-14
2.33223E-06 4.72399E-14
3.04617E-06 3.42162E-14
3.85531E-06 2.56927E-14
4.75964E-06 1.95116E-14
5.75916E-06 1.52099E-14
6.85388E-06 1.19278E-14
8.04378E-06 9.57233E-15
9.32888E-06 7.70520E-15
1.07092E-05 6.30789E-15
1.21846E-05 5.18445E-15
1.37553E-05 4.30804E-15
1.54212E-05 3.59789E-15
1.71822E-05 3.02662E-15
1.90385E-05 2.56057E-15
2.09899E-05 2.17935E-15
2.30365E-05 1.86709E-15
2.51783E-05 1.60568E-15
2.74153E-05 1.39010E-15
2.97475E-05 1.20758E-15
3.21749E-05 1.05568E-15
3.46974E-05 9.26494E-16
3.73152E-05 8.17542E-16
4.00281E-05 7.24318E-16
4.28362E-05 6.44590E-16
4.57395E-05 5.75809E-16
4.87380E-05 5.16218E-16
5.18317E-05 4.64411E-16
5.50205E-05 4.19019E-16
5.83045E-05 3.79316E-16
6.16838E-05 3.44245E-16
6.51582E-05 3.13412E-16
6.87277E-05 2.85725E-16
7.23925E-05 2.61216E-16
7.61524E-05 2.39232E-16
9.21439E-05 1.71651E-16
1.09658E-04 1.26325E-16
1.28695E-04 9.48484E-17
1.49255E-04 7.24435E-17
1.71338E-04 5.62148E-17
1.94942E-04 4.42541E-17
2.20070E-04 3.52923E-17
2.46720E-04 2.84760E-17
2.74892E-04 2.32121E-17
3.04586E-04 1.91239E-17
3.35803E-04 1.58958E-17
3.68542E-04 1.33272E-17
4.02802E-04 1.12528E-17
4.38585E-04 9.57285E-18
4.75889E-04 8.19102E-18
5.14715E-04 7.05406E-18
5.55063E-04 6.10496E-18
5.96931E-04 5.31225E-18
6.40321E-04 4.64309E-18
6.85233E-04 4.07663E-18
7.31665E-04 3.59363E-18
7.79618E-04 3.17997E-18
8.29092E-04 2.82421E-18
8.80086E-04 2.51642E-18
9.32601E-04 2.24970E-18
9.86636E-04 2.01684E-18
1.04219E-03 1.81367E-18
1.09927E-03 1.63492E-18
1.15786E-03 1.47787E-18
1.21797E-03 1.33894E-18
1.27961E-03 1.21602E-18
1.34276E-03 1.10674E-18
1.40743E-03 1.00944E-18
1.47362E-03 9.22543E-19
1.54133E-03 8.44734E-19
1.61056E-03 7.74947E-19
1.68131E-03 7.12140E-19
1.75357E-03 6.55589E-19
1.82735E-03 6.04453E-19
1.90265E-03 5.58235E-19
1.97947E-03 5.16281E-19
2.05780E-03 4.78210E-19
2.13765E-03 4.43543E-19
2.21902E-03 4.11961E-19
2.30190E-03 3.83119E-19
2.38630E-03 3.56748E-19
2.47222E-03 3.32599E-19
2.55965E-03 3.10445E-19
2.64859E-03 2.90103E-19
2.73905E-03 2.71384E-19
2.83103E-03 2.54154E-19
2.92452E-03 2.38254E-19
3.01952E-03 2.23581E-19
3.11604E-03 2.10008E-19
3.21407E-03 1.97451E-19
3.31362E-03 1.85811E-19
3.41468E-03 1.75014E-19
3.51725E-03 1.64987E-19
3.62133E-03 1.55664E-19
3.72692E-03 1.46989E-19
3.83403E-03 1.38906E-19
3.94265E-03 1.31371E-19
4.05278E-03 1.24335E-19
4.16442E-03 1.17765E-19
4.27757E-03 1.11619E-19
4.39223E-03 1.05868E-19
4.50840E-03 1.00481E-19
4.62608E-03 9.54314E-20
4.74527E-03 9.06932E-20
4.86597E-03 8.62446E-20
4.98817E-03 8.20642E-20
5.11188E-03 7.81329E-20
5.23711E-03 7.44335E-20
5.36383E-03 7.09491E-20
5.49207E-03 6.76660E-20
5.62181E-03 6.45691E-20
5.75306E-03 6.16473E-20
5.88581E-03 5.88874E-20
6.02007E-03 5.62802E-20
6.15583E-03 5.38146E-20
6.29310E-03 5.14822E-20
6.43187E-03 4.92741E-20
6.57214E-03 4.71827E-20
6.71392E-03 4.52005E-20
6.85720E-03 4.33207E-20
7.00198E-03 4.15374E-20
7.14827E-03 3.98442E-20
7.29605E-03 3.82362E-20
7.44534E-03 3.67079E-20
7.59612E-03 3.52550E-20
7.97965E-03 3.19233E-20
8.37255E-03 2.89743E-20
8.77480E-03 2.63564E-20
9.18641E-03 2.40259E-20
9.60736E-03 2.19461E-20
1.00376E-02 2.00854E-20
1.04773E-02 1.84165E-20
1.09262E-02 1.69165E-20
1.13844E-02 1.55652E-20
1.18520E-02 1.43453E-20
1.23288E-02 1.32418E-20
1.28150E-02 1.22418E-20
1.33104E-02 1.13338E-20
1.38150E-02 1.05078E-20
1.43290E-02 9.75522E-21
1.48521E-02 9.06833E-21
1.53845E-02 8.44042E-21
1.59262E-02 7.86551E-21
1.64770E-02 7.33836E-21
1.70371E-02 6.85431E-21
1.76063E-02 6.40920E-21
1.81848E-02 5.99935E-21
1.87724E-02 5.62148E-21
1.93692E-02 5.27265E-21
1.99751E-02 4.95023E-21
2.05901E-02 4.65189E-21
2.12143E-02 4.37547E-21
2.18476E-02 4.11912E-21
2.24900E-02 3.88110E-21
2.31415E-02 3.65986E-21
2.38021E-02 3.45403E-21
2.44717E-02 3.26233E-21
2.51504E-02 3.08362E-21
2.58382E-02 2.91687E-21
2.65349E-02 2.76112E-21
2.72407E-02 2.61555E-21
2.79555E-02 2.47933E-21
2.86793E-02 2.35179E-21
2.94120E-02 2.23225E-21
3.01537E-02 2.12015E-21
3.09043E-02 2.01491E-21
3.16639E-02 1.91606E-21
3.24324E-02 1.82314E-21
3.32098E-02 1.73572E-21
3.39961E-02 1.65342E-21
3.47912E-02 1.57588E-21
3.55952E-02 1.50280E-21
3.64081E-02 1.43385E-21
3.72297E-02 1.36877E-21
3.80602E-02 1.30729E-21
3.88995E-02 1.24919E-21
3.97476E-02 1.19424E-21
4.06044E-02 1.14225E-21
4.14700E-02 1.09302E-21
4.23443E-02 1.04639E-21
4.32273E-02 1.00219E-21
4.41190E-02 9.60265E-22
4.50194E-02 9.20485E-22
4.59284E-02 8.82719E-22
4.68461E-02 8.46847E-22
4.87074E-02 7.80341E-22
5.06030E-02 7.20159E-22
5.25328E-02 6.65599E-22
5.44967E-02 6.16044E-22
5.64946E-02 5.70959E-22
5.85262E-02 5.29870E-22
6.05914E-02 4.92364E-22
6.26901E-02 4.58075E-22
6.48222E-02 4.26679E-22
6.69873E-02 3.97890E-22
6.91854E-02 3.71456E-22
7.14163E-02 3.47149E-22
7.36799E-02 3.24770E-22
7.59760E-02 3.04140E-22
7.83043E-02 2.85097E-22
8.06647E-02 2.67499E-22
8.30571E-02 2.51218E-22
8.54812E-02 2.36137E-22
8.79369E-02 2.22153E-22
9.04240E-02 2.09173E-22
9.29422E-02 1.97112E-22
9.54915E-02 1.85893E-22
9.80716E-02 1.75447E-22
1.00682E-01 1.65713E-22
1.03323E-01 1.56633E-22
1.05995E-01 1.48155E-22
1.08696E-01 1.40233E-22
1.11427E-01 1.32824E-22
1.14188E-01 1.25889E-22
1.16978E-01 1.19392E-22
1.19797E-01 1.13302E-22
1.22645E-01 1.07587E-22
1.25522E-01 1.02220E-22
1.28428E-01 9.71781E-23
1.31361E-01 9.24367E-23
1.34323E-01 8.79750E-23
1.37313E-01 8.37738E-23
1.40330E-01 7.98151E-23
1.43375E-01 7.60826E-23
1.46447E-01 7.25610E-23
1.49545E-01 6.92363E-23
1.52671E-01 6.60957E-23
1.55823E-01 6.31271E-23
1.59001E-01 6.03195E-23
1.62205E-01 5.76626E-23
1.65435E-01 5.51470E-23
1.68690E-01 5.27638E-23
1.71970E-01 5.05048E-23
1.75276E-01 4.83624E-23
1.78606E-01 4.63296E-23
1.81961E-01 4.43998E-23
1.85340E-01 4.25668E-23
1.88743E-01 4.08250E-23
1.92169E-01 3.91690E-23
1.95619E-01 3.75939E-23
1.99092E-01 3.60950E-23
2.02589E-01 3.46680E-23
2.06107E-01 3.33088E-23
2.09649E-01 3.20137E-23
2.13212E-01 3.07791E-23
2.16797E-01 2.96016E-23
2.20404E-01 2.84783E-23
2.24032E-01 2.74061E-23
2.27680E-01 2.63824E-23
2.31350E-01 2.54045E-23
2.35040E-01 2.44701E-23
2.38751E-01 2.35768E-23
2.42481E-01 2.27227E-23
2.46231E-01 2.19055E-23
2.50000E-01 2.11236E-23
2.53788E-01 2.03750E-23
2.57595E-01 1.96582E-23
2.61421E-01 1.89714E-23
2.65264E-01 1.83134E-23
2.69126E-01 1.76826E-23
2.73005E-01 1.70777E-23
2.76901E-01 1.64975E-23
2.80814E-01 1.59407E-23
2.84744E-01 1.54064E-23
2.88691E-01 1.48934E-23
2.92653E-01 1.44007E-23
2.96632E-01 1.39274E-23
3.00625E-01 1.34726E-23
3.04634E-01 1.30355E-23
3.08658E-01 1.26151E-23
3.12697E-01 1.22109E-23
3.16749E-01 1.18220E-23
3.20816E-01 1.14478E-23
3.24896E-01 1.10876E-23
3.28990E-01 1.07408E-23
3.33097E-01 1.04069E-23
3.37216E-01 1.00852E-23
3.41348E-01 9.77528E-24
3.45492E-01 9.47658E-24
3.49647E-01 9.18865E-24
3.53814E-01 8.91102E-24
3.57992E-01 8.64328E-24
3.62181E-01 8.38500E-24
3.66381E-01 8.13579E-24
3.70590E-01 7.89528E-24
3.74810E-01 7.66312E-24
3.79039E-01 7.43896E-24
3.83277E-01 7.22249E-24
3.87524E-01 7.01338E-24
3.91780E-01 6.81136E-24
3.96044E-01 6.61614E-24
4.00316E-01 6.42746E-24
4.04596E-01 6.24505E-24
4.08882E-01 6.06868E-24
4.13176E-01 5.89810E-24
4.17476E-01 5.73311E-24
4.21783E-01 5.57348E-24
4.26095E-01 5.41902E-24
4.30413E-01 5.26952E-24
4.34737E-01 5.12479E-24
4.39065E-01 4.98468E-24
4.43398E-01 4.84898E-24
4.47736E-01 4.71756E-24
4.52077E-01 4.59025E-24
4.56422E-01 4.46689E-24
4.60770E-01 4.34736E-24
4.65122E-01 4.23150E-24
4.69476E-01 4.11919E-24
4.73832E-01 4.01030E-24
4.78190E-01 3.90471E-24
4.82550E-01 3.80230E-24
4.86912E-01 3.70297E-24
4.91274E-01 3.60660E-24
4.95637E-01 3.51309E-24
5.00000E-01 3.42234E-24
5.04363E-01 3.33426E-24
5.08726E-01 3.24876E-24
5.13088E-01 3.16574E-24
5.17450E-01 3.08513E-24
5.21810E-01 3.00685E-24
5.26168E-01 2.93080E-24
5.30524E-01 2.85693E-24
5.34878E-01 2.78516E-24
5.39230E-01 2.71542E-24
5.43578E-01 2.64764E-24
5.47923E-01 2.58176E-24
5.52264E-01 2.51771E-24
5.56602E-01 2.45545E-24
5.60935E-01 2.39491E-24
5.65263E-01 2.33603E-24
5.69587E-01 2.27876E-24
5.73905E-01 2.22306E-24
5.78217E-01 2.16887E-24
5.82524E-01 2.11615E-24
5.86824E-01 2.06484E-24
5.91118E-01 2.01491E-24
5.95404E-01 1.96631E-24
5.99684E-01 1.91901E-24
6.03956E-01 1.87295E-24
6.08220E-01 1.82811E-24
6.12476E-01 1.78445E-24
6.16723E-01 1.74193E-24
6.20961E-01 1.70051E-24
6.25190E-01 1.66017E-24
6.29410E-01 1.62087E-24
6.33619E-01 1.58258E-24
6.37819E-01 1.54528E-24
6.42008E-01 1.50892E-24
6.46186E-01 1.47349E-24
6.50353E-01 1.43896E-24
6.54508E-01 1.40530E-24
6.58652E-01 1.37249E-24
6.62784E-01 1.34050E-24
6.66903E-01 1.30931E-24
6.71010E-01 1.27889E-24
6.75104E-01 1.24923E-24
6.79184E-01 1.22030E-24
6.83251E-01 1.19209E-24
6.87303E-01 1.16456E-24
6.91342E-01 1.13771E-24
6.95366E-01 1.11151E-24
6.99375E-01 1.08595E-24
7.03368E-01 1.06101E-24
7.07347E-01 1.03667E-24
7.11309E-01 1.01291E-24
7.15256E-01 9.89728E-25
7.19186E-01 9.67098E-25
7.23099E-01 9.45007E-25
7.26995E-01 9.23441E-25
7.30874E-01 9.02386E-25
7.34736E-01 8.81829E-25
7.38579E-01 8.61756E-25
7.42405E-01 8.42154E-25
7.46212E-01 8.23013E-25
7.50000E-01 8.04318E-25
7.53769E-01 7.86059E-25
7.57519E-01 7.68225E-25
7.61249E-01 7.50804E-25
7.64960E-01 7.33786E-25
7.68650E-01 7.17161E-25
7.72320E-01 7.00919E-25
7.75968E-01 6.85050E-25
7.79596E-01 6.69544E-25
7.83203E-01 6.54393E-25
7.86788E-01 6.39588E-25
7.90351E-01 6.25121E-25
7.93893E-01 6.10982E-25
7.97411E-01 5.97165E-25
8.00908E-01 5.83660E-25
8.04381E-01 5.70461E-25
8.07831E-01 5.57560E-25
8.11257E-01 5.44950E-25
8.14660E-01 5.32624E-25
8.18039E-01 5.20575E-25
8.21394E-01 5.08797E-25
8.24724E-01 4.97282E-25
8.28030E-01 4.86026E-25
8.31310E-01 4.75022E-25
8.34565E-01 4.64264E-25
8.37795E-01 4.53746E-25
8.40999E-01 4.43463E-25
8.44177E-01 4.33409E-25
8.47329E-01 4.23580E-25
8.50455E-01 4.13970E-25
8.53553E-01 4.04573E-25
8.56625E-01 3.95387E-25
8.59670E-01 3.86405E-25
8.62687E-01 3.77623E-25
8.65677E-01 3.69037E-25
8.68639E-01 3.60642E-25
8.71572E-01 3.52435E-25
8.74478E-01 3.44411E-25
8.77355E-01 3.36566E-25
8.80203E-01 3.28897E-25
8.83022E-01 3.21400E-25
8.85812E-01 3.14070E-25
8.88573E-01 3.06905E-25
8.91304E-01 2.99902E-25
8.94005E-01 2.93056E-25
8.96677E-01 2.86365E-25
8.99318E-01 2.79825E-25
9.01928E-01 2.73433E-25
9.04508E-01 2.67187E-25
9.07058E-01 2.61083E-25
9.09576E-01 2.55119E-25
9.12063E-01 2.49291E-25
9.14519E-01 2.43598E-25
9.16943E-01 2.38036E-25
9.19335E-01 2.32604E-25
9.21696E-01 2.27298E-25
9.24024E-01 2.22116E-25
9.26320E-01 2.17056E-25
9.28584E-01 2.12116E-25
9.30815E-01 2.07293E-25
9.33013E-01 2.02586E-25
9.35178E-01 1.97991E-25
9.37310E-01 1.93508E-25
9.39409E-01 1.89134E-25
9.41474E-01 1.84867E-25
9.43505E-01 1.80706E-25
9.45503E-01 1.76648E-25
9.47467E-01 1.72693E-25
9.49397E-01 1.68837E-25
9.51293E-01 1.65080E-25
9.53154E-01 1.61421E-25
9.54981E-01 1.57856E-25
9.56773E-01 1.54385E-25
9.58530E-01 1.51007E-25
9.60252E-01 1.47720E-25
9.61940E-01 1.44523E-25
9.63592E-01 1.41413E-25
9.65209E-01 1.38391E-25
9.66790E-01 1.35455E-25
9.68336E-01 1.32603E-25
9.69846E-01 1.29834E-25
9.71321E-01 1.27148E-25
9.72759E-01 1.24542E-25
9.74162E-01 1.22017E-25
9.75528E-01 1.19571E-25
9.76858E-01 1.17203E-25
9.78152E-01 1.14912E-25
9.79410E-01 1.12697E-25
9.80631E-01 1.10557E-25
9.81815E-01 1.08492E-25
9.82963E-01 1.06500E-25
9.84074E-01 1.04581E-25
9.85148E-01 1.02734E-25
9.86185E-01 1.00958E-25
9.87185E-01 9.92525E-26
9.88148E-01 9.76170E-26
9.89074E-01 9.60508E-26
9.89962E-01 9.45531E-26
9.90814E-01 9.31233E-26
9.91627E-01 9.17610E-26
9.92404E-01 9.04656E-26
9.93143E-01 8.92366E-26
9.93844E-01 8.80734E-26
9.94508E-01 8.69757E-26
9.95134E-01 8.59429E-26
9.95722E-01 8.49748E-26
9.96273E-01 8.40709E-26
9.96786E-01 8.32308E-26
9.97261E-01 8.24543E-26
9.97698E-01 8.17410E-26
9.98097E-01 8.10906E-26
9.98459E-01 8.05030E-26
9.98782E-01 7.99778E-26
9.99067E-01 7.95149E-26
9.99315E-01 7.91141E-26
9.99524E-01 7.87752E-26
9.99695E-01 7.84981E-26
9.99829E-01 7.82827E-26
9.99924E-01 7.81289E-26
9.99981E-01 7.80366E-26
1.00000E+00 7.80058E-26
