 #
 # Subroutine ELSEPA. Elastic scattering of electrons and positrons
 #                    by neutral atoms and positive ions
 #
 # Projectile: positron
 # Kinetic energy = 1.00000E+07 eV = 3.67493E+05 a.u.
 #
 # WARNING: High-energy factorization with free-atom DF screening.
 #          Absorption, polarization and exchange corrections are
 #          switched off.
 #          Phase shifts are calculated for the bare nucleus.
 #          Scattering amplitudes are not evaluated.
 #
 # Element: Pm,  Z =  61,  atomic weight = 1.44913E+02 g/mol
 #
 # Nuclear model: Fermi distribution
 #                Average radius = 5.62021E-13 cm
 #                Skin thickness = 5.46000E-14 cm
 #
 # Number of electrons = 61
 #
 # Total elastic cross section = 7.26011E-18 cm**2 = 2.59263E-01 a0**2
 # 1st transport cross section = 4.79677E-23 cm**2 = 1.71296E-06 a0**2
 # 2nd transport cross section = 1.38857E-22 cm**2 = 4.95867E-06 a0**2
 #
 #
 # Differential cross section:                       MU=(1-COS(THETA))/2
 #
 #  THETA        MU          DCS          DCS        Sherman      error
 #  (deg)                 (cm**2/sr)   (a0**2/sr)    function
 #----------------------------------------------------------------------
0.00000E+00 1.07438E-11
7.61557E-13 1.07431E-11
1.18994E-12 1.07428E-11
1.71346E-12 1.07423E-11
2.33225E-12 1.07418E-11
3.04617E-12 1.07412E-11
3.85530E-12 1.07406E-11
4.75964E-12 1.07398E-11
5.75917E-12 1.07390E-11
6.85391E-12 1.07381E-11
8.04379E-12 1.07371E-11
9.32893E-12 1.07361E-11
1.07092E-11 1.07349E-11
1.21847E-11 1.07337E-11
1.37554E-11 1.07324E-11
1.54213E-11 1.07310E-11
1.71823E-11 1.07296E-11
1.90386E-11 1.07281E-11
2.09900E-11 1.07265E-11
2.30367E-11 1.07248E-11
2.51785E-11 1.07230E-11
2.74156E-11 1.07212E-11
2.97478E-11 1.07193E-11
3.21752E-11 1.07173E-11
3.46979E-11 1.07152E-11
3.73157E-11 1.07131E-11
4.00286E-11 1.07108E-11
4.28368E-11 1.07085E-11
4.57402E-11 1.07062E-11
4.87388E-11 1.07037E-11
5.18325E-11 1.07012E-11
5.50215E-11 1.06986E-11
5.83057E-11 1.06959E-11
6.16850E-11 1.06931E-11
6.51595E-11 1.06903E-11
6.87293E-11 1.06874E-11
7.23943E-11 1.06844E-11
7.61544E-11 1.06813E-11
1.18991E-10 1.06465E-11
1.71347E-10 1.06042E-11
2.33223E-10 1.05546E-11
3.04617E-10 1.04978E-11
3.85531E-10 1.04341E-11
4.75965E-10 1.03637E-11
5.75917E-10 1.02867E-11
6.85389E-10 1.02035E-11
8.04380E-10 1.01143E-11
9.32891E-10 1.00194E-11
1.07092E-09 9.91911E-12
1.21847E-09 9.81374E-12
1.37554E-09 9.70360E-12
1.54213E-09 9.58902E-12
1.71823E-09 9.47034E-12
1.90386E-09 9.34787E-12
2.09900E-09 9.22210E-12
2.30367E-09 9.09438E-12
2.51785E-09 8.96331E-12
2.74156E-09 8.82915E-12
2.97478E-09 8.69219E-12
3.21752E-09 8.55271E-12
3.46978E-09 8.41437E-12
3.73156E-09 8.27459E-12
4.00286E-09 8.13311E-12
4.28368E-09 7.99018E-12
4.57402E-09 7.84604E-12
4.87388E-09 7.70388E-12
5.18326E-09 7.56264E-12
5.50215E-09 7.42085E-12
5.83057E-09 7.27873E-12
6.16850E-09 7.13647E-12
6.51596E-09 6.99633E-12
6.87293E-09 6.85932E-12
7.23942E-09 6.72266E-12
7.61544E-09 6.58649E-12
1.18991E-08 5.33325E-12
1.71347E-08 4.30709E-12
2.33223E-08 3.50521E-12
3.04617E-08 2.88997E-12
3.85531E-08 2.41733E-12
4.75965E-08 2.04936E-12
5.75917E-08 1.75729E-12
6.85389E-08 1.52054E-12
8.04380E-08 1.32485E-12
9.32891E-08 1.16058E-12
1.07092E-07 1.02099E-12
1.21847E-07 9.01279E-13
1.37554E-07 7.97942E-13
1.54213E-07 7.08317E-13
1.71823E-07 6.30317E-13
1.90386E-07 5.62261E-13
2.09900E-07 5.02335E-13
2.30367E-07 4.46864E-13
2.51785E-07 4.00132E-13
2.74156E-07 3.60502E-13
2.97478E-07 3.26684E-13
3.21752E-07 2.97653E-13
3.46978E-07 2.69154E-13
3.73156E-07 2.44096E-13
4.00286E-07 2.22394E-13
4.28368E-07 2.03506E-13
4.57402E-07 1.86991E-13
4.87388E-07 1.71406E-13
5.18325E-07 1.57147E-13
5.50215E-07 1.44582E-13
5.83057E-07 1.33469E-13
6.16850E-07 1.23603E-13
6.51596E-07 1.14452E-13
6.87293E-07 1.05810E-13
7.23942E-07 9.80899E-14
7.61543E-07 9.11736E-14
1.18991E-06 4.63937E-14
1.71347E-06 2.56781E-14
2.33223E-06 1.52421E-14
3.04617E-06 9.63237E-15
3.85531E-06 6.42285E-15
4.75964E-06 4.47291E-15
5.75916E-06 3.22194E-15
6.85388E-06 2.38233E-15
8.04378E-06 1.80029E-15
9.32888E-06 1.38455E-15
1.07092E-05 1.08055E-15
1.21846E-05 8.54421E-16
1.37553E-05 6.83880E-16
1.54212E-05 5.53562E-16
1.71822E-05 4.52672E-16
1.90385E-05 3.73479E-16
2.09899E-05 3.11050E-16
2.30365E-05 2.60999E-16
2.51783E-05 2.20853E-16
2.74153E-05 1.87919E-16
2.97475E-05 1.61043E-16
3.21749E-05 1.38717E-16
3.46974E-05 1.20219E-16
3.73152E-05 1.04683E-16
4.00281E-05 9.16274E-17
4.28362E-05 8.05307E-17
4.57395E-05 7.10818E-17
4.87380E-05 6.29694E-17
5.18317E-05 5.59855E-17
5.50205E-05 4.99389E-17
5.83045E-05 4.46863E-17
6.16838E-05 4.01077E-17
6.51582E-05 3.60990E-17
6.87277E-05 3.25825E-17
7.23925E-05 2.94810E-17
7.61524E-05 2.67431E-17
9.21439E-05 1.85010E-17
1.09658E-04 1.31955E-17
1.28695E-04 9.65879E-18
1.49255E-04 7.22803E-18
1.71338E-04 5.51460E-18
1.94942E-04 4.27889E-18
2.20070E-04 3.37008E-18
2.46720E-04 2.68987E-18
2.74892E-04 2.17266E-18
3.04586E-04 1.77387E-18
3.35803E-04 1.46241E-18
3.68542E-04 1.21635E-18
4.02802E-04 1.01988E-18
4.38585E-04 8.61484E-19
4.75889E-04 7.32656E-19
5.14715E-04 6.27010E-19
5.55063E-04 5.39721E-19
5.96931E-04 4.67091E-19
6.40321E-04 4.06263E-19
6.85233E-04 3.55010E-19
7.31665E-04 3.11580E-19
7.79618E-04 2.74582E-19
8.29092E-04 2.42908E-19
8.80086E-04 2.15664E-19
9.32601E-04 1.92127E-19
9.86636E-04 1.71709E-19
1.04219E-03 1.53927E-19
1.09927E-03 1.38383E-19
1.15786E-03 1.24748E-19
1.21797E-03 1.12748E-19
1.27961E-03 1.02153E-19
1.34276E-03 9.27705E-20
1.40743E-03 8.44379E-20
1.47362E-03 7.70175E-20
1.54133E-03 7.03922E-20
1.61056E-03 6.44622E-20
1.68131E-03 5.91417E-20
1.75357E-03 5.43572E-20
1.82735E-03 5.00453E-20
1.90265E-03 4.61511E-20
1.97947E-03 4.26272E-20
2.05780E-03 3.94321E-20
2.13765E-03 3.65297E-20
2.21902E-03 3.38886E-20
2.30190E-03 3.14811E-20
2.38630E-03 2.92829E-20
2.47222E-03 2.72723E-20
2.55965E-03 2.54308E-20
2.64859E-03 2.37416E-20
2.73905E-03 2.21898E-20
2.83103E-03 2.07621E-20
2.92452E-03 1.94469E-20
3.01952E-03 1.82339E-20
3.11604E-03 1.71136E-20
3.21407E-03 1.60776E-20
3.31362E-03 1.51185E-20
3.41468E-03 1.42296E-20
3.51725E-03 1.34048E-20
3.62133E-03 1.26386E-20
3.72692E-03 1.19261E-20
3.83403E-03 1.12629E-20
3.94265E-03 1.06450E-20
4.05278E-03 1.00686E-20
4.16442E-03 9.53057E-21
4.27757E-03 9.02781E-21
4.39223E-03 8.55762E-21
4.50840E-03 8.11750E-21
4.62608E-03 7.70516E-21
4.74527E-03 7.31855E-21
4.86597E-03 6.95576E-21
4.98817E-03 6.61507E-21
5.11188E-03 6.29486E-21
5.23711E-03 5.99370E-21
5.36383E-03 5.71025E-21
5.49207E-03 5.44326E-21
5.62181E-03 5.19162E-21
5.75306E-03 4.95427E-21
5.88581E-03 4.73026E-21
6.02007E-03 4.51870E-21
6.15583E-03 4.31877E-21
6.29310E-03 4.12971E-21
6.43187E-03 3.95083E-21
6.57214E-03 3.78147E-21
6.71392E-03 3.62104E-21
6.85720E-03 3.46898E-21
7.00198E-03 3.32477E-21
7.14827E-03 3.18794E-21
7.29605E-03 3.05803E-21
7.44534E-03 2.93463E-21
7.59612E-03 2.81735E-21
7.97965E-03 2.54866E-21
8.37255E-03 2.31106E-21
8.77480E-03 2.10036E-21
9.18641E-03 1.91299E-21
9.60736E-03 1.74593E-21
1.00376E-02 1.59660E-21
1.04773E-02 1.46280E-21
1.09262E-02 1.34263E-21
1.13844E-02 1.23448E-21
1.18520E-02 1.13693E-21
1.23288E-02 1.04876E-21
1.28150E-02 9.68911E-22
1.33104E-02 8.96468E-22
1.38150E-02 8.30622E-22
1.43290E-02 7.70667E-22
1.48521E-02 7.15986E-22
1.53845E-02 6.66034E-22
1.59262E-02 6.20329E-22
1.64770E-02 5.78448E-22
1.70371E-02 5.40014E-22
1.76063E-02 5.04694E-22
1.81848E-02 4.72191E-22
1.87724E-02 4.42242E-22
1.93692E-02 4.14610E-22
1.99751E-02 3.89085E-22
2.05901E-02 3.65477E-22
2.12143E-02 3.43616E-22
2.18476E-02 3.23351E-22
2.24900E-02 3.04545E-22
2.31415E-02 2.87074E-22
2.38021E-02 2.70827E-22
2.44717E-02 2.55702E-22
2.51504E-02 2.41608E-22
2.58382E-02 2.28463E-22
2.65349E-02 2.16190E-22
2.72407E-02 2.04723E-22
2.79555E-02 1.93998E-22
2.86793E-02 1.83960E-22
2.94120E-02 1.74556E-22
3.01537E-02 1.65738E-22
3.09043E-02 1.57465E-22
3.16639E-02 1.49696E-22
3.24324E-02 1.42395E-22
3.32098E-02 1.35529E-22
3.39961E-02 1.29067E-22
3.47912E-02 1.22982E-22
3.55952E-02 1.17247E-22
3.64081E-02 1.11838E-22
3.72297E-02 1.06735E-22
3.80602E-02 1.01915E-22
3.88995E-02 9.73616E-23
3.97476E-02 9.30565E-23
4.06044E-02 8.89839E-23
4.14700E-02 8.51290E-23
4.23443E-02 8.14779E-23
4.32273E-02 7.80180E-23
4.41190E-02 7.47375E-23
4.50194E-02 7.16255E-23
4.59284E-02 6.86717E-23
4.68461E-02 6.58667E-23
4.87074E-02 6.06680E-23
5.06030E-02 5.59657E-23
5.25328E-02 5.17045E-23
5.44967E-02 4.78359E-23
5.64946E-02 4.43176E-23
5.85262E-02 4.11124E-23
6.05914E-02 3.81878E-23
6.26901E-02 3.55150E-23
6.48222E-02 3.30686E-23
6.69873E-02 3.08261E-23
6.91854E-02 2.87677E-23
7.14163E-02 2.68756E-23
7.36799E-02 2.51341E-23
7.59760E-02 2.35292E-23
7.83043E-02 2.20483E-23
8.06647E-02 2.06801E-23
8.30571E-02 1.94147E-23
8.54812E-02 1.82429E-23
8.79369E-02 1.71566E-23
9.04240E-02 1.61487E-23
9.29422E-02 1.52122E-23
9.54915E-02 1.43415E-23
9.80716E-02 1.35310E-23
1.00682E-01 1.27759E-23
1.03323E-01 1.20717E-23
1.05995E-01 1.14144E-23
1.08696E-01 1.08003E-23
1.11427E-01 1.02262E-23
1.14188E-01 9.68889E-24
1.16978E-01 9.18568E-24
1.19797E-01 8.71402E-24
1.22645E-01 8.27160E-24
1.25522E-01 7.85627E-24
1.28428E-01 7.46610E-24
1.31361E-01 7.09931E-24
1.34323E-01 6.75424E-24
1.37313E-01 6.42939E-24
1.40330E-01 6.12336E-24
1.43375E-01 5.83489E-24
1.46447E-01 5.56278E-24
1.49545E-01 5.30595E-24
1.52671E-01 5.06340E-24
1.55823E-01 4.83418E-24
1.59001E-01 4.61745E-24
1.62205E-01 4.41240E-24
1.65435E-01 4.21830E-24
1.68690E-01 4.03446E-24
1.71970E-01 3.86025E-24
1.75276E-01 3.69506E-24
1.78606E-01 3.53837E-24
1.81961E-01 3.38964E-24
1.85340E-01 3.24841E-24
1.88743E-01 3.11424E-24
1.92169E-01 2.98671E-24
1.95619E-01 2.86544E-24
1.99092E-01 2.75006E-24
2.02589E-01 2.64024E-24
2.06107E-01 2.53567E-24
2.09649E-01 2.43605E-24
2.13212E-01 2.34111E-24
2.16797E-01 2.25058E-24
2.20404E-01 2.16423E-24
2.24032E-01 2.08183E-24
2.27680E-01 2.00317E-24
2.31350E-01 1.92806E-24
2.35040E-01 1.85630E-24
2.38751E-01 1.78772E-24
2.42481E-01 1.72215E-24
2.46231E-01 1.65945E-24
2.50000E-01 1.59946E-24
2.53788E-01 1.54204E-24
2.57595E-01 1.48707E-24
2.61421E-01 1.43443E-24
2.65264E-01 1.38400E-24
2.69126E-01 1.33566E-24
2.73005E-01 1.28933E-24
2.76901E-01 1.24490E-24
2.80814E-01 1.20227E-24
2.84744E-01 1.16138E-24
2.88691E-01 1.12212E-24
2.92653E-01 1.08443E-24
2.96632E-01 1.04823E-24
3.00625E-01 1.01346E-24
3.04634E-01 9.80045E-25
3.08658E-01 9.47925E-25
3.12697E-01 9.17042E-25
3.16749E-01 8.87341E-25
3.20816E-01 8.58768E-25
3.24896E-01 8.31274E-25
3.28990E-01 8.04812E-25
3.33097E-01 7.79335E-25
3.37216E-01 7.54800E-25
3.41348E-01 7.31169E-25
3.45492E-01 7.08400E-25
3.49647E-01 6.86458E-25
3.53814E-01 6.65308E-25
3.57992E-01 6.44916E-25
3.62181E-01 6.25251E-25
3.66381E-01 6.06282E-25
3.70590E-01 5.87981E-25
3.74810E-01 5.70320E-25
3.79039E-01 5.53273E-25
3.83277E-01 5.36815E-25
3.87524E-01 5.20923E-25
3.91780E-01 5.05574E-25
3.96044E-01 4.90746E-25
4.00316E-01 4.76418E-25
4.04596E-01 4.62572E-25
4.08882E-01 4.49187E-25
4.13176E-01 4.36247E-25
4.17476E-01 4.23734E-25
4.21783E-01 4.11631E-25
4.26095E-01 3.99923E-25
4.30413E-01 3.88596E-25
4.34737E-01 3.77634E-25
4.39065E-01 3.67024E-25
4.43398E-01 3.56752E-25
4.47736E-01 3.46807E-25
4.52077E-01 3.37176E-25
4.56422E-01 3.27848E-25
4.60770E-01 3.18811E-25
4.65122E-01 3.10055E-25
4.69476E-01 3.01571E-25
4.73832E-01 2.93347E-25
4.78190E-01 2.85375E-25
4.82550E-01 2.77646E-25
4.86912E-01 2.70152E-25
4.91274E-01 2.62883E-25
4.95637E-01 2.55833E-25
5.00000E-01 2.48993E-25
5.04363E-01 2.42357E-25
5.08726E-01 2.35917E-25
5.13088E-01 2.29666E-25
5.17450E-01 2.23599E-25
5.21810E-01 2.17708E-25
5.26168E-01 2.11989E-25
5.30524E-01 2.06435E-25
5.34878E-01 2.01040E-25
5.39230E-01 1.95800E-25
5.43578E-01 1.90709E-25
5.47923E-01 1.85763E-25
5.52264E-01 1.80956E-25
5.56602E-01 1.76285E-25
5.60935E-01 1.71744E-25
5.65263E-01 1.67330E-25
5.69587E-01 1.63038E-25
5.73905E-01 1.58865E-25
5.78217E-01 1.54807E-25
5.82524E-01 1.50860E-25
5.86824E-01 1.47020E-25
5.91118E-01 1.43285E-25
5.95404E-01 1.39651E-25
5.99684E-01 1.36115E-25
6.03956E-01 1.32674E-25
6.08220E-01 1.29324E-25
6.12476E-01 1.26064E-25
6.16723E-01 1.22890E-25
6.20961E-01 1.19801E-25
6.25190E-01 1.16792E-25
6.29410E-01 1.13862E-25
6.33619E-01 1.11009E-25
6.37819E-01 1.08230E-25
6.42008E-01 1.05523E-25
6.46186E-01 1.02885E-25
6.50353E-01 1.00316E-25
6.54508E-01 9.78126E-26
6.58652E-01 9.53730E-26
6.62784E-01 9.29954E-26
6.66903E-01 9.06782E-26
6.71010E-01 8.84195E-26
6.75104E-01 8.62176E-26
6.79184E-01 8.40710E-26
6.83251E-01 8.19781E-26
6.87303E-01 7.99373E-26
6.91342E-01 7.79473E-26
6.95366E-01 7.60065E-26
6.99375E-01 7.41136E-26
7.03368E-01 7.22673E-26
7.07347E-01 7.04663E-26
7.11309E-01 6.87093E-26
7.15256E-01 6.69951E-26
7.19186E-01 6.53226E-26
7.23099E-01 6.36906E-26
7.26995E-01 6.20981E-26
7.30874E-01 6.05439E-26
7.34736E-01 5.90271E-26
7.38579E-01 5.75466E-26
7.42405E-01 5.61015E-26
7.46212E-01 5.46908E-26
7.50000E-01 5.33137E-26
7.53769E-01 5.19692E-26
7.57519E-01 5.06565E-26
7.61249E-01 4.93748E-26
7.64960E-01 4.81232E-26
7.68650E-01 4.69010E-26
7.72320E-01 4.57075E-26
7.75968E-01 4.45418E-26
7.79596E-01 4.34033E-26
7.83203E-01 4.22914E-26
7.86788E-01 4.12052E-26
7.90351E-01 4.01443E-26
7.93893E-01 3.91079E-26
7.97411E-01 3.80954E-26
8.00908E-01 3.71063E-26
8.04381E-01 3.61399E-26
8.07831E-01 3.51958E-26
8.11257E-01 3.42733E-26
8.14660E-01 3.33719E-26
8.18039E-01 3.24912E-26
8.21394E-01 3.16306E-26
8.24724E-01 3.07896E-26
8.28030E-01 2.99678E-26
8.31310E-01 2.91647E-26
8.34565E-01 2.83799E-26
8.37795E-01 2.76130E-26
8.40999E-01 2.68634E-26
8.44177E-01 2.61309E-26
8.47329E-01 2.54150E-26
8.50455E-01 2.47153E-26
8.53553E-01 2.40315E-26
8.56625E-01 2.33632E-26
8.59670E-01 2.27101E-26
8.62687E-01 2.20717E-26
8.65677E-01 2.14478E-26
8.68639E-01 2.08381E-26
8.71572E-01 2.02422E-26
8.74478E-01 1.96599E-26
8.77355E-01 1.90907E-26
8.80203E-01 1.85345E-26
8.83022E-01 1.79910E-26
8.85812E-01 1.74599E-26
8.88573E-01 1.69408E-26
8.91304E-01 1.64337E-26
8.94005E-01 1.59381E-26
8.96677E-01 1.54539E-26
8.99318E-01 1.49808E-26
9.01928E-01 1.45187E-26
9.04508E-01 1.40672E-26
9.07058E-01 1.36261E-26
9.09576E-01 1.31953E-26
9.12063E-01 1.27745E-26
9.14519E-01 1.23636E-26
9.16943E-01 1.19623E-26
9.19335E-01 1.15704E-26
9.21696E-01 1.11878E-26
9.24024E-01 1.08143E-26
9.26320E-01 1.04497E-26
9.28584E-01 1.00938E-26
9.30815E-01 9.74651E-27
9.33013E-01 9.40762E-27
9.35178E-01 9.07698E-27
9.37310E-01 8.75444E-27
9.39409E-01 8.43986E-27
9.41474E-01 8.13309E-27
9.43505E-01 7.83399E-27
9.45503E-01 7.54244E-27
9.47467E-01 7.25829E-27
9.49397E-01 6.98142E-27
9.51293E-01 6.71170E-27
9.53154E-01 6.44902E-27
9.54981E-01 6.19327E-27
9.56773E-01 5.94431E-27
9.58530E-01 5.70205E-27
9.60252E-01 5.46639E-27
9.61940E-01 5.23721E-27
9.63592E-01 5.01441E-27
9.65209E-01 4.79791E-27
9.66790E-01 4.58760E-27
9.68336E-01 4.38339E-27
9.69846E-01 4.18520E-27
9.71321E-01 3.99294E-27
9.72759E-01 3.80653E-27
9.74162E-01 3.62588E-27
9.75528E-01 3.45093E-27
9.76858E-01 3.28159E-27
9.78152E-01 3.11780E-27
9.79410E-01 2.95948E-27
9.80631E-01 2.80657E-27
9.81815E-01 2.65901E-27
9.82963E-01 2.51672E-27
9.84074E-01 2.37966E-27
9.85148E-01 2.24776E-27
9.86185E-01 2.12096E-27
9.87185E-01 1.99923E-27
9.88148E-01 1.88250E-27
9.89074E-01 1.77072E-27
9.89962E-01 1.66386E-27
9.90814E-01 1.56186E-27
9.91627E-01 1.46468E-27
9.92404E-01 1.37228E-27
9.93143E-01 1.28463E-27
9.93844E-01 1.20169E-27
9.94508E-01 1.12343E-27
9.95134E-01 1.04980E-27
9.95722E-01 9.80789E-28
9.96273E-01 9.16360E-28
9.96786E-01 8.56488E-28
9.97261E-01 8.01148E-28
9.97698E-01 7.50319E-28
9.98097E-01 7.03979E-28
9.98459E-01 6.62108E-28
9.98782E-01 6.24691E-28
9.99067E-01 5.91712E-28
9.99315E-01 5.63157E-28
9.99524E-01 5.39015E-28
9.99695E-01 5.19275E-28
9.99829E-01 5.03931E-28
9.99924E-01 4.92975E-28
9.99981E-01 4.86403E-28
1.00000E+00 4.84213E-28
