 #
 # Subroutine ELSEPA. Elastic scattering of electrons and positrons
 #                    by neutral atoms and positive ions
 #
 # Projectile: positron
 # Kinetic energy = 4.50000E+07 eV = 1.65372E+06 a.u.
 #
 # WARNING: High-energy factorization with free-atom DF screening.
 #          Absorption, polarization and exchange corrections are
 #          switched off.
 #          Phase shifts are calculated for the bare nucleus.
 #          Scattering amplitudes are not evaluated.
 #
 # Element: Pm,  Z =  61,  atomic weight = 1.44913E+02 g/mol
 #
 # Nuclear model: Fermi distribution
 #                Average radius = 5.62021E-13 cm
 #                Skin thickness = 5.46000E-14 cm
 #
 # Number of electrons = 61
 #
 # Total elastic cross section = 7.24711E-18 cm**2 = 2.58799E-01 a0**2
 # 1st transport cross section = 3.17870E-24 cm**2 = 1.13513E-07 a0**2
 # 2nd transport cross section = 9.32164E-24 cm**2 = 3.32882E-07 a0**2
 #
 #
 # Differential cross section:                       MU=(1-COS(THETA))/2
 #
 #  THETA        MU          DCS          DCS        Sherman      error
 #  (deg)                 (cm**2/sr)   (a0**2/sr)    function
 #----------------------------------------------------------------------
0.00000E+00 2.01420E-10
7.61557E-13 2.01198E-10
1.18994E-12 2.01074E-10
1.71346E-12 2.00923E-10
2.33225E-12 2.00745E-10
3.04617E-12 2.00539E-10
3.85530E-12 2.00306E-10
4.75964E-12 2.00047E-10
5.75917E-12 1.99761E-10
6.85391E-12 1.99449E-10
8.04379E-12 1.99110E-10
9.32893E-12 1.98745E-10
1.07092E-11 1.98355E-10
1.21847E-11 1.97939E-10
1.37554E-11 1.97498E-10
1.54213E-11 1.97032E-10
1.71823E-11 1.96541E-10
1.90386E-11 1.96026E-10
2.09900E-11 1.95487E-10
2.30367E-11 1.94924E-10
2.51785E-11 1.94338E-10
2.74156E-11 1.93729E-10
2.97478E-11 1.93097E-10
3.21752E-11 1.92443E-10
3.46979E-11 1.91768E-10
3.73157E-11 1.91071E-10
4.00286E-11 1.90353E-10
4.28368E-11 1.89614E-10
4.57402E-11 1.88856E-10
4.87388E-11 1.88078E-10
5.18325E-11 1.87281E-10
5.50215E-11 1.86465E-10
5.83057E-11 1.85631E-10
6.16850E-11 1.84779E-10
6.51595E-11 1.83910E-10
6.87293E-11 1.83024E-10
7.23943E-11 1.82122E-10
7.61544E-11 1.81204E-10
1.18991E-10 1.71292E-10
1.71347E-10 1.60326E-10
2.33223E-10 1.48878E-10
3.04617E-10 1.37324E-10
3.85531E-10 1.26009E-10
4.75965E-10 1.15191E-10
5.75917E-10 1.05049E-10
6.85389E-10 9.57119E-11
8.04380E-10 8.72471E-11
9.32891E-10 7.95932E-11
1.07092E-09 7.27179E-11
1.21847E-09 6.65699E-11
1.37554E-09 6.10875E-11
1.54213E-09 5.62160E-11
1.71823E-09 5.18831E-11
1.90386E-09 4.80086E-11
2.09900E-09 4.45374E-11
2.30367E-09 4.14196E-11
2.51785E-09 3.86107E-11
2.74156E-09 3.60714E-11
2.97478E-09 3.37641E-11
3.21752E-09 3.16595E-11
3.46978E-09 2.97334E-11
3.73156E-09 2.79652E-11
4.00286E-09 2.63367E-11
4.28368E-09 2.48286E-11
4.57402E-09 2.34293E-11
4.87388E-09 2.21297E-11
5.18326E-09 2.09201E-11
5.50215E-09 1.97922E-11
5.83057E-09 1.87388E-11
6.16850E-09 1.77489E-11
6.51596E-09 1.68211E-11
6.87293E-09 1.59513E-11
7.23942E-09 1.51350E-11
7.61544E-09 1.43682E-11
1.18991E-08 8.70001E-12
1.71347E-08 5.57811E-12
2.33223E-08 3.70597E-12
3.04617E-08 2.56788E-12
3.85531E-08 1.83824E-12
4.75965E-08 1.34983E-12
5.75917E-08 1.01130E-12
6.85389E-08 7.69461E-13
8.04380E-08 5.93085E-13
9.32891E-08 4.63883E-13
1.07092E-07 3.67761E-13
1.21847E-07 2.95269E-13
1.37554E-07 2.39910E-13
1.54213E-07 1.97079E-13
1.71823E-07 1.63572E-13
1.90386E-07 1.37098E-13
2.09900E-07 1.15933E-13
2.30367E-07 9.88227E-14
2.51785E-07 8.48499E-14
2.74156E-07 7.33310E-14
2.97478E-07 6.36908E-14
3.21752E-07 5.56080E-14
3.46978E-07 4.87875E-14
3.73156E-07 4.29936E-14
4.00286E-07 3.80411E-14
4.28368E-07 3.37735E-14
4.57402E-07 3.00818E-14
4.87388E-07 2.68760E-14
5.18325E-07 2.40804E-14
5.50215E-07 2.16333E-14
5.83057E-07 1.94841E-14
6.16850E-07 1.75876E-14
6.51596E-07 1.59134E-14
6.87293E-07 1.44321E-14
7.23942E-07 1.31180E-14
7.61543E-07 1.19492E-14
1.18991E-06 5.19014E-15
1.71347E-06 2.60696E-15
2.33223E-06 1.45175E-15
3.04617E-06 8.72066E-16
3.85531E-06 5.54985E-16
4.75964E-06 3.69664E-16
5.75916E-06 2.55514E-16
6.85388E-06 1.82132E-16
8.04378E-06 1.33250E-16
9.32888E-06 9.96904E-17
1.07092E-05 7.60445E-17
1.21846E-05 5.90036E-17
1.37553E-05 4.64755E-17
1.54212E-05 3.71009E-17
1.71822E-05 2.99745E-17
1.90385E-05 2.44700E-17
2.09899E-05 2.01898E-17
2.30365E-05 1.68039E-17
2.51783E-05 1.40961E-17
2.74153E-05 1.19101E-17
2.97475E-05 1.01307E-17
3.21749E-05 8.67150E-18
3.46974E-05 7.46635E-18
3.73152E-05 6.46416E-18
4.00281E-05 5.62517E-18
4.28362E-05 4.91821E-18
4.57395E-05 4.31886E-18
4.87380E-05 3.80788E-18
5.18317E-05 3.37004E-18
5.50205E-05 2.99317E-18
5.83045E-05 2.66744E-18
6.16838E-05 2.38482E-18
6.51582E-05 2.13871E-18
6.87277E-05 1.92358E-18
7.23925E-05 1.73487E-18
7.61524E-05 1.56881E-18
9.21439E-05 1.07354E-18
1.09658E-04 7.58993E-19
1.28695E-04 5.51616E-19
1.49255E-04 4.10367E-19
1.71338E-04 3.11546E-19
1.94942E-04 2.40720E-19
2.20070E-04 1.88903E-19
2.46720E-04 1.50293E-19
2.74892E-04 1.21049E-19
3.04586E-04 9.85762E-20
3.35803E-04 8.10772E-20
3.68542E-04 6.72896E-20
4.02802E-04 5.63080E-20
4.38585E-04 4.74746E-20
4.75889E-04 4.03050E-20
5.14715E-04 3.44370E-20
5.55063E-04 2.95974E-20
5.96931E-04 2.55774E-20
6.40321E-04 2.22163E-20
6.85233E-04 1.93886E-20
7.31665E-04 1.69959E-20
7.79618E-04 1.49606E-20
8.29092E-04 1.32204E-20
8.80086E-04 1.17255E-20
9.32601E-04 1.04357E-20
9.86636E-04 9.31803E-21
1.04219E-03 8.34577E-21
1.09927E-03 7.49680E-21
1.15786E-03 6.75283E-21
1.21797E-03 6.09868E-21
1.27961E-03 5.52169E-21
1.34276E-03 5.01117E-21
1.40743E-03 4.55816E-21
1.47362E-03 4.15507E-21
1.54133E-03 3.79546E-21
1.61056E-03 3.47382E-21
1.68131E-03 3.18544E-21
1.75357E-03 2.92629E-21
1.82735E-03 2.69289E-21
1.90265E-03 2.48224E-21
1.97947E-03 2.29172E-21
2.05780E-03 2.11907E-21
2.13765E-03 1.96234E-21
2.21902E-03 1.81978E-21
2.30190E-03 1.68989E-21
2.38630E-03 1.57135E-21
2.47222E-03 1.46299E-21
2.55965E-03 1.36378E-21
2.64859E-03 1.27280E-21
2.73905E-03 1.18926E-21
2.83103E-03 1.11244E-21
2.92452E-03 1.04170E-21
3.01952E-03 9.76464E-22
3.11604E-03 9.16241E-22
3.21407E-03 8.60573E-22
3.31362E-03 8.09051E-22
3.41468E-03 7.61310E-22
3.51725E-03 7.17026E-22
3.62133E-03 6.75902E-22
3.72692E-03 6.37670E-22
3.83403E-03 6.02092E-22
3.94265E-03 5.68950E-22
4.05278E-03 5.38047E-22
4.16442E-03 5.09203E-22
4.27757E-03 4.82258E-22
4.39223E-03 4.57064E-22
4.50840E-03 4.33485E-22
4.62608E-03 4.11399E-22
4.74527E-03 3.90695E-22
4.86597E-03 3.71272E-22
4.98817E-03 3.53032E-22
5.11188E-03 3.35895E-22
5.23711E-03 3.19779E-22
5.36383E-03 3.04612E-22
5.49207E-03 2.90330E-22
5.62181E-03 2.76870E-22
5.75306E-03 2.64177E-22
5.88581E-03 2.52198E-22
6.02007E-03 2.40887E-22
6.15583E-03 2.30199E-22
6.29310E-03 2.20094E-22
6.43187E-03 2.10534E-22
6.57214E-03 2.01484E-22
6.71392E-03 1.92912E-22
6.85720E-03 1.84789E-22
7.00198E-03 1.77086E-22
7.14827E-03 1.69777E-22
7.29605E-03 1.62839E-22
7.44534E-03 1.56250E-22
7.59612E-03 1.49988E-22
7.97965E-03 1.35644E-22
8.37255E-03 1.22963E-22
8.77480E-03 1.11721E-22
9.18641E-03 1.01725E-22
9.60736E-03 9.28151E-23
1.00376E-02 8.48525E-23
1.04773E-02 7.77194E-23
1.09262E-02 7.13146E-23
1.13844E-02 6.55509E-23
1.18520E-02 6.03525E-23
1.23288E-02 5.56550E-23
1.28150E-02 5.14018E-23
1.33104E-02 4.75436E-23
1.38150E-02 4.40374E-23
1.43290E-02 4.08455E-23
1.48521E-02 3.79348E-23
1.53845E-02 3.52763E-23
1.59262E-02 3.28443E-23
1.64770E-02 3.06161E-23
1.70371E-02 2.85717E-23
1.76063E-02 2.66933E-23
1.81848E-02 2.49651E-23
1.87724E-02 2.33729E-23
1.93692E-02 2.19041E-23
1.99751E-02 2.05476E-23
2.05901E-02 1.92932E-23
2.12143E-02 1.81319E-23
2.18476E-02 1.70555E-23
2.24900E-02 1.60568E-23
2.31415E-02 1.51292E-23
2.38021E-02 1.42668E-23
2.44717E-02 1.34640E-23
2.51504E-02 1.27162E-23
2.58382E-02 1.20188E-23
2.65349E-02 1.13679E-23
2.72407E-02 1.07598E-23
2.79555E-02 1.01913E-23
2.86793E-02 9.65917E-24
2.94120E-02 9.16081E-24
3.01537E-02 8.69367E-24
3.09043E-02 8.25546E-24
3.16639E-02 7.84405E-24
3.24324E-02 7.45752E-24
3.32098E-02 7.09411E-24
3.39961E-02 6.75218E-24
3.47912E-02 6.43025E-24
3.55952E-02 6.12693E-24
3.64081E-02 5.84096E-24
3.72297E-02 5.57117E-24
3.80602E-02 5.31649E-24
3.88995E-02 5.07592E-24
3.97476E-02 4.84854E-24
4.06044E-02 4.63350E-24
4.14700E-02 4.43001E-24
4.23443E-02 4.23735E-24
4.32273E-02 4.05483E-24
4.41190E-02 3.88182E-24
4.50194E-02 3.71775E-24
4.59284E-02 3.56208E-24
4.68461E-02 3.41428E-24
4.87074E-02 3.14051E-24
5.06030E-02 2.89305E-24
5.25328E-02 2.66895E-24
5.44967E-02 2.46565E-24
5.64946E-02 2.28089E-24
5.85262E-02 2.11270E-24
6.05914E-02 1.95935E-24
6.26901E-02 1.81932E-24
6.48222E-02 1.69125E-24
6.69873E-02 1.57396E-24
6.91854E-02 1.46639E-24
7.14163E-02 1.36759E-24
7.36799E-02 1.27675E-24
7.59760E-02 1.19310E-24
7.83043E-02 1.11599E-24
8.06647E-02 1.04482E-24
8.30571E-02 9.79056E-25
8.54812E-02 9.18223E-25
8.79369E-02 8.61889E-25
9.04240E-02 8.09667E-25
9.29422E-02 7.61207E-25
9.54915E-02 7.16195E-25
9.80716E-02 6.74344E-25
1.00682E-01 6.35396E-25
1.03323E-01 5.99118E-25
1.05995E-01 5.65295E-25
1.08696E-01 5.33736E-25
1.11427E-01 5.04264E-25
1.14188E-01 4.76718E-25
1.16978E-01 4.50952E-25
1.19797E-01 4.26833E-25
1.22645E-01 4.04239E-25
1.25522E-01 3.83057E-25
1.28428E-01 3.63185E-25
1.31361E-01 3.44529E-25
1.34323E-01 3.27002E-25
1.37313E-01 3.10526E-25
1.40330E-01 2.95028E-25
1.43375E-01 2.80439E-25
1.46447E-01 2.66699E-25
1.49545E-01 2.53750E-25
1.52671E-01 2.41539E-25
1.55823E-01 2.30017E-25
1.59001E-01 2.19140E-25
1.62205E-01 2.08866E-25
1.65435E-01 1.99156E-25
1.68690E-01 1.89975E-25
1.71970E-01 1.81288E-25
1.75276E-01 1.73066E-25
1.78606E-01 1.65279E-25
1.81961E-01 1.57901E-25
1.85340E-01 1.50908E-25
1.88743E-01 1.44275E-25
1.92169E-01 1.37982E-25
1.95619E-01 1.32008E-25
1.99092E-01 1.26335E-25
2.02589E-01 1.20946E-25
2.06107E-01 1.15824E-25
2.09649E-01 1.10953E-25
2.13212E-01 1.06320E-25
2.16797E-01 1.01911E-25
2.20404E-01 9.77139E-26
2.24032E-01 9.37168E-26
2.27680E-01 8.99088E-26
2.31350E-01 8.62797E-26
2.35040E-01 8.28196E-26
2.38751E-01 7.95197E-26
2.42481E-01 7.63714E-26
2.46231E-01 7.33667E-26
2.50000E-01 7.04980E-26
2.53788E-01 6.77585E-26
2.57595E-01 6.51413E-26
2.61421E-01 6.26402E-26
2.65264E-01 6.02493E-26
2.69126E-01 5.79631E-26
2.73005E-01 5.57764E-26
2.76901E-01 5.36840E-26
2.80814E-01 5.16815E-26
2.84744E-01 4.97645E-26
2.88691E-01 4.79286E-26
2.92653E-01 4.61701E-26
2.96632E-01 4.44851E-26
3.00625E-01 4.28703E-26
3.04634E-01 4.13221E-26
3.08658E-01 3.98377E-26
3.12697E-01 3.84138E-26
3.16749E-01 3.70478E-26
3.20816E-01 3.57369E-26
3.24896E-01 3.44786E-26
3.28990E-01 3.32705E-26
3.33097E-01 3.21103E-26
3.37216E-01 3.09959E-26
3.41348E-01 2.99252E-26
3.45492E-01 2.88963E-26
3.49647E-01 2.79074E-26
3.53814E-01 2.69565E-26
3.57992E-01 2.60422E-26
3.62181E-01 2.51628E-26
3.66381E-01 2.43168E-26
3.70590E-01 2.35027E-26
3.74810E-01 2.27192E-26
3.79039E-01 2.19650E-26
3.83277E-01 2.12389E-26
3.87524E-01 2.05396E-26
3.91780E-01 1.98661E-26
3.96044E-01 1.92173E-26
4.00316E-01 1.85921E-26
4.04596E-01 1.79896E-26
4.08882E-01 1.74089E-26
4.13176E-01 1.68490E-26
4.17476E-01 1.63091E-26
4.21783E-01 1.57885E-26
4.26095E-01 1.52863E-26
4.30413E-01 1.48018E-26
4.34737E-01 1.43344E-26
4.39065E-01 1.38833E-26
4.43398E-01 1.34478E-26
4.47736E-01 1.30275E-26
4.52077E-01 1.26216E-26
4.56422E-01 1.22297E-26
4.60770E-01 1.18511E-26
4.65122E-01 1.14855E-26
4.69476E-01 1.11322E-26
4.73832E-01 1.07909E-26
4.78190E-01 1.04610E-26
4.82550E-01 1.01422E-26
4.86912E-01 9.83398E-27
4.91274E-01 9.53600E-27
4.95637E-01 9.24787E-27
5.00000E-01 8.96923E-27
5.04363E-01 8.69972E-27
5.08726E-01 8.43901E-27
5.13088E-01 8.18679E-27
5.17450E-01 7.94274E-27
5.21810E-01 7.70656E-27
5.26168E-01 7.47798E-27
5.30524E-01 7.25672E-27
5.34878E-01 7.04252E-27
5.39230E-01 6.83514E-27
5.43578E-01 6.63432E-27
5.47923E-01 6.43983E-27
5.52264E-01 6.25147E-27
5.56602E-01 6.06900E-27
5.60935E-01 5.89223E-27
5.65263E-01 5.72096E-27
5.69587E-01 5.55500E-27
5.73905E-01 5.39417E-27
5.78217E-01 5.23828E-27
5.82524E-01 5.08718E-27
5.86824E-01 4.94070E-27
5.91118E-01 4.79868E-27
5.95404E-01 4.66097E-27
5.99684E-01 4.52743E-27
6.03956E-01 4.39792E-27
6.08220E-01 4.27230E-27
6.12476E-01 4.15045E-27
6.16723E-01 4.03224E-27
6.20961E-01 3.91755E-27
6.25190E-01 3.80626E-27
6.29410E-01 3.69827E-27
6.33619E-01 3.59346E-27
6.37819E-01 3.49173E-27
6.42008E-01 3.39299E-27
6.46186E-01 3.29713E-27
6.50353E-01 3.20407E-27
6.54508E-01 3.11371E-27
6.58652E-01 3.02597E-27
6.62784E-01 2.94077E-27
6.66903E-01 2.85801E-27
6.71010E-01 2.77764E-27
6.75104E-01 2.69957E-27
6.79184E-01 2.62373E-27
6.83251E-01 2.55004E-27
6.87303E-01 2.47845E-27
6.91342E-01 2.40889E-27
6.95366E-01 2.34130E-27
6.99375E-01 2.27561E-27
7.03368E-01 2.21176E-27
7.07347E-01 2.14971E-27
7.11309E-01 2.08939E-27
7.15256E-01 2.03075E-27
7.19186E-01 1.97374E-27
7.23099E-01 1.91832E-27
7.26995E-01 1.86443E-27
7.30874E-01 1.81203E-27
7.34736E-01 1.76107E-27
7.38579E-01 1.71151E-27
7.42405E-01 1.66331E-27
7.46212E-01 1.61643E-27
7.50000E-01 1.57083E-27
7.53769E-01 1.52647E-27
7.57519E-01 1.48332E-27
7.61249E-01 1.44134E-27
7.64960E-01 1.40049E-27
7.68650E-01 1.36075E-27
7.72320E-01 1.32208E-27
7.75968E-01 1.28444E-27
7.79596E-01 1.24782E-27
7.83203E-01 1.21218E-27
7.86788E-01 1.17750E-27
7.90351E-01 1.14373E-27
7.93893E-01 1.11087E-27
7.97411E-01 1.07889E-27
8.00908E-01 1.04775E-27
8.04381E-01 1.01744E-27
8.07831E-01 9.87927E-28
8.11257E-01 9.59197E-28
8.14660E-01 9.31225E-28
8.18039E-01 9.03991E-28
8.21394E-01 8.77473E-28
8.24724E-01 8.51652E-28
8.28030E-01 8.26509E-28
8.31310E-01 8.02025E-28
8.34565E-01 7.78182E-28
8.37795E-01 7.54963E-28
8.40999E-01 7.32350E-28
8.44177E-01 7.10328E-28
8.47329E-01 6.88881E-28
8.50455E-01 6.67992E-28
8.53553E-01 6.47647E-28
8.56625E-01 6.27832E-28
8.59670E-01 6.08532E-28
8.62687E-01 5.89734E-28
8.65677E-01 5.71425E-28
8.68639E-01 5.53591E-28
8.71572E-01 5.36221E-28
8.74478E-01 5.19302E-28
8.77355E-01 5.02822E-28
8.80203E-01 4.86771E-28
8.83022E-01 4.71137E-28
8.85812E-01 4.55909E-28
8.88573E-01 4.41077E-28
8.91304E-01 4.26631E-28
8.94005E-01 4.12561E-28
8.96677E-01 3.98858E-28
8.99318E-01 3.85512E-28
9.01928E-01 3.72515E-28
9.04508E-01 3.59858E-28
9.07058E-01 3.47533E-28
9.09576E-01 3.35531E-28
9.12063E-01 3.23845E-28
9.14519E-01 3.12466E-28
9.16943E-01 3.01388E-28
9.19335E-01 2.90602E-28
9.21696E-01 2.80104E-28
9.24024E-01 2.69884E-28
9.26320E-01 2.59937E-28
9.28584E-01 2.50257E-28
9.30815E-01 2.40836E-28
9.33013E-01 2.31670E-28
9.35178E-01 2.22752E-28
9.37310E-01 2.14077E-28
9.39409E-01 2.05639E-28
9.41474E-01 1.97432E-28
9.43505E-01 1.89453E-28
9.45503E-01 1.81694E-28
9.47467E-01 1.74153E-28
9.49397E-01 1.66824E-28
9.51293E-01 1.59702E-28
9.53154E-01 1.52784E-28
9.54981E-01 1.46064E-28
9.56773E-01 1.39539E-28
9.58530E-01 1.33205E-28
9.60252E-01 1.27057E-28
9.61940E-01 1.21093E-28
9.63592E-01 1.15307E-28
9.65209E-01 1.09698E-28
9.66790E-01 1.04261E-28
9.68336E-01 9.89934E-29
9.69846E-01 9.38916E-29
9.71321E-01 8.89526E-29
9.72759E-01 8.41736E-29
9.74162E-01 7.95516E-29
9.75528E-01 7.50839E-29
9.76858E-01 7.07677E-29
9.78152E-01 6.66006E-29
9.79410E-01 6.25800E-29
9.80631E-01 5.87035E-29
9.81815E-01 5.49688E-29
9.82963E-01 5.13738E-29
9.84074E-01 4.79162E-29
9.85148E-01 4.45941E-29
9.86185E-01 4.14055E-29
9.87185E-01 3.83485E-29
9.88148E-01 3.54213E-29
9.89074E-01 3.26222E-29
9.89962E-01 2.99495E-29
9.90814E-01 2.74017E-29
9.91627E-01 2.49774E-29
9.92404E-01 2.26750E-29
9.93143E-01 2.04932E-29
9.93844E-01 1.84308E-29
9.94508E-01 1.64866E-29
9.95134E-01 1.46594E-29
9.95722E-01 1.29482E-29
9.96273E-01 1.13520E-29
9.96786E-01 9.86987E-30
9.97261E-01 8.50091E-30
9.97698E-01 7.24436E-30
9.98097E-01 6.09949E-30
9.98459E-01 5.06563E-30
9.98782E-01 4.14220E-30
9.99067E-01 3.32866E-30
9.99315E-01 2.62453E-30
9.99524E-01 2.02942E-30
9.99695E-01 1.54298E-30
9.99829E-01 1.16493E-30
9.99924E-01 8.95044E-31
9.99981E-01 7.33177E-31
1.00000E+00 6.79228E-31
