 #
 # Subroutine ELSEPA. Elastic scattering of electrons and positrons
 #                    by neutral atoms and positive ions
 #
 # Projectile: positron
 # Kinetic energy = 1.75000E+06 eV = 6.43113E+04 a.u.
 #
 # WARNING: High-energy factorization with free-atom DF screening.
 #          Absorption, polarization and exchange corrections are
 #          switched off.
 #          Phase shifts are calculated for the bare nucleus.
 #          Scattering amplitudes are not evaluated.
 #
 # Element: Pm,  Z =  61,  atomic weight = 1.44913E+02 g/mol
 #
 # Nuclear model: Fermi distribution
 #                Average radius = 5.62021E-13 cm
 #                Skin thickness = 5.46000E-14 cm
 #
 # Number of electrons = 61
 #
 # Total elastic cross section = 7.62093E-18 cm**2 = 2.72148E-01 a0**2
 # 1st transport cross section = 8.30197E-22 cm**2 = 2.96469E-05 a0**2
 # 2nd transport cross section = 2.35897E-21 cm**2 = 8.42402E-05 a0**2
 #
 #
 # Differential cross section:                       MU=(1-COS(THETA))/2
 #
 #  THETA        MU          DCS          DCS        Sherman      error
 #  (deg)                 (cm**2/sr)   (a0**2/sr)    function
 #----------------------------------------------------------------------
0.00000E+00 4.97130E-13
7.61557E-13 4.97128E-13
1.18994E-12 4.97128E-13
1.71346E-12 4.97127E-13
2.33225E-12 4.97125E-13
3.04617E-12 4.97124E-13
3.85530E-12 4.97123E-13
4.75964E-12 4.97121E-13
5.75917E-12 4.97119E-13
6.85391E-12 4.97117E-13
8.04379E-12 4.97115E-13
9.32893E-12 4.97113E-13
1.07092E-11 4.97110E-13
1.21847E-11 4.97108E-13
1.37554E-11 4.97105E-13
1.54213E-11 4.97102E-13
1.71823E-11 4.97099E-13
1.90386E-11 4.97096E-13
2.09900E-11 4.97092E-13
2.30367E-11 4.97089E-13
2.51785E-11 4.97085E-13
2.74156E-11 4.97081E-13
2.97478E-11 4.97077E-13
3.21752E-11 4.97073E-13
3.46979E-11 4.97069E-13
3.73157E-11 4.97064E-13
4.00286E-11 4.97060E-13
4.28368E-11 4.97055E-13
4.57402E-11 4.97050E-13
4.87388E-11 4.97045E-13
5.18325E-11 4.97039E-13
5.50215E-11 4.97034E-13
5.83057E-11 4.97028E-13
6.16850E-11 4.97023E-13
6.51595E-11 4.97017E-13
6.87293E-11 4.97011E-13
7.23943E-11 4.97004E-13
7.61544E-11 4.96998E-13
1.18991E-10 4.96925E-13
1.71347E-10 4.96836E-13
2.33223E-10 4.96732E-13
3.04617E-10 4.96611E-13
3.85531E-10 4.96475E-13
4.75965E-10 4.96323E-13
5.75917E-10 4.96155E-13
6.85389E-10 4.95972E-13
8.04380E-10 4.95772E-13
9.32891E-10 4.95557E-13
1.07092E-09 4.95326E-13
1.21847E-09 4.95080E-13
1.37554E-09 4.94818E-13
1.54213E-09 4.94540E-13
1.71823E-09 4.94247E-13
1.90386E-09 4.93938E-13
2.09900E-09 4.93614E-13
2.30367E-09 4.93275E-13
2.51785E-09 4.92920E-13
2.74156E-09 4.92550E-13
2.97478E-09 4.92165E-13
3.21752E-09 4.91765E-13
3.46978E-09 4.91349E-13
3.73156E-09 4.90919E-13
4.00286E-09 4.90474E-13
4.28368E-09 4.90013E-13
4.57402E-09 4.89538E-13
4.87388E-09 4.89048E-13
5.18326E-09 4.88544E-13
5.50215E-09 4.88025E-13
5.83057E-09 4.87491E-13
6.16850E-09 4.86943E-13
6.51596E-09 4.86380E-13
6.87293E-09 4.85804E-13
7.23942E-09 4.85213E-13
7.61544E-09 4.84608E-13
1.18991E-08 4.77803E-13
1.71347E-08 4.69700E-13
2.33223E-08 4.60414E-13
3.04617E-08 4.50074E-13
3.85531E-08 4.38815E-13
4.75965E-08 4.26785E-13
5.75917E-08 4.14212E-13
6.85389E-08 4.01016E-13
8.04380E-08 3.87522E-13
9.32891E-08 3.73817E-13
1.07092E-07 3.59858E-13
1.21847E-07 3.46147E-13
1.37554E-07 3.32349E-13
1.54213E-07 3.18821E-13
1.71823E-07 3.05569E-13
1.90386E-07 2.92479E-13
2.09900E-07 2.80025E-13
2.30367E-07 2.67788E-13
2.51785E-07 2.56080E-13
2.74156E-07 2.44847E-13
2.97478E-07 2.33951E-13
3.21752E-07 2.23761E-13
3.46978E-07 2.13888E-13
3.73156E-07 2.04567E-13
4.00286E-07 1.95719E-13
4.28368E-07 1.87226E-13
4.57402E-07 1.79334E-13
4.87388E-07 1.71748E-13
5.18325E-07 1.64623E-13
5.50215E-07 1.57885E-13
5.83057E-07 1.51452E-13
6.16850E-07 1.45466E-13
6.51596E-07 1.39735E-13
6.87293E-07 1.34348E-13
7.23942E-07 1.29251E-13
7.61543E-07 1.24394E-13
1.18991E-06 8.77815E-14
1.71347E-06 6.47892E-14
2.33223E-06 4.91259E-14
3.04617E-06 3.78655E-14
3.85531E-06 2.95367E-14
4.75964E-06 2.32718E-14
5.75916E-06 1.83361E-14
6.85388E-06 1.48429E-14
8.04378E-06 1.21001E-14
9.32888E-06 9.93414E-15
1.07092E-05 8.30185E-15
1.21846E-05 6.91857E-15
1.37553E-05 5.85343E-15
1.54212E-05 4.97509E-15
1.71822E-05 4.25075E-15
1.90385E-05 3.66785E-15
2.09899E-05 3.16090E-15
2.30365E-05 2.74902E-15
2.51783E-05 2.39583E-15
2.74153E-05 2.09446E-15
2.97475E-05 1.84280E-15
3.21749E-05 1.61994E-15
3.46974E-05 1.43301E-15
3.73152E-05 1.27054E-15
4.00281E-05 1.12987E-15
4.28362E-05 1.00942E-15
4.57395E-05 9.02562E-16
4.87380E-05 8.10517E-16
5.18317E-05 7.29506E-16
5.50205E-05 6.58354E-16
5.83045E-05 5.96163E-16
6.16838E-05 5.40749E-16
6.51582E-05 4.92112E-16
6.87277E-05 4.48838E-16
7.23925E-05 4.10360E-16
7.61524E-05 3.76177E-16
9.21439E-05 2.70839E-16
1.09658E-04 2.00781E-16
1.28695E-04 1.52368E-16
1.49255E-04 1.17769E-16
1.71338E-04 9.25566E-17
1.94942E-04 7.37008E-17
2.20070E-04 5.93654E-17
2.46720E-04 4.82990E-17
2.74892E-04 3.96467E-17
3.04586E-04 3.28321E-17
3.35803E-04 2.74048E-17
3.68542E-04 2.30472E-17
4.02802E-04 1.95168E-17
4.38585E-04 1.66313E-17
4.75889E-04 1.42582E-17
5.14715E-04 1.22873E-17
5.55063E-04 1.06546E-17
5.96931E-04 9.28209E-18
6.40321E-04 8.12350E-18
6.85233E-04 7.14396E-18
7.31665E-04 6.30344E-18
7.79618E-04 5.58603E-18
8.29092E-04 4.96708E-18
8.80086E-04 4.43169E-18
9.32601E-04 3.96783E-18
9.86636E-04 3.56139E-18
1.04219E-03 3.20686E-18
1.09927E-03 2.89489E-18
1.15786E-03 2.61995E-18
1.21797E-03 2.37738E-18
1.27961E-03 2.16143E-18
1.34276E-03 1.96996E-18
1.40743E-03 1.79892E-18
1.47362E-03 1.64600E-18
1.54133E-03 1.50919E-18
1.61056E-03 1.38590E-18
1.68131E-03 1.27517E-18
1.75357E-03 1.17508E-18
1.82735E-03 1.08460E-18
1.90265E-03 1.00274E-18
1.97947E-03 9.28244E-19
2.05780E-03 8.60645E-19
2.13765E-03 7.98977E-19
2.21902E-03 7.42717E-19
2.30190E-03 6.91354E-19
2.38630E-03 6.44237E-19
2.47222E-03 6.01117E-19
2.55965E-03 5.61481E-19
2.64859E-03 5.25048E-19
2.73905E-03 4.91535E-19
2.83103E-03 4.60587E-19
2.92452E-03 4.32064E-19
3.01952E-03 4.05676E-19
3.11604E-03 3.81266E-19
3.21407E-03 3.58669E-19
3.31362E-03 3.37684E-19
3.41468E-03 3.18226E-19
3.51725E-03 3.00125E-19
3.62133E-03 2.83290E-19
3.72692E-03 2.67621E-19
3.83403E-03 2.52998E-19
3.94265E-03 2.39368E-19
4.05278E-03 2.26629E-19
4.16442E-03 2.14724E-19
4.27757E-03 2.03591E-19
4.39223E-03 1.93157E-19
4.50840E-03 1.83388E-19
4.62608E-03 1.74219E-19
4.74527E-03 1.65614E-19
4.86597E-03 1.57534E-19
4.98817E-03 1.49933E-19
5.11188E-03 1.42788E-19
5.23711E-03 1.36057E-19
5.36383E-03 1.29717E-19
5.49207E-03 1.23741E-19
5.62181E-03 1.18101E-19
5.75306E-03 1.12780E-19
5.88581E-03 1.07751E-19
6.02007E-03 1.02999E-19
6.15583E-03 9.85057E-20
6.29310E-03 9.42513E-20
6.43187E-03 9.02249E-20
6.57214E-03 8.64086E-20
6.71392E-03 8.27914E-20
6.85720E-03 7.93612E-20
7.00198E-03 7.61046E-20
7.14827E-03 7.30138E-20
7.29605E-03 7.00764E-20
7.44534E-03 6.72849E-20
7.59612E-03 6.46307E-20
7.97965E-03 5.85422E-20
8.37255E-03 5.31506E-20
8.77480E-03 4.83625E-20
9.18641E-03 4.40990E-20
9.60736E-03 4.02928E-20
1.00376E-02 3.68863E-20
1.04773E-02 3.38305E-20
1.09262E-02 3.10830E-20
1.13844E-02 2.86073E-20
1.18520E-02 2.63719E-20
1.23288E-02 2.43494E-20
1.28150E-02 2.25159E-20
1.33104E-02 2.08509E-20
1.38150E-02 1.93359E-20
1.43290E-02 1.79553E-20
1.48521E-02 1.66949E-20
1.53845E-02 1.55425E-20
1.59262E-02 1.44872E-20
1.64770E-02 1.35193E-20
1.70371E-02 1.26304E-20
1.76063E-02 1.18128E-20
1.81848E-02 1.10598E-20
1.87724E-02 1.03655E-20
1.93692E-02 9.72436E-21
1.99751E-02 9.13169E-21
2.05901E-02 8.58313E-21
2.12143E-02 8.07482E-21
2.18476E-02 7.60330E-21
2.24900E-02 7.16540E-21
2.31415E-02 6.75832E-21
2.38021E-02 6.37951E-21
2.44717E-02 6.02662E-21
2.51504E-02 5.69761E-21
2.58382E-02 5.39054E-21
2.65349E-02 5.10368E-21
2.72407E-02 4.83550E-21
2.79555E-02 4.58453E-21
2.86793E-02 4.34948E-21
2.94120E-02 4.12917E-21
3.01537E-02 3.92249E-21
3.09043E-02 3.72846E-21
3.16639E-02 3.54616E-21
3.24324E-02 3.37476E-21
3.32098E-02 3.21348E-21
3.39961E-02 3.06163E-21
3.47912E-02 2.91855E-21
3.55952E-02 2.78364E-21
3.64081E-02 2.65636E-21
3.72297E-02 2.53619E-21
3.80602E-02 2.42267E-21
3.88995E-02 2.31536E-21
3.97476E-02 2.21386E-21
4.06044E-02 2.11780E-21
4.14700E-02 2.02684E-21
4.23443E-02 1.94065E-21
4.32273E-02 1.85894E-21
4.41190E-02 1.78144E-21
4.50194E-02 1.70789E-21
4.59284E-02 1.63805E-21
4.68461E-02 1.57171E-21
4.87074E-02 1.44867E-21
5.06030E-02 1.33731E-21
5.25328E-02 1.23632E-21
5.44967E-02 1.14458E-21
5.64946E-02 1.06108E-21
5.85262E-02 9.84971E-22
6.05914E-02 9.15480E-22
6.26901E-02 8.51933E-22
6.48222E-02 7.93734E-22
6.69873E-02 7.40354E-22
6.91854E-02 6.91329E-22
7.14163E-02 6.46241E-22
7.36799E-02 6.04720E-22
7.59760E-02 5.66433E-22
7.83043E-02 5.31086E-22
8.06647E-02 4.98415E-22
8.30571E-02 4.68182E-22
8.54812E-02 4.40173E-22
8.79369E-02 4.14196E-22
9.04240E-02 3.90078E-22
9.29422E-02 3.67664E-22
9.54915E-02 3.46812E-22
9.80716E-02 3.27393E-22
1.00682E-01 3.09293E-22
1.03323E-01 2.92407E-22
1.05995E-01 2.76639E-22
1.08696E-01 2.61901E-22
1.11427E-01 2.48116E-22
1.14188E-01 2.35210E-22
1.16978E-01 2.23118E-22
1.19797E-01 2.11779E-22
1.22645E-01 2.01139E-22
1.25522E-01 1.91147E-22
1.28428E-01 1.81756E-22
1.31361E-01 1.72924E-22
1.34323E-01 1.64612E-22
1.37313E-01 1.56784E-22
1.40330E-01 1.49407E-22
1.43375E-01 1.42450E-22
1.46447E-01 1.35885E-22
1.49545E-01 1.29687E-22
1.52671E-01 1.23831E-22
1.55823E-01 1.18295E-22
1.59001E-01 1.13058E-22
1.62205E-01 1.08102E-22
1.65435E-01 1.03408E-22
1.68690E-01 9.89612E-23
1.71970E-01 9.47453E-23
1.75276E-01 9.07467E-23
1.78606E-01 8.69520E-23
1.81961E-01 8.33490E-23
1.85340E-01 7.99263E-23
1.88743E-01 7.66735E-23
1.92169E-01 7.35805E-23
1.95619E-01 7.06381E-23
1.99092E-01 6.78377E-23
2.02589E-01 6.51712E-23
2.06107E-01 6.26312E-23
2.09649E-01 6.02106E-23
2.13212E-01 5.79028E-23
2.16797E-01 5.57015E-23
2.20404E-01 5.36011E-23
2.24032E-01 5.15961E-23
2.27680E-01 4.96814E-23
2.31350E-01 4.78523E-23
2.35040E-01 4.61041E-23
2.38751E-01 4.44328E-23
2.42481E-01 4.28344E-23
2.46231E-01 4.13051E-23
2.50000E-01 3.98414E-23
2.53788E-01 3.84400E-23
2.57595E-01 3.70979E-23
2.61421E-01 3.58120E-23
2.65264E-01 3.45795E-23
2.69126E-01 3.33980E-23
2.73005E-01 3.22649E-23
2.76901E-01 3.11778E-23
2.80814E-01 3.01346E-23
2.84744E-01 2.91333E-23
2.88691E-01 2.81717E-23
2.92653E-01 2.72481E-23
2.96632E-01 2.63608E-23
3.00625E-01 2.55080E-23
3.04634E-01 2.46881E-23
3.08658E-01 2.38998E-23
3.12697E-01 2.31414E-23
3.16749E-01 2.24118E-23
3.20816E-01 2.17097E-23
3.24896E-01 2.10337E-23
3.28990E-01 2.03829E-23
3.33097E-01 1.97560E-23
3.37216E-01 1.91520E-23
3.41348E-01 1.85701E-23
3.45492E-01 1.80091E-23
3.49647E-01 1.74683E-23
3.53814E-01 1.69468E-23
3.57992E-01 1.64438E-23
3.62181E-01 1.59584E-23
3.66381E-01 1.54901E-23
3.70590E-01 1.50380E-23
3.74810E-01 1.46016E-23
3.79039E-01 1.41801E-23
3.83277E-01 1.37731E-23
3.87524E-01 1.33798E-23
3.91780E-01 1.29998E-23
3.96044E-01 1.26326E-23
4.00316E-01 1.22776E-23
4.04596E-01 1.19343E-23
4.08882E-01 1.16024E-23
4.13176E-01 1.12813E-23
4.17476E-01 1.09706E-23
4.21783E-01 1.06701E-23
4.26095E-01 1.03792E-23
4.30413E-01 1.00976E-23
4.34737E-01 9.82496E-24
4.39065E-01 9.56096E-24
4.43398E-01 9.30527E-24
4.47736E-01 9.05758E-24
4.52077E-01 8.81760E-24
4.56422E-01 8.58505E-24
4.60770E-01 8.35966E-24
4.65122E-01 8.14117E-24
4.69476E-01 7.92934E-24
4.73832E-01 7.72393E-24
4.78190E-01 7.52471E-24
4.82550E-01 7.33146E-24
4.86912E-01 7.14398E-24
4.91274E-01 6.96206E-24
4.95637E-01 6.78552E-24
5.00000E-01 6.61416E-24
5.04363E-01 6.44782E-24
5.08726E-01 6.28631E-24
5.13088E-01 6.12947E-24
5.17450E-01 5.97716E-24
5.21810E-01 5.82921E-24
5.26168E-01 5.68548E-24
5.30524E-01 5.54583E-24
5.34878E-01 5.41013E-24
5.39230E-01 5.27824E-24
5.43578E-01 5.15005E-24
5.47923E-01 5.02542E-24
5.52264E-01 4.90425E-24
5.56602E-01 4.78643E-24
5.60935E-01 4.67184E-24
5.65263E-01 4.56039E-24
5.69587E-01 4.45196E-24
5.73905E-01 4.34648E-24
5.78217E-01 4.24385E-24
5.82524E-01 4.14397E-24
5.86824E-01 4.04676E-24
5.91118E-01 3.95214E-24
5.95404E-01 3.86003E-24
5.99684E-01 3.77036E-24
6.03956E-01 3.68304E-24
6.08220E-01 3.59801E-24
6.12476E-01 3.51519E-24
6.16723E-01 3.43453E-24
6.20961E-01 3.35595E-24
6.25190E-01 3.27940E-24
6.29410E-01 3.20481E-24
6.33619E-01 3.13212E-24
6.37819E-01 3.06129E-24
6.42008E-01 2.99226E-24
6.46186E-01 2.92496E-24
6.50353E-01 2.85936E-24
6.54508E-01 2.79541E-24
6.58652E-01 2.73305E-24
6.62784E-01 2.67225E-24
6.66903E-01 2.61295E-24
6.71010E-01 2.55511E-24
6.75104E-01 2.49870E-24
6.79184E-01 2.44368E-24
6.83251E-01 2.38999E-24
6.87303E-01 2.33762E-24
6.91342E-01 2.28651E-24
6.95366E-01 2.23664E-24
6.99375E-01 2.18798E-24
7.03368E-01 2.14048E-24
7.07347E-01 2.09412E-24
7.11309E-01 2.04887E-24
7.15256E-01 2.00469E-24
7.19186E-01 1.96157E-24
7.23099E-01 1.91946E-24
7.26995E-01 1.87835E-24
7.30874E-01 1.83820E-24
7.34736E-01 1.79899E-24
7.38579E-01 1.76070E-24
7.42405E-01 1.72331E-24
7.46212E-01 1.68678E-24
7.50000E-01 1.65110E-24
7.53769E-01 1.61624E-24
7.57519E-01 1.58219E-24
7.61249E-01 1.54892E-24
7.64960E-01 1.51642E-24
7.68650E-01 1.48466E-24
7.72320E-01 1.45363E-24
7.75968E-01 1.42330E-24
7.79596E-01 1.39366E-24
7.83203E-01 1.36470E-24
7.86788E-01 1.33639E-24
7.90351E-01 1.30872E-24
7.93893E-01 1.28167E-24
7.97411E-01 1.25524E-24
8.00908E-01 1.22940E-24
8.04381E-01 1.20413E-24
8.07831E-01 1.17944E-24
8.11257E-01 1.15529E-24
8.14660E-01 1.13169E-24
8.18039E-01 1.10861E-24
8.21394E-01 1.08605E-24
8.24724E-01 1.06398E-24
8.28030E-01 1.04241E-24
8.31310E-01 1.02132E-24
8.34565E-01 1.00069E-24
8.37795E-01 9.80524E-25
8.40999E-01 9.60802E-25
8.44177E-01 9.41517E-25
8.47329E-01 9.22659E-25
8.50455E-01 9.04217E-25
8.53553E-01 8.86184E-25
8.56625E-01 8.68549E-25
8.59670E-01 8.51305E-25
8.62687E-01 8.34441E-25
8.65677E-01 8.17951E-25
8.68639E-01 8.01825E-25
8.71572E-01 7.86057E-25
8.74478E-01 7.70638E-25
8.77355E-01 7.55561E-25
8.80203E-01 7.40818E-25
8.83022E-01 7.26404E-25
8.85812E-01 7.12310E-25
8.88573E-01 6.98530E-25
8.91304E-01 6.85058E-25
8.94005E-01 6.71887E-25
8.96677E-01 6.59012E-25
8.99318E-01 6.46425E-25
9.01928E-01 6.34122E-25
9.04508E-01 6.22097E-25
9.07058E-01 6.10344E-25
9.09576E-01 5.98858E-25
9.12063E-01 5.87634E-25
9.14519E-01 5.76667E-25
9.16943E-01 5.65951E-25
9.19335E-01 5.55482E-25
9.21696E-01 5.45256E-25
9.24024E-01 5.35268E-25
9.26320E-01 5.25513E-25
9.28584E-01 5.15987E-25
9.30815E-01 5.06686E-25
9.33013E-01 4.97607E-25
9.35178E-01 4.88744E-25
9.37310E-01 4.80094E-25
9.39409E-01 4.71654E-25
9.41474E-01 4.63420E-25
9.43505E-01 4.55389E-25
9.45503E-01 4.47556E-25
9.47467E-01 4.39919E-25
9.49397E-01 4.32475E-25
9.51293E-01 4.25220E-25
9.53154E-01 4.18151E-25
9.54981E-01 4.11266E-25
9.56773E-01 4.04561E-25
9.58530E-01 3.98034E-25
9.60252E-01 3.91682E-25
9.61940E-01 3.85503E-25
9.63592E-01 3.79493E-25
9.65209E-01 3.73651E-25
9.66790E-01 3.67974E-25
9.68336E-01 3.62460E-25
9.69846E-01 3.57107E-25
9.71321E-01 3.51912E-25
9.72759E-01 3.46873E-25
9.74162E-01 3.41989E-25
9.75528E-01 3.37257E-25
9.76858E-01 3.32675E-25
9.78152E-01 3.28242E-25
9.79410E-01 3.23956E-25
9.80631E-01 3.19816E-25
9.81815E-01 3.15819E-25
9.82963E-01 3.11963E-25
9.84074E-01 3.08249E-25
9.85148E-01 3.04673E-25
9.86185E-01 3.01235E-25
9.87185E-01 2.97934E-25
9.88148E-01 2.94767E-25
9.89074E-01 2.91734E-25
9.89962E-01 2.88834E-25
9.90814E-01 2.86065E-25
9.91627E-01 2.83427E-25
9.92404E-01 2.80918E-25
9.93143E-01 2.78537E-25
9.93844E-01 2.76284E-25
9.94508E-01 2.74157E-25
9.95134E-01 2.72157E-25
9.95722E-01 2.70281E-25
9.96273E-01 2.68530E-25
9.96786E-01 2.66902E-25
9.97261E-01 2.65398E-25
9.97698E-01 2.64016E-25
9.98097E-01 2.62756E-25
9.98459E-01 2.61617E-25
9.98782E-01 2.60599E-25
9.99067E-01 2.59702E-25
9.99315E-01 2.58925E-25
9.99524E-01 2.58269E-25
9.99695E-01 2.57732E-25
9.99829E-01 2.57314E-25
9.99924E-01 2.57016E-25
9.99981E-01 2.56837E-25
1.00000E+00 2.56778E-25
