 #
 # Subroutine ELSEPA. Elastic scattering of electrons and positrons
 #                    by neutral atoms and positive ions
 #
 # Projectile: positron
 # Kinetic energy = 2.50000E+07 eV = 9.18733E+05 a.u.
 #
 # WARNING: High-energy factorization with free-atom DF screening.
 #          Absorption, polarization and exchange corrections are
 #          switched off.
 #          Phase shifts are calculated for the bare nucleus.
 #          Scattering amplitudes are not evaluated.
 #
 # Element: Pm,  Z =  61,  atomic weight = 1.44913E+02 g/mol
 #
 # Nuclear model: Fermi distribution
 #                Average radius = 5.62021E-13 cm
 #                Skin thickness = 5.46000E-14 cm
 #
 # Number of electrons = 61
 #
 # Total elastic cross section = 7.24871E-18 cm**2 = 2.58856E-01 a0**2
 # 1st transport cross section = 9.38245E-24 cm**2 = 3.35053E-07 a0**2
 # 2nd transport cross section = 2.73452E-23 cm**2 = 9.76514E-07 a0**2
 #
 #
 # Differential cross section:                       MU=(1-COS(THETA))/2
 #
 #  THETA        MU          DCS          DCS        Sherman      error
 #  (deg)                 (cm**2/sr)   (a0**2/sr)    function
 #----------------------------------------------------------------------
0.00000E+00 6.32884E-11
7.61557E-13 6.32664E-11
1.18994E-12 6.32541E-11
1.71346E-12 6.32391E-11
2.33225E-12 6.32214E-11
3.04617E-12 6.32010E-11
3.85530E-12 6.31779E-11
4.75964E-12 6.31521E-11
5.75917E-12 6.31236E-11
6.85391E-12 6.30924E-11
8.04379E-12 6.30586E-11
9.32893E-12 6.30221E-11
1.07092E-11 6.29829E-11
1.21847E-11 6.29410E-11
1.37554E-11 6.28965E-11
1.54213E-11 6.28494E-11
1.71823E-11 6.27997E-11
1.90386E-11 6.27473E-11
2.09900E-11 6.26923E-11
2.30367E-11 6.26347E-11
2.51785E-11 6.25746E-11
2.74156E-11 6.25119E-11
2.97478E-11 6.24466E-11
3.21752E-11 6.23788E-11
3.46979E-11 6.23084E-11
3.73157E-11 6.22356E-11
4.00286E-11 6.21602E-11
4.28368E-11 6.20824E-11
4.57402E-11 6.20020E-11
4.87388E-11 6.19193E-11
5.18325E-11 6.18341E-11
5.50215E-11 6.17464E-11
5.83057E-11 6.16564E-11
6.16850E-11 6.15640E-11
6.51595E-11 6.14692E-11
6.87293E-11 6.13721E-11
7.23943E-11 6.12727E-11
7.61544E-11 6.11709E-11
1.18991E-10 6.00312E-11
1.71347E-10 5.86851E-11
2.33223E-10 5.71579E-11
3.04617E-10 5.54763E-11
3.85531E-10 5.36762E-11
4.75965E-10 5.17751E-11
5.75917E-10 4.97931E-11
6.85389E-10 4.77824E-11
8.04380E-10 4.57285E-11
9.32891E-10 4.37051E-11
1.07092E-09 4.16700E-11
1.21847E-09 3.97062E-11
1.37554E-09 3.77631E-11
1.54213E-09 3.59052E-11
1.71823E-09 3.40986E-11
1.90386E-09 3.23800E-11
2.09900E-09 3.07342E-11
2.30367E-09 2.91715E-11
2.51785E-09 2.76949E-11
2.74156E-09 2.62924E-11
2.97478E-09 2.49818E-11
3.21752E-09 2.37348E-11
3.46978E-09 2.25796E-11
3.73156E-09 2.14779E-11
4.00286E-09 2.04637E-11
4.28368E-09 1.94976E-11
4.57402E-09 1.86044E-11
4.87388E-09 1.77586E-11
5.18326E-09 1.69713E-11
5.50215E-09 1.62295E-11
5.83057E-09 1.55348E-11
6.16850E-09 1.48822E-11
6.51596E-09 1.42678E-11
6.87293E-09 1.36912E-11
7.23942E-09 1.31462E-11
7.61544E-09 1.26341E-11
1.18991E-08 8.77411E-12
1.71347E-08 6.34811E-12
2.33223E-08 4.69775E-12
3.04617E-08 3.53253E-12
3.85531E-08 2.67377E-12
4.75965E-08 2.06218E-12
5.75917E-08 1.63067E-12
6.85389E-08 1.29236E-12
8.04380E-08 1.04842E-12
9.32891E-08 8.51125E-13
1.07092E-07 7.04767E-13
1.21847E-07 5.83624E-13
1.37554E-07 4.90395E-13
1.54213E-07 4.12863E-13
1.71823E-07 3.50875E-13
1.90386E-07 2.99249E-13
2.09900E-07 2.56720E-13
2.30367E-07 2.21298E-13
2.51785E-07 1.91471E-13
2.74156E-07 1.66592E-13
2.97478E-07 1.45324E-13
3.21752E-07 1.27512E-13
3.46978E-07 1.12128E-13
3.73156E-07 9.91623E-14
4.00286E-07 8.78790E-14
4.28368E-07 7.82723E-14
4.57402E-07 6.98988E-14
4.87388E-07 6.26796E-14
5.18325E-07 5.63685E-14
5.50215E-07 5.08674E-14
5.83057E-07 4.60359E-14
6.16850E-07 4.17841E-14
6.51596E-07 3.80305E-14
6.87293E-07 3.46979E-14
7.23942E-07 3.17413E-14
7.61543E-07 2.90936E-14
1.18991E-06 1.34644E-14
1.71347E-06 7.06890E-15
2.33223E-06 4.03021E-15
3.04617E-06 2.45496E-15
3.85531E-06 1.57645E-15
4.75964E-06 1.05935E-15
5.75916E-06 7.38459E-16
6.85388E-06 5.30749E-16
8.04378E-06 3.91258E-16
9.32888E-06 2.94777E-16
1.07092E-05 2.26304E-16
1.21846E-05 1.76604E-16
1.37553E-05 1.39817E-16
1.54212E-05 1.12114E-16
1.71822E-05 9.09247E-17
1.90385E-05 7.44688E-17
2.09899E-05 6.16162E-17
2.30365E-05 5.14080E-17
2.51783E-05 4.32151E-17
2.74153E-05 3.65804E-17
2.97475E-05 3.11646E-17
3.21749E-05 2.67120E-17
3.46974E-05 2.30274E-17
3.73152E-05 1.99582E-17
4.00281E-05 1.73848E-17
4.28362E-05 1.52135E-17
4.57395E-05 1.33705E-17
4.87380E-05 1.17974E-17
5.18317E-05 1.04481E-17
5.50205E-05 9.28586E-18
5.83045E-05 8.28055E-18
6.16838E-05 7.40771E-18
6.51582E-05 6.64708E-18
6.87277E-05 5.98178E-18
7.23925E-05 5.39782E-18
7.61524E-05 4.88354E-18
9.21439E-05 3.34840E-18
1.09658E-04 2.37157E-18
1.28695E-04 1.72644E-18
1.49255E-04 1.28630E-18
1.71338E-04 9.77879E-19
1.94942E-04 7.56508E-19
2.20070E-04 5.94328E-19
2.46720E-04 4.73328E-19
2.74892E-04 3.81570E-19
3.04586E-04 3.10984E-19
3.35803E-04 2.55964E-19
3.68542E-04 2.12574E-19
4.02802E-04 1.77986E-19
4.38585E-04 1.50143E-19
4.75889E-04 1.27528E-19
5.14715E-04 1.09008E-19
5.55063E-04 9.37247E-20
5.96931E-04 8.10232E-20
6.40321E-04 7.03980E-20
6.85233E-04 6.14552E-20
7.31665E-04 5.38854E-20
7.79618E-04 4.74436E-20
8.29092E-04 4.19341E-20
8.80086E-04 3.71999E-20
9.32601E-04 3.31138E-20
9.86636E-04 2.95723E-20
1.04219E-03 2.64908E-20
1.09927E-03 2.37994E-20
1.15786E-03 2.14404E-20
1.21797E-03 1.93658E-20
1.27961E-03 1.75355E-20
1.34276E-03 1.59159E-20
1.40743E-03 1.44785E-20
1.47362E-03 1.31994E-20
1.54133E-03 1.20580E-20
1.61056E-03 1.10370E-20
1.68131E-03 1.01215E-20
1.75357E-03 9.29875E-21
1.82735E-03 8.55765E-21
1.90265E-03 7.88870E-21
1.97947E-03 7.28366E-21
2.05780E-03 6.73534E-21
2.13765E-03 6.23749E-21
2.21902E-03 5.78465E-21
2.30190E-03 5.37203E-21
2.38630E-03 4.99543E-21
2.47222E-03 4.65114E-21
2.55965E-03 4.33591E-21
2.64859E-03 4.04685E-21
2.73905E-03 3.78138E-21
2.83103E-03 3.53726E-21
2.92452E-03 3.31244E-21
3.01952E-03 3.10513E-21
3.11604E-03 2.91373E-21
3.21407E-03 2.73680E-21
3.31362E-03 2.57304E-21
3.41468E-03 2.42130E-21
3.51725E-03 2.28053E-21
3.62133E-03 2.14981E-21
3.72692E-03 2.02828E-21
3.83403E-03 1.91517E-21
3.94265E-03 1.80981E-21
4.05278E-03 1.71157E-21
4.16442E-03 1.61988E-21
4.27757E-03 1.53421E-21
4.39223E-03 1.45411E-21
4.50840E-03 1.37914E-21
4.62608E-03 1.30892E-21
4.74527E-03 1.24309E-21
4.86597E-03 1.18133E-21
4.98817E-03 1.12334E-21
5.11188E-03 1.06884E-21
5.23711E-03 1.01760E-21
5.36383E-03 9.69371E-22
5.49207E-03 9.23953E-22
5.62181E-03 8.81151E-22
5.75306E-03 8.40786E-22
5.88581E-03 8.02694E-22
6.02007E-03 7.66724E-22
6.15583E-03 7.32734E-22
6.29310E-03 7.00597E-22
6.43187E-03 6.70193E-22
6.57214E-03 6.41411E-22
6.71392E-03 6.14150E-22
6.85720E-03 5.88313E-22
7.00198E-03 5.63813E-22
7.14827E-03 5.40568E-22
7.29605E-03 5.18501E-22
7.44534E-03 4.97541E-22
7.59612E-03 4.77624E-22
7.97965E-03 4.31999E-22
8.37255E-03 3.91662E-22
8.77480E-03 3.55898E-22
9.18641E-03 3.24100E-22
9.60736E-03 2.95753E-22
1.00376E-02 2.70419E-22
1.04773E-02 2.47723E-22
1.09262E-02 2.27343E-22
1.13844E-02 2.09002E-22
1.18520E-02 1.92461E-22
1.23288E-02 1.77513E-22
1.28150E-02 1.63978E-22
1.33104E-02 1.51699E-22
1.38150E-02 1.40540E-22
1.43290E-02 1.30380E-22
1.48521E-02 1.21115E-22
1.53845E-02 1.12652E-22
1.59262E-02 1.04908E-22
1.64770E-02 9.78143E-23
1.70371E-02 9.13043E-23
1.76063E-02 8.53224E-23
1.81848E-02 7.98182E-23
1.87724E-02 7.47467E-23
1.93692E-02 7.00680E-23
1.99751E-02 6.57463E-23
2.05901E-02 6.17496E-23
2.12143E-02 5.80491E-23
2.18476E-02 5.46190E-23
2.24900E-02 5.14360E-23
2.31415E-02 4.84792E-23
2.38021E-02 4.57297E-23
2.44717E-02 4.31703E-23
2.51504E-02 4.07856E-23
2.58382E-02 3.85615E-23
2.65349E-02 3.64854E-23
2.72407E-02 3.45455E-23
2.79555E-02 3.27315E-23
2.86793E-02 3.10336E-23
2.94120E-02 2.94431E-23
3.01537E-02 2.79520E-23
3.09043E-02 2.65530E-23
3.16639E-02 2.52394E-23
3.24324E-02 2.40050E-23
3.32098E-02 2.28443E-23
3.39961E-02 2.17520E-23
3.47912E-02 2.07233E-23
3.55952E-02 1.97540E-23
3.64081E-02 1.88399E-23
3.72297E-02 1.79774E-23
3.80602E-02 1.71629E-23
3.88995E-02 1.63934E-23
3.97476E-02 1.56660E-23
4.06044E-02 1.49779E-23
4.14700E-02 1.43266E-23
4.23443E-02 1.37099E-23
4.32273E-02 1.31255E-23
4.41190E-02 1.25714E-23
4.50194E-02 1.20459E-23
4.59284E-02 1.15471E-23
4.68461E-02 1.10734E-23
4.87074E-02 1.01958E-23
5.06030E-02 9.40204E-24
5.25328E-02 8.68290E-24
5.44967E-02 8.03015E-24
5.64946E-02 7.43662E-24
5.85262E-02 6.89603E-24
6.05914E-02 6.40286E-24
6.26901E-02 5.95225E-24
6.48222E-02 5.53989E-24
6.69873E-02 5.16200E-24
6.91854E-02 4.81519E-24
7.14163E-02 4.49649E-24
7.36799E-02 4.20322E-24
7.59760E-02 3.93301E-24
7.83043E-02 3.68373E-24
8.06647E-02 3.45350E-24
8.30571E-02 3.24061E-24
8.54812E-02 3.04352E-24
8.79369E-02 2.86087E-24
9.04240E-02 2.69142E-24
9.29422E-02 2.53406E-24
9.54915E-02 2.38776E-24
9.80716E-02 2.25163E-24
1.00682E-01 2.12484E-24
1.03323E-01 2.00663E-24
1.05995E-01 1.89632E-24
1.08696E-01 1.79331E-24
1.11427E-01 1.69702E-24
1.14188E-01 1.60694E-24
1.16978E-01 1.52260E-24
1.19797E-01 1.44357E-24
1.22645E-01 1.36947E-24
1.25522E-01 1.29993E-24
1.28428E-01 1.23462E-24
1.31361E-01 1.17325E-24
1.34323E-01 1.11553E-24
1.37313E-01 1.06122E-24
1.40330E-01 1.01007E-24
1.43375E-01 9.61868E-25
1.46447E-01 9.16421E-25
1.49545E-01 8.73543E-25
1.52671E-01 8.33062E-25
1.55823E-01 7.94824E-25
1.59001E-01 7.58682E-25
1.62205E-01 7.24502E-25
1.65435E-01 6.92160E-25
1.68690E-01 6.61539E-25
1.71970E-01 6.32535E-25
1.75276E-01 6.05045E-25
1.78606E-01 5.78979E-25
1.81961E-01 5.54250E-25
1.85340E-01 5.30777E-25
1.88743E-01 5.08487E-25
1.92169E-01 4.87310E-25
1.95619E-01 4.67181E-25
1.99092E-01 4.48039E-25
2.02589E-01 4.29828E-25
2.06107E-01 4.12495E-25
2.09649E-01 3.95991E-25
2.13212E-01 3.80269E-25
2.16797E-01 3.65287E-25
2.20404E-01 3.51003E-25
2.24032E-01 3.37380E-25
2.27680E-01 3.24382E-25
2.31350E-01 3.11975E-25
2.35040E-01 3.00129E-25
2.38751E-01 2.88814E-25
2.42481E-01 2.78001E-25
2.46231E-01 2.67666E-25
2.50000E-01 2.57783E-25
2.53788E-01 2.48330E-25
2.57595E-01 2.39285E-25
2.61421E-01 2.30626E-25
2.65264E-01 2.22336E-25
2.69126E-01 2.14395E-25
2.73005E-01 2.06787E-25
2.76901E-01 1.99496E-25
2.80814E-01 1.92505E-25
2.84744E-01 1.85802E-25
2.88691E-01 1.79371E-25
2.92653E-01 1.73200E-25
2.96632E-01 1.67277E-25
3.00625E-01 1.61591E-25
3.04634E-01 1.56130E-25
3.08658E-01 1.50883E-25
3.12697E-01 1.45842E-25
3.16749E-01 1.40997E-25
3.20816E-01 1.36339E-25
3.24896E-01 1.31859E-25
3.28990E-01 1.27550E-25
3.33097E-01 1.23405E-25
3.37216E-01 1.19415E-25
3.41348E-01 1.15574E-25
3.45492E-01 1.11877E-25
3.49647E-01 1.08315E-25
3.53814E-01 1.04885E-25
3.57992E-01 1.01580E-25
3.62181E-01 9.83943E-26
3.66381E-01 9.53239E-26
3.70590E-01 9.23634E-26
3.74810E-01 8.95085E-26
3.79039E-01 8.67548E-26
3.83277E-01 8.40981E-26
3.87524E-01 8.15345E-26
3.91780E-01 7.90601E-26
3.96044E-01 7.66715E-26
4.00316E-01 7.43652E-26
4.04596E-01 7.21379E-26
4.08882E-01 6.99864E-26
4.13176E-01 6.79079E-26
4.17476E-01 6.58994E-26
4.21783E-01 6.39583E-26
4.26095E-01 6.20819E-26
4.30413E-01 6.02678E-26
4.34737E-01 5.85135E-26
4.39065E-01 5.68168E-26
4.43398E-01 5.51755E-26
4.47736E-01 5.35876E-26
4.52077E-01 5.20510E-26
4.56422E-01 5.05638E-26
4.60770E-01 4.91242E-26
4.65122E-01 4.77305E-26
4.69476E-01 4.63810E-26
4.73832E-01 4.50740E-26
4.78190E-01 4.38080E-26
4.82550E-01 4.25816E-26
4.86912E-01 4.13934E-26
4.91274E-01 4.02419E-26
4.95637E-01 3.91258E-26
5.00000E-01 3.80440E-26
5.04363E-01 3.69952E-26
5.08726E-01 3.59782E-26
5.13088E-01 3.49920E-26
5.17450E-01 3.40355E-26
5.21810E-01 3.31076E-26
5.26168E-01 3.22075E-26
5.30524E-01 3.13340E-26
5.34878E-01 3.04864E-26
5.39230E-01 2.96638E-26
5.43578E-01 2.88653E-26
5.47923E-01 2.80900E-26
5.52264E-01 2.73374E-26
5.56602E-01 2.66065E-26
5.60935E-01 2.58967E-26
5.65263E-01 2.52072E-26
5.69587E-01 2.45375E-26
5.73905E-01 2.38869E-26
5.78217E-01 2.32547E-26
5.82524E-01 2.26403E-26
5.86824E-01 2.20433E-26
5.91118E-01 2.14630E-26
5.95404E-01 2.08989E-26
5.99684E-01 2.03504E-26
6.03956E-01 1.98172E-26
6.08220E-01 1.92987E-26
6.12476E-01 1.87944E-26
6.16723E-01 1.83040E-26
6.20961E-01 1.78269E-26
6.25190E-01 1.73628E-26
6.29410E-01 1.69113E-26
6.33619E-01 1.64720E-26
6.37819E-01 1.60445E-26
6.42008E-01 1.56284E-26
6.46186E-01 1.52235E-26
6.50353E-01 1.48293E-26
6.54508E-01 1.44456E-26
6.58652E-01 1.40721E-26
6.62784E-01 1.37083E-26
6.66903E-01 1.33542E-26
6.71010E-01 1.30093E-26
6.75104E-01 1.26734E-26
6.79184E-01 1.23462E-26
6.83251E-01 1.20276E-26
6.87303E-01 1.17171E-26
6.91342E-01 1.14147E-26
6.95366E-01 1.11200E-26
6.99375E-01 1.08329E-26
7.03368E-01 1.05531E-26
7.07347E-01 1.02804E-26
7.11309E-01 1.00146E-26
7.15256E-01 9.75559E-27
7.19186E-01 9.50309E-27
7.23099E-01 9.25694E-27
7.26995E-01 9.01698E-27
7.30874E-01 8.78302E-27
7.34736E-01 8.55489E-27
7.38579E-01 8.33245E-27
7.42405E-01 8.11553E-27
7.46212E-01 7.90398E-27
7.50000E-01 7.69766E-27
7.53769E-01 7.49643E-27
7.57519E-01 7.30014E-27
7.61249E-01 7.10866E-27
7.64960E-01 6.92188E-27
7.68650E-01 6.73965E-27
7.72320E-01 6.56186E-27
7.75968E-01 6.38840E-27
7.79596E-01 6.21914E-27
7.83203E-01 6.05398E-27
7.86788E-01 5.89281E-27
7.90351E-01 5.73553E-27
7.93893E-01 5.58204E-27
7.97411E-01 5.43223E-27
8.00908E-01 5.28602E-27
8.04381E-01 5.14331E-27
8.07831E-01 5.00401E-27
8.11257E-01 4.86803E-27
8.14660E-01 4.73530E-27
8.18039E-01 4.60573E-27
8.21394E-01 4.47924E-27
8.24724E-01 4.35575E-27
8.28030E-01 4.23519E-27
8.31310E-01 4.11748E-27
8.34565E-01 4.00257E-27
8.37795E-01 3.89037E-27
8.40999E-01 3.78082E-27
8.44177E-01 3.67386E-27
8.47329E-01 3.56942E-27
8.50455E-01 3.46744E-27
8.53553E-01 3.36787E-27
8.56625E-01 3.27064E-27
8.59670E-01 3.17571E-27
8.62687E-01 3.08301E-27
8.65677E-01 2.99249E-27
8.68639E-01 2.90411E-27
8.71572E-01 2.81781E-27
8.74478E-01 2.73355E-27
8.77355E-01 2.65127E-27
8.80203E-01 2.57093E-27
8.83022E-01 2.49250E-27
8.85812E-01 2.41591E-27
8.88573E-01 2.34114E-27
8.91304E-01 2.26814E-27
8.94005E-01 2.19688E-27
8.96677E-01 2.12730E-27
8.99318E-01 2.05939E-27
9.01928E-01 1.99309E-27
9.04508E-01 1.92838E-27
9.07058E-01 1.86522E-27
9.09576E-01 1.80357E-27
9.12063E-01 1.74341E-27
9.14519E-01 1.68471E-27
9.16943E-01 1.62743E-27
9.19335E-01 1.57154E-27
9.21696E-01 1.51701E-27
9.24024E-01 1.46382E-27
9.26320E-01 1.41194E-27
9.28584E-01 1.36134E-27
9.30815E-01 1.31199E-27
9.33013E-01 1.26388E-27
9.35178E-01 1.21697E-27
9.37310E-01 1.17125E-27
9.39409E-01 1.12669E-27
9.41474E-01 1.08326E-27
9.43505E-01 1.04096E-27
9.45503E-01 9.99742E-28
9.47467E-01 9.59603E-28
9.49397E-01 9.20520E-28
9.51293E-01 8.82472E-28
9.53154E-01 8.45441E-28
9.54981E-01 8.09409E-28
9.56773E-01 7.74359E-28
9.58530E-01 7.40273E-28
9.60252E-01 7.07134E-28
9.61940E-01 6.74928E-28
9.63592E-01 6.43638E-28
9.65209E-01 6.13248E-28
9.66790E-01 5.83746E-28
9.68336E-01 5.55116E-28
9.69846E-01 5.27345E-28
9.71321E-01 5.00420E-28
9.72759E-01 4.74327E-28
9.74162E-01 4.49055E-28
9.75528E-01 4.24592E-28
9.76858E-01 4.00926E-28
9.78152E-01 3.78046E-28
9.79410E-01 3.55941E-28
9.80631E-01 3.34601E-28
9.81815E-01 3.14016E-28
9.82963E-01 2.94176E-28
9.84074E-01 2.75072E-28
9.85148E-01 2.56696E-28
9.86185E-01 2.39038E-28
9.87185E-01 2.22091E-28
9.88148E-01 2.05847E-28
9.89074E-01 1.90298E-28
9.89962E-01 1.75437E-28
9.90814E-01 1.61258E-28
9.91627E-01 1.47753E-28
9.92404E-01 1.34916E-28
9.93143E-01 1.22743E-28
9.93844E-01 1.11226E-28
9.94508E-01 1.00362E-28
9.95134E-01 9.01439E-29
9.95722E-01 8.05685E-29
9.96273E-01 7.16310E-29
9.96786E-01 6.33274E-29
9.97261E-01 5.56538E-29
9.97698E-01 4.86069E-29
9.98097E-01 4.21833E-29
9.98459E-01 3.63803E-29
9.98782E-01 3.11951E-29
9.99067E-01 2.66254E-29
9.99315E-01 2.26692E-29
9.99524E-01 1.93247E-29
9.99695E-01 1.65903E-29
9.99829E-01 1.44648E-29
9.99924E-01 1.29473E-29
9.99981E-01 1.20371E-29
1.00000E+00 1.17337E-29
