 #
 # Subroutine ELSEPA. Elastic scattering of electrons and positrons
 #                    by neutral atoms and positive ions
 #
 # Projectile: positron
 # Kinetic energy = 1.25000E+06 eV = 4.59367E+04 a.u.
 #
 # WARNING: High-energy factorization with free-atom DF screening.
 #          Absorption, polarization and exchange corrections are
 #          switched off.
 #          Phase shifts are calculated for the bare nucleus.
 #          Scattering amplitudes are not evaluated.
 #
 # Element: Pm,  Z =  61,  atomic weight = 1.44913E+02 g/mol
 #
 # Nuclear model: Fermi distribution
 #                Average radius = 5.62021E-13 cm
 #                Skin thickness = 5.46000E-14 cm
 #
 # Number of electrons = 61
 #
 # Total elastic cross section = 7.89206E-18 cm**2 = 2.81831E-01 a0**2
 # 1st transport cross section = 1.38219E-21 cm**2 = 4.93590E-05 a0**2
 # 2nd transport cross section = 3.90183E-21 cm**2 = 1.39337E-04 a0**2
 #
 #
 # Differential cross section:                       MU=(1-COS(THETA))/2
 #
 #  THETA        MU          DCS          DCS        Sherman      error
 #  (deg)                 (cm**2/sr)   (a0**2/sr)    function
 #----------------------------------------------------------------------
0.00000E+00 3.01570E-13
7.61557E-13 3.01569E-13
1.18994E-12 3.01569E-13
1.71346E-12 3.01568E-13
2.33225E-12 3.01568E-13
3.04617E-12 3.01567E-13
3.85530E-12 3.01567E-13
4.75964E-12 3.01566E-13
5.75917E-12 3.01565E-13
6.85391E-12 3.01565E-13
8.04379E-12 3.01564E-13
9.32893E-12 3.01563E-13
1.07092E-11 3.01562E-13
1.21847E-11 3.01561E-13
1.37554E-11 3.01560E-13
1.54213E-11 3.01559E-13
1.71823E-11 3.01558E-13
1.90386E-11 3.01557E-13
2.09900E-11 3.01556E-13
2.30367E-11 3.01554E-13
2.51785E-11 3.01553E-13
2.74156E-11 3.01552E-13
2.97478E-11 3.01550E-13
3.21752E-11 3.01549E-13
3.46979E-11 3.01547E-13
3.73157E-11 3.01546E-13
4.00286E-11 3.01544E-13
4.28368E-11 3.01542E-13
4.57402E-11 3.01540E-13
4.87388E-11 3.01538E-13
5.18325E-11 3.01537E-13
5.50215E-11 3.01535E-13
5.83057E-11 3.01533E-13
6.16850E-11 3.01531E-13
6.51595E-11 3.01528E-13
6.87293E-11 3.01526E-13
7.23943E-11 3.01524E-13
7.61544E-11 3.01522E-13
1.18991E-10 3.01496E-13
1.71347E-10 3.01464E-13
2.33223E-10 3.01426E-13
3.04617E-10 3.01383E-13
3.85531E-10 3.01335E-13
4.75965E-10 3.01280E-13
5.75917E-10 3.01221E-13
6.85389E-10 3.01155E-13
8.04380E-10 3.01084E-13
9.32891E-10 3.01007E-13
1.07092E-09 3.00925E-13
1.21847E-09 3.00837E-13
1.37554E-09 3.00743E-13
1.54213E-09 3.00644E-13
1.71823E-09 3.00539E-13
1.90386E-09 3.00429E-13
2.09900E-09 3.00313E-13
2.30367E-09 3.00192E-13
2.51785E-09 3.00065E-13
2.74156E-09 2.99932E-13
2.97478E-09 2.99795E-13
3.21752E-09 2.99651E-13
3.46978E-09 2.99502E-13
3.73156E-09 2.99348E-13
4.00286E-09 2.99188E-13
4.28368E-09 2.99023E-13
4.57402E-09 2.98852E-13
4.87388E-09 2.98676E-13
5.18326E-09 2.98495E-13
5.50215E-09 2.98308E-13
5.83057E-09 2.98116E-13
6.16850E-09 2.97918E-13
6.51596E-09 2.97715E-13
6.87293E-09 2.97507E-13
7.23942E-09 2.97293E-13
7.61544E-09 2.97075E-13
1.18991E-08 2.94602E-13
1.71347E-08 2.91627E-13
2.33223E-08 2.88176E-13
3.04617E-08 2.84277E-13
3.85531E-08 2.79963E-13
4.75965E-08 2.75269E-13
5.75917E-08 2.70232E-13
6.85389E-08 2.64889E-13
8.04380E-08 2.59281E-13
9.32891E-08 2.53496E-13
1.07092E-07 2.47480E-13
1.21847E-07 2.41263E-13
1.37554E-07 2.35004E-13
1.54213E-07 2.28659E-13
1.71823E-07 2.22206E-13
1.90386E-07 2.15772E-13
2.09900E-07 2.09396E-13
2.30367E-07 2.02992E-13
2.51785E-07 1.96630E-13
2.74156E-07 1.90459E-13
2.97478E-07 1.84320E-13
3.21752E-07 1.78228E-13
3.46978E-07 1.72416E-13
3.73156E-07 1.66687E-13
4.00286E-07 1.61042E-13
4.28368E-07 1.55643E-13
4.57402E-07 1.50407E-13
4.87388E-07 1.45275E-13
5.18325E-07 1.40342E-13
5.50215E-07 1.35631E-13
5.83057E-07 1.31034E-13
6.16850E-07 1.26584E-13
6.51596E-07 1.22393E-13
6.87293E-07 1.18314E-13
7.23942E-07 1.14351E-13
7.61543E-07 1.10638E-13
1.18991E-06 8.06759E-14
1.71347E-06 6.10011E-14
2.33223E-06 4.75843E-14
3.04617E-06 3.79482E-14
3.85531E-06 3.07108E-14
4.75964E-06 2.51034E-14
5.75916E-06 2.06753E-14
6.85388E-06 1.71392E-14
8.04378E-06 1.42961E-14
9.32888E-06 1.18729E-14
1.07092E-05 1.00191E-14
1.21846E-05 8.58137E-15
1.37553E-05 7.32453E-15
1.54212E-05 6.28789E-15
1.71822E-05 5.45932E-15
1.90385E-05 4.75227E-15
2.09899E-05 4.14498E-15
2.30365E-05 3.64648E-15
2.51783E-05 3.22496E-15
2.74153E-05 2.84512E-15
2.97475E-05 2.52722E-15
3.21749E-05 2.25942E-15
3.46974E-05 2.01287E-15
3.73152E-05 1.80263E-15
4.00281E-05 1.62304E-15
4.28362E-05 1.46026E-15
4.57395E-05 1.31653E-15
4.87380E-05 1.19204E-15
5.18317E-05 1.08066E-15
5.50205E-05 9.79892E-16
5.83045E-05 8.91724E-16
6.16838E-05 8.13600E-16
6.51582E-05 7.41928E-16
6.87277E-05 6.78673E-16
7.23925E-05 6.22645E-16
7.61524E-05 5.71099E-16
9.21439E-05 4.12454E-16
1.09658E-04 3.05726E-16
1.28695E-04 2.32025E-16
1.49255E-04 1.79672E-16
1.71338E-04 1.41666E-16
1.94942E-04 1.13465E-16
2.20070E-04 9.20310E-17
2.46720E-04 7.54607E-17
2.74892E-04 6.24794E-17
3.04586E-04 5.21851E-17
3.35803E-04 4.39176E-17
3.68542E-04 3.72045E-17
4.02802E-04 3.16946E-17
4.38585E-04 2.71523E-17
4.75889E-04 2.33845E-17
5.14715E-04 2.02411E-17
5.55063E-04 1.76019E-17
5.96931E-04 1.53756E-17
6.40321E-04 1.34882E-17
6.85233E-04 1.18797E-17
7.31665E-04 1.05021E-17
7.79618E-04 9.31699E-18
8.29092E-04 8.29212E-18
8.80086E-04 7.40387E-18
9.32601E-04 6.63475E-18
9.86636E-04 5.96443E-18
1.04219E-03 5.37297E-18
1.09927E-03 4.85495E-18
1.15786E-03 4.39961E-18
1.21797E-03 3.99383E-18
1.27961E-03 3.63461E-18
1.34276E-03 3.31593E-18
1.40743E-03 3.03062E-18
1.47362E-03 2.77530E-18
1.54133E-03 2.54697E-18
1.61056E-03 2.34151E-18
1.68131E-03 2.15584E-18
1.75357E-03 1.98865E-18
1.82735E-03 1.83757E-18
1.90265E-03 1.69995E-18
1.97947E-03 1.57526E-18
2.05780E-03 1.46205E-18
2.13765E-03 1.35836E-18
2.21902E-03 1.26381E-18
2.30190E-03 1.17751E-18
2.38630E-03 1.09826E-18
2.47222E-03 1.02550E-18
2.55965E-03 9.58786E-19
2.64859E-03 8.97370E-19
2.73905E-03 8.40651E-19
2.83103E-03 7.88422E-19
2.92452E-03 7.40231E-19
3.01952E-03 6.95486E-19
3.11604E-03 6.54125E-19
3.21407E-03 6.15846E-19
3.31362E-03 5.80207E-19
3.41468E-03 5.47119E-19
3.51725E-03 5.16393E-19
3.62133E-03 4.87741E-19
3.72692E-03 4.61020E-19
3.83403E-03 4.36129E-19
3.94265E-03 4.12885E-19
4.05278E-03 3.91120E-19
4.16442E-03 3.70788E-19
4.27757E-03 3.51773E-19
4.39223E-03 3.33906E-19
4.50840E-03 3.17171E-19
4.62608E-03 3.01484E-19
4.74527E-03 2.86720E-19
4.86597E-03 2.72847E-19
4.98817E-03 2.59812E-19
5.11188E-03 2.47532E-19
5.23711E-03 2.35957E-19
5.36383E-03 2.25056E-19
5.49207E-03 2.14776E-19
5.62181E-03 2.05058E-19
5.75306E-03 1.95888E-19
5.88581E-03 1.87229E-19
6.02007E-03 1.79024E-19
6.15583E-03 1.71267E-19
6.29310E-03 1.63929E-19
6.43187E-03 1.56969E-19
6.57214E-03 1.50372E-19
6.71392E-03 1.44121E-19
6.85720E-03 1.38187E-19
7.00198E-03 1.32550E-19
7.14827E-03 1.27199E-19
7.29605E-03 1.22115E-19
7.44534E-03 1.17275E-19
7.59612E-03 1.12675E-19
7.97965E-03 1.02116E-19
8.37255E-03 9.27584E-20
8.77480E-03 8.44427E-20
9.18641E-03 7.70304E-20
9.60736E-03 7.04099E-20
1.00376E-02 6.44820E-20
1.04773E-02 5.91617E-20
1.09262E-02 5.43745E-20
1.13844E-02 5.00593E-20
1.18520E-02 4.61616E-20
1.23288E-02 4.26339E-20
1.28150E-02 3.94345E-20
1.33104E-02 3.65278E-20
1.38150E-02 3.38826E-20
1.43290E-02 3.14712E-20
1.48521E-02 2.92692E-20
1.53845E-02 2.72551E-20
1.59262E-02 2.54103E-20
1.64770E-02 2.37181E-20
1.70371E-02 2.21636E-20
1.76063E-02 2.07333E-20
1.81848E-02 1.94159E-20
1.87724E-02 1.82009E-20
1.93692E-02 1.70788E-20
1.99751E-02 1.60412E-20
2.05901E-02 1.50807E-20
2.12143E-02 1.41905E-20
2.18476E-02 1.33646E-20
2.24900E-02 1.25974E-20
2.31415E-02 1.18841E-20
2.38021E-02 1.12203E-20
2.44717E-02 1.06018E-20
2.51504E-02 1.00249E-20
2.58382E-02 9.48651E-21
2.65349E-02 8.98347E-21
2.72407E-02 8.51309E-21
2.79555E-02 8.07282E-21
2.86793E-02 7.66041E-21
2.94120E-02 7.27378E-21
3.01537E-02 6.91105E-21
3.09043E-02 6.57045E-21
3.16639E-02 6.25038E-21
3.24324E-02 5.94939E-21
3.32098E-02 5.66615E-21
3.39961E-02 5.39942E-21
3.47912E-02 5.14804E-21
3.55952E-02 4.91099E-21
3.64081E-02 4.68730E-21
3.72297E-02 4.47610E-21
3.80602E-02 4.27652E-21
3.88995E-02 4.08783E-21
3.97476E-02 3.90935E-21
4.06044E-02 3.74041E-21
4.14700E-02 3.58038E-21
4.23443E-02 3.42875E-21
4.32273E-02 3.28498E-21
4.41190E-02 3.14859E-21
4.50194E-02 3.01911E-21
4.59284E-02 2.89617E-21
4.68461E-02 2.77935E-21
4.87074E-02 2.56267E-21
5.06030E-02 2.36649E-21
5.25328E-02 2.18852E-21
5.44967E-02 2.02680E-21
5.64946E-02 1.87957E-21
5.85262E-02 1.74533E-21
6.05914E-02 1.62272E-21
6.26901E-02 1.51057E-21
6.48222E-02 1.40783E-21
6.69873E-02 1.31357E-21
6.91854E-02 1.22698E-21
7.14163E-02 1.14731E-21
7.36799E-02 1.07393E-21
7.59760E-02 1.00625E-21
7.83043E-02 9.43749E-22
8.06647E-02 8.85964E-22
8.30571E-02 8.32471E-22
8.54812E-02 7.82907E-22
8.79369E-02 7.36926E-22
9.04240E-02 6.94225E-22
9.29422E-02 6.54533E-22
9.54915E-02 6.17593E-22
9.80716E-02 5.83189E-22
1.00682E-01 5.51111E-22
1.03323E-01 5.21177E-22
1.05995E-01 4.93220E-22
1.08696E-01 4.67082E-22
1.11427E-01 4.42629E-22
1.14188E-01 4.19729E-22
1.16978E-01 3.98269E-22
1.19797E-01 3.78142E-22
1.22645E-01 3.59250E-22
1.25522E-01 3.41506E-22
1.28428E-01 3.24824E-22
1.31361E-01 3.09133E-22
1.34323E-01 2.94362E-22
1.37313E-01 2.80449E-22
1.40330E-01 2.67334E-22
1.43375E-01 2.54963E-22
1.46447E-01 2.43288E-22
1.49545E-01 2.32261E-22
1.52671E-01 2.21841E-22
1.55823E-01 2.11989E-22
1.59001E-01 2.02667E-22
1.62205E-01 1.93844E-22
1.65435E-01 1.85486E-22
1.68690E-01 1.77565E-22
1.71970E-01 1.70055E-22
1.75276E-01 1.62930E-22
1.78606E-01 1.56167E-22
1.81961E-01 1.49745E-22
1.85340E-01 1.43643E-22
1.88743E-01 1.37842E-22
1.92169E-01 1.32326E-22
1.95619E-01 1.27076E-22
1.99092E-01 1.22080E-22
2.02589E-01 1.17321E-22
2.06107E-01 1.12787E-22
2.09649E-01 1.08466E-22
2.13212E-01 1.04345E-22
2.16797E-01 1.00413E-22
2.20404E-01 9.66612E-23
2.24032E-01 9.30789E-23
2.27680E-01 8.96572E-23
2.31350E-01 8.63878E-23
2.35040E-01 8.32626E-23
2.38751E-01 8.02743E-23
2.42481E-01 7.74156E-23
2.46231E-01 7.46800E-23
2.50000E-01 7.20613E-23
2.53788E-01 6.95536E-23
2.57595E-01 6.71513E-23
2.61421E-01 6.48493E-23
2.65264E-01 6.26426E-23
2.69126E-01 6.05266E-23
2.73005E-01 5.84969E-23
2.76901E-01 5.65494E-23
2.80814E-01 5.46801E-23
2.84744E-01 5.28854E-23
2.88691E-01 5.11617E-23
2.92653E-01 4.95057E-23
2.96632E-01 4.79145E-23
3.00625E-01 4.63848E-23
3.04634E-01 4.49140E-23
3.08658E-01 4.34993E-23
3.12697E-01 4.21384E-23
3.16749E-01 4.08287E-23
3.20816E-01 3.95680E-23
3.24896E-01 3.83541E-23
3.28990E-01 3.71851E-23
3.33097E-01 3.60589E-23
3.37216E-01 3.49737E-23
3.41348E-01 3.39277E-23
3.45492E-01 3.29194E-23
3.49647E-01 3.19470E-23
3.53814E-01 3.10091E-23
3.57992E-01 3.01043E-23
3.62181E-01 2.92312E-23
3.66381E-01 2.83884E-23
3.70590E-01 2.75748E-23
3.74810E-01 2.67891E-23
3.79039E-01 2.60303E-23
3.83277E-01 2.52972E-23
3.87524E-01 2.45888E-23
3.91780E-01 2.39042E-23
3.96044E-01 2.32424E-23
4.00316E-01 2.26025E-23
4.04596E-01 2.19837E-23
4.08882E-01 2.13851E-23
4.13176E-01 2.08060E-23
4.17476E-01 2.02456E-23
4.21783E-01 1.97033E-23
4.26095E-01 1.91783E-23
4.30413E-01 1.86700E-23
4.34737E-01 1.81778E-23
4.39065E-01 1.77010E-23
4.43398E-01 1.72392E-23
4.47736E-01 1.67917E-23
4.52077E-01 1.63580E-23
4.56422E-01 1.59377E-23
4.60770E-01 1.55302E-23
4.65122E-01 1.51351E-23
4.69476E-01 1.47520E-23
4.73832E-01 1.43804E-23
4.78190E-01 1.40199E-23
4.82550E-01 1.36701E-23
4.86912E-01 1.33307E-23
4.91274E-01 1.30013E-23
4.95637E-01 1.26816E-23
5.00000E-01 1.23712E-23
5.04363E-01 1.20698E-23
5.08726E-01 1.17770E-23
5.13088E-01 1.14927E-23
5.17450E-01 1.12166E-23
5.21810E-01 1.09482E-23
5.26168E-01 1.06875E-23
5.30524E-01 1.04341E-23
5.34878E-01 1.01878E-23
5.39230E-01 9.94842E-24
5.43578E-01 9.71565E-24
5.47923E-01 9.48931E-24
5.52264E-01 9.26919E-24
5.56602E-01 9.05510E-24
5.60935E-01 8.84684E-24
5.65263E-01 8.64423E-24
5.69587E-01 8.44708E-24
5.73905E-01 8.25524E-24
5.78217E-01 8.06853E-24
5.82524E-01 7.88679E-24
5.86824E-01 7.70986E-24
5.91118E-01 7.53761E-24
5.95404E-01 7.36989E-24
5.99684E-01 7.20656E-24
6.03956E-01 7.04748E-24
6.08220E-01 6.89253E-24
6.12476E-01 6.74158E-24
6.16723E-01 6.59452E-24
6.20961E-01 6.45122E-24
6.25190E-01 6.31158E-24
6.29410E-01 6.17549E-24
6.33619E-01 6.04285E-24
6.37819E-01 5.91355E-24
6.42008E-01 5.78750E-24
6.46186E-01 5.66460E-24
6.50353E-01 5.54476E-24
6.54508E-01 5.42789E-24
6.58652E-01 5.31392E-24
6.62784E-01 5.20276E-24
6.66903E-01 5.09432E-24
6.71010E-01 4.98853E-24
6.75104E-01 4.88532E-24
6.79184E-01 4.78462E-24
6.83251E-01 4.68635E-24
6.87303E-01 4.59046E-24
6.91342E-01 4.49686E-24
6.95366E-01 4.40551E-24
6.99375E-01 4.31633E-24
7.03368E-01 4.22928E-24
7.07347E-01 4.14429E-24
7.11309E-01 4.06131E-24
7.15256E-01 3.98028E-24
7.19186E-01 3.90116E-24
7.23099E-01 3.82388E-24
7.26995E-01 3.74841E-24
7.30874E-01 3.67470E-24
7.34736E-01 3.60270E-24
7.38579E-01 3.53236E-24
7.42405E-01 3.46364E-24
7.46212E-01 3.39650E-24
7.50000E-01 3.33091E-24
7.53769E-01 3.26681E-24
7.57519E-01 3.20418E-24
7.61249E-01 3.14297E-24
7.64960E-01 3.08315E-24
7.68650E-01 3.02469E-24
7.72320E-01 2.96754E-24
7.75968E-01 2.91169E-24
7.79596E-01 2.85709E-24
7.83203E-01 2.80372E-24
7.86788E-01 2.75154E-24
7.90351E-01 2.70052E-24
7.93893E-01 2.65065E-24
7.97411E-01 2.60189E-24
8.00908E-01 2.55421E-24
8.04381E-01 2.50759E-24
8.07831E-01 2.46200E-24
8.11257E-01 2.41742E-24
8.14660E-01 2.37382E-24
8.18039E-01 2.33118E-24
8.21394E-01 2.28949E-24
8.24724E-01 2.24871E-24
8.28030E-01 2.20883E-24
8.31310E-01 2.16982E-24
8.34565E-01 2.13167E-24
8.37795E-01 2.09436E-24
8.40999E-01 2.05786E-24
8.44177E-01 2.02217E-24
8.47329E-01 1.98725E-24
8.50455E-01 1.95310E-24
8.53553E-01 1.91970E-24
8.56625E-01 1.88702E-24
8.59670E-01 1.85506E-24
8.62687E-01 1.82380E-24
8.65677E-01 1.79323E-24
8.68639E-01 1.76332E-24
8.71572E-01 1.73407E-24
8.74478E-01 1.70546E-24
8.77355E-01 1.67748E-24
8.80203E-01 1.65011E-24
8.83022E-01 1.62335E-24
8.85812E-01 1.59718E-24
8.88573E-01 1.57158E-24
8.91304E-01 1.54655E-24
8.94005E-01 1.52207E-24
8.96677E-01 1.49814E-24
8.99318E-01 1.47473E-24
9.01928E-01 1.45186E-24
9.04508E-01 1.42949E-24
9.07058E-01 1.40762E-24
9.09576E-01 1.38625E-24
9.12063E-01 1.36536E-24
9.14519E-01 1.34494E-24
9.16943E-01 1.32499E-24
9.19335E-01 1.30549E-24
9.21696E-01 1.28644E-24
9.24024E-01 1.26783E-24
9.26320E-01 1.24965E-24
9.28584E-01 1.23190E-24
9.30815E-01 1.21456E-24
9.33013E-01 1.19763E-24
9.35178E-01 1.18110E-24
9.37310E-01 1.16497E-24
9.39409E-01 1.14922E-24
9.41474E-01 1.13385E-24
9.43505E-01 1.11887E-24
9.45503E-01 1.10424E-24
9.47467E-01 1.08999E-24
9.49397E-01 1.07608E-24
9.51293E-01 1.06253E-24
9.53154E-01 1.04933E-24
9.54981E-01 1.03647E-24
9.56773E-01 1.02394E-24
9.58530E-01 1.01174E-24
9.60252E-01 9.99866E-25
9.61940E-01 9.88314E-25
9.63592E-01 9.77077E-25
9.65209E-01 9.66152E-25
9.66790E-01 9.55535E-25
9.68336E-01 9.45220E-25
9.69846E-01 9.35204E-25
9.71321E-01 9.25484E-25
9.72759E-01 9.16054E-25
9.74162E-01 9.06913E-25
9.75528E-01 8.98055E-25
9.76858E-01 8.89478E-25
9.78152E-01 8.81178E-25
9.79410E-01 8.73153E-25
9.80631E-01 8.65398E-25
9.81815E-01 8.57911E-25
9.82963E-01 8.50690E-25
9.84074E-01 8.43731E-25
9.85148E-01 8.37032E-25
9.86185E-01 8.30589E-25
9.87185E-01 8.24402E-25
9.88148E-01 8.18467E-25
9.89074E-01 8.12783E-25
9.89962E-01 8.07346E-25
9.90814E-01 8.02155E-25
9.91627E-01 7.97209E-25
9.92404E-01 7.92505E-25
9.93143E-01 7.88041E-25
9.93844E-01 7.83816E-25
9.94508E-01 7.79828E-25
9.95134E-01 7.76076E-25
9.95722E-01 7.72558E-25
9.96273E-01 7.69273E-25
9.96786E-01 7.66220E-25
9.97261E-01 7.63398E-25
9.97698E-01 7.60805E-25
9.98097E-01 7.58441E-25
9.98459E-01 7.56305E-25
9.98782E-01 7.54395E-25
9.99067E-01 7.52712E-25
9.99315E-01 7.51255E-25
9.99524E-01 7.50023E-25
9.99695E-01 7.49015E-25
9.99829E-01 7.48232E-25
9.99924E-01 7.47672E-25
9.99981E-01 7.47337E-25
1.00000E+00 7.47225E-25
