 #
 # Subroutine ELSEPA. Elastic scattering of electrons and positrons
 #                    by neutral atoms and positive ions
 #
 # Projectile: positron
 # Kinetic energy = 2.00000E+08 eV = 7.34987E+06 a.u.
 #
 # WARNING: High-energy factorization with free-atom DF screening.
 #          Absorption, polarization and exchange corrections are
 #          switched off.
 #          Phase shifts are calculated for the bare nucleus.
 #          Scattering amplitudes are not evaluated.
 #
 # Element: Pm,  Z =  61,  atomic weight = 1.44913E+02 g/mol
 #
 # Nuclear model: Fermi distribution
 #                Average radius = 5.62021E-13 cm
 #                Skin thickness = 5.46000E-14 cm
 #
 # Number of electrons = 61
 #
 # Total elastic cross section = 7.24852E-18 cm**2 = 2.58849E-01 a0**2
 # 1st transport cross section = 1.76871E-25 cm**2 = 6.31617E-09 a0**2
 # 2nd transport cross section = 5.29278E-25 cm**2 = 1.89009E-08 a0**2
 #
 #
 # Differential cross section:                       MU=(1-COS(THETA))/2
 #
 #  THETA        MU          DCS          DCS        Sherman      error
 #  (deg)                 (cm**2/sr)   (a0**2/sr)    function
 #----------------------------------------------------------------------
0.00000E+00 3.90972E-09
7.61557E-13 3.82801E-09
1.18994E-12 3.78330E-09
1.71346E-12 3.72982E-09
2.33225E-12 3.66821E-09
3.04617E-12 3.59919E-09
3.85530E-12 3.52353E-09
4.75964E-12 3.44207E-09
5.75917E-12 3.35569E-09
6.85391E-12 3.26585E-09
8.04379E-12 3.17188E-09
9.32893E-12 3.07536E-09
1.07092E-11 2.97800E-09
1.21847E-11 2.87859E-09
1.37554E-11 2.77961E-09
1.54213E-11 2.68111E-09
1.71823E-11 2.58226E-09
1.90386E-11 2.48646E-09
2.09900E-11 2.39170E-09
2.30367E-11 2.29820E-09
2.51785E-11 2.20901E-09
2.74156E-11 2.12122E-09
2.97478E-11 2.03632E-09
3.21752E-11 1.95531E-09
3.46979E-11 1.87620E-09
3.73157E-11 1.80108E-09
4.00286E-11 1.72911E-09
4.28368E-11 1.65925E-09
4.57402E-11 1.59395E-09
4.87388E-11 1.53099E-09
5.18325E-11 1.47051E-09
5.50215E-11 1.41399E-09
5.83057E-11 1.35947E-09
6.16850E-11 1.30772E-09
6.51595E-11 1.25892E-09
6.87293E-11 1.21196E-09
7.23943E-11 1.16779E-09
7.61544E-11 1.12576E-09
1.18991E-10 8.02290E-10
1.71347E-10 5.97887E-10
2.33223E-10 4.58936E-10
3.04617E-10 3.58825E-10
3.85531E-10 2.83973E-10
4.75965E-10 2.26845E-10
5.75917E-10 1.82675E-10
6.85389E-10 1.46948E-10
8.04380E-10 1.20910E-10
9.32891E-10 1.00608E-10
1.07092E-09 8.36225E-11
1.21847E-09 7.06415E-11
1.37554E-09 5.98966E-11
1.54213E-09 5.10577E-11
1.71823E-09 4.40486E-11
1.90386E-09 3.79486E-11
2.09900E-09 3.29459E-11
2.30367E-09 2.88288E-11
2.51785E-09 2.51665E-11
2.74156E-09 2.21404E-11
2.97478E-09 1.95476E-11
3.21752E-09 1.72665E-11
3.46978E-09 1.53457E-11
3.73156E-09 1.36517E-11
4.00286E-09 1.21758E-11
4.28368E-09 1.09138E-11
4.57402E-09 9.77977E-12
4.87388E-09 8.79684E-12
5.18326E-09 7.94041E-12
5.50215E-09 7.17163E-12
5.83057E-09 6.50093E-12
6.16850E-09 5.90662E-12
6.51596E-09 5.37584E-12
6.87293E-09 4.90790E-12
7.23942E-09 4.48811E-12
7.61544E-09 4.11328E-12
1.18991E-08 1.90977E-12
1.71347E-08 1.01951E-12
2.33223E-08 5.94768E-13
3.04617E-08 3.68769E-13
3.85531E-08 2.39630E-13
4.75965E-08 1.62087E-13
5.75917E-08 1.13404E-13
6.85389E-08 8.17196E-14
8.04380E-08 6.03877E-14
9.32891E-08 4.56048E-14
1.07092E-07 3.50980E-14
1.21847E-07 2.74582E-14
1.37554E-07 2.17928E-14
1.54213E-07 1.75182E-14
1.71823E-07 1.42425E-14
1.90386E-07 1.16977E-14
2.09900E-07 9.69632E-15
2.30367E-07 8.10453E-15
2.51785E-07 6.82586E-15
2.74156E-07 5.78876E-15
2.97478E-07 4.94091E-15
3.21752E-07 4.24242E-15
3.46978E-07 3.66282E-15
3.73156E-07 3.17869E-15
4.00286E-07 2.77179E-15
4.28368E-07 2.42783E-15
4.57402E-07 2.13549E-15
4.87388E-07 1.88578E-15
5.18325E-07 1.67146E-15
5.50215E-07 1.48670E-15
5.83057E-07 1.32673E-15
6.16850E-07 1.18767E-15
6.51596E-07 1.06635E-15
6.87293E-07 9.60125E-16
7.23942E-07 8.66794E-16
7.61543E-07 7.84529E-16
1.18991E-06 3.25263E-16
1.71347E-06 1.58173E-16
2.33223E-06 8.59025E-17
3.04617E-06 5.05867E-17
3.85531E-06 3.16915E-17
4.75964E-06 2.08484E-17
5.75916E-06 1.42691E-17
6.85388E-06 1.00911E-17
8.04378E-06 7.33553E-18
9.32888E-06 5.45908E-18
1.07092E-05 4.14574E-18
1.21846E-05 3.20443E-18
1.37553E-05 2.51561E-18
1.54212E-05 2.00222E-18
1.71822E-05 1.61330E-18
1.90385E-05 1.31382E-18
2.09899E-05 1.08158E-18
2.30365E-05 8.98332E-19
2.51783E-05 7.52120E-19
2.74153E-05 6.34339E-19
2.97475E-05 5.38660E-19
3.21749E-05 4.60344E-19
3.46974E-05 3.95778E-19
3.73152E-05 3.42177E-19
4.00281E-05 2.97375E-19
4.28362E-05 2.59681E-19
4.57395E-05 2.27770E-19
4.87380E-05 2.00602E-19
5.18317E-05 1.77352E-19
5.50205E-05 1.57366E-19
5.83045E-05 1.40111E-19
6.16838E-05 1.25158E-19
6.51582E-05 1.12149E-19
6.87277E-05 1.00790E-19
7.23925E-05 9.08356E-20
7.61524E-05 8.22101E-20
9.21439E-05 5.61355E-20
1.09658E-04 3.96209E-20
1.28695E-04 2.87574E-20
1.49255E-04 2.13714E-20
1.71338E-04 1.62114E-20
1.94942E-04 1.25176E-20
2.20070E-04 9.81787E-21
2.46720E-04 7.80782E-21
2.74892E-04 6.28628E-21
3.04586E-04 5.11769E-21
3.35803E-04 4.20811E-21
3.68542E-04 3.49169E-21
4.02802E-04 2.92122E-21
4.38585E-04 2.46245E-21
4.75889E-04 2.09016E-21
5.14715E-04 1.78549E-21
5.55063E-04 1.53425E-21
5.96931E-04 1.32558E-21
6.40321E-04 1.15109E-21
6.85233E-04 1.00431E-21
7.31665E-04 8.80120E-22
7.79618E-04 7.74478E-22
8.29092E-04 6.84160E-22
8.80086E-04 6.06578E-22
9.32601E-04 5.39639E-22
9.86636E-04 4.81638E-22
1.04219E-03 4.31185E-22
1.09927E-03 3.87132E-22
1.15786E-03 3.48530E-22
1.21797E-03 3.14591E-22
1.27961E-03 2.84657E-22
1.34276E-03 2.58174E-22
1.40743E-03 2.34677E-22
1.47362E-03 2.13772E-22
1.54133E-03 1.95123E-22
1.61056E-03 1.78447E-22
1.68131E-03 1.63497E-22
1.75357E-03 1.50065E-22
1.82735E-03 1.37970E-22
1.90265E-03 1.27056E-22
1.97947E-03 1.17188E-22
2.05780E-03 1.08247E-22
2.13765E-03 1.00133E-22
2.21902E-03 9.27546E-23
2.30190E-03 8.60342E-23
2.38630E-03 7.99028E-23
2.47222E-03 7.42997E-23
2.55965E-03 6.91717E-23
2.64859E-03 6.44713E-23
2.73905E-03 6.01568E-23
2.83103E-03 5.61909E-23
2.92452E-03 5.25405E-23
3.01952E-03 4.91763E-23
3.11604E-03 4.60718E-23
3.21407E-03 4.32035E-23
3.31362E-03 4.05504E-23
3.41468E-03 3.80935E-23
3.51725E-03 3.58157E-23
3.62133E-03 3.37017E-23
3.72692E-03 3.17378E-23
3.83403E-03 2.99113E-23
3.94265E-03 2.82111E-23
4.05278E-03 2.66269E-23
4.16442E-03 2.51493E-23
4.27757E-03 2.37701E-23
4.39223E-03 2.24814E-23
4.50840E-03 2.12764E-23
4.62608E-03 2.01486E-23
4.74527E-03 1.90924E-23
4.86597E-03 1.81022E-23
4.98817E-03 1.71734E-23
5.11188E-03 1.63015E-23
5.23711E-03 1.54823E-23
5.36383E-03 1.47122E-23
5.49207E-03 1.39877E-23
5.62181E-03 1.33056E-23
5.75306E-03 1.26630E-23
5.88581E-03 1.20574E-23
6.02007E-03 1.14861E-23
6.15583E-03 1.09469E-23
6.29310E-03 1.04377E-23
6.43187E-03 9.95655E-24
6.57214E-03 9.50166E-24
6.71392E-03 9.07133E-24
6.85720E-03 8.66403E-24
7.00198E-03 8.27831E-24
7.14827E-03 7.91285E-24
7.29605E-03 7.56640E-24
7.44534E-03 7.23781E-24
7.59612E-03 6.92601E-24
7.97965E-03 6.21357E-24
8.37255E-03 5.58614E-24
8.77480E-03 5.03209E-24
9.18641E-03 4.54155E-24
9.60736E-03 4.10617E-24
1.00376E-02 3.71886E-24
1.04773E-02 3.37352E-24
1.09262E-02 3.06496E-24
1.13844E-02 2.78870E-24
1.18520E-02 2.54088E-24
1.23288E-02 2.31816E-24
1.28150E-02 2.11764E-24
1.33104E-02 1.93680E-24
1.38150E-02 1.77345E-24
1.43290E-02 1.62567E-24
1.48521E-02 1.49177E-24
1.53845E-02 1.37028E-24
1.59262E-02 1.25989E-24
1.64770E-02 1.15946E-24
1.70371E-02 1.06798E-24
1.76063E-02 9.84539E-25
1.81848E-02 9.08353E-25
1.87724E-02 8.38711E-25
1.93692E-02 7.74981E-25
1.99751E-02 7.16601E-25
2.05901E-02 6.63070E-25
2.12143E-02 6.13937E-25
2.18476E-02 5.68799E-25
2.24900E-02 5.27295E-25
2.31415E-02 4.89099E-25
2.38021E-02 4.53919E-25
2.44717E-02 4.21492E-25
2.51504E-02 3.91579E-25
2.58382E-02 3.63964E-25
2.65349E-02 3.38454E-25
2.72407E-02 3.14871E-25
2.79555E-02 2.93056E-25
2.86793E-02 2.72864E-25
2.94120E-02 2.54162E-25
3.01537E-02 2.36830E-25
3.09043E-02 2.20759E-25
3.16639E-02 2.05848E-25
3.24324E-02 1.92008E-25
3.32098E-02 1.79154E-25
3.39961E-02 1.67210E-25
3.47912E-02 1.56107E-25
3.55952E-02 1.45781E-25
3.64081E-02 1.36173E-25
3.72297E-02 1.27230E-25
3.80602E-02 1.18902E-25
3.88995E-02 1.11144E-25
3.97476E-02 1.03914E-25
4.06044E-02 9.71746E-26
4.14700E-02 9.08892E-26
4.23443E-02 8.50258E-26
4.32273E-02 7.95543E-26
4.41190E-02 7.44469E-26
4.50194E-02 6.96781E-26
4.59284E-02 6.52241E-26
4.68461E-02 6.10630E-26
4.87074E-02 5.35401E-26
5.06030E-02 4.69647E-26
5.25328E-02 4.12125E-26
5.44967E-02 3.61764E-26
5.64946E-02 3.17642E-26
5.85262E-02 2.78960E-26
6.05914E-02 2.45030E-26
6.26901E-02 2.15253E-26
6.48222E-02 1.89109E-26
6.69873E-02 1.66146E-26
6.91854E-02 1.45971E-26
7.14163E-02 1.28241E-26
7.36799E-02 1.12657E-26
7.59760E-02 9.89569E-27
7.83043E-02 8.69120E-27
8.06647E-02 7.63217E-27
8.30571E-02 6.70105E-27
8.54812E-02 5.88243E-27
8.79369E-02 5.16277E-27
9.04240E-02 4.53020E-27
9.29422E-02 3.97428E-27
9.54915E-02 3.48583E-27
9.80716E-02 3.05676E-27
1.00682E-01 2.67995E-27
1.03323E-01 2.34915E-27
1.05995E-01 2.05884E-27
1.08696E-01 1.80416E-27
1.11427E-01 1.58083E-27
1.14188E-01 1.38506E-27
1.16978E-01 1.21354E-27
1.19797E-01 1.06332E-27
1.22645E-01 9.31829E-28
1.25522E-01 8.16780E-28
1.28428E-01 7.16168E-28
1.31361E-01 6.28222E-28
1.34323E-01 5.51384E-28
1.37313E-01 4.84281E-28
1.40330E-01 4.25706E-28
1.43375E-01 3.74595E-28
1.46447E-01 3.30013E-28
1.49545E-01 2.91137E-28
1.52671E-01 2.57245E-28
1.55823E-01 2.27703E-28
1.59001E-01 2.01954E-28
1.62205E-01 1.79510E-28
1.65435E-01 1.59942E-28
1.68690E-01 1.42876E-28
1.71970E-01 1.27985E-28
1.75276E-01 1.14981E-28
1.78606E-01 1.03616E-28
1.81961E-01 9.36704E-29
1.85340E-01 8.49545E-29
1.88743E-01 7.73030E-29
1.92169E-01 7.05720E-29
1.95619E-01 6.46367E-29
1.99092E-01 5.93890E-29
2.02589E-01 5.47352E-29
2.06107E-01 5.05943E-29
2.09649E-01 4.68963E-29
2.13212E-01 4.35809E-29
2.16797E-01 4.05965E-29
2.20404E-01 3.78982E-29
2.24032E-01 3.54480E-29
2.27680E-01 3.32131E-29
2.31350E-01 3.11656E-29
2.35040E-01 2.92814E-29
2.38751E-01 2.75403E-29
2.42481E-01 2.59249E-29
2.46231E-01 2.44205E-29
2.50000E-01 2.30146E-29
2.53788E-01 2.16966E-29
2.57595E-01 2.04575E-29
2.61421E-01 1.92897E-29
2.65264E-01 1.81867E-29
2.69126E-01 1.71431E-29
2.73005E-01 1.61542E-29
2.76901E-01 1.52160E-29
2.80814E-01 1.43251E-29
2.84744E-01 1.34785E-29
2.88691E-01 1.26739E-29
2.92653E-01 1.19089E-29
2.96632E-01 1.11816E-29
3.00625E-01 1.04902E-29
3.04634E-01 9.83327E-30
3.08658E-01 9.20928E-30
3.12697E-01 8.61695E-30
3.16749E-01 8.05505E-30
3.20816E-01 7.52243E-30
3.24896E-01 7.01798E-30
3.28990E-01 6.54066E-30
3.33097E-01 6.08943E-30
3.37216E-01 5.66330E-30
3.41348E-01 5.26130E-30
3.45492E-01 4.88248E-30
3.49647E-01 4.52591E-30
3.53814E-01 4.19067E-30
3.57992E-01 3.87585E-30
3.62181E-01 3.58056E-30
3.66381E-01 3.30394E-30
3.70590E-01 3.04511E-30
3.74810E-01 2.80325E-30
3.79039E-01 2.57752E-30
3.83277E-01 2.36712E-30
3.87524E-01 2.17127E-30
3.91780E-01 1.98919E-30
3.96044E-01 1.82015E-30
4.00316E-01 1.66343E-30
4.04596E-01 1.51831E-30
4.08882E-01 1.38414E-30
4.13176E-01 1.26025E-30
4.17476E-01 1.14602E-30
4.21783E-01 1.04085E-30
4.26095E-01 9.44163E-31
4.30413E-01 8.55405E-31
4.34737E-01 7.74050E-31
4.39065E-01 6.99596E-31
4.43398E-01 6.31564E-31
4.47736E-01 5.69500E-31
4.52077E-01 5.12974E-31
4.56422E-01 4.61579E-31
4.60770E-01 4.14929E-31
4.65122E-01 3.72663E-31
4.69476E-01 3.34438E-31
4.73832E-01 2.99934E-31
4.78190E-01 2.68849E-31
4.82550E-01 2.40900E-31
4.86912E-01 2.15824E-31
4.91274E-01 1.93375E-31
4.95637E-01 1.73323E-31
5.00000E-01 1.55454E-31
5.04363E-01 1.39570E-31
5.08726E-01 1.25486E-31
5.13088E-01 1.13032E-31
5.17450E-01 1.02050E-31
5.21810E-01 9.23951E-32
5.26168E-01 8.39334E-32
5.30524E-01 7.65417E-32
5.34878E-01 7.01070E-32
5.39230E-01 6.45258E-32
5.43578E-01 5.97034E-32
5.47923E-01 5.55536E-32
5.52264E-01 5.19978E-32
5.56602E-01 4.89645E-32
5.60935E-01 4.63889E-32
5.65263E-01 4.42126E-32
5.69587E-01 4.23827E-32
5.73905E-01 4.08516E-32
5.78217E-01 3.95767E-32
5.82524E-01 3.85198E-32
5.86824E-01 3.76468E-32
5.91118E-01 3.69273E-32
5.95404E-01 3.63347E-32
5.99684E-01 3.58451E-32
6.03956E-01 3.54379E-32
6.08220E-01 3.50946E-32
6.12476E-01 3.47997E-32
6.16723E-01 3.45393E-32
6.20961E-01 3.43017E-32
6.25190E-01 3.40769E-32
6.29410E-01 3.38565E-32
6.33619E-01 3.36334E-32
6.37819E-01 3.34018E-32
6.42008E-01 3.31571E-32
6.46186E-01 3.28954E-32
6.50353E-01 3.26140E-32
6.54508E-01 3.23108E-32
6.58652E-01 3.19844E-32
6.62784E-01 3.16339E-32
6.66903E-01 3.12590E-32
6.71010E-01 3.08597E-32
6.75104E-01 3.04364E-32
6.79184E-01 2.99900E-32
6.83251E-01 2.95214E-32
6.87303E-01 2.90318E-32
6.91342E-01 2.85225E-32
6.95366E-01 2.79950E-32
6.99375E-01 2.74509E-32
7.03368E-01 2.68918E-32
7.07347E-01 2.63194E-32
7.11309E-01 2.57354E-32
7.15256E-01 2.51414E-32
7.19186E-01 2.45391E-32
7.23099E-01 2.39303E-32
7.26995E-01 2.33163E-32
7.30874E-01 2.26990E-32
7.34736E-01 2.20796E-32
7.38579E-01 2.14596E-32
7.42405E-01 2.08404E-32
7.46212E-01 2.02233E-32
7.50000E-01 1.96095E-32
7.53769E-01 1.90000E-32
7.57519E-01 1.83960E-32
7.61249E-01 1.77984E-32
7.64960E-01 1.72082E-32
7.68650E-01 1.66260E-32
7.72320E-01 1.60527E-32
7.75968E-01 1.54889E-32
7.79596E-01 1.49352E-32
7.83203E-01 1.43922E-32
7.86788E-01 1.38603E-32
7.90351E-01 1.33400E-32
7.93893E-01 1.28315E-32
7.97411E-01 1.23351E-32
8.00908E-01 1.18511E-32
8.04381E-01 1.13797E-32
8.07831E-01 1.09210E-32
8.11257E-01 1.04751E-32
8.14660E-01 1.00420E-32
8.18039E-01 9.62172E-33
8.21394E-01 9.21430E-33
8.24724E-01 8.81966E-33
8.28030E-01 8.43770E-33
8.31310E-01 8.06832E-33
8.34565E-01 7.71138E-33
8.37795E-01 7.36672E-33
8.40999E-01 7.03417E-33
8.44177E-01 6.71351E-33
8.47329E-01 6.40456E-33
8.50455E-01 6.10708E-33
8.53553E-01 5.82084E-33
8.56625E-01 5.54558E-33
8.59670E-01 5.28105E-33
8.62687E-01 5.02699E-33
8.65677E-01 4.78312E-33
8.68639E-01 4.54919E-33
8.71572E-01 4.32490E-33
8.74478E-01 4.10999E-33
8.77355E-01 3.90416E-33
8.80203E-01 3.70716E-33
8.83022E-01 3.51868E-33
8.85812E-01 3.33845E-33
8.88573E-01 3.16621E-33
8.91304E-01 3.00168E-33
8.94005E-01 2.84458E-33
8.96677E-01 2.69465E-33
8.99318E-01 2.55164E-33
9.01928E-01 2.41528E-33
9.04508E-01 2.28532E-33
9.07058E-01 2.16151E-33
9.09576E-01 2.04362E-33
9.12063E-01 1.93141E-33
9.14519E-01 1.82464E-33
9.16943E-01 1.72311E-33
9.19335E-01 1.62658E-33
9.21696E-01 1.53485E-33
9.24024E-01 1.44771E-33
9.26320E-01 1.36497E-33
9.28584E-01 1.28643E-33
9.30815E-01 1.21190E-33
9.33013E-01 1.14121E-33
9.35178E-01 1.07419E-33
9.37310E-01 1.01066E-33
9.39409E-01 9.50462E-34
9.41474E-01 8.93445E-34
9.43505E-01 8.39458E-34
9.45503E-01 7.88356E-34
9.47467E-01 7.40002E-34
9.49397E-01 6.94262E-34
9.51293E-01 6.51011E-34
9.53154E-01 6.10124E-34
9.54981E-01 5.71488E-34
9.56773E-01 5.34986E-34
9.58530E-01 5.00514E-34
9.60252E-01 4.67971E-34
9.61940E-01 4.37254E-34
9.63592E-01 4.08274E-34
9.65209E-01 3.80940E-34
9.66790E-01 3.55168E-34
9.68336E-01 3.30875E-34
9.69846E-01 3.07983E-34
9.71321E-01 2.86420E-34
9.72759E-01 2.66117E-34
9.74162E-01 2.47006E-34
9.75528E-01 2.29022E-34
9.76858E-01 2.12107E-34
9.78152E-01 1.96203E-34
9.79410E-01 1.81255E-34
9.80631E-01 1.67214E-34
9.81815E-01 1.54029E-34
9.82963E-01 1.41654E-34
9.84074E-01 1.30046E-34
9.85148E-01 1.19164E-34
9.86185E-01 1.08969E-34
9.87185E-01 9.94239E-35
9.88148E-01 9.04944E-35
9.89074E-01 8.21466E-35
9.89962E-01 7.43499E-35
9.90814E-01 6.70776E-35
9.91627E-01 6.02999E-35
9.92404E-01 5.39928E-35
9.93143E-01 4.81332E-35
9.93844E-01 4.26969E-35
9.94508E-01 3.76642E-35
9.95134E-01 3.30154E-35
9.95722E-01 2.87343E-35
9.96273E-01 2.48023E-35
9.96786E-01 2.12045E-35
9.97261E-01 1.79273E-35
9.97698E-01 1.49584E-35
9.98097E-01 1.22855E-35
9.98459E-01 9.89731E-36
9.98782E-01 7.78554E-36
9.99067E-01 5.94249E-36
9.99315E-01 4.35858E-36
9.99524E-01 3.03019E-36
9.99695E-01 1.94940E-36
9.99829E-01 1.11381E-36
9.99924E-01 5.18946E-37
9.99981E-01 1.63249E-37
1.00000E+00 4.44580E-38
