 #
 # Subroutine ELSEPA. Elastic scattering of electrons and positrons
 #                    by neutral atoms and positive ions
 #
 # Projectile: positron
 # Kinetic energy = 8.00000E+06 eV = 2.93995E+05 a.u.
 #
 # WARNING: High-energy factorization with free-atom DF screening.
 #          Absorption, polarization and exchange corrections are
 #          switched off.
 #          Phase shifts are calculated for the bare nucleus.
 #          Scattering amplitudes are not evaluated.
 #
 # Element: Pm,  Z =  61,  atomic weight = 1.44913E+02 g/mol
 #
 # Nuclear model: Fermi distribution
 #                Average radius = 5.62021E-13 cm
 #                Skin thickness = 5.46000E-14 cm
 #
 # Number of electrons = 61
 #
 # Total elastic cross section = 7.26858E-18 cm**2 = 2.59566E-01 a0**2
 # 1st transport cross section = 7.05477E-23 cm**2 = 2.51930E-06 a0**2
 # 2nd transport cross section = 2.03880E-22 cm**2 = 7.28070E-06 a0**2
 #
 #
 # Differential cross section:                       MU=(1-COS(THETA))/2
 #
 #  THETA        MU          DCS          DCS        Sherman      error
 #  (deg)                 (cm**2/sr)   (a0**2/sr)    function
 #----------------------------------------------------------------------
0.00000E+00 7.04418E-12
7.61557E-13 7.04390E-12
1.18994E-12 7.04374E-12
1.71346E-12 7.04356E-12
2.33225E-12 7.04333E-12
3.04617E-12 7.04308E-12
3.85530E-12 7.04279E-12
4.75964E-12 7.04247E-12
5.75917E-12 7.04211E-12
6.85391E-12 7.04173E-12
8.04379E-12 7.04130E-12
9.32893E-12 7.04085E-12
1.07092E-11 7.04036E-12
1.21847E-11 7.03983E-12
1.37554E-11 7.03928E-12
1.54213E-11 7.03869E-12
1.71823E-11 7.03806E-12
1.90386E-11 7.03741E-12
2.09900E-11 7.03672E-12
2.30367E-11 7.03599E-12
2.51785E-11 7.03524E-12
2.74156E-11 7.03445E-12
2.97478E-11 7.03362E-12
3.21752E-11 7.03277E-12
3.46979E-11 7.03188E-12
3.73157E-11 7.03095E-12
4.00286E-11 7.03000E-12
4.28368E-11 7.02901E-12
4.57402E-11 7.02798E-12
4.87388E-11 7.02693E-12
5.18325E-11 7.02584E-12
5.50215E-11 7.02471E-12
5.83057E-11 7.02356E-12
6.16850E-11 7.02237E-12
6.51595E-11 7.02115E-12
6.87293E-11 7.01989E-12
7.23943E-11 7.01860E-12
7.61544E-11 7.01728E-12
1.18991E-10 7.00227E-12
1.71347E-10 6.98399E-12
2.33223E-10 6.96250E-12
3.04617E-10 6.93784E-12
3.85531E-10 6.91006E-12
4.75965E-10 6.87924E-12
5.75917E-10 6.84544E-12
6.85389E-10 6.80874E-12
8.04380E-10 6.76921E-12
9.32891E-10 6.72695E-12
1.07092E-09 6.68204E-12
1.21847E-09 6.63457E-12
1.37554E-09 6.58466E-12
1.54213E-09 6.53240E-12
1.71823E-09 6.47790E-12
1.90386E-09 6.42126E-12
2.09900E-09 6.36261E-12
2.30367E-09 6.30204E-12
2.51785E-09 6.23969E-12
2.74156E-09 6.17565E-12
2.97478E-09 6.11006E-12
3.21752E-09 6.04315E-12
3.46978E-09 5.97549E-12
3.73156E-09 5.90637E-12
4.00286E-09 5.83588E-12
4.28368E-09 5.76413E-12
4.57402E-09 5.69120E-12
4.87388E-09 5.61721E-12
5.18326E-09 5.54370E-12
5.50215E-09 5.46992E-12
5.83057E-09 5.39536E-12
6.16850E-09 5.32011E-12
6.51596E-09 5.24425E-12
6.87293E-09 5.16786E-12
7.23942E-09 5.09164E-12
7.61544E-09 5.01690E-12
1.18991E-08 4.27735E-12
1.71347E-08 3.60649E-12
2.33223E-08 3.03161E-12
3.04617E-08 2.55768E-12
3.85531E-08 2.17225E-12
4.75965E-08 1.86280E-12
5.75917E-08 1.61184E-12
6.85389E-08 1.40766E-12
8.04380E-08 1.23882E-12
9.32891E-08 1.09751E-12
1.07092E-07 9.77648E-13
1.21847E-07 8.74732E-13
1.37554E-07 7.85422E-13
1.54213E-07 7.07381E-13
1.71823E-07 6.38525E-13
1.90386E-07 5.77747E-13
2.09900E-07 5.23538E-13
2.30367E-07 4.75391E-13
2.51785E-07 4.32245E-13
2.74156E-07 3.93724E-13
2.97478E-07 3.59152E-13
3.21752E-07 3.27759E-13
3.46978E-07 2.98058E-13
3.73156E-07 2.72224E-13
4.00286E-07 2.49656E-13
4.28368E-07 2.29859E-13
4.57402E-07 2.12421E-13
4.87388E-07 1.97003E-13
5.18325E-07 1.81794E-13
5.50215E-07 1.67717E-13
5.83057E-07 1.55210E-13
6.16850E-07 1.44063E-13
6.51596E-07 1.34096E-13
6.87293E-07 1.25156E-13
7.23942E-07 1.16886E-13
7.61543E-07 1.08780E-13
1.18991E-06 5.78367E-14
1.71347E-06 3.33621E-14
2.33223E-06 2.03757E-14
3.04617E-06 1.30387E-14
3.85531E-06 8.72472E-15
4.75964E-06 6.06866E-15
5.75916E-06 4.37287E-15
6.85388E-06 3.24188E-15
8.04378E-06 2.46343E-15
9.32888E-06 1.90621E-15
1.07092E-05 1.49987E-15
1.21846E-05 1.19655E-15
1.37553E-05 9.65664E-16
1.54212E-05 7.87212E-16
1.71822E-05 6.47349E-16
1.90385E-05 5.36688E-16
2.09899E-05 4.48734E-16
2.30365E-05 3.77980E-16
2.51783E-05 3.20432E-16
2.74153E-05 2.73333E-16
2.97475E-05 2.34491E-16
3.21749E-05 2.02272E-16
3.46974E-05 1.75356E-16
3.73152E-05 1.52916E-16
4.00281E-05 1.33939E-16
4.28362E-05 1.17819E-16
4.57395E-05 1.04121E-16
4.87380E-05 9.22812E-17
5.18317E-05 8.21160E-17
5.50205E-05 7.33145E-17
5.83045E-05 6.56492E-17
6.16838E-05 5.89866E-17
6.51582E-05 5.31291E-17
6.87277E-05 4.79927E-17
7.23925E-05 4.34706E-17
7.61524E-05 3.94582E-17
9.21439E-05 2.73970E-17
1.09658E-04 1.96015E-17
1.28695E-04 1.43924E-17
1.49255E-04 1.07984E-17
1.71338E-04 8.25765E-18
1.94942E-04 6.41967E-18
2.20070E-04 5.06432E-18
2.46720E-04 4.04767E-18
2.74892E-04 3.27294E-18
3.04586E-04 2.67474E-18
3.35803E-04 2.20673E-18
3.68542E-04 1.83663E-18
4.02802E-04 1.54078E-18
4.38585E-04 1.30211E-18
4.75889E-04 1.10783E-18
5.14715E-04 9.48425E-19
5.55063E-04 8.16654E-19
5.96931E-04 7.06961E-19
6.40321E-04 6.15065E-19
6.85233E-04 5.37604E-19
7.31665E-04 4.71953E-19
7.79618E-04 4.16006E-19
8.29092E-04 3.68101E-19
8.80086E-04 3.26886E-19
9.32601E-04 2.91274E-19
9.86636E-04 2.60374E-19
1.04219E-03 2.33457E-19
1.09927E-03 2.09925E-19
1.15786E-03 1.89279E-19
1.21797E-03 1.71105E-19
1.27961E-03 1.55055E-19
1.34276E-03 1.40840E-19
1.40743E-03 1.28213E-19
1.47362E-03 1.16967E-19
1.54133E-03 1.06924E-19
1.61056E-03 9.79332E-20
1.68131E-03 8.98651E-20
1.75357E-03 8.26087E-20
1.82735E-03 7.60681E-20
1.90265E-03 7.01599E-20
1.97947E-03 6.48128E-20
2.05780E-03 5.99636E-20
2.13765E-03 5.55582E-20
2.21902E-03 5.15485E-20
2.30190E-03 4.78929E-20
2.38630E-03 4.45545E-20
2.47222E-03 4.15009E-20
2.55965E-03 3.87035E-20
2.64859E-03 3.61369E-20
2.73905E-03 3.37788E-20
2.83103E-03 3.16092E-20
2.92452E-03 2.96103E-20
3.01952E-03 2.77662E-20
3.11604E-03 2.60630E-20
3.21407E-03 2.44876E-20
3.31362E-03 2.30292E-20
3.41468E-03 2.16771E-20
3.51725E-03 2.04225E-20
3.62133E-03 1.92569E-20
3.72692E-03 1.81729E-20
3.83403E-03 1.71639E-20
3.94265E-03 1.62234E-20
4.05278E-03 1.53463E-20
4.16442E-03 1.45273E-20
4.27757E-03 1.37620E-20
4.39223E-03 1.30462E-20
4.50840E-03 1.23761E-20
4.62608E-03 1.17482E-20
4.74527E-03 1.11595E-20
4.86597E-03 1.06070E-20
4.98817E-03 1.00881E-20
5.11188E-03 9.60037E-21
5.23711E-03 9.14160E-21
5.36383E-03 8.70979E-21
5.49207E-03 8.30301E-21
5.62181E-03 7.91959E-21
5.75306E-03 7.55793E-21
5.88581E-03 7.21655E-21
6.02007E-03 6.89414E-21
6.15583E-03 6.58943E-21
6.29310E-03 6.30126E-21
6.43187E-03 6.02860E-21
6.57214E-03 5.77043E-21
6.71392E-03 5.52586E-21
6.85720E-03 5.29404E-21
7.00198E-03 5.07416E-21
7.14827E-03 4.86553E-21
7.29605E-03 4.66744E-21
7.44534E-03 4.47926E-21
7.59612E-03 4.30042E-21
7.97965E-03 3.89063E-21
8.37255E-03 3.52823E-21
8.77480E-03 3.20680E-21
9.18641E-03 2.92095E-21
9.60736E-03 2.66605E-21
1.00376E-02 2.43818E-21
1.04773E-02 2.23399E-21
1.09262E-02 2.05060E-21
1.13844E-02 1.88552E-21
1.18520E-02 1.73661E-21
1.23288E-02 1.60202E-21
1.28150E-02 1.48012E-21
1.33104E-02 1.36952E-21
1.38150E-02 1.26899E-21
1.43290E-02 1.17744E-21
1.48521E-02 1.09395E-21
1.53845E-02 1.01766E-21
1.59262E-02 9.47863E-22
1.64770E-02 8.83900E-22
1.70371E-02 8.25200E-22
1.76063E-02 7.71254E-22
1.81848E-02 7.21609E-22
1.87724E-02 6.75862E-22
1.93692E-02 6.33653E-22
1.99751E-02 5.94659E-22
2.05901E-02 5.58594E-22
2.12143E-02 5.25197E-22
2.18476E-02 4.94238E-22
2.24900E-02 4.65505E-22
2.31415E-02 4.38812E-22
2.38021E-02 4.13988E-22
2.44717E-02 3.90877E-22
2.51504E-02 3.69342E-22
2.58382E-02 3.49255E-22
2.65349E-02 3.30502E-22
2.72407E-02 3.12979E-22
2.79555E-02 2.96590E-22
2.86793E-02 2.81249E-22
2.94120E-02 2.66877E-22
3.01537E-02 2.53402E-22
3.09043E-02 2.40758E-22
3.16639E-02 2.28885E-22
3.24324E-02 2.17727E-22
3.32098E-02 2.07232E-22
3.39961E-02 1.97356E-22
3.47912E-02 1.88055E-22
3.55952E-02 1.79289E-22
3.64081E-02 1.71022E-22
3.72297E-02 1.63221E-22
3.80602E-02 1.55854E-22
3.88995E-02 1.48894E-22
3.97476E-02 1.42313E-22
4.06044E-02 1.36087E-22
4.14700E-02 1.30194E-22
4.23443E-02 1.24613E-22
4.32273E-02 1.19324E-22
4.41190E-02 1.14309E-22
4.50194E-02 1.09551E-22
4.59284E-02 1.05035E-22
4.68461E-02 1.00747E-22
4.87074E-02 9.27989E-23
5.06030E-02 8.56096E-23
5.25328E-02 7.90945E-23
5.44967E-02 7.31795E-23
5.64946E-02 6.77998E-23
5.85262E-02 6.28988E-23
6.05914E-02 5.84268E-23
6.26901E-02 5.43397E-23
6.48222E-02 5.05987E-23
6.69873E-02 4.71693E-23
6.91854E-02 4.40214E-23
7.14163E-02 4.11278E-23
7.36799E-02 3.84645E-23
7.59760E-02 3.60098E-23
7.83043E-02 3.37448E-23
8.06647E-02 3.16522E-23
8.30571E-02 2.97167E-23
8.54812E-02 2.79243E-23
8.79369E-02 2.62628E-23
9.04240E-02 2.47209E-23
9.29422E-02 2.32885E-23
9.54915E-02 2.19565E-23
9.80716E-02 2.07166E-23
1.00682E-01 1.95614E-23
1.03323E-01 1.84840E-23
1.05995E-01 1.74784E-23
1.08696E-01 1.65389E-23
1.11427E-01 1.56605E-23
1.14188E-01 1.48384E-23
1.16978E-01 1.40684E-23
1.19797E-01 1.33467E-23
1.22645E-01 1.26697E-23
1.25522E-01 1.20342E-23
1.28428E-01 1.14371E-23
1.31361E-01 1.08758E-23
1.34323E-01 1.03477E-23
1.37313E-01 9.85055E-24
1.40330E-01 9.38220E-24
1.43375E-01 8.94065E-24
1.46447E-01 8.52417E-24
1.49545E-01 8.13108E-24
1.52671E-01 7.75980E-24
1.55823E-01 7.40893E-24
1.59001E-01 7.07716E-24
1.62205E-01 6.76327E-24
1.65435E-01 6.46612E-24
1.68690E-01 6.18467E-24
1.71970E-01 5.91795E-24
1.75276E-01 5.66504E-24
1.78606E-01 5.42512E-24
1.81961E-01 5.19739E-24
1.85340E-01 4.98114E-24
1.88743E-01 4.77569E-24
1.92169E-01 4.58039E-24
1.95619E-01 4.39467E-24
1.99092E-01 4.21797E-24
2.02589E-01 4.04979E-24
2.06107E-01 3.88962E-24
2.09649E-01 3.73704E-24
2.13212E-01 3.59162E-24
2.16797E-01 3.45296E-24
2.20404E-01 3.32070E-24
2.24032E-01 3.19448E-24
2.27680E-01 3.07400E-24
2.31350E-01 2.95893E-24
2.35040E-01 2.84900E-24
2.38751E-01 2.74394E-24
2.42481E-01 2.64349E-24
2.46231E-01 2.54742E-24
2.50000E-01 2.45551E-24
2.53788E-01 2.36753E-24
2.57595E-01 2.28330E-24
2.61421E-01 2.20263E-24
2.65264E-01 2.12534E-24
2.69126E-01 2.05127E-24
2.73005E-01 1.98026E-24
2.76901E-01 1.91216E-24
2.80814E-01 1.84683E-24
2.84744E-01 1.78414E-24
2.88691E-01 1.72397E-24
2.92653E-01 1.66619E-24
2.96632E-01 1.61070E-24
3.00625E-01 1.55739E-24
3.04634E-01 1.50616E-24
3.08658E-01 1.45691E-24
3.12697E-01 1.40956E-24
3.16749E-01 1.36402E-24
3.20816E-01 1.32020E-24
3.24896E-01 1.27804E-24
3.28990E-01 1.23745E-24
3.33097E-01 1.19837E-24
3.37216E-01 1.16074E-24
3.41348E-01 1.12449E-24
3.45492E-01 1.08956E-24
3.49647E-01 1.05590E-24
3.53814E-01 1.02345E-24
3.57992E-01 9.92157E-25
3.62181E-01 9.61983E-25
3.66381E-01 9.32875E-25
3.70590E-01 9.04790E-25
3.74810E-01 8.77686E-25
3.79039E-01 8.51523E-25
3.83277E-01 8.26263E-25
3.87524E-01 8.01870E-25
3.91780E-01 7.78309E-25
3.96044E-01 7.55546E-25
4.00316E-01 7.33551E-25
4.04596E-01 7.12293E-25
4.08882E-01 6.91743E-25
4.13176E-01 6.71874E-25
4.17476E-01 6.52660E-25
4.21783E-01 6.34075E-25
4.26095E-01 6.16095E-25
4.30413E-01 5.98698E-25
4.34737E-01 5.81862E-25
4.39065E-01 5.65565E-25
4.43398E-01 5.49788E-25
4.47736E-01 5.34510E-25
4.52077E-01 5.19715E-25
4.56422E-01 5.05383E-25
4.60770E-01 4.91499E-25
4.65122E-01 4.78046E-25
4.69476E-01 4.65008E-25
4.73832E-01 4.52370E-25
4.78190E-01 4.40119E-25
4.82550E-01 4.28240E-25
4.86912E-01 4.16721E-25
4.91274E-01 4.05549E-25
4.95637E-01 3.94711E-25
5.00000E-01 3.84196E-25
5.04363E-01 3.73993E-25
5.08726E-01 3.64092E-25
5.13088E-01 3.54481E-25
5.17450E-01 3.45151E-25
5.21810E-01 3.36093E-25
5.26168E-01 3.27297E-25
5.30524E-01 3.18754E-25
5.34878E-01 3.10457E-25
5.39230E-01 3.02397E-25
5.43578E-01 2.94566E-25
5.47923E-01 2.86956E-25
5.52264E-01 2.79561E-25
5.56602E-01 2.72373E-25
5.60935E-01 2.65387E-25
5.65263E-01 2.58594E-25
5.69587E-01 2.51989E-25
5.73905E-01 2.45567E-25
5.78217E-01 2.39320E-25
5.82524E-01 2.33245E-25
5.86824E-01 2.27334E-25
5.91118E-01 2.21584E-25
5.95404E-01 2.15989E-25
5.99684E-01 2.10544E-25
6.03956E-01 2.05245E-25
6.08220E-01 2.00088E-25
6.12476E-01 1.95067E-25
6.16723E-01 1.90179E-25
6.20961E-01 1.85420E-25
6.25190E-01 1.80785E-25
6.29410E-01 1.76272E-25
6.33619E-01 1.71876E-25
6.37819E-01 1.67595E-25
6.42008E-01 1.63424E-25
6.46186E-01 1.59360E-25
6.50353E-01 1.55400E-25
6.54508E-01 1.51542E-25
6.58652E-01 1.47782E-25
6.62784E-01 1.44117E-25
6.66903E-01 1.40545E-25
6.71010E-01 1.37063E-25
6.75104E-01 1.33669E-25
6.79184E-01 1.30359E-25
6.83251E-01 1.27132E-25
6.87303E-01 1.23985E-25
6.91342E-01 1.20916E-25
6.95366E-01 1.17922E-25
6.99375E-01 1.15003E-25
7.03368E-01 1.12155E-25
7.07347E-01 1.09376E-25
7.11309E-01 1.06666E-25
7.15256E-01 1.04021E-25
7.19186E-01 1.01440E-25
7.23099E-01 9.89218E-26
7.26995E-01 9.64641E-26
7.30874E-01 9.40654E-26
7.34736E-01 9.17242E-26
7.38579E-01 8.94389E-26
7.42405E-01 8.72081E-26
7.46212E-01 8.50302E-26
7.50000E-01 8.29039E-26
7.53769E-01 8.08279E-26
7.57519E-01 7.88008E-26
7.61249E-01 7.68214E-26
7.64960E-01 7.48885E-26
7.68650E-01 7.30007E-26
7.72320E-01 7.11571E-26
7.75968E-01 6.93564E-26
7.79596E-01 6.75975E-26
7.83203E-01 6.58795E-26
7.86788E-01 6.42012E-26
7.90351E-01 6.25618E-26
7.93893E-01 6.09601E-26
7.97411E-01 5.93953E-26
8.00908E-01 5.78665E-26
8.04381E-01 5.63727E-26
8.07831E-01 5.49132E-26
8.11257E-01 5.34870E-26
8.14660E-01 5.20934E-26
8.18039E-01 5.07316E-26
8.21394E-01 4.94008E-26
8.24724E-01 4.81003E-26
8.28030E-01 4.68293E-26
8.31310E-01 4.55872E-26
8.34565E-01 4.43732E-26
8.37795E-01 4.31868E-26
8.40999E-01 4.20272E-26
8.44177E-01 4.08938E-26
8.47329E-01 3.97861E-26
8.50455E-01 3.87035E-26
8.53553E-01 3.76453E-26
8.56625E-01 3.66110E-26
8.59670E-01 3.56001E-26
8.62687E-01 3.46120E-26
8.65677E-01 3.36462E-26
8.68639E-01 3.27023E-26
8.71572E-01 3.17798E-26
8.74478E-01 3.08781E-26
8.77355E-01 2.99968E-26
8.80203E-01 2.91356E-26
8.83022E-01 2.82938E-26
8.85812E-01 2.74712E-26
8.88573E-01 2.66673E-26
8.91304E-01 2.58817E-26
8.94005E-01 2.51140E-26
8.96677E-01 2.43639E-26
8.99318E-01 2.36310E-26
9.01928E-01 2.29149E-26
9.04508E-01 2.22153E-26
9.07058E-01 2.15319E-26
9.09576E-01 2.08643E-26
9.12063E-01 2.02121E-26
9.14519E-01 1.95752E-26
9.16943E-01 1.89532E-26
9.19335E-01 1.83458E-26
9.21696E-01 1.77526E-26
9.24024E-01 1.71736E-26
9.26320E-01 1.66083E-26
9.28584E-01 1.60565E-26
9.30815E-01 1.55179E-26
9.33013E-01 1.49924E-26
9.35178E-01 1.44797E-26
9.37310E-01 1.39794E-26
9.39409E-01 1.34915E-26
9.41474E-01 1.30157E-26
9.43505E-01 1.25518E-26
9.45503E-01 1.20995E-26
9.47467E-01 1.16587E-26
9.49397E-01 1.12291E-26
9.51293E-01 1.08107E-26
9.53154E-01 1.04031E-26
9.54981E-01 1.00063E-26
9.56773E-01 9.61995E-27
9.58530E-01 9.24401E-27
9.60252E-01 8.87828E-27
9.61940E-01 8.52259E-27
9.63592E-01 8.17680E-27
9.65209E-01 7.84076E-27
9.66790E-01 7.51432E-27
9.68336E-01 7.19733E-27
9.69846E-01 6.88967E-27
9.71321E-01 6.59120E-27
9.72759E-01 6.30180E-27
9.74162E-01 6.02135E-27
9.75528E-01 5.74971E-27
9.76858E-01 5.48679E-27
9.78152E-01 5.23246E-27
9.79410E-01 4.98663E-27
9.80631E-01 4.74918E-27
9.81815E-01 4.52003E-27
9.82963E-01 4.29906E-27
9.84074E-01 4.08620E-27
9.85148E-01 3.88135E-27
9.86185E-01 3.68443E-27
9.87185E-01 3.49535E-27
9.88148E-01 3.31404E-27
9.89074E-01 3.14043E-27
9.89962E-01 2.97443E-27
9.90814E-01 2.81599E-27
9.91627E-01 2.66504E-27
9.92404E-01 2.52151E-27
9.93143E-01 2.38535E-27
9.93844E-01 2.25650E-27
9.94508E-01 2.13491E-27
9.95134E-01 2.02053E-27
9.95722E-01 1.91332E-27
9.96273E-01 1.81322E-27
9.96786E-01 1.72020E-27
9.97261E-01 1.63422E-27
9.97698E-01 1.55525E-27
9.98097E-01 1.48325E-27
9.98459E-01 1.41819E-27
9.98782E-01 1.36006E-27
9.99067E-01 1.30882E-27
9.99315E-01 1.26445E-27
9.99524E-01 1.22694E-27
9.99695E-01 1.19627E-27
9.99829E-01 1.17242E-27
9.99924E-01 1.15540E-27
9.99981E-01 1.14519E-27
1.00000E+00 1.14179E-27
