 #
 # Subroutine ELSEPA. Elastic scattering of electrons and positrons
 #                    by neutral atoms and positive ions
 #
 # Projectile: positron
 # Kinetic energy = 2.00000E+06 eV = 7.34987E+04 a.u.
 #
 # WARNING: High-energy factorization with free-atom DF screening.
 #          Absorption, polarization and exchange corrections are
 #          switched off.
 #          Phase shifts are calculated for the bare nucleus.
 #          Scattering amplitudes are not evaluated.
 #
 # Element: Pm,  Z =  61,  atomic weight = 1.44913E+02 g/mol
 #
 # Nuclear model: Fermi distribution
 #                Average radius = 5.62021E-13 cm
 #                Skin thickness = 5.46000E-14 cm
 #
 # Number of electrons = 61
 #
 # Total elastic cross section = 7.54511E-18 cm**2 = 2.69441E-01 a0**2
 # 1st transport cross section = 6.76289E-22 cm**2 = 2.41507E-05 a0**2
 # 2nd transport cross section = 1.92584E-21 cm**2 = 6.87728E-05 a0**2
 #
 #
 # Differential cross section:                       MU=(1-COS(THETA))/2
 #
 #  THETA        MU          DCS          DCS        Sherman      error
 #  (deg)                 (cm**2/sr)   (a0**2/sr)    function
 #----------------------------------------------------------------------
0.00000E+00 6.13144E-13
7.61557E-13 6.13141E-13
1.18994E-12 6.13140E-13
1.71346E-12 6.13139E-13
2.33225E-12 6.13137E-13
3.04617E-12 6.13135E-13
3.85530E-12 6.13133E-13
4.75964E-12 6.13130E-13
5.75917E-12 6.13127E-13
6.85391E-12 6.13124E-13
8.04379E-12 6.13121E-13
9.32893E-12 6.13118E-13
1.07092E-11 6.13114E-13
1.21847E-11 6.13110E-13
1.37554E-11 6.13106E-13
1.54213E-11 6.13101E-13
1.71823E-11 6.13097E-13
1.90386E-11 6.13092E-13
2.09900E-11 6.13087E-13
2.30367E-11 6.13081E-13
2.51785E-11 6.13076E-13
2.74156E-11 6.13070E-13
2.97478E-11 6.13064E-13
3.21752E-11 6.13057E-13
3.46979E-11 6.13051E-13
3.73157E-11 6.13044E-13
4.00286E-11 6.13037E-13
4.28368E-11 6.13029E-13
4.57402E-11 6.13022E-13
4.87388E-11 6.13014E-13
5.18325E-11 6.13006E-13
5.50215E-11 6.12997E-13
5.83057E-11 6.12989E-13
6.16850E-11 6.12980E-13
6.51595E-11 6.12971E-13
6.87293E-11 6.12961E-13
7.23943E-11 6.12952E-13
7.61544E-11 6.12942E-13
1.18991E-10 6.12830E-13
1.71347E-10 6.12695E-13
2.33223E-10 6.12534E-13
3.04617E-10 6.12349E-13
3.85531E-10 6.12140E-13
4.75965E-10 6.11907E-13
5.75917E-10 6.11650E-13
6.85389E-10 6.11368E-13
8.04380E-10 6.11062E-13
9.32891E-10 6.10732E-13
1.07092E-09 6.10378E-13
1.21847E-09 6.10001E-13
1.37554E-09 6.09599E-13
1.54213E-09 6.09174E-13
1.71823E-09 6.08724E-13
1.90386E-09 6.08252E-13
2.09900E-09 6.07755E-13
2.30367E-09 6.07236E-13
2.51785E-09 6.06693E-13
2.74156E-09 6.06126E-13
2.97478E-09 6.05537E-13
3.21752E-09 6.04925E-13
3.46978E-09 6.04289E-13
3.73156E-09 6.03632E-13
4.00286E-09 6.02951E-13
4.28368E-09 6.02248E-13
4.57402E-09 6.01522E-13
4.87388E-09 6.00775E-13
5.18326E-09 6.00005E-13
5.50215E-09 5.99213E-13
5.83057E-09 5.98399E-13
6.16850E-09 5.97564E-13
6.51596E-09 5.96708E-13
6.87293E-09 5.95829E-13
7.23942E-09 5.94930E-13
7.61544E-09 5.94010E-13
1.18991E-08 5.83691E-13
1.71347E-08 5.71478E-13
2.33223E-08 5.57584E-13
3.04617E-08 5.42238E-13
3.85531E-08 5.25699E-13
4.75965E-08 5.08294E-13
5.75917E-08 4.89963E-13
6.85389E-08 4.71348E-13
8.04380E-08 4.52291E-13
9.32891E-08 4.33264E-13
1.07092E-07 4.14295E-13
1.21847E-07 3.95541E-13
1.37554E-07 3.77287E-13
1.54213E-07 3.59325E-13
1.71823E-07 3.42222E-13
1.90386E-07 3.25465E-13
2.09900E-07 3.09707E-13
2.30367E-07 2.94444E-13
2.51785E-07 2.80060E-13
2.74156E-07 2.66349E-13
2.97478E-07 2.53372E-13
3.21752E-07 2.41174E-13
3.46978E-07 2.29567E-13
3.73156E-07 2.18784E-13
4.00286E-07 2.08472E-13
4.28368E-07 1.98966E-13
4.57402E-07 1.89901E-13
4.87388E-07 1.81467E-13
5.18325E-07 1.73500E-13
5.50215E-07 1.66025E-13
5.83057E-07 1.59010E-13
6.16850E-07 1.52384E-13
6.51596E-07 1.46187E-13
6.87293E-07 1.40305E-13
7.23942E-07 1.34808E-13
7.61543E-07 1.29587E-13
1.18991E-06 9.03762E-14
1.71347E-06 6.57554E-14
2.33223E-06 4.89784E-14
3.04617E-06 3.70630E-14
3.85531E-06 2.83766E-14
4.75964E-06 2.18193E-14
5.75916E-06 1.73396E-14
6.85388E-06 1.37766E-14
8.04378E-06 1.11631E-14
9.32888E-06 9.11893E-15
1.07092E-05 7.52800E-15
1.21846E-05 6.28122E-15
1.37553E-05 5.26380E-15
1.54212E-05 4.46368E-15
1.71822E-05 3.78484E-15
1.90385E-05 3.24470E-15
2.09899E-05 2.78253E-15
2.30365E-05 2.40584E-15
2.51783E-05 2.08453E-15
2.74153E-05 1.81469E-15
2.97475E-05 1.58635E-15
3.21749E-05 1.39087E-15
3.46974E-05 1.22595E-15
3.73152E-05 1.08292E-15
4.00281E-05 9.61838E-16
4.28362E-05 8.55869E-16
4.57395E-05 7.65111E-16
4.87380E-05 6.85785E-16
5.18317E-05 6.16841E-16
5.50205E-05 5.56485E-16
5.83045E-05 5.03469E-16
6.16838E-05 4.56923E-16
6.51582E-05 4.15663E-16
6.87277E-05 3.79304E-16
7.23925E-05 3.46771E-16
7.61524E-05 3.17929E-16
9.21439E-05 2.29069E-16
1.09658E-04 1.69528E-16
1.28695E-04 1.28316E-16
1.49255E-04 9.89282E-17
1.71338E-04 7.74171E-17
1.94942E-04 6.13535E-17
2.20070E-04 4.91896E-17
2.46720E-04 3.98644E-17
2.74892E-04 3.26311E-17
3.04586E-04 2.69531E-17
3.35803E-04 2.24494E-17
3.68542E-04 1.88441E-17
4.02802E-04 1.59253E-17
4.38585E-04 1.35586E-17
4.75889E-04 1.16174E-17
5.14715E-04 1.00095E-17
5.55063E-04 8.67475E-18
5.96931E-04 7.55143E-18
6.40321E-04 6.60870E-18
6.85233E-04 5.80523E-18
7.31665E-04 5.12300E-18
7.79618E-04 4.53672E-18
8.29092E-04 4.03273E-18
8.80086E-04 3.59670E-18
9.32601E-04 3.21788E-18
9.86636E-04 2.88806E-18
1.04219E-03 2.59876E-18
1.09927E-03 2.34547E-18
1.15786E-03 2.12143E-18
1.21797E-03 1.92403E-18
1.27961E-03 1.74860E-18
1.34276E-03 1.59290E-18
1.40743E-03 1.45397E-18
1.47362E-03 1.32981E-18
1.54133E-03 1.21863E-18
1.61056E-03 1.11867E-18
1.68131E-03 1.02886E-18
1.75357E-03 9.47656E-19
1.82735E-03 8.74422E-19
1.90265E-03 8.07960E-19
1.97947E-03 7.47744E-19
2.05780E-03 6.92961E-19
2.13765E-03 6.43093E-19
2.21902E-03 5.97613E-19
2.30190E-03 5.56036E-19
2.38630E-03 5.18029E-19
2.47222E-03 4.83151E-19
2.55965E-03 4.51190E-19
2.64859E-03 4.21767E-19
2.73905E-03 3.94722E-19
2.83103E-03 3.69779E-19
2.92452E-03 3.46774E-19
3.01952E-03 3.25520E-19
3.11604E-03 3.05855E-19
3.21407E-03 2.87655E-19
3.31362E-03 2.70768E-19
3.41468E-03 2.55111E-19
3.51725E-03 2.40547E-19
3.62133E-03 2.27014E-19
3.72692E-03 2.14406E-19
3.83403E-03 2.02662E-19
3.94265E-03 1.91705E-19
4.05278E-03 1.81475E-19
4.16442E-03 1.71917E-19
4.27757E-03 1.62973E-19
4.39223E-03 1.54605E-19
4.50840E-03 1.46759E-19
4.62608E-03 1.39407E-19
4.74527E-03 1.32503E-19
4.86597E-03 1.26022E-19
4.98817E-03 1.19930E-19
5.11188E-03 1.14199E-19
5.23711E-03 1.08806E-19
5.36383E-03 1.03724E-19
5.49207E-03 9.89367E-20
5.62181E-03 9.44185E-20
5.75306E-03 9.01561E-20
5.88581E-03 8.61285E-20
6.02007E-03 8.23236E-20
6.15583E-03 7.87247E-20
6.29310E-03 7.53198E-20
6.43187E-03 7.20962E-20
6.57214E-03 6.90419E-20
6.71392E-03 6.61477E-20
6.85720E-03 6.34018E-20
7.00198E-03 6.07972E-20
7.14827E-03 5.83234E-20
7.29605E-03 5.59743E-20
7.44534E-03 5.37412E-20
7.59612E-03 5.16180E-20
7.97965E-03 4.67491E-20
8.37255E-03 4.24383E-20
8.77480E-03 3.86105E-20
9.18641E-03 3.52025E-20
9.60736E-03 3.21606E-20
1.00376E-02 2.94386E-20
1.04773E-02 2.69970E-20
1.09262E-02 2.48020E-20
1.13844E-02 2.28244E-20
1.18520E-02 2.10389E-20
1.23288E-02 1.94236E-20
1.28150E-02 1.79594E-20
1.33104E-02 1.66298E-20
1.38150E-02 1.54202E-20
1.43290E-02 1.43179E-20
1.48521E-02 1.33117E-20
1.53845E-02 1.23918E-20
1.59262E-02 1.15494E-20
1.64770E-02 1.07769E-20
1.70371E-02 1.00674E-20
1.76063E-02 9.41497E-21
1.81848E-02 8.81411E-21
1.87724E-02 8.26007E-21
1.93692E-02 7.74855E-21
1.99751E-02 7.27570E-21
2.05901E-02 6.83809E-21
2.12143E-02 6.43261E-21
2.18476E-02 6.05651E-21
2.24900E-02 5.70725E-21
2.31415E-02 5.38259E-21
2.38021E-02 5.08049E-21
2.44717E-02 4.79910E-21
2.51504E-02 4.53675E-21
2.58382E-02 4.29192E-21
2.65349E-02 4.06323E-21
2.72407E-02 3.84943E-21
2.79555E-02 3.64938E-21
2.86793E-02 3.46203E-21
2.94120E-02 3.28643E-21
3.01537E-02 3.12171E-21
3.09043E-02 2.96708E-21
3.16639E-02 2.82181E-21
3.24324E-02 2.68523E-21
3.32098E-02 2.55674E-21
3.39961E-02 2.43575E-21
3.47912E-02 2.32176E-21
3.55952E-02 2.21430E-21
3.64081E-02 2.11291E-21
3.72297E-02 2.01719E-21
3.80602E-02 1.92677E-21
3.88995E-02 1.84131E-21
3.97476E-02 1.76049E-21
4.06044E-02 1.68398E-21
4.14700E-02 1.61156E-21
4.23443E-02 1.54293E-21
4.32273E-02 1.47788E-21
4.41190E-02 1.41618E-21
4.50194E-02 1.35763E-21
4.59284E-02 1.30204E-21
4.68461E-02 1.24923E-21
4.87074E-02 1.15131E-21
5.06030E-02 1.06269E-21
5.25328E-02 9.82327E-22
5.44967E-02 9.09332E-22
5.64946E-02 8.42907E-22
5.85262E-02 7.82362E-22
6.05914E-02 7.27088E-22
6.26901E-02 6.76547E-22
6.48222E-02 6.30265E-22
6.69873E-02 5.87821E-22
6.91854E-02 5.48843E-22
7.14163E-02 5.12997E-22
7.36799E-02 4.79989E-22
7.59760E-02 4.49557E-22
7.83043E-02 4.21463E-22
8.06647E-02 3.95498E-22
8.30571E-02 3.71473E-22
8.54812E-02 3.49217E-22
8.79369E-02 3.28577E-22
9.04240E-02 3.09417E-22
9.29422E-02 2.91610E-22
9.54915E-02 2.75046E-22
9.80716E-02 2.59623E-22
1.00682E-01 2.45248E-22
1.03323E-01 2.31837E-22
1.05995E-01 2.19316E-22
1.08696E-01 2.07614E-22
1.11427E-01 1.96668E-22
1.14188E-01 1.86421E-22
1.16978E-01 1.76822E-22
1.19797E-01 1.67821E-22
1.22645E-01 1.59375E-22
1.25522E-01 1.51444E-22
1.28428E-01 1.43991E-22
1.31361E-01 1.36982E-22
1.34323E-01 1.30385E-22
1.37313E-01 1.24174E-22
1.40330E-01 1.18320E-22
1.43375E-01 1.12801E-22
1.46447E-01 1.07593E-22
1.49545E-01 1.02675E-22
1.52671E-01 9.80298E-23
1.55823E-01 9.36385E-23
1.59001E-01 8.94850E-23
1.62205E-01 8.55542E-23
1.65435E-01 8.18320E-23
1.68690E-01 7.83055E-23
1.71970E-01 7.49625E-23
1.75276E-01 7.17918E-23
1.78606E-01 6.87831E-23
1.81961E-01 6.59265E-23
1.85340E-01 6.32131E-23
1.88743E-01 6.06345E-23
1.92169E-01 5.81826E-23
1.95619E-01 5.58503E-23
1.99092E-01 5.36308E-23
2.02589E-01 5.15175E-23
2.06107E-01 4.95045E-23
2.09649E-01 4.75863E-23
2.13212E-01 4.57575E-23
2.16797E-01 4.40133E-23
2.20404E-01 4.23492E-23
2.24032E-01 4.07607E-23
2.27680E-01 3.92438E-23
2.31350E-01 3.77948E-23
2.35040E-01 3.64100E-23
2.38751E-01 3.50862E-23
2.42481E-01 3.38202E-23
2.46231E-01 3.26089E-23
2.50000E-01 3.14498E-23
2.53788E-01 3.03400E-23
2.57595E-01 2.92772E-23
2.61421E-01 2.82590E-23
2.65264E-01 2.72832E-23
2.69126E-01 2.63477E-23
2.73005E-01 2.54506E-23
2.76901E-01 2.45901E-23
2.80814E-01 2.37643E-23
2.84744E-01 2.29717E-23
2.88691E-01 2.22106E-23
2.92653E-01 2.14797E-23
2.96632E-01 2.07774E-23
3.00625E-01 2.01026E-23
3.04634E-01 1.94538E-23
3.08658E-01 1.88300E-23
3.12697E-01 1.82300E-23
3.16749E-01 1.76528E-23
3.20816E-01 1.70973E-23
3.24896E-01 1.65625E-23
3.28990E-01 1.60477E-23
3.33097E-01 1.55518E-23
3.37216E-01 1.50742E-23
3.41348E-01 1.46139E-23
3.45492E-01 1.41703E-23
3.49647E-01 1.37426E-23
3.53814E-01 1.33302E-23
3.57992E-01 1.29325E-23
3.62181E-01 1.25488E-23
3.66381E-01 1.21785E-23
3.70590E-01 1.18211E-23
3.74810E-01 1.14761E-23
3.79039E-01 1.11430E-23
3.83277E-01 1.08212E-23
3.87524E-01 1.05104E-23
3.91780E-01 1.02101E-23
3.96044E-01 9.91989E-24
4.00316E-01 9.63936E-24
4.04596E-01 9.36813E-24
4.08882E-01 9.10586E-24
4.13176E-01 8.85219E-24
4.17476E-01 8.60679E-24
4.21783E-01 8.36936E-24
4.26095E-01 8.13958E-24
4.30413E-01 7.91717E-24
4.34737E-01 7.70185E-24
4.39065E-01 7.49336E-24
4.43398E-01 7.29144E-24
4.47736E-01 7.09586E-24
4.52077E-01 6.90638E-24
4.56422E-01 6.72277E-24
4.60770E-01 6.54483E-24
4.65122E-01 6.37235E-24
4.69476E-01 6.20513E-24
4.73832E-01 6.04299E-24
4.78190E-01 5.88576E-24
4.82550E-01 5.73324E-24
4.86912E-01 5.58529E-24
4.91274E-01 5.44174E-24
4.95637E-01 5.30244E-24
5.00000E-01 5.16723E-24
5.04363E-01 5.03600E-24
5.08726E-01 4.90859E-24
5.13088E-01 4.78487E-24
5.17450E-01 4.66473E-24
5.21810E-01 4.54804E-24
5.26168E-01 4.43469E-24
5.30524E-01 4.32456E-24
5.34878E-01 4.21755E-24
5.39230E-01 4.11356E-24
5.43578E-01 4.01249E-24
5.47923E-01 3.91423E-24
5.52264E-01 3.81871E-24
5.56602E-01 3.72583E-24
5.60935E-01 3.63551E-24
5.65263E-01 3.54766E-24
5.69587E-01 3.46222E-24
5.73905E-01 3.37909E-24
5.78217E-01 3.29822E-24
5.82524E-01 3.21952E-24
5.86824E-01 3.14293E-24
5.91118E-01 3.06839E-24
5.95404E-01 2.99583E-24
5.99684E-01 2.92519E-24
6.03956E-01 2.85642E-24
6.08220E-01 2.78945E-24
6.12476E-01 2.72424E-24
6.16723E-01 2.66072E-24
6.20961E-01 2.59885E-24
6.25190E-01 2.53857E-24
6.29410E-01 2.47985E-24
6.33619E-01 2.42264E-24
6.37819E-01 2.36688E-24
6.42008E-01 2.31254E-24
6.46186E-01 2.25958E-24
6.50353E-01 2.20796E-24
6.54508E-01 2.15763E-24
6.58652E-01 2.10856E-24
6.62784E-01 2.06072E-24
6.66903E-01 2.01407E-24
6.71010E-01 1.96857E-24
6.75104E-01 1.92420E-24
6.79184E-01 1.88091E-24
6.83251E-01 1.83869E-24
6.87303E-01 1.79750E-24
6.91342E-01 1.75732E-24
6.95366E-01 1.71810E-24
6.99375E-01 1.67984E-24
7.03368E-01 1.64250E-24
7.07347E-01 1.60606E-24
7.11309E-01 1.57049E-24
7.15256E-01 1.53577E-24
7.19186E-01 1.50187E-24
7.23099E-01 1.46878E-24
7.26995E-01 1.43647E-24
7.30874E-01 1.40493E-24
7.34736E-01 1.37413E-24
7.38579E-01 1.34405E-24
7.42405E-01 1.31467E-24
7.46212E-01 1.28598E-24
7.50000E-01 1.25795E-24
7.53769E-01 1.23058E-24
7.57519E-01 1.20384E-24
7.61249E-01 1.17772E-24
7.64960E-01 1.15219E-24
7.68650E-01 1.12726E-24
7.72320E-01 1.10289E-24
7.75968E-01 1.07909E-24
7.79596E-01 1.05582E-24
7.83203E-01 1.03309E-24
7.86788E-01 1.01087E-24
7.90351E-01 9.89160E-25
7.93893E-01 9.67938E-25
7.97411E-01 9.47195E-25
8.00908E-01 9.26921E-25
8.04381E-01 9.07102E-25
8.07831E-01 8.87730E-25
8.11257E-01 8.68792E-25
8.14660E-01 8.50278E-25
8.18039E-01 8.32179E-25
8.21394E-01 8.14484E-25
8.24724E-01 7.97185E-25
8.28030E-01 7.80271E-25
8.31310E-01 7.63734E-25
8.34565E-01 7.47565E-25
8.37795E-01 7.31756E-25
8.40999E-01 7.16298E-25
8.44177E-01 7.01183E-25
8.47329E-01 6.86404E-25
8.50455E-01 6.71953E-25
8.53553E-01 6.57822E-25
8.56625E-01 6.44005E-25
8.59670E-01 6.30494E-25
8.62687E-01 6.17284E-25
8.65677E-01 6.04366E-25
8.68639E-01 5.91735E-25
8.71572E-01 5.79385E-25
8.74478E-01 5.67309E-25
8.77355E-01 5.55502E-25
8.80203E-01 5.43958E-25
8.83022E-01 5.32671E-25
8.85812E-01 5.21636E-25
8.88573E-01 5.10848E-25
8.91304E-01 5.00301E-25
8.94005E-01 4.89991E-25
8.96677E-01 4.79913E-25
8.99318E-01 4.70062E-25
9.01928E-01 4.60433E-25
9.04508E-01 4.51023E-25
9.07058E-01 4.41826E-25
9.09576E-01 4.32839E-25
9.12063E-01 4.24057E-25
9.14519E-01 4.15476E-25
9.16943E-01 4.07093E-25
9.19335E-01 3.98904E-25
9.21696E-01 3.90905E-25
9.24024E-01 3.83093E-25
9.26320E-01 3.75463E-25
9.28584E-01 3.68013E-25
9.30815E-01 3.60740E-25
9.33013E-01 3.53640E-25
9.35178E-01 3.46710E-25
9.37310E-01 3.39948E-25
9.39409E-01 3.33349E-25
9.41474E-01 3.26912E-25
9.43505E-01 3.20634E-25
9.45503E-01 3.14511E-25
9.47467E-01 3.08542E-25
9.49397E-01 3.02723E-25
9.51293E-01 2.97053E-25
9.53154E-01 2.91529E-25
9.54981E-01 2.86148E-25
9.56773E-01 2.80909E-25
9.58530E-01 2.75809E-25
9.60252E-01 2.70846E-25
9.61940E-01 2.66018E-25
9.63592E-01 2.61323E-25
9.65209E-01 2.56759E-25
9.66790E-01 2.52324E-25
9.68336E-01 2.48017E-25
9.69846E-01 2.43835E-25
9.71321E-01 2.39778E-25
9.72759E-01 2.35842E-25
9.74162E-01 2.32027E-25
9.75528E-01 2.28332E-25
9.76858E-01 2.24754E-25
9.78152E-01 2.21292E-25
9.79410E-01 2.17945E-25
9.80631E-01 2.14712E-25
9.81815E-01 2.11591E-25
9.82963E-01 2.08581E-25
9.84074E-01 2.05680E-25
9.85148E-01 2.02889E-25
9.86185E-01 2.00204E-25
9.87185E-01 1.97627E-25
9.88148E-01 1.95155E-25
9.89074E-01 1.92787E-25
9.89962E-01 1.90523E-25
9.90814E-01 1.88362E-25
9.91627E-01 1.86302E-25
9.92404E-01 1.84344E-25
9.93143E-01 1.82485E-25
9.93844E-01 1.80727E-25
9.94508E-01 1.79067E-25
9.95134E-01 1.77505E-25
9.95722E-01 1.76041E-25
9.96273E-01 1.74675E-25
9.96786E-01 1.73404E-25
9.97261E-01 1.72230E-25
9.97698E-01 1.71151E-25
9.98097E-01 1.70168E-25
9.98459E-01 1.69279E-25
9.98782E-01 1.68485E-25
9.99067E-01 1.67785E-25
9.99315E-01 1.67179E-25
9.99524E-01 1.66666E-25
9.99695E-01 1.66247E-25
9.99829E-01 1.65921E-25
9.99924E-01 1.65689E-25
9.99981E-01 1.65549E-25
1.00000E+00 1.65503E-25
