 #
 # Subroutine ELSEPA. Elastic scattering of electrons and positrons
 #                    by neutral atoms and positive ions
 #
 # Projectile: positron
 # Kinetic energy = 1.00000E+08 eV = 3.67493E+06 a.u.
 #
 # WARNING: High-energy factorization with free-atom DF screening.
 #          Absorption, polarization and exchange corrections are
 #          switched off.
 #          Phase shifts are calculated for the bare nucleus.
 #          Scattering amplitudes are not evaluated.
 #
 # Element: Pm,  Z =  61,  atomic weight = 1.44913E+02 g/mol
 #
 # Nuclear model: Fermi distribution
 #                Average radius = 5.62021E-13 cm
 #                Skin thickness = 5.46000E-14 cm
 #
 # Number of electrons = 61
 #
 # Total elastic cross section = 7.24705E-18 cm**2 = 2.58797E-01 a0**2
 # 1st transport cross section = 6.92139E-25 cm**2 = 2.47167E-08 a0**2
 # 2nd transport cross section = 2.05711E-24 cm**2 = 7.34609E-08 a0**2
 #
 #
 # Differential cross section:                       MU=(1-COS(THETA))/2
 #
 #  THETA        MU          DCS          DCS        Sherman      error
 #  (deg)                 (cm**2/sr)   (a0**2/sr)    function
 #----------------------------------------------------------------------
0.00000E+00 9.82418E-10
7.61557E-13 9.77186E-10
1.18994E-12 9.74266E-10
1.71346E-12 9.70719E-10
2.33225E-12 9.66553E-10
3.04617E-12 9.61784E-10
3.85530E-12 9.56426E-10
4.75964E-12 9.50496E-10
5.75917E-12 9.44011E-10
6.85391E-12 9.36992E-10
8.04379E-12 9.29461E-10
9.32893E-12 9.21439E-10
1.07092E-11 9.12950E-10
1.21847E-11 9.04018E-10
1.37554E-11 8.94667E-10
1.54213E-11 8.84925E-10
1.71823E-11 8.74818E-10
1.90386E-11 8.64371E-10
2.09900E-11 8.53612E-10
2.30367E-11 8.42588E-10
2.51785E-11 8.31396E-10
2.74156E-11 8.19922E-10
2.97478E-11 8.08190E-10
3.21752E-11 7.96221E-10
3.46979E-11 7.84038E-10
3.73157E-11 7.71904E-10
4.00286E-11 7.59703E-10
4.28368E-11 7.47355E-10
4.57402E-11 7.34879E-10
4.87388E-11 7.22295E-10
5.18325E-11 7.09721E-10
5.50215E-11 6.97382E-10
5.83057E-11 6.84990E-10
6.16850E-11 6.72562E-10
6.51595E-11 6.60113E-10
6.87293E-11 6.47659E-10
7.23943E-11 6.35558E-10
7.61544E-11 6.23573E-10
1.18991E-10 5.10371E-10
1.71347E-10 4.15613E-10
2.33223E-10 3.40408E-10
3.04617E-10 2.81827E-10
3.85531E-10 2.36370E-10
4.75965E-10 2.00795E-10
5.75917E-10 1.72512E-10
6.85389E-10 1.49604E-10
8.04380E-10 1.30679E-10
9.32891E-10 1.14801E-10
1.07092E-09 1.01306E-10
1.21847E-09 8.97230E-11
1.37554E-09 7.97041E-11
1.54213E-09 7.09864E-11
1.71823E-09 6.33599E-11
1.90386E-09 5.66829E-11
2.09900E-09 5.08234E-11
2.30367E-09 4.56078E-11
2.51785E-09 4.07858E-11
2.74156E-09 3.66931E-11
2.97478E-09 3.31983E-11
3.21752E-09 3.01970E-11
3.46978E-09 2.76051E-11
3.73156E-09 2.51067E-11
4.00286E-09 2.28423E-11
4.28368E-09 2.08712E-11
4.57402E-09 1.91478E-11
4.87388E-09 1.76344E-11
5.18326E-09 1.62626E-11
5.50215E-09 1.49428E-11
5.83057E-09 1.37756E-11
6.16850E-09 1.27396E-11
6.51596E-09 1.18170E-11
6.87293E-09 1.09925E-11
7.23942E-09 1.01949E-11
7.61544E-09 9.46482E-12
1.18991E-08 4.87217E-12
1.71347E-08 2.72001E-12
2.33223E-08 1.61951E-12
3.04617E-08 1.02454E-12
3.85531E-08 6.83100E-13
4.75965E-08 4.75667E-13
5.75917E-08 3.43021E-13
6.85389E-08 2.53924E-13
8.04380E-08 1.92167E-13
9.32891E-08 1.48101E-13
1.07092E-07 1.15854E-13
1.21847E-07 9.17989E-14
1.37554E-07 7.35937E-14
1.54213E-07 5.96450E-14
1.71823E-07 4.88253E-14
1.90386E-07 4.03381E-14
2.09900E-07 3.36083E-14
2.30367E-07 2.82181E-14
2.51785E-07 2.38601E-14
2.74156E-07 2.03357E-14
2.97478E-07 1.74226E-14
3.21752E-07 1.50263E-14
3.46978E-07 1.30228E-14
3.73156E-07 1.13473E-14
4.00286E-07 9.93231E-15
4.28368E-07 8.73260E-15
4.57402E-07 7.70962E-15
4.87388E-07 6.83143E-15
5.18325E-07 6.07651E-15
5.50215E-07 5.42167E-15
5.83057E-07 4.85459E-15
6.16850E-07 4.35801E-15
6.51596E-07 3.92478E-15
6.87293E-07 3.54295E-15
7.23942E-07 3.20716E-15
7.61543E-07 2.90978E-15
1.18991E-06 1.22884E-15
1.71347E-06 6.03713E-16
2.33223E-06 3.29865E-16
3.04617E-06 1.95036E-16
3.85531E-06 1.22567E-16
4.75964E-06 8.08447E-17
5.75916E-06 5.54621E-17
6.85388E-06 3.93066E-17
8.04378E-06 2.86287E-17
9.32888E-06 2.13429E-17
1.07092E-05 1.62341E-17
1.21846E-05 1.25662E-17
1.37553E-05 9.87771E-18
1.54212E-05 7.87097E-18
1.71822E-05 6.34866E-18
1.90385E-05 5.17499E-18
2.09899E-05 4.26379E-18
2.30365E-05 3.54403E-18
2.51783E-05 2.96921E-18
2.74153E-05 2.50576E-18
2.97475E-05 2.12898E-18
3.21749E-05 1.82034E-18
3.46974E-05 1.56573E-18
3.73152E-05 1.35423E-18
4.00281E-05 1.17736E-18
4.28362E-05 1.02847E-18
4.57395E-05 9.02363E-19
4.87380E-05 7.94951E-19
5.18317E-05 7.02998E-19
5.50205E-05 6.23920E-19
5.83045E-05 5.55631E-19
6.16838E-05 4.96430E-19
6.51582E-05 4.44915E-19
6.87277E-05 3.99921E-19
7.23925E-05 3.60479E-19
7.61524E-05 3.25889E-19
9.21439E-05 2.22591E-19
1.09658E-04 1.57134E-19
1.28695E-04 1.14061E-19
1.49255E-04 8.47696E-20
1.71338E-04 6.43033E-20
1.94942E-04 4.96514E-20
2.20070E-04 3.89420E-20
2.46720E-04 3.09684E-20
2.74892E-04 2.49330E-20
3.04586E-04 2.02977E-20
3.35803E-04 1.66901E-20
3.68542E-04 1.38488E-20
4.02802E-04 1.15865E-20
4.38585E-04 9.76733E-21
4.75889E-04 8.29117E-21
5.14715E-04 7.08326E-21
5.55063E-04 6.08722E-21
5.96931E-04 5.26003E-21
6.40321E-04 4.56847E-21
6.85233E-04 3.98675E-21
7.31665E-04 3.49458E-21
7.79618E-04 3.07593E-21
8.29092E-04 2.71803E-21
8.80086E-04 2.41060E-21
9.32601E-04 2.14535E-21
9.86636E-04 1.91552E-21
1.04219E-03 1.71558E-21
1.09927E-03 1.54101E-21
1.15786E-03 1.38804E-21
1.21797E-03 1.25353E-21
1.27961E-03 1.13489E-21
1.34276E-03 1.02992E-21
1.40743E-03 9.36774E-22
1.47362E-03 8.53894E-22
1.54133E-03 7.79952E-22
1.61056E-03 7.13818E-22
1.68131E-03 6.54523E-22
1.75357E-03 6.01239E-22
1.82735E-03 5.53249E-22
1.90265E-03 5.09935E-22
1.97947E-03 4.70761E-22
2.05780E-03 4.35264E-22
2.13765E-03 4.03037E-22
2.21902E-03 3.73725E-22
2.30190E-03 3.47019E-22
2.38630E-03 3.22643E-22
2.47222E-03 3.00359E-22
2.55965E-03 2.79957E-22
2.64859E-03 2.61249E-22
2.73905E-03 2.44070E-22
2.83103E-03 2.28272E-22
2.92452E-03 2.13726E-22
3.01952E-03 2.00312E-22
3.11604E-03 1.87929E-22
3.21407E-03 1.76482E-22
3.31362E-03 1.65888E-22
3.41468E-03 1.56072E-22
3.51725E-03 1.46967E-22
3.62133E-03 1.38511E-22
3.72692E-03 1.30651E-22
3.83403E-03 1.23337E-22
3.94265E-03 1.16523E-22
4.05278E-03 1.10170E-22
4.16442E-03 1.04241E-22
4.27757E-03 9.87020E-23
4.39223E-03 9.35231E-23
4.50840E-03 8.86767E-23
4.62608E-03 8.41374E-23
4.74527E-03 7.98824E-23
4.86597E-03 7.58906E-23
4.98817E-03 7.21427E-23
5.11188E-03 6.86211E-23
5.23711E-03 6.53098E-23
5.36383E-03 6.21938E-23
5.49207E-03 5.92596E-23
5.62181E-03 5.64946E-23
5.75306E-03 5.38873E-23
5.88581E-03 5.14270E-23
6.02007E-03 4.91041E-23
6.15583E-03 4.69093E-23
6.29310E-03 4.48344E-23
6.43187E-03 4.28716E-23
6.57214E-03 4.10137E-23
6.71392E-03 3.92542E-23
6.85720E-03 3.75869E-23
7.00198E-03 3.60060E-23
7.14827E-03 3.45062E-23
7.29605E-03 3.30828E-23
7.44534E-03 3.17309E-23
7.59612E-03 3.04465E-23
7.97965E-03 2.75049E-23
8.37255E-03 2.49054E-23
8.77480E-03 2.26015E-23
9.18641E-03 2.05540E-23
9.60736E-03 1.87296E-23
1.00376E-02 1.71000E-23
1.04773E-02 1.56409E-23
1.09262E-02 1.43314E-23
1.13844E-02 1.31536E-23
1.18520E-02 1.20921E-23
1.23288E-02 1.11334E-23
1.28150E-02 1.02659E-23
1.33104E-02 9.47955E-24
1.38150E-02 8.76540E-24
1.43290E-02 8.11573E-24
1.48521E-02 7.52373E-24
1.53845E-02 6.98343E-24
1.59262E-02 6.48956E-24
1.64770E-02 6.03746E-24
1.70371E-02 5.62301E-24
1.76063E-02 5.24253E-24
1.81848E-02 4.89279E-24
1.87724E-02 4.57089E-24
1.93692E-02 4.27423E-24
1.99751E-02 4.00052E-24
2.05901E-02 3.74767E-24
2.12143E-02 3.51384E-24
2.18476E-02 3.29735E-24
2.24900E-02 3.09671E-24
2.31415E-02 2.91057E-24
2.38021E-02 2.73770E-24
2.44717E-02 2.57701E-24
2.51504E-02 2.42748E-24
2.58382E-02 2.28823E-24
2.65349E-02 2.15842E-24
2.72407E-02 2.03732E-24
2.79555E-02 1.92424E-24
2.86793E-02 1.81857E-24
2.94120E-02 1.71974E-24
3.01537E-02 1.62723E-24
3.09043E-02 1.54059E-24
3.16639E-02 1.45937E-24
3.24324E-02 1.38318E-24
3.32098E-02 1.31166E-24
3.39961E-02 1.24447E-24
3.47912E-02 1.18133E-24
3.55952E-02 1.12193E-24
3.64081E-02 1.06603E-24
3.72297E-02 1.01338E-24
3.80602E-02 9.63770E-25
3.88995E-02 9.16994E-25
3.97476E-02 8.72865E-25
4.06044E-02 8.31209E-25
4.14700E-02 7.91867E-25
4.23443E-02 7.54689E-25
4.32273E-02 7.19540E-25
4.41190E-02 6.86290E-25
4.50194E-02 6.54821E-25
4.59284E-02 6.25024E-25
4.68461E-02 5.96797E-25
4.87074E-02 5.44675E-25
5.06030E-02 4.97770E-25
5.25328E-02 4.55487E-25
5.44967E-02 4.17307E-25
5.64946E-02 3.82776E-25
5.85262E-02 3.51498E-25
6.05914E-02 3.23125E-25
6.26901E-02 2.97350E-25
6.48222E-02 2.73903E-25
6.69873E-02 2.52547E-25
6.91854E-02 2.33070E-25
7.14163E-02 2.15286E-25
7.36799E-02 1.99028E-25
7.59760E-02 1.84148E-25
7.83043E-02 1.70516E-25
8.06647E-02 1.58013E-25
8.30571E-02 1.46534E-25
8.54812E-02 1.35984E-25
8.79369E-02 1.26281E-25
9.04240E-02 1.17347E-25
9.29422E-02 1.09114E-25
9.54915E-02 1.01521E-25
9.80716E-02 9.45126E-26
1.00682E-01 8.80382E-26
1.03323E-01 8.20527E-26
1.05995E-01 7.65150E-26
1.08696E-01 7.13880E-26
1.11427E-01 6.66378E-26
1.14188E-01 6.22338E-26
1.16978E-01 5.81481E-26
1.19797E-01 5.43553E-26
1.22645E-01 5.08322E-26
1.25522E-01 4.75577E-26
1.28428E-01 4.45125E-26
1.31361E-01 4.16789E-26
1.34323E-01 3.90407E-26
1.37313E-01 3.65833E-26
1.40330E-01 3.42931E-26
1.43375E-01 3.21576E-26
1.46447E-01 3.01654E-26
1.49545E-01 2.83060E-26
1.52671E-01 2.65699E-26
1.55823E-01 2.49480E-26
1.59001E-01 2.34322E-26
1.62205E-01 2.20151E-26
1.65435E-01 2.06895E-26
1.68690E-01 1.94492E-26
1.71970E-01 1.82883E-26
1.75276E-01 1.72011E-26
1.78606E-01 1.61827E-26
1.81961E-01 1.52284E-26
1.85340E-01 1.43338E-26
1.88743E-01 1.34950E-26
1.92169E-01 1.27082E-26
1.95619E-01 1.19699E-26
1.99092E-01 1.12769E-26
2.02589E-01 1.06263E-26
2.06107E-01 1.00153E-26
2.09649E-01 9.44131E-27
2.13212E-01 8.90196E-27
2.16797E-01 8.39501E-27
2.20404E-01 7.91839E-27
2.24032E-01 7.47018E-27
2.27680E-01 7.04858E-27
2.31350E-01 6.65191E-27
2.35040E-01 6.27862E-27
2.38751E-01 5.92723E-27
2.42481E-01 5.59641E-27
2.46231E-01 5.28486E-27
2.50000E-01 4.99142E-27
2.53788E-01 4.71497E-27
2.57595E-01 4.45447E-27
2.61421E-01 4.20895E-27
2.65264E-01 3.97752E-27
2.69126E-01 3.75931E-27
2.73005E-01 3.55355E-27
2.76901E-01 3.35947E-27
2.80814E-01 3.17640E-27
2.84744E-01 3.00367E-27
2.88691E-01 2.84067E-27
2.92653E-01 2.68684E-27
2.96632E-01 2.54163E-27
3.00625E-01 2.40454E-27
3.04634E-01 2.27509E-27
3.08658E-01 2.15284E-27
3.12697E-01 2.03738E-27
3.16749E-01 1.92831E-27
3.20816E-01 1.82527E-27
3.24896E-01 1.72790E-27
3.28990E-01 1.63589E-27
3.33097E-01 1.54893E-27
3.37216E-01 1.46673E-27
3.41348E-01 1.38901E-27
3.45492E-01 1.31554E-27
3.49647E-01 1.24606E-27
3.53814E-01 1.18036E-27
3.57992E-01 1.11821E-27
3.62181E-01 1.05943E-27
3.66381E-01 1.00382E-27
3.70590E-01 9.51212E-28
3.74810E-01 9.01430E-28
3.79039E-01 8.54322E-28
3.83277E-01 8.09739E-28
3.87524E-01 7.67541E-28
3.91780E-01 7.27598E-28
3.96044E-01 6.89785E-28
4.00316E-01 6.53986E-28
4.04596E-01 6.20089E-28
4.08882E-01 5.87992E-28
4.13176E-01 5.57596E-28
4.17476E-01 5.28808E-28
4.21783E-01 5.01541E-28
4.26095E-01 4.75713E-28
4.30413E-01 4.51245E-28
4.34737E-01 4.28064E-28
4.39065E-01 4.06101E-28
4.43398E-01 3.85290E-28
4.47736E-01 3.65569E-28
4.52077E-01 3.46880E-28
4.56422E-01 3.29167E-28
4.60770E-01 3.12378E-28
4.65122E-01 2.96465E-28
4.69476E-01 2.81379E-28
4.73832E-01 2.67077E-28
4.78190E-01 2.53518E-28
4.82550E-01 2.40661E-28
4.86912E-01 2.28470E-28
4.91274E-01 2.16910E-28
4.95637E-01 2.05947E-28
5.00000E-01 1.95549E-28
5.04363E-01 1.85687E-28
5.08726E-01 1.76333E-28
5.13088E-01 1.67459E-28
5.17450E-01 1.59042E-28
5.21810E-01 1.51056E-28
5.26168E-01 1.43479E-28
5.30524E-01 1.36290E-28
5.34878E-01 1.29468E-28
5.39230E-01 1.22995E-28
5.43578E-01 1.16852E-28
5.47923E-01 1.11022E-28
5.52264E-01 1.05489E-28
5.56602E-01 1.00237E-28
5.60935E-01 9.52517E-29
5.65263E-01 9.05194E-29
5.69587E-01 8.60270E-29
5.73905E-01 8.17620E-29
5.78217E-01 7.77126E-29
5.82524E-01 7.38679E-29
5.86824E-01 7.02172E-29
5.91118E-01 6.67506E-29
5.95404E-01 6.34585E-29
5.99684E-01 6.03321E-29
6.03956E-01 5.73629E-29
6.08220E-01 5.45427E-29
6.12476E-01 5.18639E-29
6.16723E-01 4.93194E-29
6.20961E-01 4.69023E-29
6.25190E-01 4.46060E-29
6.29410E-01 4.24244E-29
6.33619E-01 4.03517E-29
6.37819E-01 3.83824E-29
6.42008E-01 3.65111E-29
6.46186E-01 3.47329E-29
6.50353E-01 3.30430E-29
6.54508E-01 3.14371E-29
6.58652E-01 2.99108E-29
6.62784E-01 2.84602E-29
6.66903E-01 2.70813E-29
6.71010E-01 2.57706E-29
6.75104E-01 2.45247E-29
6.79184E-01 2.33402E-29
6.83251E-01 2.22142E-29
6.87303E-01 2.11435E-29
6.91342E-01 2.01256E-29
6.95366E-01 1.91576E-29
6.99375E-01 1.82372E-29
7.03368E-01 1.73619E-29
7.07347E-01 1.65294E-29
7.11309E-01 1.57377E-29
7.15256E-01 1.49847E-29
7.19186E-01 1.42685E-29
7.23099E-01 1.35872E-29
7.26995E-01 1.29391E-29
7.30874E-01 1.23225E-29
7.34736E-01 1.17359E-29
7.38579E-01 1.11778E-29
7.42405E-01 1.06467E-29
7.46212E-01 1.01414E-29
7.50000E-01 9.66051E-30
7.53769E-01 9.20288E-30
7.57519E-01 8.76734E-30
7.61249E-01 8.35281E-30
7.64960E-01 7.95824E-30
7.68650E-01 7.58266E-30
7.72320E-01 7.22513E-30
7.75968E-01 6.88475E-30
7.79596E-01 6.56069E-30
7.83203E-01 6.25214E-30
7.86788E-01 5.95835E-30
7.90351E-01 5.67860E-30
7.93893E-01 5.41218E-30
7.97411E-01 5.15846E-30
8.00908E-01 4.91681E-30
8.04381E-01 4.68664E-30
8.07831E-01 4.46739E-30
8.11257E-01 4.25854E-30
8.14660E-01 4.05956E-30
8.18039E-01 3.87000E-30
8.21394E-01 3.68938E-30
8.24724E-01 3.51727E-30
8.28030E-01 3.35327E-30
8.31310E-01 3.19698E-30
8.34565E-01 3.04802E-30
8.37795E-01 2.90604E-30
8.40999E-01 2.77071E-30
8.44177E-01 2.64170E-30
8.47329E-01 2.51872E-30
8.50455E-01 2.40147E-30
8.53553E-01 2.28967E-30
8.56625E-01 2.18307E-30
8.59670E-01 2.08141E-30
8.62687E-01 1.98446E-30
8.65677E-01 1.89200E-30
8.68639E-01 1.80380E-30
8.71572E-01 1.71968E-30
8.74478E-01 1.63942E-30
8.77355E-01 1.56286E-30
8.80203E-01 1.48980E-30
8.83022E-01 1.42010E-30
8.85812E-01 1.35358E-30
8.88573E-01 1.29011E-30
8.91304E-01 1.22953E-30
8.94005E-01 1.17170E-30
8.96677E-01 1.11651E-30
8.99318E-01 1.06382E-30
9.01928E-01 1.01352E-30
9.04508E-01 9.65491E-31
9.07058E-01 9.19635E-31
9.09576E-01 8.75848E-31
9.12063E-01 8.34032E-31
9.14519E-01 7.94098E-31
9.16943E-01 7.55957E-31
9.19335E-01 7.19527E-31
9.21696E-01 6.84728E-31
9.24024E-01 6.51485E-31
9.26320E-01 6.19727E-31
9.28584E-01 5.89386E-31
9.30815E-01 5.60397E-31
9.33013E-01 5.32697E-31
9.35178E-01 5.06230E-31
9.37310E-01 4.80938E-31
9.39409E-01 4.56768E-31
9.41474E-01 4.33670E-31
9.43505E-01 4.11596E-31
9.45503E-01 3.90500E-31
9.47467E-01 3.70338E-31
9.49397E-01 3.51068E-31
9.51293E-01 3.32651E-31
9.53154E-01 3.15049E-31
9.54981E-01 2.98227E-31
9.56773E-01 2.82150E-31
9.58530E-01 2.66786E-31
9.60252E-01 2.52104E-31
9.61940E-01 2.38075E-31
9.63592E-01 2.24671E-31
9.65209E-01 2.11864E-31
9.66790E-01 1.99630E-31
9.68336E-01 1.87945E-31
9.69846E-01 1.76785E-31
9.71321E-01 1.66129E-31
9.72759E-01 1.55957E-31
9.74162E-01 1.46248E-31
9.75528E-01 1.36983E-31
9.76858E-01 1.28146E-31
9.78152E-01 1.19719E-31
9.79410E-01 1.11686E-31
9.80631E-01 1.04031E-31
9.81815E-01 9.67414E-32
9.82963E-01 8.98021E-32
9.84074E-01 8.32005E-32
9.85148E-01 7.69242E-32
9.86185E-01 7.09615E-32
9.87185E-01 6.53014E-32
9.88148E-01 5.99335E-32
9.89074E-01 5.48478E-32
9.89962E-01 5.00351E-32
9.90814E-01 4.54865E-32
9.91627E-01 4.11939E-32
9.92404E-01 3.71493E-32
9.93143E-01 3.33455E-32
9.93844E-01 2.97756E-32
9.94508E-01 2.64332E-32
9.95134E-01 2.33123E-32
9.95722E-01 2.04074E-32
9.96273E-01 1.77131E-32
9.96786E-01 1.52248E-32
9.97261E-01 1.29380E-32
9.97698E-01 1.08487E-32
9.98097E-01 8.95321E-33
9.98459E-01 7.24809E-33
9.98782E-01 5.73040E-33
9.99067E-01 4.39750E-33
9.99315E-01 3.24697E-33
9.99524E-01 2.27688E-33
9.99695E-01 1.48543E-33
9.99829E-01 8.71319E-34
9.99924E-01 4.33415E-34
9.99981E-01 1.70991E-34
1.00000E+00 8.35505E-35
