 #
 # Subroutine ELSEPA. Elastic scattering of electrons and positrons
 #                    by neutral atoms and positive ions
 #
 # Projectile: positron
 # Kinetic energy = 3.50000E+06 eV = 1.28623E+05 a.u.
 #
 # WARNING: High-energy factorization with free-atom DF screening.
 #          Absorption, polarization and exchange corrections are
 #          switched off.
 #          Phase shifts are calculated for the bare nucleus.
 #          Scattering amplitudes are not evaluated.
 #
 # Element: Pm,  Z =  61,  atomic weight = 1.44913E+02 g/mol
 #
 # Nuclear model: Fermi distribution
 #                Average radius = 5.62021E-13 cm
 #                Skin thickness = 5.46000E-14 cm
 #
 # Number of electrons = 61
 #
 # Total elastic cross section = 7.35494E-18 cm**2 = 2.62650E-01 a0**2
 # 1st transport cross section = 2.79839E-22 cm**2 = 9.99324E-06 a0**2
 # 2nd transport cross section = 8.02704E-22 cm**2 = 2.86651E-05 a0**2
 #
 #
 # Differential cross section:                       MU=(1-COS(THETA))/2
 #
 #  THETA        MU          DCS          DCS        Sherman      error
 #  (deg)                 (cm**2/sr)   (a0**2/sr)    function
 #----------------------------------------------------------------------
0.00000E+00 1.56450E-12
7.61557E-13 1.56448E-12
1.18994E-12 1.56447E-12
1.71346E-12 1.56446E-12
2.33225E-12 1.56445E-12
3.04617E-12 1.56444E-12
3.85530E-12 1.56443E-12
4.75964E-12 1.56441E-12
5.75917E-12 1.56439E-12
6.85391E-12 1.56437E-12
8.04379E-12 1.56435E-12
9.32893E-12 1.56433E-12
1.07092E-11 1.56430E-12
1.21847E-11 1.56428E-12
1.37554E-11 1.56425E-12
1.54213E-11 1.56422E-12
1.71823E-11 1.56419E-12
1.90386E-11 1.56416E-12
2.09900E-11 1.56413E-12
2.30367E-11 1.56409E-12
2.51785E-11 1.56405E-12
2.74156E-11 1.56401E-12
2.97478E-11 1.56397E-12
3.21752E-11 1.56393E-12
3.46979E-11 1.56389E-12
3.73157E-11 1.56384E-12
4.00286E-11 1.56379E-12
4.28368E-11 1.56375E-12
4.57402E-11 1.56370E-12
4.87388E-11 1.56364E-12
5.18325E-11 1.56359E-12
5.50215E-11 1.56354E-12
5.83057E-11 1.56348E-12
6.16850E-11 1.56342E-12
6.51595E-11 1.56336E-12
6.87293E-11 1.56330E-12
7.23943E-11 1.56323E-12
7.61544E-11 1.56317E-12
1.18991E-10 1.56243E-12
1.71347E-10 1.56153E-12
2.33223E-10 1.56047E-12
3.04617E-10 1.55924E-12
3.85531E-10 1.55786E-12
4.75965E-10 1.55631E-12
5.75917E-10 1.55460E-12
6.85389E-10 1.55274E-12
8.04380E-10 1.55072E-12
9.32891E-10 1.54854E-12
1.07092E-09 1.54621E-12
1.21847E-09 1.54372E-12
1.37554E-09 1.54108E-12
1.54213E-09 1.53829E-12
1.71823E-09 1.53535E-12
1.90386E-09 1.53226E-12
2.09900E-09 1.52902E-12
2.30367E-09 1.52563E-12
2.51785E-09 1.52211E-12
2.74156E-09 1.51844E-12
2.97478E-09 1.51462E-12
3.21752E-09 1.51068E-12
3.46978E-09 1.50659E-12
3.73156E-09 1.50237E-12
4.00286E-09 1.49801E-12
4.28368E-09 1.49353E-12
4.57402E-09 1.48892E-12
4.87388E-09 1.48418E-12
5.18326E-09 1.47931E-12
5.50215E-09 1.47433E-12
5.83057E-09 1.46922E-12
6.16850E-09 1.46400E-12
6.51596E-09 1.45866E-12
6.87293E-09 1.45321E-12
7.23942E-09 1.44764E-12
7.61544E-09 1.44197E-12
1.18991E-08 1.37991E-12
1.71347E-08 1.31022E-12
2.33223E-08 1.23475E-12
3.04617E-08 1.15682E-12
3.85531E-08 1.07835E-12
4.75965E-08 1.00085E-12
5.75917E-08 9.25853E-13
6.85389E-08 8.55299E-13
8.04380E-08 7.88896E-13
9.32891E-08 7.27060E-13
1.07092E-07 6.70378E-13
1.21847E-07 6.18796E-13
1.37554E-07 5.71687E-13
1.54213E-07 5.28855E-13
1.71823E-07 4.90413E-13
1.90386E-07 4.55601E-13
2.09900E-07 4.24039E-13
2.30367E-07 3.95491E-13
2.51785E-07 3.69741E-13
2.74156E-07 3.46295E-13
2.97478E-07 3.24933E-13
3.21752E-07 3.05472E-13
3.46978E-07 2.87654E-13
3.73156E-07 2.71286E-13
4.00286E-07 2.56227E-13
4.28368E-07 2.42304E-13
4.57402E-07 2.29407E-13
4.87388E-07 2.17444E-13
5.18325E-07 2.06309E-13
5.50215E-07 1.95886E-13
5.83057E-07 1.86153E-13
6.16850E-07 1.77053E-13
6.51596E-07 1.68483E-13
6.87293E-07 1.60417E-13
7.23942E-07 1.52840E-13
7.61543E-07 1.45715E-13
1.18991E-06 9.23034E-14
1.71347E-06 5.99131E-14
2.33223E-06 4.10915E-14
3.04617E-06 2.88170E-14
3.85531E-06 2.08552E-14
4.75964E-06 1.55180E-14
5.75916E-06 1.17915E-14
6.85388E-06 9.05508E-15
8.04378E-06 7.06939E-15
9.32888E-06 5.59433E-15
1.07092E-05 4.46928E-15
1.21846E-05 3.60494E-15
1.37553E-05 2.94022E-15
1.54212E-05 2.42210E-15
1.71822E-05 2.01152E-15
1.90385E-05 1.68530E-15
2.09899E-05 1.42549E-15
2.30365E-05 1.21496E-15
2.51783E-05 1.04233E-15
2.74153E-05 9.00215E-16
2.97475E-05 7.82278E-16
3.21749E-05 6.83440E-16
3.46974E-05 6.00226E-16
3.73152E-05 5.29621E-16
4.00281E-05 4.69230E-16
4.28362E-05 4.17184E-16
4.57395E-05 3.72288E-16
4.87380E-05 3.33363E-16
5.18317E-05 2.99397E-16
5.50205E-05 2.69554E-16
5.83045E-05 2.43347E-16
6.16838E-05 2.20247E-16
6.51582E-05 1.99745E-16
6.87277E-05 1.81529E-16
7.23925E-05 1.65331E-16
7.61524E-05 1.50883E-16
9.21439E-05 1.06467E-16
1.09658E-04 7.71433E-17
1.28695E-04 5.72057E-17
1.49255E-04 4.32727E-17
1.71338E-04 3.33509E-17
1.94942E-04 2.61151E-17
2.20070E-04 2.07500E-17
2.46720E-04 1.67009E-17
2.74892E-04 1.35901E-17
3.04586E-04 1.11732E-17
3.35803E-04 9.27245E-18
3.68542E-04 7.75977E-18
4.02802E-04 6.54147E-18
4.38585E-04 5.55364E-18
4.75889E-04 4.74564E-18
5.14715E-04 4.07860E-18
5.55063E-04 3.52422E-18
5.96931E-04 3.06089E-18
6.40321E-04 2.67118E-18
6.85233E-04 2.34092E-18
7.31665E-04 2.06007E-18
7.79618E-04 1.82003E-18
8.29092E-04 1.61379E-18
8.80086E-04 1.43572E-18
9.32601E-04 1.28149E-18
9.86636E-04 1.14738E-18
1.04219E-03 1.03023E-18
1.09927E-03 9.27593E-19
1.15786E-03 8.37394E-19
1.21797E-03 7.57867E-19
1.27961E-03 6.87478E-19
1.34276E-03 6.25059E-19
1.40743E-03 5.69549E-19
1.47362E-03 5.20038E-19
1.54133E-03 4.75763E-19
1.61056E-03 4.36092E-19
1.68131E-03 4.00462E-19
1.75357E-03 3.68376E-19
1.82735E-03 3.39430E-19
1.90265E-03 3.13267E-19
1.97947E-03 2.89570E-19
2.05780E-03 2.68059E-19
2.13765E-03 2.48505E-19
2.21902E-03 2.30698E-19
2.30190E-03 2.14452E-19
2.38630E-03 1.99605E-19
2.47222E-03 1.86019E-19
2.55965E-03 1.73567E-19
2.64859E-03 1.62134E-19
2.73905E-03 1.51625E-19
2.83103E-03 1.41952E-19
2.92452E-03 1.33036E-19
3.01952E-03 1.24805E-19
3.11604E-03 1.17200E-19
3.21407E-03 1.10164E-19
3.31362E-03 1.03646E-19
3.41468E-03 9.76016E-20
3.51725E-03 9.19900E-20
3.62133E-03 8.67749E-20
3.72692E-03 8.19222E-20
3.83403E-03 7.74030E-20
3.94265E-03 7.31903E-20
4.05278E-03 6.92593E-20
4.16442E-03 6.55874E-20
4.27757E-03 6.21548E-20
4.39223E-03 5.89432E-20
4.50840E-03 5.59354E-20
4.62608E-03 5.31162E-20
4.74527E-03 5.04717E-20
4.86597E-03 4.79892E-20
4.98817E-03 4.56566E-20
5.11188E-03 4.34635E-20
5.23711E-03 4.14000E-20
5.36383E-03 3.94569E-20
5.49207E-03 3.76258E-20
5.62181E-03 3.58994E-20
5.75306E-03 3.42704E-20
5.88581E-03 3.27322E-20
6.02007E-03 3.12790E-20
6.15583E-03 2.99052E-20
6.29310E-03 2.86056E-20
6.43187E-03 2.73753E-20
6.57214E-03 2.62102E-20
6.71392E-03 2.51062E-20
6.85720E-03 2.40593E-20
7.00198E-03 2.30661E-20
7.14827E-03 2.21234E-20
7.29605E-03 2.12282E-20
7.44534E-03 2.03773E-20
7.59612E-03 1.95685E-20
7.97965E-03 1.77144E-20
8.37255E-03 1.60736E-20
8.77480E-03 1.46173E-20
9.18641E-03 1.33213E-20
9.60736E-03 1.21649E-20
1.00376E-02 1.11306E-20
1.04773E-02 1.02032E-20
1.09262E-02 9.36982E-21
1.13844E-02 8.61923E-21
1.18520E-02 7.94180E-21
1.23288E-02 7.32919E-21
1.28150E-02 6.77411E-21
1.33104E-02 6.27022E-21
1.38150E-02 5.81197E-21
1.43290E-02 5.39453E-21
1.48521E-02 5.01359E-21
1.53845E-02 4.66546E-21
1.59262E-02 4.34681E-21
1.64770E-02 4.05465E-21
1.70371E-02 3.78645E-21
1.76063E-02 3.53989E-21
1.81848E-02 3.31290E-21
1.87724E-02 3.10366E-21
1.93692E-02 2.91054E-21
1.99751E-02 2.73209E-21
2.05901E-02 2.56698E-21
2.12143E-02 2.41405E-21
2.18476E-02 2.27224E-21
2.24900E-02 2.14059E-21
2.31415E-02 2.01825E-21
2.38021E-02 1.90445E-21
2.44717E-02 1.79849E-21
2.51504E-02 1.69971E-21
2.58382E-02 1.60757E-21
2.65349E-02 1.52152E-21
2.72407E-02 1.44110E-21
2.79555E-02 1.36586E-21
2.86793E-02 1.29542E-21
2.94120E-02 1.22943E-21
3.01537E-02 1.16753E-21
3.09043E-02 1.10944E-21
3.16639E-02 1.05489E-21
3.24324E-02 1.00360E-21
3.32098E-02 9.55368E-22
3.39961E-02 9.09964E-22
3.47912E-02 8.67196E-22
3.55952E-02 8.26883E-22
3.64081E-02 7.88859E-22
3.72297E-02 7.52971E-22
3.80602E-02 7.19079E-22
3.88995E-02 6.87049E-22
3.97476E-02 6.56762E-22
4.06044E-02 6.28107E-22
4.14700E-02 6.00979E-22
4.23443E-02 5.75282E-22
4.32273E-02 5.50927E-22
4.41190E-02 5.27832E-22
4.50194E-02 5.05920E-22
4.59284E-02 4.85119E-22
4.68461E-02 4.65362E-22
4.87074E-02 4.28740E-22
5.06030E-02 3.95607E-22
5.25328E-02 3.65574E-22
5.44967E-02 3.38302E-22
5.64946E-02 3.13493E-22
5.85262E-02 2.90888E-22
6.05914E-02 2.70257E-22
6.26901E-02 2.51398E-22
6.48222E-02 2.34134E-22
6.69873E-02 2.18305E-22
6.91854E-02 2.03773E-22
7.14163E-02 1.90412E-22
7.36799E-02 1.78113E-22
7.59760E-02 1.66776E-22
7.83043E-02 1.56313E-22
8.06647E-02 1.46645E-22
8.30571E-02 1.37701E-22
8.54812E-02 1.29418E-22
8.79369E-02 1.21739E-22
9.04240E-02 1.14611E-22
9.29422E-02 1.07988E-22
9.54915E-02 1.01829E-22
9.80716E-02 9.60953E-23
1.00682E-01 9.07523E-23
1.03323E-01 8.57689E-23
1.05995E-01 8.11167E-23
1.08696E-01 7.67699E-23
1.11427E-01 7.27049E-23
1.14188E-01 6.89003E-23
1.16978E-01 6.53364E-23
1.19797E-01 6.19955E-23
1.22645E-01 5.88612E-23
1.25522E-01 5.59184E-23
1.28428E-01 5.31535E-23
1.31361E-01 5.05538E-23
1.34323E-01 4.81077E-23
1.37313E-01 4.58046E-23
1.40330E-01 4.36347E-23
1.43375E-01 4.15889E-23
1.46447E-01 3.96588E-23
1.49545E-01 3.78369E-23
1.52671E-01 3.61159E-23
1.55823E-01 3.44894E-23
1.59001E-01 3.29512E-23
1.62205E-01 3.14957E-23
1.65435E-01 3.01177E-23
1.68690E-01 2.88123E-23
1.71970E-01 2.75751E-23
1.75276E-01 2.64019E-23
1.78606E-01 2.52888E-23
1.81961E-01 2.42321E-23
1.85340E-01 2.32285E-23
1.88743E-01 2.22749E-23
1.92169E-01 2.13684E-23
1.95619E-01 2.05062E-23
1.99092E-01 1.96858E-23
2.02589E-01 1.89048E-23
2.06107E-01 1.81610E-23
2.09649E-01 1.74523E-23
2.13212E-01 1.67768E-23
2.16797E-01 1.61326E-23
2.20404E-01 1.55181E-23
2.24032E-01 1.49316E-23
2.27680E-01 1.43716E-23
2.31350E-01 1.38368E-23
2.35040E-01 1.33258E-23
2.38751E-01 1.28373E-23
2.42481E-01 1.23702E-23
2.46231E-01 1.19235E-23
2.50000E-01 1.14960E-23
2.53788E-01 1.10867E-23
2.57595E-01 1.06949E-23
2.61421E-01 1.03195E-23
2.65264E-01 9.95987E-24
2.69126E-01 9.61514E-24
2.73005E-01 9.28460E-24
2.76901E-01 8.96758E-24
2.80814E-01 8.66342E-24
2.84744E-01 8.37151E-24
2.88691E-01 8.09128E-24
2.92653E-01 7.82216E-24
2.96632E-01 7.56366E-24
3.00625E-01 7.31527E-24
3.04634E-01 7.07654E-24
3.08658E-01 6.84702E-24
3.12697E-01 6.62631E-24
3.16749E-01 6.41400E-24
3.20816E-01 6.20972E-24
3.24896E-01 6.01311E-24
3.28990E-01 5.82384E-24
3.33097E-01 5.64159E-24
3.37216E-01 5.46604E-24
3.41348E-01 5.29692E-24
3.45492E-01 5.13394E-24
3.49647E-01 4.97685E-24
3.53814E-01 4.82540E-24
3.57992E-01 4.67935E-24
3.62181E-01 4.53847E-24
3.66381E-01 4.40256E-24
3.70590E-01 4.27140E-24
3.74810E-01 4.14481E-24
3.79039E-01 4.02259E-24
3.83277E-01 3.90457E-24
3.87524E-01 3.79058E-24
3.91780E-01 3.68046E-24
3.96044E-01 3.57406E-24
4.00316E-01 3.47123E-24
4.04596E-01 3.37182E-24
4.08882E-01 3.27572E-24
4.13176E-01 3.18279E-24
4.17476E-01 3.09290E-24
4.21783E-01 3.00595E-24
4.26095E-01 2.92181E-24
4.30413E-01 2.84039E-24
4.34737E-01 2.76157E-24
4.39065E-01 2.68527E-24
4.43398E-01 2.61139E-24
4.47736E-01 2.53984E-24
4.52077E-01 2.47053E-24
4.56422E-01 2.40339E-24
4.60770E-01 2.33833E-24
4.65122E-01 2.27528E-24
4.69476E-01 2.21417E-24
4.73832E-01 2.15492E-24
4.78190E-01 2.09747E-24
4.82550E-01 2.04176E-24
4.86912E-01 1.98773E-24
4.91274E-01 1.93531E-24
4.95637E-01 1.88446E-24
5.00000E-01 1.83511E-24
5.04363E-01 1.78722E-24
5.08726E-01 1.74073E-24
5.13088E-01 1.69560E-24
5.17450E-01 1.65179E-24
5.21810E-01 1.60924E-24
5.26168E-01 1.56791E-24
5.30524E-01 1.52777E-24
5.34878E-01 1.48878E-24
5.39230E-01 1.45089E-24
5.43578E-01 1.41407E-24
5.47923E-01 1.37828E-24
5.52264E-01 1.34350E-24
5.56602E-01 1.30969E-24
5.60935E-01 1.27681E-24
5.65263E-01 1.24485E-24
5.69587E-01 1.21376E-24
5.73905E-01 1.18352E-24
5.78217E-01 1.15411E-24
5.82524E-01 1.12550E-24
5.86824E-01 1.09766E-24
5.91118E-01 1.07056E-24
5.95404E-01 1.04420E-24
5.99684E-01 1.01854E-24
6.03956E-01 9.93555E-25
6.08220E-01 9.69236E-25
6.12476E-01 9.45558E-25
6.16723E-01 9.22502E-25
6.20961E-01 9.00049E-25
6.25190E-01 8.78181E-25
6.29410E-01 8.56881E-25
6.33619E-01 8.36130E-25
6.37819E-01 8.15913E-25
6.42008E-01 7.96214E-25
6.46186E-01 7.77018E-25
6.50353E-01 7.58311E-25
6.54508E-01 7.40078E-25
6.58652E-01 7.22306E-25
6.62784E-01 7.04982E-25
6.66903E-01 6.88093E-25
6.71010E-01 6.71626E-25
6.75104E-01 6.55569E-25
6.79184E-01 6.39910E-25
6.83251E-01 6.24638E-25
6.87303E-01 6.09743E-25
6.91342E-01 5.95213E-25
6.95366E-01 5.81039E-25
6.99375E-01 5.67211E-25
7.03368E-01 5.53719E-25
7.07347E-01 5.40555E-25
7.11309E-01 5.27709E-25
7.15256E-01 5.15172E-25
7.19186E-01 5.02937E-25
7.23099E-01 4.90995E-25
7.26995E-01 4.79338E-25
7.30874E-01 4.67959E-25
7.34736E-01 4.56850E-25
7.38579E-01 4.46004E-25
7.42405E-01 4.35414E-25
7.46212E-01 4.25073E-25
7.50000E-01 4.14975E-25
7.53769E-01 4.05114E-25
7.57519E-01 3.95483E-25
7.61249E-01 3.86076E-25
7.64960E-01 3.76889E-25
7.68650E-01 3.67914E-25
7.72320E-01 3.59147E-25
7.75968E-01 3.50583E-25
7.79596E-01 3.42216E-25
7.83203E-01 3.34041E-25
7.86788E-01 3.26054E-25
7.90351E-01 3.18250E-25
7.93893E-01 3.10624E-25
7.97411E-01 3.03173E-25
8.00908E-01 2.95890E-25
8.04381E-01 2.88774E-25
8.07831E-01 2.81819E-25
8.11257E-01 2.75021E-25
8.14660E-01 2.68378E-25
8.18039E-01 2.61884E-25
8.21394E-01 2.55537E-25
8.24724E-01 2.49334E-25
8.28030E-01 2.43269E-25
8.31310E-01 2.37342E-25
8.34565E-01 2.31547E-25
8.37795E-01 2.25883E-25
8.40999E-01 2.20346E-25
8.44177E-01 2.14933E-25
8.47329E-01 2.09641E-25
8.50455E-01 2.04468E-25
8.53553E-01 1.99411E-25
8.56625E-01 1.94467E-25
8.59670E-01 1.89634E-25
8.62687E-01 1.84909E-25
8.65677E-01 1.80290E-25
8.68639E-01 1.75774E-25
8.71572E-01 1.71360E-25
8.74478E-01 1.67045E-25
8.77355E-01 1.62826E-25
8.80203E-01 1.58703E-25
8.83022E-01 1.54672E-25
8.85812E-01 1.50732E-25
8.88573E-01 1.46881E-25
8.91304E-01 1.43117E-25
8.94005E-01 1.39438E-25
8.96677E-01 1.35842E-25
8.99318E-01 1.32329E-25
9.01928E-01 1.28895E-25
9.04508E-01 1.25540E-25
9.07058E-01 1.22261E-25
9.09576E-01 1.19058E-25
9.12063E-01 1.15929E-25
9.14519E-01 1.12872E-25
9.16943E-01 1.09886E-25
9.19335E-01 1.06970E-25
9.21696E-01 1.04122E-25
9.24024E-01 1.01340E-25
9.26320E-01 9.86248E-26
9.28584E-01 9.59737E-26
9.30815E-01 9.33859E-26
9.33013E-01 9.08602E-26
9.35178E-01 8.83954E-26
9.37310E-01 8.59905E-26
9.39409E-01 8.36444E-26
9.41474E-01 8.13560E-26
9.43505E-01 7.91245E-26
9.45503E-01 7.69487E-26
9.47467E-01 7.48277E-26
9.49397E-01 7.27607E-26
9.51293E-01 7.07466E-26
9.53154E-01 6.87847E-26
9.54981E-01 6.68741E-26
9.56773E-01 6.50140E-26
9.58530E-01 6.32036E-26
9.60252E-01 6.14421E-26
9.61940E-01 5.97287E-26
9.63592E-01 5.80628E-26
9.65209E-01 5.64436E-26
9.66790E-01 5.48705E-26
9.68336E-01 5.33428E-26
9.69846E-01 5.18598E-26
9.71321E-01 5.04210E-26
9.72759E-01 4.90257E-26
9.74162E-01 4.76734E-26
9.75528E-01 4.63634E-26
9.76858E-01 4.50954E-26
9.78152E-01 4.38686E-26
9.79410E-01 4.26827E-26
9.80631E-01 4.15372E-26
9.81815E-01 4.04315E-26
9.82963E-01 3.93652E-26
9.84074E-01 3.83380E-26
9.85148E-01 3.73493E-26
9.86185E-01 3.63988E-26
9.87185E-01 3.54861E-26
9.88148E-01 3.46108E-26
9.89074E-01 3.37726E-26
9.89962E-01 3.29711E-26
9.90814E-01 3.22061E-26
9.91627E-01 3.14771E-26
9.92404E-01 3.07840E-26
9.93143E-01 3.01264E-26
9.93844E-01 2.95040E-26
9.94508E-01 2.89167E-26
9.95134E-01 2.83642E-26
9.95722E-01 2.78463E-26
9.96273E-01 2.73627E-26
9.96786E-01 2.69133E-26
9.97261E-01 2.64979E-26
9.97698E-01 2.61163E-26
9.98097E-01 2.57684E-26
9.98459E-01 2.54541E-26
9.98782E-01 2.51732E-26
9.99067E-01 2.49256E-26
9.99315E-01 2.47112E-26
9.99524E-01 2.45299E-26
9.99695E-01 2.43817E-26
9.99829E-01 2.42665E-26
9.99924E-01 2.41842E-26
9.99981E-01 2.41349E-26
1.00000E+00 2.41184E-26
