 #
 # Subroutine ELSEPA. Elastic scattering of electrons and positrons
 #                    by neutral atoms and positive ions
 #
 # Projectile: electron
 # Kinetic energy = 5.00000E+07 eV = 1.83747E+06 a.u.
 #
 # WARNING: High-energy factorization with free-atom DF screening.
 #          Absorption, polarization and exchange corrections are
 #          switched off.
 #          Phase shifts are calculated for the bare nucleus.
 #          Scattering amplitudes are not evaluated.
 #
 # Element: Ta,  Z =  73,  atomic weight = 1.80948E+02 g/mol
 #
 # Nuclear model: Fermi distribution
 #                Average radius = 6.05204E-13 cm
 #                Skin thickness = 5.46000E-14 cm
 #
 # Number of electrons = 73
 #
 # Total elastic cross section = 7.42422E-18 cm**2 = 2.65124E-01 a0**2
 # 1st transport cross section = 4.02020E-24 cm**2 = 1.43564E-07 a0**2
 # 2nd transport cross section = 1.17795E-23 cm**2 = 4.20653E-07 a0**2
 #
 #
 # Differential cross section:                       MU=(1-COS(THETA))/2
 #
 #  THETA        MU          DCS          DCS        Sherman      error
 #  (deg)                 (cm**2/sr)   (a0**2/sr)    function
 #----------------------------------------------------------------------
0.00000E+00 1.53138E-10
7.61557E-13 1.53026E-10
1.18994E-12 1.52963E-10
1.71346E-12 1.52887E-10
2.33225E-12 1.52796E-10
3.04617E-12 1.52692E-10
3.85530E-12 1.52575E-10
4.75964E-12 1.52444E-10
5.75917E-12 1.52299E-10
6.85391E-12 1.52140E-10
8.04379E-12 1.51969E-10
9.32893E-12 1.51784E-10
1.07092E-11 1.51585E-10
1.21847E-11 1.51374E-10
1.37554E-11 1.51149E-10
1.54213E-11 1.50911E-10
1.71823E-11 1.50661E-10
1.90386E-11 1.50397E-10
2.09900E-11 1.50121E-10
2.30367E-11 1.49833E-10
2.51785E-11 1.49532E-10
2.74156E-11 1.49218E-10
2.97478E-11 1.48893E-10
3.21752E-11 1.48556E-10
3.46979E-11 1.48206E-10
3.73157E-11 1.47845E-10
4.00286E-11 1.47473E-10
4.28368E-11 1.47089E-10
4.57402E-11 1.46693E-10
4.87388E-11 1.46287E-10
5.18325E-11 1.45870E-10
5.50215E-11 1.45442E-10
5.83057E-11 1.45003E-10
6.16850E-11 1.44554E-10
6.51595E-11 1.44095E-10
6.87293E-11 1.43626E-10
7.23943E-11 1.43147E-10
7.61544E-11 1.42658E-10
1.18991E-10 1.37274E-10
1.71347E-10 1.31154E-10
2.33223E-10 1.24501E-10
3.04617E-10 1.17518E-10
3.85531E-10 1.10389E-10
4.75965E-10 1.03273E-10
5.75917E-10 9.63011E-11
6.85389E-10 8.95745E-11
8.04380E-10 8.31625E-11
9.32891E-10 7.71132E-11
1.07092E-09 7.14593E-11
1.21847E-09 6.62107E-11
1.37554E-09 6.13640E-11
1.54213E-09 5.69063E-11
1.71823E-09 5.28184E-11
1.90386E-09 4.90771E-11
2.09900E-09 4.56569E-11
2.30367E-09 4.25319E-11
2.51785E-09 3.96765E-11
2.74156E-09 3.70661E-11
2.97478E-09 3.46776E-11
3.21752E-09 3.24869E-11
3.46978E-09 3.04768E-11
3.73156E-09 2.86298E-11
4.00286E-09 2.69300E-11
4.28368E-09 2.53627E-11
4.57402E-09 2.39152E-11
4.87388E-09 2.25758E-11
5.18326E-09 2.13344E-11
5.50215E-09 2.01816E-11
5.83057E-09 1.91095E-11
6.16850E-09 1.81107E-11
6.51596E-09 1.71788E-11
6.87293E-09 1.63076E-11
7.23942E-09 1.54913E-11
7.61544E-09 1.47265E-11
1.18991E-08 9.06716E-12
1.71347E-08 5.94457E-12
2.33223E-08 4.05002E-12
3.04617E-08 2.85065E-12
3.85531E-08 2.06282E-12
4.75965E-08 1.52759E-12
5.75917E-08 1.15300E-12
6.85389E-08 8.84215E-13
8.04380E-08 6.87046E-13
9.32891E-08 5.40192E-13
1.07092E-07 4.29698E-13
1.21847E-07 3.45552E-13
1.37554E-07 2.80773E-13
1.54213E-07 2.30394E-13
1.71823E-07 1.90829E-13
1.90386E-07 1.59460E-13
2.09900E-07 1.34380E-13
2.30367E-07 1.14125E-13
2.51785E-07 9.75447E-14
2.74156E-07 8.39405E-14
2.97478E-07 7.26914E-14
3.21752E-07 6.33089E-14
3.46978E-07 5.54245E-14
3.73156E-07 4.87494E-14
4.00286E-07 4.30594E-14
4.28368E-07 3.81800E-14
4.57402E-07 3.39741E-14
4.87388E-07 3.03324E-14
5.18325E-07 2.71666E-14
5.50215E-07 2.44042E-14
5.83057E-07 2.19852E-14
6.16850E-07 1.98594E-14
6.51596E-07 1.79846E-14
6.87293E-07 1.63253E-14
7.23942E-07 1.48516E-14
7.61543E-07 1.35395E-14
1.18991E-06 5.92740E-15
1.71347E-06 2.98972E-15
2.33223E-06 1.66657E-15
3.04617E-06 1.00099E-15
3.85531E-06 6.37209E-16
4.75964E-06 4.24814E-16
5.75916E-06 2.93999E-16
6.85388E-06 2.09897E-16
8.04378E-06 1.53826E-16
9.32888E-06 1.15268E-16
1.07092E-05 8.80574E-17
1.21846E-05 6.84148E-17
1.37553E-05 5.39496E-17
1.54212E-05 4.31089E-17
1.71822E-05 3.48575E-17
1.90385E-05 2.84728E-17
2.09899E-05 2.35107E-17
2.30365E-05 1.95808E-17
2.51783E-05 1.64343E-17
2.74153E-05 1.38917E-17
2.97475E-05 1.18208E-17
3.21749E-05 1.01218E-17
3.46974E-05 8.71843E-18
3.73152E-05 7.55121E-18
4.00281E-05 6.57389E-18
4.28362E-05 5.75016E-18
4.57395E-05 5.05156E-18
4.87380E-05 4.45575E-18
5.18317E-05 3.94502E-18
5.50205E-05 3.50525E-18
5.83045E-05 3.12506E-18
6.16838E-05 2.79511E-18
6.51582E-05 2.50769E-18
6.87277E-05 2.25640E-18
7.23925E-05 2.03590E-18
7.61524E-05 1.84171E-18
9.21439E-05 1.26250E-18
1.09658E-04 8.94172E-19
1.28695E-04 6.51016E-19
1.49255E-04 4.85179E-19
1.71338E-04 3.68991E-19
1.94942E-04 2.85610E-19
2.20070E-04 2.24523E-19
2.46720E-04 1.78944E-19
2.74892E-04 1.44376E-19
3.04586E-04 1.17776E-19
3.35803E-04 9.70369E-20
3.68542E-04 8.06746E-20
4.02802E-04 6.76254E-20
4.38585E-04 5.71154E-20
4.75889E-04 4.85737E-20
5.14715E-04 4.15740E-20
5.55063E-04 3.57935E-20
5.96931E-04 3.09860E-20
6.40321E-04 2.69611E-20
6.85233E-04 2.35707E-20
7.31665E-04 2.06984E-20
7.79618E-04 1.82518E-20
8.29092E-04 1.61574E-20
8.80086E-04 1.43559E-20
9.32601E-04 1.27995E-20
9.86636E-04 1.14491E-20
1.04219E-03 1.02729E-20
1.09927E-03 9.24457E-21
1.15786E-03 8.34222E-21
1.21797E-03 7.54780E-21
1.27961E-03 6.84615E-21
1.34276E-03 6.22453E-21
1.40743E-03 5.67222E-21
1.47362E-03 5.18013E-21
1.54133E-03 4.74053E-21
1.61056E-03 4.34683E-21
1.68131E-03 3.99337E-21
1.75357E-03 3.67533E-21
1.82735E-03 3.38849E-21
1.90265E-03 3.12927E-21
1.97947E-03 2.89451E-21
2.05780E-03 2.68149E-21
2.13765E-03 2.48783E-21
2.21902E-03 2.31145E-21
2.30190E-03 2.15053E-21
2.38630E-03 2.00346E-21
2.47222E-03 1.86884E-21
2.55965E-03 1.74542E-21
2.64859E-03 1.63209E-21
2.73905E-03 1.52787E-21
2.83103E-03 1.43190E-21
2.92452E-03 1.34341E-21
3.01952E-03 1.26169E-21
3.11604E-03 1.18615E-21
3.21407E-03 1.11621E-21
3.31362E-03 1.05140E-21
3.41468E-03 9.91257E-22
3.51725E-03 9.35390E-22
3.62133E-03 8.83434E-22
3.72692E-03 8.35066E-22
3.83403E-03 7.89991E-22
3.94265E-03 7.47940E-22
4.05278E-03 7.08676E-22
4.16442E-03 6.71975E-22
4.27757E-03 6.37640E-22
4.39223E-03 6.05490E-22
4.50840E-03 5.75356E-22
4.62608E-03 5.47092E-22
4.74527E-03 5.20557E-22
4.86597E-03 4.95625E-22
4.98817E-03 4.72182E-22
5.11188E-03 4.50121E-22
5.23711E-03 4.29345E-22
5.36383E-03 4.09764E-22
5.49207E-03 3.91298E-22
5.62181E-03 3.73869E-22
5.75306E-03 3.57409E-22
5.88581E-03 3.41853E-22
6.02007E-03 3.27142E-22
6.15583E-03 3.13221E-22
6.29310E-03 3.00039E-22
6.43187E-03 2.87550E-22
6.57214E-03 2.75710E-22
6.71392E-03 2.64479E-22
6.85720E-03 2.53819E-22
7.00198E-03 2.43696E-22
7.14827E-03 2.34077E-22
7.29605E-03 2.24932E-22
7.44534E-03 2.16234E-22
7.59612E-03 2.07956E-22
7.97965E-03 1.88944E-22
8.37255E-03 1.72074E-22
8.77480E-03 1.57061E-22
9.18641E-03 1.43664E-22
9.60736E-03 1.31677E-22
1.00376E-02 1.20925E-22
1.04773E-02 1.11255E-22
1.09262E-02 1.02538E-22
1.13844E-02 9.46638E-23
1.18520E-02 8.75366E-23
1.23288E-02 8.10721E-23
1.28150E-02 7.51971E-23
1.33104E-02 6.98478E-23
1.38150E-02 6.49684E-23
1.43290E-02 6.05099E-23
1.48521E-02 5.64292E-23
1.53845E-02 5.26882E-23
1.59262E-02 4.92533E-23
1.64770E-02 4.60947E-23
1.70371E-02 4.31861E-23
1.76063E-02 4.05038E-23
1.81848E-02 3.80269E-23
1.87724E-02 3.57367E-23
1.93692E-02 3.36165E-23
1.99751E-02 3.16513E-23
2.05901E-02 2.98274E-23
2.12143E-02 2.81330E-23
2.18476E-02 2.65569E-23
2.24900E-02 2.50895E-23
2.31415E-02 2.37216E-23
2.38021E-02 2.24454E-23
2.44717E-02 2.12535E-23
2.51504E-02 2.01392E-23
2.58382E-02 1.90966E-23
2.65349E-02 1.81201E-23
2.72407E-02 1.72048E-23
2.79555E-02 1.63461E-23
2.86793E-02 1.55398E-23
2.94120E-02 1.47821E-23
3.01537E-02 1.40696E-23
3.09043E-02 1.33990E-23
3.16639E-02 1.27673E-23
3.24324E-02 1.21720E-23
3.32098E-02 1.16105E-23
3.39961E-02 1.10805E-23
3.47912E-02 1.05799E-23
3.55952E-02 1.01068E-23
3.64081E-02 9.65937E-24
3.72297E-02 9.23599E-24
3.80602E-02 8.83509E-24
3.88995E-02 8.45527E-24
3.97476E-02 8.09521E-24
4.06044E-02 7.75369E-24
4.14700E-02 7.42957E-24
4.23443E-02 7.12180E-24
4.32273E-02 6.82940E-24
4.41190E-02 6.55146E-24
4.50194E-02 6.28714E-24
4.59284E-02 6.03564E-24
4.68461E-02 5.79622E-24
4.87074E-02 5.35094E-24
5.06030E-02 4.94632E-24
5.25328E-02 4.57799E-24
5.44967E-02 4.24215E-24
5.64946E-02 3.93544E-24
5.85262E-02 3.65489E-24
6.05914E-02 3.39790E-24
6.26901E-02 3.16215E-24
6.48222E-02 2.94560E-24
6.69873E-02 2.74642E-24
6.91854E-02 2.56298E-24
7.14163E-02 2.39383E-24
7.36799E-02 2.23768E-24
7.59760E-02 2.09337E-24
7.83043E-02 1.95985E-24
8.06647E-02 1.83619E-24
8.30571E-02 1.72154E-24
8.54812E-02 1.61515E-24
8.79369E-02 1.51632E-24
9.04240E-02 1.42443E-24
9.29422E-02 1.33892E-24
9.54915E-02 1.25929E-24
9.80716E-02 1.18506E-24
1.00682E-01 1.11582E-24
1.03323E-01 1.05117E-24
1.05995E-01 9.90777E-25
1.08696E-01 9.34311E-25
1.11427E-01 8.81483E-25
1.14188E-01 8.32024E-25
1.16978E-01 7.85689E-25
1.19797E-01 7.42253E-25
1.22645E-01 7.01510E-25
1.25522E-01 6.63271E-25
1.28428E-01 6.27360E-25
1.31361E-01 5.93618E-25
1.34323E-01 5.61895E-25
1.37313E-01 5.32056E-25
1.40330E-01 5.03975E-25
1.43375E-01 4.77534E-25
1.46447E-01 4.52626E-25
1.49545E-01 4.29150E-25
1.52671E-01 4.07016E-25
1.55823E-01 3.86136E-25
1.59001E-01 3.66432E-25
1.62205E-01 3.47829E-25
1.65435E-01 3.30259E-25
1.68690E-01 3.13658E-25
1.71970E-01 2.97967E-25
1.75276E-01 2.83129E-25
1.78606E-01 2.69095E-25
1.81961E-01 2.55815E-25
1.85340E-01 2.43245E-25
1.88743E-01 2.31343E-25
1.92169E-01 2.20070E-25
1.95619E-01 2.09389E-25
1.99092E-01 1.99266E-25
2.02589E-01 1.89670E-25
2.06107E-01 1.80569E-25
2.09649E-01 1.71937E-25
2.13212E-01 1.63747E-25
2.16797E-01 1.55973E-25
2.20404E-01 1.48594E-25
2.24032E-01 1.41587E-25
2.27680E-01 1.34932E-25
2.31350E-01 1.28610E-25
2.35040E-01 1.22602E-25
2.38751E-01 1.16893E-25
2.42481E-01 1.11465E-25
2.46231E-01 1.06304E-25
2.50000E-01 1.01396E-25
2.53788E-01 9.67271E-26
2.57595E-01 9.22852E-26
2.61421E-01 8.80583E-26
2.65264E-01 8.40354E-26
2.69126E-01 8.02059E-26
2.73005E-01 7.65598E-26
2.76901E-01 7.30878E-26
2.80814E-01 6.97810E-26
2.84744E-01 6.66311E-26
2.88691E-01 6.36301E-26
2.92653E-01 6.07706E-26
2.96632E-01 5.80455E-26
3.00625E-01 5.54481E-26
3.04634E-01 5.29721E-26
3.08658E-01 5.06115E-26
3.12697E-01 4.83606E-26
3.16749E-01 4.62140E-26
3.20816E-01 4.41666E-26
3.24896E-01 4.22137E-26
3.28990E-01 4.03506E-26
3.33097E-01 3.85731E-26
3.37216E-01 3.68769E-26
3.41348E-01 3.52582E-26
3.45492E-01 3.37133E-26
3.49647E-01 3.22386E-26
3.53814E-01 3.08309E-26
3.57992E-01 2.94869E-26
3.62181E-01 2.82037E-26
3.66381E-01 2.69783E-26
3.70590E-01 2.58082E-26
3.74810E-01 2.46906E-26
3.79039E-01 2.36231E-26
3.83277E-01 2.26035E-26
3.87524E-01 2.16294E-26
3.91780E-01 2.06988E-26
3.96044E-01 1.98096E-26
4.00316E-01 1.89600E-26
4.04596E-01 1.81481E-26
4.08882E-01 1.73722E-26
4.13176E-01 1.66307E-26
4.17476E-01 1.59219E-26
4.21783E-01 1.52444E-26
4.26095E-01 1.45968E-26
4.30413E-01 1.39776E-26
4.34737E-01 1.33857E-26
4.39065E-01 1.28198E-26
4.43398E-01 1.22786E-26
4.47736E-01 1.17612E-26
4.52077E-01 1.12664E-26
4.56422E-01 1.07931E-26
4.60770E-01 1.03406E-26
4.65122E-01 9.90769E-27
4.69476E-01 9.49365E-27
4.73832E-01 9.09760E-27
4.78190E-01 8.71873E-27
4.82550E-01 8.35629E-27
4.86912E-01 8.00954E-27
4.91274E-01 7.67779E-27
4.95637E-01 7.36036E-27
5.00000E-01 7.05664E-27
5.04363E-01 6.76600E-27
5.08726E-01 6.48788E-27
5.13088E-01 6.22171E-27
5.17450E-01 5.96698E-27
5.21810E-01 5.72317E-27
5.26168E-01 5.48982E-27
5.30524E-01 5.26645E-27
5.34878E-01 5.05264E-27
5.39230E-01 4.84795E-27
5.43578E-01 4.65200E-27
5.47923E-01 4.46439E-27
5.52264E-01 4.28477E-27
5.56602E-01 4.11278E-27
5.60935E-01 3.94810E-27
5.65263E-01 3.79039E-27
5.69587E-01 3.63937E-27
5.73905E-01 3.49473E-27
5.78217E-01 3.35620E-27
5.82524E-01 3.22351E-27
5.86824E-01 3.09642E-27
5.91118E-01 2.97466E-27
5.95404E-01 2.85803E-27
5.99684E-01 2.74628E-27
6.03956E-01 2.63921E-27
6.08220E-01 2.53662E-27
6.12476E-01 2.43832E-27
6.16723E-01 2.34410E-27
6.20961E-01 2.25381E-27
6.25190E-01 2.16727E-27
6.29410E-01 2.08432E-27
6.33619E-01 2.00480E-27
6.37819E-01 1.92857E-27
6.42008E-01 1.85548E-27
6.46186E-01 1.78540E-27
6.50353E-01 1.71819E-27
6.54508E-01 1.65374E-27
6.58652E-01 1.59193E-27
6.62784E-01 1.53263E-27
6.66903E-01 1.47575E-27
6.71010E-01 1.42118E-27
6.75104E-01 1.36882E-27
6.79184E-01 1.31857E-27
6.83251E-01 1.27035E-27
6.87303E-01 1.22407E-27
6.91342E-01 1.17964E-27
6.95366E-01 1.13699E-27
6.99375E-01 1.09604E-27
7.03368E-01 1.05671E-27
7.07347E-01 1.01894E-27
7.11309E-01 9.82663E-28
7.15256E-01 9.47811E-28
7.19186E-01 9.14326E-28
7.23099E-01 8.82148E-28
7.26995E-01 8.51223E-28
7.30874E-01 8.21497E-28
7.34736E-01 7.92919E-28
7.38579E-01 7.65440E-28
7.42405E-01 7.39014E-28
7.46212E-01 7.13596E-28
7.50000E-01 6.89144E-28
7.53769E-01 6.65617E-28
7.57519E-01 6.42975E-28
7.61249E-01 6.21182E-28
7.64960E-01 6.00202E-28
7.68650E-01 5.80001E-28
7.72320E-01 5.60545E-28
7.75968E-01 5.41805E-28
7.79596E-01 5.23749E-28
7.83203E-01 5.06350E-28
7.86788E-01 4.89580E-28
7.90351E-01 4.73413E-28
7.93893E-01 4.57824E-28
7.97411E-01 4.42789E-28
8.00908E-01 4.28285E-28
8.04381E-01 4.14291E-28
8.07831E-01 4.00785E-28
8.11257E-01 3.87748E-28
8.14660E-01 3.75160E-28
8.18039E-01 3.63003E-28
8.21394E-01 3.51260E-28
8.24724E-01 3.39915E-28
8.28030E-01 3.28950E-28
8.31310E-01 3.18351E-28
8.34565E-01 3.08103E-28
8.37795E-01 2.98192E-28
8.40999E-01 2.88605E-28
8.44177E-01 2.79329E-28
8.47329E-01 2.70352E-28
8.50455E-01 2.61663E-28
8.53553E-01 2.53249E-28
8.56625E-01 2.45101E-28
8.59670E-01 2.37208E-28
8.62687E-01 2.29561E-28
8.65677E-01 2.22149E-28
8.68639E-01 2.14965E-28
8.71572E-01 2.08000E-28
8.74478E-01 2.01246E-28
8.77355E-01 1.94694E-28
8.80203E-01 1.88338E-28
8.83022E-01 1.82170E-28
8.85812E-01 1.76184E-28
8.88573E-01 1.70373E-28
8.91304E-01 1.64731E-28
8.94005E-01 1.59252E-28
8.96677E-01 1.53930E-28
8.99318E-01 1.48760E-28
9.01928E-01 1.43737E-28
9.04508E-01 1.38855E-28
9.07058E-01 1.34111E-28
9.09576E-01 1.29500E-28
9.12063E-01 1.25017E-28
9.14519E-01 1.20658E-28
9.16943E-01 1.16419E-28
9.19335E-01 1.12297E-28
9.21696E-01 1.08288E-28
9.24024E-01 1.04388E-28
9.26320E-01 1.00595E-28
9.28584E-01 9.69045E-29
9.30815E-01 9.33145E-29
9.33013E-01 8.98219E-29
9.35178E-01 8.64239E-29
9.37310E-01 8.31179E-29
9.39409E-01 7.99014E-29
9.41474E-01 7.67722E-29
9.43505E-01 7.37279E-29
9.45503E-01 7.07663E-29
9.47467E-01 6.78855E-29
9.49397E-01 6.50835E-29
9.51293E-01 6.23583E-29
9.53154E-01 5.97083E-29
9.54981E-01 5.71316E-29
9.56773E-01 5.46267E-29
9.58530E-01 5.21921E-29
9.60252E-01 4.98262E-29
9.61940E-01 4.75276E-29
9.63592E-01 4.52950E-29
9.65209E-01 4.31271E-29
9.66790E-01 4.10226E-29
9.68336E-01 3.89805E-29
9.69846E-01 3.69996E-29
9.71321E-01 3.50788E-29
9.72759E-01 3.32172E-29
9.74162E-01 3.14137E-29
9.75528E-01 2.96675E-29
9.76858E-01 2.79777E-29
9.78152E-01 2.63435E-29
9.79410E-01 2.47640E-29
9.80631E-01 2.32386E-29
9.81815E-01 2.17665E-29
9.82963E-01 2.03470E-29
9.84074E-01 1.89795E-29
9.85148E-01 1.76634E-29
9.86185E-01 1.63982E-29
9.87185E-01 1.51832E-29
9.88148E-01 1.40180E-29
9.89074E-01 1.29020E-29
9.89962E-01 1.18348E-29
9.90814E-01 1.08160E-29
9.91627E-01 9.84521E-30
9.92404E-01 8.92195E-30
9.93143E-01 8.04588E-30
9.93844E-01 7.21669E-30
9.94508E-01 6.43404E-30
9.95134E-01 5.69763E-30
9.95722E-01 5.00719E-30
9.96273E-01 4.36246E-30
9.96786E-01 3.76320E-30
9.97261E-01 3.20919E-30
9.97698E-01 2.70022E-30
9.98097E-01 2.23612E-30
9.98459E-01 1.81672E-30
9.98782E-01 1.44185E-30
9.99067E-01 1.11141E-30
9.99315E-01 8.25250E-31
9.99524E-01 5.83289E-31
9.99695E-01 3.85435E-31
9.99829E-01 2.31621E-31
9.99924E-01 1.21792E-31
9.99981E-01 5.59104E-32
1.00000E+00 3.39524E-32
