 #
 # Subroutine ELSEPA. Elastic scattering of electrons and positrons
 #                    by neutral atoms and positive ions
 #
 # Projectile: electron
 # Kinetic energy = 8.00000E+08 eV = 2.93995E+07 a.u.
 #
 # WARNING: High-energy factorization with free-atom DF screening.
 #          Absorption, polarization and exchange corrections are
 #          switched off.
 #          Phase shifts are calculated for the bare nucleus.
 #          Scattering amplitudes are not evaluated.
 #
 # Element: Ta,  Z =  73,  atomic weight = 1.80948E+02 g/mol
 #
 # Nuclear model: Fermi distribution
 #                Average radius = 6.05204E-13 cm
 #                Skin thickness = 5.46000E-14 cm
 #
 # Number of electrons = 73
 #
 # Total elastic cross section = 7.39884E-18 cm**2 = 2.64217E-01 a0**2
 # 1st transport cross section = 1.57569E-26 cm**2 = 5.62690E-10 a0**2
 # 2nd transport cross section = 4.72637E-26 cm**2 = 1.68782E-09 a0**2
 #
 #
 # Differential cross section:                       MU=(1-COS(THETA))/2
 #
 #  THETA        MU          DCS          DCS        Sherman      error
 #  (deg)                 (cm**2/sr)   (a0**2/sr)    function
 #----------------------------------------------------------------------
0.00000E+00 3.84631E-08
7.61557E-13 3.23878E-08
1.18994E-12 2.96508E-08
1.71346E-12 2.68125E-08
2.33225E-12 2.40237E-08
3.04617E-12 2.13914E-08
3.85530E-12 1.89830E-08
4.75964E-12 1.68215E-08
5.75917E-12 1.49163E-08
6.85391E-12 1.32473E-08
8.04379E-12 1.17996E-08
9.32893E-12 1.05415E-08
1.07092E-11 9.45274E-09
1.21847E-11 8.50574E-09
1.37554E-11 7.68167E-09
1.54213E-11 6.96061E-09
1.71823E-11 6.32750E-09
1.90386E-11 5.76923E-09
2.09900E-11 5.27407E-09
2.30367E-11 4.83415E-09
2.51785E-11 4.44011E-09
2.74156E-11 4.08771E-09
2.97478E-11 3.76930E-09
3.21752E-11 3.48271E-09
3.46979E-11 3.22241E-09
3.73157E-11 2.97423E-09
4.00286E-11 2.74577E-09
4.28368E-11 2.54437E-09
4.57402E-11 2.36615E-09
4.87388E-11 2.20785E-09
5.18325E-11 2.06677E-09
5.50215E-11 1.94059E-09
5.83057E-11 1.81050E-09
6.16850E-11 1.68806E-09
6.51595E-11 1.57824E-09
6.87293E-11 1.47943E-09
7.23943E-11 1.39030E-09
7.61544E-11 1.30966E-09
1.18991E-10 7.34780E-10
1.71347E-10 4.43270E-10
2.33223E-10 2.82009E-10
3.04617E-10 1.86518E-10
3.85531E-10 1.27562E-10
4.75965E-10 8.95933E-11
5.75917E-10 6.46596E-11
6.85389E-10 4.77484E-11
8.04380E-10 3.60771E-11
9.32891E-10 2.78006E-11
1.07092E-09 2.17909E-11
1.21847E-09 1.73544E-11
1.37554E-09 1.40173E-11
1.54213E-09 1.14559E-11
1.71823E-09 9.45741E-12
1.90386E-09 7.87736E-12
2.09900E-09 6.61361E-12
2.30367E-09 5.59463E-12
2.51785E-09 4.76424E-12
2.74156E-09 4.08297E-12
2.97478E-09 3.51807E-12
3.21752E-09 3.04745E-12
3.46978E-09 2.65219E-12
3.73156E-09 2.31756E-12
4.00286E-09 2.03455E-12
4.28368E-09 1.79511E-12
4.57402E-09 1.58809E-12
4.87388E-09 1.41057E-12
5.18326E-09 1.25784E-12
5.50215E-09 1.12409E-12
5.83057E-09 1.00822E-12
6.16850E-09 9.06948E-13
6.51596E-09 8.17754E-13
6.87293E-09 7.39593E-13
7.23942E-09 6.70370E-13
7.61544E-09 6.09024E-13
1.18991E-08 2.60359E-13
1.71347E-08 1.29299E-13
2.33223E-08 7.13074E-14
3.04617E-08 4.24830E-14
3.85531E-08 2.68508E-14
4.75965E-08 1.77845E-14
5.75917E-08 1.22380E-14
6.85389E-08 8.69260E-15
8.04380E-08 6.34216E-15
9.32891E-08 4.73482E-15
1.07092E-07 3.60578E-15
1.21847E-07 2.79411E-15
1.37554E-07 2.19855E-15
1.54213E-07 1.75357E-15
1.71823E-07 1.41572E-15
1.90386E-07 1.15548E-15
2.09900E-07 9.52399E-16
2.30367E-07 7.92049E-16
2.51785E-07 6.64077E-16
2.74156E-07 5.60941E-16
2.97478E-07 4.77076E-16
3.21752E-07 4.08314E-16
3.46978E-07 3.51507E-16
3.73156E-07 3.04243E-16
4.00286E-07 2.64662E-16
4.28368E-07 2.31313E-16
4.57402E-07 2.03054E-16
4.87388E-07 1.78981E-16
5.18325E-07 1.58371E-16
5.50215E-07 1.40643E-16
5.83057E-07 1.25328E-16
6.16850E-07 1.12040E-16
6.51596E-07 1.00468E-16
6.87293E-07 9.03511E-17
7.23942E-07 8.14761E-17
7.61543E-07 7.36638E-17
1.18991E-06 3.02791E-17
1.71347E-06 1.46332E-17
2.33223E-06 7.90958E-18
3.04617E-06 4.64099E-18
3.85531E-06 2.89946E-18
4.75964E-06 1.90343E-18
5.75916E-06 1.30068E-18
6.85388E-06 9.18739E-19
8.04378E-06 6.67262E-19
9.32888E-06 4.96244E-19
1.07092E-05 3.76676E-19
1.21846E-05 2.91051E-19
1.37553E-05 2.28436E-19
1.54212E-05 1.81792E-19
1.71822E-05 1.46471E-19
1.90385E-05 1.19264E-19
2.09899E-05 9.82024E-20
2.30365E-05 8.15797E-20
2.51783E-05 6.83122E-20
2.74153E-05 5.76215E-20
2.97475E-05 4.89362E-20
3.21749E-05 4.18275E-20
3.46974E-05 3.59680E-20
3.73152E-05 3.11044E-20
4.00281E-05 2.70398E-20
4.28362E-05 2.36189E-20
4.57395E-05 2.07222E-20
4.87380E-05 1.82554E-20
5.18317E-05 1.61440E-20
5.50205E-05 1.43286E-20
5.83045E-05 1.27610E-20
6.16838E-05 1.14023E-20
6.51582E-05 1.02202E-20
6.87277E-05 9.18783E-21
7.23925E-05 8.28292E-21
7.61524E-05 7.61850E-21
9.21439E-05 5.20318E-21
1.09658E-04 3.66960E-21
1.28695E-04 2.65862E-21
1.49255E-04 1.97011E-21
1.71338E-04 1.48850E-21
1.94942E-04 1.14351E-21
2.20070E-04 8.91324E-22
2.46720E-04 7.03641E-22
2.74892E-04 5.61731E-22
3.04586E-04 4.52922E-22
3.35803E-04 3.68435E-22
3.68542E-04 3.02093E-22
4.02802E-04 2.49466E-22
4.38585E-04 2.07333E-22
4.75889E-04 1.73320E-22
5.14715E-04 1.45651E-22
5.55063E-04 1.22987E-22
5.96931E-04 1.04303E-22
6.40321E-04 8.88110E-23
6.85233E-04 7.58954E-23
7.31665E-04 6.50746E-23
7.79618E-04 5.59672E-23
8.29092E-04 4.82695E-23
8.80086E-04 4.17377E-23
9.32601E-04 3.61751E-23
9.86636E-04 3.14220E-23
1.04219E-03 2.73479E-23
1.09927E-03 2.38456E-23
1.15786E-03 2.08267E-23
1.21797E-03 1.82182E-23
1.27961E-03 1.59588E-23
1.34276E-03 1.39977E-23
1.40743E-03 1.22922E-23
1.47362E-03 1.08060E-23
1.54133E-03 9.50883E-24
1.61056E-03 8.37480E-24
1.68131E-03 7.38193E-24
1.75357E-03 6.51146E-24
1.82735E-03 5.74734E-24
1.90265E-03 5.07582E-24
1.97947E-03 4.48503E-24
2.05780E-03 3.96477E-24
2.13765E-03 3.50621E-24
2.21902E-03 3.10171E-24
2.30190E-03 2.74465E-24
2.38630E-03 2.42925E-24
2.47222E-03 2.15049E-24
2.55965E-03 1.90399E-24
2.64859E-03 1.68592E-24
2.73905E-03 1.49292E-24
2.83103E-03 1.32207E-24
2.92452E-03 1.17077E-24
3.01952E-03 1.03677E-24
3.11604E-03 9.18059E-25
3.21407E-03 8.12894E-25
3.31362E-03 7.19719E-25
3.41468E-03 6.37169E-25
3.51725E-03 5.64033E-25
3.62133E-03 4.99244E-25
3.72692E-03 4.41857E-25
3.83403E-03 3.91034E-25
3.94265E-03 3.46033E-25
4.05278E-03 3.06197E-25
4.16442E-03 2.70942E-25
4.27757E-03 2.39751E-25
4.39223E-03 2.12164E-25
4.50840E-03 1.87774E-25
4.62608E-03 1.66217E-25
4.74527E-03 1.47173E-25
4.86597E-03 1.30353E-25
4.98817E-03 1.15506E-25
5.11188E-03 1.02404E-25
5.23711E-03 9.08471E-26
5.36383E-03 8.06569E-26
5.49207E-03 7.16748E-26
5.62181E-03 6.37604E-26
5.75306E-03 5.67887E-26
5.88581E-03 5.06488E-26
6.02007E-03 4.52425E-26
6.15583E-03 4.04824E-26
6.29310E-03 3.62915E-26
6.43187E-03 3.26011E-26
6.57214E-03 2.93508E-26
6.71392E-03 2.64868E-26
6.85720E-03 2.39620E-26
7.00198E-03 2.17343E-26
7.14827E-03 1.97670E-26
7.29605E-03 1.80276E-26
7.44534E-03 1.64873E-26
7.59612E-03 1.51211E-26
7.97965E-03 1.23284E-26
8.37255E-03 1.02155E-26
8.77480E-03 8.58429E-27
9.18641E-03 7.29490E-27
9.60736E-03 6.24950E-27
1.00376E-02 5.38062E-27
1.04773E-02 4.64232E-27
1.09262E-02 4.00373E-27
1.13844E-02 3.44433E-27
1.18520E-02 2.95052E-27
1.23288E-02 2.51324E-27
1.28150E-02 2.12624E-27
1.33104E-02 1.78496E-27
1.38150E-02 1.48577E-27
1.43290E-02 1.22546E-27
1.48521E-02 1.00102E-27
1.53845E-02 8.09476E-28
1.59262E-02 6.47804E-28
1.64770E-02 5.12979E-28
1.70371E-02 4.01988E-28
1.76063E-02 3.11875E-28
1.81848E-02 2.39796E-28
1.87724E-02 1.83066E-28
1.93692E-02 1.39195E-28
1.99751E-02 1.05915E-28
2.05901E-02 8.12005E-29
2.12143E-02 6.32740E-29
2.18476E-02 5.06046E-29
2.24900E-02 4.18998E-29
2.31415E-02 3.60898E-29
2.38021E-02 3.23096E-29
2.44717E-02 2.98771E-29
2.51504E-02 2.82698E-29
2.58382E-02 2.71023E-29
2.65349E-02 2.61030E-29
2.72407E-02 2.50933E-29
2.79555E-02 2.39680E-29
2.86793E-02 2.26776E-29
2.94120E-02 2.12139E-29
3.01537E-02 1.95964E-29
3.09043E-02 1.78624E-29
3.16639E-02 1.60583E-29
3.24324E-02 1.42335E-29
3.32098E-02 1.24353E-29
3.39961E-02 1.07057E-29
3.47912E-02 9.07971E-30
3.55952E-02 7.58407E-30
3.64081E-02 6.23717E-30
3.72297E-02 5.04941E-30
3.80602E-02 4.02393E-30
3.88995E-02 3.15775E-30
3.97476E-02 2.44287E-30
4.06044E-02 1.86750E-30
4.14700E-02 1.41726E-30
4.23443E-02 1.07621E-30
4.32273E-02 8.27802E-31
4.41190E-02 6.55695E-31
4.50194E-02 5.44336E-31
4.59284E-02 4.79450E-31
4.68461E-02 4.48350E-31
4.87074E-02 4.45683E-31
5.06030E-02 4.70867E-31
5.25328E-02 4.85435E-31
5.44967E-02 4.72700E-31
5.64946E-02 4.31154E-31
5.85262E-02 3.68050E-31
6.05914E-02 2.94122E-31
6.26901E-02 2.19873E-31
6.48222E-02 1.53414E-31
6.69873E-02 9.96189E-32
6.91854E-02 6.02219E-32
7.14163E-02 3.44758E-32
7.36799E-02 2.00359E-32
7.59760E-02 1.38305E-32
7.83043E-02 1.27655E-32
8.06647E-02 1.41991E-32
8.30571E-02 1.61840E-32
8.54812E-02 1.75172E-32
8.79369E-02 1.76532E-32
9.04240E-02 1.65438E-32
9.29422E-02 1.44539E-32
9.54915E-02 1.17927E-32
9.80716E-02 8.98197E-33
1.00682E-01 6.36973E-33
1.03323E-01 4.18825E-33
1.05995E-01 2.54709E-33
1.08696E-01 1.45041E-33
1.11427E-01 8.27142E-34
1.14188E-01 5.64406E-34
1.16978E-01 5.37405E-34
1.19797E-01 6.31938E-34
1.22645E-01 7.58144E-34
1.25522E-01 8.56055E-34
1.28428E-01 8.94685E-34
1.31361E-01 8.66871E-34
1.34323E-01 7.82061E-34
1.37313E-01 6.58853E-34
1.40330E-01 5.18558E-34
1.43375E-01 3.80465E-34
1.46447E-01 2.59021E-34
1.49545E-01 1.62746E-34
1.52671E-01 9.44934E-35
1.55823E-01 5.25749E-35
1.59001E-01 3.22962E-35
1.62205E-01 2.75144E-35
1.65435E-01 3.19631E-35
1.68690E-01 4.02036E-35
1.71970E-01 4.81649E-35
1.75276E-01 5.33139E-35
1.78606E-01 5.45413E-35
1.81961E-01 5.18674E-35
1.85340E-01 4.60678E-35
1.88743E-01 3.83014E-35
1.92169E-01 2.97944E-35
1.95619E-01 2.16146E-35
1.99092E-01 1.45389E-35
2.02589E-01 9.00941E-36
2.06107E-01 5.15396E-36
2.09649E-01 2.85149E-36
2.13212E-01 1.81635E-36
2.16797E-01 1.68396E-36
2.20404E-01 2.08388E-36
2.24032E-01 2.69312E-36
2.27680E-01 3.26723E-36
2.31350E-01 3.65121E-36
2.35040E-01 3.77437E-36
2.38751E-01 3.63457E-36
2.42481E-01 3.27746E-36
2.46231E-01 2.77472E-36
2.50000E-01 2.20519E-36
2.53788E-01 1.64051E-36
2.57595E-01 1.13597E-36
2.61421E-01 7.26546E-37
2.65264E-01 4.27032E-37
2.69126E-01 2.35104E-37
2.73005E-01 1.36042E-37
2.76901E-01 1.07938E-37
2.80814E-01 1.26509E-37
2.84744E-01 1.68918E-37
2.88691E-01 2.16367E-37
2.92653E-01 2.55417E-37
2.96632E-01 2.78227E-37
3.00625E-01 2.81973E-37
3.04634E-01 2.67750E-37
3.08658E-01 2.39281E-37
3.12697E-01 2.01623E-37
3.16749E-01 1.60074E-37
3.20816E-01 1.19343E-37
3.24896E-01 1.00000E-45
3.28990E-01 1.00000E-45
3.33097E-01 1.00000E-45
3.37216E-01 1.00000E-45
3.41348E-01 1.00000E-45
3.45492E-01 1.00000E-45
3.49647E-01 1.00000E-45
3.53814E-01 1.00000E-45
3.57992E-01 1.00000E-45
3.62181E-01 1.00000E-45
3.66381E-01 1.00000E-45
3.70590E-01 1.00000E-45
3.74810E-01 1.00000E-45
3.79039E-01 1.00000E-45
3.83277E-01 1.00000E-45
3.87524E-01 1.00000E-45
3.91780E-01 1.00000E-45
3.96044E-01 1.00000E-45
4.00316E-01 1.00000E-45
4.04596E-01 1.00000E-45
4.08882E-01 1.00000E-45
4.13176E-01 1.00000E-45
4.17476E-01 1.00000E-45
4.21783E-01 1.00000E-45
4.26095E-01 1.00000E-45
4.30413E-01 1.00000E-45
4.34737E-01 1.00000E-45
4.39065E-01 1.00000E-45
4.43398E-01 1.00000E-45
4.47736E-01 1.00000E-45
4.52077E-01 1.00000E-45
4.56422E-01 1.00000E-45
4.60770E-01 1.00000E-45
4.65122E-01 1.00000E-45
4.69476E-01 1.00000E-45
4.73832E-01 1.00000E-45
4.78190E-01 1.00000E-45
4.82550E-01 1.00000E-45
4.86912E-01 1.00000E-45
4.91274E-01 1.00000E-45
4.95637E-01 1.00000E-45
5.00000E-01 1.00000E-45
5.04363E-01 1.00000E-45
5.08726E-01 1.00000E-45
5.13088E-01 1.00000E-45
5.17450E-01 1.00000E-45
5.21810E-01 1.00000E-45
5.26168E-01 1.00000E-45
5.30524E-01 1.00000E-45
5.34878E-01 1.00000E-45
5.39230E-01 1.00000E-45
5.43578E-01 1.00000E-45
5.47923E-01 1.00000E-45
5.52264E-01 1.00000E-45
5.56602E-01 1.00000E-45
5.60935E-01 1.00000E-45
5.65263E-01 1.00000E-45
5.69587E-01 1.00000E-45
5.73905E-01 1.00000E-45
5.78217E-01 1.00000E-45
5.82524E-01 1.00000E-45
5.86824E-01 1.00000E-45
5.91118E-01 1.00000E-45
5.95404E-01 1.00000E-45
5.99684E-01 1.00000E-45
6.03956E-01 1.00000E-45
6.08220E-01 1.00000E-45
6.12476E-01 1.00000E-45
6.16723E-01 1.00000E-45
6.20961E-01 1.00000E-45
6.25190E-01 1.00000E-45
6.29410E-01 1.00000E-45
6.33619E-01 1.00000E-45
6.37819E-01 1.00000E-45
6.42008E-01 1.00000E-45
6.46186E-01 1.00000E-45
6.50353E-01 1.00000E-45
6.54508E-01 1.00000E-45
6.58652E-01 1.00000E-45
6.62784E-01 1.00000E-45
6.66903E-01 1.00000E-45
6.71010E-01 1.00000E-45
6.75104E-01 1.00000E-45
6.79184E-01 1.00000E-45
6.83251E-01 1.00000E-45
6.87303E-01 1.00000E-45
6.91342E-01 1.00000E-45
6.95366E-01 1.00000E-45
6.99375E-01 1.00000E-45
7.03368E-01 1.00000E-45
7.07347E-01 1.00000E-45
7.11309E-01 1.00000E-45
7.15256E-01 1.00000E-45
7.19186E-01 1.00000E-45
7.23099E-01 1.00000E-45
7.26995E-01 1.00000E-45
7.30874E-01 1.00000E-45
7.34736E-01 1.00000E-45
7.38579E-01 1.00000E-45
7.42405E-01 1.00000E-45
7.46212E-01 1.00000E-45
7.50000E-01 1.00000E-45
7.53769E-01 1.00000E-45
7.57519E-01 1.00000E-45
7.61249E-01 1.00000E-45
7.64960E-01 1.00000E-45
7.68650E-01 1.00000E-45
7.72320E-01 1.00000E-45
7.75968E-01 1.00000E-45
7.79596E-01 1.00000E-45
7.83203E-01 1.00000E-45
7.86788E-01 1.00000E-45
7.90351E-01 1.00000E-45
7.93893E-01 1.00000E-45
7.97411E-01 1.00000E-45
8.00908E-01 1.00000E-45
8.04381E-01 1.00000E-45
8.07831E-01 1.00000E-45
8.11257E-01 1.00000E-45
8.14660E-01 1.00000E-45
8.18039E-01 1.00000E-45
8.21394E-01 1.00000E-45
8.24724E-01 1.00000E-45
8.28030E-01 1.00000E-45
8.31310E-01 1.00000E-45
8.34565E-01 1.00000E-45
8.37795E-01 1.00000E-45
8.40999E-01 1.00000E-45
8.44177E-01 1.00000E-45
8.47329E-01 1.00000E-45
8.50455E-01 1.00000E-45
8.53553E-01 1.00000E-45
8.56625E-01 1.00000E-45
8.59670E-01 1.00000E-45
8.62687E-01 1.00000E-45
8.65677E-01 1.00000E-45
8.68639E-01 1.00000E-45
8.71572E-01 1.00000E-45
8.74478E-01 1.00000E-45
8.77355E-01 1.00000E-45
8.80203E-01 1.00000E-45
8.83022E-01 1.00000E-45
8.85812E-01 1.00000E-45
8.88573E-01 1.00000E-45
8.91304E-01 1.00000E-45
8.94005E-01 1.00000E-45
8.96677E-01 1.00000E-45
8.99318E-01 1.00000E-45
9.01928E-01 1.00000E-45
9.04508E-01 1.00000E-45
9.07058E-01 1.00000E-45
9.09576E-01 1.00000E-45
9.12063E-01 1.00000E-45
9.14519E-01 1.00000E-45
9.16943E-01 1.00000E-45
9.19335E-01 1.00000E-45
9.21696E-01 1.00000E-45
9.24024E-01 1.00000E-45
9.26320E-01 1.00000E-45
9.28584E-01 1.00000E-45
9.30815E-01 1.00000E-45
9.33013E-01 1.00000E-45
9.35178E-01 1.00000E-45
9.37310E-01 1.00000E-45
9.39409E-01 1.00000E-45
9.41474E-01 1.00000E-45
9.43505E-01 1.00000E-45
9.45503E-01 1.00000E-45
9.47467E-01 1.00000E-45
9.49397E-01 1.00000E-45
9.51293E-01 1.00000E-45
9.53154E-01 1.00000E-45
9.54981E-01 1.00000E-45
9.56773E-01 1.00000E-45
9.58530E-01 1.00000E-45
9.60252E-01 1.00000E-45
9.61940E-01 1.00000E-45
9.63592E-01 1.00000E-45
9.65209E-01 1.00000E-45
9.66790E-01 1.00000E-45
9.68336E-01 1.00000E-45
9.69846E-01 1.00000E-45
9.71321E-01 1.00000E-45
9.72759E-01 1.00000E-45
9.74162E-01 1.00000E-45
9.75528E-01 1.00000E-45
9.76858E-01 1.00000E-45
9.78152E-01 1.00000E-45
9.79410E-01 1.00000E-45
9.80631E-01 1.00000E-45
9.81815E-01 1.00000E-45
9.82963E-01 1.00000E-45
9.84074E-01 1.00000E-45
9.85148E-01 1.00000E-45
9.86185E-01 1.00000E-45
9.87185E-01 1.00000E-45
9.88148E-01 1.00000E-45
9.89074E-01 1.00000E-45
9.89962E-01 1.00000E-45
9.90814E-01 1.00000E-45
9.91627E-01 1.00000E-45
9.92404E-01 1.00000E-45
9.93143E-01 1.00000E-45
9.93844E-01 1.00000E-45
9.94508E-01 1.00000E-45
9.95134E-01 1.00000E-45
9.95722E-01 1.00000E-45
9.96273E-01 1.00000E-45
9.96786E-01 1.00000E-45
9.97261E-01 1.00000E-45
9.97698E-01 1.00000E-45
9.98097E-01 1.00000E-45
9.98459E-01 1.00000E-45
9.98782E-01 1.00000E-45
9.99067E-01 1.00000E-45
9.99315E-01 1.00000E-45
9.99524E-01 1.00000E-45
9.99695E-01 1.00000E-45
9.99829E-01 1.00000E-45
9.99924E-01 1.00000E-45
9.99981E-01 1.00000E-45
1.00000E+00 1.00000E-45
