 #
 # Subroutine ELSEPA. Elastic scattering of electrons and positrons
 #                    by neutral atoms and positive ions
 #
 # Projectile: electron
 # Kinetic energy = 2.50000E+08 eV = 9.18733E+06 a.u.
 #
 # WARNING: High-energy factorization with free-atom DF screening.
 #          Absorption, polarization and exchange corrections are
 #          switched off.
 #          Phase shifts are calculated for the bare nucleus.
 #          Scattering amplitudes are not evaluated.
 #
 # Element: Ta,  Z =  73,  atomic weight = 1.80948E+02 g/mol
 #
 # Nuclear model: Fermi distribution
 #                Average radius = 6.05204E-13 cm
 #                Skin thickness = 5.46000E-14 cm
 #
 # Number of electrons = 73
 #
 # Total elastic cross section = 7.42763E-18 cm**2 = 2.65245E-01 a0**2
 # 1st transport cross section = 1.61920E-25 cm**2 = 5.78226E-09 a0**2
 # 2nd transport cross section = 4.85047E-25 cm**2 = 1.73214E-08 a0**2
 #
 #
 # Differential cross section:                       MU=(1-COS(THETA))/2
 #
 #  THETA        MU          DCS          DCS        Sherman      error
 #  (deg)                 (cm**2/sr)   (a0**2/sr)    function
 #----------------------------------------------------------------------
0.00000E+00 3.76672E-09
7.61557E-13 3.70037E-09
1.18994E-12 3.66394E-09
1.71346E-12 3.62023E-09
2.33225E-12 3.56969E-09
3.04617E-12 3.51284E-09
3.85530E-12 3.45013E-09
4.75964E-12 3.38219E-09
5.75917E-12 3.31013E-09
6.85391E-12 3.23357E-09
8.04379E-12 3.15431E-09
9.32893E-12 3.07181E-09
1.07092E-11 2.98772E-09
1.21847E-11 2.90180E-09
1.37554E-11 2.81514E-09
1.54213E-11 2.72799E-09
1.71823E-11 2.64076E-09
1.90386E-11 2.55424E-09
2.09900E-11 2.46814E-09
2.30367E-11 2.38376E-09
2.51785E-11 2.30014E-09
2.74156E-11 2.21889E-09
2.97478E-11 2.13890E-09
3.21752E-11 2.06148E-09
3.46979E-11 1.98593E-09
3.73157E-11 1.91289E-09
4.00286E-11 1.84216E-09
4.28368E-11 1.77383E-09
4.57402E-11 1.70807E-09
4.87388E-11 1.64456E-09
5.18325E-11 1.58377E-09
5.50215E-11 1.52504E-09
5.83057E-11 1.46905E-09
6.16850E-11 1.41499E-09
6.51595E-11 1.36349E-09
6.87293E-11 1.31396E-09
7.23943E-11 1.26670E-09
7.61544E-11 1.22140E-09
1.18991E-10 8.64278E-10
1.71347E-10 6.32839E-10
2.33223E-10 4.77291E-10
3.04617E-10 3.68100E-10
3.85531E-10 2.87393E-10
4.75965E-10 2.26977E-10
5.75917E-10 1.84854E-10
6.85389E-10 1.49089E-10
8.04380E-10 1.23300E-10
9.32891E-10 1.01724E-10
1.07092E-09 8.52376E-11
1.21847E-09 7.16819E-11
1.37554E-09 6.08107E-11
1.54213E-09 5.19224E-11
1.71823E-09 4.45277E-11
1.90386E-09 3.84857E-11
2.09900E-09 3.33082E-11
2.30367E-09 2.90739E-11
2.51785E-09 2.53588E-11
2.74156E-09 2.22964E-11
2.97478E-09 1.95959E-11
3.21752E-09 1.73261E-11
3.46978E-09 1.53400E-11
3.73156E-09 1.36342E-11
4.00286E-09 1.21495E-11
4.28368E-09 1.08531E-11
4.57402E-09 9.72753E-12
4.87388E-09 8.73277E-12
5.18326E-09 7.86890E-12
5.50215E-09 7.09870E-12
5.83057E-09 6.42757E-12
6.16850E-09 5.82672E-12
6.51596E-09 5.29884E-12
6.87293E-09 4.82707E-12
7.23942E-09 4.40838E-12
7.61544E-09 4.03406E-12
1.18991E-08 1.83879E-12
1.71347E-08 9.66024E-13
2.33223E-08 5.56499E-13
3.04617E-08 3.42801E-13
3.85531E-08 2.22097E-13
4.75965E-08 1.50152E-13
5.75917E-08 1.05099E-13
6.85389E-08 7.57421E-14
8.04380E-08 5.59570E-14
9.32891E-08 4.22324E-14
1.07092E-07 3.24641E-14
1.21847E-07 2.53656E-14
1.37554E-07 2.01078E-14
1.54213E-07 1.61460E-14
1.71823E-07 1.31148E-14
1.90386E-07 1.07635E-14
2.09900E-07 8.91670E-15
2.30367E-07 7.44927E-15
2.51785E-07 6.27167E-15
2.74156E-07 5.31785E-15
2.97478E-07 4.53860E-15
3.21752E-07 3.89690E-15
3.46978E-07 3.36461E-15
3.73156E-07 2.92007E-15
4.00286E-07 2.54641E-15
4.28368E-07 2.23055E-15
4.57402E-07 1.96211E-15
4.87388E-07 1.73281E-15
5.18325E-07 1.53601E-15
5.50215E-07 1.36632E-15
5.83057E-07 1.21941E-15
6.16850E-07 1.09168E-15
6.51596E-07 9.80222E-16
6.87293E-07 8.82620E-16
7.23942E-07 7.96859E-16
7.61543E-07 7.21258E-16
1.18991E-06 2.99048E-16
1.71347E-06 1.45407E-16
2.33223E-06 7.89677E-17
3.04617E-06 4.65080E-17
3.85531E-06 2.91428E-17
4.75964E-06 1.91775E-17
5.75916E-06 1.31302E-17
6.85388E-06 9.28923E-18
8.04378E-06 6.75536E-18
9.32888E-06 5.02939E-18
1.07092E-05 3.82101E-18
1.21846E-05 2.95467E-18
1.37553E-05 2.32050E-18
1.54212E-05 1.84769E-18
1.71822E-05 1.48940E-18
1.90385E-05 1.21323E-18
2.09899E-05 9.99330E-19
2.30365E-05 8.30427E-19
2.51783E-05 6.95558E-19
2.74153E-05 5.86843E-19
2.97475E-05 4.98491E-19
3.21749E-05 4.26154E-19
3.46974E-05 3.66512E-19
3.73152E-05 3.16994E-19
4.00281E-05 2.75597E-19
4.28362E-05 2.40760E-19
4.57395E-05 2.11258E-19
4.87380E-05 1.86130E-19
5.18317E-05 1.64619E-19
5.50205E-05 1.46120E-19
5.83045E-05 1.30145E-19
6.16838E-05 1.16298E-19
6.51582E-05 1.04248E-19
6.87277E-05 9.37233E-20
7.23925E-05 8.44974E-20
7.61524E-05 7.67426E-20
9.21439E-05 5.25184E-20
1.09658E-04 3.71514E-20
1.28695E-04 2.70261E-20
1.49255E-04 2.01310E-20
1.71338E-04 1.53056E-20
1.94942E-04 1.18455E-20
2.20070E-04 9.31210E-21
2.46720E-04 7.42251E-21
2.74892E-04 5.98967E-21
3.04586E-04 4.88716E-21
3.35803E-04 4.02749E-21
3.68542E-04 3.34914E-21
4.02802E-04 2.80805E-21
4.38585E-04 2.37202E-21
4.75889E-04 2.01747E-21
5.14715E-04 1.72680E-21
5.55063E-04 1.48666E-21
5.96931E-04 1.28684E-21
6.40321E-04 1.11948E-21
6.85233E-04 9.78438E-22
7.31665E-04 8.58889E-22
7.79618E-04 7.57013E-22
8.29092E-04 6.69763E-22
8.80086E-04 5.94686E-22
9.32601E-04 5.29796E-22
9.86636E-04 4.73478E-22
1.04219E-03 4.24406E-22
1.09927E-03 3.81489E-22
1.15786E-03 3.43822E-22
1.21797E-03 3.10653E-22
1.27961E-03 2.81353E-22
1.34276E-03 2.55393E-22
1.40743E-03 2.32325E-22
1.47362E-03 2.11773E-22
1.54133E-03 1.93414E-22
1.61056E-03 1.76973E-22
1.68131E-03 1.62216E-22
1.75357E-03 1.48940E-22
1.82735E-03 1.36971E-22
1.90265E-03 1.26158E-22
1.97947E-03 1.16369E-22
2.05780E-03 1.07491E-22
2.13765E-03 9.94249E-23
2.21902E-03 9.20831E-23
2.30190E-03 8.53896E-23
2.38630E-03 7.92770E-23
2.47222E-03 7.36865E-23
2.55965E-03 6.85657E-23
2.64859E-03 6.38683E-23
2.73905E-03 5.95535E-23
2.83103E-03 5.55847E-23
2.92452E-03 5.19295E-23
3.01952E-03 4.85589E-23
3.11604E-03 4.54470E-23
3.21407E-03 4.25705E-23
3.31362E-03 3.99087E-23
3.41468E-03 3.74430E-23
3.51725E-03 3.51563E-23
3.62133E-03 3.30336E-23
3.72692E-03 3.10612E-23
3.83403E-03 2.92266E-23
3.94265E-03 2.75187E-23
4.05278E-03 2.59273E-23
4.16442E-03 2.44432E-23
4.27757E-03 2.30579E-23
4.39223E-03 2.17638E-23
4.50840E-03 2.05540E-23
4.62608E-03 1.94220E-23
4.74527E-03 1.83622E-23
4.86597E-03 1.73691E-23
4.98817E-03 1.64379E-23
5.11188E-03 1.55641E-23
5.23711E-03 1.47438E-23
5.36383E-03 1.39730E-23
5.49207E-03 1.32484E-23
5.62181E-03 1.25667E-23
5.75306E-03 1.19251E-23
5.88581E-03 1.13208E-23
6.02007E-03 1.07513E-23
6.15583E-03 1.02144E-23
6.29310E-03 9.70785E-24
6.43187E-03 9.22976E-24
6.57214E-03 8.77827E-24
6.71392E-03 8.35171E-24
6.85720E-03 7.94849E-24
7.00198E-03 7.56716E-24
7.14827E-03 7.20637E-24
7.29605E-03 6.86486E-24
7.44534E-03 6.54145E-24
7.59612E-03 6.23506E-24
7.97965E-03 5.53705E-24
8.37255E-03 4.92516E-24
8.77480E-03 4.38750E-24
9.18641E-03 3.91405E-24
9.60736E-03 3.49627E-24
1.00376E-02 3.12691E-24
1.04773E-02 2.79977E-24
1.09262E-02 2.50951E-24
1.13844E-02 2.25157E-24
1.18520E-02 2.02201E-24
1.23288E-02 1.81740E-24
1.28150E-02 1.63480E-24
1.33104E-02 1.47163E-24
1.38150E-02 1.32564E-24
1.43290E-02 1.19490E-24
1.48521E-02 1.07767E-24
1.53845E-02 9.72462E-25
1.59262E-02 8.77957E-25
1.64770E-02 7.92992E-25
1.70371E-02 7.16543E-25
1.76063E-02 6.47705E-25
1.81848E-02 5.85677E-25
1.87724E-02 5.29749E-25
1.93692E-02 4.79291E-25
1.99751E-02 4.33743E-25
2.05901E-02 3.92605E-25
2.12143E-02 3.55435E-25
2.18476E-02 3.21833E-25
2.24900E-02 2.91447E-25
2.31415E-02 2.63959E-25
2.38021E-02 2.39084E-25
2.44717E-02 2.16567E-25
2.51504E-02 1.96181E-25
2.58382E-02 1.77719E-25
2.65349E-02 1.60998E-25
2.72407E-02 1.45849E-25
2.79555E-02 1.32124E-25
2.86793E-02 1.19689E-25
2.94120E-02 1.08420E-25
3.01537E-02 9.82079E-26
3.09043E-02 8.89539E-26
3.16639E-02 8.05679E-26
3.24324E-02 7.29688E-26
3.32098E-02 6.60830E-26
3.39961E-02 5.98442E-26
3.47912E-02 5.41921E-26
3.55952E-02 4.90722E-26
3.64081E-02 4.44349E-26
3.72297E-02 4.02355E-26
3.80602E-02 3.64332E-26
3.88995E-02 3.29912E-26
3.97476E-02 2.98760E-26
4.06044E-02 2.70571E-26
4.14700E-02 2.45069E-26
4.23443E-02 2.22004E-26
4.32273E-02 2.01148E-26
4.41190E-02 1.82294E-26
4.50194E-02 1.65254E-26
4.59284E-02 1.49858E-26
4.68461E-02 1.35950E-26
4.87074E-02 1.12051E-26
5.06030E-02 9.25779E-27
5.25328E-02 7.67246E-27
5.44967E-02 6.38266E-27
5.64946E-02 5.33369E-27
5.85262E-02 4.48058E-27
6.05914E-02 3.78642E-27
6.26901E-02 3.22097E-27
6.48222E-02 2.75949E-27
6.69873E-02 2.38182E-27
6.91854E-02 2.07152E-27
7.14163E-02 1.81530E-27
7.36799E-02 1.60239E-27
7.59760E-02 1.42411E-27
7.83043E-02 1.27351E-27
8.06647E-02 1.14503E-27
8.30571E-02 1.03425E-27
8.54812E-02 9.37674E-28
8.79369E-02 8.52559E-28
9.04240E-02 7.76752E-28
9.29422E-02 7.08578E-28
9.54915E-02 6.46744E-28
9.80716E-02 5.90256E-28
1.00682E-01 5.38352E-28
1.03323E-01 4.90450E-28
1.05995E-01 4.46108E-28
1.08696E-01 4.04986E-28
1.11427E-01 3.66824E-28
1.14188E-01 3.31413E-28
1.16978E-01 2.98591E-28
1.19797E-01 2.68217E-28
1.22645E-01 2.40171E-28
1.25522E-01 2.14346E-28
1.28428E-01 1.90637E-28
1.31361E-01 1.68945E-28
1.34323E-01 1.49171E-28
1.37313E-01 1.31217E-28
1.40330E-01 1.14980E-28
1.43375E-01 1.00361E-28
1.46447E-01 8.72565E-29
1.49545E-01 7.55649E-29
1.52671E-01 6.51840E-29
1.55823E-01 5.60132E-29
1.59001E-01 4.79537E-29
1.62205E-01 4.09093E-29
1.65435E-01 3.47870E-29
1.68690E-01 2.94976E-29
1.71970E-01 2.49561E-29
1.75276E-01 2.10821E-29
1.78606E-01 1.78002E-29
1.81961E-01 1.50401E-29
1.85340E-01 1.27367E-29
1.88743E-01 1.08300E-29
1.92169E-01 9.26544E-30
1.95619E-01 7.99334E-30
1.99092E-01 6.96905E-30
2.02589E-01 6.15265E-30
2.06107E-01 5.50872E-30
2.09649E-01 5.00607E-30
2.13212E-01 4.61750E-30
2.16797E-01 4.31945E-30
2.20404E-01 4.09177E-30
2.24032E-01 3.91736E-30
2.27680E-01 3.78191E-30
2.31350E-01 3.67361E-30
2.35040E-01 3.58286E-30
2.38751E-01 3.50200E-30
2.42481E-01 3.42510E-30
2.46231E-01 3.34767E-30
2.50000E-01 3.26649E-30
2.53788E-01 3.17940E-30
2.57595E-01 3.08510E-30
2.61421E-01 2.98304E-30
2.65264E-01 2.87321E-30
2.69126E-01 2.75607E-30
2.73005E-01 2.63239E-30
2.76901E-01 2.50320E-30
2.80814E-01 2.36968E-30
2.84744E-01 2.23310E-30
2.88691E-01 2.09476E-30
2.92653E-01 1.95594E-30
2.96632E-01 1.81786E-30
3.00625E-01 1.68169E-30
3.04634E-01 1.54846E-30
3.08658E-01 1.41912E-30
3.12697E-01 1.29447E-30
3.16749E-01 1.17520E-30
3.20816E-01 1.06184E-30
3.24896E-01 9.54846E-31
3.28990E-01 8.54508E-31
3.33097E-01 7.61028E-31
3.37216E-01 6.74496E-31
3.41348E-01 5.94912E-31
3.45492E-01 5.22192E-31
3.49647E-01 4.56180E-31
3.53814E-01 3.96658E-31
3.57992E-01 3.43357E-31
3.62181E-01 2.95968E-31
3.66381E-01 2.54149E-31
3.70590E-01 2.17534E-31
3.74810E-01 1.85745E-31
3.79039E-01 1.58392E-31
3.83277E-01 1.35087E-31
3.87524E-01 1.15445E-31
3.91780E-01 9.90890E-32
3.96044E-01 8.56551E-32
4.00316E-01 7.47957E-32
4.04596E-01 6.61819E-32
4.08882E-01 5.95050E-32
4.13176E-01 5.44783E-32
4.17476E-01 5.08380E-32
4.21783E-01 4.83435E-32
4.26095E-01 4.67771E-32
4.30413E-01 4.59441E-32
4.34737E-01 4.56720E-32
4.39065E-01 4.58096E-32
4.43398E-01 4.62259E-32
4.47736E-01 4.68091E-32
4.52077E-01 4.74650E-32
4.56422E-01 4.81158E-32
4.60770E-01 4.86988E-32
4.65122E-01 4.91646E-32
4.69476E-01 4.94761E-32
4.73832E-01 4.96067E-32
4.78190E-01 4.95394E-32
4.82550E-01 4.92653E-32
4.86912E-01 4.87821E-32
4.91274E-01 4.80937E-32
4.95637E-01 4.72083E-32
5.00000E-01 4.61383E-32
5.04363E-01 4.48988E-32
5.08726E-01 4.35070E-32
5.13088E-01 4.19818E-32
5.17450E-01 4.03428E-32
5.21810E-01 3.86099E-32
5.26168E-01 3.68030E-32
5.30524E-01 3.49416E-32
5.34878E-01 3.30442E-32
5.39230E-01 3.11287E-32
5.43578E-01 2.92113E-32
5.47923E-01 2.73073E-32
5.52264E-01 2.54302E-32
5.56602E-01 2.35924E-32
5.60935E-01 2.18044E-32
5.65263E-01 2.00755E-32
5.69587E-01 1.84134E-32
5.73905E-01 1.68243E-32
5.78217E-01 1.53133E-32
5.82524E-01 1.38841E-32
5.86824E-01 1.25392E-32
5.91118E-01 1.12799E-32
5.95404E-01 1.01068E-32
5.99684E-01 9.01948E-33
6.03956E-01 8.01670E-33
6.08220E-01 7.09660E-33
6.12476E-01 6.25674E-33
6.16723E-01 5.49419E-33
6.20961E-01 4.80563E-33
6.25190E-01 4.18741E-33
6.29410E-01 3.63565E-33
6.33619E-01 3.14632E-33
6.37819E-01 2.71527E-33
6.42008E-01 2.33830E-33
6.46186E-01 2.01122E-33
6.50353E-01 1.72989E-33
6.54508E-01 1.49026E-33
6.58652E-01 1.28839E-33
6.62784E-01 1.12049E-33
6.66903E-01 9.82941E-34
6.71010E-01 8.72300E-34
6.75104E-01 7.85328E-34
6.79184E-01 7.18991E-34
6.83251E-01 6.70466E-34
6.87303E-01 6.37145E-34
6.91342E-01 6.16631E-34
6.95366E-01 6.06739E-34
6.99375E-01 6.05490E-34
7.03368E-01 6.11102E-34
7.07347E-01 6.21985E-34
7.11309E-01 6.36733E-34
7.15256E-01 6.54110E-34
7.19186E-01 6.73043E-34
7.23099E-01 6.92609E-34
7.26995E-01 7.12024E-34
7.30874E-01 7.30636E-34
7.34736E-01 7.47907E-34
7.38579E-01 7.63409E-34
7.42405E-01 7.76806E-34
7.46212E-01 7.87852E-34
7.50000E-01 7.96375E-34
7.53769E-01 8.02270E-34
7.57519E-01 8.05493E-34
7.61249E-01 8.06046E-34
7.64960E-01 8.03977E-34
7.68650E-01 7.99368E-34
7.72320E-01 7.92330E-34
7.75968E-01 7.83000E-34
7.79596E-01 7.71529E-34
7.83203E-01 7.58086E-34
7.86788E-01 7.42847E-34
7.90351E-01 7.25994E-34
7.93893E-01 7.07711E-34
7.97411E-01 6.88183E-34
8.00908E-01 6.67591E-34
8.04381E-01 6.46113E-34
8.07831E-01 6.23919E-34
8.11257E-01 6.01172E-34
8.14660E-01 5.78027E-34
8.18039E-01 5.54628E-34
8.21394E-01 5.31111E-34
8.24724E-01 5.07600E-34
8.28030E-01 4.84210E-34
8.31310E-01 4.61042E-34
8.34565E-01 4.38192E-34
8.37795E-01 4.15740E-34
8.40999E-01 3.93760E-34
8.44177E-01 3.72314E-34
8.47329E-01 3.51457E-34
8.50455E-01 3.31233E-34
8.53553E-01 3.11680E-34
8.56625E-01 2.92827E-34
8.59670E-01 2.74696E-34
8.62687E-01 2.57302E-34
8.65677E-01 2.40656E-34
8.68639E-01 2.24762E-34
8.71572E-01 2.09620E-34
8.74478E-01 1.95224E-34
8.77355E-01 1.81566E-34
8.80203E-01 1.68634E-34
8.83022E-01 1.56413E-34
8.85812E-01 1.44886E-34
8.88573E-01 1.34033E-34
8.91304E-01 1.23832E-34
8.94005E-01 1.14262E-34
8.96677E-01 1.05297E-34
8.99318E-01 9.69149E-35
9.01928E-01 8.90891E-35
9.04508E-01 8.17946E-35
9.07058E-01 7.50060E-35
9.09576E-01 6.86976E-35
9.12063E-01 6.28442E-35
9.14519E-01 5.74213E-35
9.16943E-01 5.24042E-35
9.19335E-01 4.77692E-35
9.21696E-01 4.34933E-35
9.24024E-01 3.95542E-35
9.26320E-01 3.59302E-35
9.28584E-01 3.26007E-35
9.30815E-01 2.95459E-35
9.33013E-01 2.67467E-35
9.35178E-01 2.41853E-35
9.37310E-01 2.18444E-35
9.39409E-01 1.97078E-35
9.41474E-01 1.77602E-35
9.43505E-01 1.59871E-35
9.45503E-01 1.43750E-35
9.47467E-01 1.29109E-35
9.49397E-01 1.15829E-35
9.51293E-01 1.03801E-35
9.53154E-01 9.29174E-36
9.54981E-01 8.30827E-36
9.56773E-01 7.42062E-36
9.58530E-01 6.62046E-36
9.60252E-01 5.89997E-36
9.61940E-01 5.25211E-36
9.63592E-01 4.67016E-36
9.65209E-01 4.14802E-36
9.66790E-01 3.68016E-36
9.68336E-01 3.26145E-36
9.69846E-01 2.88709E-36
9.71321E-01 2.55280E-36
9.72759E-01 2.25462E-36
9.74162E-01 1.98902E-36
9.75528E-01 1.75265E-36
9.76858E-01 1.54257E-36
9.78152E-01 1.35605E-36
9.79410E-01 1.19064E-36
9.80631E-01 1.04408E-36
9.81815E-01 9.14408E-37
9.82963E-01 7.99775E-37
9.84074E-01 6.98554E-37
9.85148E-01 6.09255E-37
9.86185E-01 5.30587E-37
9.87185E-01 4.61320E-37
9.88148E-01 4.00440E-37
9.89074E-01 3.46923E-37
9.89962E-01 2.99963E-37
9.90814E-01 2.58764E-37
9.91627E-01 2.22705E-37
9.92404E-01 1.91122E-37
9.93143E-01 1.63523E-37
9.93844E-01 1.39404E-37
9.94508E-01 1.18371E-37
9.95134E-01 1.00031E-37
9.95722E-01 8.40713E-38
9.96273E-01 7.02066E-38
9.96786E-01 5.81754E-38
9.97261E-01 4.77671E-38
9.97698E-01 3.87768E-38
9.98097E-01 3.10521E-38
9.98459E-01 2.44416E-38
9.98782E-01 1.88252E-38
9.99067E-01 1.40923E-38
9.99315E-01 1.01588E-38
9.99524E-01 6.94902E-39
9.99695E-01 4.40536E-39
9.99829E-01 2.47158E-39
9.99924E-01 1.11723E-39
9.99981E-01 3.14022E-40
1.00000E+00 4.70998E-41
