 #
 # Subroutine ELSEPA. Elastic scattering of electrons and positrons
 #                    by neutral atoms and positive ions
 #
 # Projectile: electron
 # Kinetic energy = 1.00000E+08 eV = 3.67493E+06 a.u.
 #
 # WARNING: High-energy factorization with free-atom DF screening.
 #          Absorption, polarization and exchange corrections are
 #          switched off.
 #          Phase shifts are calculated for the bare nucleus.
 #          Scattering amplitudes are not evaluated.
 #
 # Element: Ta,  Z =  73,  atomic weight = 1.80948E+02 g/mol
 #
 # Nuclear model: Fermi distribution
 #                Average radius = 6.05204E-13 cm
 #                Skin thickness = 5.46000E-14 cm
 #
 # Number of electrons = 73
 #
 # Total elastic cross section = 7.42690E-18 cm**2 = 2.65219E-01 a0**2
 # 1st transport cross section = 1.01237E-24 cm**2 = 3.61524E-08 a0**2
 # 2nd transport cross section = 3.01319E-24 cm**2 = 1.07603E-07 a0**2
 #
 #
 # Differential cross section:                       MU=(1-COS(THETA))/2
 #
 #  THETA        MU          DCS          DCS        Sherman      error
 #  (deg)                 (cm**2/sr)   (a0**2/sr)    function
 #----------------------------------------------------------------------
0.00000E+00 6.06369E-10
7.61557E-13 6.04624E-10
1.18994E-12 6.03648E-10
1.71346E-12 6.02460E-10
2.33225E-12 6.01060E-10
3.04617E-12 5.99453E-10
3.85530E-12 5.97640E-10
4.75964E-12 5.95624E-10
5.75917E-12 5.93410E-10
6.85391E-12 5.91001E-10
8.04379E-12 5.88402E-10
9.32893E-12 5.85615E-10
1.07092E-11 5.82648E-10
1.21847E-11 5.79503E-10
1.37554E-11 5.76187E-10
1.54213E-11 5.72705E-10
1.71823E-11 5.69062E-10
1.90386E-11 5.65265E-10
2.09900E-11 5.61318E-10
2.30367E-11 5.57225E-10
2.51785E-11 5.52975E-10
2.74156E-11 5.48605E-10
2.97478E-11 5.44124E-10
3.21752E-11 5.39538E-10
3.46979E-11 5.34854E-10
3.73157E-11 5.30027E-10
4.00286E-11 5.25094E-10
4.28368E-11 5.20084E-10
4.57402E-11 5.15005E-10
4.87388E-11 5.09863E-10
5.18325E-11 5.04645E-10
5.50215E-11 4.99309E-10
5.83057E-11 4.93931E-10
6.16850E-11 4.88517E-10
6.51595E-11 4.83075E-10
6.87293E-11 4.77610E-10
7.23943E-11 4.72049E-10
7.61544E-11 4.66456E-10
1.18991E-10 4.10333E-10
1.71347E-10 3.56259E-10
2.33223E-10 3.06959E-10
3.04617E-10 2.63771E-10
3.85531E-10 2.26857E-10
4.75965E-10 1.95755E-10
5.75917E-10 1.69726E-10
6.85389E-10 1.47968E-10
8.04380E-10 1.29716E-10
9.32891E-10 1.14348E-10
1.07092E-09 1.01327E-10
1.21847E-09 9.02165E-11
1.37554E-09 8.06701E-11
1.54213E-09 7.24087E-11
1.71823E-09 6.52049E-11
1.90386E-09 5.88986E-11
2.09900E-09 5.33499E-11
2.30367E-09 4.83754E-11
2.51785E-09 4.37035E-11
2.74156E-09 3.97179E-11
2.97478E-09 3.62975E-11
3.21752E-09 3.33452E-11
3.46978E-09 3.07832E-11
3.73156E-09 2.82285E-11
4.00286E-09 2.58784E-11
4.28368E-09 2.38250E-11
4.57402E-09 2.20227E-11
4.87388E-09 2.04341E-11
5.18326E-09 1.89753E-11
5.50215E-09 1.75292E-11
5.83057E-09 1.62468E-11
6.16850E-09 1.51055E-11
6.51596E-09 1.40864E-11
6.87293E-09 1.31733E-11
7.23942E-09 1.22730E-11
7.61544E-09 1.14437E-11
1.18991E-08 6.13967E-12
1.71347E-08 3.55693E-12
2.33223E-08 2.17360E-12
3.04617E-08 1.39153E-12
3.85531E-08 9.28207E-13
4.75965E-08 6.42558E-13
5.75917E-08 4.59935E-13
6.85389E-08 3.38269E-13
8.04380E-08 2.55088E-13
9.32891E-08 1.96433E-13
1.07092E-07 1.53863E-13
1.21847E-07 1.22254E-13
1.37554E-07 9.83710E-14
1.54213E-07 8.00567E-14
1.71823E-07 6.58092E-14
1.90386E-07 5.45859E-14
2.09900E-07 4.56438E-14
2.30367E-07 3.84439E-14
2.51785E-07 3.25908E-14
2.74156E-07 2.78509E-14
2.97478E-07 2.39047E-14
3.21752E-07 2.06552E-14
3.46978E-07 1.79256E-14
3.73156E-07 1.56390E-14
4.00286E-07 1.37028E-14
4.28368E-07 1.20580E-14
4.57402E-07 1.06536E-14
4.87388E-07 9.44586E-15
5.18325E-07 8.40698E-15
5.50215E-07 7.50455E-15
5.83057E-07 6.72282E-15
6.16850E-07 6.03760E-15
6.51596E-07 5.43966E-15
6.87293E-07 4.91242E-15
7.23942E-07 4.44863E-15
7.61543E-07 4.03777E-15
1.18991E-06 1.71346E-15
1.71347E-06 8.46574E-16
2.33223E-06 4.64882E-16
3.04617E-06 2.75885E-16
3.85531E-06 1.73820E-16
4.75964E-06 1.14851E-16
5.75916E-06 7.88890E-17
6.85388E-06 5.59629E-17
8.04378E-06 4.07930E-17
9.32888E-06 3.04340E-17
1.07092E-05 2.31655E-17
1.21846E-05 1.79440E-17
1.37553E-05 1.41148E-17
1.54212E-05 1.12552E-17
1.71822E-05 9.08468E-18
1.90385E-05 7.40923E-18
2.09899E-05 6.10980E-18
2.30365E-05 5.08237E-18
2.51783E-05 4.26101E-18
2.74153E-05 3.59818E-18
2.97475E-05 3.05891E-18
3.21749E-05 2.61697E-18
3.46974E-05 2.25225E-18
3.73152E-05 1.94919E-18
4.00281E-05 1.69564E-18
4.28362E-05 1.48210E-18
4.57395E-05 1.30114E-18
4.87380E-05 1.14691E-18
5.18317E-05 1.01479E-18
5.50205E-05 9.01115E-19
5.83045E-05 8.02900E-19
6.16838E-05 7.17717E-19
6.51582E-05 6.43561E-19
6.87277E-05 5.78764E-19
7.23925E-05 5.21939E-19
7.61524E-05 4.72181E-19
9.21439E-05 3.23163E-19
1.09658E-04 2.28578E-19
1.28695E-04 1.66238E-19
1.49255E-04 1.23782E-19
1.71338E-04 9.40729E-20
1.94942E-04 7.27741E-20
2.20070E-04 5.71843E-20
2.46720E-04 4.55607E-20
2.74892E-04 3.67506E-20
3.04586E-04 2.99748E-20
3.35803E-04 2.46941E-20
3.68542E-04 2.05293E-20
4.02802E-04 1.72087E-20
4.38585E-04 1.45348E-20
4.75889E-04 1.23621E-20
5.14715E-04 1.05817E-20
5.55063E-04 9.11159E-21
5.96931E-04 7.88894E-21
6.40321E-04 6.86533E-21
6.85233E-04 6.00305E-21
7.31665E-04 5.27248E-21
7.79618E-04 4.65015E-21
8.29092E-04 4.11735E-21
8.80086E-04 3.65901E-21
9.32601E-04 3.26297E-21
9.86636E-04 2.91931E-21
1.04219E-03 2.61992E-21
1.09927E-03 2.35811E-21
1.15786E-03 2.12834E-21
1.21797E-03 1.92602E-21
1.27961E-03 1.74728E-21
1.34276E-03 1.58890E-21
1.40743E-03 1.44815E-21
1.47362E-03 1.32271E-21
1.54133E-03 1.21064E-21
1.61056E-03 1.11024E-21
1.68131E-03 1.02008E-21
1.75357E-03 9.38936E-22
1.82735E-03 8.65739E-22
1.90265E-03 7.99571E-22
1.97947E-03 7.39635E-22
2.05780E-03 6.85238E-22
2.13765E-03 6.35773E-22
2.21902E-03 5.90713E-22
2.30190E-03 5.49594E-22
2.38630E-03 5.12007E-22
2.47222E-03 4.77595E-22
2.55965E-03 4.46041E-22
2.64859E-03 4.17049E-22
2.73905E-03 3.90383E-22
2.83103E-03 3.65822E-22
2.92452E-03 3.43169E-22
3.01952E-03 3.22249E-22
3.11604E-03 3.02904E-22
3.21407E-03 2.84993E-22
3.31362E-03 2.68390E-22
3.41468E-03 2.52982E-22
3.51725E-03 2.38666E-22
3.62133E-03 2.25351E-22
3.72692E-03 2.12953E-22
3.83403E-03 2.01398E-22
3.94265E-03 1.90617E-22
4.05278E-03 1.80548E-22
4.16442E-03 1.71137E-22
4.27757E-03 1.62330E-22
4.39223E-03 1.54084E-22
4.50840E-03 1.46354E-22
4.62608E-03 1.39102E-22
4.74527E-03 1.32294E-22
4.86597E-03 1.25897E-22
4.98817E-03 1.19882E-22
5.11188E-03 1.14221E-22
5.23711E-03 1.08889E-22
5.36383E-03 1.03864E-22
5.49207E-03 9.91250E-23
5.62181E-03 9.46523E-23
5.75306E-03 9.04280E-23
5.88581E-03 8.64358E-23
6.02007E-03 8.26606E-23
6.15583E-03 7.90882E-23
6.29310E-03 7.57058E-23
6.43187E-03 7.25012E-23
6.57214E-03 6.94634E-23
6.71392E-03 6.65819E-23
6.85720E-03 6.38473E-23
7.00198E-03 6.12506E-23
7.14827E-03 5.87835E-23
7.29605E-03 5.64383E-23
7.44534E-03 5.42079E-23
7.59612E-03 5.20856E-23
7.97965E-03 4.72126E-23
8.37255E-03 4.28905E-23
8.77480E-03 3.90462E-23
9.18641E-03 3.56176E-23
9.60736E-03 3.25519E-23
1.00376E-02 2.98039E-23
1.04773E-02 2.73351E-23
1.09262E-02 2.51120E-23
1.13844E-02 2.31060E-23
1.18520E-02 2.12921E-23
1.23288E-02 1.96487E-23
1.28150E-02 1.81570E-23
1.33104E-02 1.68006E-23
1.38150E-02 1.55651E-23
1.43290E-02 1.44378E-23
1.48521E-02 1.34077E-23
1.53845E-02 1.24648E-23
1.59262E-02 1.16006E-23
1.64770E-02 1.08074E-23
1.70371E-02 1.00783E-23
1.76063E-02 9.40723E-24
1.81848E-02 8.78887E-24
1.87724E-02 8.21834E-24
1.93692E-02 7.69134E-24
1.99751E-02 7.20397E-24
2.05901E-02 6.75277E-24
2.12143E-02 6.33461E-24
2.18476E-02 5.94667E-24
2.24900E-02 5.58641E-24
2.31415E-02 5.25153E-24
2.38021E-02 4.93996E-24
2.44717E-02 4.64981E-24
2.51504E-02 4.37938E-24
2.58382E-02 4.12712E-24
2.65349E-02 3.89160E-24
2.72407E-02 3.67155E-24
2.79555E-02 3.46579E-24
2.86793E-02 3.27326E-24
2.94120E-02 3.09296E-24
3.01537E-02 2.92401E-24
3.09043E-02 2.76558E-24
3.16639E-02 2.61692E-24
3.24324E-02 2.47734E-24
3.32098E-02 2.34621E-24
3.39961E-02 2.22293E-24
3.47912E-02 2.10697E-24
3.55952E-02 1.99783E-24
3.64081E-02 1.89505E-24
3.72297E-02 1.79822E-24
3.80602E-02 1.70694E-24
3.88995E-02 1.62084E-24
3.97476E-02 1.53960E-24
4.06044E-02 1.46290E-24
4.14700E-02 1.39045E-24
4.23443E-02 1.32199E-24
4.32273E-02 1.25727E-24
4.41190E-02 1.19606E-24
4.50194E-02 1.13815E-24
4.59284E-02 1.08333E-24
4.68461E-02 1.03142E-24
4.87074E-02 9.35637E-25
5.06030E-02 8.49558E-25
5.25328E-02 7.72090E-25
5.44967E-02 7.02277E-25
5.64946E-02 6.39284E-25
5.85262E-02 5.82376E-25
6.05914E-02 5.30906E-25
6.26901E-02 4.84305E-25
6.48222E-02 4.42069E-25
6.69873E-02 4.03752E-25
6.91854E-02 3.68959E-25
7.14163E-02 3.37337E-25
7.36799E-02 3.08574E-25
7.59760E-02 2.82391E-25
7.83043E-02 2.58538E-25
8.06647E-02 2.36794E-25
8.30571E-02 2.16959E-25
8.54812E-02 1.98854E-25
8.79369E-02 1.82317E-25
9.04240E-02 1.67206E-25
9.29422E-02 1.53389E-25
9.54915E-02 1.40750E-25
9.80716E-02 1.29183E-25
1.00682E-01 1.18592E-25
1.03323E-01 1.08891E-25
1.05995E-01 1.00001E-25
1.08696E-01 9.18531E-26
1.11427E-01 8.43815E-26
1.14188E-01 7.75283E-26
1.16978E-01 7.12405E-26
1.19797E-01 6.54700E-26
1.22645E-01 6.01728E-26
1.25522E-01 5.53092E-26
1.28428E-01 5.08426E-26
1.31361E-01 4.67400E-26
1.34323E-01 4.29710E-26
1.37313E-01 3.95081E-26
1.40330E-01 3.63259E-26
1.43375E-01 3.34014E-26
1.46447E-01 3.07133E-26
1.49545E-01 2.82425E-26
1.52671E-01 2.59712E-26
1.55823E-01 2.38832E-26
1.59001E-01 2.19636E-26
1.62205E-01 2.01988E-26
1.65435E-01 1.85762E-26
1.68690E-01 1.70845E-26
1.71970E-01 1.57130E-26
1.75276E-01 1.44522E-26
1.78606E-01 1.32930E-26
1.81961E-01 1.22275E-26
1.85340E-01 1.12479E-26
1.88743E-01 1.03476E-26
1.92169E-01 9.52001E-27
1.95619E-01 8.75944E-27
1.99092E-01 8.06050E-27
2.02589E-01 7.41823E-27
2.06107E-01 6.82810E-27
2.09649E-01 6.28593E-27
2.13212E-01 5.78787E-27
2.16797E-01 5.33037E-27
2.20404E-01 4.91018E-27
2.24032E-01 4.52429E-27
2.27680E-01 4.16994E-27
2.31350E-01 3.84458E-27
2.35040E-01 3.54587E-27
2.38751E-01 3.27166E-27
2.42481E-01 3.01995E-27
2.46231E-01 2.78891E-27
2.50000E-01 2.57686E-27
2.53788E-01 2.38226E-27
2.57595E-01 2.20367E-27
2.61421E-01 2.03979E-27
2.65264E-01 1.88939E-27
2.69126E-01 1.75138E-27
2.73005E-01 1.62472E-27
2.76901E-01 1.50848E-27
2.80814E-01 1.40179E-27
2.84744E-01 1.30386E-27
2.88691E-01 1.21395E-27
2.92653E-01 1.13139E-27
2.96632E-01 1.05556E-27
3.00625E-01 9.85903E-28
3.04634E-01 9.21887E-28
3.08658E-01 8.63037E-28
3.12697E-01 8.08913E-28
3.16749E-01 7.59113E-28
3.20816E-01 7.13266E-28
3.24896E-01 6.71035E-28
3.28990E-01 6.32107E-28
3.33097E-01 5.96200E-28
3.37216E-01 5.63052E-28
3.41348E-01 5.32424E-28
3.45492E-01 5.04098E-28
3.49647E-01 4.77875E-28
3.53814E-01 4.53572E-28
3.57992E-01 4.31022E-28
3.62181E-01 4.10073E-28
3.66381E-01 3.90585E-28
3.70590E-01 3.72433E-28
3.74810E-01 3.55499E-28
3.79039E-01 3.39678E-28
3.83277E-01 3.24876E-28
3.87524E-01 3.11002E-28
3.91780E-01 2.97980E-28
3.96044E-01 2.85735E-28
4.00316E-01 2.74202E-28
4.04596E-01 2.63321E-28
4.08882E-01 2.53038E-28
4.13176E-01 2.43304E-28
4.17476E-01 2.34074E-28
4.21783E-01 2.25307E-28
4.26095E-01 2.16967E-28
4.30413E-01 2.09020E-28
4.34737E-01 2.01437E-28
4.39065E-01 1.94190E-28
4.43398E-01 1.87254E-28
4.47736E-01 1.80608E-28
4.52077E-01 1.74231E-28
4.56422E-01 1.68106E-28
4.60770E-01 1.62214E-28
4.65122E-01 1.56543E-28
4.69476E-01 1.51078E-28
4.73832E-01 1.45807E-28
4.78190E-01 1.40720E-28
4.82550E-01 1.35806E-28
4.86912E-01 1.31056E-28
4.91274E-01 1.26463E-28
4.95637E-01 1.22019E-28
5.00000E-01 1.17717E-28
5.04363E-01 1.13551E-28
5.08726E-01 1.09516E-28
5.13088E-01 1.05606E-28
5.17450E-01 1.01817E-28
5.21810E-01 9.81445E-29
5.26168E-01 9.45848E-29
5.30524E-01 9.11342E-29
5.34878E-01 8.77891E-29
5.39230E-01 8.45466E-29
5.43578E-01 8.14035E-29
5.47923E-01 7.83573E-29
5.52264E-01 7.54052E-29
5.56602E-01 7.25448E-29
5.60935E-01 6.97737E-29
5.65263E-01 6.70896E-29
5.69587E-01 6.44905E-29
5.73905E-01 6.19743E-29
5.78217E-01 5.95389E-29
5.82524E-01 5.71823E-29
5.86824E-01 5.49028E-29
5.91118E-01 5.26983E-29
5.95404E-01 5.05673E-29
5.99684E-01 4.85077E-29
6.03956E-01 4.65181E-29
6.08220E-01 4.45965E-29
6.12476E-01 4.27414E-29
6.16723E-01 4.09510E-29
6.20961E-01 3.92238E-29
6.25190E-01 3.75581E-29
6.29410E-01 3.59523E-29
6.33619E-01 3.44049E-29
6.37819E-01 3.29143E-29
6.42008E-01 3.14789E-29
6.46186E-01 3.00973E-29
6.50353E-01 2.87679E-29
6.54508E-01 2.74892E-29
6.58652E-01 2.62599E-29
6.62784E-01 2.50784E-29
6.66903E-01 2.39433E-29
6.71010E-01 2.28533E-29
6.75104E-01 2.18069E-29
6.79184E-01 2.08028E-29
6.83251E-01 1.98396E-29
6.87303E-01 1.89161E-29
6.91342E-01 1.80309E-29
6.95366E-01 1.71828E-29
6.99375E-01 1.63705E-29
7.03368E-01 1.55928E-29
7.07347E-01 1.48486E-29
7.11309E-01 1.41366E-29
7.15256E-01 1.34557E-29
7.19186E-01 1.28047E-29
7.23099E-01 1.21827E-29
7.26995E-01 1.15885E-29
7.30874E-01 1.10211E-29
7.34736E-01 1.04795E-29
7.38579E-01 9.96269E-30
7.42405E-01 9.46969E-30
7.46212E-01 8.99958E-30
7.50000E-01 8.55146E-30
7.53769E-01 8.12445E-30
7.57519E-01 7.71768E-30
7.61249E-01 7.33032E-30
7.64960E-01 6.96158E-30
7.68650E-01 6.61066E-30
7.72320E-01 6.27681E-30
7.75968E-01 5.95931E-30
7.79596E-01 5.65744E-30
7.83203E-01 5.37052E-30
7.86788E-01 5.09789E-30
7.90351E-01 4.83891E-30
7.93893E-01 4.59297E-30
7.97411E-01 4.35947E-30
8.00908E-01 4.13785E-30
8.04381E-01 3.92754E-30
8.07831E-01 3.72804E-30
8.11257E-01 3.53881E-30
8.14660E-01 3.35938E-30
8.18039E-01 3.18927E-30
8.21394E-01 3.02803E-30
8.24724E-01 2.87523E-30
8.28030E-01 2.73045E-30
8.31310E-01 2.59329E-30
8.34565E-01 2.46338E-30
8.37795E-01 2.34034E-30
8.40999E-01 2.22382E-30
8.44177E-01 2.11349E-30
8.47329E-01 2.00904E-30
8.50455E-01 1.91015E-30
8.53553E-01 1.81652E-30
8.56625E-01 1.72790E-30
8.59670E-01 1.64399E-30
8.62687E-01 1.56456E-30
8.65677E-01 1.48936E-30
8.68639E-01 1.41816E-30
8.71572E-01 1.35075E-30
8.74478E-01 1.28690E-30
8.77355E-01 1.22643E-30
8.80203E-01 1.16915E-30
8.83022E-01 1.11487E-30
8.85812E-01 1.06343E-30
8.88573E-01 1.01466E-30
8.91304E-01 9.68421E-31
8.94005E-01 9.24558E-31
8.96677E-01 8.82935E-31
8.99318E-01 8.43424E-31
9.01928E-01 8.05901E-31
9.04508E-01 7.70250E-31
9.07058E-01 7.36362E-31
9.09576E-01 7.04133E-31
9.12063E-01 6.73465E-31
9.14519E-01 6.44267E-31
9.16943E-01 6.16451E-31
9.19335E-01 5.89936E-31
9.21696E-01 5.64644E-31
9.24024E-01 5.40504E-31
9.26320E-01 5.17447E-31
9.28584E-01 4.95410E-31
9.30815E-01 4.74333E-31
9.33013E-01 4.54159E-31
9.35178E-01 4.34836E-31
9.37310E-01 4.16314E-31
9.39409E-01 3.98549E-31
9.41474E-01 3.81496E-31
9.43505E-01 3.65115E-31
9.45503E-01 3.49369E-31
9.47467E-01 3.34223E-31
9.49397E-01 3.19645E-31
9.51293E-01 3.05605E-31
9.53154E-01 2.92074E-31
9.54981E-01 2.79026E-31
9.56773E-01 2.66437E-31
9.58530E-01 2.54285E-31
9.60252E-01 2.42550E-31
9.61940E-01 2.31211E-31
9.63592E-01 2.20253E-31
9.65209E-01 2.09658E-31
9.66790E-01 1.99412E-31
9.68336E-01 1.89501E-31
9.69846E-01 1.79913E-31
9.71321E-01 1.70636E-31
9.72759E-01 1.61660E-31
9.74162E-01 1.52976E-31
9.75528E-01 1.44575E-31
9.76858E-01 1.36449E-31
9.78152E-01 1.28591E-31
9.79410E-01 1.20995E-31
9.80631E-01 1.13656E-31
9.81815E-01 1.06568E-31
9.82963E-01 9.97264E-32
9.84074E-01 9.31276E-32
9.85148E-01 8.67681E-32
9.86185E-01 8.06446E-32
9.87185E-01 7.47545E-32
9.88148E-01 6.90954E-32
9.89074E-01 6.36653E-32
9.89962E-01 5.84623E-32
9.90814E-01 5.34851E-32
9.91627E-01 4.87324E-32
9.92404E-01 4.42031E-32
9.93143E-01 3.98964E-32
9.93844E-01 3.58117E-32
9.94508E-01 3.19483E-32
9.95134E-01 2.83060E-32
9.95722E-01 2.48844E-32
9.96273E-01 2.16832E-32
9.96786E-01 1.87025E-32
9.97261E-01 1.59422E-32
9.97698E-01 1.34021E-32
9.98097E-01 1.10825E-32
9.98459E-01 8.98336E-33
9.98782E-01 7.10475E-33
9.99067E-01 5.44681E-33
9.99315E-01 4.00965E-33
9.99524E-01 2.79337E-33
9.99695E-01 1.79808E-33
9.99829E-01 1.02386E-33
9.99924E-01 4.70795E-34
9.99981E-01 1.38931E-34
1.00000E+00 2.83042E-35
