 #
 # Subroutine ELSEPA. Elastic scattering of electrons and positrons
 #                    by neutral atoms and positive ions
 #
 # Projectile: electron
 # Kinetic energy = 9.00000E+06 eV = 3.30744E+05 a.u.
 #
 # WARNING: High-energy factorization with free-atom DF screening.
 #          Absorption, polarization and exchange corrections are
 #          switched off.
 #          Phase shifts are calculated for the bare nucleus.
 #          Scattering amplitudes are not evaluated.
 #
 # Element: Ta,  Z =  73,  atomic weight = 1.80948E+02 g/mol
 #
 # Nuclear model: Fermi distribution
 #                Average radius = 6.05204E-13 cm
 #                Skin thickness = 5.46000E-14 cm
 #
 # Number of electrons = 73
 #
 # Total elastic cross section = 7.45274E-18 cm**2 = 2.66142E-01 a0**2
 # 1st transport cross section = 1.04493E-22 cm**2 = 3.73153E-06 a0**2
 # 2nd transport cross section = 2.87540E-22 cm**2 = 1.02682E-05 a0**2
 #
 #
 # Differential cross section:                       MU=(1-COS(THETA))/2
 #
 #  THETA        MU          DCS          DCS        Sherman      error
 #  (deg)                 (cm**2/sr)   (a0**2/sr)    function
 #----------------------------------------------------------------------
0.00000E+00 5.42953E-12
7.61557E-13 5.42939E-12
1.18994E-12 5.42931E-12
1.71346E-12 5.42921E-12
2.33225E-12 5.42910E-12
3.04617E-12 5.42897E-12
3.85530E-12 5.42882E-12
4.75964E-12 5.42865E-12
5.75917E-12 5.42847E-12
6.85391E-12 5.42827E-12
8.04379E-12 5.42805E-12
9.32893E-12 5.42781E-12
1.07092E-11 5.42756E-12
1.21847E-11 5.42729E-12
1.37554E-11 5.42700E-12
1.54213E-11 5.42670E-12
1.71823E-11 5.42638E-12
1.90386E-11 5.42604E-12
2.09900E-11 5.42568E-12
2.30367E-11 5.42530E-12
2.51785E-11 5.42491E-12
2.74156E-11 5.42450E-12
2.97478E-11 5.42408E-12
3.21752E-11 5.42363E-12
3.46979E-11 5.42317E-12
3.73157E-11 5.42269E-12
4.00286E-11 5.42220E-12
4.28368E-11 5.42168E-12
4.57402E-11 5.42115E-12
4.87388E-11 5.42061E-12
5.18325E-11 5.42004E-12
5.50215E-11 5.41946E-12
5.83057E-11 5.41886E-12
6.16850E-11 5.41824E-12
6.51595E-11 5.41761E-12
6.87293E-11 5.41696E-12
7.23943E-11 5.41629E-12
7.61544E-11 5.41560E-12
1.18991E-10 5.40781E-12
1.71347E-10 5.39830E-12
2.33223E-10 5.38711E-12
3.04617E-10 5.37424E-12
3.85531E-10 5.35972E-12
4.75965E-10 5.34357E-12
5.75917E-10 5.32581E-12
6.85389E-10 5.30648E-12
8.04380E-10 5.28560E-12
9.32891E-10 5.26321E-12
1.07092E-09 5.23933E-12
1.21847E-09 5.21400E-12
1.37554E-09 5.18727E-12
1.54213E-09 5.15917E-12
1.71823E-09 5.12975E-12
1.90386E-09 5.09903E-12
2.09900E-09 5.06707E-12
2.30367E-09 5.03392E-12
2.51785E-09 4.99961E-12
2.74156E-09 4.96400E-12
2.97478E-09 4.92739E-12
3.21752E-09 4.88985E-12
3.46978E-09 4.85146E-12
3.73156E-09 4.81225E-12
4.00286E-09 4.77222E-12
4.28368E-09 4.73092E-12
4.57402E-09 4.68897E-12
4.87388E-09 4.64643E-12
5.18326E-09 4.60335E-12
5.50215E-09 4.55978E-12
5.83057E-09 4.51551E-12
6.16850E-09 4.47035E-12
6.51596E-09 4.42486E-12
6.87293E-09 4.37908E-12
7.23942E-09 4.33306E-12
7.61544E-09 4.28686E-12
1.18991E-08 3.81237E-12
1.71347E-08 3.34607E-12
2.33223E-08 2.91300E-12
3.04617E-08 2.52572E-12
3.85531E-08 2.18868E-12
4.75965E-08 1.90052E-12
5.75917E-08 1.65641E-12
6.85389E-08 1.45001E-12
8.04380E-08 1.27573E-12
9.32891E-08 1.12819E-12
1.07092E-07 1.00263E-12
1.21847E-07 8.94930E-13
1.37554E-07 8.02207E-13
1.54213E-07 7.21878E-13
1.71823E-07 6.51763E-13
1.90386E-07 5.90192E-13
2.09900E-07 5.35954E-13
2.30367E-07 4.87953E-13
2.51785E-07 4.45190E-13
2.74156E-07 4.04234E-13
2.97478E-07 3.68608E-13
3.21752E-07 3.37839E-13
3.46978E-07 3.11126E-13
3.73156E-07 2.87819E-13
4.00286E-07 2.66936E-13
4.28368E-07 2.45245E-13
4.57402E-07 2.26207E-13
4.87388E-07 2.09427E-13
5.18325E-07 1.94578E-13
5.50215E-07 1.81389E-13
5.83057E-07 1.69021E-13
6.16850E-07 1.56848E-13
6.51596E-07 1.45981E-13
6.87293E-07 1.36249E-13
7.23942E-07 1.27506E-13
7.61543E-07 1.19629E-13
1.18991E-06 6.46619E-14
1.71347E-06 3.78501E-14
2.33223E-06 2.34233E-14
3.04617E-06 1.51107E-14
3.85531E-06 1.01247E-14
4.75964E-06 7.02726E-15
5.75916E-06 5.03401E-15
6.85388E-06 3.70678E-15
8.04378E-06 2.79473E-15
9.32888E-06 2.15291E-15
1.07092E-05 1.68838E-15
1.21846E-05 1.34329E-15
1.37553E-05 1.08230E-15
1.54212E-05 8.81882E-16
1.71822E-05 7.25851E-16
1.90385E-05 6.02519E-16
2.09899E-05 5.04837E-16
2.30365E-05 4.26014E-16
2.51783E-05 3.61782E-16
2.74153E-05 3.08852E-16
2.97475E-05 2.65509E-16
3.21749E-05 2.29424E-16
3.46974E-05 1.99264E-16
3.73152E-05 1.73997E-16
4.00281E-05 1.52521E-16
4.28362E-05 1.34374E-16
4.57395E-05 1.18748E-16
4.87380E-05 1.05384E-16
5.18317E-05 9.38164E-17
5.50205E-05 8.37940E-17
5.83045E-05 7.50845E-17
6.16838E-05 6.74617E-17
6.51582E-05 6.08093E-17
6.87277E-05 5.49337E-17
7.23925E-05 4.97706E-17
7.61524E-05 4.51915E-17
9.21439E-05 3.14083E-17
1.09658E-04 2.25023E-17
1.28695E-04 1.65472E-17
1.49255E-04 1.24403E-17
1.71338E-04 9.53380E-18
1.94942E-04 7.42844E-18
2.20070E-04 5.87382E-18
2.46720E-04 4.70555E-18
2.74892E-04 3.81365E-18
3.04586E-04 3.12327E-18
3.35803E-04 2.58226E-18
3.68542E-04 2.15348E-18
4.02802E-04 1.81006E-18
4.38585E-04 1.53246E-18
4.75889E-04 1.30612E-18
5.14715E-04 1.12010E-18
5.55063E-04 9.66059E-19
5.96931E-04 8.37645E-19
6.40321E-04 7.29909E-19
6.85233E-04 6.38976E-19
7.31665E-04 5.61797E-19
7.79618E-04 4.95951E-19
8.29092E-04 4.39499E-19
8.80086E-04 3.90873E-19
9.32601E-04 3.48807E-19
9.86636E-04 3.12268E-19
1.04219E-03 2.80404E-19
1.09927E-03 2.52515E-19
1.15786E-03 2.28020E-19
1.21797E-03 2.06434E-19
1.27961E-03 1.87352E-19
1.34276E-03 1.70432E-19
1.40743E-03 1.55387E-19
1.47362E-03 1.41973E-19
1.54133E-03 1.29981E-19
1.61056E-03 1.19233E-19
1.68131E-03 1.09579E-19
1.75357E-03 1.00886E-19
1.82735E-03 9.30423E-20
1.90265E-03 8.59494E-20
1.97947E-03 7.95228E-20
2.05780E-03 7.36886E-20
2.13765E-03 6.83821E-20
2.21902E-03 6.35472E-20
2.30190E-03 5.91342E-20
2.38630E-03 5.50997E-20
2.47222E-03 5.14052E-20
2.55965E-03 4.80167E-20
2.64859E-03 4.49046E-20
2.73905E-03 4.20418E-20
2.83103E-03 3.94050E-20
2.92452E-03 3.69730E-20
3.01952E-03 3.47266E-20
3.11604E-03 3.26494E-20
3.21407E-03 3.07263E-20
3.31362E-03 2.89434E-20
3.41468E-03 2.72889E-20
3.51725E-03 2.57518E-20
3.62133E-03 2.43220E-20
3.72692E-03 2.29908E-20
3.83403E-03 2.17502E-20
3.94265E-03 2.05927E-20
4.05278E-03 1.95116E-20
4.16442E-03 1.85012E-20
4.27757E-03 1.75559E-20
4.39223E-03 1.66706E-20
4.50840E-03 1.58409E-20
4.62608E-03 1.50626E-20
4.74527E-03 1.43319E-20
4.86597E-03 1.36453E-20
4.98817E-03 1.29998E-20
5.11188E-03 1.23923E-20
5.23711E-03 1.18202E-20
5.36383E-03 1.12810E-20
5.49207E-03 1.07725E-20
5.62181E-03 1.02926E-20
5.75306E-03 9.83945E-21
5.88581E-03 9.41118E-21
6.02007E-03 9.00617E-21
6.15583E-03 8.62295E-21
6.29310E-03 8.26012E-21
6.43187E-03 7.91636E-21
6.57214E-03 7.59049E-21
6.71392E-03 7.28141E-21
6.85720E-03 6.98808E-21
7.00198E-03 6.70953E-21
7.14827E-03 6.44489E-21
7.29605E-03 6.19333E-21
7.44534E-03 5.95405E-21
7.59612E-03 5.72636E-21
7.97965E-03 5.20354E-21
8.37255E-03 4.73975E-21
8.77480E-03 4.32711E-21
9.18641E-03 3.95899E-21
9.60736E-03 3.62971E-21
1.00376E-02 3.33442E-21
1.04773E-02 3.06898E-21
1.09262E-02 2.82982E-21
1.13844E-02 2.61386E-21
1.18520E-02 2.41842E-21
1.23288E-02 2.24121E-21
1.28150E-02 2.08020E-21
1.33104E-02 1.93364E-21
1.38150E-02 1.79998E-21
1.43290E-02 1.67788E-21
1.48521E-02 1.56615E-21
1.53845E-02 1.46374E-21
1.59262E-02 1.36973E-21
1.64770E-02 1.28329E-21
1.70371E-02 1.20370E-21
1.76063E-02 1.13032E-21
1.81848E-02 1.06256E-21
1.87724E-02 9.99912E-22
1.93692E-02 9.41915E-22
1.99751E-02 8.88156E-22
2.05901E-02 8.38266E-22
2.12143E-02 7.91912E-22
2.18476E-02 7.48794E-22
2.24900E-02 7.08642E-22
2.31415E-02 6.71212E-22
2.38021E-02 6.36282E-22
2.44717E-02 6.03653E-22
2.51504E-02 5.73143E-22
2.58382E-02 5.44587E-22
2.65349E-02 5.17834E-22
2.72407E-02 4.92749E-22
2.79555E-02 4.69206E-22
2.86793E-02 4.47091E-22
2.94120E-02 4.26301E-22
3.01537E-02 4.06740E-22
3.09043E-02 3.88320E-22
3.16639E-02 3.70962E-22
3.24324E-02 3.54592E-22
3.32098E-02 3.39141E-22
3.39961E-02 3.24549E-22
3.47912E-02 3.10757E-22
3.55952E-02 2.97713E-22
3.64081E-02 2.85368E-22
3.72297E-02 2.73676E-22
3.80602E-02 2.62595E-22
3.88995E-02 2.52088E-22
3.97476E-02 2.42118E-22
4.06044E-02 2.32653E-22
4.14700E-02 2.23660E-22
4.23443E-02 2.15113E-22
4.32273E-02 2.06983E-22
4.41190E-02 1.99247E-22
4.50194E-02 1.91882E-22
4.59284E-02 1.84865E-22
4.68461E-02 1.78177E-22
4.87074E-02 1.65714E-22
5.06030E-02 1.54359E-22
5.25328E-02 1.43992E-22
5.44967E-02 1.34511E-22
5.64946E-02 1.25824E-22
5.85262E-02 1.17852E-22
6.05914E-02 1.10523E-22
6.26901E-02 1.03775E-22
6.48222E-02 9.75531E-23
6.69873E-02 9.18068E-23
6.91854E-02 8.64925E-23
7.14163E-02 8.15711E-23
7.36799E-02 7.70073E-23
7.59760E-02 7.27698E-23
7.83043E-02 6.88303E-23
8.06647E-02 6.51634E-23
8.30571E-02 6.17462E-23
8.54812E-02 5.85583E-23
8.79369E-02 5.55808E-23
9.04240E-02 5.27969E-23
9.29422E-02 5.01913E-23
9.54915E-02 4.77502E-23
9.80716E-02 4.54609E-23
1.00682E-01 4.33120E-23
1.03323E-01 4.12929E-23
1.05995E-01 3.93943E-23
1.08696E-01 3.76071E-23
1.11427E-01 3.59235E-23
1.14188E-01 3.43364E-23
1.16978E-01 3.28387E-23
1.19797E-01 3.14244E-23
1.22645E-01 3.00880E-23
1.25522E-01 2.88240E-23
1.28428E-01 2.76278E-23
1.31361E-01 2.64948E-23
1.34323E-01 2.54211E-23
1.37313E-01 2.44028E-23
1.40330E-01 2.34364E-23
1.43375E-01 2.25187E-23
1.46447E-01 2.16468E-23
1.49545E-01 2.08177E-23
1.52671E-01 2.00289E-23
1.55823E-01 1.92781E-23
1.59001E-01 1.85630E-23
1.62205E-01 1.78815E-23
1.65435E-01 1.72318E-23
1.68690E-01 1.66118E-23
1.71970E-01 1.60201E-23
1.75276E-01 1.54551E-23
1.78606E-01 1.49152E-23
1.81961E-01 1.43991E-23
1.85340E-01 1.39055E-23
1.88743E-01 1.34332E-23
1.92169E-01 1.29811E-23
1.95619E-01 1.25481E-23
1.99092E-01 1.21332E-23
2.02589E-01 1.17356E-23
2.06107E-01 1.13543E-23
2.09649E-01 1.09885E-23
2.13212E-01 1.06374E-23
2.16797E-01 1.03004E-23
2.20404E-01 9.97666E-24
2.24032E-01 9.66562E-24
2.27680E-01 9.36665E-24
2.31350E-01 9.07918E-24
2.35040E-01 8.80266E-24
2.38751E-01 8.53660E-24
2.42481E-01 8.28049E-24
2.46231E-01 8.03390E-24
2.50000E-01 7.79638E-24
2.53788E-01 7.56753E-24
2.57595E-01 7.34697E-24
2.61421E-01 7.13431E-24
2.65264E-01 6.92923E-24
2.69126E-01 6.73137E-24
2.73005E-01 6.54046E-24
2.76901E-01 6.35617E-24
2.80814E-01 6.17824E-24
2.84744E-01 6.00638E-24
2.88691E-01 5.84034E-24
2.92653E-01 5.67982E-24
2.96632E-01 5.52467E-24
3.00625E-01 5.37465E-24
3.04634E-01 5.22956E-24
3.08658E-01 5.08921E-24
3.12697E-01 4.95340E-24
3.16749E-01 4.82196E-24
3.20816E-01 4.69471E-24
3.24896E-01 4.57149E-24
3.28990E-01 4.45215E-24
3.33097E-01 4.33653E-24
3.37216E-01 4.22450E-24
3.41348E-01 4.11592E-24
3.45492E-01 4.01066E-24
3.49647E-01 3.90859E-24
3.53814E-01 3.80961E-24
3.57992E-01 3.71359E-24
3.62181E-01 3.62043E-24
3.66381E-01 3.53002E-24
3.70590E-01 3.44226E-24
3.74810E-01 3.35707E-24
3.79039E-01 3.27435E-24
3.83277E-01 3.19401E-24
3.87524E-01 3.11597E-24
3.91780E-01 3.04015E-24
3.96044E-01 2.96647E-24
4.00316E-01 2.89487E-24
4.04596E-01 2.82526E-24
4.08882E-01 2.75758E-24
4.13176E-01 2.69177E-24
4.17476E-01 2.62777E-24
4.21783E-01 2.56551E-24
4.26095E-01 2.50494E-24
4.30413E-01 2.44600E-24
4.34737E-01 2.38864E-24
4.39065E-01 2.33281E-24
4.43398E-01 2.27846E-24
4.47736E-01 2.22553E-24
4.52077E-01 2.17400E-24
4.56422E-01 2.12381E-24
4.60770E-01 2.07491E-24
4.65122E-01 2.02728E-24
4.69476E-01 1.98087E-24
4.73832E-01 1.93564E-24
4.78190E-01 1.89156E-24
4.82550E-01 1.84859E-24
4.86912E-01 1.80670E-24
4.91274E-01 1.76585E-24
4.95637E-01 1.72602E-24
5.00000E-01 1.68718E-24
5.04363E-01 1.64929E-24
5.08726E-01 1.61233E-24
5.13088E-01 1.57627E-24
5.17450E-01 1.54108E-24
5.21810E-01 1.50674E-24
5.26168E-01 1.47322E-24
5.30524E-01 1.44051E-24
5.34878E-01 1.40857E-24
5.39230E-01 1.37740E-24
5.43578E-01 1.34695E-24
5.47923E-01 1.31722E-24
5.52264E-01 1.28818E-24
5.56602E-01 1.25982E-24
5.60935E-01 1.23212E-24
5.65263E-01 1.20505E-24
5.69587E-01 1.17861E-24
5.73905E-01 1.15277E-24
5.78217E-01 1.12752E-24
5.82524E-01 1.10284E-24
5.86824E-01 1.07871E-24
5.91118E-01 1.05513E-24
5.95404E-01 1.03208E-24
5.99684E-01 1.00954E-24
6.03956E-01 9.87503E-25
6.08220E-01 9.65953E-25
6.12476E-01 9.44878E-25
6.16723E-01 9.24265E-25
6.20961E-01 9.04103E-25
6.25190E-01 8.84381E-25
6.29410E-01 8.65087E-25
6.33619E-01 8.46210E-25
6.37819E-01 8.27741E-25
6.42008E-01 8.09668E-25
6.46186E-01 7.91982E-25
6.50353E-01 7.74673E-25
6.54508E-01 7.57733E-25
6.58652E-01 7.41152E-25
6.62784E-01 7.24921E-25
6.66903E-01 7.09031E-25
6.71010E-01 6.93476E-25
6.75104E-01 6.78245E-25
6.79184E-01 6.63333E-25
6.83251E-01 6.48731E-25
6.87303E-01 6.34431E-25
6.91342E-01 6.20428E-25
6.95366E-01 6.06713E-25
6.99375E-01 5.93280E-25
7.03368E-01 5.80123E-25
7.07347E-01 5.67234E-25
7.11309E-01 5.54609E-25
7.15256E-01 5.42241E-25
7.19186E-01 5.30124E-25
7.23099E-01 5.18252E-25
7.26995E-01 5.06620E-25
7.30874E-01 4.95222E-25
7.34736E-01 4.84054E-25
7.38579E-01 4.73109E-25
7.42405E-01 4.62384E-25
7.46212E-01 4.51873E-25
7.50000E-01 4.41572E-25
7.53769E-01 4.31476E-25
7.57519E-01 4.21581E-25
7.61249E-01 4.11882E-25
7.64960E-01 4.02375E-25
7.68650E-01 3.93056E-25
7.72320E-01 3.83921E-25
7.75968E-01 3.74966E-25
7.79596E-01 3.66187E-25
7.83203E-01 3.57581E-25
7.86788E-01 3.49144E-25
7.90351E-01 3.40873E-25
7.93893E-01 3.32763E-25
7.97411E-01 3.24813E-25
8.00908E-01 3.17018E-25
8.04381E-01 3.09375E-25
8.07831E-01 3.01882E-25
8.11257E-01 2.94535E-25
8.14660E-01 2.87331E-25
8.18039E-01 2.80268E-25
8.21394E-01 2.73343E-25
8.24724E-01 2.66553E-25
8.28030E-01 2.59895E-25
8.31310E-01 2.53367E-25
8.34565E-01 2.46967E-25
8.37795E-01 2.40691E-25
8.40999E-01 2.34538E-25
8.44177E-01 2.28506E-25
8.47329E-01 2.22591E-25
8.50455E-01 2.16792E-25
8.53553E-01 2.11106E-25
8.56625E-01 2.05532E-25
8.59670E-01 2.00068E-25
8.62687E-01 1.94711E-25
8.65677E-01 1.89460E-25
8.68639E-01 1.84312E-25
8.71572E-01 1.79266E-25
8.74478E-01 1.74319E-25
8.77355E-01 1.69472E-25
8.80203E-01 1.64720E-25
8.83022E-01 1.60063E-25
8.85812E-01 1.55500E-25
8.88573E-01 1.51028E-25
8.91304E-01 1.46646E-25
8.94005E-01 1.42353E-25
8.96677E-01 1.38146E-25
8.99318E-01 1.34025E-25
9.01928E-01 1.29989E-25
9.04508E-01 1.26035E-25
9.07058E-01 1.22163E-25
9.09576E-01 1.18370E-25
9.12063E-01 1.14657E-25
9.14519E-01 1.11021E-25
9.16943E-01 1.07462E-25
9.19335E-01 1.03978E-25
9.21696E-01 1.00568E-25
9.24024E-01 9.72309E-26
9.26320E-01 9.39659E-26
9.28584E-01 9.07716E-26
9.30815E-01 8.76471E-26
9.33013E-01 8.45914E-26
9.35178E-01 8.16035E-26
9.37310E-01 7.86824E-26
9.39409E-01 7.58272E-26
9.41474E-01 7.30369E-26
9.43505E-01 7.03108E-26
9.45503E-01 6.76479E-26
9.47467E-01 6.50473E-26
9.49397E-01 6.25084E-26
9.51293E-01 6.00302E-26
9.53154E-01 5.76120E-26
9.54981E-01 5.52530E-26
9.56773E-01 5.29525E-26
9.58530E-01 5.07099E-26
9.60252E-01 4.85243E-26
9.61940E-01 4.63951E-26
9.63592E-01 4.43218E-26
9.65209E-01 4.23035E-26
9.66790E-01 4.03398E-26
9.68336E-01 3.84300E-26
9.69846E-01 3.65736E-26
9.71321E-01 3.47699E-26
9.72759E-01 3.30185E-26
9.74162E-01 3.13188E-26
9.75528E-01 2.96702E-26
9.76858E-01 2.80724E-26
9.78152E-01 2.65247E-26
9.79410E-01 2.50269E-26
9.80631E-01 2.35783E-26
9.81815E-01 2.21786E-26
9.82963E-01 2.08274E-26
9.84074E-01 1.95243E-26
9.85148E-01 1.82688E-26
9.86185E-01 1.70606E-26
9.87185E-01 1.58994E-26
9.88148E-01 1.47847E-26
9.89074E-01 1.37164E-26
9.89962E-01 1.26940E-26
9.90814E-01 1.17173E-26
9.91627E-01 1.07859E-26
9.92404E-01 9.89970E-27
9.93143E-01 9.05831E-27
9.93844E-01 8.26153E-27
9.94508E-01 7.50911E-27
9.95134E-01 6.80085E-27
9.95722E-01 6.13654E-27
9.96273E-01 5.51598E-27
9.96786E-01 4.93899E-27
9.97261E-01 4.40541E-27
9.97698E-01 3.91508E-27
9.98097E-01 3.46786E-27
9.98459E-01 3.06362E-27
9.98782E-01 2.70224E-27
9.99067E-01 2.38362E-27
9.99315E-01 2.10768E-27
9.99524E-01 1.87432E-27
9.99695E-01 1.68348E-27
9.99829E-01 1.53510E-27
9.99924E-01 1.42915E-27
9.99981E-01 1.36559E-27
1.00000E+00 1.34441E-27
