 #  Total cross section table (last run of 'elscata').
 #
 #  Z =  73,   projectile: electron
 #
 #   Energy         ECS         TCS1         TCS2         ABSCS      error
 #    (eV)        (cm**2)      (cm**2)      (cm**2)      (cm**2)
 #--------------------------------------------------------------------------
   1.00000E+02  1.16035E-15  8.22913E-17  1.61408E-16  9.12610E-16  4.5E-05
   1.25000E+02  1.03318E-15  6.60623E-17  1.25189E-16  7.82940E-16  3.0E-05
   1.50000E+02  9.28211E-16  6.05539E-17  1.08640E-16  6.87909E-16  7.0E-06
   1.75000E+02  8.41931E-16  6.01432E-17  1.02735E-16  6.15028E-16  6.8E-07
   2.00000E+02  7.70715E-16  6.20007E-17  1.01955E-16  5.57164E-16  3.9E-06
   2.50000E+02  6.62427E-16  6.73684E-17  1.04573E-16  4.70711E-16  8.2E-07
   3.00000E+02  5.85729E-16  7.18972E-17  1.05667E-16  4.08787E-16  1.4E-06
   3.50000E+02  5.29536E-16  7.46868E-17  1.03570E-16  3.61989E-16  7.9E-07
   4.00000E+02  4.86959E-16  7.58932E-17  9.90902E-17  3.25230E-16  4.6E-06
   4.50000E+02  4.53672E-16  7.58839E-17  9.33206E-17  2.95512E-16  1.0E-06
   5.00000E+02  4.26879E-16  7.50030E-17  8.70912E-17  2.70950E-16  8.0E-07
   6.00000E+02  3.86038E-16  7.16617E-17  7.51405E-17  2.32645E-16  4.3E-07
   7.00000E+02  3.55785E-16  6.73018E-17  6.51077E-17  2.04106E-16  1.2E-06
   8.00000E+02  3.31887E-16  6.26980E-17  5.71594E-17  1.81987E-16  1.1E-06
   9.00000E+02  3.11739E-16  5.82441E-17  5.09769E-17  1.64323E-16  4.6E-07
   1.00000E+03  2.94109E-16  5.40888E-17  4.61744E-17  1.49880E-16  1.5E-06
   1.25000E+03  2.60449E-16  4.52085E-17  3.80469E-17  1.23133E-16  2.6E-06
   1.50000E+03  2.35984E-16  3.82810E-17  3.29931E-17  1.04706E-16  6.8E-04
   1.75000E+03  2.17101E-16  3.28546E-17  2.94434E-17  9.12235E-17  1.0E-03
   2.00000E+03  2.01952E-16  2.85426E-17  2.67130E-17  8.09223E-17  9.4E-04
   2.50000E+03  1.78956E-16  2.22370E-17  2.26165E-17  6.61755E-17  1.3E-03
   3.00000E+03  1.62270E-16  1.80142E-17  1.96748E-17  5.59889E-17  1.4E-03
   3.50000E+03  1.49412E-16  1.49986E-17  1.73911E-17  4.85370E-17  1.5E-03
   4.00000E+03  1.39082E-16  1.27459E-17  1.55427E-17  4.28534E-17  8.4E-04
   4.50000E+03  1.30529E-16  1.10069E-17  1.40096E-17  3.83770E-17  1.3E-03
   5.00000E+03  1.23286E-16  9.62974E-18  1.27167E-17  3.47606E-17  1.3E-03
   6.00000E+03  1.11591E-16  7.60125E-18  1.06603E-17  2.92762E-17  3.1E-03
   7.00000E+03  1.02468E-16  6.19292E-18  9.10499E-18  2.53137E-17  4.8E-03
   8.00000E+03  9.50939E-17  5.16770E-18  7.89377E-18  2.23167E-17  5.4E-03
   9.00000E+03  8.89742E-17  4.39518E-18  6.92999E-18  1.99687E-17  5.7E-03
   1.00000E+04  8.37919E-17  3.79703E-18  6.14916E-18  1.80780E-17  5.5E-03
   1.25000E+04  7.30912E-17  2.77326E-18  4.73093E-18  1.46471E-17  2.2E-07
   1.50000E+04  6.57754E-17  2.13640E-18  3.78664E-18  1.23399E-17  3.4E-07
   1.75000E+04  6.00839E-17  1.70880E-18  3.12003E-18  1.06819E-17  4.0E-07
   2.00000E+04  5.54998E-17  1.40559E-18  2.62858E-18  9.43291E-18  1.0E-07
   2.50000E+04  4.85144E-17  1.01053E-18  1.96039E-18  7.67617E-18  1.0E-07
   3.00000E+04  4.33956E-17  7.69420E-19  1.53389E-18  6.49959E-18  1.0E-07
   3.50000E+04  3.94550E-17  6.10001E-19  1.24228E-18  5.65616E-18  3.4E-07
   4.00000E+04  3.63131E-17  4.98339E-19  1.03258E-18  5.02152E-18  8.8E-07
   4.50000E+04  3.37413E-17  4.16636E-19  8.75847E-19  4.52938E-18  1.0E-07
   5.00000E+04  3.15925E-17  3.54785E-19  7.55073E-19  4.13393E-18  1.0E-07
   6.00000E+04  2.81957E-17  2.68391E-19  5.82811E-19  3.54004E-18  2.1E-06
   7.00000E+04  2.56236E-17  2.11817E-19  4.67342E-19  3.11546E-18  2.5E-06
   8.00000E+04  2.36034E-17  1.72477E-19  3.85547E-19  2.79692E-18  1.4E-06
   9.00000E+04  2.19722E-17  1.43861E-19  3.25136E-19  2.54921E-18  2.2E-06
   1.00000E+05  2.06261E-17  1.22304E-19  2.79040E-19  2.35112E-18  6.4E-06
   1.25000E+05  1.81025E-17  8.67385E-20  2.01665E-19  1.99497E-18  5.2E-05
   1.50000E+05  1.63422E-17  6.55482E-20  1.54598E-19  1.75790E-18  2.5E-04
   1.75000E+05  1.50444E-17  5.17656E-20  1.23492E-19  1.58841E-18  8.3E-04
   2.00000E+05  1.40485E-17  4.22240E-20  1.01677E-19  1.46042E-18  2.2E-03
   2.50000E+05  1.26233E-17  3.00954E-20  7.35392E-20  1.27547E-18  9.5E-03
   3.00000E+05  1.16557E-17  2.28651E-20  5.64902E-20  1.17507E-18  5.5E-06
   3.50000E+05  1.09589E-17  1.81492E-20  4.52294E-20  1.09409E-18  6.0E-06
   4.00000E+05  1.04353E-17  1.48711E-20  3.73218E-20  1.03423E-18  8.6E-06
   4.50000E+05  1.00290E-17  1.24818E-20  3.15094E-20  9.88370E-19  1.0E-07
   5.00000E+05  9.70572E-18  1.06753E-20  2.70832E-20  9.52244E-19  1.0E-07
   6.00000E+05  9.22653E-18  8.14813E-21  2.08381E-20  8.99212E-19  4.5E-07
   7.00000E+05  8.89134E-18  6.48396E-21  1.66856E-20  8.62809E-19  1.0E-07
   8.00000E+05  8.64602E-18  5.31746E-21  1.37525E-20  8.36303E-19  1.0E-07
   9.00000E+05  8.46020E-18  4.46129E-21  1.15862E-20  8.16371E-19  1.0E-07
   1.00000E+06  8.31560E-18  3.81031E-21  9.93038E-21  8.00944E-19  1.0E-07
   1.25000E+06  8.08552E-18  2.74740E-21  7.20694E-21  0.00000E+00  1.0E-07
   1.50000E+06  7.96651E-18  2.08042E-21  5.48789E-21  0.00000E+00  1.0E-05
   1.75000E+06  7.85080E-18  1.63760E-21  4.33689E-21  0.00000E+00  1.0E-05
   2.00000E+06  7.76937E-18  1.32768E-21  3.52769E-21  0.00000E+00  1.0E-05
   2.50000E+06  7.66476E-18  9.29882E-22  2.48373E-21  0.00000E+00  1.0E-05
   3.00000E+06  7.60251E-18  6.91354E-22  1.85426E-21  0.00000E+00  1.0E-05
   3.50000E+06  7.56154E-18  5.36010E-22  1.44256E-21  0.00000E+00  1.0E-05
   4.00000E+06  7.53486E-18  4.28722E-22  1.15724E-21  0.00000E+00  1.0E-05
   4.50000E+06  7.51095E-18  3.51279E-22  9.50681E-22  0.00000E+00  1.0E-05
   5.00000E+06  7.51255E-18  2.93500E-22  7.96208E-22  0.00000E+00  1.0E-05
   6.00000E+06  7.48048E-18  2.14122E-22  5.83294E-22  0.00000E+00  1.0E-05
   7.00000E+06  7.46665E-18  1.63437E-22  4.46863E-22  0.00000E+00  1.0E-05
   8.00000E+06  7.45877E-18  1.29001E-22  3.53888E-22  0.00000E+00  1.0E-05
   9.00000E+06  7.45274E-18  1.04493E-22  2.87540E-22  0.00000E+00  1.0E-05
   1.00000E+07  7.44727E-18  8.64070E-23  2.38458E-22  0.00000E+00  1.0E-05
   1.25000E+07  7.44099E-18  5.75029E-23  1.59744E-22  0.00000E+00  1.0E-05
   1.50000E+07  7.43738E-18  4.10324E-23  1.14671E-22  0.00000E+00  1.0E-05
   1.75000E+07  7.43520E-18  3.07456E-23  8.63958E-23  0.00000E+00  1.0E-05
   2.00000E+07  7.43386E-18  2.38879E-23  6.74667E-23  0.00000E+00  1.0E-05
   2.50000E+07  7.43211E-18  1.55934E-23  4.44406E-23  0.00000E+00  1.0E-05
   3.00000E+07  7.43201E-18  1.09602E-23  3.14778E-23  0.00000E+00  1.0E-05
   3.50000E+07  7.42946E-18  8.11432E-24  2.34559E-23  0.00000E+00  1.0E-05
   4.00000E+07  7.42799E-18  6.24425E-24  1.81479E-23  0.00000E+00  1.0E-05
   4.50000E+07  7.42948E-18  4.95094E-24  1.44535E-23  0.00000E+00  1.0E-05
   5.00000E+07  7.42422E-18  4.02020E-24  1.17795E-23  0.00000E+00  1.0E-05
   6.00000E+07  7.42420E-18  2.80077E-24  8.25184E-24  0.00000E+00  1.0E-05
   7.00000E+07  7.42718E-18  2.06156E-24  6.09719E-24  0.00000E+00  1.0E-05
   8.00000E+07  7.42654E-18  1.58011E-24  4.68613E-24  0.00000E+00  1.0E-05
   9.00000E+07  7.42614E-18  1.24932E-24  3.71265E-24  0.00000E+00  1.0E-05
   1.00000E+08  7.42690E-18  1.01237E-24  3.01319E-24  0.00000E+00  1.0E-05
   1.25000E+08  7.42603E-18  6.48156E-25  1.93411E-24  0.00000E+00  1.0E-05
   1.50000E+08  7.42626E-18  4.50113E-25  1.34517E-24  0.00000E+00  1.0E-05
   1.75000E+08  7.42656E-18  3.30655E-25  9.89107E-25  0.00000E+00  1.0E-05
   2.00000E+08  7.42706E-18  2.53110E-25  7.57628E-25  0.00000E+00  1.0E-05
   2.50000E+08  7.42763E-18  1.61920E-25  4.85047E-25  0.00000E+00  3.7E-05
   3.00000E+08  7.42728E-18  1.12396E-25  3.36841E-25  0.00000E+00  3.7E-05
   3.50000E+08  7.42577E-18  8.25410E-26  2.47434E-25  0.00000E+00  1.0E-04
   4.00000E+08  7.42399E-18  6.31715E-26  1.89403E-25  0.00000E+00  1.0E+00
   4.50000E+08  7.42404E-18  4.98950E-26  1.49615E-25  0.00000E+00  1.0E+00
   5.00000E+08  7.41807E-18  4.04014E-26  1.21158E-25  0.00000E+00  1.0E+00
   6.00000E+08  7.41357E-18  2.80397E-26  8.40968E-26  0.00000E+00  1.0E+00
   7.00000E+08  7.40986E-18  2.05902E-26  6.17585E-26  0.00000E+00  1.0E+00
   8.00000E+08  7.39884E-18  1.57569E-26  4.72637E-26  0.00000E+00  1.0E+00
   9.00000E+08  7.38473E-18  1.24451E-26  3.73307E-26  0.00000E+00  1.0E+00
   1.00000E+09  7.36760E-18  1.00775E-26  3.02297E-26  0.00000E+00  1.0E+00
