 #
 # Subroutine ELSEPA. Elastic scattering of electrons and positrons
 #                    by neutral atoms and positive ions
 #
 # Projectile: electron
 # Kinetic energy = 4.50000E+08 eV = 1.65372E+07 a.u.
 #
 # WARNING: High-energy factorization with free-atom DF screening.
 #          Absorption, polarization and exchange corrections are
 #          switched off.
 #          Phase shifts are calculated for the bare nucleus.
 #          Scattering amplitudes are not evaluated.
 #
 # Element: He,  Z =   2,  atomic weight = 4.00260E+00 g/mol
 #
 # Nuclear model: Fermi distribution
 #                Average radius = 1.69889E-13 cm
 #                Skin thickness = 5.46000E-14 cm
 #
 # Number of electrons =  2
 #
 # Total elastic cross section = 1.64529E-20 cm**2 = 5.87544E-04 a0**2
 # 1st transport cross section = 4.68576E-29 cm**2 = 1.67331E-12 a0**2
 # 2nd transport cross section = 1.40381E-28 cm**2 = 5.01310E-12 a0**2
 #
 #
 # Differential cross section:                       MU=(1-COS(THETA))/2
 #
 #  THETA        MU          DCS          DCS        Sherman      error
 #  (deg)                 (cm**2/sr)   (a0**2/sr)    function
 #----------------------------------------------------------------------
0.00000E+00 1.35592E-11
7.61557E-13 1.33658E-11
1.18994E-12 1.32588E-11
1.71346E-12 1.31297E-11
2.33225E-12 1.29792E-11
3.04617E-12 1.28086E-11
3.85530E-12 1.26189E-11
4.75964E-12 1.24116E-11
5.75917E-12 1.21881E-11
6.85391E-12 1.19496E-11
8.04379E-12 1.16866E-11
9.32893E-12 1.14077E-11
1.07092E-11 1.11401E-11
1.21847E-11 1.08694E-11
1.37554E-11 1.05592E-11
1.54213E-11 1.02672E-11
1.71823E-11 9.98858E-12
1.90386E-11 9.66185E-12
2.09900E-11 9.35768E-12
2.30367E-11 9.07490E-12
2.51785E-11 8.75172E-12
2.74156E-11 8.44671E-12
2.97478E-11 8.16465E-12
3.21752E-11 7.85887E-12
3.46979E-11 7.56246E-12
3.73157E-11 7.28912E-12
4.00286E-11 7.00625E-12
4.28368E-11 6.72558E-12
4.57402E-11 6.46700E-12
4.87388E-11 6.20972E-12
5.18325E-11 5.94950E-12
5.50215E-11 5.70970E-12
5.83057E-11 5.47864E-12
6.16850E-11 5.24141E-12
6.51595E-11 5.02261E-12
6.87293E-11 4.81706E-12
7.23943E-11 4.60362E-12
7.61544E-11 4.40650E-12
1.18991E-10 2.82422E-12
1.71347E-10 1.81062E-12
2.33223E-10 1.17499E-12
3.04617E-10 7.86195E-13
3.85531E-10 5.33466E-13
4.75965E-10 3.72146E-13
5.75917E-10 2.66485E-13
6.85389E-10 1.94167E-13
8.04380E-10 1.44214E-13
9.32891E-10 1.09391E-13
1.07092E-09 8.40875E-14
1.21847E-09 6.56648E-14
1.37554E-09 5.19736E-14
1.54213E-09 4.16275E-14
1.71823E-09 3.37037E-14
1.90386E-09 2.75799E-14
2.09900E-09 2.27612E-14
2.30367E-09 1.89482E-14
2.51785E-09 1.58981E-14
2.74156E-09 1.34243E-14
2.97478E-09 1.14130E-14
3.21752E-09 9.76429E-15
3.46978E-09 8.40259E-15
3.73156E-09 7.27002E-15
4.00286E-09 6.32186E-15
4.28368E-09 5.52325E-15
4.57402E-09 4.84677E-15
4.87388E-09 4.27070E-15
5.18326E-09 3.77767E-15
5.50215E-09 3.35375E-15
5.83057E-09 2.98762E-15
6.16850E-09 2.67010E-15
6.51596E-09 2.39364E-15
6.87293E-09 2.15204E-15
7.23942E-09 1.94015E-15
7.61544E-09 1.75370E-15
1.18991E-08 7.19477E-16
1.71347E-08 3.47275E-16
2.33223E-08 1.87550E-16
3.04617E-08 1.09976E-16
3.85531E-08 6.86740E-17
4.75965E-08 4.50647E-17
5.75917E-08 3.07836E-17
6.85389E-08 2.17374E-17
8.04380E-08 1.57831E-17
9.32891E-08 1.17349E-17
1.07092E-07 8.90527E-18
1.21847E-07 6.87938E-18
1.37554E-07 5.39819E-18
1.54213E-07 4.29502E-18
1.71823E-07 3.45980E-18
1.90386E-07 2.81809E-18
2.09900E-07 2.31849E-18
2.30367E-07 1.92486E-18
2.51785E-07 1.61133E-18
2.74156E-07 1.35911E-18
2.97478E-07 1.15437E-18
3.21752E-07 9.86770E-19
3.46978E-07 8.48512E-19
3.73156E-07 7.33643E-19
4.00286E-07 6.37570E-19
4.28368E-07 5.56721E-19
4.57402E-07 4.88291E-19
4.87388E-07 4.30059E-19
5.18325E-07 3.80254E-19
5.50215E-07 3.37456E-19
5.83057E-07 3.00512E-19
6.16850E-07 2.68489E-19
6.51596E-07 2.40620E-19
6.87293E-07 2.16274E-19
7.23942E-07 1.94932E-19
7.61543E-07 1.76158E-19
1.18991E-06 7.21562E-20
1.71347E-06 3.47982E-20
2.33223E-06 1.87835E-20
3.04617E-06 1.10107E-20
3.85531E-06 6.87402E-21
4.75964E-06 4.51010E-21
5.75916E-06 3.08049E-21
6.85388E-06 2.17506E-21
8.04378E-06 1.57917E-21
9.32888E-06 1.17407E-21
1.07092E-05 8.90935E-22
1.21846E-05 6.88234E-22
1.37553E-05 5.40039E-22
1.54212E-05 4.29671E-22
1.71822E-05 3.46112E-22
1.90385E-05 2.81913E-22
2.09899E-05 2.31934E-22
2.30365E-05 1.92555E-22
2.51783E-05 1.61078E-22
2.74153E-05 1.35960E-22
2.97475E-05 1.15478E-22
3.21749E-05 9.87126E-23
3.46974E-05 8.48821E-23
3.73152E-05 7.34558E-23
4.00281E-05 6.37807E-23
4.28362E-05 5.56931E-23
4.57395E-05 4.88478E-23
4.87380E-05 4.30553E-23
5.18317E-05 3.80033E-23
5.50205E-05 3.37592E-23
5.83045E-05 3.00636E-23
6.16838E-05 2.68601E-23
6.51582E-05 2.40630E-23
6.87277E-05 2.16540E-23
7.23925E-05 1.95019E-23
7.61524E-05 1.76238E-23
9.21439E-05 1.20379E-23
1.09658E-04 8.46698E-24
1.28695E-04 6.13727E-24
1.49255E-04 4.55905E-24
1.71338E-04 3.45878E-24
1.94942E-04 2.66687E-24
2.20070E-04 2.09239E-24
2.46720E-04 1.66190E-24
2.74892E-04 1.33761E-24
3.04586E-04 1.08823E-24
3.35803E-04 8.93921E-25
3.68542E-04 7.41474E-25
4.02802E-04 6.19584E-25
4.38585E-04 5.22009E-25
4.75889E-04 4.42636E-25
5.14715E-04 3.77770E-25
5.55063E-04 3.24360E-25
5.96931E-04 2.79912E-25
6.40321E-04 2.42885E-25
6.85233E-04 2.11664E-25
7.31665E-04 1.85314E-25
7.79618E-04 1.62900E-25
8.29092E-04 1.43733E-25
8.80086E-04 1.27310E-25
9.32601E-04 1.13115E-25
9.86636E-04 1.00851E-25
1.04219E-03 9.01749E-26
1.09927E-03 8.08630E-26
1.15786E-03 7.27149E-26
1.21797E-03 6.55457E-26
1.27961E-03 5.92388E-26
1.34276E-03 5.36539E-26
1.40743E-03 4.87081E-26
1.47362E-03 4.43102E-26
1.54133E-03 4.03880E-26
1.61056E-03 3.68876E-26
1.68131E-03 3.37478E-26
1.75357E-03 3.09329E-26
1.82735E-03 2.83983E-26
1.90265E-03 2.61136E-26
1.97947E-03 2.40507E-26
2.05780E-03 2.21816E-26
2.13765E-03 2.04888E-26
2.21902E-03 1.89494E-26
2.30190E-03 1.75496E-26
2.38630E-03 1.62735E-26
2.47222E-03 1.51080E-26
2.55965E-03 1.40434E-26
2.64859E-03 1.30675E-26
2.73905E-03 1.21734E-26
2.83103E-03 1.13520E-26
2.92452E-03 1.05968E-26
3.01952E-03 9.90181E-27
3.11604E-03 9.26069E-27
3.21407E-03 8.66954E-27
3.31362E-03 8.12289E-27
3.41468E-03 7.61747E-27
3.51725E-03 7.14941E-27
3.62133E-03 6.71535E-27
3.72692E-03 6.31284E-27
3.83403E-03 5.93864E-27
3.94265E-03 5.59095E-27
4.05278E-03 5.26723E-27
4.16442E-03 4.96570E-27
4.27757E-03 4.68465E-27
4.39223E-03 4.42223E-27
4.50840E-03 4.17733E-27
4.62608E-03 3.94827E-27
4.74527E-03 3.73407E-27
4.86597E-03 3.53355E-27
4.98817E-03 3.34562E-27
5.11188E-03 3.16952E-27
5.23711E-03 3.00420E-27
5.36383E-03 2.84907E-27
5.49207E-03 2.70327E-27
5.62181E-03 2.56620E-27
5.75306E-03 2.43729E-27
5.88581E-03 2.31588E-27
6.02007E-03 2.20159E-27
6.15583E-03 2.09382E-27
6.29310E-03 1.99222E-27
6.43187E-03 1.89635E-27
6.57214E-03 1.80582E-27
6.71392E-03 1.72034E-27
6.85720E-03 1.63951E-27
7.00198E-03 1.56311E-27
7.14827E-03 1.49081E-27
7.29605E-03 1.42238E-27
7.44534E-03 1.35759E-27
7.59612E-03 1.29618E-27
7.97965E-03 1.15626E-27
8.37255E-03 1.03353E-27
8.77480E-03 9.25589E-28
9.18641E-03 8.30411E-28
9.60736E-03 7.46290E-28
1.00376E-02 6.71774E-28
1.04773E-02 6.05623E-28
1.09262E-02 5.46779E-28
1.13844E-02 4.94333E-28
1.18520E-02 4.47503E-28
1.23288E-02 4.05613E-28
1.28150E-02 3.68079E-28
1.33104E-02 3.34395E-28
1.38150E-02 3.04119E-28
1.43290E-02 2.76866E-28
1.48521E-02 2.52301E-28
1.53845E-02 2.30128E-28
1.59262E-02 2.10089E-28
1.64770E-02 1.91957E-28
1.70371E-02 1.75531E-28
1.76063E-02 1.60633E-28
1.81848E-02 1.47108E-28
1.87724E-02 1.34815E-28
1.93692E-02 1.23632E-28
1.99751E-02 1.13449E-28
2.05901E-02 1.04168E-28
2.12143E-02 9.57023E-29
2.18476E-02 8.79732E-29
2.24900E-02 8.09111E-29
2.31415E-02 7.44536E-29
2.38021E-02 6.85446E-29
2.44717E-02 6.31338E-29
2.51504E-02 5.81757E-29
2.58382E-02 5.36296E-29
2.65349E-02 4.94586E-29
2.72407E-02 4.56295E-29
2.79555E-02 4.21123E-29
2.86793E-02 3.88798E-29
2.94120E-02 3.59073E-29
3.01537E-02 3.31727E-29
3.09043E-02 3.06556E-29
3.16639E-02 2.83376E-29
3.24324E-02 2.62021E-29
3.32098E-02 2.42339E-29
3.39961E-02 2.24191E-29
3.47912E-02 2.07451E-29
3.55952E-02 1.92004E-29
3.64081E-02 1.77744E-29
3.72297E-02 1.64577E-29
3.80602E-02 1.52415E-29
3.88995E-02 1.41176E-29
3.97476E-02 1.30789E-29
4.06044E-02 1.21185E-29
4.14700E-02 1.12303E-29
4.23443E-02 1.04087E-29
4.32273E-02 9.64853E-30
4.41190E-02 8.94494E-30
4.50194E-02 8.29362E-30
4.59284E-02 7.69055E-30
4.68461E-02 7.13205E-30
4.87074E-02 6.13540E-30
5.06030E-02 5.27965E-30
5.25328E-02 4.54440E-30
5.44967E-02 3.91230E-30
5.64946E-02 3.36862E-30
5.85262E-02 2.90076E-30
6.05914E-02 2.49801E-30
6.26901E-02 2.15117E-30
6.48222E-02 1.85242E-30
6.69873E-02 1.59501E-30
6.91854E-02 1.37320E-30
7.14163E-02 1.18202E-30
7.36799E-02 1.01725E-30
7.59760E-02 8.75223E-31
7.83043E-02 7.52804E-31
8.06647E-02 6.47291E-31
8.30571E-02 5.56357E-31
8.54812E-02 4.78000E-31
8.79369E-02 4.10491E-31
9.04240E-02 3.52342E-31
9.29422E-02 3.02267E-31
9.54915E-02 2.59157E-31
9.80716E-02 2.22057E-31
1.00682E-01 1.90140E-31
1.03323E-01 1.62693E-31
1.05995E-01 1.39102E-31
1.08696E-01 1.18834E-31
1.11427E-01 1.01431E-31
1.14188E-01 8.64959E-32
1.16978E-01 7.36877E-32
1.19797E-01 6.27105E-32
1.22645E-01 5.33093E-32
1.25522E-01 4.52643E-32
1.28428E-01 3.83853E-32
1.31361E-01 3.25083E-32
1.34323E-01 2.74923E-32
1.37313E-01 2.32153E-32
1.40330E-01 1.95723E-32
1.43375E-01 1.64728E-32
1.46447E-01 1.38389E-32
1.49545E-01 1.16036E-32
1.52671E-01 9.70909E-33
1.55823E-01 8.10582E-33
1.59001E-01 6.75111E-33
1.62205E-01 5.60836E-33
1.65435E-01 4.64612E-33
1.68690E-01 3.83743E-33
1.71970E-01 3.15923E-33
1.75276E-01 2.59172E-33
1.78606E-01 2.11795E-33
1.81961E-01 1.72351E-33
1.85340E-01 1.39603E-33
1.88743E-01 1.12500E-33
1.92169E-01 9.01461E-34
1.95619E-01 7.17796E-34
1.99092E-01 5.67493E-34
2.02589E-01 4.45097E-34
2.06107E-01 3.45929E-34
2.09649E-01 2.66050E-34
2.13212E-01 2.02158E-34
2.16797E-01 1.51438E-34
2.20404E-01 1.11547E-34
2.24032E-01 8.05102E-35
2.27680E-01 5.66775E-35
2.31350E-01 3.86714E-35
2.35040E-01 2.53486E-35
2.38751E-01 1.57578E-35
2.42481E-01 9.11631E-36
2.46231E-01 4.77698E-36
2.50000E-01 2.21567E-36
2.53788E-01 9.99220E-37
2.57595E-01 7.80533E-37
2.61421E-01 1.27966E-36
2.65264E-01 2.27280E-36
2.69126E-01 3.58509E-36
2.73005E-01 5.07815E-36
2.76901E-01 6.64563E-36
2.80814E-01 8.20891E-36
2.84744E-01 9.70958E-36
2.88691E-01 1.11028E-35
2.92653E-01 1.23652E-35
2.96632E-01 1.34743E-35
3.00625E-01 1.44253E-35
3.04634E-01 1.52117E-35
3.08658E-01 1.58399E-35
3.12697E-01 1.63113E-35
3.16749E-01 1.66388E-35
3.20816E-01 1.68308E-35
3.24896E-01 1.68986E-35
3.28990E-01 1.68561E-35
3.33097E-01 1.67114E-35
3.37216E-01 1.64812E-35
3.41348E-01 1.61763E-35
3.45492E-01 1.58038E-35
3.49647E-01 1.53801E-35
3.53814E-01 1.49094E-35
3.57992E-01 1.44030E-35
3.62181E-01 1.38702E-35
3.66381E-01 1.33173E-35
3.70590E-01 1.27503E-35
3.74810E-01 1.21763E-35
3.79039E-01 1.15985E-35
3.83277E-01 1.10239E-35
3.87524E-01 1.04545E-35
3.91780E-01 9.89474E-36
3.96044E-01 9.34514E-36
4.00316E-01 8.81113E-36
4.04596E-01 8.29293E-36
4.08882E-01 7.79241E-36
4.13176E-01 7.30857E-36
4.17476E-01 6.84566E-36
4.21783E-01 6.40256E-36
4.26095E-01 5.97939E-36
4.30413E-01 5.57764E-36
4.34737E-01 5.19504E-36
4.39065E-01 4.83258E-36
4.43398E-01 4.48983E-36
4.47736E-01 4.16603E-36
4.52077E-01 3.86199E-36
4.56422E-01 3.57487E-36
4.60770E-01 3.30646E-36
4.65122E-01 3.05491E-36
4.69476E-01 2.81956E-36
4.73832E-01 2.59967E-36
4.78190E-01 2.39442E-36
4.82550E-01 2.20316E-36
4.86912E-01 2.02483E-36
4.91274E-01 1.85971E-36
4.95637E-01 1.70534E-36
5.00000E-01 1.56341E-36
5.04363E-01 1.43201E-36
5.08726E-01 1.31003E-36
5.13088E-01 1.19716E-36
5.17450E-01 1.09354E-36
5.21810E-01 9.97459E-37
5.26168E-01 9.09151E-37
5.30524E-01 8.27904E-37
5.34878E-01 7.53320E-37
5.39230E-01 6.84650E-37
5.43578E-01 6.21911E-37
5.47923E-01 5.64263E-37
5.52264E-01 5.11721E-37
5.56602E-01 4.63272E-37
5.60935E-01 4.19076E-37
5.65263E-01 3.78774E-37
5.69587E-01 3.41984E-37
5.73905E-01 3.08234E-37
5.78217E-01 2.77636E-37
5.82524E-01 2.50038E-37
5.86824E-01 2.24749E-37
5.91118E-01 2.01812E-37
5.95404E-01 1.80792E-37
5.99684E-01 1.62142E-37
6.03956E-01 1.45136E-37
6.08220E-01 1.29606E-37
6.12476E-01 1.15776E-37
6.16723E-01 1.03182E-37
6.20961E-01 9.17423E-38
6.25190E-01 8.16145E-38
6.29410E-01 7.24544E-38
6.33619E-01 6.41817E-38
6.37819E-01 5.67375E-38
6.42008E-01 5.01215E-38
6.46186E-01 4.41220E-38
6.50353E-01 3.87685E-38
6.54508E-01 3.40235E-38
6.58652E-01 2.97934E-38
6.62784E-01 2.60365E-38
6.66903E-01 2.26641E-38
6.71010E-01 1.96650E-38
6.75104E-01 1.70537E-38
6.79184E-01 1.47175E-38
6.83251E-01 1.26730E-38
6.87303E-01 1.08520E-38
6.91342E-01 9.24342E-39
6.95366E-01 7.87839E-39
6.99375E-01 6.65978E-39
7.03368E-01 5.62028E-39
7.07347E-01 4.69080E-39
7.11309E-01 3.89490E-39
7.15256E-01 3.19680E-39
7.19186E-01 2.64515E-39
7.23099E-01 2.12923E-39
7.26995E-01 1.71635E-39
7.30874E-01 1.34211E-39
7.34736E-01 1.05224E-39
7.38579E-01 7.98792E-40
7.42405E-01 6.06325E-40
7.46212E-01 4.31490E-40
7.50000E-01 3.07201E-40
7.53769E-01 2.06644E-40
7.57519E-01 1.30103E-40
7.61249E-01 7.35805E-41
7.64960E-01 3.54376E-41
7.68650E-01 1.49958E-41
7.72320E-01 5.46235E-42
7.75968E-01 6.57006E-42
7.79596E-01 1.65583E-41
7.83203E-01 3.23347E-41
7.86788E-01 5.42949E-41
7.90351E-01 8.06967E-41
7.93893E-01 1.11323E-40
7.97411E-01 1.38712E-40
8.00908E-01 1.71324E-40
8.04381E-01 2.07813E-40
8.07831E-01 2.39455E-40
8.11257E-01 2.75685E-40
8.14660E-01 2.96171E-40
8.18039E-01 3.33381E-40
8.21394E-01 3.69480E-40
8.24724E-01 4.00050E-40
8.28030E-01 4.13721E-40
8.31310E-01 4.41370E-40
8.34565E-01 4.68142E-40
8.37795E-01 4.87432E-40
8.40999E-01 5.05427E-40
8.44177E-01 5.26785E-40
8.47329E-01 5.31783E-40
8.50455E-01 5.50039E-40
8.53553E-01 5.67304E-40
8.56625E-01 5.70449E-40
8.59670E-01 5.80903E-40
8.62687E-01 5.82146E-40
8.65677E-01 5.94330E-40
8.68639E-01 5.86820E-40
8.71572E-01 5.74601E-40
8.74478E-01 5.85129E-40
8.77355E-01 5.85949E-40
8.80203E-01 5.91462E-40
8.83022E-01 5.90823E-40
8.85812E-01 5.78791E-40
8.88573E-01 5.74434E-40
8.91304E-01 5.59832E-40
8.94005E-01 5.56873E-40
8.96677E-01 5.60919E-40
8.99318E-01 5.45586E-40
9.01928E-01 5.31623E-40
9.04508E-01 5.26268E-40
9.07058E-01 5.06102E-40
9.09576E-01 5.01709E-40
9.12063E-01 4.96497E-40
9.14519E-01 4.86086E-40
9.16943E-01 4.70778E-40
9.19335E-01 4.54980E-40
9.21696E-01 4.50184E-40
9.24024E-01 4.29801E-40
9.26320E-01 4.14099E-40
9.28584E-01 4.12891E-40
9.30815E-01 3.94593E-40
9.33013E-01 3.80440E-40
9.35178E-01 3.68138E-40
9.37310E-01 3.47472E-40
9.39409E-01 3.40908E-40
9.41474E-01 3.25134E-40
9.43505E-01 3.23903E-40
9.45503E-01 3.09434E-40
9.47467E-01 2.98177E-40
9.49397E-01 2.85322E-40
9.51293E-01 2.70446E-40
9.53154E-01 2.72006E-40
9.54981E-01 2.56810E-40
9.56773E-01 2.50040E-40
9.58530E-01 2.42584E-40
9.60252E-01 2.23130E-40
9.61940E-01 2.10696E-40
9.63592E-01 2.04094E-40
9.65209E-01 1.89196E-40
9.66790E-01 1.86946E-40
9.68336E-01 1.72523E-40
9.69846E-01 1.61804E-40
9.71321E-01 1.53154E-40
9.72759E-01 1.46384E-40
9.74162E-01 1.40011E-40
9.75528E-01 1.30573E-40
9.76858E-01 1.20572E-40
9.78152E-01 1.15533E-40
9.79410E-01 1.12088E-40
9.80631E-01 1.01332E-40
9.81815E-01 1.00143E-40
9.82963E-01 8.71483E-41
9.84074E-01 8.73691E-41
9.85148E-01 8.02855E-41
9.86185E-01 7.51968E-41
9.87185E-01 6.74845E-41
9.88148E-01 6.20089E-41
9.89074E-01 5.59896E-41
9.89962E-01 5.11001E-41
9.90814E-01 4.81984E-41
9.91627E-01 3.99758E-41
9.92404E-01 4.11581E-41
9.93143E-01 3.78849E-41
9.93844E-01 3.52333E-41
9.94508E-01 2.64869E-41
9.95134E-01 2.51852E-41
9.95722E-01 2.04270E-41
9.96273E-01 1.87705E-41
9.96786E-01 1.51886E-41
9.97261E-01 1.30584E-41
9.97698E-01 1.09860E-41
9.98097E-01 1.04473E-41
9.98459E-01 6.78872E-42
9.98782E-01 7.12914E-42
9.99067E-01 4.99439E-42
9.99315E-01 6.97081E-42
9.99524E-01 2.12564E-42
9.99695E-01 1.75111E-42
9.99829E-01 1.62707E-42
9.99924E-01 8.70710E-43
9.99981E-01 2.61972E-42
1.00000E+00 1.42043E-41
