 #
 # Subroutine ELSEPA. Elastic scattering of electrons and positrons
 #                    by neutral atoms and positive ions
 #
 # Projectile: electron
 # Kinetic energy = 9.00000E+08 eV = 3.30744E+07 a.u.
 #
 # WARNING: High-energy factorization with free-atom DF screening.
 #          Absorption, polarization and exchange corrections are
 #          switched off.
 #          Phase shifts are calculated for the bare nucleus.
 #          Scattering amplitudes are not evaluated.
 #
 # Element: He,  Z =   2,  atomic weight = 4.00260E+00 g/mol
 #
 # Nuclear model: Fermi distribution
 #                Average radius = 1.69889E-13 cm
 #                Skin thickness = 5.46000E-14 cm
 #
 # Number of electrons =  2
 #
 # Total elastic cross section = 1.64616E-20 cm**2 = 5.87854E-04 a0**2
 # 1st transport cross section = 1.17466E-29 cm**2 = 4.19479E-13 a0**2
 # 2nd transport cross section = 3.52276E-29 cm**2 = 1.25800E-12 a0**2
 #
 #
 # Differential cross section:                       MU=(1-COS(THETA))/2
 #
 #  THETA        MU          DCS          DCS        Sherman      error
 #  (deg)                 (cm**2/sr)   (a0**2/sr)    function
 #----------------------------------------------------------------------
0.00000E+00 5.41753E-11
7.61557E-13 5.11794E-11
1.18994E-12 4.95951E-11
1.71346E-12 4.77512E-11
2.33225E-12 4.55876E-11
3.04617E-12 4.34397E-11
3.85530E-12 4.10338E-11
4.75964E-12 3.86179E-11
5.75917E-12 3.62720E-11
6.85391E-12 3.37644E-11
8.04379E-12 3.14180E-11
9.32893E-12 2.91400E-11
1.07092E-11 2.68901E-11
1.21847E-11 2.48304E-11
1.37554E-11 2.28306E-11
1.54213E-11 2.09604E-11
1.71823E-11 1.92655E-11
1.90386E-11 1.76232E-11
2.09900E-11 1.61385E-11
2.30367E-11 1.47834E-11
2.51785E-11 1.35036E-11
2.74156E-11 1.23557E-11
2.97478E-11 1.12980E-11
3.21752E-11 1.03242E-11
3.46979E-11 9.44987E-12
3.73157E-11 8.63950E-12
4.00286E-11 7.90553E-12
4.28368E-11 7.24530E-12
4.57402E-11 6.63201E-12
4.87388E-11 6.08161E-12
5.18325E-11 5.58205E-12
5.50215E-11 5.11744E-12
5.83057E-11 4.70238E-12
6.16850E-11 4.33430E-12
6.51595E-11 3.99729E-12
6.87293E-11 3.69129E-12
7.23943E-11 3.40690E-12
7.61544E-11 3.14690E-12
1.18991E-10 1.48980E-12
1.71347E-10 7.77413E-13
2.33223E-10 4.38013E-13
3.04617E-10 2.62932E-13
3.85531E-10 1.66690E-13
4.75965E-10 1.10439E-13
5.75917E-10 7.58761E-14
6.85389E-10 5.37571E-14
8.04380E-10 3.91009E-14
9.32891E-10 2.91127E-14
1.07092E-09 2.21178E-14
1.21847E-09 1.71020E-14
1.37554E-09 1.34301E-14
1.54213E-09 1.06924E-14
1.71823E-09 8.61784E-15
1.90386E-09 7.02269E-15
2.09900E-09 5.78000E-15
2.30367E-09 4.80034E-15
2.51785E-09 4.01965E-15
2.74156E-09 3.39137E-15
2.97478E-09 2.88115E-15
3.21752E-09 2.46336E-15
3.46978E-09 2.11860E-15
3.73156E-09 1.83210E-15
4.00286E-09 1.59241E-15
4.28368E-09 1.39067E-15
4.57402E-09 1.21988E-15
4.87388E-09 1.07452E-15
5.18326E-09 9.50175E-16
5.50215E-09 8.43307E-16
5.83057E-09 7.51047E-16
6.16850E-09 6.71065E-16
6.51596E-09 6.01450E-16
6.87293E-09 5.40632E-16
7.23942E-09 4.87310E-16
7.61544E-09 4.40402E-16
1.18991E-08 1.80462E-16
1.71347E-08 8.70475E-17
2.33223E-08 4.69924E-17
3.04617E-08 2.75485E-17
3.85531E-08 1.71994E-17
4.75965E-08 1.12850E-17
5.75917E-08 7.70807E-18
6.85389E-08 5.44255E-18
8.04380E-08 3.95150E-18
9.32891E-08 2.93785E-18
1.07092E-07 2.22937E-18
1.21847E-07 1.72216E-18
1.37554E-07 1.35133E-18
1.54213E-07 1.07515E-18
1.71823E-07 8.66061E-19
1.90386E-07 7.05416E-19
2.09900E-07 5.80351E-19
2.30367E-07 4.81813E-19
2.51785E-07 4.03330E-19
2.74156E-07 3.40195E-19
2.97478E-07 2.88945E-19
3.21752E-07 2.46992E-19
3.46978E-07 2.12384E-19
3.73156E-07 1.83631E-19
4.00286E-07 1.59583E-19
4.28368E-07 1.39346E-19
4.57402E-07 1.22218E-19
4.87388E-07 1.07642E-19
5.18325E-07 9.51761E-20
5.50215E-07 8.44634E-20
5.83057E-07 7.52165E-20
6.16850E-07 6.72010E-20
6.51596E-07 6.02254E-20
6.87293E-07 5.41319E-20
7.23942E-07 4.87899E-20
7.61543E-07 4.40909E-20
1.18991E-06 1.80599E-20
1.71347E-06 8.70955E-21
2.33223E-06 4.70125E-21
3.04617E-06 2.75582E-21
3.85531E-06 1.72046E-21
4.75964E-06 1.12881E-21
5.75916E-06 7.71000E-22
6.85388E-06 5.44383E-22
8.04378E-06 3.95240E-22
9.32888E-06 2.93851E-22
1.07092E-05 2.22987E-22
1.21846E-05 1.72254E-22
1.37553E-05 1.35163E-22
1.54212E-05 1.07540E-22
1.71822E-05 8.66262E-23
1.90385E-05 7.05583E-23
2.09899E-05 5.80492E-23
2.30365E-05 4.81934E-23
2.51783E-05 4.03152E-23
2.74153E-05 3.40285E-23
2.97475E-05 2.89024E-23
3.21749E-05 2.47061E-23
3.46974E-05 2.12446E-23
3.73152E-05 1.83848E-23
4.00281E-05 1.59633E-23
4.28362E-05 1.39391E-23
4.57395E-05 1.22258E-23
4.87380E-05 1.07760E-23
5.18317E-05 9.51160E-24
5.50205E-05 8.44936E-24
5.83045E-05 7.52442E-24
6.16838E-05 6.72265E-24
6.51582E-05 6.02257E-24
6.87277E-05 5.41965E-24
7.23925E-05 4.88099E-24
7.61524E-05 4.41095E-24
9.21439E-05 3.01289E-24
1.09658E-04 2.09106E-24
1.28695E-04 1.51218E-24
1.49255E-04 1.12051E-24
1.71338E-04 8.47816E-25
1.94942E-04 6.51824E-25
2.20070E-04 5.09858E-25
2.46720E-04 4.03644E-25
2.74892E-04 3.23772E-25
3.04586E-04 2.62460E-25
3.35803E-04 2.14780E-25
3.68542E-04 1.77447E-25
4.02802E-04 1.47660E-25
4.38585E-04 1.23868E-25
4.75889E-04 1.04559E-25
5.14715E-04 8.88176E-26
5.55063E-04 7.58889E-26
5.96931E-04 6.51577E-26
6.40321E-04 5.62431E-26
6.85233E-04 4.87475E-26
7.31665E-04 4.24401E-26
7.79618E-04 3.70914E-26
8.29092E-04 3.25320E-26
8.80086E-04 2.86383E-26
9.32601E-04 2.52844E-26
9.86636E-04 2.23968E-26
1.04219E-03 1.98922E-26
1.09927E-03 1.77158E-26
1.15786E-03 1.58188E-26
1.21797E-03 1.41564E-26
1.27961E-03 1.26999E-26
1.34276E-03 1.14156E-26
1.40743E-03 1.02833E-26
1.47362E-03 9.28082E-27
1.54133E-03 8.39091E-27
1.61056E-03 7.60048E-27
1.68131E-03 6.89487E-27
1.75357E-03 6.26545E-27
1.82735E-03 5.70156E-27
1.90265E-03 5.19593E-27
1.97947E-03 4.74184E-27
2.05780E-03 4.33267E-27
2.13765E-03 3.96418E-27
2.21902E-03 3.63099E-27
2.30190E-03 3.32979E-27
2.38630E-03 3.05688E-27
2.47222E-03 2.80915E-27
2.55965E-03 2.58427E-27
2.64859E-03 2.37946E-27
2.73905E-03 2.19307E-27
2.83103E-03 2.02296E-27
2.92452E-03 1.86763E-27
3.01952E-03 1.72569E-27
3.11604E-03 1.59568E-27
3.21407E-03 1.47667E-27
3.31362E-03 1.36743E-27
3.41468E-03 1.26720E-27
3.51725E-03 1.17509E-27
3.62133E-03 1.09034E-27
3.72692E-03 1.01238E-27
3.83403E-03 9.40485E-28
3.94265E-03 8.74242E-28
4.05278E-03 8.13083E-28
4.16442E-03 7.56602E-28
4.27757E-03 7.04420E-28
4.39223E-03 6.56126E-28
4.50840E-03 6.11463E-28
4.62608E-03 5.70071E-28
4.74527E-03 5.31727E-28
4.86597E-03 4.96169E-28
4.98817E-03 4.63165E-28
5.11188E-03 4.32543E-28
5.23711E-03 4.04077E-28
5.36383E-03 3.77636E-28
5.49207E-03 3.53040E-28
5.62181E-03 3.30156E-28
5.75306E-03 3.08862E-28
5.88581E-03 2.89020E-28
6.02007E-03 2.70545E-28
6.15583E-03 2.53315E-28
6.29310E-03 2.37252E-28
6.43187E-03 2.22268E-28
6.57214E-03 2.08279E-28
6.71392E-03 1.95225E-28
6.85720E-03 1.83026E-28
7.00198E-03 1.71633E-28
7.14827E-03 1.60983E-28
7.29605E-03 1.51025E-28
7.44534E-03 1.41714E-28
7.59612E-03 1.32999E-28
7.97965E-03 1.13580E-28
8.37255E-03 9.70990E-29
8.77480E-03 8.30876E-29
9.18641E-03 7.11580E-29
9.60736E-03 6.09868E-29
1.00376E-02 5.23040E-29
1.04773E-02 4.48833E-29
1.09262E-02 3.85347E-29
1.13844E-02 3.30981E-29
1.18520E-02 2.84386E-29
1.23288E-02 2.44422E-29
1.28150E-02 2.10120E-29
1.33104E-02 1.80663E-29
1.38150E-02 1.55351E-29
1.43290E-02 1.33593E-29
1.48521E-02 1.14882E-29
1.53845E-02 9.87854E-30
1.59262E-02 8.49354E-30
1.64770E-02 7.30158E-30
1.70371E-02 6.27561E-30
1.76063E-02 5.39243E-30
1.81848E-02 4.63215E-30
1.87724E-02 3.97768E-30
1.93692E-02 3.41433E-30
1.99751E-02 2.92947E-30
2.05901E-02 2.51223E-30
2.12143E-02 2.15327E-30
2.18476E-02 1.84451E-30
2.24900E-02 1.57902E-30
2.31415E-02 1.35082E-30
2.38021E-02 1.15475E-30
2.44717E-02 9.86362E-31
2.51504E-02 8.41814E-31
2.58382E-02 7.17802E-31
2.65349E-02 6.11471E-31
2.72407E-02 5.20358E-31
2.79555E-02 4.42340E-31
2.86793E-02 3.75585E-31
2.94120E-02 3.18512E-31
3.01537E-02 2.69759E-31
3.09043E-02 2.28153E-31
3.16639E-02 1.92679E-31
3.24324E-02 1.62466E-31
3.32098E-02 1.36763E-31
3.39961E-02 1.14922E-31
3.47912E-02 9.63867E-32
3.55952E-02 8.06780E-32
3.64081E-02 6.73841E-32
3.72297E-02 5.61512E-32
3.80602E-02 4.66753E-32
3.88995E-02 3.86957E-32
3.97476E-02 3.19888E-32
4.06044E-02 2.63630E-32
4.14700E-02 2.16544E-32
4.23443E-02 1.77225E-32
4.32273E-02 1.44476E-32
4.41190E-02 1.17273E-32
4.50194E-02 9.47450E-33
4.59284E-02 7.61482E-33
4.68461E-02 6.08514E-33
4.87074E-02 3.80928E-33
5.06030E-02 2.30864E-33
5.25328E-02 1.34144E-33
5.44967E-02 7.36237E-34
5.64946E-02 3.72458E-34
5.85262E-02 1.66243E-34
6.05914E-02 5.99662E-35
6.26901E-02 1.46478E-35
6.48222E-02 4.42430E-36
6.69873E-02 1.25515E-35
6.91854E-02 2.85538E-35
7.14163E-02 4.61865E-35
7.36799E-02 6.20038E-35
7.59760E-02 7.43631E-35
7.83043E-02 8.27334E-35
8.06647E-02 8.72407E-35
8.30571E-02 8.83583E-35
8.54812E-02 8.67051E-35
8.79369E-02 8.29413E-35
9.04240E-02 7.76696E-35
9.29422E-02 7.14374E-35
9.54915E-02 6.46938E-35
9.80716E-02 5.77842E-35
1.00682E-01 5.09874E-35
1.03323E-01 4.44902E-35
1.05995E-01 3.84284E-35
1.08696E-01 3.28756E-35
1.11427E-01 2.78751E-35
1.14188E-01 2.34334E-35
1.16978E-01 1.95367E-35
1.19797E-01 1.61566E-35
1.22645E-01 1.32550E-35
1.25522E-01 1.07873E-35
1.28428E-01 8.70811E-36
1.31361E-01 6.97333E-36
1.34323E-01 5.53656E-36
1.37313E-01 4.35712E-36
1.40330E-01 3.39763E-36
1.43375E-01 2.62325E-36
1.46447E-01 2.00420E-36
1.49545E-01 1.51344E-36
1.52671E-01 1.12828E-36
1.55823E-01 8.29012E-37
1.59001E-01 5.99141E-37
1.62205E-01 4.24668E-37
1.65435E-01 2.94177E-37
1.68690E-01 1.98189E-37
1.71970E-01 1.28832E-37
1.75276E-01 7.99732E-38
1.78606E-01 4.66834E-38
1.81961E-01 2.48725E-38
1.85340E-01 1.15016E-38
1.88743E-01 4.09114E-39
1.92169E-01 8.01298E-40
1.95619E-01 2.35426E-40
1.99092E-01 1.35454E-39
2.02589E-01 3.42701E-39
2.06107E-01 5.90721E-39
2.09649E-01 8.41586E-39
2.13212E-01 1.07741E-38
2.16797E-01 1.27908E-38
2.20404E-01 1.44263E-38
2.24032E-01 1.56569E-38
2.27680E-01 1.64846E-38
2.31350E-01 1.69345E-38
2.35040E-01 1.70647E-38
2.38751E-01 1.68967E-38
2.42481E-01 1.65027E-38
2.46231E-01 1.58641E-38
2.50000E-01 1.51523E-38
2.53788E-01 1.42900E-38
2.57595E-01 1.33848E-38
2.61421E-01 1.24227E-38
2.65264E-01 1.14774E-38
2.69126E-01 1.05104E-38
2.73005E-01 9.57769E-39
2.76901E-01 8.69901E-39
2.80814E-01 7.85765E-39
2.84744E-01 7.05778E-39
2.88691E-01 6.34164E-39
2.92653E-01 5.65040E-39
2.96632E-01 5.03823E-39
3.00625E-01 4.46209E-39
3.04634E-01 3.95426E-39
3.08658E-01 3.47824E-39
3.12697E-01 3.06795E-39
3.16749E-01 2.68889E-39
3.20816E-01 2.35267E-39
3.24896E-01 2.05647E-39
3.28990E-01 1.78741E-39
3.33097E-01 1.56377E-39
3.37216E-01 1.35935E-39
3.41348E-01 1.17606E-39
3.45492E-01 1.02827E-39
3.49647E-01 8.87776E-40
3.53814E-01 7.74031E-40
3.57992E-01 6.75486E-40
3.62181E-01 5.86248E-40
3.66381E-01 5.08160E-40
3.70590E-01 4.41764E-40
3.74810E-01 3.81998E-40
3.79039E-01 3.33125E-40
3.83277E-01 2.87912E-40
3.87524E-01 2.50143E-40
3.91780E-01 2.16455E-40
3.96044E-01 1.91269E-40
4.00316E-01 1.66733E-40
4.04596E-01 1.46081E-40
4.08882E-01 1.27858E-40
4.13176E-01 1.15804E-40
4.17476E-01 1.02557E-40
4.21783E-01 9.11378E-41
4.26095E-01 8.16035E-41
4.30413E-01 7.12173E-41
4.34737E-01 6.38235E-41
4.39065E-01 5.71355E-41
4.43398E-01 5.12819E-41
4.47736E-01 4.67365E-41
4.52077E-01 4.12862E-41
4.56422E-01 3.86079E-41
4.60770E-01 3.46975E-41
4.65122E-01 3.13843E-41
4.69476E-01 2.85878E-41
4.73832E-01 2.61827E-41
4.78190E-01 2.43044E-41
4.82550E-01 2.27199E-41
4.86912E-01 2.18656E-41
4.91274E-01 2.01164E-41
4.95637E-01 2.03219E-41
5.00000E-01 1.84516E-41
5.04363E-01 1.66326E-41
5.08726E-01 1.56701E-41
5.13088E-01 1.50765E-41
5.17450E-01 1.35486E-41
5.21810E-01 1.31340E-41
5.26168E-01 1.24711E-41
5.30524E-01 1.19015E-41
5.34878E-01 1.12380E-41
5.39230E-01 1.10152E-41
5.43578E-01 1.02955E-41
5.47923E-01 9.92109E-42
5.52264E-01 9.01907E-42
5.56602E-01 8.95474E-42
5.60935E-01 8.64132E-42
5.65263E-01 8.16593E-42
5.69587E-01 7.72906E-42
5.73905E-01 7.82121E-42
5.78217E-01 7.57354E-42
5.82524E-01 6.70544E-42
5.86824E-01 6.44601E-42
5.91118E-01 6.16932E-42
5.95404E-01 6.59307E-42
5.99684E-01 5.82265E-42
6.03956E-01 5.48570E-42
6.08220E-01 5.67435E-42
6.12476E-01 5.17925E-42
6.16723E-01 5.07971E-42
6.20961E-01 5.27843E-42
6.25190E-01 4.75005E-42
6.29410E-01 4.41356E-42
6.33619E-01 4.20943E-42
6.37819E-01 4.07476E-42
6.42008E-01 3.68296E-42
6.46186E-01 3.65494E-42
6.50353E-01 3.59572E-42
6.54508E-01 3.38195E-42
6.58652E-01 3.18501E-42
6.62784E-01 2.99331E-42
6.66903E-01 2.99352E-42
6.71010E-01 3.06681E-42
6.75104E-01 2.85553E-42
6.79184E-01 2.82265E-42
6.83251E-01 2.66581E-42
6.87303E-01 2.66204E-42
6.91342E-01 2.71507E-42
6.95366E-01 2.36264E-42
6.99375E-01 2.25979E-42
7.03368E-01 1.94922E-42
7.07347E-01 1.93860E-42
7.11309E-01 1.85629E-42
7.15256E-01 1.94964E-42
7.19186E-01 1.47973E-42
7.23099E-01 1.60641E-42
7.26995E-01 1.40616E-42
7.30874E-01 1.66499E-42
7.34736E-01 1.49631E-42
7.38579E-01 1.61277E-42
7.42405E-01 1.34852E-42
7.46212E-01 1.61704E-42
7.50000E-01 1.37028E-42
7.53769E-01 1.26944E-42
7.57519E-01 1.18902E-42
7.61249E-01 1.18550E-42
7.64960E-01 1.00000E-45
7.68650E-01 1.00000E-45
7.72320E-01 1.00000E-45
7.75968E-01 1.00000E-45
7.79596E-01 1.00000E-45
7.83203E-01 1.00000E-45
7.86788E-01 1.00000E-45
7.90351E-01 1.00000E-45
7.93893E-01 1.00000E-45
7.97411E-01 1.00000E-45
8.00908E-01 1.00000E-45
8.04381E-01 1.00000E-45
8.07831E-01 1.00000E-45
8.11257E-01 1.00000E-45
8.14660E-01 1.00000E-45
8.18039E-01 1.00000E-45
8.21394E-01 1.00000E-45
8.24724E-01 1.00000E-45
8.28030E-01 1.00000E-45
8.31310E-01 1.00000E-45
8.34565E-01 1.00000E-45
8.37795E-01 1.00000E-45
8.40999E-01 1.00000E-45
8.44177E-01 1.00000E-45
8.47329E-01 1.00000E-45
8.50455E-01 1.00000E-45
8.53553E-01 1.00000E-45
8.56625E-01 1.00000E-45
8.59670E-01 1.00000E-45
8.62687E-01 1.00000E-45
8.65677E-01 1.00000E-45
8.68639E-01 1.00000E-45
8.71572E-01 1.00000E-45
8.74478E-01 1.00000E-45
8.77355E-01 1.00000E-45
8.80203E-01 1.00000E-45
8.83022E-01 1.00000E-45
8.85812E-01 1.00000E-45
8.88573E-01 1.00000E-45
8.91304E-01 1.00000E-45
8.94005E-01 1.00000E-45
8.96677E-01 1.00000E-45
8.99318E-01 1.00000E-45
9.01928E-01 1.00000E-45
9.04508E-01 1.00000E-45
9.07058E-01 1.00000E-45
9.09576E-01 1.00000E-45
9.12063E-01 1.00000E-45
9.14519E-01 1.00000E-45
9.16943E-01 1.00000E-45
9.19335E-01 1.00000E-45
9.21696E-01 1.00000E-45
9.24024E-01 1.00000E-45
9.26320E-01 1.00000E-45
9.28584E-01 1.00000E-45
9.30815E-01 1.00000E-45
9.33013E-01 1.00000E-45
9.35178E-01 1.00000E-45
9.37310E-01 1.00000E-45
9.39409E-01 1.00000E-45
9.41474E-01 1.00000E-45
9.43505E-01 1.00000E-45
9.45503E-01 1.00000E-45
9.47467E-01 1.00000E-45
9.49397E-01 1.00000E-45
9.51293E-01 1.00000E-45
9.53154E-01 1.00000E-45
9.54981E-01 1.00000E-45
9.56773E-01 1.00000E-45
9.58530E-01 1.00000E-45
9.60252E-01 1.00000E-45
9.61940E-01 1.00000E-45
9.63592E-01 1.00000E-45
9.65209E-01 1.00000E-45
9.66790E-01 1.00000E-45
9.68336E-01 1.00000E-45
9.69846E-01 1.00000E-45
9.71321E-01 1.00000E-45
9.72759E-01 1.00000E-45
9.74162E-01 1.00000E-45
9.75528E-01 1.00000E-45
9.76858E-01 1.00000E-45
9.78152E-01 1.00000E-45
9.79410E-01 1.00000E-45
9.80631E-01 1.00000E-45
9.81815E-01 1.00000E-45
9.82963E-01 1.00000E-45
9.84074E-01 1.00000E-45
9.85148E-01 1.00000E-45
9.86185E-01 1.00000E-45
9.87185E-01 1.00000E-45
9.88148E-01 1.00000E-45
9.89074E-01 1.00000E-45
9.89962E-01 1.00000E-45
9.90814E-01 1.00000E-45
9.91627E-01 1.00000E-45
9.92404E-01 1.00000E-45
9.93143E-01 1.00000E-45
9.93844E-01 1.00000E-45
9.94508E-01 1.00000E-45
9.95134E-01 1.00000E-45
9.95722E-01 1.00000E-45
9.96273E-01 1.00000E-45
9.96786E-01 1.00000E-45
9.97261E-01 1.00000E-45
9.97698E-01 1.00000E-45
9.98097E-01 1.00000E-45
9.98459E-01 1.00000E-45
9.98782E-01 1.00000E-45
9.99067E-01 1.00000E-45
9.99315E-01 1.00000E-45
9.99524E-01 1.00000E-45
9.99695E-01 1.00000E-45
9.99829E-01 1.00000E-45
9.99924E-01 1.00000E-45
9.99981E-01 1.00000E-45
1.00000E+00 1.00000E-45
