 #
 # Subroutine ELSEPA. Elastic scattering of electrons and positrons
 #                    by neutral atoms and positive ions
 #
 # Projectile: electron
 # Kinetic energy = 1.00000E+07 eV = 3.67493E+05 a.u.
 #
 # WARNING: High-energy factorization with free-atom DF screening.
 #          Absorption, polarization and exchange corrections are
 #          switched off.
 #          Phase shifts are calculated for the bare nucleus.
 #          Scattering amplitudes are not evaluated.
 #
 # Element: He,  Z =   2,  atomic weight = 4.00260E+00 g/mol
 #
 # Nuclear model: Fermi distribution
 #                Average radius = 1.69889E-13 cm
 #                Skin thickness = 5.46000E-14 cm
 #
 # Number of electrons =  2
 #
 # Total elastic cross section = 1.65159E-20 cm**2 = 5.89792E-04 a0**2
 # 1st transport cross section = 6.65642E-26 cm**2 = 2.37705E-09 a0**2
 # 2nd transport cross section = 1.92511E-25 cm**2 = 6.87469E-09 a0**2
 #
 #
 # Differential cross section:                       MU=(1-COS(THETA))/2
 #
 #  THETA        MU          DCS          DCS        Sherman      error
 #  (deg)                 (cm**2/sr)   (a0**2/sr)    function
 #----------------------------------------------------------------------
0.00000E+00 7.38093E-15
7.61557E-13 7.38087E-15
1.18994E-12 7.38084E-15
1.71346E-12 7.38080E-15
2.33225E-12 7.38075E-15
3.04617E-12 7.38069E-15
3.85530E-12 7.38063E-15
4.75964E-12 7.38056E-15
5.75917E-12 7.38049E-15
6.85391E-12 7.38040E-15
8.04379E-12 7.38031E-15
9.32893E-12 7.38022E-15
1.07092E-11 7.38011E-15
1.21847E-11 7.38000E-15
1.37554E-11 7.37988E-15
1.54213E-11 7.37975E-15
1.71823E-11 7.37962E-15
1.90386E-11 7.37948E-15
2.09900E-11 7.37933E-15
2.30367E-11 7.37917E-15
2.51785E-11 7.37901E-15
2.74156E-11 7.37884E-15
2.97478E-11 7.37867E-15
3.21752E-11 7.37848E-15
3.46979E-11 7.37829E-15
3.73157E-11 7.37809E-15
4.00286E-11 7.37789E-15
4.28368E-11 7.37767E-15
4.57402E-11 7.37745E-15
4.87388E-11 7.37722E-15
5.18325E-11 7.37699E-15
5.50215E-11 7.37675E-15
5.83057E-11 7.37650E-15
6.16850E-11 7.37624E-15
6.51595E-11 7.37598E-15
6.87293E-11 7.37571E-15
7.23943E-11 7.37543E-15
7.61544E-11 7.37515E-15
1.18991E-10 7.37190E-15
1.71347E-10 7.36794E-15
2.33223E-10 7.36326E-15
3.04617E-10 7.35788E-15
3.85531E-10 7.35177E-15
4.75965E-10 7.34496E-15
5.75917E-10 7.33744E-15
6.85389E-10 7.32922E-15
8.04380E-10 7.32030E-15
9.32891E-10 7.31068E-15
1.07092E-09 7.30038E-15
1.21847E-09 7.28937E-15
1.37554E-09 7.27768E-15
1.54213E-09 7.26532E-15
1.71823E-09 7.25231E-15
1.90386E-09 7.23858E-15
2.09900E-09 7.22420E-15
2.30367E-09 7.20918E-15
2.51785E-09 7.19353E-15
2.74156E-09 7.17717E-15
2.97478E-09 7.16020E-15
3.21752E-09 7.14261E-15
3.46978E-09 7.12441E-15
3.73156E-09 7.10553E-15
4.00286E-09 7.08606E-15
4.28368E-09 7.06602E-15
4.57402E-09 7.04537E-15
4.87388E-09 7.02409E-15
5.18326E-09 7.00226E-15
5.50215E-09 6.97989E-15
5.83057E-09 6.95691E-15
6.16850E-09 6.93335E-15
6.51596E-09 6.90929E-15
6.87293E-09 6.88474E-15
7.23942E-09 6.85956E-15
7.61544E-09 6.83387E-15
1.18991E-08 6.55085E-15
1.71347E-08 6.21245E-15
2.33223E-08 5.86294E-15
3.04617E-08 5.49194E-15
3.85531E-08 5.09815E-15
4.75965E-08 4.71223E-15
5.75917E-08 4.34041E-15
6.85389E-08 3.97295E-15
8.04380E-08 3.61841E-15
9.32891E-08 3.29038E-15
1.07092E-07 2.98833E-15
1.21847E-07 2.70175E-15
1.37554E-07 2.43889E-15
1.54213E-07 2.20172E-15
1.71823E-07 1.98779E-15
1.90386E-07 1.78921E-15
2.09900E-07 1.61120E-15
2.30367E-07 1.45210E-15
2.51785E-07 1.30947E-15
2.74156E-07 1.17912E-15
2.97478E-07 1.06318E-15
3.21752E-07 9.59889E-16
3.46978E-07 8.67315E-16
3.73156E-07 7.83809E-16
4.00286E-07 7.08806E-16
4.28368E-07 6.41991E-16
4.57402E-07 5.83910E-16
4.87388E-07 5.31364E-16
5.18325E-07 4.84058E-16
5.50215E-07 4.41351E-16
5.83057E-07 4.02415E-16
6.16850E-07 3.67145E-16
6.51596E-07 3.35386E-16
6.87293E-07 3.06783E-16
7.23942E-07 2.80955E-16
7.61543E-07 2.57761E-16
1.18991E-06 1.17779E-16
1.71347E-06 5.98396E-17
2.33223E-06 3.31923E-17
3.04617E-06 1.97590E-17
3.85531E-06 1.24534E-17
4.75964E-06 8.21541E-18
5.75916E-06 5.62414E-18
6.85388E-06 3.97798E-18
8.04378E-06 2.89206E-18
9.32888E-06 2.15249E-18
1.07092E-05 1.63482E-18
1.21846E-05 1.26377E-18
1.37553E-05 9.92234E-19
1.54212E-05 7.89840E-19
1.71822E-05 6.36504E-19
1.90385E-05 5.18628E-19
2.09899E-05 4.26812E-19
2.30365E-05 3.54441E-19
2.51783E-05 2.96580E-19
2.74153E-05 2.50374E-19
2.97475E-05 2.12695E-19
3.21749E-05 1.81844E-19
3.46974E-05 1.56388E-19
3.73152E-05 1.35347E-19
4.00281E-05 1.17539E-19
4.28362E-05 1.02645E-19
4.57395E-05 9.00375E-20
4.87380E-05 7.93643E-20
5.18317E-05 7.00633E-20
5.50205E-05 6.22402E-20
5.83045E-05 5.54304E-20
6.16838E-05 4.95269E-20
6.51582E-05 4.43724E-20
6.87277E-05 3.99300E-20
7.23925E-05 3.59645E-20
7.61524E-05 3.25025E-20
9.21439E-05 2.22040E-20
1.09658E-04 1.56885E-20
1.28695E-04 1.13821E-20
1.49255E-04 8.46286E-21
1.71338E-04 6.42638E-21
1.94942E-04 4.96026E-21
2.20070E-04 3.89571E-21
2.46720E-04 3.09777E-21
2.74892E-04 2.49619E-21
3.04586E-04 2.03331E-21
3.35803E-04 1.67245E-21
3.68542E-04 1.38908E-21
4.02802E-04 1.16240E-21
4.38585E-04 9.80764E-22
4.75889E-04 8.32922E-22
5.14715E-04 7.11997E-22
5.55063E-04 6.12341E-22
5.96931E-04 5.29344E-22
6.40321E-04 4.60134E-22
6.85233E-04 4.01729E-22
7.31665E-04 3.52385E-22
7.79618E-04 3.10371E-22
8.29092E-04 2.74409E-22
8.80086E-04 2.43560E-22
9.32601E-04 2.16871E-22
9.86636E-04 1.93784E-22
1.04219E-03 1.73664E-22
1.09927E-03 1.56094E-22
1.15786E-03 1.40701E-22
1.21797E-03 1.27141E-22
1.27961E-03 1.15196E-22
1.34276E-03 1.04605E-22
1.40743E-03 9.52132E-23
1.47362E-03 8.68502E-23
1.54133E-03 7.93816E-23
1.61056E-03 7.27062E-23
1.68131E-03 6.67099E-23
1.75357E-03 6.13258E-23
1.82735E-03 5.64702E-23
1.90265E-03 5.20866E-23
1.97947E-03 4.81220E-23
2.05780E-03 4.45241E-23
2.13765E-03 4.12601E-23
2.21902E-03 3.82866E-23
2.30190E-03 3.55780E-23
2.38630E-03 3.31044E-23
2.47222E-03 3.08412E-23
2.55965E-03 2.87698E-23
2.64859E-03 2.68675E-23
2.73905E-03 2.51214E-23
2.83103E-03 2.35140E-23
2.92452E-03 2.20333E-23
3.01952E-03 2.06678E-23
3.11604E-03 1.94055E-23
3.21407E-03 1.82391E-23
3.31362E-03 1.71583E-23
3.41468E-03 1.61568E-23
3.51725E-03 1.52272E-23
3.62133E-03 1.43632E-23
3.72692E-03 1.35602E-23
3.83403E-03 1.28119E-23
3.94265E-03 1.21150E-23
4.05278E-03 1.14646E-23
4.16442E-03 1.08572E-23
4.27757E-03 1.02897E-23
4.39223E-03 9.75854E-24
4.50840E-03 9.26151E-24
4.62608E-03 8.79545E-24
4.74527E-03 8.35848E-24
4.86597E-03 7.94829E-24
4.98817E-03 7.56285E-24
5.11188E-03 7.20067E-24
5.23711E-03 6.85971E-24
5.36383E-03 6.53885E-24
5.49207E-03 6.23643E-24
5.62181E-03 5.95130E-24
5.75306E-03 5.68235E-24
5.88581E-03 5.42829E-24
6.02007E-03 5.18840E-24
6.15583E-03 4.96151E-24
6.29310E-03 4.74694E-24
6.43187E-03 4.54384E-24
6.57214E-03 4.35143E-24
6.71392E-03 4.16918E-24
6.85720E-03 3.99628E-24
7.00198E-03 3.83231E-24
7.14827E-03 3.67663E-24
7.29605E-03 3.52877E-24
7.44534E-03 3.38830E-24
7.59612E-03 3.25469E-24
7.97965E-03 2.94844E-24
8.37255E-03 2.67736E-24
8.77480E-03 2.43671E-24
9.18641E-03 2.22249E-24
9.60736E-03 2.03129E-24
1.00376E-02 1.86021E-24
1.04773E-02 1.70675E-24
1.09262E-02 1.56878E-24
1.13844E-02 1.44446E-24
1.18520E-02 1.33221E-24
1.23288E-02 1.23065E-24
1.28150E-02 1.13857E-24
1.33104E-02 1.05494E-24
1.38150E-02 9.78843E-25
1.43290E-02 9.09477E-25
1.48521E-02 8.46141E-25
1.53845E-02 7.88218E-25
1.59262E-02 7.35162E-25
1.64770E-02 6.86490E-25
1.70371E-02 6.41776E-25
1.76063E-02 6.00639E-25
1.81848E-02 5.62741E-25
1.87724E-02 5.27782E-25
1.93692E-02 4.95491E-25
1.99751E-02 4.65629E-25
2.05901E-02 4.37980E-25
2.12143E-02 4.12349E-25
2.18476E-02 3.88563E-25
2.24900E-02 3.66465E-25
2.31415E-02 3.45912E-25
2.38021E-02 3.26778E-25
2.44717E-02 3.08946E-25
2.51504E-02 2.92311E-25
2.58382E-02 2.76779E-25
2.65349E-02 2.62262E-25
2.72407E-02 2.48683E-25
2.79555E-02 2.35969E-25
2.86793E-02 2.24055E-25
2.94120E-02 2.12882E-25
3.01537E-02 2.02395E-25
3.09043E-02 1.92545E-25
3.16639E-02 1.83284E-25
3.24324E-02 1.74572E-25
3.32098E-02 1.66371E-25
3.39961E-02 1.58643E-25
3.47912E-02 1.51358E-25
3.55952E-02 1.44485E-25
3.64081E-02 1.37997E-25
3.72297E-02 1.31867E-25
3.80602E-02 1.26073E-25
3.88995E-02 1.20593E-25
3.97476E-02 1.15406E-25
4.06044E-02 1.10494E-25
4.14700E-02 1.05839E-25
4.23443E-02 1.01426E-25
4.32273E-02 9.72400E-26
4.41190E-02 9.32667E-26
4.50194E-02 8.94934E-26
4.59284E-02 8.59082E-26
4.68461E-02 8.24999E-26
4.87074E-02 7.61736E-26
5.06030E-02 7.04394E-26
5.25328E-02 6.52323E-26
5.44967E-02 6.04953E-26
5.64946E-02 5.61783E-26
5.85262E-02 5.22376E-26
6.05914E-02 4.86346E-26
6.26901E-02 4.53351E-26
6.48222E-02 4.23090E-26
6.69873E-02 3.95297E-26
6.91854E-02 3.69734E-26
7.14163E-02 3.46190E-26
7.36799E-02 3.24478E-26
7.59760E-02 3.04429E-26
7.83043E-02 2.85893E-26
8.06647E-02 2.68735E-26
8.30571E-02 2.52835E-26
8.54812E-02 2.38083E-26
8.79369E-02 2.24382E-26
9.04240E-02 2.11644E-26
9.29422E-02 1.99789E-26
9.54915E-02 1.88744E-26
9.80716E-02 1.78444E-26
1.00682E-01 1.68830E-26
1.03323E-01 1.59848E-26
1.05995E-01 1.51448E-26
1.08696E-01 1.43587E-26
1.11427E-01 1.36223E-26
1.14188E-01 1.29320E-26
1.16978E-01 1.22843E-26
1.19797E-01 1.16761E-26
1.22645E-01 1.11046E-26
1.25522E-01 1.05671E-26
1.28428E-01 1.00613E-26
1.31361E-01 9.58499E-27
1.34323E-01 9.13610E-27
1.37313E-01 8.71277E-27
1.40330E-01 8.31329E-27
1.43375E-01 7.93607E-27
1.46447E-01 7.57965E-27
1.49545E-01 7.24267E-27
1.52671E-01 6.92387E-27
1.55823E-01 6.62211E-27
1.59001E-01 6.33630E-27
1.62205E-01 6.06545E-27
1.65435E-01 5.80863E-27
1.68690E-01 5.56499E-27
1.71970E-01 5.33373E-27
1.75276E-01 5.11410E-27
1.78606E-01 4.90541E-27
1.81961E-01 4.70702E-27
1.85340E-01 4.51833E-27
1.88743E-01 4.33878E-27
1.92169E-01 4.16785E-27
1.95619E-01 4.00505E-27
1.99092E-01 3.84991E-27
2.02589E-01 3.70202E-27
2.06107E-01 3.56098E-27
2.09649E-01 3.42641E-27
2.13212E-01 3.29796E-27
2.16797E-01 3.17531E-27
2.20404E-01 3.05814E-27
2.24032E-01 2.94616E-27
2.27680E-01 2.83911E-27
2.31350E-01 2.73672E-27
2.35040E-01 2.63876E-27
2.38751E-01 2.54501E-27
2.42481E-01 2.45524E-27
2.46231E-01 2.36926E-27
2.50000E-01 2.28689E-27
2.53788E-01 2.20793E-27
2.57595E-01 2.13224E-27
2.61421E-01 2.05964E-27
2.65264E-01 1.98998E-27
2.69126E-01 1.92313E-27
2.73005E-01 1.85896E-27
2.76901E-01 1.79733E-27
2.80814E-01 1.73814E-27
2.84744E-01 1.68125E-27
2.88691E-01 1.62658E-27
2.92653E-01 1.57401E-27
2.96632E-01 1.52346E-27
3.00625E-01 1.47483E-27
3.04634E-01 1.42803E-27
3.08658E-01 1.38299E-27
3.12697E-01 1.33962E-27
3.16749E-01 1.29786E-27
3.20816E-01 1.25763E-27
3.24896E-01 1.21887E-27
3.28990E-01 1.18151E-27
3.33097E-01 1.14550E-27
3.37216E-01 1.11077E-27
3.41348E-01 1.07728E-27
3.45492E-01 1.04497E-27
3.49647E-01 1.01380E-27
3.53814E-01 9.83707E-28
3.57992E-01 9.54659E-28
3.62181E-01 9.26611E-28
3.66381E-01 8.99521E-28
3.70590E-01 8.73353E-28
3.74810E-01 8.48068E-28
3.79039E-01 8.23633E-28
3.83277E-01 8.00013E-28
3.87524E-01 7.77176E-28
3.91780E-01 7.55093E-28
3.96044E-01 7.33734E-28
4.00316E-01 7.13070E-28
4.04596E-01 6.93077E-28
4.08882E-01 6.73727E-28
4.13176E-01 6.54998E-28
4.17476E-01 6.36866E-28
4.21783E-01 6.19307E-28
4.26095E-01 6.02302E-28
4.30413E-01 5.85829E-28
4.34737E-01 5.69870E-28
4.39065E-01 5.54405E-28
4.43398E-01 5.39417E-28
4.47736E-01 5.24888E-28
4.52077E-01 5.10802E-28
4.56422E-01 4.97144E-28
4.60770E-01 4.83898E-28
4.65122E-01 4.71049E-28
4.69476E-01 4.58583E-28
4.73832E-01 4.46488E-28
4.78190E-01 4.34751E-28
4.82550E-01 4.23359E-28
4.86912E-01 4.12300E-28
4.91274E-01 4.01563E-28
4.95637E-01 3.91138E-28
5.00000E-01 3.81012E-28
5.04363E-01 3.71177E-28
5.08726E-01 3.61623E-28
5.13088E-01 3.52341E-28
5.17450E-01 3.43321E-28
5.21810E-01 3.34555E-28
5.26168E-01 3.26034E-28
5.30524E-01 3.17751E-28
5.34878E-01 3.09698E-28
5.39230E-01 3.01868E-28
5.43578E-01 2.94253E-28
5.47923E-01 2.86846E-28
5.52264E-01 2.79641E-28
5.56602E-01 2.72632E-28
5.60935E-01 2.65813E-28
5.65263E-01 2.59176E-28
5.69587E-01 2.52718E-28
5.73905E-01 2.46432E-28
5.78217E-01 2.40313E-28
5.82524E-01 2.34355E-28
5.86824E-01 2.28555E-28
5.91118E-01 2.22907E-28
5.95404E-01 2.17406E-28
5.99684E-01 2.12048E-28
6.03956E-01 2.06829E-28
6.08220E-01 2.01745E-28
6.12476E-01 1.96792E-28
6.16723E-01 1.91965E-28
6.20961E-01 1.87262E-28
6.25190E-01 1.82678E-28
6.29410E-01 1.78210E-28
6.33619E-01 1.73855E-28
6.37819E-01 1.69609E-28
6.42008E-01 1.65470E-28
6.46186E-01 1.61434E-28
6.50353E-01 1.57498E-28
6.54508E-01 1.53659E-28
6.58652E-01 1.49916E-28
6.62784E-01 1.46264E-28
6.66903E-01 1.42702E-28
6.71010E-01 1.39226E-28
6.75104E-01 1.35836E-28
6.79184E-01 1.32527E-28
6.83251E-01 1.29299E-28
6.87303E-01 1.26148E-28
6.91342E-01 1.23074E-28
6.95366E-01 1.20072E-28
6.99375E-01 1.17143E-28
7.03368E-01 1.14282E-28
7.07347E-01 1.11490E-28
7.11309E-01 1.08764E-28
7.15256E-01 1.06103E-28
7.19186E-01 1.03503E-28
7.23099E-01 1.00965E-28
7.26995E-01 9.84864E-29
7.30874E-01 9.60656E-29
7.34736E-01 9.37008E-29
7.38579E-01 9.13910E-29
7.42405E-01 8.91344E-29
7.46212E-01 8.69303E-29
7.50000E-01 8.47765E-29
7.53769E-01 8.26724E-29
7.57519E-01 8.06164E-29
7.61249E-01 7.86075E-29
7.64960E-01 7.66444E-29
7.68650E-01 7.47258E-29
7.72320E-01 7.28509E-29
7.75968E-01 7.10185E-29
7.79596E-01 6.92275E-29
7.83203E-01 6.74769E-29
7.86788E-01 6.57657E-29
7.90351E-01 6.40931E-29
7.93893E-01 6.24580E-29
7.97411E-01 6.08594E-29
8.00908E-01 5.92967E-29
8.04381E-01 5.77690E-29
8.07831E-01 5.62752E-29
8.11257E-01 5.48149E-29
8.14660E-01 5.33867E-29
8.18039E-01 5.19906E-29
8.21394E-01 5.06255E-29
8.24724E-01 4.92906E-29
8.28030E-01 4.79851E-29
8.31310E-01 4.67087E-29
8.34565E-01 4.54605E-29
8.37795E-01 4.42399E-29
8.40999E-01 4.30462E-29
8.44177E-01 4.18790E-29
8.47329E-01 4.07374E-29
8.50455E-01 3.96211E-29
8.53553E-01 3.85295E-29
8.56625E-01 3.74619E-29
8.59670E-01 3.64179E-29
8.62687E-01 3.53969E-29
8.65677E-01 3.43986E-29
8.68639E-01 3.34222E-29
8.71572E-01 3.24674E-29
8.74478E-01 3.15339E-29
8.77355E-01 3.06210E-29
8.80203E-01 2.97285E-29
8.83022E-01 2.88557E-29
8.85812E-01 2.80022E-29
8.88573E-01 2.71679E-29
8.91304E-01 2.63521E-29
8.94005E-01 2.55546E-29
8.96677E-01 2.47751E-29
8.99318E-01 2.40129E-29
9.01928E-01 2.32680E-29
9.04508E-01 2.25399E-29
9.07058E-01 2.18282E-29
9.09576E-01 2.11328E-29
9.12063E-01 2.04533E-29
9.14519E-01 1.97893E-29
9.16943E-01 1.91405E-29
9.19335E-01 1.85067E-29
9.21696E-01 1.78876E-29
9.24024E-01 1.72829E-29
9.26320E-01 1.66923E-29
9.28584E-01 1.61157E-29
9.30815E-01 1.55527E-29
9.33013E-01 1.50030E-29
9.35178E-01 1.44666E-29
9.37310E-01 1.39430E-29
9.39409E-01 1.34322E-29
9.41474E-01 1.29338E-29
9.43505E-01 1.24478E-29
9.45503E-01 1.19737E-29
9.47467E-01 1.15116E-29
9.49397E-01 1.10610E-29
9.51293E-01 1.06220E-29
9.53154E-01 1.01944E-29
9.54981E-01 9.77771E-30
9.56773E-01 9.37207E-30
9.58530E-01 8.97717E-30
9.60252E-01 8.59281E-30
9.61940E-01 8.21895E-30
9.63592E-01 7.85543E-30
9.65209E-01 7.50199E-30
9.66790E-01 7.15865E-30
9.68336E-01 6.82505E-30
9.69846E-01 6.50124E-30
9.71321E-01 6.18702E-30
9.72759E-01 5.88231E-30
9.74162E-01 5.58691E-30
9.75528E-01 5.30072E-30
9.76858E-01 5.02366E-30
9.78152E-01 4.75563E-30
9.79410E-01 4.49649E-30
9.80631E-01 4.24608E-30
9.81815E-01 4.00444E-30
9.82963E-01 3.77130E-30
9.84074E-01 3.54677E-30
9.85148E-01 3.33059E-30
9.86185E-01 3.12274E-30
9.87185E-01 2.92311E-30
9.88148E-01 2.73170E-30
9.89074E-01 2.54836E-30
9.89962E-01 2.37302E-30
9.90814E-01 2.20569E-30
9.91627E-01 2.04618E-30
9.92404E-01 1.89458E-30
9.93143E-01 1.75069E-30
9.93844E-01 1.61451E-30
9.94508E-01 1.48595E-30
9.95134E-01 1.36507E-30
9.95722E-01 1.25169E-30
9.96273E-01 1.14587E-30
9.96786E-01 1.04750E-30
9.97261E-01 9.56591E-31
9.97698E-01 8.73056E-31
9.98097E-01 7.96927E-31
9.98459E-01 7.28097E-31
9.98782E-01 6.66634E-31
9.99067E-01 6.12427E-31
9.99315E-01 5.65459E-31
9.99524E-01 5.25785E-31
9.99695E-01 4.93297E-31
9.99829E-01 4.68109E-31
9.99924E-01 4.50064E-31
9.99981E-01 4.39268E-31
1.00000E+00 4.35913E-31
