 #
 # Subroutine ELSEPA. Elastic scattering of electrons and positrons
 #                    by neutral atoms and positive ions
 #
 # Projectile: electron
 # Kinetic energy = 3.00000E+06 eV = 1.10248E+05 a.u.
 #
 # WARNING: High-energy factorization with free-atom DF screening.
 #          Absorption, polarization and exchange corrections are
 #          switched off.
 #          Phase shifts are calculated for the bare nucleus.
 #          Scattering amplitudes are not evaluated.
 #
 # Element: He,  Z =   2,  atomic weight = 4.00260E+00 g/mol
 #
 # Nuclear model: Fermi distribution
 #                Average radius = 1.69889E-13 cm
 #                Skin thickness = 5.46000E-14 cm
 #
 # Number of electrons =  2
 #
 # Total elastic cross section = 1.68089E-20 cm**2 = 6.00258E-04 a0**2
 # 1st transport cross section = 5.23369E-25 cm**2 = 1.86898E-08 a0**2
 # 2nd transport cross section = 1.50155E-24 cm**2 = 5.36214E-08 a0**2
 #
 #
 # Differential cross section:                       MU=(1-COS(THETA))/2
 #
 #  THETA        MU          DCS          DCS        Sherman      error
 #  (deg)                 (cm**2/sr)   (a0**2/sr)    function
 #----------------------------------------------------------------------
0.00000E+00 8.23539E-16
7.61557E-13 8.23539E-16
1.18994E-12 8.23538E-16
1.71346E-12 8.23538E-16
2.33225E-12 8.23537E-16
3.04617E-12 8.23537E-16
3.85530E-12 8.23536E-16
4.75964E-12 8.23535E-16
5.75917E-12 8.23534E-16
6.85391E-12 8.23533E-16
8.04379E-12 8.23532E-16
9.32893E-12 8.23531E-16
1.07092E-11 8.23529E-16
1.21847E-11 8.23528E-16
1.37554E-11 8.23526E-16
1.54213E-11 8.23525E-16
1.71823E-11 8.23523E-16
1.90386E-11 8.23522E-16
2.09900E-11 8.23520E-16
2.30367E-11 8.23518E-16
2.51785E-11 8.23516E-16
2.74156E-11 8.23514E-16
2.97478E-11 8.23512E-16
3.21752E-11 8.23509E-16
3.46979E-11 8.23507E-16
3.73157E-11 8.23505E-16
4.00286E-11 8.23502E-16
4.28368E-11 8.23500E-16
4.57402E-11 8.23497E-16
4.87388E-11 8.23494E-16
5.18325E-11 8.23491E-16
5.50215E-11 8.23488E-16
5.83057E-11 8.23485E-16
6.16850E-11 8.23482E-16
6.51595E-11 8.23479E-16
6.87293E-11 8.23475E-16
7.23943E-11 8.23472E-16
7.61544E-11 8.23469E-16
1.18991E-10 8.23429E-16
1.71347E-10 8.23380E-16
2.33223E-10 8.23323E-16
3.04617E-10 8.23257E-16
3.85531E-10 8.23182E-16
4.75965E-10 8.23098E-16
5.75917E-10 8.23006E-16
6.85389E-10 8.22905E-16
8.04380E-10 8.22795E-16
9.32891E-10 8.22676E-16
1.07092E-09 8.22548E-16
1.21847E-09 8.22412E-16
1.37554E-09 8.22267E-16
1.54213E-09 8.22113E-16
1.71823E-09 8.21950E-16
1.90386E-09 8.21779E-16
2.09900E-09 8.21599E-16
2.30367E-09 8.21410E-16
2.51785E-09 8.21212E-16
2.74156E-09 8.21006E-16
2.97478E-09 8.20791E-16
3.21752E-09 8.20568E-16
3.46978E-09 8.20335E-16
3.73156E-09 8.20095E-16
4.00286E-09 8.19845E-16
4.28368E-09 8.19587E-16
4.57402E-09 8.19320E-16
4.87388E-09 8.19045E-16
5.18326E-09 8.18761E-16
5.50215E-09 8.18468E-16
5.83057E-09 8.18166E-16
6.16850E-09 8.17857E-16
6.51596E-09 8.17539E-16
6.87293E-09 8.17211E-16
7.23942E-09 8.16875E-16
7.61544E-09 8.16532E-16
1.18991E-08 8.12628E-16
1.71347E-08 8.07891E-16
2.33223E-08 8.02345E-16
3.04617E-08 7.96005E-16
3.85531E-08 7.88914E-16
4.75965E-08 7.81079E-16
5.75917E-08 7.72557E-16
6.85389E-08 7.63361E-16
8.04380E-08 7.53544E-16
9.32891E-08 7.43138E-16
1.07092E-07 7.32179E-16
1.21847E-07 7.20725E-16
1.37554E-07 7.07961E-16
1.54213E-07 6.94897E-16
1.71823E-07 6.82233E-16
1.90386E-07 6.70005E-16
2.09900E-07 6.56484E-16
2.30367E-07 6.42026E-16
2.51785E-07 6.28222E-16
2.74156E-07 6.15069E-16
2.97478E-07 6.01070E-16
3.21752E-07 5.85944E-16
3.46978E-07 5.71632E-16
3.73156E-07 5.58099E-16
4.00286E-07 5.44201E-16
4.28368E-07 5.29052E-16
4.57402E-07 5.14788E-16
4.87388E-07 5.01360E-16
5.18325E-07 4.87993E-16
5.50215E-07 4.73336E-16
5.83057E-07 4.59570E-16
6.16850E-07 4.46638E-16
6.51596E-07 4.34094E-16
6.87293E-07 4.20298E-16
7.23942E-07 4.07355E-16
7.61543E-07 3.95203E-16
1.18991E-06 2.85302E-16
1.71347E-06 2.02683E-16
2.33223E-06 1.43639E-16
3.04617E-06 1.02066E-16
3.85531E-06 7.32008E-17
4.75964E-06 5.35785E-17
5.75916E-06 3.95312E-17
6.85388E-06 2.95008E-17
8.04378E-06 2.24239E-17
9.32888E-06 1.73109E-17
1.07092E-05 1.35036E-17
1.21846E-05 1.06477E-17
1.37553E-05 8.49554E-18
1.54212E-05 6.86917E-18
1.71822E-05 5.58946E-18
1.90385E-05 4.59503E-18
2.09899E-05 3.81102E-18
2.30365E-05 3.18430E-18
2.51783E-05 2.67880E-18
2.74153E-05 2.26996E-18
2.97475E-05 1.93534E-18
3.21749E-05 1.66027E-18
3.46974E-05 1.43111E-18
3.73152E-05 1.24088E-18
4.00281E-05 1.07988E-18
4.28362E-05 9.44329E-19
4.57395E-05 8.28963E-19
4.87380E-05 7.31141E-19
5.18317E-05 6.45968E-19
5.50205E-05 5.74115E-19
5.83045E-05 5.11567E-19
6.16838E-05 4.57303E-19
6.51582E-05 4.09903E-19
6.87277E-05 3.68972E-19
7.23925E-05 3.32483E-19
7.61524E-05 3.00582E-19
9.21439E-05 2.05581E-19
1.09658E-04 1.45376E-19
1.28695E-04 1.05553E-19
1.49255E-04 7.85240E-20
1.71338E-04 5.96509E-20
1.94942E-04 4.60630E-20
2.20070E-04 3.61848E-20
2.46720E-04 2.87823E-20
2.74892E-04 2.31971E-20
3.04586E-04 1.88990E-20
3.35803E-04 1.55477E-20
3.68542E-04 1.29147E-20
4.02802E-04 1.08089E-20
4.38585E-04 9.12059E-21
4.75889E-04 7.74657E-21
5.14715E-04 6.62247E-21
5.55063E-04 5.69588E-21
5.96931E-04 4.92429E-21
6.40321E-04 4.28062E-21
6.85233E-04 3.73754E-21
7.31665E-04 3.27859E-21
7.79618E-04 2.88782E-21
8.29092E-04 2.55334E-21
8.80086E-04 2.26635E-21
9.32601E-04 2.01810E-21
9.86636E-04 1.80330E-21
1.04219E-03 1.61613E-21
1.09927E-03 1.45266E-21
1.15786E-03 1.30943E-21
1.21797E-03 1.18328E-21
1.27961E-03 1.07212E-21
1.34276E-03 9.73581E-22
1.40743E-03 8.86183E-22
1.47362E-03 8.08361E-22
1.54133E-03 7.38862E-22
1.61056E-03 6.76737E-22
1.68131E-03 6.20938E-22
1.75357E-03 5.70828E-22
1.82735E-03 5.25641E-22
1.90265E-03 4.84843E-22
1.97947E-03 4.47944E-22
2.05780E-03 4.14461E-22
2.13765E-03 3.84079E-22
2.21902E-03 3.56406E-22
2.30190E-03 3.31194E-22
2.38630E-03 3.08171E-22
2.47222E-03 2.87107E-22
2.55965E-03 2.67825E-22
2.64859E-03 2.50120E-22
2.73905E-03 2.33866E-22
2.83103E-03 2.18905E-22
2.92452E-03 2.05122E-22
3.01952E-03 1.92410E-22
3.11604E-03 1.80661E-22
3.21407E-03 1.69804E-22
3.31362E-03 1.59743E-22
3.41468E-03 1.50420E-22
3.51725E-03 1.41766E-22
3.62133E-03 1.33724E-22
3.72692E-03 1.26248E-22
3.83403E-03 1.19283E-22
3.94265E-03 1.12795E-22
4.05278E-03 1.06740E-22
4.16442E-03 1.01086E-22
4.27757E-03 9.58034E-23
4.39223E-03 9.08585E-23
4.50840E-03 8.62313E-23
4.62608E-03 8.18926E-23
4.74527E-03 7.78246E-23
4.86597E-03 7.40059E-23
4.98817E-03 7.04177E-23
5.11188E-03 6.70458E-23
5.23711E-03 6.38716E-23
5.36383E-03 6.08844E-23
5.49207E-03 5.80690E-23
5.62181E-03 5.54145E-23
5.75306E-03 5.29105E-23
5.88581E-03 5.05453E-23
6.02007E-03 4.83118E-23
6.15583E-03 4.61995E-23
6.29310E-03 4.42018E-23
6.43187E-03 4.23109E-23
6.57214E-03 4.05195E-23
6.71392E-03 3.88226E-23
6.85720E-03 3.72129E-23
7.00198E-03 3.56863E-23
7.14827E-03 3.42369E-23
7.29605E-03 3.28602E-23
7.44534E-03 3.15523E-23
7.59612E-03 3.03084E-23
7.97965E-03 2.74570E-23
8.37255E-03 2.49330E-23
8.77480E-03 2.26924E-23
9.18641E-03 2.06978E-23
9.60736E-03 1.89175E-23
1.00376E-02 1.73245E-23
1.04773E-02 1.58956E-23
1.09262E-02 1.46109E-23
1.13844E-02 1.34534E-23
1.18520E-02 1.24082E-23
1.23288E-02 1.14624E-23
1.28150E-02 1.06050E-23
1.33104E-02 9.82626E-24
1.38150E-02 9.11762E-24
1.43290E-02 8.47167E-24
1.48521E-02 7.88188E-24
1.53845E-02 7.34248E-24
1.59262E-02 6.84839E-24
1.64770E-02 6.39514E-24
1.70371E-02 5.97873E-24
1.76063E-02 5.59563E-24
1.81848E-02 5.24269E-24
1.87724E-02 4.91711E-24
1.93692E-02 4.61638E-24
1.99751E-02 4.33827E-24
2.05901E-02 4.08076E-24
2.12143E-02 3.84205E-24
2.18476E-02 3.62052E-24
2.24900E-02 3.41470E-24
2.31415E-02 3.22327E-24
2.38021E-02 3.04506E-24
2.44717E-02 2.87897E-24
2.51504E-02 2.72403E-24
2.58382E-02 2.57935E-24
2.65349E-02 2.44414E-24
2.72407E-02 2.31765E-24
2.79555E-02 2.19922E-24
2.86793E-02 2.08825E-24
2.94120E-02 1.98417E-24
3.01537E-02 1.88648E-24
3.09043E-02 1.79472E-24
3.16639E-02 1.70846E-24
3.24324E-02 1.62730E-24
3.32098E-02 1.55089E-24
3.39961E-02 1.47891E-24
3.47912E-02 1.41104E-24
3.55952E-02 1.34701E-24
3.64081E-02 1.28656E-24
3.72297E-02 1.22945E-24
3.80602E-02 1.17547E-24
3.88995E-02 1.12441E-24
3.97476E-02 1.07608E-24
4.06044E-02 1.03032E-24
4.14700E-02 9.86950E-25
4.23443E-02 9.45833E-25
4.32273E-02 9.06828E-25
4.41190E-02 8.69805E-25
4.50194E-02 8.34646E-25
4.59284E-02 8.01238E-25
4.68461E-02 7.69479E-25
4.87074E-02 7.10526E-25
5.06030E-02 6.57090E-25
5.25328E-02 6.08564E-25
5.44967E-02 5.64416E-25
5.64946E-02 5.24182E-25
5.85262E-02 4.87453E-25
6.05914E-02 4.53870E-25
6.26901E-02 4.23115E-25
6.48222E-02 3.94907E-25
6.69873E-02 3.68998E-25
6.91854E-02 3.45167E-25
7.14163E-02 3.23218E-25
7.36799E-02 3.02974E-25
7.59760E-02 2.84281E-25
7.83043E-02 2.66998E-25
8.06647E-02 2.50999E-25
8.30571E-02 2.36172E-25
8.54812E-02 2.22415E-25
8.79369E-02 2.09638E-25
9.04240E-02 1.97757E-25
9.29422E-02 1.86700E-25
9.54915E-02 1.76398E-25
9.80716E-02 1.66790E-25
1.00682E-01 1.57821E-25
1.03323E-01 1.49442E-25
1.05995E-01 1.41605E-25
1.08696E-01 1.34271E-25
1.11427E-01 1.27400E-25
1.14188E-01 1.20958E-25
1.16978E-01 1.14914E-25
1.19797E-01 1.09238E-25
1.22645E-01 1.03904E-25
1.25522E-01 9.88876E-26
1.28428E-01 9.41665E-26
1.31361E-01 8.97201E-26
1.34323E-01 8.55296E-26
1.37313E-01 8.15774E-26
1.40330E-01 7.78476E-26
1.43375E-01 7.43255E-26
1.46447E-01 7.09972E-26
1.49545E-01 6.78503E-26
1.52671E-01 6.48731E-26
1.55823E-01 6.20547E-26
1.59001E-01 5.93851E-26
1.62205E-01 5.68551E-26
1.65435E-01 5.44559E-26
1.68690E-01 5.21797E-26
1.71970E-01 5.00190E-26
1.75276E-01 4.79668E-26
1.78606E-01 4.60167E-26
1.81961E-01 4.41627E-26
1.85340E-01 4.23991E-26
1.88743E-01 4.07209E-26
1.92169E-01 3.91231E-26
1.95619E-01 3.76012E-26
1.99092E-01 3.61508E-26
2.02589E-01 3.47681E-26
2.06107E-01 3.34492E-26
2.09649E-01 3.21908E-26
2.13212E-01 3.09895E-26
2.16797E-01 2.98423E-26
2.20404E-01 2.87463E-26
2.24032E-01 2.76988E-26
2.27680E-01 2.66973E-26
2.31350E-01 2.57393E-26
2.35040E-01 2.48227E-26
2.38751E-01 2.39453E-26
2.42481E-01 2.31052E-26
2.46231E-01 2.23005E-26
2.50000E-01 2.15294E-26
2.53788E-01 2.07903E-26
2.57595E-01 2.00816E-26
2.61421E-01 1.94018E-26
2.65264E-01 1.87495E-26
2.69126E-01 1.81235E-26
2.73005E-01 1.75224E-26
2.76901E-01 1.69451E-26
2.80814E-01 1.63906E-26
2.84744E-01 1.58576E-26
2.88691E-01 1.53454E-26
2.92653E-01 1.48528E-26
2.96632E-01 1.43790E-26
3.00625E-01 1.39232E-26
3.04634E-01 1.34845E-26
3.08658E-01 1.30622E-26
3.12697E-01 1.26556E-26
3.16749E-01 1.22640E-26
3.20816E-01 1.18868E-26
3.24896E-01 1.15232E-26
3.28990E-01 1.11728E-26
3.33097E-01 1.08350E-26
3.37216E-01 1.05092E-26
3.41348E-01 1.01949E-26
3.45492E-01 9.89169E-27
3.49647E-01 9.59908E-27
3.53814E-01 9.31664E-27
3.57992E-01 9.04395E-27
3.62181E-01 8.78061E-27
3.66381E-01 8.52624E-27
3.70590E-01 8.28049E-27
3.74810E-01 8.04301E-27
3.79039E-01 7.81348E-27
3.83277E-01 7.59158E-27
3.87524E-01 7.37701E-27
3.91780E-01 7.16950E-27
3.96044E-01 6.96876E-27
4.00316E-01 6.77454E-27
4.04596E-01 6.58659E-27
4.08882E-01 6.40468E-27
4.13176E-01 6.22857E-27
4.17476E-01 6.05804E-27
4.21783E-01 5.89290E-27
4.26095E-01 5.73294E-27
4.30413E-01 5.57796E-27
4.34737E-01 5.42780E-27
4.39065E-01 5.28227E-27
4.43398E-01 5.14120E-27
4.47736E-01 5.00444E-27
4.52077E-01 4.87183E-27
4.56422E-01 4.74323E-27
4.60770E-01 4.61849E-27
4.65122E-01 4.49747E-27
4.69476E-01 4.38006E-27
4.73832E-01 4.26611E-27
4.78190E-01 4.15552E-27
4.82550E-01 4.04816E-27
4.86912E-01 3.94393E-27
4.91274E-01 3.84272E-27
4.95637E-01 3.74443E-27
5.00000E-01 3.64895E-27
5.04363E-01 3.55620E-27
5.08726E-01 3.46609E-27
5.13088E-01 3.37852E-27
5.17450E-01 3.29342E-27
5.21810E-01 3.21070E-27
5.26168E-01 3.13028E-27
5.30524E-01 3.05210E-27
5.34878E-01 2.97607E-27
5.39230E-01 2.90214E-27
5.43578E-01 2.83022E-27
5.47923E-01 2.76026E-27
5.52264E-01 2.69220E-27
5.56602E-01 2.62598E-27
5.60935E-01 2.56154E-27
5.65263E-01 2.49881E-27
5.69587E-01 2.43777E-27
5.73905E-01 2.37834E-27
5.78217E-01 2.32047E-27
5.82524E-01 2.26413E-27
5.86824E-01 2.20927E-27
5.91118E-01 2.15583E-27
5.95404E-01 2.10379E-27
5.99684E-01 2.05308E-27
6.03956E-01 2.00369E-27
6.08220E-01 1.95556E-27
6.12476E-01 1.90865E-27
6.16723E-01 1.86295E-27
6.20961E-01 1.81840E-27
6.25190E-01 1.77497E-27
6.29410E-01 1.73264E-27
6.33619E-01 1.69137E-27
6.37819E-01 1.65113E-27
6.42008E-01 1.61189E-27
6.46186E-01 1.57362E-27
6.50353E-01 1.53630E-27
6.54508E-01 1.49989E-27
6.58652E-01 1.46437E-27
6.62784E-01 1.42973E-27
6.66903E-01 1.39592E-27
6.71010E-01 1.36294E-27
6.75104E-01 1.33075E-27
6.79184E-01 1.29934E-27
6.83251E-01 1.26868E-27
6.87303E-01 1.23875E-27
6.91342E-01 1.20954E-27
6.95366E-01 1.18103E-27
6.99375E-01 1.15318E-27
7.03368E-01 1.12600E-27
7.07347E-01 1.09946E-27
7.11309E-01 1.07354E-27
7.15256E-01 1.04822E-27
7.19186E-01 1.02350E-27
7.23099E-01 9.99352E-28
7.26995E-01 9.75765E-28
7.30874E-01 9.52725E-28
7.34736E-01 9.30214E-28
7.38579E-01 9.08223E-28
7.42405E-01 8.86735E-28
7.46212E-01 8.65742E-28
7.50000E-01 8.45226E-28
7.53769E-01 8.25178E-28
7.57519E-01 8.05586E-28
7.61249E-01 7.86438E-28
7.64960E-01 7.67724E-28
7.68650E-01 7.49431E-28
7.72320E-01 7.31550E-28
7.75968E-01 7.14073E-28
7.79596E-01 6.96986E-28
7.83203E-01 6.80282E-28
7.86788E-01 6.63952E-28
7.90351E-01 6.47986E-28
7.93893E-01 6.32375E-28
7.97411E-01 6.17111E-28
8.00908E-01 6.02186E-28
8.04381E-01 5.87592E-28
8.07831E-01 5.73320E-28
8.11257E-01 5.59365E-28
8.14660E-01 5.45715E-28
8.18039E-01 5.32369E-28
8.21394E-01 5.19317E-28
8.24724E-01 5.06551E-28
8.28030E-01 4.94063E-28
8.31310E-01 4.81853E-28
8.34565E-01 4.69910E-28
8.37795E-01 4.58228E-28
8.40999E-01 4.46803E-28
8.44177E-01 4.35628E-28
8.47329E-01 4.24697E-28
8.50455E-01 4.14007E-28
8.53553E-01 4.03551E-28
8.56625E-01 3.93322E-28
8.59670E-01 3.83319E-28
8.62687E-01 3.73534E-28
8.65677E-01 3.63964E-28
8.68639E-01 3.54603E-28
8.71572E-01 3.45448E-28
8.74478E-01 3.36495E-28
8.77355E-01 3.27739E-28
8.80203E-01 3.19176E-28
8.83022E-01 3.10800E-28
8.85812E-01 3.02610E-28
8.88573E-01 2.94601E-28
8.91304E-01 2.86769E-28
8.94005E-01 2.79112E-28
8.96677E-01 2.71625E-28
8.99318E-01 2.64304E-28
9.01928E-01 2.57148E-28
9.04508E-01 2.50152E-28
9.07058E-01 2.43313E-28
9.09576E-01 2.36629E-28
9.12063E-01 2.30097E-28
9.14519E-01 2.23712E-28
9.16943E-01 2.17473E-28
9.19335E-01 2.11377E-28
9.21696E-01 2.05423E-28
9.24024E-01 1.99605E-28
9.26320E-01 1.93922E-28
9.28584E-01 1.88374E-28
9.30815E-01 1.82954E-28
9.33013E-01 1.77663E-28
9.35178E-01 1.72498E-28
9.37310E-01 1.67456E-28
9.39409E-01 1.62537E-28
9.41474E-01 1.57737E-28
9.43505E-01 1.53055E-28
9.45503E-01 1.48487E-28
9.47467E-01 1.44034E-28
9.49397E-01 1.39692E-28
9.51293E-01 1.35461E-28
9.53154E-01 1.31338E-28
9.54981E-01 1.27321E-28
9.56773E-01 1.23410E-28
9.58530E-01 1.19602E-28
9.60252E-01 1.15895E-28
9.61940E-01 1.12289E-28
9.63592E-01 1.08782E-28
9.65209E-01 1.05372E-28
9.66790E-01 1.02059E-28
9.68336E-01 9.88396E-29
9.69846E-01 9.57147E-29
9.71321E-01 9.26817E-29
9.72759E-01 8.97405E-29
9.74162E-01 8.68883E-29
9.75528E-01 8.41252E-29
9.76858E-01 8.14500E-29
9.78152E-01 7.88616E-29
9.79410E-01 7.63589E-29
9.80631E-01 7.39400E-29
9.81815E-01 7.16060E-29
9.82963E-01 6.93537E-29
9.84074E-01 6.71844E-29
9.85148E-01 6.50956E-29
9.86185E-01 6.30871E-29
9.87185E-01 6.11579E-29
9.88148E-01 5.93084E-29
9.89074E-01 5.75363E-29
9.89962E-01 5.58413E-29
9.90814E-01 5.42242E-29
9.91627E-01 5.26823E-29
9.92404E-01 5.12168E-29
9.93143E-01 4.98255E-29
9.93844E-01 4.85085E-29
9.94508E-01 4.72655E-29
9.95134E-01 4.60970E-29
9.95722E-01 4.50004E-29
9.96273E-01 4.39771E-29
9.96786E-01 4.30259E-29
9.97261E-01 4.21469E-29
9.97698E-01 4.13388E-29
9.98097E-01 4.06026E-29
9.98459E-01 3.99368E-29
9.98782E-01 3.93426E-29
9.99067E-01 3.88184E-29
9.99315E-01 3.83632E-29
9.99524E-01 3.79800E-29
9.99695E-01 3.76652E-29
9.99829E-01 3.74220E-29
9.99924E-01 3.72471E-29
9.99981E-01 3.71428E-29
1.00000E+00 3.71140E-29
