 #
 # Subroutine ELSEPA. Elastic scattering of electrons and positrons
 #                    by neutral atoms and positive ions
 #
 # Projectile: electron
 # Kinetic energy = 9.00000E+06 eV = 3.30744E+05 a.u.
 #
 # WARNING: High-energy factorization with free-atom DF screening.
 #          Absorption, polarization and exchange corrections are
 #          switched off.
 #          Phase shifts are calculated for the bare nucleus.
 #          Scattering amplitudes are not evaluated.
 #
 # Element: He,  Z =   2,  atomic weight = 4.00260E+00 g/mol
 #
 # Nuclear model: Fermi distribution
 #                Average radius = 1.69889E-13 cm
 #                Skin thickness = 5.46000E-14 cm
 #
 # Number of electrons =  2
 #
 # Total elastic cross section = 1.65259E-20 cm**2 = 5.90151E-04 a0**2
 # 1st transport cross section = 8.02335E-26 cm**2 = 2.86519E-09 a0**2
 # 2nd transport cross section = 2.31903E-25 cm**2 = 8.28142E-09 a0**2
 #
 #
 # Differential cross section:                       MU=(1-COS(THETA))/2
 #
 #  THETA        MU          DCS          DCS        Sherman      error
 #  (deg)                 (cm**2/sr)   (a0**2/sr)    function
 #----------------------------------------------------------------------
0.00000E+00 6.04332E-15
7.61557E-13 6.04328E-15
1.18994E-12 6.04325E-15
1.71346E-12 6.04323E-15
2.33225E-12 6.04320E-15
3.04617E-12 6.04316E-15
3.85530E-12 6.04312E-15
4.75964E-12 6.04307E-15
5.75917E-12 6.04302E-15
6.85391E-12 6.04296E-15
8.04379E-12 6.04290E-15
9.32893E-12 6.04284E-15
1.07092E-11 6.04277E-15
1.21847E-11 6.04269E-15
1.37554E-11 6.04261E-15
1.54213E-11 6.04253E-15
1.71823E-11 6.04244E-15
1.90386E-11 6.04234E-15
2.09900E-11 6.04224E-15
2.30367E-11 6.04214E-15
2.51785E-11 6.04203E-15
2.74156E-11 6.04192E-15
2.97478E-11 6.04180E-15
3.21752E-11 6.04168E-15
3.46979E-11 6.04155E-15
3.73157E-11 6.04141E-15
4.00286E-11 6.04128E-15
4.28368E-11 6.04113E-15
4.57402E-11 6.04099E-15
4.87388E-11 6.04083E-15
5.18325E-11 6.04068E-15
5.50215E-11 6.04051E-15
5.83057E-11 6.04035E-15
6.16850E-11 6.04018E-15
6.51595E-11 6.04000E-15
6.87293E-11 6.03982E-15
7.23943E-11 6.03963E-15
7.61544E-11 6.03944E-15
1.18991E-10 6.03727E-15
1.71347E-10 6.03461E-15
2.33223E-10 6.03147E-15
3.04617E-10 6.02786E-15
3.85531E-10 6.02377E-15
4.75965E-10 6.01920E-15
5.75917E-10 6.01415E-15
6.85389E-10 6.00864E-15
8.04380E-10 6.00265E-15
9.32891E-10 5.99619E-15
1.07092E-09 5.98927E-15
1.21847E-09 5.98187E-15
1.37554E-09 5.97401E-15
1.54213E-09 5.96571E-15
1.71823E-09 5.95693E-15
1.90386E-09 5.94770E-15
2.09900E-09 5.93804E-15
2.30367E-09 5.92789E-15
2.51785E-09 5.91732E-15
2.74156E-09 5.90633E-15
2.97478E-09 5.89485E-15
3.21752E-09 5.88296E-15
3.46978E-09 5.87067E-15
3.73156E-09 5.85790E-15
4.00286E-09 5.84473E-15
4.28368E-09 5.83118E-15
4.57402E-09 5.81715E-15
4.87388E-09 5.80273E-15
5.18326E-09 5.78795E-15
5.50215E-09 5.77270E-15
5.83057E-09 5.75708E-15
6.16850E-09 5.74112E-15
6.51596E-09 5.72469E-15
6.87293E-09 5.70791E-15
7.23942E-09 5.69081E-15
7.61544E-09 5.67325E-15
1.18991E-08 5.47886E-15
1.71347E-08 5.25344E-15
2.33223E-08 4.99366E-15
3.04617E-08 4.72448E-15
3.85531E-08 4.45601E-15
4.75965E-08 4.16018E-15
5.75917E-08 3.87413E-15
6.85389E-08 3.60221E-15
8.04380E-08 3.32004E-15
9.32891E-08 3.05719E-15
1.07092E-07 2.81415E-15
1.21847E-07 2.57288E-15
1.37554E-07 2.35269E-15
1.54213E-07 2.15235E-15
1.71823E-07 1.95945E-15
1.90386E-07 1.78523E-15
2.09900E-07 1.62807E-15
2.30367E-07 1.47971E-15
2.51785E-07 1.34634E-15
2.74156E-07 1.22648E-15
2.97478E-07 1.11480E-15
3.21752E-07 1.01458E-15
3.46978E-07 9.24648E-16
3.73156E-07 8.41627E-16
4.00286E-07 7.67148E-16
4.28368E-07 7.00310E-16
4.57402E-07 6.39009E-16
4.87388E-07 5.83419E-16
5.18325E-07 5.33229E-16
5.50215E-07 4.89047E-16
5.83057E-07 4.49067E-16
6.16850E-07 4.12875E-16
6.51596E-07 3.79394E-16
6.87293E-07 3.48913E-16
7.23942E-07 3.21183E-16
7.61543E-07 2.95612E-16
1.18991E-06 1.38133E-16
1.71347E-06 7.11938E-17
2.33223E-06 3.98892E-17
3.04617E-06 2.38939E-17
3.85531E-06 1.51068E-17
4.75964E-06 9.99263E-18
5.75916E-06 6.85959E-18
6.85388E-06 4.85368E-18
8.04378E-06 3.52977E-18
9.32888E-06 2.62774E-18
1.07092E-05 1.99616E-18
1.21846E-05 1.54334E-18
1.37553E-05 1.21189E-18
1.54212E-05 9.64799E-19
1.71822E-05 7.77570E-19
1.90385E-05 6.33619E-19
2.09899E-05 5.21482E-19
2.30365E-05 4.33084E-19
2.51783E-05 3.62404E-19
2.74153E-05 3.05956E-19
2.97475E-05 2.59923E-19
3.21749E-05 2.22229E-19
3.46974E-05 1.91126E-19
3.73152E-05 1.65415E-19
4.00281E-05 1.43655E-19
4.28362E-05 1.25455E-19
4.57395E-05 1.10048E-19
4.87380E-05 9.70041E-20
5.18317E-05 8.56380E-20
5.50205E-05 7.60768E-20
5.83045E-05 6.77540E-20
6.16838E-05 6.05388E-20
6.51582E-05 5.42390E-20
6.87277E-05 4.88090E-20
7.23925E-05 4.39624E-20
7.61524E-05 3.97309E-20
9.21439E-05 2.71429E-20
1.09658E-04 1.91786E-20
1.28695E-04 1.39145E-20
1.49255E-04 1.03459E-20
1.71338E-04 7.85636E-21
1.94942E-04 6.06410E-21
2.20070E-04 4.76266E-21
2.46720E-04 3.78719E-21
2.74892E-04 3.05174E-21
3.04586E-04 2.48586E-21
3.35803E-04 2.04468E-21
3.68542E-04 1.69825E-21
4.02802E-04 1.42112E-21
4.38585E-04 1.19906E-21
4.75889E-04 1.01832E-21
5.14715E-04 8.70480E-22
5.55063E-04 7.48643E-22
5.96931E-04 6.47173E-22
6.40321E-04 5.62558E-22
6.85233E-04 4.91153E-22
7.31665E-04 4.30826E-22
7.79618E-04 3.79461E-22
8.29092E-04 3.35493E-22
8.80086E-04 2.97777E-22
9.32601E-04 2.65148E-22
9.86636E-04 2.36921E-22
1.04219E-03 2.12323E-22
1.09927E-03 1.90842E-22
1.15786E-03 1.72022E-22
1.21797E-03 1.55444E-22
1.27961E-03 1.40840E-22
1.34276E-03 1.27892E-22
1.40743E-03 1.16409E-22
1.47362E-03 1.06184E-22
1.54133E-03 9.70532E-23
1.61056E-03 8.88919E-23
1.68131E-03 8.15607E-23
1.75357E-03 7.49780E-23
1.82735E-03 6.90416E-23
1.90265E-03 6.36821E-23
1.97947E-03 5.88350E-23
2.05780E-03 5.44362E-23
2.13765E-03 5.04455E-23
2.21902E-03 4.68101E-23
2.30190E-03 4.34985E-23
2.38630E-03 4.04743E-23
2.47222E-03 3.77073E-23
2.55965E-03 3.51747E-23
2.64859E-03 3.28490E-23
2.73905E-03 3.07142E-23
2.83103E-03 2.87489E-23
2.92452E-03 2.69385E-23
3.01952E-03 2.52690E-23
3.11604E-03 2.37258E-23
3.21407E-03 2.22997E-23
3.31362E-03 2.09783E-23
3.41468E-03 1.97538E-23
3.51725E-03 1.86173E-23
3.62133E-03 1.75610E-23
3.72692E-03 1.65791E-23
3.83403E-03 1.56643E-23
3.94265E-03 1.48122E-23
4.05278E-03 1.40170E-23
4.16442E-03 1.32744E-23
4.27757E-03 1.25806E-23
4.39223E-03 1.19312E-23
4.50840E-03 1.13235E-23
4.62608E-03 1.07537E-23
4.74527E-03 1.02194E-23
4.86597E-03 9.71793E-24
4.98817E-03 9.24667E-24
5.11188E-03 8.80386E-24
5.23711E-03 8.38699E-24
5.36383E-03 7.99469E-24
5.49207E-03 7.62496E-24
5.62181E-03 7.27634E-24
5.75306E-03 6.94751E-24
5.88581E-03 6.63690E-24
6.02007E-03 6.34360E-24
6.15583E-03 6.06620E-24
6.29310E-03 5.80385E-24
6.43187E-03 5.55553E-24
6.57214E-03 5.32029E-24
6.71392E-03 5.09746E-24
6.85720E-03 4.88607E-24
7.00198E-03 4.68560E-24
7.14827E-03 4.49526E-24
7.29605E-03 4.31448E-24
7.44534E-03 4.14273E-24
7.59612E-03 3.97938E-24
7.97965E-03 3.60494E-24
8.37255E-03 3.27351E-24
8.77480E-03 2.97929E-24
9.18641E-03 2.71737E-24
9.60736E-03 2.48360E-24
1.00376E-02 2.27443E-24
1.04773E-02 2.08680E-24
1.09262E-02 1.91811E-24
1.13844E-02 1.76612E-24
1.18520E-02 1.62888E-24
1.23288E-02 1.50470E-24
1.28150E-02 1.39212E-24
1.33104E-02 1.28987E-24
1.38150E-02 1.19683E-24
1.43290E-02 1.11202E-24
1.48521E-02 1.03458E-24
1.53845E-02 9.63758E-25
1.59262E-02 8.98889E-25
1.64770E-02 8.39380E-25
1.70371E-02 7.84709E-25
1.76063E-02 7.34412E-25
1.81848E-02 6.88076E-25
1.87724E-02 6.45332E-25
1.93692E-02 6.05851E-25
1.99751E-02 5.69340E-25
2.05901E-02 5.35533E-25
2.12143E-02 5.04195E-25
2.18476E-02 4.75113E-25
2.24900E-02 4.48093E-25
2.31415E-02 4.22964E-25
2.38021E-02 3.99569E-25
2.44717E-02 3.77766E-25
2.51504E-02 3.57427E-25
2.58382E-02 3.38435E-25
2.65349E-02 3.20686E-25
2.72407E-02 3.04083E-25
2.79555E-02 2.88537E-25
2.86793E-02 2.73971E-25
2.94120E-02 2.60309E-25
3.01537E-02 2.47487E-25
3.09043E-02 2.35442E-25
3.16639E-02 2.24120E-25
3.24324E-02 2.13468E-25
3.32098E-02 2.03439E-25
3.39961E-02 1.93991E-25
3.47912E-02 1.85083E-25
3.55952E-02 1.76680E-25
3.64081E-02 1.68746E-25
3.72297E-02 1.61251E-25
3.80602E-02 1.54167E-25
3.88995E-02 1.47465E-25
3.97476E-02 1.41123E-25
4.06044E-02 1.35117E-25
4.14700E-02 1.29426E-25
4.23443E-02 1.24030E-25
4.32273E-02 1.18911E-25
4.41190E-02 1.14053E-25
4.50194E-02 1.09439E-25
4.59284E-02 1.05055E-25
4.68461E-02 1.00888E-25
4.87074E-02 9.31524E-26
5.06030E-02 8.61409E-26
5.25328E-02 7.97738E-26
5.44967E-02 7.39815E-26
5.64946E-02 6.87028E-26
5.85262E-02 6.38842E-26
6.05914E-02 5.94784E-26
6.26901E-02 5.54438E-26
6.48222E-02 5.17435E-26
6.69873E-02 4.83449E-26
6.91854E-02 4.52190E-26
7.14163E-02 4.23400E-26
7.36799E-02 3.96850E-26
7.59760E-02 3.72333E-26
7.83043E-02 3.49666E-26
8.06647E-02 3.28685E-26
8.30571E-02 3.09241E-26
8.54812E-02 2.91202E-26
8.79369E-02 2.74447E-26
9.04240E-02 2.58870E-26
9.29422E-02 2.44372E-26
9.54915E-02 2.30865E-26
9.80716E-02 2.18270E-26
1.00682E-01 2.06513E-26
1.03323E-01 1.95528E-26
1.05995E-01 1.85256E-26
1.08696E-01 1.75642E-26
1.11427E-01 1.66637E-26
1.14188E-01 1.58194E-26
1.16978E-01 1.50273E-26
1.19797E-01 1.42835E-26
1.22645E-01 1.35845E-26
1.25522E-01 1.29272E-26
1.28428E-01 1.23086E-26
1.31361E-01 1.17261E-26
1.34323E-01 1.11771E-26
1.37313E-01 1.06593E-26
1.40330E-01 1.01707E-26
1.43375E-01 9.70938E-27
1.46447E-01 9.27345E-27
1.49545E-01 8.86130E-27
1.52671E-01 8.47139E-27
1.55823E-01 8.10230E-27
1.59001E-01 7.75273E-27
1.62205E-01 7.42145E-27
1.65435E-01 7.10733E-27
1.68690E-01 6.80932E-27
1.71970E-01 6.52645E-27
1.75276E-01 6.25781E-27
1.78606E-01 6.00255E-27
1.81961E-01 5.75989E-27
1.85340E-01 5.52908E-27
1.88743E-01 5.30946E-27
1.92169E-01 5.10037E-27
1.95619E-01 4.90122E-27
1.99092E-01 4.71145E-27
2.02589E-01 4.53055E-27
2.06107E-01 4.35802E-27
2.09649E-01 4.19340E-27
2.13212E-01 4.03627E-27
2.16797E-01 3.88623E-27
2.20404E-01 3.74289E-27
2.24032E-01 3.60590E-27
2.27680E-01 3.47494E-27
2.31350E-01 3.34969E-27
2.35040E-01 3.22985E-27
2.38751E-01 3.11515E-27
2.42481E-01 3.00533E-27
2.46231E-01 2.90014E-27
2.50000E-01 2.79936E-27
2.53788E-01 2.70277E-27
2.57595E-01 2.61016E-27
2.61421E-01 2.52133E-27
2.65264E-01 2.43611E-27
2.69126E-01 2.35432E-27
2.73005E-01 2.27581E-27
2.76901E-01 2.20040E-27
2.80814E-01 2.12797E-27
2.84744E-01 2.05837E-27
2.88691E-01 1.99148E-27
2.92653E-01 1.92716E-27
2.96632E-01 1.86530E-27
3.00625E-01 1.80579E-27
3.04634E-01 1.74853E-27
3.08658E-01 1.69341E-27
3.12697E-01 1.64035E-27
3.16749E-01 1.58925E-27
3.20816E-01 1.54002E-27
3.24896E-01 1.49258E-27
3.28990E-01 1.44687E-27
3.33097E-01 1.40280E-27
3.37216E-01 1.36030E-27
3.41348E-01 1.31932E-27
3.45492E-01 1.27978E-27
3.49647E-01 1.24162E-27
3.53814E-01 1.20480E-27
3.57992E-01 1.16925E-27
3.62181E-01 1.13492E-27
3.66381E-01 1.10176E-27
3.70590E-01 1.06974E-27
3.74810E-01 1.03879E-27
3.79039E-01 1.00888E-27
3.83277E-01 9.79973E-28
3.87524E-01 9.52022E-28
3.91780E-01 9.24992E-28
3.96044E-01 8.98848E-28
4.00316E-01 8.73556E-28
4.04596E-01 8.49082E-28
4.08882E-01 8.25397E-28
4.13176E-01 8.02471E-28
4.17476E-01 7.80275E-28
4.21783E-01 7.58781E-28
4.26095E-01 7.37964E-28
4.30413E-01 7.17798E-28
4.34737E-01 6.98261E-28
4.39065E-01 6.79329E-28
4.43398E-01 6.60980E-28
4.47736E-01 6.43194E-28
4.52077E-01 6.25948E-28
4.56422E-01 6.09227E-28
4.60770E-01 5.93009E-28
4.65122E-01 5.77278E-28
4.69476E-01 5.62016E-28
4.73832E-01 5.47207E-28
4.78190E-01 5.32836E-28
4.82550E-01 5.18887E-28
4.86912E-01 5.05346E-28
4.91274E-01 4.92199E-28
4.95637E-01 4.79433E-28
5.00000E-01 4.67035E-28
5.04363E-01 4.54991E-28
5.08726E-01 4.43292E-28
5.13088E-01 4.31925E-28
5.17450E-01 4.20879E-28
5.21810E-01 4.10144E-28
5.26168E-01 3.99710E-28
5.30524E-01 3.89566E-28
5.34878E-01 3.79704E-28
5.39230E-01 3.70114E-28
5.43578E-01 3.60787E-28
5.47923E-01 3.51716E-28
5.52264E-01 3.42891E-28
5.56602E-01 3.34307E-28
5.60935E-01 3.25954E-28
5.65263E-01 3.17825E-28
5.69587E-01 3.09915E-28
5.73905E-01 3.02215E-28
5.78217E-01 2.94720E-28
5.82524E-01 2.87422E-28
5.86824E-01 2.80317E-28
5.91118E-01 2.73398E-28
5.95404E-01 2.66659E-28
5.99684E-01 2.60096E-28
6.03956E-01 2.53702E-28
6.08220E-01 2.47474E-28
6.12476E-01 2.41405E-28
6.16723E-01 2.35492E-28
6.20961E-01 2.29730E-28
6.25190E-01 2.24114E-28
6.29410E-01 2.18639E-28
6.33619E-01 2.13303E-28
6.37819E-01 2.08101E-28
6.42008E-01 2.03029E-28
6.46186E-01 1.98083E-28
6.50353E-01 1.93261E-28
6.54508E-01 1.88557E-28
6.58652E-01 1.83969E-28
6.62784E-01 1.79495E-28
6.66903E-01 1.75129E-28
6.71010E-01 1.70871E-28
6.75104E-01 1.66715E-28
6.79184E-01 1.62661E-28
6.83251E-01 1.58704E-28
6.87303E-01 1.54843E-28
6.91342E-01 1.51074E-28
6.95366E-01 1.47396E-28
6.99375E-01 1.43805E-28
7.03368E-01 1.40299E-28
7.07347E-01 1.36877E-28
7.11309E-01 1.33536E-28
7.15256E-01 1.30273E-28
7.19186E-01 1.27087E-28
7.23099E-01 1.23976E-28
7.26995E-01 1.20937E-28
7.30874E-01 1.17969E-28
7.34736E-01 1.15070E-28
7.38579E-01 1.12239E-28
7.42405E-01 1.09472E-28
7.46212E-01 1.06770E-28
7.50000E-01 1.04129E-28
7.53769E-01 1.01549E-28
7.57519E-01 9.90287E-29
7.61249E-01 9.65656E-29
7.64960E-01 9.41586E-29
7.68650E-01 9.18061E-29
7.72320E-01 8.95071E-29
7.75968E-01 8.72602E-29
7.79596E-01 8.50641E-29
7.83203E-01 8.29173E-29
7.86788E-01 8.08190E-29
7.90351E-01 7.87678E-29
7.93893E-01 7.67626E-29
7.97411E-01 7.48021E-29
8.00908E-01 7.28856E-29
8.04381E-01 7.10120E-29
8.07831E-01 6.91800E-29
8.11257E-01 6.73888E-29
8.14660E-01 6.56372E-29
8.18039E-01 6.39249E-29
8.21394E-01 6.22505E-29
8.24724E-01 6.06131E-29
8.28030E-01 5.90117E-29
8.31310E-01 5.74460E-29
8.34565E-01 5.59149E-29
8.37795E-01 5.44175E-29
8.40999E-01 5.29533E-29
8.44177E-01 5.15213E-29
8.47329E-01 5.01208E-29
8.50455E-01 4.87514E-29
8.53553E-01 4.74122E-29
8.56625E-01 4.61024E-29
8.59670E-01 4.48215E-29
8.62687E-01 4.35689E-29
8.65677E-01 4.23440E-29
8.68639E-01 4.11460E-29
8.71572E-01 3.99744E-29
8.74478E-01 3.88290E-29
8.77355E-01 3.77089E-29
8.80203E-01 3.66136E-29
8.83022E-01 3.55426E-29
8.85812E-01 3.44953E-29
8.88573E-01 3.34715E-29
8.91304E-01 3.24703E-29
8.94005E-01 3.14917E-29
8.96677E-01 3.05350E-29
8.99318E-01 2.95997E-29
9.01928E-01 2.86854E-29
9.04508E-01 2.77918E-29
9.07058E-01 2.69184E-29
9.09576E-01 2.60649E-29
9.12063E-01 2.52309E-29
9.14519E-01 2.44158E-29
9.16943E-01 2.36195E-29
9.19335E-01 2.28415E-29
9.21696E-01 2.20817E-29
9.24024E-01 2.13394E-29
9.26320E-01 2.06145E-29
9.28584E-01 1.99067E-29
9.30815E-01 1.92155E-29
9.33013E-01 1.85408E-29
9.35178E-01 1.78822E-29
9.37310E-01 1.72395E-29
9.39409E-01 1.66124E-29
9.41474E-01 1.60005E-29
9.43505E-01 1.54039E-29
9.45503E-01 1.48219E-29
9.47467E-01 1.42545E-29
9.49397E-01 1.37013E-29
9.51293E-01 1.31623E-29
9.53154E-01 1.26372E-29
9.54981E-01 1.21257E-29
9.56773E-01 1.16276E-29
9.58530E-01 1.11428E-29
9.60252E-01 1.06708E-29
9.61940E-01 1.02118E-29
9.63592E-01 9.76542E-30
9.65209E-01 9.33143E-30
9.66790E-01 8.90983E-30
9.68336E-01 8.50018E-30
9.69846E-01 8.10256E-30
9.71321E-01 7.71671E-30
9.72759E-01 7.34253E-30
9.74162E-01 6.97977E-30
9.75528E-01 6.62834E-30
9.76858E-01 6.28810E-30
9.78152E-01 5.95893E-30
9.79410E-01 5.64070E-30
9.80631E-01 5.33317E-30
9.81815E-01 5.03643E-30
9.82963E-01 4.75010E-30
9.84074E-01 4.47435E-30
9.85148E-01 4.20886E-30
9.86185E-01 3.95359E-30
9.87185E-01 3.70842E-30
9.88148E-01 3.47334E-30
9.89074E-01 3.24816E-30
9.89962E-01 3.03281E-30
9.90814E-01 2.82730E-30
9.91627E-01 2.63140E-30
9.92404E-01 2.44520E-30
9.93143E-01 2.26847E-30
9.93844E-01 2.10120E-30
9.94508E-01 1.94330E-30
9.95134E-01 1.79483E-30
9.95722E-01 1.65557E-30
9.96273E-01 1.52560E-30
9.96786E-01 1.40478E-30
9.97261E-01 1.29312E-30
9.97698E-01 1.19052E-30
9.98097E-01 1.09701E-30
9.98459E-01 1.01247E-30
9.98782E-01 9.36975E-31
9.99067E-01 8.70394E-31
9.99315E-01 8.12698E-31
9.99524E-01 7.63971E-31
9.99695E-01 7.24062E-31
9.99829E-01 6.93127E-31
9.99924E-01 6.70959E-31
9.99981E-01 6.57700E-31
1.00000E+00 6.53607E-31
