 #
 # Subroutine ELSEPA. Elastic scattering of electrons and positrons
 #                    by neutral atoms and positive ions
 #
 # Projectile: electron
 # Kinetic energy = 2.00000E+07 eV = 7.34987E+05 a.u.
 #
 # WARNING: High-energy factorization with free-atom DF screening.
 #          Absorption, polarization and exchange corrections are
 #          switched off.
 #          Phase shifts are calculated for the bare nucleus.
 #          Scattering amplitudes are not evaluated.
 #
 # Element: He,  Z =   2,  atomic weight = 4.00260E+00 g/mol
 #
 # Nuclear model: Fermi distribution
 #                Average radius = 1.69889E-13 cm
 #                Skin thickness = 5.46000E-14 cm
 #
 # Number of electrons =  2
 #
 # Total elastic cross section = 1.64756E-20 cm**2 = 5.88355E-04 a0**2
 # 1st transport cross section = 1.90397E-26 cm**2 = 6.79921E-10 a0**2
 # 2nd transport cross section = 5.52823E-26 cm**2 = 1.97417E-09 a0**2
 #
 #
 # Differential cross section:                       MU=(1-COS(THETA))/2
 #
 #  THETA        MU          DCS          DCS        Sherman      error
 #  (deg)                 (cm**2/sr)   (a0**2/sr)    function
 #----------------------------------------------------------------------
0.00000E+00 2.81058E-14
7.61557E-13 2.81050E-14
1.18994E-12 2.81045E-14
1.71346E-12 2.81039E-14
2.33225E-12 2.81033E-14
3.04617E-12 2.81025E-14
3.85530E-12 2.81016E-14
4.75964E-12 2.81006E-14
5.75917E-12 2.80995E-14
6.85391E-12 2.80983E-14
8.04379E-12 2.80970E-14
9.32893E-12 2.80955E-14
1.07092E-11 2.80940E-14
1.21847E-11 2.80924E-14
1.37554E-11 2.80907E-14
1.54213E-11 2.80888E-14
1.71823E-11 2.80869E-14
1.90386E-11 2.80848E-14
2.09900E-11 2.80827E-14
2.30367E-11 2.80804E-14
2.51785E-11 2.80781E-14
2.74156E-11 2.80756E-14
2.97478E-11 2.80731E-14
3.21752E-11 2.80704E-14
3.46979E-11 2.80676E-14
3.73157E-11 2.80647E-14
4.00286E-11 2.80618E-14
4.28368E-11 2.80587E-14
4.57402E-11 2.80555E-14
4.87388E-11 2.80522E-14
5.18325E-11 2.80488E-14
5.50215E-11 2.80453E-14
5.83057E-11 2.80417E-14
6.16850E-11 2.80380E-14
6.51595E-11 2.80342E-14
6.87293E-11 2.80302E-14
7.23943E-11 2.80262E-14
7.61544E-11 2.80221E-14
1.18991E-10 2.79752E-14
1.71347E-10 2.79180E-14
2.33223E-10 2.78507E-14
3.04617E-10 2.77732E-14
3.85531E-10 2.76859E-14
4.75965E-10 2.75886E-14
5.75917E-10 2.74817E-14
6.85389E-10 2.73652E-14
8.04380E-10 2.72395E-14
9.32891E-10 2.71046E-14
1.07092E-09 2.69606E-14
1.21847E-09 2.68081E-14
1.37554E-09 2.66467E-14
1.54213E-09 2.64775E-14
1.71823E-09 2.62997E-14
1.90386E-09 2.61145E-14
2.09900E-09 2.59215E-14
2.30367E-09 2.57214E-14
2.51785E-09 2.55143E-14
2.74156E-09 2.53003E-14
2.97478E-09 2.50803E-14
3.21752E-09 2.48534E-14
3.46978E-09 2.46214E-14
3.73156E-09 2.43756E-14
4.00286E-09 2.41075E-14
4.28368E-09 2.38436E-14
4.57402E-09 2.35844E-14
4.87388E-09 2.33300E-14
5.18326E-09 2.30808E-14
5.50215E-09 2.28370E-14
5.83057E-09 2.25768E-14
6.16850E-09 2.22784E-14
6.51596E-09 2.19877E-14
6.87293E-09 2.17048E-14
7.23942E-09 2.14297E-14
7.61544E-09 2.11623E-14
1.18991E-08 1.83021E-14
1.71347E-08 1.54961E-14
2.33223E-08 1.29509E-14
3.04617E-08 1.06736E-14
3.85531E-08 8.76967E-15
4.75965E-08 7.15127E-15
5.75917E-08 5.83751E-15
6.85389E-08 4.75995E-15
8.04380E-08 3.89013E-15
9.32891E-08 3.18907E-15
1.07092E-07 2.61982E-15
1.21847E-07 2.17197E-15
1.37554E-07 1.80876E-15
1.54213E-07 1.51090E-15
1.71823E-07 1.26463E-15
1.90386E-07 1.06412E-15
2.09900E-07 9.01018E-16
2.30367E-07 7.67936E-16
2.51785E-07 6.58126E-16
2.74156E-07 5.66287E-16
2.97478E-07 4.89028E-16
3.21752E-07 4.23676E-16
3.46978E-07 3.68605E-16
3.73156E-07 3.21949E-16
4.00286E-07 2.82485E-16
4.28368E-07 2.49023E-16
4.57402E-07 2.20119E-16
4.87388E-07 1.95015E-16
5.18325E-07 1.73436E-16
5.50215E-07 1.54702E-16
5.83057E-07 1.38425E-16
6.16850E-07 1.24259E-16
6.51596E-07 1.11750E-16
6.87293E-07 1.00781E-16
7.23942E-07 9.11239E-17
7.61543E-07 8.25447E-17
1.18991E-06 3.43754E-17
1.71347E-06 1.66479E-17
2.33223E-06 9.00917E-18
3.04617E-06 5.28982E-18
3.85531E-06 3.30620E-18
4.75964E-06 2.17099E-18
5.75916E-06 1.48372E-18
6.85388E-06 1.04810E-18
8.04378E-06 7.61224E-19
9.32888E-06 5.66111E-19
1.07092E-05 4.29687E-19
1.21846E-05 3.31989E-19
1.37553E-05 2.60543E-19
1.54212E-05 2.07323E-19
1.71822E-05 1.67022E-19
1.90385E-05 1.36055E-19
2.09899E-05 1.11943E-19
2.30365E-05 9.29436E-20
2.51783E-05 7.77562E-20
2.74153E-05 6.56334E-20
2.97475E-05 5.57488E-20
3.21749E-05 4.76568E-20
3.46974E-05 4.09812E-20
3.73152E-05 3.54649E-20
4.00281E-05 3.07954E-20
4.28362E-05 2.68912E-20
4.57395E-05 2.35865E-20
4.87380E-05 2.07896E-20
5.18317E-05 1.83514E-20
5.50205E-05 1.63019E-20
5.83045E-05 1.45175E-20
6.16838E-05 1.29708E-20
6.51582E-05 1.16203E-20
6.87277E-05 1.04568E-20
7.23925E-05 9.41786E-21
7.61524E-05 8.51101E-21
9.21439E-05 5.81365E-21
1.09658E-04 4.10743E-21
1.28695E-04 2.97971E-21
1.49255E-04 2.21536E-21
1.71338E-04 1.68222E-21
1.94942E-04 1.29836E-21
2.20070E-04 1.01971E-21
2.46720E-04 8.10811E-22
2.74892E-04 6.53345E-22
3.04586E-04 5.32183E-22
3.35803E-04 4.37723E-22
3.68542E-04 3.63556E-22
4.02802E-04 3.04221E-22
4.38585E-04 2.56684E-22
4.75889E-04 2.17987E-22
5.14715E-04 1.86338E-22
5.55063E-04 1.60256E-22
5.96931E-04 1.38533E-22
6.40321E-04 1.20420E-22
6.85233E-04 1.05134E-22
7.31665E-04 9.22195E-23
7.79618E-04 8.12240E-23
8.29092E-04 7.18120E-23
8.80086E-04 6.37387E-23
9.32601E-04 5.67538E-23
9.86636E-04 5.07118E-23
1.04219E-03 4.54462E-23
1.09927E-03 4.08481E-23
1.15786E-03 3.68197E-23
1.21797E-03 3.32710E-23
1.27961E-03 3.01450E-23
1.34276E-03 2.73733E-23
1.40743E-03 2.49155E-23
1.47362E-03 2.27270E-23
1.54133E-03 2.07724E-23
1.61056E-03 1.90255E-23
1.68131E-03 1.74563E-23
1.75357E-03 1.60473E-23
1.82735E-03 1.47767E-23
1.90265E-03 1.36295E-23
1.97947E-03 1.25920E-23
2.05780E-03 1.16505E-23
2.13765E-03 1.07964E-23
2.21902E-03 1.00182E-23
2.30190E-03 9.30944E-24
2.38630E-03 8.66214E-24
2.47222E-03 8.06989E-24
2.55965E-03 7.52784E-24
2.64859E-03 7.03005E-24
2.73905E-03 6.57313E-24
2.83103E-03 6.15251E-24
2.92452E-03 5.76502E-24
3.01952E-03 5.40770E-24
3.11604E-03 5.07740E-24
3.21407E-03 4.77219E-24
3.31362E-03 4.48935E-24
3.41468E-03 4.22728E-24
3.51725E-03 3.98404E-24
3.62133E-03 3.75796E-24
3.72692E-03 3.54783E-24
3.83403E-03 3.35203E-24
3.94265E-03 3.16967E-24
4.05278E-03 2.99947E-24
4.16442E-03 2.84055E-24
4.27757E-03 2.69206E-24
4.39223E-03 2.55307E-24
4.50840E-03 2.42301E-24
4.62608E-03 2.30106E-24
4.74527E-03 2.18673E-24
4.86597E-03 2.07940E-24
4.98817E-03 1.97854E-24
5.11188E-03 1.88378E-24
5.23711E-03 1.79456E-24
5.36383E-03 1.71061E-24
5.49207E-03 1.63148E-24
5.62181E-03 1.55687E-24
5.75306E-03 1.48650E-24
5.88581E-03 1.42003E-24
6.02007E-03 1.35726E-24
6.15583E-03 1.29790E-24
6.29310E-03 1.24175E-24
6.43187E-03 1.18861E-24
6.57214E-03 1.13827E-24
6.71392E-03 1.09059E-24
6.85720E-03 1.04535E-24
7.00198E-03 1.00245E-24
7.14827E-03 9.61716E-25
7.29605E-03 9.23031E-25
7.44534E-03 8.86278E-25
7.59612E-03 8.51322E-25
7.97965E-03 7.71197E-25
8.37255E-03 7.00274E-25
8.77480E-03 6.37315E-25
9.18641E-03 5.81271E-25
9.60736E-03 5.31249E-25
1.00376E-02 4.86491E-25
1.04773E-02 4.46344E-25
1.09262E-02 4.10251E-25
1.13844E-02 3.77730E-25
1.18520E-02 3.48366E-25
1.23288E-02 3.21797E-25
1.28150E-02 2.97711E-25
1.33104E-02 2.75834E-25
1.38150E-02 2.55928E-25
1.43290E-02 2.37783E-25
1.48521E-02 2.21217E-25
1.53845E-02 2.06066E-25
1.59262E-02 1.92188E-25
1.64770E-02 1.79458E-25
1.70371E-02 1.67763E-25
1.76063E-02 1.57003E-25
1.81848E-02 1.47091E-25
1.87724E-02 1.37948E-25
1.93692E-02 1.29503E-25
1.99751E-02 1.21694E-25
2.05901E-02 1.14463E-25
2.12143E-02 1.07760E-25
2.18476E-02 1.01540E-25
2.24900E-02 9.57607E-26
2.31415E-02 9.03863E-26
2.38021E-02 8.53827E-26
2.44717E-02 8.07199E-26
2.51504E-02 7.63702E-26
2.58382E-02 7.23089E-26
2.65349E-02 6.85133E-26
2.72407E-02 6.49627E-26
2.79555E-02 6.16386E-26
2.86793E-02 5.85238E-26
2.94120E-02 5.56027E-26
3.01537E-02 5.28610E-26
3.09043E-02 5.02857E-26
3.16639E-02 4.78648E-26
3.24324E-02 4.55874E-26
3.32098E-02 4.34434E-26
3.39961E-02 4.14235E-26
3.47912E-02 3.95192E-26
3.55952E-02 3.77227E-26
3.64081E-02 3.60267E-26
3.72297E-02 3.44246E-26
3.80602E-02 3.29102E-26
3.88995E-02 3.14778E-26
3.97476E-02 3.01222E-26
4.06044E-02 2.88385E-26
4.14700E-02 2.76221E-26
4.23443E-02 2.64689E-26
4.32273E-02 2.53749E-26
4.41190E-02 2.43366E-26
4.50194E-02 2.33507E-26
4.59284E-02 2.24139E-26
4.68461E-02 2.15233E-26
4.87074E-02 1.98704E-26
5.06030E-02 1.83723E-26
5.25328E-02 1.70120E-26
5.44967E-02 1.57746E-26
5.64946E-02 1.46470E-26
5.85262E-02 1.36177E-26
6.05914E-02 1.26767E-26
6.26901E-02 1.18150E-26
6.48222E-02 1.10248E-26
6.69873E-02 1.02991E-26
6.91854E-02 9.63171E-27
7.14163E-02 9.01706E-27
7.36799E-02 8.45026E-27
7.59760E-02 7.92692E-27
7.83043E-02 7.44312E-27
8.06647E-02 6.99533E-27
8.30571E-02 6.58040E-27
8.54812E-02 6.19547E-27
8.79369E-02 5.83800E-27
9.04240E-02 5.50567E-27
9.29422E-02 5.19640E-27
9.54915E-02 4.90830E-27
9.80716E-02 4.63966E-27
1.00682E-01 4.38893E-27
1.03323E-01 4.15470E-27
1.05995E-01 3.93569E-27
1.08696E-01 3.73073E-27
1.11427E-01 3.53876E-27
1.14188E-01 3.35881E-27
1.16978E-01 3.18999E-27
1.19797E-01 3.03149E-27
1.22645E-01 2.88256E-27
1.25522E-01 2.74252E-27
1.28428E-01 2.61075E-27
1.31361E-01 2.48667E-27
1.34323E-01 2.36974E-27
1.37313E-01 2.25949E-27
1.40330E-01 2.15546E-27
1.43375E-01 2.05724E-27
1.46447E-01 1.96445E-27
1.49545E-01 1.87672E-27
1.52671E-01 1.79375E-27
1.55823E-01 1.71521E-27
1.59001E-01 1.64084E-27
1.62205E-01 1.57036E-27
1.65435E-01 1.50355E-27
1.68690E-01 1.44017E-27
1.71970E-01 1.38002E-27
1.75276E-01 1.32290E-27
1.78606E-01 1.26864E-27
1.81961E-01 1.21706E-27
1.85340E-01 1.16801E-27
1.88743E-01 1.12134E-27
1.92169E-01 1.07692E-27
1.95619E-01 1.03462E-27
1.99092E-01 9.94310E-28
2.02589E-01 9.55893E-28
2.06107E-01 9.19259E-28
2.09649E-01 8.84311E-28
2.13212E-01 8.50958E-28
2.16797E-01 8.19114E-28
2.20404E-01 7.88698E-28
2.24032E-01 7.59635E-28
2.27680E-01 7.31854E-28
2.31350E-01 7.05289E-28
2.35040E-01 6.79876E-28
2.38751E-01 6.55558E-28
2.42481E-01 6.32277E-28
2.46231E-01 6.09983E-28
2.50000E-01 5.88627E-28
2.53788E-01 5.68160E-28
2.57595E-01 5.48541E-28
2.61421E-01 5.29728E-28
2.65264E-01 5.11682E-28
2.69126E-01 4.94365E-28
2.73005E-01 4.77744E-28
2.76901E-01 4.61786E-28
2.80814E-01 4.46459E-28
2.84744E-01 4.31734E-28
2.88691E-01 4.17583E-28
2.92653E-01 4.03980E-28
2.96632E-01 3.90901E-28
3.00625E-01 3.78321E-28
3.04634E-01 3.66218E-28
3.08658E-01 3.54570E-28
3.12697E-01 3.43359E-28
3.16749E-01 3.32564E-28
3.20816E-01 3.22167E-28
3.24896E-01 3.12151E-28
3.28990E-01 3.02500E-28
3.33097E-01 2.93199E-28
3.37216E-01 2.84231E-28
3.41348E-01 2.75584E-28
3.45492E-01 2.67244E-28
3.49647E-01 2.59198E-28
3.53814E-01 2.51433E-28
3.57992E-01 2.43940E-28
3.62181E-01 2.36705E-28
3.66381E-01 2.29720E-28
3.70590E-01 2.22973E-28
3.74810E-01 2.16455E-28
3.79039E-01 2.10158E-28
3.83277E-01 2.04072E-28
3.87524E-01 1.98189E-28
3.91780E-01 1.92502E-28
3.96044E-01 1.87002E-28
4.00316E-01 1.81682E-28
4.04596E-01 1.76536E-28
4.08882E-01 1.71557E-28
4.13176E-01 1.66739E-28
4.17476E-01 1.62075E-28
4.21783E-01 1.57560E-28
4.26095E-01 1.53188E-28
4.30413E-01 1.48954E-28
4.34737E-01 1.44853E-28
4.39065E-01 1.40880E-28
4.43398E-01 1.37030E-28
4.47736E-01 1.33300E-28
4.52077E-01 1.29683E-28
4.56422E-01 1.26178E-28
4.60770E-01 1.22778E-28
4.65122E-01 1.19482E-28
4.69476E-01 1.16285E-28
4.73832E-01 1.13184E-28
4.78190E-01 1.10175E-28
4.82550E-01 1.07255E-28
4.86912E-01 1.04421E-28
4.91274E-01 1.01671E-28
4.95637E-01 9.90009E-29
5.00000E-01 9.64084E-29
5.04363E-01 9.38909E-29
5.08726E-01 9.14460E-29
5.13088E-01 8.90712E-29
5.17450E-01 8.67641E-29
5.21810E-01 8.45226E-29
5.26168E-01 8.23444E-29
5.30524E-01 8.02275E-29
5.34878E-01 7.81699E-29
5.39230E-01 7.61697E-29
5.43578E-01 7.42250E-29
5.47923E-01 7.23341E-29
5.52264E-01 7.04952E-29
5.56602E-01 6.87068E-29
5.60935E-01 6.69671E-29
5.65263E-01 6.52747E-29
5.69587E-01 6.36281E-29
5.73905E-01 6.20259E-29
5.78217E-01 6.04667E-29
5.82524E-01 5.89491E-29
5.86824E-01 5.74719E-29
5.91118E-01 5.60339E-29
5.95404E-01 5.46339E-29
5.99684E-01 5.32706E-29
6.03956E-01 5.19430E-29
6.08220E-01 5.06501E-29
6.12476E-01 4.93908E-29
6.16723E-01 4.81641E-29
6.20961E-01 4.69690E-29
6.25190E-01 4.58046E-29
6.29410E-01 4.46700E-29
6.33619E-01 4.35644E-29
6.37819E-01 4.24869E-29
6.42008E-01 4.14366E-29
6.46186E-01 4.04129E-29
6.50353E-01 3.94149E-29
6.54508E-01 3.84419E-29
6.58652E-01 3.74932E-29
6.62784E-01 3.65681E-29
6.66903E-01 3.56659E-29
6.71010E-01 3.47861E-29
6.75104E-01 3.39279E-29
6.79184E-01 3.30908E-29
6.83251E-01 3.22741E-29
6.87303E-01 3.14774E-29
6.91342E-01 3.07001E-29
6.95366E-01 2.99416E-29
6.99375E-01 2.92014E-29
7.03368E-01 2.84791E-29
7.07347E-01 2.77742E-29
7.11309E-01 2.70861E-29
7.15256E-01 2.64145E-29
7.19186E-01 2.57588E-29
7.23099E-01 2.51187E-29
7.26995E-01 2.44938E-29
7.30874E-01 2.38837E-29
7.34736E-01 2.32879E-29
7.38579E-01 2.27062E-29
7.42405E-01 2.21381E-29
7.46212E-01 2.15833E-29
7.50000E-01 2.10413E-29
7.53769E-01 2.05121E-29
7.57519E-01 1.99951E-29
7.61249E-01 1.94901E-29
7.64960E-01 1.89967E-29
7.68650E-01 1.85147E-29
7.72320E-01 1.80439E-29
7.75968E-01 1.75838E-29
7.79596E-01 1.71343E-29
7.83203E-01 1.66951E-29
7.86788E-01 1.62659E-29
7.90351E-01 1.58464E-29
7.93893E-01 1.54366E-29
7.97411E-01 1.50360E-29
8.00908E-01 1.46445E-29
8.04381E-01 1.42619E-29
8.07831E-01 1.38880E-29
8.11257E-01 1.35225E-29
8.14660E-01 1.31652E-29
8.18039E-01 1.28160E-29
8.21394E-01 1.24746E-29
8.24724E-01 1.21410E-29
8.28030E-01 1.18147E-29
8.31310E-01 1.14959E-29
8.34565E-01 1.11842E-29
8.37795E-01 1.08795E-29
8.40999E-01 1.05816E-29
8.44177E-01 1.02903E-29
8.47329E-01 1.00056E-29
8.50455E-01 9.72728E-30
8.53553E-01 9.45518E-30
8.56625E-01 9.18914E-30
8.59670E-01 8.92907E-30
8.62687E-01 8.67481E-30
8.65677E-01 8.42627E-30
8.68639E-01 8.18325E-30
8.71572E-01 7.94567E-30
8.74478E-01 7.71348E-30
8.77355E-01 7.48648E-30
8.80203E-01 7.26460E-30
8.83022E-01 7.04770E-30
8.85812E-01 6.83566E-30
8.88573E-01 6.62843E-30
8.91304E-01 6.42586E-30
8.94005E-01 6.22791E-30
8.96677E-01 6.03446E-30
8.99318E-01 5.84537E-30
9.01928E-01 5.66061E-30
9.04508E-01 5.48008E-30
9.07058E-01 5.30367E-30
9.09576E-01 5.13134E-30
9.12063E-01 4.96299E-30
9.14519E-01 4.79853E-30
9.16943E-01 4.63788E-30
9.19335E-01 4.48098E-30
9.21696E-01 4.32778E-30
9.24024E-01 4.17816E-30
9.26320E-01 4.03208E-30
9.28584E-01 3.88950E-30
9.30815E-01 3.75030E-30
9.33013E-01 3.61445E-30
9.35178E-01 3.48189E-30
9.37310E-01 3.35254E-30
9.39409E-01 3.22638E-30
9.41474E-01 3.10332E-30
9.43505E-01 2.98335E-30
9.45503E-01 2.86635E-30
9.47467E-01 2.75231E-30
9.49397E-01 2.64117E-30
9.51293E-01 2.53289E-30
9.53154E-01 2.42744E-30
9.54981E-01 2.32473E-30
9.56773E-01 2.22475E-30
9.58530E-01 2.12744E-30
9.60252E-01 2.03274E-30
9.61940E-01 1.94065E-30
9.63592E-01 1.85113E-30
9.65209E-01 1.76410E-30
9.66790E-01 1.67958E-30
9.68336E-01 1.59748E-30
9.69846E-01 1.51779E-30
9.71321E-01 1.44048E-30
9.72759E-01 1.36553E-30
9.74162E-01 1.29288E-30
9.75528E-01 1.22250E-30
9.76858E-01 1.15438E-30
9.78152E-01 1.08849E-30
9.79410E-01 1.02480E-30
9.80631E-01 9.63261E-31
9.81815E-01 9.03889E-31
9.82963E-01 8.46612E-31
9.84074E-01 7.91458E-31
9.85148E-01 7.38363E-31
9.86185E-01 6.87323E-31
9.87185E-01 6.38307E-31
9.88148E-01 5.91312E-31
9.89074E-01 5.46303E-31
9.89962E-01 5.03269E-31
9.90814E-01 4.62200E-31
9.91627E-01 4.23056E-31
9.92404E-01 3.85857E-31
9.93143E-01 3.50554E-31
9.93844E-01 3.17146E-31
9.94508E-01 2.85609E-31
9.95134E-01 2.55957E-31
9.95722E-01 2.28150E-31
9.96273E-01 2.02197E-31
9.96786E-01 1.78074E-31
9.97261E-01 1.55781E-31
9.97698E-01 1.35299E-31
9.98097E-01 1.16633E-31
9.98459E-01 9.97576E-32
9.98782E-01 8.46872E-32
9.99067E-01 7.13976E-32
9.99315E-01 5.98893E-32
9.99524E-01 5.01597E-32
9.99695E-01 4.21999E-32
9.99829E-01 3.60227E-32
9.99924E-01 3.16015E-32
9.99981E-01 2.89545E-32
1.00000E+00 2.81056E-32
