 #
 # Subroutine ELSEPA. Elastic scattering of electrons and positrons
 #                    by neutral atoms and positive ions
 #
 # Projectile: electron
 # Kinetic energy = 1.75000E+08 eV = 6.43113E+06 a.u.
 #
 # WARNING: High-energy factorization with free-atom DF screening.
 #          Absorption, polarization and exchange corrections are
 #          switched off.
 #          Phase shifts are calculated for the bare nucleus.
 #          Scattering amplitudes are not evaluated.
 #
 # Element: He,  Z =   2,  atomic weight = 4.00260E+00 g/mol
 #
 # Nuclear model: Fermi distribution
 #                Average radius = 1.69889E-13 cm
 #                Skin thickness = 5.46000E-14 cm
 #
 # Number of electrons =  2
 #
 # Total elastic cross section = 1.64694E-20 cm**2 = 5.88132E-04 a0**2
 # 1st transport cross section = 3.06427E-28 cm**2 = 1.09427E-11 a0**2
 # 2nd transport cross section = 9.12205E-28 cm**2 = 3.25754E-11 a0**2
 #
 #
 # Differential cross section:                       MU=(1-COS(THETA))/2
 #
 #  THETA        MU          DCS          DCS        Sherman      error
 #  (deg)                 (cm**2/sr)   (a0**2/sr)    function
 #----------------------------------------------------------------------
0.00000E+00 2.05794E-12
7.61557E-13 2.05344E-12
1.18994E-12 2.05092E-12
1.71346E-12 2.04784E-12
2.33225E-12 2.04422E-12
3.04617E-12 2.04005E-12
3.85530E-12 2.03534E-12
4.75964E-12 2.03009E-12
5.75917E-12 2.02431E-12
6.85391E-12 2.01800E-12
8.04379E-12 2.01119E-12
9.32893E-12 2.00385E-12
1.07092E-11 1.99602E-12
1.21847E-11 1.98770E-12
1.37554E-11 1.97890E-12
1.54213E-11 1.96960E-12
1.71823E-11 1.95985E-12
1.90386E-11 1.94965E-12
2.09900E-11 1.93902E-12
2.30367E-11 1.92793E-12
2.51785E-11 1.91642E-12
2.74156E-11 1.90452E-12
2.97478E-11 1.89222E-12
3.21752E-11 1.87954E-12
3.46979E-11 1.86646E-12
3.73157E-11 1.85303E-12
4.00286E-11 1.83927E-12
4.28368E-11 1.82519E-12
4.57402E-11 1.81075E-12
4.87388E-11 1.79601E-12
5.18325E-11 1.77993E-12
5.50215E-11 1.76317E-12
5.83057E-11 1.74664E-12
6.16850E-11 1.73036E-12
6.51595E-11 1.71434E-12
6.87293E-11 1.69859E-12
7.23943E-11 1.68312E-12
7.61544E-11 1.66795E-12
1.18991E-10 1.49182E-12
1.71347E-10 1.31051E-12
2.33223E-10 1.13623E-12
3.04617E-10 9.75294E-13
3.85531E-10 8.29189E-13
4.75965E-10 7.00018E-13
5.75917E-10 5.89472E-13
6.85389E-10 4.95777E-13
8.04380E-10 4.16657E-13
9.32891E-10 3.49721E-13
1.07092E-09 2.94105E-13
1.21847E-09 2.47958E-13
1.37554E-09 2.09691E-13
1.54213E-09 1.77416E-13
1.71823E-09 1.51463E-13
1.90386E-09 1.29620E-13
2.09900E-09 1.11116E-13
2.30367E-09 9.54053E-14
2.51785E-09 8.21857E-14
2.74156E-09 7.11230E-14
2.97478E-09 6.18546E-14
3.21752E-09 5.40382E-14
3.46978E-09 4.73807E-14
3.73156E-09 4.16683E-14
4.00286E-09 3.67388E-14
4.28368E-09 3.24737E-14
4.57402E-09 2.87805E-14
4.87388E-09 2.55858E-14
5.18326E-09 2.28148E-14
5.50215E-09 2.04136E-14
5.83057E-09 1.83275E-14
6.16850E-09 1.64905E-14
6.51596E-09 1.48539E-14
6.87293E-09 1.34180E-14
7.23942E-09 1.21528E-14
7.61544E-09 1.10278E-14
1.18991E-08 4.64086E-15
1.71347E-08 2.26281E-15
2.33223E-08 1.22566E-15
3.04617E-08 7.20086E-16
3.85531E-08 4.50244E-16
4.75965E-08 2.95733E-16
5.75917E-08 2.02156E-16
6.85389E-08 1.42825E-16
8.04380E-08 1.03745E-16
9.32891E-08 7.71608E-17
1.07092E-07 5.85706E-17
1.21847E-07 4.52559E-17
1.37554E-07 3.55183E-17
1.54213E-07 2.82641E-17
1.71823E-07 2.27707E-17
1.90386E-07 1.85493E-17
2.09900E-07 1.52622E-17
2.30367E-07 1.26720E-17
2.51785E-07 1.06087E-17
2.74156E-07 8.94872E-18
2.97478E-07 7.60106E-18
3.21752E-07 6.49780E-18
3.46978E-07 5.58762E-18
3.73156E-07 4.83137E-18
4.00286E-07 4.19883E-18
4.28368E-07 3.66650E-18
4.57402E-07 3.21592E-18
4.87388E-07 2.83247E-18
5.18325E-07 2.50451E-18
5.50215E-07 2.22266E-18
5.83057E-07 1.97937E-18
6.16850E-07 1.76848E-18
6.51596E-07 1.58494E-18
6.87293E-07 1.42460E-18
7.23942E-07 1.28403E-18
7.61543E-07 1.16038E-18
1.18991E-06 4.75349E-19
1.71347E-06 2.29254E-19
2.33223E-06 1.23751E-19
3.04617E-06 7.25431E-20
3.85531E-06 4.52895E-20
4.75964E-06 2.97151E-20
5.75916E-06 2.02962E-20
6.85388E-06 1.43307E-20
8.04378E-06 1.04046E-20
9.32888E-06 7.73559E-21
1.07092E-05 5.87012E-21
1.21846E-05 4.53459E-21
1.37553E-05 3.55818E-21
1.54212E-05 2.83099E-21
1.71822E-05 2.28045E-21
1.90385E-05 1.85746E-21
2.09899E-05 1.52816E-21
2.30365E-05 1.26870E-21
2.51783E-05 1.06131E-21
2.74153E-05 8.95811E-22
2.97475E-05 7.60863E-22
3.21749E-05 6.50397E-22
3.46974E-05 5.59271E-22
3.73152E-05 4.83984E-22
4.00281E-05 4.20238E-22
4.28362E-05 3.66951E-22
4.57395E-05 3.21849E-22
4.87380E-05 2.83683E-22
5.18317E-05 2.50397E-22
5.50205E-05 2.22433E-22
5.83045E-05 1.98083E-22
6.16838E-05 1.76976E-22
6.51582E-05 1.58547E-22
6.87277E-05 1.42674E-22
7.23925E-05 1.28494E-22
7.61524E-05 1.16120E-22
9.21439E-05 7.93156E-23
1.09658E-04 5.59991E-23
1.28695E-04 4.06177E-23
1.49255E-04 3.01942E-23
1.71338E-04 2.29246E-23
1.94942E-04 1.76905E-23
2.20070E-04 1.38917E-23
2.46720E-04 1.10438E-23
2.74892E-04 8.89745E-24
3.04586E-04 7.24607E-24
3.35803E-04 5.95871E-24
3.68542E-04 4.94810E-24
4.02802E-04 4.13961E-24
4.38585E-04 3.49199E-24
4.75889E-04 2.96486E-24
5.14715E-04 2.53377E-24
5.55063E-04 2.17858E-24
5.96931E-04 1.88276E-24
6.40321E-04 1.63616E-24
6.85233E-04 1.42806E-24
7.31665E-04 1.25229E-24
7.79618E-04 1.10265E-24
8.29092E-04 9.74575E-25
8.80086E-04 8.64739E-25
9.32601E-04 7.69722E-25
9.86636E-04 6.87550E-25
1.04219E-03 6.15946E-25
1.09927E-03 5.53430E-25
1.15786E-03 4.98671E-25
1.21797E-03 4.50440E-25
1.27961E-03 4.07964E-25
1.34276E-03 3.70309E-25
1.40743E-03 3.36925E-25
1.47362E-03 3.07204E-25
1.54133E-03 2.80667E-25
1.61056E-03 2.56954E-25
1.68131E-03 2.35657E-25
1.75357E-03 2.16540E-25
1.82735E-03 1.99303E-25
1.90265E-03 1.83744E-25
1.97947E-03 1.69677E-25
2.05780E-03 1.56914E-25
2.13765E-03 1.45338E-25
2.21902E-03 1.34796E-25
2.30190E-03 1.25195E-25
2.38630E-03 1.16429E-25
2.47222E-03 1.08411E-25
2.55965E-03 1.01074E-25
2.64859E-03 9.43387E-26
2.73905E-03 8.81580E-26
2.83103E-03 8.24697E-26
2.92452E-03 7.72312E-26
3.01952E-03 7.24019E-26
3.11604E-03 6.79389E-26
3.21407E-03 6.38165E-26
3.31362E-03 5.99973E-26
3.41468E-03 5.64597E-26
3.51725E-03 5.31773E-26
3.62133E-03 5.01274E-26
3.72692E-03 4.72937E-26
3.83403E-03 4.46540E-26
3.94265E-03 4.21964E-26
4.05278E-03 3.99035E-26
4.16442E-03 3.77633E-26
4.27757E-03 3.57643E-26
4.39223E-03 3.38937E-26
4.50840E-03 3.21441E-26
4.62608E-03 3.05041E-26
4.74527E-03 2.89671E-26
4.86597E-03 2.75248E-26
4.98817E-03 2.61701E-26
5.11188E-03 2.48976E-26
5.23711E-03 2.37001E-26
5.36383E-03 2.25737E-26
5.49207E-03 2.15125E-26
5.62181E-03 2.05123E-26
5.75306E-03 1.95693E-26
5.88581E-03 1.86789E-26
6.02007E-03 1.78385E-26
6.15583E-03 1.70440E-26
6.29310E-03 1.62929E-26
6.43187E-03 1.55823E-26
6.57214E-03 1.49095E-26
6.71392E-03 1.42724E-26
6.85720E-03 1.36683E-26
7.00198E-03 1.30957E-26
7.14827E-03 1.25522E-26
7.29605E-03 1.20363E-26
7.44534E-03 1.15465E-26
7.59612E-03 1.10808E-26
7.97965E-03 1.00141E-26
8.37255E-03 9.07122E-27
8.77480E-03 8.23524E-27
9.18641E-03 7.49203E-27
9.60736E-03 6.82957E-27
1.00376E-02 6.23762E-27
1.04773E-02 5.70741E-27
1.09262E-02 5.23141E-27
1.13844E-02 4.80315E-27
1.18520E-02 4.41704E-27
1.23288E-02 4.06822E-27
1.28150E-02 3.75248E-27
1.33104E-02 3.46616E-27
1.38150E-02 3.20606E-27
1.43290E-02 2.96937E-27
1.48521E-02 2.75362E-27
1.53845E-02 2.55665E-27
1.59262E-02 2.37656E-27
1.64770E-02 2.21164E-27
1.70371E-02 2.06041E-27
1.76063E-02 1.92154E-27
1.81848E-02 1.79386E-27
1.87724E-02 1.67630E-27
1.93692E-02 1.56793E-27
1.99751E-02 1.46791E-27
2.05901E-02 1.37549E-27
2.12143E-02 1.29000E-27
2.18476E-02 1.21083E-27
2.24900E-02 1.13743E-27
2.31415E-02 1.06932E-27
2.38021E-02 1.00605E-27
2.44717E-02 9.47216E-28
2.51504E-02 8.92460E-28
2.58382E-02 8.41451E-28
2.65349E-02 7.93891E-28
2.72407E-02 7.49508E-28
2.79555E-02 7.08056E-28
2.86793E-02 6.69308E-28
2.94120E-02 6.33060E-28
3.01537E-02 5.99124E-28
3.09043E-02 5.67329E-28
3.16639E-02 5.37518E-28
3.24324E-02 5.09547E-28
3.32098E-02 4.83285E-28
3.39961E-02 4.58610E-28
3.47912E-02 4.35410E-28
3.55952E-02 4.13585E-28
3.64081E-02 3.93038E-28
3.72297E-02 3.73684E-28
3.80602E-02 3.55443E-28
3.88995E-02 3.38239E-28
3.97476E-02 3.22006E-28
4.06044E-02 3.06680E-28
4.14700E-02 2.92201E-28
4.23443E-02 2.78517E-28
4.32273E-02 2.65577E-28
4.41190E-02 2.53333E-28
4.50194E-02 2.41743E-28
4.59284E-02 2.30767E-28
4.68461E-02 2.20367E-28
4.87074E-02 2.01158E-28
5.06030E-02 1.83865E-28
5.25328E-02 1.68272E-28
5.44967E-02 1.54186E-28
5.64946E-02 1.41443E-28
5.85262E-02 1.29897E-28
6.05914E-02 1.19421E-28
6.26901E-02 1.09901E-28
6.48222E-02 1.01239E-28
6.69873E-02 9.33473E-29
6.91854E-02 8.61485E-29
7.14163E-02 7.95739E-29
7.36799E-02 7.35624E-29
7.59760E-02 6.80597E-29
7.83043E-02 6.30173E-29
8.06647E-02 5.83919E-29
8.30571E-02 5.41448E-29
8.54812E-02 5.02414E-29
8.79369E-02 4.66505E-29
9.04240E-02 4.33441E-29
9.29422E-02 4.02971E-29
9.54915E-02 3.74867E-29
9.80716E-02 3.48925E-29
1.00682E-01 3.24960E-29
1.03323E-01 3.02804E-29
1.05995E-01 2.82307E-29
1.08696E-01 2.63330E-29
1.11427E-01 2.45748E-29
1.14188E-01 2.29449E-29
1.16978E-01 2.14329E-29
1.19797E-01 2.00295E-29
1.22645E-01 1.87259E-29
1.25522E-01 1.75145E-29
1.28428E-01 1.63881E-29
1.31361E-01 1.53401E-29
1.34323E-01 1.43645E-29
1.37313E-01 1.34560E-29
1.40330E-01 1.26094E-29
1.43375E-01 1.18202E-29
1.46447E-01 1.10840E-29
1.49545E-01 1.03972E-29
1.52671E-01 9.75594E-30
1.55823E-01 9.15709E-30
1.59001E-01 8.59757E-30
1.62205E-01 8.07459E-30
1.65435E-01 7.58556E-30
1.68690E-01 7.12812E-30
1.71970E-01 6.70005E-30
1.75276E-01 6.29934E-30
1.78606E-01 5.92409E-30
1.81961E-01 5.57257E-30
1.85340E-01 5.24317E-30
1.88743E-01 4.93440E-30
1.92169E-01 4.64487E-30
1.95619E-01 4.37331E-30
1.99092E-01 4.11851E-30
2.02589E-01 3.87938E-30
2.06107E-01 3.65489E-30
2.09649E-01 3.44409E-30
2.13212E-01 3.24608E-30
2.16797E-01 3.06004E-30
2.20404E-01 2.88521E-30
2.24032E-01 2.72086E-30
2.27680E-01 2.56633E-30
2.31350E-01 2.42101E-30
2.35040E-01 2.28430E-30
2.38751E-01 2.15567E-30
2.42481E-01 2.03462E-30
2.46231E-01 1.92067E-30
2.50000E-01 1.81339E-30
2.53788E-01 1.71236E-30
2.57595E-01 1.61721E-30
2.61421E-01 1.52756E-30
2.65264E-01 1.44310E-30
2.69126E-01 1.36349E-30
2.73005E-01 1.28846E-30
2.76901E-01 1.21772E-30
2.80814E-01 1.15102E-30
2.84744E-01 1.08811E-30
2.88691E-01 1.02877E-30
2.92653E-01 9.72791E-31
2.96632E-01 9.19972E-31
3.00625E-01 8.70125E-31
3.04634E-01 8.23078E-31
3.08658E-01 7.78665E-31
3.12697E-01 7.36735E-31
3.16749E-01 6.97141E-31
3.20816E-01 6.59748E-31
3.24896E-01 6.24430E-31
3.28990E-01 5.91065E-31
3.33097E-01 5.59544E-31
3.37216E-01 5.29758E-31
3.41348E-01 5.01610E-31
3.45492E-01 4.75006E-31
3.49647E-01 4.49857E-31
3.53814E-01 4.26082E-31
3.57992E-01 4.03603E-31
3.62181E-01 3.82347E-31
3.66381E-01 3.62244E-31
3.70590E-01 3.43231E-31
3.74810E-01 3.25245E-31
3.79039E-01 3.08230E-31
3.83277E-01 2.92131E-31
3.87524E-01 2.76898E-31
3.91780E-01 2.62482E-31
3.96044E-01 2.48839E-31
4.00316E-01 2.35925E-31
4.04596E-01 2.23700E-31
4.08882E-01 2.12126E-31
4.13176E-01 2.01169E-31
4.17476E-01 1.90793E-31
4.21783E-01 1.80966E-31
4.26095E-01 1.71660E-31
4.30413E-01 1.62845E-31
4.34737E-01 1.54495E-31
4.39065E-01 1.46585E-31
4.43398E-01 1.39091E-31
4.47736E-01 1.31990E-31
4.52077E-01 1.25261E-31
4.56422E-01 1.18885E-31
4.60770E-01 1.12841E-31
4.65122E-01 1.07112E-31
4.69476E-01 1.01682E-31
4.73832E-01 9.65343E-32
4.78190E-01 9.16540E-32
4.82550E-01 8.70266E-32
4.86912E-01 8.26391E-32
4.91274E-01 7.84781E-32
4.95637E-01 7.45325E-32
5.00000E-01 7.07896E-32
5.04363E-01 6.72394E-32
5.08726E-01 6.38720E-32
5.13088E-01 6.06775E-32
5.17450E-01 5.76464E-32
5.21810E-01 5.47709E-32
5.26168E-01 5.20422E-32
5.30524E-01 4.94528E-32
5.34878E-01 4.69953E-32
5.39230E-01 4.46631E-32
5.43578E-01 4.24492E-32
5.47923E-01 4.03479E-32
5.52264E-01 3.83529E-32
5.56602E-01 3.64593E-32
5.60935E-01 3.46613E-32
5.65263E-01 3.29541E-32
5.69587E-01 3.13331E-32
5.73905E-01 2.97938E-32
5.78217E-01 2.83319E-32
5.82524E-01 2.69433E-32
5.86824E-01 2.56245E-32
5.91118E-01 2.43717E-32
5.95404E-01 2.31819E-32
5.99684E-01 2.20512E-32
6.03956E-01 2.09770E-32
6.08220E-01 1.99565E-32
6.12476E-01 1.89867E-32
6.16723E-01 1.80652E-32
6.20961E-01 1.71895E-32
6.25190E-01 1.63571E-32
6.29410E-01 1.55660E-32
6.33619E-01 1.48141E-32
6.37819E-01 1.40993E-32
6.42008E-01 1.34198E-32
6.46186E-01 1.27738E-32
6.50353E-01 1.21597E-32
6.54508E-01 1.15756E-32
6.58652E-01 1.10203E-32
6.62784E-01 1.04922E-32
6.66903E-01 9.99001E-33
6.71010E-01 9.51240E-33
6.75104E-01 9.05805E-33
6.79184E-01 8.62592E-33
6.83251E-01 8.21482E-33
6.87303E-01 7.82379E-33
6.91342E-01 7.45178E-33
6.95366E-01 7.09774E-33
6.99375E-01 6.76093E-33
7.03368E-01 6.44039E-33
7.07347E-01 6.13542E-33
7.11309E-01 5.84517E-33
7.15256E-01 5.56897E-33
7.19186E-01 5.30592E-33
7.23099E-01 5.05570E-33
7.26995E-01 4.81740E-33
7.30874E-01 4.59068E-33
7.34736E-01 4.37470E-33
7.38579E-01 4.16915E-33
7.42405E-01 3.97334E-33
7.46212E-01 3.78702E-33
7.50000E-01 3.60947E-33
7.53769E-01 3.44042E-33
7.57519E-01 3.27941E-33
7.61249E-01 3.12609E-33
7.64960E-01 2.98005E-33
7.68650E-01 2.84087E-33
7.72320E-01 2.70831E-33
7.75968E-01 2.58205E-33
7.79596E-01 2.46174E-33
7.83203E-01 2.34709E-33
7.86788E-01 2.23785E-33
7.90351E-01 2.13376E-33
7.93893E-01 2.03458E-33
7.97411E-01 1.93999E-33
8.00908E-01 1.84989E-33
8.04381E-01 1.76402E-33
8.07831E-01 1.68214E-33
8.11257E-01 1.60411E-33
8.14660E-01 1.52964E-33
8.18039E-01 1.45874E-33
8.21394E-01 1.39113E-33
8.24724E-01 1.32665E-33
8.28030E-01 1.26510E-33
8.31310E-01 1.20647E-33
8.34565E-01 1.15056E-33
8.37795E-01 1.09721E-33
8.40999E-01 1.04633E-33
8.44177E-01 9.97816E-34
8.47329E-01 9.51491E-34
8.50455E-01 9.07348E-34
8.53553E-01 8.65237E-34
8.56625E-01 8.25022E-34
8.59670E-01 7.86678E-34
8.62687E-01 7.50069E-34
8.65677E-01 7.15170E-34
8.68639E-01 6.81817E-34
8.71572E-01 6.49977E-34
8.74478E-01 6.19653E-34
8.77355E-01 5.90687E-34
8.80203E-01 5.63054E-34
8.83022E-01 5.36665E-34
8.85812E-01 5.11449E-34
8.88573E-01 4.87397E-34
8.91304E-01 4.64412E-34
8.94005E-01 4.42496E-34
8.96677E-01 4.21588E-34
8.99318E-01 4.01584E-34
9.01928E-01 3.82487E-34
9.04508E-01 3.64269E-34
9.07058E-01 3.46843E-34
9.09576E-01 3.30234E-34
9.12063E-01 3.14371E-34
9.14519E-01 2.99211E-34
9.16943E-01 2.84723E-34
9.19335E-01 2.70883E-34
9.21696E-01 2.57686E-34
9.24024E-01 2.45051E-34
9.26320E-01 2.32990E-34
9.28584E-01 2.21495E-34
9.30815E-01 2.10484E-34
9.33013E-01 1.99973E-34
9.35178E-01 1.89934E-34
9.37310E-01 1.80329E-34
9.39409E-01 1.71178E-34
9.41474E-01 1.62419E-34
9.43505E-01 1.54076E-34
9.45503E-01 1.46084E-34
9.47467E-01 1.38455E-34
9.49397E-01 1.31163E-34
9.51293E-01 1.24195E-34
9.53154E-01 1.17565E-34
9.54981E-01 1.11206E-34
9.56773E-01 1.05145E-34
9.58530E-01 9.93561E-35
9.60252E-01 9.38081E-35
9.61940E-01 8.85212E-35
9.63592E-01 8.34824E-35
9.65209E-01 7.86586E-35
9.66790E-01 7.40741E-35
9.68336E-01 6.96793E-35
9.69846E-01 6.54915E-35
9.71321E-01 6.14989E-35
9.72759E-01 5.76937E-35
9.74162E-01 5.40653E-35
9.75528E-01 5.06015E-35
9.76858E-01 4.72994E-35
9.78152E-01 4.41607E-35
9.79410E-01 4.11739E-35
9.80631E-01 3.83193E-35
9.81815E-01 3.56175E-35
9.82963E-01 3.30300E-35
9.84074E-01 3.05904E-35
9.85148E-01 2.82622E-35
9.86185E-01 2.60550E-35
9.87185E-01 2.39575E-35
9.88148E-01 2.19737E-35
9.89074E-01 2.00944E-35
9.89962E-01 1.83186E-35
9.90814E-01 1.66452E-35
9.91627E-01 1.50588E-35
9.92404E-01 1.35789E-35
9.93143E-01 1.21819E-35
9.93844E-01 1.08723E-35
9.94508E-01 9.63834E-36
9.95134E-01 8.49730E-36
9.95722E-01 7.43060E-36
9.96273E-01 6.44628E-36
9.96786E-01 5.53478E-36
9.97261E-01 4.69949E-36
9.97698E-01 3.93649E-36
9.98097E-01 3.24687E-36
9.98459E-01 2.62205E-36
9.98782E-01 2.07170E-36
9.99067E-01 1.58496E-36
9.99315E-01 1.16854E-36
9.99524E-01 8.11529E-37
9.99695E-01 5.22458E-37
9.99829E-01 3.00971E-37
9.99924E-01 1.38965E-37
9.99981E-01 4.37073E-38
1.00000E+00 1.61704E-38
