 #
 # Subroutine ELSEPA. Elastic scattering of electrons and positrons
 #                    by neutral atoms and positive ions
 #
 # Projectile: electron
 # Kinetic energy = 1.50000E+07 eV = 5.51240E+05 a.u.
 #
 # WARNING: High-energy factorization with free-atom DF screening.
 #          Absorption, polarization and exchange corrections are
 #          switched off.
 #          Phase shifts are calculated for the bare nucleus.
 #          Scattering amplitudes are not evaluated.
 #
 # Element: He,  Z =   2,  atomic weight = 4.00260E+00 g/mol
 #
 # Nuclear model: Fermi distribution
 #                Average radius = 1.69889E-13 cm
 #                Skin thickness = 5.46000E-14 cm
 #
 # Number of electrons =  2
 #
 # Total elastic cross section = 1.64902E-20 cm**2 = 5.88875E-04 a0**2
 # 1st transport cross section = 3.21509E-26 cm**2 = 1.14813E-09 a0**2
 # 2nd transport cross section = 9.31966E-26 cm**2 = 3.32811E-09 a0**2
 #
 #
 # Differential cross section:                       MU=(1-COS(THETA))/2
 #
 #  THETA        MU          DCS          DCS        Sherman      error
 #  (deg)                 (cm**2/sr)   (a0**2/sr)    function
 #----------------------------------------------------------------------
0.00000E+00 1.60732E-14
7.61557E-13 1.60729E-14
1.18994E-12 1.60728E-14
1.71346E-12 1.60726E-14
2.33225E-12 1.60724E-14
3.04617E-12 1.60721E-14
3.85530E-12 1.60718E-14
4.75964E-12 1.60715E-14
5.75917E-12 1.60711E-14
6.85391E-12 1.60707E-14
8.04379E-12 1.60703E-14
9.32893E-12 1.60698E-14
1.07092E-11 1.60693E-14
1.21847E-11 1.60688E-14
1.37554E-11 1.60682E-14
1.54213E-11 1.60676E-14
1.71823E-11 1.60670E-14
1.90386E-11 1.60663E-14
2.09900E-11 1.60656E-14
2.30367E-11 1.60649E-14
2.51785E-11 1.60641E-14
2.74156E-11 1.60633E-14
2.97478E-11 1.60625E-14
3.21752E-11 1.60616E-14
3.46979E-11 1.60607E-14
3.73157E-11 1.60598E-14
4.00286E-11 1.60588E-14
4.28368E-11 1.60578E-14
4.57402E-11 1.60567E-14
4.87388E-11 1.60556E-14
5.18325E-11 1.60545E-14
5.50215E-11 1.60534E-14
5.83057E-11 1.60522E-14
6.16850E-11 1.60510E-14
6.51595E-11 1.60497E-14
6.87293E-11 1.60485E-14
7.23943E-11 1.60471E-14
7.61544E-11 1.60458E-14
1.18991E-10 1.60304E-14
1.71347E-10 1.60117E-14
2.33223E-10 1.59895E-14
3.04617E-10 1.59641E-14
3.85531E-10 1.59353E-14
4.75965E-10 1.59032E-14
5.75917E-10 1.58678E-14
6.85389E-10 1.58292E-14
8.04380E-10 1.57873E-14
9.32891E-10 1.57423E-14
1.07092E-09 1.56942E-14
1.21847E-09 1.56429E-14
1.37554E-09 1.55886E-14
1.54213E-09 1.55314E-14
1.71823E-09 1.54711E-14
1.90386E-09 1.54080E-14
2.09900E-09 1.53420E-14
2.30367E-09 1.52733E-14
2.51785E-09 1.52017E-14
2.74156E-09 1.51275E-14
2.97478E-09 1.50506E-14
3.21752E-09 1.49712E-14
3.46978E-09 1.48892E-14
3.73156E-09 1.48049E-14
4.00286E-09 1.47182E-14
4.28368E-09 1.46293E-14
4.57402E-09 1.45381E-14
4.87388E-09 1.44448E-14
5.18326E-09 1.43494E-14
5.50215E-09 1.42519E-14
5.83057E-09 1.41524E-14
6.16850E-09 1.40510E-14
6.51596E-09 1.39440E-14
6.87293E-09 1.38278E-14
7.23942E-09 1.37130E-14
7.61544E-09 1.35996E-14
1.18991E-08 1.24442E-14
1.71347E-08 1.12172E-14
2.33223E-08 9.98247E-15
3.04617E-08 8.79006E-15
3.85531E-08 7.67495E-15
4.75965E-08 6.65804E-15
5.75917E-08 5.74859E-15
6.85389E-08 4.94039E-15
8.04380E-08 4.23770E-15
9.32891E-08 3.63189E-15
1.07092E-07 3.11239E-15
1.21847E-07 2.66869E-15
1.37554E-07 2.29084E-15
1.54213E-07 1.96980E-15
1.71823E-07 1.69738E-15
1.90386E-07 1.46344E-15
2.09900E-07 1.27044E-15
2.30367E-07 1.10645E-15
2.51785E-07 9.64486E-16
2.74156E-07 8.41716E-16
2.97478E-07 7.35929E-16
3.21752E-07 6.45192E-16
3.46978E-07 5.67614E-16
3.73156E-07 5.01276E-16
4.00286E-07 4.44328E-16
4.28368E-07 3.95114E-16
4.57402E-07 3.52265E-16
4.87388E-07 3.14727E-16
5.18325E-07 2.81722E-16
5.50215E-07 2.52654E-16
5.83057E-07 2.27087E-16
6.16850E-07 2.04598E-16
6.51596E-07 1.84759E-16
6.87293E-07 1.67276E-16
7.23942E-07 1.51861E-16
7.61543E-07 1.38225E-16
1.18991E-06 5.88100E-17
1.71347E-06 2.88501E-17
2.33223E-06 1.56851E-17
3.04617E-06 9.22101E-18
3.85531E-06 5.76813E-18
4.75964E-06 3.78989E-18
5.75916E-06 2.59130E-18
6.85388E-06 1.83111E-18
8.04378E-06 1.33028E-18
9.32888E-06 9.89517E-19
1.07092E-05 7.51188E-19
1.21846E-05 5.80471E-19
1.37553E-05 4.55603E-19
1.54212E-05 3.62573E-19
1.71822E-05 2.92119E-19
1.90385E-05 2.37974E-19
2.09899E-05 1.95812E-19
2.30365E-05 1.62586E-19
2.51783E-05 1.36026E-19
2.74153E-05 1.14822E-19
2.97475E-05 9.75332E-20
3.21749E-05 8.33789E-20
3.46974E-05 7.17014E-20
3.73152E-05 6.20511E-20
4.00281E-05 5.38827E-20
4.28362E-05 4.70524E-20
4.57395E-05 4.12709E-20
4.87380E-05 3.63774E-20
5.18317E-05 3.21119E-20
5.50205E-05 2.85258E-20
5.83045E-05 2.54038E-20
6.16838E-05 2.26975E-20
6.51582E-05 2.03346E-20
6.87277E-05 1.82986E-20
7.23925E-05 1.64807E-20
7.61524E-05 1.48939E-20
9.21439E-05 1.01739E-20
1.09658E-04 7.18816E-21
1.28695E-04 5.21474E-21
1.49255E-04 3.87712E-21
1.71338E-04 2.94408E-21
1.94942E-04 2.27233E-21
2.20070E-04 1.78464E-21
2.46720E-04 1.41906E-21
2.74892E-04 1.14347E-21
3.04586E-04 9.31422E-22
3.35803E-04 7.66103E-22
3.68542E-04 6.36297E-22
4.02802E-04 5.32453E-22
4.38585E-04 4.49253E-22
4.75889E-04 3.81528E-22
5.14715E-04 3.26135E-22
5.55063E-04 2.80486E-22
5.96931E-04 2.42466E-22
6.40321E-04 2.10764E-22
6.85233E-04 1.84011E-22
7.31665E-04 1.61408E-22
7.79618E-04 1.42164E-22
8.29092E-04 1.25690E-22
8.80086E-04 1.11560E-22
9.32601E-04 9.93350E-23
9.86636E-04 8.87600E-23
1.04219E-03 7.95440E-23
1.09927E-03 7.14961E-23
1.15786E-03 6.44454E-23
1.21797E-03 5.82343E-23
1.27961E-03 5.27630E-23
1.34276E-03 4.79120E-23
1.40743E-03 4.36101E-23
1.47362E-03 3.97795E-23
1.54133E-03 3.63586E-23
1.61056E-03 3.33011E-23
1.68131E-03 3.05545E-23
1.75357E-03 2.80884E-23
1.82735E-03 2.58644E-23
1.90265E-03 2.38565E-23
1.97947E-03 2.20406E-23
2.05780E-03 2.03927E-23
2.13765E-03 1.88976E-23
2.21902E-03 1.75357E-23
2.30190E-03 1.62951E-23
2.38630E-03 1.51621E-23
2.47222E-03 1.41255E-23
2.55965E-03 1.31767E-23
2.64859E-03 1.23055E-23
2.73905E-03 1.15057E-23
2.83103E-03 1.07695E-23
2.92452E-03 1.00913E-23
3.01952E-03 9.46582E-24
3.11604E-03 8.88768E-24
3.21407E-03 8.35346E-24
3.31362E-03 7.85840E-24
3.41468E-03 7.39969E-24
3.51725E-03 6.97393E-24
3.62133E-03 6.57822E-24
3.72692E-03 6.21041E-24
3.83403E-03 5.86769E-24
3.94265E-03 5.54850E-24
4.05278E-03 5.25059E-24
4.16442E-03 4.97242E-24
4.27757E-03 4.71251E-24
4.39223E-03 4.46922E-24
4.50840E-03 4.24157E-24
4.62608E-03 4.02811E-24
4.74527E-03 3.82797E-24
4.86597E-03 3.64011E-24
4.98817E-03 3.46357E-24
5.11188E-03 3.29769E-24
5.23711E-03 3.14153E-24
5.36383E-03 2.99457E-24
5.49207E-03 2.85607E-24
5.62181E-03 2.72548E-24
5.75306E-03 2.60230E-24
5.88581E-03 2.48594E-24
6.02007E-03 2.37607E-24
6.15583E-03 2.27215E-24
6.29310E-03 2.17388E-24
6.43187E-03 2.08086E-24
6.57214E-03 1.99274E-24
6.71392E-03 1.90927E-24
6.85720E-03 1.83008E-24
7.00198E-03 1.75499E-24
7.14827E-03 1.68369E-24
7.29605E-03 1.61597E-24
7.44534E-03 1.55163E-24
7.59612E-03 1.49044E-24
7.97965E-03 1.35018E-24
8.37255E-03 1.22603E-24
8.77480E-03 1.11582E-24
9.18641E-03 1.01772E-24
9.60736E-03 9.30151E-25
1.00376E-02 8.51798E-25
1.04773E-02 7.81518E-25
1.09262E-02 7.18334E-25
1.13844E-02 6.61402E-25
1.18520E-02 6.09996E-25
1.23288E-02 5.63484E-25
1.28150E-02 5.21317E-25
1.33104E-02 4.83018E-25
1.38150E-02 4.48169E-25
1.43290E-02 4.16403E-25
1.48521E-02 3.87399E-25
1.53845E-02 3.60874E-25
1.59262E-02 3.36578E-25
1.64770E-02 3.14290E-25
1.70371E-02 2.93814E-25
1.76063E-02 2.74976E-25
1.81848E-02 2.57622E-25
1.87724E-02 2.41614E-25
1.93692E-02 2.26828E-25
1.99751E-02 2.13154E-25
2.05901E-02 2.00493E-25
2.12143E-02 1.88757E-25
2.18476E-02 1.77865E-25
2.24900E-02 1.67747E-25
2.31415E-02 1.58336E-25
2.38021E-02 1.49575E-25
2.44717E-02 1.41410E-25
2.51504E-02 1.33793E-25
2.58382E-02 1.26682E-25
2.65349E-02 1.20035E-25
2.72407E-02 1.13818E-25
2.79555E-02 1.07996E-25
2.86793E-02 1.02542E-25
2.94120E-02 9.74263E-26
3.01537E-02 9.26250E-26
3.09043E-02 8.81149E-26
3.16639E-02 8.38753E-26
3.24324E-02 7.98868E-26
3.32098E-02 7.61319E-26
3.39961E-02 7.25942E-26
3.47912E-02 6.92591E-26
3.55952E-02 6.61126E-26
3.64081E-02 6.31422E-26
3.72297E-02 6.03361E-26
3.80602E-02 5.76836E-26
3.88995E-02 5.51748E-26
3.97476E-02 5.28003E-26
4.06044E-02 5.05517E-26
4.14700E-02 4.84211E-26
4.23443E-02 4.64010E-26
4.32273E-02 4.44848E-26
4.41190E-02 4.26660E-26
4.50194E-02 4.09388E-26
4.59284E-02 3.92978E-26
4.68461E-02 3.77377E-26
4.87074E-02 3.48420E-26
5.06030E-02 3.22175E-26
5.25328E-02 2.98343E-26
5.44967E-02 2.76662E-26
5.64946E-02 2.56905E-26
5.85262E-02 2.38870E-26
6.05914E-02 2.22381E-26
6.26901E-02 2.07282E-26
6.48222E-02 1.93434E-26
6.69873E-02 1.80716E-26
6.91854E-02 1.69019E-26
7.14163E-02 1.58247E-26
7.36799E-02 1.48312E-26
7.59760E-02 1.39139E-26
7.83043E-02 1.30658E-26
8.06647E-02 1.22809E-26
8.30571E-02 1.15535E-26
8.54812E-02 1.08786E-26
8.79369E-02 1.02519E-26
9.04240E-02 9.66922E-27
9.29422E-02 9.12694E-27
9.54915E-02 8.62175E-27
9.80716E-02 8.15066E-27
1.00682E-01 7.71095E-27
1.03323E-01 7.30016E-27
1.05995E-01 6.91604E-27
1.08696E-01 6.55654E-27
1.11427E-01 6.21981E-27
1.14188E-01 5.90414E-27
1.16978E-01 5.60798E-27
1.19797E-01 5.32990E-27
1.22645E-01 5.06860E-27
1.25522E-01 4.82289E-27
1.28428E-01 4.59166E-27
1.31361E-01 4.37392E-27
1.34323E-01 4.16872E-27
1.37313E-01 3.97522E-27
1.40330E-01 3.79263E-27
1.43375E-01 3.62022E-27
1.46447E-01 3.45733E-27
1.49545E-01 3.30333E-27
1.52671E-01 3.15764E-27
1.55823E-01 3.01975E-27
1.59001E-01 2.88916E-27
1.62205E-01 2.76540E-27
1.65435E-01 2.64807E-27
1.68690E-01 2.53676E-27
1.71970E-01 2.43111E-27
1.75276E-01 2.33078E-27
1.78606E-01 2.23546E-27
1.81961E-01 2.14484E-27
1.85340E-01 2.05866E-27
1.88743E-01 1.97666E-27
1.92169E-01 1.89860E-27
1.95619E-01 1.82426E-27
1.99092E-01 1.75342E-27
2.02589E-01 1.68590E-27
2.06107E-01 1.62150E-27
2.09649E-01 1.56006E-27
2.13212E-01 1.50143E-27
2.16797E-01 1.44544E-27
2.20404E-01 1.39195E-27
2.24032E-01 1.34085E-27
2.27680E-01 1.29199E-27
2.31350E-01 1.24526E-27
2.35040E-01 1.20056E-27
2.38751E-01 1.15778E-27
2.42481E-01 1.11682E-27
2.46231E-01 1.07760E-27
2.50000E-01 1.04002E-27
2.53788E-01 1.00400E-27
2.57595E-01 9.69472E-28
2.61421E-01 9.36358E-28
2.65264E-01 9.04590E-28
2.69126E-01 8.74105E-28
2.73005E-01 8.44841E-28
2.76901E-01 8.16741E-28
2.80814E-01 7.89750E-28
2.84744E-01 7.63816E-28
2.88691E-01 7.38892E-28
2.92653E-01 7.14930E-28
2.96632E-01 6.91887E-28
3.00625E-01 6.69722E-28
3.04634E-01 6.48396E-28
3.08658E-01 6.27870E-28
3.12697E-01 6.08110E-28
3.16749E-01 5.89082E-28
3.20816E-01 5.70754E-28
3.24896E-01 5.53096E-28
3.28990E-01 5.36079E-28
3.33097E-01 5.19676E-28
3.37216E-01 5.03861E-28
3.41348E-01 4.88609E-28
3.45492E-01 4.73896E-28
3.49647E-01 4.59701E-28
3.53814E-01 4.46001E-28
3.57992E-01 4.32777E-28
3.62181E-01 4.20010E-28
3.66381E-01 4.07680E-28
3.70590E-01 3.95770E-28
3.74810E-01 3.84263E-28
3.79039E-01 3.73144E-28
3.83277E-01 3.62397E-28
3.87524E-01 3.52007E-28
3.91780E-01 3.41961E-28
3.96044E-01 3.32245E-28
4.00316E-01 3.22847E-28
4.04596E-01 3.13754E-28
4.08882E-01 3.04955E-28
4.13176E-01 2.96439E-28
4.17476E-01 2.88195E-28
4.21783E-01 2.80212E-28
4.26095E-01 2.72482E-28
4.30413E-01 2.64995E-28
4.34737E-01 2.57742E-28
4.39065E-01 2.50714E-28
4.43398E-01 2.43903E-28
4.47736E-01 2.37302E-28
4.52077E-01 2.30903E-28
4.56422E-01 2.24699E-28
4.60770E-01 2.18682E-28
4.65122E-01 2.12847E-28
4.69476E-01 2.07186E-28
4.73832E-01 2.01694E-28
4.78190E-01 1.96365E-28
4.82550E-01 1.91194E-28
4.86912E-01 1.86174E-28
4.91274E-01 1.81301E-28
4.95637E-01 1.76569E-28
5.00000E-01 1.71975E-28
5.04363E-01 1.67512E-28
5.08726E-01 1.63178E-28
5.13088E-01 1.58967E-28
5.17450E-01 1.54876E-28
5.21810E-01 1.50900E-28
5.26168E-01 1.47036E-28
5.30524E-01 1.43281E-28
5.34878E-01 1.39630E-28
5.39230E-01 1.36080E-28
5.43578E-01 1.32628E-28
5.47923E-01 1.29272E-28
5.52264E-01 1.26007E-28
5.56602E-01 1.22831E-28
5.60935E-01 1.19741E-28
5.65263E-01 1.16735E-28
5.69587E-01 1.13809E-28
5.73905E-01 1.10962E-28
5.78217E-01 1.08191E-28
5.82524E-01 1.05494E-28
5.86824E-01 1.02868E-28
5.91118E-01 1.00311E-28
5.95404E-01 9.78214E-29
5.99684E-01 9.53966E-29
6.03956E-01 9.30350E-29
6.08220E-01 9.07347E-29
6.12476E-01 8.84937E-29
6.16723E-01 8.63105E-29
6.20961E-01 8.41832E-29
6.25190E-01 8.21101E-29
6.29410E-01 8.00899E-29
6.33619E-01 7.81208E-29
6.37819E-01 7.62015E-29
6.42008E-01 7.43303E-29
6.46186E-01 7.25062E-29
6.50353E-01 7.07276E-29
6.54508E-01 6.89933E-29
6.58652E-01 6.73019E-29
6.62784E-01 6.56524E-29
6.66903E-01 6.40435E-29
6.71010E-01 6.24741E-29
6.75104E-01 6.09430E-29
6.79184E-01 5.94494E-29
6.83251E-01 5.79920E-29
6.87303E-01 5.65699E-29
6.91342E-01 5.51822E-29
6.95366E-01 5.38278E-29
6.99375E-01 5.25060E-29
7.03368E-01 5.12158E-29
7.07347E-01 4.99564E-29
7.11309E-01 4.87269E-29
7.15256E-01 4.75267E-29
7.19186E-01 4.63546E-29
7.23099E-01 4.52104E-29
7.26995E-01 4.40930E-29
7.30874E-01 4.30019E-29
7.34736E-01 4.19362E-29
7.38579E-01 4.08954E-29
7.42405E-01 3.98788E-29
7.46212E-01 3.88859E-29
7.50000E-01 3.79158E-29
7.53769E-01 3.69682E-29
7.57519E-01 3.60425E-29
7.61249E-01 3.51380E-29
7.64960E-01 3.42543E-29
7.68650E-01 3.33908E-29
7.72320E-01 3.25470E-29
7.75968E-01 3.17224E-29
7.79596E-01 3.09166E-29
7.83203E-01 3.01291E-29
7.86788E-01 2.93595E-29
7.90351E-01 2.86072E-29
7.93893E-01 2.78720E-29
7.97411E-01 2.71532E-29
8.00908E-01 2.64507E-29
8.04381E-01 2.57640E-29
8.07831E-01 2.50927E-29
8.11257E-01 2.44364E-29
8.14660E-01 2.37947E-29
8.18039E-01 2.31675E-29
8.21394E-01 2.25544E-29
8.24724E-01 2.19548E-29
8.28030E-01 2.13685E-29
8.31310E-01 2.07954E-29
8.34565E-01 2.02351E-29
8.37795E-01 1.96871E-29
8.40999E-01 1.91514E-29
8.44177E-01 1.86276E-29
8.47329E-01 1.81153E-29
8.50455E-01 1.76145E-29
8.53553E-01 1.71248E-29
8.56625E-01 1.66460E-29
8.59670E-01 1.61778E-29
8.62687E-01 1.57200E-29
8.65677E-01 1.52723E-29
8.68639E-01 1.48346E-29
8.71572E-01 1.44066E-29
8.74478E-01 1.39883E-29
8.77355E-01 1.35792E-29
8.80203E-01 1.31792E-29
8.83022E-01 1.27882E-29
8.85812E-01 1.24059E-29
8.88573E-01 1.20322E-29
8.91304E-01 1.16668E-29
8.94005E-01 1.13097E-29
8.96677E-01 1.09607E-29
8.99318E-01 1.06195E-29
9.01928E-01 1.02860E-29
9.04508E-01 9.96018E-30
9.07058E-01 9.64169E-30
9.09576E-01 9.33052E-30
9.12063E-01 9.02650E-30
9.14519E-01 8.72943E-30
9.16943E-01 8.43922E-30
9.19335E-01 8.15574E-30
9.21696E-01 7.87890E-30
9.24024E-01 7.60847E-30
9.26320E-01 7.34443E-30
9.28584E-01 7.08667E-30
9.30815E-01 6.83497E-30
9.33013E-01 6.58930E-30
9.35178E-01 6.34955E-30
9.37310E-01 6.11557E-30
9.39409E-01 5.88733E-30
9.41474E-01 5.66467E-30
9.43505E-01 5.44755E-30
9.45503E-01 5.23580E-30
9.47467E-01 5.02938E-30
9.49397E-01 4.82817E-30
9.51293E-01 4.63212E-30
9.53154E-01 4.44117E-30
9.54981E-01 4.25515E-30
9.56773E-01 4.07406E-30
9.58530E-01 3.89779E-30
9.60252E-01 3.72622E-30
9.61940E-01 3.55937E-30
9.63592E-01 3.39714E-30
9.65209E-01 3.23942E-30
9.66790E-01 3.08623E-30
9.68336E-01 2.93739E-30
9.69846E-01 2.79293E-30
9.71321E-01 2.65276E-30
9.72759E-01 2.51684E-30
9.74162E-01 2.38509E-30
9.75528E-01 2.25745E-30
9.76858E-01 2.13389E-30
9.78152E-01 2.01437E-30
9.79410E-01 1.89882E-30
9.80631E-01 1.78717E-30
9.81815E-01 1.67944E-30
9.82963E-01 1.57551E-30
9.84074E-01 1.47541E-30
9.85148E-01 1.37905E-30
9.86185E-01 1.28641E-30
9.87185E-01 1.19743E-30
9.88148E-01 1.11212E-30
9.89074E-01 1.03041E-30
9.89962E-01 9.52281E-31
9.90814E-01 8.77714E-31
9.91627E-01 8.06638E-31
9.92404E-01 7.39087E-31
9.93143E-01 6.74977E-31
9.93844E-01 6.14304E-31
9.94508E-01 5.57027E-31
9.95134E-01 5.03172E-31
9.95722E-01 4.52664E-31
9.96273E-01 4.05522E-31
9.96786E-01 3.61703E-31
9.97261E-01 3.21206E-31
9.97698E-01 2.83999E-31
9.98097E-01 2.50087E-31
9.98459E-01 2.19430E-31
9.98782E-01 1.92051E-31
9.99067E-01 1.67907E-31
9.99315E-01 1.46994E-31
9.99524E-01 1.29319E-31
9.99695E-01 1.14854E-31
9.99829E-01 1.03632E-31
9.99924E-01 9.55977E-32
9.99981E-01 9.07887E-32
1.00000E+00 8.92627E-32
