 #
 # Subroutine ELSEPA. Elastic scattering of electrons and positrons
 #                    by neutral atoms and positive ions
 #
 # Projectile: electron
 # Kinetic energy = 7.00000E+08 eV = 2.57245E+07 a.u.
 #
 # WARNING: High-energy factorization with free-atom DF screening.
 #          Absorption, polarization and exchange corrections are
 #          switched off.
 #          Phase shifts are calculated for the bare nucleus.
 #          Scattering amplitudes are not evaluated.
 #
 # Element: He,  Z =   2,  atomic weight = 4.00260E+00 g/mol
 #
 # Nuclear model: Fermi distribution
 #                Average radius = 1.69889E-13 cm
 #                Skin thickness = 5.46000E-14 cm
 #
 # Number of electrons =  2
 #
 # Total elastic cross section = 1.64642E-20 cm**2 = 5.87947E-04 a0**2
 # 1st transport cross section = 1.94006E-29 cm**2 = 6.92809E-13 a0**2
 # 2nd transport cross section = 5.81686E-29 cm**2 = 2.07724E-12 a0**2
 #
 #
 # Differential cross section:                       MU=(1-COS(THETA))/2
 #
 #  THETA        MU          DCS          DCS        Sherman      error
 #  (deg)                 (cm**2/sr)   (a0**2/sr)    function
 #----------------------------------------------------------------------
0.00000E+00 3.27833E-11
7.61557E-13 3.16691E-11
1.18994E-12 3.10655E-11
1.71346E-12 3.03494E-11
2.33225E-12 2.95323E-11
3.04617E-12 2.86274E-11
3.85530E-12 2.75852E-11
4.75964E-12 2.65916E-11
5.75917E-12 2.54544E-11
6.85391E-12 2.43824E-11
8.04379E-12 2.31985E-11
9.32893E-12 2.20947E-11
1.07092E-11 2.09146E-11
1.21847E-11 1.98203E-11
1.37554E-11 1.86831E-11
1.54213E-11 1.76308E-11
1.71823E-11 1.65639E-11
1.90386E-11 1.55770E-11
2.09900E-11 1.45968E-11
2.30367E-11 1.36899E-11
2.51785E-11 1.28042E-11
2.74156E-11 1.19840E-11
2.97478E-11 1.11938E-11
3.21752E-11 1.04612E-11
3.46979E-11 9.76293E-12
3.73157E-11 9.11475E-12
4.00286E-11 8.50223E-12
4.28368E-11 7.93287E-12
4.57402E-11 7.39841E-12
4.87388E-11 6.90098E-12
5.18325E-11 6.43648E-12
5.50215E-11 6.00371E-12
5.83057E-11 5.60127E-12
6.16850E-11 5.22598E-12
6.51595E-11 4.87813E-12
6.87293E-11 4.55354E-12
7.23943E-11 4.25339E-12
7.61544E-11 3.97319E-12
1.18991E-10 2.07878E-12
1.71347E-10 1.14146E-12
2.33223E-10 6.68957E-13
3.04617E-10 4.10908E-13
3.85531E-10 2.64893E-13
4.75965E-10 1.77151E-13
5.75917E-10 1.22722E-13
6.85389E-10 8.74591E-14
8.04380E-10 6.39637E-14
9.32891E-10 4.77583E-14
1.07092E-09 3.63608E-14
1.21847E-09 2.81326E-14
1.37554E-09 2.21038E-14
1.54213E-09 1.76057E-14
1.71823E-09 1.41951E-14
1.90386E-09 1.15712E-14
2.09900E-09 9.52625E-15
2.30367E-09 7.91349E-15
2.51785E-09 6.62787E-15
2.74156E-09 5.59293E-15
2.97478E-09 4.75225E-15
3.21752E-09 4.06370E-15
3.46978E-09 3.49542E-15
3.73156E-09 3.02306E-15
4.00286E-09 2.62783E-15
4.28368E-09 2.29512E-15
4.57402E-09 2.01342E-15
4.87388E-09 1.77364E-15
5.18326E-09 1.56850E-15
5.50215E-09 1.39217E-15
5.83057E-09 1.23994E-15
6.16850E-09 1.10795E-15
6.51596E-09 9.93060E-16
6.87293E-09 8.92682E-16
7.23942E-09 8.04671E-16
7.61544E-09 7.27242E-16
1.18991E-08 2.98078E-16
1.71347E-08 1.43801E-16
2.33223E-08 7.76375E-17
3.04617E-08 4.55162E-17
3.85531E-08 2.84183E-17
4.75965E-08 1.86466E-17
5.75917E-08 1.27365E-17
6.85389E-08 8.99322E-18
8.04380E-08 6.52951E-18
9.32891E-08 4.85459E-18
1.07092E-07 3.68391E-18
1.21847E-07 2.84578E-18
1.37554E-07 2.23301E-18
1.54213E-07 1.77665E-18
1.71823E-07 1.43114E-18
1.90386E-07 1.16568E-18
2.09900E-07 9.59019E-19
2.30367E-07 7.96190E-19
2.51785E-07 6.66498E-19
2.74156E-07 5.62170E-19
2.97478E-07 4.77480E-19
3.21752E-07 4.08153E-19
3.46978E-07 3.50965E-19
3.73156E-07 3.03451E-19
4.00286E-07 2.63712E-19
4.28368E-07 2.30270E-19
4.57402E-07 2.01966E-19
4.87388E-07 1.77880E-19
5.18325E-07 1.57279E-19
5.50215E-07 1.39577E-19
5.83057E-07 1.24296E-19
6.16850E-07 1.11050E-19
6.51596E-07 9.95232E-20
6.87293E-07 8.94536E-20
7.23942E-07 8.06259E-20
7.61543E-07 7.28608E-20
1.18991E-06 2.98443E-20
1.71347E-06 1.43927E-20
2.33223E-06 7.76892E-21
3.04617E-06 4.55405E-21
3.85531E-06 2.84311E-21
4.75964E-06 1.86538E-21
5.75916E-06 1.27410E-21
6.85388E-06 8.99607E-22
8.04378E-06 6.53144E-22
9.32888E-06 4.85596E-22
1.07092E-05 3.68491E-22
1.21846E-05 2.84654E-22
1.37553E-05 2.23360E-22
1.54212E-05 1.77712E-22
1.71822E-05 1.43152E-22
1.90385E-05 1.16599E-22
2.09899E-05 9.59278E-23
2.30365E-05 7.96408E-23
2.51783E-05 6.66220E-23
2.74153E-05 5.62330E-23
2.97475E-05 4.77619E-23
3.21749E-05 4.08275E-23
3.46974E-05 3.51072E-23
3.73152E-05 3.03813E-23
4.00281E-05 2.63797E-23
4.28362E-05 2.30347E-23
4.57395E-05 2.02034E-23
4.87380E-05 1.78077E-23
5.18317E-05 1.57182E-23
5.50205E-05 1.39628E-23
5.83045E-05 1.24343E-23
6.16838E-05 1.11093E-23
6.51582E-05 9.95246E-24
6.87277E-05 8.95611E-24
7.23925E-05 8.06596E-24
7.61524E-05 7.28920E-24
9.21439E-05 4.97888E-24
1.09658E-04 3.47989E-24
1.28695E-04 2.51961E-24
1.49255E-04 1.86947E-24
1.71338E-04 1.41650E-24
1.94942E-04 1.09069E-24
2.20070E-04 8.54509E-25
2.46720E-04 6.77655E-25
2.74892E-04 5.44540E-25
3.04586E-04 4.42261E-25
3.35803E-04 3.62640E-25
3.68542E-04 3.00231E-25
4.02802E-04 2.50381E-25
4.38585E-04 2.10517E-25
4.75889E-04 1.78125E-25
5.14715E-04 1.51682E-25
5.55063E-04 1.29936E-25
5.96931E-04 1.11860E-25
6.40321E-04 9.68222E-26
6.85233E-04 8.41586E-26
7.31665E-04 7.34857E-26
7.79618E-04 6.44200E-26
8.29092E-04 5.66790E-26
8.80086E-04 5.00565E-26
9.32601E-04 4.43416E-26
9.86636E-04 3.94120E-26
1.04219E-03 3.51278E-26
1.09927E-03 3.13976E-26
1.15786E-03 2.81394E-26
1.21797E-03 2.52779E-26
1.27961E-03 2.27654E-26
1.34276E-03 2.05448E-26
1.40743E-03 1.85823E-26
1.47362E-03 1.68407E-26
1.54133E-03 1.52908E-26
1.61056E-03 1.39106E-26
1.68131E-03 1.26753E-26
1.75357E-03 1.15704E-26
1.82735E-03 1.05778E-26
1.90265E-03 9.68521E-27
1.97947E-03 8.88126E-27
2.05780E-03 8.15465E-27
2.13765E-03 7.49830E-27
2.21902E-03 6.90294E-27
2.30190E-03 6.36303E-27
2.38630E-03 5.87221E-27
2.47222E-03 5.42518E-27
2.55965E-03 5.01798E-27
2.64859E-03 4.64582E-27
2.73905E-03 4.30590E-27
2.83103E-03 3.99453E-27
2.92452E-03 3.70917E-27
3.01952E-03 3.44738E-27
3.11604E-03 3.20666E-27
3.21407E-03 2.98544E-27
3.31362E-03 2.78156E-27
3.41468E-03 2.59370E-27
3.51725E-03 2.42033E-27
3.62133E-03 2.26013E-27
3.72692E-03 2.11210E-27
3.83403E-03 1.97500E-27
3.94265E-03 1.84809E-27
4.05278E-03 1.73037E-27
4.16442E-03 1.62115E-27
4.27757E-03 1.51975E-27
4.39223E-03 1.42545E-27
4.50840E-03 1.33780E-27
4.62608E-03 1.25617E-27
4.74527E-03 1.18015E-27
4.86597E-03 1.10929E-27
4.98817E-03 1.04317E-27
5.11188E-03 9.81491E-28
5.23711E-03 9.23841E-28
5.36383E-03 8.69992E-28
5.49207E-03 8.19617E-28
5.62181E-03 7.72481E-28
5.75306E-03 7.28362E-28
5.88581E-03 6.87011E-28
6.02007E-03 6.48276E-28
6.15583E-03 6.11933E-28
6.29310E-03 5.77843E-28
6.43187E-03 5.45841E-28
6.57214E-03 5.15777E-28
6.71392E-03 4.87541E-28
6.85720E-03 4.60983E-28
7.00198E-03 4.36018E-28
7.14827E-03 4.12522E-28
7.29605E-03 3.90405E-28
7.44534E-03 3.69583E-28
7.59612E-03 3.49960E-28
7.97965E-03 3.05700E-28
8.37255E-03 2.67451E-28
8.77480E-03 2.34325E-28
9.18641E-03 2.05576E-28
9.60736E-03 1.80578E-28
1.00376E-02 1.58804E-28
1.04773E-02 1.39805E-28
1.09262E-02 1.23202E-28
1.13844E-02 1.08671E-28
1.18520E-02 9.59364E-29
1.23288E-02 8.47613E-29
1.28150E-02 7.49431E-29
1.33104E-02 6.63072E-29
1.38150E-02 5.87031E-29
1.43290E-02 5.20011E-29
1.48521E-02 4.60886E-29
1.53845E-02 4.08681E-29
1.59262E-02 3.62550E-29
1.64770E-02 3.21755E-29
1.70371E-02 2.85654E-29
1.76063E-02 2.53686E-29
1.81848E-02 2.25362E-29
1.87724E-02 2.00251E-29
1.93692E-02 1.77978E-29
1.99751E-02 1.58213E-29
2.05901E-02 1.40666E-29
2.12143E-02 1.25082E-29
2.18476E-02 1.11237E-29
2.24900E-02 9.89317E-30
2.31415E-02 8.79927E-30
2.38021E-02 7.82654E-30
2.44717E-02 6.96137E-30
2.51504E-02 6.19171E-30
2.58382E-02 5.50690E-30
2.65349E-02 4.89750E-30
2.72407E-02 4.35515E-30
2.79555E-02 3.87243E-30
2.86793E-02 3.44274E-30
2.94120E-02 3.06026E-30
3.01537E-02 2.71978E-30
3.09043E-02 2.41671E-30
3.16639E-02 2.14693E-30
3.24324E-02 1.90681E-30
3.32098E-02 1.69309E-30
3.39961E-02 1.50290E-30
3.47912E-02 1.33367E-30
3.55952E-02 1.18310E-30
3.64081E-02 1.04916E-30
3.72297E-02 9.30041E-31
3.80602E-02 8.24118E-31
3.88995E-02 7.29952E-31
3.97476E-02 6.46259E-31
4.06044E-02 5.71894E-31
4.14700E-02 5.05837E-31
4.23443E-02 4.47178E-31
4.32273E-02 3.95106E-31
4.41190E-02 3.48897E-31
4.50194E-02 3.07907E-31
4.59284E-02 2.71562E-31
4.68461E-02 2.39348E-31
4.87074E-02 1.85539E-31
5.06030E-02 1.43388E-31
5.25328E-02 1.10443E-31
5.44967E-02 8.47544E-32
5.64946E-02 6.47775E-32
5.85262E-02 4.92881E-32
6.05914E-02 3.73172E-32
6.26901E-02 2.80986E-32
6.48222E-02 2.10280E-32
6.69873E-02 1.56288E-32
6.91854E-02 1.15261E-32
7.14163E-02 8.42593E-33
7.36799E-02 6.09788E-33
7.59760E-02 4.36203E-33
7.83043E-02 3.07826E-33
8.06647E-02 2.13774E-33
8.30571E-02 1.45627E-33
8.54812E-02 9.68982E-34
8.79369E-02 6.26066E-34
9.04240E-02 3.89543E-34
9.29422E-02 2.30517E-34
9.54915E-02 1.27220E-34
9.80716E-02 6.33673E-35
1.00682E-01 2.68457E-35
1.03323E-01 8.77238E-36
1.05995E-01 2.69108E-36
1.08696E-01 3.98873E-36
1.11427E-01 9.42805E-36
1.14188E-01 1.67927E-35
1.16978E-01 2.46156E-35
1.19797E-01 3.19727E-35
1.22645E-01 3.83275E-35
1.25522E-01 4.34108E-35
1.28428E-01 4.71393E-35
1.31361E-01 4.95541E-35
1.34323E-01 5.07570E-35
1.37313E-01 5.08993E-35
1.40330E-01 5.01498E-35
1.43375E-01 4.86744E-35
1.46447E-01 4.66366E-35
1.49545E-01 4.41803E-35
1.52671E-01 4.14370E-35
1.55823E-01 3.85172E-35
1.59001E-01 3.55152E-35
1.62205E-01 3.25059E-35
1.65435E-01 2.95511E-35
1.68690E-01 2.66972E-35
1.71970E-01 2.39765E-35
1.75276E-01 2.14143E-35
1.78606E-01 1.90276E-35
1.81961E-01 1.68220E-35
1.85340E-01 1.48023E-35
1.88743E-01 1.29648E-35
1.92169E-01 1.13046E-35
1.95619E-01 9.81264E-36
1.99092E-01 8.48230E-36
2.02589E-01 7.29955E-36
2.06107E-01 6.25526E-36
2.09649E-01 5.33821E-36
2.13212E-01 4.53516E-36
2.16797E-01 3.83664E-36
2.20404E-01 3.23114E-36
2.24032E-01 2.70870E-36
2.27680E-01 2.26003E-36
2.31350E-01 1.87649E-36
2.35040E-01 1.54988E-36
2.38751E-01 1.27330E-36
2.42481E-01 1.03993E-36
2.46231E-01 8.44571E-37
2.50000E-01 6.80822E-37
2.53788E-01 5.45161E-37
2.57595E-01 4.32924E-37
2.61421E-01 3.40906E-37
2.65264E-01 2.65679E-37
2.69126E-01 2.04933E-37
2.73005E-01 1.56085E-37
2.76901E-01 1.17109E-37
2.80814E-01 8.64148E-38
2.84744E-01 6.25278E-38
2.88691E-01 4.40602E-38
2.92653E-01 3.01745E-38
2.96632E-01 1.98149E-38
3.00625E-01 1.23640E-38
3.04634E-01 7.13359E-39
3.08658E-01 3.68565E-39
3.12697E-01 1.55716E-39
3.16749E-01 4.52093E-40
3.20816E-01 8.58405E-41
3.24896E-01 2.46238E-40
3.28990E-01 7.58070E-40
3.33097E-01 1.50620E-39
3.37216E-01 2.36721E-39
3.41348E-01 3.26262E-39
3.45492E-01 4.17527E-39
3.49647E-01 5.00428E-39
3.53814E-01 5.78299E-39
3.57992E-01 6.47024E-39
3.62181E-01 7.03943E-39
3.66381E-01 7.49944E-39
3.70590E-01 7.86175E-39
3.74810E-01 8.11021E-39
3.79039E-01 8.28225E-39
3.83277E-01 8.34644E-39
3.87524E-01 8.34092E-39
3.91780E-01 8.25611E-39
3.96044E-01 8.14258E-39
4.00316E-01 7.95065E-39
4.04596E-01 7.72015E-39
4.08882E-01 7.45123E-39
4.13176E-01 7.19394E-39
4.17476E-01 6.88617E-39
4.21783E-01 6.56698E-39
4.26095E-01 6.24575E-39
4.30413E-01 5.89802E-39
4.34737E-01 5.57349E-39
4.39065E-01 5.25026E-39
4.43398E-01 4.93324E-39
4.47736E-01 4.63119E-39
4.52077E-01 4.31753E-39
4.56422E-01 4.04223E-39
4.60770E-01 3.75408E-39
4.65122E-01 3.47959E-39
4.69476E-01 3.21846E-39
4.73832E-01 2.97149E-39
4.78190E-01 2.74123E-39
4.82550E-01 2.52585E-39
4.86912E-01 2.33229E-39
4.91274E-01 2.13895E-39
4.95637E-01 1.98364E-39
5.00000E-01 1.81356E-39
5.04363E-01 1.65562E-39
5.08726E-01 1.51926E-39
5.13088E-01 1.39715E-39
5.17450E-01 1.27204E-39
5.21810E-01 1.16857E-39
5.26168E-01 1.06895E-39
5.30524E-01 9.76830E-40
5.34878E-01 8.89672E-40
5.39230E-01 8.13309E-40
5.43578E-01 7.37151E-40
5.47923E-01 6.70368E-40
5.52264E-01 6.03632E-40
5.56602E-01 5.51004E-40
5.60935E-01 5.01051E-40
5.65263E-01 4.54338E-40
5.69587E-01 4.12386E-40
5.73905E-01 3.79290E-40
5.78217E-01 3.46382E-40
5.82524E-01 3.11215E-40
5.86824E-01 2.84088E-40
5.91118E-01 2.59006E-40
5.95404E-01 2.41357E-40
5.99684E-01 2.15999E-40
6.03956E-01 1.95812E-40
6.08220E-01 1.80990E-40
6.12476E-01 1.62604E-40
6.16723E-01 1.48510E-40
6.20961E-01 1.37725E-40
6.25190E-01 1.23437E-40
6.29410E-01 1.11587E-40
6.33619E-01 1.01810E-40
6.37819E-01 9.33762E-41
6.42008E-01 8.41880E-41
6.46186E-01 7.78987E-41
6.50353E-01 7.19504E-41
6.54508E-01 6.56111E-41
6.58652E-01 5.98696E-41
6.62784E-01 5.44743E-41
6.66903E-01 5.05818E-41
6.71010E-01 4.73429E-41
6.75104E-01 4.29885E-41
6.79184E-01 3.99527E-41
6.83251E-01 3.66254E-41
6.87303E-01 3.43543E-41
6.91342E-01 3.26428E-41
6.95366E-01 2.93416E-41
6.99375E-01 2.73606E-41
7.03368E-01 2.45905E-41
7.07347E-01 2.32468E-41
7.11309E-01 2.16534E-41
7.15256E-01 2.08623E-41
7.19186E-01 1.76424E-41
7.23099E-01 1.71825E-41
7.26995E-01 1.53133E-41
7.30874E-01 1.53971E-41
7.34736E-01 1.38396E-41
7.38579E-01 1.35237E-41
7.42405E-01 1.18582E-41
7.46212E-01 1.23227E-41
7.50000E-01 1.10544E-41
7.53769E-01 1.03825E-41
7.57519E-01 9.85254E-42
7.61249E-01 9.64155E-42
7.64960E-01 9.58106E-42
7.68650E-01 8.43902E-42
7.72320E-01 7.95180E-42
7.75968E-01 7.73862E-42
7.79596E-01 7.39605E-42
7.83203E-01 6.67683E-42
7.86788E-01 6.29641E-42
7.90351E-01 5.95676E-42
7.93893E-01 5.79892E-42
7.97411E-01 4.95104E-42
8.00908E-01 4.68715E-42
8.04381E-01 4.75001E-42
8.07831E-01 4.35756E-42
8.11257E-01 4.43625E-42
8.14660E-01 3.39480E-42
8.18039E-01 3.68307E-42
8.21394E-01 3.97543E-42
8.24724E-01 3.98929E-42
8.28030E-01 3.12398E-42
8.31310E-01 3.18240E-42
8.34565E-01 3.29906E-42
8.37795E-01 3.09730E-42
8.40999E-01 2.95004E-42
8.44177E-01 3.04323E-42
8.47329E-01 2.46849E-42
8.50455E-01 2.59872E-42
8.53553E-01 2.74395E-42
8.56625E-01 2.36785E-42
8.59670E-01 2.38667E-42
8.62687E-01 2.10088E-42
8.65677E-01 2.35246E-42
8.68639E-01 1.87809E-42
8.71572E-01 1.36307E-42
8.74478E-01 1.65202E-42
8.77355E-01 1.66587E-42
8.80203E-01 1.92616E-42
8.83022E-01 1.95669E-42
8.85812E-01 1.64061E-42
8.88573E-01 1.63290E-42
8.91304E-01 1.31095E-42
8.94005E-01 1.41069E-42
8.96677E-01 1.73466E-42
8.99318E-01 1.46436E-42
9.01928E-01 1.21604E-42
9.04508E-01 1.29975E-42
9.07058E-01 9.30316E-43
9.09576E-01 1.07543E-42
9.12063E-01 1.17760E-42
9.14519E-01 1.19877E-42
9.16943E-01 1.01137E-42
9.19335E-01 8.65186E-43
9.21696E-01 1.05761E-42
9.24024E-01 7.95110E-43
9.26320E-01 7.10707E-43
9.28584E-01 1.02141E-42
9.30815E-01 8.11173E-43
9.33013E-01 7.46967E-43
9.35178E-01 7.23597E-43
9.37310E-01 5.07665E-43
9.39409E-01 6.29576E-43
9.41474E-01 4.90791E-43
9.43505E-01 7.36371E-43
9.45503E-01 6.30663E-43
9.47467E-01 5.83499E-43
9.49397E-01 5.59320E-43
9.51293E-01 3.71246E-43
9.53154E-01 7.09064E-43
9.54981E-01 5.17239E-43
9.56773E-01 6.00391E-43
9.58530E-01 6.86122E-43
9.60252E-01 3.81691E-43
9.61940E-01 2.95565E-43
9.63592E-01 3.86478E-43
9.65209E-01 2.60786E-43
9.66790E-01 4.45933E-43
9.68336E-01 2.49687E-43
9.69846E-01 1.93093E-43
9.71321E-01 1.79297E-43
9.72759E-01 2.45938E-43
9.74162E-01 2.42167E-43
9.75528E-01 1.96574E-43
9.76858E-01 1.22803E-43
9.78152E-01 1.60299E-43
9.79410E-01 2.43641E-43
9.80631E-01 1.49681E-43
9.81815E-01 2.70892E-43
9.82963E-01 9.65042E-44
9.84074E-01 2.38115E-43
9.85148E-01 1.88706E-43
9.86185E-01 2.12960E-43
9.87185E-01 1.76657E-43
9.88148E-01 1.09387E-43
9.89074E-01 7.75413E-44
9.89962E-01 9.33398E-44
9.90814E-01 1.00000E-45
9.91627E-01 1.00000E-45
9.92404E-01 1.00000E-45
9.93143E-01 1.00000E-45
9.93844E-01 1.00000E-45
9.94508E-01 1.00000E-45
9.95134E-01 1.00000E-45
9.95722E-01 1.00000E-45
9.96273E-01 1.00000E-45
9.96786E-01 1.00000E-45
9.97261E-01 1.00000E-45
9.97698E-01 1.00000E-45
9.98097E-01 1.00000E-45
9.98459E-01 1.00000E-45
9.98782E-01 1.00000E-45
9.99067E-01 1.00000E-45
9.99315E-01 1.00000E-45
9.99524E-01 1.00000E-45
9.99695E-01 1.00000E-45
9.99829E-01 1.00000E-45
9.99924E-01 1.00000E-45
9.99981E-01 1.00000E-45
1.00000E+00 1.00000E-45
