 #
 # Subroutine ELSEPA. Elastic scattering of electrons and positrons
 #                    by neutral atoms and positive ions
 #
 # Projectile: positron
 # Kinetic energy = 1.75000E+06 eV = 6.43113E+04 a.u.
 #
 # WARNING: High-energy factorization with free-atom DF screening.
 #          Absorption, polarization and exchange corrections are
 #          switched off.
 #          Phase shifts are calculated for the bare nucleus.
 #          Scattering amplitudes are not evaluated.
 #
 # Element: Ni,  Z =  28,  atomic weight = 5.86934E+01 g/mol
 #
 # Nuclear model: Fermi distribution
 #                Average radius = 4.15828E-13 cm
 #                Skin thickness = 5.46000E-14 cm
 #
 # Number of electrons = 28
 #
 # Total elastic cross section = 2.07267E-18 cm**2 = 7.40165E-02 a0**2
 # 1st transport cross section = 1.98160E-22 cm**2 = 7.07643E-06 a0**2
 # 2nd transport cross section = 5.64389E-22 cm**2 = 2.01547E-05 a0**2
 #
 #
 # Differential cross section:                       MU=(1-COS(THETA))/2
 #
 #  THETA        MU          DCS          DCS        Sherman      error
 #  (deg)                 (cm**2/sr)   (a0**2/sr)    function
 #----------------------------------------------------------------------
0.00000E+00 8.34306E-14
7.61557E-13 8.34305E-14
1.18994E-12 8.34304E-14
1.71346E-12 8.34303E-14
2.33225E-12 8.34302E-14
3.04617E-12 8.34301E-14
3.85530E-12 8.34300E-14
4.75964E-12 8.34298E-14
5.75917E-12 8.34297E-14
6.85391E-12 8.34295E-14
8.04379E-12 8.34294E-14
9.32893E-12 8.34292E-14
1.07092E-11 8.34290E-14
1.21847E-11 8.34287E-14
1.37554E-11 8.34285E-14
1.54213E-11 8.34283E-14
1.71823E-11 8.34280E-14
1.90386E-11 8.34277E-14
2.09900E-11 8.34274E-14
2.30367E-11 8.34271E-14
2.51785E-11 8.34268E-14
2.74156E-11 8.34265E-14
2.97478E-11 8.34262E-14
3.21752E-11 8.34258E-14
3.46979E-11 8.34255E-14
3.73157E-11 8.34251E-14
4.00286E-11 8.34247E-14
4.28368E-11 8.34243E-14
4.57402E-11 8.34239E-14
4.87388E-11 8.34234E-14
5.18325E-11 8.34230E-14
5.50215E-11 8.34225E-14
5.83057E-11 8.34221E-14
6.16850E-11 8.34216E-14
6.51595E-11 8.34211E-14
6.87293E-11 8.34206E-14
7.23943E-11 8.34201E-14
7.61544E-11 8.34195E-14
1.18991E-10 8.34134E-14
1.71347E-10 8.34060E-14
2.33223E-10 8.33973E-14
3.04617E-10 8.33873E-14
3.85531E-10 8.33759E-14
4.75965E-10 8.33632E-14
5.75917E-10 8.33492E-14
6.85389E-10 8.33339E-14
8.04380E-10 8.33173E-14
9.32891E-10 8.32993E-14
1.07092E-09 8.32801E-14
1.21847E-09 8.32595E-14
1.37554E-09 8.32377E-14
1.54213E-09 8.32145E-14
1.71823E-09 8.31900E-14
1.90386E-09 8.31642E-14
2.09900E-09 8.31371E-14
2.30367E-09 8.31087E-14
2.51785E-09 8.30791E-14
2.74156E-09 8.30481E-14
2.97478E-09 8.30158E-14
3.21752E-09 8.29823E-14
3.46978E-09 8.29474E-14
3.73156E-09 8.29113E-14
4.00286E-09 8.28739E-14
4.28368E-09 8.28352E-14
4.57402E-09 8.27952E-14
4.87388E-09 8.27540E-14
5.18326E-09 8.27115E-14
5.50215E-09 8.26677E-14
5.83057E-09 8.26227E-14
6.16850E-09 8.25764E-14
6.51596E-09 8.25288E-14
6.87293E-09 8.24800E-14
7.23942E-09 8.24300E-14
7.61544E-09 8.23787E-14
1.18991E-08 8.17982E-14
1.71347E-08 8.10981E-14
2.33223E-08 8.02836E-14
3.04617E-08 7.93608E-14
3.85531E-08 7.83361E-14
4.75965E-08 7.72165E-14
5.75917E-08 7.60031E-14
6.85389E-08 7.47203E-14
8.04380E-08 7.33621E-14
9.32891E-08 7.19402E-14
1.07092E-07 7.04754E-14
1.21847E-07 6.89454E-14
1.37554E-07 6.73923E-14
1.54213E-07 6.58024E-14
1.71823E-07 6.41888E-14
1.90386E-07 6.25734E-14
2.09900E-07 6.09271E-14
2.30367E-07 5.92956E-14
2.51785E-07 5.76601E-14
2.74156E-07 5.60327E-14
2.97478E-07 5.44322E-14
3.21752E-07 5.28290E-14
3.46978E-07 5.12641E-14
3.73156E-07 4.97172E-14
4.00286E-07 4.81988E-14
4.28368E-07 4.67224E-14
4.57402E-07 4.52617E-14
4.87388E-07 4.38497E-14
5.18325E-07 4.24673E-14
5.50215E-07 4.11227E-14
5.83057E-07 3.98245E-14
6.16850E-07 3.85515E-14
6.51596E-07 3.73282E-14
6.87293E-07 3.61381E-14
7.23942E-07 3.49874E-14
7.61543E-07 3.38810E-14
1.18991E-06 2.47203E-14
1.71347E-06 1.84364E-14
2.33223E-06 1.40944E-14
3.04617E-06 1.10115E-14
3.85531E-06 8.75186E-15
4.75964E-06 7.04208E-15
5.75916E-06 5.65114E-15
6.85388E-06 4.65769E-15
8.04378E-06 3.84219E-15
9.32888E-06 3.17633E-15
1.07092E-05 2.67117E-15
1.21846E-05 2.21720E-15
1.37553E-05 1.86834E-15
1.54212E-05 1.57602E-15
1.71822E-05 1.33258E-15
1.90385E-05 1.13803E-15
2.09899E-05 9.68170E-16
2.30365E-05 8.31186E-16
2.51783E-05 7.15513E-16
2.74153E-05 6.18063E-16
2.97475E-05 5.37370E-16
3.21749E-05 4.67669E-16
3.46974E-05 4.09468E-16
3.73152E-05 3.59762E-16
4.00281E-05 3.17278E-16
4.28362E-05 2.81118E-16
4.57395E-05 2.49738E-16
4.87380E-05 2.22807E-16
5.18317E-05 1.99420E-16
5.50205E-05 1.79073E-16
5.83045E-05 1.61361E-16
6.16838E-05 1.45782E-16
6.51582E-05 1.32133E-16
6.87277E-05 1.20076E-16
7.23925E-05 1.09408E-16
7.61524E-05 9.99550E-17
9.21439E-05 7.11507E-17
1.09658E-04 5.22168E-17
1.28695E-04 3.92696E-17
1.49255E-04 3.01153E-17
1.71338E-04 2.34895E-17
1.94942E-04 1.85741E-17
2.20070E-04 1.48676E-17
2.46720E-04 1.20286E-17
2.74892E-04 9.82375E-18
3.04586E-04 8.09534E-18
3.35803E-04 6.72452E-18
3.68542E-04 5.62823E-18
4.02802E-04 4.74376E-18
4.38585E-04 4.02402E-18
4.75889E-04 3.43444E-18
5.14715E-04 2.94699E-18
5.55063E-04 2.54408E-18
5.96931E-04 2.20700E-18
6.40321E-04 1.92361E-18
6.85233E-04 1.68464E-18
7.31665E-04 1.48104E-18
7.79618E-04 1.30757E-18
8.29092E-04 1.15869E-18
8.80086E-04 1.03043E-18
9.32601E-04 9.19554E-19
9.86636E-04 8.23083E-19
1.04219E-03 7.39051E-19
1.09927E-03 6.65463E-19
1.15786E-03 6.00833E-19
1.21797E-03 5.43917E-19
1.27961E-03 4.93544E-19
1.34276E-03 4.48922E-19
1.40743E-03 4.09221E-19
1.47362E-03 3.73823E-19
1.54133E-03 3.42196E-19
1.61056E-03 3.13822E-19
1.68131E-03 2.88354E-19
1.75357E-03 2.65408E-19
1.82735E-03 2.44703E-19
1.90265E-03 2.25989E-19
1.97947E-03 2.09015E-19
2.05780E-03 1.93619E-19
2.13765E-03 1.79605E-19
2.21902E-03 1.66838E-19
2.30190E-03 1.55191E-19
2.38630E-03 1.44531E-19
2.47222E-03 1.34778E-19
2.55965E-03 1.25828E-19
2.64859E-03 1.17608E-19
2.73905E-03 1.10051E-19
2.83103E-03 1.03084E-19
2.92452E-03 9.66636E-20
3.01952E-03 9.07307E-20
3.11604E-03 8.52458E-20
3.21407E-03 8.01700E-20
3.31362E-03 7.54616E-20
3.41468E-03 7.10959E-20
3.51725E-03 6.70382E-20
3.62133E-03 6.32655E-20
3.72692E-03 5.97549E-20
3.83403E-03 5.64812E-20
3.94265E-03 5.34298E-20
4.05278E-03 5.05795E-20
4.16442E-03 4.79164E-20
4.27757E-03 4.54264E-20
4.39223E-03 4.30939E-20
4.50840E-03 4.09099E-20
4.62608E-03 3.88610E-20
4.74527E-03 3.69384E-20
4.86597E-03 3.51332E-20
4.98817E-03 3.34356E-20
5.11188E-03 3.18396E-20
5.23711E-03 3.03367E-20
5.36383E-03 2.89212E-20
5.49207E-03 2.75872E-20
5.62181E-03 2.63282E-20
5.75306E-03 2.51405E-20
5.88581E-03 2.40183E-20
6.02007E-03 2.29578E-20
6.15583E-03 2.19551E-20
6.29310E-03 2.10059E-20
6.43187E-03 2.01075E-20
6.57214E-03 1.92561E-20
6.71392E-03 1.84492E-20
6.85720E-03 1.76840E-20
7.00198E-03 1.69576E-20
7.14827E-03 1.62682E-20
7.29605E-03 1.56131E-20
7.44534E-03 1.49905E-20
7.59612E-03 1.43986E-20
7.97965E-03 1.30409E-20
8.37255E-03 1.18387E-20
8.77480E-03 1.07712E-20
9.18641E-03 9.82075E-21
9.60736E-03 8.97232E-21
1.00376E-02 8.21309E-21
1.04773E-02 7.53208E-21
1.09262E-02 6.91983E-21
1.13844E-02 6.36822E-21
1.18520E-02 5.87020E-21
1.23288E-02 5.41966E-21
1.28150E-02 5.01129E-21
1.33104E-02 4.64046E-21
1.38150E-02 4.30311E-21
1.43290E-02 3.99570E-21
1.48521E-02 3.71510E-21
1.53845E-02 3.45856E-21
1.59262E-02 3.22367E-21
1.64770E-02 3.00826E-21
1.70371E-02 2.81045E-21
1.76063E-02 2.62853E-21
1.81848E-02 2.46101E-21
1.87724E-02 2.30654E-21
1.93692E-02 2.16393E-21
1.99751E-02 2.03211E-21
2.05901E-02 1.91011E-21
2.12143E-02 1.79708E-21
2.18476E-02 1.69223E-21
2.24900E-02 1.59486E-21
2.31415E-02 1.50436E-21
2.38021E-02 1.42014E-21
2.44717E-02 1.34170E-21
2.51504E-02 1.26856E-21
2.58382E-02 1.20030E-21
2.65349E-02 1.13655E-21
2.72407E-02 1.07694E-21
2.79555E-02 1.02116E-21
2.86793E-02 9.68919E-22
2.94120E-02 9.19954E-22
3.01537E-02 8.74022E-22
3.09043E-02 8.30900E-22
3.16639E-02 7.90386E-22
3.24324E-02 7.52292E-22
3.32098E-02 7.16450E-22
3.39961E-02 6.82700E-22
3.47912E-02 6.50899E-22
3.55952E-02 6.20915E-22
3.64081E-02 5.92624E-22
3.72297E-02 5.65913E-22
3.80602E-02 5.40678E-22
3.88995E-02 5.16823E-22
3.97476E-02 4.94259E-22
4.06044E-02 4.72902E-22
4.14700E-02 4.52677E-22
4.23443E-02 4.33513E-22
4.32273E-02 4.15344E-22
4.41190E-02 3.98109E-22
4.50194E-02 3.81750E-22
4.59284E-02 3.66216E-22
4.68461E-02 3.51457E-22
4.87074E-02 3.24085E-22
5.06030E-02 2.99304E-22
5.25328E-02 2.76826E-22
5.44967E-02 2.56401E-22
5.64946E-02 2.37807E-22
5.85262E-02 2.20853E-22
6.05914E-02 2.05370E-22
6.26901E-02 1.91206E-22
6.48222E-02 1.78231E-22
6.69873E-02 1.66327E-22
6.91854E-02 1.55389E-22
7.14163E-02 1.45327E-22
7.36799E-02 1.36058E-22
7.59760E-02 1.27508E-22
7.83043E-02 1.19611E-22
8.06647E-02 1.12310E-22
8.30571E-02 1.05551E-22
8.54812E-02 9.92864E-23
8.79369E-02 9.34744E-23
9.04240E-02 8.80763E-23
9.29422E-02 8.30575E-23
9.54915E-02 7.83865E-23
9.80716E-02 7.40350E-23
1.00682E-01 6.99773E-23
1.03323E-01 6.61901E-23
1.05995E-01 6.26522E-23
1.08696E-01 5.93442E-23
1.11427E-01 5.62485E-23
1.14188E-01 5.33492E-23
1.16978E-01 5.06315E-23
1.19797E-01 4.80821E-23
1.22645E-01 4.56886E-23
1.25522E-01 4.34400E-23
1.28428E-01 4.13257E-23
1.31361E-01 3.93365E-23
1.34323E-01 3.74635E-23
1.37313E-01 3.56989E-23
1.40330E-01 3.40351E-23
1.43375E-01 3.24655E-23
1.46447E-01 3.09837E-23
1.49545E-01 2.95839E-23
1.52671E-01 2.82609E-23
1.55823E-01 2.70096E-23
1.59001E-01 2.58255E-23
1.62205E-01 2.47044E-23
1.65435E-01 2.36422E-23
1.68690E-01 2.26353E-23
1.71970E-01 2.16804E-23
1.75276E-01 2.07743E-23
1.78606E-01 1.99140E-23
1.81961E-01 1.90968E-23
1.85340E-01 1.83202E-23
1.88743E-01 1.75818E-23
1.92169E-01 1.68794E-23
1.95619E-01 1.62109E-23
1.99092E-01 1.55744E-23
2.02589E-01 1.49681E-23
2.06107E-01 1.43903E-23
2.09649E-01 1.38394E-23
2.13212E-01 1.33140E-23
2.16797E-01 1.28126E-23
2.20404E-01 1.23340E-23
2.24032E-01 1.18769E-23
2.27680E-01 1.14403E-23
2.31350E-01 1.10230E-23
2.35040E-01 1.06240E-23
2.38751E-01 1.02424E-23
2.42481E-01 9.87726E-24
2.46231E-01 9.52779E-24
2.50000E-01 9.19318E-24
2.53788E-01 8.87269E-24
2.57595E-01 8.56562E-24
2.61421E-01 8.27130E-24
2.65264E-01 7.98911E-24
2.69126E-01 7.71846E-24
2.73005E-01 7.45881E-24
2.76901E-01 7.20961E-24
2.80814E-01 6.97039E-24
2.84744E-01 6.74066E-24
2.88691E-01 6.51998E-24
2.92653E-01 6.30795E-24
2.96632E-01 6.10414E-24
3.00625E-01 5.90820E-24
3.04634E-01 5.71977E-24
3.08658E-01 5.53850E-24
3.12697E-01 5.36408E-24
3.16749E-01 5.19620E-24
3.20816E-01 5.03458E-24
3.24896E-01 4.87894E-24
3.28990E-01 4.72901E-24
3.33097E-01 4.58456E-24
3.37216E-01 4.44535E-24
3.41348E-01 4.31116E-24
3.45492E-01 4.18176E-24
3.49647E-01 4.05697E-24
3.53814E-01 3.93659E-24
3.57992E-01 3.82044E-24
3.62181E-01 3.70833E-24
3.66381E-01 3.60012E-24
3.70590E-01 3.49563E-24
3.74810E-01 3.39472E-24
3.79039E-01 3.29724E-24
3.83277E-01 3.20306E-24
3.87524E-01 3.11204E-24
3.91780E-01 3.02407E-24
3.96044E-01 2.93902E-24
4.00316E-01 2.85678E-24
4.04596E-01 2.77723E-24
4.08882E-01 2.70028E-24
4.13176E-01 2.62583E-24
4.17476E-01 2.55378E-24
4.21783E-01 2.48404E-24
4.26095E-01 2.41653E-24
4.30413E-01 2.35116E-24
4.34737E-01 2.28784E-24
4.39065E-01 2.22652E-24
4.43398E-01 2.16710E-24
4.47736E-01 2.10953E-24
4.52077E-01 2.05374E-24
4.56422E-01 1.99965E-24
4.60770E-01 1.94722E-24
4.65122E-01 1.89638E-24
4.69476E-01 1.84707E-24
4.73832E-01 1.79925E-24
4.78190E-01 1.75285E-24
4.82550E-01 1.70784E-24
4.86912E-01 1.66415E-24
4.91274E-01 1.62175E-24
4.95637E-01 1.58059E-24
5.00000E-01 1.54063E-24
5.04363E-01 1.50183E-24
5.08726E-01 1.46415E-24
5.13088E-01 1.42755E-24
5.17450E-01 1.39199E-24
5.21810E-01 1.35744E-24
5.26168E-01 1.32388E-24
5.30524E-01 1.29125E-24
5.34878E-01 1.25954E-24
5.39230E-01 1.22872E-24
5.43578E-01 1.19875E-24
5.47923E-01 1.16961E-24
5.52264E-01 1.14127E-24
5.56602E-01 1.11370E-24
5.60935E-01 1.08689E-24
5.65263E-01 1.06080E-24
5.69587E-01 1.03542E-24
5.73905E-01 1.01073E-24
5.78217E-01 9.86687E-25
5.82524E-01 9.63290E-25
5.86824E-01 9.40514E-25
5.91118E-01 9.18340E-25
5.95404E-01 8.96749E-25
5.99684E-01 8.75725E-25
6.03956E-01 8.55249E-25
6.08220E-01 8.35306E-25
6.12476E-01 8.15878E-25
6.16723E-01 7.96950E-25
6.20961E-01 7.78509E-25
6.25190E-01 7.60539E-25
6.29410E-01 7.43027E-25
6.33619E-01 7.25960E-25
6.37819E-01 7.09323E-25
6.42008E-01 6.93106E-25
6.46186E-01 6.77295E-25
6.50353E-01 6.61879E-25
6.54508E-01 6.46847E-25
6.58652E-01 6.32188E-25
6.62784E-01 6.17890E-25
6.66903E-01 6.03945E-25
6.71010E-01 5.90342E-25
6.75104E-01 5.77072E-25
6.79184E-01 5.64125E-25
6.83251E-01 5.51492E-25
6.87303E-01 5.39165E-25
6.91342E-01 5.27135E-25
6.95366E-01 5.15394E-25
6.99375E-01 5.03934E-25
7.03368E-01 4.92748E-25
7.07347E-01 4.81828E-25
7.11309E-01 4.71167E-25
7.15256E-01 4.60759E-25
7.19186E-01 4.50596E-25
7.23099E-01 4.40672E-25
7.26995E-01 4.30980E-25
7.30874E-01 4.21515E-25
7.34736E-01 4.12271E-25
7.38579E-01 4.03241E-25
7.42405E-01 3.94421E-25
7.46212E-01 3.85805E-25
7.50000E-01 3.77387E-25
7.53769E-01 3.69163E-25
7.57519E-01 3.61128E-25
7.61249E-01 3.53277E-25
7.64960E-01 3.45604E-25
7.68650E-01 3.38107E-25
7.72320E-01 3.30780E-25
7.75968E-01 3.23619E-25
7.79596E-01 3.16620E-25
7.83203E-01 3.09779E-25
7.86788E-01 3.03092E-25
7.90351E-01 2.96555E-25
7.93893E-01 2.90166E-25
7.97411E-01 2.83919E-25
8.00908E-01 2.77812E-25
8.04381E-01 2.71842E-25
8.07831E-01 2.66004E-25
8.11257E-01 2.60297E-25
8.14660E-01 2.54717E-25
8.18039E-01 2.49260E-25
8.21394E-01 2.43924E-25
8.24724E-01 2.38707E-25
8.28030E-01 2.33605E-25
8.31310E-01 2.28616E-25
8.34565E-01 2.23737E-25
8.37795E-01 2.18966E-25
8.40999E-01 2.14300E-25
8.44177E-01 2.09737E-25
8.47329E-01 2.05275E-25
8.50455E-01 2.00911E-25
8.53553E-01 1.96643E-25
8.56625E-01 1.92469E-25
8.59670E-01 1.88387E-25
8.62687E-01 1.84395E-25
8.65677E-01 1.80491E-25
8.68639E-01 1.76673E-25
8.71572E-01 1.72939E-25
8.74478E-01 1.69288E-25
8.77355E-01 1.65717E-25
8.80203E-01 1.62226E-25
8.83022E-01 1.58812E-25
8.85812E-01 1.55473E-25
8.88573E-01 1.52209E-25
8.91304E-01 1.49018E-25
8.94005E-01 1.45897E-25
8.96677E-01 1.42847E-25
8.99318E-01 1.39864E-25
9.01928E-01 1.36949E-25
9.04508E-01 1.34100E-25
9.07058E-01 1.31314E-25
9.09576E-01 1.28592E-25
9.12063E-01 1.25932E-25
9.14519E-01 1.23332E-25
9.16943E-01 1.20792E-25
9.19335E-01 1.18311E-25
9.21696E-01 1.15887E-25
9.24024E-01 1.13519E-25
9.26320E-01 1.11206E-25
9.28584E-01 1.08947E-25
9.30815E-01 1.06742E-25
9.33013E-01 1.04589E-25
9.35178E-01 1.02487E-25
9.37310E-01 1.00436E-25
9.39409E-01 9.84349E-26
9.41474E-01 9.64821E-26
9.43505E-01 9.45773E-26
9.45503E-01 9.27196E-26
9.47467E-01 9.09082E-26
9.49397E-01 8.91424E-26
9.51293E-01 8.74215E-26
9.53154E-01 8.57447E-26
9.54981E-01 8.41114E-26
9.56773E-01 8.25209E-26
9.58530E-01 8.09724E-26
9.60252E-01 7.94655E-26
9.61940E-01 7.79994E-26
9.63592E-01 7.65736E-26
9.65209E-01 7.51875E-26
9.66790E-01 7.38406E-26
9.68336E-01 7.25322E-26
9.69846E-01 7.12619E-26
9.71321E-01 7.00292E-26
9.72759E-01 6.88335E-26
9.74162E-01 6.76745E-26
9.75528E-01 6.65516E-26
9.76858E-01 6.54643E-26
9.78152E-01 6.44123E-26
9.79410E-01 6.33952E-26
9.80631E-01 6.24125E-26
9.81815E-01 6.14638E-26
9.82963E-01 6.05489E-26
9.84074E-01 5.96672E-26
9.85148E-01 5.88186E-26
9.86185E-01 5.80026E-26
9.87185E-01 5.72189E-26
9.88148E-01 5.64673E-26
9.89074E-01 5.57474E-26
9.89962E-01 5.50590E-26
9.90814E-01 5.44017E-26
9.91627E-01 5.37755E-26
9.92404E-01 5.31799E-26
9.93143E-01 5.26148E-26
9.93844E-01 5.20800E-26
9.94508E-01 5.15752E-26
9.95134E-01 5.11002E-26
9.95722E-01 5.06550E-26
9.96273E-01 5.02393E-26
9.96786E-01 4.98529E-26
9.97261E-01 4.94957E-26
9.97698E-01 4.91676E-26
9.98097E-01 4.88685E-26
9.98459E-01 4.85981E-26
9.98782E-01 4.83565E-26
9.99067E-01 4.81436E-26
9.99315E-01 4.79592E-26
9.99524E-01 4.78033E-26
9.99695E-01 4.76758E-26
9.99829E-01 4.75767E-26
9.99924E-01 4.75059E-26
9.99981E-01 4.74635E-26
1.00000E+00 4.74493E-26
