 #
 # Subroutine ELSEPA. Elastic scattering of electrons and positrons
 #                    by neutral atoms and positive ions
 #
 # Projectile: positron
 # Kinetic energy = 4.50000E+06 eV = 1.65372E+05 a.u.
 #
 # WARNING: High-energy factorization with free-atom DF screening.
 #          Absorption, polarization and exchange corrections are
 #          switched off.
 #          Phase shifts are calculated for the bare nucleus.
 #          Scattering amplitudes are not evaluated.
 #
 # Element: Ni,  Z =  28,  atomic weight = 5.86934E+01 g/mol
 #
 # Nuclear model: Fermi distribution
 #                Average radius = 4.15828E-13 cm
 #                Skin thickness = 5.46000E-14 cm
 #
 # Number of electrons = 28
 #
 # Total elastic cross section = 1.98725E-18 cm**2 = 7.09660E-02 a0**2
 # 1st transport cross section = 4.36055E-23 cm**2 = 1.55718E-06 a0**2
 # 2nd transport cross section = 1.25478E-22 cm**2 = 4.48091E-06 a0**2
 #
 #
 # Differential cross section:                       MU=(1-COS(THETA))/2
 #
 #  THETA        MU          DCS          DCS        Sherman      error
 #  (deg)                 (cm**2/sr)   (a0**2/sr)    function
 #----------------------------------------------------------------------
0.00000E+00 4.09801E-13
7.61557E-13 4.09798E-13
1.18994E-12 4.09797E-13
1.71346E-12 4.09795E-13
2.33225E-12 4.09793E-13
3.04617E-12 4.09790E-13
3.85530E-12 4.09787E-13
4.75964E-12 4.09784E-13
5.75917E-12 4.09780E-13
6.85391E-12 4.09776E-13
8.04379E-12 4.09772E-13
9.32893E-12 4.09768E-13
1.07092E-11 4.09763E-13
1.21847E-11 4.09757E-13
1.37554E-11 4.09752E-13
1.54213E-11 4.09746E-13
1.71823E-11 4.09740E-13
1.90386E-11 4.09733E-13
2.09900E-11 4.09726E-13
2.30367E-11 4.09719E-13
2.51785E-11 4.09711E-13
2.74156E-11 4.09703E-13
2.97478E-11 4.09695E-13
3.21752E-11 4.09687E-13
3.46979E-11 4.09678E-13
3.73157E-11 4.09669E-13
4.00286E-11 4.09659E-13
4.28368E-11 4.09649E-13
4.57402E-11 4.09639E-13
4.87388E-11 4.09628E-13
5.18325E-11 4.09617E-13
5.50215E-11 4.09606E-13
5.83057E-11 4.09595E-13
6.16850E-11 4.09583E-13
6.51595E-11 4.09570E-13
6.87293E-11 4.09558E-13
7.23943E-11 4.09545E-13
7.61544E-11 4.09532E-13
1.18991E-10 4.09381E-13
1.71347E-10 4.09198E-13
2.33223E-10 4.08981E-13
3.04617E-10 4.08732E-13
3.85531E-10 4.08450E-13
4.75965E-10 4.08135E-13
5.75917E-10 4.07787E-13
6.85389E-10 4.07407E-13
8.04380E-10 4.06995E-13
9.32891E-10 4.06550E-13
1.07092E-09 4.06074E-13
1.21847E-09 4.05566E-13
1.37554E-09 4.05026E-13
1.54213E-09 4.04455E-13
1.71823E-09 4.03852E-13
1.90386E-09 4.03219E-13
2.09900E-09 4.02555E-13
2.30367E-09 4.01861E-13
2.51785E-09 4.01137E-13
2.74156E-09 4.00382E-13
2.97478E-09 3.99599E-13
3.21752E-09 3.98785E-13
3.46978E-09 3.97943E-13
3.73156E-09 3.97073E-13
4.00286E-09 3.96174E-13
4.28368E-09 3.95247E-13
4.57402E-09 3.94292E-13
4.87388E-09 3.93310E-13
5.18326E-09 3.92302E-13
5.50215E-09 3.91266E-13
5.83057E-09 3.90205E-13
6.16850E-09 3.89118E-13
6.51596E-09 3.88005E-13
6.87293E-09 3.86868E-13
7.23942E-09 3.85705E-13
7.61544E-09 3.84519E-13
1.18991E-08 3.71386E-13
1.71347E-08 3.56356E-13
2.33223E-08 3.39875E-13
3.04617E-08 3.22410E-13
3.85531E-08 3.04398E-13
4.75965E-08 2.86229E-13
5.75917E-08 2.68232E-13
6.85389E-08 2.50639E-13
8.04380E-08 2.33705E-13
9.32891E-08 2.17581E-13
1.07092E-07 2.02363E-13
1.21847E-07 1.88107E-13
1.37554E-07 1.74830E-13
1.54213E-07 1.62525E-13
1.71823E-07 1.51160E-13
1.90386E-07 1.40694E-13
2.09900E-07 1.31074E-13
2.30367E-07 1.22240E-13
2.51785E-07 1.14124E-13
2.74156E-07 1.06680E-13
2.97478E-07 9.98512E-14
3.21752E-07 9.35817E-14
3.46978E-07 8.78207E-14
3.73156E-07 8.25207E-14
4.00286E-07 7.76383E-14
4.28368E-07 7.31339E-14
4.57402E-07 6.89718E-14
4.87388E-07 6.51198E-14
5.18325E-07 6.15470E-14
5.50215E-07 5.82240E-14
5.83057E-07 5.51334E-14
6.16850E-07 5.22542E-14
6.51596E-07 4.95676E-14
6.87293E-07 4.70570E-14
7.23942E-07 4.47073E-14
7.61543E-07 4.25050E-14
1.18991E-06 2.60586E-14
1.71347E-06 1.68748E-14
2.33223E-06 1.12135E-14
3.04617E-06 7.60893E-15
3.85531E-06 5.26692E-15
4.75964E-06 3.72037E-15
5.75916E-06 2.68264E-15
6.85388E-06 1.97365E-15
8.04378E-06 1.48280E-15
9.32888E-06 1.13604E-15
1.07092E-05 8.86186E-16
1.21846E-05 7.02684E-16
1.37553E-05 5.65433E-16
1.54212E-05 4.60995E-16
1.71822E-05 3.80239E-16
1.90385E-05 3.16838E-16
2.09899E-05 2.66467E-16
2.30365E-05 2.25902E-16
2.51783E-05 1.92805E-16
2.74153E-05 1.65599E-16
2.97475E-05 1.43045E-16
3.21749E-05 1.24205E-16
3.46974E-05 1.08358E-16
3.73152E-05 9.49426E-17
4.00281E-05 8.35201E-17
4.28362E-05 7.37420E-17
4.57395E-05 6.53308E-17
4.87380E-05 5.80640E-17
5.18317E-05 5.17601E-17
5.50205E-05 4.62702E-17
5.83045E-05 4.14773E-17
6.16838E-05 3.72797E-17
6.51582E-05 3.35924E-17
6.87277E-05 3.03435E-17
7.23925E-05 2.74727E-17
7.61524E-05 2.49290E-17
9.21439E-05 1.72510E-17
1.09658E-04 1.22945E-17
1.28695E-04 8.99292E-18
1.49255E-04 6.72752E-18
1.71338E-04 5.13324E-18
1.94942E-04 3.98515E-18
2.20070E-04 3.14154E-18
2.46720E-04 2.51040E-18
2.74892E-04 2.03046E-18
3.04586E-04 1.66021E-18
3.35803E-04 1.37081E-18
3.68542E-04 1.14189E-18
4.02802E-04 9.58849E-19
4.38585E-04 8.11080E-19
4.75889E-04 6.90721E-19
5.14715E-04 5.91876E-19
5.55063E-04 5.10086E-19
5.96931E-04 4.41934E-19
6.40321E-04 3.84779E-19
6.85233E-04 3.36556E-19
7.31665E-04 2.95642E-19
7.79618E-04 2.60748E-19
8.29092E-04 2.30839E-19
8.80086E-04 2.05086E-19
9.32601E-04 1.82816E-19
9.86636E-04 1.63480E-19
1.04219E-03 1.46628E-19
1.09927E-03 1.31885E-19
1.15786E-03 1.18944E-19
1.21797E-03 1.07548E-19
1.27961E-03 9.74795E-20
1.34276E-03 8.85587E-20
1.40743E-03 8.06321E-20
1.47362E-03 7.35698E-20
1.54133E-03 6.72612E-20
1.61056E-03 6.16124E-20
1.68131E-03 5.65424E-20
1.75357E-03 5.19817E-20
1.82735E-03 4.78702E-20
1.90265E-03 4.41559E-20
1.97947E-03 4.07937E-20
2.05780E-03 3.77446E-20
2.13765E-03 3.49741E-20
2.21902E-03 3.24523E-20
2.30190E-03 3.01531E-20
2.38630E-03 2.80531E-20
2.47222E-03 2.61323E-20
2.55965E-03 2.43725E-20
2.64859E-03 2.27579E-20
2.73905E-03 2.12744E-20
2.83103E-03 1.99094E-20
2.92452E-03 1.86517E-20
3.01952E-03 1.74915E-20
3.11604E-03 1.64199E-20
3.21407E-03 1.54287E-20
3.31362E-03 1.45110E-20
3.41468E-03 1.36603E-20
3.51725E-03 1.28708E-20
3.62133E-03 1.21373E-20
3.72692E-03 1.14552E-20
3.83403E-03 1.08201E-20
3.94265E-03 1.02283E-20
4.05278E-03 9.67631E-21
4.16442E-03 9.16090E-21
4.27757E-03 8.67923E-21
4.39223E-03 8.22870E-21
4.50840E-03 7.80692E-21
4.62608E-03 7.41172E-21
4.74527E-03 7.04112E-21
4.86597E-03 6.69332E-21
4.98817E-03 6.36666E-21
5.11188E-03 6.05961E-21
5.23711E-03 5.77078E-21
5.36383E-03 5.49889E-21
5.49207E-03 5.24277E-21
5.62181E-03 5.00133E-21
5.75306E-03 4.77358E-21
5.88581E-03 4.55860E-21
6.02007E-03 4.35553E-21
6.15583E-03 4.16361E-21
6.29310E-03 3.98210E-21
6.43187E-03 3.81034E-21
6.57214E-03 3.64770E-21
6.71392E-03 3.49362E-21
6.85720E-03 3.34755E-21
7.00198E-03 3.20901E-21
7.14827E-03 3.07753E-21
7.29605E-03 2.95269E-21
7.44534E-03 2.83409E-21
7.59612E-03 2.72136E-21
7.97965E-03 2.46302E-21
8.37255E-03 2.23450E-21
8.77480E-03 2.03177E-21
9.18641E-03 1.85143E-21
9.60736E-03 1.69058E-21
1.00376E-02 1.54675E-21
1.04773E-02 1.41783E-21
1.09262E-02 1.30201E-21
1.13844E-02 1.19773E-21
1.18520E-02 1.10363E-21
1.23288E-02 1.01855E-21
1.28150E-02 9.41479E-22
1.33104E-02 8.71525E-22
1.38150E-02 8.07917E-22
1.43290E-02 7.49979E-22
1.48521E-02 6.97117E-22
1.53845E-02 6.48807E-22
1.59262E-02 6.04588E-22
1.64770E-02 5.64053E-22
1.70371E-02 5.26841E-22
1.76063E-02 4.92630E-22
1.81848E-02 4.61136E-22
1.87724E-02 4.32105E-22
1.93692E-02 4.05310E-22
1.99751E-02 3.80548E-22
2.05901E-02 3.57637E-22
2.12143E-02 3.36414E-22
2.18476E-02 3.16732E-22
2.24900E-02 2.98460E-22
2.31415E-02 2.81479E-22
2.38021E-02 2.65680E-22
2.44717E-02 2.50967E-22
2.51504E-02 2.37252E-22
2.58382E-02 2.24455E-22
2.65349E-02 2.12503E-22
2.72407E-02 2.01331E-22
2.79555E-02 1.90878E-22
2.86793E-02 1.81090E-22
2.94120E-02 1.71917E-22
3.01537E-02 1.63313E-22
3.09043E-02 1.55237E-22
3.16639E-02 1.47650E-22
3.24324E-02 1.40518E-22
3.32098E-02 1.33807E-22
3.39961E-02 1.27490E-22
3.47912E-02 1.21537E-22
3.55952E-02 1.15926E-22
3.64081E-02 1.10632E-22
3.72297E-02 1.05634E-22
3.80602E-02 1.00913E-22
3.88995E-02 9.64503E-23
3.97476E-02 9.22296E-23
4.06044E-02 8.82353E-23
4.14700E-02 8.44530E-23
4.23443E-02 8.08694E-23
4.32273E-02 7.74722E-23
4.41190E-02 7.42499E-23
4.50194E-02 7.11918E-23
4.59284E-02 6.82881E-23
4.68461E-02 6.55295E-23
4.87074E-02 6.04141E-23
5.06030E-02 5.57836E-23
5.25328E-02 5.15841E-23
5.44967E-02 4.77687E-23
5.64946E-02 4.42960E-23
5.85262E-02 4.11301E-23
6.05914E-02 3.82391E-23
6.26901E-02 3.55950E-23
6.48222E-02 3.31730E-23
6.69873E-02 3.09512E-23
6.91854E-02 2.89103E-23
7.14163E-02 2.70329E-23
7.36799E-02 2.53036E-23
7.59760E-02 2.37087E-23
7.83043E-02 2.22360E-23
8.06647E-02 2.08744E-23
8.30571E-02 1.96141E-23
8.54812E-02 1.84462E-23
8.79369E-02 1.73628E-23
9.04240E-02 1.63567E-23
9.29422E-02 1.54213E-23
9.54915E-02 1.45510E-23
9.80716E-02 1.37402E-23
1.00682E-01 1.29843E-23
1.03323E-01 1.22789E-23
1.05995E-01 1.16200E-23
1.08696E-01 1.10039E-23
1.11427E-01 1.04275E-23
1.14188E-01 9.88777E-24
1.16978E-01 9.38188E-24
1.19797E-01 8.90738E-24
1.22645E-01 8.46196E-24
1.25522E-01 8.04354E-24
1.28428E-01 7.65019E-24
1.31361E-01 7.28015E-24
1.34323E-01 6.93178E-24
1.37313E-01 6.60359E-24
1.40330E-01 6.29421E-24
1.43375E-01 6.00238E-24
1.46447E-01 5.72691E-24
1.49545E-01 5.46673E-24
1.52671E-01 5.22085E-24
1.55823E-01 4.98833E-24
1.59001E-01 4.76832E-24
1.62205E-01 4.56004E-24
1.65435E-01 4.36274E-24
1.68690E-01 4.17574E-24
1.71970E-01 3.99842E-24
1.75276E-01 3.83018E-24
1.78606E-01 3.67047E-24
1.81961E-01 3.51880E-24
1.85340E-01 3.37467E-24
1.88743E-01 3.23765E-24
1.92169E-01 3.10733E-24
1.95619E-01 2.98332E-24
1.99092E-01 2.86526E-24
2.02589E-01 2.75282E-24
2.06107E-01 2.64568E-24
2.09649E-01 2.54355E-24
2.13212E-01 2.44615E-24
2.16797E-01 2.35323E-24
2.20404E-01 2.26454E-24
2.24032E-01 2.17986E-24
2.27680E-01 2.09897E-24
2.31350E-01 2.02167E-24
2.35040E-01 1.94779E-24
2.38751E-01 1.87713E-24
2.42481E-01 1.80953E-24
2.46231E-01 1.74485E-24
2.50000E-01 1.68292E-24
2.53788E-01 1.62361E-24
2.57595E-01 1.56680E-24
2.61421E-01 1.51236E-24
2.65264E-01 1.46017E-24
2.69126E-01 1.41013E-24
2.73005E-01 1.36212E-24
2.76901E-01 1.31606E-24
2.80814E-01 1.27184E-24
2.84744E-01 1.22939E-24
2.88691E-01 1.18862E-24
2.92653E-01 1.14945E-24
2.96632E-01 1.11181E-24
3.00625E-01 1.07563E-24
3.04634E-01 1.04084E-24
3.08658E-01 1.00738E-24
3.12697E-01 9.75192E-25
3.16749E-01 9.44215E-25
3.20816E-01 9.14398E-25
3.24896E-01 8.85689E-25
3.28990E-01 8.58041E-25
3.33097E-01 8.31408E-25
3.37216E-01 8.05745E-25
3.41348E-01 7.81011E-25
3.45492E-01 7.57167E-25
3.49647E-01 7.34176E-25
3.53814E-01 7.12001E-25
3.57992E-01 6.90609E-25
3.62181E-01 6.69968E-25
3.66381E-01 6.50047E-25
3.70590E-01 6.30816E-25
3.74810E-01 6.12246E-25
3.79039E-01 5.94312E-25
3.83277E-01 5.76988E-25
3.87524E-01 5.60250E-25
3.91780E-01 5.44075E-25
3.96044E-01 5.28440E-25
4.00316E-01 5.13325E-25
4.04596E-01 4.98709E-25
4.08882E-01 4.84573E-25
4.13176E-01 4.70898E-25
4.17476E-01 4.57668E-25
4.21783E-01 4.44864E-25
4.26095E-01 4.32472E-25
4.30413E-01 4.20475E-25
4.34737E-01 4.08859E-25
4.39065E-01 3.97610E-25
4.43398E-01 3.86714E-25
4.47736E-01 3.76159E-25
4.52077E-01 3.65931E-25
4.56422E-01 3.56020E-25
4.60770E-01 3.46413E-25
4.65122E-01 3.37100E-25
4.69476E-01 3.28071E-25
4.73832E-01 3.19314E-25
4.78190E-01 3.10821E-25
4.82550E-01 3.02583E-25
4.86912E-01 2.94590E-25
4.91274E-01 2.86834E-25
4.95637E-01 2.79307E-25
5.00000E-01 2.72002E-25
5.04363E-01 2.64909E-25
5.08726E-01 2.58023E-25
5.13088E-01 2.51336E-25
5.17450E-01 2.44842E-25
5.21810E-01 2.38533E-25
5.26168E-01 2.32405E-25
5.30524E-01 2.26451E-25
5.34878E-01 2.20665E-25
5.39230E-01 2.15041E-25
5.43578E-01 2.09576E-25
5.47923E-01 2.04262E-25
5.52264E-01 1.99096E-25
5.56602E-01 1.94073E-25
5.60935E-01 1.89188E-25
5.65263E-01 1.84436E-25
5.69587E-01 1.79815E-25
5.73905E-01 1.75318E-25
5.78217E-01 1.70943E-25
5.82524E-01 1.66686E-25
5.86824E-01 1.62543E-25
5.91118E-01 1.58511E-25
5.95404E-01 1.54585E-25
5.99684E-01 1.50764E-25
6.03956E-01 1.47043E-25
6.08220E-01 1.43420E-25
6.12476E-01 1.39892E-25
6.16723E-01 1.36455E-25
6.20961E-01 1.33108E-25
6.25190E-01 1.29847E-25
6.29410E-01 1.26670E-25
6.33619E-01 1.23575E-25
6.37819E-01 1.20559E-25
6.42008E-01 1.17619E-25
6.46186E-01 1.14754E-25
6.50353E-01 1.11961E-25
6.54508E-01 1.09239E-25
6.58652E-01 1.06584E-25
6.62784E-01 1.03996E-25
6.66903E-01 1.01473E-25
6.71010E-01 9.90122E-26
6.75104E-01 9.66121E-26
6.79184E-01 9.42713E-26
6.83251E-01 9.19879E-26
6.87303E-01 8.97604E-26
6.91342E-01 8.75872E-26
6.95366E-01 8.54669E-26
6.99375E-01 8.33979E-26
7.03368E-01 8.13789E-26
7.07347E-01 7.94086E-26
7.11309E-01 7.74856E-26
7.15256E-01 7.56086E-26
7.19186E-01 7.37764E-26
7.23099E-01 7.19878E-26
7.26995E-01 7.02417E-26
7.30874E-01 6.85368E-26
7.34736E-01 6.68722E-26
7.38579E-01 6.52468E-26
7.42405E-01 6.36595E-26
7.46212E-01 6.21093E-26
7.50000E-01 6.05954E-26
7.53769E-01 5.91167E-26
7.57519E-01 5.76723E-26
7.61249E-01 5.62614E-26
7.64960E-01 5.48831E-26
7.68650E-01 5.35366E-26
7.72320E-01 5.22211E-26
7.75968E-01 5.09358E-26
7.79596E-01 4.96800E-26
7.83203E-01 4.84528E-26
7.86788E-01 4.72537E-26
7.90351E-01 4.60819E-26
7.93893E-01 4.49367E-26
7.97411E-01 4.38176E-26
8.00908E-01 4.27237E-26
8.04381E-01 4.16547E-26
8.07831E-01 4.06097E-26
8.11257E-01 3.95884E-26
8.14660E-01 3.85900E-26
8.18039E-01 3.76141E-26
8.21394E-01 3.66601E-26
8.24724E-01 3.57275E-26
8.28030E-01 3.48158E-26
8.31310E-01 3.39245E-26
8.34565E-01 3.30532E-26
8.37795E-01 3.22014E-26
8.40999E-01 3.13686E-26
8.44177E-01 3.05544E-26
8.47329E-01 2.97583E-26
8.50455E-01 2.89801E-26
8.53553E-01 2.82192E-26
8.56625E-01 2.74752E-26
8.59670E-01 2.67479E-26
8.62687E-01 2.60368E-26
8.65677E-01 2.53415E-26
8.68639E-01 2.46618E-26
8.71572E-01 2.39973E-26
8.74478E-01 2.33476E-26
8.77355E-01 2.27125E-26
8.80203E-01 2.20916E-26
8.83022E-01 2.14846E-26
8.85812E-01 2.08912E-26
8.88573E-01 2.03112E-26
8.91304E-01 1.97443E-26
8.94005E-01 1.91901E-26
8.96677E-01 1.86485E-26
8.99318E-01 1.81191E-26
9.01928E-01 1.76018E-26
9.04508E-01 1.70963E-26
9.07058E-01 1.66023E-26
9.09576E-01 1.61196E-26
9.12063E-01 1.56480E-26
9.14519E-01 1.51873E-26
9.16943E-01 1.47372E-26
9.19335E-01 1.42976E-26
9.21696E-01 1.38683E-26
9.24024E-01 1.34491E-26
9.26320E-01 1.30397E-26
9.28584E-01 1.26400E-26
9.30815E-01 1.22498E-26
9.33013E-01 1.18690E-26
9.35178E-01 1.14973E-26
9.37310E-01 1.11347E-26
9.39409E-01 1.07809E-26
9.41474E-01 1.04358E-26
9.43505E-01 1.00992E-26
9.45503E-01 9.77106E-27
9.47467E-01 9.45115E-27
9.49397E-01 9.13937E-27
9.51293E-01 8.83556E-27
9.53154E-01 8.53961E-27
9.54981E-01 8.25139E-27
9.56773E-01 7.97077E-27
9.58530E-01 7.69764E-27
9.60252E-01 7.43187E-27
9.61940E-01 7.17336E-27
9.63592E-01 6.92201E-27
9.65209E-01 6.67769E-27
9.66790E-01 6.44032E-27
9.68336E-01 6.20979E-27
9.69846E-01 5.98600E-27
9.71321E-01 5.76887E-27
9.72759E-01 5.55830E-27
9.74162E-01 5.35421E-27
9.75528E-01 5.15652E-27
9.76858E-01 4.96513E-27
9.78152E-01 4.77998E-27
9.79410E-01 4.60099E-27
9.80631E-01 4.42809E-27
9.81815E-01 4.26120E-27
9.82963E-01 4.10026E-27
9.84074E-01 3.94520E-27
9.85148E-01 3.79596E-27
9.86185E-01 3.65248E-27
9.87185E-01 3.51470E-27
9.88148E-01 3.38257E-27
9.89074E-01 3.25603E-27
9.89962E-01 3.13504E-27
9.90814E-01 3.01954E-27
9.91627E-01 2.90949E-27
9.92404E-01 2.80484E-27
9.93143E-01 2.70556E-27
9.93844E-01 2.61161E-27
9.94508E-01 2.52294E-27
9.95134E-01 2.43952E-27
9.95722E-01 2.36132E-27
9.96273E-01 2.28831E-27
9.96786E-01 2.22046E-27
9.97261E-01 2.15774E-27
9.97698E-01 2.10013E-27
9.98097E-01 2.04761E-27
9.98459E-01 2.00014E-27
9.98782E-01 1.95773E-27
9.99067E-01 1.92034E-27
9.99315E-01 1.88797E-27
9.99524E-01 1.86060E-27
9.99695E-01 1.83822E-27
9.99829E-01 1.82082E-27
9.99924E-01 1.80840E-27
9.99981E-01 1.80095E-27
1.00000E+00 1.79846E-27
