 #
 # Subroutine ELSEPA. Elastic scattering of electrons and positrons
 #                    by neutral atoms and positive ions
 #
 # Projectile: positron
 # Kinetic energy = 1.75000E+08 eV = 6.43113E+06 a.u.
 #
 # WARNING: High-energy factorization with free-atom DF screening.
 #          Absorption, polarization and exchange corrections are
 #          switched off.
 #          Phase shifts are calculated for the bare nucleus.
 #          Scattering amplitudes are not evaluated.
 #
 # Element: Ni,  Z =  28,  atomic weight = 5.86934E+01 g/mol
 #
 # Nuclear model: Fermi distribution
 #                Average radius = 4.15828E-13 cm
 #                Skin thickness = 5.46000E-14 cm
 #
 # Number of electrons = 28
 #
 # Total elastic cross section = 1.96989E-18 cm**2 = 7.03462E-02 a0**2
 # 1st transport cross section = 5.20188E-26 cm**2 = 1.85762E-09 a0**2
 # 2nd transport cross section = 1.55440E-25 cm**2 = 5.55085E-09 a0**2
 #
 #
 # Differential cross section:                       MU=(1-COS(THETA))/2
 #
 #  THETA        MU          DCS          DCS        Sherman      error
 #  (deg)                 (cm**2/sr)   (a0**2/sr)    function
 #----------------------------------------------------------------------
0.00000E+00 5.02729E-10
7.61557E-13 4.98701E-10
1.18994E-12 4.96461E-10
1.71346E-12 4.93747E-10
2.33225E-12 4.90571E-10
3.04617E-12 4.86948E-10
3.85530E-12 4.82896E-10
4.75964E-12 4.78433E-10
5.75917E-12 4.73579E-10
6.85391E-12 4.68356E-10
8.04379E-12 4.62764E-10
9.32893E-12 4.56850E-10
1.07092E-11 4.50676E-10
1.21847E-11 4.44221E-10
1.37554E-11 4.37476E-10
1.54213E-11 4.30557E-10
1.71823E-11 4.23453E-10
1.90386E-11 4.16103E-10
2.09900E-11 4.08663E-10
2.30367E-11 4.01136E-10
2.51785E-11 3.93402E-10
2.74156E-11 3.85654E-10
2.97478E-11 3.77912E-10
3.21752E-11 3.70002E-10
3.46979E-11 3.62138E-10
3.73157E-11 3.54342E-10
4.00286E-11 3.46456E-10
4.28368E-11 3.38644E-10
4.57402E-11 3.30946E-10
4.87388E-11 3.23231E-10
5.18325E-11 3.15605E-10
5.50215E-11 3.08129E-10
5.83057E-11 3.00697E-10
6.16850E-11 2.93361E-10
6.51595E-11 2.86198E-10
6.87293E-11 2.79130E-10
7.23943E-11 2.72158E-10
7.61544E-11 2.65372E-10
1.18991E-10 2.05292E-10
1.71347E-10 1.59418E-10
2.33223E-10 1.25410E-10
3.04617E-10 1.00233E-10
3.85531E-10 8.13496E-11
4.75965E-10 6.69127E-11
5.75917E-10 5.56353E-11
6.85389E-10 4.66706E-11
8.04380E-10 3.91249E-11
9.32891E-10 3.30268E-11
1.07092E-09 2.83454E-11
1.21847E-09 2.43943E-11
1.37554E-09 2.08451E-11
1.54213E-09 1.80374E-11
1.71823E-09 1.56920E-11
1.90386E-09 1.35355E-11
2.09900E-09 1.17885E-11
2.30367E-09 1.03372E-11
2.51785E-09 8.99552E-12
2.74156E-09 7.88686E-12
2.97478E-09 6.96320E-12
3.21752E-09 6.11415E-12
3.46978E-09 5.39978E-12
3.73156E-09 4.79546E-12
4.00286E-09 4.25227E-12
4.28368E-09 3.78464E-12
4.57402E-09 3.38366E-12
4.87388E-09 3.02729E-12
5.18326E-09 2.71570E-12
5.50215E-09 2.44529E-12
5.83057E-09 2.20574E-12
6.16850E-09 1.99402E-12
6.51596E-09 1.80831E-12
6.87293E-09 1.64347E-12
7.23942E-09 1.49658E-12
7.61544E-09 1.36650E-12
1.18991E-08 6.13601E-13
1.71347E-08 3.20816E-13
2.33223E-08 1.85211E-13
3.04617E-08 1.14356E-13
3.85531E-08 7.41421E-14
4.75965E-08 4.99585E-14
5.75917E-08 3.47699E-14
6.85389E-08 2.48844E-14
8.04380E-08 1.82418E-14
9.32891E-08 1.36742E-14
1.07092E-07 1.04472E-14
1.21847E-07 8.11562E-15
1.37554E-07 6.40117E-15
1.54213E-07 5.11761E-15
1.71823E-07 4.14118E-15
1.90386E-07 3.38771E-15
2.09900E-07 2.79838E-15
2.30367E-07 2.33226E-15
2.51785E-07 1.95960E-15
2.74156E-07 1.65872E-15
2.97478E-07 1.41357E-15
3.21752E-07 1.21209E-15
3.46978E-07 1.04534E-15
3.73156E-07 9.06346E-16
4.00286E-07 7.89734E-16
4.28368E-07 6.91303E-16
4.57402E-07 6.07707E-16
4.87388E-07 5.36381E-16
5.18325E-07 4.75219E-16
5.50215E-07 4.22530E-16
5.83057E-07 3.76940E-16
6.16850E-07 3.37318E-16
6.51596E-07 3.02764E-16
6.87293E-07 2.72520E-16
7.23942E-07 2.45957E-16
7.61543E-07 2.22548E-16
1.18991E-06 9.19560E-17
1.71347E-06 4.45496E-17
2.33223E-06 2.41076E-17
3.04617E-06 1.41522E-17
3.85531E-06 8.84291E-18
4.75964E-06 5.80497E-18
5.75916E-06 3.96620E-18
6.85388E-06 2.80097E-18
8.04378E-06 2.03381E-18
9.32888E-06 1.51216E-18
1.07092E-05 1.14750E-18
1.21846E-05 8.86402E-19
1.37553E-05 6.95504E-19
1.54212E-05 5.53329E-19
1.71822E-05 4.45688E-19
1.90385E-05 3.62958E-19
2.09899E-05 2.98616E-19
2.30365E-05 2.47911E-19
2.51783E-05 2.07513E-19
2.74153E-05 1.75008E-19
2.97475E-05 1.48620E-19
3.21749E-05 1.27020E-19
3.46974E-05 1.09207E-19
3.73152E-05 9.44117E-20
4.00281E-05 8.20406E-20
4.28362E-05 7.16315E-20
4.57395E-05 6.28217E-20
4.87380E-05 5.53245E-20
5.18317E-05 4.89118E-20
5.50205E-05 4.34009E-20
5.83045E-05 3.86441E-20
6.16838E-05 3.45214E-20
6.51582E-05 3.09342E-20
6.87277E-05 2.78011E-20
7.23925E-05 2.50550E-20
7.61524E-05 2.26362E-20
9.21439E-05 1.54526E-20
1.09658E-04 1.09044E-20
1.28695E-04 7.91252E-21
1.49255E-04 5.87916E-21
1.71338E-04 4.45867E-21
1.94942E-04 3.44208E-21
2.20070E-04 2.69916E-21
2.46720E-04 2.14612E-21
2.74892E-04 1.72757E-21
3.04586E-04 1.40616E-21
3.35803E-04 1.15603E-21
3.68542E-04 9.59057E-22
4.02802E-04 8.02236E-22
4.38585E-04 6.76144E-22
4.75889E-04 5.73836E-22
5.14715E-04 4.90127E-22
5.55063E-04 4.21110E-22
5.96931E-04 3.63795E-22
6.40321E-04 3.15885E-22
6.85233E-04 2.75587E-22
7.31665E-04 2.41497E-22
7.79618E-04 2.12503E-22
8.29092E-04 1.87719E-22
8.80086E-04 1.66433E-22
9.32601E-04 1.48069E-22
9.86636E-04 1.32160E-22
1.04219E-03 1.18323E-22
1.09927E-03 1.06242E-22
1.15786E-03 9.56581E-23
1.21797E-03 8.63535E-23
1.27961E-03 7.81476E-23
1.34276E-03 7.08886E-23
1.40743E-03 6.44487E-23
1.47362E-03 5.87195E-23
1.54133E-03 5.36093E-23
1.61056E-03 4.90396E-23
1.68131E-03 4.49435E-23
1.75357E-03 4.12633E-23
1.82735E-03 3.79496E-23
1.90265E-03 3.49594E-23
1.97947E-03 3.22559E-23
2.05780E-03 2.98066E-23
2.13765E-03 2.75835E-23
2.21902E-03 2.55621E-23
2.30190E-03 2.37208E-23
2.38630E-03 2.20409E-23
2.47222E-03 2.05057E-23
2.55965E-03 1.91005E-23
2.64859E-03 1.78124E-23
2.73905E-03 1.66300E-23
2.83103E-03 1.55430E-23
2.92452E-03 1.45423E-23
3.01952E-03 1.36200E-23
3.11604E-03 1.27688E-23
3.21407E-03 1.19822E-23
3.31362E-03 1.12545E-23
3.41468E-03 1.05805E-23
3.51725E-03 9.95553E-24
3.62133E-03 9.37538E-24
3.72692E-03 8.83628E-24
3.83403E-03 8.33481E-24
3.94265E-03 7.86788E-24
4.05278E-03 7.43269E-24
4.16442E-03 7.02669E-24
4.27757E-03 6.64759E-24
4.39223E-03 6.29329E-24
4.50840E-03 5.96188E-24
4.62608E-03 5.65161E-24
4.74527E-03 5.36090E-24
4.86597E-03 5.08830E-24
4.98817E-03 4.83249E-24
5.11188E-03 4.59223E-24
5.23711E-03 4.36643E-24
5.36383E-03 4.15406E-24
5.49207E-03 3.95417E-24
5.62181E-03 3.76591E-24
5.75306E-03 3.58848E-24
5.88581E-03 3.42115E-24
6.02007E-03 3.26323E-24
6.15583E-03 3.11411E-24
6.29310E-03 2.97322E-24
6.43187E-03 2.84001E-24
6.57214E-03 2.71399E-24
6.71392E-03 2.59471E-24
6.85720E-03 2.48175E-24
7.00198E-03 2.37470E-24
7.14827E-03 2.27322E-24
7.29605E-03 2.17695E-24
7.44534E-03 2.08558E-24
7.59612E-03 1.99882E-24
7.97965E-03 1.80034E-24
8.37255E-03 1.62522E-24
8.77480E-03 1.47027E-24
9.18641E-03 1.33280E-24
9.60736E-03 1.21053E-24
1.00376E-02 1.10151E-24
1.04773E-02 1.00407E-24
1.09262E-02 9.16789E-25
1.13844E-02 8.38441E-25
1.18520E-02 7.67967E-25
1.23288E-02 7.04451E-25
1.28150E-02 6.47099E-25
1.33104E-02 5.95218E-25
1.38150E-02 5.48206E-25
1.43290E-02 5.05533E-25
1.48521E-02 4.66739E-25
1.53845E-02 4.31415E-25
1.59262E-02 3.99203E-25
1.64770E-02 3.69788E-25
1.70371E-02 3.42889E-25
1.76063E-02 3.18259E-25
1.81848E-02 2.95677E-25
1.87724E-02 2.74947E-25
1.93692E-02 2.55895E-25
1.99751E-02 2.38365E-25
2.05901E-02 2.22217E-25
2.12143E-02 2.07326E-25
2.18476E-02 1.93580E-25
2.24900E-02 1.80878E-25
2.31415E-02 1.69129E-25
2.38021E-02 1.58252E-25
2.44717E-02 1.48172E-25
2.51504E-02 1.38824E-25
2.58382E-02 1.30146E-25
2.65349E-02 1.22083E-25
2.72407E-02 1.14586E-25
2.79555E-02 1.07610E-25
2.86793E-02 1.01114E-25
2.94120E-02 9.50597E-26
3.01537E-02 8.94135E-26
3.09043E-02 8.41442E-26
3.16639E-02 7.92232E-26
3.24324E-02 7.46246E-26
3.32098E-02 7.03245E-26
3.39961E-02 6.63010E-26
3.47912E-02 6.25341E-26
3.55952E-02 5.90053E-26
3.64081E-02 5.56977E-26
3.72297E-02 5.25958E-26
3.80602E-02 4.96851E-26
3.88995E-02 4.69524E-26
3.97476E-02 4.43856E-26
4.06044E-02 4.19734E-26
4.14700E-02 3.97054E-26
4.23443E-02 3.75719E-26
4.32273E-02 3.55642E-26
4.41190E-02 3.36738E-26
4.50194E-02 3.18933E-26
4.59284E-02 3.02154E-26
4.68461E-02 2.86337E-26
4.87074E-02 2.57347E-26
5.06030E-02 2.31525E-26
5.25328E-02 2.08490E-26
5.44967E-02 1.87914E-26
5.64946E-02 1.69509E-26
5.85262E-02 1.53027E-26
6.05914E-02 1.38250E-26
6.26901E-02 1.24985E-26
6.48222E-02 1.13067E-26
6.69873E-02 1.02346E-26
6.91854E-02 9.26948E-27
7.14163E-02 8.39977E-27
7.36799E-02 7.61541E-27
7.59760E-02 6.90744E-27
7.83043E-02 6.26794E-27
8.06647E-02 5.68988E-27
8.30571E-02 5.16699E-27
8.54812E-02 4.69372E-27
8.79369E-02 4.26508E-27
9.04240E-02 3.87666E-27
9.29422E-02 3.52450E-27
9.54915E-02 3.20505E-27
9.80716E-02 2.91513E-27
1.00682E-01 2.65191E-27
1.03323E-01 2.41282E-27
1.05995E-01 2.19557E-27
1.08696E-01 1.99810E-27
1.11427E-01 1.81856E-27
1.14188E-01 1.65525E-27
1.16978E-01 1.50668E-27
1.19797E-01 1.37149E-27
1.22645E-01 1.24843E-27
1.25522E-01 1.13640E-27
1.28428E-01 1.03440E-27
1.31361E-01 9.41503E-28
1.34323E-01 8.56895E-28
1.37313E-01 7.79825E-28
1.40330E-01 7.09615E-28
1.43375E-01 6.45650E-28
1.46447E-01 5.87372E-28
1.49545E-01 5.34273E-28
1.52671E-01 4.85893E-28
1.55823E-01 4.41812E-28
1.59001E-01 4.01649E-28
1.62205E-01 3.65059E-28
1.65435E-01 3.31724E-28
1.68690E-01 3.01357E-28
1.71970E-01 2.73698E-28
1.75276E-01 2.48508E-28
1.78606E-01 2.25568E-28
1.81961E-01 2.04682E-28
1.85340E-01 1.85669E-28
1.88743E-01 1.68363E-28
1.92169E-01 1.52615E-28
1.95619E-01 1.38288E-28
1.99092E-01 1.25257E-28
2.02589E-01 1.13406E-28
2.06107E-01 1.02634E-28
2.09649E-01 9.28429E-29
2.13212E-01 8.39477E-29
2.16797E-01 7.58687E-29
2.20404E-01 6.85335E-29
2.24032E-01 6.18761E-29
2.27680E-01 5.58362E-29
2.31350E-01 5.03587E-29
2.35040E-01 4.53934E-29
2.38751E-01 4.08944E-29
2.42481E-01 3.68198E-29
2.46231E-01 3.31314E-29
2.50000E-01 2.97942E-29
2.53788E-01 2.67765E-29
2.57595E-01 2.40492E-29
2.61421E-01 2.15858E-29
2.65264E-01 1.93621E-29
2.69126E-01 1.73560E-29
2.73005E-01 1.55475E-29
2.76901E-01 1.39182E-29
2.80814E-01 1.24513E-29
2.84744E-01 1.11318E-29
2.88691E-01 9.94571E-30
2.92653E-01 8.88040E-30
2.96632E-01 7.92439E-30
3.00625E-01 7.06722E-30
3.04634E-01 6.29938E-30
3.08658E-01 5.61222E-30
3.12697E-01 4.99788E-30
3.16749E-01 4.44920E-30
3.20816E-01 3.95969E-30
3.24896E-01 3.52348E-30
3.28990E-01 3.13521E-30
3.33097E-01 2.79003E-30
3.37216E-01 2.48355E-30
3.41348E-01 2.21180E-30
3.45492E-01 1.97118E-30
3.49647E-01 1.75841E-30
3.53814E-01 1.57057E-30
3.57992E-01 1.40498E-30
3.62181E-01 1.25924E-30
3.66381E-01 1.13120E-30
3.70590E-01 1.01888E-30
3.74810E-01 9.20548E-31
3.79039E-01 8.34605E-31
3.83277E-01 7.59633E-31
3.87524E-01 6.94355E-31
3.91780E-01 6.37628E-31
3.96044E-01 5.88424E-31
4.00316E-01 5.45826E-31
4.04596E-01 5.09013E-31
4.08882E-01 4.77254E-31
4.13176E-01 4.49896E-31
4.17476E-01 4.26360E-31
4.21783E-01 4.06130E-31
4.26095E-01 3.88748E-31
4.30413E-01 3.73812E-31
4.34737E-01 3.60964E-31
4.39065E-01 3.49890E-31
4.43398E-01 3.40314E-31
4.47736E-01 3.31993E-31
4.52077E-01 3.24716E-31
4.56422E-01 3.18298E-31
4.60770E-01 3.12581E-31
4.65122E-01 3.07426E-31
4.69476E-01 3.02714E-31
4.73832E-01 2.98344E-31
4.78190E-01 2.94229E-31
4.82550E-01 2.90296E-31
4.86912E-01 2.86485E-31
4.91274E-01 2.82743E-31
4.95637E-01 2.79030E-31
5.00000E-01 2.75312E-31
5.04363E-01 2.71563E-31
5.08726E-01 2.67761E-31
5.13088E-01 2.63892E-31
5.17450E-01 2.59944E-31
5.21810E-01 2.55910E-31
5.26168E-01 2.51787E-31
5.30524E-01 2.47574E-31
5.34878E-01 2.43272E-31
5.39230E-01 2.38883E-31
5.43578E-01 2.34414E-31
5.47923E-01 2.29869E-31
5.52264E-01 2.25256E-31
5.56602E-01 2.20582E-31
5.60935E-01 2.15856E-31
5.65263E-01 2.11085E-31
5.69587E-01 2.06280E-31
5.73905E-01 2.01449E-31
5.78217E-01 1.96600E-31
5.82524E-01 1.91742E-31
5.86824E-01 1.86884E-31
5.91118E-01 1.82034E-31
5.95404E-01 1.77199E-31
5.99684E-01 1.72389E-31
6.03956E-01 1.67609E-31
6.08220E-01 1.62866E-31
6.12476E-01 1.58167E-31
6.16723E-01 1.53518E-31
6.20961E-01 1.48925E-31
6.25190E-01 1.44391E-31
6.29410E-01 1.39923E-31
6.33619E-01 1.35523E-31
6.37819E-01 1.31197E-31
6.42008E-01 1.26947E-31
6.46186E-01 1.22776E-31
6.50353E-01 1.18687E-31
6.54508E-01 1.14682E-31
6.58652E-01 1.10764E-31
6.62784E-01 1.06932E-31
6.66903E-01 1.03190E-31
6.71010E-01 9.95378E-32
6.75104E-01 9.59759E-32
6.79184E-01 9.25050E-32
6.83251E-01 8.91253E-32
6.87303E-01 8.58368E-32
6.91342E-01 8.26391E-32
6.95366E-01 7.95320E-32
6.99375E-01 7.65148E-32
7.03368E-01 7.35868E-32
7.07347E-01 7.07470E-32
7.11309E-01 6.79945E-32
7.15256E-01 6.53280E-32
7.19186E-01 6.27463E-32
7.23099E-01 6.02481E-32
7.26995E-01 5.78319E-32
7.30874E-01 5.54962E-32
7.34736E-01 5.32394E-32
7.38579E-01 5.10600E-32
7.42405E-01 4.89561E-32
7.46212E-01 4.69261E-32
7.50000E-01 4.49683E-32
7.53769E-01 4.30809E-32
7.57519E-01 4.12622E-32
7.61249E-01 3.95102E-32
7.64960E-01 3.78233E-32
7.68650E-01 3.61996E-32
7.72320E-01 3.46373E-32
7.75968E-01 3.31347E-32
7.79596E-01 3.16900E-32
7.83203E-01 3.03013E-32
7.86788E-01 2.89671E-32
7.90351E-01 2.76855E-32
7.93893E-01 2.64549E-32
7.97411E-01 2.52736E-32
8.00908E-01 2.41400E-32
8.04381E-01 2.30525E-32
8.07831E-01 2.20095E-32
8.11257E-01 2.10094E-32
8.14660E-01 2.00507E-32
8.18039E-01 1.91320E-32
8.21394E-01 1.82519E-32
8.24724E-01 1.74088E-32
8.28030E-01 1.66016E-32
8.31310E-01 1.58288E-32
8.34565E-01 1.50890E-32
8.37795E-01 1.43812E-32
8.40999E-01 1.37041E-32
8.44177E-01 1.30564E-32
8.47329E-01 1.24370E-32
8.50455E-01 1.18448E-32
8.53553E-01 1.12788E-32
8.56625E-01 1.07378E-32
8.59670E-01 1.02210E-32
8.62687E-01 9.72720E-33
8.65677E-01 9.25560E-33
8.68639E-01 8.80524E-33
8.71572E-01 8.37523E-33
8.74478E-01 7.96474E-33
8.77355E-01 7.57295E-33
8.80203E-01 7.19910E-33
8.83022E-01 6.84237E-33
8.85812E-01 6.50208E-33
8.88573E-01 6.17751E-33
8.91304E-01 5.86797E-33
8.94005E-01 5.57283E-33
8.96677E-01 5.29146E-33
8.99318E-01 5.02323E-33
9.01928E-01 4.76760E-33
9.04508E-01 4.52400E-33
9.07058E-01 4.29190E-33
9.09576E-01 4.07078E-33
9.12063E-01 3.86015E-33
9.14519E-01 3.65954E-33
9.16943E-01 3.46852E-33
9.19335E-01 3.28662E-33
9.21696E-01 3.11346E-33
9.24024E-01 2.94862E-33
9.26320E-01 2.79173E-33
9.28584E-01 2.64243E-33
9.30815E-01 2.50035E-33
9.33013E-01 2.36518E-33
9.35178E-01 2.23660E-33
9.37310E-01 2.11429E-33
9.39409E-01 1.99796E-33
9.41474E-01 1.88734E-33
9.43505E-01 1.78216E-33
9.45503E-01 1.68217E-33
9.47467E-01 1.58712E-33
9.49397E-01 1.49678E-33
9.51293E-01 1.41093E-33
9.53154E-01 1.32936E-33
9.54981E-01 1.25186E-33
9.56773E-01 1.17824E-33
9.58530E-01 1.10832E-33
9.60252E-01 1.04192E-33
9.61940E-01 9.78874E-34
9.63592E-01 9.19031E-34
9.65209E-01 8.62225E-34
9.66790E-01 8.08322E-34
9.68336E-01 7.57180E-34
9.69846E-01 7.08668E-34
9.71321E-01 6.62661E-34
9.72759E-01 6.19041E-34
9.74162E-01 5.77696E-34
9.75528E-01 5.38510E-34
9.76858E-01 5.01399E-34
9.78152E-01 4.66250E-34
9.79410E-01 4.32975E-34
9.80631E-01 4.01490E-34
9.81815E-01 3.71711E-34
9.82963E-01 3.43554E-34
9.84074E-01 3.16948E-34
9.85148E-01 2.91829E-34
9.86185E-01 2.68119E-34
9.87185E-01 2.45763E-34
9.88148E-01 2.24694E-34
9.89074E-01 2.04863E-34
9.89962E-01 1.86212E-34
9.90814E-01 1.68691E-34
9.91627E-01 1.52252E-34
9.92404E-01 1.36855E-34
9.93143E-01 1.22451E-34
9.93844E-01 1.09011E-34
9.94508E-01 9.64914E-35
9.95134E-01 8.48584E-35
9.95722E-01 7.40810E-35
9.96273E-01 6.41330E-35
9.96786E-01 5.49825E-35
9.97261E-01 4.66107E-35
9.97698E-01 3.89865E-35
9.98097E-01 3.20967E-35
9.98459E-01 2.59183E-35
9.98782E-01 2.04338E-35
9.99067E-01 1.56305E-35
9.99315E-01 1.14928E-35
9.99524E-01 8.01236E-36
9.99695E-01 5.17649E-36
9.99829E-01 2.98019E-36
9.99924E-01 1.41321E-36
9.99981E-01 4.76877E-37
1.00000E+00 1.65569E-37
