 #
 # Subroutine ELSEPA. Elastic scattering of electrons and positrons
 #                    by neutral atoms and positive ions
 #
 # Projectile: positron
 # Kinetic energy = 3.50000E+07 eV = 1.28623E+06 a.u.
 #
 # WARNING: High-energy factorization with free-atom DF screening.
 #          Absorption, polarization and exchange corrections are
 #          switched off.
 #          Phase shifts are calculated for the bare nucleus.
 #          Scattering amplitudes are not evaluated.
 #
 # Element: Ni,  Z =  28,  atomic weight = 5.86934E+01 g/mol
 #
 # Nuclear model: Fermi distribution
 #                Average radius = 4.15828E-13 cm
 #                Skin thickness = 5.46000E-14 cm
 #
 # Number of electrons = 28
 #
 # Total elastic cross section = 1.96976E-18 cm**2 = 7.03413E-02 a0**2
 # 1st transport cross section = 1.15436E-24 cm**2 = 4.12230E-08 a0**2
 # 2nd transport cross section = 3.37292E-24 cm**2 = 1.20449E-07 a0**2
 #
 #
 # Differential cross section:                       MU=(1-COS(THETA))/2
 #
 #  THETA        MU          DCS          DCS        Sherman      error
 #  (deg)                 (cm**2/sr)   (a0**2/sr)    function
 #----------------------------------------------------------------------
0.00000E+00 2.05803E-11
7.61557E-13 2.05734E-11
1.18994E-12 2.05696E-11
1.71346E-12 2.05649E-11
2.33225E-12 2.05594E-11
3.04617E-12 2.05530E-11
3.85530E-12 2.05458E-11
4.75964E-12 2.05378E-11
5.75917E-12 2.05289E-11
6.85391E-12 2.05192E-11
8.04379E-12 2.05086E-11
9.32893E-12 2.04972E-11
1.07092E-11 2.04850E-11
1.21847E-11 2.04720E-11
1.37554E-11 2.04581E-11
1.54213E-11 2.04434E-11
1.71823E-11 2.04279E-11
1.90386E-11 2.04115E-11
2.09900E-11 2.03944E-11
2.30367E-11 2.03764E-11
2.51785E-11 2.03577E-11
2.74156E-11 2.03381E-11
2.97478E-11 2.03178E-11
3.21752E-11 2.02966E-11
3.46979E-11 2.02746E-11
3.73157E-11 2.02519E-11
4.00286E-11 2.02284E-11
4.28368E-11 2.02041E-11
4.57402E-11 2.01790E-11
4.87388E-11 2.01532E-11
5.18325E-11 2.01266E-11
5.50215E-11 2.00993E-11
5.83057E-11 2.00712E-11
6.16850E-11 2.00423E-11
6.51595E-11 2.00127E-11
6.87293E-11 1.99824E-11
7.23943E-11 1.99513E-11
7.61544E-11 1.99196E-11
1.18991E-10 1.95634E-11
1.71347E-10 1.91423E-11
2.33223E-10 1.86618E-11
3.04617E-10 1.81346E-11
3.85531E-10 1.75660E-11
4.75965E-10 1.69638E-11
5.75917E-10 1.63409E-11
6.85389E-10 1.56995E-11
8.04380E-10 1.50497E-11
9.32891E-10 1.44015E-11
1.07092E-09 1.37532E-11
1.21847E-09 1.31159E-11
1.37554E-09 1.24953E-11
1.54213E-09 1.18864E-11
1.71823E-09 1.13004E-11
1.90386E-09 1.07377E-11
2.09900E-09 1.01951E-11
2.30367E-09 9.67926E-12
2.51785E-09 9.18828E-12
2.74156E-09 8.72056E-12
2.97478E-09 8.27930E-12
3.21752E-09 7.86143E-12
3.46978E-09 7.46644E-12
3.73156E-09 7.09539E-12
4.00286E-09 6.74480E-12
4.28368E-09 6.41494E-12
4.57402E-09 6.10566E-12
4.87388E-09 5.81343E-12
5.18326E-09 5.53913E-12
5.50215E-09 5.28201E-12
5.83057E-09 5.03863E-12
6.16850E-09 4.81040E-12
6.51596E-09 4.59593E-12
6.87293E-09 4.39295E-12
7.23942E-09 4.20233E-12
7.61544E-09 4.02258E-12
1.18991E-08 2.67959E-12
1.71347E-08 1.86573E-12
2.33223E-08 1.31752E-12
3.04617E-08 9.68996E-13
3.85531E-08 7.17520E-13
4.75965E-08 5.36208E-13
5.75917E-08 4.08146E-13
6.85389E-08 3.11665E-13
8.04380E-08 2.40956E-13
9.32891E-08 1.88838E-13
1.07092E-07 1.48942E-13
1.21847E-07 1.18982E-13
1.37554E-07 9.61432E-14
1.54213E-07 7.83362E-14
1.71823E-07 6.45374E-14
1.90386E-07 5.36766E-14
2.09900E-07 4.50210E-14
2.30367E-07 3.80907E-14
2.51785E-07 3.24763E-14
2.74156E-07 2.78830E-14
2.97478E-07 2.41023E-14
3.21752E-07 2.09583E-14
3.46978E-07 1.83235E-14
3.73156E-07 1.61046E-14
4.00286E-07 1.42170E-14
4.28368E-07 1.26041E-14
4.57402E-07 1.12205E-14
4.87388E-07 1.00198E-14
5.18325E-07 8.97838E-15
5.50215E-07 8.07178E-15
5.83057E-07 7.27393E-15
6.16850E-07 6.57392E-15
6.51596E-07 5.95666E-15
6.87293E-07 5.40803E-15
7.23942E-07 4.92172E-15
7.61543E-07 4.48826E-15
1.18991E-06 1.95717E-15
1.71347E-06 9.73955E-16
2.33223E-06 5.34875E-16
3.04617E-06 3.17414E-16
3.85531E-06 2.00116E-16
4.75964E-06 1.32454E-16
5.75916E-06 9.11839E-17
6.85388E-06 6.48404E-17
8.04378E-06 4.73781E-17
9.32888E-06 3.54211E-17
1.07092E-05 2.70121E-17
1.21846E-05 2.09566E-17
1.37553E-05 1.65053E-17
1.54212E-05 1.31750E-17
1.71822E-05 1.06425E-17
1.90385E-05 8.68876E-18
2.09899E-05 7.16428E-18
2.30365E-05 5.95908E-18
2.51783E-05 4.99640E-18
2.74153E-05 4.21995E-18
2.97475E-05 3.58825E-18
3.21749E-05 3.07026E-18
3.46974E-05 2.64232E-18
3.73152E-05 2.28636E-18
4.00281E-05 1.98834E-18
4.28362E-05 1.73728E-18
4.57395E-05 1.52457E-18
4.87380E-05 1.34337E-18
5.18317E-05 1.18825E-18
5.50205E-05 1.05485E-18
5.83045E-05 9.39615E-19
6.16838E-05 8.39679E-19
6.51582E-05 7.52674E-19
6.87277E-05 6.76645E-19
7.23925E-05 6.09974E-19
7.61524E-05 5.51309E-19
9.21439E-05 3.76680E-19
1.09658E-04 2.65985E-19
1.28695E-04 1.93106E-19
1.49255E-04 1.43543E-19
1.71338E-04 1.08902E-19
1.94942E-04 8.41001E-20
2.20070E-04 6.59693E-20
2.46720E-04 5.24684E-20
2.74892E-04 4.22484E-20
3.04586E-04 3.43984E-20
3.35803E-04 2.82882E-20
3.68542E-04 2.34754E-20
4.02802E-04 1.96431E-20
4.38585E-04 1.65612E-20
4.75889E-04 1.40601E-20
5.14715E-04 1.20134E-20
5.55063E-04 1.03256E-20
5.96931E-04 8.92367E-21
6.40321E-04 7.75158E-21
6.85233E-04 6.76554E-21
7.31665E-04 5.93123E-21
7.79618E-04 5.22151E-21
8.29092E-04 4.61469E-21
8.80086E-04 4.09341E-21
9.32601E-04 3.64360E-21
9.86636E-04 3.25383E-21
1.04219E-03 2.91473E-21
1.09927E-03 2.61862E-21
1.15786E-03 2.35911E-21
1.21797E-03 2.13092E-21
1.27961E-03 1.92962E-21
1.34276E-03 1.75150E-21
1.40743E-03 1.59343E-21
1.47362E-03 1.45276E-21
1.54133E-03 1.32726E-21
1.61056E-03 1.21499E-21
1.68131E-03 1.11432E-21
1.75357E-03 1.02385E-21
1.82735E-03 9.42356E-22
1.90265E-03 8.68796E-22
1.97947E-03 8.02260E-22
2.05780E-03 7.41960E-22
2.13765E-03 6.87207E-22
2.21902E-03 6.37403E-22
2.30190E-03 5.92019E-22
2.38630E-03 5.50594E-22
2.47222E-03 5.12722E-22
2.55965E-03 4.78042E-22
2.64859E-03 4.46238E-22
2.73905E-03 4.17029E-22
2.83103E-03 3.90166E-22
2.92452E-03 3.65425E-22
3.01952E-03 3.42609E-22
3.11604E-03 3.21542E-22
3.21407E-03 3.02065E-22
3.31362E-03 2.84036E-22
3.41468E-03 2.67329E-22
3.51725E-03 2.51829E-22
3.62133E-03 2.37432E-22
3.72692E-03 2.24047E-22
3.83403E-03 2.11589E-22
3.94265E-03 1.99982E-22
4.05278E-03 1.89158E-22
4.16442E-03 1.79054E-22
4.27757E-03 1.69614E-22
4.39223E-03 1.60785E-22
4.50840E-03 1.52522E-22
4.62608E-03 1.44781E-22
4.74527E-03 1.37523E-22
4.86597E-03 1.30712E-22
4.98817E-03 1.24317E-22
5.11188E-03 1.18306E-22
5.23711E-03 1.12654E-22
5.36383E-03 1.07333E-22
5.49207E-03 1.02322E-22
5.62181E-03 9.75983E-23
5.75306E-03 9.31434E-23
5.88581E-03 8.89387E-23
6.02007E-03 8.49677E-23
6.15583E-03 8.12150E-23
6.29310E-03 7.76662E-23
6.43187E-03 7.43085E-23
6.57214E-03 7.11295E-23
6.71392E-03 6.81180E-23
6.85720E-03 6.52634E-23
7.00198E-03 6.25562E-23
7.14827E-03 5.99873E-23
7.29605E-03 5.75484E-23
7.44534E-03 5.52315E-23
7.59612E-03 5.30295E-23
7.97965E-03 4.79841E-23
8.37255E-03 4.35221E-23
8.77480E-03 3.95644E-23
9.18641E-03 3.60445E-23
9.60736E-03 3.29056E-23
1.00376E-02 3.00994E-23
1.04773E-02 2.75845E-23
1.09262E-02 2.53254E-23
1.13844E-02 2.32918E-23
1.18520E-02 2.14571E-23
1.23288E-02 1.97985E-23
1.28150E-02 1.82961E-23
1.33104E-02 1.69328E-23
1.38150E-02 1.56933E-23
1.43290E-02 1.45645E-23
1.48521E-02 1.35347E-23
1.53845E-02 1.25938E-23
1.59262E-02 1.17326E-23
1.64770E-02 1.09433E-23
1.70371E-02 1.02189E-23
1.76063E-02 9.55291E-24
1.81848E-02 8.93994E-24
1.87724E-02 8.37497E-24
1.93692E-02 7.85360E-24
1.99751E-02 7.37185E-24
2.05901E-02 6.92619E-24
2.12143E-02 6.51342E-24
2.18476E-02 6.13069E-24
2.24900E-02 5.77542E-24
2.31415E-02 5.44530E-24
2.38021E-02 5.13821E-24
2.44717E-02 4.85228E-24
2.51504E-02 4.58577E-24
2.58382E-02 4.33714E-24
2.65349E-02 4.10498E-24
2.72407E-02 3.88799E-24
2.79555E-02 3.68500E-24
2.86793E-02 3.49496E-24
2.94120E-02 3.31689E-24
3.01537E-02 3.14989E-24
3.09043E-02 2.99316E-24
3.16639E-02 2.84595E-24
3.24324E-02 2.70759E-24
3.32098E-02 2.57743E-24
3.39961E-02 2.45491E-24
3.47912E-02 2.33950E-24
3.55952E-02 2.23072E-24
3.64081E-02 2.12810E-24
3.72297E-02 2.03125E-24
3.80602E-02 1.93978E-24
3.88995E-02 1.85333E-24
3.97476E-02 1.77159E-24
4.06044E-02 1.69424E-24
4.14700E-02 1.62101E-24
4.23443E-02 1.55165E-24
4.32273E-02 1.48590E-24
4.41190E-02 1.42355E-24
4.50194E-02 1.36439E-24
4.59284E-02 1.30823E-24
4.68461E-02 1.25489E-24
4.87074E-02 1.15600E-24
5.06030E-02 1.06652E-24
5.25328E-02 9.85411E-25
5.44967E-02 9.11749E-25
5.64946E-02 8.44737E-25
5.85262E-02 7.83671E-25
6.05914E-02 7.27935E-25
6.26901E-02 6.76982E-25
6.48222E-02 6.30334E-25
6.69873E-02 5.87563E-25
6.91854E-02 5.48293E-25
7.14163E-02 5.12188E-25
7.36799E-02 4.78950E-25
7.59760E-02 4.48311E-25
7.83043E-02 4.20034E-25
8.06647E-02 3.93906E-25
8.30571E-02 3.69735E-25
8.54812E-02 3.47350E-25
8.79369E-02 3.26596E-25
9.04240E-02 3.07334E-25
9.29422E-02 2.89438E-25
9.54915E-02 2.72795E-25
9.80716E-02 2.57302E-25
1.00682E-01 2.42867E-25
1.03323E-01 2.29404E-25
1.05995E-01 2.16837E-25
1.08696E-01 2.05096E-25
1.11427E-01 1.94118E-25
1.14188E-01 1.83844E-25
1.16978E-01 1.74222E-25
1.19797E-01 1.65203E-25
1.22645E-01 1.56743E-25
1.25522E-01 1.48802E-25
1.28428E-01 1.41342E-25
1.31361E-01 1.34329E-25
1.34323E-01 1.27732E-25
1.37313E-01 1.21522E-25
1.40330E-01 1.15673E-25
1.43375E-01 1.10160E-25
1.46447E-01 1.04959E-25
1.49545E-01 1.00052E-25
1.52671E-01 9.54181E-26
1.55823E-01 9.10396E-26
1.59001E-01 8.69003E-26
1.62205E-01 8.29849E-26
1.65435E-01 7.92791E-26
1.68690E-01 7.57700E-26
1.71970E-01 7.24453E-26
1.75276E-01 6.92938E-26
1.78606E-01 6.63048E-26
1.81961E-01 6.34686E-26
1.85340E-01 6.07762E-26
1.88743E-01 5.82190E-26
1.92169E-01 5.57890E-26
1.95619E-01 5.34790E-26
1.99092E-01 5.12820E-26
2.02589E-01 4.91916E-26
2.06107E-01 4.72017E-26
2.09649E-01 4.53067E-26
2.13212E-01 4.35014E-26
2.16797E-01 4.17808E-26
2.20404E-01 4.01403E-26
2.24032E-01 3.85755E-26
2.27680E-01 3.70824E-26
2.31350E-01 3.56572E-26
2.35040E-01 3.42962E-26
2.38751E-01 3.29962E-26
2.42481E-01 3.17539E-26
2.46231E-01 3.05663E-26
2.50000E-01 2.94308E-26
2.53788E-01 2.83445E-26
2.57595E-01 2.73051E-26
2.61421E-01 2.63101E-26
2.65264E-01 2.53575E-26
2.69126E-01 2.44450E-26
2.73005E-01 2.35708E-26
2.76901E-01 2.27330E-26
2.80814E-01 2.19297E-26
2.84744E-01 2.11595E-26
2.88691E-01 2.04206E-26
2.92653E-01 1.97117E-26
2.96632E-01 1.90313E-26
3.00625E-01 1.83780E-26
3.04634E-01 1.77507E-26
3.08658E-01 1.71482E-26
3.12697E-01 1.65692E-26
3.16749E-01 1.60128E-26
3.20816E-01 1.54780E-26
3.24896E-01 1.49637E-26
3.28990E-01 1.44690E-26
3.33097E-01 1.39932E-26
3.37216E-01 1.35353E-26
3.41348E-01 1.30946E-26
3.45492E-01 1.26704E-26
3.49647E-01 1.22619E-26
3.53814E-01 1.18684E-26
3.57992E-01 1.14894E-26
3.62181E-01 1.11242E-26
3.66381E-01 1.07722E-26
3.70590E-01 1.04329E-26
3.74810E-01 1.01058E-26
3.79039E-01 9.79031E-27
3.83277E-01 9.48602E-27
3.87524E-01 9.19245E-27
3.91780E-01 8.90918E-27
3.96044E-01 8.63578E-27
4.00316E-01 8.37187E-27
4.04596E-01 8.11707E-27
4.08882E-01 7.87101E-27
4.13176E-01 7.63335E-27
4.17476E-01 7.40377E-27
4.21783E-01 7.18195E-27
4.26095E-01 6.96758E-27
4.30413E-01 6.76039E-27
4.34737E-01 6.56010E-27
4.39065E-01 6.36644E-27
4.43398E-01 6.17917E-27
4.47736E-01 5.99805E-27
4.52077E-01 5.82284E-27
4.56422E-01 5.65332E-27
4.60770E-01 5.48928E-27
4.65122E-01 5.33053E-27
4.69476E-01 5.17687E-27
4.73832E-01 5.02810E-27
4.78190E-01 4.88406E-27
4.82550E-01 4.74457E-27
4.86912E-01 4.60948E-27
4.91274E-01 4.47861E-27
4.95637E-01 4.35183E-27
5.00000E-01 4.22898E-27
5.04363E-01 4.10993E-27
5.08726E-01 3.99455E-27
5.13088E-01 3.88271E-27
5.17450E-01 3.77427E-27
5.21810E-01 3.66914E-27
5.26168E-01 3.56719E-27
5.30524E-01 3.46831E-27
5.34878E-01 3.37240E-27
5.39230E-01 3.27935E-27
5.43578E-01 3.18908E-27
5.47923E-01 3.10149E-27
5.52264E-01 3.01649E-27
5.56602E-01 2.93398E-27
5.60935E-01 2.85390E-27
5.65263E-01 2.77615E-27
5.69587E-01 2.70067E-27
5.73905E-01 2.62737E-27
5.78217E-01 2.55619E-27
5.82524E-01 2.48706E-27
5.86824E-01 2.41991E-27
5.91118E-01 2.35468E-27
5.95404E-01 2.29130E-27
5.99684E-01 2.22972E-27
6.03956E-01 2.16988E-27
6.08220E-01 2.11173E-27
6.12476E-01 2.05521E-27
6.16723E-01 2.00026E-27
6.20961E-01 1.94685E-27
6.25190E-01 1.89492E-27
6.29410E-01 1.84443E-27
6.33619E-01 1.79533E-27
6.37819E-01 1.74758E-27
6.42008E-01 1.70114E-27
6.46186E-01 1.65596E-27
6.50353E-01 1.61202E-27
6.54508E-01 1.56927E-27
6.58652E-01 1.52768E-27
6.62784E-01 1.48720E-27
6.66903E-01 1.44782E-27
6.71010E-01 1.40949E-27
6.75104E-01 1.37219E-27
6.79184E-01 1.33588E-27
6.83251E-01 1.30053E-27
6.87303E-01 1.26613E-27
6.91342E-01 1.23263E-27
6.95366E-01 1.20001E-27
6.99375E-01 1.16825E-27
7.03368E-01 1.13732E-27
7.07347E-01 1.10720E-27
7.11309E-01 1.07787E-27
7.15256E-01 1.04929E-27
7.19186E-01 1.02146E-27
7.23099E-01 9.94347E-28
7.26995E-01 9.67934E-28
7.30874E-01 9.42199E-28
7.34736E-01 9.17125E-28
7.38579E-01 8.92693E-28
7.42405E-01 8.68884E-28
7.46212E-01 8.45682E-28
7.50000E-01 8.23070E-28
7.53769E-01 8.01031E-28
7.57519E-01 7.79550E-28
7.61249E-01 7.58611E-28
7.64960E-01 7.38200E-28
7.68650E-01 7.18302E-28
7.72320E-01 6.98904E-28
7.75968E-01 6.79991E-28
7.79596E-01 6.61551E-28
7.83203E-01 6.43570E-28
7.86788E-01 6.26038E-28
7.90351E-01 6.08941E-28
7.93893E-01 5.92269E-28
7.97411E-01 5.76010E-28
8.00908E-01 5.60152E-28
8.04381E-01 5.44687E-28
8.07831E-01 5.29602E-28
8.11257E-01 5.14889E-28
8.14660E-01 5.00538E-28
8.18039E-01 4.86540E-28
8.21394E-01 4.72884E-28
8.24724E-01 4.59563E-28
8.28030E-01 4.46568E-28
8.31310E-01 4.33891E-28
8.34565E-01 4.21523E-28
8.37795E-01 4.09457E-28
8.40999E-01 3.97686E-28
8.44177E-01 3.86201E-28
8.47329E-01 3.74996E-28
8.50455E-01 3.64063E-28
8.53553E-01 3.53396E-28
8.56625E-01 3.42989E-28
8.59670E-01 3.32835E-28
8.62687E-01 3.22927E-28
8.65677E-01 3.13260E-28
8.68639E-01 3.03829E-28
8.71572E-01 2.94626E-28
8.74478E-01 2.85648E-28
8.77355E-01 2.76887E-28
8.80203E-01 2.68340E-28
8.83022E-01 2.60002E-28
8.85812E-01 2.51866E-28
8.88573E-01 2.43929E-28
8.91304E-01 2.36186E-28
8.94005E-01 2.28632E-28
8.96677E-01 2.21263E-28
8.99318E-01 2.14075E-28
9.01928E-01 2.07064E-28
9.04508E-01 2.00225E-28
9.07058E-01 1.93555E-28
9.09576E-01 1.87050E-28
9.12063E-01 1.80706E-28
9.14519E-01 1.74520E-28
9.16943E-01 1.68488E-28
9.19335E-01 1.62607E-28
9.21696E-01 1.56873E-28
9.24024E-01 1.51284E-28
9.26320E-01 1.45835E-28
9.28584E-01 1.40526E-28
9.30815E-01 1.35351E-28
9.33013E-01 1.30309E-28
9.35178E-01 1.25397E-28
9.37310E-01 1.20612E-28
9.39409E-01 1.15951E-28
9.41474E-01 1.11412E-28
9.43505E-01 1.06993E-28
9.45503E-01 1.02690E-28
9.47467E-01 9.85030E-29
9.49397E-01 9.44282E-29
9.51293E-01 9.04638E-29
9.53154E-01 8.66076E-29
9.54981E-01 8.28577E-29
9.56773E-01 7.92121E-29
9.58530E-01 7.56688E-29
9.60252E-01 7.22260E-29
9.61940E-01 6.88819E-29
9.63592E-01 6.56346E-29
9.65209E-01 6.24827E-29
9.66790E-01 5.94243E-29
9.68336E-01 5.64579E-29
9.69846E-01 5.35819E-29
9.71321E-01 5.07950E-29
9.72759E-01 4.80956E-29
9.74162E-01 4.54823E-29
9.75528E-01 4.29539E-29
9.76858E-01 4.05089E-29
9.78152E-01 3.81463E-29
9.79410E-01 3.58647E-29
9.80631E-01 3.36629E-29
9.81815E-01 3.15400E-29
9.82963E-01 2.94947E-29
9.84074E-01 2.75262E-29
9.85148E-01 2.56332E-29
9.86185E-01 2.38150E-29
9.87185E-01 2.20706E-29
9.88148E-01 2.03991E-29
9.89074E-01 1.87997E-29
9.89962E-01 1.72715E-29
9.90814E-01 1.58139E-29
9.91627E-01 1.44260E-29
9.92404E-01 1.31072E-29
9.93143E-01 1.18568E-29
9.93844E-01 1.06743E-29
9.94508E-01 9.55891E-30
9.95134E-01 8.51022E-30
9.95722E-01 7.52766E-30
9.96273E-01 6.61075E-30
9.96786E-01 5.75903E-30
9.97261E-01 4.97207E-30
9.97698E-01 4.24951E-30
9.98097E-01 3.59095E-30
9.98459E-01 2.99610E-30
9.98782E-01 2.46465E-30
9.99067E-01 1.99634E-30
9.99315E-01 1.59094E-30
9.99524E-01 1.24824E-30
9.99695E-01 9.68081E-31
9.99829E-01 7.50324E-31
9.99924E-01 5.94862E-31
9.99981E-01 5.01614E-31
1.00000E+00 4.70525E-31
