 #
 # Subroutine ELSEPA. Elastic scattering of electrons and positrons
 #                    by neutral atoms and positive ions
 #
 # Projectile: positron
 # Kinetic energy = 1.50000E+07 eV = 5.51240E+05 a.u.
 #
 # WARNING: High-energy factorization with free-atom DF screening.
 #          Absorption, polarization and exchange corrections are
 #          switched off.
 #          Phase shifts are calculated for the bare nucleus.
 #          Scattering amplitudes are not evaluated.
 #
 # Element: Ni,  Z =  28,  atomic weight = 5.86934E+01 g/mol
 #
 # Nuclear model: Fermi distribution
 #                Average radius = 4.15828E-13 cm
 #                Skin thickness = 5.46000E-14 cm
 #
 # Number of electrons = 28
 #
 # Total elastic cross section = 1.97170E-18 cm**2 = 7.04106E-02 a0**2
 # 1st transport cross section = 5.41389E-24 cm**2 = 1.93334E-07 a0**2
 # 2nd transport cross section = 1.57135E-23 cm**2 = 5.61140E-07 a0**2
 #
 #
 # Differential cross section:                       MU=(1-COS(THETA))/2
 #
 #  THETA        MU          DCS          DCS        Sherman      error
 #  (deg)                 (cm**2/sr)   (a0**2/sr)    function
 #----------------------------------------------------------------------
0.00000E+00 3.92649E-12
7.61557E-13 3.92624E-12
1.18994E-12 3.92610E-12
1.71346E-12 3.92592E-12
2.33225E-12 3.92572E-12
3.04617E-12 3.92549E-12
3.85530E-12 3.92523E-12
4.75964E-12 3.92493E-12
5.75917E-12 3.92461E-12
6.85391E-12 3.92425E-12
8.04379E-12 3.92386E-12
9.32893E-12 3.92345E-12
1.07092E-11 3.92300E-12
1.21847E-11 3.92252E-12
1.37554E-11 3.92201E-12
1.54213E-11 3.92147E-12
1.71823E-11 3.92090E-12
1.90386E-11 3.92030E-12
2.09900E-11 3.91967E-12
2.30367E-11 3.91900E-12
2.51785E-11 3.91831E-12
2.74156E-11 3.91759E-12
2.97478E-11 3.91683E-12
3.21752E-11 3.91605E-12
3.46979E-11 3.91523E-12
3.73157E-11 3.91439E-12
4.00286E-11 3.91351E-12
4.28368E-11 3.91261E-12
4.57402E-11 3.91167E-12
4.87388E-11 3.91070E-12
5.18325E-11 3.90971E-12
5.50215E-11 3.90868E-12
5.83057E-11 3.90762E-12
6.16850E-11 3.90654E-12
6.51595E-11 3.90542E-12
6.87293E-11 3.90427E-12
7.23943E-11 3.90310E-12
7.61544E-11 3.90189E-12
1.18991E-10 3.88818E-12
1.71347E-10 3.87155E-12
2.33223E-10 3.85204E-12
3.04617E-10 3.82973E-12
3.85531E-10 3.80471E-12
4.75965E-10 3.77706E-12
5.75917E-10 3.74689E-12
6.85389E-10 3.71431E-12
8.04380E-10 3.67942E-12
9.32891E-10 3.64236E-12
1.07092E-09 3.60298E-12
1.21847E-09 3.56182E-12
1.37554E-09 3.51910E-12
1.54213E-09 3.47469E-12
1.71823E-09 3.42836E-12
1.90386E-09 3.38093E-12
2.09900E-09 3.33257E-12
2.30367E-09 3.28252E-12
2.51785E-09 3.23156E-12
2.74156E-09 3.18009E-12
2.97478E-09 3.12797E-12
3.21752E-09 3.07461E-12
3.46978E-09 3.02116E-12
3.73156E-09 2.96773E-12
4.00286E-09 2.91349E-12
4.28368E-09 2.85907E-12
4.57402E-09 2.80501E-12
4.87388E-09 2.75120E-12
5.18326E-09 2.69674E-12
5.50215E-09 2.64291E-12
5.83057E-09 2.58978E-12
6.16850E-09 2.53660E-12
6.51596E-09 2.48373E-12
6.87293E-09 2.43175E-12
7.23942E-09 2.38063E-12
7.61544E-09 2.32931E-12
1.18991E-08 1.86315E-12
1.71347E-08 1.48482E-12
2.33223E-08 1.19020E-12
3.04617E-08 9.64487E-13
3.85531E-08 7.91369E-13
4.75965E-08 6.57200E-13
5.75917E-08 5.51669E-13
6.85389E-08 4.67267E-13
8.04380E-08 3.98744E-13
9.32891E-08 3.42394E-13
1.07092E-07 2.92408E-13
1.21847E-07 2.52501E-13
1.37554E-07 2.20838E-13
1.54213E-07 1.93679E-13
1.71823E-07 1.68251E-13
1.90386E-07 1.47631E-13
2.09900E-07 1.30734E-13
2.30367E-07 1.14803E-13
2.51785E-07 1.01079E-13
2.74156E-07 8.96492E-14
2.97478E-07 7.97745E-14
3.21752E-07 7.05673E-14
3.46978E-07 6.27895E-14
3.73156E-07 5.61769E-14
4.00286E-07 5.01537E-14
4.28368E-07 4.48382E-14
4.57402E-07 4.02660E-14
4.87388E-07 3.62774E-14
5.18325E-07 3.26208E-14
5.50215E-07 2.94415E-14
5.83057E-07 2.66655E-14
6.16850E-07 2.41697E-14
6.51596E-07 2.19389E-14
6.87293E-07 1.99731E-14
7.23942E-07 1.82320E-14
7.61543E-07 1.66476E-14
1.18991E-06 7.47054E-15
1.71347E-06 3.89182E-15
2.33223E-06 2.25040E-15
3.04617E-06 1.39727E-15
3.85531E-06 9.13067E-16
4.75964E-06 6.20098E-16
5.75916E-06 4.34402E-16
6.85388E-06 3.12461E-16
8.04378E-06 2.29994E-16
9.32888E-06 1.72773E-16
1.07092E-05 1.32118E-16
1.21846E-05 1.02759E-16
1.37553E-05 8.11081E-17
1.54212E-05 6.48437E-17
1.71822E-05 5.24715E-17
1.90385E-05 4.29192E-17
2.09899E-05 3.54540E-17
2.30365E-05 2.95473E-17
2.51783E-05 2.48251E-17
2.74153E-05 2.10119E-17
2.97475E-05 1.79036E-17
3.21749E-05 1.53516E-17
3.46974E-05 1.32405E-17
3.73152E-05 1.14804E-17
4.00281E-05 1.00043E-17
4.28362E-05 8.75871E-18
4.57395E-05 7.70122E-18
4.87380E-05 6.79837E-18
5.18317E-05 6.02419E-18
5.50205E-05 5.35722E-18
5.83045E-05 4.77966E-18
6.16838E-05 4.27796E-18
6.51582E-05 3.84047E-18
6.87277E-05 3.45741E-18
7.23925E-05 3.12088E-18
7.61524E-05 2.82434E-18
9.21439E-05 1.93834E-18
1.09658E-04 1.37358E-18
1.28695E-04 1.00005E-18
1.49255E-04 7.45059E-19
1.71338E-04 5.66285E-19
1.94942E-04 4.37963E-19
2.20070E-04 3.43957E-19
2.46720E-04 2.73833E-19
2.74892E-04 2.20674E-19
3.04586E-04 1.79793E-19
3.35803E-04 1.47940E-19
3.68542E-04 1.22829E-19
4.02802E-04 1.02819E-19
4.38585E-04 8.67173E-20
4.75889E-04 7.36434E-20
5.14715E-04 6.29393E-20
5.55063E-04 5.41088E-20
5.96931E-04 4.67717E-20
6.40321E-04 4.06355E-20
6.85233E-04 3.54719E-20
7.31665E-04 3.11018E-20
7.79618E-04 2.73836E-20
8.29092E-04 2.42039E-20
8.80086E-04 2.14720E-20
9.32601E-04 1.91142E-20
9.86636E-04 1.70709E-20
1.04219E-03 1.52930E-20
1.09927E-03 1.37404E-20
1.15786E-03 1.23795E-20
1.21797E-03 1.11827E-20
1.27961E-03 1.01269E-20
1.34276E-03 9.19262E-21
1.40743E-03 8.36343E-21
1.47362E-03 7.62549E-21
1.54133E-03 6.96703E-21
1.61056E-03 6.37800E-21
1.68131E-03 5.84981E-21
1.75357E-03 5.37507E-21
1.82735E-03 4.94744E-21
1.90265E-03 4.56142E-21
1.97947E-03 4.21225E-21
2.05780E-03 3.89578E-21
2.13765E-03 3.60843E-21
2.21902E-03 3.34703E-21
2.30190E-03 3.10883E-21
2.38630E-03 2.89140E-21
2.47222E-03 2.69260E-21
2.55965E-03 2.51056E-21
2.64859E-03 2.34362E-21
2.73905E-03 2.19029E-21
2.83103E-03 2.04926E-21
2.92452E-03 1.91938E-21
3.01952E-03 1.79960E-21
3.11604E-03 1.68900E-21
3.21407E-03 1.58674E-21
3.31362E-03 1.49209E-21
3.41468E-03 1.40437E-21
3.51725E-03 1.32299E-21
3.62133E-03 1.24740E-21
3.72692E-03 1.17712E-21
3.83403E-03 1.11170E-21
3.94265E-03 1.05076E-21
4.05278E-03 9.93917E-22
4.16442E-03 9.40860E-22
4.27757E-03 8.91285E-22
4.39223E-03 8.44923E-22
4.50840E-03 8.01528E-22
4.62608E-03 7.60875E-22
4.74527E-03 7.22758E-22
4.86597E-03 6.86992E-22
4.98817E-03 6.53403E-22
5.11188E-03 6.21836E-22
5.23711E-03 5.92146E-22
5.36383E-03 5.64201E-22
5.49207E-03 5.37880E-22
5.62181E-03 5.13071E-22
5.75306E-03 4.89671E-22
5.88581E-03 4.67585E-22
6.02007E-03 4.46726E-22
6.15583E-03 4.27013E-22
6.29310E-03 4.08372E-22
6.43187E-03 3.90733E-22
6.57214E-03 3.74033E-22
6.71392E-03 3.58212E-22
6.85720E-03 3.43216E-22
7.00198E-03 3.28993E-22
7.14827E-03 3.15497E-22
7.29605E-03 3.02683E-22
7.44534E-03 2.90511E-22
7.59612E-03 2.78941E-22
7.97965E-03 2.52431E-22
8.37255E-03 2.28985E-22
8.77480E-03 2.08189E-22
9.18641E-03 1.89691E-22
9.60736E-03 1.73194E-22
1.00376E-02 1.58445E-22
1.04773E-02 1.45226E-22
1.09262E-02 1.33352E-22
1.13844E-02 1.22661E-22
1.18520E-02 1.13015E-22
1.23288E-02 1.04295E-22
1.28150E-02 9.63957E-23
1.33104E-02 8.92267E-23
1.38150E-02 8.27085E-23
1.43290E-02 7.67718E-23
1.48521E-02 7.13555E-23
1.53845E-02 6.64060E-23
1.59262E-02 6.18760E-23
1.64770E-02 5.77236E-23
1.70371E-02 5.39117E-23
1.76063E-02 5.04076E-23
1.81848E-02 4.71819E-23
1.87724E-02 4.42087E-23
1.93692E-02 4.14645E-23
1.99751E-02 3.89287E-23
2.05901E-02 3.65826E-23
2.12143E-02 3.44094E-23
2.18476E-02 3.23942E-23
2.24900E-02 3.05234E-23
2.31415E-02 2.87848E-23
2.38021E-02 2.71674E-23
2.44717E-02 2.56612E-23
2.51504E-02 2.42572E-23
2.58382E-02 2.29473E-23
2.65349E-02 2.17239E-23
2.72407E-02 2.05804E-23
2.79555E-02 1.95106E-23
2.86793E-02 1.85088E-23
2.94120E-02 1.75701E-23
3.01537E-02 1.66896E-23
3.09043E-02 1.58632E-23
3.16639E-02 1.50868E-23
3.24324E-02 1.43570E-23
3.32098E-02 1.36704E-23
3.39961E-02 1.30240E-23
3.47912E-02 1.24151E-23
3.55952E-02 1.18410E-23
3.64081E-02 1.12994E-23
3.72297E-02 1.07881E-23
3.80602E-02 1.03052E-23
3.88995E-02 9.84878E-24
3.97476E-02 9.41707E-24
4.06044E-02 9.00854E-24
4.14700E-02 8.62173E-24
4.23443E-02 8.25524E-24
4.32273E-02 7.90782E-24
4.41190E-02 7.57831E-24
4.50194E-02 7.26560E-24
4.59284E-02 6.96870E-24
4.68461E-02 6.68664E-24
4.87074E-02 6.16365E-24
5.06030E-02 5.69028E-24
5.25328E-02 5.26101E-24
5.44967E-02 4.87104E-24
5.64946E-02 4.51613E-24
5.85262E-02 4.19261E-24
6.05914E-02 3.89721E-24
6.26901E-02 3.62706E-24
6.48222E-02 3.37963E-24
6.69873E-02 3.15269E-24
6.91854E-02 2.94423E-24
7.14163E-02 2.75250E-24
7.36799E-02 2.57591E-24
7.59760E-02 2.41307E-24
7.83043E-02 2.26271E-24
8.06647E-02 2.12372E-24
8.30571E-02 1.99508E-24
8.54812E-02 1.87589E-24
8.79369E-02 1.76533E-24
9.04240E-02 1.66267E-24
9.29422E-02 1.56725E-24
9.54915E-02 1.47846E-24
9.80716E-02 1.39577E-24
1.00682E-01 1.31868E-24
1.03323E-01 1.24675E-24
1.05995E-01 1.17956E-24
1.08696E-01 1.11676E-24
1.11427E-01 1.05801E-24
1.14188E-01 1.00300E-24
1.16978E-01 9.51449E-25
1.19797E-01 9.03102E-25
1.22645E-01 8.57726E-25
1.25522E-01 8.15105E-25
1.28428E-01 7.75044E-25
1.31361E-01 7.37362E-25
1.34323E-01 7.01892E-25
1.37313E-01 6.68483E-25
1.40330E-01 6.36993E-25
1.43375E-01 6.07293E-25
1.46447E-01 5.79263E-25
1.49545E-01 5.52793E-25
1.52671E-01 5.27780E-25
1.55823E-01 5.04132E-25
1.59001E-01 4.81760E-25
1.62205E-01 4.60583E-25
1.65435E-01 4.40526E-25
1.68690E-01 4.21520E-25
1.71970E-01 4.03500E-25
1.75276E-01 3.86406E-25
1.78606E-01 3.70182E-25
1.81961E-01 3.54776E-25
1.85340E-01 3.40139E-25
1.88743E-01 3.26228E-25
1.92169E-01 3.12998E-25
1.95619E-01 3.00411E-25
1.99092E-01 2.88431E-25
2.02589E-01 2.77023E-25
2.06107E-01 2.66155E-25
2.09649E-01 2.55797E-25
2.13212E-01 2.45921E-25
2.16797E-01 2.36500E-25
2.20404E-01 2.27510E-25
2.24032E-01 2.18928E-25
2.27680E-01 2.10733E-25
2.31350E-01 2.02903E-25
2.35040E-01 1.95419E-25
2.38751E-01 1.88264E-25
2.42481E-01 1.81421E-25
2.46231E-01 1.74874E-25
2.50000E-01 1.68607E-25
2.53788E-01 1.62607E-25
2.57595E-01 1.56860E-25
2.61421E-01 1.51355E-25
2.65264E-01 1.46078E-25
2.69126E-01 1.41019E-25
2.73005E-01 1.36167E-25
2.76901E-01 1.31513E-25
2.80814E-01 1.27047E-25
2.84744E-01 1.22759E-25
2.88691E-01 1.18643E-25
2.92653E-01 1.14689E-25
2.96632E-01 1.10890E-25
3.00625E-01 1.07239E-25
3.04634E-01 1.03730E-25
3.08658E-01 1.00356E-25
3.12697E-01 9.71100E-26
3.16749E-01 9.39875E-26
3.20816E-01 9.09826E-26
3.24896E-01 8.80902E-26
3.28990E-01 8.53053E-26
3.33097E-01 8.26233E-26
3.37216E-01 8.00397E-26
3.41348E-01 7.75503E-26
3.45492E-01 7.51511E-26
3.49647E-01 7.28383E-26
3.53814E-01 7.06082E-26
3.57992E-01 6.84574E-26
3.62181E-01 6.63826E-26
3.66381E-01 6.43807E-26
3.70590E-01 6.24487E-26
3.74810E-01 6.05837E-26
3.79039E-01 5.87830E-26
3.83277E-01 5.70441E-26
3.87524E-01 5.53645E-26
3.91780E-01 5.37418E-26
3.96044E-01 5.21737E-26
4.00316E-01 5.06582E-26
4.04596E-01 4.91931E-26
4.08882E-01 4.77766E-26
4.13176E-01 4.64067E-26
4.17476E-01 4.50817E-26
4.21783E-01 4.37999E-26
4.26095E-01 4.25596E-26
4.30413E-01 4.13592E-26
4.34737E-01 4.01973E-26
4.39065E-01 3.90724E-26
4.43398E-01 3.79832E-26
4.47736E-01 3.69283E-26
4.52077E-01 3.59065E-26
4.56422E-01 3.49166E-26
4.60770E-01 3.39575E-26
4.65122E-01 3.30279E-26
4.69476E-01 3.21270E-26
4.73832E-01 3.12535E-26
4.78190E-01 3.04067E-26
4.82550E-01 2.95855E-26
4.86912E-01 2.87890E-26
4.91274E-01 2.80164E-26
4.95637E-01 2.72668E-26
5.00000E-01 2.65395E-26
5.04363E-01 2.58336E-26
5.08726E-01 2.51486E-26
5.13088E-01 2.44835E-26
5.17450E-01 2.38379E-26
5.21810E-01 2.32109E-26
5.26168E-01 2.26021E-26
5.30524E-01 2.20107E-26
5.34878E-01 2.14363E-26
5.39230E-01 2.08782E-26
5.43578E-01 2.03359E-26
5.47923E-01 1.98089E-26
5.52264E-01 1.92967E-26
5.56602E-01 1.87989E-26
5.60935E-01 1.83149E-26
5.65263E-01 1.78443E-26
5.69587E-01 1.73868E-26
5.73905E-01 1.69418E-26
5.78217E-01 1.65090E-26
5.82524E-01 1.60880E-26
5.86824E-01 1.56784E-26
5.91118E-01 1.52799E-26
5.95404E-01 1.48921E-26
5.99684E-01 1.45148E-26
6.03956E-01 1.41475E-26
6.08220E-01 1.37900E-26
6.12476E-01 1.34420E-26
6.16723E-01 1.31032E-26
6.20961E-01 1.27732E-26
6.25190E-01 1.24520E-26
6.29410E-01 1.21391E-26
6.33619E-01 1.18343E-26
6.37819E-01 1.15375E-26
6.42008E-01 1.12483E-26
6.46186E-01 1.09666E-26
6.50353E-01 1.06920E-26
6.54508E-01 1.04245E-26
6.58652E-01 1.01638E-26
6.62784E-01 9.90976E-27
6.66903E-01 9.66210E-27
6.71010E-01 9.42068E-27
6.75104E-01 9.18532E-27
6.79184E-01 8.95585E-27
6.83251E-01 8.73211E-27
6.87303E-01 8.51393E-27
6.91342E-01 8.30115E-27
6.95366E-01 8.09364E-27
6.99375E-01 7.89123E-27
7.03368E-01 7.69380E-27
7.07347E-01 7.50119E-27
7.11309E-01 7.31329E-27
7.15256E-01 7.12996E-27
7.19186E-01 6.95108E-27
7.23099E-01 6.77653E-27
7.26995E-01 6.60618E-27
7.30874E-01 6.43994E-27
7.34736E-01 6.27769E-27
7.38579E-01 6.11931E-27
7.42405E-01 5.96472E-27
7.46212E-01 5.81381E-27
7.50000E-01 5.66648E-27
7.53769E-01 5.52264E-27
7.57519E-01 5.38220E-27
7.61249E-01 5.24508E-27
7.64960E-01 5.11117E-27
7.68650E-01 4.98041E-27
7.72320E-01 4.85271E-27
7.75968E-01 4.72800E-27
7.79596E-01 4.60619E-27
7.83203E-01 4.48722E-27
7.86788E-01 4.37101E-27
7.90351E-01 4.25749E-27
7.93893E-01 4.14661E-27
7.97411E-01 4.03828E-27
8.00908E-01 3.93245E-27
8.04381E-01 3.82906E-27
8.07831E-01 3.72804E-27
8.11257E-01 3.62935E-27
8.14660E-01 3.53291E-27
8.18039E-01 3.43868E-27
8.21394E-01 3.34661E-27
8.24724E-01 3.25664E-27
8.28030E-01 3.16873E-27
8.31310E-01 3.08281E-27
8.34565E-01 2.99886E-27
8.37795E-01 2.91681E-27
8.40999E-01 2.83663E-27
8.44177E-01 2.75827E-27
8.47329E-01 2.68170E-27
8.50455E-01 2.60686E-27
8.53553E-01 2.53372E-27
8.56625E-01 2.46224E-27
8.59670E-01 2.39238E-27
8.62687E-01 2.32411E-27
8.65677E-01 2.25739E-27
8.68639E-01 2.19218E-27
8.71572E-01 2.12846E-27
8.74478E-01 2.06619E-27
8.77355E-01 2.00533E-27
8.80203E-01 1.94586E-27
8.83022E-01 1.88774E-27
8.85812E-01 1.83095E-27
8.88573E-01 1.77546E-27
8.91304E-01 1.72124E-27
8.94005E-01 1.66826E-27
8.96677E-01 1.61650E-27
8.99318E-01 1.56594E-27
9.01928E-01 1.51654E-27
9.04508E-01 1.46828E-27
9.07058E-01 1.42114E-27
9.09576E-01 1.37510E-27
9.12063E-01 1.33013E-27
9.14519E-01 1.28621E-27
9.16943E-01 1.24333E-27
9.19335E-01 1.20146E-27
9.21696E-01 1.16058E-27
9.24024E-01 1.12067E-27
9.26320E-01 1.08172E-27
9.28584E-01 1.04370E-27
9.30815E-01 1.00660E-27
9.33013E-01 9.70394E-28
9.35178E-01 9.35076E-28
9.37310E-01 9.00625E-28
9.39409E-01 8.67026E-28
9.41474E-01 8.34264E-28
9.43505E-01 8.02322E-28
9.45503E-01 7.71187E-28
9.47467E-01 7.40844E-28
9.49397E-01 7.11280E-28
9.51293E-01 6.82482E-28
9.53154E-01 6.54436E-28
9.54981E-01 6.27131E-28
9.56773E-01 6.00553E-28
9.58530E-01 5.74692E-28
9.60252E-01 5.49535E-28
9.61940E-01 5.25072E-28
9.63592E-01 5.01291E-28
9.65209E-01 4.78183E-28
9.66790E-01 4.55737E-28
9.68336E-01 4.33944E-28
9.69846E-01 4.12794E-28
9.71321E-01 3.92277E-28
9.72759E-01 3.72386E-28
9.74162E-01 3.53110E-28
9.75528E-01 3.34443E-28
9.76858E-01 3.16376E-28
9.78152E-01 2.98901E-28
9.79410E-01 2.82011E-28
9.80631E-01 2.65698E-28
9.81815E-01 2.49956E-28
9.82963E-01 2.34778E-28
9.84074E-01 2.20158E-28
9.85148E-01 2.06089E-28
9.86185E-01 1.92565E-28
9.87185E-01 1.79581E-28
9.88148E-01 1.67131E-28
9.89074E-01 1.55210E-28
9.89962E-01 1.43813E-28
9.90814E-01 1.32935E-28
9.91627E-01 1.22572E-28
9.92404E-01 1.12719E-28
9.93143E-01 1.03372E-28
9.93844E-01 9.45280E-29
9.94508E-01 8.61823E-29
9.95134E-01 7.83318E-29
9.95722E-01 7.09732E-29
9.96273E-01 6.41035E-29
9.96786E-01 5.77198E-29
9.97261E-01 5.18195E-29
9.97698E-01 4.64001E-29
9.98097E-01 4.14594E-29
9.98459E-01 3.69954E-29
9.98782E-01 3.30062E-29
9.99067E-01 2.94902E-29
9.99315E-01 2.64459E-29
9.99524E-01 2.38720E-29
9.99695E-01 2.17676E-29
9.99829E-01 2.01317E-29
9.99924E-01 1.89637E-29
9.99981E-01 1.82631E-29
1.00000E+00 1.80295E-29
