 #
 # Subroutine ELSEPA. Elastic scattering of electrons and positrons
 #                    by neutral atoms and positive ions
 #
 # Projectile: positron
 # Kinetic energy = 5.00000E+07 eV = 1.83747E+06 a.u.
 #
 # WARNING: High-energy factorization with free-atom DF screening.
 #          Absorption, polarization and exchange corrections are
 #          switched off.
 #          Phase shifts are calculated for the bare nucleus.
 #          Scattering amplitudes are not evaluated.
 #
 # Element: Ni,  Z =  28,  atomic weight = 5.86934E+01 g/mol
 #
 # Nuclear model: Fermi distribution
 #                Average radius = 4.15828E-13 cm
 #                Skin thickness = 5.46000E-14 cm
 #
 # Number of electrons = 28
 #
 # Total elastic cross section = 1.96804E-18 cm**2 = 7.02801E-02 a0**2
 # 1st transport cross section = 5.92290E-25 cm**2 = 2.11511E-08 a0**2
 # 2nd transport cross section = 1.73799E-24 cm**2 = 6.20646E-08 a0**2
 #
 #
 # Differential cross section:                       MU=(1-COS(THETA))/2
 #
 #  THETA        MU          DCS          DCS        Sherman      error
 #  (deg)                 (cm**2/sr)   (a0**2/sr)    function
 #----------------------------------------------------------------------
0.00000E+00 4.16387E-11
7.61557E-13 4.16107E-11
1.18994E-12 4.15951E-11
1.71346E-12 4.15760E-11
2.33225E-12 4.15535E-11
3.04617E-12 4.15275E-11
3.85530E-12 4.14981E-11
4.75964E-12 4.14653E-11
5.75917E-12 4.14291E-11
6.85391E-12 4.13895E-11
8.04379E-12 4.13465E-11
9.32893E-12 4.13002E-11
1.07092E-11 4.12506E-11
1.21847E-11 4.11977E-11
1.37554E-11 4.11414E-11
1.54213E-11 4.10819E-11
1.71823E-11 4.10192E-11
1.90386E-11 4.09532E-11
2.09900E-11 4.08840E-11
2.30367E-11 4.08117E-11
2.51785E-11 4.07363E-11
2.74156E-11 4.06577E-11
2.97478E-11 4.05761E-11
3.21752E-11 4.04914E-11
3.46979E-11 4.04037E-11
3.73157E-11 4.03131E-11
4.00286E-11 4.02195E-11
4.28368E-11 4.01230E-11
4.57402E-11 4.00236E-11
4.87388E-11 3.99214E-11
5.18325E-11 3.98164E-11
5.50215E-11 3.97086E-11
5.83057E-11 3.95982E-11
6.16850E-11 3.94851E-11
6.51595E-11 3.93693E-11
6.87293E-11 3.92510E-11
7.23943E-11 3.91301E-11
7.61544E-11 3.90068E-11
1.18991E-10 3.76421E-11
1.71347E-10 3.60823E-11
2.33223E-10 3.43750E-11
3.04617E-10 3.25691E-11
3.85531E-10 3.07105E-11
4.75965E-10 2.88399E-11
5.75917E-10 2.69916E-11
6.85389E-10 2.51932E-11
8.04380E-10 2.34643E-11
9.32891E-10 2.18196E-11
1.07092E-09 2.02709E-11
1.21847E-09 1.88231E-11
1.37554E-09 1.74776E-11
1.54213E-09 1.62329E-11
1.71823E-09 1.50855E-11
1.90386E-09 1.40305E-11
2.09900E-09 1.30623E-11
2.30367E-09 1.21747E-11
2.51785E-09 1.13613E-11
2.74156E-09 1.06160E-11
2.97478E-09 9.93283E-12
3.21752E-09 9.30529E-12
3.46978E-09 8.72891E-12
3.73156E-09 8.19899E-12
4.00286E-09 7.71107E-12
4.28368E-09 7.26113E-12
4.57402E-09 6.84553E-12
4.87388E-09 6.46100E-12
5.18326E-09 6.10461E-12
5.50215E-09 5.77374E-12
5.83057E-09 5.46604E-12
6.16850E-09 5.17941E-12
6.51596E-09 4.91198E-12
6.87293E-09 4.66194E-12
7.23942E-09 4.42760E-12
7.61544E-09 4.20799E-12
1.18991E-08 2.57261E-12
1.71347E-08 1.65908E-12
2.33223E-08 1.09820E-12
3.04617E-08 7.42751E-13
3.85531E-08 5.12846E-13
4.75965E-08 3.61622E-13
5.75917E-08 2.60496E-13
6.85389E-08 1.91689E-13
8.04380E-08 1.43979E-13
9.32891E-08 1.10283E-13
1.07092E-07 8.60308E-14
1.21847E-07 6.82289E-14
1.37554E-07 5.49153E-14
1.54213E-07 4.47824E-14
1.71823E-07 3.69443E-14
1.90386E-07 3.07906E-14
2.09900E-07 2.58943E-14
2.30367E-07 2.19501E-14
2.51785E-07 1.87362E-14
2.74156E-07 1.60942E-14
2.97478E-07 1.39036E-14
3.21752E-07 1.20715E-14
3.46978E-07 1.05298E-14
3.73156E-07 9.22431E-15
4.00286E-07 8.11260E-15
4.28368E-07 7.16100E-15
4.57402E-07 6.34268E-15
4.87388E-07 5.63601E-15
5.18325E-07 5.02340E-15
5.50215E-07 4.49043E-15
5.83057E-07 4.02518E-15
6.16850E-07 3.61771E-15
6.51596E-07 3.25976E-15
6.87293E-07 2.94432E-15
7.23942E-07 2.66551E-15
7.61543E-07 2.41850E-15
1.18991E-06 1.01717E-15
1.71347E-06 4.98581E-16
2.33223E-06 2.72611E-16
3.04617E-06 1.61575E-16
3.85531E-06 1.01837E-16
4.75964E-06 6.73571E-17
5.75916E-06 4.63124E-17
6.85388E-06 3.28797E-17
8.04378E-06 2.39795E-17
9.32888E-06 1.78934E-17
1.07092E-05 1.36188E-17
1.21846E-05 1.05461E-17
1.37553E-05 8.29181E-18
1.54212E-05 6.60800E-18
1.71822E-05 5.33013E-18
1.90385E-05 4.34596E-18
2.09899E-05 3.57916E-18
2.30365E-05 2.97398E-18
2.51783E-05 2.49120E-18
2.74153E-05 2.10229E-18
2.97475E-05 1.78627E-18
3.21749E-05 1.52738E-18
3.46974E-05 1.31372E-18
3.73152E-05 1.13614E-18
4.00281E-05 9.87580E-19
4.28362E-05 8.62517E-19
4.57395E-05 7.56622E-19
4.87380E-05 6.66470E-19
5.18317E-05 5.89332E-19
5.50205E-05 5.23022E-19
5.83045E-05 4.65770E-19
6.16838E-05 4.16137E-19
6.51582E-05 3.72941E-19
6.87277E-05 3.35207E-19
7.23925E-05 3.02127E-19
7.61524E-05 2.73028E-19
9.21439E-05 1.86452E-19
1.09658E-04 1.31612E-19
1.28695E-04 9.55259E-20
1.49255E-04 7.09942E-20
1.71338E-04 5.38530E-20
1.94942E-04 4.15833E-20
2.20070E-04 3.26154E-20
2.46720E-04 2.59386E-20
2.74892E-04 2.08848E-20
3.04586E-04 1.70034E-20
3.35803E-04 1.39824E-20
3.68542E-04 1.16031E-20
4.02802E-04 9.70857E-21
4.38585E-04 8.18506E-21
4.75889E-04 6.94877E-21
5.14715E-04 5.93707E-21
5.55063E-04 5.10281E-21
5.96931E-04 4.40991E-21
6.40321E-04 3.83059E-21
6.85233E-04 3.34325E-21
7.31665E-04 2.93091E-21
7.79618E-04 2.58014E-21
8.29092E-04 2.28025E-21
8.80086E-04 2.02263E-21
9.32601E-04 1.80033E-21
9.86636E-04 1.60771E-21
1.04219E-03 1.44013E-21
1.09927E-03 1.29380E-21
1.15786E-03 1.16556E-21
1.21797E-03 1.05280E-21
1.27961E-03 9.53321E-22
1.34276E-03 8.65302E-22
1.40743E-03 7.87191E-22
1.47362E-03 7.17684E-22
1.54133E-03 6.55666E-22
1.61056E-03 6.00192E-22
1.68131E-03 5.50450E-22
1.75357E-03 5.05746E-22
1.82735E-03 4.65479E-22
1.90265E-03 4.29132E-22
1.97947E-03 3.96257E-22
2.05780E-03 3.66464E-22
2.13765E-03 3.39411E-22
2.21902E-03 3.14804E-22
2.30190E-03 2.92381E-22
2.38630E-03 2.71915E-22
2.47222E-03 2.53203E-22
2.55965E-03 2.36070E-22
2.64859E-03 2.20357E-22
2.73905E-03 2.05927E-22
2.83103E-03 1.92655E-22
2.92452E-03 1.80433E-22
3.01952E-03 1.69162E-22
3.11604E-03 1.58754E-22
3.21407E-03 1.49133E-22
3.31362E-03 1.40227E-22
3.41468E-03 1.31974E-22
3.51725E-03 1.24317E-22
3.62133E-03 1.17206E-22
3.72692E-03 1.10594E-22
3.83403E-03 1.04440E-22
3.94265E-03 9.87072E-23
4.05278E-03 9.33607E-23
4.16442E-03 8.83701E-23
4.27757E-03 8.37072E-23
4.39223E-03 7.93468E-23
4.50840E-03 7.52655E-23
4.62608E-03 7.14422E-23
4.74527E-03 6.78577E-23
4.86597E-03 6.44943E-23
4.98817E-03 6.13359E-23
5.11188E-03 5.83676E-23
5.23711E-03 5.55760E-23
5.36383E-03 5.29486E-23
5.49207E-03 5.04739E-23
5.62181E-03 4.81415E-23
5.75306E-03 4.59417E-23
5.88581E-03 4.38655E-23
6.02007E-03 4.19048E-23
6.15583E-03 4.00519E-23
6.29310E-03 3.82997E-23
6.43187E-03 3.66419E-23
6.57214E-03 3.50723E-23
6.71392E-03 3.35855E-23
6.85720E-03 3.21763E-23
7.00198E-03 3.08398E-23
7.14827E-03 2.95716E-23
7.29605E-03 2.83676E-23
7.44534E-03 2.72239E-23
7.59612E-03 2.61370E-23
7.97965E-03 2.36466E-23
8.37255E-03 2.14442E-23
8.77480E-03 1.94911E-23
9.18641E-03 1.77540E-23
9.60736E-03 1.62051E-23
1.00376E-02 1.48205E-23
1.04773E-02 1.35797E-23
1.09262E-02 1.24653E-23
1.13844E-02 1.14621E-23
1.18520E-02 1.05572E-23
1.23288E-02 9.73919E-24
1.28150E-02 8.99833E-24
1.33104E-02 8.32607E-24
1.38150E-02 7.71495E-24
1.43290E-02 7.15845E-24
1.48521E-02 6.65083E-24
1.53845E-02 6.18704E-24
1.59262E-02 5.76264E-24
1.64770E-02 5.37369E-24
1.70371E-02 5.01672E-24
1.76063E-02 4.68863E-24
1.81848E-02 4.38667E-24
1.87724E-02 4.10841E-24
1.93692E-02 3.85164E-24
1.99751E-02 3.61442E-24
2.05901E-02 3.39499E-24
2.12143E-02 3.19179E-24
2.18476E-02 3.00340E-24
2.24900E-02 2.82855E-24
2.31415E-02 2.66610E-24
2.38021E-02 2.51501E-24
2.44717E-02 2.37435E-24
2.51504E-02 2.24326E-24
2.58382E-02 2.12099E-24
2.65349E-02 2.00683E-24
2.72407E-02 1.90014E-24
2.79555E-02 1.80036E-24
2.86793E-02 1.70696E-24
2.94120E-02 1.61945E-24
3.01537E-02 1.53741E-24
3.09043E-02 1.46041E-24
3.16639E-02 1.38811E-24
3.24324E-02 1.32016E-24
3.32098E-02 1.25626E-24
3.39961E-02 1.19612E-24
3.47912E-02 1.13947E-24
3.55952E-02 1.08609E-24
3.64081E-02 1.03575E-24
3.72297E-02 9.88237E-25
3.80602E-02 9.43376E-25
3.88995E-02 9.00989E-25
3.97476E-02 8.60914E-25
4.06044E-02 8.23003E-25
4.14700E-02 7.87119E-25
4.23443E-02 7.53133E-25
4.32273E-02 7.20928E-25
4.41190E-02 6.90394E-25
4.50194E-02 6.61429E-25
4.59284E-02 6.33937E-25
4.68461E-02 6.07830E-25
4.87074E-02 5.59449E-25
5.06030E-02 5.15694E-25
5.25328E-02 4.76048E-25
5.44967E-02 4.40060E-25
5.64946E-02 4.07337E-25
5.85262E-02 3.77533E-25
6.05914E-02 3.50343E-25
6.26901E-02 3.25501E-25
6.48222E-02 3.02769E-25
6.69873E-02 2.81938E-25
6.91854E-02 2.62823E-25
7.14163E-02 2.45259E-25
7.36799E-02 2.29098E-25
7.59760E-02 2.14211E-25
7.83043E-02 2.00479E-25
8.06647E-02 1.87799E-25
8.30571E-02 1.76076E-25
8.54812E-02 1.65226E-25
8.79369E-02 1.55173E-25
9.04240E-02 1.45849E-25
9.29422E-02 1.37192E-25
9.54915E-02 1.29147E-25
9.80716E-02 1.21663E-25
1.00682E-01 1.14694E-25
1.03323E-01 1.08200E-25
1.05995E-01 1.02142E-25
1.08696E-01 9.64874E-26
1.11427E-01 9.12036E-26
1.14188E-01 8.62627E-26
1.16978E-01 8.16388E-26
1.19797E-01 7.73083E-26
1.22645E-01 7.32495E-26
1.25522E-01 6.94426E-26
1.28428E-01 6.58694E-26
1.31361E-01 6.25132E-26
1.34323E-01 5.93587E-26
1.37313E-01 5.63919E-26
1.40330E-01 5.35997E-26
1.43375E-01 5.09703E-26
1.46447E-01 4.84926E-26
1.49545E-01 4.61564E-26
1.52671E-01 4.39524E-26
1.55823E-01 4.18720E-26
1.59001E-01 3.99070E-26
1.62205E-01 3.80501E-26
1.65435E-01 3.62944E-26
1.68690E-01 3.46334E-26
1.71970E-01 3.30614E-26
1.75276E-01 3.15727E-26
1.78606E-01 3.01623E-26
1.81961E-01 2.88253E-26
1.85340E-01 2.75575E-26
1.88743E-01 2.63545E-26
1.92169E-01 2.52127E-26
1.95619E-01 2.41285E-26
1.99092E-01 2.30984E-26
2.02589E-01 2.21193E-26
2.06107E-01 2.11884E-26
2.09649E-01 2.03029E-26
2.13212E-01 1.94603E-26
2.16797E-01 1.86581E-26
2.20404E-01 1.78942E-26
2.24032E-01 1.71664E-26
2.27680E-01 1.64728E-26
2.31350E-01 1.58115E-26
2.35040E-01 1.51808E-26
2.38751E-01 1.45791E-26
2.42481E-01 1.40048E-26
2.46231E-01 1.34565E-26
2.50000E-01 1.29329E-26
2.53788E-01 1.24326E-26
2.57595E-01 1.19546E-26
2.61421E-01 1.14976E-26
2.65264E-01 1.10606E-26
2.69126E-01 1.06426E-26
2.73005E-01 1.02426E-26
2.76901E-01 9.85984E-27
2.80814E-01 9.49338E-27
2.84744E-01 9.14243E-27
2.88691E-01 8.80627E-27
2.92653E-01 8.48416E-27
2.96632E-01 8.17545E-27
3.00625E-01 7.87950E-27
3.04634E-01 7.59571E-27
3.08658E-01 7.32351E-27
3.12697E-01 7.06235E-27
3.16749E-01 6.81174E-27
3.20816E-01 6.57118E-27
3.24896E-01 6.34022E-27
3.28990E-01 6.11843E-27
3.33097E-01 5.90538E-27
3.37216E-01 5.70069E-27
3.41348E-01 5.50399E-27
3.45492E-01 5.31492E-27
3.49647E-01 5.13315E-27
3.53814E-01 4.95836E-27
3.57992E-01 4.79024E-27
3.62181E-01 4.62851E-27
3.66381E-01 4.47289E-27
3.70590E-01 4.32312E-27
3.74810E-01 4.17896E-27
3.79039E-01 4.04016E-27
3.83277E-01 3.90650E-27
3.87524E-01 3.77777E-27
3.91780E-01 3.65376E-27
3.96044E-01 3.53428E-27
4.00316E-01 3.41914E-27
4.04596E-01 3.30816E-27
4.08882E-01 3.20117E-27
4.13176E-01 3.09802E-27
4.17476E-01 2.99854E-27
4.21783E-01 2.90259E-27
4.26095E-01 2.81004E-27
4.30413E-01 2.72074E-27
4.34737E-01 2.63456E-27
4.39065E-01 2.55139E-27
4.43398E-01 2.47111E-27
4.47736E-01 2.39360E-27
4.52077E-01 2.31876E-27
4.56422E-01 2.24649E-27
4.60770E-01 2.17668E-27
4.65122E-01 2.10924E-27
4.69476E-01 2.04409E-27
4.73832E-01 1.98113E-27
4.78190E-01 1.92029E-27
4.82550E-01 1.86148E-27
4.86912E-01 1.80463E-27
4.91274E-01 1.74966E-27
4.95637E-01 1.69651E-27
5.00000E-01 1.64511E-27
5.04363E-01 1.59540E-27
5.08726E-01 1.54731E-27
5.13088E-01 1.50078E-27
5.17450E-01 1.45577E-27
5.21810E-01 1.41221E-27
5.26168E-01 1.37005E-27
5.30524E-01 1.32924E-27
5.34878E-01 1.28974E-27
5.39230E-01 1.25149E-27
5.43578E-01 1.21446E-27
5.47923E-01 1.17860E-27
5.52264E-01 1.14387E-27
5.56602E-01 1.11023E-27
5.60935E-01 1.07764E-27
5.65263E-01 1.04607E-27
5.69587E-01 1.01548E-27
5.73905E-01 9.85841E-28
5.78217E-01 9.57116E-28
5.82524E-01 9.29274E-28
5.86824E-01 9.02287E-28
5.91118E-01 8.76125E-28
5.95404E-01 8.50762E-28
5.99684E-01 8.26169E-28
6.03956E-01 8.02321E-28
6.08220E-01 7.79194E-28
6.12476E-01 7.56763E-28
6.16723E-01 7.35006E-28
6.20961E-01 7.13900E-28
6.25190E-01 6.93424E-28
6.29410E-01 6.73558E-28
6.33619E-01 6.54281E-28
6.37819E-01 6.35574E-28
6.42008E-01 6.17420E-28
6.46186E-01 5.99799E-28
6.50353E-01 5.82696E-28
6.54508E-01 5.66093E-28
6.58652E-01 5.49974E-28
6.62784E-01 5.34325E-28
6.66903E-01 5.19130E-28
6.71010E-01 5.04374E-28
6.75104E-01 4.90045E-28
6.79184E-01 4.76128E-28
6.83251E-01 4.62611E-28
6.87303E-01 4.49481E-28
6.91342E-01 4.36726E-28
6.95366E-01 4.24335E-28
6.99375E-01 4.12296E-28
7.03368E-01 4.00599E-28
7.07347E-01 3.89233E-28
7.11309E-01 3.78187E-28
7.15256E-01 3.67453E-28
7.19186E-01 3.57020E-28
7.23099E-01 3.46880E-28
7.26995E-01 3.37023E-28
7.30874E-01 3.27442E-28
7.34736E-01 3.18127E-28
7.38579E-01 3.09071E-28
7.42405E-01 3.00266E-28
7.46212E-01 2.91705E-28
7.50000E-01 2.83380E-28
7.53769E-01 2.75285E-28
7.57519E-01 2.67412E-28
7.61249E-01 2.59755E-28
7.64960E-01 2.52308E-28
7.68650E-01 2.45065E-28
7.72320E-01 2.38019E-28
7.75968E-01 2.31165E-28
7.79596E-01 2.24498E-28
7.83203E-01 2.18011E-28
7.86788E-01 2.11700E-28
7.90351E-01 2.05560E-28
7.93893E-01 1.99586E-28
7.97411E-01 1.93773E-28
8.00908E-01 1.88116E-28
8.04381E-01 1.82612E-28
8.07831E-01 1.77255E-28
8.11257E-01 1.72041E-28
8.14660E-01 1.66968E-28
8.18039E-01 1.62029E-28
8.21394E-01 1.57223E-28
8.24724E-01 1.52545E-28
8.28030E-01 1.47991E-28
8.31310E-01 1.43559E-28
8.34565E-01 1.39244E-28
8.37795E-01 1.35044E-28
8.40999E-01 1.30956E-28
8.44177E-01 1.26975E-28
8.47329E-01 1.23100E-28
8.50455E-01 1.19328E-28
8.53553E-01 1.15655E-28
8.56625E-01 1.12080E-28
8.59670E-01 1.08599E-28
8.62687E-01 1.05209E-28
8.65677E-01 1.01910E-28
8.68639E-01 9.86971E-29
8.71572E-01 9.55692E-29
8.74478E-01 9.25239E-29
8.77355E-01 8.95589E-29
8.80203E-01 8.66722E-29
8.83022E-01 8.38616E-29
8.85812E-01 8.11253E-29
8.88573E-01 7.84613E-29
8.91304E-01 7.58676E-29
8.94005E-01 7.33426E-29
8.96677E-01 7.08845E-29
8.99318E-01 6.84915E-29
9.01928E-01 6.61619E-29
9.04508E-01 6.38943E-29
9.07058E-01 6.16870E-29
9.09576E-01 5.95385E-29
9.12063E-01 5.74474E-29
9.14519E-01 5.54121E-29
9.16943E-01 5.34315E-29
9.19335E-01 5.15040E-29
9.21696E-01 4.96285E-29
9.24024E-01 4.78036E-29
9.26320E-01 4.60282E-29
9.28584E-01 4.43010E-29
9.30815E-01 4.26209E-29
9.33013E-01 4.09867E-29
9.35178E-01 3.93975E-29
9.37310E-01 3.78521E-29
9.39409E-01 3.63496E-29
9.41474E-01 3.48889E-29
9.43505E-01 3.34691E-29
9.45503E-01 3.20893E-29
9.47467E-01 3.07485E-29
9.49397E-01 2.94460E-29
9.51293E-01 2.81808E-29
9.53154E-01 2.69521E-29
9.54981E-01 2.57592E-29
9.56773E-01 2.46013E-29
9.58530E-01 2.34776E-29
9.60252E-01 2.23874E-29
9.61940E-01 2.13301E-29
9.63592E-01 2.03048E-29
9.65209E-01 1.93111E-29
9.66790E-01 1.83483E-29
9.68336E-01 1.74157E-29
9.69846E-01 1.65128E-29
9.71321E-01 1.56390E-29
9.72759E-01 1.47938E-29
9.74162E-01 1.39766E-29
9.75528E-01 1.31869E-29
9.76858E-01 1.24242E-29
9.78152E-01 1.16880E-29
9.79410E-01 1.09779E-29
9.80631E-01 1.02935E-29
9.81815E-01 9.63432E-30
9.82963E-01 8.99992E-30
9.84074E-01 8.38994E-30
9.85148E-01 7.80400E-30
9.86185E-01 7.24173E-30
9.87185E-01 6.70280E-30
9.88148E-01 6.18687E-30
9.89074E-01 5.69363E-30
9.89962E-01 5.22276E-30
9.90814E-01 4.77399E-30
9.91627E-01 4.34703E-30
9.92404E-01 3.94164E-30
9.93143E-01 3.55755E-30
9.93844E-01 3.19454E-30
9.94508E-01 2.85238E-30
9.95134E-01 2.53087E-30
9.95722E-01 2.22981E-30
9.96273E-01 1.94902E-30
9.96786E-01 1.68832E-30
9.97261E-01 1.44756E-30
9.97698E-01 1.22660E-30
9.98097E-01 1.02530E-30
9.98459E-01 8.43527E-31
9.98782E-01 6.81187E-31
9.99067E-01 5.38175E-31
9.99315E-01 4.14406E-31
9.99524E-01 3.09804E-31
9.99695E-01 2.24307E-31
9.99829E-01 1.57862E-31
9.99924E-01 1.10432E-31
9.99981E-01 8.19839E-32
1.00000E+00 7.25001E-32
