 #
 # Subroutine ELSEPA. Elastic scattering of electrons and positrons
 #                    by neutral atoms and positive ions
 #
 # Projectile: positron
 # Kinetic energy = 7.00000E+08 eV = 2.57245E+07 a.u.
 #
 # WARNING: High-energy factorization with free-atom DF screening.
 #          Absorption, polarization and exchange corrections are
 #          switched off.
 #          Phase shifts are calculated for the bare nucleus.
 #          Scattering amplitudes are not evaluated.
 #
 # Element: Ni,  Z =  28,  atomic weight = 5.86934E+01 g/mol
 #
 # Nuclear model: Fermi distribution
 #                Average radius = 4.15828E-13 cm
 #                Skin thickness = 5.46000E-14 cm
 #
 # Number of electrons = 28
 #
 # Total elastic cross section = 1.96503E-18 cm**2 = 7.01724E-02 a0**2
 # 1st transport cross section = 3.29295E-27 cm**2 = 1.17594E-10 a0**2
 # 2nd transport cross section = 9.87635E-27 cm**2 = 3.52691E-10 a0**2
 #
 #
 # Differential cross section:                       MU=(1-COS(THETA))/2
 #
 #  THETA        MU          DCS          DCS        Sherman      error
 #  (deg)                 (cm**2/sr)   (a0**2/sr)    function
 #----------------------------------------------------------------------
0.00000E+00 8.00857E-09
7.61557E-13 7.08022E-09
1.18994E-12 6.63373E-09
1.71346E-12 6.15002E-09
2.33225E-12 5.65229E-09
3.04617E-12 5.15771E-09
3.85530E-12 4.68239E-09
4.75964E-12 4.23676E-09
5.75917E-12 3.82611E-09
6.85391E-12 3.45176E-09
8.04379E-12 3.11536E-09
9.32893E-12 2.81512E-09
1.07092E-11 2.54785E-09
1.21847E-11 2.31067E-09
1.37554E-11 2.10077E-09
1.54213E-11 1.91494E-09
1.71823E-11 1.74963E-09
1.90386E-11 1.60276E-09
2.09900E-11 1.47199E-09
2.30367E-11 1.35503E-09
2.51785E-11 1.24994E-09
2.74156E-11 1.15549E-09
2.97478E-11 1.07031E-09
3.21752E-11 9.93014E-10
3.46979E-11 9.22771E-10
3.73157E-11 8.58849E-10
4.00286E-11 8.00489E-10
4.28368E-11 7.46843E-10
4.57402E-11 6.97648E-10
4.87388E-11 6.49446E-10
5.18325E-11 6.04690E-10
5.50215E-11 5.64649E-10
5.83057E-11 5.28723E-10
6.16850E-11 4.96395E-10
6.51595E-11 4.67227E-10
6.87293E-11 4.40839E-10
7.23943E-11 4.16904E-10
7.61544E-11 3.90843E-10
1.18991E-10 2.16977E-10
1.71347E-10 1.26487E-10
2.33223E-10 7.69381E-11
3.04617E-10 4.86004E-11
3.85531E-10 3.20150E-11
4.75965E-10 2.19403E-11
5.75917E-10 1.55744E-11
6.85389E-10 1.13972E-11
8.04380E-10 8.56411E-12
9.32891E-10 6.58058E-12
1.07092E-09 5.15083E-12
1.21847E-09 4.09482E-12
1.37554E-09 3.29885E-12
1.54213E-09 2.68855E-12
1.71823E-09 2.21222E-12
1.90386E-09 1.83638E-12
2.09900E-09 1.53641E-12
2.30367E-09 1.29437E-12
2.51785E-09 1.09724E-12
2.74156E-09 9.35742E-13
2.97478E-09 8.02484E-13
3.21752E-09 6.91704E-13
3.46978E-09 5.99126E-13
3.73156E-09 5.21348E-13
4.00286E-09 4.55641E-13
4.28368E-09 3.99813E-13
4.57402E-09 3.52206E-13
4.87388E-09 3.11330E-13
5.18326E-09 2.76217E-13
5.50215E-09 2.45986E-13
5.83057E-09 2.19727E-13
6.16850E-09 1.96835E-13
6.51596E-09 1.76884E-13
6.87293E-09 1.59390E-13
7.23942E-09 1.43981E-13
7.61544E-09 1.30409E-13
1.18991E-08 5.44394E-14
1.71347E-08 2.66565E-14
2.33223E-08 1.45662E-14
3.04617E-08 8.62078E-15
3.85531E-08 5.42171E-15
4.75965E-08 3.57720E-15
5.75917E-08 2.45372E-15
6.85389E-08 1.73815E-15
8.04380E-08 1.26513E-15
9.32891E-08 9.42433E-16
1.07092E-07 7.16260E-16
1.21847E-07 5.53975E-16
1.37554E-07 4.35112E-16
1.54213E-07 3.46460E-16
1.71823E-07 2.79262E-16
1.90386E-07 2.27583E-16
2.09900E-07 1.87316E-16
2.30367E-07 1.55569E-16
2.51785E-07 1.30268E-16
2.74156E-07 1.09905E-16
2.97478E-07 9.33683E-17
3.21752E-07 7.98269E-17
3.46978E-07 6.86528E-17
3.73156E-07 5.93667E-17
4.00286E-07 5.15983E-17
4.28368E-07 4.50597E-17
4.57402E-07 3.95245E-17
4.87388E-07 3.48135E-17
5.18325E-07 3.07838E-17
5.50215E-07 2.73205E-17
5.83057E-07 2.43308E-17
6.16850E-07 2.17390E-17
6.51596E-07 1.94832E-17
6.87293E-07 1.75125E-17
7.23942E-07 1.57848E-17
7.61543E-07 1.42649E-17
1.18991E-06 5.84370E-18
1.71347E-06 2.81816E-18
2.33223E-06 1.52109E-18
3.04617E-06 8.91567E-19
3.85531E-06 5.56549E-19
4.75964E-06 3.65115E-19
5.75916E-06 2.49352E-19
6.85388E-06 1.76040E-19
8.04378E-06 1.27795E-19
9.32888E-06 9.50005E-20
1.07092E-05 7.20814E-20
1.21846E-05 5.56747E-20
1.37553E-05 4.36809E-20
1.54212E-05 3.47493E-20
1.71822E-05 2.79879E-20
1.90385E-05 2.27917E-20
2.09899E-05 1.87507E-20
2.30365E-05 1.55663E-20
2.51783E-05 1.30294E-20
2.74153E-05 1.09882E-20
2.97475E-05 9.33113E-21
3.21749E-05 7.97487E-21
3.46974E-05 6.85637E-21
3.73152E-05 5.92738E-21
4.00281E-05 5.15063E-21
4.28362E-05 4.49709E-21
4.57395E-05 3.94396E-21
4.87380E-05 3.47325E-21
5.18317E-05 3.07064E-21
5.50205E-05 2.72465E-21
5.83045E-05 2.42601E-21
6.16838E-05 2.16718E-21
6.51582E-05 1.94197E-21
6.87277E-05 1.74528E-21
7.23925E-05 1.57288E-21
7.61524E-05 1.40626E-21
9.21439E-05 9.57319E-22
1.09658E-04 6.73440E-22
1.28695E-04 4.86975E-22
1.49255E-04 3.60453E-22
1.71338E-04 2.72225E-22
1.94942E-04 2.09209E-22
2.20070E-04 1.63256E-22
2.46720E-04 1.29129E-22
2.74892E-04 1.03366E-22
3.04586E-04 8.36363E-23
3.35803E-04 6.83271E-23
3.68542E-04 5.63085E-23
4.02802E-04 4.67718E-23
4.38585E-04 3.91305E-23
4.75889E-04 3.29537E-23
5.14715E-04 2.79195E-23
5.55063E-04 2.37860E-23
5.96931E-04 2.03682E-23
6.40321E-04 1.75242E-23
6.85233E-04 1.51434E-23
7.31665E-04 1.31394E-23
7.79618E-04 1.14439E-23
8.29092E-04 1.00023E-23
8.80086E-04 8.77115E-24
9.32601E-04 7.71526E-24
9.86636E-04 6.80608E-24
1.04219E-03 6.02030E-24
1.09927E-03 5.33877E-24
1.15786E-03 4.74571E-24
1.21797E-03 4.22800E-24
1.27961E-03 3.77474E-24
1.34276E-03 3.37680E-24
1.40743E-03 3.02649E-24
1.47362E-03 2.71734E-24
1.54133E-03 2.44386E-24
1.61056E-03 2.20139E-24
1.68131E-03 1.98595E-24
1.75357E-03 1.79414E-24
1.82735E-03 1.62302E-24
1.90265E-03 1.47010E-24
1.97947E-03 1.33318E-24
2.05780E-03 1.21040E-24
2.13765E-03 1.10011E-24
2.21902E-03 1.00089E-24
2.30190E-03 9.11502E-25
2.38630E-03 8.30860E-25
2.47222E-03 7.58011E-25
2.55965E-03 6.92119E-25
2.64859E-03 6.32448E-25
2.73905E-03 5.78347E-25
2.83103E-03 5.29243E-25
2.92452E-03 4.84628E-25
3.01952E-03 4.44050E-25
3.11604E-03 4.07108E-25
3.21407E-03 3.73447E-25
3.31362E-03 3.42749E-25
3.41468E-03 3.14728E-25
3.51725E-03 2.89131E-25
3.62133E-03 2.65731E-25
3.72692E-03 2.44325E-25
3.83403E-03 2.24727E-25
3.94265E-03 2.06775E-25
4.05278E-03 1.90319E-25
4.16442E-03 1.75226E-25
4.27757E-03 1.61375E-25
4.39223E-03 1.48658E-25
4.50840E-03 1.36975E-25
4.62608E-03 1.26238E-25
4.74527E-03 1.16365E-25
4.86597E-03 1.07282E-25
4.98817E-03 9.89241E-26
5.11188E-03 9.12295E-26
5.23711E-03 8.41431E-26
5.36383E-03 7.76148E-26
5.49207E-03 7.15988E-26
5.62181E-03 6.60531E-26
5.75306E-03 6.09397E-26
5.88581E-03 5.62237E-26
6.02007E-03 5.18733E-26
6.15583E-03 4.78592E-26
6.29310E-03 4.41547E-26
6.43187E-03 4.07354E-26
6.57214E-03 3.75789E-26
6.71392E-03 3.46645E-26
6.85720E-03 3.19734E-26
7.00198E-03 2.94883E-26
7.14827E-03 2.71931E-26
7.29605E-03 2.50732E-26
7.44534E-03 2.31152E-26
7.59612E-03 2.13066E-26
7.97965E-03 1.73662E-26
8.37255E-03 1.41354E-26
8.77480E-03 1.14874E-26
9.18641E-03 9.31831E-27
9.60736E-03 7.54315E-27
1.00376E-02 6.09198E-27
1.04773E-02 4.90732E-27
1.09262E-02 3.94183E-27
1.13844E-02 3.15648E-27
1.18520E-02 2.51909E-27
1.23288E-02 2.00309E-27
1.28150E-02 1.58657E-27
1.33104E-02 1.25143E-27
1.38150E-02 9.82743E-28
1.43290E-02 7.68198E-28
1.48521E-02 5.97655E-28
1.53845E-02 4.62765E-28
1.59262E-02 3.56670E-28
1.64770E-02 2.73742E-28
1.70371E-02 2.09373E-28
1.76063E-02 1.59799E-28
1.81848E-02 1.21955E-28
1.87724E-02 9.33510E-29
1.93692E-02 7.19737E-29
1.99751E-02 5.62009E-29
2.05901E-02 4.47321E-29
2.12143E-02 3.65303E-29
2.18476E-02 3.07741E-29
2.24900E-02 2.68178E-29
2.31415E-02 2.41579E-29
2.38021E-02 2.24060E-29
2.44717E-02 2.12662E-29
2.51504E-02 2.05166E-29
2.58382E-02 1.99939E-29
2.65349E-02 1.95808E-29
2.72407E-02 1.91961E-29
2.79555E-02 1.87863E-29
2.86793E-02 1.83189E-29
2.94120E-02 1.77771E-29
3.01537E-02 1.71555E-29
3.09043E-02 1.64567E-29
3.16639E-02 1.56888E-29
3.24324E-02 1.48633E-29
3.32098E-02 1.39933E-29
3.39961E-02 1.30929E-29
3.47912E-02 1.21758E-29
3.55952E-02 1.12550E-29
3.64081E-02 1.03422E-29
3.72297E-02 9.44799E-30
3.80602E-02 8.58122E-30
3.88995E-02 7.74927E-30
3.97476E-02 6.95797E-30
4.06044E-02 6.21175E-30
4.14700E-02 5.51368E-30
4.23443E-02 4.86566E-30
4.32273E-02 4.26853E-30
4.41190E-02 3.72220E-30
4.50194E-02 3.22585E-30
4.59284E-02 2.77799E-30
4.68461E-02 2.37664E-30
4.87074E-02 1.70372E-30
5.06030E-02 1.18522E-30
5.25328E-02 7.97405E-31
5.44967E-02 5.16672E-31
5.64946E-02 3.20982E-31
5.85262E-02 1.90691E-31
6.05914E-02 1.08978E-31
6.26901E-02 6.19434E-32
6.48222E-02 3.84975E-32
6.69873E-02 3.00973E-32
6.91854E-02 3.04118E-32
7.14163E-02 3.49566E-32
7.36799E-02 4.07318E-32
7.59760E-02 4.58877E-32
7.83043E-02 4.94291E-32
8.06647E-02 5.09661E-32
8.30571E-02 5.05108E-32
8.54812E-02 4.83194E-32
8.79369E-02 4.47731E-32
9.04240E-02 4.02935E-32
9.29422E-02 3.52862E-32
9.54915E-02 3.01064E-32
9.80716E-02 2.50413E-32
1.00682E-01 2.03052E-32
1.03323E-01 1.60419E-32
1.05995E-01 1.23330E-32
1.08696E-01 9.20867E-33
1.11427E-01 6.65881E-33
1.14188E-01 4.64470E-33
1.16978E-01 3.10892E-33
1.19797E-01 1.98390E-33
1.22645E-01 1.19880E-33
1.25522E-01 6.84608E-34
1.28428E-01 3.77701E-34
1.31361E-01 2.22087E-34
1.34323E-01 1.70484E-34
1.37313E-01 1.84576E-34
1.40330E-01 2.34629E-34
1.43375E-01 2.98690E-34
1.46447E-01 3.61540E-34
1.49545E-01 4.13543E-34
1.52671E-01 4.49484E-34
1.55823E-01 4.67488E-34
1.59001E-01 4.68053E-34
1.62205E-01 4.53223E-34
1.65435E-01 4.25928E-34
1.68690E-01 3.89459E-34
1.71970E-01 3.47088E-34
1.75276E-01 3.01814E-34
1.78606E-01 2.56199E-34
1.81961E-01 2.12291E-34
1.85340E-01 1.71609E-34
1.88743E-01 1.35172E-34
1.92169E-01 1.03547E-34
1.95619E-01 7.69309E-35
1.99092E-01 5.52196E-35
2.02589E-01 3.80915E-35
2.06107E-01 2.50769E-35
2.09649E-01 1.56204E-35
2.13212E-01 9.13218E-36
2.16797E-01 5.02959E-36
2.20404E-01 2.76615E-36
2.24032E-01 1.85150E-36
2.27680E-01 1.86345E-36
2.31350E-01 2.45217E-36
2.35040E-01 3.34011E-36
2.38751E-01 4.31716E-36
2.42481E-01 5.23368E-36
2.46231E-01 5.99203E-36
2.50000E-01 6.53728E-36
2.53788E-01 6.84818E-36
2.57595E-01 6.92862E-36
2.61421E-01 6.80004E-36
2.65264E-01 6.49491E-36
2.69126E-01 6.05132E-36
2.73005E-01 5.50886E-36
2.76901E-01 4.90550E-36
2.80814E-01 4.27534E-36
2.84744E-01 3.64750E-36
2.88691E-01 3.04532E-36
2.92653E-01 2.48627E-36
2.96632E-01 1.98242E-36
3.00625E-01 1.54078E-36
3.04634E-01 1.16414E-36
3.08658E-01 8.51860E-37
3.12697E-01 6.00620E-37
3.16749E-01 4.05211E-37
3.20816E-01 2.59187E-37
3.24896E-01 1.55512E-37
3.28990E-01 8.69474E-38
3.33097E-01 4.64633E-38
3.37216E-01 2.75501E-38
3.41348E-01 2.43661E-38
3.45492E-01 3.18624E-38
3.49647E-01 4.58262E-38
3.53814E-01 6.28776E-38
3.57992E-01 8.04203E-38
3.62181E-01 9.65751E-38
3.66381E-01 1.10085E-37
3.70590E-01 1.20216E-37
3.74810E-01 1.26657E-37
3.79039E-01 1.29423E-37
3.83277E-01 1.28766E-37
3.87524E-01 1.25108E-37
3.91780E-01 1.18949E-37
3.96044E-01 1.10846E-37
4.00316E-01 1.01357E-37
4.04596E-01 9.09951E-38
4.08882E-01 8.02455E-38
4.13176E-01 6.95056E-38
4.17476E-01 5.91195E-38
4.21783E-01 4.93497E-38
4.26095E-01 4.03937E-38
4.30413E-01 3.23655E-38
4.34737E-01 2.53450E-38
4.39065E-01 1.93407E-38
4.43398E-01 1.43315E-38
4.47736E-01 1.02608E-38
4.52077E-01 7.04930E-39
4.56422E-01 4.60412E-39
4.60770E-01 1.00000E-45
4.65122E-01 1.00000E-45
4.69476E-01 1.00000E-45
4.73832E-01 1.00000E-45
4.78190E-01 1.00000E-45
4.82550E-01 1.00000E-45
4.86912E-01 1.00000E-45
4.91274E-01 1.00000E-45
4.95637E-01 1.00000E-45
5.00000E-01 1.00000E-45
5.04363E-01 1.00000E-45
5.08726E-01 1.00000E-45
5.13088E-01 1.00000E-45
5.17450E-01 1.00000E-45
5.21810E-01 1.00000E-45
5.26168E-01 1.00000E-45
5.30524E-01 1.00000E-45
5.34878E-01 1.00000E-45
5.39230E-01 1.00000E-45
5.43578E-01 1.00000E-45
5.47923E-01 1.00000E-45
5.52264E-01 1.00000E-45
5.56602E-01 1.00000E-45
5.60935E-01 1.00000E-45
5.65263E-01 1.00000E-45
5.69587E-01 1.00000E-45
5.73905E-01 1.00000E-45
5.78217E-01 1.00000E-45
5.82524E-01 1.00000E-45
5.86824E-01 1.00000E-45
5.91118E-01 1.00000E-45
5.95404E-01 1.00000E-45
5.99684E-01 1.00000E-45
6.03956E-01 1.00000E-45
6.08220E-01 1.00000E-45
6.12476E-01 1.00000E-45
6.16723E-01 1.00000E-45
6.20961E-01 1.00000E-45
6.25190E-01 1.00000E-45
6.29410E-01 1.00000E-45
6.33619E-01 1.00000E-45
6.37819E-01 1.00000E-45
6.42008E-01 1.00000E-45
6.46186E-01 1.00000E-45
6.50353E-01 1.00000E-45
6.54508E-01 1.00000E-45
6.58652E-01 1.00000E-45
6.62784E-01 1.00000E-45
6.66903E-01 1.00000E-45
6.71010E-01 1.00000E-45
6.75104E-01 1.00000E-45
6.79184E-01 1.00000E-45
6.83251E-01 1.00000E-45
6.87303E-01 1.00000E-45
6.91342E-01 1.00000E-45
6.95366E-01 1.00000E-45
6.99375E-01 1.00000E-45
7.03368E-01 1.00000E-45
7.07347E-01 1.00000E-45
7.11309E-01 1.00000E-45
7.15256E-01 1.00000E-45
7.19186E-01 1.00000E-45
7.23099E-01 1.00000E-45
7.26995E-01 1.00000E-45
7.30874E-01 1.00000E-45
7.34736E-01 1.00000E-45
7.38579E-01 1.00000E-45
7.42405E-01 1.00000E-45
7.46212E-01 1.00000E-45
7.50000E-01 1.00000E-45
7.53769E-01 1.00000E-45
7.57519E-01 1.00000E-45
7.61249E-01 1.00000E-45
7.64960E-01 1.00000E-45
7.68650E-01 1.00000E-45
7.72320E-01 1.00000E-45
7.75968E-01 1.00000E-45
7.79596E-01 1.00000E-45
7.83203E-01 1.00000E-45
7.86788E-01 1.00000E-45
7.90351E-01 1.00000E-45
7.93893E-01 1.00000E-45
7.97411E-01 1.00000E-45
8.00908E-01 1.00000E-45
8.04381E-01 1.00000E-45
8.07831E-01 1.00000E-45
8.11257E-01 1.00000E-45
8.14660E-01 1.00000E-45
8.18039E-01 1.00000E-45
8.21394E-01 1.00000E-45
8.24724E-01 1.00000E-45
8.28030E-01 1.00000E-45
8.31310E-01 1.00000E-45
8.34565E-01 1.00000E-45
8.37795E-01 1.00000E-45
8.40999E-01 1.00000E-45
8.44177E-01 1.00000E-45
8.47329E-01 1.00000E-45
8.50455E-01 1.00000E-45
8.53553E-01 1.00000E-45
8.56625E-01 1.00000E-45
8.59670E-01 1.00000E-45
8.62687E-01 1.00000E-45
8.65677E-01 1.00000E-45
8.68639E-01 1.00000E-45
8.71572E-01 1.00000E-45
8.74478E-01 1.00000E-45
8.77355E-01 1.00000E-45
8.80203E-01 1.00000E-45
8.83022E-01 1.00000E-45
8.85812E-01 1.00000E-45
8.88573E-01 1.00000E-45
8.91304E-01 1.00000E-45
8.94005E-01 1.00000E-45
8.96677E-01 1.00000E-45
8.99318E-01 1.00000E-45
9.01928E-01 1.00000E-45
9.04508E-01 1.00000E-45
9.07058E-01 1.00000E-45
9.09576E-01 1.00000E-45
9.12063E-01 1.00000E-45
9.14519E-01 1.00000E-45
9.16943E-01 1.00000E-45
9.19335E-01 1.00000E-45
9.21696E-01 1.00000E-45
9.24024E-01 1.00000E-45
9.26320E-01 1.00000E-45
9.28584E-01 1.00000E-45
9.30815E-01 1.00000E-45
9.33013E-01 1.00000E-45
9.35178E-01 1.00000E-45
9.37310E-01 1.00000E-45
9.39409E-01 1.00000E-45
9.41474E-01 1.00000E-45
9.43505E-01 1.00000E-45
9.45503E-01 1.00000E-45
9.47467E-01 1.00000E-45
9.49397E-01 1.00000E-45
9.51293E-01 1.00000E-45
9.53154E-01 1.00000E-45
9.54981E-01 1.00000E-45
9.56773E-01 1.00000E-45
9.58530E-01 1.00000E-45
9.60252E-01 1.00000E-45
9.61940E-01 1.00000E-45
9.63592E-01 1.00000E-45
9.65209E-01 1.00000E-45
9.66790E-01 1.00000E-45
9.68336E-01 1.00000E-45
9.69846E-01 1.00000E-45
9.71321E-01 1.00000E-45
9.72759E-01 1.00000E-45
9.74162E-01 1.00000E-45
9.75528E-01 1.00000E-45
9.76858E-01 1.00000E-45
9.78152E-01 1.00000E-45
9.79410E-01 1.00000E-45
9.80631E-01 1.00000E-45
9.81815E-01 1.00000E-45
9.82963E-01 1.00000E-45
9.84074E-01 1.00000E-45
9.85148E-01 1.00000E-45
9.86185E-01 1.00000E-45
9.87185E-01 1.00000E-45
9.88148E-01 1.00000E-45
9.89074E-01 1.00000E-45
9.89962E-01 1.00000E-45
9.90814E-01 1.00000E-45
9.91627E-01 1.00000E-45
9.92404E-01 1.00000E-45
9.93143E-01 1.00000E-45
9.93844E-01 1.00000E-45
9.94508E-01 1.00000E-45
9.95134E-01 1.00000E-45
9.95722E-01 1.00000E-45
9.96273E-01 1.00000E-45
9.96786E-01 1.00000E-45
9.97261E-01 1.00000E-45
9.97698E-01 1.00000E-45
9.98097E-01 1.00000E-45
9.98459E-01 1.00000E-45
9.98782E-01 1.00000E-45
9.99067E-01 1.00000E-45
9.99315E-01 1.00000E-45
9.99524E-01 1.00000E-45
9.99695E-01 1.00000E-45
9.99829E-01 1.00000E-45
9.99924E-01 1.00000E-45
9.99981E-01 1.00000E-45
1.00000E+00 1.00000E-45
