 #
 # Subroutine ELSEPA. Elastic scattering of electrons and positrons
 #                    by neutral atoms and positive ions
 #
 # Projectile: positron
 # Kinetic energy = 3.50000E+06 eV = 1.28623E+05 a.u.
 #
 # WARNING: High-energy factorization with free-atom DF screening.
 #          Absorption, polarization and exchange corrections are
 #          switched off.
 #          Phase shifts are calculated for the bare nucleus.
 #          Scattering amplitudes are not evaluated.
 #
 # Element: Ni,  Z =  28,  atomic weight = 5.86934E+01 g/mol
 #
 # Nuclear model: Fermi distribution
 #                Average radius = 4.15828E-13 cm
 #                Skin thickness = 5.46000E-14 cm
 #
 # Number of electrons = 28
 #
 # Total elastic cross section = 2.00005E-18 cm**2 = 7.14232E-02 a0**2
 # 1st transport cross section = 6.59843E-23 cm**2 = 2.35634E-06 a0**2
 # 2nd transport cross section = 1.89450E-22 cm**2 = 6.76537E-06 a0**2
 #
 #
 # Differential cross section:                       MU=(1-COS(THETA))/2
 #
 #  THETA        MU          DCS          DCS        Sherman      error
 #  (deg)                 (cm**2/sr)   (a0**2/sr)    function
 #----------------------------------------------------------------------
0.00000E+00 2.62561E-13
7.61557E-13 2.62560E-13
1.18994E-12 2.62559E-13
1.71346E-12 2.62558E-13
2.33225E-12 2.62557E-13
3.04617E-12 2.62556E-13
3.85530E-12 2.62555E-13
4.75964E-12 2.62554E-13
5.75917E-12 2.62552E-13
6.85391E-12 2.62550E-13
8.04379E-12 2.62549E-13
9.32893E-12 2.62547E-13
1.07092E-11 2.62545E-13
1.21847E-11 2.62543E-13
1.37554E-11 2.62540E-13
1.54213E-11 2.62538E-13
1.71823E-11 2.62535E-13
1.90386E-11 2.62533E-13
2.09900E-11 2.62530E-13
2.30367E-11 2.62527E-13
2.51785E-11 2.62524E-13
2.74156E-11 2.62520E-13
2.97478E-11 2.62517E-13
3.21752E-11 2.62514E-13
3.46979E-11 2.62510E-13
3.73157E-11 2.62506E-13
4.00286E-11 2.62502E-13
4.28368E-11 2.62498E-13
4.57402E-11 2.62494E-13
4.87388E-11 2.62490E-13
5.18325E-11 2.62485E-13
5.50215E-11 2.62481E-13
5.83057E-11 2.62476E-13
6.16850E-11 2.62471E-13
6.51595E-11 2.62466E-13
6.87293E-11 2.62461E-13
7.23943E-11 2.62456E-13
7.61544E-11 2.62450E-13
1.18991E-10 2.62389E-13
1.71347E-10 2.62313E-13
2.33223E-10 2.62225E-13
3.04617E-10 2.62123E-13
3.85531E-10 2.62007E-13
4.75965E-10 2.61878E-13
5.75917E-10 2.61736E-13
6.85389E-10 2.61580E-13
8.04380E-10 2.61411E-13
9.32891E-10 2.61229E-13
1.07092E-09 2.61033E-13
1.21847E-09 2.60824E-13
1.37554E-09 2.60603E-13
1.54213E-09 2.60368E-13
1.71823E-09 2.60120E-13
1.90386E-09 2.59859E-13
2.09900E-09 2.59585E-13
2.30367E-09 2.59298E-13
2.51785E-09 2.58999E-13
2.74156E-09 2.58687E-13
2.97478E-09 2.58362E-13
3.21752E-09 2.58025E-13
3.46978E-09 2.57675E-13
3.73156E-09 2.57313E-13
4.00286E-09 2.56939E-13
4.28368E-09 2.56553E-13
4.57402E-09 2.56154E-13
4.87388E-09 2.55744E-13
5.18326E-09 2.55321E-13
5.50215E-09 2.54887E-13
5.83057E-09 2.54441E-13
6.16850E-09 2.53984E-13
6.51596E-09 2.53515E-13
6.87293E-09 2.53035E-13
7.23942E-09 2.52544E-13
7.61544E-09 2.52042E-13
1.18991E-08 2.46433E-13
1.71347E-08 2.39835E-13
2.33223E-08 2.32446E-13
3.04617E-08 2.24358E-13
3.85531E-08 2.15745E-13
4.75965E-08 2.06785E-13
5.75917E-08 1.97615E-13
6.85389E-08 1.88288E-13
8.04380E-08 1.79003E-13
9.32891E-08 1.69859E-13
1.07092E-07 1.60896E-13
1.21847E-07 1.52176E-13
1.37554E-07 1.43796E-13
1.54213E-07 1.35787E-13
1.71823E-07 1.28120E-13
1.90386E-07 1.20854E-13
2.09900E-07 1.14003E-13
2.30367E-07 1.07552E-13
2.51785E-07 1.01466E-13
2.74156E-07 9.57710E-14
2.97478E-07 9.04496E-14
3.21752E-07 8.54638E-14
3.46978E-07 8.08007E-14
3.73156E-07 7.64547E-14
4.00286E-07 7.24048E-14
4.28368E-07 6.86081E-14
4.57402E-07 6.50679E-14
4.87388E-07 6.17674E-14
5.18325E-07 5.86829E-14
5.50215E-07 5.57895E-14
5.83057E-07 5.30871E-14
6.16850E-07 5.05607E-14
6.51596E-07 4.81859E-14
6.87293E-07 4.59559E-14
7.23942E-07 4.38654E-14
7.61543E-07 4.19036E-14
1.18991E-06 2.73623E-14
1.71347E-06 1.84061E-14
2.33223E-06 1.30122E-14
3.04617E-06 9.23953E-15
3.85531E-06 6.67421E-15
4.75964E-06 4.91065E-15
5.75916E-06 3.66131E-15
6.85388E-06 2.74877E-15
8.04378E-06 2.09877E-15
9.32888E-06 1.62582E-15
1.07092E-05 1.27478E-15
1.21846E-05 1.01235E-15
1.37553E-05 8.14571E-16
1.54212E-05 6.63296E-16
1.71822E-05 5.45854E-16
1.90385E-05 4.53864E-16
2.09899E-05 3.81070E-16
2.30365E-05 3.22708E-16
2.51783E-05 2.75341E-16
2.74153E-05 2.36610E-16
2.97475E-05 2.04655E-16
3.21749E-05 1.78019E-16
3.46974E-05 1.55656E-16
3.73152E-05 1.36771E-16
4.00281E-05 1.20713E-16
4.28362E-05 1.06927E-16
4.57395E-05 9.50735E-17
4.87380E-05 8.48313E-17
5.18317E-05 7.59271E-17
5.50205E-05 6.81374E-17
5.83045E-05 6.13206E-17
6.16838E-05 5.53322E-17
6.51582E-05 5.00386E-17
6.87277E-05 4.53520E-17
7.23925E-05 4.11970E-17
7.61524E-05 3.75019E-17
9.21439E-05 2.62203E-17
1.09658E-04 1.88308E-17
1.28695E-04 1.38438E-17
1.49255E-04 1.03866E-17
1.71338E-04 7.94023E-18
1.94942E-04 6.17012E-18
2.20070E-04 4.86688E-18
2.46720E-04 3.89032E-18
2.74892E-04 3.14659E-18
3.04586E-04 2.57281E-18
3.35803E-04 2.12444E-18
3.68542E-04 1.76990E-18
4.02802E-04 1.48639E-18
4.38585E-04 1.25763E-18
4.75889E-04 1.07137E-18
5.14715E-04 9.18385E-19
5.55063E-04 7.91781E-19
5.96931E-04 6.86309E-19
6.40321E-04 5.97864E-19
6.85233E-04 5.23182E-19
7.31665E-04 4.59815E-19
7.79618E-04 4.05767E-19
8.29092E-04 3.59424E-19
8.80086E-04 3.19492E-19
9.32601E-04 2.84954E-19
9.86636E-04 2.54957E-19
1.04219E-03 2.28791E-19
1.09927E-03 2.05889E-19
1.15786E-03 1.85779E-19
1.21797E-03 1.68061E-19
1.27961E-03 1.52394E-19
1.34276E-03 1.38508E-19
1.40743E-03 1.26165E-19
1.47362E-03 1.15161E-19
1.54133E-03 1.05326E-19
1.61056E-03 9.65171E-20
1.68131E-03 8.86075E-20
1.75357E-03 8.14875E-20
1.82735E-03 7.50661E-20
1.90265E-03 6.92633E-20
1.97947E-03 6.40088E-20
2.05780E-03 5.92404E-20
2.13765E-03 5.49067E-20
2.21902E-03 5.09609E-20
2.30190E-03 4.73618E-20
2.38630E-03 4.40734E-20
2.47222E-03 4.10647E-20
2.55965E-03 3.83077E-20
2.64859E-03 3.57769E-20
2.73905E-03 3.34510E-20
2.83103E-03 3.13105E-20
2.92452E-03 2.93378E-20
3.01952E-03 2.75173E-20
3.11604E-03 2.58354E-20
3.21407E-03 2.42796E-20
3.31362E-03 2.28387E-20
3.41468E-03 2.15026E-20
3.51725E-03 2.02626E-20
3.62133E-03 1.91103E-20
3.72692E-03 1.80383E-20
3.83403E-03 1.70403E-20
3.94265E-03 1.61100E-20
4.05278E-03 1.52422E-20
4.16442E-03 1.44317E-20
4.27757E-03 1.36742E-20
4.39223E-03 1.29656E-20
4.50840E-03 1.23020E-20
4.62608E-03 1.16803E-20
4.74527E-03 1.10971E-20
4.86597E-03 1.05498E-20
4.98817E-03 1.00356E-20
5.11188E-03 9.55232E-21
5.23711E-03 9.09763E-21
5.36383E-03 8.66956E-21
5.49207E-03 8.26627E-21
5.62181E-03 7.88607E-21
5.75306E-03 7.52739E-21
5.88581E-03 7.18878E-21
6.02007E-03 6.86893E-21
6.15583E-03 6.56659E-21
6.29310E-03 6.28064E-21
6.43187E-03 6.01002E-21
6.57214E-03 5.75376E-21
6.71392E-03 5.51095E-21
6.85720E-03 5.28077E-21
7.00198E-03 5.06242E-21
7.14827E-03 4.85520E-21
7.29605E-03 4.65843E-21
7.44534E-03 4.47148E-21
7.59612E-03 4.29377E-21
7.97965E-03 3.88649E-21
8.37255E-03 3.52618E-21
8.77480E-03 3.20650E-21
9.18641E-03 2.92208E-21
9.60736E-03 2.66838E-21
1.00376E-02 2.44151E-21
1.04773E-02 2.23813E-21
1.09262E-02 2.05541E-21
1.13844E-02 1.89087E-21
1.18520E-02 1.74239E-21
1.23288E-02 1.60814E-21
1.28150E-02 1.48651E-21
1.33104E-02 1.37611E-21
1.38150E-02 1.27572E-21
1.43290E-02 1.18428E-21
1.48521E-02 1.10084E-21
1.53845E-02 1.02458E-21
1.59262E-02 9.54780E-22
1.64770E-02 8.90790E-22
1.70371E-02 8.32044E-22
1.76063E-02 7.78035E-22
1.81848E-02 7.28314E-22
1.87724E-02 6.82479E-22
1.93692E-02 6.40172E-22
1.99751E-02 6.01075E-22
2.05901E-02 5.64899E-22
2.12143E-02 5.31388E-22
2.18476E-02 5.00310E-22
2.24900E-02 4.71457E-22
2.31415E-02 4.44641E-22
2.38021E-02 4.19693E-22
2.44717E-02 3.96458E-22
2.51504E-02 3.74799E-22
2.58382E-02 3.54589E-22
2.65349E-02 3.35714E-22
2.72407E-02 3.18070E-22
2.79555E-02 3.01561E-22
2.86793E-02 2.86102E-22
2.94120E-02 2.71614E-22
3.01537E-02 2.58025E-22
3.09043E-02 2.45269E-22
3.16639E-02 2.33286E-22
3.24324E-02 2.22020E-22
3.32098E-02 2.11421E-22
3.39961E-02 2.01442E-22
3.47912E-02 1.92040E-22
3.55952E-02 1.83176E-22
3.64081E-02 1.74814E-22
3.72297E-02 1.66919E-22
3.80602E-02 1.59461E-22
3.88995E-02 1.52412E-22
3.97476E-02 1.45745E-22
4.06044E-02 1.39435E-22
4.14700E-02 1.33460E-22
4.23443E-02 1.27799E-22
4.32273E-02 1.22432E-22
4.41190E-02 1.17341E-22
4.50194E-02 1.12510E-22
4.59284E-02 1.07923E-22
4.68461E-02 1.03565E-22
4.87074E-02 9.54828E-23
5.06030E-02 8.81671E-23
5.25328E-02 8.15322E-23
5.44967E-02 7.55039E-23
5.64946E-02 7.00171E-23
5.85262E-02 6.50148E-23
6.05914E-02 6.04468E-23
6.26901E-02 5.62688E-23
6.48222E-02 5.24418E-23
6.69873E-02 4.89311E-23
6.91854E-02 4.57060E-23
7.14163E-02 4.27392E-23
7.36799E-02 4.00065E-23
7.59760E-02 3.74861E-23
7.83043E-02 3.51587E-23
8.06647E-02 3.30069E-23
8.30571E-02 3.10151E-23
8.54812E-02 2.91694E-23
8.79369E-02 2.74571E-23
9.04240E-02 2.58669E-23
9.29422E-02 2.43886E-23
9.54915E-02 2.30129E-23
9.80716E-02 2.17315E-23
1.00682E-01 2.05367E-23
1.03323E-01 1.94217E-23
1.05995E-01 1.83801E-23
1.08696E-01 1.74064E-23
1.11427E-01 1.64953E-23
1.14188E-01 1.56420E-23
1.16978E-01 1.48423E-23
1.19797E-01 1.40922E-23
1.22645E-01 1.33880E-23
1.25522E-01 1.27265E-23
1.28428E-01 1.21047E-23
1.31361E-01 1.15196E-23
1.34323E-01 1.09689E-23
1.37313E-01 1.04500E-23
1.40330E-01 9.96082E-24
1.43375E-01 9.49940E-24
1.46447E-01 9.06384E-24
1.49545E-01 8.65245E-24
1.52671E-01 8.26365E-24
1.55823E-01 7.89597E-24
1.59001E-01 7.54808E-24
1.62205E-01 7.21871E-24
1.65435E-01 6.90671E-24
1.68690E-01 6.61099E-24
1.71970E-01 6.33056E-24
1.75276E-01 6.06449E-24
1.78606E-01 5.81191E-24
1.81961E-01 5.57201E-24
1.85340E-01 5.34406E-24
1.88743E-01 5.12735E-24
1.92169E-01 4.92122E-24
1.95619E-01 4.72507E-24
1.99092E-01 4.53833E-24
2.02589E-01 4.36047E-24
2.06107E-01 4.19099E-24
2.09649E-01 4.02943E-24
2.13212E-01 3.87536E-24
2.16797E-01 3.72836E-24
2.20404E-01 3.58805E-24
2.24032E-01 3.45407E-24
2.27680E-01 3.32610E-24
2.31350E-01 3.20381E-24
2.35040E-01 3.08690E-24
2.38751E-01 2.97510E-24
2.42481E-01 2.86815E-24
2.46231E-01 2.76579E-24
2.50000E-01 2.66780E-24
2.53788E-01 2.57396E-24
2.57595E-01 2.48406E-24
2.61421E-01 2.39790E-24
2.65264E-01 2.31531E-24
2.69126E-01 2.23610E-24
2.73005E-01 2.16013E-24
2.76901E-01 2.08722E-24
2.80814E-01 2.01724E-24
2.84744E-01 1.95005E-24
2.88691E-01 1.88552E-24
2.92653E-01 1.82352E-24
2.96632E-01 1.76394E-24
3.00625E-01 1.70666E-24
3.04634E-01 1.65159E-24
3.08658E-01 1.59862E-24
3.12697E-01 1.54766E-24
3.16749E-01 1.49861E-24
3.20816E-01 1.45141E-24
3.24896E-01 1.40595E-24
3.28990E-01 1.36218E-24
3.33097E-01 1.32000E-24
3.37216E-01 1.27937E-24
3.41348E-01 1.24020E-24
3.45492E-01 1.20244E-24
3.49647E-01 1.16603E-24
3.53814E-01 1.13092E-24
3.57992E-01 1.09704E-24
3.62181E-01 1.06435E-24
3.66381E-01 1.03279E-24
3.70590E-01 1.00233E-24
3.74810E-01 9.72918E-25
3.79039E-01 9.44511E-25
3.83277E-01 9.17069E-25
3.87524E-01 8.90553E-25
3.91780E-01 8.64929E-25
3.96044E-01 8.40159E-25
4.00316E-01 8.16212E-25
4.04596E-01 7.93055E-25
4.08882E-01 7.70657E-25
4.13176E-01 7.48990E-25
4.17476E-01 7.28026E-25
4.21783E-01 7.07738E-25
4.26095E-01 6.88100E-25
4.30413E-01 6.69088E-25
4.34737E-01 6.50679E-25
4.39065E-01 6.32851E-25
4.43398E-01 6.15582E-25
4.47736E-01 5.98852E-25
4.52077E-01 5.82640E-25
4.56422E-01 5.66930E-25
4.60770E-01 5.51701E-25
4.65122E-01 5.36938E-25
4.69476E-01 5.22623E-25
4.73832E-01 5.08741E-25
4.78190E-01 4.95276E-25
4.82550E-01 4.82214E-25
4.86912E-01 4.69541E-25
4.91274E-01 4.57243E-25
4.95637E-01 4.45307E-25
5.00000E-01 4.33722E-25
5.04363E-01 4.22474E-25
5.08726E-01 4.11553E-25
5.13088E-01 4.00948E-25
5.17450E-01 3.90648E-25
5.21810E-01 3.80642E-25
5.26168E-01 3.70921E-25
5.30524E-01 3.61476E-25
5.34878E-01 3.52298E-25
5.39230E-01 3.43377E-25
5.43578E-01 3.34705E-25
5.47923E-01 3.26275E-25
5.52264E-01 3.18079E-25
5.56602E-01 3.10108E-25
5.60935E-01 3.02356E-25
5.65263E-01 2.94817E-25
5.69587E-01 2.87482E-25
5.73905E-01 2.80347E-25
5.78217E-01 2.73403E-25
5.82524E-01 2.66647E-25
5.86824E-01 2.60071E-25
5.91118E-01 2.53670E-25
5.95404E-01 2.47439E-25
5.99684E-01 2.41372E-25
6.03956E-01 2.35466E-25
6.08220E-01 2.29713E-25
6.12476E-01 2.24112E-25
6.16723E-01 2.18655E-25
6.20961E-01 2.13340E-25
6.25190E-01 2.08163E-25
6.29410E-01 2.03118E-25
6.33619E-01 1.98202E-25
6.37819E-01 1.93411E-25
6.42008E-01 1.88742E-25
6.46186E-01 1.84192E-25
6.50353E-01 1.79756E-25
6.54508E-01 1.75431E-25
6.58652E-01 1.71215E-25
6.62784E-01 1.67103E-25
6.66903E-01 1.63094E-25
6.71010E-01 1.59185E-25
6.75104E-01 1.55371E-25
6.79184E-01 1.51652E-25
6.83251E-01 1.48023E-25
6.87303E-01 1.44483E-25
6.91342E-01 1.41030E-25
6.95366E-01 1.37660E-25
6.99375E-01 1.34371E-25
7.03368E-01 1.31162E-25
7.07347E-01 1.28030E-25
7.11309E-01 1.24973E-25
7.15256E-01 1.21990E-25
7.19186E-01 1.19077E-25
7.23099E-01 1.16233E-25
7.26995E-01 1.13457E-25
7.30874E-01 1.10746E-25
7.34736E-01 1.08099E-25
7.38579E-01 1.05514E-25
7.42405E-01 1.02990E-25
7.46212E-01 1.00525E-25
7.50000E-01 9.81166E-26
7.53769E-01 9.57646E-26
7.57519E-01 9.34671E-26
7.61249E-01 9.12228E-26
7.64960E-01 8.90302E-26
7.68650E-01 8.68881E-26
7.72320E-01 8.47951E-26
7.75968E-01 8.27501E-26
7.79596E-01 8.07518E-26
7.83203E-01 7.87992E-26
7.86788E-01 7.68910E-26
7.90351E-01 7.50261E-26
7.93893E-01 7.32036E-26
7.97411E-01 7.14223E-26
8.00908E-01 6.96813E-26
8.04381E-01 6.79796E-26
8.07831E-01 6.63162E-26
8.11257E-01 6.46903E-26
8.14660E-01 6.31009E-26
8.18039E-01 6.15471E-26
8.21394E-01 6.00282E-26
8.24724E-01 5.85433E-26
8.28030E-01 5.70916E-26
8.31310E-01 5.56723E-26
8.34565E-01 5.42847E-26
8.37795E-01 5.29280E-26
8.40999E-01 5.16016E-26
8.44177E-01 5.03048E-26
8.47329E-01 4.90368E-26
8.50455E-01 4.77971E-26
8.53553E-01 4.65850E-26
8.56625E-01 4.53998E-26
8.59670E-01 4.42410E-26
8.62687E-01 4.31080E-26
8.65677E-01 4.20003E-26
8.68639E-01 4.09172E-26
8.71572E-01 3.98583E-26
8.74478E-01 3.88230E-26
8.77355E-01 3.78108E-26
8.80203E-01 3.68212E-26
8.83022E-01 3.58538E-26
8.85812E-01 3.49080E-26
8.88573E-01 3.39835E-26
8.91304E-01 3.30797E-26
8.94005E-01 3.21963E-26
8.96677E-01 3.13329E-26
8.99318E-01 3.04889E-26
9.01928E-01 2.96641E-26
9.04508E-01 2.88580E-26
9.07058E-01 2.80703E-26
9.09576E-01 2.73006E-26
9.12063E-01 2.65486E-26
9.14519E-01 2.58139E-26
9.16943E-01 2.50961E-26
9.19335E-01 2.43951E-26
9.21696E-01 2.37103E-26
9.24024E-01 2.30416E-26
9.26320E-01 2.23886E-26
9.28584E-01 2.17510E-26
9.30815E-01 2.11286E-26
9.33013E-01 2.05210E-26
9.35178E-01 1.99281E-26
9.37310E-01 1.93495E-26
9.39409E-01 1.87850E-26
9.41474E-01 1.82344E-26
9.43505E-01 1.76974E-26
9.45503E-01 1.71737E-26
9.47467E-01 1.66632E-26
9.49397E-01 1.61657E-26
9.51293E-01 1.56808E-26
9.53154E-01 1.52085E-26
9.54981E-01 1.47485E-26
9.56773E-01 1.43006E-26
9.58530E-01 1.38647E-26
9.60252E-01 1.34405E-26
9.61940E-01 1.30278E-26
9.63592E-01 1.26266E-26
9.65209E-01 1.22366E-26
9.66790E-01 1.18576E-26
9.68336E-01 1.14896E-26
9.69846E-01 1.11323E-26
9.71321E-01 1.07857E-26
9.72759E-01 1.04495E-26
9.74162E-01 1.01236E-26
9.75528E-01 9.80796E-27
9.76858E-01 9.50237E-27
9.78152E-01 9.20672E-27
9.79410E-01 8.92091E-27
9.80631E-01 8.64480E-27
9.81815E-01 8.37829E-27
9.82963E-01 8.12128E-27
9.84074E-01 7.87365E-27
9.85148E-01 7.63531E-27
9.86185E-01 7.40617E-27
9.87185E-01 7.18612E-27
9.88148E-01 6.97509E-27
9.89074E-01 6.77299E-27
9.89962E-01 6.57974E-27
9.90814E-01 6.39527E-27
9.91627E-01 6.21949E-27
9.92404E-01 6.05235E-27
9.93143E-01 5.89376E-27
9.93844E-01 5.74369E-27
9.94508E-01 5.60205E-27
9.95134E-01 5.46880E-27
9.95722E-01 5.34389E-27
9.96273E-01 5.22726E-27
9.96786E-01 5.11887E-27
9.97261E-01 5.01868E-27
9.97698E-01 4.92665E-27
9.98097E-01 4.84274E-27
9.98459E-01 4.76692E-27
9.98782E-01 4.69916E-27
9.99067E-01 4.63944E-27
9.99315E-01 4.58772E-27
9.99524E-01 4.54399E-27
9.99695E-01 4.50824E-27
9.99829E-01 4.48045E-27
9.99924E-01 4.46061E-27
9.99981E-01 4.44870E-27
1.00000E+00 4.44473E-27
