 #
 # Subroutine ELSEPA. Elastic scattering of electrons and positrons
 #                    by neutral atoms and positive ions
 #
 # Projectile: positron
 # Kinetic energy = 9.00000E+07 eV = 3.30744E+06 a.u.
 #
 # WARNING: High-energy factorization with free-atom DF screening.
 #          Absorption, polarization and exchange corrections are
 #          switched off.
 #          Phase shifts are calculated for the bare nucleus.
 #          Scattering amplitudes are not evaluated.
 #
 # Element: Ni,  Z =  28,  atomic weight = 5.86934E+01 g/mol
 #
 # Nuclear model: Fermi distribution
 #                Average radius = 4.15828E-13 cm
 #                Skin thickness = 5.46000E-14 cm
 #
 # Number of electrons = 28
 #
 # Total elastic cross section = 1.96931E-18 cm**2 = 7.03252E-02 a0**2
 # 1st transport cross section = 1.92157E-25 cm**2 = 6.86204E-09 a0**2
 # 2nd transport cross section = 5.69327E-25 cm**2 = 2.03310E-08 a0**2
 #
 #
 # Differential cross section:                       MU=(1-COS(THETA))/2
 #
 #  THETA        MU          DCS          DCS        Sherman      error
 #  (deg)                 (cm**2/sr)   (a0**2/sr)    function
 #----------------------------------------------------------------------
0.00000E+00 1.33699E-10
7.61557E-13 1.33412E-10
1.18994E-12 1.33251E-10
1.71346E-12 1.33056E-10
2.33225E-12 1.32825E-10
3.04617E-12 1.32560E-10
3.85530E-12 1.32260E-10
4.75964E-12 1.31927E-10
5.75917E-12 1.31560E-10
6.85391E-12 1.31160E-10
8.04379E-12 1.30728E-10
9.32893E-12 1.30264E-10
1.07092E-11 1.29768E-10
1.21847E-11 1.29242E-10
1.37554E-11 1.28685E-10
1.54213E-11 1.28100E-10
1.71823E-11 1.27485E-10
1.90386E-11 1.26843E-10
2.09900E-11 1.26173E-10
2.30367E-11 1.25478E-10
2.51785E-11 1.24756E-10
2.74156E-11 1.24010E-10
2.97478E-11 1.23235E-10
3.21752E-11 1.22437E-10
3.46979E-11 1.21620E-10
3.73157E-11 1.20784E-10
4.00286E-11 1.19931E-10
4.28368E-11 1.19061E-10
4.57402E-11 1.18163E-10
4.87388E-11 1.17244E-10
5.18325E-11 1.16312E-10
5.50215E-11 1.15368E-10
5.83057E-11 1.14413E-10
6.16850E-11 1.13448E-10
6.51595E-11 1.12459E-10
6.87293E-11 1.11453E-10
7.23943E-11 1.10440E-10
7.61544E-11 1.09421E-10
1.18991E-10 9.88524E-11
1.71347E-10 8.81322E-11
2.33223E-10 7.78282E-11
3.04617E-10 6.83545E-11
3.85531E-10 5.98738E-11
4.75965E-10 5.24323E-11
5.75917E-10 4.60030E-11
6.85389E-10 4.04772E-11
8.04380E-10 3.57487E-11
9.32891E-10 3.17092E-11
1.07092E-09 2.82417E-11
1.21847E-09 2.52601E-11
1.37554E-09 2.26868E-11
1.54213E-09 2.04460E-11
1.71823E-09 1.84907E-11
1.90386E-09 1.67758E-11
2.09900E-09 1.52572E-11
2.30367E-09 1.39122E-11
2.51785E-09 1.27142E-11
2.74156E-09 1.16393E-11
2.97478E-09 1.06078E-11
3.21752E-09 9.68929E-12
3.46978E-09 8.89205E-12
3.73156E-09 8.19677E-12
4.00286E-09 7.58762E-12
4.28368E-09 7.05161E-12
4.57402E-09 6.50182E-12
4.87388E-09 5.98503E-12
5.18326E-09 5.52864E-12
5.50215E-09 5.12411E-12
5.83057E-09 4.76425E-12
6.16850E-09 4.44306E-12
6.51596E-09 4.12211E-12
6.87293E-09 3.81637E-12
7.23942E-09 3.54268E-12
7.61544E-09 3.29697E-12
1.18991E-08 1.67134E-12
1.71347E-08 9.05634E-13
2.33223E-08 5.25123E-13
3.04617E-08 3.25167E-13
3.85531E-08 2.12952E-13
4.75965E-08 1.46116E-13
5.75917E-08 1.04121E-13
6.85389E-08 7.64475E-14
8.04380E-08 5.74811E-14
9.32891E-08 4.40887E-14
1.07092E-07 3.43660E-14
1.21847E-07 2.71635E-14
1.37554E-07 2.17338E-14
1.54213E-07 1.75709E-14
1.71823E-07 1.43455E-14
1.90386E-07 1.18178E-14
2.09900E-07 9.81405E-15
2.30367E-07 8.21291E-15
2.51785E-07 6.92170E-15
2.74156E-07 5.87164E-15
2.97478E-07 5.01008E-15
3.21752E-07 4.30176E-15
3.46978E-07 3.71450E-15
3.73156E-07 3.22266E-15
4.00286E-07 2.81053E-15
4.28368E-07 2.46129E-15
4.57402E-07 2.16505E-15
4.87388E-07 1.91213E-15
5.18325E-07 1.69504E-15
5.50215E-07 1.50821E-15
5.83057E-07 1.34623E-15
6.16850E-07 1.20565E-15
6.51596E-07 1.08296E-15
6.87293E-07 9.75551E-16
7.23942E-07 8.81232E-16
7.61543E-07 7.98007E-16
1.18991E-06 3.32931E-16
1.71347E-06 1.62762E-16
2.33223E-06 8.87107E-17
3.04617E-06 5.23547E-17
3.85531E-06 3.28401E-17
4.75964E-06 2.16187E-17
5.75916E-06 1.48013E-17
6.85388E-06 1.04689E-17
8.04378E-06 7.61037E-18
9.32888E-06 5.66338E-18
1.07092E-05 4.30058E-18
1.21846E-05 3.32383E-18
1.37553E-05 2.60911E-18
1.54212E-05 2.07646E-18
1.71822E-05 1.67299E-18
1.90385E-05 1.36275E-18
2.09899E-05 1.12139E-18
2.30365E-05 9.31124E-19
2.51783E-05 7.79498E-19
2.74153E-05 6.57471E-19
2.97475E-05 5.58387E-19
3.21749E-05 4.77275E-19
3.46974E-05 4.10371E-19
3.73152E-05 3.54796E-19
4.00281E-05 3.08323E-19
4.28362E-05 2.69217E-19
4.57395E-05 2.36116E-19
4.87380E-05 2.07945E-19
5.18317E-05 1.83848E-19
5.50205E-05 1.63139E-19
5.83045E-05 1.45263E-19
6.16838E-05 1.29769E-19
6.51582E-05 1.16287E-19
6.87277E-05 1.04511E-19
7.23925E-05 9.41894E-20
7.61524E-05 8.51108E-20
9.21439E-05 5.81079E-20
1.09658E-04 4.10095E-20
1.28695E-04 2.97611E-20
1.49255E-04 2.21158E-20
1.71338E-04 1.67746E-20
1.94942E-04 1.29517E-20
2.20070E-04 1.01579E-20
2.46720E-04 8.07790E-21
2.74892E-04 6.50366E-21
3.04586E-04 5.29467E-21
3.35803E-04 4.35374E-21
3.68542E-04 3.61269E-21
4.02802E-04 3.02266E-21
4.38585E-04 2.54819E-21
4.75889E-04 2.16318E-21
5.14715E-04 1.84813E-21
5.55063E-04 1.58834E-21
5.96931E-04 1.37258E-21
6.40321E-04 1.19219E-21
6.85233E-04 1.04045E-21
7.31665E-04 9.12061E-22
7.79618E-04 8.02851E-22
8.29092E-04 7.09482E-22
8.80086E-04 6.29277E-22
9.32601E-04 5.60073E-22
9.86636E-04 5.00107E-22
1.04219E-03 4.47942E-22
1.09927E-03 4.02391E-22
1.15786E-03 3.62473E-22
1.21797E-03 3.27374E-22
1.27961E-03 2.96413E-22
1.34276E-03 2.69018E-22
1.40743E-03 2.44708E-22
1.47362E-03 2.23077E-22
1.54133E-03 2.03778E-22
1.61056E-03 1.86515E-22
1.68131E-03 1.71037E-22
1.75357E-03 1.57128E-22
1.82735E-03 1.44600E-22
1.90265E-03 1.33292E-22
1.97947E-03 1.23065E-22
2.05780E-03 1.13796E-22
2.13765E-03 1.05382E-22
2.21902E-03 9.77276E-23
2.30190E-03 9.07536E-23
2.38630E-03 8.43885E-23
2.47222E-03 7.85696E-23
2.55965E-03 7.32418E-23
2.64859E-03 6.83562E-23
2.73905E-03 6.38696E-23
2.83103E-03 5.97435E-23
2.92452E-03 5.59439E-23
3.01952E-03 5.24402E-23
3.11604E-03 4.92053E-23
3.21407E-03 4.62149E-23
3.31362E-03 4.34471E-23
3.41468E-03 4.08825E-23
3.51725E-03 3.85033E-23
3.62133E-03 3.62939E-23
3.72692E-03 3.42398E-23
3.83403E-03 3.23282E-23
3.94265E-03 3.05474E-23
4.05278E-03 2.88869E-23
4.16442E-03 2.73370E-23
4.27757E-03 2.58891E-23
4.39223E-03 2.45352E-23
4.50840E-03 2.32681E-23
4.62608E-03 2.20812E-23
4.74527E-03 2.09686E-23
4.86597E-03 1.99247E-23
4.98817E-03 1.89445E-23
5.11188E-03 1.80234E-23
5.23711E-03 1.71573E-23
5.36383E-03 1.63422E-23
5.49207E-03 1.55745E-23
5.62181E-03 1.48511E-23
5.75306E-03 1.41689E-23
5.88581E-03 1.35250E-23
6.02007E-03 1.29171E-23
6.15583E-03 1.23427E-23
6.29310E-03 1.17995E-23
6.43187E-03 1.12857E-23
6.57214E-03 1.07993E-23
6.71392E-03 1.03386E-23
6.85720E-03 9.90197E-24
7.00198E-03 9.48796E-24
7.14827E-03 9.09515E-24
7.29605E-03 8.72228E-24
7.44534E-03 8.36814E-24
7.59612E-03 8.03161E-24
7.97965E-03 7.26074E-24
8.37255E-03 6.57931E-24
8.77480E-03 5.97519E-24
9.18641E-03 5.43814E-24
9.60736E-03 4.95945E-24
1.00376E-02 4.53170E-24
1.04773E-02 4.14856E-24
1.09262E-02 3.80458E-24
1.13844E-02 3.49508E-24
1.18520E-02 3.21602E-24
1.23288E-02 2.96389E-24
1.28150E-02 2.73565E-24
1.33104E-02 2.52865E-24
1.38150E-02 2.34057E-24
1.43290E-02 2.16939E-24
1.48521E-02 2.01333E-24
1.53845E-02 1.87082E-24
1.59262E-02 1.74049E-24
1.64770E-02 1.62112E-24
1.70371E-02 1.51162E-24
1.76063E-02 1.41105E-24
1.81848E-02 1.31854E-24
1.87724E-02 1.23334E-24
1.93692E-02 1.15478E-24
1.99751E-02 1.08225E-24
2.05901E-02 1.01520E-24
2.12143E-02 9.53147E-25
2.18476E-02 8.95661E-25
2.24900E-02 8.42345E-25
2.31415E-02 7.92845E-25
2.38021E-02 7.46840E-25
2.44717E-02 7.04041E-25
2.51504E-02 6.64188E-25
2.58382E-02 6.27042E-25
2.65349E-02 5.92388E-25
2.72407E-02 5.60030E-25
2.79555E-02 5.29791E-25
2.86793E-02 5.01507E-25
2.94120E-02 4.75031E-25
3.01537E-02 4.50228E-25
3.09043E-02 4.26974E-25
3.16639E-02 4.05155E-25
3.24324E-02 3.84669E-25
3.32098E-02 3.65419E-25
3.39961E-02 3.47319E-25
3.47912E-02 3.30289E-25
3.55952E-02 3.14253E-25
3.64081E-02 2.99146E-25
3.72297E-02 2.84903E-25
3.80602E-02 2.71467E-25
3.88995E-02 2.58785E-25
3.97476E-02 2.46807E-25
4.06044E-02 2.35488E-25
4.14700E-02 2.24785E-25
4.23443E-02 2.14659E-25
4.32273E-02 2.05074E-25
4.41190E-02 1.95996E-25
4.50194E-02 1.87394E-25
4.59284E-02 1.79239E-25
4.68461E-02 1.71504E-25
4.87074E-02 1.57193E-25
5.06030E-02 1.44281E-25
5.25328E-02 1.32610E-25
5.44967E-02 1.22043E-25
5.64946E-02 1.12458E-25
5.85262E-02 1.03751E-25
6.05914E-02 9.58284E-26
6.26901E-02 8.86098E-26
6.48222E-02 8.20228E-26
6.69873E-02 7.60038E-26
6.91854E-02 7.04966E-26
7.14163E-02 6.54511E-26
7.36799E-02 6.08229E-26
7.59760E-02 5.65724E-26
7.83043E-02 5.26643E-26
8.06647E-02 4.90669E-26
8.30571E-02 4.57520E-26
8.54812E-02 4.26942E-26
8.79369E-02 3.98707E-26
9.04240E-02 3.72609E-26
9.29422E-02 3.48465E-26
9.54915E-02 3.26106E-26
9.80716E-02 3.05384E-26
1.00682E-01 2.86161E-26
1.03323E-01 2.68313E-26
1.05995E-01 2.51730E-26
1.08696E-01 2.36309E-26
1.11427E-01 2.21958E-26
1.14188E-01 2.08592E-26
1.16978E-01 1.96135E-26
1.19797E-01 1.84518E-26
1.22645E-01 1.73675E-26
1.25522E-01 1.63549E-26
1.28428E-01 1.54086E-26
1.31361E-01 1.45237E-26
1.34323E-01 1.36958E-26
1.37313E-01 1.29206E-26
1.40330E-01 1.21945E-26
1.43375E-01 1.15139E-26
1.46447E-01 1.08757E-26
1.49545E-01 1.02768E-26
1.52671E-01 9.71455E-27
1.55823E-01 9.18646E-27
1.59001E-01 8.69020E-27
1.62205E-01 8.22362E-27
1.65435E-01 7.78474E-27
1.68690E-01 7.37173E-27
1.71970E-01 6.98289E-27
1.75276E-01 6.61665E-27
1.78606E-01 6.27155E-27
1.81961E-01 5.94623E-27
1.85340E-01 5.63944E-27
1.88743E-01 5.35000E-27
1.92169E-01 5.07683E-27
1.95619E-01 4.81892E-27
1.99092E-01 4.57533E-27
2.02589E-01 4.34517E-27
2.06107E-01 4.12764E-27
2.09649E-01 3.92197E-27
2.13212E-01 3.72745E-27
2.16797E-01 3.54341E-27
2.20404E-01 3.36923E-27
2.24032E-01 3.20434E-27
2.27680E-01 3.04819E-27
2.31350E-01 2.90028E-27
2.35040E-01 2.76012E-27
2.38751E-01 2.62728E-27
2.42481E-01 2.50134E-27
2.46231E-01 2.38190E-27
2.50000E-01 2.26861E-27
2.53788E-01 2.16111E-27
2.57595E-01 2.05909E-27
2.61421E-01 1.96224E-27
2.65264E-01 1.87027E-27
2.69126E-01 1.78293E-27
2.73005E-01 1.69995E-27
2.76901E-01 1.62111E-27
2.80814E-01 1.54618E-27
2.84744E-01 1.47494E-27
2.88691E-01 1.40721E-27
2.92653E-01 1.34280E-27
2.96632E-01 1.28152E-27
3.00625E-01 1.22323E-27
3.04634E-01 1.16775E-27
3.08658E-01 1.11495E-27
3.12697E-01 1.06469E-27
3.16749E-01 1.01683E-27
3.20816E-01 9.71254E-28
3.24896E-01 9.27842E-28
3.28990E-01 8.86487E-28
3.33097E-01 8.47082E-28
3.37216E-01 8.09530E-28
3.41348E-01 7.73738E-28
3.45492E-01 7.39618E-28
3.49647E-01 7.07086E-28
3.53814E-01 6.76064E-28
3.57992E-01 6.46476E-28
3.62181E-01 6.18254E-28
3.66381E-01 5.91329E-28
3.70590E-01 5.65638E-28
3.74810E-01 5.41121E-28
3.79039E-01 5.17722E-28
3.83277E-01 4.95385E-28
3.87524E-01 4.74061E-28
3.91780E-01 4.53700E-28
3.96044E-01 4.34257E-28
4.00316E-01 4.15687E-28
4.04596E-01 3.97949E-28
4.08882E-01 3.81004E-28
4.13176E-01 3.64815E-28
4.17476E-01 3.49345E-28
4.21783E-01 3.34562E-28
4.26095E-01 3.20432E-28
4.30413E-01 3.06926E-28
4.34737E-01 2.94015E-28
4.39065E-01 2.81670E-28
4.43398E-01 2.69867E-28
4.47736E-01 2.58580E-28
4.52077E-01 2.47784E-28
4.56422E-01 2.37459E-28
4.60770E-01 2.27582E-28
4.65122E-01 2.18132E-28
4.69476E-01 2.09091E-28
4.73832E-01 2.00440E-28
4.78190E-01 1.92162E-28
4.82550E-01 1.84239E-28
4.86912E-01 1.76655E-28
4.91274E-01 1.69396E-28
4.95637E-01 1.62446E-28
5.00000E-01 1.55793E-28
5.04363E-01 1.49422E-28
5.08726E-01 1.43322E-28
5.13088E-01 1.37480E-28
5.17450E-01 1.31885E-28
5.21810E-01 1.26526E-28
5.26168E-01 1.21392E-28
5.30524E-01 1.16474E-28
5.34878E-01 1.11763E-28
5.39230E-01 1.07248E-28
5.43578E-01 1.02923E-28
5.47923E-01 9.87774E-29
5.52264E-01 9.48048E-29
5.56602E-01 9.09974E-29
5.60935E-01 8.73479E-29
5.65263E-01 8.38495E-29
5.69587E-01 8.04959E-29
5.73905E-01 7.72806E-29
5.78217E-01 7.41979E-29
5.82524E-01 7.12420E-29
5.86824E-01 6.84075E-29
5.91118E-01 6.56893E-29
5.95404E-01 6.30823E-29
5.99684E-01 6.05818E-29
6.03956E-01 5.81834E-29
6.08220E-01 5.58828E-29
6.12476E-01 5.36756E-29
6.16723E-01 5.15582E-29
6.20961E-01 4.95266E-29
6.25190E-01 4.75772E-29
6.29410E-01 4.57067E-29
6.33619E-01 4.39116E-29
6.37819E-01 4.21889E-29
6.42008E-01 4.05355E-29
6.46186E-01 3.89485E-29
6.50353E-01 3.74252E-29
6.54508E-01 3.59629E-29
6.58652E-01 3.45592E-29
6.62784E-01 3.32114E-29
6.66903E-01 3.19175E-29
6.71010E-01 3.06750E-29
6.75104E-01 2.94820E-29
6.79184E-01 2.83364E-29
6.83251E-01 2.72362E-29
6.87303E-01 2.61795E-29
6.91342E-01 2.51646E-29
6.95366E-01 2.41898E-29
6.99375E-01 2.32535E-29
7.03368E-01 2.23540E-29
7.07347E-01 2.14899E-29
7.11309E-01 2.06597E-29
7.15256E-01 1.98621E-29
7.19186E-01 1.90957E-29
7.23099E-01 1.83593E-29
7.26995E-01 1.76516E-29
7.30874E-01 1.69715E-29
7.34736E-01 1.63180E-29
7.38579E-01 1.56898E-29
7.42405E-01 1.50861E-29
7.46212E-01 1.45058E-29
7.50000E-01 1.39479E-29
7.53769E-01 1.34117E-29
7.57519E-01 1.28961E-29
7.61249E-01 1.24005E-29
7.64960E-01 1.19240E-29
7.68650E-01 1.14658E-29
7.72320E-01 1.10252E-29
7.75968E-01 1.06016E-29
7.79596E-01 1.01942E-29
7.83203E-01 9.80237E-30
7.86788E-01 9.42555E-30
7.90351E-01 9.06314E-30
7.93893E-01 8.71455E-30
7.97411E-01 8.37925E-30
8.00908E-01 8.05671E-30
8.04381E-01 7.74644E-30
8.07831E-01 7.44795E-30
8.11257E-01 7.16078E-30
8.14660E-01 6.88449E-30
8.18039E-01 6.61865E-30
8.21394E-01 6.36286E-30
8.24724E-01 6.11673E-30
8.28030E-01 5.87989E-30
8.31310E-01 5.65196E-30
8.34565E-01 5.43261E-30
8.37795E-01 5.22151E-30
8.40999E-01 5.01833E-30
8.44177E-01 4.82277E-30
8.47329E-01 4.63454E-30
8.50455E-01 4.45336E-30
8.53553E-01 4.27895E-30
8.56625E-01 4.11105E-30
8.59670E-01 3.94942E-30
8.62687E-01 3.79382E-30
8.65677E-01 3.64401E-30
8.68639E-01 3.49978E-30
8.71572E-01 3.36091E-30
8.74478E-01 3.22720E-30
8.77355E-01 3.09845E-30
8.80203E-01 2.97448E-30
8.83022E-01 2.85511E-30
8.85812E-01 2.74015E-30
8.88573E-01 2.62945E-30
8.91304E-01 2.52285E-30
8.94005E-01 2.42018E-30
8.96677E-01 2.32131E-30
8.99318E-01 2.22609E-30
9.01928E-01 2.13439E-30
9.04508E-01 2.04607E-30
9.07058E-01 1.96101E-30
9.09576E-01 1.87908E-30
9.12063E-01 1.80018E-30
9.14519E-01 1.72419E-30
9.16943E-01 1.65100E-30
9.19335E-01 1.58050E-30
9.21696E-01 1.51261E-30
9.24024E-01 1.44722E-30
9.26320E-01 1.38424E-30
9.28584E-01 1.32359E-30
9.30815E-01 1.26518E-30
9.33013E-01 1.20893E-30
9.35178E-01 1.15476E-30
9.37310E-01 1.10260E-30
9.39409E-01 1.05237E-30
9.41474E-01 1.00401E-30
9.43505E-01 9.57448E-31
9.45503E-01 9.12620E-31
9.47467E-01 8.69465E-31
9.49397E-01 8.27924E-31
9.51293E-01 7.87942E-31
9.53154E-01 7.49462E-31
9.54981E-01 7.12435E-31
9.56773E-01 6.76809E-31
9.58530E-01 6.42535E-31
9.60252E-01 6.09568E-31
9.61940E-01 5.77864E-31
9.63592E-01 5.47379E-31
9.65209E-01 5.18074E-31
9.66790E-01 4.89907E-31
9.68336E-01 4.62843E-31
9.69846E-01 4.36844E-31
9.71321E-01 4.11876E-31
9.72759E-01 3.87906E-31
9.74162E-01 3.64902E-31
9.75528E-01 3.42835E-31
9.76858E-01 3.21673E-31
9.78152E-01 3.01389E-31
9.79410E-01 2.81958E-31
9.80631E-01 2.63352E-31
9.81815E-01 2.45548E-31
9.82963E-01 2.28523E-31
9.84074E-01 2.12253E-31
9.85148E-01 1.96718E-31
9.86185E-01 1.81897E-31
9.87185E-01 1.67771E-31
9.88148E-01 1.54322E-31
9.89074E-01 1.41532E-31
9.89962E-01 1.29384E-31
9.90814E-01 1.17863E-31
9.91627E-01 1.06954E-31
9.92404E-01 9.66419E-32
9.93143E-01 8.69144E-32
9.93844E-01 7.77582E-32
9.94508E-01 6.91619E-32
9.95134E-01 6.11144E-32
9.95722E-01 5.36052E-32
9.96273E-01 4.66244E-32
9.96786E-01 4.01635E-32
9.97261E-01 3.42136E-32
9.97698E-01 2.87677E-32
9.98097E-01 2.38182E-32
9.98459E-01 1.93591E-32
9.98782E-01 1.53847E-32
9.99067E-01 1.18896E-32
9.99315E-01 8.86970E-33
9.99524E-01 6.32079E-33
9.99695E-01 4.23982E-33
9.99829E-01 2.62399E-33
9.99924E-01 1.47142E-33
9.99981E-01 7.80371E-34
1.00000E+00 5.49990E-34
