 #
 # Subroutine ELSEPA. Elastic scattering of electrons and positrons
 #                    by neutral atoms and positive ions
 #
 # Projectile: positron
 # Kinetic energy = 4.50000E+07 eV = 1.65372E+06 a.u.
 #
 # WARNING: High-energy factorization with free-atom DF screening.
 #          Absorption, polarization and exchange corrections are
 #          switched off.
 #          Phase shifts are calculated for the bare nucleus.
 #          Scattering amplitudes are not evaluated.
 #
 # Element: Ni,  Z =  28,  atomic weight = 5.86934E+01 g/mol
 #
 # Nuclear model: Fermi distribution
 #                Average radius = 4.15828E-13 cm
 #                Skin thickness = 5.46000E-14 cm
 #
 # Number of electrons = 28
 #
 # Total elastic cross section = 1.96987E-18 cm**2 = 7.03453E-02 a0**2
 # 1st transport cross section = 7.22215E-25 cm**2 = 2.57908E-08 a0**2
 # 2nd transport cross section = 2.11628E-24 cm**2 = 7.55736E-08 a0**2
 #
 #
 # Differential cross section:                       MU=(1-COS(THETA))/2
 #
 #  THETA        MU          DCS          DCS        Sherman      error
 #  (deg)                 (cm**2/sr)   (a0**2/sr)    function
 #----------------------------------------------------------------------
0.00000E+00 3.38032E-11
7.61557E-13 3.37848E-11
1.18994E-12 3.37744E-11
1.71346E-12 3.37618E-11
2.33225E-12 3.37470E-11
3.04617E-12 3.37298E-11
3.85530E-12 3.37105E-11
4.75964E-12 3.36888E-11
5.75917E-12 3.36649E-11
6.85391E-12 3.36388E-11
8.04379E-12 3.36104E-11
9.32893E-12 3.35798E-11
1.07092E-11 3.35470E-11
1.21847E-11 3.35120E-11
1.37554E-11 3.34748E-11
1.54213E-11 3.34354E-11
1.71823E-11 3.33939E-11
1.90386E-11 3.33502E-11
2.09900E-11 3.33044E-11
2.30367E-11 3.32564E-11
2.51785E-11 3.32064E-11
2.74156E-11 3.31542E-11
2.97478E-11 3.31000E-11
3.21752E-11 3.30437E-11
3.46979E-11 3.29854E-11
3.73157E-11 3.29251E-11
4.00286E-11 3.28628E-11
4.28368E-11 3.27984E-11
4.57402E-11 3.27322E-11
4.87388E-11 3.26640E-11
5.18325E-11 3.25938E-11
5.50215E-11 3.25218E-11
5.83057E-11 3.24479E-11
6.16850E-11 3.23722E-11
6.51595E-11 3.22946E-11
6.87293E-11 3.22152E-11
7.23943E-11 3.21340E-11
7.61544E-11 3.20511E-11
1.18991E-10 3.11296E-11
1.71347E-10 3.00648E-11
2.33223E-10 2.88794E-11
3.04617E-10 2.76070E-11
3.85531E-10 2.62768E-11
4.75965E-10 2.49161E-11
5.75917E-10 2.35489E-11
6.85389E-10 2.21935E-11
8.04380E-10 2.08640E-11
9.32891E-10 1.95791E-11
1.07092E-09 1.83488E-11
1.21847E-09 1.71797E-11
1.37554E-09 1.60759E-11
1.54213E-09 1.50375E-11
1.71823E-09 1.40647E-11
1.90386E-09 1.31588E-11
2.09900E-09 1.23176E-11
2.30367E-09 1.15379E-11
2.51785E-09 1.08164E-11
2.74156E-09 1.01480E-11
2.97478E-09 9.52956E-12
3.21752E-09 8.95835E-12
3.46978E-09 8.43063E-12
3.73156E-09 7.94286E-12
4.00286E-09 7.49170E-12
4.28368E-09 7.07295E-12
4.57402E-09 6.68449E-12
4.87388E-09 6.32412E-12
5.18326E-09 5.98939E-12
5.50215E-09 5.67806E-12
5.83057E-09 5.38811E-12
6.16850E-09 5.11673E-12
6.51596E-09 4.86313E-12
6.87293E-09 4.62598E-12
7.23942E-09 4.40391E-12
7.61544E-09 4.19568E-12
1.18991E-08 2.64735E-12
1.71347E-08 1.76165E-12
2.33223E-08 1.18786E-12
3.04617E-08 8.20503E-13
3.85531E-08 5.78180E-13
4.75965E-08 4.14807E-13
5.75917E-08 3.02772E-13
6.85389E-08 2.24646E-13
8.04380E-08 1.69455E-13
9.32891E-08 1.30135E-13
1.07092E-07 1.01610E-13
1.21847E-07 8.05646E-14
1.37554E-07 6.47876E-14
1.54213E-07 5.27714E-14
1.71823E-07 4.34843E-14
1.90386E-07 3.62108E-14
2.09900E-07 3.04390E-14
2.30367E-07 2.58033E-14
2.51785E-07 2.20388E-14
2.74156E-07 1.89476E-14
2.97478E-07 1.63837E-14
3.21752E-07 1.42439E-14
3.46978E-07 1.24451E-14
3.73156E-07 1.09227E-14
4.00286E-07 9.62611E-15
4.28368E-07 8.51374E-15
4.57402E-07 7.55569E-15
4.87388E-07 6.72735E-15
5.18325E-07 6.00808E-15
5.50215E-07 5.38102E-15
5.83057E-07 4.83239E-15
6.16850E-07 4.35004E-15
6.51596E-07 3.92542E-15
6.87293E-07 3.55061E-15
7.23942E-07 3.21885E-15
7.61543E-07 2.92440E-15
1.18991E-06 1.23912E-15
1.71347E-06 6.08624E-16
2.33223E-06 3.32868E-16
3.04617E-06 1.97303E-16
3.85531E-06 1.24383E-16
4.75964E-06 8.23044E-17
5.75916E-06 5.66262E-17
6.85388E-06 4.02295E-17
8.04378E-06 2.93594E-17
9.32888E-06 2.19222E-17
1.07092E-05 1.66952E-17
1.21846E-05 1.29353E-17
1.37553E-05 1.01752E-17
1.54212E-05 8.11245E-18
1.71822E-05 6.54610E-18
1.90385E-05 5.33915E-18
2.09899E-05 4.39841E-18
2.30365E-05 3.65563E-18
2.51783E-05 3.06287E-18
2.74153E-05 2.58523E-18
2.97475E-05 2.19698E-18
3.21749E-05 1.87886E-18
3.46974E-05 1.61624E-18
3.73152E-05 1.39793E-18
4.00281E-05 1.21526E-18
4.28362E-05 1.06146E-18
4.57395E-05 9.31220E-19
4.87380E-05 8.20323E-19
5.18317E-05 7.25426E-19
5.50205E-05 6.43840E-19
5.83045E-05 5.73394E-19
6.16838E-05 5.12317E-19
6.51582E-05 4.59157E-19
6.87277E-05 4.12716E-19
7.23925E-05 3.72000E-19
7.61524E-05 3.36181E-19
9.21439E-05 2.29604E-19
1.09658E-04 1.62083E-19
1.28695E-04 1.17649E-19
1.49255E-04 8.74391E-20
1.71338E-04 6.63294E-20
1.94942E-04 5.12185E-20
2.20070E-04 4.01734E-20
2.46720E-04 3.19499E-20
2.74892E-04 2.57252E-20
3.04586E-04 2.09445E-20
3.35803E-04 1.72235E-20
3.68542E-04 1.42928E-20
4.02802E-04 1.19592E-20
4.38585E-04 1.00826E-20
4.75889E-04 8.55975E-21
5.14715E-04 7.31356E-21
5.55063E-04 6.28592E-21
5.96931E-04 5.43240E-21
6.40321E-04 4.71879E-21
6.85233E-04 4.11848E-21
7.31665E-04 3.61054E-21
7.79618E-04 3.17846E-21
8.29092E-04 2.80904E-21
8.80086E-04 2.49170E-21
9.32601E-04 2.21786E-21
9.86636E-04 1.98058E-21
1.04219E-03 1.77415E-21
1.09927E-03 1.59389E-21
1.15786E-03 1.43592E-21
1.21797E-03 1.29700E-21
1.27961E-03 1.17447E-21
1.34276E-03 1.06604E-21
1.40743E-03 9.69814E-22
1.47362E-03 8.84188E-22
1.54133E-03 8.07789E-22
1.61056E-03 7.39450E-22
1.68131E-03 6.78174E-22
1.75357E-03 6.23102E-22
1.82735E-03 5.73497E-22
1.90265E-03 5.28721E-22
1.97947E-03 4.88221E-22
2.05780E-03 4.51517E-22
2.13765E-03 4.18191E-22
2.21902E-03 3.87876E-22
2.30190E-03 3.60252E-22
2.38630E-03 3.35039E-22
2.47222E-03 3.11987E-22
2.55965E-03 2.90879E-22
2.64859E-03 2.71522E-22
2.73905E-03 2.53744E-22
2.83103E-03 2.37394E-22
2.92452E-03 2.22336E-22
3.01952E-03 2.08450E-22
3.11604E-03 1.95628E-22
3.21407E-03 1.83774E-22
3.31362E-03 1.72802E-22
3.41468E-03 1.62633E-22
3.51725E-03 1.53200E-22
3.62133E-03 1.44439E-22
3.72692E-03 1.36293E-22
3.83403E-03 1.28711E-22
3.94265E-03 1.21648E-22
4.05278E-03 1.15060E-22
4.16442E-03 1.08912E-22
4.27757E-03 1.03167E-22
4.39223E-03 9.77941E-23
4.50840E-03 9.27656E-23
4.62608E-03 8.80548E-23
4.74527E-03 8.36383E-23
4.86597E-03 7.94941E-23
4.98817E-03 7.56024E-23
5.11188E-03 7.19451E-23
5.23711E-03 6.85053E-23
5.36383E-03 6.52679E-23
5.49207E-03 6.22186E-23
5.62181E-03 5.93446E-23
5.75306E-03 5.66340E-23
5.88581E-03 5.40757E-23
6.02007E-03 5.16595E-23
6.15583E-03 4.93763E-23
6.29310E-03 4.72172E-23
6.43187E-03 4.51743E-23
6.57214E-03 4.32402E-23
6.71392E-03 4.14080E-23
6.85720E-03 3.96714E-23
7.00198E-03 3.80244E-23
7.14827E-03 3.64616E-23
7.29605E-03 3.49778E-23
7.44534E-03 3.35684E-23
7.59612E-03 3.22289E-23
7.97965E-03 2.91597E-23
8.37255E-03 2.64455E-23
8.77480E-03 2.40383E-23
9.18641E-03 2.18974E-23
9.60736E-03 1.99884E-23
1.00376E-02 1.82817E-23
1.04773E-02 1.67523E-23
1.09262E-02 1.53786E-23
1.13844E-02 1.41420E-23
1.18520E-02 1.30265E-23
1.23288E-02 1.20181E-23
1.28150E-02 1.11047E-23
1.33104E-02 1.02759E-23
1.38150E-02 9.52245E-24
1.43290E-02 8.83631E-24
1.48521E-02 8.21040E-24
1.53845E-02 7.63852E-24
1.59262E-02 7.11518E-24
1.64770E-02 6.63555E-24
1.70371E-02 6.19532E-24
1.76063E-02 5.79069E-24
1.81848E-02 5.41828E-24
1.87724E-02 5.07507E-24
1.93692E-02 4.75836E-24
1.99751E-02 4.46574E-24
2.05901E-02 4.19506E-24
2.12143E-02 3.94438E-24
2.18476E-02 3.71197E-24
2.24900E-02 3.49625E-24
2.31415E-02 3.29581E-24
2.38021E-02 3.10938E-24
2.44717E-02 2.93580E-24
2.51504E-02 2.77404E-24
2.58382E-02 2.62314E-24
2.65349E-02 2.48224E-24
2.72407E-02 2.35057E-24
2.79555E-02 2.22741E-24
2.86793E-02 2.11211E-24
2.94120E-02 2.00409E-24
3.01537E-02 1.90279E-24
3.09043E-02 1.80773E-24
3.16639E-02 1.71846E-24
3.24324E-02 1.63456E-24
3.32098E-02 1.55564E-24
3.39961E-02 1.48137E-24
3.47912E-02 1.41141E-24
3.55952E-02 1.34547E-24
3.64081E-02 1.28329E-24
3.72297E-02 1.22460E-24
3.80602E-02 1.16917E-24
3.88995E-02 1.11680E-24
3.97476E-02 1.06729E-24
4.06044E-02 1.02044E-24
4.14700E-02 9.76095E-25
4.23443E-02 9.34093E-25
4.32273E-02 8.94288E-25
4.41190E-02 8.56544E-25
4.50194E-02 8.20737E-25
4.59284E-02 7.86748E-25
4.68461E-02 7.54470E-25
4.87074E-02 6.94644E-25
5.06030E-02 6.40529E-25
5.25328E-02 5.91486E-25
5.44967E-02 5.46961E-25
5.64946E-02 5.06467E-25
5.85262E-02 4.69578E-25
6.05914E-02 4.35919E-25
6.26901E-02 4.05160E-25
6.48222E-02 3.77007E-25
6.69873E-02 3.51204E-25
6.91854E-02 3.27521E-25
7.14163E-02 3.05755E-25
7.36799E-02 2.85724E-25
7.59760E-02 2.67266E-25
7.83043E-02 2.50237E-25
8.06647E-02 2.34509E-25
8.30571E-02 2.19964E-25
8.54812E-02 2.06499E-25
8.79369E-02 1.94021E-25
9.04240E-02 1.82444E-25
9.29422E-02 1.71693E-25
9.54915E-02 1.61699E-25
9.80716E-02 1.52399E-25
1.00682E-01 1.43738E-25
1.03323E-01 1.35664E-25
1.05995E-01 1.28131E-25
1.08696E-01 1.21096E-25
1.11427E-01 1.14521E-25
1.14188E-01 1.08371E-25
1.16978E-01 1.02614E-25
1.19797E-01 9.72204E-26
1.22645E-01 9.21638E-26
1.25522E-01 8.74195E-26
1.28428E-01 8.29650E-26
1.31361E-01 7.87798E-26
1.34323E-01 7.48448E-26
1.37313E-01 7.11426E-26
1.40330E-01 6.76572E-26
1.43375E-01 6.43738E-26
1.46447E-01 6.12788E-26
1.49545E-01 5.83596E-26
1.52671E-01 5.56046E-26
1.55823E-01 5.30031E-26
1.59001E-01 5.05450E-26
1.62205E-01 4.82213E-26
1.65435E-01 4.60234E-26
1.68690E-01 4.39434E-26
1.71970E-01 4.19739E-26
1.75276E-01 4.01081E-26
1.78606E-01 3.83397E-26
1.81961E-01 3.66628E-26
1.85340E-01 3.50719E-26
1.88743E-01 3.35619E-26
1.92169E-01 3.21280E-26
1.95619E-01 3.07658E-26
1.99092E-01 2.94711E-26
2.02589E-01 2.82400E-26
2.06107E-01 2.70690E-26
2.09649E-01 2.59546E-26
2.13212E-01 2.48937E-26
2.16797E-01 2.38832E-26
2.20404E-01 2.29206E-26
2.24032E-01 2.20030E-26
2.27680E-01 2.11281E-26
2.31350E-01 2.02936E-26
2.35040E-01 1.94973E-26
2.38751E-01 1.87373E-26
2.42481E-01 1.80116E-26
2.46231E-01 1.73184E-26
2.50000E-01 1.66560E-26
2.53788E-01 1.60229E-26
2.57595E-01 1.54176E-26
2.61421E-01 1.48387E-26
2.65264E-01 1.42848E-26
2.69126E-01 1.37547E-26
2.73005E-01 1.32473E-26
2.76901E-01 1.27614E-26
2.80814E-01 1.22959E-26
2.84744E-01 1.18500E-26
2.88691E-01 1.14226E-26
2.92653E-01 1.10128E-26
2.96632E-01 1.06199E-26
3.00625E-01 1.02430E-26
3.04634E-01 9.88136E-27
3.08658E-01 9.53433E-27
3.12697E-01 9.20119E-27
3.16749E-01 8.88132E-27
3.20816E-01 8.57411E-27
3.24896E-01 8.27899E-27
3.28990E-01 7.99541E-27
3.33097E-01 7.72286E-27
3.37216E-01 7.46085E-27
3.41348E-01 7.20891E-27
3.45492E-01 6.96661E-27
3.49647E-01 6.73352E-27
3.53814E-01 6.50924E-27
3.57992E-01 6.29339E-27
3.62181E-01 6.08562E-27
3.66381E-01 5.88558E-27
3.70590E-01 5.69294E-27
3.74810E-01 5.50739E-27
3.79039E-01 5.32864E-27
3.83277E-01 5.15640E-27
3.87524E-01 4.99040E-27
3.91780E-01 4.83038E-27
3.96044E-01 4.67611E-27
4.00316E-01 4.52734E-27
4.04596E-01 4.38386E-27
4.08882E-01 4.24545E-27
4.13176E-01 4.11191E-27
4.17476E-01 3.98305E-27
4.21783E-01 3.85868E-27
4.26095E-01 3.73861E-27
4.30413E-01 3.62270E-27
4.34737E-01 3.51077E-27
4.39065E-01 3.40266E-27
4.43398E-01 3.29824E-27
4.47736E-01 3.19735E-27
4.52077E-01 3.09987E-27
4.56422E-01 3.00567E-27
4.60770E-01 2.91461E-27
4.65122E-01 2.82659E-27
4.69476E-01 2.74149E-27
4.73832E-01 2.65919E-27
4.78190E-01 2.57961E-27
4.82550E-01 2.50263E-27
4.86912E-01 2.42815E-27
4.91274E-01 2.35610E-27
4.95637E-01 2.28638E-27
5.00000E-01 2.21890E-27
5.04363E-01 2.15359E-27
5.08726E-01 2.09036E-27
5.13088E-01 2.02915E-27
5.17450E-01 1.96987E-27
5.21810E-01 1.91247E-27
5.26168E-01 1.85688E-27
5.30524E-01 1.80303E-27
5.34878E-01 1.75085E-27
5.39230E-01 1.70031E-27
5.43578E-01 1.65132E-27
5.47923E-01 1.60386E-27
5.52264E-01 1.55785E-27
5.56602E-01 1.51325E-27
5.60935E-01 1.47001E-27
5.65263E-01 1.42809E-27
5.69587E-01 1.38744E-27
5.73905E-01 1.34802E-27
5.78217E-01 1.30979E-27
5.82524E-01 1.27271E-27
5.86824E-01 1.23673E-27
5.91118E-01 1.20183E-27
5.95404E-01 1.16796E-27
5.99684E-01 1.13510E-27
6.03956E-01 1.10321E-27
6.08220E-01 1.07226E-27
6.12476E-01 1.04221E-27
6.16723E-01 1.01304E-27
6.20961E-01 9.84728E-28
6.25190E-01 9.57234E-28
6.29410E-01 9.30538E-28
6.33619E-01 9.04612E-28
6.37819E-01 8.79433E-28
6.42008E-01 8.54976E-28
6.46186E-01 8.31220E-28
6.50353E-01 8.08142E-28
6.54508E-01 7.85720E-28
6.58652E-01 7.63935E-28
6.62784E-01 7.42766E-28
6.66903E-01 7.22195E-28
6.71010E-01 7.02202E-28
6.75104E-01 6.82770E-28
6.79184E-01 6.63882E-28
6.83251E-01 6.45522E-28
6.87303E-01 6.27672E-28
6.91342E-01 6.10318E-28
6.95366E-01 5.93444E-28
6.99375E-01 5.77036E-28
7.03368E-01 5.61081E-28
7.07347E-01 5.45563E-28
7.11309E-01 5.30471E-28
7.15256E-01 5.15792E-28
7.19186E-01 5.01513E-28
7.23099E-01 4.87623E-28
7.26995E-01 4.74109E-28
7.30874E-01 4.60962E-28
7.34736E-01 4.48170E-28
7.38579E-01 4.35723E-28
7.42405E-01 4.23610E-28
7.46212E-01 4.11823E-28
7.50000E-01 4.00352E-28
7.53769E-01 3.89187E-28
7.57519E-01 3.78320E-28
7.61249E-01 3.67742E-28
7.64960E-01 3.57445E-28
7.68650E-01 3.47421E-28
7.72320E-01 3.37662E-28
7.75968E-01 3.28161E-28
7.79596E-01 3.18911E-28
7.83203E-01 3.09904E-28
7.86788E-01 3.01134E-28
7.90351E-01 2.92593E-28
7.93893E-01 2.84276E-28
7.97411E-01 2.76177E-28
8.00908E-01 2.68289E-28
8.04381E-01 2.60606E-28
8.07831E-01 2.53124E-28
8.11257E-01 2.45835E-28
8.14660E-01 2.38736E-28
8.18039E-01 2.31821E-28
8.21394E-01 2.25085E-28
8.24724E-01 2.18523E-28
8.28030E-01 2.12130E-28
8.31310E-01 2.05902E-28
8.34565E-01 1.99835E-28
8.37795E-01 1.93924E-28
8.40999E-01 1.88164E-28
8.44177E-01 1.82553E-28
8.47329E-01 1.77086E-28
8.50455E-01 1.71759E-28
8.53553E-01 1.66569E-28
8.56625E-01 1.61512E-28
8.59670E-01 1.56584E-28
8.62687E-01 1.51783E-28
8.65677E-01 1.47105E-28
8.68639E-01 1.42546E-28
8.71572E-01 1.38104E-28
8.74478E-01 1.33776E-28
8.77355E-01 1.29559E-28
8.80203E-01 1.25449E-28
8.83022E-01 1.21445E-28
8.85812E-01 1.17544E-28
8.88573E-01 1.13743E-28
8.91304E-01 1.10039E-28
8.94005E-01 1.06431E-28
8.96677E-01 1.02915E-28
8.99318E-01 9.94904E-29
9.01928E-01 9.61537E-29
9.04508E-01 9.29032E-29
9.07058E-01 8.97368E-29
9.09576E-01 8.66525E-29
9.12063E-01 8.36483E-29
9.14519E-01 8.07223E-29
9.16943E-01 7.78727E-29
9.19335E-01 7.50976E-29
9.21696E-01 7.23953E-29
9.24024E-01 6.97641E-29
9.26320E-01 6.72024E-29
9.28584E-01 6.47086E-29
9.30815E-01 6.22811E-29
9.33013E-01 5.99184E-29
9.35178E-01 5.76191E-29
9.37310E-01 5.53817E-29
9.39409E-01 5.32049E-29
9.41474E-01 5.10873E-29
9.43505E-01 4.90277E-29
9.45503E-01 4.70248E-29
9.47467E-01 4.50773E-29
9.49397E-01 4.31842E-29
9.51293E-01 4.13442E-29
9.53154E-01 3.95562E-29
9.54981E-01 3.78192E-29
9.56773E-01 3.61322E-29
9.58530E-01 3.44941E-29
9.60252E-01 3.29039E-29
9.61940E-01 3.13608E-29
9.63592E-01 2.98637E-29
9.65209E-01 2.84118E-29
9.66790E-01 2.70043E-29
9.68336E-01 2.56403E-29
9.69846E-01 2.43190E-29
9.71321E-01 2.30397E-29
9.72759E-01 2.18015E-29
9.74162E-01 2.06038E-29
9.75528E-01 1.94459E-29
9.76858E-01 1.83271E-29
9.78152E-01 1.72467E-29
9.79410E-01 1.62042E-29
9.80631E-01 1.51988E-29
9.81815E-01 1.42301E-29
9.82963E-01 1.32975E-29
9.84074E-01 1.24004E-29
9.85148E-01 1.15383E-29
9.86185E-01 1.07108E-29
9.87185E-01 9.91729E-30
9.88148E-01 9.15740E-30
9.89074E-01 8.43067E-30
9.89962E-01 7.73669E-30
9.90814E-01 7.07507E-30
9.91627E-01 6.44543E-30
9.92404E-01 5.84741E-30
9.93143E-01 5.28067E-30
9.93844E-01 4.74489E-30
9.94508E-01 4.23976E-30
9.95134E-01 3.76500E-30
9.95722E-01 3.32034E-30
9.96273E-01 2.90553E-30
9.96786E-01 2.52033E-30
9.97261E-01 2.16453E-30
9.97698E-01 1.83793E-30
9.98097E-01 1.54033E-30
9.98459E-01 1.27159E-30
9.98782E-01 1.03153E-30
9.99067E-01 8.20038E-31
9.99315E-01 6.36982E-31
9.99524E-01 4.82261E-31
9.99695E-01 3.55790E-31
9.99829E-01 2.57498E-31
9.99924E-01 1.87329E-31
9.99981E-01 1.45243E-31
1.00000E+00 1.31212E-31
