 #
 # Subroutine ELSEPA. Elastic scattering of electrons and positrons
 #                    by neutral atoms and positive ions
 #
 # Projectile: positron
 # Kinetic energy = 1.75000E+08 eV = 6.43113E+06 a.u.
 #
 # WARNING: High-energy factorization with free-atom DF screening.
 #          Absorption, polarization and exchange corrections are
 #          switched off.
 #          Phase shifts are calculated for the bare nucleus.
 #          Scattering amplitudes are not evaluated.
 #
 # Element: Sc,  Z =  21,  atomic weight = 4.49559E+01 g/mol
 #
 # Nuclear model: Fermi distribution
 #                Average radius = 3.80463E-13 cm
 #                Skin thickness = 5.46000E-14 cm
 #
 # Number of electrons = 21
 #
 # Total elastic cross section = 1.86643E-18 cm**2 = 6.66516E-02 a0**2
 # 1st transport cross section = 2.99526E-26 cm**2 = 1.06963E-09 a0**2
 # 2nd transport cross section = 8.94773E-26 cm**2 = 3.19529E-09 a0**2
 #
 #
 # Differential cross section:                       MU=(1-COS(THETA))/2
 #
 #  THETA        MU          DCS          DCS        Sherman      error
 #  (deg)                 (cm**2/sr)   (a0**2/sr)    function
 #----------------------------------------------------------------------
0.00000E+00 1.01706E-09
7.61557E-13 1.00239E-09
1.18994E-12 9.94275E-10
1.71346E-12 9.84496E-10
2.33225E-12 9.73121E-10
3.04617E-12 9.60240E-10
3.85530E-12 9.45948E-10
4.75964E-12 9.30347E-10
5.75917E-12 9.13550E-10
6.85391E-12 8.95670E-10
8.04379E-12 8.76851E-10
9.32893E-12 8.57187E-10
1.07092E-11 8.36763E-10
1.21847E-11 8.15746E-10
1.37554E-11 7.94286E-10
1.54213E-11 7.72402E-10
1.71823E-11 7.50243E-10
1.90386E-11 7.28010E-10
2.09900E-11 7.05647E-10
2.30367E-11 6.83270E-10
2.51785E-11 6.61143E-10
2.74156E-11 6.39125E-10
2.97478E-11 6.17284E-10
3.21752E-11 5.95953E-10
3.46979E-11 5.74910E-10
3.73157E-11 5.54201E-10
4.00286E-11 5.34123E-10
4.28368E-11 5.14489E-10
4.57402E-11 4.95286E-10
4.87388E-11 4.76766E-10
5.18325E-11 4.58794E-10
5.50215E-11 4.41303E-10
5.83057E-11 4.24492E-10
6.16850E-11 4.08291E-10
6.51595E-11 3.92585E-10
6.87293E-11 3.77515E-10
7.23943E-11 3.63081E-10
7.61544E-11 3.49130E-10
1.18991E-10 2.38403E-10
1.71347E-10 1.67940E-10
2.33223E-10 1.22739E-10
3.04617E-10 9.27107E-11
3.85531E-10 7.18608E-11
4.75965E-10 5.67634E-11
5.75917E-10 4.54380E-11
6.85389E-10 3.67295E-11
8.04380E-10 2.96916E-11
9.32891E-10 2.41777E-11
1.07092E-09 2.00203E-11
1.21847E-09 1.66563E-11
1.37554E-09 1.37956E-11
1.54213E-09 1.15679E-11
1.71823E-09 9.77191E-12
1.90386E-09 8.23727E-12
2.09900E-09 7.00830E-12
2.30367E-09 6.00874E-12
2.51785E-09 5.15705E-12
2.74156E-09 4.45817E-12
2.97478E-09 3.88003E-12
3.21752E-09 3.38726E-12
3.46978E-09 2.97421E-12
3.73156E-09 2.62580E-12
4.00286E-09 2.32725E-12
4.28368E-09 2.07214E-12
4.57402E-09 1.85335E-12
4.87388E-09 1.66347E-12
5.18326E-09 1.49863E-12
5.50215E-09 1.35527E-12
5.83057E-09 1.22911E-12
6.16850E-09 1.11795E-12
6.51596E-09 1.02014E-12
6.87293E-09 9.33045E-13
7.23942E-09 8.55176E-13
7.61544E-09 7.85991E-13
1.18991E-08 3.70673E-13
1.71347E-08 1.95913E-13
2.33223E-08 1.11743E-13
3.04617E-08 6.76892E-14
3.85531E-08 4.31279E-14
4.75965E-08 2.86915E-14
5.75917E-08 1.98082E-14
6.85389E-08 1.41149E-14
8.04380E-08 1.03321E-14
9.32891E-08 7.74276E-15
1.07092E-07 5.91998E-15
1.21847E-07 4.60487E-15
1.37554E-07 3.63714E-15
1.54213E-07 2.91177E-15
1.71823E-07 2.35912E-15
1.90386E-07 1.93190E-15
2.09900E-07 1.59702E-15
2.30367E-07 1.33176E-15
2.51785E-07 1.11939E-15
2.74156E-07 9.47714E-16
2.97478E-07 8.07701E-16
3.21752E-07 6.92516E-16
3.46978E-07 5.97133E-16
3.73156E-07 5.17602E-16
4.00286E-07 4.50861E-16
4.28368E-07 3.94519E-16
4.57402E-07 3.46669E-16
4.87388E-07 3.05847E-16
5.18325E-07 2.70850E-16
5.50215E-07 2.40709E-16
5.83057E-07 2.14637E-16
6.16850E-07 1.91987E-16
6.51596E-07 1.72243E-16
6.87293E-07 1.54968E-16
7.23942E-07 1.39801E-16
7.61543E-07 1.26442E-16
1.18991E-06 5.20669E-17
1.71347E-06 2.51709E-17
2.33223E-06 1.36032E-17
3.04617E-06 7.97913E-18
3.85531E-06 4.98310E-18
4.75964E-06 3.27004E-18
5.75916E-06 2.23370E-18
6.85388E-06 1.57720E-18
8.04378E-06 1.14509E-18
9.32888E-06 8.51317E-19
1.07092E-05 6.45983E-19
1.21846E-05 4.98980E-19
1.37553E-05 3.91508E-19
1.54212E-05 3.11470E-19
1.71822E-05 2.50877E-19
1.90385E-05 2.04314E-19
2.09899E-05 1.68087E-19
2.30365E-05 1.39542E-19
2.51783E-05 1.16803E-19
2.74153E-05 9.85097E-20
2.97475E-05 8.36589E-20
3.21749E-05 7.15032E-20
3.46974E-05 6.14774E-20
3.73152E-05 5.31493E-20
4.00281E-05 4.61853E-20
4.28362E-05 4.03255E-20
4.57395E-05 3.53661E-20
4.87380E-05 3.11458E-20
5.18317E-05 2.75363E-20
5.50205E-05 2.44344E-20
5.83045E-05 2.17570E-20
6.16838E-05 1.94364E-20
6.51582E-05 1.74171E-20
6.87277E-05 1.56534E-20
7.23925E-05 1.41074E-20
7.61524E-05 1.27423E-20
9.21439E-05 8.69896E-21
1.09658E-04 6.13890E-21
1.28695E-04 4.45474E-21
1.49255E-04 3.31015E-21
1.71338E-04 2.51049E-21
1.94942E-04 1.93819E-21
2.20070E-04 1.51994E-21
2.46720E-04 1.20858E-21
2.74892E-04 9.72927E-22
3.04586E-04 7.91957E-22
3.35803E-04 6.51121E-22
3.68542E-04 5.40206E-22
4.02802E-04 4.51900E-22
4.38585E-04 3.80894E-22
4.75889E-04 3.23280E-22
5.14715E-04 2.76138E-22
5.55063E-04 2.37268E-22
5.96931E-04 2.04988E-22
6.40321E-04 1.78003E-22
6.85233E-04 1.55305E-22
7.31665E-04 1.36103E-22
7.79618E-04 1.19771E-22
8.29092E-04 1.05809E-22
8.80086E-04 9.38177E-23
9.32601E-04 8.34721E-23
9.86636E-04 7.45091E-23
1.04219E-03 6.67130E-23
1.09927E-03 5.99063E-23
1.15786E-03 5.39425E-23
1.21797E-03 4.86994E-23
1.27961E-03 4.40753E-23
1.34276E-03 3.99846E-23
1.40743E-03 3.63552E-23
1.47362E-03 3.31263E-23
1.54133E-03 3.02461E-23
1.61056E-03 2.76704E-23
1.68131E-03 2.53615E-23
1.75357E-03 2.32870E-23
1.82735E-03 2.14190E-23
1.90265E-03 1.97333E-23
1.97947E-03 1.82090E-23
2.05780E-03 1.68280E-23
2.13765E-03 1.55746E-23
2.21902E-03 1.44347E-23
2.30190E-03 1.33964E-23
2.38630E-03 1.24491E-23
2.47222E-03 1.15832E-23
2.55965E-03 1.07907E-23
2.64859E-03 1.00642E-23
2.73905E-03 9.39717E-24
2.83103E-03 8.78398E-24
2.92452E-03 8.21948E-24
3.01952E-03 7.69912E-24
3.11604E-03 7.21885E-24
3.21407E-03 6.77502E-24
3.31362E-03 6.36439E-24
3.41468E-03 5.98403E-24
3.51725E-03 5.63131E-24
3.62133E-03 5.30387E-24
3.72692E-03 4.99958E-24
3.83403E-03 4.71651E-24
3.94265E-03 4.45291E-24
4.05278E-03 4.20721E-24
4.16442E-03 3.97798E-24
4.27757E-03 3.76392E-24
4.39223E-03 3.56385E-24
4.50840E-03 3.37668E-24
4.62608E-03 3.20145E-24
4.74527E-03 3.03725E-24
4.86597E-03 2.88326E-24
4.98817E-03 2.73874E-24
5.11188E-03 2.60301E-24
5.23711E-03 2.47542E-24
5.36383E-03 2.35542E-24
5.49207E-03 2.24246E-24
5.62181E-03 2.13606E-24
5.75306E-03 2.03577E-24
5.88581E-03 1.94118E-24
6.02007E-03 1.85191E-24
6.15583E-03 1.76760E-24
6.29310E-03 1.68793E-24
6.43187E-03 1.61260E-24
6.57214E-03 1.54133E-24
6.71392E-03 1.47387E-24
6.85720E-03 1.40997E-24
7.00198E-03 1.34941E-24
7.14827E-03 1.29199E-24
7.29605E-03 1.23752E-24
7.44534E-03 1.18582E-24
7.59612E-03 1.13672E-24
7.97965E-03 1.02436E-24
8.37255E-03 9.25207E-25
8.77480E-03 8.37448E-25
9.18641E-03 7.59567E-25
9.60736E-03 6.90273E-25
1.00376E-02 6.28467E-25
1.04773E-02 5.73211E-25
1.09262E-02 5.23699E-25
1.13844E-02 4.79240E-25
1.18520E-02 4.39234E-25
1.23288E-02 4.03166E-25
1.28150E-02 3.70585E-25
1.33104E-02 3.41102E-25
1.38150E-02 3.14375E-25
1.43290E-02 2.90105E-25
1.48521E-02 2.68033E-25
1.53845E-02 2.47926E-25
1.59262E-02 2.29583E-25
1.64770E-02 2.12826E-25
1.70371E-02 1.97495E-25
1.76063E-02 1.83450E-25
1.81848E-02 1.70568E-25
1.87724E-02 1.58737E-25
1.93692E-02 1.47858E-25
1.99751E-02 1.37842E-25
2.05901E-02 1.28612E-25
2.12143E-02 1.20096E-25
2.18476E-02 1.12231E-25
2.24900E-02 1.04959E-25
2.31415E-02 9.82293E-26
2.38021E-02 9.19953E-26
2.44717E-02 8.62151E-26
2.51504E-02 8.08510E-26
2.58382E-02 7.58686E-26
2.65349E-02 7.12368E-26
2.72407E-02 6.69275E-26
2.79555E-02 6.29151E-26
2.86793E-02 5.91761E-26
2.94120E-02 5.56893E-26
3.01537E-02 5.24354E-26
3.09043E-02 4.93966E-26
3.16639E-02 4.65569E-26
3.24324E-02 4.39013E-26
3.32098E-02 4.14163E-26
3.39961E-02 3.90895E-26
3.47912E-02 3.69095E-26
3.55952E-02 3.48658E-26
3.64081E-02 3.29488E-26
3.72297E-02 3.11495E-26
3.80602E-02 2.94600E-26
3.88995E-02 2.78725E-26
3.97476E-02 2.63801E-26
4.06044E-02 2.49765E-26
4.14700E-02 2.36557E-26
4.23443E-02 2.24123E-26
4.32273E-02 2.12411E-26
4.41190E-02 2.01374E-26
4.50194E-02 1.90970E-26
4.59284E-02 1.81156E-26
4.68461E-02 1.71897E-26
4.87074E-02 1.54904E-26
5.06030E-02 1.39738E-26
5.25328E-02 1.26184E-26
5.44967E-02 1.14052E-26
5.64946E-02 1.03179E-26
5.85262E-02 9.34210E-27
6.05914E-02 8.46532E-27
6.26901E-02 7.67659E-27
6.48222E-02 6.96627E-27
6.69873E-02 6.32590E-27
6.91854E-02 5.74800E-27
7.14163E-02 5.22598E-27
7.36799E-02 4.75401E-27
7.59760E-02 4.32692E-27
7.83043E-02 3.94012E-27
8.06647E-02 3.58955E-27
8.30571E-02 3.27157E-27
8.54812E-02 2.98295E-27
8.79369E-02 2.72081E-27
9.04240E-02 2.48256E-27
9.29422E-02 2.26590E-27
9.54915E-02 2.06876E-27
9.80716E-02 1.88929E-27
1.00682E-01 1.72583E-27
1.03323E-01 1.57686E-27
1.05995E-01 1.44105E-27
1.08696E-01 1.31718E-27
1.11427E-01 1.20416E-27
1.14188E-01 1.10100E-27
1.16978E-01 1.00681E-27
1.19797E-01 9.20775E-28
1.22645E-01 8.42170E-28
1.25522E-01 7.70332E-28
1.28428E-01 7.04663E-28
1.31361E-01 6.44617E-28
1.34323E-01 5.89703E-28
1.37313E-01 5.39471E-28
1.40330E-01 4.93514E-28
1.43375E-01 4.51462E-28
1.46447E-01 4.12977E-28
1.49545E-01 3.77753E-28
1.52671E-01 3.45510E-28
1.55823E-01 3.15993E-28
1.59001E-01 2.88969E-28
1.62205E-01 2.64227E-28
1.65435E-01 2.41573E-28
1.68690E-01 2.20831E-28
1.71970E-01 2.01838E-28
1.75276E-01 1.84448E-28
1.78606E-01 1.68525E-28
1.81961E-01 1.53947E-28
1.85340E-01 1.40601E-28
1.88743E-01 1.28382E-28
1.92169E-01 1.17198E-28
1.95619E-01 1.06961E-28
1.99092E-01 9.75918E-29
2.02589E-01 8.90185E-29
2.06107E-01 8.11743E-29
2.09649E-01 7.39984E-29
2.13212E-01 6.74348E-29
2.16797E-01 6.14326E-29
2.20404E-01 5.59446E-29
2.24032E-01 5.09281E-29
2.27680E-01 4.63434E-29
2.31350E-01 4.21544E-29
2.35040E-01 3.83281E-29
2.38751E-01 3.48338E-29
2.42481E-01 3.16438E-29
2.46231E-01 2.87324E-29
2.50000E-01 2.60762E-29
2.53788E-01 2.36536E-29
2.57595E-01 2.14448E-29
2.61421E-01 1.94317E-29
2.65264E-01 1.75977E-29
2.69126E-01 1.59276E-29
2.73005E-01 1.44073E-29
2.76901E-01 1.30240E-29
2.80814E-01 1.17660E-29
2.84744E-01 1.06225E-29
2.88691E-01 9.58354E-30
2.92653E-01 8.64013E-30
2.96632E-01 7.78393E-30
3.00625E-01 7.00733E-30
3.04634E-01 6.30337E-30
3.08658E-01 5.66565E-30
3.12697E-01 5.08831E-30
3.16749E-01 4.56601E-30
3.20816E-01 4.09382E-30
3.24896E-01 3.66728E-30
3.28990E-01 3.28226E-30
3.33097E-01 2.93501E-30
3.37216E-01 2.62210E-30
3.41348E-01 2.34038E-30
3.45492E-01 2.08698E-30
3.49647E-01 1.85929E-30
3.53814E-01 1.65490E-30
3.57992E-01 1.47164E-30
3.62181E-01 1.30750E-30
3.66381E-01 1.16067E-30
3.70590E-01 1.02949E-30
3.74810E-01 9.12444E-31
3.79039E-01 8.08165E-31
3.83277E-01 7.15396E-31
3.87524E-01 6.32997E-31
3.91780E-01 5.59931E-31
3.96044E-01 4.95258E-31
4.00316E-01 4.38121E-31
4.04596E-01 3.87744E-31
4.08882E-01 3.43424E-31
4.13176E-01 3.04522E-31
4.17476E-01 2.70460E-31
4.21783E-01 2.40716E-31
4.26095E-01 2.14816E-31
4.30413E-01 1.92335E-31
4.34737E-01 1.72886E-31
4.39065E-01 1.56122E-31
4.43398E-01 1.41731E-31
4.47736E-01 1.29431E-31
4.52077E-01 1.18969E-31
4.56422E-01 1.10117E-31
4.60770E-01 1.02674E-31
4.65122E-01 9.64570E-32
4.69476E-01 9.13031E-32
4.73832E-01 8.70675E-32
4.78190E-01 8.36211E-32
4.82550E-01 8.08492E-32
4.86912E-01 7.86499E-32
4.91274E-01 7.69334E-32
4.95637E-01 7.56200E-32
5.00000E-01 7.46399E-32
5.04363E-01 7.39316E-32
5.08726E-01 7.34415E-32
5.13088E-01 7.31227E-32
5.17450E-01 7.29345E-32
5.21810E-01 7.28420E-32
5.26168E-01 7.28150E-32
5.30524E-01 7.28277E-32
5.34878E-01 7.28582E-32
5.39230E-01 7.28882E-32
5.43578E-01 7.29025E-32
5.47923E-01 7.28885E-32
5.52264E-01 7.28359E-32
5.56602E-01 7.27369E-32
5.60935E-01 7.25851E-32
5.65263E-01 7.23760E-32
5.69587E-01 7.21064E-32
5.73905E-01 7.17742E-32
5.78217E-01 7.13786E-32
5.82524E-01 7.09195E-32
5.86824E-01 7.03975E-32
5.91118E-01 6.98140E-32
5.95404E-01 6.91708E-32
5.99684E-01 6.84702E-32
6.03956E-01 6.77148E-32
6.08220E-01 6.69075E-32
6.12476E-01 6.60514E-32
6.16723E-01 6.51498E-32
6.20961E-01 6.42059E-32
6.25190E-01 6.32234E-32
6.29410E-01 6.22054E-32
6.33619E-01 6.11556E-32
6.37819E-01 6.00772E-32
6.42008E-01 5.89737E-32
6.46186E-01 5.78483E-32
6.50353E-01 5.67042E-32
6.54508E-01 5.55443E-32
6.58652E-01 5.43717E-32
6.62784E-01 5.31892E-32
6.66903E-01 5.19995E-32
6.71010E-01 5.08051E-32
6.75104E-01 4.96085E-32
6.79184E-01 4.84119E-32
6.83251E-01 4.72175E-32
6.87303E-01 4.60273E-32
6.91342E-01 4.48431E-32
6.95366E-01 4.36668E-32
6.99375E-01 4.24999E-32
7.03368E-01 4.13439E-32
7.07347E-01 4.02001E-32
7.11309E-01 3.90699E-32
7.15256E-01 3.79543E-32
7.19186E-01 3.68543E-32
7.23099E-01 3.57709E-32
7.26995E-01 3.47049E-32
7.30874E-01 3.36571E-32
7.34736E-01 3.26279E-32
7.38579E-01 3.16180E-32
7.42405E-01 3.06279E-32
7.46212E-01 2.96579E-32
7.50000E-01 2.87084E-32
7.53769E-01 2.77796E-32
7.57519E-01 2.68716E-32
7.61249E-01 2.59847E-32
7.64960E-01 2.51189E-32
7.68650E-01 2.42743E-32
7.72320E-01 2.34507E-32
7.75968E-01 2.26482E-32
7.79596E-01 2.18666E-32
7.83203E-01 2.11059E-32
7.86788E-01 2.03658E-32
7.90351E-01 1.96461E-32
7.93893E-01 1.89467E-32
7.97411E-01 1.82672E-32
8.00908E-01 1.76074E-32
8.04381E-01 1.69671E-32
8.07831E-01 1.63458E-32
8.11257E-01 1.57433E-32
8.14660E-01 1.51592E-32
8.18039E-01 1.45932E-32
8.21394E-01 1.40450E-32
8.24724E-01 1.35141E-32
8.28030E-01 1.30002E-32
8.31310E-01 1.25030E-32
8.34565E-01 1.20219E-32
8.37795E-01 1.15568E-32
8.40999E-01 1.11071E-32
8.44177E-01 1.06725E-32
8.47329E-01 1.02525E-32
8.50455E-01 9.84693E-33
8.53553E-01 9.45528E-33
8.56625E-01 9.07718E-33
8.59670E-01 8.71225E-33
8.62687E-01 8.36014E-33
8.65677E-01 8.02047E-33
8.68639E-01 7.69290E-33
8.71572E-01 7.37704E-33
8.74478E-01 7.07255E-33
8.77355E-01 6.77909E-33
8.80203E-01 6.49633E-33
8.83022E-01 6.22392E-33
8.85812E-01 5.96154E-33
8.88573E-01 5.70886E-33
8.91304E-01 5.46559E-33
8.94005E-01 5.23141E-33
8.96677E-01 5.00603E-33
8.99318E-01 4.78915E-33
9.01928E-01 4.58049E-33
9.04508E-01 4.37978E-33
9.07058E-01 4.18673E-33
9.09576E-01 4.00110E-33
9.12063E-01 3.82262E-33
9.14519E-01 3.65105E-33
9.16943E-01 3.48615E-33
9.19335E-01 3.32768E-33
9.21696E-01 3.17542E-33
9.24024E-01 3.02913E-33
9.26320E-01 2.88862E-33
9.28584E-01 2.75368E-33
9.30815E-01 2.62410E-33
9.33013E-01 2.49968E-33
9.35178E-01 2.38025E-33
9.37310E-01 2.26561E-33
9.39409E-01 2.15560E-33
9.41474E-01 2.05004E-33
9.43505E-01 1.94877E-33
9.45503E-01 1.85163E-33
9.47467E-01 1.75847E-33
9.49397E-01 1.66912E-33
9.51293E-01 1.58347E-33
9.53154E-01 1.50137E-33
9.54981E-01 1.42268E-33
9.56773E-01 1.34728E-33
9.58530E-01 1.27503E-33
9.60252E-01 1.20584E-33
9.61940E-01 1.13958E-33
9.63592E-01 1.07613E-33
9.65209E-01 1.01540E-33
9.66790E-01 9.57288E-34
9.68336E-01 9.01691E-34
9.69846E-01 8.48511E-34
9.71321E-01 7.97666E-34
9.72759E-01 7.49062E-34
9.74162E-01 7.02622E-34
9.75528E-01 6.58262E-34
9.76858E-01 6.15910E-34
9.78152E-01 5.75491E-34
9.79410E-01 5.36932E-34
9.80631E-01 5.00167E-34
9.81815E-01 4.65136E-34
9.82963E-01 4.31774E-34
9.84074E-01 4.00022E-34
9.85148E-01 3.69824E-34
9.86185E-01 3.41132E-34
9.87185E-01 3.13889E-34
9.88148E-01 2.88049E-34
9.89074E-01 2.63570E-34
9.89962E-01 2.40400E-34
9.90814E-01 2.18508E-34
9.91627E-01 1.97844E-34
9.92404E-01 1.78377E-34
9.93143E-01 1.60074E-34
9.93844E-01 1.42898E-34
9.94508E-01 1.26820E-34
9.95134E-01 1.11810E-34
9.95722E-01 9.78400E-35
9.96273E-01 8.48883E-35
9.96786E-01 7.29276E-35
9.97261E-01 6.19397E-35
9.97698E-01 5.19034E-35
9.98097E-01 4.27974E-35
9.98459E-01 3.46104E-35
9.98782E-01 2.73233E-35
9.99067E-01 2.09242E-35
9.99315E-01 1.54027E-35
9.99524E-01 1.07460E-35
9.99695E-01 6.94901E-36
9.99829E-01 4.00257E-36
9.99924E-01 1.90220E-36
9.99981E-01 6.43339E-37
1.00000E+00 2.23481E-37
