 #
 # Subroutine ELSEPA. Elastic scattering of electrons and positrons
 #                    by neutral atoms and positive ions
 #
 # Projectile: positron
 # Kinetic energy = 1.00000E+08 eV = 3.67493E+06 a.u.
 #
 # WARNING: High-energy factorization with free-atom DF screening.
 #          Absorption, polarization and exchange corrections are
 #          switched off.
 #          Phase shifts are calculated for the bare nucleus.
 #          Scattering amplitudes are not evaluated.
 #
 # Element: Sc,  Z =  21,  atomic weight = 4.49559E+01 g/mol
 #
 # Nuclear model: Fermi distribution
 #                Average radius = 3.80463E-13 cm
 #                Skin thickness = 5.46000E-14 cm
 #
 # Number of electrons = 21
 #
 # Total elastic cross section = 1.86656E-18 cm**2 = 6.66561E-02 a0**2
 # 1st transport cross section = 9.01531E-26 cm**2 = 3.21942E-09 a0**2
 # 2nd transport cross section = 2.67446E-25 cm**2 = 9.55066E-09 a0**2
 #
 #
 # Differential cross section:                       MU=(1-COS(THETA))/2
 #
 #  THETA        MU          DCS          DCS        Sherman      error
 #  (deg)                 (cm**2/sr)   (a0**2/sr)    function
 #----------------------------------------------------------------------
0.00000E+00 3.33552E-10
7.61557E-13 3.31961E-10
1.18994E-12 3.31072E-10
1.71346E-12 3.29991E-10
2.33225E-12 3.28720E-10
3.04617E-12 3.27262E-10
3.85530E-12 3.25622E-10
4.75964E-12 3.23803E-10
5.75917E-12 3.21810E-10
6.85391E-12 3.19648E-10
8.04379E-12 3.17324E-10
9.32893E-12 3.14841E-10
1.07092E-11 3.12207E-10
1.21847E-11 3.09427E-10
1.37554E-11 3.06508E-10
1.54213E-11 3.03458E-10
1.71823E-11 3.00282E-10
1.90386E-11 2.96989E-10
2.09900E-11 2.93585E-10
2.30367E-11 2.90079E-10
2.51785E-11 2.86484E-10
2.74156E-11 2.82797E-10
2.97478E-11 2.79024E-10
3.21752E-11 2.75175E-10
3.46979E-11 2.71254E-10
3.73157E-11 2.67288E-10
4.00286E-11 2.63274E-10
4.28368E-11 2.59209E-10
4.57402E-11 2.55100E-10
4.87388E-11 2.50955E-10
5.18325E-11 2.46787E-10
5.50215E-11 2.42622E-10
5.83057E-11 2.38438E-10
6.16850E-11 2.34241E-10
6.51595E-11 2.30035E-10
6.87293E-11 2.25827E-10
7.23943E-11 2.21656E-10
7.61544E-11 2.17502E-10
1.18991E-10 1.77563E-10
1.71347E-10 1.42702E-10
2.33223E-10 1.14109E-10
3.04617E-10 9.14804E-11
3.85531E-10 7.39231E-11
4.75965E-10 6.03957E-11
5.75917E-10 4.99500E-11
6.85389E-10 4.18155E-11
8.04380E-10 3.54008E-11
9.32891E-10 3.02646E-11
1.07092E-09 2.60917E-11
1.21847E-09 2.26536E-11
1.37554E-09 1.97841E-11
1.54213E-09 1.73613E-11
1.71823E-09 1.52934E-11
1.90386E-09 1.35167E-11
2.09900E-09 1.19801E-11
2.30367E-09 1.06279E-11
2.51785E-09 9.38869E-12
2.74156E-09 8.34332E-12
2.97478E-09 7.45616E-12
3.21752E-09 6.69893E-12
3.46978E-09 6.04904E-12
3.73156E-09 5.42561E-12
4.00286E-09 4.86424E-12
4.28368E-09 4.37920E-12
4.57402E-09 3.95823E-12
4.87388E-09 3.59129E-12
5.18326E-09 3.26277E-12
5.50215E-09 2.95350E-12
5.83057E-09 2.68202E-12
6.16850E-09 2.44288E-12
6.51596E-09 2.23152E-12
6.87293E-09 2.04410E-12
7.23942E-09 1.87089E-12
7.61544E-09 1.71498E-12
1.18991E-08 7.97339E-13
1.71347E-08 4.29032E-13
2.33223E-08 2.55913E-13
3.04617E-08 1.63498E-13
3.85531E-08 1.09452E-13
4.75965E-08 7.58080E-14
5.75917E-08 5.39347E-14
6.85389E-08 3.92442E-14
8.04380E-08 2.91263E-14
9.32891E-08 2.20157E-14
1.07092E-07 1.69184E-14
1.21847E-07 1.31987E-14
1.37554E-07 1.04400E-14
1.54213E-07 8.36306E-15
1.71823E-07 6.77718E-15
1.90386E-07 5.55040E-15
2.09900E-07 4.58969E-15
2.30367E-07 3.82874E-15
2.51785E-07 3.21960E-15
2.74156E-07 2.72836E-15
2.97478E-07 2.32712E-15
3.21752E-07 1.99789E-15
3.46978E-07 1.72486E-15
3.73156E-07 1.49734E-15
4.00286E-07 1.30620E-15
4.28368E-07 1.14479E-15
4.57402E-07 1.00766E-15
4.87388E-07 8.90477E-16
5.18325E-07 7.89975E-16
5.50215E-07 7.03190E-16
5.83057E-07 6.28141E-16
6.16850E-07 5.62732E-16
6.51596E-07 5.05726E-16
6.87293E-07 4.55684E-16
7.23942E-07 4.11734E-16
7.61543E-07 3.72926E-16
1.18991E-06 1.55422E-16
1.71347E-06 7.56999E-17
2.33223E-06 4.10997E-17
3.04617E-06 2.41762E-17
3.85531E-06 1.51260E-17
4.75964E-06 9.93807E-18
5.75916E-06 6.79406E-18
6.85388E-06 4.80001E-18
8.04378E-06 3.48636E-18
9.32888E-06 2.59271E-18
1.07092E-05 1.96781E-18
1.21846E-05 1.52027E-18
1.37553E-05 1.19299E-18
1.54212E-05 9.49198E-19
1.71822E-05 7.64606E-19
1.90385E-05 6.22736E-19
2.09899E-05 5.12348E-19
2.30365E-05 4.25360E-19
2.51783E-05 3.56060E-19
2.74153E-05 3.00303E-19
2.97475E-05 2.55038E-19
3.21749E-05 2.17986E-19
3.46974E-05 1.87425E-19
3.73152E-05 1.62038E-19
4.00281E-05 1.40809E-19
4.28362E-05 1.22945E-19
4.57395E-05 1.07826E-19
4.87380E-05 9.49603E-20
5.18317E-05 8.39559E-20
5.50205E-05 7.44992E-20
5.83045E-05 6.63365E-20
6.16838E-05 5.92615E-20
6.51582E-05 5.31050E-20
6.87277E-05 4.77277E-20
7.23925E-05 4.30141E-20
7.61524E-05 3.88643E-20
9.21439E-05 2.65347E-20
1.09658E-04 1.87276E-20
1.28695E-04 1.35914E-20
1.49255E-04 1.01005E-20
1.71338E-04 7.66150E-21
1.94942E-04 5.91583E-21
2.20070E-04 4.63996E-21
2.46720E-04 3.69007E-21
2.74892E-04 2.97111E-21
3.04586E-04 2.41893E-21
3.35803E-04 1.98917E-21
3.68542E-04 1.65068E-21
4.02802E-04 1.38116E-21
4.38585E-04 1.16442E-21
4.75889E-04 9.88543E-22
5.14715E-04 8.44612E-22
5.55063E-04 7.25923E-22
5.96931E-04 6.27343E-22
6.40321E-04 5.44923E-22
6.85233E-04 4.75586E-22
7.31665E-04 4.16920E-22
7.79618E-04 3.67014E-22
8.29092E-04 3.24345E-22
8.80086E-04 2.87691E-22
9.32601E-04 2.56063E-22
9.86636E-04 2.28656E-22
1.04219E-03 2.04814E-22
1.09927E-03 1.83993E-22
1.15786E-03 1.65747E-22
1.21797E-03 1.49703E-22
1.27961E-03 1.35549E-22
1.34276E-03 1.23026E-22
1.40743E-03 1.11913E-22
1.47362E-03 1.02023E-22
1.54133E-03 9.31997E-23
1.61056E-03 8.53072E-23
1.68131E-03 7.82304E-23
1.75357E-03 7.18703E-23
1.82735E-03 6.61418E-23
1.90265E-03 6.09710E-23
1.97947E-03 5.62942E-23
2.05780E-03 5.20558E-23
2.13765E-03 4.82076E-23
2.21902E-03 4.47072E-23
2.30190E-03 4.15177E-23
2.38630E-03 3.86066E-23
2.47222E-03 3.59452E-23
2.55965E-03 3.35084E-23
2.64859E-03 3.12737E-23
2.73905E-03 2.92215E-23
2.83103E-03 2.73342E-23
2.92452E-03 2.55961E-23
3.01952E-03 2.39934E-23
3.11604E-03 2.25136E-23
3.21407E-03 2.11455E-23
3.31362E-03 1.98794E-23
3.41468E-03 1.87061E-23
3.51725E-03 1.76176E-23
3.62133E-03 1.66068E-23
3.72692E-03 1.56670E-23
3.83403E-03 1.47924E-23
3.94265E-03 1.39776E-23
4.05278E-03 1.32179E-23
4.16442E-03 1.25087E-23
4.27757E-03 1.18462E-23
4.39223E-03 1.12267E-23
4.50840E-03 1.06469E-23
4.62608E-03 1.01038E-23
4.74527E-03 9.59467E-24
4.86597E-03 9.11698E-24
4.98817E-03 8.66844E-24
5.11188E-03 8.24695E-24
5.23711E-03 7.85057E-24
5.36383E-03 7.47755E-24
5.49207E-03 7.12626E-24
5.62181E-03 6.79519E-24
5.75306E-03 6.48297E-24
5.88581E-03 6.18833E-24
6.02007E-03 5.91010E-24
6.15583E-03 5.64720E-24
6.29310E-03 5.39863E-24
6.43187E-03 5.16346E-24
6.57214E-03 4.94085E-24
6.71392E-03 4.72999E-24
6.85720E-03 4.53016E-24
7.00198E-03 4.34067E-24
7.14827E-03 4.16089E-24
7.29605E-03 3.99023E-24
7.44534E-03 3.82814E-24
7.59612E-03 3.67411E-24
7.97965E-03 3.32129E-24
8.37255E-03 3.00939E-24
8.77480E-03 2.73288E-24
9.18641E-03 2.48707E-24
9.60736E-03 2.26796E-24
1.00376E-02 2.07218E-24
1.04773E-02 1.89681E-24
1.09262E-02 1.73938E-24
1.13844E-02 1.59772E-24
1.18520E-02 1.47000E-24
1.23288E-02 1.35460E-24
1.28150E-02 1.25014E-24
1.33104E-02 1.15540E-24
1.38150E-02 1.06933E-24
1.43290E-02 9.90992E-25
1.48521E-02 9.19575E-25
1.53845E-02 8.54364E-25
1.59262E-02 7.94728E-25
1.64770E-02 7.40107E-25
1.70371E-02 6.90008E-25
1.76063E-02 6.43993E-25
1.81848E-02 6.01672E-25
1.87724E-02 5.62697E-25
1.93692E-02 5.26759E-25
1.99751E-02 4.93580E-25
2.05901E-02 4.62913E-25
2.12143E-02 4.34535E-25
2.18476E-02 4.08245E-25
2.24900E-02 3.83865E-25
2.31415E-02 3.61231E-25
2.38021E-02 3.40197E-25
2.44717E-02 3.20630E-25
2.51504E-02 3.02412E-25
2.58382E-02 2.85433E-25
2.65349E-02 2.69594E-25
2.72407E-02 2.54807E-25
2.79555E-02 2.40989E-25
2.86793E-02 2.28065E-25
2.94120E-02 2.15970E-25
3.01537E-02 2.04639E-25
3.09043E-02 1.94018E-25
3.16639E-02 1.84053E-25
3.24324E-02 1.74698E-25
3.32098E-02 1.65909E-25
3.39961E-02 1.57645E-25
3.47912E-02 1.49871E-25
3.55952E-02 1.42553E-25
3.64081E-02 1.35658E-25
3.72297E-02 1.29160E-25
3.80602E-02 1.23030E-25
3.88995E-02 1.17245E-25
3.97476E-02 1.11782E-25
4.06044E-02 1.06620E-25
4.14700E-02 1.01740E-25
4.23443E-02 9.71243E-26
4.32273E-02 9.27556E-26
4.41190E-02 8.86186E-26
4.50194E-02 8.46993E-26
4.59284E-02 8.09841E-26
4.68461E-02 7.74609E-26
4.87074E-02 7.09446E-26
5.06030E-02 6.50674E-26
5.25328E-02 5.97571E-26
5.44967E-02 5.49508E-26
5.64946E-02 5.05934E-26
5.85262E-02 4.66367E-26
6.05914E-02 4.30384E-26
6.26901E-02 3.97611E-26
6.48222E-02 3.67721E-26
6.69873E-02 3.40422E-26
6.91854E-02 3.15456E-26
7.14163E-02 2.92596E-26
7.36799E-02 2.71639E-26
7.59760E-02 2.52402E-26
7.83043E-02 2.34725E-26
8.06647E-02 2.18463E-26
8.30571E-02 2.03487E-26
8.54812E-02 1.89682E-26
8.79369E-02 1.76942E-26
9.04240E-02 1.65175E-26
9.29422E-02 1.54295E-26
9.54915E-02 1.44228E-26
9.80716E-02 1.34903E-26
1.00682E-01 1.26260E-26
1.03323E-01 1.18241E-26
1.05995E-01 1.10795E-26
1.08696E-01 1.03877E-26
1.11427E-01 9.74441E-27
1.14188E-01 9.14576E-27
1.16978E-01 8.58828E-27
1.19797E-01 8.06879E-27
1.22645E-01 7.58437E-27
1.25522E-01 7.13237E-27
1.28428E-01 6.71034E-27
1.31361E-01 6.31607E-27
1.34323E-01 5.94750E-27
1.37313E-01 5.60277E-27
1.40330E-01 5.28014E-27
1.43375E-01 4.97805E-27
1.46447E-01 4.69502E-27
1.49545E-01 4.42973E-27
1.52671E-01 4.18093E-27
1.55823E-01 3.94749E-27
1.59001E-01 3.72835E-27
1.62205E-01 3.52254E-27
1.65435E-01 3.32916E-27
1.68690E-01 3.14739E-27
1.71970E-01 2.97646E-27
1.75276E-01 2.81564E-27
1.78606E-01 2.66428E-27
1.81961E-01 2.52177E-27
1.85340E-01 2.38754E-27
1.88743E-01 2.26106E-27
1.92169E-01 2.14184E-27
1.95619E-01 2.02942E-27
1.99092E-01 1.92337E-27
2.02589E-01 1.82331E-27
2.06107E-01 1.72886E-27
2.09649E-01 1.63968E-27
2.13212E-01 1.55545E-27
2.16797E-01 1.47587E-27
2.20404E-01 1.40066E-27
2.24032E-01 1.32956E-27
2.27680E-01 1.26232E-27
2.31350E-01 1.19872E-27
2.35040E-01 1.13855E-27
2.38751E-01 1.08160E-27
2.42481E-01 1.02769E-27
2.46231E-01 9.76642E-28
2.50000E-01 9.28294E-28
2.53788E-01 8.82491E-28
2.57595E-01 8.39090E-28
2.61421E-01 7.97954E-28
2.65264E-01 7.58957E-28
2.69126E-01 7.21979E-28
2.73005E-01 6.86909E-28
2.76901E-01 6.53640E-28
2.80814E-01 6.22074E-28
2.84744E-01 5.92118E-28
2.88691E-01 5.63683E-28
2.92653E-01 5.36688E-28
2.96632E-01 5.11055E-28
3.00625E-01 4.86710E-28
3.04634E-01 4.63585E-28
3.08658E-01 4.41614E-28
3.12697E-01 4.20737E-28
3.16749E-01 4.00896E-28
3.20816E-01 3.82035E-28
3.24896E-01 3.64105E-28
3.28990E-01 3.47055E-28
3.33097E-01 3.30841E-28
3.37216E-01 3.15419E-28
3.41348E-01 3.00749E-28
3.45492E-01 2.86791E-28
3.49647E-01 2.73509E-28
3.53814E-01 2.60869E-28
3.57992E-01 2.48837E-28
3.62181E-01 2.37384E-28
3.66381E-01 2.26480E-28
3.70590E-01 2.16097E-28
3.74810E-01 2.06209E-28
3.79039E-01 1.96791E-28
3.83277E-01 1.87821E-28
3.87524E-01 1.79275E-28
3.91780E-01 1.71132E-28
3.96044E-01 1.63373E-28
4.00316E-01 1.55979E-28
4.04596E-01 1.48932E-28
4.08882E-01 1.42215E-28
4.13176E-01 1.35811E-28
4.17476E-01 1.29706E-28
4.21783E-01 1.23885E-28
4.26095E-01 1.18334E-28
4.30413E-01 1.13040E-28
4.34737E-01 1.07990E-28
4.39065E-01 1.03174E-28
4.43398E-01 9.85796E-29
4.47736E-01 9.41963E-29
4.52077E-01 9.00140E-29
4.56422E-01 8.60233E-29
4.60770E-01 8.22149E-29
4.65122E-01 7.85803E-29
4.69476E-01 7.51113E-29
4.73832E-01 7.18000E-29
4.78190E-01 6.86389E-29
4.82550E-01 6.56212E-29
4.86912E-01 6.27399E-29
4.91274E-01 5.99887E-29
4.95637E-01 5.73616E-29
5.00000E-01 5.48528E-29
5.04363E-01 5.24567E-29
5.08726E-01 5.01682E-29
5.13088E-01 4.79822E-29
5.17450E-01 4.58940E-29
5.21810E-01 4.38991E-29
5.26168E-01 4.19932E-29
5.30524E-01 4.01721E-29
5.34878E-01 3.84321E-29
5.39230E-01 3.67694E-29
5.43578E-01 3.51804E-29
5.47923E-01 3.36618E-29
5.52264E-01 3.22103E-29
5.56602E-01 3.08230E-29
5.60935E-01 2.94968E-29
5.65263E-01 2.82291E-29
5.69587E-01 2.70172E-29
5.73905E-01 2.58584E-29
5.78217E-01 2.47506E-29
5.82524E-01 2.36913E-29
5.86824E-01 2.26783E-29
5.91118E-01 2.17096E-29
5.95404E-01 2.07833E-29
5.99684E-01 1.98973E-29
6.03956E-01 1.90499E-29
6.08220E-01 1.82393E-29
6.12476E-01 1.74640E-29
6.16723E-01 1.67223E-29
6.20961E-01 1.60128E-29
6.25190E-01 1.53340E-29
6.29410E-01 1.46845E-29
6.33619E-01 1.40631E-29
6.37819E-01 1.34685E-29
6.42008E-01 1.28995E-29
6.46186E-01 1.23550E-29
6.50353E-01 1.18339E-29
6.54508E-01 1.13352E-29
6.58652E-01 1.08579E-29
6.62784E-01 1.04010E-29
6.66903E-01 9.96371E-30
6.71010E-01 9.54511E-30
6.75104E-01 9.14438E-30
6.79184E-01 8.76075E-30
6.83251E-01 8.39347E-30
6.87303E-01 8.04182E-30
6.91342E-01 7.70513E-30
6.95366E-01 7.38275E-30
6.99375E-01 7.07404E-30
7.03368E-01 6.77842E-30
7.07347E-01 6.49532E-30
7.11309E-01 6.22420E-30
7.15256E-01 5.96453E-30
7.19186E-01 5.71583E-30
7.23099E-01 5.47762E-30
7.26995E-01 5.24944E-30
7.30874E-01 5.03086E-30
7.34736E-01 4.82148E-30
7.38579E-01 4.62089E-30
7.42405E-01 4.42871E-30
7.46212E-01 4.24459E-30
7.50000E-01 4.06818E-30
7.53769E-01 3.89915E-30
7.57519E-01 3.73719E-30
7.61249E-01 3.58199E-30
7.64960E-01 3.43326E-30
7.68650E-01 3.29072E-30
7.72320E-01 3.15412E-30
7.75968E-01 3.02320E-30
7.79596E-01 2.89772E-30
7.83203E-01 2.77745E-30
7.86788E-01 2.66216E-30
7.90351E-01 2.55165E-30
7.93893E-01 2.44572E-30
7.97411E-01 2.34416E-30
8.00908E-01 2.24680E-30
8.04381E-01 2.15345E-30
8.07831E-01 2.06396E-30
8.11257E-01 1.97815E-30
8.14660E-01 1.89587E-30
8.18039E-01 1.81697E-30
8.21394E-01 1.74132E-30
8.24724E-01 1.66877E-30
8.28030E-01 1.59919E-30
8.31310E-01 1.53246E-30
8.34565E-01 1.46846E-30
8.37795E-01 1.40709E-30
8.40999E-01 1.34821E-30
8.44177E-01 1.29174E-30
8.47329E-01 1.23758E-30
8.50455E-01 1.18562E-30
8.53553E-01 1.13577E-30
8.56625E-01 1.08796E-30
8.59670E-01 1.04208E-30
8.62687E-01 9.98073E-31
8.65677E-01 9.55848E-31
8.68639E-01 9.15335E-31
8.71572E-01 8.76464E-31
8.74478E-01 8.39167E-31
8.77355E-01 8.03378E-31
8.80203E-01 7.69036E-31
8.83022E-01 7.36081E-31
8.85812E-01 7.04457E-31
8.88573E-01 6.74109E-31
8.91304E-01 6.44985E-31
8.94005E-01 6.17034E-31
8.96677E-01 5.90209E-31
8.99318E-01 5.64463E-31
9.01928E-01 5.39754E-31
9.04508E-01 5.16038E-31
9.07058E-01 4.93276E-31
9.09576E-01 4.71428E-31
9.12063E-01 4.50459E-31
9.14519E-01 4.30331E-31
9.16943E-01 4.11012E-31
9.19335E-01 3.92468E-31
9.21696E-01 3.74669E-31
9.24024E-01 3.57585E-31
9.26320E-01 3.41187E-31
9.28584E-01 3.25447E-31
9.30815E-01 3.10340E-31
9.33013E-01 2.95840E-31
9.35178E-01 2.81922E-31
9.37310E-01 2.68565E-31
9.39409E-01 2.55746E-31
9.41474E-01 2.43443E-31
9.43505E-01 2.31636E-31
9.45503E-01 2.20306E-31
9.47467E-01 2.09434E-31
9.49397E-01 1.99003E-31
9.51293E-01 1.88995E-31
9.53154E-01 1.79393E-31
9.54981E-01 1.70183E-31
9.56773E-01 1.61348E-31
9.58530E-01 1.52876E-31
9.60252E-01 1.44751E-31
9.61940E-01 1.36961E-31
9.63592E-01 1.29493E-31
9.65209E-01 1.22335E-31
9.66790E-01 1.15476E-31
9.68336E-01 1.08904E-31
9.69846E-01 1.02608E-31
9.71321E-01 9.65798E-32
9.72759E-01 9.08083E-32
9.74162E-01 8.52844E-32
9.75528E-01 7.99995E-32
9.76858E-01 7.49449E-32
9.78152E-01 7.01128E-32
9.79410E-01 6.54954E-32
9.80631E-01 6.10853E-32
9.81815E-01 5.68756E-32
9.82963E-01 5.28594E-32
9.84074E-01 4.90306E-32
9.85148E-01 4.53831E-32
9.86185E-01 4.19109E-32
9.87185E-01 3.86087E-32
9.88148E-01 3.54713E-32
9.89074E-01 3.24936E-32
9.89962E-01 2.96712E-32
9.90814E-01 2.69992E-32
9.91627E-01 2.44740E-32
9.92404E-01 2.20912E-32
9.93143E-01 1.98471E-32
9.93844E-01 1.77383E-32
9.94508E-01 1.57615E-32
9.95134E-01 1.39136E-32
9.95722E-01 1.21918E-32
9.96273E-01 1.05931E-32
9.96786E-01 9.11536E-33
9.97261E-01 7.75604E-33
9.97698E-01 6.51310E-33
9.98097E-01 5.38468E-33
9.98459E-01 4.36889E-33
9.98782E-01 3.46425E-33
9.99067E-01 2.66932E-33
9.99315E-01 1.98284E-33
9.99524E-01 1.40381E-33
9.99695E-01 9.31237E-34
9.99829E-01 5.64450E-34
9.99924E-01 3.02853E-34
9.99981E-01 1.46062E-34
1.00000E+00 9.38516E-35
