 #
 # Subroutine ELSEPA. Elastic scattering of electrons and positrons
 #                    by neutral atoms and positive ions
 #
 # Projectile: positron
 # Kinetic energy = 1.50000E+08 eV = 5.51240E+06 a.u.
 #
 # WARNING: High-energy factorization with free-atom DF screening.
 #          Absorption, polarization and exchange corrections are
 #          switched off.
 #          Phase shifts are calculated for the bare nucleus.
 #          Scattering amplitudes are not evaluated.
 #
 # Element: Sc,  Z =  21,  atomic weight = 4.49559E+01 g/mol
 #
 # Nuclear model: Fermi distribution
 #                Average radius = 3.80463E-13 cm
 #                Skin thickness = 5.46000E-14 cm
 #
 # Number of electrons = 21
 #
 # Total elastic cross section = 1.86638E-18 cm**2 = 6.66498E-02 a0**2
 # 1st transport cross section = 4.06327E-26 cm**2 = 1.45102E-09 a0**2
 # 2nd transport cross section = 1.21211E-25 cm**2 = 4.32853E-09 a0**2
 #
 #
 # Differential cross section:                       MU=(1-COS(THETA))/2
 #
 #  THETA        MU          DCS          DCS        Sherman      error
 #  (deg)                 (cm**2/sr)   (a0**2/sr)    function
 #----------------------------------------------------------------------
0.00000E+00 7.47950E-10
7.61557E-13 7.39992E-10
1.18994E-12 7.35573E-10
1.71346E-12 7.30227E-10
2.33225E-12 7.23982E-10
3.04617E-12 7.16876E-10
3.85530E-12 7.08947E-10
4.75964E-12 7.00240E-10
5.75917E-12 6.90801E-10
6.85391E-12 6.80680E-10
8.04379E-12 6.69930E-10
9.32893E-12 6.58603E-10
1.07092E-11 6.46769E-10
1.21847E-11 6.34477E-10
1.37554E-11 6.21755E-10
1.54213E-11 6.08658E-10
1.71823E-11 5.95309E-10
1.90386E-11 5.81709E-10
2.09900E-11 5.67888E-10
2.30367E-11 5.53910E-10
2.51785E-11 5.39912E-10
2.74156E-11 5.25830E-10
2.97478E-11 5.11705E-10
3.21752E-11 4.97651E-10
3.46979E-11 4.83708E-10
3.73157E-11 4.69830E-10
4.00286E-11 4.56047E-10
4.28368E-11 4.42535E-10
4.57402E-11 4.29199E-10
4.87388E-11 4.16032E-10
5.18325E-11 4.03091E-10
5.50215E-11 3.90512E-10
5.83057E-11 3.78151E-10
6.16850E-11 3.66025E-10
6.51595E-11 3.54249E-10
6.87293E-11 3.42814E-10
7.23943E-11 3.31635E-10
7.61544E-11 3.20720E-10
1.18991E-10 2.29587E-10
1.71347E-10 1.66288E-10
2.33223E-10 1.23386E-10
3.04617E-10 9.40949E-11
3.85531E-10 7.35772E-11
4.75965E-10 5.87226E-11
5.75917E-10 4.76206E-11
6.85389E-10 3.90821E-11
8.04380E-10 3.23588E-11
9.32891E-10 2.69783E-11
1.07092E-09 2.24882E-11
1.21847E-09 1.87966E-11
1.37554E-09 1.59109E-11
1.54213E-09 1.36261E-11
1.71823E-09 1.15743E-11
1.90386E-09 9.87133E-12
2.09900E-09 8.49448E-12
2.30367E-09 7.35785E-12
2.51785E-09 6.34432E-12
2.74156E-09 5.50863E-12
2.97478E-09 4.81428E-12
3.21752E-09 4.21975E-12
3.46978E-09 3.70669E-12
3.73156E-09 3.27315E-12
4.00286E-09 2.90465E-12
4.28368E-09 2.58370E-12
4.57402E-09 2.30717E-12
4.87388E-09 2.06875E-12
5.18326E-09 1.86178E-12
5.50215E-09 1.68004E-12
5.83057E-09 1.52135E-12
6.16850E-09 1.38222E-12
6.51596E-09 1.25918E-12
6.87293E-09 1.15007E-12
7.23942E-09 1.05342E-12
7.61544E-09 9.67527E-13
1.18991E-08 4.58088E-13
1.71347E-08 2.46874E-13
2.33223E-08 1.43824E-13
3.04617E-08 8.85499E-14
3.85531E-08 5.70242E-14
4.75965E-08 3.81859E-14
5.75917E-08 2.64527E-14
6.85389E-08 1.88776E-14
8.04380E-08 1.38271E-14
9.32891E-08 1.03605E-14
1.07092E-07 7.91757E-15
1.21847E-07 6.15877E-15
1.37554E-07 4.86353E-15
1.54213E-07 3.89363E-15
1.71823E-07 3.15533E-15
1.90386E-07 2.58421E-15
2.09900E-07 2.13725E-15
2.30367E-07 1.78332E-15
2.51785E-07 1.49967E-15
2.74156E-07 1.27035E-15
2.97478E-07 1.08336E-15
3.21752E-07 9.29486E-16
3.46978E-07 8.01959E-16
3.73156E-07 6.95609E-16
4.00286E-07 6.06287E-16
4.28368E-07 5.30802E-16
4.57402E-07 4.66716E-16
4.87388E-07 4.12005E-16
5.18325E-07 3.65037E-16
5.50215E-07 3.24576E-16
5.83057E-07 2.89566E-16
6.16850E-07 2.59119E-16
6.51596E-07 2.32571E-16
6.87293E-07 2.09335E-16
7.23942E-07 1.88913E-16
7.61543E-07 1.70919E-16
1.18991E-06 7.05607E-17
1.71347E-06 3.41571E-17
2.33223E-06 1.84734E-17
3.04617E-06 1.08404E-17
3.85531E-06 6.77180E-18
4.75964E-06 4.44458E-18
5.75916E-06 3.03634E-18
6.85388E-06 2.14411E-18
8.04378E-06 1.55677E-18
9.32888E-06 1.15742E-18
1.07092E-05 8.78285E-19
1.21846E-05 6.78434E-19
1.37553E-05 5.32320E-19
1.54212E-05 4.23502E-19
1.71822E-05 3.41117E-19
1.90385E-05 2.77808E-19
2.09899E-05 2.28552E-19
2.30365E-05 1.89740E-19
2.51783E-05 1.58822E-19
2.74153E-05 1.33948E-19
2.97475E-05 1.13755E-19
3.21749E-05 9.72269E-20
3.46974E-05 8.35945E-20
3.73152E-05 7.22704E-20
4.00281E-05 6.28011E-20
4.28362E-05 5.48333E-20
4.57395E-05 4.80898E-20
4.87380E-05 4.23512E-20
5.18317E-05 3.74431E-20
5.50205E-05 3.32253E-20
5.83045E-05 2.95847E-20
6.16838E-05 2.64292E-20
6.51582E-05 2.36835E-20
6.87277E-05 2.12852E-20
7.23925E-05 1.91831E-20
7.61524E-05 1.73291E-20
9.21439E-05 1.18308E-20
1.09658E-04 8.34938E-21
1.28695E-04 6.05907E-21
1.49255E-04 4.50249E-21
1.71338E-04 3.41497E-21
1.94942E-04 2.63665E-21
2.20070E-04 2.06781E-21
2.46720E-04 1.64432E-21
2.74892E-04 1.32381E-21
3.04586E-04 1.07766E-21
3.35803E-04 8.86090E-22
3.68542E-04 7.35214E-22
4.02802E-04 6.15088E-22
4.38585E-04 5.18492E-22
4.75889E-04 4.40110E-22
5.14715E-04 3.75972E-22
5.55063E-04 3.23086E-22
5.96931E-04 2.79163E-22
6.40321E-04 2.42444E-22
6.85233E-04 2.11556E-22
7.31665E-04 1.85424E-22
7.79618E-04 1.63196E-22
8.29092E-04 1.44193E-22
8.80086E-04 1.27870E-22
9.32601E-04 1.13787E-22
9.86636E-04 1.01585E-22
1.04219E-03 9.09708E-23
1.09927E-03 8.17030E-23
1.15786E-03 7.35821E-23
1.21797E-03 6.64421E-23
1.27961E-03 6.01444E-23
1.34276E-03 5.45726E-23
1.40743E-03 4.96288E-23
1.47362E-03 4.52301E-23
1.54133E-03 4.13060E-23
1.61056E-03 3.77965E-23
1.68131E-03 3.46501E-23
1.75357E-03 3.18228E-23
1.82735E-03 2.92767E-23
1.90265E-03 2.69788E-23
1.97947E-03 2.49008E-23
2.05780E-03 2.30179E-23
2.13765E-03 2.13086E-23
2.21902E-03 1.97541E-23
2.30190E-03 1.83379E-23
2.38630E-03 1.70456E-23
2.47222E-03 1.58643E-23
2.55965E-03 1.47829E-23
2.64859E-03 1.37914E-23
2.73905E-03 1.28811E-23
2.83103E-03 1.20440E-23
2.92452E-03 1.12733E-23
3.01952E-03 1.05628E-23
3.11604E-03 9.90692E-24
3.21407E-03 9.30071E-24
3.31362E-03 8.73975E-24
3.41468E-03 8.22006E-24
3.51725E-03 7.73806E-24
3.62133E-03 7.29054E-24
3.72692E-03 6.87458E-24
3.83403E-03 6.48756E-24
3.94265E-03 6.12711E-24
4.05278E-03 5.79107E-24
4.16442E-03 5.47750E-24
4.27757E-03 5.18463E-24
4.39223E-03 4.91084E-24
4.50840E-03 4.65467E-24
4.62608E-03 4.41478E-24
4.74527E-03 4.18996E-24
4.86597E-03 3.97908E-24
4.98817E-03 3.78112E-24
5.11188E-03 3.59516E-24
5.23711E-03 3.42033E-24
5.36383E-03 3.25585E-24
5.49207E-03 3.10099E-24
5.62181E-03 2.95510E-24
5.75306E-03 2.81756E-24
5.88581E-03 2.68780E-24
6.02007E-03 2.56531E-24
6.15583E-03 2.44960E-24
6.29310E-03 2.34024E-24
6.43187E-03 2.23681E-24
6.57214E-03 2.13893E-24
6.71392E-03 2.04626E-24
6.85720E-03 1.95846E-24
7.00198E-03 1.87523E-24
7.14827E-03 1.79630E-24
7.29605E-03 1.72139E-24
7.44534E-03 1.65028E-24
7.59612E-03 1.58272E-24
7.97965E-03 1.42808E-24
8.37255E-03 1.29151E-24
8.77480E-03 1.17056E-24
9.18641E-03 1.06314E-24
9.60736E-03 9.67492E-25
1.00376E-02 8.82118E-25
1.04773E-02 8.05732E-25
1.09262E-02 7.37232E-25
1.13844E-02 6.75671E-25
1.18520E-02 6.20231E-25
1.23288E-02 5.70204E-25
1.28150E-02 5.24974E-25
1.33104E-02 4.84007E-25
1.38150E-02 4.46835E-25
1.43290E-02 4.13050E-25
1.48521E-02 3.82292E-25
1.53845E-02 3.54246E-25
1.59262E-02 3.28634E-25
1.64770E-02 3.05211E-25
1.70371E-02 2.83759E-25
1.76063E-02 2.64086E-25
1.81848E-02 2.46021E-25
1.87724E-02 2.29411E-25
1.93692E-02 2.14119E-25
1.99751E-02 2.00026E-25
2.05901E-02 1.87021E-25
2.12143E-02 1.75008E-25
2.18476E-02 1.63898E-25
2.24900E-02 1.53614E-25
2.31415E-02 1.44084E-25
2.38021E-02 1.35244E-25
2.44717E-02 1.27036E-25
2.51504E-02 1.19409E-25
2.58382E-02 1.12314E-25
2.65349E-02 1.05709E-25
2.72407E-02 9.95550E-26
2.79555E-02 9.38162E-26
2.86793E-02 8.84605E-26
2.94120E-02 8.34583E-26
3.01537E-02 7.87829E-26
3.09043E-02 7.44096E-26
3.16639E-02 7.03160E-26
3.24324E-02 6.64816E-26
3.32098E-02 6.28874E-26
3.39961E-02 5.95163E-26
3.47912E-02 5.63524E-26
3.55952E-02 5.33810E-26
3.64081E-02 5.05888E-26
3.72297E-02 4.79634E-26
3.80602E-02 4.54934E-26
3.88995E-02 4.31682E-26
3.97476E-02 4.09783E-26
4.06044E-02 3.89145E-26
4.14700E-02 3.69687E-26
4.23443E-02 3.51331E-26
4.32273E-02 3.34007E-26
4.41190E-02 3.17648E-26
4.50194E-02 3.02194E-26
4.59284E-02 2.87587E-26
4.68461E-02 2.73775E-26
4.87074E-02 2.48342E-26
5.06030E-02 2.25543E-26
5.25328E-02 2.05072E-26
5.44967E-02 1.86662E-26
5.64946E-02 1.70081E-26
5.85262E-02 1.55127E-26
6.05914E-02 1.41620E-26
6.26901E-02 1.29405E-26
6.48222E-02 1.18346E-26
6.69873E-02 1.08319E-26
6.91854E-02 9.92194E-27
7.14163E-02 9.09514E-27
7.36799E-02 8.34315E-27
7.59760E-02 7.65849E-27
7.83043E-02 7.03455E-27
8.06647E-02 6.46540E-27
8.30571E-02 5.94578E-27
8.54812E-02 5.47098E-27
8.79369E-02 5.03678E-27
9.04240E-02 4.63938E-27
9.29422E-02 4.27541E-27
9.54915E-02 3.94182E-27
9.80716E-02 3.63584E-27
1.00682E-01 3.35502E-27
1.03323E-01 3.09713E-27
1.05995E-01 2.86014E-27
1.08696E-01 2.64223E-27
1.11427E-01 2.44176E-27
1.14188E-01 2.25724E-27
1.16978E-01 2.08730E-27
1.19797E-01 1.93072E-27
1.22645E-01 1.78639E-27
1.25522E-01 1.65327E-27
1.28428E-01 1.53045E-27
1.31361E-01 1.41709E-27
1.34323E-01 1.31242E-27
1.37313E-01 1.21572E-27
1.40330E-01 1.12638E-27
1.43375E-01 1.04378E-27
1.46447E-01 9.67412E-28
1.49545E-01 8.96772E-28
1.52671E-01 8.31412E-28
1.55823E-01 7.70922E-28
1.59001E-01 7.14923E-28
1.62205E-01 6.63070E-28
1.65435E-01 6.15042E-28
1.68690E-01 5.70549E-28
1.71970E-01 5.29320E-28
1.75276E-01 4.91109E-28
1.78606E-01 4.55688E-28
1.81961E-01 4.22847E-28
1.85340E-01 3.92393E-28
1.88743E-01 3.64148E-28
1.92169E-01 3.37948E-28
1.95619E-01 3.13642E-28
1.99092E-01 2.91089E-28
2.02589E-01 2.70161E-28
2.06107E-01 2.50739E-28
2.09649E-01 2.32712E-28
2.13212E-01 2.15979E-28
2.16797E-01 2.00445E-28
2.20404E-01 1.86024E-28
2.24032E-01 1.72634E-28
2.27680E-01 1.60203E-28
2.31350E-01 1.48659E-28
2.35040E-01 1.37940E-28
2.38751E-01 1.27986E-28
2.42481E-01 1.18742E-28
2.46231E-01 1.10159E-28
2.50000E-01 1.02187E-28
2.53788E-01 9.47842E-29
2.57595E-01 8.79095E-29
2.61421E-01 8.15253E-29
2.65264E-01 7.55968E-29
2.69126E-01 7.00916E-29
2.73005E-01 6.49796E-29
2.76901E-01 6.02330E-29
2.80814E-01 5.58258E-29
2.84744E-01 5.17339E-29
2.88691E-01 4.79351E-29
2.92653E-01 4.44086E-29
2.96632E-01 4.11351E-29
3.00625E-01 3.80967E-29
3.04634E-01 3.52767E-29
3.08658E-01 3.26598E-29
3.12697E-01 3.02314E-29
3.16749E-01 2.79783E-29
3.20816E-01 2.58881E-29
3.24896E-01 2.39492E-29
3.28990E-01 2.21509E-29
3.33097E-01 2.04832E-29
3.37216E-01 1.89369E-29
3.41348E-01 1.75033E-29
3.45492E-01 1.61743E-29
3.49647E-01 1.49427E-29
3.53814E-01 1.38014E-29
3.57992E-01 1.27439E-29
3.62181E-01 1.17644E-29
3.66381E-01 1.08572E-29
3.70590E-01 1.00171E-29
3.74810E-01 9.23943E-30
3.79039E-01 8.51958E-30
3.83277E-01 7.85344E-30
3.87524E-01 7.23714E-30
3.91780E-01 6.66708E-30
3.96044E-01 6.13992E-30
4.00316E-01 5.65255E-30
4.04596E-01 5.20209E-30
4.08882E-01 4.78585E-30
4.13176E-01 4.40133E-30
4.17476E-01 4.04623E-30
4.21783E-01 3.71838E-30
4.26095E-01 3.41580E-30
4.30413E-01 3.13661E-30
4.34737E-01 2.87909E-30
4.39065E-01 2.64165E-30
4.43398E-01 2.42278E-30
4.47736E-01 2.22112E-30
4.52077E-01 2.03537E-30
4.56422E-01 1.86434E-30
4.60770E-01 1.70694E-30
4.65122E-01 1.56213E-30
4.69476E-01 1.42896E-30
4.73832E-01 1.30655E-30
4.78190E-01 1.19408E-30
4.82550E-01 1.09079E-30
4.86912E-01 9.95972E-31
4.91274E-01 9.08983E-31
4.95637E-01 8.29212E-31
5.00000E-01 7.56099E-31
5.04363E-01 6.89126E-31
5.08726E-01 6.27811E-31
5.13088E-01 5.71710E-31
5.17450E-01 5.20409E-31
5.21810E-01 4.73528E-31
5.26168E-01 4.30714E-31
5.30524E-01 3.91640E-31
5.34878E-01 3.56004E-31
5.39230E-01 3.23528E-31
5.43578E-01 2.93954E-31
5.47923E-01 2.67043E-31
5.52264E-01 2.42575E-31
5.56602E-01 2.20347E-31
5.60935E-01 2.00172E-31
5.65263E-01 1.81878E-31
5.69587E-01 1.65303E-31
5.73905E-01 1.50302E-31
5.78217E-01 1.36739E-31
5.82524E-01 1.24489E-31
5.86824E-01 1.13437E-31
5.91118E-01 1.03478E-31
5.95404E-01 9.45146E-32
5.99684E-01 8.64569E-32
6.03956E-01 7.92229E-32
6.08220E-01 7.27374E-32
6.12476E-01 6.69310E-32
6.16723E-01 6.17403E-32
6.20961E-01 5.71071E-32
6.25190E-01 5.29780E-32
6.29410E-01 4.93043E-32
6.33619E-01 4.60411E-32
6.37819E-01 4.31478E-32
6.42008E-01 4.05869E-32
6.46186E-01 3.83244E-32
6.50353E-01 3.63293E-32
6.54508E-01 3.45733E-32
6.58652E-01 3.30306E-32
6.62784E-01 3.16778E-32
6.66903E-01 3.04937E-32
6.71010E-01 2.94588E-32
6.75104E-01 2.85558E-32
6.79184E-01 2.77688E-32
6.83251E-01 2.70835E-32
6.87303E-01 2.64870E-32
6.91342E-01 2.59675E-32
6.95366E-01 2.55148E-32
6.99375E-01 2.51193E-32
7.03368E-01 2.47726E-32
7.07347E-01 2.44673E-32
7.11309E-01 2.41965E-32
7.15256E-01 2.39543E-32
7.19186E-01 2.37354E-32
7.23099E-01 2.35351E-32
7.26995E-01 2.33494E-32
7.30874E-01 2.31744E-32
7.34736E-01 2.30071E-32
7.38579E-01 2.28447E-32
7.42405E-01 2.26848E-32
7.46212E-01 2.25254E-32
7.50000E-01 2.23647E-32
7.53769E-01 2.22013E-32
7.57519E-01 2.20339E-32
7.61249E-01 2.18616E-32
7.64960E-01 2.16834E-32
7.68650E-01 2.14988E-32
7.72320E-01 2.13073E-32
7.75968E-01 2.11086E-32
7.79596E-01 2.09023E-32
7.83203E-01 2.06885E-32
7.86788E-01 2.04670E-32
7.90351E-01 2.02380E-32
7.93893E-01 2.00015E-32
7.97411E-01 1.97578E-32
8.00908E-01 1.95070E-32
8.04381E-01 1.92495E-32
8.07831E-01 1.89855E-32
8.11257E-01 1.87155E-32
8.14660E-01 1.84397E-32
8.18039E-01 1.81586E-32
8.21394E-01 1.78725E-32
8.24724E-01 1.75819E-32
8.28030E-01 1.72871E-32
8.31310E-01 1.69887E-32
8.34565E-01 1.66870E-32
8.37795E-01 1.63823E-32
8.40999E-01 1.60752E-32
8.44177E-01 1.57660E-32
8.47329E-01 1.54552E-32
8.50455E-01 1.51431E-32
8.53553E-01 1.48300E-32
8.56625E-01 1.45164E-32
8.59670E-01 1.42026E-32
8.62687E-01 1.38889E-32
8.65677E-01 1.35756E-32
8.68639E-01 1.32631E-32
8.71572E-01 1.29517E-32
8.74478E-01 1.26416E-32
8.77355E-01 1.23332E-32
8.80203E-01 1.20266E-32
8.83022E-01 1.17221E-32
8.85812E-01 1.14199E-32
8.88573E-01 1.11203E-32
8.91304E-01 1.08235E-32
8.94005E-01 1.05295E-32
8.96677E-01 1.02387E-32
8.99318E-01 9.95114E-33
9.01928E-01 9.66700E-33
9.04508E-01 9.38641E-33
9.07058E-01 9.10951E-33
9.09576E-01 8.83641E-33
9.12063E-01 8.56720E-33
9.14519E-01 8.30201E-33
9.16943E-01 8.04090E-33
9.19335E-01 7.78396E-33
9.21696E-01 7.53125E-33
9.24024E-01 7.28283E-33
9.26320E-01 7.03876E-33
9.28584E-01 6.79908E-33
9.30815E-01 6.56384E-33
9.33013E-01 6.33304E-33
9.35178E-01 6.10674E-33
9.37310E-01 5.88495E-33
9.39409E-01 5.66767E-33
9.41474E-01 5.45492E-33
9.43505E-01 5.24671E-33
9.45503E-01 5.04302E-33
9.47467E-01 4.84386E-33
9.49397E-01 4.64921E-33
9.51293E-01 4.45907E-33
9.53154E-01 4.27341E-33
9.54981E-01 4.09222E-33
9.56773E-01 3.91548E-33
9.58530E-01 3.74315E-33
9.60252E-01 3.57523E-33
9.61940E-01 3.41166E-33
9.63592E-01 3.25244E-33
9.65209E-01 3.09751E-33
9.66790E-01 2.94685E-33
9.68336E-01 2.80044E-33
9.69846E-01 2.65821E-33
9.71321E-01 2.52015E-33
9.72759E-01 2.38620E-33
9.74162E-01 2.25634E-33
9.75528E-01 2.13053E-33
9.76858E-01 2.00872E-33
9.78152E-01 1.89088E-33
9.79410E-01 1.77697E-33
9.80631E-01 1.66694E-33
9.81815E-01 1.56077E-33
9.82963E-01 1.45840E-33
9.84074E-01 1.35981E-33
9.85148E-01 1.26495E-33
9.86185E-01 1.17378E-33
9.87185E-01 1.08628E-33
9.88148E-01 1.00240E-33
9.89074E-01 9.22121E-34
9.89962E-01 8.45387E-34
9.90814E-01 7.72184E-34
9.91627E-01 7.02463E-34
9.92404E-01 6.36203E-34
9.93143E-01 5.73378E-34
9.93844E-01 5.13950E-34
9.94508E-01 4.57897E-34
9.95134E-01 4.05190E-34
9.95722E-01 3.55804E-34
9.96273E-01 3.09720E-34
9.96786E-01 2.66910E-34
9.97261E-01 2.27358E-34
9.97698E-01 1.91043E-34
9.98097E-01 1.57943E-34
9.98459E-01 1.28050E-34
9.98782E-01 1.01341E-34
9.99067E-01 7.78054E-35
9.99315E-01 5.74336E-35
9.99524E-01 4.02110E-35
9.99695E-01 2.61342E-35
9.99829E-01 1.51924E-35
9.99924E-01 7.38140E-36
9.99981E-01 2.69621E-36
1.00000E+00 1.13362E-36
