 #
 # Subroutine ELSEPA. Elastic scattering of electrons and positrons
 #                    by neutral atoms and positive ions
 #
 # Projectile: positron
 # Kinetic energy = 5.00000E+06 eV = 1.83747E+05 a.u.
 #
 # WARNING: High-energy factorization with free-atom DF screening.
 #          Absorption, polarization and exchange corrections are
 #          switched off.
 #          Phase shifts are calculated for the bare nucleus.
 #          Scattering amplitudes are not evaluated.
 #
 # Element: Sc,  Z =  21,  atomic weight = 4.49559E+01 g/mol
 #
 # Nuclear model: Fermi distribution
 #                Average radius = 3.80463E-13 cm
 #                Skin thickness = 5.46000E-14 cm
 #
 # Number of electrons = 21
 #
 # Total elastic cross section = 1.88344E-18 cm**2 = 6.72590E-02 a0**2
 # 1st transport cross section = 2.12809E-23 cm**2 = 7.59955E-07 a0**2
 # 2nd transport cross section = 6.12952E-23 cm**2 = 2.18889E-06 a0**2
 #
 #
 # Differential cross section:                       MU=(1-COS(THETA))/2
 #
 #  THETA        MU          DCS          DCS        Sherman      error
 #  (deg)                 (cm**2/sr)   (a0**2/sr)    function
 #----------------------------------------------------------------------
0.00000E+00 1.00276E-12
7.61557E-13 1.00274E-12
1.18994E-12 1.00274E-12
1.71346E-12 1.00273E-12
2.33225E-12 1.00271E-12
3.04617E-12 1.00270E-12
3.85530E-12 1.00268E-12
4.75964E-12 1.00267E-12
5.75917E-12 1.00265E-12
6.85391E-12 1.00263E-12
8.04379E-12 1.00261E-12
9.32893E-12 1.00258E-12
1.07092E-11 1.00256E-12
1.21847E-11 1.00253E-12
1.37554E-11 1.00250E-12
1.54213E-11 1.00247E-12
1.71823E-11 1.00243E-12
1.90386E-11 1.00240E-12
2.09900E-11 1.00236E-12
2.30367E-11 1.00232E-12
2.51785E-11 1.00228E-12
2.74156E-11 1.00224E-12
2.97478E-11 1.00220E-12
3.21752E-11 1.00215E-12
3.46979E-11 1.00210E-12
3.73157E-11 1.00205E-12
4.00286E-11 1.00200E-12
4.28368E-11 1.00195E-12
4.57402E-11 1.00190E-12
4.87388E-11 1.00184E-12
5.18325E-11 1.00178E-12
5.50215E-11 1.00172E-12
5.83057E-11 1.00166E-12
6.16850E-11 1.00160E-12
6.51595E-11 1.00153E-12
6.87293E-11 1.00146E-12
7.23943E-11 1.00140E-12
7.61544E-11 1.00132E-12
1.18991E-10 1.00052E-12
1.71347E-10 9.99542E-13
2.33223E-10 9.98387E-13
3.04617E-10 9.97056E-13
3.85531E-10 9.95552E-13
4.75965E-10 9.93874E-13
5.75917E-10 9.92025E-13
6.85389E-10 9.90006E-13
8.04380E-10 9.87819E-13
9.32891E-10 9.85465E-13
1.07092E-09 9.82946E-13
1.21847E-09 9.80264E-13
1.37554E-09 9.77421E-13
1.54213E-09 9.74419E-13
1.71823E-09 9.71260E-13
1.90386E-09 9.67948E-13
2.09900E-09 9.64483E-13
2.30367E-09 9.60870E-13
2.51785E-09 9.57110E-13
2.74156E-09 9.53207E-13
2.97478E-09 9.49163E-13
3.21752E-09 9.44981E-13
3.46978E-09 9.40664E-13
3.73156E-09 9.36215E-13
4.00286E-09 9.31638E-13
4.28368E-09 9.26936E-13
4.57402E-09 9.22111E-13
4.87388E-09 9.17168E-13
5.18326E-09 9.12109E-13
5.50215E-09 9.06938E-13
5.83057E-09 9.01659E-13
6.16850E-09 8.96275E-13
6.51596E-09 8.90790E-13
6.87293E-09 8.85207E-13
7.23942E-09 8.79529E-13
7.61544E-09 8.73761E-13
1.18991E-08 8.11894E-13
1.71347E-08 7.44914E-13
2.33223E-08 6.76129E-13
3.04617E-08 6.08312E-13
3.85531E-08 5.43573E-13
4.75965E-08 4.83343E-13
5.75917E-08 4.28445E-13
6.85389E-08 3.79203E-13
8.04380E-08 3.35574E-13
9.32891E-08 2.97269E-13
1.07092E-07 2.63851E-13
1.21847E-07 2.34813E-13
1.37554E-07 2.09631E-13
1.54213E-07 1.87801E-13
1.71823E-07 1.68858E-13
1.90386E-07 1.52387E-13
2.09900E-07 1.38023E-13
2.30367E-07 1.25452E-13
2.51785E-07 1.14406E-13
2.74156E-07 1.04659E-13
2.97478E-07 9.60181E-14
3.21752E-07 8.83250E-14
3.46978E-07 8.14451E-14
3.73156E-07 7.52661E-14
4.00286E-07 6.96939E-14
4.28368E-07 6.46497E-14
4.57402E-07 6.00669E-14
4.87388E-07 5.58897E-14
5.18325E-07 5.20706E-14
5.50215E-07 4.85692E-14
5.83057E-07 4.53513E-14
6.16850E-07 4.23872E-14
6.51596E-07 3.96514E-14
6.87293E-07 3.71220E-14
7.23942E-07 3.47795E-14
7.61543E-07 3.26073E-14
1.18991E-06 1.76506E-14
1.71347E-06 1.00491E-14
2.33223E-06 6.02815E-15
3.04617E-06 3.81660E-15
3.85531E-06 2.54364E-15
4.75964E-06 1.77378E-15
5.75916E-06 1.28466E-15
6.85388E-06 9.59362E-16
8.04378E-06 7.34121E-16
9.32888E-06 5.72769E-16
1.07092E-05 4.53909E-16
1.21846E-05 3.64347E-16
1.37553E-05 2.95620E-16
1.54212E-05 2.42094E-16
1.71822E-05 1.99892E-16
1.90385E-05 1.66271E-16
2.09899E-05 1.39254E-16
2.30365E-05 1.17368E-16
2.51783E-05 9.95126E-17
2.74153E-05 8.48494E-17
2.97475E-05 7.27337E-17
3.21749E-05 6.26651E-17
3.46974E-05 5.42518E-17
3.73152E-05 4.71850E-17
4.00281E-05 4.12193E-17
4.28362E-05 3.61588E-17
4.57395E-05 3.18464E-17
4.87380E-05 2.81549E-17
5.18317E-05 2.49814E-17
5.50205E-05 2.22420E-17
5.83045E-05 1.98679E-17
6.16838E-05 1.78025E-17
6.51582E-05 1.59993E-17
6.87277E-05 1.44193E-17
7.23925E-05 1.30304E-17
7.61524E-05 1.18055E-17
9.21439E-05 8.14178E-18
1.09658E-04 5.80063E-18
1.28695E-04 4.24682E-18
1.49255E-04 3.18182E-18
1.71338E-04 2.43151E-18
1.94942E-04 1.89023E-18
2.20070E-04 1.49163E-18
2.46720E-04 1.19276E-18
2.74892E-04 9.65074E-19
3.04586E-04 7.89141E-19
3.35803E-04 6.51460E-19
3.68542E-04 5.42471E-19
4.02802E-04 4.55295E-19
4.38585E-04 3.84900E-19
4.75889E-04 3.27561E-19
5.14715E-04 2.80481E-19
5.55063E-04 2.41539E-19
5.96931E-04 2.09106E-19
6.40321E-04 1.81922E-19
6.85233E-04 1.59002E-19
7.31665E-04 1.39570E-19
7.79618E-04 1.23009E-19
8.29092E-04 1.08826E-19
8.80086E-04 9.66235E-20
9.32601E-04 8.60796E-20
9.86636E-04 7.69315E-20
1.04219E-03 6.89637E-20
1.09927E-03 6.19984E-20
1.15786E-03 5.58884E-20
1.21797E-03 5.05110E-20
1.27961E-03 4.57633E-20
1.34276E-03 4.15592E-20
1.40743E-03 3.78257E-20
1.47362E-03 3.45012E-20
1.54133E-03 3.15331E-20
1.61056E-03 2.88767E-20
1.68131E-03 2.64935E-20
1.75357E-03 2.43506E-20
1.82735E-03 2.24196E-20
1.90265E-03 2.06757E-20
1.97947E-03 1.90978E-20
2.05780E-03 1.76672E-20
2.13765E-03 1.63678E-20
2.21902E-03 1.51854E-20
2.30190E-03 1.41076E-20
2.38630E-03 1.31235E-20
2.47222E-03 1.22236E-20
2.55965E-03 1.13993E-20
2.64859E-03 1.06431E-20
2.73905E-03 9.94854E-21
2.83103E-03 9.30955E-21
2.92452E-03 8.72093E-21
3.01952E-03 8.17799E-21
3.11604E-03 7.67654E-21
3.21407E-03 7.21286E-21
3.31362E-03 6.78358E-21
3.41468E-03 6.38568E-21
3.51725E-03 6.01647E-21
3.62133E-03 5.67349E-21
3.72692E-03 5.35454E-21
3.83403E-03 5.05764E-21
3.94265E-03 4.78098E-21
4.05278E-03 4.52294E-21
4.16442E-03 4.28202E-21
4.27757E-03 4.05690E-21
4.39223E-03 3.84633E-21
4.50840E-03 3.64922E-21
4.62608E-03 3.46454E-21
4.74527E-03 3.29136E-21
4.86597E-03 3.12884E-21
4.98817E-03 2.97620E-21
5.11188E-03 2.83273E-21
5.23711E-03 2.69778E-21
5.36383E-03 2.57074E-21
5.49207E-03 2.45108E-21
5.62181E-03 2.33828E-21
5.75306E-03 2.23187E-21
5.88581E-03 2.13143E-21
6.02007E-03 2.03656E-21
6.15583E-03 1.94689E-21
6.29310E-03 1.86209E-21
6.43187E-03 1.78185E-21
6.57214E-03 1.70586E-21
6.71392E-03 1.63387E-21
6.85720E-03 1.56563E-21
7.00198E-03 1.50090E-21
7.14827E-03 1.43947E-21
7.29605E-03 1.38115E-21
7.44534E-03 1.32573E-21
7.59612E-03 1.27306E-21
7.97965E-03 1.15235E-21
8.37255E-03 1.04557E-21
8.77480E-03 9.50840E-22
9.18641E-03 8.66562E-22
9.60736E-03 7.91387E-22
1.00376E-02 7.24161E-22
1.04773E-02 6.63900E-22
1.09262E-02 6.09756E-22
1.13844E-02 5.61000E-22
1.18520E-02 5.17003E-22
1.23288E-02 4.77219E-22
1.28150E-02 4.41175E-22
1.33104E-02 4.08456E-22
1.38150E-02 3.78703E-22
1.43290E-02 3.51599E-22
1.48521E-02 3.26866E-22
1.53845E-02 3.04261E-22
1.59262E-02 2.83569E-22
1.64770E-02 2.64597E-22
1.70371E-02 2.47179E-22
1.76063E-02 2.31164E-22
1.81848E-02 2.16419E-22
1.87724E-02 2.02826E-22
1.93692E-02 1.90278E-22
1.99751E-02 1.78680E-22
2.05901E-02 1.67948E-22
2.12143E-02 1.58006E-22
2.18476E-02 1.48785E-22
2.24900E-02 1.40223E-22
2.31415E-02 1.32265E-22
2.38021E-02 1.24860E-22
2.44717E-02 1.17963E-22
2.51504E-02 1.11534E-22
2.58382E-02 1.05534E-22
2.65349E-02 9.99291E-23
2.72407E-02 9.46896E-23
2.79555E-02 8.97869E-23
2.86793E-02 8.51954E-23
2.94120E-02 8.08918E-23
3.01537E-02 7.68548E-23
3.09043E-02 7.30649E-23
3.16639E-02 6.95041E-23
3.24324E-02 6.61562E-23
3.32098E-02 6.30061E-23
3.39961E-02 6.00400E-23
3.47912E-02 5.72451E-23
3.55952E-02 5.46099E-23
3.64081E-02 5.21234E-23
3.72297E-02 4.97758E-23
3.80602E-02 4.75580E-23
3.88995E-02 4.54613E-23
3.97476E-02 4.34780E-23
4.06044E-02 4.16009E-23
4.14700E-02 3.98232E-23
4.23443E-02 3.81387E-23
4.32273E-02 3.65416E-23
4.41190E-02 3.50265E-23
4.50194E-02 3.35885E-23
4.59284E-02 3.22229E-23
4.68461E-02 3.09254E-23
4.87074E-02 2.85190E-23
5.06030E-02 2.63402E-23
5.25328E-02 2.43637E-23
5.44967E-02 2.25675E-23
5.64946E-02 2.09324E-23
5.85262E-02 1.94413E-23
6.05914E-02 1.80794E-23
6.26901E-02 1.68335E-23
6.48222E-02 1.56921E-23
6.69873E-02 1.46447E-23
6.91854E-02 1.36824E-23
7.14163E-02 1.27970E-23
7.36799E-02 1.19813E-23
7.59760E-02 1.12288E-23
7.83043E-02 1.05338E-23
8.06647E-02 9.89107E-24
8.30571E-02 9.29605E-24
8.54812E-02 8.74454E-24
8.79369E-02 8.23281E-24
9.04240E-02 7.75749E-24
9.29422E-02 7.31552E-24
9.54915E-02 6.90415E-24
9.80716E-02 6.52090E-24
1.00682E-01 6.16350E-24
1.03323E-01 5.82989E-24
1.05995E-01 5.51821E-24
1.08696E-01 5.22676E-24
1.11427E-01 4.95401E-24
1.14188E-01 4.69854E-24
1.16978E-01 4.45906E-24
1.19797E-01 4.23439E-24
1.22645E-01 4.02345E-24
1.25522E-01 3.82525E-24
1.28428E-01 3.63890E-24
1.31361E-01 3.46355E-24
1.34323E-01 3.29845E-24
1.37313E-01 3.14288E-24
1.40330E-01 2.99620E-24
1.43375E-01 2.85781E-24
1.46447E-01 2.72715E-24
1.49545E-01 2.60373E-24
1.52671E-01 2.48706E-24
1.55823E-01 2.37672E-24
1.59001E-01 2.27230E-24
1.62205E-01 2.17342E-24
1.65435E-01 2.07974E-24
1.68690E-01 1.99094E-24
1.71970E-01 1.90671E-24
1.75276E-01 1.82679E-24
1.78606E-01 1.75091E-24
1.81961E-01 1.67883E-24
1.85340E-01 1.61032E-24
1.88743E-01 1.54519E-24
1.92169E-01 1.48322E-24
1.95619E-01 1.42425E-24
1.99092E-01 1.36810E-24
2.02589E-01 1.31461E-24
2.06107E-01 1.26364E-24
2.09649E-01 1.21504E-24
2.13212E-01 1.16868E-24
2.16797E-01 1.12445E-24
2.20404E-01 1.08223E-24
2.24032E-01 1.04190E-24
2.27680E-01 1.00338E-24
2.31350E-01 9.66565E-25
2.35040E-01 9.31366E-25
2.38751E-01 8.97700E-25
2.42481E-01 8.65489E-25
2.46231E-01 8.34659E-25
2.50000E-01 8.05141E-25
2.53788E-01 7.76868E-25
2.57595E-01 7.49780E-25
2.61421E-01 7.23817E-25
2.65264E-01 6.98925E-25
2.69126E-01 6.75051E-25
2.73005E-01 6.52148E-25
2.76901E-01 6.30168E-25
2.80814E-01 6.09068E-25
2.84744E-01 5.88807E-25
2.88691E-01 5.69344E-25
2.92653E-01 5.50644E-25
2.96632E-01 5.32672E-25
3.00625E-01 5.15393E-25
3.04634E-01 4.98777E-25
3.08658E-01 4.82794E-25
3.12697E-01 4.67415E-25
3.16749E-01 4.52614E-25
3.20816E-01 4.38365E-25
3.24896E-01 4.24644E-25
3.28990E-01 4.11428E-25
3.33097E-01 3.98695E-25
3.37216E-01 3.86425E-25
3.41348E-01 3.74598E-25
3.45492E-01 3.63195E-25
3.49647E-01 3.52198E-25
3.53814E-01 3.41590E-25
3.57992E-01 3.31356E-25
3.62181E-01 3.21479E-25
3.66381E-01 3.11946E-25
3.70590E-01 3.02742E-25
3.74810E-01 2.93853E-25
3.79039E-01 2.85268E-25
3.83277E-01 2.76974E-25
3.87524E-01 2.68960E-25
3.91780E-01 2.61214E-25
3.96044E-01 2.53726E-25
4.00316E-01 2.46486E-25
4.04596E-01 2.39484E-25
4.08882E-01 2.32711E-25
4.13176E-01 2.26159E-25
4.17476E-01 2.19819E-25
4.21783E-01 2.13683E-25
4.26095E-01 2.07743E-25
4.30413E-01 2.01992E-25
4.34737E-01 1.96424E-25
4.39065E-01 1.91030E-25
4.43398E-01 1.85805E-25
4.47736E-01 1.80743E-25
4.52077E-01 1.75838E-25
4.56422E-01 1.71084E-25
4.60770E-01 1.66475E-25
4.65122E-01 1.62007E-25
4.69476E-01 1.57675E-25
4.73832E-01 1.53473E-25
4.78190E-01 1.49397E-25
4.82550E-01 1.45443E-25
4.86912E-01 1.41607E-25
4.91274E-01 1.37884E-25
4.95637E-01 1.34270E-25
5.00000E-01 1.30762E-25
5.04363E-01 1.27356E-25
5.08726E-01 1.24049E-25
5.13088E-01 1.20838E-25
5.17450E-01 1.17718E-25
5.21810E-01 1.14688E-25
5.26168E-01 1.11744E-25
5.30524E-01 1.08883E-25
5.34878E-01 1.06103E-25
5.39230E-01 1.03401E-25
5.43578E-01 1.00774E-25
5.47923E-01 9.82207E-26
5.52264E-01 9.57376E-26
5.56602E-01 9.33229E-26
5.60935E-01 9.09744E-26
5.65263E-01 8.86901E-26
5.69587E-01 8.64678E-26
5.73905E-01 8.43056E-26
5.78217E-01 8.22018E-26
5.82524E-01 8.01543E-26
5.86824E-01 7.81616E-26
5.91118E-01 7.62219E-26
5.95404E-01 7.43336E-26
5.99684E-01 7.24952E-26
6.03956E-01 7.07050E-26
6.08220E-01 6.89617E-26
6.12476E-01 6.72639E-26
6.16723E-01 6.56101E-26
6.20961E-01 6.39992E-26
6.25190E-01 6.24297E-26
6.29410E-01 6.09005E-26
6.33619E-01 5.94104E-26
6.37819E-01 5.79583E-26
6.42008E-01 5.65430E-26
6.46186E-01 5.51635E-26
6.50353E-01 5.38188E-26
6.54508E-01 5.25078E-26
6.58652E-01 5.12295E-26
6.62784E-01 4.99832E-26
6.66903E-01 4.87677E-26
6.71010E-01 4.75824E-26
6.75104E-01 4.64263E-26
6.79184E-01 4.52986E-26
6.83251E-01 4.41985E-26
6.87303E-01 4.31253E-26
6.91342E-01 4.20781E-26
6.95366E-01 4.10564E-26
6.99375E-01 4.00594E-26
7.03368E-01 3.90864E-26
7.07347E-01 3.81368E-26
7.11309E-01 3.72099E-26
7.15256E-01 3.63052E-26
7.19186E-01 3.54220E-26
7.23099E-01 3.45598E-26
7.26995E-01 3.37179E-26
7.30874E-01 3.28960E-26
7.34736E-01 3.20934E-26
7.38579E-01 3.13096E-26
7.42405E-01 3.05442E-26
7.46212E-01 2.97967E-26
7.50000E-01 2.90666E-26
7.53769E-01 2.83534E-26
7.57519E-01 2.76568E-26
7.61249E-01 2.69763E-26
7.64960E-01 2.63114E-26
7.68650E-01 2.56619E-26
7.72320E-01 2.50273E-26
7.75968E-01 2.44072E-26
7.79596E-01 2.38013E-26
7.83203E-01 2.32092E-26
7.86788E-01 2.26307E-26
7.90351E-01 2.20652E-26
7.93893E-01 2.15126E-26
7.97411E-01 2.09725E-26
8.00908E-01 2.04447E-26
8.04381E-01 1.99287E-26
8.07831E-01 1.94244E-26
8.11257E-01 1.89314E-26
8.14660E-01 1.84495E-26
8.18039E-01 1.79784E-26
8.21394E-01 1.75179E-26
8.24724E-01 1.70677E-26
8.28030E-01 1.66276E-26
8.31310E-01 1.61973E-26
8.34565E-01 1.57766E-26
8.37795E-01 1.53653E-26
8.40999E-01 1.49632E-26
8.44177E-01 1.45700E-26
8.47329E-01 1.41857E-26
8.50455E-01 1.38098E-26
8.53553E-01 1.34424E-26
8.56625E-01 1.30831E-26
8.59670E-01 1.27318E-26
8.62687E-01 1.23884E-26
8.65677E-01 1.20526E-26
8.68639E-01 1.17243E-26
8.71572E-01 1.14033E-26
8.74478E-01 1.10895E-26
8.77355E-01 1.07827E-26
8.80203E-01 1.04827E-26
8.83022E-01 1.01895E-26
8.85812E-01 9.90285E-27
8.88573E-01 9.62264E-27
8.91304E-01 9.34872E-27
8.94005E-01 9.08098E-27
8.96677E-01 8.81929E-27
8.99318E-01 8.56351E-27
9.01928E-01 8.31354E-27
9.04508E-01 8.06926E-27
9.07058E-01 7.83055E-27
9.09576E-01 7.59730E-27
9.12063E-01 7.36940E-27
9.14519E-01 7.14676E-27
9.16943E-01 6.92926E-27
9.19335E-01 6.71682E-27
9.21696E-01 6.50932E-27
9.24024E-01 6.30669E-27
9.26320E-01 6.10883E-27
9.28584E-01 5.91564E-27
9.30815E-01 5.72706E-27
9.33013E-01 5.54298E-27
9.35178E-01 5.36333E-27
9.37310E-01 5.18803E-27
9.39409E-01 5.01701E-27
9.41474E-01 4.85019E-27
9.43505E-01 4.68749E-27
9.45503E-01 4.52885E-27
9.47467E-01 4.37420E-27
9.49397E-01 4.22347E-27
9.51293E-01 4.07659E-27
9.53154E-01 3.93351E-27
9.54981E-01 3.79417E-27
9.56773E-01 3.65849E-27
9.58530E-01 3.52644E-27
9.60252E-01 3.39794E-27
9.61940E-01 3.27295E-27
9.63592E-01 3.15142E-27
9.65209E-01 3.03328E-27
9.66790E-01 2.91851E-27
9.68336E-01 2.80704E-27
9.69846E-01 2.69883E-27
9.71321E-01 2.59383E-27
9.72759E-01 2.49201E-27
9.74162E-01 2.39332E-27
9.75528E-01 2.29772E-27
9.76858E-01 2.20517E-27
9.78152E-01 2.11564E-27
9.79410E-01 2.02908E-27
9.80631E-01 1.94546E-27
9.81815E-01 1.86476E-27
9.82963E-01 1.78692E-27
9.84074E-01 1.71193E-27
9.85148E-01 1.63976E-27
9.86185E-01 1.57037E-27
9.87185E-01 1.50374E-27
9.88148E-01 1.43983E-27
9.89074E-01 1.37863E-27
9.89962E-01 1.32012E-27
9.90814E-01 1.26426E-27
9.91627E-01 1.21103E-27
9.92404E-01 1.16042E-27
9.93143E-01 1.11240E-27
9.93844E-01 1.06696E-27
9.94508E-01 1.02407E-27
9.95134E-01 9.83728E-28
9.95722E-01 9.45906E-28
9.96273E-01 9.10593E-28
9.96786E-01 8.77775E-28
9.97261E-01 8.47439E-28
9.97698E-01 8.19574E-28
9.98097E-01 7.94168E-28
9.98459E-01 7.71212E-28
9.98782E-01 7.50696E-28
9.99067E-01 7.32613E-28
9.99315E-01 7.16955E-28
9.99524E-01 7.03717E-28
9.99695E-01 6.92892E-28
9.99829E-01 6.84477E-28
9.99924E-01 6.78469E-28
9.99981E-01 6.74865E-28
1.00000E+00 6.73664E-28
