 #
 # Subroutine ELSEPA. Elastic scattering of electrons and positrons
 #                    by neutral atoms and positive ions
 #
 # Projectile: positron
 # Kinetic energy = 3.00000E+08 eV = 1.10248E+07 a.u.
 #
 # WARNING: High-energy factorization with free-atom DF screening.
 #          Absorption, polarization and exchange corrections are
 #          switched off.
 #          Phase shifts are calculated for the bare nucleus.
 #          Scattering amplitudes are not evaluated.
 #
 # Element: Sc,  Z =  21,  atomic weight = 4.49559E+01 g/mol
 #
 # Nuclear model: Fermi distribution
 #                Average radius = 3.80463E-13 cm
 #                Skin thickness = 5.46000E-14 cm
 #
 # Number of electrons = 21
 #
 # Total elastic cross section = 1.86631E-18 cm**2 = 6.66473E-02 a0**2
 # 1st transport cross section = 1.02671E-26 cm**2 = 3.66645E-10 a0**2
 # 2nd transport cross section = 3.07554E-26 cm**2 = 1.09830E-09 a0**2
 #
 #
 # Differential cross section:                       MU=(1-COS(THETA))/2
 #
 #  THETA        MU          DCS          DCS        Sherman      error
 #  (deg)                 (cm**2/sr)   (a0**2/sr)    function
 #----------------------------------------------------------------------
0.00000E+00 2.98165E-09
7.61557E-13 2.85818E-09
1.18994E-12 2.79207E-09
1.71346E-12 2.71433E-09
2.33225E-12 2.62657E-09
3.04617E-12 2.53065E-09
3.85530E-12 2.42799E-09
4.75964E-12 2.32080E-09
5.75917E-12 2.21019E-09
6.85391E-12 2.09847E-09
8.04379E-12 1.98631E-09
9.32893E-12 1.87556E-09
1.07092E-11 1.76685E-09
1.21847E-11 1.66131E-09
1.37554E-11 1.55961E-09
1.54213E-11 1.46205E-09
1.71823E-11 1.36951E-09
1.90386E-11 1.28144E-09
2.09900E-11 1.19901E-09
2.30367E-11 1.12108E-09
2.51785E-11 1.04869E-09
2.74156E-11 9.80772E-10
2.97478E-11 9.17817E-10
3.21752E-11 8.59207E-10
3.46979E-11 8.04881E-10
3.73157E-11 7.54616E-10
4.00286E-11 7.07963E-10
4.28368E-11 6.64999E-10
4.57402E-11 6.25031E-10
4.87388E-11 5.88341E-10
5.18325E-11 5.54184E-10
5.50215E-11 5.22748E-10
5.83057E-11 4.93527E-10
6.16850E-11 4.66519E-10
6.51595E-11 4.41442E-10
6.87293E-11 4.18167E-10
7.23943E-11 3.96554E-10
7.61544E-11 3.76422E-10
1.18991E-10 2.34957E-10
1.71347E-10 1.56406E-10
2.33223E-10 1.08007E-10
3.04617E-10 7.52839E-11
3.85531E-10 5.45685E-11
4.75965E-10 3.95585E-11
5.75917E-10 2.94984E-11
6.85389E-10 2.20836E-11
8.04380E-10 1.69204E-11
9.32891E-10 1.31240E-11
1.07092E-09 1.03604E-11
1.21847E-09 8.29508E-12
1.37554E-09 6.73655E-12
1.54213E-09 5.54203E-12
1.71823E-09 4.61116E-12
1.90386E-09 3.87901E-12
2.09900E-09 3.29082E-12
2.30367E-09 2.81734E-12
2.51785E-09 2.42706E-12
2.74156E-09 2.10594E-12
2.97478E-09 1.83653E-12
3.21752E-09 1.61017E-12
3.46978E-09 1.41793E-12
3.73156E-09 1.25337E-12
4.00286E-09 1.11250E-12
4.28368E-09 9.89944E-13
4.57402E-09 8.84465E-13
4.87388E-09 7.91447E-13
5.18326E-09 7.10826E-13
5.50215E-09 6.39409E-13
5.83057E-09 5.76869E-13
6.16850E-09 5.21392E-13
6.51596E-09 4.72313E-13
6.87293E-09 4.28702E-13
7.23942E-09 3.89810E-13
7.61544E-09 3.55210E-13
1.18991E-08 1.53226E-13
1.71347E-08 7.57551E-14
2.33223E-08 4.15778E-14
3.04617E-08 2.47156E-14
3.85531E-08 1.56258E-14
4.75965E-08 1.03709E-14
5.75917E-08 7.15701E-15
6.85389E-08 5.09833E-15
8.04380E-08 3.73038E-15
9.32891E-08 2.79185E-15
1.07092E-07 2.13042E-15
1.21847E-07 1.65365E-15
1.37554E-07 1.30278E-15
1.54213E-07 1.04007E-15
1.71823E-07 8.40260E-16
1.90386E-07 6.86069E-16
2.09900E-07 5.65625E-16
2.30367E-07 4.70436E-16
2.51785E-07 3.94408E-16
2.74156E-07 3.33115E-16
2.97478E-07 2.83254E-16
3.21752E-07 2.42367E-16
3.46978E-07 2.08589E-16
3.73156E-07 1.80484E-16
4.00286E-07 1.56951E-16
4.28368E-07 1.37127E-16
4.57402E-07 1.20332E-16
4.87388E-07 1.06029E-16
5.18325E-07 9.37864E-17
5.50215E-07 8.32592E-17
5.83057E-07 7.41673E-17
6.16850E-07 6.62819E-17
6.51596E-07 5.94164E-17
6.87293E-07 5.34166E-17
7.23942E-07 4.81547E-17
7.61543E-07 4.35247E-17
1.18991E-06 1.78470E-17
1.71347E-06 8.61042E-18
2.33223E-06 4.64848E-18
3.04617E-06 2.72501E-18
3.85531E-06 1.70121E-18
4.75964E-06 1.11612E-18
5.75916E-06 7.62286E-19
6.85388E-06 5.38190E-19
8.04378E-06 3.90710E-19
9.32888E-06 2.90457E-19
1.07092E-05 2.20391E-19
1.21846E-05 1.70232E-19
1.37553E-05 1.33564E-19
1.54212E-05 1.06257E-19
1.71822E-05 8.55840E-20
1.90385E-05 6.96986E-20
2.09899E-05 5.73397E-20
2.30365E-05 4.76018E-20
2.51783E-05 3.98446E-20
2.74153E-05 3.36039E-20
2.97475E-05 2.85378E-20
3.21749E-05 2.43911E-20
3.46974E-05 2.09710E-20
3.73152E-05 1.81301E-20
4.00281E-05 1.57545E-20
4.28362E-05 1.37556E-20
4.57395E-05 1.20638E-20
4.87380E-05 1.06242E-20
5.18317E-05 9.39293E-21
5.50205E-05 8.33484E-21
5.83045E-05 7.42154E-21
6.16838E-05 6.62996E-21
6.51582E-05 5.94115E-21
6.87277E-05 5.33952E-21
7.23925E-05 4.81216E-21
7.61524E-05 4.34133E-21
9.21439E-05 2.96286E-21
1.09658E-04 2.09019E-21
1.28695E-04 1.51620E-21
1.49255E-04 1.12617E-21
1.71338E-04 8.53728E-22
1.94942E-04 6.58791E-22
2.20070E-04 5.16359E-22
2.46720E-04 4.10352E-22
2.74892E-04 3.30145E-22
3.04586E-04 2.68565E-22
3.35803E-04 2.20657E-22
3.68542E-04 1.82940E-22
4.02802E-04 1.52921E-22
4.38585E-04 1.28791E-22
4.75889E-04 1.09220E-22
5.14715E-04 9.32126E-23
5.55063E-04 8.00193E-23
5.96931E-04 6.90678E-23
6.40321E-04 5.99168E-23
6.85233E-04 5.22233E-23
7.31665E-04 4.57179E-23
7.79618E-04 4.01877E-23
8.29092E-04 3.54627E-23
8.80086E-04 3.14067E-23
9.32601E-04 2.79095E-23
9.86636E-04 2.48814E-23
1.04219E-03 2.22492E-23
1.09927E-03 1.99526E-23
1.15786E-03 1.79416E-23
1.21797E-03 1.61749E-23
1.27961E-03 1.46179E-23
1.34276E-03 1.32414E-23
1.40743E-03 1.20211E-23
1.47362E-03 1.09363E-23
1.54133E-03 9.96938E-24
1.61056E-03 9.10541E-24
1.68131E-03 8.33157E-24
1.75357E-03 7.63688E-24
1.82735E-03 7.01188E-24
1.90265E-03 6.44839E-24
1.97947E-03 5.93933E-24
2.05780E-03 5.47857E-24
2.13765E-03 5.06075E-24
2.21902E-03 4.68118E-24
2.30190E-03 4.33577E-24
2.38630E-03 4.02094E-24
2.47222E-03 3.73351E-24
2.55965E-03 3.47069E-24
2.64859E-03 3.23003E-24
2.73905E-03 3.00934E-24
2.83103E-03 2.80668E-24
2.92452E-03 2.62033E-24
3.01952E-03 2.44876E-24
3.11604E-03 2.29060E-24
3.21407E-03 2.14462E-24
3.31362E-03 2.00974E-24
3.41468E-03 1.88495E-24
3.51725E-03 1.76939E-24
3.62133E-03 1.66225E-24
3.72692E-03 1.56282E-24
3.83403E-03 1.47046E-24
3.94265E-03 1.38457E-24
4.05278E-03 1.30463E-24
4.16442E-03 1.23015E-24
4.27757E-03 1.16071E-24
4.39223E-03 1.09590E-24
4.50840E-03 1.03536E-24
4.62608E-03 9.78776E-25
4.74527E-03 9.25836E-25
4.86597E-03 8.76269E-25
4.98817E-03 8.29826E-25
5.11188E-03 7.86278E-25
5.23711E-03 7.45415E-25
5.36383E-03 7.07045E-25
5.49207E-03 6.70990E-25
5.62181E-03 6.37090E-25
5.75306E-03 6.05193E-25
5.88581E-03 5.75164E-25
6.02007E-03 5.46875E-25
6.15583E-03 5.20210E-25
6.29310E-03 4.95060E-25
6.43187E-03 4.71325E-25
6.57214E-03 4.48915E-25
6.71392E-03 4.27742E-25
6.85720E-03 4.07728E-25
7.00198E-03 3.88801E-25
7.14827E-03 3.70890E-25
7.29605E-03 3.53935E-25
7.44534E-03 3.37875E-25
7.59612E-03 3.22657E-25
7.97965E-03 2.87966E-25
8.37255E-03 2.57522E-25
8.77480E-03 2.30734E-25
9.18641E-03 2.07103E-25
9.60736E-03 1.86207E-25
1.00376E-02 1.67688E-25
1.04773E-02 1.51239E-25
1.09262E-02 1.36600E-25
1.13844E-02 1.23546E-25
1.18520E-02 1.11883E-25
1.23288E-02 1.01446E-25
1.28150E-02 9.20881E-26
1.33104E-02 8.36857E-26
1.38150E-02 7.61292E-26
1.43290E-02 6.93236E-26
1.48521E-02 6.31856E-26
1.53845E-02 5.76423E-26
1.59262E-02 5.26298E-26
1.64770E-02 4.80917E-26
1.70371E-02 4.39783E-26
1.76063E-02 4.02457E-26
1.81848E-02 3.68550E-26
1.87724E-02 3.37719E-26
1.93692E-02 3.09656E-26
1.99751E-02 2.84090E-26
2.05901E-02 2.60778E-26
2.12143E-02 2.39502E-26
2.18476E-02 2.20070E-26
2.24900E-02 2.02308E-26
2.31415E-02 1.86060E-26
2.38021E-02 1.71187E-26
2.44717E-02 1.57563E-26
2.51504E-02 1.45076E-26
2.58382E-02 1.33623E-26
2.65349E-02 1.23113E-26
2.72407E-02 1.13463E-26
2.79555E-02 1.04598E-26
2.86793E-02 9.64490E-27
2.94120E-02 8.89558E-27
3.01537E-02 8.20621E-27
3.09043E-02 7.57173E-27
3.16639E-02 6.98752E-27
3.24324E-02 6.44941E-27
3.32098E-02 5.95356E-27
3.39961E-02 5.49651E-27
3.47912E-02 5.07509E-27
3.55952E-02 4.68640E-27
3.64081E-02 4.32780E-27
3.72297E-02 3.99688E-27
3.80602E-02 3.69142E-27
3.88995E-02 3.40940E-27
3.97476E-02 3.14897E-27
4.06044E-02 2.90843E-27
4.14700E-02 2.68622E-27
4.23443E-02 2.48091E-27
4.32273E-02 2.29120E-27
4.41190E-02 2.11587E-27
4.50194E-02 1.95381E-27
4.59284E-02 1.80402E-27
4.68461E-02 1.66554E-27
4.87074E-02 1.41916E-27
5.06030E-02 1.20856E-27
5.25328E-02 1.02852E-27
5.44967E-02 8.74618E-28
5.64946E-02 7.43091E-28
5.85262E-02 6.30714E-28
6.05914E-02 5.34739E-28
6.26901E-02 4.52814E-28
6.48222E-02 3.82927E-28
6.69873E-02 3.23352E-28
6.91854E-02 2.72611E-28
7.14163E-02 2.29438E-28
7.36799E-02 1.92743E-28
7.59760E-02 1.61594E-28
7.83043E-02 1.35188E-28
8.06647E-02 1.12836E-28
8.30571E-02 9.39475E-29
8.54812E-02 7.80146E-29
8.79369E-02 6.46014E-29
9.04240E-02 5.33338E-29
9.29422E-02 4.38907E-29
9.54915E-02 3.59972E-29
9.80716E-02 2.94175E-29
1.00682E-01 2.39496E-29
1.03323E-01 1.94210E-29
1.05995E-01 1.56840E-29
1.08696E-01 1.26128E-29
1.11427E-01 1.01000E-29
1.14188E-01 8.05417E-30
1.16978E-01 6.39769E-30
1.19797E-01 5.06470E-30
1.22645E-01 3.99942E-30
1.25522E-01 3.15474E-30
1.28428E-01 2.49098E-30
1.31361E-01 1.97477E-30
1.34323E-01 1.57816E-30
1.37313E-01 1.27781E-30
1.40330E-01 1.05428E-30
1.43375E-01 8.91504E-31
1.46447E-01 7.76192E-31
1.49545E-01 6.97460E-31
1.52671E-01 6.46427E-31
1.55823E-01 6.15905E-31
1.59001E-01 6.00118E-31
1.62205E-01 5.94470E-31
1.65435E-01 5.95348E-31
1.68690E-01 5.99949E-31
1.71970E-01 6.06138E-31
1.75276E-01 6.12327E-31
1.78606E-01 6.17369E-31
1.81961E-01 6.20475E-31
1.85340E-01 6.21140E-31
1.88743E-01 6.19083E-31
1.92169E-01 6.14197E-31
1.95619E-01 6.06507E-31
1.99092E-01 5.96134E-31
2.02589E-01 5.83272E-31
2.06107E-01 5.68161E-31
2.09649E-01 5.51071E-31
2.13212E-01 5.32288E-31
2.16797E-01 5.12100E-31
2.20404E-01 4.90793E-31
2.24032E-01 4.68639E-31
2.27680E-01 4.45898E-31
2.31350E-01 4.22808E-31
2.35040E-01 3.99587E-31
2.38751E-01 3.76432E-31
2.42481E-01 3.53518E-31
2.46231E-01 3.30995E-31
2.50000E-01 3.08994E-31
2.53788E-01 2.87626E-31
2.57595E-01 2.66980E-31
2.61421E-01 2.47129E-31
2.65264E-01 2.28130E-31
2.69126E-01 2.10024E-31
2.73005E-01 1.92839E-31
2.76901E-01 1.76590E-31
2.80814E-01 1.61283E-31
2.84744E-01 1.46913E-31
2.88691E-01 1.33470E-31
2.92653E-01 1.20935E-31
2.96632E-01 1.09283E-31
3.00625E-01 9.84857E-32
3.04634E-01 8.85117E-32
3.08658E-01 7.93256E-32
3.12697E-01 7.08902E-32
3.16749E-01 6.31671E-32
3.20816E-01 5.61170E-32
3.24896E-01 4.97002E-32
3.28990E-01 4.38772E-32
3.33097E-01 3.86089E-32
3.37216E-01 3.38569E-32
3.41348E-01 2.95841E-32
3.45492E-01 2.57542E-32
3.49647E-01 2.23326E-32
3.53814E-01 1.92861E-32
3.57992E-01 1.65833E-32
3.62181E-01 1.41940E-32
3.66381E-01 1.20903E-32
3.70590E-01 1.02455E-32
3.74810E-01 8.63480E-33
3.79039E-01 7.23515E-33
3.83277E-01 6.02504E-33
3.87524E-01 4.98457E-33
3.91780E-01 4.09539E-33
3.96044E-01 3.34063E-33
4.00316E-01 2.70481E-33
4.04596E-01 2.17382E-33
4.08882E-01 1.73479E-33
4.13176E-01 1.37604E-33
4.17476E-01 1.08702E-33
4.21783E-01 8.58218E-34
4.26095E-01 6.81084E-34
4.30413E-01 5.47979E-34
4.34737E-01 4.52085E-34
4.39065E-01 3.87354E-34
4.43398E-01 3.48434E-34
4.47736E-01 3.30620E-34
4.52077E-01 3.29791E-34
4.56422E-01 3.42353E-34
4.60770E-01 3.65194E-34
4.65122E-01 3.95634E-34
4.69476E-01 4.31385E-34
4.73832E-01 4.70507E-34
4.78190E-01 5.11368E-34
4.82550E-01 5.52612E-34
4.86912E-01 5.93131E-34
4.91274E-01 6.32030E-34
4.95637E-01 6.68598E-34
5.00000E-01 7.02295E-34
5.04363E-01 7.32718E-34
5.08726E-01 7.59588E-34
5.13088E-01 7.82730E-34
5.17450E-01 8.02057E-34
5.21810E-01 8.17556E-34
5.26168E-01 8.29277E-34
5.30524E-01 8.37318E-34
5.34878E-01 8.41818E-34
5.39230E-01 8.42948E-34
5.43578E-01 8.40904E-34
5.47923E-01 8.35896E-34
5.52264E-01 8.28149E-34
5.56602E-01 8.17894E-34
5.60935E-01 8.05364E-34
5.65263E-01 7.90793E-34
5.69587E-01 7.74410E-34
5.73905E-01 7.56440E-34
5.78217E-01 7.37097E-34
5.82524E-01 7.16590E-34
5.86824E-01 6.95114E-34
5.91118E-01 6.72855E-34
5.95404E-01 6.49986E-34
5.99684E-01 6.26671E-34
6.03956E-01 6.03056E-34
6.08220E-01 5.79282E-34
6.12476E-01 5.55471E-34
6.16723E-01 5.31739E-34
6.20961E-01 5.08186E-34
6.25190E-01 4.84905E-34
6.29410E-01 4.61977E-34
6.33619E-01 4.39471E-34
6.37819E-01 4.17449E-34
6.42008E-01 3.95965E-34
6.46186E-01 3.75061E-34
6.50353E-01 3.54776E-34
6.54508E-01 3.35138E-34
6.58652E-01 3.16171E-34
6.62784E-01 2.97892E-34
6.66903E-01 2.80313E-34
6.71010E-01 2.63441E-34
6.75104E-01 2.47278E-34
6.79184E-01 2.31823E-34
6.83251E-01 2.17071E-34
6.87303E-01 2.03013E-34
6.91342E-01 1.89640E-34
6.95366E-01 1.76939E-34
6.99375E-01 1.64893E-34
7.03368E-01 1.53487E-34
7.07347E-01 1.42702E-34
7.11309E-01 1.32520E-34
7.15256E-01 1.22920E-34
7.19186E-01 1.13881E-34
7.23099E-01 1.05382E-34
7.26995E-01 9.74011E-35
7.30874E-01 8.99168E-35
7.34736E-01 8.29076E-35
7.38579E-01 7.63515E-35
7.42405E-01 7.02269E-35
7.46212E-01 6.45129E-35
7.50000E-01 5.91887E-35
7.53769E-01 5.42337E-35
7.57519E-01 4.96283E-35
7.61249E-01 4.53531E-35
7.64960E-01 4.13895E-35
7.68650E-01 3.77195E-35
7.72320E-01 3.43255E-35
7.75968E-01 3.11911E-35
7.79596E-01 2.83002E-35
7.83203E-01 2.56373E-35
7.86788E-01 2.31875E-35
7.90351E-01 2.09372E-35
7.93893E-01 1.88727E-35
7.97411E-01 1.69816E-35
8.00908E-01 1.52518E-35
8.04381E-01 1.36721E-35
8.07831E-01 1.22314E-35
8.11257E-01 1.09197E-35
8.14660E-01 9.72745E-36
8.18039E-01 8.64555E-36
8.21394E-01 7.66562E-36
8.24724E-01 6.77960E-36
8.28030E-01 5.98017E-36
8.31310E-01 5.26011E-36
8.34565E-01 4.61319E-36
8.37795E-01 4.03329E-36
8.40999E-01 3.51444E-36
8.44177E-01 3.05170E-36
8.47329E-01 2.63999E-36
8.50455E-01 2.27490E-36
8.53553E-01 1.95189E-36
8.56625E-01 1.66733E-36
8.59670E-01 1.41756E-36
8.62687E-01 1.19914E-36
8.65677E-01 1.00908E-36
8.68639E-01 8.44434E-37
8.71572E-01 7.02711E-37
8.74478E-01 5.81472E-37
8.77355E-01 4.78559E-37
8.80203E-01 3.91836E-37
8.83022E-01 3.19610E-37
8.85812E-01 2.60157E-37
8.88573E-01 2.11965E-37
8.91304E-01 1.73595E-37
8.94005E-01 1.43860E-37
8.96677E-01 1.21557E-37
8.99318E-01 1.05709E-37
9.01928E-01 9.53371E-38
9.04508E-01 8.96619E-38
9.07058E-01 8.79089E-38
9.09576E-01 8.94263E-38
9.12063E-01 9.36054E-38
9.14519E-01 9.98947E-38
9.16943E-01 1.07853E-37
9.19335E-01 1.17061E-37
9.21696E-01 1.27143E-37
9.24024E-01 1.37819E-37
9.26320E-01 1.48768E-37
9.28584E-01 1.59785E-37
9.30815E-01 1.70630E-37
9.33013E-01 1.81192E-37
9.35178E-01 1.91274E-37
9.37310E-01 2.00771E-37
9.39409E-01 2.09594E-37
9.41474E-01 2.17661E-37
9.43505E-01 2.24904E-37
9.45503E-01 2.31299E-37
9.47467E-01 2.36801E-37
9.49397E-01 2.41417E-37
9.51293E-01 2.45113E-37
9.53154E-01 2.47906E-37
9.54981E-01 2.49811E-37
9.56773E-01 2.50838E-37
9.58530E-01 2.51012E-37
9.60252E-01 2.50370E-37
9.61940E-01 2.48943E-37
9.63592E-01 2.46762E-37
9.65209E-01 2.43873E-37
9.66790E-01 2.40312E-37
9.68336E-01 2.36128E-37
9.69846E-01 2.31367E-37
9.71321E-01 2.26073E-37
9.72759E-01 2.20289E-37
9.74162E-01 2.14059E-37
9.75528E-01 2.07429E-37
9.76858E-01 2.00452E-37
9.78152E-01 1.93174E-37
9.79410E-01 1.85626E-37
9.80631E-01 1.77855E-37
9.81815E-01 1.69912E-37
9.82963E-01 1.61826E-37
9.84074E-01 1.53647E-37
9.85148E-01 1.45400E-37
9.86185E-01 1.37140E-37
9.87185E-01 1.28885E-37
9.88148E-01 1.20681E-37
9.89074E-01 1.12562E-37
9.89962E-01 1.04543E-37
9.90814E-01 9.66750E-38
9.91627E-01 8.89644E-38
9.92404E-01 8.14426E-38
9.93143E-01 7.41524E-38
9.93844E-01 6.70995E-38
9.94508E-01 6.03141E-38
9.95134E-01 5.38074E-38
9.95722E-01 4.76005E-38
9.96273E-01 4.17218E-38
9.96786E-01 3.61772E-38
9.97261E-01 3.09884E-38
9.97698E-01 2.61705E-38
9.98097E-01 2.17204E-38
9.98459E-01 1.76745E-38
9.98782E-01 1.40186E-38
9.99067E-01 1.07716E-38
9.99315E-01 7.94559E-39
9.99524E-01 5.53838E-39
9.99695E-01 3.56600E-39
9.99829E-01 2.02666E-39
9.99924E-01 9.25643E-40
9.99981E-01 2.64050E-40
1.00000E+00 4.21224E-41
