 #
 # Subroutine ELSEPA. Elastic scattering of electrons and positrons
 #                    by neutral atoms and positive ions
 #
 # Projectile: positron
 # Kinetic energy = 2.50000E+08 eV = 9.18733E+06 a.u.
 #
 # WARNING: High-energy factorization with free-atom DF screening.
 #          Absorption, polarization and exchange corrections are
 #          switched off.
 #          Phase shifts are calculated for the bare nucleus.
 #          Scattering amplitudes are not evaluated.
 #
 # Element: Sc,  Z =  21,  atomic weight = 4.49559E+01 g/mol
 #
 # Nuclear model: Fermi distribution
 #                Average radius = 3.80463E-13 cm
 #                Skin thickness = 5.46000E-14 cm
 #
 # Number of electrons = 21
 #
 # Total elastic cross section = 1.86673E-18 cm**2 = 6.66620E-02 a0**2
 # 1st transport cross section = 1.47562E-26 cm**2 = 5.26954E-10 a0**2
 # 2nd transport cross section = 4.41742E-26 cm**2 = 1.57749E-09 a0**2
 #
 #
 # Differential cross section:                       MU=(1-COS(THETA))/2
 #
 #  THETA        MU          DCS          DCS        Sherman      error
 #  (deg)                 (cm**2/sr)   (a0**2/sr)    function
 #----------------------------------------------------------------------
0.00000E+00 2.07200E-09
7.61557E-13 2.01180E-09
1.18994E-12 1.97908E-09
1.71346E-12 1.94017E-09
2.33225E-12 1.89564E-09
3.04617E-12 1.84614E-09
3.85530E-12 1.79239E-09
4.75964E-12 1.73508E-09
5.75917E-12 1.67477E-09
6.85391E-12 1.61250E-09
8.04379E-12 1.54853E-09
9.32893E-12 1.48393E-09
1.07092E-11 1.41887E-09
1.21847E-11 1.35424E-09
1.37554E-11 1.29025E-09
1.54213E-11 1.22744E-09
1.71823E-11 1.16617E-09
1.90386E-11 1.10656E-09
2.09900E-11 1.04918E-09
2.30367E-11 9.93674E-10
2.51785E-11 9.40890E-10
2.74156E-11 8.90092E-10
2.97478E-11 8.42141E-10
3.21752E-11 7.96321E-10
3.46979E-11 7.53157E-10
3.73157E-11 7.12241E-10
4.00286E-11 6.73708E-10
4.28368E-11 6.37446E-10
4.57402E-11 6.03265E-10
4.87388E-11 5.71299E-10
5.18325E-11 5.41112E-10
5.50215E-11 5.13031E-10
5.83057E-11 4.86474E-10
6.16850E-11 4.61826E-10
6.51595E-11 4.38558E-10
6.87293E-11 4.16876E-10
7.23943E-11 3.96488E-10
7.61544E-11 3.77412E-10
1.18991E-10 2.40211E-10
1.71347E-10 1.63155E-10
2.33223E-10 1.15870E-10
3.04617E-10 8.45903E-11
3.85531E-10 6.25340E-11
4.75965E-10 4.67062E-11
5.75917E-10 3.59947E-11
6.85389E-10 2.74610E-11
8.04380E-10 2.14773E-11
9.32891E-10 1.68302E-11
1.07092E-09 1.33964E-11
1.21847E-09 1.07655E-11
1.37554E-09 8.74923E-12
1.54213E-09 7.19118E-12
1.71823E-09 5.96827E-12
1.90386E-09 5.00535E-12
2.09900E-09 4.23410E-12
2.30367E-09 3.61434E-12
2.51785E-09 3.10739E-12
2.74156E-09 2.69252E-12
2.97478E-09 2.34617E-12
3.21752E-09 2.05779E-12
3.46978E-09 1.81319E-12
3.73156E-09 1.60592E-12
4.00286E-09 1.42809E-12
4.28368E-09 1.27478E-12
4.57402E-09 1.14226E-12
4.87388E-09 1.02613E-12
5.18326E-09 9.25286E-13
5.50215E-09 8.35590E-13
5.83057E-09 7.57391E-13
6.16850E-09 6.87120E-13
6.51596E-09 6.25349E-13
6.87293E-09 5.69815E-13
7.23942E-09 5.20437E-13
7.61544E-09 4.76056E-13
1.18991E-08 2.11904E-13
1.71347E-08 1.06339E-13
2.33223E-08 5.86514E-14
3.04617E-08 3.48938E-14
3.85531E-08 2.20510E-14
4.75965E-08 1.46304E-14
5.75917E-08 1.00967E-14
6.85389E-08 7.19725E-15
8.04380E-08 5.27087E-15
9.32891E-08 3.94936E-15
1.07092E-07 3.01739E-15
1.21847E-07 2.34489E-15
1.37554E-07 1.84968E-15
1.54213E-07 1.47845E-15
1.71823E-07 1.19574E-15
1.90386E-07 9.77376E-16
2.09900E-07 8.06566E-16
2.30367E-07 6.71390E-16
2.51785E-07 5.63322E-16
2.74156E-07 4.76103E-16
2.97478E-07 4.05095E-16
3.21752E-07 3.46818E-16
3.46978E-07 2.98633E-16
3.73156E-07 2.58516E-16
4.00286E-07 2.24899E-16
4.28368E-07 1.96563E-16
4.57402E-07 1.72545E-16
4.87388E-07 1.52080E-16
5.18325E-07 1.34556E-16
5.50215E-07 1.19482E-16
5.83057E-07 1.06458E-16
6.16850E-07 9.51577E-17
6.51596E-07 8.53161E-17
6.87293E-07 7.67132E-17
7.23942E-07 6.91665E-17
7.61543E-07 6.25245E-17
1.18991E-06 2.56592E-17
1.71347E-06 1.23842E-17
2.33223E-06 6.68708E-18
3.04617E-06 3.92048E-18
3.85531E-06 2.44769E-18
4.75964E-06 1.60594E-18
5.75916E-06 1.09685E-18
6.85388E-06 7.74412E-19
8.04378E-06 5.62209E-19
9.32888E-06 4.17955E-19
1.07092E-05 3.17135E-19
1.21846E-05 2.44960E-19
1.37553E-05 1.92196E-19
1.54212E-05 1.52902E-19
1.71822E-05 1.23155E-19
1.90385E-05 1.00296E-19
2.09899E-05 8.25118E-20
2.30365E-05 6.84989E-20
2.51783E-05 5.73365E-20
2.74153E-05 4.83562E-20
2.97475E-05 4.10661E-20
3.21749E-05 3.50990E-20
3.46974E-05 3.01775E-20
3.73152E-05 2.60894E-20
4.00281E-05 2.26709E-20
4.28362E-05 1.97945E-20
4.57395E-05 1.73600E-20
4.87380E-05 1.52884E-20
5.18317E-05 1.35166E-20
5.50205E-05 1.19940E-20
5.83045E-05 1.06797E-20
6.16838E-05 9.54061E-21
6.51582E-05 8.54941E-21
6.87277E-05 7.68367E-21
7.23925E-05 6.92479E-21
7.61524E-05 6.25089E-21
9.21439E-05 4.26672E-21
1.09658E-04 3.01051E-21
1.28695E-04 2.18417E-21
1.49255E-04 1.62263E-21
1.71338E-04 1.23035E-21
1.94942E-04 9.49637E-22
2.20070E-04 7.44509E-22
2.46720E-04 5.91821E-22
2.74892E-04 4.76279E-22
3.04586E-04 3.87560E-22
3.35803E-04 3.18527E-22
3.68542E-04 2.64170E-22
4.02802E-04 2.20900E-22
4.38585E-04 1.86114E-22
4.75889E-04 1.57894E-22
5.14715E-04 1.34808E-22
5.55063E-04 1.15777E-22
5.96931E-04 9.99766E-23
6.40321E-04 8.67708E-23
6.85233E-04 7.56659E-23
7.31665E-04 6.62736E-23
7.79618E-04 5.82872E-23
8.29092E-04 5.14619E-23
8.80086E-04 4.56015E-23
9.32601E-04 4.05469E-23
9.86636E-04 3.61692E-23
1.04219E-03 3.23627E-23
1.09927E-03 2.90404E-23
1.15786E-03 2.61305E-23
1.21797E-03 2.35731E-23
1.27961E-03 2.13185E-23
1.34276E-03 1.93247E-23
1.40743E-03 1.75565E-23
1.47362E-03 1.59840E-23
1.54133E-03 1.45819E-23
1.61056E-03 1.33285E-23
1.68131E-03 1.22055E-23
1.75357E-03 1.11969E-23
1.82735E-03 1.02891E-23
1.90265E-03 9.47032E-24
1.97947E-03 8.73030E-24
2.05780E-03 8.06018E-24
2.13765E-03 7.45222E-24
2.21902E-03 6.89967E-24
2.30190E-03 6.39661E-24
2.38630E-03 5.93784E-24
2.47222E-03 5.51879E-24
2.55965E-03 5.13543E-24
2.64859E-03 4.78420E-24
2.73905E-03 4.46194E-24
2.83103E-03 4.16586E-24
2.92452E-03 3.89344E-24
3.01952E-03 3.64249E-24
3.11604E-03 3.41102E-24
3.21407E-03 3.19725E-24
3.31362E-03 2.99959E-24
3.41468E-03 2.81663E-24
3.51725E-03 2.64708E-24
3.62133E-03 2.48980E-24
3.72692E-03 2.34373E-24
3.83403E-03 2.20795E-24
3.94265E-03 2.08160E-24
4.05278E-03 1.96392E-24
4.16442E-03 1.85421E-24
4.27757E-03 1.75184E-24
4.39223E-03 1.65624E-24
4.50840E-03 1.56687E-24
4.62608E-03 1.48327E-24
4.74527E-03 1.40499E-24
4.86597E-03 1.33165E-24
4.98817E-03 1.26287E-24
5.11188E-03 1.19833E-24
5.23711E-03 1.13772E-24
5.36383E-03 1.08076E-24
5.49207E-03 1.02719E-24
5.62181E-03 9.76780E-25
5.75306E-03 9.29308E-25
5.88581E-03 8.84575E-25
6.02007E-03 8.42397E-25
6.15583E-03 8.02604E-25
6.29310E-03 7.65037E-25
6.43187E-03 7.29552E-25
6.57214E-03 6.96014E-25
6.71392E-03 6.64298E-25
6.85720E-03 6.34290E-25
7.00198E-03 6.05881E-25
7.14827E-03 5.78972E-25
7.29605E-03 5.53472E-25
7.44534E-03 5.29294E-25
7.59612E-03 5.06359E-25
7.97965E-03 4.53981E-25
8.37255E-03 4.07890E-25
8.77480E-03 3.67217E-25
9.18641E-03 3.31234E-25
9.60736E-03 2.99319E-25
1.00376E-02 2.70946E-25
1.04773E-02 2.45664E-25
1.09262E-02 2.23089E-25
1.13844E-02 2.02890E-25
1.18520E-02 1.84780E-25
1.23288E-02 1.68514E-25
1.28150E-02 1.53877E-25
1.33104E-02 1.40684E-25
1.38150E-02 1.28772E-25
1.43290E-02 1.18001E-25
1.48521E-02 1.08246E-25
1.53845E-02 9.93990E-26
1.59262E-02 9.13641E-26
1.64770E-02 8.40571E-26
1.70371E-02 7.74036E-26
1.76063E-02 7.13376E-26
1.81848E-02 6.58007E-26
1.87724E-02 6.07411E-26
1.93692E-02 5.61126E-26
1.99751E-02 5.18740E-26
2.05901E-02 4.79885E-26
2.12143E-02 4.44233E-26
2.18476E-02 4.11488E-26
2.24900E-02 3.81388E-26
2.31415E-02 3.53694E-26
2.38021E-02 3.28192E-26
2.44717E-02 3.04691E-26
2.51504E-02 2.83016E-26
2.58382E-02 2.63011E-26
2.65349E-02 2.44533E-26
2.72407E-02 2.27455E-26
2.79555E-02 2.11660E-26
2.86793E-02 1.97042E-26
2.94120E-02 1.83505E-26
3.01537E-02 1.70961E-26
3.09043E-02 1.59332E-26
3.16639E-02 1.48544E-26
3.24324E-02 1.38531E-26
3.32098E-02 1.29232E-26
3.39961E-02 1.20594E-26
3.47912E-02 1.12564E-26
3.55952E-02 1.05096E-26
3.64081E-02 9.81491E-27
3.72297E-02 9.16830E-27
3.80602E-02 8.56623E-27
3.88995E-02 8.00541E-27
3.97476E-02 7.48281E-27
4.06044E-02 6.99566E-27
4.14700E-02 6.54140E-27
4.23443E-02 6.11766E-27
4.32273E-02 5.72227E-27
4.41190E-02 5.35322E-27
4.50194E-02 5.00866E-27
4.59284E-02 4.68686E-27
4.68461E-02 4.38626E-27
4.87074E-02 3.84284E-27
5.06030E-02 3.36794E-27
5.25328E-02 2.95257E-27
5.44967E-02 2.58897E-27
5.64946E-02 2.27048E-27
5.85262E-02 1.99133E-27
6.05914E-02 1.74653E-27
6.26901E-02 1.53176E-27
6.48222E-02 1.34326E-27
6.69873E-02 1.17776E-27
6.91854E-02 1.03242E-27
7.14163E-02 9.04762E-28
7.36799E-02 7.92621E-28
7.59760E-02 6.94105E-28
7.83043E-02 6.07557E-28
8.06647E-02 5.31530E-28
8.30571E-02 4.64751E-28
8.54812E-02 4.06108E-28
8.79369E-02 3.54620E-28
9.04240E-02 3.09430E-28
9.29422E-02 2.69780E-28
9.54915E-02 2.35006E-28
9.80716E-02 2.04523E-28
1.00682E-01 1.77816E-28
1.03323E-01 1.54432E-28
1.05995E-01 1.33970E-28
1.08696E-01 1.16079E-28
1.11427E-01 1.00448E-28
1.14188E-01 8.68037E-29
1.16978E-01 7.49046E-29
1.19797E-01 6.45381E-29
1.22645E-01 5.55167E-29
1.25522E-01 4.76751E-29
1.28428E-01 4.08678E-29
1.31361E-01 3.49662E-29
1.34323E-01 2.98575E-29
1.37313E-01 2.54419E-29
1.40330E-01 2.16319E-29
1.43375E-01 1.83504E-29
1.46447E-01 1.55295E-29
1.49545E-01 1.31095E-29
1.52671E-01 1.10383E-29
1.55823E-01 9.26968E-30
1.59001E-01 7.76350E-30
1.62205E-01 6.48440E-30
1.65435E-01 5.40147E-30
1.68690E-01 4.48766E-30
1.71970E-01 3.71936E-30
1.75276E-01 3.07597E-30
1.78606E-01 2.53952E-30
1.81961E-01 2.09439E-30
1.85340E-01 1.72701E-30
1.88743E-01 1.42561E-30
1.92169E-01 1.18000E-30
1.95619E-01 9.81374E-31
1.99092E-01 8.22136E-31
2.02589E-01 6.95759E-31
2.06107E-01 5.96640E-31
2.09649E-01 5.19986E-31
2.13212E-01 4.61709E-31
2.16797E-01 4.18336E-31
2.20404E-01 3.86922E-31
2.24032E-01 3.64988E-31
2.27680E-01 3.50452E-31
2.31350E-01 3.41577E-31
2.35040E-01 3.36921E-31
2.38751E-01 3.35299E-31
2.42481E-01 3.35742E-31
2.46231E-01 3.37465E-31
2.50000E-01 3.39846E-31
2.53788E-01 3.42390E-31
2.57595E-01 3.44720E-31
2.61421E-01 3.46550E-31
2.65264E-01 3.47675E-31
2.69126E-01 3.47951E-31
2.73005E-01 3.47291E-31
2.76901E-01 3.45650E-31
2.80814E-01 3.43017E-31
2.84744E-01 3.39408E-31
2.88691E-01 3.34862E-31
2.92653E-01 3.29433E-31
2.96632E-01 3.23185E-31
3.00625E-01 3.16194E-31
3.04634E-01 3.08537E-31
3.08658E-01 3.00296E-31
3.12697E-01 2.91552E-31
3.16749E-01 2.82387E-31
3.20816E-01 2.72878E-31
3.24896E-01 2.63101E-31
3.28990E-01 2.53128E-31
3.33097E-01 2.43025E-31
3.37216E-01 2.32855E-31
3.41348E-01 2.22674E-31
3.45492E-01 2.12534E-31
3.49647E-01 2.02483E-31
3.53814E-01 1.92561E-31
3.57992E-01 1.82807E-31
3.62181E-01 1.73252E-31
3.66381E-01 1.63924E-31
3.70590E-01 1.54847E-31
3.74810E-01 1.46041E-31
3.79039E-01 1.37521E-31
3.83277E-01 1.29300E-31
3.87524E-01 1.21388E-31
3.91780E-01 1.13792E-31
3.96044E-01 1.06515E-31
4.00316E-01 9.95603E-32
4.04596E-01 9.29265E-32
4.08882E-01 8.66120E-32
4.13176E-01 8.06132E-32
4.17476E-01 7.49250E-32
4.21783E-01 6.95413E-32
4.26095E-01 6.44548E-32
4.30413E-01 5.96575E-32
4.34737E-01 5.51405E-32
4.39065E-01 5.08945E-32
4.43398E-01 4.69097E-32
4.47736E-01 4.31760E-32
4.52077E-01 3.96831E-32
4.56422E-01 3.64205E-32
4.60770E-01 3.33777E-32
4.65122E-01 3.05442E-32
4.69476E-01 2.79096E-32
4.73832E-01 2.54636E-32
4.78190E-01 2.31962E-32
4.82550E-01 2.10974E-32
4.86912E-01 1.91576E-32
4.91274E-01 1.73676E-32
4.95637E-01 1.57182E-32
5.00000E-01 1.42008E-32
5.04363E-01 1.28070E-32
5.08726E-01 1.15288E-32
5.13088E-01 1.03584E-32
5.17450E-01 9.28863E-33
5.21810E-01 8.31236E-33
5.26168E-01 7.42301E-33
5.30524E-01 6.61428E-33
5.34878E-01 5.88022E-33
5.39230E-01 5.21520E-33
5.43578E-01 4.61392E-33
5.47923E-01 4.07140E-33
5.52264E-01 3.58294E-33
5.56602E-01 3.14416E-33
5.60935E-01 2.75094E-33
5.65263E-01 2.39944E-33
5.69587E-01 2.08607E-33
5.73905E-01 1.80749E-33
5.78217E-01 1.56060E-33
5.82524E-01 1.34252E-33
5.86824E-01 1.15057E-33
5.91118E-01 9.82279E-34
5.95404E-01 8.35367E-34
5.99684E-01 7.07719E-34
6.03956E-01 5.97398E-34
6.08220E-01 5.02618E-34
6.12476E-01 4.21740E-34
6.16723E-01 3.53266E-34
6.20961E-01 2.95819E-34
6.25190E-01 2.48149E-34
6.29410E-01 2.09110E-34
6.33619E-01 1.77667E-34
6.37819E-01 1.52873E-34
6.42008E-01 1.33878E-34
6.46186E-01 1.19905E-34
6.50353E-01 1.10262E-34
6.54508E-01 1.04317E-34
6.58652E-01 1.01514E-34
6.62784E-01 1.01347E-34
6.66903E-01 1.03365E-34
6.71010E-01 1.07172E-34
6.75104E-01 1.12413E-34
6.79184E-01 1.18776E-34
6.83251E-01 1.25985E-34
6.87303E-01 1.33801E-34
6.91342E-01 1.42014E-34
6.95366E-01 1.50442E-34
6.99375E-01 1.58930E-34
7.03368E-01 1.67345E-34
7.07347E-01 1.75574E-34
7.11309E-01 1.83524E-34
7.15256E-01 1.91116E-34
7.19186E-01 1.98288E-34
7.23099E-01 2.04990E-34
7.26995E-01 2.11183E-34
7.30874E-01 2.16840E-34
7.34736E-01 2.21941E-34
7.38579E-01 2.26474E-34
7.42405E-01 2.30435E-34
7.46212E-01 2.33826E-34
7.50000E-01 2.36651E-34
7.53769E-01 2.38922E-34
7.57519E-01 2.40651E-34
7.61249E-01 2.41857E-34
7.64960E-01 2.42558E-34
7.68650E-01 2.42775E-34
7.72320E-01 2.42530E-34
7.75968E-01 2.41849E-34
7.79596E-01 2.40754E-34
7.83203E-01 2.39272E-34
7.86788E-01 2.37427E-34
7.90351E-01 2.35244E-34
7.93893E-01 2.32749E-34
7.97411E-01 2.29966E-34
8.00908E-01 2.26920E-34
8.04381E-01 2.23634E-34
8.07831E-01 2.20131E-34
8.11257E-01 2.16434E-34
8.14660E-01 2.12563E-34
8.18039E-01 2.08539E-34
8.21394E-01 2.04382E-34
8.24724E-01 2.00110E-34
8.28030E-01 1.95741E-34
8.31310E-01 1.91292E-34
8.34565E-01 1.86778E-34
8.37795E-01 1.82215E-34
8.40999E-01 1.77615E-34
8.44177E-01 1.72993E-34
8.47329E-01 1.68360E-34
8.50455E-01 1.63728E-34
8.53553E-01 1.59106E-34
8.56625E-01 1.54505E-34
8.59670E-01 1.49933E-34
8.62687E-01 1.45397E-34
8.65677E-01 1.40907E-34
8.68639E-01 1.36467E-34
8.71572E-01 1.32084E-34
8.74478E-01 1.27764E-34
8.77355E-01 1.23510E-34
8.80203E-01 1.19328E-34
8.83022E-01 1.15221E-34
8.85812E-01 1.11192E-34
8.88573E-01 1.07244E-34
8.91304E-01 1.03380E-34
8.94005E-01 9.96003E-35
8.96677E-01 9.59075E-35
8.99318E-01 9.23028E-35
9.01928E-01 8.87868E-35
9.04508E-01 8.53604E-35
9.07058E-01 8.20237E-35
9.09576E-01 7.87769E-35
9.12063E-01 7.56200E-35
9.14519E-01 7.25522E-35
9.16943E-01 6.95732E-35
9.19335E-01 6.66823E-35
9.21696E-01 6.38786E-35
9.24024E-01 6.11615E-35
9.26320E-01 5.85292E-35
9.28584E-01 5.59809E-35
9.30815E-01 5.35146E-35
9.33013E-01 5.11304E-35
9.35178E-01 4.88253E-35
9.37310E-01 4.65983E-35
9.39409E-01 4.44478E-35
9.41474E-01 4.23722E-35
9.43505E-01 4.03695E-35
9.45503E-01 3.84384E-35
9.47467E-01 3.65770E-35
9.49397E-01 3.47841E-35
9.51293E-01 3.30569E-35
9.53154E-01 3.13944E-35
9.54981E-01 2.97947E-35
9.56773E-01 2.82561E-35
9.58530E-01 2.67770E-35
9.60252E-01 2.53553E-35
9.61940E-01 2.39897E-35
9.63592E-01 2.26783E-35
9.65209E-01 2.14198E-35
9.66790E-01 2.02124E-35
9.68336E-01 1.90542E-35
9.69846E-01 1.79444E-35
9.71321E-01 1.68808E-35
9.72759E-01 1.58624E-35
9.74162E-01 1.48875E-35
9.75528E-01 1.39550E-35
9.76858E-01 1.30632E-35
9.78152E-01 1.22108E-35
9.79410E-01 1.13969E-35
9.80631E-01 1.06201E-35
9.81815E-01 9.87895E-36
9.82963E-01 9.17256E-36
9.84074E-01 8.49980E-36
9.85148E-01 7.85966E-36
9.86185E-01 7.25077E-36
9.87185E-01 6.67247E-36
9.88148E-01 6.12375E-36
9.89074E-01 5.60338E-36
9.89962E-01 5.11109E-36
9.90814E-01 4.64534E-36
9.91627E-01 4.20609E-36
9.92404E-01 3.79214E-36
9.93143E-01 3.40261E-36
9.93844E-01 3.03720E-36
9.94508E-01 2.69506E-36
9.95134E-01 2.37573E-36
9.95722E-01 2.07861E-36
9.96273E-01 1.80299E-36
9.96786E-01 1.54861E-36
9.97261E-01 1.31479E-36
9.97698E-01 1.10118E-36
9.98097E-01 9.07616E-37
9.98459E-01 7.33361E-37
9.98782E-01 5.78413E-37
9.99067E-01 4.42380E-37
9.99315E-01 3.24923E-37
9.99524E-01 2.26012E-37
9.99695E-01 1.45233E-37
9.99829E-01 8.25835E-38
9.99924E-01 3.78916E-38
9.99981E-01 1.11194E-38
1.00000E+00 2.22540E-39
