 #
 # Subroutine ELSEPA. Elastic scattering of electrons and positrons
 #                    by neutral atoms and positive ions
 #
 # Projectile: positron
 # Kinetic energy = 9.00000E+06 eV = 3.30744E+05 a.u.
 #
 # WARNING: High-energy factorization with free-atom DF screening.
 #          Absorption, polarization and exchange corrections are
 #          switched off.
 #          Phase shifts are calculated for the bare nucleus.
 #          Scattering amplitudes are not evaluated.
 #
 # Element: Sc,  Z =  21,  atomic weight = 4.49559E+01 g/mol
 #
 # Nuclear model: Fermi distribution
 #                Average radius = 3.80463E-13 cm
 #                Skin thickness = 5.46000E-14 cm
 #
 # Number of electrons = 21
 #
 # Total elastic cross section = 1.87159E-18 cm**2 = 6.68358E-02 a0**2
 # 1st transport cross section = 7.75233E-24 cm**2 = 2.76841E-07 a0**2
 # 2nd transport cross section = 2.24225E-23 cm**2 = 8.00723E-07 a0**2
 #
 #
 # Differential cross section:                       MU=(1-COS(THETA))/2
 #
 #  THETA        MU          DCS          DCS        Sherman      error
 #  (deg)                 (cm**2/sr)   (a0**2/sr)    function
 #----------------------------------------------------------------------
0.00000E+00 2.98668E-12
7.61557E-13 2.98655E-12
1.18994E-12 2.98647E-12
1.71346E-12 2.98638E-12
2.33225E-12 2.98628E-12
3.04617E-12 2.98616E-12
3.85530E-12 2.98602E-12
4.75964E-12 2.98587E-12
5.75917E-12 2.98570E-12
6.85391E-12 2.98552E-12
8.04379E-12 2.98532E-12
9.32893E-12 2.98511E-12
1.07092E-11 2.98487E-12
1.21847E-11 2.98463E-12
1.37554E-11 2.98436E-12
1.54213E-11 2.98408E-12
1.71823E-11 2.98379E-12
1.90386E-11 2.98348E-12
2.09900E-11 2.98315E-12
2.30367E-11 2.98281E-12
2.51785E-11 2.98245E-12
2.74156E-11 2.98208E-12
2.97478E-11 2.98169E-12
3.21752E-11 2.98128E-12
3.46979E-11 2.98086E-12
3.73157E-11 2.98042E-12
4.00286E-11 2.97997E-12
4.28368E-11 2.97950E-12
4.57402E-11 2.97901E-12
4.87388E-11 2.97851E-12
5.18325E-11 2.97800E-12
5.50215E-11 2.97747E-12
5.83057E-11 2.97692E-12
6.16850E-11 2.97636E-12
6.51595E-11 2.97578E-12
6.87293E-11 2.97518E-12
7.23943E-11 2.97457E-12
7.61544E-11 2.97395E-12
1.18991E-10 2.96683E-12
1.71347E-10 2.95817E-12
2.33223E-10 2.94798E-12
3.04617E-10 2.93629E-12
3.85531E-10 2.92313E-12
4.75965E-10 2.90853E-12
5.75917E-10 2.89251E-12
6.85389E-10 2.87512E-12
8.04380E-10 2.85639E-12
9.32891E-10 2.83637E-12
1.07092E-09 2.81510E-12
1.21847E-09 2.79263E-12
1.37554E-09 2.76900E-12
1.54213E-09 2.74426E-12
1.71823E-09 2.71847E-12
1.90386E-09 2.69167E-12
2.09900E-09 2.66393E-12
2.30367E-09 2.63530E-12
2.51785E-09 2.60582E-12
2.74156E-09 2.57563E-12
2.97478E-09 2.54470E-12
3.21752E-09 2.51307E-12
3.46978E-09 2.48079E-12
3.73156E-09 2.44791E-12
4.00286E-09 2.41452E-12
4.28368E-09 2.38085E-12
4.57402E-09 2.34674E-12
4.87388E-09 2.31224E-12
5.18326E-09 2.27741E-12
5.50215E-09 2.24229E-12
5.83057E-09 2.20703E-12
6.16850E-09 2.17178E-12
6.51596E-09 2.13638E-12
6.87293E-09 2.10087E-12
7.23942E-09 2.06530E-12
7.61544E-09 2.02969E-12
1.18991E-08 1.68476E-12
1.71347E-08 1.37515E-12
2.33223E-08 1.11378E-12
3.04617E-08 9.02154E-13
3.85531E-08 7.34720E-13
4.75965E-08 6.03528E-13
5.75917E-08 5.00964E-13
6.85389E-08 4.20530E-13
8.04380E-08 3.56729E-13
9.32891E-08 3.05532E-13
1.07092E-07 2.63928E-13
1.21847E-07 2.29641E-13
1.37554E-07 2.01042E-13
1.54213E-07 1.76924E-13
1.71823E-07 1.56360E-13
1.90386E-07 1.38665E-13
2.09900E-07 1.23352E-13
2.30367E-07 1.10020E-13
2.51785E-07 9.83302E-14
2.74156E-07 8.74174E-14
2.97478E-07 7.80397E-14
3.21752E-07 7.00259E-14
3.46978E-07 6.31419E-14
3.73156E-07 5.71985E-14
4.00286E-07 5.19535E-14
4.28368E-07 4.67386E-14
4.57402E-07 4.22093E-14
4.87388E-07 3.82594E-14
5.18325E-07 3.48009E-14
5.50215E-07 3.17613E-14
5.83057E-07 2.89951E-14
6.16850E-07 2.63945E-14
6.51596E-07 2.40950E-14
6.87293E-07 2.20556E-14
7.23942E-07 2.02412E-14
7.61543E-07 1.86225E-14
1.18991E-06 8.66800E-15
1.71347E-06 4.64759E-15
2.33223E-06 2.76790E-15
3.04617E-06 1.77064E-15
3.85531E-06 1.18907E-15
4.75964E-06 8.27315E-16
5.75916E-06 5.91477E-16
6.85388E-06 4.32050E-16
8.04378E-06 3.21813E-16
9.32888E-06 2.43957E-16
1.07092E-05 1.87885E-16
1.21846E-05 1.46782E-16
1.37553E-05 1.16218E-16
1.54212E-05 9.31573E-17
1.71822E-05 7.55188E-17
1.90385E-05 6.18548E-17
2.09899E-05 5.11546E-17
2.30365E-05 4.26755E-17
2.51783E-05 3.58866E-17
2.74153E-05 3.03960E-17
2.97475E-05 2.59268E-17
3.21749E-05 2.22522E-17
3.46974E-05 1.92097E-17
3.73152E-05 1.66744E-17
4.00281E-05 1.45438E-17
4.28362E-05 1.27474E-17
4.57395E-05 1.12184E-17
4.87380E-05 9.91460E-18
5.18317E-05 8.79449E-18
5.50205E-05 7.82880E-18
5.83045E-05 6.99275E-18
6.16838E-05 6.26493E-18
6.51582E-05 5.63058E-18
6.87277E-05 5.07346E-18
7.23925E-05 4.58445E-18
7.61524E-05 4.15253E-18
9.21439E-05 2.86011E-18
1.09658E-04 2.03289E-18
1.28695E-04 1.48388E-18
1.49255E-04 1.10797E-18
1.71338E-04 8.43668E-19
1.94942E-04 6.53469E-19
2.20070E-04 5.13861E-19
2.46720E-04 4.09544E-19
2.74892E-04 3.30341E-19
3.04586E-04 2.69349E-19
3.35803E-04 2.21778E-19
3.68542E-04 1.84240E-19
4.02802E-04 1.54302E-19
4.38585E-04 1.30194E-19
4.75889E-04 1.10607E-19
5.14715E-04 9.45632E-20
5.55063E-04 8.13201E-20
5.96931E-04 7.03126E-20
6.40321E-04 6.11031E-20
6.85233E-04 5.33510E-20
7.31665E-04 4.67881E-20
7.79618E-04 4.12025E-20
8.29092E-04 3.64249E-20
8.80086E-04 3.23190E-20
9.32601E-04 2.87749E-20
9.86636E-04 2.57027E-20
1.04219E-03 2.30293E-20
1.09927E-03 2.06940E-20
1.15786E-03 1.86470E-20
1.21797E-03 1.68465E-20
1.27961E-03 1.52578E-20
1.34276E-03 1.38518E-20
1.40743E-03 1.26038E-20
1.47362E-03 1.14931E-20
1.54133E-03 1.05018E-20
1.61056E-03 9.61501E-21
1.68131E-03 8.81969E-21
1.75357E-03 8.10480E-21
1.82735E-03 7.46078E-21
1.90265E-03 6.87936E-21
1.97947E-03 6.35339E-21
2.05780E-03 5.87666E-21
2.13765E-03 5.44373E-21
2.21902E-03 5.04988E-21
2.30190E-03 4.69094E-21
2.38630E-03 4.36328E-21
2.47222E-03 4.06367E-21
2.55965E-03 3.78930E-21
2.64859E-03 3.53765E-21
2.73905E-03 3.30651E-21
2.83103E-03 3.09391E-21
2.92452E-03 2.89808E-21
3.01952E-03 2.71748E-21
3.11604E-03 2.55070E-21
3.21407E-03 2.39649E-21
3.31362E-03 2.25374E-21
3.41468E-03 2.12143E-21
3.51725E-03 1.99867E-21
3.62133E-03 1.88465E-21
3.72692E-03 1.77862E-21
3.83403E-03 1.67993E-21
3.94265E-03 1.58797E-21
4.05278E-03 1.50221E-21
4.16442E-03 1.42214E-21
4.27757E-03 1.34733E-21
4.39223E-03 1.27735E-21
4.50840E-03 1.21185E-21
4.62608E-03 1.15049E-21
4.74527E-03 1.09295E-21
4.86597E-03 1.03895E-21
4.98817E-03 9.88244E-22
5.11188E-03 9.40581E-22
5.23711E-03 8.95750E-22
5.36383E-03 8.53551E-22
5.49207E-03 8.13801E-22
5.62181E-03 7.76331E-22
5.75306E-03 7.40988E-22
5.88581E-03 7.07627E-22
6.02007E-03 6.76118E-22
6.15583E-03 6.46338E-22
6.29310E-03 6.18174E-22
6.43187E-03 5.91524E-22
6.57214E-03 5.66290E-22
6.71392E-03 5.42383E-22
6.85720E-03 5.19720E-22
7.00198E-03 4.98226E-22
7.14827E-03 4.77827E-22
7.29605E-03 4.58459E-22
7.44534E-03 4.40059E-22
7.59612E-03 4.22569E-22
7.97965E-03 3.82489E-22
8.37255E-03 3.47036E-22
8.77480E-03 3.15583E-22
9.18641E-03 2.87603E-22
9.60736E-03 2.62646E-22
1.00376E-02 2.40329E-22
1.04773E-02 2.20324E-22
1.09262E-02 2.02350E-22
1.13844E-02 1.86166E-22
1.18520E-02 1.71562E-22
1.23288E-02 1.58356E-22
1.28150E-02 1.46392E-22
1.33104E-02 1.35532E-22
1.38150E-02 1.25657E-22
1.43290E-02 1.16661E-22
1.48521E-02 1.08453E-22
1.53845E-02 1.00950E-22
1.59262E-02 9.40825E-23
1.64770E-02 8.77864E-23
1.70371E-02 8.20058E-23
1.76063E-02 7.66910E-23
1.81848E-02 7.17977E-23
1.87724E-02 6.72866E-23
1.93692E-02 6.31225E-23
1.99751E-02 5.92739E-23
2.05901E-02 5.57127E-23
2.12143E-02 5.24135E-23
2.18476E-02 4.93537E-23
2.24900E-02 4.65126E-23
2.31415E-02 4.38720E-23
2.38021E-02 4.14149E-23
2.44717E-02 3.91265E-23
2.51504E-02 3.69931E-23
2.58382E-02 3.50022E-23
2.65349E-02 3.31427E-23
2.72407E-02 3.14043E-23
2.79555E-02 2.97776E-23
2.86793E-02 2.82542E-23
2.94120E-02 2.68264E-23
3.01537E-02 2.54870E-23
3.09043E-02 2.42296E-23
3.16639E-02 2.30483E-23
3.24324E-02 2.19376E-23
3.32098E-02 2.08926E-23
3.39961E-02 1.99085E-23
3.47912E-02 1.89814E-23
3.55952E-02 1.81071E-23
3.64081E-02 1.72823E-23
3.72297E-02 1.65035E-23
3.80602E-02 1.57678E-23
3.88995E-02 1.50722E-23
3.97476E-02 1.44144E-23
4.06044E-02 1.37917E-23
4.14700E-02 1.32020E-23
4.23443E-02 1.26432E-23
4.32273E-02 1.21135E-23
4.41190E-02 1.16109E-23
4.50194E-02 1.11340E-23
4.59284E-02 1.06810E-23
4.68461E-02 1.02507E-23
4.87074E-02 9.45253E-24
5.06030E-02 8.72989E-24
5.25328E-02 8.07439E-24
5.44967E-02 7.47871E-24
5.64946E-02 6.93644E-24
5.85262E-02 6.44197E-24
6.05914E-02 5.99035E-24
6.26901E-02 5.57721E-24
6.48222E-02 5.19871E-24
6.69873E-02 4.85144E-24
6.91854E-02 4.53237E-24
7.14163E-02 4.23880E-24
7.36799E-02 3.96835E-24
7.59760E-02 3.71887E-24
7.83043E-02 3.48846E-24
8.06647E-02 3.27539E-24
8.30571E-02 3.07814E-24
8.54812E-02 2.89533E-24
8.79369E-02 2.72570E-24
9.04240E-02 2.56815E-24
9.29422E-02 2.42166E-24
9.54915E-02 2.28532E-24
9.80716E-02 2.15830E-24
1.00682E-01 2.03985E-24
1.03323E-01 1.92930E-24
1.05995E-01 1.82601E-24
1.08696E-01 1.72944E-24
1.11427E-01 1.63906E-24
1.14188E-01 1.55441E-24
1.16978E-01 1.47507E-24
1.19797E-01 1.40063E-24
1.22645E-01 1.33075E-24
1.25522E-01 1.26509E-24
1.28428E-01 1.20336E-24
1.31361E-01 1.14527E-24
1.34323E-01 1.09059E-24
1.37313E-01 1.03906E-24
1.40330E-01 9.90476E-25
1.43375E-01 9.44643E-25
1.46447E-01 9.01375E-25
1.49545E-01 8.60502E-25
1.52671E-01 8.21870E-25
1.55823E-01 7.85333E-25
1.59001E-01 7.50758E-25
1.62205E-01 7.18021E-25
1.65435E-01 6.87006E-25
1.68690E-01 6.57608E-25
1.71970E-01 6.29727E-25
1.75276E-01 6.03270E-25
1.78606E-01 5.78153E-25
1.81961E-01 5.54296E-25
1.85340E-01 5.31623E-25
1.88743E-01 5.10067E-25
1.92169E-01 4.89562E-25
1.95619E-01 4.70047E-25
1.99092E-01 4.51468E-25
2.02589E-01 4.33770E-25
2.06107E-01 4.16906E-25
2.09649E-01 4.00828E-25
2.13212E-01 3.85493E-25
2.16797E-01 3.70862E-25
2.20404E-01 3.56895E-25
2.24032E-01 3.43559E-25
2.27680E-01 3.30819E-25
2.31350E-01 3.18643E-25
2.35040E-01 3.07003E-25
2.38751E-01 2.95871E-25
2.42481E-01 2.85221E-25
2.46231E-01 2.75028E-25
2.50000E-01 2.65270E-25
2.53788E-01 2.55923E-25
2.57595E-01 2.46969E-25
2.61421E-01 2.38388E-25
2.65264E-01 2.30161E-25
2.69126E-01 2.22271E-25
2.73005E-01 2.14702E-25
2.76901E-01 2.07439E-25
2.80814E-01 2.00467E-25
2.84744E-01 1.93773E-25
2.88691E-01 1.87344E-25
2.92653E-01 1.81166E-25
2.96632E-01 1.75229E-25
3.00625E-01 1.69522E-25
3.04634E-01 1.64035E-25
3.08658E-01 1.58756E-25
3.12697E-01 1.53678E-25
3.16749E-01 1.48791E-25
3.20816E-01 1.44086E-25
3.24896E-01 1.39556E-25
3.28990E-01 1.35193E-25
3.33097E-01 1.30990E-25
3.37216E-01 1.26940E-25
3.41348E-01 1.23037E-25
3.45492E-01 1.19274E-25
3.49647E-01 1.15645E-25
3.53814E-01 1.12145E-25
3.57992E-01 1.08768E-25
3.62181E-01 1.05510E-25
3.66381E-01 1.02365E-25
3.70590E-01 9.93293E-26
3.74810E-01 9.63978E-26
3.79039E-01 9.35665E-26
3.83277E-01 9.08314E-26
3.87524E-01 8.81888E-26
3.91780E-01 8.56349E-26
3.96044E-01 8.31663E-26
4.00316E-01 8.07797E-26
4.04596E-01 7.84718E-26
4.08882E-01 7.62397E-26
4.13176E-01 7.40804E-26
4.17476E-01 7.19911E-26
4.21783E-01 6.99693E-26
4.26095E-01 6.80124E-26
4.30413E-01 6.61179E-26
4.34737E-01 6.42835E-26
4.39065E-01 6.25071E-26
4.43398E-01 6.07864E-26
4.47736E-01 5.91194E-26
4.52077E-01 5.75042E-26
4.56422E-01 5.59390E-26
4.60770E-01 5.44218E-26
4.65122E-01 5.29510E-26
4.69476E-01 5.15250E-26
4.73832E-01 5.01421E-26
4.78190E-01 4.88009E-26
4.82550E-01 4.74998E-26
4.86912E-01 4.62376E-26
4.91274E-01 4.50127E-26
4.95637E-01 4.38240E-26
5.00000E-01 4.26703E-26
5.04363E-01 4.15502E-26
5.08726E-01 4.04628E-26
5.13088E-01 3.94068E-26
5.17450E-01 3.83812E-26
5.21810E-01 3.73851E-26
5.26168E-01 3.64174E-26
5.30524E-01 3.54771E-26
5.34878E-01 3.45635E-26
5.39230E-01 3.36756E-26
5.43578E-01 3.28125E-26
5.47923E-01 3.19736E-26
5.52264E-01 3.11579E-26
5.56602E-01 3.03648E-26
5.60935E-01 2.95935E-26
5.65263E-01 2.88434E-26
5.69587E-01 2.81137E-26
5.73905E-01 2.74039E-26
5.78217E-01 2.67133E-26
5.82524E-01 2.60413E-26
5.86824E-01 2.53873E-26
5.91118E-01 2.47508E-26
5.95404E-01 2.41312E-26
5.99684E-01 2.35280E-26
6.03956E-01 2.29408E-26
6.08220E-01 2.23690E-26
6.12476E-01 2.18122E-26
6.16723E-01 2.12699E-26
6.20961E-01 2.07417E-26
6.25190E-01 2.02271E-26
6.29410E-01 1.97259E-26
6.33619E-01 1.92375E-26
6.37819E-01 1.87616E-26
6.42008E-01 1.82978E-26
6.46186E-01 1.78458E-26
6.50353E-01 1.74053E-26
6.54508E-01 1.69758E-26
6.58652E-01 1.65572E-26
6.62784E-01 1.61490E-26
6.66903E-01 1.57510E-26
6.71010E-01 1.53630E-26
6.75104E-01 1.49845E-26
6.79184E-01 1.46154E-26
6.83251E-01 1.42553E-26
6.87303E-01 1.39041E-26
6.91342E-01 1.35615E-26
6.95366E-01 1.32273E-26
6.99375E-01 1.29011E-26
7.03368E-01 1.25829E-26
7.07347E-01 1.22723E-26
7.11309E-01 1.19693E-26
7.15256E-01 1.16735E-26
7.19186E-01 1.13847E-26
7.23099E-01 1.11029E-26
7.26995E-01 1.08278E-26
7.30874E-01 1.05592E-26
7.34736E-01 1.02969E-26
7.38579E-01 1.00409E-26
7.42405E-01 9.79087E-27
7.46212E-01 9.54671E-27
7.50000E-01 9.30828E-27
7.53769E-01 9.07541E-27
7.57519E-01 8.84797E-27
7.61249E-01 8.62582E-27
7.64960E-01 8.40882E-27
7.68650E-01 8.19685E-27
7.72320E-01 7.98976E-27
7.75968E-01 7.78745E-27
7.79596E-01 7.58979E-27
7.83203E-01 7.39667E-27
7.86788E-01 7.20797E-27
7.90351E-01 7.02358E-27
7.93893E-01 6.84340E-27
7.97411E-01 6.66732E-27
8.00908E-01 6.49525E-27
8.04381E-01 6.32708E-27
8.07831E-01 6.16272E-27
8.11257E-01 6.00209E-27
8.14660E-01 5.84509E-27
8.18039E-01 5.69163E-27
8.21394E-01 5.54163E-27
8.24724E-01 5.39501E-27
8.28030E-01 5.25169E-27
8.31310E-01 5.11159E-27
8.34565E-01 4.97463E-27
8.37795E-01 4.84075E-27
8.40999E-01 4.70988E-27
8.44177E-01 4.58194E-27
8.47329E-01 4.45686E-27
8.50455E-01 4.33459E-27
8.53553E-01 4.21505E-27
8.56625E-01 4.09820E-27
8.59670E-01 3.98395E-27
8.62687E-01 3.87227E-27
8.65677E-01 3.76309E-27
8.68639E-01 3.65636E-27
8.71572E-01 3.55202E-27
8.74478E-01 3.45003E-27
8.77355E-01 3.35032E-27
8.80203E-01 3.25286E-27
8.83022E-01 3.15759E-27
8.85812E-01 3.06447E-27
8.88573E-01 2.97345E-27
8.91304E-01 2.88448E-27
8.94005E-01 2.79754E-27
8.96677E-01 2.71256E-27
8.99318E-01 2.62952E-27
9.01928E-01 2.54838E-27
9.04508E-01 2.46908E-27
9.07058E-01 2.39161E-27
9.09576E-01 2.31592E-27
9.12063E-01 2.24197E-27
9.14519E-01 2.16973E-27
9.16943E-01 2.09918E-27
9.19335E-01 2.03026E-27
9.21696E-01 1.96297E-27
9.24024E-01 1.89725E-27
9.26320E-01 1.83309E-27
9.28584E-01 1.77046E-27
9.30815E-01 1.70932E-27
9.33013E-01 1.64964E-27
9.35178E-01 1.59142E-27
9.37310E-01 1.53460E-27
9.39409E-01 1.47918E-27
9.41474E-01 1.42512E-27
9.43505E-01 1.37241E-27
9.45503E-01 1.32102E-27
9.47467E-01 1.27092E-27
9.49397E-01 1.22210E-27
9.51293E-01 1.17453E-27
9.53154E-01 1.12819E-27
9.54981E-01 1.08307E-27
9.56773E-01 1.03914E-27
9.58530E-01 9.96384E-28
9.60252E-01 9.54786E-28
9.61940E-01 9.14326E-28
9.63592E-01 8.74988E-28
9.65209E-01 8.36755E-28
9.66790E-01 7.99610E-28
9.68336E-01 7.63539E-28
9.69846E-01 7.28525E-28
9.71321E-01 6.94554E-28
9.72759E-01 6.61613E-28
9.74162E-01 6.29686E-28
9.75528E-01 5.98762E-28
9.76858E-01 5.68826E-28
9.78152E-01 5.39867E-28
9.79410E-01 5.11873E-28
9.80631E-01 4.84832E-28
9.81815E-01 4.58734E-28
9.82963E-01 4.33566E-28
9.84074E-01 4.09320E-28
9.85148E-01 3.85985E-28
9.86185E-01 3.63551E-28
9.87185E-01 3.42010E-28
9.88148E-01 3.21353E-28
9.89074E-01 3.01571E-28
9.89962E-01 2.82656E-28
9.90814E-01 2.64601E-28
9.91627E-01 2.47399E-28
9.92404E-01 2.31042E-28
9.93143E-01 2.15524E-28
9.93844E-01 2.00838E-28
9.94508E-01 1.86979E-28
9.95134E-01 1.73942E-28
9.95722E-01 1.61721E-28
9.96273E-01 1.50310E-28
9.96786E-01 1.39707E-28
9.97261E-01 1.29905E-28
9.97698E-01 1.20902E-28
9.98097E-01 1.12694E-28
9.98459E-01 1.05277E-28
9.98782E-01 9.86489E-29
9.99067E-01 9.28068E-29
9.99315E-01 8.77483E-29
9.99524E-01 8.34714E-29
9.99695E-01 7.99744E-29
9.99829E-01 7.72560E-29
9.99924E-01 7.53150E-29
9.99981E-01 7.41507E-29
1.00000E+00 7.37629E-29
