 #
 # Subroutine ELSEPA. Elastic scattering of electrons and positrons
 #                    by neutral atoms and positive ions
 #
 # Projectile: positron
 # Kinetic energy = 8.00000E+08 eV = 2.93995E+07 a.u.
 #
 # WARNING: High-energy factorization with free-atom DF screening.
 #          Absorption, polarization and exchange corrections are
 #          switched off.
 #          Phase shifts are calculated for the bare nucleus.
 #          Scattering amplitudes are not evaluated.
 #
 # Element: Sc,  Z =  21,  atomic weight = 4.49559E+01 g/mol
 #
 # Nuclear model: Fermi distribution
 #                Average radius = 3.80463E-13 cm
 #                Skin thickness = 5.46000E-14 cm
 #
 # Number of electrons = 21
 #
 # Total elastic cross section = 1.84418E-18 cm**2 = 6.58570E-02 a0**2
 # 1st transport cross section = 1.45207E-27 cm**2 = 5.18544E-11 a0**2
 # 2nd transport cross section = 4.35529E-27 cm**2 = 1.55530E-10 a0**2
 #
 #
 # Differential cross section:                       MU=(1-COS(THETA))/2
 #
 #  THETA        MU          DCS          DCS        Sherman      error
 #  (deg)                 (cm**2/sr)   (a0**2/sr)    function
 #----------------------------------------------------------------------
0.00000E+00 2.11578E-08
7.61557E-13 1.59559E-08
1.18994E-12 1.38432E-08
1.71346E-12 1.18013E-08
2.33225E-12 9.94568E-09
3.04617E-12 8.33283E-09
3.85530E-12 6.97133E-09
4.75964E-12 5.84798E-09
5.75917E-12 4.92851E-09
6.85391E-12 4.18342E-09
8.04379E-12 3.57661E-09
9.32893E-12 3.08279E-09
1.07092E-11 2.67697E-09
1.21847E-11 2.34137E-09
1.37554E-11 2.06109E-09
1.54213E-11 1.82480E-09
1.71823E-11 1.62377E-09
1.90386E-11 1.45120E-09
2.09900E-11 1.30177E-09
2.30367E-11 1.17160E-09
2.51785E-11 1.05716E-09
2.74156E-11 9.56390E-10
2.97478E-11 8.66733E-10
3.21752E-11 7.87101E-10
3.46979E-11 7.15752E-10
3.73157E-11 6.49079E-10
4.00286E-11 5.88617E-10
4.28368E-11 5.35789E-10
4.57402E-11 4.89457E-10
4.87388E-11 4.48669E-10
5.18325E-11 4.12637E-10
5.50215E-11 3.80696E-10
5.83057E-11 3.48971E-10
6.16850E-11 3.19650E-10
6.51595E-11 2.93583E-10
6.87293E-11 2.70340E-10
7.23943E-11 2.49557E-10
7.61544E-11 2.30924E-10
1.18991E-10 1.10461E-10
1.71347E-10 5.90772E-11
2.33223E-10 3.48747E-11
3.04617E-10 2.22315E-11
3.85531E-10 1.49976E-11
4.75965E-10 1.05278E-11
5.75917E-10 7.62064E-12
6.85389E-10 5.63709E-12
8.04380E-10 4.25269E-12
9.32891E-10 3.25657E-12
1.07092E-09 2.53047E-12
1.21847E-09 1.99094E-12
1.37554E-09 1.58534E-12
1.54213E-09 1.27614E-12
1.71823E-09 1.03770E-12
1.90386E-09 8.51837E-13
2.09900E-09 7.05416E-13
2.30367E-09 5.89026E-13
2.51785E-09 4.95601E-13
2.74156E-09 4.20001E-13
2.97478E-09 3.58280E-13
3.21752E-09 3.07528E-13
3.46978E-09 2.65477E-13
3.73156E-09 2.30383E-13
4.00286E-09 2.00942E-13
4.28368E-09 1.76116E-13
4.57402E-09 1.54996E-13
4.87388E-09 1.36979E-13
5.18326E-09 1.21535E-13
5.50215E-09 1.08193E-13
5.83057E-09 9.66567E-14
6.16850E-09 8.66267E-14
6.51596E-09 7.78614E-14
6.87293E-09 7.01925E-14
7.23942E-09 6.34421E-14
7.61544E-09 5.74857E-14
1.18991E-08 2.40786E-14
1.71347E-08 1.17844E-14
2.33223E-08 6.42141E-15
3.04617E-08 3.78742E-15
3.85531E-08 2.37411E-15
4.75965E-08 1.56195E-15
5.75917E-08 1.06887E-15
6.85389E-08 7.55717E-16
8.04380E-08 5.49207E-16
9.32891E-08 4.08614E-16
1.07092E-07 3.10239E-16
1.21847E-07 2.39751E-16
1.37554E-07 1.88185E-16
1.54213E-07 1.49762E-16
1.71823E-07 1.20660E-16
1.90386E-07 9.82940E-17
2.09900E-07 8.08772E-17
2.30367E-07 6.71519E-17
2.51785E-07 5.62180E-17
2.74156E-07 4.74212E-17
2.97478E-07 4.02794E-17
3.21752E-07 3.44327E-17
3.46978E-07 2.96092E-17
3.73156E-07 2.56015E-17
4.00286E-07 2.22494E-17
4.28368E-07 1.94283E-17
4.57402E-07 1.70405E-17
4.87388E-07 1.50084E-17
5.18325E-07 1.32705E-17
5.50215E-07 1.17769E-17
5.83057E-07 1.04876E-17
6.16850E-07 9.37007E-18
6.51596E-07 8.39747E-18
6.87293E-07 7.54784E-18
7.23942E-07 6.80299E-18
7.61543E-07 6.14779E-18
1.18991E-06 2.51807E-18
1.71347E-06 1.21427E-18
2.33223E-06 6.55385E-19
3.04617E-06 3.84143E-19
3.85531E-06 2.39797E-19
4.75964E-06 1.57317E-19
5.75916E-06 1.07440E-19
6.85388E-06 7.58525E-20
8.04378E-06 5.50657E-20
9.32888E-06 4.09356E-20
1.07092E-05 3.10604E-20
1.21846E-05 2.39912E-20
1.37553E-05 1.88232E-20
1.54212E-05 1.49747E-20
1.71822E-05 1.20613E-20
1.90385E-05 9.82249E-21
2.09899E-05 8.08075E-21
2.30365E-05 6.70838E-21
2.51783E-05 5.61517E-21
2.74153E-05 4.73567E-21
2.97475E-05 4.02172E-21
3.21749E-05 3.43734E-21
3.46974E-05 2.95535E-21
3.73152E-05 2.55499E-21
4.00281E-05 2.22020E-21
4.28362E-05 1.93851E-21
4.57395E-05 1.70009E-21
4.87380E-05 1.49721E-21
5.18317E-05 1.32369E-21
5.50205E-05 1.17458E-21
5.83045E-05 1.04588E-21
6.16838E-05 9.34320E-22
6.51582E-05 8.37250E-22
6.87277E-05 7.52466E-22
7.23925E-05 6.78149E-22
7.61524E-05 6.02996E-22
9.21439E-05 4.10138E-22
1.09658E-04 2.88252E-22
1.28695E-04 2.08232E-22
1.49255E-04 1.53970E-22
1.71338E-04 1.16154E-22
1.94942E-04 8.91622E-23
2.20070E-04 6.94930E-23
2.46720E-04 5.48957E-23
2.74892E-04 4.38849E-23
3.04586E-04 3.54591E-23
3.35803E-04 2.89266E-23
3.68542E-04 2.38027E-23
4.02802E-04 1.97405E-23
4.38585E-04 1.64888E-23
4.75889E-04 1.38628E-23
5.14715E-04 1.17248E-23
5.55063E-04 9.97107E-24
5.96931E-04 8.52263E-24
6.40321E-04 7.31869E-24
6.85233E-04 6.31205E-24
7.31665E-04 5.46572E-24
7.79618E-04 4.75054E-24
8.29092E-04 4.14328E-24
8.80086E-04 3.62535E-24
9.32601E-04 3.18176E-24
9.86636E-04 2.80035E-24
1.04219E-03 2.47118E-24
1.09927E-03 2.18611E-24
1.15786E-03 1.93843E-24
1.21797E-03 1.72257E-24
1.27961E-03 1.53389E-24
1.34276E-03 1.36852E-24
1.40743E-03 1.22320E-24
1.47362E-03 1.09518E-24
1.54133E-03 9.82141E-25
1.61056E-03 8.82110E-25
1.68131E-03 7.93404E-25
1.75357E-03 7.14583E-25
1.82735E-03 6.44415E-25
1.90265E-03 5.81837E-25
1.97947E-03 5.25932E-25
2.05780E-03 4.75909E-25
2.13765E-03 4.31079E-25
2.21902E-03 3.90844E-25
2.30190E-03 3.54683E-25
2.38630E-03 3.22141E-25
2.47222E-03 2.92818E-25
2.55965E-03 2.66364E-25
2.64859E-03 2.42471E-25
2.73905E-03 2.20867E-25
2.83103E-03 2.01314E-25
2.92452E-03 1.83599E-25
3.01952E-03 1.67534E-25
3.11604E-03 1.52953E-25
3.21407E-03 1.39707E-25
3.31362E-03 1.27665E-25
3.41468E-03 1.16708E-25
3.51725E-03 1.06733E-25
3.62133E-03 9.76439E-26
3.72692E-03 8.93577E-26
3.83403E-03 8.17986E-26
3.94265E-03 7.48989E-26
4.05278E-03 6.85975E-26
4.16442E-03 6.28397E-26
4.27757E-03 5.75761E-26
4.39223E-03 5.27621E-26
4.50840E-03 4.83574E-26
4.62608E-03 4.43257E-26
4.74527E-03 4.06339E-26
4.86597E-03 3.72524E-26
4.98817E-03 3.41540E-26
5.11188E-03 3.13143E-26
5.23711E-03 2.87109E-26
5.36383E-03 2.63237E-26
5.49207E-03 2.41342E-26
5.62181E-03 2.21256E-26
5.75306E-03 2.02827E-26
5.88581E-03 1.85916E-26
6.02007E-03 1.70396E-26
6.15583E-03 1.56151E-26
6.29310E-03 1.43075E-26
6.43187E-03 1.31071E-26
6.57214E-03 1.20052E-26
6.71392E-03 1.09936E-26
6.85720E-03 1.00649E-26
7.00198E-03 9.21241E-27
7.14827E-03 8.42983E-27
7.29605E-03 7.71149E-27
7.44534E-03 7.05218E-27
7.59612E-03 6.44711E-27
7.97965E-03 5.14380E-27
8.37255E-03 4.09362E-27
8.77480E-03 3.24854E-27
9.18641E-03 2.56962E-27
9.60736E-03 2.02528E-27
1.00376E-02 1.58987E-27
1.04773E-02 1.24254E-27
1.09262E-02 9.66342E-28
1.13844E-02 7.47497E-28
1.18520E-02 5.74800E-28
1.23288E-02 4.39148E-28
1.28150E-02 3.33150E-28
1.33104E-02 2.50814E-28
1.38150E-02 1.87287E-28
1.43290E-02 1.38648E-28
1.48521E-02 1.01735E-28
1.53845E-02 7.40053E-29
1.59262E-02 5.34210E-29
1.64770E-02 3.83544E-29
1.70371E-02 2.75110E-29
1.76063E-02 1.98667E-29
1.81848E-02 1.46155E-29
1.87724E-02 1.11276E-29
1.93692E-02 8.91446E-30
1.99751E-02 7.60091E-30
2.05901E-02 6.90175E-30
2.12143E-02 6.60316E-30
2.18476E-02 6.54750E-30
2.24900E-02 6.62099E-30
2.31415E-02 6.74378E-30
2.38021E-02 6.86205E-30
2.44717E-02 6.94161E-30
2.51504E-02 6.96291E-30
2.58382E-02 6.91700E-30
2.65349E-02 6.80251E-30
2.72407E-02 6.62316E-30
2.79555E-02 6.38597E-30
2.86793E-02 6.09984E-30
2.94120E-02 5.77457E-30
3.01537E-02 5.42007E-30
3.09043E-02 5.04584E-30
3.16639E-02 4.66068E-30
3.24324E-02 4.27242E-30
3.32098E-02 3.88786E-30
3.39961E-02 3.51268E-30
3.47912E-02 3.15152E-30
3.55952E-02 2.80798E-30
3.64081E-02 2.48475E-30
3.72297E-02 2.18366E-30
3.80602E-02 1.90582E-30
3.88995E-02 1.65172E-30
3.97476E-02 1.42129E-30
4.06044E-02 1.21405E-30
4.14700E-02 1.02918E-30
4.23443E-02 8.65578E-31
4.32273E-02 7.21956E-31
4.41190E-02 5.96899E-31
4.50194E-02 4.88913E-31
4.59284E-02 3.96472E-31
4.68461E-02 3.18052E-31
4.87074E-02 1.97381E-31
5.06030E-02 1.15780E-31
5.25328E-02 6.34891E-32
5.44967E-02 3.23237E-32
5.64946E-02 1.56945E-32
5.85262E-02 8.50251E-33
6.05914E-02 6.95997E-33
6.26901E-02 8.37947E-33
6.48222E-02 1.09575E-32
6.69873E-02 1.35717E-32
6.91854E-02 1.56015E-32
7.14163E-02 1.67782E-32
7.36799E-02 1.70636E-32
7.59760E-02 1.65578E-32
7.83043E-02 1.54311E-32
8.06647E-02 1.38761E-32
8.30571E-02 1.20780E-32
8.54812E-02 1.01967E-32
8.79369E-02 8.35815E-33
9.04240E-02 6.65315E-33
9.29422E-02 5.13947E-33
9.54915E-02 3.84671E-33
9.80716E-02 2.78208E-33
1.00682E-01 1.93631E-33
1.03323E-01 1.28914E-33
1.05995E-01 8.13936E-34
1.08696E-01 4.81446E-34
1.11427E-01 2.62574E-34
1.14188E-01 1.30298E-34
1.16978E-01 6.08556E-35
1.19797E-01 3.43163E-35
1.22645E-01 3.47136E-35
1.25522E-01 4.98506E-35
1.28428E-01 7.09027E-35
1.31361E-01 9.19101E-35
1.34323E-01 1.09231E-34
1.37313E-01 1.21008E-34
1.40330E-01 1.26680E-34
1.43375E-01 1.26570E-34
1.46447E-01 1.21533E-34
1.49545E-01 1.12693E-34
1.52671E-01 1.01245E-34
1.55823E-01 8.83202E-35
1.59001E-01 7.49007E-35
1.62205E-01 6.17783E-35
1.65435E-01 4.95403E-35
1.68690E-01 3.85793E-35
1.71970E-01 2.91152E-35
1.75276E-01 2.12249E-35
1.78606E-01 1.48745E-35
1.81961E-01 9.95103E-36
1.85340E-01 6.29066E-36
1.88743E-01 3.70284E-36
1.92169E-01 1.98946E-36
1.95619E-01 9.59193E-37
1.99092E-01 4.37403E-37
2.02589E-01 2.72187E-37
2.06107E-01 3.37087E-37
2.09649E-01 5.31675E-37
2.13212E-01 7.79962E-37
2.16797E-01 1.02806E-36
2.20404E-01 1.24076E-36
2.24032E-01 1.39811E-36
2.27680E-01 1.49201E-36
2.31350E-01 1.52288E-36
2.35040E-01 1.49702E-36
2.38751E-01 1.42408E-36
2.42481E-01 1.31539E-36
2.46231E-01 1.18240E-36
2.50000E-01 1.03585E-36
2.53788E-01 8.85018E-37
2.57595E-01 7.37532E-37
2.61421E-01 5.99171E-37
2.65264E-01 4.73941E-37
2.69126E-01 3.64292E-37
2.73005E-01 2.71269E-37
2.76901E-01 1.94848E-37
2.80814E-01 1.34155E-37
2.84744E-01 8.77358E-38
2.88691E-01 5.37802E-38
2.92653E-01 3.03073E-38
2.96632E-01 1.53219E-38
3.00625E-01 6.93163E-39
3.04634E-01 3.41785E-39
3.08658E-01 3.29811E-39
3.12697E-01 5.32902E-39
3.16749E-01 8.52284E-39
3.20816E-01 1.21212E-38
3.24896E-01 1.55807E-38
3.28990E-01 1.85378E-38
3.33097E-01 2.07745E-38
3.37216E-01 2.22020E-38
3.41348E-01 2.28113E-38
3.45492E-01 2.26643E-38
3.49647E-01 2.18683E-38
3.53814E-01 2.05511E-38
3.57992E-01 1.88495E-38
3.62181E-01 1.68994E-38
3.66381E-01 1.48240E-38
3.70590E-01 1.27266E-38
3.74810E-01 1.06951E-38
3.79039E-01 8.79266E-39
3.83277E-01 7.06514E-39
3.87524E-01 5.53799E-39
3.91780E-01 4.22363E-39
3.96044E-01 3.12189E-39
4.00316E-01 2.22432E-39
4.04596E-01 1.00000E-45
4.08882E-01 1.00000E-45
4.13176E-01 1.00000E-45
4.17476E-01 1.00000E-45
4.21783E-01 1.00000E-45
4.26095E-01 1.00000E-45
4.30413E-01 1.00000E-45
4.34737E-01 1.00000E-45
4.39065E-01 1.00000E-45
4.43398E-01 1.00000E-45
4.47736E-01 1.00000E-45
4.52077E-01 1.00000E-45
4.56422E-01 1.00000E-45
4.60770E-01 1.00000E-45
4.65122E-01 1.00000E-45
4.69476E-01 1.00000E-45
4.73832E-01 1.00000E-45
4.78190E-01 1.00000E-45
4.82550E-01 1.00000E-45
4.86912E-01 1.00000E-45
4.91274E-01 1.00000E-45
4.95637E-01 1.00000E-45
5.00000E-01 1.00000E-45
5.04363E-01 1.00000E-45
5.08726E-01 1.00000E-45
5.13088E-01 1.00000E-45
5.17450E-01 1.00000E-45
5.21810E-01 1.00000E-45
5.26168E-01 1.00000E-45
5.30524E-01 1.00000E-45
5.34878E-01 1.00000E-45
5.39230E-01 1.00000E-45
5.43578E-01 1.00000E-45
5.47923E-01 1.00000E-45
5.52264E-01 1.00000E-45
5.56602E-01 1.00000E-45
5.60935E-01 1.00000E-45
5.65263E-01 1.00000E-45
5.69587E-01 1.00000E-45
5.73905E-01 1.00000E-45
5.78217E-01 1.00000E-45
5.82524E-01 1.00000E-45
5.86824E-01 1.00000E-45
5.91118E-01 1.00000E-45
5.95404E-01 1.00000E-45
5.99684E-01 1.00000E-45
6.03956E-01 1.00000E-45
6.08220E-01 1.00000E-45
6.12476E-01 1.00000E-45
6.16723E-01 1.00000E-45
6.20961E-01 1.00000E-45
6.25190E-01 1.00000E-45
6.29410E-01 1.00000E-45
6.33619E-01 1.00000E-45
6.37819E-01 1.00000E-45
6.42008E-01 1.00000E-45
6.46186E-01 1.00000E-45
6.50353E-01 1.00000E-45
6.54508E-01 1.00000E-45
6.58652E-01 1.00000E-45
6.62784E-01 1.00000E-45
6.66903E-01 1.00000E-45
6.71010E-01 1.00000E-45
6.75104E-01 1.00000E-45
6.79184E-01 1.00000E-45
6.83251E-01 1.00000E-45
6.87303E-01 1.00000E-45
6.91342E-01 1.00000E-45
6.95366E-01 1.00000E-45
6.99375E-01 1.00000E-45
7.03368E-01 1.00000E-45
7.07347E-01 1.00000E-45
7.11309E-01 1.00000E-45
7.15256E-01 1.00000E-45
7.19186E-01 1.00000E-45
7.23099E-01 1.00000E-45
7.26995E-01 1.00000E-45
7.30874E-01 1.00000E-45
7.34736E-01 1.00000E-45
7.38579E-01 1.00000E-45
7.42405E-01 1.00000E-45
7.46212E-01 1.00000E-45
7.50000E-01 1.00000E-45
7.53769E-01 1.00000E-45
7.57519E-01 1.00000E-45
7.61249E-01 1.00000E-45
7.64960E-01 1.00000E-45
7.68650E-01 1.00000E-45
7.72320E-01 1.00000E-45
7.75968E-01 1.00000E-45
7.79596E-01 1.00000E-45
7.83203E-01 1.00000E-45
7.86788E-01 1.00000E-45
7.90351E-01 1.00000E-45
7.93893E-01 1.00000E-45
7.97411E-01 1.00000E-45
8.00908E-01 1.00000E-45
8.04381E-01 1.00000E-45
8.07831E-01 1.00000E-45
8.11257E-01 1.00000E-45
8.14660E-01 1.00000E-45
8.18039E-01 1.00000E-45
8.21394E-01 1.00000E-45
8.24724E-01 1.00000E-45
8.28030E-01 1.00000E-45
8.31310E-01 1.00000E-45
8.34565E-01 1.00000E-45
8.37795E-01 1.00000E-45
8.40999E-01 1.00000E-45
8.44177E-01 1.00000E-45
8.47329E-01 1.00000E-45
8.50455E-01 1.00000E-45
8.53553E-01 1.00000E-45
8.56625E-01 1.00000E-45
8.59670E-01 1.00000E-45
8.62687E-01 1.00000E-45
8.65677E-01 1.00000E-45
8.68639E-01 1.00000E-45
8.71572E-01 1.00000E-45
8.74478E-01 1.00000E-45
8.77355E-01 1.00000E-45
8.80203E-01 1.00000E-45
8.83022E-01 1.00000E-45
8.85812E-01 1.00000E-45
8.88573E-01 1.00000E-45
8.91304E-01 1.00000E-45
8.94005E-01 1.00000E-45
8.96677E-01 1.00000E-45
8.99318E-01 1.00000E-45
9.01928E-01 1.00000E-45
9.04508E-01 1.00000E-45
9.07058E-01 1.00000E-45
9.09576E-01 1.00000E-45
9.12063E-01 1.00000E-45
9.14519E-01 1.00000E-45
9.16943E-01 1.00000E-45
9.19335E-01 1.00000E-45
9.21696E-01 1.00000E-45
9.24024E-01 1.00000E-45
9.26320E-01 1.00000E-45
9.28584E-01 1.00000E-45
9.30815E-01 1.00000E-45
9.33013E-01 1.00000E-45
9.35178E-01 1.00000E-45
9.37310E-01 1.00000E-45
9.39409E-01 1.00000E-45
9.41474E-01 1.00000E-45
9.43505E-01 1.00000E-45
9.45503E-01 1.00000E-45
9.47467E-01 1.00000E-45
9.49397E-01 1.00000E-45
9.51293E-01 1.00000E-45
9.53154E-01 1.00000E-45
9.54981E-01 1.00000E-45
9.56773E-01 1.00000E-45
9.58530E-01 1.00000E-45
9.60252E-01 1.00000E-45
9.61940E-01 1.00000E-45
9.63592E-01 1.00000E-45
9.65209E-01 1.00000E-45
9.66790E-01 1.00000E-45
9.68336E-01 1.00000E-45
9.69846E-01 1.00000E-45
9.71321E-01 1.00000E-45
9.72759E-01 1.00000E-45
9.74162E-01 1.00000E-45
9.75528E-01 1.00000E-45
9.76858E-01 1.00000E-45
9.78152E-01 1.00000E-45
9.79410E-01 1.00000E-45
9.80631E-01 1.00000E-45
9.81815E-01 1.00000E-45
9.82963E-01 1.00000E-45
9.84074E-01 1.00000E-45
9.85148E-01 1.00000E-45
9.86185E-01 1.00000E-45
9.87185E-01 1.00000E-45
9.88148E-01 1.00000E-45
9.89074E-01 1.00000E-45
9.89962E-01 1.00000E-45
9.90814E-01 1.00000E-45
9.91627E-01 1.00000E-45
9.92404E-01 1.00000E-45
9.93143E-01 1.00000E-45
9.93844E-01 1.00000E-45
9.94508E-01 1.00000E-45
9.95134E-01 1.00000E-45
9.95722E-01 1.00000E-45
9.96273E-01 1.00000E-45
9.96786E-01 1.00000E-45
9.97261E-01 1.00000E-45
9.97698E-01 1.00000E-45
9.98097E-01 1.00000E-45
9.98459E-01 1.00000E-45
9.98782E-01 1.00000E-45
9.99067E-01 1.00000E-45
9.99315E-01 1.00000E-45
9.99524E-01 1.00000E-45
9.99695E-01 1.00000E-45
9.99829E-01 1.00000E-45
9.99924E-01 1.00000E-45
9.99981E-01 1.00000E-45
1.00000E+00 1.00000E-45
