 #
 # Subroutine ELSEPA. Elastic scattering of electrons and positrons
 #                    by neutral atoms and positive ions
 #
 # Projectile: electron
 # Kinetic energy = 3.50000E+06 eV = 1.28623E+05 a.u.
 #
 # WARNING: High-energy factorization with free-atom DF screening.
 #          Absorption, polarization and exchange corrections are
 #          switched off.
 #          Phase shifts are calculated for the bare nucleus.
 #          Scattering amplitudes are not evaluated.
 #
 # Element:  B,  Z =   5,  atomic weight = 1.08110E+01 g/mol
 #
 # Nuclear model: Fermi distribution
 #                Average radius = 2.36595E-13 cm
 #                Skin thickness = 5.46000E-14 cm
 #
 # Number of electrons =  5
 #
 # Total elastic cross section = 2.17821E-19 cm**2 = 7.77855E-03 a0**2
 # 1st transport cross section = 2.50090E-24 cm**2 = 8.93087E-08 a0**2
 # 2nd transport cross section = 7.17166E-24 cm**2 = 2.56105E-07 a0**2
 #
 #
 # Differential cross section:                       MU=(1-COS(THETA))/2
 #
 #  THETA        MU          DCS          DCS        Sherman      error
 #  (deg)                 (cm**2/sr)   (a0**2/sr)    function
 #----------------------------------------------------------------------
0.00000E+00 4.81142E-14
7.61557E-13 4.81140E-14
1.18994E-12 4.81139E-14
1.71346E-12 4.81138E-14
2.33225E-12 4.81137E-14
3.04617E-12 4.81135E-14
3.85530E-12 4.81133E-14
4.75964E-12 4.81131E-14
5.75917E-12 4.81128E-14
6.85391E-12 4.81126E-14
8.04379E-12 4.81123E-14
9.32893E-12 4.81120E-14
1.07092E-11 4.81117E-14
1.21847E-11 4.81113E-14
1.37554E-11 4.81110E-14
1.54213E-11 4.81106E-14
1.71823E-11 4.81102E-14
1.90386E-11 4.81097E-14
2.09900E-11 4.81093E-14
2.30367E-11 4.81088E-14
2.51785E-11 4.81083E-14
2.74156E-11 4.81078E-14
2.97478E-11 4.81072E-14
3.21752E-11 4.81066E-14
3.46979E-11 4.81060E-14
3.73157E-11 4.81054E-14
4.00286E-11 4.81048E-14
4.28368E-11 4.81041E-14
4.57402E-11 4.81034E-14
4.87388E-11 4.81027E-14
5.18325E-11 4.81020E-14
5.50215E-11 4.81013E-14
5.83057E-11 4.81005E-14
6.16850E-11 4.80997E-14
6.51595E-11 4.80989E-14
6.87293E-11 4.80981E-14
7.23943E-11 4.80972E-14
7.61544E-11 4.80963E-14
1.18991E-10 4.80863E-14
1.71347E-10 4.80740E-14
2.33223E-10 4.80595E-14
3.04617E-10 4.80428E-14
3.85531E-10 4.80239E-14
4.75965E-10 4.80028E-14
5.75917E-10 4.79794E-14
6.85389E-10 4.79539E-14
8.04380E-10 4.79262E-14
9.32891E-10 4.78962E-14
1.07092E-09 4.78641E-14
1.21847E-09 4.78298E-14
1.37554E-09 4.77933E-14
1.54213E-09 4.77547E-14
1.71823E-09 4.77139E-14
1.90386E-09 4.76709E-14
2.09900E-09 4.76259E-14
2.30367E-09 4.75787E-14
2.51785E-09 4.75293E-14
2.74156E-09 4.74778E-14
2.97478E-09 4.74243E-14
3.21752E-09 4.73686E-14
3.46978E-09 4.73108E-14
3.73156E-09 4.72510E-14
4.00286E-09 4.71891E-14
4.28368E-09 4.71251E-14
4.57402E-09 4.70591E-14
4.87388E-09 4.69912E-14
5.18326E-09 4.69211E-14
5.50215E-09 4.68490E-14
5.83057E-09 4.67750E-14
6.16850E-09 4.66991E-14
6.51596E-09 4.66210E-14
6.87293E-09 4.65411E-14
7.23942E-09 4.64593E-14
7.61544E-09 4.63755E-14
1.18991E-08 4.54361E-14
1.71347E-08 4.43230E-14
2.33223E-08 4.30559E-14
3.04617E-08 4.16558E-14
3.85531E-08 4.01445E-14
4.75965E-08 3.85442E-14
5.75917E-08 3.68758E-14
6.85389E-08 3.51616E-14
8.04380E-08 3.34216E-14
9.32891E-08 3.16742E-14
1.07092E-07 2.98725E-14
1.21847E-07 2.81239E-14
1.37554E-07 2.64719E-14
1.54213E-07 2.48941E-14
1.71823E-07 2.32566E-14
1.90386E-07 2.17355E-14
2.09900E-07 2.03263E-14
2.30367E-07 1.89433E-14
2.51785E-07 1.76091E-14
2.74156E-07 1.63844E-14
2.97478E-07 1.52614E-14
3.21752E-07 1.41368E-14
3.46978E-07 1.31081E-14
3.73156E-07 1.21691E-14
4.00286E-07 1.12856E-14
4.28368E-07 1.04438E-14
4.57402E-07 9.67703E-15
4.87388E-07 8.97812E-15
5.18325E-07 8.30925E-15
5.50215E-07 7.69395E-15
5.83057E-07 7.13319E-15
6.16850E-07 6.61590E-15
6.51596E-07 6.12813E-15
6.87293E-07 5.68316E-15
7.23942E-07 5.27683E-15
7.61543E-07 4.89720E-15
1.18991E-06 2.40735E-15
1.71347E-06 1.27617E-15
2.33223E-06 7.32073E-16
3.04617E-06 4.51551E-16
3.85531E-06 2.96059E-16
4.75964E-06 2.03697E-16
5.75916E-06 1.45912E-16
6.85388E-06 1.07982E-16
8.04378E-06 8.19624E-17
9.32888E-06 6.35249E-17
1.07092E-05 5.00752E-17
1.21846E-05 4.01062E-17
1.37553E-05 3.25128E-17
1.54212E-05 2.66297E-17
1.71822E-05 2.20343E-17
1.90385E-05 1.84156E-17
2.09899E-05 1.54679E-17
2.30365E-05 1.30853E-17
2.51783E-05 1.11430E-17
2.74153E-05 9.53873E-18
2.97475E-05 8.21288E-18
3.21749E-05 7.11095E-18
3.46974E-05 6.18558E-18
3.73152E-05 5.40311E-18
4.00281E-05 4.73962E-18
4.28362E-05 4.17340E-18
4.57395E-05 3.68598E-18
4.87380E-05 3.26706E-18
5.18317E-05 2.90560E-18
5.50205E-05 2.59177E-18
5.83045E-05 2.31910E-18
6.16838E-05 2.08142E-18
6.51582E-05 1.87316E-18
6.87277E-05 1.68990E-18
7.23925E-05 1.52833E-18
7.61524E-05 1.38538E-18
9.21439E-05 9.54941E-19
1.09658E-04 6.79004E-19
1.28695E-04 4.95324E-19
1.49255E-04 3.69576E-19
1.71338E-04 2.81224E-19
1.94942E-04 2.17650E-19
2.20070E-04 1.71070E-19
2.46720E-04 1.36262E-19
2.74892E-04 1.09873E-19
3.04586E-04 8.95635E-20
3.35803E-04 7.37289E-20
3.68542E-04 6.12464E-20
4.02802E-04 5.12899E-20
4.38585E-04 4.32795E-20
4.75889E-04 3.67707E-20
5.14715E-04 3.14407E-20
5.55063E-04 2.70427E-20
5.96931E-04 2.33861E-20
6.40321E-04 2.03282E-20
6.85233E-04 1.77532E-20
7.31665E-04 1.55737E-20
7.79618E-04 1.37184E-20
8.29092E-04 1.21309E-20
8.80086E-04 1.07668E-20
9.32601E-04 9.58891E-21
9.86636E-04 8.56806E-21
1.04219E-03 7.67938E-21
1.09927E-03 6.90305E-21
1.15786E-03 6.22246E-21
1.21797E-03 5.62362E-21
1.27961E-03 5.09526E-21
1.34276E-03 4.62742E-21
1.40743E-03 4.21214E-21
1.47362E-03 3.84241E-21
1.54133E-03 3.51236E-21
1.61056E-03 3.21705E-21
1.68131E-03 2.95209E-21
1.75357E-03 2.71390E-21
1.82735E-03 2.49924E-21
1.90265E-03 2.30540E-21
1.97947E-03 2.13001E-21
2.05780E-03 1.97096E-21
2.13765E-03 1.82652E-21
2.21902E-03 1.69505E-21
2.30190E-03 1.57521E-21
2.38630E-03 1.46578E-21
2.47222E-03 1.36569E-21
2.55965E-03 1.27401E-21
2.64859E-03 1.18988E-21
2.73905E-03 1.11260E-21
2.83103E-03 1.04148E-21
2.92452E-03 9.75961E-22
3.01952E-03 9.15517E-22
3.11604E-03 8.59677E-22
3.21407E-03 8.08036E-22
3.31362E-03 7.60212E-22
3.41468E-03 7.15878E-22
3.51725E-03 6.74729E-22
3.62133E-03 6.36493E-22
3.72692E-03 6.00932E-22
3.83403E-03 5.67817E-22
3.94265E-03 5.36955E-22
4.05278E-03 5.08161E-22
4.16442E-03 4.81271E-22
4.27757E-03 4.56139E-22
4.39223E-03 4.32624E-22
4.50840E-03 4.10607E-22
4.62608E-03 3.89972E-22
4.74527E-03 3.70619E-22
4.86597E-03 3.52451E-22
4.98817E-03 3.35382E-22
5.11188E-03 3.19336E-22
5.23711E-03 3.04237E-22
5.36383E-03 2.90021E-22
5.49207E-03 2.76625E-22
5.62181E-03 2.63994E-22
5.75306E-03 2.52076E-22
5.88581E-03 2.40823E-22
6.02007E-03 2.30191E-22
6.15583E-03 2.20140E-22
6.29310E-03 2.10631E-22
6.43187E-03 2.01630E-22
6.57214E-03 1.93105E-22
6.71392E-03 1.85026E-22
6.85720E-03 1.77365E-22
7.00198E-03 1.70097E-22
7.14827E-03 1.63197E-22
7.29605E-03 1.56643E-22
7.44534E-03 1.50415E-22
7.59612E-03 1.44494E-22
7.97965E-03 1.30916E-22
8.37255E-03 1.18897E-22
8.77480E-03 1.08226E-22
9.18641E-03 9.87255E-23
9.60736E-03 9.02451E-23
1.00376E-02 8.26559E-23
1.04773E-02 7.58479E-23
1.09262E-02 6.97266E-23
1.13844E-02 6.42104E-23
1.18520E-02 5.92290E-23
1.23288E-02 5.47213E-23
1.28150E-02 5.06343E-23
1.33104E-02 4.69217E-23
1.38150E-02 4.35432E-23
1.43290E-02 4.04632E-23
1.48521E-02 3.76507E-23
1.53845E-02 3.50782E-23
1.59262E-02 3.27217E-23
1.64770E-02 3.05596E-23
1.70371E-02 2.85732E-23
1.76063E-02 2.67454E-23
1.81848E-02 2.50614E-23
1.87724E-02 2.35078E-23
1.93692E-02 2.20726E-23
1.99751E-02 2.07453E-23
2.05901E-02 1.95161E-23
2.12143E-02 1.83766E-23
2.18476E-02 1.73189E-23
2.24900E-02 1.63362E-23
2.31415E-02 1.54222E-23
2.38021E-02 1.45711E-23
2.44717E-02 1.37779E-23
2.51504E-02 1.30378E-23
2.58382E-02 1.23467E-23
2.65349E-02 1.17008E-23
2.72407E-02 1.10965E-23
2.79555E-02 1.05306E-23
2.86793E-02 1.00003E-23
2.94120E-02 9.50294E-24
3.01537E-02 9.03605E-24
3.09043E-02 8.59743E-24
3.16639E-02 8.18506E-24
3.24324E-02 7.79708E-24
3.32098E-02 7.43177E-24
3.39961E-02 7.08757E-24
3.47912E-02 6.76302E-24
3.55952E-02 6.45680E-24
3.64081E-02 6.16768E-24
3.72297E-02 5.89452E-24
3.80602E-02 5.63629E-24
3.88995E-02 5.39201E-24
3.97476E-02 5.16079E-24
4.06044E-02 4.94179E-24
4.14700E-02 4.73427E-24
4.23443E-02 4.53749E-24
4.32273E-02 4.35080E-24
4.41190E-02 4.17358E-24
4.50194E-02 4.00527E-24
4.59284E-02 3.84534E-24
4.68461E-02 3.69328E-24
4.87074E-02 3.41098E-24
5.06030E-02 3.15506E-24
5.25328E-02 2.92262E-24
5.44967E-02 2.71111E-24
5.64946E-02 2.51832E-24
5.85262E-02 2.34230E-24
6.05914E-02 2.18132E-24
6.26901E-02 2.03388E-24
6.48222E-02 1.89863E-24
6.69873E-02 1.77438E-24
6.91854E-02 1.66008E-24
7.14163E-02 1.55478E-24
7.36799E-02 1.45766E-24
7.59760E-02 1.36795E-24
7.83043E-02 1.28500E-24
8.06647E-02 1.20821E-24
8.30571E-02 1.13702E-24
8.54812E-02 1.07097E-24
8.79369E-02 1.00961E-24
9.04240E-02 9.52544E-25
9.29422E-02 8.99425E-25
9.54915E-02 8.49927E-25
9.80716E-02 8.03759E-25
1.00682E-01 7.60657E-25
1.03323E-01 7.20379E-25
1.05995E-01 6.82707E-25
1.08696E-01 6.47441E-25
1.11427E-01 6.14401E-25
1.14188E-01 5.83419E-25
1.16978E-01 5.54345E-25
1.19797E-01 5.27040E-25
1.22645E-01 5.01375E-25
1.25522E-01 4.77236E-25
1.28428E-01 4.54514E-25
1.31361E-01 4.33111E-25
1.34323E-01 4.12937E-25
1.37313E-01 3.93908E-25
1.40330E-01 3.75948E-25
1.43375E-01 3.58985E-25
1.46447E-01 3.42953E-25
1.49545E-01 3.27794E-25
1.52671E-01 3.13449E-25
1.55823E-01 2.99868E-25
1.59001E-01 2.87003E-25
1.62205E-01 2.74808E-25
1.65435E-01 2.63243E-25
1.68690E-01 2.52269E-25
1.71970E-01 2.41851E-25
1.75276E-01 2.31955E-25
1.78606E-01 2.22549E-25
1.81961E-01 2.13607E-25
1.85340E-01 2.05099E-25
1.88743E-01 1.97002E-25
1.92169E-01 1.89292E-25
1.95619E-01 1.81948E-25
1.99092E-01 1.74948E-25
2.02589E-01 1.68273E-25
2.06107E-01 1.61907E-25
2.09649E-01 1.55831E-25
2.13212E-01 1.50030E-25
2.16797E-01 1.44490E-25
2.20404E-01 1.39196E-25
2.24032E-01 1.34137E-25
2.27680E-01 1.29298E-25
2.31350E-01 1.24670E-25
2.35040E-01 1.20241E-25
2.38751E-01 1.16001E-25
2.42481E-01 1.11941E-25
2.46231E-01 1.08051E-25
2.50000E-01 1.04324E-25
2.53788E-01 1.00750E-25
2.57595E-01 9.73235E-26
2.61421E-01 9.40362E-26
2.65264E-01 9.08818E-26
2.69126E-01 8.78539E-26
2.73005E-01 8.49465E-26
2.76901E-01 8.21540E-26
2.80814E-01 7.94709E-26
2.84744E-01 7.68922E-26
2.88691E-01 7.44132E-26
2.92653E-01 7.20293E-26
2.96632E-01 6.97361E-26
3.00625E-01 6.75297E-26
3.04634E-01 6.54061E-26
3.08658E-01 6.33617E-26
3.12697E-01 6.13930E-26
3.16749E-01 5.94967E-26
3.20816E-01 5.76697E-26
3.24896E-01 5.59089E-26
3.28990E-01 5.42116E-26
3.33097E-01 5.25750E-26
3.37216E-01 5.09967E-26
3.41348E-01 4.94740E-26
3.45492E-01 4.80049E-26
3.49647E-01 4.65869E-26
3.53814E-01 4.52181E-26
3.57992E-01 4.38964E-26
3.62181E-01 4.26199E-26
3.66381E-01 4.13868E-26
3.70590E-01 4.01954E-26
3.74810E-01 3.90440E-26
3.79039E-01 3.79310E-26
3.83277E-01 3.68550E-26
3.87524E-01 3.58144E-26
3.91780E-01 3.48079E-26
3.96044E-01 3.38343E-26
4.00316E-01 3.28921E-26
4.04596E-01 3.19803E-26
4.08882E-01 3.10977E-26
4.13176E-01 3.02432E-26
4.17476E-01 2.94158E-26
4.21783E-01 2.86143E-26
4.26095E-01 2.78380E-26
4.30413E-01 2.70858E-26
4.34737E-01 2.63570E-26
4.39065E-01 2.56505E-26
4.43398E-01 2.49657E-26
4.47736E-01 2.43017E-26
4.52077E-01 2.36578E-26
4.56422E-01 2.30334E-26
4.60770E-01 2.24276E-26
4.65122E-01 2.18399E-26
4.69476E-01 2.12696E-26
4.73832E-01 2.07162E-26
4.78190E-01 2.01790E-26
4.82550E-01 1.96575E-26
4.86912E-01 1.91511E-26
4.91274E-01 1.86594E-26
4.95637E-01 1.81818E-26
5.00000E-01 1.77179E-26
5.04363E-01 1.72672E-26
5.08726E-01 1.68292E-26
5.13088E-01 1.64036E-26
5.17450E-01 1.59900E-26
5.21810E-01 1.55879E-26
5.26168E-01 1.51970E-26
5.30524E-01 1.48170E-26
5.34878E-01 1.44473E-26
5.39230E-01 1.40879E-26
5.43578E-01 1.37382E-26
5.47923E-01 1.33981E-26
5.52264E-01 1.30671E-26
5.56602E-01 1.27450E-26
5.60935E-01 1.24316E-26
5.65263E-01 1.21266E-26
5.69587E-01 1.18296E-26
5.73905E-01 1.15406E-26
5.78217E-01 1.12591E-26
5.82524E-01 1.09850E-26
5.86824E-01 1.07181E-26
5.91118E-01 1.04581E-26
5.95404E-01 1.02049E-26
5.99684E-01 9.95816E-27
6.03956E-01 9.71780E-27
6.08220E-01 9.48358E-27
6.12476E-01 9.25534E-27
6.16723E-01 9.03289E-27
6.20961E-01 8.81607E-27
6.25190E-01 8.60471E-27
6.29410E-01 8.39866E-27
6.33619E-01 8.19776E-27
6.37819E-01 8.00186E-27
6.42008E-01 7.81083E-27
6.46186E-01 7.62452E-27
6.50353E-01 7.44280E-27
6.54508E-01 7.26553E-27
6.58652E-01 7.09261E-27
6.62784E-01 6.92390E-27
6.66903E-01 6.75928E-27
6.71010E-01 6.59865E-27
6.75104E-01 6.44190E-27
6.79184E-01 6.28891E-27
6.83251E-01 6.13959E-27
6.87303E-01 5.99384E-27
6.91342E-01 5.85155E-27
6.95366E-01 5.71264E-27
6.99375E-01 5.57702E-27
7.03368E-01 5.44460E-27
7.07347E-01 5.31529E-27
7.11309E-01 5.18901E-27
7.15256E-01 5.06568E-27
7.19186E-01 4.94522E-27
7.23099E-01 4.82756E-27
7.26995E-01 4.71263E-27
7.30874E-01 4.60036E-27
7.34736E-01 4.49067E-27
7.38579E-01 4.38350E-27
7.42405E-01 4.27879E-27
7.46212E-01 4.17647E-27
7.50000E-01 4.07649E-27
7.53769E-01 3.97878E-27
7.57519E-01 3.88328E-27
7.61249E-01 3.78995E-27
7.64960E-01 3.69873E-27
7.68650E-01 3.60957E-27
7.72320E-01 3.52241E-27
7.75968E-01 3.43720E-27
7.79596E-01 3.35391E-27
7.83203E-01 3.27248E-27
7.86788E-01 3.19286E-27
7.90351E-01 3.11502E-27
7.93893E-01 3.03891E-27
7.97411E-01 2.96449E-27
8.00908E-01 2.89172E-27
8.04381E-01 2.82055E-27
8.07831E-01 2.75097E-27
8.11257E-01 2.68291E-27
8.14660E-01 2.61636E-27
8.18039E-01 2.55128E-27
8.21394E-01 2.48762E-27
8.24724E-01 2.42536E-27
8.28030E-01 2.36447E-27
8.31310E-01 2.30492E-27
8.34565E-01 2.24667E-27
8.37795E-01 2.18970E-27
8.40999E-01 2.13397E-27
8.44177E-01 2.07946E-27
8.47329E-01 2.02615E-27
8.50455E-01 1.97400E-27
8.53553E-01 1.92300E-27
8.56625E-01 1.87311E-27
8.59670E-01 1.82431E-27
8.62687E-01 1.77658E-27
8.65677E-01 1.72989E-27
8.68639E-01 1.68423E-27
8.71572E-01 1.63957E-27
8.74478E-01 1.59589E-27
8.77355E-01 1.55317E-27
8.80203E-01 1.51139E-27
8.83022E-01 1.47053E-27
8.85812E-01 1.43057E-27
8.88573E-01 1.39149E-27
8.91304E-01 1.35328E-27
8.94005E-01 1.31592E-27
8.96677E-01 1.27939E-27
8.99318E-01 1.24367E-27
9.01928E-01 1.20875E-27
9.04508E-01 1.17461E-27
9.07058E-01 1.14124E-27
9.09576E-01 1.10863E-27
9.12063E-01 1.07675E-27
9.14519E-01 1.04559E-27
9.16943E-01 1.01515E-27
9.19335E-01 9.85402E-28
9.21696E-01 9.56339E-28
9.24024E-01 9.27950E-28
9.26320E-01 9.00219E-28
9.28584E-01 8.73137E-28
9.30815E-01 8.46690E-28
9.33013E-01 8.20869E-28
9.35178E-01 7.95661E-28
9.37310E-01 7.71057E-28
9.39409E-01 7.47047E-28
9.41474E-01 7.23619E-28
9.43505E-01 7.00765E-28
9.45503E-01 6.78474E-28
9.47467E-01 6.56738E-28
9.49397E-01 6.35548E-28
9.51293E-01 6.14894E-28
9.53154E-01 5.94770E-28
9.54981E-01 5.75164E-28
9.56773E-01 5.56072E-28
9.58530E-01 5.37484E-28
9.60252E-01 5.19392E-28
9.61940E-01 5.01791E-28
9.63592E-01 4.84672E-28
9.65209E-01 4.68029E-28
9.66790E-01 4.51855E-28
9.68336E-01 4.36144E-28
9.69846E-01 4.20889E-28
9.71321E-01 4.06085E-28
9.72759E-01 3.91725E-28
9.74162E-01 3.77803E-28
9.75528E-01 3.64315E-28
9.76858E-01 3.51256E-28
9.78152E-01 3.38619E-28
9.79410E-01 3.26401E-28
9.80631E-01 3.14595E-28
9.81815E-01 3.03199E-28
9.82963E-01 2.92206E-28
9.84074E-01 2.81614E-28
9.85148E-01 2.71417E-28
9.86185E-01 2.61614E-28
9.87185E-01 2.52197E-28
9.88148E-01 2.43166E-28
9.89074E-01 2.34515E-28
9.89962E-01 2.26243E-28
9.90814E-01 2.18345E-28
9.91627E-01 2.10819E-28
9.92404E-01 2.03662E-28
9.93143E-01 1.96871E-28
9.93844E-01 1.90443E-28
9.94508E-01 1.84377E-28
9.95134E-01 1.78669E-28
9.95722E-01 1.73318E-28
9.96273E-01 1.68321E-28
9.96786E-01 1.63678E-28
9.97261E-01 1.59384E-28
9.97698E-01 1.55441E-28
9.98097E-01 1.51845E-28
9.98459E-01 1.48596E-28
9.98782E-01 1.45692E-28
9.99067E-01 1.43132E-28
9.99315E-01 1.40917E-28
9.99524E-01 1.39042E-28
9.99695E-01 1.37510E-28
9.99829E-01 1.36318E-28
9.99924E-01 1.35468E-28
9.99981E-01 1.34957E-28
1.00000E+00 1.34789E-28
