 #
 # Subroutine ELSEPA. Elastic scattering of electrons and positrons
 #                    by neutral atoms and positive ions
 #
 # Projectile: electron
 # Kinetic energy = 1.75000E+08 eV = 6.43113E+06 a.u.
 #
 # WARNING: High-energy factorization with free-atom DF screening.
 #          Absorption, polarization and exchange corrections are
 #          switched off.
 #          Phase shifts are calculated for the bare nucleus.
 #          Scattering amplitudes are not evaluated.
 #
 # Element:  B,  Z =   5,  atomic weight = 1.08110E+01 g/mol
 #
 # Nuclear model: Fermi distribution
 #                Average radius = 2.36595E-13 cm
 #                Skin thickness = 5.46000E-14 cm
 #
 # Number of electrons =  5
 #
 # Total elastic cross section = 2.13968E-19 cm**2 = 7.64092E-03 a0**2
 # 1st transport cross section = 1.86635E-27 cm**2 = 6.66484E-11 a0**2
 # 2nd transport cross section = 5.56446E-27 cm**2 = 1.98711E-10 a0**2
 #
 #
 # Differential cross section:                       MU=(1-COS(THETA))/2
 #
 #  THETA        MU          DCS          DCS        Sherman      error
 #  (deg)                 (cm**2/sr)   (a0**2/sr)    function
 #----------------------------------------------------------------------
0.00000E+00 9.21249E-11
7.61557E-13 9.14628E-11
1.18994E-12 9.10935E-11
1.71346E-12 9.06451E-11
2.33225E-12 9.01191E-11
3.04617E-12 8.95177E-11
3.85530E-12 8.88427E-11
4.75964E-12 8.80964E-11
5.75917E-12 8.72818E-11
6.85391E-12 8.64020E-11
8.04379E-12 8.54597E-11
9.32893E-12 8.44570E-11
1.07092E-11 8.33986E-11
1.21847E-11 8.22879E-11
1.37554E-11 8.11286E-11
1.54213E-11 7.99221E-11
1.71823E-11 7.86739E-11
1.90386E-11 7.73880E-11
2.09900E-11 7.60681E-11
2.30367E-11 7.47159E-11
2.51785E-11 7.33360E-11
2.74156E-11 7.19329E-11
2.97478E-11 7.05103E-11
3.21752E-11 6.90704E-11
3.46979E-11 6.76155E-11
3.73157E-11 6.61511E-11
4.00286E-11 6.46804E-11
4.28368E-11 6.32059E-11
4.57402E-11 6.17277E-11
4.87388E-11 6.02518E-11
5.18325E-11 5.87295E-11
5.50215E-11 5.71962E-11
5.83057E-11 5.56969E-11
6.16850E-11 5.42326E-11
6.51595E-11 5.28042E-11
6.87293E-11 5.14123E-11
7.23943E-11 5.00573E-11
7.61544E-11 4.87395E-11
1.18991E-10 3.61140E-11
1.71347E-10 2.61180E-11
2.33223E-10 1.86940E-11
3.04617E-10 1.33602E-11
3.85531E-10 9.58563E-12
4.75965E-10 6.94071E-12
5.75917E-10 5.09263E-12
6.85389E-10 3.79211E-12
8.04380E-10 2.86762E-12
9.32891E-10 2.20287E-12
1.07092E-09 1.71845E-12
1.21847E-09 1.35946E-12
1.37554E-09 1.09104E-12
1.54213E-09 8.87736E-13
1.71823E-09 7.30967E-13
1.90386E-09 6.08325E-13
2.09900E-09 5.11156E-13
2.30367E-09 4.33348E-13
2.51785E-09 3.70423E-13
2.74156E-09 3.19057E-13
2.97478E-09 2.76745E-13
3.21752E-09 2.41565E-13
3.46978E-09 2.12039E-13
3.73156E-09 1.87054E-13
4.00286E-09 1.65762E-13
4.28368E-09 1.47509E-13
4.57402E-09 1.31772E-13
4.87388E-09 1.18150E-13
5.18326E-09 1.06247E-13
5.50215E-09 9.58512E-14
5.83057E-09 8.67818E-14
6.16850E-09 7.87677E-14
6.51596E-09 7.16059E-14
6.87293E-09 6.52931E-14
7.23942E-09 5.96947E-14
7.61544E-09 5.46205E-14
1.18991E-08 2.47905E-14
1.71347E-08 1.27398E-14
2.33223E-08 7.15267E-15
3.04617E-08 4.29818E-15
3.85531E-08 2.72670E-15
4.75965E-08 1.80804E-15
5.75917E-08 1.24381E-15
6.85389E-08 8.82597E-16
8.04380E-08 6.43046E-16
9.32891E-08 4.79296E-16
1.07092E-07 3.64386E-16
1.21847E-07 2.81873E-16
1.37554E-07 2.21410E-16
1.54213E-07 1.76301E-16
1.71823E-07 1.42104E-16
1.90386E-07 1.15802E-16
2.09900E-07 9.53083E-17
2.30367E-07 7.91508E-17
2.51785E-07 6.62747E-17
2.74156E-07 5.59120E-17
2.97478E-07 4.74969E-17
3.21752E-07 4.06065E-17
3.46978E-07 3.49210E-17
3.73156E-07 3.01963E-17
4.00286E-07 2.62438E-17
4.28368E-07 2.29167E-17
4.57402E-07 2.01004E-17
4.87388E-07 1.77038E-17
5.18325E-07 1.56539E-17
5.50215E-07 1.38924E-17
5.83057E-07 1.23717E-17
6.16850E-07 1.10536E-17
6.51596E-07 9.90639E-18
6.87293E-07 8.90424E-18
7.23942E-07 8.02567E-18
7.61543E-07 7.25283E-18
1.18991E-06 2.97115E-18
1.71347E-06 1.43297E-18
2.33223E-06 7.73526E-19
3.04617E-06 4.53448E-19
3.85531E-06 2.83097E-19
4.75964E-06 1.85747E-19
5.75916E-06 1.26872E-19
6.85388E-06 8.95829E-20
8.04378E-06 6.50414E-20
9.32888E-06 4.83575E-20
1.07092E-05 3.66964E-20
1.21846E-05 2.83479E-20
1.37553E-05 2.22442E-20
1.54212E-05 1.76984E-20
1.71822E-05 1.42568E-20
1.90385E-05 1.16285E-20
2.09899E-05 9.56522E-21
2.30365E-05 7.93654E-21
2.51783E-05 6.63921E-21
2.74153E-05 5.59713E-21
2.97475E-05 4.75313E-21
3.21749E-05 4.06374E-21
3.46974E-05 3.49575E-21
3.73152E-05 3.02383E-21
4.00281E-05 2.62868E-21
4.28362E-05 2.29557E-21
4.57395E-05 2.01318E-21
4.87380E-05 1.77266E-21
5.18317E-05 1.56697E-21
5.50205E-05 1.39038E-21
5.83045E-05 1.23815E-21
6.16838E-05 1.10636E-21
6.51582E-05 9.91728E-22
6.87277E-05 8.91571E-22
7.23925E-05 8.03693E-22
7.61524E-05 7.25866E-22
9.21439E-05 4.95542E-22
1.09658E-04 3.49974E-22
1.28695E-04 2.54040E-22
1.49255E-04 1.88855E-22
1.71338E-04 1.43312E-22
1.94942E-04 1.10678E-22
2.20070E-04 8.68474E-23
2.46720E-04 6.90817E-23
2.74892E-04 5.56416E-23
3.04586E-04 4.53137E-23
3.35803E-04 3.72719E-23
3.68542E-04 3.09398E-23
4.02802E-04 2.58932E-23
4.38585E-04 2.18366E-23
4.75889E-04 1.85423E-23
5.14715E-04 1.58464E-23
5.55063E-04 1.36230E-23
5.96931E-04 1.17752E-23
6.40321E-04 1.02307E-23
6.85233E-04 8.93054E-24
7.31665E-04 7.83056E-24
7.79618E-04 6.89455E-24
8.29092E-04 6.09401E-24
8.80086E-04 5.40638E-24
9.32601E-04 4.81270E-24
9.86636E-04 4.29834E-24
1.04219E-03 3.85068E-24
1.09927E-03 3.45972E-24
1.15786E-03 3.11707E-24
1.21797E-03 2.81565E-24
1.27961E-03 2.54978E-24
1.34276E-03 2.31443E-24
1.40743E-03 2.10559E-24
1.47362E-03 1.91970E-24
1.54133E-03 1.75381E-24
1.61056E-03 1.60543E-24
1.68131E-03 1.47233E-24
1.75357E-03 1.35273E-24
1.82735E-03 1.24497E-24
1.90265E-03 1.14769E-24
1.97947E-03 1.05970E-24
2.05780E-03 9.79938E-25
2.13765E-03 9.07522E-25
2.21902E-03 8.41634E-25
2.30190E-03 7.81597E-25
2.38630E-03 7.26793E-25
2.47222E-03 6.76682E-25
2.55965E-03 6.30800E-25
2.64859E-03 5.88715E-25
2.73905E-03 5.50067E-25
2.83103E-03 5.14518E-25
2.92452E-03 4.81779E-25
3.01952E-03 4.51588E-25
3.11604E-03 4.23707E-25
3.21407E-03 3.97935E-25
3.31362E-03 3.74076E-25
3.41468E-03 3.51968E-25
3.51725E-03 3.31457E-25
3.62133E-03 3.12407E-25
3.72692E-03 2.94697E-25
3.83403E-03 2.78212E-25
3.94265E-03 2.62857E-25
4.05278E-03 2.48536E-25
4.16442E-03 2.35169E-25
4.27757E-03 2.22681E-25
4.39223E-03 2.11003E-25
4.50840E-03 2.00074E-25
4.62608E-03 1.89836E-25
4.74527E-03 1.80238E-25
4.86597E-03 1.71233E-25
4.98817E-03 1.62777E-25
5.11188E-03 1.54832E-25
5.23711E-03 1.47360E-25
5.36383E-03 1.40328E-25
5.49207E-03 1.33706E-25
5.62181E-03 1.27465E-25
5.75306E-03 1.21580E-25
5.88581E-03 1.16026E-25
6.02007E-03 1.10782E-25
6.15583E-03 1.05826E-25
6.29310E-03 1.01141E-25
6.43187E-03 9.67092E-26
6.57214E-03 9.25137E-26
6.71392E-03 8.85403E-26
6.85720E-03 8.47745E-26
7.00198E-03 8.12040E-26
7.14827E-03 7.78166E-26
7.29605E-03 7.46012E-26
7.44534E-03 7.15477E-26
7.59612E-03 6.86461E-26
7.97965E-03 6.20006E-26
8.37255E-03 5.61273E-26
8.77480E-03 5.09217E-26
9.18641E-03 4.62953E-26
9.60736E-03 4.21729E-26
1.00376E-02 3.84904E-26
1.04773E-02 3.51932E-26
1.09262E-02 3.22341E-26
1.13844E-02 2.95728E-26
1.18520E-02 2.71743E-26
1.23288E-02 2.50083E-26
1.28150E-02 2.30485E-26
1.33104E-02 2.12721E-26
1.38150E-02 1.96590E-26
1.43290E-02 1.81917E-26
1.48521E-02 1.68549E-26
1.53845E-02 1.56350E-26
1.59262E-02 1.45201E-26
1.64770E-02 1.34997E-26
1.70371E-02 1.25644E-26
1.76063E-02 1.17060E-26
1.81848E-02 1.09172E-26
1.87724E-02 1.01912E-26
1.93692E-02 9.52244E-27
1.99751E-02 8.90552E-27
2.05901E-02 8.33580E-27
2.12143E-02 7.80909E-27
2.18476E-02 7.32160E-27
2.24900E-02 6.86995E-27
2.31415E-02 6.45108E-27
2.38021E-02 6.06222E-27
2.44717E-02 5.70087E-27
2.51504E-02 5.36479E-27
2.58382E-02 5.05192E-27
2.65349E-02 4.76040E-27
2.72407E-02 4.48854E-27
2.79555E-02 4.23482E-27
2.86793E-02 3.99782E-27
2.94120E-02 3.77628E-27
3.01537E-02 3.56903E-27
3.09043E-02 3.37500E-27
3.16639E-02 3.19322E-27
3.24324E-02 3.02280E-27
3.32098E-02 2.86291E-27
3.39961E-02 2.71281E-27
3.47912E-02 2.57181E-27
3.55952E-02 2.43927E-27
3.64081E-02 2.31460E-27
3.72297E-02 2.19728E-27
3.80602E-02 2.08680E-27
3.88995E-02 1.98270E-27
3.97476E-02 1.88456E-27
4.06044E-02 1.79199E-27
4.14700E-02 1.70463E-27
4.23443E-02 1.62213E-27
4.32273E-02 1.54420E-27
4.41190E-02 1.47054E-27
4.50194E-02 1.40088E-27
4.59284E-02 1.33498E-27
4.68461E-02 1.27261E-27
4.87074E-02 1.15758E-27
5.06030E-02 1.05426E-27
5.25328E-02 9.61293E-28
5.44967E-02 8.77516E-28
5.64946E-02 8.01903E-28
5.85262E-02 7.33560E-28
6.05914E-02 6.71701E-28
6.26901E-02 6.15637E-28
6.48222E-02 5.64759E-28
6.69873E-02 5.18531E-28
6.91854E-02 4.76479E-28
7.14163E-02 4.38182E-28
7.36799E-02 4.03267E-28
7.59760E-02 3.71402E-28
7.83043E-02 3.42292E-28
8.06647E-02 3.15672E-28
8.30571E-02 2.91308E-28
8.54812E-02 2.68989E-28
8.79369E-02 2.48524E-28
9.04240E-02 2.29745E-28
9.29422E-02 2.12500E-28
9.54915E-02 1.96650E-28
9.80716E-02 1.82073E-28
1.00682E-01 1.68656E-28
1.03323E-01 1.56300E-28
1.05995E-01 1.44912E-28
1.08696E-01 1.34410E-28
1.11427E-01 1.24720E-28
1.14188E-01 1.15773E-28
1.16978E-01 1.07508E-28
1.19797E-01 9.98683E-29
1.22645E-01 9.28035E-29
1.25522E-01 8.62668E-29
1.28428E-01 8.02158E-29
1.31361E-01 7.46119E-29
1.34323E-01 6.94196E-29
1.37313E-01 6.46066E-29
1.40330E-01 6.01434E-29
1.43375E-01 5.60028E-29
1.46447E-01 5.21602E-29
1.49545E-01 4.85926E-29
1.52671E-01 4.52793E-29
1.55823E-01 4.22010E-29
1.59001E-01 3.93401E-29
1.62205E-01 3.66804E-29
1.65435E-01 3.42071E-29
1.68690E-01 3.19062E-29
1.71970E-01 2.97653E-29
1.75276E-01 2.77727E-29
1.78606E-01 2.59175E-29
1.81961E-01 2.41899E-29
1.85340E-01 2.25807E-29
1.88743E-01 2.10814E-29
1.92169E-01 1.96843E-29
1.95619E-01 1.83820E-29
1.99092E-01 1.71678E-29
2.02589E-01 1.60357E-29
2.06107E-01 1.49798E-29
2.09649E-01 1.39948E-29
2.13212E-01 1.30758E-29
2.16797E-01 1.22183E-29
2.20404E-01 1.14179E-29
2.24032E-01 1.06708E-29
2.27680E-01 9.97336E-30
2.31350E-01 9.32211E-30
2.35040E-01 8.71395E-30
2.38751E-01 8.14594E-30
2.42481E-01 7.61538E-30
2.46231E-01 7.11973E-30
2.50000E-01 6.65664E-30
2.53788E-01 6.22394E-30
2.57595E-01 5.81958E-30
2.61421E-01 5.44168E-30
2.65264E-01 5.08847E-30
2.69126E-01 4.75830E-30
2.73005E-01 4.44966E-30
2.76901E-01 4.16112E-30
2.80814E-01 3.89134E-30
2.84744E-01 3.63909E-30
2.88691E-01 3.40323E-30
2.92653E-01 3.18266E-30
2.96632E-01 2.97639E-30
3.00625E-01 2.78348E-30
3.04634E-01 2.60306E-30
3.08658E-01 2.43431E-30
3.12697E-01 2.27648E-30
3.16749E-01 2.12884E-30
3.20816E-01 1.99074E-30
3.24896E-01 1.86156E-30
3.28990E-01 1.74072E-30
3.33097E-01 1.62767E-30
3.37216E-01 1.52193E-30
3.41348E-01 1.42300E-30
3.45492E-01 1.33045E-30
3.49647E-01 1.24388E-30
3.53814E-01 1.16288E-30
3.57992E-01 1.08711E-30
3.62181E-01 1.01623E-30
3.66381E-01 9.49923E-31
3.70590E-01 8.87892E-31
3.74810E-01 8.29863E-31
3.79039E-01 7.75581E-31
3.83277E-01 7.24802E-31
3.87524E-01 6.77304E-31
3.91780E-01 6.32874E-31
3.96044E-01 5.91315E-31
4.00316E-01 5.52445E-31
4.04596E-01 5.16088E-31
4.08882E-01 4.82086E-31
4.13176E-01 4.50285E-31
4.17476E-01 4.20545E-31
4.21783E-01 3.92734E-31
4.26095E-01 3.66728E-31
4.30413E-01 3.42411E-31
4.34737E-01 3.19674E-31
4.39065E-01 2.98416E-31
4.43398E-01 2.78542E-31
4.47736E-01 2.59963E-31
4.52077E-01 2.42596E-31
4.56422E-01 2.26362E-31
4.60770E-01 2.11190E-31
4.65122E-01 1.97010E-31
4.69476E-01 1.83759E-31
4.73832E-01 1.71376E-31
4.78190E-01 1.59807E-31
4.82550E-01 1.48997E-31
4.86912E-01 1.38900E-31
4.91274E-01 1.29467E-31
4.95637E-01 1.20657E-31
5.00000E-01 1.12430E-31
5.04363E-01 1.04746E-31
5.08726E-01 9.75719E-32
5.13088E-01 9.08739E-32
5.17450E-01 8.46211E-32
5.21810E-01 7.87846E-32
5.26168E-01 7.33374E-32
5.30524E-01 6.82540E-32
5.34878E-01 6.35110E-32
5.39230E-01 5.90858E-32
5.43578E-01 5.49581E-32
5.47923E-01 5.11079E-32
5.52264E-01 4.75175E-32
5.56602E-01 4.41696E-32
5.60935E-01 4.10485E-32
5.65263E-01 3.81390E-32
5.69587E-01 3.54275E-32
5.73905E-01 3.29006E-32
5.78217E-01 3.05465E-32
5.82524E-01 2.83535E-32
5.86824E-01 2.63109E-32
5.91118E-01 2.44089E-32
5.95404E-01 2.26382E-32
5.99684E-01 2.09898E-32
6.03956E-01 1.94558E-32
6.08220E-01 1.80284E-32
6.12476E-01 1.67005E-32
6.16723E-01 1.54655E-32
6.20961E-01 1.43171E-32
6.25190E-01 1.32495E-32
6.29410E-01 1.22573E-32
6.33619E-01 1.13352E-32
6.37819E-01 1.04787E-32
6.42008E-01 9.68314E-33
6.46186E-01 8.94453E-33
6.50353E-01 8.25890E-33
6.54508E-01 7.62266E-33
6.58652E-01 7.03238E-33
6.62784E-01 6.48492E-33
6.66903E-01 5.97741E-33
6.71010E-01 5.50699E-33
6.75104E-01 5.07109E-33
6.79184E-01 4.66736E-33
6.83251E-01 4.29358E-33
6.87303E-01 3.94758E-33
6.91342E-01 3.62746E-33
6.95366E-01 3.33137E-33
6.99375E-01 3.05768E-33
7.03368E-01 2.80470E-33
7.07347E-01 2.57106E-33
7.11309E-01 2.35532E-33
7.15256E-01 2.15621E-33
7.19186E-01 1.97255E-33
7.23099E-01 1.80321E-33
7.26995E-01 1.64716E-33
7.30874E-01 1.50342E-33
7.34736E-01 1.37112E-33
7.38579E-01 1.24938E-33
7.42405E-01 1.13747E-33
7.46212E-01 1.03463E-33
7.50000E-01 9.40194E-34
7.53769E-01 8.53529E-34
7.57519E-01 7.74055E-34
7.61249E-01 7.01235E-34
7.64960E-01 6.34552E-34
7.68650E-01 5.73549E-34
7.72320E-01 5.17785E-34
7.75968E-01 4.66852E-34
7.79596E-01 4.20378E-34
7.83203E-01 3.78014E-34
7.86788E-01 3.39436E-34
7.90351E-01 3.04335E-34
7.93893E-01 2.72440E-34
7.97411E-01 2.43502E-34
8.00908E-01 2.17269E-34
8.04381E-01 1.93522E-34
8.07831E-01 1.72062E-34
8.11257E-01 1.52691E-34
8.14660E-01 1.35237E-34
8.18039E-01 1.19537E-34
8.21394E-01 1.05441E-34
8.24724E-01 9.28091E-35
8.28030E-01 8.15128E-35
8.31310E-01 7.14367E-35
8.34565E-01 6.24714E-35
8.37795E-01 5.45155E-35
8.40999E-01 4.74733E-35
8.44177E-01 4.12633E-35
8.47329E-01 3.58067E-35
8.50455E-01 3.10295E-35
8.53553E-01 2.68659E-35
8.56625E-01 2.32548E-35
8.59670E-01 2.01411E-35
8.62687E-01 1.74735E-35
8.65677E-01 1.52044E-35
8.68639E-01 1.32911E-35
8.71572E-01 1.16943E-35
8.74478E-01 1.03783E-35
8.77355E-01 9.31053E-36
8.80203E-01 8.46089E-36
8.83022E-01 7.80241E-36
8.85812E-01 7.31019E-36
8.88573E-01 6.96269E-36
8.91304E-01 6.73973E-36
8.94005E-01 6.62183E-36
8.96677E-01 6.59397E-36
8.99318E-01 6.63956E-36
9.01928E-01 6.74717E-36
9.04508E-01 6.90383E-36
9.07058E-01 7.09916E-36
9.09576E-01 7.32324E-36
9.12063E-01 7.56935E-36
9.14519E-01 7.82900E-36
9.16943E-01 8.09361E-36
9.19335E-01 8.35987E-36
9.21696E-01 8.62405E-36
9.24024E-01 8.87899E-36
9.26320E-01 9.12061E-36
9.28584E-01 9.34867E-36
9.30815E-01 9.55983E-36
9.33013E-01 9.74956E-36
9.35178E-01 9.92040E-36
9.37310E-01 1.00682E-35
9.39409E-01 1.01910E-35
9.41474E-01 1.02889E-35
9.43505E-01 1.03608E-35
9.45503E-01 1.04126E-35
9.47467E-01 1.04364E-35
9.49397E-01 1.04344E-35
9.51293E-01 1.04097E-35
9.53154E-01 1.03576E-35
9.54981E-01 1.02862E-35
9.56773E-01 1.01919E-35
9.58530E-01 1.00755E-35
9.60252E-01 9.93875E-36
9.61940E-01 9.78115E-36
9.63592E-01 9.60710E-36
9.65209E-01 9.41299E-36
9.66790E-01 9.20427E-36
9.68336E-01 8.98131E-36
9.69846E-01 8.74368E-36
9.71321E-01 8.49330E-36
9.72759E-01 8.23052E-36
9.74162E-01 7.95936E-36
9.75528E-01 7.68042E-36
9.76858E-01 7.39012E-36
9.78152E-01 7.09680E-36
9.79410E-01 6.79691E-36
9.80631E-01 6.49317E-36
9.81815E-01 6.18594E-36
9.82963E-01 5.87819E-36
9.84074E-01 5.56939E-36
9.85148E-01 5.26007E-36
9.86185E-01 4.95148E-36
9.87185E-01 4.64765E-36
9.88148E-01 4.34604E-36
9.89074E-01 4.04834E-36
9.89962E-01 3.75607E-36
9.90814E-01 3.46960E-36
9.91627E-01 3.19127E-36
9.92404E-01 2.91937E-36
9.93143E-01 2.65689E-36
9.93844E-01 2.40345E-36
9.94508E-01 2.15834E-36
9.95134E-01 1.92720E-36
9.95722E-01 1.70288E-36
9.96273E-01 1.49324E-36
9.96786E-01 1.29341E-36
9.97261E-01 1.10896E-36
9.97698E-01 9.36416E-37
9.98097E-01 7.78085E-37
9.98459E-01 6.33620E-37
9.98782E-01 5.03273E-37
9.99067E-01 3.87202E-37
9.99315E-01 2.85923E-37
9.99524E-01 1.99491E-37
9.99695E-01 1.28808E-37
9.99829E-01 7.43125E-38
9.99924E-01 3.49081E-38
9.99981E-01 1.12076E-38
1.00000E+00 3.02489E-39
