 #
 # Subroutine ELSEPA. Elastic scattering of electrons and positrons
 #                    by neutral atoms and positive ions
 #
 # Projectile: electron
 # Kinetic energy = 3.50000E+08 eV = 1.28623E+07 a.u.
 #
 # WARNING: High-energy factorization with free-atom DF screening.
 #          Absorption, polarization and exchange corrections are
 #          switched off.
 #          Phase shifts are calculated for the bare nucleus.
 #          Scattering amplitudes are not evaluated.
 #
 # Element:  B,  Z =   5,  atomic weight = 1.08110E+01 g/mol
 #
 # Nuclear model: Fermi distribution
 #                Average radius = 2.36595E-13 cm
 #                Skin thickness = 5.46000E-14 cm
 #
 # Number of electrons =  5
 #
 # Total elastic cross section = 2.14134E-19 cm**2 = 7.64686E-03 a0**2
 # 1st transport cross section = 4.70145E-28 cm**2 = 1.67892E-11 a0**2
 # 2nd transport cross section = 1.40803E-27 cm**2 = 5.02817E-11 a0**2
 #
 #
 # Differential cross section:                       MU=(1-COS(THETA))/2
 #
 #  THETA        MU          DCS          DCS        Sherman      error
 #  (deg)                 (cm**2/sr)   (a0**2/sr)    function
 #----------------------------------------------------------------------
0.00000E+00 3.67427E-10
7.61557E-13 3.57058E-10
1.18994E-12 3.51405E-10
1.71346E-12 3.44666E-10
2.33225E-12 3.36929E-10
3.04617E-12 3.28299E-10
3.85530E-12 3.18887E-10
4.75964E-12 3.08802E-10
5.75917E-12 2.98169E-10
6.85391E-12 2.87091E-10
8.04379E-12 2.75697E-10
9.32893E-12 2.64073E-10
1.07092E-11 2.52345E-10
1.21847E-11 2.40579E-10
1.37554E-11 2.28418E-10
1.54213E-11 2.16601E-10
1.71823E-11 2.05354E-10
1.90386E-11 1.94692E-10
2.09900E-11 1.83706E-10
2.30367E-11 1.73038E-10
2.51785E-11 1.63051E-10
2.74156E-11 1.53721E-10
2.97478E-11 1.44375E-10
3.21752E-11 1.35373E-10
3.46979E-11 1.27025E-10
3.73157E-11 1.19290E-10
4.00286E-11 1.11720E-10
4.28368E-11 1.04471E-10
4.57402E-11 9.77819E-11
4.87388E-11 9.16085E-11
5.18325E-11 8.56756E-11
5.50215E-11 8.00208E-11
5.83057E-11 7.48122E-11
6.16850E-11 7.00126E-11
6.51595E-11 6.54603E-11
6.87293E-11 6.11390E-11
7.23943E-11 5.71585E-11
7.61544E-11 5.34896E-11
1.18991E-10 2.78101E-11
1.71347E-10 1.52002E-11
2.33223E-10 8.83167E-12
3.04617E-10 5.45083E-12
3.85531E-10 3.55915E-12
4.75965E-10 2.43886E-12
5.75917E-10 1.73725E-12
6.85389E-10 1.27900E-12
8.04380E-10 9.68305E-13
9.32891E-10 7.49781E-13
1.07092E-09 5.91267E-13
1.21847E-09 4.73584E-13
1.37554E-09 3.84204E-13
1.54213E-09 3.15750E-13
1.71823E-09 2.61721E-13
1.90386E-09 2.18957E-13
2.09900E-09 1.84723E-13
2.30367E-09 1.56735E-13
2.51785E-09 1.33951E-13
2.74156E-09 1.15083E-13
2.97478E-09 9.93923E-14
3.21752E-09 8.63184E-14
3.46978E-09 7.52229E-14
3.73156E-09 6.58697E-14
4.00286E-09 5.79113E-14
4.28368E-09 5.10849E-14
4.57402E-09 4.52400E-14
4.87388E-09 4.01820E-14
5.18326E-09 3.58070E-14
5.50215E-09 3.20096E-14
5.83057E-09 2.86845E-14
6.16850E-09 2.57815E-14
6.51596E-09 2.32306E-14
6.87293E-09 2.09821E-14
7.23942E-09 1.89990E-14
7.61544E-09 1.72384E-14
1.18991E-08 7.25212E-15
1.71347E-08 3.54034E-15
2.33223E-08 1.92264E-15
3.04617E-08 1.13071E-15
3.85531E-08 7.07224E-16
4.75965E-08 4.64537E-16
5.75917E-08 3.17511E-16
6.85389E-08 2.24290E-16
8.04380E-08 1.62892E-16
9.32891E-08 1.21131E-16
1.07092E-07 9.19294E-17
1.21847E-07 7.10180E-17
1.37554E-07 5.57284E-17
1.54213E-07 4.43407E-17
1.71823E-07 3.57187E-17
1.90386E-07 2.90941E-17
2.09900E-07 2.39365E-17
2.30367E-07 1.98728E-17
2.51785E-07 1.66360E-17
2.74156E-07 1.40321E-17
2.97478E-07 1.19184E-17
3.21752E-07 1.01880E-17
3.46978E-07 8.76064E-18
3.73156E-07 7.57469E-18
4.00286E-07 6.58280E-18
4.28368E-07 5.74808E-18
4.57402E-07 5.04157E-18
4.87388E-07 4.44035E-18
5.18325E-07 3.92613E-18
5.50215E-07 3.48425E-18
5.83057E-07 3.10282E-18
6.16850E-07 2.77218E-18
6.51596E-07 2.48444E-18
6.87293E-07 2.23308E-18
7.23942E-07 2.01272E-18
7.61543E-07 1.81888E-18
1.18991E-06 7.45051E-19
1.71347E-06 3.59318E-19
2.33223E-06 1.93957E-19
3.04617E-06 1.13698E-19
3.85531E-06 7.09830E-20
4.75964E-06 4.65733E-20
5.75916E-06 3.18111E-20
6.85388E-06 2.24613E-20
8.04378E-06 1.63079E-20
9.32888E-06 1.21247E-20
1.07092E-05 9.20090E-21
1.21846E-05 7.10767E-21
1.37553E-05 5.57728E-21
1.54212E-05 4.43752E-21
1.71822E-05 3.57460E-21
1.90385E-05 2.91561E-21
2.09899E-05 2.39828E-21
2.30365E-05 1.98992E-21
2.51783E-05 1.66463E-21
2.74153E-05 1.40335E-21
2.97475E-05 1.19174E-21
3.21749E-05 1.01889E-21
3.46974E-05 8.76480E-22
3.73152E-05 7.58158E-22
4.00281E-05 6.59082E-22
4.28362E-05 5.75562E-22
4.57395E-05 5.04758E-22
4.87380E-05 4.44453E-22
5.18317E-05 3.92881E-22
5.50205E-05 3.48605E-22
5.83045E-05 3.10438E-22
6.16838E-05 2.77394E-22
6.51582E-05 2.48653E-22
6.87277E-05 2.23541E-22
7.23925E-05 2.01508E-22
7.61524E-05 1.81670E-22
9.21439E-05 1.23977E-22
1.09658E-04 8.75220E-23
1.28695E-04 6.35019E-23
1.49255E-04 4.71848E-23
1.71338E-04 3.57872E-23
1.94942E-04 2.76225E-23
2.20070E-04 2.16621E-23
2.46720E-04 1.72199E-23
2.74892E-04 1.38604E-23
3.04586E-04 1.12798E-23
3.35803E-04 9.27106E-24
3.68542E-04 7.69002E-24
4.02802E-04 6.43045E-24
4.38585E-04 5.41838E-24
4.75889E-04 4.59688E-24
5.14715E-04 3.92488E-24
5.55063E-04 3.37094E-24
5.96931E-04 2.91081E-24
6.40321E-04 2.52640E-24
6.85233E-04 2.20297E-24
7.31665E-04 1.92949E-24
7.79618E-04 1.69691E-24
8.29092E-04 1.49811E-24
8.80086E-04 1.32745E-24
9.32601E-04 1.18020E-24
9.86636E-04 1.05271E-24
1.04219E-03 9.41823E-25
1.09927E-03 8.45046E-25
1.15786E-03 7.60289E-25
1.21797E-03 6.85784E-25
1.27961E-03 6.20116E-25
1.34276E-03 5.62030E-25
1.40743E-03 5.10525E-25
1.47362E-03 4.64720E-25
1.54133E-03 4.23875E-25
1.61056E-03 3.87372E-25
1.68131E-03 3.54658E-25
1.75357E-03 3.25285E-25
1.82735E-03 2.98845E-25
1.90265E-03 2.74999E-25
1.97947E-03 2.53450E-25
2.05780E-03 2.33935E-25
2.13765E-03 2.16235E-25
2.21902E-03 2.00146E-25
2.30190E-03 1.85501E-25
2.38630E-03 1.72147E-25
2.47222E-03 1.59949E-25
2.55965E-03 1.48793E-25
2.64859E-03 1.38571E-25
2.73905E-03 1.29194E-25
2.83103E-03 1.20580E-25
2.92452E-03 1.12655E-25
3.01952E-03 1.05356E-25
3.11604E-03 9.86237E-26
3.21407E-03 9.24081E-26
3.31362E-03 8.66613E-26
3.41468E-03 8.13430E-26
3.51725E-03 7.64152E-26
3.62133E-03 7.18444E-26
3.72692E-03 6.76008E-26
3.83403E-03 6.36563E-26
3.94265E-03 5.99869E-26
4.05278E-03 5.65697E-26
4.16442E-03 5.33847E-26
4.27757E-03 5.04134E-26
4.39223E-03 4.76388E-26
4.50840E-03 4.50462E-26
4.62608E-03 4.26211E-26
4.74527E-03 4.03512E-26
4.86597E-03 3.82248E-26
4.98817E-03 3.62312E-26
5.11188E-03 3.43611E-26
5.23711E-03 3.26051E-26
5.36383E-03 3.09554E-26
5.49207E-03 2.94043E-26
5.62181E-03 2.79451E-26
5.75306E-03 2.65714E-26
5.88581E-03 2.52773E-26
6.02007E-03 2.40575E-26
6.15583E-03 2.29070E-26
6.29310E-03 2.18212E-26
6.43187E-03 2.07960E-26
6.57214E-03 1.98272E-26
6.71392E-03 1.89115E-26
6.85720E-03 1.80453E-26
7.00198E-03 1.72256E-26
7.14827E-03 1.64495E-26
7.29605E-03 1.57142E-26
7.44534E-03 1.50173E-26
7.59612E-03 1.43565E-26
7.97965E-03 1.28484E-26
8.37255E-03 1.15227E-26
8.77480E-03 1.03540E-26
9.18641E-03 9.32124E-27
9.60736E-03 8.40627E-27
1.00376E-02 7.59380E-27
1.04773E-02 6.87076E-27
1.09262E-02 6.22594E-27
1.13844E-02 5.64973E-27
1.18520E-02 5.13385E-27
1.23288E-02 4.67113E-27
1.28150E-02 4.25537E-27
1.33104E-02 3.88118E-27
1.38150E-02 3.54387E-27
1.43290E-02 3.23934E-27
1.48521E-02 2.96401E-27
1.53845E-02 2.71472E-27
1.59262E-02 2.48871E-27
1.64770E-02 2.28354E-27
1.70371E-02 2.09706E-27
1.76063E-02 1.92738E-27
1.81848E-02 1.77279E-27
1.87724E-02 1.63181E-27
1.93692E-02 1.50311E-27
1.99751E-02 1.38549E-27
2.05901E-02 1.27790E-27
2.12143E-02 1.17939E-27
2.18476E-02 1.08913E-27
2.24900E-02 1.00633E-27
2.31415E-02 9.30335E-28
2.38021E-02 8.60521E-28
2.44717E-02 7.96338E-28
2.51504E-02 7.37290E-28
2.58382E-02 6.82927E-28
2.65349E-02 6.32844E-28
2.72407E-02 5.86674E-28
2.79555E-02 5.44086E-28
2.86793E-02 5.04778E-28
2.94120E-02 4.68476E-28
3.01537E-02 4.34933E-28
3.09043E-02 4.03921E-28
3.16639E-02 3.75237E-28
3.24324E-02 3.48691E-28
3.32098E-02 3.24113E-28
3.39961E-02 3.01348E-28
3.47912E-02 2.80251E-28
3.55952E-02 2.60693E-28
3.64081E-02 2.42555E-28
3.72297E-02 2.25726E-28
3.80602E-02 2.10107E-28
3.88995E-02 1.95606E-28
3.97476E-02 1.82137E-28
4.06044E-02 1.69624E-28
4.14700E-02 1.57996E-28
4.23443E-02 1.47186E-28
4.32273E-02 1.37134E-28
4.41190E-02 1.27784E-28
4.50194E-02 1.19086E-28
4.59284E-02 1.10991E-28
4.68461E-02 1.03457E-28
4.87074E-02 8.99107E-29
5.06030E-02 7.81602E-29
5.25328E-02 6.79599E-29
5.44967E-02 5.90997E-29
5.64946E-02 5.13991E-29
5.85262E-02 4.47031E-29
6.05914E-02 3.88783E-29
6.26901E-02 3.38094E-29
6.48222E-02 2.93972E-29
6.69873E-02 2.55557E-29
6.91854E-02 2.22105E-29
7.14163E-02 1.92973E-29
7.36799E-02 1.67601E-29
7.59760E-02 1.45505E-29
7.83043E-02 1.26262E-29
8.06647E-02 1.09507E-29
8.30571E-02 9.49205E-30
8.54812E-02 8.22246E-30
8.79369E-02 7.11776E-30
9.04240E-02 6.15686E-30
9.29422E-02 5.32136E-30
9.54915E-02 4.59524E-30
9.80716E-02 3.96448E-30
1.00682E-01 3.41686E-30
1.03323E-01 2.94173E-30
1.05995E-01 2.52976E-30
1.08696E-01 2.17282E-30
1.11427E-01 1.86380E-30
1.14188E-01 1.59649E-30
1.16978E-01 1.36549E-30
1.19797E-01 1.16606E-30
1.22645E-01 9.94073E-31
1.25522E-01 8.45917E-31
1.28428E-01 7.18450E-31
1.31361E-01 6.08928E-31
1.34323E-01 5.14957E-31
1.37313E-01 4.34452E-31
1.40330E-01 3.65597E-31
1.43375E-01 3.06807E-31
1.46447E-01 2.56707E-31
1.49545E-01 2.14100E-31
1.52671E-01 1.77943E-31
1.55823E-01 1.47333E-31
1.59001E-01 1.21486E-31
1.62205E-01 9.97213E-32
1.65435E-01 8.14508E-32
1.68690E-01 6.61646E-32
1.71970E-01 5.34223E-32
1.75276E-01 4.28439E-32
1.78606E-01 3.41017E-32
1.81961E-01 2.69136E-32
1.85340E-01 2.10372E-32
1.88743E-01 1.62644E-32
1.92169E-01 1.24170E-32
1.95619E-01 9.34264E-33
1.99092E-01 6.91130E-33
2.02589E-01 5.01230E-33
2.06107E-01 3.55168E-33
2.09649E-01 2.44983E-33
2.13212E-01 1.63955E-33
2.16797E-01 1.06428E-33
2.20404E-01 6.76561E-34
2.24032E-01 4.36796E-34
2.27680E-01 3.12038E-34
2.31350E-01 2.75039E-34
2.35040E-01 3.03398E-34
2.38751E-01 3.78805E-34
2.42481E-01 4.86440E-34
2.46231E-01 6.14397E-34
2.50000E-01 7.53221E-34
2.53788E-01 8.95527E-34
2.57595E-01 1.03562E-33
2.61421E-01 1.16925E-33
2.65264E-01 1.29329E-33
2.69126E-01 1.40560E-33
2.73005E-01 1.50479E-33
2.76901E-01 1.59010E-33
2.80814E-01 1.66126E-33
2.84744E-01 1.71837E-33
2.88691E-01 1.76184E-33
2.92653E-01 1.79228E-33
2.96632E-01 1.81048E-33
3.00625E-01 1.81732E-33
3.04634E-01 1.81378E-33
3.08658E-01 1.80081E-33
3.12697E-01 1.77943E-33
3.16749E-01 1.75063E-33
3.20816E-01 1.71534E-33
3.24896E-01 1.67448E-33
3.28990E-01 1.62894E-33
3.33097E-01 1.57949E-33
3.37216E-01 1.52693E-33
3.41348E-01 1.47192E-33
3.45492E-01 1.41510E-33
3.49647E-01 1.35704E-33
3.53814E-01 1.29826E-33
3.57992E-01 1.23922E-33
3.62181E-01 1.18032E-33
3.66381E-01 1.12193E-33
3.70590E-01 1.06433E-33
3.74810E-01 1.00779E-33
3.79039E-01 9.52539E-34
3.83277E-01 8.98768E-34
3.87524E-01 8.46618E-34
3.91780E-01 7.96219E-34
3.96044E-01 7.47650E-34
4.00316E-01 7.00988E-34
4.04596E-01 6.56284E-34
4.08882E-01 6.13550E-34
4.13176E-01 5.72812E-34
4.17476E-01 5.34052E-34
4.21783E-01 4.97256E-34
4.26095E-01 4.62400E-34
4.30413E-01 4.29439E-34
4.34737E-01 3.98333E-34
4.39065E-01 3.69020E-34
4.43398E-01 3.41453E-34
4.47736E-01 3.15568E-34
4.52077E-01 2.91296E-34
4.56422E-01 2.68577E-34
4.60770E-01 2.47340E-34
4.65122E-01 2.27518E-34
4.69476E-01 2.09040E-34
4.73832E-01 1.91845E-34
4.78190E-01 1.75856E-34
4.82550E-01 1.61015E-34
4.86912E-01 1.47253E-34
4.91274E-01 1.34511E-34
4.95637E-01 1.22725E-34
5.00000E-01 1.11839E-34
5.04363E-01 1.01797E-34
5.08726E-01 9.25428E-35
5.13088E-01 8.40255E-35
5.17450E-01 7.61959E-35
5.21810E-01 6.90087E-35
5.26168E-01 6.24171E-35
5.30524E-01 5.63805E-35
5.34878E-01 5.08565E-35
5.39230E-01 4.58104E-35
5.43578E-01 4.12039E-35
5.47923E-01 3.70077E-35
5.52264E-01 3.31872E-35
5.56602E-01 2.97138E-35
5.60935E-01 2.65593E-35
5.65263E-01 2.37008E-35
5.69587E-01 2.11106E-35
5.73905E-01 1.87701E-35
5.78217E-01 1.66558E-35
5.82524E-01 1.47496E-35
5.86824E-01 1.30345E-35
5.91118E-01 1.14928E-35
5.95404E-01 1.01086E-35
5.99684E-01 8.86930E-36
6.03956E-01 7.76113E-36
6.08220E-01 6.77194E-36
6.12476E-01 5.89119E-36
6.16723E-01 5.10823E-36
6.20961E-01 4.41388E-36
6.25190E-01 3.79952E-36
6.29410E-01 3.25716E-36
6.33619E-01 2.78005E-36
6.37819E-01 2.36123E-36
6.42008E-01 1.99499E-36
6.46186E-01 1.67545E-36
6.50353E-01 1.39804E-36
6.54508E-01 1.15808E-36
6.58652E-01 9.51687E-37
6.62784E-01 7.74947E-37
6.66903E-01 6.24175E-37
6.71010E-01 4.96829E-37
6.75104E-01 3.90109E-37
6.79184E-01 3.01307E-37
6.83251E-01 2.28186E-37
6.87303E-01 1.68965E-37
6.91342E-01 1.21717E-37
6.95366E-01 8.48826E-38
6.99375E-01 5.69201E-38
7.03368E-01 3.67073E-38
7.07347E-01 2.29822E-38
7.11309E-01 1.48017E-38
7.15256E-01 1.12507E-38
7.19186E-01 1.15568E-38
7.23099E-01 1.50066E-38
7.26995E-01 2.09895E-38
7.30874E-01 2.89698E-38
7.34736E-01 3.85440E-38
7.38579E-01 4.91610E-38
7.42405E-01 6.06911E-38
7.46212E-01 7.26797E-38
7.50000E-01 8.49178E-38
7.53769E-01 9.71620E-38
7.57519E-01 1.09260E-37
7.61249E-01 1.21108E-37
7.64960E-01 1.32477E-37
7.68650E-01 1.43398E-37
7.72320E-01 1.53730E-37
7.75968E-01 1.63386E-37
7.79596E-01 1.72372E-37
7.83203E-01 1.80646E-37
7.86788E-01 1.88205E-37
7.90351E-01 1.94892E-37
7.93893E-01 2.00812E-37
7.97411E-01 2.06169E-37
8.00908E-01 2.10697E-37
8.04381E-01 2.14503E-37
8.07831E-01 2.17749E-37
8.11257E-01 2.20239E-37
8.14660E-01 2.22145E-37
8.18039E-01 2.23423E-37
8.21394E-01 2.24127E-37
8.24724E-01 2.24288E-37
8.28030E-01 2.23873E-37
8.31310E-01 2.23041E-37
8.34565E-01 2.21835E-37
8.37795E-01 2.20262E-37
8.40999E-01 2.18157E-37
8.44177E-01 2.15783E-37
8.47329E-01 2.13186E-37
8.50455E-01 2.10241E-37
8.53553E-01 2.07025E-37
8.56625E-01 2.03523E-37
8.59670E-01 1.99865E-37
8.62687E-01 1.96128E-37
8.65677E-01 1.92175E-37
8.68639E-01 1.88118E-37
8.71572E-01 1.83797E-37
8.74478E-01 1.79568E-37
8.77355E-01 1.75140E-37
8.80203E-01 1.70717E-37
8.83022E-01 1.66247E-37
8.85812E-01 1.61806E-37
8.88573E-01 1.57273E-37
8.91304E-01 1.52689E-37
8.94005E-01 1.48209E-37
8.96677E-01 1.43679E-37
8.99318E-01 1.39276E-37
9.01928E-01 1.34835E-37
9.04508E-01 1.30462E-37
9.07058E-01 1.26137E-37
9.09576E-01 1.21898E-37
9.12063E-01 1.17638E-37
9.14519E-01 1.13440E-37
9.16943E-01 1.09421E-37
9.19335E-01 1.05444E-37
9.21696E-01 1.01452E-37
9.24024E-01 9.75995E-38
9.26320E-01 9.39013E-38
9.28584E-01 9.02218E-38
9.30815E-01 8.66013E-38
9.33013E-01 8.31462E-38
9.35178E-01 7.96743E-38
9.37310E-01 7.63078E-38
9.39409E-01 7.30808E-38
9.41474E-01 6.99631E-38
9.43505E-01 6.69698E-38
9.45503E-01 6.38903E-38
9.47467E-01 6.10064E-38
9.49397E-01 5.82441E-38
9.51293E-01 5.55086E-38
9.53154E-01 5.29769E-38
9.54981E-01 5.04009E-38
9.56773E-01 4.79238E-38
9.58530E-01 4.55480E-38
9.60252E-01 4.32425E-38
9.61940E-01 4.10559E-38
9.63592E-01 3.88861E-38
9.65209E-01 3.68708E-38
9.66790E-01 3.48843E-38
9.68336E-01 3.29486E-38
9.69846E-01 3.11091E-38
9.71321E-01 2.93437E-38
9.72759E-01 2.76748E-38
9.74162E-01 2.60262E-38
9.75528E-01 2.44138E-38
9.76858E-01 2.29605E-38
9.78152E-01 2.14814E-38
9.79410E-01 2.00952E-38
9.80631E-01 1.87619E-38
9.81815E-01 1.74992E-38
9.82963E-01 1.62605E-38
9.84074E-01 1.50843E-38
9.85148E-01 1.39824E-38
9.86185E-01 1.29469E-38
9.87185E-01 1.19064E-38
9.88148E-01 1.09419E-38
9.89074E-01 1.00343E-38
9.89962E-01 9.16782E-39
9.90814E-01 8.35368E-39
9.91627E-01 7.55589E-39
9.92404E-01 6.83033E-39
9.93143E-01 6.12562E-39
9.93844E-01 5.46589E-39
9.94508E-01 4.88062E-39
9.95134E-01 4.25914E-39
9.95722E-01 3.77051E-39
9.96273E-01 3.25466E-39
9.96786E-01 2.82933E-39
9.97261E-01 2.38293E-39
9.97698E-01 1.99971E-39
9.98097E-01 1.63849E-39
9.98459E-01 1.31567E-39
9.98782E-01 1.03001E-39
9.99067E-01 7.87503E-40
9.99315E-01 5.80039E-40
9.99524E-01 4.13274E-40
9.99695E-01 2.70028E-40
9.99829E-01 1.46891E-40
9.99924E-01 6.47708E-41
9.99981E-01 1.75710E-41
1.00000E+00 6.28196E-42
