 #
 # Subroutine ELSEPA. Elastic scattering of electrons and positrons
 #                    by neutral atoms and positive ions
 #
 # Projectile: electron
 # Kinetic energy = 1.25000E+07 eV = 4.59367E+05 a.u.
 #
 # WARNING: High-energy factorization with free-atom DF screening.
 #          Absorption, polarization and exchange corrections are
 #          switched off.
 #          Phase shifts are calculated for the bare nucleus.
 #          Scattering amplitudes are not evaluated.
 #
 # Element:  B,  Z =   5,  atomic weight = 1.08110E+01 g/mol
 #
 # Nuclear model: Fermi distribution
 #                Average radius = 2.36595E-13 cm
 #                Skin thickness = 5.46000E-14 cm
 #
 # Number of electrons =  5
 #
 # Total elastic cross section = 2.14365E-19 cm**2 = 7.65510E-03 a0**2
 # 1st transport cross section = 2.75744E-25 cm**2 = 9.84701E-09 a0**2
 # 2nd transport cross section = 7.97536E-25 cm**2 = 2.84805E-08 a0**2
 #
 #
 # Differential cross section:                       MU=(1-COS(THETA))/2
 #
 #  THETA        MU          DCS          DCS        Sherman      error
 #  (deg)                 (cm**2/sr)   (a0**2/sr)    function
 #----------------------------------------------------------------------
0.00000E+00 5.06279E-13
7.61557E-13 5.06258E-13
1.18994E-12 5.06247E-13
1.71346E-12 5.06233E-13
2.33225E-12 5.06217E-13
3.04617E-12 5.06198E-13
3.85530E-12 5.06176E-13
4.75964E-12 5.06152E-13
5.75917E-12 5.06126E-13
6.85391E-12 5.06097E-13
8.04379E-12 5.06066E-13
9.32893E-12 5.06032E-13
1.07092E-11 5.05996E-13
1.21847E-11 5.05957E-13
1.37554E-11 5.05915E-13
1.54213E-11 5.05871E-13
1.71823E-11 5.05825E-13
1.90386E-11 5.05776E-13
2.09900E-11 5.05725E-13
2.30367E-11 5.05671E-13
2.51785E-11 5.05615E-13
2.74156E-11 5.05556E-13
2.97478E-11 5.05495E-13
3.21752E-11 5.05431E-13
3.46979E-11 5.05364E-13
3.73157E-11 5.05296E-13
4.00286E-11 5.05224E-13
4.28368E-11 5.05151E-13
4.57402E-11 5.05074E-13
4.87388E-11 5.04996E-13
5.18325E-11 5.04915E-13
5.50215E-11 5.04831E-13
5.83057E-11 5.04745E-13
6.16850E-11 5.04656E-13
6.51595E-11 5.04565E-13
6.87293E-11 5.04472E-13
7.23943E-11 5.04375E-13
7.61544E-11 5.04277E-13
1.18991E-10 5.03157E-13
1.71347E-10 5.01793E-13
2.33223E-10 5.00187E-13
3.04617E-10 4.98344E-13
3.85531E-10 4.96267E-13
4.75965E-10 4.93960E-13
5.75917E-10 4.91427E-13
6.85389E-10 4.88674E-13
8.04380E-10 4.85705E-13
9.32891E-10 4.82527E-13
1.07092E-09 4.79145E-13
1.21847E-09 4.75566E-13
1.37554E-09 4.71798E-13
1.54213E-09 4.67846E-13
1.71823E-09 4.63719E-13
1.90386E-09 4.59424E-13
2.09900E-09 4.54968E-13
2.30367E-09 4.50360E-13
2.51785E-09 4.45607E-13
2.74156E-09 4.40714E-13
2.97478E-09 4.35691E-13
3.21752E-09 4.30548E-13
3.46978E-09 4.25291E-13
3.73156E-09 4.19931E-13
4.00286E-09 4.14475E-13
4.28368E-09 4.08930E-13
4.57402E-09 4.03307E-13
4.87388E-09 3.97611E-13
5.18326E-09 3.91852E-13
5.50215E-09 3.86037E-13
5.83057E-09 3.80173E-13
6.16850E-09 3.74262E-13
6.51596E-09 3.68316E-13
6.87293E-09 3.62344E-13
7.23942E-09 3.56353E-13
7.61544E-09 3.50348E-13
1.18991E-08 2.89901E-13
1.71347E-08 2.34838E-13
2.33223E-08 1.86964E-13
3.04617E-08 1.47131E-13
3.85531E-08 1.15000E-13
4.75965E-08 8.96345E-14
5.75917E-08 6.98937E-14
6.85389E-08 5.46495E-14
8.04380E-08 4.29340E-14
9.32891E-08 3.39584E-14
1.07092E-07 2.70650E-14
1.21847E-07 2.17485E-14
1.37554E-07 1.76257E-14
1.54213E-07 1.44080E-14
1.71823E-07 1.18792E-14
1.90386E-07 9.87681E-15
2.09900E-07 8.27770E-15
2.30367E-07 6.98829E-15
2.51785E-07 5.94892E-15
2.74156E-07 5.10166E-15
2.97478E-07 4.40470E-15
3.21752E-07 3.82648E-15
3.46978E-07 3.34311E-15
3.73156E-07 2.93627E-15
4.00286E-07 2.59174E-15
4.28368E-07 2.29838E-15
4.57402E-07 2.04729E-15
4.87388E-07 1.83132E-15
5.18325E-07 1.64462E-15
5.50215E-07 1.48241E-15
5.83057E-07 1.34075E-15
6.16850E-07 1.21638E-15
6.51596E-07 1.10667E-15
6.87293E-07 1.00949E-15
7.23942E-07 9.23100E-16
7.61543E-07 8.46049E-16
1.18991E-06 3.92176E-16
1.71347E-06 2.07410E-16
2.33223E-06 1.19562E-16
3.04617E-06 7.33211E-17
3.85531E-06 4.72581E-17
4.75964E-06 3.17183E-17
5.75916E-06 2.20170E-17
6.85388E-06 1.57281E-17
8.04378E-06 1.15183E-17
9.32888E-06 8.61906E-18
1.07092E-05 6.57214E-18
1.21846E-05 5.09576E-18
1.37553E-05 4.01004E-18
1.54212E-05 3.19768E-18
1.71822E-05 2.58039E-18
1.90385E-05 2.10753E-18
2.09899E-05 1.73555E-18
2.30365E-05 1.44138E-18
2.51783E-05 1.20670E-18
2.74153E-05 1.01794E-18
2.97475E-05 8.64891E-19
3.21749E-05 7.39755E-19
3.46974E-05 6.36576E-19
3.73152E-05 5.50797E-19
4.00281E-05 4.78935E-19
4.28362E-05 4.18332E-19
4.57395E-05 3.66941E-19
4.87380E-05 3.23156E-19
5.18317E-05 2.85701E-19
5.50205E-05 2.53536E-19
5.83045E-05 2.25801E-19
6.16838E-05 2.01783E-19
6.51582E-05 1.80889E-19
6.87277E-05 1.62631E-19
7.23925E-05 1.46609E-19
7.61524E-05 1.32496E-19
9.21439E-05 9.04749E-20
1.09658E-04 6.39102E-20
1.28695E-04 4.64011E-20
1.49255E-04 3.45022E-20
1.71338E-04 2.61872E-20
1.94942E-04 2.02286E-20
2.20070E-04 1.58766E-20
2.46720E-04 1.26319E-20
2.74892E-04 1.01767E-20
3.04586E-04 8.28989E-21
3.35803E-04 6.82050E-21
3.68542E-04 5.66332E-21
4.02802E-04 4.74094E-21
4.38585E-04 3.99936E-21
4.75889E-04 3.39708E-21
5.14715E-04 2.90409E-21
5.55063E-04 2.49744E-21
5.96931E-04 2.15944E-21
6.40321E-04 1.87687E-21
6.85233E-04 1.63895E-21
7.31665E-04 1.43762E-21
7.79618E-04 1.26627E-21
8.29092E-04 1.11970E-21
8.80086E-04 9.93767E-22
9.32601E-04 8.85020E-22
9.86636E-04 7.90780E-22
1.04219E-03 7.08743E-22
1.09927E-03 6.37080E-22
1.15786E-03 5.74257E-22
1.21797E-03 5.18981E-22
1.27961E-03 4.70212E-22
1.34276E-03 4.27030E-22
1.40743E-03 3.88701E-22
1.47362E-03 3.54576E-22
1.54133E-03 3.24114E-22
1.61056E-03 2.96859E-22
1.68131E-03 2.72406E-22
1.75357E-03 2.50424E-22
1.82735E-03 2.30613E-22
1.90265E-03 2.12724E-22
1.97947E-03 1.96538E-22
2.05780E-03 1.81860E-22
2.13765E-03 1.68531E-22
2.21902E-03 1.56398E-22
2.30190E-03 1.45340E-22
2.38630E-03 1.35242E-22
2.47222E-03 1.26005E-22
2.55965E-03 1.17545E-22
2.64859E-03 1.09782E-22
2.73905E-03 1.02651E-22
2.83103E-03 9.60885E-23
2.92452E-03 9.00427E-23
3.01952E-03 8.44654E-23
3.11604E-03 7.93128E-23
3.21407E-03 7.45479E-23
3.31362E-03 7.01351E-23
3.41468E-03 6.60443E-23
3.51725E-03 6.22475E-23
3.62133E-03 5.87196E-23
3.72692E-03 5.54384E-23
3.83403E-03 5.23830E-23
3.94265E-03 4.95355E-23
4.05278E-03 4.68787E-23
4.16442E-03 4.43977E-23
4.27757E-03 4.20789E-23
4.39223E-03 3.99093E-23
4.50840E-03 3.78780E-23
4.62608E-03 3.59741E-23
4.74527E-03 3.41885E-23
4.86597E-03 3.25123E-23
4.98817E-03 3.09375E-23
5.11188E-03 2.94571E-23
5.23711E-03 2.80640E-23
5.36383E-03 2.67524E-23
5.49207E-03 2.55165E-23
5.62181E-03 2.43512E-23
5.75306E-03 2.32517E-23
5.88581E-03 2.22135E-23
6.02007E-03 2.12327E-23
6.15583E-03 2.03053E-23
6.29310E-03 1.94281E-23
6.43187E-03 1.85977E-23
6.57214E-03 1.78112E-23
6.71392E-03 1.70659E-23
6.85720E-03 1.63591E-23
7.00198E-03 1.56886E-23
7.14827E-03 1.50521E-23
7.29605E-03 1.44475E-23
7.44534E-03 1.38729E-23
7.59612E-03 1.33267E-23
7.97965E-03 1.20741E-23
8.37255E-03 1.09654E-23
8.77480E-03 9.98098E-24
9.18641E-03 9.10461E-24
9.60736E-03 8.32232E-24
1.00376E-02 7.62226E-24
1.04773E-02 6.99427E-24
1.09262E-02 6.42963E-24
1.13844E-02 5.92081E-24
1.18520E-02 5.46133E-24
1.23288E-02 5.04555E-24
1.28150E-02 4.66858E-24
1.33104E-02 4.32615E-24
1.38150E-02 4.01453E-24
1.43290E-02 3.73046E-24
1.48521E-02 3.47106E-24
1.53845E-02 3.23380E-24
1.59262E-02 3.01647E-24
1.64770E-02 2.81707E-24
1.70371E-02 2.63387E-24
1.76063E-02 2.46530E-24
1.81848E-02 2.31000E-24
1.87724E-02 2.16673E-24
1.93692E-02 2.03438E-24
1.99751E-02 1.91197E-24
2.05901E-02 1.79863E-24
2.12143E-02 1.69354E-24
2.18476E-02 1.59602E-24
2.24900E-02 1.50540E-24
2.31415E-02 1.42112E-24
2.38021E-02 1.34264E-24
2.44717E-02 1.26950E-24
2.51504E-02 1.20127E-24
2.58382E-02 1.13755E-24
2.65349E-02 1.07799E-24
2.72407E-02 1.02228E-24
2.79555E-02 9.70106E-25
2.86793E-02 9.21216E-25
2.94120E-02 8.75361E-25
3.01537E-02 8.32318E-25
3.09043E-02 7.91883E-25
3.16639E-02 7.53868E-25
3.24324E-02 7.18102E-25
3.32098E-02 6.84427E-25
3.39961E-02 6.52698E-25
3.47912E-02 6.22782E-25
3.55952E-02 5.94556E-25
3.64081E-02 5.67907E-25
3.72297E-02 5.42730E-25
3.80602E-02 5.18929E-25
3.88995E-02 4.96414E-25
3.97476E-02 4.75104E-25
4.06044E-02 4.54921E-25
4.14700E-02 4.35795E-25
4.23443E-02 4.17660E-25
4.32273E-02 4.00456E-25
4.41190E-02 3.84125E-25
4.50194E-02 3.68615E-25
4.59284E-02 3.53877E-25
4.68461E-02 3.39865E-25
4.87074E-02 3.13854E-25
5.06030E-02 2.90275E-25
5.25328E-02 2.68859E-25
5.44967E-02 2.49374E-25
5.64946E-02 2.31614E-25
5.85262E-02 2.15399E-25
6.05914E-02 2.00572E-25
6.26901E-02 1.86992E-25
6.48222E-02 1.74535E-25
6.69873E-02 1.63093E-25
6.91854E-02 1.52567E-25
7.14163E-02 1.42871E-25
7.36799E-02 1.33928E-25
7.59760E-02 1.25670E-25
7.83043E-02 1.18033E-25
8.06647E-02 1.10963E-25
8.30571E-02 1.04411E-25
8.54812E-02 9.83314E-26
8.79369E-02 9.26840E-26
9.04240E-02 8.74327E-26
9.29422E-02 8.25446E-26
9.54915E-02 7.79902E-26
9.80716E-02 7.37425E-26
1.00682E-01 6.97771E-26
1.03323E-01 6.60719E-26
1.05995E-01 6.26066E-26
1.08696E-01 5.93631E-26
1.11427E-01 5.63244E-26
1.14188E-01 5.34753E-26
1.16978E-01 5.08019E-26
1.19797E-01 4.82913E-26
1.22645E-01 4.59319E-26
1.25522E-01 4.37128E-26
1.28428E-01 4.16242E-26
1.31361E-01 3.96571E-26
1.34323E-01 3.78030E-26
1.37313E-01 3.60544E-26
1.40330E-01 3.44041E-26
1.43375E-01 3.28457E-26
1.46447E-01 3.13730E-26
1.49545E-01 2.99804E-26
1.52671E-01 2.86629E-26
1.55823E-01 2.74157E-26
1.59001E-01 2.62343E-26
1.62205E-01 2.51146E-26
1.65435E-01 2.40529E-26
1.68690E-01 2.30455E-26
1.71970E-01 2.20892E-26
1.75276E-01 2.11809E-26
1.78606E-01 2.03178E-26
1.81961E-01 1.94973E-26
1.85340E-01 1.87167E-26
1.88743E-01 1.79740E-26
1.92169E-01 1.72668E-26
1.95619E-01 1.65932E-26
1.99092E-01 1.59512E-26
2.02589E-01 1.53392E-26
2.06107E-01 1.47555E-26
2.09649E-01 1.41985E-26
2.13212E-01 1.36669E-26
2.16797E-01 1.31591E-26
2.20404E-01 1.26741E-26
2.24032E-01 1.22105E-26
2.27680E-01 1.17672E-26
2.31350E-01 1.13433E-26
2.35040E-01 1.09376E-26
2.38751E-01 1.05494E-26
2.42481E-01 1.01776E-26
2.46231E-01 9.82148E-27
2.50000E-01 9.48027E-27
2.53788E-01 9.15321E-27
2.57595E-01 8.83962E-27
2.61421E-01 8.53884E-27
2.65264E-01 8.25026E-27
2.69126E-01 7.97329E-27
2.73005E-01 7.70738E-27
2.76901E-01 7.45201E-27
2.80814E-01 7.20668E-27
2.84744E-01 6.97095E-27
2.88691E-01 6.74435E-27
2.92653E-01 6.52648E-27
2.96632E-01 6.31694E-27
3.00625E-01 6.11535E-27
3.04634E-01 5.92137E-27
3.08658E-01 5.73464E-27
3.12697E-01 5.55486E-27
3.16749E-01 5.38171E-27
3.20816E-01 5.21492E-27
3.24896E-01 5.05421E-27
3.28990E-01 4.89931E-27
3.33097E-01 4.74998E-27
3.37216E-01 4.60598E-27
3.41348E-01 4.46709E-27
3.45492E-01 4.33310E-27
3.49647E-01 4.20381E-27
3.53814E-01 4.07902E-27
3.57992E-01 3.95854E-27
3.62181E-01 3.84221E-27
3.66381E-01 3.72985E-27
3.70590E-01 3.62130E-27
3.74810E-01 3.51642E-27
3.79039E-01 3.41506E-27
3.83277E-01 3.31708E-27
3.87524E-01 3.22235E-27
3.91780E-01 3.13073E-27
3.96044E-01 3.04212E-27
4.00316E-01 2.95640E-27
4.04596E-01 2.87345E-27
4.08882E-01 2.79318E-27
4.13176E-01 2.71547E-27
4.17476E-01 2.64024E-27
4.21783E-01 2.56739E-27
4.26095E-01 2.49683E-27
4.30413E-01 2.42848E-27
4.34737E-01 2.36227E-27
4.39065E-01 2.29810E-27
4.43398E-01 2.23591E-27
4.47736E-01 2.17562E-27
4.52077E-01 2.11718E-27
4.56422E-01 2.06050E-27
4.60770E-01 2.00554E-27
4.65122E-01 1.95222E-27
4.69476E-01 1.90049E-27
4.73832E-01 1.85031E-27
4.78190E-01 1.80160E-27
4.82550E-01 1.75433E-27
4.86912E-01 1.70844E-27
4.91274E-01 1.66389E-27
4.95637E-01 1.62062E-27
5.00000E-01 1.57861E-27
5.04363E-01 1.53780E-27
5.08726E-01 1.49815E-27
5.13088E-01 1.45964E-27
5.17450E-01 1.42221E-27
5.21810E-01 1.38583E-27
5.26168E-01 1.35048E-27
5.30524E-01 1.31611E-27
5.34878E-01 1.28269E-27
5.39230E-01 1.25020E-27
5.43578E-01 1.21861E-27
5.47923E-01 1.18787E-27
5.52264E-01 1.15798E-27
5.56602E-01 1.12890E-27
5.60935E-01 1.10060E-27
5.65263E-01 1.07307E-27
5.69587E-01 1.04627E-27
5.73905E-01 1.02019E-27
5.78217E-01 9.94807E-28
5.82524E-01 9.70092E-28
5.86824E-01 9.46028E-28
5.91118E-01 9.22596E-28
5.95404E-01 8.99777E-28
5.99684E-01 8.77552E-28
6.03956E-01 8.55904E-28
6.08220E-01 8.34814E-28
6.12476E-01 8.14268E-28
6.16723E-01 7.94248E-28
6.20961E-01 7.74739E-28
6.25190E-01 7.55727E-28
6.29410E-01 7.37196E-28
6.33619E-01 7.19133E-28
6.37819E-01 7.01525E-28
6.42008E-01 6.84358E-28
6.46186E-01 6.67619E-28
6.50353E-01 6.51298E-28
6.54508E-01 6.35381E-28
6.58652E-01 6.19857E-28
6.62784E-01 6.04715E-28
6.66903E-01 5.89945E-28
6.71010E-01 5.75536E-28
6.75104E-01 5.61478E-28
6.79184E-01 5.47762E-28
6.83251E-01 5.34379E-28
6.87303E-01 5.21318E-28
6.91342E-01 5.08571E-28
6.95366E-01 4.96130E-28
6.99375E-01 4.83987E-28
7.03368E-01 4.72133E-28
7.07347E-01 4.60561E-28
7.11309E-01 4.49263E-28
7.15256E-01 4.38231E-28
7.19186E-01 4.27460E-28
7.23099E-01 4.16942E-28
7.26995E-01 4.06671E-28
7.30874E-01 3.96639E-28
7.34736E-01 3.86841E-28
7.38579E-01 3.77271E-28
7.42405E-01 3.67923E-28
7.46212E-01 3.58791E-28
7.50000E-01 3.49870E-28
7.53769E-01 3.41153E-28
7.57519E-01 3.32637E-28
7.61249E-01 3.24316E-28
7.64960E-01 3.16186E-28
7.68650E-01 3.08240E-28
7.72320E-01 3.00476E-28
7.75968E-01 2.92888E-28
7.79596E-01 2.85472E-28
7.83203E-01 2.78223E-28
7.86788E-01 2.71139E-28
7.90351E-01 2.64213E-28
7.93893E-01 2.57444E-28
7.97411E-01 2.50827E-28
8.00908E-01 2.44358E-28
8.04381E-01 2.38035E-28
8.07831E-01 2.31852E-28
8.11257E-01 2.25808E-28
8.14660E-01 2.19898E-28
8.18039E-01 2.14120E-28
8.21394E-01 2.08471E-28
8.24724E-01 2.02948E-28
8.28030E-01 1.97547E-28
8.31310E-01 1.92265E-28
8.34565E-01 1.87102E-28
8.37795E-01 1.82052E-28
8.40999E-01 1.77114E-28
8.44177E-01 1.72286E-28
8.47329E-01 1.67565E-28
8.50455E-01 1.62948E-28
8.53553E-01 1.58433E-28
8.56625E-01 1.54018E-28
8.59670E-01 1.49701E-28
8.62687E-01 1.45480E-28
8.65677E-01 1.41352E-28
8.68639E-01 1.37316E-28
8.71572E-01 1.33369E-28
8.74478E-01 1.29510E-28
8.77355E-01 1.25736E-28
8.80203E-01 1.22046E-28
8.83022E-01 1.18439E-28
8.85812E-01 1.14912E-28
8.88573E-01 1.11464E-28
8.91304E-01 1.08093E-28
8.94005E-01 1.04798E-28
8.96677E-01 1.01576E-28
8.99318E-01 9.84278E-29
9.01928E-01 9.53502E-29
9.04508E-01 9.23423E-29
9.07058E-01 8.94027E-29
9.09576E-01 8.65301E-29
9.12063E-01 8.37231E-29
9.14519E-01 8.09806E-29
9.16943E-01 7.83013E-29
9.19335E-01 7.56839E-29
9.21696E-01 7.31272E-29
9.24024E-01 7.06303E-29
9.26320E-01 6.81920E-29
9.28584E-01 6.58111E-29
9.30815E-01 6.34867E-29
9.33013E-01 6.12177E-29
9.35178E-01 5.90031E-29
9.37310E-01 5.68419E-29
9.39409E-01 5.47334E-29
9.41474E-01 5.26764E-29
9.43505E-01 5.06703E-29
9.45503E-01 4.87139E-29
9.47467E-01 4.68066E-29
9.49397E-01 4.49476E-29
9.51293E-01 4.31360E-29
9.53154E-01 4.13711E-29
9.54981E-01 3.96522E-29
9.56773E-01 3.79784E-29
9.58530E-01 3.63492E-29
9.60252E-01 3.47638E-29
9.61940E-01 3.32216E-29
9.63592E-01 3.17220E-29
9.65209E-01 3.02643E-29
9.66790E-01 2.88479E-29
9.68336E-01 2.74722E-29
9.69846E-01 2.61367E-29
9.71321E-01 2.48409E-29
9.72759E-01 2.35841E-29
9.74162E-01 2.23659E-29
9.75528E-01 2.11859E-29
9.76858E-01 2.00435E-29
9.78152E-01 1.89381E-29
9.79410E-01 1.78695E-29
9.80631E-01 1.68372E-29
9.81815E-01 1.58408E-29
9.82963E-01 1.48798E-29
9.84074E-01 1.39539E-29
9.85148E-01 1.30628E-29
9.86185E-01 1.22060E-29
9.87185E-01 1.13832E-29
9.88148E-01 1.05941E-29
9.89074E-01 9.83836E-30
9.89962E-01 9.11573E-30
9.90814E-01 8.42590E-30
9.91627E-01 7.76857E-30
9.92404E-01 7.14354E-30
9.93143E-01 6.55051E-30
9.93844E-01 5.98926E-30
9.94508E-01 5.45961E-30
9.95134E-01 4.96126E-30
9.95722E-01 4.49416E-30
9.96273E-01 4.05798E-30
9.96786E-01 3.65266E-30
9.97261E-01 3.27793E-30
9.97698E-01 2.93375E-30
9.98097E-01 2.61994E-30
9.98459E-01 2.33636E-30
9.98782E-01 2.08297E-30
9.99067E-01 1.85959E-30
9.99315E-01 1.66621E-30
9.99524E-01 1.50267E-30
9.99695E-01 1.36897E-30
9.99829E-01 1.26498E-30
9.99924E-01 1.19079E-30
9.99981E-01 1.14626E-30
1.00000E+00 1.13148E-30
