 #
 # Subroutine ELSEPA. Elastic scattering of electrons and positrons
 #                    by neutral atoms and positive ions
 #
 # Projectile: electron
 # Kinetic energy = 4.00000E+07 eV = 1.46997E+06 a.u.
 #
 # WARNING: High-energy factorization with free-atom DF screening.
 #          Absorption, polarization and exchange corrections are
 #          switched off.
 #          Phase shifts are calculated for the bare nucleus.
 #          Scattering amplitudes are not evaluated.
 #
 # Element:  B,  Z =   5,  atomic weight = 1.08110E+01 g/mol
 #
 # Nuclear model: Fermi distribution
 #                Average radius = 2.36595E-13 cm
 #                Skin thickness = 5.46000E-14 cm
 #
 # Number of electrons =  5
 #
 # Total elastic cross section = 2.14302E-19 cm**2 = 7.65286E-03 a0**2
 # 1st transport cross section = 3.24889E-26 cm**2 = 1.16020E-09 a0**2
 # 2nd transport cross section = 9.47886E-26 cm**2 = 3.38496E-09 a0**2
 #
 #
 # Differential cross section:                       MU=(1-COS(THETA))/2
 #
 #  THETA        MU          DCS          DCS        Sherman      error
 #  (deg)                 (cm**2/sr)   (a0**2/sr)    function
 #----------------------------------------------------------------------
0.00000E+00 4.90811E-12
7.61557E-13 4.90621E-12
1.18994E-12 4.90515E-12
1.71346E-12 4.90385E-12
2.33225E-12 4.90232E-12
3.04617E-12 4.90055E-12
3.85530E-12 4.89855E-12
4.75964E-12 4.89631E-12
5.75917E-12 4.89385E-12
6.85391E-12 4.89114E-12
8.04379E-12 4.88821E-12
9.32893E-12 4.88504E-12
1.07092E-11 4.88165E-12
1.21847E-11 4.87802E-12
1.37554E-11 4.87416E-12
1.54213E-11 4.87008E-12
1.71823E-11 4.86576E-12
1.90386E-11 4.86122E-12
2.09900E-11 4.85646E-12
2.30367E-11 4.85146E-12
2.51785E-11 4.84624E-12
2.74156E-11 4.84080E-12
2.97478E-11 4.83514E-12
3.21752E-11 4.82925E-12
3.46979E-11 4.82315E-12
3.73157E-11 4.81683E-12
4.00286E-11 4.81028E-12
4.28368E-11 4.80352E-12
4.57402E-11 4.79656E-12
4.87388E-11 4.78937E-12
5.18325E-11 4.78196E-12
5.50215E-11 4.77436E-12
5.83057E-11 4.76655E-12
6.16850E-11 4.75851E-12
6.51595E-11 4.75027E-12
6.87293E-11 4.74184E-12
7.23943E-11 4.73320E-12
7.61544E-11 4.72435E-12
1.18991E-10 4.62520E-12
1.71347E-10 4.50793E-12
2.33223E-10 4.37459E-12
3.04617E-10 4.22741E-12
3.85531E-10 4.06881E-12
4.75965E-10 3.90116E-12
5.75917E-10 3.72685E-12
6.85389E-10 3.54812E-12
8.04380E-10 3.36709E-12
9.32891E-10 3.18560E-12
1.07092E-09 2.99749E-12
1.21847E-09 2.81866E-12
1.37554E-09 2.65015E-12
1.54213E-09 2.48324E-12
1.71823E-09 2.31728E-12
1.90386E-09 2.16347E-12
2.09900E-09 2.02131E-12
2.30367E-09 1.87638E-12
2.51785E-09 1.74256E-12
2.74156E-09 1.61997E-12
2.97478E-09 1.50330E-12
3.21752E-09 1.39112E-12
3.46978E-09 1.28887E-12
3.73156E-09 1.19569E-12
4.00286E-09 1.10481E-12
4.28368E-09 1.02166E-12
4.57402E-09 9.46019E-13
4.87388E-09 8.75526E-13
5.18326E-09 8.09136E-13
5.50215E-09 7.48753E-13
5.83057E-09 6.93786E-13
6.16850E-09 6.41691E-13
6.51596E-09 5.94035E-13
6.87293E-09 5.50604E-13
7.23942E-09 5.10491E-13
7.61544E-09 4.73143E-13
1.18991E-08 2.30960E-13
1.71347E-08 1.22035E-13
2.33223E-08 6.99071E-14
3.04617E-08 4.31577E-14
3.85531E-08 2.83134E-14
4.75965E-08 1.94957E-14
5.75917E-08 1.39767E-14
6.85389E-08 1.03480E-14
8.04380E-08 7.85536E-15
9.32891E-08 6.08865E-15
1.07092E-07 4.79959E-15
1.21847E-07 3.84091E-15
1.37554E-07 3.11370E-15
1.54213E-07 2.55003E-15
1.71823E-07 2.10795E-15
1.90386E-07 1.75813E-15
2.09900E-07 1.47765E-15
2.30367E-07 1.24958E-15
2.51785E-07 1.06380E-15
2.74156E-07 9.11120E-16
2.97478E-07 7.84267E-16
3.21752E-07 6.78433E-16
3.46978E-07 5.89758E-16
3.73156E-07 5.14932E-16
4.00286E-07 4.51315E-16
4.28368E-07 3.97162E-16
4.57402E-07 3.50825E-16
4.87388E-07 3.10920E-16
5.18325E-07 2.76459E-16
5.50215E-07 2.46610E-16
5.83057E-07 2.20640E-16
6.16850E-07 1.97938E-16
6.51596E-07 1.78064E-16
6.87293E-07 1.60607E-16
7.23942E-07 1.45205E-16
7.61543E-07 1.31589E-16
1.18991E-06 5.48700E-17
1.71347E-06 2.66691E-17
2.33223E-06 1.44502E-17
3.04617E-06 8.48758E-18
3.85531E-06 5.30484E-18
4.75964E-06 3.48293E-18
5.75916E-06 2.37995E-18
6.85388E-06 1.68091E-18
8.04378E-06 1.22058E-18
9.32888E-06 9.07551E-19
1.07092E-05 6.88739E-19
1.21846E-05 5.32074E-19
1.37553E-05 4.17527E-19
1.54212E-05 3.32212E-19
1.71822E-05 2.67618E-19
1.90385E-05 2.18284E-19
2.09899E-05 1.79556E-19
2.30365E-05 1.48986E-19
2.51783E-05 1.24635E-19
2.74153E-05 1.05075E-19
2.97475E-05 8.92315E-20
3.21749E-05 7.62901E-20
3.46974E-05 6.56274E-20
3.73152E-05 5.67680E-20
4.00281E-05 4.93499E-20
4.28362E-05 4.30964E-20
4.57395E-05 3.77951E-20
4.87380E-05 3.32799E-20
5.18317E-05 2.94185E-20
5.50205E-05 2.61034E-20
5.83045E-05 2.32455E-20
6.16838E-05 2.07712E-20
6.51582E-05 1.86191E-20
6.87277E-05 1.67388E-20
7.23925E-05 1.50889E-20
7.61524E-05 1.36356E-20
9.21439E-05 9.31016E-21
1.09658E-04 6.57615E-21
1.28695E-04 4.77423E-21
1.49255E-04 3.54977E-21
1.71338E-04 2.69419E-21
1.94942E-04 2.08107E-21
2.20070E-04 1.63330E-21
2.46720E-04 1.29946E-21
2.74892E-04 1.04687E-21
3.04586E-04 8.52751E-22
3.35803E-04 7.01582E-22
3.68542E-04 5.82538E-22
4.02802E-04 4.87649E-22
4.38585E-04 4.11363E-22
4.75889E-04 3.49405E-22
5.14715E-04 2.98692E-22
5.55063E-04 2.56863E-22
5.96931E-04 2.22094E-22
6.40321E-04 1.93028E-22
6.85233E-04 1.68555E-22
7.31665E-04 1.47847E-22
7.79618E-04 1.30222E-22
8.29092E-04 1.15146E-22
8.80086E-04 1.02193E-22
9.32601E-04 9.10082E-23
9.86636E-04 8.13154E-23
1.04219E-03 7.28778E-23
1.09927E-03 6.55072E-23
1.15786E-03 5.90460E-23
1.21797E-03 5.33610E-23
1.27961E-03 4.83454E-23
1.34276E-03 4.39044E-23
1.40743E-03 3.99626E-23
1.47362E-03 3.64532E-23
1.54133E-03 3.33205E-23
1.61056E-03 3.05177E-23
1.68131E-03 2.80030E-23
1.75357E-03 2.57425E-23
1.82735E-03 2.37053E-23
1.90265E-03 2.18657E-23
1.97947E-03 2.02013E-23
2.05780E-03 1.86921E-23
2.13765E-03 1.73214E-23
2.21902E-03 1.60740E-23
2.30190E-03 1.49369E-23
2.38630E-03 1.38986E-23
2.47222E-03 1.29489E-23
2.55965E-03 1.20791E-23
2.64859E-03 1.12809E-23
2.73905E-03 1.05477E-23
2.83103E-03 9.87306E-24
2.92452E-03 9.25150E-24
3.01952E-03 8.67812E-24
3.11604E-03 8.14841E-24
3.21407E-03 7.65857E-24
3.31362E-03 7.20492E-24
3.41468E-03 6.78440E-24
3.51725E-03 6.39411E-24
3.62133E-03 6.03146E-24
3.72692E-03 5.69418E-24
3.83403E-03 5.38011E-24
3.94265E-03 5.08743E-24
4.05278E-03 4.81435E-24
4.16442E-03 4.55935E-24
4.27757E-03 4.32102E-24
4.39223E-03 4.09804E-24
4.50840E-03 3.88927E-24
4.62608E-03 3.69360E-24
4.74527E-03 3.51009E-24
4.86597E-03 3.33783E-24
4.98817E-03 3.17600E-24
5.11188E-03 3.02387E-24
5.23711E-03 2.88072E-24
5.36383E-03 2.74595E-24
5.49207E-03 2.61895E-24
5.62181E-03 2.49921E-24
5.75306E-03 2.38624E-24
5.88581E-03 2.27957E-24
6.02007E-03 2.17880E-24
6.15583E-03 2.08352E-24
6.29310E-03 1.99340E-24
6.43187E-03 1.90809E-24
6.57214E-03 1.82729E-24
6.71392E-03 1.75073E-24
6.85720E-03 1.67812E-24
7.00198E-03 1.60924E-24
7.14827E-03 1.54386E-24
7.29605E-03 1.48176E-24
7.44534E-03 1.42274E-24
7.59612E-03 1.36664E-24
7.97965E-03 1.23800E-24
8.37255E-03 1.12413E-24
8.77480E-03 1.02305E-24
9.18641E-03 9.33061E-25
9.60736E-03 8.52744E-25
1.00376E-02 7.80875E-25
1.04773E-02 7.16411E-25
1.09262E-02 6.58454E-25
1.13844E-02 6.06233E-25
1.18520E-02 5.59079E-25
1.23288E-02 5.16415E-25
1.28150E-02 4.77737E-25
1.33104E-02 4.42606E-25
1.38150E-02 4.10640E-25
1.43290E-02 3.81502E-25
1.48521E-02 3.54898E-25
1.53845E-02 3.30568E-25
1.59262E-02 3.08283E-25
1.64770E-02 2.87840E-25
1.70371E-02 2.69059E-25
1.76063E-02 2.51781E-25
1.81848E-02 2.35864E-25
1.87724E-02 2.21182E-25
1.93692E-02 2.07621E-25
1.99751E-02 1.95080E-25
2.05901E-02 1.83469E-25
2.12143E-02 1.72706E-25
2.18476E-02 1.62719E-25
2.24900E-02 1.53440E-25
2.31415E-02 1.44810E-25
2.38021E-02 1.36777E-25
2.44717E-02 1.29291E-25
2.51504E-02 1.22307E-25
2.58382E-02 1.15787E-25
2.65349E-02 1.09694E-25
2.72407E-02 1.03994E-25
2.79555E-02 9.86585E-26
2.86793E-02 9.36587E-26
2.94120E-02 8.89701E-26
3.01537E-02 8.45696E-26
3.09043E-02 8.04365E-26
3.16639E-02 7.65513E-26
3.24324E-02 7.28966E-26
3.32098E-02 6.94561E-26
3.39961E-02 6.62150E-26
3.47912E-02 6.31595E-26
3.55952E-02 6.02772E-26
3.64081E-02 5.75563E-26
3.72297E-02 5.49862E-26
3.80602E-02 5.25570E-26
3.88995E-02 5.02595E-26
3.97476E-02 4.80853E-26
4.06044E-02 4.60264E-26
4.14700E-02 4.40758E-26
4.23443E-02 4.22266E-26
4.32273E-02 4.04726E-26
4.41190E-02 3.88080E-26
4.50194E-02 3.72273E-26
4.59284E-02 3.57257E-26
4.68461E-02 3.42983E-26
4.87074E-02 3.16493E-26
5.06030E-02 2.92489E-26
5.25328E-02 2.70696E-26
5.44967E-02 2.50877E-26
5.64946E-02 2.32820E-26
5.85262E-02 2.16342E-26
6.05914E-02 2.01280E-26
6.26901E-02 1.87491E-26
6.48222E-02 1.74850E-26
6.69873E-02 1.63242E-26
6.91854E-02 1.52570E-26
7.14163E-02 1.42745E-26
7.36799E-02 1.33686E-26
7.59760E-02 1.25325E-26
7.83043E-02 1.17598E-26
8.06647E-02 1.10448E-26
8.30571E-02 1.03825E-26
8.54812E-02 9.76832E-27
8.79369E-02 9.19810E-27
9.04240E-02 8.66817E-27
9.29422E-02 8.17519E-27
9.54915E-02 7.71611E-27
9.80716E-02 7.28820E-27
1.00682E-01 6.88896E-27
1.03323E-01 6.51615E-27
1.05995E-01 6.16770E-27
1.08696E-01 5.84173E-27
1.11427E-01 5.53656E-27
1.14188E-01 5.25060E-27
1.16978E-01 4.98245E-27
1.19797E-01 4.73080E-27
1.22645E-01 4.49445E-27
1.25522E-01 4.27231E-27
1.28428E-01 4.06338E-27
1.31361E-01 3.86674E-27
1.34323E-01 3.68153E-27
1.37313E-01 3.50697E-27
1.40330E-01 3.34235E-27
1.43375E-01 3.18700E-27
1.46447E-01 3.04031E-27
1.49545E-01 2.90171E-27
1.52671E-01 2.77067E-27
1.55823E-01 2.64672E-27
1.59001E-01 2.52940E-27
1.62205E-01 2.41830E-27
1.65435E-01 2.31302E-27
1.68690E-01 2.21322E-27
1.71970E-01 2.11856E-27
1.75276E-01 2.02872E-27
1.78606E-01 1.94343E-27
1.81961E-01 1.86240E-27
1.85340E-01 1.78539E-27
1.88743E-01 1.71217E-27
1.92169E-01 1.64252E-27
1.95619E-01 1.57623E-27
1.99092E-01 1.51312E-27
2.02589E-01 1.45300E-27
2.06107E-01 1.39572E-27
2.09649E-01 1.34111E-27
2.13212E-01 1.28902E-27
2.16797E-01 1.23933E-27
2.20404E-01 1.19190E-27
2.24032E-01 1.14661E-27
2.27680E-01 1.10336E-27
2.31350E-01 1.06202E-27
2.35040E-01 1.02251E-27
2.38751E-01 9.84731E-28
2.42481E-01 9.48592E-28
2.46231E-01 9.14010E-28
2.50000E-01 8.80908E-28
2.53788E-01 8.49212E-28
2.57595E-01 8.18853E-28
2.61421E-01 7.89764E-28
2.65264E-01 7.61884E-28
2.69126E-01 7.35154E-28
2.73005E-01 7.09519E-28
2.76901E-01 6.84927E-28
2.80814E-01 6.61329E-28
2.84744E-01 6.38677E-28
2.88691E-01 6.16928E-28
2.92653E-01 5.96040E-28
2.96632E-01 5.75973E-28
3.00625E-01 5.56690E-28
3.04634E-01 5.38155E-28
3.08658E-01 5.20335E-28
3.12697E-01 5.03197E-28
3.16749E-01 4.86712E-28
3.20816E-01 4.70850E-28
3.24896E-01 4.55585E-28
3.28990E-01 4.40889E-28
3.33097E-01 4.26739E-28
3.37216E-01 4.13112E-28
3.41348E-01 3.99984E-28
3.45492E-01 3.87335E-28
3.49647E-01 3.75144E-28
3.53814E-01 3.63392E-28
3.57992E-01 3.52062E-28
3.62181E-01 3.41135E-28
3.66381E-01 3.30595E-28
3.70590E-01 3.20426E-28
3.74810E-01 3.10614E-28
3.79039E-01 3.01143E-28
3.83277E-01 2.92000E-28
3.87524E-01 2.83172E-28
3.91780E-01 2.74646E-28
3.96044E-01 2.66411E-28
4.00316E-01 2.58455E-28
4.04596E-01 2.50767E-28
4.08882E-01 2.43337E-28
4.13176E-01 2.36156E-28
4.17476E-01 2.29212E-28
4.21783E-01 2.22498E-28
4.26095E-01 2.16004E-28
4.30413E-01 2.09723E-28
4.34737E-01 2.03646E-28
4.39065E-01 1.97766E-28
4.43398E-01 1.92076E-28
4.47736E-01 1.86568E-28
4.52077E-01 1.81235E-28
4.56422E-01 1.76072E-28
4.60770E-01 1.71073E-28
4.65122E-01 1.66230E-28
4.69476E-01 1.61539E-28
4.73832E-01 1.56995E-28
4.78190E-01 1.52591E-28
4.82550E-01 1.48324E-28
4.86912E-01 1.44188E-28
4.91274E-01 1.40178E-28
4.95637E-01 1.36291E-28
5.00000E-01 1.32522E-28
5.04363E-01 1.28867E-28
5.08726E-01 1.25321E-28
5.13088E-01 1.21882E-28
5.17450E-01 1.18546E-28
5.21810E-01 1.15309E-28
5.26168E-01 1.12167E-28
5.30524E-01 1.09119E-28
5.34878E-01 1.06159E-28
5.39230E-01 1.03287E-28
5.43578E-01 1.00498E-28
5.47923E-01 9.77895E-29
5.52264E-01 9.51596E-29
5.56602E-01 9.26055E-29
5.60935E-01 9.01246E-29
5.65263E-01 8.77145E-29
5.69587E-01 8.53730E-29
5.73905E-01 8.30980E-29
5.78217E-01 8.08872E-29
5.82524E-01 7.87386E-29
5.86824E-01 7.66502E-29
5.91118E-01 7.46203E-29
5.95404E-01 7.26468E-29
5.99684E-01 7.07281E-29
6.03956E-01 6.88625E-29
6.08220E-01 6.70483E-29
6.12476E-01 6.52838E-29
6.16723E-01 6.35677E-29
6.20961E-01 6.18984E-29
6.25190E-01 6.02744E-29
6.29410E-01 5.86945E-29
6.33619E-01 5.71572E-29
6.37819E-01 5.56613E-29
6.42008E-01 5.42055E-29
6.46186E-01 5.27887E-29
6.50353E-01 5.14096E-29
6.54508E-01 5.00672E-29
6.58652E-01 4.87604E-29
6.62784E-01 4.74881E-29
6.66903E-01 4.62493E-29
6.71010E-01 4.50431E-29
6.75104E-01 4.38684E-29
6.79184E-01 4.27244E-29
6.83251E-01 4.16102E-29
6.87303E-01 4.05249E-29
6.91342E-01 3.94678E-29
6.95366E-01 3.84379E-29
6.99375E-01 3.74345E-29
7.03368E-01 3.64569E-29
7.07347E-01 3.55044E-29
7.11309E-01 3.45762E-29
7.15256E-01 3.36716E-29
7.19186E-01 3.27900E-29
7.23099E-01 3.19308E-29
7.26995E-01 3.10933E-29
7.30874E-01 3.02770E-29
7.34736E-01 2.94812E-29
7.38579E-01 2.87053E-29
7.42405E-01 2.79490E-29
7.46212E-01 2.72115E-29
7.50000E-01 2.64924E-29
7.53769E-01 2.57912E-29
7.57519E-01 2.51075E-29
7.61249E-01 2.44407E-29
7.64960E-01 2.37904E-29
7.68650E-01 2.31561E-29
7.72320E-01 2.25375E-29
7.75968E-01 2.19340E-29
7.79596E-01 2.13454E-29
7.83203E-01 2.07713E-29
7.86788E-01 2.02111E-29
7.90351E-01 1.96647E-29
7.93893E-01 1.91316E-29
7.97411E-01 1.86114E-29
8.00908E-01 1.81039E-29
8.04381E-01 1.76087E-29
8.07831E-01 1.71256E-29
8.11257E-01 1.66541E-29
8.14660E-01 1.61940E-29
8.18039E-01 1.57451E-29
8.21394E-01 1.53069E-29
8.24724E-01 1.48793E-29
8.28030E-01 1.44621E-29
8.31310E-01 1.40548E-29
8.34565E-01 1.36574E-29
8.37795E-01 1.32695E-29
8.40999E-01 1.28909E-29
8.44177E-01 1.25213E-29
8.47329E-01 1.21607E-29
8.50455E-01 1.18087E-29
8.53553E-01 1.14651E-29
8.56625E-01 1.11297E-29
8.59670E-01 1.08024E-29
8.62687E-01 1.04829E-29
8.65677E-01 1.01711E-29
8.68639E-01 9.86677E-30
8.71572E-01 9.56970E-30
8.74478E-01 9.27977E-30
8.77355E-01 8.99679E-30
8.80203E-01 8.72061E-30
8.83022E-01 8.45106E-30
8.85812E-01 8.18800E-30
8.88573E-01 7.93126E-30
8.91304E-01 7.68072E-30
8.94005E-01 7.43623E-30
8.96677E-01 7.19764E-30
8.99318E-01 6.96485E-30
9.01928E-01 6.73769E-30
9.04508E-01 6.51607E-30
9.07058E-01 6.29984E-30
9.09576E-01 6.08890E-30
9.12063E-01 5.88312E-30
9.14519E-01 5.68240E-30
9.16943E-01 5.48663E-30
9.19335E-01 5.29570E-30
9.21696E-01 5.10950E-30
9.24024E-01 4.92795E-30
9.26320E-01 4.75093E-30
9.28584E-01 4.57836E-30
9.30815E-01 4.41014E-30
9.33013E-01 4.24619E-30
9.35178E-01 4.08642E-30
9.37310E-01 3.93073E-30
9.39409E-01 3.77906E-30
9.41474E-01 3.63133E-30
9.43505E-01 3.48745E-30
9.45503E-01 3.34734E-30
9.47467E-01 3.21094E-30
9.49397E-01 3.07819E-30
9.51293E-01 2.94899E-30
9.53154E-01 2.82331E-30
9.54981E-01 2.70105E-30
9.56773E-01 2.58217E-30
9.58530E-01 2.46661E-30
9.60252E-01 2.35429E-30
9.61940E-01 2.24518E-30
9.63592E-01 2.13921E-30
9.65209E-01 2.03632E-30
9.66790E-01 1.93647E-30
9.68336E-01 1.83961E-30
9.69846E-01 1.74569E-30
9.71321E-01 1.65465E-30
9.72759E-01 1.56646E-30
9.74162E-01 1.48107E-30
9.75528E-01 1.39843E-30
9.76858E-01 1.31852E-30
9.78152E-01 1.24128E-30
9.79410E-01 1.16668E-30
9.80631E-01 1.09468E-30
9.81815E-01 1.02525E-30
9.82963E-01 9.58348E-31
9.84074E-01 8.93946E-31
9.85148E-01 8.32012E-31
9.86185E-01 7.72517E-31
9.87185E-01 7.15426E-31
9.88148E-01 6.60717E-31
9.89074E-01 6.08362E-31
9.89962E-01 5.58334E-31
9.90814E-01 5.10610E-31
9.91627E-01 4.65164E-31
9.92404E-01 4.21978E-31
9.93143E-01 3.81028E-31
9.93844E-01 3.42295E-31
9.94508E-01 3.05763E-31
9.95134E-01 2.71407E-31
9.95722E-01 2.39221E-31
9.96273E-01 2.09179E-31
9.96786E-01 1.81275E-31
9.97261E-01 1.55488E-31
9.97698E-01 1.31811E-31
9.98097E-01 1.10230E-31
9.98459E-01 9.07348E-32
9.98782E-01 7.33181E-32
9.99067E-01 5.79698E-32
9.99315E-01 4.46837E-32
9.99524E-01 3.34520E-32
9.99695E-01 2.42699E-32
9.99829E-01 1.71309E-32
9.99924E-01 1.20359E-32
9.99981E-01 8.97915E-33
1.00000E+00 7.96224E-33
