 #
 # Subroutine ELSEPA. Elastic scattering of electrons and positrons
 #                    by neutral atoms and positive ions
 #
 # Projectile: electron
 # Kinetic energy = 1.75000E+07 eV = 6.43113E+05 a.u.
 #
 # WARNING: High-energy factorization with free-atom DF screening.
 #          Absorption, polarization and exchange corrections are
 #          switched off.
 #          Phase shifts are calculated for the bare nucleus.
 #          Scattering amplitudes are not evaluated.
 #
 # Element:  B,  Z =   5,  atomic weight = 1.08110E+01 g/mol
 #
 # Nuclear model: Fermi distribution
 #                Average radius = 2.36595E-13 cm
 #                Skin thickness = 5.46000E-14 cm
 #
 # Number of electrons =  5
 #
 # Total elastic cross section = 2.14134E-19 cm**2 = 7.64685E-03 a0**2
 # 1st transport cross section = 1.49992E-25 cm**2 = 5.35633E-09 a0**2
 # 2nd transport cross section = 4.34732E-25 cm**2 = 1.55246E-08 a0**2
 #
 #
 # Differential cross section:                       MU=(1-COS(THETA))/2
 #
 #  THETA        MU          DCS          DCS        Sherman      error
 #  (deg)                 (cm**2/sr)   (a0**2/sr)    function
 #----------------------------------------------------------------------
0.00000E+00 9.70161E-13
7.61557E-13 9.70087E-13
1.18994E-12 9.70045E-13
1.71346E-12 9.69994E-13
2.33225E-12 9.69934E-13
3.04617E-12 9.69865E-13
3.85530E-12 9.69786E-13
4.75964E-12 9.69699E-13
5.75917E-12 9.69602E-13
6.85391E-12 9.69496E-13
8.04379E-12 9.69381E-13
9.32893E-12 9.69256E-13
1.07092E-11 9.69123E-13
1.21847E-11 9.68980E-13
1.37554E-11 9.68828E-13
1.54213E-11 9.68667E-13
1.71823E-11 9.68497E-13
1.90386E-11 9.68318E-13
2.09900E-11 9.68130E-13
2.30367E-11 9.67932E-13
2.51785E-11 9.67725E-13
2.74156E-11 9.67510E-13
2.97478E-11 9.67285E-13
3.21752E-11 9.67051E-13
3.46979E-11 9.66808E-13
3.73157E-11 9.66556E-13
4.00286E-11 9.66295E-13
4.28368E-11 9.66025E-13
4.57402E-11 9.65745E-13
4.87388E-11 9.65457E-13
5.18325E-11 9.65160E-13
5.50215E-11 9.64853E-13
5.83057E-11 9.64538E-13
6.16850E-11 9.64214E-13
6.51595E-11 9.63880E-13
6.87293E-11 9.63538E-13
7.23943E-11 9.63188E-13
7.61544E-11 9.62828E-13
1.18991E-10 9.58738E-13
1.71347E-10 9.53774E-13
2.33223E-10 9.47956E-13
3.04617E-10 9.41302E-13
3.85531E-10 9.33838E-13
4.75965E-10 9.25595E-13
5.75917E-10 9.16606E-13
6.85389E-10 9.06892E-13
8.04380E-10 8.96495E-13
9.32891E-10 8.85456E-13
1.07092E-09 8.73816E-13
1.21847E-09 8.61590E-13
1.37554E-09 8.48840E-13
1.54213E-09 8.35610E-13
1.71823E-09 8.21935E-13
1.90386E-09 8.07838E-13
2.09900E-09 7.93387E-13
2.30367E-09 7.78623E-13
2.51785E-09 7.63572E-13
2.74156E-09 7.48268E-13
2.97478E-09 7.32773E-13
3.21752E-09 7.17126E-13
3.46978E-09 7.01335E-13
3.73156E-09 6.85452E-13
4.00286E-09 6.69525E-13
4.28368E-09 6.53587E-13
4.57402E-09 6.37628E-13
4.87388E-09 6.21336E-13
5.18326E-09 6.04714E-13
5.50215E-09 5.88467E-13
5.83057E-09 5.72607E-13
6.16850E-09 5.57143E-13
6.51596E-09 5.42084E-13
6.87293E-09 5.27434E-13
7.23942E-09 5.13195E-13
7.61544E-09 4.98467E-13
1.18991E-08 3.64808E-13
1.71347E-08 2.61288E-13
2.33223E-08 1.85413E-13
3.04617E-08 1.31314E-13
3.85531E-08 9.35204E-14
4.75965E-08 6.73920E-14
5.75917E-08 4.92592E-14
6.85389E-08 3.65661E-14
8.04380E-08 2.75960E-14
9.32891E-08 2.11717E-14
1.07092E-07 1.65028E-14
1.21847E-07 1.30517E-14
1.37554E-07 1.04816E-14
1.54213E-07 8.53047E-15
1.71823E-07 7.02615E-15
1.90386E-07 5.84974E-15
2.09900E-07 4.91751E-15
2.30367E-07 4.17090E-15
2.51785E-07 3.56724E-15
2.74156E-07 3.07445E-15
2.97478E-07 2.66808E-15
3.21752E-07 2.32976E-15
3.46978E-07 2.04540E-15
3.73156E-07 1.80453E-15
4.00286E-07 1.59920E-15
4.28368E-07 1.42321E-15
4.57402E-07 1.27148E-15
4.87388E-07 1.13969E-15
5.18325E-07 1.02482E-15
5.50215E-07 9.25032E-16
5.83057E-07 8.37423E-16
6.16850E-07 7.59209E-16
6.51596E-07 6.90510E-16
6.87293E-07 6.29819E-16
7.23942E-07 5.74953E-16
7.61543E-07 5.26309E-16
1.18991E-06 2.38244E-16
1.71347E-06 1.22120E-16
2.33223E-06 6.84100E-17
3.04617E-06 4.10468E-17
3.85531E-06 2.60122E-17
4.75964E-06 1.72362E-17
5.75916E-06 1.18517E-17
6.85388E-06 8.40690E-18
8.04378E-06 6.12353E-18
9.32888E-06 4.56340E-18
1.07092E-05 3.46889E-18
1.21846E-05 2.68313E-18
1.37553E-05 2.10745E-18
1.54212E-05 1.67802E-18
1.71822E-05 1.35248E-18
1.90385E-05 1.10361E-18
2.09899E-05 9.08118E-19
2.30365E-05 7.53719E-19
2.51783E-05 6.30671E-19
2.74153E-05 5.31791E-19
2.97475E-05 4.51673E-19
3.21749E-05 3.86211E-19
3.46974E-05 3.32263E-19
3.73152E-05 2.87430E-19
4.00281E-05 2.49878E-19
4.28362E-05 2.18220E-19
4.57395E-05 1.91382E-19
4.87380E-05 1.68523E-19
5.18317E-05 1.48974E-19
5.50205E-05 1.32189E-19
5.83045E-05 1.17719E-19
6.16838E-05 1.05190E-19
6.51582E-05 9.42924E-20
6.87277E-05 8.47706E-20
7.23925E-05 7.64162E-20
7.61524E-05 6.90586E-20
9.21439E-05 4.71544E-20
1.09658E-04 3.33082E-20
1.28695E-04 2.41822E-20
1.49255E-04 1.79806E-20
1.71338E-04 1.36471E-20
1.94942E-04 1.05417E-20
2.20070E-04 8.27365E-21
2.46720E-04 6.58267E-21
2.74892E-04 5.30322E-21
3.04586E-04 4.31992E-21
3.35803E-04 3.55418E-21
3.68542E-04 2.95116E-21
4.02802E-04 2.47049E-21
4.38585E-04 2.08404E-21
4.75889E-04 1.77019E-21
5.14715E-04 1.51329E-21
5.55063E-04 1.30138E-21
5.96931E-04 1.12525E-21
6.40321E-04 9.78001E-22
6.85233E-04 8.54023E-22
7.31665E-04 7.49113E-22
7.79618E-04 6.59825E-22
8.29092E-04 5.83446E-22
8.80086E-04 5.17824E-22
9.32601E-04 4.61158E-22
9.86636E-04 4.12051E-22
1.04219E-03 3.69303E-22
1.09927E-03 3.31960E-22
1.15786E-03 2.99224E-22
1.21797E-03 2.70421E-22
1.27961E-03 2.45008E-22
1.34276E-03 2.22507E-22
1.40743E-03 2.02535E-22
1.47362E-03 1.84753E-22
1.54133E-03 1.68880E-22
1.61056E-03 1.54679E-22
1.68131E-03 1.41937E-22
1.75357E-03 1.30482E-22
1.82735E-03 1.20160E-22
1.90265E-03 1.10838E-22
1.97947E-03 1.02404E-22
2.05780E-03 9.47563E-23
2.13765E-03 8.78107E-23
2.21902E-03 8.14890E-23
2.30190E-03 7.57268E-23
2.38630E-03 7.04650E-23
2.47222E-03 6.56522E-23
2.55965E-03 6.12440E-23
2.64859E-03 5.71991E-23
2.73905E-03 5.34832E-23
2.83103E-03 5.00640E-23
2.92452E-03 4.69138E-23
3.01952E-03 4.40078E-23
3.11604E-03 4.13230E-23
3.21407E-03 3.88403E-23
3.31362E-03 3.65410E-23
3.41468E-03 3.44095E-23
3.51725E-03 3.24312E-23
3.62133E-03 3.05930E-23
3.72692E-03 2.88833E-23
3.83403E-03 2.72913E-23
3.94265E-03 2.58077E-23
4.05278E-03 2.44234E-23
4.16442E-03 2.31307E-23
4.27757E-03 2.19225E-23
4.39223E-03 2.07921E-23
4.50840E-03 1.97337E-23
4.62608E-03 1.87417E-23
4.74527E-03 1.78113E-23
4.86597E-03 1.69380E-23
4.98817E-03 1.61175E-23
5.11188E-03 1.53461E-23
5.23711E-03 1.46203E-23
5.36383E-03 1.39370E-23
5.49207E-03 1.32930E-23
5.62181E-03 1.26859E-23
5.75306E-03 1.21130E-23
5.88581E-03 1.15721E-23
6.02007E-03 1.10611E-23
6.15583E-03 1.05779E-23
6.29310E-03 1.01208E-23
6.43187E-03 9.68822E-24
6.57214E-03 9.27844E-24
6.71392E-03 8.89013E-24
6.85720E-03 8.52189E-24
7.00198E-03 8.17254E-24
7.14827E-03 7.84090E-24
7.29605E-03 7.52591E-24
7.44534E-03 7.22658E-24
7.59612E-03 6.94197E-24
7.97965E-03 6.28942E-24
8.37255E-03 5.71176E-24
8.77480E-03 5.19891E-24
9.18641E-03 4.74233E-24
9.60736E-03 4.33478E-24
1.00376E-02 3.97007E-24
1.04773E-02 3.64291E-24
1.09262E-02 3.34875E-24
1.13844E-02 3.08368E-24
1.18520E-02 2.84432E-24
1.23288E-02 2.62772E-24
1.28150E-02 2.43134E-24
1.33104E-02 2.25296E-24
1.38150E-02 2.09063E-24
1.43290E-02 1.94265E-24
1.48521E-02 1.80752E-24
1.53845E-02 1.68394E-24
1.59262E-02 1.57072E-24
1.64770E-02 1.46686E-24
1.70371E-02 1.37143E-24
1.76063E-02 1.28363E-24
1.81848E-02 1.20274E-24
1.87724E-02 1.12811E-24
1.93692E-02 1.05917E-24
1.99751E-02 9.95418E-25
2.05901E-02 9.36381E-25
2.12143E-02 8.81651E-25
2.18476E-02 8.30856E-25
2.24900E-02 7.83661E-25
2.31415E-02 7.39764E-25
2.38021E-02 6.98894E-25
2.44717E-02 6.60802E-25
2.51504E-02 6.25265E-25
2.58382E-02 5.92081E-25
2.65349E-02 5.61066E-25
2.72407E-02 5.32050E-25
2.79555E-02 5.04882E-25
2.86793E-02 4.79422E-25
2.94120E-02 4.55544E-25
3.01537E-02 4.33130E-25
3.09043E-02 4.12074E-25
3.16639E-02 3.92279E-25
3.24324E-02 3.73655E-25
3.32098E-02 3.56121E-25
3.39961E-02 3.39600E-25
3.47912E-02 3.24023E-25
3.55952E-02 3.09327E-25
3.64081E-02 2.95451E-25
3.72297E-02 2.82343E-25
3.80602E-02 2.69951E-25
3.88995E-02 2.58229E-25
3.97476E-02 2.47134E-25
4.06044E-02 2.36627E-25
4.14700E-02 2.26670E-25
4.23443E-02 2.17229E-25
4.32273E-02 2.08273E-25
4.41190E-02 1.99772E-25
4.50194E-02 1.91698E-25
4.59284E-02 1.84026E-25
4.68461E-02 1.76732E-25
4.87074E-02 1.63193E-25
5.06030E-02 1.50920E-25
5.25328E-02 1.39773E-25
5.44967E-02 1.29632E-25
5.64946E-02 1.20389E-25
5.85262E-02 1.11951E-25
6.05914E-02 1.04236E-25
6.26901E-02 9.71690E-26
6.48222E-02 9.06876E-26
6.69873E-02 8.47340E-26
6.91854E-02 7.92577E-26
7.14163E-02 7.42136E-26
7.36799E-02 6.95614E-26
7.59760E-02 6.52653E-26
7.83043E-02 6.12930E-26
8.06647E-02 5.76159E-26
8.30571E-02 5.42080E-26
8.54812E-02 5.10460E-26
8.79369E-02 4.81092E-26
9.04240E-02 4.53784E-26
9.29422E-02 4.28367E-26
9.54915E-02 4.04686E-26
9.80716E-02 3.82602E-26
1.00682E-01 3.61986E-26
1.03323E-01 3.42725E-26
1.05995E-01 3.24712E-26
1.08696E-01 3.07852E-26
1.11427E-01 2.92059E-26
1.14188E-01 2.77252E-26
1.16978E-01 2.63359E-26
1.19797E-01 2.50313E-26
1.22645E-01 2.38053E-26
1.25522E-01 2.26523E-26
1.28428E-01 2.15673E-26
1.31361E-01 2.05454E-26
1.34323E-01 1.95823E-26
1.37313E-01 1.86740E-26
1.40330E-01 1.78169E-26
1.43375E-01 1.70075E-26
1.46447E-01 1.62428E-26
1.49545E-01 1.55197E-26
1.52671E-01 1.48356E-26
1.55823E-01 1.41881E-26
1.59001E-01 1.35748E-26
1.62205E-01 1.29936E-26
1.65435E-01 1.24425E-26
1.68690E-01 1.19197E-26
1.71970E-01 1.14234E-26
1.75276E-01 1.09521E-26
1.78606E-01 1.05043E-26
1.81961E-01 1.00786E-26
1.85340E-01 9.67367E-27
1.88743E-01 9.28837E-27
1.92169E-01 8.92157E-27
1.95619E-01 8.57222E-27
1.99092E-01 8.23933E-27
2.02589E-01 7.92199E-27
2.06107E-01 7.61935E-27
2.09649E-01 7.33060E-27
2.13212E-01 7.05499E-27
2.16797E-01 6.79182E-27
2.20404E-01 6.54042E-27
2.24032E-01 6.30017E-27
2.27680E-01 6.07050E-27
2.31350E-01 5.85084E-27
2.35040E-01 5.64069E-27
2.38751E-01 5.43957E-27
2.42481E-01 5.24701E-27
2.46231E-01 5.06258E-27
2.50000E-01 4.88589E-27
2.53788E-01 4.71654E-27
2.57595E-01 4.55419E-27
2.61421E-01 4.39848E-27
2.65264E-01 4.24911E-27
2.69126E-01 4.10576E-27
2.73005E-01 3.96815E-27
2.76901E-01 3.83601E-27
2.80814E-01 3.70909E-27
2.84744E-01 3.58714E-27
2.88691E-01 3.46993E-27
2.92653E-01 3.35725E-27
2.96632E-01 3.24889E-27
3.00625E-01 3.14465E-27
3.04634E-01 3.04436E-27
3.08658E-01 2.94783E-27
3.12697E-01 2.85491E-27
3.16749E-01 2.76542E-27
3.20816E-01 2.67923E-27
3.24896E-01 2.59619E-27
3.28990E-01 2.51617E-27
3.33097E-01 2.43903E-27
3.37216E-01 2.36466E-27
3.41348E-01 2.29294E-27
3.45492E-01 2.22375E-27
3.49647E-01 2.15700E-27
3.53814E-01 2.09258E-27
3.57992E-01 2.03040E-27
3.62181E-01 1.97036E-27
3.66381E-01 1.91238E-27
3.70590E-01 1.85638E-27
3.74810E-01 1.80228E-27
3.79039E-01 1.75000E-27
3.83277E-01 1.69946E-27
3.87524E-01 1.65062E-27
3.91780E-01 1.60338E-27
3.96044E-01 1.55771E-27
4.00316E-01 1.51352E-27
4.04596E-01 1.47078E-27
4.08882E-01 1.42941E-27
4.13176E-01 1.38938E-27
4.17476E-01 1.35063E-27
4.21783E-01 1.31311E-27
4.26095E-01 1.27677E-27
4.30413E-01 1.24158E-27
4.34737E-01 1.20749E-27
4.39065E-01 1.17447E-27
4.43398E-01 1.14246E-27
4.47736E-01 1.11144E-27
4.52077E-01 1.08137E-27
4.56422E-01 1.05222E-27
4.60770E-01 1.02395E-27
4.65122E-01 9.96531E-28
4.69476E-01 9.69937E-28
4.73832E-01 9.44137E-28
4.78190E-01 9.19103E-28
4.82550E-01 8.94810E-28
4.86912E-01 8.71232E-28
4.91274E-01 8.48343E-28
4.95637E-01 8.26122E-28
5.00000E-01 8.04545E-28
5.04363E-01 7.83590E-28
5.08726E-01 7.63237E-28
5.13088E-01 7.43466E-28
5.17450E-01 7.24258E-28
5.21810E-01 7.05594E-28
5.26168E-01 6.87456E-28
5.30524E-01 6.69826E-28
5.34878E-01 6.52690E-28
5.39230E-01 6.36030E-28
5.43578E-01 6.19831E-28
5.47923E-01 6.04079E-28
5.52264E-01 5.88759E-28
5.56602E-01 5.73858E-28
5.60935E-01 5.59363E-28
5.65263E-01 5.45260E-28
5.69587E-01 5.31538E-28
5.73905E-01 5.18184E-28
5.78217E-01 5.05188E-28
5.82524E-01 4.92539E-28
5.86824E-01 4.80224E-28
5.91118E-01 4.68236E-28
5.95404E-01 4.56563E-28
5.99684E-01 4.45196E-28
6.03956E-01 4.34126E-28
6.08220E-01 4.23344E-28
6.12476E-01 4.12842E-28
6.16723E-01 4.02611E-28
6.20961E-01 3.92643E-28
6.25190E-01 3.82930E-28
6.29410E-01 3.73466E-28
6.33619E-01 3.64242E-28
6.37819E-01 3.55252E-28
6.42008E-01 3.46489E-28
6.46186E-01 3.37946E-28
6.50353E-01 3.29618E-28
6.54508E-01 3.21498E-28
6.58652E-01 3.13580E-28
6.62784E-01 3.05858E-28
6.66903E-01 2.98328E-28
6.71010E-01 2.90983E-28
6.75104E-01 2.83818E-28
6.79184E-01 2.76830E-28
6.83251E-01 2.70011E-28
6.87303E-01 2.63359E-28
6.91342E-01 2.56868E-28
6.95366E-01 2.50534E-28
6.99375E-01 2.44353E-28
7.03368E-01 2.38320E-28
7.07347E-01 2.32432E-28
7.11309E-01 2.26684E-28
7.15256E-01 2.21074E-28
7.19186E-01 2.15597E-28
7.23099E-01 2.10250E-28
7.26995E-01 2.05029E-28
7.30874E-01 1.99931E-28
7.34736E-01 1.94953E-28
7.38579E-01 1.90091E-28
7.42405E-01 1.85344E-28
7.46212E-01 1.80707E-28
7.50000E-01 1.76178E-28
7.53769E-01 1.71754E-28
7.57519E-01 1.67432E-28
7.61249E-01 1.63211E-28
7.64960E-01 1.59087E-28
7.68650E-01 1.55057E-28
7.72320E-01 1.51121E-28
7.75968E-01 1.47274E-28
7.79596E-01 1.43516E-28
7.83203E-01 1.39843E-28
7.86788E-01 1.36254E-28
7.90351E-01 1.32746E-28
7.93893E-01 1.29318E-28
7.97411E-01 1.25968E-28
8.00908E-01 1.22694E-28
8.04381E-01 1.19494E-28
8.07831E-01 1.16366E-28
8.11257E-01 1.13308E-28
8.14660E-01 1.10320E-28
8.18039E-01 1.07398E-28
8.21394E-01 1.04542E-28
8.24724E-01 1.01750E-28
8.28030E-01 9.90211E-29
8.31310E-01 9.63529E-29
8.34565E-01 9.37446E-29
8.37795E-01 9.11945E-29
8.40999E-01 8.87014E-29
8.44177E-01 8.62641E-29
8.47329E-01 8.38812E-29
8.50455E-01 8.15515E-29
8.53553E-01 7.92739E-29
8.56625E-01 7.70471E-29
8.59670E-01 7.48700E-29
8.62687E-01 7.27416E-29
8.65677E-01 7.06608E-29
8.68639E-01 6.86264E-29
8.71572E-01 6.66376E-29
8.74478E-01 6.46933E-29
8.77355E-01 6.27926E-29
8.80203E-01 6.09346E-29
8.83022E-01 5.91183E-29
8.85812E-01 5.73428E-29
8.88573E-01 5.56074E-29
8.91304E-01 5.39111E-29
8.94005E-01 5.22532E-29
8.96677E-01 5.06328E-29
8.99318E-01 4.90493E-29
9.01928E-01 4.75018E-29
9.04508E-01 4.59896E-29
9.07058E-01 4.45120E-29
9.09576E-01 4.30684E-29
9.12063E-01 4.16581E-29
9.14519E-01 4.02803E-29
9.16943E-01 3.89345E-29
9.19335E-01 3.76201E-29
9.21696E-01 3.63364E-29
9.24024E-01 3.50829E-29
9.26320E-01 3.38591E-29
9.28584E-01 3.26642E-29
9.30815E-01 3.14979E-29
9.33013E-01 3.03596E-29
9.35178E-01 2.92488E-29
9.37310E-01 2.81650E-29
9.39409E-01 2.71077E-29
9.41474E-01 2.60765E-29
9.43505E-01 2.50708E-29
9.45503E-01 2.40903E-29
9.47467E-01 2.31345E-29
9.49397E-01 2.22031E-29
9.51293E-01 2.12956E-29
9.53154E-01 2.04116E-29
9.54981E-01 1.95507E-29
9.56773E-01 1.87126E-29
9.58530E-01 1.78969E-29
9.60252E-01 1.71032E-29
9.61940E-01 1.63313E-29
9.63592E-01 1.55808E-29
9.65209E-01 1.48513E-29
9.66790E-01 1.41426E-29
9.68336E-01 1.34544E-29
9.69846E-01 1.27864E-29
9.71321E-01 1.21383E-29
9.72759E-01 1.15098E-29
9.74162E-01 1.09007E-29
9.75528E-01 1.03106E-29
9.76858E-01 9.73952E-30
9.78152E-01 9.18700E-30
9.79410E-01 8.65291E-30
9.80631E-01 8.13700E-30
9.81815E-01 7.63907E-30
9.82963E-01 7.15890E-30
9.84074E-01 6.69630E-30
9.85148E-01 6.25110E-30
9.86185E-01 5.82311E-30
9.87185E-01 5.41212E-30
9.88148E-01 5.01801E-30
9.89074E-01 4.64061E-30
9.89962E-01 4.27975E-30
9.90814E-01 3.93529E-30
9.91627E-01 3.60709E-30
9.92404E-01 3.29503E-30
9.93143E-01 2.99897E-30
9.93844E-01 2.71880E-30
9.94508E-01 2.45442E-30
9.95134E-01 2.20567E-30
9.95722E-01 1.97253E-30
9.96273E-01 1.75484E-30
9.96786E-01 1.55255E-30
9.97261E-01 1.36555E-30
9.97698E-01 1.19379E-30
9.98097E-01 1.03719E-30
9.98459E-01 8.95693E-31
9.98782E-01 7.69251E-31
9.99067E-01 6.57795E-31
9.99315E-01 5.61301E-31
9.99524E-01 4.79706E-31
9.99695E-01 4.12998E-31
9.99829E-01 3.61120E-31
9.99924E-01 3.24102E-31
9.99981E-01 3.01885E-31
1.00000E+00 2.94505E-31
