 #
 # Subroutine ELSEPA. Elastic scattering of electrons and positrons
 #                    by neutral atoms and positive ions
 #
 # Projectile: electron
 # Kinetic energy = 6.00000E+08 eV = 2.20496E+07 a.u.
 #
 # WARNING: High-energy factorization with free-atom DF screening.
 #          Absorption, polarization and exchange corrections are
 #          switched off.
 #          Phase shifts are calculated for the bare nucleus.
 #          Scattering amplitudes are not evaluated.
 #
 # Element:  B,  Z =   5,  atomic weight = 1.08110E+01 g/mol
 #
 # Nuclear model: Fermi distribution
 #                Average radius = 2.36595E-13 cm
 #                Skin thickness = 5.46000E-14 cm
 #
 # Number of electrons =  5
 #
 # Total elastic cross section = 2.13967E-19 cm**2 = 7.64089E-03 a0**2
 # 1st transport cross section = 1.60373E-28 cm**2 = 5.72703E-12 a0**2
 # 2nd transport cross section = 4.80834E-28 cm**2 = 1.71709E-11 a0**2
 #
 #
 # Differential cross section:                       MU=(1-COS(THETA))/2
 #
 #  THETA        MU          DCS          DCS        Sherman      error
 #  (deg)                 (cm**2/sr)   (a0**2/sr)    function
 #----------------------------------------------------------------------
0.00000E+00 1.07848E-09
7.61557E-13 9.92469E-10
1.18994E-12 9.48244E-10
1.71346E-12 8.97822E-10
2.33225E-12 8.42909E-10
3.04617E-12 7.85190E-10
3.85530E-12 7.26211E-10
4.75964E-12 6.65767E-10
5.75917E-12 6.07737E-10
6.85391E-12 5.53673E-10
8.04379E-12 4.99730E-10
9.32893E-12 4.51587E-10
1.07092E-11 4.05102E-10
1.21847E-11 3.63282E-10
1.37554E-11 3.25164E-10
1.54213E-11 2.90076E-10
1.71823E-11 2.59373E-10
1.90386E-11 2.30705E-10
2.09900E-11 2.05797E-10
2.30367E-11 1.83259E-10
2.51785E-11 1.63309E-10
2.74156E-11 1.45710E-10
2.97478E-11 1.29916E-10
3.21752E-11 1.16151E-10
3.46979E-11 1.03758E-10
3.73157E-11 9.29096E-11
4.00286E-11 8.32845E-11
4.28368E-11 7.47601E-11
4.57402E-11 6.72443E-11
4.87388E-11 6.05484E-11
5.18325E-11 5.46395E-11
5.50215E-11 4.93776E-11
5.83057E-11 4.47089E-11
6.16850E-11 4.05565E-11
6.51595E-11 3.68550E-11
6.87293E-11 3.35543E-11
7.23943E-11 3.06060E-11
7.61544E-11 2.79661E-11
1.18991E-10 1.24851E-11
1.71347E-10 6.48764E-12
2.33223E-10 3.76209E-12
3.04617E-10 2.36783E-12
3.85531E-10 1.57850E-12
4.75965E-10 1.09803E-12
5.75917E-10 7.90155E-13
6.85389E-10 5.83704E-13
8.04380E-10 4.40554E-13
9.32891E-10 3.38520E-13
1.07092E-09 2.64201E-13
1.21847E-09 2.08981E-13
1.37554E-09 1.67323E-13
1.54213E-09 1.35410E-13
1.71823E-09 1.10653E-13
1.90386E-09 9.12391E-14
2.09900E-09 7.58489E-14
2.30367E-09 6.35381E-14
2.51785E-09 5.35970E-14
2.74156E-09 4.55076E-14
2.97478E-09 3.88728E-14
3.21752E-09 3.33933E-14
3.46978E-09 2.88378E-14
3.73156E-09 2.50269E-14
4.00286E-09 2.18204E-14
4.28368E-09 1.91077E-14
4.57402E-09 1.68011E-14
4.87388E-09 1.48299E-14
5.18326E-09 1.31380E-14
5.50215E-09 1.16792E-14
5.83057E-09 1.04165E-14
6.16850E-09 9.31903E-15
6.51596E-09 8.36165E-15
6.87293E-09 7.52373E-15
7.23942E-09 6.78770E-15
7.61544E-09 6.13927E-15
1.18991E-08 2.52756E-15
1.71347E-08 1.22144E-15
2.33223E-08 6.59927E-16
3.04617E-08 3.87024E-16
3.85531E-08 2.41666E-16
4.75965E-08 1.58572E-16
5.75917E-08 1.08315E-16
6.85389E-08 7.64819E-17
8.04380E-08 5.55302E-17
9.32891E-08 4.12863E-17
1.07092E-07 3.13304E-17
1.21847E-07 2.42026E-17
1.37554E-07 1.89913E-17
1.54213E-07 1.51101E-17
1.71823E-07 1.21717E-17
1.90386E-07 9.91403E-18
2.09900E-07 8.15640E-18
2.30367E-07 6.77157E-18
2.51785E-07 5.66856E-18
2.74156E-07 4.78127E-18
2.97478E-07 4.06099E-18
3.21752E-07 3.47137E-18
3.46978E-07 2.98499E-18
3.73156E-07 2.58088E-18
4.00286E-07 2.24291E-18
4.28368E-07 1.95849E-18
4.57402E-07 1.71776E-18
4.87388E-07 1.51290E-18
5.18325E-07 1.33769E-18
5.50215E-07 1.18713E-18
5.83057E-07 1.05717E-18
6.16850E-07 9.44514E-19
6.51596E-07 8.46473E-19
6.87293E-07 7.60830E-19
7.23942E-07 6.85749E-19
7.61543E-07 6.19705E-19
1.18991E-06 2.53840E-19
1.71347E-06 1.22419E-19
2.33223E-06 6.60805E-20
3.04617E-06 3.87362E-20
3.85531E-06 2.41835E-20
4.75964E-06 1.58672E-20
5.75916E-06 1.08378E-20
6.85388E-06 7.65241E-21
8.04378E-06 5.55598E-21
9.32888E-06 4.13079E-21
1.07092E-05 3.13467E-21
1.21846E-05 2.42152E-21
1.37553E-05 1.90013E-21
1.54212E-05 1.51182E-21
1.71822E-05 1.21783E-21
1.90385E-05 9.93324E-22
2.09899E-05 8.17072E-22
2.30365E-05 6.77947E-22
2.51783E-05 5.67126E-22
2.74153E-05 4.78110E-22
2.97475E-05 4.06015E-22
3.21749E-05 3.47127E-22
3.46974E-05 2.98609E-22
3.73152E-05 2.58297E-22
4.00281E-05 2.24543E-22
4.28362E-05 1.96089E-22
4.57395E-05 1.71967E-22
4.87380E-05 1.51421E-22
5.18317E-05 1.33851E-22
5.50205E-05 1.18767E-22
5.83045E-05 1.05764E-22
6.16838E-05 9.45055E-23
6.51582E-05 8.47137E-23
6.87277E-05 7.61584E-23
7.23925E-05 6.86518E-23
7.61524E-05 6.16086E-23
9.21439E-05 4.20027E-23
1.09658E-04 2.96203E-23
1.28695E-04 2.14661E-23
1.49255E-04 1.59303E-23
1.71338E-04 1.20660E-23
1.94942E-04 9.29980E-24
2.20070E-04 7.28189E-24
2.46720E-04 5.77919E-24
2.74892E-04 4.64370E-24
3.04586E-04 3.77223E-24
3.35803E-04 3.09455E-24
3.68542E-04 2.56169E-24
4.02802E-04 2.13761E-24
4.38585E-04 1.79724E-24
4.75889E-04 1.52128E-24
5.14715E-04 1.29580E-24
5.55063E-04 1.11017E-24
5.96931E-04 9.56177E-25
6.40321E-04 8.27700E-25
6.85233E-04 7.19755E-25
7.31665E-04 6.28613E-25
7.79618E-04 5.51218E-25
8.29092E-04 4.85167E-25
8.80086E-04 4.28558E-25
9.32601E-04 3.79795E-25
9.86636E-04 3.37647E-25
1.04219E-03 3.01055E-25
1.09927E-03 2.69177E-25
1.15786E-03 2.41310E-25
1.21797E-03 2.16862E-25
1.27961E-03 1.95357E-25
1.34276E-03 1.76374E-25
1.40743E-03 1.59578E-25
1.47362E-03 1.44672E-25
1.54133E-03 1.31410E-25
1.61056E-03 1.19585E-25
1.68131E-03 1.09012E-25
1.75357E-03 9.95419E-26
1.82735E-03 9.10382E-26
1.90265E-03 8.33883E-26
1.97947E-03 7.64931E-26
2.05780E-03 7.02651E-26
2.13765E-03 6.46317E-26
2.21902E-03 5.95252E-26
2.30190E-03 5.48902E-26
2.38630E-03 5.06758E-26
2.47222E-03 4.68378E-26
2.55965E-03 4.33381E-26
2.64859E-03 4.01413E-26
2.73905E-03 3.72183E-26
2.83103E-03 3.45413E-26
2.92452E-03 3.20869E-26
3.01952E-03 2.98338E-26
3.11604E-03 2.77626E-26
3.21407E-03 2.58571E-26
3.31362E-03 2.41016E-26
3.41468E-03 2.24828E-26
3.51725E-03 2.09884E-26
3.62133E-03 1.96075E-26
3.72692E-03 1.83304E-26
3.83403E-03 1.71478E-26
3.94265E-03 1.60521E-26
4.05278E-03 1.50359E-26
4.16442E-03 1.40925E-26
4.27757E-03 1.32162E-26
4.39223E-03 1.24013E-26
4.50840E-03 1.16432E-26
4.62608E-03 1.09371E-26
4.74527E-03 1.02792E-26
4.86597E-03 9.66575E-27
4.98817E-03 9.09324E-27
5.11188E-03 8.55868E-27
5.23711E-03 8.05915E-27
5.36383E-03 7.59214E-27
5.49207E-03 7.15521E-27
5.62181E-03 6.74620E-27
5.75306E-03 6.36312E-27
5.88581E-03 6.00409E-27
6.02007E-03 5.66746E-27
6.15583E-03 5.35163E-27
6.29310E-03 5.05519E-27
6.43187E-03 4.77679E-27
6.57214E-03 4.51520E-27
6.71392E-03 4.26933E-27
6.85720E-03 4.03807E-27
7.00198E-03 3.82051E-27
7.14827E-03 3.61571E-27
7.29605E-03 3.42286E-27
7.44534E-03 3.24118E-27
7.59612E-03 3.06995E-27
7.97965E-03 2.68340E-27
8.37255E-03 2.34901E-27
8.77480E-03 2.05911E-27
9.18641E-03 1.80727E-27
9.60736E-03 1.58809E-27
1.00376E-02 1.39698E-27
1.04773E-02 1.23009E-27
1.09262E-02 1.08411E-27
1.13844E-02 9.56246E-28
1.18520E-02 8.44097E-28
1.23288E-02 7.45611E-28
1.28150E-02 6.59022E-28
1.33104E-02 5.82812E-28
1.38150E-02 5.15671E-28
1.43290E-02 4.56465E-28
1.48521E-02 4.04211E-28
1.53845E-02 3.58058E-28
1.59262E-02 3.17265E-28
1.64770E-02 2.81184E-28
1.70371E-02 2.49253E-28
1.76063E-02 2.20980E-28
1.81848E-02 1.95933E-28
1.87724E-02 1.73734E-28
1.93692E-02 1.54053E-28
1.99751E-02 1.36598E-28
2.05901E-02 1.21112E-28
2.12143E-02 1.07371E-28
2.18476E-02 9.51747E-29
2.24900E-02 8.43487E-29
2.31415E-02 7.47377E-29
2.38021E-02 6.62048E-29
2.44717E-02 5.86288E-29
2.51504E-02 5.19025E-29
2.58382E-02 4.59309E-29
2.65349E-02 4.06298E-29
2.72407E-02 3.59245E-29
2.79555E-02 3.17487E-29
2.86793E-02 2.80436E-29
2.94120E-02 2.47570E-29
3.01537E-02 2.18423E-29
3.09043E-02 1.92583E-29
3.16639E-02 1.69682E-29
3.24324E-02 1.49395E-29
3.32098E-02 1.31431E-29
3.39961E-02 1.15531E-29
3.47912E-02 1.01465E-29
3.55952E-02 8.90293E-30
3.64081E-02 7.80405E-30
3.72297E-02 6.83367E-30
3.80602E-02 5.97735E-30
3.88995E-02 5.22224E-30
3.97476E-02 4.55689E-30
4.06044E-02 3.97112E-30
4.14700E-02 3.45586E-30
4.23443E-02 3.00306E-30
4.32273E-02 2.60554E-30
4.41190E-02 2.25692E-30
4.50194E-02 1.95153E-30
4.59284E-02 1.68434E-30
4.68461E-02 1.45085E-30
4.87074E-02 1.06957E-30
5.06030E-02 7.80931E-31
5.25328E-02 5.63919E-31
5.44967E-02 4.02027E-31
5.64946E-02 2.82342E-31
5.85262E-02 1.94790E-31
6.05914E-02 1.31542E-31
6.26901E-02 8.65364E-32
6.48222E-02 5.51014E-32
6.69873E-02 3.36574E-32
6.91854E-02 1.94769E-32
7.14163E-02 1.04969E-32
7.36799E-02 5.16956E-33
7.59760E-02 2.34487E-33
7.83043E-02 1.17825E-33
8.06647E-02 1.05822E-33
8.30571E-02 1.54976E-33
8.54812E-02 2.35040E-33
8.79369E-02 3.25617E-33
9.04240E-02 4.13539E-33
9.29422E-02 4.90868E-33
9.54915E-02 5.53367E-33
9.80716E-02 5.99367E-33
1.00682E-01 6.28901E-33
1.03323E-01 6.43090E-33
1.05995E-01 6.43680E-33
1.08696E-01 6.32725E-33
1.11427E-01 6.12370E-33
1.14188E-01 5.84690E-33
1.16978E-01 5.51611E-33
1.19797E-01 5.14851E-33
1.22645E-01 4.75896E-33
1.25522E-01 4.35996E-33
1.28428E-01 3.96175E-33
1.31361E-01 3.57244E-33
1.34323E-01 3.19822E-33
1.37313E-01 2.84368E-33
1.40330E-01 2.51192E-33
1.43375E-01 2.20487E-33
1.46447E-01 1.92347E-33
1.49545E-01 1.66789E-33
1.52671E-01 1.43766E-33
1.55823E-01 1.23189E-33
1.59001E-01 1.04930E-33
1.62205E-01 8.88405E-34
1.65435E-01 7.47590E-34
1.68690E-01 6.25153E-34
1.71970E-01 5.19380E-34
1.75276E-01 4.28591E-34
1.78606E-01 3.51168E-34
1.81961E-01 2.85570E-34
1.85340E-01 2.30367E-34
1.88743E-01 1.84229E-34
1.92169E-01 1.45948E-34
1.95619E-01 1.14428E-34
1.99092E-01 8.86868E-35
2.02589E-01 6.78519E-35
2.06107E-01 5.11494E-35
2.09649E-01 3.79058E-35
2.13212E-01 2.75325E-35
2.16797E-01 1.95225E-35
2.20404E-01 1.34411E-35
2.24032E-01 8.91704E-36
2.27680E-01 5.63839E-36
2.31350E-01 3.34240E-36
2.35040E-01 1.81113E-36
2.38751E-01 8.64156E-37
2.42481E-01 3.54816E-37
2.46231E-01 1.64109E-37
2.50000E-01 1.97037E-37
2.53788E-01 3.78611E-37
2.57595E-01 6.50676E-37
2.61421E-01 9.68812E-37
2.65264E-01 1.30000E-36
2.69126E-01 1.62050E-36
2.73005E-01 1.91399E-36
2.76901E-01 2.16974E-36
2.80814E-01 2.38195E-36
2.84744E-01 2.54814E-36
2.88691E-01 2.66814E-36
2.92653E-01 2.74427E-36
2.96632E-01 2.77953E-36
3.00625E-01 2.77793E-36
3.04634E-01 2.74378E-36
3.08658E-01 2.68209E-36
3.12697E-01 2.59747E-36
3.16749E-01 2.49397E-36
3.20816E-01 2.37617E-36
3.24896E-01 2.24794E-36
3.28990E-01 2.11237E-36
3.33097E-01 1.97286E-36
3.37216E-01 1.83162E-36
3.41348E-01 1.69118E-36
3.45492E-01 1.55321E-36
3.49647E-01 1.41952E-36
3.53814E-01 1.29093E-36
3.57992E-01 1.16845E-36
3.62181E-01 1.05284E-36
3.66381E-01 9.44303E-37
3.70590E-01 8.43293E-37
3.74810E-01 7.49930E-37
3.79039E-01 6.64024E-37
3.83277E-01 5.85378E-37
3.87524E-01 5.13880E-37
3.91780E-01 4.49095E-37
3.96044E-01 3.90848E-37
4.00316E-01 3.38630E-37
4.04596E-01 2.91990E-37
4.08882E-01 2.50680E-37
4.13176E-01 2.14086E-37
4.17476E-01 1.81948E-37
4.21783E-01 1.53825E-37
4.26095E-01 1.29280E-37
4.30413E-01 1.08026E-37
4.34737E-01 8.96692E-38
4.39065E-01 7.39601E-38
4.43398E-01 6.05316E-38
4.47736E-01 4.91308E-38
4.52077E-01 3.95454E-38
4.56422E-01 3.15035E-38
4.60770E-01 2.48225E-38
4.65122E-01 1.93104E-38
4.69476E-01 1.48187E-38
4.73832E-01 1.11630E-38
4.78190E-01 8.25801E-39
4.82550E-01 5.95694E-39
4.86912E-01 4.17721E-39
4.91274E-01 2.81798E-39
4.95637E-01 1.81448E-39
5.00000E-01 1.09175E-39
5.04363E-01 5.96790E-40
5.08726E-01 2.84669E-40
5.13088E-01 1.00000E-45
5.17450E-01 1.00000E-45
5.21810E-01 1.00000E-45
5.26168E-01 1.00000E-45
5.30524E-01 1.00000E-45
5.34878E-01 1.00000E-45
5.39230E-01 1.00000E-45
5.43578E-01 1.00000E-45
5.47923E-01 1.00000E-45
5.52264E-01 1.00000E-45
5.56602E-01 1.00000E-45
5.60935E-01 1.00000E-45
5.65263E-01 1.00000E-45
5.69587E-01 1.00000E-45
5.73905E-01 1.00000E-45
5.78217E-01 1.00000E-45
5.82524E-01 1.00000E-45
5.86824E-01 1.00000E-45
5.91118E-01 1.00000E-45
5.95404E-01 1.00000E-45
5.99684E-01 1.00000E-45
6.03956E-01 1.00000E-45
6.08220E-01 1.00000E-45
6.12476E-01 1.00000E-45
6.16723E-01 1.00000E-45
6.20961E-01 1.00000E-45
6.25190E-01 1.00000E-45
6.29410E-01 1.00000E-45
6.33619E-01 1.00000E-45
6.37819E-01 1.00000E-45
6.42008E-01 1.00000E-45
6.46186E-01 1.00000E-45
6.50353E-01 1.00000E-45
6.54508E-01 1.00000E-45
6.58652E-01 1.00000E-45
6.62784E-01 1.00000E-45
6.66903E-01 1.00000E-45
6.71010E-01 1.00000E-45
6.75104E-01 1.00000E-45
6.79184E-01 1.00000E-45
6.83251E-01 1.00000E-45
6.87303E-01 1.00000E-45
6.91342E-01 1.00000E-45
6.95366E-01 1.00000E-45
6.99375E-01 1.00000E-45
7.03368E-01 1.00000E-45
7.07347E-01 1.00000E-45
7.11309E-01 1.00000E-45
7.15256E-01 1.00000E-45
7.19186E-01 1.00000E-45
7.23099E-01 1.00000E-45
7.26995E-01 1.00000E-45
7.30874E-01 1.00000E-45
7.34736E-01 1.00000E-45
7.38579E-01 1.00000E-45
7.42405E-01 1.00000E-45
7.46212E-01 1.00000E-45
7.50000E-01 1.00000E-45
7.53769E-01 1.00000E-45
7.57519E-01 1.00000E-45
7.61249E-01 1.00000E-45
7.64960E-01 1.00000E-45
7.68650E-01 1.00000E-45
7.72320E-01 1.00000E-45
7.75968E-01 1.00000E-45
7.79596E-01 1.00000E-45
7.83203E-01 1.00000E-45
7.86788E-01 1.00000E-45
7.90351E-01 1.00000E-45
7.93893E-01 1.00000E-45
7.97411E-01 1.00000E-45
8.00908E-01 1.00000E-45
8.04381E-01 1.00000E-45
8.07831E-01 1.00000E-45
8.11257E-01 1.00000E-45
8.14660E-01 1.00000E-45
8.18039E-01 1.00000E-45
8.21394E-01 1.00000E-45
8.24724E-01 1.00000E-45
8.28030E-01 1.00000E-45
8.31310E-01 1.00000E-45
8.34565E-01 1.00000E-45
8.37795E-01 1.00000E-45
8.40999E-01 1.00000E-45
8.44177E-01 1.00000E-45
8.47329E-01 1.00000E-45
8.50455E-01 1.00000E-45
8.53553E-01 1.00000E-45
8.56625E-01 1.00000E-45
8.59670E-01 1.00000E-45
8.62687E-01 1.00000E-45
8.65677E-01 1.00000E-45
8.68639E-01 1.00000E-45
8.71572E-01 1.00000E-45
8.74478E-01 1.00000E-45
8.77355E-01 1.00000E-45
8.80203E-01 1.00000E-45
8.83022E-01 1.00000E-45
8.85812E-01 1.00000E-45
8.88573E-01 1.00000E-45
8.91304E-01 1.00000E-45
8.94005E-01 1.00000E-45
8.96677E-01 1.00000E-45
8.99318E-01 1.00000E-45
9.01928E-01 1.00000E-45
9.04508E-01 1.00000E-45
9.07058E-01 1.00000E-45
9.09576E-01 1.00000E-45
9.12063E-01 1.00000E-45
9.14519E-01 1.00000E-45
9.16943E-01 1.00000E-45
9.19335E-01 1.00000E-45
9.21696E-01 1.00000E-45
9.24024E-01 1.00000E-45
9.26320E-01 1.00000E-45
9.28584E-01 1.00000E-45
9.30815E-01 1.00000E-45
9.33013E-01 1.00000E-45
9.35178E-01 1.00000E-45
9.37310E-01 1.00000E-45
9.39409E-01 1.00000E-45
9.41474E-01 1.00000E-45
9.43505E-01 1.00000E-45
9.45503E-01 1.00000E-45
9.47467E-01 1.00000E-45
9.49397E-01 1.00000E-45
9.51293E-01 1.00000E-45
9.53154E-01 1.00000E-45
9.54981E-01 1.00000E-45
9.56773E-01 1.00000E-45
9.58530E-01 1.00000E-45
9.60252E-01 1.00000E-45
9.61940E-01 1.00000E-45
9.63592E-01 1.00000E-45
9.65209E-01 1.00000E-45
9.66790E-01 1.00000E-45
9.68336E-01 1.00000E-45
9.69846E-01 1.00000E-45
9.71321E-01 1.00000E-45
9.72759E-01 1.00000E-45
9.74162E-01 1.00000E-45
9.75528E-01 1.00000E-45
9.76858E-01 1.00000E-45
9.78152E-01 1.00000E-45
9.79410E-01 1.00000E-45
9.80631E-01 1.00000E-45
9.81815E-01 1.00000E-45
9.82963E-01 1.00000E-45
9.84074E-01 1.00000E-45
9.85148E-01 1.00000E-45
9.86185E-01 1.00000E-45
9.87185E-01 1.00000E-45
9.88148E-01 1.00000E-45
9.89074E-01 1.00000E-45
9.89962E-01 1.00000E-45
9.90814E-01 1.00000E-45
9.91627E-01 1.00000E-45
9.92404E-01 1.00000E-45
9.93143E-01 1.00000E-45
9.93844E-01 1.00000E-45
9.94508E-01 1.00000E-45
9.95134E-01 1.00000E-45
9.95722E-01 1.00000E-45
9.96273E-01 1.00000E-45
9.96786E-01 1.00000E-45
9.97261E-01 1.00000E-45
9.97698E-01 1.00000E-45
9.98097E-01 1.00000E-45
9.98459E-01 1.00000E-45
9.98782E-01 1.00000E-45
9.99067E-01 1.00000E-45
9.99315E-01 1.00000E-45
9.99524E-01 1.00000E-45
9.99695E-01 1.00000E-45
9.99829E-01 1.00000E-45
9.99924E-01 1.00000E-45
9.99981E-01 1.00000E-45
1.00000E+00 1.00000E-45
