 #
 # Subroutine ELSEPA. Elastic scattering of electrons and positrons
 #                    by neutral atoms and positive ions
 #
 # Projectile: electron
 # Kinetic energy = 9.00000E+08 eV = 3.30744E+07 a.u.
 #
 # WARNING: High-energy factorization with free-atom DF screening.
 #          Absorption, polarization and exchange corrections are
 #          switched off.
 #          Phase shifts are calculated for the bare nucleus.
 #          Scattering amplitudes are not evaluated.
 #
 # Element:  B,  Z =   5,  atomic weight = 1.08110E+01 g/mol
 #
 # Nuclear model: Fermi distribution
 #                Average radius = 2.36595E-13 cm
 #                Skin thickness = 5.46000E-14 cm
 #
 # Number of electrons =  5
 #
 # Total elastic cross section = 2.12451E-19 cm**2 = 7.58678E-03 a0**2
 # 1st transport cross section = 7.13535E-29 cm**2 = 2.54808E-12 a0**2
 # 2nd transport cross section = 2.14004E-28 cm**2 = 7.64221E-12 a0**2
 #
 #
 # Differential cross section:                       MU=(1-COS(THETA))/2
 #
 #  THETA        MU          DCS          DCS        Sherman      error
 #  (deg)                 (cm**2/sr)   (a0**2/sr)    function
 #----------------------------------------------------------------------
0.00000E+00 2.42519E-09
7.61557E-13 2.01915E-09
1.18994E-12 1.83140E-09
1.71346E-12 1.63339E-09
2.33225E-12 1.43088E-09
3.04617E-12 1.24549E-09
3.85530E-12 1.06846E-09
4.75964E-12 9.11392E-10
5.75917E-12 7.74696E-10
6.85391E-12 6.52677E-10
8.04379E-12 5.50245E-10
9.32893E-12 4.63091E-10
1.07092E-11 3.89167E-10
1.21847E-11 3.27921E-10
1.37554E-11 2.76364E-10
1.54213E-11 2.33522E-10
1.71823E-11 1.98028E-10
1.90386E-11 1.68267E-10
2.09900E-11 1.43582E-10
2.30367E-11 1.22986E-10
2.51785E-11 1.05733E-10
2.74156E-11 9.12904E-11
2.97478E-11 7.91388E-11
3.21752E-11 6.88939E-11
3.46979E-11 6.02183E-11
3.73157E-11 5.28544E-11
4.00286E-11 4.65765E-11
4.28368E-11 4.11981E-11
4.57402E-11 3.65690E-11
4.87388E-11 3.25828E-11
5.18325E-11 2.91448E-11
5.50215E-11 2.61666E-11
5.83057E-11 2.35674E-11
6.16850E-11 2.12958E-11
6.51595E-11 1.93008E-11
6.87293E-11 1.75405E-11
7.23943E-11 1.59850E-11
7.61544E-11 1.46037E-11
1.18991E-10 6.66092E-12
1.71347E-10 3.55307E-12
2.33223E-10 2.09058E-12
3.04617E-10 1.31388E-12
3.85531E-10 8.67520E-13
4.75965E-10 5.94719E-13
5.75917E-10 4.20216E-13
6.85389E-10 3.04823E-13
8.04380E-10 2.25907E-13
9.32891E-10 1.70747E-13
1.07092E-09 1.31257E-13
1.21847E-09 1.02446E-13
1.37554E-09 8.10572E-14
1.54213E-09 6.49197E-14
1.71823E-09 5.25807E-14
1.90386E-09 4.30156E-14
2.09900E-09 3.55185E-14
2.30367E-09 2.95767E-14
2.51785E-09 2.48204E-14
2.74156E-09 2.09794E-14
2.97478E-09 1.78498E-14
3.21752E-09 1.52808E-14
3.46978E-09 1.31562E-14
3.73156E-09 1.13873E-14
4.00286E-09 9.90514E-15
4.28368E-09 8.65588E-15
4.57402E-09 7.59709E-15
4.87388E-09 6.69499E-15
5.18326E-09 5.92269E-15
5.50215E-09 5.25841E-15
5.83057E-09 4.68455E-15
6.16850E-09 4.18680E-15
6.51596E-09 3.75333E-15
6.87293E-09 3.37447E-15
7.23942E-09 3.04219E-15
7.61544E-09 2.74977E-15
1.18991E-08 1.12769E-15
1.71347E-08 5.44052E-16
2.33223E-08 2.93705E-16
3.04617E-08 1.72180E-16
3.85531E-08 1.07498E-16
4.75965E-08 7.05324E-17
5.75917E-08 4.81762E-17
6.85389E-08 3.40165E-17
8.04380E-08 2.46974E-17
9.32891E-08 1.83620E-17
1.07092E-07 1.39339E-17
1.21847E-07 1.07637E-17
1.37554E-07 8.44602E-18
1.54213E-07 6.71988E-18
1.71823E-07 5.41303E-18
1.90386E-07 4.40898E-18
2.09900E-07 3.62730E-18
2.30367E-07 3.01143E-18
2.51785E-07 2.52090E-18
2.74156E-07 2.12630E-18
2.97478E-07 1.80597E-18
3.21752E-07 1.54376E-18
3.46978E-07 1.32745E-18
3.73156E-07 1.14774E-18
4.00286E-07 9.97439E-19
4.28368E-07 8.70954E-19
4.57402E-07 7.63897E-19
4.87388E-07 6.72796E-19
5.18325E-07 5.94880E-19
5.50215E-07 5.27923E-19
5.83057E-07 4.70128E-19
6.16850E-07 4.20029E-19
6.51596E-07 3.76430E-19
6.87293E-07 3.38343E-19
7.23942E-07 3.04954E-19
7.61543E-07 2.75585E-19
1.18991E-06 1.12883E-19
1.71347E-06 5.44395E-20
2.33223E-06 2.93859E-20
3.04617E-06 1.72259E-20
3.85531E-06 1.07543E-20
4.75964E-06 7.05610E-21
5.75916E-06 4.81954E-21
6.85388E-06 3.40300E-21
8.04378E-06 2.47073E-21
9.32888E-06 1.83695E-21
1.07092E-05 1.39398E-21
1.21846E-05 1.07684E-21
1.37553E-05 8.44983E-22
1.54212E-05 6.72303E-22
1.71822E-05 5.41567E-22
1.90385E-05 4.41728E-22
2.09899E-05 3.63349E-22
2.30365E-05 3.01481E-22
2.51783E-05 2.52199E-22
2.74153E-05 2.12614E-22
2.97475E-05 1.80553E-22
3.21749E-05 1.54366E-22
3.46974E-05 1.32790E-22
3.73152E-05 1.14864E-22
4.00281E-05 9.98537E-23
4.28362E-05 8.72000E-23
4.57395E-05 7.64729E-23
4.87380E-05 6.73365E-23
5.18317E-05 5.95231E-23
5.50205E-05 5.28151E-23
5.83045E-05 4.70326E-23
6.16838E-05 4.20263E-23
6.51582E-05 3.76719E-23
6.87277E-05 3.38673E-23
7.23925E-05 3.05292E-23
7.61524E-05 2.71588E-23
9.21439E-05 1.84818E-23
1.09658E-04 1.30070E-23
1.28695E-04 9.40563E-24
1.49255E-04 6.96350E-24
1.71338E-04 5.26090E-24
1.94942E-04 4.04374E-24
2.20070E-04 3.15713E-24
2.46720E-04 2.49791E-24
2.74892E-04 2.00060E-24
3.04586E-04 1.61958E-24
3.35803E-04 1.32383E-24
3.68542E-04 1.09173E-24
4.02802E-04 9.07398E-25
4.38585E-04 7.59762E-25
4.75889E-04 6.40331E-25
5.14715E-04 5.42980E-25
5.55063E-04 4.63029E-25
5.96931E-04 3.96873E-25
6.40321E-04 3.41827E-25
6.85233E-04 2.95706E-25
7.31665E-04 2.56878E-25
7.79618E-04 2.24004E-25
8.29092E-04 1.96037E-25
8.80086E-04 1.72145E-25
9.32601E-04 1.51633E-25
9.86636E-04 1.33966E-25
1.04219E-03 1.18681E-25
1.09927E-03 1.05416E-25
1.15786E-03 9.38643E-26
1.21797E-03 8.37697E-26
1.27961E-03 7.49265E-26
1.34276E-03 6.71532E-26
1.40743E-03 6.03049E-26
1.47362E-03 5.42548E-26
1.54133E-03 4.88966E-26
1.61056E-03 4.41415E-26
1.68131E-03 3.99106E-26
1.75357E-03 3.61399E-26
1.82735E-03 3.27714E-26
1.90265E-03 2.97571E-26
1.97947E-03 2.70548E-26
2.05780E-03 2.46276E-26
2.13765E-03 2.24446E-26
2.21902E-03 2.04773E-26
2.30190E-03 1.87024E-26
2.38630E-03 1.70984E-26
2.47222E-03 1.56468E-26
2.55965E-03 1.43317E-26
2.64859E-03 1.31384E-26
2.73905E-03 1.20546E-26
2.83103E-03 1.10688E-26
2.92452E-03 1.01713E-26
3.01952E-03 9.35341E-27
3.11604E-03 8.60709E-27
3.21407E-03 7.92560E-27
3.31362E-03 7.30256E-27
3.41468E-03 6.73255E-27
3.51725E-03 6.21056E-27
3.62133E-03 5.73212E-27
3.72692E-03 5.29333E-27
3.83403E-03 4.89048E-27
3.94265E-03 4.52045E-27
4.05278E-03 4.18027E-27
4.16442E-03 3.86733E-27
4.27757E-03 3.57929E-27
4.39223E-03 3.31395E-27
4.50840E-03 3.06943E-27
4.62608E-03 2.84392E-27
4.74527E-03 2.63586E-27
4.86597E-03 2.44378E-27
4.98817E-03 2.26636E-27
5.11188E-03 2.10242E-27
5.23711E-03 1.95084E-27
5.36383E-03 1.81065E-27
5.49207E-03 1.68093E-27
5.62181E-03 1.56084E-27
5.75306E-03 1.44964E-27
5.88581E-03 1.34661E-27
6.02007E-03 1.25114E-27
6.15583E-03 1.16262E-27
6.29310E-03 1.08054E-27
6.43187E-03 1.00439E-27
6.57214E-03 9.33736E-28
6.71392E-03 8.68159E-28
6.85720E-03 8.07269E-28
7.00198E-03 7.50729E-28
7.14827E-03 6.98207E-28
7.29605E-03 6.49410E-28
7.44534E-03 6.04066E-28
7.59612E-03 5.61917E-28
7.97965E-03 4.69057E-28
8.37255E-03 3.91601E-28
8.77480E-03 3.26936E-28
9.18641E-03 2.72913E-28
9.60736E-03 2.27756E-28
1.00376E-02 1.89994E-28
1.04773E-02 1.58409E-28
1.09262E-02 1.31987E-28
1.13844E-02 1.09886E-28
1.18520E-02 9.14008E-29
1.23288E-02 7.59454E-29
1.28150E-02 6.30285E-29
1.33104E-02 5.22391E-29
1.38150E-02 4.32331E-29
1.43290E-02 3.57217E-29
1.48521E-02 2.94630E-29
1.53845E-02 2.42536E-29
1.59262E-02 1.99229E-29
1.64770E-02 1.63278E-29
1.70371E-02 1.33478E-29
1.76063E-02 1.08818E-29
1.81848E-02 8.84501E-30
1.87724E-02 7.16615E-30
1.93692E-02 5.78542E-30
1.99751E-02 4.65268E-30
2.05901E-02 3.72589E-30
2.12143E-02 2.96986E-30
2.18476E-02 2.35512E-30
2.24900E-02 1.85707E-30
2.31415E-02 1.45514E-30
2.38021E-02 1.13222E-30
2.44717E-02 8.74032E-31
2.51504E-02 6.68734E-31
2.58382E-02 5.06494E-31
2.65349E-02 3.79179E-31
2.72407E-02 2.80071E-31
2.79555E-02 2.03637E-31
2.86793E-02 1.45332E-31
2.94120E-02 1.01435E-31
3.01537E-02 6.89102E-32
3.09043E-02 4.52897E-32
3.16639E-02 2.85765E-32
3.24324E-02 1.71620E-32
3.32098E-02 9.75825E-33
3.39961E-02 5.33994E-33
3.47912E-02 3.09709E-33
3.55952E-02 2.39512E-33
3.64081E-02 2.74187E-33
3.72297E-02 3.76026E-33
3.80602E-02 5.16560E-33
3.88995E-02 6.74702E-33
3.97476E-02 8.35215E-33
4.06044E-02 9.87457E-33
4.14700E-02 1.12436E-32
4.23443E-02 1.24160E-32
4.32273E-02 1.33695E-32
4.41190E-02 1.40969E-32
4.50194E-02 1.46026E-32
4.59284E-02 1.48985E-32
4.68461E-02 1.50017E-32
4.87074E-02 1.47125E-32
5.06030E-02 1.39092E-32
5.25328E-02 1.27605E-32
5.44967E-02 1.14134E-32
5.64946E-02 9.98614E-33
5.85262E-02 8.56786E-33
6.05914E-02 7.22116E-33
6.26901E-02 5.98617E-33
6.48222E-02 4.88509E-33
6.69873E-02 3.92650E-33
6.91854E-02 3.10920E-33
7.14163E-02 2.42538E-33
7.36799E-02 1.86321E-33
7.59760E-02 1.40870E-33
7.83043E-02 1.04723E-33
8.06647E-02 7.64414E-34
8.30571E-02 5.46843E-34
8.54812E-02 3.82408E-34
8.79369E-02 2.60490E-34
9.04240E-02 1.71998E-34
9.29422E-02 1.09317E-34
9.54915E-02 6.61893E-35
9.80716E-02 3.75709E-35
1.00682E-01 1.94683E-35
1.03323E-01 8.78222E-36
1.05995E-01 3.15139E-36
1.08696E-01 8.17843E-37
1.11427E-01 5.03461E-37
1.14188E-01 1.30586E-36
1.16978E-01 2.61066E-36
1.19797E-01 4.01988E-36
1.22645E-01 5.29291E-36
1.25522E-01 6.30229E-36
1.28428E-01 6.99669E-36
1.31361E-01 7.37504E-36
1.34323E-01 7.46757E-36
1.37313E-01 7.31893E-36
1.40330E-01 6.98157E-36
1.43375E-01 6.50689E-36
1.46447E-01 5.94274E-36
1.49545E-01 5.32964E-36
1.52671E-01 4.70131E-36
1.55823E-01 4.08341E-36
1.59001E-01 3.49597E-36
1.62205E-01 2.95155E-36
1.65435E-01 2.45829E-36
1.68690E-01 2.02018E-36
1.71970E-01 1.63795E-36
1.75276E-01 1.30996E-36
1.78606E-01 1.03284E-36
1.81961E-01 8.02384E-37
1.85340E-01 6.13504E-37
1.88743E-01 4.61193E-37
1.92169E-01 3.40223E-37
1.95619E-01 2.45764E-37
1.99092E-01 1.73304E-37
2.02589E-01 1.18762E-37
2.06107E-01 7.86650E-38
2.09649E-01 4.99044E-38
2.13212E-01 2.99333E-38
2.16797E-01 1.66180E-38
2.20404E-01 8.22657E-39
2.24032E-01 3.39390E-39
2.27680E-01 1.02578E-39
2.31350E-01 2.96004E-40
2.35040E-01 5.81398E-40
2.38751E-01 1.41936E-39
2.42481E-01 2.49126E-39
2.46231E-01 3.57732E-39
2.50000E-01 4.53565E-39
2.53788E-01 5.29779E-39
2.57595E-01 5.82682E-39
2.61421E-01 6.12736E-39
2.65264E-01 6.21899E-39
2.69126E-01 6.13060E-39
2.73005E-01 5.89401E-39
2.76901E-01 5.55203E-39
2.80814E-01 5.13046E-39
2.84744E-01 4.65728E-39
2.88691E-01 4.16398E-39
2.92653E-01 3.66054E-39
2.96632E-01 3.16836E-39
3.00625E-01 2.70067E-39
3.04634E-01 2.26983E-39
3.08658E-01 1.87512E-39
3.12697E-01 1.52176E-39
3.16749E-01 1.21762E-39
3.20816E-01 9.55869E-40
3.24896E-01 7.34239E-40
3.28990E-01 5.53883E-40
3.33097E-01 4.06509E-40
3.37216E-01 2.91625E-40
3.41348E-01 2.01960E-40
3.45492E-01 1.00000E-45
3.49647E-01 1.00000E-45
3.53814E-01 1.00000E-45
3.57992E-01 1.00000E-45
3.62181E-01 1.00000E-45
3.66381E-01 1.00000E-45
3.70590E-01 1.00000E-45
3.74810E-01 1.00000E-45
3.79039E-01 1.00000E-45
3.83277E-01 1.00000E-45
3.87524E-01 1.00000E-45
3.91780E-01 1.00000E-45
3.96044E-01 1.00000E-45
4.00316E-01 1.00000E-45
4.04596E-01 1.00000E-45
4.08882E-01 1.00000E-45
4.13176E-01 1.00000E-45
4.17476E-01 1.00000E-45
4.21783E-01 1.00000E-45
4.26095E-01 1.00000E-45
4.30413E-01 1.00000E-45
4.34737E-01 1.00000E-45
4.39065E-01 1.00000E-45
4.43398E-01 1.00000E-45
4.47736E-01 1.00000E-45
4.52077E-01 1.00000E-45
4.56422E-01 1.00000E-45
4.60770E-01 1.00000E-45
4.65122E-01 1.00000E-45
4.69476E-01 1.00000E-45
4.73832E-01 1.00000E-45
4.78190E-01 1.00000E-45
4.82550E-01 1.00000E-45
4.86912E-01 1.00000E-45
4.91274E-01 1.00000E-45
4.95637E-01 1.00000E-45
5.00000E-01 1.00000E-45
5.04363E-01 1.00000E-45
5.08726E-01 1.00000E-45
5.13088E-01 1.00000E-45
5.17450E-01 1.00000E-45
5.21810E-01 1.00000E-45
5.26168E-01 1.00000E-45
5.30524E-01 1.00000E-45
5.34878E-01 1.00000E-45
5.39230E-01 1.00000E-45
5.43578E-01 1.00000E-45
5.47923E-01 1.00000E-45
5.52264E-01 1.00000E-45
5.56602E-01 1.00000E-45
5.60935E-01 1.00000E-45
5.65263E-01 1.00000E-45
5.69587E-01 1.00000E-45
5.73905E-01 1.00000E-45
5.78217E-01 1.00000E-45
5.82524E-01 1.00000E-45
5.86824E-01 1.00000E-45
5.91118E-01 1.00000E-45
5.95404E-01 1.00000E-45
5.99684E-01 1.00000E-45
6.03956E-01 1.00000E-45
6.08220E-01 1.00000E-45
6.12476E-01 1.00000E-45
6.16723E-01 1.00000E-45
6.20961E-01 1.00000E-45
6.25190E-01 1.00000E-45
6.29410E-01 1.00000E-45
6.33619E-01 1.00000E-45
6.37819E-01 1.00000E-45
6.42008E-01 1.00000E-45
6.46186E-01 1.00000E-45
6.50353E-01 1.00000E-45
6.54508E-01 1.00000E-45
6.58652E-01 1.00000E-45
6.62784E-01 1.00000E-45
6.66903E-01 1.00000E-45
6.71010E-01 1.00000E-45
6.75104E-01 1.00000E-45
6.79184E-01 1.00000E-45
6.83251E-01 1.00000E-45
6.87303E-01 1.00000E-45
6.91342E-01 1.00000E-45
6.95366E-01 1.00000E-45
6.99375E-01 1.00000E-45
7.03368E-01 1.00000E-45
7.07347E-01 1.00000E-45
7.11309E-01 1.00000E-45
7.15256E-01 1.00000E-45
7.19186E-01 1.00000E-45
7.23099E-01 1.00000E-45
7.26995E-01 1.00000E-45
7.30874E-01 1.00000E-45
7.34736E-01 1.00000E-45
7.38579E-01 1.00000E-45
7.42405E-01 1.00000E-45
7.46212E-01 1.00000E-45
7.50000E-01 1.00000E-45
7.53769E-01 1.00000E-45
7.57519E-01 1.00000E-45
7.61249E-01 1.00000E-45
7.64960E-01 1.00000E-45
7.68650E-01 1.00000E-45
7.72320E-01 1.00000E-45
7.75968E-01 1.00000E-45
7.79596E-01 1.00000E-45
7.83203E-01 1.00000E-45
7.86788E-01 1.00000E-45
7.90351E-01 1.00000E-45
7.93893E-01 1.00000E-45
7.97411E-01 1.00000E-45
8.00908E-01 1.00000E-45
8.04381E-01 1.00000E-45
8.07831E-01 1.00000E-45
8.11257E-01 1.00000E-45
8.14660E-01 1.00000E-45
8.18039E-01 1.00000E-45
8.21394E-01 1.00000E-45
8.24724E-01 1.00000E-45
8.28030E-01 1.00000E-45
8.31310E-01 1.00000E-45
8.34565E-01 1.00000E-45
8.37795E-01 1.00000E-45
8.40999E-01 1.00000E-45
8.44177E-01 1.00000E-45
8.47329E-01 1.00000E-45
8.50455E-01 1.00000E-45
8.53553E-01 1.00000E-45
8.56625E-01 1.00000E-45
8.59670E-01 1.00000E-45
8.62687E-01 1.00000E-45
8.65677E-01 1.00000E-45
8.68639E-01 1.00000E-45
8.71572E-01 1.00000E-45
8.74478E-01 1.00000E-45
8.77355E-01 1.00000E-45
8.80203E-01 1.00000E-45
8.83022E-01 1.00000E-45
8.85812E-01 1.00000E-45
8.88573E-01 1.00000E-45
8.91304E-01 1.00000E-45
8.94005E-01 1.00000E-45
8.96677E-01 1.00000E-45
8.99318E-01 1.00000E-45
9.01928E-01 1.00000E-45
9.04508E-01 1.00000E-45
9.07058E-01 1.00000E-45
9.09576E-01 1.00000E-45
9.12063E-01 1.00000E-45
9.14519E-01 1.00000E-45
9.16943E-01 1.00000E-45
9.19335E-01 1.00000E-45
9.21696E-01 1.00000E-45
9.24024E-01 1.00000E-45
9.26320E-01 1.00000E-45
9.28584E-01 1.00000E-45
9.30815E-01 1.00000E-45
9.33013E-01 1.00000E-45
9.35178E-01 1.00000E-45
9.37310E-01 1.00000E-45
9.39409E-01 1.00000E-45
9.41474E-01 1.00000E-45
9.43505E-01 1.00000E-45
9.45503E-01 1.00000E-45
9.47467E-01 1.00000E-45
9.49397E-01 1.00000E-45
9.51293E-01 1.00000E-45
9.53154E-01 1.00000E-45
9.54981E-01 1.00000E-45
9.56773E-01 1.00000E-45
9.58530E-01 1.00000E-45
9.60252E-01 1.00000E-45
9.61940E-01 1.00000E-45
9.63592E-01 1.00000E-45
9.65209E-01 1.00000E-45
9.66790E-01 1.00000E-45
9.68336E-01 1.00000E-45
9.69846E-01 1.00000E-45
9.71321E-01 1.00000E-45
9.72759E-01 1.00000E-45
9.74162E-01 1.00000E-45
9.75528E-01 1.00000E-45
9.76858E-01 1.00000E-45
9.78152E-01 1.00000E-45
9.79410E-01 1.00000E-45
9.80631E-01 1.00000E-45
9.81815E-01 1.00000E-45
9.82963E-01 1.00000E-45
9.84074E-01 1.00000E-45
9.85148E-01 1.00000E-45
9.86185E-01 1.00000E-45
9.87185E-01 1.00000E-45
9.88148E-01 1.00000E-45
9.89074E-01 1.00000E-45
9.89962E-01 1.00000E-45
9.90814E-01 1.00000E-45
9.91627E-01 1.00000E-45
9.92404E-01 1.00000E-45
9.93143E-01 1.00000E-45
9.93844E-01 1.00000E-45
9.94508E-01 1.00000E-45
9.95134E-01 1.00000E-45
9.95722E-01 1.00000E-45
9.96273E-01 1.00000E-45
9.96786E-01 1.00000E-45
9.97261E-01 1.00000E-45
9.97698E-01 1.00000E-45
9.98097E-01 1.00000E-45
9.98459E-01 1.00000E-45
9.98782E-01 1.00000E-45
9.99067E-01 1.00000E-45
9.99315E-01 1.00000E-45
9.99524E-01 1.00000E-45
9.99695E-01 1.00000E-45
9.99829E-01 1.00000E-45
9.99924E-01 1.00000E-45
9.99981E-01 1.00000E-45
1.00000E+00 1.00000E-45
