 #
 # Subroutine ELSEPA. Elastic scattering of electrons and positrons
 #                    by neutral atoms and positive ions
 #
 # Projectile: electron
 # Kinetic energy = 7.00000E+06 eV = 2.57245E+05 a.u.
 #
 # WARNING: High-energy factorization with free-atom DF screening.
 #          Absorption, polarization and exchange corrections are
 #          switched off.
 #          Phase shifts are calculated for the bare nucleus.
 #          Scattering amplitudes are not evaluated.
 #
 # Element:  B,  Z =   5,  atomic weight = 1.08110E+01 g/mol
 #
 # Nuclear model: Fermi distribution
 #                Average radius = 2.36595E-13 cm
 #                Skin thickness = 5.46000E-14 cm
 #
 # Number of electrons =  5
 #
 # Total elastic cross section = 2.15308E-19 cm**2 = 7.68879E-03 a0**2
 # 1st transport cross section = 7.69590E-25 cm**2 = 2.74826E-08 a0**2
 # 2nd transport cross section = 2.21789E-24 cm**2 = 7.92024E-08 a0**2
 #
 #
 # Differential cross section:                       MU=(1-COS(THETA))/2
 #
 #  THETA        MU          DCS          DCS        Sherman      error
 #  (deg)                 (cm**2/sr)   (a0**2/sr)    function
 #----------------------------------------------------------------------
0.00000E+00 1.68719E-13
7.61557E-13 1.68717E-13
1.18994E-12 1.68715E-13
1.71346E-12 1.68714E-13
2.33225E-12 1.68712E-13
3.04617E-12 1.68710E-13
3.85530E-12 1.68708E-13
4.75964E-12 1.68705E-13
5.75917E-12 1.68702E-13
6.85391E-12 1.68699E-13
8.04379E-12 1.68695E-13
9.32893E-12 1.68691E-13
1.07092E-11 1.68687E-13
1.21847E-11 1.68683E-13
1.37554E-11 1.68679E-13
1.54213E-11 1.68674E-13
1.71823E-11 1.68669E-13
1.90386E-11 1.68663E-13
2.09900E-11 1.68657E-13
2.30367E-11 1.68651E-13
2.51785E-11 1.68645E-13
2.74156E-11 1.68639E-13
2.97478E-11 1.68632E-13
3.21752E-11 1.68625E-13
3.46979E-11 1.68617E-13
3.73157E-11 1.68610E-13
4.00286E-11 1.68602E-13
4.28368E-11 1.68594E-13
4.57402E-11 1.68585E-13
4.87388E-11 1.68576E-13
5.18325E-11 1.68567E-13
5.50215E-11 1.68558E-13
5.83057E-11 1.68549E-13
6.16850E-11 1.68539E-13
6.51595E-11 1.68529E-13
6.87293E-11 1.68518E-13
7.23943E-11 1.68508E-13
7.61544E-11 1.68497E-13
1.18991E-10 1.68372E-13
1.71347E-10 1.68220E-13
2.33223E-10 1.68040E-13
3.04617E-10 1.67834E-13
3.85531E-10 1.67600E-13
4.75965E-10 1.67339E-13
5.75917E-10 1.67051E-13
6.85389E-10 1.66737E-13
8.04380E-10 1.66396E-13
9.32891E-10 1.66029E-13
1.07092E-09 1.65637E-13
1.21847E-09 1.65218E-13
1.37554E-09 1.64775E-13
1.54213E-09 1.64306E-13
1.71823E-09 1.63813E-13
1.90386E-09 1.63294E-13
2.09900E-09 1.62753E-13
2.30367E-09 1.62186E-13
2.51785E-09 1.61598E-13
2.74156E-09 1.60985E-13
2.97478E-09 1.60350E-13
3.21752E-09 1.59693E-13
3.46978E-09 1.59014E-13
3.73156E-09 1.58314E-13
4.00286E-09 1.57593E-13
4.28368E-09 1.56851E-13
4.57402E-09 1.56089E-13
4.87388E-09 1.55308E-13
5.18326E-09 1.54507E-13
5.50215E-09 1.53689E-13
5.83057E-09 1.52851E-13
6.16850E-09 1.51997E-13
6.51596E-09 1.51124E-13
6.87293E-09 1.50237E-13
7.23942E-09 1.49330E-13
7.61544E-09 1.48411E-13
1.18991E-08 1.38457E-13
1.71347E-08 1.27508E-13
2.33223E-08 1.16062E-13
3.04617E-08 1.04317E-13
3.85531E-08 9.30927E-14
4.75965E-08 8.24636E-14
5.75917E-08 7.26216E-14
6.85389E-08 6.35555E-14
8.04380E-08 5.54922E-14
9.32891E-08 4.81960E-14
1.07092E-07 4.18809E-14
1.21847E-07 3.62360E-14
1.37554E-07 3.14319E-14
1.54213E-07 2.71753E-14
1.71823E-07 2.35808E-14
1.90386E-07 2.04237E-14
2.09900E-07 1.77545E-14
2.30367E-07 1.54357E-14
2.51785E-07 1.34637E-14
2.74156E-07 1.17604E-14
2.97478E-07 1.03038E-14
3.21752E-07 9.04770E-15
3.46978E-07 7.96811E-15
3.73156E-07 7.03599E-15
4.00286E-07 6.23100E-15
4.28368E-07 5.53364E-15
4.57402E-07 4.92870E-15
4.87388E-07 4.40215E-15
5.18325E-07 3.94340E-15
5.50215E-07 3.54188E-15
5.83057E-07 3.19056E-15
6.16850E-07 2.88121E-15
6.51596E-07 2.60824E-15
6.87293E-07 2.36653E-15
7.23942E-07 2.15431E-15
7.61543E-07 1.96543E-15
1.18991E-06 8.83126E-16
1.71347E-06 4.65752E-16
2.33223E-06 2.73715E-16
3.04617E-06 1.72821E-16
3.85531E-06 1.15091E-16
4.75964E-06 7.96554E-17
5.75916E-06 5.68272E-17
6.85388E-06 4.15983E-17
8.04378E-06 3.10947E-17
9.32888E-06 2.36677E-17
1.07092E-05 1.83112E-17
1.21846E-05 1.43719E-17
1.37553E-05 1.14221E-17
1.54212E-05 9.18535E-18
1.71822E-05 7.46527E-18
1.90385E-05 6.13254E-18
2.09899E-05 5.07537E-18
2.30365E-05 4.23312E-18
2.51783E-05 3.55647E-18
2.74153E-05 3.00925E-18
2.97475E-05 2.56352E-18
3.21749E-05 2.19741E-18
3.46974E-05 1.89450E-18
3.73152E-05 1.64190E-18
4.00281E-05 1.42970E-18
4.28362E-05 1.25032E-18
4.57395E-05 1.09791E-18
4.87380E-05 9.67819E-19
5.18317E-05 8.56350E-19
5.50205E-05 7.60497E-19
5.83045E-05 6.77735E-19
6.16838E-05 6.05985E-19
6.51582E-05 5.43506E-19
6.87277E-05 4.88863E-19
7.23925E-05 4.40874E-19
7.61524E-05 3.98584E-19
9.21439E-05 2.72492E-19
1.09658E-04 1.92627E-19
1.28695E-04 1.39926E-19
1.49255E-04 1.04080E-19
1.71338E-04 7.90159E-20
1.94942E-04 6.10477E-20
2.20070E-04 4.79193E-20
2.46720E-04 3.81276E-20
2.74892E-04 3.07182E-20
3.04586E-04 2.50235E-20
3.35803E-04 2.05887E-20
3.68542E-04 1.70959E-20
4.02802E-04 1.43118E-20
4.38585E-04 1.20734E-20
4.75889E-04 1.02553E-20
5.14715E-04 8.76719E-21
5.55063E-04 7.53966E-21
5.96931E-04 6.51934E-21
6.40321E-04 5.66630E-21
6.85233E-04 4.94807E-21
7.31665E-04 4.34030E-21
7.79618E-04 3.82302E-21
8.29092E-04 3.38051E-21
8.80086E-04 3.00033E-21
9.32601E-04 2.67203E-21
9.86636E-04 2.38752E-21
1.04219E-03 2.13985E-21
1.09927E-03 1.92349E-21
1.15786E-03 1.73382E-21
1.21797E-03 1.56694E-21
1.27961E-03 1.41970E-21
1.34276E-03 1.28933E-21
1.40743E-03 1.17361E-21
1.47362E-03 1.07058E-21
1.54133E-03 9.78610E-22
1.61056E-03 8.96323E-22
1.68131E-03 8.22492E-22
1.75357E-03 7.56123E-22
1.82735E-03 6.96310E-22
1.90265E-03 6.42299E-22
1.97947E-03 5.93429E-22
2.05780E-03 5.49115E-22
2.13765E-03 5.08868E-22
2.21902E-03 4.72238E-22
2.30190E-03 4.38849E-22
2.38630E-03 4.08359E-22
2.47222E-03 3.80471E-22
2.55965E-03 3.54927E-22
2.64859E-03 3.31488E-22
2.73905E-03 3.09956E-22
2.83103E-03 2.90143E-22
2.92452E-03 2.71889E-22
3.01952E-03 2.55049E-22
3.11604E-03 2.39491E-22
3.21407E-03 2.25104E-22
3.31362E-03 2.11780E-22
3.41468E-03 1.99428E-22
3.51725E-03 1.87964E-22
3.62133E-03 1.77312E-22
3.72692E-03 1.67405E-22
3.83403E-03 1.58179E-22
3.94265E-03 1.49581E-22
4.05278E-03 1.41559E-22
4.16442E-03 1.34068E-22
4.27757E-03 1.27066E-22
4.39223E-03 1.20515E-22
4.50840E-03 1.14382E-22
4.62608E-03 1.08633E-22
4.74527E-03 1.03241E-22
4.86597E-03 9.81800E-23
4.98817E-03 9.34250E-23
5.11188E-03 8.89547E-23
5.23711E-03 8.47483E-23
5.36383E-03 8.07880E-23
5.49207E-03 7.70562E-23
5.62181E-03 7.35374E-23
5.75306E-03 7.02174E-23
5.88581E-03 6.70824E-23
6.02007E-03 6.41208E-23
6.15583E-03 6.13206E-23
6.29310E-03 5.86717E-23
6.43187E-03 5.61643E-23
6.57214E-03 5.37894E-23
6.71392E-03 5.15388E-23
6.85720E-03 4.94046E-23
7.00198E-03 4.73798E-23
7.14827E-03 4.54577E-23
7.29605E-03 4.36320E-23
7.44534E-03 4.18972E-23
7.59612E-03 4.02476E-23
7.97965E-03 3.64654E-23
8.37255E-03 3.31172E-23
8.77480E-03 3.01446E-23
9.18641E-03 2.74982E-23
9.60736E-03 2.51359E-23
1.00376E-02 2.30218E-23
1.04773E-02 2.11254E-23
1.09262E-02 1.94203E-23
1.13844E-02 1.78837E-23
1.18520E-02 1.64961E-23
1.23288E-02 1.52405E-23
1.28150E-02 1.41021E-23
1.33104E-02 1.30679E-23
1.38150E-02 1.21269E-23
1.43290E-02 1.12689E-23
1.48521E-02 1.04855E-23
1.53845E-02 9.76901E-24
1.59262E-02 9.11262E-24
1.64770E-02 8.51041E-24
1.70371E-02 7.95711E-24
1.76063E-02 7.44802E-24
1.81848E-02 6.97897E-24
1.87724E-02 6.54624E-24
1.93692E-02 6.14651E-24
1.99751E-02 5.77680E-24
2.05901E-02 5.43445E-24
2.12143E-02 5.11707E-24
2.18476E-02 4.82249E-24
2.24900E-02 4.54879E-24
2.31415E-02 4.29421E-24
2.38021E-02 4.05718E-24
2.44717E-02 3.83625E-24
2.51504E-02 3.63014E-24
2.58382E-02 3.43767E-24
2.65349E-02 3.25777E-24
2.72407E-02 3.08946E-24
2.79555E-02 2.93187E-24
2.86793E-02 2.78419E-24
2.94120E-02 2.64567E-24
3.01537E-02 2.51564E-24
3.09043E-02 2.39349E-24
3.16639E-02 2.27865E-24
3.24324E-02 2.17060E-24
3.32098E-02 2.06887E-24
3.39961E-02 1.97301E-24
3.47912E-02 1.88263E-24
3.55952E-02 1.79736E-24
3.64081E-02 1.71684E-24
3.72297E-02 1.64078E-24
3.80602E-02 1.56887E-24
3.88995E-02 1.50084E-24
3.97476E-02 1.43645E-24
4.06044E-02 1.37547E-24
4.14700E-02 1.31769E-24
4.23443E-02 1.26289E-24
4.32273E-02 1.21091E-24
4.41190E-02 1.16156E-24
4.50194E-02 1.11469E-24
4.59284E-02 1.07016E-24
4.68461E-02 1.02782E-24
4.87074E-02 9.49220E-25
5.06030E-02 8.77963E-25
5.25328E-02 8.13244E-25
5.44967E-02 7.54357E-25
5.64946E-02 7.00681E-25
5.85262E-02 6.51675E-25
6.05914E-02 6.06859E-25
6.26901E-02 5.65812E-25
6.48222E-02 5.28159E-25
6.69873E-02 4.93571E-25
6.91854E-02 4.61752E-25
7.14163E-02 4.32441E-25
7.36799E-02 4.05405E-25
7.59760E-02 3.80436E-25
7.83043E-02 3.57347E-25
8.06647E-02 3.35972E-25
8.30571E-02 3.16159E-25
8.54812E-02 2.97775E-25
8.79369E-02 2.80697E-25
9.04240E-02 2.64816E-25
9.29422E-02 2.50033E-25
9.54915E-02 2.36259E-25
9.80716E-02 2.23411E-25
1.00682E-01 2.11417E-25
1.03323E-01 2.00209E-25
1.05995E-01 1.89727E-25
1.08696E-01 1.79914E-25
1.11427E-01 1.70721E-25
1.14188E-01 1.62101E-25
1.16978E-01 1.54012E-25
1.19797E-01 1.46416E-25
1.22645E-01 1.39276E-25
1.25522E-01 1.32561E-25
1.28428E-01 1.26240E-25
1.31361E-01 1.20286E-25
1.34323E-01 1.14675E-25
1.37313E-01 1.09382E-25
1.40330E-01 1.04387E-25
1.43375E-01 9.96687E-26
1.46447E-01 9.52102E-26
1.49545E-01 9.09941E-26
1.52671E-01 8.70051E-26
1.55823E-01 8.32285E-26
1.59001E-01 7.96510E-26
1.62205E-01 7.62601E-26
1.65435E-01 7.30445E-26
1.68690E-01 6.99934E-26
1.71970E-01 6.70968E-26
1.75276E-01 6.43454E-26
1.78606E-01 6.17308E-26
1.81961E-01 5.92448E-26
1.85340E-01 5.68800E-26
1.88743E-01 5.46293E-26
1.92169E-01 5.24864E-26
1.95619E-01 5.04450E-26
1.99092E-01 4.84995E-26
2.02589E-01 4.66446E-26
2.06107E-01 4.48753E-26
2.09649E-01 4.31869E-26
2.13212E-01 4.15751E-26
2.16797E-01 4.00357E-26
2.20404E-01 3.85649E-26
2.24032E-01 3.71592E-26
2.27680E-01 3.58150E-26
2.31350E-01 3.45292E-26
2.35040E-01 3.32989E-26
2.38751E-01 3.21212E-26
2.42481E-01 3.09934E-26
2.46231E-01 2.99131E-26
2.50000E-01 2.88778E-26
2.53788E-01 2.78854E-26
2.57595E-01 2.69338E-26
2.61421E-01 2.60210E-26
2.65264E-01 2.51451E-26
2.69126E-01 2.43044E-26
2.73005E-01 2.34972E-26
2.76901E-01 2.27219E-26
2.80814E-01 2.19771E-26
2.84744E-01 2.12613E-26
2.88691E-01 2.05732E-26
2.92653E-01 1.99115E-26
2.96632E-01 1.92751E-26
3.00625E-01 1.86627E-26
3.04634E-01 1.80734E-26
3.08658E-01 1.75061E-26
3.12697E-01 1.69599E-26
3.16749E-01 1.64337E-26
3.20816E-01 1.59269E-26
3.24896E-01 1.54384E-26
3.28990E-01 1.49675E-26
3.33097E-01 1.45136E-26
3.37216E-01 1.40758E-26
3.41348E-01 1.36535E-26
3.45492E-01 1.32461E-26
3.49647E-01 1.28528E-26
3.53814E-01 1.24733E-26
3.57992E-01 1.21068E-26
3.62181E-01 1.17529E-26
3.66381E-01 1.14110E-26
3.70590E-01 1.10808E-26
3.74810E-01 1.07616E-26
3.79039E-01 1.04531E-26
3.83277E-01 1.01549E-26
3.87524E-01 9.86648E-27
3.91780E-01 9.58757E-27
3.96044E-01 9.31776E-27
4.00316E-01 9.05672E-27
4.04596E-01 8.80409E-27
4.08882E-01 8.55958E-27
4.13176E-01 8.32287E-27
4.17476E-01 8.09367E-27
4.21783E-01 7.87169E-27
4.26095E-01 7.65668E-27
4.30413E-01 7.44838E-27
4.34737E-01 7.24655E-27
4.39065E-01 7.05094E-27
4.43398E-01 6.86133E-27
4.47736E-01 6.67751E-27
4.52077E-01 6.49927E-27
4.56422E-01 6.32642E-27
4.60770E-01 6.15875E-27
4.65122E-01 5.99610E-27
4.69476E-01 5.83829E-27
4.73832E-01 5.68514E-27
4.78190E-01 5.53650E-27
4.82550E-01 5.39221E-27
4.86912E-01 5.25213E-27
4.91274E-01 5.11610E-27
4.95637E-01 4.98400E-27
5.00000E-01 4.85570E-27
5.04363E-01 4.73105E-27
5.08726E-01 4.60995E-27
5.13088E-01 4.49228E-27
5.17450E-01 4.37791E-27
5.21810E-01 4.26676E-27
5.26168E-01 4.15870E-27
5.30524E-01 4.05364E-27
5.34878E-01 3.95149E-27
5.39230E-01 3.85214E-27
5.43578E-01 3.75552E-27
5.47923E-01 3.66153E-27
5.52264E-01 3.57009E-27
5.56602E-01 3.48112E-27
5.60935E-01 3.39455E-27
5.65263E-01 3.31029E-27
5.69587E-01 3.22828E-27
5.73905E-01 3.14845E-27
5.78217E-01 3.07072E-27
5.82524E-01 2.99505E-27
5.86824E-01 2.92135E-27
5.91118E-01 2.84959E-27
5.95404E-01 2.77969E-27
5.99684E-01 2.71159E-27
6.03956E-01 2.64526E-27
6.08220E-01 2.58063E-27
6.12476E-01 2.51765E-27
6.16723E-01 2.45628E-27
6.20961E-01 2.39646E-27
6.25190E-01 2.33816E-27
6.29410E-01 2.28133E-27
6.33619E-01 2.22592E-27
6.37819E-01 2.17190E-27
6.42008E-01 2.11922E-27
6.46186E-01 2.06786E-27
6.50353E-01 2.01776E-27
6.54508E-01 1.96890E-27
6.58652E-01 1.92124E-27
6.62784E-01 1.87474E-27
6.66903E-01 1.82938E-27
6.71010E-01 1.78512E-27
6.75104E-01 1.74193E-27
6.79184E-01 1.69978E-27
6.83251E-01 1.65865E-27
6.87303E-01 1.61851E-27
6.91342E-01 1.57932E-27
6.95366E-01 1.54107E-27
6.99375E-01 1.50373E-27
7.03368E-01 1.46727E-27
7.07347E-01 1.43167E-27
7.11309E-01 1.39691E-27
7.15256E-01 1.36297E-27
7.19186E-01 1.32982E-27
7.23099E-01 1.29744E-27
7.26995E-01 1.26582E-27
7.30874E-01 1.23493E-27
7.34736E-01 1.20475E-27
7.38579E-01 1.17528E-27
7.42405E-01 1.14648E-27
7.46212E-01 1.11834E-27
7.50000E-01 1.09085E-27
7.53769E-01 1.06398E-27
7.57519E-01 1.03773E-27
7.61249E-01 1.01208E-27
7.64960E-01 9.87003E-28
7.68650E-01 9.62498E-28
7.72320E-01 9.38547E-28
7.75968E-01 9.15136E-28
7.79596E-01 8.92252E-28
7.83203E-01 8.69881E-28
7.86788E-01 8.48013E-28
7.90351E-01 8.26633E-28
7.93893E-01 8.05731E-28
7.97411E-01 7.85296E-28
8.00908E-01 7.65315E-28
8.04381E-01 7.45779E-28
8.07831E-01 7.26677E-28
8.11257E-01 7.07998E-28
8.14660E-01 6.89733E-28
8.18039E-01 6.71871E-28
8.21394E-01 6.54405E-28
8.24724E-01 6.37324E-28
8.28030E-01 6.20619E-28
8.31310E-01 6.04283E-28
8.34565E-01 5.88307E-28
8.37795E-01 5.72682E-28
8.40999E-01 5.57401E-28
8.44177E-01 5.42456E-28
8.47329E-01 5.27839E-28
8.50455E-01 5.13544E-28
8.53553E-01 4.99563E-28
8.56625E-01 4.85888E-28
8.59670E-01 4.72515E-28
8.62687E-01 4.59436E-28
8.65677E-01 4.46644E-28
8.68639E-01 4.34135E-28
8.71572E-01 4.21900E-28
8.74478E-01 4.09935E-28
8.77355E-01 3.98235E-28
8.80203E-01 3.86793E-28
8.83022E-01 3.75604E-28
8.85812E-01 3.64663E-28
8.88573E-01 3.53965E-28
8.91304E-01 3.43504E-28
8.94005E-01 3.33277E-28
8.96677E-01 3.23278E-28
8.99318E-01 3.13503E-28
9.01928E-01 3.03947E-28
9.04508E-01 2.94607E-28
9.07058E-01 2.85477E-28
9.09576E-01 2.76554E-28
9.12063E-01 2.67833E-28
9.14519E-01 2.59312E-28
9.16943E-01 2.50985E-28
9.19335E-01 2.42851E-28
9.21696E-01 2.34903E-28
9.24024E-01 2.27141E-28
9.26320E-01 2.19559E-28
9.28584E-01 2.12155E-28
9.30815E-01 2.04926E-28
9.33013E-01 1.97868E-28
9.35178E-01 1.90979E-28
9.37310E-01 1.84255E-28
9.39409E-01 1.77694E-28
9.41474E-01 1.71292E-28
9.43505E-01 1.65048E-28
9.45503E-01 1.58958E-28
9.47467E-01 1.53020E-28
9.49397E-01 1.47232E-28
9.51293E-01 1.41590E-28
9.53154E-01 1.36094E-28
9.54981E-01 1.30740E-28
9.56773E-01 1.25526E-28
9.58530E-01 1.20450E-28
9.60252E-01 1.15511E-28
9.61940E-01 1.10705E-28
9.63592E-01 1.06032E-28
9.65209E-01 1.01488E-28
9.66790E-01 9.70734E-29
9.68336E-01 9.27849E-29
9.69846E-01 8.86213E-29
9.71321E-01 8.45810E-29
9.72759E-01 8.06622E-29
9.74162E-01 7.68632E-29
9.75528E-01 7.31828E-29
9.76858E-01 6.96195E-29
9.78152E-01 6.61716E-29
9.79410E-01 6.28381E-29
9.80631E-01 5.96174E-29
9.81815E-01 5.65085E-29
9.82963E-01 5.35099E-29
9.84074E-01 5.06206E-29
9.85148E-01 4.78395E-29
9.86185E-01 4.51655E-29
9.87185E-01 4.25972E-29
9.88148E-01 4.01342E-29
9.89074E-01 3.77751E-29
9.89962E-01 3.55192E-29
9.90814E-01 3.33656E-29
9.91627E-01 3.13133E-29
9.92404E-01 2.93618E-29
9.93143E-01 2.75100E-29
9.93844E-01 2.57575E-29
9.94508E-01 2.41035E-29
9.95134E-01 2.25472E-29
9.95722E-01 2.10885E-29
9.96273E-01 1.97262E-29
9.96786E-01 1.84603E-29
9.97261E-01 1.72898E-29
9.97698E-01 1.62148E-29
9.98097E-01 1.52346E-29
9.98459E-01 1.43488E-29
9.98782E-01 1.35573E-29
9.99067E-01 1.28595E-29
9.99315E-01 1.22555E-29
9.99524E-01 1.17446E-29
9.99695E-01 1.13269E-29
9.99829E-01 1.10020E-29
9.99924E-01 1.07703E-29
9.99981E-01 1.06311E-29
1.00000E+00 1.05851E-29
