 #
 # Subroutine ELSEPA. Elastic scattering of electrons and positrons
 #                    by neutral atoms and positive ions
 #
 # Projectile: electron
 # Kinetic energy = 1.00000E+07 eV = 3.67493E+05 a.u.
 #
 # WARNING: High-energy factorization with free-atom DF screening.
 #          Absorption, polarization and exchange corrections are
 #          switched off.
 #          Phase shifts are calculated for the bare nucleus.
 #          Scattering amplitudes are not evaluated.
 #
 # Element:  B,  Z =   5,  atomic weight = 1.08110E+01 g/mol
 #
 # Nuclear model: Fermi distribution
 #                Average radius = 2.36595E-13 cm
 #                Skin thickness = 5.46000E-14 cm
 #
 # Number of electrons =  5
 #
 # Total elastic cross section = 2.14679E-19 cm**2 = 7.66632E-03 a0**2
 # 1st transport cross section = 4.10851E-25 cm**2 = 1.46718E-08 a0**2
 # 2nd transport cross section = 1.18669E-24 cm**2 = 4.23774E-08 a0**2
 #
 #
 # Differential cross section:                       MU=(1-COS(THETA))/2
 #
 #  THETA        MU          DCS          DCS        Sherman      error
 #  (deg)                 (cm**2/sr)   (a0**2/sr)    function
 #----------------------------------------------------------------------
0.00000E+00 3.30412E-13
7.61557E-13 3.30404E-13
1.18994E-12 3.30399E-13
1.71346E-12 3.30393E-13
2.33225E-12 3.30386E-13
3.04617E-12 3.30378E-13
3.85530E-12 3.30369E-13
4.75964E-12 3.30359E-13
5.75917E-12 3.30347E-13
6.85391E-12 3.30335E-13
8.04379E-12 3.30322E-13
9.32893E-12 3.30307E-13
1.07092E-11 3.30292E-13
1.21847E-11 3.30275E-13
1.37554E-11 3.30258E-13
1.54213E-11 3.30239E-13
1.71823E-11 3.30219E-13
1.90386E-11 3.30198E-13
2.09900E-11 3.30176E-13
2.30367E-11 3.30154E-13
2.51785E-11 3.30130E-13
2.74156E-11 3.30104E-13
2.97478E-11 3.30078E-13
3.21752E-11 3.30051E-13
3.46979E-11 3.30023E-13
3.73157E-11 3.29994E-13
4.00286E-11 3.29963E-13
4.28368E-11 3.29932E-13
4.57402E-11 3.29899E-13
4.87388E-11 3.29866E-13
5.18325E-11 3.29831E-13
5.50215E-11 3.29796E-13
5.83057E-11 3.29759E-13
6.16850E-11 3.29721E-13
6.51595E-11 3.29682E-13
6.87293E-11 3.29642E-13
7.23943E-11 3.29601E-13
7.61544E-11 3.29559E-13
1.18991E-10 3.29082E-13
1.71347E-10 3.28499E-13
2.33223E-10 3.27812E-13
3.04617E-10 3.27022E-13
3.85531E-10 3.26130E-13
4.75965E-10 3.25138E-13
5.75917E-10 3.24046E-13
6.85389E-10 3.22855E-13
8.04380E-10 3.21568E-13
9.32891E-10 3.20186E-13
1.07092E-09 3.18712E-13
1.21847E-09 3.17145E-13
1.37554E-09 3.15488E-13
1.54213E-09 3.13746E-13
1.71823E-09 3.11919E-13
1.90386E-09 3.10007E-13
2.09900E-09 3.08015E-13
2.30367E-09 3.05947E-13
2.51785E-09 3.03804E-13
2.74156E-09 3.01583E-13
2.97478E-09 2.99294E-13
3.21752E-09 2.96939E-13
3.46978E-09 2.94519E-13
3.73156E-09 2.92033E-13
4.00286E-09 2.89488E-13
4.28368E-09 2.86890E-13
4.57402E-09 2.84236E-13
4.87388E-09 2.81527E-13
5.18326E-09 2.78772E-13
5.50215E-09 2.75975E-13
5.83057E-09 2.73131E-13
6.16850E-09 2.70245E-13
6.51596E-09 2.67324E-13
6.87293E-09 2.64373E-13
7.23942E-09 2.61383E-13
7.61544E-09 2.58365E-13
1.18991E-08 2.27177E-13
1.71347E-08 1.95081E-13
2.33223E-08 1.65534E-13
3.04617E-08 1.38548E-13
3.85531E-08 1.14543E-13
4.75965E-08 9.42489E-14
5.75917E-08 7.73256E-14
6.85389E-08 6.31994E-14
8.04380E-08 5.16158E-14
9.32891E-08 4.22564E-14
1.07092E-07 3.46949E-14
1.21847E-07 2.85518E-14
1.37554E-07 2.36010E-14
1.54213E-07 1.96083E-14
1.71823E-07 1.63752E-14
1.90386E-07 1.37447E-14
2.09900E-07 1.16032E-14
2.30367E-07 9.85071E-15
2.51785E-07 8.40928E-15
2.74156E-07 7.21966E-15
2.97478E-07 6.23193E-15
3.21752E-07 5.40646E-15
3.46978E-07 4.71200E-15
3.73156E-07 4.13054E-15
4.00286E-07 3.63827E-15
4.28368E-07 3.21923E-15
4.57402E-07 2.86097E-15
4.87388E-07 2.55297E-15
5.18325E-07 2.28658E-15
5.50215E-07 2.05518E-15
5.83057E-07 1.85347E-15
6.16850E-07 1.67689E-15
6.51596E-07 1.52172E-15
6.87293E-07 1.38491E-15
7.23942E-07 1.26399E-15
7.61543E-07 1.15669E-15
1.18991E-06 5.34686E-16
1.71347E-06 2.85566E-16
2.33223E-06 1.67063E-16
3.04617E-06 1.04097E-16
3.85531E-06 6.80530E-17
4.75964E-06 4.62219E-17
5.75916E-06 3.24021E-17
6.85388E-06 2.33323E-17
8.04378E-06 1.71955E-17
9.32888E-06 1.29306E-17
1.07092E-05 9.89933E-18
1.21846E-05 7.70013E-18
1.37553E-05 6.07520E-18
1.54212E-05 4.85470E-18
1.71822E-05 3.92428E-18
1.90385E-05 3.20955E-18
2.09899E-05 2.64606E-18
2.30365E-05 2.19966E-18
2.51783E-05 1.84299E-18
2.74153E-05 1.55573E-18
2.97475E-05 1.32256E-18
3.21749E-05 1.13174E-18
3.46974E-05 9.74269E-19
3.73152E-05 8.43265E-19
4.00281E-05 7.33455E-19
4.28362E-05 6.40806E-19
4.57395E-05 5.62205E-19
4.87380E-05 4.95215E-19
5.18317E-05 4.37889E-19
5.50205E-05 3.88645E-19
5.83045E-05 3.46174E-19
6.16838E-05 3.09386E-19
6.51582E-05 2.77376E-19
6.87277E-05 2.49400E-19
7.23925E-05 2.24847E-19
7.61524E-05 2.03221E-19
9.21439E-05 1.38809E-19
1.09658E-04 9.80686E-20
1.28695E-04 7.12037E-20
1.49255E-04 5.29458E-20
1.71338E-04 4.01867E-20
1.94942E-04 3.10432E-20
2.20070E-04 2.43648E-20
2.46720E-04 1.93856E-20
2.74892E-04 1.56179E-20
3.04586E-04 1.27223E-20
3.35803E-04 1.04674E-20
3.68542E-04 8.69151E-21
4.02802E-04 7.27598E-21
4.38585E-04 6.13790E-21
4.75889E-04 5.21358E-21
5.14715E-04 4.45700E-21
5.55063E-04 3.83292E-21
5.96931E-04 3.31419E-21
6.40321E-04 2.88052E-21
6.85233E-04 2.51538E-21
7.31665E-04 2.20640E-21
7.79618E-04 1.94343E-21
8.29092E-04 1.71847E-21
8.80086E-04 1.52520E-21
9.32601E-04 1.35830E-21
9.86636E-04 1.21367E-21
1.04219E-03 1.08776E-21
1.09927E-03 9.77778E-22
1.15786E-03 8.81361E-22
1.21797E-03 7.96525E-22
1.27961E-03 7.21677E-22
1.34276E-03 6.55403E-22
1.40743E-03 5.96576E-22
1.47362E-03 5.44203E-22
1.54133E-03 4.97451E-22
1.61056E-03 4.55621E-22
1.68131E-03 4.18090E-22
1.75357E-03 3.84353E-22
1.82735E-03 3.53948E-22
1.90265E-03 3.26492E-22
1.97947E-03 3.01650E-22
2.05780E-03 2.79123E-22
2.13765E-03 2.58665E-22
2.21902E-03 2.40044E-22
2.30190E-03 2.23072E-22
2.38630E-03 2.07573E-22
2.47222E-03 1.93397E-22
2.55965E-03 1.80412E-22
2.64859E-03 1.68498E-22
2.73905E-03 1.57552E-22
2.83103E-03 1.47481E-22
2.92452E-03 1.38202E-22
3.01952E-03 1.29642E-22
3.11604E-03 1.21734E-22
3.21407E-03 1.14420E-22
3.31362E-03 1.07647E-22
3.41468E-03 1.01369E-22
3.51725E-03 9.55416E-23
3.62133E-03 9.01269E-23
3.72692E-03 8.50909E-23
3.83403E-03 8.04013E-23
3.94265E-03 7.60309E-23
4.05278E-03 7.19532E-23
4.16442E-03 6.81454E-23
4.27757E-03 6.45863E-23
4.39223E-03 6.12564E-23
4.50840E-03 5.81386E-23
4.62608E-03 5.52165E-23
4.74527E-03 5.24759E-23
4.86597E-03 4.99032E-23
4.98817E-03 4.74862E-23
5.11188E-03 4.52139E-23
5.23711E-03 4.30758E-23
5.36383E-03 4.10628E-23
5.49207E-03 3.91659E-23
5.62181E-03 3.73773E-23
5.75306E-03 3.56897E-23
5.88581E-03 3.40962E-23
6.02007E-03 3.25908E-23
6.15583E-03 3.11674E-23
6.29310E-03 2.98210E-23
6.43187E-03 2.85465E-23
6.57214E-03 2.73393E-23
6.71392E-03 2.61954E-23
6.85720E-03 2.51106E-23
7.00198E-03 2.40814E-23
7.14827E-03 2.31044E-23
7.29605E-03 2.21764E-23
7.44534E-03 2.12946E-23
7.59612E-03 2.04561E-23
7.97965E-03 1.85337E-23
8.37255E-03 1.68318E-23
8.77480E-03 1.53209E-23
9.18641E-03 1.39758E-23
9.60736E-03 1.27750E-23
1.00376E-02 1.17005E-23
1.04773E-02 1.07366E-23
1.09262E-02 9.86991E-24
1.13844E-02 9.08891E-24
1.18520E-02 8.38364E-24
1.23288E-02 7.74545E-24
1.28150E-02 7.16682E-24
1.33104E-02 6.64121E-24
1.38150E-02 6.16289E-24
1.43290E-02 5.72684E-24
1.48521E-02 5.32867E-24
1.53845E-02 4.96449E-24
1.59262E-02 4.63088E-24
1.64770E-02 4.32480E-24
1.70371E-02 4.04359E-24
1.76063E-02 3.78484E-24
1.81848E-02 3.54645E-24
1.87724E-02 3.32652E-24
1.93692E-02 3.12336E-24
1.99751E-02 2.93547E-24
2.05901E-02 2.76147E-24
2.12143E-02 2.60017E-24
2.18476E-02 2.45046E-24
2.24900E-02 2.31136E-24
2.31415E-02 2.18197E-24
2.38021E-02 2.06151E-24
2.44717E-02 1.94923E-24
2.51504E-02 1.84448E-24
2.58382E-02 1.74666E-24
2.65349E-02 1.65524E-24
2.72407E-02 1.56970E-24
2.79555E-02 1.48962E-24
2.86793E-02 1.41456E-24
2.94120E-02 1.34417E-24
3.01537E-02 1.27809E-24
3.09043E-02 1.21601E-24
3.16639E-02 1.15765E-24
3.24324E-02 1.10275E-24
3.32098E-02 1.05105E-24
3.39961E-02 1.00234E-24
3.47912E-02 9.56407E-25
3.55952E-02 9.13073E-25
3.64081E-02 8.72160E-25
3.72297E-02 8.33506E-25
3.80602E-02 7.96964E-25
3.88995E-02 7.62398E-25
3.97476E-02 7.29679E-25
4.06044E-02 6.98692E-25
4.14700E-02 6.69328E-25
4.23443E-02 6.41485E-25
4.32273E-02 6.15070E-25
4.41190E-02 5.89996E-25
4.50194E-02 5.66182E-25
4.59284E-02 5.43554E-25
4.68461E-02 5.22040E-25
4.87074E-02 4.82102E-25
5.06030E-02 4.45897E-25
5.25328E-02 4.13014E-25
5.44967E-02 3.83094E-25
5.64946E-02 3.55823E-25
5.85262E-02 3.30924E-25
6.05914E-02 3.08156E-25
6.26901E-02 2.87302E-25
6.48222E-02 2.68173E-25
6.69873E-02 2.50601E-25
6.91854E-02 2.34436E-25
7.14163E-02 2.19546E-25
7.36799E-02 2.05812E-25
7.59760E-02 1.93129E-25
7.83043E-02 1.81400E-25
8.06647E-02 1.70542E-25
8.30571E-02 1.60478E-25
8.54812E-02 1.51140E-25
8.79369E-02 1.42466E-25
9.04240E-02 1.34400E-25
9.29422E-02 1.26892E-25
9.54915E-02 1.19896E-25
9.80716E-02 1.13371E-25
1.00682E-01 1.07279E-25
1.03323E-01 1.01587E-25
1.05995E-01 9.62638E-26
1.08696E-01 9.12808E-26
1.11427E-01 8.66124E-26
1.14188E-01 8.22352E-26
1.16978E-01 7.81278E-26
1.19797E-01 7.42704E-26
1.22645E-01 7.06451E-26
1.25522E-01 6.72355E-26
1.28428E-01 6.40262E-26
1.31361E-01 6.10035E-26
1.34323E-01 5.81545E-26
1.37313E-01 5.54674E-26
1.40330E-01 5.29313E-26
1.43375E-01 5.05362E-26
1.46447E-01 4.82729E-26
1.49545E-01 4.61328E-26
1.52671E-01 4.41079E-26
1.55823E-01 4.21909E-26
1.59001E-01 4.03750E-26
1.62205E-01 3.86540E-26
1.65435E-01 3.70219E-26
1.68690E-01 3.54734E-26
1.71970E-01 3.40033E-26
1.75276E-01 3.26071E-26
1.78606E-01 3.12802E-26
1.81961E-01 3.00187E-26
1.85340E-01 2.88186E-26
1.88743E-01 2.76766E-26
1.92169E-01 2.65893E-26
1.95619E-01 2.55535E-26
1.99092E-01 2.45664E-26
2.02589E-01 2.36253E-26
2.06107E-01 2.27277E-26
2.09649E-01 2.18712E-26
2.13212E-01 2.10535E-26
2.16797E-01 2.02726E-26
2.20404E-01 1.95266E-26
2.24032E-01 1.88135E-26
2.27680E-01 1.81318E-26
2.31350E-01 1.74796E-26
2.35040E-01 1.68557E-26
2.38751E-01 1.62584E-26
2.42481E-01 1.56864E-26
2.46231E-01 1.51386E-26
2.50000E-01 1.46136E-26
2.53788E-01 1.41104E-26
2.57595E-01 1.36279E-26
2.61421E-01 1.31651E-26
2.65264E-01 1.27210E-26
2.69126E-01 1.22948E-26
2.73005E-01 1.18856E-26
2.76901E-01 1.14926E-26
2.80814E-01 1.11150E-26
2.84744E-01 1.07522E-26
2.88691E-01 1.04034E-26
2.92653E-01 1.00681E-26
2.96632E-01 9.74550E-27
3.00625E-01 9.43517E-27
3.04634E-01 9.13653E-27
3.08658E-01 8.84906E-27
3.12697E-01 8.57226E-27
3.16749E-01 8.30567E-27
3.20816E-01 8.04884E-27
3.24896E-01 7.80136E-27
3.28990E-01 7.56282E-27
3.33097E-01 7.33285E-27
3.37216E-01 7.11108E-27
3.41348E-01 6.89718E-27
3.45492E-01 6.69080E-27
3.49647E-01 6.49164E-27
3.53814E-01 6.29941E-27
3.57992E-01 6.11381E-27
3.62181E-01 5.93459E-27
3.66381E-01 5.76148E-27
3.70590E-01 5.59424E-27
3.74810E-01 5.43264E-27
3.79039E-01 5.27645E-27
3.83277E-01 5.12546E-27
3.87524E-01 4.97947E-27
3.91780E-01 4.83828E-27
3.96044E-01 4.70171E-27
4.00316E-01 4.56958E-27
4.04596E-01 4.44172E-27
4.08882E-01 4.31797E-27
4.13176E-01 4.19818E-27
4.17476E-01 4.08219E-27
4.21783E-01 3.96987E-27
4.26095E-01 3.86108E-27
4.30413E-01 3.75570E-27
4.34737E-01 3.65358E-27
4.39065E-01 3.55462E-27
4.43398E-01 3.45871E-27
4.47736E-01 3.36573E-27
4.52077E-01 3.27558E-27
4.56422E-01 3.18816E-27
4.60770E-01 3.10336E-27
4.65122E-01 3.02111E-27
4.69476E-01 2.94131E-27
4.73832E-01 2.86387E-27
4.78190E-01 2.78872E-27
4.82550E-01 2.71577E-27
4.86912E-01 2.64495E-27
4.91274E-01 2.57619E-27
4.95637E-01 2.50942E-27
5.00000E-01 2.44457E-27
5.04363E-01 2.38157E-27
5.08726E-01 2.32037E-27
5.13088E-01 2.26091E-27
5.17450E-01 2.20312E-27
5.21810E-01 2.14695E-27
5.26168E-01 2.09236E-27
5.30524E-01 2.03929E-27
5.34878E-01 1.98768E-27
5.39230E-01 1.93750E-27
5.43578E-01 1.88870E-27
5.47923E-01 1.84122E-27
5.52264E-01 1.79505E-27
5.56602E-01 1.75012E-27
5.60935E-01 1.70640E-27
5.65263E-01 1.66386E-27
5.69587E-01 1.62245E-27
5.73905E-01 1.58215E-27
5.78217E-01 1.54291E-27
5.82524E-01 1.50472E-27
5.86824E-01 1.46752E-27
5.91118E-01 1.43130E-27
5.95404E-01 1.39602E-27
5.99684E-01 1.36166E-27
6.03956E-01 1.32819E-27
6.08220E-01 1.29558E-27
6.12476E-01 1.26381E-27
6.16723E-01 1.23285E-27
6.20961E-01 1.20268E-27
6.25190E-01 1.17327E-27
6.29410E-01 1.14461E-27
6.33619E-01 1.11666E-27
6.37819E-01 1.08942E-27
6.42008E-01 1.06286E-27
6.46186E-01 1.03696E-27
6.50353E-01 1.01170E-27
6.54508E-01 9.87072E-28
6.58652E-01 9.63046E-28
6.62784E-01 9.39610E-28
6.66903E-01 9.16748E-28
6.71010E-01 8.94442E-28
6.75104E-01 8.72679E-28
6.79184E-01 8.51442E-28
6.83251E-01 8.30719E-28
6.87303E-01 8.10493E-28
6.91342E-01 7.90753E-28
6.95366E-01 7.71485E-28
6.99375E-01 7.52676E-28
7.03368E-01 7.34314E-28
7.07347E-01 7.16387E-28
7.11309E-01 6.98884E-28
7.15256E-01 6.81792E-28
7.19186E-01 6.65102E-28
7.23099E-01 6.48803E-28
7.26995E-01 6.32884E-28
7.30874E-01 6.17336E-28
7.34736E-01 6.02149E-28
7.38579E-01 5.87314E-28
7.42405E-01 5.72822E-28
7.46212E-01 5.58663E-28
7.50000E-01 5.44830E-28
7.53769E-01 5.31315E-28
7.57519E-01 5.18108E-28
7.61249E-01 5.05203E-28
7.64960E-01 4.92592E-28
7.68650E-01 4.80267E-28
7.72320E-01 4.68222E-28
7.75968E-01 4.56450E-28
7.79596E-01 4.44943E-28
7.83203E-01 4.33696E-28
7.86788E-01 4.22702E-28
7.90351E-01 4.11955E-28
7.93893E-01 4.01449E-28
7.97411E-01 3.91178E-28
8.00908E-01 3.81136E-28
8.04381E-01 3.71319E-28
8.07831E-01 3.61720E-28
8.11257E-01 3.52335E-28
8.14660E-01 3.43158E-28
8.18039E-01 3.34186E-28
8.21394E-01 3.25412E-28
8.24724E-01 3.16833E-28
8.28030E-01 3.08443E-28
8.31310E-01 3.00239E-28
8.34565E-01 2.92216E-28
8.37795E-01 2.84371E-28
8.40999E-01 2.76699E-28
8.44177E-01 2.69196E-28
8.47329E-01 2.61859E-28
8.50455E-01 2.54683E-28
8.53553E-01 2.47666E-28
8.56625E-01 2.40803E-28
8.59670E-01 2.34092E-28
8.62687E-01 2.27529E-28
8.65677E-01 2.21111E-28
8.68639E-01 2.14834E-28
8.71572E-01 2.08696E-28
8.74478E-01 2.02695E-28
8.77355E-01 1.96826E-28
8.80203E-01 1.91087E-28
8.83022E-01 1.85475E-28
8.85812E-01 1.79989E-28
8.88573E-01 1.74624E-28
8.91304E-01 1.69379E-28
8.94005E-01 1.64252E-28
8.96677E-01 1.59239E-28
8.99318E-01 1.54339E-28
9.01928E-01 1.49549E-28
9.04508E-01 1.44867E-28
9.07058E-01 1.40291E-28
9.09576E-01 1.35820E-28
9.12063E-01 1.31450E-28
9.14519E-01 1.27180E-28
9.16943E-01 1.23008E-28
9.19335E-01 1.18932E-28
9.21696E-01 1.14951E-28
9.24024E-01 1.11063E-28
9.26320E-01 1.07265E-28
9.28584E-01 1.03557E-28
9.30815E-01 9.99359E-29
9.33013E-01 9.64014E-29
9.35178E-01 9.29513E-29
9.37310E-01 8.95843E-29
9.39409E-01 8.62990E-29
9.41474E-01 8.30940E-29
9.43505E-01 7.99679E-29
9.45503E-01 7.69191E-29
9.47467E-01 7.39468E-29
9.49397E-01 7.10494E-29
9.51293E-01 6.82258E-29
9.53154E-01 6.54749E-29
9.54981E-01 6.27953E-29
9.56773E-01 6.01861E-29
9.58530E-01 5.76462E-29
9.60252E-01 5.51745E-29
9.61940E-01 5.27700E-29
9.63592E-01 5.04317E-29
9.65209E-01 4.81587E-29
9.66790E-01 4.59500E-29
9.68336E-01 4.38047E-29
9.69846E-01 4.17219E-29
9.71321E-01 3.97009E-29
9.72759E-01 3.77408E-29
9.74162E-01 3.58407E-29
9.75528E-01 3.40000E-29
9.76858E-01 3.22179E-29
9.78152E-01 3.04937E-29
9.79410E-01 2.88267E-29
9.80631E-01 2.72162E-29
9.81815E-01 2.56616E-29
9.82963E-01 2.41623E-29
9.84074E-01 2.27176E-29
9.85148E-01 2.13271E-29
9.86185E-01 1.99902E-29
9.87185E-01 1.87063E-29
9.88148E-01 1.74749E-29
9.89074E-01 1.62956E-29
9.89962E-01 1.51679E-29
9.90814E-01 1.40913E-29
9.91627E-01 1.30654E-29
9.92404E-01 1.20899E-29
9.93143E-01 1.11644E-29
9.93844E-01 1.02884E-29
9.94508E-01 9.46170E-30
9.95134E-01 8.68384E-30
9.95722E-01 7.95476E-30
9.96273E-01 7.27392E-30
9.96786E-01 6.64123E-30
9.97261E-01 6.05629E-30
9.97698E-01 5.51903E-30
9.98097E-01 5.02917E-30
9.98459E-01 4.58649E-30
9.98782E-01 4.19094E-30
9.99067E-01 3.84223E-30
9.99315E-01 3.54035E-30
9.99524E-01 3.28504E-30
9.99695E-01 3.07633E-30
9.99829E-01 2.91398E-30
9.99924E-01 2.79817E-30
9.99981E-01 2.72865E-30
1.00000E+00 2.70560E-30
