 #
 # Subroutine ELSEPA. Elastic scattering of electrons and positrons
 #                    by neutral atoms and positive ions
 #
 # Projectile: electron
 # Kinetic energy = 8.00000E+07 eV = 2.93995E+06 a.u.
 #
 # WARNING: High-energy factorization with free-atom DF screening.
 #          Absorption, polarization and exchange corrections are
 #          switched off.
 #          Phase shifts are calculated for the bare nucleus.
 #          Scattering amplitudes are not evaluated.
 #
 # Element:  B,  Z =   5,  atomic weight = 1.08110E+01 g/mol
 #
 # Nuclear model: Fermi distribution
 #                Average radius = 2.36595E-13 cm
 #                Skin thickness = 5.46000E-14 cm
 #
 # Number of electrons =  5
 #
 # Total elastic cross section = 2.14293E-19 cm**2 = 7.65255E-03 a0**2
 # 1st transport cross section = 8.66938E-27 cm**2 = 3.09589E-10 a0**2
 # 2nd transport cross section = 2.55382E-26 cm**2 = 9.11985E-10 a0**2
 #
 #
 # Differential cross section:                       MU=(1-COS(THETA))/2
 #
 #  THETA        MU          DCS          DCS        Sherman      error
 #  (deg)                 (cm**2/sr)   (a0**2/sr)    function
 #----------------------------------------------------------------------
0.00000E+00 1.93856E-11
7.61557E-13 1.93561E-11
1.18994E-12 1.93396E-11
1.71346E-12 1.93194E-11
2.33225E-12 1.92956E-11
3.04617E-12 1.92682E-11
3.85530E-12 1.92372E-11
4.75964E-12 1.92027E-11
5.75917E-12 1.91646E-11
6.85391E-12 1.91230E-11
8.04379E-12 1.90779E-11
9.32893E-12 1.90295E-11
1.07092E-11 1.89776E-11
1.21847E-11 1.89223E-11
1.37554E-11 1.88637E-11
1.54213E-11 1.88019E-11
1.71823E-11 1.87368E-11
1.90386E-11 1.86686E-11
2.09900E-11 1.85972E-11
2.30367E-11 1.85227E-11
2.51785E-11 1.84454E-11
2.74156E-11 1.83648E-11
2.97478E-11 1.82816E-11
3.21752E-11 1.81953E-11
3.46979E-11 1.81064E-11
3.73157E-11 1.80148E-11
4.00286E-11 1.79203E-11
4.28368E-11 1.78236E-11
4.57402E-11 1.77240E-11
4.87388E-11 1.76222E-11
5.18325E-11 1.75178E-11
5.50215E-11 1.74113E-11
5.83057E-11 1.73025E-11
6.16850E-11 1.71914E-11
6.51595E-11 1.70785E-11
6.87293E-11 1.69632E-11
7.23943E-11 1.68463E-11
7.61544E-11 1.67271E-11
1.18991E-10 1.54507E-11
1.71347E-10 1.40676E-11
2.33223E-10 1.26445E-11
3.04617E-10 1.12016E-11
3.85531E-10 9.88484E-12
4.75965E-10 8.61838E-12
5.75917E-10 7.48742E-12
6.85389E-10 6.46830E-12
8.04380E-10 5.56370E-12
9.32891E-10 4.78455E-12
1.07092E-09 4.09444E-12
1.21847E-09 3.51355E-12
1.37554E-09 3.00614E-12
1.54213E-09 2.57929E-12
1.71823E-09 2.21402E-12
1.90386E-09 1.90438E-12
2.09900E-09 1.64221E-12
2.30367E-09 1.41871E-12
2.51785E-09 1.23000E-12
2.74156E-09 1.06866E-12
2.97478E-09 9.31864E-13
3.21752E-09 8.14983E-13
3.46978E-09 7.15186E-13
3.73156E-09 6.29651E-13
4.00286E-09 5.56211E-13
4.28368E-09 4.92909E-13
4.57402E-09 4.38311E-13
4.87388E-09 3.90955E-13
5.18326E-09 3.49860E-13
5.50215E-09 3.13959E-13
5.83057E-09 2.82504E-13
6.16850E-09 2.55061E-13
6.51596E-09 2.30941E-13
6.87293E-09 2.09750E-13
7.23942E-09 1.90969E-13
7.61544E-09 1.74348E-13
1.18991E-08 7.87177E-14
1.71347E-08 4.17644E-14
2.33223E-08 2.45707E-14
3.04617E-08 1.55040E-14
3.85531E-08 1.02935E-14
4.75965E-08 7.10146E-15
5.75917E-08 5.04787E-15
6.85389E-08 3.68242E-15
8.04380E-08 2.74248E-15
9.32891E-08 2.08179E-15
1.07092E-07 1.60628E-15
1.21847E-07 1.25759E-15
1.37554E-07 9.97738E-16
1.54213E-07 8.00877E-16
1.71823E-07 6.49903E-16
1.90386E-07 5.32551E-16
2.09900E-07 4.40336E-16
2.30367E-07 3.67108E-16
2.51785E-07 3.08381E-16
2.74156E-07 2.60882E-16
2.97478E-07 2.22130E-16
3.21752E-07 1.90281E-16
3.46978E-07 1.63915E-16
3.73156E-07 1.41943E-16
4.00286E-07 1.23520E-16
4.28368E-07 1.07980E-16
4.57402E-07 9.48013E-17
4.87388E-07 8.35676E-17
5.18325E-07 7.39455E-17
5.50215E-07 6.56659E-17
5.83057E-07 5.85109E-17
6.16850E-07 5.23025E-17
6.51596E-07 4.68946E-17
6.87293E-07 4.21668E-17
7.23942E-07 3.80191E-17
7.61543E-07 3.43684E-17
1.18991E-06 1.41035E-17
1.71347E-06 6.80647E-18
2.33223E-06 3.67488E-18
3.04617E-06 2.15443E-18
3.85531E-06 1.34514E-18
4.75964E-06 8.82613E-19
5.75916E-06 6.02875E-19
6.85388E-06 4.25694E-19
8.04378E-06 3.09079E-19
9.32888E-06 2.29800E-19
1.07092E-05 1.74387E-19
1.21846E-05 1.34715E-19
1.37553E-05 1.05710E-19
1.54212E-05 8.41080E-20
1.71822E-05 6.77528E-20
1.90385E-05 5.52623E-20
2.09899E-05 4.54571E-20
2.30365E-05 3.77173E-20
2.51783E-05 3.15521E-20
2.74153E-05 2.65998E-20
2.97475E-05 2.25889E-20
3.21749E-05 1.93126E-20
3.46974E-05 1.66133E-20
3.73152E-05 1.43705E-20
4.00281E-05 1.24926E-20
4.28362E-05 1.09096E-20
4.57395E-05 9.56751E-21
4.87380E-05 8.42448E-21
5.18317E-05 7.44696E-21
5.50205E-05 6.60774E-21
5.83045E-05 5.88430E-21
6.16838E-05 5.25795E-21
6.51582E-05 4.71317E-21
6.87277E-05 4.23718E-21
7.23925E-05 3.81954E-21
7.61524E-05 3.45131E-21
9.21439E-05 2.35642E-21
1.09658E-04 1.66440E-21
1.28695E-04 1.20830E-21
1.49255E-04 8.98379E-22
1.71338E-04 6.81825E-22
1.94942E-04 5.26645E-22
2.20070E-04 4.13317E-22
2.46720E-04 3.28824E-22
2.74892E-04 2.64897E-22
3.04586E-04 2.15769E-22
3.35803E-04 1.77512E-22
3.68542E-04 1.47385E-22
4.02802E-04 1.23372E-22
4.38585E-04 1.04067E-22
4.75889E-04 8.83891E-23
5.14715E-04 7.55564E-23
5.55063E-04 6.49718E-23
5.96931E-04 5.61743E-23
6.40321E-04 4.88197E-23
6.85233E-04 4.26277E-23
7.31665E-04 3.73883E-23
7.79618E-04 3.29293E-23
8.29092E-04 2.91150E-23
8.80086E-04 2.58382E-23
9.32601E-04 2.30086E-23
9.86636E-04 2.05566E-23
1.04219E-03 1.84223E-23
1.09927E-03 1.65579E-23
1.15786E-03 1.49236E-23
1.21797E-03 1.34856E-23
1.27961E-03 1.22171E-23
1.34276E-03 1.10939E-23
1.40743E-03 1.00970E-23
1.47362E-03 9.20954E-24
1.54133E-03 8.41735E-24
1.61056E-03 7.70861E-24
1.68131E-03 7.07275E-24
1.75357E-03 6.50120E-24
1.82735E-03 5.98613E-24
1.90265E-03 5.52106E-24
1.97947E-03 5.10029E-24
2.05780E-03 4.71877E-24
2.13765E-03 4.37229E-24
2.21902E-03 4.05697E-24
2.30190E-03 3.76957E-24
2.38630E-03 3.50715E-24
2.47222E-03 3.26714E-24
2.55965E-03 3.04732E-24
2.64859E-03 2.84564E-24
2.73905E-03 2.66037E-24
2.83103E-03 2.48991E-24
2.92452E-03 2.33287E-24
3.01952E-03 2.18801E-24
3.11604E-03 2.05420E-24
3.21407E-03 1.93046E-24
3.31362E-03 1.81588E-24
3.41468E-03 1.70967E-24
3.51725E-03 1.61110E-24
3.62133E-03 1.51951E-24
3.72692E-03 1.43434E-24
3.83403E-03 1.35504E-24
3.94265E-03 1.28114E-24
4.05278E-03 1.21220E-24
4.16442E-03 1.14783E-24
4.27757E-03 1.08767E-24
4.39223E-03 1.03138E-24
4.50840E-03 9.78690E-25
4.62608E-03 9.29310E-25
4.74527E-03 8.83001E-25
4.86597E-03 8.39535E-25
4.98817E-03 7.98703E-25
5.11188E-03 7.60321E-25
5.23711E-03 7.24209E-25
5.36383E-03 6.90212E-25
5.49207E-03 6.58181E-25
5.62181E-03 6.27982E-25
5.75306E-03 5.99492E-25
5.88581E-03 5.72594E-25
6.02007E-03 5.47185E-25
6.15583E-03 5.23164E-25
6.29310E-03 5.00444E-25
6.43187E-03 4.78941E-25
6.57214E-03 4.58575E-25
6.71392E-03 4.39279E-25
6.85720E-03 4.20983E-25
7.00198E-03 4.03627E-25
7.14827E-03 3.87153E-25
7.29605E-03 3.71508E-25
7.44534E-03 3.56643E-25
7.59612E-03 3.42510E-25
7.97965E-03 3.10114E-25
8.37255E-03 2.81446E-25
8.77480E-03 2.56003E-25
9.18641E-03 2.33359E-25
9.60736E-03 2.13154E-25
1.00376E-02 1.95080E-25
1.04773E-02 1.78872E-25
1.09262E-02 1.64305E-25
1.13844E-02 1.51183E-25
1.18520E-02 1.39339E-25
1.23288E-02 1.28625E-25
1.28150E-02 1.18916E-25
1.33104E-02 1.10100E-25
1.38150E-02 1.02080E-25
1.43290E-02 9.47733E-26
1.48521E-02 8.81038E-26
1.53845E-02 8.20066E-26
1.59262E-02 7.64239E-26
1.64770E-02 7.13045E-26
1.70371E-02 6.66032E-26
1.76063E-02 6.22798E-26
1.81848E-02 5.82984E-26
1.87724E-02 5.46273E-26
1.93692E-02 5.12380E-26
1.99751E-02 4.81050E-26
2.05901E-02 4.52054E-26
2.12143E-02 4.25187E-26
2.18476E-02 4.00266E-26
2.24900E-02 3.77124E-26
2.31415E-02 3.55611E-26
2.38021E-02 3.35593E-26
2.44717E-02 3.16947E-26
2.51504E-02 2.99562E-26
2.58382E-02 2.83337E-26
2.65349E-02 2.68182E-26
2.72407E-02 2.54012E-26
2.79555E-02 2.40754E-26
2.86793E-02 2.28336E-26
2.94120E-02 2.16698E-26
3.01537E-02 2.05780E-26
3.09043E-02 1.95531E-26
3.16639E-02 1.85902E-26
3.24324E-02 1.76848E-26
3.32098E-02 1.68330E-26
3.39961E-02 1.60310E-26
3.47912E-02 1.52754E-26
3.55952E-02 1.45630E-26
3.64081E-02 1.38908E-26
3.72297E-02 1.32563E-26
3.80602E-02 1.26569E-26
3.88995E-02 1.20903E-26
3.97476E-02 1.15545E-26
4.06044E-02 1.10474E-26
4.14700E-02 1.05672E-26
4.23443E-02 1.01123E-26
4.32273E-02 9.68108E-27
4.41190E-02 9.27208E-27
4.50194E-02 8.88397E-27
4.59284E-02 8.51548E-27
4.68461E-02 8.16545E-27
4.87074E-02 7.51649E-27
5.06030E-02 6.92922E-27
5.25328E-02 6.39680E-27
5.44967E-02 5.91325E-27
5.64946E-02 5.47334E-27
5.85262E-02 5.07247E-27
6.05914E-02 4.70661E-27
6.26901E-02 4.37219E-27
6.48222E-02 4.06605E-27
6.69873E-02 3.78541E-27
6.91854E-02 3.52780E-27
7.14163E-02 3.29100E-27
7.36799E-02 3.07307E-27
7.59760E-02 2.87225E-27
7.83043E-02 2.68698E-27
8.06647E-02 2.51585E-27
8.30571E-02 2.35761E-27
8.54812E-02 2.21114E-27
8.79369E-02 2.07540E-27
9.04240E-02 1.94950E-27
9.29422E-02 1.83259E-27
9.54915E-02 1.72394E-27
9.80716E-02 1.62286E-27
1.00682E-01 1.52875E-27
1.03323E-01 1.44104E-27
1.05995E-01 1.35924E-27
1.08696E-01 1.28288E-27
1.11427E-01 1.21153E-27
1.14188E-01 1.14483E-27
1.16978E-01 1.08242E-27
1.19797E-01 1.02398E-27
1.22645E-01 9.69213E-28
1.25522E-01 9.17860E-28
1.28428E-01 8.69672E-28
1.31361E-01 8.24425E-28
1.34323E-01 7.81912E-28
1.37313E-01 7.41940E-28
1.40330E-01 7.04337E-28
1.43375E-01 6.68939E-28
1.46447E-01 6.35598E-28
1.49545E-01 6.04177E-28
1.52671E-01 5.74547E-28
1.55823E-01 5.46593E-28
1.59001E-01 5.20205E-28
1.62205E-01 4.95282E-28
1.65435E-01 4.71731E-28
1.68690E-01 4.49465E-28
1.71970E-01 4.28404E-28
1.75276E-01 4.08474E-28
1.78606E-01 3.89605E-28
1.81961E-01 3.71732E-28
1.85340E-01 3.54795E-28
1.88743E-01 3.38738E-28
1.92169E-01 3.23509E-28
1.95619E-01 3.09060E-28
1.99092E-01 2.95344E-28
2.02589E-01 2.82320E-28
2.06107E-01 2.69948E-28
2.09649E-01 2.58190E-28
2.13212E-01 2.47012E-28
2.16797E-01 2.36382E-28
2.20404E-01 2.26269E-28
2.24032E-01 2.16644E-28
2.27680E-01 2.07481E-28
2.31350E-01 1.98754E-28
2.35040E-01 1.90441E-28
2.38751E-01 1.82519E-28
2.42481E-01 1.74966E-28
2.46231E-01 1.67765E-28
2.50000E-01 1.60896E-28
2.53788E-01 1.54342E-28
2.57595E-01 1.48086E-28
2.61421E-01 1.42114E-28
2.65264E-01 1.36411E-28
2.69126E-01 1.30963E-28
2.73005E-01 1.25758E-28
2.76901E-01 1.20783E-28
2.80814E-01 1.16027E-28
2.84744E-01 1.11479E-28
2.88691E-01 1.07129E-28
2.92653E-01 1.02968E-28
2.96632E-01 9.89851E-29
3.00625E-01 9.51731E-29
3.04634E-01 9.15236E-29
3.08658E-01 8.80287E-29
3.12697E-01 8.46812E-29
3.16749E-01 8.14740E-29
3.20816E-01 7.84008E-29
3.24896E-01 7.54552E-29
3.28990E-01 7.26314E-29
3.33097E-01 6.99237E-29
3.37216E-01 6.73269E-29
3.41348E-01 6.48358E-29
3.45492E-01 6.24459E-29
3.49647E-01 6.01524E-29
3.53814E-01 5.79511E-29
3.57992E-01 5.58378E-29
3.62181E-01 5.38088E-29
3.66381E-01 5.18602E-29
3.70590E-01 4.99886E-29
3.74810E-01 4.81906E-29
3.79039E-01 4.64630E-29
3.83277E-01 4.48027E-29
3.87524E-01 4.32069E-29
3.91780E-01 4.16729E-29
3.96044E-01 4.01979E-29
4.00316E-01 3.87795E-29
4.04596E-01 3.74154E-29
4.08882E-01 3.61031E-29
4.13176E-01 3.48407E-29
4.17476E-01 3.36259E-29
4.21783E-01 3.24569E-29
4.26095E-01 3.13316E-29
4.30413E-01 3.02485E-29
4.34737E-01 2.92056E-29
4.39065E-01 2.82015E-29
4.43398E-01 2.72344E-29
4.47736E-01 2.63030E-29
4.52077E-01 2.54057E-29
4.56422E-01 2.45413E-29
4.60770E-01 2.37084E-29
4.65122E-01 2.29057E-29
4.69476E-01 2.21322E-29
4.73832E-01 2.13865E-29
4.78190E-01 2.06677E-29
4.82550E-01 1.99746E-29
4.86912E-01 1.93063E-29
4.91274E-01 1.86619E-29
4.95637E-01 1.80403E-29
5.00000E-01 1.74407E-29
5.04363E-01 1.68623E-29
5.08726E-01 1.63043E-29
5.13088E-01 1.57659E-29
5.17450E-01 1.52462E-29
5.21810E-01 1.47448E-29
5.26168E-01 1.42607E-29
5.30524E-01 1.37935E-29
5.34878E-01 1.33424E-29
5.39230E-01 1.29069E-29
5.43578E-01 1.24864E-29
5.47923E-01 1.20803E-29
5.52264E-01 1.16881E-29
5.56602E-01 1.13092E-29
5.60935E-01 1.09433E-29
5.65263E-01 1.05898E-29
5.69587E-01 1.02482E-29
5.73905E-01 9.91821E-30
5.78217E-01 9.59931E-30
5.82524E-01 9.29112E-30
5.86824E-01 8.99325E-30
5.91118E-01 8.70534E-30
5.95404E-01 8.42703E-30
5.99684E-01 8.15798E-30
6.03956E-01 7.89786E-30
6.08220E-01 7.64635E-30
6.12476E-01 7.40314E-30
6.16723E-01 7.16795E-30
6.20961E-01 6.94048E-30
6.25190E-01 6.72048E-30
6.29410E-01 6.50768E-30
6.33619E-01 6.30182E-30
6.37819E-01 6.10267E-30
6.42008E-01 5.90999E-30
6.46186E-01 5.72356E-30
6.50353E-01 5.54316E-30
6.54508E-01 5.36859E-30
6.58652E-01 5.19964E-30
6.62784E-01 5.03613E-30
6.66903E-01 4.87786E-30
6.71010E-01 4.72466E-30
6.75104E-01 4.57636E-30
6.79184E-01 4.43278E-30
6.83251E-01 4.29378E-30
6.87303E-01 4.15919E-30
6.91342E-01 4.02886E-30
6.95366E-01 3.90266E-30
6.99375E-01 3.78045E-30
7.03368E-01 3.66208E-30
7.07347E-01 3.54745E-30
7.11309E-01 3.43641E-30
7.15256E-01 3.32885E-30
7.19186E-01 3.22465E-30
7.23099E-01 3.12371E-30
7.26995E-01 3.02592E-30
7.30874E-01 2.93117E-30
7.34736E-01 2.83936E-30
7.38579E-01 2.75040E-30
7.42405E-01 2.66419E-30
7.46212E-01 2.58065E-30
7.50000E-01 2.49969E-30
7.53769E-01 2.42122E-30
7.57519E-01 2.34516E-30
7.61249E-01 2.27144E-30
7.64960E-01 2.19997E-30
7.68650E-01 2.13070E-30
7.72320E-01 2.06354E-30
7.75968E-01 1.99843E-30
7.79596E-01 1.93530E-30
7.83203E-01 1.87410E-30
7.86788E-01 1.81475E-30
7.90351E-01 1.75721E-30
7.93893E-01 1.70141E-30
7.97411E-01 1.64729E-30
8.00908E-01 1.59481E-30
8.04381E-01 1.54392E-30
8.07831E-01 1.49456E-30
8.11257E-01 1.44668E-30
8.14660E-01 1.40025E-30
8.18039E-01 1.35521E-30
8.21394E-01 1.31151E-30
8.24724E-01 1.26913E-30
8.28030E-01 1.22802E-30
8.31310E-01 1.18813E-30
8.34565E-01 1.14944E-30
8.37795E-01 1.11190E-30
8.40999E-01 1.07548E-30
8.44177E-01 1.04014E-30
8.47329E-01 1.00586E-30
8.50455E-01 9.72597E-31
8.53553E-01 9.40321E-31
8.56625E-01 9.09003E-31
8.59670E-01 8.78614E-31
8.62687E-01 8.49127E-31
8.65677E-01 8.20514E-31
8.68639E-01 7.92749E-31
8.71572E-01 7.65805E-31
8.74478E-01 7.39660E-31
8.77355E-01 7.14288E-31
8.80203E-01 6.89667E-31
8.83022E-01 6.65774E-31
8.85812E-01 6.42589E-31
8.88573E-01 6.20089E-31
8.91304E-01 5.98255E-31
8.94005E-01 5.77067E-31
8.96677E-01 5.56507E-31
8.99318E-01 5.36556E-31
9.01928E-01 5.17196E-31
9.04508E-01 4.98410E-31
9.07058E-01 4.80182E-31
9.09576E-01 4.62495E-31
9.12063E-01 4.45333E-31
9.14519E-01 4.28683E-31
9.16943E-01 4.12529E-31
9.19335E-01 3.96858E-31
9.21696E-01 3.81654E-31
9.24024E-01 3.66906E-31
9.26320E-01 3.52602E-31
9.28584E-01 3.38727E-31
9.30815E-01 3.25270E-31
9.33013E-01 3.12220E-31
9.35178E-01 2.99565E-31
9.37310E-01 2.87295E-31
9.39409E-01 2.75400E-31
9.41474E-01 2.63868E-31
9.43505E-01 2.52692E-31
9.45503E-01 2.41858E-31
9.47467E-01 2.31361E-31
9.49397E-01 2.21192E-31
9.51293E-01 2.11339E-31
9.53154E-01 2.01798E-31
9.54981E-01 1.92557E-31
9.56773E-01 1.83611E-31
9.58530E-01 1.74952E-31
9.60252E-01 1.66572E-31
9.61940E-01 1.58464E-31
9.63592E-01 1.50622E-31
9.65209E-01 1.43040E-31
9.66790E-01 1.35710E-31
9.68336E-01 1.28627E-31
9.69846E-01 1.21785E-31
9.71321E-01 1.15178E-31
9.72759E-01 1.08802E-31
9.74162E-01 1.02650E-31
9.75528E-01 9.67168E-32
9.76858E-01 9.09997E-32
9.78152E-01 8.54920E-32
9.79410E-01 8.01901E-32
9.80631E-01 7.50895E-32
9.81815E-01 7.01862E-32
9.82963E-01 6.54757E-32
9.84074E-01 6.09546E-32
9.85148E-01 5.66194E-32
9.86185E-01 5.24664E-32
9.87185E-01 4.84918E-32
9.88148E-01 4.46930E-32
9.89074E-01 4.10668E-32
9.89962E-01 3.76101E-32
9.90814E-01 3.43203E-32
9.91627E-01 3.11944E-32
9.92404E-01 2.82304E-32
9.93143E-01 2.54255E-32
9.93844E-01 2.27777E-32
9.94508E-01 2.02850E-32
9.95134E-01 1.79446E-32
9.95722E-01 1.57560E-32
9.96273E-01 1.37162E-32
9.96786E-01 1.18244E-32
9.97261E-01 1.00783E-32
9.97698E-01 8.47718E-33
9.98097E-01 7.01941E-33
9.98459E-01 5.70395E-33
9.98782E-01 4.52982E-33
9.99067E-01 3.49603E-33
9.99315E-01 2.60180E-33
9.99524E-01 1.84637E-33
9.99695E-01 1.22907E-33
9.99829E-01 7.49299E-34
9.99924E-01 4.07006E-34
9.99981E-01 2.01706E-34
1.00000E+00 1.33409E-34
