 #
 # Subroutine ELSEPA. Elastic scattering of electrons and positrons
 #                    by neutral atoms and positive ions
 #
 # Projectile: electron
 # Kinetic energy = 6.00000E+07 eV = 2.20496E+06 a.u.
 #
 # WARNING: High-energy factorization with free-atom DF screening.
 #          Absorption, polarization and exchange corrections are
 #          switched off.
 #          Phase shifts are calculated for the bare nucleus.
 #          Scattering amplitudes are not evaluated.
 #
 # Element:  B,  Z =   5,  atomic weight = 1.08110E+01 g/mol
 #
 # Nuclear model: Fermi distribution
 #                Average radius = 2.36595E-13 cm
 #                Skin thickness = 5.46000E-14 cm
 #
 # Number of electrons =  5
 #
 # Total elastic cross section = 2.14371E-19 cm**2 = 7.65533E-03 a0**2
 # 1st transport cross section = 1.50728E-26 cm**2 = 5.38259E-10 a0**2
 # 2nd transport cross section = 4.41991E-26 cm**2 = 1.57838E-09 a0**2
 #
 #
 # Differential cross section:                       MU=(1-COS(THETA))/2
 #
 #  THETA        MU          DCS          DCS        Sherman      error
 #  (deg)                 (cm**2/sr)   (a0**2/sr)    function
 #----------------------------------------------------------------------
0.00000E+00 1.09506E-11
7.61557E-13 1.09412E-11
1.18994E-12 1.09359E-11
1.71346E-12 1.09294E-11
2.33225E-12 1.09218E-11
3.04617E-12 1.09130E-11
3.85530E-12 1.09031E-11
4.75964E-12 1.08920E-11
5.75917E-12 1.08798E-11
6.85391E-12 1.08664E-11
8.04379E-12 1.08519E-11
9.32893E-12 1.08363E-11
1.07092E-11 1.08195E-11
1.21847E-11 1.08016E-11
1.37554E-11 1.07827E-11
1.54213E-11 1.07626E-11
1.71823E-11 1.07414E-11
1.90386E-11 1.07191E-11
2.09900E-11 1.06958E-11
2.30367E-11 1.06714E-11
2.51785E-11 1.06460E-11
2.74156E-11 1.06195E-11
2.97478E-11 1.05920E-11
3.21752E-11 1.05635E-11
3.46979E-11 1.05339E-11
3.73157E-11 1.05035E-11
4.00286E-11 1.04719E-11
4.28368E-11 1.04395E-11
4.57402E-11 1.04060E-11
4.87388E-11 1.03716E-11
5.18325E-11 1.03364E-11
5.50215E-11 1.03002E-11
5.83057E-11 1.02631E-11
6.16850E-11 1.02251E-11
6.51595E-11 1.01863E-11
6.87293E-11 1.01466E-11
7.23943E-11 1.01060E-11
7.61544E-11 1.00647E-11
1.18991E-10 9.60975E-12
1.71347E-10 9.09162E-12
2.33223E-10 8.52809E-12
3.04617E-10 7.93645E-12
3.85531E-10 7.33239E-12
4.75965E-10 6.71340E-12
5.75917E-10 6.12371E-12
6.85389E-10 5.56925E-12
8.04380E-10 5.02313E-12
9.32891E-10 4.53648E-12
1.07092E-09 4.06194E-12
1.21847E-09 3.64059E-12
1.37554E-09 3.25267E-12
1.54213E-09 2.90021E-12
1.71823E-09 2.58887E-12
1.90386E-09 2.30165E-12
2.09900E-09 2.05232E-12
2.30367E-09 1.82479E-12
2.51785E-09 1.62552E-12
2.74156E-09 1.44848E-12
2.97478E-09 1.29101E-12
3.21752E-09 1.15322E-12
3.46978E-09 1.02965E-12
3.73156E-09 9.21716E-13
4.00286E-09 8.25540E-13
4.28368E-09 7.40834E-13
4.57402E-09 6.65937E-13
4.87388E-09 5.99469E-13
5.18326E-09 5.40790E-13
5.50215E-09 4.88535E-13
5.83057E-09 4.42245E-13
6.16850E-09 4.01053E-13
6.51596E-09 3.64378E-13
6.87293E-09 3.31687E-13
7.23942E-09 3.02491E-13
7.61544E-09 2.76358E-13
1.18991E-08 1.23348E-13
1.71347E-08 6.41158E-14
2.33223E-08 3.71992E-14
3.04617E-08 2.34221E-14
3.85531E-08 1.56143E-14
4.75965E-08 1.08625E-14
5.75917E-08 7.81545E-15
6.85389E-08 5.77238E-15
8.04380E-08 4.35560E-15
9.32891E-08 3.34588E-15
1.07092E-07 2.61065E-15
1.21847E-07 2.06424E-15
1.37554E-07 1.65202E-15
1.54213E-07 1.33646E-15
1.71823E-07 1.09192E-15
1.90386E-07 9.00191E-16
2.09900E-07 7.48246E-16
2.30367E-07 6.26708E-16
2.51785E-07 5.28595E-16
2.74156E-07 4.48764E-16
2.97478E-07 3.83298E-16
3.21752E-07 3.29242E-16
3.46978E-07 2.84301E-16
3.73156E-07 2.46715E-16
4.00286E-07 2.15091E-16
4.28368E-07 1.88341E-16
4.57402E-07 1.65597E-16
4.87388E-07 1.46159E-16
5.18325E-07 1.29478E-16
5.50215E-07 1.15095E-16
5.83057E-07 1.02647E-16
6.16850E-07 9.18297E-17
6.51596E-07 8.23942E-17
6.87293E-07 7.41355E-17
7.23942E-07 6.68821E-17
7.61543E-07 6.04916E-17
1.18991E-06 2.49021E-17
1.71347E-06 1.20335E-17
2.33223E-06 6.50150E-18
3.04617E-06 3.81294E-18
3.85531E-06 2.38090E-18
4.75964E-06 1.56230E-18
5.75916E-06 1.06717E-18
6.85388E-06 7.53553E-19
8.04378E-06 5.47135E-19
9.32888E-06 4.06800E-19
1.07092E-05 3.08710E-19
1.21846E-05 2.38482E-19
1.37553E-05 1.87137E-19
1.54212E-05 1.48896E-19
1.71822E-05 1.19943E-19
1.90385E-05 9.78313E-20
2.09899E-05 8.04733E-20
2.30365E-05 6.67718E-20
2.51783E-05 5.58576E-20
2.74153E-05 4.70907E-20
2.97475E-05 3.99901E-20
3.21749E-05 3.41900E-20
3.46974E-05 2.94113E-20
3.73152E-05 2.54409E-20
4.00281E-05 2.21163E-20
4.28362E-05 1.93138E-20
4.57395E-05 1.69379E-20
4.87380E-05 1.49143E-20
5.18317E-05 1.31838E-20
5.50205E-05 1.16981E-20
5.83045E-05 1.04174E-20
6.16838E-05 9.30849E-21
6.51582E-05 8.34403E-21
6.87277E-05 7.50136E-21
7.23925E-05 6.76198E-21
7.61524E-05 6.11043E-21
9.21439E-05 4.17203E-21
1.09658E-04 2.94684E-21
1.28695E-04 2.13935E-21
1.49255E-04 1.59065E-21
1.71338E-04 1.20724E-21
1.94942E-04 9.32497E-22
2.20070E-04 7.31848E-22
2.46720E-04 5.82251E-22
2.74892E-04 4.69066E-22
3.04586E-04 3.82081E-22
3.35803E-04 3.14343E-22
3.68542E-04 2.61001E-22
4.02802E-04 2.18482E-22
4.38585E-04 1.84300E-22
4.75889E-04 1.56538E-22
5.14715E-04 1.33815E-22
5.55063E-04 1.15073E-22
5.96931E-04 9.94946E-23
6.40321E-04 8.64713E-23
6.85233E-04 7.55063E-23
7.31665E-04 6.62281E-23
7.79618E-04 5.83316E-23
8.29092E-04 5.15769E-23
8.80086E-04 4.57738E-23
9.32601E-04 4.07626E-23
9.86636E-04 3.64202E-23
1.04219E-03 3.26401E-23
1.09927E-03 2.93381E-23
1.15786E-03 2.64435E-23
1.21797E-03 2.38967E-23
1.27961E-03 2.16498E-23
1.34276E-03 1.96604E-23
1.40743E-03 1.78946E-23
1.47362E-03 1.63226E-23
1.54133E-03 1.49193E-23
1.61056E-03 1.36638E-23
1.68131E-03 1.25374E-23
1.75357E-03 1.15249E-23
1.82735E-03 1.06124E-23
1.90265E-03 9.78845E-24
1.97947E-03 9.04298E-24
2.05780E-03 8.36702E-24
2.13765E-03 7.75315E-24
2.21902E-03 7.19445E-24
2.30190E-03 6.68521E-24
2.38630E-03 6.22022E-24
2.47222E-03 5.79492E-24
2.55965E-03 5.40538E-24
2.64859E-03 5.04797E-24
2.73905E-03 4.71964E-24
2.83103E-03 4.41754E-24
2.92452E-03 4.13922E-24
3.01952E-03 3.88248E-24
3.11604E-03 3.64530E-24
3.21407E-03 3.42598E-24
3.31362E-03 3.22287E-24
3.41468E-03 3.03460E-24
3.51725E-03 2.85986E-24
3.62133E-03 2.69750E-24
3.72692E-03 2.54651E-24
3.83403E-03 2.40592E-24
3.94265E-03 2.27489E-24
4.05278E-03 2.15266E-24
4.16442E-03 2.03851E-24
4.27757E-03 1.93183E-24
4.39223E-03 1.83202E-24
4.50840E-03 1.73858E-24
4.62608E-03 1.65101E-24
4.74527E-03 1.56888E-24
4.86597E-03 1.49179E-24
4.98817E-03 1.41936E-24
5.11188E-03 1.35128E-24
5.23711E-03 1.28722E-24
5.36383E-03 1.22692E-24
5.49207E-03 1.17009E-24
5.62181E-03 1.11652E-24
5.75306E-03 1.06597E-24
5.88581E-03 1.01824E-24
6.02007E-03 9.73157E-25
6.15583E-03 9.30533E-25
6.29310E-03 8.90214E-25
6.43187E-03 8.52053E-25
6.57214E-03 8.15909E-25
6.71392E-03 7.81661E-25
6.85720E-03 7.49185E-25
7.00198E-03 7.18378E-25
7.14827E-03 6.89134E-25
7.29605E-03 6.61360E-25
7.44534E-03 6.34969E-25
7.59612E-03 6.09877E-25
7.97965E-03 5.52354E-25
8.37255E-03 5.01442E-25
8.77480E-03 4.56250E-25
9.18641E-03 4.16025E-25
9.60736E-03 3.80125E-25
1.00376E-02 3.48006E-25
1.04773E-02 3.19199E-25
1.09262E-02 2.93304E-25
1.13844E-02 2.69974E-25
1.18520E-02 2.48911E-25
1.23288E-02 2.29856E-25
1.28150E-02 2.12584E-25
1.33104E-02 1.96897E-25
1.38150E-02 1.82626E-25
1.43290E-02 1.69620E-25
1.48521E-02 1.57746E-25
1.53845E-02 1.46888E-25
1.59262E-02 1.36945E-25
1.64770E-02 1.27825E-25
1.70371E-02 1.19448E-25
1.76063E-02 1.11742E-25
1.81848E-02 1.04645E-25
1.87724E-02 9.80994E-26
1.93692E-02 9.20545E-26
1.99751E-02 8.64654E-26
2.05901E-02 8.12915E-26
2.12143E-02 7.64965E-26
2.18476E-02 7.20474E-26
2.24900E-02 6.79150E-26
2.31415E-02 6.40726E-26
2.38021E-02 6.04961E-26
2.44717E-02 5.71638E-26
2.51504E-02 5.40561E-26
2.58382E-02 5.11551E-26
2.65349E-02 4.84445E-26
2.72407E-02 4.59095E-26
2.79555E-02 4.35368E-26
2.86793E-02 4.13140E-26
2.94120E-02 3.92300E-26
3.01537E-02 3.72744E-26
3.09043E-02 3.54381E-26
3.16639E-02 3.37123E-26
3.24324E-02 3.20893E-26
3.32098E-02 3.05617E-26
3.39961E-02 2.91229E-26
3.47912E-02 2.77669E-26
3.55952E-02 2.64881E-26
3.64081E-02 2.52811E-26
3.72297E-02 2.41413E-26
3.80602E-02 2.30643E-26
3.88995E-02 2.20458E-26
3.97476E-02 2.10823E-26
4.06044E-02 2.01701E-26
4.14700E-02 1.93061E-26
4.23443E-02 1.84873E-26
4.32273E-02 1.77107E-26
4.41190E-02 1.69740E-26
4.50194E-02 1.62746E-26
4.59284E-02 1.56103E-26
4.68461E-02 1.49791E-26
4.87074E-02 1.38080E-26
5.06030E-02 1.27475E-26
5.25328E-02 1.17852E-26
5.44967E-02 1.09106E-26
5.64946E-02 1.01142E-26
5.85262E-02 9.38788E-27
6.05914E-02 8.72440E-27
6.26901E-02 8.11738E-27
6.48222E-02 7.56121E-27
6.69873E-02 7.05088E-27
6.91854E-02 6.58198E-27
7.14163E-02 6.15057E-27
7.36799E-02 5.75312E-27
7.59760E-02 5.38652E-27
7.83043E-02 5.04795E-27
8.06647E-02 4.73491E-27
8.30571E-02 4.44515E-27
8.54812E-02 4.17663E-27
8.79369E-02 3.92753E-27
9.04240E-02 3.69621E-27
9.29422E-02 3.48119E-27
9.54915E-02 3.28112E-27
9.80716E-02 3.09478E-27
1.00682E-01 2.92107E-27
1.03323E-01 2.75899E-27
1.05995E-01 2.60764E-27
1.08696E-01 2.46617E-27
1.11427E-01 2.33384E-27
1.14188E-01 2.20996E-27
1.16978E-01 2.09389E-27
1.19797E-01 1.98507E-27
1.22645E-01 1.88296E-27
1.25522E-01 1.78707E-27
1.28428E-01 1.69698E-27
1.31361E-01 1.61226E-27
1.34323E-01 1.53255E-27
1.37313E-01 1.45750E-27
1.40330E-01 1.38679E-27
1.43375E-01 1.32013E-27
1.46447E-01 1.25725E-27
1.49545E-01 1.19790E-27
1.52671E-01 1.14185E-27
1.55823E-01 1.08889E-27
1.59001E-01 1.03882E-27
1.62205E-01 9.91447E-28
1.65435E-01 9.46614E-28
1.68690E-01 9.04158E-28
1.71970E-01 8.63933E-28
1.75276E-01 8.25804E-28
1.78606E-01 7.89644E-28
1.81961E-01 7.55334E-28
1.85340E-01 7.22765E-28
1.88743E-01 6.91835E-28
1.92169E-01 6.62448E-28
1.95619E-01 6.34515E-28
1.99092E-01 6.07953E-28
2.02589E-01 5.82684E-28
2.06107E-01 5.58635E-28
2.09649E-01 5.35738E-28
2.13212E-01 5.13929E-28
2.16797E-01 4.93149E-28
2.20404E-01 4.73341E-28
2.24032E-01 4.54454E-28
2.27680E-01 4.36437E-28
2.31350E-01 4.19245E-28
2.35040E-01 4.02834E-28
2.38751E-01 3.87163E-28
2.42481E-01 3.72194E-28
2.46231E-01 3.57891E-28
2.50000E-01 3.44219E-28
2.53788E-01 3.31147E-28
2.57595E-01 3.18644E-28
2.61421E-01 3.06682E-28
2.65264E-01 2.95234E-28
2.69126E-01 2.84275E-28
2.73005E-01 2.73781E-28
2.76901E-01 2.63729E-28
2.80814E-01 2.54098E-28
2.84744E-01 2.44868E-28
2.88691E-01 2.36019E-28
2.92653E-01 2.27534E-28
2.96632E-01 2.19396E-28
3.00625E-01 2.11588E-28
3.04634E-01 2.04095E-28
3.08658E-01 1.96902E-28
3.12697E-01 1.89997E-28
3.16749E-01 1.83365E-28
3.20816E-01 1.76995E-28
3.24896E-01 1.70875E-28
3.28990E-01 1.64993E-28
3.33097E-01 1.59339E-28
3.37216E-01 1.53903E-28
3.41348E-01 1.48676E-28
3.45492E-01 1.43648E-28
3.49647E-01 1.38811E-28
3.53814E-01 1.34156E-28
3.57992E-01 1.29676E-28
3.62181E-01 1.25363E-28
3.66381E-01 1.21211E-28
3.70590E-01 1.17212E-28
3.74810E-01 1.13360E-28
3.79039E-01 1.09650E-28
3.83277E-01 1.06074E-28
3.87524E-01 1.02628E-28
3.91780E-01 9.93065E-29
3.96044E-01 9.61041E-29
4.00316E-01 9.30161E-29
4.04596E-01 9.00380E-29
4.08882E-01 8.71653E-29
4.13176E-01 8.43939E-29
4.17476E-01 8.17197E-29
4.21783E-01 7.91389E-29
4.26095E-01 7.66478E-29
4.30413E-01 7.42430E-29
4.34737E-01 7.19211E-29
4.39065E-01 6.96789E-29
4.43398E-01 6.75133E-29
4.47736E-01 6.54214E-29
4.52077E-01 6.34004E-29
4.56422E-01 6.14477E-29
4.60770E-01 5.95606E-29
4.65122E-01 5.77366E-29
4.69476E-01 5.59735E-29
4.73832E-01 5.42689E-29
4.78190E-01 5.26207E-29
4.82550E-01 5.10268E-29
4.86912E-01 4.94853E-29
4.91274E-01 4.79941E-29
4.95637E-01 4.65516E-29
5.00000E-01 4.51558E-29
5.04363E-01 4.38052E-29
5.08726E-01 4.24981E-29
5.13088E-01 4.12330E-29
5.17450E-01 4.00083E-29
5.21810E-01 3.88226E-29
5.26168E-01 3.76746E-29
5.30524E-01 3.65629E-29
5.34878E-01 3.54863E-29
5.39230E-01 3.44435E-29
5.43578E-01 3.34334E-29
5.47923E-01 3.24548E-29
5.52264E-01 3.15067E-29
5.56602E-01 3.05879E-29
5.60935E-01 2.96976E-29
5.65263E-01 2.88347E-29
5.69587E-01 2.79983E-29
5.73905E-01 2.71874E-29
5.78217E-01 2.64014E-29
5.82524E-01 2.56392E-29
5.86824E-01 2.49002E-29
5.91118E-01 2.41835E-29
5.95404E-01 2.34884E-29
5.99684E-01 2.28142E-29
6.03956E-01 2.21601E-29
6.08220E-01 2.15257E-29
6.12476E-01 2.09101E-29
6.16723E-01 2.03128E-29
6.20961E-01 1.97332E-29
6.25190E-01 1.91707E-29
6.29410E-01 1.86248E-29
6.33619E-01 1.80949E-29
6.37819E-01 1.75806E-29
6.42008E-01 1.70812E-29
6.46186E-01 1.65965E-29
6.50353E-01 1.61257E-29
6.54508E-01 1.56687E-29
6.58652E-01 1.52248E-29
6.62784E-01 1.47938E-29
6.66903E-01 1.43751E-29
6.71010E-01 1.39685E-29
6.75104E-01 1.35734E-29
6.79184E-01 1.31897E-29
6.83251E-01 1.28169E-29
6.87303E-01 1.24546E-29
6.91342E-01 1.21027E-29
6.95366E-01 1.17607E-29
6.99375E-01 1.14283E-29
7.03368E-01 1.11053E-29
7.07347E-01 1.07913E-29
7.11309E-01 1.04862E-29
7.15256E-01 1.01895E-29
7.19186E-01 9.90120E-30
7.23099E-01 9.62088E-30
7.26995E-01 9.34833E-30
7.30874E-01 9.08335E-30
7.34736E-01 8.82569E-30
7.38579E-01 8.57514E-30
7.42405E-01 8.33150E-30
7.46212E-01 8.09455E-30
7.50000E-01 7.86410E-30
7.53769E-01 7.63997E-30
7.57519E-01 7.42196E-30
7.61249E-01 7.20990E-30
7.64960E-01 7.00361E-30
7.68650E-01 6.80293E-30
7.72320E-01 6.60770E-30
7.75968E-01 6.41776E-30
7.79596E-01 6.23296E-30
7.83203E-01 6.05315E-30
7.86788E-01 5.87819E-30
7.90351E-01 5.70793E-30
7.93893E-01 5.54225E-30
7.97411E-01 5.38103E-30
8.00908E-01 5.22412E-30
8.04381E-01 5.07141E-30
8.07831E-01 4.92278E-30
8.11257E-01 4.77812E-30
8.14660E-01 4.63732E-30
8.18039E-01 4.50027E-30
8.21394E-01 4.36687E-30
8.24724E-01 4.23701E-30
8.28030E-01 4.11059E-30
8.31310E-01 3.98753E-30
8.34565E-01 3.86773E-30
8.37795E-01 3.75110E-30
8.40999E-01 3.63755E-30
8.44177E-01 3.52701E-30
8.47329E-01 3.41939E-30
8.50455E-01 3.31461E-30
8.53553E-01 3.21259E-30
8.56625E-01 3.11326E-30
8.59670E-01 3.01655E-30
8.62687E-01 2.92239E-30
8.65677E-01 2.83071E-30
8.68639E-01 2.74145E-30
8.71572E-01 2.65454E-30
8.74478E-01 2.56992E-30
8.77355E-01 2.48752E-30
8.80203E-01 2.40730E-30
8.83022E-01 2.32920E-30
8.85812E-01 2.25315E-30
8.88573E-01 2.17911E-30
8.91304E-01 2.10703E-30
8.94005E-01 2.03685E-30
8.96677E-01 1.96853E-30
8.99318E-01 1.90202E-30
9.01928E-01 1.83727E-30
9.04508E-01 1.77424E-30
9.07058E-01 1.71289E-30
9.09576E-01 1.65317E-30
9.12063E-01 1.59505E-30
9.14519E-01 1.53848E-30
9.16943E-01 1.48343E-30
9.19335E-01 1.42985E-30
9.21696E-01 1.37772E-30
9.24024E-01 1.32700E-30
9.26320E-01 1.27765E-30
9.28584E-01 1.22965E-30
9.30815E-01 1.18295E-30
9.33013E-01 1.13753E-30
9.35178E-01 1.09336E-30
9.37310E-01 1.05041E-30
9.39409E-01 1.00865E-30
9.41474E-01 9.68054E-31
9.43505E-01 9.28597E-31
9.45503E-01 8.90248E-31
9.47467E-01 8.52988E-31
9.49397E-01 8.16792E-31
9.51293E-01 7.81633E-31
9.53154E-01 7.47492E-31
9.54981E-01 7.14343E-31
9.56773E-01 6.82168E-31
9.58530E-01 6.50945E-31
9.60252E-01 6.20654E-31
9.61940E-01 5.91277E-31
9.63592E-01 5.62793E-31
9.65209E-01 5.35186E-31
9.66790E-01 5.08437E-31
9.68336E-01 4.82528E-31
9.69846E-01 4.57446E-31
9.71321E-01 4.33173E-31
9.72759E-01 4.09694E-31
9.74162E-01 3.86994E-31
9.75528E-01 3.65058E-31
9.76858E-01 3.43875E-31
9.78152E-01 3.23428E-31
9.79410E-01 3.03707E-31
9.80631E-01 2.84698E-31
9.81815E-01 2.66391E-31
9.82963E-01 2.48773E-31
9.84074E-01 2.31833E-31
9.85148E-01 2.15562E-31
9.86185E-01 1.99949E-31
9.87185E-01 1.84984E-31
9.88148E-01 1.70658E-31
9.89074E-01 1.56963E-31
9.89962E-01 1.43889E-31
9.90814E-01 1.31429E-31
9.91627E-01 1.19575E-31
9.92404E-01 1.08320E-31
9.93143E-01 9.76566E-32
9.93844E-01 8.75786E-32
9.94508E-01 7.80804E-32
9.95134E-01 6.91540E-32
9.95722E-01 6.07975E-32
9.96273E-01 5.30024E-32
9.96786E-01 4.57664E-32
9.97261E-01 3.90827E-32
9.97698E-01 3.29492E-32
9.98097E-01 2.73612E-32
9.98459E-01 2.23155E-32
9.98782E-01 1.78094E-32
9.99067E-01 1.38399E-32
9.99315E-01 1.04047E-32
9.99524E-01 7.50154E-33
9.99695E-01 5.12858E-33
9.99829E-01 3.28395E-33
9.99924E-01 1.96759E-33
9.99981E-01 1.17794E-33
1.00000E+00 9.15199E-34
