 #
 # Subroutine ELSEPA. Elastic scattering of electrons and positrons
 #                    by neutral atoms and positive ions
 #
 # Projectile: electron
 # Kinetic energy = 2.50000E+08 eV = 9.18733E+06 a.u.
 #
 # WARNING: High-energy factorization with free-atom DF screening.
 #          Absorption, polarization and exchange corrections are
 #          switched off.
 #          Phase shifts are calculated for the bare nucleus.
 #          Scattering amplitudes are not evaluated.
 #
 # Element:  B,  Z =   5,  atomic weight = 1.08110E+01 g/mol
 #
 # Nuclear model: Fermi distribution
 #                Average radius = 2.36595E-13 cm
 #                Skin thickness = 5.46000E-14 cm
 #
 # Number of electrons =  5
 #
 # Total elastic cross section = 2.14000E-19 cm**2 = 7.64206E-03 a0**2
 # 1st transport cross section = 9.19009E-28 cm**2 = 3.28184E-11 a0**2
 # 2nd transport cross section = 2.74811E-27 cm**2 = 9.81367E-11 a0**2
 #
 #
 # Differential cross section:                       MU=(1-COS(THETA))/2
 #
 #  THETA        MU          DCS          DCS        Sherman      error
 #  (deg)                 (cm**2/sr)   (a0**2/sr)    function
 #----------------------------------------------------------------------
0.00000E+00 1.87682E-10
7.61557E-13 1.84949E-10
1.18994E-12 1.83437E-10
1.71346E-12 1.81612E-10
2.33225E-12 1.79488E-10
3.04617E-12 1.77081E-10
3.85530E-12 1.74406E-10
4.75964E-12 1.71482E-10
5.75917E-12 1.68329E-10
6.85391E-12 1.64969E-10
8.04379E-12 1.61421E-10
9.32893E-12 1.57705E-10
1.07092E-11 1.53846E-10
1.21847E-11 1.49866E-10
1.37554E-11 1.45785E-10
1.54213E-11 1.41619E-10
1.71823E-11 1.37395E-10
1.90386E-11 1.33131E-10
2.09900E-11 1.28845E-10
2.30367E-11 1.24549E-10
2.51785E-11 1.20189E-10
2.74156E-11 1.15735E-10
2.97478E-11 1.11423E-10
3.21752E-11 1.07259E-10
3.46979E-11 1.03246E-10
3.73157E-11 9.93869E-11
4.00286E-11 9.53899E-11
4.28368E-11 9.13901E-11
4.57402E-11 8.75708E-11
4.87388E-11 8.39283E-11
5.18325E-11 8.04579E-11
5.50215E-11 7.71545E-11
5.83057E-11 7.36772E-11
6.16850E-11 7.03597E-11
6.51595E-11 6.72157E-11
6.87293E-11 6.42373E-11
7.23943E-11 6.14170E-11
7.61544E-11 5.86802E-11
1.18991E-10 3.63926E-11
1.71347E-10 2.25326E-11
2.33223E-10 1.41792E-11
3.04617E-10 9.15469E-12
3.85531E-10 6.09278E-12
4.75965E-10 4.18705E-12
5.75917E-10 2.96686E-12
6.85389E-10 2.16344E-12
8.04380E-10 1.62124E-12
9.32891E-10 1.24318E-12
1.07092E-09 9.72221E-13
1.21847E-09 7.73739E-13
1.37554E-09 6.25568E-13
1.54213E-09 5.12858E-13
1.71823E-09 4.25459E-13
1.90386E-09 3.56531E-13
2.09900E-09 3.01416E-13
2.30367E-09 2.56846E-13
2.51785E-09 2.20390E-13
2.74156E-09 1.90306E-13
2.97478E-09 1.65498E-13
3.21752E-09 1.44378E-13
3.46978E-09 1.26729E-13
3.73156E-09 1.11615E-13
4.00286E-09 9.87533E-14
4.28368E-09 8.76828E-14
4.57402E-09 7.80951E-14
4.87388E-09 6.98207E-14
5.18326E-09 6.25483E-14
5.50215E-09 5.62495E-14
5.83057E-09 5.06632E-14
6.16850E-09 4.57821E-14
6.51596E-09 4.14484E-14
6.87293E-09 3.76144E-14
7.23942E-09 3.42121E-14
7.61544E-09 3.11732E-14
1.18991E-08 1.35449E-14
1.71347E-08 6.73385E-15
2.33223E-08 3.69598E-15
3.04617E-08 2.18730E-15
3.85531E-08 1.37336E-15
4.75965E-08 9.04297E-16
5.75917E-08 6.19077E-16
6.85389E-08 4.37788E-16
8.04380E-08 3.18184E-16
9.32891E-08 2.36737E-16
1.07092E-07 1.79741E-16
1.21847E-07 1.38901E-16
1.37554E-07 1.09023E-16
1.54213E-07 8.67607E-17
1.71823E-07 6.98997E-17
1.90386E-07 5.69415E-17
2.09900E-07 4.68490E-17
2.30367E-07 3.88963E-17
2.51785E-07 3.25617E-17
2.74156E-07 2.74656E-17
2.97478E-07 2.33286E-17
3.21752E-07 1.99420E-17
3.46978E-07 1.71482E-17
3.73156E-07 1.48270E-17
4.00286E-07 1.28856E-17
4.28368E-07 1.12517E-17
4.57402E-07 9.86883E-18
4.87388E-07 8.69201E-18
5.18325E-07 7.68548E-18
5.50215E-07 6.82052E-18
5.83057E-07 6.07390E-18
6.16850E-07 5.42669E-18
6.51596E-07 4.86344E-18
6.87293E-07 4.37140E-18
7.23942E-07 3.94005E-18
7.61543E-07 3.56061E-18
1.18991E-06 1.45854E-18
1.71347E-06 7.03423E-19
2.33223E-06 3.79706E-19
3.04617E-06 2.22585E-19
3.85531E-06 1.38963E-19
4.75964E-06 9.11766E-20
5.75916E-06 6.22767E-20
6.85388E-06 4.39728E-20
8.04378E-06 3.19262E-20
9.32888E-06 2.37367E-20
1.07092E-05 1.80127E-20
1.21846E-05 1.39148E-20
1.37553E-05 1.09187E-20
1.54212E-05 8.68740E-21
1.71822E-05 6.99805E-21
1.90385E-05 5.70794E-21
2.09899E-05 4.69515E-21
2.30365E-05 3.89570E-21
2.51783E-05 3.25889E-21
2.74153E-05 2.74738E-21
2.97475E-05 2.33310E-21
3.21749E-05 1.99470E-21
3.46974E-05 1.71590E-21
3.73152E-05 1.48426E-21
4.00281E-05 1.29030E-21
4.28362E-05 1.12679E-21
4.57395E-05 9.88176E-22
4.87380E-05 8.70116E-22
5.18317E-05 7.69153E-22
5.50205E-05 6.82473E-22
5.83045E-05 6.07752E-22
6.16838E-05 5.43060E-22
6.51582E-05 4.86793E-22
6.87277E-05 4.37631E-22
7.23925E-05 3.94496E-22
7.61524E-05 3.56073E-22
9.21439E-05 2.43056E-22
1.09658E-04 1.71632E-22
1.28695E-04 1.24565E-22
1.49255E-04 9.25870E-23
1.71338E-04 7.02463E-23
1.94942E-04 5.42398E-23
2.20070E-04 4.25524E-23
2.46720E-04 3.38403E-23
2.74892E-04 2.72502E-23
3.04586E-04 2.21867E-23
3.35803E-04 1.82445E-23
3.68542E-04 1.51409E-23
4.02802E-04 1.26677E-23
4.38585E-04 1.06799E-23
4.75889E-04 9.06591E-24
5.14715E-04 7.74527E-24
5.55063E-04 6.65631E-24
5.96931E-04 5.75147E-24
6.40321E-04 4.99528E-24
6.85233E-04 4.35883E-24
7.31665E-04 3.82048E-24
7.79618E-04 3.36247E-24
8.29092E-04 2.97082E-24
8.80086E-04 2.63449E-24
9.32601E-04 2.34417E-24
9.86636E-04 2.09269E-24
1.04219E-03 1.87388E-24
1.09927E-03 1.68282E-24
1.15786E-03 1.51542E-24
1.21797E-03 1.36819E-24
1.27961E-03 1.23837E-24
1.34276E-03 1.12348E-24
1.40743E-03 1.02155E-24
1.47362E-03 9.30850E-25
1.54133E-03 8.49932E-25
1.61056E-03 7.77575E-25
1.68131E-03 7.12693E-25
1.75357E-03 6.54403E-25
1.82735E-03 6.01902E-25
1.90265E-03 5.54524E-25
1.97947E-03 5.11684E-25
2.05780E-03 4.72861E-25
2.13765E-03 4.37627E-25
2.21902E-03 4.05580E-25
2.30190E-03 3.76388E-25
2.38630E-03 3.49751E-25
2.47222E-03 3.25404E-25
2.55965E-03 3.03119E-25
2.64859E-03 2.82686E-25
2.73905E-03 2.63930E-25
2.83103E-03 2.46684E-25
2.92452E-03 2.30808E-25
3.01952E-03 2.16173E-25
3.11604E-03 2.02664E-25
3.21407E-03 1.90181E-25
3.31362E-03 1.78631E-25
3.41468E-03 1.67932E-25
3.51725E-03 1.58011E-25
3.62133E-03 1.48800E-25
3.72692E-03 1.40242E-25
3.83403E-03 1.32279E-25
3.94265E-03 1.24865E-25
4.05278E-03 1.17954E-25
4.16442E-03 1.11506E-25
4.27757E-03 1.05486E-25
4.39223E-03 9.98584E-26
4.50840E-03 9.45947E-26
4.62608E-03 8.96662E-26
4.74527E-03 8.50485E-26
4.86597E-03 8.07182E-26
4.98817E-03 7.66542E-26
5.11188E-03 7.28376E-26
5.23711E-03 6.92501E-26
5.36383E-03 6.58762E-26
5.49207E-03 6.27004E-26
5.62181E-03 5.97093E-26
5.75306E-03 5.68903E-26
5.88581E-03 5.42314E-26
6.02007E-03 5.17225E-26
6.15583E-03 4.93531E-26
6.29310E-03 4.71143E-26
6.43187E-03 4.49978E-26
6.57214E-03 4.29954E-26
6.71392E-03 4.11003E-26
6.85720E-03 3.93053E-26
7.00198E-03 3.76045E-26
7.14827E-03 3.59920E-26
7.29605E-03 3.44624E-26
7.44534E-03 3.30108E-26
7.59612E-03 3.16323E-26
7.97965E-03 2.84790E-26
8.37255E-03 2.56971E-26
8.77480E-03 2.32359E-26
9.18641E-03 2.10526E-26
9.60736E-03 1.91109E-26
1.00376E-02 1.73798E-26
1.04773E-02 1.58330E-26
1.09262E-02 1.44477E-26
1.13844E-02 1.32044E-26
1.18520E-02 1.20864E-26
1.23288E-02 1.10790E-26
1.28150E-02 1.01696E-26
1.33104E-02 9.34716E-27
1.38150E-02 8.60216E-27
1.43290E-02 7.92617E-27
1.48521E-02 7.31183E-27
1.53845E-02 6.75265E-27
1.59262E-02 6.24295E-27
1.64770E-02 5.77769E-27
1.70371E-02 5.35242E-27
1.76063E-02 4.96319E-27
1.81848E-02 4.60650E-27
1.87724E-02 4.27924E-27
1.93692E-02 3.97861E-27
1.99751E-02 3.70215E-27
2.05901E-02 3.44762E-27
2.12143E-02 3.21305E-27
2.18476E-02 2.99665E-27
2.24900E-02 2.79680E-27
2.31415E-02 2.61208E-27
2.38021E-02 2.44118E-27
2.44717E-02 2.28291E-27
2.51504E-02 2.13623E-27
2.58382E-02 2.00016E-27
2.65349E-02 1.87385E-27
2.72407E-02 1.75649E-27
2.79555E-02 1.64737E-27
2.86793E-02 1.54583E-27
2.94120E-02 1.45129E-27
3.01537E-02 1.36319E-27
3.09043E-02 1.28105E-27
3.16639E-02 1.20440E-27
3.24324E-02 1.13285E-27
3.32098E-02 1.06600E-27
3.39961E-02 1.00351E-27
3.47912E-02 9.45070E-28
3.55952E-02 8.90376E-28
3.64081E-02 8.39164E-28
3.72297E-02 7.91187E-28
3.80602E-02 7.46217E-28
3.88995E-02 7.04045E-28
3.97476E-02 6.64476E-28
4.06044E-02 6.27333E-28
4.14700E-02 5.92452E-28
4.23443E-02 5.59679E-28
4.32273E-02 5.28874E-28
4.41190E-02 4.99906E-28
4.50194E-02 4.72655E-28
4.59284E-02 4.47009E-28
4.68461E-02 4.22863E-28
4.87074E-02 3.78696E-28
5.06030E-02 3.39461E-28
5.25328E-02 3.04560E-28
5.44967E-02 2.73473E-28
5.64946E-02 2.45750E-28
5.85262E-02 2.20999E-28
6.05914E-02 1.98875E-28
6.26901E-02 1.79081E-28
6.48222E-02 1.61353E-28
6.69873E-02 1.45461E-28
6.91854E-02 1.31202E-28
7.14163E-02 1.18398E-28
7.36799E-02 1.06892E-28
7.59760E-02 9.65440E-29
7.83043E-02 8.72313E-29
8.06647E-02 7.88448E-29
8.30571E-02 7.12879E-29
8.54812E-02 6.44745E-29
8.79369E-02 5.83281E-29
9.04240E-02 5.27807E-29
9.29422E-02 4.77714E-29
9.54915E-02 4.32462E-29
9.80716E-02 3.91564E-29
1.00682E-01 3.54588E-29
1.03323E-01 3.21146E-29
1.05995E-01 2.90891E-29
1.08696E-01 2.63509E-29
1.11427E-01 2.38722E-29
1.14188E-01 2.16277E-29
1.16978E-01 1.95949E-29
1.19797E-01 1.77534E-29
1.22645E-01 1.60849E-29
1.25522E-01 1.45729E-29
1.28428E-01 1.32025E-29
1.31361E-01 1.19603E-29
1.34323E-01 1.08342E-29
1.37313E-01 9.81322E-30
1.40330E-01 8.88753E-30
1.43375E-01 8.04816E-30
1.46447E-01 7.28706E-30
1.49545E-01 6.59691E-30
1.52671E-01 5.97109E-30
1.55823E-01 5.40363E-30
1.59001E-01 4.88910E-30
1.62205E-01 4.42259E-30
1.65435E-01 3.99965E-30
1.68690E-01 3.61623E-30
1.71970E-01 3.26868E-30
1.75276E-01 2.95369E-30
1.78606E-01 2.66824E-30
1.81961E-01 2.40960E-30
1.85340E-01 2.17529E-30
1.88743E-01 1.96306E-30
1.92169E-01 1.77086E-30
1.95619E-01 1.59685E-30
1.99092E-01 1.43934E-30
2.02589E-01 1.29680E-30
2.06107E-01 1.16784E-30
2.09649E-01 1.05120E-30
2.13212E-01 9.45736E-31
2.16797E-01 8.50405E-31
2.20404E-01 7.64264E-31
2.24032E-01 6.86453E-31
2.27680E-01 6.16195E-31
2.31350E-01 5.52779E-31
2.35040E-01 4.95564E-31
2.38751E-01 4.43967E-31
2.42481E-01 3.97455E-31
2.46231E-01 3.55549E-31
2.50000E-01 3.17811E-31
2.53788E-01 2.83845E-31
2.57595E-01 2.53290E-31
2.61421E-01 2.25820E-31
2.65264E-01 2.01138E-31
2.69126E-01 1.78975E-31
2.73005E-01 1.59089E-31
2.76901E-01 1.41257E-31
2.80814E-01 1.25279E-31
2.84744E-01 1.10973E-31
2.88691E-01 9.81754E-32
2.92653E-01 8.67364E-32
2.96632E-01 7.65212E-32
3.00625E-01 6.74074E-32
3.04634E-01 5.92844E-32
3.08658E-01 5.20524E-32
3.12697E-01 4.56208E-32
3.16749E-01 3.99077E-32
3.20816E-01 3.48394E-32
3.24896E-01 3.03491E-32
3.28990E-01 2.63765E-32
3.33097E-01 2.28673E-32
3.37216E-01 1.97725E-32
3.41348E-01 1.70479E-32
3.45492E-01 1.46537E-32
3.49647E-01 1.25541E-32
3.53814E-01 1.07168E-32
3.57992E-01 9.11287E-33
3.62181E-01 7.71622E-33
3.66381E-01 6.50345E-33
3.70590E-01 5.45360E-33
3.74810E-01 4.54787E-33
3.79039E-01 3.76939E-33
3.83277E-01 3.10306E-33
3.87524E-01 2.53543E-33
3.91780E-01 2.05444E-33
3.96044E-01 1.64936E-33
4.00316E-01 1.31060E-33
4.04596E-01 1.02963E-33
4.08882E-01 7.98893E-34
4.13176E-01 6.11642E-34
4.17476E-01 4.61925E-34
4.21783E-01 3.44459E-34
4.26095E-01 2.54578E-34
4.30413E-01 1.88172E-34
4.34737E-01 1.41617E-34
4.39065E-01 1.11735E-34
4.43398E-01 9.57385E-35
4.47736E-01 9.11919E-35
4.52077E-01 9.59702E-35
4.56422E-01 1.08232E-34
4.60770E-01 1.26380E-34
4.65122E-01 1.49037E-34
4.69476E-01 1.75016E-34
4.73832E-01 2.03318E-34
4.78190E-01 2.33071E-34
4.82550E-01 2.63562E-34
4.86912E-01 2.94176E-34
4.91274E-01 3.24418E-34
4.95637E-01 3.53867E-34
5.00000E-01 3.82198E-34
5.04363E-01 4.09146E-34
5.08726E-01 4.34502E-34
5.13088E-01 4.58113E-34
5.17450E-01 4.79871E-34
5.21810E-01 4.99710E-34
5.26168E-01 5.17585E-34
5.30524E-01 5.33488E-34
5.34878E-01 5.47421E-34
5.39230E-01 5.59428E-34
5.43578E-01 5.69538E-34
5.47923E-01 5.77833E-34
5.52264E-01 5.84365E-34
5.56602E-01 5.89211E-34
5.60935E-01 5.92450E-34
5.65263E-01 5.94186E-34
5.69587E-01 5.94481E-34
5.73905E-01 5.93453E-34
5.78217E-01 5.91172E-34
5.82524E-01 5.87734E-34
5.86824E-01 5.83241E-34
5.91118E-01 5.77767E-34
5.95404E-01 5.71392E-34
5.99684E-01 5.64211E-34
6.03956E-01 5.56300E-34
6.08220E-01 5.47730E-34
6.12476E-01 5.38583E-34
6.16723E-01 5.28921E-34
6.20961E-01 5.18812E-34
6.25190E-01 5.08318E-34
6.29410E-01 4.97493E-34
6.33619E-01 4.86401E-34
6.37819E-01 4.75085E-34
6.42008E-01 4.63599E-34
6.46186E-01 4.51978E-34
6.50353E-01 4.40271E-34
6.54508E-01 4.28513E-34
6.58652E-01 4.16746E-34
6.62784E-01 4.04996E-34
6.66903E-01 3.93280E-34
6.71010E-01 3.81643E-34
6.75104E-01 3.70108E-34
6.79184E-01 3.58687E-34
6.83251E-01 3.47396E-34
6.87303E-01 3.36267E-34
6.91342E-01 3.25306E-34
6.95366E-01 3.14531E-34
6.99375E-01 3.03941E-34
7.03368E-01 2.93569E-34
7.07347E-01 2.83399E-34
7.11309E-01 2.73455E-34
7.15256E-01 2.63739E-34
7.19186E-01 2.54249E-34
7.23099E-01 2.44998E-34
7.26995E-01 2.35985E-34
7.30874E-01 2.27214E-34
7.34736E-01 2.18677E-34
7.38579E-01 2.10390E-34
7.42405E-01 2.02333E-34
7.46212E-01 1.94519E-34
7.50000E-01 1.86942E-34
7.53769E-01 1.79601E-34
7.57519E-01 1.72493E-34
7.61249E-01 1.65611E-34
7.64960E-01 1.58957E-34
7.68650E-01 1.52523E-34
7.72320E-01 1.46306E-34
7.75968E-01 1.40305E-34
7.79596E-01 1.34511E-34
7.83203E-01 1.28922E-34
7.86788E-01 1.23532E-34
7.90351E-01 1.18341E-34
7.93893E-01 1.13341E-34
7.97411E-01 1.08520E-34
8.00908E-01 1.03883E-34
8.04381E-01 9.94213E-35
8.07831E-01 9.51262E-35
8.11257E-01 9.09990E-35
8.14660E-01 8.70307E-35
8.18039E-01 8.32184E-35
8.21394E-01 7.95566E-35
8.24724E-01 7.60404E-35
8.28030E-01 7.26668E-35
8.31310E-01 6.94278E-35
8.34565E-01 6.63188E-35
8.37795E-01 6.33358E-35
8.40999E-01 6.04790E-35
8.44177E-01 5.77386E-35
8.47329E-01 5.51103E-35
8.50455E-01 5.25931E-35
8.53553E-01 5.01821E-35
8.56625E-01 4.78741E-35
8.59670E-01 4.56631E-35
8.62687E-01 4.35445E-35
8.65677E-01 4.15177E-35
8.68639E-01 3.95776E-35
8.71572E-01 3.77242E-35
8.74478E-01 3.59477E-35
8.77355E-01 3.42509E-35
8.80203E-01 3.26270E-35
8.83022E-01 3.10745E-35
8.85812E-01 2.95892E-35
8.88573E-01 2.81710E-35
8.91304E-01 2.68164E-35
8.94005E-01 2.55204E-35
8.96677E-01 2.42834E-35
8.99318E-01 2.31000E-35
9.01928E-01 2.19709E-35
9.04508E-01 2.08922E-35
9.07058E-01 1.98622E-35
9.09576E-01 1.88783E-35
9.12063E-01 1.79404E-35
9.14519E-01 1.70452E-35
9.16943E-01 1.61890E-35
9.19335E-01 1.53724E-35
9.21696E-01 1.45948E-35
9.24024E-01 1.38519E-35
9.26320E-01 1.31420E-35
9.28584E-01 1.24659E-35
9.30815E-01 1.18214E-35
9.33013E-01 1.12056E-35
9.35178E-01 1.06199E-35
9.37310E-01 1.00613E-35
9.39409E-01 9.52793E-36
9.41474E-01 9.01918E-36
9.43505E-01 8.53368E-36
9.45503E-01 8.07360E-36
9.47467E-01 7.63357E-36
9.49397E-01 7.21378E-36
9.51293E-01 6.81470E-36
9.53154E-01 6.43277E-36
9.54981E-01 6.07084E-36
9.56773E-01 5.72593E-36
9.58530E-01 5.39721E-36
9.60252E-01 5.08439E-36
9.61940E-01 4.78601E-36
9.63592E-01 4.50289E-36
9.65209E-01 4.23232E-36
9.66790E-01 3.97551E-36
9.68336E-01 3.73153E-36
9.69846E-01 3.49913E-36
9.71321E-01 3.27807E-36
9.72759E-01 3.06751E-36
9.74162E-01 2.86803E-36
9.75528E-01 2.67890E-36
9.76858E-01 2.49791E-36
9.78152E-01 2.32727E-36
9.79410E-01 2.16485E-36
9.80631E-01 2.01083E-36
9.81815E-01 1.86457E-36
9.82963E-01 1.72637E-36
9.84074E-01 1.59534E-36
9.85148E-01 1.47100E-36
9.86185E-01 1.35314E-36
9.87185E-01 1.24247E-36
9.88148E-01 1.13757E-36
9.89074E-01 1.03845E-36
9.89962E-01 9.45089E-37
9.90814E-01 8.57086E-37
9.91627E-01 7.74719E-37
9.92404E-01 6.97004E-37
9.93143E-01 6.24457E-37
9.93844E-01 5.56562E-37
9.94508E-01 4.92739E-37
9.95134E-01 4.34346E-37
9.95722E-01 3.78911E-37
9.96273E-01 3.28492E-37
9.96786E-01 2.81350E-37
9.97261E-01 2.38885E-37
9.97698E-01 1.99836E-37
9.98097E-01 1.64664E-37
9.98459E-01 1.33064E-37
9.98782E-01 1.04954E-37
9.99067E-01 8.01970E-38
9.99315E-01 5.88300E-38
9.99524E-01 4.07250E-38
9.99695E-01 2.60672E-38
9.99829E-01 1.48739E-38
9.99924E-01 6.80439E-39
9.99981E-01 1.95219E-39
1.00000E+00 2.81126E-40
