 #
 # Subroutine ELSEPA. Elastic scattering of electrons and positrons
 #                    by neutral atoms and positive ions
 #
 # Projectile: electron
 # Kinetic energy = 4.50000E+08 eV = 1.65372E+07 a.u.
 #
 # WARNING: High-energy factorization with free-atom DF screening.
 #          Absorption, polarization and exchange corrections are
 #          switched off.
 #          Phase shifts are calculated for the bare nucleus.
 #          Scattering amplitudes are not evaluated.
 #
 # Element:  B,  Z =   5,  atomic weight = 1.08110E+01 g/mol
 #
 # Nuclear model: Fermi distribution
 #                Average radius = 2.36595E-13 cm
 #                Skin thickness = 5.46000E-14 cm
 #
 # Number of electrons =  5
 #
 # Total elastic cross section = 2.14191E-19 cm**2 = 7.64891E-03 a0**2
 # 1st transport cross section = 2.84792E-28 cm**2 = 1.01701E-11 a0**2
 # 2nd transport cross section = 8.53484E-28 cm**2 = 3.04785E-11 a0**2
 #
 #
 # Differential cross section:                       MU=(1-COS(THETA))/2
 #
 #  THETA        MU          DCS          DCS        Sherman      error
 #  (deg)                 (cm**2/sr)   (a0**2/sr)    function
 #----------------------------------------------------------------------
0.00000E+00 6.06987E-10
7.61557E-13 5.79052E-10
1.18994E-12 5.64125E-10
1.71346E-12 5.46602E-10
2.33225E-12 5.26844E-10
3.04617E-12 5.05260E-10
3.85530E-12 4.82257E-10
4.75964E-12 4.58236E-10
5.75917E-12 4.33579E-10
6.85391E-12 4.08639E-10
8.04379E-12 3.83198E-10
9.32893E-12 3.57934E-10
1.07092E-11 3.34221E-10
1.21847E-11 3.11509E-10
1.37554E-11 2.88427E-10
1.54213E-11 2.67210E-10
1.71823E-11 2.47642E-10
1.90386E-11 2.27893E-10
2.09900E-11 2.09961E-10
2.30367E-11 1.93701E-10
2.51785E-11 1.77714E-10
2.74156E-11 1.63167E-10
2.97478E-11 1.50046E-10
3.21752E-11 1.37539E-10
3.46979E-11 1.26071E-10
3.73157E-11 1.15749E-10
4.00286E-11 1.06127E-10
4.28368E-11 9.72592E-11
4.57402E-11 8.92764E-11
4.87388E-11 8.19437E-11
5.18325E-11 7.51674E-11
5.50215E-11 6.90577E-11
5.83057E-11 6.34930E-11
6.16850E-11 5.83471E-11
6.51595E-11 5.36959E-11
6.87293E-11 4.94749E-11
7.23943E-11 4.55745E-11
7.61544E-11 4.20383E-11
1.18991E-10 1.97677E-11
1.71347E-10 1.02901E-11
2.33223E-10 5.88653E-12
3.04617E-10 3.64769E-12
3.85531E-10 2.40301E-12
4.75965E-10 1.66385E-12
5.75917E-10 1.19742E-12
6.85389E-10 8.87542E-13
8.04380E-10 6.73628E-13
9.32891E-10 5.22204E-13
1.07092E-09 4.11137E-13
1.21847E-09 3.28196E-13
1.37554E-09 2.65247E-13
1.54213E-09 2.16687E-13
1.71823E-09 1.78703E-13
1.90386E-09 1.48547E-13
2.09900E-09 1.24414E-13
2.30367E-09 1.04955E-13
2.51785E-09 8.91233E-14
2.74156E-09 7.61309E-14
2.97478E-09 6.53660E-14
3.21752E-09 5.64209E-14
3.46978E-09 4.89388E-14
3.73156E-09 4.26433E-14
4.00286E-09 3.73177E-14
4.28368E-09 3.27806E-14
4.57402E-09 2.89073E-14
4.87388E-09 2.55846E-14
5.18326E-09 2.27215E-14
5.50215E-09 2.02430E-14
5.83057E-09 1.80895E-14
6.16850E-09 1.62126E-14
6.51596E-09 1.45712E-14
6.87293E-09 1.31310E-14
7.23942E-09 1.18625E-14
7.61544E-09 1.07423E-14
1.18991E-08 4.45753E-15
1.71347E-08 2.16156E-15
2.33223E-08 1.16983E-15
3.04617E-08 6.86674E-16
3.85531E-08 4.29017E-16
4.75965E-08 2.81607E-16
5.75917E-08 1.92397E-16
6.85389E-08 1.35861E-16
8.04380E-08 9.86461E-17
9.32891E-08 7.33446E-17
1.07092E-07 5.56592E-17
1.21847E-07 4.29971E-17
1.37554E-07 3.37395E-17
1.54213E-07 2.68446E-17
1.71823E-07 2.16244E-17
1.90386E-07 1.76136E-17
2.09900E-07 1.44910E-17
2.30367E-07 1.20308E-17
2.51785E-07 1.00711E-17
2.74156E-07 8.49476E-18
2.97478E-07 7.21508E-18
3.21752E-07 6.16755E-18
3.46978E-07 5.30342E-18
3.73156E-07 4.58546E-18
4.00286E-07 3.98498E-18
4.28368E-07 3.47966E-18
4.57402E-07 3.05196E-18
4.87388E-07 2.68800E-18
5.18325E-07 2.37671E-18
5.50215E-07 2.10920E-18
5.83057E-07 1.87830E-18
6.16850E-07 1.67814E-18
6.51596E-07 1.50395E-18
6.87293E-07 1.35179E-18
7.23942E-07 1.21839E-18
7.61543E-07 1.10105E-18
1.18991E-06 4.51010E-19
1.71347E-06 2.17508E-19
2.33223E-06 1.17409E-19
3.04617E-06 6.88251E-20
3.85531E-06 4.29684E-20
4.75964E-06 2.81923E-20
5.75916E-06 1.92562E-20
6.85388E-06 1.35966E-20
8.04378E-06 9.87170E-21
9.32888E-06 7.33947E-21
1.07092E-05 5.56959E-21
1.21846E-05 4.30249E-21
1.37553E-05 3.37610E-21
1.54212E-05 2.68616E-21
1.71822E-05 2.16381E-21
1.90385E-05 1.76491E-21
2.09899E-05 1.45175E-21
2.30365E-05 1.20456E-21
2.51783E-05 1.00765E-21
2.74153E-05 8.49492E-22
2.97475E-05 7.21396E-22
3.21749E-05 6.16765E-22
3.46974E-05 5.30560E-22
3.73152E-05 4.58935E-22
4.00281E-05 3.98962E-22
4.28362E-05 3.48405E-22
4.57395E-05 3.05545E-22
4.87380E-05 2.69041E-22
5.18317E-05 2.37823E-22
5.50205E-05 2.11021E-22
5.83045E-05 1.87918E-22
6.16838E-05 1.67915E-22
6.51582E-05 1.50517E-22
6.87277E-05 1.35316E-22
7.23925E-05 1.21978E-22
7.61524E-05 1.09799E-22
9.21439E-05 7.49060E-23
1.09658E-04 5.28611E-23
1.28695E-04 3.83385E-23
1.49255E-04 2.84752E-23
1.71338E-04 2.15872E-23
1.94942E-04 1.66541E-23
2.20070E-04 1.30536E-23
2.46720E-04 1.03711E-23
2.74892E-04 8.34291E-24
3.04586E-04 6.78539E-24
3.35803E-04 5.57345E-24
3.68542E-04 4.61986E-24
4.02802E-04 3.86043E-24
4.38585E-04 3.25045E-24
4.75889E-04 2.75551E-24
5.14715E-04 2.35081E-24
5.55063E-04 2.01734E-24
5.96931E-04 1.74047E-24
6.40321E-04 1.50927E-24
6.85233E-04 1.31483E-24
7.31665E-04 1.15050E-24
7.79618E-04 1.01082E-24
8.29092E-04 8.91483E-25
8.80086E-04 7.89096E-25
9.32601E-04 7.00803E-25
9.86636E-04 6.24400E-25
1.04219E-03 5.57988E-25
1.09927E-03 5.00061E-25
1.15786E-03 4.49361E-25
1.21797E-03 4.04822E-25
1.27961E-03 3.65591E-25
1.34276E-03 3.30914E-25
1.40743E-03 3.00187E-25
1.47362E-03 2.72880E-25
1.54133E-03 2.48548E-25
1.61056E-03 2.26819E-25
1.68131E-03 2.07360E-25
1.75357E-03 1.89902E-25
1.82735E-03 1.74200E-25
1.90265E-03 1.60051E-25
1.97947E-03 1.47275E-25
2.05780E-03 1.35715E-25
2.13765E-03 1.25240E-25
2.21902E-03 1.15727E-25
2.30190E-03 1.07075E-25
2.38630E-03 9.91932E-26
2.47222E-03 9.20010E-26
2.55965E-03 8.54294E-26
2.64859E-03 7.94143E-26
2.73905E-03 7.39024E-26
2.83103E-03 6.88435E-26
2.92452E-03 6.41948E-26
3.01952E-03 5.99178E-26
3.11604E-03 5.59772E-26
3.21407E-03 5.23431E-26
3.31362E-03 4.89869E-26
3.41468E-03 4.58847E-26
3.51725E-03 4.30137E-26
3.62133E-03 4.03538E-26
3.72692E-03 3.78875E-26
3.83403E-03 3.55978E-26
3.94265E-03 3.34706E-26
4.05278E-03 3.14921E-26
4.16442E-03 2.96504E-26
4.27757E-03 2.79347E-26
4.39223E-03 2.63348E-26
4.50840E-03 2.48418E-26
4.62608E-03 2.34473E-26
4.74527E-03 2.21439E-26
4.86597E-03 2.09247E-26
4.98817E-03 1.97834E-26
5.11188E-03 1.87143E-26
5.23711E-03 1.77120E-26
5.36383E-03 1.67718E-26
5.49207E-03 1.58893E-26
5.62181E-03 1.50603E-26
5.75306E-03 1.42811E-26
5.88581E-03 1.35483E-26
6.02007E-03 1.28588E-26
6.15583E-03 1.22095E-26
6.29310E-03 1.15978E-26
6.43187E-03 1.10212E-26
6.57214E-03 1.04774E-26
6.71392E-03 9.96422E-27
6.85720E-03 9.47969E-27
7.00198E-03 9.02203E-27
7.14827E-03 8.58948E-27
7.29605E-03 8.18049E-27
7.44534E-03 7.79362E-27
7.59612E-03 7.42746E-27
7.97965E-03 6.59470E-27
8.37255E-03 5.86633E-27
8.77480E-03 5.22764E-27
9.18641E-03 4.66625E-27
9.60736E-03 4.17168E-27
1.00376E-02 3.73504E-27
1.04773E-02 3.34876E-27
1.09262E-02 3.00637E-27
1.13844E-02 2.70232E-27
1.18520E-02 2.43186E-27
1.23288E-02 2.19088E-27
1.28150E-02 1.97583E-27
1.33104E-02 1.78363E-27
1.38150E-02 1.61162E-27
1.43290E-02 1.45746E-27
1.48521E-02 1.31913E-27
1.53845E-02 1.19486E-27
1.59262E-02 1.08308E-27
1.64770E-02 9.82431E-28
1.70371E-02 8.91712E-28
1.76063E-02 8.09862E-28
1.81848E-02 7.35944E-28
1.87724E-02 6.69131E-28
1.93692E-02 6.08688E-28
1.99751E-02 5.53965E-28
2.05901E-02 5.04383E-28
2.12143E-02 4.59426E-28
2.18476E-02 4.18636E-28
2.24900E-02 3.81601E-28
2.31415E-02 3.47957E-28
2.38021E-02 3.17375E-28
2.44717E-02 2.89560E-28
2.51504E-02 2.64250E-28
2.58382E-02 2.41208E-28
2.65349E-02 2.20222E-28
2.72407E-02 2.01098E-28
2.79555E-02 1.83666E-28
2.86793E-02 1.67770E-28
2.94120E-02 1.53269E-28
3.01537E-02 1.40036E-28
3.09043E-02 1.27957E-28
3.16639E-02 1.16929E-28
3.24324E-02 1.06856E-28
3.32098E-02 9.76552E-29
3.39961E-02 8.92479E-29
3.47912E-02 8.15646E-29
3.55952E-02 7.45417E-29
3.64081E-02 6.81214E-29
3.72297E-02 6.22512E-29
3.80602E-02 5.68833E-29
3.88995E-02 5.19742E-29
3.97476E-02 4.74843E-29
4.06044E-02 4.33776E-29
4.14700E-02 3.96211E-29
4.23443E-02 3.61849E-29
4.32273E-02 3.30416E-29
4.41190E-02 3.01662E-29
4.50194E-02 2.75360E-29
4.59284E-02 2.51300E-29
4.68461E-02 2.29293E-29
4.87074E-02 1.90757E-29
5.06030E-02 1.58531E-29
5.25328E-02 1.31594E-29
5.44967E-02 1.09091E-29
5.64946E-02 9.03055E-30
5.85262E-02 7.46359E-30
6.05914E-02 6.15779E-30
6.26901E-02 5.07080E-30
6.48222E-02 4.16704E-30
6.69873E-02 3.41665E-30
6.91854E-02 2.79452E-30
7.14163E-02 2.27958E-30
7.36799E-02 1.85414E-30
7.59760E-02 1.50335E-30
7.83043E-02 1.21472E-30
8.06647E-02 9.77821E-31
8.30571E-02 7.83881E-31
8.54812E-02 6.25566E-31
8.79369E-02 4.96739E-31
9.04240E-02 3.92270E-31
9.29422E-02 3.07879E-31
9.54915E-02 2.39995E-31
9.80716E-02 1.85647E-31
1.00682E-01 1.42366E-31
1.03323E-01 1.08104E-31
1.05995E-01 8.11635E-32
1.08696E-01 6.01448E-32
1.11427E-01 4.38930E-32
1.14188E-01 3.14593E-32
1.16978E-01 2.20663E-32
1.19797E-01 1.50788E-32
1.22645E-01 9.98011E-33
1.25522E-01 6.35134E-33
1.28428E-01 3.85462E-33
1.31361E-01 2.21875E-33
1.34323E-01 1.22741E-33
1.37313E-01 7.09123E-34
1.40330E-01 5.29098E-34
1.43375E-01 5.82340E-34
1.46447E-01 7.87961E-34
1.49545E-01 1.08451E-33
1.52671E-01 1.42605E-33
1.55823E-01 1.77907E-33
1.59001E-01 2.11973E-33
1.62205E-01 2.43189E-33
1.65435E-01 2.70528E-33
1.68690E-01 2.93412E-33
1.71970E-01 3.11601E-33
1.75276E-01 3.25104E-33
1.78606E-01 3.34107E-33
1.81961E-01 3.38911E-33
1.85340E-01 3.39900E-33
1.88743E-01 3.37496E-33
1.92169E-01 3.32143E-33
1.95619E-01 3.24279E-33
1.99092E-01 3.14332E-33
2.02589E-01 3.02705E-33
2.06107E-01 2.89766E-33
2.09649E-01 2.75856E-33
2.13212E-01 2.61276E-33
2.16797E-01 2.46293E-33
2.20404E-01 2.31138E-33
2.24032E-01 2.16008E-33
2.27680E-01 2.01072E-33
2.31350E-01 1.86465E-33
2.35040E-01 1.72302E-33
2.38751E-01 1.58668E-33
2.42481E-01 1.45631E-33
2.46231E-01 1.33239E-33
2.50000E-01 1.21524E-33
2.53788E-01 1.10507E-33
2.57595E-01 1.00192E-33
2.61421E-01 9.05778E-34
2.65264E-01 8.16537E-34
2.69126E-01 7.34020E-34
2.73005E-01 6.58001E-34
2.76901E-01 5.88220E-34
2.80814E-01 5.24378E-34
2.84744E-01 4.66161E-34
2.88691E-01 4.13247E-34
2.92653E-01 3.65297E-34
2.96632E-01 3.21981E-34
3.00625E-01 2.82969E-34
3.04634E-01 2.47940E-34
3.08658E-01 2.16577E-34
3.12697E-01 1.88580E-34
3.16749E-01 1.63666E-34
3.20816E-01 1.41558E-34
3.24896E-01 1.22000E-34
3.28990E-01 1.04753E-34
3.33097E-01 8.95905E-35
3.37216E-01 7.63061E-35
3.41348E-01 6.47047E-35
3.45492E-01 5.46097E-35
3.49647E-01 4.58556E-35
3.53814E-01 3.82959E-35
3.57992E-01 3.17937E-35
3.62181E-01 2.62248E-35
3.66381E-01 2.14786E-35
3.70590E-01 1.74531E-35
3.74810E-01 1.40574E-35
3.79039E-01 1.12108E-35
3.83277E-01 8.84099E-36
3.87524E-01 6.88240E-36
3.91780E-01 5.27817E-36
3.96044E-01 3.97662E-36
4.00316E-01 2.93341E-36
4.04596E-01 2.10918E-36
4.08882E-01 1.46882E-36
4.13176E-01 9.82764E-37
4.17476E-01 6.24387E-37
4.21783E-01 3.71129E-37
4.26095E-01 2.03504E-37
4.30413E-01 1.04640E-37
4.34737E-01 6.02651E-38
4.39065E-01 5.82527E-38
4.43398E-01 8.83450E-38
4.47736E-01 1.41957E-37
4.52077E-01 2.12068E-37
4.56422E-01 2.92702E-37
4.60770E-01 3.79157E-37
4.65122E-01 4.67566E-37
4.69476E-01 5.55032E-37
4.73832E-01 6.38878E-37
4.78190E-01 7.17783E-37
4.82550E-01 7.90104E-37
4.86912E-01 8.55232E-37
4.91274E-01 9.12380E-37
4.95637E-01 9.61562E-37
5.00000E-01 1.00245E-36
5.04363E-01 1.03520E-36
5.08726E-01 1.06019E-36
5.13088E-01 1.07777E-36
5.17450E-01 1.08838E-36
5.21810E-01 1.09233E-36
5.26168E-01 1.09038E-36
5.30524E-01 1.08291E-36
5.34878E-01 1.07074E-36
5.39230E-01 1.05411E-36
5.43578E-01 1.03388E-36
5.47923E-01 1.01005E-36
5.52264E-01 9.83535E-37
5.56602E-01 9.54712E-37
5.60935E-01 9.24116E-37
5.65263E-01 8.91741E-37
5.69587E-01 8.58544E-37
5.73905E-01 8.24265E-37
5.78217E-01 7.89677E-37
5.82524E-01 7.54871E-37
5.86824E-01 7.19893E-37
5.91118E-01 6.85191E-37
5.95404E-01 6.51062E-37
5.99684E-01 6.17390E-37
6.03956E-01 5.84429E-37
6.08220E-01 5.52334E-37
6.12476E-01 5.21074E-37
6.16723E-01 4.90836E-37
6.20961E-01 4.61642E-37
6.25190E-01 4.33547E-37
6.29410E-01 4.06631E-37
6.33619E-01 3.80783E-37
6.37819E-01 3.56130E-37
6.42008E-01 3.32590E-37
6.46186E-01 3.10288E-37
6.50353E-01 2.89086E-37
6.54508E-01 2.69016E-37
6.58652E-01 2.49960E-37
6.62784E-01 2.31966E-37
6.66903E-01 2.15165E-37
6.71010E-01 1.99284E-37
6.75104E-01 1.84289E-37
6.79184E-01 1.70280E-37
6.83251E-01 1.57245E-37
6.87303E-01 1.44980E-37
6.91342E-01 1.33543E-37
6.95366E-01 1.22841E-37
6.99375E-01 1.12987E-37
7.03368E-01 1.03694E-37
7.07347E-01 9.51756E-38
7.11309E-01 8.72267E-38
7.15256E-01 7.98399E-38
7.19186E-01 7.30581E-38
7.23099E-01 6.67553E-38
7.26995E-01 6.09242E-38
7.30874E-01 5.55360E-38
7.34736E-01 5.06136E-38
7.38579E-01 4.60055E-38
7.42405E-01 4.18446E-38
7.46212E-01 3.79945E-38
7.50000E-01 3.44612E-38
7.53769E-01 3.12097E-38
7.57519E-01 2.82321E-38
7.61249E-01 2.55232E-38
7.64960E-01 2.30275E-38
7.68650E-01 2.07682E-38
7.72320E-01 1.87077E-38
7.75968E-01 1.68242E-38
7.79596E-01 1.51156E-38
7.83203E-01 1.35648E-38
7.86788E-01 1.21617E-38
7.90351E-01 1.08676E-38
7.93893E-01 9.69319E-39
7.97411E-01 8.65849E-39
8.00908E-01 7.70885E-39
8.04381E-01 6.85038E-39
8.07831E-01 6.09235E-39
8.11257E-01 5.39883E-39
8.14660E-01 4.78059E-39
8.18039E-01 4.22273E-39
8.21394E-01 3.72220E-39
8.24724E-01 3.27347E-39
8.28030E-01 2.86630E-39
8.31310E-01 2.50718E-39
8.34565E-01 2.19182E-39
8.37795E-01 1.91388E-39
8.40999E-01 1.65672E-39
8.44177E-01 1.43316E-39
8.47329E-01 1.24051E-39
8.50455E-01 1.06688E-39
8.53553E-01 9.13217E-40
8.56625E-01 7.75579E-40
8.59670E-01 6.57060E-40
8.62687E-01 5.57433E-40
8.65677E-01 4.68543E-40
8.68639E-01 3.92445E-40
8.71572E-01 3.22041E-40
8.74478E-01 2.66794E-40
8.77355E-01 2.16369E-40
8.80203E-01 1.74991E-40
8.83022E-01 1.39921E-40
8.85812E-01 1.11583E-40
8.88573E-01 8.66520E-41
8.91304E-01 6.53968E-41
8.94005E-01 4.93241E-41
8.96677E-01 3.56360E-41
8.99318E-01 2.57292E-41
9.01928E-01 1.74458E-41
9.04508E-01 1.00000E-45
9.07058E-01 1.00000E-45
9.09576E-01 1.00000E-45
9.12063E-01 1.00000E-45
9.14519E-01 1.00000E-45
9.16943E-01 1.00000E-45
9.19335E-01 1.00000E-45
9.21696E-01 1.00000E-45
9.24024E-01 1.00000E-45
9.26320E-01 1.00000E-45
9.28584E-01 1.00000E-45
9.30815E-01 1.00000E-45
9.33013E-01 1.00000E-45
9.35178E-01 1.00000E-45
9.37310E-01 1.00000E-45
9.39409E-01 1.00000E-45
9.41474E-01 1.00000E-45
9.43505E-01 1.00000E-45
9.45503E-01 1.00000E-45
9.47467E-01 1.00000E-45
9.49397E-01 1.00000E-45
9.51293E-01 1.00000E-45
9.53154E-01 1.00000E-45
9.54981E-01 1.00000E-45
9.56773E-01 1.00000E-45
9.58530E-01 1.00000E-45
9.60252E-01 1.00000E-45
9.61940E-01 1.00000E-45
9.63592E-01 1.00000E-45
9.65209E-01 1.00000E-45
9.66790E-01 1.00000E-45
9.68336E-01 1.00000E-45
9.69846E-01 1.00000E-45
9.71321E-01 1.00000E-45
9.72759E-01 1.00000E-45
9.74162E-01 1.00000E-45
9.75528E-01 1.00000E-45
9.76858E-01 1.00000E-45
9.78152E-01 1.00000E-45
9.79410E-01 1.00000E-45
9.80631E-01 1.00000E-45
9.81815E-01 1.00000E-45
9.82963E-01 1.00000E-45
9.84074E-01 1.00000E-45
9.85148E-01 1.00000E-45
9.86185E-01 1.00000E-45
9.87185E-01 1.00000E-45
9.88148E-01 1.00000E-45
9.89074E-01 1.00000E-45
9.89962E-01 1.00000E-45
9.90814E-01 1.00000E-45
9.91627E-01 1.00000E-45
9.92404E-01 1.00000E-45
9.93143E-01 1.00000E-45
9.93844E-01 1.00000E-45
9.94508E-01 1.00000E-45
9.95134E-01 1.00000E-45
9.95722E-01 1.00000E-45
9.96273E-01 1.00000E-45
9.96786E-01 1.00000E-45
9.97261E-01 1.00000E-45
9.97698E-01 1.00000E-45
9.98097E-01 1.00000E-45
9.98459E-01 1.00000E-45
9.98782E-01 1.00000E-45
9.99067E-01 1.00000E-45
9.99315E-01 1.00000E-45
9.99524E-01 1.00000E-45
9.99695E-01 1.00000E-45
9.99829E-01 1.00000E-45
9.99924E-01 1.00000E-45
9.99981E-01 1.00000E-45
1.00000E+00 1.00000E-45
