 #
 # Subroutine ELSEPA. Elastic scattering of electrons and positrons
 #                    by neutral atoms and positive ions
 #
 # Projectile: electron
 # Kinetic energy = 3.50000E+07 eV = 1.28623E+06 a.u.
 #
 # WARNING: High-energy factorization with free-atom DF screening.
 #          Absorption, polarization and exchange corrections are
 #          switched off.
 #          Phase shifts are calculated for the bare nucleus.
 #          Scattering amplitudes are not evaluated.
 #
 # Element:  B,  Z =   5,  atomic weight = 1.08110E+01 g/mol
 #
 # Nuclear model: Fermi distribution
 #                Average radius = 2.36595E-13 cm
 #                Skin thickness = 5.46000E-14 cm
 #
 # Number of electrons =  5
 #
 # Total elastic cross section = 2.14255E-19 cm**2 = 7.65118E-03 a0**2
 # 1st transport cross section = 4.17265E-26 cm**2 = 1.49008E-09 a0**2
 # 2nd transport cross section = 1.21578E-25 cm**2 = 4.34163E-09 a0**2
 #
 #
 # Differential cross section:                       MU=(1-COS(THETA))/2
 #
 #  THETA        MU          DCS          DCS        Sherman      error
 #  (deg)                 (cm**2/sr)   (a0**2/sr)    function
 #----------------------------------------------------------------------
0.00000E+00 3.77133E-12
7.61557E-13 3.77020E-12
1.18994E-12 3.76958E-12
1.71346E-12 3.76881E-12
2.33225E-12 3.76790E-12
3.04617E-12 3.76686E-12
3.85530E-12 3.76568E-12
4.75964E-12 3.76436E-12
5.75917E-12 3.76290E-12
6.85391E-12 3.76130E-12
8.04379E-12 3.75957E-12
9.32893E-12 3.75770E-12
1.07092E-11 3.75569E-12
1.21847E-11 3.75354E-12
1.37554E-11 3.75126E-12
1.54213E-11 3.74884E-12
1.71823E-11 3.74629E-12
1.90386E-11 3.74360E-12
2.09900E-11 3.74077E-12
2.30367E-11 3.73781E-12
2.51785E-11 3.73472E-12
2.74156E-11 3.73150E-12
2.97478E-11 3.72813E-12
3.21752E-11 3.72464E-12
3.46979E-11 3.72102E-12
3.73157E-11 3.71727E-12
4.00286E-11 3.71338E-12
4.28368E-11 3.70936E-12
4.57402E-11 3.70521E-12
4.87388E-11 3.70095E-12
5.18325E-11 3.69653E-12
5.50215E-11 3.69200E-12
5.83057E-11 3.68734E-12
6.16850E-11 3.68257E-12
6.51595E-11 3.67765E-12
6.87293E-11 3.67261E-12
7.23943E-11 3.66745E-12
7.61544E-11 3.66218E-12
1.18991E-10 3.60270E-12
1.71347E-10 3.53187E-12
2.33223E-10 3.45057E-12
3.04617E-10 3.36004E-12
3.85531E-10 3.26129E-12
4.75965E-10 3.15573E-12
5.75917E-10 3.04439E-12
6.85389E-10 2.92872E-12
8.04380E-10 2.80968E-12
9.32891E-10 2.68866E-12
1.07092E-09 2.56646E-12
1.21847E-09 2.44433E-12
1.37554E-09 2.31719E-12
1.54213E-09 2.19565E-12
1.71823E-09 2.08016E-12
1.90386E-09 1.97086E-12
2.09900E-09 1.85495E-12
2.30367E-09 1.74604E-12
2.51785E-09 1.64422E-12
2.74156E-09 1.54923E-12
2.97478E-09 1.45106E-12
3.21752E-09 1.35977E-12
3.46978E-09 1.27521E-12
3.73156E-09 1.19696E-12
4.00286E-09 1.11793E-12
4.28368E-09 1.04485E-12
4.57402E-09 9.77471E-13
4.87388E-09 9.15358E-13
5.18326E-09 8.53873E-13
5.50215E-09 7.97149E-13
5.83057E-09 7.44946E-13
6.16850E-09 6.96883E-13
6.51596E-09 6.50079E-13
6.87293E-09 6.06917E-13
7.23942E-09 5.67188E-13
7.61544E-09 5.30596E-13
1.18991E-08 2.73946E-13
1.71347E-08 1.49214E-13
2.33223E-08 8.65443E-14
3.04617E-08 5.33682E-14
3.85531E-08 3.48722E-14
4.75965E-08 2.39020E-14
5.75917E-08 1.70347E-14
6.85389E-08 1.25480E-14
8.04380E-08 9.50430E-15
9.32891E-08 7.36105E-15
1.07092E-07 5.80467E-15
1.21847E-07 4.65006E-15
1.37554E-07 3.77227E-15
1.54213E-07 3.09820E-15
1.71823E-07 2.56930E-15
1.90386E-07 2.14812E-15
2.09900E-07 1.81173E-15
2.30367E-07 1.53721E-15
2.51785E-07 1.31281E-15
2.74156E-07 1.12828E-15
2.97478E-07 9.73808E-16
3.21752E-07 8.45159E-16
3.46978E-07 7.36713E-16
3.73156E-07 6.44754E-16
4.00286E-07 5.66790E-16
4.28368E-07 4.99865E-16
4.57402E-07 4.42465E-16
4.87388E-07 3.93063E-16
5.18325E-07 3.50116E-16
5.50215E-07 3.12890E-16
5.83057E-07 2.80397E-16
6.16850E-07 2.51939E-16
6.51596E-07 2.27003E-16
6.87293E-07 2.04993E-16
7.23942E-07 1.85570E-16
7.61543E-07 1.68388E-16
1.18991E-06 7.07694E-17
1.71347E-06 3.45324E-17
2.33223E-06 1.87494E-17
3.04617E-06 1.10254E-17
3.85531E-06 6.89561E-18
4.75964E-06 4.52921E-18
5.75916E-06 3.09570E-18
6.85388E-06 2.18679E-18
8.04378E-06 1.58819E-18
9.32888E-06 1.18104E-18
1.07092E-05 8.96323E-19
1.21846E-05 6.92449E-19
1.37553E-05 5.43383E-19
1.54212E-05 4.32356E-19
1.71822E-05 3.48293E-19
1.90385E-05 2.84088E-19
2.09899E-05 2.33687E-19
2.30365E-05 1.93903E-19
2.51783E-05 1.62211E-19
2.74153E-05 1.36754E-19
2.97475E-05 1.16135E-19
3.21749E-05 9.92917E-20
3.46974E-05 8.54144E-20
3.73152E-05 7.38840E-20
4.00281E-05 6.42293E-20
4.28362E-05 5.60905E-20
4.57395E-05 4.91909E-20
4.87380E-05 4.33144E-20
5.18317E-05 3.82888E-20
5.50205E-05 3.39741E-20
5.83045E-05 3.02547E-20
6.16838E-05 2.70343E-20
6.51582E-05 2.42333E-20
6.87277E-05 2.17860E-20
7.23925E-05 1.96387E-20
7.61524E-05 1.77473E-20
9.21439E-05 1.21176E-20
1.09658E-04 8.55921E-21
1.28695E-04 6.21393E-21
1.49255E-04 4.62025E-21
1.71338E-04 3.50666E-21
1.94942E-04 2.70866E-21
2.20070E-04 2.12586E-21
2.46720E-04 1.69135E-21
2.74892E-04 1.36259E-21
3.04586E-04 1.10993E-21
3.35803E-04 9.13174E-22
3.68542E-04 7.58230E-22
4.02802E-04 6.34725E-22
4.38585E-04 5.35433E-22
4.75889E-04 4.54790E-22
5.14715E-04 3.88784E-22
5.55063E-04 3.34339E-22
5.96931E-04 2.89085E-22
6.40321E-04 2.51252E-22
6.85233E-04 2.19399E-22
7.31665E-04 1.92445E-22
7.79618E-04 1.69505E-22
8.29092E-04 1.49881E-22
8.80086E-04 1.33022E-22
9.32601E-04 1.18463E-22
9.86636E-04 1.05847E-22
1.04219E-03 9.48644E-23
1.09927E-03 8.52707E-23
1.15786E-03 7.68607E-23
1.21797E-03 6.94609E-23
1.27961E-03 6.29324E-23
1.34276E-03 5.71518E-23
1.40743E-03 5.20209E-23
1.47362E-03 4.74529E-23
1.54133E-03 4.33752E-23
1.61056E-03 3.97270E-23
1.68131E-03 3.64536E-23
1.75357E-03 3.35112E-23
1.82735E-03 3.08595E-23
1.90265E-03 2.84650E-23
1.97947E-03 2.62984E-23
2.05780E-03 2.43339E-23
2.13765E-03 2.25498E-23
2.21902E-03 2.09259E-23
2.30190E-03 1.94458E-23
2.38630E-03 1.80942E-23
2.47222E-03 1.68580E-23
2.55965E-03 1.57257E-23
2.64859E-03 1.46867E-23
2.73905E-03 1.37323E-23
2.83103E-03 1.28541E-23
2.92452E-03 1.20450E-23
3.01952E-03 1.12986E-23
3.11604E-03 1.06090E-23
3.21407E-03 9.97135E-24
3.31362E-03 9.38082E-24
3.41468E-03 8.83339E-24
3.51725E-03 8.32531E-24
3.62133E-03 7.85321E-24
3.72692E-03 7.41415E-24
3.83403E-03 7.00529E-24
3.94265E-03 6.62427E-24
4.05278E-03 6.26877E-24
4.16442E-03 5.93681E-24
4.27757E-03 5.62654E-24
4.39223E-03 5.33625E-24
4.50840E-03 5.06446E-24
4.62608E-03 4.80973E-24
4.74527E-03 4.57083E-24
4.86597E-03 4.34657E-24
4.98817E-03 4.13588E-24
5.11188E-03 3.93782E-24
5.23711E-03 3.75145E-24
5.36383E-03 3.57599E-24
5.49207E-03 3.41066E-24
5.62181E-03 3.25476E-24
5.75306E-03 3.10768E-24
5.88581E-03 2.96880E-24
6.02007E-03 2.83760E-24
6.15583E-03 2.71355E-24
6.29310E-03 2.59621E-24
6.43187E-03 2.48514E-24
6.57214E-03 2.37994E-24
6.71392E-03 2.28026E-24
6.85720E-03 2.18572E-24
7.00198E-03 2.09604E-24
7.14827E-03 2.01091E-24
7.29605E-03 1.93005E-24
7.44534E-03 1.85322E-24
7.59612E-03 1.78016E-24
7.97965E-03 1.61266E-24
8.37255E-03 1.46439E-24
8.77480E-03 1.33277E-24
9.18641E-03 1.21559E-24
9.60736E-03 1.11100E-24
1.00376E-02 1.01741E-24
1.04773E-02 9.33466E-25
1.09262E-02 8.57991E-25
1.13844E-02 7.89982E-25
1.18520E-02 7.28572E-25
1.23288E-02 6.73007E-25
1.28150E-02 6.22632E-25
1.33104E-02 5.76877E-25
1.38150E-02 5.35241E-25
1.43290E-02 4.97289E-25
1.48521E-02 4.62636E-25
1.53845E-02 4.30944E-25
1.59262E-02 4.01914E-25
1.64770E-02 3.75284E-25
1.70371E-02 3.50818E-25
1.76063E-02 3.28310E-25
1.81848E-02 3.07574E-25
1.87724E-02 2.88445E-25
1.93692E-02 2.70777E-25
1.99751E-02 2.54438E-25
2.05901E-02 2.39309E-25
2.12143E-02 2.25285E-25
2.18476E-02 2.12271E-25
2.24900E-02 2.00180E-25
2.31415E-02 1.88935E-25
2.38021E-02 1.78466E-25
2.44717E-02 1.68709E-25
2.51504E-02 1.59608E-25
2.58382E-02 1.51111E-25
2.65349E-02 1.43169E-25
2.72407E-02 1.35740E-25
2.79555E-02 1.28785E-25
2.86793E-02 1.22268E-25
2.94120E-02 1.16156E-25
3.01537E-02 1.10419E-25
3.09043E-02 1.05031E-25
3.16639E-02 9.99657E-26
3.24324E-02 9.52008E-26
3.32098E-02 9.07149E-26
3.39961E-02 8.64889E-26
3.47912E-02 8.25048E-26
3.55952E-02 7.87462E-26
3.64081E-02 7.51980E-26
3.72297E-02 7.18463E-26
3.80602E-02 6.86782E-26
3.88995E-02 6.56817E-26
3.97476E-02 6.28459E-26
4.06044E-02 6.01605E-26
4.14700E-02 5.76160E-26
4.23443E-02 5.52038E-26
4.32273E-02 5.29156E-26
4.41190E-02 5.07439E-26
4.50194E-02 4.86817E-26
4.59284E-02 4.67224E-26
4.68461E-02 4.48600E-26
4.87074E-02 4.14033E-26
5.06030E-02 3.82706E-26
5.25328E-02 3.54264E-26
5.44967E-02 3.28393E-26
5.64946E-02 3.04820E-26
5.85262E-02 2.83306E-26
6.05914E-02 2.63639E-26
6.26901E-02 2.45632E-26
6.48222E-02 2.29121E-26
6.69873E-02 2.13959E-26
6.91854E-02 2.00017E-26
7.14163E-02 1.87180E-26
7.36799E-02 1.75343E-26
7.59760E-02 1.64416E-26
7.83043E-02 1.54316E-26
8.06647E-02 1.44969E-26
8.30571E-02 1.36310E-26
8.54812E-02 1.28279E-26
8.79369E-02 1.20821E-26
9.04240E-02 1.13890E-26
9.29422E-02 1.07441E-26
9.54915E-02 1.01434E-26
9.80716E-02 9.58349E-27
1.00682E-01 9.06098E-27
1.03323E-01 8.57298E-27
1.05995E-01 8.11679E-27
1.08696E-01 7.68998E-27
1.11427E-01 7.29031E-27
1.14188E-01 6.91577E-27
1.16978E-01 6.56448E-27
1.19797E-01 6.23474E-27
1.22645E-01 5.92501E-27
1.25522E-01 5.63385E-27
1.28428E-01 5.35996E-27
1.31361E-01 5.10212E-27
1.34323E-01 4.85923E-27
1.37313E-01 4.63027E-27
1.40330E-01 4.41431E-27
1.43375E-01 4.21046E-27
1.46447E-01 4.01794E-27
1.49545E-01 3.83601E-27
1.52671E-01 3.66397E-27
1.55823E-01 3.50120E-27
1.59001E-01 3.34711E-27
1.62205E-01 3.20115E-27
1.65435E-01 3.06283E-27
1.68690E-01 2.93166E-27
1.71970E-01 2.80723E-27
1.75276E-01 2.68911E-27
1.78606E-01 2.57694E-27
1.81961E-01 2.47036E-27
1.85340E-01 2.36904E-27
1.88743E-01 2.27269E-27
1.92169E-01 2.18101E-27
1.95619E-01 2.09374E-27
1.99092E-01 2.01063E-27
2.02589E-01 1.93145E-27
2.06107E-01 1.85598E-27
2.09649E-01 1.78401E-27
2.13212E-01 1.71536E-27
2.16797E-01 1.64985E-27
2.20404E-01 1.58730E-27
2.24032E-01 1.52756E-27
2.27680E-01 1.47049E-27
2.31350E-01 1.41594E-27
2.35040E-01 1.36379E-27
2.38751E-01 1.31390E-27
2.42481E-01 1.26617E-27
2.46231E-01 1.22048E-27
2.50000E-01 1.17674E-27
2.53788E-01 1.13485E-27
2.57595E-01 1.09471E-27
2.61421E-01 1.05624E-27
2.65264E-01 1.01936E-27
2.69126E-01 9.83988E-28
2.73005E-01 9.50058E-28
2.76901E-01 9.17500E-28
2.80814E-01 8.86247E-28
2.84744E-01 8.56240E-28
2.88691E-01 8.27421E-28
2.92653E-01 7.99734E-28
2.96632E-01 7.73128E-28
3.00625E-01 7.47554E-28
3.04634E-01 7.22964E-28
3.08658E-01 6.99316E-28
3.12697E-01 6.76566E-28
3.16749E-01 6.54676E-28
3.20816E-01 6.33607E-28
3.24896E-01 6.13324E-28
3.28990E-01 5.93792E-28
3.33097E-01 5.74980E-28
3.37216E-01 5.56856E-28
3.41348E-01 5.39391E-28
3.45492E-01 5.22557E-28
3.49647E-01 5.06328E-28
3.53814E-01 4.90679E-28
3.57992E-01 4.75586E-28
3.62181E-01 4.61025E-28
3.66381E-01 4.46975E-28
3.70590E-01 4.33415E-28
3.74810E-01 4.20326E-28
3.79039E-01 4.07689E-28
3.83277E-01 3.95484E-28
3.87524E-01 3.83697E-28
3.91780E-01 3.72308E-28
3.96044E-01 3.61305E-28
4.00316E-01 3.50670E-28
4.04596E-01 3.40390E-28
4.08882E-01 3.30452E-28
4.13176E-01 3.20841E-28
4.17476E-01 3.11547E-28
4.21783E-01 3.02556E-28
4.26095E-01 2.93857E-28
4.30413E-01 2.85440E-28
4.34737E-01 2.77293E-28
4.39065E-01 2.69407E-28
4.43398E-01 2.61773E-28
4.47736E-01 2.54380E-28
4.52077E-01 2.47221E-28
4.56422E-01 2.40286E-28
4.60770E-01 2.33569E-28
4.65122E-01 2.27059E-28
4.69476E-01 2.20752E-28
4.73832E-01 2.14638E-28
4.78190E-01 2.08712E-28
4.82550E-01 2.02967E-28
4.86912E-01 1.97396E-28
4.91274E-01 1.91994E-28
4.95637E-01 1.86754E-28
5.00000E-01 1.81672E-28
5.04363E-01 1.76741E-28
5.08726E-01 1.71956E-28
5.13088E-01 1.67313E-28
5.17450E-01 1.62807E-28
5.21810E-01 1.58433E-28
5.26168E-01 1.54186E-28
5.30524E-01 1.50063E-28
5.34878E-01 1.46059E-28
5.39230E-01 1.42171E-28
5.43578E-01 1.38394E-28
5.47923E-01 1.34726E-28
5.52264E-01 1.31161E-28
5.56602E-01 1.27698E-28
5.60935E-01 1.24333E-28
5.65263E-01 1.21063E-28
5.69587E-01 1.17884E-28
5.73905E-01 1.14794E-28
5.78217E-01 1.11790E-28
5.82524E-01 1.08869E-28
5.86824E-01 1.06029E-28
5.91118E-01 1.03267E-28
5.95404E-01 1.00581E-28
5.99684E-01 9.79677E-29
6.03956E-01 9.54258E-29
6.08220E-01 9.29529E-29
6.12476E-01 9.05468E-29
6.16723E-01 8.82055E-29
6.20961E-01 8.59269E-29
6.25190E-01 8.37093E-29
6.29410E-01 8.15508E-29
6.33619E-01 7.94497E-29
6.37819E-01 7.74041E-29
6.42008E-01 7.54125E-29
6.46186E-01 7.34732E-29
6.50353E-01 7.15848E-29
6.54508E-01 6.97458E-29
6.58652E-01 6.79546E-29
6.62784E-01 6.62099E-29
6.66903E-01 6.45104E-29
6.71010E-01 6.28547E-29
6.75104E-01 6.12416E-29
6.79184E-01 5.96699E-29
6.83251E-01 5.81384E-29
6.87303E-01 5.66459E-29
6.91342E-01 5.51914E-29
6.95366E-01 5.37737E-29
6.99375E-01 5.23919E-29
7.03368E-01 5.10449E-29
7.07347E-01 4.97318E-29
7.11309E-01 4.84517E-29
7.15256E-01 4.72035E-29
7.19186E-01 4.59865E-29
7.23099E-01 4.47997E-29
7.26995E-01 4.36425E-29
7.30874E-01 4.25138E-29
7.34736E-01 4.14131E-29
7.38579E-01 4.03394E-29
7.42405E-01 3.92922E-29
7.46212E-01 3.82706E-29
7.50000E-01 3.72740E-29
7.53769E-01 3.63018E-29
7.57519E-01 3.53532E-29
7.61249E-01 3.44277E-29
7.64960E-01 3.35246E-29
7.68650E-01 3.26435E-29
7.72320E-01 3.17836E-29
7.75968E-01 3.09444E-29
7.79596E-01 3.01255E-29
7.83203E-01 2.93262E-29
7.86788E-01 2.85461E-29
7.90351E-01 2.77846E-29
7.93893E-01 2.70414E-29
7.97411E-01 2.63159E-29
8.00908E-01 2.56077E-29
8.04381E-01 2.49164E-29
8.07831E-01 2.42415E-29
8.11257E-01 2.35826E-29
8.14660E-01 2.29393E-29
8.18039E-01 2.23112E-29
8.21394E-01 2.16980E-29
8.24724E-01 2.10993E-29
8.28030E-01 2.05148E-29
8.31310E-01 1.99440E-29
8.34565E-01 1.93866E-29
8.37795E-01 1.88424E-29
8.40999E-01 1.83110E-29
8.44177E-01 1.77921E-29
8.47329E-01 1.72854E-29
8.50455E-01 1.67906E-29
8.53553E-01 1.63074E-29
8.56625E-01 1.58356E-29
8.59670E-01 1.53748E-29
8.62687E-01 1.49249E-29
8.65677E-01 1.44855E-29
8.68639E-01 1.40565E-29
8.71572E-01 1.36376E-29
8.74478E-01 1.32285E-29
8.77355E-01 1.28290E-29
8.80203E-01 1.24390E-29
8.83022E-01 1.20582E-29
8.85812E-01 1.16863E-29
8.88573E-01 1.13233E-29
8.91304E-01 1.09688E-29
8.94005E-01 1.06227E-29
8.96677E-01 1.02849E-29
8.99318E-01 9.95506E-30
9.01928E-01 9.63312E-30
9.04508E-01 9.31886E-30
9.07058E-01 9.01213E-30
9.09576E-01 8.71277E-30
9.12063E-01 8.42062E-30
9.14519E-01 8.13552E-30
9.16943E-01 7.85733E-30
9.19335E-01 7.58591E-30
9.21696E-01 7.32111E-30
9.24024E-01 7.06280E-30
9.26320E-01 6.81085E-30
9.28584E-01 6.56513E-30
9.30815E-01 6.32551E-30
9.33013E-01 6.09188E-30
9.35178E-01 5.86410E-30
9.37310E-01 5.64208E-30
9.39409E-01 5.42569E-30
9.41474E-01 5.21484E-30
9.43505E-01 5.00942E-30
9.45503E-01 4.80930E-30
9.47467E-01 4.61442E-30
9.49397E-01 4.42467E-30
9.51293E-01 4.23994E-30
9.53154E-01 4.06017E-30
9.54981E-01 3.88525E-30
9.56773E-01 3.71509E-30
9.58530E-01 3.54963E-30
9.60252E-01 3.38877E-30
9.61940E-01 3.23244E-30
9.63592E-01 3.08056E-30
9.65209E-01 2.93307E-30
9.66790E-01 2.78988E-30
9.68336E-01 2.65092E-30
9.69846E-01 2.51615E-30
9.71321E-01 2.38548E-30
9.72759E-01 2.25887E-30
9.74162E-01 2.13623E-30
9.75528E-01 2.01752E-30
9.76858E-01 1.90270E-30
9.78152E-01 1.79168E-30
9.79410E-01 1.68443E-30
9.80631E-01 1.58089E-30
9.81815E-01 1.48103E-30
9.82963E-01 1.38478E-30
9.84074E-01 1.29210E-30
9.85148E-01 1.20296E-30
9.86185E-01 1.11731E-30
9.87185E-01 1.03510E-30
9.88148E-01 9.56310E-31
9.89074E-01 8.80893E-31
9.89962E-01 8.08815E-31
9.90814E-01 7.40045E-31
9.91627E-01 6.74546E-31
9.92404E-01 6.12294E-31
9.93143E-01 5.53256E-31
9.93844E-01 4.97407E-31
9.94508E-01 4.44723E-31
9.95134E-01 3.95171E-31
9.95722E-01 3.48743E-31
9.96273E-01 3.05403E-31
9.96786E-01 2.65142E-31
9.97261E-01 2.27932E-31
9.97698E-01 1.93763E-31
9.98097E-01 1.62617E-31
9.98459E-01 1.34479E-31
9.98782E-01 1.09339E-31
9.99067E-01 8.71831E-32
9.99315E-01 6.80032E-32
9.99524E-01 5.17880E-32
9.99695E-01 3.85314E-32
9.99829E-01 2.82242E-32
9.99924E-01 2.08680E-32
9.99981E-01 1.64545E-32
1.00000E+00 1.49864E-32
