 #
 # Subroutine ELSEPA. Elastic scattering of electrons and positrons
 #                    by neutral atoms and positive ions
 #
 # Projectile: positron
 # Kinetic energy = 3.50000E+06 eV = 1.28623E+05 a.u.
 #
 # WARNING: High-energy factorization with free-atom DF screening.
 #          Absorption, polarization and exchange corrections are
 #          switched off.
 #          Phase shifts are calculated for the bare nucleus.
 #          Scattering amplitudes are not evaluated.
 #
 # Element: Au,  Z =  79,  atomic weight = 1.96967E+02 g/mol
 #
 # Nuclear model: Fermi distribution
 #                Average radius = 6.22560E-13 cm
 #                Skin thickness = 5.46000E-14 cm
 #
 # Number of electrons = 79
 #
 # Total elastic cross section = 7.78775E-18 cm**2 = 2.78106E-01 a0**2
 # 1st transport cross section = 4.43506E-22 cm**2 = 1.58379E-05 a0**2
 # 2nd transport cross section = 1.27009E-21 cm**2 = 4.53556E-05 a0**2
 #
 #
 # Differential cross section:                       MU=(1-COS(THETA))/2
 #
 #  THETA        MU          DCS          DCS        Sherman      error
 #  (deg)                 (cm**2/sr)   (a0**2/sr)    function
 #----------------------------------------------------------------------
0.00000E+00 6.35936E-13
7.61557E-13 6.35933E-13
1.18994E-12 6.35932E-13
1.71346E-12 6.35931E-13
2.33225E-12 6.35929E-13
3.04617E-12 6.35928E-13
3.85530E-12 6.35926E-13
4.75964E-12 6.35924E-13
5.75917E-12 6.35922E-13
6.85391E-12 6.35919E-13
8.04379E-12 6.35917E-13
9.32893E-12 6.35914E-13
1.07092E-11 6.35911E-13
1.21847E-11 6.35908E-13
1.37554E-11 6.35904E-13
1.54213E-11 6.35901E-13
1.71823E-11 6.35897E-13
1.90386E-11 6.35893E-13
2.09900E-11 6.35889E-13
2.30367E-11 6.35884E-13
2.51785E-11 6.35880E-13
2.74156E-11 6.35875E-13
2.97478E-11 6.35870E-13
3.21752E-11 6.35865E-13
3.46979E-11 6.35860E-13
3.73157E-11 6.35854E-13
4.00286E-11 6.35848E-13
4.28368E-11 6.35842E-13
4.57402E-11 6.35836E-13
4.87388E-11 6.35830E-13
5.18325E-11 6.35823E-13
5.50215E-11 6.35817E-13
5.83057E-11 6.35810E-13
6.16850E-11 6.35803E-13
6.51595E-11 6.35795E-13
6.87293E-11 6.35788E-13
7.23943E-11 6.35780E-13
7.61544E-11 6.35772E-13
1.18991E-10 6.35683E-13
1.71347E-10 6.35574E-13
2.33223E-10 6.35446E-13
3.04617E-10 6.35299E-13
3.85531E-10 6.35132E-13
4.75965E-10 6.34946E-13
5.75917E-10 6.34741E-13
6.85389E-10 6.34517E-13
8.04380E-10 6.34273E-13
9.32891E-10 6.34010E-13
1.07092E-09 6.33728E-13
1.21847E-09 6.33427E-13
1.37554E-09 6.33108E-13
1.54213E-09 6.32769E-13
1.71823E-09 6.32411E-13
1.90386E-09 6.32034E-13
2.09900E-09 6.31639E-13
2.30367E-09 6.31225E-13
2.51785E-09 6.30793E-13
2.74156E-09 6.30341E-13
2.97478E-09 6.29872E-13
3.21752E-09 6.29384E-13
3.46978E-09 6.28877E-13
3.73156E-09 6.28353E-13
4.00286E-09 6.27810E-13
4.28368E-09 6.27249E-13
4.57402E-09 6.26671E-13
4.87388E-09 6.26074E-13
5.18326E-09 6.25460E-13
5.50215E-09 6.24828E-13
5.83057E-09 6.24178E-13
6.16850E-09 6.23511E-13
6.51596E-09 6.22827E-13
6.87293E-09 6.22125E-13
7.23942E-09 6.21406E-13
7.61544E-09 6.20671E-13
1.18991E-08 6.12405E-13
1.71347E-08 6.02526E-13
2.33223E-08 5.91329E-13
3.04617E-08 5.78816E-13
3.85531E-08 5.65208E-13
4.75965E-08 5.50757E-13
5.75917E-08 5.35637E-13
6.85389E-08 5.19759E-13
8.04380E-08 5.03542E-13
9.32891E-08 4.87149E-13
1.07092E-07 4.70562E-13
1.21847E-07 4.53858E-13
1.37554E-07 4.37334E-13
1.54213E-07 4.21077E-13
1.71823E-07 4.04886E-13
1.90386E-07 3.89040E-13
2.09900E-07 3.73647E-13
2.30367E-07 3.58685E-13
2.51785E-07 3.43996E-13
2.74156E-07 3.29849E-13
2.97478E-07 3.16249E-13
3.21752E-07 3.03059E-13
3.46978E-07 2.90315E-13
3.73156E-07 2.78124E-13
4.00286E-07 2.66471E-13
4.28368E-07 2.55161E-13
4.57402E-07 2.44359E-13
4.87388E-07 2.34062E-13
5.18325E-07 2.24204E-13
5.50215E-07 2.14703E-13
5.83057E-07 2.05661E-13
6.16850E-07 1.97056E-13
6.51596E-07 1.88787E-13
6.87293E-07 1.80879E-13
7.23942E-07 1.73359E-13
7.61543E-07 1.66206E-13
1.18991E-06 1.09989E-13
1.71347E-06 7.35946E-14
2.33223E-06 5.17357E-14
3.04617E-06 3.68573E-14
3.85531E-06 2.70009E-14
4.75964E-06 2.03146E-14
5.75916E-06 1.56149E-14
6.85388E-06 1.21668E-14
8.04378E-06 9.65481E-15
9.32888E-06 7.77685E-15
1.07092E-05 6.32900E-15
1.21846E-05 5.19554E-15
1.37553E-05 4.30691E-15
1.54212E-05 3.59998E-15
1.71822E-05 3.02331E-15
1.90385E-05 2.55436E-15
2.09899E-05 2.17498E-15
2.30365E-05 1.86156E-15
2.51783E-05 1.59947E-15
2.74153E-05 1.38157E-15
2.97475E-05 1.19933E-15
3.21749E-05 1.04562E-15
3.46974E-05 9.16056E-16
3.73152E-05 8.06112E-16
4.00281E-05 7.12094E-16
4.28362E-05 6.31433E-16
4.57395E-05 5.62169E-16
4.87380E-05 5.02385E-16
5.18317E-05 4.50493E-16
5.50205E-05 4.05185E-16
5.83045E-05 3.65558E-16
6.16838E-05 3.30765E-16
6.51582E-05 3.00026E-16
6.87277E-05 2.72805E-16
7.23925E-05 2.48652E-16
7.61524E-05 2.27148E-16
9.21439E-05 1.61260E-16
1.09658E-04 1.17733E-16
1.28695E-04 8.79647E-17
1.49255E-04 6.69863E-17
1.71338E-04 5.19298E-17
1.94942E-04 4.08572E-17
2.20070E-04 3.25968E-17
2.46720E-04 2.63266E-17
2.74892E-04 2.14795E-17
3.04586E-04 1.76989E-17
3.35803E-04 1.47163E-17
3.68542E-04 1.23352E-17
4.02802E-04 1.04121E-17
4.38585E-04 8.85026E-18
4.75889E-04 7.57076E-18
5.14715E-04 6.51299E-18
5.55063E-04 5.63301E-18
5.96931E-04 4.89700E-18
6.40321E-04 4.27748E-18
6.85233E-04 3.75215E-18
7.31665E-04 3.30517E-18
7.79618E-04 2.92291E-18
8.29092E-04 2.59430E-18
8.80086E-04 2.31039E-18
9.32601E-04 2.06435E-18
9.86636E-04 1.85025E-18
1.04219E-03 1.66308E-18
1.09927E-03 1.49895E-18
1.15786E-03 1.35459E-18
1.21797E-03 1.22721E-18
1.27961E-03 1.11434E-18
1.34276E-03 1.01415E-18
1.40743E-03 9.24965E-19
1.47362E-03 8.45337E-19
1.54133E-03 7.74046E-19
1.61056E-03 7.10105E-19
1.68131E-03 6.52622E-19
1.75357E-03 6.00796E-19
1.82735E-03 5.53993E-19
1.90265E-03 5.11651E-19
1.97947E-03 4.73264E-19
2.05780E-03 4.38377E-19
2.13765E-03 4.06639E-19
2.21902E-03 3.77713E-19
2.30190E-03 3.51297E-19
2.38630E-03 3.27135E-19
2.47222E-03 3.05009E-19
2.55965E-03 2.84715E-19
2.64859E-03 2.66066E-19
2.73905E-03 2.48913E-19
2.83103E-03 2.33115E-19
2.92452E-03 2.18545E-19
3.01952E-03 2.05085E-19
3.11604E-03 1.92643E-19
3.21407E-03 1.81126E-19
3.31362E-03 1.70451E-19
3.41468E-03 1.60546E-19
3.51725E-03 1.51348E-19
3.62133E-03 1.42796E-19
3.72692E-03 1.34835E-19
3.83403E-03 1.27418E-19
3.94265E-03 1.20503E-19
4.05278E-03 1.14047E-19
4.16442E-03 1.08016E-19
4.27757E-03 1.02376E-19
4.39223E-03 9.70976E-20
4.50840E-03 9.21530E-20
4.62608E-03 8.75174E-20
4.74527E-03 8.31685E-20
4.86597E-03 7.90852E-20
4.98817E-03 7.52475E-20
5.11188E-03 7.16387E-20
5.23711E-03 6.82429E-20
5.36383E-03 6.50446E-20
5.49207E-03 6.20304E-20
5.62181E-03 5.91881E-20
5.75306E-03 5.65059E-20
5.88581E-03 5.39729E-20
6.02007E-03 5.15795E-20
6.15583E-03 4.93168E-20
6.29310E-03 4.71761E-20
6.43187E-03 4.51495E-20
6.57214E-03 4.32300E-20
6.71392E-03 4.14110E-20
6.85720E-03 3.96861E-20
7.00198E-03 3.80495E-20
7.14827E-03 3.64960E-20
7.29605E-03 3.50206E-20
7.44534E-03 3.36184E-20
7.59612E-03 3.22854E-20
7.97965E-03 2.92292E-20
8.37255E-03 2.65243E-20
8.77480E-03 2.41234E-20
9.18641E-03 2.19866E-20
9.60736E-03 2.00798E-20
1.00376E-02 1.83741E-20
1.04773E-02 1.68447E-20
1.09262E-02 1.54701E-20
1.13844E-02 1.42320E-20
1.18520E-02 1.31145E-20
1.23288E-02 1.21038E-20
1.28150E-02 1.11880E-20
1.33104E-02 1.03566E-20
1.38150E-02 9.60044E-21
1.43290E-02 8.91154E-21
1.48521E-02 8.28283E-21
1.53845E-02 7.70823E-21
1.59262E-02 7.18224E-21
1.64770E-02 6.69994E-21
1.70371E-02 6.25715E-21
1.76063E-02 5.85006E-21
1.81848E-02 5.47525E-21
1.87724E-02 5.12972E-21
1.93692E-02 4.81079E-21
1.99751E-02 4.51606E-21
2.05901E-02 4.24334E-21
2.12143E-02 3.99071E-21
2.18476E-02 3.75644E-21
2.24900E-02 3.53895E-21
2.31415E-02 3.33681E-21
2.38021E-02 3.14876E-21
2.44717E-02 2.97366E-21
2.51504E-02 2.81043E-21
2.58382E-02 2.65813E-21
2.65349E-02 2.51591E-21
2.72407E-02 2.38298E-21
2.79555E-02 2.25861E-21
2.86793E-02 2.14217E-21
2.94120E-02 2.03306E-21
3.01537E-02 1.93073E-21
3.09043E-02 1.83469E-21
3.16639E-02 1.74448E-21
3.24324E-02 1.65968E-21
3.32098E-02 1.57991E-21
3.39961E-02 1.50483E-21
3.47912E-02 1.43410E-21
3.55952E-02 1.36743E-21
3.64081E-02 1.30454E-21
3.72297E-02 1.24518E-21
3.80602E-02 1.18912E-21
3.88995E-02 1.13614E-21
3.97476E-02 1.08604E-21
4.06044E-02 1.03864E-21
4.14700E-02 9.93761E-22
4.23443E-02 9.51250E-22
4.32273E-02 9.10959E-22
4.41190E-02 8.72752E-22
4.50194E-02 8.36500E-22
4.59284E-02 8.02086E-22
4.68461E-02 7.69400E-22
4.87074E-02 7.08809E-22
5.06030E-02 6.53990E-22
5.25328E-02 6.04298E-22
5.44967E-02 5.59175E-22
5.64946E-02 5.18128E-22
5.85262E-02 4.80727E-22
6.05914E-02 4.46592E-22
6.26901E-02 4.15390E-22
6.48222E-02 3.86826E-22
6.69873E-02 3.60639E-22
6.91854E-02 3.36597E-22
7.14163E-02 3.14495E-22
7.36799E-02 2.94148E-22
7.59760E-02 2.75395E-22
7.83043E-02 2.58088E-22
8.06647E-02 2.42098E-22
8.30571E-02 2.27306E-22
8.54812E-02 2.13607E-22
8.79369E-02 2.00908E-22
9.04240E-02 1.89121E-22
9.29422E-02 1.78171E-22
9.54915E-02 1.67988E-22
9.80716E-02 1.58508E-22
1.00682E-01 1.49676E-22
1.03323E-01 1.41439E-22
1.05995E-01 1.33749E-22
1.08696E-01 1.26566E-22
1.11427E-01 1.19848E-22
1.14188E-01 1.13561E-22
1.16978E-01 1.07673E-22
1.19797E-01 1.02154E-22
1.22645E-01 9.69762E-23
1.25522E-01 9.21155E-23
1.28428E-01 8.75490E-23
1.31361E-01 8.32559E-23
1.34323E-01 7.92168E-23
1.37313E-01 7.54142E-23
1.40330E-01 7.18319E-23
1.43375E-01 6.84548E-23
1.46447E-01 6.52692E-23
1.49545E-01 6.22624E-23
1.52671E-01 5.94225E-23
1.55823E-01 5.67387E-23
1.59001E-01 5.42010E-23
1.62205E-01 5.18000E-23
1.65435E-01 4.95270E-23
1.68690E-01 4.73742E-23
1.71970E-01 4.53340E-23
1.75276E-01 4.33994E-23
1.78606E-01 4.15642E-23
1.81961E-01 3.98224E-23
1.85340E-01 3.81681E-23
1.88743E-01 3.65965E-23
1.92169E-01 3.51027E-23
1.95619E-01 3.36821E-23
1.99092E-01 3.23304E-23
2.02589E-01 3.10439E-23
2.06107E-01 2.98188E-23
2.09649E-01 2.86516E-23
2.13212E-01 2.75392E-23
2.16797E-01 2.64786E-23
2.20404E-01 2.54668E-23
2.24032E-01 2.45014E-23
2.27680E-01 2.35797E-23
2.31350E-01 2.26995E-23
2.35040E-01 2.18586E-23
2.38751E-01 2.10549E-23
2.42481E-01 2.02865E-23
2.46231E-01 1.95516E-23
2.50000E-01 1.88484E-23
2.53788E-01 1.81754E-23
2.57595E-01 1.75311E-23
2.61421E-01 1.69139E-23
2.65264E-01 1.63227E-23
2.69126E-01 1.57560E-23
2.73005E-01 1.52128E-23
2.76901E-01 1.46918E-23
2.80814E-01 1.41920E-23
2.84744E-01 1.37123E-23
2.88691E-01 1.32520E-23
2.92653E-01 1.28099E-23
2.96632E-01 1.23853E-23
3.00625E-01 1.19774E-23
3.04634E-01 1.15854E-23
3.08658E-01 1.12086E-23
3.12697E-01 1.08463E-23
3.16749E-01 1.04978E-23
3.20816E-01 1.01625E-23
3.24896E-01 9.83984E-24
3.28990E-01 9.52927E-24
3.33097E-01 9.23024E-24
3.37216E-01 8.94225E-24
3.41348E-01 8.66483E-24
3.45492E-01 8.39753E-24
3.49647E-01 8.13991E-24
3.53814E-01 7.89156E-24
3.57992E-01 7.65209E-24
3.62181E-01 7.42114E-24
3.66381E-01 7.19834E-24
3.70590E-01 6.98336E-24
3.74810E-01 6.77588E-24
3.79039E-01 6.57560E-24
3.83277E-01 6.38222E-24
3.87524E-01 6.19547E-24
3.91780E-01 6.01508E-24
3.96044E-01 5.84079E-24
4.00316E-01 5.67237E-24
4.04596E-01 5.50959E-24
4.08882E-01 5.35222E-24
4.13176E-01 5.20006E-24
4.17476E-01 5.05290E-24
4.21783E-01 4.91055E-24
4.26095E-01 4.77283E-24
4.30413E-01 4.63957E-24
4.34737E-01 4.51059E-24
4.39065E-01 4.38574E-24
4.43398E-01 4.26486E-24
4.47736E-01 4.14781E-24
4.52077E-01 4.03444E-24
4.56422E-01 3.92461E-24
4.60770E-01 3.81821E-24
4.65122E-01 3.71509E-24
4.69476E-01 3.61516E-24
4.73832E-01 3.51829E-24
4.78190E-01 3.42437E-24
4.82550E-01 3.33330E-24
4.86912E-01 3.24498E-24
4.91274E-01 3.15931E-24
4.95637E-01 3.07621E-24
5.00000E-01 2.99557E-24
5.04363E-01 2.91731E-24
5.08726E-01 2.84136E-24
5.13088E-01 2.76764E-24
5.17450E-01 2.69606E-24
5.21810E-01 2.62656E-24
5.26168E-01 2.55907E-24
5.30524E-01 2.49351E-24
5.34878E-01 2.42983E-24
5.39230E-01 2.36797E-24
5.43578E-01 2.30785E-24
5.47923E-01 2.24944E-24
5.52264E-01 2.19266E-24
5.56602E-01 2.13747E-24
5.60935E-01 2.08381E-24
5.65263E-01 2.03165E-24
5.69587E-01 1.98091E-24
5.73905E-01 1.93158E-24
5.78217E-01 1.88359E-24
5.82524E-01 1.83690E-24
5.86824E-01 1.79149E-24
5.91118E-01 1.74729E-24
5.95404E-01 1.70429E-24
5.99684E-01 1.66244E-24
6.03956E-01 1.62170E-24
6.08220E-01 1.58205E-24
6.12476E-01 1.54344E-24
6.16723E-01 1.50585E-24
6.20961E-01 1.46924E-24
6.25190E-01 1.43359E-24
6.29410E-01 1.39886E-24
6.33619E-01 1.36504E-24
6.37819E-01 1.33209E-24
6.42008E-01 1.29998E-24
6.46186E-01 1.26870E-24
6.50353E-01 1.23822E-24
6.54508E-01 1.20852E-24
6.58652E-01 1.17956E-24
6.62784E-01 1.15134E-24
6.66903E-01 1.12382E-24
6.71010E-01 1.09699E-24
6.75104E-01 1.07083E-24
6.79184E-01 1.04533E-24
6.83251E-01 1.02046E-24
6.87303E-01 9.96199E-25
6.91342E-01 9.72540E-25
6.95366E-01 9.49461E-25
6.99375E-01 9.26946E-25
7.03368E-01 9.04981E-25
7.07347E-01 8.83548E-25
7.11309E-01 8.62635E-25
7.15256E-01 8.42227E-25
7.19186E-01 8.22310E-25
7.23099E-01 8.02872E-25
7.26995E-01 7.83899E-25
7.30874E-01 7.65378E-25
7.34736E-01 7.47299E-25
7.38579E-01 7.29649E-25
7.42405E-01 7.12417E-25
7.46212E-01 6.95591E-25
7.50000E-01 6.79162E-25
7.53769E-01 6.63118E-25
7.57519E-01 6.47450E-25
7.61249E-01 6.32148E-25
7.64960E-01 6.17202E-25
7.68650E-01 6.02603E-25
7.72320E-01 5.88344E-25
7.75968E-01 5.74414E-25
7.79596E-01 5.60805E-25
7.83203E-01 5.47511E-25
7.86788E-01 5.34521E-25
7.90351E-01 5.21830E-25
7.93893E-01 5.09430E-25
7.97411E-01 4.97313E-25
8.00908E-01 4.85473E-25
8.04381E-01 4.73902E-25
8.07831E-01 4.62595E-25
8.11257E-01 4.51544E-25
8.14660E-01 4.40744E-25
8.18039E-01 4.30188E-25
8.21394E-01 4.19871E-25
8.24724E-01 4.09787E-25
8.28030E-01 3.99930E-25
8.31310E-01 3.90296E-25
8.34565E-01 3.80878E-25
8.37795E-01 3.71673E-25
8.40999E-01 3.62674E-25
8.44177E-01 3.53877E-25
8.47329E-01 3.45278E-25
8.50455E-01 3.36872E-25
8.53553E-01 3.28654E-25
8.56625E-01 3.20621E-25
8.59670E-01 3.12768E-25
8.62687E-01 3.05091E-25
8.65677E-01 2.97586E-25
8.68639E-01 2.90250E-25
8.71572E-01 2.83079E-25
8.74478E-01 2.76068E-25
8.77355E-01 2.69216E-25
8.80203E-01 2.62517E-25
8.83022E-01 2.55970E-25
8.85812E-01 2.49570E-25
8.88573E-01 2.43314E-25
8.91304E-01 2.37200E-25
8.94005E-01 2.31225E-25
8.96677E-01 2.25386E-25
8.99318E-01 2.19679E-25
9.01928E-01 2.14102E-25
9.04508E-01 2.08653E-25
9.07058E-01 2.03329E-25
9.09576E-01 1.98128E-25
9.12063E-01 1.93046E-25
9.14519E-01 1.88082E-25
9.16943E-01 1.83233E-25
9.19335E-01 1.78498E-25
9.21696E-01 1.73873E-25
9.24024E-01 1.69357E-25
9.26320E-01 1.64948E-25
9.28584E-01 1.60644E-25
9.30815E-01 1.56442E-25
9.33013E-01 1.52341E-25
9.35178E-01 1.48340E-25
9.37310E-01 1.44436E-25
9.39409E-01 1.40627E-25
9.41474E-01 1.36912E-25
9.43505E-01 1.33289E-25
9.45503E-01 1.29757E-25
9.47467E-01 1.26314E-25
9.49397E-01 1.22958E-25
9.51293E-01 1.19689E-25
9.53154E-01 1.16504E-25
9.54981E-01 1.13403E-25
9.56773E-01 1.10384E-25
9.58530E-01 1.07445E-25
9.60252E-01 1.04586E-25
9.61940E-01 1.01805E-25
9.63592E-01 9.91007E-26
9.65209E-01 9.64726E-26
9.66790E-01 9.39193E-26
9.68336E-01 9.14397E-26
9.69846E-01 8.90328E-26
9.71321E-01 8.66976E-26
9.72759E-01 8.44330E-26
9.74162E-01 8.22383E-26
9.75528E-01 8.01123E-26
9.76858E-01 7.80543E-26
9.78152E-01 7.60634E-26
9.79410E-01 7.41388E-26
9.80631E-01 7.22797E-26
9.81815E-01 7.04854E-26
9.82963E-01 6.87550E-26
9.84074E-01 6.70880E-26
9.85148E-01 6.54836E-26
9.86185E-01 6.39411E-26
9.87185E-01 6.24600E-26
9.88148E-01 6.10396E-26
9.89074E-01 5.96794E-26
9.89962E-01 5.83788E-26
9.90814E-01 5.71373E-26
9.91627E-01 5.59544E-26
9.92404E-01 5.48296E-26
9.93143E-01 5.37625E-26
9.93844E-01 5.27527E-26
9.94508E-01 5.17997E-26
9.95134E-01 5.09031E-26
9.95722E-01 5.00627E-26
9.96273E-01 4.92780E-26
9.96786E-01 4.85488E-26
9.97261E-01 4.78747E-26
9.97698E-01 4.72556E-26
9.98097E-01 4.66911E-26
9.98459E-01 4.61810E-26
9.98782E-01 4.57252E-26
9.99067E-01 4.53234E-26
9.99315E-01 4.49755E-26
9.99524E-01 4.46814E-26
9.99695E-01 4.44409E-26
9.99829E-01 4.42539E-26
9.99924E-01 4.41205E-26
9.99981E-01 4.40404E-26
1.00000E+00 4.40137E-26
