 #
 # Subroutine ELSEPA. Elastic scattering of electrons and positrons
 #                    by neutral atoms and positive ions
 #
 # Projectile: positron
 # Kinetic energy = 3.00000E+06 eV = 1.10248E+05 a.u.
 #
 # WARNING: High-energy factorization with free-atom DF screening.
 #          Absorption, polarization and exchange corrections are
 #          switched off.
 #          Phase shifts are calculated for the bare nucleus.
 #          Scattering amplitudes are not evaluated.
 #
 # Element: Au,  Z =  79,  atomic weight = 1.96967E+02 g/mol
 #
 # Nuclear model: Fermi distribution
 #                Average radius = 6.22560E-13 cm
 #                Skin thickness = 5.46000E-14 cm
 #
 # Number of electrons = 79
 #
 # Total elastic cross section = 7.82541E-18 cm**2 = 2.79450E-01 a0**2
 # 1st transport cross section = 5.66982E-22 cm**2 = 2.02473E-05 a0**2
 # 2nd transport cross section = 1.62057E-21 cm**2 = 5.78717E-05 a0**2
 #
 #
 # Differential cross section:                       MU=(1-COS(THETA))/2
 #
 #  THETA        MU          DCS          DCS        Sherman      error
 #  (deg)                 (cm**2/sr)   (a0**2/sr)    function
 #----------------------------------------------------------------------
0.00000E+00 4.87270E-13
7.61557E-13 4.87268E-13
1.18994E-12 4.87268E-13
1.71346E-12 4.87267E-13
2.33225E-12 4.87266E-13
3.04617E-12 4.87265E-13
3.85530E-12 4.87264E-13
4.75964E-12 4.87263E-13
5.75917E-12 4.87261E-13
6.85391E-12 4.87260E-13
8.04379E-12 4.87258E-13
9.32893E-12 4.87257E-13
1.07092E-11 4.87255E-13
1.21847E-11 4.87253E-13
1.37554E-11 4.87251E-13
1.54213E-11 4.87249E-13
1.71823E-11 4.87247E-13
1.90386E-11 4.87244E-13
2.09900E-11 4.87242E-13
2.30367E-11 4.87239E-13
2.51785E-11 4.87236E-13
2.74156E-11 4.87234E-13
2.97478E-11 4.87231E-13
3.21752E-11 4.87228E-13
3.46979E-11 4.87225E-13
3.73157E-11 4.87221E-13
4.00286E-11 4.87218E-13
4.28368E-11 4.87214E-13
4.57402E-11 4.87211E-13
4.87388E-11 4.87207E-13
5.18325E-11 4.87203E-13
5.50215E-11 4.87199E-13
5.83057E-11 4.87195E-13
6.16850E-11 4.87191E-13
6.51595E-11 4.87187E-13
6.87293E-11 4.87182E-13
7.23943E-11 4.87178E-13
7.61544E-11 4.87173E-13
1.18991E-10 4.87121E-13
1.71347E-10 4.87057E-13
2.33223E-10 4.86982E-13
3.04617E-10 4.86896E-13
3.85531E-10 4.86798E-13
4.75965E-10 4.86689E-13
5.75917E-10 4.86569E-13
6.85389E-10 4.86437E-13
8.04380E-10 4.86294E-13
9.32891E-10 4.86140E-13
1.07092E-09 4.85975E-13
1.21847E-09 4.85799E-13
1.37554E-09 4.85611E-13
1.54213E-09 4.85413E-13
1.71823E-09 4.85203E-13
1.90386E-09 4.84982E-13
2.09900E-09 4.84750E-13
2.30367E-09 4.84508E-13
2.51785E-09 4.84254E-13
2.74156E-09 4.83989E-13
2.97478E-09 4.83713E-13
3.21752E-09 4.83427E-13
3.46978E-09 4.83129E-13
3.73156E-09 4.82821E-13
4.00286E-09 4.82502E-13
4.28368E-09 4.82172E-13
4.57402E-09 4.81832E-13
4.87388E-09 4.81481E-13
5.18326E-09 4.81119E-13
5.50215E-09 4.80747E-13
5.83057E-09 4.80364E-13
6.16850E-09 4.79971E-13
6.51596E-09 4.79567E-13
6.87293E-09 4.79153E-13
7.23942E-09 4.78729E-13
7.61544E-09 4.78294E-13
1.18991E-08 4.73397E-13
1.71347E-08 4.67541E-13
2.33223E-08 4.60748E-13
3.04617E-08 4.53221E-13
3.85531E-08 4.44890E-13
4.75965E-08 4.35941E-13
5.75917E-08 4.26511E-13
6.85389E-08 4.16471E-13
8.04380E-08 4.06145E-13
9.32891E-08 3.95525E-13
1.07092E-07 3.84594E-13
1.21847E-07 3.73638E-13
1.37554E-07 3.62504E-13
1.54213E-07 3.51351E-13
1.71823E-07 3.40362E-13
1.90386E-07 3.29258E-13
2.09900E-07 3.18379E-13
2.30367E-07 3.07716E-13
2.51785E-07 2.97096E-13
2.74156E-07 2.86813E-13
2.97478E-07 2.76731E-13
3.21752E-07 2.66852E-13
3.46978E-07 2.57347E-13
3.73156E-07 2.48005E-13
4.00286E-07 2.38977E-13
4.28368E-07 2.30320E-13
4.57402E-07 2.21794E-13
4.87388E-07 2.13644E-13
5.18325E-07 2.05788E-13
5.50215E-07 1.98141E-13
5.83057E-07 1.90843E-13
6.16850E-07 1.83773E-13
6.51596E-07 1.76956E-13
6.87293E-07 1.70458E-13
7.23942E-07 1.64129E-13
7.61543E-07 1.58078E-13
1.18991E-06 1.09207E-13
1.71347E-06 7.66244E-14
2.33223E-06 5.40214E-14
3.04617E-06 3.98552E-14
3.85531E-06 2.95129E-14
4.75964E-06 2.24427E-14
5.75916E-06 1.74281E-14
6.85388E-06 1.36612E-14
8.04378E-06 1.09248E-14
9.32888E-06 8.84803E-15
1.07092E-05 7.23629E-15
1.21846E-05 5.99531E-15
1.37553E-05 5.00006E-15
1.54212E-05 4.20342E-15
1.71822E-05 3.56460E-15
1.90385E-05 3.02972E-15
2.09899E-05 2.59672E-15
2.30365E-05 2.23721E-15
2.51783E-05 1.93252E-15
2.74153E-05 1.67837E-15
2.97475E-05 1.46276E-15
3.21749E-05 1.27960E-15
3.46974E-05 1.12474E-15
3.73152E-05 9.91668E-16
4.00281E-05 8.77910E-16
4.28362E-05 7.80295E-16
4.57395E-05 6.95625E-16
4.87380E-05 6.22221E-16
5.18317E-05 5.58010E-16
5.50205E-05 5.01857E-16
5.83045E-05 4.52818E-16
6.16838E-05 4.09715E-16
6.51582E-05 3.71749E-16
6.87277E-05 3.38256E-16
7.23925E-05 3.08469E-16
7.61524E-05 2.81980E-16
9.21439E-05 2.00866E-16
1.09658E-04 1.47037E-16
1.28695E-04 1.10206E-16
1.49255E-04 8.42491E-17
1.71338E-04 6.55088E-17
1.94942E-04 5.16621E-17
2.20070E-04 4.12932E-17
2.46720E-04 3.34047E-17
2.74892E-04 2.73303E-17
3.04586E-04 2.25495E-17
3.35803E-04 1.87792E-17
3.68542E-04 1.57665E-17
4.02802E-04 1.33262E-17
4.38585E-04 1.13441E-17
4.75889E-04 9.71476E-18
5.14715E-04 8.36612E-18
5.55063E-04 7.24491E-18
5.96931E-04 6.30308E-18
6.40321E-04 5.50961E-18
6.85233E-04 4.83765E-18
7.31665E-04 4.26360E-18
7.79618E-04 3.77272E-18
8.29092E-04 3.35042E-18
8.80086E-04 2.98517E-18
9.32601E-04 2.66863E-18
9.86636E-04 2.39274E-18
1.04219E-03 2.15154E-18
1.09927E-03 1.94014E-18
1.15786E-03 1.75383E-18
1.21797E-03 1.58943E-18
1.27961E-03 1.44389E-18
1.34276E-03 1.31448E-18
1.40743E-03 1.19932E-18
1.47362E-03 1.09646E-18
1.54133E-03 1.00434E-18
1.61056E-03 9.21724E-19
1.68131E-03 8.47371E-19
1.75357E-03 7.80354E-19
1.82735E-03 7.19845E-19
1.90265E-03 6.65023E-19
1.97947E-03 6.15328E-19
2.05780E-03 5.70180E-19
2.13765E-03 5.29059E-19
2.21902E-03 4.91583E-19
2.30190E-03 4.57345E-19
2.38630E-03 4.26019E-19
2.47222E-03 3.97330E-19
2.55965E-03 3.70990E-19
2.64859E-03 3.46791E-19
2.73905E-03 3.24530E-19
2.83103E-03 3.04005E-19
2.92452E-03 2.85077E-19
3.01952E-03 2.67590E-19
3.11604E-03 2.51413E-19
3.21407E-03 2.36438E-19
3.31362E-03 2.22552E-19
3.41468E-03 2.09664E-19
3.51725E-03 1.97695E-19
3.62133E-03 1.86557E-19
3.72692E-03 1.76191E-19
3.83403E-03 1.66532E-19
3.94265E-03 1.57519E-19
4.05278E-03 1.49106E-19
4.16442E-03 1.41243E-19
4.27757E-03 1.33888E-19
4.39223E-03 1.27005E-19
4.50840E-03 1.20554E-19
4.62608E-03 1.14506E-19
4.74527E-03 1.08830E-19
4.86597E-03 1.03499E-19
4.98817E-03 9.84889E-20
5.11188E-03 9.37766E-20
5.23711E-03 8.93406E-20
5.36383E-03 8.51630E-20
5.49207E-03 8.12248E-20
5.62181E-03 7.75103E-20
5.75306E-03 7.40050E-20
5.88581E-03 7.06938E-20
6.02007E-03 6.75649E-20
6.15583E-03 6.46064E-20
6.29310E-03 6.18067E-20
6.43187E-03 5.91564E-20
6.57214E-03 5.66458E-20
6.71392E-03 5.42660E-20
6.85720E-03 5.20095E-20
7.00198E-03 4.98680E-20
7.14827E-03 4.78351E-20
7.29605E-03 4.59043E-20
7.44534E-03 4.40690E-20
7.59612E-03 4.23241E-20
7.97965E-03 3.83231E-20
8.37255E-03 3.47812E-20
8.77480E-03 3.16370E-20
9.18641E-03 2.88380E-20
9.60736E-03 2.63401E-20
1.00376E-02 2.41052E-20
1.04773E-02 2.21009E-20
1.09262E-02 2.02994E-20
1.13844E-02 1.86766E-20
1.18520E-02 1.72118E-20
1.23288E-02 1.58868E-20
1.28150E-02 1.46861E-20
1.33104E-02 1.35959E-20
1.38150E-02 1.26043E-20
1.43290E-02 1.17008E-20
1.48521E-02 1.08763E-20
1.53845E-02 1.01226E-20
1.59262E-02 9.43252E-21
1.64770E-02 8.79985E-21
1.70371E-02 8.21892E-21
1.76063E-02 7.68476E-21
1.81848E-02 7.19295E-21
1.87724E-02 6.73953E-21
1.93692E-02 6.32094E-21
1.99751E-02 5.93414E-21
2.05901E-02 5.57617E-21
2.12143E-02 5.24457E-21
2.18476E-02 4.93705E-21
2.24900E-02 4.65150E-21
2.31415E-02 4.38614E-21
2.38021E-02 4.13924E-21
2.44717E-02 3.90930E-21
2.51504E-02 3.69497E-21
2.58382E-02 3.49497E-21
2.65349E-02 3.30818E-21
2.72407E-02 3.13360E-21
2.79555E-02 2.97024E-21
2.86793E-02 2.81729E-21
2.94120E-02 2.67396E-21
3.01537E-02 2.53952E-21
3.09043E-02 2.41334E-21
3.16639E-02 2.29481E-21
3.24324E-02 2.18339E-21
3.32098E-02 2.07858E-21
3.39961E-02 1.97991E-21
3.47912E-02 1.88696E-21
3.55952E-02 1.79933E-21
3.64081E-02 1.71667E-21
3.72297E-02 1.63865E-21
3.80602E-02 1.56496E-21
3.88995E-02 1.49532E-21
3.97476E-02 1.42946E-21
4.06044E-02 1.36713E-21
4.14700E-02 1.30813E-21
4.23443E-02 1.25224E-21
4.32273E-02 1.19926E-21
4.41190E-02 1.14902E-21
4.50194E-02 1.10134E-21
4.59284E-02 1.05608E-21
4.68461E-02 1.01310E-21
4.87074E-02 9.33404E-22
5.06030E-02 8.61294E-22
5.25328E-02 7.95925E-22
5.44967E-02 7.36559E-22
5.64946E-02 6.82550E-22
5.85262E-02 6.33334E-22
6.05914E-02 5.88413E-22
6.26901E-02 5.47348E-22
6.48222E-02 5.09752E-22
6.69873E-02 4.75280E-22
6.91854E-02 4.43631E-22
7.14163E-02 4.14533E-22
7.36799E-02 3.87744E-22
7.59760E-02 3.63051E-22
7.83043E-02 3.40261E-22
8.06647E-02 3.19203E-22
8.30571E-02 2.99722E-22
8.54812E-02 2.81679E-22
8.79369E-02 2.64951E-22
9.04240E-02 2.49425E-22
9.29422E-02 2.35000E-22
9.54915E-02 2.21584E-22
9.80716E-02 2.09095E-22
1.00682E-01 1.97457E-22
1.03323E-01 1.86603E-22
1.05995E-01 1.76470E-22
1.08696E-01 1.67003E-22
1.11427E-01 1.58150E-22
1.14188E-01 1.49864E-22
1.16978E-01 1.42103E-22
1.19797E-01 1.34827E-22
1.22645E-01 1.28002E-22
1.25522E-01 1.21594E-22
1.28428E-01 1.15574E-22
1.31361E-01 1.09914E-22
1.34323E-01 1.04588E-22
1.37313E-01 9.95741E-23
1.40330E-01 9.48503E-23
1.43375E-01 9.03969E-23
1.46447E-01 8.61960E-23
1.49545E-01 8.22304E-23
1.52671E-01 7.84849E-23
1.55823E-01 7.49451E-23
1.59001E-01 7.15978E-23
1.62205E-01 6.84307E-23
1.65435E-01 6.54323E-23
1.68690E-01 6.25922E-23
1.71970E-01 5.99006E-23
1.75276E-01 5.73483E-23
1.78606E-01 5.49270E-23
1.81961E-01 5.26286E-23
1.85340E-01 5.04459E-23
1.88743E-01 4.83721E-23
1.92169E-01 4.64007E-23
1.95619E-01 4.45259E-23
1.99092E-01 4.27421E-23
2.02589E-01 4.10441E-23
2.06107E-01 3.94271E-23
2.09649E-01 3.78866E-23
2.13212E-01 3.64182E-23
2.16797E-01 3.50181E-23
2.20404E-01 3.36825E-23
2.24032E-01 3.24080E-23
2.27680E-01 3.11912E-23
2.31350E-01 3.00291E-23
2.35040E-01 2.89188E-23
2.38751E-01 2.78577E-23
2.42481E-01 2.68430E-23
2.46231E-01 2.58726E-23
2.50000E-01 2.49440E-23
2.53788E-01 2.40553E-23
2.57595E-01 2.32043E-23
2.61421E-01 2.23892E-23
2.65264E-01 2.16083E-23
2.69126E-01 2.08599E-23
2.73005E-01 2.01423E-23
2.76901E-01 1.94541E-23
2.80814E-01 1.87938E-23
2.84744E-01 1.81602E-23
2.88691E-01 1.75520E-23
2.92653E-01 1.69680E-23
2.96632E-01 1.64071E-23
3.00625E-01 1.58681E-23
3.04634E-01 1.53501E-23
3.08658E-01 1.48522E-23
3.12697E-01 1.43734E-23
3.16749E-01 1.39129E-23
3.20816E-01 1.34698E-23
3.24896E-01 1.30433E-23
3.28990E-01 1.26329E-23
3.33097E-01 1.22376E-23
3.37216E-01 1.18570E-23
3.41348E-01 1.14903E-23
3.45492E-01 1.11369E-23
3.49647E-01 1.07964E-23
3.53814E-01 1.04680E-23
3.57992E-01 1.01514E-23
3.62181E-01 9.84609E-24
3.66381E-01 9.55151E-24
3.70590E-01 9.26725E-24
3.74810E-01 8.99291E-24
3.79039E-01 8.72806E-24
3.83277E-01 8.47233E-24
3.87524E-01 8.22536E-24
3.91780E-01 7.98678E-24
3.96044E-01 7.75628E-24
4.00316E-01 7.53352E-24
4.04596E-01 7.31820E-24
4.08882E-01 7.11004E-24
4.13176E-01 6.90875E-24
4.17476E-01 6.71408E-24
4.21783E-01 6.52576E-24
4.26095E-01 6.34356E-24
4.30413E-01 6.16725E-24
4.34737E-01 5.99659E-24
4.39065E-01 5.83139E-24
4.43398E-01 5.67144E-24
4.47736E-01 5.51654E-24
4.52077E-01 5.36650E-24
4.56422E-01 5.22116E-24
4.60770E-01 5.08033E-24
4.65122E-01 4.94386E-24
4.69476E-01 4.81159E-24
4.73832E-01 4.68336E-24
4.78190E-01 4.55904E-24
4.82550E-01 4.43848E-24
4.86912E-01 4.32155E-24
4.91274E-01 4.20813E-24
4.95637E-01 4.09810E-24
5.00000E-01 3.99133E-24
5.04363E-01 3.88771E-24
5.08726E-01 3.78714E-24
5.13088E-01 3.68951E-24
5.17450E-01 3.59472E-24
5.21810E-01 3.50268E-24
5.26168E-01 3.41329E-24
5.30524E-01 3.32646E-24
5.34878E-01 3.24212E-24
5.39230E-01 3.16017E-24
5.43578E-01 3.08053E-24
5.47923E-01 3.00314E-24
5.52264E-01 2.92792E-24
5.56602E-01 2.85480E-24
5.60935E-01 2.78371E-24
5.65263E-01 2.71458E-24
5.69587E-01 2.64736E-24
5.73905E-01 2.58198E-24
5.78217E-01 2.51839E-24
5.82524E-01 2.45652E-24
5.86824E-01 2.39633E-24
5.91118E-01 2.33775E-24
5.95404E-01 2.28075E-24
5.99684E-01 2.22527E-24
6.03956E-01 2.17127E-24
6.08220E-01 2.11869E-24
6.12476E-01 2.06751E-24
6.16723E-01 2.01767E-24
6.20961E-01 1.96913E-24
6.25190E-01 1.92186E-24
6.29410E-01 1.87581E-24
6.33619E-01 1.83096E-24
6.37819E-01 1.78726E-24
6.42008E-01 1.74468E-24
6.46186E-01 1.70320E-24
6.50353E-01 1.66276E-24
6.54508E-01 1.62336E-24
6.58652E-01 1.58495E-24
6.62784E-01 1.54750E-24
6.66903E-01 1.51100E-24
6.71010E-01 1.47541E-24
6.75104E-01 1.44071E-24
6.79184E-01 1.40686E-24
6.83251E-01 1.37386E-24
6.87303E-01 1.34167E-24
6.91342E-01 1.31027E-24
6.95366E-01 1.27963E-24
6.99375E-01 1.24975E-24
7.03368E-01 1.22060E-24
7.07347E-01 1.19215E-24
7.11309E-01 1.16439E-24
7.15256E-01 1.13730E-24
7.19186E-01 1.11085E-24
7.23099E-01 1.08505E-24
7.26995E-01 1.05986E-24
7.30874E-01 1.03527E-24
7.34736E-01 1.01126E-24
7.38579E-01 9.87819E-25
7.42405E-01 9.64933E-25
7.46212E-01 9.42586E-25
7.50000E-01 9.20764E-25
7.53769E-01 8.99454E-25
7.57519E-01 8.78641E-25
7.61249E-01 8.58313E-25
7.64960E-01 8.38458E-25
7.68650E-01 8.19063E-25
7.72320E-01 8.00118E-25
7.75968E-01 7.81609E-25
7.79596E-01 7.63528E-25
7.83203E-01 7.45862E-25
7.86788E-01 7.28601E-25
7.90351E-01 7.11735E-25
7.93893E-01 6.95255E-25
7.97411E-01 6.79150E-25
8.00908E-01 6.63412E-25
8.04381E-01 6.48031E-25
8.07831E-01 6.33000E-25
8.11257E-01 6.18308E-25
8.14660E-01 6.03949E-25
8.18039E-01 5.89914E-25
8.21394E-01 5.76196E-25
8.24724E-01 5.62787E-25
8.28030E-01 5.49680E-25
8.31310E-01 5.36867E-25
8.34565E-01 5.24343E-25
8.37795E-01 5.12099E-25
8.40999E-01 5.00130E-25
8.44177E-01 4.88430E-25
8.47329E-01 4.76992E-25
8.50455E-01 4.65810E-25
8.53553E-01 4.54878E-25
8.56625E-01 4.44191E-25
8.59670E-01 4.33743E-25
8.62687E-01 4.23529E-25
8.65677E-01 4.13543E-25
8.68639E-01 4.03781E-25
8.71572E-01 3.94237E-25
8.74478E-01 3.84907E-25
8.77355E-01 3.75787E-25
8.80203E-01 3.66871E-25
8.83022E-01 3.58156E-25
8.85812E-01 3.49637E-25
8.88573E-01 3.41310E-25
8.91304E-01 3.33172E-25
8.94005E-01 3.25217E-25
8.96677E-01 3.17443E-25
8.99318E-01 3.09845E-25
9.01928E-01 3.02420E-25
9.04508E-01 2.95165E-25
9.07058E-01 2.88075E-25
9.09576E-01 2.81149E-25
9.12063E-01 2.74382E-25
9.14519E-01 2.67771E-25
9.16943E-01 2.61313E-25
9.19335E-01 2.55006E-25
9.21696E-01 2.48846E-25
9.24024E-01 2.42831E-25
9.26320E-01 2.36958E-25
9.28584E-01 2.31224E-25
9.30815E-01 2.25626E-25
9.33013E-01 2.20163E-25
9.35178E-01 2.14832E-25
9.37310E-01 2.09630E-25
9.39409E-01 2.04555E-25
9.41474E-01 1.99604E-25
9.43505E-01 1.94777E-25
9.45503E-01 1.90070E-25
9.47467E-01 1.85482E-25
9.49397E-01 1.81010E-25
9.51293E-01 1.76653E-25
9.53154E-01 1.72408E-25
9.54981E-01 1.68275E-25
9.56773E-01 1.64250E-25
9.58530E-01 1.60333E-25
9.60252E-01 1.56522E-25
9.61940E-01 1.52815E-25
9.63592E-01 1.49210E-25
9.65209E-01 1.45707E-25
9.66790E-01 1.42303E-25
9.68336E-01 1.38997E-25
9.69846E-01 1.35788E-25
9.71321E-01 1.32675E-25
9.72759E-01 1.29655E-25
9.74162E-01 1.26729E-25
9.75528E-01 1.23894E-25
9.76858E-01 1.21150E-25
9.78152E-01 1.18495E-25
9.79410E-01 1.15929E-25
9.80631E-01 1.13450E-25
9.81815E-01 1.11057E-25
9.82963E-01 1.08749E-25
9.84074E-01 1.06526E-25
9.85148E-01 1.04386E-25
9.86185E-01 1.02329E-25
9.87185E-01 1.00354E-25
9.88148E-01 9.84593E-26
9.89074E-01 9.66451E-26
9.89962E-01 9.49104E-26
9.90814E-01 9.32544E-26
9.91627E-01 9.16766E-26
9.92404E-01 9.01763E-26
9.93143E-01 8.87529E-26
9.93844E-01 8.74059E-26
9.94508E-01 8.61346E-26
9.95134E-01 8.49386E-26
9.95722E-01 8.38175E-26
9.96273E-01 8.27708E-26
9.96786E-01 8.17980E-26
9.97261E-01 8.08988E-26
9.97698E-01 8.00728E-26
9.98097E-01 7.93198E-26
9.98459E-01 7.86393E-26
9.98782E-01 7.80312E-26
9.99067E-01 7.74952E-26
9.99315E-01 7.70311E-26
9.99524E-01 7.66387E-26
9.99695E-01 7.63178E-26
9.99829E-01 7.60684E-26
9.99924E-01 7.58903E-26
9.99981E-01 7.57835E-26
1.00000E+00 7.57479E-26
