 #
 # Subroutine ELSEPA. Elastic scattering of electrons and positrons
 #                    by neutral atoms and positive ions
 #
 # Projectile: positron
 # Kinetic energy = 1.75000E+07 eV = 6.43113E+05 a.u.
 #
 # WARNING: High-energy factorization with free-atom DF screening.
 #          Absorption, polarization and exchange corrections are
 #          switched off.
 #          Phase shifts are calculated for the bare nucleus.
 #          Scattering amplitudes are not evaluated.
 #
 # Element: Au,  Z =  79,  atomic weight = 1.96967E+02 g/mol
 #
 # Nuclear model: Fermi distribution
 #                Average radius = 6.22560E-13 cm
 #                Skin thickness = 5.46000E-14 cm
 #
 # Number of electrons = 79
 #
 # Total elastic cross section = 7.67927E-18 cm**2 = 2.74232E-01 a0**2
 # 1st transport cross section = 2.86882E-23 cm**2 = 1.02448E-06 a0**2
 # 2nd transport cross section = 8.33240E-23 cm**2 = 2.97556E-06 a0**2
 #
 #
 # Differential cross section:                       MU=(1-COS(THETA))/2
 #
 #  THETA        MU          DCS          DCS        Sherman      error
 #  (deg)                 (cm**2/sr)   (a0**2/sr)    function
 #----------------------------------------------------------------------
0.00000E+00 1.28228E-11
7.61557E-13 1.28221E-11
1.18994E-12 1.28218E-11
1.71346E-12 1.28213E-11
2.33225E-12 1.28208E-11
3.04617E-12 1.28202E-11
3.85530E-12 1.28195E-11
4.75964E-12 1.28187E-11
5.75917E-12 1.28179E-11
6.85391E-12 1.28169E-11
8.04379E-12 1.28159E-11
9.32893E-12 1.28148E-11
1.07092E-11 1.28137E-11
1.21847E-11 1.28124E-11
1.37554E-11 1.28111E-11
1.54213E-11 1.28097E-11
1.71823E-11 1.28082E-11
1.90386E-11 1.28066E-11
2.09900E-11 1.28050E-11
2.30367E-11 1.28032E-11
2.51785E-11 1.28014E-11
2.74156E-11 1.27995E-11
2.97478E-11 1.27976E-11
3.21752E-11 1.27955E-11
3.46979E-11 1.27934E-11
3.73157E-11 1.27912E-11
4.00286E-11 1.27889E-11
4.28368E-11 1.27865E-11
4.57402E-11 1.27841E-11
4.87388E-11 1.27816E-11
5.18325E-11 1.27790E-11
5.50215E-11 1.27763E-11
5.83057E-11 1.27735E-11
6.16850E-11 1.27707E-11
6.51595E-11 1.27678E-11
6.87293E-11 1.27648E-11
7.23943E-11 1.27617E-11
7.61544E-11 1.27586E-11
1.18991E-10 1.27228E-11
1.71347E-10 1.26794E-11
2.33223E-10 1.26284E-11
3.04617E-10 1.25702E-11
3.85531E-10 1.25047E-11
4.75965E-10 1.24323E-11
5.75917E-10 1.23532E-11
6.85389E-10 1.22677E-11
8.04380E-10 1.21750E-11
9.32891E-10 1.20771E-11
1.07092E-09 1.19748E-11
1.21847E-09 1.18654E-11
1.37554E-09 1.17514E-11
1.54213E-09 1.16343E-11
1.71823E-09 1.15109E-11
1.90386E-09 1.13837E-11
2.09900E-09 1.12547E-11
2.30367E-09 1.11202E-11
2.51785E-09 1.09827E-11
2.74156E-09 1.08445E-11
2.97478E-09 1.07019E-11
3.21752E-09 1.05568E-11
3.46978E-09 1.04123E-11
3.73156E-09 1.02642E-11
4.00286E-09 1.01142E-11
4.28368E-09 9.96571E-12
4.57402E-09 9.81481E-12
4.87388E-09 9.66220E-12
5.18326E-09 9.51195E-12
5.50215E-09 9.36034E-12
5.83057E-09 9.20723E-12
6.16850E-09 9.05713E-12
6.51596E-09 8.90663E-12
6.87293E-09 8.75476E-12
7.23942E-09 8.60640E-12
7.61544E-09 8.45851E-12
1.18991E-08 7.04684E-12
1.71347E-08 5.81804E-12
2.33223E-08 4.78851E-12
3.04617E-08 3.94038E-12
3.85531E-08 3.25071E-12
4.75965E-08 2.69205E-12
5.75917E-08 2.23920E-12
6.85389E-08 1.87136E-12
8.04380E-08 1.55482E-12
9.32891E-08 1.31079E-12
1.07092E-07 1.12382E-12
1.21847E-07 9.56616E-13
1.37554E-07 8.19961E-13
1.54213E-07 7.11777E-13
1.71823E-07 6.16635E-13
1.90386E-07 5.36972E-13
2.09900E-07 4.72156E-13
2.30367E-07 4.15322E-13
2.51785E-07 3.66772E-13
2.74156E-07 3.26370E-13
2.97478E-07 2.90774E-13
3.21752E-07 2.59823E-13
3.46978E-07 2.33587E-13
3.73156E-07 2.10290E-13
4.00286E-07 1.89706E-13
4.28368E-07 1.71993E-13
4.57402E-07 1.56139E-13
4.87388E-07 1.41932E-13
5.18325E-07 1.29553E-13
5.50215E-07 1.18402E-13
5.83057E-07 1.08289E-13
6.16850E-07 9.93870E-14
6.51596E-07 9.13287E-14
6.87293E-07 8.39510E-14
7.23942E-07 7.73993E-14
7.61543E-07 7.14486E-14
1.18991E-06 3.41840E-14
1.71347E-06 1.81848E-14
2.33223E-06 1.05452E-14
3.04617E-06 6.57008E-15
3.85531E-06 4.31678E-15
4.75964E-06 2.95647E-15
5.75916E-06 2.09433E-15
6.85388E-06 1.52443E-15
8.04378E-06 1.13491E-15
9.32888E-06 8.62940E-16
1.07092E-05 6.67854E-16
1.21846E-05 5.24925E-16
1.37553E-05 4.18203E-16
1.54212E-05 3.37148E-16
1.71822E-05 2.74826E-16
1.90385E-05 2.26126E-16
2.09899E-05 1.87982E-16
2.30365E-05 1.57517E-16
2.51783E-05 1.32911E-16
2.74153E-05 1.12892E-16
2.97475E-05 9.64920E-17
3.21749E-05 8.29665E-17
3.46974E-05 7.17397E-17
3.73152E-05 6.23591E-17
4.00281E-05 5.44663E-17
4.28362E-05 4.77892E-17
4.57395E-05 4.21060E-17
4.87380E-05 3.72422E-17
5.18317E-05 3.30592E-17
5.50205E-05 2.94447E-17
5.83045E-05 2.63100E-17
6.16838E-05 2.35822E-17
6.51582E-05 2.11998E-17
6.87277E-05 1.91115E-17
7.23925E-05 1.72747E-17
7.61524E-05 1.56525E-17
9.21439E-05 1.07897E-17
1.09658E-04 7.67383E-18
1.28695E-04 5.60445E-18
1.49255E-04 4.18650E-18
1.71338E-04 3.18923E-18
1.94942E-04 2.47150E-18
2.20070E-04 1.94451E-18
2.46720E-04 1.55061E-18
2.74892E-04 1.25146E-18
3.04586E-04 1.02103E-18
3.35803E-04 8.41221E-19
3.68542E-04 6.99267E-19
4.02802E-04 5.86003E-19
4.38585E-04 4.94750E-19
4.75889E-04 4.20566E-19
5.14715E-04 3.59766E-19
5.55063E-04 3.09551E-19
5.96931E-04 2.67790E-19
6.40321E-04 2.32828E-19
6.85233E-04 2.03382E-19
7.31665E-04 1.78439E-19
7.79618E-04 1.57200E-19
8.29092E-04 1.39022E-19
8.80086E-04 1.23393E-19
9.32601E-04 1.09895E-19
9.86636E-04 9.81893E-20
1.04219E-03 8.79979E-20
1.09927E-03 7.90924E-20
1.15786E-03 7.12822E-20
1.21797E-03 6.44105E-20
1.27961E-03 5.83452E-20
1.34276E-03 5.29752E-20
1.40743E-03 4.82074E-20
1.47362E-03 4.39626E-20
1.54133E-03 4.01734E-20
1.61056E-03 3.67826E-20
1.68131E-03 3.37410E-20
1.75357E-03 3.10064E-20
1.82735E-03 2.85424E-20
1.90265E-03 2.63176E-20
1.97947E-03 2.43046E-20
2.05780E-03 2.24798E-20
2.13765E-03 2.08225E-20
2.21902E-03 1.93146E-20
2.30190E-03 1.79402E-20
2.38630E-03 1.66855E-20
2.47222E-03 1.55381E-20
2.55965E-03 1.44874E-20
2.64859E-03 1.35236E-20
2.73905E-03 1.26383E-20
2.83103E-03 1.18240E-20
2.92452E-03 1.10740E-20
3.01952E-03 1.03822E-20
3.11604E-03 9.74342E-21
3.21407E-03 9.15280E-21
3.31362E-03 8.60606E-21
3.41468E-03 8.09936E-21
3.51725E-03 7.62924E-21
3.62133E-03 7.19259E-21
3.72692E-03 6.78658E-21
3.83403E-03 6.40870E-21
3.94265E-03 6.05662E-21
4.05278E-03 5.72828E-21
4.16442E-03 5.42179E-21
4.27757E-03 5.13542E-21
4.39223E-03 4.86761E-21
4.50840E-03 4.61695E-21
4.62608E-03 4.38213E-21
4.74527E-03 4.16198E-21
4.86597E-03 3.95541E-21
4.98817E-03 3.76143E-21
5.11188E-03 3.57913E-21
5.23711E-03 3.40769E-21
5.36383E-03 3.24633E-21
5.49207E-03 3.09436E-21
5.62181E-03 2.95113E-21
5.75306E-03 2.81604E-21
5.88581E-03 2.68856E-21
6.02007E-03 2.56816E-21
6.15583E-03 2.45439E-21
6.29310E-03 2.34681E-21
6.43187E-03 2.24503E-21
6.57214E-03 2.14867E-21
6.71392E-03 2.05740E-21
6.85720E-03 1.97089E-21
7.00198E-03 1.88886E-21
7.14827E-03 1.81102E-21
7.29605E-03 1.73712E-21
7.44534E-03 1.66694E-21
7.59612E-03 1.60023E-21
7.97965E-03 1.44742E-21
8.37255E-03 1.31232E-21
8.77480E-03 1.19251E-21
9.18641E-03 1.08598E-21
9.60736E-03 9.91016E-22
1.00376E-02 9.06136E-22
1.04773E-02 8.30090E-22
1.09262E-02 7.61801E-22
1.13844E-02 7.00343E-22
1.18520E-02 6.44915E-22
1.23288E-02 5.94822E-22
1.28150E-02 5.49464E-22
1.33104E-02 5.08315E-22
1.38150E-02 4.70916E-22
1.43290E-02 4.36867E-22
1.48521E-02 4.05816E-22
1.53845E-02 3.77452E-22
1.59262E-02 3.51502E-22
1.64770E-02 3.27726E-22
1.70371E-02 3.05909E-22
1.76063E-02 2.85861E-22
1.81848E-02 2.67415E-22
1.87724E-02 2.50419E-22
1.93692E-02 2.34739E-22
1.99751E-02 2.20256E-22
2.05901E-02 2.06862E-22
2.12143E-02 1.94461E-22
2.18476E-02 1.82967E-22
2.24900E-02 1.72300E-22
2.31415E-02 1.62392E-22
2.38021E-02 1.53179E-22
2.44717E-02 1.44603E-22
2.51504E-02 1.36612E-22
2.58382E-02 1.29160E-22
2.65349E-02 1.22203E-22
2.72407E-02 1.15704E-22
2.79555E-02 1.09626E-22
2.86793E-02 1.03937E-22
2.94120E-02 9.86084E-23
3.01537E-02 9.36129E-23
3.09043E-02 8.89257E-23
3.16639E-02 8.45252E-23
3.24324E-02 8.03901E-23
3.32098E-02 7.65013E-23
3.39961E-02 7.28424E-23
3.47912E-02 6.93968E-23
3.55952E-02 6.61497E-23
3.64081E-02 6.30880E-23
3.72297E-02 6.01991E-23
3.80602E-02 5.74715E-23
3.88995E-02 5.48945E-23
3.97476E-02 5.24584E-23
4.06044E-02 5.01542E-23
4.14700E-02 4.79732E-23
4.23443E-02 4.59079E-23
4.32273E-02 4.39511E-23
4.41190E-02 4.20958E-23
4.50194E-02 4.03360E-23
4.59284E-02 3.86659E-23
4.68461E-02 3.70800E-23
4.87074E-02 3.41414E-23
5.06030E-02 3.14840E-23
5.25328E-02 2.90765E-23
5.44967E-02 2.68913E-23
5.64946E-02 2.49044E-23
5.85262E-02 2.30948E-23
6.05914E-02 2.14440E-23
6.26901E-02 1.99357E-23
6.48222E-02 1.85555E-23
6.69873E-02 1.72907E-23
6.91854E-02 1.61301E-23
7.14163E-02 1.50635E-23
7.36799E-02 1.40821E-23
7.59760E-02 1.31779E-23
7.83043E-02 1.23438E-23
8.06647E-02 1.15735E-23
8.30571E-02 1.08613E-23
8.54812E-02 1.02016E-23
8.79369E-02 9.59019E-24
9.04240E-02 9.02299E-24
9.29422E-02 8.49624E-24
9.54915E-02 8.00657E-24
9.80716E-02 7.55091E-24
1.00682E-01 7.12650E-24
1.03323E-01 6.73083E-24
1.05995E-01 6.36162E-24
1.08696E-01 6.01680E-24
1.11427E-01 5.69449E-24
1.14188E-01 5.39296E-24
1.16978E-01 5.11064E-24
1.19797E-01 4.84611E-24
1.22645E-01 4.59804E-24
1.25522E-01 4.36525E-24
1.28428E-01 4.14662E-24
1.31361E-01 3.94115E-24
1.34323E-01 3.74792E-24
1.37313E-01 3.56606E-24
1.40330E-01 3.39480E-24
1.43375E-01 3.23341E-24
1.46447E-01 3.08123E-24
1.49545E-01 2.93763E-24
1.52671E-01 2.80207E-24
1.55823E-01 2.67400E-24
1.59001E-01 2.55294E-24
1.62205E-01 2.43845E-24
1.65435E-01 2.33011E-24
1.68690E-01 2.22753E-24
1.71970E-01 2.13035E-24
1.75276E-01 2.03824E-24
1.78606E-01 1.95089E-24
1.81961E-01 1.86802E-24
1.85340E-01 1.78935E-24
1.88743E-01 1.71464E-24
1.92169E-01 1.64364E-24
1.95619E-01 1.57616E-24
1.99092E-01 1.51198E-24
2.02589E-01 1.45091E-24
2.06107E-01 1.39278E-24
2.09649E-01 1.33742E-24
2.13212E-01 1.28468E-24
2.16797E-01 1.23442E-24
2.20404E-01 1.18649E-24
2.24032E-01 1.14077E-24
2.27680E-01 1.09715E-24
2.31350E-01 1.05550E-24
2.35040E-01 1.01573E-24
2.38751E-01 9.77740E-25
2.42481E-01 9.41429E-25
2.46231E-01 9.06716E-25
2.50000E-01 8.73517E-25
2.53788E-01 8.41755E-25
2.57595E-01 8.11358E-25
2.61421E-01 7.82258E-25
2.65264E-01 7.54389E-25
2.69126E-01 7.27692E-25
2.73005E-01 7.02108E-25
2.76901E-01 6.77584E-25
2.80814E-01 6.54068E-25
2.84744E-01 6.31512E-25
2.88691E-01 6.09871E-25
2.92653E-01 5.89100E-25
2.96632E-01 5.69160E-25
3.00625E-01 5.50011E-25
3.04634E-01 5.31618E-25
3.08658E-01 5.13944E-25
3.12697E-01 4.96958E-25
3.16749E-01 4.80629E-25
3.20816E-01 4.64926E-25
3.24896E-01 4.49822E-25
3.28990E-01 4.35290E-25
3.33097E-01 4.21305E-25
3.37216E-01 4.07843E-25
3.41348E-01 3.94881E-25
3.45492E-01 3.82398E-25
3.49647E-01 3.70373E-25
3.53814E-01 3.58787E-25
3.57992E-01 3.47620E-25
3.62181E-01 3.36856E-25
3.66381E-01 3.26478E-25
3.70590E-01 3.16468E-25
3.74810E-01 3.06813E-25
3.79039E-01 2.97497E-25
3.83277E-01 2.88508E-25
3.87524E-01 2.79830E-25
3.91780E-01 2.71453E-25
3.96044E-01 2.63363E-25
4.00316E-01 2.55550E-25
4.04596E-01 2.48002E-25
4.08882E-01 2.40709E-25
4.13176E-01 2.33661E-25
4.17476E-01 2.26849E-25
4.21783E-01 2.20263E-25
4.26095E-01 2.13895E-25
4.30413E-01 2.07735E-25
4.34737E-01 2.01778E-25
4.39065E-01 1.96014E-25
4.43398E-01 1.90436E-25
4.47736E-01 1.85038E-25
4.52077E-01 1.79813E-25
4.56422E-01 1.74754E-25
4.60770E-01 1.69855E-25
4.65122E-01 1.65111E-25
4.69476E-01 1.60515E-25
4.73832E-01 1.56063E-25
4.78190E-01 1.51749E-25
4.82550E-01 1.47568E-25
4.86912E-01 1.43516E-25
4.91274E-01 1.39588E-25
4.95637E-01 1.35780E-25
5.00000E-01 1.32086E-25
5.04363E-01 1.28504E-25
5.08726E-01 1.25030E-25
5.13088E-01 1.21659E-25
5.17450E-01 1.18389E-25
5.21810E-01 1.15215E-25
5.26168E-01 1.12135E-25
5.30524E-01 1.09146E-25
5.34878E-01 1.06243E-25
5.39230E-01 1.03425E-25
5.43578E-01 1.00688E-25
5.47923E-01 9.80303E-26
5.52264E-01 9.54487E-26
5.56602E-01 9.29408E-26
5.60935E-01 9.05041E-26
5.65263E-01 8.81365E-26
5.69587E-01 8.58355E-26
5.73905E-01 8.35992E-26
5.78217E-01 8.14253E-26
5.82524E-01 7.93120E-26
5.86824E-01 7.72572E-26
5.91118E-01 7.52592E-26
5.95404E-01 7.33161E-26
5.99684E-01 7.14262E-26
6.03956E-01 6.95879E-26
6.08220E-01 6.77994E-26
6.12476E-01 6.60594E-26
6.16723E-01 6.43663E-26
6.20961E-01 6.27187E-26
6.25190E-01 6.11151E-26
6.29410E-01 5.95542E-26
6.33619E-01 5.80348E-26
6.37819E-01 5.65556E-26
6.42008E-01 5.51154E-26
6.46186E-01 5.37129E-26
6.50353E-01 5.23472E-26
6.54508E-01 5.10171E-26
6.58652E-01 4.97215E-26
6.62784E-01 4.84595E-26
6.66903E-01 4.72300E-26
6.71010E-01 4.60321E-26
6.75104E-01 4.48649E-26
6.79184E-01 4.37275E-26
6.83251E-01 4.26191E-26
6.87303E-01 4.15387E-26
6.91342E-01 4.04857E-26
6.95366E-01 3.94593E-26
6.99375E-01 3.84586E-26
7.03368E-01 3.74830E-26
7.07347E-01 3.65317E-26
7.11309E-01 3.56042E-26
7.15256E-01 3.46996E-26
7.19186E-01 3.38174E-26
7.23099E-01 3.29570E-26
7.26995E-01 3.21178E-26
7.30874E-01 3.12991E-26
7.34736E-01 3.05005E-26
7.38579E-01 2.97214E-26
7.42405E-01 2.89612E-26
7.46212E-01 2.82195E-26
7.50000E-01 2.74957E-26
7.53769E-01 2.67894E-26
7.57519E-01 2.61001E-26
7.61249E-01 2.54274E-26
7.64960E-01 2.47708E-26
7.68650E-01 2.41299E-26
7.72320E-01 2.35043E-26
7.75968E-01 2.28936E-26
7.79596E-01 2.22974E-26
7.83203E-01 2.17153E-26
7.86788E-01 2.11470E-26
7.90351E-01 2.05921E-26
7.93893E-01 2.00503E-26
7.97411E-01 1.95213E-26
8.00908E-01 1.90046E-26
8.04381E-01 1.85001E-26
8.07831E-01 1.80074E-26
8.11257E-01 1.75262E-26
8.14660E-01 1.70562E-26
8.18039E-01 1.65972E-26
8.21394E-01 1.61488E-26
8.24724E-01 1.57109E-26
8.28030E-01 1.52831E-26
8.31310E-01 1.48652E-26
8.34565E-01 1.44571E-26
8.37795E-01 1.40584E-26
8.40999E-01 1.36688E-26
8.44177E-01 1.32883E-26
8.47329E-01 1.29166E-26
8.50455E-01 1.25535E-26
8.53553E-01 1.21987E-26
8.56625E-01 1.18522E-26
8.59670E-01 1.15136E-26
8.62687E-01 1.11828E-26
8.65677E-01 1.08597E-26
8.68639E-01 1.05440E-26
8.71572E-01 1.02356E-26
8.74478E-01 9.93430E-27
8.77355E-01 9.63997E-27
8.80203E-01 9.35245E-27
8.83022E-01 9.07159E-27
8.85812E-01 8.79723E-27
8.88573E-01 8.52923E-27
8.91304E-01 8.26745E-27
8.94005E-01 8.01177E-27
8.96677E-01 7.76204E-27
8.99318E-01 7.51814E-27
9.01928E-01 7.27994E-27
9.04508E-01 7.04733E-27
9.07058E-01 6.82019E-27
9.09576E-01 6.59840E-27
9.12063E-01 6.38185E-27
9.14519E-01 6.17043E-27
9.16943E-01 5.96405E-27
9.19335E-01 5.76259E-27
9.21696E-01 5.56596E-27
9.24024E-01 5.37406E-27
9.26320E-01 5.18680E-27
9.28584E-01 5.00408E-27
9.30815E-01 4.82583E-27
9.33013E-01 4.65195E-27
9.35178E-01 4.48236E-27
9.37310E-01 4.31697E-27
9.39409E-01 4.15572E-27
9.41474E-01 3.99852E-27
9.43505E-01 3.84530E-27
9.45503E-01 3.69598E-27
9.47467E-01 3.55050E-27
9.49397E-01 3.40879E-27
9.51293E-01 3.27078E-27
9.53154E-01 3.13641E-27
9.54981E-01 3.00562E-27
9.56773E-01 2.87834E-27
9.58530E-01 2.75452E-27
9.60252E-01 2.63409E-27
9.61940E-01 2.51702E-27
9.63592E-01 2.40323E-27
9.65209E-01 2.29268E-27
9.66790E-01 2.18533E-27
9.68336E-01 2.08111E-27
9.69846E-01 1.97999E-27
9.71321E-01 1.88192E-27
9.72759E-01 1.78685E-27
9.74162E-01 1.69474E-27
9.75528E-01 1.60555E-27
9.76858E-01 1.51925E-27
9.78152E-01 1.43579E-27
9.79410E-01 1.35513E-27
9.80631E-01 1.27725E-27
9.81815E-01 1.20210E-27
9.82963E-01 1.12965E-27
9.84074E-01 1.05987E-27
9.85148E-01 9.92736E-28
9.86185E-01 9.28211E-28
9.87185E-01 8.66269E-28
9.88148E-01 8.06883E-28
9.89074E-01 7.50026E-28
9.89962E-01 6.95675E-28
9.90814E-01 6.43806E-28
9.91627E-01 5.94395E-28
9.92404E-01 5.47423E-28
9.93143E-01 5.02868E-28
9.93844E-01 4.60712E-28
9.94508E-01 4.20935E-28
9.95134E-01 3.83522E-28
9.95722E-01 3.48456E-28
9.96273E-01 3.15722E-28
9.96786E-01 2.85305E-28
9.97261E-01 2.57194E-28
9.97698E-01 2.31375E-28
9.98097E-01 2.07839E-28
9.98459E-01 1.86574E-28
9.98782E-01 1.67571E-28
9.99067E-01 1.50824E-28
9.99315E-01 1.36323E-28
9.99524E-01 1.24064E-28
9.99695E-01 1.14041E-28
9.99829E-01 1.06250E-28
9.99924E-01 1.00687E-28
9.99981E-01 9.73503E-29
1.00000E+00 9.62382E-29
