 #
 # Subroutine ELSEPA. Elastic scattering of electrons and positrons
 #                    by neutral atoms and positive ions
 #
 # Projectile: positron
 # Kinetic energy = 1.00000E+07 eV = 3.67493E+05 a.u.
 #
 # WARNING: High-energy factorization with free-atom DF screening.
 #          Absorption, polarization and exchange corrections are
 #          switched off.
 #          Phase shifts are calculated for the bare nucleus.
 #          Scattering amplitudes are not evaluated.
 #
 # Element: Au,  Z =  79,  atomic weight = 1.96967E+02 g/mol
 #
 # Nuclear model: Fermi distribution
 #                Average radius = 6.22560E-13 cm
 #                Skin thickness = 5.46000E-14 cm
 #
 # Number of electrons = 79
 #
 # Total elastic cross section = 7.69079E-18 cm**2 = 2.74643E-01 a0**2
 # 1st transport cross section = 7.67410E-23 cm**2 = 2.74047E-06 a0**2
 # 2nd transport cross section = 2.21948E-22 cm**2 = 7.92592E-06 a0**2
 #
 #
 # Differential cross section:                       MU=(1-COS(THETA))/2
 #
 #  THETA        MU          DCS          DCS        Sherman      error
 #  (deg)                 (cm**2/sr)   (a0**2/sr)    function
 #----------------------------------------------------------------------
0.00000E+00 4.36713E-12
7.61557E-13 4.36705E-12
1.18994E-12 4.36700E-12
1.71346E-12 4.36695E-12
2.33225E-12 4.36689E-12
3.04617E-12 4.36681E-12
3.85530E-12 4.36673E-12
4.75964E-12 4.36664E-12
5.75917E-12 4.36654E-12
6.85391E-12 4.36643E-12
8.04379E-12 4.36631E-12
9.32893E-12 4.36619E-12
1.07092E-11 4.36605E-12
1.21847E-11 4.36590E-12
1.37554E-11 4.36575E-12
1.54213E-11 4.36558E-12
1.71823E-11 4.36541E-12
1.90386E-11 4.36523E-12
2.09900E-11 4.36503E-12
2.30367E-11 4.36483E-12
2.51785E-11 4.36462E-12
2.74156E-11 4.36440E-12
2.97478E-11 4.36417E-12
3.21752E-11 4.36393E-12
3.46979E-11 4.36368E-12
3.73157E-11 4.36343E-12
4.00286E-11 4.36316E-12
4.28368E-11 4.36288E-12
4.57402E-11 4.36260E-12
4.87388E-11 4.36231E-12
5.18325E-11 4.36200E-12
5.50215E-11 4.36169E-12
5.83057E-11 4.36137E-12
6.16850E-11 4.36104E-12
6.51595E-11 4.36070E-12
6.87293E-11 4.36035E-12
7.23943E-11 4.35999E-12
7.61544E-11 4.35962E-12
1.18991E-10 4.35543E-12
1.71347E-10 4.35033E-12
2.33223E-10 4.34433E-12
3.04617E-10 4.33742E-12
3.85531E-10 4.32961E-12
4.75965E-10 4.32092E-12
5.75917E-10 4.31136E-12
6.85389E-10 4.30094E-12
8.04380E-10 4.28966E-12
9.32891E-10 4.27754E-12
1.07092E-09 4.26460E-12
1.21847E-09 4.25085E-12
1.37554E-09 4.23631E-12
1.54213E-09 4.22098E-12
1.71823E-09 4.20490E-12
1.90386E-09 4.18807E-12
2.09900E-09 4.17049E-12
2.30367E-09 4.15198E-12
2.51785E-09 4.13289E-12
2.74156E-09 4.11325E-12
2.97478E-09 4.09310E-12
3.21752E-09 4.07246E-12
3.46978E-09 4.05069E-12
3.73156E-09 4.02837E-12
4.00286E-09 4.00565E-12
4.28368E-09 3.98257E-12
4.57402E-09 3.95915E-12
4.87388E-09 3.93477E-12
5.18326E-09 3.90974E-12
5.50215E-09 3.88447E-12
5.83057E-09 3.85897E-12
6.16850E-09 3.83328E-12
6.51596E-09 3.80693E-12
6.87293E-09 3.77972E-12
7.23942E-09 3.75240E-12
7.61544E-09 3.72501E-12
1.18991E-08 3.43655E-12
1.71347E-08 3.13623E-12
2.33223E-08 2.83888E-12
3.04617E-08 2.55472E-12
3.85531E-08 2.28991E-12
4.75965E-08 2.04747E-12
5.75917E-08 1.82822E-12
6.85389E-08 1.63145E-12
8.04380E-08 1.45587E-12
9.32891E-08 1.29998E-12
1.07092E-07 1.16187E-12
1.21847E-07 1.03968E-12
1.37554E-07 9.31611E-13
1.54213E-07 8.36039E-13
1.71823E-07 7.51481E-13
1.90386E-07 6.76617E-13
2.09900E-07 6.09688E-13
2.30367E-07 5.46135E-13
2.51785E-07 4.92408E-13
2.74156E-07 4.46689E-13
2.97478E-07 4.07541E-13
3.21752E-07 3.73820E-13
3.46978E-07 3.39554E-13
3.73156E-07 3.09228E-13
4.00286E-07 2.82909E-13
4.28368E-07 2.59955E-13
4.57402E-07 2.39844E-13
4.87388E-07 2.20584E-13
5.18325E-07 2.02816E-13
5.50215E-07 1.87138E-13
5.83057E-07 1.73251E-13
6.16850E-07 1.60905E-13
6.51596E-07 1.49429E-13
6.87293E-07 1.38565E-13
7.23942E-07 1.28847E-13
7.61543E-07 1.20126E-13
1.18991E-06 6.35801E-14
1.71347E-06 3.69027E-14
2.33223E-06 2.27750E-14
3.04617E-06 1.47042E-14
3.85531E-06 9.85832E-15
4.75964E-06 6.83800E-15
5.75916E-06 4.88989E-15
6.85388E-06 3.59250E-15
8.04378E-06 2.70562E-15
9.32888E-06 2.07990E-15
1.07092E-05 1.62627E-15
1.21846E-05 1.29048E-15
1.37553E-05 1.03763E-15
1.54212E-05 8.44140E-16
1.71822E-05 6.93802E-16
1.90385E-05 5.75083E-16
2.09899E-05 4.81204E-16
2.30365E-05 4.05376E-16
2.51783E-05 3.44389E-16
2.74153E-05 2.93886E-16
2.97475E-05 2.52604E-16
3.21749E-05 2.18079E-16
3.46974E-05 1.89432E-16
3.73152E-05 1.65254E-16
4.00281E-05 1.44904E-16
4.28362E-05 1.27546E-16
4.57395E-05 1.12738E-16
4.87380E-05 9.99892E-17
5.18317E-05 8.89939E-17
5.50205E-05 7.94573E-17
5.83045E-05 7.11606E-17
6.16838E-05 6.39204E-17
6.51582E-05 5.75738E-17
6.87277E-05 5.20023E-17
7.23925E-05 4.70829E-17
7.61524E-05 4.27380E-17
9.21439E-05 2.96404E-17
1.09658E-04 2.11953E-17
1.28695E-04 1.55566E-17
1.49255E-04 1.16745E-17
1.71338E-04 8.93176E-18
1.94942E-04 6.94890E-18
2.20070E-04 5.48655E-18
2.46720E-04 4.38891E-18
2.74892E-04 3.55205E-18
3.04586E-04 2.90504E-18
3.35803E-04 2.39851E-18
3.68542E-04 1.99744E-18
4.02802E-04 1.67659E-18
4.38585E-04 1.41747E-18
4.75889E-04 1.20639E-18
5.14715E-04 1.03309E-18
5.55063E-04 8.89743E-19
5.96931E-04 7.70362E-19
6.40321E-04 6.70301E-19
6.85233E-04 5.85936E-19
7.31665E-04 5.14409E-19
7.79618E-04 4.53447E-19
8.29092E-04 4.01237E-19
8.80086E-04 3.56314E-19
9.32601E-04 3.17493E-19
9.86636E-04 2.83808E-19
1.04219E-03 2.54465E-19
1.09927E-03 2.28810E-19
1.15786E-03 2.06302E-19
1.21797E-03 1.86489E-19
1.27961E-03 1.68994E-19
1.34276E-03 1.53498E-19
1.40743E-03 1.39734E-19
1.47362E-03 1.27476E-19
1.54133E-03 1.16529E-19
1.61056E-03 1.06730E-19
1.68131E-03 9.79368E-20
1.75357E-03 9.00284E-20
1.82735E-03 8.29001E-20
1.90265E-03 7.64617E-20
1.97947E-03 7.06344E-20
2.05780E-03 6.53503E-20
2.13765E-03 6.05493E-20
2.21902E-03 5.61801E-20
2.30190E-03 5.21968E-20
2.38630E-03 4.85591E-20
2.47222E-03 4.52316E-20
2.55965E-03 4.21833E-20
2.64859E-03 3.93868E-20
2.73905E-03 3.68174E-20
2.83103E-03 3.44531E-20
2.92452E-03 3.22749E-20
3.01952E-03 3.02655E-20
3.11604E-03 2.84096E-20
3.21407E-03 2.66930E-20
3.31362E-03 2.51036E-20
3.41468E-03 2.36303E-20
3.51725E-03 2.22631E-20
3.62133E-03 2.09928E-20
3.72692E-03 1.98115E-20
3.83403E-03 1.87117E-20
3.94265E-03 1.76868E-20
4.05278E-03 1.67309E-20
4.16442E-03 1.58383E-20
4.27757E-03 1.50042E-20
4.39223E-03 1.42240E-20
4.50840E-03 1.34936E-20
4.62608E-03 1.28092E-20
4.74527E-03 1.21675E-20
4.86597E-03 1.15652E-20
4.98817E-03 1.09996E-20
5.11188E-03 1.04679E-20
5.23711E-03 9.96781E-21
5.36383E-03 9.49705E-21
5.49207E-03 9.05361E-21
5.62181E-03 8.63561E-21
5.75306E-03 8.24130E-21
5.88581E-03 7.86912E-21
6.02007E-03 7.51760E-21
6.15583E-03 7.18538E-21
6.29310E-03 6.87119E-21
6.43187E-03 6.57388E-21
6.57214E-03 6.29239E-21
6.71392E-03 6.02571E-21
6.85720E-03 5.77292E-21
7.00198E-03 5.53317E-21
7.14827E-03 5.30566E-21
7.29605E-03 5.08964E-21
7.44534E-03 4.88445E-21
7.59612E-03 4.68941E-21
7.97965E-03 4.24252E-21
8.37255E-03 3.84729E-21
8.77480E-03 3.49674E-21
9.18641E-03 3.18497E-21
9.60736E-03 2.90695E-21
1.00376E-02 2.65842E-21
1.04773E-02 2.43570E-21
1.09262E-02 2.23567E-21
1.13844E-02 2.05561E-21
1.18520E-02 1.89319E-21
1.23288E-02 1.74638E-21
1.28150E-02 1.61342E-21
1.33104E-02 1.49277E-21
1.38150E-02 1.38311E-21
1.43290E-02 1.28326E-21
1.48521E-02 1.19218E-21
1.53845E-02 1.10898E-21
1.59262E-02 1.03285E-21
1.64770E-02 9.63087E-22
1.70371E-02 8.99065E-22
1.76063E-02 8.40228E-22
1.81848E-02 7.86084E-22
1.87724E-02 7.36193E-22
1.93692E-02 6.90162E-22
1.99751E-02 6.47639E-22
2.05901E-02 6.08311E-22
2.12143E-02 5.71894E-22
2.18476E-02 5.38136E-22
2.24900E-02 5.06808E-22
2.31415E-02 4.77704E-22
2.38021E-02 4.50638E-22
2.44717E-02 4.25444E-22
2.51504E-02 4.01967E-22
2.58382E-02 3.80070E-22
2.65349E-02 3.59629E-22
2.72407E-02 3.40528E-22
2.79555E-02 3.22666E-22
2.86793E-02 3.05946E-22
2.94120E-02 2.90284E-22
3.01537E-02 2.75599E-22
3.09043E-02 2.61821E-22
3.16639E-02 2.48884E-22
3.24324E-02 2.36726E-22
3.32098E-02 2.25293E-22
3.39961E-02 2.14534E-22
3.47912E-02 2.04401E-22
3.55952E-02 1.94853E-22
3.64081E-02 1.85849E-22
3.72297E-02 1.77352E-22
3.80602E-02 1.69329E-22
3.88995E-02 1.61749E-22
3.97476E-02 1.54583E-22
4.06044E-02 1.47805E-22
4.14700E-02 1.41389E-22
4.23443E-02 1.35313E-22
4.32273E-02 1.29555E-22
4.41190E-02 1.24096E-22
4.50194E-02 1.18918E-22
4.59284E-02 1.14003E-22
4.68461E-02 1.09336E-22
4.87074E-02 1.00688E-22
5.06030E-02 9.28661E-23
5.25328E-02 8.57789E-23
5.44967E-02 7.93455E-23
5.64946E-02 7.34955E-23
5.85262E-02 6.81669E-23
6.05914E-02 6.33054E-23
6.26901E-02 5.88630E-23
6.48222E-02 5.47976E-23
6.69873E-02 5.10716E-23
6.91854E-02 4.76519E-23
7.14163E-02 4.45090E-23
7.36799E-02 4.16167E-23
7.59760E-02 3.89515E-23
7.83043E-02 3.64927E-23
8.06647E-02 3.42215E-23
8.30571E-02 3.21210E-23
8.54812E-02 3.01764E-23
8.79369E-02 2.83740E-23
9.04240E-02 2.67016E-23
9.29422E-02 2.51484E-23
9.54915E-02 2.37043E-23
9.80716E-02 2.23602E-23
1.00682E-01 2.11083E-23
1.03323E-01 1.99409E-23
1.05995E-01 1.88514E-23
1.08696E-01 1.78338E-23
1.11427E-01 1.68825E-23
1.14188E-01 1.59924E-23
1.16978E-01 1.51589E-23
1.19797E-01 1.43778E-23
1.22645E-01 1.36452E-23
1.25522E-01 1.29576E-23
1.28428E-01 1.23117E-23
1.31361E-01 1.17047E-23
1.34323E-01 1.11336E-23
1.37313E-01 1.05962E-23
1.40330E-01 1.00899E-23
1.43375E-01 9.61282E-24
1.46447E-01 9.16284E-24
1.49545E-01 8.73819E-24
1.52671E-01 8.33722E-24
1.55823E-01 7.95835E-24
1.59001E-01 7.60018E-24
1.62205E-01 7.26138E-24
1.65435E-01 6.94071E-24
1.68690E-01 6.63704E-24
1.71970E-01 6.34932E-24
1.75276E-01 6.07656E-24
1.78606E-01 5.81785E-24
1.81961E-01 5.57235E-24
1.85340E-01 5.33926E-24
1.88743E-01 5.11785E-24
1.92169E-01 4.90744E-24
1.95619E-01 4.70738E-24
1.99092E-01 4.51707E-24
2.02589E-01 4.33597E-24
2.06107E-01 4.16355E-24
2.09649E-01 3.99932E-24
2.13212E-01 3.84283E-24
2.16797E-01 3.69366E-24
2.20404E-01 3.55139E-24
2.24032E-01 3.41566E-24
2.27680E-01 3.28612E-24
2.31350E-01 3.16243E-24
2.35040E-01 3.04430E-24
2.38751E-01 2.93142E-24
2.42481E-01 2.82354E-24
2.46231E-01 2.72032E-24
2.50000E-01 2.62157E-24
2.53788E-01 2.52708E-24
2.57595E-01 2.43662E-24
2.61421E-01 2.35001E-24
2.65264E-01 2.26704E-24
2.69126E-01 2.18755E-24
2.73005E-01 2.11135E-24
2.76901E-01 2.03829E-24
2.80814E-01 1.96822E-24
2.84744E-01 1.90099E-24
2.88691E-01 1.83647E-24
2.92653E-01 1.77454E-24
2.96632E-01 1.71507E-24
3.00625E-01 1.65794E-24
3.04634E-01 1.60305E-24
3.08658E-01 1.55030E-24
3.12697E-01 1.49959E-24
3.16749E-01 1.45083E-24
3.20816E-01 1.40393E-24
3.24896E-01 1.35880E-24
3.28990E-01 1.31537E-24
3.33097E-01 1.27357E-24
3.37216E-01 1.23332E-24
3.41348E-01 1.19455E-24
3.45492E-01 1.15721E-24
3.49647E-01 1.12122E-24
3.53814E-01 1.08655E-24
3.57992E-01 1.05311E-24
3.62181E-01 1.02088E-24
3.66381E-01 9.89788E-25
3.70590E-01 9.59796E-25
3.74810E-01 9.30857E-25
3.79039E-01 9.02929E-25
3.83277E-01 8.75970E-25
3.87524E-01 8.49940E-25
3.91780E-01 8.24803E-25
3.96044E-01 8.00523E-25
4.00316E-01 7.77065E-25
4.04596E-01 7.54398E-25
4.08882E-01 7.32491E-25
4.13176E-01 7.11313E-25
4.17476E-01 6.90837E-25
4.21783E-01 6.71035E-25
4.26095E-01 6.51882E-25
4.30413E-01 6.33353E-25
4.34737E-01 6.15424E-25
4.39065E-01 5.98073E-25
4.43398E-01 5.81278E-25
4.47736E-01 5.65019E-25
4.52077E-01 5.49275E-25
4.56422E-01 5.34028E-25
4.60770E-01 5.19259E-25
4.65122E-01 5.04951E-25
4.69476E-01 4.91088E-25
4.73832E-01 4.77653E-25
4.78190E-01 4.64630E-25
4.82550E-01 4.52007E-25
4.86912E-01 4.39767E-25
4.91274E-01 4.27898E-25
4.95637E-01 4.16386E-25
5.00000E-01 4.05220E-25
5.04363E-01 3.94387E-25
5.08726E-01 3.83876E-25
5.13088E-01 3.73675E-25
5.17450E-01 3.63774E-25
5.21810E-01 3.54163E-25
5.26168E-01 3.44832E-25
5.30524E-01 3.35772E-25
5.34878E-01 3.26973E-25
5.39230E-01 3.18427E-25
5.43578E-01 3.10125E-25
5.47923E-01 3.02060E-25
5.52264E-01 2.94223E-25
5.56602E-01 2.86608E-25
5.60935E-01 2.79206E-25
5.65263E-01 2.72011E-25
5.69587E-01 2.65017E-25
5.73905E-01 2.58217E-25
5.78217E-01 2.51604E-25
5.82524E-01 2.45174E-25
5.86824E-01 2.38919E-25
5.91118E-01 2.32835E-25
5.95404E-01 2.26916E-25
5.99684E-01 2.21157E-25
6.03956E-01 2.15553E-25
6.08220E-01 2.10100E-25
6.12476E-01 2.04792E-25
6.16723E-01 1.99626E-25
6.20961E-01 1.94596E-25
6.25190E-01 1.89699E-25
6.29410E-01 1.84931E-25
6.33619E-01 1.80288E-25
6.37819E-01 1.75766E-25
6.42008E-01 1.71361E-25
6.46186E-01 1.67071E-25
6.50353E-01 1.62891E-25
6.54508E-01 1.58819E-25
6.58652E-01 1.54851E-25
6.62784E-01 1.50984E-25
6.66903E-01 1.47216E-25
6.71010E-01 1.43543E-25
6.75104E-01 1.39963E-25
6.79184E-01 1.36474E-25
6.83251E-01 1.33071E-25
6.87303E-01 1.29754E-25
6.91342E-01 1.26520E-25
6.95366E-01 1.23365E-25
6.99375E-01 1.20289E-25
7.03368E-01 1.17289E-25
7.07347E-01 1.14363E-25
7.11309E-01 1.11508E-25
7.15256E-01 1.08723E-25
7.19186E-01 1.06006E-25
7.23099E-01 1.03356E-25
7.26995E-01 1.00769E-25
7.30874E-01 9.82449E-26
7.34736E-01 9.57816E-26
7.38579E-01 9.33775E-26
7.42405E-01 9.10311E-26
7.46212E-01 8.87407E-26
7.50000E-01 8.65049E-26
7.53769E-01 8.43222E-26
7.57519E-01 8.21914E-26
7.61249E-01 8.01109E-26
7.64960E-01 7.80796E-26
7.68650E-01 7.60960E-26
7.72320E-01 7.41591E-26
7.75968E-01 7.22676E-26
7.79596E-01 7.04203E-26
7.83203E-01 6.86161E-26
7.86788E-01 6.68539E-26
7.90351E-01 6.51327E-26
7.93893E-01 6.34515E-26
7.97411E-01 6.18091E-26
8.00908E-01 6.02048E-26
8.04381E-01 5.86374E-26
8.07831E-01 5.71062E-26
8.11257E-01 5.56101E-26
8.14660E-01 5.41485E-26
8.18039E-01 5.27203E-26
8.21394E-01 5.13249E-26
8.24724E-01 4.99614E-26
8.28030E-01 4.86291E-26
8.31310E-01 4.73272E-26
8.34565E-01 4.60549E-26
8.37795E-01 4.48117E-26
8.40999E-01 4.35967E-26
8.44177E-01 4.24094E-26
8.47329E-01 4.12491E-26
8.50455E-01 4.01152E-26
8.53553E-01 3.90071E-26
8.56625E-01 3.79241E-26
8.59670E-01 3.68657E-26
8.62687E-01 3.58314E-26
8.65677E-01 3.48205E-26
8.68639E-01 3.38326E-26
8.71572E-01 3.28672E-26
8.74478E-01 3.19238E-26
8.77355E-01 3.10018E-26
8.80203E-01 3.01008E-26
8.83022E-01 2.92204E-26
8.85812E-01 2.83601E-26
8.88573E-01 2.75194E-26
8.91304E-01 2.66980E-26
8.94005E-01 2.58954E-26
8.96677E-01 2.51113E-26
8.99318E-01 2.43452E-26
9.01928E-01 2.35968E-26
9.04508E-01 2.28657E-26
9.07058E-01 2.21515E-26
9.09576E-01 2.14540E-26
9.12063E-01 2.07727E-26
9.14519E-01 2.01073E-26
9.16943E-01 1.94576E-26
9.19335E-01 1.88232E-26
9.21696E-01 1.82038E-26
9.24024E-01 1.75992E-26
9.26320E-01 1.70090E-26
9.28584E-01 1.64329E-26
9.30815E-01 1.58707E-26
9.33013E-01 1.53222E-26
9.35178E-01 1.47870E-26
9.37310E-01 1.42650E-26
9.39409E-01 1.37558E-26
9.41474E-01 1.32594E-26
9.43505E-01 1.27753E-26
9.45503E-01 1.23035E-26
9.47467E-01 1.18437E-26
9.49397E-01 1.13956E-26
9.51293E-01 1.09592E-26
9.53154E-01 1.05341E-26
9.54981E-01 1.01203E-26
9.56773E-01 9.71744E-27
9.58530E-01 9.32546E-27
9.60252E-01 8.94415E-27
9.61940E-01 8.57334E-27
9.63592E-01 8.21288E-27
9.65209E-01 7.86260E-27
9.66790E-01 7.52235E-27
9.68336E-01 7.19198E-27
9.69846E-01 6.87135E-27
9.71321E-01 6.56032E-27
9.72759E-01 6.25876E-27
9.74162E-01 5.96654E-27
9.75528E-01 5.68352E-27
9.76858E-01 5.40960E-27
9.78152E-01 5.14465E-27
9.79410E-01 4.88856E-27
9.80631E-01 4.64122E-27
9.81815E-01 4.40253E-27
9.82963E-01 4.17238E-27
9.84074E-01 3.95069E-27
9.85148E-01 3.73735E-27
9.86185E-01 3.53227E-27
9.87185E-01 3.33537E-27
9.88148E-01 3.14657E-27
9.89074E-01 2.96579E-27
9.89962E-01 2.79295E-27
9.90814E-01 2.62799E-27
9.91627E-01 2.47082E-27
9.92404E-01 2.32139E-27
9.93143E-01 2.17964E-27
9.93844E-01 2.04550E-27
9.94508E-01 1.91892E-27
9.95134E-01 1.79986E-27
9.95722E-01 1.68825E-27
9.96273E-01 1.58405E-27
9.96786E-01 1.48723E-27
9.97261E-01 1.39773E-27
9.97698E-01 1.31553E-27
9.98097E-01 1.24059E-27
9.98459E-01 1.17288E-27
9.98782E-01 1.11237E-27
9.99067E-01 1.05904E-27
9.99315E-01 1.01286E-27
9.99524E-01 9.73820E-28
9.99695E-01 9.41899E-28
9.99829E-01 9.17085E-28
9.99924E-01 8.99368E-28
9.99981E-01 8.88741E-28
1.00000E+00 8.85199E-28
