 #
 # Subroutine ELSEPA. Elastic scattering of electrons and positrons
 #                    by neutral atoms and positive ions
 #
 # Projectile: positron
 # Kinetic energy = 1.50000E+07 eV = 5.51240E+05 a.u.
 #
 # WARNING: High-energy factorization with free-atom DF screening.
 #          Absorption, polarization and exchange corrections are
 #          switched off.
 #          Phase shifts are calculated for the bare nucleus.
 #          Scattering amplitudes are not evaluated.
 #
 # Element: Au,  Z =  79,  atomic weight = 1.96967E+02 g/mol
 #
 # Nuclear model: Fermi distribution
 #                Average radius = 6.22560E-13 cm
 #                Skin thickness = 5.46000E-14 cm
 #
 # Number of electrons = 79
 #
 # Total elastic cross section = 7.68165E-18 cm**2 = 2.74317E-01 a0**2
 # 1st transport cross section = 3.77243E-23 cm**2 = 1.34716E-06 a0**2
 # 2nd transport cross section = 1.09442E-22 cm**2 = 3.90823E-06 a0**2
 #
 #
 # Differential cross section:                       MU=(1-COS(THETA))/2
 #
 #  THETA        MU          DCS          DCS        Sherman      error
 #  (deg)                 (cm**2/sr)   (a0**2/sr)    function
 #----------------------------------------------------------------------
0.00000E+00 9.51016E-12
7.61557E-13 9.50978E-12
1.18994E-12 9.50957E-12
1.71346E-12 9.50932E-12
2.33225E-12 9.50903E-12
3.04617E-12 9.50869E-12
3.85530E-12 9.50831E-12
4.75964E-12 9.50788E-12
5.75917E-12 9.50742E-12
6.85391E-12 9.50690E-12
8.04379E-12 9.50634E-12
9.32893E-12 9.50574E-12
1.07092E-11 9.50510E-12
1.21847E-11 9.50441E-12
1.37554E-11 9.50368E-12
1.54213E-11 9.50290E-12
1.71823E-11 9.50208E-12
1.90386E-11 9.50121E-12
2.09900E-11 9.50030E-12
2.30367E-11 9.49935E-12
2.51785E-11 9.49835E-12
2.74156E-11 9.49731E-12
2.97478E-11 9.49623E-12
3.21752E-11 9.49510E-12
3.46979E-11 9.49393E-12
3.73157E-11 9.49271E-12
4.00286E-11 9.49145E-12
4.28368E-11 9.49015E-12
4.57402E-11 9.48881E-12
4.87388E-11 9.48742E-12
5.18325E-11 9.48598E-12
5.50215E-11 9.48451E-12
5.83057E-11 9.48299E-12
6.16850E-11 9.48142E-12
6.51595E-11 9.47982E-12
6.87293E-11 9.47817E-12
7.23943E-11 9.47647E-12
7.61544E-11 9.47474E-12
1.18991E-10 9.45500E-12
1.71347E-10 9.43100E-12
2.33223E-10 9.40280E-12
3.04617E-10 9.37046E-12
3.85531E-10 9.33406E-12
4.75965E-10 9.29371E-12
5.75917E-10 9.24950E-12
6.85389E-10 9.20153E-12
8.04380E-10 9.14991E-12
9.32891E-10 9.09478E-12
1.07092E-09 9.03561E-12
1.21847E-09 8.97354E-12
1.37554E-09 8.90896E-12
1.54213E-09 8.84134E-12
1.71823E-09 8.76984E-12
1.90386E-09 8.69645E-12
2.09900E-09 8.62139E-12
2.30367E-09 8.54237E-12
2.51785E-09 8.46131E-12
2.74156E-09 8.37920E-12
2.97478E-09 8.29537E-12
3.21752E-09 8.20783E-12
3.46978E-09 8.11984E-12
3.73156E-09 8.03159E-12
4.00286E-09 7.94020E-12
4.28368E-09 7.84751E-12
4.57402E-09 7.75509E-12
4.87388E-09 7.66240E-12
5.18326E-09 7.56614E-12
5.50215E-09 7.47064E-12
5.83057E-09 7.37603E-12
6.16850E-09 7.27932E-12
6.51596E-09 7.18175E-12
6.87293E-09 7.08547E-12
7.23942E-09 6.99022E-12
7.61544E-09 6.89153E-12
1.18991E-08 5.94204E-12
1.71347E-08 5.06594E-12
2.33223E-08 4.29219E-12
3.04617E-08 3.62847E-12
3.85531E-08 3.06762E-12
4.75965E-08 2.59746E-12
5.75917E-08 2.20479E-12
6.85389E-08 1.87688E-12
8.04380E-08 1.60311E-12
9.32891E-08 1.37442E-12
1.07092E-07 1.17070E-12
1.21847E-07 1.00827E-12
1.37554E-07 8.79559E-13
1.54213E-07 7.70335E-13
1.71823E-07 6.70075E-13
1.90386E-07 5.88721E-13
2.09900E-07 5.22011E-13
2.30367E-07 4.61027E-13
2.51785E-07 4.08808E-13
2.74156E-07 3.65163E-13
2.97478E-07 3.27592E-13
3.21752E-07 2.93229E-13
3.46978E-07 2.64028E-13
3.73156E-07 2.39053E-13
4.00286E-07 2.16360E-13
4.28368E-07 1.96272E-13
4.57402E-07 1.78865E-13
4.87388E-07 1.63552E-13
5.18325E-07 1.49323E-13
5.50215E-07 1.36856E-13
5.83057E-07 1.25886E-13
6.16850E-07 1.15806E-13
6.51596E-07 1.06645E-13
6.87293E-07 9.85142E-14
7.23942E-07 9.12431E-14
7.61543E-07 8.43627E-14
1.18991E-06 4.17847E-14
1.71347E-06 2.26770E-14
2.33223E-06 1.32710E-14
3.04617E-06 8.27528E-15
3.85531E-06 5.45295E-15
4.75964E-06 3.74912E-15
5.75916E-06 2.66486E-15
6.85388E-06 1.94778E-15
8.04378E-06 1.45706E-15
9.32888E-06 1.11139E-15
1.07092E-05 8.61658E-16
1.21846E-05 6.79013E-16
1.37553E-05 5.42497E-16
1.54212E-05 4.38150E-16
1.71822E-05 3.57879E-16
1.90385E-05 2.95075E-16
2.09899E-05 2.45679E-16
2.30365E-05 2.06133E-16
2.51783E-05 1.74207E-16
2.74153E-05 1.48185E-16
2.97475E-05 1.26779E-16
3.21749E-05 1.09115E-16
3.46974E-05 9.44398E-17
3.73152E-05 8.21457E-17
4.00281E-05 7.17994E-17
4.28362E-05 6.30415E-17
4.57395E-05 5.55774E-17
4.87380E-05 4.91796E-17
5.18317E-05 4.36769E-17
5.50205E-05 3.89229E-17
5.83045E-05 3.47939E-17
6.16838E-05 3.12003E-17
6.51582E-05 2.80615E-17
6.87277E-05 2.53080E-17
7.23925E-05 2.28843E-17
7.61524E-05 2.07451E-17
9.21439E-05 1.43247E-17
1.09658E-04 1.02045E-17
1.28695E-04 7.46350E-18
1.49255E-04 5.58228E-18
1.71338E-04 4.25721E-18
1.94942E-04 3.30218E-18
2.20070E-04 2.60004E-18
2.46720E-04 2.07463E-18
2.74892E-04 1.67525E-18
3.04586E-04 1.36736E-18
3.35803E-04 1.12696E-18
3.68542E-04 9.37080E-19
4.02802E-04 7.85506E-19
4.38585E-04 6.63337E-19
4.75889E-04 5.63992E-19
5.14715E-04 4.82548E-19
5.55063E-04 4.15269E-19
5.96931E-04 3.59303E-19
6.40321E-04 3.12443E-19
6.85233E-04 2.72968E-19
7.31665E-04 2.39526E-19
7.79618E-04 2.11044E-19
8.29092E-04 1.86666E-19
8.80086E-04 1.65701E-19
9.32601E-04 1.47594E-19
9.86636E-04 1.31888E-19
1.04219E-03 1.18213E-19
1.09927E-03 1.06262E-19
1.15786E-03 9.57797E-20
1.21797E-03 8.65557E-20
1.27961E-03 7.84132E-20
1.34276E-03 7.12035E-20
1.40743E-03 6.48017E-20
1.47362E-03 5.91014E-20
1.54133E-03 5.40126E-20
1.61056E-03 4.94582E-20
1.68131E-03 4.53724E-20
1.75357E-03 4.16987E-20
1.82735E-03 3.83882E-20
1.90265E-03 3.53987E-20
1.97947E-03 3.26937E-20
2.05780E-03 3.02414E-20
2.13765E-03 2.80139E-20
2.21902E-03 2.59869E-20
2.30190E-03 2.41394E-20
2.38630E-03 2.24526E-20
2.47222E-03 2.09101E-20
2.55965E-03 1.94972E-20
2.64859E-03 1.82012E-20
2.73905E-03 1.70107E-20
2.83103E-03 1.59156E-20
2.92452E-03 1.49068E-20
3.01952E-03 1.39764E-20
3.11604E-03 1.31171E-20
3.21407E-03 1.23226E-20
3.31362E-03 1.15871E-20
3.41468E-03 1.09053E-20
3.51725E-03 1.02728E-20
3.62133E-03 9.68527E-21
3.72692E-03 9.13894E-21
3.83403E-03 8.63042E-21
3.94265E-03 8.15662E-21
4.05278E-03 7.71473E-21
4.16442E-03 7.30222E-21
4.27757E-03 6.91677E-21
4.39223E-03 6.55629E-21
4.50840E-03 6.21888E-21
4.62608E-03 5.90279E-21
4.74527E-03 5.60642E-21
4.86597E-03 5.32832E-21
4.98817E-03 5.06716E-21
5.11188E-03 4.82172E-21
5.23711E-03 4.59089E-21
5.36383E-03 4.37363E-21
5.49207E-03 4.16900E-21
5.62181E-03 3.97613E-21
5.75306E-03 3.79422E-21
5.88581E-03 3.62254E-21
6.02007E-03 3.46040E-21
6.15583E-03 3.30718E-21
6.29310E-03 3.16229E-21
6.43187E-03 3.02521E-21
6.57214E-03 2.89543E-21
6.71392E-03 2.77250E-21
6.85720E-03 2.65598E-21
7.00198E-03 2.54548E-21
7.14827E-03 2.44063E-21
7.29605E-03 2.34109E-21
7.44534E-03 2.24654E-21
7.59612E-03 2.15669E-21
7.97965E-03 1.95082E-21
8.37255E-03 1.76880E-21
8.77480E-03 1.60739E-21
9.18641E-03 1.46386E-21
9.60736E-03 1.33589E-21
1.00376E-02 1.22152E-21
1.04773E-02 1.11904E-21
1.09262E-02 1.02701E-21
1.13844E-02 9.44188E-22
1.18520E-02 8.69486E-22
1.23288E-02 8.01974E-22
1.28150E-02 7.40840E-22
1.33104E-02 6.85377E-22
1.38150E-02 6.34968E-22
1.43290E-02 5.89073E-22
1.48521E-02 5.47216E-22
1.53845E-02 5.08982E-22
1.59262E-02 4.74002E-22
1.64770E-02 4.41950E-22
1.70371E-02 4.12538E-22
1.76063E-02 3.85512E-22
1.81848E-02 3.60643E-22
1.87724E-02 3.37729E-22
1.93692E-02 3.16590E-22
1.99751E-02 2.97063E-22
2.05901E-02 2.79005E-22
2.12143E-02 2.62285E-22
2.18476E-02 2.46787E-22
2.24900E-02 2.32405E-22
2.31415E-02 2.19045E-22
2.38021E-02 2.06622E-22
2.44717E-02 1.95058E-22
2.51504E-02 1.84283E-22
2.58382E-02 1.74234E-22
2.65349E-02 1.64854E-22
2.72407E-02 1.56089E-22
2.79555E-02 1.47893E-22
2.86793E-02 1.40222E-22
2.94120E-02 1.33036E-22
3.01537E-02 1.26299E-22
3.09043E-02 1.19978E-22
3.16639E-02 1.14043E-22
3.24324E-02 1.08467E-22
3.32098E-02 1.03223E-22
3.39961E-02 9.82876E-23
3.47912E-02 9.36404E-23
3.55952E-02 8.92613E-23
3.64081E-02 8.51320E-23
3.72297E-02 8.12356E-23
3.80602E-02 7.75565E-23
3.88995E-02 7.40808E-23
3.97476E-02 7.07952E-23
4.06044E-02 6.76872E-23
4.14700E-02 6.47453E-23
4.23443E-02 6.19596E-23
4.32273E-02 5.93202E-23
4.41190E-02 5.68175E-23
4.50194E-02 5.44436E-23
4.59284E-02 5.21909E-23
4.68461E-02 5.00517E-23
4.87074E-02 4.60875E-23
5.06030E-02 4.25027E-23
5.25328E-02 3.92547E-23
5.44967E-02 3.63066E-23
5.64946E-02 3.36260E-23
5.85262E-02 3.11845E-23
6.05914E-02 2.89572E-23
6.26901E-02 2.69221E-23
6.48222E-02 2.50598E-23
6.69873E-02 2.33531E-23
6.91854E-02 2.17868E-23
7.14163E-02 2.03474E-23
7.36799E-02 1.90229E-23
7.59760E-02 1.78025E-23
7.83043E-02 1.66766E-23
8.06647E-02 1.56367E-23
8.30571E-02 1.46751E-23
8.54812E-02 1.37850E-23
8.79369E-02 1.29599E-23
9.04240E-02 1.21945E-23
9.29422E-02 1.14837E-23
9.54915E-02 1.08228E-23
9.80716E-02 1.02078E-23
1.00682E-01 9.63502E-24
1.03323E-01 9.10100E-24
1.05995E-01 8.60269E-24
1.08696E-01 8.13732E-24
1.11427E-01 7.70236E-24
1.14188E-01 7.29515E-24
1.16978E-01 6.91386E-24
1.19797E-01 6.55657E-24
1.22645E-01 6.22151E-24
1.25522E-01 5.90705E-24
1.28428E-01 5.61173E-24
1.31361E-01 5.33416E-24
1.34323E-01 5.07310E-24
1.37313E-01 4.82740E-24
1.40330E-01 4.59601E-24
1.43375E-01 4.37794E-24
1.46447E-01 4.17230E-24
1.49545E-01 3.97826E-24
1.52671E-01 3.79505E-24
1.55823E-01 3.62196E-24
1.59001E-01 3.45835E-24
1.62205E-01 3.30359E-24
1.65435E-01 3.15714E-24
1.68690E-01 3.01847E-24
1.71970E-01 2.88709E-24
1.75276E-01 2.76256E-24
1.78606E-01 2.64446E-24
1.81961E-01 2.53239E-24
1.85340E-01 2.42601E-24
1.88743E-01 2.32497E-24
1.92169E-01 2.22896E-24
1.95619E-01 2.13768E-24
1.99092E-01 2.05086E-24
2.02589E-01 1.96826E-24
2.06107E-01 1.88962E-24
2.09649E-01 1.81472E-24
2.13212E-01 1.74336E-24
2.16797E-01 1.67535E-24
2.20404E-01 1.61049E-24
2.24032E-01 1.54862E-24
2.27680E-01 1.48957E-24
2.31350E-01 1.43321E-24
2.35040E-01 1.37937E-24
2.38751E-01 1.32793E-24
2.42481E-01 1.27877E-24
2.46231E-01 1.23177E-24
2.50000E-01 1.18682E-24
2.53788E-01 1.14381E-24
2.57595E-01 1.10264E-24
2.61421E-01 1.06322E-24
2.65264E-01 1.02547E-24
2.69126E-01 9.89309E-25
2.73005E-01 9.54648E-25
2.76901E-01 9.21420E-25
2.80814E-01 8.89556E-25
2.84744E-01 8.58989E-25
2.88691E-01 8.29659E-25
2.92653E-01 8.01507E-25
2.96632E-01 7.74478E-25
3.00625E-01 7.48519E-25
3.04634E-01 7.23581E-25
3.08658E-01 6.99618E-25
3.12697E-01 6.76585E-25
3.16749E-01 6.54439E-25
3.20816E-01 6.33142E-25
3.24896E-01 6.12654E-25
3.28990E-01 5.92941E-25
3.33097E-01 5.73968E-25
3.37216E-01 5.55703E-25
3.41348E-01 5.38114E-25
3.45492E-01 5.21174E-25
3.49647E-01 5.04854E-25
3.53814E-01 4.89127E-25
3.57992E-01 4.73968E-25
3.62181E-01 4.59355E-25
3.66381E-01 4.45263E-25
3.70590E-01 4.31671E-25
3.74810E-01 4.18558E-25
3.79039E-01 4.05906E-25
3.83277E-01 3.93694E-25
3.87524E-01 3.81906E-25
3.91780E-01 3.70524E-25
3.96044E-01 3.59532E-25
4.00316E-01 3.48914E-25
4.04596E-01 3.38656E-25
4.08882E-01 3.28743E-25
4.13176E-01 3.19162E-25
4.17476E-01 3.09901E-25
4.21783E-01 3.00946E-25
4.26095E-01 2.92286E-25
4.30413E-01 2.83909E-25
4.34737E-01 2.75806E-25
4.39065E-01 2.67965E-25
4.43398E-01 2.60377E-25
4.47736E-01 2.53032E-25
4.52077E-01 2.45921E-25
4.56422E-01 2.39036E-25
4.60770E-01 2.32368E-25
4.65122E-01 2.25910E-25
4.69476E-01 2.19653E-25
4.73832E-01 2.13591E-25
4.78190E-01 2.07717E-25
4.82550E-01 2.02023E-25
4.86912E-01 1.96503E-25
4.91274E-01 1.91152E-25
4.95637E-01 1.85963E-25
5.00000E-01 1.80931E-25
5.04363E-01 1.76049E-25
5.08726E-01 1.71314E-25
5.13088E-01 1.66719E-25
5.17450E-01 1.62261E-25
5.21810E-01 1.57934E-25
5.26168E-01 1.53734E-25
5.30524E-01 1.49656E-25
5.34878E-01 1.45697E-25
5.39230E-01 1.41853E-25
5.43578E-01 1.38119E-25
5.47923E-01 1.34492E-25
5.52264E-01 1.30969E-25
5.56602E-01 1.27546E-25
5.60935E-01 1.24220E-25
5.65263E-01 1.20988E-25
5.69587E-01 1.17846E-25
5.73905E-01 1.14792E-25
5.78217E-01 1.11823E-25
5.82524E-01 1.08936E-25
5.86824E-01 1.06129E-25
5.91118E-01 1.03399E-25
5.95404E-01 1.00744E-25
5.99684E-01 9.81610E-26
6.03956E-01 9.56482E-26
6.08220E-01 9.32033E-26
6.12476E-01 9.08243E-26
6.16723E-01 8.85090E-26
6.20961E-01 8.62557E-26
6.25190E-01 8.40623E-26
6.29410E-01 8.19270E-26
6.33619E-01 7.98482E-26
6.37819E-01 7.78241E-26
6.42008E-01 7.58530E-26
6.46186E-01 7.39334E-26
6.50353E-01 7.20638E-26
6.54508E-01 7.02426E-26
6.58652E-01 6.84686E-26
6.62784E-01 6.67402E-26
6.66903E-01 6.50561E-26
6.71010E-01 6.34151E-26
6.75104E-01 6.18159E-26
6.79184E-01 6.02574E-26
6.83251E-01 5.87383E-26
6.87303E-01 5.72575E-26
6.91342E-01 5.58139E-26
6.95366E-01 5.44066E-26
6.99375E-01 5.30344E-26
7.03368E-01 5.16963E-26
7.07347E-01 5.03915E-26
7.11309E-01 4.91190E-26
7.15256E-01 4.78779E-26
7.19186E-01 4.66674E-26
7.23099E-01 4.54865E-26
7.26995E-01 4.43345E-26
7.30874E-01 4.32107E-26
7.34736E-01 4.21141E-26
7.38579E-01 4.10442E-26
7.42405E-01 4.00001E-26
7.46212E-01 3.89813E-26
7.50000E-01 3.79869E-26
7.53769E-01 3.70164E-26
7.57519E-01 3.60692E-26
7.61249E-01 3.51446E-26
7.64960E-01 3.42420E-26
7.68650E-01 3.33609E-26
7.72320E-01 3.25007E-26
7.75968E-01 3.16608E-26
7.79596E-01 3.08408E-26
7.83203E-01 3.00401E-26
7.86788E-01 2.92582E-26
7.90351E-01 2.84947E-26
7.93893E-01 2.77491E-26
7.97411E-01 2.70209E-26
8.00908E-01 2.63096E-26
8.04381E-01 2.56150E-26
8.07831E-01 2.49365E-26
8.11257E-01 2.42738E-26
8.14660E-01 2.36265E-26
8.18039E-01 2.29941E-26
8.21394E-01 2.23764E-26
8.24724E-01 2.17730E-26
8.28030E-01 2.11834E-26
8.31310E-01 2.06075E-26
8.34565E-01 2.00448E-26
8.37795E-01 1.94951E-26
8.40999E-01 1.89580E-26
8.44177E-01 1.84332E-26
8.47329E-01 1.79205E-26
8.50455E-01 1.74196E-26
8.53553E-01 1.69301E-26
8.56625E-01 1.64519E-26
8.59670E-01 1.59846E-26
8.62687E-01 1.55281E-26
8.65677E-01 1.50820E-26
8.68639E-01 1.46462E-26
8.71572E-01 1.42203E-26
8.74478E-01 1.38043E-26
8.77355E-01 1.33978E-26
8.80203E-01 1.30006E-26
8.83022E-01 1.26126E-26
8.85812E-01 1.22335E-26
8.88573E-01 1.18631E-26
8.91304E-01 1.15014E-26
8.94005E-01 1.11479E-26
8.96677E-01 1.08027E-26
8.99318E-01 1.04655E-26
9.01928E-01 1.01361E-26
9.04508E-01 9.81445E-27
9.07058E-01 9.50029E-27
9.09576E-01 9.19349E-27
9.12063E-01 8.89391E-27
9.14519E-01 8.60140E-27
9.16943E-01 8.31581E-27
9.19335E-01 8.03700E-27
9.21696E-01 7.76485E-27
9.24024E-01 7.49921E-27
9.26320E-01 7.23997E-27
9.28584E-01 6.98699E-27
9.30815E-01 6.74016E-27
9.33013E-01 6.49935E-27
9.35178E-01 6.26447E-27
9.37310E-01 6.03538E-27
9.39409E-01 5.81199E-27
9.41474E-01 5.59420E-27
9.43505E-01 5.38189E-27
9.45503E-01 5.17497E-27
9.47467E-01 4.97335E-27
9.49397E-01 4.77694E-27
9.51293E-01 4.58563E-27
9.53154E-01 4.39936E-27
9.54981E-01 4.21802E-27
9.56773E-01 4.04153E-27
9.58530E-01 3.86983E-27
9.60252E-01 3.70282E-27
9.61940E-01 3.54044E-27
9.63592E-01 3.38261E-27
9.65209E-01 3.22926E-27
9.66790E-01 3.08032E-27
9.68336E-01 2.93573E-27
9.69846E-01 2.79542E-27
9.71321E-01 2.65932E-27
9.72759E-01 2.52739E-27
9.74162E-01 2.39956E-27
9.75528E-01 2.27577E-27
9.76858E-01 2.15597E-27
9.78152E-01 2.04011E-27
9.79410E-01 1.92814E-27
9.80631E-01 1.82001E-27
9.81815E-01 1.71566E-27
9.82963E-01 1.61507E-27
9.84074E-01 1.51817E-27
9.85148E-01 1.42494E-27
9.86185E-01 1.33533E-27
9.87185E-01 1.24930E-27
9.88148E-01 1.16681E-27
9.89074E-01 1.08784E-27
9.89962E-01 1.01234E-27
9.90814E-01 9.40281E-28
9.91627E-01 8.71639E-28
9.92404E-01 8.06381E-28
9.93143E-01 7.44478E-28
9.93844E-01 6.85906E-28
9.94508E-01 6.30638E-28
9.95134E-01 5.78652E-28
9.95722E-01 5.29925E-28
9.96273E-01 4.84437E-28
9.96786E-01 4.42170E-28
9.97261E-01 4.03103E-28
9.97698E-01 3.67223E-28
9.98097E-01 3.34513E-28
9.98459E-01 3.04959E-28
9.98782E-01 2.78549E-28
9.99067E-01 2.55273E-28
9.99315E-01 2.35119E-28
9.99524E-01 2.18081E-28
9.99695E-01 2.04150E-28
9.99829E-01 1.93321E-28
9.99924E-01 1.85589E-28
9.99981E-01 1.80951E-28
1.00000E+00 1.79405E-28
