 #
 # Subroutine ELSEPA. Elastic scattering of electrons and positrons
 #                    by neutral atoms and positive ions
 #
 # Projectile: positron
 # Kinetic energy = 3.00000E+08 eV = 1.10248E+07 a.u.
 #
 # WARNING: High-energy factorization with free-atom DF screening.
 #          Absorption, polarization and exchange corrections are
 #          switched off.
 #          Phase shifts are calculated for the bare nucleus.
 #          Scattering amplitudes are not evaluated.
 #
 # Element: Au,  Z =  79,  atomic weight = 1.96967E+02 g/mol
 #
 # Nuclear model: Fermi distribution
 #                Average radius = 6.22560E-13 cm
 #                Skin thickness = 5.46000E-14 cm
 #
 # Number of electrons = 79
 #
 # Total elastic cross section = 7.67549E-18 cm**2 = 2.74097E-01 a0**2
 # 1st transport cross section = 1.28742E-25 cm**2 = 4.59745E-09 a0**2
 # 2nd transport cross section = 3.85793E-25 cm**2 = 1.37769E-08 a0**2
 #
 #
 # Differential cross section:                       MU=(1-COS(THETA))/2
 #
 #  THETA        MU          DCS          DCS        Sherman      error
 #  (deg)                 (cm**2/sr)   (a0**2/sr)    function
 #----------------------------------------------------------------------
0.00000E+00 3.56968E-09
7.61557E-13 3.52042E-09
1.18994E-12 3.49331E-09
1.71346E-12 3.46071E-09
2.33225E-12 3.42292E-09
3.04617E-12 3.37994E-09
3.85530E-12 3.33302E-09
4.75964E-12 3.28139E-09
5.75917E-12 3.22687E-09
6.85391E-12 3.16809E-09
8.04379E-12 3.10729E-09
9.32893E-12 3.04338E-09
1.07092E-11 2.97786E-09
1.21847E-11 2.91053E-09
1.37554E-11 2.84181E-09
1.54213E-11 2.77260E-09
1.71823E-11 2.70204E-09
1.90386E-11 2.63229E-09
2.09900E-11 2.56110E-09
2.30367E-11 2.49158E-09
2.51785E-11 2.42110E-09
2.74156E-11 2.35237E-09
2.97478E-11 2.28375E-09
3.21752E-11 2.21652E-09
3.46979E-11 2.15035E-09
3.73157E-11 2.08517E-09
4.00286E-11 2.02186E-09
4.28368E-11 1.95913E-09
4.57402E-11 1.89893E-09
4.87388E-11 1.83892E-09
5.18325E-11 1.78158E-09
5.50215E-11 1.72485E-09
5.83057E-11 1.67036E-09
6.16850E-11 1.61703E-09
6.51595E-11 1.56545E-09
6.87293E-11 1.51547E-09
7.23943E-11 1.46677E-09
7.61544E-11 1.42003E-09
1.18991E-10 1.02609E-09
1.71347E-10 7.47492E-10
2.33223E-10 5.51135E-10
3.04617E-10 4.06767E-10
3.85531E-10 3.11913E-10
4.75965E-10 2.39111E-10
5.75917E-10 1.88626E-10
6.85389E-10 1.48943E-10
8.04380E-10 1.20262E-10
9.32891E-10 9.77653E-11
1.07092E-09 8.06331E-11
1.21847E-09 6.70810E-11
1.37554E-09 5.63129E-11
1.54213E-09 4.77004E-11
1.71823E-09 4.06093E-11
1.90386E-09 3.48832E-11
2.09900E-09 3.00269E-11
2.30367E-09 2.60590E-11
2.51785E-09 2.26478E-11
2.74156E-09 1.98077E-11
2.97478E-09 1.73642E-11
3.21752E-09 1.52888E-11
3.46978E-09 1.35031E-11
3.73156E-09 1.19620E-11
4.00286E-09 1.06354E-11
4.28368E-09 9.47611E-12
4.57402E-09 8.47667E-12
4.87388E-09 7.59476E-12
5.18326E-09 6.83020E-12
5.50215E-09 6.15429E-12
5.83057E-09 5.56327E-12
6.16850E-09 5.04130E-12
6.51596E-09 4.57864E-12
6.87293E-09 4.16672E-12
7.23942E-09 3.80047E-12
7.61544E-09 3.47492E-12
1.18991E-08 1.57575E-12
1.71347E-08 8.20047E-13
2.33223E-08 4.68857E-13
3.04617E-08 2.87027E-13
3.85531E-08 1.85365E-13
4.75965E-08 1.25031E-13
5.75917E-08 8.73767E-14
6.85389E-08 6.28480E-14
8.04380E-08 4.63589E-14
9.32891E-08 3.49341E-14
1.07092E-07 2.68186E-14
1.21847E-07 2.09323E-14
1.37554E-07 1.65752E-14
1.54213E-07 1.32967E-14
1.71823E-07 1.07917E-14
1.90386E-07 8.84950E-15
2.09900E-07 7.32598E-15
2.30367E-07 6.11685E-15
2.51785E-07 5.14699E-15
2.74156E-07 4.36209E-15
2.97478E-07 3.72107E-15
3.21752E-07 3.19347E-15
3.46978E-07 2.75613E-15
3.73156E-07 2.39095E-15
4.00286E-07 2.08425E-15
4.28368E-07 1.82513E-15
4.57402E-07 1.60495E-15
4.87388E-07 1.41697E-15
5.18325E-07 1.25567E-15
5.50215E-07 1.11665E-15
5.83057E-07 9.96333E-16
6.16850E-07 8.91760E-16
6.51596E-07 8.00542E-16
6.87293E-07 7.20688E-16
7.23942E-07 6.50530E-16
7.61543E-07 5.88704E-16
1.18991E-06 2.43740E-16
1.71347E-06 1.18394E-16
2.33223E-06 6.42430E-17
3.04617E-06 3.78076E-17
3.85531E-06 2.36750E-17
4.75964E-06 1.55700E-17
5.75916E-06 1.06542E-17
6.85388E-06 7.53355E-18
8.04378E-06 5.47587E-18
9.32888E-06 4.07488E-18
1.07092E-05 3.09443E-18
1.21846E-05 2.39178E-18
1.37553E-05 1.87763E-18
1.54212E-05 1.49444E-18
1.71822E-05 1.20415E-18
1.90385E-05 9.80422E-19
2.09899E-05 8.07312E-19
2.30365E-05 6.70633E-19
2.51783E-05 5.61507E-19
2.74153E-05 4.73555E-19
2.97475E-05 4.02096E-19
3.21749E-05 3.43610E-19
3.46974E-05 2.95405E-19
3.73152E-05 2.55398E-19
4.00281E-05 2.21965E-19
4.28362E-05 1.93836E-19
4.57395E-05 1.70022E-19
4.87380E-05 1.49744E-19
5.18317E-05 1.32390E-19
5.50205E-05 1.17469E-19
5.83045E-05 1.04588E-19
6.16838E-05 9.34257E-20
6.51582E-05 8.37151E-20
6.87277E-05 7.52362E-20
7.23925E-05 6.78053E-20
7.61524E-05 6.15426E-20
9.21439E-05 4.20505E-20
1.09658E-04 2.96996E-20
1.28695E-04 2.15705E-20
1.49255E-04 1.60413E-20
1.71338E-04 1.21761E-20
1.94942E-04 9.40781E-21
2.20070E-04 7.38328E-21
2.46720E-04 5.87505E-21
2.74892E-04 4.73285E-21
3.04586E-04 3.85508E-21
3.35803E-04 3.17119E-21
3.68542E-04 2.63219E-21
4.02802E-04 2.20276E-21
4.38585E-04 1.85723E-21
4.75889E-04 1.57666E-21
5.14715E-04 1.34694E-21
5.55063E-04 1.15740E-21
5.96931E-04 9.99897E-22
6.40321E-04 8.68151E-22
6.85233E-04 7.57271E-22
7.31665E-04 6.63420E-22
7.79618E-04 5.83553E-22
8.29092E-04 5.15248E-22
8.80086E-04 4.56556E-22
9.32601E-04 4.05901E-22
9.86636E-04 3.62000E-22
1.04219E-03 3.23804E-22
1.09927E-03 2.90448E-22
1.15786E-03 2.61216E-22
1.21797E-03 2.35514E-22
1.27961E-03 2.12844E-22
1.34276E-03 1.92789E-22
1.40743E-03 1.74997E-22
1.47362E-03 1.59169E-22
1.54133E-03 1.45052E-22
1.61056E-03 1.32431E-22
1.68131E-03 1.21120E-22
1.75357E-03 1.10962E-22
1.82735E-03 1.01817E-22
1.90265E-03 9.35701E-23
1.97947E-03 8.61165E-23
2.05780E-03 7.93679E-23
2.13765E-03 7.32465E-23
2.21902E-03 6.76843E-23
2.30190E-03 6.26218E-23
2.38630E-03 5.80067E-23
2.47222E-03 5.37930E-23
2.55965E-03 4.99401E-23
2.64859E-03 4.64120E-23
2.73905E-03 4.31769E-23
2.83103E-03 4.02065E-23
2.92452E-03 3.74757E-23
3.01952E-03 3.49620E-23
3.11604E-03 3.26454E-23
3.21407E-03 3.05080E-23
3.31362E-03 2.85337E-23
3.41468E-03 2.67082E-23
3.51725E-03 2.50184E-23
3.62133E-03 2.34526E-23
3.72692E-03 2.20004E-23
3.83403E-03 2.06523E-23
3.94265E-03 1.93996E-23
4.05278E-03 1.82345E-23
4.16442E-03 1.71500E-23
4.27757E-03 1.61397E-23
4.39223E-03 1.51977E-23
4.50840E-03 1.43188E-23
4.62608E-03 1.34980E-23
4.74527E-03 1.27310E-23
4.86597E-03 1.20137E-23
4.98817E-03 1.13424E-23
5.11188E-03 1.07138E-23
5.23711E-03 1.01248E-23
5.36383E-03 9.57244E-24
5.49207E-03 9.05420E-24
5.62181E-03 8.56766E-24
5.75306E-03 8.11062E-24
5.88581E-03 7.68103E-24
6.02007E-03 7.27703E-24
6.15583E-03 6.89689E-24
6.29310E-03 6.53900E-24
6.43187E-03 6.20190E-24
6.57214E-03 5.88421E-24
6.71392E-03 5.58467E-24
6.85720E-03 5.30211E-24
7.00198E-03 5.03545E-24
7.14827E-03 4.78367E-24
7.29605E-03 4.54584E-24
7.44534E-03 4.32110E-24
7.59612E-03 4.10863E-24
7.97965E-03 3.62636E-24
8.37255E-03 3.20583E-24
8.77480E-03 2.83830E-24
9.18641E-03 2.51640E-24
9.60736E-03 2.23391E-24
1.00376E-02 1.98553E-24
1.04773E-02 1.76675E-24
1.09262E-02 1.57373E-24
1.13844E-02 1.40316E-24
1.18520E-02 1.25221E-24
1.23288E-02 1.11844E-24
1.28150E-02 9.99734E-25
1.33104E-02 8.94277E-25
1.38150E-02 8.00478E-25
1.43290E-02 7.16961E-25
1.48521E-02 6.42522E-25
1.53845E-02 5.76114E-25
1.59262E-02 5.16818E-25
1.64770E-02 4.63828E-25
1.70371E-02 4.16439E-25
1.76063E-02 3.74027E-25
1.81848E-02 3.36046E-25
1.87724E-02 3.02012E-25
1.93692E-02 2.71497E-25
1.99751E-02 2.44124E-25
2.05901E-02 2.19557E-25
2.12143E-02 1.97500E-25
2.18476E-02 1.77687E-25
2.24900E-02 1.59885E-25
2.31415E-02 1.43883E-25
2.38021E-02 1.29497E-25
2.44717E-02 1.16559E-25
2.51504E-02 1.04922E-25
2.58382E-02 9.44518E-26
2.65349E-02 8.50308E-26
2.72407E-02 7.65525E-26
2.79555E-02 6.89219E-26
2.86793E-02 6.20535E-26
2.94120E-02 5.58710E-26
3.01537E-02 5.03057E-26
3.09043E-02 4.52959E-26
3.16639E-02 4.07862E-26
3.24324E-02 3.67269E-26
3.32098E-02 3.30731E-26
3.39961E-02 2.97845E-26
3.47912E-02 2.68249E-26
3.55952E-02 2.41616E-26
3.64081E-02 2.17651E-26
3.72297E-02 1.96091E-26
3.80602E-02 1.76696E-26
3.88995E-02 1.59251E-26
3.97476E-02 1.43562E-26
4.06044E-02 1.29454E-26
4.14700E-02 1.16769E-26
4.23443E-02 1.05366E-26
4.32273E-02 9.51161E-27
4.41190E-02 8.59036E-27
4.50194E-02 7.76245E-27
4.59284E-02 7.01848E-27
4.68461E-02 6.34998E-27
4.87074E-02 5.20962E-27
5.06030E-02 4.28891E-27
5.25328E-02 3.54528E-27
5.44967E-02 2.94421E-27
5.64946E-02 2.45778E-27
5.85262E-02 2.06338E-27
6.05914E-02 1.74279E-27
6.26901E-02 1.48132E-27
6.48222E-02 1.26717E-27
6.69873E-02 1.09088E-27
6.91854E-02 9.44872E-28
7.14163E-02 8.23115E-28
7.36799E-02 7.20802E-28
7.59760E-02 6.34120E-28
7.83043E-02 5.60052E-28
8.06647E-02 4.96218E-28
8.30571E-02 4.40740E-28
8.54812E-02 3.92144E-28
8.79369E-02 3.49271E-28
9.04240E-02 3.11210E-28
9.29422E-02 2.77243E-28
9.54915E-02 2.46803E-28
9.80716E-02 2.19440E-28
1.00682E-01 1.94791E-28
1.03323E-01 1.72562E-28
1.05995E-01 1.52510E-28
1.08696E-01 1.34433E-28
1.11427E-01 1.18154E-28
1.14188E-01 1.03522E-28
1.16978E-01 9.03996E-29
1.19797E-01 7.86646E-29
1.22645E-01 6.82033E-29
1.25522E-01 5.89100E-29
1.28428E-01 5.06860E-29
1.31361E-01 4.34381E-29
1.34323E-01 3.70784E-29
1.37313E-01 3.15239E-29
1.40330E-01 2.66962E-29
1.43375E-01 2.25219E-29
1.46447E-01 1.89319E-29
1.49545E-01 1.58618E-29
1.52671E-01 1.32519E-29
1.55823E-01 1.10470E-29
1.59001E-01 9.19636E-30
1.62205E-01 7.65374E-30
1.65435E-01 6.37710E-30
1.68690E-01 5.32854E-30
1.71970E-01 4.47409E-30
1.75276E-01 3.78350E-30
1.78606E-01 3.23003E-30
1.81961E-01 2.79021E-30
1.85340E-01 2.44358E-30
1.88743E-01 2.17247E-30
1.92169E-01 1.96174E-30
1.95619E-01 1.79852E-30
1.99092E-01 1.67201E-30
2.02589E-01 1.57322E-30
2.06107E-01 1.49480E-30
2.09649E-01 1.43076E-30
2.13212E-01 1.37639E-30
2.16797E-01 1.32799E-30
2.20404E-01 1.28276E-30
2.24032E-01 1.23865E-30
2.27680E-01 1.19424E-30
2.31350E-01 1.14860E-30
2.35040E-01 1.10122E-30
2.38751E-01 1.05190E-30
2.42481E-01 1.00069E-30
2.46231E-01 9.47816E-31
2.50000E-01 8.93629E-31
2.53788E-01 8.38561E-31
2.57595E-01 7.83090E-31
2.61421E-01 7.27704E-31
2.65264E-01 6.72884E-31
2.69126E-01 6.19086E-31
2.73005E-01 5.66723E-31
2.76901E-01 5.16163E-31
2.80814E-01 4.67720E-31
2.84744E-01 4.21652E-31
2.88691E-01 3.78162E-31
2.92653E-01 3.37397E-31
2.96632E-01 2.99455E-31
3.00625E-01 2.64382E-31
3.04634E-01 2.32186E-31
3.08658E-01 2.02833E-31
3.12697E-01 1.76256E-31
3.16749E-01 1.52362E-31
3.20816E-01 1.31033E-31
3.24896E-01 1.12134E-31
3.28990E-01 9.55169E-32
3.33097E-01 8.10218E-32
3.37216E-01 6.84851E-32
3.41348E-01 5.77398E-32
3.45492E-01 4.86195E-32
3.49647E-01 4.09610E-32
3.53814E-01 3.46055E-32
3.57992E-01 2.94012E-32
3.62181E-01 2.52042E-32
3.66381E-01 2.18794E-32
3.70590E-01 1.93015E-32
3.74810E-01 1.73551E-32
3.79039E-01 1.59352E-32
3.83277E-01 1.49469E-32
3.87524E-01 1.43055E-32
3.91780E-01 1.39360E-32
3.96044E-01 1.37728E-32
4.00316E-01 1.37593E-32
4.04596E-01 1.38468E-32
4.08882E-01 1.39947E-32
4.13176E-01 1.41691E-32
4.17476E-01 1.43426E-32
4.21783E-01 1.44936E-32
4.26095E-01 1.46055E-32
4.30413E-01 1.46663E-32
4.34737E-01 1.46676E-32
4.39065E-01 1.46046E-32
4.43398E-01 1.44753E-32
4.47736E-01 1.42799E-32
4.52077E-01 1.40206E-32
4.56422E-01 1.37011E-32
4.60770E-01 1.33262E-32
4.65122E-01 1.29015E-32
4.69476E-01 1.24334E-32
4.73832E-01 1.19285E-32
4.78190E-01 1.13933E-32
4.82550E-01 1.08346E-32
4.86912E-01 1.02590E-32
4.91274E-01 9.67260E-33
4.95637E-01 9.08129E-33
5.00000E-01 8.49049E-33
5.04363E-01 7.90513E-33
5.08726E-01 7.32963E-33
5.13088E-01 6.76790E-33
5.17450E-01 6.22331E-33
5.21810E-01 5.69871E-33
5.26168E-01 5.19645E-33
5.30524E-01 4.71841E-33
5.34878E-01 4.26601E-33
5.39230E-01 3.84024E-33
5.43578E-01 3.44173E-33
5.47923E-01 3.07075E-33
5.52264E-01 2.72724E-33
5.56602E-01 2.41089E-33
5.60935E-01 2.12114E-33
5.65263E-01 1.85724E-33
5.69587E-01 1.61824E-33
5.73905E-01 1.40307E-33
5.78217E-01 1.21057E-33
5.82524E-01 1.03945E-33
5.86824E-01 8.88398E-34
5.91118E-01 7.56057E-34
5.95404E-01 6.41050E-34
5.99684E-01 5.42003E-34
6.03956E-01 4.57560E-34
6.08220E-01 3.86393E-34
6.12476E-01 3.27213E-34
6.16723E-01 2.78782E-34
6.20961E-01 2.39921E-34
6.25190E-01 2.09509E-34
6.29410E-01 1.86493E-34
6.33619E-01 1.69890E-34
6.37819E-01 1.58786E-34
6.42008E-01 1.52338E-34
6.46186E-01 1.49777E-34
6.50353E-01 1.50399E-34
6.54508E-01 1.53571E-34
6.58652E-01 1.58725E-34
6.62784E-01 1.65355E-34
6.66903E-01 1.73015E-34
6.71010E-01 1.81315E-34
6.75104E-01 1.89917E-34
6.79184E-01 1.98535E-34
6.83251E-01 2.06924E-34
6.87303E-01 2.14884E-34
6.91342E-01 2.22251E-34
6.95366E-01 2.28896E-34
6.99375E-01 2.34720E-34
7.03368E-01 2.39653E-34
7.07347E-01 2.43647E-34
7.11309E-01 2.46678E-34
7.15256E-01 2.48738E-34
7.19186E-01 2.49838E-34
7.23099E-01 2.49998E-34
7.26995E-01 2.49252E-34
7.30874E-01 2.47643E-34
7.34736E-01 2.45221E-34
7.38579E-01 2.42040E-34
7.42405E-01 2.38161E-34
7.46212E-01 2.33644E-34
7.50000E-01 2.28555E-34
7.53769E-01 2.22956E-34
7.57519E-01 2.16912E-34
7.61249E-01 2.10485E-34
7.64960E-01 2.03737E-34
7.68650E-01 1.96726E-34
7.72320E-01 1.89507E-34
7.75968E-01 1.82135E-34
7.79596E-01 1.74658E-34
7.83203E-01 1.67123E-34
7.86788E-01 1.59574E-34
7.90351E-01 1.52049E-34
7.93893E-01 1.44583E-34
7.97411E-01 1.37210E-34
8.00908E-01 1.29958E-34
8.04381E-01 1.22852E-34
8.07831E-01 1.15914E-34
8.11257E-01 1.09163E-34
8.14660E-01 1.02616E-34
8.18039E-01 9.62847E-35
8.21394E-01 9.01813E-35
8.24724E-01 8.43128E-35
8.28030E-01 7.86860E-35
8.31310E-01 7.33044E-35
8.34565E-01 6.81707E-35
8.37795E-01 6.32843E-35
8.40999E-01 5.86452E-35
8.44177E-01 5.42510E-35
8.47329E-01 5.00972E-35
8.50455E-01 4.61803E-35
8.53553E-01 4.24939E-35
8.56625E-01 3.90325E-35
8.59670E-01 3.57884E-35
8.62687E-01 3.27545E-35
8.65677E-01 2.99231E-35
8.68639E-01 2.72863E-35
8.71572E-01 2.48352E-35
8.74478E-01 2.25617E-35
8.77355E-01 2.04571E-35
8.80203E-01 1.85126E-35
8.83022E-01 1.67200E-35
8.85812E-01 1.50704E-35
8.88573E-01 1.35560E-35
8.91304E-01 1.21685E-35
8.94005E-01 1.08997E-35
8.96677E-01 9.74210E-36
8.99318E-01 8.68874E-36
9.01928E-01 7.73166E-36
9.04508E-01 6.86467E-36
9.07058E-01 6.08072E-36
9.09576E-01 5.37390E-36
9.12063E-01 4.73802E-36
9.14519E-01 4.16768E-36
9.16943E-01 3.65730E-36
9.19335E-01 3.20204E-36
9.21696E-01 2.79698E-36
9.24024E-01 2.43777E-36
9.26320E-01 2.12020E-36
9.28584E-01 1.84061E-36
9.30815E-01 1.59511E-36
9.33013E-01 1.38046E-36
9.35178E-01 1.19354E-36
9.37310E-01 1.03152E-36
9.39409E-01 8.91685E-37
9.41474E-01 7.71638E-37
9.43505E-01 6.69071E-37
9.45503E-01 5.82033E-37
9.47467E-01 5.08601E-37
9.49397E-01 4.47104E-37
9.51293E-01 3.95956E-37
9.53154E-01 3.53811E-37
9.54981E-01 3.19398E-37
9.56773E-01 2.91571E-37
9.58530E-01 2.69329E-37
9.60252E-01 2.51770E-37
9.61940E-01 2.38085E-37
9.63592E-01 2.27579E-37
9.65209E-01 2.19616E-37
9.66790E-01 2.13659E-37
9.68336E-01 2.09231E-37
9.69846E-01 2.05907E-37
9.71321E-01 2.03352E-37
9.72759E-01 2.01267E-37
9.74162E-01 1.99405E-37
9.75528E-01 1.97573E-37
9.76858E-01 1.95576E-37
9.78152E-01 1.93313E-37
9.79410E-01 1.90645E-37
9.80631E-01 1.87490E-37
9.81815E-01 1.83876E-37
9.82963E-01 1.79695E-37
9.84074E-01 1.74985E-37
9.85148E-01 1.69706E-37
9.86185E-01 1.63908E-37
9.87185E-01 1.57596E-37
9.88148E-01 1.50817E-37
9.89074E-01 1.43637E-37
9.89962E-01 1.36081E-37
9.90814E-01 1.28229E-37
9.91627E-01 1.20140E-37
9.92404E-01 1.11860E-37
9.93143E-01 1.03502E-37
9.93844E-01 9.50434E-38
9.94508E-01 8.66490E-38
9.95134E-01 7.83093E-38
9.95722E-01 7.01577E-38
9.96273E-01 6.21691E-38
9.96786E-01 5.44857E-38
9.97261E-01 4.71158E-38
9.97698E-01 4.01413E-38
9.98097E-01 3.35856E-38
9.98459E-01 2.75092E-38
9.98782E-01 2.19606E-38
9.99067E-01 1.69723E-38
9.99315E-01 1.26077E-38
9.99524E-01 8.80067E-39
9.99695E-01 5.69073E-39
9.99829E-01 3.24365E-39
9.99924E-01 1.48280E-39
9.99981E-01 4.14298E-40
1.00000E+00 5.71436E-41
