 #
 # Subroutine ELSEPA. Elastic scattering of electrons and positrons
 #                    by neutral atoms and positive ions
 #
 # Projectile: positron
 # Kinetic energy = 1.00000E+08 eV = 3.67493E+06 a.u.
 #
 # WARNING: High-energy factorization with free-atom DF screening.
 #          Absorption, polarization and exchange corrections are
 #          switched off.
 #          Phase shifts are calculated for the bare nucleus.
 #          Scattering amplitudes are not evaluated.
 #
 # Element: Au,  Z =  79,  atomic weight = 1.96967E+02 g/mol
 #
 # Nuclear model: Fermi distribution
 #                Average radius = 6.22560E-13 cm
 #                Skin thickness = 5.46000E-14 cm
 #
 # Number of electrons = 79
 #
 # Total elastic cross section = 7.67903E-18 cm**2 = 2.74223E-01 a0**2
 # 1st transport cross section = 1.12435E-24 cm**2 = 4.01512E-08 a0**2
 # 2nd transport cross section = 3.34140E-24 cm**2 = 1.19324E-07 a0**2
 #
 #
 # Differential cross section:                       MU=(1-COS(THETA))/2
 #
 #  THETA        MU          DCS          DCS        Sherman      error
 #  (deg)                 (cm**2/sr)   (a0**2/sr)    function
 #----------------------------------------------------------------------
0.00000E+00 3.99333E-10
7.61557E-13 3.98706E-10
1.18994E-12 3.98355E-10
1.71346E-12 3.97928E-10
2.33225E-12 3.97425E-10
3.04617E-12 3.96846E-10
3.85530E-12 3.96191E-10
4.75964E-12 3.95463E-10
5.75917E-12 3.94660E-10
6.85391E-12 3.93785E-10
8.04379E-12 3.92838E-10
9.32893E-12 3.91820E-10
1.07092E-11 3.90732E-10
1.21847E-11 3.89576E-10
1.37554E-11 3.88352E-10
1.54213E-11 3.87062E-10
1.71823E-11 3.85707E-10
1.90386E-11 3.84288E-10
2.09900E-11 3.82807E-10
2.30367E-11 3.81262E-10
2.51785E-11 3.79640E-10
2.74156E-11 3.77969E-10
2.97478E-11 3.76253E-10
3.21752E-11 3.74493E-10
3.46979E-11 3.72692E-10
3.73157E-11 3.70804E-10
4.00286E-11 3.68859E-10
4.28368E-11 3.66880E-10
4.57402E-11 3.64869E-10
4.87388E-11 3.62829E-10
5.18325E-11 3.60741E-10
5.50215E-11 3.58560E-10
5.83057E-11 3.56358E-10
6.16850E-11 3.54136E-10
6.51595E-11 3.51896E-10
6.87293E-11 3.49642E-10
7.23943E-11 3.47291E-10
7.61544E-11 3.44906E-10
1.18991E-10 3.20072E-10
1.71347E-10 2.93947E-10
2.33223E-10 2.67679E-10
3.04617E-10 2.42320E-10
3.85531E-10 2.18461E-10
4.75965E-10 1.96424E-10
5.75917E-10 1.76331E-10
6.85389E-10 1.58168E-10
8.04380E-10 1.41805E-10
9.32891E-10 1.27186E-10
1.07092E-09 1.14159E-10
1.21847E-09 1.02568E-10
1.37554E-09 9.22631E-11
1.54213E-09 8.30985E-11
1.71823E-09 7.49335E-11
1.90386E-09 6.76752E-11
2.09900E-09 6.12180E-11
2.30367E-09 5.53790E-11
2.51785E-09 4.98536E-11
2.74156E-09 4.51483E-11
2.97478E-09 4.11172E-11
3.21752E-09 3.76438E-11
3.46978E-09 3.46347E-11
3.73156E-09 3.16485E-11
4.00286E-09 2.89092E-11
4.28368E-09 2.65202E-11
4.57402E-09 2.44271E-11
4.87388E-09 2.25853E-11
5.18326E-09 2.09043E-11
5.50215E-09 1.92609E-11
5.83057E-09 1.78054E-11
6.16850E-09 1.65118E-11
6.51596E-09 1.53581E-11
6.87293E-09 1.43258E-11
7.23942E-09 1.33244E-11
7.61544E-09 1.24062E-11
1.18991E-08 6.61190E-12
1.71347E-08 3.86358E-12
2.33223E-08 2.39668E-12
3.04617E-08 1.55581E-12
3.85531E-08 1.04779E-12
4.75965E-08 7.28927E-13
5.75917E-08 5.22532E-13
6.85389E-08 3.84065E-13
8.04380E-08 2.89263E-13
9.32891E-08 2.22492E-13
1.07092E-07 1.74132E-13
1.21847E-07 1.38306E-13
1.37554E-07 1.11292E-13
1.54213E-07 9.06091E-14
1.71823E-07 7.45348E-14
1.90386E-07 6.18771E-14
2.09900E-07 5.17918E-14
2.30367E-07 4.36685E-14
2.51785E-07 3.70599E-14
2.74156E-07 3.17052E-14
2.97478E-07 2.72412E-14
3.21752E-07 2.35632E-14
3.46978E-07 2.04693E-14
3.73156E-07 1.78756E-14
4.00286E-07 1.56763E-14
4.28368E-07 1.38060E-14
4.57402E-07 1.22074E-14
4.87388E-07 1.08310E-14
5.18325E-07 9.64617E-15
5.50215E-07 8.61537E-15
5.83057E-07 7.72213E-15
6.16850E-07 6.93790E-15
6.51596E-07 6.25344E-15
6.87293E-07 5.64912E-15
7.23942E-07 5.11737E-15
7.61543E-07 4.64590E-15
1.18991E-06 1.97415E-15
1.71347E-06 9.76379E-16
2.33223E-06 5.36912E-16
3.04617E-06 3.19081E-16
3.85531E-06 2.01262E-16
4.75964E-06 1.33084E-16
5.75916E-06 9.14537E-17
6.85388E-06 6.48890E-17
8.04378E-06 4.73008E-17
9.32888E-06 3.52863E-17
1.07092E-05 2.68549E-17
1.21846E-05 2.07978E-17
1.37553E-05 1.63562E-17
1.54212E-05 1.30394E-17
1.71822E-05 1.05224E-17
1.90385E-05 8.57928E-18
2.09899E-05 7.07353E-18
2.30365E-05 5.88293E-18
2.51783E-05 4.93108E-18
2.74153E-05 4.16296E-18
2.97475E-05 3.53811E-18
3.21749E-05 3.02613E-18
3.46974E-05 2.60372E-18
3.73152E-05 2.25281E-18
4.00281E-05 1.95928E-18
4.28362E-05 1.71212E-18
4.57395E-05 1.50270E-18
4.87380E-05 1.32423E-18
5.18317E-05 1.17138E-18
5.50205E-05 1.03989E-18
5.83045E-05 9.26294E-19
6.16838E-05 8.27792E-19
6.51582E-05 7.42057E-19
6.87277E-05 6.67155E-19
7.23925E-05 6.01479E-19
7.61524E-05 5.43782E-19
9.21439E-05 3.71669E-19
1.09658E-04 2.62520E-19
1.28695E-04 1.90643E-19
1.49255E-04 1.41742E-19
1.71338E-04 1.07554E-19
1.94942E-04 8.30709E-20
2.20070E-04 6.51692E-20
2.46720E-04 5.18364E-20
2.74892E-04 4.17425E-20
3.04586E-04 3.39881E-20
3.35803E-04 2.79519E-20
3.68542E-04 2.31969E-20
4.02802E-04 1.94103E-20
4.38585E-04 1.63651E-20
4.75889E-04 1.38936E-20
5.14715E-04 1.18710E-20
5.55063E-04 1.02030E-20
5.96931E-04 8.81764E-21
6.40321E-04 7.65930E-21
6.85233E-04 6.68481E-21
7.31665E-04 5.86029E-21
7.79618E-04 5.15886E-21
8.29092E-04 4.55915E-21
8.80086E-04 4.04397E-21
9.32601E-04 3.59941E-21
9.86636E-04 3.21420E-21
1.04219E-03 2.87908E-21
1.09927E-03 2.58644E-21
1.15786E-03 2.32997E-21
1.21797E-03 2.10445E-21
1.27961E-03 1.90551E-21
1.34276E-03 1.72948E-21
1.40743E-03 1.57327E-21
1.47362E-03 1.43426E-21
1.54133E-03 1.31023E-21
1.61056E-03 1.19929E-21
1.68131E-03 1.09981E-21
1.75357E-03 1.01041E-21
1.82735E-03 9.29879E-22
1.90265E-03 8.57191E-22
1.97947E-03 7.91446E-22
2.05780E-03 7.31864E-22
2.13765E-03 6.77767E-22
2.21902E-03 6.28559E-22
2.30190E-03 5.83721E-22
2.38630E-03 5.42797E-22
2.47222E-03 5.05385E-22
2.55965E-03 4.71132E-22
2.64859E-03 4.39726E-22
2.73905E-03 4.10864E-22
2.83103E-03 3.84319E-22
2.92452E-03 3.59873E-22
3.01952E-03 3.37330E-22
3.11604E-03 3.16516E-22
3.21407E-03 2.97274E-22
3.31362E-03 2.79464E-22
3.41468E-03 2.62961E-22
3.51725E-03 2.47650E-22
3.62133E-03 2.33431E-22
3.72692E-03 2.20211E-22
3.83403E-03 2.07908E-22
3.94265E-03 1.96447E-22
4.05278E-03 1.85758E-22
4.16442E-03 1.75782E-22
4.27757E-03 1.66462E-22
4.39223E-03 1.57746E-22
4.50840E-03 1.49589E-22
4.62608E-03 1.41949E-22
4.74527E-03 1.34785E-22
4.86597E-03 1.28065E-22
4.98817E-03 1.21754E-22
5.11188E-03 1.15824E-22
5.23711E-03 1.10247E-22
5.36383E-03 1.04998E-22
5.49207E-03 1.00056E-22
5.62181E-03 9.53974E-23
5.75306E-03 9.10043E-23
5.88581E-03 8.68586E-23
6.02007E-03 8.29438E-23
6.15583E-03 7.92447E-23
6.29310E-03 7.57471E-23
6.43187E-03 7.24382E-23
6.57214E-03 6.93059E-23
6.71392E-03 6.63391E-23
6.85720E-03 6.35274E-23
7.00198E-03 6.08612E-23
7.14827E-03 5.83316E-23
7.29605E-03 5.59304E-23
7.44534E-03 5.36498E-23
7.59612E-03 5.14826E-23
7.97965E-03 4.65186E-23
8.37255E-03 4.21306E-23
8.77480E-03 3.82408E-23
9.18641E-03 3.47830E-23
9.60736E-03 3.17012E-23
1.00376E-02 2.89477E-23
1.04773E-02 2.64817E-23
1.09262E-02 2.42681E-23
1.13844E-02 2.22767E-23
1.18520E-02 2.04815E-23
1.23288E-02 1.88599E-23
1.28150E-02 1.73922E-23
1.33104E-02 1.60615E-23
1.38150E-02 1.48527E-23
1.43290E-02 1.37528E-23
1.48521E-02 1.27505E-23
1.53845E-02 1.18354E-23
1.59262E-02 1.09989E-23
1.64770E-02 1.02330E-23
1.70371E-02 9.53075E-24
1.76063E-02 8.88599E-24
1.81848E-02 8.29321E-24
1.87724E-02 7.74754E-24
1.93692E-02 7.24460E-24
1.99751E-02 6.78049E-24
2.05901E-02 6.35172E-24
2.12143E-02 5.95515E-24
2.18476E-02 5.58795E-24
2.24900E-02 5.24761E-24
2.31415E-02 4.93182E-24
2.38021E-02 4.63853E-24
2.44717E-02 4.36587E-24
2.51504E-02 4.11215E-24
2.58382E-02 3.87584E-24
2.65349E-02 3.65555E-24
2.72407E-02 3.45002E-24
2.79555E-02 3.25810E-24
2.86793E-02 3.07874E-24
2.94120E-02 2.91099E-24
3.01537E-02 2.75398E-24
3.09043E-02 2.60691E-24
3.16639E-02 2.46904E-24
3.24324E-02 2.33972E-24
3.32098E-02 2.21832E-24
3.39961E-02 2.10429E-24
3.47912E-02 1.99711E-24
3.55952E-02 1.89630E-24
3.64081E-02 1.80142E-24
3.72297E-02 1.71208E-24
3.80602E-02 1.62789E-24
3.88995E-02 1.54851E-24
3.97476E-02 1.47363E-24
4.06044E-02 1.40295E-24
4.14700E-02 1.33621E-24
4.23443E-02 1.27314E-24
4.32273E-02 1.21351E-24
4.41190E-02 1.15712E-24
4.50194E-02 1.10375E-24
4.59284E-02 1.05322E-24
4.68461E-02 1.00536E-24
4.87074E-02 9.17002E-25
5.06030E-02 8.37509E-25
5.25328E-02 7.65870E-25
5.44967E-02 7.01204E-25
5.64946E-02 6.42739E-25
5.85262E-02 5.89801E-25
6.05914E-02 5.41798E-25
6.26901E-02 4.98209E-25
6.48222E-02 4.58575E-25
6.69873E-02 4.22491E-25
6.91854E-02 3.89599E-25
7.14163E-02 3.59579E-25
7.36799E-02 3.32151E-25
7.59760E-02 3.07062E-25
7.83043E-02 2.84088E-25
8.06647E-02 2.63030E-25
8.30571E-02 2.43708E-25
8.54812E-02 2.25962E-25
8.79369E-02 2.09649E-25
9.04240E-02 1.94640E-25
9.29422E-02 1.80818E-25
9.54915E-02 1.68080E-25
9.80716E-02 1.56329E-25
1.00682E-01 1.45482E-25
1.03323E-01 1.35462E-25
1.05995E-01 1.26198E-25
1.08696E-01 1.17628E-25
1.11427E-01 1.09694E-25
1.14188E-01 1.02344E-25
1.16978E-01 9.55301E-26
1.19797E-01 8.92102E-26
1.22645E-01 8.33446E-26
1.25522E-01 7.78974E-26
1.28428E-01 7.28359E-26
1.31361E-01 6.81303E-26
1.34323E-01 6.37531E-26
1.37313E-01 5.96794E-26
1.40330E-01 5.58861E-26
1.43375E-01 5.23523E-26
1.46447E-01 4.90587E-26
1.49545E-01 4.59874E-26
1.52671E-01 4.31223E-26
1.55823E-01 4.04484E-26
1.59001E-01 3.79517E-26
1.62205E-01 3.56197E-26
1.65435E-01 3.34405E-26
1.68690E-01 3.14034E-26
1.71970E-01 2.94984E-26
1.75276E-01 2.77163E-26
1.78606E-01 2.60486E-26
1.81961E-01 2.44873E-26
1.85340E-01 2.30252E-26
1.88743E-01 2.16555E-26
1.92169E-01 2.03721E-26
1.95619E-01 1.91690E-26
1.99092E-01 1.80409E-26
2.02589E-01 1.69829E-26
2.06107E-01 1.59902E-26
2.09649E-01 1.50586E-26
2.13212E-01 1.41841E-26
2.16797E-01 1.33630E-26
2.20404E-01 1.25918E-26
2.24032E-01 1.18673E-26
2.27680E-01 1.11865E-26
2.31350E-01 1.05466E-26
2.35040E-01 9.94506E-27
2.38751E-01 9.37938E-27
2.42481E-01 8.84733E-27
2.46231E-01 8.34680E-27
2.50000E-01 7.87582E-27
2.53788E-01 7.43257E-27
2.57595E-01 7.01531E-27
2.61421E-01 6.62246E-27
2.65264E-01 6.25250E-27
2.69126E-01 5.90405E-27
2.73005E-01 5.57578E-27
2.76901E-01 5.26648E-27
2.80814E-01 4.97500E-27
2.84744E-01 4.70026E-27
2.88691E-01 4.44127E-27
2.92653E-01 4.19706E-27
2.96632E-01 3.96677E-27
3.00625E-01 3.74957E-27
3.04634E-01 3.54468E-27
3.08658E-01 3.35138E-27
3.12697E-01 3.16898E-27
3.16749E-01 2.99684E-27
3.20816E-01 2.83437E-27
3.24896E-01 2.68099E-27
3.28990E-01 2.53618E-27
3.33097E-01 2.39945E-27
3.37216E-01 2.27032E-27
3.41348E-01 2.14836E-27
3.45492E-01 2.03315E-27
3.49647E-01 1.92431E-27
3.53814E-01 1.82147E-27
3.57992E-01 1.72429E-27
3.62181E-01 1.63245E-27
3.66381E-01 1.54565E-27
3.70590E-01 1.46359E-27
3.74810E-01 1.38602E-27
3.79039E-01 1.31267E-27
3.83277E-01 1.24332E-27
3.87524E-01 1.17773E-27
3.91780E-01 1.11569E-27
3.96044E-01 1.05702E-27
4.00316E-01 1.00151E-27
4.04596E-01 9.48995E-28
4.08882E-01 8.99308E-28
4.13176E-01 8.52291E-28
4.17476E-01 8.07797E-28
4.21783E-01 7.65686E-28
4.26095E-01 7.25827E-28
4.30413E-01 6.88096E-28
4.34737E-01 6.52377E-28
4.39065E-01 6.18559E-28
4.43398E-01 5.86538E-28
4.47736E-01 5.56216E-28
4.52077E-01 5.27501E-28
4.56422E-01 5.00304E-28
4.60770E-01 4.74545E-28
4.65122E-01 4.50145E-28
4.69476E-01 4.27029E-28
4.73832E-01 4.05130E-28
4.78190E-01 3.84381E-28
4.82550E-01 3.64720E-28
4.86912E-01 3.46089E-28
4.91274E-01 3.28432E-28
4.95637E-01 3.11698E-28
5.00000E-01 2.95837E-28
5.04363E-01 2.80802E-28
5.08726E-01 2.66549E-28
5.13088E-01 2.53036E-28
5.17450E-01 2.40225E-28
5.21810E-01 2.28078E-28
5.26168E-01 2.16560E-28
5.30524E-01 2.05636E-28
5.34878E-01 1.95277E-28
5.39230E-01 1.85452E-28
5.43578E-01 1.76133E-28
5.47923E-01 1.67293E-28
5.52264E-01 1.58907E-28
5.56602E-01 1.50951E-28
5.60935E-01 1.43403E-28
5.65263E-01 1.36241E-28
5.69587E-01 1.29446E-28
5.73905E-01 1.22997E-28
5.78217E-01 1.16877E-28
5.82524E-01 1.11069E-28
5.86824E-01 1.05556E-28
5.91118E-01 1.00323E-28
5.95404E-01 9.53557E-29
5.99684E-01 9.06403E-29
6.03956E-01 8.61635E-29
6.08220E-01 8.19132E-29
6.12476E-01 7.78775E-29
6.16723E-01 7.40453E-29
6.20961E-01 7.04063E-29
6.25190E-01 6.69504E-29
6.29410E-01 6.36682E-29
6.33619E-01 6.05508E-29
6.37819E-01 5.75897E-29
6.42008E-01 5.47770E-29
6.46186E-01 5.21049E-29
6.50353E-01 4.95664E-29
6.54508E-01 4.71546E-29
6.58652E-01 4.48630E-29
6.62784E-01 4.26856E-29
6.66903E-01 4.06164E-29
6.71010E-01 3.86500E-29
6.75104E-01 3.67811E-29
6.79184E-01 3.50049E-29
6.83251E-01 3.33166E-29
6.87303E-01 3.17118E-29
6.91342E-01 3.01861E-29
6.95366E-01 2.87358E-29
6.99375E-01 2.73568E-29
7.03368E-01 2.60457E-29
7.07347E-01 2.47990E-29
7.11309E-01 2.36135E-29
7.15256E-01 2.24861E-29
7.19186E-01 2.14139E-29
7.23099E-01 2.03941E-29
7.26995E-01 1.94241E-29
7.30874E-01 1.85014E-29
7.34736E-01 1.76236E-29
7.38579E-01 1.67885E-29
7.42405E-01 1.59939E-29
7.46212E-01 1.52379E-29
7.50000E-01 1.45186E-29
7.53769E-01 1.38340E-29
7.57519E-01 1.31825E-29
7.61249E-01 1.25624E-29
7.64960E-01 1.19722E-29
7.68650E-01 1.14104E-29
7.72320E-01 1.08756E-29
7.75968E-01 1.03664E-29
7.79596E-01 9.88162E-30
7.83203E-01 9.42003E-30
7.86788E-01 8.98049E-30
7.90351E-01 8.56190E-30
7.93893E-01 8.16325E-30
7.97411E-01 7.78355E-30
8.00908E-01 7.42188E-30
8.04381E-01 7.07735E-30
8.07831E-01 6.74912E-30
8.11257E-01 6.43640E-30
8.14660E-01 6.13844E-30
8.18039E-01 5.85450E-30
8.21394E-01 5.58392E-30
8.24724E-01 5.32603E-30
8.28030E-01 5.08024E-30
8.31310E-01 4.84594E-30
8.34565E-01 4.62258E-30
8.37795E-01 4.40963E-30
8.40999E-01 4.20659E-30
8.44177E-01 4.01299E-30
8.47329E-01 3.82836E-30
8.50455E-01 3.65228E-30
8.53553E-01 3.48434E-30
8.56625E-01 3.32414E-30
8.59670E-01 3.17131E-30
8.62687E-01 3.02551E-30
8.65677E-01 2.88639E-30
8.68639E-01 2.75364E-30
8.71572E-01 2.62695E-30
8.74478E-01 2.50604E-30
8.77355E-01 2.39064E-30
8.80203E-01 2.28047E-30
8.83022E-01 2.17530E-30
8.85812E-01 2.07488E-30
8.88573E-01 1.97900E-30
8.91304E-01 1.88744E-30
8.94005E-01 1.79999E-30
8.96677E-01 1.71647E-30
8.99318E-01 1.63669E-30
9.01928E-01 1.56048E-30
9.04508E-01 1.48767E-30
9.07058E-01 1.41810E-30
9.09576E-01 1.35162E-30
9.12063E-01 1.28809E-30
9.14519E-01 1.22737E-30
9.16943E-01 1.16934E-30
9.19335E-01 1.11386E-30
9.21696E-01 1.06083E-30
9.24024E-01 1.01013E-30
9.26320E-01 9.61655E-31
9.28584E-01 9.15302E-31
9.30815E-01 8.70977E-31
9.33013E-01 8.28588E-31
9.35178E-01 7.88048E-31
9.37310E-01 7.49273E-31
9.39409E-01 7.12185E-31
9.41474E-01 6.76709E-31
9.43505E-01 6.42774E-31
9.45503E-01 6.10310E-31
9.47467E-01 5.79254E-31
9.49397E-01 5.49543E-31
9.51293E-01 5.21120E-31
9.53154E-01 4.93928E-31
9.54981E-01 4.67913E-31
9.56773E-01 4.43027E-31
9.58530E-01 4.19219E-31
9.60252E-01 3.96445E-31
9.61940E-01 3.74661E-31
9.63592E-01 3.53825E-31
9.65209E-01 3.33898E-31
9.66790E-01 3.14842E-31
9.68336E-01 2.96622E-31
9.69846E-01 2.79203E-31
9.71321E-01 2.62553E-31
9.72759E-01 2.46642E-31
9.74162E-01 2.31440E-31
9.75528E-01 2.16920E-31
9.76858E-01 2.03055E-31
9.78152E-01 1.89820E-31
9.79410E-01 1.77190E-31
9.80631E-01 1.65145E-31
9.81815E-01 1.53661E-31
9.82963E-01 1.42720E-31
9.84074E-01 1.32300E-31
9.85148E-01 1.22385E-31
9.86185E-01 1.12956E-31
9.87185E-01 1.03998E-31
9.88148E-01 9.54949E-32
9.89074E-01 8.74318E-32
9.89962E-01 7.97949E-32
9.90814E-01 7.25713E-32
9.91627E-01 6.57487E-32
9.92404E-01 5.93154E-32
9.93143E-01 5.32606E-32
9.93844E-01 4.75741E-32
9.94508E-01 4.22463E-32
9.95134E-01 3.72683E-32
9.95722E-01 3.26320E-32
9.96273E-01 2.83293E-32
9.96786E-01 2.43534E-32
9.97261E-01 2.06976E-32
9.97698E-01 1.73559E-32
9.98097E-01 1.43227E-32
9.98459E-01 1.15932E-32
9.98782E-01 9.16281E-33
9.99067E-01 7.02758E-33
9.99315E-01 5.18409E-33
9.99524E-01 3.62913E-33
9.99695E-01 2.36041E-33
9.99829E-01 1.37574E-33
9.99924E-01 6.73540E-34
9.99981E-01 2.52661E-34
1.00000E+00 1.12444E-34
