 #
 # Subroutine ELSEPA. Elastic scattering of electrons and positrons
 #                    by neutral atoms and positive ions
 #
 # Projectile: positron
 # Kinetic energy = 4.00000E+07 eV = 1.46997E+06 a.u.
 #
 # WARNING: High-energy factorization with free-atom DF screening.
 #          Absorption, polarization and exchange corrections are
 #          switched off.
 #          Phase shifts are calculated for the bare nucleus.
 #          Scattering amplitudes are not evaluated.
 #
 # Element: Au,  Z =  79,  atomic weight = 1.96967E+02 g/mol
 #
 # Nuclear model: Fermi distribution
 #                Average radius = 6.22560E-13 cm
 #                Skin thickness = 5.46000E-14 cm
 #
 # Number of electrons = 79
 #
 # Total elastic cross section = 7.67454E-18 cm**2 = 2.74063E-01 a0**2
 # 1st transport cross section = 6.39698E-24 cm**2 = 2.28440E-07 a0**2
 # 2nd transport cross section = 1.87216E-23 cm**2 = 6.68562E-07 a0**2
 #
 #
 # Differential cross section:                       MU=(1-COS(THETA))/2
 #
 #  THETA        MU          DCS          DCS        Sherman      error
 #  (deg)                 (cm**2/sr)   (a0**2/sr)    function
 #----------------------------------------------------------------------
0.00000E+00 6.48715E-11
7.61557E-13 6.48547E-11
1.18994E-12 6.48454E-11
1.71346E-12 6.48340E-11
2.33225E-12 6.48205E-11
3.04617E-12 6.48051E-11
3.85530E-12 6.47875E-11
4.75964E-12 6.47680E-11
5.75917E-12 6.47464E-11
6.85391E-12 6.47228E-11
8.04379E-12 6.46971E-11
9.32893E-12 6.46694E-11
1.07092E-11 6.46398E-11
1.21847E-11 6.46080E-11
1.37554E-11 6.45743E-11
1.54213E-11 6.45386E-11
1.71823E-11 6.45009E-11
1.90386E-11 6.44612E-11
2.09900E-11 6.44195E-11
2.30367E-11 6.43759E-11
2.51785E-11 6.43303E-11
2.74156E-11 6.42827E-11
2.97478E-11 6.42331E-11
3.21752E-11 6.41817E-11
3.46979E-11 6.41283E-11
3.73157E-11 6.40730E-11
4.00286E-11 6.40157E-11
4.28368E-11 6.39566E-11
4.57402E-11 6.38955E-11
4.87388E-11 6.38326E-11
5.18325E-11 6.37678E-11
5.50215E-11 6.37012E-11
5.83057E-11 6.36326E-11
6.16850E-11 6.35623E-11
6.51595E-11 6.34901E-11
6.87293E-11 6.34161E-11
7.23943E-11 6.33403E-11
7.61544E-11 6.32627E-11
1.18991E-10 6.23914E-11
1.71347E-10 6.13505E-11
2.33223E-10 6.01702E-11
3.04617E-10 5.88601E-11
3.85531E-10 5.74299E-11
4.75965E-10 5.59119E-11
5.75917E-10 5.43271E-11
6.85389E-10 5.26780E-11
8.04380E-10 5.09817E-11
9.32891E-10 4.92683E-11
1.07092E-09 4.75526E-11
1.21847E-09 4.58227E-11
1.37554E-09 4.41038E-11
1.54213E-09 4.24146E-11
1.71823E-09 4.07624E-11
1.90386E-09 3.91248E-11
2.09900E-09 3.75327E-11
2.30367E-09 3.59927E-11
2.51785E-09 3.45045E-11
2.74156E-09 3.30475E-11
2.97478E-09 3.16485E-11
3.21752E-09 3.03073E-11
3.46978E-09 2.90171E-11
3.73156E-09 2.77677E-11
4.00286E-09 2.65750E-11
4.28368E-09 2.54370E-11
4.57402E-09 2.43439E-11
4.87388E-09 2.32934E-11
5.18326E-09 2.22934E-11
5.50215E-09 2.13415E-11
5.83057E-09 2.04272E-11
6.16850E-09 1.95530E-11
6.51596E-09 1.87218E-11
6.87293E-09 1.79314E-11
7.23942E-09 1.71715E-11
7.61544E-09 1.64475E-11
1.18991E-08 1.08280E-11
1.71347E-08 7.20753E-12
2.33223E-08 5.04147E-12
3.04617E-08 3.60173E-12
3.85531E-08 2.62896E-12
4.75965E-08 1.97311E-12
5.75917E-08 1.51500E-12
6.85389E-08 1.18211E-12
8.04380E-08 9.36400E-13
9.32891E-08 7.52999E-13
1.07092E-07 6.13114E-13
1.21847E-07 5.03015E-13
1.37554E-07 4.16243E-13
1.54213E-07 3.47354E-13
1.71823E-07 2.91989E-13
1.90386E-07 2.46526E-13
2.09900E-07 2.09484E-13
2.30367E-07 1.79088E-13
2.51785E-07 1.53936E-13
2.74156E-07 1.32873E-13
2.97478E-07 1.15312E-13
3.21752E-07 1.00584E-13
3.46978E-07 8.81614E-14
3.73156E-07 7.75214E-14
4.00286E-07 6.84659E-14
4.28368E-07 6.07247E-14
4.57402E-07 5.40679E-14
4.87388E-07 4.83161E-14
5.18325E-07 4.33303E-14
5.50215E-07 3.89879E-14
5.83057E-07 3.51804E-14
6.16850E-07 3.18306E-14
6.51596E-07 2.88764E-14
6.87293E-07 2.62616E-14
7.23942E-07 2.39336E-14
7.61543E-07 2.18602E-14
1.18991E-06 9.77540E-15
1.71347E-06 5.00499E-15
2.33223E-06 2.82162E-15
3.04617E-06 1.70888E-15
3.85531E-06 1.09423E-15
4.75964E-06 7.32512E-16
5.75916E-06 5.08589E-16
6.85388E-06 3.64065E-16
8.04378E-06 2.67451E-16
9.32888E-06 2.00875E-16
1.07092E-05 1.53803E-16
1.21846E-05 1.19755E-16
1.37553E-05 9.46294E-17
1.54212E-05 7.57585E-17
1.71822E-05 6.13619E-17
1.90385E-05 5.01929E-17
2.09899E-05 4.15014E-17
2.30365E-05 3.46030E-17
2.51783E-05 2.90688E-17
2.74153E-05 2.45893E-17
2.97475E-05 2.09356E-17
3.21749E-05 1.79347E-17
3.46974E-05 1.54533E-17
3.73152E-05 1.33880E-17
4.00281E-05 1.16576E-17
4.28362E-05 1.01983E-17
4.57395E-05 8.96014E-18
4.87380E-05 7.90366E-18
5.18317E-05 6.99773E-18
5.50205E-05 6.21749E-18
5.83045E-05 5.54283E-18
6.16838E-05 4.95725E-18
6.51582E-05 4.44713E-18
6.87277E-05 4.00109E-18
7.23925E-05 3.60969E-18
7.61524E-05 3.26504E-18
9.21439E-05 2.23688E-18
1.09658E-04 1.58321E-18
1.28695E-04 1.15181E-18
1.49255E-04 8.57719E-19
1.71338E-04 6.51748E-19
1.94942E-04 5.04005E-19
2.20070E-04 3.95817E-19
2.46720E-04 3.15134E-19
2.74892E-04 2.53979E-19
3.04586E-04 2.06946E-19
3.35803E-04 1.70300E-19
3.68542E-04 1.41407E-19
4.02802E-04 1.18381E-19
4.38585E-04 9.98494E-20
4.75889E-04 8.48002E-20
5.14715E-04 7.24780E-20
5.55063E-04 6.23108E-20
5.96931E-04 5.38624E-20
6.40321E-04 4.67959E-20
6.85233E-04 4.08488E-20
7.31665E-04 3.58154E-20
7.79618E-04 3.15322E-20
8.29092E-04 2.78694E-20
8.80086E-04 2.47221E-20
9.32601E-04 2.20058E-20
9.86636E-04 1.96517E-20
1.04219E-03 1.76034E-20
1.09927E-03 1.58146E-20
1.15786E-03 1.42467E-20
1.21797E-03 1.28679E-20
1.27961E-03 1.16515E-20
1.34276E-03 1.05752E-20
1.40743E-03 9.61995E-21
1.47362E-03 8.76988E-21
1.54133E-03 8.01141E-21
1.61056E-03 7.33295E-21
1.68131E-03 6.72461E-21
1.75357E-03 6.17789E-21
1.82735E-03 5.68543E-21
1.90265E-03 5.24093E-21
1.97947E-03 4.83890E-21
2.05780E-03 4.47456E-21
2.13765E-03 4.14376E-21
2.21902E-03 3.84288E-21
2.30190E-03 3.56872E-21
2.38630E-03 3.31849E-21
2.47222E-03 3.08974E-21
2.55965E-03 2.88029E-21
2.64859E-03 2.68822E-21
2.73905E-03 2.51185E-21
2.83103E-03 2.34964E-21
2.92452E-03 2.20027E-21
3.01952E-03 2.06254E-21
3.11604E-03 1.93537E-21
3.21407E-03 1.81782E-21
3.31362E-03 1.70902E-21
3.41468E-03 1.60820E-21
3.51725E-03 1.51468E-21
3.62133E-03 1.42783E-21
3.72692E-03 1.34709E-21
3.83403E-03 1.27195E-21
3.94265E-03 1.20195E-21
4.05278E-03 1.13668E-21
4.16442E-03 1.07576E-21
4.27757E-03 1.01885E-21
4.39223E-03 9.65630E-22
4.50840E-03 9.15825E-22
4.62608E-03 8.69174E-22
4.74527E-03 8.25442E-22
4.86597E-03 7.84412E-22
4.98817E-03 7.45886E-22
5.11188E-03 7.09683E-22
5.23711E-03 6.75640E-22
5.36383E-03 6.43602E-22
5.49207E-03 6.13430E-22
5.62181E-03 5.84995E-22
5.75306E-03 5.58181E-22
5.88581E-03 5.32877E-22
6.02007E-03 5.08980E-22
6.15583E-03 4.86401E-22
6.29310E-03 4.65055E-22
6.43187E-03 4.44857E-22
6.57214E-03 4.25737E-22
6.71392E-03 4.07629E-22
6.85720E-03 3.90467E-22
7.00198E-03 3.74192E-22
7.14827E-03 3.58751E-22
7.29605E-03 3.44094E-22
7.44534E-03 3.30172E-22
7.59612E-03 3.16942E-22
7.97965E-03 2.86637E-22
8.37255E-03 2.59846E-22
8.77480E-03 2.36092E-22
9.18641E-03 2.14973E-22
9.60736E-03 1.96147E-22
1.00376E-02 1.79322E-22
1.04773E-02 1.64251E-22
1.09262E-02 1.50717E-22
1.13844E-02 1.38539E-22
1.18520E-02 1.27556E-22
1.23288E-02 1.17631E-22
1.28150E-02 1.08645E-22
1.33104E-02 1.00494E-22
1.38150E-02 9.30863E-23
1.43290E-02 8.63427E-23
1.48521E-02 8.01934E-23
1.53845E-02 7.45772E-23
1.59262E-02 6.94399E-23
1.64770E-02 6.47331E-23
1.70371E-02 6.04121E-23
1.76063E-02 5.64419E-23
1.81848E-02 5.27890E-23
1.87724E-02 4.94237E-23
1.93692E-02 4.63193E-23
1.99751E-02 4.34521E-23
2.05901E-02 4.08007E-23
2.12143E-02 3.83461E-23
2.18476E-02 3.60710E-23
2.24900E-02 3.39601E-23
2.31415E-02 3.19995E-23
2.38021E-02 3.01764E-23
2.44717E-02 2.84797E-23
2.51504E-02 2.68989E-23
2.58382E-02 2.54248E-23
2.65349E-02 2.40489E-23
2.72407E-02 2.27635E-23
2.79555E-02 2.15616E-23
2.86793E-02 2.04368E-23
2.94120E-02 1.93833E-23
3.01537E-02 1.83958E-23
3.09043E-02 1.74694E-23
3.16639E-02 1.65997E-23
3.24324E-02 1.57825E-23
3.32098E-02 1.50143E-23
3.39961E-02 1.42914E-23
3.47912E-02 1.36108E-23
3.55952E-02 1.29695E-23
3.64081E-02 1.23649E-23
3.72297E-02 1.17945E-23
3.80602E-02 1.12560E-23
3.88995E-02 1.07473E-23
3.97476E-02 1.02665E-23
4.06044E-02 9.81184E-24
4.14700E-02 9.38157E-24
4.23443E-02 8.97416E-24
4.32273E-02 8.58820E-24
4.41190E-02 8.22236E-24
4.50194E-02 7.87540E-24
4.59284E-02 7.54617E-24
4.68461E-02 7.23361E-24
4.87074E-02 6.65461E-24
5.06030E-02 6.13122E-24
5.25328E-02 5.65721E-24
5.44967E-02 5.22716E-24
5.64946E-02 4.83632E-24
5.85262E-02 4.48050E-24
6.05914E-02 4.15606E-24
6.26901E-02 3.85977E-24
6.48222E-02 3.58877E-24
6.69873E-02 3.34056E-24
6.91854E-02 3.11290E-24
7.14163E-02 2.90380E-24
7.36799E-02 2.71150E-24
7.59760E-02 2.53442E-24
7.83043E-02 2.37117E-24
8.06647E-02 2.22048E-24
8.30571E-02 2.08122E-24
8.54812E-02 1.95239E-24
8.79369E-02 1.83308E-24
9.04240E-02 1.72246E-24
9.29422E-02 1.61980E-24
9.54915E-02 1.52443E-24
9.80716E-02 1.43575E-24
1.00682E-01 1.35321E-24
1.03323E-01 1.27632E-24
1.05995E-01 1.20462E-24
1.08696E-01 1.13772E-24
1.11427E-01 1.07522E-24
1.14188E-01 1.01681E-24
1.16978E-01 9.62162E-25
1.19797E-01 9.10999E-25
1.22645E-01 8.63063E-25
1.25522E-01 8.18116E-25
1.28428E-01 7.75942E-25
1.31361E-01 7.36342E-25
1.34323E-01 6.99134E-25
1.37313E-01 6.64150E-25
1.40330E-01 6.31235E-25
1.43375E-01 6.00247E-25
1.46447E-01 5.71055E-25
1.49545E-01 5.43539E-25
1.52671E-01 5.17587E-25
1.55823E-01 4.93095E-25
1.59001E-01 4.69969E-25
1.62205E-01 4.48120E-25
1.65435E-01 4.27466E-25
1.68690E-01 4.07932E-25
1.71970E-01 3.89446E-25
1.75276E-01 3.71945E-25
1.78606E-01 3.55367E-25
1.81961E-01 3.39656E-25
1.85340E-01 3.24760E-25
1.88743E-01 3.10629E-25
1.92169E-01 2.97218E-25
1.95619E-01 2.84484E-25
1.99092E-01 2.72389E-25
2.02589E-01 2.60895E-25
2.06107E-01 2.49967E-25
2.09649E-01 2.39574E-25
2.13212E-01 2.29685E-25
2.16797E-01 2.20271E-25
2.20404E-01 2.11308E-25
2.24032E-01 2.02768E-25
2.27680E-01 1.94631E-25
2.31350E-01 1.86873E-25
2.35040E-01 1.79474E-25
2.38751E-01 1.72416E-25
2.42481E-01 1.65680E-25
2.46231E-01 1.59249E-25
2.50000E-01 1.53107E-25
2.53788E-01 1.47239E-25
2.57595E-01 1.41632E-25
2.61421E-01 1.36272E-25
2.65264E-01 1.31146E-25
2.69126E-01 1.26242E-25
2.73005E-01 1.21551E-25
2.76901E-01 1.17060E-25
2.80814E-01 1.12760E-25
2.84744E-01 1.08643E-25
2.88691E-01 1.04698E-25
2.92653E-01 1.00918E-25
2.96632E-01 9.72944E-26
3.00625E-01 9.38204E-26
3.04634E-01 9.04887E-26
3.08658E-01 8.72925E-26
3.12697E-01 8.42256E-26
3.16749E-01 8.12821E-26
3.20816E-01 7.84561E-26
3.24896E-01 7.57424E-26
3.28990E-01 7.31358E-26
3.33097E-01 7.06316E-26
3.37216E-01 6.82250E-26
3.41348E-01 6.59118E-26
3.45492E-01 6.36879E-26
3.49647E-01 6.15492E-26
3.53814E-01 5.94921E-26
3.57992E-01 5.75130E-26
3.62181E-01 5.56086E-26
3.66381E-01 5.37756E-26
3.70590E-01 5.20110E-26
3.74810E-01 5.03118E-26
3.79039E-01 4.86754E-26
3.83277E-01 4.70990E-26
3.87524E-01 4.55802E-26
3.91780E-01 4.41165E-26
3.96044E-01 4.27058E-26
4.00316E-01 4.13458E-26
4.04596E-01 4.00344E-26
4.08882E-01 3.87697E-26
4.13176E-01 3.75498E-26
4.17476E-01 3.63728E-26
4.21783E-01 3.52372E-26
4.26095E-01 3.41411E-26
4.30413E-01 3.30832E-26
4.34737E-01 3.20618E-26
4.39065E-01 3.10755E-26
4.43398E-01 3.01230E-26
4.47736E-01 2.92029E-26
4.52077E-01 2.83140E-26
4.56422E-01 2.74552E-26
4.60770E-01 2.66252E-26
4.65122E-01 2.58229E-26
4.69476E-01 2.50474E-26
4.73832E-01 2.42976E-26
4.78190E-01 2.35726E-26
4.82550E-01 2.28713E-26
4.86912E-01 2.21930E-26
4.91274E-01 2.15368E-26
4.95637E-01 2.09019E-26
5.00000E-01 2.02875E-26
5.04363E-01 1.96929E-26
5.08726E-01 1.91173E-26
5.13088E-01 1.85601E-26
5.17450E-01 1.80205E-26
5.21810E-01 1.74981E-26
5.26168E-01 1.69921E-26
5.30524E-01 1.65019E-26
5.34878E-01 1.60271E-26
5.39230E-01 1.55671E-26
5.43578E-01 1.51214E-26
5.47923E-01 1.46894E-26
5.52264E-01 1.42707E-26
5.56602E-01 1.38648E-26
5.60935E-01 1.34714E-26
5.65263E-01 1.30899E-26
5.69587E-01 1.27199E-26
5.73905E-01 1.23612E-26
5.78217E-01 1.20132E-26
5.82524E-01 1.16757E-26
5.86824E-01 1.13482E-26
5.91118E-01 1.10305E-26
5.95404E-01 1.07222E-26
5.99684E-01 1.04230E-26
6.03956E-01 1.01327E-26
6.08220E-01 9.85083E-27
6.12476E-01 9.57722E-27
6.16723E-01 9.31159E-27
6.20961E-01 9.05367E-27
6.25190E-01 8.80322E-27
6.29410E-01 8.55999E-27
6.33619E-01 8.32376E-27
6.37819E-01 8.09430E-27
6.42008E-01 7.87140E-27
6.46186E-01 7.65484E-27
6.50353E-01 7.44443E-27
6.54508E-01 7.23998E-27
6.58652E-01 7.04130E-27
6.62784E-01 6.84820E-27
6.66903E-01 6.66051E-27
6.71010E-01 6.47807E-27
6.75104E-01 6.30072E-27
6.79184E-01 6.12830E-27
6.83251E-01 5.96065E-27
6.87303E-01 5.79763E-27
6.91342E-01 5.63910E-27
6.95366E-01 5.48493E-27
6.99375E-01 5.33498E-27
7.03368E-01 5.18913E-27
7.07347E-01 5.04725E-27
7.11309E-01 4.90922E-27
7.15256E-01 4.77493E-27
7.19186E-01 4.64427E-27
7.23099E-01 4.51713E-27
7.26995E-01 4.39341E-27
7.30874E-01 4.27301E-27
7.34736E-01 4.15582E-27
7.38579E-01 4.04176E-27
7.42405E-01 3.93074E-27
7.46212E-01 3.82267E-27
7.50000E-01 3.71745E-27
7.53769E-01 3.61502E-27
7.57519E-01 3.51529E-27
7.61249E-01 3.41818E-27
7.64960E-01 3.32362E-27
7.68650E-01 3.23153E-27
7.72320E-01 3.14186E-27
7.75968E-01 3.05452E-27
7.79596E-01 2.96945E-27
7.83203E-01 2.88660E-27
7.86788E-01 2.80589E-27
7.90351E-01 2.72727E-27
7.93893E-01 2.65068E-27
7.97411E-01 2.57606E-27
8.00908E-01 2.50337E-27
8.04381E-01 2.43254E-27
8.07831E-01 2.36353E-27
8.11257E-01 2.29628E-27
8.14660E-01 2.23076E-27
8.18039E-01 2.16691E-27
8.21394E-01 2.10468E-27
8.24724E-01 2.04404E-27
8.28030E-01 1.98495E-27
8.31310E-01 1.92735E-27
8.34565E-01 1.87122E-27
8.37795E-01 1.81650E-27
8.40999E-01 1.76317E-27
8.44177E-01 1.71120E-27
8.47329E-01 1.66053E-27
8.50455E-01 1.61114E-27
8.53553E-01 1.56301E-27
8.56625E-01 1.51608E-27
8.59670E-01 1.47034E-27
8.62687E-01 1.42575E-27
8.65677E-01 1.38228E-27
8.68639E-01 1.33991E-27
8.71572E-01 1.29860E-27
8.74478E-01 1.25834E-27
8.77355E-01 1.21909E-27
8.80203E-01 1.18083E-27
8.83022E-01 1.14353E-27
8.85812E-01 1.10717E-27
8.88573E-01 1.07174E-27
8.91304E-01 1.03719E-27
8.94005E-01 1.00352E-27
8.96677E-01 9.70700E-28
8.99318E-01 9.38712E-28
9.01928E-01 9.07535E-28
9.04508E-01 8.77150E-28
9.07058E-01 8.47539E-28
9.09576E-01 8.18682E-28
9.12063E-01 7.90563E-28
9.14519E-01 7.63164E-28
9.16943E-01 7.36468E-28
9.19335E-01 7.10460E-28
9.21696E-01 6.85123E-28
9.24024E-01 6.60442E-28
9.26320E-01 6.36403E-28
9.28584E-01 6.12990E-28
9.30815E-01 5.90191E-28
9.33013E-01 5.67991E-28
9.35178E-01 5.46377E-28
9.37310E-01 5.25337E-28
9.39409E-01 5.04858E-28
9.41474E-01 4.84928E-28
9.43505E-01 4.65536E-28
9.45503E-01 4.46670E-28
9.47467E-01 4.28319E-28
9.49397E-01 4.10472E-28
9.51293E-01 3.93121E-28
9.53154E-01 3.76253E-28
9.54981E-01 3.59860E-28
9.56773E-01 3.43932E-28
9.58530E-01 3.28460E-28
9.60252E-01 3.13436E-28
9.61940E-01 2.98850E-28
9.63592E-01 2.84695E-28
9.65209E-01 2.70963E-28
9.66790E-01 2.57645E-28
9.68336E-01 2.44735E-28
9.69846E-01 2.32224E-28
9.71321E-01 2.20107E-28
9.72759E-01 2.08376E-28
9.74162E-01 1.97025E-28
9.75528E-01 1.86047E-28
9.76858E-01 1.75437E-28
9.78152E-01 1.65188E-28
9.79410E-01 1.55295E-28
9.80631E-01 1.45753E-28
9.81815E-01 1.36555E-28
9.82963E-01 1.27698E-28
9.84074E-01 1.19176E-28
9.85148E-01 1.10985E-28
9.86185E-01 1.03119E-28
9.87185E-01 9.55757E-29
9.88148E-01 8.83500E-29
9.89074E-01 8.14380E-29
9.89962E-01 7.48360E-29
9.90814E-01 6.85406E-29
9.91627E-01 6.25481E-29
9.92404E-01 5.68556E-29
9.93143E-01 5.14598E-29
9.93844E-01 4.63578E-29
9.94508E-01 4.15469E-29
9.95134E-01 3.70245E-29
9.95722E-01 3.27883E-29
9.96273E-01 2.88358E-29
9.96786E-01 2.51650E-29
9.97261E-01 2.17740E-29
9.97698E-01 1.86608E-29
9.98097E-01 1.58240E-29
9.98459E-01 1.32618E-29
9.98782E-01 1.09730E-29
9.99067E-01 8.95630E-30
9.99315E-01 7.21068E-30
9.99524E-01 5.73519E-30
9.99695E-01 4.52905E-30
9.99829E-01 3.59160E-30
9.99924E-01 2.92235E-30
9.99981E-01 2.52094E-30
1.00000E+00 2.38716E-30
