 #
 # Subroutine ELSEPA. Elastic scattering of electrons and positrons
 #                    by neutral atoms and positive ions
 #
 # Projectile: positron
 # Kinetic energy = 1.25000E+08 eV = 4.59367E+06 a.u.
 #
 # WARNING: High-energy factorization with free-atom DF screening.
 #          Absorption, polarization and exchange corrections are
 #          switched off.
 #          Phase shifts are calculated for the bare nucleus.
 #          Scattering amplitudes are not evaluated.
 #
 # Element: Au,  Z =  79,  atomic weight = 1.96967E+02 g/mol
 #
 # Nuclear model: Fermi distribution
 #                Average radius = 6.22560E-13 cm
 #                Skin thickness = 5.46000E-14 cm
 #
 # Number of electrons = 79
 #
 # Total elastic cross section = 7.67747E-18 cm**2 = 2.74167E-01 a0**2
 # 1st transport cross section = 7.26933E-25 cm**2 = 2.59592E-08 a0**2
 # 2nd transport cross section = 2.16716E-24 cm**2 = 7.73908E-08 a0**2
 #
 #
 # Differential cross section:                       MU=(1-COS(THETA))/2
 #
 #  THETA        MU          DCS          DCS        Sherman      error
 #  (deg)                 (cm**2/sr)   (a0**2/sr)    function
 #----------------------------------------------------------------------
0.00000E+00 6.22690E-10
7.61557E-13 6.21168E-10
1.18994E-12 6.20319E-10
1.71346E-12 6.19284E-10
2.33225E-12 6.18066E-10
3.04617E-12 6.16667E-10
3.85530E-12 6.15088E-10
4.75964E-12 6.13333E-10
5.75917E-12 6.11405E-10
6.85391E-12 6.09305E-10
8.04379E-12 6.07039E-10
9.32893E-12 6.04610E-10
1.07092E-11 6.02021E-10
1.21847E-11 5.99276E-10
1.37554E-11 5.96381E-10
1.54213E-11 5.93314E-10
1.71823E-11 5.90098E-10
1.90386E-11 5.86769E-10
2.09900E-11 5.83334E-10
2.30367E-11 5.79783E-10
2.51785E-11 5.76024E-10
2.74156E-11 5.72180E-10
2.97478E-11 5.68259E-10
3.21752E-11 5.64268E-10
3.46979E-11 5.60082E-10
3.73157E-11 5.55801E-10
4.00286E-11 5.51471E-10
4.28368E-11 5.47100E-10
4.57402E-11 5.42613E-10
4.87388E-11 5.37973E-10
5.18325E-11 5.33312E-10
5.50215E-11 5.28639E-10
5.83057E-11 5.23952E-10
6.16850E-11 5.19033E-10
6.51595E-11 5.14120E-10
6.87293E-11 5.09219E-10
7.23943E-11 5.04335E-10
7.61544E-11 4.99304E-10
1.18991E-10 4.48194E-10
1.71347E-10 3.97678E-10
2.33223E-10 3.50152E-10
3.04617E-10 3.06626E-10
3.85531E-10 2.67876E-10
4.75965E-10 2.33842E-10
5.75917E-10 2.04111E-10
6.85389E-10 1.78303E-10
8.04380E-10 1.56014E-10
9.32891E-10 1.36775E-10
1.07092E-09 1.20116E-10
1.21847E-09 1.05744E-10
1.37554E-09 9.33279E-11
1.54213E-09 8.20667E-11
1.71823E-09 7.22989E-11
1.90386E-09 6.42633E-11
2.09900E-09 5.75929E-11
2.30367E-09 5.18597E-11
2.51785E-09 4.62125E-11
2.74156E-09 4.14599E-11
2.97478E-09 3.74317E-11
3.21752E-09 3.39945E-11
3.46978E-09 3.07307E-11
3.73156E-09 2.78406E-11
4.00286E-09 2.53465E-11
4.28368E-09 2.31828E-11
4.57402E-09 2.12210E-11
4.87388E-09 1.94006E-11
5.18326E-09 1.78058E-11
5.50215E-09 1.64025E-11
5.83057E-09 1.51603E-11
6.16850E-09 1.39690E-11
6.51596E-09 1.29120E-11
6.87293E-09 1.19709E-11
7.23942E-09 1.11303E-11
7.61544E-09 1.03412E-11
1.18991E-08 5.32815E-12
1.71347E-08 3.00590E-12
2.33223E-08 1.80558E-12
3.04617E-08 1.14070E-12
3.85531E-08 7.55200E-13
4.75965E-08 5.20125E-13
5.75917E-08 3.71181E-13
6.85389E-08 2.72525E-13
8.04380E-08 2.04774E-13
9.32891E-08 1.56954E-13
1.07092E-07 1.22380E-13
1.21847E-07 9.68492E-14
1.37554E-07 7.76358E-14
1.54213E-07 6.29038E-14
1.71823E-07 5.15640E-14
1.90386E-07 4.26416E-14
2.09900E-07 3.56040E-14
2.30367E-07 2.99225E-14
2.51785E-07 2.53516E-14
2.74156E-07 2.16121E-14
2.97478E-07 1.85398E-14
3.21752E-07 1.59958E-14
3.46978E-07 1.38691E-14
3.73156E-07 1.20894E-14
4.00286E-07 1.05800E-14
4.28368E-07 9.30225E-15
4.57402E-07 8.20988E-15
4.87388E-07 7.27363E-15
5.18325E-07 6.46740E-15
5.50215E-07 5.76895E-15
5.83057E-07 5.16343E-15
6.16850E-07 4.63407E-15
6.51596E-07 4.17165E-15
6.87293E-07 3.76519E-15
7.23942E-07 3.40720E-15
7.61543E-07 3.09092E-15
1.18991E-06 1.30524E-15
1.71347E-06 6.42714E-16
2.33223E-06 3.51966E-16
3.04617E-06 2.08425E-16
3.85531E-06 1.31094E-16
4.75964E-06 8.65047E-17
5.75916E-06 5.93547E-17
6.85388E-06 4.20667E-17
8.04378E-06 3.06391E-17
9.32888E-06 2.28418E-17
1.07092E-05 1.73746E-17
1.21846E-05 1.34497E-17
1.37553E-05 1.05730E-17
1.54212E-05 8.42580E-18
1.71822E-05 6.79696E-18
1.90385E-05 5.53996E-18
2.09899E-05 4.56620E-18
2.30365E-05 3.79649E-18
2.51783E-05 3.18130E-18
2.74153E-05 2.68501E-18
2.97475E-05 2.28140E-18
3.21749E-05 1.95079E-18
3.46974E-05 1.67809E-18
3.73152E-05 1.45160E-18
4.00281E-05 1.26219E-18
4.28362E-05 1.10275E-18
4.57395E-05 9.67673E-19
4.87380E-05 8.52595E-19
5.18317E-05 7.54056E-19
5.50205E-05 6.69298E-19
5.83045E-05 5.96094E-19
6.16838E-05 5.32628E-19
6.51582E-05 4.77397E-19
6.87277E-05 4.29154E-19
7.23925E-05 3.86859E-19
7.61524E-05 3.49780E-19
9.21439E-05 2.38987E-19
1.09658E-04 1.68758E-19
1.28695E-04 1.22529E-19
1.49255E-04 9.10856E-20
1.71338E-04 6.91087E-20
1.94942E-04 5.33733E-20
2.20070E-04 4.18695E-20
2.46720E-04 3.33027E-20
2.74892E-04 2.68177E-20
3.04586E-04 2.18360E-20
3.35803E-04 1.79584E-20
3.68542E-04 1.49039E-20
4.02802E-04 1.24715E-20
4.38585E-04 1.05153E-20
4.75889E-04 8.92772E-21
5.14715E-04 7.62850E-21
5.55063E-04 6.55698E-21
5.96931E-04 5.66697E-21
6.40321E-04 4.92279E-21
6.85233E-04 4.29671E-21
7.31665E-04 3.76697E-21
7.79618E-04 3.31628E-21
8.29092E-04 2.93093E-21
8.80086E-04 2.59987E-21
9.32601E-04 2.31418E-21
9.86636E-04 2.06661E-21
1.04219E-03 1.85122E-21
1.09927E-03 1.66312E-21
1.15786E-03 1.49826E-21
1.21797E-03 1.35329E-21
1.27961E-03 1.22539E-21
1.34276E-03 1.11222E-21
1.40743E-03 1.01178E-21
1.47362E-03 9.22403E-22
1.54133E-03 8.42653E-22
1.61056E-03 7.71318E-22
1.68131E-03 7.07361E-22
1.75357E-03 6.49855E-22
1.82735E-03 5.98043E-22
1.90265E-03 5.51273E-22
1.97947E-03 5.08968E-22
2.05780E-03 4.70627E-22
2.13765E-03 4.35813E-22
2.21902E-03 4.04144E-22
2.30190E-03 3.75286E-22
2.38630E-03 3.48944E-22
2.47222E-03 3.24862E-22
2.55965E-03 3.02809E-22
2.64859E-03 2.82585E-22
2.73905E-03 2.64012E-22
2.83103E-03 2.46929E-22
2.92452E-03 2.31197E-22
3.01952E-03 2.16689E-22
3.11604E-03 2.03294E-22
3.21407E-03 1.90910E-22
3.31362E-03 1.79447E-22
3.41468E-03 1.68825E-22
3.51725E-03 1.58970E-22
3.62133E-03 1.49818E-22
3.72692E-03 1.41309E-22
3.83403E-03 1.33390E-22
3.94265E-03 1.26013E-22
4.05278E-03 1.19134E-22
4.16442E-03 1.12712E-22
4.27757E-03 1.06714E-22
4.39223E-03 1.01104E-22
4.50840E-03 9.58542E-23
4.62608E-03 9.09367E-23
4.74527E-03 8.63267E-23
4.86597E-03 8.20016E-23
4.98817E-03 7.79404E-23
5.11188E-03 7.41243E-23
5.23711E-03 7.05358E-23
5.36383E-03 6.71588E-23
5.49207E-03 6.39786E-23
5.62181E-03 6.09816E-23
5.75306E-03 5.81555E-23
5.88581E-03 5.54887E-23
6.02007E-03 5.29705E-23
6.15583E-03 5.05913E-23
6.29310E-03 4.83419E-23
6.43187E-03 4.62141E-23
6.57214E-03 4.42000E-23
6.71392E-03 4.22924E-23
6.85720E-03 4.04848E-23
7.00198E-03 3.87709E-23
7.14827E-03 3.71451E-23
7.29605E-03 3.56018E-23
7.44534E-03 3.41363E-23
7.59612E-03 3.27439E-23
7.97965E-03 2.95552E-23
8.37255E-03 2.67375E-23
8.77480E-03 2.42406E-23
9.18641E-03 2.20219E-23
9.60736E-03 2.00455E-23
1.00376E-02 1.82804E-23
1.04773E-02 1.67004E-23
1.09262E-02 1.52829E-23
1.13844E-02 1.40084E-23
1.18520E-02 1.28601E-23
1.23288E-02 1.18236E-23
1.28150E-02 1.08861E-23
1.33104E-02 1.00366E-23
1.38150E-02 9.26557E-24
1.43290E-02 8.56456E-24
1.48521E-02 7.92618E-24
1.53845E-02 7.34392E-24
1.59262E-02 6.81207E-24
1.64770E-02 6.32555E-24
1.70371E-02 5.87989E-24
1.76063E-02 5.47110E-24
1.81848E-02 5.09565E-24
1.87724E-02 4.75038E-24
1.93692E-02 4.43250E-24
1.99751E-02 4.13948E-24
2.05901E-02 3.86908E-24
2.12143E-02 3.61927E-24
2.18476E-02 3.38825E-24
2.24900E-02 3.17438E-24
2.31415E-02 2.97619E-24
2.38021E-02 2.79237E-24
2.44717E-02 2.62170E-24
2.51504E-02 2.46310E-24
2.58382E-02 2.31559E-24
2.65349E-02 2.17828E-24
2.72407E-02 2.05036E-24
2.79555E-02 1.93109E-24
2.86793E-02 1.81980E-24
2.94120E-02 1.71587E-24
3.01537E-02 1.61875E-24
3.09043E-02 1.52792E-24
3.16639E-02 1.44293E-24
3.24324E-02 1.36334E-24
3.32098E-02 1.28875E-24
3.39961E-02 1.21882E-24
3.47912E-02 1.15320E-24
3.55952E-02 1.09160E-24
3.64081E-02 1.03373E-24
3.72297E-02 9.79344E-25
3.80602E-02 9.28193E-25
3.88995E-02 8.80062E-25
3.97476E-02 8.34749E-25
4.06044E-02 7.92066E-25
4.14700E-02 7.51840E-25
4.23443E-02 7.13912E-25
4.32273E-02 6.78132E-25
4.41190E-02 6.44364E-25
4.50194E-02 6.12479E-25
4.59284E-02 5.82359E-25
4.68461E-02 5.53894E-25
4.87074E-02 5.01526E-25
5.06030E-02 4.54637E-25
5.25328E-02 4.12589E-25
5.44967E-02 3.74824E-25
5.64946E-02 3.40859E-25
5.85262E-02 3.10268E-25
6.05914E-02 2.82681E-25
6.26901E-02 2.57771E-25
6.48222E-02 2.35252E-25
6.69873E-02 2.14870E-25
6.91854E-02 1.96403E-25
7.14163E-02 1.79653E-25
7.36799E-02 1.64446E-25
7.59760E-02 1.50625E-25
7.83043E-02 1.38053E-25
8.06647E-02 1.26607E-25
8.30571E-02 1.16177E-25
8.54812E-02 1.06665E-25
8.79369E-02 9.79834E-26
9.04240E-02 9.00542E-26
9.29422E-02 8.28067E-26
9.54915E-02 7.61778E-26
9.80716E-02 7.01106E-26
1.00682E-01 6.45539E-26
1.03323E-01 5.94619E-26
1.05995E-01 5.47927E-26
1.08696E-01 5.05090E-26
1.11427E-01 4.65768E-26
1.14188E-01 4.29654E-26
1.16978E-01 3.96469E-26
1.19797E-01 3.65961E-26
1.22645E-01 3.37902E-26
1.25522E-01 3.12084E-26
1.28428E-01 2.88318E-26
1.31361E-01 2.66431E-26
1.34323E-01 2.46267E-26
1.37313E-01 2.27685E-26
1.40330E-01 2.10553E-26
1.43375E-01 1.94753E-26
1.46447E-01 1.80177E-26
1.49545E-01 1.66725E-26
1.52671E-01 1.54308E-26
1.55823E-01 1.42841E-26
1.59001E-01 1.32251E-26
1.62205E-01 1.22466E-26
1.65435E-01 1.13424E-26
1.68690E-01 1.05066E-26
1.71970E-01 9.73381E-27
1.75276E-01 9.01917E-27
1.78606E-01 8.35816E-27
1.81961E-01 7.74662E-27
1.85340E-01 7.18073E-27
1.88743E-01 6.65700E-27
1.92169E-01 6.17220E-27
1.95619E-01 5.72334E-27
1.99092E-01 5.30771E-27
2.02589E-01 4.92279E-27
2.06107E-01 4.56624E-27
2.09649E-01 4.23594E-27
2.13212E-01 3.92990E-27
2.16797E-01 3.64632E-27
2.20404E-01 3.38350E-27
2.24032E-01 3.13990E-27
2.27680E-01 2.91410E-27
2.31350E-01 2.70476E-27
2.35040E-01 2.51067E-27
2.38751E-01 2.33069E-27
2.42481E-01 2.16380E-27
2.46231E-01 2.00901E-27
2.50000E-01 1.86545E-27
2.53788E-01 1.73228E-27
2.57595E-01 1.60875E-27
2.61421E-01 1.49415E-27
2.65264E-01 1.38782E-27
2.69126E-01 1.28916E-27
2.73005E-01 1.19762E-27
2.76901E-01 1.11266E-27
2.80814E-01 1.03383E-27
2.84744E-01 9.60659E-28
2.88691E-01 8.92749E-28
2.92653E-01 8.29716E-28
2.96632E-01 7.71206E-28
3.00625E-01 7.16892E-28
3.04634E-01 6.66470E-28
3.08658E-01 6.19659E-28
3.12697E-01 5.76198E-28
3.16749E-01 5.35845E-28
3.20816E-01 4.98376E-28
3.24896E-01 4.63583E-28
3.28990E-01 4.31274E-28
3.33097E-01 4.01268E-28
3.37216E-01 3.73402E-28
3.41348E-01 3.47521E-28
3.45492E-01 3.23481E-28
3.49647E-01 3.01151E-28
3.53814E-01 2.80408E-28
3.57992E-01 2.61139E-28
3.62181E-01 2.43236E-28
3.66381E-01 2.26602E-28
3.70590E-01 2.11147E-28
3.74810E-01 1.96785E-28
3.79039E-01 1.83438E-28
3.83277E-01 1.71034E-28
3.87524E-01 1.59505E-28
3.91780E-01 1.48788E-28
3.96044E-01 1.38825E-28
4.00316E-01 1.29563E-28
4.04596E-01 1.20950E-28
4.08882E-01 1.12941E-28
4.13176E-01 1.05493E-28
4.17476E-01 9.85653E-29
4.21783E-01 9.21207E-29
4.26095E-01 8.61249E-29
4.30413E-01 8.05459E-29
4.34737E-01 7.53539E-29
4.39065E-01 7.05213E-29
4.43398E-01 6.60226E-29
4.47736E-01 6.18339E-29
4.52077E-01 5.79332E-29
4.56422E-01 5.43000E-29
4.60770E-01 5.09154E-29
4.65122E-01 4.77616E-29
4.69476E-01 4.48223E-29
4.73832E-01 4.20822E-29
4.78190E-01 3.95273E-29
4.82550E-01 3.71445E-29
4.86912E-01 3.49216E-29
4.91274E-01 3.28474E-29
4.95637E-01 3.09112E-29
5.00000E-01 2.91035E-29
5.04363E-01 2.74152E-29
5.08726E-01 2.58378E-29
5.13088E-01 2.43637E-29
5.17450E-01 2.29857E-29
5.21810E-01 2.16969E-29
5.26168E-01 2.04912E-29
5.30524E-01 1.93627E-29
5.34878E-01 1.83062E-29
5.39230E-01 1.73167E-29
5.43578E-01 1.63895E-29
5.47923E-01 1.55203E-29
5.52264E-01 1.47052E-29
5.56602E-01 1.39404E-29
5.60935E-01 1.32225E-29
5.65263E-01 1.25483E-29
5.69587E-01 1.19148E-29
5.73905E-01 1.13194E-29
5.78217E-01 1.07593E-29
5.82524E-01 1.02323E-29
5.86824E-01 9.73620E-30
5.91118E-01 9.26883E-30
5.95404E-01 8.82835E-30
5.99684E-01 8.41298E-30
6.03956E-01 8.02107E-30
6.08220E-01 7.65109E-30
6.12476E-01 7.30162E-30
6.16723E-01 6.97132E-30
6.20961E-01 6.65898E-30
6.25190E-01 6.36344E-30
6.29410E-01 6.08364E-30
6.33619E-01 5.81860E-30
6.37819E-01 5.56737E-30
6.42008E-01 5.32912E-30
6.46186E-01 5.10303E-30
6.50353E-01 4.88837E-30
6.54508E-01 4.68443E-30
6.58652E-01 4.49058E-30
6.62784E-01 4.30621E-30
6.66903E-01 4.13076E-30
6.71010E-01 3.96370E-30
6.75104E-01 3.80456E-30
6.79184E-01 3.65286E-30
6.83251E-01 3.50819E-30
6.87303E-01 3.37015E-30
6.91342E-01 3.23836E-30
6.95366E-01 3.11249E-30
6.99375E-01 2.99220E-30
7.03368E-01 2.87719E-30
7.07347E-01 2.76719E-30
7.11309E-01 2.66192E-30
7.15256E-01 2.56113E-30
7.19186E-01 2.46459E-30
7.23099E-01 2.37209E-30
7.26995E-01 2.28341E-30
7.30874E-01 2.19838E-30
7.34736E-01 2.11679E-30
7.38579E-01 2.03850E-30
7.42405E-01 1.96333E-30
7.46212E-01 1.89113E-30
7.50000E-01 1.82177E-30
7.53769E-01 1.75512E-30
7.57519E-01 1.69104E-30
7.61249E-01 1.62942E-30
7.64960E-01 1.57015E-30
7.68650E-01 1.51312E-30
7.72320E-01 1.45824E-30
7.75968E-01 1.40540E-30
7.79596E-01 1.35453E-30
7.83203E-01 1.30553E-30
7.86788E-01 1.25834E-30
7.90351E-01 1.21286E-30
7.93893E-01 1.16904E-30
7.97411E-01 1.12680E-30
8.00908E-01 1.08608E-30
8.04381E-01 1.04682E-30
8.07831E-01 1.00896E-30
8.11257E-01 9.72438E-31
8.14660E-01 9.37213E-31
8.18039E-01 9.03230E-31
8.21394E-01 8.70441E-31
8.24724E-01 8.38801E-31
8.28030E-01 8.08266E-31
8.31310E-01 7.78795E-31
8.34565E-01 7.50348E-31
8.37795E-01 7.22888E-31
8.40999E-01 6.96378E-31
8.44177E-01 6.70783E-31
8.47329E-01 6.46071E-31
8.50455E-01 6.22209E-31
8.53553E-01 5.99167E-31
8.56625E-01 5.76916E-31
8.59670E-01 5.55428E-31
8.62687E-01 5.34676E-31
8.65677E-01 5.14634E-31
8.68639E-01 4.95277E-31
8.71572E-01 4.76582E-31
8.74478E-01 4.58526E-31
8.77355E-01 4.41086E-31
8.80203E-01 4.24242E-31
8.83022E-01 4.07973E-31
8.85812E-01 3.92259E-31
8.88573E-01 3.77082E-31
8.91304E-01 3.62424E-31
8.94005E-01 3.48266E-31
8.96677E-01 3.34593E-31
8.99318E-01 3.21388E-31
9.01928E-01 3.08634E-31
9.04508E-01 2.96318E-31
9.07058E-01 2.84424E-31
9.09576E-01 2.72939E-31
9.12063E-01 2.61848E-31
9.14519E-01 2.51140E-31
9.16943E-01 2.40800E-31
9.19335E-01 2.30818E-31
9.21696E-01 2.21180E-31
9.24024E-01 2.11877E-31
9.26320E-01 2.02896E-31
9.28584E-01 1.94228E-31
9.30815E-01 1.85862E-31
9.33013E-01 1.77788E-31
9.35178E-01 1.69998E-31
9.37310E-01 1.62480E-31
9.39409E-01 1.55228E-31
9.41474E-01 1.48231E-31
9.43505E-01 1.41483E-31
9.45503E-01 1.34974E-31
9.47467E-01 1.28697E-31
9.49397E-01 1.22646E-31
9.51293E-01 1.16811E-31
9.53154E-01 1.11188E-31
9.54981E-01 1.05768E-31
9.56773E-01 1.00546E-31
9.58530E-01 9.55157E-32
9.60252E-01 9.06703E-32
9.61940E-01 8.60044E-32
9.63592E-01 8.15124E-32
9.65209E-01 7.71890E-32
9.66790E-01 7.30289E-32
9.68336E-01 6.90272E-32
9.69846E-01 6.51790E-32
9.71321E-01 6.14797E-32
9.72759E-01 5.79249E-32
9.74162E-01 5.45102E-32
9.75528E-01 5.12316E-32
9.76858E-01 4.80849E-32
9.78152E-01 4.50666E-32
9.79410E-01 4.21729E-32
9.80631E-01 3.94001E-32
9.81815E-01 3.67451E-32
9.82963E-01 3.42045E-32
9.84074E-01 3.17753E-32
9.85148E-01 2.94544E-32
9.86185E-01 2.72391E-32
9.87185E-01 2.51266E-32
9.88148E-01 2.31144E-32
9.89074E-01 2.11999E-32
9.89962E-01 1.93808E-32
9.90814E-01 1.76549E-32
9.91627E-01 1.60200E-32
9.92404E-01 1.44742E-32
9.93143E-01 1.30155E-32
9.93844E-01 1.16420E-32
9.94508E-01 1.03523E-32
9.95134E-01 9.14452E-33
9.95722E-01 8.01732E-33
9.96273E-01 6.96923E-33
9.96786E-01 5.99899E-33
9.97261E-01 5.10537E-33
9.97698E-01 4.28729E-33
9.98097E-01 3.54370E-33
9.98459E-01 2.87368E-33
9.98782E-01 2.27642E-33
9.99067E-01 1.75117E-33
9.99315E-01 1.29727E-33
9.99524E-01 9.14133E-34
9.99695E-01 6.01324E-34
9.99829E-01 3.58425E-34
9.99924E-01 1.85144E-34
9.99981E-01 8.12587E-35
1.00000E+00 4.66465E-35
