 #
 # Subroutine ELSEPA. Elastic scattering of electrons and positrons
 #                    by neutral atoms and positive ions
 #
 # Projectile: positron
 # Kinetic energy = 5.00000E+06 eV = 1.83747E+05 a.u.
 #
 # WARNING: High-energy factorization with free-atom DF screening.
 #          Absorption, polarization and exchange corrections are
 #          switched off.
 #          Phase shifts are calculated for the bare nucleus.
 #          Scattering amplitudes are not evaluated.
 #
 # Element: Zr,  Z =  40,  atomic weight = 9.12240E+01 g/mol
 #
 # Nuclear model: Fermi distribution
 #                Average radius = 4.81674E-13 cm
 #                Skin thickness = 5.46000E-14 cm
 #
 # Number of electrons = 40
 #
 # Total elastic cross section = 4.10316E-18 cm**2 = 1.46526E-01 a0**2
 # 1st transport cross section = 7.13982E-23 cm**2 = 2.54968E-06 a0**2
 # 2nd transport cross section = 2.05634E-22 cm**2 = 7.34334E-06 a0**2
 #
 #
 # Differential cross section:                       MU=(1-COS(THETA))/2
 #
 #  THETA        MU          DCS          DCS        Sherman      error
 #  (deg)                 (cm**2/sr)   (a0**2/sr)    function
 #----------------------------------------------------------------------
0.00000E+00 1.69034E-12
7.61557E-13 1.69032E-12
1.18994E-12 1.69031E-12
1.71346E-12 1.69029E-12
2.33225E-12 1.69028E-12
3.04617E-12 1.69026E-12
3.85530E-12 1.69023E-12
4.75964E-12 1.69021E-12
5.75917E-12 1.69018E-12
6.85391E-12 1.69015E-12
8.04379E-12 1.69012E-12
9.32893E-12 1.69008E-12
1.07092E-11 1.69004E-12
1.21847E-11 1.69000E-12
1.37554E-11 1.68996E-12
1.54213E-11 1.68991E-12
1.71823E-11 1.68987E-12
1.90386E-11 1.68981E-12
2.09900E-11 1.68976E-12
2.30367E-11 1.68970E-12
2.51785E-11 1.68964E-12
2.74156E-11 1.68958E-12
2.97478E-11 1.68952E-12
3.21752E-11 1.68945E-12
3.46979E-11 1.68938E-12
3.73157E-11 1.68931E-12
4.00286E-11 1.68924E-12
4.28368E-11 1.68916E-12
4.57402E-11 1.68908E-12
4.87388E-11 1.68900E-12
5.18325E-11 1.68891E-12
5.50215E-11 1.68882E-12
5.83057E-11 1.68873E-12
6.16850E-11 1.68864E-12
6.51595E-11 1.68855E-12
6.87293E-11 1.68845E-12
7.23943E-11 1.68835E-12
7.61544E-11 1.68824E-12
1.18991E-10 1.68707E-12
1.71347E-10 1.68564E-12
2.33223E-10 1.68395E-12
3.04617E-10 1.68201E-12
3.85531E-10 1.67981E-12
4.75965E-10 1.67736E-12
5.75917E-10 1.67466E-12
6.85389E-10 1.67171E-12
8.04380E-10 1.66852E-12
9.32891E-10 1.66508E-12
1.07092E-09 1.66139E-12
1.21847E-09 1.65747E-12
1.37554E-09 1.65331E-12
1.54213E-09 1.64892E-12
1.71823E-09 1.64429E-12
1.90386E-09 1.63944E-12
2.09900E-09 1.63436E-12
2.30367E-09 1.62906E-12
2.51785E-09 1.62355E-12
2.74156E-09 1.61782E-12
2.97478E-09 1.61188E-12
3.21752E-09 1.60574E-12
3.46978E-09 1.59939E-12
3.73156E-09 1.59284E-12
4.00286E-09 1.58611E-12
4.28368E-09 1.57918E-12
4.57402E-09 1.57207E-12
4.87388E-09 1.56477E-12
5.18326E-09 1.55731E-12
5.50215E-09 1.54967E-12
5.83057E-09 1.54186E-12
6.16850E-09 1.53390E-12
6.51596E-09 1.52577E-12
6.87293E-09 1.51750E-12
7.23942E-09 1.50908E-12
7.61544E-09 1.50051E-12
1.18991E-08 1.40816E-12
1.71347E-08 1.30706E-12
2.33223E-08 1.20190E-12
3.04617E-08 1.09671E-12
3.85531E-08 9.94684E-13
4.75965E-08 8.98140E-13
5.75917E-08 8.08548E-13
6.85389E-08 7.26675E-13
8.04380E-08 6.52738E-13
9.32891E-08 5.86557E-13
1.07092E-07 5.27692E-13
1.21847E-07 4.75553E-13
1.37554E-07 4.29483E-13
1.54213E-07 3.88812E-13
1.71823E-07 3.52898E-13
1.90386E-07 3.21147E-13
2.09900E-07 2.93021E-13
2.30367E-07 2.68045E-13
2.51785E-07 2.45804E-13
2.74156E-07 2.25936E-13
2.97478E-07 2.08131E-13
3.21752E-07 1.92124E-13
3.46978E-07 1.77688E-13
3.73156E-07 1.64627E-13
4.00286E-07 1.52776E-13
4.28368E-07 1.41994E-13
4.57402E-07 1.32158E-13
4.87388E-07 1.23163E-13
5.18325E-07 1.14920E-13
5.50215E-07 1.07350E-13
5.83057E-07 1.00386E-13
6.16850E-07 9.39677E-14
6.51596E-07 8.80440E-14
6.87293E-07 8.25689E-14
7.23942E-07 7.75020E-14
7.61543E-07 7.28075E-14
1.18991E-06 4.06720E-14
1.71347E-06 2.44176E-14
2.33223E-06 1.56582E-14
3.04617E-06 1.06179E-14
3.85531E-06 7.51995E-15
4.75964E-06 5.49985E-15
5.75916E-06 4.11789E-15
6.85388E-06 3.13783E-15
8.04378E-06 2.42454E-15
9.32888E-06 1.89563E-15
1.07092E-05 1.49793E-15
1.21846E-05 1.19556E-15
1.37553E-05 9.63426E-16
1.54212E-05 7.83624E-16
1.71822E-05 6.43149E-16
1.90385E-05 5.32449E-16
2.09899E-05 4.44485E-16
2.30365E-05 3.73989E-16
2.51783E-05 3.17021E-16
2.74153E-05 2.70607E-16
2.97475E-05 2.32494E-16
3.21749E-05 2.00959E-16
3.46974E-05 1.74675E-16
3.73152E-05 1.52618E-16
4.00281E-05 1.33987E-16
4.28362E-05 1.18154E-16
4.57395E-05 1.04620E-16
4.87380E-05 9.29907E-17
5.18317E-05 8.29471E-17
5.50205E-05 7.42326E-17
5.83045E-05 6.66384E-17
6.16838E-05 5.99935E-17
6.51582E-05 5.41573E-17
6.87277E-05 4.90131E-17
7.23925E-05 4.44639E-17
7.61524E-05 4.04283E-17
9.21439E-05 2.82013E-17
1.09658E-04 2.02399E-17
1.28695E-04 1.48808E-17
1.49255E-04 1.11717E-17
1.71338E-04 8.54262E-18
1.94942E-04 6.63956E-18
2.20070E-04 5.23612E-18
2.46720E-04 4.18366E-18
2.74892E-04 3.38236E-18
3.04586E-04 2.76386E-18
3.35803E-04 2.28044E-18
3.68542E-04 1.89824E-18
4.02802E-04 1.59289E-18
4.38585E-04 1.34657E-18
4.75889E-04 1.14610E-18
5.14715E-04 9.81608E-19
5.55063E-04 8.45608E-19
5.96931E-04 7.32375E-19
6.40321E-04 6.37479E-19
6.85233E-04 5.57466E-19
7.31665E-04 4.89618E-19
7.79618E-04 4.31781E-19
8.29092E-04 3.82231E-19
8.80086E-04 3.39582E-19
9.32601E-04 3.02713E-19
9.86636E-04 2.70708E-19
1.04219E-03 2.42816E-19
1.09927E-03 2.18419E-19
1.15786E-03 1.97005E-19
1.21797E-03 1.78147E-19
1.27961E-03 1.61487E-19
1.34276E-03 1.46725E-19
1.40743E-03 1.33608E-19
1.47362E-03 1.21920E-19
1.54133E-03 1.11479E-19
1.61056E-03 1.02130E-19
1.68131E-03 9.37367E-20
1.75357E-03 8.61859E-20
1.82735E-03 7.93779E-20
1.90265E-03 7.32268E-20
1.97947E-03 6.76582E-20
2.05780E-03 6.26071E-20
2.13765E-03 5.80171E-20
2.21902E-03 5.38386E-20
2.30190E-03 5.00282E-20
2.38630E-03 4.65479E-20
2.47222E-03 4.33638E-20
2.55965E-03 4.04464E-20
2.64859E-03 3.77693E-20
2.73905E-03 3.53092E-20
2.83103E-03 3.30454E-20
2.92452E-03 3.09594E-20
3.01952E-03 2.90348E-20
3.11604E-03 2.72569E-20
3.21407E-03 2.56124E-20
3.31362E-03 2.40896E-20
3.41468E-03 2.26778E-20
3.51725E-03 2.13676E-20
3.62133E-03 2.01502E-20
3.72692E-03 1.90179E-20
3.83403E-03 1.79637E-20
3.94265E-03 1.69812E-20
4.05278E-03 1.60647E-20
4.16442E-03 1.52090E-20
4.27757E-03 1.44092E-20
4.39223E-03 1.36610E-20
4.50840E-03 1.29606E-20
4.62608E-03 1.23043E-20
4.74527E-03 1.16888E-20
4.86597E-03 1.11112E-20
4.98817E-03 1.05686E-20
5.11188E-03 1.00587E-20
5.23711E-03 9.57891E-21
5.36383E-03 9.12730E-21
5.49207E-03 8.70187E-21
5.62181E-03 8.30081E-21
5.75306E-03 7.92249E-21
5.88581E-03 7.56538E-21
6.02007E-03 7.22807E-21
6.15583E-03 6.90925E-21
6.29310E-03 6.60774E-21
6.43187E-03 6.32241E-21
6.57214E-03 6.05224E-21
6.71392E-03 5.79628E-21
6.85720E-03 5.55364E-21
7.00198E-03 5.32350E-21
7.14827E-03 5.10510E-21
7.29605E-03 4.89773E-21
7.44534E-03 4.70072E-21
7.59612E-03 4.51347E-21
7.97965E-03 4.08437E-21
8.37255E-03 3.70482E-21
8.77480E-03 3.36813E-21
9.18641E-03 3.06864E-21
9.60736E-03 2.80154E-21
1.00376E-02 2.56273E-21
1.04773E-02 2.34870E-21
1.09262E-02 2.15643E-21
1.13844E-02 1.98333E-21
1.18520E-02 1.82715E-21
1.23288E-02 1.68597E-21
1.28150E-02 1.55808E-21
1.33104E-02 1.44202E-21
1.38150E-02 1.33650E-21
1.43290E-02 1.24040E-21
1.48521E-02 1.15273E-21
1.53845E-02 1.07263E-21
1.59262E-02 9.99316E-22
1.64770E-02 9.32121E-22
1.70371E-02 8.70443E-22
1.76063E-02 8.13750E-22
1.81848E-02 7.61566E-22
1.87724E-02 7.13470E-22
1.93692E-02 6.69085E-22
1.99751E-02 6.28075E-22
2.05901E-02 5.90136E-22
2.12143E-02 5.54998E-22
2.18476E-02 5.22417E-22
2.24900E-02 4.92175E-22
2.31415E-02 4.64073E-22
2.38021E-02 4.37933E-22
2.44717E-02 4.13593E-22
2.51504E-02 3.90908E-22
2.58382E-02 3.69744E-22
2.65349E-02 3.49982E-22
2.72407E-02 3.31512E-22
2.79555E-02 3.14234E-22
2.86793E-02 2.98058E-22
2.94120E-02 2.82901E-22
3.01537E-02 2.68686E-22
3.09043E-02 2.55346E-22
3.16639E-02 2.42815E-22
3.24324E-02 2.31038E-22
3.32098E-02 2.19959E-22
3.39961E-02 2.09530E-22
3.47912E-02 1.99707E-22
3.55952E-02 1.90446E-22
3.64081E-02 1.81712E-22
3.72297E-02 1.73467E-22
3.80602E-02 1.65681E-22
3.88995E-02 1.58322E-22
3.97476E-02 1.51363E-22
4.06044E-02 1.44778E-22
4.14700E-02 1.38544E-22
4.23443E-02 1.32639E-22
4.32273E-02 1.27041E-22
4.41190E-02 1.21733E-22
4.50194E-02 1.16696E-22
4.59284E-02 1.11914E-22
4.68461E-02 1.07372E-22
4.87074E-02 9.89508E-23
5.06030E-02 9.13308E-23
5.25328E-02 8.44224E-23
5.44967E-02 7.81478E-23
5.64946E-02 7.24389E-23
5.85262E-02 6.72359E-23
6.05914E-02 6.24863E-23
6.26901E-02 5.81437E-23
6.48222E-02 5.41672E-23
6.69873E-02 5.05207E-23
6.91854E-02 4.71719E-23
7.14163E-02 4.40926E-23
7.36799E-02 4.12570E-23
7.59760E-02 3.86428E-23
7.83043E-02 3.62294E-23
8.06647E-02 3.39988E-23
8.30571E-02 3.19349E-23
8.54812E-02 3.00229E-23
8.79369E-02 2.82498E-23
9.04240E-02 2.66036E-23
9.29422E-02 2.50738E-23
9.54915E-02 2.36506E-23
9.80716E-02 2.23253E-23
1.00682E-01 2.10900E-23
1.03323E-01 1.99376E-23
1.05995E-01 1.88615E-23
1.08696E-01 1.78558E-23
1.11427E-01 1.69150E-23
1.14188E-01 1.60343E-23
1.16978E-01 1.52091E-23
1.19797E-01 1.44352E-23
1.22645E-01 1.37091E-23
1.25522E-01 1.30272E-23
1.28428E-01 1.23863E-23
1.31361E-01 1.17835E-23
1.34323E-01 1.12163E-23
1.37313E-01 1.06820E-23
1.40330E-01 1.01785E-23
1.43375E-01 9.70364E-24
1.46447E-01 9.25559E-24
1.49545E-01 8.83252E-24
1.52671E-01 8.43279E-24
1.55823E-01 8.05489E-24
1.59001E-01 7.69742E-24
1.62205E-01 7.35909E-24
1.65435E-01 7.03870E-24
1.68690E-01 6.73513E-24
1.71970E-01 6.44733E-24
1.75276E-01 6.17434E-24
1.78606E-01 5.91527E-24
1.81961E-01 5.66928E-24
1.85340E-01 5.43560E-24
1.88743E-01 5.21350E-24
1.92169E-01 5.00232E-24
1.95619E-01 4.80143E-24
1.99092E-01 4.61022E-24
2.02589E-01 4.42814E-24
2.06107E-01 4.25470E-24
2.09649E-01 4.08941E-24
2.13212E-01 3.93182E-24
2.16797E-01 3.78151E-24
2.20404E-01 3.63808E-24
2.24032E-01 3.50116E-24
2.27680E-01 3.37041E-24
2.31350E-01 3.24550E-24
2.35040E-01 3.12612E-24
2.38751E-01 3.01199E-24
2.42481E-01 2.90283E-24
2.46231E-01 2.79840E-24
2.50000E-01 2.69845E-24
2.53788E-01 2.60275E-24
2.57595E-01 2.51109E-24
2.61421E-01 2.42327E-24
2.65264E-01 2.33911E-24
2.69126E-01 2.25843E-24
2.73005E-01 2.18105E-24
2.76901E-01 2.10683E-24
2.80814E-01 2.03559E-24
2.84744E-01 1.96721E-24
2.88691E-01 1.90155E-24
2.92653E-01 1.83849E-24
2.96632E-01 1.77791E-24
3.00625E-01 1.71968E-24
3.04634E-01 1.66371E-24
3.08658E-01 1.60989E-24
3.12697E-01 1.55811E-24
3.16749E-01 1.50830E-24
3.20816E-01 1.46037E-24
3.24896E-01 1.41423E-24
3.28990E-01 1.36981E-24
3.33097E-01 1.32702E-24
3.37216E-01 1.28580E-24
3.41348E-01 1.24608E-24
3.45492E-01 1.20779E-24
3.49647E-01 1.17089E-24
3.53814E-01 1.13531E-24
3.57992E-01 1.10099E-24
3.62181E-01 1.06787E-24
3.66381E-01 1.03592E-24
3.70590E-01 1.00508E-24
3.74810E-01 9.75306E-25
3.79039E-01 9.46562E-25
3.83277E-01 9.18800E-25
3.87524E-01 8.91982E-25
3.91780E-01 8.66069E-25
3.96044E-01 8.41027E-25
4.00316E-01 8.16822E-25
4.04596E-01 7.93421E-25
4.08882E-01 7.70794E-25
4.13176E-01 7.48910E-25
4.17476E-01 7.27741E-25
4.21783E-01 7.07258E-25
4.26095E-01 6.87436E-25
4.30413E-01 6.68250E-25
4.34737E-01 6.49677E-25
4.39065E-01 6.31695E-25
4.43398E-01 6.14281E-25
4.47736E-01 5.97413E-25
4.52077E-01 5.81073E-25
4.56422E-01 5.65240E-25
4.60770E-01 5.49896E-25
4.65122E-01 5.35024E-25
4.69476E-01 5.20608E-25
4.73832E-01 5.06630E-25
4.78190E-01 4.93076E-25
4.82550E-01 4.79930E-25
4.86912E-01 4.67178E-25
4.91274E-01 4.54806E-25
4.95637E-01 4.42801E-25
5.00000E-01 4.31151E-25
5.04363E-01 4.19843E-25
5.08726E-01 4.08867E-25
5.13088E-01 3.98209E-25
5.17450E-01 3.87860E-25
5.21810E-01 3.77809E-25
5.26168E-01 3.68047E-25
5.30524E-01 3.58563E-25
5.34878E-01 3.49349E-25
5.39230E-01 3.40395E-25
5.43578E-01 3.31694E-25
5.47923E-01 3.23236E-25
5.52264E-01 3.15015E-25
5.56602E-01 3.07022E-25
5.60935E-01 2.99250E-25
5.65263E-01 2.91692E-25
5.69587E-01 2.84341E-25
5.73905E-01 2.77191E-25
5.78217E-01 2.70235E-25
5.82524E-01 2.63467E-25
5.86824E-01 2.56882E-25
5.91118E-01 2.50474E-25
5.95404E-01 2.44236E-25
5.99684E-01 2.38165E-25
6.03956E-01 2.32255E-25
6.08220E-01 2.26501E-25
6.12476E-01 2.20898E-25
6.16723E-01 2.15441E-25
6.20961E-01 2.10127E-25
6.25190E-01 2.04951E-25
6.29410E-01 1.99909E-25
6.33619E-01 1.94997E-25
6.37819E-01 1.90212E-25
6.42008E-01 1.85548E-25
6.46186E-01 1.81004E-25
6.50353E-01 1.76575E-25
6.54508E-01 1.72258E-25
6.58652E-01 1.68049E-25
6.62784E-01 1.63947E-25
6.66903E-01 1.59947E-25
6.71010E-01 1.56047E-25
6.75104E-01 1.52244E-25
6.79184E-01 1.48535E-25
6.83251E-01 1.44918E-25
6.87303E-01 1.41390E-25
6.91342E-01 1.37948E-25
6.95366E-01 1.34590E-25
6.99375E-01 1.31315E-25
7.03368E-01 1.28118E-25
7.07347E-01 1.25000E-25
7.11309E-01 1.21956E-25
7.15256E-01 1.18986E-25
7.19186E-01 1.16087E-25
7.23099E-01 1.13257E-25
7.26995E-01 1.10495E-25
7.30874E-01 1.07798E-25
7.34736E-01 1.05166E-25
7.38579E-01 1.02595E-25
7.42405E-01 1.00086E-25
7.46212E-01 9.76350E-26
7.50000E-01 9.52419E-26
7.53769E-01 9.29047E-26
7.57519E-01 9.06222E-26
7.61249E-01 8.83928E-26
7.64960E-01 8.62152E-26
7.68650E-01 8.40881E-26
7.72320E-01 8.20101E-26
7.75968E-01 7.99801E-26
7.79596E-01 7.79969E-26
7.83203E-01 7.60592E-26
7.86788E-01 7.41660E-26
7.90351E-01 7.23161E-26
7.93893E-01 7.05085E-26
7.97411E-01 6.87421E-26
8.00908E-01 6.70159E-26
8.04381E-01 6.53289E-26
8.07831E-01 6.36802E-26
8.11257E-01 6.20689E-26
8.14660E-01 6.04940E-26
8.18039E-01 5.89547E-26
8.21394E-01 5.74502E-26
8.24724E-01 5.59795E-26
8.28030E-01 5.45420E-26
8.31310E-01 5.31368E-26
8.34565E-01 5.17632E-26
8.37795E-01 5.04205E-26
8.40999E-01 4.91079E-26
8.44177E-01 4.78247E-26
8.47329E-01 4.65703E-26
8.50455E-01 4.53440E-26
8.53553E-01 4.41452E-26
8.56625E-01 4.29732E-26
8.59670E-01 4.18275E-26
8.62687E-01 4.07075E-26
8.65677E-01 3.96125E-26
8.68639E-01 3.85421E-26
8.71572E-01 3.74958E-26
8.74478E-01 3.64729E-26
8.77355E-01 3.54730E-26
8.80203E-01 3.44955E-26
8.83022E-01 3.35401E-26
8.85812E-01 3.26062E-26
8.88573E-01 3.16934E-26
8.91304E-01 3.08012E-26
8.94005E-01 2.99293E-26
8.96677E-01 2.90771E-26
8.99318E-01 2.82443E-26
9.01928E-01 2.74304E-26
9.04508E-01 2.66352E-26
9.07058E-01 2.58582E-26
9.09576E-01 2.50991E-26
9.12063E-01 2.43575E-26
9.14519E-01 2.36330E-26
9.16943E-01 2.29254E-26
9.19335E-01 2.22342E-26
9.21696E-01 2.15593E-26
9.24024E-01 2.09002E-26
9.26320E-01 2.02567E-26
9.28584E-01 1.96284E-26
9.30815E-01 1.90152E-26
9.33013E-01 1.84167E-26
9.35178E-01 1.78327E-26
9.37310E-01 1.72628E-26
9.39409E-01 1.67069E-26
9.41474E-01 1.61647E-26
9.43505E-01 1.56360E-26
9.45503E-01 1.51204E-26
9.47467E-01 1.46179E-26
9.49397E-01 1.41282E-26
9.51293E-01 1.36510E-26
9.53154E-01 1.31862E-26
9.54981E-01 1.27335E-26
9.56773E-01 1.22929E-26
9.58530E-01 1.18640E-26
9.60252E-01 1.14466E-26
9.61940E-01 1.10408E-26
9.63592E-01 1.06461E-26
9.65209E-01 1.02626E-26
9.66790E-01 9.88990E-27
9.68336E-01 9.52801E-27
9.69846E-01 9.17673E-27
9.71321E-01 8.83591E-27
9.72759E-01 8.50541E-27
9.74162E-01 8.18509E-27
9.75528E-01 7.87482E-27
9.76858E-01 7.57446E-27
9.78152E-01 7.28391E-27
9.79410E-01 7.00302E-27
9.80631E-01 6.73170E-27
9.81815E-01 6.46983E-27
9.82963E-01 6.21730E-27
9.84074E-01 5.97401E-27
9.85148E-01 5.73986E-27
9.86185E-01 5.51476E-27
9.87185E-01 5.29860E-27
9.88148E-01 5.09132E-27
9.89074E-01 4.89281E-27
9.89962E-01 4.70301E-27
9.90814E-01 4.52183E-27
9.91627E-01 4.34920E-27
9.92404E-01 4.18506E-27
9.93143E-01 4.02933E-27
9.93844E-01 3.88196E-27
9.94508E-01 3.74289E-27
9.95134E-01 3.61205E-27
9.95722E-01 3.48940E-27
9.96273E-01 3.37490E-27
9.96786E-01 3.26848E-27
9.97261E-01 3.17012E-27
9.97698E-01 3.07976E-27
9.98097E-01 2.99739E-27
9.98459E-01 2.92296E-27
9.98782E-01 2.85644E-27
9.99067E-01 2.79781E-27
9.99315E-01 2.74704E-27
9.99524E-01 2.70412E-27
9.99695E-01 2.66902E-27
9.99829E-01 2.64174E-27
9.99924E-01 2.62226E-27
9.99981E-01 2.61058E-27
1.00000E+00 2.60668E-27
