 #
 # Subroutine ELSEPA. Elastic scattering of electrons and positrons
 #                    by neutral atoms and positive ions
 #
 # Projectile: positron
 # Kinetic energy = 1.25000E+07 eV = 4.59367E+05 a.u.
 #
 # WARNING: High-energy factorization with free-atom DF screening.
 #          Absorption, polarization and exchange corrections are
 #          switched off.
 #          Phase shifts are calculated for the bare nucleus.
 #          Scattering amplitudes are not evaluated.
 #
 # Element: Zr,  Z =  40,  atomic weight = 9.12240E+01 g/mol
 #
 # Nuclear model: Fermi distribution
 #                Average radius = 4.81674E-13 cm
 #                Skin thickness = 5.46000E-14 cm
 #
 # Number of electrons = 40
 #
 # Total elastic cross section = 4.07052E-18 cm**2 = 1.45361E-01 a0**2
 # 1st transport cross section = 1.47138E-23 cm**2 = 5.25441E-07 a0**2
 # 2nd transport cross section = 4.26654E-23 cm**2 = 1.52361E-06 a0**2
 #
 #
 # Differential cross section:                       MU=(1-COS(THETA))/2
 #
 #  THETA        MU          DCS          DCS        Sherman      error
 #  (deg)                 (cm**2/sr)   (a0**2/sr)    function
 #----------------------------------------------------------------------
0.00000E+00 9.42184E-12
7.61557E-13 9.42117E-12
1.18994E-12 9.42080E-12
1.71346E-12 9.42035E-12
2.33225E-12 9.41981E-12
3.04617E-12 9.41920E-12
3.85530E-12 9.41850E-12
4.75964E-12 9.41773E-12
5.75917E-12 9.41687E-12
6.85391E-12 9.41593E-12
8.04379E-12 9.41490E-12
9.32893E-12 9.41380E-12
1.07092E-11 9.41262E-12
1.21847E-11 9.41135E-12
1.37554E-11 9.41001E-12
1.54213E-11 9.40858E-12
1.71823E-11 9.40708E-12
1.90386E-11 9.40549E-12
2.09900E-11 9.40382E-12
2.30367E-11 9.40207E-12
2.51785E-11 9.40024E-12
2.74156E-11 9.39833E-12
2.97478E-11 9.39634E-12
3.21752E-11 9.39427E-12
3.46979E-11 9.39211E-12
3.73157E-11 9.38988E-12
4.00286E-11 9.38757E-12
4.28368E-11 9.38518E-12
4.57402E-11 9.38271E-12
4.87388E-11 9.38015E-12
5.18325E-11 9.37752E-12
5.50215E-11 9.37481E-12
5.83057E-11 9.37202E-12
6.16850E-11 9.36915E-12
6.51595E-11 9.36620E-12
6.87293E-11 9.36317E-12
7.23943E-11 9.36007E-12
7.61544E-11 9.35688E-12
1.18991E-10 9.32070E-12
1.71347E-10 9.27679E-12
2.33223E-10 9.22532E-12
3.04617E-10 9.16650E-12
3.85531E-10 9.10054E-12
4.75965E-10 9.02771E-12
5.75917E-10 8.94827E-12
6.85389E-10 8.86252E-12
8.04380E-10 8.77078E-12
9.32891E-10 8.67337E-12
1.07092E-09 8.57064E-12
1.21847E-09 8.46293E-12
1.37554E-09 8.35062E-12
1.54213E-09 8.23409E-12
1.71823E-09 8.11366E-12
1.90386E-09 7.98971E-12
2.09900E-09 7.86259E-12
2.30367E-09 7.73281E-12
2.51785E-09 7.60061E-12
2.74156E-09 7.46630E-12
2.97478E-09 7.33023E-12
3.21752E-09 7.19294E-12
3.46978E-09 7.05462E-12
3.73156E-09 6.91550E-12
4.00286E-09 6.77586E-12
4.28368E-09 6.63618E-12
4.57402E-09 6.49677E-12
4.87388E-09 6.35763E-12
5.18326E-09 6.21899E-12
5.50215E-09 6.08121E-12
5.83057E-09 5.94481E-12
6.16850E-09 5.80950E-12
6.51596E-09 5.67547E-12
6.87293E-09 5.54287E-12
7.23942E-09 5.41255E-12
7.61544E-09 5.28391E-12
1.18991E-08 4.11825E-12
1.71347E-08 3.19588E-12
2.33223E-08 2.49712E-12
3.04617E-08 1.97596E-12
3.85531E-08 1.58666E-12
4.75965E-08 1.29223E-12
5.75917E-08 1.06584E-12
6.85389E-08 8.88430E-13
8.04380E-08 7.47288E-13
9.32891E-08 6.33245E-13
1.07092E-07 5.39967E-13
1.21847E-07 4.63047E-13
1.37554E-07 3.98517E-13
1.54213E-07 3.42347E-13
1.71823E-07 2.97006E-13
1.90386E-07 2.60043E-13
2.09900E-07 2.29627E-13
2.30367E-07 2.01400E-13
2.51785E-07 1.77646E-13
2.74156E-07 1.57774E-13
2.97478E-07 1.41028E-13
3.21752E-07 1.26017E-13
3.46978E-07 1.12893E-13
3.73156E-07 1.01672E-13
4.00286E-07 9.20217E-14
4.28368E-07 8.34499E-14
4.57402E-07 7.57626E-14
4.87388E-07 6.90699E-14
5.18325E-07 6.32166E-14
5.50215E-07 5.80090E-14
5.83057E-07 5.32202E-14
6.16850E-07 4.89903E-14
6.51596E-07 4.52403E-14
6.87293E-07 4.19011E-14
7.23942E-07 3.87441E-14
7.61543E-07 3.59234E-14
1.18991E-06 1.82163E-14
1.71347E-06 1.00375E-14
2.33223E-06 5.87063E-15
3.04617E-06 3.62228E-15
3.85531E-06 2.34458E-15
4.75964E-06 1.58511E-15
5.75916E-06 1.11275E-15
6.85388E-06 8.05744E-16
8.04378E-06 5.98791E-16
9.32888E-06 4.54828E-16
1.07092E-05 3.51904E-16
1.21846E-05 2.76569E-16
1.37553E-05 2.20252E-16
1.54212E-05 1.77450E-16
1.71822E-05 1.44600E-16
1.90385E-05 1.18932E-16
2.09899E-05 9.86723E-17
2.30365E-05 8.25595E-17
2.51783E-05 6.95243E-17
2.74153E-05 5.89647E-17
2.97475E-05 5.03129E-17
3.21749E-05 4.31800E-17
3.46974E-05 3.72714E-17
3.73152E-05 3.23269E-17
4.00281E-05 2.81805E-17
4.28362E-05 2.46750E-17
4.57395E-05 2.16974E-17
4.87380E-05 1.91561E-17
5.18317E-05 1.69732E-17
5.50205E-05 1.50935E-17
5.83045E-05 1.34662E-17
6.16838E-05 1.20527E-17
6.51582E-05 1.08205E-17
6.87277E-05 9.74172E-18
7.23925E-05 8.79483E-18
7.61524E-05 7.96013E-18
9.21439E-05 5.46765E-18
1.09658E-04 3.87926E-18
1.28695E-04 2.82860E-18
1.49255E-04 2.11072E-18
1.71338E-04 1.60685E-18
1.94942E-04 1.24469E-18
2.20070E-04 9.78961E-19
2.46720E-04 7.80449E-19
2.74892E-04 6.29732E-19
3.04586E-04 5.13652E-19
3.35803E-04 4.23083E-19
3.68542E-04 3.51593E-19
4.02802E-04 2.94555E-19
4.38585E-04 2.48607E-19
4.75889E-04 2.11262E-19
5.14715E-04 1.80658E-19
5.55063E-04 1.55390E-19
5.96931E-04 1.34378E-19
6.40321E-04 1.16794E-19
6.85233E-04 1.01988E-19
7.31665E-04 8.94504E-20
7.79618E-04 7.87774E-20
8.29092E-04 6.96459E-20
8.80086E-04 6.17972E-20
9.32601E-04 5.50211E-20
9.86636E-04 4.91465E-20
1.04219E-03 4.40337E-20
1.09927E-03 3.95672E-20
1.15786E-03 3.56516E-20
1.21797E-03 3.22075E-20
1.27961E-03 2.91683E-20
1.34276E-03 2.64784E-20
1.40743E-03 2.40908E-20
1.47362E-03 2.19657E-20
1.54133E-03 2.00692E-20
1.61056E-03 1.83726E-20
1.68131E-03 1.68510E-20
1.75357E-03 1.54833E-20
1.82735E-03 1.42512E-20
1.90265E-03 1.31390E-20
1.97947E-03 1.21328E-20
2.05780E-03 1.12209E-20
2.13765E-03 1.03929E-20
2.21902E-03 9.63959E-21
2.30190E-03 8.95313E-21
2.38630E-03 8.32653E-21
2.47222E-03 7.75364E-21
2.55965E-03 7.22903E-21
2.64859E-03 6.74791E-21
2.73905E-03 6.30604E-21
2.83103E-03 5.89964E-21
2.92452E-03 5.52535E-21
3.01952E-03 5.18018E-21
3.11604E-03 4.86146E-21
3.21407E-03 4.56680E-21
3.31362E-03 4.29406E-21
3.41468E-03 4.04131E-21
3.51725E-03 3.80682E-21
3.62133E-03 3.58903E-21
3.72692E-03 3.38655E-21
3.83403E-03 3.19809E-21
3.94265E-03 3.02252E-21
4.05278E-03 2.85878E-21
4.16442E-03 2.70595E-21
4.27757E-03 2.56315E-21
4.39223E-03 2.42962E-21
4.50840E-03 2.30463E-21
4.62608E-03 2.18755E-21
4.74527E-03 2.07779E-21
4.86597E-03 1.97479E-21
4.98817E-03 1.87807E-21
5.11188E-03 1.78718E-21
5.23711E-03 1.70170E-21
5.36383E-03 1.62124E-21
5.49207E-03 1.54547E-21
5.62181E-03 1.47405E-21
5.75306E-03 1.40670E-21
5.88581E-03 1.34313E-21
6.02007E-03 1.28309E-21
6.15583E-03 1.22636E-21
6.29310E-03 1.17272E-21
6.43187E-03 1.12196E-21
6.57214E-03 1.07391E-21
6.71392E-03 1.02839E-21
6.85720E-03 9.85246E-22
7.00198E-03 9.44330E-22
7.14827E-03 9.05507E-22
7.29605E-03 8.68649E-22
7.44534E-03 8.33639E-22
7.59612E-03 8.00366E-22
7.97965E-03 7.24132E-22
8.37255E-03 6.56721E-22
8.77480E-03 5.96938E-22
9.18641E-03 5.43772E-22
9.60736E-03 4.96367E-22
1.00376E-02 4.53991E-22
1.04773E-02 4.16019E-22
1.09262E-02 3.81915E-22
1.13844E-02 3.51215E-22
1.18520E-02 3.23522E-22
1.23288E-02 2.98490E-22
1.28150E-02 2.75820E-22
1.33104E-02 2.55249E-22
1.38150E-02 2.36549E-22
1.43290E-02 2.19520E-22
1.48521E-02 2.03986E-22
1.53845E-02 1.89794E-22
1.59262E-02 1.76808E-22
1.64770E-02 1.64906E-22
1.70371E-02 1.53982E-22
1.76063E-02 1.43941E-22
1.81848E-02 1.34700E-22
1.87724E-02 1.26184E-22
1.93692E-02 1.18326E-22
1.99751E-02 1.11066E-22
2.05901E-02 1.04349E-22
2.12143E-02 9.81294E-23
2.18476E-02 9.23626E-23
2.24900E-02 8.70100E-23
2.31415E-02 8.20367E-23
2.38021E-02 7.74107E-23
2.44717E-02 7.31035E-23
2.51504E-02 6.90894E-23
2.58382E-02 6.53449E-23
2.65349E-02 6.18485E-23
2.72407E-02 5.85808E-23
2.79555E-02 5.55242E-23
2.86793E-02 5.26626E-23
2.94120E-02 4.99814E-23
3.01537E-02 4.74672E-23
3.09043E-02 4.51077E-23
3.16639E-02 4.28916E-23
3.24324E-02 4.08086E-23
3.32098E-02 3.88493E-23
3.39961E-02 3.70051E-23
3.47912E-02 3.52680E-23
3.55952E-02 3.36307E-23
3.64081E-02 3.20863E-23
3.72297E-02 3.06286E-23
3.80602E-02 2.92519E-23
3.88995E-02 2.79510E-23
3.97476E-02 2.67208E-23
4.06044E-02 2.55568E-23
4.14700E-02 2.44548E-23
4.23443E-02 2.34109E-23
4.32273E-02 2.24215E-23
4.41190E-02 2.14833E-23
4.50194E-02 2.05931E-23
4.59284E-02 1.97480E-23
4.68461E-02 1.89452E-23
4.87074E-02 1.74572E-23
5.06030E-02 1.61108E-23
5.25328E-02 1.48901E-23
5.44967E-02 1.37817E-23
5.64946E-02 1.27731E-23
5.85262E-02 1.18541E-23
6.05914E-02 1.10152E-23
6.26901E-02 1.02483E-23
6.48222E-02 9.54605E-24
6.69873E-02 8.90212E-24
6.91854E-02 8.31088E-24
7.14163E-02 7.76719E-24
7.36799E-02 7.26664E-24
7.59760E-02 6.80515E-24
7.83043E-02 6.37919E-24
8.06647E-02 5.98553E-24
8.30571E-02 5.62129E-24
8.54812E-02 5.28392E-24
8.79369E-02 4.97105E-24
9.04240E-02 4.68064E-24
9.29422E-02 4.41076E-24
9.54915E-02 4.15971E-24
9.80716E-02 3.92596E-24
1.00682E-01 3.70811E-24
1.03323E-01 3.50489E-24
1.05995E-01 3.31514E-24
1.08696E-01 3.13782E-24
1.11427E-01 2.97196E-24
1.14188E-01 2.81671E-24
1.16978E-01 2.67126E-24
1.19797E-01 2.53489E-24
1.22645E-01 2.40693E-24
1.25522E-01 2.28677E-24
1.28428E-01 2.17386E-24
1.31361E-01 2.06767E-24
1.34323E-01 1.96775E-24
1.37313E-01 1.87365E-24
1.40330E-01 1.78498E-24
1.43375E-01 1.70137E-24
1.46447E-01 1.62248E-24
1.49545E-01 1.54800E-24
1.52671E-01 1.47764E-24
1.55823E-01 1.41113E-24
1.59001E-01 1.34823E-24
1.62205E-01 1.28869E-24
1.65435E-01 1.23232E-24
1.68690E-01 1.17892E-24
1.71970E-01 1.12830E-24
1.75276E-01 1.08029E-24
1.78606E-01 1.03473E-24
1.81961E-01 9.91477E-25
1.85340E-01 9.50396E-25
1.88743E-01 9.11356E-25
1.92169E-01 8.74238E-25
1.95619E-01 8.38933E-25
1.99092E-01 8.05335E-25
2.02589E-01 7.73347E-25
2.06107E-01 7.42881E-25
2.09649E-01 7.13849E-25
2.13212E-01 6.86174E-25
2.16797E-01 6.59781E-25
2.20404E-01 6.34600E-25
2.24032E-01 6.10566E-25
2.27680E-01 5.87617E-25
2.31350E-01 5.65697E-25
2.35040E-01 5.44751E-25
2.38751E-01 5.24729E-25
2.42481E-01 5.05582E-25
2.46231E-01 4.87266E-25
2.50000E-01 4.69738E-25
2.53788E-01 4.52960E-25
2.57595E-01 4.36893E-25
2.61421E-01 4.21502E-25
2.65264E-01 4.06753E-25
2.69126E-01 3.92616E-25
2.73005E-01 3.79060E-25
2.76901E-01 3.66058E-25
2.80814E-01 3.53583E-25
2.84744E-01 3.41610E-25
2.88691E-01 3.30116E-25
2.92653E-01 3.19078E-25
2.96632E-01 3.08475E-25
3.00625E-01 2.98286E-25
3.04634E-01 2.88493E-25
3.08658E-01 2.79079E-25
3.12697E-01 2.70025E-25
3.16749E-01 2.61316E-25
3.20816E-01 2.52936E-25
3.24896E-01 2.44871E-25
3.28990E-01 2.37107E-25
3.33097E-01 2.29630E-25
3.37216E-01 2.22429E-25
3.41348E-01 2.15492E-25
3.45492E-01 2.08807E-25
3.49647E-01 2.02363E-25
3.53814E-01 1.96151E-25
3.57992E-01 1.90161E-25
3.62181E-01 1.84382E-25
3.66381E-01 1.78808E-25
3.70590E-01 1.73429E-25
3.74810E-01 1.68237E-25
3.79039E-01 1.63225E-25
3.83277E-01 1.58385E-25
3.87524E-01 1.53711E-25
3.91780E-01 1.49196E-25
3.96044E-01 1.44833E-25
4.00316E-01 1.40617E-25
4.04596E-01 1.36542E-25
4.08882E-01 1.32602E-25
4.13176E-01 1.28793E-25
4.17476E-01 1.25108E-25
4.21783E-01 1.21544E-25
4.26095E-01 1.18096E-25
4.30413E-01 1.14759E-25
4.34737E-01 1.11530E-25
4.39065E-01 1.08404E-25
4.43398E-01 1.05377E-25
4.47736E-01 1.02446E-25
4.52077E-01 9.96069E-26
4.56422E-01 9.68568E-26
4.60770E-01 9.41924E-26
4.65122E-01 9.16105E-26
4.69476E-01 8.91082E-26
4.73832E-01 8.66826E-26
4.78190E-01 8.43309E-26
4.82550E-01 8.20507E-26
4.86912E-01 7.98393E-26
4.91274E-01 7.76944E-26
4.95637E-01 7.56136E-26
5.00000E-01 7.35948E-26
5.04363E-01 7.16358E-26
5.08726E-01 6.97344E-26
5.13088E-01 6.78889E-26
5.17450E-01 6.60973E-26
5.21810E-01 6.43577E-26
5.26168E-01 6.26684E-26
5.30524E-01 6.10278E-26
5.34878E-01 5.94342E-26
5.39230E-01 5.78861E-26
5.43578E-01 5.63820E-26
5.47923E-01 5.49204E-26
5.52264E-01 5.34999E-26
5.56602E-01 5.21192E-26
5.60935E-01 5.07771E-26
5.65263E-01 4.94723E-26
5.69587E-01 4.82035E-26
5.73905E-01 4.69697E-26
5.78217E-01 4.57698E-26
5.82524E-01 4.46027E-26
5.86824E-01 4.34672E-26
5.91118E-01 4.23626E-26
5.95404E-01 4.12878E-26
5.99684E-01 4.02418E-26
6.03956E-01 3.92238E-26
6.08220E-01 3.82330E-26
6.12476E-01 3.72685E-26
6.16723E-01 3.63295E-26
6.20961E-01 3.54152E-26
6.25190E-01 3.45249E-26
6.29410E-01 3.36580E-26
6.33619E-01 3.28135E-26
6.37819E-01 3.19910E-26
6.42008E-01 3.11898E-26
6.46186E-01 3.04092E-26
6.50353E-01 2.96487E-26
6.54508E-01 2.89076E-26
6.58652E-01 2.81853E-26
6.62784E-01 2.74814E-26
6.66903E-01 2.67954E-26
6.71010E-01 2.61266E-26
6.75104E-01 2.54747E-26
6.79184E-01 2.48390E-26
6.83251E-01 2.42193E-26
6.87303E-01 2.36149E-26
6.91342E-01 2.30256E-26
6.95366E-01 2.24508E-26
6.99375E-01 2.18902E-26
7.03368E-01 2.13434E-26
7.07347E-01 2.08099E-26
7.11309E-01 2.02895E-26
7.15256E-01 1.97818E-26
7.19186E-01 1.92864E-26
7.23099E-01 1.88029E-26
7.26995E-01 1.83312E-26
7.30874E-01 1.78708E-26
7.34736E-01 1.74214E-26
7.38579E-01 1.69828E-26
7.42405E-01 1.65547E-26
7.46212E-01 1.61368E-26
7.50000E-01 1.57288E-26
7.53769E-01 1.53304E-26
7.57519E-01 1.49415E-26
7.61249E-01 1.45617E-26
7.64960E-01 1.41909E-26
7.68650E-01 1.38288E-26
7.72320E-01 1.34752E-26
7.75968E-01 1.31298E-26
7.79596E-01 1.27924E-26
7.83203E-01 1.24630E-26
7.86788E-01 1.21411E-26
7.90351E-01 1.18268E-26
7.93893E-01 1.15197E-26
7.97411E-01 1.12197E-26
8.00908E-01 1.09266E-26
8.04381E-01 1.06402E-26
8.07831E-01 1.03605E-26
8.11257E-01 1.00871E-26
8.14660E-01 9.82004E-27
8.18039E-01 9.55906E-27
8.21394E-01 9.30406E-27
8.24724E-01 9.05487E-27
8.28030E-01 8.81136E-27
8.31310E-01 8.57341E-27
8.34565E-01 8.34086E-27
8.37795E-01 8.11361E-27
8.40999E-01 7.89152E-27
8.44177E-01 7.67447E-27
8.47329E-01 7.46235E-27
8.50455E-01 7.25505E-27
8.53553E-01 7.05244E-27
8.56625E-01 6.85444E-27
8.59670E-01 6.66092E-27
8.62687E-01 6.47179E-27
8.65677E-01 6.28695E-27
8.68639E-01 6.10631E-27
8.71572E-01 5.92977E-27
8.74478E-01 5.75723E-27
8.77355E-01 5.58862E-27
8.80203E-01 5.42385E-27
8.83022E-01 5.26283E-27
8.85812E-01 5.10548E-27
8.88573E-01 4.95173E-27
8.91304E-01 4.80149E-27
8.94005E-01 4.65470E-27
8.96677E-01 4.51127E-27
8.99318E-01 4.37114E-27
9.01928E-01 4.23424E-27
9.04508E-01 4.10051E-27
9.07058E-01 3.96988E-27
9.09576E-01 3.84228E-27
9.12063E-01 3.71765E-27
9.14519E-01 3.59594E-27
9.16943E-01 3.47708E-27
9.19335E-01 3.36103E-27
9.21696E-01 3.24772E-27
9.24024E-01 3.13711E-27
9.26320E-01 3.02913E-27
9.28584E-01 2.92374E-27
9.30815E-01 2.82089E-27
9.33013E-01 2.72054E-27
9.35178E-01 2.62263E-27
9.37310E-01 2.52713E-27
9.39409E-01 2.43398E-27
9.41474E-01 2.34315E-27
9.43505E-01 2.25459E-27
9.45503E-01 2.16827E-27
9.47467E-01 2.08414E-27
9.49397E-01 2.00217E-27
9.51293E-01 1.92232E-27
9.53154E-01 1.84456E-27
9.54981E-01 1.76884E-27
9.56773E-01 1.69514E-27
9.58530E-01 1.62343E-27
9.60252E-01 1.55366E-27
9.61940E-01 1.48582E-27
9.63592E-01 1.41988E-27
9.65209E-01 1.35579E-27
9.66790E-01 1.29354E-27
9.68336E-01 1.23310E-27
9.69846E-01 1.17444E-27
9.71321E-01 1.11753E-27
9.72759E-01 1.06236E-27
9.74162E-01 1.00890E-27
9.75528E-01 9.57119E-28
9.76858E-01 9.07004E-28
9.78152E-01 8.58531E-28
9.79410E-01 8.11679E-28
9.80631E-01 7.66428E-28
9.81815E-01 7.22760E-28
9.82963E-01 6.80655E-28
9.84074E-01 6.40096E-28
9.85148E-01 6.01065E-28
9.86185E-01 5.63547E-28
9.87185E-01 5.27525E-28
9.88148E-01 4.92985E-28
9.89074E-01 4.59912E-28
9.89962E-01 4.28292E-28
9.90814E-01 3.98112E-28
9.91627E-01 3.69359E-28
9.92404E-01 3.42022E-28
9.93143E-01 3.16090E-28
9.93844E-01 2.91550E-28
9.94508E-01 2.68394E-28
9.95134E-01 2.46612E-28
9.95722E-01 2.26194E-28
9.96273E-01 2.07132E-28
9.96786E-01 1.89419E-28
9.97261E-01 1.73047E-28
9.97698E-01 1.58009E-28
9.98097E-01 1.44300E-28
9.98459E-01 1.31913E-28
9.98782E-01 1.20843E-28
9.99067E-01 1.11087E-28
9.99315E-01 1.02639E-28
9.99524E-01 9.54972E-29
9.99695E-01 8.96576E-29
9.99829E-01 8.51182E-29
9.99924E-01 8.18771E-29
9.99981E-01 7.99330E-29
1.00000E+00 7.92851E-29
