 #
 # Subroutine ELSEPA. Elastic scattering of electrons and positrons
 #                    by neutral atoms and positive ions
 #
 # Projectile: positron
 # Kinetic energy = 1.25000E+08 eV = 4.59367E+06 a.u.
 #
 # WARNING: High-energy factorization with free-atom DF screening.
 #          Absorption, polarization and exchange corrections are
 #          switched off.
 #          Phase shifts are calculated for the bare nucleus.
 #          Scattering amplitudes are not evaluated.
 #
 # Element: Zr,  Z =  40,  atomic weight = 9.12240E+01 g/mol
 #
 # Nuclear model: Fermi distribution
 #                Average radius = 4.81674E-13 cm
 #                Skin thickness = 5.46000E-14 cm
 #
 # Number of electrons = 40
 #
 # Total elastic cross section = 4.06546E-18 cm**2 = 1.45180E-01 a0**2
 # 1st transport cross section = 1.99759E-25 cm**2 = 7.13354E-09 a0**2
 # 2nd transport cross section = 5.95328E-25 cm**2 = 2.12595E-08 a0**2
 #
 #
 # Differential cross section:                       MU=(1-COS(THETA))/2
 #
 #  THETA        MU          DCS          DCS        Sherman      error
 #  (deg)                 (cm**2/sr)   (a0**2/sr)    function
 #----------------------------------------------------------------------
0.00000E+00 8.76755E-10
7.61557E-13 8.71123E-10
1.18994E-12 8.67983E-10
1.71346E-12 8.64171E-10
2.33225E-12 8.59699E-10
3.04617E-12 8.54586E-10
3.85530E-12 8.48848E-10
4.75964E-12 8.42506E-10
5.75917E-12 8.35583E-10
6.85391E-12 8.28103E-10
8.04379E-12 8.20092E-10
9.32893E-12 8.11576E-10
1.07092E-11 8.02584E-10
1.21847E-11 7.93145E-10
1.37554E-11 7.83288E-10
1.54213E-11 7.73046E-10
1.71823E-11 7.62449E-10
1.90386E-11 7.51524E-10
2.09900E-11 7.40303E-10
2.30367E-11 7.28819E-10
2.51785E-11 7.17111E-10
2.74156E-11 7.05197E-10
2.97478E-11 6.93106E-10
3.21752E-11 6.80866E-10
3.46979E-11 6.68526E-10
3.73157E-11 6.56096E-10
4.00286E-11 6.43598E-10
4.28368E-11 6.31054E-10
4.57402E-11 6.18505E-10
4.87388E-11 6.05980E-10
5.18325E-11 5.93476E-10
5.50215E-11 5.81013E-10
5.83057E-11 5.68611E-10
6.16850E-11 5.56337E-10
6.51595E-11 5.44154E-10
6.87293E-11 5.32078E-10
7.23943E-11 5.20121E-10
7.61544E-11 5.08338E-10
1.18991E-10 4.00446E-10
1.71347E-10 3.13417E-10
2.33223E-10 2.46438E-10
3.04617E-10 1.95926E-10
3.85531E-10 1.57863E-10
4.75965E-10 1.28927E-10
5.75917E-10 1.06597E-10
6.85389E-10 8.90729E-11
8.04380E-10 7.51061E-11
9.32891E-10 6.38123E-11
1.07092E-09 5.45505E-11
1.21847E-09 4.68946E-11
1.37554E-09 4.05138E-11
1.54213E-09 3.49859E-11
1.71823E-09 3.03196E-11
1.90386E-09 2.65121E-11
2.09900E-09 2.33772E-11
2.30367E-09 2.07280E-11
2.51785E-09 1.82626E-11
2.74156E-09 1.61996E-11
2.97478E-09 1.44609E-11
3.21752E-09 1.29856E-11
3.46978E-09 1.16445E-11
3.73156E-09 1.04744E-11
4.00286E-09 9.46830E-12
4.28368E-09 8.59853E-12
4.57402E-09 7.82489E-12
4.87388E-09 7.12531E-12
5.18326E-09 6.51361E-12
5.50215E-09 5.97646E-12
5.83057E-09 5.50222E-12
6.16850E-09 5.05929E-12
6.51596E-09 4.66672E-12
6.87293E-09 4.31757E-12
7.23942E-09 4.00600E-12
7.61544E-09 3.71629E-12
1.18991E-08 1.89250E-12
1.71347E-08 1.05202E-12
2.33223E-08 6.20005E-13
3.04617E-08 3.83700E-13
3.85531E-08 2.48904E-13
4.75965E-08 1.68357E-13
5.75917E-08 1.18175E-13
6.85389E-08 8.55772E-14
8.04380E-08 6.36050E-14
9.32891E-08 4.83258E-14
1.07092E-07 3.74063E-14
1.21847E-07 2.94177E-14
1.37554E-07 2.34518E-14
1.54213E-07 1.89062E-14
1.71823E-07 1.54200E-14
1.90386E-07 1.26893E-14
2.09900E-07 1.05422E-14
2.30367E-07 8.81720E-15
2.51785E-07 7.43381E-15
2.74156E-07 6.30718E-15
2.97478E-07 5.38541E-15
3.21752E-07 4.62520E-15
3.46978E-07 3.99311E-15
3.73156E-07 3.46587E-15
4.00286E-07 3.02153E-15
4.28368E-07 2.64653E-15
4.57402E-07 2.32756E-15
4.87388E-07 2.05526E-15
5.18325E-07 1.82164E-15
5.50215E-07 1.62018E-15
5.83057E-07 1.44594E-15
6.16850E-07 1.29439E-15
6.51596E-07 1.16228E-15
6.87293E-07 1.04659E-15
7.23942E-07 9.44966E-16
7.61543E-07 8.55417E-16
1.18991E-06 3.55401E-16
1.71347E-06 1.73211E-16
2.33223E-06 9.42241E-17
3.04617E-06 5.55458E-17
3.85531E-06 3.48206E-17
4.75964E-06 2.29152E-17
5.75916E-06 1.56866E-17
6.85388E-06 1.10944E-17
8.04378E-06 8.06497E-18
9.32888E-06 6.00178E-18
1.07092E-05 4.55768E-18
1.21846E-05 3.52266E-18
1.37553E-05 2.76528E-18
1.54212E-05 2.20082E-18
1.71822E-05 1.77323E-18
1.90385E-05 1.44431E-18
2.09899E-05 1.18866E-18
2.30365E-05 9.87063E-19
2.51783E-05 8.26350E-19
2.74153E-05 6.96971E-19
2.97475E-05 5.91902E-19
3.21749E-05 5.05894E-19
3.46974E-05 4.34963E-19
3.73152E-05 3.76054E-19
4.00281E-05 3.26801E-19
4.28362E-05 2.85358E-19
4.57395E-05 2.50277E-19
4.87380E-05 2.20417E-19
5.18317E-05 1.94872E-19
5.50205E-05 1.72915E-19
5.83045E-05 1.53962E-19
6.16838E-05 1.37535E-19
6.51582E-05 1.23243E-19
6.87277E-05 1.10761E-19
7.23925E-05 9.98214E-20
7.61524E-05 9.02228E-20
9.21439E-05 6.15947E-20
1.09658E-04 4.34669E-20
1.28695E-04 3.15427E-20
1.49255E-04 2.34376E-20
1.71338E-04 1.77758E-20
1.94942E-04 1.37235E-20
2.20070E-04 1.07622E-20
2.46720E-04 8.55766E-21
2.74892E-04 6.88920E-21
3.04586E-04 5.60796E-21
3.35803E-04 4.61085E-21
3.68542E-04 3.82559E-21
4.02802E-04 3.20040E-21
4.38585E-04 2.69770E-21
4.75889E-04 2.28981E-21
5.14715E-04 1.95605E-21
5.55063E-04 1.68086E-21
5.96931E-04 1.45232E-21
6.40321E-04 1.26127E-21
6.85233E-04 1.10056E-21
7.31665E-04 9.64600E-22
7.79618E-04 8.48958E-22
8.29092E-04 7.50097E-22
8.80086E-04 6.65184E-22
9.32601E-04 5.91923E-22
9.86636E-04 5.28448E-22
1.04219E-03 4.73234E-22
1.09927E-03 4.25024E-22
1.15786E-03 3.82781E-22
1.21797E-03 3.45641E-22
1.27961E-03 3.12883E-22
1.34276E-03 2.83902E-22
1.40743E-03 2.58187E-22
1.47362E-03 2.35308E-22
1.54133E-03 2.14898E-22
1.61056E-03 1.96644E-22
1.68131E-03 1.80279E-22
1.75357E-03 1.65574E-22
1.82735E-03 1.52331E-22
1.90265E-03 1.40379E-22
1.97947E-03 1.29571E-22
2.05780E-03 1.19778E-22
2.13765E-03 1.10888E-22
2.21902E-03 1.02803E-22
2.30190E-03 9.54369E-23
2.38630E-03 8.87151E-23
2.47222E-03 8.25710E-23
2.55965E-03 7.69463E-23
2.64859E-03 7.17892E-23
2.73905E-03 6.70540E-23
2.83103E-03 6.27001E-23
2.92452E-03 5.86913E-23
3.01952E-03 5.49954E-23
3.11604E-03 5.15836E-23
3.21407E-03 4.84302E-23
3.31362E-03 4.55121E-23
3.41468E-03 4.28086E-23
3.51725E-03 4.03012E-23
3.62133E-03 3.79730E-23
3.72692E-03 3.58090E-23
3.83403E-03 3.37955E-23
3.94265E-03 3.19202E-23
4.05278E-03 3.01718E-23
4.16442E-03 2.85403E-23
4.27757E-03 2.70164E-23
4.39223E-03 2.55918E-23
4.50840E-03 2.42588E-23
4.62608E-03 2.30105E-23
4.74527E-03 2.18406E-23
4.86597E-03 2.07431E-23
4.98817E-03 1.97129E-23
5.11188E-03 1.87451E-23
5.23711E-03 1.78351E-23
5.36383E-03 1.69790E-23
5.49207E-03 1.61730E-23
5.62181E-03 1.54136E-23
5.75306E-03 1.46976E-23
5.88581E-03 1.40221E-23
6.02007E-03 1.33844E-23
6.15583E-03 1.27820E-23
6.29310E-03 1.22126E-23
6.43187E-03 1.16741E-23
6.57214E-03 1.11645E-23
6.71392E-03 1.06819E-23
6.85720E-03 1.02247E-23
7.00198E-03 9.79125E-24
7.14827E-03 9.38016E-24
7.29605E-03 8.99004E-24
7.44534E-03 8.61963E-24
7.59612E-03 8.26776E-24
7.97965E-03 7.46217E-24
8.37255E-03 6.75062E-24
8.77480E-03 6.12033E-24
9.18641E-03 5.56049E-24
9.60736E-03 5.06192E-24
1.00376E-02 4.61683E-24
1.04773E-02 4.21852E-24
1.09262E-02 3.86127E-24
1.13844E-02 3.54016E-24
1.18520E-02 3.25091E-24
1.23288E-02 2.98985E-24
1.28150E-02 2.75379E-24
1.33104E-02 2.53992E-24
1.38150E-02 2.34583E-24
1.43290E-02 2.16938E-24
1.48521E-02 2.00870E-24
1.53845E-02 1.86216E-24
1.59262E-02 1.72831E-24
1.64770E-02 1.60586E-24
1.70371E-02 1.49370E-24
1.76063E-02 1.39081E-24
1.81848E-02 1.29630E-24
1.87724E-02 1.20938E-24
1.93692E-02 1.12934E-24
1.99751E-02 1.05555E-24
2.05901E-02 9.87444E-25
2.12143E-02 9.24511E-25
2.18476E-02 8.66295E-25
2.24900E-02 8.12386E-25
2.31415E-02 7.62416E-25
2.38021E-02 7.16051E-25
2.44717E-02 6.72988E-25
2.51504E-02 6.32957E-25
2.58382E-02 5.95709E-25
2.65349E-02 5.61021E-25
2.72407E-02 5.28690E-25
2.79555E-02 4.98529E-25
2.86793E-02 4.70372E-25
2.94120E-02 4.44064E-25
3.01537E-02 4.19465E-25
3.09043E-02 3.96447E-25
3.16639E-02 3.74893E-25
3.24324E-02 3.54696E-25
3.32098E-02 3.35757E-25
3.39961E-02 3.17985E-25
3.47912E-02 3.01299E-25
3.55952E-02 2.85622E-25
3.64081E-02 2.70884E-25
3.72297E-02 2.57020E-25
3.80602E-02 2.43971E-25
3.88995E-02 2.31682E-25
3.97476E-02 2.20102E-25
4.06044E-02 2.09184E-25
4.14700E-02 1.98885E-25
4.23443E-02 1.89165E-25
4.32273E-02 1.79987E-25
4.41190E-02 1.71316E-25
4.50194E-02 1.63120E-25
4.59284E-02 1.55369E-25
4.68461E-02 1.48036E-25
4.87074E-02 1.34524E-25
5.06030E-02 1.22397E-25
5.25328E-02 1.11496E-25
5.44967E-02 1.01682E-25
5.64946E-02 9.28311E-26
5.85262E-02 8.48387E-26
6.05914E-02 7.76110E-26
6.26901E-02 7.10661E-26
6.48222E-02 6.51318E-26
6.69873E-02 5.97445E-26
6.91854E-02 5.48480E-26
7.14163E-02 5.03926E-26
7.36799E-02 4.63341E-26
7.59760E-02 4.26333E-26
7.83043E-02 3.92552E-26
8.06647E-02 3.61688E-26
8.30571E-02 3.33462E-26
8.54812E-02 3.07625E-26
8.79369E-02 2.83956E-26
9.04240E-02 2.62254E-26
9.29422E-02 2.42341E-26
9.54915E-02 2.24054E-26
9.80716E-02 2.07249E-26
1.00682E-01 1.91794E-26
1.03323E-01 1.77572E-26
1.05995E-01 1.64475E-26
1.08696E-01 1.52408E-26
1.11427E-01 1.41282E-26
1.14188E-01 1.31017E-26
1.16978E-01 1.21543E-26
1.19797E-01 1.12793E-26
1.22645E-01 1.04708E-26
1.25522E-01 9.72330E-27
1.28428E-01 9.03194E-27
1.31361E-01 8.39218E-27
1.34323E-01 7.79991E-27
1.37313E-01 7.25138E-27
1.40330E-01 6.74313E-27
1.43375E-01 6.27203E-27
1.46447E-01 5.83519E-27
1.49545E-01 5.42998E-27
1.52671E-01 5.05397E-27
1.55823E-01 4.70494E-27
1.59001E-01 4.38085E-27
1.62205E-01 4.07983E-27
1.65435E-01 3.80014E-27
1.68690E-01 3.54021E-27
1.71970E-01 3.29857E-27
1.75276E-01 3.07387E-27
1.78606E-01 2.86488E-27
1.81961E-01 2.67045E-27
1.85340E-01 2.48952E-27
1.88743E-01 2.32112E-27
1.92169E-01 2.16435E-27
1.95619E-01 2.01837E-27
1.99092E-01 1.88242E-27
2.02589E-01 1.75578E-27
2.06107E-01 1.63780E-27
2.09649E-01 1.52786E-27
2.13212E-01 1.42541E-27
2.16797E-01 1.32991E-27
2.20404E-01 1.24089E-27
2.24032E-01 1.15788E-27
2.27680E-01 1.08049E-27
2.31350E-01 1.00831E-27
2.35040E-01 9.40988E-28
2.38751E-01 8.78193E-28
2.42481E-01 8.19612E-28
2.46231E-01 7.64959E-28
2.50000E-01 7.13965E-28
2.53788E-01 6.66381E-28
2.57595E-01 6.21976E-28
2.61421E-01 5.80535E-28
2.65264E-01 5.41857E-28
2.69126E-01 5.05756E-28
2.73005E-01 4.72059E-28
2.76901E-01 4.40604E-28
2.80814E-01 4.11241E-28
2.84744E-01 3.83829E-28
2.88691E-01 3.58238E-28
2.92653E-01 3.34347E-28
2.96632E-01 3.12041E-28
3.00625E-01 2.91216E-28
3.04634E-01 2.71773E-28
3.08658E-01 2.53619E-28
3.12697E-01 2.36670E-28
3.16749E-01 2.20845E-28
3.20816E-01 2.06070E-28
3.24896E-01 1.92276E-28
3.28990E-01 1.79396E-28
3.33097E-01 1.67372E-28
3.37216E-01 1.56145E-28
3.41348E-01 1.45665E-28
3.45492E-01 1.35880E-28
3.49647E-01 1.26746E-28
3.53814E-01 1.18219E-28
3.57992E-01 1.10259E-28
3.62181E-01 1.02829E-28
3.66381E-01 9.58933E-29
3.70590E-01 8.94202E-29
3.74810E-01 8.33787E-29
3.79039E-01 7.77403E-29
3.83277E-01 7.24785E-29
3.87524E-01 6.75683E-29
3.91780E-01 6.29865E-29
3.96044E-01 5.87115E-29
4.00316E-01 5.47229E-29
4.04596E-01 5.10018E-29
4.08882E-01 4.75306E-29
4.13176E-01 4.42926E-29
4.17476E-01 4.12724E-29
4.21783E-01 3.84557E-29
4.26095E-01 3.58288E-29
4.30413E-01 3.33792E-29
4.34737E-01 3.10952E-29
4.39065E-01 2.89657E-29
4.43398E-01 2.69804E-29
4.47736E-01 2.51298E-29
4.52077E-01 2.34049E-29
4.56422E-01 2.17972E-29
4.60770E-01 2.02990E-29
4.65122E-01 1.89029E-29
4.69476E-01 1.76021E-29
4.73832E-01 1.63903E-29
4.78190E-01 1.52614E-29
4.82550E-01 1.42098E-29
4.86912E-01 1.32305E-29
4.91274E-01 1.23185E-29
4.95637E-01 1.14692E-29
5.00000E-01 1.06785E-29
5.04363E-01 9.94239E-30
5.08726E-01 9.25717E-30
5.13088E-01 8.61938E-30
5.17450E-01 8.02581E-30
5.21810E-01 7.47345E-30
5.26168E-01 6.95949E-30
5.30524E-01 6.48132E-30
5.34878E-01 6.03649E-30
5.39230E-01 5.62271E-30
5.43578E-01 5.23786E-30
5.47923E-01 4.87995E-30
5.52264E-01 4.54713E-30
5.56602E-01 4.23767E-30
5.60935E-01 3.94995E-30
5.65263E-01 3.68247E-30
5.69587E-01 3.43383E-30
5.73905E-01 3.20272E-30
5.78217E-01 2.98792E-30
5.82524E-01 2.78829E-30
5.86824E-01 2.60277E-30
5.91118E-01 2.43039E-30
5.95404E-01 2.27020E-30
5.99684E-01 2.12137E-30
6.03956E-01 1.98308E-30
6.08220E-01 1.85460E-30
6.12476E-01 1.73523E-30
6.16723E-01 1.62433E-30
6.20961E-01 1.52129E-30
6.25190E-01 1.42556E-30
6.29410E-01 1.33662E-30
6.33619E-01 1.25397E-30
6.37819E-01 1.17717E-30
6.42008E-01 1.10580E-30
6.46186E-01 1.03947E-30
6.50353E-01 9.77821E-31
6.54508E-01 9.20507E-31
6.58652E-01 8.67218E-31
6.62784E-01 8.17663E-31
6.66903E-01 7.71569E-31
6.71010E-01 7.28686E-31
6.75104E-01 6.88779E-31
6.79184E-01 6.51630E-31
6.83251E-01 6.17039E-31
6.87303E-01 5.84817E-31
6.91342E-01 5.54790E-31
6.95366E-01 5.26798E-31
6.99375E-01 5.00690E-31
7.03368E-01 4.76327E-31
7.07347E-01 4.53581E-31
7.11309E-01 4.32331E-31
7.15256E-01 4.12468E-31
7.19186E-01 3.93888E-31
7.23099E-01 3.76496E-31
7.26995E-01 3.60204E-31
7.30874E-01 3.44930E-31
7.34736E-01 3.30600E-31
7.38579E-01 3.17142E-31
7.42405E-01 3.04492E-31
7.46212E-01 2.92591E-31
7.50000E-01 2.81382E-31
7.53769E-01 2.70814E-31
7.57519E-01 2.60841E-31
7.61249E-01 2.51418E-31
7.64960E-01 2.42505E-31
7.68650E-01 2.34064E-31
7.72320E-01 2.26061E-31
7.75968E-01 2.18464E-31
7.79596E-01 2.11243E-31
7.83203E-01 2.04373E-31
7.86788E-01 1.97826E-31
7.90351E-01 1.91581E-31
7.93893E-01 1.85616E-31
7.97411E-01 1.79911E-31
8.00908E-01 1.74448E-31
8.04381E-01 1.69211E-31
8.07831E-01 1.64184E-31
8.11257E-01 1.59354E-31
8.14660E-01 1.54706E-31
8.18039E-01 1.50230E-31
8.21394E-01 1.45913E-31
8.24724E-01 1.41747E-31
8.28030E-01 1.37721E-31
8.31310E-01 1.33828E-31
8.34565E-01 1.30058E-31
8.37795E-01 1.26405E-31
8.40999E-01 1.22863E-31
8.44177E-01 1.19425E-31
8.47329E-01 1.16085E-31
8.50455E-01 1.12838E-31
8.53553E-01 1.09680E-31
8.56625E-01 1.06606E-31
8.59670E-01 1.03612E-31
8.62687E-01 1.00694E-31
8.65677E-01 9.78498E-32
8.68639E-01 9.50751E-32
8.71572E-01 9.23674E-32
8.74478E-01 8.97239E-32
8.77355E-01 8.71422E-32
8.80203E-01 8.46202E-32
8.83022E-01 8.21556E-32
8.85812E-01 7.97467E-32
8.88573E-01 7.73914E-32
8.91304E-01 7.50883E-32
8.94005E-01 7.28358E-32
8.96677E-01 7.06325E-32
8.99318E-01 6.84771E-32
9.01928E-01 6.63683E-32
9.04508E-01 6.43051E-32
9.07058E-01 6.22862E-32
9.09576E-01 6.03109E-32
9.12063E-01 5.83781E-32
9.14519E-01 5.64869E-32
9.16943E-01 5.46365E-32
9.19335E-01 5.28261E-32
9.21696E-01 5.10551E-32
9.24024E-01 4.93227E-32
9.26320E-01 4.76282E-32
9.28584E-01 4.59711E-32
9.30815E-01 4.43508E-32
9.33013E-01 4.27665E-32
9.35178E-01 4.12179E-32
9.37310E-01 3.97044E-32
9.39409E-01 3.82255E-32
9.41474E-01 3.67807E-32
9.43505E-01 3.53696E-32
9.45503E-01 3.39916E-32
9.47467E-01 3.26464E-32
9.49397E-01 3.13335E-32
9.51293E-01 3.00525E-32
9.53154E-01 2.88031E-32
9.54981E-01 2.75848E-32
9.56773E-01 2.63972E-32
9.58530E-01 2.52399E-32
9.60252E-01 2.41128E-32
9.61940E-01 2.30152E-32
9.63592E-01 2.19470E-32
9.65209E-01 2.09078E-32
9.66790E-01 1.98972E-32
9.68336E-01 1.89149E-32
9.69846E-01 1.79607E-32
9.71321E-01 1.70342E-32
9.72759E-01 1.61351E-32
9.74162E-01 1.52630E-32
9.75528E-01 1.44179E-32
9.76858E-01 1.35992E-32
9.78152E-01 1.28068E-32
9.79410E-01 1.20404E-32
9.80631E-01 1.12998E-32
9.81815E-01 1.05847E-32
9.82963E-01 9.89478E-33
9.84074E-01 9.22988E-33
9.85148E-01 8.58977E-33
9.86185E-01 7.97421E-33
9.87185E-01 7.38298E-33
9.88148E-01 6.81584E-33
9.89074E-01 6.27262E-33
9.89962E-01 5.75312E-33
9.90814E-01 5.25716E-33
9.91627E-01 4.78451E-33
9.92404E-01 4.33506E-33
9.93143E-01 3.90860E-33
9.93844E-01 3.50497E-33
9.94508E-01 3.12404E-33
9.95134E-01 2.76567E-33
9.95722E-01 2.42968E-33
9.96273E-01 2.11599E-33
9.96786E-01 1.82446E-33
9.97261E-01 1.55496E-33
9.97698E-01 1.30744E-33
9.98097E-01 1.08175E-33
9.98459E-01 8.77810E-34
9.98782E-01 6.95563E-34
9.99067E-01 5.34928E-34
9.99315E-01 3.95832E-34
9.99524E-01 2.78225E-34
9.99695E-01 1.82065E-34
9.99829E-01 1.07323E-34
9.99924E-01 5.39493E-35
9.99981E-01 2.19379E-35
1.00000E+00 1.12631E-35
