 #
 # Subroutine ELSEPA. Elastic scattering of electrons and positrons
 #                    by neutral atoms and positive ions
 #
 # Projectile: positron
 # Kinetic energy = 2.00000E+06 eV = 7.34987E+04 a.u.
 #
 # WARNING: High-energy factorization with free-atom DF screening.
 #          Absorption, polarization and exchange corrections are
 #          switched off.
 #          Phase shifts are calculated for the bare nucleus.
 #          Scattering amplitudes are not evaluated.
 #
 # Element: Zr,  Z =  40,  atomic weight = 9.12240E+01 g/mol
 #
 # Nuclear model: Fermi distribution
 #                Average radius = 4.81674E-13 cm
 #                Skin thickness = 5.46000E-14 cm
 #
 # Number of electrons = 40
 #
 # Total elastic cross section = 4.23575E-18 cm**2 = 1.51261E-01 a0**2
 # 1st transport cross section = 3.12249E-22 cm**2 = 1.11506E-05 a0**2
 # 2nd transport cross section = 8.90446E-22 cm**2 = 3.17984E-05 a0**2
 #
 #
 # Differential cross section:                       MU=(1-COS(THETA))/2
 #
 #  THETA        MU          DCS          DCS        Sherman      error
 #  (deg)                 (cm**2/sr)   (a0**2/sr)    function
 #----------------------------------------------------------------------
0.00000E+00 3.50920E-13
7.61557E-13 3.50918E-13
1.18994E-12 3.50918E-13
1.71346E-12 3.50917E-13
2.33225E-12 3.50916E-13
3.04617E-12 3.50916E-13
3.85530E-12 3.50915E-13
4.75964E-12 3.50913E-13
5.75917E-12 3.50912E-13
6.85391E-12 3.50911E-13
8.04379E-12 3.50909E-13
9.32893E-12 3.50908E-13
1.07092E-11 3.50906E-13
1.21847E-11 3.50904E-13
1.37554E-11 3.50903E-13
1.54213E-11 3.50901E-13
1.71823E-11 3.50899E-13
1.90386E-11 3.50896E-13
2.09900E-11 3.50894E-13
2.30367E-11 3.50892E-13
2.51785E-11 3.50889E-13
2.74156E-11 3.50887E-13
2.97478E-11 3.50884E-13
3.21752E-11 3.50881E-13
3.46979E-11 3.50878E-13
3.73157E-11 3.50875E-13
4.00286E-11 3.50872E-13
4.28368E-11 3.50869E-13
4.57402E-11 3.50865E-13
4.87388E-11 3.50862E-13
5.18325E-11 3.50858E-13
5.50215E-11 3.50854E-13
5.83057E-11 3.50851E-13
6.16850E-11 3.50847E-13
6.51595E-11 3.50843E-13
6.87293E-11 3.50838E-13
7.23943E-11 3.50834E-13
7.61544E-11 3.50830E-13
1.18991E-10 3.50780E-13
1.71347E-10 3.50720E-13
2.33223E-10 3.50649E-13
3.04617E-10 3.50567E-13
3.85531E-10 3.50474E-13
4.75965E-10 3.50371E-13
5.75917E-10 3.50256E-13
6.85389E-10 3.50131E-13
8.04380E-10 3.49996E-13
9.32891E-10 3.49849E-13
1.07092E-09 3.49692E-13
1.21847E-09 3.49524E-13
1.37554E-09 3.49346E-13
1.54213E-09 3.49157E-13
1.71823E-09 3.48957E-13
1.90386E-09 3.48747E-13
2.09900E-09 3.48526E-13
2.30367E-09 3.48295E-13
2.51785E-09 3.48053E-13
2.74156E-09 3.47801E-13
2.97478E-09 3.47538E-13
3.21752E-09 3.47265E-13
3.46978E-09 3.46982E-13
3.73156E-09 3.46689E-13
4.00286E-09 3.46385E-13
4.28368E-09 3.46071E-13
4.57402E-09 3.45747E-13
4.87388E-09 3.45413E-13
5.18326E-09 3.45069E-13
5.50215E-09 3.44714E-13
5.83057E-09 3.44350E-13
6.16850E-09 3.43976E-13
6.51596E-09 3.43592E-13
6.87293E-09 3.43198E-13
7.23942E-09 3.42795E-13
7.61544E-09 3.42382E-13
1.18991E-08 3.37730E-13
1.71347E-08 3.32179E-13
2.33223E-08 3.25803E-13
3.04617E-08 3.18683E-13
3.85531E-08 3.10908E-13
4.75965E-08 3.02570E-13
5.75917E-08 2.93759E-13
6.85389E-08 2.84573E-13
8.04380E-08 2.75096E-13
9.32891E-08 2.65423E-13
1.07092E-07 2.55629E-13
1.21847E-07 2.45792E-13
1.37554E-07 2.35986E-13
1.54213E-07 2.26257E-13
1.71823E-07 2.16686E-13
1.90386E-07 2.07284E-13
2.09900E-07 1.98132E-13
2.30367E-07 1.89220E-13
2.51785E-07 1.80607E-13
2.74156E-07 1.72290E-13
2.97478E-07 1.64291E-13
3.21752E-07 1.56624E-13
3.46978E-07 1.49275E-13
3.73156E-07 1.42277E-13
4.00286E-07 1.35583E-13
4.28368E-07 1.29241E-13
4.57402E-07 1.23195E-13
4.87388E-07 1.17470E-13
5.18325E-07 1.12034E-13
5.50215E-07 1.06886E-13
5.83057E-07 1.02015E-13
6.16850E-07 9.73992E-14
6.51596E-07 9.30411E-14
6.87293E-07 8.89100E-14
7.23942E-07 8.50137E-14
7.61543E-07 8.13216E-14
1.18991E-06 5.37054E-14
1.71347E-06 3.72075E-14
2.33223E-06 2.67224E-14
3.04617E-06 1.96968E-14
3.85531E-06 1.47834E-14
4.75964E-06 1.11872E-14
5.75916E-06 8.75006E-15
6.85388E-06 6.86254E-15
8.04378E-06 5.49182E-15
9.32888E-06 4.44491E-15
1.07092E-05 3.64305E-15
1.21846E-05 3.02531E-15
1.37553E-05 2.53364E-15
1.54212E-05 2.14887E-15
1.71822E-05 1.83117E-15
1.90385E-05 1.57809E-15
2.09899E-05 1.36389E-15
2.30365E-05 1.18900E-15
2.51783E-05 1.03949E-15
2.74153E-05 9.13501E-16
2.97475E-05 8.05820E-16
3.21749E-05 7.12563E-16
3.46974E-05 6.33155E-16
3.73152E-05 5.62796E-16
4.00281E-05 5.03024E-16
4.28362E-05 4.49207E-16
4.57395E-05 4.03016E-16
4.87380E-05 3.61809E-16
5.18317E-05 3.25751E-16
5.50205E-05 2.93816E-16
5.83045E-05 2.65470E-16
6.16838E-05 2.40478E-16
6.51582E-05 2.18069E-16
6.87277E-05 1.98338E-16
7.23925E-05 1.80518E-16
7.61524E-05 1.64754E-16
9.21439E-05 1.16173E-16
1.09658E-04 8.41395E-17
1.28695E-04 6.24690E-17
1.49255E-04 4.74160E-17
1.71338E-04 3.66898E-17
1.94942E-04 2.88647E-17
2.20070E-04 2.30415E-17
2.46720E-04 1.86307E-17
2.74892E-04 1.52353E-17
3.04586E-04 1.25821E-17
3.35803E-04 1.04817E-17
3.68542E-04 8.80073E-18
4.02802E-04 7.43713E-18
4.38585E-04 6.33066E-18
4.75889E-04 5.42152E-18
5.14715E-04 4.66683E-18
5.55063E-04 4.04017E-18
5.96931E-04 3.51159E-18
6.40321E-04 3.06833E-18
6.85233E-04 2.69005E-18
7.31665E-04 2.36915E-18
7.79618E-04 2.09360E-18
8.29092E-04 1.85695E-18
8.80086E-04 1.65254E-18
9.32601E-04 1.47523E-18
9.86636E-04 1.32111E-18
1.04219E-03 1.18628E-18
1.09927E-03 1.06836E-18
1.15786E-03 9.64450E-19
1.21797E-03 8.72981E-19
1.27961E-03 7.91974E-19
1.34276E-03 7.20180E-19
1.40743E-03 6.56298E-19
1.47362E-03 5.99329E-19
1.54133E-03 5.48415E-19
1.61056E-03 5.02765E-19
1.68131E-03 4.61792E-19
1.75357E-03 4.24870E-19
1.82735E-03 3.91590E-19
1.90265E-03 3.61481E-19
1.97947E-03 3.34223E-19
2.05780E-03 3.09478E-19
2.13765E-03 2.86982E-19
2.21902E-03 2.66494E-19
2.30190E-03 2.47796E-19
2.38630E-03 2.30715E-19
2.47222E-03 2.15072E-19
2.55965E-03 2.00741E-19
2.64859E-03 1.87573E-19
2.73905E-03 1.75472E-19
2.83103E-03 1.64328E-19
2.92452E-03 1.54055E-19
3.01952E-03 1.44571E-19
3.11604E-03 1.35804E-19
3.21407E-03 1.27692E-19
3.31362E-03 1.20174E-19
3.41468E-03 1.13203E-19
3.51725E-03 1.06726E-19
3.62133E-03 1.00707E-19
3.72692E-03 9.51038E-20
3.83403E-03 8.98853E-20
3.94265E-03 8.50185E-20
4.05278E-03 8.04758E-20
4.16442E-03 7.62323E-20
4.27757E-03 7.22630E-20
4.39223E-03 6.85495E-20
4.50840E-03 6.50690E-20
4.62608E-03 6.18074E-20
4.74527E-03 5.87458E-20
4.86597E-03 5.58716E-20
4.98817E-03 5.31700E-20
5.11188E-03 5.06292E-20
5.23711E-03 4.82380E-20
5.36383E-03 4.59855E-20
5.49207E-03 4.38630E-20
5.62181E-03 4.18602E-20
5.75306E-03 3.99708E-20
5.88581E-03 3.81856E-20
6.02007E-03 3.64990E-20
6.15583E-03 3.49038E-20
6.29310E-03 3.33946E-20
6.43187E-03 3.19657E-20
6.57214E-03 3.06119E-20
6.71392E-03 2.93290E-20
6.85720E-03 2.81119E-20
7.00198E-03 2.69574E-20
7.14827E-03 2.58608E-20
7.29605E-03 2.48194E-20
7.44534E-03 2.38294E-20
7.59612E-03 2.28882E-20
7.97965E-03 2.07296E-20
8.37255E-03 1.88183E-20
8.77480E-03 1.71211E-20
9.18641E-03 1.56100E-20
9.60736E-03 1.42610E-20
1.00376E-02 1.30539E-20
1.04773E-02 1.19710E-20
1.09262E-02 1.09976E-20
1.13844E-02 1.01205E-20
1.18520E-02 9.32855E-21
1.23288E-02 8.61212E-21
1.28150E-02 7.96272E-21
1.33104E-02 7.37300E-21
1.38150E-02 6.83652E-21
1.43290E-02 6.34764E-21
1.48521E-02 5.90141E-21
1.53845E-02 5.49343E-21
1.59262E-02 5.11988E-21
1.64770E-02 4.77732E-21
1.70371E-02 4.46273E-21
1.76063E-02 4.17343E-21
1.81848E-02 3.90703E-21
1.87724E-02 3.66140E-21
1.93692E-02 3.43463E-21
1.99751E-02 3.22501E-21
2.05901E-02 3.03103E-21
2.12143E-02 2.85130E-21
2.18476E-02 2.68460E-21
2.24900E-02 2.52981E-21
2.31415E-02 2.38592E-21
2.38021E-02 2.25204E-21
2.44717E-02 2.12735E-21
2.51504E-02 2.01110E-21
2.58382E-02 1.90262E-21
2.65349E-02 1.80129E-21
2.72407E-02 1.70656E-21
2.79555E-02 1.61793E-21
2.86793E-02 1.53493E-21
2.94120E-02 1.45714E-21
3.01537E-02 1.38417E-21
3.09043E-02 1.31567E-21
3.16639E-02 1.25132E-21
3.24324E-02 1.19082E-21
3.32098E-02 1.13390E-21
3.39961E-02 1.08031E-21
3.47912E-02 1.02983E-21
3.55952E-02 9.82224E-22
3.64081E-02 9.37315E-22
3.72297E-02 8.94920E-22
3.80602E-02 8.54871E-22
3.88995E-02 8.17016E-22
3.97476E-02 7.81216E-22
4.06044E-02 7.47332E-22
4.14700E-02 7.15251E-22
4.23443E-02 6.84854E-22
4.32273E-02 6.56039E-22
4.41190E-02 6.28708E-22
4.50194E-02 6.02771E-22
4.59284E-02 5.78145E-22
4.68461E-02 5.54749E-22
4.87074E-02 5.11368E-22
5.06030E-02 4.72104E-22
5.25328E-02 4.36498E-22
5.44967E-02 4.04151E-22
5.64946E-02 3.74713E-22
5.85262E-02 3.47879E-22
6.05914E-02 3.23377E-22
6.26901E-02 3.00971E-22
6.48222E-02 2.80450E-22
6.69873E-02 2.61628E-22
6.91854E-02 2.44341E-22
7.14163E-02 2.28440E-22
7.36799E-02 2.13796E-22
7.59760E-02 2.00293E-22
7.83043E-02 1.87825E-22
8.06647E-02 1.76300E-22
8.30571E-02 1.65633E-22
8.54812E-02 1.55751E-22
8.79369E-02 1.46585E-22
9.04240E-02 1.38073E-22
9.29422E-02 1.30162E-22
9.54915E-02 1.22801E-22
9.80716E-02 1.15946E-22
1.00682E-01 1.09555E-22
1.03323E-01 1.03592E-22
1.05995E-01 9.80235E-23
1.08696E-01 9.28179E-23
1.11427E-01 8.79478E-23
1.14188E-01 8.33878E-23
1.16978E-01 7.91147E-23
1.19797E-01 7.51072E-23
1.22645E-01 7.13460E-23
1.25522E-01 6.78133E-23
1.28428E-01 6.44926E-23
1.31361E-01 6.13692E-23
1.34323E-01 5.84291E-23
1.37313E-01 5.56598E-23
1.40330E-01 5.30495E-23
1.43375E-01 5.05876E-23
1.46447E-01 4.82641E-23
1.49545E-01 4.60698E-23
1.52671E-01 4.39963E-23
1.55823E-01 4.20358E-23
1.59001E-01 4.01811E-23
1.62205E-01 3.84253E-23
1.65435E-01 3.67624E-23
1.68690E-01 3.51866E-23
1.71970E-01 3.36924E-23
1.75276E-01 3.22749E-23
1.78606E-01 3.09294E-23
1.81961E-01 2.96518E-23
1.85340E-01 2.84378E-23
1.88743E-01 2.72839E-23
1.92169E-01 2.61865E-23
1.95619E-01 2.51424E-23
1.99092E-01 2.41485E-23
2.02589E-01 2.32020E-23
2.06107E-01 2.23002E-23
2.09649E-01 2.14406E-23
2.13212E-01 2.06209E-23
2.16797E-01 1.98390E-23
2.20404E-01 1.90928E-23
2.24032E-01 1.83803E-23
2.27680E-01 1.76999E-23
2.31350E-01 1.70497E-23
2.35040E-01 1.64282E-23
2.38751E-01 1.58339E-23
2.42481E-01 1.52654E-23
2.46231E-01 1.47215E-23
2.50000E-01 1.42008E-23
2.53788E-01 1.37022E-23
2.57595E-01 1.32245E-23
2.61421E-01 1.27668E-23
2.65264E-01 1.23281E-23
2.69126E-01 1.19075E-23
2.73005E-01 1.15040E-23
2.76901E-01 1.11168E-23
2.80814E-01 1.07452E-23
2.84744E-01 1.03885E-23
2.88691E-01 1.00459E-23
2.92653E-01 9.71677E-24
2.96632E-01 9.40050E-24
3.00625E-01 9.09651E-24
3.04634E-01 8.80422E-24
3.08658E-01 8.52311E-24
3.12697E-01 8.25268E-24
3.16749E-01 7.99245E-24
3.20816E-01 7.74197E-24
3.24896E-01 7.50081E-24
3.28990E-01 7.26857E-24
3.33097E-01 7.04485E-24
3.37216E-01 6.82930E-24
3.41348E-01 6.62155E-24
3.45492E-01 6.42129E-24
3.49647E-01 6.22819E-24
3.53814E-01 6.04195E-24
3.57992E-01 5.86229E-24
3.62181E-01 5.68893E-24
3.66381E-01 5.52162E-24
3.70590E-01 5.36010E-24
3.74810E-01 5.20415E-24
3.79039E-01 5.05354E-24
3.83277E-01 4.90805E-24
3.87524E-01 4.76747E-24
3.91780E-01 4.63163E-24
3.96044E-01 4.50032E-24
4.00316E-01 4.37337E-24
4.04596E-01 4.25061E-24
4.08882E-01 4.13189E-24
4.13176E-01 4.01704E-24
4.17476E-01 3.90592E-24
4.21783E-01 3.79838E-24
4.26095E-01 3.69429E-24
4.30413E-01 3.59352E-24
4.34737E-01 3.49596E-24
4.39065E-01 3.40147E-24
4.43398E-01 3.30994E-24
4.47736E-01 3.22127E-24
4.52077E-01 3.13535E-24
4.56422E-01 3.05208E-24
4.60770E-01 2.97137E-24
4.65122E-01 2.89313E-24
4.69476E-01 2.81726E-24
4.73832E-01 2.74368E-24
4.78190E-01 2.67232E-24
4.82550E-01 2.60309E-24
4.86912E-01 2.53592E-24
4.91274E-01 2.47074E-24
4.95637E-01 2.40747E-24
5.00000E-01 2.34606E-24
5.04363E-01 2.28645E-24
5.08726E-01 2.22856E-24
5.13088E-01 2.17235E-24
5.17450E-01 2.11775E-24
5.21810E-01 2.06471E-24
5.26168E-01 2.01318E-24
5.30524E-01 1.96311E-24
5.34878E-01 1.91445E-24
5.39230E-01 1.86716E-24
5.43578E-01 1.82119E-24
5.47923E-01 1.77649E-24
5.52264E-01 1.73304E-24
5.56602E-01 1.69077E-24
5.60935E-01 1.64967E-24
5.65263E-01 1.60969E-24
5.69587E-01 1.57080E-24
5.73905E-01 1.53295E-24
5.78217E-01 1.49613E-24
5.82524E-01 1.46030E-24
5.86824E-01 1.42542E-24
5.91118E-01 1.39147E-24
5.95404E-01 1.35841E-24
5.99684E-01 1.32623E-24
6.03956E-01 1.29490E-24
6.08220E-01 1.26438E-24
6.12476E-01 1.23466E-24
6.16723E-01 1.20571E-24
6.20961E-01 1.17751E-24
6.25190E-01 1.15003E-24
6.29410E-01 1.12326E-24
6.33619E-01 1.09717E-24
6.37819E-01 1.07174E-24
6.42008E-01 1.04696E-24
6.46186E-01 1.02280E-24
6.50353E-01 9.99253E-25
6.54508E-01 9.76293E-25
6.58652E-01 9.53905E-25
6.62784E-01 9.32074E-25
6.66903E-01 9.10784E-25
6.71010E-01 8.90019E-25
6.75104E-01 8.69765E-25
6.79184E-01 8.50007E-25
6.83251E-01 8.30731E-25
6.87303E-01 8.11925E-25
6.91342E-01 7.93575E-25
6.95366E-01 7.75669E-25
6.99375E-01 7.58195E-25
7.03368E-01 7.41140E-25
7.07347E-01 7.24493E-25
7.11309E-01 7.08244E-25
7.15256E-01 6.92382E-25
7.19186E-01 6.76896E-25
7.23099E-01 6.61776E-25
7.26995E-01 6.47013E-25
7.30874E-01 6.32597E-25
7.34736E-01 6.18518E-25
7.38579E-01 6.04769E-25
7.42405E-01 5.91341E-25
7.46212E-01 5.78225E-25
7.50000E-01 5.65412E-25
7.53769E-01 5.52897E-25
7.57519E-01 5.40670E-25
7.61249E-01 5.28724E-25
7.64960E-01 5.17052E-25
7.68650E-01 5.05648E-25
7.72320E-01 4.94505E-25
7.75968E-01 4.83615E-25
7.79596E-01 4.72974E-25
7.83203E-01 4.62573E-25
7.86788E-01 4.52409E-25
7.90351E-01 4.42474E-25
7.93893E-01 4.32764E-25
7.97411E-01 4.23273E-25
8.00908E-01 4.13995E-25
8.04381E-01 4.04925E-25
8.07831E-01 3.96059E-25
8.11257E-01 3.87391E-25
8.14660E-01 3.78917E-25
8.18039E-01 3.70632E-25
8.21394E-01 3.62532E-25
8.24724E-01 3.54612E-25
8.28030E-01 3.46868E-25
8.31310E-01 3.39297E-25
8.34565E-01 3.31894E-25
8.37795E-01 3.24654E-25
8.40999E-01 3.17576E-25
8.44177E-01 3.10654E-25
8.47329E-01 3.03886E-25
8.50455E-01 2.97268E-25
8.53553E-01 2.90796E-25
8.56625E-01 2.84467E-25
8.59670E-01 2.78279E-25
8.62687E-01 2.72227E-25
8.65677E-01 2.66310E-25
8.68639E-01 2.60523E-25
8.71572E-01 2.54865E-25
8.74478E-01 2.49333E-25
8.77355E-01 2.43923E-25
8.80203E-01 2.38634E-25
8.83022E-01 2.33462E-25
8.85812E-01 2.28406E-25
8.88573E-01 2.23462E-25
8.91304E-01 2.18629E-25
8.94005E-01 2.13904E-25
8.96677E-01 2.09285E-25
8.99318E-01 2.04771E-25
9.01928E-01 2.00358E-25
9.04508E-01 1.96044E-25
9.07058E-01 1.91829E-25
9.09576E-01 1.87710E-25
9.12063E-01 1.83684E-25
9.14519E-01 1.79751E-25
9.16943E-01 1.75908E-25
9.19335E-01 1.72154E-25
9.21696E-01 1.68487E-25
9.24024E-01 1.64905E-25
9.26320E-01 1.61408E-25
9.28584E-01 1.57992E-25
9.30815E-01 1.54657E-25
9.33013E-01 1.51402E-25
9.35178E-01 1.48225E-25
9.37310E-01 1.45124E-25
9.39409E-01 1.42098E-25
9.41474E-01 1.39147E-25
9.43505E-01 1.36268E-25
9.45503E-01 1.33460E-25
9.47467E-01 1.30723E-25
9.49397E-01 1.28054E-25
9.51293E-01 1.25454E-25
9.53154E-01 1.22921E-25
9.54981E-01 1.20453E-25
9.56773E-01 1.18050E-25
9.58530E-01 1.15711E-25
9.60252E-01 1.13435E-25
9.61940E-01 1.11221E-25
9.63592E-01 1.09067E-25
9.65209E-01 1.06974E-25
9.66790E-01 1.04940E-25
9.68336E-01 1.02964E-25
9.69846E-01 1.01046E-25
9.71321E-01 9.91851E-26
9.72759E-01 9.73800E-26
9.74162E-01 9.56301E-26
9.75528E-01 9.39349E-26
9.76858E-01 9.22937E-26
9.78152E-01 9.07058E-26
9.79410E-01 8.91705E-26
9.80631E-01 8.76873E-26
9.81815E-01 8.62555E-26
9.82963E-01 8.48746E-26
9.84074E-01 8.35441E-26
9.85148E-01 8.22635E-26
9.86185E-01 8.10321E-26
9.87185E-01 7.98496E-26
9.88148E-01 7.87155E-26
9.89074E-01 7.76293E-26
9.89962E-01 7.65906E-26
9.90814E-01 7.55990E-26
9.91627E-01 7.46542E-26
9.92404E-01 7.37556E-26
9.93143E-01 7.29031E-26
9.93844E-01 7.20963E-26
9.94508E-01 7.13348E-26
9.95134E-01 7.06184E-26
9.95722E-01 6.99467E-26
9.96273E-01 6.93196E-26
9.96786E-01 6.87368E-26
9.97261E-01 6.81981E-26
9.97698E-01 6.77032E-26
9.98097E-01 6.72520E-26
9.98459E-01 6.68442E-26
9.98782E-01 6.64798E-26
9.99067E-01 6.61586E-26
9.99315E-01 6.58805E-26
9.99524E-01 6.56454E-26
9.99695E-01 6.54531E-26
9.99829E-01 6.53036E-26
9.99924E-01 6.51969E-26
9.99981E-01 6.51329E-26
1.00000E+00 6.51115E-26
