 #
 # Subroutine ELSEPA. Elastic scattering of electrons and positrons
 #                    by neutral atoms and positive ions
 #
 # Projectile: positron
 # Kinetic energy = 6.00000E+08 eV = 2.20496E+07 a.u.
 #
 # WARNING: High-energy factorization with free-atom DF screening.
 #          Absorption, polarization and exchange corrections are
 #          switched off.
 #          Phase shifts are calculated for the bare nucleus.
 #          Scattering amplitudes are not evaluated.
 #
 # Element: Zr,  Z =  40,  atomic weight = 9.12240E+01 g/mol
 #
 # Nuclear model: Fermi distribution
 #                Average radius = 4.81674E-13 cm
 #                Skin thickness = 5.46000E-14 cm
 #
 # Number of electrons = 40
 #
 # Total elastic cross section = 4.05429E-18 cm**2 = 1.44781E-01 a0**2
 # 1st transport cross section = 8.85802E-27 cm**2 = 3.16326E-10 a0**2
 # 2nd transport cross section = 2.65660E-26 cm**2 = 9.48690E-10 a0**2
 #
 #
 # Differential cross section:                       MU=(1-COS(THETA))/2
 #
 #  THETA        MU          DCS          DCS        Sherman      error
 #  (deg)                 (cm**2/sr)   (a0**2/sr)    function
 #----------------------------------------------------------------------
0.00000E+00 2.00704E-08
7.61557E-13 1.74196E-08
1.18994E-12 1.61643E-08
1.71346E-12 1.48170E-08
2.33225E-12 1.34452E-08
3.04617E-12 1.21042E-08
3.85530E-12 1.08339E-08
4.75964E-12 9.65961E-09
5.75917E-12 8.59473E-09
6.85391E-12 7.64289E-09
8.04379E-12 6.80052E-09
9.32893E-12 6.06024E-09
1.07092E-11 5.41260E-09
1.21847E-11 4.84724E-09
1.37554E-11 4.35394E-09
1.54213E-11 3.92312E-09
1.71823E-11 3.54614E-09
1.90386E-11 3.21533E-09
2.09900E-11 2.92409E-09
2.30367E-11 2.66663E-09
2.51785E-11 2.43819E-09
2.74156E-11 2.23475E-09
2.97478E-11 2.05289E-09
3.21752E-11 1.88974E-09
3.46979E-11 1.74288E-09
3.73157E-11 1.61025E-09
4.00286E-11 1.49011E-09
4.28368E-11 1.38100E-09
4.57402E-11 1.28165E-09
4.87388E-11 1.19096E-09
5.18325E-11 1.10793E-09
5.50215E-11 1.03188E-09
5.83057E-11 9.62095E-10
6.16850E-11 8.97972E-10
6.51595E-11 8.37226E-10
6.87293E-11 7.79839E-10
7.23943E-11 7.27964E-10
7.61544E-11 6.80969E-10
1.18991E-10 3.74207E-10
1.71347E-10 2.23144E-10
2.33223E-10 1.42868E-10
3.04617E-10 9.67878E-11
3.85531E-10 6.83556E-11
4.75965E-10 4.97283E-11
5.75917E-10 3.69402E-11
6.85389E-10 2.78809E-11
8.04380E-10 2.13440E-11
9.32891E-10 1.65489E-11
1.07092E-09 1.29846E-11
1.21847E-09 1.03048E-11
1.37554E-09 8.26816E-12
1.54213E-09 6.70505E-12
1.71823E-09 5.49106E-12
1.90386E-09 4.53963E-12
2.09900E-09 3.78722E-12
2.30367E-09 3.18617E-12
2.51785E-09 2.70147E-12
2.74156E-09 2.30690E-12
2.97478E-09 1.98283E-12
3.21752E-09 1.71450E-12
3.46978E-09 1.49066E-12
3.73156E-09 1.30265E-12
4.00286E-09 1.14374E-12
4.28368E-09 1.00861E-12
4.57402E-09 8.93042E-13
4.87388E-09 7.93661E-13
5.18326E-09 7.07741E-13
5.50215E-09 6.33141E-13
5.83057E-09 5.68098E-13
6.16850E-09 5.11169E-13
6.51596E-09 4.61027E-13
6.87293E-09 4.16798E-13
7.23942E-09 3.77904E-13
7.61544E-09 3.43584E-13
1.18991E-08 1.46229E-13
1.71347E-08 7.19887E-14
2.33223E-08 3.93637E-14
3.04617E-08 2.32959E-14
3.85531E-08 1.46580E-14
4.75965E-08 9.68227E-15
5.75917E-08 6.65205E-15
6.85389E-08 4.72072E-15
8.04380E-08 3.44248E-15
9.32891E-08 2.56914E-15
1.07092E-07 1.95598E-15
1.21847E-07 1.51522E-15
1.37554E-07 1.19184E-15
1.54213E-07 9.50258E-16
1.71823E-07 7.66851E-16
1.90386E-07 6.25591E-16
2.09900E-07 5.15383E-16
2.30367E-07 4.28388E-16
2.51785E-07 3.58982E-16
2.74156E-07 3.03066E-16
2.97478E-07 2.57616E-16
3.21752E-07 2.20368E-16
3.46978E-07 1.89610E-16
3.73156E-07 1.64031E-16
4.00286E-07 1.42621E-16
4.28368E-07 1.24590E-16
4.57402E-07 1.09318E-16
4.87388E-07 9.63151E-17
5.18325E-07 8.51877E-17
5.50215E-07 7.56210E-17
5.83057E-07 6.73594E-17
6.16850E-07 6.01952E-17
6.51596E-07 5.39581E-17
6.87293E-07 4.85079E-17
7.23942E-07 4.37285E-17
7.61543E-07 3.95233E-17
1.18991E-06 1.62050E-17
1.71347E-06 7.81823E-18
2.33223E-06 4.22082E-18
3.04617E-06 2.47429E-18
3.85531E-06 1.54466E-18
4.75964E-06 1.01339E-18
5.75916E-06 6.92097E-19
6.85388E-06 4.88617E-19
8.04378E-06 3.54708E-19
9.32888E-06 2.63681E-19
1.07092E-05 2.00065E-19
1.21846E-05 1.54525E-19
1.37553E-05 1.21233E-19
1.54212E-05 9.64425E-20
1.71822E-05 7.76754E-20
1.90385E-05 6.32472E-20
2.09899E-05 5.20379E-20
2.30365E-05 4.32026E-20
2.51783E-05 3.61612E-20
2.74153E-05 3.04944E-20
2.97475E-05 2.58937E-20
3.21749E-05 2.21283E-20
3.46974E-05 1.90236E-20
3.73152E-05 1.64455E-20
4.00281E-05 1.42903E-20
4.28362E-05 1.24772E-20
4.57395E-05 1.09425E-20
4.87380E-05 9.63636E-21
5.18317E-05 8.51906E-21
5.50205E-05 7.55881E-21
5.83045E-05 6.72998E-21
6.16838E-05 6.01167E-21
6.51582E-05 5.38674E-21
6.87277E-05 4.84101E-21
7.23925E-05 4.36272E-21
7.61524E-05 3.92767E-21
9.21439E-05 2.67646E-21
1.09658E-04 1.88474E-21
1.28695E-04 1.36437E-21
1.49255E-04 1.01101E-21
1.71338E-04 7.64432E-22
1.94942E-04 5.88169E-22
2.20070E-04 4.59537E-22
2.46720E-04 3.63927E-22
2.74892E-04 2.91690E-22
3.04586E-04 2.36322E-22
3.35803E-04 1.93321E-22
3.68542E-04 1.59532E-22
4.02802E-04 1.32696E-22
4.38585E-04 1.11174E-22
4.75889E-04 9.37591E-23
5.14715E-04 7.95520E-23
5.55063E-04 6.78750E-23
5.96931E-04 5.82101E-23
6.40321E-04 5.01593E-23
6.85233E-04 4.34128E-23
7.31665E-04 3.77278E-23
7.79618E-04 3.29125E-23
8.29092E-04 2.88140E-23
8.80086E-04 2.53098E-23
9.32601E-04 2.23009E-23
9.86636E-04 1.97070E-23
1.04219E-03 1.74625E-23
1.09927E-03 1.55134E-23
1.15786E-03 1.38152E-23
1.21797E-03 1.23309E-23
1.27961E-03 1.10297E-23
1.34276E-03 9.88584E-24
1.40743E-03 8.87753E-24
1.47362E-03 7.98648E-24
1.54133E-03 7.19715E-24
1.61056E-03 6.49634E-24
1.68131E-03 5.87275E-24
1.75357E-03 5.31674E-24
1.82735E-03 4.81999E-24
1.90265E-03 4.37537E-24
1.97947E-03 3.97668E-24
2.05780E-03 3.61858E-24
2.13765E-03 3.29640E-24
2.21902E-03 3.00609E-24
2.30190E-03 2.74411E-24
2.38630E-03 2.50735E-24
2.47222E-03 2.29311E-24
2.55965E-03 2.09898E-24
2.64859E-03 1.92286E-24
2.73905E-03 1.76289E-24
2.83103E-03 1.61743E-24
2.92452E-03 1.48501E-24
3.01952E-03 1.36434E-24
3.11604E-03 1.25427E-24
3.21407E-03 1.15376E-24
3.31362E-03 1.06192E-24
3.41468E-03 9.77907E-25
3.51725E-03 9.01002E-25
3.62133E-03 8.30543E-25
3.72692E-03 7.65942E-25
3.83403E-03 7.06669E-25
3.94265E-03 6.52245E-25
4.05278E-03 6.02241E-25
4.16442E-03 5.56269E-25
4.27757E-03 5.13978E-25
4.39223E-03 4.75051E-25
4.50840E-03 4.39200E-25
4.62608E-03 4.06164E-25
4.74527E-03 3.75708E-25
4.86597E-03 3.47617E-25
4.98817E-03 3.21695E-25
5.11188E-03 2.97764E-25
5.23711E-03 2.75663E-25
5.36383E-03 2.55244E-25
5.49207E-03 2.36371E-25
5.62181E-03 2.18922E-25
5.75306E-03 2.02784E-25
5.88581E-03 1.87854E-25
6.02007E-03 1.74037E-25
6.15583E-03 1.61247E-25
6.29310E-03 1.49406E-25
6.43187E-03 1.38439E-25
6.57214E-03 1.28280E-25
6.71392E-03 1.18869E-25
6.85720E-03 1.10147E-25
7.00198E-03 1.02064E-25
7.14827E-03 9.45708E-26
7.29605E-03 8.76244E-26
7.44534E-03 8.11838E-26
7.59612E-03 7.52116E-26
7.97965E-03 6.21100E-26
8.37255E-03 5.12556E-26
8.77480E-03 4.22615E-26
9.18641E-03 3.48094E-26
9.60736E-03 2.86366E-26
1.00376E-02 2.35258E-26
1.04773E-02 1.92974E-26
1.09262E-02 1.58022E-26
1.13844E-02 1.29162E-26
1.18520E-02 1.05364E-26
1.23288E-02 8.57716E-27
1.28150E-02 6.96692E-27
1.33104E-02 5.64618E-27
1.38150E-02 4.56529E-27
1.43290E-02 3.68288E-27
1.48521E-02 2.96446E-27
1.53845E-02 2.38128E-27
1.59262E-02 1.90942E-27
1.64770E-02 1.52896E-27
1.70371E-02 1.22336E-27
1.76063E-02 9.78875E-28
1.81848E-02 7.84132E-28
1.87724E-02 6.29714E-28
1.93692E-02 5.07855E-28
1.99751E-02 4.12160E-28
2.05901E-02 3.37383E-28
2.12143E-02 2.79231E-28
2.18476E-02 2.34206E-28
2.24900E-02 1.99469E-28
2.31415E-02 1.72728E-28
2.38021E-02 1.52143E-28
2.44717E-02 1.36244E-28
2.51504E-02 1.23868E-28
2.58382E-02 1.14101E-28
2.65349E-02 1.06233E-28
2.72407E-02 9.97181E-29
2.79555E-02 9.41424E-29
2.86793E-02 8.91986E-29
2.94120E-02 8.46631E-29
3.01537E-02 8.03782E-29
3.09043E-02 7.62375E-29
3.16639E-02 7.21736E-29
3.24324E-02 6.81486E-29
3.32098E-02 6.41461E-29
3.39961E-02 6.01650E-29
3.47912E-02 5.62147E-29
3.55952E-02 5.23111E-29
3.64081E-02 4.84738E-29
3.72297E-02 4.47237E-29
3.80602E-02 4.10815E-29
3.88995E-02 3.75666E-29
3.97476E-02 3.41962E-29
4.06044E-02 3.09847E-29
4.14700E-02 2.79438E-29
4.23443E-02 2.50822E-29
4.32273E-02 2.24056E-29
4.41190E-02 1.99169E-29
4.50194E-02 1.76166E-29
4.59284E-02 1.55028E-29
4.68461E-02 1.35717E-29
4.87074E-02 1.02339E-29
5.06030E-02 7.54365E-30
5.25328E-02 5.42732E-30
5.44967E-02 3.80481E-30
5.64946E-02 2.59540E-30
5.85262E-02 1.72207E-30
6.05914E-02 1.11452E-30
6.26901E-02 7.10886E-31
6.48222E-02 4.58475E-31
6.69873E-02 3.13839E-31
6.91854E-02 2.42258E-31
7.14163E-02 2.16908E-31
7.36799E-02 2.17830E-31
7.59760E-02 2.30832E-31
7.83043E-02 2.46401E-31
8.06647E-02 2.58683E-31
8.30571E-02 2.64581E-31
8.54812E-02 2.62975E-31
8.79369E-02 2.54078E-31
9.04240E-02 2.38924E-31
9.29422E-02 2.18976E-31
9.54915E-02 1.95837E-31
9.80716E-02 1.71054E-31
1.00682E-01 1.45994E-31
1.03323E-01 1.21773E-31
1.05995E-01 9.92353E-32
1.08696E-01 7.89540E-32
1.11427E-01 6.12600E-32
1.14188E-01 4.62769E-32
1.16978E-01 3.39631E-32
1.19797E-01 2.41541E-32
1.22645E-01 1.66019E-32
1.25522E-01 1.10097E-32
1.28428E-01 7.06024E-33
1.31361E-01 4.43886E-33
1.34323E-01 2.84970E-33
1.37313E-01 2.02698E-33
1.40330E-01 1.74141E-33
1.43375E-01 1.80287E-33
1.46447E-01 2.06010E-33
1.49545E-01 2.39826E-33
1.52671E-01 2.73506E-33
1.55823E-01 3.01609E-33
1.59001E-01 3.20985E-33
1.62205E-01 3.30277E-33
1.65435E-01 3.29468E-33
1.68690E-01 3.19466E-33
1.71970E-01 3.01761E-33
1.75276E-01 2.78141E-33
1.78606E-01 2.50471E-33
1.81961E-01 2.20533E-33
1.85340E-01 1.89918E-33
1.88743E-01 1.59958E-33
1.92169E-01 1.31700E-33
1.95619E-01 1.05903E-33
1.99092E-01 8.30516E-34
2.02589E-01 6.33949E-34
2.06107E-01 4.69787E-34
2.09649E-01 3.36893E-34
2.13212E-01 2.32952E-34
2.16797E-01 1.54852E-34
2.20404E-01 9.90209E-35
2.24032E-01 6.17156E-35
2.27680E-01 3.92502E-35
2.31350E-01 2.81643E-35
2.35040E-01 2.53437E-35
2.38751E-01 2.80922E-35
2.42481E-01 3.41638E-35
2.46231E-01 4.17643E-35
2.50000E-01 4.95293E-35
2.53788E-01 5.64842E-35
2.57595E-01 6.19943E-35
2.61421E-01 6.57095E-35
2.65264E-01 6.75085E-35
2.69126E-01 6.74433E-35
2.73005E-01 6.56906E-35
2.76901E-01 6.25073E-35
2.80814E-01 5.81942E-35
2.84744E-01 5.30653E-35
2.88691E-01 4.74267E-35
2.92653E-01 4.15570E-35
2.96632E-01 3.57000E-35
3.00625E-01 3.00551E-35
3.04634E-01 2.47782E-35
3.08658E-01 1.99804E-35
3.12697E-01 1.57325E-35
3.16749E-01 1.20689E-35
3.20816E-01 8.99379E-36
3.24896E-01 6.48671E-36
3.28990E-01 4.50829E-36
3.33097E-01 3.00671E-36
3.37216E-01 1.92153E-36
3.41348E-01 1.18906E-36
3.45492E-01 7.45284E-37
3.49647E-01 5.28958E-37
3.53814E-01 4.83583E-37
3.57992E-01 5.58854E-37
3.62181E-01 7.11433E-37
3.66381E-01 9.05312E-37
3.70590E-01 1.11164E-36
3.74810E-01 1.30847E-36
3.79039E-01 1.48002E-36
3.83277E-01 1.61603E-36
3.87524E-01 1.71089E-36
3.91780E-01 1.76265E-36
3.96044E-01 1.77266E-36
4.00316E-01 1.74406E-36
4.04596E-01 1.68193E-36
4.08882E-01 1.59194E-36
4.13176E-01 1.48034E-36
4.17476E-01 1.35342E-36
4.21783E-01 1.21702E-36
4.26095E-01 1.07661E-36
4.30413E-01 9.36786E-37
4.34737E-01 8.01501E-37
4.39065E-01 6.73889E-37
4.43398E-01 5.56189E-37
4.47736E-01 4.50089E-37
4.52077E-01 3.56458E-37
4.56422E-01 2.75608E-37
4.60770E-01 2.07399E-37
4.65122E-01 1.51306E-37
4.69476E-01 1.06487E-37
4.73832E-01 7.18649E-38
4.78190E-01 4.62880E-38
4.82550E-01 2.84923E-38
4.86912E-01 1.72270E-38
4.91274E-01 1.12805E-38
4.95637E-01 9.50482E-39
5.00000E-01 1.08556E-38
5.04363E-01 1.44030E-38
5.08726E-01 1.93423E-38
5.13088E-01 2.50012E-38
5.17450E-01 3.08257E-38
5.21810E-01 3.63911E-38
5.26168E-01 4.13702E-38
5.30524E-01 4.55544E-38
5.34878E-01 4.88011E-38
5.39230E-01 5.10423E-38
5.43578E-01 5.22816E-38
5.47923E-01 5.25631E-38
5.52264E-01 5.19572E-38
5.56602E-01 5.05604E-38
5.60935E-01 4.85020E-38
5.65263E-01 4.58944E-38
5.69587E-01 4.28691E-38
5.73905E-01 3.95356E-38
5.78217E-01 3.60193E-38
5.82524E-01 3.24129E-38
5.86824E-01 2.88152E-38
5.91118E-01 2.53036E-38
5.95404E-01 2.19406E-38
5.99684E-01 1.87705E-38
6.03956E-01 1.58383E-38
6.08220E-01 1.31682E-38
6.12476E-01 1.07710E-38
6.16723E-01 8.65877E-39
6.20961E-01 6.82393E-39
6.25190E-01 5.25936E-39
6.29410E-01 3.94922E-39
6.33619E-01 2.87853E-39
6.37819E-01 1.00000E-45
6.42008E-01 1.00000E-45
6.46186E-01 1.00000E-45
6.50353E-01 1.00000E-45
6.54508E-01 1.00000E-45
6.58652E-01 1.00000E-45
6.62784E-01 1.00000E-45
6.66903E-01 1.00000E-45
6.71010E-01 1.00000E-45
6.75104E-01 1.00000E-45
6.79184E-01 1.00000E-45
6.83251E-01 1.00000E-45
6.87303E-01 1.00000E-45
6.91342E-01 1.00000E-45
6.95366E-01 1.00000E-45
6.99375E-01 1.00000E-45
7.03368E-01 1.00000E-45
7.07347E-01 1.00000E-45
7.11309E-01 1.00000E-45
7.15256E-01 1.00000E-45
7.19186E-01 1.00000E-45
7.23099E-01 1.00000E-45
7.26995E-01 1.00000E-45
7.30874E-01 1.00000E-45
7.34736E-01 1.00000E-45
7.38579E-01 1.00000E-45
7.42405E-01 1.00000E-45
7.46212E-01 1.00000E-45
7.50000E-01 1.00000E-45
7.53769E-01 1.00000E-45
7.57519E-01 1.00000E-45
7.61249E-01 1.00000E-45
7.64960E-01 1.00000E-45
7.68650E-01 1.00000E-45
7.72320E-01 1.00000E-45
7.75968E-01 1.00000E-45
7.79596E-01 1.00000E-45
7.83203E-01 1.00000E-45
7.86788E-01 1.00000E-45
7.90351E-01 1.00000E-45
7.93893E-01 1.00000E-45
7.97411E-01 1.00000E-45
8.00908E-01 1.00000E-45
8.04381E-01 1.00000E-45
8.07831E-01 1.00000E-45
8.11257E-01 1.00000E-45
8.14660E-01 1.00000E-45
8.18039E-01 1.00000E-45
8.21394E-01 1.00000E-45
8.24724E-01 1.00000E-45
8.28030E-01 1.00000E-45
8.31310E-01 1.00000E-45
8.34565E-01 1.00000E-45
8.37795E-01 1.00000E-45
8.40999E-01 1.00000E-45
8.44177E-01 1.00000E-45
8.47329E-01 1.00000E-45
8.50455E-01 1.00000E-45
8.53553E-01 1.00000E-45
8.56625E-01 1.00000E-45
8.59670E-01 1.00000E-45
8.62687E-01 1.00000E-45
8.65677E-01 1.00000E-45
8.68639E-01 1.00000E-45
8.71572E-01 1.00000E-45
8.74478E-01 1.00000E-45
8.77355E-01 1.00000E-45
8.80203E-01 1.00000E-45
8.83022E-01 1.00000E-45
8.85812E-01 1.00000E-45
8.88573E-01 1.00000E-45
8.91304E-01 1.00000E-45
8.94005E-01 1.00000E-45
8.96677E-01 1.00000E-45
8.99318E-01 1.00000E-45
9.01928E-01 1.00000E-45
9.04508E-01 1.00000E-45
9.07058E-01 1.00000E-45
9.09576E-01 1.00000E-45
9.12063E-01 1.00000E-45
9.14519E-01 1.00000E-45
9.16943E-01 1.00000E-45
9.19335E-01 1.00000E-45
9.21696E-01 1.00000E-45
9.24024E-01 1.00000E-45
9.26320E-01 1.00000E-45
9.28584E-01 1.00000E-45
9.30815E-01 1.00000E-45
9.33013E-01 1.00000E-45
9.35178E-01 1.00000E-45
9.37310E-01 1.00000E-45
9.39409E-01 1.00000E-45
9.41474E-01 1.00000E-45
9.43505E-01 1.00000E-45
9.45503E-01 1.00000E-45
9.47467E-01 1.00000E-45
9.49397E-01 1.00000E-45
9.51293E-01 1.00000E-45
9.53154E-01 1.00000E-45
9.54981E-01 1.00000E-45
9.56773E-01 1.00000E-45
9.58530E-01 1.00000E-45
9.60252E-01 1.00000E-45
9.61940E-01 1.00000E-45
9.63592E-01 1.00000E-45
9.65209E-01 1.00000E-45
9.66790E-01 1.00000E-45
9.68336E-01 1.00000E-45
9.69846E-01 1.00000E-45
9.71321E-01 1.00000E-45
9.72759E-01 1.00000E-45
9.74162E-01 1.00000E-45
9.75528E-01 1.00000E-45
9.76858E-01 1.00000E-45
9.78152E-01 1.00000E-45
9.79410E-01 1.00000E-45
9.80631E-01 1.00000E-45
9.81815E-01 1.00000E-45
9.82963E-01 1.00000E-45
9.84074E-01 1.00000E-45
9.85148E-01 1.00000E-45
9.86185E-01 1.00000E-45
9.87185E-01 1.00000E-45
9.88148E-01 1.00000E-45
9.89074E-01 1.00000E-45
9.89962E-01 1.00000E-45
9.90814E-01 1.00000E-45
9.91627E-01 1.00000E-45
9.92404E-01 1.00000E-45
9.93143E-01 1.00000E-45
9.93844E-01 1.00000E-45
9.94508E-01 1.00000E-45
9.95134E-01 1.00000E-45
9.95722E-01 1.00000E-45
9.96273E-01 1.00000E-45
9.96786E-01 1.00000E-45
9.97261E-01 1.00000E-45
9.97698E-01 1.00000E-45
9.98097E-01 1.00000E-45
9.98459E-01 1.00000E-45
9.98782E-01 1.00000E-45
9.99067E-01 1.00000E-45
9.99315E-01 1.00000E-45
9.99524E-01 1.00000E-45
9.99695E-01 1.00000E-45
9.99829E-01 1.00000E-45
9.99924E-01 1.00000E-45
9.99981E-01 1.00000E-45
1.00000E+00 1.00000E-45
