 #
 # Subroutine ELSEPA. Elastic scattering of electrons and positrons
 #                    by neutral atoms and positive ions
 #
 # Projectile: positron
 # Kinetic energy = 3.00000E+07 eV = 1.10248E+06 a.u.
 #
 # WARNING: High-energy factorization with free-atom DF screening.
 #          Absorption, polarization and exchange corrections are
 #          switched off.
 #          Phase shifts are calculated for the bare nucleus.
 #          Scattering amplitudes are not evaluated.
 #
 # Element: Zr,  Z =  40,  atomic weight = 9.12240E+01 g/mol
 #
 # Nuclear model: Fermi distribution
 #                Average radius = 4.81674E-13 cm
 #                Skin thickness = 5.46000E-14 cm
 #
 # Number of electrons = 40
 #
 # Total elastic cross section = 4.06791E-18 cm**2 = 1.45268E-01 a0**2
 # 1st transport cross section = 3.02853E-24 cm**2 = 1.08151E-07 a0**2
 # 2nd transport cross section = 8.84016E-24 cm**2 = 3.15688E-07 a0**2
 #
 #
 # Differential cross section:                       MU=(1-COS(THETA))/2
 #
 #  THETA        MU          DCS          DCS        Sherman      error
 #  (deg)                 (cm**2/sr)   (a0**2/sr)    function
 #----------------------------------------------------------------------
0.00000E+00 5.18116E-11
7.61557E-13 5.17917E-11
1.18994E-12 5.17806E-11
1.71346E-12 5.17670E-11
2.33225E-12 5.17510E-11
3.04617E-12 5.17325E-11
3.85530E-12 5.17115E-11
4.75964E-12 5.16881E-11
5.75917E-12 5.16623E-11
6.85391E-12 5.16340E-11
8.04379E-12 5.16034E-11
9.32893E-12 5.15703E-11
1.07092E-11 5.15348E-11
1.21847E-11 5.14968E-11
1.37554E-11 5.14565E-11
1.54213E-11 5.14138E-11
1.71823E-11 5.13688E-11
1.90386E-11 5.13213E-11
2.09900E-11 5.12715E-11
2.30367E-11 5.12194E-11
2.51785E-11 5.11649E-11
2.74156E-11 5.11081E-11
2.97478E-11 5.10490E-11
3.21752E-11 5.09876E-11
3.46979E-11 5.09239E-11
3.73157E-11 5.08579E-11
4.00286E-11 5.07897E-11
4.28368E-11 5.07193E-11
4.57402E-11 5.06466E-11
4.87388E-11 5.05717E-11
5.18325E-11 5.04946E-11
5.50215E-11 5.04153E-11
5.83057E-11 5.03339E-11
6.16850E-11 5.02503E-11
6.51595E-11 5.01647E-11
6.87293E-11 5.00768E-11
7.23943E-11 4.99870E-11
7.61544E-11 4.98950E-11
1.18991E-10 4.88658E-11
1.71347E-10 4.76527E-11
2.33223E-10 4.62793E-11
3.04617E-10 4.47713E-11
3.85531E-10 4.31541E-11
4.75965E-10 4.14552E-11
5.75917E-10 3.96983E-11
6.85389E-10 3.79088E-11
8.04380E-10 3.61071E-11
9.32891E-10 3.43132E-11
1.07092E-09 3.25446E-11
1.21847E-09 3.08133E-11
1.37554E-09 2.91348E-11
1.54213E-09 2.75123E-11
1.71823E-09 2.59604E-11
1.90386E-09 2.44760E-11
2.09900E-09 2.30679E-11
2.30367E-09 2.17335E-11
2.51785E-09 2.04746E-11
2.74156E-09 1.92906E-11
2.97478E-09 1.81773E-11
3.21752E-09 1.71362E-11
3.46978E-09 1.61593E-11
3.73156E-09 1.52491E-11
4.00286E-09 1.43969E-11
4.28368E-09 1.36027E-11
4.57402E-09 1.28610E-11
4.87388E-09 1.21691E-11
5.18326E-09 1.15236E-11
5.50215E-09 1.09210E-11
5.83057E-09 1.03585E-11
6.16850E-09 9.83289E-12
6.51596E-09 9.34159E-12
6.87293E-09 8.88200E-12
7.23942E-09 8.45161E-12
7.61544E-09 8.04835E-12
1.18991E-08 5.12521E-12
1.71347E-08 3.43823E-12
2.33223E-08 2.38905E-12
3.04617E-08 1.68591E-12
3.85531E-08 1.24485E-12
4.75965E-08 9.23890E-13
5.75917E-08 7.08092E-13
6.85389E-08 5.50322E-13
8.04380E-08 4.36946E-13
9.32891E-08 3.52268E-13
1.07092E-07 2.87930E-13
1.21847E-07 2.38617E-13
1.37554E-07 1.99232E-13
1.54213E-07 1.68412E-13
1.71823E-07 1.42740E-13
1.90386E-07 1.22155E-13
2.09900E-07 1.04843E-13
2.30367E-07 9.05295E-14
2.51785E-07 7.84586E-14
2.74156E-07 6.82318E-14
2.97478E-07 5.96074E-14
3.21752E-07 5.21641E-14
3.46978E-07 4.58826E-14
3.73156E-07 4.03962E-14
4.00286E-07 3.57283E-14
4.28368E-07 3.16634E-14
4.57402E-07 2.81581E-14
4.87388E-07 2.51079E-14
5.18325E-07 2.24494E-14
5.50215E-07 2.01330E-14
5.83057E-07 1.80983E-14
6.16850E-07 1.63197E-14
6.51596E-07 1.47433E-14
6.87293E-07 1.33572E-14
7.23942E-07 1.21285E-14
7.61543E-07 1.10403E-14
1.18991E-06 4.82232E-15
1.71347E-06 2.45236E-15
2.33223E-06 1.38040E-15
3.04617E-06 8.34032E-16
3.85531E-06 5.31958E-16
4.75964E-06 3.54540E-16
5.75916E-06 2.44846E-16
6.85388E-06 1.74346E-16
8.04378E-06 1.27441E-16
9.32888E-06 9.52745E-17
1.07092E-05 7.26510E-17
1.21846E-05 5.63636E-17
1.37553E-05 4.44002E-17
1.54212E-05 3.54541E-17
1.71822E-05 2.86536E-17
1.90385E-05 2.34068E-17
2.09899E-05 1.93165E-17
2.30365E-05 1.60817E-17
2.51783E-05 1.34960E-17
2.74153E-05 1.14086E-17
2.97475E-05 9.70927E-18
3.21749E-05 8.31483E-18
3.46974E-05 7.16210E-18
3.73152E-05 6.20276E-18
4.00281E-05 5.39890E-18
4.28362E-05 4.72122E-18
4.57395E-05 4.14653E-18
4.87380E-05 3.65647E-18
5.18317E-05 3.23655E-18
5.50205E-05 2.87505E-18
5.83045E-05 2.56255E-18
6.16838E-05 2.29134E-18
6.51582E-05 2.05504E-18
6.87277E-05 1.84845E-18
7.23925E-05 1.66716E-18
7.61524E-05 1.50756E-18
9.21439E-05 1.03169E-18
1.09658E-04 7.29396E-19
1.28695E-04 5.30060E-19
1.49255E-04 3.94302E-19
1.71338E-04 2.99320E-19
1.94942E-04 2.31254E-19
2.20070E-04 1.81462E-19
2.46720E-04 1.44364E-19
2.74892E-04 1.16267E-19
3.04586E-04 9.46787E-20
3.35803E-04 7.78696E-20
3.68542E-04 6.46266E-20
4.02802E-04 5.40793E-20
4.38585E-04 4.55957E-20
4.75889E-04 3.87104E-20
5.14715E-04 3.30752E-20
5.55063E-04 2.84278E-20
5.96931E-04 2.45675E-20
6.40321E-04 2.13398E-20
6.85233E-04 1.86244E-20
7.31665E-04 1.63269E-20
7.79618E-04 1.43724E-20
8.29092E-04 1.27013E-20
8.80086E-04 1.12658E-20
9.32601E-04 1.00271E-20
9.86636E-04 8.95381E-21
1.04219E-03 8.02009E-21
1.09927E-03 7.20474E-21
1.15786E-03 6.49022E-21
1.21797E-03 5.86194E-21
1.27961E-03 5.30773E-21
1.34276E-03 4.81737E-21
1.40743E-03 4.38222E-21
1.47362E-03 3.99502E-21
1.54133E-03 3.64955E-21
1.61056E-03 3.34055E-21
1.68131E-03 3.06349E-21
1.75357E-03 2.81450E-21
1.82735E-03 2.59025E-21
1.90265E-03 2.38783E-21
1.97947E-03 2.20476E-21
2.05780E-03 2.03885E-21
2.13765E-03 1.88822E-21
2.21902E-03 1.75120E-21
2.30190E-03 1.62636E-21
2.38630E-03 1.51242E-21
2.47222E-03 1.40826E-21
2.55965E-03 1.31288E-21
2.64859E-03 1.22542E-21
2.73905E-03 1.14510E-21
2.83103E-03 1.07124E-21
2.92452E-03 1.00321E-21
3.01952E-03 9.40490E-22
3.11604E-03 8.82574E-22
3.21407E-03 8.29034E-22
3.31362E-03 7.79480E-22
3.41468E-03 7.33562E-22
3.51725E-03 6.90965E-22
3.62133E-03 6.51404E-22
3.72692E-03 6.14623E-22
3.83403E-03 5.80393E-22
3.94265E-03 5.48504E-22
4.05278E-03 5.18768E-22
4.16442E-03 4.91013E-22
4.27757E-03 4.65081E-22
4.39223E-03 4.40833E-22
4.50840E-03 4.18137E-22
4.62608E-03 3.96879E-22
4.74527E-03 3.76949E-22
4.86597E-03 3.58249E-22
4.98817E-03 3.40690E-22
5.11188E-03 3.24189E-22
5.23711E-03 3.08670E-22
5.36383E-03 2.94065E-22
5.49207E-03 2.80310E-22
5.62181E-03 2.67347E-22
5.75306E-03 2.55121E-22
5.88581E-03 2.43582E-22
6.02007E-03 2.32686E-22
6.15583E-03 2.22389E-22
6.29310E-03 2.12653E-22
6.43187E-03 2.03442E-22
6.57214E-03 1.94721E-22
6.71392E-03 1.86460E-22
6.85720E-03 1.78631E-22
7.00198E-03 1.71206E-22
7.14827E-03 1.64161E-22
7.29605E-03 1.57473E-22
7.44534E-03 1.51120E-22
7.59612E-03 1.45083E-22
7.97965E-03 1.31251E-22
8.37255E-03 1.19021E-22
8.77480E-03 1.08175E-22
9.18641E-03 9.85308E-23
9.60736E-03 8.99316E-23
1.00376E-02 8.22455E-23
1.04773E-02 7.53581E-23
1.09262E-02 6.91732E-23
1.13844E-02 6.36056E-23
1.18520E-02 5.85838E-23
1.23288E-02 5.40448E-23
1.28150E-02 4.99342E-23
1.33104E-02 4.62045E-23
1.38150E-02 4.28142E-23
1.43290E-02 3.97271E-23
1.48521E-02 3.69113E-23
1.53845E-02 3.43389E-23
1.59262E-02 3.19850E-23
1.64770E-02 2.98279E-23
1.70371E-02 2.78482E-23
1.76063E-02 2.60287E-23
1.81848E-02 2.43542E-23
1.87724E-02 2.28111E-23
1.93692E-02 2.13874E-23
1.99751E-02 2.00720E-23
2.05901E-02 1.88553E-23
2.12143E-02 1.77286E-23
2.18476E-02 1.66841E-23
2.24900E-02 1.57147E-23
2.31415E-02 1.48140E-23
2.38021E-02 1.39763E-23
2.44717E-02 1.31965E-23
2.51504E-02 1.24697E-23
2.58382E-02 1.17918E-23
2.65349E-02 1.11588E-23
2.72407E-02 1.05674E-23
2.79555E-02 1.00142E-23
2.86793E-02 9.49629E-24
2.94120E-02 9.01110E-24
3.01537E-02 8.55617E-24
3.09043E-02 8.12926E-24
3.16639E-02 7.72835E-24
3.24324E-02 7.35156E-24
3.32098E-02 6.99719E-24
3.39961E-02 6.66366E-24
3.47912E-02 6.34953E-24
3.55952E-02 6.05346E-24
3.64081E-02 5.77423E-24
3.72297E-02 5.51072E-24
3.80602E-02 5.26188E-24
3.88995E-02 5.02674E-24
3.97476E-02 4.80441E-24
4.06044E-02 4.59408E-24
4.14700E-02 4.39497E-24
4.23443E-02 4.20639E-24
4.32273E-02 4.02767E-24
4.41190E-02 3.85821E-24
4.50194E-02 3.69744E-24
4.59284E-02 3.54484E-24
4.68461E-02 3.39991E-24
4.87074E-02 3.13129E-24
5.06030E-02 2.88830E-24
5.25328E-02 2.66807E-24
5.44967E-02 2.46813E-24
5.64946E-02 2.28627E-24
5.85262E-02 2.12059E-24
6.05914E-02 1.96940E-24
6.26901E-02 1.83122E-24
6.48222E-02 1.70474E-24
6.69873E-02 1.58880E-24
6.91854E-02 1.48237E-24
7.14163E-02 1.38454E-24
7.36799E-02 1.29450E-24
7.59760E-02 1.21151E-24
7.83043E-02 1.13494E-24
8.06647E-02 1.06420E-24
8.30571E-02 9.98768E-25
8.54812E-02 9.38184E-25
8.79369E-02 8.82025E-25
9.04240E-02 8.29913E-25
9.29422E-02 7.81505E-25
9.54915E-02 7.36495E-25
9.80716E-02 6.94602E-25
1.00682E-01 6.55574E-25
1.03323E-01 6.19182E-25
1.05995E-01 5.85216E-25
1.08696E-01 5.53489E-25
1.11427E-01 5.23826E-25
1.14188E-01 4.96072E-25
1.16978E-01 4.70082E-25
1.19797E-01 4.45724E-25
1.22645E-01 4.22880E-25
1.25522E-01 4.01439E-25
1.28428E-01 3.81299E-25
1.31361E-01 3.62370E-25
1.34323E-01 3.44565E-25
1.37313E-01 3.27806E-25
1.40330E-01 3.12023E-25
1.43375E-01 2.97147E-25
1.46447E-01 2.83119E-25
1.49545E-01 2.69881E-25
1.52671E-01 2.57382E-25
1.55823E-01 2.45574E-25
1.59001E-01 2.34411E-25
1.62205E-01 2.23854E-25
1.65435E-01 2.13862E-25
1.68690E-01 2.04402E-25
1.71970E-01 1.95439E-25
1.75276E-01 1.86944E-25
1.78606E-01 1.78887E-25
1.81961E-01 1.71243E-25
1.85340E-01 1.63987E-25
1.88743E-01 1.57096E-25
1.92169E-01 1.50548E-25
1.95619E-01 1.44323E-25
1.99092E-01 1.38404E-25
2.02589E-01 1.32771E-25
2.06107E-01 1.27410E-25
2.09649E-01 1.22305E-25
2.13212E-01 1.17442E-25
2.16797E-01 1.12807E-25
2.20404E-01 1.08387E-25
2.24032E-01 1.04172E-25
2.27680E-01 1.00150E-25
2.31350E-01 9.63114E-26
2.35040E-01 9.26455E-26
2.38751E-01 8.91438E-26
2.42481E-01 8.57976E-26
2.46231E-01 8.25989E-26
2.50000E-01 7.95402E-26
2.53788E-01 7.66143E-26
2.57595E-01 7.38146E-26
2.61421E-01 7.11347E-26
2.65264E-01 6.85686E-26
2.69126E-01 6.61107E-26
2.73005E-01 6.37558E-26
2.76901E-01 6.14989E-26
2.80814E-01 5.93351E-26
2.84744E-01 5.72601E-26
2.88691E-01 5.52696E-26
2.92653E-01 5.33596E-26
2.96632E-01 5.15263E-26
3.00625E-01 4.97663E-26
3.04634E-01 4.80760E-26
3.08658E-01 4.64523E-26
3.12697E-01 4.48922E-26
3.16749E-01 4.33927E-26
3.20816E-01 4.19512E-26
3.24896E-01 4.05650E-26
3.28990E-01 3.92317E-26
3.33097E-01 3.79490E-26
3.37216E-01 3.67146E-26
3.41348E-01 3.55264E-26
3.45492E-01 3.43825E-26
3.49647E-01 3.32809E-26
3.53814E-01 3.22198E-26
3.57992E-01 3.11975E-26
3.62181E-01 3.02124E-26
3.66381E-01 2.92629E-26
3.70590E-01 2.83475E-26
3.74810E-01 2.74649E-26
3.79039E-01 2.66136E-26
3.83277E-01 2.57923E-26
3.87524E-01 2.50000E-26
3.91780E-01 2.42353E-26
3.96044E-01 2.34972E-26
4.00316E-01 2.27846E-26
4.04596E-01 2.20965E-26
4.08882E-01 2.14319E-26
4.13176E-01 2.07899E-26
4.17476E-01 2.01697E-26
4.21783E-01 1.95703E-26
4.26095E-01 1.89910E-26
4.30413E-01 1.84310E-26
4.34737E-01 1.78895E-26
4.39065E-01 1.73660E-26
4.43398E-01 1.68596E-26
4.47736E-01 1.63697E-26
4.52077E-01 1.58957E-26
4.56422E-01 1.54371E-26
4.60770E-01 1.49932E-26
4.65122E-01 1.45636E-26
4.69476E-01 1.41476E-26
4.73832E-01 1.37448E-26
4.78190E-01 1.33548E-26
4.82550E-01 1.29770E-26
4.86912E-01 1.26110E-26
4.91274E-01 1.22564E-26
4.95637E-01 1.19129E-26
5.00000E-01 1.15799E-26
5.04363E-01 1.12571E-26
5.08726E-01 1.09442E-26
5.13088E-01 1.06409E-26
5.17450E-01 1.03467E-26
5.21810E-01 1.00614E-26
5.26168E-01 9.78471E-27
5.30524E-01 9.51628E-27
5.34878E-01 9.25585E-27
5.39230E-01 9.00316E-27
5.43578E-01 8.75793E-27
5.47923E-01 8.51992E-27
5.52264E-01 8.28889E-27
5.56602E-01 8.06461E-27
5.60935E-01 7.84684E-27
5.65263E-01 7.63539E-27
5.69587E-01 7.43003E-27
5.73905E-01 7.23058E-27
5.78217E-01 7.03684E-27
5.82524E-01 6.84862E-27
5.86824E-01 6.66575E-27
5.91118E-01 6.48805E-27
5.95404E-01 6.31536E-27
5.99684E-01 6.14753E-27
6.03956E-01 5.98439E-27
6.08220E-01 5.82580E-27
6.12476E-01 5.67162E-27
6.16723E-01 5.52171E-27
6.20961E-01 5.37593E-27
6.25190E-01 5.23416E-27
6.29410E-01 5.09627E-27
6.33619E-01 4.96215E-27
6.37819E-01 4.83168E-27
6.42008E-01 4.70475E-27
6.46186E-01 4.58124E-27
6.50353E-01 4.46106E-27
6.54508E-01 4.34411E-27
6.58652E-01 4.23029E-27
6.62784E-01 4.11951E-27
6.66903E-01 4.01167E-27
6.71010E-01 3.90669E-27
6.75104E-01 3.80448E-27
6.79184E-01 3.70496E-27
6.83251E-01 3.60806E-27
6.87303E-01 3.51370E-27
6.91342E-01 3.42180E-27
6.95366E-01 3.33229E-27
6.99375E-01 3.24510E-27
7.03368E-01 3.16017E-27
7.07347E-01 3.07744E-27
7.11309E-01 2.99683E-27
7.15256E-01 2.91829E-27
7.19186E-01 2.84176E-27
7.23099E-01 2.76718E-27
7.26995E-01 2.69450E-27
7.30874E-01 2.62367E-27
7.34736E-01 2.55463E-27
7.38579E-01 2.48734E-27
7.42405E-01 2.42174E-27
7.46212E-01 2.35779E-27
7.50000E-01 2.29545E-27
7.53769E-01 2.23466E-27
7.57519E-01 2.17539E-27
7.61249E-01 2.11760E-27
7.64960E-01 2.06125E-27
7.68650E-01 2.00629E-27
7.72320E-01 1.95269E-27
7.75968E-01 1.90042E-27
7.79596E-01 1.84943E-27
7.83203E-01 1.79970E-27
7.86788E-01 1.75119E-27
7.90351E-01 1.70387E-27
7.93893E-01 1.65771E-27
7.97411E-01 1.61267E-27
8.00908E-01 1.56873E-27
8.04381E-01 1.52587E-27
8.07831E-01 1.48404E-27
8.11257E-01 1.44323E-27
8.14660E-01 1.40341E-27
8.18039E-01 1.36455E-27
8.21394E-01 1.32663E-27
8.24724E-01 1.28962E-27
8.28030E-01 1.25351E-27
8.31310E-01 1.21827E-27
8.34565E-01 1.18388E-27
8.37795E-01 1.15031E-27
8.40999E-01 1.11755E-27
8.44177E-01 1.08558E-27
8.47329E-01 1.05437E-27
8.50455E-01 1.02392E-27
8.53553E-01 9.94188E-28
8.56625E-01 9.65173E-28
8.59670E-01 9.36853E-28
8.62687E-01 9.09212E-28
8.65677E-01 8.82232E-28
8.68639E-01 8.55899E-28
8.71572E-01 8.30197E-28
8.74478E-01 8.05111E-28
8.77355E-01 7.80626E-28
8.80203E-01 7.56729E-28
8.83022E-01 7.33406E-28
8.85812E-01 7.10643E-28
8.88573E-01 6.88428E-28
8.91304E-01 6.66748E-28
8.94005E-01 6.45590E-28
8.96677E-01 6.24944E-28
8.99318E-01 6.04797E-28
9.01928E-01 5.85139E-28
9.04508E-01 5.65957E-28
9.07058E-01 5.47243E-28
9.09576E-01 5.28985E-28
9.12063E-01 5.11174E-28
9.14519E-01 4.93799E-28
9.16943E-01 4.76852E-28
9.19335E-01 4.60323E-28
9.21696E-01 4.44204E-28
9.24024E-01 4.28485E-28
9.26320E-01 4.13159E-28
9.28584E-01 3.98216E-28
9.30815E-01 3.83650E-28
9.33013E-01 3.69453E-28
9.35178E-01 3.55616E-28
9.37310E-01 3.42133E-28
9.39409E-01 3.28997E-28
9.41474E-01 3.16201E-28
9.43505E-01 3.03737E-28
9.45503E-01 2.91601E-28
9.47467E-01 2.79785E-28
9.49397E-01 2.68283E-28
9.51293E-01 2.57089E-28
9.53154E-01 2.46199E-28
9.54981E-01 2.35605E-28
9.56773E-01 2.25303E-28
9.58530E-01 2.15288E-28
9.60252E-01 2.05554E-28
9.61940E-01 1.96096E-28
9.63592E-01 1.86911E-28
9.65209E-01 1.77992E-28
9.66790E-01 1.69336E-28
9.68336E-01 1.60939E-28
9.69846E-01 1.52795E-28
9.71321E-01 1.44902E-28
9.72759E-01 1.37255E-28
9.74162E-01 1.29850E-28
9.75528E-01 1.22684E-28
9.76858E-01 1.15753E-28
9.78152E-01 1.09054E-28
9.79410E-01 1.02583E-28
9.80631E-01 9.63377E-29
9.81815E-01 9.03147E-29
9.82963E-01 8.45110E-29
9.84074E-01 7.89238E-29
9.85148E-01 7.35504E-29
9.86185E-01 6.83881E-29
9.87185E-01 6.34346E-29
9.88148E-01 5.86873E-29
9.89074E-01 5.41441E-29
9.89962E-01 4.98026E-29
9.90814E-01 4.56608E-29
9.91627E-01 4.17167E-29
9.92404E-01 3.79685E-29
9.93143E-01 3.44143E-29
9.93844E-01 3.10524E-29
9.94508E-01 2.78812E-29
9.95134E-01 2.48992E-29
9.95722E-01 2.21050E-29
9.96273E-01 1.94972E-29
9.96786E-01 1.70746E-29
9.97261E-01 1.48361E-29
9.97698E-01 1.27805E-29
9.98097E-01 1.09069E-29
9.98459E-01 9.21444E-30
9.98782E-01 7.70227E-30
9.99067E-01 6.36968E-30
9.99315E-01 5.21605E-30
9.99524E-01 4.24082E-30
9.99695E-01 3.44354E-30
9.99829E-01 2.82382E-30
9.99924E-01 2.38137E-30
9.99981E-01 2.11599E-30
1.00000E+00 2.02754E-30
