 #
 # Subroutine ELSEPA. Elastic scattering of electrons and positrons
 #                    by neutral atoms and positive ions
 #
 # Projectile: positron
 # Kinetic energy = 2.50000E+08 eV = 9.18733E+06 a.u.
 #
 # WARNING: High-energy factorization with free-atom DF screening.
 #          Absorption, polarization and exchange corrections are
 #          switched off.
 #          Phase shifts are calculated for the bare nucleus.
 #          Scattering amplitudes are not evaluated.
 #
 # Element: Zr,  Z =  40,  atomic weight = 9.12240E+01 g/mol
 #
 # Nuclear model: Fermi distribution
 #                Average radius = 4.81674E-13 cm
 #                Skin thickness = 5.46000E-14 cm
 #
 # Number of electrons = 40
 #
 # Total elastic cross section = 4.06662E-18 cm**2 = 1.45222E-01 a0**2
 # 1st transport cross section = 5.06789E-26 cm**2 = 1.80978E-09 a0**2
 # 2nd transport cross section = 1.51773E-25 cm**2 = 5.41990E-09 a0**2
 #
 #
 # Differential cross section:                       MU=(1-COS(THETA))/2
 #
 #  THETA        MU          DCS          DCS        Sherman      error
 #  (deg)                 (cm**2/sr)   (a0**2/sr)    function
 #----------------------------------------------------------------------
0.00000E+00 3.49276E-09
7.61557E-13 3.40479E-09
1.18994E-12 3.35685E-09
1.71346E-12 3.29970E-09
2.33225E-12 3.23409E-09
3.04617E-12 3.16093E-09
3.85530E-12 3.08113E-09
4.75964E-12 2.99567E-09
5.75917E-12 2.90549E-09
6.85391E-12 2.81165E-09
8.04379E-12 2.71498E-09
9.32893E-12 2.61654E-09
1.07092E-11 2.51700E-09
1.21847E-11 2.41731E-09
1.37554E-11 2.31803E-09
1.54213E-11 2.21986E-09
1.71823E-11 2.12336E-09
1.90386E-11 2.02887E-09
2.09900E-11 1.93700E-09
2.30367E-11 1.84772E-09
2.51785E-11 1.76173E-09
2.74156E-11 1.67868E-09
2.97478E-11 1.59923E-09
3.21752E-11 1.52296E-09
3.46979E-11 1.45027E-09
3.73157E-11 1.38090E-09
4.00286E-11 1.31494E-09
4.28368E-11 1.25230E-09
4.57402E-11 1.19282E-09
4.87388E-11 1.13655E-09
5.18325E-11 1.08316E-09
5.50215E-11 1.03280E-09
5.83057E-11 9.85044E-10
6.16850E-11 9.40051E-10
6.51595E-11 8.97438E-10
6.87293E-11 8.57245E-10
7.23943E-11 8.19242E-10
7.61544E-11 7.83350E-10
1.18991E-10 5.15661E-10
1.71347E-10 3.56362E-10
2.33223E-10 2.55368E-10
3.04617E-10 1.87721E-10
3.85531E-10 1.40132E-10
4.75965E-10 1.06178E-10
5.75917E-10 8.30581E-11
6.85389E-10 6.49042E-11
8.04380E-10 5.20194E-11
9.32891E-10 4.19744E-11
1.07092E-09 3.44522E-11
1.21847E-09 2.85557E-11
1.37554E-09 2.39483E-11
1.54213E-09 2.02772E-11
1.71823E-09 1.73022E-11
1.90386E-09 1.48960E-11
2.09900E-09 1.28770E-11
2.30367E-09 1.12289E-11
2.51785E-09 9.80077E-12
2.74156E-09 8.62315E-12
2.97478E-09 7.58757E-12
3.21752E-09 6.71692E-12
3.46978E-09 5.95306E-12
3.73156E-09 5.29614E-12
4.00286E-09 4.72218E-12
4.28368E-09 4.21938E-12
4.57402E-09 3.78165E-12
4.87388E-09 3.39281E-12
5.18326E-09 3.05486E-12
5.50215E-09 2.75169E-12
5.83057E-09 2.48772E-12
6.16850E-09 2.25004E-12
6.51596E-09 2.04139E-12
6.87293E-09 1.85440E-12
7.23942E-09 1.68847E-12
7.61544E-09 1.54005E-12
1.18991E-08 6.75813E-13
1.71347E-08 3.43526E-13
2.33223E-08 1.93992E-13
3.04617E-08 1.18097E-13
3.85531E-08 7.59083E-14
4.75965E-08 5.09509E-14
5.75917E-08 3.54059E-14
6.85389E-08 2.53283E-14
8.04380E-08 1.85749E-14
9.32891E-08 1.39198E-14
1.07092E-07 1.06298E-14
1.21847E-07 8.25510E-15
1.37554E-07 6.50771E-15
1.54213E-07 5.19922E-15
1.71823E-07 4.20394E-15
1.90386E-07 3.43611E-15
2.09900E-07 2.83611E-15
2.30367E-07 2.36168E-15
2.51785E-07 1.98260E-15
2.74156E-07 1.67673E-15
2.97478E-07 1.42773E-15
3.21752E-07 1.22335E-15
3.46978E-07 1.05431E-15
3.73156E-07 9.13517E-16
4.00286E-07 7.95468E-16
4.28368E-07 6.95894E-16
4.57402E-07 6.11433E-16
4.87388E-07 5.39409E-16
5.18325E-07 4.77686E-16
5.50215E-07 4.24545E-16
5.83057E-07 3.78590E-16
6.16850E-07 3.38684E-16
6.51596E-07 3.03897E-16
6.87293E-07 2.73461E-16
7.23942E-07 2.46740E-16
7.61543E-07 2.23202E-16
1.18991E-06 9.20976E-17
1.71347E-06 4.45963E-17
2.33223E-06 2.41294E-17
3.04617E-06 1.41646E-17
3.85531E-06 8.85089E-18
4.75964E-06 5.81039E-18
5.75916E-06 3.97002E-18
6.85388E-06 2.80374E-18
8.04378E-06 2.03585E-18
9.32888E-06 1.51369E-18
1.07092E-05 1.14866E-18
1.21846E-05 8.87303E-19
1.37553E-05 6.96207E-19
1.54212E-05 5.53883E-19
1.71822E-05 4.46129E-19
1.90385E-05 3.63280E-19
2.09899E-05 2.98909E-19
2.30365E-05 2.48168E-19
2.51783E-05 2.07728E-19
2.74153E-05 1.75180E-19
2.97475E-05 1.48753E-19
3.21749E-05 1.27125E-19
3.46974E-05 1.09291E-19
3.73152E-05 9.44814E-20
4.00281E-05 8.21008E-20
4.28362E-05 7.16846E-20
4.57395E-05 6.28684E-20
4.87380E-05 5.53649E-20
5.18317E-05 4.89462E-20
5.50205E-05 4.34295E-20
5.83045E-05 3.86678E-20
6.16838E-05 3.45410E-20
6.51582E-05 3.09506E-20
6.87277E-05 2.78152E-20
7.23925E-05 2.50673E-20
7.61524E-05 2.26621E-20
9.21439E-05 1.54690E-20
1.09658E-04 1.09147E-20
1.28695E-04 7.91905E-21
1.49255E-04 5.88305E-21
1.71338E-04 4.46088E-21
1.94942E-04 3.44306E-21
2.20070E-04 2.69932E-21
2.46720E-04 2.14570E-21
2.74892E-04 1.72674E-21
3.04586E-04 1.40504E-21
3.35803E-04 1.15471E-21
3.68542E-04 9.57604E-22
4.02802E-04 8.00698E-22
4.38585E-04 6.74554E-22
4.75889E-04 5.72222E-22
5.14715E-04 4.88505E-22
5.55063E-04 4.19495E-22
5.96931E-04 3.62197E-22
6.40321E-04 3.14310E-22
6.85233E-04 2.74042E-22
7.31665E-04 2.39984E-22
7.79618E-04 2.11026E-22
8.29092E-04 1.86278E-22
8.80086E-04 1.65030E-22
9.32601E-04 1.46704E-22
9.86636E-04 1.30834E-22
1.04219E-03 1.17034E-22
1.09927E-03 1.04991E-22
1.15786E-03 9.44434E-23
1.21797E-03 8.51746E-23
1.27961E-03 7.70036E-23
1.34276E-03 6.97785E-23
1.40743E-03 6.33715E-23
1.47362E-03 5.76743E-23
1.54133E-03 5.25950E-23
1.61056E-03 4.80552E-23
1.68131E-03 4.39879E-23
1.75357E-03 4.03357E-23
1.82735E-03 3.70489E-23
1.90265E-03 3.40848E-23
1.97947E-03 3.14064E-23
2.05780E-03 2.89813E-23
2.13765E-03 2.67816E-23
2.21902E-03 2.47828E-23
2.30190E-03 2.29633E-23
2.38630E-03 2.13044E-23
2.47222E-03 1.97895E-23
2.55965E-03 1.84039E-23
2.64859E-03 1.71348E-23
2.73905E-03 1.59706E-23
2.83103E-03 1.49012E-23
2.92452E-03 1.39176E-23
3.01952E-03 1.30118E-23
3.11604E-03 1.21764E-23
3.21407E-03 1.14053E-23
3.31362E-03 1.06924E-23
3.41468E-03 1.00328E-23
3.51725E-03 9.42173E-24
3.62133E-03 8.85504E-24
3.72692E-03 8.32896E-24
3.83403E-03 7.84010E-24
3.94265E-03 7.38537E-24
4.05278E-03 6.96200E-24
4.16442E-03 6.56746E-24
4.27757E-03 6.19946E-24
4.39223E-03 5.85591E-24
4.50840E-03 5.53492E-24
4.62608E-03 5.23476E-24
4.74527E-03 4.95386E-24
4.86597E-03 4.69078E-24
4.98817E-03 4.44419E-24
5.11188E-03 4.21290E-24
5.23711E-03 3.99580E-24
5.36383E-03 3.79187E-24
5.49207E-03 3.60019E-24
5.62181E-03 3.41990E-24
5.75306E-03 3.25021E-24
5.88581E-03 3.09041E-24
6.02007E-03 2.93981E-24
6.15583E-03 2.79781E-24
6.29310E-03 2.66383E-24
6.43187E-03 2.53735E-24
6.57214E-03 2.41788E-24
6.71392E-03 2.30497E-24
6.85720E-03 2.19821E-24
7.00198E-03 2.09720E-24
7.14827E-03 2.00159E-24
7.29605E-03 1.91105E-24
7.44534E-03 1.82525E-24
7.59612E-03 1.74392E-24
7.97965E-03 1.55842E-24
8.37255E-03 1.39548E-24
8.77480E-03 1.25197E-24
9.18641E-03 1.12525E-24
9.60736E-03 1.01310E-24
1.00376E-02 9.13598E-25
1.04773E-02 8.25140E-25
1.09262E-02 7.46333E-25
1.13844E-02 6.75986E-25
1.18520E-02 6.13073E-25
1.23288E-02 5.56707E-25
1.28150E-02 5.06121E-25
1.33104E-02 4.60649E-25
1.38150E-02 4.19709E-25
1.43290E-02 3.82795E-25
1.48521E-02 3.49464E-25
1.53845E-02 3.19328E-25
1.59262E-02 2.92045E-25
1.64770E-02 2.67313E-25
1.70371E-02 2.44869E-25
1.76063E-02 2.24477E-25
1.81848E-02 2.05929E-25
1.87724E-02 1.89041E-25
1.93692E-02 1.73650E-25
1.99751E-02 1.59608E-25
2.05901E-02 1.46787E-25
2.12143E-02 1.35070E-25
2.18476E-02 1.24352E-25
2.24900E-02 1.14542E-25
2.31415E-02 1.05554E-25
2.38021E-02 9.73147E-26
2.44717E-02 8.97557E-26
2.51504E-02 8.28163E-26
2.58382E-02 7.64417E-26
2.65349E-02 7.05824E-26
2.72407E-02 6.51935E-26
2.79555E-02 6.02345E-26
2.86793E-02 5.56686E-26
2.94120E-02 5.14627E-26
3.01537E-02 4.75864E-26
3.09043E-02 4.40123E-26
3.16639E-02 4.07153E-26
3.24324E-02 3.76728E-26
3.32098E-02 3.48639E-26
3.39961E-02 3.22697E-26
3.47912E-02 2.98731E-26
3.55952E-02 2.76581E-26
3.64081E-02 2.56105E-26
3.72297E-02 2.37169E-26
3.80602E-02 2.19654E-26
3.88995E-02 2.03447E-26
3.97476E-02 1.88449E-26
4.06044E-02 1.74565E-26
4.14700E-02 1.61710E-26
4.23443E-02 1.49805E-26
4.32273E-02 1.38779E-26
4.41190E-02 1.28564E-26
4.50194E-02 1.19100E-26
4.59284E-02 1.10330E-26
4.68461E-02 1.02202E-26
4.87074E-02 8.76856E-27
5.06030E-02 7.52106E-27
5.25328E-02 6.44873E-27
5.44967E-02 5.52685E-27
5.64946E-02 4.73428E-27
5.85262E-02 4.05293E-27
6.05914E-02 3.46729E-27
6.26901E-02 2.96404E-27
6.48222E-02 2.53175E-27
6.69873E-02 2.16057E-27
6.91854E-02 1.84204E-27
7.14163E-02 1.56887E-27
7.36799E-02 1.33476E-27
7.59760E-02 1.13430E-27
7.83043E-02 9.62814E-28
8.06647E-02 8.16255E-28
8.30571E-02 6.91141E-28
8.54812E-02 5.84464E-28
8.79369E-02 4.93627E-28
9.04240E-02 4.16386E-28
9.29422E-02 3.50806E-28
9.54915E-02 2.95216E-28
9.80716E-02 2.48176E-28
1.00682E-01 2.08444E-28
1.03323E-01 1.74949E-28
1.05995E-01 1.46771E-28
1.08696E-01 1.23115E-28
1.11427E-01 1.03300E-28
1.14188E-01 8.67424E-29
1.16978E-01 7.29391E-29
1.19797E-01 6.14606E-29
1.22645E-01 5.19395E-29
1.25522E-01 4.40617E-29
1.28428E-01 3.75598E-29
1.31361E-01 3.22063E-29
1.34323E-01 2.78078E-29
1.37313E-01 2.42008E-29
1.40330E-01 2.12471E-29
1.43375E-01 1.88301E-29
1.46447E-01 1.68521E-29
1.49545E-01 1.52313E-29
1.52671E-01 1.38993E-29
1.55823E-01 1.27996E-29
1.59001E-01 1.18852E-29
1.62205E-01 1.11176E-29
1.65435E-01 1.04655E-29
1.68690E-01 9.90312E-30
1.71970E-01 9.40997E-30
1.75276E-01 8.96960E-30
1.78606E-01 8.56898E-30
1.81961E-01 8.19799E-30
1.85340E-01 7.84883E-30
1.88743E-01 7.51560E-30
1.92169E-01 7.19399E-30
1.95619E-01 6.88092E-30
1.99092E-01 6.57431E-30
2.02589E-01 6.27285E-30
2.06107E-01 5.97585E-30
2.09649E-01 5.68304E-30
2.13212E-01 5.39452E-30
2.16797E-01 5.11060E-30
2.20404E-01 4.83176E-30
2.24032E-01 4.55857E-30
2.27680E-01 4.29165E-30
2.31350E-01 4.03161E-30
2.35040E-01 3.77904E-30
2.38751E-01 3.53449E-30
2.42481E-01 3.29845E-30
2.46231E-01 3.07135E-30
2.50000E-01 2.85351E-30
2.53788E-01 2.64522E-30
2.57595E-01 2.44664E-30
2.61421E-01 2.25790E-30
2.65264E-01 2.07904E-30
2.69126E-01 1.91003E-30
2.73005E-01 1.75077E-30
2.76901E-01 1.60113E-30
2.80814E-01 1.46092E-30
2.84744E-01 1.32989E-30
2.88691E-01 1.20778E-30
2.92653E-01 1.09429E-30
2.96632E-01 9.89083E-31
3.00625E-01 8.91816E-31
3.04634E-01 8.02128E-31
3.08658E-01 7.19647E-31
3.12697E-01 6.43996E-31
3.16749E-01 5.74794E-31
3.20816E-01 5.11663E-31
3.24896E-01 4.54228E-31
3.28990E-01 4.02121E-31
3.33097E-01 3.54981E-31
3.37216E-01 3.12460E-31
3.41348E-01 2.74218E-31
3.45492E-01 2.39931E-31
3.49647E-01 2.09289E-31
3.53814E-01 1.81993E-31
3.57992E-01 1.57764E-31
3.62181E-01 1.36334E-31
3.66381E-01 1.17453E-31
3.70590E-01 1.00885E-31
3.74810E-01 8.64099E-32
3.79039E-01 7.38215E-32
3.83277E-01 6.29288E-32
3.87524E-01 5.35549E-32
3.91780E-01 4.55359E-32
3.96044E-01 3.87215E-32
4.00316E-01 3.29732E-32
4.04596E-01 2.81647E-32
4.08882E-01 2.41806E-32
4.13176E-01 2.09162E-32
4.17476E-01 1.82765E-32
4.21783E-01 1.61757E-32
4.26095E-01 1.45369E-32
4.30413E-01 1.32910E-32
4.34737E-01 1.23762E-32
4.39065E-01 1.17378E-32
4.43398E-01 1.13272E-32
4.47736E-01 1.11018E-32
4.52077E-01 1.10241E-32
4.56422E-01 1.10614E-32
4.60770E-01 1.11854E-32
4.65122E-01 1.13719E-32
4.69476E-01 1.16000E-32
4.73832E-01 1.18523E-32
4.78190E-01 1.21139E-32
4.82550E-01 1.23727E-32
4.86912E-01 1.26188E-32
4.91274E-01 1.28442E-32
4.95637E-01 1.30429E-32
5.00000E-01 1.32101E-32
5.04363E-01 1.33426E-32
5.08726E-01 1.34381E-32
5.13088E-01 1.34955E-32
5.17450E-01 1.35143E-32
5.21810E-01 1.34948E-32
5.26168E-01 1.34380E-32
5.30524E-01 1.33452E-32
5.34878E-01 1.32181E-32
5.39230E-01 1.30588E-32
5.43578E-01 1.28693E-32
5.47923E-01 1.26522E-32
5.52264E-01 1.24099E-32
5.56602E-01 1.21449E-32
5.60935E-01 1.18598E-32
5.65263E-01 1.15570E-32
5.69587E-01 1.12391E-32
5.73905E-01 1.09084E-32
5.78217E-01 1.05673E-32
5.82524E-01 1.02178E-32
5.86824E-01 9.86227E-33
5.91118E-01 9.50247E-33
5.95404E-01 9.14027E-33
5.99684E-01 8.77736E-33
6.03956E-01 8.41531E-33
6.08220E-01 8.05552E-33
6.12476E-01 7.69930E-33
6.16723E-01 7.34780E-33
6.20961E-01 7.00206E-33
6.25190E-01 6.66299E-33
6.29410E-01 6.33139E-33
6.33619E-01 6.00796E-33
6.37819E-01 5.69327E-33
6.42008E-01 5.38782E-33
6.46186E-01 5.09200E-33
6.50353E-01 4.80614E-33
6.54508E-01 4.53047E-33
6.58652E-01 4.26514E-33
6.62784E-01 4.01026E-33
6.66903E-01 3.76587E-33
6.71010E-01 3.53196E-33
6.75104E-01 3.30845E-33
6.79184E-01 3.09526E-33
6.83251E-01 2.89222E-33
6.87303E-01 2.69917E-33
6.91342E-01 2.51589E-33
6.95366E-01 2.34217E-33
6.99375E-01 2.17774E-33
7.03368E-01 2.02234E-33
7.07347E-01 1.87568E-33
7.11309E-01 1.73747E-33
7.15256E-01 1.60740E-33
7.19186E-01 1.48517E-33
7.23099E-01 1.37046E-33
7.26995E-01 1.26295E-33
7.30874E-01 1.16234E-33
7.34736E-01 1.06831E-33
7.38579E-01 9.80537E-34
7.42405E-01 8.98730E-34
7.46212E-01 8.22586E-34
7.50000E-01 7.51809E-34
7.53769E-01 6.86114E-34
7.57519E-01 6.25219E-34
7.61249E-01 5.68853E-34
7.64960E-01 5.16758E-34
7.68650E-01 4.68677E-34
7.72320E-01 4.24368E-34
7.75968E-01 3.83599E-34
7.79596E-01 3.46144E-34
7.83203E-01 3.11789E-34
7.86788E-01 2.80328E-34
7.90351E-01 2.51567E-34
7.93893E-01 2.25320E-34
7.97411E-01 2.01412E-34
8.00908E-01 1.79674E-34
8.04381E-01 1.59948E-34
8.07831E-01 1.42084E-34
8.11257E-01 1.25942E-34
8.14660E-01 1.11388E-34
8.18039E-01 9.82985E-35
8.21394E-01 8.65539E-35
8.24724E-01 7.60457E-35
8.28030E-01 6.66698E-35
8.31310E-01 5.83310E-35
8.34565E-01 5.09376E-35
8.37795E-01 4.44072E-35
8.40999E-01 3.86607E-35
8.44177E-01 3.36264E-35
8.47329E-01 2.92359E-35
8.50455E-01 2.54277E-35
8.53553E-01 2.21439E-35
8.56625E-01 1.93312E-35
8.59670E-01 1.69401E-35
8.62687E-01 1.49258E-35
8.65677E-01 1.32465E-35
8.68639E-01 1.18641E-35
8.71572E-01 1.07437E-35
8.74478E-01 9.85351E-36
8.77355E-01 9.16429E-36
8.80203E-01 8.64970E-36
8.83022E-01 8.28568E-36
8.85812E-01 8.05050E-36
8.88573E-01 7.92430E-36
8.91304E-01 7.88957E-36
8.94005E-01 7.93062E-36
8.96677E-01 8.03260E-36
8.99318E-01 8.18348E-36
9.01928E-01 8.37135E-36
9.04508E-01 8.58694E-36
9.07058E-01 8.82032E-36
9.09576E-01 9.06510E-36
9.12063E-01 9.31393E-36
9.14519E-01 9.56070E-36
9.16943E-01 9.80051E-36
9.19335E-01 1.00294E-35
9.21696E-01 1.02438E-35
9.24024E-01 1.04404E-35
9.26320E-01 1.06173E-35
9.28584E-01 1.07723E-35
9.30815E-01 1.09042E-35
9.33013E-01 1.10115E-35
9.35178E-01 1.10938E-35
9.37310E-01 1.11500E-35
9.39409E-01 1.11814E-35
9.41474E-01 1.11873E-35
9.43505E-01 1.11677E-35
9.45503E-01 1.11234E-35
9.47467E-01 1.10553E-35
9.49397E-01 1.09643E-35
9.51293E-01 1.08507E-35
9.53154E-01 1.07163E-35
9.54981E-01 1.05616E-35
9.56773E-01 1.03880E-35
9.58530E-01 1.01961E-35
9.60252E-01 9.98829E-36
9.61940E-01 9.76479E-36
9.63592E-01 9.52760E-36
9.65209E-01 9.27742E-36
9.66790E-01 9.01597E-36
9.68336E-01 8.74390E-36
9.69846E-01 8.46311E-36
9.71321E-01 8.17455E-36
9.72759E-01 7.87967E-36
9.74162E-01 7.57865E-36
9.75528E-01 7.27396E-36
9.76858E-01 6.96562E-36
9.78152E-01 6.65542E-36
9.79410E-01 6.34404E-36
9.80631E-01 6.03295E-36
9.81815E-01 5.72215E-36
9.82963E-01 5.41346E-36
9.84074E-01 5.10724E-36
9.85148E-01 4.80460E-36
9.86185E-01 4.50634E-36
9.87185E-01 4.21311E-36
9.88148E-01 3.92535E-36
9.89074E-01 3.64404E-36
9.89962E-01 3.36978E-36
9.90814E-01 3.10348E-36
9.91627E-01 2.84500E-36
9.92404E-01 2.59559E-36
9.93143E-01 2.35522E-36
9.93844E-01 2.12458E-36
9.94508E-01 1.90416E-36
9.95134E-01 1.69442E-36
9.95722E-01 1.49534E-36
9.96273E-01 1.30781E-36
9.96786E-01 1.13181E-36
9.97261E-01 9.67582E-37
9.97698E-01 8.15864E-37
9.98097E-01 6.76393E-37
9.98459E-01 5.49384E-37
9.98782E-01 4.35399E-37
9.99067E-01 3.34467E-37
9.99315E-01 2.46589E-37
9.99524E-01 1.71960E-37
9.99695E-01 1.10773E-37
9.99829E-01 6.32073E-38
9.99924E-01 2.90979E-38
9.99981E-01 8.65187E-39
1.00000E+00 1.79720E-39
