 #
 # Subroutine ELSEPA. Elastic scattering of electrons and positrons
 #                    by neutral atoms and positive ions
 #
 # Projectile: positron
 # Kinetic energy = 7.00000E+07 eV = 2.57245E+06 a.u.
 #
 # WARNING: High-energy factorization with free-atom DF screening.
 #          Absorption, polarization and exchange corrections are
 #          switched off.
 #          Phase shifts are calculated for the bare nucleus.
 #          Scattering amplitudes are not evaluated.
 #
 # Element: Zr,  Z =  40,  atomic weight = 9.12240E+01 g/mol
 #
 # Nuclear model: Fermi distribution
 #                Average radius = 4.81674E-13 cm
 #                Skin thickness = 5.46000E-14 cm
 #
 # Number of electrons = 40
 #
 # Total elastic cross section = 4.06719E-18 cm**2 = 1.45242E-01 a0**2
 # 1st transport cross section = 6.17274E-25 cm**2 = 2.20433E-08 a0**2
 # 2nd transport cross section = 1.82248E-24 cm**2 = 6.50819E-08 a0**2
 #
 #
 # Differential cross section:                       MU=(1-COS(THETA))/2
 #
 #  THETA        MU          DCS          DCS        Sherman      error
 #  (deg)                 (cm**2/sr)   (a0**2/sr)    function
 #----------------------------------------------------------------------
0.00000E+00 2.76712E-10
7.61557E-13 2.76148E-10
1.18994E-12 2.75832E-10
1.71346E-12 2.75447E-10
2.33225E-12 2.74994E-10
3.04617E-12 2.74472E-10
3.85530E-12 2.73882E-10
4.75964E-12 2.73225E-10
5.75917E-12 2.72502E-10
6.85391E-12 2.71714E-10
8.04379E-12 2.70861E-10
9.32893E-12 2.69945E-10
1.07092E-11 2.68966E-10
1.21847E-11 2.67926E-10
1.37554E-11 2.66826E-10
1.54213E-11 2.65667E-10
1.71823E-11 2.64450E-10
1.90386E-11 2.63177E-10
2.09900E-11 2.61849E-10
2.30367E-11 2.60468E-10
2.51785E-11 2.59034E-10
2.74156E-11 2.57550E-10
2.97478E-11 2.56018E-10
3.21752E-11 2.54437E-10
3.46979E-11 2.52812E-10
3.73157E-11 2.51142E-10
4.00286E-11 2.49429E-10
4.28368E-11 2.47676E-10
4.57402E-11 2.45885E-10
4.87388E-11 2.44056E-10
5.18325E-11 2.42192E-10
5.50215E-11 2.40293E-10
5.83057E-11 2.38363E-10
6.16850E-11 2.36402E-10
6.51595E-11 2.34412E-10
6.87293E-11 2.32395E-10
7.23943E-11 2.30353E-10
7.61544E-11 2.28289E-10
1.18991E-10 2.06719E-10
1.71347E-10 1.84524E-10
2.33223E-10 1.62938E-10
3.04617E-10 1.42834E-10
3.85531E-10 1.24666E-10
4.75965E-10 1.08617E-10
5.75917E-10 9.46788E-11
6.85389E-10 8.27002E-11
8.04380E-10 7.24600E-11
9.32891E-10 6.37311E-11
1.07092E-09 5.62954E-11
1.21847E-09 4.99426E-11
1.37554E-09 4.44976E-11
1.54213E-09 3.98088E-11
1.71823E-09 3.57494E-11
1.90386E-09 3.22193E-11
2.09900E-09 2.91340E-11
2.30367E-09 2.64167E-11
2.51785E-09 2.40179E-11
2.74156E-09 2.18914E-11
2.97478E-09 1.99958E-11
3.21752E-09 1.82988E-11
3.46978E-09 1.67782E-11
3.73156E-09 1.54114E-11
4.00286E-09 1.41753E-11
4.28368E-09 1.30587E-11
4.57402E-09 1.20482E-11
4.87388E-09 1.10793E-11
5.18326E-09 1.02103E-11
5.50215E-09 9.43694E-12
5.83057E-09 8.74669E-12
6.16850E-09 8.12884E-12
6.51596E-09 7.57426E-12
6.87293E-09 7.07512E-12
7.23942E-09 6.61952E-12
7.61544E-09 6.15747E-12
1.18991E-08 3.27548E-12
1.71347E-08 1.93362E-12
2.33223E-08 1.23463E-12
3.04617E-08 8.28261E-13
3.85531E-08 5.76835E-13
4.75965E-08 4.12622E-13
5.75917E-08 3.00867E-13
6.85389E-08 2.23077E-13
8.04380E-08 1.68223E-13
9.32891E-08 1.28872E-13
1.07092E-07 1.00128E-13
1.21847E-07 7.89207E-14
1.37554E-07 6.30327E-14
1.54213E-07 5.09743E-14
1.71823E-07 4.16985E-14
1.90386E-07 3.44712E-14
2.09900E-07 2.87672E-14
2.30367E-07 2.42083E-14
2.51785E-07 2.05299E-14
2.74156E-07 1.75337E-14
2.97478E-07 1.50706E-14
3.21752E-07 1.30291E-14
3.46978E-07 1.13248E-14
3.73156E-07 9.89171E-15
4.00286E-07 8.67753E-15
4.28368E-07 7.64389E-15
4.57402E-07 6.75938E-15
4.87388E-07 5.99462E-15
5.18325E-07 5.33713E-15
5.50215E-07 4.77006E-15
5.83057E-07 4.27230E-15
6.16850E-07 3.83766E-15
6.51596E-07 3.45833E-15
6.87293E-07 3.12283E-15
7.23942E-07 2.82641E-15
7.61543E-07 2.56510E-15
1.18991E-06 1.07999E-15
1.71347E-06 5.28820E-16
2.33223E-06 2.88537E-16
3.04617E-06 1.70608E-16
3.85531E-06 1.07288E-16
4.75964E-06 7.08249E-17
5.75916E-06 4.86249E-17
6.85388E-06 3.44816E-17
8.04378E-06 2.51255E-17
9.32888E-06 1.87366E-17
1.07092E-05 1.42538E-17
1.21846E-05 1.10339E-17
1.37553E-05 8.67315E-18
1.54212E-05 6.91070E-18
1.71822E-05 5.57357E-18
1.90385E-05 4.54361E-18
2.09899E-05 3.74213E-18
2.30365E-05 3.10949E-18
2.51783E-05 2.60467E-18
2.74153E-05 2.19795E-18
2.97475E-05 1.86742E-18
3.21749E-05 1.59668E-18
3.46974E-05 1.37327E-18
3.73152E-05 1.18764E-18
4.00281E-05 1.03236E-18
4.28362E-05 9.01659E-19
4.57395E-05 7.90982E-19
4.87380E-05 6.96745E-19
5.18317E-05 6.16101E-19
5.50205E-05 5.46769E-19
5.83045E-05 4.86907E-19
6.16838E-05 4.35012E-19
6.51582E-05 3.89852E-19
6.87277E-05 3.50406E-19
7.23925E-05 3.15827E-19
7.61524E-05 2.85434E-19
9.21439E-05 1.94918E-19
1.09658E-04 1.37580E-19
1.28695E-04 9.98532E-20
1.49255E-04 7.42042E-20
1.71338E-04 5.62843E-20
1.94942E-04 4.34570E-20
2.20070E-04 3.40821E-20
2.46720E-04 2.71026E-20
2.74892E-04 2.18200E-20
3.04586E-04 1.77631E-20
3.35803E-04 1.46057E-20
3.68542E-04 1.21191E-20
4.02802E-04 1.01393E-20
4.38585E-04 8.54730E-21
4.75889E-04 7.25553E-21
5.14715E-04 6.19848E-21
5.55063E-04 5.32692E-21
5.96931E-04 4.60307E-21
6.40321E-04 3.99793E-21
6.85233E-04 3.48891E-21
7.31665E-04 3.05824E-21
7.79618E-04 2.69193E-21
8.29092E-04 2.37876E-21
8.80086E-04 2.10976E-21
9.32601E-04 1.87766E-21
9.86636E-04 1.67656E-21
1.04219E-03 1.50162E-21
1.09927E-03 1.34887E-21
1.15786E-03 1.21502E-21
1.21797E-03 1.09733E-21
1.27961E-03 9.93521E-22
1.34276E-03 9.01675E-22
1.40743E-03 8.20173E-22
1.47362E-03 7.47654E-22
1.54133E-03 6.82956E-22
1.61056E-03 6.25086E-22
1.68131E-03 5.73205E-22
1.75357E-03 5.26578E-22
1.82735E-03 4.84587E-22
1.90265E-03 4.46684E-22
1.97947E-03 4.12406E-22
2.05780E-03 3.81343E-22
2.13765E-03 3.53141E-22
2.21902E-03 3.27490E-22
2.30190E-03 3.04118E-22
2.38630E-03 2.82788E-22
2.47222E-03 2.63288E-22
2.55965E-03 2.45435E-22
2.64859E-03 2.29064E-22
2.73905E-03 2.14030E-22
2.83103E-03 2.00205E-22
2.92452E-03 1.87474E-22
3.01952E-03 1.75734E-22
3.11604E-03 1.64896E-22
3.21407E-03 1.54876E-22
3.31362E-03 1.45603E-22
3.41468E-03 1.37010E-22
3.51725E-03 1.29039E-22
3.62133E-03 1.21637E-22
3.72692E-03 1.14755E-22
3.83403E-03 1.08351E-22
3.94265E-03 1.02385E-22
4.05278E-03 9.68224E-23
4.16442E-03 9.16303E-23
4.27757E-03 8.67797E-23
4.39223E-03 8.22441E-23
4.50840E-03 7.79994E-23
4.62608E-03 7.40235E-23
4.74527E-03 7.02963E-23
4.86597E-03 6.67993E-23
4.98817E-03 6.35158E-23
5.11188E-03 6.04304E-23
5.23711E-03 5.75289E-23
5.36383E-03 5.47984E-23
5.49207E-03 5.22270E-23
5.62181E-03 4.98036E-23
5.75306E-03 4.75182E-23
5.88581E-03 4.53616E-23
6.02007E-03 4.33251E-23
6.15583E-03 4.14008E-23
6.29310E-03 3.95814E-23
6.43187E-03 3.78601E-23
6.57214E-03 3.62307E-23
6.71392E-03 3.46873E-23
6.85720E-03 3.32247E-23
7.00198E-03 3.18377E-23
7.14827E-03 3.05218E-23
7.29605E-03 2.92726E-23
7.44534E-03 2.80862E-23
7.59612E-03 2.69588E-23
7.97965E-03 2.43762E-23
8.37255E-03 2.20931E-23
8.77480E-03 2.00689E-23
9.18641E-03 1.82694E-23
9.60736E-03 1.66653E-23
1.00376E-02 1.52318E-23
1.04773E-02 1.39477E-23
1.09262E-02 1.27948E-23
1.13844E-02 1.17573E-23
1.18520E-02 1.08218E-23
1.23288E-02 9.97649E-24
1.28150E-02 9.21118E-24
1.33104E-02 8.51701E-24
1.38150E-02 7.88623E-24
1.43290E-02 7.31204E-24
1.48521E-02 6.78850E-24
1.53845E-02 6.31037E-24
1.59262E-02 5.87303E-24
1.64770E-02 5.47239E-24
1.70371E-02 5.10485E-24
1.76063E-02 4.76720E-24
1.81848E-02 4.45658E-24
1.87724E-02 4.17046E-24
1.93692E-02 3.90656E-24
1.99751E-02 3.66287E-24
2.05901E-02 3.43756E-24
2.12143E-02 3.22902E-24
2.18476E-02 3.03577E-24
2.24900E-02 2.85650E-24
2.31415E-02 2.69002E-24
2.38021E-02 2.53526E-24
2.44717E-02 2.39126E-24
2.51504E-02 2.25713E-24
2.58382E-02 2.13208E-24
2.65349E-02 2.01540E-24
2.72407E-02 1.90641E-24
2.79555E-02 1.80454E-24
2.86793E-02 1.70923E-24
2.94120E-02 1.61998E-24
3.01537E-02 1.53635E-24
3.09043E-02 1.45792E-24
3.16639E-02 1.38430E-24
3.24324E-02 1.31516E-24
3.32098E-02 1.25018E-24
3.39961E-02 1.18906E-24
3.47912E-02 1.13153E-24
3.55952E-02 1.07734E-24
3.64081E-02 1.02627E-24
3.72297E-02 9.78108E-25
3.80602E-02 9.32658E-25
3.88995E-02 8.89742E-25
3.97476E-02 8.49194E-25
4.06044E-02 8.10861E-25
4.14700E-02 7.74601E-25
4.23443E-02 7.40284E-25
4.32273E-02 7.07786E-25
4.41190E-02 6.76996E-25
4.50194E-02 6.47807E-25
4.59284E-02 6.20123E-25
4.68461E-02 5.93853E-25
4.87074E-02 5.45222E-25
5.06030E-02 5.01305E-25
5.25328E-02 4.61572E-25
5.44967E-02 4.25560E-25
5.64946E-02 3.92866E-25
5.85262E-02 3.63136E-25
6.05914E-02 3.36058E-25
6.26901E-02 3.11358E-25
6.48222E-02 2.88795E-25
6.69873E-02 2.68154E-25
6.91854E-02 2.49246E-25
7.14163E-02 2.31903E-25
7.36799E-02 2.15975E-25
7.59760E-02 2.01328E-25
7.83043E-02 1.87844E-25
8.06647E-02 1.75416E-25
8.30571E-02 1.63948E-25
8.54812E-02 1.53355E-25
8.79369E-02 1.43560E-25
9.04240E-02 1.34493E-25
9.29422E-02 1.26093E-25
9.54915E-02 1.18302E-25
9.80716E-02 1.11070E-25
1.00682E-01 1.04351E-25
1.03323E-01 9.81026E-26
1.05995E-01 9.22874E-26
1.08696E-01 8.68707E-26
1.11427E-01 8.18211E-26
1.14188E-01 7.71102E-26
1.16978E-01 7.27120E-26
1.19797E-01 6.86025E-26
1.22645E-01 6.47601E-26
1.25522E-01 6.11650E-26
1.28428E-01 5.77989E-26
1.31361E-01 5.46452E-26
1.34323E-01 5.16886E-26
1.37313E-01 4.89149E-26
1.40330E-01 4.63114E-26
1.43375E-01 4.38660E-26
1.46447E-01 4.15679E-26
1.49545E-01 3.94069E-26
1.52671E-01 3.73738E-26
1.55823E-01 3.54599E-26
1.59001E-01 3.36573E-26
1.62205E-01 3.19587E-26
1.65435E-01 3.03572E-26
1.68690E-01 2.88465E-26
1.71970E-01 2.74209E-26
1.75276E-01 2.60748E-26
1.78606E-01 2.48034E-26
1.81961E-01 2.36018E-26
1.85340E-01 2.24658E-26
1.88743E-01 2.13913E-26
1.92169E-01 2.03745E-26
1.95619E-01 1.94121E-26
1.99092E-01 1.85006E-26
2.02589E-01 1.76371E-26
2.06107E-01 1.68187E-26
2.09649E-01 1.60428E-26
2.13212E-01 1.53068E-26
2.16797E-01 1.46086E-26
2.20404E-01 1.39459E-26
2.24032E-01 1.33167E-26
2.27680E-01 1.27190E-26
2.31350E-01 1.21512E-26
2.35040E-01 1.16116E-26
2.38751E-01 1.10986E-26
2.42481E-01 1.06107E-26
2.46231E-01 1.01465E-26
2.50000E-01 9.70487E-27
2.53788E-01 9.28447E-27
2.57595E-01 8.88420E-27
2.61421E-01 8.50297E-27
2.65264E-01 8.13979E-27
2.69126E-01 7.79371E-27
2.73005E-01 7.46383E-27
2.76901E-01 7.14931E-27
2.80814E-01 6.84936E-27
2.84744E-01 6.56323E-27
2.88691E-01 6.29022E-27
2.92653E-01 6.02967E-27
2.96632E-01 5.78093E-27
3.00625E-01 5.54343E-27
3.04634E-01 5.31661E-27
3.08658E-01 5.09993E-27
3.12697E-01 4.89289E-27
3.16749E-01 4.69503E-27
3.20816E-01 4.50589E-27
3.24896E-01 4.32505E-27
3.28990E-01 4.15212E-27
3.33097E-01 3.98671E-27
3.37216E-01 3.82846E-27
3.41348E-01 3.67704E-27
3.45492E-01 3.53212E-27
3.49647E-01 3.39339E-27
3.53814E-01 3.26057E-27
3.57992E-01 3.13339E-27
3.62181E-01 3.01157E-27
3.66381E-01 2.89487E-27
3.70590E-01 2.78307E-27
3.74810E-01 2.67593E-27
3.79039E-01 2.57324E-27
3.83277E-01 2.47480E-27
3.87524E-01 2.38042E-27
3.91780E-01 2.28992E-27
3.96044E-01 2.20312E-27
4.00316E-01 2.11986E-27
4.04596E-01 2.03998E-27
4.08882E-01 1.96334E-27
4.13176E-01 1.88979E-27
4.17476E-01 1.81920E-27
4.21783E-01 1.75143E-27
4.26095E-01 1.68637E-27
4.30413E-01 1.62390E-27
4.34737E-01 1.56390E-27
4.39065E-01 1.50628E-27
4.43398E-01 1.45092E-27
4.47736E-01 1.39774E-27
4.52077E-01 1.34664E-27
4.56422E-01 1.29753E-27
4.60770E-01 1.25033E-27
4.65122E-01 1.20496E-27
4.69476E-01 1.16134E-27
4.73832E-01 1.11940E-27
4.78190E-01 1.07908E-27
4.82550E-01 1.04030E-27
4.86912E-01 1.00299E-27
4.91274E-01 9.67112E-28
4.95637E-01 9.32592E-28
5.00000E-01 8.99377E-28
5.04363E-01 8.67416E-28
5.08726E-01 8.36658E-28
5.13088E-01 8.07053E-28
5.17450E-01 7.78557E-28
5.21810E-01 7.51123E-28
5.26168E-01 7.24710E-28
5.30524E-01 6.99277E-28
5.34878E-01 6.74786E-28
5.39230E-01 6.51198E-28
5.43578E-01 6.28479E-28
5.47923E-01 6.06594E-28
5.52264E-01 5.85510E-28
5.56602E-01 5.65197E-28
5.60935E-01 5.45623E-28
5.65263E-01 5.26761E-28
5.69587E-01 5.08583E-28
5.73905E-01 4.91062E-28
5.78217E-01 4.74173E-28
5.82524E-01 4.57892E-28
5.86824E-01 4.42195E-28
5.91118E-01 4.27060E-28
5.95404E-01 4.12466E-28
5.99684E-01 3.98393E-28
6.03956E-01 3.84819E-28
6.08220E-01 3.71727E-28
6.12476E-01 3.59099E-28
6.16723E-01 3.46916E-28
6.20961E-01 3.35163E-28
6.25190E-01 3.23823E-28
6.29410E-01 3.12881E-28
6.33619E-01 3.02321E-28
6.37819E-01 2.92131E-28
6.42008E-01 2.82295E-28
6.46186E-01 2.72802E-28
6.50353E-01 2.63638E-28
6.54508E-01 2.54791E-28
6.58652E-01 2.46249E-28
6.62784E-01 2.38003E-28
6.66903E-01 2.30039E-28
6.71010E-01 2.22350E-28
6.75104E-01 2.14923E-28
6.79184E-01 2.07751E-28
6.83251E-01 2.00824E-28
6.87303E-01 1.94132E-28
6.91342E-01 1.87668E-28
6.95366E-01 1.81423E-28
6.99375E-01 1.75389E-28
7.03368E-01 1.69559E-28
7.07347E-01 1.63926E-28
7.11309E-01 1.58482E-28
7.15256E-01 1.53222E-28
7.19186E-01 1.48137E-28
7.23099E-01 1.43223E-28
7.26995E-01 1.38473E-28
7.30874E-01 1.33882E-28
7.34736E-01 1.29443E-28
7.38579E-01 1.25151E-28
7.42405E-01 1.21002E-28
7.46212E-01 1.16991E-28
7.50000E-01 1.13111E-28
7.53769E-01 1.09360E-28
7.57519E-01 1.05733E-28
7.61249E-01 1.02224E-28
7.64960E-01 9.88310E-29
7.68650E-01 9.55489E-29
7.72320E-01 9.23742E-29
7.75968E-01 8.93032E-29
7.79596E-01 8.63322E-29
7.83203E-01 8.34580E-29
7.86788E-01 8.06772E-29
7.90351E-01 7.79866E-29
7.93893E-01 7.53831E-29
7.97411E-01 7.28639E-29
8.00908E-01 7.04261E-29
8.04381E-01 6.80669E-29
8.07831E-01 6.57836E-29
8.11257E-01 6.35738E-29
8.14660E-01 6.14349E-29
8.18039E-01 5.93647E-29
8.21394E-01 5.73607E-29
8.24724E-01 5.54208E-29
8.28030E-01 5.35429E-29
8.31310E-01 5.17249E-29
8.34565E-01 4.99648E-29
8.37795E-01 4.82608E-29
8.40999E-01 4.66109E-29
8.44177E-01 4.50133E-29
8.47329E-01 4.34665E-29
8.50455E-01 4.19686E-29
8.53553E-01 4.05182E-29
8.56625E-01 3.91136E-29
8.59670E-01 3.77533E-29
8.62687E-01 3.64360E-29
8.65677E-01 3.51603E-29
8.68639E-01 3.39247E-29
8.71572E-01 3.27281E-29
8.74478E-01 3.15691E-29
8.77355E-01 3.04465E-29
8.80203E-01 2.93592E-29
8.83022E-01 2.83061E-29
8.85812E-01 2.72860E-29
8.88573E-01 2.62980E-29
8.91304E-01 2.53409E-29
8.94005E-01 2.44139E-29
8.96677E-01 2.35160E-29
8.99318E-01 2.26462E-29
9.01928E-01 2.18037E-29
9.04508E-01 2.09877E-29
9.07058E-01 2.01972E-29
9.09576E-01 1.94316E-29
9.12063E-01 1.86900E-29
9.14519E-01 1.79718E-29
9.16943E-01 1.72761E-29
9.19335E-01 1.66024E-29
9.21696E-01 1.59499E-29
9.24024E-01 1.53179E-29
9.26320E-01 1.47060E-29
9.28584E-01 1.41134E-29
9.30815E-01 1.35396E-29
9.33013E-01 1.29840E-29
9.35178E-01 1.24461E-29
9.37310E-01 1.19254E-29
9.39409E-01 1.14214E-29
9.41474E-01 1.09335E-29
9.43505E-01 1.04613E-29
9.45503E-01 1.00043E-29
9.47467E-01 9.56216E-30
9.49397E-01 9.13440E-30
9.51293E-01 8.72061E-30
9.53154E-01 8.32040E-30
9.54981E-01 7.93339E-30
9.56773E-01 7.55921E-30
9.58530E-01 7.19751E-30
9.60252E-01 6.84794E-30
9.61940E-01 6.51018E-30
9.63592E-01 6.18390E-30
9.65209E-01 5.86881E-30
9.66790E-01 5.56460E-30
9.68336E-01 5.27099E-30
9.69846E-01 4.98772E-30
9.71321E-01 4.71450E-30
9.72759E-01 4.45110E-30
9.74162E-01 4.19726E-30
9.75528E-01 3.95276E-30
9.76858E-01 3.71736E-30
9.78152E-01 3.49084E-30
9.79410E-01 3.27301E-30
9.80631E-01 3.06366E-30
9.81815E-01 2.86259E-30
9.82963E-01 2.66962E-30
9.84074E-01 2.48458E-30
9.85148E-01 2.30730E-30
9.86185E-01 2.13761E-30
9.87185E-01 1.97536E-30
9.88148E-01 1.82041E-30
9.89074E-01 1.67260E-30
9.89962E-01 1.53182E-30
9.90814E-01 1.39792E-30
9.91627E-01 1.27080E-30
9.92404E-01 1.15033E-30
9.93143E-01 1.03640E-30
9.93844E-01 9.28918E-31
9.94508E-01 8.27781E-31
9.95134E-01 7.32898E-31
9.95722E-01 6.44185E-31
9.96273E-01 5.61561E-31
9.96786E-01 4.84953E-31
9.97261E-01 4.14291E-31
9.97698E-01 3.49513E-31
9.98097E-01 2.90560E-31
9.98459E-01 2.37379E-31
9.98782E-01 1.89923E-31
9.99067E-01 1.48150E-31
9.99315E-01 1.12021E-31
9.99524E-01 8.15054E-32
9.99695E-01 5.65751E-32
9.99829E-01 3.72077E-32
9.99924E-01 2.33864E-32
9.99981E-01 1.50984E-32
1.00000E+00 1.23368E-32
