 #
 # Subroutine ELSEPA. Elastic scattering of electrons and positrons
 #                    by neutral atoms and positive ions
 #
 # Projectile: positron
 # Kinetic energy = 8.00000E+05 eV = 2.93995E+04 a.u.
 #
 # Element: Zr,  Z =  40,  atomic weight = 9.12240E+01 g/mol
 #
 # Nuclear model: Fermi distribution
 #                Average radius = 4.81674E-13 cm
 #                Skin thickness = 5.46000E-14 cm
 #
 # Number of electrons = 40
 #
 # Electron density: Read from file Data/z_040.d
 #                   Number of data points =  787
 #                   Volume integral = 4.00000E+01
 #
 # LDA absorption potential (only electron-hole excitations):
 #                           Delta = 0.00000E+00 eV
 #                            Aabs = 2.00000E+00
 #
 # Total elastic cross section = 4.74754E-18 cm**2 = 1.69538E-01 a0**2
 # 1st transport cross section = 1.24024E-21 cm**2 = 4.42896E-05 a0**2
 # 2nd transport cross section = 3.47371E-21 cm**2 = 1.24049E-04 a0**2
 #
 #    Absorption cross section = 8.51989E-19 cm**2 = 3.04251E-02 a0**2
 #   Grand total cross section = 5.60414E-18 cm**2 = 2.00128E-01 a0**2
 #
 #
 # Differential cross section:                       MU=(1-COS(THETA))/2
 #
 #  THETA        MU          DCS          DCS        Sherman      error
 #  (deg)                 (cm**2/sr)   (a0**2/sr)    function
 #----------------------------------------------------------------------
0.00000E+00 9.53847E-14
7.61557E-13 9.53847E-14
1.18994E-12 9.53846E-14
1.71346E-12 9.53846E-14
2.33225E-12 9.53845E-14
3.04617E-12 9.53845E-14
3.85530E-12 9.53844E-14
4.75964E-12 9.53844E-14
5.75917E-12 9.53843E-14
6.85391E-12 9.53842E-14
8.04379E-12 9.53841E-14
9.32893E-12 9.53840E-14
1.07092E-11 9.53839E-14
1.21847E-11 9.53838E-14
1.37554E-11 9.53837E-14
1.54213E-11 9.53836E-14
1.71823E-11 9.53834E-14
1.90386E-11 9.53833E-14
2.09900E-11 9.53831E-14
2.30367E-11 9.53830E-14
2.51785E-11 9.53828E-14
2.74156E-11 9.53827E-14
2.97478E-11 9.53825E-14
3.21752E-11 9.53823E-14
3.46979E-11 9.53821E-14
3.73157E-11 9.53819E-14
4.00286E-11 9.53817E-14
4.28368E-11 9.53815E-14
4.57402E-11 9.53813E-14
4.87388E-11 9.53811E-14
5.18325E-11 9.53808E-14
5.50215E-11 9.53806E-14
5.83057E-11 9.53804E-14
6.16850E-11 9.53801E-14
6.51595E-11 9.53798E-14
6.87293E-11 9.53796E-14
7.23943E-11 9.53793E-14
7.61544E-11 9.53790E-14
1.18991E-10 9.53758E-14
1.71347E-10 9.53719E-14
2.33223E-10 9.53672E-14
3.04617E-10 9.53619E-14
3.85531E-10 9.53558E-14
4.75965E-10 9.53490E-14
5.75917E-10 9.53415E-14
6.85389E-10 9.53333E-14
8.04380E-10 9.53244E-14
9.32891E-10 9.53148E-14
1.07092E-09 9.53044E-14
1.21847E-09 9.52934E-14
1.37554E-09 9.52816E-14
1.54213E-09 9.52692E-14
1.71823E-09 9.52560E-14
1.90386E-09 9.52421E-14
2.09900E-09 9.52275E-14
2.30367E-09 9.52122E-14
2.51785E-09 9.51961E-14
2.74156E-09 9.51794E-14
2.97478E-09 9.51620E-14
3.21752E-09 9.51438E-14
3.46978E-09 9.51250E-14
3.73156E-09 9.51055E-14
4.00286E-09 9.50852E-14
4.28368E-09 9.50642E-14
4.57402E-09 9.50426E-14
4.87388E-09 9.50202E-14
5.18326E-09 9.49972E-14
5.50215E-09 9.49734E-14
5.83057E-09 9.49489E-14
6.16850E-09 9.49238E-14
6.51596E-09 9.48979E-14
6.87293E-09 9.48713E-14
7.23942E-09 9.48441E-14
7.61544E-09 9.48161E-14
1.18991E-08 9.44986E-14
1.71347E-08 9.41128E-14
2.33223E-08 9.36601E-14
3.04617E-08 9.31419E-14
3.85531E-08 9.25600E-14
4.75965E-08 9.19163E-14
5.75917E-08 9.12131E-14
6.85389E-08 9.04526E-14
8.04380E-08 8.96371E-14
9.32891E-08 8.87694E-14
1.07092E-07 8.78521E-14
1.21847E-07 8.68879E-14
1.37554E-07 8.58798E-14
1.54213E-07 8.48306E-14
1.71823E-07 8.37434E-14
1.90386E-07 8.26213E-14
2.09900E-07 8.14671E-14
2.30367E-07 8.02840E-14
2.51785E-07 7.90749E-14
2.74156E-07 7.78429E-14
2.97478E-07 7.65908E-14
3.21752E-07 7.53216E-14
3.46978E-07 7.40381E-14
3.73156E-07 7.27430E-14
4.00286E-07 7.14390E-14
4.28368E-07 7.01286E-14
4.57402E-07 6.88142E-14
4.87388E-07 6.74983E-14
5.18325E-07 6.61830E-14
5.50215E-07 6.48705E-14
5.83057E-07 6.35628E-14
6.16850E-07 6.22617E-14
6.51596E-07 6.09691E-14
6.87293E-07 5.96864E-14
7.23942E-07 5.84154E-14
7.61543E-07 5.71573E-14
1.18991E-06 4.55160E-14
1.71347E-06 3.59451E-14
2.33223E-06 2.84568E-14
3.04617E-06 2.27323E-14
3.85531E-06 1.83797E-14
4.75964E-06 1.50501E-14
5.75916E-06 1.24714E-14
6.85388E-06 1.04437E-14
8.04378E-06 8.82449E-15
9.32888E-06 7.51316E-15
1.07092E-05 6.43794E-15
1.21846E-05 5.54709E-15
1.37553E-05 4.80267E-15
1.54212E-05 4.17631E-15
1.71822E-05 3.64632E-15
1.90385E-05 3.19579E-15
2.09899E-05 2.81124E-15
2.30365E-05 2.48185E-15
2.51783E-05 2.19880E-15
2.74153E-05 1.95484E-15
2.97475E-05 1.74393E-15
3.21749E-05 1.56105E-15
3.46974E-05 1.40199E-15
3.73152E-05 1.26324E-15
4.00281E-05 1.14182E-15
4.28362E-05 1.03523E-15
4.57395E-05 9.41350E-16
4.87380E-05 8.58401E-16
5.18317E-05 7.84870E-16
5.50205E-05 7.19477E-16
5.83045E-05 6.61130E-16
6.16838E-05 6.08901E-16
6.51582E-05 5.62002E-16
6.87277E-05 5.19762E-16
7.23925E-05 4.81604E-16
7.61524E-05 4.47034E-16
9.21439E-05 3.36986E-16
1.09658E-04 2.59166E-16
1.28695E-04 2.02404E-16
1.49255E-04 1.60017E-16
1.71338E-04 1.27807E-16
1.94942E-04 1.03003E-16
2.20070E-04 8.37038E-17
2.46720E-04 6.85564E-17
2.74892E-04 5.65765E-17
3.04586E-04 4.70339E-17
3.35803E-04 3.93802E-17
3.68542E-04 3.31998E-17
4.02802E-04 2.81755E-17
4.38585E-04 2.40639E-17
4.75889E-04 2.06768E-17
5.14715E-04 1.78686E-17
5.55063E-04 1.55254E-17
5.96931E-04 1.35582E-17
6.40321E-04 1.18969E-17
6.85233E-04 1.04859E-17
7.31665E-04 9.28096E-18
7.79618E-04 8.24657E-18
8.29092E-04 7.35422E-18
8.80086E-04 6.58082E-18
9.32601E-04 5.90754E-18
9.86636E-04 5.31899E-18
1.04219E-03 4.80249E-18
1.09927E-03 4.34754E-18
1.15786E-03 3.94543E-18
1.21797E-03 3.58886E-18
1.27961E-03 3.27170E-18
1.34276E-03 2.98879E-18
1.40743E-03 2.73574E-18
1.47362E-03 2.50882E-18
1.54133E-03 2.30483E-18
1.61056E-03 2.12105E-18
1.68131E-03 1.95509E-18
1.75357E-03 1.80494E-18
1.82735E-03 1.66881E-18
1.90265E-03 1.54516E-18
1.97947E-03 1.43264E-18
2.05780E-03 1.33009E-18
2.13765E-03 1.23646E-18
2.21902E-03 1.15083E-18
2.30190E-03 1.07242E-18
2.38630E-03 1.00051E-18
2.47222E-03 9.34455E-19
2.55965E-03 8.73710E-19
2.64859E-03 8.17770E-19
2.73905E-03 7.66191E-19
2.83103E-03 7.18574E-19
2.92452E-03 6.74563E-19
3.01952E-03 6.33838E-19
3.11604E-03 5.96111E-19
3.21407E-03 5.61124E-19
3.31362E-03 5.28643E-19
3.41468E-03 4.98458E-19
3.51725E-03 4.70379E-19
3.62133E-03 4.44233E-19
3.72692E-03 4.19865E-19
3.83403E-03 3.97131E-19
3.94265E-03 3.75904E-19
4.05278E-03 3.56067E-19
4.16442E-03 3.37512E-19
4.27757E-03 3.20141E-19
4.39223E-03 3.03867E-19
4.50840E-03 2.88607E-19
4.62608E-03 2.74288E-19
4.74527E-03 2.60840E-19
4.86597E-03 2.48202E-19
4.98817E-03 2.36316E-19
5.11188E-03 2.25130E-19
5.23711E-03 2.14594E-19
5.36383E-03 2.04664E-19
5.49207E-03 1.95300E-19
5.62181E-03 1.86462E-19
5.75306E-03 1.78117E-19
5.88581E-03 1.70231E-19
6.02007E-03 1.62776E-19
6.15583E-03 1.55722E-19
6.29310E-03 1.49045E-19
6.43187E-03 1.42720E-19
6.57214E-03 1.36727E-19
6.71392E-03 1.31043E-19
6.85720E-03 1.25651E-19
7.00198E-03 1.20533E-19
7.14827E-03 1.15671E-19
7.29605E-03 1.11052E-19
7.44534E-03 1.06660E-19
7.59612E-03 1.02482E-19
7.97965E-03 9.28965E-20
8.37255E-03 8.44030E-20
8.77480E-03 7.68558E-20
9.18641E-03 7.01315E-20
9.60736E-03 6.41248E-20
1.00376E-02 5.87460E-20
1.04773E-02 5.39179E-20
1.09262E-02 4.95745E-20
1.13844E-02 4.56584E-20
1.18520E-02 4.21203E-20
1.23288E-02 3.89173E-20
1.28150E-02 3.60120E-20
1.33104E-02 3.33719E-20
1.38150E-02 3.09685E-20
1.43290E-02 2.87768E-20
1.48521E-02 2.67748E-20
1.53845E-02 2.49432E-20
1.59262E-02 2.32650E-20
1.64770E-02 2.17249E-20
1.70371E-02 2.03096E-20
1.76063E-02 1.90071E-20
1.81848E-02 1.78069E-20
1.87724E-02 1.66995E-20
1.93692E-02 1.56764E-20
1.99751E-02 1.47301E-20
2.05901E-02 1.38537E-20
2.12143E-02 1.30412E-20
2.18476E-02 1.22870E-20
2.24900E-02 1.15863E-20
2.31415E-02 1.09345E-20
2.38021E-02 1.03277E-20
2.44717E-02 9.76209E-21
2.51504E-02 9.23445E-21
2.58382E-02 8.74176E-21
2.65349E-02 8.28128E-21
2.72407E-02 7.85052E-21
2.79555E-02 7.44723E-21
2.86793E-02 7.06933E-21
2.94120E-02 6.71493E-21
3.01537E-02 6.38231E-21
3.09043E-02 6.06989E-21
3.16639E-02 5.77621E-21
3.24324E-02 5.49996E-21
3.32098E-02 5.23990E-21
3.39961E-02 4.99493E-21
3.47912E-02 4.76399E-21
3.55952E-02 4.54615E-21
3.64081E-02 4.34052E-21
3.72297E-02 4.14630E-21
3.80602E-02 3.96273E-21
3.88995E-02 3.78914E-21
3.97476E-02 3.62487E-21
4.06044E-02 3.46933E-21
4.14700E-02 3.32198E-21
4.23443E-02 3.18231E-21
4.32273E-02 3.04984E-21
4.41190E-02 2.92414E-21
4.50194E-02 2.80479E-21
4.59284E-02 2.69142E-21
4.68461E-02 2.58367E-21
4.87074E-02 2.38374E-21
5.06030E-02 2.20262E-21
5.25328E-02 2.03823E-21
5.44967E-02 1.88877E-21
5.64946E-02 1.75265E-21
5.85262E-02 1.62846E-21
6.05914E-02 1.51499E-21
6.26901E-02 1.41114E-21
6.48222E-02 1.31596E-21
6.69873E-02 1.22859E-21
6.91854E-02 1.14829E-21
7.14163E-02 1.07439E-21
7.36799E-02 1.00628E-21
7.59760E-02 9.43426E-22
7.83043E-02 8.85360E-22
8.06647E-02 8.31649E-22
8.30571E-02 7.81911E-22
8.54812E-02 7.35798E-22
8.79369E-02 6.93002E-22
9.04240E-02 6.53241E-22
9.29422E-02 6.16262E-22
9.54915E-02 5.81836E-22
9.80716E-02 5.49756E-22
1.00682E-01 5.19833E-22
1.03323E-01 4.91898E-22
1.05995E-01 4.65794E-22
1.08696E-01 4.41380E-22
1.11427E-01 4.18527E-22
1.14188E-01 3.97118E-22
1.16978E-01 3.77046E-22
1.19797E-01 3.58212E-22
1.22645E-01 3.40526E-22
1.25522E-01 3.23906E-22
1.28428E-01 3.08276E-22
1.31361E-01 2.93567E-22
1.34323E-01 2.79714E-22
1.37313E-01 2.66660E-22
1.40330E-01 2.54349E-22
1.43375E-01 2.42732E-22
1.46447E-01 2.31763E-22
1.49545E-01 2.21399E-22
1.52671E-01 2.11601E-22
1.55823E-01 2.02333E-22
1.59001E-01 1.93560E-22
1.62205E-01 1.85251E-22
1.65435E-01 1.77378E-22
1.68690E-01 1.69914E-22
1.71970E-01 1.62833E-22
1.75276E-01 1.56112E-22
1.78606E-01 1.49730E-22
1.81961E-01 1.43667E-22
1.85340E-01 1.37903E-22
1.88743E-01 1.32422E-22
1.92169E-01 1.27207E-22
1.95619E-01 1.22242E-22
1.99092E-01 1.17514E-22
2.02589E-01 1.13010E-22
2.06107E-01 1.08716E-22
2.09649E-01 1.04621E-22
2.13212E-01 1.00715E-22
2.16797E-01 9.69865E-23
2.20404E-01 9.34267E-23
2.24032E-01 9.00263E-23
2.27680E-01 8.67771E-23
2.31350E-01 8.36709E-23
2.35040E-01 8.07005E-23
2.38751E-01 7.78588E-23
2.42481E-01 7.51393E-23
2.46231E-01 7.25357E-23
2.50000E-01 7.00422E-23
2.53788E-01 6.76533E-23
2.57595E-01 6.53638E-23
2.61421E-01 6.31688E-23
2.65264E-01 6.10638E-23
2.69126E-01 5.90445E-23
2.73005E-01 5.71066E-23
2.76901E-01 5.52463E-23
2.80814E-01 5.34599E-23
2.84744E-01 5.17439E-23
2.88691E-01 5.00952E-23
2.92653E-01 4.85105E-23
2.96632E-01 4.69871E-23
3.00625E-01 4.55219E-23
3.04634E-01 4.41125E-23
3.08658E-01 4.27563E-23
3.12697E-01 4.14509E-23
3.16749E-01 4.01942E-23
3.20816E-01 3.89839E-23
3.24896E-01 3.78181E-23
3.28990E-01 3.66947E-23
3.33097E-01 3.56120E-23
3.37216E-01 3.45684E-23
3.41348E-01 3.35619E-23
3.45492E-01 3.25911E-23
3.49647E-01 3.16547E-23
3.53814E-01 3.07511E-23
3.57992E-01 2.98788E-23
3.62181E-01 2.90367E-23
3.66381E-01 2.82236E-23
3.70590E-01 2.74382E-23
3.74810E-01 2.66794E-23
3.79039E-01 2.59462E-23
3.83277E-01 2.52376E-23
3.87524E-01 2.45525E-23
3.91780E-01 2.38902E-23
3.96044E-01 2.32495E-23
4.00316E-01 2.26298E-23
4.04596E-01 2.20303E-23
4.08882E-01 2.14501E-23
4.13176E-01 2.08885E-23
4.17476E-01 2.03448E-23
4.21783E-01 1.98184E-23
4.26095E-01 1.93086E-23
4.30413E-01 1.88147E-23
4.34737E-01 1.83362E-23
4.39065E-01 1.78726E-23
4.43398E-01 1.74233E-23
4.47736E-01 1.69877E-23
4.52077E-01 1.65654E-23
4.56422E-01 1.61559E-23
4.60770E-01 1.57587E-23
4.65122E-01 1.53734E-23
4.69476E-01 1.49996E-23
4.73832E-01 1.46369E-23
4.78190E-01 1.42848E-23
4.82550E-01 1.39431E-23
4.86912E-01 1.36114E-23
4.91274E-01 1.32893E-23
4.95637E-01 1.29765E-23
5.00000E-01 1.26726E-23
5.04363E-01 1.23775E-23
5.08726E-01 1.20907E-23
5.13088E-01 1.18120E-23
5.17450E-01 1.15412E-23
5.21810E-01 1.12780E-23
5.26168E-01 1.10221E-23
5.30524E-01 1.07732E-23
5.34878E-01 1.05313E-23
5.39230E-01 1.02959E-23
5.43578E-01 1.00671E-23
5.47923E-01 9.84438E-24
5.52264E-01 9.62772E-24
5.56602E-01 9.41690E-24
5.60935E-01 9.21172E-24
5.65263E-01 9.01202E-24
5.69587E-01 8.81761E-24
5.73905E-01 8.62835E-24
5.78217E-01 8.44406E-24
5.82524E-01 8.26460E-24
5.86824E-01 8.08981E-24
5.91118E-01 7.91955E-24
5.95404E-01 7.75370E-24
5.99684E-01 7.59211E-24
6.03956E-01 7.43466E-24
6.08220E-01 7.28123E-24
6.12476E-01 7.13169E-24
6.16723E-01 6.98592E-24
6.20961E-01 6.84383E-24
6.25190E-01 6.70530E-24
6.29410E-01 6.57023E-24
6.33619E-01 6.43852E-24
6.37819E-01 6.31007E-24
6.42008E-01 6.18479E-24
6.46186E-01 6.06258E-24
6.50353E-01 5.94337E-24
6.54508E-01 5.82706E-24
6.58652E-01 5.71358E-24
6.62784E-01 5.60284E-24
6.66903E-01 5.49477E-24
6.71010E-01 5.38930E-24
6.75104E-01 5.28634E-24
6.79184E-01 5.18584E-24
6.83251E-01 5.08773E-24
6.87303E-01 4.99194E-24
6.91342E-01 4.89841E-24
6.95366E-01 4.80707E-24
6.99375E-01 4.71788E-24
7.03368E-01 4.63077E-24
7.07347E-01 4.54568E-24
7.11309E-01 4.46256E-24
7.15256E-01 4.38137E-24
7.19186E-01 4.30205E-24
7.23099E-01 4.22455E-24
7.26995E-01 4.14882E-24
7.30874E-01 4.07483E-24
7.34736E-01 4.00251E-24
7.38579E-01 3.93184E-24
7.42405E-01 3.86277E-24
7.46212E-01 3.79525E-24
7.50000E-01 3.72926E-24
7.53769E-01 3.66475E-24
7.57519E-01 3.60168E-24
7.61249E-01 3.54002E-24
7.64960E-01 3.47973E-24
7.68650E-01 3.42078E-24
7.72320E-01 3.36314E-24
7.75968E-01 3.30678E-24
7.79596E-01 3.25166E-24
7.83203E-01 3.19776E-24
7.86788E-01 3.14503E-24
7.90351E-01 3.09346E-24
7.93893E-01 3.04303E-24
7.97411E-01 2.99369E-24
8.00908E-01 2.94544E-24
8.04381E-01 2.89823E-24
8.07831E-01 2.85205E-24
8.11257E-01 2.80687E-24
8.14660E-01 2.76267E-24
8.18039E-01 2.71943E-24
8.21394E-01 2.67713E-24
8.24724E-01 2.63574E-24
8.28030E-01 2.59524E-24
8.31310E-01 2.55562E-24
8.34565E-01 2.51684E-24
8.37795E-01 2.47891E-24
8.40999E-01 2.44179E-24
8.44177E-01 2.40547E-24
8.47329E-01 2.36993E-24
8.50455E-01 2.33515E-24
8.53553E-01 2.30112E-24
8.56625E-01 2.26783E-24
8.59670E-01 2.23524E-24
8.62687E-01 2.20336E-24
8.65677E-01 2.17217E-24
8.68639E-01 2.14165E-24
8.71572E-01 2.11178E-24
8.74478E-01 2.08256E-24
8.77355E-01 2.05397E-24
8.80203E-01 2.02600E-24
8.83022E-01 1.99863E-24
8.85812E-01 1.97186E-24
8.88573E-01 1.94567E-24
8.91304E-01 1.92005E-24
8.94005E-01 1.89498E-24
8.96677E-01 1.87047E-24
8.99318E-01 1.84649E-24
9.01928E-01 1.82304E-24
9.04508E-01 1.80010E-24
9.07058E-01 1.77768E-24
9.09576E-01 1.75575E-24
9.12063E-01 1.73430E-24
9.14519E-01 1.71334E-24
9.16943E-01 1.69285E-24
9.19335E-01 1.67282E-24
9.21696E-01 1.65324E-24
9.24024E-01 1.63411E-24
9.26320E-01 1.61542E-24
9.28584E-01 1.59715E-24
9.30815E-01 1.57931E-24
9.33013E-01 1.56188E-24
9.35178E-01 1.54487E-24
9.37310E-01 1.52825E-24
9.39409E-01 1.51203E-24
9.41474E-01 1.49620E-24
9.43505E-01 1.48075E-24
9.45503E-01 1.46567E-24
9.47467E-01 1.45097E-24
9.49397E-01 1.43663E-24
9.51293E-01 1.42264E-24
9.53154E-01 1.40902E-24
9.54981E-01 1.39574E-24
9.56773E-01 1.38280E-24
9.58530E-01 1.37020E-24
9.60252E-01 1.35794E-24
9.61940E-01 1.34600E-24
9.63592E-01 1.33438E-24
9.65209E-01 1.32309E-24
9.66790E-01 1.31211E-24
9.68336E-01 1.30144E-24
9.69846E-01 1.29108E-24
9.71321E-01 1.28102E-24
9.72759E-01 1.27126E-24
9.74162E-01 1.26180E-24
9.75528E-01 1.25263E-24
9.76858E-01 1.24375E-24
9.78152E-01 1.23515E-24
9.79410E-01 1.22684E-24
9.80631E-01 1.21881E-24
9.81815E-01 1.21105E-24
9.82963E-01 1.20356E-24
9.84074E-01 1.19635E-24
9.85148E-01 1.18940E-24
9.86185E-01 1.18272E-24
9.87185E-01 1.17631E-24
9.88148E-01 1.17015E-24
9.89074E-01 1.16425E-24
9.89962E-01 1.15861E-24
9.90814E-01 1.15323E-24
9.91627E-01 1.14809E-24
9.92404E-01 1.14321E-24
9.93143E-01 1.13858E-24
9.93844E-01 1.13420E-24
9.94508E-01 1.13005E-24
9.95134E-01 1.12616E-24
9.95722E-01 1.12250E-24
9.96273E-01 1.11909E-24
9.96786E-01 1.11593E-24
9.97261E-01 1.11300E-24
9.97698E-01 1.11030E-24
9.98097E-01 1.10785E-24
9.98459E-01 1.10562E-24
9.98782E-01 1.10364E-24
9.99067E-01 1.10189E-24
9.99315E-01 1.10038E-24
9.99524E-01 1.09910E-24
9.99695E-01 1.09806E-24
9.99829E-01 1.09724E-24
9.99924E-01 1.09665E-24
9.99981E-01 1.09630E-24
1.00000E+00 1.09618E-24
