 #
 # Subroutine ELSEPA. Elastic scattering of electrons and positrons
 #                    by neutral atoms and positive ions
 #
 # Projectile: positron
 # Kinetic energy = 3.50000E+06 eV = 1.28623E+05 a.u.
 #
 # WARNING: High-energy factorization with free-atom DF screening.
 #          Absorption, polarization and exchange corrections are
 #          switched off.
 #          Phase shifts are calculated for the bare nucleus.
 #          Scattering amplitudes are not evaluated.
 #
 # Element: Zr,  Z =  40,  atomic weight = 9.12240E+01 g/mol
 #
 # Nuclear model: Fermi distribution
 #                Average radius = 4.81674E-13 cm
 #                Skin thickness = 5.46000E-14 cm
 #
 # Number of electrons = 40
 #
 # Total elastic cross section = 4.12916E-18 cm**2 = 1.47455E-01 a0**2
 # 1st transport cross section = 1.28460E-22 cm**2 = 4.58739E-06 a0**2
 # 2nd transport cross section = 3.68763E-22 cm**2 = 1.31688E-05 a0**2
 #
 #
 # Differential cross section:                       MU=(1-COS(THETA))/2
 #
 #  THETA        MU          DCS          DCS        Sherman      error
 #  (deg)                 (cm**2/sr)   (a0**2/sr)    function
 #----------------------------------------------------------------------
0.00000E+00 8.95405E-13
7.61557E-13 8.95399E-13
1.18994E-12 8.95395E-13
1.71346E-12 8.95391E-13
2.33225E-12 8.95386E-13
3.04617E-12 8.95380E-13
3.85530E-12 8.95374E-13
4.75964E-12 8.95367E-13
5.75917E-12 8.95359E-13
6.85391E-12 8.95350E-13
8.04379E-12 8.95341E-13
9.32893E-12 8.95331E-13
1.07092E-11 8.95320E-13
1.21847E-11 8.95309E-13
1.37554E-11 8.95297E-13
1.54213E-11 8.95284E-13
1.71823E-11 8.95270E-13
1.90386E-11 8.95256E-13
2.09900E-11 8.95241E-13
2.30367E-11 8.95225E-13
2.51785E-11 8.95208E-13
2.74156E-11 8.95191E-13
2.97478E-11 8.95173E-13
3.21752E-11 8.95154E-13
3.46979E-11 8.95135E-13
3.73157E-11 8.95115E-13
4.00286E-11 8.95094E-13
4.28368E-11 8.95072E-13
4.57402E-11 8.95050E-13
4.87388E-11 8.95027E-13
5.18325E-11 8.95003E-13
5.50215E-11 8.94979E-13
5.83057E-11 8.94954E-13
6.16850E-11 8.94928E-13
6.51595E-11 8.94901E-13
6.87293E-11 8.94874E-13
7.23943E-11 8.94846E-13
7.61544E-11 8.94817E-13
1.18991E-10 8.94489E-13
1.71347E-10 8.94089E-13
2.33223E-10 8.93617E-13
3.04617E-10 8.93073E-13
3.85531E-10 8.92458E-13
4.75965E-10 8.91772E-13
5.75917E-10 8.91014E-13
6.85389E-10 8.90186E-13
8.04380E-10 8.89287E-13
9.32891E-10 8.88318E-13
1.07092E-09 8.87279E-13
1.21847E-09 8.86171E-13
1.37554E-09 8.84994E-13
1.54213E-09 8.83748E-13
1.71823E-09 8.82434E-13
1.90386E-09 8.81053E-13
2.09900E-09 8.79604E-13
2.30367E-09 8.78089E-13
2.51785E-09 8.76508E-13
2.74156E-09 8.74862E-13
2.97478E-09 8.73151E-13
3.21752E-09 8.71375E-13
3.46978E-09 8.69536E-13
3.73156E-09 8.67634E-13
4.00286E-09 8.65670E-13
4.28368E-09 8.63645E-13
4.57402E-09 8.61558E-13
4.87388E-09 8.59412E-13
5.18326E-09 8.57206E-13
5.50215E-09 8.54942E-13
5.83057E-09 8.52620E-13
6.16850E-09 8.50241E-13
6.51596E-09 8.47806E-13
6.87293E-09 8.45316E-13
7.23942E-09 8.42771E-13
7.61544E-09 8.40173E-13
1.18991E-08 8.11446E-13
1.71347E-08 7.78398E-13
2.33223E-08 7.42016E-13
3.04617E-08 7.03312E-13
3.85531E-08 6.63240E-13
4.75965E-08 6.22652E-13
5.75917E-08 5.82294E-13
6.85389E-08 5.42852E-13
8.04380E-08 5.04762E-13
9.32891E-08 4.68381E-13
1.07092E-07 4.34001E-13
1.21847E-07 4.01783E-13
1.37554E-07 3.71746E-13
1.54213E-07 3.43893E-13
1.71823E-07 3.18243E-13
1.90386E-07 2.94652E-13
2.09900E-07 2.73003E-13
2.30367E-07 2.53187E-13
2.51785E-07 2.35093E-13
2.74156E-07 2.18549E-13
2.97478E-07 2.03429E-13
3.21752E-07 1.89621E-13
3.46978E-07 1.76993E-13
3.73156E-07 1.65434E-13
4.00286E-07 1.54846E-13
4.28368E-07 1.45127E-13
4.57402E-07 1.36196E-13
4.87388E-07 1.27981E-13
5.18325E-07 1.20410E-13
5.50215E-07 1.13409E-13
5.83057E-07 1.06938E-13
6.16850E-07 1.00950E-13
6.51596E-07 9.53838E-14
6.87293E-07 9.02070E-14
7.23942E-07 8.53938E-14
7.61543E-07 8.09128E-14
1.18991E-06 4.89513E-14
1.71347E-06 3.08592E-14
2.33223E-06 2.06388E-14
3.04617E-06 1.41849E-14
3.85531E-06 1.01231E-14
4.75964E-06 7.47221E-15
5.75916E-06 5.67184E-15
6.85388E-06 4.38947E-15
8.04378E-06 3.46572E-15
9.32888E-06 2.78094E-15
1.07092E-05 2.25555E-15
1.21846E-05 1.84467E-15
1.37553E-05 1.52279E-15
1.54212E-05 1.26691E-15
1.71822E-05 1.05831E-15
1.90385E-05 8.89445E-16
2.09899E-05 7.52423E-16
2.30365E-05 6.39757E-16
2.51783E-05 5.46111E-16
2.74153E-05 4.68705E-16
2.97475E-05 4.04300E-16
3.21749E-05 3.50263E-16
3.46974E-05 3.04862E-16
3.73152E-05 2.66576E-16
4.00281E-05 2.34094E-16
4.28362E-05 2.06379E-16
4.57395E-05 1.82695E-16
4.87380E-05 1.62358E-16
5.18317E-05 1.44805E-16
5.50205E-05 1.29583E-16
5.83045E-05 1.16345E-16
6.16838E-05 1.04787E-16
6.51582E-05 9.46461E-17
6.87277E-05 8.57208E-17
7.23925E-05 7.78427E-17
7.61524E-05 7.08650E-17
9.21439E-05 4.97402E-17
1.09658E-04 3.59878E-17
1.28695E-04 2.66889E-17
1.49255E-04 2.01928E-17
1.71338E-04 1.55570E-17
1.94942E-04 1.21653E-17
2.20070E-04 9.64662E-18
2.46720E-04 7.74360E-18
2.74892E-04 6.28071E-18
3.04586E-04 5.14579E-18
3.35803E-04 4.25496E-18
3.68542E-04 3.54781E-18
4.02802E-04 2.98039E-18
4.38585E-04 2.52185E-18
4.75889E-04 2.14808E-18
5.14715E-04 1.84079E-18
5.55063E-04 1.58641E-18
5.96931E-04 1.37451E-18
6.40321E-04 1.19685E-18
6.85233E-04 1.04691E-18
7.31665E-04 9.19747E-19
7.79618E-04 8.11340E-19
8.29092E-04 7.18445E-19
8.80086E-04 6.38454E-19
9.32601E-04 5.69307E-19
9.86636E-04 5.09281E-19
1.04219E-03 4.56952E-19
1.09927E-03 4.11172E-19
1.15786E-03 3.70989E-19
1.21797E-03 3.35599E-19
1.27961E-03 3.04318E-19
1.34276E-03 2.76599E-19
1.40743E-03 2.51965E-19
1.47362E-03 2.30010E-19
1.54133E-03 2.10389E-19
1.61056E-03 1.92815E-19
1.68131E-03 1.77037E-19
1.75357E-03 1.62835E-19
1.82735E-03 1.50027E-19
1.90265E-03 1.38452E-19
1.97947E-03 1.27970E-19
2.05780E-03 1.18457E-19
2.13765E-03 1.09810E-19
2.21902E-03 1.01937E-19
2.30190E-03 9.47542E-20
2.38630E-03 8.81907E-20
2.47222E-03 8.21847E-20
2.55965E-03 7.66801E-20
2.64859E-03 7.16263E-20
2.73905E-03 6.69808E-20
2.83103E-03 6.27050E-20
2.92452E-03 5.87637E-20
3.01952E-03 5.51256E-20
3.11604E-03 5.17640E-20
3.21407E-03 4.86539E-20
3.31362E-03 4.57728E-20
3.41468E-03 4.31009E-20
3.51725E-03 4.06204E-20
3.62133E-03 3.83153E-20
3.72692E-03 3.61703E-20
3.83403E-03 3.41729E-20
3.94265E-03 3.23109E-20
4.05278E-03 3.05734E-20
4.16442E-03 2.89505E-20
4.27757E-03 2.74335E-20
4.39223E-03 2.60142E-20
4.50840E-03 2.46849E-20
4.62608E-03 2.34391E-20
4.74527E-03 2.22706E-20
4.86597E-03 2.11736E-20
4.98817E-03 2.01430E-20
5.11188E-03 1.91740E-20
5.23711E-03 1.82623E-20
5.36383E-03 1.74039E-20
5.49207E-03 1.65951E-20
5.62181E-03 1.58325E-20
5.75306E-03 1.51130E-20
5.88581E-03 1.44337E-20
6.02007E-03 1.37919E-20
6.15583E-03 1.31852E-20
6.29310E-03 1.26114E-20
6.43187E-03 1.20682E-20
6.57214E-03 1.15539E-20
6.71392E-03 1.10665E-20
6.85720E-03 1.06044E-20
7.00198E-03 1.01660E-20
7.14827E-03 9.74992E-21
7.29605E-03 9.35482E-21
7.44534E-03 8.97938E-21
7.59612E-03 8.62251E-21
7.97965E-03 7.80450E-21
8.37255E-03 7.08074E-21
8.77480E-03 6.43851E-21
9.18641E-03 5.86709E-21
9.60736E-03 5.35733E-21
1.00376E-02 4.90145E-21
1.04773E-02 4.49277E-21
1.09262E-02 4.12557E-21
1.13844E-02 3.79491E-21
1.18520E-02 3.49653E-21
1.23288E-02 3.22674E-21
1.28150E-02 2.98231E-21
1.33104E-02 2.76046E-21
1.38150E-02 2.55873E-21
1.43290E-02 2.37498E-21
1.48521E-02 2.20732E-21
1.53845E-02 2.05411E-21
1.59262E-02 1.91388E-21
1.64770E-02 1.78533E-21
1.70371E-02 1.66732E-21
1.76063E-02 1.55884E-21
1.81848E-02 1.45898E-21
1.87724E-02 1.36693E-21
1.93692E-02 1.28197E-21
1.99751E-02 1.20347E-21
2.05901E-02 1.13084E-21
2.12143E-02 1.06357E-21
2.18476E-02 1.00119E-21
2.24900E-02 9.43285E-22
2.31415E-02 8.89472E-22
2.38021E-02 8.39412E-22
2.44717E-02 7.92798E-22
2.51504E-02 7.49349E-22
2.58382E-02 7.08812E-22
2.65349E-02 6.70958E-22
2.72407E-02 6.35576E-22
2.79555E-02 6.02477E-22
2.86793E-02 5.71486E-22
2.94120E-02 5.42446E-22
3.01537E-02 5.15211E-22
3.09043E-02 4.89649E-22
3.16639E-02 4.65639E-22
3.24324E-02 4.43069E-22
3.32098E-02 4.21838E-22
3.39961E-02 4.01853E-22
3.47912E-02 3.83026E-22
3.55952E-02 3.65278E-22
3.64081E-02 3.48537E-22
3.72297E-02 3.32734E-22
3.80602E-02 3.17809E-22
3.88995E-02 3.03703E-22
3.97476E-02 2.90364E-22
4.06044E-02 2.77741E-22
4.14700E-02 2.65790E-22
4.23443E-02 2.54469E-22
4.32273E-02 2.43737E-22
4.41190E-02 2.33560E-22
4.50194E-02 2.23903E-22
4.59284E-02 2.14734E-22
4.68461E-02 2.06025E-22
4.87074E-02 1.89878E-22
5.06030E-02 1.75266E-22
5.25328E-02 1.62018E-22
5.44967E-02 1.49985E-22
5.64946E-02 1.39036E-22
5.85262E-02 1.29057E-22
6.05914E-02 1.19947E-22
6.26901E-02 1.11617E-22
6.48222E-02 1.03990E-22
6.69873E-02 9.69945E-23
6.91854E-02 9.05703E-23
7.14163E-02 8.46626E-23
7.36799E-02 7.92225E-23
7.59760E-02 7.42066E-23
7.83043E-02 6.95761E-23
8.06647E-02 6.52962E-23
8.30571E-02 6.13358E-23
8.54812E-02 5.76669E-23
8.79369E-02 5.42642E-23
9.04240E-02 5.11051E-23
9.29422E-02 4.81691E-23
9.54915E-02 4.54376E-23
9.80716E-02 4.28941E-23
1.00682E-01 4.05232E-23
1.03323E-01 3.83112E-23
1.05995E-01 3.62456E-23
1.08696E-01 3.43149E-23
1.11427E-01 3.25090E-23
1.14188E-01 3.08182E-23
1.16978E-01 2.92339E-23
1.19797E-01 2.77483E-23
1.22645E-01 2.63542E-23
1.25522E-01 2.50448E-23
1.28428E-01 2.38142E-23
1.31361E-01 2.26568E-23
1.34323E-01 2.15675E-23
1.37313E-01 2.05416E-23
1.40330E-01 1.95747E-23
1.43375E-01 1.86628E-23
1.46447E-01 1.78023E-23
1.49545E-01 1.69897E-23
1.52671E-01 1.62219E-23
1.55823E-01 1.54961E-23
1.59001E-01 1.48095E-23
1.62205E-01 1.41596E-23
1.65435E-01 1.35441E-23
1.68690E-01 1.29609E-23
1.71970E-01 1.24080E-23
1.75276E-01 1.18836E-23
1.78606E-01 1.13858E-23
1.81961E-01 1.09132E-23
1.85340E-01 1.04642E-23
1.88743E-01 1.00374E-23
1.92169E-01 9.63158E-24
1.95619E-01 9.24552E-24
1.99092E-01 8.87806E-24
2.02589E-01 8.52815E-24
2.06107E-01 8.19482E-24
2.09649E-01 7.87713E-24
2.13212E-01 7.57423E-24
2.16797E-01 7.28530E-24
2.20404E-01 7.00959E-24
2.24032E-01 6.74639E-24
2.27680E-01 6.49502E-24
2.31350E-01 6.25488E-24
2.35040E-01 6.02537E-24
2.38751E-01 5.80594E-24
2.42481E-01 5.59606E-24
2.46231E-01 5.39525E-24
2.50000E-01 5.20304E-24
2.53788E-01 5.01901E-24
2.57595E-01 4.84274E-24
2.61421E-01 4.67386E-24
2.65264E-01 4.51199E-24
2.69126E-01 4.35680E-24
2.73005E-01 4.20796E-24
2.76901E-01 4.06518E-24
2.80814E-01 3.92815E-24
2.84744E-01 3.79662E-24
2.88691E-01 3.67030E-24
2.92653E-01 3.54898E-24
2.96632E-01 3.43240E-24
3.00625E-01 3.32037E-24
3.04634E-01 3.21266E-24
3.08658E-01 3.10908E-24
3.12697E-01 3.00946E-24
3.16749E-01 2.91360E-24
3.20816E-01 2.82135E-24
3.24896E-01 2.73254E-24
3.28990E-01 2.64703E-24
3.33097E-01 2.56467E-24
3.37216E-01 2.48532E-24
3.41348E-01 2.40885E-24
3.45492E-01 2.33515E-24
3.49647E-01 2.26410E-24
3.53814E-01 2.19558E-24
3.57992E-01 2.12948E-24
3.62181E-01 2.06572E-24
3.66381E-01 2.00419E-24
3.70590E-01 1.94480E-24
3.74810E-01 1.88746E-24
3.79039E-01 1.83210E-24
3.83277E-01 1.77862E-24
3.87524E-01 1.72696E-24
3.91780E-01 1.67704E-24
3.96044E-01 1.62880E-24
4.00316E-01 1.58216E-24
4.04596E-01 1.53708E-24
4.08882E-01 1.49348E-24
4.13176E-01 1.45131E-24
4.17476E-01 1.41051E-24
4.21783E-01 1.37104E-24
4.26095E-01 1.33284E-24
4.30413E-01 1.29586E-24
4.34737E-01 1.26006E-24
4.39065E-01 1.22539E-24
4.43398E-01 1.19182E-24
4.47736E-01 1.15930E-24
4.52077E-01 1.12780E-24
4.56422E-01 1.09727E-24
4.60770E-01 1.06768E-24
4.65122E-01 1.03900E-24
4.69476E-01 1.01120E-24
4.73832E-01 9.84245E-25
4.78190E-01 9.58102E-25
4.82550E-01 9.32744E-25
4.86912E-01 9.08145E-25
4.91274E-01 8.84277E-25
4.95637E-01 8.61117E-25
5.00000E-01 8.38639E-25
5.04363E-01 8.16820E-25
5.08726E-01 7.95638E-25
5.13088E-01 7.75072E-25
5.17450E-01 7.55100E-25
5.21810E-01 7.35702E-25
5.26168E-01 7.16859E-25
5.30524E-01 6.98553E-25
5.34878E-01 6.80765E-25
5.39230E-01 6.63480E-25
5.43578E-01 6.46679E-25
5.47923E-01 6.30349E-25
5.52264E-01 6.14473E-25
5.56602E-01 5.99038E-25
5.60935E-01 5.84028E-25
5.65263E-01 5.69431E-25
5.69587E-01 5.55234E-25
5.73905E-01 5.41423E-25
5.78217E-01 5.27986E-25
5.82524E-01 5.14912E-25
5.86824E-01 5.02189E-25
5.91118E-01 4.89806E-25
5.95404E-01 4.77753E-25
5.99684E-01 4.66020E-25
6.03956E-01 4.54596E-25
6.08220E-01 4.43474E-25
6.12476E-01 4.32644E-25
6.16723E-01 4.22097E-25
6.20961E-01 4.11824E-25
6.25190E-01 4.01818E-25
6.29410E-01 3.92070E-25
6.33619E-01 3.82573E-25
6.37819E-01 3.73318E-25
6.42008E-01 3.64299E-25
6.46186E-01 3.55508E-25
6.50353E-01 3.46940E-25
6.54508E-01 3.38588E-25
6.58652E-01 3.30447E-25
6.62784E-01 3.22510E-25
6.66903E-01 3.14772E-25
6.71010E-01 3.07226E-25
6.75104E-01 2.99867E-25
6.79184E-01 2.92689E-25
6.83251E-01 2.85688E-25
6.87303E-01 2.78859E-25
6.91342E-01 2.72196E-25
6.95366E-01 2.65695E-25
6.99375E-01 2.59353E-25
7.03368E-01 2.53164E-25
7.07347E-01 2.47124E-25
7.11309E-01 2.41230E-25
7.15256E-01 2.35478E-25
7.19186E-01 2.29863E-25
7.23099E-01 2.24382E-25
7.26995E-01 2.19031E-25
7.30874E-01 2.13807E-25
7.34736E-01 2.08706E-25
7.38579E-01 2.03726E-25
7.42405E-01 1.98862E-25
7.46212E-01 1.94113E-25
7.50000E-01 1.89475E-25
7.53769E-01 1.84945E-25
7.57519E-01 1.80520E-25
7.61249E-01 1.76198E-25
7.64960E-01 1.71976E-25
7.68650E-01 1.67852E-25
7.72320E-01 1.63822E-25
7.75968E-01 1.59886E-25
7.79596E-01 1.56039E-25
7.83203E-01 1.52281E-25
7.86788E-01 1.48609E-25
7.90351E-01 1.45020E-25
7.93893E-01 1.41513E-25
7.97411E-01 1.38086E-25
8.00908E-01 1.34737E-25
8.04381E-01 1.31463E-25
8.07831E-01 1.28263E-25
8.11257E-01 1.25136E-25
8.14660E-01 1.22079E-25
8.18039E-01 1.19091E-25
8.21394E-01 1.16170E-25
8.24724E-01 1.13315E-25
8.28030E-01 1.10524E-25
8.31310E-01 1.07795E-25
8.34565E-01 1.05128E-25
8.37795E-01 1.02520E-25
8.40999E-01 9.99707E-26
8.44177E-01 9.74782E-26
8.47329E-01 9.50415E-26
8.50455E-01 9.26591E-26
8.53553E-01 9.03299E-26
8.56625E-01 8.80528E-26
8.59670E-01 8.58264E-26
8.62687E-01 8.36498E-26
8.65677E-01 8.15218E-26
8.68639E-01 7.94413E-26
8.71572E-01 7.74073E-26
8.74478E-01 7.54188E-26
8.77355E-01 7.34749E-26
8.80203E-01 7.15745E-26
8.83022E-01 6.97167E-26
8.85812E-01 6.79007E-26
8.88573E-01 6.61256E-26
8.91304E-01 6.43904E-26
8.94005E-01 6.26945E-26
8.96677E-01 6.10369E-26
8.99318E-01 5.94168E-26
9.01928E-01 5.78336E-26
9.04508E-01 5.62865E-26
9.07058E-01 5.47747E-26
9.09576E-01 5.32976E-26
9.12063E-01 5.18544E-26
9.14519E-01 5.04445E-26
9.16943E-01 4.90672E-26
9.19335E-01 4.77220E-26
9.21696E-01 4.64082E-26
9.24024E-01 4.51251E-26
9.26320E-01 4.38724E-26
9.28584E-01 4.26492E-26
9.30815E-01 4.14553E-26
9.33013E-01 4.02899E-26
9.35178E-01 3.91525E-26
9.37310E-01 3.80428E-26
9.39409E-01 3.69602E-26
9.41474E-01 3.59041E-26
9.43505E-01 3.48742E-26
9.45503E-01 3.38700E-26
9.47467E-01 3.28911E-26
9.49397E-01 3.19370E-26
9.51293E-01 3.10074E-26
9.53154E-01 3.01017E-26
9.54981E-01 2.92198E-26
9.56773E-01 2.83611E-26
9.58530E-01 2.75253E-26
9.60252E-01 2.67120E-26
9.61940E-01 2.59210E-26
9.63592E-01 2.51518E-26
9.65209E-01 2.44042E-26
9.66790E-01 2.36779E-26
9.68336E-01 2.29724E-26
9.69846E-01 2.22876E-26
9.71321E-01 2.16232E-26
9.72759E-01 2.09789E-26
9.74162E-01 2.03544E-26
9.75528E-01 1.97494E-26
9.76858E-01 1.91638E-26
9.78152E-01 1.85972E-26
9.79410E-01 1.80495E-26
9.80631E-01 1.75204E-26
9.81815E-01 1.70097E-26
9.82963E-01 1.65172E-26
9.84074E-01 1.60427E-26
9.85148E-01 1.55860E-26
9.86185E-01 1.51470E-26
9.87185E-01 1.47254E-26
9.88148E-01 1.43210E-26
9.89074E-01 1.39338E-26
9.89962E-01 1.35636E-26
9.90814E-01 1.32101E-26
9.91627E-01 1.28734E-26
9.92404E-01 1.25532E-26
9.93143E-01 1.22494E-26
9.93844E-01 1.19618E-26
9.94508E-01 1.16905E-26
9.95134E-01 1.14352E-26
9.95722E-01 1.11960E-26
9.96273E-01 1.09725E-26
9.96786E-01 1.07649E-26
9.97261E-01 1.05730E-26
9.97698E-01 1.03967E-26
9.98097E-01 1.02359E-26
9.98459E-01 1.00907E-26
9.98782E-01 9.96091E-27
9.99067E-01 9.84650E-27
9.99315E-01 9.74744E-27
9.99524E-01 9.66368E-27
9.99695E-01 9.59520E-27
9.99829E-01 9.54196E-27
9.99924E-01 9.50395E-27
9.99981E-01 9.48115E-27
1.00000E+00 9.47355E-27
