 #
 # Subroutine ELSEPA. Elastic scattering of electrons and positrons
 #                    by neutral atoms and positive ions
 #
 # Projectile: positron
 # Kinetic energy = 1.75000E+08 eV = 6.43113E+06 a.u.
 #
 # WARNING: High-energy factorization with free-atom DF screening.
 #          Absorption, polarization and exchange corrections are
 #          switched off.
 #          Phase shifts are calculated for the bare nucleus.
 #          Scattering amplitudes are not evaluated.
 #
 # Element: Zr,  Z =  40,  atomic weight = 9.12240E+01 g/mol
 #
 # Nuclear model: Fermi distribution
 #                Average radius = 4.81674E-13 cm
 #                Skin thickness = 5.46000E-14 cm
 #
 # Number of electrons = 40
 #
 # Total elastic cross section = 4.06573E-18 cm**2 = 1.45190E-01 a0**2
 # 1st transport cross section = 1.02824E-25 cm**2 = 3.67191E-09 a0**2
 # 2nd transport cross section = 3.07394E-25 cm**2 = 1.09772E-08 a0**2
 #
 #
 # Differential cross section:                       MU=(1-COS(THETA))/2
 #
 #  THETA        MU          DCS          DCS        Sherman      error
 #  (deg)                 (cm**2/sr)   (a0**2/sr)    function
 #----------------------------------------------------------------------
0.00000E+00 1.71444E-09
7.61557E-13 1.69302E-09
1.18994E-12 1.68117E-09
1.71346E-12 1.66686E-09
2.33225E-12 1.65019E-09
3.04617E-12 1.63128E-09
3.85530E-12 1.61026E-09
4.75964E-12 1.58727E-09
5.75917E-12 1.56245E-09
6.85391E-12 1.53597E-09
8.04379E-12 1.50799E-09
9.32893E-12 1.47867E-09
1.07092E-11 1.44816E-09
1.21847E-11 1.41665E-09
1.37554E-11 1.38431E-09
1.54213E-11 1.35126E-09
1.71823E-11 1.31768E-09
1.90386E-11 1.28375E-09
2.09900E-11 1.24955E-09
2.30367E-11 1.21523E-09
2.51785E-11 1.18098E-09
2.74156E-11 1.14683E-09
2.97478E-11 1.11287E-09
3.21752E-11 1.07934E-09
3.46979E-11 1.04619E-09
3.73157E-11 1.01348E-09
4.00286E-11 9.81430E-10
4.28368E-11 9.49973E-10
4.57402E-11 9.19131E-10
4.87388E-11 8.89087E-10
5.18325E-11 8.59781E-10
5.50215E-11 8.31189E-10
5.83057E-11 8.03455E-10
6.16850E-11 7.76548E-10
6.51595E-11 7.50398E-10
6.87293E-11 7.25107E-10
7.23943E-11 7.00679E-10
7.61544E-11 6.77011E-10
1.18991E-10 4.82818E-10
1.71347E-10 3.51570E-10
2.33223E-10 2.62844E-10
3.04617E-10 2.01401E-10
3.85531E-10 1.57476E-10
4.75965E-10 1.25107E-10
5.75917E-10 1.00625E-10
6.85389E-10 8.17704E-11
8.04380E-10 6.66379E-11
9.32891E-10 5.48114E-11
1.07092E-09 4.58491E-11
1.21847E-09 3.86262E-11
1.37554E-09 3.25352E-11
1.54213E-09 2.77514E-11
1.71823E-09 2.38713E-11
1.90386E-09 2.05513E-11
2.09900E-09 1.78642E-11
2.30367E-09 1.56521E-11
2.51785E-09 1.37278E-11
2.74156E-09 1.21314E-11
2.97478E-09 1.07961E-11
3.21752E-09 9.60808E-12
3.46978E-09 8.60219E-12
3.73156E-09 7.74538E-12
4.00286E-09 6.97353E-12
4.28368E-09 6.30443E-12
4.57402E-09 5.72616E-12
4.87388E-09 5.20066E-12
5.18326E-09 4.73534E-12
5.50215E-09 4.32848E-12
5.83057E-09 3.95750E-12
6.16850E-09 3.62287E-12
6.51596E-09 3.32747E-12
6.87293E-09 3.05825E-12
7.23942E-09 2.81173E-12
7.61544E-09 2.59237E-12
1.18991E-08 1.21740E-12
1.71347E-08 6.30439E-13
2.33223E-08 3.56403E-13
3.04617E-08 2.17075E-13
3.85531E-08 1.40265E-13
4.75965E-08 9.49116E-14
5.75917E-08 6.66199E-14
6.85389E-08 4.81482E-14
8.04380E-08 3.56166E-14
9.32891E-08 2.69201E-14
1.07092E-07 2.07082E-14
1.21847E-07 1.61646E-14
1.37554E-07 1.27964E-14
1.54213E-07 1.02572E-14
1.71823E-07 8.31457E-15
1.90386E-07 6.80888E-15
2.09900E-07 5.62675E-15
2.30367E-07 4.69008E-15
2.51785E-07 3.94032E-15
2.74156E-07 3.33454E-15
2.97478E-07 2.84079E-15
3.21752E-07 2.43504E-15
3.46978E-07 2.09932E-15
3.73156E-07 1.81961E-15
4.00286E-07 1.58505E-15
4.28368E-07 1.38717E-15
4.57402E-07 1.21923E-15
4.87388E-07 1.07602E-15
5.18325E-07 9.53268E-16
5.50215E-07 8.47567E-16
5.83057E-07 7.56148E-16
6.16850E-07 6.76727E-16
6.51596E-07 6.07484E-16
6.87293E-07 5.46889E-16
7.23942E-07 4.93676E-16
7.61543E-07 4.46788E-16
1.18991E-06 1.85153E-16
1.71347E-06 8.99666E-17
2.33223E-06 4.87998E-17
3.04617E-06 2.86979E-17
3.85531E-06 1.79548E-17
4.75964E-06 1.17977E-17
5.75916E-06 8.06629E-18
6.85388E-06 5.69948E-18
8.04378E-06 4.14008E-18
9.32888E-06 3.07913E-18
1.07092E-05 2.33714E-18
1.21846E-05 1.80569E-18
1.37553E-05 1.41701E-18
1.54212E-05 1.12747E-18
1.71822E-05 9.08224E-19
1.90385E-05 7.39622E-19
2.09899E-05 6.08609E-19
2.30365E-05 5.05326E-19
2.51783E-05 4.23001E-19
2.74153E-05 3.56739E-19
2.97475E-05 3.02935E-19
3.21749E-05 2.58898E-19
3.46974E-05 2.22584E-19
3.73152E-05 1.92428E-19
4.00281E-05 1.67216E-19
4.28362E-05 1.46004E-19
4.57395E-05 1.28050E-19
4.87380E-05 1.12769E-19
5.18317E-05 9.96964E-20
5.50205E-05 8.84610E-20
5.83045E-05 7.87629E-20
6.16838E-05 7.03577E-20
6.51582E-05 6.30449E-20
6.87277E-05 5.66588E-20
7.23925E-05 5.10617E-20
7.61524E-05 4.61581E-20
9.21439E-05 3.15101E-20
1.09658E-04 2.22353E-20
1.28695E-04 1.61347E-20
1.49255E-04 1.19882E-20
1.71338E-04 9.09166E-21
1.94942E-04 7.01862E-21
2.20070E-04 5.50371E-21
2.46720E-04 4.37598E-21
2.74892E-04 3.52250E-21
3.04586E-04 2.86711E-21
3.35803E-04 2.35706E-21
3.68542E-04 1.95541E-21
4.02802E-04 1.63564E-21
4.38585E-04 1.37853E-21
4.75889E-04 1.16992E-21
5.14715E-04 9.99227E-22
5.55063E-04 8.58493E-22
5.96931E-04 7.41624E-22
6.40321E-04 6.43930E-22
6.85233E-04 5.61762E-22
7.31665E-04 4.92250E-22
7.79618E-04 4.33132E-22
8.29092E-04 3.82596E-22
8.80086E-04 3.39194E-22
9.32601E-04 3.01752E-22
9.86636E-04 2.69314E-22
1.04219E-03 2.41102E-22
1.09927E-03 2.16471E-22
1.15786E-03 1.94892E-22
1.21797E-03 1.75921E-22
1.27961E-03 1.59192E-22
1.34276E-03 1.44393E-22
1.40743E-03 1.31264E-22
1.47362E-03 1.19584E-22
1.54133E-03 1.09167E-22
1.61056E-03 9.98512E-23
1.68131E-03 9.15013E-23
1.75357E-03 8.39997E-23
1.82735E-03 7.72452E-23
1.90265E-03 7.11505E-23
1.97947E-03 6.56401E-23
2.05780E-03 6.06481E-23
2.13765E-03 5.61174E-23
2.21902E-03 5.19979E-23
2.30190E-03 4.82457E-23
2.38630E-03 4.48224E-23
2.47222E-03 4.16941E-23
2.55965E-03 3.88310E-23
2.64859E-03 3.62065E-23
2.73905E-03 3.37975E-23
2.83103E-03 3.15830E-23
2.92452E-03 2.95446E-23
3.01952E-03 2.76659E-23
3.11604E-03 2.59321E-23
3.21407E-03 2.43301E-23
3.31362E-03 2.28481E-23
3.41468E-03 2.14755E-23
3.51725E-03 2.02029E-23
3.62133E-03 1.90216E-23
3.72692E-03 1.79240E-23
3.83403E-03 1.69032E-23
3.94265E-03 1.59527E-23
4.05278E-03 1.50669E-23
4.16442E-03 1.42406E-23
4.27757E-03 1.34691E-23
4.39223E-03 1.27481E-23
4.50840E-03 1.20738E-23
4.62608E-03 1.14426E-23
4.74527E-03 1.08512E-23
4.86597E-03 1.02968E-23
4.98817E-03 9.77649E-24
5.11188E-03 9.28792E-24
5.23711E-03 8.82880E-24
5.36383E-03 8.39702E-24
5.49207E-03 7.99069E-24
5.62181E-03 7.60804E-24
5.75306E-03 7.24744E-24
5.88581E-03 6.90741E-24
6.02007E-03 6.58656E-24
6.15583E-03 6.28363E-24
6.29310E-03 5.99743E-24
6.43187E-03 5.72689E-24
6.57214E-03 5.47100E-24
6.71392E-03 5.22883E-24
6.85720E-03 4.99951E-24
7.00198E-03 4.78224E-24
7.14827E-03 4.57628E-24
7.29605E-03 4.38095E-24
7.44534E-03 4.19559E-24
7.59612E-03 4.01961E-24
7.97965E-03 3.61713E-24
8.37255E-03 3.26219E-24
8.77480E-03 2.94828E-24
9.18641E-03 2.66992E-24
9.60736E-03 2.42246E-24
1.00376E-02 2.20192E-24
1.04773E-02 2.00493E-24
1.09262E-02 1.82858E-24
1.13844E-02 1.67036E-24
1.18520E-02 1.52814E-24
1.23288E-02 1.40004E-24
1.28150E-02 1.28445E-24
1.33104E-02 1.17995E-24
1.38150E-02 1.08533E-24
1.43290E-02 9.99508E-25
1.48521E-02 9.21541E-25
1.53845E-02 8.50604E-25
1.59262E-02 7.85968E-25
1.64770E-02 7.26992E-25
1.70371E-02 6.73106E-25
1.76063E-02 6.23807E-25
1.81848E-02 5.78649E-25
1.87724E-02 5.37232E-25
1.93692E-02 4.99202E-25
1.99751E-02 4.64243E-25
2.05901E-02 4.32072E-25
2.12143E-02 4.02435E-25
2.18476E-02 3.75106E-25
2.24900E-02 3.49878E-25
2.31415E-02 3.26570E-25
2.38021E-02 3.05014E-25
2.44717E-02 2.85061E-25
2.51504E-02 2.66576E-25
2.58382E-02 2.49437E-25
2.65349E-02 2.33533E-25
2.72407E-02 2.18764E-25
2.79555E-02 2.05037E-25
2.86793E-02 1.92271E-25
2.94120E-02 1.80389E-25
3.01537E-02 1.69322E-25
3.09043E-02 1.59008E-25
3.16639E-02 1.49390E-25
3.24324E-02 1.40414E-25
3.32098E-02 1.32033E-25
3.39961E-02 1.24202E-25
3.47912E-02 1.16881E-25
3.55952E-02 1.10034E-25
3.64081E-02 1.03626E-25
3.72297E-02 9.76255E-26
3.80602E-02 9.20041E-26
3.88995E-02 8.67351E-26
3.97476E-02 8.17940E-26
4.06044E-02 7.71584E-26
4.14700E-02 7.28072E-26
4.23443E-02 6.87214E-26
4.32273E-02 6.48829E-26
4.41190E-02 6.12755E-26
4.50194E-02 5.78837E-26
4.59284E-02 5.46935E-26
4.68461E-02 5.16918E-26
4.87074E-02 4.62057E-26
5.06030E-02 4.13382E-26
5.25328E-02 3.70137E-26
5.44967E-02 3.31668E-26
5.64946E-02 2.97407E-26
5.85262E-02 2.66860E-26
6.05914E-02 2.39596E-26
6.26901E-02 2.15237E-26
6.48222E-02 1.93454E-26
6.69873E-02 1.73957E-26
6.91854E-02 1.56492E-26
7.14163E-02 1.40836E-26
7.36799E-02 1.26791E-26
7.59760E-02 1.14183E-26
7.83043E-02 1.02857E-26
8.06647E-02 9.26783E-27
8.30571E-02 8.35247E-27
8.54812E-02 7.52891E-27
8.79369E-02 6.78761E-27
9.04240E-02 6.12008E-27
9.29422E-02 5.51873E-27
9.54915E-02 4.97683E-27
9.80716E-02 4.48834E-27
1.00682E-01 4.04788E-27
1.03323E-01 3.65062E-27
1.05995E-01 3.29225E-27
1.08696E-01 2.96889E-27
1.11427E-01 2.67710E-27
1.14188E-01 2.41374E-27
1.16978E-01 2.17603E-27
1.19797E-01 1.96145E-27
1.22645E-01 1.76774E-27
1.25522E-01 1.59287E-27
1.28428E-01 1.43500E-27
1.31361E-01 1.29250E-27
1.34323E-01 1.16386E-27
1.37313E-01 1.04776E-27
1.40330E-01 9.42972E-28
1.43375E-01 8.48416E-28
1.46447E-01 7.63104E-28
1.49545E-01 6.86144E-28
1.52671E-01 6.16735E-28
1.55823E-01 5.54148E-28
1.59001E-01 4.97726E-28
1.62205E-01 4.46877E-28
1.65435E-01 4.01063E-28
1.68690E-01 3.59798E-28
1.71970E-01 3.22643E-28
1.75276E-01 2.89201E-28
1.78606E-01 2.59113E-28
1.81961E-01 2.32052E-28
1.85340E-01 2.07724E-28
1.88743E-01 1.85864E-28
1.92169E-01 1.66230E-28
1.95619E-01 1.48604E-28
1.99092E-01 1.32789E-28
2.02589E-01 1.18606E-28
2.06107E-01 1.05895E-28
2.09649E-01 9.45089E-29
2.13212E-01 8.43159E-29
2.16797E-01 7.51968E-29
2.20404E-01 6.70437E-29
2.24032E-01 5.97591E-29
2.27680E-01 5.32551E-29
2.31350E-01 4.74521E-29
2.35040E-01 4.22784E-29
2.38751E-01 3.76692E-29
2.42481E-01 3.35660E-29
2.46231E-01 2.99161E-29
2.50000E-01 2.66721E-29
2.53788E-01 2.37911E-29
2.57595E-01 2.12346E-29
2.61421E-01 1.89678E-29
2.65264E-01 1.69597E-29
2.69126E-01 1.51822E-29
2.73005E-01 1.36100E-29
2.76901E-01 1.22204E-29
2.80814E-01 1.09933E-29
2.84744E-01 9.91043E-30
2.88691E-01 8.95542E-30
2.92653E-01 8.11370E-30
2.96632E-01 7.37223E-30
3.00625E-01 6.71933E-30
3.04634E-01 6.14460E-30
3.08658E-01 5.63873E-30
3.12697E-01 5.19347E-30
3.16749E-01 4.80146E-30
3.20816E-01 4.45614E-30
3.24896E-01 4.15171E-30
3.28990E-01 3.88304E-30
3.33097E-01 3.64555E-30
3.37216E-01 3.43523E-30
3.41348E-01 3.24853E-30
3.45492E-01 3.08231E-30
3.49647E-01 2.93382E-30
3.53814E-01 2.80065E-30
3.57992E-01 2.68068E-30
3.62181E-01 2.57207E-30
3.66381E-01 2.47320E-30
3.70590E-01 2.38268E-30
3.74810E-01 2.29929E-30
3.79039E-01 2.22199E-30
3.83277E-01 2.14987E-30
3.87524E-01 2.08216E-30
3.91780E-01 2.01818E-30
3.96044E-01 1.95739E-30
4.00316E-01 1.89930E-30
4.04596E-01 1.84352E-30
4.08882E-01 1.78970E-30
4.13176E-01 1.73756E-30
4.17476E-01 1.68688E-30
4.21783E-01 1.63747E-30
4.26095E-01 1.58918E-30
4.30413E-01 1.54190E-30
4.34737E-01 1.49551E-30
4.39065E-01 1.44997E-30
4.43398E-01 1.40520E-30
4.47736E-01 1.36119E-30
4.52077E-01 1.31790E-30
4.56422E-01 1.27531E-30
4.60770E-01 1.23344E-30
4.65122E-01 1.19226E-30
4.69476E-01 1.15180E-30
4.73832E-01 1.11206E-30
4.78190E-01 1.07306E-30
4.82550E-01 1.03480E-30
4.86912E-01 9.97304E-31
4.91274E-01 9.60587E-31
4.95637E-01 9.24662E-31
5.00000E-01 8.89543E-31
5.04363E-01 8.55243E-31
5.08726E-01 8.21773E-31
5.13088E-01 7.89142E-31
5.17450E-01 7.57360E-31
5.21810E-01 7.26431E-31
5.26168E-01 6.96361E-31
5.30524E-01 6.67151E-31
5.34878E-01 6.38802E-31
5.39230E-01 6.11314E-31
5.43578E-01 5.84682E-31
5.47923E-01 5.58902E-31
5.52264E-01 5.33967E-31
5.56602E-01 5.09871E-31
5.60935E-01 4.86603E-31
5.65263E-01 4.64152E-31
5.69587E-01 4.42507E-31
5.73905E-01 4.21655E-31
5.78217E-01 4.01582E-31
5.82524E-01 3.82272E-31
5.86824E-01 3.63711E-31
5.91118E-01 3.45881E-31
5.95404E-01 3.28765E-31
5.99684E-01 3.12347E-31
6.03956E-01 2.96608E-31
6.08220E-01 2.81530E-31
6.12476E-01 2.67095E-31
6.16723E-01 2.53283E-31
6.20961E-01 2.40076E-31
6.25190E-01 2.27455E-31
6.29410E-01 2.15402E-31
6.33619E-01 2.03896E-31
6.37819E-01 1.92921E-31
6.42008E-01 1.82457E-31
6.46186E-01 1.72486E-31
6.50353E-01 1.62990E-31
6.54508E-01 1.53952E-31
6.58652E-01 1.45353E-31
6.62784E-01 1.37177E-31
6.66903E-01 1.29407E-31
6.71010E-01 1.22026E-31
6.75104E-01 1.15019E-31
6.79184E-01 1.08370E-31
6.83251E-01 1.02064E-31
6.87303E-01 9.60856E-32
6.91342E-01 9.04209E-32
6.95366E-01 8.50560E-32
6.99375E-01 7.99773E-32
7.03368E-01 7.51718E-32
7.07347E-01 7.06270E-32
7.11309E-01 6.63306E-32
7.15256E-01 6.22709E-32
7.19186E-01 5.84366E-32
7.23099E-01 5.48168E-32
7.26995E-01 5.14010E-32
7.30874E-01 4.81792E-32
7.34736E-01 4.51416E-32
7.38579E-01 4.22790E-32
7.42405E-01 3.95825E-32
7.46212E-01 3.70435E-32
7.50000E-01 3.46539E-32
7.53769E-01 3.24058E-32
7.57519E-01 3.02917E-32
7.61249E-01 2.83047E-32
7.64960E-01 2.64377E-32
7.68650E-01 2.46843E-32
7.72320E-01 2.30383E-32
7.75968E-01 2.14937E-32
7.79596E-01 2.00450E-32
7.83203E-01 1.86868E-32
7.86788E-01 1.74140E-32
7.90351E-01 1.62216E-32
7.93893E-01 1.51052E-32
7.97411E-01 1.40602E-32
8.00908E-01 1.30826E-32
8.04381E-01 1.21685E-32
8.07831E-01 1.13140E-32
8.11257E-01 1.05156E-32
8.14660E-01 9.77000E-33
8.18039E-01 9.07397E-33
8.21394E-01 8.42453E-33
8.24724E-01 7.81880E-33
8.28030E-01 7.25410E-33
8.31310E-01 6.72788E-33
8.34565E-01 6.23776E-33
8.37795E-01 5.78144E-33
8.40999E-01 5.35680E-33
8.44177E-01 4.96181E-33
8.47329E-01 4.59457E-33
8.50455E-01 4.25329E-33
8.53553E-01 3.93628E-33
8.56625E-01 3.64193E-33
8.59670E-01 3.36877E-33
8.62687E-01 3.11538E-33
8.65677E-01 2.88043E-33
8.68639E-01 2.66269E-33
8.71572E-01 2.46098E-33
8.74478E-01 2.27422E-33
8.77355E-01 2.10136E-33
8.80203E-01 1.94145E-33
8.83022E-01 1.79359E-33
8.85812E-01 1.65691E-33
8.88573E-01 1.53064E-33
8.91304E-01 1.41403E-33
8.94005E-01 1.30638E-33
8.96677E-01 1.20704E-33
8.99318E-01 1.11541E-33
9.01928E-01 1.03092E-33
9.04508E-01 9.53045E-34
9.07058E-01 8.81282E-34
9.09576E-01 8.15177E-34
9.12063E-01 7.54300E-34
9.14519E-01 6.98249E-34
9.16943E-01 6.46653E-34
9.19335E-01 5.99166E-34
9.21696E-01 5.55467E-34
9.24024E-01 5.15256E-34
9.26320E-01 4.78256E-34
9.28584E-01 4.44209E-34
9.30815E-01 4.12877E-34
9.33013E-01 3.84038E-34
9.35178E-01 3.57488E-34
9.37310E-01 3.33036E-34
9.39409E-01 3.10508E-34
9.41474E-01 2.89742E-34
9.43505E-01 2.70590E-34
9.45503E-01 2.52913E-34
9.47467E-01 2.36585E-34
9.49397E-01 2.21488E-34
9.51293E-01 2.07516E-34
9.53154E-01 1.94571E-34
9.54981E-01 1.82562E-34
9.56773E-01 1.71407E-34
9.58530E-01 1.61030E-34
9.60252E-01 1.51362E-34
9.61940E-01 1.42340E-34
9.63592E-01 1.33906E-34
9.65209E-01 1.26008E-34
9.66790E-01 1.18599E-34
9.68336E-01 1.11636E-34
9.69846E-01 1.05080E-34
9.71321E-01 9.88948E-35
9.72759E-01 9.30492E-35
9.74162E-01 8.75177E-35
9.75528E-01 8.22704E-35
9.76858E-01 7.72877E-35
9.78152E-01 7.25473E-35
9.79410E-01 6.80322E-35
9.80631E-01 6.37250E-35
9.81815E-01 5.96143E-35
9.82963E-01 5.56851E-35
9.84074E-01 5.19281E-35
9.85148E-01 4.83329E-35
9.86185E-01 4.48916E-35
9.87185E-01 4.15977E-35
9.88148E-01 3.84460E-35
9.89074E-01 3.54306E-35
9.89962E-01 3.25473E-35
9.90814E-01 2.97919E-35
9.91627E-01 2.71641E-35
9.92404E-01 2.46592E-35
9.93143E-01 2.22773E-35
9.93844E-01 2.00167E-35
9.94508E-01 1.78760E-35
9.95134E-01 1.58548E-35
9.95722E-01 1.39542E-35
9.96273E-01 1.21723E-35
9.96786E-01 1.05104E-35
9.97261E-01 8.96907E-36
9.97698E-01 7.54707E-36
9.98097E-01 6.24670E-36
9.98459E-01 5.06858E-36
9.98782E-01 4.01187E-36
9.99067E-01 3.07776E-36
9.99315E-01 2.26727E-36
9.99524E-01 1.58073E-36
9.99695E-01 1.01832E-36
9.99829E-01 5.79983E-37
9.99924E-01 2.66996E-37
9.99981E-01 7.89387E-38
1.00000E+00 1.63973E-38
