 #
 # Subroutine ELSEPA. Elastic scattering of electrons and positrons
 #                    by neutral atoms and positive ions
 #
 # Projectile: positron
 # Kinetic energy = 5.00000E+08 eV = 1.83747E+07 a.u.
 #
 # WARNING: High-energy factorization with free-atom DF screening.
 #          Absorption, polarization and exchange corrections are
 #          switched off.
 #          Phase shifts are calculated for the bare nucleus.
 #          Scattering amplitudes are not evaluated.
 #
 # Element: Zr,  Z =  40,  atomic weight = 9.12240E+01 g/mol
 #
 # Nuclear model: Fermi distribution
 #                Average radius = 4.81674E-13 cm
 #                Skin thickness = 5.46000E-14 cm
 #
 # Number of electrons = 40
 #
 # Total elastic cross section = 4.05956E-18 cm**2 = 1.44970E-01 a0**2
 # 1st transport cross section = 1.27434E-26 cm**2 = 4.55076E-10 a0**2
 # 2nd transport cross section = 3.82136E-26 cm**2 = 1.36463E-09 a0**2
 #
 #
 # Differential cross section:                       MU=(1-COS(THETA))/2
 #
 #  THETA        MU          DCS          DCS        Sherman      error
 #  (deg)                 (cm**2/sr)   (a0**2/sr)    function
 #----------------------------------------------------------------------
0.00000E+00 1.39425E-08
7.61557E-13 1.26204E-08
1.18994E-12 1.19618E-08
1.71346E-12 1.12283E-08
2.33225E-12 1.04504E-08
3.04617E-12 9.65600E-09
3.85530E-12 8.86849E-09
4.75964E-12 8.10653E-09
5.75917E-12 7.38365E-09
6.85391E-12 6.70900E-09
8.04379E-12 6.08734E-09
9.32893E-12 5.52006E-09
1.07092E-11 5.00645E-09
1.21847E-11 4.54410E-09
1.37554E-11 4.12959E-09
1.54213E-11 3.75896E-09
1.71823E-11 3.42804E-09
1.90386E-11 3.13269E-09
2.09900E-11 2.86900E-09
2.30367E-11 2.63330E-09
2.51785E-11 2.42227E-09
2.74156E-11 2.23289E-09
2.97478E-11 2.06255E-09
3.21752E-11 1.90895E-09
3.46979E-11 1.77009E-09
3.73157E-11 1.64422E-09
4.00286E-11 1.52983E-09
4.28368E-11 1.42559E-09
4.57402E-11 1.33038E-09
4.87388E-11 1.24320E-09
5.18325E-11 1.16319E-09
5.50215E-11 1.08960E-09
5.83057E-11 1.02170E-09
6.16850E-11 9.58988E-10
6.51595E-11 9.00995E-10
6.87293E-11 8.47279E-10
7.23943E-11 7.97453E-10
7.61544E-11 7.51175E-10
1.18991E-10 4.24973E-10
1.71347E-10 2.59830E-10
2.33223E-10 1.68053E-10
3.04617E-10 1.14333E-10
3.85531E-10 8.11894E-11
4.75965E-10 5.96465E-11
5.75917E-10 4.49658E-11
6.85389E-10 3.45277E-11
8.04380E-10 2.68978E-11
9.32891E-10 2.12108E-11
1.07092E-09 1.69003E-11
1.21847E-09 1.35910E-11
1.37554E-09 1.10237E-11
1.54213E-09 9.01469E-12
1.71823E-09 7.43001E-12
1.90386E-09 6.17079E-12
2.09900E-09 5.16313E-12
2.30367E-09 4.35136E-12
2.51785E-09 3.69110E-12
2.74156E-09 3.15159E-12
2.97478E-09 2.70806E-12
3.21752E-09 2.34087E-12
3.46978E-09 2.03478E-12
3.73156E-09 1.77790E-12
4.00286E-09 1.56093E-12
4.28368E-09 1.37656E-12
4.57402E-09 1.21901E-12
4.87388E-09 1.08367E-12
5.18326E-09 9.66859E-13
5.50215E-09 8.65578E-13
5.83057E-09 7.77354E-13
6.16850E-09 7.00213E-13
6.51596E-09 6.32498E-13
6.87293E-09 5.72831E-13
7.23942E-09 5.20066E-13
7.61544E-09 4.73250E-13
1.18991E-08 2.04194E-13
1.71347E-08 1.01514E-13
2.33223E-08 5.57922E-14
3.04617E-08 3.30891E-14
3.85531E-08 2.08405E-14
4.75965E-08 1.37735E-14
5.75917E-08 9.46693E-15
6.85389E-08 6.72138E-15
8.04380E-08 4.90403E-15
9.32891E-08 3.66206E-15
1.07092E-07 2.78973E-15
1.21847E-07 2.16244E-15
1.37554E-07 1.70199E-15
1.54213E-07 1.35780E-15
1.71823E-07 1.09634E-15
1.90386E-07 8.94860E-16
2.09900E-07 7.37580E-16
2.30367E-07 6.13355E-16
2.51785E-07 5.14192E-16
2.74156E-07 4.34266E-16
2.97478E-07 3.69270E-16
3.21752E-07 3.15978E-16
3.46978E-07 2.71954E-16
3.73156E-07 2.35329E-16
4.00286E-07 2.04662E-16
4.28368E-07 1.78826E-16
4.57402E-07 1.56938E-16
4.87388E-07 1.38296E-16
5.18325E-07 1.22339E-16
5.50215E-07 1.08617E-16
5.83057E-07 9.67641E-17
6.16850E-07 8.64837E-17
6.51596E-07 7.75320E-17
6.87293E-07 6.97083E-17
7.23942E-07 6.28464E-17
7.61543E-07 5.68078E-17
1.18991E-06 2.33064E-17
1.71347E-06 1.12479E-17
2.33223E-06 6.07350E-18
3.04617E-06 3.56073E-18
3.85531E-06 2.22306E-18
4.75964E-06 1.45853E-18
5.75916E-06 9.96145E-19
6.85388E-06 7.03290E-19
8.04378E-06 5.10557E-19
9.32888E-06 3.79541E-19
1.07092E-05 2.87975E-19
1.21846E-05 2.22426E-19
1.37553E-05 1.74508E-19
1.54212E-05 1.38824E-19
1.71822E-05 1.11810E-19
1.90385E-05 9.10415E-20
2.09899E-05 7.49066E-20
2.30365E-05 6.21885E-20
2.51783E-05 5.20529E-20
2.74153E-05 4.38959E-20
2.97475E-05 3.72732E-20
3.21749E-05 3.18531E-20
3.46974E-05 2.73840E-20
3.73152E-05 2.36730E-20
4.00281E-05 2.05707E-20
4.28362E-05 1.79607E-20
4.57395E-05 1.57516E-20
4.87380E-05 1.38714E-20
5.18317E-05 1.22631E-20
5.50205E-05 1.08809E-20
5.83045E-05 9.68784E-21
6.16838E-05 8.65386E-21
6.51582E-05 7.75427E-21
6.87277E-05 6.96869E-21
7.23925E-05 6.28018E-21
7.61524E-05 5.66615E-21
9.21439E-05 3.86397E-21
1.09658E-04 2.72327E-21
1.28695E-04 1.97329E-21
1.49255E-04 1.46378E-21
1.71338E-04 1.10809E-21
1.94942E-04 8.53695E-22
2.20070E-04 6.67935E-22
2.46720E-04 5.29774E-22
2.74892E-04 4.25314E-22
3.04586E-04 3.45187E-22
3.35803E-04 2.82904E-22
3.68542E-04 2.33921E-22
4.02802E-04 1.94979E-22
4.38585E-04 1.63715E-22
4.75889E-04 1.38391E-22
5.14715E-04 1.17707E-22
5.55063E-04 1.00685E-22
5.96931E-04 8.65778E-23
6.40321E-04 7.48104E-23
6.85233E-04 6.49351E-23
7.31665E-04 5.66009E-23
7.79618E-04 4.95303E-23
8.29092E-04 4.35022E-23
8.80086E-04 3.83391E-23
9.32601E-04 3.38977E-23
9.86636E-04 3.00617E-23
1.04219E-03 2.67357E-23
1.09927E-03 2.38415E-23
1.15786E-03 2.13144E-23
1.21797E-03 1.91008E-23
1.27961E-03 1.71557E-23
1.34276E-03 1.54417E-23
1.40743E-03 1.39271E-23
1.47362E-03 1.25852E-23
1.54133E-03 1.13934E-23
1.61056E-03 1.03323E-23
1.68131E-03 9.38545E-24
1.75357E-03 8.53877E-24
1.82735E-03 7.78007E-24
1.90265E-03 7.09886E-24
1.97947E-03 6.48610E-24
2.05780E-03 5.93389E-24
2.13765E-03 5.43540E-24
2.21902E-03 4.98467E-24
2.30190E-03 4.57646E-24
2.38630E-03 4.20621E-24
2.47222E-03 3.86990E-24
2.55965E-03 3.56398E-24
2.64859E-03 3.28534E-24
2.73905E-03 3.03122E-24
2.83103E-03 2.79917E-24
2.92452E-03 2.58702E-24
3.01952E-03 2.39285E-24
3.11604E-03 2.21493E-24
3.21407E-03 2.05173E-24
3.31362E-03 1.90188E-24
3.41468E-03 1.76415E-24
3.51725E-03 1.63745E-24
3.62133E-03 1.52077E-24
3.72692E-03 1.41324E-24
3.83403E-03 1.31405E-24
3.94265E-03 1.22249E-24
4.05278E-03 1.13789E-24
4.16442E-03 1.05967E-24
4.27757E-03 9.87296E-25
4.39223E-03 9.20283E-25
4.50840E-03 8.58191E-25
4.62608E-03 8.00622E-25
4.74527E-03 7.47212E-25
4.86597E-03 6.97631E-25
4.98817E-03 6.51577E-25
5.11188E-03 6.08774E-25
5.23711E-03 5.68971E-25
5.36383E-03 5.31940E-25
5.49207E-03 4.97468E-25
5.62181E-03 4.65364E-25
5.75306E-03 4.35451E-25
5.88581E-03 4.07567E-25
6.02007E-03 3.81562E-25
6.15583E-03 3.57300E-25
6.29310E-03 3.34655E-25
6.43187E-03 3.13511E-25
6.57214E-03 2.93761E-25
6.71392E-03 2.75306E-25
6.85720E-03 2.58056E-25
7.00198E-03 2.41927E-25
7.14827E-03 2.26840E-25
7.29605E-03 2.12725E-25
7.44534E-03 1.99515E-25
7.59612E-03 1.87148E-25
7.97965E-03 1.59557E-25
8.37255E-03 1.36111E-25
8.77480E-03 1.16160E-25
9.18641E-03 9.91623E-26
9.60736E-03 8.46659E-26
1.00376E-02 7.22919E-26
1.04773E-02 6.17219E-26
1.09262E-02 5.26874E-26
1.13844E-02 4.49620E-26
1.18520E-02 3.83538E-26
1.23288E-02 3.27001E-26
1.28150E-02 2.78628E-26
1.33104E-02 2.37242E-26
1.38150E-02 2.01840E-26
1.43290E-02 1.71566E-26
1.48521E-02 1.45687E-26
1.53845E-02 1.23579E-26
1.59262E-02 1.04702E-26
1.64770E-02 8.85987E-27
1.70371E-02 7.48725E-27
1.76063E-02 6.31846E-27
1.81848E-02 5.32437E-27
1.87724E-02 4.47993E-27
1.93692E-02 3.76361E-27
1.99751E-02 3.15689E-27
2.05901E-02 2.64386E-27
2.12143E-02 2.21081E-27
2.18476E-02 1.84600E-27
2.24900E-02 1.53930E-27
2.31415E-02 1.28203E-27
2.38021E-02 1.06674E-27
2.44717E-02 8.87031E-28
2.51504E-02 7.37423E-28
2.58382E-02 6.13228E-28
2.65349E-02 5.10433E-28
2.72407E-02 4.25616E-28
2.79555E-02 3.55856E-28
2.86793E-02 2.98670E-28
2.94120E-02 2.51946E-28
3.01537E-02 2.13896E-28
3.09043E-02 1.83008E-28
3.16639E-02 1.58006E-28
3.24324E-02 1.37817E-28
3.32098E-02 1.21543E-28
3.39961E-02 1.08433E-28
3.47912E-02 9.78636E-29
3.55952E-02 8.93171E-29
3.64081E-02 8.23683E-29
3.72297E-02 7.66687E-29
3.80602E-02 7.19350E-29
3.88995E-02 6.79383E-29
3.97476E-02 6.44957E-29
4.06044E-02 6.14621E-29
4.14700E-02 5.87244E-29
4.23443E-02 5.61954E-29
4.32273E-02 5.38092E-29
4.41190E-02 5.15174E-29
4.50194E-02 4.92856E-29
4.59284E-02 4.70903E-29
4.68461E-02 4.49172E-29
4.87074E-02 4.06114E-29
5.06030E-02 3.63606E-29
5.25328E-02 3.22018E-29
5.44967E-02 2.81909E-29
5.64946E-02 2.43859E-29
5.85262E-02 2.08373E-29
6.05914E-02 1.75836E-29
6.26901E-02 1.46495E-29
6.48222E-02 1.20460E-29
6.69873E-02 9.77222E-30
6.91854E-02 7.81715E-30
7.14163E-02 6.16222E-30
7.36799E-02 4.78339E-30
7.59760E-02 3.65320E-30
7.83043E-02 2.74254E-30
8.06647E-02 2.02209E-30
8.30571E-02 1.46340E-30
8.54812E-02 1.03974E-30
8.79369E-02 7.26657E-31
9.04240E-02 5.02294E-31
9.29422E-02 3.47537E-31
9.54915E-02 2.46028E-31
9.80716E-02 1.84049E-31
1.00682E-01 1.50350E-31
1.03323E-01 1.35908E-31
1.05995E-01 1.33672E-31
1.08696E-01 1.38294E-31
1.11427E-01 1.45860E-31
1.14188E-01 1.53644E-31
1.16978E-01 1.59868E-31
1.19797E-01 1.63505E-31
1.22645E-01 1.64087E-31
1.25522E-01 1.61562E-31
1.28428E-01 1.56156E-31
1.31361E-01 1.48277E-31
1.34323E-01 1.38430E-31
1.37313E-01 1.27155E-31
1.40330E-01 1.14981E-31
1.43375E-01 1.02398E-31
1.46447E-01 8.98332E-32
1.49545E-01 7.76413E-32
1.52671E-01 6.61031E-32
1.55823E-01 5.54251E-32
1.59001E-01 4.57456E-32
1.62205E-01 3.71420E-32
1.65435E-01 2.96399E-32
1.68690E-01 2.32228E-32
1.71970E-01 1.78409E-32
1.75276E-01 1.34202E-32
1.78606E-01 9.87034E-33
1.81961E-01 7.09141E-33
1.85340E-01 4.97973E-33
1.88743E-01 3.43245E-33
1.92169E-01 2.35121E-33
1.95619E-01 1.64470E-33
1.99092E-01 1.23042E-33
2.02589E-01 1.03572E-33
2.06107E-01 9.98194E-34
2.09649E-01 1.06561E-33
2.13212E-01 1.19544E-33
2.16797E-01 1.35414E-33
2.20404E-01 1.51628E-33
2.24032E-01 1.66351E-33
2.27680E-01 1.78350E-33
2.31350E-01 1.86899E-33
2.35040E-01 1.91670E-33
2.38751E-01 1.92655E-33
2.42481E-01 1.90072E-33
2.46231E-01 1.84306E-33
2.50000E-01 1.75841E-33
2.53788E-01 1.65214E-33
2.57595E-01 1.52975E-33
2.61421E-01 1.39658E-33
2.65264E-01 1.25755E-33
2.69126E-01 1.11708E-33
2.73005E-01 9.78913E-34
2.76901E-01 8.46148E-34
2.80814E-01 7.21202E-34
2.84744E-01 6.05853E-34
2.88691E-01 5.01280E-34
2.92653E-01 4.08142E-34
2.96632E-01 3.26638E-34
3.00625E-01 2.56592E-34
3.04634E-01 1.97524E-34
3.08658E-01 1.48724E-34
3.12697E-01 1.09321E-34
3.16749E-01 7.83371E-35
3.20816E-01 5.47432E-35
3.24896E-01 3.74995E-35
3.28990E-01 2.55928E-35
3.33097E-01 1.80603E-35
3.37216E-01 1.40130E-35
3.41348E-01 1.26465E-35
3.45492E-01 1.32506E-35
3.49647E-01 1.52119E-35
3.53814E-01 1.80131E-35
3.57992E-01 2.12294E-35
3.62181E-01 2.45230E-35
3.66381E-01 2.76344E-35
3.70590E-01 3.03755E-35
3.74810E-01 3.26189E-35
3.79039E-01 3.42895E-35
3.83277E-01 3.53553E-35
3.87524E-01 3.58189E-35
3.91780E-01 3.57105E-35
3.96044E-01 3.50783E-35
4.00316E-01 3.39862E-35
4.04596E-01 3.25043E-35
4.08882E-01 3.07079E-35
4.13176E-01 2.86716E-35
4.17476E-01 2.64672E-35
4.21783E-01 2.41622E-35
4.26095E-01 2.18166E-35
4.30413E-01 1.94842E-35
4.34737E-01 1.72102E-35
4.39065E-01 1.50314E-35
4.43398E-01 1.29779E-35
4.47736E-01 1.10707E-35
4.52077E-01 9.32509E-36
4.56422E-01 7.75000E-36
4.60770E-01 6.34869E-36
4.65122E-01 5.11979E-36
4.69476E-01 4.05824E-36
4.73832E-01 3.15612E-36
4.78190E-01 2.40282E-36
4.82550E-01 1.78639E-36
4.86912E-01 1.29370E-36
4.91274E-01 9.10997E-37
4.95637E-01 6.24548E-37
5.00000E-01 4.20807E-37
5.04363E-01 2.86843E-37
5.08726E-01 2.10387E-37
5.13088E-01 1.80202E-37
5.17450E-01 1.86038E-37
5.21810E-01 2.18772E-37
5.26168E-01 2.70421E-37
5.30524E-01 3.34089E-37
5.34878E-01 4.03996E-37
5.39230E-01 4.75391E-37
5.43578E-01 5.44439E-37
5.47923E-01 6.08180E-37
5.52264E-01 6.64468E-37
5.56602E-01 7.11831E-37
5.60935E-01 7.49313E-37
5.65263E-01 7.76559E-37
5.69587E-01 7.93545E-37
5.73905E-01 8.00666E-37
5.78217E-01 7.98454E-37
5.82524E-01 7.87752E-37
5.86824E-01 7.69432E-37
5.91118E-01 7.44490E-37
5.95404E-01 7.13971E-37
5.99684E-01 6.78958E-37
6.03956E-01 6.40414E-37
6.08220E-01 5.99311E-37
6.12476E-01 5.56583E-37
6.16723E-01 5.12990E-37
6.20961E-01 4.69308E-37
6.25190E-01 4.26158E-37
6.29410E-01 3.84106E-37
6.33619E-01 3.43569E-37
6.37819E-01 3.04961E-37
6.42008E-01 2.68550E-37
6.46186E-01 2.34563E-37
6.50353E-01 2.03100E-37
6.54508E-01 1.74290E-37
6.58652E-01 1.48129E-37
6.62784E-01 1.24602E-37
6.66903E-01 1.03644E-37
6.71010E-01 8.51686E-38
6.75104E-01 6.90452E-38
6.79184E-01 5.51288E-38
6.83251E-01 4.32764E-38
6.87303E-01 3.33166E-38
6.91342E-01 2.50788E-38
6.95366E-01 1.83957E-38
6.99375E-01 1.30972E-38
7.03368E-01 9.02261E-39
7.07347E-01 6.01236E-39
7.11309E-01 3.92322E-39
7.15256E-01 2.61131E-39
7.19186E-01 1.95128E-39
7.23099E-01 1.82492E-39
7.26995E-01 2.12577E-39
7.30874E-01 2.75787E-39
7.34736E-01 3.63827E-39
7.38579E-01 4.68796E-39
7.42405E-01 5.84725E-39
7.46212E-01 7.06005E-39
7.50000E-01 8.28044E-39
7.53769E-01 9.47512E-39
7.57519E-01 1.06058E-38
7.61249E-01 1.16502E-38
7.64960E-01 1.25994E-38
7.68650E-01 1.34284E-38
7.72320E-01 1.41380E-38
7.75968E-01 1.47239E-38
7.79596E-01 1.51844E-38
7.83203E-01 1.55216E-38
7.86788E-01 1.57364E-38
7.90351E-01 1.58387E-38
7.93893E-01 1.58332E-38
7.97411E-01 1.57350E-38
8.00908E-01 1.55455E-38
8.04381E-01 1.52767E-38
8.07831E-01 1.49339E-38
8.11257E-01 1.45300E-38
8.14660E-01 1.40712E-38
8.18039E-01 1.35714E-38
8.21394E-01 1.30323E-38
8.24724E-01 1.24692E-38
8.28030E-01 1.18830E-38
8.31310E-01 1.12901E-38
8.34565E-01 1.06811E-38
8.37795E-01 1.00761E-38
8.40999E-01 9.47095E-39
8.44177E-01 8.88049E-39
8.47329E-01 8.29456E-39
8.50455E-01 7.72689E-39
8.53553E-01 7.17711E-39
8.56625E-01 6.65175E-39
8.59670E-01 6.14352E-39
8.62687E-01 5.65969E-39
8.65677E-01 5.20364E-39
8.68639E-01 4.76607E-39
8.71572E-01 4.35536E-39
8.74478E-01 3.96770E-39
8.77355E-01 3.60743E-39
8.80203E-01 3.26967E-39
8.83022E-01 2.95375E-39
8.85812E-01 2.66050E-39
8.88573E-01 2.39251E-39
8.91304E-01 2.14473E-39
8.94005E-01 1.91354E-39
8.96677E-01 1.70595E-39
8.99318E-01 1.51311E-39
9.01928E-01 1.34041E-39
9.04508E-01 1.18031E-39
9.07058E-01 1.04033E-39
9.09576E-01 9.10103E-40
9.12063E-01 7.93050E-40
9.14519E-01 6.89774E-40
9.16943E-01 5.98237E-40
9.19335E-01 5.16308E-40
9.21696E-01 4.43386E-40
9.24024E-01 3.79511E-40
9.26320E-01 3.22651E-40
9.28584E-01 2.73078E-40
9.30815E-01 2.28939E-40
9.33013E-01 1.00000E-45
9.35178E-01 1.00000E-45
9.37310E-01 1.00000E-45
9.39409E-01 1.00000E-45
9.41474E-01 1.00000E-45
9.43505E-01 1.00000E-45
9.45503E-01 1.00000E-45
9.47467E-01 1.00000E-45
9.49397E-01 1.00000E-45
9.51293E-01 1.00000E-45
9.53154E-01 1.00000E-45
9.54981E-01 1.00000E-45
9.56773E-01 1.00000E-45
9.58530E-01 1.00000E-45
9.60252E-01 1.00000E-45
9.61940E-01 1.00000E-45
9.63592E-01 1.00000E-45
9.65209E-01 1.00000E-45
9.66790E-01 1.00000E-45
9.68336E-01 1.00000E-45
9.69846E-01 1.00000E-45
9.71321E-01 1.00000E-45
9.72759E-01 1.00000E-45
9.74162E-01 1.00000E-45
9.75528E-01 1.00000E-45
9.76858E-01 1.00000E-45
9.78152E-01 1.00000E-45
9.79410E-01 1.00000E-45
9.80631E-01 1.00000E-45
9.81815E-01 1.00000E-45
9.82963E-01 1.00000E-45
9.84074E-01 1.00000E-45
9.85148E-01 1.00000E-45
9.86185E-01 1.00000E-45
9.87185E-01 1.00000E-45
9.88148E-01 1.00000E-45
9.89074E-01 1.00000E-45
9.89962E-01 1.00000E-45
9.90814E-01 1.00000E-45
9.91627E-01 1.00000E-45
9.92404E-01 1.00000E-45
9.93143E-01 1.00000E-45
9.93844E-01 1.00000E-45
9.94508E-01 1.00000E-45
9.95134E-01 1.00000E-45
9.95722E-01 1.00000E-45
9.96273E-01 1.00000E-45
9.96786E-01 1.00000E-45
9.97261E-01 1.00000E-45
9.97698E-01 1.00000E-45
9.98097E-01 1.00000E-45
9.98459E-01 1.00000E-45
9.98782E-01 1.00000E-45
9.99067E-01 1.00000E-45
9.99315E-01 1.00000E-45
9.99524E-01 1.00000E-45
9.99695E-01 1.00000E-45
9.99829E-01 1.00000E-45
9.99924E-01 1.00000E-45
9.99981E-01 1.00000E-45
1.00000E+00 1.00000E-45
