 #
 # Subroutine ELSEPA. Elastic scattering of electrons and positrons
 #                    by neutral atoms and positive ions
 #
 # Projectile: electron
 # Kinetic energy = 1.00000E+08 eV = 3.67493E+06 a.u.
 #
 # WARNING: High-energy factorization with free-atom DF screening.
 #          Absorption, polarization and exchange corrections are
 #          switched off.
 #          Phase shifts are calculated for the bare nucleus.
 #          Scattering amplitudes are not evaluated.
 #
 # Element: Hg,  Z =  80,  atomic weight = 2.00590E+02 g/mol
 #
 # Nuclear model: Fermi distribution
 #                Average radius = 6.26355E-13 cm
 #                Skin thickness = 5.46000E-14 cm
 #
 # Number of electrons = 80
 #
 # Total elastic cross section = 7.89490E-18 cm**2 = 2.81932E-01 a0**2
 # 1st transport cross section = 1.20628E-24 cm**2 = 4.30770E-08 a0**2
 # 2nd transport cross section = 3.59003E-24 cm**2 = 1.28202E-07 a0**2
 #
 #
 # Differential cross section:                       MU=(1-COS(THETA))/2
 #
 #  THETA        MU          DCS          DCS        Sherman      error
 #  (deg)                 (cm**2/sr)   (a0**2/sr)    function
 #----------------------------------------------------------------------
0.00000E+00 4.29473E-10
7.61557E-13 4.28770E-10
1.18994E-12 4.28377E-10
1.71346E-12 4.27898E-10
2.33225E-12 4.27334E-10
3.04617E-12 4.26684E-10
3.85530E-12 4.25951E-10
4.75964E-12 4.25133E-10
5.75917E-12 4.24234E-10
6.85391E-12 4.23252E-10
8.04379E-12 4.22190E-10
9.32893E-12 4.21049E-10
1.07092E-11 4.19829E-10
1.21847E-11 4.18532E-10
1.37554E-11 4.17159E-10
1.54213E-11 4.15713E-10
1.71823E-11 4.14193E-10
1.90386E-11 4.12601E-10
2.09900E-11 4.10941E-10
2.30367E-11 4.09207E-10
2.51785E-11 4.07388E-10
2.74156E-11 4.05514E-10
2.97478E-11 4.03589E-10
3.21752E-11 4.01616E-10
3.46979E-11 3.99597E-10
3.73157E-11 3.97480E-10
4.00286E-11 3.95299E-10
4.28368E-11 3.93080E-10
4.57402E-11 3.90826E-10
4.87388E-11 3.88539E-10
5.18325E-11 3.86198E-10
5.50215E-11 3.83755E-10
5.83057E-11 3.81286E-10
6.16850E-11 3.78796E-10
6.51595E-11 3.76287E-10
6.87293E-11 3.73762E-10
7.23943E-11 3.71128E-10
7.61544E-11 3.68458E-10
1.18991E-10 3.40677E-10
1.71347E-10 3.11537E-10
2.33223E-10 2.82373E-10
3.04617E-10 2.54381E-10
3.85531E-10 2.28232E-10
4.75965E-10 2.04268E-10
5.75917E-10 1.82599E-10
6.85389E-10 1.63175E-10
8.04380E-10 1.45822E-10
9.32891E-10 1.30435E-10
1.07092E-09 1.16816E-10
1.21847E-09 1.04772E-10
1.37554E-09 9.41182E-11
1.54213E-09 8.46842E-11
1.71823E-09 7.63094E-11
1.90386E-09 6.88851E-11
2.09900E-09 6.22939E-11
2.30367E-09 5.63444E-11
2.51785E-09 5.07240E-11
2.74156E-09 4.59377E-11
2.97478E-09 4.18372E-11
3.21752E-09 3.83040E-11
3.46978E-09 3.52429E-11
3.73156E-09 3.22043E-11
4.00286E-09 2.94166E-11
4.28368E-09 2.69853E-11
4.57402E-09 2.48553E-11
4.87388E-09 2.29810E-11
5.18326E-09 2.12694E-11
5.50215E-09 1.95939E-11
5.83057E-09 1.81101E-11
6.16850E-09 1.67914E-11
6.51596E-09 1.56155E-11
6.87293E-09 1.45633E-11
7.23942E-09 1.35421E-11
7.61544E-09 1.26058E-11
1.18991E-08 6.70311E-12
1.71347E-08 3.91446E-12
2.33223E-08 2.43127E-12
3.04617E-08 1.58138E-12
3.85531E-08 1.06696E-12
4.75965E-08 7.43230E-13
5.75917E-08 5.33173E-13
6.85389E-08 3.91993E-13
8.04380E-08 2.95248E-13
9.32891E-08 2.27087E-13
1.07092E-07 1.77720E-13
1.21847E-07 1.41152E-13
1.37554E-07 1.13584E-13
1.54213E-07 9.24812E-14
1.71823E-07 7.60819E-14
1.90386E-07 6.31690E-14
2.09900E-07 5.28807E-14
2.30367E-07 4.45936E-14
2.51785E-07 3.78514E-14
2.74156E-07 3.23881E-14
2.97478E-07 2.78329E-14
3.21752E-07 2.40796E-14
3.46978E-07 2.09217E-14
3.73156E-07 1.82742E-14
4.00286E-07 1.60288E-14
4.28368E-07 1.41191E-14
4.57402E-07 1.24864E-14
4.87388E-07 1.10805E-14
5.18325E-07 9.87005E-15
5.50215E-07 8.81668E-15
5.83057E-07 7.90379E-15
6.16850E-07 7.10206E-15
6.51596E-07 6.40228E-15
6.87293E-07 5.78426E-15
7.23942E-07 5.24039E-15
7.61543E-07 4.75808E-15
1.18991E-06 2.02331E-15
1.71347E-06 1.00124E-15
2.33223E-06 5.50913E-16
3.04617E-06 3.27609E-16
3.85531E-06 2.06769E-16
4.75964E-06 1.36804E-16
5.75916E-06 9.40591E-17
6.85388E-06 6.67698E-17
8.04378E-06 4.86937E-17
9.32888E-06 3.63409E-17
1.07092E-05 2.76688E-17
1.21846E-05 2.14368E-17
1.37553E-05 1.68654E-17
1.54212E-05 1.34506E-17
1.71822E-05 1.08585E-17
1.90385E-05 8.85674E-18
2.09899E-05 7.30519E-18
2.30365E-05 6.07798E-18
2.51783E-05 5.09654E-18
2.74153E-05 4.30429E-18
2.97475E-05 3.65963E-18
3.21749E-05 3.13127E-18
3.46974E-05 2.69522E-18
3.73152E-05 2.33287E-18
4.00281E-05 2.02969E-18
4.28362E-05 1.77432E-18
4.57395E-05 1.55788E-18
4.87380E-05 1.37338E-18
5.18317E-05 1.21532E-18
5.50205E-05 1.07930E-18
5.83045E-05 9.61768E-19
6.16838E-05 8.59820E-19
6.51582E-05 7.71058E-19
6.87277E-05 6.93489E-19
7.23925E-05 6.25455E-19
7.61524E-05 5.65618E-19
9.21439E-05 3.87211E-19
1.09658E-04 2.73940E-19
1.28695E-04 1.99262E-19
1.49255E-04 1.48397E-19
1.71338E-04 1.12793E-19
1.94942E-04 8.72669E-20
2.20070E-04 6.85799E-20
2.46720E-04 5.46453E-20
2.74892E-04 4.40831E-20
3.04586E-04 3.59587E-20
3.35803E-04 2.96267E-20
3.68542E-04 2.46324E-20
4.02802E-04 2.06501E-20
4.38585E-04 1.74434E-20
4.75889E-04 1.48374E-20
5.14715E-04 1.27020E-20
5.55063E-04 1.09385E-20
5.96931E-04 9.47184E-21
6.40321E-04 8.24389E-21
6.85233E-04 7.20939E-21
7.31665E-04 6.33289E-21
7.79618E-04 5.58618E-21
8.29092E-04 4.94685E-21
8.80086E-04 4.39685E-21
9.32601E-04 3.92156E-21
9.86636E-04 3.50911E-21
1.04219E-03 3.14977E-21
1.09927E-03 2.83550E-21
1.15786E-03 2.55967E-21
1.21797E-03 2.31677E-21
1.27961E-03 2.10216E-21
1.34276E-03 1.91198E-21
1.40743E-03 1.74295E-21
1.47362E-03 1.59229E-21
1.54133E-03 1.45767E-21
1.61056E-03 1.33706E-21
1.68131E-03 1.22874E-21
1.75357E-03 1.13124E-21
1.82735E-03 1.04328E-21
1.90265E-03 9.63752E-22
1.97947E-03 8.91706E-22
2.05780E-03 8.26310E-22
2.13765E-03 7.66836E-22
2.21902E-03 7.12650E-22
2.30190E-03 6.63197E-22
2.38630E-03 6.17985E-22
2.47222E-03 5.76586E-22
2.55965E-03 5.38620E-22
2.64859E-03 5.03753E-22
2.73905E-03 4.71660E-22
2.83103E-03 4.42090E-22
2.92452E-03 4.14814E-22
3.01952E-03 3.89619E-22
3.11604E-03 3.66317E-22
3.21407E-03 3.44739E-22
3.31362E-03 3.24734E-22
3.41468E-03 3.06165E-22
3.51725E-03 2.88910E-22
3.62133E-03 2.72857E-22
3.72692E-03 2.57908E-22
3.83403E-03 2.43973E-22
3.94265E-03 2.30968E-22
4.05278E-03 2.18821E-22
4.16442E-03 2.07464E-22
4.27757E-03 1.96836E-22
4.39223E-03 1.86880E-22
4.50840E-03 1.77548E-22
4.62608E-03 1.68791E-22
4.74527E-03 1.60568E-22
4.86597E-03 1.52840E-22
4.98817E-03 1.45571E-22
5.11188E-03 1.38729E-22
5.23711E-03 1.32284E-22
5.36383E-03 1.26209E-22
5.49207E-03 1.20478E-22
5.62181E-03 1.15068E-22
5.75306E-03 1.09957E-22
5.88581E-03 1.05127E-22
6.02007E-03 1.00557E-22
6.15583E-03 9.62329E-23
6.29310E-03 9.21375E-23
6.43187E-03 8.82566E-23
6.57214E-03 8.45769E-23
6.71392E-03 8.10859E-23
6.85720E-03 7.77721E-23
7.00198E-03 7.46248E-23
7.14827E-03 7.16339E-23
7.29605E-03 6.87903E-23
7.44534E-03 6.60852E-23
7.59612E-03 6.35106E-23
7.97965E-03 5.75973E-23
8.37255E-03 5.23497E-23
8.77480E-03 4.76798E-23
9.18641E-03 4.35127E-23
9.60736E-03 3.97848E-23
1.00376E-02 3.64416E-23
1.04773E-02 3.34365E-23
1.09262E-02 3.07291E-23
1.13844E-02 2.82849E-23
1.18520E-02 2.60737E-23
1.23288E-02 2.40694E-23
1.28150E-02 2.22493E-23
1.33104E-02 2.05935E-23
1.38150E-02 1.90845E-23
1.43290E-02 1.77071E-23
1.48521E-02 1.64479E-23
1.53845E-02 1.52949E-23
1.59262E-02 1.42376E-23
1.64770E-02 1.32667E-23
1.70371E-02 1.23740E-23
1.76063E-02 1.15521E-23
1.81848E-02 1.07944E-23
1.87724E-02 1.00950E-23
1.93692E-02 9.44882E-24
1.99751E-02 8.85100E-24
2.05901E-02 8.29735E-24
2.12143E-02 7.78409E-24
2.18476E-02 7.30777E-24
2.24900E-02 6.86531E-24
2.31415E-02 6.45391E-24
2.38021E-02 6.07104E-24
2.44717E-02 5.71440E-24
2.51504E-02 5.38191E-24
2.58382E-02 5.07169E-24
2.65349E-02 4.78200E-24
2.72407E-02 4.51128E-24
2.79555E-02 4.25809E-24
2.86793E-02 4.02113E-24
2.94120E-02 3.79919E-24
3.01537E-02 3.59119E-24
3.09043E-02 3.39612E-24
3.16639E-02 3.21305E-24
3.24324E-02 3.04114E-24
3.32098E-02 2.87962E-24
3.39961E-02 2.72776E-24
3.47912E-02 2.58490E-24
3.55952E-02 2.45044E-24
3.64081E-02 2.32381E-24
3.72297E-02 2.20450E-24
3.80602E-02 2.09203E-24
3.88995E-02 1.98594E-24
3.97476E-02 1.88584E-24
4.06044E-02 1.79133E-24
4.14700E-02 1.70207E-24
4.23443E-02 1.61773E-24
4.32273E-02 1.53800E-24
4.41190E-02 1.46259E-24
4.50194E-02 1.39125E-24
4.59284E-02 1.32373E-24
4.68461E-02 1.25980E-24
4.87074E-02 1.14186E-24
5.06030E-02 1.03590E-24
5.25328E-02 9.40576E-25
5.44967E-02 8.54703E-25
5.64946E-02 7.77253E-25
5.85262E-02 7.07320E-25
6.05914E-02 6.44105E-25
6.26901E-02 5.86903E-25
6.48222E-02 5.35093E-25
6.69873E-02 4.88124E-25
6.91854E-02 4.45505E-25
7.14163E-02 4.06801E-25
7.36799E-02 3.71627E-25
7.59760E-02 3.39636E-25
7.83043E-02 3.10521E-25
8.06647E-02 2.84005E-25
8.30571E-02 2.59841E-25
8.54812E-02 2.37808E-25
8.79369E-02 2.17708E-25
9.04240E-02 1.99361E-25
9.29422E-02 1.82606E-25
9.54915E-02 1.67299E-25
9.80716E-02 1.53307E-25
1.00682E-01 1.40514E-25
1.03323E-01 1.28812E-25
1.05995E-01 1.18105E-25
1.08696E-01 1.08304E-25
1.11427E-01 9.93311E-26
1.14188E-01 9.11134E-26
1.16978E-01 8.35856E-26
1.19797E-01 7.66883E-26
1.22645E-01 7.03673E-26
1.25522E-01 6.45734E-26
1.28428E-01 5.92617E-26
1.31361E-01 5.43915E-26
1.34323E-01 4.99254E-26
1.37313E-01 4.58294E-26
1.40330E-01 4.20725E-26
1.43375E-01 3.86262E-26
1.46447E-01 3.54648E-26
1.49545E-01 3.25644E-26
1.52671E-01 2.99035E-26
1.55823E-01 2.74621E-26
1.59001E-01 2.52222E-26
1.62205E-01 2.31670E-26
1.65435E-01 2.12813E-26
1.68690E-01 1.95512E-26
1.71970E-01 1.79639E-26
1.75276E-01 1.65075E-26
1.78606E-01 1.51715E-26
1.81961E-01 1.39458E-26
1.85340E-01 1.28214E-26
1.88743E-01 1.17899E-26
1.92169E-01 1.08439E-26
1.95619E-01 9.97609E-27
1.99092E-01 9.18022E-27
2.02589E-01 8.45031E-27
2.06107E-01 7.78094E-27
2.09649E-01 7.16711E-27
2.13212E-01 6.60425E-27
2.16797E-01 6.08813E-27
2.20404E-01 5.61491E-27
2.24032E-01 5.18101E-27
2.27680E-01 4.78318E-27
2.31350E-01 4.41842E-27
2.35040E-01 4.08398E-27
2.38751E-01 3.77732E-27
2.42481E-01 3.49613E-27
2.46231E-01 3.23827E-27
2.50000E-01 3.00179E-27
2.53788E-01 2.78487E-27
2.57595E-01 2.58589E-27
2.61421E-01 2.40331E-27
2.65264E-01 2.23576E-27
2.69126E-01 2.08195E-27
2.73005E-01 1.94072E-27
2.76901E-01 1.81100E-27
2.80814E-01 1.69179E-27
2.84744E-01 1.58221E-27
2.88691E-01 1.48142E-27
2.92653E-01 1.38868E-27
2.96632E-01 1.30328E-27
3.00625E-01 1.22459E-27
3.04634E-01 1.15204E-27
3.08658E-01 1.08509E-27
3.12697E-01 1.02326E-27
3.16749E-01 9.66107E-28
3.20816E-01 9.13221E-28
3.24896E-01 8.64234E-28
3.28990E-01 8.18808E-28
3.33097E-01 7.76635E-28
3.37216E-01 7.37433E-28
3.41348E-01 7.00946E-28
3.45492E-01 6.66941E-28
3.49647E-01 6.35203E-28
3.53814E-01 6.05539E-28
3.57992E-01 5.77772E-28
3.62181E-01 5.51742E-28
3.66381E-01 5.27302E-28
3.70590E-01 5.04319E-28
3.74810E-01 4.82674E-28
3.79039E-01 4.62256E-28
3.83277E-01 4.42965E-28
3.87524E-01 4.24711E-28
3.91780E-01 4.07413E-28
3.96044E-01 3.90996E-28
4.00316E-01 3.75392E-28
4.04596E-01 3.60541E-28
4.08882E-01 3.46387E-28
4.13176E-01 3.32879E-28
4.17476E-01 3.19973E-28
4.21783E-01 3.07628E-28
4.26095E-01 2.95805E-28
4.30413E-01 2.84472E-28
4.34737E-01 2.73597E-28
4.39065E-01 2.63152E-28
4.43398E-01 2.53113E-28
4.47736E-01 2.43457E-28
4.52077E-01 2.34162E-28
4.56422E-01 2.25210E-28
4.60770E-01 2.16583E-28
4.65122E-01 2.08266E-28
4.69476E-01 2.00244E-28
4.73832E-01 1.92504E-28
4.78190E-01 1.85035E-28
4.82550E-01 1.77824E-28
4.86912E-01 1.70861E-28
4.91274E-01 1.64138E-28
4.95637E-01 1.57645E-28
5.00000E-01 1.51375E-28
5.04363E-01 1.45318E-28
5.08726E-01 1.39470E-28
5.13088E-01 1.33821E-28
5.17450E-01 1.28367E-28
5.21810E-01 1.23102E-28
5.26168E-01 1.18018E-28
5.30524E-01 1.13112E-28
5.34878E-01 1.08378E-28
5.39230E-01 1.03811E-28
5.43578E-01 9.94061E-29
5.47923E-01 9.51587E-29
5.52264E-01 9.10644E-29
5.56602E-01 8.71188E-29
5.60935E-01 8.33177E-29
5.65263E-01 7.96571E-29
5.69587E-01 7.61329E-29
5.73905E-01 7.27413E-29
5.78217E-01 6.94783E-29
5.82524E-01 6.63404E-29
5.86824E-01 6.33237E-29
5.91118E-01 6.04248E-29
5.95404E-01 5.76402E-29
5.99684E-01 5.49663E-29
6.03956E-01 5.23998E-29
6.08220E-01 4.99373E-29
6.12476E-01 4.75756E-29
6.16723E-01 4.53116E-29
6.20961E-01 4.31420E-29
6.25190E-01 4.10638E-29
6.29410E-01 3.90740E-29
6.33619E-01 3.71695E-29
6.37819E-01 3.53476E-29
6.42008E-01 3.36053E-29
6.46186E-01 3.19399E-29
6.50353E-01 3.03486E-29
6.54508E-01 2.88289E-29
6.58652E-01 2.73780E-29
6.62784E-01 2.59935E-29
6.66903E-01 2.46729E-29
6.71010E-01 2.34137E-29
6.75104E-01 2.22136E-29
6.79184E-01 2.10704E-29
6.83251E-01 1.99817E-29
6.87303E-01 1.89454E-29
6.91342E-01 1.79594E-29
6.95366E-01 1.70216E-29
6.99375E-01 1.61300E-29
7.03368E-01 1.52827E-29
7.07347E-01 1.44779E-29
7.11309E-01 1.37136E-29
7.15256E-01 1.29882E-29
7.19186E-01 1.22999E-29
7.23099E-01 1.16472E-29
7.26995E-01 1.10283E-29
7.30874E-01 1.04418E-29
7.34736E-01 9.88612E-30
7.38579E-01 9.35991E-30
7.42405E-01 8.86177E-30
7.46212E-01 8.39037E-30
7.50000E-01 7.94442E-30
7.53769E-01 7.52269E-30
7.57519E-01 7.12400E-30
7.61249E-01 6.74721E-30
7.64960E-01 6.39124E-30
7.68650E-01 6.05503E-30
7.72320E-01 5.73757E-30
7.75968E-01 5.43791E-30
7.79596E-01 5.15512E-30
7.83203E-01 4.88831E-30
7.86788E-01 4.63665E-30
7.90351E-01 4.39932E-30
7.93893E-01 4.17556E-30
7.97411E-01 3.96462E-30
8.00908E-01 3.76580E-30
8.04381E-01 3.57843E-30
8.07831E-01 3.40187E-30
8.11257E-01 3.23551E-30
8.14660E-01 3.07877E-30
8.18039E-01 2.93110E-30
8.21394E-01 2.79197E-30
8.24724E-01 2.66088E-30
8.28030E-01 2.53737E-30
8.31310E-01 2.42097E-30
8.34565E-01 2.31127E-30
8.37795E-01 2.20786E-30
8.40999E-01 2.11036E-30
8.44177E-01 2.01840E-30
8.47329E-01 1.93164E-30
8.50455E-01 1.84976E-30
8.53553E-01 1.77245E-30
8.56625E-01 1.69942E-30
8.59670E-01 1.63040E-30
8.62687E-01 1.56513E-30
8.65677E-01 1.50336E-30
8.68639E-01 1.44488E-30
8.71572E-01 1.38946E-30
8.74478E-01 1.33690E-30
8.77355E-01 1.28701E-30
8.80203E-01 1.23962E-30
8.83022E-01 1.19456E-30
8.85812E-01 1.15167E-30
8.88573E-01 1.11080E-30
8.91304E-01 1.07181E-30
8.94005E-01 1.03459E-30
8.96677E-01 9.99002E-31
8.99318E-01 9.64942E-31
9.01928E-01 9.32304E-31
9.04508E-01 9.00991E-31
9.07058E-01 8.70912E-31
9.09576E-01 8.41984E-31
9.12063E-01 8.14129E-31
9.14519E-01 7.87275E-31
9.16943E-01 7.61353E-31
9.19335E-01 7.36304E-31
9.21696E-01 7.12069E-31
9.24024E-01 6.88596E-31
9.26320E-01 6.65836E-31
9.28584E-01 6.43745E-31
9.30815E-01 6.22282E-31
9.33013E-01 6.01410E-31
9.35178E-01 5.81093E-31
9.37310E-01 5.61302E-31
9.39409E-01 5.42007E-31
9.41474E-01 5.23182E-31
9.43505E-01 5.04805E-31
9.45503E-01 4.86855E-31
9.47467E-01 4.69312E-31
9.49397E-01 4.52159E-31
9.51293E-01 4.35382E-31
9.53154E-01 4.18966E-31
9.54981E-01 4.02901E-31
9.56773E-01 3.87175E-31
9.58530E-01 3.71780E-31
9.60252E-01 3.56707E-31
9.61940E-01 3.41951E-31
9.63592E-01 3.27505E-31
9.65209E-01 3.13365E-31
9.66790E-01 2.99527E-31
9.68336E-01 2.85988E-31
9.69846E-01 2.72745E-31
9.71321E-01 2.59798E-31
9.72759E-01 2.47144E-31
9.74162E-01 2.34785E-31
9.75528E-01 2.22719E-31
9.76858E-01 2.10947E-31
9.78152E-01 1.99469E-31
9.79410E-01 1.88288E-31
9.80631E-01 1.77405E-31
9.81815E-01 1.66820E-31
9.82963E-01 1.56537E-31
9.84074E-01 1.46557E-31
9.85148E-01 1.36883E-31
9.86185E-01 1.27517E-31
9.87185E-01 1.18461E-31
9.88148E-01 1.09719E-31
9.89074E-01 1.01292E-31
9.89962E-01 9.31842E-32
9.90814E-01 8.53973E-32
9.91627E-01 7.79343E-32
9.92404E-01 7.07979E-32
9.93143E-01 6.39908E-32
9.93844E-01 5.75154E-32
9.94508E-01 5.13744E-32
9.95134E-01 4.55701E-32
9.95722E-01 4.01050E-32
9.96273E-01 3.49812E-32
9.96786E-01 3.02010E-32
9.97261E-01 2.57664E-32
9.97698E-01 2.16792E-32
9.98097E-01 1.79413E-32
9.98459E-01 1.45543E-32
9.98782E-01 1.15196E-32
9.99067E-01 8.83879E-33
9.99315E-01 6.51292E-33
9.99524E-01 4.54307E-33
9.99695E-01 2.93014E-33
9.99829E-01 1.67487E-33
9.99924E-01 7.77836E-34
9.99981E-01 2.39453E-34
1.00000E+00 5.99583E-35
