 #
 # Subroutine ELSEPA. Elastic scattering of electrons and positrons
 #                    by neutral atoms and positive ions
 #
 # Projectile: electron
 # Kinetic energy = 4.50000E+07 eV = 1.65372E+06 a.u.
 #
 # WARNING: High-energy factorization with free-atom DF screening.
 #          Absorption, polarization and exchange corrections are
 #          switched off.
 #          Phase shifts are calculated for the bare nucleus.
 #          Scattering amplitudes are not evaluated.
 #
 # Element: Hg,  Z =  80,  atomic weight = 2.00590E+02 g/mol
 #
 # Nuclear model: Fermi distribution
 #                Average radius = 6.26355E-13 cm
 #                Skin thickness = 5.46000E-14 cm
 #
 # Number of electrons = 80
 #
 # Total elastic cross section = 7.89503E-18 cm**2 = 2.81937E-01 a0**2
 # 1st transport cross section = 5.91226E-24 cm**2 = 2.11130E-07 a0**2
 # 2nd transport cross section = 1.72507E-23 cm**2 = 6.16034E-07 a0**2
 #
 #
 # Differential cross section:                       MU=(1-COS(THETA))/2
 #
 #  THETA        MU          DCS          DCS        Sherman      error
 #  (deg)                 (cm**2/sr)   (a0**2/sr)    function
 #----------------------------------------------------------------------
0.00000E+00 8.80523E-11
7.61557E-13 8.80225E-11
1.18994E-12 8.80059E-11
1.71346E-12 8.79856E-11
2.33225E-12 8.79617E-11
3.04617E-12 8.79341E-11
3.85530E-12 8.79029E-11
4.75964E-12 8.78681E-11
5.75917E-12 8.78296E-11
6.85391E-12 8.77875E-11
8.04379E-12 8.77417E-11
9.32893E-12 8.76924E-11
1.07092E-11 8.76395E-11
1.21847E-11 8.75830E-11
1.37554E-11 8.75230E-11
1.54213E-11 8.74594E-11
1.71823E-11 8.73923E-11
1.90386E-11 8.73216E-11
2.09900E-11 8.72474E-11
2.30367E-11 8.71698E-11
2.51785E-11 8.70886E-11
2.74156E-11 8.70041E-11
2.97478E-11 8.69160E-11
3.21752E-11 8.68246E-11
3.46979E-11 8.67297E-11
3.73157E-11 8.66315E-11
4.00286E-11 8.65300E-11
4.28368E-11 8.64250E-11
4.57402E-11 8.63168E-11
4.87388E-11 8.62053E-11
5.18325E-11 8.60905E-11
5.50215E-11 8.59725E-11
5.83057E-11 8.58512E-11
6.16850E-11 8.57268E-11
6.51595E-11 8.55992E-11
6.87293E-11 8.54685E-11
7.23943E-11 8.53346E-11
7.61544E-11 8.51977E-11
1.18991E-10 8.36610E-11
1.71347E-10 8.18579E-11
2.33223E-10 7.98046E-11
3.04617E-10 7.75493E-11
3.85531E-10 7.51319E-11
4.75965E-10 7.25915E-11
5.75917E-10 6.99650E-11
6.85389E-10 6.72776E-11
8.04380E-10 6.45456E-11
9.32891E-10 6.18171E-11
1.07092E-09 5.91156E-11
1.21847E-09 5.64607E-11
1.37554E-09 5.38679E-11
1.54213E-09 5.13380E-11
1.71823E-09 4.88778E-11
1.90386E-09 4.65098E-11
2.09900E-09 4.42383E-11
2.30367E-09 4.20656E-11
2.51785E-09 3.99920E-11
2.74156E-09 3.80067E-11
2.97478E-09 3.61123E-11
3.21752E-09 3.43147E-11
3.46978E-09 3.26108E-11
3.73156E-09 3.09967E-11
4.00286E-09 2.94689E-11
4.28368E-09 2.80151E-11
4.57402E-09 2.66375E-11
4.87388E-09 2.53357E-11
5.18326E-09 2.41055E-11
5.50215E-09 2.29430E-11
5.83057E-09 2.18443E-11
6.16850E-09 2.07997E-11
6.51596E-09 1.98116E-11
6.87293E-09 1.88779E-11
7.23942E-09 1.79953E-11
7.61544E-09 1.71606E-11
1.18991E-08 1.07950E-11
1.71347E-08 7.12990E-12
2.33223E-08 4.82446E-12
3.04617E-08 3.38705E-12
3.85531E-08 2.45359E-12
4.75965E-08 1.82589E-12
5.75917E-08 1.39048E-12
6.85389E-08 1.07879E-12
8.04380E-08 8.49185E-13
9.32891E-08 6.77998E-13
1.07092E-07 5.47784E-13
1.21847E-07 4.47075E-13
1.37554E-07 3.68100E-13
1.54213E-07 3.05263E-13
1.71823E-07 2.54847E-13
1.90386E-07 2.14282E-13
2.09900E-07 1.81381E-13
2.30367E-07 1.54502E-13
2.51785E-07 1.32403E-13
2.74156E-07 1.14135E-13
2.97478E-07 9.88220E-14
3.21752E-07 8.60189E-14
3.46978E-07 7.52636E-14
3.73156E-07 6.61761E-14
4.00286E-07 5.84527E-14
4.28368E-07 5.18409E-14
4.57402E-07 4.61517E-14
4.87388E-07 4.12331E-14
5.18325E-07 3.69599E-14
5.50215E-07 3.32312E-14
5.83057E-07 2.99648E-14
6.16850E-07 2.70893E-14
6.51596E-07 2.45538E-14
6.87293E-07 2.23115E-14
7.23942E-07 2.03223E-14
7.61543E-07 1.85523E-14
1.18991E-06 8.23020E-15
1.71347E-06 4.19486E-15
2.33223E-06 2.35692E-15
3.04617E-06 1.42372E-15
3.85531E-06 9.09623E-16
4.75964E-06 6.07901E-16
5.75916E-06 4.21566E-16
6.85388E-06 3.01525E-16
8.04378E-06 2.21376E-16
9.32888E-06 1.66201E-16
1.07092E-05 1.27205E-16
1.21846E-05 9.90067E-17
1.37553E-05 7.82053E-17
1.54212E-05 6.25879E-17
1.71822E-05 5.06781E-17
1.90385E-05 4.14435E-17
2.09899E-05 3.42606E-17
2.30365E-05 2.85616E-17
2.51783E-05 2.39911E-17
2.74153E-05 2.02928E-17
2.97475E-05 1.72772E-17
3.21749E-05 1.48010E-17
3.46974E-05 1.27542E-17
3.73152E-05 1.10508E-17
4.00281E-05 9.62373E-18
4.28362E-05 8.42034E-18
4.57395E-05 7.39931E-18
4.87380E-05 6.52813E-18
5.18317E-05 5.78112E-18
5.50205E-05 5.13772E-18
5.83045E-05 4.58134E-18
6.16838E-05 4.09837E-18
6.51582E-05 3.67758E-18
6.87277E-05 3.30961E-18
7.23925E-05 2.98666E-18
7.61524E-05 2.70155E-18
9.21439E-05 1.85293E-18
1.09658E-04 1.31302E-18
1.28695E-04 9.56397E-19
1.49255E-04 7.13089E-19
1.71338E-04 5.42537E-19
1.94942E-04 4.20094E-19
2.20070E-04 3.30353E-19
2.46720E-04 2.63368E-19
2.74892E-04 2.12549E-19
3.04586E-04 1.73430E-19
3.35803E-04 1.42921E-19
3.68542E-04 1.18844E-19
4.02802E-04 9.96374E-20
4.38585E-04 8.41650E-20
4.75889E-04 7.15872E-20
5.14715E-04 6.12784E-20
5.55063E-04 5.27635E-20
5.96931E-04 4.56809E-20
6.40321E-04 3.97505E-20
6.85233E-04 3.47543E-20
7.31665E-04 3.05211E-20
7.79618E-04 2.69150E-20
8.29092E-04 2.38277E-20
8.80086E-04 2.11721E-20
9.32601E-04 1.88775E-20
9.86636E-04 1.68866E-20
1.04219E-03 1.51524E-20
1.09927E-03 1.36360E-20
1.15786E-03 1.23055E-20
1.21797E-03 1.11340E-20
1.27961E-03 1.00993E-20
1.34276E-03 9.18259E-21
1.40743E-03 8.36809E-21
1.47362E-03 7.64237E-21
1.54133E-03 6.99405E-21
1.61056E-03 6.41341E-21
1.68131E-03 5.89213E-21
1.75357E-03 5.42305E-21
1.82735E-03 5.00001E-21
1.90265E-03 4.61769E-21
1.97947E-03 4.27144E-21
2.05780E-03 3.95726E-21
2.13765E-03 3.67164E-21
2.21902E-03 3.41149E-21
2.30190E-03 3.17416E-21
2.38630E-03 2.95725E-21
2.47222E-03 2.75869E-21
2.55965E-03 2.57665E-21
2.64859E-03 2.40949E-21
2.73905E-03 2.25578E-21
2.83103E-03 2.11423E-21
2.92452E-03 1.98370E-21
3.01952E-03 1.86318E-21
3.11604E-03 1.75175E-21
3.21407E-03 1.64860E-21
3.31362E-03 1.55300E-21
3.41468E-03 1.46429E-21
3.51725E-03 1.38188E-21
3.62133E-03 1.30524E-21
3.72692E-03 1.23390E-21
3.83403E-03 1.16741E-21
3.94265E-03 1.10538E-21
4.05278E-03 1.04746E-21
4.16442E-03 9.93318E-22
4.27757E-03 9.42668E-22
4.39223E-03 8.95236E-22
4.50840E-03 8.50782E-22
4.62608E-03 8.09085E-22
4.74527E-03 7.69936E-22
4.86597E-03 7.33149E-22
4.98817E-03 6.98564E-22
5.11188E-03 6.66011E-22
5.23711E-03 6.35354E-22
5.36383E-03 6.06463E-22
5.49207E-03 5.79212E-22
5.62181E-03 5.53492E-22
5.75306E-03 5.29201E-22
5.88581E-03 5.06243E-22
6.02007E-03 4.84531E-22
6.15583E-03 4.63984E-22
6.29310E-03 4.44528E-22
6.43187E-03 4.26092E-22
6.57214E-03 4.08614E-22
6.71392E-03 3.92034E-22
6.85720E-03 3.76296E-22
7.00198E-03 3.61350E-22
7.14827E-03 3.47147E-22
7.29605E-03 3.33644E-22
7.44534E-03 3.20799E-22
7.59612E-03 3.08574E-22
7.97965E-03 2.80493E-22
8.37255E-03 2.55571E-22
8.77480E-03 2.33387E-22
9.18641E-03 2.13587E-22
9.60736E-03 1.95867E-22
1.00376E-02 1.79967E-22
1.04773E-02 1.65667E-22
1.09262E-02 1.52776E-22
1.13844E-02 1.41129E-22
1.18520E-02 1.30584E-22
1.23288E-02 1.21018E-22
1.28150E-02 1.12322E-22
1.33104E-02 1.04400E-22
1.38150E-02 9.71682E-23
1.43290E-02 9.05584E-23
1.48521E-02 8.45066E-23
1.53845E-02 7.89567E-23
1.59262E-02 7.38591E-23
1.64770E-02 6.91698E-23
1.70371E-02 6.48500E-23
1.76063E-02 6.08648E-23
1.81848E-02 5.71834E-23
1.87724E-02 5.37781E-23
1.93692E-02 5.06242E-23
1.99751E-02 4.76995E-23
2.05901E-02 4.49842E-23
2.12143E-02 4.24604E-23
2.18476E-02 4.01118E-23
2.24900E-02 3.79241E-23
2.31415E-02 3.58840E-23
2.38021E-02 3.39796E-23
2.44717E-02 3.22001E-23
2.51504E-02 3.05358E-23
2.58382E-02 2.89777E-23
2.65349E-02 2.75177E-23
2.72407E-02 2.61485E-23
2.79555E-02 2.48633E-23
2.86793E-02 2.36559E-23
2.94120E-02 2.25207E-23
3.01537E-02 2.14525E-23
3.09043E-02 2.04467E-23
3.16639E-02 1.94988E-23
3.24324E-02 1.86049E-23
3.32098E-02 1.77613E-23
3.39961E-02 1.69646E-23
3.47912E-02 1.62117E-23
3.55952E-02 1.54997E-23
3.64081E-02 1.48260E-23
3.72297E-02 1.41881E-23
3.80602E-02 1.35837E-23
3.88995E-02 1.30108E-23
3.97476E-02 1.24673E-23
4.06044E-02 1.19515E-23
4.14700E-02 1.14617E-23
4.23443E-02 1.09963E-23
4.32273E-02 1.05539E-23
4.41190E-02 1.01331E-23
4.50194E-02 9.73266E-24
4.59284E-02 9.35141E-24
4.68461E-02 8.98826E-24
4.87074E-02 8.31219E-24
5.06030E-02 7.69706E-24
5.25328E-02 7.13638E-24
5.44967E-02 6.62448E-24
5.64946E-02 6.15636E-24
5.85262E-02 5.72760E-24
6.05914E-02 5.33431E-24
6.26901E-02 4.97304E-24
6.48222E-02 4.64073E-24
6.69873E-02 4.33465E-24
6.91854E-02 4.05237E-24
7.14163E-02 3.79172E-24
7.36799E-02 3.55077E-24
7.59760E-02 3.32776E-24
7.83043E-02 3.12113E-24
8.06647E-02 2.92949E-24
8.30571E-02 2.75156E-24
8.54812E-02 2.58620E-24
8.79369E-02 2.43237E-24
9.04240E-02 2.28914E-24
9.29422E-02 2.15567E-24
9.54915E-02 2.03117E-24
9.80716E-02 1.91495E-24
1.00682E-01 1.80637E-24
1.03323E-01 1.70486E-24
1.05995E-01 1.60987E-24
1.08696E-01 1.52094E-24
1.11427E-01 1.43760E-24
1.14188E-01 1.35946E-24
1.16978E-01 1.28615E-24
1.19797E-01 1.21732E-24
1.22645E-01 1.15265E-24
1.25522E-01 1.09187E-24
1.28428E-01 1.03470E-24
1.31361E-01 9.80892E-25
1.34323E-01 9.30231E-25
1.37313E-01 8.82504E-25
1.40330E-01 8.37516E-25
1.43375E-01 7.95090E-25
1.46447E-01 7.55060E-25
1.49545E-01 7.17274E-25
1.52671E-01 6.81588E-25
1.55823E-01 6.47872E-25
1.59001E-01 6.16002E-25
1.62205E-01 5.85866E-25
1.65435E-01 5.57356E-25
1.68690E-01 5.30375E-25
1.71970E-01 5.04831E-25
1.75276E-01 4.80638E-25
1.78606E-01 4.57716E-25
1.81961E-01 4.35990E-25
1.85340E-01 4.15392E-25
1.88743E-01 3.95856E-25
1.92169E-01 3.77322E-25
1.95619E-01 3.59731E-25
1.99092E-01 3.43032E-25
2.02589E-01 3.27174E-25
2.06107E-01 3.12110E-25
2.09649E-01 2.97797E-25
2.13212E-01 2.84193E-25
2.16797E-01 2.71260E-25
2.20404E-01 2.58962E-25
2.24032E-01 2.47263E-25
2.27680E-01 2.36133E-25
2.31350E-01 2.25541E-25
2.35040E-01 2.15458E-25
2.38751E-01 2.05858E-25
2.42481E-01 1.96716E-25
2.46231E-01 1.88008E-25
2.50000E-01 1.79711E-25
2.53788E-01 1.71806E-25
2.57595E-01 1.64270E-25
2.61421E-01 1.57087E-25
2.65264E-01 1.50237E-25
2.69126E-01 1.43705E-25
2.73005E-01 1.37474E-25
2.76901E-01 1.31530E-25
2.80814E-01 1.25858E-25
2.84744E-01 1.20445E-25
2.88691E-01 1.15278E-25
2.92653E-01 1.10345E-25
2.96632E-01 1.05636E-25
3.00625E-01 1.01138E-25
3.04634E-01 9.68429E-26
3.08658E-01 9.27397E-26
3.12697E-01 8.88196E-26
3.16749E-01 8.50739E-26
3.20816E-01 8.14943E-26
3.24896E-01 7.80731E-26
3.28990E-01 7.48029E-26
3.33097E-01 7.16765E-26
3.37216E-01 6.86873E-26
3.41348E-01 6.58289E-26
3.45492E-01 6.30952E-26
3.49647E-01 6.04806E-26
3.53814E-01 5.79795E-26
3.57992E-01 5.55868E-26
3.62181E-01 5.32975E-26
3.66381E-01 5.11070E-26
3.70590E-01 4.90106E-26
3.74810E-01 4.70043E-26
3.79039E-01 4.50840E-26
3.83277E-01 4.32457E-26
3.87524E-01 4.14858E-26
3.91780E-01 3.98009E-26
3.96044E-01 3.81875E-26
4.00316E-01 3.66425E-26
4.04596E-01 3.51629E-26
4.08882E-01 3.37458E-26
4.13176E-01 3.23884E-26
4.17476E-01 3.10881E-26
4.21783E-01 2.98425E-26
4.26095E-01 2.86490E-26
4.30413E-01 2.75055E-26
4.34737E-01 2.64098E-26
4.39065E-01 2.53598E-26
4.43398E-01 2.43535E-26
4.47736E-01 2.33890E-26
4.52077E-01 2.24645E-26
4.56422E-01 2.15783E-26
4.60770E-01 2.07288E-26
4.65122E-01 1.99144E-26
4.69476E-01 1.91335E-26
4.73832E-01 1.83848E-26
4.78190E-01 1.76669E-26
4.82550E-01 1.69784E-26
4.86912E-01 1.63181E-26
4.91274E-01 1.56848E-26
4.95637E-01 1.50774E-26
5.00000E-01 1.44948E-26
5.04363E-01 1.39359E-26
5.08726E-01 1.33997E-26
5.13088E-01 1.28853E-26
5.17450E-01 1.23918E-26
5.21810E-01 1.19182E-26
5.26168E-01 1.14638E-26
5.30524E-01 1.10277E-26
5.34878E-01 1.06092E-26
5.39230E-01 1.02075E-26
5.43578E-01 9.82195E-27
5.47923E-01 9.45186E-27
5.52264E-01 9.09660E-27
5.56602E-01 8.75554E-27
5.60935E-01 8.42810E-27
5.65263E-01 8.11371E-27
5.69587E-01 7.81182E-27
5.73905E-01 7.52193E-27
5.78217E-01 7.24353E-27
5.82524E-01 6.97616E-27
5.86824E-01 6.71935E-27
5.91118E-01 6.47267E-27
5.95404E-01 6.23571E-27
5.99684E-01 6.00806E-27
6.03956E-01 5.78935E-27
6.08220E-01 5.57920E-27
6.12476E-01 5.37726E-27
6.16723E-01 5.18320E-27
6.20961E-01 4.99670E-27
6.25190E-01 4.81744E-27
6.29410E-01 4.64514E-27
6.33619E-01 4.47950E-27
6.37819E-01 4.32026E-27
6.42008E-01 4.16715E-27
6.46186E-01 4.01992E-27
6.50353E-01 3.87834E-27
6.54508E-01 3.74218E-27
6.58652E-01 3.61121E-27
6.62784E-01 3.48523E-27
6.66903E-01 3.36403E-27
6.71010E-01 3.24742E-27
6.75104E-01 3.13522E-27
6.79184E-01 3.02724E-27
6.83251E-01 2.92332E-27
6.87303E-01 2.82329E-27
6.91342E-01 2.72699E-27
6.95366E-01 2.63428E-27
6.99375E-01 2.54501E-27
7.03368E-01 2.45904E-27
7.07347E-01 2.37624E-27
7.11309E-01 2.29649E-27
7.15256E-01 2.21966E-27
7.19186E-01 2.14563E-27
7.23099E-01 2.07429E-27
7.26995E-01 2.00554E-27
7.30874E-01 1.93927E-27
7.34736E-01 1.87539E-27
7.38579E-01 1.81379E-27
7.42405E-01 1.75439E-27
7.46212E-01 1.69710E-27
7.50000E-01 1.64184E-27
7.53769E-01 1.58853E-27
7.57519E-01 1.53708E-27
7.61249E-01 1.48744E-27
7.64960E-01 1.43952E-27
7.68650E-01 1.39326E-27
7.72320E-01 1.34859E-27
7.75968E-01 1.30546E-27
7.79596E-01 1.26379E-27
7.83203E-01 1.22354E-27
7.86788E-01 1.18465E-27
7.90351E-01 1.14707E-27
7.93893E-01 1.11075E-27
7.97411E-01 1.07563E-27
8.00908E-01 1.04168E-27
8.04381E-01 1.00884E-27
8.07831E-01 9.77075E-28
8.11257E-01 9.46346E-28
8.14660E-01 9.16611E-28
8.18039E-01 8.87833E-28
8.21394E-01 8.59976E-28
8.24724E-01 8.33006E-28
8.28030E-01 8.06888E-28
8.31310E-01 7.81591E-28
8.34565E-01 7.57086E-28
8.37795E-01 7.33342E-28
8.40999E-01 7.10331E-28
8.44177E-01 6.88027E-28
8.47329E-01 6.66403E-28
8.50455E-01 6.45436E-28
8.53553E-01 6.25102E-28
8.56625E-01 6.05377E-28
8.59670E-01 5.86240E-28
8.62687E-01 5.67670E-28
8.65677E-01 5.49647E-28
8.68639E-01 5.32152E-28
8.71572E-01 5.15167E-28
8.74478E-01 4.98673E-28
8.77355E-01 4.82655E-28
8.80203E-01 4.67095E-28
8.83022E-01 4.51979E-28
8.85812E-01 4.37291E-28
8.88573E-01 4.23017E-28
8.91304E-01 4.09143E-28
8.94005E-01 3.95657E-28
8.96677E-01 3.82546E-28
8.99318E-01 3.69798E-28
9.01928E-01 3.57400E-28
9.04508E-01 3.45344E-28
9.07058E-01 3.33616E-28
9.09576E-01 3.22208E-28
9.12063E-01 3.11110E-28
9.14519E-01 3.00313E-28
9.16943E-01 2.89807E-28
9.19335E-01 2.79583E-28
9.21696E-01 2.69635E-28
9.24024E-01 2.59954E-28
9.26320E-01 2.50532E-28
9.28584E-01 2.41362E-28
9.30815E-01 2.32438E-28
9.33013E-01 2.23752E-28
9.35178E-01 2.15299E-28
9.37310E-01 2.07073E-28
9.39409E-01 1.99067E-28
9.41474E-01 1.91275E-28
9.43505E-01 1.83694E-28
9.45503E-01 1.76317E-28
9.47467E-01 1.69140E-28
9.49397E-01 1.62159E-28
9.51293E-01 1.55368E-28
9.53154E-01 1.48763E-28
9.54981E-01 1.42340E-28
9.56773E-01 1.36096E-28
9.58530E-01 1.30027E-28
9.60252E-01 1.24129E-28
9.61940E-01 1.18398E-28
9.63592E-01 1.12832E-28
9.65209E-01 1.07427E-28
9.66790E-01 1.02180E-28
9.68336E-01 9.70893E-29
9.69846E-01 9.21509E-29
9.71321E-01 8.73627E-29
9.72759E-01 8.27221E-29
9.74162E-01 7.82268E-29
9.75528E-01 7.38745E-29
9.76858E-01 6.96630E-29
9.78152E-01 6.55904E-29
9.79410E-01 6.16545E-29
9.80631E-01 5.78537E-29
9.81815E-01 5.41860E-29
9.82963E-01 5.06499E-29
9.84074E-01 4.72436E-29
9.85148E-01 4.39656E-29
9.86185E-01 4.08145E-29
9.87185E-01 3.77889E-29
9.88148E-01 3.48876E-29
9.89074E-01 3.21091E-29
9.89962E-01 2.94525E-29
9.90814E-01 2.69165E-29
9.91627E-01 2.45001E-29
9.92404E-01 2.22023E-29
9.93143E-01 2.00222E-29
9.93844E-01 1.79589E-29
9.94508E-01 1.60116E-29
9.95134E-01 1.41795E-29
9.95722E-01 1.24619E-29
9.96273E-01 1.08581E-29
9.96786E-01 9.36760E-30
9.97261E-01 7.98970E-30
9.97698E-01 6.72391E-30
9.98097E-01 5.56976E-30
9.98459E-01 4.52683E-30
9.98782E-01 3.59470E-30
9.99067E-01 2.77305E-30
9.99315E-01 2.06156E-30
9.99524E-01 1.45997E-30
9.99695E-01 9.68064E-31
9.99829E-01 5.85656E-31
9.99924E-01 3.12607E-31
9.99981E-01 1.48817E-31
1.00000E+00 9.42278E-32
