 #
 # Subroutine ELSEPA. Elastic scattering of electrons and positrons
 #                    by neutral atoms and positive ions
 #
 # Projectile: electron
 # Kinetic energy = 9.00000E+08 eV = 3.30744E+07 a.u.
 #
 # WARNING: High-energy factorization with free-atom DF screening.
 #          Absorption, polarization and exchange corrections are
 #          switched off.
 #          Phase shifts are calculated for the bare nucleus.
 #          Scattering amplitudes are not evaluated.
 #
 # Element: Hg,  Z =  80,  atomic weight = 2.00590E+02 g/mol
 #
 # Nuclear model: Fermi distribution
 #                Average radius = 6.26355E-13 cm
 #                Skin thickness = 5.46000E-14 cm
 #
 # Number of electrons = 80
 #
 # Total elastic cross section = 7.87551E-18 cm**2 = 2.81239E-01 a0**2
 # 1st transport cross section = 1.48006E-26 cm**2 = 5.28539E-10 a0**2
 # 2nd transport cross section = 4.43965E-26 cm**2 = 1.58543E-09 a0**2
 #
 #
 # Differential cross section:                       MU=(1-COS(THETA))/2
 #
 #  THETA        MU          DCS          DCS        Sherman      error
 #  (deg)                 (cm**2/sr)   (a0**2/sr)    function
 #----------------------------------------------------------------------
0.00000E+00 3.44736E-08
7.61557E-13 3.04381E-08
1.18994E-12 2.85287E-08
1.71346E-12 2.64717E-08
2.33225E-12 2.43590E-08
3.04617E-12 2.22825E-08
3.85530E-12 2.02823E-08
4.75964E-12 1.84019E-08
5.75917E-12 1.66673E-08
6.85391E-12 1.50709E-08
8.04379E-12 1.36247E-08
9.32893E-12 1.23218E-08
1.07092E-11 1.11433E-08
1.21847E-11 1.00890E-08
1.37554E-11 9.14405E-09
1.54213E-11 8.29488E-09
1.71823E-11 7.53598E-09
1.90386E-11 6.85474E-09
2.09900E-11 6.24298E-09
2.30367E-11 5.69486E-09
2.51785E-11 5.20100E-09
2.74156E-11 4.75681E-09
2.97478E-11 4.33384E-09
3.21752E-11 3.95191E-09
3.46979E-11 3.62063E-09
3.73157E-11 3.33192E-09
4.00286E-11 3.07916E-09
4.28368E-11 2.85690E-09
4.57402E-11 2.63990E-09
4.87388E-11 2.43153E-09
5.18325E-11 2.24745E-09
5.50215E-11 2.08422E-09
5.83057E-11 1.93896E-09
6.16850E-11 1.80926E-09
6.51595E-11 1.68596E-09
6.87293E-11 1.56692E-09
7.23943E-11 1.46015E-09
7.61544E-11 1.36411E-09
1.18991E-10 7.37150E-10
1.71347E-10 4.35381E-10
2.33223E-10 2.74148E-10
3.04617E-10 1.81114E-10
3.85531E-10 1.23690E-10
4.75965E-10 8.69568E-11
5.75917E-10 6.27587E-11
6.85389E-10 4.63529E-11
8.04380E-10 3.49575E-11
9.32891E-10 2.68947E-11
1.07092E-09 2.10642E-11
1.21847E-09 1.67575E-11
1.37554E-09 1.35073E-11
1.54213E-09 1.10110E-11
1.71823E-09 9.07069E-12
1.90386E-09 7.54260E-12
2.09900E-09 6.32500E-12
2.30367E-09 5.34462E-12
2.51785E-09 4.54642E-12
2.74156E-09 3.89169E-12
2.97478E-09 3.34850E-12
3.21752E-09 2.89853E-12
3.46978E-09 2.52354E-12
3.73156E-09 2.20486E-12
4.00286E-09 1.93687E-12
4.28368E-09 1.70716E-12
4.57402E-09 1.51093E-12
4.87388E-09 1.34242E-12
5.18326E-09 1.19617E-12
5.50215E-09 1.06998E-12
5.83057E-09 9.59357E-13
6.16850E-09 8.62965E-13
6.51596E-09 7.78363E-13
6.87293E-09 7.03727E-13
7.23942E-09 6.38095E-13
7.61544E-09 5.79589E-13
1.18991E-08 2.47494E-13
1.71347E-08 1.22745E-13
2.33223E-08 6.76455E-14
3.04617E-08 4.02904E-14
3.85531E-08 2.54654E-14
4.75965E-08 1.68687E-14
5.75917E-08 1.16087E-14
6.85389E-08 8.24623E-15
8.04380E-08 6.01670E-15
9.32891E-08 4.49183E-15
1.07092E-07 3.42069E-15
1.21847E-07 2.65060E-15
1.37554E-07 2.08553E-15
1.54213E-07 1.66336E-15
1.71823E-07 1.34283E-15
1.90386E-07 1.09594E-15
2.09900E-07 9.03291E-16
2.30367E-07 7.51184E-16
2.51785E-07 6.29796E-16
2.74156E-07 5.31973E-16
2.97478E-07 4.52429E-16
3.21752E-07 3.87213E-16
3.46978E-07 3.33338E-16
3.73156E-07 2.88517E-16
4.00286E-07 2.50981E-16
4.28368E-07 2.19355E-16
4.57402E-07 1.92558E-16
4.87388E-07 1.69730E-16
5.18325E-07 1.50186E-16
5.50215E-07 1.33376E-16
5.83057E-07 1.18853E-16
6.16850E-07 1.06253E-16
6.51596E-07 9.52795E-17
6.87293E-07 8.56861E-17
7.23942E-07 7.72702E-17
7.61543E-07 6.98623E-17
1.18991E-06 2.87205E-17
1.71347E-06 1.38816E-17
2.33223E-06 7.50410E-18
3.04617E-06 4.40339E-18
3.85531E-06 2.75118E-18
4.75964E-06 1.80617E-18
5.75916E-06 1.23426E-18
6.85388E-06 8.71843E-19
8.04378E-06 6.33215E-19
9.32888E-06 4.70930E-19
1.07092E-05 3.57466E-19
1.21846E-05 2.76211E-19
1.37553E-05 2.16791E-19
1.54212E-05 1.72526E-19
1.71822E-05 1.39006E-19
1.90385E-05 1.13180E-19
2.09899E-05 9.32021E-20
2.30365E-05 7.74306E-20
2.51783E-05 6.48394E-20
2.74153E-05 5.46922E-20
2.97475E-05 4.64483E-20
3.21749E-05 3.97021E-20
3.46974E-05 3.41407E-20
3.73152E-05 2.95233E-20
4.00281E-05 2.56643E-20
4.28362E-05 2.24174E-20
4.57395E-05 1.96682E-20
4.87380E-05 1.73270E-20
5.18317E-05 1.53230E-20
5.50205E-05 1.35999E-20
5.83045E-05 1.21121E-20
6.16838E-05 1.08226E-20
6.51582E-05 9.70060E-21
6.87277E-05 8.72074E-21
7.23925E-05 7.86182E-21
7.61524E-05 7.27914E-21
9.21439E-05 4.96972E-21
1.09658E-04 3.50229E-21
1.28695E-04 2.53433E-21
1.49255E-04 1.87495E-21
1.71338E-04 1.41365E-21
1.94942E-04 1.08327E-21
2.20070E-04 8.41870E-22
2.46720E-04 6.62347E-22
2.74892E-04 5.26752E-22
3.04586E-04 4.22921E-22
3.35803E-04 3.42436E-22
3.68542E-04 2.79359E-22
4.02802E-04 2.29437E-22
4.38585E-04 1.89576E-22
4.75889E-04 1.57490E-22
5.14715E-04 1.31476E-22
5.55063E-04 1.10244E-22
5.96931E-04 9.28097E-23
6.40321E-04 7.84154E-23
6.85233E-04 6.64708E-23
7.31665E-04 5.65135E-23
7.79618E-04 4.81772E-23
8.29092E-04 4.11713E-23
8.80086E-04 3.52622E-23
9.32601E-04 3.02620E-23
9.86636E-04 2.60182E-23
1.04219E-03 2.24063E-23
1.09927E-03 1.93245E-23
1.15786E-03 1.66888E-23
1.21797E-03 1.44300E-23
1.27961E-03 1.24902E-23
1.34276E-03 1.08216E-23
1.40743E-03 9.38378E-24
1.47362E-03 8.14308E-24
1.54133E-03 7.07105E-24
1.61056E-03 6.14362E-24
1.68131E-03 5.34042E-24
1.75357E-03 4.64416E-24
1.82735E-03 4.04006E-24
1.90265E-03 3.51554E-24
1.97947E-03 3.05982E-24
2.05780E-03 2.66365E-24
2.13765E-03 2.31909E-24
2.21902E-03 2.01930E-24
2.30190E-03 1.75839E-24
2.38630E-03 1.53125E-24
2.47222E-03 1.33350E-24
2.55965E-03 1.16130E-24
2.64859E-03 1.01135E-24
2.73905E-03 8.80786E-25
2.83103E-03 7.67106E-25
2.92452E-03 6.68142E-25
3.01952E-03 5.82004E-25
3.11604E-03 5.07047E-25
3.21407E-03 4.41836E-25
3.31362E-03 3.85120E-25
3.41468E-03 3.35809E-25
3.51725E-03 2.92948E-25
3.62133E-03 2.55708E-25
3.72692E-03 2.23361E-25
3.83403E-03 1.95274E-25
3.94265E-03 1.70893E-25
4.05278E-03 1.49734E-25
4.16442E-03 1.31376E-25
4.27757E-03 1.15450E-25
4.39223E-03 1.01635E-25
4.50840E-03 8.96495E-26
4.62608E-03 7.92506E-26
4.74527E-03 7.02250E-26
4.86597E-03 6.23874E-26
4.98817E-03 5.55769E-26
5.11188E-03 4.96532E-26
5.23711E-03 4.44949E-26
5.36383E-03 3.99965E-26
5.49207E-03 3.60667E-26
5.62181E-03 3.26264E-26
5.75306E-03 2.96074E-26
5.88581E-03 2.69506E-26
6.02007E-03 2.46054E-26
6.15583E-03 2.25281E-26
6.29310E-03 2.06811E-26
6.43187E-03 1.90324E-26
6.57214E-03 1.75543E-26
6.71392E-03 1.62234E-26
6.85720E-03 1.50196E-26
7.00198E-03 1.39260E-26
7.14827E-03 1.29279E-26
7.29605E-03 1.20132E-26
7.44534E-03 1.11715E-26
7.59612E-03 1.03939E-26
7.97965E-03 8.68488E-27
8.37255E-03 7.24641E-27
8.77480E-03 6.02144E-27
9.18641E-03 4.97224E-27
9.60736E-03 4.07305E-27
1.00376E-02 3.30519E-27
1.04773E-02 2.65396E-27
1.09262E-02 2.10685E-27
1.13844E-02 1.65246E-27
1.18520E-02 1.28002E-27
1.23288E-02 9.79189E-28
1.28150E-02 7.40080E-28
1.33104E-02 5.53334E-28
1.38150E-02 4.10245E-28
1.43290E-02 3.02870E-28
1.48521E-02 2.24114E-28
1.53845E-02 1.67770E-28
1.59262E-02 1.28531E-28
1.64770E-02 1.01967E-28
1.70371E-02 8.44680E-29
1.76063E-02 7.31724E-29
1.81848E-02 6.58821E-29
1.87724E-02 6.09684E-29
1.93692E-02 5.72785E-29
1.99751E-02 5.40447E-29
2.05901E-02 5.08013E-29
2.12143E-02 4.73091E-29
2.18476E-02 4.34911E-29
2.24900E-02 3.93789E-29
2.31415E-02 3.50688E-29
2.38021E-02 3.06884E-29
2.44717E-02 2.63723E-29
2.51504E-02 2.22444E-29
2.58382E-02 1.84079E-29
2.65349E-02 1.49395E-29
2.72407E-02 1.18879E-29
2.79555E-02 9.27528E-30
2.86793E-02 7.10016E-30
2.94120E-02 5.34199E-30
3.01537E-02 3.96575E-30
3.09043E-02 2.92671E-30
3.16639E-02 2.17478E-30
3.24324E-02 1.65832E-30
3.32098E-02 1.32713E-30
3.39961E-02 1.13483E-30
3.47912E-02 1.04042E-30
3.55952E-02 1.00916E-30
3.64081E-02 1.01300E-30
3.72297E-02 1.03037E-30
3.80602E-02 1.04580E-30
3.88995E-02 1.04919E-30
3.97476E-02 1.03496E-30
4.06044E-02 1.00114E-30
4.14700E-02 9.48522E-31
4.23443E-02 8.79754E-31
4.32273E-02 7.98660E-31
4.41190E-02 7.09590E-31
4.50194E-02 6.16932E-31
4.59284E-02 5.24744E-31
4.68461E-02 4.36501E-31
4.87074E-02 2.82055E-31
5.06030E-02 1.66297E-31
5.25328E-02 9.09225E-32
5.44967E-02 4.99395E-32
5.64946E-02 3.35599E-32
5.85262E-02 3.15235E-32
6.05914E-02 3.53038E-32
6.26901E-02 3.91266E-32
6.48222E-02 4.00278E-32
6.69873E-02 3.73003E-32
6.91854E-02 3.16824E-32
7.14163E-02 2.45606E-32
7.36799E-02 1.73510E-32
7.59760E-02 1.11236E-32
7.83043E-02 6.45647E-33
8.06647E-02 3.46260E-33
8.30571E-02 1.91548E-33
8.54812E-02 1.40824E-33
8.79369E-02 1.49731E-33
9.04240E-02 1.80407E-33
9.29422E-02 2.06718E-33
9.54915E-02 2.15180E-33
9.80716E-02 2.02896E-33
1.00682E-01 1.74029E-33
1.03323E-01 1.36083E-33
1.05995E-01 9.68377E-34
1.08696E-01 6.23721E-34
1.11427E-01 3.61903E-34
1.14188E-01 1.92441E-34
1.16978E-01 1.05227E-34
1.19797E-01 7.87725E-35
1.22645E-01 8.81861E-35
1.25522E-01 1.11225E-34
1.28428E-01 1.31786E-34
1.31361E-01 1.40964E-34
1.34323E-01 1.36267E-34
1.37313E-01 1.19793E-34
1.40330E-01 9.60866E-35
1.43375E-01 7.02371E-35
1.46447E-01 4.65266E-35
1.49545E-01 2.77195E-35
1.52671E-01 1.49226E-35
1.55823E-01 7.84972E-36
1.59001E-01 5.29832E-36
1.62205E-01 5.66558E-36
1.65435E-01 7.38398E-36
1.68690E-01 9.21113E-36
1.71970E-01 1.03619E-35
1.75276E-01 1.05070E-35
1.78606E-01 9.68135E-36
1.81961E-01 8.15037E-36
1.85340E-01 6.27449E-36
1.88743E-01 4.39960E-36
1.92169E-01 2.78683E-36
1.95619E-01 1.58278E-36
1.99092E-01 8.22865E-37
2.02589E-01 4.56461E-37
2.06107E-01 3.81581E-37
2.09649E-01 4.79214E-37
2.13212E-01 6.40566E-37
2.16797E-01 7.83971E-37
2.20404E-01 8.61441E-37
2.24032E-01 8.56727E-37
2.27680E-01 7.77980E-37
2.31350E-01 6.48063E-37
2.35040E-01 4.95133E-37
2.38751E-01 3.45223E-37
2.42481E-01 1.00000E-45
2.46231E-01 1.00000E-45
2.50000E-01 1.00000E-45
2.53788E-01 1.00000E-45
2.57595E-01 1.00000E-45
2.61421E-01 1.00000E-45
2.65264E-01 1.00000E-45
2.69126E-01 1.00000E-45
2.73005E-01 1.00000E-45
2.76901E-01 1.00000E-45
2.80814E-01 1.00000E-45
2.84744E-01 1.00000E-45
2.88691E-01 1.00000E-45
2.92653E-01 1.00000E-45
2.96632E-01 1.00000E-45
3.00625E-01 1.00000E-45
3.04634E-01 1.00000E-45
3.08658E-01 1.00000E-45
3.12697E-01 1.00000E-45
3.16749E-01 1.00000E-45
3.20816E-01 1.00000E-45
3.24896E-01 1.00000E-45
3.28990E-01 1.00000E-45
3.33097E-01 1.00000E-45
3.37216E-01 1.00000E-45
3.41348E-01 1.00000E-45
3.45492E-01 1.00000E-45
3.49647E-01 1.00000E-45
3.53814E-01 1.00000E-45
3.57992E-01 1.00000E-45
3.62181E-01 1.00000E-45
3.66381E-01 1.00000E-45
3.70590E-01 1.00000E-45
3.74810E-01 1.00000E-45
3.79039E-01 1.00000E-45
3.83277E-01 1.00000E-45
3.87524E-01 1.00000E-45
3.91780E-01 1.00000E-45
3.96044E-01 1.00000E-45
4.00316E-01 1.00000E-45
4.04596E-01 1.00000E-45
4.08882E-01 1.00000E-45
4.13176E-01 1.00000E-45
4.17476E-01 1.00000E-45
4.21783E-01 1.00000E-45
4.26095E-01 1.00000E-45
4.30413E-01 1.00000E-45
4.34737E-01 1.00000E-45
4.39065E-01 1.00000E-45
4.43398E-01 1.00000E-45
4.47736E-01 1.00000E-45
4.52077E-01 1.00000E-45
4.56422E-01 1.00000E-45
4.60770E-01 1.00000E-45
4.65122E-01 1.00000E-45
4.69476E-01 1.00000E-45
4.73832E-01 1.00000E-45
4.78190E-01 1.00000E-45
4.82550E-01 1.00000E-45
4.86912E-01 1.00000E-45
4.91274E-01 1.00000E-45
4.95637E-01 1.00000E-45
5.00000E-01 1.00000E-45
5.04363E-01 1.00000E-45
5.08726E-01 1.00000E-45
5.13088E-01 1.00000E-45
5.17450E-01 1.00000E-45
5.21810E-01 1.00000E-45
5.26168E-01 1.00000E-45
5.30524E-01 1.00000E-45
5.34878E-01 1.00000E-45
5.39230E-01 1.00000E-45
5.43578E-01 1.00000E-45
5.47923E-01 1.00000E-45
5.52264E-01 1.00000E-45
5.56602E-01 1.00000E-45
5.60935E-01 1.00000E-45
5.65263E-01 1.00000E-45
5.69587E-01 1.00000E-45
5.73905E-01 1.00000E-45
5.78217E-01 1.00000E-45
5.82524E-01 1.00000E-45
5.86824E-01 1.00000E-45
5.91118E-01 1.00000E-45
5.95404E-01 1.00000E-45
5.99684E-01 1.00000E-45
6.03956E-01 1.00000E-45
6.08220E-01 1.00000E-45
6.12476E-01 1.00000E-45
6.16723E-01 1.00000E-45
6.20961E-01 1.00000E-45
6.25190E-01 1.00000E-45
6.29410E-01 1.00000E-45
6.33619E-01 1.00000E-45
6.37819E-01 1.00000E-45
6.42008E-01 1.00000E-45
6.46186E-01 1.00000E-45
6.50353E-01 1.00000E-45
6.54508E-01 1.00000E-45
6.58652E-01 1.00000E-45
6.62784E-01 1.00000E-45
6.66903E-01 1.00000E-45
6.71010E-01 1.00000E-45
6.75104E-01 1.00000E-45
6.79184E-01 1.00000E-45
6.83251E-01 1.00000E-45
6.87303E-01 1.00000E-45
6.91342E-01 1.00000E-45
6.95366E-01 1.00000E-45
6.99375E-01 1.00000E-45
7.03368E-01 1.00000E-45
7.07347E-01 1.00000E-45
7.11309E-01 1.00000E-45
7.15256E-01 1.00000E-45
7.19186E-01 1.00000E-45
7.23099E-01 1.00000E-45
7.26995E-01 1.00000E-45
7.30874E-01 1.00000E-45
7.34736E-01 1.00000E-45
7.38579E-01 1.00000E-45
7.42405E-01 1.00000E-45
7.46212E-01 1.00000E-45
7.50000E-01 1.00000E-45
7.53769E-01 1.00000E-45
7.57519E-01 1.00000E-45
7.61249E-01 1.00000E-45
7.64960E-01 1.00000E-45
7.68650E-01 1.00000E-45
7.72320E-01 1.00000E-45
7.75968E-01 1.00000E-45
7.79596E-01 1.00000E-45
7.83203E-01 1.00000E-45
7.86788E-01 1.00000E-45
7.90351E-01 1.00000E-45
7.93893E-01 1.00000E-45
7.97411E-01 1.00000E-45
8.00908E-01 1.00000E-45
8.04381E-01 1.00000E-45
8.07831E-01 1.00000E-45
8.11257E-01 1.00000E-45
8.14660E-01 1.00000E-45
8.18039E-01 1.00000E-45
8.21394E-01 1.00000E-45
8.24724E-01 1.00000E-45
8.28030E-01 1.00000E-45
8.31310E-01 1.00000E-45
8.34565E-01 1.00000E-45
8.37795E-01 1.00000E-45
8.40999E-01 1.00000E-45
8.44177E-01 1.00000E-45
8.47329E-01 1.00000E-45
8.50455E-01 1.00000E-45
8.53553E-01 1.00000E-45
8.56625E-01 1.00000E-45
8.59670E-01 1.00000E-45
8.62687E-01 1.00000E-45
8.65677E-01 1.00000E-45
8.68639E-01 1.00000E-45
8.71572E-01 1.00000E-45
8.74478E-01 1.00000E-45
8.77355E-01 1.00000E-45
8.80203E-01 1.00000E-45
8.83022E-01 1.00000E-45
8.85812E-01 1.00000E-45
8.88573E-01 1.00000E-45
8.91304E-01 1.00000E-45
8.94005E-01 1.00000E-45
8.96677E-01 1.00000E-45
8.99318E-01 1.00000E-45
9.01928E-01 1.00000E-45
9.04508E-01 1.00000E-45
9.07058E-01 1.00000E-45
9.09576E-01 1.00000E-45
9.12063E-01 1.00000E-45
9.14519E-01 1.00000E-45
9.16943E-01 1.00000E-45
9.19335E-01 1.00000E-45
9.21696E-01 1.00000E-45
9.24024E-01 1.00000E-45
9.26320E-01 1.00000E-45
9.28584E-01 1.00000E-45
9.30815E-01 1.00000E-45
9.33013E-01 1.00000E-45
9.35178E-01 1.00000E-45
9.37310E-01 1.00000E-45
9.39409E-01 1.00000E-45
9.41474E-01 1.00000E-45
9.43505E-01 1.00000E-45
9.45503E-01 1.00000E-45
9.47467E-01 1.00000E-45
9.49397E-01 1.00000E-45
9.51293E-01 1.00000E-45
9.53154E-01 1.00000E-45
9.54981E-01 1.00000E-45
9.56773E-01 1.00000E-45
9.58530E-01 1.00000E-45
9.60252E-01 1.00000E-45
9.61940E-01 1.00000E-45
9.63592E-01 1.00000E-45
9.65209E-01 1.00000E-45
9.66790E-01 1.00000E-45
9.68336E-01 1.00000E-45
9.69846E-01 1.00000E-45
9.71321E-01 1.00000E-45
9.72759E-01 1.00000E-45
9.74162E-01 1.00000E-45
9.75528E-01 1.00000E-45
9.76858E-01 1.00000E-45
9.78152E-01 1.00000E-45
9.79410E-01 1.00000E-45
9.80631E-01 1.00000E-45
9.81815E-01 1.00000E-45
9.82963E-01 1.00000E-45
9.84074E-01 1.00000E-45
9.85148E-01 1.00000E-45
9.86185E-01 1.00000E-45
9.87185E-01 1.00000E-45
9.88148E-01 1.00000E-45
9.89074E-01 1.00000E-45
9.89962E-01 1.00000E-45
9.90814E-01 1.00000E-45
9.91627E-01 1.00000E-45
9.92404E-01 1.00000E-45
9.93143E-01 1.00000E-45
9.93844E-01 1.00000E-45
9.94508E-01 1.00000E-45
9.95134E-01 1.00000E-45
9.95722E-01 1.00000E-45
9.96273E-01 1.00000E-45
9.96786E-01 1.00000E-45
9.97261E-01 1.00000E-45
9.97698E-01 1.00000E-45
9.98097E-01 1.00000E-45
9.98459E-01 1.00000E-45
9.98782E-01 1.00000E-45
9.99067E-01 1.00000E-45
9.99315E-01 1.00000E-45
9.99524E-01 1.00000E-45
9.99695E-01 1.00000E-45
9.99829E-01 1.00000E-45
9.99924E-01 1.00000E-45
9.99981E-01 1.00000E-45
1.00000E+00 1.00000E-45
