 #
 # Subroutine ELSEPA. Elastic scattering of electrons and positrons
 #                    by neutral atoms and positive ions
 #
 # Projectile: electron
 # Kinetic energy = 9.00000E+07 eV = 3.30744E+06 a.u.
 #
 # WARNING: High-energy factorization with free-atom DF screening.
 #          Absorption, polarization and exchange corrections are
 #          switched off.
 #          Phase shifts are calculated for the bare nucleus.
 #          Scattering amplitudes are not evaluated.
 #
 # Element: Hg,  Z =  80,  atomic weight = 2.00590E+02 g/mol
 #
 # Nuclear model: Fermi distribution
 #                Average radius = 6.26355E-13 cm
 #                Skin thickness = 5.46000E-14 cm
 #
 # Number of electrons = 80
 #
 # Total elastic cross section = 7.89424E-18 cm**2 = 2.81909E-01 a0**2
 # 1st transport cross section = 1.48889E-24 cm**2 = 5.31693E-08 a0**2
 # 2nd transport cross section = 4.42414E-24 cm**2 = 1.57989E-07 a0**2
 #
 #
 # Differential cross section:                       MU=(1-COS(THETA))/2
 #
 #  THETA        MU          DCS          DCS        Sherman      error
 #  (deg)                 (cm**2/sr)   (a0**2/sr)    function
 #----------------------------------------------------------------------
0.00000E+00 3.48266E-10
7.61557E-13 3.47803E-10
1.18994E-12 3.47545E-10
1.71346E-12 3.47229E-10
2.33225E-12 3.46858E-10
3.04617E-12 3.46430E-10
3.85530E-12 3.45946E-10
4.75964E-12 3.45407E-10
5.75917E-12 3.44813E-10
6.85391E-12 3.44164E-10
8.04379E-12 3.43462E-10
9.32893E-12 3.42707E-10
1.07092E-11 3.41899E-10
1.21847E-11 3.41039E-10
1.37554E-11 3.40128E-10
1.54213E-11 3.39166E-10
1.71823E-11 3.38155E-10
1.90386E-11 3.37096E-10
2.09900E-11 3.35988E-10
2.30367E-11 3.34833E-10
2.51785E-11 3.33633E-10
2.74156E-11 3.32387E-10
2.97478E-11 3.31082E-10
3.21752E-11 3.29735E-10
3.46979E-11 3.28353E-10
3.73157E-11 3.26938E-10
4.00286E-11 3.25491E-10
4.28368E-11 3.24015E-10
4.57402E-11 3.22471E-10
4.87388E-11 3.20882E-10
5.18325E-11 3.19268E-10
5.50215E-11 3.17630E-10
5.83057E-11 3.15970E-10
6.16850E-11 3.14290E-10
6.51595E-11 3.12545E-10
6.87293E-11 3.10756E-10
7.23943E-11 3.08950E-10
7.61544E-11 3.07131E-10
1.18991E-10 2.87690E-10
1.71347E-10 2.66795E-10
2.33223E-10 2.45330E-10
3.04617E-10 2.24253E-10
3.85531E-10 2.04019E-10
4.75965E-10 1.84974E-10
5.75917E-10 1.67424E-10
6.85389E-10 1.51332E-10
8.04380E-10 1.36724E-10
9.32891E-10 1.23584E-10
1.07092E-09 1.11728E-10
1.21847E-09 1.01102E-10
1.37554E-09 9.16057E-11
1.54213E-09 8.30648E-11
1.71823E-09 7.54293E-11
1.90386E-09 6.86003E-11
2.09900E-09 6.24506E-11
2.30367E-09 5.69437E-11
2.51785E-09 5.19997E-11
2.74156E-09 4.75403E-11
2.97478E-09 4.32612E-11
3.21752E-09 3.94550E-11
3.46978E-09 3.61539E-11
3.73156E-09 3.32772E-11
4.00286E-09 3.07587E-11
4.28368E-09 2.85441E-11
4.57402E-09 2.63206E-11
4.87388E-09 2.42469E-11
5.18326E-09 2.24149E-11
5.50215E-09 2.07905E-11
5.83057E-09 1.93450E-11
6.16850E-09 1.80542E-11
6.51596E-09 1.67964E-11
6.87293E-09 1.56128E-11
7.23942E-09 1.45512E-11
7.61544E-09 1.35961E-11
1.18991E-08 7.33873E-12
1.71347E-08 4.33516E-12
2.33223E-08 2.72727E-12
3.04617E-08 1.80014E-12
3.85531E-08 1.22927E-12
4.75965E-08 8.63585E-13
5.75917E-08 6.22982E-13
6.85389E-08 4.60168E-13
8.04380E-08 3.46930E-13
9.32891E-08 2.66912E-13
1.07092E-07 2.09066E-13
1.21847E-07 1.66304E-13
1.37554E-07 1.34049E-13
1.54213E-07 1.09267E-13
1.71823E-07 9.00044E-14
1.90386E-07 7.48461E-14
2.09900E-07 6.27576E-14
2.30367E-07 5.30241E-14
2.51785E-07 4.51061E-14
2.74156E-07 3.86064E-14
2.97478E-07 3.32138E-14
3.21752E-07 2.87543E-14
3.46978E-07 2.50279E-14
3.73156E-07 2.18697E-14
4.00286E-07 1.92138E-14
4.28368E-07 1.69312E-14
4.57402E-07 1.49865E-14
4.87388E-07 1.33126E-14
5.18325E-07 1.18633E-14
5.50215E-07 1.06120E-14
5.83057E-07 9.51382E-15
6.16850E-07 8.55860E-15
6.51596E-07 7.71838E-15
6.87293E-07 6.97878E-15
7.23942E-07 6.32709E-15
7.61543E-07 5.74734E-15
1.18991E-06 2.45411E-15
1.71347E-06 1.21718E-15
2.33223E-06 6.70858E-16
3.04617E-06 3.99608E-16
3.85531E-06 2.52587E-16
4.75964E-06 1.67334E-16
5.75916E-06 1.15169E-16
6.85388E-06 8.18205E-17
8.04378E-06 5.97068E-17
9.32888E-06 4.45811E-17
1.07092E-05 3.39551E-17
1.21846E-05 2.63148E-17
1.37553E-05 2.07080E-17
1.54212E-05 1.65186E-17
1.71822E-05 1.33376E-17
1.90385E-05 1.08806E-17
2.09899E-05 8.97584E-18
2.30365E-05 7.46906E-18
2.51783E-05 6.26383E-18
2.74153E-05 5.29079E-18
2.97475E-05 4.49892E-18
3.21749E-05 3.84987E-18
3.46974E-05 3.31412E-18
3.73152E-05 2.86888E-18
4.00281E-05 2.49630E-18
4.28362E-05 2.18244E-18
4.57395E-05 1.91640E-18
4.87380E-05 1.68961E-18
5.18317E-05 1.49529E-18
5.50205E-05 1.32805E-18
5.83045E-05 1.18353E-18
6.16838E-05 1.05815E-18
6.51582E-05 9.48988E-19
6.87277E-05 8.53581E-19
7.23925E-05 7.69893E-19
7.61524E-05 6.96200E-19
9.21439E-05 4.76695E-19
1.09658E-04 3.37296E-19
1.28695E-04 2.45373E-19
1.49255E-04 1.82751E-19
1.71338E-04 1.38912E-19
1.94942E-04 1.07478E-19
2.20070E-04 8.44637E-20
2.46720E-04 6.73016E-20
2.74892E-04 5.42922E-20
3.04586E-04 4.42851E-20
3.35803E-04 3.64857E-20
3.68542E-04 3.03338E-20
4.02802E-04 2.54286E-20
4.38585E-04 2.14787E-20
4.75889E-04 1.82688E-20
5.14715E-04 1.56386E-20
5.55063E-04 1.34666E-20
5.96931E-04 1.16602E-20
6.40321E-04 1.01479E-20
6.85233E-04 8.87392E-21
7.31665E-04 7.79454E-21
7.79618E-04 6.87505E-21
8.29092E-04 6.08783E-21
8.80086E-04 5.41064E-21
9.32601E-04 4.82547E-21
9.86636E-04 4.31771E-21
1.04219E-03 3.87533E-21
1.09927E-03 3.48849E-21
1.15786E-03 3.14898E-21
1.21797E-03 2.85001E-21
1.27961E-03 2.58591E-21
1.34276E-03 2.35186E-21
1.40743E-03 2.14386E-21
1.47362E-03 1.95849E-21
1.54133E-03 1.79285E-21
1.61056E-03 1.64446E-21
1.68131E-03 1.51121E-21
1.75357E-03 1.39127E-21
1.82735E-03 1.28307E-21
1.90265E-03 1.18525E-21
1.97947E-03 1.09665E-21
2.05780E-03 1.01622E-21
2.13765E-03 9.43080E-22
2.21902E-03 8.76446E-22
2.30190E-03 8.15635E-22
2.38630E-03 7.60041E-22
2.47222E-03 7.09136E-22
2.55965E-03 6.62450E-22
2.64859E-03 6.19569E-22
2.73905E-03 5.80125E-22
2.83103E-03 5.43792E-22
2.92452E-03 5.10279E-22
3.01952E-03 4.79325E-22
3.11604E-03 4.50701E-22
3.21407E-03 4.24198E-22
3.31362E-03 3.99627E-22
3.41468E-03 3.76807E-22
3.51725E-03 3.55601E-22
3.62133E-03 3.35875E-22
3.72692E-03 3.17505E-22
3.83403E-03 3.00381E-22
3.94265E-03 2.84401E-22
4.05278E-03 2.69475E-22
4.16442E-03 2.55520E-22
4.27757E-03 2.42461E-22
4.39223E-03 2.30230E-22
4.50840E-03 2.18763E-22
4.62608E-03 2.08003E-22
4.74527E-03 1.97900E-22
4.86597E-03 1.88405E-22
4.98817E-03 1.79474E-22
5.11188E-03 1.71067E-22
5.23711E-03 1.63148E-22
5.36383E-03 1.55684E-22
5.49207E-03 1.48642E-22
5.62181E-03 1.41994E-22
5.75306E-03 1.35715E-22
5.88581E-03 1.29779E-22
6.02007E-03 1.24164E-22
6.15583E-03 1.18850E-22
6.29310E-03 1.13817E-22
6.43187E-03 1.09047E-22
6.57214E-03 1.04525E-22
6.71392E-03 1.00234E-22
6.85720E-03 9.61611E-23
7.00198E-03 9.22924E-23
7.14827E-03 8.86159E-23
7.29605E-03 8.51201E-23
7.44534E-03 8.17945E-23
7.59612E-03 7.86291E-23
7.97965E-03 7.13578E-23
8.37255E-03 6.49039E-23
8.77480E-03 5.91592E-23
9.18641E-03 5.40319E-23
9.60736E-03 4.94437E-23
1.00376E-02 4.53278E-23
1.04773E-02 4.16269E-23
1.09262E-02 3.82917E-23
1.13844E-02 3.52795E-23
1.18520E-02 3.25535E-23
1.23288E-02 3.00816E-23
1.28150E-02 2.78359E-23
1.33104E-02 2.57920E-23
1.38150E-02 2.39285E-23
1.43290E-02 2.22266E-23
1.48521E-02 2.06699E-23
1.53845E-02 1.92437E-23
1.59262E-02 1.79353E-23
1.64770E-02 1.67330E-23
1.70371E-02 1.56269E-23
1.76063E-02 1.46078E-23
1.81848E-02 1.36678E-23
1.87724E-02 1.27996E-23
1.93692E-02 1.19967E-23
1.99751E-02 1.12534E-23
2.05901E-02 1.05646E-23
2.12143E-02 9.92550E-24
2.18476E-02 9.33193E-24
2.24900E-02 8.78011E-24
2.31415E-02 8.26659E-24
2.38021E-02 7.78827E-24
2.44717E-02 7.34233E-24
2.51504E-02 6.92621E-24
2.58382E-02 6.53759E-24
2.65349E-02 6.17435E-24
2.72407E-02 5.83456E-24
2.79555E-02 5.51646E-24
2.86793E-02 5.21845E-24
2.94120E-02 4.93904E-24
3.01537E-02 4.67690E-24
3.09043E-02 4.43078E-24
3.16639E-02 4.19955E-24
3.24324E-02 3.98217E-24
3.32098E-02 3.77768E-24
3.39961E-02 3.58521E-24
3.47912E-02 3.40392E-24
3.55952E-02 3.23309E-24
3.64081E-02 3.07200E-24
3.72297E-02 2.92004E-24
3.80602E-02 2.77659E-24
3.88995E-02 2.64111E-24
3.97476E-02 2.51311E-24
4.06044E-02 2.39209E-24
4.14700E-02 2.27764E-24
4.23443E-02 2.16934E-24
4.32273E-02 2.06681E-24
4.41190E-02 1.96971E-24
4.50194E-02 1.87771E-24
4.59284E-02 1.79050E-24
4.68461E-02 1.70780E-24
4.87074E-02 1.55490E-24
5.06030E-02 1.41709E-24
5.25328E-02 1.29271E-24
5.44967E-02 1.18028E-24
5.64946E-02 1.07854E-24
5.85262E-02 9.86341E-25
6.05914E-02 9.02700E-25
6.26901E-02 8.26736E-25
6.48222E-02 7.57669E-25
6.69873E-02 6.94809E-25
6.91854E-02 6.37545E-25
7.14163E-02 5.85329E-25
7.36799E-02 5.37676E-25
7.59760E-02 4.94151E-25
7.83043E-02 4.54363E-25
8.06647E-02 4.17967E-25
8.30571E-02 3.84648E-25
8.54812E-02 3.54125E-25
8.79369E-02 3.26147E-25
9.04240E-02 3.00485E-25
9.29422E-02 2.76934E-25
9.54915E-02 2.55309E-25
9.80716E-02 2.35441E-25
1.00682E-01 2.17179E-25
1.03323E-01 2.00385E-25
1.05995E-01 1.84935E-25
1.08696E-01 1.70714E-25
1.11427E-01 1.57621E-25
1.14188E-01 1.45560E-25
1.16978E-01 1.34447E-25
1.19797E-01 1.24204E-25
1.22645E-01 1.14760E-25
1.25522E-01 1.06050E-25
1.28428E-01 9.80152E-26
1.31361E-01 9.06008E-26
1.34323E-01 8.37574E-26
1.37313E-01 7.74397E-26
1.40330E-01 7.16062E-26
1.43375E-01 6.62188E-26
1.46447E-01 6.12424E-26
1.49545E-01 5.66451E-26
1.52671E-01 5.23972E-26
1.55823E-01 4.84717E-26
1.59001E-01 4.48438E-26
1.62205E-01 4.14905E-26
1.65435E-01 3.83907E-26
1.68690E-01 3.55250E-26
1.71970E-01 3.28756E-26
1.75276E-01 3.04259E-26
1.78606E-01 2.81608E-26
1.81961E-01 2.60663E-26
1.85340E-01 2.41295E-26
1.88743E-01 2.23385E-26
1.92169E-01 2.06821E-26
1.95619E-01 1.91504E-26
1.99092E-01 1.77339E-26
2.02589E-01 1.64240E-26
2.06107E-01 1.52126E-26
2.09649E-01 1.40923E-26
2.13212E-01 1.30563E-26
2.16797E-01 1.20983E-26
2.20404E-01 1.12124E-26
2.24032E-01 1.03933E-26
2.27680E-01 9.63584E-27
2.31350E-01 8.93548E-27
2.35040E-01 8.28791E-27
2.38751E-01 7.68918E-27
2.42481E-01 7.13562E-27
2.46231E-01 6.62383E-27
2.50000E-01 6.15067E-27
2.53788E-01 5.71324E-27
2.57595E-01 5.30883E-27
2.61421E-01 4.93496E-27
2.65264E-01 4.58932E-27
2.69126E-01 4.26978E-27
2.73005E-01 3.97437E-27
2.76901E-01 3.70124E-27
2.80814E-01 3.44871E-27
2.84744E-01 3.21522E-27
2.88691E-01 2.99931E-27
2.92653E-01 2.79964E-27
2.96632E-01 2.61498E-27
3.00625E-01 2.44416E-27
3.04634E-01 2.28614E-27
3.08658E-01 2.13992E-27
3.12697E-01 2.00460E-27
3.16749E-01 1.87935E-27
3.20816E-01 1.76337E-27
3.24896E-01 1.65596E-27
3.28990E-01 1.55645E-27
3.33097E-01 1.46423E-27
3.37216E-01 1.37873E-27
3.41348E-01 1.29942E-27
3.45492E-01 1.22584E-27
3.49647E-01 1.15752E-27
3.53814E-01 1.09406E-27
3.57992E-01 1.03507E-27
3.62181E-01 9.80216E-28
3.66381E-01 9.29164E-28
3.70590E-01 8.81619E-28
3.74810E-01 8.37304E-28
3.79039E-01 7.95969E-28
3.83277E-01 7.57378E-28
3.87524E-01 7.21317E-28
3.91780E-01 6.87590E-28
3.96044E-01 6.56013E-28
4.00316E-01 6.26419E-28
4.04596E-01 5.98654E-28
4.08882E-01 5.72577E-28
4.13176E-01 5.48057E-28
4.17476E-01 5.24975E-28
4.21783E-01 5.03221E-28
4.26095E-01 4.82694E-28
4.30413E-01 4.63301E-28
4.34737E-01 4.44956E-28
4.39065E-01 4.27583E-28
4.43398E-01 4.11109E-28
4.47736E-01 3.95469E-28
4.52077E-01 3.80602E-28
4.56422E-01 3.66454E-28
4.60770E-01 3.52973E-28
4.65122E-01 3.40114E-28
4.69476E-01 3.27833E-28
4.73832E-01 3.16092E-28
4.78190E-01 3.04856E-28
4.82550E-01 2.94091E-28
4.86912E-01 2.83767E-28
4.91274E-01 2.73858E-28
4.95637E-01 2.64339E-28
5.00000E-01 2.55185E-28
5.04363E-01 2.46376E-28
5.08726E-01 2.37893E-28
5.13088E-01 2.29719E-28
5.17450E-01 2.21835E-28
5.21810E-01 2.14228E-28
5.26168E-01 2.06885E-28
5.30524E-01 1.99791E-28
5.34878E-01 1.92936E-28
5.39230E-01 1.86309E-28
5.43578E-01 1.79900E-28
5.47923E-01 1.73699E-28
5.52264E-01 1.67698E-28
5.56602E-01 1.61890E-28
5.60935E-01 1.56267E-28
5.65263E-01 1.50821E-28
5.69587E-01 1.45548E-28
5.73905E-01 1.40440E-28
5.78217E-01 1.35492E-28
5.82524E-01 1.30699E-28
5.86824E-01 1.26056E-28
5.91118E-01 1.21558E-28
5.95404E-01 1.17202E-28
5.99684E-01 1.12981E-28
6.03956E-01 1.08894E-28
6.08220E-01 1.04935E-28
6.12476E-01 1.01101E-28
6.16723E-01 9.73888E-29
6.20961E-01 9.37950E-29
6.25190E-01 9.03162E-29
6.29410E-01 8.69493E-29
6.33619E-01 8.36914E-29
6.37819E-01 8.05394E-29
6.42008E-01 7.74905E-29
6.46186E-01 7.45420E-29
6.50353E-01 7.16911E-29
6.54508E-01 6.89353E-29
6.58652E-01 6.62721E-29
6.62784E-01 6.36988E-29
6.66903E-01 6.12131E-29
6.71010E-01 5.88125E-29
6.75104E-01 5.64948E-29
6.79184E-01 5.42577E-29
6.83251E-01 5.20989E-29
6.87303E-01 5.00161E-29
6.91342E-01 4.80074E-29
6.95366E-01 4.60705E-29
6.99375E-01 4.42033E-29
7.03368E-01 4.24040E-29
7.07347E-01 4.06703E-29
7.11309E-01 3.90005E-29
7.15256E-01 3.73926E-29
7.19186E-01 3.58447E-29
7.23099E-01 3.43549E-29
7.26995E-01 3.29216E-29
7.30874E-01 3.15428E-29
7.34736E-01 3.02169E-29
7.38579E-01 2.89423E-29
7.42405E-01 2.77171E-29
7.46212E-01 2.65399E-29
7.50000E-01 2.54090E-29
7.53769E-01 2.43229E-29
7.57519E-01 2.32801E-29
7.61249E-01 2.22791E-29
7.64960E-01 2.13185E-29
7.68650E-01 2.03968E-29
7.72320E-01 1.95128E-29
7.75968E-01 1.86650E-29
7.79596E-01 1.78522E-29
7.83203E-01 1.70731E-29
7.86788E-01 1.63265E-29
7.90351E-01 1.56112E-29
7.93893E-01 1.49259E-29
7.97411E-01 1.42697E-29
8.00908E-01 1.36414E-29
8.04381E-01 1.30398E-29
8.07831E-01 1.24641E-29
8.11257E-01 1.19132E-29
8.14660E-01 1.13860E-29
8.18039E-01 1.08818E-29
8.21394E-01 1.03995E-29
8.24724E-01 9.93828E-30
8.28030E-01 9.49728E-30
8.31310E-01 9.07568E-30
8.34565E-01 8.67268E-30
8.37795E-01 8.28750E-30
8.40999E-01 7.91940E-30
8.44177E-01 7.56766E-30
8.47329E-01 7.23158E-30
8.50455E-01 6.91051E-30
8.53553E-01 6.60378E-30
8.56625E-01 6.31078E-30
8.59670E-01 6.03091E-30
8.62687E-01 5.76359E-30
8.65677E-01 5.50827E-30
8.68639E-01 5.26442E-30
8.71572E-01 5.03152E-30
8.74478E-01 4.80908E-30
8.77355E-01 4.59662E-30
8.80203E-01 4.39370E-30
8.83022E-01 4.19987E-30
8.85812E-01 4.01472E-30
8.88573E-01 3.83785E-30
8.91304E-01 3.66887E-30
8.94005E-01 3.50742E-30
8.96677E-01 3.35314E-30
8.99318E-01 3.20570E-30
9.01928E-01 3.06477E-30
9.04508E-01 2.93005E-30
9.07058E-01 2.80124E-30
9.09576E-01 2.67806E-30
9.12063E-01 2.56025E-30
9.14519E-01 2.44754E-30
9.16943E-01 2.33969E-30
9.19335E-01 2.23647E-30
9.21696E-01 2.13766E-30
9.24024E-01 2.04304E-30
9.26320E-01 1.95242E-30
9.28584E-01 1.86561E-30
9.30815E-01 1.78241E-30
9.33013E-01 1.70267E-30
9.35178E-01 1.62621E-30
9.37310E-01 1.55288E-30
9.39409E-01 1.48253E-30
9.41474E-01 1.41502E-30
9.43505E-01 1.35022E-30
9.45503E-01 1.28801E-30
9.47467E-01 1.22825E-30
9.49397E-01 1.17085E-30
9.51293E-01 1.11569E-30
9.53154E-01 1.06268E-30
9.54981E-01 1.01171E-30
9.56773E-01 9.62700E-31
9.58530E-01 9.15564E-31
9.60252E-01 8.70222E-31
9.61940E-01 8.26598E-31
9.63592E-01 7.84621E-31
9.65209E-01 7.44226E-31
9.66790E-01 7.05349E-31
9.68336E-01 6.67931E-31
9.69846E-01 6.31918E-31
9.71321E-01 5.97258E-31
9.72759E-01 5.63901E-31
9.74162E-01 5.31803E-31
9.75528E-01 5.00921E-31
9.76858E-01 4.71215E-31
9.78152E-01 4.42648E-31
9.79410E-01 4.15186E-31
9.80631E-01 3.88795E-31
9.81815E-01 3.63446E-31
9.82963E-01 3.39112E-31
9.84074E-01 3.15765E-31
9.85148E-01 2.93381E-31
9.86185E-01 2.71939E-31
9.87185E-01 2.51416E-31
9.88148E-01 2.31794E-31
9.89074E-01 2.13056E-31
9.89962E-01 1.95184E-31
9.90814E-01 1.78163E-31
9.91627E-01 1.61979E-31
9.92404E-01 1.46620E-31
9.93143E-01 1.32073E-31
9.93844E-01 1.18327E-31
9.94508E-01 1.05373E-31
9.95134E-01 9.32021E-32
9.95722E-01 8.18051E-32
9.96273E-01 7.11748E-32
9.96786E-01 6.13043E-32
9.97261E-01 5.21876E-32
9.97698E-01 4.38190E-32
9.98097E-01 3.61937E-32
9.98459E-01 2.93071E-32
9.98782E-01 2.31553E-32
9.99067E-01 1.77350E-32
9.99315E-01 1.30432E-32
9.99524E-01 9.07743E-33
9.99695E-01 5.83547E-33
9.99829E-01 3.31566E-33
9.99924E-01 1.51674E-33
9.99981E-01 4.37757E-34
1.00000E+00 7.81407E-35
