 #
 # Subroutine ELSEPA. Elastic scattering of electrons and positrons
 #                    by neutral atoms and positive ions
 #
 # Projectile: electron
 # Kinetic energy = 1.00000E+07 eV = 3.67493E+05 a.u.
 #
 # WARNING: High-energy factorization with free-atom DF screening.
 #          Absorption, polarization and exchange corrections are
 #          switched off.
 #          Phase shifts are calculated for the bare nucleus.
 #          Scattering amplitudes are not evaluated.
 #
 # Element: Hg,  Z =  80,  atomic weight = 2.00590E+02 g/mol
 #
 # Nuclear model: Fermi distribution
 #                Average radius = 6.26355E-13 cm
 #                Skin thickness = 5.46000E-14 cm
 #
 # Number of electrons = 80
 #
 # Total elastic cross section = 7.91696E-18 cm**2 = 2.82720E-01 a0**2
 # 1st transport cross section = 1.04456E-22 cm**2 = 3.73020E-06 a0**2
 # 2nd transport cross section = 2.86057E-22 cm**2 = 1.02153E-05 a0**2
 #
 #
 # Differential cross section:                       MU=(1-COS(THETA))/2
 #
 #  THETA        MU          DCS          DCS        Sherman      error
 #  (deg)                 (cm**2/sr)   (a0**2/sr)    function
 #----------------------------------------------------------------------
0.00000E+00 4.69674E-12
7.61557E-13 4.69665E-12
1.18994E-12 4.69660E-12
1.71346E-12 4.69654E-12
2.33225E-12 4.69648E-12
3.04617E-12 4.69640E-12
3.85530E-12 4.69631E-12
4.75964E-12 4.69621E-12
5.75917E-12 4.69610E-12
6.85391E-12 4.69598E-12
8.04379E-12 4.69585E-12
9.32893E-12 4.69570E-12
1.07092E-11 4.69555E-12
1.21847E-11 4.69539E-12
1.37554E-11 4.69522E-12
1.54213E-11 4.69504E-12
1.71823E-11 4.69484E-12
1.90386E-11 4.69464E-12
2.09900E-11 4.69442E-12
2.30367E-11 4.69420E-12
2.51785E-11 4.69396E-12
2.74156E-11 4.69372E-12
2.97478E-11 4.69346E-12
3.21752E-11 4.69320E-12
3.46979E-11 4.69292E-12
3.73157E-11 4.69263E-12
4.00286E-11 4.69234E-12
4.28368E-11 4.69203E-12
4.57402E-11 4.69171E-12
4.87388E-11 4.69138E-12
5.18325E-11 4.69105E-12
5.50215E-11 4.69070E-12
5.83057E-11 4.69034E-12
6.16850E-11 4.68997E-12
6.51595E-11 4.68959E-12
6.87293E-11 4.68920E-12
7.23943E-11 4.68880E-12
7.61544E-11 4.68839E-12
1.18991E-10 4.68371E-12
1.71347E-10 4.67801E-12
2.33223E-10 4.67128E-12
3.04617E-10 4.66355E-12
3.85531E-10 4.65482E-12
4.75965E-10 4.64509E-12
5.75917E-10 4.63438E-12
6.85389E-10 4.62270E-12
8.04380E-10 4.61007E-12
9.32891E-10 4.59650E-12
1.07092E-09 4.58200E-12
1.21847E-09 4.56660E-12
1.37554E-09 4.55030E-12
1.54213E-09 4.53313E-12
1.71823E-09 4.51510E-12
1.90386E-09 4.49624E-12
2.09900E-09 4.47654E-12
2.30367E-09 4.45579E-12
2.51785E-09 4.43439E-12
2.74156E-09 4.41238E-12
2.97478E-09 4.38980E-12
3.21752E-09 4.36667E-12
3.46978E-09 4.34227E-12
3.73156E-09 4.31726E-12
4.00286E-09 4.29180E-12
4.28368E-09 4.26594E-12
4.57402E-09 4.23970E-12
4.87388E-09 4.21238E-12
5.18326E-09 4.18434E-12
5.50215E-09 4.15603E-12
5.83057E-09 4.12747E-12
6.16850E-09 4.09870E-12
6.51596E-09 4.06919E-12
6.87293E-09 4.03873E-12
7.23942E-09 4.00815E-12
7.61544E-09 3.97749E-12
1.18991E-08 3.65505E-12
1.71347E-08 3.32049E-12
2.33223E-08 2.99088E-12
3.04617E-08 2.67794E-12
3.85531E-08 2.38854E-12
4.75965E-08 2.12581E-12
5.75917E-08 1.89028E-12
6.85389E-08 1.68074E-12
8.04380E-08 1.49531E-12
9.32891E-08 1.33188E-12
1.07092E-07 1.18806E-12
1.21847E-07 1.06151E-12
1.37554E-07 9.50130E-13
1.54213E-07 8.51999E-13
1.71823E-07 7.65439E-13
1.90386E-07 6.88977E-13
2.09900E-07 6.20744E-13
2.30367E-07 5.56071E-13
2.51785E-07 5.01396E-13
2.74156E-07 4.54869E-13
2.97478E-07 4.15029E-13
3.21752E-07 3.80711E-13
3.46978E-07 3.45823E-13
3.73156E-07 3.14944E-13
4.00286E-07 2.88145E-13
4.28368E-07 2.64772E-13
4.57402E-07 2.44293E-13
4.87388E-07 2.24656E-13
5.18325E-07 2.06530E-13
5.50215E-07 1.90536E-13
5.83057E-07 1.76370E-13
6.16850E-07 1.63778E-13
6.51596E-07 1.52069E-13
6.87293E-07 1.40981E-13
7.23942E-07 1.31062E-13
7.61543E-07 1.22164E-13
1.18991E-06 6.45451E-14
1.71347E-06 3.74716E-14
2.33223E-06 2.31703E-14
3.04617E-06 1.49956E-14
3.85531E-06 1.00745E-14
4.75964E-06 6.99784E-15
5.75916E-06 5.00838E-15
6.85388E-06 3.68128E-15
8.04378E-06 2.77336E-15
9.32888E-06 2.13256E-15
1.07092E-05 1.66793E-15
1.21846E-05 1.32398E-15
1.37553E-05 1.06497E-15
1.54212E-05 8.66748E-16
1.71822E-05 7.12703E-16
1.90385E-05 5.91032E-16
2.09899E-05 4.94798E-16
2.30365E-05 4.17041E-16
2.51783E-05 3.54479E-16
2.74153E-05 3.02652E-16
2.97475E-05 2.60274E-16
3.21749E-05 2.24818E-16
3.46974E-05 1.95389E-16
3.73152E-05 1.70538E-16
4.00281E-05 1.49615E-16
4.28362E-05 1.31759E-16
4.57395E-05 1.16521E-16
4.87380E-05 1.03395E-16
5.18317E-05 9.20704E-17
5.50205E-05 8.22432E-17
5.83045E-05 7.36899E-17
6.16838E-05 6.62227E-17
6.51582E-05 5.96741E-17
6.87277E-05 5.39229E-17
7.23925E-05 4.88425E-17
7.61524E-05 4.43511E-17
9.21439E-05 3.08084E-17
1.09658E-04 2.20643E-17
1.28695E-04 1.62186E-17
1.49255E-04 1.21896E-17
1.71338E-04 9.33990E-18
1.94942E-04 7.27746E-18
2.20070E-04 5.75473E-18
2.46720E-04 4.61048E-18
2.74892E-04 3.73707E-18
3.04586E-04 3.06102E-18
3.35803E-04 2.53114E-18
3.68542E-04 2.11108E-18
4.02802E-04 1.77464E-18
4.38585E-04 1.50261E-18
4.75889E-04 1.28076E-18
5.14715E-04 1.09840E-18
5.55063E-04 9.47382E-19
5.96931E-04 8.21471E-19
6.40321E-04 7.15819E-19
6.85233E-04 6.26639E-19
7.31665E-04 5.50946E-19
7.79618E-04 4.86361E-19
8.29092E-04 4.30988E-19
8.80086E-04 3.83291E-19
9.32601E-04 3.42029E-19
9.86636E-04 3.06186E-19
1.04219E-03 2.74929E-19
1.09927E-03 2.47572E-19
1.15786E-03 2.23545E-19
1.21797E-03 2.02372E-19
1.27961E-03 1.83656E-19
1.34276E-03 1.67061E-19
1.40743E-03 1.52305E-19
1.47362E-03 1.39149E-19
1.54133E-03 1.27389E-19
1.61056E-03 1.16850E-19
1.68131E-03 1.07382E-19
1.75357E-03 9.88586E-20
1.82735E-03 9.11675E-20
1.90265E-03 8.42132E-20
1.97947E-03 7.79124E-20
2.05780E-03 7.21927E-20
2.13765E-03 6.69904E-20
2.21902E-03 6.22509E-20
2.30190E-03 5.79254E-20
2.38630E-03 5.39708E-20
2.47222E-03 5.03496E-20
2.55965E-03 4.70287E-20
2.64859E-03 4.39787E-20
2.73905E-03 4.11734E-20
2.83103E-03 3.85893E-20
2.92452E-03 3.62059E-20
3.01952E-03 3.40049E-20
3.11604E-03 3.19697E-20
3.21407E-03 3.00853E-20
3.31362E-03 2.83386E-20
3.41468E-03 2.67177E-20
3.51725E-03 2.52118E-20
3.62133E-03 2.38112E-20
3.72692E-03 2.25072E-20
3.83403E-03 2.12919E-20
3.94265E-03 2.01581E-20
4.05278E-03 1.90993E-20
4.16442E-03 1.81097E-20
4.27757E-03 1.71838E-20
4.39223E-03 1.63168E-20
4.50840E-03 1.55043E-20
4.62608E-03 1.47420E-20
4.74527E-03 1.40265E-20
4.86597E-03 1.33542E-20
4.98817E-03 1.27221E-20
5.11188E-03 1.21273E-20
5.23711E-03 1.15671E-20
5.36383E-03 1.10392E-20
5.49207E-03 1.05414E-20
5.62181E-03 1.00716E-20
5.75306E-03 9.62795E-21
5.88581E-03 9.20869E-21
6.02007E-03 8.81225E-21
6.15583E-03 8.43713E-21
6.29310E-03 8.08197E-21
6.43187E-03 7.74550E-21
6.57214E-03 7.42656E-21
6.71392E-03 7.12405E-21
6.85720E-03 6.83696E-21
7.00198E-03 6.56435E-21
7.14827E-03 6.30536E-21
7.29605E-03 6.05917E-21
7.44534E-03 5.82503E-21
7.59612E-03 5.60223E-21
7.97965E-03 5.09065E-21
8.37255E-03 4.63686E-21
8.77480E-03 4.23316E-21
9.18641E-03 3.87304E-21
9.60736E-03 3.55093E-21
1.00376E-02 3.26210E-21
1.04773E-02 3.00248E-21
1.09262E-02 2.76858E-21
1.13844E-02 2.55737E-21
1.18520E-02 2.36626E-21
1.23288E-02 2.19298E-21
1.28150E-02 2.03554E-21
1.33104E-02 1.89224E-21
1.38150E-02 1.76157E-21
1.43290E-02 1.64220E-21
1.48521E-02 1.53297E-21
1.53845E-02 1.43285E-21
1.59262E-02 1.34095E-21
1.64770E-02 1.25646E-21
1.70371E-02 1.17867E-21
1.76063E-02 1.10693E-21
1.81848E-02 1.04070E-21
1.87724E-02 9.79469E-22
1.93692E-02 9.22783E-22
1.99751E-02 8.70240E-22
2.05901E-02 8.21478E-22
2.12143E-02 7.76172E-22
2.18476E-02 7.34030E-22
2.24900E-02 6.94785E-22
2.31415E-02 6.58201E-22
2.38021E-02 6.24060E-22
2.44717E-02 5.92168E-22
2.51504E-02 5.62346E-22
2.58382E-02 5.34433E-22
2.65349E-02 5.08283E-22
2.72407E-02 4.83761E-22
2.79555E-02 4.60746E-22
2.86793E-02 4.39127E-22
2.94120E-02 4.18802E-22
3.01537E-02 3.99677E-22
3.09043E-02 3.81667E-22
3.16639E-02 3.64694E-22
3.24324E-02 3.48686E-22
3.32098E-02 3.33577E-22
3.39961E-02 3.19306E-22
3.47912E-02 3.05817E-22
3.55952E-02 2.93058E-22
3.64081E-02 2.80981E-22
3.72297E-02 2.69543E-22
3.80602E-02 2.58702E-22
3.88995E-02 2.48421E-22
3.97476E-02 2.38665E-22
4.06044E-02 2.29401E-22
4.14700E-02 2.20599E-22
4.23443E-02 2.12232E-22
4.32273E-02 2.04274E-22
4.41190E-02 1.96699E-22
4.50194E-02 1.89487E-22
4.59284E-02 1.82615E-22
4.68461E-02 1.76064E-22
4.87074E-02 1.63855E-22
5.06030E-02 1.52727E-22
5.25328E-02 1.42566E-22
5.44967E-02 1.33269E-22
5.64946E-02 1.24749E-22
5.85262E-02 1.16927E-22
6.05914E-02 1.09733E-22
6.26901E-02 1.03108E-22
6.48222E-02 9.69959E-23
6.69873E-02 9.13494E-23
6.91854E-02 8.61254E-23
7.14163E-02 8.12857E-23
7.36799E-02 7.67957E-23
7.59760E-02 7.26248E-23
7.83043E-02 6.87456E-23
8.06647E-02 6.51332E-23
8.30571E-02 6.17652E-23
8.54812E-02 5.86216E-23
8.79369E-02 5.56842E-23
9.04240E-02 5.29362E-23
9.29422E-02 5.03632E-23
9.54915E-02 4.79514E-23
9.80716E-02 4.56881E-23
1.00682E-01 4.35628E-23
1.03323E-01 4.15647E-23
1.05995E-01 3.96846E-23
1.08696E-01 3.79142E-23
1.11427E-01 3.62454E-23
1.14188E-01 3.46711E-23
1.16978E-01 3.31849E-23
1.19797E-01 3.17806E-23
1.22645E-01 3.04528E-23
1.25522E-01 2.91963E-23
1.28428E-01 2.80064E-23
1.31361E-01 2.68788E-23
1.34323E-01 2.58095E-23
1.37313E-01 2.47947E-23
1.40330E-01 2.38311E-23
1.43375E-01 2.29156E-23
1.46447E-01 2.20451E-23
1.49545E-01 2.12169E-23
1.52671E-01 2.04285E-23
1.55823E-01 1.96775E-23
1.59001E-01 1.89618E-23
1.62205E-01 1.82794E-23
1.65435E-01 1.76282E-23
1.68690E-01 1.70066E-23
1.71970E-01 1.64129E-23
1.75276E-01 1.58456E-23
1.78606E-01 1.53032E-23
1.81961E-01 1.47844E-23
1.85340E-01 1.42879E-23
1.88743E-01 1.38125E-23
1.92169E-01 1.33571E-23
1.95619E-01 1.29208E-23
1.99092E-01 1.25024E-23
2.02589E-01 1.21011E-23
2.06107E-01 1.17161E-23
2.09649E-01 1.13465E-23
2.13212E-01 1.09915E-23
2.16797E-01 1.06505E-23
2.20404E-01 1.03228E-23
2.24032E-01 1.00077E-23
2.27680E-01 9.70471E-24
2.31350E-01 9.41317E-24
2.35040E-01 9.13257E-24
2.38751E-01 8.86242E-24
2.42481E-01 8.60227E-24
2.46231E-01 8.35150E-24
2.50000E-01 8.10970E-24
2.53788E-01 7.87658E-24
2.57595E-01 7.65174E-24
2.61421E-01 7.43484E-24
2.65264E-01 7.22552E-24
2.69126E-01 7.02346E-24
2.73005E-01 6.82834E-24
2.76901E-01 6.63988E-24
2.80814E-01 6.45780E-24
2.84744E-01 6.28183E-24
2.88691E-01 6.11172E-24
2.92653E-01 5.94723E-24
2.96632E-01 5.78813E-24
3.00625E-01 5.63420E-24
3.04634E-01 5.48524E-24
3.08658E-01 5.34105E-24
3.12697E-01 5.20145E-24
3.16749E-01 5.06625E-24
3.20816E-01 4.93529E-24
3.24896E-01 4.80839E-24
3.28990E-01 4.68542E-24
3.33097E-01 4.56621E-24
3.37216E-01 4.45063E-24
3.41348E-01 4.33855E-24
3.45492E-01 4.22982E-24
3.49647E-01 4.12434E-24
3.53814E-01 4.02198E-24
3.57992E-01 3.92262E-24
3.62181E-01 3.82617E-24
3.66381E-01 3.73252E-24
3.70590E-01 3.64156E-24
3.74810E-01 3.55320E-24
3.79039E-01 3.46736E-24
3.83277E-01 3.38395E-24
3.87524E-01 3.30287E-24
3.91780E-01 3.22406E-24
3.96044E-01 3.14743E-24
4.00316E-01 3.07292E-24
4.04596E-01 3.00044E-24
4.08882E-01 2.92994E-24
4.13176E-01 2.86134E-24
4.17476E-01 2.79459E-24
4.21783E-01 2.72962E-24
4.26095E-01 2.66638E-24
4.30413E-01 2.60481E-24
4.34737E-01 2.54486E-24
4.39065E-01 2.48647E-24
4.43398E-01 2.42960E-24
4.47736E-01 2.37419E-24
4.52077E-01 2.32022E-24
4.56422E-01 2.26761E-24
4.60770E-01 2.21635E-24
4.65122E-01 2.16638E-24
4.69476E-01 2.11766E-24
4.73832E-01 2.07017E-24
4.78190E-01 2.02385E-24
4.82550E-01 1.97868E-24
4.86912E-01 1.93462E-24
4.91274E-01 1.89164E-24
4.95637E-01 1.84971E-24
5.00000E-01 1.80879E-24
5.04363E-01 1.76886E-24
5.08726E-01 1.72989E-24
5.13088E-01 1.69184E-24
5.17450E-01 1.65470E-24
5.21810E-01 1.61844E-24
5.26168E-01 1.58304E-24
5.30524E-01 1.54846E-24
5.34878E-01 1.51469E-24
5.39230E-01 1.48170E-24
5.43578E-01 1.44947E-24
5.47923E-01 1.41799E-24
5.52264E-01 1.38722E-24
5.56602E-01 1.35716E-24
5.60935E-01 1.32778E-24
5.65263E-01 1.29907E-24
5.69587E-01 1.27100E-24
5.73905E-01 1.24355E-24
5.78217E-01 1.21672E-24
5.82524E-01 1.19049E-24
5.86824E-01 1.16484E-24
5.91118E-01 1.13975E-24
5.95404E-01 1.11522E-24
5.99684E-01 1.09121E-24
6.03956E-01 1.06774E-24
6.08220E-01 1.04477E-24
6.12476E-01 1.02230E-24
6.16723E-01 1.00031E-24
6.20961E-01 9.78792E-25
6.25190E-01 9.57735E-25
6.29410E-01 9.37127E-25
6.33619E-01 9.16955E-25
6.37819E-01 8.97211E-25
6.42008E-01 8.77882E-25
6.46186E-01 8.58959E-25
6.50353E-01 8.40432E-25
6.54508E-01 8.22291E-25
6.58652E-01 8.04527E-25
6.62784E-01 7.87132E-25
6.66903E-01 7.70096E-25
6.71010E-01 7.53410E-25
6.75104E-01 7.37067E-25
6.79184E-01 7.21059E-25
6.83251E-01 7.05377E-25
6.87303E-01 6.90014E-25
6.91342E-01 6.74963E-25
6.95366E-01 6.60216E-25
6.99375E-01 6.45767E-25
7.03368E-01 6.31608E-25
7.07347E-01 6.17734E-25
7.11309E-01 6.04137E-25
7.15256E-01 5.90812E-25
7.19186E-01 5.77753E-25
7.23099E-01 5.64953E-25
7.26995E-01 5.52406E-25
7.30874E-01 5.40108E-25
7.34736E-01 5.28053E-25
7.38579E-01 5.16235E-25
7.42405E-01 5.04649E-25
7.46212E-01 4.93291E-25
7.50000E-01 4.82155E-25
7.53769E-01 4.71237E-25
7.57519E-01 4.60532E-25
7.61249E-01 4.50035E-25
7.64960E-01 4.39742E-25
7.68650E-01 4.29650E-25
7.72320E-01 4.19753E-25
7.75968E-01 4.10048E-25
7.79596E-01 4.00530E-25
7.83203E-01 3.91196E-25
7.86788E-01 3.82043E-25
7.90351E-01 3.73065E-25
7.93893E-01 3.64261E-25
7.97411E-01 3.55626E-25
8.00908E-01 3.47157E-25
8.04381E-01 3.38851E-25
8.07831E-01 3.30705E-25
8.11257E-01 3.22715E-25
8.14660E-01 3.14878E-25
8.18039E-01 3.07191E-25
8.21394E-01 2.99652E-25
8.24724E-01 2.92258E-25
8.28030E-01 2.85005E-25
8.31310E-01 2.77892E-25
8.34565E-01 2.70915E-25
8.37795E-01 2.64073E-25
8.40999E-01 2.57361E-25
8.44177E-01 2.50779E-25
8.47329E-01 2.44324E-25
8.50455E-01 2.37993E-25
8.53553E-01 2.31784E-25
8.56625E-01 2.25695E-25
8.59670E-01 2.19723E-25
8.62687E-01 2.13868E-25
8.65677E-01 2.08126E-25
8.68639E-01 2.02495E-25
8.71572E-01 1.96975E-25
8.74478E-01 1.91562E-25
8.77355E-01 1.86255E-25
8.80203E-01 1.81052E-25
8.83022E-01 1.75951E-25
8.85812E-01 1.70952E-25
8.88573E-01 1.66051E-25
8.91304E-01 1.61247E-25
8.94005E-01 1.56539E-25
8.96677E-01 1.51926E-25
8.99318E-01 1.47405E-25
9.01928E-01 1.42975E-25
9.04508E-01 1.38635E-25
9.07058E-01 1.34383E-25
9.09576E-01 1.30219E-25
9.12063E-01 1.26139E-25
9.14519E-01 1.22144E-25
9.16943E-01 1.18233E-25
9.19335E-01 1.14402E-25
9.21696E-01 1.10653E-25
9.24024E-01 1.06983E-25
9.26320E-01 1.03391E-25
9.28584E-01 9.98758E-26
9.30815E-01 9.64369E-26
9.33013E-01 9.30730E-26
9.35178E-01 8.97829E-26
9.37310E-01 8.65657E-26
9.39409E-01 8.34204E-26
9.41474E-01 8.03460E-26
9.43505E-01 7.73416E-26
9.45503E-01 7.44063E-26
9.47467E-01 7.15391E-26
9.49397E-01 6.87393E-26
9.51293E-01 6.60060E-26
9.53154E-01 6.33383E-26
9.54981E-01 6.07354E-26
9.56773E-01 5.81966E-26
9.58530E-01 5.57212E-26
9.60252E-01 5.33083E-26
9.61940E-01 5.09574E-26
9.63592E-01 4.86676E-26
9.65209E-01 4.64383E-26
9.66790E-01 4.42689E-26
9.68336E-01 4.21587E-26
9.69846E-01 4.01071E-26
9.71321E-01 3.81135E-26
9.72759E-01 3.61774E-26
9.74162E-01 3.42981E-26
9.75528E-01 3.24752E-26
9.76858E-01 3.07081E-26
9.78152E-01 2.89963E-26
9.79410E-01 2.73393E-26
9.80631E-01 2.57366E-26
9.81815E-01 2.41879E-26
9.82963E-01 2.26925E-26
9.84074E-01 2.12502E-26
9.85148E-01 1.98605E-26
9.86185E-01 1.85230E-26
9.87185E-01 1.72373E-26
9.88148E-01 1.60031E-26
9.89074E-01 1.48200E-26
9.89962E-01 1.36877E-26
9.90814E-01 1.26059E-26
9.91627E-01 1.15743E-26
9.92404E-01 1.05925E-26
9.93143E-01 9.66039E-27
9.93844E-01 8.77758E-27
9.94508E-01 7.94388E-27
9.95134E-01 7.15904E-27
9.95722E-01 6.42286E-27
9.96273E-01 5.73512E-27
9.96786E-01 5.09563E-27
9.97261E-01 4.50422E-27
9.97698E-01 3.96072E-27
9.98097E-01 3.46499E-27
9.98459E-01 3.01688E-27
9.98782E-01 2.61627E-27
9.99067E-01 2.26305E-27
9.99315E-01 1.95712E-27
9.99524E-01 1.69841E-27
9.99695E-01 1.48683E-27
9.99829E-01 1.32232E-27
9.99924E-01 1.20485E-27
9.99981E-01 1.13439E-27
1.00000E+00 1.11090E-27
