 #
 # Subroutine ELSEPA. Elastic scattering of electrons and positrons
 #                    by neutral atoms and positive ions
 #
 # Projectile: electron
 # Kinetic energy = 4.00000E+06 eV = 1.46997E+05 a.u.
 #
 # WARNING: High-energy factorization with free-atom DF screening.
 #          Absorption, polarization and exchange corrections are
 #          switched off.
 #          Phase shifts are calculated for the bare nucleus.
 #          Scattering amplitudes are not evaluated.
 #
 # Element: Hg,  Z =  80,  atomic weight = 2.00590E+02 g/mol
 #
 # Nuclear model: Fermi distribution
 #                Average radius = 6.26355E-13 cm
 #                Skin thickness = 5.46000E-14 cm
 #
 # Number of electrons = 80
 #
 # Total elastic cross section = 8.00769E-18 cm**2 = 2.85960E-01 a0**2
 # 1st transport cross section = 5.21242E-22 cm**2 = 1.86139E-05 a0**2
 # 2nd transport cross section = 1.39063E-21 cm**2 = 4.96603E-05 a0**2
 #
 #
 # Differential cross section:                       MU=(1-COS(THETA))/2
 #
 #  THETA        MU          DCS          DCS        Sherman      error
 #  (deg)                 (cm**2/sr)   (a0**2/sr)    function
 #----------------------------------------------------------------------
0.00000E+00 8.65075E-13
7.61557E-13 8.65072E-13
1.18994E-12 8.65070E-13
1.71346E-12 8.65069E-13
2.33225E-12 8.65066E-13
3.04617E-12 8.65064E-13
3.85530E-12 8.65061E-13
4.75964E-12 8.65058E-13
5.75917E-12 8.65054E-13
6.85391E-12 8.65050E-13
8.04379E-12 8.65046E-13
9.32893E-12 8.65041E-13
1.07092E-11 8.65036E-13
1.21847E-11 8.65030E-13
1.37554E-11 8.65025E-13
1.54213E-11 8.65019E-13
1.71823E-11 8.65012E-13
1.90386E-11 8.65005E-13
2.09900E-11 8.64998E-13
2.30367E-11 8.64991E-13
2.51785E-11 8.64983E-13
2.74156E-11 8.64975E-13
2.97478E-11 8.64966E-13
3.21752E-11 8.64957E-13
3.46979E-11 8.64948E-13
3.73157E-11 8.64938E-13
4.00286E-11 8.64929E-13
4.28368E-11 8.64918E-13
4.57402E-11 8.64908E-13
4.87388E-11 8.64897E-13
5.18325E-11 8.64885E-13
5.50215E-11 8.64874E-13
5.83057E-11 8.64862E-13
6.16850E-11 8.64849E-13
6.51595E-11 8.64836E-13
6.87293E-11 8.64823E-13
7.23943E-11 8.64810E-13
7.61544E-11 8.64796E-13
1.18991E-10 8.64639E-13
1.71347E-10 8.64447E-13
2.33223E-10 8.64221E-13
3.04617E-10 8.63959E-13
3.85531E-10 8.63663E-13
4.75965E-10 8.63332E-13
5.75917E-10 8.62967E-13
6.85389E-10 8.62567E-13
8.04380E-10 8.62133E-13
9.32891E-10 8.61664E-13
1.07092E-09 8.61161E-13
1.21847E-09 8.60624E-13
1.37554E-09 8.60053E-13
1.54213E-09 8.59448E-13
1.71823E-09 8.58809E-13
1.90386E-09 8.58137E-13
2.09900E-09 8.57431E-13
2.30367E-09 8.56692E-13
2.51785E-09 8.55920E-13
2.74156E-09 8.55115E-13
2.97478E-09 8.54277E-13
3.21752E-09 8.53406E-13
3.46978E-09 8.52503E-13
3.73156E-09 8.51568E-13
4.00286E-09 8.50600E-13
4.28368E-09 8.49600E-13
4.57402E-09 8.48569E-13
4.87388E-09 8.47507E-13
5.18326E-09 8.46413E-13
5.50215E-09 8.45288E-13
5.83057E-09 8.44133E-13
6.16850E-09 8.42946E-13
6.51596E-09 8.41730E-13
6.87293E-09 8.40484E-13
7.23942E-09 8.39207E-13
7.61544E-09 8.37901E-13
1.18991E-08 8.23253E-13
1.71347E-08 8.05984E-13
2.33223E-08 7.86341E-13
3.04617E-08 7.64745E-13
3.85531E-08 7.41573E-13
4.75965E-08 7.17194E-13
5.75917E-08 6.91932E-13
6.85389E-08 6.65840E-13
8.04380E-08 6.39478E-13
9.32891E-08 6.13112E-13
1.07092E-07 5.86969E-13
1.21847E-07 5.61236E-13
1.37554E-07 5.35880E-13
1.54213E-07 5.11112E-13
1.71823E-07 4.87142E-13
1.90386E-07 4.64036E-13
2.09900E-07 4.41838E-13
2.30367E-07 4.20535E-13
2.51785E-07 4.00002E-13
2.74156E-07 3.80435E-13
2.97478E-07 3.61820E-13
3.21752E-07 3.44133E-13
3.46978E-07 3.27346E-13
3.73156E-07 3.11321E-13
4.00286E-07 2.96103E-13
4.28368E-07 2.81701E-13
4.57402E-07 2.68073E-13
4.87388E-07 2.55181E-13
5.18325E-07 2.42961E-13
5.50215E-07 2.31334E-13
5.83057E-07 2.20343E-13
6.16850E-07 2.09953E-13
6.51596E-07 2.00127E-13
6.87293E-07 1.90833E-13
7.23942E-07 1.81990E-13
7.61543E-07 1.73613E-13
1.18991E-06 1.10040E-13
1.71347E-06 7.24933E-14
2.33223E-06 4.92740E-14
3.04617E-06 3.47032E-14
3.85531E-06 2.51945E-14
4.75964E-06 1.87798E-14
5.75916E-06 1.43167E-14
6.85388E-06 1.10945E-14
8.04378E-06 8.74663E-15
9.32888E-06 6.99423E-15
1.07092E-05 5.65972E-15
1.21846E-05 4.62613E-15
1.37553E-05 3.80963E-15
1.54212E-05 3.16083E-15
1.71822E-05 2.64241E-15
1.90385E-05 2.22307E-15
2.09899E-05 1.88494E-15
2.30365E-05 1.60742E-15
2.51783E-05 1.37762E-15
2.74153E-05 1.18766E-15
2.97475E-05 1.02896E-15
3.21749E-05 8.95704E-16
3.46974E-05 7.83768E-16
3.73152E-05 6.89152E-16
4.00281E-05 6.08789E-16
4.28362E-05 5.40119E-16
4.57395E-05 4.81063E-16
4.87380E-05 4.29979E-16
5.18317E-05 3.85537E-16
5.50205E-05 3.46669E-16
5.83045E-05 3.12619E-16
6.16838E-05 2.82694E-16
6.51582E-05 2.56311E-16
6.87277E-05 2.32979E-16
7.23925E-05 2.12254E-16
7.61524E-05 1.93804E-16
9.21439E-05 1.37450E-16
1.09658E-04 1.00165E-16
1.28695E-04 7.46585E-17
1.49255E-04 5.68382E-17
1.71338E-04 4.40448E-17
1.94942E-04 3.46616E-17
2.20070E-04 2.76424E-17
2.46720E-04 2.23119E-17
2.74892E-04 1.82089E-17
3.04586E-04 1.50082E-17
3.35803E-04 1.24814E-17
3.68542E-04 1.04643E-17
4.02802E-04 8.83701E-18
4.38585E-04 7.51483E-18
4.75889E-04 6.43143E-18
5.14715E-04 5.53691E-18
5.55063E-04 4.79302E-18
5.96931E-04 4.16992E-18
6.40321E-04 3.64511E-18
6.85233E-04 3.20065E-18
7.31665E-04 2.82220E-18
7.79618E-04 2.49827E-18
8.29092E-04 2.21966E-18
8.80086E-04 1.97884E-18
9.32601E-04 1.76995E-18
9.86636E-04 1.58803E-18
1.04219E-03 1.42896E-18
1.09927E-03 1.28940E-18
1.15786E-03 1.16646E-18
1.21797E-03 1.05786E-18
1.27961E-03 9.61656E-19
1.34276E-03 8.76173E-19
1.40743E-03 8.00007E-19
1.47362E-03 7.31948E-19
1.54133E-03 6.70978E-19
1.61056E-03 6.16241E-19
1.68131E-03 5.66989E-19
1.75357E-03 5.22573E-19
1.82735E-03 4.82433E-19
1.90265E-03 4.46071E-19
1.97947E-03 4.13080E-19
2.05780E-03 3.83092E-19
2.13765E-03 3.55785E-19
2.21902E-03 3.30875E-19
2.30190E-03 3.08111E-19
2.38630E-03 2.87275E-19
2.47222E-03 2.68177E-19
2.55965E-03 2.50646E-19
2.64859E-03 2.34529E-19
2.73905E-03 2.19693E-19
2.83103E-03 2.06013E-19
2.92452E-03 1.93386E-19
3.01952E-03 1.81717E-19
3.11604E-03 1.70919E-19
3.21407E-03 1.60915E-19
3.31362E-03 1.51636E-19
3.41468E-03 1.43019E-19
3.51725E-03 1.35008E-19
3.62133E-03 1.27555E-19
3.72692E-03 1.20611E-19
3.83403E-03 1.14137E-19
3.94265E-03 1.08094E-19
4.05278E-03 1.02448E-19
4.16442E-03 9.71680E-20
4.27757E-03 9.22266E-20
4.39223E-03 8.75978E-20
4.50840E-03 8.32576E-20
4.62608E-03 7.91849E-20
4.74527E-03 7.53602E-20
4.86597E-03 7.17657E-20
4.98817E-03 6.83848E-20
5.11188E-03 6.52023E-20
5.23711E-03 6.22042E-20
5.36383E-03 5.93781E-20
5.49207E-03 5.67122E-20
5.62181E-03 5.41957E-20
5.75306E-03 5.18186E-20
5.88581E-03 4.95716E-20
6.02007E-03 4.74463E-20
6.15583E-03 4.54348E-20
6.29310E-03 4.35300E-20
6.43187E-03 4.17251E-20
6.57214E-03 4.00138E-20
6.71392E-03 3.83902E-20
6.85720E-03 3.68490E-20
7.00198E-03 3.53854E-20
7.14827E-03 3.39946E-20
7.29605E-03 3.26723E-20
7.44534E-03 3.14144E-20
7.59612E-03 3.02172E-20
7.97965E-03 2.74674E-20
8.37255E-03 2.50273E-20
8.77480E-03 2.28556E-20
9.18641E-03 2.09175E-20
9.60736E-03 1.91834E-20
1.00376E-02 1.76279E-20
1.04773E-02 1.62293E-20
1.09262E-02 1.49687E-20
1.13844E-02 1.38302E-20
1.18520E-02 1.27996E-20
1.23288E-02 1.18649E-20
1.28150E-02 1.10155E-20
1.33104E-02 1.02422E-20
1.38150E-02 9.53689E-21
1.43290E-02 8.89238E-21
1.48521E-02 8.30249E-21
1.53845E-02 7.76174E-21
1.59262E-02 7.26524E-21
1.64770E-02 6.80870E-21
1.70371E-02 6.38827E-21
1.76063E-02 6.00052E-21
1.81848E-02 5.64246E-21
1.87724E-02 5.31137E-21
1.93692E-02 5.00482E-21
1.99751E-02 4.72065E-21
2.05901E-02 4.45689E-21
2.12143E-02 4.21178E-21
2.18476E-02 3.98377E-21
2.24900E-02 3.77142E-21
2.31415E-02 3.57345E-21
2.38021E-02 3.38868E-21
2.44717E-02 3.21605E-21
2.51504E-02 3.05463E-21
2.58382E-02 2.90352E-21
2.65349E-02 2.76195E-21
2.72407E-02 2.62919E-21
2.79555E-02 2.50457E-21
2.86793E-02 2.38750E-21
2.94120E-02 2.27744E-21
3.01537E-02 2.17387E-21
3.09043E-02 2.07633E-21
3.16639E-02 1.98441E-21
3.24324E-02 1.89770E-21
3.32098E-02 1.81587E-21
3.39961E-02 1.73856E-21
3.47912E-02 1.66549E-21
3.55952E-02 1.59638E-21
3.64081E-02 1.53095E-21
3.72297E-02 1.46898E-21
3.80602E-02 1.41025E-21
3.88995E-02 1.35455E-21
3.97476E-02 1.30169E-21
4.06044E-02 1.25150E-21
4.14700E-02 1.20380E-21
4.23443E-02 1.15847E-21
4.32273E-02 1.11534E-21
4.41190E-02 1.07429E-21
4.50194E-02 1.03521E-21
4.59284E-02 9.97965E-22
4.68461E-02 9.62463E-22
4.87074E-02 8.96291E-22
5.06030E-02 8.35974E-22
5.25328E-02 7.80889E-22
5.44967E-02 7.30488E-22
5.64946E-02 6.84291E-22
5.85262E-02 6.41874E-22
6.05914E-02 6.02862E-22
6.26901E-02 5.66926E-22
6.48222E-02 5.33770E-22
6.69873E-02 5.03134E-22
6.91854E-02 4.74786E-22
7.14163E-02 4.48516E-22
7.36799E-02 4.24141E-22
7.59760E-02 4.01494E-22
7.83043E-02 3.80425E-22
8.06647E-02 3.60801E-22
8.30571E-02 3.42499E-22
8.54812E-02 3.25412E-22
8.79369E-02 3.09441E-22
9.04240E-02 2.94496E-22
9.29422E-02 2.80497E-22
9.54915E-02 2.67370E-22
9.80716E-02 2.55049E-22
1.00682E-01 2.43472E-22
1.03323E-01 2.32585E-22
1.05995E-01 2.22337E-22
1.08696E-01 2.12682E-22
1.11427E-01 2.03577E-22
1.14188E-01 1.94984E-22
1.16978E-01 1.86868E-22
1.19797E-01 1.79195E-22
1.22645E-01 1.71935E-22
1.25522E-01 1.65062E-22
1.28428E-01 1.58550E-22
1.31361E-01 1.52375E-22
1.34323E-01 1.46516E-22
1.37313E-01 1.40952E-22
1.40330E-01 1.35666E-22
1.43375E-01 1.30639E-22
1.46447E-01 1.25857E-22
1.49545E-01 1.21304E-22
1.52671E-01 1.16967E-22
1.55823E-01 1.12832E-22
1.59001E-01 1.08889E-22
1.62205E-01 1.05126E-22
1.65435E-01 1.01533E-22
1.68690E-01 9.81006E-23
1.71970E-01 9.48193E-23
1.75276E-01 9.16812E-23
1.78606E-01 8.86784E-23
1.81961E-01 8.58035E-23
1.85340E-01 8.30499E-23
1.88743E-01 8.04111E-23
1.92169E-01 7.78812E-23
1.95619E-01 7.54544E-23
1.99092E-01 7.31256E-23
2.02589E-01 7.08899E-23
2.06107E-01 6.87424E-23
2.09649E-01 6.66790E-23
2.13212E-01 6.46954E-23
2.16797E-01 6.27879E-23
2.20404E-01 6.09526E-23
2.24032E-01 5.91863E-23
2.27680E-01 5.74856E-23
2.31350E-01 5.58476E-23
2.35040E-01 5.42693E-23
2.38751E-01 5.27480E-23
2.42481E-01 5.12810E-23
2.46231E-01 4.98660E-23
2.50000E-01 4.85007E-23
2.53788E-01 4.71828E-23
2.57595E-01 4.59103E-23
2.61421E-01 4.46813E-23
2.65264E-01 4.34938E-23
2.69126E-01 4.23462E-23
2.73005E-01 4.12366E-23
2.76901E-01 4.01636E-23
2.80814E-01 3.91256E-23
2.84744E-01 3.81213E-23
2.88691E-01 3.71491E-23
2.92653E-01 3.62078E-23
2.96632E-01 3.52963E-23
3.00625E-01 3.44133E-23
3.04634E-01 3.35576E-23
3.08658E-01 3.27283E-23
3.12697E-01 3.19244E-23
3.16749E-01 3.11447E-23
3.20816E-01 3.03885E-23
3.24896E-01 2.96547E-23
3.28990E-01 2.89427E-23
3.33097E-01 2.82516E-23
3.37216E-01 2.75806E-23
3.41348E-01 2.69289E-23
3.45492E-01 2.62960E-23
3.49647E-01 2.56811E-23
3.53814E-01 2.50835E-23
3.57992E-01 2.45027E-23
3.62181E-01 2.39380E-23
3.66381E-01 2.33890E-23
3.70590E-01 2.28550E-23
3.74810E-01 2.23355E-23
3.79039E-01 2.18301E-23
3.83277E-01 2.13383E-23
3.87524E-01 2.08596E-23
3.91780E-01 2.03935E-23
3.96044E-01 1.99397E-23
4.00316E-01 1.94978E-23
4.04596E-01 1.90674E-23
4.08882E-01 1.86480E-23
4.13176E-01 1.82394E-23
4.17476E-01 1.78411E-23
4.21783E-01 1.74530E-23
4.26095E-01 1.70746E-23
4.30413E-01 1.67056E-23
4.34737E-01 1.63459E-23
4.39065E-01 1.59949E-23
4.43398E-01 1.56526E-23
4.47736E-01 1.53186E-23
4.52077E-01 1.49926E-23
4.56422E-01 1.46745E-23
4.60770E-01 1.43641E-23
4.65122E-01 1.40610E-23
4.69476E-01 1.37651E-23
4.73832E-01 1.34761E-23
4.78190E-01 1.31939E-23
4.82550E-01 1.29182E-23
4.86912E-01 1.26489E-23
4.91274E-01 1.23858E-23
4.95637E-01 1.21287E-23
5.00000E-01 1.18774E-23
5.04363E-01 1.16319E-23
5.08726E-01 1.13918E-23
5.13088E-01 1.11572E-23
5.17450E-01 1.09277E-23
5.21810E-01 1.07033E-23
5.26168E-01 1.04838E-23
5.30524E-01 1.02692E-23
5.34878E-01 1.00592E-23
5.39230E-01 9.85380E-24
5.43578E-01 9.65284E-24
5.47923E-01 9.45619E-24
5.52264E-01 9.26374E-24
5.56602E-01 9.07539E-24
5.60935E-01 8.89101E-24
5.65263E-01 8.71051E-24
5.69587E-01 8.53381E-24
5.73905E-01 8.36079E-24
5.78217E-01 8.19137E-24
5.82524E-01 8.02547E-24
5.86824E-01 7.86298E-24
5.91118E-01 7.70383E-24
5.95404E-01 7.54793E-24
5.99684E-01 7.39521E-24
6.03956E-01 7.24557E-24
6.08220E-01 7.09895E-24
6.12476E-01 6.95528E-24
6.16723E-01 6.81449E-24
6.20961E-01 6.67650E-24
6.25190E-01 6.54126E-24
6.29410E-01 6.40869E-24
6.33619E-01 6.27874E-24
6.37819E-01 6.15134E-24
6.42008E-01 6.02644E-24
6.46186E-01 5.90397E-24
6.50353E-01 5.78388E-24
6.54508E-01 5.66611E-24
6.58652E-01 5.55062E-24
6.62784E-01 5.43735E-24
6.66903E-01 5.32625E-24
6.71010E-01 5.21728E-24
6.75104E-01 5.11038E-24
6.79184E-01 5.00552E-24
6.83251E-01 4.90264E-24
6.87303E-01 4.80171E-24
6.91342E-01 4.70267E-24
6.95366E-01 4.60550E-24
6.99375E-01 4.51015E-24
7.03368E-01 4.41657E-24
7.07347E-01 4.32474E-24
7.11309E-01 4.23462E-24
7.15256E-01 4.14617E-24
7.19186E-01 4.05935E-24
7.23099E-01 3.97414E-24
7.26995E-01 3.89050E-24
7.30874E-01 3.80839E-24
7.34736E-01 3.72779E-24
7.38579E-01 3.64867E-24
7.42405E-01 3.57099E-24
7.46212E-01 3.49472E-24
7.50000E-01 3.41985E-24
7.53769E-01 3.34633E-24
7.57519E-01 3.27415E-24
7.61249E-01 3.20328E-24
7.64960E-01 3.13369E-24
7.68650E-01 3.06536E-24
7.72320E-01 2.99826E-24
7.75968E-01 2.93238E-24
7.79596E-01 2.86768E-24
7.83203E-01 2.80414E-24
7.86788E-01 2.74175E-24
7.90351E-01 2.68048E-24
7.93893E-01 2.62031E-24
7.97411E-01 2.56122E-24
8.00908E-01 2.50319E-24
8.04381E-01 2.44620E-24
8.07831E-01 2.39023E-24
8.11257E-01 2.33527E-24
8.14660E-01 2.28129E-24
8.18039E-01 2.22828E-24
8.21394E-01 2.17623E-24
8.24724E-01 2.12511E-24
8.28030E-01 2.07491E-24
8.31310E-01 2.02561E-24
8.34565E-01 1.97719E-24
8.37795E-01 1.92966E-24
8.40999E-01 1.88297E-24
8.44177E-01 1.83713E-24
8.47329E-01 1.79212E-24
8.50455E-01 1.74793E-24
8.53553E-01 1.70454E-24
8.56625E-01 1.66193E-24
8.59670E-01 1.62010E-24
8.62687E-01 1.57904E-24
8.65677E-01 1.53873E-24
8.68639E-01 1.49915E-24
8.71572E-01 1.46031E-24
8.74478E-01 1.42218E-24
8.77355E-01 1.38476E-24
8.80203E-01 1.34803E-24
8.83022E-01 1.31199E-24
8.85812E-01 1.27662E-24
8.88573E-01 1.24191E-24
8.91304E-01 1.20786E-24
8.94005E-01 1.17445E-24
8.96677E-01 1.14168E-24
8.99318E-01 1.10953E-24
9.01928E-01 1.07800E-24
9.04508E-01 1.04708E-24
9.07058E-01 1.01676E-24
9.09576E-01 9.87030E-25
9.12063E-01 9.57885E-25
9.14519E-01 9.29314E-25
9.16943E-01 9.01312E-25
9.19335E-01 8.73870E-25
9.21696E-01 8.46981E-25
9.24024E-01 8.20638E-25
9.26320E-01 7.94834E-25
9.28584E-01 7.69562E-25
9.30815E-01 7.44815E-25
9.33013E-01 7.20587E-25
9.35178E-01 6.96872E-25
9.37310E-01 6.73663E-25
9.39409E-01 6.50954E-25
9.41474E-01 6.28740E-25
9.43505E-01 6.07015E-25
9.45503E-01 5.85773E-25
9.47467E-01 5.65009E-25
9.49397E-01 5.44717E-25
9.51293E-01 5.24893E-25
9.53154E-01 5.05531E-25
9.54981E-01 4.86626E-25
9.56773E-01 4.68175E-25
9.58530E-01 4.50171E-25
9.60252E-01 4.32611E-25
9.61940E-01 4.15490E-25
9.63592E-01 3.98805E-25
9.65209E-01 3.82550E-25
9.66790E-01 3.66722E-25
9.68336E-01 3.51317E-25
9.69846E-01 3.36331E-25
9.71321E-01 3.21760E-25
9.72759E-01 3.07602E-25
9.74162E-01 2.93852E-25
9.75528E-01 2.80507E-25
9.76858E-01 2.67564E-25
9.78152E-01 2.55020E-25
9.79410E-01 2.42872E-25
9.80631E-01 2.31116E-25
9.81815E-01 2.19750E-25
9.82963E-01 2.08772E-25
9.84074E-01 1.98179E-25
9.85148E-01 1.87967E-25
9.86185E-01 1.78135E-25
9.87185E-01 1.68681E-25
9.88148E-01 1.59601E-25
9.89074E-01 1.50895E-25
9.89962E-01 1.42560E-25
9.90814E-01 1.34593E-25
9.91627E-01 1.26993E-25
9.92404E-01 1.19759E-25
9.93143E-01 1.12889E-25
9.93844E-01 1.06380E-25
9.94508E-01 1.00231E-25
9.95134E-01 9.44420E-26
9.95722E-01 8.90102E-26
9.96273E-01 8.39347E-26
9.96786E-01 7.92144E-26
9.97261E-01 7.48482E-26
9.97698E-01 7.08349E-26
9.98097E-01 6.71738E-26
9.98459E-01 6.38639E-26
9.98782E-01 6.09045E-26
9.99067E-01 5.82949E-26
9.99315E-01 5.60344E-26
9.99524E-01 5.41226E-26
9.99695E-01 5.25590E-26
9.99829E-01 5.13433E-26
9.99924E-01 5.04751E-26
9.99981E-01 4.99542E-26
1.00000E+00 4.97806E-26
