 #
 # Subroutine ELSEPA. Elastic scattering of electrons and positrons
 #                    by neutral atoms and positive ions
 #
 # Projectile: electron
 # Kinetic energy = 2.50000E+06 eV = 9.18733E+04 a.u.
 #
 # WARNING: High-energy factorization with free-atom DF screening.
 #          Absorption, polarization and exchange corrections are
 #          switched off.
 #          Phase shifts are calculated for the bare nucleus.
 #          Scattering amplitudes are not evaluated.
 #
 # Element: Hg,  Z =  80,  atomic weight = 2.00590E+02 g/mol
 #
 # Nuclear model: Fermi distribution
 #                Average radius = 6.26355E-13 cm
 #                Skin thickness = 5.46000E-14 cm
 #
 # Number of electrons = 80
 #
 # Total elastic cross section = 8.14390E-18 cm**2 = 2.90824E-01 a0**2
 # 1st transport cross section = 1.13246E-21 cm**2 = 4.04407E-05 a0**2
 # 2nd transport cross section = 2.98513E-21 cm**2 = 1.06601E-04 a0**2
 #
 #
 # Differential cross section:                       MU=(1-COS(THETA))/2
 #
 #  THETA        MU          DCS          DCS        Sherman      error
 #  (deg)                 (cm**2/sr)   (a0**2/sr)    function
 #----------------------------------------------------------------------
0.00000E+00 3.85416E-13
7.61557E-13 3.85415E-13
1.18994E-12 3.85415E-13
1.71346E-12 3.85415E-13
2.33225E-12 3.85414E-13
3.04617E-12 3.85414E-13
3.85530E-12 3.85413E-13
4.75964E-12 3.85413E-13
5.75917E-12 3.85412E-13
6.85391E-12 3.85411E-13
8.04379E-12 3.85410E-13
9.32893E-12 3.85409E-13
1.07092E-11 3.85408E-13
1.21847E-11 3.85407E-13
1.37554E-11 3.85406E-13
1.54213E-11 3.85405E-13
1.71823E-11 3.85404E-13
1.90386E-11 3.85403E-13
2.09900E-11 3.85401E-13
2.30367E-11 3.85400E-13
2.51785E-11 3.85398E-13
2.74156E-11 3.85397E-13
2.97478E-11 3.85395E-13
3.21752E-11 3.85393E-13
3.46979E-11 3.85392E-13
3.73157E-11 3.85390E-13
4.00286E-11 3.85388E-13
4.28368E-11 3.85386E-13
4.57402E-11 3.85384E-13
4.87388E-11 3.85382E-13
5.18325E-11 3.85380E-13
5.50215E-11 3.85377E-13
5.83057E-11 3.85375E-13
6.16850E-11 3.85373E-13
6.51595E-11 3.85370E-13
6.87293E-11 3.85368E-13
7.23943E-11 3.85365E-13
7.61544E-11 3.85362E-13
1.18991E-10 3.85332E-13
1.71347E-10 3.85295E-13
2.33223E-10 3.85251E-13
3.04617E-10 3.85200E-13
3.85531E-10 3.85142E-13
4.75965E-10 3.85078E-13
5.75917E-10 3.85006E-13
6.85389E-10 3.84928E-13
8.04380E-10 3.84843E-13
9.32891E-10 3.84752E-13
1.07092E-09 3.84653E-13
1.21847E-09 3.84548E-13
1.37554E-09 3.84436E-13
1.54213E-09 3.84318E-13
1.71823E-09 3.84193E-13
1.90386E-09 3.84060E-13
2.09900E-09 3.83922E-13
2.30367E-09 3.83776E-13
2.51785E-09 3.83624E-13
2.74156E-09 3.83465E-13
2.97478E-09 3.83300E-13
3.21752E-09 3.83128E-13
3.46978E-09 3.82949E-13
3.73156E-09 3.82764E-13
4.00286E-09 3.82572E-13
4.28368E-09 3.82374E-13
4.57402E-09 3.82169E-13
4.87388E-09 3.81957E-13
5.18326E-09 3.81739E-13
5.50215E-09 3.81515E-13
5.83057E-09 3.81284E-13
6.16850E-09 3.81047E-13
6.51596E-09 3.80803E-13
6.87293E-09 3.80553E-13
7.23942E-09 3.80297E-13
7.61544E-09 3.80034E-13
1.18991E-08 3.77062E-13
1.71347E-08 3.73484E-13
2.33223E-08 3.69335E-13
3.04617E-08 3.64613E-13
3.85531E-08 3.59444E-13
4.75965E-08 3.53772E-13
5.75917E-08 3.47763E-13
6.85389E-08 3.41291E-13
8.04380E-08 3.34614E-13
9.32891E-08 3.27536E-13
1.07092E-07 3.20340E-13
1.21847E-07 3.12870E-13
1.37554E-07 3.05323E-13
1.54213E-07 2.97636E-13
1.71823E-07 2.89892E-13
1.90386E-07 2.82138E-13
2.09900E-07 2.74333E-13
2.30367E-07 2.66641E-13
2.51785E-07 2.58891E-13
2.74156E-07 2.51362E-13
2.97478E-07 2.43760E-13
3.21752E-07 2.36428E-13
3.46978E-07 2.29092E-13
3.73156E-07 2.22003E-13
4.00286E-07 2.14996E-13
4.28368E-07 2.08195E-13
4.57402E-07 2.01547E-13
4.87388E-07 1.95064E-13
5.18325E-07 1.88790E-13
5.50215E-07 1.82643E-13
5.83057E-07 1.76748E-13
6.16850E-07 1.70943E-13
6.51596E-07 1.65419E-13
6.87293E-07 1.59961E-13
7.23942E-07 1.54767E-13
7.61543E-07 1.49678E-13
1.18991E-06 1.07734E-13
1.71347E-06 7.83850E-14
2.33223E-06 5.78778E-14
3.04617E-06 4.28454E-14
3.85531E-06 3.28115E-14
4.75964E-06 2.52656E-14
5.75916E-06 1.99330E-14
6.85388E-06 1.57625E-14
8.04378E-06 1.27507E-14
9.32888E-06 1.03478E-14
1.07092E-05 8.54507E-15
1.21846E-05 7.09814E-15
1.37553E-05 5.96624E-15
1.54212E-05 5.04808E-15
1.71822E-05 4.30454E-15
1.90385E-05 3.69281E-15
2.09899E-05 3.18737E-15
2.30365E-05 2.76869E-15
2.51783E-05 2.41019E-15
2.74153E-05 2.11145E-15
2.97475E-05 1.85125E-15
3.21749E-05 1.63290E-15
3.46974E-05 1.44233E-15
3.73152E-05 1.28018E-15
4.00281E-05 1.13867E-15
4.28362E-05 1.01645E-15
4.57395E-05 9.09621E-16
4.87380E-05 8.16207E-16
5.18317E-05 7.34419E-16
5.50205E-05 6.62253E-16
5.83045E-05 5.98969E-16
6.16838E-05 5.42893E-16
6.51582E-05 4.93594E-16
6.87277E-05 4.49202E-16
7.23925E-05 4.09953E-16
7.61524E-05 3.74843E-16
9.21439E-05 2.67704E-16
1.09658E-04 1.96844E-16
1.28695E-04 1.48167E-16
1.49255E-04 1.13731E-16
1.71338E-04 8.88224E-17
1.94942E-04 7.04241E-17
2.20070E-04 5.65670E-17
2.46720E-04 4.59559E-17
2.74892E-04 3.76922E-17
3.04586E-04 3.12372E-17
3.35803E-04 2.61012E-17
3.68542E-04 2.19923E-17
4.02802E-04 1.86486E-17
4.38585E-04 1.59311E-17
4.75889E-04 1.36791E-17
5.14715E-04 1.18214E-17
5.55063E-04 1.02619E-17
5.96931E-04 8.95588E-18
6.40321E-04 7.84867E-18
6.85233E-04 6.90889E-18
7.31665E-04 6.10514E-18
7.79618E-04 5.41498E-18
8.29092E-04 4.82009E-18
8.80086E-04 4.30414E-18
9.32601E-04 3.85624E-18
9.86636E-04 3.46439E-18
1.04219E-03 3.12198E-18
1.09927E-03 2.82013E-18
1.15786E-03 2.55457E-18
1.21797E-03 2.31925E-18
1.27961E-03 2.11076E-18
1.34276E-03 1.92512E-18
1.40743E-03 1.75960E-18
1.47362E-03 1.61156E-18
1.54133E-03 1.47880E-18
1.61056E-03 1.35956E-18
1.68131E-03 1.25207E-18
1.75357E-03 1.15515E-18
1.82735E-03 1.06737E-18
1.90265E-03 9.87913E-19
1.97947E-03 9.15653E-19
2.05780E-03 8.49984E-19
2.13765E-03 7.90080E-19
2.21902E-03 7.35418E-19
2.30190E-03 6.85410E-19
2.38630E-03 6.39606E-19
2.47222E-03 5.97587E-19
2.55965E-03 5.58968E-19
2.64859E-03 5.23452E-19
2.73905E-03 4.90702E-19
2.83103E-03 4.60512E-19
2.92452E-03 4.32590E-19
3.01952E-03 4.06787E-19
3.11604E-03 3.82867E-19
3.21407E-03 3.60703E-19
3.31362E-03 3.40117E-19
3.41468E-03 3.20992E-19
3.51725E-03 3.03197E-19
3.62133E-03 2.86623E-19
3.72692E-03 2.71174E-19
3.83403E-03 2.56753E-19
3.94265E-03 2.43289E-19
4.05278E-03 2.30692E-19
4.16442E-03 2.18914E-19
4.27757E-03 2.07872E-19
4.39223E-03 1.97529E-19
4.50840E-03 1.87820E-19
4.62608E-03 1.78707E-19
4.74527E-03 1.70141E-19
4.86597E-03 1.62086E-19
4.98817E-03 1.54506E-19
5.11188E-03 1.47366E-19
5.23711E-03 1.40637E-19
5.36383E-03 1.34289E-19
5.49207E-03 1.28300E-19
5.62181E-03 1.22641E-19
5.75306E-03 1.17296E-19
5.88581E-03 1.12238E-19
6.02007E-03 1.07455E-19
6.15583E-03 1.02924E-19
6.29310E-03 9.86323E-20
6.43187E-03 9.45635E-20
6.57214E-03 9.07046E-20
6.71392E-03 8.70424E-20
6.85720E-03 8.35647E-20
7.00198E-03 8.02611E-20
7.14827E-03 7.71201E-20
7.29605E-03 7.41338E-20
7.44534E-03 7.12912E-20
7.59612E-03 6.85860E-20
7.97965E-03 6.23680E-20
8.37255E-03 5.68470E-20
8.77480E-03 5.19308E-20
9.18641E-03 4.75408E-20
9.60736E-03 4.36113E-20
1.00376E-02 4.00850E-20
1.04773E-02 3.69129E-20
1.09262E-02 3.40532E-20
1.13844E-02 3.14695E-20
1.18520E-02 2.91301E-20
1.23288E-02 2.70078E-20
1.28150E-02 2.50787E-20
1.33104E-02 2.33219E-20
1.38150E-02 2.17192E-20
1.43290E-02 2.02545E-20
1.48521E-02 1.89137E-20
1.53845E-02 1.76844E-20
1.59262E-02 1.65555E-20
1.64770E-02 1.55173E-20
1.70371E-02 1.45610E-20
1.76063E-02 1.36790E-20
1.81848E-02 1.28644E-20
1.87724E-02 1.21111E-20
1.93692E-02 1.14135E-20
1.99751E-02 1.07668E-20
2.05901E-02 1.01665E-20
2.12143E-02 9.60852E-21
2.18476E-02 9.08944E-21
2.24900E-02 8.60596E-21
2.31415E-02 8.15515E-21
2.38021E-02 7.73438E-21
2.44717E-02 7.34125E-21
2.51504E-02 6.97357E-21
2.58382E-02 6.62937E-21
2.65349E-02 6.30681E-21
2.72407E-02 6.00437E-21
2.79555E-02 5.72041E-21
2.86793E-02 5.45368E-21
2.94120E-02 5.20282E-21
3.01537E-02 4.96680E-21
3.09043E-02 4.74447E-21
3.16639E-02 4.53494E-21
3.24324E-02 4.33728E-21
3.32098E-02 4.15070E-21
3.39961E-02 3.97445E-21
3.47912E-02 3.80783E-21
3.55952E-02 3.65022E-21
3.64081E-02 3.50101E-21
3.72297E-02 3.35969E-21
3.80602E-02 3.22572E-21
3.88995E-02 3.09867E-21
3.97476E-02 2.97807E-21
4.06044E-02 2.86357E-21
4.14700E-02 2.75475E-21
4.23443E-02 2.65130E-21
4.32273E-02 2.55289E-21
4.41190E-02 2.45922E-21
4.50194E-02 2.37001E-21
4.59284E-02 2.28501E-21
4.68461E-02 2.20398E-21
4.87074E-02 2.05292E-21
5.06030E-02 1.91521E-21
5.25328E-02 1.78943E-21
5.44967E-02 1.67433E-21
5.64946E-02 1.56882E-21
5.85262E-02 1.47192E-21
6.05914E-02 1.38279E-21
6.26901E-02 1.30068E-21
6.48222E-02 1.22492E-21
6.69873E-02 1.15490E-21
6.91854E-02 1.09010E-21
7.14163E-02 1.03005E-21
7.36799E-02 9.74318E-22
7.59760E-02 9.22533E-22
7.83043E-02 8.74350E-22
8.06647E-02 8.29465E-22
8.30571E-02 7.87601E-22
8.54812E-02 7.48509E-22
8.79369E-02 7.11966E-22
9.04240E-02 6.77766E-22
9.29422E-02 6.45726E-22
9.54915E-02 6.15679E-22
9.80716E-02 5.87472E-22
1.00682E-01 5.60966E-22
1.03323E-01 5.36036E-22
1.05995E-01 5.12565E-22
1.08696E-01 4.90449E-22
1.11427E-01 4.69591E-22
1.14188E-01 4.49903E-22
1.16978E-01 4.31304E-22
1.19797E-01 4.13718E-22
1.22645E-01 3.97079E-22
1.25522E-01 3.81322E-22
1.28428E-01 3.66390E-22
1.31361E-01 3.52229E-22
1.34323E-01 3.38790E-22
1.37313E-01 3.26027E-22
1.40330E-01 3.13897E-22
1.43375E-01 3.02363E-22
1.46447E-01 2.91387E-22
1.49545E-01 2.80935E-22
1.52671E-01 2.70977E-22
1.55823E-01 2.61484E-22
1.59001E-01 2.52427E-22
1.62205E-01 2.43783E-22
1.65435E-01 2.35528E-22
1.68690E-01 2.27640E-22
1.71970E-01 2.20098E-22
1.75276E-01 2.12884E-22
1.78606E-01 2.05980E-22
1.81961E-01 1.99368E-22
1.85340E-01 1.93035E-22
1.88743E-01 1.86964E-22
1.92169E-01 1.81142E-22
1.95619E-01 1.75557E-22
1.99092E-01 1.70196E-22
2.02589E-01 1.65048E-22
2.06107E-01 1.60103E-22
2.09649E-01 1.55349E-22
2.13212E-01 1.50779E-22
2.16797E-01 1.46383E-22
2.20404E-01 1.42153E-22
2.24032E-01 1.38081E-22
2.27680E-01 1.34159E-22
2.31350E-01 1.30381E-22
2.35040E-01 1.26740E-22
2.38751E-01 1.23229E-22
2.42481E-01 1.19844E-22
2.46231E-01 1.16577E-22
2.50000E-01 1.13424E-22
2.53788E-01 1.10380E-22
2.57595E-01 1.07441E-22
2.61421E-01 1.04600E-22
2.65264E-01 1.01856E-22
2.69126E-01 9.92024E-23
2.73005E-01 9.66366E-23
2.76901E-01 9.41547E-23
2.80814E-01 9.17531E-23
2.84744E-01 8.94287E-23
2.88691E-01 8.71784E-23
2.92653E-01 8.49991E-23
2.96632E-01 8.28879E-23
3.00625E-01 8.08423E-23
3.04634E-01 7.88597E-23
3.08658E-01 7.69376E-23
3.12697E-01 7.50736E-23
3.16749E-01 7.32655E-23
3.20816E-01 7.15114E-23
3.24896E-01 6.98091E-23
3.28990E-01 6.81567E-23
3.33097E-01 6.65522E-23
3.37216E-01 6.49941E-23
3.41348E-01 6.34806E-23
3.45492E-01 6.20101E-23
3.49647E-01 6.05810E-23
3.53814E-01 5.91919E-23
3.57992E-01 5.78414E-23
3.62181E-01 5.65281E-23
3.66381E-01 5.52507E-23
3.70590E-01 5.40080E-23
3.74810E-01 5.27989E-23
3.79039E-01 5.16221E-23
3.83277E-01 5.04766E-23
3.87524E-01 4.93613E-23
3.91780E-01 4.82753E-23
3.96044E-01 4.72175E-23
4.00316E-01 4.61871E-23
4.04596E-01 4.51832E-23
4.08882E-01 4.42048E-23
4.13176E-01 4.32513E-23
4.17476E-01 4.23217E-23
4.21783E-01 4.14154E-23
4.26095E-01 4.05316E-23
4.30413E-01 3.96696E-23
4.34737E-01 3.88288E-23
4.39065E-01 3.80085E-23
4.43398E-01 3.72080E-23
4.47736E-01 3.64268E-23
4.52077E-01 3.56642E-23
4.56422E-01 3.49199E-23
4.60770E-01 3.41931E-23
4.65122E-01 3.34834E-23
4.69476E-01 3.27902E-23
4.73832E-01 3.21132E-23
4.78190E-01 3.14518E-23
4.82550E-01 3.08055E-23
4.86912E-01 3.01740E-23
4.91274E-01 2.95569E-23
4.95637E-01 2.89536E-23
5.00000E-01 2.83639E-23
5.04363E-01 2.77874E-23
5.08726E-01 2.72237E-23
5.13088E-01 2.66724E-23
5.17450E-01 2.61332E-23
5.21810E-01 2.56058E-23
5.26168E-01 2.50899E-23
5.30524E-01 2.45851E-23
5.34878E-01 2.40912E-23
5.39230E-01 2.36079E-23
5.43578E-01 2.31348E-23
5.47923E-01 2.26718E-23
5.52264E-01 2.22186E-23
5.56602E-01 2.17748E-23
5.60935E-01 2.13404E-23
5.65263E-01 2.09150E-23
5.69587E-01 2.04983E-23
5.73905E-01 2.00903E-23
5.78217E-01 1.96906E-23
5.82524E-01 1.92991E-23
5.86824E-01 1.89156E-23
5.91118E-01 1.85398E-23
5.95404E-01 1.81716E-23
5.99684E-01 1.78108E-23
6.03956E-01 1.74572E-23
6.08220E-01 1.71106E-23
6.12476E-01 1.67710E-23
6.16723E-01 1.64380E-23
6.20961E-01 1.61116E-23
6.25190E-01 1.57915E-23
6.29410E-01 1.54777E-23
6.33619E-01 1.51701E-23
6.37819E-01 1.48683E-23
6.42008E-01 1.45724E-23
6.46186E-01 1.42822E-23
6.50353E-01 1.39976E-23
6.54508E-01 1.37184E-23
6.58652E-01 1.34445E-23
6.62784E-01 1.31758E-23
6.66903E-01 1.29122E-23
6.71010E-01 1.26535E-23
6.75104E-01 1.23997E-23
6.79184E-01 1.21507E-23
6.83251E-01 1.19064E-23
6.87303E-01 1.16665E-23
6.91342E-01 1.14312E-23
6.95366E-01 1.12002E-23
6.99375E-01 1.09734E-23
7.03368E-01 1.07509E-23
7.07347E-01 1.05324E-23
7.11309E-01 1.03179E-23
7.15256E-01 1.01074E-23
7.19186E-01 9.90070E-24
7.23099E-01 9.69777E-24
7.26995E-01 9.49852E-24
7.30874E-01 9.30288E-24
7.34736E-01 9.11078E-24
7.38579E-01 8.92215E-24
7.42405E-01 8.73692E-24
7.46212E-01 8.55503E-24
7.50000E-01 8.37640E-24
7.53769E-01 8.20097E-24
7.57519E-01 8.02869E-24
7.61249E-01 7.85949E-24
7.64960E-01 7.69331E-24
7.68650E-01 7.53009E-24
7.72320E-01 7.36979E-24
7.75968E-01 7.21234E-24
7.79596E-01 7.05768E-24
7.83203E-01 6.90578E-24
7.86788E-01 6.75658E-24
7.90351E-01 6.61002E-24
7.93893E-01 6.46606E-24
7.97411E-01 6.32466E-24
8.00908E-01 6.18576E-24
8.04381E-01 6.04932E-24
8.07831E-01 5.91530E-24
8.11257E-01 5.78365E-24
8.14660E-01 5.65434E-24
8.18039E-01 5.52732E-24
8.21394E-01 5.40256E-24
8.24724E-01 5.28001E-24
8.28030E-01 5.15963E-24
8.31310E-01 5.04140E-24
8.34565E-01 4.92526E-24
8.37795E-01 4.81120E-24
8.40999E-01 4.69917E-24
8.44177E-01 4.58914E-24
8.47329E-01 4.48108E-24
8.50455E-01 4.37496E-24
8.53553E-01 4.27074E-24
8.56625E-01 4.16840E-24
8.59670E-01 4.06790E-24
8.62687E-01 3.96921E-24
8.65677E-01 3.87231E-24
8.68639E-01 3.77718E-24
8.71572E-01 3.68377E-24
8.74478E-01 3.59207E-24
8.77355E-01 3.50205E-24
8.80203E-01 3.41369E-24
8.83022E-01 3.32695E-24
8.85812E-01 3.24183E-24
8.88573E-01 3.15828E-24
8.91304E-01 3.07630E-24
8.94005E-01 2.99585E-24
8.96677E-01 2.91692E-24
8.99318E-01 2.83948E-24
9.01928E-01 2.76352E-24
9.04508E-01 2.68901E-24
9.07058E-01 2.61593E-24
9.09576E-01 2.54427E-24
9.12063E-01 2.47400E-24
9.14519E-01 2.40511E-24
9.16943E-01 2.33758E-24
9.19335E-01 2.27139E-24
9.21696E-01 2.20652E-24
9.24024E-01 2.14297E-24
9.26320E-01 2.08070E-24
9.28584E-01 2.01970E-24
9.30815E-01 1.95997E-24
9.33013E-01 1.90148E-24
9.35178E-01 1.84422E-24
9.37310E-01 1.78817E-24
9.39409E-01 1.73333E-24
9.41474E-01 1.67967E-24
9.43505E-01 1.62719E-24
9.45503E-01 1.57586E-24
9.47467E-01 1.52569E-24
9.49397E-01 1.47665E-24
9.51293E-01 1.42874E-24
9.53154E-01 1.38193E-24
9.54981E-01 1.33623E-24
9.56773E-01 1.29162E-24
9.58530E-01 1.24808E-24
9.60252E-01 1.20561E-24
9.61940E-01 1.16420E-24
9.63592E-01 1.12384E-24
9.65209E-01 1.08452E-24
9.66790E-01 1.04622E-24
9.68336E-01 1.00895E-24
9.69846E-01 9.72684E-25
9.71321E-01 9.37421E-25
9.72759E-01 9.03152E-25
9.74162E-01 8.69869E-25
9.75528E-01 8.37564E-25
9.76858E-01 8.06229E-25
9.78152E-01 7.75856E-25
9.79410E-01 7.46440E-25
9.80631E-01 7.17973E-25
9.81815E-01 6.90448E-25
9.82963E-01 6.63858E-25
9.84074E-01 6.38199E-25
9.85148E-01 6.13463E-25
9.86185E-01 5.89646E-25
9.87185E-01 5.66741E-25
9.88148E-01 5.44744E-25
9.89074E-01 5.23649E-25
9.89962E-01 5.03451E-25
9.90814E-01 4.84146E-25
9.91627E-01 4.65730E-25
9.92404E-01 4.48198E-25
9.93143E-01 4.31546E-25
9.93844E-01 4.15770E-25
9.94508E-01 4.00868E-25
9.95134E-01 3.86835E-25
9.95722E-01 3.73668E-25
9.96273E-01 3.61365E-25
9.96786E-01 3.49922E-25
9.97261E-01 3.39337E-25
9.97698E-01 3.29607E-25
9.98097E-01 3.20731E-25
9.98459E-01 3.12707E-25
9.98782E-01 3.05531E-25
9.99067E-01 2.99204E-25
9.99315E-01 2.93724E-25
9.99524E-01 2.89088E-25
9.99695E-01 2.85297E-25
9.99829E-01 2.82349E-25
9.99924E-01 2.80244E-25
9.99981E-01 2.78981E-25
1.00000E+00 2.78560E-25
