 #
 # Subroutine ELSEPA. Elastic scattering of electrons and positrons
 #                    by neutral atoms and positive ions
 #
 # Projectile: electron
 # Kinetic energy = 1.25000E+08 eV = 4.59367E+06 a.u.
 #
 # WARNING: High-energy factorization with free-atom DF screening.
 #          Absorption, polarization and exchange corrections are
 #          switched off.
 #          Phase shifts are calculated for the bare nucleus.
 #          Scattering amplitudes are not evaluated.
 #
 # Element: Ba,  Z =  56,  atomic weight = 1.37327E+02 g/mol
 #
 # Nuclear model: Fermi distribution
 #                Average radius = 5.52038E-13 cm
 #                Skin thickness = 5.46000E-14 cm
 #
 # Number of electrons = 56
 #
 # Total elastic cross section = 7.24904E-18 cm**2 = 2.58868E-01 a0**2
 # 1st transport cross section = 3.90518E-25 cm**2 = 1.39457E-08 a0**2
 # 2nd transport cross section = 1.16532E-24 cm**2 = 4.16144E-08 a0**2
 #
 #
 # Differential cross section:                       MU=(1-COS(THETA))/2
 #
 #  THETA        MU          DCS          DCS        Sherman      error
 #  (deg)                 (cm**2/sr)   (a0**2/sr)    function
 #----------------------------------------------------------------------
0.00000E+00 1.95417E-09
7.61557E-13 1.93515E-09
1.18994E-12 1.92459E-09
1.71346E-12 1.91180E-09
2.33225E-12 1.89687E-09
3.04617E-12 1.87987E-09
3.85530E-12 1.86089E-09
4.75964E-12 1.84004E-09
5.75917E-12 1.81744E-09
6.85391E-12 1.79318E-09
8.04379E-12 1.76740E-09
9.32893E-12 1.74023E-09
1.07092E-11 1.71179E-09
1.21847E-11 1.68221E-09
1.37554E-11 1.65162E-09
1.54213E-11 1.62042E-09
1.71823E-11 1.58855E-09
1.90386E-11 1.55579E-09
2.09900E-11 1.52226E-09
2.30367E-11 1.48823E-09
2.51785E-11 1.45480E-09
2.74156E-11 1.42090E-09
2.97478E-11 1.38661E-09
3.21752E-11 1.35203E-09
3.46979E-11 1.31842E-09
3.73157E-11 1.28504E-09
4.00286E-11 1.25159E-09
4.28368E-11 1.21813E-09
4.57402E-11 1.18540E-09
4.87388E-11 1.15376E-09
5.18325E-11 1.12228E-09
5.50215E-11 1.09101E-09
5.83057E-11 1.06004E-09
6.16850E-11 1.03092E-09
6.51595E-11 1.00210E-09
6.87293E-11 9.73630E-10
7.23943E-11 9.45531E-10
7.61544E-11 9.18798E-10
1.18991E-10 6.90230E-10
1.71347E-10 5.26631E-10
2.33223E-10 4.11436E-10
3.04617E-10 3.29185E-10
3.85531E-10 2.68348E-10
4.75965E-10 2.21892E-10
5.75917E-10 1.85378E-10
6.85389E-10 1.56059E-10
8.04380E-10 1.32201E-10
9.32891E-10 1.12594E-10
1.07092E-09 9.63422E-11
1.21847E-09 8.28446E-11
1.37554E-09 7.15882E-11
1.54213E-09 6.19004E-11
1.71823E-09 5.37569E-11
1.90386E-09 4.71054E-11
2.09900E-09 4.16230E-11
2.30367E-09 3.69927E-11
2.51785E-09 3.27183E-11
2.74156E-09 2.91345E-11
2.97478E-09 2.61083E-11
3.21752E-09 2.35357E-11
3.46978E-09 2.11585E-11
3.73156E-09 1.90732E-11
4.00286E-09 1.72781E-11
4.28368E-09 1.57247E-11
4.57402E-09 1.43207E-11
4.87388E-09 1.30224E-11
5.18326E-09 1.18879E-11
5.50215E-09 1.08924E-11
5.83057E-09 1.00134E-11
6.16850E-09 9.16680E-12
6.51596E-09 8.41808E-12
6.87293E-09 7.75365E-12
7.23942E-09 7.16205E-12
7.61544E-09 6.60830E-12
1.18991E-08 3.17948E-12
1.71347E-08 1.71851E-12
2.33223E-08 1.02166E-12
3.04617E-08 6.51052E-13
3.85531E-08 4.36044E-13
4.75965E-08 3.02553E-13
5.75917E-08 2.15980E-13
6.85389E-08 1.57807E-13
8.04380E-08 1.17676E-13
9.32891E-08 8.94057E-14
1.07092E-07 6.91025E-14
1.21847E-07 5.42504E-14
1.37554E-07 4.31866E-14
1.54213E-07 3.47994E-14
1.71823E-07 2.83823E-14
1.90386E-07 2.33784E-14
2.09900E-07 1.94481E-14
2.30367E-07 1.63006E-14
2.51785E-07 1.37749E-14
2.74156E-07 1.17184E-14
2.97478E-07 1.00334E-14
3.21752E-07 8.64152E-15
3.46978E-07 7.48116E-15
3.73156E-07 6.51150E-15
4.00286E-07 5.69109E-15
4.28368E-07 4.99725E-15
4.57402E-07 4.40498E-15
4.87388E-07 3.89792E-15
5.18325E-07 3.46175E-15
5.50215E-07 3.08427E-15
5.83057E-07 2.75725E-15
6.16850E-07 2.47171E-15
6.51596E-07 2.22245E-15
6.87293E-07 2.00355E-15
7.23942E-07 1.81091E-15
7.61543E-07 1.64087E-15
1.18991E-06 6.85148E-16
1.71347E-06 3.34441E-16
2.33223E-06 1.82120E-16
3.04617E-06 1.07494E-16
3.85531E-06 6.74842E-17
4.75964E-06 4.44806E-17
5.75916E-06 3.04969E-17
6.85388E-06 2.16014E-17
8.04378E-06 1.57251E-17
9.32888E-06 1.17175E-17
1.07092E-05 8.90876E-18
1.21846E-05 6.89315E-18
1.37553E-05 5.41653E-18
1.54212E-05 4.31484E-18
1.71822E-05 3.47947E-18
1.90385E-05 2.83578E-18
2.09899E-05 2.33597E-18
2.30365E-05 1.94136E-18
2.51783E-05 1.62636E-18
2.74153E-05 1.37250E-18
2.97475E-05 1.16616E-18
3.21749E-05 9.97169E-19
3.46974E-05 8.57766E-19
3.73152E-05 7.41966E-19
4.00281E-05 6.45123E-19
4.28362E-05 5.63606E-19
4.57395E-05 4.94567E-19
4.87380E-05 4.35766E-19
5.18317E-05 3.85431E-19
5.50205E-05 3.42143E-19
5.83045E-05 3.04760E-19
6.16838E-05 2.72350E-19
6.51582E-05 2.44144E-19
6.87277E-05 2.19505E-19
7.23925E-05 1.97905E-19
7.61524E-05 1.79136E-19
9.21439E-05 1.22509E-19
1.09658E-04 8.66008E-20
1.28695E-04 6.29511E-20
1.49255E-04 4.68537E-20
1.71338E-04 3.55951E-20
1.94942E-04 2.75265E-20
2.20070E-04 2.16228E-20
2.46720E-04 1.72224E-20
2.74892E-04 1.38878E-20
3.04586E-04 1.13239E-20
3.35803E-04 9.32607E-21
3.68542E-04 7.75074E-21
4.02802E-04 6.49495E-21
4.38585E-04 5.48392E-21
4.75889E-04 4.66254E-21
5.14715E-04 3.98958E-21
5.55063E-04 3.43401E-21
5.96931E-04 2.97204E-21
6.40321E-04 2.58535E-21
6.85233E-04 2.25967E-21
7.31665E-04 1.98378E-21
7.79618E-04 1.74882E-21
8.29092E-04 1.54770E-21
8.80086E-04 1.37473E-21
9.32601E-04 1.22531E-21
9.86636E-04 1.09568E-21
1.04219E-03 9.82773E-22
1.09927E-03 8.84067E-22
1.15786E-03 7.97467E-22
1.21797E-03 7.21230E-22
1.27961E-03 6.53902E-22
1.34276E-03 5.94260E-22
1.40743E-03 5.41272E-22
1.47362E-03 4.94062E-22
1.54133E-03 4.51893E-22
1.61056E-03 4.14131E-22
1.68131E-03 3.80234E-22
1.75357E-03 3.49736E-22
1.82735E-03 3.22236E-22
1.90265E-03 2.97386E-22
1.97947E-03 2.74886E-22
2.05780E-03 2.54472E-22
2.13765E-03 2.35918E-22
2.21902E-03 2.19022E-22
2.30190E-03 2.03611E-22
2.38630E-03 1.89529E-22
2.47222E-03 1.76642E-22
2.55965E-03 1.64830E-22
2.64859E-03 1.53986E-22
2.73905E-03 1.44018E-22
2.83103E-03 1.34840E-22
2.92452E-03 1.26380E-22
3.01952E-03 1.18571E-22
3.11604E-03 1.11354E-22
3.21407E-03 1.04675E-22
3.31362E-03 9.84872E-23
3.41468E-03 9.27478E-23
3.51725E-03 8.74182E-23
3.62133E-03 8.24638E-23
3.72692E-03 7.78534E-23
3.83403E-03 7.35587E-23
3.94265E-03 6.95541E-23
4.05278E-03 6.58164E-23
4.16442E-03 6.23245E-23
4.27757E-03 5.90593E-23
4.39223E-03 5.60033E-23
4.50840E-03 5.31407E-23
4.62608E-03 5.04570E-23
4.74527E-03 4.79390E-23
4.86597E-03 4.55744E-23
4.98817E-03 4.33523E-23
5.11188E-03 4.12625E-23
5.23711E-03 3.92956E-23
5.36383E-03 3.74432E-23
5.49207E-03 3.56972E-23
5.62181E-03 3.40504E-23
5.75306E-03 3.24963E-23
5.88581E-03 3.10285E-23
6.02007E-03 2.96415E-23
6.15583E-03 2.83299E-23
6.29310E-03 2.70890E-23
6.43187E-03 2.59141E-23
6.57214E-03 2.48011E-23
6.71392E-03 2.37463E-23
6.85720E-03 2.27459E-23
7.00198E-03 2.17966E-23
7.14827E-03 2.08954E-23
7.29605E-03 2.00394E-23
7.44534E-03 1.92259E-23
7.59612E-03 1.84524E-23
7.97965E-03 1.66787E-23
8.37255E-03 1.51086E-23
8.77480E-03 1.37148E-23
9.18641E-03 1.24742E-23
9.60736E-03 1.13672E-23
1.00376E-02 1.03770E-23
1.04773E-02 9.48911E-24
1.09262E-02 8.69134E-24
1.13844E-02 7.97298E-24
1.18520E-02 7.32483E-24
1.23288E-02 6.73889E-24
1.28150E-02 6.20820E-24
1.33104E-02 5.72671E-24
1.38150E-02 5.28912E-24
1.43290E-02 4.89076E-24
1.48521E-02 4.52755E-24
1.53845E-02 4.19589E-24
1.59262E-02 3.89260E-24
1.64770E-02 3.61487E-24
1.70371E-02 3.36019E-24
1.76063E-02 3.12636E-24
1.81848E-02 2.91140E-24
1.87724E-02 2.71355E-24
1.93692E-02 2.53123E-24
1.99751E-02 2.36304E-24
2.05901E-02 2.20772E-24
2.12143E-02 2.06413E-24
2.18476E-02 1.93125E-24
2.24900E-02 1.80816E-24
2.31415E-02 1.69403E-24
2.38021E-02 1.58812E-24
2.44717E-02 1.48975E-24
2.51504E-02 1.39830E-24
2.58382E-02 1.31321E-24
2.65349E-02 1.23399E-24
2.72407E-02 1.16016E-24
2.79555E-02 1.09131E-24
2.86793E-02 1.02705E-24
2.94120E-02 9.67049E-25
3.01537E-02 9.10972E-25
3.09043E-02 8.58532E-25
3.16639E-02 8.09462E-25
3.24324E-02 7.63515E-25
3.32098E-02 7.20469E-25
3.39961E-02 6.80115E-25
3.47912E-02 6.42264E-25
3.55952E-02 6.06742E-25
3.64081E-02 5.73387E-25
3.72297E-02 5.42050E-25
3.80602E-02 5.12596E-25
3.88995E-02 4.84896E-25
3.97476E-02 4.58835E-25
4.06044E-02 4.34304E-25
4.14700E-02 4.11203E-25
4.23443E-02 3.89440E-25
4.32273E-02 3.68927E-25
4.41190E-02 3.49585E-25
4.50194E-02 3.31341E-25
4.59284E-02 3.14125E-25
4.68461E-02 2.97874E-25
4.87074E-02 2.68029E-25
5.06030E-02 2.41377E-25
5.25328E-02 2.17546E-25
5.44967E-02 1.96211E-25
5.64946E-02 1.77088E-25
5.85262E-02 1.59928E-25
6.05914E-02 1.44515E-25
6.26901E-02 1.30657E-25
6.48222E-02 1.18185E-25
6.69873E-02 1.06953E-25
6.91854E-02 9.68269E-26
7.14163E-02 8.76925E-26
7.36799E-02 7.94466E-26
7.59760E-02 7.19978E-26
7.83043E-02 6.52650E-26
8.06647E-02 5.91759E-26
8.30571E-02 5.36661E-26
8.54812E-02 4.86780E-26
8.79369E-02 4.41602E-26
9.04240E-02 4.00668E-26
9.29422E-02 3.63564E-26
9.54915E-02 3.29920E-26
9.80716E-02 2.99406E-26
1.00682E-01 2.71721E-26
1.03323E-01 2.46599E-26
1.05995E-01 2.23796E-26
1.08696E-01 2.03095E-26
1.11427E-01 1.84299E-26
1.14188E-01 1.67232E-26
1.16978E-01 1.51732E-26
1.19797E-01 1.37655E-26
1.22645E-01 1.24869E-26
1.25522E-01 1.13256E-26
1.28428E-01 1.02709E-26
1.31361E-01 9.31293E-27
1.34323E-01 8.44296E-27
1.37313E-01 7.65294E-27
1.40330E-01 6.93561E-27
1.43375E-01 6.28436E-27
1.46447E-01 5.69318E-27
1.49545E-01 5.15664E-27
1.52671E-01 4.66977E-27
1.55823E-01 4.22807E-27
1.59001E-01 3.82745E-27
1.62205E-01 3.46417E-27
1.65435E-01 3.13485E-27
1.68690E-01 2.83640E-27
1.71970E-01 2.56601E-27
1.75276E-01 2.32112E-27
1.78606E-01 2.09940E-27
1.81961E-01 1.89874E-27
1.85340E-01 1.71720E-27
1.88743E-01 1.55302E-27
1.92169E-01 1.40460E-27
1.95619E-01 1.27049E-27
1.99092E-01 1.14935E-27
2.02589E-01 1.03999E-27
2.06107E-01 9.41293E-28
2.09649E-01 8.52267E-28
2.13212E-01 7.71998E-28
2.16797E-01 6.99658E-28
2.20404E-01 6.34493E-28
2.24032E-01 5.75817E-28
2.27680E-01 5.23007E-28
2.31350E-01 4.75496E-28
2.35040E-01 4.32770E-28
2.38751E-01 3.94362E-28
2.42481E-01 3.59846E-28
2.46231E-01 3.28839E-28
2.50000E-01 3.00990E-28
2.53788E-01 2.75984E-28
2.57595E-01 2.53533E-28
2.61421E-01 2.33377E-28
2.65264E-01 2.15283E-28
2.69126E-01 1.99036E-28
2.73005E-01 1.84445E-28
2.76901E-01 1.71337E-28
2.80814E-01 1.59555E-28
2.84744E-01 1.48958E-28
2.88691E-01 1.39418E-28
2.92653E-01 1.30821E-28
2.96632E-01 1.23065E-28
3.00625E-01 1.16056E-28
3.04634E-01 1.09712E-28
3.08658E-01 1.03959E-28
3.12697E-01 9.87294E-29
3.16749E-01 9.39643E-29
3.20816E-01 8.96105E-29
3.24896E-01 8.56205E-29
3.28990E-01 8.19523E-29
3.33097E-01 7.85681E-29
3.37216E-01 7.54349E-29
3.41348E-01 7.25231E-29
3.45492E-01 6.98067E-29
3.49647E-01 6.72625E-29
3.53814E-01 6.48705E-29
3.57992E-01 6.26128E-29
3.62181E-01 6.04738E-29
3.66381E-01 5.84399E-29
3.70590E-01 5.64992E-29
3.74810E-01 5.46414E-29
3.79039E-01 5.28575E-29
3.83277E-01 5.11399E-29
3.87524E-01 4.94819E-29
3.91780E-01 4.78777E-29
3.96044E-01 4.63227E-29
4.00316E-01 4.48125E-29
4.04596E-01 4.33439E-29
4.08882E-01 4.19138E-29
4.13176E-01 4.05198E-29
4.17476E-01 3.91599E-29
4.21783E-01 3.78325E-29
4.26095E-01 3.65362E-29
4.30413E-01 3.52699E-29
4.34737E-01 3.40328E-29
4.39065E-01 3.28241E-29
4.43398E-01 3.16432E-29
4.47736E-01 3.04899E-29
4.52077E-01 2.93637E-29
4.56422E-01 2.82645E-29
4.60770E-01 2.71919E-29
4.65122E-01 2.61459E-29
4.69476E-01 2.51264E-29
4.73832E-01 2.41332E-29
4.78190E-01 2.31663E-29
4.82550E-01 2.22255E-29
4.86912E-01 2.13108E-29
4.91274E-01 2.04220E-29
4.95637E-01 1.95590E-29
5.00000E-01 1.87216E-29
5.04363E-01 1.79097E-29
5.08726E-01 1.71231E-29
5.13088E-01 1.63615E-29
5.17450E-01 1.56247E-29
5.21810E-01 1.49124E-29
5.26168E-01 1.42243E-29
5.30524E-01 1.35601E-29
5.34878E-01 1.29194E-29
5.39230E-01 1.23019E-29
5.43578E-01 1.17071E-29
5.47923E-01 1.11347E-29
5.52264E-01 1.05841E-29
5.56602E-01 1.00551E-29
5.60935E-01 9.54699E-30
5.65263E-01 9.05941E-30
5.69587E-01 8.59185E-30
5.73905E-01 8.14382E-30
5.78217E-01 7.71478E-30
5.82524E-01 7.30425E-30
5.86824E-01 6.91168E-30
5.91118E-01 6.53657E-30
5.95404E-01 6.17838E-30
5.99684E-01 5.83659E-30
6.03956E-01 5.51067E-30
6.08220E-01 5.20010E-30
6.12476E-01 4.90436E-30
6.16723E-01 4.62293E-30
6.20961E-01 4.35531E-30
6.25190E-01 4.10099E-30
6.29410E-01 3.85946E-30
6.33619E-01 3.63025E-30
6.37819E-01 3.41287E-30
6.42008E-01 3.20685E-30
6.46186E-01 3.01172E-30
6.50353E-01 2.82704E-30
6.54508E-01 2.65236E-30
6.58652E-01 2.48725E-30
6.62784E-01 2.33129E-30
6.66903E-01 2.18407E-30
6.71010E-01 2.04519E-30
6.75104E-01 1.91428E-30
6.79184E-01 1.79095E-30
6.83251E-01 1.67484E-30
6.87303E-01 1.56561E-30
6.91342E-01 1.46292E-30
6.95366E-01 1.36644E-30
6.99375E-01 1.27585E-30
7.03368E-01 1.19086E-30
7.07347E-01 1.11117E-30
7.11309E-01 1.03650E-30
7.15256E-01 9.66587E-31
7.19186E-01 9.01169E-31
7.23099E-01 8.40000E-31
7.26995E-01 7.82844E-31
7.30874E-01 7.29473E-31
7.34736E-01 6.79672E-31
7.38579E-01 6.33234E-31
7.42405E-01 5.89962E-31
7.46212E-01 5.49668E-31
7.50000E-01 5.12173E-31
7.53769E-01 4.77306E-31
7.57519E-01 4.44905E-31
7.61249E-01 4.14818E-31
7.64960E-01 3.86897E-31
7.68650E-01 3.61003E-31
7.72320E-01 3.37007E-31
7.75968E-01 3.14783E-31
7.79596E-01 2.94213E-31
7.83203E-01 2.75187E-31
7.86788E-01 2.57600E-31
7.90351E-01 2.41351E-31
7.93893E-01 2.26349E-31
7.97411E-01 2.12504E-31
8.00908E-01 1.99735E-31
8.04381E-01 1.87962E-31
8.07831E-01 1.77114E-31
8.11257E-01 1.67120E-31
8.14660E-01 1.57917E-31
8.18039E-01 1.49444E-31
8.21394E-01 1.41644E-31
8.24724E-01 1.34465E-31
8.28030E-01 1.27858E-31
8.31310E-01 1.21775E-31
8.34565E-01 1.16175E-31
8.37795E-01 1.11016E-31
8.40999E-01 1.06262E-31
8.44177E-01 1.01878E-31
8.47329E-01 9.78313E-32
8.50455E-01 9.40927E-32
8.53553E-01 9.06343E-32
8.56625E-01 8.74305E-32
8.59670E-01 8.44576E-32
8.62687E-01 8.16938E-32
8.65677E-01 7.91190E-32
8.68639E-01 7.67147E-32
8.71572E-01 7.44639E-32
8.74478E-01 7.23510E-32
8.77355E-01 7.03617E-32
8.80203E-01 6.84830E-32
8.83022E-01 6.67029E-32
8.85812E-01 6.50106E-32
8.88573E-01 6.33964E-32
8.91304E-01 6.18512E-32
8.94005E-01 6.03670E-32
8.96677E-01 5.89366E-32
8.99318E-01 5.75533E-32
9.01928E-01 5.62113E-32
9.04508E-01 5.49055E-32
9.07058E-01 5.36312E-32
9.09576E-01 5.23841E-32
9.12063E-01 5.11609E-32
9.14519E-01 4.99581E-32
9.16943E-01 4.87732E-32
9.19335E-01 4.76037E-32
9.21696E-01 4.64475E-32
9.24024E-01 4.53031E-32
9.26320E-01 4.41688E-32
9.28584E-01 4.30436E-32
9.30815E-01 4.19265E-32
9.33013E-01 4.08167E-32
9.35178E-01 3.97138E-32
9.37310E-01 3.86174E-32
9.39409E-01 3.75272E-32
9.41474E-01 3.64431E-32
9.43505E-01 3.53653E-32
9.45503E-01 3.42938E-32
9.47467E-01 3.32289E-32
9.49397E-01 3.21709E-32
9.51293E-01 3.11201E-32
9.53154E-01 3.00772E-32
9.54981E-01 2.90424E-32
9.56773E-01 2.80164E-32
9.58530E-01 2.69998E-32
9.60252E-01 2.59932E-32
9.61940E-01 2.49971E-32
9.63592E-01 2.40122E-32
9.65209E-01 2.30393E-32
9.66790E-01 2.20788E-32
9.68336E-01 2.11315E-32
9.69846E-01 2.01981E-32
9.71321E-01 1.92792E-32
9.72759E-01 1.83755E-32
9.74162E-01 1.74875E-32
9.75528E-01 1.66160E-32
9.76858E-01 1.57615E-32
9.78152E-01 1.49246E-32
9.79410E-01 1.41059E-32
9.80631E-01 1.33060E-32
9.81815E-01 1.25254E-32
9.82963E-01 1.17647E-32
9.84074E-01 1.10244E-32
9.85148E-01 1.03048E-32
9.86185E-01 9.60665E-33
9.87185E-01 8.93023E-33
9.88148E-01 8.27601E-33
9.89074E-01 7.64439E-33
9.89962E-01 7.03577E-33
9.90814E-01 6.45051E-33
9.91627E-01 5.88896E-33
9.92404E-01 5.35146E-33
9.93143E-01 4.83831E-33
9.93844E-01 4.34981E-33
9.94508E-01 3.88623E-33
9.95134E-01 3.44784E-33
9.95722E-01 3.03486E-33
9.96273E-01 2.64753E-33
9.96786E-01 2.28604E-33
9.97261E-01 1.95060E-33
9.97698E-01 1.64136E-33
9.98097E-01 1.35850E-33
9.98459E-01 1.10215E-33
9.98782E-01 8.72449E-34
9.99067E-01 6.69505E-34
9.99315E-01 4.93419E-34
9.99524E-01 3.44279E-34
9.99695E-01 2.22156E-34
9.99829E-01 1.27111E-34
9.99924E-01 5.91883E-35
9.99981E-01 1.84214E-35
1.00000E+00 4.83089E-36
