 #
 # Subroutine ELSEPA. Elastic scattering of electrons and positrons
 #                    by neutral atoms and positive ions
 #
 # Projectile: electron
 # Kinetic energy = 4.00000E+08 eV = 1.46997E+07 a.u.
 #
 # WARNING: High-energy factorization with free-atom DF screening.
 #          Absorption, polarization and exchange corrections are
 #          switched off.
 #          Phase shifts are calculated for the bare nucleus.
 #          Scattering amplitudes are not evaluated.
 #
 # Element: Ba,  Z =  56,  atomic weight = 1.37327E+02 g/mol
 #
 # Nuclear model: Fermi distribution
 #                Average radius = 5.52038E-13 cm
 #                Skin thickness = 5.46000E-14 cm
 #
 # Number of electrons = 56
 #
 # Total elastic cross section = 7.23873E-18 cm**2 = 2.58500E-01 a0**2
 # 1st transport cross section = 3.81601E-26 cm**2 = 1.36272E-09 a0**2
 # 2nd transport cross section = 1.14413E-25 cm**2 = 4.08575E-09 a0**2
 #
 #
 # Differential cross section:                       MU=(1-COS(THETA))/2
 #
 #  THETA        MU          DCS          DCS        Sherman      error
 #  (deg)                 (cm**2/sr)   (a0**2/sr)    function
 #----------------------------------------------------------------------
0.00000E+00 1.98989E-08
7.61557E-13 1.80602E-08
1.18994E-12 1.71431E-08
1.71346E-12 1.61275E-08
2.33225E-12 1.50400E-08
3.04617E-12 1.39337E-08
3.85530E-12 1.28401E-08
4.75964E-12 1.17771E-08
5.75917E-12 1.07637E-08
6.85391E-12 9.82999E-09
8.04379E-12 8.96709E-09
9.32893E-12 8.17610E-09
1.07092E-11 7.46014E-09
1.21847E-11 6.82308E-09
1.37554E-11 6.24884E-09
1.54213E-11 5.73324E-09
1.71823E-11 5.27490E-09
1.90386E-11 4.86654E-09
2.09900E-11 4.49958E-09
2.30367E-11 4.16987E-09
2.51785E-11 3.87525E-09
2.74156E-11 3.60914E-09
2.97478E-11 3.36793E-09
3.21752E-11 3.14901E-09
3.46979E-11 2.94994E-09
3.73157E-11 2.76770E-09
4.00286E-11 2.60057E-09
4.28368E-11 2.44684E-09
4.57402E-11 2.30478E-09
4.87388E-11 2.17339E-09
5.18325E-11 2.05170E-09
5.50215E-11 1.93829E-09
5.83057E-11 1.83258E-09
6.16850E-11 1.73410E-09
6.51595E-11 1.64223E-09
6.87293E-11 1.55577E-09
7.23943E-11 1.47490E-09
7.61544E-11 1.39920E-09
1.18991E-10 8.49185E-10
1.71347E-10 5.36605E-10
2.33223E-10 3.61104E-10
3.04617E-10 2.51483E-10
3.85531E-10 1.80791E-10
4.75965E-10 1.33707E-10
5.75917E-10 1.01033E-10
6.85389E-10 7.71141E-11
8.04380E-10 5.98144E-11
9.32891E-10 4.70713E-11
1.07092E-09 3.74932E-11
1.21847E-09 3.01803E-11
1.37554E-09 2.46028E-11
1.54213E-09 2.02855E-11
1.71823E-09 1.68932E-11
1.90386E-09 1.42008E-11
2.09900E-09 1.20454E-11
2.30367E-09 1.03004E-11
2.51785E-09 8.86623E-12
2.74156E-09 7.68027E-12
2.97478E-09 6.69211E-12
3.21752E-09 5.86143E-12
3.46978E-09 5.15494E-12
3.73156E-09 4.55170E-12
4.00286E-09 4.03399E-12
4.28368E-09 3.58699E-12
4.57402E-09 3.19888E-12
4.87388E-09 2.86190E-12
5.18326E-09 2.56799E-12
5.50215E-09 2.30956E-12
5.83057E-09 2.08216E-12
6.16850E-09 1.88177E-12
6.51596E-09 1.70458E-12
6.87293E-09 1.54673E-12
7.23942E-09 1.40655E-12
7.61544E-09 1.28173E-12
1.18991E-08 5.58142E-13
1.71347E-08 2.80730E-13
2.33223E-08 1.56654E-13
3.04617E-08 9.43093E-14
3.85531E-08 6.01296E-14
4.75965E-08 4.01070E-14
5.75917E-08 2.77501E-14
6.85389E-08 1.97933E-14
8.04380E-08 1.44877E-14
9.32891E-08 1.08433E-14
1.07092E-07 8.27451E-15
1.21847E-07 6.42251E-15
1.37554E-07 5.06054E-15
1.54213E-07 4.04101E-15
1.71823E-07 3.26581E-15
1.90386E-07 2.66796E-15
2.09900E-07 2.20093E-15
2.30367E-07 1.83182E-15
2.51785E-07 1.53700E-15
2.74156E-07 1.29919E-15
2.97478E-07 1.10568E-15
3.21752E-07 9.46921E-16
3.46978E-07 8.15673E-16
3.73156E-07 7.06408E-16
4.00286E-07 6.14848E-16
4.28368E-07 5.37655E-16
4.57402E-07 4.72208E-16
4.87388E-07 4.16425E-16
5.18325E-07 3.68643E-16
5.50215E-07 3.27521E-16
5.83057E-07 2.91976E-16
6.16850E-07 2.61123E-16
6.51596E-07 2.34240E-16
6.87293E-07 2.10728E-16
7.23942E-07 1.90093E-16
7.61543E-07 1.71922E-16
1.18991E-06 7.08404E-17
1.71347E-06 3.42858E-17
2.33223E-06 1.85493E-17
3.04617E-06 1.08903E-17
3.85531E-06 6.80644E-18
4.75964E-06 4.46951E-18
5.75916E-06 3.05478E-18
6.85388E-06 2.15806E-18
8.04378E-06 1.56752E-18
9.32888E-06 1.16586E-18
1.07092E-05 8.85010E-19
1.21846E-05 6.83868E-19
1.37553E-05 5.36764E-19
1.54212E-05 4.27176E-19
1.71822E-05 3.44188E-19
1.90385E-05 2.80312E-19
2.09899E-05 2.30763E-19
2.30365E-05 1.91676E-19
2.51783E-05 1.60499E-19
2.74153E-05 1.35389E-19
2.97475E-05 1.14992E-19
3.21749E-05 9.82964E-20
3.46974E-05 8.45297E-20
3.73152E-05 7.30991E-20
4.00281E-05 6.35431E-20
4.28362E-05 5.55022E-20
4.57395E-05 4.86941E-20
4.87380E-05 4.28974E-20
5.18317E-05 3.79364E-20
5.50205E-05 3.36709E-20
5.83045E-05 2.99882E-20
6.16838E-05 2.67959E-20
6.51582E-05 2.40180E-20
6.87277E-05 2.15921E-20
7.23925E-05 1.94656E-20
7.61524E-05 1.76919E-20
9.21439E-05 1.20972E-20
1.09658E-04 8.54918E-21
1.28695E-04 6.21217E-21
1.49255E-04 4.62119E-21
1.71338E-04 3.50828E-21
1.94942E-04 2.71067E-21
2.20070E-04 2.12703E-21
2.46720E-04 1.69203E-21
2.74892E-04 1.36243E-21
3.04586E-04 1.10905E-21
3.35803E-04 9.11664E-22
3.68542E-04 7.56080E-22
4.02802E-04 6.32111E-22
4.38585E-04 5.32358E-22
4.75889E-04 4.51371E-22
5.14715E-04 3.85070E-22
5.55063E-04 3.30381E-22
5.96931E-04 2.84951E-22
6.40321E-04 2.46967E-22
6.85233E-04 2.15015E-22
7.31665E-04 1.87985E-22
7.79618E-04 1.64999E-22
8.29092E-04 1.45355E-22
8.80086E-04 1.28490E-22
9.32601E-04 1.13947E-22
9.86636E-04 1.01356E-22
1.04219E-03 9.04131E-23
1.09927E-03 8.08677E-23
1.15786E-03 7.25129E-23
1.21797E-03 6.51766E-23
1.27961E-03 5.87147E-23
1.34276E-03 5.30065E-23
1.40743E-03 4.79501E-23
1.47362E-03 4.34594E-23
1.54133E-03 3.94611E-23
1.61056E-03 3.58927E-23
1.68131E-03 3.27007E-23
1.75357E-03 2.98393E-23
1.82735E-03 2.72690E-23
1.90265E-03 2.49555E-23
1.97947E-03 2.28694E-23
2.05780E-03 2.09847E-23
2.13765E-03 1.92792E-23
2.21902E-03 1.77332E-23
2.30190E-03 1.63297E-23
2.38630E-03 1.50534E-23
2.47222E-03 1.38913E-23
2.55965E-03 1.28315E-23
2.64859E-03 1.18639E-23
2.73905E-03 1.09791E-23
2.83103E-03 1.01692E-23
2.92452E-03 9.42688E-24
3.01952E-03 8.74572E-24
3.11604E-03 8.12001E-24
3.21407E-03 7.54460E-24
3.31362E-03 7.01491E-24
3.41468E-03 6.52683E-24
3.51725E-03 6.07665E-24
3.62133E-03 5.66105E-24
3.72692E-03 5.27703E-24
3.83403E-03 4.92188E-24
3.94265E-03 4.59317E-24
4.05278E-03 4.28869E-24
4.16442E-03 4.00642E-24
4.27757E-03 3.74456E-24
4.39223E-03 3.50145E-24
4.50840E-03 3.27560E-24
4.62608E-03 3.06564E-24
4.74527E-03 2.87033E-24
4.86597E-03 2.68852E-24
4.98817E-03 2.51919E-24
5.11188E-03 2.36139E-24
5.23711E-03 2.21425E-24
5.36383E-03 2.07697E-24
5.49207E-03 1.94883E-24
5.62181E-03 1.82916E-24
5.75306E-03 1.71734E-24
5.88581E-03 1.61281E-24
6.02007E-03 1.51505E-24
6.15583E-03 1.42358E-24
6.29310E-03 1.33796E-24
6.43187E-03 1.25779E-24
6.57214E-03 1.18268E-24
6.71392E-03 1.11230E-24
6.85720E-03 1.04631E-24
7.00198E-03 9.84427E-25
7.14827E-03 9.26373E-25
7.29605E-03 8.71892E-25
7.44534E-03 8.20748E-25
7.59612E-03 7.72723E-25
7.97965E-03 6.65007E-25
8.37255E-03 5.72748E-25
8.77480E-03 4.93608E-25
9.18641E-03 4.25629E-25
9.60736E-03 3.67166E-25
1.00376E-02 3.16832E-25
1.04773E-02 2.73457E-25
1.09262E-02 2.36048E-25
1.13844E-02 2.03763E-25
1.18520E-02 1.75885E-25
1.23288E-02 1.51800E-25
1.28150E-02 1.30986E-25
1.33104E-02 1.12994E-25
1.38150E-02 9.74401E-26
1.43290E-02 8.39930E-26
1.48521E-02 7.23682E-26
1.53845E-02 6.23206E-26
1.59262E-02 5.36383E-26
1.64770E-02 4.61385E-26
1.70371E-02 3.96629E-26
1.76063E-02 3.40747E-26
1.81848E-02 2.92552E-26
1.87724E-02 2.51016E-26
1.93692E-02 2.15246E-26
1.99751E-02 1.84469E-26
2.05901E-02 1.58012E-26
2.12143E-02 1.35293E-26
2.18476E-02 1.15803E-26
2.24900E-02 9.91043E-27
2.31415E-02 8.48133E-27
2.38021E-02 7.25985E-27
2.44717E-02 6.21720E-27
2.51504E-02 5.32840E-27
2.58382E-02 4.57177E-27
2.65349E-02 3.92853E-27
2.72407E-02 3.38244E-27
2.79555E-02 2.91941E-27
2.86793E-02 2.52729E-27
2.94120E-02 2.19558E-27
3.01537E-02 1.91523E-27
3.09043E-02 1.67845E-27
3.16639E-02 1.47854E-27
3.24324E-02 1.30975E-27
3.32098E-02 1.16717E-27
3.39961E-02 1.04657E-27
3.47912E-02 9.44384E-28
3.55952E-02 8.57556E-28
3.64081E-02 7.83502E-28
3.72297E-02 7.20036E-28
3.80602E-02 6.65318E-28
3.88995E-02 6.17804E-28
3.97476E-02 5.76203E-28
4.06044E-02 5.39441E-28
4.14700E-02 5.06631E-28
4.23443E-02 4.77043E-28
4.32273E-02 4.50078E-28
4.41190E-02 4.25253E-28
4.50194E-02 4.02178E-28
4.59284E-02 3.80543E-28
4.68461E-02 3.60104E-28
4.87074E-02 3.22094E-28
5.06030E-02 2.87116E-28
5.25328E-02 2.54612E-28
5.44967E-02 2.24324E-28
5.64946E-02 1.96164E-28
5.85262E-02 1.70133E-28
6.05914E-02 1.46262E-28
6.26901E-02 1.24576E-28
6.48222E-02 1.05081E-28
6.69873E-02 8.77466E-29
6.91854E-02 7.25084E-29
7.14163E-02 5.92706E-29
7.36799E-02 4.79099E-29
7.59760E-02 3.82824E-29
7.83043E-02 3.02304E-29
8.06647E-02 2.35886E-29
8.30571E-02 1.81902E-29
8.54812E-02 1.38714E-29
8.79369E-02 1.04757E-29
9.04240E-02 7.85689E-30
9.29422E-02 5.88088E-30
9.54915E-02 4.42722E-30
9.80716E-02 3.38964E-30
1.00682E-01 2.67600E-30
1.03323E-01 2.20794E-30
1.05995E-01 1.92002E-30
1.08696E-01 1.75873E-30
1.11427E-01 1.68130E-30
1.14188E-01 1.65443E-30
1.16978E-01 1.65300E-30
1.19797E-01 1.65883E-30
1.22645E-01 1.65945E-30
1.25522E-01 1.64707E-30
1.28428E-01 1.61752E-30
1.31361E-01 1.56942E-30
1.34323E-01 1.50341E-30
1.37313E-01 1.42150E-30
1.40330E-01 1.32660E-30
1.43375E-01 1.22203E-30
1.46447E-01 1.11128E-30
1.49545E-01 9.97672E-31
1.52671E-01 8.84278E-31
1.55823E-01 7.73757E-31
1.59001E-01 6.68312E-31
1.62205E-01 5.69667E-31
1.65435E-01 4.79072E-31
1.68690E-01 3.97333E-31
1.71970E-01 3.24858E-31
1.75276E-01 2.61711E-31
1.78606E-01 2.07667E-31
1.81961E-01 1.62275E-31
1.85340E-01 1.24910E-31
1.88743E-01 9.48322E-32
1.92169E-01 7.12269E-32
1.95619E-01 5.32499E-32
1.99092E-01 4.00596E-32
2.02589E-01 3.08445E-32
2.06107E-01 2.48441E-32
2.09649E-01 2.13633E-32
2.13212E-01 1.97826E-32
2.16797E-01 1.95628E-32
2.20404E-01 2.02463E-32
2.24032E-01 2.14550E-32
2.27680E-01 2.28864E-32
2.31350E-01 2.43071E-32
2.35040E-01 2.55462E-32
2.38751E-01 2.64869E-32
2.42481E-01 2.70587E-32
2.46231E-01 2.72292E-32
2.50000E-01 2.69965E-32
2.53788E-01 2.63821E-32
2.57595E-01 2.54245E-32
2.61421E-01 2.41736E-32
2.65264E-01 2.26859E-32
2.69126E-01 2.10201E-32
2.73005E-01 1.92345E-32
2.76901E-01 1.73843E-32
2.80814E-01 1.55196E-32
2.84744E-01 1.36843E-32
2.88691E-01 1.19155E-32
2.92653E-01 1.02431E-32
2.96632E-01 8.69003E-33
3.00625E-01 7.27229E-33
3.04634E-01 5.99982E-33
3.08658E-01 4.87698E-33
3.12697E-01 3.90337E-33
3.16749E-01 3.07463E-33
3.20816E-01 2.38321E-33
3.24896E-01 1.81914E-33
3.28990E-01 1.37078E-33
3.33097E-01 1.02541E-33
3.37216E-01 7.69810E-34
3.41348E-01 5.90760E-34
3.45492E-01 4.75415E-34
3.49647E-01 4.11623E-34
3.53814E-01 3.88156E-34
3.57992E-01 3.94876E-34
3.62181E-01 4.22833E-34
3.66381E-01 4.64309E-34
3.70590E-01 5.12814E-34
3.74810E-01 5.63049E-34
3.79039E-01 6.10835E-34
3.83277E-01 6.53023E-34
3.87524E-01 6.87388E-34
3.91780E-01 7.12516E-34
3.96044E-01 7.27685E-34
4.00316E-01 7.32748E-34
4.04596E-01 7.28025E-34
4.08882E-01 7.14192E-34
4.13176E-01 6.92190E-34
4.17476E-01 6.63135E-34
4.21783E-01 6.28249E-34
4.26095E-01 5.88790E-34
4.30413E-01 5.46004E-34
4.34737E-01 5.01083E-34
4.39065E-01 4.55130E-34
4.43398E-01 4.09141E-34
4.47736E-01 3.63986E-34
4.52077E-01 3.20402E-34
4.56422E-01 2.78992E-34
4.60770E-01 2.40226E-34
4.65122E-01 2.04448E-34
4.69476E-01 1.71887E-34
4.73832E-01 1.42665E-34
4.78190E-01 1.16811E-34
4.82550E-01 9.42756E-35
4.86912E-01 7.49438E-35
4.91274E-01 5.86462E-35
4.95637E-01 4.51736E-35
5.00000E-01 3.42877E-35
5.04363E-01 2.57314E-35
5.08726E-01 1.92384E-35
5.13088E-01 1.45410E-35
5.17450E-01 1.13768E-35
5.21810E-01 9.49385E-36
5.26168E-01 8.65551E-36
5.30524E-01 8.64317E-36
5.34878E-01 9.25855E-36
5.39230E-01 1.03250E-35
5.43578E-01 1.16881E-35
5.47923E-01 1.32155E-35
5.52264E-01 1.47961E-35
5.56602E-01 1.63392E-35
5.60935E-01 1.77732E-35
5.65263E-01 1.90438E-35
5.69587E-01 2.01121E-35
5.73905E-01 2.09529E-35
5.78217E-01 2.15532E-35
5.82524E-01 2.19096E-35
5.86824E-01 2.20274E-35
5.91118E-01 2.19180E-35
5.95404E-01 2.15985E-35
5.99684E-01 2.10892E-35
6.03956E-01 2.04134E-35
6.08220E-01 1.95954E-35
6.12476E-01 1.86604E-35
6.16723E-01 1.76331E-35
6.20961E-01 1.65374E-35
6.25190E-01 1.53960E-35
6.29410E-01 1.42298E-35
6.33619E-01 1.30577E-35
6.37819E-01 1.18965E-35
6.42008E-01 1.07609E-35
6.46186E-01 9.66302E-36
6.50353E-01 8.61319E-36
6.54508E-01 7.61946E-36
6.58652E-01 6.68792E-36
6.62784E-01 5.82285E-36
6.66903E-01 5.02689E-36
6.71010E-01 4.30118E-36
6.75104E-01 3.64564E-36
6.79184E-01 3.05900E-36
6.83251E-01 2.53917E-36
6.87303E-01 2.08323E-36
6.91342E-01 1.68773E-36
6.95366E-01 1.34873E-36
6.99375E-01 1.06204E-36
7.03368E-01 8.23233E-37
7.07347E-01 6.27831E-37
7.11309E-01 4.71353E-37
7.15256E-01 3.49405E-37
7.19186E-01 2.57736E-37
7.23099E-01 1.92293E-37
7.26995E-01 1.49256E-37
7.30874E-01 1.25068E-37
7.34736E-01 1.16452E-37
7.38579E-01 1.20420E-37
7.42405E-01 1.34285E-37
7.46212E-01 1.55647E-37
7.50000E-01 1.82395E-37
7.53769E-01 2.12687E-37
7.57519E-01 2.44950E-37
7.61249E-01 2.77846E-37
7.64960E-01 3.10274E-37
7.68650E-01 3.41329E-37
7.72320E-01 3.70302E-37
7.75968E-01 3.96643E-37
7.79596E-01 4.19964E-37
7.83203E-01 4.39997E-37
7.86788E-01 4.56590E-37
7.90351E-01 4.69691E-37
7.93893E-01 4.79320E-37
7.97411E-01 4.85571E-37
8.00908E-01 4.88585E-37
8.04381E-01 4.88551E-37
8.07831E-01 4.85689E-37
8.11257E-01 4.80233E-37
8.14660E-01 4.72435E-37
8.18039E-01 4.62557E-37
8.21394E-01 4.50858E-37
8.24724E-01 4.37599E-37
8.28030E-01 4.23025E-37
8.31310E-01 4.07379E-37
8.34565E-01 3.90885E-37
8.37795E-01 3.73754E-37
8.40999E-01 3.56184E-37
8.44177E-01 3.38351E-37
8.47329E-01 3.20418E-37
8.50455E-01 3.02531E-37
8.53553E-01 2.84816E-37
8.56625E-01 2.67386E-37
8.59670E-01 2.50338E-37
8.62687E-01 2.33752E-37
8.65677E-01 2.17697E-37
8.68639E-01 2.02226E-37
8.71572E-01 1.87385E-37
8.74478E-01 1.73203E-37
8.77355E-01 1.59706E-37
8.80203E-01 1.46906E-37
8.83022E-01 1.34808E-37
8.85812E-01 1.23413E-37
8.88573E-01 1.12714E-37
8.91304E-01 1.02700E-37
8.94005E-01 9.33535E-38
8.96677E-01 8.46565E-38
8.99318E-01 7.65861E-38
9.01928E-01 6.91172E-38
9.04508E-01 6.22248E-38
9.07058E-01 5.58818E-38
9.09576E-01 5.00583E-38
9.12063E-01 4.47267E-38
9.14519E-01 3.98584E-38
9.16943E-01 3.54247E-38
9.19335E-01 3.13972E-38
9.21696E-01 2.77485E-38
9.24024E-01 2.44526E-38
9.26320E-01 2.14829E-38
9.28584E-01 1.88146E-38
9.30815E-01 1.64242E-38
9.33013E-01 1.42888E-38
9.35178E-01 1.23874E-38
9.37310E-01 1.06990E-38
9.39409E-01 9.20551E-39
9.41474E-01 7.88827E-39
9.43505E-01 6.73072E-39
9.45503E-01 5.71715E-39
9.47467E-01 4.83352E-39
9.49397E-01 4.06612E-39
9.51293E-01 3.40278E-39
9.53154E-01 2.83196E-39
9.54981E-01 2.34355E-39
9.56773E-01 1.92792E-39
9.58530E-01 1.57636E-39
9.60252E-01 1.00000E-45
9.61940E-01 1.00000E-45
9.63592E-01 1.00000E-45
9.65209E-01 1.00000E-45
9.66790E-01 1.00000E-45
9.68336E-01 1.00000E-45
9.69846E-01 1.00000E-45
9.71321E-01 1.00000E-45
9.72759E-01 1.00000E-45
9.74162E-01 1.00000E-45
9.75528E-01 1.00000E-45
9.76858E-01 1.00000E-45
9.78152E-01 1.00000E-45
9.79410E-01 1.00000E-45
9.80631E-01 1.00000E-45
9.81815E-01 1.00000E-45
9.82963E-01 1.00000E-45
9.84074E-01 1.00000E-45
9.85148E-01 1.00000E-45
9.86185E-01 1.00000E-45
9.87185E-01 1.00000E-45
9.88148E-01 1.00000E-45
9.89074E-01 1.00000E-45
9.89962E-01 1.00000E-45
9.90814E-01 1.00000E-45
9.91627E-01 1.00000E-45
9.92404E-01 1.00000E-45
9.93143E-01 1.00000E-45
9.93844E-01 1.00000E-45
9.94508E-01 1.00000E-45
9.95134E-01 1.00000E-45
9.95722E-01 1.00000E-45
9.96273E-01 1.00000E-45
9.96786E-01 1.00000E-45
9.97261E-01 1.00000E-45
9.97698E-01 1.00000E-45
9.98097E-01 1.00000E-45
9.98459E-01 1.00000E-45
9.98782E-01 1.00000E-45
9.99067E-01 1.00000E-45
9.99315E-01 1.00000E-45
9.99524E-01 1.00000E-45
9.99695E-01 1.00000E-45
9.99829E-01 1.00000E-45
9.99924E-01 1.00000E-45
9.99981E-01 1.00000E-45
1.00000E+00 1.00000E-45
