 #
 # Subroutine ELSEPA. Elastic scattering of electrons and positrons
 #                    by neutral atoms and positive ions
 #
 # Projectile: electron
 # Kinetic energy = 1.00000E+08 eV = 3.67493E+06 a.u.
 #
 # WARNING: High-energy factorization with free-atom DF screening.
 #          Absorption, polarization and exchange corrections are
 #          switched off.
 #          Phase shifts are calculated for the bare nucleus.
 #          Scattering amplitudes are not evaluated.
 #
 # Element: Ba,  Z =  56,  atomic weight = 1.37327E+02 g/mol
 #
 # Nuclear model: Fermi distribution
 #                Average radius = 5.52038E-13 cm
 #                Skin thickness = 5.46000E-14 cm
 #
 # Number of electrons = 56
 #
 # Total elastic cross section = 7.24815E-18 cm**2 = 2.58836E-01 a0**2
 # 1st transport cross section = 6.09354E-25 cm**2 = 2.17604E-08 a0**2
 # 2nd transport cross section = 1.81372E-24 cm**2 = 6.47690E-08 a0**2
 #
 #
 # Differential cross section:                       MU=(1-COS(THETA))/2
 #
 #  THETA        MU          DCS          DCS        Sherman      error
 #  (deg)                 (cm**2/sr)   (a0**2/sr)    function
 #----------------------------------------------------------------------
0.00000E+00 1.25322E-09
7.61557E-13 1.24537E-09
1.18994E-12 1.24099E-09
1.71346E-12 1.23568E-09
2.33225E-12 1.22945E-09
3.04617E-12 1.22232E-09
3.85530E-12 1.21432E-09
4.75964E-12 1.20547E-09
5.75917E-12 1.19582E-09
6.85391E-12 1.18538E-09
8.04379E-12 1.17421E-09
9.32893E-12 1.16233E-09
1.07092E-11 1.14978E-09
1.21847E-11 1.13661E-09
1.37554E-11 1.12285E-09
1.54213E-11 1.10855E-09
1.71823E-11 1.09375E-09
1.90386E-11 1.07849E-09
2.09900E-11 1.06283E-09
2.30367E-11 1.04683E-09
2.51785E-11 1.03070E-09
2.74156E-11 1.01418E-09
2.97478E-11 9.97303E-10
3.21752E-11 9.80110E-10
3.46979E-11 9.62631E-10
3.73157E-11 9.45390E-10
4.00286E-11 9.28137E-10
4.28368E-11 9.10697E-10
4.57402E-11 8.93100E-10
4.87388E-11 8.75376E-10
5.18325E-11 8.57746E-10
5.50215E-11 8.40645E-10
5.83057E-11 8.23493E-10
6.16850E-11 8.06313E-10
6.51595E-11 7.89129E-10
6.87293E-11 7.71964E-10
7.23943E-11 7.55493E-10
7.61544E-11 7.39253E-10
1.18991E-10 5.88553E-10
1.71347E-10 4.67346E-10
2.33223E-10 3.74677E-10
3.04617E-10 3.04633E-10
3.85531E-10 2.51556E-10
4.75965E-10 2.10745E-10
5.75917E-10 1.78722E-10
6.85389E-10 1.53047E-10
8.04380E-10 1.32032E-10
9.32891E-10 1.14565E-10
1.07092E-09 9.98764E-11
1.21847E-09 8.74160E-11
1.37554E-09 7.67785E-11
1.54213E-09 6.76519E-11
1.71823E-09 5.97865E-11
1.90386E-09 5.30015E-11
2.09900E-09 4.71335E-11
2.30367E-09 4.20009E-11
2.51785E-09 3.73786E-11
2.74156E-09 3.34648E-11
2.97478E-09 3.01310E-11
3.21752E-09 2.72748E-11
3.46978E-09 2.48142E-11
3.73156E-09 2.25046E-11
4.00286E-09 2.04338E-11
4.28368E-09 1.86331E-11
4.57402E-09 1.70602E-11
4.87388E-09 1.56804E-11
5.18326E-09 1.44344E-11
5.50215E-09 1.32466E-11
5.83057E-09 1.21968E-11
6.16850E-09 1.12656E-11
6.51596E-09 1.04367E-11
6.87293E-09 9.69655E-12
7.23942E-09 8.98087E-12
7.61544E-09 8.32626E-12
1.18991E-08 4.22409E-12
1.71347E-08 2.33231E-12
2.33223E-08 1.38731E-12
3.04617E-08 8.83042E-13
3.85531E-08 5.93619E-13
4.75965E-08 4.16104E-13
5.75917E-08 3.01099E-13
6.85389E-08 2.22994E-13
8.04380E-08 1.68427E-13
9.32891E-08 1.29381E-13
1.07092E-07 1.00835E-13
1.21847E-07 7.96121E-14
1.37554E-07 6.36224E-14
1.54213E-07 5.14295E-14
1.71823E-07 4.20158E-14
1.90386E-07 3.46613E-14
2.09900E-07 2.88494E-14
2.30367E-07 2.42073E-14
2.51785E-07 2.04627E-14
2.74156E-07 1.74347E-14
2.97478E-07 1.49366E-14
3.21752E-07 1.28819E-14
3.46978E-07 1.11646E-14
3.73156E-07 9.72854E-15
4.00286E-07 8.51560E-15
4.28368E-07 7.48705E-15
4.57402E-07 6.60981E-15
4.87388E-07 5.85649E-15
5.18325E-07 5.20884E-15
5.50215E-07 4.64682E-15
5.83057E-07 4.16013E-15
6.16850E-07 3.73377E-15
6.51596E-07 3.36184E-15
6.87293E-07 3.03398E-15
7.23942E-07 2.74567E-15
7.61543E-07 2.49034E-15
1.18991E-06 1.04834E-15
1.71347E-06 5.13796E-16
2.33223E-06 2.80377E-16
3.04617E-06 1.65695E-16
3.85531E-06 1.04120E-16
4.75964E-06 6.86849E-17
5.75916E-06 4.71286E-17
6.85388E-06 3.34070E-17
8.04378E-06 2.43362E-17
9.32888E-06 1.81461E-17
1.07092E-05 1.38047E-17
1.21846E-05 1.06874E-17
1.37553E-05 8.40221E-18
1.54212E-05 6.69631E-18
1.71822E-05 5.40210E-18
1.90385E-05 4.40434E-18
2.09899E-05 3.62927E-18
2.30365E-05 3.01708E-18
2.51783E-05 2.52822E-18
2.74153E-05 2.13409E-18
2.97475E-05 1.81365E-18
3.21749E-05 1.55113E-18
3.46974E-05 1.33452E-18
3.73152E-05 1.15454E-18
4.00281E-05 1.00399E-18
4.28362E-05 8.77244E-19
4.57395E-05 7.69879E-19
4.87380E-05 6.78419E-19
5.18317E-05 6.00114E-19
5.50205E-05 5.32764E-19
5.83045E-05 4.74593E-19
6.16838E-05 4.24154E-19
6.51582E-05 3.80254E-19
6.87277E-05 3.41902E-19
7.23925E-05 3.08275E-19
7.61524E-05 2.78946E-19
9.21439E-05 1.90792E-19
1.09658E-04 1.34879E-19
1.28695E-04 9.80495E-20
1.49255E-04 7.29785E-20
1.71338E-04 5.54427E-20
1.94942E-04 4.28752E-20
2.20070E-04 3.36793E-20
2.46720E-04 2.68249E-20
2.74892E-04 2.16308E-20
3.04586E-04 1.76372E-20
3.35803E-04 1.45253E-20
3.68542E-04 1.20716E-20
4.02802E-04 1.01157E-20
4.38585E-04 8.54106E-21
4.75889E-04 7.26179E-21
5.14715E-04 6.21376E-21
5.55063E-04 5.34853E-21
5.96931E-04 4.62910E-21
6.40321E-04 4.02692E-21
6.85233E-04 3.51977E-21
7.31665E-04 3.09017E-21
7.79618E-04 2.72431E-21
8.29092E-04 2.41116E-21
8.80086E-04 2.14183E-21
9.32601E-04 1.90918E-21
9.86636E-04 1.70735E-21
1.04219E-03 1.53155E-21
1.09927E-03 1.37787E-21
1.15786E-03 1.24304E-21
1.21797E-03 1.12434E-21
1.27961E-03 1.01952E-21
1.34276E-03 9.26655E-22
1.40743E-03 8.44153E-22
1.47362E-03 7.70654E-22
1.54133E-03 7.05001E-22
1.61056E-03 6.46209E-22
1.68131E-03 5.93432E-22
1.75357E-03 5.45946E-22
1.82735E-03 5.03127E-22
1.90265E-03 4.64433E-22
1.97947E-03 4.29395E-22
2.05780E-03 3.97606E-22
2.13765E-03 3.68710E-22
2.21902E-03 3.42395E-22
2.30190E-03 3.18389E-22
2.38630E-03 2.96453E-22
2.47222E-03 2.76377E-22
2.55965E-03 2.57973E-22
2.64859E-03 2.41077E-22
2.73905E-03 2.25544E-22
2.83103E-03 2.11242E-22
2.92452E-03 1.98057E-22
3.01952E-03 1.85885E-22
3.11604E-03 1.74634E-22
3.21407E-03 1.64221E-22
3.31362E-03 1.54573E-22
3.41468E-03 1.45622E-22
3.51725E-03 1.37310E-22
3.62133E-03 1.29582E-22
3.72692E-03 1.22390E-22
3.83403E-03 1.15689E-22
3.94265E-03 1.09440E-22
4.05278E-03 1.03606E-22
4.16442E-03 9.81551E-23
4.27757E-03 9.30571E-23
4.39223E-03 8.82851E-23
4.50840E-03 8.38142E-23
4.62608E-03 7.96220E-23
4.74527E-03 7.56877E-23
4.86597E-03 7.19925E-23
4.98817E-03 6.85193E-23
5.11188E-03 6.52521E-23
5.23711E-03 6.21765E-23
5.36383E-03 5.92791E-23
5.49207E-03 5.65476E-23
5.62181E-03 5.39708E-23
5.75306E-03 5.15383E-23
5.88581E-03 4.92405E-23
6.02007E-03 4.70685E-23
6.15583E-03 4.50141E-23
6.29310E-03 4.30698E-23
6.43187E-03 4.12285E-23
6.57214E-03 3.94838E-23
6.71392E-03 3.78297E-23
6.85720E-03 3.62606E-23
7.00198E-03 3.47712E-23
7.14827E-03 3.33569E-23
7.29605E-03 3.20130E-23
7.44534E-03 3.07354E-23
7.59612E-03 2.95203E-23
7.97965E-03 2.67323E-23
8.37255E-03 2.42623E-23
8.77480E-03 2.20677E-23
9.18641E-03 2.01124E-23
9.60736E-03 1.83660E-23
1.00376E-02 1.68021E-23
1.04773E-02 1.53986E-23
1.09262E-02 1.41360E-23
1.13844E-02 1.29979E-23
1.18520E-02 1.19697E-23
1.23288E-02 1.10391E-23
1.28150E-02 1.01952E-23
1.33104E-02 9.42853E-24
1.38150E-02 8.73081E-24
1.43290E-02 8.09478E-24
1.48521E-02 7.51404E-24
1.53845E-02 6.98296E-24
1.59262E-02 6.49658E-24
1.64770E-02 6.05049E-24
1.70371E-02 5.64078E-24
1.76063E-02 5.26399E-24
1.81848E-02 4.91702E-24
1.87724E-02 4.59712E-24
1.93692E-02 4.30181E-24
1.99751E-02 4.02889E-24
2.05901E-02 3.77638E-24
2.12143E-02 3.54250E-24
2.18476E-02 3.32565E-24
2.24900E-02 3.12438E-24
2.31415E-02 2.93738E-24
2.38021E-02 2.76349E-24
2.44717E-02 2.60162E-24
2.51504E-02 2.45082E-24
2.58382E-02 2.31021E-24
2.65349E-02 2.17898E-24
2.72407E-02 2.05641E-24
2.79555E-02 1.94184E-24
2.86793E-02 1.83467E-24
2.94120E-02 1.73433E-24
3.01537E-02 1.64033E-24
3.09043E-02 1.55221E-24
3.16639E-02 1.46953E-24
3.24324E-02 1.39191E-24
3.32098E-02 1.31900E-24
3.39961E-02 1.25046E-24
3.47912E-02 1.18600E-24
3.55952E-02 1.12533E-24
3.64081E-02 1.06820E-24
3.72297E-02 1.01437E-24
3.80602E-02 9.63625E-25
3.88995E-02 9.15759E-25
3.97476E-02 8.70586E-25
4.06044E-02 8.27932E-25
4.14700E-02 7.87639E-25
4.23443E-02 7.49555E-25
4.32273E-02 7.13544E-25
4.41190E-02 6.79477E-25
4.50194E-02 6.47235E-25
4.59284E-02 6.16705E-25
4.68461E-02 5.87786E-25
4.87074E-02 5.34399E-25
5.06030E-02 4.86379E-25
5.25328E-02 4.43120E-25
5.44967E-02 4.04094E-25
5.64946E-02 3.68838E-25
5.85262E-02 3.36946E-25
6.05914E-02 3.08060E-25
6.26901E-02 2.81867E-25
6.48222E-02 2.58087E-25
6.69873E-02 2.36476E-25
6.91854E-02 2.16815E-25
7.14163E-02 1.98910E-25
7.36799E-02 1.82590E-25
7.59760E-02 1.67700E-25
7.83043E-02 1.54104E-25
8.06647E-02 1.41679E-25
8.30571E-02 1.30316E-25
8.54812E-02 1.19916E-25
8.79369E-02 1.10391E-25
9.04240E-02 1.01661E-25
9.29422E-02 9.36552E-26
9.54915E-02 8.63087E-26
9.80716E-02 7.95634E-26
1.00682E-01 7.33667E-26
1.03323E-01 6.76711E-26
1.05995E-01 6.24335E-26
1.08696E-01 5.76147E-26
1.11427E-01 5.31794E-26
1.14188E-01 4.90954E-26
1.16978E-01 4.53332E-26
1.19797E-01 4.18664E-26
1.22645E-01 3.86705E-26
1.25522E-01 3.57234E-26
1.28428E-01 3.30050E-26
1.31361E-01 3.04967E-26
1.34323E-01 2.81817E-26
1.37313E-01 2.60446E-26
1.40330E-01 2.40712E-26
1.43375E-01 2.22487E-26
1.46447E-01 2.05650E-26
1.49545E-01 1.90095E-26
1.52671E-01 1.75720E-26
1.55823E-01 1.62435E-26
1.59001E-01 1.50154E-26
1.62205E-01 1.38802E-26
1.65435E-01 1.28306E-26
1.68690E-01 1.18601E-26
1.71970E-01 1.09627E-26
1.75276E-01 1.01328E-26
1.78606E-01 9.36530E-27
1.81961E-01 8.65549E-27
1.85340E-01 7.99901E-27
1.88743E-01 7.39186E-27
1.92169E-01 6.83033E-27
1.95619E-01 6.31099E-27
1.99092E-01 5.83068E-27
2.02589E-01 5.38650E-27
2.06107E-01 4.97574E-27
2.09649E-01 4.59590E-27
2.13212E-01 4.24469E-27
2.16797E-01 3.91998E-27
2.20404E-01 3.61979E-27
2.24032E-01 3.34229E-27
2.27680E-01 3.08580E-27
2.31350E-01 2.84877E-27
2.35040E-01 2.62973E-27
2.38751E-01 2.42735E-27
2.42481E-01 2.24039E-27
2.46231E-01 2.06771E-27
2.50000E-01 1.90824E-27
2.53788E-01 1.76098E-27
2.57595E-01 1.62504E-27
2.61421E-01 1.49957E-27
2.65264E-01 1.38377E-27
2.69126E-01 1.27693E-27
2.73005E-01 1.17838E-27
2.76901E-01 1.08748E-27
2.80814E-01 1.00367E-27
2.84744E-01 9.26403E-28
2.88691E-01 8.55189E-28
2.92653E-01 7.89567E-28
2.96632E-01 7.29112E-28
3.00625E-01 6.73430E-28
3.04634E-01 6.22155E-28
3.08658E-01 5.74951E-28
3.12697E-01 5.31503E-28
3.16749E-01 4.91522E-28
3.20816E-01 4.54739E-28
3.24896E-01 4.20906E-28
3.28990E-01 3.89793E-28
3.33097E-01 3.61186E-28
3.37216E-01 3.34890E-28
3.41348E-01 3.10721E-28
3.45492E-01 2.88512E-28
3.49647E-01 2.68106E-28
3.53814E-01 2.49361E-28
3.57992E-01 2.32141E-28
3.62181E-01 2.16325E-28
3.66381E-01 2.01800E-28
3.70590E-01 1.88459E-28
3.74810E-01 1.76207E-28
3.79039E-01 1.64954E-28
3.83277E-01 1.54617E-28
3.87524E-01 1.45122E-28
3.91780E-01 1.36397E-28
3.96044E-01 1.28378E-28
4.00316E-01 1.21006E-28
4.04596E-01 1.14226E-28
4.08882E-01 1.07989E-28
4.13176E-01 1.02246E-28
4.17476E-01 9.69566E-29
4.21783E-01 9.20809E-29
4.26095E-01 8.75832E-29
4.30413E-01 8.34305E-29
4.34737E-01 7.95926E-29
4.39065E-01 7.60417E-29
4.43398E-01 7.27525E-29
4.47736E-01 6.97018E-29
4.52077E-01 6.68682E-29
4.56422E-01 6.42324E-29
4.60770E-01 6.17765E-29
4.65122E-01 5.94843E-29
4.69476E-01 5.73411E-29
4.73832E-01 5.53333E-29
4.78190E-01 5.34487E-29
4.82550E-01 5.16761E-29
4.86912E-01 5.00053E-29
4.91274E-01 4.84272E-29
4.95637E-01 4.69332E-29
5.00000E-01 4.55159E-29
5.04363E-01 4.41683E-29
5.08726E-01 4.28842E-29
5.13088E-01 4.16580E-29
5.17450E-01 4.04847E-29
5.21810E-01 3.93596E-29
5.26168E-01 3.82787E-29
5.30524E-01 3.72383E-29
5.34878E-01 3.62349E-29
5.39230E-01 3.52657E-29
5.43578E-01 3.43279E-29
5.47923E-01 3.34192E-29
5.52264E-01 3.25375E-29
5.56602E-01 3.16809E-29
5.60935E-01 3.08476E-29
5.65263E-01 3.00361E-29
5.69587E-01 2.92452E-29
5.73905E-01 2.84737E-29
5.78217E-01 2.77204E-29
5.82524E-01 2.69845E-29
5.86824E-01 2.62652E-29
5.91118E-01 2.55618E-29
5.95404E-01 2.48735E-29
5.99684E-01 2.42000E-29
6.03956E-01 2.35406E-29
6.08220E-01 2.28950E-29
6.12476E-01 2.22627E-29
6.16723E-01 2.16435E-29
6.20961E-01 2.10371E-29
6.25190E-01 2.04432E-29
6.29410E-01 1.98615E-29
6.33619E-01 1.92919E-29
6.37819E-01 1.87342E-29
6.42008E-01 1.81882E-29
6.46186E-01 1.76538E-29
6.50353E-01 1.71309E-29
6.54508E-01 1.66192E-29
6.58652E-01 1.61188E-29
6.62784E-01 1.56294E-29
6.66903E-01 1.51509E-29
6.71010E-01 1.46834E-29
6.75104E-01 1.42265E-29
6.79184E-01 1.37803E-29
6.83251E-01 1.33446E-29
6.87303E-01 1.29193E-29
6.91342E-01 1.25044E-29
6.95366E-01 1.20996E-29
6.99375E-01 1.17049E-29
7.03368E-01 1.13202E-29
7.07347E-01 1.09453E-29
7.11309E-01 1.05801E-29
7.15256E-01 1.02245E-29
7.19186E-01 9.87840E-30
7.23099E-01 9.54159E-30
7.26995E-01 9.21396E-30
7.30874E-01 8.89537E-30
7.34736E-01 8.58569E-30
7.38579E-01 8.28476E-30
7.42405E-01 7.99245E-30
7.46212E-01 7.70859E-30
7.50000E-01 7.43304E-30
7.53769E-01 7.16564E-30
7.57519E-01 6.90624E-30
7.61249E-01 6.65469E-30
7.64960E-01 6.41081E-30
7.68650E-01 6.17446E-30
7.72320E-01 5.94547E-30
7.75968E-01 5.72369E-30
7.79596E-01 5.50896E-30
7.83203E-01 5.30111E-30
7.86788E-01 5.09998E-30
7.90351E-01 4.90542E-30
7.93893E-01 4.71727E-30
7.97411E-01 4.53536E-30
8.00908E-01 4.35954E-30
8.04381E-01 4.18967E-30
8.07831E-01 4.02557E-30
8.11257E-01 3.86710E-30
8.14660E-01 3.71410E-30
8.18039E-01 3.56643E-30
8.21394E-01 3.42394E-30
8.24724E-01 3.28648E-30
8.28030E-01 3.15391E-30
8.31310E-01 3.02608E-30
8.34565E-01 2.90286E-30
8.37795E-01 2.78411E-30
8.40999E-01 2.66969E-30
8.44177E-01 2.55948E-30
8.47329E-01 2.45333E-30
8.50455E-01 2.35113E-30
8.53553E-01 2.25275E-30
8.56625E-01 2.15806E-30
8.59670E-01 2.06696E-30
8.62687E-01 1.97931E-30
8.65677E-01 1.89501E-30
8.68639E-01 1.81394E-30
8.71572E-01 1.73600E-30
8.74478E-01 1.66108E-30
8.77355E-01 1.58907E-30
8.80203E-01 1.51988E-30
8.83022E-01 1.45341E-30
8.85812E-01 1.38956E-30
8.88573E-01 1.32823E-30
8.91304E-01 1.26935E-30
8.94005E-01 1.21282E-30
8.96677E-01 1.15855E-30
8.99318E-01 1.10646E-30
9.01928E-01 1.05648E-30
9.04508E-01 1.00852E-30
9.07058E-01 9.62512E-31
9.09576E-01 9.18380E-31
9.12063E-01 8.76053E-31
9.14519E-01 8.35464E-31
9.16943E-01 7.96546E-31
9.19335E-01 7.59235E-31
9.21696E-01 7.23470E-31
9.24024E-01 6.89190E-31
9.26320E-01 6.56338E-31
9.28584E-01 6.24859E-31
9.30815E-01 5.94697E-31
9.33013E-01 5.65802E-31
9.35178E-01 5.38123E-31
9.37310E-01 5.11613E-31
9.39409E-01 4.86225E-31
9.41474E-01 4.61913E-31
9.43505E-01 4.38636E-31
9.45503E-01 4.16351E-31
9.47467E-01 3.95019E-31
9.49397E-01 3.74601E-31
9.51293E-01 3.55061E-31
9.53154E-01 3.36363E-31
9.54981E-01 3.18473E-31
9.56773E-01 3.01359E-31
9.58530E-01 2.84989E-31
9.60252E-01 2.69333E-31
9.61940E-01 2.54362E-31
9.63592E-01 2.40049E-31
9.65209E-01 2.26368E-31
9.66790E-01 2.13292E-31
9.68336E-01 2.00798E-31
9.69846E-01 1.88862E-31
9.71321E-01 1.77463E-31
9.72759E-01 1.66578E-31
9.74162E-01 1.56188E-31
9.75528E-01 1.46273E-31
9.76858E-01 1.36815E-31
9.78152E-01 1.27796E-31
9.79410E-01 1.19199E-31
9.80631E-01 1.11008E-31
9.81815E-01 1.03209E-31
9.82963E-01 9.57851E-32
9.84074E-01 8.87240E-32
9.85148E-01 8.20123E-32
9.86185E-01 7.56374E-32
9.87185E-01 6.95874E-32
9.88148E-01 6.38511E-32
9.89074E-01 5.84179E-32
9.89962E-01 5.32776E-32
9.90814E-01 4.84208E-32
9.91627E-01 4.38384E-32
9.92404E-01 3.95221E-32
9.93143E-01 3.54638E-32
9.93844E-01 3.16561E-32
9.94508E-01 2.80920E-32
9.95134E-01 2.47650E-32
9.95722E-01 2.16689E-32
9.96273E-01 1.87981E-32
9.96786E-01 1.61473E-32
9.97261E-01 1.37118E-32
9.97698E-01 1.14870E-32
9.98097E-01 9.46891E-33
9.98459E-01 7.65391E-33
9.98782E-01 6.03866E-33
9.99067E-01 4.62026E-33
9.99315E-01 3.39611E-33
9.99524E-01 2.36401E-33
9.99695E-01 1.52210E-33
9.99829E-01 8.68858E-34
9.99924E-01 4.03093E-34
9.99981E-01 1.23973E-34
1.00000E+00 3.09819E-35
