 #
 # Subroutine ELSEPA. Elastic scattering of electrons and positrons
 #                    by neutral atoms and positive ions
 #
 # Projectile: electron
 # Kinetic energy = 1.75000E+08 eV = 6.43113E+06 a.u.
 #
 # WARNING: High-energy factorization with free-atom DF screening.
 #          Absorption, polarization and exchange corrections are
 #          switched off.
 #          Phase shifts are calculated for the bare nucleus.
 #          Scattering amplitudes are not evaluated.
 #
 # Element: Ba,  Z =  56,  atomic weight = 1.37327E+02 g/mol
 #
 # Nuclear model: Fermi distribution
 #                Average radius = 5.52038E-13 cm
 #                Skin thickness = 5.46000E-14 cm
 #
 # Number of electrons = 56
 #
 # Total elastic cross section = 7.24945E-18 cm**2 = 2.58883E-01 a0**2
 # 1st transport cross section = 1.99428E-25 cm**2 = 7.12169E-09 a0**2
 # 2nd transport cross section = 5.96559E-25 cm**2 = 2.13035E-08 a0**2
 #
 #
 # Differential cross section:                       MU=(1-COS(THETA))/2
 #
 #  THETA        MU          DCS          DCS        Sherman      error
 #  (deg)                 (cm**2/sr)   (a0**2/sr)    function
 #----------------------------------------------------------------------
0.00000E+00 3.82128E-09
7.61557E-13 3.74910E-09
1.18994E-12 3.70947E-09
1.71346E-12 3.66194E-09
2.33225E-12 3.60701E-09
3.04617E-12 3.54526E-09
3.85530E-12 3.47730E-09
4.75964E-12 3.40379E-09
5.75917E-12 3.32544E-09
6.85391E-12 3.24293E-09
8.04379E-12 3.15762E-09
9.32893E-12 3.06953E-09
1.07092E-11 2.97829E-09
1.21847E-11 2.88582E-09
1.37554E-11 2.79365E-09
1.54213E-11 2.69992E-09
1.71823E-11 2.60615E-09
1.90386E-11 2.51494E-09
2.09900E-11 2.42346E-09
2.30367E-11 2.33259E-09
2.51785E-11 2.24606E-09
2.74156E-11 2.16018E-09
2.97478E-11 2.07521E-09
3.21752E-11 1.99566E-09
3.46979E-11 1.91738E-09
3.73157E-11 1.84050E-09
4.00286E-11 1.76863E-09
4.28368E-11 1.69884E-09
4.57402E-11 1.63069E-09
4.87388E-11 1.56685E-09
5.18325E-11 1.50561E-09
5.50215E-11 1.44605E-09
5.83057E-11 1.39005E-09
6.16850E-11 1.33686E-09
6.51595E-11 1.28530E-09
6.87293E-11 1.23656E-09
7.23943E-11 1.19065E-09
7.61544E-11 1.14624E-09
1.18991E-10 8.06066E-10
1.71347E-10 5.93170E-10
2.33223E-10 4.51219E-10
3.04617E-10 3.50804E-10
3.85531E-10 2.76741E-10
4.75965E-10 2.20736E-10
5.75917E-10 1.77739E-10
6.85389E-10 1.44478E-10
8.04380E-10 1.17944E-10
9.32891E-10 9.72977E-11
1.07092E-09 8.16284E-11
1.21847E-09 6.90325E-11
1.37554E-09 5.84609E-11
1.54213E-09 5.01355E-11
1.71823E-09 4.33340E-11
1.90386E-09 3.74189E-11
2.09900E-09 3.26240E-11
2.30367E-09 2.86541E-11
2.51785E-09 2.50828E-11
2.74156E-09 2.21229E-11
2.97478E-09 1.96496E-11
3.21752E-09 1.73805E-11
3.46978E-09 1.54644E-11
3.73156E-09 1.38374E-11
4.00286E-09 1.23594E-11
4.28368E-09 1.10809E-11
4.57402E-09 9.98063E-12
4.87388E-09 8.99055E-12
5.18326E-09 8.11922E-12
5.50215E-09 7.36050E-12
5.83057E-09 6.68137E-12
6.16850E-09 6.07654E-12
6.51596E-09 5.54438E-12
6.87293E-09 5.06833E-12
7.23942E-09 4.64068E-12
7.61544E-09 4.26091E-12
1.18991E-08 2.00555E-12
1.71347E-08 1.08345E-12
2.33223E-08 6.37364E-13
3.04617E-08 3.97544E-13
3.85531E-08 2.59265E-13
4.75965E-08 1.75572E-13
5.75917E-08 1.22970E-13
6.85389E-08 8.86757E-14
8.04380E-08 6.55460E-14
9.32891E-08 4.95612E-14
1.07092E-07 3.81932E-14
1.21847E-07 2.99023E-14
1.37554E-07 2.37552E-14
1.54213E-07 1.91145E-14
1.71823E-07 1.55553E-14
1.90386E-07 1.27878E-14
2.09900E-07 1.06052E-14
2.30367E-07 8.86877E-15
2.51785E-07 7.47323E-15
2.74156E-07 6.34121E-15
2.97478E-07 5.41501E-15
3.21752E-07 4.65067E-15
3.46978E-07 4.01631E-15
3.73156E-07 3.48630E-15
4.00286E-07 3.04073E-15
4.28368E-07 2.66396E-15
4.57402E-07 2.34344E-15
4.87388E-07 2.06966E-15
5.18325E-07 1.83467E-15
5.50215E-07 1.63208E-15
5.83057E-07 1.45666E-15
6.16850E-07 1.30411E-15
6.51596E-07 1.17101E-15
6.87293E-07 1.05447E-15
7.23942E-07 9.52078E-16
7.61543E-07 8.61813E-16
1.18991E-06 3.57636E-16
1.71347E-06 1.74066E-16
2.33223E-06 9.46074E-17
3.04617E-06 5.57508E-17
3.85531E-06 3.49476E-17
4.75964E-06 2.30027E-17
5.75916E-06 1.57512E-17
6.85388E-06 1.11442E-17
8.04378E-06 8.10448E-18
9.32888E-06 6.03377E-18
1.07092E-05 4.58396E-18
1.21846E-05 3.54449E-18
1.37553E-05 2.78361E-18
1.54212E-05 2.21634E-18
1.71822E-05 1.78647E-18
1.90385E-05 1.45543E-18
2.09899E-05 1.19851E-18
2.30365E-05 9.95758E-19
2.51783E-05 8.33974E-19
2.74153E-05 7.03633E-19
2.97475E-05 5.97730E-19
3.21749E-05 5.11020E-19
3.46974E-05 4.39509E-19
3.73152E-05 3.80119E-19
4.00281E-05 3.30462E-19
4.28362E-05 2.88671E-19
4.57395E-05 2.53284E-19
4.87380E-05 2.23149E-19
5.18317E-05 1.97355E-19
5.50205E-05 1.75177E-19
5.83045E-05 1.56025E-19
6.16838E-05 1.39423E-19
6.51582E-05 1.24976E-19
6.87277E-05 1.12358E-19
7.23925E-05 1.01296E-19
7.61524E-05 9.17638E-20
9.21439E-05 6.27540E-20
1.09658E-04 4.43600E-20
1.28695E-04 3.22462E-20
1.49255E-04 2.40010E-20
1.71338E-04 1.82342E-20
1.94942E-04 1.41013E-20
2.20070E-04 1.10771E-20
2.46720E-04 8.82288E-21
2.74892E-04 7.11456E-21
3.04586E-04 5.80101E-21
3.35803E-04 4.77737E-21
3.68542E-04 3.97021E-21
4.02802E-04 3.32673E-21
4.38585E-04 2.80863E-21
4.75889E-04 2.38769E-21
5.14715E-04 2.04281E-21
5.55063E-04 1.75808E-21
5.96931E-04 1.52131E-21
6.40321E-04 1.32312E-21
6.85233E-04 1.15619E-21
7.31665E-04 1.01479E-21
7.79618E-04 8.94357E-22
8.29092E-04 7.91269E-22
8.80086E-04 7.02614E-22
9.32601E-04 6.26028E-22
9.86636E-04 5.59592E-22
1.04219E-03 5.01731E-22
1.09927E-03 4.51150E-22
1.15786E-03 4.06775E-22
1.21797E-03 3.67715E-22
1.27961E-03 3.33222E-22
1.34276E-03 3.02670E-22
1.40743E-03 2.75530E-22
1.47362E-03 2.51356E-22
1.54133E-03 2.29765E-22
1.61056E-03 2.10435E-22
1.68131E-03 1.93085E-22
1.75357E-03 1.77479E-22
1.82735E-03 1.63409E-22
1.90265E-03 1.50698E-22
1.97947E-03 1.39192E-22
2.05780E-03 1.28755E-22
2.13765E-03 1.19271E-22
2.21902E-03 1.10638E-22
2.30190E-03 1.02764E-22
2.38630E-03 9.55730E-23
2.47222E-03 8.89937E-23
2.55965E-03 8.29650E-23
2.64859E-03 7.74327E-23
2.73905E-03 7.23486E-23
2.83103E-03 6.76700E-23
2.92452E-03 6.33586E-23
3.01952E-03 5.93805E-23
3.11604E-03 5.57053E-23
3.21407E-03 5.23059E-23
3.31362E-03 4.91579E-23
3.41468E-03 4.62392E-23
3.51725E-03 4.35304E-23
3.62133E-03 4.10134E-23
3.72692E-03 3.86725E-23
3.83403E-03 3.64929E-23
3.94265E-03 3.44617E-23
4.05278E-03 3.25669E-23
4.16442E-03 3.07978E-23
4.27757E-03 2.91445E-23
4.39223E-03 2.75980E-23
4.50840E-03 2.61504E-23
4.62608E-03 2.47940E-23
4.74527E-03 2.35222E-23
4.86597E-03 2.23287E-23
4.98817E-03 2.12079E-23
5.11188E-03 2.01546E-23
5.23711E-03 1.91639E-23
5.36383E-03 1.82316E-23
5.49207E-03 1.73535E-23
5.62181E-03 1.65259E-23
5.75306E-03 1.57455E-23
5.88581E-03 1.50091E-23
6.02007E-03 1.43137E-23
6.15583E-03 1.36567E-23
6.29310E-03 1.30356E-23
6.43187E-03 1.24481E-23
6.57214E-03 1.18920E-23
6.71392E-03 1.13655E-23
6.85720E-03 1.08666E-23
7.00198E-03 1.03936E-23
7.14827E-03 9.94501E-24
7.29605E-03 9.51931E-24
7.44534E-03 9.11515E-24
7.59612E-03 8.73124E-24
7.97965E-03 7.85250E-24
8.37255E-03 7.07667E-24
8.77480E-03 6.38986E-24
9.18641E-03 5.78028E-24
9.60736E-03 5.23794E-24
1.00376E-02 4.75430E-24
1.04773E-02 4.32207E-24
1.09262E-02 3.93495E-24
1.13844E-02 3.58756E-24
1.18520E-02 3.27522E-24
1.23288E-02 2.99388E-24
1.28150E-02 2.74002E-24
1.33104E-02 2.51059E-24
1.38150E-02 2.30289E-24
1.43290E-02 2.11459E-24
1.48521E-02 1.94363E-24
1.53845E-02 1.78819E-24
1.59262E-02 1.64667E-24
1.64770E-02 1.51766E-24
1.70371E-02 1.39992E-24
1.76063E-02 1.29233E-24
1.81848E-02 1.19391E-24
1.87724E-02 1.10377E-24
1.93692E-02 1.02114E-24
1.99751E-02 9.45317E-25
2.05901E-02 8.75667E-25
2.12143E-02 8.11633E-25
2.18476E-02 7.52709E-25
2.24900E-02 6.98442E-25
2.31415E-02 6.48423E-25
2.38021E-02 6.02284E-25
2.44717E-02 5.59690E-25
2.51504E-02 5.20343E-25
2.58382E-02 4.83968E-25
2.65349E-02 4.50319E-25
2.72407E-02 4.19172E-25
2.79555E-02 3.90323E-25
2.86793E-02 3.63587E-25
2.94120E-02 3.38795E-25
3.01537E-02 3.15792E-25
3.09043E-02 2.94440E-25
3.16639E-02 2.74609E-25
3.24324E-02 2.56182E-25
3.32098E-02 2.39052E-25
3.39961E-02 2.23120E-25
3.47912E-02 2.08297E-25
3.55952E-02 1.94500E-25
3.64081E-02 1.81653E-25
3.72297E-02 1.69686E-25
3.80602E-02 1.58534E-25
3.88995E-02 1.48139E-25
3.97476E-02 1.38447E-25
4.06044E-02 1.29406E-25
4.14700E-02 1.20971E-25
4.23443E-02 1.13099E-25
4.32273E-02 1.05751E-25
4.41190E-02 9.88893E-26
4.50194E-02 9.24809E-26
4.59284E-02 8.64943E-26
4.68461E-02 8.09007E-26
4.87074E-02 7.07870E-26
5.06030E-02 6.19477E-26
5.25328E-02 5.42173E-26
5.44967E-02 4.74531E-26
5.64946E-02 4.15317E-26
5.85262E-02 3.63461E-26
6.05914E-02 3.18037E-26
6.26901E-02 2.78237E-26
6.48222E-02 2.43361E-26
6.69873E-02 2.12798E-26
6.91854E-02 1.86015E-26
7.14163E-02 1.62546E-26
7.36799E-02 1.41984E-26
7.59760E-02 1.23972E-26
7.83043E-02 1.08199E-26
8.06647E-02 9.43916E-27
8.30571E-02 8.23087E-27
8.54812E-02 7.17403E-27
8.79369E-02 6.25012E-27
9.04240E-02 5.44290E-27
9.29422E-02 4.73806E-27
9.54915E-02 4.12304E-27
9.80716E-02 3.58679E-27
1.00682E-01 3.11959E-27
1.03323E-01 2.71289E-27
1.05995E-01 2.35916E-27
1.08696E-01 2.05178E-27
1.11427E-01 1.78494E-27
1.14188E-01 1.55351E-27
1.16978E-01 1.35300E-27
1.19797E-01 1.17944E-27
1.22645E-01 1.02938E-27
1.25522E-01 8.99755E-28
1.28428E-01 7.87895E-28
1.31361E-01 6.91455E-28
1.34323E-01 6.08382E-28
1.37313E-01 5.36877E-28
1.40330E-01 4.75369E-28
1.43375E-01 4.22486E-28
1.46447E-01 3.77030E-28
1.49545E-01 3.37958E-28
1.52671E-01 3.04364E-28
1.55823E-01 2.75458E-28
1.59001E-01 2.50557E-28
1.62205E-01 2.29071E-28
1.65435E-01 2.10488E-28
1.68690E-01 1.94368E-28
1.71970E-01 1.80332E-28
1.75276E-01 1.68056E-28
1.78606E-01 1.57261E-28
1.81961E-01 1.47712E-28
1.85340E-01 1.39206E-28
1.88743E-01 1.31574E-28
1.92169E-01 1.24670E-28
1.95619E-01 1.18376E-28
1.99092E-01 1.12588E-28
2.02589E-01 1.07225E-28
2.06107E-01 1.02215E-28
2.09649E-01 9.75033E-29
2.13212E-01 9.30420E-29
2.16797E-01 8.87940E-29
2.20404E-01 8.47294E-29
2.24032E-01 8.08244E-29
2.27680E-01 7.70606E-29
2.31350E-01 7.34236E-29
2.35040E-01 6.99029E-29
2.38751E-01 6.64907E-29
2.42481E-01 6.31813E-29
2.46231E-01 5.99710E-29
2.50000E-01 5.68575E-29
2.53788E-01 5.38393E-29
2.57595E-01 5.09160E-29
2.61421E-01 4.80873E-29
2.65264E-01 4.53536E-29
2.69126E-01 4.27153E-29
2.73005E-01 4.01727E-29
2.76901E-01 3.77264E-29
2.80814E-01 3.53765E-29
2.84744E-01 3.31230E-29
2.88691E-01 3.09659E-29
2.92653E-01 2.89048E-29
2.96632E-01 2.69389E-29
3.00625E-01 2.50672E-29
3.04634E-01 2.32887E-29
3.08658E-01 2.16018E-29
3.12697E-01 2.00048E-29
3.16749E-01 1.84957E-29
3.20816E-01 1.70725E-29
3.24896E-01 1.57327E-29
3.28990E-01 1.44740E-29
3.33097E-01 1.32936E-29
3.37216E-01 1.21889E-29
3.41348E-01 1.11570E-29
3.45492E-01 1.01949E-29
3.49647E-01 9.29976E-30
3.53814E-01 8.46851E-30
3.57992E-01 7.69817E-30
3.62181E-01 6.98573E-30
3.66381E-01 6.32818E-30
3.70590E-01 5.72258E-30
3.74810E-01 5.16601E-30
3.79039E-01 4.65561E-30
3.83277E-01 4.18861E-30
3.87524E-01 3.76227E-30
3.91780E-01 3.37398E-30
3.96044E-01 3.02119E-30
4.00316E-01 2.70144E-30
4.04596E-01 2.41239E-30
4.08882E-01 2.15179E-30
4.13176E-01 1.91747E-30
4.17476E-01 1.70741E-30
4.21783E-01 1.51964E-30
4.26095E-01 1.35234E-30
4.30413E-01 1.20377E-30
4.34737E-01 1.07228E-30
4.39065E-01 9.56347E-31
4.43398E-01 8.54527E-31
4.47736E-01 7.65474E-31
4.52077E-01 6.87934E-31
4.56422E-01 6.20742E-31
4.60770E-01 5.62816E-31
4.65122E-01 5.13156E-31
4.69476E-01 4.70841E-31
4.73832E-01 4.35023E-31
4.78190E-01 4.04925E-31
4.82550E-01 3.79836E-31
4.86912E-01 3.59108E-31
4.91274E-01 3.42152E-31
4.95637E-01 3.28435E-31
5.00000E-01 3.17477E-31
5.04363E-01 3.08845E-31
5.08726E-01 3.02151E-31
5.13088E-01 2.97050E-31
5.17450E-01 2.93237E-31
5.21810E-01 2.90441E-31
5.26168E-01 2.88424E-31
5.30524E-01 2.86979E-31
5.34878E-01 2.85927E-31
5.39230E-01 2.85113E-31
5.43578E-01 2.84406E-31
5.47923E-01 2.83697E-31
5.52264E-01 2.82891E-31
5.56602E-01 2.81916E-31
5.60935E-01 2.80711E-31
5.65263E-01 2.79229E-31
5.69587E-01 2.77435E-31
5.73905E-01 2.75306E-31
5.78217E-01 2.72825E-31
5.82524E-01 2.69985E-31
5.86824E-01 2.66787E-31
5.91118E-01 2.63234E-31
5.95404E-01 2.59338E-31
5.99684E-01 2.55112E-31
6.03956E-01 2.50574E-31
6.08220E-01 2.45745E-31
6.12476E-01 2.40645E-31
6.16723E-01 2.35300E-31
6.20961E-01 2.29734E-31
6.25190E-01 2.23972E-31
6.29410E-01 2.18040E-31
6.33619E-01 2.11964E-31
6.37819E-01 2.05770E-31
6.42008E-01 1.99481E-31
6.46186E-01 1.93122E-31
6.50353E-01 1.86717E-31
6.54508E-01 1.80287E-31
6.58652E-01 1.73854E-31
6.62784E-01 1.67437E-31
6.66903E-01 1.61056E-31
6.71010E-01 1.54726E-31
6.75104E-01 1.48465E-31
6.79184E-01 1.42287E-31
6.83251E-01 1.36206E-31
6.87303E-01 1.30233E-31
6.91342E-01 1.24379E-31
6.95366E-01 1.18653E-31
6.99375E-01 1.13065E-31
7.03368E-01 1.07621E-31
7.07347E-01 1.02327E-31
7.11309E-01 9.71888E-32
7.15256E-01 9.22098E-32
7.19186E-01 8.73933E-32
7.23099E-01 8.27415E-32
7.26995E-01 7.82560E-32
7.30874E-01 7.39374E-32
7.34736E-01 6.97857E-32
7.38579E-01 6.58003E-32
7.42405E-01 6.19799E-32
7.46212E-01 5.83228E-32
7.50000E-01 5.48269E-32
7.53769E-01 5.14894E-32
7.57519E-01 4.83074E-32
7.61249E-01 4.52776E-32
7.64960E-01 4.23963E-32
7.68650E-01 3.96597E-32
7.72320E-01 3.70638E-32
7.75968E-01 3.46042E-32
7.79596E-01 3.22767E-32
7.83203E-01 3.00768E-32
7.86788E-01 2.80000E-32
7.90351E-01 2.60417E-32
7.93893E-01 2.41972E-32
7.97411E-01 2.24619E-32
8.00908E-01 2.08314E-32
8.04381E-01 1.93009E-32
8.07831E-01 1.78661E-32
8.11257E-01 1.65224E-32
8.14660E-01 1.52656E-32
8.18039E-01 1.40913E-32
8.21394E-01 1.29954E-32
8.24724E-01 1.19738E-32
8.28030E-01 1.10226E-32
8.31310E-01 1.01379E-32
8.34565E-01 9.31608E-33
8.37795E-01 8.55352E-33
8.40999E-01 7.84678E-33
8.44177E-01 7.19254E-33
8.47329E-01 6.58763E-33
8.50455E-01 6.02899E-33
8.53553E-01 5.51370E-33
8.56625E-01 5.03898E-33
8.59670E-01 4.60217E-33
8.62687E-01 4.20075E-33
8.65677E-01 3.83230E-33
8.68639E-01 3.49455E-33
8.71572E-01 3.18533E-33
8.74478E-01 2.90259E-33
8.77355E-01 2.64441E-33
8.80203E-01 2.40896E-33
8.83022E-01 2.19452E-33
8.85812E-01 1.99948E-33
8.88573E-01 1.82231E-33
8.91304E-01 1.66160E-33
8.94005E-01 1.51600E-33
8.96677E-01 1.38427E-33
8.99318E-01 1.26525E-33
9.01928E-01 1.15785E-33
9.04508E-01 1.06105E-33
9.07058E-01 9.73911E-34
9.09576E-01 8.95565E-34
9.12063E-01 8.25197E-34
9.14519E-01 7.62058E-34
9.16943E-01 7.05454E-34
9.19335E-01 6.54746E-34
9.21696E-01 6.09344E-34
9.24024E-01 5.68706E-34
9.26320E-01 5.32336E-34
9.28584E-01 4.99777E-34
9.30815E-01 4.70613E-34
9.33013E-01 4.44465E-34
9.35178E-01 4.20985E-34
9.37310E-01 3.99860E-34
9.39409E-01 3.80805E-34
9.41474E-01 3.63561E-34
9.43505E-01 3.47897E-34
9.45503E-01 3.33604E-34
9.47467E-01 3.20494E-34
9.49397E-01 3.08402E-34
9.51293E-01 2.97177E-34
9.53154E-01 2.86688E-34
9.54981E-01 2.76820E-34
9.56773E-01 2.67469E-34
9.58530E-01 2.58547E-34
9.60252E-01 2.49977E-34
9.61940E-01 2.41692E-34
9.63592E-01 2.33636E-34
9.65209E-01 2.25761E-34
9.66790E-01 2.18028E-34
9.68336E-01 2.10403E-34
9.69846E-01 2.02860E-34
9.71321E-01 1.95381E-34
9.72759E-01 1.87948E-34
9.74162E-01 1.80552E-34
9.75528E-01 1.73187E-34
9.76858E-01 1.65848E-34
9.78152E-01 1.58537E-34
9.79410E-01 1.51257E-34
9.80631E-01 1.44011E-34
9.81815E-01 1.36809E-34
9.82963E-01 1.29658E-34
9.84074E-01 1.22569E-34
9.85148E-01 1.15552E-34
9.86185E-01 1.08621E-34
9.87185E-01 1.01788E-34
9.88148E-01 9.50675E-35
9.89074E-01 8.84721E-35
9.89962E-01 8.20164E-35
9.90814E-01 7.57145E-35
9.91627E-01 6.95804E-35
9.92404E-01 6.36280E-35
9.93143E-01 5.78709E-35
9.93844E-01 5.23225E-35
9.94508E-01 4.69957E-35
9.95134E-01 4.19030E-35
9.95722E-01 3.70561E-35
9.96273E-01 3.24668E-35
9.96786E-01 2.81456E-35
9.97261E-01 2.41026E-35
9.97698E-01 2.03476E-35
9.98097E-01 1.68891E-35
9.98459E-01 1.37352E-35
9.98782E-01 1.08934E-35
9.99067E-01 8.37024E-36
9.99315E-01 6.17162E-36
9.99524E-01 4.30254E-36
9.99695E-01 2.76740E-36
9.99829E-01 1.56969E-36
9.99924E-01 7.12240E-37
9.99981E-01 1.96981E-37
1.00000E+00 2.51053E-38
