 #
 # Subroutine ELSEPA. Elastic scattering of electrons and positrons
 #                    by neutral atoms and positive ions
 #
 # Projectile: electron
 # Kinetic energy = 1.25000E+07 eV = 4.59367E+05 a.u.
 #
 # WARNING: High-energy factorization with free-atom DF screening.
 #          Absorption, polarization and exchange corrections are
 #          switched off.
 #          Phase shifts are calculated for the bare nucleus.
 #          Scattering amplitudes are not evaluated.
 #
 # Element: Ba,  Z =  56,  atomic weight = 1.37327E+02 g/mol
 #
 # Nuclear model: Fermi distribution
 #                Average radius = 5.52038E-13 cm
 #                Skin thickness = 5.46000E-14 cm
 #
 # Number of electrons = 56
 #
 # Total elastic cross section = 7.26283E-18 cm**2 = 2.59360E-01 a0**2
 # 1st transport cross section = 3.34770E-23 cm**2 = 1.19548E-06 a0**2
 # 2nd transport cross section = 9.42982E-23 cm**2 = 3.36745E-06 a0**2
 #
 #
 # Differential cross section:                       MU=(1-COS(THETA))/2
 #
 #  THETA        MU          DCS          DCS        Sherman      error
 #  (deg)                 (cm**2/sr)   (a0**2/sr)    function
 #----------------------------------------------------------------------
0.00000E+00 2.10001E-11
7.61557E-13 2.09979E-11
1.18994E-12 2.09966E-11
1.71346E-12 2.09951E-11
2.33225E-12 2.09933E-11
3.04617E-12 2.09912E-11
3.85530E-12 2.09889E-11
4.75964E-12 2.09862E-11
5.75917E-12 2.09833E-11
6.85391E-12 2.09802E-11
8.04379E-12 2.09767E-11
9.32893E-12 2.09730E-11
1.07092E-11 2.09690E-11
1.21847E-11 2.09647E-11
1.37554E-11 2.09602E-11
1.54213E-11 2.09554E-11
1.71823E-11 2.09503E-11
1.90386E-11 2.09449E-11
2.09900E-11 2.09393E-11
2.30367E-11 2.09334E-11
2.51785E-11 2.09272E-11
2.74156E-11 2.09207E-11
2.97478E-11 2.09140E-11
3.21752E-11 2.09070E-11
3.46979E-11 2.08998E-11
3.73157E-11 2.08922E-11
4.00286E-11 2.08844E-11
4.28368E-11 2.08764E-11
4.57402E-11 2.08680E-11
4.87388E-11 2.08594E-11
5.18325E-11 2.08505E-11
5.50215E-11 2.08414E-11
5.83057E-11 2.08320E-11
6.16850E-11 2.08223E-11
6.51595E-11 2.08124E-11
6.87293E-11 2.08022E-11
7.23943E-11 2.07917E-11
7.61544E-11 2.07810E-11
1.18991E-10 2.06594E-11
1.71347E-10 2.05123E-11
2.33223E-10 2.03407E-11
3.04617E-10 2.01454E-11
3.85531E-10 1.99278E-11
4.75965E-10 1.96889E-11
5.75917E-10 1.94302E-11
6.85389E-10 1.91531E-11
8.04380E-10 1.88591E-11
9.32891E-10 1.85496E-11
1.07092E-09 1.82262E-11
1.21847E-09 1.78906E-11
1.37554E-09 1.75449E-11
1.54213E-09 1.71941E-11
1.71823E-09 1.68326E-11
1.90386E-09 1.64618E-11
2.09900E-09 1.60829E-11
2.30367E-09 1.57106E-11
2.51785E-09 1.53342E-11
2.74156E-09 1.49531E-11
2.97478E-09 1.45685E-11
3.21752E-09 1.41930E-11
3.46978E-09 1.38215E-11
3.73156E-09 1.34491E-11
4.00286E-09 1.30767E-11
4.28368E-09 1.27135E-11
4.57402E-09 1.23614E-11
4.87388E-09 1.20113E-11
5.18326E-09 1.16636E-11
5.50215E-09 1.13233E-11
5.83057E-09 1.09999E-11
6.16850E-09 1.06801E-11
6.51596E-09 1.03644E-11
6.87293E-09 1.00534E-11
7.23942E-09 9.76321E-12
7.61544E-09 9.47757E-12
1.18991E-08 7.05353E-12
1.71347E-08 5.35579E-12
2.33223E-08 4.17377E-12
3.04617E-08 3.33064E-12
3.85531E-08 2.70886E-12
4.75965E-08 2.23360E-12
5.75917E-08 1.86034E-12
6.85389E-08 1.56071E-12
8.04380E-08 1.31765E-12
9.32891E-08 1.11845E-12
1.07092E-07 9.54243E-13
1.21847E-07 8.18491E-13
1.37554E-07 7.04868E-13
1.54213E-07 6.06850E-13
1.71823E-07 5.27643E-13
1.90386E-07 4.62999E-13
2.09900E-07 4.09748E-13
2.30367E-07 3.60754E-13
2.51785E-07 3.19488E-13
2.74156E-07 2.84897E-13
2.97478E-07 2.55689E-13
3.21752E-07 2.29117E-13
3.46978E-07 2.05718E-13
3.73156E-07 1.85688E-13
4.00286E-07 1.68443E-13
4.28368E-07 1.52843E-13
4.57402E-07 1.38569E-13
4.87388E-07 1.26151E-13
5.18325E-07 1.15297E-13
5.50215E-07 1.05573E-13
5.83057E-07 9.64178E-14
6.16850E-07 8.83498E-14
6.51596E-07 8.12133E-14
6.87293E-07 7.48722E-14
7.23942E-07 6.88109E-14
7.61543E-07 6.34116E-14
1.18991E-06 3.03910E-14
1.71347E-06 1.64105E-14
2.33223E-06 9.75736E-15
3.04617E-06 6.21919E-15
3.85531E-06 4.15568E-15
4.75964E-06 2.87679E-15
5.75916E-06 2.04932E-15
6.85388E-06 1.49396E-15
8.04378E-06 1.11232E-15
9.32888E-06 8.44348E-16
1.07092E-05 6.52321E-16
1.21846E-05 5.11959E-16
1.37553E-05 4.07418E-16
1.54212E-05 3.28335E-16
1.71822E-05 2.67778E-16
1.90385E-05 2.20562E-16
2.09899E-05 1.83441E-16
2.30365E-05 1.53902E-16
2.51783E-05 1.30000E-16
2.74153E-05 1.10594E-16
2.97475E-05 9.46624E-17
3.21749E-05 8.14924E-17
3.46974E-05 7.05616E-17
3.73152E-05 6.13790E-17
4.00281E-05 5.36616E-17
4.28362E-05 4.71135E-17
4.57395E-05 4.15321E-17
4.87380E-05 3.67551E-17
5.18317E-05 3.26335E-17
5.50205E-05 2.90765E-17
5.83045E-05 2.59862E-17
6.16838E-05 2.32956E-17
6.51582E-05 2.09453E-17
6.87277E-05 1.88816E-17
7.23925E-05 1.70678E-17
7.61524E-05 1.54654E-17
9.21439E-05 1.06610E-17
1.09658E-04 7.58316E-18
1.28695E-04 5.54065E-18
1.49255E-04 4.14165E-18
1.71338E-04 3.15813E-18
1.94942E-04 2.45026E-18
2.20070E-04 1.93031E-18
2.46720E-04 1.54148E-18
2.74892E-04 1.24595E-18
3.04586E-04 1.01809E-18
3.35803E-04 8.40099E-19
3.68542E-04 6.99430E-19
4.02802E-04 5.87056E-19
4.38585E-04 4.96409E-19
4.75889E-04 4.22631E-19
5.14715E-04 3.62085E-19
5.55063E-04 3.12024E-19
5.96931E-04 2.70336E-19
6.40321E-04 2.35396E-19
6.85233E-04 2.05932E-19
7.31665E-04 1.80945E-19
7.79618E-04 1.59643E-19
8.29092E-04 1.41391E-19
8.80086E-04 1.25680E-19
9.32601E-04 1.12096E-19
9.86636E-04 1.00303E-19
1.04219E-03 9.00235E-20
1.09927E-03 8.10312E-20
1.15786E-03 7.31367E-20
1.21797E-03 6.61831E-20
1.27961E-03 6.00387E-20
1.34276E-03 5.45931E-20
1.40743E-03 4.97527E-20
1.47362E-03 4.54387E-20
1.54133E-03 4.15838E-20
1.61056E-03 3.81304E-20
1.68131E-03 3.50294E-20
1.75357E-03 3.22383E-20
1.82735E-03 2.97208E-20
1.90265E-03 2.74452E-20
1.97947E-03 2.53840E-20
2.05780E-03 2.35136E-20
2.13765E-03 2.18130E-20
2.21902E-03 2.02640E-20
2.30190E-03 1.88507E-20
2.38630E-03 1.75590E-20
2.47222E-03 1.63766E-20
2.55965E-03 1.52925E-20
2.64859E-03 1.42971E-20
2.73905E-03 1.33818E-20
2.83103E-03 1.25389E-20
2.92452E-03 1.17617E-20
3.01952E-03 1.10441E-20
3.11604E-03 1.03807E-20
3.21407E-03 9.76663E-21
3.31362E-03 9.19757E-21
3.41468E-03 8.66960E-21
3.51725E-03 8.17920E-21
3.62133E-03 7.72320E-21
3.72692E-03 7.29873E-21
3.83403E-03 6.90321E-21
3.94265E-03 6.53429E-21
4.05278E-03 6.18986E-21
4.16442E-03 5.86796E-21
4.27757E-03 5.56687E-21
4.39223E-03 5.28498E-21
4.50840E-03 5.02083E-21
4.62608E-03 4.77309E-21
4.74527E-03 4.54056E-21
4.86597E-03 4.32212E-21
4.98817E-03 4.11676E-21
5.11188E-03 3.92355E-21
5.23711E-03 3.74162E-21
5.36383E-03 3.57021E-21
5.49207E-03 3.40857E-21
5.62181E-03 3.25606E-21
5.75306E-03 3.11205E-21
5.88581E-03 2.97598E-21
6.02007E-03 2.84733E-21
6.15583E-03 2.72561E-21
6.29310E-03 2.61039E-21
6.43187E-03 2.50124E-21
6.57214E-03 2.39779E-21
6.71392E-03 2.29969E-21
6.85720E-03 2.20659E-21
7.00198E-03 2.11820E-21
7.14827E-03 2.03424E-21
7.29605E-03 1.95443E-21
7.44534E-03 1.87854E-21
7.59612E-03 1.80633E-21
7.97965E-03 1.64056E-21
8.37255E-03 1.49355E-21
8.77480E-03 1.36280E-21
9.18641E-03 1.24619E-21
9.60736E-03 1.14192E-21
1.00376E-02 1.04844E-21
1.04773E-02 9.64433E-22
1.09262E-02 8.88765E-22
1.13844E-02 8.20456E-22
1.18520E-02 7.58660E-22
1.23288E-02 7.02641E-22
1.28150E-02 6.51760E-22
1.33104E-02 6.05457E-22
1.38150E-02 5.63244E-22
1.43290E-02 5.24692E-22
1.48521E-02 4.89425E-22
1.53845E-02 4.57110E-22
1.59262E-02 4.27454E-22
1.64770E-02 4.00196E-22
1.70371E-02 3.75105E-22
1.76063E-02 3.51977E-22
1.81848E-02 3.30630E-22
1.87724E-02 3.10899E-22
1.93692E-02 2.92640E-22
1.99751E-02 2.75721E-22
2.05901E-02 2.60024E-22
2.12143E-02 2.45446E-22
2.18476E-02 2.31890E-22
2.24900E-02 2.19271E-22
2.31415E-02 2.07513E-22
2.38021E-02 1.96544E-22
2.44717E-02 1.86301E-22
2.51504E-02 1.76727E-22
2.58382E-02 1.67771E-22
2.65349E-02 1.59384E-22
2.72407E-02 1.51522E-22
2.79555E-02 1.44147E-22
2.86793E-02 1.37223E-22
2.94120E-02 1.30716E-22
3.01537E-02 1.24597E-22
3.09043E-02 1.18838E-22
3.16639E-02 1.13413E-22
3.24324E-02 1.08299E-22
3.32098E-02 1.03475E-22
3.39961E-02 9.89215E-23
3.47912E-02 9.46198E-23
3.55952E-02 9.05533E-23
3.64081E-02 8.67066E-23
3.72297E-02 8.30654E-23
3.80602E-02 7.96167E-23
3.88995E-02 7.63482E-23
3.97476E-02 7.32487E-23
4.06044E-02 7.03074E-23
4.14700E-02 6.75148E-23
4.23443E-02 6.48619E-23
4.32273E-02 6.23404E-23
4.41190E-02 5.99423E-23
4.50194E-02 5.76604E-23
4.59284E-02 5.54878E-23
4.68461E-02 5.34183E-23
4.87074E-02 4.95658E-23
5.06030E-02 4.60600E-23
5.25328E-02 4.28636E-23
5.44967E-02 3.99444E-23
5.64946E-02 3.72733E-23
5.85262E-02 3.48254E-23
6.05914E-02 3.25784E-23
6.26901E-02 3.05125E-23
6.48222E-02 2.86103E-23
6.69873E-02 2.68563E-23
6.91854E-02 2.52368E-23
7.14163E-02 2.37392E-23
7.36799E-02 2.23528E-23
7.59760E-02 2.10675E-23
7.83043E-02 1.98746E-23
8.06647E-02 1.87661E-23
8.30571E-02 1.77348E-23
8.54812E-02 1.67744E-23
8.79369E-02 1.58789E-23
9.04240E-02 1.50431E-23
9.29422E-02 1.42622E-23
9.54915E-02 1.35320E-23
9.80716E-02 1.28484E-23
1.00682E-01 1.22078E-23
1.03323E-01 1.16072E-23
1.05995E-01 1.10433E-23
1.08696E-01 1.05136E-23
1.11427E-01 1.00156E-23
1.14188E-01 9.54694E-24
1.16978E-01 9.10558E-24
1.19797E-01 8.68963E-24
1.22645E-01 8.29731E-24
1.25522E-01 7.92701E-24
1.28428E-01 7.57726E-24
1.31361E-01 7.24666E-24
1.34323E-01 6.93395E-24
1.37313E-01 6.63798E-24
1.40330E-01 6.35768E-24
1.43375E-01 6.09205E-24
1.46447E-01 5.84016E-24
1.49545E-01 5.60117E-24
1.52671E-01 5.37428E-24
1.55823E-01 5.15875E-24
1.59001E-01 4.95390E-24
1.62205E-01 4.75909E-24
1.65435E-01 4.57374E-24
1.68690E-01 4.39728E-24
1.71970E-01 4.22922E-24
1.75276E-01 4.06906E-24
1.78606E-01 3.91636E-24
1.81961E-01 3.77071E-24
1.85340E-01 3.63171E-24
1.88743E-01 3.49900E-24
1.92169E-01 3.37224E-24
1.95619E-01 3.25110E-24
1.99092E-01 3.13529E-24
2.02589E-01 3.02453E-24
2.06107E-01 2.91855E-24
2.09649E-01 2.81710E-24
2.13212E-01 2.71996E-24
2.16797E-01 2.62690E-24
2.20404E-01 2.53771E-24
2.24032E-01 2.45221E-24
2.27680E-01 2.37021E-24
2.31350E-01 2.29154E-24
2.35040E-01 2.21603E-24
2.38751E-01 2.14354E-24
2.42481E-01 2.07392E-24
2.46231E-01 2.00704E-24
2.50000E-01 1.94276E-24
2.53788E-01 1.88096E-24
2.57595E-01 1.82153E-24
2.61421E-01 1.76436E-24
2.65264E-01 1.70935E-24
2.69126E-01 1.65640E-24
2.73005E-01 1.60542E-24
2.76901E-01 1.55632E-24
2.80814E-01 1.50901E-24
2.84744E-01 1.46343E-24
2.88691E-01 1.41949E-24
2.92653E-01 1.37712E-24
2.96632E-01 1.33626E-24
3.00625E-01 1.29684E-24
3.04634E-01 1.25880E-24
3.08658E-01 1.22208E-24
3.12697E-01 1.18664E-24
3.16749E-01 1.15241E-24
3.20816E-01 1.11935E-24
3.24896E-01 1.08740E-24
3.28990E-01 1.05653E-24
3.33097E-01 1.02670E-24
3.37216E-01 9.97850E-25
3.41348E-01 9.69953E-25
3.45492E-01 9.42971E-25
3.49647E-01 9.16867E-25
3.53814E-01 8.91607E-25
3.57992E-01 8.67159E-25
3.62181E-01 8.43491E-25
3.66381E-01 8.20575E-25
3.70590E-01 7.98382E-25
3.74810E-01 7.76885E-25
3.79039E-01 7.56058E-25
3.83277E-01 7.35876E-25
3.87524E-01 7.16315E-25
3.91780E-01 6.97354E-25
3.96044E-01 6.78970E-25
4.00316E-01 6.61142E-25
4.04596E-01 6.43850E-25
4.08882E-01 6.27076E-25
4.13176E-01 6.10801E-25
4.17476E-01 5.95007E-25
4.21783E-01 5.79679E-25
4.26095E-01 5.64798E-25
4.30413E-01 5.50351E-25
4.34737E-01 5.36322E-25
4.39065E-01 5.22697E-25
4.43398E-01 5.09463E-25
4.47736E-01 4.96605E-25
4.52077E-01 4.84112E-25
4.56422E-01 4.71971E-25
4.60770E-01 4.60171E-25
4.65122E-01 4.48700E-25
4.69476E-01 4.37548E-25
4.73832E-01 4.26704E-25
4.78190E-01 4.16158E-25
4.82550E-01 4.05901E-25
4.86912E-01 3.95923E-25
4.91274E-01 3.86215E-25
4.95637E-01 3.76769E-25
5.00000E-01 3.67577E-25
5.04363E-01 3.58631E-25
5.08726E-01 3.49922E-25
5.13088E-01 3.41444E-25
5.17450E-01 3.33190E-25
5.21810E-01 3.25152E-25
5.26168E-01 3.17324E-25
5.30524E-01 3.09699E-25
5.34878E-01 3.02272E-25
5.39230E-01 2.95036E-25
5.43578E-01 2.87986E-25
5.47923E-01 2.81116E-25
5.52264E-01 2.74421E-25
5.56602E-01 2.67896E-25
5.60935E-01 2.61535E-25
5.65263E-01 2.55334E-25
5.69587E-01 2.49289E-25
5.73905E-01 2.43394E-25
5.78217E-01 2.37645E-25
5.82524E-01 2.32039E-25
5.86824E-01 2.26570E-25
5.91118E-01 2.21236E-25
5.95404E-01 2.16032E-25
5.99684E-01 2.10955E-25
6.03956E-01 2.06002E-25
6.08220E-01 2.01167E-25
6.12476E-01 1.96450E-25
6.16723E-01 1.91845E-25
6.20961E-01 1.87351E-25
6.25190E-01 1.82963E-25
6.29410E-01 1.78680E-25
6.33619E-01 1.74498E-25
6.37819E-01 1.70415E-25
6.42008E-01 1.66428E-25
6.46186E-01 1.62534E-25
6.50353E-01 1.58730E-25
6.54508E-01 1.55016E-25
6.58652E-01 1.51387E-25
6.62784E-01 1.47843E-25
6.66903E-01 1.44380E-25
6.71010E-01 1.40996E-25
6.75104E-01 1.37690E-25
6.79184E-01 1.34460E-25
6.83251E-01 1.31303E-25
6.87303E-01 1.28218E-25
6.91342E-01 1.25202E-25
6.95366E-01 1.22255E-25
6.99375E-01 1.19374E-25
7.03368E-01 1.16557E-25
7.07347E-01 1.13804E-25
7.11309E-01 1.11112E-25
7.15256E-01 1.08480E-25
7.19186E-01 1.05906E-25
7.23099E-01 1.03390E-25
7.26995E-01 1.00929E-25
7.30874E-01 9.85221E-26
7.34736E-01 9.61684E-26
7.38579E-01 9.38663E-26
7.42405E-01 9.16147E-26
7.46212E-01 8.94122E-26
7.50000E-01 8.72577E-26
7.53769E-01 8.51502E-26
7.57519E-01 8.30884E-26
7.61249E-01 8.10713E-26
7.64960E-01 7.90978E-26
7.68650E-01 7.71669E-26
7.72320E-01 7.52777E-26
7.75968E-01 7.34291E-26
7.79596E-01 7.16202E-26
7.83203E-01 6.98502E-26
7.86788E-01 6.81180E-26
7.90351E-01 6.64230E-26
7.93893E-01 6.47641E-26
7.97411E-01 6.31406E-26
8.00908E-01 6.15517E-26
8.04381E-01 5.99967E-26
8.07831E-01 5.84747E-26
8.11257E-01 5.69851E-26
8.14660E-01 5.55270E-26
8.18039E-01 5.41000E-26
8.21394E-01 5.27031E-26
8.24724E-01 5.13359E-26
8.28030E-01 4.99976E-26
8.31310E-01 4.86877E-26
8.34565E-01 4.74055E-26
8.37795E-01 4.61504E-26
8.40999E-01 4.49219E-26
8.44177E-01 4.37193E-26
8.47329E-01 4.25423E-26
8.50455E-01 4.13901E-26
8.53553E-01 4.02624E-26
8.56625E-01 3.91585E-26
8.59670E-01 3.80781E-26
8.62687E-01 3.70206E-26
8.65677E-01 3.59855E-26
8.68639E-01 3.49725E-26
8.71572E-01 3.39810E-26
8.74478E-01 3.30106E-26
8.77355E-01 3.20610E-26
8.80203E-01 3.11317E-26
8.83022E-01 3.02223E-26
8.85812E-01 2.93324E-26
8.88573E-01 2.84616E-26
8.91304E-01 2.76097E-26
8.94005E-01 2.67761E-26
8.96677E-01 2.59606E-26
8.99318E-01 2.51629E-26
9.01928E-01 2.43825E-26
9.04508E-01 2.36192E-26
9.07058E-01 2.28726E-26
9.09576E-01 2.21426E-26
9.12063E-01 2.14286E-26
9.14519E-01 2.07305E-26
9.16943E-01 2.00480E-26
9.19335E-01 1.93808E-26
9.21696E-01 1.87287E-26
9.24024E-01 1.80913E-26
9.26320E-01 1.74684E-26
9.28584E-01 1.68598E-26
9.30815E-01 1.62652E-26
9.33013E-01 1.56844E-26
9.35178E-01 1.51172E-26
9.37310E-01 1.45633E-26
9.39409E-01 1.40226E-26
9.41474E-01 1.34947E-26
9.43505E-01 1.29796E-26
9.45503E-01 1.24769E-26
9.47467E-01 1.19866E-26
9.49397E-01 1.15084E-26
9.51293E-01 1.10422E-26
9.53154E-01 1.05877E-26
9.54981E-01 1.01448E-26
9.56773E-01 9.71329E-27
9.58530E-01 9.29307E-27
9.60252E-01 8.88394E-27
9.61940E-01 8.48575E-27
9.63592E-01 8.09836E-27
9.65209E-01 7.72162E-27
9.66790E-01 7.35538E-27
9.68336E-01 6.99951E-27
9.69846E-01 6.65388E-27
9.71321E-01 6.31836E-27
9.72759E-01 5.99282E-27
9.74162E-01 5.67715E-27
9.75528E-01 5.37122E-27
9.76858E-01 5.07493E-27
9.78152E-01 4.78817E-27
9.79410E-01 4.51082E-27
9.80631E-01 4.24280E-27
9.81815E-01 3.98399E-27
9.82963E-01 3.73431E-27
9.84074E-01 3.49367E-27
9.85148E-01 3.26198E-27
9.86185E-01 3.03915E-27
9.87185E-01 2.82510E-27
9.88148E-01 2.61976E-27
9.89074E-01 2.42305E-27
9.89962E-01 2.23490E-27
9.90814E-01 2.05525E-27
9.91627E-01 1.88402E-27
9.92404E-01 1.72116E-27
9.93143E-01 1.56661E-27
9.93844E-01 1.42032E-27
9.94508E-01 1.28222E-27
9.95134E-01 1.15228E-27
9.95722E-01 1.03044E-27
9.96273E-01 9.16662E-28
9.96786E-01 8.10907E-28
9.97261E-01 7.13136E-28
9.97698E-01 6.23313E-28
9.98097E-01 5.41408E-28
9.98459E-01 4.67390E-28
9.98782E-01 4.01234E-28
9.99067E-01 3.42917E-28
9.99315E-01 2.92416E-28
9.99524E-01 2.49716E-28
9.99695E-01 2.14799E-28
9.99829E-01 1.87655E-28
9.99924E-01 1.68273E-28
9.99981E-01 1.56646E-28
1.00000E+00 1.52771E-28
