 #
 # Subroutine ELSEPA. Elastic scattering of electrons and positrons
 #                    by neutral atoms and positive ions
 #
 # Projectile: electron
 # Kinetic energy = 6.00000E+07 eV = 2.20496E+06 a.u.
 #
 # WARNING: High-energy factorization with free-atom DF screening.
 #          Absorption, polarization and exchange corrections are
 #          switched off.
 #          Phase shifts are calculated for the bare nucleus.
 #          Scattering amplitudes are not evaluated.
 #
 # Element: Ba,  Z =  56,  atomic weight = 1.37327E+02 g/mol
 #
 # Nuclear model: Fermi distribution
 #                Average radius = 5.52038E-13 cm
 #                Skin thickness = 5.46000E-14 cm
 #
 # Number of electrons = 56
 #
 # Total elastic cross section = 7.24757E-18 cm**2 = 2.58815E-01 a0**2
 # 1st transport cross section = 1.68011E-24 cm**2 = 5.99977E-08 a0**2
 # 2nd transport cross section = 4.95132E-24 cm**2 = 1.76815E-07 a0**2
 #
 #
 # Differential cross section:                       MU=(1-COS(THETA))/2
 #
 #  THETA        MU          DCS          DCS        Sherman      error
 #  (deg)                 (cm**2/sr)   (a0**2/sr)    function
 #----------------------------------------------------------------------
0.00000E+00 4.54222E-10
7.61557E-13 4.53187E-10
1.18994E-12 4.52607E-10
1.71346E-12 4.51900E-10
2.33225E-12 4.51067E-10
3.04617E-12 4.50109E-10
3.85530E-12 4.49027E-10
4.75964E-12 4.47823E-10
5.75917E-12 4.46499E-10
6.85391E-12 4.45055E-10
8.04379E-12 4.43494E-10
9.32893E-12 4.41819E-10
1.07092E-11 4.40030E-10
1.21847E-11 4.38131E-10
1.37554E-11 4.36123E-10
1.54213E-11 4.34010E-10
1.71823E-11 4.31794E-10
1.90386E-11 4.29478E-10
2.09900E-11 4.27064E-10
2.30367E-11 4.24556E-10
2.51785E-11 4.21957E-10
2.74156E-11 4.19269E-10
2.97478E-11 4.16496E-10
3.21752E-11 4.13641E-10
3.46979E-11 4.10707E-10
3.73157E-11 4.07698E-10
4.00286E-11 4.04617E-10
4.28368E-11 4.01467E-10
4.57402E-11 3.98252E-10
4.87388E-11 3.94976E-10
5.18325E-11 3.91641E-10
5.50215E-11 3.88251E-10
5.83057E-11 3.84810E-10
6.16850E-11 3.81320E-10
6.51595E-11 3.77828E-10
6.87293E-11 3.74300E-10
7.23943E-11 3.70722E-10
7.61544E-11 3.67094E-10
1.18991E-10 3.29436E-10
1.71347E-10 2.91490E-10
2.33223E-10 2.55423E-10
3.04617E-10 2.22586E-10
3.85531E-10 1.93609E-10
4.75965E-10 1.68622E-10
5.75917E-10 1.47413E-10
6.85389E-10 1.29470E-10
8.04380E-10 1.14327E-10
9.32891E-10 1.01531E-10
1.07092E-09 9.06701E-11
1.21847E-09 8.13959E-11
1.37554E-09 7.34179E-11
1.54213E-09 6.65009E-11
1.71823E-09 6.04567E-11
1.90386E-09 5.51339E-11
2.09900E-09 5.04122E-11
2.30367E-09 4.62003E-11
2.51785E-09 4.24244E-11
2.74156E-09 3.90252E-11
2.97478E-09 3.59544E-11
3.21752E-09 3.31721E-11
3.46978E-09 3.06454E-11
3.73156E-09 2.83461E-11
4.00286E-09 2.62504E-11
4.28368E-09 2.43348E-11
4.57402E-09 2.25841E-11
4.87388E-09 2.09832E-11
5.18326E-09 1.95179E-11
5.50215E-09 1.81755E-11
5.83057E-09 1.69446E-11
6.16850E-09 1.58149E-11
6.51596E-09 1.47344E-11
6.87293E-09 1.37396E-11
7.23942E-09 1.28399E-11
7.61544E-09 1.20246E-11
1.18991E-08 6.69261E-12
1.71347E-08 4.04503E-12
2.33223E-08 2.58767E-12
3.04617E-08 1.72229E-12
3.85531E-08 1.18305E-12
4.75965E-08 8.35904E-13
5.75917E-08 6.06676E-13
6.85389E-08 4.51963E-13
8.04380E-08 3.44732E-13
9.32891E-08 2.68432E-13
1.07092E-07 2.12755E-13
1.21847E-07 1.71172E-13
1.37554E-07 1.39463E-13
1.54213E-07 1.14880E-13
1.71823E-07 9.54312E-14
1.90386E-07 7.98909E-14
2.09900E-07 6.73566E-14
2.30367E-07 5.71592E-14
2.51785E-07 4.87907E-14
2.74156E-07 4.18701E-14
2.97478E-07 3.61090E-14
3.21752E-07 3.12861E-14
3.46978E-07 2.72289E-14
3.73156E-07 2.38009E-14
4.00286E-07 2.08919E-14
4.28368E-07 1.84116E-14
4.57402E-07 1.62882E-14
4.87388E-07 1.44623E-14
5.18325E-07 1.28854E-14
5.50215E-07 1.15178E-14
5.83057E-07 1.03273E-14
6.16850E-07 9.28729E-15
6.51596E-07 8.37314E-15
6.87293E-07 7.57044E-15
7.23942E-07 6.86453E-15
7.61543E-07 6.24095E-15
1.18991E-06 2.68022E-15
1.71347E-06 1.33652E-15
2.33223E-06 7.38368E-16
3.04617E-06 4.39907E-16
3.85531E-06 2.77848E-16
4.75964E-06 1.83911E-16
5.75916E-06 1.26497E-16
6.85388E-06 8.98342E-17
8.04378E-06 6.55438E-17
9.32888E-06 4.89395E-17
1.07092E-05 3.72792E-17
1.21846E-05 2.88963E-17
1.37553E-05 2.27443E-17
1.54212E-05 1.81468E-17
1.71822E-05 1.46552E-17
1.90385E-05 1.19606E-17
2.09899E-05 9.86525E-18
2.30365E-05 8.20859E-18
2.51783E-05 6.88438E-18
2.74153E-05 5.81579E-18
2.97475E-05 4.94623E-18
3.21749E-05 4.23322E-18
3.46974E-05 3.64441E-18
3.73152E-05 3.15482E-18
4.00281E-05 2.74499E-18
4.28362E-05 2.39970E-18
4.57395E-05 2.10702E-18
4.87380E-05 1.85755E-18
5.18317E-05 1.64384E-18
5.50205E-05 1.45993E-18
5.83045E-05 1.30100E-18
6.16838E-05 1.16312E-18
6.51582E-05 1.04307E-18
6.87277E-05 9.38144E-19
7.23925E-05 8.46110E-19
7.61524E-05 7.65405E-19
9.21439E-05 5.23925E-19
1.09658E-04 3.70600E-19
1.28695E-04 2.69521E-19
1.49255E-04 2.00670E-19
1.71338E-04 1.52487E-19
1.94942E-04 1.17943E-19
2.20070E-04 9.26576E-20
2.46720E-04 7.38066E-20
2.74892E-04 5.95189E-20
3.04586E-04 4.85320E-20
3.35803E-04 3.99699E-20
3.68542E-04 3.32184E-20
4.02802E-04 2.78361E-20
4.38585E-04 2.35028E-20
4.75889E-04 1.99824E-20
5.14715E-04 1.70982E-20
5.55063E-04 1.47172E-20
5.96931E-04 1.27375E-20
6.40321E-04 1.10804E-20
6.85233E-04 9.68485E-21
7.31665E-04 8.50278E-21
7.79618E-04 7.49612E-21
8.29092E-04 6.63449E-21
8.80086E-04 5.89352E-21
9.32601E-04 5.25345E-21
9.86636E-04 4.69819E-21
1.04219E-03 4.21463E-21
1.09927E-03 3.79189E-21
1.15786E-03 3.42100E-21
1.21797E-03 3.09453E-21
1.27961E-03 2.80621E-21
1.34276E-03 2.55081E-21
1.40743E-03 2.32393E-21
1.47362E-03 2.12180E-21
1.54133E-03 1.94125E-21
1.61056E-03 1.77958E-21
1.68131E-03 1.63445E-21
1.75357E-03 1.50388E-21
1.82735E-03 1.38614E-21
1.90265E-03 1.27974E-21
1.97947E-03 1.18340E-21
2.05780E-03 1.09600E-21
2.13765E-03 1.01654E-21
2.21902E-03 9.44190E-22
2.30190E-03 8.78190E-22
2.38630E-03 8.17878E-22
2.47222E-03 7.62681E-22
2.55965E-03 7.12081E-22
2.64859E-03 6.65624E-22
2.73905E-03 6.22916E-22
2.83103E-03 5.83587E-22
2.92452E-03 5.47333E-22
3.01952E-03 5.13859E-22
3.11604E-03 4.82918E-22
3.21407E-03 4.54282E-22
3.31362E-03 4.27745E-22
3.41468E-03 4.03127E-22
3.51725E-03 3.80262E-22
3.62133E-03 3.59003E-22
3.72692E-03 3.39215E-22
3.83403E-03 3.20778E-22
3.94265E-03 3.03582E-22
4.05278E-03 2.87528E-22
4.16442E-03 2.72526E-22
4.27757E-03 2.58494E-22
4.39223E-03 2.45357E-22
4.50840E-03 2.33048E-22
4.62608E-03 2.21504E-22
4.74527E-03 2.10669E-22
4.86597E-03 2.00491E-22
4.98817E-03 1.90923E-22
5.11188E-03 1.81922E-22
5.23711E-03 1.73447E-22
5.36383E-03 1.65461E-22
5.49207E-03 1.57932E-22
5.62181E-03 1.50827E-22
5.75306E-03 1.44120E-22
5.88581E-03 1.37782E-22
6.02007E-03 1.31790E-22
6.15583E-03 1.26121E-22
6.29310E-03 1.20754E-22
6.43187E-03 1.15671E-22
6.57214E-03 1.10854E-22
6.71392E-03 1.06285E-22
6.85720E-03 1.01950E-22
7.00198E-03 9.78345E-23
7.14827E-03 9.39251E-23
7.29605E-03 9.02096E-23
7.44534E-03 8.66764E-23
7.59612E-03 8.33150E-23
7.97965E-03 7.55990E-23
8.37255E-03 6.87576E-23
8.77480E-03 6.26741E-23
9.18641E-03 5.72496E-23
9.60736E-03 5.24000E-23
1.00376E-02 4.80535E-23
1.04773E-02 4.41486E-23
1.09262E-02 4.06323E-23
1.13844E-02 3.74591E-23
1.18520E-02 3.45893E-23
1.23288E-02 3.19887E-23
1.28150E-02 2.96276E-23
1.33104E-02 2.74798E-23
1.38150E-02 2.55226E-23
1.43290E-02 2.37360E-23
1.48521E-02 2.21024E-23
1.53845E-02 2.06063E-23
1.59262E-02 1.92341E-23
1.64770E-02 1.79735E-23
1.70371E-02 1.68139E-23
1.76063E-02 1.57457E-23
1.81848E-02 1.47604E-23
1.87724E-02 1.38503E-23
1.93692E-02 1.30087E-23
1.99751E-02 1.22294E-23
2.05901E-02 1.15070E-23
2.12143E-02 1.08366E-23
2.18476E-02 1.02138E-23
2.24900E-02 9.63454E-24
2.31415E-02 9.09523E-24
2.38021E-02 8.59261E-24
2.44717E-02 8.12374E-24
2.51504E-02 7.68592E-24
2.58382E-02 7.27674E-24
2.65349E-02 6.89397E-24
2.72407E-02 6.53559E-24
2.79555E-02 6.19978E-24
2.86793E-02 5.88484E-24
2.94120E-02 5.58924E-24
3.01537E-02 5.31159E-24
3.09043E-02 5.05059E-24
3.16639E-02 4.80507E-24
3.24324E-02 4.57393E-24
3.32098E-02 4.35619E-24
3.39961E-02 4.15092E-24
3.47912E-02 3.95729E-24
3.55952E-02 3.77451E-24
3.64081E-02 3.60186E-24
3.72297E-02 3.43870E-24
3.80602E-02 3.28439E-24
3.88995E-02 3.13837E-24
3.97476E-02 3.00013E-24
4.06044E-02 2.86916E-24
4.14700E-02 2.74503E-24
4.23443E-02 2.62730E-24
4.32273E-02 2.51560E-24
4.41190E-02 2.40955E-24
4.50194E-02 2.30882E-24
4.59284E-02 2.21310E-24
4.68461E-02 2.12210E-24
4.87074E-02 1.95316E-24
5.06030E-02 1.80003E-24
5.25328E-02 1.66099E-24
5.44967E-02 1.53454E-24
5.64946E-02 1.41935E-24
5.85262E-02 1.31425E-24
6.05914E-02 1.21822E-24
6.26901E-02 1.13035E-24
6.48222E-02 1.04985E-24
6.69873E-02 9.75982E-25
6.91854E-02 9.08129E-25
7.14163E-02 8.45723E-25
7.36799E-02 7.88258E-25
7.59760E-02 7.35284E-25
7.83043E-02 6.86395E-25
8.06647E-02 6.41231E-25
8.30571E-02 5.99464E-25
8.54812E-02 5.60802E-25
8.79369E-02 5.24979E-25
9.04240E-02 4.91758E-25
9.29422E-02 4.60921E-25
9.54915E-02 4.32273E-25
9.80716E-02 4.05637E-25
1.00682E-01 3.80852E-25
1.03323E-01 3.57772E-25
1.05995E-01 3.36263E-25
1.08696E-01 3.16203E-25
1.11427E-01 2.97483E-25
1.14188E-01 2.80000E-25
1.16978E-01 2.63662E-25
1.19797E-01 2.48385E-25
1.22645E-01 2.34091E-25
1.25522E-01 2.20709E-25
1.28428E-01 2.08173E-25
1.31361E-01 1.96423E-25
1.34323E-01 1.85403E-25
1.37313E-01 1.75064E-25
1.40330E-01 1.65358E-25
1.43375E-01 1.56242E-25
1.46447E-01 1.47675E-25
1.49545E-01 1.39622E-25
1.52671E-01 1.32047E-25
1.55823E-01 1.24919E-25
1.59001E-01 1.18210E-25
1.62205E-01 1.11891E-25
1.65435E-01 1.05938E-25
1.68690E-01 1.00327E-25
1.71970E-01 9.50367E-26
1.75276E-01 9.00469E-26
1.78606E-01 8.53388E-26
1.81961E-01 8.08951E-26
1.85340E-01 7.66993E-26
1.88743E-01 7.27365E-26
1.92169E-01 6.89925E-26
1.95619E-01 6.54540E-26
1.99092E-01 6.21090E-26
2.02589E-01 5.89457E-26
2.06107E-01 5.59536E-26
2.09649E-01 5.31225E-26
2.13212E-01 5.04432E-26
2.16797E-01 4.79068E-26
2.20404E-01 4.55050E-26
2.24032E-01 4.32303E-26
2.27680E-01 4.10753E-26
2.31350E-01 3.90333E-26
2.35040E-01 3.70980E-26
2.38751E-01 3.52633E-26
2.42481E-01 3.35237E-26
2.46231E-01 3.18739E-26
2.50000E-01 3.03090E-26
2.53788E-01 2.88243E-26
2.57595E-01 2.74154E-26
2.61421E-01 2.60783E-26
2.65264E-01 2.48090E-26
2.69126E-01 2.36039E-26
2.73005E-01 2.24596E-26
2.76901E-01 2.13728E-26
2.80814E-01 2.03405E-26
2.84744E-01 1.93598E-26
2.88691E-01 1.84280E-26
2.92653E-01 1.75426E-26
2.96632E-01 1.67010E-26
3.00625E-01 1.59011E-26
3.04634E-01 1.51406E-26
3.08658E-01 1.44176E-26
3.12697E-01 1.37300E-26
3.16749E-01 1.30762E-26
3.20816E-01 1.24543E-26
3.24896E-01 1.18628E-26
3.28990E-01 1.13001E-26
3.33097E-01 1.07647E-26
3.37216E-01 1.02553E-26
3.41348E-01 9.77059E-27
3.45492E-01 9.30928E-27
3.49647E-01 8.87022E-27
3.53814E-01 8.45232E-27
3.57992E-01 8.05451E-27
3.62181E-01 7.67580E-27
3.66381E-01 7.31524E-27
3.70590E-01 6.97195E-27
3.74810E-01 6.64506E-27
3.79039E-01 6.33379E-27
3.83277E-01 6.03735E-27
3.87524E-01 5.75503E-27
3.91780E-01 5.48614E-27
3.96044E-01 5.23002E-27
4.00316E-01 4.98605E-27
4.04596E-01 4.75366E-27
4.08882E-01 4.53226E-27
4.13176E-01 4.32134E-27
4.17476E-01 4.12039E-27
4.21783E-01 3.92893E-27
4.26095E-01 3.74650E-27
4.30413E-01 3.57267E-27
4.34737E-01 3.40702E-27
4.39065E-01 3.24918E-27
4.43398E-01 3.09875E-27
4.47736E-01 2.95540E-27
4.52077E-01 2.81878E-27
4.56422E-01 2.68858E-27
4.60770E-01 2.56448E-27
4.65122E-01 2.44619E-27
4.69476E-01 2.33346E-27
4.73832E-01 2.22600E-27
4.78190E-01 2.12357E-27
4.82550E-01 2.02593E-27
4.86912E-01 1.93285E-27
4.91274E-01 1.84413E-27
4.95637E-01 1.75956E-27
5.00000E-01 1.67893E-27
5.04363E-01 1.60206E-27
5.08726E-01 1.52879E-27
5.13088E-01 1.45893E-27
5.17450E-01 1.39233E-27
5.21810E-01 1.32883E-27
5.26168E-01 1.26829E-27
5.30524E-01 1.21057E-27
5.34878E-01 1.15554E-27
5.39230E-01 1.10307E-27
5.43578E-01 1.05305E-27
5.47923E-01 1.00535E-27
5.52264E-01 9.59863E-28
5.56602E-01 9.16496E-28
5.60935E-01 8.75144E-28
5.65263E-01 8.35713E-28
5.69587E-01 7.98113E-28
5.73905E-01 7.62259E-28
5.78217E-01 7.28069E-28
5.82524E-01 6.95465E-28
5.86824E-01 6.64373E-28
5.91118E-01 6.34723E-28
5.95404E-01 6.06446E-28
5.99684E-01 5.79479E-28
6.03956E-01 5.53760E-28
6.08220E-01 5.29231E-28
6.12476E-01 5.05837E-28
6.16723E-01 4.83524E-28
6.20961E-01 4.62241E-28
6.25190E-01 4.41941E-28
6.29410E-01 4.22578E-28
6.33619E-01 4.04107E-28
6.37819E-01 3.86488E-28
6.42008E-01 3.69679E-28
6.46186E-01 3.53644E-28
6.50353E-01 3.38345E-28
6.54508E-01 3.23749E-28
6.58652E-01 3.09822E-28
6.62784E-01 2.96534E-28
6.66903E-01 2.83854E-28
6.71010E-01 2.71754E-28
6.75104E-01 2.60206E-28
6.79184E-01 2.49184E-28
6.83251E-01 2.38665E-28
6.87303E-01 2.28624E-28
6.91342E-01 2.19039E-28
6.95366E-01 2.09889E-28
6.99375E-01 2.01153E-28
7.03368E-01 1.92811E-28
7.07347E-01 1.84846E-28
7.11309E-01 1.77239E-28
7.15256E-01 1.69974E-28
7.19186E-01 1.63035E-28
7.23099E-01 1.56405E-28
7.26995E-01 1.50072E-28
7.30874E-01 1.44020E-28
7.34736E-01 1.38237E-28
7.38579E-01 1.32710E-28
7.42405E-01 1.27427E-28
7.46212E-01 1.22377E-28
7.50000E-01 1.17548E-28
7.53769E-01 1.12930E-28
7.57519E-01 1.08513E-28
7.61249E-01 1.04288E-28
7.64960E-01 1.00246E-28
7.68650E-01 9.63786E-29
7.72320E-01 9.26769E-29
7.75968E-01 8.91334E-29
7.79596E-01 8.57408E-29
7.83203E-01 8.24920E-29
7.86788E-01 7.93803E-29
7.90351E-01 7.63992E-29
7.93893E-01 7.35427E-29
7.97411E-01 7.08049E-29
8.00908E-01 6.81804E-29
8.04381E-01 6.56638E-29
8.07831E-01 6.32501E-29
8.11257E-01 6.09346E-29
8.14660E-01 5.87127E-29
8.18039E-01 5.65800E-29
8.21394E-01 5.45325E-29
8.24724E-01 5.25662E-29
8.28030E-01 5.06774E-29
8.31310E-01 4.88626E-29
8.34565E-01 4.71183E-29
8.37795E-01 4.54413E-29
8.40999E-01 4.38285E-29
8.44177E-01 4.22771E-29
8.47329E-01 4.07843E-29
8.50455E-01 3.93474E-29
8.53553E-01 3.79639E-29
8.56625E-01 3.66314E-29
8.59670E-01 3.53476E-29
8.62687E-01 3.41105E-29
8.65677E-01 3.29178E-29
8.68639E-01 3.17677E-29
8.71572E-01 3.06583E-29
8.74478E-01 2.95879E-29
8.77355E-01 2.85547E-29
8.80203E-01 2.75571E-29
8.83022E-01 2.65936E-29
8.85812E-01 2.56629E-29
8.88573E-01 2.47634E-29
8.91304E-01 2.38939E-29
8.94005E-01 2.30532E-29
8.96677E-01 2.22400E-29
8.99318E-01 2.14533E-29
9.01928E-01 2.06919E-29
9.04508E-01 1.99549E-29
9.07058E-01 1.92413E-29
9.09576E-01 1.85502E-29
9.12063E-01 1.78806E-29
9.14519E-01 1.72319E-29
9.16943E-01 1.66031E-29
9.19335E-01 1.59936E-29
9.21696E-01 1.54026E-29
9.24024E-01 1.48295E-29
9.26320E-01 1.42737E-29
9.28584E-01 1.37344E-29
9.30815E-01 1.32112E-29
9.33013E-01 1.27035E-29
9.35178E-01 1.22107E-29
9.37310E-01 1.17325E-29
9.39409E-01 1.12682E-29
9.41474E-01 1.08175E-29
9.43505E-01 1.03800E-29
9.45503E-01 9.95518E-30
9.47467E-01 9.54275E-30
9.49397E-01 9.14232E-30
9.51293E-01 8.75356E-30
9.53154E-01 8.37613E-30
9.54981E-01 8.00973E-30
9.56773E-01 7.65407E-30
9.58530E-01 7.30888E-30
9.60252E-01 6.97388E-30
9.61940E-01 6.64882E-30
9.63592E-01 6.33348E-30
9.65209E-01 6.02763E-30
9.66790E-01 5.73106E-30
9.68336E-01 5.44356E-30
9.69846E-01 5.16495E-30
9.71321E-01 4.89504E-30
9.72759E-01 4.63366E-30
9.74162E-01 4.38066E-30
9.75528E-01 4.13587E-30
9.76858E-01 3.89916E-30
9.78152E-01 3.67038E-30
9.79410E-01 3.44941E-30
9.80631E-01 3.23613E-30
9.81815E-01 3.03041E-30
9.82963E-01 2.83215E-30
9.84074E-01 2.64124E-30
9.85148E-01 2.45759E-30
9.86185E-01 2.28111E-30
9.87185E-01 2.11170E-30
9.88148E-01 1.94928E-30
9.89074E-01 1.79379E-30
9.89962E-01 1.64514E-30
9.90814E-01 1.50327E-30
9.91627E-01 1.36811E-30
9.92404E-01 1.23961E-30
9.93143E-01 1.11770E-30
9.93844E-01 1.00234E-30
9.94508E-01 8.93471E-31
9.95134E-01 7.91055E-31
9.95722E-01 6.95047E-31
9.96273E-01 6.05407E-31
9.96786E-01 5.22101E-31
9.97261E-01 4.45093E-31
9.97698E-01 3.74355E-31
9.98097E-01 3.09858E-31
9.98459E-01 2.51577E-31
9.98782E-01 1.99490E-31
9.99067E-01 1.53577E-31
9.99315E-01 1.13821E-31
9.99524E-01 8.02055E-32
9.99695E-01 5.27194E-32
9.99829E-01 3.13519E-32
9.99924E-01 1.60951E-32
9.99981E-01 6.94325E-33
1.00000E+00 3.89300E-33
