 #
 # Subroutine ELSEPA. Elastic scattering of electrons and positrons
 #                    by neutral atoms and positive ions
 #
 # Projectile: electron
 # Kinetic energy = 6.00000E+06 eV = 2.20496E+05 a.u.
 #
 # WARNING: High-energy factorization with free-atom DF screening.
 #          Absorption, polarization and exchange corrections are
 #          switched off.
 #          Phase shifts are calculated for the bare nucleus.
 #          Scattering amplitudes are not evaluated.
 #
 # Element: Pa,  Z =  91,  atomic weight = 2.31036E+02 g/mol
 #
 # Nuclear model: Fermi distribution
 #                Average radius = 6.56564E-13 cm
 #                Skin thickness = 5.46000E-14 cm
 #
 # Number of electrons = 91
 #
 # Total elastic cross section = 1.17767E-17 cm**2 = 4.20553E-01 a0**2
 # 1st transport cross section = 3.41647E-22 cm**2 = 1.22004E-05 a0**2
 # 2nd transport cross section = 9.04995E-22 cm**2 = 3.23180E-05 a0**2
 #
 #
 # Differential cross section:                       MU=(1-COS(THETA))/2
 #
 #  THETA        MU          DCS          DCS        Sherman      error
 #  (deg)                 (cm**2/sr)   (a0**2/sr)    function
 #----------------------------------------------------------------------
0.00000E+00 5.85550E-12
7.61557E-13 5.85539E-12
1.18994E-12 5.85533E-12
1.71346E-12 5.85526E-12
2.33225E-12 5.85518E-12
3.04617E-12 5.85508E-12
3.85530E-12 5.85497E-12
4.75964E-12 5.85485E-12
5.75917E-12 5.85471E-12
6.85391E-12 5.85456E-12
8.04379E-12 5.85440E-12
9.32893E-12 5.85422E-12
1.07092E-11 5.85404E-12
1.21847E-11 5.85384E-12
1.37554E-11 5.85362E-12
1.54213E-11 5.85340E-12
1.71823E-11 5.85316E-12
1.90386E-11 5.85290E-12
2.09900E-11 5.85264E-12
2.30367E-11 5.85236E-12
2.51785E-11 5.85207E-12
2.74156E-11 5.85176E-12
2.97478E-11 5.85145E-12
3.21752E-11 5.85111E-12
3.46979E-11 5.85077E-12
3.73157E-11 5.85042E-12
4.00286E-11 5.85005E-12
4.28368E-11 5.84966E-12
4.57402E-11 5.84927E-12
4.87388E-11 5.84886E-12
5.18325E-11 5.84844E-12
5.50215E-11 5.84801E-12
5.83057E-11 5.84756E-12
6.16850E-11 5.84710E-12
6.51595E-11 5.84663E-12
6.87293E-11 5.84615E-12
7.23943E-11 5.84565E-12
7.61544E-11 5.84514E-12
1.18991E-10 5.83933E-12
1.71347E-10 5.83224E-12
2.33223E-10 5.82388E-12
3.04617E-10 5.81426E-12
3.85531E-10 5.80339E-12
4.75965E-10 5.79128E-12
5.75917E-10 5.77794E-12
6.85389E-10 5.76339E-12
8.04380E-10 5.74765E-12
9.32891E-10 5.73073E-12
1.07092E-09 5.71264E-12
1.21847E-09 5.69341E-12
1.37554E-09 5.67306E-12
1.54213E-09 5.65161E-12
1.71823E-09 5.62908E-12
1.90386E-09 5.60550E-12
2.09900E-09 5.58088E-12
2.30367E-09 5.55525E-12
2.51785E-09 5.52864E-12
2.74156E-09 5.50108E-12
2.97478E-09 5.47259E-12
3.21752E-09 5.44319E-12
3.46978E-09 5.41292E-12
3.73156E-09 5.38181E-12
4.00286E-09 5.34988E-12
4.28368E-09 5.31716E-12
4.57402E-09 5.28369E-12
4.87388E-09 5.24949E-12
5.18326E-09 5.21459E-12
5.50215E-09 5.17905E-12
5.83057E-09 5.14298E-12
6.16850E-09 5.10627E-12
6.51596E-09 5.06895E-12
6.87293E-09 5.03105E-12
7.23942E-09 4.99260E-12
7.61544E-09 4.95363E-12
1.18991E-08 4.54424E-12
1.71347E-08 4.11775E-12
2.33223E-08 3.69723E-12
3.04617E-08 3.29879E-12
3.85531E-08 2.93251E-12
4.75965E-08 2.60317E-12
5.75917E-08 2.31169E-12
6.85389E-08 2.05671E-12
8.04380E-08 1.83450E-12
9.32891E-08 1.64138E-12
1.07092E-07 1.47354E-12
1.21847E-07 1.32745E-12
1.37554E-07 1.19982E-12
1.54213E-07 1.08785E-12
1.71823E-07 9.89233E-13
1.90386E-07 9.01993E-13
2.09900E-07 8.24495E-13
2.30367E-07 7.55347E-13
2.51785E-07 6.93283E-13
2.74156E-07 6.37528E-13
2.97478E-07 5.87290E-13
3.21752E-07 5.41900E-13
3.46978E-07 5.00792E-13
3.73156E-07 4.63404E-13
4.00286E-07 4.29376E-13
4.28368E-07 3.98389E-13
4.57402E-07 3.70125E-13
4.87388E-07 3.44309E-13
5.18325E-07 3.20682E-13
5.50215E-07 2.98731E-13
5.83057E-07 2.77646E-13
6.16850E-07 2.58711E-13
6.51596E-07 2.41663E-13
6.87293E-07 2.26274E-13
7.23942E-07 2.12350E-13
7.61543E-07 1.99722E-13
1.18991E-06 1.12800E-13
1.71347E-06 6.87103E-14
2.33223E-06 4.43105E-14
3.04617E-06 2.99271E-14
3.85531E-06 2.09833E-14
4.75964E-06 1.51832E-14
5.75916E-06 1.12821E-14
6.85388E-06 8.56114E-15
8.04378E-06 6.62096E-15
9.32888E-06 5.20238E-15
1.07092E-05 4.14329E-15
1.21846E-05 3.33882E-15
1.37553E-05 2.71941E-15
1.54212E-05 2.23252E-15
1.71822E-05 1.85028E-15
1.90385E-05 1.54609E-15
2.09899E-05 1.30447E-15
2.30365E-05 1.10833E-15
2.51783E-05 9.47310E-16
2.74153E-05 8.14391E-16
2.97475E-05 7.04024E-16
3.21749E-05 6.11906E-16
3.46974E-05 5.34604E-16
3.73152E-05 4.69295E-16
4.00281E-05 4.13787E-16
4.28362E-05 3.66321E-16
4.57395E-05 3.25491E-16
4.87380E-05 2.90190E-16
5.18317E-05 2.59533E-16
5.50205E-05 2.32763E-16
5.83045E-05 2.09260E-16
6.16838E-05 1.88788E-16
6.51582E-05 1.70887E-16
6.87277E-05 1.54918E-16
7.23925E-05 1.40801E-16
7.61524E-05 1.28324E-16
9.21439E-05 9.03264E-17
1.09658E-04 6.54313E-17
1.28695E-04 4.85931E-17
1.49255E-04 3.68567E-17
1.71338E-04 2.84640E-17
1.94942E-04 2.23295E-17
2.20070E-04 1.77569E-17
2.46720E-04 1.42936E-17
2.74892E-04 1.16343E-17
3.04586E-04 9.56490E-18
3.35803E-04 7.93607E-18
3.68542E-04 6.63967E-18
4.02802E-04 5.59753E-18
4.38585E-04 4.75259E-18
4.75889E-04 4.06168E-18
5.14715E-04 3.49235E-18
5.55063E-04 3.01969E-18
5.96931E-04 2.62456E-18
6.40321E-04 2.29220E-18
6.85233E-04 2.01099E-18
7.31665E-04 1.77177E-18
7.79618E-04 1.56717E-18
8.29092E-04 1.39136E-18
8.80086E-04 1.23954E-18
9.32601E-04 1.10792E-18
9.86636E-04 9.93349E-19
1.04219E-03 8.93237E-19
1.09927E-03 8.05447E-19
1.15786E-03 7.28181E-19
1.21797E-03 6.59971E-19
1.27961E-03 5.99573E-19
1.34276E-03 5.45936E-19
1.40743E-03 4.98174E-19
1.47362E-03 4.55524E-19
1.54133E-03 4.17344E-19
1.61056E-03 3.83086E-19
1.68131E-03 3.52277E-19
1.75357E-03 3.24509E-19
1.82735E-03 2.99427E-19
1.90265E-03 2.76725E-19
1.97947E-03 2.56137E-19
2.05780E-03 2.37432E-19
2.13765E-03 2.20408E-19
2.21902E-03 2.04886E-19
2.30190E-03 1.90710E-19
2.38630E-03 1.77741E-19
2.47222E-03 1.65860E-19
2.55965E-03 1.54957E-19
2.64859E-03 1.44939E-19
2.73905E-03 1.35721E-19
2.83103E-03 1.27225E-19
2.92452E-03 1.19387E-19
3.01952E-03 1.12145E-19
3.11604E-03 1.05447E-19
3.21407E-03 9.92434E-20
3.31362E-03 9.34913E-20
3.41468E-03 8.81518E-20
3.51725E-03 8.31899E-20
3.62133E-03 7.85741E-20
3.72692E-03 7.42757E-20
3.83403E-03 7.02688E-20
3.94265E-03 6.65298E-20
4.05278E-03 6.30377E-20
4.16442E-03 5.97731E-20
4.27757E-03 5.67184E-20
4.39223E-03 5.38577E-20
4.50840E-03 5.11761E-20
4.62608E-03 4.86605E-20
4.74527E-03 4.62986E-20
4.86597E-03 4.40793E-20
4.98817E-03 4.19924E-20
5.11188E-03 4.00284E-20
5.23711E-03 3.81788E-20
5.36383E-03 3.64355E-20
5.49207E-03 3.47913E-20
5.62181E-03 3.32397E-20
5.75306E-03 3.17744E-20
5.88581E-03 3.03895E-20
6.02007E-03 2.90801E-20
6.15583E-03 2.78409E-20
6.29310E-03 2.66678E-20
6.43187E-03 2.55562E-20
6.57214E-03 2.45027E-20
6.71392E-03 2.35032E-20
6.85720E-03 2.25548E-20
7.00198E-03 2.16541E-20
7.14827E-03 2.07986E-20
7.29605E-03 1.99852E-20
7.44534E-03 1.92117E-20
7.59612E-03 1.84756E-20
7.97965E-03 1.67855E-20
8.37255E-03 1.52864E-20
8.77480E-03 1.39529E-20
9.18641E-03 1.27633E-20
9.60736E-03 1.16995E-20
1.00376E-02 1.07456E-20
1.04773E-02 9.88835E-21
1.09262E-02 9.11611E-21
1.13844E-02 8.41893E-21
1.18520E-02 7.78814E-21
1.23288E-02 7.21630E-21
1.28150E-02 6.69688E-21
1.33104E-02 6.22419E-21
1.38150E-02 5.79324E-21
1.43290E-02 5.39965E-21
1.48521E-02 5.03958E-21
1.53845E-02 4.70965E-21
1.59262E-02 4.40685E-21
1.64770E-02 4.12854E-21
1.70371E-02 3.87235E-21
1.76063E-02 3.63620E-21
1.81848E-02 3.41821E-21
1.87724E-02 3.21673E-21
1.93692E-02 3.03027E-21
1.99751E-02 2.85748E-21
2.05901E-02 2.69718E-21
2.12143E-02 2.54828E-21
2.18476E-02 2.40982E-21
2.24900E-02 2.28092E-21
2.31415E-02 2.16080E-21
2.38021E-02 2.04873E-21
2.44717E-02 1.94407E-21
2.51504E-02 1.84624E-21
2.58382E-02 1.75470E-21
2.65349E-02 1.66896E-21
2.72407E-02 1.58859E-21
2.79555E-02 1.51318E-21
2.86793E-02 1.44237E-21
2.94120E-02 1.37581E-21
3.01537E-02 1.31320E-21
3.09043E-02 1.25426E-21
3.16639E-02 1.19872E-21
3.24324E-02 1.14636E-21
3.32098E-02 1.09696E-21
3.39961E-02 1.05030E-21
3.47912E-02 1.00621E-21
3.55952E-02 9.64523E-22
3.64081E-02 9.25073E-22
3.72297E-02 8.87717E-22
3.80602E-02 8.52321E-22
3.88995E-02 8.18762E-22
3.97476E-02 7.86920E-22
4.06044E-02 7.56694E-22
4.14700E-02 7.27982E-22
4.23443E-02 7.00692E-22
4.32273E-02 6.74740E-22
4.41190E-02 6.50044E-22
4.50194E-02 6.26533E-22
4.59284E-02 6.04135E-22
4.68461E-02 5.82788E-22
4.87074E-02 5.43010E-22
5.06030E-02 5.06764E-22
5.25328E-02 4.73671E-22
5.44967E-02 4.43401E-22
5.64946E-02 4.15662E-22
5.85262E-02 3.90197E-22
6.05914E-02 3.66781E-22
6.26901E-02 3.45212E-22
6.48222E-02 3.25315E-22
6.69873E-02 3.06930E-22
6.91854E-02 2.89919E-22
7.14163E-02 2.74155E-22
7.36799E-02 2.59527E-22
7.59760E-02 2.45935E-22
7.83043E-02 2.33288E-22
8.06647E-02 2.21507E-22
8.30571E-02 2.10518E-22
8.54812E-02 2.00255E-22
8.79369E-02 1.90660E-22
9.04240E-02 1.81680E-22
9.29422E-02 1.73264E-22
9.54915E-02 1.65371E-22
9.80716E-02 1.57959E-22
1.00682E-01 1.50992E-22
1.03323E-01 1.44437E-22
1.05995E-01 1.38263E-22
1.08696E-01 1.32444E-22
1.11427E-01 1.26954E-22
1.14188E-01 1.21769E-22
1.16978E-01 1.16869E-22
1.19797E-01 1.12234E-22
1.22645E-01 1.07846E-22
1.25522E-01 1.03688E-22
1.28428E-01 9.97459E-23
1.31361E-01 9.60054E-23
1.34323E-01 9.24533E-23
1.37313E-01 8.90777E-23
1.40330E-01 8.58677E-23
1.43375E-01 8.28130E-23
1.46447E-01 7.99044E-23
1.49545E-01 7.71328E-23
1.52671E-01 7.44901E-23
1.55823E-01 7.19687E-23
1.59001E-01 6.95617E-23
1.62205E-01 6.72625E-23
1.65435E-01 6.50650E-23
1.68690E-01 6.29635E-23
1.71970E-01 6.09526E-23
1.75276E-01 5.90274E-23
1.78606E-01 5.71832E-23
1.81961E-01 5.54159E-23
1.85340E-01 5.37212E-23
1.88743E-01 5.20955E-23
1.92169E-01 5.05349E-23
1.95619E-01 4.90364E-23
1.99092E-01 4.75966E-23
2.02589E-01 4.62129E-23
2.06107E-01 4.48823E-23
2.09649E-01 4.36022E-23
2.13212E-01 4.23701E-23
2.16797E-01 4.11838E-23
2.20404E-01 4.00411E-23
2.24032E-01 3.89401E-23
2.27680E-01 3.78787E-23
2.31350E-01 3.68550E-23
2.35040E-01 3.58673E-23
2.38751E-01 3.49141E-23
2.42481E-01 3.39939E-23
2.46231E-01 3.31052E-23
2.50000E-01 3.22465E-23
2.53788E-01 3.14164E-23
2.57595E-01 3.06140E-23
2.61421E-01 2.98380E-23
2.65264E-01 2.90873E-23
2.69126E-01 2.83607E-23
2.73005E-01 2.76573E-23
2.76901E-01 2.69762E-23
2.80814E-01 2.63164E-23
2.84744E-01 2.56772E-23
2.88691E-01 2.50576E-23
2.92653E-01 2.44569E-23
2.96632E-01 2.38743E-23
3.00625E-01 2.33092E-23
3.04634E-01 2.27610E-23
3.08658E-01 2.22288E-23
3.12697E-01 2.17122E-23
3.16749E-01 2.12105E-23
3.20816E-01 2.07232E-23
3.24896E-01 2.02498E-23
3.28990E-01 1.97898E-23
3.33097E-01 1.93426E-23
3.37216E-01 1.89079E-23
3.41348E-01 1.84851E-23
3.45492E-01 1.80739E-23
3.49647E-01 1.76738E-23
3.53814E-01 1.72845E-23
3.57992E-01 1.69056E-23
3.62181E-01 1.65367E-23
3.66381E-01 1.61775E-23
3.70590E-01 1.58276E-23
3.74810E-01 1.54869E-23
3.79039E-01 1.51549E-23
3.83277E-01 1.48313E-23
3.87524E-01 1.45160E-23
3.91780E-01 1.42085E-23
3.96044E-01 1.39088E-23
4.00316E-01 1.36165E-23
4.04596E-01 1.33314E-23
4.08882E-01 1.30532E-23
4.13176E-01 1.27818E-23
4.17476E-01 1.25169E-23
4.21783E-01 1.22584E-23
4.26095E-01 1.20061E-23
4.30413E-01 1.17597E-23
4.34737E-01 1.15191E-23
4.39065E-01 1.12841E-23
4.43398E-01 1.10545E-23
4.47736E-01 1.08302E-23
4.52077E-01 1.06111E-23
4.56422E-01 1.03970E-23
4.60770E-01 1.01876E-23
4.65122E-01 9.98304E-24
4.69476E-01 9.78300E-24
4.73832E-01 9.58741E-24
4.78190E-01 9.39612E-24
4.82550E-01 9.20904E-24
4.86912E-01 9.02604E-24
4.91274E-01 8.84701E-24
4.95637E-01 8.67184E-24
5.00000E-01 8.50042E-24
5.04363E-01 8.33266E-24
5.08726E-01 8.16846E-24
5.13088E-01 8.00772E-24
5.17450E-01 7.85036E-24
5.21810E-01 7.69628E-24
5.26168E-01 7.54540E-24
5.30524E-01 7.39763E-24
5.34878E-01 7.25290E-24
5.39230E-01 7.11113E-24
5.43578E-01 6.97225E-24
5.47923E-01 6.83618E-24
5.52264E-01 6.70285E-24
5.56602E-01 6.57219E-24
5.60935E-01 6.44414E-24
5.65263E-01 6.31863E-24
5.69587E-01 6.19561E-24
5.73905E-01 6.07500E-24
5.78217E-01 5.95676E-24
5.82524E-01 5.84083E-24
5.86824E-01 5.72715E-24
5.91118E-01 5.61566E-24
5.95404E-01 5.50632E-24
5.99684E-01 5.39909E-24
6.03956E-01 5.29390E-24
6.08220E-01 5.19070E-24
6.12476E-01 5.08947E-24
6.16723E-01 4.99015E-24
6.20961E-01 4.89270E-24
6.25190E-01 4.79707E-24
6.29410E-01 4.70323E-24
6.33619E-01 4.61114E-24
6.37819E-01 4.52075E-24
6.42008E-01 4.43203E-24
6.46186E-01 4.34496E-24
6.50353E-01 4.25948E-24
6.54508E-01 4.17557E-24
6.58652E-01 4.09320E-24
6.62784E-01 4.01233E-24
6.66903E-01 3.93292E-24
6.71010E-01 3.85484E-24
6.75104E-01 3.77816E-24
6.79184E-01 3.70286E-24
6.83251E-01 3.62890E-24
6.87303E-01 3.55625E-24
6.91342E-01 3.48490E-24
6.95366E-01 3.41482E-24
6.99375E-01 3.34597E-24
7.03368E-01 3.27834E-24
7.07347E-01 3.21190E-24
7.11309E-01 3.14662E-24
7.15256E-01 3.08249E-24
7.19186E-01 3.01948E-24
7.23099E-01 2.95757E-24
7.26995E-01 2.89674E-24
7.30874E-01 2.83696E-24
7.34736E-01 2.77822E-24
7.38579E-01 2.72049E-24
7.42405E-01 2.66377E-24
7.46212E-01 2.60802E-24
7.50000E-01 2.55324E-24
7.53769E-01 2.49939E-24
7.57519E-01 2.44647E-24
7.61249E-01 2.39447E-24
7.64960E-01 2.34335E-24
7.68650E-01 2.29311E-24
7.72320E-01 2.24373E-24
7.75968E-01 2.19519E-24
7.79596E-01 2.14748E-24
7.83203E-01 2.10059E-24
7.86788E-01 2.05450E-24
7.90351E-01 2.00920E-24
7.93893E-01 1.96466E-24
7.97411E-01 1.92089E-24
8.00908E-01 1.87787E-24
8.04381E-01 1.83558E-24
8.07831E-01 1.79401E-24
8.11257E-01 1.75315E-24
8.14660E-01 1.71299E-24
8.18039E-01 1.67352E-24
8.21394E-01 1.63472E-24
8.24724E-01 1.59659E-24
8.28030E-01 1.55911E-24
8.31310E-01 1.52227E-24
8.34565E-01 1.48607E-24
8.37795E-01 1.45049E-24
8.40999E-01 1.41552E-24
8.44177E-01 1.38116E-24
8.47329E-01 1.34739E-24
8.50455E-01 1.31421E-24
8.53553E-01 1.28160E-24
8.56625E-01 1.24956E-24
8.59670E-01 1.21808E-24
8.62687E-01 1.18715E-24
8.65677E-01 1.15677E-24
8.68639E-01 1.12692E-24
8.71572E-01 1.09759E-24
8.74478E-01 1.06879E-24
8.77355E-01 1.04050E-24
8.80203E-01 1.01271E-24
8.83022E-01 9.85425E-25
8.85812E-01 9.58629E-25
8.88573E-01 9.32317E-25
8.91304E-01 9.06484E-25
8.94005E-01 8.81122E-25
8.96677E-01 8.56226E-25
8.99318E-01 8.31789E-25
9.01928E-01 8.07805E-25
9.04508E-01 7.84269E-25
9.07058E-01 7.61175E-25
9.09576E-01 7.38516E-25
9.12063E-01 7.16289E-25
9.14519E-01 6.94487E-25
9.16943E-01 6.73106E-25
9.19335E-01 6.52140E-25
9.21696E-01 6.31584E-25
9.24024E-01 6.11434E-25
9.26320E-01 5.91684E-25
9.28584E-01 5.72331E-25
9.30815E-01 5.53369E-25
9.33013E-01 5.34795E-25
9.35178E-01 5.16604E-25
9.37310E-01 4.98792E-25
9.39409E-01 4.81354E-25
9.41474E-01 4.64288E-25
9.43505E-01 4.47588E-25
9.45503E-01 4.31252E-25
9.47467E-01 4.15275E-25
9.49397E-01 3.99655E-25
9.51293E-01 3.84387E-25
9.53154E-01 3.69468E-25
9.54981E-01 3.54895E-25
9.56773E-01 3.40664E-25
9.58530E-01 3.26773E-25
9.60252E-01 3.13218E-25
9.61940E-01 2.99997E-25
9.63592E-01 2.87107E-25
9.65209E-01 2.74544E-25
9.66790E-01 2.62306E-25
9.68336E-01 2.50390E-25
9.69846E-01 2.38795E-25
9.71321E-01 2.27516E-25
9.72759E-01 2.16553E-25
9.74162E-01 2.05902E-25
9.75528E-01 1.95562E-25
9.76858E-01 1.85529E-25
9.78152E-01 1.75802E-25
9.79410E-01 1.66380E-25
9.80631E-01 1.57259E-25
9.81815E-01 1.48438E-25
9.82963E-01 1.39915E-25
9.84074E-01 1.31689E-25
9.85148E-01 1.23757E-25
9.86185E-01 1.16118E-25
9.87185E-01 1.08771E-25
9.88148E-01 1.01713E-25
9.89074E-01 9.49437E-26
9.89962E-01 8.84612E-26
9.90814E-01 8.22642E-26
9.91627E-01 7.63516E-26
9.92404E-01 7.07220E-26
9.93143E-01 6.53744E-26
9.93844E-01 6.03075E-26
9.94508E-01 5.55204E-26
9.95134E-01 5.10120E-26
9.95722E-01 4.67815E-26
9.96273E-01 4.28280E-26
9.96786E-01 3.91507E-26
9.97261E-01 3.57487E-26
9.97698E-01 3.26214E-26
9.98097E-01 2.97683E-26
9.98459E-01 2.71886E-26
9.98782E-01 2.48818E-26
9.99067E-01 2.28476E-26
9.99315E-01 2.10854E-26
9.99524E-01 1.95950E-26
9.99695E-01 1.83759E-26
9.99829E-01 1.74280E-26
9.99924E-01 1.67511E-26
9.99981E-01 1.63450E-26
1.00000E+00 1.62096E-26
