 #
 # Subroutine ELSEPA. Elastic scattering of electrons and positrons
 #                    by neutral atoms and positive ions
 #
 # Projectile: electron
 # Kinetic energy = 2.50000E+07 eV = 9.18733E+05 a.u.
 #
 # WARNING: High-energy factorization with free-atom DF screening.
 #          Absorption, polarization and exchange corrections are
 #          switched off.
 #          Phase shifts are calculated for the bare nucleus.
 #          Scattering amplitudes are not evaluated.
 #
 # Element: Pa,  Z =  91,  atomic weight = 2.31036E+02 g/mol
 #
 # Nuclear model: Fermi distribution
 #                Average radius = 6.56564E-13 cm
 #                Skin thickness = 5.46000E-14 cm
 #
 # Number of electrons = 91
 #
 # Total elastic cross section = 1.16985E-17 cm**2 = 4.17762E-01 a0**2
 # 1st transport cross section = 2.41459E-23 cm**2 = 8.62267E-07 a0**2
 # 2nd transport cross section = 6.83569E-23 cm**2 = 2.44107E-06 a0**2
 #
 #
 # Differential cross section:                       MU=(1-COS(THETA))/2
 #
 #  THETA        MU          DCS          DCS        Sherman      error
 #  (deg)                 (cm**2/sr)   (a0**2/sr)    function
 #----------------------------------------------------------------------
0.00000E+00 8.98925E-11
7.61557E-13 8.98677E-11
1.18994E-12 8.98538E-11
1.71346E-12 8.98369E-11
2.33225E-12 8.98169E-11
3.04617E-12 8.97938E-11
3.85530E-12 8.97677E-11
4.75964E-12 8.97385E-11
5.75917E-12 8.97063E-11
6.85391E-12 8.96711E-11
8.04379E-12 8.96328E-11
9.32893E-12 8.95915E-11
1.07092E-11 8.95471E-11
1.21847E-11 8.94998E-11
1.37554E-11 8.94494E-11
1.54213E-11 8.93961E-11
1.71823E-11 8.93398E-11
1.90386E-11 8.92804E-11
2.09900E-11 8.92182E-11
2.30367E-11 8.91529E-11
2.51785E-11 8.90847E-11
2.74156E-11 8.90136E-11
2.97478E-11 8.89395E-11
3.21752E-11 8.88626E-11
3.46979E-11 8.87827E-11
3.73157E-11 8.87000E-11
4.00286E-11 8.86144E-11
4.28368E-11 8.85259E-11
4.57402E-11 8.84346E-11
4.87388E-11 8.83404E-11
5.18325E-11 8.82435E-11
5.50215E-11 8.81437E-11
5.83057E-11 8.80412E-11
6.16850E-11 8.79359E-11
6.51595E-11 8.78278E-11
6.87293E-11 8.77170E-11
7.23943E-11 8.76036E-11
7.61544E-11 8.74874E-11
1.18991E-10 8.61818E-11
1.71347E-10 8.46296E-11
2.33223E-10 8.28548E-11
3.04617E-10 8.08833E-11
3.85531E-10 7.87455E-11
4.75965E-10 7.64659E-11
5.75917E-10 7.40699E-11
6.85389E-10 7.15953E-11
8.04380E-10 6.90531E-11
9.32891E-10 6.64897E-11
1.07092E-09 6.39014E-11
1.21847E-09 6.13382E-11
1.37554E-09 5.87888E-11
1.54213E-09 5.62939E-11
1.71823E-09 5.38460E-11
1.90386E-09 5.14709E-11
2.09900E-09 4.91673E-11
2.30367E-09 4.69458E-11
2.51785E-09 4.48118E-11
2.74156E-09 4.27623E-11
2.97478E-09 4.08092E-11
3.21752E-09 3.89385E-11
3.46978E-09 3.71667E-11
3.73156E-09 3.54728E-11
4.00286E-09 3.38754E-11
4.28368E-09 3.23522E-11
4.57402E-09 3.09157E-11
4.87388E-09 2.95510E-11
5.18326E-09 2.82621E-11
5.50215E-09 2.70411E-11
5.83057E-09 2.58863E-11
6.16850E-09 2.47939E-11
6.51596E-09 2.37595E-11
6.87293E-09 2.27810E-11
7.23942E-09 2.18539E-11
7.61544E-09 2.09759E-11
1.18991E-08 1.42978E-11
1.71347E-08 1.01360E-11
2.33223E-08 7.38698E-12
3.04617E-08 5.50277E-12
3.85531E-08 4.15060E-12
4.75965E-08 3.19915E-12
5.75917E-08 2.53027E-12
6.85389E-08 2.01103E-12
8.04380E-08 1.63622E-12
9.32891E-08 1.33347E-12
1.07092E-07 1.10845E-12
1.21847E-07 9.22178E-13
1.37554E-07 7.78511E-13
1.54213E-07 6.59198E-13
1.71823E-07 5.63624E-13
1.90386E-07 4.84112E-13
2.09900E-07 4.18530E-13
2.30367E-07 3.63826E-13
2.51785E-07 3.17683E-13
2.74156E-07 2.79025E-13
2.97478E-07 2.45830E-13
3.21752E-07 2.17864E-13
3.46978E-07 1.93478E-13
3.73156E-07 1.72815E-13
4.00286E-07 1.54543E-13
4.28368E-07 1.38915E-13
4.57402E-07 1.25038E-13
4.87388E-07 1.13003E-13
5.18325E-07 1.02298E-13
5.50215E-07 9.28888E-14
5.83057E-07 8.45085E-14
6.16850E-07 7.70546E-14
6.51596E-07 7.04098E-14
6.87293E-07 6.44384E-14
7.23942E-07 5.91110E-14
7.61543E-07 5.42815E-14
1.18991E-06 2.52083E-14
1.71347E-06 1.32678E-14
2.33223E-06 7.65142E-15
3.04617E-06 4.72996E-15
3.85531E-06 3.07756E-15
4.75964E-06 2.09123E-15
5.75916E-06 1.47151E-15
6.85388E-06 1.06620E-15
8.04378E-06 7.91631E-16
9.32888E-06 6.00192E-16
1.07092E-05 4.63361E-16
1.21846E-05 3.63379E-16
1.37553E-05 2.88925E-16
1.54212E-05 2.32555E-16
1.71822E-05 1.89236E-16
1.90385E-05 1.55410E-16
2.09899E-05 1.28999E-16
2.30365E-05 1.07943E-16
2.51783E-05 9.09826E-17
2.74153E-05 7.72063E-17
2.97475E-05 6.59337E-17
3.21749E-05 5.66475E-17
3.46974E-05 4.89497E-17
3.73152E-05 4.25262E-17
4.00281E-05 3.71300E-17
4.28362E-05 3.25673E-17
4.57395E-05 2.86854E-17
4.87380E-05 2.53640E-17
5.18317E-05 2.25090E-17
5.50205E-05 2.00442E-17
5.83045E-05 1.79077E-17
6.16838E-05 1.60489E-17
6.51582E-05 1.44255E-17
6.87277E-05 1.30025E-17
7.23925E-05 1.17509E-17
7.61524E-05 1.06434E-17
9.21439E-05 7.33445E-18
1.09658E-04 5.21624E-18
1.28695E-04 3.81008E-18
1.49255E-04 2.84727E-18
1.71338E-04 2.17019E-18
1.94942E-04 1.68300E-18
2.20070E-04 1.32522E-18
2.46720E-04 1.05772E-18
2.74892E-04 8.54515E-19
3.04586E-04 6.97885E-19
3.35803E-04 5.75611E-19
3.68542E-04 4.79010E-19
4.02802E-04 4.01881E-19
4.38585E-04 3.39697E-19
4.75889E-04 2.89104E-19
5.14715E-04 2.47609E-19
5.55063E-04 2.13310E-19
5.96931E-04 1.84762E-19
6.40321E-04 1.60843E-19
6.85233E-04 1.40679E-19
7.31665E-04 1.23586E-19
7.79618E-04 1.09017E-19
8.29092E-04 9.65383E-20
8.80086E-04 8.57990E-20
9.32601E-04 7.65162E-20
9.86636E-04 6.84589E-20
1.04219E-03 6.14373E-20
1.09927E-03 5.52961E-20
1.15786E-03 4.99055E-20
1.21797E-03 4.51581E-20
1.27961E-03 4.09639E-20
1.34276E-03 3.72470E-20
1.40743E-03 3.39439E-20
1.47362E-03 3.10002E-20
1.54133E-03 2.83701E-20
1.61056E-03 2.60141E-20
1.68131E-03 2.38987E-20
1.75357E-03 2.19950E-20
1.82735E-03 2.02779E-20
1.90265E-03 1.87259E-20
1.97947E-03 1.73203E-20
2.05780E-03 1.60448E-20
2.13765E-03 1.48852E-20
2.21902E-03 1.38291E-20
2.30190E-03 1.28655E-20
2.38630E-03 1.19848E-20
2.47222E-03 1.11787E-20
2.55965E-03 1.04397E-20
2.64859E-03 9.76108E-21
2.73905E-03 9.13711E-21
2.83103E-03 8.56254E-21
2.92452E-03 8.03275E-21
3.01952E-03 7.54360E-21
3.11604E-03 7.09140E-21
3.21407E-03 6.67284E-21
3.31362E-03 6.28494E-21
3.41468E-03 5.92506E-21
3.51725E-03 5.59077E-21
3.62133E-03 5.27994E-21
3.72692E-03 4.99060E-21
3.83403E-03 4.72098E-21
3.94265E-03 4.46950E-21
4.05278E-03 4.23469E-21
4.16442E-03 4.01525E-21
4.27757E-03 3.80998E-21
4.39223E-03 3.61780E-21
4.50840E-03 3.43771E-21
4.62608E-03 3.26880E-21
4.74527E-03 3.11026E-21
4.86597E-03 2.96131E-21
4.98817E-03 2.82127E-21
5.11188E-03 2.68951E-21
5.23711E-03 2.56544E-21
5.36383E-03 2.44854E-21
5.49207E-03 2.33829E-21
5.62181E-03 2.23426E-21
5.75306E-03 2.13602E-21
5.88581E-03 2.04319E-21
6.02007E-03 1.95542E-21
6.15583E-03 1.87237E-21
6.29310E-03 1.79374E-21
6.43187E-03 1.71926E-21
6.57214E-03 1.64866E-21
6.71392E-03 1.58169E-21
6.85720E-03 1.51814E-21
7.00198E-03 1.45780E-21
7.14827E-03 1.40047E-21
7.29605E-03 1.34597E-21
7.44534E-03 1.29414E-21
7.59612E-03 1.24482E-21
7.97965E-03 1.13157E-21
8.37255E-03 1.03110E-21
8.77480E-03 9.41720E-22
9.18641E-03 8.61970E-22
9.60736E-03 7.90629E-22
1.00376E-02 7.26644E-22
1.04773E-02 6.69117E-22
1.09262E-02 6.17278E-22
1.13844E-02 5.70455E-22
1.18520E-02 5.28075E-22
1.23288E-02 4.89637E-22
1.28150E-02 4.54701E-22
1.33104E-02 4.22893E-22
1.38150E-02 3.93876E-22
1.43290E-02 3.67358E-22
1.48521E-02 3.43085E-22
1.53845E-02 3.20826E-22
1.59262E-02 3.00387E-22
1.64770E-02 2.81584E-22
1.70371E-02 2.64266E-22
1.76063E-02 2.48290E-22
1.81848E-02 2.33532E-22
1.87724E-02 2.19881E-22
1.93692E-02 2.07237E-22
1.99751E-02 1.95512E-22
2.05901E-02 1.84625E-22
2.12143E-02 1.74504E-22
2.18476E-02 1.65085E-22
2.24900E-02 1.56310E-22
2.31415E-02 1.48124E-22
2.38021E-02 1.40481E-22
2.44717E-02 1.33338E-22
2.51504E-02 1.26655E-22
2.58382E-02 1.20396E-22
2.65349E-02 1.14530E-22
2.72407E-02 1.09025E-22
2.79555E-02 1.03856E-22
2.86793E-02 9.89983E-23
2.94120E-02 9.44284E-23
3.01537E-02 9.01261E-23
3.09043E-02 8.60725E-23
3.16639E-02 8.22502E-23
3.24324E-02 7.86433E-23
3.32098E-02 7.52372E-23
3.39961E-02 7.20182E-23
3.47912E-02 6.89741E-23
3.55952E-02 6.60933E-23
3.64081E-02 6.33652E-23
3.72297E-02 6.07801E-23
3.80602E-02 5.83289E-23
3.88995E-02 5.60033E-23
3.97476E-02 5.37954E-23
4.06044E-02 5.16983E-23
4.14700E-02 4.97054E-23
4.23443E-02 4.78107E-23
4.32273E-02 4.60085E-23
4.41190E-02 4.42888E-23
4.50194E-02 4.26505E-23
4.59284E-02 4.10890E-23
4.68461E-02 3.95998E-23
4.87074E-02 3.68226E-23
5.06030E-02 3.42895E-23
5.25328E-02 3.19745E-23
5.44967E-02 2.98551E-23
5.64946E-02 2.79115E-23
5.85262E-02 2.61260E-23
6.05914E-02 2.44832E-23
6.26901E-02 2.29693E-23
6.48222E-02 2.15722E-23
6.69873E-02 2.02810E-23
6.91854E-02 1.90859E-23
7.14163E-02 1.79785E-23
7.36799E-02 1.69509E-23
7.59760E-02 1.59962E-23
7.83043E-02 1.51081E-23
8.06647E-02 1.42811E-23
8.30571E-02 1.35101E-23
8.54812E-02 1.27906E-23
8.79369E-02 1.21183E-23
9.04240E-02 1.14896E-23
9.29422E-02 1.09010E-23
9.54915E-02 1.03495E-23
9.80716E-02 9.83227E-24
1.00682E-01 9.34673E-24
1.03323E-01 8.89054E-24
1.05995E-01 8.46159E-24
1.08696E-01 8.05790E-24
1.11427E-01 7.67770E-24
1.14188E-01 7.31935E-24
1.16978E-01 6.98134E-24
1.19797E-01 6.66228E-24
1.22645E-01 6.36090E-24
1.25522E-01 6.07604E-24
1.28428E-01 5.80659E-24
1.31361E-01 5.55157E-24
1.34323E-01 5.31006E-24
1.37313E-01 5.08119E-24
1.40330E-01 4.86418E-24
1.43375E-01 4.65830E-24
1.46447E-01 4.46286E-24
1.49545E-01 4.27723E-24
1.52671E-01 4.10083E-24
1.55823E-01 3.93311E-24
1.59001E-01 3.77357E-24
1.62205E-01 3.62173E-24
1.65435E-01 3.47714E-24
1.68690E-01 3.33941E-24
1.71970E-01 3.20814E-24
1.75276E-01 3.08297E-24
1.78606E-01 2.96357E-24
1.81961E-01 2.84963E-24
1.85340E-01 2.74085E-24
1.88743E-01 2.63696E-24
1.92169E-01 2.53769E-24
1.95619E-01 2.44281E-24
1.99092E-01 2.35208E-24
2.02589E-01 2.26529E-24
2.06107E-01 2.18225E-24
2.09649E-01 2.10276E-24
2.13212E-01 2.02664E-24
2.16797E-01 1.95373E-24
2.20404E-01 1.88387E-24
2.24032E-01 1.81691E-24
2.27680E-01 1.75271E-24
2.31350E-01 1.69113E-24
2.35040E-01 1.63206E-24
2.38751E-01 1.57537E-24
2.42481E-01 1.52095E-24
2.46231E-01 1.46870E-24
2.50000E-01 1.41851E-24
2.53788E-01 1.37029E-24
2.57595E-01 1.32396E-24
2.61421E-01 1.27942E-24
2.65264E-01 1.23660E-24
2.69126E-01 1.19541E-24
2.73005E-01 1.15580E-24
2.76901E-01 1.11768E-24
2.80814E-01 1.08100E-24
2.84744E-01 1.04568E-24
2.88691E-01 1.01168E-24
2.92653E-01 9.78937E-25
2.96632E-01 9.47396E-25
3.00625E-01 9.17007E-25
3.04634E-01 8.87722E-25
3.08658E-01 8.59495E-25
3.12697E-01 8.32283E-25
3.16749E-01 8.06043E-25
3.20816E-01 7.80737E-25
3.24896E-01 7.56327E-25
3.28990E-01 7.32775E-25
3.33097E-01 7.10048E-25
3.37216E-01 6.88114E-25
3.41348E-01 6.66939E-25
3.45492E-01 6.46496E-25
3.49647E-01 6.26754E-25
3.53814E-01 6.07688E-25
3.57992E-01 5.89270E-25
3.62181E-01 5.71475E-25
3.66381E-01 5.54280E-25
3.70590E-01 5.37662E-25
3.74810E-01 5.21600E-25
3.79039E-01 5.06071E-25
3.83277E-01 4.91056E-25
3.87524E-01 4.76537E-25
3.91780E-01 4.62493E-25
3.96044E-01 4.48909E-25
4.00316E-01 4.35767E-25
4.04596E-01 4.23051E-25
4.08882E-01 4.10745E-25
4.13176E-01 3.98834E-25
4.17476E-01 3.87305E-25
4.21783E-01 3.76144E-25
4.26095E-01 3.65337E-25
4.30413E-01 3.54872E-25
4.34737E-01 3.44736E-25
4.39065E-01 3.34919E-25
4.43398E-01 3.25408E-25
4.47736E-01 3.16194E-25
4.52077E-01 3.07266E-25
4.56422E-01 2.98614E-25
4.60770E-01 2.90228E-25
4.65122E-01 2.82100E-25
4.69476E-01 2.74220E-25
4.73832E-01 2.66580E-25
4.78190E-01 2.59172E-25
4.82550E-01 2.51988E-25
4.86912E-01 2.45021E-25
4.91274E-01 2.38263E-25
4.95637E-01 2.31707E-25
5.00000E-01 2.25347E-25
5.04363E-01 2.19176E-25
5.08726E-01 2.13188E-25
5.13088E-01 2.07376E-25
5.17450E-01 2.01736E-25
5.21810E-01 1.96260E-25
5.26168E-01 1.90945E-25
5.30524E-01 1.85785E-25
5.34878E-01 1.80775E-25
5.39230E-01 1.75909E-25
5.43578E-01 1.71184E-25
5.47923E-01 1.66595E-25
5.52264E-01 1.62137E-25
5.56602E-01 1.57807E-25
5.60935E-01 1.53600E-25
5.65263E-01 1.49512E-25
5.69587E-01 1.45540E-25
5.73905E-01 1.41680E-25
5.78217E-01 1.37929E-25
5.82524E-01 1.34282E-25
5.86824E-01 1.30738E-25
5.91118E-01 1.27292E-25
5.95404E-01 1.23942E-25
5.99684E-01 1.20685E-25
6.03956E-01 1.17518E-25
6.08220E-01 1.14438E-25
6.12476E-01 1.11442E-25
6.16723E-01 1.08528E-25
6.20961E-01 1.05694E-25
6.25190E-01 1.02937E-25
6.29410E-01 1.00254E-25
6.33619E-01 9.76439E-26
6.37819E-01 9.51042E-26
6.42008E-01 9.26326E-26
6.46186E-01 9.02272E-26
6.50353E-01 8.78861E-26
6.54508E-01 8.56073E-26
6.58652E-01 8.33889E-26
6.62784E-01 8.12293E-26
6.66903E-01 7.91266E-26
6.71010E-01 7.70793E-26
6.75104E-01 7.50857E-26
6.79184E-01 7.31442E-26
6.83251E-01 7.12534E-26
6.87303E-01 6.94117E-26
6.91342E-01 6.76178E-26
6.95366E-01 6.58703E-26
6.99375E-01 6.41678E-26
7.03368E-01 6.25091E-26
7.07347E-01 6.08930E-26
7.11309E-01 5.93181E-26
7.15256E-01 5.77834E-26
7.19186E-01 5.62878E-26
7.23099E-01 5.48300E-26
7.26995E-01 5.34091E-26
7.30874E-01 5.20241E-26
7.34736E-01 5.06738E-26
7.38579E-01 4.93575E-26
7.42405E-01 4.80740E-26
7.46212E-01 4.68226E-26
7.50000E-01 4.56024E-26
7.53769E-01 4.44124E-26
7.57519E-01 4.32518E-26
7.61249E-01 4.21199E-26
7.64960E-01 4.10159E-26
7.68650E-01 3.99390E-26
7.72320E-01 3.88885E-26
7.75968E-01 3.78637E-26
7.79596E-01 3.68639E-26
7.83203E-01 3.58884E-26
7.86788E-01 3.49366E-26
7.90351E-01 3.40078E-26
7.93893E-01 3.31015E-26
7.97411E-01 3.22170E-26
8.00908E-01 3.13538E-26
8.04381E-01 3.05113E-26
8.07831E-01 2.96890E-26
8.11257E-01 2.88864E-26
8.14660E-01 2.81029E-26
8.18039E-01 2.73381E-26
8.21394E-01 2.65914E-26
8.24724E-01 2.58625E-26
8.28030E-01 2.51509E-26
8.31310E-01 2.44561E-26
8.34565E-01 2.37777E-26
8.37795E-01 2.31153E-26
8.40999E-01 2.24685E-26
8.44177E-01 2.18369E-26
8.47329E-01 2.12201E-26
8.50455E-01 2.06178E-26
8.53553E-01 2.00296E-26
8.56625E-01 1.94553E-26
8.59670E-01 1.88943E-26
8.62687E-01 1.83465E-26
8.65677E-01 1.78114E-26
8.68639E-01 1.72889E-26
8.71572E-01 1.67786E-26
8.74478E-01 1.62801E-26
8.77355E-01 1.57934E-26
8.80203E-01 1.53179E-26
8.83022E-01 1.48536E-26
8.85812E-01 1.44002E-26
8.88573E-01 1.39573E-26
8.91304E-01 1.35248E-26
8.94005E-01 1.31024E-26
8.96677E-01 1.26899E-26
8.99318E-01 1.22871E-26
9.01928E-01 1.18937E-26
9.04508E-01 1.15096E-26
9.07058E-01 1.11346E-26
9.09576E-01 1.07684E-26
9.12063E-01 1.04109E-26
9.14519E-01 1.00619E-26
9.16943E-01 9.72122E-27
9.19335E-01 9.38866E-27
9.21696E-01 9.06406E-27
9.24024E-01 8.74727E-27
9.26320E-01 8.43813E-27
9.28584E-01 8.13649E-27
9.30815E-01 7.84219E-27
9.33013E-01 7.55509E-27
9.35178E-01 7.27505E-27
9.37310E-01 7.00194E-27
9.39409E-01 6.73562E-27
9.41474E-01 6.47597E-27
9.43505E-01 6.22286E-27
9.45503E-01 5.97617E-27
9.47467E-01 5.73578E-27
9.49397E-01 5.50159E-27
9.51293E-01 5.27349E-27
9.53154E-01 5.05136E-27
9.54981E-01 4.83511E-27
9.56773E-01 4.62463E-27
9.58530E-01 4.41983E-27
9.60252E-01 4.22062E-27
9.61940E-01 4.02690E-27
9.63592E-01 3.83860E-27
9.65209E-01 3.65562E-27
9.66790E-01 3.47788E-27
9.68336E-01 3.30531E-27
9.69846E-01 3.13783E-27
9.71321E-01 2.97536E-27
9.72759E-01 2.81783E-27
9.74162E-01 2.66518E-27
9.75528E-01 2.51734E-27
9.76858E-01 2.37425E-27
9.78152E-01 2.23584E-27
9.79410E-01 2.10205E-27
9.80631E-01 1.97283E-27
9.81815E-01 1.84812E-27
9.82963E-01 1.72787E-27
9.84074E-01 1.61203E-27
9.85148E-01 1.50056E-27
9.86185E-01 1.39339E-27
9.87185E-01 1.29049E-27
9.88148E-01 1.19182E-27
9.89074E-01 1.09734E-27
9.89962E-01 1.00700E-27
9.90814E-01 9.20773E-28
9.91627E-01 8.38617E-28
9.92404E-01 7.60502E-28
9.93143E-01 6.86394E-28
9.93844E-01 6.16265E-28
9.94508E-01 5.50085E-28
9.95134E-01 4.87827E-28
9.95722E-01 4.29467E-28
9.96273E-01 3.74981E-28
9.96786E-01 3.24347E-28
9.97261E-01 2.77544E-28
9.97698E-01 2.34554E-28
9.98097E-01 1.95360E-28
9.98459E-01 1.59945E-28
9.98782E-01 1.28296E-28
9.99067E-01 1.00400E-28
9.99315E-01 7.62458E-29
9.99524E-01 5.58240E-29
9.99695E-01 3.91262E-29
9.99829E-01 2.61460E-29
9.99924E-01 1.68781E-29
9.99981E-01 1.13188E-29
1.00000E+00 9.46593E-30
