 #
 # Subroutine ELSEPA. Elastic scattering of electrons and positrons
 #                    by neutral atoms and positive ions
 #
 # Projectile: electron
 # Kinetic energy = 4.50000E+06 eV = 1.65372E+05 a.u.
 #
 # WARNING: High-energy factorization with free-atom DF screening.
 #          Absorption, polarization and exchange corrections are
 #          switched off.
 #          Phase shifts are calculated for the bare nucleus.
 #          Scattering amplitudes are not evaluated.
 #
 # Element: Pa,  Z =  91,  atomic weight = 2.31036E+02 g/mol
 #
 # Nuclear model: Fermi distribution
 #                Average radius = 6.56564E-13 cm
 #                Skin thickness = 5.46000E-14 cm
 #
 # Number of electrons = 91
 #
 # Total elastic cross section = 1.18257E-17 cm**2 = 4.22302E-01 a0**2
 # 1st transport cross section = 5.62892E-22 cm**2 = 2.01012E-05 a0**2
 # 2nd transport cross section = 1.47631E-21 cm**2 = 5.27202E-05 a0**2
 #
 #
 # Differential cross section:                       MU=(1-COS(THETA))/2
 #
 #  THETA        MU          DCS          DCS        Sherman      error
 #  (deg)                 (cm**2/sr)   (a0**2/sr)    function
 #----------------------------------------------------------------------
0.00000E+00 3.46830E-12
7.61557E-13 3.46827E-12
1.18994E-12 3.46825E-12
1.71346E-12 3.46822E-12
2.33225E-12 3.46819E-12
3.04617E-12 3.46816E-12
3.85530E-12 3.46812E-12
4.75964E-12 3.46808E-12
5.75917E-12 3.46803E-12
6.85391E-12 3.46798E-12
8.04379E-12 3.46792E-12
9.32893E-12 3.46786E-12
1.07092E-11 3.46780E-12
1.21847E-11 3.46773E-12
1.37554E-11 3.46765E-12
1.54213E-11 3.46757E-12
1.71823E-11 3.46749E-12
1.90386E-11 3.46740E-12
2.09900E-11 3.46731E-12
2.30367E-11 3.46721E-12
2.51785E-11 3.46711E-12
2.74156E-11 3.46700E-12
2.97478E-11 3.46689E-12
3.21752E-11 3.46678E-12
3.46979E-11 3.46666E-12
3.73157E-11 3.46653E-12
4.00286E-11 3.46640E-12
4.28368E-11 3.46627E-12
4.57402E-11 3.46613E-12
4.87388E-11 3.46599E-12
5.18325E-11 3.46584E-12
5.50215E-11 3.46569E-12
5.83057E-11 3.46553E-12
6.16850E-11 3.46537E-12
6.51595E-11 3.46521E-12
6.87293E-11 3.46504E-12
7.23943E-11 3.46487E-12
7.61544E-11 3.46469E-12
1.18991E-10 3.46266E-12
1.71347E-10 3.46017E-12
2.33223E-10 3.45725E-12
3.04617E-10 3.45387E-12
3.85531E-10 3.45006E-12
4.75965E-10 3.44580E-12
5.75917E-10 3.44110E-12
6.85389E-10 3.43597E-12
8.04380E-10 3.43041E-12
9.32891E-10 3.42441E-12
1.07092E-09 3.41800E-12
1.21847E-09 3.41116E-12
1.37554E-09 3.40391E-12
1.54213E-09 3.39624E-12
1.71823E-09 3.38817E-12
1.90386E-09 3.37970E-12
2.09900E-09 3.37083E-12
2.30367E-09 3.36157E-12
2.51785E-09 3.35192E-12
2.74156E-09 3.34189E-12
2.97478E-09 3.33149E-12
3.21752E-09 3.32073E-12
3.46978E-09 3.30960E-12
3.73156E-09 3.29811E-12
4.00286E-09 3.28628E-12
4.28368E-09 3.27411E-12
4.57402E-09 3.26161E-12
4.87388E-09 3.24878E-12
5.18326E-09 3.23563E-12
5.50215E-09 3.22216E-12
5.83057E-09 3.20840E-12
6.16850E-09 3.19434E-12
6.51596E-09 3.17999E-12
6.87293E-09 3.16535E-12
7.23942E-09 3.15045E-12
7.61544E-09 3.13528E-12
1.18991E-08 2.97099E-12
1.71347E-08 2.78902E-12
2.33223E-08 2.59733E-12
3.04617E-08 2.40291E-12
3.85531E-08 2.21150E-12
4.75965E-08 2.02749E-12
5.75917E-08 1.85395E-12
6.85389E-08 1.69291E-12
8.04380E-08 1.54499E-12
9.32891E-08 1.41030E-12
1.07092E-07 1.28841E-12
1.21847E-07 1.17859E-12
1.37554E-07 1.07989E-12
1.54213E-07 9.91307E-13
1.71823E-07 9.11797E-13
1.90386E-07 8.40375E-13
2.09900E-07 7.76120E-13
2.30367E-07 7.18193E-13
2.51785E-07 6.65811E-13
2.74156E-07 6.18337E-13
2.97478E-07 5.75202E-13
3.21752E-07 5.35908E-13
3.46978E-07 5.00024E-13
3.73156E-07 4.67175E-13
4.00286E-07 4.37035E-13
4.28368E-07 4.09322E-13
4.57402E-07 3.83790E-13
4.87388E-07 3.60223E-13
5.18325E-07 3.38425E-13
5.50215E-07 3.18210E-13
5.83057E-07 2.99469E-13
6.16850E-07 2.82073E-13
6.51596E-07 2.65908E-13
6.87293E-07 2.50871E-13
7.23942E-07 2.36869E-13
7.61543E-07 2.23820E-13
1.18991E-06 1.30665E-13
1.71347E-06 8.24740E-14
2.33223E-06 5.48528E-14
3.04617E-06 3.80365E-14
3.85531E-06 2.72558E-14
4.75964E-06 2.00576E-14
5.75916E-06 1.50966E-14
6.85388E-06 1.15783E-14
8.04378E-06 9.04311E-15
9.32888E-06 7.17647E-15
1.07092E-05 5.77469E-15
1.21846E-05 4.70303E-15
1.37553E-05 3.87054E-15
1.54212E-05 3.21468E-15
1.71822E-05 2.69160E-15
1.90385E-05 2.26838E-15
2.09899E-05 1.92740E-15
2.30365E-05 1.64801E-15
2.51783E-05 1.41425E-15
2.74153E-05 1.22013E-15
2.97475E-05 1.05826E-15
3.21749E-05 9.22614E-16
3.46974E-05 8.08332E-16
3.73152E-05 7.11466E-16
4.00281E-05 6.28851E-16
4.28362E-05 5.57970E-16
4.57395E-05 4.96835E-16
4.87380E-05 4.43866E-16
5.18317E-05 3.97789E-16
5.50205E-05 3.57559E-16
5.83045E-05 3.22343E-16
6.16838E-05 2.91412E-16
6.51582E-05 2.64150E-16
6.87277E-05 2.40034E-16
7.23925E-05 2.18628E-16
7.61524E-05 1.99558E-16
9.21439E-05 1.41276E-16
1.09658E-04 1.02801E-16
1.28695E-04 7.66301E-17
1.49255E-04 5.83211E-17
1.71338E-04 4.51957E-17
1.94942E-04 3.55837E-17
2.20070E-04 2.84076E-17
2.46720E-04 2.29580E-17
2.74892E-04 1.87574E-17
3.04586E-04 1.54748E-17
3.35803E-04 1.28793E-17
3.68542E-04 1.08047E-17
4.02802E-04 9.12955E-18
4.38585E-04 7.76648E-18
4.75889E-04 6.64820E-18
5.14715E-04 5.72408E-18
5.55063E-04 4.95507E-18
5.96931E-04 4.31109E-18
6.40321E-04 3.76854E-18
6.85233E-04 3.30890E-18
7.31665E-04 2.91744E-18
7.79618E-04 2.58236E-18
8.29092E-04 2.29420E-18
8.80086E-04 2.04521E-18
9.32601E-04 1.82926E-18
9.86636E-04 1.64118E-18
1.04219E-03 1.47676E-18
1.09927E-03 1.33251E-18
1.15786E-03 1.20552E-18
1.21797E-03 1.09335E-18
1.27961E-03 9.93979E-19
1.34276E-03 9.05677E-19
1.40743E-03 8.27000E-19
1.47362E-03 7.56700E-19
1.54133E-03 6.93728E-19
1.61056E-03 6.37188E-19
1.68131E-03 5.86306E-19
1.75357E-03 5.40415E-19
1.82735E-03 4.98935E-19
1.90265E-03 4.61369E-19
1.97947E-03 4.27279E-19
2.05780E-03 3.96286E-19
2.13765E-03 3.68057E-19
2.21902E-03 3.42303E-19
2.30190E-03 3.18765E-19
2.38630E-03 2.97218E-19
2.47222E-03 2.77464E-19
2.55965E-03 2.59329E-19
2.64859E-03 2.42654E-19
2.73905E-03 2.27301E-19
2.83103E-03 2.13146E-19
2.92452E-03 2.00078E-19
3.01952E-03 1.88000E-19
3.11604E-03 1.76821E-19
3.21407E-03 1.66464E-19
3.31362E-03 1.56856E-19
3.41468E-03 1.47933E-19
3.51725E-03 1.39638E-19
3.62133E-03 1.31918E-19
3.72692E-03 1.24726E-19
3.83403E-03 1.18020E-19
3.94265E-03 1.11761E-19
4.05278E-03 1.05912E-19
4.16442E-03 1.00443E-19
4.27757E-03 9.53246E-20
4.39223E-03 9.05294E-20
4.50840E-03 8.60333E-20
4.62608E-03 8.18144E-20
4.74527E-03 7.78523E-20
4.86597E-03 7.41286E-20
4.98817E-03 7.06263E-20
5.11188E-03 6.73297E-20
5.23711E-03 6.42244E-20
5.36383E-03 6.12973E-20
5.49207E-03 5.85362E-20
5.62181E-03 5.59300E-20
5.75306E-03 5.34682E-20
5.88581E-03 5.11414E-20
6.02007E-03 4.89408E-20
6.15583E-03 4.68582E-20
6.29310E-03 4.48861E-20
6.43187E-03 4.30176E-20
6.57214E-03 4.12461E-20
6.71392E-03 3.95657E-20
6.85720E-03 3.79708E-20
7.00198E-03 3.64562E-20
7.14827E-03 3.50171E-20
7.29605E-03 3.36490E-20
7.44534E-03 3.23478E-20
7.59612E-03 3.11094E-20
7.97965E-03 2.82658E-20
8.37255E-03 2.57431E-20
8.77480E-03 2.34986E-20
9.18641E-03 2.14964E-20
9.60736E-03 1.97053E-20
1.00376E-02 1.80994E-20
1.04773E-02 1.66560E-20
1.09262E-02 1.53556E-20
1.13844E-02 1.41815E-20
1.18520E-02 1.31192E-20
1.23288E-02 1.21561E-20
1.28150E-02 1.12813E-20
1.33104E-02 1.04851E-20
1.38150E-02 9.75924E-21
1.43290E-02 9.09624E-21
1.48521E-02 8.48969E-21
1.53845E-02 7.93388E-21
1.59262E-02 7.42379E-21
1.64770E-02 6.95492E-21
1.70371E-02 6.52333E-21
1.76063E-02 6.12549E-21
1.81848E-02 5.75826E-21
1.87724E-02 5.41883E-21
1.93692E-02 5.10469E-21
1.99751E-02 4.81359E-21
2.05901E-02 4.54352E-21
2.12143E-02 4.29267E-21
2.18476E-02 4.05940E-21
2.24900E-02 3.84225E-21
2.31415E-02 3.63987E-21
2.38021E-02 3.45108E-21
2.44717E-02 3.27477E-21
2.51504E-02 3.10996E-21
2.58382E-02 2.95576E-21
2.65349E-02 2.81134E-21
2.72407E-02 2.67595E-21
2.79555E-02 2.54893E-21
2.86793E-02 2.42964E-21
2.94120E-02 2.31753E-21
3.01537E-02 2.21208E-21
3.09043E-02 2.11280E-21
3.16639E-02 2.01927E-21
3.24324E-02 1.93109E-21
3.32098E-02 1.84788E-21
3.39961E-02 1.76932E-21
3.47912E-02 1.69507E-21
3.55952E-02 1.62487E-21
3.64081E-02 1.55844E-21
3.72297E-02 1.49554E-21
3.80602E-02 1.43594E-21
3.88995E-02 1.37944E-21
3.97476E-02 1.32583E-21
4.06044E-02 1.27495E-21
4.14700E-02 1.22661E-21
4.23443E-02 1.18067E-21
4.32273E-02 1.13698E-21
4.41190E-02 1.09542E-21
4.50194E-02 1.05584E-21
4.59284E-02 1.01814E-21
4.68461E-02 9.82217E-22
4.87074E-02 9.15273E-22
5.06030E-02 8.54279E-22
5.25328E-02 7.98597E-22
5.44967E-02 7.47668E-22
5.64946E-02 7.01000E-22
5.85262E-02 6.58162E-22
6.05914E-02 6.18774E-22
6.26901E-02 5.82497E-22
6.48222E-02 5.49032E-22
6.69873E-02 5.18115E-22
6.91854E-02 4.89508E-22
7.14163E-02 4.63000E-22
7.36799E-02 4.38404E-22
7.59760E-02 4.15551E-22
7.83043E-02 3.94288E-22
8.06647E-02 3.74480E-22
8.30571E-02 3.56005E-22
8.54812E-02 3.38752E-22
8.79369E-02 3.22621E-22
9.04240E-02 3.07524E-22
9.29422E-02 2.93376E-22
9.54915E-02 2.80106E-22
9.80716E-02 2.67645E-22
1.00682E-01 2.55933E-22
1.03323E-01 2.44912E-22
1.05995E-01 2.34533E-22
1.08696E-01 2.24748E-22
1.11427E-01 2.15516E-22
1.14188E-01 2.06798E-22
1.16978E-01 1.98557E-22
1.19797E-01 1.90762E-22
1.22645E-01 1.83381E-22
1.25522E-01 1.76388E-22
1.28428E-01 1.69756E-22
1.31361E-01 1.63462E-22
1.34323E-01 1.57485E-22
1.37313E-01 1.51804E-22
1.40330E-01 1.46401E-22
1.43375E-01 1.41259E-22
1.46447E-01 1.36362E-22
1.49545E-01 1.31695E-22
1.52671E-01 1.27244E-22
1.55823E-01 1.22996E-22
1.59001E-01 1.18941E-22
1.62205E-01 1.15066E-22
1.65435E-01 1.11362E-22
1.68690E-01 1.07820E-22
1.71970E-01 1.04429E-22
1.75276E-01 1.01182E-22
1.78606E-01 9.80704E-23
1.81961E-01 9.50880E-23
1.85340E-01 9.22276E-23
1.88743E-01 8.94828E-23
1.92169E-01 8.68475E-23
1.95619E-01 8.43162E-23
1.99092E-01 8.18836E-23
2.02589E-01 7.95448E-23
2.06107E-01 7.72950E-23
2.09649E-01 7.51300E-23
2.13212E-01 7.30458E-23
2.16797E-01 7.10383E-23
2.20404E-01 6.91041E-23
2.24032E-01 6.72396E-23
2.27680E-01 6.54415E-23
2.31350E-01 6.37068E-23
2.35040E-01 6.20327E-23
2.38751E-01 6.04164E-23
2.42481E-01 5.88554E-23
2.46231E-01 5.73472E-23
2.50000E-01 5.58895E-23
2.53788E-01 5.44802E-23
2.57595E-01 5.31171E-23
2.61421E-01 5.17982E-23
2.65264E-01 5.05217E-23
2.69126E-01 4.92859E-23
2.73005E-01 4.80891E-23
2.76901E-01 4.69298E-23
2.80814E-01 4.58063E-23
2.84744E-01 4.47173E-23
2.88691E-01 4.36613E-23
2.92653E-01 4.26370E-23
2.96632E-01 4.16433E-23
3.00625E-01 4.06790E-23
3.04634E-01 3.97429E-23
3.08658E-01 3.88339E-23
3.12697E-01 3.79512E-23
3.16749E-01 3.70936E-23
3.20816E-01 3.62602E-23
3.24896E-01 3.54502E-23
3.28990E-01 3.46626E-23
3.33097E-01 3.38968E-23
3.37216E-01 3.31518E-23
3.41348E-01 3.24271E-23
3.45492E-01 3.17219E-23
3.49647E-01 3.10354E-23
3.53814E-01 3.03671E-23
3.57992E-01 2.97163E-23
3.62181E-01 2.90824E-23
3.66381E-01 2.84649E-23
3.70590E-01 2.78632E-23
3.74810E-01 2.72768E-23
3.79039E-01 2.67052E-23
3.83277E-01 2.61480E-23
3.87524E-01 2.56045E-23
3.91780E-01 2.50745E-23
3.96044E-01 2.45574E-23
4.00316E-01 2.40528E-23
4.04596E-01 2.35605E-23
4.08882E-01 2.30799E-23
4.13176E-01 2.26109E-23
4.17476E-01 2.21529E-23
4.21783E-01 2.17056E-23
4.26095E-01 2.12687E-23
4.30413E-01 2.08419E-23
4.34737E-01 2.04250E-23
4.39065E-01 2.00176E-23
4.43398E-01 1.96194E-23
4.47736E-01 1.92303E-23
4.52077E-01 1.88498E-23
4.56422E-01 1.84777E-23
4.60770E-01 1.81139E-23
4.65122E-01 1.77581E-23
4.69476E-01 1.74100E-23
4.73832E-01 1.70696E-23
4.78190E-01 1.67364E-23
4.82550E-01 1.64104E-23
4.86912E-01 1.60914E-23
4.91274E-01 1.57791E-23
4.95637E-01 1.54734E-23
5.00000E-01 1.51740E-23
5.04363E-01 1.48810E-23
5.08726E-01 1.45940E-23
5.13088E-01 1.43129E-23
5.17450E-01 1.40375E-23
5.21810E-01 1.37678E-23
5.26168E-01 1.35035E-23
5.30524E-01 1.32446E-23
5.34878E-01 1.29909E-23
5.39230E-01 1.27422E-23
5.43578E-01 1.24984E-23
5.47923E-01 1.22595E-23
5.52264E-01 1.20253E-23
5.56602E-01 1.17956E-23
5.60935E-01 1.15704E-23
5.65263E-01 1.13496E-23
5.69587E-01 1.11330E-23
5.73905E-01 1.09206E-23
5.78217E-01 1.07122E-23
5.82524E-01 1.05078E-23
5.86824E-01 1.03073E-23
5.91118E-01 1.01106E-23
5.95404E-01 9.91752E-24
5.99684E-01 9.72808E-24
6.03956E-01 9.54216E-24
6.08220E-01 9.35968E-24
6.12476E-01 9.18057E-24
6.16723E-01 9.00476E-24
6.20961E-01 8.83216E-24
6.25190E-01 8.66272E-24
6.29410E-01 8.49635E-24
6.33619E-01 8.33300E-24
6.37819E-01 8.17260E-24
6.42008E-01 8.01508E-24
6.46186E-01 7.86038E-24
6.50353E-01 7.70844E-24
6.54508E-01 7.55921E-24
6.58652E-01 7.41262E-24
6.62784E-01 7.26863E-24
6.66903E-01 7.12718E-24
6.71010E-01 6.98821E-24
6.75104E-01 6.85168E-24
6.79184E-01 6.71753E-24
6.83251E-01 6.58572E-24
6.87303E-01 6.45620E-24
6.91342E-01 6.32893E-24
6.95366E-01 6.20385E-24
6.99375E-01 6.08093E-24
7.03368E-01 5.96013E-24
7.07347E-01 5.84140E-24
7.11309E-01 5.72470E-24
7.15256E-01 5.61000E-24
7.19186E-01 5.49725E-24
7.23099E-01 5.38642E-24
7.26995E-01 5.27747E-24
7.30874E-01 5.17037E-24
7.34736E-01 5.06509E-24
7.38579E-01 4.96158E-24
7.42405E-01 4.85982E-24
7.46212E-01 4.75978E-24
7.50000E-01 4.66141E-24
7.53769E-01 4.56471E-24
7.57519E-01 4.46962E-24
7.61249E-01 4.37613E-24
7.64960E-01 4.28420E-24
7.68650E-01 4.19382E-24
7.72320E-01 4.10494E-24
7.75968E-01 4.01756E-24
7.79596E-01 3.93163E-24
7.83203E-01 3.84714E-24
7.86788E-01 3.76405E-24
7.90351E-01 3.68236E-24
7.93893E-01 3.60203E-24
7.97411E-01 3.52304E-24
8.00908E-01 3.44537E-24
8.04381E-01 3.36900E-24
8.07831E-01 3.29390E-24
8.11257E-01 3.22006E-24
8.14660E-01 3.14745E-24
8.18039E-01 3.07606E-24
8.21394E-01 3.00587E-24
8.24724E-01 2.93685E-24
8.28030E-01 2.86900E-24
8.31310E-01 2.80228E-24
8.34565E-01 2.73669E-24
8.37795E-01 2.67221E-24
8.40999E-01 2.60881E-24
8.44177E-01 2.54649E-24
8.47329E-01 2.48523E-24
8.50455E-01 2.42501E-24
8.53553E-01 2.36582E-24
8.56625E-01 2.30764E-24
8.59670E-01 2.25045E-24
8.62687E-01 2.19425E-24
8.65677E-01 2.13902E-24
8.68639E-01 2.08475E-24
8.71572E-01 2.03142E-24
8.74478E-01 1.97901E-24
8.77355E-01 1.92753E-24
8.80203E-01 1.87695E-24
8.83022E-01 1.82726E-24
8.85812E-01 1.77845E-24
8.88573E-01 1.73051E-24
8.91304E-01 1.68343E-24
8.94005E-01 1.63720E-24
8.96677E-01 1.59180E-24
8.99318E-01 1.54723E-24
9.01928E-01 1.50347E-24
9.04508E-01 1.46052E-24
9.07058E-01 1.41836E-24
9.09576E-01 1.37699E-24
9.12063E-01 1.33640E-24
9.14519E-01 1.29657E-24
9.16943E-01 1.25750E-24
9.19335E-01 1.21918E-24
9.21696E-01 1.18160E-24
9.24024E-01 1.14476E-24
9.26320E-01 1.10864E-24
9.28584E-01 1.07323E-24
9.30815E-01 1.03853E-24
9.33013E-01 1.00454E-24
9.35178E-01 9.71238E-25
9.37310E-01 9.38623E-25
9.39409E-01 9.06688E-25
9.41474E-01 8.75425E-25
9.43505E-01 8.44829E-25
9.45503E-01 8.14892E-25
9.47467E-01 7.85608E-25
9.49397E-01 7.56971E-25
9.51293E-01 7.28976E-25
9.53154E-01 7.01615E-25
9.54981E-01 6.74884E-25
9.56773E-01 6.48776E-25
9.58530E-01 6.23287E-25
9.60252E-01 5.98410E-25
9.61940E-01 5.74142E-25
9.63592E-01 5.50476E-25
9.65209E-01 5.27409E-25
9.66790E-01 5.04934E-25
9.68336E-01 4.83048E-25
9.69846E-01 4.61747E-25
9.71321E-01 4.41025E-25
9.72759E-01 4.20879E-25
9.74162E-01 4.01305E-25
9.75528E-01 3.82298E-25
9.76858E-01 3.63855E-25
9.78152E-01 3.45972E-25
9.79410E-01 3.28646E-25
9.80631E-01 3.11872E-25
9.81815E-01 2.95649E-25
9.82963E-01 2.79972E-25
9.84074E-01 2.64838E-25
9.85148E-01 2.50245E-25
9.86185E-01 2.36189E-25
9.87185E-01 2.22668E-25
9.88148E-01 2.09679E-25
9.89074E-01 1.97219E-25
9.89962E-01 1.85286E-25
9.90814E-01 1.73879E-25
9.91627E-01 1.62993E-25
9.92404E-01 1.52628E-25
9.93143E-01 1.42781E-25
9.93844E-01 1.33451E-25
9.94508E-01 1.24635E-25
9.95134E-01 1.16332E-25
9.95722E-01 1.08540E-25
9.96273E-01 1.01258E-25
9.96786E-01 9.44845E-26
9.97261E-01 8.82178E-26
9.97698E-01 8.24568E-26
9.98097E-01 7.72005E-26
9.98459E-01 7.24479E-26
9.98782E-01 6.81980E-26
9.99067E-01 6.44500E-26
9.99315E-01 6.12033E-26
9.99524E-01 5.84570E-26
9.99695E-01 5.62108E-26
9.99829E-01 5.44643E-26
9.99924E-01 5.32169E-26
9.99981E-01 5.24686E-26
1.00000E+00 5.22192E-26
