 #
 # Subroutine ELSEPA. Elastic scattering of electrons and positrons
 #                    by neutral atoms and positive ions
 #
 # Projectile: electron
 # Kinetic energy = 1.00000E+08 eV = 3.67493E+06 a.u.
 #
 # WARNING: High-energy factorization with free-atom DF screening.
 #          Absorption, polarization and exchange corrections are
 #          switched off.
 #          Phase shifts are calculated for the bare nucleus.
 #          Scattering amplitudes are not evaluated.
 #
 # Element: Pa,  Z =  91,  atomic weight = 2.31036E+02 g/mol
 #
 # Nuclear model: Fermi distribution
 #                Average radius = 6.56564E-13 cm
 #                Skin thickness = 5.46000E-14 cm
 #
 # Number of electrons = 91
 #
 # Total elastic cross section = 1.16923E-17 cm**2 = 4.17540E-01 a0**2
 # 1st transport cross section = 1.54538E-24 cm**2 = 5.51864E-08 a0**2
 # 2nd transport cross section = 4.59818E-24 cm**2 = 1.64204E-07 a0**2
 #
 #
 # Differential cross section:                       MU=(1-COS(THETA))/2
 #
 #  THETA        MU          DCS          DCS        Sherman      error
 #  (deg)                 (cm**2/sr)   (a0**2/sr)    function
 #----------------------------------------------------------------------
0.00000E+00 1.39539E-09
7.61557E-13 1.38947E-09
1.18994E-12 1.38616E-09
1.71346E-12 1.38214E-09
2.33225E-12 1.37741E-09
3.04617E-12 1.37199E-09
3.85530E-12 1.36589E-09
4.75964E-12 1.35912E-09
5.75917E-12 1.35171E-09
6.85391E-12 1.34367E-09
8.04379E-12 1.33502E-09
9.32893E-12 1.32578E-09
1.07092E-11 1.31598E-09
1.21847E-11 1.30563E-09
1.37554E-11 1.29476E-09
1.54213E-11 1.28340E-09
1.71823E-11 1.27158E-09
1.90386E-11 1.25931E-09
2.09900E-11 1.24662E-09
2.30367E-11 1.23355E-09
2.51785E-11 1.22016E-09
2.74156E-11 1.20641E-09
2.97478E-11 1.19233E-09
3.21752E-11 1.17796E-09
3.46979E-11 1.16330E-09
3.73157E-11 1.14848E-09
4.00286E-11 1.13348E-09
4.28368E-11 1.11828E-09
4.57402E-11 1.10289E-09
4.87388E-11 1.08735E-09
5.18325E-11 1.07172E-09
5.50215E-11 1.05611E-09
5.83057E-11 1.04040E-09
6.16850E-11 1.02462E-09
6.51595E-11 1.00880E-09
6.87293E-11 9.92942E-10
7.23943E-11 9.77226E-10
7.61544E-11 9.61556E-10
1.18991E-10 8.09748E-10
1.71347E-10 6.74866E-10
2.33223E-10 5.61391E-10
3.04617E-10 4.68622E-10
3.85531E-10 3.93800E-10
4.75965E-10 3.33589E-10
5.75917E-10 2.84897E-10
6.85389E-10 2.45162E-10
8.04380E-10 2.12358E-10
9.32891E-10 1.85011E-10
1.07092E-09 1.62000E-10
1.21847E-09 1.42479E-10
1.37554E-09 1.25804E-10
1.54213E-09 1.11474E-10
1.71823E-09 9.90855E-11
1.90386E-09 8.83527E-11
2.09900E-09 7.90214E-11
2.30367E-09 7.07974E-11
2.51785E-09 6.32954E-11
2.74156E-09 5.69289E-11
2.97478E-09 5.14932E-11
3.21752E-09 4.68256E-11
3.46978E-09 4.27954E-11
3.73156E-09 3.89495E-11
4.00286E-09 3.54760E-11
4.28368E-09 3.24509E-11
4.57402E-09 2.98044E-11
4.87388E-09 2.74790E-11
5.18326E-09 2.53718E-11
5.50215E-09 2.33481E-11
5.83057E-09 2.15571E-11
6.16850E-09 1.99662E-11
6.51596E-09 1.85482E-11
6.87293E-09 1.72803E-11
7.23942E-09 1.60546E-11
7.61544E-09 1.49323E-11
1.18991E-08 7.85986E-12
1.71347E-08 4.53698E-12
2.33223E-08 2.80869E-12
3.04617E-08 1.83869E-12
3.85531E-08 1.25543E-12
4.75965E-08 8.85551E-13
5.75917E-08 6.41822E-13
6.85389E-08 4.75049E-13
8.04380E-08 3.59224E-13
9.32891E-08 2.76906E-13
1.07092E-07 2.16976E-13
1.21847E-07 1.72474E-13
1.37554E-07 1.38892E-13
1.54213E-07 1.13172E-13
1.71823E-07 9.31736E-14
1.90386E-07 7.74197E-14
2.09900E-07 6.48624E-14
2.30367E-07 5.47420E-14
2.51785E-07 4.65019E-14
2.74156E-07 3.98221E-14
2.97478E-07 3.42500E-14
3.21752E-07 2.96567E-14
3.46978E-07 2.57923E-14
3.73156E-07 2.25513E-14
4.00286E-07 1.98015E-14
4.28368E-07 1.74619E-14
4.57402E-07 1.54609E-14
4.87388E-07 1.37371E-14
5.18325E-07 1.22519E-14
5.50215E-07 1.09580E-14
5.83057E-07 9.83597E-15
6.16850E-07 8.84896E-15
6.51596E-07 7.98691E-15
6.87293E-07 7.22407E-15
7.23942E-07 6.55224E-15
7.61543E-07 5.95525E-15
1.18991E-06 2.54949E-15
1.71347E-06 1.26462E-15
2.33223E-06 6.96975E-16
3.04617E-06 4.15321E-16
3.85531E-06 2.62735E-16
4.75964E-06 1.74219E-16
5.75916E-06 1.20012E-16
6.85388E-06 8.53243E-17
8.04378E-06 6.22994E-17
9.32888E-06 4.65375E-17
1.07092E-05 3.54567E-17
1.21846E-05 2.74851E-17
1.37553E-05 2.16329E-17
1.54212E-05 1.72587E-17
1.71822E-05 1.39366E-17
1.90385E-05 1.13690E-17
2.09899E-05 9.38050E-18
2.30365E-05 7.80680E-18
2.51783E-05 6.54762E-18
2.74153E-05 5.53080E-18
2.97475E-05 4.70323E-18
3.21749E-05 4.02489E-18
3.46974E-05 3.46502E-18
3.73152E-05 2.99972E-18
4.00281E-05 2.61034E-18
4.28362E-05 2.28231E-18
4.57395E-05 2.00424E-18
4.87380E-05 1.76717E-18
5.18317E-05 1.56406E-18
5.50205E-05 1.38925E-18
5.83045E-05 1.23819E-18
6.16838E-05 1.10713E-18
6.51582E-05 9.93002E-19
6.87277E-05 8.93239E-19
7.23925E-05 8.05717E-19
7.61524E-05 7.28132E-19
9.21439E-05 4.98650E-19
1.09658E-04 3.52899E-19
1.28695E-04 2.56756E-19
1.49255E-04 1.91261E-19
1.71338E-04 1.45398E-19
1.94942E-04 1.12512E-19
2.20070E-04 8.84311E-20
2.46720E-04 7.04710E-20
2.74892E-04 5.68567E-20
3.04586E-04 4.63825E-20
3.35803E-04 3.82190E-20
3.68542E-04 3.17792E-20
4.02802E-04 2.66442E-20
4.38585E-04 2.25089E-20
4.75889E-04 1.91481E-20
5.14715E-04 1.63942E-20
5.55063E-04 1.41198E-20
5.96931E-04 1.22281E-20
6.40321E-04 1.06443E-20
6.85233E-04 9.30989E-21
7.31665E-04 8.17929E-21
7.79618E-04 7.21605E-21
8.29092E-04 6.39130E-21
8.80086E-04 5.68175E-21
9.32601E-04 5.06855E-21
9.86636E-04 4.53640E-21
1.04219E-03 4.07274E-21
1.09927E-03 3.66721E-21
1.15786E-03 3.31125E-21
1.21797E-03 2.99777E-21
1.27961E-03 2.72077E-21
1.34276E-03 2.47528E-21
1.40743E-03 2.25707E-21
1.47362E-03 2.06256E-21
1.54133E-03 1.88872E-21
1.61056E-03 1.73297E-21
1.68131E-03 1.59307E-21
1.75357E-03 1.46712E-21
1.82735E-03 1.35348E-21
1.90265E-03 1.25072E-21
1.97947E-03 1.15761E-21
2.05780E-03 1.07308E-21
2.13765E-03 9.96198E-22
2.21902E-03 9.26135E-22
2.30190E-03 8.62179E-22
2.38630E-03 8.03697E-22
2.47222E-03 7.50138E-22
2.55965E-03 7.01010E-22
2.64859E-03 6.55884E-22
2.73905E-03 6.14384E-22
2.83103E-03 5.76124E-22
2.92452E-03 5.40787E-22
3.01952E-03 5.08138E-22
3.11604E-03 4.77936E-22
3.21407E-03 4.49961E-22
3.31362E-03 4.24019E-22
3.41468E-03 3.99933E-22
3.51725E-03 3.77544E-22
3.62133E-03 3.56711E-22
3.72692E-03 3.37305E-22
3.83403E-03 3.19209E-22
3.94265E-03 3.02318E-22
4.05278E-03 2.86535E-22
4.16442E-03 2.71775E-22
4.27757E-03 2.57958E-22
4.39223E-03 2.45012E-22
4.50840E-03 2.32871E-22
4.62608E-03 2.21477E-22
4.74527E-03 2.10773E-22
4.86597E-03 2.00711E-22
4.98817E-03 1.91243E-22
5.11188E-03 1.82329E-22
5.23711E-03 1.73929E-22
5.36383E-03 1.66009E-22
5.49207E-03 1.58534E-22
5.62181E-03 1.51476E-22
5.75306E-03 1.44807E-22
5.88581E-03 1.38501E-22
6.02007E-03 1.32534E-22
6.15583E-03 1.26884E-22
6.29310E-03 1.21532E-22
6.43187E-03 1.16459E-22
6.57214E-03 1.11646E-22
6.71392E-03 1.07079E-22
6.85720E-03 1.02743E-22
7.00198E-03 9.86225E-23
7.14827E-03 9.47057E-23
7.29605E-03 9.09803E-23
7.44534E-03 8.74352E-23
7.59612E-03 8.40600E-23
7.97965E-03 7.63027E-23
8.37255E-03 6.94127E-23
8.77480E-03 6.32757E-23
9.18641E-03 5.77945E-23
9.60736E-03 5.28865E-23
1.00376E-02 4.84812E-23
1.04773E-02 4.45176E-23
1.09262E-02 4.09438E-23
1.13844E-02 3.77143E-23
1.18520E-02 3.47903E-23
1.23288E-02 3.21376E-23
1.28150E-02 2.97266E-23
1.33104E-02 2.75313E-23
1.38150E-02 2.55292E-23
1.43290E-02 2.37001E-23
1.48521E-02 2.20265E-23
1.53845E-02 2.04929E-23
1.59262E-02 1.90855E-23
1.64770E-02 1.77922E-23
1.70371E-02 1.66021E-23
1.76063E-02 1.55056E-23
1.81848E-02 1.44941E-23
1.87724E-02 1.35598E-23
1.93692E-02 1.26959E-23
1.99751E-02 1.18961E-23
2.05901E-02 1.11550E-23
2.12143E-02 1.04675E-23
2.18476E-02 9.82917E-24
2.24900E-02 9.23582E-24
2.31415E-02 8.68382E-24
2.38021E-02 8.16981E-24
2.44717E-02 7.69078E-24
2.51504E-02 7.24397E-24
2.58382E-02 6.82686E-24
2.65349E-02 6.43720E-24
2.72407E-02 6.07288E-24
2.79555E-02 5.73202E-24
2.86793E-02 5.41288E-24
2.94120E-02 5.11386E-24
3.01537E-02 4.83352E-24
3.09043E-02 4.57051E-24
3.16639E-02 4.32362E-24
3.24324E-02 4.09171E-24
3.32098E-02 3.87374E-24
3.39961E-02 3.66877E-24
3.47912E-02 3.47591E-24
3.55952E-02 3.29434E-24
3.64081E-02 3.12332E-24
3.72297E-02 2.96216E-24
3.80602E-02 2.81021E-24
3.88995E-02 2.66688E-24
3.97476E-02 2.53161E-24
4.06044E-02 2.40390E-24
4.14700E-02 2.28327E-24
4.23443E-02 2.16928E-24
4.32273E-02 2.06152E-24
4.41190E-02 1.95961E-24
4.50194E-02 1.86320E-24
4.59284E-02 1.77196E-24
4.68461E-02 1.68557E-24
4.87074E-02 1.52623E-24
5.06030E-02 1.38311E-24
5.25328E-02 1.25439E-24
5.44967E-02 1.13849E-24
5.64946E-02 1.03402E-24
5.85262E-02 9.39732E-25
6.05914E-02 8.54563E-25
6.26901E-02 7.77554E-25
6.48222E-02 7.07860E-25
6.69873E-02 6.44734E-25
6.91854E-02 5.87510E-25
7.14163E-02 5.35598E-25
7.36799E-02 4.88472E-25
7.59760E-02 4.45662E-25
7.83043E-02 4.06748E-25
8.06647E-02 3.71355E-25
8.30571E-02 3.39147E-25
8.54812E-02 3.09822E-25
8.79369E-02 2.83110E-25
9.04240E-02 2.58765E-25
9.29422E-02 2.36571E-25
9.54915E-02 2.16328E-25
9.80716E-02 1.97858E-25
1.00682E-01 1.81000E-25
1.03323E-01 1.65609E-25
1.05995E-01 1.51554E-25
1.08696E-01 1.38714E-25
1.11427E-01 1.26982E-25
1.14188E-01 1.16260E-25
1.16978E-01 1.06459E-25
1.19797E-01 9.74981E-26
1.22645E-01 8.93041E-26
1.25522E-01 8.18102E-26
1.28428E-01 7.49557E-26
1.31361E-01 6.86852E-26
1.34323E-01 6.29485E-26
1.37313E-01 5.76996E-26
1.40330E-01 5.28966E-26
1.43375E-01 4.85014E-26
1.46447E-01 4.44791E-26
1.49545E-01 4.07979E-26
1.52671E-01 3.74287E-26
1.55823E-01 3.43449E-26
1.59001E-01 3.15224E-26
1.62205E-01 2.89389E-26
1.65435E-01 2.65741E-26
1.68690E-01 2.44095E-26
1.71970E-01 2.24281E-26
1.75276E-01 2.06144E-26
1.78606E-01 1.89541E-26
1.81961E-01 1.74342E-26
1.85340E-01 1.60429E-26
1.88743E-01 1.47691E-26
1.92169E-01 1.36030E-26
1.95619E-01 1.25353E-26
1.99092E-01 1.15577E-26
2.02589E-01 1.06626E-26
2.06107E-01 9.84285E-27
2.09649E-01 9.09207E-27
2.13212E-01 8.40437E-27
2.16797E-01 7.77435E-27
2.20404E-01 7.19708E-27
2.24032E-01 6.66802E-27
2.27680E-01 6.18305E-27
2.31350E-01 5.73837E-27
2.35040E-01 5.33051E-27
2.38751E-01 4.95630E-27
2.42481E-01 4.61283E-27
2.46231E-01 4.29745E-27
2.50000E-01 4.00773E-27
2.53788E-01 3.74145E-27
2.57595E-01 3.49657E-27
2.61421E-01 3.27124E-27
2.65264E-01 3.06376E-27
2.69126E-01 2.87258E-27
2.73005E-01 2.69628E-27
2.76901E-01 2.53358E-27
2.80814E-01 2.38329E-27
2.84744E-01 2.24434E-27
2.88691E-01 2.11574E-27
2.92653E-01 1.99660E-27
2.96632E-01 1.88610E-27
3.00625E-01 1.78350E-27
3.04634E-01 1.68811E-27
3.08658E-01 1.59933E-27
3.12697E-01 1.51659E-27
3.16749E-01 1.43938E-27
3.20816E-01 1.36723E-27
3.24896E-01 1.29972E-27
3.28990E-01 1.23646E-27
3.33097E-01 1.17711E-27
3.37216E-01 1.12134E-27
3.41348E-01 1.06886E-27
3.45492E-01 1.01942E-27
3.49647E-01 9.72773E-28
3.53814E-01 9.28701E-28
3.57992E-01 8.87009E-28
3.62181E-01 8.47518E-28
3.66381E-01 8.10066E-28
3.70590E-01 7.74505E-28
3.74810E-01 7.40701E-28
3.79039E-01 7.08532E-28
3.83277E-01 6.77887E-28
3.87524E-01 6.48667E-28
3.91780E-01 6.20778E-28
3.96044E-01 5.94139E-28
4.00316E-01 5.68673E-28
4.04596E-01 5.44310E-28
4.08882E-01 5.20988E-28
4.13176E-01 4.98649E-28
4.17476E-01 4.77239E-28
4.21783E-01 4.56711E-28
4.26095E-01 4.37020E-28
4.30413E-01 4.18125E-28
4.34737E-01 3.99989E-28
4.39065E-01 3.82576E-28
4.43398E-01 3.65854E-28
4.47736E-01 3.49793E-28
4.52077E-01 3.34366E-28
4.56422E-01 3.19547E-28
4.60770E-01 3.05311E-28
4.65122E-01 2.91636E-28
4.69476E-01 2.78500E-28
4.73832E-01 2.65882E-28
4.78190E-01 2.53765E-28
4.82550E-01 2.42130E-28
4.86912E-01 2.30959E-28
4.91274E-01 2.20236E-28
4.95637E-01 2.09946E-28
5.00000E-01 2.00073E-28
5.04363E-01 1.90604E-28
5.08726E-01 1.81524E-28
5.13088E-01 1.72820E-28
5.17450E-01 1.64479E-28
5.21810E-01 1.56488E-28
5.26168E-01 1.48836E-28
5.30524E-01 1.41511E-28
5.34878E-01 1.34502E-28
5.39230E-01 1.27797E-28
5.43578E-01 1.21386E-28
5.47923E-01 1.15258E-28
5.52264E-01 1.09404E-28
5.56602E-01 1.03813E-28
5.60935E-01 9.84759E-29
5.65263E-01 9.33835E-29
5.69587E-01 8.85267E-29
5.73905E-01 8.38966E-29
5.78217E-01 7.94846E-29
5.82524E-01 7.52824E-29
5.86824E-01 7.12817E-29
5.91118E-01 6.74746E-29
5.95404E-01 6.38535E-29
5.99684E-01 6.04110E-29
6.03956E-01 5.71396E-29
6.08220E-01 5.40324E-29
6.12476E-01 5.10824E-29
6.16723E-01 4.82832E-29
6.20961E-01 4.56281E-29
6.25190E-01 4.31110E-29
6.29410E-01 4.07258E-29
6.33619E-01 3.84667E-29
6.37819E-01 3.63280E-29
6.42008E-01 3.43042E-29
6.46186E-01 3.23901E-29
6.50353E-01 3.05805E-29
6.54508E-01 2.88705E-29
6.58652E-01 2.72554E-29
6.62784E-01 2.57306E-29
6.66903E-01 2.42917E-29
6.71010E-01 2.29344E-29
6.75104E-01 2.16547E-29
6.79184E-01 2.04487E-29
6.83251E-01 1.93126E-29
6.87303E-01 1.82428E-29
6.91342E-01 1.72358E-29
6.95366E-01 1.62883E-29
6.99375E-01 1.53972E-29
7.03368E-01 1.45593E-29
7.07347E-01 1.37719E-29
7.11309E-01 1.30321E-29
7.15256E-01 1.23373E-29
7.19186E-01 1.16849E-29
7.23099E-01 1.10725E-29
7.26995E-01 1.04979E-29
7.30874E-01 9.95876E-30
7.34736E-01 9.45310E-30
7.38579E-01 8.97890E-30
7.42405E-01 8.53429E-30
7.46212E-01 8.11746E-30
7.50000E-01 7.72673E-30
7.53769E-01 7.36048E-30
7.57519E-01 7.01719E-30
7.61249E-01 6.69541E-30
7.64960E-01 6.39377E-30
7.68650E-01 6.11098E-30
7.72320E-01 5.84582E-30
7.75968E-01 5.59713E-30
7.79596E-01 5.36383E-30
7.83203E-01 5.14488E-30
7.86788E-01 4.93933E-30
7.90351E-01 4.74626E-30
7.93893E-01 4.56481E-30
7.97411E-01 4.39419E-30
8.00908E-01 4.23363E-30
8.04381E-01 4.08242E-30
8.07831E-01 3.93991E-30
8.11257E-01 3.80546E-30
8.14660E-01 3.67850E-30
8.18039E-01 3.55849E-30
8.21394E-01 3.44490E-30
8.24724E-01 3.33727E-30
8.28030E-01 3.23515E-30
8.31310E-01 3.13813E-30
8.34565E-01 3.04582E-30
8.37795E-01 2.95787E-30
8.40999E-01 2.87395E-30
8.44177E-01 2.79374E-30
8.47329E-01 2.71696E-30
8.50455E-01 2.64335E-30
8.53553E-01 2.57266E-30
8.56625E-01 2.50466E-30
8.59670E-01 2.43915E-30
8.62687E-01 2.37594E-30
8.65677E-01 2.31484E-30
8.68639E-01 2.25569E-30
8.71572E-01 2.19835E-30
8.74478E-01 2.14269E-30
8.77355E-01 2.08856E-30
8.80203E-01 2.03586E-30
8.83022E-01 1.98449E-30
8.85812E-01 1.93435E-30
8.88573E-01 1.88536E-30
8.91304E-01 1.83743E-30
8.94005E-01 1.79050E-30
8.96677E-01 1.74450E-30
8.99318E-01 1.69937E-30
9.01928E-01 1.65508E-30
9.04508E-01 1.61156E-30
9.07058E-01 1.56878E-30
9.09576E-01 1.52670E-30
9.12063E-01 1.48529E-30
9.14519E-01 1.44453E-30
9.16943E-01 1.40438E-30
9.19335E-01 1.36483E-30
9.21696E-01 1.32586E-30
9.24024E-01 1.28746E-30
9.26320E-01 1.24960E-30
9.28584E-01 1.21228E-30
9.30815E-01 1.17550E-30
9.33013E-01 1.13923E-30
9.35178E-01 1.10349E-30
9.37310E-01 1.06825E-30
9.39409E-01 1.03353E-30
9.41474E-01 9.99322E-31
9.43505E-01 9.65619E-31
9.45503E-01 9.32426E-31
9.47467E-01 8.99744E-31
9.49397E-01 8.67573E-31
9.51293E-01 8.35917E-31
9.53154E-01 8.04779E-31
9.54981E-01 7.74162E-31
9.56773E-01 7.44070E-31
9.58530E-01 7.14507E-31
9.60252E-01 6.85477E-31
9.61940E-01 6.56986E-31
9.63592E-01 6.29036E-31
9.65209E-01 6.01634E-31
9.66790E-01 5.74784E-31
9.68336E-01 5.48492E-31
9.69846E-01 5.22762E-31
9.71321E-01 4.97598E-31
9.72759E-01 4.73007E-31
9.74162E-01 4.48993E-31
9.75528E-01 4.25561E-31
9.76858E-01 4.02716E-31
9.78152E-01 3.80461E-31
9.79410E-01 3.58803E-31
9.80631E-01 3.37744E-31
9.81815E-01 3.17290E-31
9.82963E-01 2.97445E-31
9.84074E-01 2.78213E-31
9.85148E-01 2.59597E-31
9.86185E-01 2.41601E-31
9.87185E-01 2.24230E-31
9.88148E-01 2.07486E-31
9.89074E-01 1.91373E-31
9.89962E-01 1.75894E-31
9.90814E-01 1.61052E-31
9.91627E-01 1.46850E-31
9.92404E-01 1.33291E-31
9.93143E-01 1.20377E-31
9.93844E-01 1.08111E-31
9.94508E-01 9.64951E-32
9.95134E-01 8.55315E-32
9.95722E-01 7.52224E-32
9.96273E-01 6.55695E-32
9.96786E-01 5.65748E-32
9.97261E-01 4.82398E-32
9.97698E-01 4.05661E-32
9.98097E-01 3.35550E-32
9.98459E-01 2.72079E-32
9.98782E-01 2.15259E-32
9.99067E-01 1.65100E-32
9.99315E-01 1.21610E-32
9.99524E-01 8.47987E-33
9.99695E-01 5.46711E-33
9.99829E-01 3.12332E-33
9.99924E-01 1.44887E-33
9.99981E-01 4.44091E-34
1.00000E+00 1.09145E-34
