 #
 # Subroutine ELSEPA. Elastic scattering of electrons and positrons
 #                    by neutral atoms and positive ions
 #
 # Projectile: electron
 # Kinetic energy = 7.00000E+06 eV = 2.57245E+05 a.u.
 #
 # WARNING: High-energy factorization with free-atom DF screening.
 #          Absorption, polarization and exchange corrections are
 #          switched off.
 #          Phase shifts are calculated for the bare nucleus.
 #          Scattering amplitudes are not evaluated.
 #
 # Element: Pa,  Z =  91,  atomic weight = 2.31036E+02 g/mol
 #
 # Nuclear model: Fermi distribution
 #                Average radius = 6.56564E-13 cm
 #                Skin thickness = 5.46000E-14 cm
 #
 # Number of electrons = 91
 #
 # Total elastic cross section = 1.17555E-17 cm**2 = 4.19795E-01 a0**2
 # 1st transport cross section = 2.60097E-22 cm**2 = 9.28825E-06 a0**2
 # 2nd transport cross section = 6.92892E-22 cm**2 = 2.47436E-05 a0**2
 #
 #
 # Differential cross section:                       MU=(1-COS(THETA))/2
 #
 #  THETA        MU          DCS          DCS        Sherman      error
 #  (deg)                 (cm**2/sr)   (a0**2/sr)    function
 #----------------------------------------------------------------------
0.00000E+00 7.79227E-12
7.61557E-13 7.79208E-12
1.18994E-12 7.79198E-12
1.71346E-12 7.79185E-12
2.33225E-12 7.79170E-12
3.04617E-12 7.79153E-12
3.85530E-12 7.79133E-12
4.75964E-12 7.79111E-12
5.75917E-12 7.79087E-12
6.85391E-12 7.79061E-12
8.04379E-12 7.79032E-12
9.32893E-12 7.79001E-12
1.07092E-11 7.78968E-12
1.21847E-11 7.78932E-12
1.37554E-11 7.78894E-12
1.54213E-11 7.78854E-12
1.71823E-11 7.78811E-12
1.90386E-11 7.78766E-12
2.09900E-11 7.78719E-12
2.30367E-11 7.78670E-12
2.51785E-11 7.78618E-12
2.74156E-11 7.78564E-12
2.97478E-11 7.78508E-12
3.21752E-11 7.78449E-12
3.46979E-11 7.78388E-12
3.73157E-11 7.78325E-12
4.00286E-11 7.78260E-12
4.28368E-11 7.78192E-12
4.57402E-11 7.78122E-12
4.87388E-11 7.78050E-12
5.18325E-11 7.77975E-12
5.50215E-11 7.77899E-12
5.83057E-11 7.77819E-12
6.16850E-11 7.77738E-12
6.51595E-11 7.77654E-12
6.87293E-11 7.77568E-12
7.23943E-11 7.77480E-12
7.61544E-11 7.77390E-12
1.18991E-10 7.76360E-12
1.71347E-10 7.75105E-12
2.33223E-10 7.73626E-12
3.04617E-10 7.71925E-12
3.85531E-10 7.70005E-12
4.75965E-10 7.67869E-12
5.75917E-10 7.65519E-12
6.85389E-10 7.62959E-12
8.04380E-10 7.60193E-12
9.32891E-10 7.57224E-12
1.07092E-09 7.54057E-12
1.21847E-09 7.50695E-12
1.37554E-09 7.47144E-12
1.54213E-09 7.43409E-12
1.71823E-09 7.39493E-12
1.90386E-09 7.35403E-12
2.09900E-09 7.31144E-12
2.30367E-09 7.26721E-12
2.51785E-09 7.22141E-12
2.74156E-09 7.17408E-12
2.97478E-09 7.12529E-12
3.21752E-09 7.07510E-12
3.46978E-09 7.02357E-12
3.73156E-09 6.97075E-12
4.00286E-09 6.91672E-12
4.28368E-09 6.86168E-12
4.57402E-09 6.80555E-12
4.87388E-09 6.74834E-12
5.18326E-09 6.69010E-12
5.50215E-09 6.63089E-12
5.83057E-09 6.57076E-12
6.16850E-09 6.50977E-12
6.51596E-09 6.44821E-12
6.87293E-09 6.38626E-12
7.23942E-09 6.32363E-12
7.61544E-09 6.26037E-12
1.18991E-08 5.60930E-12
1.71347E-08 4.96007E-12
2.33223E-08 4.34844E-12
3.04617E-08 3.79409E-12
3.85531E-08 3.30705E-12
4.75965E-08 2.88593E-12
5.75917E-08 2.52564E-12
6.85389E-08 2.21957E-12
8.04380E-08 1.95917E-12
9.32891E-08 1.73724E-12
1.07092E-07 1.54722E-12
1.21847E-07 1.38375E-12
1.37554E-07 1.24211E-12
1.54213E-07 1.11871E-12
1.71823E-07 1.01079E-12
1.90386E-07 9.15552E-13
2.09900E-07 8.31415E-13
2.30367E-07 7.56803E-13
2.51785E-07 6.90129E-13
2.74156E-07 6.30672E-13
2.97478E-07 5.77392E-13
3.21752E-07 5.29479E-13
3.46978E-07 4.86452E-13
3.73156E-07 4.47604E-13
4.00286E-07 4.12528E-13
4.28368E-07 3.79360E-13
4.57402E-07 3.49357E-13
4.87388E-07 3.22794E-13
5.18325E-07 2.99198E-13
5.50215E-07 2.78169E-13
5.83057E-07 2.59371E-13
6.16850E-07 2.42514E-13
6.51596E-07 2.26526E-13
6.87293E-07 2.10911E-13
7.23942E-07 1.96857E-13
7.61543E-07 1.84176E-13
1.18991E-06 1.01618E-13
1.71347E-06 6.08106E-14
2.33223E-06 3.86341E-14
3.04617E-06 2.58252E-14
3.85531E-06 1.79276E-14
4.75964E-06 1.28738E-14
5.75916E-06 9.50597E-15
6.85388E-06 7.16326E-15
8.04378E-06 5.50183E-15
9.32888E-06 4.29238E-15
1.07092E-05 3.39372E-15
1.21846E-05 2.71513E-15
1.37553E-05 2.19832E-15
1.54212E-05 1.79977E-15
1.71822E-05 1.48854E-15
1.90385E-05 1.24080E-15
2.09899E-05 1.04437E-15
2.30365E-05 8.85424E-16
2.51783E-05 7.55450E-16
2.74153E-05 6.48591E-16
2.97475E-05 5.60043E-16
3.21749E-05 4.86148E-16
3.46974E-05 4.24166E-16
3.73152E-05 3.71792E-16
4.00281E-05 3.27309E-16
4.28362E-05 2.89132E-16
4.57395E-05 2.56482E-16
4.87380E-05 2.28517E-16
5.18317E-05 2.04064E-16
5.50205E-05 1.82837E-16
5.83045E-05 1.64420E-16
6.16838E-05 1.48148E-16
6.51582E-05 1.33892E-16
6.87277E-05 1.21388E-16
7.23925E-05 1.10232E-16
7.61524E-05 1.00365E-16
9.21439E-05 7.04869E-17
1.09658E-04 5.09433E-17
1.28695E-04 3.77474E-17
1.49255E-04 2.85580E-17
1.71338E-04 2.19929E-17
1.94942E-04 1.72100E-17
2.20070E-04 1.36560E-17
2.46720E-04 1.09729E-17
2.74892E-04 8.91863E-18
3.04586E-04 7.32301E-18
3.35803E-04 6.06985E-18
3.68542E-04 5.07445E-18
4.02802E-04 4.27527E-18
4.38585E-04 3.62808E-18
4.75889E-04 3.09918E-18
5.14715E-04 2.66349E-18
5.55063E-04 2.30199E-18
5.96931E-04 1.99990E-18
6.40321E-04 1.74588E-18
6.85233E-04 1.53105E-18
7.31665E-04 1.34827E-18
7.79618E-04 1.19202E-18
8.29092E-04 1.05780E-18
8.80086E-04 9.41936E-19
9.32601E-04 8.41538E-19
9.86636E-04 7.54174E-19
1.04219E-03 6.77857E-19
1.09927E-03 6.10970E-19
1.15786E-03 5.52128E-19
1.21797E-03 5.00210E-19
1.27961E-03 4.54263E-19
1.34276E-03 4.13468E-19
1.40743E-03 3.77161E-19
1.47362E-03 3.44757E-19
1.54133E-03 3.15763E-19
1.61056E-03 2.89759E-19
1.68131E-03 2.66381E-19
1.75357E-03 2.45319E-19
1.82735E-03 2.26302E-19
1.90265E-03 2.09096E-19
1.97947E-03 1.93498E-19
2.05780E-03 1.79333E-19
2.13765E-03 1.66443E-19
2.21902E-03 1.54694E-19
2.30190E-03 1.43967E-19
2.38630E-03 1.34157E-19
2.47222E-03 1.25171E-19
2.55965E-03 1.16928E-19
2.64859E-03 1.09355E-19
2.73905E-03 1.02388E-19
2.83103E-03 9.59691E-20
2.92452E-03 9.00477E-20
3.01952E-03 8.45781E-20
3.11604E-03 7.95194E-20
3.21407E-03 7.48352E-20
3.31362E-03 7.04925E-20
3.41468E-03 6.64620E-20
3.51725E-03 6.27170E-20
3.62133E-03 5.92335E-20
3.72692E-03 5.59899E-20
3.83403E-03 5.29667E-20
3.94265E-03 5.01459E-20
4.05278E-03 4.75116E-20
4.16442E-03 4.50489E-20
4.27757E-03 4.27452E-20
4.39223E-03 4.05874E-20
4.50840E-03 3.85654E-20
4.62608E-03 3.66683E-20
4.74527E-03 3.48875E-20
4.86597E-03 3.32142E-20
4.98817E-03 3.16407E-20
5.11188E-03 3.01601E-20
5.23711E-03 2.87657E-20
5.36383E-03 2.74518E-20
5.49207E-03 2.62124E-20
5.62181E-03 2.50430E-20
5.75306E-03 2.39384E-20
5.88581E-03 2.28948E-20
6.02007E-03 2.19078E-20
6.15583E-03 2.09739E-20
6.29310E-03 2.00898E-20
6.43187E-03 1.92522E-20
6.57214E-03 1.84582E-20
6.71392E-03 1.77051E-20
6.85720E-03 1.69905E-20
7.00198E-03 1.63118E-20
7.14827E-03 1.56672E-20
7.29605E-03 1.50543E-20
7.44534E-03 1.44715E-20
7.59612E-03 1.39169E-20
7.97965E-03 1.26436E-20
8.37255E-03 1.15142E-20
8.77480E-03 1.05096E-20
9.18641E-03 9.61354E-21
9.60736E-03 8.81215E-21
1.00376E-02 8.09367E-21
1.04773E-02 7.44794E-21
1.09262E-02 6.86627E-21
1.13844E-02 6.34116E-21
1.18520E-02 5.86607E-21
1.23288E-02 5.43540E-21
1.28150E-02 5.04419E-21
1.33104E-02 4.68819E-21
1.38150E-02 4.36363E-21
1.43290E-02 4.06720E-21
1.48521E-02 3.79603E-21
1.53845E-02 3.54756E-21
1.59262E-02 3.31952E-21
1.64770E-02 3.10992E-21
1.70371E-02 2.91698E-21
1.76063E-02 2.73913E-21
1.81848E-02 2.57496E-21
1.87724E-02 2.42323E-21
1.93692E-02 2.28279E-21
1.99751E-02 2.15266E-21
2.05901E-02 2.03193E-21
2.12143E-02 1.91979E-21
2.18476E-02 1.81551E-21
2.24900E-02 1.71842E-21
2.31415E-02 1.62794E-21
2.38021E-02 1.54353E-21
2.44717E-02 1.46470E-21
2.51504E-02 1.39101E-21
2.58382E-02 1.32206E-21
2.65349E-02 1.25747E-21
2.72407E-02 1.19693E-21
2.79555E-02 1.14012E-21
2.86793E-02 1.08677E-21
2.94120E-02 1.03663E-21
3.01537E-02 9.89463E-22
3.09043E-02 9.45055E-22
3.16639E-02 9.03216E-22
3.24324E-02 8.63765E-22
3.32098E-02 8.26536E-22
3.39961E-02 7.91382E-22
3.47912E-02 7.58162E-22
3.55952E-02 7.26745E-22
3.64081E-02 6.97016E-22
3.72297E-02 6.68864E-22
3.80602E-02 6.42188E-22
3.88995E-02 6.16894E-22
3.97476E-02 5.92896E-22
4.06044E-02 5.70113E-22
4.14700E-02 5.48471E-22
4.23443E-02 5.27901E-22
4.32273E-02 5.08338E-22
4.41190E-02 4.89721E-22
4.50194E-02 4.71996E-22
4.59284E-02 4.55112E-22
4.68461E-02 4.39017E-22
4.87074E-02 4.09025E-22
5.06030E-02 3.81695E-22
5.25328E-02 3.56741E-22
5.44967E-02 3.33913E-22
5.64946E-02 3.12993E-22
5.85262E-02 2.93786E-22
6.05914E-02 2.76124E-22
6.26901E-02 2.59855E-22
6.48222E-02 2.44845E-22
6.69873E-02 2.30976E-22
6.91854E-02 2.18141E-22
7.14163E-02 2.06248E-22
7.36799E-02 1.95211E-22
7.59760E-02 1.84955E-22
7.83043E-02 1.75412E-22
8.06647E-02 1.66522E-22
8.30571E-02 1.58230E-22
8.54812E-02 1.50486E-22
8.79369E-02 1.43245E-22
9.04240E-02 1.36468E-22
9.29422E-02 1.30118E-22
9.54915E-02 1.24161E-22
9.80716E-02 1.18568E-22
1.00682E-01 1.13310E-22
1.03323E-01 1.08364E-22
1.05995E-01 1.03705E-22
1.08696E-01 9.93146E-23
1.11427E-01 9.51721E-23
1.14188E-01 9.12603E-23
1.16978E-01 8.75632E-23
1.19797E-01 8.40663E-23
1.22645E-01 8.07560E-23
1.25522E-01 7.76200E-23
1.28428E-01 7.46467E-23
1.31361E-01 7.18253E-23
1.34323E-01 6.91465E-23
1.37313E-01 6.66011E-23
1.40330E-01 6.41808E-23
1.43375E-01 6.18779E-23
1.46447E-01 5.96850E-23
1.49545E-01 5.75958E-23
1.52671E-01 5.56042E-23
1.55823E-01 5.37042E-23
1.59001E-01 5.18906E-23
1.62205E-01 5.01583E-23
1.65435E-01 4.85030E-23
1.68690E-01 4.69203E-23
1.71970E-01 4.54061E-23
1.75276E-01 4.39564E-23
1.78606E-01 4.25681E-23
1.81961E-01 4.12379E-23
1.85340E-01 3.99627E-23
1.88743E-01 3.87393E-23
1.92169E-01 3.75653E-23
1.95619E-01 3.64383E-23
1.99092E-01 3.53558E-23
2.02589E-01 3.43154E-23
2.06107E-01 3.33151E-23
2.09649E-01 3.23531E-23
2.13212E-01 3.14274E-23
2.16797E-01 3.05363E-23
2.20404E-01 2.96781E-23
2.24032E-01 2.88514E-23
2.27680E-01 2.80545E-23
2.31350E-01 2.72863E-23
2.35040E-01 2.65453E-23
2.38751E-01 2.58302E-23
2.42481E-01 2.51401E-23
2.46231E-01 2.44737E-23
2.50000E-01 2.38301E-23
2.53788E-01 2.32081E-23
2.57595E-01 2.26070E-23
2.61421E-01 2.20258E-23
2.65264E-01 2.14636E-23
2.69126E-01 2.09197E-23
2.73005E-01 2.03934E-23
2.76901E-01 1.98838E-23
2.80814E-01 1.93904E-23
2.84744E-01 1.89124E-23
2.88691E-01 1.84492E-23
2.92653E-01 1.80003E-23
2.96632E-01 1.75651E-23
3.00625E-01 1.71431E-23
3.04634E-01 1.67338E-23
3.08658E-01 1.63366E-23
3.12697E-01 1.59511E-23
3.16749E-01 1.55769E-23
3.20816E-01 1.52136E-23
3.24896E-01 1.48607E-23
3.28990E-01 1.45178E-23
3.33097E-01 1.41847E-23
3.37216E-01 1.38610E-23
3.41348E-01 1.35462E-23
3.45492E-01 1.32402E-23
3.49647E-01 1.29425E-23
3.53814E-01 1.26530E-23
3.57992E-01 1.23712E-23
3.62181E-01 1.20971E-23
3.66381E-01 1.18302E-23
3.70590E-01 1.15704E-23
3.74810E-01 1.13173E-23
3.79039E-01 1.10709E-23
3.83277E-01 1.08309E-23
3.87524E-01 1.05970E-23
3.91780E-01 1.03690E-23
3.96044E-01 1.01469E-23
4.00316E-01 9.93026E-24
4.04596E-01 9.71908E-24
4.08882E-01 9.51314E-24
4.13176E-01 9.31227E-24
4.17476E-01 9.11630E-24
4.21783E-01 8.92511E-24
4.26095E-01 8.73853E-24
4.30413E-01 8.55642E-24
4.34737E-01 8.37866E-24
4.39065E-01 8.20511E-24
4.43398E-01 8.03565E-24
4.47736E-01 7.87015E-24
4.52077E-01 7.70850E-24
4.56422E-01 7.55059E-24
4.60770E-01 7.39631E-24
4.65122E-01 7.24556E-24
4.69476E-01 7.09824E-24
4.73832E-01 6.95425E-24
4.78190E-01 6.81349E-24
4.82550E-01 6.67590E-24
4.86912E-01 6.54137E-24
4.91274E-01 6.40983E-24
4.95637E-01 6.28120E-24
5.00000E-01 6.15540E-24
5.04363E-01 6.03210E-24
5.08726E-01 5.91145E-24
5.13088E-01 5.79338E-24
5.17450E-01 5.67783E-24
5.21810E-01 5.56473E-24
5.26168E-01 5.45403E-24
5.30524E-01 5.34565E-24
5.34878E-01 5.23953E-24
5.39230E-01 5.13562E-24
5.43578E-01 5.03386E-24
5.47923E-01 4.93420E-24
5.52264E-01 4.83658E-24
5.56602E-01 4.74095E-24
5.60935E-01 4.64726E-24
5.65263E-01 4.55547E-24
5.69587E-01 4.46552E-24
5.73905E-01 4.37737E-24
5.78217E-01 4.29098E-24
5.82524E-01 4.20631E-24
5.86824E-01 4.12330E-24
5.91118E-01 4.04194E-24
5.95404E-01 3.96216E-24
5.99684E-01 3.88394E-24
6.03956E-01 3.80725E-24
6.08220E-01 3.73203E-24
6.12476E-01 3.65827E-24
6.16723E-01 3.58592E-24
6.20961E-01 3.51496E-24
6.25190E-01 3.44535E-24
6.29410E-01 3.37706E-24
6.33619E-01 3.31006E-24
6.37819E-01 3.24432E-24
6.42008E-01 3.17982E-24
6.46186E-01 3.11652E-24
6.50353E-01 3.05441E-24
6.54508E-01 2.99345E-24
6.58652E-01 2.93362E-24
6.62784E-01 2.87489E-24
6.66903E-01 2.81725E-24
6.71010E-01 2.76066E-24
6.75104E-01 2.70511E-24
6.79184E-01 2.65057E-24
6.83251E-01 2.59702E-24
6.87303E-01 2.54444E-24
6.91342E-01 2.49282E-24
6.95366E-01 2.44213E-24
6.99375E-01 2.39234E-24
7.03368E-01 2.34346E-24
7.07347E-01 2.29544E-24
7.11309E-01 2.24829E-24
7.15256E-01 2.20197E-24
7.19186E-01 2.15648E-24
7.23099E-01 2.11180E-24
7.26995E-01 2.06790E-24
7.30874E-01 2.02479E-24
7.34736E-01 1.98243E-24
7.38579E-01 1.94082E-24
7.42405E-01 1.89994E-24
7.46212E-01 1.85978E-24
7.50000E-01 1.82032E-24
7.53769E-01 1.78155E-24
7.57519E-01 1.74346E-24
7.61249E-01 1.70604E-24
7.64960E-01 1.66926E-24
7.68650E-01 1.63313E-24
7.72320E-01 1.59762E-24
7.75968E-01 1.56274E-24
7.79596E-01 1.52846E-24
7.83203E-01 1.49477E-24
7.86788E-01 1.46167E-24
7.90351E-01 1.42914E-24
7.93893E-01 1.39718E-24
7.97411E-01 1.36577E-24
8.00908E-01 1.33490E-24
8.04381E-01 1.30457E-24
8.07831E-01 1.27476E-24
8.11257E-01 1.24547E-24
8.14660E-01 1.21669E-24
8.18039E-01 1.18841E-24
8.21394E-01 1.16062E-24
8.24724E-01 1.13331E-24
8.28030E-01 1.10648E-24
8.31310E-01 1.08011E-24
8.34565E-01 1.05421E-24
8.37795E-01 1.02875E-24
8.40999E-01 1.00374E-24
8.44177E-01 9.79171E-25
8.47329E-01 9.55030E-25
8.50455E-01 9.31313E-25
8.53553E-01 9.08013E-25
8.56625E-01 8.85124E-25
8.59670E-01 8.62640E-25
8.62687E-01 8.40554E-25
8.65677E-01 8.18861E-25
8.68639E-01 7.97555E-25
8.71572E-01 7.76630E-25
8.74478E-01 7.56080E-25
8.77355E-01 7.35900E-25
8.80203E-01 7.16085E-25
8.83022E-01 6.96629E-25
8.85812E-01 6.77527E-25
8.88573E-01 6.58774E-25
8.91304E-01 6.40366E-25
8.94005E-01 6.22298E-25
8.96677E-01 6.04565E-25
8.99318E-01 5.87162E-25
9.01928E-01 5.70086E-25
9.04508E-01 5.53331E-25
9.07058E-01 5.36894E-25
9.09576E-01 5.20770E-25
9.12063E-01 5.04956E-25
9.14519E-01 4.89447E-25
9.16943E-01 4.74240E-25
9.19335E-01 4.59331E-25
9.21696E-01 4.44716E-25
9.24024E-01 4.30392E-25
9.26320E-01 4.16355E-25
9.28584E-01 4.02602E-25
9.30815E-01 3.89130E-25
9.33013E-01 3.75935E-25
9.35178E-01 3.63014E-25
9.37310E-01 3.50364E-25
9.39409E-01 3.37982E-25
9.41474E-01 3.25866E-25
9.43505E-01 3.14012E-25
9.45503E-01 3.02417E-25
9.47467E-01 2.91079E-25
9.49397E-01 2.79995E-25
9.51293E-01 2.69163E-25
9.53154E-01 2.58580E-25
9.54981E-01 2.48244E-25
9.56773E-01 2.38152E-25
9.58530E-01 2.28302E-25
9.60252E-01 2.18692E-25
9.61940E-01 2.09319E-25
9.63592E-01 2.00182E-25
9.65209E-01 1.91278E-25
9.66790E-01 1.82605E-25
9.68336E-01 1.74162E-25
9.69846E-01 1.65946E-25
9.71321E-01 1.57956E-25
9.72759E-01 1.50190E-25
9.74162E-01 1.42646E-25
9.75528E-01 1.35323E-25
9.76858E-01 1.28218E-25
9.78152E-01 1.21331E-25
9.79410E-01 1.14659E-25
9.80631E-01 1.08202E-25
9.81815E-01 1.01958E-25
9.82963E-01 9.59251E-26
9.84074E-01 9.01025E-26
9.85148E-01 8.44888E-26
9.86185E-01 7.90829E-26
9.87185E-01 7.38835E-26
9.88148E-01 6.88895E-26
9.89074E-01 6.40999E-26
9.89962E-01 5.95135E-26
9.90814E-01 5.51295E-26
9.91627E-01 5.09468E-26
9.92404E-01 4.69646E-26
9.93143E-01 4.31820E-26
9.93844E-01 3.95982E-26
9.94508E-01 3.62125E-26
9.95134E-01 3.30240E-26
9.95722E-01 3.00322E-26
9.96273E-01 2.72364E-26
9.96786E-01 2.46359E-26
9.97261E-01 2.22303E-26
9.97698E-01 2.00190E-26
9.98097E-01 1.80016E-26
9.98459E-01 1.61776E-26
9.98782E-01 1.45466E-26
9.99067E-01 1.31084E-26
9.99315E-01 1.18625E-26
9.99524E-01 1.08087E-26
9.99695E-01 9.94682E-27
9.99829E-01 9.27667E-27
9.99924E-01 8.79809E-27
9.99981E-01 8.51098E-27
1.00000E+00 8.41529E-27
