 #
 # Subroutine ELSEPA. Elastic scattering of electrons and positrons
 #                    by neutral atoms and positive ions
 #
 # Projectile: electron
 # Kinetic energy = 8.00000E+06 eV = 2.93995E+05 a.u.
 #
 # WARNING: High-energy factorization with free-atom DF screening.
 #          Absorption, polarization and exchange corrections are
 #          switched off.
 #          Phase shifts are calculated for the bare nucleus.
 #          Scattering amplitudes are not evaluated.
 #
 # Element: Pa,  Z =  91,  atomic weight = 2.31036E+02 g/mol
 #
 # Nuclear model: Fermi distribution
 #                Average radius = 6.56564E-13 cm
 #                Skin thickness = 5.46000E-14 cm
 #
 # Number of electrons = 91
 #
 # Total elastic cross section = 1.17423E-17 cm**2 = 4.19326E-01 a0**2
 # 1st transport cross section = 2.04795E-22 cm**2 = 7.31335E-06 a0**2
 # 2nd transport cross section = 5.48389E-22 cm**2 = 1.95833E-05 a0**2
 #
 #
 # Differential cross section:                       MU=(1-COS(THETA))/2
 #
 #  THETA        MU          DCS          DCS        Sherman      error
 #  (deg)                 (cm**2/sr)   (a0**2/sr)    function
 #----------------------------------------------------------------------
0.00000E+00 1.00053E-11
7.61557E-13 1.00050E-11
1.18994E-12 1.00048E-11
1.71346E-12 1.00046E-11
2.33225E-12 1.00044E-11
3.04617E-12 1.00041E-11
3.85530E-12 1.00037E-11
4.75964E-12 1.00034E-11
5.75917E-12 1.00030E-11
6.85391E-12 1.00025E-11
8.04379E-12 1.00021E-11
9.32893E-12 1.00016E-11
1.07092E-11 1.00010E-11
1.21847E-11 1.00004E-11
1.37554E-11 9.99979E-12
1.54213E-11 9.99913E-12
1.71823E-11 9.99843E-12
1.90386E-11 9.99769E-12
2.09900E-11 9.99691E-12
2.30367E-11 9.99609E-12
2.51785E-11 9.99524E-12
2.74156E-11 9.99435E-12
2.97478E-11 9.99342E-12
3.21752E-11 9.99246E-12
3.46979E-11 9.99145E-12
3.73157E-11 9.99041E-12
4.00286E-11 9.98933E-12
4.28368E-11 9.98821E-12
4.57402E-11 9.98706E-12
4.87388E-11 9.98587E-12
5.18325E-11 9.98464E-12
5.50215E-11 9.98337E-12
5.83057E-11 9.98207E-12
6.16850E-11 9.98072E-12
6.51595E-11 9.97934E-12
6.87293E-11 9.97793E-12
7.23943E-11 9.97647E-12
7.61544E-11 9.97498E-12
1.18991E-10 9.95801E-12
1.71347E-10 9.93734E-12
2.33223E-10 9.91300E-12
3.04617E-10 9.88504E-12
3.85531E-10 9.85351E-12
4.75965E-10 9.81847E-12
5.75917E-10 9.77999E-12
6.85389E-10 9.73812E-12
8.04380E-10 9.69296E-12
9.32891E-10 9.64457E-12
1.07092E-09 9.59304E-12
1.21847E-09 9.53847E-12
1.37554E-09 9.48094E-12
1.54213E-09 9.42055E-12
1.71823E-09 9.35742E-12
1.90386E-09 9.29162E-12
2.09900E-09 9.22330E-12
2.30367E-09 9.15253E-12
2.51785E-09 9.07945E-12
2.74156E-09 9.00416E-12
2.97478E-09 8.92678E-12
3.21752E-09 8.84747E-12
3.46978E-09 8.76653E-12
3.73156E-09 8.68375E-12
4.00286E-09 8.59924E-12
4.28368E-09 8.51312E-12
4.57402E-09 8.42549E-12
4.87388E-09 8.33646E-12
5.18326E-09 8.24673E-12
5.50215E-09 8.15606E-12
5.83057E-09 8.06431E-12
6.16850E-09 7.97160E-12
6.51596E-09 7.87802E-12
6.87293E-09 7.78367E-12
7.23942E-09 7.68891E-12
7.61544E-09 7.59434E-12
1.18991E-08 6.64160E-12
1.71347E-08 5.73314E-12
2.33223E-08 4.91475E-12
3.04617E-08 4.20583E-12
3.85531E-08 3.60498E-12
4.75965E-08 3.10334E-12
5.75917E-08 2.68558E-12
6.85389E-08 2.33785E-12
8.04380E-08 2.04691E-12
9.32891E-08 1.80178E-12
1.07092E-07 1.59382E-12
1.21847E-07 1.41597E-12
1.37554E-07 1.26275E-12
1.54213E-07 1.13006E-12
1.71823E-07 1.01422E-12
1.90386E-07 9.12987E-13
2.09900E-07 8.23706E-13
2.30367E-07 7.45143E-13
2.51785E-07 6.75434E-13
2.74156E-07 6.13698E-13
2.97478E-07 5.58722E-13
3.21752E-07 5.09223E-13
3.46978E-07 4.62989E-13
3.73156E-07 4.22779E-13
4.00286E-07 3.87656E-13
4.28368E-07 3.56848E-13
4.57402E-07 3.29715E-13
4.87388E-07 3.05726E-13
5.18325E-07 2.82301E-13
5.50215E-07 2.60695E-13
5.83057E-07 2.41491E-13
6.16850E-07 2.24365E-13
6.51596E-07 2.09044E-13
6.87293E-07 1.95296E-13
7.23942E-07 1.82582E-13
7.61543E-07 1.70143E-13
1.18991E-06 9.17781E-14
1.71347E-06 5.40433E-14
2.33223E-06 3.39624E-14
3.04617E-06 2.24629E-14
3.85531E-06 1.55146E-14
4.75964E-06 1.10610E-14
5.75916E-06 8.10838E-15
6.85388E-06 6.06564E-15
8.04378E-06 4.62905E-15
9.32888E-06 3.58311E-15
1.07092E-05 2.81824E-15
1.21846E-05 2.24842E-15
1.37553E-05 1.81644E-15
1.54212E-05 1.48389E-15
1.71822E-05 1.22420E-15
1.90385E-05 1.01877E-15
2.09899E-05 8.56205E-16
2.30365E-05 7.25053E-16
2.51783E-05 6.17901E-16
2.74153E-05 5.29761E-16
2.97475E-05 4.56696E-16
3.21749E-05 3.95760E-16
3.46974E-05 3.44531E-16
3.73152E-05 3.01743E-16
4.00281E-05 2.65338E-16
4.28362E-05 2.34258E-16
4.57395E-05 2.07796E-16
4.87380E-05 1.84753E-16
5.18317E-05 1.64935E-16
5.50205E-05 1.47712E-16
5.83045E-05 1.32646E-16
6.16838E-05 1.19531E-16
6.51582E-05 1.07948E-16
6.87277E-05 9.77697E-17
7.23925E-05 8.87868E-17
7.61524E-05 8.07758E-17
9.21439E-05 5.65924E-17
1.09658E-04 4.07987E-17
1.28695E-04 3.01526E-17
1.49255E-04 2.27518E-17
1.71338E-04 1.74864E-17
1.94942E-04 1.36583E-17
2.20070E-04 1.08227E-17
2.46720E-04 8.68746E-18
2.74892E-04 7.05460E-18
3.04586E-04 5.78915E-18
3.35803E-04 4.79573E-18
3.68542E-04 4.00732E-18
4.02802E-04 3.37476E-18
4.38585E-04 2.86265E-18
4.75889E-04 2.44421E-18
5.14715E-04 2.09969E-18
5.55063E-04 1.81386E-18
5.96931E-04 1.57510E-18
6.40321E-04 1.37442E-18
6.85233E-04 1.20469E-18
7.31665E-04 1.06042E-18
7.79618E-04 9.37087E-19
8.29092E-04 8.31204E-19
8.80086E-04 7.39852E-19
9.32601E-04 6.60724E-19
9.86636E-04 5.91900E-19
1.04219E-03 5.31811E-19
1.09927E-03 4.79167E-19
1.15786E-03 4.32879E-19
1.21797E-03 3.92058E-19
1.27961E-03 3.55939E-19
1.34276E-03 3.23893E-19
1.40743E-03 2.95377E-19
1.47362E-03 2.69938E-19
1.54133E-03 2.47184E-19
1.61056E-03 2.26783E-19
1.68131E-03 2.08449E-19
1.75357E-03 1.91935E-19
1.82735E-03 1.77029E-19
1.90265E-03 1.63546E-19
1.97947E-03 1.51326E-19
2.05780E-03 1.40230E-19
2.13765E-03 1.30137E-19
2.21902E-03 1.20938E-19
2.30190E-03 1.12541E-19
2.38630E-03 1.04863E-19
2.47222E-03 9.78316E-20
2.55965E-03 9.13821E-20
2.64859E-03 8.54576E-20
2.73905E-03 8.00078E-20
2.83103E-03 7.49873E-20
2.92452E-03 7.03566E-20
3.01952E-03 6.60795E-20
3.11604E-03 6.21242E-20
3.21407E-03 5.84617E-20
3.31362E-03 5.50670E-20
3.41468E-03 5.19162E-20
3.51725E-03 4.89891E-20
3.62133E-03 4.62664E-20
3.72692E-03 4.37314E-20
3.83403E-03 4.13690E-20
3.94265E-03 3.91646E-20
4.05278E-03 3.71062E-20
4.16442E-03 3.51822E-20
4.27757E-03 3.33819E-20
4.39223E-03 3.16964E-20
4.50840E-03 3.01164E-20
4.62608E-03 2.86345E-20
4.74527E-03 2.72433E-20
4.86597E-03 2.59361E-20
4.98817E-03 2.47071E-20
5.11188E-03 2.35505E-20
5.23711E-03 2.24614E-20
5.36383E-03 2.14350E-20
5.49207E-03 2.04671E-20
5.62181E-03 1.95536E-20
5.75306E-03 1.86911E-20
5.88581E-03 1.78759E-20
6.02007E-03 1.71052E-20
6.15583E-03 1.63759E-20
6.29310E-03 1.56854E-20
6.43187E-03 1.50313E-20
6.57214E-03 1.44113E-20
6.71392E-03 1.38232E-20
6.85720E-03 1.32651E-20
7.00198E-03 1.27352E-20
7.14827E-03 1.22318E-20
7.29605E-03 1.17533E-20
7.44534E-03 1.12982E-20
7.59612E-03 1.08652E-20
7.97965E-03 9.87103E-21
8.37255E-03 8.98927E-21
8.77480E-03 8.20494E-21
9.18641E-03 7.50537E-21
9.60736E-03 6.87976E-21
1.00376E-02 6.31885E-21
1.04773E-02 5.81477E-21
1.09262E-02 5.36070E-21
1.13844E-02 4.95078E-21
1.18520E-02 4.57992E-21
1.23288E-02 4.24374E-21
1.28150E-02 3.93837E-21
1.33104E-02 3.66047E-21
1.38150E-02 3.40712E-21
1.43290E-02 3.17574E-21
1.48521E-02 2.96407E-21
1.53845E-02 2.77011E-21
1.59262E-02 2.59210E-21
1.64770E-02 2.42848E-21
1.70371E-02 2.27788E-21
1.76063E-02 2.13904E-21
1.81848E-02 2.01089E-21
1.87724E-02 1.89244E-21
1.93692E-02 1.78281E-21
1.99751E-02 1.68121E-21
2.05901E-02 1.58696E-21
2.12143E-02 1.49941E-21
2.18476E-02 1.41799E-21
2.24900E-02 1.34220E-21
2.31415E-02 1.27155E-21
2.38021E-02 1.20565E-21
2.44717E-02 1.14410E-21
2.51504E-02 1.08655E-21
2.58382E-02 1.03271E-21
2.65349E-02 9.82279E-22
2.72407E-02 9.35000E-22
2.79555E-02 8.90637E-22
2.86793E-02 8.48973E-22
2.94120E-02 8.09810E-22
3.01537E-02 7.72970E-22
3.09043E-02 7.38285E-22
3.16639E-02 7.05604E-22
3.24324E-02 6.74787E-22
3.32098E-02 6.45707E-22
3.39961E-02 6.18245E-22
3.47912E-02 5.92292E-22
3.55952E-02 5.67748E-22
3.64081E-02 5.44520E-22
3.72297E-02 5.22525E-22
3.80602E-02 5.01681E-22
3.88995E-02 4.81917E-22
3.97476E-02 4.63165E-22
4.06044E-02 4.45361E-22
4.14700E-02 4.28448E-22
4.23443E-02 4.12372E-22
4.32273E-02 3.97082E-22
4.41190E-02 3.82532E-22
4.50194E-02 3.68677E-22
4.59284E-02 3.55479E-22
4.68461E-02 3.42898E-22
4.87074E-02 3.19453E-22
5.06030E-02 2.98087E-22
5.25328E-02 2.78576E-22
5.44967E-02 2.60726E-22
5.64946E-02 2.44367E-22
5.85262E-02 2.29348E-22
6.05914E-02 2.15534E-22
6.26901E-02 2.02809E-22
6.48222E-02 1.91069E-22
6.69873E-02 1.80220E-22
6.91854E-02 1.70180E-22
7.14163E-02 1.60876E-22
7.36799E-02 1.52241E-22
7.59760E-02 1.44218E-22
7.83043E-02 1.36752E-22
8.06647E-02 1.29796E-22
8.30571E-02 1.23308E-22
8.54812E-02 1.17248E-22
8.79369E-02 1.11583E-22
9.04240E-02 1.06280E-22
9.29422E-02 1.01311E-22
9.54915E-02 9.66503E-23
9.80716E-02 9.22739E-23
1.00682E-01 8.81603E-23
1.03323E-01 8.42900E-23
1.05995E-01 8.06454E-23
1.08696E-01 7.72102E-23
1.11427E-01 7.39693E-23
1.14188E-01 7.09089E-23
1.16978E-01 6.80169E-23
1.19797E-01 6.52817E-23
1.22645E-01 6.26925E-23
1.25522E-01 6.02396E-23
1.28428E-01 5.79142E-23
1.31361E-01 5.57081E-23
1.34323E-01 5.36136E-23
1.37313E-01 5.16233E-23
1.40330E-01 4.97310E-23
1.43375E-01 4.79311E-23
1.46447E-01 4.62171E-23
1.49545E-01 4.45843E-23
1.52671E-01 4.30281E-23
1.55823E-01 4.15436E-23
1.59001E-01 4.01267E-23
1.62205E-01 3.87737E-23
1.65435E-01 3.74810E-23
1.68690E-01 3.62451E-23
1.71970E-01 3.50628E-23
1.75276E-01 3.39313E-23
1.78606E-01 3.28478E-23
1.81961E-01 3.18098E-23
1.85340E-01 3.08147E-23
1.88743E-01 2.98605E-23
1.92169E-01 2.89450E-23
1.95619E-01 2.80662E-23
1.99092E-01 2.72222E-23
2.02589E-01 2.64113E-23
2.06107E-01 2.56319E-23
2.09649E-01 2.48824E-23
2.13212E-01 2.41613E-23
2.16797E-01 2.34674E-23
2.20404E-01 2.27992E-23
2.24032E-01 2.21557E-23
2.27680E-01 2.15356E-23
2.31350E-01 2.09379E-23
2.35040E-01 2.03615E-23
2.38751E-01 1.98055E-23
2.42481E-01 1.92690E-23
2.46231E-01 1.87510E-23
2.50000E-01 1.82509E-23
2.53788E-01 1.77678E-23
2.57595E-01 1.73010E-23
2.61421E-01 1.68497E-23
2.65264E-01 1.64134E-23
2.69126E-01 1.59914E-23
2.73005E-01 1.55831E-23
2.76901E-01 1.51879E-23
2.80814E-01 1.48054E-23
2.84744E-01 1.44349E-23
2.88691E-01 1.40761E-23
2.92653E-01 1.37284E-23
2.96632E-01 1.33915E-23
3.00625E-01 1.30648E-23
3.04634E-01 1.27480E-23
3.08658E-01 1.24408E-23
3.12697E-01 1.21427E-23
3.16749E-01 1.18534E-23
3.20816E-01 1.15726E-23
3.24896E-01 1.13000E-23
3.28990E-01 1.10352E-23
3.33097E-01 1.07781E-23
3.37216E-01 1.05282E-23
3.41348E-01 1.02854E-23
3.45492E-01 1.00494E-23
3.49647E-01 9.81992E-24
3.53814E-01 9.59679E-24
3.57992E-01 9.37978E-24
3.62181E-01 9.16868E-24
3.66381E-01 8.96328E-24
3.70590E-01 8.76340E-24
3.74810E-01 8.56885E-24
3.79039E-01 8.37948E-24
3.83277E-01 8.19511E-24
3.87524E-01 8.01561E-24
3.91780E-01 7.84051E-24
3.96044E-01 7.66976E-24
4.00316E-01 7.50336E-24
4.04596E-01 7.34117E-24
4.08882E-01 7.18306E-24
4.13176E-01 7.02889E-24
4.17476E-01 6.87856E-24
4.21783E-01 6.73193E-24
4.26095E-01 6.58889E-24
4.30413E-01 6.44933E-24
4.34737E-01 6.31315E-24
4.39065E-01 6.18024E-24
4.43398E-01 6.05051E-24
4.47736E-01 5.92386E-24
4.52077E-01 5.80019E-24
4.56422E-01 5.67943E-24
4.60770E-01 5.56148E-24
4.65122E-01 5.44627E-24
4.69476E-01 5.33372E-24
4.73832E-01 5.22374E-24
4.78190E-01 5.11627E-24
4.82550E-01 5.01123E-24
4.86912E-01 4.90857E-24
4.91274E-01 4.80820E-24
4.95637E-01 4.71007E-24
5.00000E-01 4.61411E-24
5.04363E-01 4.52027E-24
5.08726E-01 4.42848E-24
5.13088E-01 4.33870E-24
5.17450E-01 4.25087E-24
5.21810E-01 4.16493E-24
5.26168E-01 4.08084E-24
5.30524E-01 3.99855E-24
5.34878E-01 3.91800E-24
5.39230E-01 3.83917E-24
5.43578E-01 3.76199E-24
5.47923E-01 3.68642E-24
5.52264E-01 3.61244E-24
5.56602E-01 3.53999E-24
5.60935E-01 3.46904E-24
5.65263E-01 3.39954E-24
5.69587E-01 3.33147E-24
5.73905E-01 3.26479E-24
5.78217E-01 3.19946E-24
5.82524E-01 3.13545E-24
5.86824E-01 3.07273E-24
5.91118E-01 3.01126E-24
5.95404E-01 2.95102E-24
5.99684E-01 2.89198E-24
6.03956E-01 2.83411E-24
6.08220E-01 2.77737E-24
6.12476E-01 2.72175E-24
6.16723E-01 2.66722E-24
6.20961E-01 2.61375E-24
6.25190E-01 2.56132E-24
6.29410E-01 2.50990E-24
6.33619E-01 2.45947E-24
6.37819E-01 2.41001E-24
6.42008E-01 2.36149E-24
6.46186E-01 2.31390E-24
6.50353E-01 2.26722E-24
6.54508E-01 2.22141E-24
6.58652E-01 2.17647E-24
6.62784E-01 2.13238E-24
6.66903E-01 2.08911E-24
6.71010E-01 2.04665E-24
6.75104E-01 2.00499E-24
6.79184E-01 1.96409E-24
6.83251E-01 1.92395E-24
6.87303E-01 1.88456E-24
6.91342E-01 1.84589E-24
6.95366E-01 1.80793E-24
6.99375E-01 1.77066E-24
7.03368E-01 1.73408E-24
7.07347E-01 1.69816E-24
7.11309E-01 1.66290E-24
7.15256E-01 1.62828E-24
7.19186E-01 1.59428E-24
7.23099E-01 1.56090E-24
7.26995E-01 1.52812E-24
7.30874E-01 1.49592E-24
7.34736E-01 1.46431E-24
7.38579E-01 1.43326E-24
7.42405E-01 1.40277E-24
7.46212E-01 1.37282E-24
7.50000E-01 1.34341E-24
7.53769E-01 1.31452E-24
7.57519E-01 1.28614E-24
7.61249E-01 1.25827E-24
7.64960E-01 1.23089E-24
7.68650E-01 1.20400E-24
7.72320E-01 1.17758E-24
7.75968E-01 1.15163E-24
7.79596E-01 1.12613E-24
7.83203E-01 1.10109E-24
7.86788E-01 1.07649E-24
7.90351E-01 1.05232E-24
7.93893E-01 1.02858E-24
7.97411E-01 1.00526E-24
8.00908E-01 9.82341E-25
8.04381E-01 9.59831E-25
8.07831E-01 9.37717E-25
8.11257E-01 9.15992E-25
8.14660E-01 8.94650E-25
8.18039E-01 8.73683E-25
8.21394E-01 8.53087E-25
8.24724E-01 8.32853E-25
8.28030E-01 8.12976E-25
8.31310E-01 7.93451E-25
8.34565E-01 7.74271E-25
8.37795E-01 7.55430E-25
8.40999E-01 7.36923E-25
8.44177E-01 7.18745E-25
8.47329E-01 7.00889E-25
8.50455E-01 6.83352E-25
8.53553E-01 6.66128E-25
8.56625E-01 6.49211E-25
8.59670E-01 6.32598E-25
8.62687E-01 6.16283E-25
8.65677E-01 6.00262E-25
8.68639E-01 5.84530E-25
8.71572E-01 5.69083E-25
8.74478E-01 5.53917E-25
8.77355E-01 5.39027E-25
8.80203E-01 5.24409E-25
8.83022E-01 5.10059E-25
8.85812E-01 4.95974E-25
8.88573E-01 4.82150E-25
8.91304E-01 4.68582E-25
8.94005E-01 4.55267E-25
8.96677E-01 4.42202E-25
8.99318E-01 4.29383E-25
9.01928E-01 4.16807E-25
9.04508E-01 4.04471E-25
9.07058E-01 3.92371E-25
9.09576E-01 3.80503E-25
9.12063E-01 3.68866E-25
9.14519E-01 3.57456E-25
9.16943E-01 3.46270E-25
9.19335E-01 3.35305E-25
9.21696E-01 3.24558E-25
9.24024E-01 3.14027E-25
9.26320E-01 3.03709E-25
9.28584E-01 2.93602E-25
9.30815E-01 2.83702E-25
9.33013E-01 2.74008E-25
9.35178E-01 2.64517E-25
9.37310E-01 2.55226E-25
9.39409E-01 2.46134E-25
9.41474E-01 2.37238E-25
9.43505E-01 2.28536E-25
9.45503E-01 2.20026E-25
9.47467E-01 2.11705E-25
9.49397E-01 2.03572E-25
9.51293E-01 1.95625E-25
9.53154E-01 1.87862E-25
9.54981E-01 1.80281E-25
9.56773E-01 1.72880E-25
9.58530E-01 1.65657E-25
9.60252E-01 1.58612E-25
9.61940E-01 1.51741E-25
9.63592E-01 1.45044E-25
9.65209E-01 1.38518E-25
9.66790E-01 1.32163E-25
9.68336E-01 1.25977E-25
9.69846E-01 1.19958E-25
9.71321E-01 1.14105E-25
9.72759E-01 1.08416E-25
9.74162E-01 1.02891E-25
9.75528E-01 9.75281E-26
9.76858E-01 9.23259E-26
9.78152E-01 8.72833E-26
9.79410E-01 8.23991E-26
9.80631E-01 7.76723E-26
9.81815E-01 7.31017E-26
9.82963E-01 6.86864E-26
9.84074E-01 6.44252E-26
9.85148E-01 6.03173E-26
9.86185E-01 5.63617E-26
9.87185E-01 5.25575E-26
9.88148E-01 4.89039E-26
9.89074E-01 4.54000E-26
9.89962E-01 4.20451E-26
9.90814E-01 3.88383E-26
9.91627E-01 3.57791E-26
9.92404E-01 3.28666E-26
9.93143E-01 3.01003E-26
9.93844E-01 2.74795E-26
9.94508E-01 2.50037E-26
9.95134E-01 2.26722E-26
9.95722E-01 2.04846E-26
9.96273E-01 1.84404E-26
9.96786E-01 1.65392E-26
9.97261E-01 1.47805E-26
9.97698E-01 1.31638E-26
9.98097E-01 1.16890E-26
9.98459E-01 1.03556E-26
9.98782E-01 9.16334E-27
9.99067E-01 8.11197E-27
9.99315E-01 7.20125E-27
9.99524E-01 6.43098E-27
9.99695E-01 5.80098E-27
9.99829E-01 5.31114E-27
9.99924E-01 4.96132E-27
9.99981E-01 4.75146E-27
1.00000E+00 4.68151E-27
