 #
 # Subroutine ELSEPA. Elastic scattering of electrons and positrons
 #                    by neutral atoms and positive ions
 #
 # Projectile: electron
 # Kinetic energy = 4.00000E+06 eV = 1.46997E+05 a.u.
 #
 # WARNING: High-energy factorization with free-atom DF screening.
 #          Absorption, polarization and exchange corrections are
 #          switched off.
 #          Phase shifts are calculated for the bare nucleus.
 #          Scattering amplitudes are not evaluated.
 #
 # Element: Pa,  Z =  91,  atomic weight = 2.31036E+02 g/mol
 #
 # Nuclear model: Fermi distribution
 #                Average radius = 6.56564E-13 cm
 #                Skin thickness = 5.46000E-14 cm
 #
 # Number of electrons = 91
 #
 # Total elastic cross section = 1.18606E-17 cm**2 = 4.23548E-01 a0**2
 # 1st transport cross section = 6.88027E-22 cm**2 = 2.45699E-05 a0**2
 # 2nd transport cross section = 1.79750E-21 cm**2 = 6.41900E-05 a0**2
 #
 #
 # Differential cross section:                       MU=(1-COS(THETA))/2
 #
 #  THETA        MU          DCS          DCS        Sherman      error
 #  (deg)                 (cm**2/sr)   (a0**2/sr)    function
 #----------------------------------------------------------------------
0.00000E+00 2.81070E-12
7.61557E-13 2.81067E-12
1.18994E-12 2.81066E-12
1.71346E-12 2.81064E-12
2.33225E-12 2.81062E-12
3.04617E-12 2.81060E-12
3.85530E-12 2.81058E-12
4.75964E-12 2.81055E-12
5.75917E-12 2.81052E-12
6.85391E-12 2.81048E-12
8.04379E-12 2.81045E-12
9.32893E-12 2.81041E-12
1.07092E-11 2.81036E-12
1.21847E-11 2.81032E-12
1.37554E-11 2.81027E-12
1.54213E-11 2.81022E-12
1.71823E-11 2.81016E-12
1.90386E-11 2.81011E-12
2.09900E-11 2.81004E-12
2.30367E-11 2.80998E-12
2.51785E-11 2.80991E-12
2.74156E-11 2.80984E-12
2.97478E-11 2.80977E-12
3.21752E-11 2.80970E-12
3.46979E-11 2.80962E-12
3.73157E-11 2.80954E-12
4.00286E-11 2.80945E-12
4.28368E-11 2.80937E-12
4.57402E-11 2.80928E-12
4.87388E-11 2.80918E-12
5.18325E-11 2.80909E-12
5.50215E-11 2.80899E-12
5.83057E-11 2.80888E-12
6.16850E-11 2.80878E-12
6.51595E-11 2.80867E-12
6.87293E-11 2.80856E-12
7.23943E-11 2.80845E-12
7.61544E-11 2.80833E-12
1.18991E-10 2.80700E-12
1.71347E-10 2.80537E-12
2.33223E-10 2.80345E-12
3.04617E-10 2.80124E-12
3.85531E-10 2.79874E-12
4.75965E-10 2.79594E-12
5.75917E-10 2.79286E-12
6.85389E-10 2.78949E-12
8.04380E-10 2.78583E-12
9.32891E-10 2.78189E-12
1.07092E-09 2.77767E-12
1.21847E-09 2.77317E-12
1.37554E-09 2.76839E-12
1.54213E-09 2.76334E-12
1.71823E-09 2.75802E-12
1.90386E-09 2.75242E-12
2.09900E-09 2.74656E-12
2.30367E-09 2.74044E-12
2.51785E-09 2.73405E-12
2.74156E-09 2.72741E-12
2.97478E-09 2.72051E-12
3.21752E-09 2.71337E-12
3.46978E-09 2.70597E-12
3.73156E-09 2.69833E-12
4.00286E-09 2.69045E-12
4.28368E-09 2.68234E-12
4.57402E-09 2.67399E-12
4.87388E-09 2.66542E-12
5.18326E-09 2.65662E-12
5.50215E-09 2.64760E-12
5.83057E-09 2.63836E-12
6.16850E-09 2.62892E-12
6.51596E-09 2.61926E-12
6.87293E-09 2.60941E-12
7.23942E-09 2.59935E-12
7.61544E-09 2.58910E-12
1.18991E-08 2.47701E-12
1.71347E-08 2.35071E-12
2.33223E-08 2.21510E-12
3.04617E-08 2.07454E-12
3.85531E-08 1.93294E-12
4.75965E-08 1.79357E-12
5.75917E-08 1.65901E-12
6.85389E-08 1.53145E-12
8.04380E-08 1.41168E-12
9.32891E-08 1.30033E-12
1.07092E-07 1.19764E-12
1.21847E-07 1.10351E-12
1.37554E-07 1.01775E-12
1.54213E-07 9.39766E-13
1.71823E-07 8.68904E-13
1.90386E-07 8.04586E-13
2.09900E-07 7.46224E-13
2.30367E-07 6.93248E-13
2.51785E-07 6.45087E-13
2.74156E-07 6.01219E-13
2.97478E-07 5.61203E-13
3.21752E-07 5.24638E-13
3.46978E-07 4.91163E-13
3.73156E-07 4.60396E-13
4.00286E-07 4.32075E-13
4.28368E-07 4.05980E-13
4.57402E-07 3.81892E-13
4.87388E-07 3.59617E-13
5.18325E-07 3.38962E-13
5.50215E-07 3.19734E-13
5.83057E-07 3.01866E-13
6.16850E-07 2.85241E-13
6.51596E-07 2.69751E-13
6.87293E-07 2.55302E-13
7.23942E-07 2.41758E-13
7.61543E-07 2.29088E-13
1.18991E-06 1.37983E-13
1.71347E-06 8.81724E-14
2.33223E-06 5.90494E-14
3.04617E-06 4.12789E-14
3.85531E-06 2.98412E-14
4.75964E-06 2.21565E-14
5.75916E-06 1.68072E-14
6.85388E-06 1.29513E-14
8.04378E-06 1.01597E-14
9.32888E-06 8.09474E-15
1.07092E-05 6.53830E-15
1.21846E-05 5.34537E-15
1.37553E-05 4.41276E-15
1.54212E-05 3.67609E-15
1.71822E-05 3.08859E-15
1.90385E-05 2.61270E-15
2.09899E-05 2.22842E-15
2.30365E-05 1.91122E-15
2.51783E-05 1.64638E-15
2.74153E-05 1.42587E-15
2.97475E-05 1.24013E-15
3.21749E-05 1.08295E-15
3.46974E-05 9.50080E-16
3.73152E-05 8.37058E-16
4.00281E-05 7.40595E-16
4.28362E-05 6.57853E-16
4.57395E-05 5.86470E-16
4.87380E-05 5.24567E-16
5.18317E-05 4.70609E-16
5.50205E-05 4.23352E-16
5.83045E-05 3.81923E-16
6.16838E-05 3.45491E-16
6.51582E-05 3.13357E-16
6.87277E-05 2.84927E-16
7.23925E-05 2.59666E-16
7.61524E-05 2.37170E-16
9.21439E-05 1.68438E-16
1.09658E-04 1.22929E-16
1.28695E-04 9.17557E-17
1.49255E-04 6.99612E-17
1.71338E-04 5.43012E-17
1.94942E-04 4.28122E-17
2.20070E-04 3.42115E-17
2.46720E-04 2.76749E-17
2.74892E-04 2.26371E-17
3.04586E-04 1.86997E-17
3.35803E-04 1.55852E-17
3.68542E-04 1.30928E-17
4.02802E-04 1.10761E-17
4.38585E-04 9.43349E-18
4.75889E-04 8.08417E-18
5.14715E-04 6.96758E-18
5.55063E-04 6.03708E-18
5.96931E-04 5.25607E-18
6.40321E-04 4.59722E-18
6.85233E-04 4.03859E-18
7.31665E-04 3.56246E-18
7.79618E-04 3.15458E-18
8.29092E-04 2.80355E-18
8.80086E-04 2.50000E-18
9.32601E-04 2.23661E-18
9.86636E-04 2.00717E-18
1.04219E-03 1.80653E-18
1.09927E-03 1.63046E-18
1.15786E-03 1.47537E-18
1.21797E-03 1.33836E-18
1.27961E-03 1.21697E-18
1.34276E-03 1.10910E-18
1.40743E-03 1.01298E-18
1.47362E-03 9.27075E-19
1.54133E-03 8.50110E-19
1.61056E-03 7.81000E-19
1.68131E-03 7.18802E-19
1.75357E-03 6.62700E-19
1.82735E-03 6.11983E-19
1.90265E-03 5.66028E-19
1.97947E-03 5.24319E-19
2.05780E-03 4.86396E-19
2.13765E-03 4.51850E-19
2.21902E-03 4.20327E-19
2.30190E-03 3.91509E-19
2.38630E-03 3.65120E-19
2.47222E-03 3.40925E-19
2.55965E-03 3.18707E-19
2.64859E-03 2.98274E-19
2.73905E-03 2.79458E-19
2.83103E-03 2.62101E-19
2.92452E-03 2.46075E-19
3.01952E-03 2.31259E-19
3.11604E-03 2.17544E-19
3.21407E-03 2.04835E-19
3.31362E-03 1.93042E-19
3.41468E-03 1.82087E-19
3.51725E-03 1.71900E-19
3.62133E-03 1.62419E-19
3.72692E-03 1.53585E-19
3.83403E-03 1.45346E-19
3.94265E-03 1.37653E-19
4.05278E-03 1.30464E-19
4.16442E-03 1.23740E-19
4.27757E-03 1.17446E-19
4.39223E-03 1.11549E-19
4.50840E-03 1.06019E-19
4.62608E-03 1.00829E-19
4.74527E-03 9.59537E-20
4.86597E-03 9.13716E-20
4.98817E-03 8.70613E-20
5.11188E-03 8.30036E-20
5.23711E-03 7.91805E-20
5.36383E-03 7.55765E-20
5.49207E-03 7.21766E-20
5.62181E-03 6.89671E-20
5.75306E-03 6.59352E-20
5.88581E-03 6.30690E-20
6.02007E-03 6.03580E-20
6.15583E-03 5.77923E-20
6.29310E-03 5.53625E-20
6.43187E-03 5.30602E-20
6.57214E-03 5.08772E-20
6.71392E-03 4.88061E-20
6.85720E-03 4.68404E-20
7.00198E-03 4.49735E-20
7.14827E-03 4.31995E-20
7.29605E-03 4.15131E-20
7.44534E-03 3.99087E-20
7.59612E-03 3.83820E-20
7.97965E-03 3.48757E-20
8.37255E-03 3.17647E-20
8.77480E-03 2.89966E-20
9.18641E-03 2.65269E-20
9.60736E-03 2.43177E-20
1.00376E-02 2.23365E-20
1.04773E-02 2.05557E-20
1.09262E-02 1.89513E-20
1.13844E-02 1.75027E-20
1.18520E-02 1.61918E-20
1.23288E-02 1.50034E-20
1.28150E-02 1.39238E-20
1.33104E-02 1.29413E-20
1.38150E-02 1.20455E-20
1.43290E-02 1.12273E-20
1.48521E-02 1.04787E-20
1.53845E-02 9.79273E-21
1.59262E-02 9.16318E-21
1.64770E-02 8.58452E-21
1.70371E-02 8.05186E-21
1.76063E-02 7.56081E-21
1.81848E-02 7.10754E-21
1.87724E-02 6.68859E-21
1.93692E-02 6.30086E-21
1.99751E-02 5.94158E-21
2.05901E-02 5.60824E-21
2.12143E-02 5.29861E-21
2.18476E-02 5.01070E-21
2.24900E-02 4.74267E-21
2.31415E-02 4.49289E-21
2.38021E-02 4.25986E-21
2.44717E-02 4.04224E-21
2.51504E-02 3.83882E-21
2.58382E-02 3.64849E-21
2.65349E-02 3.47023E-21
2.72407E-02 3.30313E-21
2.79555E-02 3.14634E-21
2.86793E-02 2.99911E-21
2.94120E-02 2.86074E-21
3.01537E-02 2.73059E-21
3.09043E-02 2.60806E-21
3.16639E-02 2.49262E-21
3.24324E-02 2.38379E-21
3.32098E-02 2.28109E-21
3.39961E-02 2.18412E-21
3.47912E-02 2.09249E-21
3.55952E-02 2.00585E-21
3.64081E-02 1.92386E-21
3.72297E-02 1.84623E-21
3.80602E-02 1.77268E-21
3.88995E-02 1.70295E-21
3.97476E-02 1.63679E-21
4.06044E-02 1.57399E-21
4.14700E-02 1.51433E-21
4.23443E-02 1.45764E-21
4.32273E-02 1.40373E-21
4.41190E-02 1.35243E-21
4.50194E-02 1.30359E-21
4.59284E-02 1.25707E-21
4.68461E-02 1.21274E-21
4.87074E-02 1.13013E-21
5.06030E-02 1.05486E-21
5.25328E-02 9.86150E-22
5.44967E-02 9.23307E-22
5.64946E-02 8.65723E-22
5.85262E-02 8.12866E-22
6.05914E-02 7.64266E-22
6.26901E-02 7.19506E-22
6.48222E-02 6.78217E-22
6.69873E-02 6.40070E-22
6.91854E-02 6.04775E-22
7.14163E-02 5.72070E-22
7.36799E-02 5.41725E-22
7.59760E-02 5.13530E-22
7.83043E-02 4.87297E-22
8.06647E-02 4.62860E-22
8.30571E-02 4.40067E-22
8.54812E-02 4.18782E-22
8.79369E-02 3.98882E-22
9.04240E-02 3.80256E-22
9.29422E-02 3.62803E-22
9.54915E-02 3.46431E-22
9.80716E-02 3.31058E-22
1.00682E-01 3.16607E-22
1.03323E-01 3.03011E-22
1.05995E-01 2.90205E-22
1.08696E-01 2.78133E-22
1.11427E-01 2.66743E-22
1.14188E-01 2.55986E-22
1.16978E-01 2.45818E-22
1.19797E-01 2.36199E-22
1.22645E-01 2.27092E-22
1.25522E-01 2.18462E-22
1.28428E-01 2.10279E-22
1.31361E-01 2.02512E-22
1.34323E-01 1.95135E-22
1.37313E-01 1.88124E-22
1.40330E-01 1.81456E-22
1.43375E-01 1.75109E-22
1.46447E-01 1.69064E-22
1.49545E-01 1.63303E-22
1.52671E-01 1.57809E-22
1.55823E-01 1.52565E-22
1.59001E-01 1.47559E-22
1.62205E-01 1.42775E-22
1.65435E-01 1.38201E-22
1.68690E-01 1.33826E-22
1.71970E-01 1.29638E-22
1.75276E-01 1.25628E-22
1.78606E-01 1.21786E-22
1.81961E-01 1.18102E-22
1.85340E-01 1.14568E-22
1.88743E-01 1.11177E-22
1.92169E-01 1.07921E-22
1.95619E-01 1.04793E-22
1.99092E-01 1.01787E-22
2.02589E-01 9.88964E-23
2.06107E-01 9.61159E-23
2.09649E-01 9.34398E-23
2.13212E-01 9.08631E-23
2.16797E-01 8.83811E-23
2.20404E-01 8.59893E-23
2.24032E-01 8.36835E-23
2.27680E-01 8.14597E-23
2.31350E-01 7.93142E-23
2.35040E-01 7.72433E-23
2.38751E-01 7.52438E-23
2.42481E-01 7.33123E-23
2.46231E-01 7.14460E-23
2.50000E-01 6.96419E-23
2.53788E-01 6.78974E-23
2.57595E-01 6.62099E-23
2.61421E-01 6.45770E-23
2.65264E-01 6.29965E-23
2.69126E-01 6.14662E-23
2.73005E-01 5.99840E-23
2.76901E-01 5.85479E-23
2.80814E-01 5.71560E-23
2.84744E-01 5.58066E-23
2.88691E-01 5.44980E-23
2.92653E-01 5.32286E-23
2.96632E-01 5.19969E-23
3.00625E-01 5.08014E-23
3.04634E-01 4.96408E-23
3.08658E-01 4.85137E-23
3.12697E-01 4.74188E-23
3.16749E-01 4.63551E-23
3.20816E-01 4.53212E-23
3.24896E-01 4.43161E-23
3.28990E-01 4.33388E-23
3.33097E-01 4.23882E-23
3.37216E-01 4.14636E-23
3.41348E-01 4.05638E-23
3.45492E-01 3.96881E-23
3.49647E-01 3.88356E-23
3.53814E-01 3.80055E-23
3.57992E-01 3.71971E-23
3.62181E-01 3.64095E-23
3.66381E-01 3.56422E-23
3.70590E-01 3.48944E-23
3.74810E-01 3.41655E-23
3.79039E-01 3.34548E-23
3.83277E-01 3.27619E-23
3.87524E-01 3.20861E-23
3.91780E-01 3.14268E-23
3.96044E-01 3.07836E-23
4.00316E-01 3.01559E-23
4.04596E-01 2.95432E-23
4.08882E-01 2.89452E-23
4.13176E-01 2.83612E-23
4.17476E-01 2.77910E-23
4.21783E-01 2.72340E-23
4.26095E-01 2.66900E-23
4.30413E-01 2.61585E-23
4.34737E-01 2.56391E-23
4.39065E-01 2.51314E-23
4.43398E-01 2.46352E-23
4.47736E-01 2.41501E-23
4.52077E-01 2.36758E-23
4.56422E-01 2.32119E-23
4.60770E-01 2.27583E-23
4.65122E-01 2.23145E-23
4.69476E-01 2.18804E-23
4.73832E-01 2.14557E-23
4.78190E-01 2.10400E-23
4.82550E-01 2.06331E-23
4.86912E-01 2.02349E-23
4.91274E-01 1.98450E-23
4.95637E-01 1.94632E-23
5.00000E-01 1.90894E-23
5.04363E-01 1.87234E-23
5.08726E-01 1.83649E-23
5.13088E-01 1.80138E-23
5.17450E-01 1.76697E-23
5.21810E-01 1.73326E-23
5.26168E-01 1.70023E-23
5.30524E-01 1.66785E-23
5.34878E-01 1.63612E-23
5.39230E-01 1.60502E-23
5.43578E-01 1.57453E-23
5.47923E-01 1.54465E-23
5.52264E-01 1.51534E-23
5.56602E-01 1.48660E-23
5.60935E-01 1.45842E-23
5.65263E-01 1.43078E-23
5.69587E-01 1.40366E-23
5.73905E-01 1.37706E-23
5.78217E-01 1.35097E-23
5.82524E-01 1.32537E-23
5.86824E-01 1.30025E-23
5.91118E-01 1.27560E-23
5.95404E-01 1.25141E-23
5.99684E-01 1.22766E-23
6.03956E-01 1.20436E-23
6.08220E-01 1.18148E-23
6.12476E-01 1.15902E-23
6.16723E-01 1.13697E-23
6.20961E-01 1.11533E-23
6.25190E-01 1.09407E-23
6.29410E-01 1.07320E-23
6.33619E-01 1.05270E-23
6.37819E-01 1.03257E-23
6.42008E-01 1.01280E-23
6.46186E-01 9.93377E-24
6.50353E-01 9.74301E-24
6.54508E-01 9.55561E-24
6.58652E-01 9.37151E-24
6.62784E-01 9.19063E-24
6.66903E-01 9.01292E-24
6.71010E-01 8.83831E-24
6.75104E-01 8.66674E-24
6.79184E-01 8.49814E-24
6.83251E-01 8.33246E-24
6.87303E-01 8.16963E-24
6.91342E-01 8.00961E-24
6.95366E-01 7.85232E-24
6.99375E-01 7.69773E-24
7.03368E-01 7.54577E-24
7.07347E-01 7.39640E-24
7.11309E-01 7.24957E-24
7.15256E-01 7.10523E-24
7.19186E-01 6.96333E-24
7.23099E-01 6.82383E-24
7.26995E-01 6.68668E-24
7.30874E-01 6.55184E-24
7.34736E-01 6.41926E-24
7.38579E-01 6.28891E-24
7.42405E-01 6.16074E-24
7.46212E-01 6.03471E-24
7.50000E-01 5.91079E-24
7.53769E-01 5.78893E-24
7.57519E-01 5.66911E-24
7.61249E-01 5.55128E-24
7.64960E-01 5.43541E-24
7.68650E-01 5.32146E-24
7.72320E-01 5.20941E-24
7.75968E-01 5.09922E-24
7.79596E-01 4.99086E-24
7.83203E-01 4.88430E-24
7.86788E-01 4.77950E-24
7.90351E-01 4.67644E-24
7.93893E-01 4.57508E-24
7.97411E-01 4.47541E-24
8.00908E-01 4.37739E-24
8.04381E-01 4.28100E-24
8.07831E-01 4.18621E-24
8.11257E-01 4.09299E-24
8.14660E-01 4.00132E-24
8.18039E-01 3.91118E-24
8.21394E-01 3.82254E-24
8.24724E-01 3.73537E-24
8.28030E-01 3.64966E-24
8.31310E-01 3.56539E-24
8.34565E-01 3.48252E-24
8.37795E-01 3.40105E-24
8.40999E-01 3.32094E-24
8.44177E-01 3.24219E-24
8.47329E-01 3.16476E-24
8.50455E-01 3.08864E-24
8.53553E-01 3.01381E-24
8.56625E-01 2.94026E-24
8.59670E-01 2.86796E-24
8.62687E-01 2.79689E-24
8.65677E-01 2.72705E-24
8.68639E-01 2.65841E-24
8.71572E-01 2.59095E-24
8.74478E-01 2.52466E-24
8.77355E-01 2.45953E-24
8.80203E-01 2.39554E-24
8.83022E-01 2.33267E-24
8.85812E-01 2.27090E-24
8.88573E-01 2.21024E-24
8.91304E-01 2.15065E-24
8.94005E-01 2.09213E-24
8.96677E-01 2.03466E-24
8.99318E-01 1.97824E-24
9.01928E-01 1.92284E-24
9.04508E-01 1.86846E-24
9.07058E-01 1.81508E-24
9.09576E-01 1.76269E-24
9.12063E-01 1.71128E-24
9.14519E-01 1.66083E-24
9.16943E-01 1.61135E-24
9.19335E-01 1.56281E-24
9.21696E-01 1.51520E-24
9.24024E-01 1.46852E-24
9.26320E-01 1.42275E-24
9.28584E-01 1.37789E-24
9.30815E-01 1.33393E-24
9.33013E-01 1.29085E-24
9.35178E-01 1.24864E-24
9.37310E-01 1.20730E-24
9.39409E-01 1.16683E-24
9.41474E-01 1.12720E-24
9.43505E-01 1.08841E-24
9.45503E-01 1.05046E-24
9.47467E-01 1.01333E-24
9.49397E-01 9.77027E-25
9.51293E-01 9.41529E-25
9.53154E-01 9.06835E-25
9.54981E-01 8.72937E-25
9.56773E-01 8.39828E-25
9.58530E-01 8.07502E-25
9.60252E-01 7.75951E-25
9.61940E-01 7.45170E-25
9.63592E-01 7.15152E-25
9.65209E-01 6.85891E-25
9.66790E-01 6.57381E-25
9.68336E-01 6.29617E-25
9.69846E-01 6.02592E-25
9.71321E-01 5.76302E-25
9.72759E-01 5.50742E-25
9.74162E-01 5.25905E-25
9.75528E-01 5.01788E-25
9.76858E-01 4.78385E-25
9.78152E-01 4.55692E-25
9.79410E-01 4.33705E-25
9.80631E-01 4.12419E-25
9.81815E-01 3.91829E-25
9.82963E-01 3.71933E-25
9.84074E-01 3.52725E-25
9.85148E-01 3.34203E-25
9.86185E-01 3.16362E-25
9.87185E-01 2.99199E-25
9.88148E-01 2.82712E-25
9.89074E-01 2.66896E-25
9.89962E-01 2.51748E-25
9.90814E-01 2.37267E-25
9.91627E-01 2.23448E-25
9.92404E-01 2.10289E-25
9.93143E-01 1.97788E-25
9.93844E-01 1.85943E-25
9.94508E-01 1.74750E-25
9.95134E-01 1.64209E-25
9.95722E-01 1.54316E-25
9.96273E-01 1.45071E-25
9.96786E-01 1.36470E-25
9.97261E-01 1.28513E-25
9.97698E-01 1.21199E-25
9.98097E-01 1.14525E-25
9.98459E-01 1.08490E-25
9.98782E-01 1.03094E-25
9.99067E-01 9.83349E-26
9.99315E-01 9.42122E-26
9.99524E-01 9.07251E-26
9.99695E-01 8.78730E-26
9.99829E-01 8.56552E-26
9.99924E-01 8.40713E-26
9.99981E-01 8.31212E-26
1.00000E+00 8.28045E-26
