 #
 # Subroutine ELSEPA. Elastic scattering of electrons and positrons
 #                    by neutral atoms and positive ions
 #
 # Projectile: electron
 # Kinetic energy = 1.75000E+07 eV = 6.43113E+05 a.u.
 #
 # WARNING: High-energy factorization with free-atom DF screening.
 #          Absorption, polarization and exchange corrections are
 #          switched off.
 #          Phase shifts are calculated for the bare nucleus.
 #          Scattering amplitudes are not evaluated.
 #
 # Element: Pa,  Z =  91,  atomic weight = 2.31036E+02 g/mol
 #
 # Nuclear model: Fermi distribution
 #                Average radius = 6.56564E-13 cm
 #                Skin thickness = 5.46000E-14 cm
 #
 # Number of electrons = 91
 #
 # Total elastic cross section = 1.17045E-17 cm**2 = 4.17975E-01 a0**2
 # 1st transport cross section = 4.79875E-23 cm**2 = 1.71366E-06 a0**2
 # 2nd transport cross section = 1.33238E-22 cm**2 = 4.75800E-06 a0**2
 #
 #
 # Differential cross section:                       MU=(1-COS(THETA))/2
 #
 #  THETA        MU          DCS          DCS        Sherman      error
 #  (deg)                 (cm**2/sr)   (a0**2/sr)    function
 #----------------------------------------------------------------------
0.00000E+00 4.48068E-11
7.61557E-13 4.48006E-11
1.18994E-12 4.47972E-11
1.71346E-12 4.47930E-11
2.33225E-12 4.47880E-11
3.04617E-12 4.47823E-11
3.85530E-12 4.47758E-11
4.75964E-12 4.47685E-11
5.75917E-12 4.47605E-11
6.85391E-12 4.47517E-11
8.04379E-12 4.47422E-11
9.32893E-12 4.47319E-11
1.07092E-11 4.47209E-11
1.21847E-11 4.47091E-11
1.37554E-11 4.46965E-11
1.54213E-11 4.46832E-11
1.71823E-11 4.46691E-11
1.90386E-11 4.46543E-11
2.09900E-11 4.46387E-11
2.30367E-11 4.46224E-11
2.51785E-11 4.46054E-11
2.74156E-11 4.45876E-11
2.97478E-11 4.45690E-11
3.21752E-11 4.45497E-11
3.46979E-11 4.45297E-11
3.73157E-11 4.45089E-11
4.00286E-11 4.44874E-11
4.28368E-11 4.44652E-11
4.57402E-11 4.44422E-11
4.87388E-11 4.44185E-11
5.18325E-11 4.43940E-11
5.50215E-11 4.43688E-11
5.83057E-11 4.43429E-11
6.16850E-11 4.43163E-11
6.51595E-11 4.42890E-11
6.87293E-11 4.42609E-11
7.23943E-11 4.42321E-11
7.61544E-11 4.42026E-11
1.18991E-10 4.38689E-11
1.71347E-10 4.34667E-11
2.33223E-10 4.29992E-11
3.04617E-10 4.24702E-11
3.85531E-10 4.18837E-11
4.75965E-10 4.12440E-11
5.75917E-10 4.05559E-11
6.85389E-10 3.98242E-11
8.04380E-10 3.90556E-11
9.32891E-10 3.82520E-11
1.07092E-09 3.74173E-11
1.21847E-09 3.65622E-11
1.37554E-09 3.56873E-11
1.54213E-09 3.47949E-11
1.71823E-09 3.38962E-11
1.90386E-09 3.29911E-11
2.09900E-09 3.20805E-11
2.30367E-09 3.11753E-11
2.51785E-09 3.02749E-11
2.74156E-09 2.93785E-11
2.97478E-09 2.84962E-11
3.21752E-09 2.76273E-11
3.46978E-09 2.67694E-11
3.73156E-09 2.59311E-11
4.00286E-09 2.51123E-11
4.28368E-09 2.43090E-11
4.57402E-09 2.35285E-11
4.87388E-09 2.27709E-11
5.18326E-09 2.20315E-11
5.50215E-09 2.13158E-11
5.83057E-09 2.06246E-11
6.16850E-09 1.99526E-11
6.51596E-09 1.93039E-11
6.87293E-09 1.86797E-11
7.23942E-09 1.80746E-11
7.61544E-09 1.74916E-11
1.18991E-08 1.27406E-11
1.71347E-08 9.51380E-12
2.33223E-08 7.28149E-12
3.04617E-08 5.68400E-12
3.85531E-08 4.50615E-12
4.75965E-08 3.61735E-12
5.75917E-08 2.93489E-12
6.85389E-08 2.40410E-12
8.04380E-08 1.97093E-12
9.32891E-08 1.64140E-12
1.07092E-07 1.39045E-12
1.21847E-07 1.17563E-12
1.37554E-07 1.00255E-12
1.54213E-07 8.65876E-13
1.71823E-07 7.47887E-13
1.90386E-07 6.49844E-13
2.09900E-07 5.70162E-13
2.30367E-07 5.00537E-13
2.51785E-07 4.41190E-13
2.74156E-07 3.91850E-13
2.97478E-07 3.48353E-13
3.21752E-07 3.10539E-13
3.46978E-07 2.78522E-13
3.73156E-07 2.50138E-13
4.00286E-07 2.25099E-13
4.28368E-07 2.03578E-13
4.57402E-07 1.84412E-13
4.87388E-07 1.67314E-13
5.18325E-07 1.52432E-13
5.50215E-07 1.39115E-13
5.83057E-07 1.27124E-13
6.16850E-07 1.16573E-13
6.51596E-07 1.07083E-13
6.87293E-07 9.84641E-14
7.23942E-07 9.08093E-14
7.61543E-07 8.38878E-14
1.18991E-06 4.09939E-14
1.71347E-06 2.23218E-14
2.33223E-06 1.31031E-14
3.04617E-06 8.20052E-15
3.85531E-06 5.39836E-15
4.75964E-06 3.70354E-15
5.75916E-06 2.62839E-15
6.85388E-06 1.91698E-15
8.04378E-06 1.43006E-15
9.32888E-06 1.08964E-15
1.07092E-05 8.45211E-16
1.21846E-05 6.65975E-16
1.37553E-05 5.31980E-16
1.54212E-05 4.30084E-16
1.71822E-05 3.51580E-16
1.90385E-05 2.90058E-16
2.09899E-05 2.41808E-16
2.30365E-05 2.03146E-16
2.51783E-05 1.71797E-16
2.74153E-05 1.46209E-16
2.97475E-05 1.25184E-16
3.21749E-05 1.07800E-16
3.46974E-05 9.33380E-17
3.73152E-05 8.12274E-17
4.00281E-05 7.10164E-17
4.28362E-05 6.23658E-17
4.57395E-05 5.49935E-17
4.87380E-05 4.86774E-17
5.18317E-05 4.32414E-17
5.50205E-05 3.85408E-17
5.83045E-05 3.44621E-17
6.16838E-05 3.09110E-17
6.51582E-05 2.78079E-17
6.87277E-05 2.50866E-17
7.23925E-05 2.26918E-17
7.61524E-05 2.05721E-17
9.21439E-05 1.42250E-17
1.09658E-04 1.01504E-17
1.28695E-04 7.43697E-18
1.49255E-04 5.57290E-18
1.71338E-04 4.25768E-18
1.94942E-04 3.30846E-18
2.20070E-04 2.60951E-18
2.46720E-04 2.08567E-18
2.74892E-04 1.68692E-18
3.04586E-04 1.37904E-18
3.35803E-04 1.13835E-18
3.68542E-04 9.47960E-19
4.02802E-04 7.95792E-19
4.38585E-04 6.73003E-19
4.75889E-04 5.73029E-19
5.14715E-04 4.90979E-19
5.55063E-04 4.23121E-19
5.96931E-04 3.66614E-19
6.40321E-04 3.19250E-19
6.85233E-04 2.79307E-19
7.31665E-04 2.45434E-19
7.79618E-04 2.16554E-19
8.29092E-04 1.91810E-19
8.80086E-04 1.70509E-19
9.32601E-04 1.52093E-19
9.86636E-04 1.36103E-19
1.04219E-03 1.22166E-19
1.09927E-03 1.09973E-19
1.15786E-03 9.92680E-20
1.21797E-03 8.98384E-20
1.27961E-03 8.15059E-20
1.34276E-03 7.41200E-20
1.40743E-03 6.75550E-20
1.47362E-03 6.17034E-20
1.54133E-03 5.64741E-20
1.61056E-03 5.17890E-20
1.68131E-03 4.75817E-20
1.75357E-03 4.37947E-20
1.82735E-03 4.03784E-20
1.90265E-03 3.72904E-20
1.97947E-03 3.44931E-20
2.05780E-03 3.19543E-20
2.13765E-03 2.96460E-20
2.21902E-03 2.75433E-20
2.30190E-03 2.56247E-20
2.38630E-03 2.38710E-20
2.47222E-03 2.22656E-20
2.55965E-03 2.07936E-20
2.64859E-03 1.94419E-20
2.73905E-03 1.81989E-20
2.83103E-03 1.70541E-20
2.92452E-03 1.59986E-20
3.01952E-03 1.50239E-20
3.11604E-03 1.41228E-20
3.21407E-03 1.32887E-20
3.31362E-03 1.25157E-20
3.41468E-03 1.17984E-20
3.51725E-03 1.11322E-20
3.62133E-03 1.05127E-20
3.72692E-03 9.93593E-21
3.83403E-03 9.39852E-21
3.94265E-03 8.89724E-21
4.05278E-03 8.42919E-21
4.16442E-03 7.99178E-21
4.27757E-03 7.58260E-21
4.39223E-03 7.19950E-21
4.50840E-03 6.84051E-21
4.62608E-03 6.50381E-21
4.74527E-03 6.18777E-21
4.86597E-03 5.89088E-21
4.98817E-03 5.61175E-21
5.11188E-03 5.34912E-21
5.23711E-03 5.10183E-21
5.36383E-03 4.86881E-21
5.49207E-03 4.64908E-21
5.62181E-03 4.44175E-21
5.75306E-03 4.24597E-21
5.88581E-03 4.06098E-21
6.02007E-03 3.88607E-21
6.15583E-03 3.72058E-21
6.29310E-03 3.56392E-21
6.43187E-03 3.41552E-21
6.57214E-03 3.27485E-21
6.71392E-03 3.14144E-21
6.85720E-03 3.01485E-21
7.00198E-03 2.89465E-21
7.14827E-03 2.78046E-21
7.29605E-03 2.67193E-21
7.44534E-03 2.56871E-21
7.59612E-03 2.47050E-21
7.97965E-03 2.24501E-21
8.37255E-03 2.04503E-21
8.77480E-03 1.86714E-21
9.18641E-03 1.70847E-21
9.60736E-03 1.56656E-21
1.00376E-02 1.43932E-21
1.04773E-02 1.32495E-21
1.09262E-02 1.22192E-21
1.13844E-02 1.12889E-21
1.18520E-02 1.04471E-21
1.23288E-02 9.68381E-22
1.28150E-02 8.99037E-22
1.33104E-02 8.35915E-22
1.38150E-02 7.78351E-22
1.43290E-02 7.25765E-22
1.48521E-02 6.77645E-22
1.53845E-02 6.33538E-22
1.59262E-02 5.93043E-22
1.64770E-02 5.55811E-22
1.70371E-02 5.21527E-22
1.76063E-02 4.89911E-22
1.81848E-02 4.60715E-22
1.87724E-02 4.33719E-22
1.93692E-02 4.08725E-22
1.99751E-02 3.85554E-22
2.05901E-02 3.64046E-22
2.12143E-02 3.44060E-22
2.18476E-02 3.25467E-22
2.24900E-02 3.08148E-22
2.31415E-02 2.92000E-22
2.38021E-02 2.76929E-22
2.44717E-02 2.62847E-22
2.51504E-02 2.49676E-22
2.58382E-02 2.37345E-22
2.65349E-02 2.25791E-22
2.72407E-02 2.14954E-22
2.79555E-02 2.04780E-22
2.86793E-02 1.95221E-22
2.94120E-02 1.86232E-22
3.01537E-02 1.77772E-22
3.09043E-02 1.69802E-22
3.16639E-02 1.62290E-22
3.24324E-02 1.55203E-22
3.32098E-02 1.48512E-22
3.39961E-02 1.42191E-22
3.47912E-02 1.36214E-22
3.55952E-02 1.30559E-22
3.64081E-02 1.25205E-22
3.72297E-02 1.20133E-22
3.80602E-02 1.15324E-22
3.88995E-02 1.10762E-22
3.97476E-02 1.06432E-22
4.06044E-02 1.02319E-22
4.14700E-02 9.84101E-23
4.23443E-02 9.46932E-23
4.32273E-02 9.11567E-23
4.41190E-02 8.77898E-23
4.50194E-02 8.45828E-23
4.59284E-02 8.15264E-23
4.68461E-02 7.86120E-23
4.87074E-02 7.31777E-23
5.06030E-02 6.82216E-23
5.25328E-02 6.36931E-23
5.44967E-02 5.95476E-23
5.64946E-02 5.57459E-23
5.85262E-02 5.22537E-23
6.05914E-02 4.90404E-23
6.26901E-02 4.60790E-23
6.48222E-02 4.33456E-23
6.69873E-02 4.08190E-23
6.91854E-02 3.84802E-23
7.14163E-02 3.63122E-23
7.36799E-02 3.43000E-23
7.59760E-02 3.24299E-23
7.83043E-02 3.06898E-23
8.06647E-02 2.90689E-23
8.30571E-02 2.75573E-23
8.54812E-02 2.61466E-23
8.79369E-02 2.48270E-23
9.04240E-02 2.35907E-23
9.29422E-02 2.24325E-23
9.54915E-02 2.13465E-23
9.80716E-02 2.03272E-23
1.00682E-01 1.93695E-23
1.03323E-01 1.84690E-23
1.05995E-01 1.76214E-23
1.08696E-01 1.68230E-23
1.11427E-01 1.60704E-23
1.14188E-01 1.53602E-23
1.16978E-01 1.46896E-23
1.19797E-01 1.40559E-23
1.22645E-01 1.34566E-23
1.25522E-01 1.28894E-23
1.28428E-01 1.23522E-23
1.31361E-01 1.18432E-23
1.34323E-01 1.13604E-23
1.37313E-01 1.09023E-23
1.40330E-01 1.04673E-23
1.43375E-01 1.00540E-23
1.46447E-01 9.66110E-24
1.49545E-01 9.28731E-24
1.52671E-01 8.93154E-24
1.55823E-01 8.59272E-24
1.59001E-01 8.26987E-24
1.62205E-01 7.96208E-24
1.65435E-01 7.66849E-24
1.68690E-01 7.38830E-24
1.71970E-01 7.12077E-24
1.75276E-01 6.86521E-24
1.78606E-01 6.62096E-24
1.81961E-01 6.38742E-24
1.85340E-01 6.16402E-24
1.88743E-01 5.95022E-24
1.92169E-01 5.74552E-24
1.95619E-01 5.54945E-24
1.99092E-01 5.36158E-24
2.02589E-01 5.18148E-24
2.06107E-01 5.00877E-24
2.09649E-01 4.84308E-24
2.13212E-01 4.68406E-24
2.16797E-01 4.53140E-24
2.20404E-01 4.38478E-24
2.24032E-01 4.24391E-24
2.27680E-01 4.10853E-24
2.31350E-01 3.97837E-24
2.35040E-01 3.85320E-24
2.38751E-01 3.73278E-24
2.42481E-01 3.61689E-24
2.46231E-01 3.50533E-24
2.50000E-01 3.39791E-24
2.53788E-01 3.29443E-24
2.57595E-01 3.19474E-24
2.61421E-01 3.09865E-24
2.65264E-01 3.00602E-24
2.69126E-01 2.91669E-24
2.73005E-01 2.83053E-24
2.76901E-01 2.74740E-24
2.80814E-01 2.66716E-24
2.84744E-01 2.58971E-24
2.88691E-01 2.51493E-24
2.92653E-01 2.44270E-24
2.96632E-01 2.37292E-24
3.00625E-01 2.30550E-24
3.04634E-01 2.24033E-24
3.08658E-01 2.17733E-24
3.12697E-01 2.11641E-24
3.16749E-01 2.05749E-24
3.20816E-01 2.00050E-24
3.24896E-01 1.94535E-24
3.28990E-01 1.89198E-24
3.33097E-01 1.84032E-24
3.37216E-01 1.79029E-24
3.41348E-01 1.74186E-24
3.45492E-01 1.69494E-24
3.49647E-01 1.64949E-24
3.53814E-01 1.60545E-24
3.57992E-01 1.56277E-24
3.62181E-01 1.52140E-24
3.66381E-01 1.48129E-24
3.70590E-01 1.44240E-24
3.74810E-01 1.40468E-24
3.79039E-01 1.36810E-24
3.83277E-01 1.33260E-24
3.87524E-01 1.29816E-24
3.91780E-01 1.26473E-24
3.96044E-01 1.23229E-24
4.00316E-01 1.20079E-24
4.04596E-01 1.17021E-24
4.08882E-01 1.14052E-24
4.13176E-01 1.11167E-24
4.17476E-01 1.08365E-24
4.21783E-01 1.05643E-24
4.26095E-01 1.02998E-24
4.30413E-01 1.00427E-24
4.34737E-01 9.79283E-25
4.39065E-01 9.54994E-25
4.43398E-01 9.31378E-25
4.47736E-01 9.08415E-25
4.52077E-01 8.86083E-25
4.56422E-01 8.64362E-25
4.60770E-01 8.43232E-25
4.65122E-01 8.22675E-25
4.69476E-01 8.02673E-25
4.73832E-01 7.83207E-25
4.78190E-01 7.64262E-25
4.82550E-01 7.45821E-25
4.86912E-01 7.27869E-25
4.91274E-01 7.10390E-25
4.95637E-01 6.93371E-25
5.00000E-01 6.76796E-25
5.04363E-01 6.60652E-25
5.08726E-01 6.44928E-25
5.13088E-01 6.29608E-25
5.17450E-01 6.14683E-25
5.21810E-01 6.00140E-25
5.26168E-01 5.85967E-25
5.30524E-01 5.72154E-25
5.34878E-01 5.58690E-25
5.39230E-01 5.45566E-25
5.43578E-01 5.32770E-25
5.47923E-01 5.20294E-25
5.52264E-01 5.08128E-25
5.56602E-01 4.96264E-25
5.60935E-01 4.84692E-25
5.65263E-01 4.73405E-25
5.69587E-01 4.62395E-25
5.73905E-01 4.51653E-25
5.78217E-01 4.41172E-25
5.82524E-01 4.30945E-25
5.86824E-01 4.20965E-25
5.91118E-01 4.11224E-25
5.95404E-01 4.01717E-25
5.99684E-01 3.92437E-25
6.03956E-01 3.83378E-25
6.08220E-01 3.74533E-25
6.12476E-01 3.65897E-25
6.16723E-01 3.57464E-25
6.20961E-01 3.49229E-25
6.25190E-01 3.41186E-25
6.29410E-01 3.33330E-25
6.33619E-01 3.25657E-25
6.37819E-01 3.18161E-25
6.42008E-01 3.10838E-25
6.46186E-01 3.03684E-25
6.50353E-01 2.96693E-25
6.54508E-01 2.89861E-25
6.58652E-01 2.83186E-25
6.62784E-01 2.76661E-25
6.66903E-01 2.70284E-25
6.71010E-01 2.64051E-25
6.75104E-01 2.57958E-25
6.79184E-01 2.52002E-25
6.83251E-01 2.46178E-25
6.87303E-01 2.40485E-25
6.91342E-01 2.34918E-25
6.95366E-01 2.29474E-25
6.99375E-01 2.24150E-25
7.03368E-01 2.18944E-25
7.07347E-01 2.13852E-25
7.11309E-01 2.08871E-25
7.15256E-01 2.03999E-25
7.19186E-01 1.99234E-25
7.23099E-01 1.94572E-25
7.26995E-01 1.90011E-25
7.30874E-01 1.85549E-25
7.34736E-01 1.81182E-25
7.38579E-01 1.76910E-25
7.42405E-01 1.72730E-25
7.46212E-01 1.68639E-25
7.50000E-01 1.64636E-25
7.53769E-01 1.60718E-25
7.57519E-01 1.56883E-25
7.61249E-01 1.53130E-25
7.64960E-01 1.49457E-25
7.68650E-01 1.45861E-25
7.72320E-01 1.42341E-25
7.75968E-01 1.38895E-25
7.79596E-01 1.35522E-25
7.83203E-01 1.32219E-25
7.86788E-01 1.28986E-25
7.90351E-01 1.25821E-25
7.93893E-01 1.22722E-25
7.97411E-01 1.19687E-25
8.00908E-01 1.16716E-25
8.04381E-01 1.13806E-25
8.07831E-01 1.10958E-25
8.11257E-01 1.08168E-25
8.14660E-01 1.05436E-25
8.18039E-01 1.02761E-25
8.21394E-01 1.00141E-25
8.24724E-01 9.75760E-26
8.28030E-01 9.50637E-26
8.31310E-01 9.26034E-26
8.34565E-01 9.01940E-26
8.37795E-01 8.78344E-26
8.40999E-01 8.55235E-26
8.44177E-01 8.32604E-26
8.47329E-01 8.10441E-26
8.50455E-01 7.88736E-26
8.53553E-01 7.67480E-26
8.56625E-01 7.46664E-26
8.59670E-01 7.26279E-26
8.62687E-01 7.06316E-26
8.65677E-01 6.86766E-26
8.68639E-01 6.67623E-26
8.71572E-01 6.48877E-26
8.74478E-01 6.30522E-26
8.77355E-01 6.12549E-26
8.80203E-01 5.94950E-26
8.83022E-01 5.77720E-26
8.85812E-01 5.60851E-26
8.88573E-01 5.44336E-26
8.91304E-01 5.28168E-26
8.94005E-01 5.12342E-26
8.96677E-01 4.96850E-26
8.99318E-01 4.81687E-26
9.01928E-01 4.66847E-26
9.04508E-01 4.52324E-26
9.07058E-01 4.38112E-26
9.09576E-01 4.24206E-26
9.12063E-01 4.10600E-26
9.14519E-01 3.97290E-26
9.16943E-01 3.84269E-26
9.19335E-01 3.71534E-26
9.21696E-01 3.59080E-26
9.24024E-01 3.46901E-26
9.26320E-01 3.34993E-26
9.28584E-01 3.23352E-26
9.30815E-01 3.11973E-26
9.33013E-01 3.00853E-26
9.35178E-01 2.89987E-26
9.37310E-01 2.79371E-26
9.39409E-01 2.69001E-26
9.41474E-01 2.58874E-26
9.43505E-01 2.48985E-26
9.45503E-01 2.39332E-26
9.47467E-01 2.29911E-26
9.49397E-01 2.20718E-26
9.51293E-01 2.11751E-26
9.53154E-01 2.03005E-26
9.54981E-01 1.94479E-26
9.56773E-01 1.86168E-26
9.58530E-01 1.78071E-26
9.60252E-01 1.70184E-26
9.61940E-01 1.62504E-26
9.63592E-01 1.55029E-26
9.65209E-01 1.47757E-26
9.66790E-01 1.40684E-26
9.68336E-01 1.33808E-26
9.69846E-01 1.27128E-26
9.71321E-01 1.20640E-26
9.72759E-01 1.14343E-26
9.74162E-01 1.08234E-26
9.75528E-01 1.02311E-26
9.76858E-01 9.65733E-27
9.78152E-01 9.10174E-27
9.79410E-01 8.56422E-27
9.80631E-01 8.04457E-27
9.81815E-01 7.54262E-27
9.82963E-01 7.05821E-27
9.84074E-01 6.59117E-27
9.85148E-01 6.14136E-27
9.86185E-01 5.70862E-27
9.87185E-01 5.29282E-27
9.88148E-01 4.89381E-27
9.89074E-01 4.51146E-27
9.89962E-01 4.14566E-27
9.90814E-01 3.79627E-27
9.91627E-01 3.46320E-27
9.92404E-01 3.14632E-27
9.93143E-01 2.84554E-27
9.93844E-01 2.56077E-27
9.94508E-01 2.29189E-27
9.95134E-01 2.03884E-27
9.95722E-01 1.80153E-27
9.96273E-01 1.57989E-27
9.96786E-01 1.37383E-27
9.97261E-01 1.18331E-27
9.97698E-01 1.00824E-27
9.98097E-01 8.48591E-28
9.98459E-01 7.04296E-28
9.98782E-01 5.75313E-28
9.99067E-01 4.61602E-28
9.99315E-01 3.63124E-28
9.99524E-01 2.79851E-28
9.99695E-01 2.11754E-28
9.99829E-01 1.58812E-28
9.99924E-01 1.21008E-28
9.99981E-01 9.83310E-29
1.00000E+00 9.07726E-29
