 #
 # Subroutine ELSEPA. Elastic scattering of electrons and positrons
 #                    by neutral atoms and positive ions
 #
 # Projectile: electron
 # Kinetic energy = 2.50000E+08 eV = 9.18733E+06 a.u.
 #
 # WARNING: High-energy factorization with free-atom DF screening.
 #          Absorption, polarization and exchange corrections are
 #          switched off.
 #          Phase shifts are calculated for the bare nucleus.
 #          Scattering amplitudes are not evaluated.
 #
 # Element: Mn,  Z =  25,  atomic weight = 5.49380E+01 g/mol
 #
 # Nuclear model: Fermi distribution
 #                Average radius = 4.06763E-13 cm
 #                Skin thickness = 5.46000E-14 cm
 #
 # Number of electrons = 25
 #
 # Total elastic cross section = 1.95117E-18 cm**2 = 6.96777E-02 a0**2
 # 1st transport cross section = 2.07638E-26 cm**2 = 7.41490E-10 a0**2
 # 2nd transport cross section = 6.21738E-26 cm**2 = 2.22027E-09 a0**2
 #
 #
 # Differential cross section:                       MU=(1-COS(THETA))/2
 #
 #  THETA        MU          DCS          DCS        Sherman      error
 #  (deg)                 (cm**2/sr)   (a0**2/sr)    function
 #----------------------------------------------------------------------
0.00000E+00 1.34190E-09
7.61557E-13 1.31525E-09
1.18994E-12 1.30064E-09
1.71346E-12 1.28313E-09
2.33225E-12 1.26291E-09
3.04617E-12 1.24021E-09
3.85530E-12 1.21523E-09
4.75964E-12 1.18824E-09
5.75917E-12 1.15964E-09
6.85391E-12 1.12940E-09
8.04379E-12 1.09813E-09
9.32893E-12 1.06574E-09
1.07092E-11 1.03280E-09
1.21847E-11 9.99291E-10
1.37554E-11 9.65602E-10
1.54213E-11 9.31865E-10
1.71823E-11 8.98247E-10
1.90386E-11 8.65023E-10
2.09900E-11 8.32144E-10
2.30367E-11 8.00013E-10
2.51785E-11 7.68396E-10
2.74156E-11 7.37747E-10
2.97478E-11 7.07799E-10
3.21752E-11 6.78897E-10
3.46979E-11 6.50881E-10
3.73157E-11 6.23909E-10
4.00286E-11 5.97937E-10
4.28368E-11 5.72980E-10
4.57402E-11 5.49076E-10
4.87388E-11 5.26139E-10
5.18325E-11 5.04262E-10
5.50215E-11 4.83292E-10
5.83057E-11 4.63352E-10
6.16850E-11 4.44261E-10
6.51595E-11 4.26126E-10
6.87293E-11 4.08813E-10
7.23943E-11 3.92357E-10
7.61544E-11 3.76682E-10
1.18991E-10 2.56241E-10
1.71347E-10 1.81712E-10
2.33223E-10 1.33431E-10
3.04617E-10 1.00466E-10
3.85531E-10 7.65875E-11
4.75965E-10 5.89759E-11
5.75917E-10 4.68495E-11
6.85389E-10 3.66737E-11
8.04380E-10 2.94450E-11
9.32891E-10 2.35052E-11
1.07092E-09 1.90435E-11
1.21847E-09 1.54785E-11
1.37554E-09 1.26844E-11
1.54213E-09 1.04747E-11
1.71823E-09 8.69827E-12
1.90386E-09 7.28863E-12
2.09900E-09 6.13774E-12
2.30367E-09 5.21396E-12
2.51785E-09 4.45126E-12
2.74156E-09 3.82932E-12
2.97478E-09 3.31172E-12
3.21752E-09 2.88236E-12
3.46978E-09 2.52180E-12
3.73156E-09 2.21812E-12
4.00286E-09 1.96036E-12
4.28368E-09 1.74035E-12
4.57402E-09 1.55170E-12
4.87388E-09 1.38860E-12
5.18326E-09 1.24757E-12
5.50215E-09 1.12408E-12
5.83057E-09 1.01655E-12
6.16850E-09 9.21332E-13
6.51596E-09 8.37733E-13
6.87293E-09 7.63270E-13
7.23942E-09 6.97248E-13
7.61544E-09 6.38195E-13
1.18991E-08 2.89139E-13
1.71347E-08 1.47886E-13
2.33223E-08 8.24839E-14
3.04617E-08 4.92932E-14
3.85531E-08 3.11678E-14
4.75965E-08 2.06583E-14
5.75917E-08 1.42345E-14
6.85389E-08 1.01314E-14
8.04380E-08 7.41060E-15
9.32891E-08 5.54785E-15
1.07092E-07 4.23664E-15
1.21847E-07 3.29176E-15
1.37554E-07 2.59667E-15
1.54213E-07 2.07593E-15
1.71823E-07 1.67949E-15
1.90386E-07 1.37333E-15
2.09900E-07 1.13383E-15
2.30367E-07 9.44248E-16
2.51785E-07 7.92641E-16
2.74156E-07 6.70236E-16
2.97478E-07 5.70539E-16
3.21752E-07 4.88680E-16
3.46978E-07 4.20966E-16
3.73156E-07 3.64563E-16
4.00286E-07 3.17278E-16
4.28368E-07 2.77401E-16
4.57402E-07 2.43587E-16
4.87388E-07 2.14763E-16
5.18325E-07 1.90073E-16
5.50215E-07 1.68825E-16
5.83057E-07 1.50460E-16
6.16850E-07 1.34522E-16
6.51596E-07 1.20635E-16
6.87293E-07 1.08493E-16
7.23942E-07 9.78393E-17
7.61543E-07 8.84598E-17
1.18991E-06 3.63499E-17
1.71347E-06 1.75572E-17
2.33223E-06 9.48517E-18
3.04617E-06 5.56308E-18
3.85531E-06 3.47432E-18
4.75964E-06 2.28016E-18
5.75916E-06 1.55774E-18
6.85388E-06 1.10009E-18
8.04378E-06 7.98832E-19
9.32888E-06 5.94000E-19
1.07092E-05 4.50815E-19
1.21846E-05 3.48293E-19
1.37553E-05 2.73330E-19
1.54212E-05 2.17495E-19
1.71822E-05 1.75219E-19
1.90385E-05 1.42730E-19
2.09899E-05 1.17449E-19
2.30365E-05 9.75246E-20
2.51783E-05 8.16488E-20
2.74153E-05 6.88740E-20
2.97475E-05 5.85021E-20
3.21749E-05 5.00116E-20
3.46974E-05 4.30080E-20
3.73152E-05 3.71898E-20
4.00281E-05 3.23240E-20
4.28362E-05 2.82290E-20
4.57395E-05 2.47626E-20
4.87380E-05 2.18122E-20
5.18317E-05 1.92882E-20
5.50205E-05 1.71189E-20
5.83045E-05 1.52463E-20
6.16838E-05 1.36229E-20
6.51582E-05 1.22101E-20
6.87277E-05 1.09760E-20
7.23925E-05 9.89411E-21
7.61524E-05 8.93357E-21
9.21439E-05 6.10272E-21
1.09658E-04 4.30937E-21
1.28695E-04 3.12897E-21
1.49255E-04 2.32630E-21
1.71338E-04 1.76524E-21
1.94942E-04 1.36350E-21
2.20070E-04 1.06975E-21
2.46720E-04 8.50973E-22
2.74892E-04 6.85318E-22
3.04586E-04 5.58045E-22
3.35803E-04 4.58955E-22
3.68542E-04 3.80885E-22
4.02802E-04 3.18705E-22
4.38585E-04 2.68687E-22
4.75889E-04 2.28088E-22
5.14715E-04 1.94857E-22
5.55063E-04 1.67448E-22
5.96931E-04 1.44678E-22
6.40321E-04 1.25639E-22
6.85233E-04 1.09619E-22
7.31665E-04 9.60634E-23
7.79618E-04 8.45309E-23
8.29092E-04 7.46701E-23
8.80086E-04 6.61989E-23
9.32601E-04 5.88891E-23
9.86636E-04 5.25551E-23
1.04219E-03 4.70449E-23
1.09927E-03 4.22334E-23
1.15786E-03 3.80172E-23
1.21797E-03 3.43101E-23
1.27961E-03 3.10405E-23
1.34276E-03 2.81478E-23
1.40743E-03 2.55812E-23
1.47362E-03 2.32978E-23
1.54133E-03 2.12610E-23
1.61056E-03 1.94395E-23
1.68131E-03 1.78068E-23
1.75357E-03 1.63399E-23
1.82735E-03 1.50191E-23
1.90265E-03 1.38273E-23
1.97947E-03 1.27498E-23
2.05780E-03 1.17737E-23
2.13765E-03 1.08878E-23
2.21902E-03 1.00825E-23
2.30190E-03 9.34894E-24
2.38630E-03 8.67980E-24
2.47222E-03 8.06839E-24
2.55965E-03 7.50889E-24
2.64859E-03 6.99612E-24
2.73905E-03 6.52551E-24
2.83103E-03 6.09300E-24
2.92452E-03 5.69496E-24
3.01952E-03 5.32817E-24
3.11604E-03 4.98977E-24
3.21407E-03 4.67717E-24
3.31362E-03 4.38807E-24
3.41468E-03 4.12040E-24
3.51725E-03 3.87229E-24
3.62133E-03 3.64208E-24
3.72692E-03 3.42824E-24
3.83403E-03 3.22942E-24
3.94265E-03 3.04438E-24
4.05278E-03 2.87201E-24
4.16442E-03 2.71128E-24
4.27757E-03 2.56127E-24
4.39223E-03 2.42116E-24
4.50840E-03 2.29017E-24
4.62608E-03 2.16761E-24
4.74527E-03 2.05285E-24
4.86597E-03 1.94531E-24
4.98817E-03 1.84445E-24
5.11188E-03 1.74979E-24
5.23711E-03 1.66089E-24
5.36383E-03 1.57734E-24
5.49207E-03 1.49875E-24
5.62181E-03 1.42480E-24
5.75306E-03 1.35515E-24
5.88581E-03 1.28952E-24
6.02007E-03 1.22763E-24
6.15583E-03 1.16924E-24
6.29310E-03 1.11412E-24
6.43187E-03 1.06205E-24
6.57214E-03 1.01283E-24
6.71392E-03 9.66297E-25
6.85720E-03 9.22265E-25
7.00198E-03 8.80582E-25
7.14827E-03 8.41102E-25
7.29605E-03 8.03690E-25
7.44534E-03 7.68220E-25
7.59612E-03 7.34575E-25
7.97965E-03 6.57752E-25
8.37255E-03 5.90165E-25
8.77480E-03 5.30544E-25
9.18641E-03 4.77817E-25
9.60736E-03 4.31073E-25
1.00376E-02 3.89537E-25
1.04773E-02 3.52549E-25
1.09262E-02 3.19542E-25
1.13844E-02 2.90029E-25
1.18520E-02 2.63590E-25
1.23288E-02 2.39862E-25
1.28150E-02 2.18531E-25
1.33104E-02 1.99323E-25
1.38150E-02 1.81999E-25
1.43290E-02 1.66351E-25
1.48521E-02 1.52197E-25
1.53845E-02 1.39376E-25
1.59262E-02 1.27748E-25
1.64770E-02 1.17188E-25
1.70371E-02 1.07587E-25
1.76063E-02 9.88471E-26
1.81848E-02 9.08830E-26
1.87724E-02 8.36180E-26
1.93692E-02 7.69839E-26
1.99751E-02 7.09200E-26
2.05901E-02 6.53723E-26
2.12143E-02 6.02922E-26
2.18476E-02 5.56364E-26
2.24900E-02 5.13660E-26
2.31415E-02 4.74459E-26
2.38021E-02 4.38448E-26
2.44717E-02 4.05343E-26
2.51504E-02 3.74888E-26
2.58382E-02 3.46854E-26
2.65349E-02 3.21031E-26
2.72407E-02 2.97231E-26
2.79555E-02 2.75283E-26
2.86793E-02 2.55031E-26
2.94120E-02 2.36334E-26
3.01537E-02 2.19065E-26
3.09043E-02 2.03107E-26
3.16639E-02 1.88353E-26
3.24324E-02 1.74708E-26
3.32098E-02 1.62081E-26
3.39961E-02 1.50393E-26
3.47912E-02 1.39570E-26
3.55952E-02 1.29544E-26
3.64081E-02 1.20254E-26
3.72297E-02 1.11643E-26
3.80602E-02 1.03658E-26
3.88995E-02 9.62523E-27
3.97476E-02 8.93820E-27
4.06044E-02 8.30067E-27
4.14700E-02 7.70894E-27
4.23443E-02 7.15960E-27
4.32273E-02 6.64952E-27
4.41190E-02 6.17580E-27
4.50194E-02 5.73577E-27
4.59284E-02 5.32697E-27
4.68461E-02 4.94714E-27
4.87074E-02 4.26615E-27
5.06030E-02 3.67785E-27
5.25328E-02 3.16948E-27
5.44967E-02 2.73007E-27
5.64946E-02 2.35024E-27
5.85262E-02 2.02190E-27
6.05914E-02 1.73811E-27
6.26901E-02 1.49287E-27
6.48222E-02 1.28101E-27
6.69873E-02 1.09806E-27
6.91854E-02 9.40151E-28
7.14163E-02 8.03938E-28
7.36799E-02 6.86525E-28
7.59760E-02 5.85398E-28
7.83043E-02 4.98378E-28
8.06647E-02 4.23574E-28
8.30571E-02 3.59346E-28
8.54812E-02 3.04268E-28
8.79369E-02 2.57102E-28
9.04240E-02 2.16773E-28
9.29422E-02 1.82348E-28
9.54915E-02 1.53016E-28
9.80716E-02 1.28073E-28
1.00682E-01 1.06908E-28
1.03323E-01 8.89903E-29
1.05995E-01 7.38608E-29
1.08696E-01 6.11211E-29
1.11427E-01 5.04259E-29
1.14188E-01 4.14769E-29
1.16978E-01 3.40160E-29
1.19797E-01 2.78203E-29
1.22645E-01 2.26977E-29
1.25522E-01 1.84826E-29
1.28428E-01 1.50326E-29
1.31361E-01 1.22257E-29
1.34323E-01 9.95705E-30
1.37313E-01 8.13708E-30
1.40330E-01 6.68941E-30
1.43375E-01 5.54901E-30
1.46447E-01 4.66067E-30
1.49545E-01 3.97769E-30
1.52671E-01 3.46070E-30
1.55823E-01 3.07660E-30
1.59001E-01 2.79775E-30
1.62205E-01 2.60110E-30
1.65435E-01 2.46759E-30
1.68690E-01 2.38156E-30
1.71970E-01 2.33020E-30
1.75276E-01 2.30315E-30
1.78606E-01 2.29212E-30
1.81961E-01 2.29054E-30
1.85340E-01 2.29329E-30
1.88743E-01 2.29648E-30
1.92169E-01 2.29720E-30
1.95619E-01 2.29337E-30
1.99092E-01 2.28358E-30
2.02589E-01 2.26698E-30
2.06107E-01 2.24313E-30
2.09649E-01 2.21194E-30
2.13212E-01 2.17358E-30
2.16797E-01 2.12843E-30
2.20404E-01 2.07700E-30
2.24032E-01 2.01990E-30
2.27680E-01 1.95782E-30
2.31350E-01 1.89147E-30
2.35040E-01 1.82158E-30
2.38751E-01 1.74886E-30
2.42481E-01 1.67401E-30
2.46231E-01 1.59768E-30
2.50000E-01 1.52051E-30
2.53788E-01 1.44305E-30
2.57595E-01 1.36584E-30
2.61421E-01 1.28935E-30
2.65264E-01 1.21400E-30
2.69126E-01 1.14016E-30
2.73005E-01 1.06814E-30
2.76901E-01 9.98224E-31
2.80814E-01 9.30625E-31
2.84744E-01 8.65529E-31
2.88691E-01 8.03081E-31
2.92653E-01 7.43385E-31
2.96632E-01 6.86515E-31
3.00625E-01 6.32515E-31
3.04634E-01 5.81401E-31
3.08658E-01 5.33166E-31
3.12697E-01 4.87782E-31
3.16749E-01 4.45205E-31
3.20816E-01 4.05372E-31
3.24896E-01 3.68209E-31
3.28990E-01 3.33632E-31
3.33097E-01 3.01548E-31
3.37216E-01 2.71855E-31
3.41348E-01 2.44449E-31
3.45492E-01 2.19221E-31
3.49647E-01 1.96058E-31
3.53814E-01 1.74850E-31
3.57992E-01 1.55484E-31
3.62181E-01 1.37849E-31
3.66381E-01 1.21834E-31
3.70590E-01 1.07332E-31
3.74810E-01 9.42403E-32
3.79039E-01 8.24563E-32
3.83277E-01 7.18830E-32
3.87524E-01 6.24272E-32
3.91780E-01 5.39997E-32
3.96044E-01 4.65158E-32
4.00316E-01 3.98951E-32
4.04596E-01 3.40619E-32
4.08882E-01 2.89449E-32
4.13176E-01 2.44771E-32
4.17476E-01 2.05959E-32
4.21783E-01 1.72432E-32
4.26095E-01 1.43648E-32
4.30413E-01 1.19106E-32
4.34737E-01 9.83430E-33
4.39065E-01 8.09331E-33
4.43398E-01 6.64856E-33
4.47736E-01 5.46429E-33
4.52077E-01 4.50791E-33
4.56422E-01 3.74980E-33
4.60770E-01 3.16311E-33
4.65122E-01 2.72359E-33
4.69476E-01 2.40947E-33
4.73832E-01 2.20118E-33
4.78190E-01 2.08130E-33
4.82550E-01 2.03431E-33
4.86912E-01 2.04648E-33
4.91274E-01 2.10573E-33
4.95637E-01 2.20148E-33
5.00000E-01 2.32448E-33
5.04363E-01 2.46677E-33
5.08726E-01 2.62148E-33
5.13088E-01 2.78278E-33
5.17450E-01 2.94572E-33
5.21810E-01 3.10621E-33
5.26168E-01 3.26087E-33
5.30524E-01 3.40695E-33
5.34878E-01 3.54231E-33
5.39230E-01 3.66529E-33
5.43578E-01 3.77468E-33
5.47923E-01 3.86965E-33
5.52264E-01 3.94970E-33
5.56602E-01 4.01463E-33
5.60935E-01 4.06446E-33
5.65263E-01 4.09943E-33
5.69587E-01 4.11992E-33
5.73905E-01 4.12647E-33
5.78217E-01 4.11974E-33
5.82524E-01 4.10044E-33
5.86824E-01 4.06937E-33
5.91118E-01 4.02737E-33
5.95404E-01 3.97530E-33
5.99684E-01 3.91405E-33
6.03956E-01 3.84448E-33
6.08220E-01 3.76749E-33
6.12476E-01 3.68392E-33
6.16723E-01 3.59462E-33
6.20961E-01 3.50038E-33
6.25190E-01 3.40198E-33
6.29410E-01 3.30015E-33
6.33619E-01 3.19559E-33
6.37819E-01 3.08895E-33
6.42008E-01 2.98084E-33
6.46186E-01 2.87183E-33
6.50353E-01 2.76243E-33
6.54508E-01 2.65312E-33
6.58652E-01 2.54435E-33
6.62784E-01 2.43651E-33
6.66903E-01 2.32995E-33
6.71010E-01 2.22499E-33
6.75104E-01 2.12191E-33
6.79184E-01 2.02096E-33
6.83251E-01 1.92234E-33
6.87303E-01 1.82624E-33
6.91342E-01 1.73281E-33
6.95366E-01 1.64218E-33
6.99375E-01 1.55444E-33
7.03368E-01 1.46967E-33
7.07347E-01 1.38793E-33
7.11309E-01 1.30925E-33
7.15256E-01 1.23366E-33
7.19186E-01 1.16114E-33
7.23099E-01 1.09170E-33
7.26995E-01 1.02530E-33
7.30874E-01 9.61911E-34
7.34736E-01 9.01482E-34
7.38579E-01 8.43959E-34
7.42405E-01 7.89278E-34
7.46212E-01 7.37371E-34
7.50000E-01 6.88162E-34
7.53769E-01 6.41572E-34
7.57519E-01 5.97516E-34
7.61249E-01 5.55912E-34
7.64960E-01 5.16670E-34
7.68650E-01 4.79700E-34
7.72320E-01 4.44914E-34
7.75968E-01 4.12220E-34
7.79596E-01 3.81529E-34
7.83203E-01 3.52751E-34
7.86788E-01 3.25799E-34
7.90351E-01 3.00584E-34
7.93893E-01 2.77021E-34
7.97411E-01 2.55028E-34
8.00908E-01 2.34522E-34
8.04381E-01 2.15424E-34
8.07831E-01 1.97658E-34
8.11257E-01 1.81150E-34
8.14660E-01 1.65826E-34
8.18039E-01 1.51620E-34
8.21394E-01 1.38463E-34
8.24724E-01 1.26293E-34
8.28030E-01 1.15049E-34
8.31310E-01 1.04672E-34
8.34565E-01 9.51060E-35
8.37795E-01 8.62993E-35
8.40999E-01 7.82008E-35
8.44177E-01 7.07629E-35
8.47329E-01 6.39404E-35
8.50455E-01 5.76905E-35
8.53553E-01 5.19724E-35
8.56625E-01 4.67479E-35
8.59670E-01 4.19812E-35
8.62687E-01 3.76382E-35
8.65677E-01 3.36868E-35
8.68639E-01 3.00973E-35
8.71572E-01 2.68417E-35
8.74478E-01 2.38934E-35
8.77355E-01 2.12278E-35
8.80203E-01 1.88221E-35
8.83022E-01 1.66549E-35
8.85812E-01 1.47060E-35
8.88573E-01 1.29570E-35
8.91304E-01 1.13906E-35
8.94005E-01 9.99075E-36
8.96677E-01 8.74245E-36
8.99318E-01 7.63212E-36
9.01928E-01 6.64700E-36
9.04508E-01 5.77518E-36
9.07058E-01 5.00596E-36
9.09576E-01 4.32936E-36
9.12063E-01 3.73611E-36
9.14519E-01 3.21779E-36
9.16943E-01 2.76670E-36
9.19335E-01 2.37575E-36
9.21696E-01 2.03843E-36
9.24024E-01 1.74886E-36
9.26320E-01 1.50161E-36
9.28584E-01 1.29184E-36
9.30815E-01 1.11506E-36
9.33013E-01 9.67238E-37
9.35178E-01 8.44656E-37
9.37310E-01 7.44105E-37
9.39409E-01 6.62618E-37
9.41474E-01 5.97518E-37
9.43505E-01 5.46344E-37
9.45503E-01 5.07046E-37
9.47467E-01 4.77657E-37
9.49397E-01 4.56551E-37
9.51293E-01 4.42180E-37
9.53154E-01 4.33233E-37
9.54981E-01 4.28568E-37
9.56773E-01 4.27184E-37
9.58530E-01 4.28177E-37
9.60252E-01 4.30798E-37
9.61940E-01 4.34408E-37
9.63592E-01 4.38454E-37
9.65209E-01 4.42460E-37
9.66790E-01 4.46066E-37
9.68336E-01 4.48938E-37
9.69846E-01 4.50841E-37
9.71321E-01 4.51575E-37
9.72759E-01 4.51001E-37
9.74162E-01 4.49018E-37
9.75528E-01 4.45563E-37
9.76858E-01 4.40613E-37
9.78152E-01 4.34160E-37
9.79410E-01 4.26242E-37
9.80631E-01 4.16907E-37
9.81815E-01 4.06214E-37
9.82963E-01 3.94251E-37
9.84074E-01 3.81113E-37
9.85148E-01 3.66897E-37
9.86185E-01 3.51723E-37
9.87185E-01 3.35711E-37
9.88148E-01 3.18984E-37
9.89074E-01 3.01664E-37
9.89962E-01 2.83887E-37
9.90814E-01 2.65774E-37
9.91627E-01 2.47458E-37
9.92404E-01 2.29064E-37
9.93143E-01 2.10711E-37
9.93844E-01 1.92517E-37
9.94508E-01 1.74607E-37
9.95134E-01 1.57095E-37
9.95722E-01 1.40082E-37
9.96273E-01 1.23687E-37
9.96786E-01 1.07966E-37
9.97261E-01 9.30547E-38
9.97698E-01 7.90049E-38
9.98097E-01 6.59312E-38
9.98459E-01 5.38664E-38
9.98782E-01 4.29033E-38
9.99067E-01 3.30764E-38
9.99315E-01 2.44673E-38
9.99524E-01 1.71008E-38
9.99695E-01 1.10242E-38
9.99829E-01 6.26018E-39
9.99924E-01 2.84423E-39
9.99981E-01 7.88292E-40
1.00000E+00 8.90247E-41
