 #
 # Subroutine ELSEPA. Elastic scattering of electrons and positrons
 #                    by neutral atoms and positive ions
 #
 # Projectile: electron
 # Kinetic energy = 3.50000E+08 eV = 1.28623E+07 a.u.
 #
 # WARNING: High-energy factorization with free-atom DF screening.
 #          Absorption, polarization and exchange corrections are
 #          switched off.
 #          Phase shifts are calculated for the bare nucleus.
 #          Scattering amplitudes are not evaluated.
 #
 # Element: Mn,  Z =  25,  atomic weight = 5.49380E+01 g/mol
 #
 # Nuclear model: Fermi distribution
 #                Average radius = 4.06763E-13 cm
 #                Skin thickness = 5.46000E-14 cm
 #
 # Number of electrons = 25
 #
 # Total elastic cross section = 1.95053E-18 cm**2 = 6.96545E-02 a0**2
 # 1st transport cross section = 1.06058E-26 cm**2 = 3.78740E-10 a0**2
 # 2nd transport cross section = 3.17860E-26 cm**2 = 1.13510E-09 a0**2
 #
 #
 # Differential cross section:                       MU=(1-COS(THETA))/2
 #
 #  THETA        MU          DCS          DCS        Sherman      error
 #  (deg)                 (cm**2/sr)   (a0**2/sr)    function
 #----------------------------------------------------------------------
0.00000E+00 2.62706E-09
7.61557E-13 2.52648E-09
1.18994E-12 2.47259E-09
1.71346E-12 2.40918E-09
2.33225E-12 2.33737E-09
3.04617E-12 2.25898E-09
3.85530E-12 2.17497E-09
4.75964E-12 2.08694E-09
5.75917E-12 1.99650E-09
6.85391E-12 1.90419E-09
8.04379E-12 1.81180E-09
9.32893E-12 1.72023E-09
1.07092E-11 1.62988E-09
1.21847E-11 1.54203E-09
1.37554E-11 1.45696E-09
1.54213E-11 1.37502E-09
1.71823E-11 1.29683E-09
1.90386E-11 1.22228E-09
2.09900E-11 1.15162E-09
2.30367E-11 1.08501E-09
2.51785E-11 1.02212E-09
2.74156E-11 9.63122E-10
2.97478E-11 9.07885E-10
3.21752E-11 8.56070E-10
3.46979E-11 8.07723E-10
3.73157E-11 7.62590E-10
4.00286E-11 7.20420E-10
4.28368E-11 6.81149E-10
4.57402E-11 6.44497E-10
4.87388E-11 6.10298E-10
5.18325E-11 5.78451E-10
5.50215E-11 5.48669E-10
5.83057E-11 5.20880E-10
6.16850E-11 4.94966E-10
6.51595E-11 4.70647E-10
6.87293E-11 4.47937E-10
7.23943E-11 4.26682E-10
7.61544E-11 4.06699E-10
1.18991E-10 2.61531E-10
1.71347E-10 1.76758E-10
2.33223E-10 1.21483E-10
3.04617E-10 8.72866E-11
3.85531E-10 6.28575E-11
4.75965E-10 4.60988E-11
5.75917E-10 3.44598E-11
6.85389E-10 2.58606E-11
8.04380E-10 1.97794E-11
9.32891E-10 1.53442E-11
1.07092E-09 1.20405E-11
1.21847E-09 9.59234E-12
1.37554E-09 7.73710E-12
1.54213E-09 6.31560E-12
1.71823E-09 5.21584E-12
1.90386E-09 4.35131E-12
2.09900E-09 3.66470E-12
2.30367E-09 3.11395E-12
2.51785E-09 2.66547E-12
2.74156E-09 2.29792E-12
2.97478E-09 1.99410E-12
3.21752E-09 1.73919E-12
3.46978E-09 1.52516E-12
3.73156E-09 1.34369E-12
4.00286E-09 1.18828E-12
4.28368E-09 1.05526E-12
4.57402E-09 9.40184E-13
4.87388E-09 8.40195E-13
5.18326E-09 7.53322E-13
5.50215E-09 6.76983E-13
5.83057E-09 6.10045E-13
6.16850E-09 5.51220E-13
6.51596E-09 4.98927E-13
6.87293E-09 4.52715E-13
7.23942E-09 4.11653E-13
7.61544E-09 3.74941E-13
1.18991E-08 1.61836E-13
1.71347E-08 8.00252E-14
2.33223E-08 4.38657E-14
3.04617E-08 2.60312E-14
3.85531E-08 1.64282E-14
4.75965E-08 1.08853E-14
5.75917E-08 7.49964E-15
6.85389E-08 5.33654E-15
8.04380E-08 3.90061E-15
9.32891E-08 2.91689E-15
1.07092E-07 2.22464E-15
1.21847E-07 1.72580E-15
1.37554E-07 1.35918E-15
1.54213E-07 1.08478E-15
1.71823E-07 8.76158E-16
1.90386E-07 7.15293E-16
2.09900E-07 5.89632E-16
2.30367E-07 4.90358E-16
2.51785E-07 4.11086E-16
2.74156E-07 3.47180E-16
2.97478E-07 2.95207E-16
3.21752E-07 2.52589E-16
3.46978E-07 2.17383E-16
3.73156E-07 1.88094E-16
4.00286E-07 1.63569E-16
4.28368E-07 1.42911E-16
4.57402E-07 1.25409E-16
4.87388E-07 1.10504E-16
5.18325E-07 9.77466E-17
5.50215E-07 8.67767E-17
5.83057E-07 7.73023E-17
6.16850E-07 6.90852E-17
6.51596E-07 6.19309E-17
6.87293E-07 5.56784E-17
7.23942E-07 5.01950E-17
7.61543E-07 4.53700E-17
1.18991E-06 1.86084E-17
1.71347E-06 8.97996E-18
2.33223E-06 4.84912E-18
3.04617E-06 2.84327E-18
3.85531E-06 1.77543E-18
4.75964E-06 1.16507E-18
5.75916E-06 7.95888E-19
6.85388E-06 5.62034E-19
8.04378E-06 4.08107E-19
9.32888E-06 3.03454E-19
1.07092E-05 2.30301E-19
1.21846E-05 1.77924E-19
1.37553E-05 1.39628E-19
1.54212E-05 1.11104E-19
1.71822E-05 8.95071E-20
1.90385E-05 7.29103E-20
2.09899E-05 5.99959E-20
2.30365E-05 4.98176E-20
2.51783E-05 4.17077E-20
2.74153E-05 3.51820E-20
2.97475E-05 2.98837E-20
3.21749E-05 2.55466E-20
3.46974E-05 2.19690E-20
3.73152E-05 1.89970E-20
4.00281E-05 1.65114E-20
4.28362E-05 1.44196E-20
4.57395E-05 1.26489E-20
4.87380E-05 1.11418E-20
5.18317E-05 9.85256E-21
5.50205E-05 8.74447E-21
5.83045E-05 7.78788E-21
6.16838E-05 6.95865E-21
6.51582E-05 6.23700E-21
6.87277E-05 5.60661E-21
7.23925E-05 5.05395E-21
7.61524E-05 4.55707E-21
9.21439E-05 3.11189E-21
1.09658E-04 2.19652E-21
1.28695E-04 1.59413E-21
1.49255E-04 1.18459E-21
1.71338E-04 8.98395E-22
1.94942E-04 6.93517E-22
2.20070E-04 5.43758E-22
2.46720E-04 4.32250E-22
2.74892E-04 3.47847E-22
3.04586E-04 2.83023E-22
3.35803E-04 2.32572E-22
3.68542E-04 1.92839E-22
4.02802E-04 1.61206E-22
4.38585E-04 1.35772E-22
4.75889E-04 1.15137E-22
5.14715E-04 9.82556E-23
5.55063E-04 8.43390E-23
5.96931E-04 7.27845E-23
6.40321E-04 6.31282E-23
6.85233E-04 5.50086E-23
7.31665E-04 4.81419E-23
7.79618E-04 4.23041E-23
8.29092E-04 3.73158E-23
8.80086E-04 3.30336E-23
9.32601E-04 2.93411E-23
9.86636E-04 2.61440E-23
1.04219E-03 2.33649E-23
1.09927E-03 2.09402E-23
1.15786E-03 1.88173E-23
1.21797E-03 1.69524E-23
1.27961E-03 1.53090E-23
1.34276E-03 1.38564E-23
1.40743E-03 1.25688E-23
1.47362E-03 1.14244E-23
1.54133E-03 1.04047E-23
1.61056E-03 9.49366E-24
1.68131E-03 8.67793E-24
1.75357E-03 7.94585E-24
1.82735E-03 7.28743E-24
1.90265E-03 6.69402E-24
1.97947E-03 6.15814E-24
2.05780E-03 5.67330E-24
2.13765E-03 5.23383E-24
2.21902E-03 4.83479E-24
2.30190E-03 4.47184E-24
2.38630E-03 4.14118E-24
2.47222E-03 3.83948E-24
2.55965E-03 3.56377E-24
2.64859E-03 3.31145E-24
2.73905E-03 3.08022E-24
2.83103E-03 2.86802E-24
2.92452E-03 2.67304E-24
3.01952E-03 2.49365E-24
3.11604E-03 2.32840E-24
3.21407E-03 2.17601E-24
3.31362E-03 2.03530E-24
3.41468E-03 1.90525E-24
3.51725E-03 1.78490E-24
3.62133E-03 1.67344E-24
3.72692E-03 1.57009E-24
3.83403E-03 1.47417E-24
3.94265E-03 1.38507E-24
4.05278E-03 1.30223E-24
4.16442E-03 1.22513E-24
4.27757E-03 1.15331E-24
4.39223E-03 1.08637E-24
4.50840E-03 1.02391E-24
4.62608E-03 9.65599E-25
4.74527E-03 9.11109E-25
4.86597E-03 8.60156E-25
4.98817E-03 8.12475E-25
5.11188E-03 7.67825E-25
5.23711E-03 7.25984E-25
5.36383E-03 6.86750E-25
5.49207E-03 6.49937E-25
5.62181E-03 6.15372E-25
5.75306E-03 5.82900E-25
5.88581E-03 5.52376E-25
6.02007E-03 5.23664E-25
6.15583E-03 4.96644E-25
6.29310E-03 4.71201E-25
6.43187E-03 4.47230E-25
6.57214E-03 4.24634E-25
6.71392E-03 4.03323E-25
6.85720E-03 3.83215E-25
7.00198E-03 3.64232E-25
7.14827E-03 3.46302E-25
7.29605E-03 3.29361E-25
7.44534E-03 3.13345E-25
7.59612E-03 2.98197E-25
7.97965E-03 2.63788E-25
8.37255E-03 2.33749E-25
8.77480E-03 2.07461E-25
9.18641E-03 1.84402E-25
9.60736E-03 1.64134E-25
1.00376E-02 1.46282E-25
1.04773E-02 1.30529E-25
1.09262E-02 1.16603E-25
1.13844E-02 1.04270E-25
1.18520E-02 9.33325E-26
1.23288E-02 8.36168E-26
1.28150E-02 7.49745E-26
1.33104E-02 6.72769E-26
1.38150E-02 6.04121E-26
1.43290E-02 5.42828E-26
1.48521E-02 4.88042E-26
1.53845E-02 4.39022E-26
1.59262E-02 3.95118E-26
1.64770E-02 3.55761E-26
1.70371E-02 3.20449E-26
1.76063E-02 2.88743E-26
1.81848E-02 2.60253E-26
1.87724E-02 2.34635E-26
1.93692E-02 2.11585E-26
1.99751E-02 1.90834E-26
2.05901E-02 1.72142E-26
2.12143E-02 1.55297E-26
2.18476E-02 1.40110E-26
2.24900E-02 1.26412E-26
2.31415E-02 1.14053E-26
2.38021E-02 1.02897E-26
2.44717E-02 9.28261E-27
2.51504E-02 8.37315E-27
2.58382E-02 7.55172E-27
2.65349E-02 6.80967E-27
2.72407E-02 6.13925E-27
2.79555E-02 5.53349E-27
2.86793E-02 4.98613E-27
2.94120E-02 4.49152E-27
3.01537E-02 4.04459E-27
3.09043E-02 3.64077E-27
3.16639E-02 3.27592E-27
3.24324E-02 2.94634E-27
3.32098E-02 2.64865E-27
3.39961E-02 2.37982E-27
3.47912E-02 2.13711E-27
3.55952E-02 1.91804E-27
3.64081E-02 1.72036E-27
3.72297E-02 1.54205E-27
3.80602E-02 1.38126E-27
3.88995E-02 1.23634E-27
3.97476E-02 1.10577E-27
4.06044E-02 9.88198E-28
4.14700E-02 8.82376E-28
4.23443E-02 7.87186E-28
4.32273E-02 7.01611E-28
4.41190E-02 6.24731E-28
4.50194E-02 5.55710E-28
4.59284E-02 4.93789E-28
4.68461E-02 4.38283E-28
4.87074E-02 3.44080E-28
5.06030E-02 2.68784E-28
5.25328E-02 2.08849E-28
5.44967E-02 1.61362E-28
5.64946E-02 1.23934E-28
5.85262E-02 9.46074E-29
6.05914E-02 7.17823E-29
6.26901E-02 5.41510E-29
6.48222E-02 4.06491E-29
6.69873E-02 3.04116E-29
6.91854E-02 2.27381E-29
7.14163E-02 1.70635E-29
7.36799E-02 1.29335E-29
7.59760E-02 9.98510E-30
7.83043E-02 7.92925E-30
8.06647E-02 6.53768E-30
8.30571E-02 5.63133E-30
8.54812E-02 5.07097E-30
8.79369E-02 4.74949E-30
9.04240E-02 4.58552E-30
9.29422E-02 4.51823E-30
9.54915E-02 4.50304E-30
9.80716E-02 4.50813E-30
1.00682E-01 4.51161E-30
1.03323E-01 4.49921E-30
1.05995E-01 4.46246E-30
1.08696E-01 4.39720E-30
1.11427E-01 4.30236E-30
1.14188E-01 4.17910E-30
1.16978E-01 4.03004E-30
1.19797E-01 3.85873E-30
1.22645E-01 3.66917E-30
1.25522E-01 3.46559E-30
1.28428E-01 3.25211E-30
1.31361E-01 3.03268E-30
1.34323E-01 2.81087E-30
1.37313E-01 2.58992E-30
1.40330E-01 2.37259E-30
1.43375E-01 2.16125E-30
1.46447E-01 1.95782E-30
1.49545E-01 1.76382E-30
1.52671E-01 1.58040E-30
1.55823E-01 1.40837E-30
1.59001E-01 1.24823E-30
1.62205E-01 1.10023E-30
1.65435E-01 9.64390E-31
1.68690E-01 8.40532E-31
1.71970E-01 7.28332E-31
1.75276E-01 6.27340E-31
1.78606E-01 5.37012E-31
1.81961E-01 4.56733E-31
1.85340E-01 3.85842E-31
1.88743E-01 3.23649E-31
1.92169E-01 2.69452E-31
1.95619E-01 2.22552E-31
1.99092E-01 1.82262E-31
2.02589E-01 1.47918E-31
2.06107E-01 1.18885E-31
2.09649E-01 9.45619E-32
2.13212E-01 7.43852E-32
2.16797E-01 5.78321E-32
2.20404E-01 4.44212E-32
2.24032E-01 3.37129E-32
2.27680E-01 2.53087E-32
2.31350E-01 1.88503E-32
2.35040E-01 1.40179E-32
2.38751E-01 1.05284E-32
2.42481E-01 8.13287E-33
2.46231E-01 6.61454E-33
2.50000E-01 5.78599E-33
2.53788E-01 5.48681E-33
2.57595E-01 5.58101E-33
2.61421E-01 5.95460E-33
2.65264E-01 6.51318E-33
2.69126E-01 7.17974E-33
2.73005E-01 7.89251E-33
2.76901E-01 8.60299E-33
2.80814E-01 9.27410E-33
2.84744E-01 9.87857E-33
2.88691E-01 1.03973E-32
2.92653E-01 1.08182E-32
2.96632E-01 1.11348E-32
3.00625E-01 1.13451E-32
3.04634E-01 1.14508E-32
3.08658E-01 1.14566E-32
3.12697E-01 1.13689E-32
3.16749E-01 1.11960E-32
3.20816E-01 1.09470E-32
3.24896E-01 1.06314E-32
3.28990E-01 1.02592E-32
3.33097E-01 9.84017E-33
3.37216E-01 9.38371E-33
3.41348E-01 8.89885E-33
3.45492E-01 8.39400E-33
3.49647E-01 7.87689E-33
3.53814E-01 7.35450E-33
3.57992E-01 6.83304E-33
3.62181E-01 6.31797E-33
3.66381E-01 5.81395E-33
3.70590E-01 5.32495E-33
3.74810E-01 4.85422E-33
3.79039E-01 4.40435E-33
3.83277E-01 3.97734E-33
3.87524E-01 3.57464E-33
3.91780E-01 3.19721E-33
3.96044E-01 2.84556E-33
4.00316E-01 2.51982E-33
4.04596E-01 2.21978E-33
4.08882E-01 1.94497E-33
4.13176E-01 1.69467E-33
4.17476E-01 1.46795E-33
4.21783E-01 1.26378E-33
4.26095E-01 1.08095E-33
4.30413E-01 9.18227E-34
4.34737E-01 7.74282E-34
4.39065E-01 6.47778E-34
4.43398E-01 5.37364E-34
4.47736E-01 4.41702E-34
4.52077E-01 3.59483E-34
4.56422E-01 2.89436E-34
4.60770E-01 2.30341E-34
4.65122E-01 1.81037E-34
4.69476E-01 1.40425E-34
4.73832E-01 1.07478E-34
4.78190E-01 8.12383E-35
4.82550E-01 6.08192E-35
4.86912E-01 4.54079E-35
4.91274E-01 3.42625E-35
4.95637E-01 2.67104E-35
5.00000E-01 2.21463E-35
5.04363E-01 2.00288E-35
5.08726E-01 1.98775E-35
5.13088E-01 2.12692E-35
5.17450E-01 2.38339E-35
5.21810E-01 2.72513E-35
5.26168E-01 3.12462E-35
5.30524E-01 3.55854E-35
5.34878E-01 4.00734E-35
5.39230E-01 4.45487E-35
5.43578E-01 4.88802E-35
5.47923E-01 5.29639E-35
5.52264E-01 5.67199E-35
5.56602E-01 6.00890E-35
5.60935E-01 6.30301E-35
5.65263E-01 6.55177E-35
5.69587E-01 6.75397E-35
5.73905E-01 6.90947E-35
5.78217E-01 7.01907E-35
5.82524E-01 7.08430E-35
5.86824E-01 7.10727E-35
5.91118E-01 7.09056E-35
5.95404E-01 7.03708E-35
5.99684E-01 6.94994E-35
6.03956E-01 6.83241E-35
6.08220E-01 6.68783E-35
6.12476E-01 6.51951E-35
6.16723E-01 6.33073E-35
6.20961E-01 6.12467E-35
6.25190E-01 5.90435E-35
6.29410E-01 5.67268E-35
6.33619E-01 5.43235E-35
6.37819E-01 5.18588E-35
6.42008E-01 4.93558E-35
6.46186E-01 4.68355E-35
6.50353E-01 4.43169E-35
6.54508E-01 4.18171E-35
6.58652E-01 3.93511E-35
6.62784E-01 3.69318E-35
6.66903E-01 3.45708E-35
6.71010E-01 3.22773E-35
6.75104E-01 3.00595E-35
6.79184E-01 2.79236E-35
6.83251E-01 2.58748E-35
6.87303E-01 2.39168E-35
6.91342E-01 2.20523E-35
6.95366E-01 2.02828E-35
6.99375E-01 1.86090E-35
7.03368E-01 1.70307E-35
7.07347E-01 1.55471E-35
7.11309E-01 1.41566E-35
7.15256E-01 1.28571E-35
7.19186E-01 1.16464E-35
7.23099E-01 1.05214E-35
7.26995E-01 9.47913E-36
7.30874E-01 8.51609E-36
7.34736E-01 7.62878E-36
7.38579E-01 6.81356E-36
7.42405E-01 6.06664E-36
7.46212E-01 5.38423E-36
7.50000E-01 4.76260E-36
7.53769E-01 4.19796E-36
7.57519E-01 3.68668E-36
7.61249E-01 3.22507E-36
7.64960E-01 2.80972E-36
7.68650E-01 2.43719E-36
7.72320E-01 2.10424E-36
7.75968E-01 1.80777E-36
7.79596E-01 1.54478E-36
7.83203E-01 1.31246E-36
7.86788E-01 1.10813E-36
7.90351E-01 9.29289E-37
7.93893E-01 7.73567E-37
7.97411E-01 6.38735E-37
8.00908E-01 5.22759E-37
8.04381E-01 4.23690E-37
8.07831E-01 3.39751E-37
8.11257E-01 2.69307E-37
8.14660E-01 2.10830E-37
8.18039E-01 1.62934E-37
8.21394E-01 1.24337E-37
8.24724E-01 9.38851E-38
8.28030E-01 7.05013E-38
8.31310E-01 5.32381E-38
8.34565E-01 4.12215E-38
8.37795E-01 3.36720E-38
8.40999E-01 2.98895E-38
8.44177E-01 2.92461E-38
8.47329E-01 3.11817E-38
8.50455E-01 3.51997E-38
8.53553E-01 4.08674E-38
8.56625E-01 4.77999E-38
8.59670E-01 5.56614E-38
8.62687E-01 6.41627E-38
8.65677E-01 7.30538E-38
8.68639E-01 8.21202E-38
8.71572E-01 9.11800E-38
8.74478E-01 1.00081E-37
8.77355E-01 1.08696E-37
8.80203E-01 1.16923E-37
8.83022E-01 1.24681E-37
8.85812E-01 1.31903E-37
8.88573E-01 1.38541E-37
8.91304E-01 1.44563E-37
8.94005E-01 1.49947E-37
8.96677E-01 1.54677E-37
8.99318E-01 1.58756E-37
9.01928E-01 1.62188E-37
9.04508E-01 1.64980E-37
9.07058E-01 1.67153E-37
9.09576E-01 1.68729E-37
9.12063E-01 1.69728E-37
9.14519E-01 1.70180E-37
9.16943E-01 1.70116E-37
9.19335E-01 1.69567E-37
9.21696E-01 1.68562E-37
9.24024E-01 1.67137E-37
9.26320E-01 1.65322E-37
9.28584E-01 1.63154E-37
9.30815E-01 1.60662E-37
9.33013E-01 1.57879E-37
9.35178E-01 1.54826E-37
9.37310E-01 1.51542E-37
9.39409E-01 1.48057E-37
9.41474E-01 1.44397E-37
9.43505E-01 1.40576E-37
9.45503E-01 1.36630E-37
9.47467E-01 1.32574E-37
9.49397E-01 1.28438E-37
9.51293E-01 1.24234E-37
9.53154E-01 1.19978E-37
9.54981E-01 1.15694E-37
9.56773E-01 1.11400E-37
9.58530E-01 1.07102E-37
9.60252E-01 1.02816E-37
9.61940E-01 9.85571E-38
9.63592E-01 9.43329E-38
9.65209E-01 9.01528E-38
9.66790E-01 8.60329E-38
9.68336E-01 8.19695E-38
9.69846E-01 7.79792E-38
9.71321E-01 7.40628E-38
9.72759E-01 7.02297E-38
9.74162E-01 6.64827E-38
9.75528E-01 6.28320E-38
9.76858E-01 5.92724E-38
9.78152E-01 5.58164E-38
9.79410E-01 5.24599E-38
9.80631E-01 4.92049E-38
9.81815E-01 4.60581E-38
9.82963E-01 4.30177E-38
9.84074E-01 4.00844E-38
9.85148E-01 3.72636E-38
9.86185E-01 3.45510E-38
9.87185E-01 3.19468E-38
9.88148E-01 2.94506E-38
9.89074E-01 2.70651E-38
9.89962E-01 2.47858E-38
9.90814E-01 2.26155E-38
9.91627E-01 2.05497E-38
9.92404E-01 1.85901E-38
9.93143E-01 1.67354E-38
9.93844E-01 1.49861E-38
9.94508E-01 1.33380E-38
9.95134E-01 1.17893E-38
9.95722E-01 1.03417E-38
9.96273E-01 8.98823E-39
9.96786E-01 7.74011E-39
9.97261E-01 6.58346E-39
9.97698E-01 5.52651E-39
9.98097E-01 4.55875E-39
9.98459E-01 3.68965E-39
9.98782E-01 2.91148E-39
9.99067E-01 2.22998E-39
9.99315E-01 1.63704E-39
9.99524E-01 1.13741E-39
9.99695E-01 7.28264E-40
9.99829E-01 4.11731E-40
9.99924E-01 1.84599E-40
9.99981E-01 4.85012E-41
1.00000E+00 6.38583E-42
