 #
 # Subroutine ELSEPA. Elastic scattering of electrons and positrons
 #                    by neutral atoms and positive ions
 #
 # Projectile: electron
 # Kinetic energy = 2.00000E+07 eV = 7.34987E+05 a.u.
 #
 # WARNING: High-energy factorization with free-atom DF screening.
 #          Absorption, polarization and exchange corrections are
 #          switched off.
 #          Phase shifts are calculated for the bare nucleus.
 #          Scattering amplitudes are not evaluated.
 #
 # Element: Mn,  Z =  25,  atomic weight = 5.49380E+01 g/mol
 #
 # Nuclear model: Fermi distribution
 #                Average radius = 4.06763E-13 cm
 #                Skin thickness = 5.46000E-14 cm
 #
 # Number of electrons = 25
 #
 # Total elastic cross section = 1.95253E-18 cm**2 = 6.97261E-02 a0**2
 # 1st transport cross section = 2.79944E-24 cm**2 = 9.99699E-08 a0**2
 # 2nd transport cross section = 8.06665E-24 cm**2 = 2.88065E-07 a0**2
 #
 #
 # Differential cross section:                       MU=(1-COS(THETA))/2
 #
 #  THETA        MU          DCS          DCS        Sherman      error
 #  (deg)                 (cm**2/sr)   (a0**2/sr)    function
 #----------------------------------------------------------------------
0.00000E+00 8.99582E-12
7.61557E-13 8.99460E-12
1.18994E-12 8.99391E-12
1.71346E-12 8.99307E-12
2.33225E-12 8.99208E-12
3.04617E-12 8.99094E-12
3.85530E-12 8.98965E-12
4.75964E-12 8.98821E-12
5.75917E-12 8.98661E-12
6.85391E-12 8.98487E-12
8.04379E-12 8.98297E-12
9.32893E-12 8.98092E-12
1.07092E-11 8.97872E-12
1.21847E-11 8.97637E-12
1.37554E-11 8.97387E-12
1.54213E-11 8.97123E-12
1.71823E-11 8.96843E-12
1.90386E-11 8.96548E-12
2.09900E-11 8.96238E-12
2.30367E-11 8.95913E-12
2.51785E-11 8.95574E-12
2.74156E-11 8.95219E-12
2.97478E-11 8.94850E-12
3.21752E-11 8.94466E-12
3.46979E-11 8.94067E-12
3.73157E-11 8.93653E-12
4.00286E-11 8.93225E-12
4.28368E-11 8.92781E-12
4.57402E-11 8.92324E-12
4.87388E-11 8.91852E-12
5.18325E-11 8.91365E-12
5.50215E-11 8.90863E-12
5.83057E-11 8.90347E-12
6.16850E-11 8.89817E-12
6.51595E-11 8.89272E-12
6.87293E-11 8.88713E-12
7.23943E-11 8.88140E-12
7.61544E-11 8.87552E-12
1.18991E-10 8.80900E-12
1.71347E-10 8.72877E-12
2.33223E-10 8.63546E-12
3.04617E-10 8.52975E-12
3.85531E-10 8.41242E-12
4.75965E-10 8.28432E-12
5.75917E-10 8.14611E-12
6.85389E-10 7.99879E-12
8.04380E-10 7.84415E-12
9.32891E-10 7.68197E-12
1.07092E-09 7.51375E-12
1.21847E-09 7.34131E-12
1.37554E-09 7.16333E-12
1.54213E-09 6.98293E-12
1.71823E-09 6.80043E-12
1.90386E-09 6.61548E-12
2.09900E-09 6.43078E-12
2.30367E-09 6.24551E-12
2.51785E-09 6.06082E-12
2.74156E-09 5.87838E-12
2.97478E-09 5.69644E-12
3.21752E-09 5.51757E-12
3.46978E-09 5.34181E-12
3.73156E-09 5.16837E-12
4.00286E-09 4.99925E-12
4.28368E-09 4.83356E-12
4.57402E-09 4.67177E-12
4.87388E-09 4.51488E-12
5.18326E-09 4.36149E-12
5.50215E-09 4.21299E-12
5.83057E-09 4.06929E-12
6.16850E-09 3.92959E-12
6.51596E-09 3.79498E-12
6.87293E-09 3.66476E-12
7.23942E-09 3.53898E-12
7.61544E-09 3.41809E-12
1.18991E-08 2.43260E-12
1.71347E-08 1.77462E-12
2.33223E-08 1.33185E-12
3.04617E-08 1.02479E-12
3.85531E-08 8.04125E-13
4.75965E-08 6.40483E-13
5.75917E-08 5.12960E-13
6.85389E-08 4.13151E-13
8.04380E-08 3.40471E-13
9.32891E-08 2.79764E-13
1.07092E-07 2.30792E-13
1.21847E-07 1.93535E-13
1.37554E-07 1.60594E-13
1.54213E-07 1.34821E-13
1.71823E-07 1.14021E-13
1.90386E-07 9.62477E-14
2.09900E-07 8.20435E-14
2.30367E-07 7.01375E-14
2.51785E-07 6.01943E-14
2.74156E-07 5.20504E-14
2.97478E-07 4.50836E-14
3.21752E-07 3.92798E-14
3.46978E-07 3.44025E-14
3.73156E-07 3.02276E-14
4.00286E-07 2.66967E-14
4.28368E-07 2.36711E-14
4.57402E-07 2.10688E-14
4.87388E-07 1.88328E-14
5.18325E-07 1.68870E-14
5.50215E-07 1.51982E-14
5.83057E-07 1.37251E-14
6.16850E-07 1.24290E-14
6.51596E-07 1.12917E-14
6.87293E-07 1.02853E-14
7.23942E-07 9.39211E-15
7.61543E-07 8.60036E-15
1.18991E-06 3.95092E-15
1.71347E-06 2.06896E-15
2.33223E-06 1.17814E-15
3.04617E-06 7.13749E-16
3.85531E-06 4.54913E-16
4.75964E-06 3.02691E-16
5.75916E-06 2.08846E-16
6.85388E-06 1.48735E-16
8.04378E-06 1.08804E-16
9.32888E-06 8.14520E-17
1.07092E-05 6.22110E-17
1.21846E-05 4.83487E-17
1.37553E-05 3.81551E-17
1.54212E-05 3.05204E-17
1.71822E-05 2.47085E-17
1.90385E-05 2.02189E-17
2.09899E-05 1.67078E-17
2.30365E-05 1.39274E-17
2.51783E-05 1.17019E-17
2.74153E-05 9.90334E-18
2.97475E-05 8.43721E-18
3.21749E-05 7.23248E-18
3.46974E-05 6.23523E-18
3.73152E-05 5.40405E-18
4.00281E-05 4.70678E-18
4.28362E-05 4.11833E-18
4.57395E-05 3.61885E-18
4.87380E-05 3.19269E-18
5.18317E-05 2.82732E-18
5.50205E-05 2.51264E-18
5.83045E-05 2.24047E-18
6.16838E-05 2.00412E-18
6.51582E-05 1.79811E-18
6.87277E-05 1.61787E-18
7.23925E-05 1.45964E-18
7.61524E-05 1.32026E-18
9.21439E-05 9.04501E-19
1.09658E-04 6.40124E-19
1.28695E-04 4.65615E-19
1.49255E-04 3.46689E-19
1.71338E-04 2.63416E-19
1.94942E-04 2.03704E-19
2.20070E-04 1.59992E-19
2.46720E-04 1.27403E-19
2.74892E-04 1.02705E-19
3.04586E-04 8.37147E-20
3.35803E-04 6.89187E-20
3.68542E-04 5.72536E-20
4.02802E-04 4.79566E-20
4.38585E-04 4.04734E-20
4.75889E-04 3.43955E-20
5.14715E-04 2.94177E-20
5.55063E-04 2.53094E-20
5.96931E-04 2.18945E-20
6.40321E-04 1.90371E-20
6.85233E-04 1.66314E-20
7.31665E-04 1.45944E-20
7.79618E-04 1.28603E-20
8.29092E-04 1.13765E-20
8.80086E-04 1.01009E-20
9.32601E-04 8.99945E-21
9.86636E-04 8.04428E-21
1.04219E-03 7.21271E-21
1.09927E-03 6.48600E-21
1.15786E-03 5.84869E-21
1.21797E-03 5.28787E-21
1.27961E-03 4.79279E-21
1.34276E-03 4.35441E-21
1.40743E-03 3.96510E-21
1.47362E-03 3.61841E-21
1.54133E-03 3.30885E-21
1.61056E-03 3.03176E-21
1.68131E-03 2.78313E-21
1.75357E-03 2.55951E-21
1.82735E-03 2.35795E-21
1.90265E-03 2.17588E-21
1.97947E-03 2.01108E-21
2.05780E-03 1.86162E-21
2.13765E-03 1.72582E-21
2.21902E-03 1.60220E-21
2.30190E-03 1.48948E-21
2.38630E-03 1.38652E-21
2.47222E-03 1.29232E-21
2.55965E-03 1.20601E-21
2.64859E-03 1.12679E-21
2.73905E-03 1.05399E-21
2.83103E-03 9.86989E-22
2.92452E-03 9.25239E-22
3.01952E-03 8.68254E-22
3.11604E-03 8.15599E-22
3.21407E-03 7.66886E-22
3.31362E-03 7.21764E-22
3.41468E-03 6.79920E-22
3.51725E-03 6.41072E-22
3.62133E-03 6.04966E-22
3.72692E-03 5.71373E-22
3.83403E-03 5.40086E-22
3.94265E-03 5.10916E-22
4.05278E-03 4.83694E-22
4.16442E-03 4.58266E-22
4.27757E-03 4.34491E-22
4.39223E-03 4.12243E-22
4.50840E-03 3.91404E-22
4.62608E-03 3.71869E-22
4.74527E-03 3.53541E-22
4.86597E-03 3.36331E-22
4.98817E-03 3.20158E-22
5.11188E-03 3.04949E-22
5.23711E-03 2.90635E-22
5.36383E-03 2.77153E-22
5.49207E-03 2.64446E-22
5.62181E-03 2.52461E-22
5.75306E-03 2.41149E-22
5.88581E-03 2.30466E-22
6.02007E-03 2.20369E-22
6.15583E-03 2.10821E-22
6.29310E-03 2.01786E-22
6.43187E-03 1.93231E-22
6.57214E-03 1.85126E-22
6.71392E-03 1.77443E-22
6.85720E-03 1.70156E-22
7.00198E-03 1.63240E-22
7.14827E-03 1.56673E-22
7.29605E-03 1.50433E-22
7.44534E-03 1.44503E-22
7.59612E-03 1.38862E-22
7.97965E-03 1.25923E-22
8.37255E-03 1.14460E-22
8.77480E-03 1.04276E-22
9.18641E-03 9.52034E-23
9.60736E-03 8.70991E-23
1.00376E-02 7.98416E-23
1.04773E-02 7.33267E-23
1.09262E-02 6.74648E-23
1.13844E-02 6.21789E-23
1.18520E-02 5.74022E-23
1.23288E-02 5.30769E-23
1.28150E-02 4.91525E-23
1.33104E-02 4.55854E-23
1.38150E-02 4.23369E-23
1.43290E-02 3.93736E-23
1.48521E-02 3.66658E-23
1.53845E-02 3.41875E-23
1.59262E-02 3.19157E-23
1.64770E-02 2.98301E-23
1.70371E-02 2.79125E-23
1.76063E-02 2.61470E-23
1.81848E-02 2.45193E-23
1.87724E-02 2.30167E-23
1.93692E-02 2.16277E-23
1.99751E-02 2.03422E-23
2.05901E-02 1.91511E-23
2.12143E-02 1.80461E-23
2.18476E-02 1.70198E-23
2.24900E-02 1.60657E-23
2.31415E-02 1.51776E-23
2.38021E-02 1.43503E-23
2.44717E-02 1.35786E-23
2.51504E-02 1.28583E-23
2.58382E-02 1.21852E-23
2.65349E-02 1.15557E-23
2.72407E-02 1.09663E-23
2.79555E-02 1.04142E-23
2.86793E-02 9.89642E-24
2.94120E-02 9.41049E-24
3.01537E-02 8.95407E-24
3.09043E-02 8.52504E-24
3.16639E-02 8.12143E-24
3.24324E-02 7.74147E-24
3.32098E-02 7.38349E-24
3.39961E-02 7.04600E-24
3.47912E-02 6.72760E-24
3.55952E-02 6.42699E-24
3.64081E-02 6.14301E-24
3.72297E-02 5.87455E-24
3.80602E-02 5.62061E-24
3.88995E-02 5.38025E-24
3.97476E-02 5.15261E-24
4.06044E-02 4.93689E-24
4.14700E-02 4.73234E-24
4.23443E-02 4.53828E-24
4.32273E-02 4.35406E-24
4.41190E-02 4.17910E-24
4.50194E-02 4.01283E-24
4.59284E-02 3.85475E-24
4.68461E-02 3.70437E-24
4.87074E-02 3.42497E-24
5.06030E-02 3.17140E-24
5.25328E-02 2.94083E-24
5.44967E-02 2.73082E-24
5.64946E-02 2.53918E-24
5.85262E-02 2.36403E-24
6.05914E-02 2.20369E-24
6.26901E-02 2.05668E-24
6.48222E-02 1.92168E-24
6.69873E-02 1.79755E-24
6.91854E-02 1.68324E-24
7.14163E-02 1.57783E-24
7.36799E-02 1.48051E-24
7.59760E-02 1.39054E-24
7.83043E-02 1.30727E-24
8.06647E-02 1.23010E-24
8.30571E-02 1.15851E-24
8.54812E-02 1.09201E-24
8.79369E-02 1.03019E-24
9.04240E-02 9.72643E-25
9.29422E-02 9.19029E-25
9.54915E-02 8.69028E-25
9.80716E-02 8.22350E-25
1.00682E-01 7.78736E-25
1.03323E-01 7.37946E-25
1.05995E-01 6.99765E-25
1.08696E-01 6.63994E-25
1.11427E-01 6.30454E-25
1.14188E-01 5.98979E-25
1.16978E-01 5.69420E-25
1.19797E-01 5.41638E-25
1.22645E-01 5.15507E-25
1.25522E-01 4.90910E-25
1.28428E-01 4.67742E-25
1.31361E-01 4.45903E-25
1.34323E-01 4.25304E-25
1.37313E-01 4.05860E-25
1.40330E-01 3.87497E-25
1.43375E-01 3.70141E-25
1.46447E-01 3.53729E-25
1.49545E-01 3.38199E-25
1.52671E-01 3.23495E-25
1.55823E-01 3.09566E-25
1.59001E-01 2.96362E-25
1.62205E-01 2.83840E-25
1.65435E-01 2.71957E-25
1.68690E-01 2.60676E-25
1.71970E-01 2.49959E-25
1.75276E-01 2.39774E-25
1.78606E-01 2.30090E-25
1.81961E-01 2.20877E-25
1.85340E-01 2.12108E-25
1.88743E-01 2.03758E-25
1.92169E-01 1.95804E-25
1.95619E-01 1.88222E-25
1.99092E-01 1.80994E-25
2.02589E-01 1.74098E-25
2.06107E-01 1.67517E-25
2.09649E-01 1.61235E-25
2.13212E-01 1.55235E-25
2.16797E-01 1.49501E-25
2.20404E-01 1.44021E-25
2.24032E-01 1.38781E-25
2.27680E-01 1.33769E-25
2.31350E-01 1.28972E-25
2.35040E-01 1.24381E-25
2.38751E-01 1.19984E-25
2.42481E-01 1.15772E-25
2.46231E-01 1.11736E-25
2.50000E-01 1.07867E-25
2.53788E-01 1.04157E-25
2.57595E-01 1.00598E-25
2.61421E-01 9.71829E-26
2.65264E-01 9.39053E-26
2.69126E-01 9.07584E-26
2.73005E-01 8.77361E-26
2.76901E-01 8.48325E-26
2.80814E-01 8.20422E-26
2.84744E-01 7.93600E-26
2.88691E-01 7.67810E-26
2.92653E-01 7.43005E-26
2.96632E-01 7.19141E-26
3.00625E-01 6.96176E-26
3.04634E-01 6.74070E-26
3.08658E-01 6.52786E-26
3.12697E-01 6.32288E-26
3.16749E-01 6.12542E-26
3.20816E-01 5.93516E-26
3.24896E-01 5.75178E-26
3.28990E-01 5.57500E-26
3.33097E-01 5.40454E-26
3.37216E-01 5.24013E-26
3.41348E-01 5.08153E-26
3.45492E-01 4.92848E-26
3.49647E-01 4.78078E-26
3.53814E-01 4.63819E-26
3.57992E-01 4.50051E-26
3.62181E-01 4.36755E-26
3.66381E-01 4.23911E-26
3.70590E-01 4.11501E-26
3.74810E-01 3.99509E-26
3.79039E-01 3.87918E-26
3.83277E-01 3.76713E-26
3.87524E-01 3.65878E-26
3.91780E-01 3.55399E-26
3.96044E-01 3.45262E-26
4.00316E-01 3.35455E-26
4.04596E-01 3.25966E-26
4.08882E-01 3.16781E-26
4.13176E-01 3.07890E-26
4.17476E-01 2.99282E-26
4.21783E-01 2.90946E-26
4.26095E-01 2.82873E-26
4.30413E-01 2.75052E-26
4.34737E-01 2.67475E-26
4.39065E-01 2.60133E-26
4.43398E-01 2.53017E-26
4.47736E-01 2.46120E-26
4.52077E-01 2.39433E-26
4.56422E-01 2.32949E-26
4.60770E-01 2.26661E-26
4.65122E-01 2.20562E-26
4.69476E-01 2.14646E-26
4.73832E-01 2.08906E-26
4.78190E-01 2.03336E-26
4.82550E-01 1.97931E-26
4.86912E-01 1.92684E-26
4.91274E-01 1.87591E-26
4.95637E-01 1.82646E-26
5.00000E-01 1.77844E-26
5.04363E-01 1.73180E-26
5.08726E-01 1.68651E-26
5.13088E-01 1.64251E-26
5.17450E-01 1.59976E-26
5.21810E-01 1.55822E-26
5.26168E-01 1.51785E-26
5.30524E-01 1.47862E-26
5.34878E-01 1.44048E-26
5.39230E-01 1.40341E-26
5.43578E-01 1.36736E-26
5.47923E-01 1.33231E-26
5.52264E-01 1.29823E-26
5.56602E-01 1.26508E-26
5.60935E-01 1.23283E-26
5.65263E-01 1.20146E-26
5.69587E-01 1.17094E-26
5.73905E-01 1.14124E-26
5.78217E-01 1.11233E-26
5.82524E-01 1.08421E-26
5.86824E-01 1.05683E-26
5.91118E-01 1.03017E-26
5.95404E-01 1.00423E-26
5.99684E-01 9.78964E-27
6.03956E-01 9.54364E-27
6.08220E-01 9.30408E-27
6.12476E-01 9.07076E-27
6.16723E-01 8.84350E-27
6.20961E-01 8.62212E-27
6.25190E-01 8.40645E-27
6.29410E-01 8.19633E-27
6.33619E-01 7.99159E-27
6.37819E-01 7.79207E-27
6.42008E-01 7.59763E-27
6.46186E-01 7.40813E-27
6.50353E-01 7.22341E-27
6.54508E-01 7.04334E-27
6.58652E-01 6.86780E-27
6.62784E-01 6.69665E-27
6.66903E-01 6.52978E-27
6.71010E-01 6.36706E-27
6.75104E-01 6.20837E-27
6.79184E-01 6.05360E-27
6.83251E-01 5.90266E-27
6.87303E-01 5.75542E-27
6.91342E-01 5.61179E-27
6.95366E-01 5.47168E-27
6.99375E-01 5.33498E-27
7.03368E-01 5.20160E-27
7.07347E-01 5.07145E-27
7.11309E-01 4.94446E-27
7.15256E-01 4.82052E-27
7.19186E-01 4.69957E-27
7.23099E-01 4.58151E-27
7.26995E-01 4.46628E-27
7.30874E-01 4.35380E-27
7.34736E-01 4.24400E-27
7.38579E-01 4.13681E-27
7.42405E-01 4.03216E-27
7.46212E-01 3.92999E-27
7.50000E-01 3.83022E-27
7.53769E-01 3.73280E-27
7.57519E-01 3.63767E-27
7.61249E-01 3.54478E-27
7.64960E-01 3.45405E-27
7.68650E-01 3.36545E-27
7.72320E-01 3.27890E-27
7.75968E-01 3.19438E-27
7.79596E-01 3.11181E-27
7.83203E-01 3.03116E-27
7.86788E-01 2.95237E-27
7.90351E-01 2.87541E-27
7.93893E-01 2.80022E-27
7.97411E-01 2.72676E-27
8.00908E-01 2.65500E-27
8.04381E-01 2.58488E-27
8.07831E-01 2.51637E-27
8.11257E-01 2.44943E-27
8.14660E-01 2.38402E-27
8.18039E-01 2.32011E-27
8.21394E-01 2.25765E-27
8.24724E-01 2.19662E-27
8.28030E-01 2.13699E-27
8.31310E-01 2.07871E-27
8.34565E-01 2.02176E-27
8.37795E-01 1.96611E-27
8.40999E-01 1.91172E-27
8.44177E-01 1.85857E-27
8.47329E-01 1.80662E-27
8.50455E-01 1.75586E-27
8.53553E-01 1.70625E-27
8.56625E-01 1.65777E-27
8.59670E-01 1.61039E-27
8.62687E-01 1.56409E-27
8.65677E-01 1.51884E-27
8.68639E-01 1.47462E-27
8.71572E-01 1.43141E-27
8.74478E-01 1.38918E-27
8.77355E-01 1.34792E-27
8.80203E-01 1.30760E-27
8.83022E-01 1.26820E-27
8.85812E-01 1.22970E-27
8.88573E-01 1.19209E-27
8.91304E-01 1.15533E-27
8.94005E-01 1.11943E-27
8.96677E-01 1.08435E-27
8.99318E-01 1.05009E-27
9.01928E-01 1.01661E-27
9.04508E-01 9.83917E-28
9.07058E-01 9.51982E-28
9.09576E-01 9.20794E-28
9.12063E-01 8.90336E-28
9.14519E-01 8.60594E-28
9.16943E-01 8.31554E-28
9.19335E-01 8.03201E-28
9.21696E-01 7.75523E-28
9.24024E-01 7.48506E-28
9.26320E-01 7.22137E-28
9.28584E-01 6.96404E-28
9.30815E-01 6.71295E-28
9.33013E-01 6.46798E-28
9.35178E-01 6.22902E-28
9.37310E-01 5.99595E-28
9.39409E-01 5.76866E-28
9.41474E-01 5.54706E-28
9.43505E-01 5.33103E-28
9.45503E-01 5.12049E-28
9.47467E-01 4.91533E-28
9.49397E-01 4.71545E-28
9.51293E-01 4.52078E-28
9.53154E-01 4.33121E-28
9.54981E-01 4.14667E-28
9.56773E-01 3.96707E-28
9.58530E-01 3.79232E-28
9.60252E-01 3.62236E-28
9.61940E-01 3.45710E-28
9.63592E-01 3.29648E-28
9.65209E-01 3.14041E-28
9.66790E-01 2.98883E-28
9.68336E-01 2.84167E-28
9.69846E-01 2.69887E-28
9.71321E-01 2.56037E-28
9.72759E-01 2.42610E-28
9.74162E-01 2.29600E-28
9.75528E-01 2.17002E-28
9.76858E-01 2.04810E-28
9.78152E-01 1.93019E-28
9.79410E-01 1.81623E-28
9.80631E-01 1.70619E-28
9.81815E-01 1.60000E-28
9.82963E-01 1.49763E-28
9.84074E-01 1.39902E-28
9.85148E-01 1.30414E-28
9.86185E-01 1.21295E-28
9.87185E-01 1.12541E-28
9.88148E-01 1.04147E-28
9.89074E-01 9.61105E-29
9.89962E-01 8.84278E-29
9.90814E-01 8.10957E-29
9.91627E-01 7.41110E-29
9.92404E-01 6.74706E-29
9.93143E-01 6.11719E-29
9.93844E-01 5.52120E-29
9.94508E-01 4.95885E-29
9.95134E-01 4.42989E-29
9.95722E-01 3.93411E-29
9.96273E-01 3.47128E-29
9.96786E-01 3.04122E-29
9.97261E-01 2.64374E-29
9.97698E-01 2.27867E-29
9.98097E-01 1.94587E-29
9.98459E-01 1.64518E-29
9.98782E-01 1.37648E-29
9.99067E-01 1.13966E-29
9.99315E-01 9.34617E-30
9.99524E-01 7.61266E-30
9.99695E-01 6.19532E-30
9.99829E-01 5.09357E-30
9.99924E-01 4.30694E-30
9.99981E-01 3.83508E-30
1.00000E+00 3.67789E-30
