 #
 # Subroutine ELSEPA. Elastic scattering of electrons and positrons
 #                    by neutral atoms and positive ions
 #
 # Projectile: electron
 # Kinetic energy = 1.00000E+08 eV = 3.67493E+06 a.u.
 #
 # WARNING: High-energy factorization with free-atom DF screening.
 #          Absorption, polarization and exchange corrections are
 #          switched off.
 #          Phase shifts are calculated for the bare nucleus.
 #          Scattering amplitudes are not evaluated.
 #
 # Element: Mn,  Z =  25,  atomic weight = 5.49380E+01 g/mol
 #
 # Nuclear model: Fermi distribution
 #                Average radius = 4.06763E-13 cm
 #                Skin thickness = 5.46000E-14 cm
 #
 # Number of electrons = 25
 #
 # Total elastic cross section = 1.95127E-18 cm**2 = 6.96812E-02 a0**2
 # 1st transport cross section = 1.28476E-25 cm**2 = 4.58794E-09 a0**2
 # 2nd transport cross section = 3.81637E-25 cm**2 = 1.36285E-08 a0**2
 #
 #
 # Differential cross section:                       MU=(1-COS(THETA))/2
 #
 #  THETA        MU          DCS          DCS        Sherman      error
 #  (deg)                 (cm**2/sr)   (a0**2/sr)    function
 #----------------------------------------------------------------------
0.00000E+00 2.16020E-10
7.61557E-13 2.15319E-10
1.18994E-12 2.14927E-10
1.71346E-12 2.14450E-10
2.33225E-12 2.13887E-10
3.04617E-12 2.13242E-10
3.85530E-12 2.12514E-10
4.75964E-12 2.11705E-10
5.75917E-12 2.10816E-10
6.85391E-12 2.09850E-10
8.04379E-12 2.08808E-10
9.32893E-12 2.07691E-10
1.07092E-11 2.06503E-10
1.21847E-11 2.05244E-10
1.37554E-11 2.03918E-10
1.54213E-11 2.02527E-10
1.71823E-11 2.01072E-10
1.90386E-11 1.99556E-10
2.09900E-11 1.97983E-10
2.30367E-11 1.96353E-10
2.51785E-11 1.94663E-10
2.74156E-11 1.92927E-10
2.97478E-11 1.91147E-10
3.21752E-11 1.89326E-10
3.46979E-11 1.87468E-10
3.73157E-11 1.85558E-10
4.00286E-11 1.83608E-10
4.28368E-11 1.81630E-10
4.57402E-11 1.79626E-10
4.87388E-11 1.77598E-10
5.18325E-11 1.75543E-10
5.50215E-11 1.73449E-10
5.83057E-11 1.71339E-10
6.16850E-11 1.69217E-10
6.51595E-11 1.67086E-10
6.87293E-11 1.64947E-10
7.23943E-11 1.62779E-10
7.61544E-11 1.60602E-10
1.18991E-10 1.38926E-10
1.71347E-10 1.18409E-10
2.33223E-10 1.00076E-10
3.04617E-10 8.43477E-11
3.85531E-10 7.11900E-11
4.75965E-10 6.03393E-11
5.75917E-10 5.14475E-11
6.85389E-10 4.41637E-11
8.04380E-10 3.81711E-11
9.32891E-10 3.32132E-11
1.07092E-09 2.90792E-11
1.21847E-09 2.56027E-11
1.37554E-09 2.26541E-11
1.54213E-09 2.01318E-11
1.71823E-09 1.79548E-11
1.90386E-09 1.60659E-11
2.09900E-09 1.44167E-11
2.30367E-09 1.29486E-11
2.51785E-09 1.15790E-11
2.74156E-09 1.04165E-11
2.97478E-09 9.42396E-12
3.21752E-09 8.57153E-12
3.46978E-09 7.83543E-12
3.73156E-09 7.10428E-12
4.00286E-09 6.43523E-12
4.28368E-09 5.85414E-12
4.57402E-09 5.34717E-12
4.87388E-09 4.90294E-12
5.18326E-09 4.49775E-12
5.50215E-09 4.09949E-12
5.83057E-09 3.74869E-12
6.16850E-09 3.43859E-12
6.51596E-09 3.16354E-12
6.87293E-09 2.91878E-12
7.23942E-09 2.68239E-12
7.61544E-09 2.46689E-12
1.18991E-08 1.16082E-12
1.71347E-08 6.09892E-13
2.33223E-08 3.53290E-13
3.04617E-08 2.21190E-13
3.85531E-08 1.46762E-13
4.75965E-08 1.01652E-13
5.75917E-08 7.27221E-14
6.85389E-08 5.33426E-14
8.04380E-08 3.99320E-14
9.32891E-08 3.04247E-14
1.07092E-07 2.35393E-14
1.21847E-07 1.84634E-14
1.37554E-07 1.46642E-14
1.54213E-07 1.17813E-14
1.71823E-07 9.56564E-15
1.90386E-07 7.84320E-15
2.09900E-07 6.48928E-15
2.30367E-07 5.41385E-15
2.51785E-07 4.55125E-15
2.74156E-07 3.85569E-15
2.97478E-07 3.28680E-15
3.21752E-07 2.82011E-15
3.46978E-07 2.43320E-15
3.73156E-07 2.11088E-15
4.00286E-07 1.84034E-15
4.28368E-07 1.61201E-15
4.57402E-07 1.41819E-15
4.87388E-07 1.25270E-15
5.18325E-07 1.11085E-15
5.50215E-07 9.88514E-16
5.83057E-07 8.82740E-16
6.16850E-07 7.90672E-16
6.51596E-07 7.10439E-16
6.87293E-07 6.40078E-16
7.23942E-07 5.78295E-16
7.61543E-07 5.23774E-16
1.18991E-06 2.18528E-16
1.71347E-06 1.06650E-16
2.33223E-06 5.80118E-17
3.04617E-06 3.41759E-17
3.85531E-06 2.14076E-17
4.75964E-06 1.40782E-17
5.75916E-06 9.63148E-18
6.85388E-06 6.80874E-18
8.04378E-06 4.94785E-18
9.32888E-06 3.68119E-18
1.07092E-05 2.79501E-18
1.21846E-05 2.16009E-18
1.37553E-05 1.69561E-18
1.54212E-05 1.34951E-18
1.71822E-05 1.08737E-18
1.90385E-05 8.85874E-19
2.09899E-05 7.29046E-19
2.30365E-05 6.05421E-19
2.51783E-05 5.06905E-19
2.74153E-05 4.27623E-19
2.97475E-05 3.63246E-19
3.21749E-05 3.10542E-19
3.46974E-05 2.67066E-19
3.73152E-05 2.30945E-19
4.00281E-05 2.00735E-19
4.28362E-05 1.75309E-19
4.57395E-05 1.53786E-19
4.87380E-05 1.35465E-19
5.18317E-05 1.19793E-19
5.50205E-05 1.06322E-19
5.83045E-05 9.46925E-20
6.16838E-05 8.46112E-20
6.51582E-05 7.58376E-20
6.87277E-05 6.81733E-20
7.23925E-05 6.14540E-20
7.61524E-05 5.55393E-20
9.21439E-05 3.79517E-20
1.09658E-04 2.68081E-20
1.28695E-04 1.94721E-20
1.49255E-04 1.44828E-20
1.71338E-04 1.09947E-20
1.94942E-04 8.49652E-21
2.20070E-04 6.66956E-21
2.46720E-04 5.30850E-21
2.74892E-04 4.27769E-21
3.04586E-04 3.48551E-21
3.35803E-04 2.86856E-21
3.68542E-04 2.38234E-21
4.02802E-04 1.99495E-21
4.38585E-04 1.68323E-21
4.75889E-04 1.43011E-21
5.14715E-04 1.22285E-21
5.55063E-04 1.05183E-21
5.96931E-04 9.09702E-22
6.40321E-04 7.90798E-22
6.85233E-04 6.90708E-22
7.31665E-04 6.05969E-22
7.79618E-04 5.33841E-22
8.29092E-04 4.72134E-22
8.80086E-04 4.19094E-22
9.32601E-04 3.73299E-22
9.86636E-04 3.33592E-22
1.04219E-03 2.99028E-22
1.09927E-03 2.68828E-22
1.15786E-03 2.42346E-22
1.21797E-03 2.19046E-22
1.27961E-03 1.98480E-22
1.34276E-03 1.80271E-22
1.40743E-03 1.64104E-22
1.47362E-03 1.49708E-22
1.54133E-03 1.36857E-22
1.61056E-03 1.25355E-22
1.68131E-03 1.15035E-22
1.75357E-03 1.05756E-22
1.82735E-03 9.73930E-23
1.90265E-03 8.98401E-23
1.97947E-03 8.30048E-23
2.05780E-03 7.68069E-23
2.13765E-03 7.11763E-23
2.21902E-03 6.60518E-23
2.30190E-03 6.13798E-23
2.38630E-03 5.71131E-23
2.47222E-03 5.32104E-23
2.55965E-03 4.96349E-23
2.64859E-03 4.63542E-23
2.73905E-03 4.33398E-23
2.83103E-03 4.05660E-23
2.92452E-03 3.80102E-23
3.01952E-03 3.56522E-23
3.11604E-03 3.34738E-23
3.21407E-03 3.14589E-23
3.31362E-03 2.95930E-23
3.41468E-03 2.78630E-23
3.51725E-03 2.62573E-23
3.62133E-03 2.47653E-23
3.72692E-03 2.33775E-23
3.83403E-03 2.20852E-23
3.94265E-03 2.08807E-23
4.05278E-03 1.97570E-23
4.16442E-03 1.87075E-23
4.27757E-03 1.77266E-23
4.39223E-03 1.68089E-23
4.50840E-03 1.59495E-23
4.62608E-03 1.51442E-23
4.74527E-03 1.43888E-23
4.86597E-03 1.36797E-23
4.98817E-03 1.30136E-23
5.11188E-03 1.23873E-23
5.23711E-03 1.17981E-23
5.36383E-03 1.12433E-23
5.49207E-03 1.07205E-23
5.62181E-03 1.02276E-23
5.75306E-03 9.76259E-24
5.88581E-03 9.32351E-24
6.02007E-03 8.90869E-24
6.15583E-03 8.51653E-24
6.29310E-03 8.14558E-24
6.43187E-03 7.79446E-24
6.57214E-03 7.46193E-24
6.71392E-03 7.14681E-24
6.85720E-03 6.84803E-24
7.00198E-03 6.56458E-24
7.14827E-03 6.29553E-24
7.29605E-03 6.04000E-24
7.44534E-03 5.79721E-24
7.59612E-03 5.56638E-24
7.97965E-03 5.03723E-24
8.37255E-03 4.56894E-24
8.77480E-03 4.15333E-24
9.18641E-03 3.78345E-24
9.60736E-03 3.45341E-24
1.00376E-02 3.15820E-24
1.04773E-02 2.89349E-24
1.09262E-02 2.65561E-24
1.13844E-02 2.44136E-24
1.18520E-02 2.24799E-24
1.23288E-02 2.07312E-24
1.28150E-02 1.91467E-24
1.33104E-02 1.77083E-24
1.38150E-02 1.64002E-24
1.43290E-02 1.52087E-24
1.48521E-02 1.41215E-24
1.53845E-02 1.31278E-24
1.59262E-02 1.22184E-24
1.64770E-02 1.13847E-24
1.70371E-02 1.06194E-24
1.76063E-02 9.91598E-25
1.81848E-02 9.26849E-25
1.87724E-02 8.67174E-25
1.93692E-02 8.12107E-25
1.99751E-02 7.61231E-25
2.05901E-02 7.14173E-25
2.12143E-02 6.70596E-25
2.18476E-02 6.30200E-25
2.24900E-02 5.92711E-25
2.31415E-02 5.57886E-25
2.38021E-02 5.25502E-25
2.44717E-02 4.95360E-25
2.51504E-02 4.67277E-25
2.58382E-02 4.41089E-25
2.65349E-02 4.16647E-25
2.72407E-02 3.93814E-25
2.79555E-02 3.72467E-25
2.86793E-02 3.52493E-25
2.94120E-02 3.33788E-25
3.01537E-02 3.16258E-25
3.09043E-02 2.99818E-25
3.16639E-02 2.84388E-25
3.24324E-02 2.69895E-25
3.32098E-02 2.56274E-25
3.39961E-02 2.43463E-25
3.47912E-02 2.31405E-25
3.55952E-02 2.20051E-25
3.64081E-02 2.09351E-25
3.72297E-02 1.99262E-25
3.80602E-02 1.89743E-25
3.88995E-02 1.80757E-25
3.97476E-02 1.72269E-25
4.06044E-02 1.64247E-25
4.14700E-02 1.56661E-25
4.23443E-02 1.49484E-25
4.32273E-02 1.42690E-25
4.41190E-02 1.36256E-25
4.50194E-02 1.30159E-25
4.59284E-02 1.24380E-25
4.68461E-02 1.18898E-25
4.87074E-02 1.08758E-25
5.06030E-02 9.96110E-26
5.25328E-02 9.13465E-26
5.44967E-02 8.38667E-26
5.64946E-02 7.70863E-26
5.85262E-02 7.09307E-26
6.05914E-02 6.53341E-26
6.26901E-02 6.02388E-26
6.48222E-02 5.55935E-26
6.69873E-02 5.13531E-26
6.91854E-02 4.74775E-26
7.14163E-02 4.39311E-26
7.36799E-02 4.06822E-26
7.59760E-02 3.77025E-26
7.83043E-02 3.49670E-26
8.06647E-02 3.24529E-26
8.30571E-02 3.01401E-26
8.54812E-02 2.80105E-26
8.79369E-02 2.60477E-26
9.04240E-02 2.42371E-26
9.29422E-02 2.25655E-26
9.54915E-02 2.10209E-26
9.80716E-02 1.95925E-26
1.00682E-01 1.82707E-26
1.03323E-01 1.70465E-26
1.05995E-01 1.59119E-26
1.08696E-01 1.48596E-26
1.11427E-01 1.38831E-26
1.14188E-01 1.29763E-26
1.16978E-01 1.21336E-26
1.19797E-01 1.13502E-26
1.22645E-01 1.06213E-26
1.25522E-01 9.94285E-27
1.28428E-01 9.31100E-27
1.31361E-01 8.72223E-27
1.34323E-01 8.17333E-27
1.37313E-01 7.66135E-27
1.40330E-01 7.18358E-27
1.43375E-01 6.73754E-27
1.46447E-01 6.32093E-27
1.49545E-01 5.93166E-27
1.52671E-01 5.56776E-27
1.55823E-01 5.22747E-27
1.59001E-01 4.90911E-27
1.62205E-01 4.61118E-27
1.65435E-01 4.33226E-27
1.68690E-01 4.07104E-27
1.71970E-01 3.82633E-27
1.75276E-01 3.59700E-27
1.78606E-01 3.38202E-27
1.81961E-01 3.18044E-27
1.85340E-01 2.99137E-27
1.88743E-01 2.81397E-27
1.92169E-01 2.64749E-27
1.95619E-01 2.49121E-27
1.99092E-01 2.34447E-27
2.02589E-01 2.20665E-27
2.06107E-01 2.07719E-27
2.09649E-01 1.95555E-27
2.13212E-01 1.84123E-27
2.16797E-01 1.73377E-27
2.20404E-01 1.63274E-27
2.24032E-01 1.53774E-27
2.27680E-01 1.44838E-27
2.31350E-01 1.36433E-27
2.35040E-01 1.28525E-27
2.38751E-01 1.21083E-27
2.42481E-01 1.14080E-27
2.46231E-01 1.07488E-27
2.50000E-01 1.01282E-27
2.53788E-01 9.54390E-28
2.57595E-01 8.99369E-28
2.61421E-01 8.47554E-28
2.65264E-01 7.98750E-28
2.69126E-01 7.52779E-28
2.73005E-01 7.09471E-28
2.76901E-01 6.68669E-28
2.80814E-01 6.30224E-28
2.84744E-01 5.93996E-28
2.88691E-01 5.59855E-28
2.92653E-01 5.27678E-28
2.96632E-01 4.97351E-28
3.00625E-01 4.68765E-28
3.04634E-01 4.41818E-28
3.08658E-01 4.16416E-28
3.12697E-01 3.92468E-28
3.16749E-01 3.69890E-28
3.20816E-01 3.48603E-28
3.24896E-01 3.28533E-28
3.28990E-01 3.09609E-28
3.33097E-01 2.91765E-28
3.37216E-01 2.74940E-28
3.41348E-01 2.59074E-28
3.45492E-01 2.44113E-28
3.49647E-01 2.30006E-28
3.53814E-01 2.16703E-28
3.57992E-01 2.04158E-28
3.62181E-01 1.92329E-28
3.66381E-01 1.81174E-28
3.70590E-01 1.70655E-28
3.74810E-01 1.60737E-28
3.79039E-01 1.51384E-28
3.83277E-01 1.42566E-28
3.87524E-01 1.34251E-28
3.91780E-01 1.26411E-28
3.96044E-01 1.19019E-28
4.00316E-01 1.12050E-28
4.04596E-01 1.05480E-28
4.08882E-01 9.92865E-29
4.13176E-01 9.34478E-29
4.17476E-01 8.79440E-29
4.21783E-01 8.27563E-29
4.26095E-01 7.78667E-29
4.30413E-01 7.32584E-29
4.34737E-01 6.89154E-29
4.39065E-01 6.48229E-29
4.43398E-01 6.09666E-29
4.47736E-01 5.73331E-29
4.52077E-01 5.39099E-29
4.56422E-01 5.06850E-29
4.60770E-01 4.76472E-29
4.65122E-01 4.47859E-29
4.69476E-01 4.20911E-29
4.73832E-01 3.95533E-29
4.78190E-01 3.71637E-29
4.82550E-01 3.49137E-29
4.86912E-01 3.27955E-29
4.91274E-01 3.08016E-29
4.95637E-01 2.89248E-29
5.00000E-01 2.71586E-29
5.04363E-01 2.54965E-29
5.08726E-01 2.39326E-29
5.13088E-01 2.24614E-29
5.17450E-01 2.10774E-29
5.21810E-01 1.97758E-29
5.26168E-01 1.85517E-29
5.30524E-01 1.74007E-29
5.34878E-01 1.63186E-29
5.39230E-01 1.53014E-29
5.43578E-01 1.43454E-29
5.47923E-01 1.34470E-29
5.52264E-01 1.26029E-29
5.56602E-01 1.18099E-29
5.60935E-01 1.10651E-29
5.65263E-01 1.03656E-29
5.69587E-01 9.70877E-30
5.73905E-01 9.09217E-30
5.78217E-01 8.51342E-30
5.82524E-01 7.97028E-30
5.86824E-01 7.46066E-30
5.91118E-01 6.98258E-30
5.95404E-01 6.53418E-30
5.99684E-01 6.11369E-30
6.03956E-01 5.71946E-30
6.08220E-01 5.34992E-30
6.12476E-01 5.00360E-30
6.16723E-01 4.67910E-30
6.20961E-01 4.37512E-30
6.25190E-01 4.09042E-30
6.29410E-01 3.82383E-30
6.33619E-01 3.57426E-30
6.37819E-01 3.34068E-30
6.42008E-01 3.12211E-30
6.46186E-01 2.91764E-30
6.50353E-01 2.72640E-30
6.54508E-01 2.54758E-30
6.58652E-01 2.38041E-30
6.62784E-01 2.22417E-30
6.66903E-01 2.07818E-30
6.71010E-01 1.94180E-30
6.75104E-01 1.81444E-30
6.79184E-01 1.69553E-30
6.83251E-01 1.58453E-30
6.87303E-01 1.48095E-30
6.91342E-01 1.38431E-30
6.95366E-01 1.29417E-30
6.99375E-01 1.21012E-30
7.03368E-01 1.13176E-30
7.07347E-01 1.05873E-30
7.11309E-01 9.90685E-31
7.15256E-01 9.27297E-31
7.19186E-01 8.68263E-31
7.23099E-01 8.13297E-31
7.26995E-01 7.62131E-31
7.30874E-01 7.14513E-31
7.34736E-01 6.70208E-31
7.38579E-01 6.28992E-31
7.42405E-01 5.90659E-31
7.46212E-01 5.55014E-31
7.50000E-01 5.21874E-31
7.53769E-01 4.91067E-31
7.57519E-01 4.62434E-31
7.61249E-01 4.35825E-31
7.64960E-01 4.11099E-31
7.68650E-01 3.88124E-31
7.72320E-01 3.66778E-31
7.75968E-01 3.46944E-31
7.79596E-01 3.28516E-31
7.83203E-01 3.11393E-31
7.86788E-01 2.95482E-31
7.90351E-01 2.80693E-31
7.93893E-01 2.66945E-31
7.97411E-01 2.54162E-31
8.00908E-01 2.42273E-31
8.04381E-01 2.31210E-31
8.07831E-01 2.20912E-31
8.11257E-01 2.11322E-31
8.14660E-01 2.02384E-31
8.18039E-01 1.94049E-31
8.21394E-01 1.86271E-31
8.24724E-01 1.79007E-31
8.28030E-01 1.72215E-31
8.31310E-01 1.65859E-31
8.34565E-01 1.59903E-31
8.37795E-01 1.54317E-31
8.40999E-01 1.49070E-31
8.44177E-01 1.44133E-31
8.47329E-01 1.39483E-31
8.50455E-01 1.35095E-31
8.53553E-01 1.30947E-31
8.56625E-01 1.27019E-31
8.59670E-01 1.23293E-31
8.62687E-01 1.19750E-31
8.65677E-01 1.16377E-31
8.68639E-01 1.13157E-31
8.71572E-01 1.10078E-31
8.74478E-01 1.07127E-31
8.77355E-01 1.04294E-31
8.80203E-01 1.01567E-31
8.83022E-01 9.89380E-32
8.85812E-01 9.63976E-32
8.88573E-01 9.39382E-32
8.91304E-01 9.15528E-32
8.94005E-01 8.92348E-32
8.96677E-01 8.69785E-32
8.99318E-01 8.47784E-32
9.01928E-01 8.26299E-32
9.04508E-01 8.05286E-32
9.07058E-01 7.84707E-32
9.09576E-01 7.64528E-32
9.12063E-01 7.44718E-32
9.14519E-01 7.25250E-32
9.16943E-01 7.06099E-32
9.19335E-01 6.87245E-32
9.21696E-01 6.68669E-32
9.24024E-01 6.50356E-32
9.26320E-01 6.32292E-32
9.28584E-01 6.14465E-32
9.30815E-01 5.96865E-32
9.33013E-01 5.79484E-32
9.35178E-01 5.62317E-32
9.37310E-01 5.45358E-32
9.39409E-01 5.28603E-32
9.41474E-01 5.12049E-32
9.43505E-01 4.95695E-32
9.45503E-01 4.79541E-32
9.47467E-01 4.63586E-32
9.49397E-01 4.47832E-32
9.51293E-01 4.32279E-32
9.53154E-01 4.16931E-32
9.54981E-01 4.01789E-32
9.56773E-01 3.86857E-32
9.58530E-01 3.72138E-32
9.60252E-01 3.57636E-32
9.61940E-01 3.43356E-32
9.63592E-01 3.29301E-32
9.65209E-01 3.15476E-32
9.66790E-01 3.01886E-32
9.68336E-01 2.88535E-32
9.69846E-01 2.75429E-32
9.71321E-01 2.62571E-32
9.72759E-01 2.49968E-32
9.74162E-01 2.37624E-32
9.75528E-01 2.25544E-32
9.76858E-01 2.13733E-32
9.78152E-01 2.02196E-32
9.79410E-01 1.90938E-32
9.80631E-01 1.79963E-32
9.81815E-01 1.69275E-32
9.82963E-01 1.58881E-32
9.84074E-01 1.48784E-32
9.85148E-01 1.38988E-32
9.86185E-01 1.29497E-32
9.87185E-01 1.20316E-32
9.88148E-01 1.11449E-32
9.89074E-01 1.02898E-32
9.89962E-01 9.46694E-33
9.90814E-01 8.67648E-33
9.91627E-01 7.91880E-33
9.92404E-01 7.19423E-33
9.93143E-01 6.50307E-33
9.93844E-01 5.84562E-33
9.94508E-01 5.22214E-33
9.95134E-01 4.63292E-33
9.95722E-01 4.07818E-33
9.96273E-01 3.55816E-33
9.96786E-01 3.07307E-33
9.97261E-01 2.62311E-33
9.97698E-01 2.20848E-33
9.98097E-01 1.82934E-33
9.98459E-01 1.48583E-33
9.98782E-01 1.17811E-33
9.99067E-01 9.06301E-34
9.99315E-01 6.70514E-34
9.99524E-01 4.70838E-34
9.99695E-01 3.07358E-34
9.99829E-01 1.80137E-34
9.99924E-01 8.92294E-35
9.99981E-01 3.46731E-35
1.00000E+00 1.64656E-35
