 #
 # Subroutine ELSEPA. Elastic scattering of electrons and positrons
 #                    by neutral atoms and positive ions
 #
 # Projectile: electron
 # Kinetic energy = 1.00000E+07 eV = 3.67493E+05 a.u.
 #
 # WARNING: High-energy factorization with free-atom DF screening.
 #          Absorption, polarization and exchange corrections are
 #          switched off.
 #          Phase shifts are calculated for the bare nucleus.
 #          Scattering amplitudes are not evaluated.
 #
 # Element: Mn,  Z =  25,  atomic weight = 5.49380E+01 g/mol
 #
 # Nuclear model: Fermi distribution
 #                Average radius = 4.06763E-13 cm
 #                Skin thickness = 5.46000E-14 cm
 #
 # Number of electrons = 25
 #
 # Total elastic cross section = 1.95628E-18 cm**2 = 6.98600E-02 a0**2
 # 1st transport cross section = 9.80173E-24 cm**2 = 3.50026E-07 a0**2
 # 2nd transport cross section = 2.80382E-23 cm**2 = 1.00126E-06 a0**2
 #
 #
 # Differential cross section:                       MU=(1-COS(THETA))/2
 #
 #  THETA        MU          DCS          DCS        Sherman      error
 #  (deg)                 (cm**2/sr)   (a0**2/sr)    function
 #----------------------------------------------------------------------
0.00000E+00 2.36241E-12
7.61557E-13 2.36233E-12
1.18994E-12 2.36228E-12
1.71346E-12 2.36222E-12
2.33225E-12 2.36215E-12
3.04617E-12 2.36207E-12
3.85530E-12 2.36198E-12
4.75964E-12 2.36188E-12
5.75917E-12 2.36177E-12
6.85391E-12 2.36165E-12
8.04379E-12 2.36152E-12
9.32893E-12 2.36138E-12
1.07092E-11 2.36123E-12
1.21847E-11 2.36107E-12
1.37554E-11 2.36090E-12
1.54213E-11 2.36071E-12
1.71823E-11 2.36052E-12
1.90386E-11 2.36032E-12
2.09900E-11 2.36010E-12
2.30367E-11 2.35988E-12
2.51785E-11 2.35964E-12
2.74156E-11 2.35940E-12
2.97478E-11 2.35914E-12
3.21752E-11 2.35887E-12
3.46979E-11 2.35860E-12
3.73157E-11 2.35831E-12
4.00286E-11 2.35801E-12
4.28368E-11 2.35771E-12
4.57402E-11 2.35739E-12
4.87388E-11 2.35706E-12
5.18325E-11 2.35672E-12
5.50215E-11 2.35637E-12
5.83057E-11 2.35601E-12
6.16850E-11 2.35564E-12
6.51595E-11 2.35526E-12
6.87293E-11 2.35487E-12
7.23943E-11 2.35447E-12
7.61544E-11 2.35406E-12
1.18991E-10 2.34939E-12
1.71347E-10 2.34370E-12
2.33223E-10 2.33700E-12
3.04617E-10 2.32931E-12
3.85531E-10 2.32064E-12
4.75965E-10 2.31102E-12
5.75917E-10 2.30045E-12
6.85389E-10 2.28897E-12
8.04380E-10 2.27659E-12
9.32891E-10 2.26334E-12
1.07092E-09 2.24925E-12
1.21847E-09 2.23434E-12
1.37554E-09 2.21864E-12
1.54213E-09 2.20218E-12
1.71823E-09 2.18499E-12
1.90386E-09 2.16711E-12
2.09900E-09 2.14855E-12
2.30367E-09 2.12927E-12
2.51785E-09 2.10944E-12
2.74156E-09 2.08908E-12
2.97478E-09 2.06825E-12
3.21752E-09 2.04697E-12
3.46978E-09 2.02504E-12
3.73156E-09 2.00269E-12
4.00286E-09 1.98001E-12
4.28368E-09 1.95703E-12
4.57402E-09 1.93378E-12
4.87388E-09 1.91010E-12
5.18326E-09 1.88609E-12
5.50215E-09 1.86192E-12
5.83057E-09 1.83762E-12
6.16850E-09 1.81323E-12
6.51596E-09 1.78861E-12
6.87293E-09 1.76375E-12
7.23942E-09 1.73888E-12
7.61544E-09 1.71402E-12
1.18991E-08 1.46768E-12
1.71347E-08 1.23865E-12
2.33223E-08 1.03775E-12
3.04617E-08 8.68139E-13
3.85531E-08 7.28237E-13
4.75965E-08 6.14233E-13
5.75917E-08 5.21703E-13
6.85389E-08 4.46451E-13
8.04380E-08 3.84899E-13
9.32891E-08 3.34163E-13
1.07092E-07 2.91960E-13
1.21847E-07 2.56523E-13
1.37554E-07 2.26495E-13
1.54213E-07 2.00831E-13
1.71823E-07 1.78727E-13
1.90386E-07 1.59557E-13
2.09900E-07 1.42697E-13
2.30367E-07 1.26936E-13
2.51785E-07 1.13658E-13
2.74156E-07 1.02398E-13
2.97478E-07 9.27898E-14
3.21752E-07 8.45416E-14
3.46978E-07 7.61463E-14
3.73156E-07 6.87429E-14
4.00286E-07 6.23455E-14
4.28368E-07 5.67905E-14
4.57402E-07 5.19445E-14
4.87388E-07 4.72826E-14
5.18325E-07 4.29850E-14
5.50215E-07 3.92142E-14
5.83057E-07 3.58930E-14
6.16850E-07 3.29572E-14
6.51596E-07 3.02423E-14
6.87293E-07 2.76856E-14
7.23942E-07 2.54131E-14
7.61543E-07 2.33871E-14
1.18991E-06 1.08941E-14
1.71347E-06 5.71526E-15
2.33223E-06 3.31653E-15
3.04617E-06 2.07974E-15
3.85531E-06 1.38052E-15
4.75964E-06 9.55345E-16
5.75916E-06 6.82127E-16
6.85388E-06 4.99180E-16
8.04378E-06 3.72867E-16
9.32888E-06 2.83474E-16
1.07092E-05 2.18887E-16
1.21846E-05 1.71405E-16
1.37553E-05 1.35962E-16
1.54212E-05 1.09130E-16
1.71822E-05 8.85484E-17
1.90385E-05 7.25652E-17
2.09899E-05 6.00217E-17
2.30365E-05 5.00596E-17
2.51783E-05 4.21020E-17
2.74153E-05 3.56493E-17
2.97475E-05 3.03993E-17
3.21749E-05 2.60777E-17
3.46974E-05 2.25049E-17
3.73152E-05 1.95241E-17
4.00281E-05 1.70254E-17
4.28362E-05 1.49145E-17
4.57395E-05 1.31231E-17
4.87380E-05 1.15933E-17
5.18317E-05 1.02813E-17
5.50205E-05 9.15017E-18
5.83045E-05 8.17098E-18
6.16838E-05 7.31986E-18
6.51582E-05 6.57697E-18
6.87277E-05 5.92651E-18
7.23925E-05 5.35449E-18
7.61524E-05 4.85030E-18
9.21439E-05 3.34093E-18
1.09658E-04 2.37579E-18
1.28695E-04 1.73530E-18
1.49255E-04 1.29667E-18
1.71338E-04 9.88192E-19
1.94942E-04 7.66130E-19
2.20070E-04 6.03023E-19
2.46720E-04 4.81059E-19
2.74892E-04 3.88397E-19
3.04586E-04 3.16993E-19
3.35803E-04 2.61254E-19
3.68542E-04 2.17238E-19
4.02802E-04 1.82109E-19
4.38585E-04 1.53799E-19
4.75889E-04 1.30781E-19
5.14715E-04 1.11912E-19
5.55063E-04 9.63263E-20
5.96931E-04 8.33621E-20
6.40321E-04 7.25079E-20
6.85233E-04 6.33648E-20
7.31665E-04 5.56189E-20
7.79618E-04 4.90220E-20
8.29092E-04 4.33753E-20
8.80086E-04 3.85194E-20
9.32601E-04 3.43248E-20
9.86636E-04 3.06865E-20
1.04219E-03 2.75182E-20
1.09927E-03 2.47488E-20
1.15786E-03 2.23196E-20
1.21797E-03 2.01816E-20
1.27961E-03 1.82938E-20
1.34276E-03 1.66221E-20
1.40743E-03 1.51372E-20
1.47362E-03 1.38148E-20
1.54133E-03 1.26338E-20
1.61056E-03 1.15766E-20
1.68131E-03 1.06279E-20
1.75357E-03 9.77456E-21
1.82735E-03 9.00532E-21
1.90265E-03 8.31041E-21
1.97947E-03 7.68138E-21
2.05780E-03 7.11086E-21
2.13765E-03 6.59244E-21
2.21902E-03 6.12050E-21
2.30190E-03 5.69014E-21
2.38630E-03 5.29702E-21
2.47222E-03 4.93734E-21
2.55965E-03 4.60775E-21
2.64859E-03 4.30526E-21
2.73905E-03 4.02725E-21
2.83103E-03 3.77137E-21
2.92452E-03 3.53554E-21
3.01952E-03 3.31790E-21
3.11604E-03 3.11679E-21
3.21407E-03 2.93073E-21
3.31362E-03 2.75838E-21
3.41468E-03 2.59855E-21
3.51725E-03 2.45015E-21
3.62133E-03 2.31223E-21
3.72692E-03 2.18390E-21
3.83403E-03 2.06438E-21
3.94265E-03 1.95294E-21
4.05278E-03 1.84894E-21
4.16442E-03 1.75180E-21
4.27757E-03 1.66096E-21
4.39223E-03 1.57596E-21
4.50840E-03 1.49634E-21
4.62608E-03 1.42170E-21
4.74527E-03 1.35167E-21
4.86597E-03 1.28591E-21
4.98817E-03 1.22412E-21
5.11188E-03 1.16600E-21
5.23711E-03 1.11130E-21
5.36383E-03 1.05978E-21
5.49207E-03 1.01122E-21
5.62181E-03 9.65425E-22
5.75306E-03 9.22197E-22
5.88581E-03 8.81369E-22
6.02007E-03 8.42783E-22
6.15583E-03 8.06293E-22
6.29310E-03 7.71762E-22
6.43187E-03 7.39067E-22
6.57214E-03 7.08090E-22
6.71392E-03 6.78725E-22
6.85720E-03 6.50872E-22
7.00198E-03 6.24437E-22
7.14827E-03 5.99336E-22
7.29605E-03 5.75488E-22
7.44534E-03 5.52818E-22
7.59612E-03 5.31257E-22
7.97965E-03 4.81795E-22
8.37255E-03 4.37976E-22
8.77480E-03 3.99044E-22
9.18641E-03 3.64358E-22
9.60736E-03 3.33372E-22
1.00376E-02 3.05623E-22
1.04773E-02 2.80712E-22
1.09262E-02 2.58298E-22
1.13844E-02 2.38084E-22
1.18520E-02 2.19817E-22
1.23288E-02 2.03274E-22
1.28150E-02 1.88265E-22
1.33104E-02 1.74621E-22
1.38150E-02 1.62196E-22
1.43290E-02 1.50860E-22
1.48521E-02 1.40502E-22
1.53845E-02 1.31021E-22
1.59262E-02 1.22329E-22
1.64770E-02 1.14349E-22
1.70371E-02 1.07011E-22
1.76063E-02 1.00256E-22
1.81848E-02 9.40267E-23
1.87724E-02 8.82759E-23
1.93692E-02 8.29598E-23
1.99751E-02 7.80395E-23
2.05901E-02 7.34800E-23
2.12143E-02 6.92500E-23
2.18476E-02 6.53213E-23
2.24900E-02 6.16683E-23
2.31415E-02 5.82681E-23
2.38021E-02 5.50999E-23
2.44717E-02 5.21450E-23
2.51504E-02 4.93863E-23
2.58382E-02 4.68083E-23
2.65349E-02 4.43970E-23
2.72407E-02 4.21396E-23
2.79555E-02 4.00243E-23
2.86793E-02 3.80407E-23
2.94120E-02 3.61788E-23
3.01537E-02 3.44299E-23
3.09043E-02 3.27858E-23
3.16639E-02 3.12390E-23
3.24324E-02 2.97826E-23
3.32098E-02 2.84105E-23
3.39961E-02 2.71167E-23
3.47912E-02 2.58960E-23
3.55952E-02 2.47434E-23
3.64081E-02 2.36545E-23
3.72297E-02 2.26250E-23
3.80602E-02 2.16511E-23
3.88995E-02 2.07291E-23
3.97476E-02 1.98559E-23
4.06044E-02 1.90283E-23
4.14700E-02 1.82435E-23
4.23443E-02 1.74989E-23
4.32273E-02 1.67920E-23
4.41190E-02 1.61205E-23
4.50194E-02 1.54823E-23
4.59284E-02 1.48755E-23
4.68461E-02 1.42982E-23
4.87074E-02 1.32254E-23
5.06030E-02 1.22515E-23
5.25328E-02 1.13658E-23
5.44967E-02 1.05589E-23
5.64946E-02 9.82240E-24
5.85262E-02 9.14910E-24
6.05914E-02 8.53259E-24
6.26901E-02 7.96718E-24
6.48222E-02 7.44786E-24
6.69873E-02 6.97020E-24
6.91854E-02 6.53022E-24
7.14163E-02 6.12441E-24
7.36799E-02 5.74963E-24
7.59760E-02 5.40307E-24
7.83043E-02 5.08220E-24
8.06647E-02 4.78477E-24
8.30571E-02 4.50875E-24
8.54812E-02 4.25231E-24
8.79369E-02 4.01380E-24
9.04240E-02 3.79175E-24
9.29422E-02 3.58479E-24
9.54915E-02 3.39172E-24
9.80716E-02 3.21143E-24
1.00682E-01 3.04292E-24
1.03323E-01 2.88526E-24
1.05995E-01 2.73764E-24
1.08696E-01 2.59929E-24
1.11427E-01 2.46952E-24
1.14188E-01 2.34770E-24
1.16978E-01 2.23326E-24
1.19797E-01 2.12566E-24
1.22645E-01 2.02441E-24
1.25522E-01 1.92907E-24
1.28428E-01 1.83924E-24
1.31361E-01 1.75453E-24
1.34323E-01 1.67460E-24
1.37313E-01 1.59912E-24
1.40330E-01 1.52781E-24
1.43375E-01 1.46038E-24
1.46447E-01 1.39659E-24
1.49545E-01 1.33621E-24
1.52671E-01 1.27902E-24
1.55823E-01 1.22481E-24
1.59001E-01 1.17341E-24
1.62205E-01 1.12464E-24
1.65435E-01 1.07834E-24
1.68690E-01 1.03437E-24
1.71970E-01 9.92573E-25
1.75276E-01 9.52836E-25
1.78606E-01 9.15034E-25
1.81961E-01 8.79056E-25
1.85340E-01 8.44797E-25
1.88743E-01 8.12160E-25
1.92169E-01 7.81052E-25
1.95619E-01 7.51391E-25
1.99092E-01 7.23094E-25
2.02589E-01 6.96089E-25
2.06107E-01 6.70305E-25
2.09649E-01 6.45677E-25
2.13212E-01 6.22142E-25
2.16797E-01 5.99644E-25
2.20404E-01 5.78129E-25
2.24032E-01 5.57545E-25
2.27680E-01 5.37844E-25
2.31350E-01 5.18982E-25
2.35040E-01 5.00917E-25
2.38751E-01 4.83608E-25
2.42481E-01 4.67018E-25
2.46231E-01 4.51112E-25
2.50000E-01 4.35855E-25
2.53788E-01 4.21218E-25
2.57595E-01 4.07169E-25
2.61421E-01 3.93681E-25
2.65264E-01 3.80728E-25
2.69126E-01 3.68284E-25
2.73005E-01 3.56326E-25
2.76901E-01 3.44830E-25
2.80814E-01 3.33777E-25
2.84744E-01 3.23145E-25
2.88691E-01 3.12916E-25
2.92653E-01 3.03072E-25
2.96632E-01 2.93596E-25
3.00625E-01 2.84471E-25
3.04634E-01 2.75682E-25
3.08658E-01 2.67214E-25
3.12697E-01 2.59054E-25
3.16749E-01 2.51188E-25
3.20816E-01 2.43604E-25
3.24896E-01 2.36289E-25
3.28990E-01 2.29233E-25
3.33097E-01 2.22425E-25
3.37216E-01 2.15854E-25
3.41348E-01 2.09511E-25
3.45492E-01 2.03386E-25
3.49647E-01 1.97471E-25
3.53814E-01 1.91757E-25
3.57992E-01 1.86236E-25
3.62181E-01 1.80900E-25
3.66381E-01 1.75742E-25
3.70590E-01 1.70755E-25
3.74810E-01 1.65932E-25
3.79039E-01 1.61267E-25
3.83277E-01 1.56755E-25
3.87524E-01 1.52388E-25
3.91780E-01 1.48161E-25
3.96044E-01 1.44070E-25
4.00316E-01 1.40109E-25
4.04596E-01 1.36273E-25
4.08882E-01 1.32557E-25
4.13176E-01 1.28958E-25
4.17476E-01 1.25471E-25
4.21783E-01 1.22091E-25
4.26095E-01 1.18815E-25
4.30413E-01 1.15639E-25
4.34737E-01 1.12560E-25
4.39065E-01 1.09574E-25
4.43398E-01 1.06678E-25
4.47736E-01 1.03868E-25
4.52077E-01 1.01142E-25
4.56422E-01 9.84966E-26
4.60770E-01 9.59290E-26
4.65122E-01 9.34367E-26
4.69476E-01 9.10169E-26
4.73832E-01 8.86674E-26
4.78190E-01 8.63856E-26
4.82550E-01 8.41692E-26
4.86912E-01 8.20162E-26
4.91274E-01 7.99244E-26
4.95637E-01 7.78917E-26
5.00000E-01 7.59162E-26
5.04363E-01 7.39960E-26
5.08726E-01 7.21294E-26
5.13088E-01 7.03145E-26
5.17450E-01 6.85498E-26
5.21810E-01 6.68335E-26
5.26168E-01 6.51643E-26
5.30524E-01 6.35404E-26
5.34878E-01 6.19606E-26
5.39230E-01 6.04234E-26
5.43578E-01 5.89275E-26
5.47923E-01 5.74717E-26
5.52264E-01 5.60545E-26
5.56602E-01 5.46750E-26
5.60935E-01 5.33319E-26
5.65263E-01 5.20241E-26
5.69587E-01 5.07505E-26
5.73905E-01 4.95101E-26
5.78217E-01 4.83020E-26
5.82524E-01 4.71250E-26
5.86824E-01 4.59784E-26
5.91118E-01 4.48611E-26
5.95404E-01 4.37724E-26
5.99684E-01 4.27114E-26
6.03956E-01 4.16772E-26
6.08220E-01 4.06692E-26
6.12476E-01 3.96865E-26
6.16723E-01 3.87284E-26
6.20961E-01 3.77942E-26
6.25190E-01 3.68832E-26
6.29410E-01 3.59948E-26
6.33619E-01 3.51283E-26
6.37819E-01 3.42831E-26
6.42008E-01 3.34586E-26
6.46186E-01 3.26543E-26
6.50353E-01 3.18695E-26
6.54508E-01 3.11037E-26
6.58652E-01 3.03564E-26
6.62784E-01 2.96271E-26
6.66903E-01 2.89153E-26
6.71010E-01 2.82205E-26
6.75104E-01 2.75423E-26
6.79184E-01 2.68802E-26
6.83251E-01 2.62337E-26
6.87303E-01 2.56025E-26
6.91342E-01 2.49862E-26
6.95366E-01 2.43844E-26
6.99375E-01 2.37966E-26
7.03368E-01 2.32225E-26
7.07347E-01 2.26618E-26
7.11309E-01 2.21141E-26
7.15256E-01 2.15790E-26
7.19186E-01 2.10563E-26
7.23099E-01 2.05456E-26
7.26995E-01 2.00466E-26
7.30874E-01 1.95590E-26
7.34736E-01 1.90825E-26
7.38579E-01 1.86169E-26
7.42405E-01 1.81619E-26
7.46212E-01 1.77171E-26
7.50000E-01 1.72824E-26
7.53769E-01 1.68576E-26
7.57519E-01 1.64422E-26
7.61249E-01 1.60362E-26
7.64960E-01 1.56393E-26
7.68650E-01 1.52512E-26
7.72320E-01 1.48718E-26
7.75968E-01 1.45009E-26
7.79596E-01 1.41381E-26
7.83203E-01 1.37835E-26
7.86788E-01 1.34366E-26
7.90351E-01 1.30975E-26
7.93893E-01 1.27658E-26
7.97411E-01 1.24415E-26
8.00908E-01 1.21242E-26
8.04381E-01 1.18140E-26
8.07831E-01 1.15105E-26
8.11257E-01 1.12137E-26
8.14660E-01 1.09234E-26
8.18039E-01 1.06395E-26
8.21394E-01 1.03617E-26
8.24724E-01 1.00900E-26
8.28030E-01 9.82426E-27
8.31310E-01 9.56429E-27
8.34565E-01 9.30999E-27
8.37795E-01 9.06122E-27
8.40999E-01 8.81787E-27
8.44177E-01 8.57982E-27
8.47329E-01 8.34694E-27
8.50455E-01 8.11913E-27
8.53553E-01 7.89628E-27
8.56625E-01 7.67828E-27
8.59670E-01 7.46503E-27
8.62687E-01 7.25642E-27
8.65677E-01 7.05235E-27
8.68639E-01 6.85274E-27
8.71572E-01 6.65749E-27
8.74478E-01 6.46650E-27
8.77355E-01 6.27969E-27
8.80203E-01 6.09697E-27
8.83022E-01 5.91826E-27
8.85812E-01 5.74348E-27
8.88573E-01 5.57255E-27
8.91304E-01 5.40538E-27
8.94005E-01 5.24191E-27
8.96677E-01 5.08207E-27
8.99318E-01 4.92577E-27
9.01928E-01 4.77295E-27
9.04508E-01 4.62355E-27
9.07058E-01 4.47750E-27
9.09576E-01 4.33473E-27
9.12063E-01 4.19518E-27
9.14519E-01 4.05880E-27
9.16943E-01 3.92552E-27
9.19335E-01 3.79528E-27
9.21696E-01 3.66803E-27
9.24024E-01 3.54371E-27
9.26320E-01 3.42228E-27
9.28584E-01 3.30368E-27
9.30815E-01 3.18786E-27
9.33013E-01 3.07476E-27
9.35178E-01 2.96436E-27
9.37310E-01 2.85659E-27
9.39409E-01 2.75141E-27
9.41474E-01 2.64879E-27
9.43505E-01 2.54867E-27
9.45503E-01 2.45101E-27
9.47467E-01 2.35578E-27
9.49397E-01 2.26294E-27
9.51293E-01 2.17245E-27
9.53154E-01 2.08427E-27
9.54981E-01 1.99837E-27
9.56773E-01 1.91471E-27
9.58530E-01 1.83325E-27
9.60252E-01 1.75397E-27
9.61940E-01 1.67684E-27
9.63592E-01 1.60182E-27
9.65209E-01 1.52888E-27
9.66790E-01 1.45799E-27
9.68336E-01 1.38913E-27
9.69846E-01 1.32227E-27
9.71321E-01 1.25738E-27
9.72759E-01 1.19444E-27
9.74162E-01 1.13342E-27
9.75528E-01 1.07430E-27
9.76858E-01 1.01706E-27
9.78152E-01 9.61665E-28
9.79410E-01 9.08105E-28
9.80631E-01 8.56355E-28
9.81815E-01 8.06396E-28
9.82963E-01 7.58209E-28
9.84074E-01 7.11774E-28
9.85148E-01 6.67075E-28
9.86185E-01 6.24093E-28
9.87185E-01 5.82813E-28
9.88148E-01 5.43219E-28
9.89074E-01 5.05296E-28
9.89962E-01 4.69028E-28
9.90814E-01 4.34403E-28
9.91627E-01 4.01408E-28
9.92404E-01 3.70029E-28
9.93143E-01 3.40254E-28
9.93844E-01 3.12074E-28
9.94508E-01 2.85476E-28
9.95134E-01 2.60451E-28
9.95722E-01 2.36989E-28
9.96273E-01 2.15082E-28
9.96786E-01 1.94722E-28
9.97261E-01 1.75900E-28
9.97698E-01 1.58609E-28
9.98097E-01 1.42844E-28
9.98459E-01 1.28598E-28
9.98782E-01 1.15866E-28
9.99067E-01 1.04643E-28
9.99315E-01 9.49245E-29
9.99524E-01 8.67076E-29
9.99695E-01 7.99888E-29
9.99829E-01 7.47657E-29
9.99924E-01 7.10363E-29
9.99981E-01 6.87991E-29
1.00000E+00 6.80541E-29
