 #
 # Subroutine ELSEPA. Elastic scattering of electrons and positrons
 #                    by neutral atoms and positive ions
 #
 # Projectile: electron
 # Kinetic energy = 5.00000E+06 eV = 1.83747E+05 a.u.
 #
 # WARNING: High-energy factorization with free-atom DF screening.
 #          Absorption, polarization and exchange corrections are
 #          switched off.
 #          Phase shifts are calculated for the bare nucleus.
 #          Scattering amplitudes are not evaluated.
 #
 # Element: Mn,  Z =  25,  atomic weight = 5.49380E+01 g/mol
 #
 # Nuclear model: Fermi distribution
 #                Average radius = 4.06763E-13 cm
 #                Skin thickness = 5.46000E-14 cm
 #
 # Number of electrons = 25
 #
 # Total elastic cross section = 1.97168E-18 cm**2 = 7.04101E-02 a0**2
 # 1st transport cross section = 3.26820E-23 cm**2 = 1.16709E-06 a0**2
 # 2nd transport cross section = 9.28818E-23 cm**2 = 3.31687E-06 a0**2
 #
 #
 # Differential cross section:                       MU=(1-COS(THETA))/2
 #
 #  THETA        MU          DCS          DCS        Sherman      error
 #  (deg)                 (cm**2/sr)   (a0**2/sr)    function
 #----------------------------------------------------------------------
0.00000E+00 6.49423E-13
7.61557E-13 6.49417E-13
1.18994E-12 6.49413E-13
1.71346E-12 6.49409E-13
2.33225E-12 6.49404E-13
3.04617E-12 6.49398E-13
3.85530E-12 6.49392E-13
4.75964E-12 6.49384E-13
5.75917E-12 6.49376E-13
6.85391E-12 6.49367E-13
8.04379E-12 6.49357E-13
9.32893E-12 6.49346E-13
1.07092E-11 6.49335E-13
1.21847E-11 6.49323E-13
1.37554E-11 6.49310E-13
1.54213E-11 6.49296E-13
1.71823E-11 6.49282E-13
1.90386E-11 6.49266E-13
2.09900E-11 6.49250E-13
2.30367E-11 6.49233E-13
2.51785E-11 6.49216E-13
2.74156E-11 6.49197E-13
2.97478E-11 6.49178E-13
3.21752E-11 6.49158E-13
3.46979E-11 6.49137E-13
3.73157E-11 6.49116E-13
4.00286E-11 6.49093E-13
4.28368E-11 6.49070E-13
4.57402E-11 6.49046E-13
4.87388E-11 6.49022E-13
5.18325E-11 6.48996E-13
5.50215E-11 6.48970E-13
5.83057E-11 6.48943E-13
6.16850E-11 6.48915E-13
6.51595E-11 6.48886E-13
6.87293E-11 6.48857E-13
7.23943E-11 6.48827E-13
7.61544E-11 6.48796E-13
1.18991E-10 6.48443E-13
1.71347E-10 6.48013E-13
2.33223E-10 6.47504E-13
3.04617E-10 6.46919E-13
3.85531E-10 6.46256E-13
4.75965E-10 6.45517E-13
5.75917E-10 6.44701E-13
6.85389E-10 6.43809E-13
8.04380E-10 6.42843E-13
9.32891E-10 6.41801E-13
1.07092E-09 6.40685E-13
1.21847E-09 6.39496E-13
1.37554E-09 6.38234E-13
1.54213E-09 6.36900E-13
1.71823E-09 6.35494E-13
1.90386E-09 6.34017E-13
2.09900E-09 6.32471E-13
2.30367E-09 6.30856E-13
2.51785E-09 6.29173E-13
2.74156E-09 6.27422E-13
2.97478E-09 6.25605E-13
3.21752E-09 6.23723E-13
3.46978E-09 6.21777E-13
3.73156E-09 6.19767E-13
4.00286E-09 6.17696E-13
4.28368E-09 6.15563E-13
4.57402E-09 6.13370E-13
4.87388E-09 6.11119E-13
5.18326E-09 6.08809E-13
5.50215E-09 6.06444E-13
5.83057E-09 6.04023E-13
6.16850E-09 6.01548E-13
6.51596E-09 5.99020E-13
6.87293E-09 5.96440E-13
7.23942E-09 5.93810E-13
7.61544E-09 5.91131E-13
1.18991E-08 5.61934E-13
1.71347E-08 5.29294E-13
2.33223E-08 4.94527E-13
3.04617E-08 4.58845E-13
3.85531E-08 4.23291E-13
4.75965E-08 3.88702E-13
5.75917E-08 3.55700E-13
6.85389E-08 3.24708E-13
8.04380E-08 2.95972E-13
9.32891E-08 2.69597E-13
1.07092E-07 2.45580E-13
1.21847E-07 2.23841E-13
1.37554E-07 2.04248E-13
1.54213E-07 1.86640E-13
1.71823E-07 1.70844E-13
1.90386E-07 1.56682E-13
2.09900E-07 1.43984E-13
2.30367E-07 1.32588E-13
2.51785E-07 1.22348E-13
2.74156E-07 1.13129E-13
2.97478E-07 1.04813E-13
3.21752E-07 9.72926E-14
3.46978E-07 9.04757E-14
3.73156E-07 8.42803E-14
4.00286E-07 7.86354E-14
4.28368E-07 7.34787E-14
4.57402E-07 6.87561E-14
4.87388E-07 6.44206E-14
5.18325E-07 6.04310E-14
5.50215E-07 5.67515E-14
5.83057E-07 5.33508E-14
6.16850E-07 5.02016E-14
6.51596E-07 4.72798E-14
6.87293E-07 4.45644E-14
7.23942E-07 4.20366E-14
7.61543E-07 3.96801E-14
1.18991E-06 2.29687E-14
1.71347E-06 1.38460E-14
2.33223E-06 8.63286E-15
3.04617E-06 5.56680E-15
3.85531E-06 3.71541E-15
4.75964E-06 2.56567E-15
5.75916E-06 1.82986E-15
6.85388E-06 1.34405E-15
8.04378E-06 1.01326E-15
9.32888E-06 7.81265E-16
1.07092E-05 6.14059E-16
1.21846E-05 4.90543E-16
1.37553E-05 3.97293E-16
1.54212E-05 3.25546E-16
1.71822E-05 2.69434E-16
1.90385E-05 2.24932E-16
2.09899E-05 1.89211E-16
2.30365E-05 1.60241E-16
2.51783E-05 1.36534E-16
2.74153E-05 1.16981E-16
2.97475E-05 1.00741E-16
3.21749E-05 8.71697E-17
3.46974E-05 7.57631E-17
3.73152E-05 6.61263E-17
4.00281E-05 5.79453E-17
4.28362E-05 5.09688E-17
4.57395E-05 4.49941E-17
4.87380E-05 3.98567E-17
5.18317E-05 3.54223E-17
5.50205E-05 3.15805E-17
5.83045E-05 2.82405E-17
6.16838E-05 2.53269E-17
6.51582E-05 2.27769E-17
6.87277E-05 2.05381E-17
7.23925E-05 1.85666E-17
7.61524E-05 1.68254E-17
9.21439E-05 1.16056E-17
1.09658E-04 8.26434E-18
1.28695E-04 6.04690E-18
1.49255E-04 4.52845E-18
1.71338E-04 3.45995E-18
1.94942E-04 2.69001E-18
2.20070E-04 2.12355E-18
2.46720E-04 1.69910E-18
2.74892E-04 1.37584E-18
3.04586E-04 1.12608E-18
3.35803E-04 9.30581E-19
3.68542E-04 7.75765E-19
4.02802E-04 6.51862E-19
4.38585E-04 5.51741E-19
4.75889E-04 4.70124E-19
5.14715E-04 4.03051E-19
5.55063E-04 3.47518E-19
5.96931E-04 3.01223E-19
6.40321E-04 2.62382E-19
6.85233E-04 2.29600E-19
7.31665E-04 2.01778E-19
7.79618E-04 1.78042E-19
8.29092E-04 1.57694E-19
8.80086E-04 1.40170E-19
9.32601E-04 1.25012E-19
9.86636E-04 1.11849E-19
1.04219E-03 1.00372E-19
1.09927E-03 9.03301E-20
1.15786E-03 8.15128E-20
1.21797E-03 7.37455E-20
1.27961E-03 6.68817E-20
1.34276E-03 6.07982E-20
1.40743E-03 5.53911E-20
1.47362E-03 5.05721E-20
1.54133E-03 4.62662E-20
1.61056E-03 4.24091E-20
1.68131E-03 3.89460E-20
1.75357E-03 3.58294E-20
1.82735E-03 3.30187E-20
1.90265E-03 3.04786E-20
1.97947E-03 2.81783E-20
2.05780E-03 2.60911E-20
2.13765E-03 2.41939E-20
2.21902E-03 2.24663E-20
2.30190E-03 2.08903E-20
2.38630E-03 1.94503E-20
2.47222E-03 1.81325E-20
2.55965E-03 1.69245E-20
2.64859E-03 1.58157E-20
2.73905E-03 1.47963E-20
2.83103E-03 1.38579E-20
2.92452E-03 1.29928E-20
3.01952E-03 1.21943E-20
3.11604E-03 1.14564E-20
3.21407E-03 1.07735E-20
3.31362E-03 1.01409E-20
3.41468E-03 9.55413E-21
3.51725E-03 9.00928E-21
3.62133E-03 8.50280E-21
3.72692E-03 8.03150E-21
3.83403E-03 7.59248E-21
3.94265E-03 7.18312E-21
4.05278E-03 6.80104E-21
4.16442E-03 6.44410E-21
4.27757E-03 6.11033E-21
4.39223E-03 5.79794E-21
4.50840E-03 5.50532E-21
4.62608E-03 5.23097E-21
4.74527E-03 4.97355E-21
4.86597E-03 4.73181E-21
4.98817E-03 4.50463E-21
5.11188E-03 4.29095E-21
5.23711E-03 4.08983E-21
5.36383E-03 3.90039E-21
5.49207E-03 3.72183E-21
5.62181E-03 3.55339E-21
5.75306E-03 3.39441E-21
5.88581E-03 3.24425E-21
6.02007E-03 3.10232E-21
6.15583E-03 2.96810E-21
6.29310E-03 2.84108E-21
6.43187E-03 2.72080E-21
6.57214E-03 2.60684E-21
6.71392E-03 2.49881E-21
6.85720E-03 2.39633E-21
7.00198E-03 2.29907E-21
7.14827E-03 2.20671E-21
7.29605E-03 2.11896E-21
7.44534E-03 2.03554E-21
7.59612E-03 1.95621E-21
7.97965E-03 1.77418E-21
8.37255E-03 1.61292E-21
8.77480E-03 1.46963E-21
9.18641E-03 1.34195E-21
9.60736E-03 1.22790E-21
1.00376E-02 1.12575E-21
1.04773E-02 1.03404E-21
1.09262E-02 9.51517E-22
1.13844E-02 8.77095E-22
1.18520E-02 8.09836E-22
1.23288E-02 7.48926E-22
1.28150E-02 6.93659E-22
1.33104E-02 6.43417E-22
1.38150E-02 5.97660E-22
1.43290E-02 5.55915E-22
1.48521E-02 5.17766E-22
1.53845E-02 4.82848E-22
1.59262E-02 4.50836E-22
1.64770E-02 4.21444E-22
1.70371E-02 3.94419E-22
1.76063E-02 3.69535E-22
1.81848E-02 3.46591E-22
1.87724E-02 3.25407E-22
1.93692E-02 3.05824E-22
1.99751E-02 2.87699E-22
2.05901E-02 2.70902E-22
2.12143E-02 2.55319E-22
2.18476E-02 2.40845E-22
2.24900E-02 2.27386E-22
2.31415E-02 2.14859E-22
2.38021E-02 2.03186E-22
2.44717E-02 1.92299E-22
2.51504E-02 1.82134E-22
2.58382E-02 1.72635E-22
2.65349E-02 1.63749E-22
2.72407E-02 1.55431E-22
2.79555E-02 1.47636E-22
2.86793E-02 1.40326E-22
2.94120E-02 1.33465E-22
3.01537E-02 1.27019E-22
3.09043E-02 1.20960E-22
3.16639E-02 1.15259E-22
3.24324E-02 1.09892E-22
3.32098E-02 1.04834E-22
3.39961E-02 1.00066E-22
3.47912E-02 9.55663E-23
3.55952E-02 9.13178E-23
3.64081E-02 8.73038E-23
3.72297E-02 8.35088E-23
3.80602E-02 7.99186E-23
3.88995E-02 7.65200E-23
3.97476E-02 7.33007E-23
4.06044E-02 7.02497E-23
4.14700E-02 6.73563E-23
4.23443E-02 6.46109E-23
4.32273E-02 6.20044E-23
4.41190E-02 5.95285E-23
4.50194E-02 5.71754E-23
4.59284E-02 5.49377E-23
4.68461E-02 5.28089E-23
4.87074E-02 4.88527E-23
5.06030E-02 4.52612E-23
5.25328E-02 4.19946E-23
5.44967E-02 3.90183E-23
5.64946E-02 3.63016E-23
5.85262E-02 3.38179E-23
6.05914E-02 3.15434E-23
6.26901E-02 2.94574E-23
6.48222E-02 2.75413E-23
6.69873E-02 2.57787E-23
6.91854E-02 2.41550E-23
7.14163E-02 2.26574E-23
7.36799E-02 2.12741E-23
7.59760E-02 1.99948E-23
7.83043E-02 1.88104E-23
8.06647E-02 1.77123E-23
8.30571E-02 1.66933E-23
8.54812E-02 1.57464E-23
8.79369E-02 1.48657E-23
9.04240E-02 1.40456E-23
9.29422E-02 1.32813E-23
9.54915E-02 1.25681E-23
9.80716E-02 1.19021E-23
1.00682E-01 1.12795E-23
1.03323E-01 1.06970E-23
1.05995E-01 1.01516E-23
1.08696E-01 9.64029E-24
1.11427E-01 9.16069E-24
1.14188E-01 8.71043E-24
1.16978E-01 8.28738E-24
1.19797E-01 7.88958E-24
1.22645E-01 7.51523E-24
1.25522E-01 7.16271E-24
1.28428E-01 6.83049E-24
1.31361E-01 6.51718E-24
1.34323E-01 6.22151E-24
1.37313E-01 5.94230E-24
1.40330E-01 5.67845E-24
1.43375E-01 5.42897E-24
1.46447E-01 5.19291E-24
1.49545E-01 4.96943E-24
1.52671E-01 4.75773E-24
1.55823E-01 4.55706E-24
1.59001E-01 4.36675E-24
1.62205E-01 4.18616E-24
1.65435E-01 4.01470E-24
1.68690E-01 3.85182E-24
1.71970E-01 3.69700E-24
1.75276E-01 3.54979E-24
1.78606E-01 3.40972E-24
1.81961E-01 3.27640E-24
1.85340E-01 3.14943E-24
1.88743E-01 3.02845E-24
1.92169E-01 2.91313E-24
1.95619E-01 2.80315E-24
1.99092E-01 2.69822E-24
2.02589E-01 2.59806E-24
2.06107E-01 2.50242E-24
2.09649E-01 2.41105E-24
2.13212E-01 2.32373E-24
2.16797E-01 2.24024E-24
2.20404E-01 2.16039E-24
2.24032E-01 2.08398E-24
2.27680E-01 2.01084E-24
2.31350E-01 1.94080E-24
2.35040E-01 1.87371E-24
2.38751E-01 1.80942E-24
2.42481E-01 1.74779E-24
2.46231E-01 1.68869E-24
2.50000E-01 1.63200E-24
2.53788E-01 1.57760E-24
2.57595E-01 1.52538E-24
2.61421E-01 1.47523E-24
2.65264E-01 1.42706E-24
2.69126E-01 1.38078E-24
2.73005E-01 1.33630E-24
2.76901E-01 1.29353E-24
2.80814E-01 1.25240E-24
2.84744E-01 1.21284E-24
2.88691E-01 1.17476E-24
2.92653E-01 1.13811E-24
2.96632E-01 1.10283E-24
3.00625E-01 1.06884E-24
3.04634E-01 1.03611E-24
3.08658E-01 1.00456E-24
3.12697E-01 9.74150E-25
3.16749E-01 9.44834E-25
3.20816E-01 9.16563E-25
3.24896E-01 8.89292E-25
3.28990E-01 8.62980E-25
3.33097E-01 8.37587E-25
3.37216E-01 8.13075E-25
3.41348E-01 7.89407E-25
3.45492E-01 7.66550E-25
3.49647E-01 7.44471E-25
3.53814E-01 7.23137E-25
3.57992E-01 7.02520E-25
3.62181E-01 6.82591E-25
3.66381E-01 6.63323E-25
3.70590E-01 6.44690E-25
3.74810E-01 6.26667E-25
3.79039E-01 6.09231E-25
3.83277E-01 5.92358E-25
3.87524E-01 5.76029E-25
3.91780E-01 5.60221E-25
3.96044E-01 5.44916E-25
4.00316E-01 5.30094E-25
4.04596E-01 5.15737E-25
4.08882E-01 5.01829E-25
4.13176E-01 4.88352E-25
4.17476E-01 4.75291E-25
4.21783E-01 4.62631E-25
4.26095E-01 4.50358E-25
4.30413E-01 4.38457E-25
4.34737E-01 4.26915E-25
4.39065E-01 4.15719E-25
4.43398E-01 4.04858E-25
4.47736E-01 3.94319E-25
4.52077E-01 3.84091E-25
4.56422E-01 3.74164E-25
4.60770E-01 3.64527E-25
4.65122E-01 3.55169E-25
4.69476E-01 3.46083E-25
4.73832E-01 3.37257E-25
4.78190E-01 3.28684E-25
4.82550E-01 3.20356E-25
4.86912E-01 3.12263E-25
4.91274E-01 3.04398E-25
4.95637E-01 2.96754E-25
5.00000E-01 2.89323E-25
5.04363E-01 2.82098E-25
5.08726E-01 2.75073E-25
5.13088E-01 2.68241E-25
5.17450E-01 2.61597E-25
5.21810E-01 2.55133E-25
5.26168E-01 2.48844E-25
5.30524E-01 2.42726E-25
5.34878E-01 2.36771E-25
5.39230E-01 2.30976E-25
5.43578E-01 2.25335E-25
5.47923E-01 2.19843E-25
5.52264E-01 2.14497E-25
5.56602E-01 2.09290E-25
5.60935E-01 2.04220E-25
5.65263E-01 1.99282E-25
5.69587E-01 1.94472E-25
5.73905E-01 1.89786E-25
5.78217E-01 1.85220E-25
5.82524E-01 1.80772E-25
5.86824E-01 1.76436E-25
5.91118E-01 1.72211E-25
5.95404E-01 1.68092E-25
5.99684E-01 1.64077E-25
6.03956E-01 1.60163E-25
6.08220E-01 1.56347E-25
6.12476E-01 1.52625E-25
6.16723E-01 1.48996E-25
6.20961E-01 1.45456E-25
6.25190E-01 1.42003E-25
6.29410E-01 1.38635E-25
6.33619E-01 1.35349E-25
6.37819E-01 1.32143E-25
6.42008E-01 1.29014E-25
6.46186E-01 1.25962E-25
6.50353E-01 1.22982E-25
6.54508E-01 1.20074E-25
6.58652E-01 1.17235E-25
6.62784E-01 1.14464E-25
6.66903E-01 1.11758E-25
6.71010E-01 1.09117E-25
6.75104E-01 1.06538E-25
6.79184E-01 1.04019E-25
6.83251E-01 1.01559E-25
6.87303E-01 9.91565E-26
6.91342E-01 9.68100E-26
6.95366E-01 9.45178E-26
6.99375E-01 9.22785E-26
7.03368E-01 9.00909E-26
7.07347E-01 8.79535E-26
7.11309E-01 8.58651E-26
7.15256E-01 8.38243E-26
7.19186E-01 8.18300E-26
7.23099E-01 7.98810E-26
7.26995E-01 7.79762E-26
7.30874E-01 7.61144E-26
7.34736E-01 7.42945E-26
7.38579E-01 7.25155E-26
7.42405E-01 7.07763E-26
7.46212E-01 6.90761E-26
7.50000E-01 6.74138E-26
7.53769E-01 6.57885E-26
7.57519E-01 6.41992E-26
7.61249E-01 6.26452E-26
7.64960E-01 6.11255E-26
7.68650E-01 5.96393E-26
7.72320E-01 5.81859E-26
7.75968E-01 5.67643E-26
7.79596E-01 5.53740E-26
7.83203E-01 5.40141E-26
7.86788E-01 5.26839E-26
7.90351E-01 5.13827E-26
7.93893E-01 5.01098E-26
7.97411E-01 4.88647E-26
8.00908E-01 4.76465E-26
8.04381E-01 4.64548E-26
8.07831E-01 4.52889E-26
8.11257E-01 4.41482E-26
8.14660E-01 4.30322E-26
8.18039E-01 4.19402E-26
8.21394E-01 4.08718E-26
8.24724E-01 3.98265E-26
8.28030E-01 3.88036E-26
8.31310E-01 3.78027E-26
8.34565E-01 3.68234E-26
8.37795E-01 3.58651E-26
8.40999E-01 3.49274E-26
8.44177E-01 3.40098E-26
8.47329E-01 3.31120E-26
8.50455E-01 3.22334E-26
8.53553E-01 3.13737E-26
8.56625E-01 3.05325E-26
8.59670E-01 2.97094E-26
8.62687E-01 2.89040E-26
8.65677E-01 2.81159E-26
8.68639E-01 2.73448E-26
8.71572E-01 2.65903E-26
8.74478E-01 2.58521E-26
8.77355E-01 2.51299E-26
8.80203E-01 2.44232E-26
8.83022E-01 2.37319E-26
8.85812E-01 2.30556E-26
8.88573E-01 2.23941E-26
8.91304E-01 2.17469E-26
8.94005E-01 2.11139E-26
8.96677E-01 2.04947E-26
8.99318E-01 1.98892E-26
9.01928E-01 1.92970E-26
9.04508E-01 1.87178E-26
9.07058E-01 1.81515E-26
9.09576E-01 1.75978E-26
9.12063E-01 1.70564E-26
9.14519E-01 1.65272E-26
9.16943E-01 1.60099E-26
9.19335E-01 1.55043E-26
9.21696E-01 1.50102E-26
9.24024E-01 1.45273E-26
9.26320E-01 1.40556E-26
9.28584E-01 1.35947E-26
9.30815E-01 1.31445E-26
9.33013E-01 1.27049E-26
9.35178E-01 1.22755E-26
9.37310E-01 1.18564E-26
9.39409E-01 1.14472E-26
9.41474E-01 1.10479E-26
9.43505E-01 1.06582E-26
9.45503E-01 1.02781E-26
9.47467E-01 9.90727E-27
9.49397E-01 9.54571E-27
9.51293E-01 9.19322E-27
9.53154E-01 8.84967E-27
9.54981E-01 8.51492E-27
9.56773E-01 8.18884E-27
9.58530E-01 7.87131E-27
9.60252E-01 7.56220E-27
9.61940E-01 7.26139E-27
9.63592E-01 6.96877E-27
9.65209E-01 6.68422E-27
9.66790E-01 6.40764E-27
9.68336E-01 6.13891E-27
9.69846E-01 5.87794E-27
9.71321E-01 5.62463E-27
9.72759E-01 5.37888E-27
9.74162E-01 5.14060E-27
9.75528E-01 4.90969E-27
9.76858E-01 4.68608E-27
9.78152E-01 4.46967E-27
9.79410E-01 4.26038E-27
9.80631E-01 4.05815E-27
9.81815E-01 3.86289E-27
9.82963E-01 3.67452E-27
9.84074E-01 3.49299E-27
9.85148E-01 3.31821E-27
9.86185E-01 3.15014E-27
9.87185E-01 2.98869E-27
9.88148E-01 2.83383E-27
9.89074E-01 2.68548E-27
9.89962E-01 2.54360E-27
9.90814E-01 2.40812E-27
9.91627E-01 2.27901E-27
9.92404E-01 2.15622E-27
9.93143E-01 2.03969E-27
9.93844E-01 1.92939E-27
9.94508E-01 1.82528E-27
9.95134E-01 1.72732E-27
9.95722E-01 1.63547E-27
9.96273E-01 1.54970E-27
9.96786E-01 1.46999E-27
9.97261E-01 1.39629E-27
9.97698E-01 1.32858E-27
9.98097E-01 1.26685E-27
9.98459E-01 1.21106E-27
9.98782E-01 1.16119E-27
9.99067E-01 1.11724E-27
9.99315E-01 1.07918E-27
9.99524E-01 1.04699E-27
9.99695E-01 1.02068E-27
9.99829E-01 1.00022E-27
9.99924E-01 9.85613E-28
9.99981E-01 9.76850E-28
1.00000E+00 9.73933E-28
