 #
 # Subroutine ELSEPA. Elastic scattering of electrons and positrons
 #                    by neutral atoms and positive ions
 #
 # Projectile: electron
 # Kinetic energy = 2.50000E+07 eV = 9.18733E+05 a.u.
 #
 # WARNING: High-energy factorization with free-atom DF screening.
 #          Absorption, polarization and exchange corrections are
 #          switched off.
 #          Phase shifts are calculated for the bare nucleus.
 #          Scattering amplitudes are not evaluated.
 #
 # Element: Mn,  Z =  25,  atomic weight = 5.49380E+01 g/mol
 #
 # Nuclear model: Fermi distribution
 #                Average radius = 4.06763E-13 cm
 #                Skin thickness = 5.46000E-14 cm
 #
 # Number of electrons = 25
 #
 # Total elastic cross section = 1.95211E-18 cm**2 = 6.97110E-02 a0**2
 # 1st transport cross section = 1.85261E-24 cm**2 = 6.61580E-08 a0**2
 # 2nd transport cross section = 5.35435E-24 cm**2 = 1.91207E-07 a0**2
 #
 #
 # Differential cross section:                       MU=(1-COS(THETA))/2
 #
 #  THETA        MU          DCS          DCS        Sherman      error
 #  (deg)                 (cm**2/sr)   (a0**2/sr)    function
 #----------------------------------------------------------------------
0.00000E+00 1.39162E-11
7.61557E-13 1.39133E-11
1.18994E-12 1.39117E-11
1.71346E-12 1.39097E-11
2.33225E-12 1.39073E-11
3.04617E-12 1.39046E-11
3.85530E-12 1.39015E-11
4.75964E-12 1.38980E-11
5.75917E-12 1.38942E-11
6.85391E-12 1.38900E-11
8.04379E-12 1.38855E-11
9.32893E-12 1.38806E-11
1.07092E-11 1.38754E-11
1.21847E-11 1.38698E-11
1.37554E-11 1.38638E-11
1.54213E-11 1.38575E-11
1.71823E-11 1.38508E-11
1.90386E-11 1.38437E-11
2.09900E-11 1.38363E-11
2.30367E-11 1.38286E-11
2.51785E-11 1.38205E-11
2.74156E-11 1.38121E-11
2.97478E-11 1.38032E-11
3.21752E-11 1.37941E-11
3.46979E-11 1.37846E-11
3.73157E-11 1.37748E-11
4.00286E-11 1.37646E-11
4.28368E-11 1.37540E-11
4.57402E-11 1.37431E-11
4.87388E-11 1.37319E-11
5.18325E-11 1.37204E-11
5.50215E-11 1.37085E-11
5.83057E-11 1.36962E-11
6.16850E-11 1.36836E-11
6.51595E-11 1.36707E-11
6.87293E-11 1.36575E-11
7.23943E-11 1.36439E-11
7.61544E-11 1.36300E-11
1.18991E-10 1.34731E-11
1.71347E-10 1.32853E-11
2.33223E-10 1.30686E-11
3.04617E-10 1.28256E-11
3.85531E-10 1.25582E-11
4.75965E-10 1.22701E-11
5.75917E-10 1.19646E-11
6.85389E-10 1.16428E-11
8.04380E-10 1.13102E-11
9.32891E-10 1.09660E-11
1.07092E-09 1.06173E-11
1.21847E-09 1.02618E-11
1.37554E-09 9.90643E-12
1.54213E-09 9.54967E-12
1.71823E-09 9.19639E-12
1.90386E-09 8.84624E-12
2.09900E-09 8.50205E-12
2.30367E-09 8.16461E-12
2.51785E-09 7.83487E-12
2.74156E-09 7.51453E-12
2.97478E-09 7.20298E-12
3.21752E-09 6.90258E-12
3.46978E-09 6.61158E-12
3.73156E-09 6.33268E-12
4.00286E-09 6.06336E-12
4.28368E-09 5.80623E-12
4.57402E-09 5.55909E-12
4.87388E-09 5.32350E-12
5.18326E-09 5.09803E-12
5.50215E-09 4.88327E-12
5.83057E-09 4.67841E-12
6.16850E-09 4.48336E-12
6.51596E-09 4.29777E-12
6.87293E-09 4.12107E-12
7.23942E-09 3.95327E-12
7.61544E-09 3.79343E-12
1.18991E-08 2.57153E-12
1.71347E-08 1.81958E-12
2.33223E-08 1.33305E-12
3.04617E-08 1.00160E-12
3.85531E-08 7.59230E-13
4.75965E-08 5.85503E-13
5.75917E-08 4.61704E-13
6.85389E-08 3.61865E-13
8.04380E-08 2.90068E-13
9.32891E-08 2.30688E-13
1.07092E-07 1.87093E-13
1.21847E-07 1.51298E-13
1.37554E-07 1.24076E-13
1.54213E-07 1.02115E-13
1.71823E-07 8.48417E-14
1.90386E-07 7.09501E-14
2.09900E-07 5.97724E-14
2.30367E-07 5.07240E-14
2.51785E-07 4.33211E-14
2.74156E-07 3.72587E-14
2.97478E-07 3.22293E-14
3.21752E-07 2.80561E-14
3.46978E-07 2.45479E-14
3.73156E-07 2.16002E-14
4.00286E-07 1.90889E-14
4.28368E-07 1.69538E-14
4.57402E-07 1.51137E-14
4.87388E-07 1.35308E-14
5.18325E-07 1.21532E-14
5.50215E-07 1.09548E-14
5.83057E-07 9.90328E-15
6.16850E-07 8.97873E-15
6.51596E-07 8.16230E-15
6.87293E-07 7.43708E-15
7.23942E-07 6.79360E-15
7.61543E-07 6.21651E-15
1.18991E-06 2.81075E-15
1.71347E-06 1.43466E-15
2.33223E-06 7.98896E-16
3.04617E-06 4.77119E-16
3.85531E-06 3.01574E-16
4.75964E-06 1.99894E-16
5.75916E-06 1.37751E-16
6.85388E-06 9.80587E-17
8.04378E-06 7.17290E-17
9.32888E-06 5.36999E-17
1.07092E-05 4.10118E-17
1.21846E-05 3.18680E-17
1.37553E-05 2.51404E-17
1.54212E-05 2.01000E-17
1.71822E-05 1.62618E-17
1.90385E-05 1.32966E-17
2.09899E-05 1.09786E-17
2.30365E-05 9.14381E-18
2.51783E-05 7.67612E-18
2.74153E-05 6.49085E-18
2.97475E-05 5.52529E-18
3.21749E-05 4.73242E-18
3.46974E-05 4.07668E-18
3.73152E-05 3.53061E-18
4.00281E-05 3.07291E-18
4.28362E-05 2.68696E-18
4.57395E-05 2.35964E-18
4.87380E-05 2.08056E-18
5.18317E-05 1.84147E-18
5.50205E-05 1.63570E-18
5.83045E-05 1.45784E-18
6.16838E-05 1.30349E-18
6.51582E-05 1.16903E-18
6.87277E-05 1.05145E-18
7.23925E-05 9.48278E-19
7.61524E-05 8.57451E-19
9.21439E-05 5.86790E-19
1.09658E-04 4.14937E-19
1.28695E-04 3.01631E-19
1.49255E-04 2.24483E-19
1.71338E-04 1.70500E-19
1.94942E-04 1.31812E-19
2.20070E-04 1.03504E-19
2.46720E-04 8.24052E-20
2.74892E-04 6.64206E-20
3.04586E-04 5.41327E-20
3.35803E-04 4.45606E-20
3.68542E-04 3.70151E-20
4.02802E-04 3.10023E-20
4.38585E-04 2.61630E-20
4.75889E-04 2.22330E-20
5.14715E-04 1.90145E-20
5.55063E-04 1.63584E-20
5.96931E-04 1.41507E-20
6.40321E-04 1.23035E-20
6.85233E-04 1.07485E-20
7.31665E-04 9.43176E-21
7.79618E-04 8.31088E-21
8.29092E-04 7.35184E-21
8.80086E-04 6.52740E-21
9.32601E-04 5.81549E-21
9.86636E-04 5.19816E-21
1.04219E-03 4.66073E-21
1.09927E-03 4.19108E-21
1.15786E-03 3.77921E-21
1.21797E-03 3.41678E-21
1.27961E-03 3.09684E-21
1.34276E-03 2.81354E-21
1.40743E-03 2.56196E-21
1.47362E-03 2.33792E-21
1.54133E-03 2.13788E-21
1.61056E-03 1.95883E-21
1.68131E-03 1.79816E-21
1.75357E-03 1.65367E-21
1.82735E-03 1.52342E-21
1.90265E-03 1.40577E-21
1.97947E-03 1.29928E-21
2.05780E-03 1.20271E-21
2.13765E-03 1.11496E-21
2.21902E-03 1.03508E-21
2.30190E-03 9.62249E-22
2.38630E-03 8.95722E-22
2.47222E-03 8.34857E-22
2.55965E-03 7.79085E-22
2.64859E-03 7.27903E-22
2.73905E-03 6.80865E-22
2.83103E-03 6.37574E-22
2.92452E-03 5.97676E-22
3.01952E-03 5.60858E-22
3.11604E-03 5.26838E-22
3.21407E-03 4.95364E-22
3.31362E-03 4.66211E-22
3.41468E-03 4.39177E-22
3.51725E-03 4.14078E-22
3.62133E-03 3.90751E-22
3.72692E-03 3.69047E-22
3.83403E-03 3.48833E-22
3.94265E-03 3.29988E-22
4.05278E-03 3.12401E-22
4.16442E-03 2.95973E-22
4.27757E-03 2.80614E-22
4.39223E-03 2.66240E-22
4.50840E-03 2.52777E-22
4.62608E-03 2.40157E-22
4.74527E-03 2.28317E-22
4.86597E-03 2.17199E-22
4.98817E-03 2.06751E-22
5.11188E-03 1.96926E-22
5.23711E-03 1.87679E-22
5.36383E-03 1.78969E-22
5.49207E-03 1.70761E-22
5.62181E-03 1.63019E-22
5.75306E-03 1.55712E-22
5.88581E-03 1.48810E-22
6.02007E-03 1.42288E-22
6.15583E-03 1.36120E-22
6.29310E-03 1.30284E-22
6.43187E-03 1.24758E-22
6.57214E-03 1.19523E-22
6.71392E-03 1.14560E-22
6.85720E-03 1.09853E-22
7.00198E-03 1.05386E-22
7.14827E-03 1.01144E-22
7.29605E-03 9.71138E-23
7.44534E-03 9.32830E-23
7.59612E-03 8.96398E-23
7.97965E-03 8.12824E-23
8.37255E-03 7.38790E-23
8.77480E-03 6.73018E-23
9.18641E-03 6.14423E-23
9.60736E-03 5.62084E-23
1.00376E-02 5.15215E-23
1.04773E-02 4.73143E-23
1.09262E-02 4.35289E-23
1.13844E-02 4.01156E-23
1.18520E-02 3.70312E-23
1.23288E-02 3.42384E-23
1.28150E-02 3.17046E-23
1.33104E-02 2.94014E-23
1.38150E-02 2.73041E-23
1.43290E-02 2.53910E-23
1.48521E-02 2.36429E-23
1.53845E-02 2.20430E-23
1.59262E-02 2.05765E-23
1.64770E-02 1.92302E-23
1.70371E-02 1.79924E-23
1.76063E-02 1.68529E-23
1.81848E-02 1.58023E-23
1.87724E-02 1.48325E-23
1.93692E-02 1.39361E-23
1.99751E-02 1.31066E-23
2.05901E-02 1.23379E-23
2.12143E-02 1.16249E-23
2.18476E-02 1.09627E-23
2.24900E-02 1.03471E-23
2.31415E-02 9.77414E-24
2.38021E-02 9.24036E-24
2.44717E-02 8.74257E-24
2.51504E-02 8.27789E-24
2.58382E-02 7.84371E-24
2.65349E-02 7.43766E-24
2.72407E-02 7.05756E-24
2.79555E-02 6.70145E-24
2.86793E-02 6.36754E-24
2.94120E-02 6.05418E-24
3.01537E-02 5.75987E-24
3.09043E-02 5.48323E-24
3.16639E-02 5.22300E-24
3.24324E-02 4.97803E-24
3.32098E-02 4.74725E-24
3.39961E-02 4.52969E-24
3.47912E-02 4.32445E-24
3.55952E-02 4.13069E-24
3.64081E-02 3.94766E-24
3.72297E-02 3.77465E-24
3.80602E-02 3.61100E-24
3.88995E-02 3.45612E-24
3.97476E-02 3.30944E-24
4.06044E-02 3.17045E-24
4.14700E-02 3.03867E-24
4.23443E-02 2.91365E-24
4.32273E-02 2.79498E-24
4.41190E-02 2.68229E-24
4.50194E-02 2.57520E-24
4.59284E-02 2.47339E-24
4.68461E-02 2.37655E-24
4.87074E-02 2.19664E-24
5.06030E-02 2.03339E-24
5.25328E-02 1.88498E-24
5.44967E-02 1.74981E-24
5.64946E-02 1.62650E-24
5.85262E-02 1.51381E-24
6.05914E-02 1.41067E-24
6.26901E-02 1.31611E-24
6.48222E-02 1.22931E-24
6.69873E-02 1.14950E-24
6.91854E-02 1.07602E-24
7.14163E-02 1.00827E-24
7.36799E-02 9.45740E-25
7.59760E-02 8.87941E-25
7.83043E-02 8.34453E-25
8.06647E-02 7.84898E-25
8.30571E-02 7.38932E-25
8.54812E-02 6.96249E-25
8.79369E-02 6.56571E-25
9.04240E-02 6.19649E-25
9.29422E-02 5.85256E-25
9.54915E-02 5.53188E-25
9.80716E-02 5.23259E-25
1.00682E-01 4.95300E-25
1.03323E-01 4.69158E-25
1.05995E-01 4.44693E-25
1.08696E-01 4.21779E-25
1.11427E-01 4.00298E-25
1.14188E-01 3.80146E-25
1.16978E-01 3.61225E-25
1.19797E-01 3.43446E-25
1.22645E-01 3.26728E-25
1.25522E-01 3.10996E-25
1.28428E-01 2.96181E-25
1.31361E-01 2.82220E-25
1.34323E-01 2.69055E-25
1.37313E-01 2.56633E-25
1.40330E-01 2.44903E-25
1.43375E-01 2.33821E-25
1.46447E-01 2.23344E-25
1.49545E-01 2.13433E-25
1.52671E-01 2.04052E-25
1.55823E-01 1.95168E-25
1.59001E-01 1.86749E-25
1.62205E-01 1.78767E-25
1.65435E-01 1.71195E-25
1.68690E-01 1.64009E-25
1.71970E-01 1.57184E-25
1.75276E-01 1.50701E-25
1.78606E-01 1.44538E-25
1.81961E-01 1.38676E-25
1.85340E-01 1.33100E-25
1.88743E-01 1.27791E-25
1.92169E-01 1.22736E-25
1.95619E-01 1.17919E-25
1.99092E-01 1.13328E-25
2.02589E-01 1.08950E-25
2.06107E-01 1.04774E-25
2.09649E-01 1.00788E-25
2.13212E-01 9.69825E-26
2.16797E-01 9.33478E-26
2.20404E-01 8.98749E-26
2.24032E-01 8.65554E-26
2.27680E-01 8.33812E-26
2.31350E-01 8.03449E-26
2.35040E-01 7.74395E-26
2.38751E-01 7.46583E-26
2.42481E-01 7.19951E-26
2.46231E-01 6.94440E-26
2.50000E-01 6.69996E-26
2.53788E-01 6.46566E-26
2.57595E-01 6.24100E-26
2.61421E-01 6.02552E-26
2.65264E-01 5.81878E-26
2.69126E-01 5.62037E-26
2.73005E-01 5.42990E-26
2.76901E-01 5.24698E-26
2.80814E-01 5.07128E-26
2.84744E-01 4.90246E-26
2.88691E-01 4.74020E-26
2.92653E-01 4.58421E-26
2.96632E-01 4.43421E-26
3.00625E-01 4.28992E-26
3.04634E-01 4.15109E-26
3.08658E-01 4.01749E-26
3.12697E-01 3.88887E-26
3.16749E-01 3.76503E-26
3.20816E-01 3.64576E-26
3.24896E-01 3.53086E-26
3.28990E-01 3.42015E-26
3.33097E-01 3.31344E-26
3.37216E-01 3.21057E-26
3.41348E-01 3.11139E-26
3.45492E-01 3.01572E-26
3.49647E-01 2.92344E-26
3.53814E-01 2.83440E-26
3.57992E-01 2.74847E-26
3.62181E-01 2.66552E-26
3.66381E-01 2.58544E-26
3.70590E-01 2.50810E-26
3.74810E-01 2.43340E-26
3.79039E-01 2.36124E-26
3.83277E-01 2.29152E-26
3.87524E-01 2.22413E-26
3.91780E-01 2.15900E-26
3.96044E-01 2.09602E-26
4.00316E-01 2.03513E-26
4.04596E-01 1.97624E-26
4.08882E-01 1.91927E-26
4.13176E-01 1.86415E-26
4.17476E-01 1.81082E-26
4.21783E-01 1.75920E-26
4.26095E-01 1.70923E-26
4.30413E-01 1.66086E-26
4.34737E-01 1.61402E-26
4.39065E-01 1.56865E-26
4.43398E-01 1.52471E-26
4.47736E-01 1.48214E-26
4.52077E-01 1.44090E-26
4.56422E-01 1.40093E-26
4.60770E-01 1.36219E-26
4.65122E-01 1.32464E-26
4.69476E-01 1.28823E-26
4.73832E-01 1.25293E-26
4.78190E-01 1.21870E-26
4.82550E-01 1.18550E-26
4.86912E-01 1.15329E-26
4.91274E-01 1.12204E-26
4.95637E-01 1.09172E-26
5.00000E-01 1.06229E-26
5.04363E-01 1.03373E-26
5.08726E-01 1.00601E-26
5.13088E-01 9.79098E-27
5.17450E-01 9.52967E-27
5.21810E-01 9.27592E-27
5.26168E-01 9.02949E-27
5.30524E-01 8.79012E-27
5.34878E-01 8.55760E-27
5.39230E-01 8.33170E-27
5.43578E-01 8.11221E-27
5.47923E-01 7.89892E-27
5.52264E-01 7.69162E-27
5.56602E-01 7.49014E-27
5.60935E-01 7.29428E-27
5.65263E-01 7.10386E-27
5.69587E-01 6.91873E-27
5.73905E-01 6.73870E-27
5.78217E-01 6.56363E-27
5.82524E-01 6.39335E-27
5.86824E-01 6.22772E-27
5.91118E-01 6.06660E-27
5.95404E-01 5.90984E-27
5.99684E-01 5.75732E-27
6.03956E-01 5.60891E-27
6.08220E-01 5.46447E-27
6.12476E-01 5.32390E-27
6.16723E-01 5.18707E-27
6.20961E-01 5.05388E-27
6.25190E-01 4.92421E-27
6.29410E-01 4.79796E-27
6.33619E-01 4.67504E-27
6.37819E-01 4.55533E-27
6.42008E-01 4.43875E-27
6.46186E-01 4.32521E-27
6.50353E-01 4.21461E-27
6.54508E-01 4.10688E-27
6.58652E-01 4.00193E-27
6.62784E-01 3.89968E-27
6.66903E-01 3.80005E-27
6.71010E-01 3.70297E-27
6.75104E-01 3.60837E-27
6.79184E-01 3.51617E-27
6.83251E-01 3.42631E-27
6.87303E-01 3.33872E-27
6.91342E-01 3.25334E-27
6.95366E-01 3.17011E-27
6.99375E-01 3.08897E-27
7.03368E-01 3.00985E-27
7.07347E-01 2.93271E-27
7.11309E-01 2.85749E-27
7.15256E-01 2.78414E-27
7.19186E-01 2.71261E-27
7.23099E-01 2.64284E-27
7.26995E-01 2.57479E-27
7.30874E-01 2.50841E-27
7.34736E-01 2.44367E-27
7.38579E-01 2.38051E-27
7.42405E-01 2.31889E-27
7.46212E-01 2.25877E-27
7.50000E-01 2.20011E-27
7.53769E-01 2.14288E-27
7.57519E-01 2.08703E-27
7.61249E-01 2.03254E-27
7.64960E-01 1.97935E-27
7.68650E-01 1.92745E-27
7.72320E-01 1.87680E-27
7.75968E-01 1.82736E-27
7.79596E-01 1.77910E-27
7.83203E-01 1.73200E-27
7.86788E-01 1.68602E-27
7.90351E-01 1.64114E-27
7.93893E-01 1.59733E-27
7.97411E-01 1.55455E-27
8.00908E-01 1.51279E-27
8.04381E-01 1.47203E-27
8.07831E-01 1.43222E-27
8.11257E-01 1.39336E-27
8.14660E-01 1.35541E-27
8.18039E-01 1.31836E-27
8.21394E-01 1.28218E-27
8.24724E-01 1.24686E-27
8.28030E-01 1.21236E-27
8.31310E-01 1.17868E-27
8.34565E-01 1.14578E-27
8.37795E-01 1.11366E-27
8.40999E-01 1.08229E-27
8.44177E-01 1.05166E-27
8.47329E-01 1.02175E-27
8.50455E-01 9.92532E-28
8.53553E-01 9.64003E-28
8.56625E-01 9.36142E-28
8.59670E-01 9.08934E-28
8.62687E-01 8.82364E-28
8.65677E-01 8.56416E-28
8.68639E-01 8.31078E-28
8.71572E-01 8.06333E-28
8.74478E-01 7.82170E-28
8.77355E-01 7.58574E-28
8.80203E-01 7.35533E-28
8.83022E-01 7.13034E-28
8.85812E-01 6.91066E-28
8.88573E-01 6.69616E-28
8.91304E-01 6.48673E-28
8.94005E-01 6.28226E-28
8.96677E-01 6.08264E-28
8.99318E-01 5.88776E-28
9.01928E-01 5.69752E-28
9.04508E-01 5.51182E-28
9.07058E-01 5.33056E-28
9.09576E-01 5.15365E-28
9.12063E-01 4.98100E-28
9.14519E-01 4.81251E-28
9.16943E-01 4.64811E-28
9.19335E-01 4.48770E-28
9.21696E-01 4.33120E-28
9.24024E-01 4.17853E-28
9.26320E-01 4.02962E-28
9.28584E-01 3.88439E-28
9.30815E-01 3.74276E-28
9.33013E-01 3.60467E-28
9.35178E-01 3.47004E-28
9.37310E-01 3.33882E-28
9.39409E-01 3.21092E-28
9.41474E-01 3.08629E-28
9.43505E-01 2.96486E-28
9.45503E-01 2.84659E-28
9.47467E-01 2.73140E-28
9.49397E-01 2.61924E-28
9.51293E-01 2.51005E-28
9.53154E-01 2.40379E-28
9.54981E-01 2.30039E-28
9.56773E-01 2.19982E-28
9.58530E-01 2.10202E-28
9.60252E-01 2.00694E-28
9.61940E-01 1.91453E-28
9.63592E-01 1.82476E-28
9.65209E-01 1.73758E-28
9.66790E-01 1.65294E-28
9.68336E-01 1.57081E-28
9.69846E-01 1.49115E-28
9.71321E-01 1.41392E-28
9.72759E-01 1.33908E-28
9.74162E-01 1.26660E-28
9.75528E-01 1.19643E-28
9.76858E-01 1.12856E-28
9.78152E-01 1.06295E-28
9.79410E-01 9.99559E-29
9.80631E-01 9.38366E-29
9.81815E-01 8.79341E-29
9.82963E-01 8.22455E-29
9.84074E-01 7.67683E-29
9.85148E-01 7.14997E-29
9.86185E-01 6.64375E-29
9.87185E-01 6.15792E-29
9.88148E-01 5.69225E-29
9.89074E-01 5.24653E-29
9.89962E-01 4.82055E-29
9.90814E-01 4.41411E-29
9.91627E-01 4.02703E-29
9.92404E-01 3.65913E-29
9.93143E-01 3.31023E-29
9.93844E-01 2.98017E-29
9.94508E-01 2.66881E-29
9.95134E-01 2.37600E-29
9.95722E-01 2.10160E-29
9.96273E-01 1.84549E-29
9.96786E-01 1.60754E-29
9.97261E-01 1.38766E-29
9.97698E-01 1.18574E-29
9.98097E-01 1.00168E-29
9.98459E-01 8.35410E-30
9.98782E-01 6.86842E-30
9.99067E-01 5.55914E-30
9.99315E-01 4.42562E-30
9.99524E-01 3.46738E-30
9.99695E-01 2.68395E-30
9.99829E-01 2.07499E-30
9.99924E-01 1.64022E-30
9.99981E-01 1.37943E-30
1.00000E+00 1.29255E-30
