 #
 # Subroutine ELSEPA. Elastic scattering of electrons and positrons
 #                    by neutral atoms and positive ions
 #
 # Projectile: electron
 # Kinetic energy = 9.00000E+06 eV = 3.30744E+05 a.u.
 #
 # WARNING: High-energy factorization with free-atom DF screening.
 #          Absorption, polarization and exchange corrections are
 #          switched off.
 #          Phase shifts are calculated for the bare nucleus.
 #          Scattering amplitudes are not evaluated.
 #
 # Element: Mn,  Z =  25,  atomic weight = 5.49380E+01 g/mol
 #
 # Nuclear model: Fermi distribution
 #                Average radius = 4.06763E-13 cm
 #                Skin thickness = 5.46000E-14 cm
 #
 # Number of electrons = 25
 #
 # Total elastic cross section = 1.95740E-18 cm**2 = 6.99000E-02 a0**2
 # 1st transport cross section = 1.18105E-23 cm**2 = 4.21760E-07 a0**2
 # 2nd transport cross section = 3.37510E-23 cm**2 = 1.20527E-06 a0**2
 #
 #
 # Differential cross section:                       MU=(1-COS(THETA))/2
 #
 #  THETA        MU          DCS          DCS        Sherman      error
 #  (deg)                 (cm**2/sr)   (a0**2/sr)    function
 #----------------------------------------------------------------------
0.00000E+00 1.93428E-12
7.61557E-13 1.93422E-12
1.18994E-12 1.93419E-12
1.71346E-12 1.93415E-12
2.33225E-12 1.93411E-12
3.04617E-12 1.93406E-12
3.85530E-12 1.93400E-12
4.75964E-12 1.93393E-12
5.75917E-12 1.93386E-12
6.85391E-12 1.93377E-12
8.04379E-12 1.93369E-12
9.32893E-12 1.93359E-12
1.07092E-11 1.93349E-12
1.21847E-11 1.93338E-12
1.37554E-11 1.93327E-12
1.54213E-11 1.93314E-12
1.71823E-11 1.93301E-12
1.90386E-11 1.93288E-12
2.09900E-11 1.93273E-12
2.30367E-11 1.93258E-12
2.51785E-11 1.93243E-12
2.74156E-11 1.93226E-12
2.97478E-11 1.93209E-12
3.21752E-11 1.93191E-12
3.46979E-11 1.93173E-12
3.73157E-11 1.93153E-12
4.00286E-11 1.93133E-12
4.28368E-11 1.93113E-12
4.57402E-11 1.93091E-12
4.87388E-11 1.93069E-12
5.18325E-11 1.93047E-12
5.50215E-11 1.93023E-12
5.83057E-11 1.92999E-12
6.16850E-11 1.92974E-12
6.51595E-11 1.92949E-12
6.87293E-11 1.92923E-12
7.23943E-11 1.92896E-12
7.61544E-11 1.92868E-12
1.18991E-10 1.92555E-12
1.71347E-10 1.92173E-12
2.33223E-10 1.91723E-12
3.04617E-10 1.91206E-12
3.85531E-10 1.90622E-12
4.75965E-10 1.89974E-12
5.75917E-10 1.89261E-12
6.85389E-10 1.88485E-12
8.04380E-10 1.87648E-12
9.32891E-10 1.86750E-12
1.07092E-09 1.85793E-12
1.21847E-09 1.84779E-12
1.37554E-09 1.83709E-12
1.54213E-09 1.82585E-12
1.71823E-09 1.81409E-12
1.90386E-09 1.80182E-12
2.09900E-09 1.78906E-12
2.30367E-09 1.77584E-12
2.51785E-09 1.76217E-12
2.74156E-09 1.74801E-12
2.97478E-09 1.73345E-12
3.21752E-09 1.71854E-12
3.46978E-09 1.70329E-12
3.73156E-09 1.68773E-12
4.00286E-09 1.67186E-12
4.28368E-09 1.65553E-12
4.57402E-09 1.63896E-12
4.87388E-09 1.62216E-12
5.18326E-09 1.60516E-12
5.50215E-09 1.58798E-12
5.83057E-09 1.57055E-12
6.16850E-09 1.55283E-12
6.51596E-09 1.53498E-12
6.87293E-09 1.51704E-12
7.23942E-09 1.49901E-12
7.61544E-09 1.48093E-12
1.18991E-08 1.29697E-12
1.71347E-08 1.11908E-12
2.33223E-08 9.56790E-13
3.04617E-08 8.14499E-13
3.85531E-08 6.93166E-13
4.75965E-08 5.91502E-13
5.75917E-08 5.07084E-13
6.85389E-08 4.37140E-13
8.04380E-08 3.79171E-13
9.32891E-08 3.30939E-13
1.07092E-07 2.90558E-13
1.21847E-07 2.56453E-13
1.37554E-07 2.27480E-13
1.54213E-07 2.02680E-13
1.71823E-07 1.81271E-13
1.90386E-07 1.62652E-13
2.09900E-07 1.46389E-13
2.30367E-07 1.32103E-13
2.51785E-07 1.19462E-13
2.74156E-07 1.07436E-13
2.97478E-07 9.70275E-14
3.21752E-07 8.80810E-14
3.46978E-07 8.03508E-14
3.73156E-07 7.36382E-14
4.00286E-07 6.76503E-14
4.28368E-07 6.14527E-14
4.57402E-07 5.60436E-14
4.87388E-07 5.13031E-14
5.18325E-07 4.71318E-14
5.50215E-07 4.34474E-14
5.83057E-07 4.00157E-14
6.16850E-07 3.66648E-14
6.51596E-07 3.36922E-14
6.87293E-07 3.10470E-14
7.23942E-07 2.86858E-14
7.61543E-07 2.65720E-14
1.18991E-06 1.26452E-14
1.71347E-06 6.67750E-15
2.33223E-06 3.86716E-15
3.04617E-06 2.41673E-15
3.85531E-06 1.60203E-15
4.75964E-06 1.11038E-15
5.75916E-06 7.96046E-16
6.85388E-06 5.85372E-16
8.04378E-06 4.39563E-16
9.32888E-06 3.35979E-16
1.07092E-05 2.60723E-16
1.21846E-05 2.04985E-16
1.37553E-05 1.63141E-16
1.54212E-05 1.31296E-16
1.71822E-05 1.06752E-16
1.90385E-05 8.76196E-17
2.09899E-05 7.25641E-17
2.30365E-05 6.05866E-17
2.51783E-05 5.09672E-17
2.74153E-05 4.31670E-17
2.97475E-05 3.68163E-17
3.21749E-05 3.15904E-17
3.46974E-05 2.72611E-17
3.73152E-05 2.36542E-17
4.00281E-05 2.06235E-17
4.28362E-05 1.80686E-17
4.57395E-05 1.58960E-17
4.87380E-05 1.40437E-17
5.18317E-05 1.24537E-17
5.50205E-05 1.10836E-17
5.83045E-05 9.89797E-18
6.16838E-05 8.86683E-18
6.51582E-05 7.96818E-18
6.87277E-05 7.17988E-18
7.23925E-05 6.48791E-18
7.61524E-05 5.87717E-18
9.21439E-05 4.05054E-18
1.09658E-04 2.88216E-18
1.28695E-04 2.10663E-18
1.49255E-04 1.57528E-18
1.71338E-04 1.20134E-18
1.94942E-04 9.31925E-19
2.20070E-04 7.33925E-19
2.46720E-04 5.85783E-19
2.74892E-04 4.73157E-19
3.04586E-04 3.86316E-19
3.35803E-04 3.18497E-19
3.68542E-04 2.64918E-19
4.02802E-04 2.22136E-19
4.38585E-04 1.87647E-19
4.75889E-04 1.59597E-19
5.14715E-04 1.36595E-19
5.55063E-04 1.17591E-19
5.96931E-04 1.01779E-19
6.40321E-04 8.85379E-20
6.85233E-04 7.73821E-20
7.31665E-04 6.79294E-20
7.79618E-04 5.98776E-20
8.29092E-04 5.29847E-20
8.80086E-04 4.70563E-20
9.32601E-04 4.19348E-20
9.86636E-04 3.74920E-20
1.04219E-03 3.36228E-20
1.09927E-03 3.02404E-20
1.15786E-03 2.72734E-20
1.21797E-03 2.46618E-20
1.27961E-03 2.23558E-20
1.34276E-03 2.03135E-20
1.40743E-03 1.84994E-20
1.47362E-03 1.68837E-20
1.54133E-03 1.54408E-20
1.61056E-03 1.41490E-20
1.68131E-03 1.29898E-20
1.75357E-03 1.19470E-20
1.82735E-03 1.10070E-20
1.90265E-03 1.01578E-20
1.97947E-03 9.38909E-21
2.05780E-03 8.69186E-21
2.13765E-03 8.05829E-21
2.21902E-03 7.48151E-21
2.30190E-03 6.95553E-21
2.38630E-03 6.47506E-21
2.47222E-03 6.03545E-21
2.55965E-03 5.63261E-21
2.64859E-03 5.26289E-21
2.73905E-03 4.92308E-21
2.83103E-03 4.61032E-21
2.92452E-03 4.32206E-21
3.01952E-03 4.05604E-21
3.11604E-03 3.81022E-21
3.21407E-03 3.58278E-21
3.31362E-03 3.37211E-21
3.41468E-03 3.17673E-21
3.51725E-03 2.99534E-21
3.62133E-03 2.82675E-21
3.72692E-03 2.66988E-21
3.83403E-03 2.52377E-21
3.94265E-03 2.38755E-21
4.05278E-03 2.26042E-21
4.16442E-03 2.14166E-21
4.27757E-03 2.03062E-21
4.39223E-03 1.92671E-21
4.50840E-03 1.82938E-21
4.62608E-03 1.73813E-21
4.74527E-03 1.65252E-21
4.86597E-03 1.57213E-21
4.98817E-03 1.49659E-21
5.11188E-03 1.42554E-21
5.23711E-03 1.35867E-21
5.36383E-03 1.29569E-21
5.49207E-03 1.23633E-21
5.62181E-03 1.18034E-21
5.75306E-03 1.12749E-21
5.88581E-03 1.07758E-21
6.02007E-03 1.03041E-21
6.15583E-03 9.85796E-22
6.29310E-03 9.43581E-22
6.43187E-03 9.03610E-22
6.57214E-03 8.65740E-22
6.71392E-03 8.29839E-22
6.85720E-03 7.95787E-22
7.00198E-03 7.63470E-22
7.14827E-03 7.32782E-22
7.29605E-03 7.03626E-22
7.44534E-03 6.75910E-22
7.59612E-03 6.49551E-22
7.97965E-03 5.89080E-22
8.37255E-03 5.35508E-22
8.77480E-03 4.87910E-22
9.18641E-03 4.45502E-22
9.60736E-03 4.07620E-22
1.00376E-02 3.73693E-22
1.04773E-02 3.43237E-22
1.09262E-02 3.15832E-22
1.13844E-02 2.91118E-22
1.18520E-02 2.68784E-22
1.23288E-02 2.48559E-22
1.28150E-02 2.30208E-22
1.33104E-02 2.13526E-22
1.38150E-02 1.98334E-22
1.43290E-02 1.84474E-22
1.48521E-02 1.71809E-22
1.53845E-02 1.60216E-22
1.59262E-02 1.49589E-22
1.64770E-02 1.39832E-22
1.70371E-02 1.30861E-22
1.76063E-02 1.22600E-22
1.81848E-02 1.14984E-22
1.87724E-02 1.07953E-22
1.93692E-02 1.01453E-22
1.99751E-02 9.54364E-23
2.05901E-02 8.98614E-23
2.12143E-02 8.46892E-23
2.18476E-02 7.98853E-23
2.24900E-02 7.54186E-23
2.31415E-02 7.12610E-23
2.38021E-02 6.73871E-23
2.44717E-02 6.37739E-23
2.51504E-02 6.04006E-23
2.58382E-02 5.72483E-23
2.65349E-02 5.42998E-23
2.72407E-02 5.15394E-23
2.79555E-02 4.89529E-23
2.86793E-02 4.65272E-23
2.94120E-02 4.42505E-23
3.01537E-02 4.21119E-23
3.09043E-02 4.01014E-23
3.16639E-02 3.82099E-23
3.24324E-02 3.64290E-23
3.32098E-02 3.47511E-23
3.39961E-02 3.31690E-23
3.47912E-02 3.16762E-23
3.55952E-02 3.02668E-23
3.64081E-02 2.89351E-23
3.72297E-02 2.76762E-23
3.80602E-02 2.64851E-23
3.88995E-02 2.53577E-23
3.97476E-02 2.42898E-23
4.06044E-02 2.32778E-23
4.14700E-02 2.23180E-23
4.23443E-02 2.14074E-23
4.32273E-02 2.05428E-23
4.41190E-02 1.97216E-23
4.50194E-02 1.89412E-23
4.59284E-02 1.81990E-23
4.68461E-02 1.74930E-23
4.87074E-02 1.61809E-23
5.06030E-02 1.49899E-23
5.25328E-02 1.39067E-23
5.44967E-02 1.29197E-23
5.64946E-02 1.20190E-23
5.85262E-02 1.11955E-23
6.05914E-02 1.04414E-23
6.26901E-02 9.74981E-24
6.48222E-02 9.11460E-24
6.69873E-02 8.53033E-24
6.91854E-02 7.99215E-24
7.14163E-02 7.49576E-24
7.36799E-02 7.03731E-24
7.59760E-02 6.61337E-24
7.83043E-02 6.22085E-24
8.06647E-02 5.85700E-24
8.30571E-02 5.51934E-24
8.54812E-02 5.20562E-24
8.79369E-02 4.91384E-24
9.04240E-02 4.64218E-24
9.29422E-02 4.38898E-24
9.54915E-02 4.15277E-24
9.80716E-02 3.93218E-24
1.00682E-01 3.72599E-24
1.03323E-01 3.53309E-24
1.05995E-01 3.35247E-24
1.08696E-01 3.18318E-24
1.11427E-01 3.02439E-24
1.14188E-01 2.87533E-24
1.16978E-01 2.73528E-24
1.19797E-01 2.60361E-24
1.22645E-01 2.47970E-24
1.25522E-01 2.36303E-24
1.28428E-01 2.25309E-24
1.31361E-01 2.14942E-24
1.34323E-01 2.05159E-24
1.37313E-01 1.95922E-24
1.40330E-01 1.87193E-24
1.43375E-01 1.78940E-24
1.46447E-01 1.71133E-24
1.49545E-01 1.63742E-24
1.52671E-01 1.56741E-24
1.55823E-01 1.50105E-24
1.59001E-01 1.43813E-24
1.62205E-01 1.37843E-24
1.65435E-01 1.32175E-24
1.68690E-01 1.26791E-24
1.71970E-01 1.21674E-24
1.75276E-01 1.16809E-24
1.78606E-01 1.12181E-24
1.81961E-01 1.07775E-24
1.85340E-01 1.03580E-24
1.88743E-01 9.95841E-25
1.92169E-01 9.57749E-25
1.95619E-01 9.21426E-25
1.99092E-01 8.86774E-25
2.02589E-01 8.53702E-25
2.06107E-01 8.22125E-25
2.09649E-01 7.91961E-25
2.13212E-01 7.63137E-25
2.16797E-01 7.35581E-25
2.20404E-01 7.09228E-25
2.24032E-01 6.84014E-25
2.27680E-01 6.59882E-25
2.31350E-01 6.36777E-25
2.35040E-01 6.14646E-25
2.38751E-01 5.93441E-25
2.42481E-01 5.73116E-25
2.46231E-01 5.53628E-25
2.50000E-01 5.34936E-25
2.53788E-01 5.17001E-25
2.57595E-01 4.99787E-25
2.61421E-01 4.83260E-25
2.65264E-01 4.67387E-25
2.69126E-01 4.52137E-25
2.73005E-01 4.37482E-25
2.76901E-01 4.23394E-25
2.80814E-01 4.09847E-25
2.84744E-01 3.96816E-25
2.88691E-01 3.84279E-25
2.92653E-01 3.72213E-25
2.96632E-01 3.60596E-25
3.00625E-01 3.49410E-25
3.04634E-01 3.38636E-25
3.08658E-01 3.28255E-25
3.12697E-01 3.18250E-25
3.16749E-01 3.08606E-25
3.20816E-01 2.99307E-25
3.24896E-01 2.90338E-25
3.28990E-01 2.81686E-25
3.33097E-01 2.73337E-25
3.37216E-01 2.65279E-25
3.41348E-01 2.57500E-25
3.45492E-01 2.49988E-25
3.49647E-01 2.42733E-25
3.53814E-01 2.35724E-25
3.57992E-01 2.28952E-25
3.62181E-01 2.22406E-25
3.66381E-01 2.16079E-25
3.70590E-01 2.09961E-25
3.74810E-01 2.04044E-25
3.79039E-01 1.98321E-25
3.83277E-01 1.92784E-25
3.87524E-01 1.87425E-25
3.91780E-01 1.82239E-25
3.96044E-01 1.77218E-25
4.00316E-01 1.72357E-25
4.04596E-01 1.67649E-25
4.08882E-01 1.63089E-25
4.13176E-01 1.58671E-25
4.17476E-01 1.54391E-25
4.21783E-01 1.50242E-25
4.26095E-01 1.46221E-25
4.30413E-01 1.42322E-25
4.34737E-01 1.38542E-25
4.39065E-01 1.34875E-25
4.43398E-01 1.31319E-25
4.47736E-01 1.27869E-25
4.52077E-01 1.24521E-25
4.56422E-01 1.21272E-25
4.60770E-01 1.18119E-25
4.65122E-01 1.15058E-25
4.69476E-01 1.12086E-25
4.73832E-01 1.09200E-25
4.78190E-01 1.06397E-25
4.82550E-01 1.03674E-25
4.86912E-01 1.01029E-25
4.91274E-01 9.84592E-26
4.95637E-01 9.59617E-26
5.00000E-01 9.35343E-26
5.04363E-01 9.11748E-26
5.08726E-01 8.88809E-26
5.13088E-01 8.66505E-26
5.17450E-01 8.44816E-26
5.21810E-01 8.23721E-26
5.26168E-01 8.03203E-26
5.30524E-01 7.83242E-26
5.34878E-01 7.63821E-26
5.39230E-01 7.44922E-26
5.43578E-01 7.26531E-26
5.47923E-01 7.08630E-26
5.52264E-01 6.91205E-26
5.56602E-01 6.74241E-26
5.60935E-01 6.57724E-26
5.65263E-01 6.41640E-26
5.69587E-01 6.25976E-26
5.73905E-01 6.10719E-26
5.78217E-01 5.95857E-26
5.82524E-01 5.81379E-26
5.86824E-01 5.67272E-26
5.91118E-01 5.53527E-26
5.95404E-01 5.40131E-26
5.99684E-01 5.27076E-26
6.03956E-01 5.14350E-26
6.08220E-01 5.01945E-26
6.12476E-01 4.89850E-26
6.16723E-01 4.78058E-26
6.20961E-01 4.66560E-26
6.25190E-01 4.55346E-26
6.29410E-01 4.44409E-26
6.33619E-01 4.33742E-26
6.37819E-01 4.23336E-26
6.42008E-01 4.13184E-26
6.46186E-01 4.03280E-26
6.50353E-01 3.93615E-26
6.54508E-01 3.84184E-26
6.58652E-01 3.74981E-26
6.62784E-01 3.65998E-26
6.66903E-01 3.57230E-26
6.71010E-01 3.48672E-26
6.75104E-01 3.40316E-26
6.79184E-01 3.32159E-26
6.83251E-01 3.24194E-26
6.87303E-01 3.16417E-26
6.91342E-01 3.08822E-26
6.95366E-01 3.01405E-26
6.99375E-01 2.94161E-26
7.03368E-01 2.87086E-26
7.07347E-01 2.80174E-26
7.11309E-01 2.73423E-26
7.15256E-01 2.66826E-26
7.19186E-01 2.60382E-26
7.23099E-01 2.54085E-26
7.26995E-01 2.47933E-26
7.30874E-01 2.41920E-26
7.34736E-01 2.36045E-26
7.38579E-01 2.30302E-26
7.42405E-01 2.24690E-26
7.46212E-01 2.19204E-26
7.50000E-01 2.13842E-26
7.53769E-01 2.08600E-26
7.57519E-01 2.03476E-26
7.61249E-01 1.98467E-26
7.64960E-01 1.93569E-26
7.68650E-01 1.88781E-26
7.72320E-01 1.84099E-26
7.75968E-01 1.79520E-26
7.79596E-01 1.75044E-26
7.83203E-01 1.70666E-26
7.86788E-01 1.66385E-26
7.90351E-01 1.62198E-26
7.93893E-01 1.58103E-26
7.97411E-01 1.54098E-26
8.00908E-01 1.50181E-26
8.04381E-01 1.46350E-26
8.07831E-01 1.42603E-26
8.11257E-01 1.38938E-26
8.14660E-01 1.35352E-26
8.18039E-01 1.31845E-26
8.21394E-01 1.28414E-26
8.24724E-01 1.25058E-26
8.28030E-01 1.21774E-26
8.31310E-01 1.18562E-26
8.34565E-01 1.15420E-26
8.37795E-01 1.12346E-26
8.40999E-01 1.09339E-26
8.44177E-01 1.06397E-26
8.47329E-01 1.03519E-26
8.50455E-01 1.00703E-26
8.53553E-01 9.79485E-27
8.56625E-01 9.52537E-27
8.59670E-01 9.26173E-27
8.62687E-01 9.00382E-27
8.65677E-01 8.75151E-27
8.68639E-01 8.50469E-27
8.71572E-01 8.26325E-27
8.74478E-01 8.02706E-27
8.77355E-01 7.79602E-27
8.80203E-01 7.57004E-27
8.83022E-01 7.34899E-27
8.85812E-01 7.13279E-27
8.88573E-01 6.92134E-27
8.91304E-01 6.71453E-27
8.94005E-01 6.51229E-27
8.96677E-01 6.31451E-27
8.99318E-01 6.12112E-27
9.01928E-01 5.93202E-27
9.04508E-01 5.74714E-27
9.07058E-01 5.56638E-27
9.09576E-01 5.38969E-27
9.12063E-01 5.21696E-27
9.14519E-01 5.04815E-27
9.16943E-01 4.88316E-27
9.19335E-01 4.72193E-27
9.21696E-01 4.56439E-27
9.24024E-01 4.41048E-27
9.26320E-01 4.26013E-27
9.28584E-01 4.11327E-27
9.30815E-01 3.96985E-27
9.33013E-01 3.82980E-27
9.35178E-01 3.69307E-27
9.37310E-01 3.55960E-27
9.39409E-01 3.42934E-27
9.41474E-01 3.30222E-27
9.43505E-01 3.17821E-27
9.45503E-01 3.05724E-27
9.47467E-01 2.93927E-27
9.49397E-01 2.82425E-27
9.51293E-01 2.71214E-27
9.53154E-01 2.60288E-27
9.54981E-01 2.49644E-27
9.56773E-01 2.39278E-27
9.58530E-01 2.29185E-27
9.60252E-01 2.19360E-27
9.61940E-01 2.09801E-27
9.63592E-01 2.00503E-27
9.65209E-01 1.91464E-27
9.66790E-01 1.82678E-27
9.68336E-01 1.74143E-27
9.69846E-01 1.65855E-27
9.71321E-01 1.57812E-27
9.72759E-01 1.50010E-27
9.74162E-01 1.42445E-27
9.75528E-01 1.35116E-27
9.76858E-01 1.28019E-27
9.78152E-01 1.21152E-27
9.79410E-01 1.14511E-27
9.80631E-01 1.08095E-27
9.81815E-01 1.01900E-27
9.82963E-01 9.59250E-28
9.84074E-01 9.01671E-28
9.85148E-01 8.46242E-28
9.86185E-01 7.92942E-28
9.87185E-01 7.41751E-28
9.88148E-01 6.92649E-28
9.89074E-01 6.45617E-28
9.89962E-01 6.00638E-28
9.90814E-01 5.57695E-28
9.91627E-01 5.16772E-28
9.92404E-01 4.77853E-28
9.93143E-01 4.40924E-28
9.93844E-01 4.05970E-28
9.94508E-01 3.72979E-28
9.95134E-01 3.41939E-28
9.95722E-01 3.12837E-28
9.96273E-01 2.85663E-28
9.96786E-01 2.60407E-28
9.97261E-01 2.37059E-28
9.97698E-01 2.15611E-28
9.98097E-01 1.96054E-28
9.98459E-01 1.78382E-28
9.98782E-01 1.62588E-28
9.99067E-01 1.48665E-28
9.99315E-01 1.36610E-28
9.99524E-01 1.26416E-28
9.99695E-01 1.18081E-28
9.99829E-01 1.11602E-28
9.99924E-01 1.06975E-28
9.99981E-01 1.04200E-28
1.00000E+00 1.03276E-28
