 #
 # Subroutine ELSEPA. Elastic scattering of electrons and positrons
 #                    by neutral atoms and positive ions
 #
 # Projectile: electron
 # Kinetic energy = 3.50000E+07 eV = 1.28623E+06 a.u.
 #
 # WARNING: High-energy factorization with free-atom DF screening.
 #          Absorption, polarization and exchange corrections are
 #          switched off.
 #          Phase shifts are calculated for the bare nucleus.
 #          Scattering amplitudes are not evaluated.
 #
 # Element: Mn,  Z =  25,  atomic weight = 5.49380E+01 g/mol
 #
 # Nuclear model: Fermi distribution
 #                Average radius = 4.06763E-13 cm
 #                Skin thickness = 5.46000E-14 cm
 #
 # Number of electrons = 25
 #
 # Total elastic cross section = 1.95145E-18 cm**2 = 6.96876E-02 a0**2
 # 1st transport cross section = 9.85436E-25 cm**2 = 3.51905E-08 a0**2
 # 2nd transport cross section = 2.86389E-24 cm**2 = 1.02272E-07 a0**2
 #
 #
 # Differential cross section:                       MU=(1-COS(THETA))/2
 #
 #  THETA        MU          DCS          DCS        Sherman      error
 #  (deg)                 (cm**2/sr)   (a0**2/sr)    function
 #----------------------------------------------------------------------
0.00000E+00 2.69645E-11
7.61557E-13 2.69536E-11
1.18994E-12 2.69474E-11
1.71346E-12 2.69399E-11
2.33225E-12 2.69310E-11
3.04617E-12 2.69208E-11
3.85530E-12 2.69092E-11
4.75964E-12 2.68963E-11
5.75917E-12 2.68820E-11
6.85391E-12 2.68664E-11
8.04379E-12 2.68494E-11
9.32893E-12 2.68311E-11
1.07092E-11 2.68114E-11
1.21847E-11 2.67905E-11
1.37554E-11 2.67682E-11
1.54213E-11 2.67446E-11
1.71823E-11 2.67196E-11
1.90386E-11 2.66934E-11
2.09900E-11 2.66659E-11
2.30367E-11 2.66370E-11
2.51785E-11 2.66069E-11
2.74156E-11 2.65755E-11
2.97478E-11 2.65429E-11
3.21752E-11 2.65090E-11
3.46979E-11 2.64738E-11
3.73157E-11 2.64373E-11
4.00286E-11 2.63997E-11
4.28368E-11 2.63608E-11
4.57402E-11 2.63206E-11
4.87388E-11 2.62793E-11
5.18325E-11 2.62367E-11
5.50215E-11 2.61930E-11
5.83057E-11 2.61481E-11
6.16850E-11 2.61020E-11
6.51595E-11 2.60547E-11
6.87293E-11 2.60063E-11
7.23943E-11 2.59568E-11
7.61544E-11 2.59061E-11
1.18991E-10 2.53396E-11
1.71347E-10 2.46738E-11
2.33223E-10 2.39205E-11
3.04617E-10 2.30989E-11
3.85531E-10 2.22209E-11
4.75965E-10 2.13009E-11
5.75917E-10 2.03570E-11
6.85389E-10 1.93974E-11
8.04380E-10 1.84364E-11
9.32891E-10 1.74869E-11
1.07092E-09 1.65517E-11
1.21847E-09 1.56429E-11
1.37554E-09 1.47668E-11
1.54213E-09 1.39222E-11
1.71823E-09 1.31177E-11
1.90386E-09 1.23540E-11
2.09900E-09 1.16295E-11
2.30367E-09 1.09476E-11
2.51785E-09 1.03065E-11
2.74156E-09 9.70440E-12
2.97478E-09 9.14173E-12
3.21752E-09 8.61552E-12
3.46978E-09 8.12408E-12
3.73156E-09 7.66642E-12
4.00286E-09 7.23930E-12
4.28368E-09 6.84134E-12
4.57402E-09 6.47112E-12
4.87388E-09 6.12539E-12
5.18326E-09 5.80338E-12
5.50215E-09 5.50361E-12
5.83057E-09 5.22294E-12
6.16850E-09 4.96133E-12
6.51596E-09 4.71711E-12
6.87293E-09 4.48797E-12
7.23942E-09 4.27389E-12
7.61544E-09 4.07329E-12
1.18991E-08 2.61337E-12
1.71347E-08 1.76241E-12
2.33223E-08 1.20810E-12
3.04617E-08 8.63799E-13
3.85531E-08 6.22860E-13
4.75965E-08 4.54770E-13
5.75917E-08 3.38871E-13
6.85389E-08 2.54482E-13
8.04380E-08 1.94203E-13
9.32891E-08 1.50602E-13
1.07092E-07 1.18121E-13
1.21847E-07 9.40452E-14
1.37554E-07 7.58871E-14
1.54213E-07 6.19314E-14
1.71823E-07 5.11470E-14
1.90386E-07 4.26872E-14
2.09900E-07 3.59533E-14
2.30367E-07 3.05504E-14
2.51785E-07 2.61616E-14
2.74156E-07 2.25522E-14
2.97478E-07 1.95686E-14
3.21752E-07 1.70725E-14
3.46978E-07 1.49671E-14
3.73156E-07 1.31863E-14
4.00286E-07 1.16610E-14
4.28368E-07 1.03512E-14
4.57402E-07 9.22369E-15
4.87388E-07 8.23996E-15
5.18325E-07 7.38433E-15
5.50215E-07 6.63784E-15
5.83057E-07 5.97848E-15
6.16850E-07 5.39944E-15
6.51596E-07 4.88824E-15
6.87293E-07 4.43334E-15
7.23942E-07 4.03013E-15
7.61543E-07 3.67073E-15
1.18991E-06 1.58149E-15
1.71347E-06 7.81562E-16
2.33223E-06 4.28337E-16
3.04617E-06 2.54235E-16
3.85531E-06 1.60456E-16
4.75964E-06 1.06325E-16
5.75916E-06 7.32644E-17
6.85388E-06 5.21324E-17
8.04378E-06 3.81089E-17
9.32888E-06 2.84975E-17
1.07092E-05 2.17341E-17
1.21846E-05 1.68619E-17
1.37553E-05 1.32796E-17
1.54212E-05 1.05992E-17
1.71822E-05 8.56107E-18
1.90385E-05 6.98918E-18
2.09899E-05 5.76230E-18
2.30365E-05 4.79254E-18
2.51783E-05 4.01807E-18
2.74153E-05 3.39357E-18
2.97475E-05 2.88558E-18
3.21749E-05 2.46909E-18
3.46974E-05 2.12504E-18
3.73152E-05 1.83887E-18
4.00281E-05 1.59928E-18
4.28362E-05 1.39745E-18
4.57395E-05 1.22645E-18
4.87380E-05 1.08079E-18
5.18317E-05 9.56098E-19
5.50205E-05 8.48864E-19
5.83045E-05 7.56237E-19
6.16838E-05 6.75905E-19
6.51582E-05 6.05963E-19
6.87277E-05 5.44839E-19
7.23925E-05 4.91235E-19
7.61524E-05 4.44062E-19
9.21439E-05 3.03620E-19
1.09658E-04 2.14562E-19
1.28695E-04 1.55898E-19
1.49255E-04 1.15983E-19
1.71338E-04 8.80681E-20
1.94942E-04 6.80703E-20
2.20070E-04 5.34424E-20
2.46720E-04 4.25429E-20
2.74892E-04 3.42869E-20
3.04586E-04 2.79412E-20
3.35803E-04 2.29987E-20
3.68542E-04 1.91031E-20
4.02802E-04 1.59990E-20
4.38585E-04 1.35011E-20
4.75889E-04 1.14725E-20
5.14715E-04 9.81134E-21
5.55063E-04 8.44052E-21
5.96931E-04 7.30117E-21
6.40321E-04 6.34792E-21
6.85233E-04 5.54545E-21
7.31665E-04 4.86599E-21
7.79618E-04 4.28760E-21
8.29092E-04 3.79273E-21
8.80086E-04 3.36733E-21
9.32601E-04 3.00000E-21
9.86636E-04 2.68149E-21
1.04219E-03 2.40419E-21
1.09927E-03 2.16188E-21
1.15786E-03 1.94938E-21
1.21797E-03 1.76239E-21
1.27961E-03 1.59733E-21
1.34276E-03 1.45117E-21
1.40743E-03 1.32138E-21
1.47362E-03 1.20580E-21
1.54133E-03 1.10260E-21
1.61056E-03 1.01023E-21
1.68131E-03 9.27348E-22
1.75357E-03 8.52806E-22
1.82735E-03 7.85618E-22
1.90265E-03 7.24928E-22
1.97947E-03 6.69997E-22
2.05780E-03 6.20180E-22
2.13765E-03 5.74916E-22
2.21902E-03 5.33715E-22
2.30190E-03 4.96145E-22
2.38630E-03 4.61830E-22
2.47222E-03 4.30435E-22
2.55965E-03 4.01668E-22
2.64859E-03 3.75269E-22
2.73905E-03 3.51008E-22
2.83103E-03 3.28680E-22
2.92452E-03 3.08102E-22
3.01952E-03 2.89113E-22
3.11604E-03 2.71567E-22
3.21407E-03 2.55334E-22
3.31362E-03 2.40299E-22
3.41468E-03 2.26357E-22
3.51725E-03 2.13413E-22
3.62133E-03 2.01383E-22
3.72692E-03 1.90190E-22
3.83403E-03 1.79766E-22
3.94265E-03 1.70048E-22
4.05278E-03 1.60979E-22
4.16442E-03 1.52508E-22
4.27757E-03 1.44587E-22
4.39223E-03 1.37176E-22
4.50840E-03 1.30234E-22
4.62608E-03 1.23727E-22
4.74527E-03 1.17621E-22
4.86597E-03 1.11889E-22
4.98817E-03 1.06502E-22
5.11188E-03 1.01436E-22
5.23711E-03 9.66689E-23
5.36383E-03 9.21788E-23
5.49207E-03 8.79468E-23
5.62181E-03 8.39554E-23
5.75306E-03 8.01883E-23
5.88581E-03 7.66306E-23
6.02007E-03 7.32684E-23
6.15583E-03 7.00890E-23
6.29310E-03 6.70805E-23
6.43187E-03 6.42320E-23
6.57214E-03 6.15334E-23
6.71392E-03 5.89753E-23
6.85720E-03 5.65490E-23
7.00198E-03 5.42465E-23
7.14827E-03 5.20601E-23
7.29605E-03 4.99831E-23
7.44534E-03 4.80088E-23
7.59612E-03 4.61311E-23
7.97965E-03 4.18241E-23
8.37255E-03 3.80091E-23
8.77480E-03 3.46199E-23
9.18641E-03 3.16008E-23
9.60736E-03 2.89043E-23
1.00376E-02 2.64898E-23
1.04773E-02 2.43225E-23
1.09262E-02 2.23728E-23
1.13844E-02 2.06147E-23
1.18520E-02 1.90263E-23
1.23288E-02 1.75881E-23
1.28150E-02 1.62834E-23
1.33104E-02 1.50976E-23
1.38150E-02 1.40179E-23
1.43290E-02 1.30330E-23
1.48521E-02 1.21333E-23
1.53845E-02 1.13099E-23
1.59262E-02 1.05552E-23
1.64770E-02 9.86241E-24
1.70371E-02 9.22558E-24
1.76063E-02 8.63934E-24
1.81848E-02 8.09893E-24
1.87724E-02 7.60012E-24
1.93692E-02 7.13912E-24
1.99751E-02 6.71253E-24
2.05901E-02 6.31732E-24
2.12143E-02 5.95075E-24
2.18476E-02 5.61037E-24
2.24900E-02 5.29396E-24
2.31415E-02 4.99951E-24
2.38021E-02 4.72523E-24
2.44717E-02 4.46948E-24
2.51504E-02 4.23076E-24
2.58382E-02 4.00775E-24
2.65349E-02 3.79921E-24
2.72407E-02 3.60403E-24
2.79555E-02 3.42119E-24
2.86793E-02 3.24978E-24
2.94120E-02 3.08894E-24
3.01537E-02 2.93789E-24
3.09043E-02 2.79594E-24
3.16639E-02 2.66243E-24
3.24324E-02 2.53677E-24
3.32098E-02 2.41841E-24
3.39961E-02 2.30684E-24
3.47912E-02 2.20160E-24
3.55952E-02 2.10228E-24
3.64081E-02 2.00846E-24
3.72297E-02 1.91980E-24
3.80602E-02 1.83595E-24
3.88995E-02 1.75660E-24
3.97476E-02 1.68147E-24
4.06044E-02 1.61029E-24
4.14700E-02 1.54281E-24
4.23443E-02 1.47881E-24
4.32273E-02 1.41808E-24
4.41190E-02 1.36040E-24
4.50194E-02 1.30561E-24
4.59284E-02 1.25353E-24
4.68461E-02 1.20400E-24
4.87074E-02 1.11202E-24
5.06030E-02 1.02858E-24
5.25328E-02 9.52753E-25
5.44967E-02 8.83726E-25
5.64946E-02 8.20778E-25
5.85262E-02 7.63279E-25
6.05914E-02 7.10674E-25
6.26901E-02 6.62472E-25
6.48222E-02 6.18239E-25
6.69873E-02 5.77590E-25
6.91854E-02 5.40183E-25
7.14163E-02 5.05714E-25
7.36799E-02 4.73911E-25
7.59760E-02 4.44531E-25
7.83043E-02 4.17357E-25
8.06647E-02 3.92193E-25
8.30571E-02 3.68865E-25
8.54812E-02 3.47214E-25
8.79369E-02 3.27099E-25
9.04240E-02 3.08392E-25
9.29422E-02 2.90976E-25
9.54915E-02 2.74746E-25
9.80716E-02 2.59608E-25
1.00682E-01 2.45475E-25
1.03323E-01 2.32269E-25
1.05995E-01 2.19917E-25
1.08696E-01 2.08356E-25
1.11427E-01 1.97525E-25
1.14188E-01 1.87370E-25
1.16978E-01 1.77841E-25
1.19797E-01 1.68894E-25
1.22645E-01 1.60486E-25
1.25522E-01 1.52580E-25
1.28428E-01 1.45140E-25
1.31361E-01 1.38133E-25
1.34323E-01 1.31531E-25
1.37313E-01 1.25306E-25
1.40330E-01 1.19432E-25
1.43375E-01 1.13886E-25
1.46447E-01 1.08647E-25
1.49545E-01 1.03695E-25
1.52671E-01 9.90117E-26
1.55823E-01 9.45796E-26
1.59001E-01 9.03830E-26
1.62205E-01 8.64073E-26
1.65435E-01 8.26390E-26
1.68690E-01 7.90652E-26
1.71970E-01 7.56744E-26
1.75276E-01 7.24556E-26
1.78606E-01 6.93984E-26
1.81961E-01 6.64936E-26
1.85340E-01 6.37321E-26
1.88743E-01 6.11057E-26
1.92169E-01 5.86068E-26
1.95619E-01 5.62280E-26
1.99092E-01 5.39627E-26
2.02589E-01 5.18046E-26
2.06107E-01 4.97476E-26
2.09649E-01 4.77864E-26
2.13212E-01 4.59157E-26
2.16797E-01 4.41307E-26
2.20404E-01 4.24268E-26
2.24032E-01 4.07996E-26
2.27680E-01 3.92453E-26
2.31350E-01 3.77599E-26
2.35040E-01 3.63400E-26
2.38751E-01 3.49822E-26
2.42481E-01 3.36833E-26
2.46231E-01 3.24404E-26
2.50000E-01 3.12507E-26
2.53788E-01 3.01115E-26
2.57595E-01 2.90204E-26
2.61421E-01 2.79750E-26
2.65264E-01 2.69731E-26
2.69126E-01 2.60126E-26
2.73005E-01 2.50915E-26
2.76901E-01 2.42079E-26
2.80814E-01 2.33602E-26
2.84744E-01 2.25466E-26
2.88691E-01 2.17655E-26
2.92653E-01 2.10154E-26
2.96632E-01 2.02949E-26
3.00625E-01 1.96027E-26
3.04634E-01 1.89375E-26
3.08658E-01 1.82981E-26
3.12697E-01 1.76833E-26
3.16749E-01 1.70920E-26
3.20816E-01 1.65233E-26
3.24896E-01 1.59760E-26
3.28990E-01 1.54494E-26
3.33097E-01 1.49424E-26
3.37216E-01 1.44543E-26
3.41348E-01 1.39843E-26
3.45492E-01 1.35315E-26
3.49647E-01 1.30953E-26
3.53814E-01 1.26749E-26
3.57992E-01 1.22698E-26
3.62181E-01 1.18793E-26
3.66381E-01 1.15027E-26
3.70590E-01 1.11395E-26
3.74810E-01 1.07892E-26
3.79039E-01 1.04513E-26
3.83277E-01 1.01252E-26
3.87524E-01 9.81044E-27
3.91780E-01 9.50665E-27
3.96044E-01 9.21334E-27
4.00316E-01 8.93012E-27
4.04596E-01 8.65658E-27
4.08882E-01 8.39236E-27
4.13176E-01 8.13710E-27
4.17476E-01 7.89044E-27
4.21783E-01 7.65207E-27
4.26095E-01 7.42165E-27
4.30413E-01 7.19891E-27
4.34737E-01 6.98354E-27
4.39065E-01 6.77527E-27
4.43398E-01 6.57384E-27
4.47736E-01 6.37899E-27
4.52077E-01 6.19048E-27
4.56422E-01 6.00808E-27
4.60770E-01 5.83157E-27
4.65122E-01 5.66072E-27
4.69476E-01 5.49534E-27
4.73832E-01 5.33523E-27
4.78190E-01 5.18021E-27
4.82550E-01 5.03008E-27
4.86912E-01 4.88467E-27
4.91274E-01 4.74383E-27
4.95637E-01 4.60739E-27
5.00000E-01 4.47519E-27
5.04363E-01 4.34709E-27
5.08726E-01 4.22294E-27
5.13088E-01 4.10261E-27
5.17450E-01 3.98597E-27
5.21810E-01 3.87289E-27
5.26168E-01 3.76325E-27
5.30524E-01 3.65693E-27
5.34878E-01 3.55382E-27
5.39230E-01 3.45382E-27
5.43578E-01 3.35682E-27
5.47923E-01 3.26271E-27
5.52264E-01 3.17141E-27
5.56602E-01 3.08282E-27
5.60935E-01 2.99684E-27
5.65263E-01 2.91341E-27
5.69587E-01 2.83242E-27
5.73905E-01 2.75381E-27
5.78217E-01 2.67749E-27
5.82524E-01 2.60339E-27
5.86824E-01 2.53144E-27
5.91118E-01 2.46157E-27
5.95404E-01 2.39372E-27
5.99684E-01 2.32782E-27
6.03956E-01 2.26380E-27
6.08220E-01 2.20161E-27
6.12476E-01 2.14120E-27
6.16723E-01 2.08250E-27
6.20961E-01 2.02546E-27
6.25190E-01 1.97003E-27
6.29410E-01 1.91616E-27
6.33619E-01 1.86380E-27
6.37819E-01 1.81291E-27
6.42008E-01 1.76344E-27
6.46186E-01 1.71535E-27
6.50353E-01 1.66859E-27
6.54508E-01 1.62313E-27
6.58652E-01 1.57892E-27
6.62784E-01 1.53593E-27
6.66903E-01 1.49413E-27
6.71010E-01 1.45346E-27
6.75104E-01 1.41391E-27
6.79184E-01 1.37544E-27
6.83251E-01 1.33801E-27
6.87303E-01 1.30160E-27
6.91342E-01 1.26618E-27
6.95366E-01 1.23171E-27
6.99375E-01 1.19817E-27
7.03368E-01 1.16553E-27
7.07347E-01 1.13377E-27
7.11309E-01 1.10285E-27
7.15256E-01 1.07277E-27
7.19186E-01 1.04348E-27
7.23099E-01 1.01497E-27
7.26995E-01 9.87220E-28
7.30874E-01 9.60204E-28
7.34736E-01 9.33901E-28
7.38579E-01 9.08292E-28
7.42405E-01 8.83356E-28
7.46212E-01 8.59076E-28
7.50000E-01 8.35432E-28
7.53769E-01 8.12407E-28
7.57519E-01 7.89983E-28
7.61249E-01 7.68144E-28
7.64960E-01 7.46873E-28
7.68650E-01 7.26155E-28
7.72320E-01 7.05974E-28
7.75968E-01 6.86316E-28
7.79596E-01 6.67166E-28
7.83203E-01 6.48511E-28
7.86788E-01 6.30336E-28
7.90351E-01 6.12630E-28
7.93893E-01 5.95378E-28
7.97411E-01 5.78569E-28
8.00908E-01 5.62191E-28
8.04381E-01 5.46233E-28
8.07831E-01 5.30682E-28
8.11257E-01 5.15529E-28
8.14660E-01 5.00762E-28
8.18039E-01 4.86371E-28
8.21394E-01 4.72347E-28
8.24724E-01 4.58680E-28
8.28030E-01 4.45360E-28
8.31310E-01 4.32378E-28
8.34565E-01 4.19726E-28
8.37795E-01 4.07394E-28
8.40999E-01 3.95375E-28
8.44177E-01 3.83661E-28
8.47329E-01 3.72242E-28
8.50455E-01 3.61113E-28
8.53553E-01 3.50266E-28
8.56625E-01 3.39692E-28
8.59670E-01 3.29386E-28
8.62687E-01 3.19341E-28
8.65677E-01 3.09550E-28
8.68639E-01 3.00006E-28
8.71572E-01 2.90703E-28
8.74478E-01 2.81636E-28
8.77355E-01 2.72799E-28
8.80203E-01 2.64185E-28
8.83022E-01 2.55790E-28
8.85812E-01 2.47607E-28
8.88573E-01 2.39632E-28
8.91304E-01 2.31860E-28
8.94005E-01 2.24285E-28
8.96677E-01 2.16904E-28
8.99318E-01 2.09710E-28
9.01928E-01 2.02701E-28
9.04508E-01 1.95871E-28
9.07058E-01 1.89216E-28
9.09576E-01 1.82732E-28
9.12063E-01 1.76414E-28
9.14519E-01 1.70260E-28
9.16943E-01 1.64266E-28
9.19335E-01 1.58426E-28
9.21696E-01 1.52739E-28
9.24024E-01 1.47200E-28
9.26320E-01 1.41807E-28
9.28584E-01 1.36555E-28
9.30815E-01 1.31442E-28
9.33013E-01 1.26465E-28
9.35178E-01 1.21620E-28
9.37310E-01 1.16905E-28
9.39409E-01 1.12317E-28
9.41474E-01 1.07853E-28
9.43505E-01 1.03511E-28
9.45503E-01 9.92871E-29
9.47467E-01 9.51798E-29
9.49397E-01 9.11865E-29
9.51293E-01 8.73047E-29
9.53154E-01 8.35322E-29
9.54981E-01 7.98667E-29
9.56773E-01 7.63062E-29
9.58530E-01 7.28485E-29
9.60252E-01 6.94916E-29
9.61940E-01 6.62335E-29
9.63592E-01 6.30724E-29
9.65209E-01 6.00064E-29
9.66790E-01 5.70337E-29
9.68336E-01 5.41527E-29
9.69846E-01 5.13616E-29
9.71321E-01 4.86588E-29
9.72759E-01 4.60427E-29
9.74162E-01 4.35120E-29
9.75528E-01 4.10651E-29
9.76858E-01 3.87006E-29
9.78152E-01 3.64171E-29
9.79410E-01 3.42135E-29
9.80631E-01 3.20883E-29
9.81815E-01 3.00404E-29
9.82963E-01 2.80687E-29
9.84074E-01 2.61719E-29
9.85148E-01 2.43491E-29
9.86185E-01 2.25992E-29
9.87185E-01 2.09212E-29
9.88148E-01 1.93142E-29
9.89074E-01 1.77772E-29
9.89962E-01 1.63094E-29
9.90814E-01 1.49100E-29
9.91627E-01 1.35782E-29
9.92404E-01 1.23132E-29
9.93143E-01 1.11143E-29
9.93844E-01 9.98084E-30
9.94508E-01 8.91221E-30
9.95134E-01 7.90779E-30
9.95722E-01 6.96702E-30
9.96273E-01 6.08938E-30
9.96786E-01 5.27437E-30
9.97261E-01 4.52154E-30
9.97698E-01 3.83047E-30
9.98097E-01 3.20078E-30
9.98459E-01 2.63211E-30
9.98782E-01 2.12414E-30
9.99067E-01 1.67660E-30
9.99315E-01 1.28923E-30
9.99524E-01 9.61827E-31
9.99695E-01 6.94195E-31
9.99829E-01 4.86192E-31
9.99924E-01 3.37701E-31
9.99981E-01 2.48638E-31
1.00000E+00 2.18965E-31
