 #
 # Subroutine ELSEPA. Elastic scattering of electrons and positrons
 #                    by neutral atoms and positive ions
 #
 # Projectile: electron
 # Kinetic energy = 1.50000E+07 eV = 5.51240E+05 a.u.
 #
 # WARNING: High-energy factorization with free-atom DF screening.
 #          Absorption, polarization and exchange corrections are
 #          switched off.
 #          Phase shifts are calculated for the bare nucleus.
 #          Scattering amplitudes are not evaluated.
 #
 # Element: Mn,  Z =  25,  atomic weight = 5.49380E+01 g/mol
 #
 # Nuclear model: Fermi distribution
 #                Average radius = 4.06763E-13 cm
 #                Skin thickness = 5.46000E-14 cm
 #
 # Number of electrons = 25
 #
 # Total elastic cross section = 1.95365E-18 cm**2 = 6.97660E-02 a0**2
 # 1st transport cross section = 4.73502E-24 cm**2 = 1.69091E-07 a0**2
 # 2nd transport cross section = 1.35992E-23 cm**2 = 4.85638E-07 a0**2
 #
 #
 # Differential cross section:                       MU=(1-COS(THETA))/2
 #
 #  THETA        MU          DCS          DCS        Sherman      error
 #  (deg)                 (cm**2/sr)   (a0**2/sr)    function
 #----------------------------------------------------------------------
0.00000E+00 5.14454E-12
7.61557E-13 5.14414E-12
1.18994E-12 5.14392E-12
1.71346E-12 5.14364E-12
2.33225E-12 5.14332E-12
3.04617E-12 5.14295E-12
3.85530E-12 5.14252E-12
4.75964E-12 5.14205E-12
5.75917E-12 5.14153E-12
6.85391E-12 5.14096E-12
8.04379E-12 5.14034E-12
9.32893E-12 5.13967E-12
1.07092E-11 5.13895E-12
1.21847E-11 5.13818E-12
1.37554E-11 5.13736E-12
1.54213E-11 5.13649E-12
1.71823E-11 5.13558E-12
1.90386E-11 5.13461E-12
2.09900E-11 5.13359E-12
2.30367E-11 5.13253E-12
2.51785E-11 5.13142E-12
2.74156E-11 5.13025E-12
2.97478E-11 5.12904E-12
3.21752E-11 5.12778E-12
3.46979E-11 5.12647E-12
3.73157E-11 5.12511E-12
4.00286E-11 5.12371E-12
4.28368E-11 5.12225E-12
4.57402E-11 5.12075E-12
4.87388E-11 5.11919E-12
5.18325E-11 5.11759E-12
5.50215E-11 5.11594E-12
5.83057E-11 5.11424E-12
6.16850E-11 5.11250E-12
6.51595E-11 5.11070E-12
6.87293E-11 5.10886E-12
7.23943E-11 5.10697E-12
7.61544E-11 5.10503E-12
1.18991E-10 5.08303E-12
1.71347E-10 5.05634E-12
2.33223E-10 5.02509E-12
3.04617E-10 4.98942E-12
3.85531E-10 4.94947E-12
4.75965E-10 4.90543E-12
5.75917E-10 4.85747E-12
6.85389E-10 4.80580E-12
8.04380E-10 4.75063E-12
9.32891E-10 4.69218E-12
1.07092E-09 4.63042E-12
1.21847E-09 4.56599E-12
1.37554E-09 4.49919E-12
1.54213E-09 4.43003E-12
1.71823E-09 4.35840E-12
1.90386E-09 4.28518E-12
2.09900E-09 4.21061E-12
2.30367E-09 4.13415E-12
2.51785E-09 4.05657E-12
2.74156E-09 3.97837E-12
2.97478E-09 3.89949E-12
3.21752E-09 3.81954E-12
3.46978E-09 3.73959E-12
3.73156E-09 3.65982E-12
4.00286E-09 3.57963E-12
4.28368E-09 3.49961E-12
4.57402E-09 3.42026E-12
4.87388E-09 3.34158E-12
5.18326E-09 3.26291E-12
5.50215E-09 3.18531E-12
5.83057E-09 3.10887E-12
6.16850E-09 3.03310E-12
6.51596E-09 2.95828E-12
6.87293E-09 2.88487E-12
7.23942E-09 2.81287E-12
7.61544E-09 2.74160E-12
1.18991E-08 2.11037E-12
1.71347E-08 1.62497E-12
2.33223E-08 1.26497E-12
3.04617E-08 1.00024E-12
3.85531E-08 8.03907E-13
4.75965E-08 6.55787E-13
5.75917E-08 5.41768E-13
6.85389E-08 4.52180E-13
8.04380E-08 3.80527E-13
9.32891E-08 3.22383E-13
1.07092E-07 2.71762E-13
1.21847E-07 2.31676E-13
1.37554E-07 2.00073E-13
1.54213E-07 1.73342E-13
1.71823E-07 1.48848E-13
1.90386E-07 1.29101E-13
2.09900E-07 1.13013E-13
2.30367E-07 9.82506E-14
2.51785E-07 8.56731E-14
2.74156E-07 7.52490E-14
2.97478E-07 6.63481E-14
3.21752E-07 5.82703E-14
3.46978E-07 5.14711E-14
3.73156E-07 4.57117E-14
4.00286E-07 4.05856E-14
4.28368E-07 3.61137E-14
4.57402E-07 3.22762E-14
4.87388E-07 2.89485E-14
5.18325E-07 2.59683E-14
5.50215E-07 2.33802E-14
5.83057E-07 2.11232E-14
6.16850E-07 1.91204E-14
6.51596E-07 1.73456E-14
6.87293E-07 1.57820E-14
7.23942E-07 1.43987E-14
7.61543E-07 1.31568E-14
1.18991E-06 5.99122E-15
1.71347E-06 3.17482E-15
2.33223E-06 1.85089E-15
3.04617E-06 1.14967E-15
3.85531E-06 7.48274E-16
4.75964E-06 5.05424E-16
5.75916E-06 3.52249E-16
6.85388E-06 2.52320E-16
8.04378E-06 1.85173E-16
9.32888E-06 1.38838E-16
1.07092E-05 1.06075E-16
1.21846E-05 8.24637E-17
1.37553E-05 6.50864E-17
1.54212E-05 5.20548E-17
1.71822E-05 4.21439E-17
1.90385E-05 3.44940E-17
2.09899E-05 2.85120E-17
2.30365E-05 2.37763E-17
2.51783E-05 1.99884E-17
2.74153E-05 1.69278E-17
2.97475E-05 1.44311E-17
3.21749E-05 1.23801E-17
3.46974E-05 1.06822E-17
3.73152E-05 9.26562E-18
4.00281E-05 8.07677E-18
4.28362E-05 7.07316E-18
4.57395E-05 6.22065E-18
4.87380E-05 5.49249E-18
5.18317E-05 4.86791E-18
5.50205E-05 4.32969E-18
5.83045E-05 3.86348E-18
6.16838E-05 3.45842E-18
6.51582E-05 3.10513E-18
6.87277E-05 2.79572E-18
7.23925E-05 2.52385E-18
7.61524E-05 2.28425E-18
9.21439E-05 1.56825E-18
1.09658E-04 1.11175E-18
1.28695E-04 8.09760E-19
1.49255E-04 6.03585E-19
1.71338E-04 4.59005E-19
1.94942E-04 3.55204E-19
2.20070E-04 2.79141E-19
2.46720E-04 2.22384E-19
2.74892E-04 1.79341E-19
3.04586E-04 1.46226E-19
3.35803E-04 1.20413E-19
3.68542E-04 1.00054E-19
4.02802E-04 8.38225E-20
4.38585E-04 7.07538E-20
4.75889E-04 6.01369E-20
5.14715E-04 5.14396E-20
5.55063E-04 4.42603E-20
5.96931E-04 3.82917E-20
6.40321E-04 3.32969E-20
6.85233E-04 2.90913E-20
7.31665E-04 2.55297E-20
7.79618E-04 2.24974E-20
8.29092E-04 1.99027E-20
8.80086E-04 1.76719E-20
9.32601E-04 1.57454E-20
9.86636E-04 1.40748E-20
1.04219E-03 1.26202E-20
1.09927E-03 1.13490E-20
1.15786E-03 1.02342E-20
1.21797E-03 9.25306E-21
1.27961E-03 8.38694E-21
1.34276E-03 7.61998E-21
1.40743E-03 6.93885E-21
1.47362E-03 6.33228E-21
1.54133E-03 5.79067E-21
1.61056E-03 5.30584E-21
1.68131E-03 4.87080E-21
1.75357E-03 4.47952E-21
1.82735E-03 4.12682E-21
1.90265E-03 3.80823E-21
1.97947E-03 3.51985E-21
2.05780E-03 3.25832E-21
2.13765E-03 3.02067E-21
2.21902E-03 2.80435E-21
2.30190E-03 2.60709E-21
2.38630E-03 2.42690E-21
2.47222E-03 2.26206E-21
2.55965E-03 2.11100E-21
2.64859E-03 1.97237E-21
2.73905E-03 1.84496E-21
2.83103E-03 1.72770E-21
2.92452E-03 1.61963E-21
3.01952E-03 1.51990E-21
3.11604E-03 1.42774E-21
3.21407E-03 1.34249E-21
3.31362E-03 1.26352E-21
3.41468E-03 1.19028E-21
3.51725E-03 1.12229E-21
3.62133E-03 1.05909E-21
3.72692E-03 1.00030E-21
3.83403E-03 9.45536E-22
3.94265E-03 8.94481E-22
4.05278E-03 8.46834E-22
4.16442E-03 8.02327E-22
4.27757E-03 7.60714E-22
4.39223E-03 7.21771E-22
4.50840E-03 6.85295E-22
4.62608E-03 6.51101E-22
4.74527E-03 6.19020E-22
4.86597E-03 5.88896E-22
4.98817E-03 5.60587E-22
5.11188E-03 5.33965E-22
5.23711E-03 5.08908E-22
5.36383E-03 4.85309E-22
5.49207E-03 4.63065E-22
5.62181E-03 4.42086E-22
5.75306E-03 4.22285E-22
5.88581E-03 4.03583E-22
6.02007E-03 3.85909E-22
6.15583E-03 3.69194E-22
6.29310E-03 3.53378E-22
6.43187E-03 3.38402E-22
6.57214E-03 3.24214E-22
6.71392E-03 3.10764E-22
6.85720E-03 2.98006E-22
7.00198E-03 2.85898E-22
7.14827E-03 2.74402E-22
7.29605E-03 2.63479E-22
7.44534E-03 2.53096E-22
7.59612E-03 2.43221E-22
7.97965E-03 2.20567E-22
8.37255E-03 2.00499E-22
8.77480E-03 1.82669E-22
9.18641E-03 1.66784E-22
9.60736E-03 1.52594E-22
1.00376E-02 1.39887E-22
1.04773E-02 1.28479E-22
1.09262E-02 1.18215E-22
1.13844E-02 1.08959E-22
1.18520E-02 1.00594E-22
1.23288E-02 9.30200E-23
1.28150E-02 8.61476E-23
1.33104E-02 7.99005E-23
1.38150E-02 7.42114E-23
1.43290E-02 6.90215E-23
1.48521E-02 6.42790E-23
1.53845E-02 5.99383E-23
1.59262E-02 5.59591E-23
1.64770E-02 5.23059E-23
1.70371E-02 4.89470E-23
1.76063E-02 4.58544E-23
1.81848E-02 4.30030E-23
1.87724E-02 4.03706E-23
1.93692E-02 3.79372E-23
1.99751E-02 3.56851E-23
2.05901E-02 3.35982E-23
2.12143E-02 3.16621E-23
2.18476E-02 2.98640E-23
2.24900E-02 2.81921E-23
2.31415E-02 2.66360E-23
2.38021E-02 2.51862E-23
2.44717E-02 2.38339E-23
2.51504E-02 2.25715E-23
2.58382E-02 2.13918E-23
2.65349E-02 2.02885E-23
2.72407E-02 1.92556E-23
2.79555E-02 1.82877E-23
2.86793E-02 1.73801E-23
2.94120E-02 1.65283E-23
3.01537E-02 1.57282E-23
3.09043E-02 1.49760E-23
3.16639E-02 1.42684E-23
3.24324E-02 1.36022E-23
3.32098E-02 1.29745E-23
3.39961E-02 1.23827E-23
3.47912E-02 1.18244E-23
3.55952E-02 1.12972E-23
3.64081E-02 1.07992E-23
3.72297E-02 1.03283E-23
3.80602E-02 9.88294E-24
3.88995E-02 9.46133E-24
3.97476E-02 9.06202E-24
4.06044E-02 8.68358E-24
4.14700E-02 8.32474E-24
4.23443E-02 7.98426E-24
4.32273E-02 7.66105E-24
4.41190E-02 7.35405E-24
4.50194E-02 7.06229E-24
4.59284E-02 6.78488E-24
4.68461E-02 6.52097E-24
4.87074E-02 6.03059E-24
5.06030E-02 5.58548E-24
5.25328E-02 5.18071E-24
5.44967E-02 4.81196E-24
5.64946E-02 4.47545E-24
5.85262E-02 4.16784E-24
6.05914E-02 3.88620E-24
6.26901E-02 3.62793E-24
6.48222E-02 3.39074E-24
6.69873E-02 3.17260E-24
6.91854E-02 2.97170E-24
7.14163E-02 2.78642E-24
7.36799E-02 2.61532E-24
7.59760E-02 2.45713E-24
7.83043E-02 2.31068E-24
8.06647E-02 2.17494E-24
8.30571E-02 2.04900E-24
8.54812E-02 1.93200E-24
8.79369E-02 1.82320E-24
9.04240E-02 1.72191E-24
9.29422E-02 1.62753E-24
9.54915E-02 1.53949E-24
9.80716E-02 1.45729E-24
1.00682E-01 1.38047E-24
1.03323E-01 1.30861E-24
1.05995E-01 1.24133E-24
1.08696E-01 1.17829E-24
1.11427E-01 1.11916E-24
1.14188E-01 1.06367E-24
1.16978E-01 1.01154E-24
1.19797E-01 9.62541E-25
1.22645E-01 9.16441E-25
1.25522E-01 8.73038E-25
1.28428E-01 8.32147E-25
1.31361E-01 7.93594E-25
1.34323E-01 7.57222E-25
1.37313E-01 7.22883E-25
1.40330E-01 6.90443E-25
1.43375E-01 6.59778E-25
1.46447E-01 6.30772E-25
1.49545E-01 6.03319E-25
1.52671E-01 5.77321E-25
1.55823E-01 5.52685E-25
1.59001E-01 5.29328E-25
1.62205E-01 5.07170E-25
1.65435E-01 4.86139E-25
1.68690E-01 4.66167E-25
1.71970E-01 4.47191E-25
1.75276E-01 4.29151E-25
1.78606E-01 4.11993E-25
1.81961E-01 3.95666E-25
1.85340E-01 3.80122E-25
1.88743E-01 3.65317E-25
1.92169E-01 3.51209E-25
1.95619E-01 3.37759E-25
1.99092E-01 3.24931E-25
2.02589E-01 3.12691E-25
2.06107E-01 3.01007E-25
2.09649E-01 2.89849E-25
2.13212E-01 2.79189E-25
2.16797E-01 2.69000E-25
2.20404E-01 2.59259E-25
2.24032E-01 2.49941E-25
2.27680E-01 2.41025E-25
2.31350E-01 2.32491E-25
2.35040E-01 2.24319E-25
2.38751E-01 2.16491E-25
2.42481E-01 2.08990E-25
2.46231E-01 2.01800E-25
2.50000E-01 1.94905E-25
2.53788E-01 1.88292E-25
2.57595E-01 1.81946E-25
2.61421E-01 1.75854E-25
2.65264E-01 1.70006E-25
2.69126E-01 1.64389E-25
2.73005E-01 1.58993E-25
2.76901E-01 1.53806E-25
2.80814E-01 1.48821E-25
2.84744E-01 1.44027E-25
2.88691E-01 1.39416E-25
2.92653E-01 1.34979E-25
2.96632E-01 1.30709E-25
3.00625E-01 1.26599E-25
3.04634E-01 1.22641E-25
3.08658E-01 1.18828E-25
3.12697E-01 1.15156E-25
3.16749E-01 1.11616E-25
3.20816E-01 1.08204E-25
3.24896E-01 1.04915E-25
3.28990E-01 1.01743E-25
3.33097E-01 9.86826E-26
3.37216E-01 9.57300E-26
3.41348E-01 9.28806E-26
3.45492E-01 9.01301E-26
3.49647E-01 8.74745E-26
3.53814E-01 8.49098E-26
3.57992E-01 8.24325E-26
3.62181E-01 8.00390E-26
3.66381E-01 7.77261E-26
3.70590E-01 7.54905E-26
3.74810E-01 7.33293E-26
3.79039E-01 7.12394E-26
3.83277E-01 6.92182E-26
3.87524E-01 6.72630E-26
3.91780E-01 6.53713E-26
3.96044E-01 6.35406E-26
4.00316E-01 6.17687E-26
4.04596E-01 6.00534E-26
4.08882E-01 5.83925E-26
4.13176E-01 5.67840E-26
4.17476E-01 5.52260E-26
4.21783E-01 5.37167E-26
4.26095E-01 5.22542E-26
4.30413E-01 5.08369E-26
4.34737E-01 4.94631E-26
4.39065E-01 4.81313E-26
4.43398E-01 4.68399E-26
4.47736E-01 4.55876E-26
4.52077E-01 4.43730E-26
4.56422E-01 4.31947E-26
4.60770E-01 4.20516E-26
4.65122E-01 4.09422E-26
4.69476E-01 3.98656E-26
4.73832E-01 3.88206E-26
4.78190E-01 3.78060E-26
4.82550E-01 3.68209E-26
4.86912E-01 3.58643E-26
4.91274E-01 3.49352E-26
4.95637E-01 3.40328E-26
5.00000E-01 3.31560E-26
5.04363E-01 3.23041E-26
5.08726E-01 3.14762E-26
5.13088E-01 3.06716E-26
5.17450E-01 2.98895E-26
5.21810E-01 2.91292E-26
5.26168E-01 2.83900E-26
5.30524E-01 2.76711E-26
5.34878E-01 2.69720E-26
5.39230E-01 2.62921E-26
5.43578E-01 2.56306E-26
5.47923E-01 2.49871E-26
5.52264E-01 2.43610E-26
5.56602E-01 2.37517E-26
5.60935E-01 2.31587E-26
5.65263E-01 2.25815E-26
5.69587E-01 2.20197E-26
5.73905E-01 2.14727E-26
5.78217E-01 2.09401E-26
5.82524E-01 2.04215E-26
5.86824E-01 1.99164E-26
5.91118E-01 1.94245E-26
5.95404E-01 1.89454E-26
5.99684E-01 1.84786E-26
6.03956E-01 1.80238E-26
6.08220E-01 1.75807E-26
6.12476E-01 1.71489E-26
6.16723E-01 1.67281E-26
6.20961E-01 1.63179E-26
6.25190E-01 1.59182E-26
6.29410E-01 1.55284E-26
6.33619E-01 1.51485E-26
6.37819E-01 1.47780E-26
6.42008E-01 1.44168E-26
6.46186E-01 1.40645E-26
6.50353E-01 1.37209E-26
6.54508E-01 1.33858E-26
6.58652E-01 1.30590E-26
6.62784E-01 1.27401E-26
6.66903E-01 1.24290E-26
6.71010E-01 1.21255E-26
6.75104E-01 1.18294E-26
6.79184E-01 1.15404E-26
6.83251E-01 1.12583E-26
6.87303E-01 1.09831E-26
6.91342E-01 1.07144E-26
6.95366E-01 1.04522E-26
6.99375E-01 1.01961E-26
7.03368E-01 9.94622E-27
7.07347E-01 9.70221E-27
7.11309E-01 9.46396E-27
7.15256E-01 9.23132E-27
7.19186E-01 9.00415E-27
7.23099E-01 8.78229E-27
7.26995E-01 8.56562E-27
7.30874E-01 8.35399E-27
7.34736E-01 8.14728E-27
7.38579E-01 7.94536E-27
7.42405E-01 7.74812E-27
7.46212E-01 7.55542E-27
7.50000E-01 7.36716E-27
7.53769E-01 7.18322E-27
7.57519E-01 7.00350E-27
7.61249E-01 6.82789E-27
7.64960E-01 6.65629E-27
7.68650E-01 6.48859E-27
7.72320E-01 6.32470E-27
7.75968E-01 6.16454E-27
7.79596E-01 6.00800E-27
7.83203E-01 5.85500E-27
7.86788E-01 5.70545E-27
7.90351E-01 5.55927E-27
7.93893E-01 5.41638E-27
7.97411E-01 5.27670E-27
8.00908E-01 5.14015E-27
8.04381E-01 5.00666E-27
8.07831E-01 4.87615E-27
8.11257E-01 4.74856E-27
8.14660E-01 4.62382E-27
8.18039E-01 4.50186E-27
8.21394E-01 4.38261E-27
8.24724E-01 4.26602E-27
8.28030E-01 4.15202E-27
8.31310E-01 4.04055E-27
8.34565E-01 3.93156E-27
8.37795E-01 3.82499E-27
8.40999E-01 3.72078E-27
8.44177E-01 3.61888E-27
8.47329E-01 3.51924E-27
8.50455E-01 3.42181E-27
8.53553E-01 3.32655E-27
8.56625E-01 3.23339E-27
8.59670E-01 3.14230E-27
8.62687E-01 3.05323E-27
8.65677E-01 2.96614E-27
8.68639E-01 2.88098E-27
8.71572E-01 2.79772E-27
8.74478E-01 2.71631E-27
8.77355E-01 2.63671E-27
8.80203E-01 2.55889E-27
8.83022E-01 2.48280E-27
8.85812E-01 2.40842E-27
8.88573E-01 2.33570E-27
8.91304E-01 2.26462E-27
8.94005E-01 2.19513E-27
8.96677E-01 2.12721E-27
8.99318E-01 2.06082E-27
9.01928E-01 1.99594E-27
9.04508E-01 1.93253E-27
9.07058E-01 1.87057E-27
9.09576E-01 1.81002E-27
9.12063E-01 1.75086E-27
9.14519E-01 1.69307E-27
9.16943E-01 1.63661E-27
9.19335E-01 1.58145E-27
9.21696E-01 1.52759E-27
9.24024E-01 1.47498E-27
9.26320E-01 1.42361E-27
9.28584E-01 1.37346E-27
9.30815E-01 1.32450E-27
9.33013E-01 1.27671E-27
9.35178E-01 1.23007E-27
9.37310E-01 1.18456E-27
9.39409E-01 1.14016E-27
9.41474E-01 1.09685E-27
9.43505E-01 1.05461E-27
9.45503E-01 1.01343E-27
9.47467E-01 9.73278E-28
9.49397E-01 9.34148E-28
9.51293E-01 8.96019E-28
9.53154E-01 8.58876E-28
9.54981E-01 8.22702E-28
9.56773E-01 7.87483E-28
9.58530E-01 7.53203E-28
9.60252E-01 7.19848E-28
9.61940E-01 6.87403E-28
9.63592E-01 6.55857E-28
9.65209E-01 6.25194E-28
9.66790E-01 5.95402E-28
9.68336E-01 5.66470E-28
9.69846E-01 5.38384E-28
9.71321E-01 5.11134E-28
9.72759E-01 4.84708E-28
9.74162E-01 4.59095E-28
9.75528E-01 4.34285E-28
9.76858E-01 4.10267E-28
9.78152E-01 3.87031E-28
9.79410E-01 3.64569E-28
9.80631E-01 3.42871E-28
9.81815E-01 3.21928E-28
9.82963E-01 3.01731E-28
9.84074E-01 2.82273E-28
9.85148E-01 2.63546E-28
9.86185E-01 2.45541E-28
9.87185E-01 2.28253E-28
9.88148E-01 2.11673E-28
9.89074E-01 1.95795E-28
9.89962E-01 1.80613E-28
9.90814E-01 1.66121E-28
9.91627E-01 1.52313E-28
9.92404E-01 1.39183E-28
9.93143E-01 1.26726E-28
9.93844E-01 1.14938E-28
9.94508E-01 1.03812E-28
9.95134E-01 9.33463E-29
9.95722E-01 8.35351E-29
9.96273E-01 7.43749E-29
9.96786E-01 6.58621E-29
9.97261E-01 5.79933E-29
9.97698E-01 5.07654E-29
9.98097E-01 4.41755E-29
9.98459E-01 3.82210E-29
9.98782E-01 3.28996E-29
9.99067E-01 2.82092E-29
9.99315E-01 2.41479E-29
9.99524E-01 2.07142E-29
9.99695E-01 1.79066E-29
9.99829E-01 1.57240E-29
9.99924E-01 1.41657E-29
9.99981E-01 1.32309E-29
1.00000E+00 1.29195E-29
