 #
 # Subroutine ELSEPA. Elastic scattering of electrons and positrons
 #                    by neutral atoms and positive ions
 #
 # Projectile: electron
 # Kinetic energy = 1.50000E+06 eV = 5.51240E+04 a.u.
 #
 # WARNING: High-energy factorization with free-atom DF screening.
 #          Absorption, polarization and exchange corrections are
 #          switched off.
 #          Phase shifts are calculated for the bare nucleus.
 #          Scattering amplitudes are not evaluated.
 #
 # Element: Mn,  Z =  25,  atomic weight = 5.49380E+01 g/mol
 #
 # Nuclear model: Fermi distribution
 #                Average radius = 4.06763E-13 cm
 #                Skin thickness = 5.46000E-14 cm
 #
 # Number of electrons = 25
 #
 # Total elastic cross section = 2.08897E-18 cm**2 = 7.45984E-02 a0**2
 # 1st transport cross section = 2.28946E-22 cm**2 = 8.17581E-06 a0**2
 # 2nd transport cross section = 6.41196E-22 cm**2 = 2.28975E-05 a0**2
 #
 #
 # Differential cross section:                       MU=(1-COS(THETA))/2
 #
 #  THETA        MU          DCS          DCS        Sherman      error
 #  (deg)                 (cm**2/sr)   (a0**2/sr)    function
 #----------------------------------------------------------------------
0.00000E+00 8.64751E-14
7.61557E-13 8.64750E-14
1.18994E-12 8.64749E-14
1.71346E-12 8.64749E-14
2.33225E-12 8.64748E-14
3.04617E-12 8.64747E-14
3.85530E-12 8.64746E-14
4.75964E-12 8.64745E-14
5.75917E-12 8.64743E-14
6.85391E-12 8.64742E-14
8.04379E-12 8.64740E-14
9.32893E-12 8.64739E-14
1.07092E-11 8.64737E-14
1.21847E-11 8.64735E-14
1.37554E-11 8.64733E-14
1.54213E-11 8.64730E-14
1.71823E-11 8.64728E-14
1.90386E-11 8.64726E-14
2.09900E-11 8.64723E-14
2.30367E-11 8.64720E-14
2.51785E-11 8.64717E-14
2.74156E-11 8.64714E-14
2.97478E-11 8.64711E-14
3.21752E-11 8.64708E-14
3.46979E-11 8.64704E-14
3.73157E-11 8.64701E-14
4.00286E-11 8.64697E-14
4.28368E-11 8.64693E-14
4.57402E-11 8.64689E-14
4.87388E-11 8.64685E-14
5.18325E-11 8.64681E-14
5.50215E-11 8.64677E-14
5.83057E-11 8.64672E-14
6.16850E-11 8.64668E-14
6.51595E-11 8.64663E-14
6.87293E-11 8.64658E-14
7.23943E-11 8.64653E-14
7.61544E-11 8.64648E-14
1.18991E-10 8.64589E-14
1.71347E-10 8.64518E-14
2.33223E-10 8.64433E-14
3.04617E-10 8.64335E-14
3.85531E-10 8.64224E-14
4.75965E-10 8.64100E-14
5.75917E-10 8.63963E-14
6.85389E-10 8.63813E-14
8.04380E-10 8.63649E-14
9.32891E-10 8.63473E-14
1.07092E-09 8.63284E-14
1.21847E-09 8.63081E-14
1.37554E-09 8.62866E-14
1.54213E-09 8.62637E-14
1.71823E-09 8.62396E-14
1.90386E-09 8.62142E-14
2.09900E-09 8.61874E-14
2.30367E-09 8.61594E-14
2.51785E-09 8.61301E-14
2.74156E-09 8.60995E-14
2.97478E-09 8.60676E-14
3.21752E-09 8.60344E-14
3.46978E-09 8.60000E-14
3.73156E-09 8.59642E-14
4.00286E-09 8.59272E-14
4.28368E-09 8.58889E-14
4.57402E-09 8.58494E-14
4.87388E-09 8.58085E-14
5.18326E-09 8.57665E-14
5.50215E-09 8.57231E-14
5.83057E-09 8.56785E-14
6.16850E-09 8.56326E-14
6.51596E-09 8.55855E-14
6.87293E-09 8.55371E-14
7.23942E-09 8.54875E-14
7.61544E-09 8.54366E-14
1.18991E-08 8.48605E-14
1.71347E-08 8.41645E-14
2.33223E-08 8.33536E-14
3.04617E-08 8.24332E-14
3.85531E-08 8.14095E-14
4.75965E-08 8.02890E-14
5.75917E-08 7.90791E-14
6.85389E-08 7.77828E-14
8.04380E-08 7.64151E-14
9.32891E-08 7.49871E-14
1.07092E-07 7.34905E-14
1.21847E-07 7.19485E-14
1.37554E-07 7.03699E-14
1.54213E-07 6.87437E-14
1.71823E-07 6.70982E-14
1.90386E-07 6.54348E-14
2.09900E-07 6.37487E-14
2.30367E-07 6.20643E-14
2.51785E-07 6.03771E-14
2.74156E-07 5.86896E-14
2.97478E-07 5.70204E-14
3.21752E-07 5.53600E-14
3.46978E-07 5.37178E-14
3.73156E-07 5.21060E-14
4.00286E-07 5.05113E-14
4.28368E-07 4.89485E-14
4.57402E-07 4.74241E-14
4.87388E-07 4.59223E-14
5.18325E-07 4.44616E-14
5.50215E-07 4.30412E-14
5.83057E-07 4.16512E-14
6.16850E-07 4.03052E-14
6.51596E-07 3.89990E-14
6.87293E-07 3.77284E-14
7.23942E-07 3.65017E-14
7.61543E-07 3.53132E-14
1.18991E-06 2.54840E-14
1.71347E-06 1.87568E-14
2.33223E-06 1.41620E-14
3.04617E-06 1.09511E-14
3.85531E-06 8.63779E-15
4.75964E-06 6.91679E-15
5.75916E-06 5.60477E-15
6.85388E-06 4.53120E-15
8.04378E-06 3.72065E-15
9.32888E-06 3.11616E-15
1.07092E-05 2.57342E-15
1.21846E-05 2.15134E-15
1.37553E-05 1.82132E-15
1.54212E-05 1.52585E-15
1.71822E-05 1.29343E-15
1.90385E-05 1.10367E-15
2.09899E-05 9.39471E-16
2.30365E-05 8.06794E-16
2.51783E-05 6.95580E-16
2.74153E-05 6.00789E-16
2.97475E-05 5.22487E-16
3.21749E-05 4.55792E-16
3.46974E-05 3.99112E-16
3.73152E-05 3.51418E-16
4.00281E-05 3.10319E-16
4.28362E-05 2.75177E-16
4.57395E-05 2.45116E-16
4.87380E-05 2.18939E-16
5.18317E-05 1.96326E-16
5.50205E-05 1.76687E-16
5.83045E-05 1.59451E-16
6.16838E-05 1.44385E-16
6.51582E-05 1.31130E-16
6.87277E-05 1.19393E-16
7.23925E-05 1.09023E-16
7.61524E-05 9.97891E-17
9.21439E-05 7.15899E-17
1.09658E-04 5.29278E-17
1.28695E-04 4.00335E-17
1.49255E-04 3.08759E-17
1.71338E-04 2.41781E-17
1.94942E-04 1.91870E-17
2.20070E-04 1.54061E-17
2.46720E-04 1.24937E-17
2.74892E-04 1.02288E-17
3.04586E-04 8.44312E-18
3.35803E-04 7.02487E-18
3.68542E-04 5.88775E-18
4.02802E-04 4.96854E-18
4.38585E-04 4.22043E-18
4.75889E-04 3.60635E-18
5.14715E-04 3.09944E-18
5.55063E-04 2.67799E-18
5.96931E-04 2.32558E-18
6.40321E-04 2.02875E-18
6.85233E-04 1.77816E-18
7.31665E-04 1.56560E-18
7.79618E-04 1.38340E-18
8.29092E-04 1.22724E-18
8.80086E-04 1.09272E-18
9.32601E-04 9.76006E-19
9.86636E-04 8.74658E-19
1.04219E-03 7.86224E-19
1.09927E-03 7.08681E-19
1.15786E-03 6.40592E-19
1.21797E-03 5.80514E-19
1.27961E-03 5.27335E-19
1.34276E-03 4.80190E-19
1.40743E-03 4.38196E-19
1.47362E-03 4.00723E-19
1.54133E-03 3.67228E-19
1.61056E-03 3.37139E-19
1.68131E-03 3.10100E-19
1.75357E-03 2.85755E-19
1.82735E-03 2.63726E-19
1.90265E-03 2.43809E-19
1.97947E-03 2.25754E-19
2.05780E-03 2.09327E-19
2.13765E-03 1.94388E-19
2.21902E-03 1.80762E-19
2.30190E-03 1.68304E-19
2.38630E-03 1.56915E-19
2.47222E-03 1.46472E-19
2.55965E-03 1.36883E-19
2.64859E-03 1.28077E-19
2.73905E-03 1.19961E-19
2.83103E-03 1.12481E-19
2.92452E-03 1.05583E-19
3.01952E-03 9.91980E-20
3.11604E-03 9.32931E-20
3.21407E-03 8.78257E-20
3.31362E-03 8.27468E-20
3.41468E-03 7.80343E-20
3.51725E-03 7.36542E-20
3.62133E-03 6.95738E-20
3.72692E-03 6.57756E-20
3.83403E-03 6.22329E-20
3.94265E-03 5.89243E-20
4.05278E-03 5.58352E-20
4.16442E-03 5.29448E-20
4.27757E-03 5.02389E-20
4.39223E-03 4.77056E-20
4.50840E-03 4.53283E-20
4.62608E-03 4.30980E-20
4.74527E-03 4.10047E-20
4.86597E-03 3.90350E-20
4.98817E-03 3.71832E-20
5.11188E-03 3.54408E-20
5.23711E-03 3.37980E-20
5.36383E-03 3.22502E-20
5.49207E-03 3.07903E-20
5.62181E-03 2.94114E-20
5.75306E-03 2.81096E-20
5.88581E-03 2.68789E-20
6.02007E-03 2.57147E-20
6.15583E-03 2.46134E-20
6.29310E-03 2.35701E-20
6.43187E-03 2.25816E-20
6.57214E-03 2.16448E-20
6.71392E-03 2.07557E-20
6.85720E-03 1.99120E-20
7.00198E-03 1.91112E-20
7.14827E-03 1.83497E-20
7.29605E-03 1.76261E-20
7.44534E-03 1.69380E-20
7.59612E-03 1.62829E-20
7.97965E-03 1.47791E-20
8.37255E-03 1.34453E-20
8.77480E-03 1.22589E-20
9.18641E-03 1.12007E-20
9.60736E-03 1.02545E-20
1.00376E-02 9.40627E-21
1.04773E-02 8.64420E-21
1.09262E-02 7.95795E-21
1.13844E-02 7.33863E-21
1.18520E-02 6.77856E-21
1.23288E-02 6.27105E-21
1.28150E-02 5.81029E-21
1.33104E-02 5.39118E-21
1.38150E-02 5.00930E-21
1.43290E-02 4.66074E-21
1.48521E-02 4.34207E-21
1.53845E-02 4.05027E-21
1.59262E-02 3.78265E-21
1.64770E-02 3.53685E-21
1.70371E-02 3.31076E-21
1.76063E-02 3.10250E-21
1.81848E-02 2.91043E-21
1.87724E-02 2.73304E-21
1.93692E-02 2.56902E-21
1.99751E-02 2.41716E-21
2.05901E-02 2.27640E-21
2.12143E-02 2.14578E-21
2.18476E-02 2.02443E-21
2.24900E-02 1.91157E-21
2.31415E-02 1.80649E-21
2.38021E-02 1.70857E-21
2.44717E-02 1.61722E-21
2.51504E-02 1.53192E-21
2.58382E-02 1.45219E-21
2.65349E-02 1.37760E-21
2.72407E-02 1.30776E-21
2.79555E-02 1.24231E-21
2.86793E-02 1.18092E-21
2.94120E-02 1.12329E-21
3.01537E-02 1.06914E-21
3.09043E-02 1.01824E-21
3.16639E-02 9.70340E-22
3.24324E-02 9.25236E-22
3.32098E-02 8.82734E-22
3.39961E-02 8.42654E-22
3.47912E-02 8.04833E-22
3.55952E-02 7.69119E-22
3.64081E-02 7.35372E-22
3.72297E-02 7.03464E-22
3.80602E-02 6.73274E-22
3.88995E-02 6.44694E-22
3.97476E-02 6.17620E-22
4.06044E-02 5.91959E-22
4.14700E-02 5.67622E-22
4.23443E-02 5.44527E-22
4.32273E-02 5.22600E-22
4.41190E-02 5.01770E-22
4.50194E-02 4.81972E-22
4.59284E-02 4.63145E-22
4.68461E-02 4.45231E-22
4.87074E-02 4.11937E-22
5.06030E-02 3.81709E-22
5.25328E-02 3.54213E-22
5.44967E-02 3.29157E-22
5.64946E-02 3.06285E-22
5.85262E-02 2.85371E-22
6.05914E-02 2.66218E-22
6.26901E-02 2.48649E-22
6.48222E-02 2.32510E-22
6.69873E-02 2.17663E-22
6.91854E-02 2.03985E-22
7.14163E-02 1.91368E-22
7.36799E-02 1.79713E-22
7.59760E-02 1.68933E-22
7.83043E-02 1.58951E-22
8.06647E-02 1.49697E-22
8.30571E-02 1.41107E-22
8.54812E-02 1.33126E-22
8.79369E-02 1.25701E-22
9.04240E-02 1.18787E-22
9.29422E-02 1.12342E-22
9.54915E-02 1.06329E-22
9.80716E-02 1.00712E-22
1.00682E-01 9.54618E-23
1.03323E-01 9.05487E-23
1.05995E-01 8.59473E-23
1.08696E-01 8.16342E-23
1.11427E-01 7.75879E-23
1.14188E-01 7.37887E-23
1.16978E-01 7.02188E-23
1.19797E-01 6.68616E-23
1.22645E-01 6.37022E-23
1.25522E-01 6.07266E-23
1.28428E-01 5.79221E-23
1.31361E-01 5.52771E-23
1.34323E-01 5.27807E-23
1.37313E-01 5.04230E-23
1.40330E-01 4.81949E-23
1.43375E-01 4.60878E-23
1.46447E-01 4.40940E-23
1.49545E-01 4.22062E-23
1.52671E-01 4.04176E-23
1.55823E-01 3.87222E-23
1.59001E-01 3.71141E-23
1.62205E-01 3.55879E-23
1.65435E-01 3.41387E-23
1.68690E-01 3.27619E-23
1.71970E-01 3.14532E-23
1.75276E-01 3.02086E-23
1.78606E-01 2.90242E-23
1.81961E-01 2.78968E-23
1.85340E-01 2.68229E-23
1.88743E-01 2.57996E-23
1.92169E-01 2.48241E-23
1.95619E-01 2.38936E-23
1.99092E-01 2.30058E-23
2.02589E-01 2.21582E-23
2.06107E-01 2.13487E-23
2.09649E-01 2.05754E-23
2.13212E-01 1.98361E-23
2.16797E-01 1.91293E-23
2.20404E-01 1.84531E-23
2.24032E-01 1.78060E-23
2.27680E-01 1.71865E-23
2.31350E-01 1.65933E-23
2.35040E-01 1.60249E-23
2.38751E-01 1.54801E-23
2.42481E-01 1.49579E-23
2.46231E-01 1.44570E-23
2.50000E-01 1.39764E-23
2.53788E-01 1.35152E-23
2.57595E-01 1.30724E-23
2.61421E-01 1.26472E-23
2.65264E-01 1.22386E-23
2.69126E-01 1.18460E-23
2.73005E-01 1.14687E-23
2.76901E-01 1.11058E-23
2.80814E-01 1.07568E-23
2.84744E-01 1.04209E-23
2.88691E-01 1.00977E-23
2.92653E-01 9.78657E-24
2.96632E-01 9.48694E-24
3.00625E-01 9.19832E-24
3.04634E-01 8.92024E-24
3.08658E-01 8.65223E-24
3.12697E-01 8.39387E-24
3.16749E-01 8.14474E-24
3.20816E-01 7.90445E-24
3.24896E-01 7.67262E-24
3.28990E-01 7.44891E-24
3.33097E-01 7.23298E-24
3.37216E-01 7.02450E-24
3.41348E-01 6.82318E-24
3.45492E-01 6.62871E-24
3.49647E-01 6.44083E-24
3.53814E-01 6.25926E-24
3.57992E-01 6.08376E-24
3.62181E-01 5.91409E-24
3.66381E-01 5.75002E-24
3.70590E-01 5.59132E-24
3.74810E-01 5.43780E-24
3.79039E-01 5.28924E-24
3.83277E-01 5.14546E-24
3.87524E-01 5.00629E-24
3.91780E-01 4.87153E-24
3.96044E-01 4.74104E-24
4.00316E-01 4.61464E-24
4.04596E-01 4.49219E-24
4.08882E-01 4.37354E-24
4.13176E-01 4.25855E-24
4.17476E-01 4.14709E-24
4.21783E-01 4.03903E-24
4.26095E-01 3.93424E-24
4.30413E-01 3.83262E-24
4.34737E-01 3.73404E-24
4.39065E-01 3.63840E-24
4.43398E-01 3.54560E-24
4.47736E-01 3.45553E-24
4.52077E-01 3.36811E-24
4.56422E-01 3.28324E-24
4.60770E-01 3.20083E-24
4.65122E-01 3.12079E-24
4.69476E-01 3.04306E-24
4.73832E-01 2.96755E-24
4.78190E-01 2.89418E-24
4.82550E-01 2.82288E-24
4.86912E-01 2.75359E-24
4.91274E-01 2.68624E-24
4.95637E-01 2.62076E-24
5.00000E-01 2.55710E-24
5.04363E-01 2.49519E-24
5.08726E-01 2.43498E-24
5.13088E-01 2.37641E-24
5.17450E-01 2.31943E-24
5.21810E-01 2.26399E-24
5.26168E-01 2.21005E-24
5.30524E-01 2.15754E-24
5.34878E-01 2.10644E-24
5.39230E-01 2.05669E-24
5.43578E-01 2.00825E-24
5.47923E-01 1.96109E-24
5.52264E-01 1.91516E-24
5.56602E-01 1.87043E-24
5.60935E-01 1.82685E-24
5.65263E-01 1.78440E-24
5.69587E-01 1.74304E-24
5.73905E-01 1.70274E-24
5.78217E-01 1.66347E-24
5.82524E-01 1.62519E-24
5.86824E-01 1.58788E-24
5.91118E-01 1.55150E-24
5.95404E-01 1.51604E-24
5.99684E-01 1.48146E-24
6.03956E-01 1.44774E-24
6.08220E-01 1.41486E-24
6.12476E-01 1.38278E-24
6.16723E-01 1.35149E-24
6.20961E-01 1.32097E-24
6.25190E-01 1.29119E-24
6.29410E-01 1.26213E-24
6.33619E-01 1.23377E-24
6.37819E-01 1.20610E-24
6.42008E-01 1.17909E-24
6.46186E-01 1.15272E-24
6.50353E-01 1.12698E-24
6.54508E-01 1.10186E-24
6.58652E-01 1.07732E-24
6.62784E-01 1.05337E-24
6.66903E-01 1.02997E-24
6.71010E-01 1.00713E-24
6.75104E-01 9.84814E-25
6.79184E-01 9.63018E-25
6.83251E-01 9.41727E-25
6.87303E-01 9.20927E-25
6.91342E-01 9.00605E-25
6.95366E-01 8.80749E-25
6.99375E-01 8.61348E-25
7.03368E-01 8.42388E-25
7.07347E-01 8.23859E-25
7.11309E-01 8.05749E-25
7.15256E-01 7.88049E-25
7.19186E-01 7.70747E-25
7.23099E-01 7.53833E-25
7.26995E-01 7.37299E-25
7.30874E-01 7.21133E-25
7.34736E-01 7.05328E-25
7.38579E-01 6.89874E-25
7.42405E-01 6.74762E-25
7.46212E-01 6.59984E-25
7.50000E-01 6.45532E-25
7.53769E-01 6.31398E-25
7.57519E-01 6.17574E-25
7.61249E-01 6.04052E-25
7.64960E-01 5.90827E-25
7.68650E-01 5.77889E-25
7.72320E-01 5.65233E-25
7.75968E-01 5.52852E-25
7.79596E-01 5.40739E-25
7.83203E-01 5.28888E-25
7.86788E-01 5.17293E-25
7.90351E-01 5.05948E-25
7.93893E-01 4.94848E-25
7.97411E-01 4.83985E-25
8.00908E-01 4.73356E-25
8.04381E-01 4.62955E-25
8.07831E-01 4.52776E-25
8.11257E-01 4.42815E-25
8.14660E-01 4.33066E-25
8.18039E-01 4.23526E-25
8.21394E-01 4.14189E-25
8.24724E-01 4.05050E-25
8.28030E-01 3.96106E-25
8.31310E-01 3.87353E-25
8.34565E-01 3.78785E-25
8.37795E-01 3.70399E-25
8.40999E-01 3.62192E-25
8.44177E-01 3.54159E-25
8.47329E-01 3.46296E-25
8.50455E-01 3.38600E-25
8.53553E-01 3.31068E-25
8.56625E-01 3.23696E-25
8.59670E-01 3.16480E-25
8.62687E-01 3.09418E-25
8.65677E-01 3.02507E-25
8.68639E-01 2.95742E-25
8.71572E-01 2.89122E-25
8.74478E-01 2.82643E-25
8.77355E-01 2.76302E-25
8.80203E-01 2.70098E-25
8.83022E-01 2.64026E-25
8.85812E-01 2.58085E-25
8.88573E-01 2.52271E-25
8.91304E-01 2.46583E-25
8.94005E-01 2.41018E-25
8.96677E-01 2.35573E-25
8.99318E-01 2.30247E-25
9.01928E-01 2.25037E-25
9.04508E-01 2.19941E-25
9.07058E-01 2.14957E-25
9.09576E-01 2.10083E-25
9.12063E-01 2.05316E-25
9.14519E-01 2.00655E-25
9.16943E-01 1.96098E-25
9.19335E-01 1.91643E-25
9.21696E-01 1.87288E-25
9.24024E-01 1.83032E-25
9.26320E-01 1.78873E-25
9.28584E-01 1.74808E-25
9.30815E-01 1.70838E-25
9.33013E-01 1.66959E-25
9.35178E-01 1.63171E-25
9.37310E-01 1.59472E-25
9.39409E-01 1.55860E-25
9.41474E-01 1.52334E-25
9.43505E-01 1.48893E-25
9.45503E-01 1.45535E-25
9.47467E-01 1.42260E-25
9.49397E-01 1.39065E-25
9.51293E-01 1.35950E-25
9.53154E-01 1.32914E-25
9.54981E-01 1.29955E-25
9.56773E-01 1.27071E-25
9.58530E-01 1.24263E-25
9.60252E-01 1.21529E-25
9.61940E-01 1.18868E-25
9.63592E-01 1.16279E-25
9.65209E-01 1.13761E-25
9.66790E-01 1.11314E-25
9.68336E-01 1.08935E-25
9.69846E-01 1.06624E-25
9.71321E-01 1.04382E-25
9.72759E-01 1.02205E-25
9.74162E-01 1.00095E-25
9.75528E-01 9.80495E-26
9.76858E-01 9.60684E-26
9.78152E-01 9.41510E-26
9.79410E-01 9.22964E-26
9.80631E-01 9.05041E-26
9.81815E-01 8.87733E-26
9.82963E-01 8.71035E-26
9.84074E-01 8.54941E-26
9.85148E-01 8.39445E-26
9.86185E-01 8.24540E-26
9.87185E-01 8.10223E-26
9.88148E-01 7.96487E-26
9.89074E-01 7.83329E-26
9.89962E-01 7.70742E-26
9.90814E-01 7.58723E-26
9.91627E-01 7.47268E-26
9.92404E-01 7.36372E-26
9.93143E-01 7.26031E-26
9.93844E-01 7.16243E-26
9.94508E-01 7.07003E-26
9.95134E-01 6.98308E-26
9.95722E-01 6.90155E-26
9.96273E-01 6.82542E-26
9.96786E-01 6.75465E-26
9.97261E-01 6.68922E-26
9.97698E-01 6.62911E-26
9.98097E-01 6.57430E-26
9.98459E-01 6.52476E-26
9.98782E-01 6.48049E-26
9.99067E-01 6.44146E-26
9.99315E-01 6.40766E-26
9.99524E-01 6.37908E-26
9.99695E-01 6.35572E-26
9.99829E-01 6.33755E-26
9.99924E-01 6.32458E-26
9.99981E-01 6.31679E-26
1.00000E+00 6.31421E-26
