 #
 # Subroutine ELSEPA. Elastic scattering of electrons and positrons
 #                    by neutral atoms and positive ions
 #
 # Projectile: electron
 # Kinetic energy = 3.00000E+08 eV = 1.10248E+07 a.u.
 #
 # WARNING: High-energy factorization with free-atom DF screening.
 #          Absorption, polarization and exchange corrections are
 #          switched off.
 #          Phase shifts are calculated for the bare nucleus.
 #          Scattering amplitudes are not evaluated.
 #
 # Element: Lu,  Z =  71,  atomic weight = 1.74967E+02 g/mol
 #
 # Nuclear model: Fermi distribution
 #                Average radius = 5.98461E-13 cm
 #                Skin thickness = 5.46000E-14 cm
 #
 # Number of electrons = 71
 #
 # Total elastic cross section = 7.18346E-18 cm**2 = 2.56526E-01 a0**2
 # 1st transport cross section = 1.06618E-25 cm**2 = 3.80741E-09 a0**2
 # 2nd transport cross section = 3.19525E-25 cm**2 = 1.14104E-08 a0**2
 #
 #
 # Differential cross section:                       MU=(1-COS(THETA))/2
 #
 #  THETA        MU          DCS          DCS        Sherman      error
 #  (deg)                 (cm**2/sr)   (a0**2/sr)    function
 #----------------------------------------------------------------------
0.00000E+00 5.98368E-09
7.61557E-13 5.78903E-09
1.18994E-12 5.68420E-09
1.71346E-12 5.56037E-09
2.33225E-12 5.41976E-09
3.04617E-12 5.26487E-09
3.85530E-12 5.09822E-09
4.75964E-12 4.92241E-09
5.75917E-12 4.73984E-09
6.85391E-12 4.55307E-09
8.04379E-12 4.36408E-09
9.32893E-12 4.17505E-09
1.07092E-11 3.98757E-09
1.21847E-11 3.80324E-09
1.37554E-11 3.62331E-09
1.54213E-11 3.44864E-09
1.71823E-11 3.28034E-09
1.90386E-11 3.11848E-09
2.09900E-11 2.96414E-09
2.30367E-11 2.81676E-09
2.51785E-11 2.67722E-09
2.74156E-11 2.54482E-09
2.97478E-11 2.41992E-09
3.21752E-11 2.30204E-09
3.46979E-11 2.19108E-09
3.73157E-11 2.08674E-09
4.00286E-11 1.98860E-09
4.28368E-11 1.89654E-09
4.57402E-11 1.80997E-09
4.87388E-11 1.72881E-09
5.18325E-11 1.65250E-09
5.50215E-11 1.58088E-09
5.83057E-11 1.51354E-09
6.16850E-11 1.45023E-09
6.51595E-11 1.39064E-09
6.87293E-11 1.33453E-09
7.23943E-11 1.28161E-09
7.61544E-11 1.23175E-09
1.18991E-10 8.56426E-10
1.71347E-10 6.22321E-10
2.33223E-10 4.64169E-10
3.04617E-10 3.47740E-10
3.85531E-10 2.70564E-10
4.75965E-10 2.09901E-10
5.75917E-10 1.67444E-10
6.85389E-10 1.33200E-10
8.04380E-10 1.08248E-10
9.32891E-10 8.82929E-11
1.07092E-09 7.29573E-11
1.21847E-09 6.06726E-11
1.37554E-09 5.08284E-11
1.54213E-09 4.29102E-11
1.71823E-09 3.63557E-11
1.90386E-09 3.10626E-11
2.09900E-09 2.65733E-11
2.30367E-09 2.29168E-11
2.51785E-09 1.97917E-11
2.74156E-09 1.72031E-11
2.97478E-09 1.49951E-11
3.21752E-09 1.31332E-11
3.46978E-09 1.15445E-11
3.73156E-09 1.01859E-11
4.00286E-09 9.02381E-12
4.28368E-09 8.01860E-12
4.57402E-09 7.15517E-12
4.87388E-09 6.40108E-12
5.18326E-09 5.74875E-12
5.50215E-09 5.17629E-12
5.83057E-09 4.67672E-12
6.16850E-09 4.23730E-12
6.51596E-09 3.84872E-12
6.87293E-09 3.50359E-12
7.23942E-09 3.19708E-12
7.61544E-09 2.92474E-12
1.18991E-08 1.33242E-12
1.71347E-08 6.92991E-13
2.33223E-08 3.94634E-13
3.04617E-08 2.40448E-13
3.85531E-08 1.54620E-13
4.75965E-08 1.03919E-13
5.75917E-08 7.24199E-14
6.85389E-08 5.19893E-14
8.04380E-08 3.82964E-14
9.32891E-08 2.88321E-14
1.07092E-07 2.21198E-14
1.21847E-07 1.72556E-14
1.37554E-07 1.36571E-14
1.54213E-07 1.09500E-14
1.71823E-07 8.88205E-15
1.90386E-07 7.27889E-15
2.09900E-07 6.02169E-15
2.30367E-07 5.02426E-15
2.51785E-07 4.22459E-15
2.74156E-07 3.57777E-15
2.97478E-07 3.04987E-15
3.21752E-07 2.61568E-15
3.46978E-07 2.25603E-15
3.73156E-07 1.95596E-15
4.00286E-07 1.70413E-15
4.28368E-07 1.49152E-15
4.57402E-07 1.31099E-15
4.87388E-07 1.15697E-15
5.18325E-07 1.02490E-15
5.50215E-07 9.11128E-16
5.83057E-07 8.12719E-16
6.16850E-07 7.27233E-16
6.51596E-07 6.52699E-16
6.87293E-07 5.87475E-16
7.23942E-07 5.30195E-16
7.61543E-07 4.79732E-16
1.18991E-06 1.98469E-16
1.71347E-06 9.63804E-17
2.33223E-06 5.22889E-17
3.04617E-06 3.07678E-17
3.85531E-06 1.92643E-17
4.75964E-06 1.26682E-17
5.75916E-06 8.66821E-18
6.85388E-06 6.12933E-18
8.04378E-06 4.45544E-18
9.32888E-06 3.31583E-18
1.07092E-05 2.51835E-18
1.21846E-05 1.94682E-18
1.37553E-05 1.52860E-18
1.54212E-05 1.21689E-18
1.71822E-05 9.80739E-19
1.90385E-05 7.98775E-19
2.09899E-05 6.57839E-19
2.30365E-05 5.46578E-19
2.51783E-05 4.57759E-19
2.74153E-05 3.86176E-19
2.97475E-05 3.28010E-19
3.21749E-05 2.80393E-19
3.46974E-05 2.41135E-19
3.73152E-05 2.08543E-19
4.00281E-05 1.81299E-19
4.28362E-05 1.58373E-19
4.57395E-05 1.38959E-19
4.87380E-05 1.22426E-19
5.18317E-05 1.08273E-19
5.50205E-05 9.61025E-20
5.83045E-05 8.55935E-20
6.16838E-05 7.64837E-20
6.51582E-05 6.85572E-20
6.87277E-05 6.16344E-20
7.23925E-05 5.55659E-20
7.61524E-05 5.05508E-20
9.21439E-05 3.45971E-20
1.09658E-04 2.44755E-20
1.28695E-04 1.78057E-20
1.49255E-04 1.32630E-20
1.71338E-04 1.00835E-20
1.94942E-04 7.80340E-21
2.20070E-04 6.13374E-21
2.46720E-04 4.88830E-21
2.74892E-04 3.94387E-21
3.04586E-04 3.21701E-21
3.35803E-04 2.65017E-21
3.68542E-04 2.20287E-21
4.02802E-04 1.84605E-21
4.38585E-04 1.55858E-21
4.75889E-04 1.32487E-21
5.14715E-04 1.13329E-21
5.55063E-04 9.75030E-22
5.96931E-04 8.43365E-22
6.40321E-04 7.33101E-22
6.85233E-04 6.40195E-22
7.31665E-04 5.61467E-22
7.79618E-04 4.94395E-22
8.29092E-04 4.36970E-22
8.80086E-04 3.87573E-22
9.32601E-04 3.44895E-22
9.86636E-04 3.07869E-22
1.04219E-03 2.75621E-22
1.09927E-03 2.47431E-22
1.15786E-03 2.22702E-22
1.21797E-03 2.00938E-22
1.27961E-03 1.81724E-22
1.34276E-03 1.64710E-22
1.40743E-03 1.49601E-22
1.47362E-03 1.36150E-22
1.54133E-03 1.24142E-22
1.61056E-03 1.13397E-22
1.68131E-03 1.03760E-22
1.75357E-03 9.50975E-23
1.82735E-03 8.72942E-23
1.90265E-03 8.02508E-23
1.97947E-03 7.38808E-23
2.05780E-03 6.81091E-23
2.13765E-03 6.28703E-23
2.21902E-03 5.81069E-23
2.30190E-03 5.37687E-23
2.38630E-03 4.98115E-23
2.47222E-03 4.61964E-23
2.55965E-03 4.28889E-23
2.64859E-03 3.98586E-23
2.73905E-03 3.70786E-23
2.83103E-03 3.45248E-23
2.92452E-03 3.21758E-23
3.01952E-03 3.00128E-23
3.11604E-03 2.80185E-23
3.21407E-03 2.61777E-23
3.31362E-03 2.44769E-23
3.41468E-03 2.29036E-23
3.51725E-03 2.14469E-23
3.62133E-03 2.00967E-23
3.72692E-03 1.88442E-23
3.83403E-03 1.76811E-23
3.94265E-03 1.66001E-23
4.05278E-03 1.55947E-23
4.16442E-03 1.46586E-23
4.27757E-03 1.37864E-23
4.39223E-03 1.29732E-23
4.50840E-03 1.22143E-23
4.62608E-03 1.15056E-23
4.74527E-03 1.08434E-23
4.86597E-03 1.02241E-23
4.98817E-03 9.64456E-24
5.11188E-03 9.10191E-24
5.23711E-03 8.59346E-24
5.36383E-03 8.11677E-24
5.49207E-03 7.66958E-24
5.62181E-03 7.24985E-24
5.75306E-03 6.85564E-24
5.88581E-03 6.48522E-24
6.02007E-03 6.13696E-24
6.15583E-03 5.80938E-24
6.29310E-03 5.50108E-24
6.43187E-03 5.21080E-24
6.57214E-03 4.93735E-24
6.71392E-03 4.67965E-24
6.85720E-03 4.43667E-24
7.00198E-03 4.20747E-24
7.14827E-03 3.99119E-24
7.29605E-03 3.78702E-24
7.44534E-03 3.59419E-24
7.59612E-03 3.41201E-24
7.97965E-03 2.99899E-24
8.37255E-03 2.63953E-24
8.77480E-03 2.32604E-24
9.18641E-03 2.05213E-24
9.60736E-03 1.81235E-24
1.00376E-02 1.60212E-24
1.04773E-02 1.41750E-24
1.09262E-02 1.25514E-24
1.13844E-02 1.11216E-24
1.18520E-02 9.86109E-25
1.23288E-02 8.74843E-25
1.28150E-02 7.76528E-25
1.33104E-02 6.89574E-25
1.38150E-02 6.12599E-25
1.43290E-02 5.44403E-25
1.48521E-02 4.83942E-25
1.53845E-02 4.30301E-25
1.59262E-02 3.82684E-25
1.64770E-02 3.40391E-25
1.70371E-02 3.02810E-25
1.76063E-02 2.69402E-25
1.81848E-02 2.39693E-25
1.87724E-02 2.13265E-25
1.93692E-02 1.89751E-25
1.99751E-02 1.68824E-25
2.05901E-02 1.50198E-25
2.12143E-02 1.33618E-25
2.18476E-02 1.18858E-25
2.24900E-02 1.05719E-25
2.31415E-02 9.40222E-26
2.38021E-02 8.36106E-26
2.44717E-02 7.43440E-26
2.51504E-02 6.60975E-26
2.58382E-02 5.87603E-26
2.65349E-02 5.22335E-26
2.72407E-02 4.64289E-26
2.79555E-02 4.12681E-26
2.86793E-02 3.66811E-26
2.94120E-02 3.26054E-26
3.01537E-02 2.89852E-26
3.09043E-02 2.57709E-26
3.16639E-02 2.29180E-26
3.24324E-02 2.03869E-26
3.32098E-02 1.81422E-26
3.39961E-02 1.61523E-26
3.47912E-02 1.43890E-26
3.55952E-02 1.28271E-26
3.64081E-02 1.14441E-26
3.72297E-02 1.02200E-26
3.80602E-02 9.13692E-27
3.88995E-02 8.17884E-27
3.97476E-02 7.33155E-27
4.06044E-02 6.58237E-27
4.14700E-02 5.92002E-27
4.23443E-02 5.33444E-27
4.32273E-02 4.81668E-27
4.41190E-02 4.35879E-27
4.50194E-02 3.95369E-27
4.59284E-02 3.59513E-27
4.68461E-02 3.27753E-27
4.87074E-02 2.74605E-27
5.06030E-02 2.32622E-27
5.25328E-02 1.99225E-27
5.44967E-02 1.72411E-27
5.64946E-02 1.50633E-27
5.85262E-02 1.32702E-27
6.05914E-02 1.17712E-27
6.26901E-02 1.04977E-27
6.48222E-02 9.39837E-28
6.69873E-02 8.43476E-28
6.91854E-02 7.57870E-28
7.14163E-02 6.80959E-28
7.36799E-02 6.11251E-28
7.59760E-02 5.47676E-28
7.83043E-02 4.89465E-28
8.06647E-02 4.36069E-28
8.30571E-02 3.87084E-28
8.54812E-02 3.42207E-28
8.79369E-02 3.01198E-28
9.04240E-02 2.63853E-28
9.29422E-02 2.29989E-28
9.54915E-02 1.99430E-28
9.80716E-02 1.71999E-28
1.00682E-01 1.47517E-28
1.03323E-01 1.25799E-28
1.05995E-01 1.06657E-28
1.08696E-01 8.98991E-29
1.11427E-01 7.53305E-29
1.14188E-01 6.27585E-29
1.16978E-01 5.19932E-29
1.19797E-01 4.28496E-29
1.22645E-01 3.51497E-29
1.25522E-01 2.87243E-29
1.28428E-01 2.34141E-29
1.31361E-01 1.90707E-29
1.34323E-01 1.55574E-29
1.37313E-01 1.27497E-29
1.40330E-01 1.05348E-29
1.43375E-01 8.81214E-30
1.46447E-01 7.49271E-30
1.49545E-01 6.49861E-30
1.52671E-01 5.76246E-30
1.55823E-01 5.22663E-30
1.59001E-01 4.84250E-30
1.62205E-01 4.56962E-30
1.65435E-01 4.37486E-30
1.68690E-01 4.23160E-30
1.71970E-01 4.11892E-30
1.75276E-01 4.02082E-30
1.78606E-01 3.92550E-30
1.81961E-01 3.82471E-30
1.85340E-01 3.71308E-30
1.88743E-01 3.58761E-30
1.92169E-01 3.44717E-30
1.95619E-01 3.29206E-30
1.99092E-01 3.12363E-30
2.02589E-01 2.94395E-30
2.06107E-01 2.75558E-30
2.09649E-01 2.56131E-30
2.13212E-01 2.36400E-30
2.16797E-01 2.16643E-30
2.20404E-01 1.97123E-30
2.24032E-01 1.78075E-30
2.27680E-01 1.59706E-30
2.31350E-01 1.42188E-30
2.35040E-01 1.25661E-30
2.38751E-01 1.10230E-30
2.42481E-01 9.59692E-31
2.46231E-01 8.29215E-31
2.50000E-01 7.11031E-31
2.53788E-01 6.05061E-31
2.57595E-01 5.11018E-31
2.61421E-01 4.28446E-31
2.65264E-01 3.56748E-31
2.69126E-01 2.95221E-31
2.73005E-01 2.43085E-31
2.76901E-01 1.99513E-31
2.80814E-01 1.63651E-31
2.84744E-01 1.34642E-31
2.88691E-01 1.11645E-31
2.92653E-01 9.38460E-32
2.96632E-01 8.04743E-32
3.00625E-01 7.08088E-32
3.04634E-01 6.41856E-32
3.08658E-01 6.00020E-32
3.12697E-01 5.77190E-32
3.16749E-01 5.68613E-32
3.20816E-01 5.70168E-32
3.24896E-01 5.78340E-32
3.28990E-01 5.90190E-32
3.33097E-01 6.03317E-32
3.37216E-01 6.15809E-32
3.41348E-01 6.26202E-32
3.45492E-01 6.33426E-32
3.49647E-01 6.36757E-32
3.53814E-01 6.35770E-32
3.57992E-01 6.30289E-32
3.62181E-01 6.20345E-32
3.66381E-01 6.06136E-32
3.70590E-01 5.87987E-32
3.74810E-01 5.66316E-32
3.79039E-01 5.41607E-32
3.83277E-01 5.14383E-32
3.87524E-01 4.85182E-32
3.91780E-01 4.54540E-32
3.96044E-01 4.22975E-32
4.00316E-01 3.90977E-32
4.04596E-01 3.58998E-32
4.08882E-01 3.27443E-32
4.13176E-01 2.96669E-32
4.17476E-01 2.66984E-32
4.21783E-01 2.38642E-32
4.26095E-01 2.11846E-32
4.30413E-01 1.86752E-32
4.34737E-01 1.63470E-32
4.39065E-01 1.42067E-32
4.43398E-01 1.22573E-32
4.47736E-01 1.04982E-32
4.52077E-01 8.92607E-33
4.56422E-01 7.53510E-33
4.60770E-01 6.31732E-33
4.65122E-01 5.26319E-33
4.69476E-01 4.36188E-33
4.73832E-01 3.60173E-33
4.78190E-01 2.97049E-33
4.82550E-01 2.45565E-33
4.86912E-01 2.04471E-33
4.91274E-01 1.72538E-33
4.95637E-01 1.48574E-33
5.00000E-01 1.31445E-33
5.04363E-01 1.20081E-33
5.08726E-01 1.13488E-33
5.13088E-01 1.10751E-33
5.17450E-01 1.11044E-33
5.21810E-01 1.13622E-33
5.26168E-01 1.17830E-33
5.30524E-01 1.23096E-33
5.34878E-01 1.28930E-33
5.39230E-01 1.34918E-33
5.43578E-01 1.40720E-33
5.47923E-01 1.46061E-33
5.52264E-01 1.50728E-33
5.56602E-01 1.54563E-33
5.60935E-01 1.57458E-33
5.65263E-01 1.59347E-33
5.69587E-01 1.60201E-33
5.73905E-01 1.60022E-33
5.78217E-01 1.58841E-33
5.82524E-01 1.56706E-33
5.86824E-01 1.53685E-33
5.91118E-01 1.49856E-33
5.95404E-01 1.45309E-33
5.99684E-01 1.40137E-33
6.03956E-01 1.34436E-33
6.08220E-01 1.28303E-33
6.12476E-01 1.21832E-33
6.16723E-01 1.15116E-33
6.20961E-01 1.08241E-33
6.25190E-01 1.01287E-33
6.29410E-01 9.43283E-34
6.33619E-01 8.74322E-34
6.37819E-01 8.06578E-34
6.42008E-01 7.40570E-34
6.46186E-01 6.76742E-34
6.50353E-01 6.15463E-34
6.54508E-01 5.57033E-34
6.58652E-01 5.01685E-34
6.62784E-01 4.49590E-34
6.66903E-01 4.00862E-34
6.71010E-01 3.55561E-34
6.75104E-01 3.13704E-34
6.79184E-01 2.75265E-34
6.83251E-01 2.40181E-34
6.87303E-01 2.08362E-34
6.91342E-01 1.79690E-34
6.95366E-01 1.54026E-34
6.99375E-01 1.31215E-34
7.03368E-01 1.11092E-34
7.07347E-01 9.34815E-35
7.11309E-01 7.82019E-35
7.15256E-01 6.50712E-35
7.19186E-01 5.39071E-35
7.23099E-01 4.45296E-35
7.26995E-01 3.67638E-35
7.30874E-01 3.04404E-35
7.34736E-01 2.53976E-35
7.38579E-01 2.14818E-35
7.42405E-01 1.85489E-35
7.46212E-01 1.64639E-35
7.50000E-01 1.51021E-35
7.53769E-01 1.43486E-35
7.57519E-01 1.40988E-35
7.61249E-01 1.42579E-35
7.64960E-01 1.47407E-35
7.68650E-01 1.54714E-35
7.72320E-01 1.63831E-35
7.75968E-01 1.74172E-35
7.79596E-01 1.85230E-35
7.83203E-01 1.96574E-35
7.86788E-01 2.07838E-35
7.90351E-01 2.18720E-35
7.93893E-01 2.28973E-35
7.97411E-01 2.38402E-35
8.00908E-01 2.46860E-35
8.04381E-01 2.54236E-35
8.07831E-01 2.60457E-35
8.11257E-01 2.65483E-35
8.14660E-01 2.69297E-35
8.18039E-01 2.71906E-35
8.21394E-01 2.73337E-35
8.24724E-01 2.73632E-35
8.28030E-01 2.72844E-35
8.31310E-01 2.71038E-35
8.34565E-01 2.68286E-35
8.37795E-01 2.64663E-35
8.40999E-01 2.60249E-35
8.44177E-01 2.55125E-35
8.47329E-01 2.49374E-35
8.50455E-01 2.43076E-35
8.53553E-01 2.36308E-35
8.56625E-01 2.29148E-35
8.59670E-01 2.21667E-35
8.62687E-01 2.13934E-35
8.65677E-01 2.06011E-35
8.68639E-01 1.97962E-35
8.71572E-01 1.89838E-35
8.74478E-01 1.81692E-35
8.77355E-01 1.73567E-35
8.80203E-01 1.65506E-35
8.83022E-01 1.57544E-35
8.85812E-01 1.49714E-35
8.88573E-01 1.42042E-35
8.91304E-01 1.34554E-35
8.94005E-01 1.27268E-35
8.96677E-01 1.20201E-35
8.99318E-01 1.13367E-35
9.01928E-01 1.06777E-35
9.04508E-01 1.00437E-35
9.07058E-01 9.43537E-36
9.09576E-01 8.85297E-36
9.12063E-01 8.29651E-36
9.14519E-01 7.76608E-36
9.16943E-01 7.26134E-36
9.19335E-01 6.78202E-36
9.21696E-01 6.32760E-36
9.24024E-01 5.89751E-36
9.26320E-01 5.49119E-36
9.28584E-01 5.10778E-36
9.30815E-01 4.74665E-36
9.33013E-01 4.40693E-36
9.35178E-01 4.08781E-36
9.37310E-01 3.78842E-36
9.39409E-01 3.50790E-36
9.41474E-01 3.24536E-36
9.43505E-01 3.00000E-36
9.45503E-01 2.77086E-36
9.47467E-01 2.55719E-36
9.49397E-01 2.35807E-36
9.51293E-01 2.17274E-36
9.53154E-01 2.00038E-36
9.54981E-01 1.84028E-36
9.56773E-01 1.69165E-36
9.58530E-01 1.55384E-36
9.60252E-01 1.42613E-36
9.61940E-01 1.30790E-36
9.63592E-01 1.19850E-36
9.65209E-01 1.09739E-36
9.66790E-01 1.00399E-36
9.68336E-01 9.17782E-37
9.69846E-01 8.38264E-37
9.71321E-01 7.64945E-37
9.72759E-01 6.97423E-37
9.74162E-01 6.35263E-37
9.75528E-01 5.78078E-37
9.76858E-01 5.25502E-37
9.78152E-01 4.77193E-37
9.79410E-01 4.32829E-37
9.80631E-01 3.92114E-37
9.81815E-01 3.54777E-37
9.82963E-01 3.20546E-37
9.84074E-01 2.89188E-37
9.85148E-01 2.60485E-37
9.86185E-01 2.34226E-37
9.87185E-01 2.10212E-37
9.88148E-01 1.88270E-37
9.89074E-01 1.68227E-37
9.89962E-01 1.49954E-37
9.90814E-01 1.33283E-37
9.91627E-01 1.18100E-37
9.92404E-01 1.04290E-37
9.93143E-01 9.17207E-38
9.93844E-01 8.03207E-38
9.94508E-01 6.99896E-38
9.95134E-01 6.06296E-38
9.95722E-01 5.21798E-38
9.96273E-01 4.45665E-38
9.96786E-01 3.77238E-38
9.97261E-01 3.15978E-38
9.97698E-01 2.61300E-38
9.98097E-01 2.12834E-38
9.98459E-01 1.70173E-38
9.98782E-01 1.32888E-38
9.99067E-01 1.00707E-38
9.99315E-01 7.33846E-39
9.99524E-01 5.06413E-39
9.99695E-01 3.22835E-39
9.99829E-01 1.81729E-39
9.99924E-01 8.17046E-40
9.99981E-01 2.21173E-40
1.00000E+00 2.29030E-41
