 #
 # Subroutine ELSEPA. Elastic scattering of electrons and positrons
 #                    by neutral atoms and positive ions
 #
 # Projectile: electron
 # Kinetic energy = 4.00000E+08 eV = 1.46997E+07 a.u.
 #
 # WARNING: High-energy factorization with free-atom DF screening.
 #          Absorption, polarization and exchange corrections are
 #          switched off.
 #          Phase shifts are calculated for the bare nucleus.
 #          Scattering amplitudes are not evaluated.
 #
 # Element: Lu,  Z =  71,  atomic weight = 1.74967E+02 g/mol
 #
 # Nuclear model: Fermi distribution
 #                Average radius = 5.98461E-13 cm
 #                Skin thickness = 5.46000E-14 cm
 #
 # Number of electrons = 71
 #
 # Total elastic cross section = 7.17870E-18 cm**2 = 2.56356E-01 a0**2
 # 1st transport cross section = 5.99271E-26 cm**2 = 2.14003E-09 a0**2
 # 2nd transport cross section = 1.79675E-25 cm**2 = 6.41632E-09 a0**2
 #
 #
 # Differential cross section:                       MU=(1-COS(THETA))/2
 #
 #  THETA        MU          DCS          DCS        Sherman      error
 #  (deg)                 (cm**2/sr)   (a0**2/sr)    function
 #----------------------------------------------------------------------
0.00000E+00 1.06286E-08
7.61557E-13 1.00274E-08
1.18994E-12 9.71394E-09
1.71346E-12 9.35279E-09
2.33225E-12 8.95450E-09
3.04617E-12 8.52986E-09
3.85530E-12 8.08917E-09
4.75964E-12 7.64167E-09
5.75917E-12 7.19539E-09
6.85391E-12 6.75775E-09
8.04379E-12 6.33381E-09
9.32893E-12 5.92742E-09
1.07092E-11 5.54163E-09
1.21847E-11 5.17881E-09
1.37554E-11 4.83908E-09
1.54213E-11 4.52259E-09
1.71823E-11 4.22940E-09
1.90386E-11 3.95859E-09
2.09900E-11 3.70873E-09
2.30367E-11 3.47861E-09
2.51785E-11 3.26718E-09
2.74156E-11 3.07271E-09
2.97478E-11 2.89382E-09
3.21752E-11 2.72925E-09
3.46979E-11 2.57765E-09
3.73157E-11 2.43783E-09
4.00286E-11 2.30876E-09
4.28368E-11 2.18937E-09
4.57402E-11 2.07860E-09
4.87388E-11 1.97583E-09
5.18325E-11 1.88036E-09
5.50215E-11 1.79121E-09
5.83057E-11 1.70792E-09
6.16850E-11 1.63012E-09
6.51595E-11 1.55733E-09
6.87293E-11 1.48864E-09
7.23943E-11 1.42414E-09
7.61544E-11 1.36350E-09
1.18991E-10 9.07801E-10
1.71347E-10 6.18252E-10
2.33223E-10 4.42088E-10
3.04617E-10 3.20176E-10
3.85531E-10 2.36856E-10
4.75965E-10 1.79419E-10
5.75917E-10 1.38521E-10
6.85389E-10 1.07899E-10
8.04380E-10 8.53060E-11
9.32891E-10 6.83181E-11
1.07092E-09 5.52462E-11
1.21847E-09 4.49532E-11
1.37554E-09 3.69330E-11
1.54213E-09 3.06010E-11
1.71823E-09 2.55184E-11
1.90386E-09 2.14231E-11
2.09900E-09 1.81193E-11
2.30367E-09 1.54300E-11
2.51785E-09 1.32140E-11
2.74156E-09 1.13868E-11
2.97478E-09 9.87085E-12
3.21752E-09 8.60382E-12
3.46978E-09 7.53761E-12
3.73156E-09 6.63313E-12
4.00286E-09 5.86224E-12
4.28368E-09 5.20277E-12
4.57402E-09 4.63551E-12
4.87388E-09 4.14599E-12
5.18326E-09 3.72139E-12
5.50215E-09 3.35036E-12
5.83057E-09 3.02502E-12
6.16850E-09 2.73889E-12
6.51596E-09 2.48623E-12
6.87293E-09 2.26140E-12
7.23942E-09 2.06160E-12
7.61544E-09 1.88352E-12
1.18991E-08 8.39941E-13
1.71347E-08 4.27754E-13
2.33223E-08 2.39893E-13
3.04617E-08 1.44774E-13
3.85531E-08 9.24916E-14
4.75965E-08 6.18383E-14
5.75917E-08 4.29062E-14
6.85389E-08 3.06984E-14
8.04380E-08 2.25409E-14
9.32891E-08 1.69221E-14
1.07092E-07 1.29494E-14
1.21847E-07 1.00761E-14
1.37554E-07 7.95643E-15
1.54213E-07 6.36493E-15
1.71823E-07 5.15164E-15
1.90386E-07 4.21376E-15
2.09900E-07 3.47966E-15
2.30367E-07 2.89850E-15
2.51785E-07 2.43363E-15
2.74156E-07 2.05823E-15
2.97478E-07 1.75246E-15
3.21752E-07 1.50140E-15
3.46978E-07 1.29371E-15
3.73156E-07 1.12073E-15
4.00286E-07 9.75712E-16
4.28368E-07 8.53408E-16
4.57402E-07 7.49686E-16
4.87388E-07 6.61259E-16
5.18325E-07 5.85498E-16
5.50215E-07 5.20287E-16
5.83057E-07 4.63909E-16
6.16850E-07 4.14968E-16
6.51596E-07 3.72317E-16
6.87293E-07 3.35009E-16
7.23942E-07 3.02262E-16
7.61543E-07 2.73421E-16
1.18991E-06 1.12878E-16
1.71347E-06 5.47242E-17
2.33223E-06 2.96477E-17
3.04617E-06 1.74250E-17
3.85531E-06 1.08998E-17
4.75964E-06 7.16215E-18
5.75916E-06 4.89766E-18
6.85388E-06 3.46141E-18
8.04378E-06 2.51507E-18
9.32888E-06 1.87112E-18
1.07092E-05 1.42070E-18
1.21846E-05 1.09801E-18
1.37553E-05 8.61963E-19
1.54212E-05 6.86075E-19
1.71822E-05 5.52854E-19
1.90385E-05 4.50221E-19
2.09899E-05 3.70743E-19
2.30365E-05 3.08009E-19
2.51783E-05 2.57936E-19
2.74153E-05 2.17585E-19
2.97475E-05 1.84800E-19
3.21749E-05 1.57963E-19
3.46974E-05 1.35840E-19
3.73152E-05 1.17474E-19
4.00281E-05 1.02123E-19
4.28362E-05 8.92056E-20
4.57395E-05 7.82681E-20
4.87380E-05 6.89536E-20
5.18317E-05 6.09805E-20
5.50205E-05 5.41246E-20
5.83045E-05 4.82048E-20
6.16838E-05 4.30734E-20
6.51582E-05 3.86087E-20
6.87277E-05 3.47094E-20
7.23925E-05 3.12915E-20
7.61524E-05 2.85636E-20
9.21439E-05 1.95528E-20
1.09658E-04 1.38340E-20
1.28695E-04 1.00643E-20
1.49255E-04 7.49607E-21
1.71338E-04 5.69791E-21
1.94942E-04 4.40784E-21
2.20070E-04 3.46298E-21
2.46720E-04 2.75807E-21
2.74892E-04 2.22344E-21
3.04586E-04 1.81203E-21
3.35803E-04 1.49122E-21
3.68542E-04 1.23809E-21
4.02802E-04 1.03619E-21
4.38585E-04 8.73569E-22
4.75889E-04 7.41400E-22
5.14715E-04 6.33094E-22
5.55063E-04 5.43664E-22
5.96931E-04 4.69303E-22
6.40321E-04 4.07067E-22
6.85233E-04 3.54665E-22
7.31665E-04 3.10294E-22
7.79618E-04 2.72526E-22
8.29092E-04 2.40221E-22
8.80086E-04 2.12461E-22
9.32601E-04 1.88504E-22
9.86636E-04 1.67746E-22
1.04219E-03 1.49690E-22
1.09927E-03 1.33928E-22
1.15786E-03 1.20122E-22
1.21797E-03 1.07991E-22
1.27961E-03 9.72987E-23
1.34276E-03 8.78476E-23
1.40743E-03 7.94709E-23
1.47362E-03 7.20271E-23
1.54133E-03 6.53961E-23
1.61056E-03 5.94753E-23
1.68131E-03 5.41768E-23
1.75357E-03 4.94251E-23
1.82735E-03 4.51552E-23
1.90265E-03 4.13107E-23
1.97947E-03 3.78430E-23
2.05780E-03 3.47095E-23
2.13765E-03 3.18732E-23
2.21902E-03 2.93018E-23
2.30190E-03 2.69670E-23
2.38630E-03 2.48439E-23
2.47222E-03 2.29104E-23
2.55965E-03 2.11474E-23
2.64859E-03 1.95375E-23
2.73905E-03 1.80658E-23
2.83103E-03 1.67187E-23
2.92452E-03 1.54842E-23
3.01952E-03 1.43516E-23
3.11604E-03 1.33116E-23
3.21407E-03 1.23554E-23
3.31362E-03 1.14754E-23
3.41468E-03 1.06649E-23
3.51725E-03 9.91769E-24
3.62133E-03 9.22816E-24
3.72692E-03 8.59133E-24
3.83403E-03 8.00272E-24
3.94265E-03 7.45823E-24
4.05278E-03 6.95419E-24
4.16442E-03 6.48724E-24
4.27757E-03 6.05435E-24
4.39223E-03 5.65277E-24
4.50840E-03 5.27999E-24
4.62608E-03 4.93373E-24
4.74527E-03 4.61191E-24
4.86597E-03 4.31263E-24
4.98817E-03 4.03415E-24
5.11188E-03 3.77488E-24
5.23711E-03 3.53339E-24
5.36383E-03 3.30833E-24
5.49207E-03 3.09849E-24
5.62181E-03 2.90275E-24
5.75306E-03 2.72008E-24
5.88581E-03 2.54952E-24
6.02007E-03 2.39023E-24
6.15583E-03 2.24138E-24
6.29310E-03 2.10225E-24
6.43187E-03 1.97215E-24
6.57214E-03 1.85045E-24
6.71392E-03 1.73657E-24
6.85720E-03 1.62998E-24
7.00198E-03 1.53018E-24
7.14827E-03 1.43670E-24
7.29605E-03 1.34912E-24
7.44534E-03 1.26705E-24
7.59612E-03 1.19013E-24
7.97965E-03 1.01812E-24
8.37255E-03 8.71500E-25
8.77480E-03 7.46361E-25
9.18641E-03 6.39437E-25
9.60736E-03 5.47989E-25
1.00376E-02 4.69714E-25
1.04773E-02 4.02668E-25
1.09262E-02 3.45209E-25
1.13844E-02 2.95945E-25
1.18520E-02 2.53693E-25
1.23288E-02 2.17448E-25
1.28150E-02 1.86352E-25
1.33104E-02 1.59674E-25
1.38150E-02 1.36789E-25
1.43290E-02 1.17161E-25
1.48521E-02 1.00330E-25
1.53845E-02 8.59034E-26
1.59262E-02 7.35426E-26
1.64770E-02 6.29569E-26
1.70371E-02 5.38965E-26
1.76063E-02 4.61461E-26
1.81848E-02 3.95207E-26
1.87724E-02 3.38608E-26
1.93692E-02 2.90292E-26
1.99751E-02 2.49075E-26
2.05901E-02 2.13940E-26
2.12143E-02 1.84009E-26
2.18476E-02 1.58529E-26
2.24900E-02 1.36848E-26
2.31415E-02 1.18410E-26
2.38021E-02 1.02735E-26
2.44717E-02 8.94102E-27
2.51504E-02 7.80830E-27
2.58382E-02 6.84505E-27
2.65349E-02 6.02539E-27
2.72407E-02 5.32718E-27
2.79555E-02 4.73154E-27
2.86793E-02 4.22240E-27
2.94120E-02 3.78607E-27
3.01537E-02 3.41095E-27
3.09043E-02 3.08723E-27
3.16639E-02 2.80660E-27
3.24324E-02 2.56209E-27
3.32098E-02 2.34781E-27
3.39961E-02 2.15886E-27
3.47912E-02 1.99111E-27
3.55952E-02 1.84116E-27
3.64081E-02 1.70617E-27
3.72297E-02 1.58380E-27
3.80602E-02 1.47212E-27
3.88995E-02 1.36955E-27
3.97476E-02 1.27480E-27
4.06044E-02 1.18683E-27
4.14700E-02 1.10479E-27
4.23443E-02 1.02799E-27
4.32273E-02 9.55876E-28
4.41190E-02 8.88016E-28
4.50194E-02 8.24053E-28
4.59284E-02 7.63701E-28
4.68461E-02 7.06730E-28
4.87074E-02 6.02212E-28
5.06030E-02 5.09338E-28
5.25328E-02 4.27237E-28
5.44967E-02 3.55181E-28
5.64946E-02 2.92487E-28
5.85262E-02 2.38473E-28
6.05914E-02 1.92439E-28
6.26901E-02 1.53658E-28
6.48222E-02 1.21392E-28
6.69873E-02 9.48993E-29
6.91854E-02 7.34538E-29
7.14163E-02 5.63560E-29
7.36799E-02 4.29472E-29
7.59760E-02 3.26187E-29
7.83043E-02 2.48186E-29
8.06647E-02 1.90559E-29
8.30571E-02 1.49014E-29
8.54812E-02 1.19871E-29
8.79369E-02 1.00036E-29
9.04240E-02 8.69587E-30
9.29422E-02 7.85861E-30
9.54915E-02 7.33046E-30
9.80716E-02 6.98842E-30
1.00682E-01 6.74206E-30
1.03323E-01 6.52802E-30
1.05995E-01 6.30490E-30
1.08696E-01 6.04850E-30
1.11427E-01 5.74780E-30
1.14188E-01 5.40132E-30
1.16978E-01 5.01413E-30
1.19797E-01 4.59543E-30
1.22645E-01 4.15655E-30
1.25522E-01 3.70949E-30
1.28428E-01 3.26580E-30
1.31361E-01 2.83585E-30
1.34323E-01 2.42836E-30
1.37313E-01 2.05013E-30
1.40330E-01 1.70604E-30
1.43375E-01 1.39906E-30
1.46447E-01 1.13048E-30
1.49545E-01 9.00112E-31
1.52671E-01 7.06531E-31
1.55823E-01 5.47383E-31
1.59001E-01 4.19626E-31
1.62205E-01 3.19778E-31
1.65435E-01 2.44133E-31
1.68690E-01 1.88947E-31
1.71970E-01 1.50581E-31
1.75276E-01 1.25624E-31
1.78606E-01 1.10967E-31
1.81961E-01 1.03864E-31
1.85340E-01 1.01956E-31
1.88743E-01 1.03277E-31
1.92169E-01 1.06247E-31
1.95619E-01 1.09641E-31
1.99092E-01 1.12563E-31
2.02589E-01 1.14401E-31
2.06107E-01 1.14790E-31
2.09649E-01 1.13561E-31
2.13212E-01 1.10706E-31
2.16797E-01 1.06337E-31
2.20404E-01 1.00648E-31
2.24032E-01 9.38872E-32
2.27680E-01 8.63299E-32
2.31350E-01 7.82566E-32
2.35040E-01 6.99369E-32
2.38751E-01 6.16171E-32
2.42481E-01 5.35121E-32
2.46231E-01 4.58001E-32
2.50000E-01 3.86209E-32
2.53788E-01 3.20755E-32
2.57595E-01 2.62291E-32
2.61421E-01 2.11133E-32
2.65264E-01 1.67313E-32
2.69126E-01 1.30620E-32
2.73005E-01 1.00652E-32
2.76901E-01 7.68613E-33
2.80814E-01 5.86025E-33
2.84744E-01 4.51711E-33
2.88691E-01 3.58401E-33
2.92653E-01 2.98906E-33
2.96632E-01 2.66356E-33
3.00625E-01 2.54383E-33
3.04634E-01 2.57259E-33
3.08658E-01 2.69973E-33
3.12697E-01 2.88274E-33
3.16749E-01 3.08676E-33
3.20816E-01 3.28427E-33
3.24896E-01 3.45469E-33
3.28990E-01 3.58365E-33
3.33097E-01 3.66232E-33
3.37216E-01 3.68652E-33
3.41348E-01 3.65593E-33
3.45492E-01 3.57329E-33
3.49647E-01 3.44360E-33
3.53814E-01 3.27348E-33
3.57992E-01 3.07048E-33
3.62181E-01 2.84261E-33
3.66381E-01 2.59786E-33
3.70590E-01 2.34388E-33
3.74810E-01 2.08769E-33
3.79039E-01 1.83550E-33
3.83277E-01 1.59259E-33
3.87524E-01 1.36326E-33
3.91780E-01 1.15082E-33
3.96044E-01 9.57611E-34
4.00316E-01 7.85084E-34
4.04596E-01 6.33891E-34
4.08882E-01 5.03979E-34
4.13176E-01 3.94706E-34
4.17476E-01 3.04959E-34
4.21783E-01 2.33256E-34
4.26095E-01 1.77862E-34
4.30413E-01 1.36878E-34
4.34737E-01 1.08332E-34
4.39065E-01 9.02457E-35
4.43398E-01 8.07039E-35
4.47736E-01 7.78971E-35
4.52077E-01 8.01602E-35
4.56422E-01 8.59980E-35
4.60770E-01 9.41013E-35
4.65122E-01 1.03353E-34
4.69476E-01 1.12829E-34
4.73832E-01 1.21790E-34
4.78190E-01 1.29673E-34
4.82550E-01 1.36072E-34
4.86912E-01 1.40727E-34
4.91274E-01 1.43499E-34
4.95637E-01 1.44357E-34
5.00000E-01 1.43353E-34
5.04363E-01 1.40609E-34
5.08726E-01 1.36296E-34
5.13088E-01 1.30622E-34
5.17450E-01 1.23816E-34
5.21810E-01 1.16114E-34
5.26168E-01 1.07755E-34
5.30524E-01 9.89668E-35
5.34878E-01 8.99636E-35
5.39230E-01 8.09390E-35
5.43578E-01 7.20639E-35
5.47923E-01 6.34842E-35
5.52264E-01 5.53205E-35
5.56602E-01 4.76677E-35
5.60935E-01 4.05963E-35
5.65263E-01 3.41541E-35
5.69587E-01 2.83681E-35
5.73905E-01 2.32467E-35
5.78217E-01 1.87824E-35
5.82524E-01 1.49544E-35
5.86824E-01 1.17309E-35
5.91118E-01 9.07169E-36
5.95404E-01 6.93046E-36
5.99684E-01 5.25676E-36
6.03956E-01 3.99792E-36
6.08220E-01 3.10073E-36
6.12476E-01 2.51267E-36
6.16723E-01 2.18325E-36
6.20961E-01 2.06467E-36
6.25190E-01 2.11267E-36
6.29410E-01 2.28689E-36
6.33619E-01 2.55133E-36
6.37819E-01 2.87430E-36
6.42008E-01 3.22857E-36
6.46186E-01 3.59122E-36
6.50353E-01 3.94344E-36
6.54508E-01 4.27029E-36
6.58652E-01 4.56037E-36
6.62784E-01 4.80548E-36
6.66903E-01 5.00027E-36
6.71010E-01 5.14186E-36
6.75104E-01 5.22945E-36
6.79184E-01 5.26401E-36
6.83251E-01 5.24791E-36
6.87303E-01 5.18462E-36
6.91342E-01 5.07842E-36
6.95366E-01 4.93416E-36
6.99375E-01 4.75703E-36
7.03368E-01 4.55235E-36
7.07347E-01 4.32548E-36
7.11309E-01 4.08155E-36
7.15256E-01 3.82551E-36
7.19186E-01 3.56195E-36
7.23099E-01 3.29506E-36
7.26995E-01 3.02863E-36
7.30874E-01 2.76596E-36
7.34736E-01 2.50992E-36
7.38579E-01 2.26290E-36
7.42405E-01 2.02686E-36
7.46212E-01 1.80336E-36
7.50000E-01 1.59355E-36
7.53769E-01 1.39821E-36
7.57519E-01 1.21784E-36
7.61249E-01 1.05261E-36
7.64960E-01 9.02461E-37
7.68650E-01 7.67132E-37
7.72320E-01 6.46162E-37
7.75968E-01 5.38970E-37
7.79596E-01 4.44841E-37
7.83203E-01 3.62984E-37
7.86788E-01 2.92550E-37
7.90351E-01 2.32652E-37
7.93893E-01 1.82380E-37
7.97411E-01 1.40837E-37
8.00908E-01 1.07125E-37
8.04381E-01 8.03756E-38
8.07831E-01 5.97703E-38
8.11257E-01 4.45135E-38
8.14660E-01 3.38695E-38
8.18039E-01 2.71511E-38
8.21394E-01 2.37276E-38
8.24724E-01 2.30222E-38
8.28030E-01 2.45142E-38
8.31310E-01 2.77359E-38
8.34565E-01 3.22734E-38
8.37795E-01 3.77638E-38
8.40999E-01 4.38891E-38
8.44177E-01 5.03793E-38
8.47329E-01 5.70035E-38
8.50455E-01 6.35691E-38
8.53553E-01 6.99196E-38
8.56625E-01 7.59270E-38
8.59670E-01 8.14950E-38
8.62687E-01 8.65476E-38
8.65677E-01 9.10319E-38
8.68639E-01 9.49183E-38
8.71572E-01 9.81857E-38
8.74478E-01 1.00832E-37
8.77355E-01 1.02863E-37
8.80203E-01 1.04300E-37
8.83022E-01 1.05163E-37
8.85812E-01 1.05485E-37
8.88573E-01 1.05297E-37
8.91304E-01 1.04642E-37
8.94005E-01 1.03555E-37
8.96677E-01 1.02076E-37
8.99318E-01 1.00252E-37
9.01928E-01 9.81218E-38
9.04508E-01 9.57215E-38
9.07058E-01 9.30921E-38
9.09576E-01 9.02715E-38
9.12063E-01 8.72904E-38
9.14519E-01 8.41876E-38
9.16943E-01 8.09883E-38
9.19335E-01 7.77240E-38
9.21696E-01 7.44187E-38
9.24024E-01 7.10944E-38
9.26320E-01 6.77775E-38
9.28584E-01 6.44789E-38
9.30815E-01 6.12215E-38
9.33013E-01 5.80175E-38
9.35178E-01 5.48791E-38
9.37310E-01 5.18177E-38
9.39409E-01 4.88417E-38
9.41474E-01 4.59581E-38
9.43505E-01 4.31758E-38
9.45503E-01 4.04940E-38
9.47467E-01 3.79224E-38
9.49397E-01 3.54568E-38
9.51293E-01 3.31023E-38
9.53154E-01 3.08571E-38
9.54981E-01 2.87240E-38
9.56773E-01 2.66976E-38
9.58530E-01 2.47809E-38
9.60252E-01 2.29685E-38
9.61940E-01 2.12597E-38
9.63592E-01 1.96493E-38
9.65209E-01 1.81370E-38
9.66790E-01 1.67178E-38
9.68336E-01 1.53892E-38
9.69846E-01 1.41467E-38
9.71321E-01 1.29850E-38
9.72759E-01 1.19032E-38
9.74162E-01 1.08959E-38
9.75528E-01 9.95940E-39
9.76858E-01 9.09013E-39
9.78152E-01 8.28408E-39
9.79410E-01 7.53754E-39
9.80631E-01 6.84713E-39
9.81815E-01 6.20983E-39
9.82963E-01 5.62154E-39
9.84074E-01 5.07945E-39
9.85148E-01 4.58103E-39
9.86185E-01 4.12319E-39
9.87185E-01 3.70258E-39
9.88148E-01 3.31725E-39
9.89074E-01 2.96377E-39
9.89962E-01 2.64176E-39
9.90814E-01 2.34688E-39
9.91627E-01 2.07807E-39
9.92404E-01 1.83386E-39
9.93143E-01 1.61080E-39
9.93844E-01 1.40917E-39
9.94508E-01 1.22678E-39
9.95134E-01 1.06129E-39
9.95722E-01 9.12319E-40
9.96273E-01 7.78422E-40
9.96786E-01 6.58160E-40
9.97261E-01 5.50813E-40
9.97698E-01 4.54796E-40
9.98097E-01 3.69936E-40
9.98459E-01 2.95600E-40
9.98782E-01 2.30509E-40
9.99067E-01 1.74443E-40
9.99315E-01 1.27074E-40
9.99524E-01 8.77069E-41
9.99695E-01 5.58798E-41
9.99829E-01 3.14766E-41
9.99924E-01 1.41252E-41
9.99981E-01 3.79078E-42
1.00000E+00 3.37762E-43
