 #
 # Subroutine ELSEPA. Elastic scattering of electrons and positrons
 #                    by neutral atoms and positive ions
 #
 # Projectile: electron
 # Kinetic energy = 2.00000E+06 eV = 7.34987E+04 a.u.
 #
 # WARNING: High-energy factorization with free-atom DF screening.
 #          Absorption, polarization and exchange corrections are
 #          switched off.
 #          Phase shifts are calculated for the bare nucleus.
 #          Scattering amplitudes are not evaluated.
 #
 # Element: Lu,  Z =  71,  atomic weight = 1.74967E+02 g/mol
 #
 # Nuclear model: Fermi distribution
 #                Average radius = 5.98461E-13 cm
 #                Skin thickness = 5.46000E-14 cm
 #
 # Number of electrons = 71
 #
 # Total elastic cross section = 7.51524E-18 cm**2 = 2.68374E-01 a0**2
 # 1st transport cross section = 1.25085E-21 cm**2 = 4.46688E-05 a0**2
 # 2nd transport cross section = 3.33564E-21 cm**2 = 1.19118E-04 a0**2
 #
 #
 # Differential cross section:                       MU=(1-COS(THETA))/2
 #
 #  THETA        MU          DCS          DCS        Sherman      error
 #  (deg)                 (cm**2/sr)   (a0**2/sr)    function
 #----------------------------------------------------------------------
0.00000E+00 4.17773E-13
7.61557E-13 4.17773E-13
1.18994E-12 4.17772E-13
1.71346E-12 4.17771E-13
2.33225E-12 4.17771E-13
3.04617E-12 4.17770E-13
3.85530E-12 4.17769E-13
4.75964E-12 4.17768E-13
5.75917E-12 4.17767E-13
6.85391E-12 4.17765E-13
8.04379E-12 4.17764E-13
9.32893E-12 4.17762E-13
1.07092E-11 4.17761E-13
1.21847E-11 4.17759E-13
1.37554E-11 4.17757E-13
1.54213E-11 4.17755E-13
1.71823E-11 4.17753E-13
1.90386E-11 4.17751E-13
2.09900E-11 4.17748E-13
2.30367E-11 4.17746E-13
2.51785E-11 4.17743E-13
2.74156E-11 4.17741E-13
2.97478E-11 4.17738E-13
3.21752E-11 4.17735E-13
3.46979E-11 4.17732E-13
3.73157E-11 4.17729E-13
4.00286E-11 4.17725E-13
4.28368E-11 4.17722E-13
4.57402E-11 4.17718E-13
4.87388E-11 4.17715E-13
5.18325E-11 4.17711E-13
5.50215E-11 4.17707E-13
5.83057E-11 4.17703E-13
6.16850E-11 4.17699E-13
6.51595E-11 4.17695E-13
6.87293E-11 4.17690E-13
7.23943E-11 4.17686E-13
7.61544E-11 4.17681E-13
1.18991E-10 4.17629E-13
1.71347E-10 4.17566E-13
2.33223E-10 4.17490E-13
3.04617E-10 4.17403E-13
3.85531E-10 4.17304E-13
4.75965E-10 4.17194E-13
5.75917E-10 4.17072E-13
6.85389E-10 4.16939E-13
8.04380E-10 4.16794E-13
9.32891E-10 4.16637E-13
1.07092E-09 4.16469E-13
1.21847E-09 4.16290E-13
1.37554E-09 4.16099E-13
1.54213E-09 4.15896E-13
1.71823E-09 4.15683E-13
1.90386E-09 4.15457E-13
2.09900E-09 4.15221E-13
2.30367E-09 4.14973E-13
2.51785E-09 4.14714E-13
2.74156E-09 4.14443E-13
2.97478E-09 4.14162E-13
3.21752E-09 4.13869E-13
3.46978E-09 4.13565E-13
3.73156E-09 4.13250E-13
4.00286E-09 4.12924E-13
4.28368E-09 4.12587E-13
4.57402E-09 4.12239E-13
4.87388E-09 4.11880E-13
5.18326E-09 4.11510E-13
5.50215E-09 4.11129E-13
5.83057E-09 4.10738E-13
6.16850E-09 4.10336E-13
6.51596E-09 4.09923E-13
6.87293E-09 4.09500E-13
7.23942E-09 4.09066E-13
7.61544E-09 4.08621E-13
1.18991E-08 4.03615E-13
1.71347E-08 3.97633E-13
2.33223E-08 3.90752E-13
3.04617E-08 3.83058E-13
3.85531E-08 3.74642E-13
4.75965E-08 3.65601E-13
5.75917E-08 3.56031E-13
6.85389E-08 3.46034E-13
8.04380E-08 3.35700E-13
9.32891E-08 3.25127E-13
1.07092E-07 3.14399E-13
1.21847E-07 3.03597E-13
1.37554E-07 2.92801E-13
1.54213E-07 2.82064E-13
1.71823E-07 2.71470E-13
1.90386E-07 2.61034E-13
2.09900E-07 2.50845E-13
2.30367E-07 2.40896E-13
2.51785E-07 2.31248E-13
2.74156E-07 2.21902E-13
2.97478E-07 2.12885E-13
3.21752E-07 2.04213E-13
3.46978E-07 1.95873E-13
3.73156E-07 1.87901E-13
4.00286E-07 1.80251E-13
4.28368E-07 1.72975E-13
4.57402E-07 1.66013E-13
4.87388E-07 1.59395E-13
5.18325E-07 1.53088E-13
5.50215E-07 1.47092E-13
5.83057E-07 1.41393E-13
6.16850E-07 1.35974E-13
6.51596E-07 1.30833E-13
6.87293E-07 1.25942E-13
7.23942E-07 1.21305E-13
7.61543E-07 1.16895E-13
1.18991E-06 8.30817E-14
1.71347E-06 6.17495E-14
2.33223E-06 4.73178E-14
3.04617E-06 3.69940E-14
3.85531E-06 2.92681E-14
4.75964E-06 2.31620E-14
5.75916E-06 1.89308E-14
6.85388E-06 1.53580E-14
8.04378E-06 1.26882E-14
9.32888E-06 1.05267E-14
1.07092E-05 8.80496E-15
1.21846E-05 7.43504E-15
1.37553E-05 6.29457E-15
1.54212E-05 5.39148E-15
1.71822E-05 4.61328E-15
1.90385E-05 3.99058E-15
2.09899E-05 3.45161E-15
2.30365E-05 3.00987E-15
2.51783E-05 2.62811E-15
2.74153E-05 2.30487E-15
2.97475E-05 2.02843E-15
3.21749E-05 1.78903E-15
3.46974E-05 1.58577E-15
3.73152E-05 1.40673E-15
4.00281E-05 1.25487E-15
4.28362E-05 1.11953E-15
4.57395E-05 1.00343E-15
4.87380E-05 9.00708E-16
5.18317E-05 8.11034E-16
5.50205E-05 7.32025E-16
5.83045E-05 6.62224E-16
6.16838E-05 6.00810E-16
6.51582E-05 5.46079E-16
6.87277E-05 4.97858E-16
7.23925E-05 4.54563E-16
7.61524E-05 4.16202E-16
9.21439E-05 2.98193E-16
1.09658E-04 2.19669E-16
1.28695E-04 1.65889E-16
1.49255E-04 1.27929E-16
1.71338E-04 1.00345E-16
1.94942E-04 7.98198E-17
2.20070E-04 6.42852E-17
2.46720E-04 5.23563E-17
2.74892E-04 4.30727E-17
3.04586E-04 3.57506E-17
3.35803E-04 2.99120E-17
3.68542E-04 2.52126E-17
4.02802E-04 2.13832E-17
4.38585E-04 1.82679E-17
4.75889E-04 1.57014E-17
5.14715E-04 1.35652E-17
5.55063E-04 1.17874E-17
5.96931E-04 1.02839E-17
6.40321E-04 9.02046E-18
6.85233E-04 7.93905E-18
7.31665E-04 7.01966E-18
7.79618E-04 6.22753E-18
8.29092E-04 5.54549E-18
8.80086E-04 4.95441E-18
9.32601E-04 4.44003E-18
9.86636E-04 3.99162E-18
1.04219E-03 3.59773E-18
1.09927E-03 3.25247E-18
1.15786E-03 2.94672E-18
1.21797E-03 2.67702E-18
1.27961E-03 2.43708E-18
1.34276E-03 2.22387E-18
1.40743E-03 2.03344E-18
1.47362E-03 1.86306E-18
1.54133E-03 1.71034E-18
1.61056E-03 1.57287E-18
1.68131E-03 1.44921E-18
1.75357E-03 1.33728E-18
1.82735E-03 1.23622E-18
1.90265E-03 1.14439E-18
1.97947E-03 1.06109E-18
2.05780E-03 9.85204E-19
2.13765E-03 9.16038E-19
2.21902E-03 8.52876E-19
2.30190E-03 7.95055E-19
2.38630E-03 7.42130E-19
2.47222E-03 6.93487E-19
2.55965E-03 6.48856E-19
2.64859E-03 6.07700E-19
2.73905E-03 5.69823E-19
2.83103E-03 5.34834E-19
2.92452E-03 5.02517E-19
3.01952E-03 4.72614E-19
3.11604E-03 4.44905E-19
3.21407E-03 4.19223E-19
3.31362E-03 3.95354E-19
3.41468E-03 3.73196E-19
3.51725E-03 3.52544E-19
3.62133E-03 3.33332E-19
3.72692E-03 3.15402E-19
3.83403E-03 2.98677E-19
3.94265E-03 2.83049E-19
4.05278E-03 2.68434E-19
4.16442E-03 2.54761E-19
4.27757E-03 2.41945E-19
4.39223E-03 2.29939E-19
4.50840E-03 2.18662E-19
4.62608E-03 2.08081E-19
4.74527E-03 1.98130E-19
4.86597E-03 1.88775E-19
4.98817E-03 1.79968E-19
5.11188E-03 1.71672E-19
5.23711E-03 1.63853E-19
5.36383E-03 1.56476E-19
5.49207E-03 1.49516E-19
5.62181E-03 1.42937E-19
5.75306E-03 1.36723E-19
5.88581E-03 1.30842E-19
6.02007E-03 1.25280E-19
6.15583E-03 1.20011E-19
6.29310E-03 1.15019E-19
6.43187E-03 1.10287E-19
6.57214E-03 1.05797E-19
6.71392E-03 1.01537E-19
6.85720E-03 9.74896E-20
7.00198E-03 9.36460E-20
7.14827E-03 8.99899E-20
7.29605E-03 8.65139E-20
7.44534E-03 8.32051E-20
7.59612E-03 8.00552E-20
7.97965E-03 7.28157E-20
8.37255E-03 6.63855E-20
8.77480E-03 6.06575E-20
9.18641E-03 5.55419E-20
9.60736E-03 5.09614E-20
1.00376E-02 4.68498E-20
1.04773E-02 4.31506E-20
1.09262E-02 3.98147E-20
1.13844E-02 3.67999E-20
1.18520E-02 3.40697E-20
1.23288E-02 3.15921E-20
1.28150E-02 2.93394E-20
1.33104E-02 2.72874E-20
1.38150E-02 2.54150E-20
1.43290E-02 2.37034E-20
1.48521E-02 2.21362E-20
1.53845E-02 2.06990E-20
1.59262E-02 1.93788E-20
1.64770E-02 1.81645E-20
1.70371E-02 1.70457E-20
1.76063E-02 1.60136E-20
1.81848E-02 1.50602E-20
1.87724E-02 1.41782E-20
1.93692E-02 1.33614E-20
1.99751E-02 1.26040E-20
2.05901E-02 1.19008E-20
2.12143E-02 1.12471E-20
2.18476E-02 1.06388E-20
2.24900E-02 1.00721E-20
2.31415E-02 9.54368E-21
2.38021E-02 9.05034E-21
2.44717E-02 8.58932E-21
2.51504E-02 8.15810E-21
2.58382E-02 7.75435E-21
2.65349E-02 7.37597E-21
2.72407E-02 7.02106E-21
2.79555E-02 6.68787E-21
2.86793E-02 6.37479E-21
2.94120E-02 6.08036E-21
3.01537E-02 5.80326E-21
3.09043E-02 5.54225E-21
3.16639E-02 5.29622E-21
3.24324E-02 5.06412E-21
3.32098E-02 4.84500E-21
3.39961E-02 4.63800E-21
3.47912E-02 4.44230E-21
3.55952E-02 4.25717E-21
3.64081E-02 4.08190E-21
3.72297E-02 3.91586E-21
3.80602E-02 3.75848E-21
3.88995E-02 3.60919E-21
3.97476E-02 3.46753E-21
4.06044E-02 3.33297E-21
4.14700E-02 3.20514E-21
4.23443E-02 3.08359E-21
4.32273E-02 2.96796E-21
4.41190E-02 2.85791E-21
4.50194E-02 2.75310E-21
4.59284E-02 2.65325E-21
4.68461E-02 2.55803E-21
4.87074E-02 2.38058E-21
5.06030E-02 2.21882E-21
5.25328E-02 2.07109E-21
5.44967E-02 1.93594E-21
5.64946E-02 1.81205E-21
5.85262E-02 1.69832E-21
6.05914E-02 1.59373E-21
6.26901E-02 1.49740E-21
6.48222E-02 1.40854E-21
6.69873E-02 1.32645E-21
6.91854E-02 1.25050E-21
7.14163E-02 1.18015E-21
7.36799E-02 1.11489E-21
7.59760E-02 1.05427E-21
7.83043E-02 9.97899E-22
8.06647E-02 9.45411E-22
8.30571E-02 8.96481E-22
8.54812E-02 8.50817E-22
8.79369E-02 8.08154E-22
9.04240E-02 7.68251E-22
9.29422E-02 7.30891E-22
9.54915E-02 6.95877E-22
9.80716E-02 6.63029E-22
1.00682E-01 6.32185E-22
1.03323E-01 6.03195E-22
1.05995E-01 5.75923E-22
1.08696E-01 5.50244E-22
1.11427E-01 5.26044E-22
1.14188E-01 5.03220E-22
1.16978E-01 4.81676E-22
1.19797E-01 4.61324E-22
1.22645E-01 4.42083E-22
1.25522E-01 4.23879E-22
1.28428E-01 4.06643E-22
1.31361E-01 3.90313E-22
1.34323E-01 3.74829E-22
1.37313E-01 3.60139E-22
1.40330E-01 3.46191E-22
1.43375E-01 3.32941E-22
1.46447E-01 3.20344E-22
1.49545E-01 3.08362E-22
1.52671E-01 2.96958E-22
1.55823E-01 2.86097E-22
1.59001E-01 2.75747E-22
1.62205E-01 2.65880E-22
1.65435E-01 2.56466E-22
1.68690E-01 2.47481E-22
1.71970E-01 2.38900E-22
1.75276E-01 2.30701E-22
1.78606E-01 2.22864E-22
1.81961E-01 2.15367E-22
1.85340E-01 2.08194E-22
1.88743E-01 2.01327E-22
1.92169E-01 1.94749E-22
1.95619E-01 1.88446E-22
1.99092E-01 1.82403E-22
2.02589E-01 1.76608E-22
2.06107E-01 1.71048E-22
2.09649E-01 1.65710E-22
2.13212E-01 1.60584E-22
2.16797E-01 1.55660E-22
2.20404E-01 1.50928E-22
2.24032E-01 1.46378E-22
2.27680E-01 1.42002E-22
2.31350E-01 1.37791E-22
2.35040E-01 1.33739E-22
2.38751E-01 1.29836E-22
2.42481E-01 1.26078E-22
2.46231E-01 1.22456E-22
2.50000E-01 1.18966E-22
2.53788E-01 1.15600E-22
2.57595E-01 1.12354E-22
2.61421E-01 1.09222E-22
2.65264E-01 1.06199E-22
2.69126E-01 1.03281E-22
2.73005E-01 1.00463E-22
2.76901E-01 9.77411E-23
2.80814E-01 9.51108E-23
2.84744E-01 9.25683E-23
2.88691E-01 9.01102E-23
2.92653E-01 8.77329E-23
2.96632E-01 8.54331E-23
3.00625E-01 8.32079E-23
3.04634E-01 8.10540E-23
3.08658E-01 7.89688E-23
3.12697E-01 7.69495E-23
3.16749E-01 7.49934E-23
3.20816E-01 7.30983E-23
3.24896E-01 7.12617E-23
3.28990E-01 6.94814E-23
3.33097E-01 6.77553E-23
3.37216E-01 6.60812E-23
3.41348E-01 6.44574E-23
3.45492E-01 6.28819E-23
3.49647E-01 6.13529E-23
3.53814E-01 5.98688E-23
3.57992E-01 5.84280E-23
3.62181E-01 5.70287E-23
3.66381E-01 5.56697E-23
3.70590E-01 5.43494E-23
3.74810E-01 5.30665E-23
3.79039E-01 5.18197E-23
3.83277E-01 5.06077E-23
3.87524E-01 4.94293E-23
3.91780E-01 4.82834E-23
3.96044E-01 4.71689E-23
4.00316E-01 4.60847E-23
4.04596E-01 4.50299E-23
4.08882E-01 4.40033E-23
4.13176E-01 4.30042E-23
4.17476E-01 4.20315E-23
4.21783E-01 4.10845E-23
4.26095E-01 4.01622E-23
4.30413E-01 3.92640E-23
4.34737E-01 3.83890E-23
4.39065E-01 3.75365E-23
4.43398E-01 3.67058E-23
4.47736E-01 3.58962E-23
4.52077E-01 3.51071E-23
4.56422E-01 3.43377E-23
4.60770E-01 3.35876E-23
4.65122E-01 3.28561E-23
4.69476E-01 3.21426E-23
4.73832E-01 3.14467E-23
4.78190E-01 3.07677E-23
4.82550E-01 3.01052E-23
4.86912E-01 2.94586E-23
4.91274E-01 2.88276E-23
4.95637E-01 2.82117E-23
5.00000E-01 2.76104E-23
5.04363E-01 2.70233E-23
5.08726E-01 2.64500E-23
5.13088E-01 2.58901E-23
5.17450E-01 2.53432E-23
5.21810E-01 2.48090E-23
5.26168E-01 2.42870E-23
5.30524E-01 2.37771E-23
5.34878E-01 2.32787E-23
5.39230E-01 2.27916E-23
5.43578E-01 2.23156E-23
5.47923E-01 2.18502E-23
5.52264E-01 2.13953E-23
5.56602E-01 2.09504E-23
5.60935E-01 2.05154E-23
5.65263E-01 2.00900E-23
5.69587E-01 1.96740E-23
5.73905E-01 1.92670E-23
5.78217E-01 1.88689E-23
5.82524E-01 1.84793E-23
5.86824E-01 1.80982E-23
5.91118E-01 1.77253E-23
5.95404E-01 1.73604E-23
5.99684E-01 1.70032E-23
6.03956E-01 1.66536E-23
6.08220E-01 1.63113E-23
6.12476E-01 1.59763E-23
6.16723E-01 1.56483E-23
6.20961E-01 1.53271E-23
6.25190E-01 1.50126E-23
6.29410E-01 1.47046E-23
6.33619E-01 1.44030E-23
6.37819E-01 1.41076E-23
6.42008E-01 1.38182E-23
6.46186E-01 1.35347E-23
6.50353E-01 1.32569E-23
6.54508E-01 1.29848E-23
6.58652E-01 1.27182E-23
6.62784E-01 1.24570E-23
6.66903E-01 1.22010E-23
6.71010E-01 1.19501E-23
6.75104E-01 1.17042E-23
6.79184E-01 1.14632E-23
6.83251E-01 1.12269E-23
6.87303E-01 1.09953E-23
6.91342E-01 1.07683E-23
6.95366E-01 1.05457E-23
6.99375E-01 1.03275E-23
7.03368E-01 1.01136E-23
7.07347E-01 9.90377E-24
7.11309E-01 9.69805E-24
7.15256E-01 9.49631E-24
7.19186E-01 9.29847E-24
7.23099E-01 9.10443E-24
7.26995E-01 8.91413E-24
7.30874E-01 8.72747E-24
7.34736E-01 8.54439E-24
7.38579E-01 8.36480E-24
7.42405E-01 8.18863E-24
7.46212E-01 8.01581E-24
7.50000E-01 7.84627E-24
7.53769E-01 7.67995E-24
7.57519E-01 7.51676E-24
7.61249E-01 7.35666E-24
7.64960E-01 7.19958E-24
7.68650E-01 7.04545E-24
7.72320E-01 6.89422E-24
7.75968E-01 6.74582E-24
7.79596E-01 6.60021E-24
7.83203E-01 6.45733E-24
7.86788E-01 6.31711E-24
7.90351E-01 6.17952E-24
7.93893E-01 6.04450E-24
7.97411E-01 5.91200E-24
8.00908E-01 5.78196E-24
8.04381E-01 5.65436E-24
8.07831E-01 5.52913E-24
8.11257E-01 5.40623E-24
8.14660E-01 5.28562E-24
8.18039E-01 5.16725E-24
8.21394E-01 5.05109E-24
8.24724E-01 4.93709E-24
8.28030E-01 4.82522E-24
8.31310E-01 4.71543E-24
8.34565E-01 4.60768E-24
8.37795E-01 4.50195E-24
8.40999E-01 4.39819E-24
8.44177E-01 4.29637E-24
8.47329E-01 4.19645E-24
8.50455E-01 4.09841E-24
8.53553E-01 4.00220E-24
8.56625E-01 3.90781E-24
8.59670E-01 3.81518E-24
8.62687E-01 3.72431E-24
8.65677E-01 3.63515E-24
8.68639E-01 3.54767E-24
8.71572E-01 3.46186E-24
8.74478E-01 3.37768E-24
8.77355E-01 3.29510E-24
8.80203E-01 3.21410E-24
8.83022E-01 3.13466E-24
8.85812E-01 3.05674E-24
8.88573E-01 2.98033E-24
8.91304E-01 2.90540E-24
8.94005E-01 2.83193E-24
8.96677E-01 2.75989E-24
8.99318E-01 2.68927E-24
9.01928E-01 2.62003E-24
9.04508E-01 2.55217E-24
9.07058E-01 2.48566E-24
9.09576E-01 2.42048E-24
9.12063E-01 2.35661E-24
9.14519E-01 2.29403E-24
9.16943E-01 2.23272E-24
9.19335E-01 2.17267E-24
9.21696E-01 2.11386E-24
9.24024E-01 2.05626E-24
9.26320E-01 1.99987E-24
9.28584E-01 1.94467E-24
9.30815E-01 1.89064E-24
9.33013E-01 1.83777E-24
9.35178E-01 1.78603E-24
9.37310E-01 1.73542E-24
9.39409E-01 1.68593E-24
9.41474E-01 1.63753E-24
9.43505E-01 1.59022E-24
9.45503E-01 1.54397E-24
9.47467E-01 1.49878E-24
9.49397E-01 1.45464E-24
9.51293E-01 1.41153E-24
9.53154E-01 1.36945E-24
9.54981E-01 1.32837E-24
9.56773E-01 1.28829E-24
9.58530E-01 1.24919E-24
9.60252E-01 1.21108E-24
9.61940E-01 1.17393E-24
9.63592E-01 1.13773E-24
9.65209E-01 1.10248E-24
9.66790E-01 1.06817E-24
9.68336E-01 1.03478E-24
9.69846E-01 1.00231E-24
9.71321E-01 9.70751E-25
9.72759E-01 9.40093E-25
9.74162E-01 9.10327E-25
9.75528E-01 8.81447E-25
9.76858E-01 8.53443E-25
9.78152E-01 8.26309E-25
9.79410E-01 8.00038E-25
9.80631E-01 7.74623E-25
9.81815E-01 7.50056E-25
9.82963E-01 7.26332E-25
9.84074E-01 7.03444E-25
9.85148E-01 6.81386E-25
9.86185E-01 6.60153E-25
9.87185E-01 6.39739E-25
9.88148E-01 6.20139E-25
9.89074E-01 6.01347E-25
9.89962E-01 5.83359E-25
9.90814E-01 5.66170E-25
9.91627E-01 5.49775E-25
9.92404E-01 5.34171E-25
9.93143E-01 5.19354E-25
9.93844E-01 5.05318E-25
9.94508E-01 4.92062E-25
9.95134E-01 4.79581E-25
9.95722E-01 4.67873E-25
9.96273E-01 4.56934E-25
9.96786E-01 4.46761E-25
9.97261E-01 4.37352E-25
9.97698E-01 4.28705E-25
9.98097E-01 4.20817E-25
9.98459E-01 4.13686E-25
9.98782E-01 4.07311E-25
9.99067E-01 4.01690E-25
9.99315E-01 3.96821E-25
9.99524E-01 3.92703E-25
9.99695E-01 3.89335E-25
9.99829E-01 3.86717E-25
9.99924E-01 3.84847E-25
9.99981E-01 3.83725E-25
1.00000E+00 3.83352E-25
