 #
 # Subroutine ELSEPA. Elastic scattering of electrons and positrons
 #                    by neutral atoms and positive ions
 #
 # Projectile: electron
 # Kinetic energy = 1.25000E+08 eV = 4.59367E+06 a.u.
 #
 # WARNING: High-energy factorization with free-atom DF screening.
 #          Absorption, polarization and exchange corrections are
 #          switched off.
 #          Phase shifts are calculated for the bare nucleus.
 #          Scattering amplitudes are not evaluated.
 #
 # Element: Lu,  Z =  71,  atomic weight = 1.74967E+02 g/mol
 #
 # Nuclear model: Fermi distribution
 #                Average radius = 5.98461E-13 cm
 #                Skin thickness = 5.46000E-14 cm
 #
 # Number of electrons = 71
 #
 # Total elastic cross section = 7.18293E-18 cm**2 = 2.56507E-01 a0**2
 # 1st transport cross section = 6.14702E-25 cm**2 = 2.19514E-08 a0**2
 # 2nd transport cross section = 1.83429E-24 cm**2 = 6.55035E-08 a0**2
 #
 #
 # Differential cross section:                       MU=(1-COS(THETA))/2
 #
 #  THETA        MU          DCS          DCS        Sherman      error
 #  (deg)                 (cm**2/sr)   (a0**2/sr)    function
 #----------------------------------------------------------------------
0.00000E+00 1.04379E-09
7.61557E-13 1.03772E-09
1.18994E-12 1.03433E-09
1.71346E-12 1.03023E-09
2.33225E-12 1.02541E-09
3.04617E-12 1.01989E-09
3.85530E-12 1.01370E-09
4.75964E-12 1.00686E-09
5.75917E-12 9.99388E-10
6.85391E-12 9.91310E-10
8.04379E-12 9.82653E-10
9.32893E-12 9.73445E-10
1.07092E-11 9.63716E-10
1.21847E-11 9.53497E-10
1.37554E-11 9.42817E-10
1.54213E-11 9.31711E-10
1.71823E-11 9.20210E-10
1.90386E-11 9.08345E-10
2.09900E-11 8.96150E-10
2.30367E-11 8.83657E-10
2.51785E-11 8.70905E-10
2.74156E-11 8.57917E-10
2.97478E-11 8.44724E-10
3.21752E-11 8.31357E-10
3.46979E-11 8.17860E-10
3.73157E-11 8.04251E-10
4.00286E-11 7.90553E-10
4.28368E-11 7.76790E-10
4.57402E-11 7.63004E-10
4.87388E-11 7.49223E-10
5.18325E-11 7.35451E-10
5.50215E-11 7.21706E-10
5.83057E-11 7.08013E-10
6.16850E-11 6.94435E-10
6.51595E-11 6.80943E-10
6.87293E-11 6.67551E-10
7.23943E-11 6.54274E-10
7.61544E-11 6.41168E-10
1.18991E-10 5.20156E-10
1.71347E-10 4.20875E-10
2.33223E-10 3.43002E-10
3.04617E-10 2.83016E-10
3.85531E-10 2.36746E-10
4.75965E-10 2.00651E-10
5.75917E-10 1.71990E-10
6.85389E-10 1.48798E-10
8.04380E-10 1.29715E-10
9.32891E-10 1.13767E-10
1.07092E-09 1.00235E-10
1.21847E-09 8.86733E-11
1.37554E-09 7.87177E-11
1.54213E-09 6.96544E-11
1.71823E-09 6.17505E-11
1.90386E-09 5.52279E-11
2.09900E-09 4.97968E-11
2.30367E-09 4.51005E-11
2.51785E-09 4.03849E-11
2.74156E-09 3.64068E-11
2.97478E-09 3.30269E-11
3.21752E-09 3.01360E-11
3.46978E-09 2.73374E-11
3.73156E-09 2.48433E-11
4.00286E-09 2.26876E-11
4.28368E-09 2.08146E-11
4.57402E-09 1.90989E-11
4.87388E-09 1.74850E-11
5.18326E-09 1.60701E-11
5.50215E-09 1.48242E-11
5.83057E-09 1.37201E-11
6.16850E-09 1.26400E-11
6.51596E-09 1.16818E-11
6.87293E-09 1.08287E-11
7.23942E-09 1.00667E-11
7.61544E-09 9.34408E-12
1.18991E-08 4.71931E-12
1.71347E-08 2.59523E-12
2.33223E-08 1.53094E-12
3.04617E-08 9.59982E-13
3.85531E-08 6.35049E-13
4.75965E-08 4.38319E-13
5.75917E-08 3.13509E-13
6.85389E-08 2.30505E-13
8.04380E-08 1.73265E-13
9.32891E-08 1.32730E-13
1.07092E-07 1.03361E-13
1.21847E-07 8.16624E-14
1.37554E-07 6.53385E-14
1.54213E-07 5.28375E-14
1.71823E-07 4.32271E-14
1.90386E-07 3.56816E-14
2.09900E-07 2.97380E-14
2.30367E-07 2.49528E-14
2.51785E-07 2.11083E-14
2.74156E-07 1.79706E-14
2.97478E-07 1.53973E-14
3.21752E-07 1.32698E-14
3.46978E-07 1.14950E-14
3.73156E-07 1.00114E-14
4.00286E-07 8.75584E-15
4.28368E-07 7.69373E-15
4.57402E-07 6.78698E-15
4.87388E-07 6.01050E-15
5.18325E-07 5.34239E-15
5.50215E-07 4.76406E-15
5.83057E-07 4.26284E-15
6.16850E-07 3.82500E-15
6.51596E-07 3.44259E-15
6.87293E-07 3.10657E-15
7.23942E-07 2.81067E-15
7.61543E-07 2.54929E-15
1.18991E-06 1.07409E-15
1.71347E-06 5.27435E-16
2.33223E-06 2.88168E-16
3.04617E-06 1.70386E-16
3.85531E-06 1.07076E-16
4.75964E-06 7.06270E-17
5.75916E-06 4.84535E-17
6.85388E-06 3.43410E-17
8.04378E-06 2.50143E-17
9.32888E-06 1.86507E-17
1.07092E-05 1.41886E-17
1.21846E-05 1.09849E-17
1.37553E-05 8.63668E-18
1.54212E-05 6.88374E-18
1.71822E-05 5.55384E-18
1.90385E-05 4.52778E-18
2.09899E-05 3.73214E-18
2.30365E-05 3.10335E-18
2.51783E-05 2.60089E-18
2.74153E-05 2.19558E-18
2.97475E-05 1.86596E-18
3.21749E-05 1.59592E-18
3.46974E-05 1.37313E-18
3.73152E-05 1.18805E-18
4.00281E-05 1.03325E-18
4.28362E-05 9.02921E-19
4.57395E-05 7.92504E-19
4.87380E-05 6.98424E-19
5.18317E-05 6.17857E-19
5.50205E-05 5.48548E-19
5.83045E-05 4.88679E-19
6.16838E-05 4.36765E-19
6.51582E-05 3.91580E-19
6.87277E-05 3.52106E-19
7.23925E-05 3.17494E-19
7.61524E-05 2.87360E-19
9.21439E-05 1.96612E-19
1.09658E-04 1.39038E-19
1.28695E-04 1.01105E-19
1.49255E-04 7.52773E-20
1.71338E-04 5.72073E-20
1.94942E-04 4.42545E-20
2.20070E-04 3.47746E-20
2.46720E-04 2.77069E-20
2.74892E-04 2.23500E-20
3.04586E-04 1.82302E-20
3.35803E-04 1.50194E-20
3.68542E-04 1.24870E-20
4.02802E-04 1.04678E-20
4.38585E-04 8.84183E-21
4.75889E-04 7.52051E-21
5.14715E-04 6.43775E-21
5.55063E-04 5.54360E-21
5.96931E-04 4.79991E-21
6.40321E-04 4.17724E-21
6.85233E-04 3.65267E-21
7.31665E-04 3.20820E-21
7.79618E-04 2.82955E-21
8.29092E-04 2.50534E-21
8.80086E-04 2.22642E-21
9.32601E-04 1.98539E-21
9.86636E-04 1.77623E-21
1.04219E-03 1.59400E-21
1.09927E-03 1.43463E-21
1.15786E-03 1.29476E-21
1.21797E-03 1.17158E-21
1.27961E-03 1.06276E-21
1.34276E-03 9.66333E-22
1.40743E-03 8.80632E-22
1.47362E-03 8.04255E-22
1.54133E-03 7.36011E-22
1.61056E-03 6.74880E-22
1.68131E-03 6.19968E-22
1.75357E-03 5.70541E-22
1.82735E-03 5.25954E-22
1.90265E-03 4.85649E-22
1.97947E-03 4.49138E-22
2.05780E-03 4.16002E-22
2.13765E-03 3.85871E-22
2.21902E-03 3.58422E-22
2.30190E-03 3.33374E-22
2.38630E-03 3.10478E-22
2.47222E-03 2.89516E-22
2.55965E-03 2.70293E-22
2.64859E-03 2.52640E-22
2.73905E-03 2.36404E-22
2.83103E-03 2.21450E-22
2.92452E-03 2.07659E-22
3.01952E-03 1.94924E-22
3.11604E-03 1.83148E-22
3.21407E-03 1.72247E-22
3.31362E-03 1.62142E-22
3.41468E-03 1.52766E-22
3.51725E-03 1.44055E-22
3.62133E-03 1.35954E-22
3.72692E-03 1.28412E-22
3.83403E-03 1.21384E-22
3.94265E-03 1.14827E-22
4.05278E-03 1.08705E-22
4.16442E-03 1.02983E-22
4.27757E-03 9.76295E-23
4.39223E-03 9.26173E-23
4.50840E-03 8.79202E-23
4.62608E-03 8.35146E-23
4.74527E-03 7.93792E-23
4.86597E-03 7.54942E-23
4.98817E-03 7.18417E-23
5.11188E-03 6.84051E-23
5.23711E-03 6.51693E-23
5.36383E-03 6.21204E-23
5.49207E-03 5.92456E-23
5.62181E-03 5.65330E-23
5.75306E-03 5.39718E-23
5.88581E-03 5.15520E-23
6.02007E-03 4.92644E-23
6.15583E-03 4.71003E-23
6.29310E-03 4.50518E-23
6.43187E-03 4.31116E-23
6.57214E-03 4.12730E-23
6.71392E-03 3.95296E-23
6.85720E-03 3.78756E-23
7.00198E-03 3.63055E-23
7.14827E-03 3.48143E-23
7.29605E-03 3.33974E-23
7.44534E-03 3.20502E-23
7.59612E-03 3.07688E-23
7.97965E-03 2.78286E-23
8.37255E-03 2.52234E-23
8.77480E-03 2.29086E-23
9.18641E-03 2.08464E-23
9.60736E-03 1.90047E-23
1.00376E-02 1.73559E-23
1.04773E-02 1.58764E-23
1.09262E-02 1.45459E-23
1.13844E-02 1.33470E-23
1.18520E-02 1.22644E-23
1.23288E-02 1.12851E-23
1.28150E-02 1.03976E-23
1.33104E-02 9.59182E-24
1.38150E-02 8.85905E-24
1.43290E-02 8.19160E-24
1.48521E-02 7.58273E-24
1.53845E-02 7.02646E-24
1.59262E-02 6.51753E-24
1.64770E-02 6.05128E-24
1.70371E-02 5.62356E-24
1.76063E-02 5.23071E-24
1.81848E-02 4.86943E-24
1.87724E-02 4.53681E-24
1.93692E-02 4.23022E-24
1.99751E-02 3.94732E-24
2.05901E-02 3.68601E-24
2.12143E-02 3.44439E-24
2.18476E-02 3.22077E-24
2.24900E-02 3.01361E-24
2.31415E-02 2.82152E-24
2.38021E-02 2.64325E-24
2.44717E-02 2.47767E-24
2.51504E-02 2.32375E-24
2.58382E-02 2.18055E-24
2.65349E-02 2.04723E-24
2.72407E-02 1.92301E-24
2.79555E-02 1.80719E-24
2.86793E-02 1.69912E-24
2.94120E-02 1.59823E-24
3.01537E-02 1.50397E-24
3.09043E-02 1.41585E-24
3.16639E-02 1.33342E-24
3.24324E-02 1.25628E-24
3.32098E-02 1.18403E-24
3.39961E-02 1.11633E-24
3.47912E-02 1.05287E-24
3.55952E-02 9.93339E-25
3.64081E-02 9.37475E-25
3.72297E-02 8.85025E-25
3.80602E-02 8.35756E-25
3.88995E-02 7.89455E-25
3.97476E-02 7.45924E-25
4.06044E-02 7.04980E-25
4.14700E-02 6.66453E-25
4.23443E-02 6.30186E-25
4.32273E-02 5.96034E-25
4.41190E-02 5.63861E-25
4.50194E-02 5.33542E-25
4.59284E-02 5.04959E-25
4.68461E-02 4.78004E-25
4.87074E-02 4.28582E-25
5.06030E-02 3.84546E-25
5.25328E-02 3.45264E-25
5.44967E-02 3.10183E-25
5.64946E-02 2.78823E-25
5.85262E-02 2.50763E-25
6.05914E-02 2.25631E-25
6.26901E-02 2.03105E-25
6.48222E-02 1.82898E-25
6.69873E-02 1.64759E-25
6.91854E-02 1.48465E-25
7.14163E-02 1.33819E-25
7.36799E-02 1.20648E-25
7.59760E-02 1.08797E-25
7.83043E-02 9.81282E-26
8.06647E-02 8.85199E-26
8.30571E-02 7.98632E-26
8.54812E-02 7.20612E-26
8.79369E-02 6.50273E-26
9.04240E-02 5.86842E-26
9.29422E-02 5.29627E-26
9.54915E-02 4.78007E-26
9.80716E-02 4.31429E-26
1.00682E-01 3.89392E-26
1.03323E-01 3.51452E-26
1.05995E-01 3.17204E-26
1.08696E-01 2.86290E-26
1.11427E-01 2.58382E-26
1.14188E-01 2.33190E-26
1.16978E-01 2.10448E-26
1.19797E-01 1.89921E-26
1.22645E-01 1.71393E-26
1.25522E-01 1.54672E-26
1.28428E-01 1.39582E-26
1.31361E-01 1.25967E-26
1.34323E-01 1.13684E-26
1.37313E-01 1.02604E-26
1.40330E-01 9.26125E-27
1.43375E-01 8.36032E-27
1.46447E-01 7.54815E-27
1.49545E-01 6.81614E-27
1.52671E-01 6.15654E-27
1.55823E-01 5.56232E-27
1.59001E-01 5.02712E-27
1.62205E-01 4.54519E-27
1.65435E-01 4.11134E-27
1.68690E-01 3.72085E-27
1.71970E-01 3.36947E-27
1.75276E-01 3.05334E-27
1.78606E-01 2.76899E-27
1.81961E-01 2.51326E-27
1.85340E-01 2.28331E-27
1.88743E-01 2.07657E-27
1.92169E-01 1.89070E-27
1.95619E-01 1.72361E-27
1.99092E-01 1.57339E-27
2.02589E-01 1.43834E-27
2.06107E-01 1.31691E-27
2.09649E-01 1.20770E-27
2.13212E-01 1.10945E-27
2.16797E-01 1.02103E-27
2.20404E-01 9.41428E-28
2.24032E-01 8.69713E-28
2.27680E-01 8.05060E-28
2.31350E-01 7.46725E-28
2.35040E-01 6.94041E-28
2.38751E-01 6.46406E-28
2.42481E-01 6.03282E-28
2.46231E-01 5.64186E-28
2.50000E-01 5.28685E-28
2.53788E-01 4.96392E-28
2.57595E-01 4.66960E-28
2.61421E-01 4.40080E-28
2.65264E-01 4.15474E-28
2.69126E-01 3.92898E-28
2.73005E-01 3.72130E-28
2.76901E-01 3.52976E-28
2.80814E-01 3.35262E-28
2.84744E-01 3.18833E-28
2.88691E-01 3.03553E-28
2.92653E-01 2.89301E-28
2.96632E-01 2.75969E-28
3.00625E-01 2.63463E-28
3.04634E-01 2.51698E-28
3.08658E-01 2.40602E-28
3.12697E-01 2.30110E-28
3.16749E-01 2.20163E-28
3.20816E-01 2.10713E-28
3.24896E-01 2.01715E-28
3.28990E-01 1.93130E-28
3.33097E-01 1.84926E-28
3.37216E-01 1.77072E-28
3.41348E-01 1.69543E-28
3.45492E-01 1.62316E-28
3.49647E-01 1.55371E-28
3.53814E-01 1.48691E-28
3.57992E-01 1.42261E-28
3.62181E-01 1.36069E-28
3.66381E-01 1.30101E-28
3.70590E-01 1.24348E-28
3.74810E-01 1.18801E-28
3.79039E-01 1.13453E-28
3.83277E-01 1.08294E-28
3.87524E-01 1.03320E-28
3.91780E-01 9.85244E-29
3.96044E-01 9.39017E-29
4.00316E-01 8.94471E-29
4.04596E-01 8.51559E-29
4.08882E-01 8.10240E-29
4.13176E-01 7.70472E-29
4.17476E-01 7.32217E-29
4.21783E-01 6.95437E-29
4.26095E-01 6.60095E-29
4.30413E-01 6.26157E-29
4.34737E-01 5.93586E-29
4.39065E-01 5.62350E-29
4.43398E-01 5.32412E-29
4.47736E-01 5.03741E-29
4.52077E-01 4.76301E-29
4.56422E-01 4.50060E-29
4.60770E-01 4.24983E-29
4.65122E-01 4.01037E-29
4.69476E-01 3.78189E-29
4.73832E-01 3.56406E-29
4.78190E-01 3.35653E-29
4.82550E-01 3.15898E-29
4.86912E-01 2.97108E-29
4.91274E-01 2.79251E-29
4.95637E-01 2.62293E-29
5.00000E-01 2.46203E-29
5.04363E-01 2.30948E-29
5.08726E-01 2.16498E-29
5.13088E-01 2.02821E-29
5.17450E-01 1.89887E-29
5.21810E-01 1.77666E-29
5.26168E-01 1.66127E-29
5.30524E-01 1.55243E-29
5.34878E-01 1.44985E-29
5.39230E-01 1.35325E-29
5.43578E-01 1.26236E-29
5.47923E-01 1.17692E-29
5.52264E-01 1.09667E-29
5.56602E-01 1.02136E-29
5.60935E-01 9.50756E-30
5.65263E-01 8.84615E-30
5.69587E-01 8.22713E-30
5.73905E-01 7.64831E-30
5.78217E-01 7.10755E-30
5.82524E-01 6.60283E-30
5.86824E-01 6.13217E-30
5.91118E-01 5.69367E-30
5.95404E-01 5.28553E-30
5.99684E-01 4.90599E-30
6.03956E-01 4.55338E-30
6.08220E-01 4.22611E-30
6.12476E-01 3.92263E-30
6.16723E-01 3.64150E-30
6.20961E-01 3.38131E-30
6.25190E-01 3.14073E-30
6.29410E-01 2.91851E-30
6.33619E-01 2.71344E-30
6.37819E-01 2.52438E-30
6.42008E-01 2.35024E-30
6.46186E-01 2.19001E-30
6.50353E-01 2.04271E-30
6.54508E-01 1.90742E-30
6.58652E-01 1.78329E-30
6.62784E-01 1.66948E-30
6.66903E-01 1.56525E-30
6.71010E-01 1.46985E-30
6.75104E-01 1.38262E-30
6.79184E-01 1.30291E-30
6.83251E-01 1.23012E-30
6.87303E-01 1.16370E-30
6.91342E-01 1.10313E-30
6.95366E-01 1.04791E-30
6.99375E-01 9.97583E-31
7.03368E-01 9.51732E-31
7.07347E-01 9.09960E-31
7.11309E-01 8.71898E-31
7.15256E-01 8.37208E-31
7.19186E-01 8.05573E-31
7.23099E-01 7.76701E-31
7.26995E-01 7.50324E-31
7.30874E-01 7.26194E-31
7.34736E-01 7.04081E-31
7.38579E-01 6.83777E-31
7.42405E-01 6.65088E-31
7.46212E-01 6.47838E-31
7.50000E-01 6.31867E-31
7.53769E-01 6.17027E-31
7.57519E-01 6.03186E-31
7.61249E-01 5.90222E-31
7.64960E-01 5.78026E-31
7.68650E-01 5.66499E-31
7.72320E-01 5.55552E-31
7.75968E-01 5.45105E-31
7.79596E-01 5.35087E-31
7.83203E-01 5.25434E-31
7.86788E-01 5.16090E-31
7.90351E-01 5.07006E-31
7.93893E-01 4.98137E-31
7.97411E-01 4.89445E-31
8.00908E-01 4.80897E-31
8.04381E-01 4.72465E-31
8.07831E-01 4.64125E-31
8.11257E-01 4.55855E-31
8.14660E-01 4.47640E-31
8.18039E-01 4.39464E-31
8.21394E-01 4.31317E-31
8.24724E-01 4.23189E-31
8.28030E-01 4.15075E-31
8.31310E-01 4.06969E-31
8.34565E-01 3.98870E-31
8.37795E-01 3.90775E-31
8.40999E-01 3.82684E-31
8.44177E-01 3.74599E-31
8.47329E-01 3.66521E-31
8.50455E-01 3.58455E-31
8.53553E-01 3.50402E-31
8.56625E-01 3.42367E-31
8.59670E-01 3.34356E-31
8.62687E-01 3.26372E-31
8.65677E-01 3.18421E-31
8.68639E-01 3.10509E-31
8.71572E-01 3.02642E-31
8.74478E-01 2.94823E-31
8.77355E-01 2.87061E-31
8.80203E-01 2.79358E-31
8.83022E-01 2.71723E-31
8.85812E-01 2.64158E-31
8.88573E-01 2.56671E-31
8.91304E-01 2.49265E-31
8.94005E-01 2.41945E-31
8.96677E-01 2.34716E-31
8.99318E-01 2.27582E-31
9.01928E-01 2.20547E-31
9.04508E-01 2.13615E-31
9.07058E-01 2.06789E-31
9.09576E-01 2.00072E-31
9.12063E-01 1.93467E-31
9.14519E-01 1.86977E-31
9.16943E-01 1.80604E-31
9.19335E-01 1.74350E-31
9.21696E-01 1.68217E-31
9.24024E-01 1.62206E-31
9.26320E-01 1.56319E-31
9.28584E-01 1.50557E-31
9.30815E-01 1.44920E-31
9.33013E-01 1.39409E-31
9.35178E-01 1.34025E-31
9.37310E-01 1.28768E-31
9.39409E-01 1.23637E-31
9.41474E-01 1.18633E-31
9.43505E-01 1.13755E-31
9.45503E-01 1.09002E-31
9.47467E-01 1.04374E-31
9.49397E-01 9.98707E-32
9.51293E-01 9.54900E-32
9.53154E-01 9.12315E-32
9.54981E-01 8.70938E-32
9.56773E-01 8.30757E-32
9.58530E-01 7.91759E-32
9.60252E-01 7.53929E-32
9.61940E-01 7.17253E-32
9.63592E-01 6.81714E-32
9.65209E-01 6.47296E-32
9.66790E-01 6.13983E-32
9.68336E-01 5.81758E-32
9.69846E-01 5.50604E-32
9.71321E-01 5.20503E-32
9.72759E-01 4.91437E-32
9.74162E-01 4.63389E-32
9.75528E-01 4.36341E-32
9.76858E-01 4.10274E-32
9.78152E-01 3.85172E-32
9.79410E-01 3.61017E-32
9.80631E-01 3.37790E-32
9.81815E-01 3.15476E-32
9.82963E-01 2.94056E-32
9.84074E-01 2.73514E-32
9.85148E-01 2.53833E-32
9.86185E-01 2.34998E-32
9.87185E-01 2.16992E-32
9.88148E-01 1.99801E-32
9.89074E-01 1.83409E-32
9.89962E-01 1.67802E-32
9.90814E-01 1.52965E-32
9.91627E-01 1.38886E-32
9.92404E-01 1.25551E-32
9.93143E-01 1.12948E-32
9.93844E-01 1.01065E-32
9.94508E-01 8.98894E-33
9.95134E-01 7.94118E-33
9.95722E-01 6.96215E-33
9.96273E-01 6.05086E-33
9.96786E-01 5.20642E-33
9.97261E-01 4.42798E-33
9.97698E-01 3.71474E-33
9.98097E-01 3.06597E-33
9.98459E-01 2.48101E-33
9.98782E-01 1.95926E-33
9.99067E-01 1.50017E-33
9.99315E-01 1.10326E-33
9.99524E-01 7.68117E-34
9.99695E-01 4.94391E-34
9.99829E-01 2.81791E-34
9.99924E-01 1.30096E-34
9.99981E-01 3.91408E-35
1.00000E+00 8.83360E-36
