 #
 # Subroutine ELSEPA. Elastic scattering of electrons and positrons
 #                    by neutral atoms and positive ions
 #
 # Projectile: electron
 # Kinetic energy = 1.00000E+08 eV = 3.67493E+06 a.u.
 #
 # WARNING: High-energy factorization with free-atom DF screening.
 #          Absorption, polarization and exchange corrections are
 #          switched off.
 #          Phase shifts are calculated for the bare nucleus.
 #          Scattering amplitudes are not evaluated.
 #
 # Element: Lu,  Z =  71,  atomic weight = 1.74967E+02 g/mol
 #
 # Nuclear model: Fermi distribution
 #                Average radius = 5.98461E-13 cm
 #                Skin thickness = 5.46000E-14 cm
 #
 # Number of electrons = 71
 #
 # Total elastic cross section = 7.18324E-18 cm**2 = 2.56518E-01 a0**2
 # 1st transport cross section = 9.60018E-25 cm**2 = 3.42829E-08 a0**2
 # 2nd transport cross section = 2.85738E-24 cm**2 = 1.02039E-07 a0**2
 #
 #
 # Differential cross section:                       MU=(1-COS(THETA))/2
 #
 #  THETA        MU          DCS          DCS        Sherman      error
 #  (deg)                 (cm**2/sr)   (a0**2/sr)    function
 #----------------------------------------------------------------------
0.00000E+00 6.69383E-10
7.61557E-13 6.66882E-10
1.18994E-12 6.65484E-10
1.71346E-12 6.63783E-10
2.33225E-12 6.61782E-10
3.04617E-12 6.59486E-10
3.85530E-12 6.56901E-10
4.75964E-12 6.54031E-10
5.75917E-12 6.50884E-10
6.85391E-12 6.47466E-10
8.04379E-12 6.43785E-10
9.32893E-12 6.39848E-10
1.07092E-11 6.35666E-10
1.21847E-11 6.31245E-10
1.37554E-11 6.26595E-10
1.54213E-11 6.21727E-10
1.71823E-11 6.16649E-10
1.90386E-11 6.11372E-10
2.09900E-11 6.05907E-10
2.30367E-11 6.00263E-10
2.51785E-11 5.94452E-10
2.74156E-11 5.88484E-10
2.97478E-11 5.82369E-10
3.21752E-11 5.76119E-10
3.46979E-11 5.69743E-10
3.73157E-11 5.63256E-10
4.00286E-11 5.56666E-10
4.28368E-11 5.49981E-10
4.57402E-11 5.43213E-10
4.87388E-11 5.36371E-10
5.18325E-11 5.29468E-10
5.50215E-11 5.22517E-10
5.83057E-11 5.15521E-10
6.16850E-11 5.08489E-10
6.51595E-11 5.01429E-10
6.87293E-11 4.94349E-10
7.23943E-11 4.87271E-10
7.61544E-11 4.80194E-10
1.18991E-10 4.10846E-10
1.71347E-10 3.47660E-10
2.33223E-10 2.93285E-10
3.04617E-10 2.48065E-10
3.85531E-10 2.11153E-10
4.75965E-10 1.81228E-10
5.75917E-10 1.56932E-10
6.85389E-10 1.37065E-10
8.04380E-10 1.20636E-10
9.32891E-10 1.06893E-10
1.07092E-09 9.52620E-11
1.21847E-09 8.53070E-11
1.37554E-09 7.67015E-11
1.54213E-09 6.91951E-11
1.71823E-09 6.25901E-11
1.90386E-09 5.67560E-11
2.09900E-09 5.15784E-11
2.30367E-09 4.68903E-11
2.51785E-09 4.24259E-11
2.74156E-09 3.86146E-11
2.97478E-09 3.53412E-11
3.21752E-09 3.25137E-11
3.46978E-09 3.00583E-11
3.73156E-09 2.75807E-11
4.00286E-09 2.52915E-11
4.28368E-09 2.32911E-11
4.57402E-09 2.15352E-11
4.87388E-09 1.99871E-11
5.18326E-09 1.85634E-11
5.50215E-09 1.71466E-11
5.83057E-09 1.58903E-11
6.16850E-09 1.47723E-11
6.51596E-09 1.37740E-11
6.87293E-09 1.28796E-11
7.23942E-09 1.19961E-11
7.61544E-09 1.11821E-11
1.18991E-08 5.97422E-12
1.71347E-08 3.43966E-12
2.33223E-08 2.08932E-12
3.04617E-08 1.33195E-12
3.85531E-08 8.86604E-13
4.75965E-08 6.13475E-13
5.75917E-08 4.39318E-13
6.85389E-08 3.23375E-13
8.04380E-08 2.44034E-13
9.32891E-08 1.88012E-13
1.07092E-07 1.47301E-13
1.21847E-07 1.17039E-13
1.37554E-07 9.41560E-14
1.54213E-07 7.65997E-14
1.71823E-07 6.29396E-14
1.90386E-07 5.21803E-14
2.09900E-07 4.36103E-14
2.30367E-07 3.67131E-14
2.51785E-07 3.11091E-14
2.74156E-07 2.65721E-14
2.97478E-07 2.27982E-14
3.21752E-07 1.96913E-14
3.46978E-07 1.70834E-14
3.73156E-07 1.48995E-14
4.00286E-07 1.30513E-14
4.28368E-07 1.14819E-14
4.57402E-07 1.01424E-14
4.87388E-07 8.99102E-15
5.18325E-07 8.00080E-15
5.50215E-07 7.14103E-15
5.83057E-07 6.39633E-15
6.16850E-07 5.74385E-15
6.51596E-07 5.17451E-15
6.87293E-07 4.67263E-15
7.23942E-07 4.23117E-15
7.61543E-07 3.84017E-15
1.18991E-06 1.62880E-15
1.71347E-06 8.04229E-16
2.33223E-06 4.41310E-16
3.04617E-06 2.61733E-16
3.85531E-06 1.64826E-16
4.75964E-06 1.08873E-16
5.75916E-06 7.47673E-17
6.85388E-06 5.30314E-17
8.04378E-06 3.86523E-17
9.32888E-06 2.88348E-17
1.07092E-05 2.19469E-17
1.21846E-05 1.69992E-17
1.37553E-05 1.33710E-17
1.54212E-05 1.06615E-17
1.71822E-05 8.60508E-18
1.90385E-05 7.01785E-18
2.09899E-05 5.78663E-18
2.30365E-05 4.81324E-18
2.51783E-05 4.03517E-18
2.74153E-05 3.40733E-18
2.97475E-05 2.89656E-18
3.21749E-05 2.47799E-18
3.46974E-05 2.13256E-18
3.73152E-05 1.84552E-18
4.00281E-05 1.60539E-18
4.28362E-05 1.40316E-18
4.57395E-05 1.23179E-18
4.87380E-05 1.08574E-18
5.18317E-05 9.60640E-19
5.50205E-05 8.53003E-19
5.83045E-05 7.60009E-19
6.16838E-05 6.79357E-19
6.51582E-05 6.09148E-19
6.87277E-05 5.47802E-19
7.23925E-05 4.94005E-19
7.61524E-05 4.46945E-19
9.21439E-05 3.05869E-19
1.09658E-04 2.16332E-19
1.28695E-04 1.57324E-19
1.49255E-04 1.17139E-19
1.71338E-04 8.90206E-20
1.94942E-04 6.88631E-20
2.20070E-04 5.41092E-20
2.46720E-04 4.31093E-20
2.74892E-04 3.47721E-20
3.04586E-04 2.83602E-20
3.35803E-04 2.33632E-20
3.68542E-04 1.94222E-20
4.02802E-04 1.62801E-20
4.38585E-04 1.37501E-20
4.75889E-04 1.16942E-20
5.14715E-04 1.00097E-20
5.55063E-04 8.61869E-21
5.96931E-04 7.46188E-21
6.40321E-04 6.49342E-21
6.85233E-04 5.67761E-21
7.31665E-04 4.98644E-21
7.79618E-04 4.39767E-21
8.29092E-04 3.89362E-21
8.80086E-04 3.46002E-21
9.32601E-04 3.08537E-21
9.86636E-04 2.76028E-21
1.04219E-03 2.47707E-21
1.09927E-03 2.22942E-21
1.15786E-03 2.01209E-21
1.21797E-03 1.82071E-21
1.27961E-03 1.65166E-21
1.34276E-03 1.50186E-21
1.40743E-03 1.36874E-21
1.47362E-03 1.25011E-21
1.54133E-03 1.14412E-21
1.61056E-03 1.04917E-21
1.68131E-03 9.63916E-22
1.75357E-03 8.87185E-22
1.82735E-03 8.17972E-22
1.90265E-03 7.55408E-22
1.97947E-03 6.98738E-22
2.05780E-03 6.47307E-22
2.13765E-03 6.00543E-22
2.21902E-03 5.57943E-22
2.30190E-03 5.19071E-22
2.38630E-03 4.83540E-22
2.47222E-03 4.51012E-22
2.55965E-03 4.21182E-22
2.64859E-03 3.93780E-22
2.73905E-03 3.68577E-22
2.83103E-03 3.45366E-22
2.92452E-03 3.23959E-22
3.01952E-03 3.04189E-22
3.11604E-03 2.85910E-22
3.21407E-03 2.68986E-22
3.31362E-03 2.53299E-22
3.41468E-03 2.38742E-22
3.51725E-03 2.25217E-22
3.62133E-03 2.12638E-22
3.72692E-03 2.00927E-22
3.83403E-03 1.90012E-22
3.94265E-03 1.79829E-22
4.05278E-03 1.70319E-22
4.16442E-03 1.61430E-22
4.27757E-03 1.53113E-22
4.39223E-03 1.45326E-22
4.50840E-03 1.38026E-22
4.62608E-03 1.31179E-22
4.74527E-03 1.24751E-22
4.86597E-03 1.18712E-22
4.98817E-03 1.13032E-22
5.11188E-03 1.07688E-22
5.23711E-03 1.02655E-22
5.36383E-03 9.79121E-23
5.49207E-03 9.34389E-23
5.62181E-03 8.92173E-23
5.75306E-03 8.52306E-23
5.88581E-03 8.14631E-23
6.02007E-03 7.79006E-23
6.15583E-03 7.45297E-23
6.29310E-03 7.13381E-23
6.43187E-03 6.83146E-23
6.57214E-03 6.54485E-23
6.71392E-03 6.27301E-23
6.85720E-03 6.01504E-23
7.00198E-03 5.77010E-23
7.14827E-03 5.53739E-23
7.29605E-03 5.31620E-23
7.44534E-03 5.10584E-23
7.59612E-03 4.90568E-23
7.97965E-03 4.44616E-23
8.37255E-03 4.03865E-23
8.77480E-03 3.67623E-23
9.18641E-03 3.35305E-23
9.60736E-03 3.06412E-23
1.00376E-02 2.80517E-23
1.04773E-02 2.57255E-23
1.09262E-02 2.36311E-23
1.13844E-02 2.17414E-23
1.18520E-02 2.00330E-23
1.23288E-02 1.84853E-23
1.28150E-02 1.70807E-23
1.33104E-02 1.58036E-23
1.38150E-02 1.46405E-23
1.43290E-02 1.35794E-23
1.48521E-02 1.26098E-23
1.53845E-02 1.17225E-23
1.59262E-02 1.09093E-23
1.64770E-02 1.01629E-23
1.70371E-02 9.47695E-24
1.76063E-02 8.84571E-24
1.81848E-02 8.26405E-24
1.87724E-02 7.72745E-24
1.93692E-02 7.23181E-24
1.99751E-02 6.77350E-24
2.05901E-02 6.34923E-24
2.12143E-02 5.95606E-24
2.18476E-02 5.59132E-24
2.24900E-02 5.25264E-24
2.31415E-02 4.93784E-24
2.38021E-02 4.64497E-24
2.44717E-02 4.37225E-24
2.51504E-02 4.11807E-24
2.58382E-02 3.88099E-24
2.65349E-02 3.65965E-24
2.72407E-02 3.45286E-24
2.79555E-02 3.25951E-24
2.86793E-02 3.07858E-24
2.94120E-02 2.90917E-24
3.01537E-02 2.75042E-24
3.09043E-02 2.60156E-24
3.16639E-02 2.46188E-24
3.24324E-02 2.33074E-24
3.32098E-02 2.20753E-24
3.39961E-02 2.09171E-24
3.47912E-02 1.98276E-24
3.55952E-02 1.88022E-24
3.64081E-02 1.78366E-24
3.72297E-02 1.69268E-24
3.80602E-02 1.60692E-24
3.88995E-02 1.52602E-24
3.97476E-02 1.44969E-24
4.06044E-02 1.37762E-24
4.14700E-02 1.30955E-24
4.23443E-02 1.24523E-24
4.32273E-02 1.18441E-24
4.41190E-02 1.12689E-24
4.50194E-02 1.07247E-24
4.59284E-02 1.02095E-24
4.68461E-02 9.72157E-25
4.87074E-02 8.82134E-25
5.06030E-02 8.01219E-25
5.25328E-02 7.28388E-25
5.44967E-02 6.62745E-25
5.64946E-02 6.03504E-25
5.85262E-02 5.49977E-25
6.05914E-02 5.01555E-25
6.26901E-02 4.57705E-25
6.48222E-02 4.17953E-25
6.69873E-02 3.81882E-25
6.91854E-02 3.49118E-25
7.14163E-02 3.19334E-25
7.36799E-02 2.92235E-25
7.59760E-02 2.67559E-25
7.83043E-02 2.45073E-25
8.06647E-02 2.24567E-25
8.30571E-02 2.05856E-25
8.54812E-02 1.88770E-25
8.79369E-02 1.73159E-25
9.04240E-02 1.58888E-25
9.29422E-02 1.45834E-25
9.54915E-02 1.33888E-25
9.80716E-02 1.22951E-25
1.00682E-01 1.12932E-25
1.03323E-01 1.03751E-25
1.05995E-01 9.53349E-26
1.08696E-01 8.76162E-26
1.11427E-01 8.05351E-26
1.14188E-01 7.40368E-26
1.16978E-01 6.80716E-26
1.19797E-01 6.25941E-26
1.22645E-01 5.75634E-26
1.25522E-01 5.29417E-26
1.28428E-01 4.86950E-26
1.31361E-01 4.47921E-26
1.34323E-01 4.12044E-26
1.37313E-01 3.79061E-26
1.40330E-01 3.48733E-26
1.43375E-01 3.20844E-26
1.46447E-01 2.95194E-26
1.49545E-01 2.71601E-26
1.52671E-01 2.49899E-26
1.55823E-01 2.29935E-26
1.59001E-01 2.11569E-26
1.62205E-01 1.94672E-26
1.65435E-01 1.79127E-26
1.68690E-01 1.64825E-26
1.71970E-01 1.51667E-26
1.75276E-01 1.39562E-26
1.78606E-01 1.28425E-26
1.81961E-01 1.18179E-26
1.85340E-01 1.08754E-26
1.88743E-01 1.00085E-26
1.92169E-01 9.21104E-27
1.95619E-01 8.47762E-27
1.99092E-01 7.80313E-27
2.02589E-01 7.18288E-27
2.06107E-01 6.61256E-27
2.09649E-01 6.08821E-27
2.13212E-01 5.60617E-27
2.16797E-01 5.16308E-27
2.20404E-01 4.75583E-27
2.24032E-01 4.38156E-27
2.27680E-01 4.03766E-27
2.31350E-01 3.72168E-27
2.35040E-01 3.43140E-27
2.38751E-01 3.16475E-27
2.42481E-01 2.91984E-27
2.46231E-01 2.69492E-27
2.50000E-01 2.48837E-27
2.53788E-01 2.29873E-27
2.57595E-01 2.12460E-27
2.61421E-01 1.96475E-27
2.65264E-01 1.81800E-27
2.69126E-01 1.68330E-27
2.73005E-01 1.55964E-27
2.76901E-01 1.44614E-27
2.80814E-01 1.34194E-27
2.84744E-01 1.24630E-27
2.88691E-01 1.15849E-27
2.92653E-01 1.07788E-27
2.96632E-01 1.00385E-27
3.00625E-01 9.35867E-28
3.04634E-01 8.73420E-28
3.08658E-01 8.16044E-28
3.12697E-01 7.63313E-28
3.16749E-01 7.14833E-28
3.20816E-01 6.70245E-28
3.24896E-01 6.29218E-28
3.28990E-01 5.91449E-28
3.33097E-01 5.56658E-28
3.37216E-01 5.24591E-28
3.41348E-01 4.95013E-28
3.45492E-01 4.67710E-28
3.49647E-01 4.42486E-28
3.53814E-01 4.19161E-28
3.57992E-01 3.97570E-28
3.62181E-01 3.77563E-28
3.66381E-01 3.59001E-28
3.70590E-01 3.41761E-28
3.74810E-01 3.25725E-28
3.79039E-01 3.10790E-28
3.83277E-01 2.96861E-28
3.87524E-01 2.83849E-28
3.91780E-01 2.71675E-28
3.96044E-01 2.60268E-28
4.00316E-01 2.49560E-28
4.04596E-01 2.39493E-28
4.08882E-01 2.30011E-28
4.13176E-01 2.21066E-28
4.17476E-01 2.12611E-28
4.21783E-01 2.04608E-28
4.26095E-01 1.97017E-28
4.30413E-01 1.89806E-28
4.34737E-01 1.82945E-28
4.39065E-01 1.76406E-28
4.43398E-01 1.70163E-28
4.47736E-01 1.64196E-28
4.52077E-01 1.58482E-28
4.56422E-01 1.53004E-28
4.60770E-01 1.47745E-28
4.65122E-01 1.42690E-28
4.69476E-01 1.37826E-28
4.73832E-01 1.33140E-28
4.78190E-01 1.28622E-28
4.82550E-01 1.24260E-28
4.86912E-01 1.20048E-28
4.91274E-01 1.15975E-28
4.95637E-01 1.12035E-28
5.00000E-01 1.08222E-28
5.04363E-01 1.04528E-28
5.08726E-01 1.00950E-28
5.13088E-01 9.74810E-29
5.17450E-01 9.41176E-29
5.21810E-01 9.08556E-29
5.26168E-01 8.76910E-29
5.30524E-01 8.46206E-29
5.34878E-01 8.16411E-29
5.39230E-01 7.87497E-29
5.43578E-01 7.59437E-29
5.47923E-01 7.32206E-29
5.52264E-01 7.05780E-29
5.56602E-01 6.80139E-29
5.60935E-01 6.55262E-29
5.65263E-01 6.31128E-29
5.69587E-01 6.07721E-29
5.73905E-01 5.85023E-29
5.78217E-01 5.63016E-29
5.82524E-01 5.41685E-29
5.86824E-01 5.21014E-29
5.91118E-01 5.00988E-29
5.95404E-01 4.81593E-29
5.99684E-01 4.62814E-29
6.03956E-01 4.44637E-29
6.08220E-01 4.27048E-29
6.12476E-01 4.10035E-29
6.16723E-01 3.93583E-29
6.20961E-01 3.77679E-29
6.25190E-01 3.62312E-29
6.29410E-01 3.47467E-29
6.33619E-01 3.33132E-29
6.37819E-01 3.19295E-29
6.42008E-01 3.05944E-29
6.46186E-01 2.93065E-29
6.50353E-01 2.80647E-29
6.54508E-01 2.68679E-29
6.58652E-01 2.57147E-29
6.62784E-01 2.46040E-29
6.66903E-01 2.35348E-29
6.71010E-01 2.25057E-29
6.75104E-01 2.15157E-29
6.79184E-01 2.05636E-29
6.83251E-01 1.96483E-29
6.87303E-01 1.87688E-29
6.91342E-01 1.79240E-29
6.95366E-01 1.71128E-29
6.99375E-01 1.63341E-29
7.03368E-01 1.55869E-29
7.07347E-01 1.48703E-29
7.11309E-01 1.41832E-29
7.15256E-01 1.35246E-29
7.19186E-01 1.28936E-29
7.23099E-01 1.22892E-29
7.26995E-01 1.17106E-29
7.30874E-01 1.11568E-29
7.34736E-01 1.06270E-29
7.38579E-01 1.01202E-29
7.42405E-01 9.63573E-30
7.46212E-01 9.17268E-30
7.50000E-01 8.73026E-30
7.53769E-01 8.30770E-30
7.57519E-01 7.90424E-30
7.61249E-01 7.51915E-30
7.64960E-01 7.15170E-30
7.68650E-01 6.80121E-30
7.72320E-01 6.46699E-30
7.75968E-01 6.14839E-30
7.79596E-01 5.84476E-30
7.83203E-01 5.55550E-30
7.86788E-01 5.28001E-30
7.90351E-01 5.01770E-30
7.93893E-01 4.76802E-30
7.97411E-01 4.53042E-30
8.00908E-01 4.30438E-30
8.04381E-01 4.08939E-30
8.07831E-01 3.88497E-30
8.11257E-01 3.69064E-30
8.14660E-01 3.50595E-30
8.18039E-01 3.33046E-30
8.21394E-01 3.16376E-30
8.24724E-01 3.00543E-30
8.28030E-01 2.85508E-30
8.31310E-01 2.71235E-30
8.34565E-01 2.57686E-30
8.37795E-01 2.44828E-30
8.40999E-01 2.32626E-30
8.44177E-01 2.21050E-30
8.47329E-01 2.10069E-30
8.50455E-01 1.99652E-30
8.53553E-01 1.89773E-30
8.56625E-01 1.80404E-30
8.59670E-01 1.71520E-30
8.62687E-01 1.63096E-30
8.65677E-01 1.55108E-30
8.68639E-01 1.47534E-30
8.71572E-01 1.40353E-30
8.74478E-01 1.33543E-30
8.77355E-01 1.27087E-30
8.80203E-01 1.20964E-30
8.83022E-01 1.15157E-30
8.85812E-01 1.09650E-30
8.88573E-01 1.04426E-30
8.91304E-01 9.94697E-31
8.94005E-01 9.47669E-31
8.96677E-01 9.03035E-31
8.99318E-01 8.60665E-31
9.01928E-01 8.20434E-31
9.04508E-01 7.82224E-31
9.07058E-01 7.45923E-31
9.09576E-01 7.11423E-31
9.12063E-01 6.78626E-31
9.14519E-01 6.47434E-31
9.16943E-01 6.17758E-31
9.19335E-01 5.89512E-31
9.21696E-01 5.62617E-31
9.24024E-01 5.36995E-31
9.26320E-01 5.12575E-31
9.28584E-01 4.89289E-31
9.30815E-01 4.67074E-31
9.33013E-01 4.45868E-31
9.35178E-01 4.25615E-31
9.37310E-01 4.06262E-31
9.39409E-01 3.87759E-31
9.41474E-01 3.70059E-31
9.43505E-01 3.53117E-31
9.45503E-01 3.36892E-31
9.47467E-01 3.21344E-31
9.49397E-01 3.06439E-31
9.51293E-01 2.92140E-31
9.53154E-01 2.78418E-31
9.54981E-01 2.65241E-31
9.56773E-01 2.52582E-31
9.58530E-01 2.40415E-31
9.60252E-01 2.28716E-31
9.61940E-01 2.17462E-31
9.63592E-01 2.06632E-31
9.65209E-01 1.96208E-31
9.66790E-01 1.86170E-31
9.68336E-01 1.76502E-31
9.69846E-01 1.67189E-31
9.71321E-01 1.58217E-31
9.72759E-01 1.49571E-31
9.74162E-01 1.41241E-31
9.75528E-01 1.33213E-31
9.76858E-01 1.25480E-31
9.78152E-01 1.18029E-31
9.79410E-01 1.10854E-31
9.80631E-01 1.03946E-31
9.81815E-01 9.72978E-32
9.82963E-01 9.09024E-32
9.84074E-01 8.47540E-32
9.85148E-01 7.88471E-32
9.86185E-01 7.31766E-32
9.87185E-01 6.77379E-32
9.88148E-01 6.25270E-32
9.89074E-01 5.75402E-32
9.89962E-01 5.27741E-32
9.90814E-01 4.82257E-32
9.91627E-01 4.38924E-32
9.92404E-01 3.97717E-32
9.93143E-01 3.58616E-32
9.93844E-01 3.21602E-32
9.94508E-01 2.86657E-32
9.95134E-01 2.53767E-32
9.95722E-01 2.22920E-32
9.96273E-01 1.94103E-32
9.96786E-01 1.67307E-32
9.97261E-01 1.42523E-32
9.97698E-01 1.19744E-32
9.98097E-01 9.89640E-33
9.98459E-01 8.01766E-33
9.98782E-01 6.33777E-33
9.99067E-01 4.85632E-33
9.99315E-01 3.57298E-33
9.99524E-01 2.48750E-33
9.99695E-01 1.59966E-33
9.99829E-01 9.09281E-34
9.99924E-01 4.16244E-34
9.99981E-01 1.20456E-34
1.00000E+00 2.18648E-35
