 #
 # Subroutine ELSEPA. Elastic scattering of electrons and positrons
 #                    by neutral atoms and positive ions
 #
 # Projectile: electron
 # Kinetic energy = 4.50000E+07 eV = 1.65372E+06 a.u.
 #
 # WARNING: High-energy factorization with free-atom DF screening.
 #          Absorption, polarization and exchange corrections are
 #          switched off.
 #          Phase shifts are calculated for the bare nucleus.
 #          Scattering amplitudes are not evaluated.
 #
 # Element: Lu,  Z =  71,  atomic weight = 1.74967E+02 g/mol
 #
 # Nuclear model: Fermi distribution
 #                Average radius = 5.98461E-13 cm
 #                Skin thickness = 5.46000E-14 cm
 #
 # Number of electrons = 71
 #
 # Total elastic cross section = 7.18493E-18 cm**2 = 2.56578E-01 a0**2
 # 1st transport cross section = 4.69164E-24 cm**2 = 1.67542E-07 a0**2
 # 2nd transport cross section = 1.36979E-23 cm**2 = 4.89162E-07 a0**2
 #
 #
 # Differential cross section:                       MU=(1-COS(THETA))/2
 #
 #  THETA        MU          DCS          DCS        Sherman      error
 #  (deg)                 (cm**2/sr)   (a0**2/sr)    function
 #----------------------------------------------------------------------
0.00000E+00 1.37240E-10
7.61557E-13 1.37134E-10
1.18994E-12 1.37075E-10
1.71346E-12 1.37003E-10
2.33225E-12 1.36917E-10
3.04617E-12 1.36819E-10
3.85530E-12 1.36708E-10
4.75964E-12 1.36584E-10
5.75917E-12 1.36447E-10
6.85391E-12 1.36297E-10
8.04379E-12 1.36135E-10
9.32893E-12 1.35960E-10
1.07092E-11 1.35772E-10
1.21847E-11 1.35572E-10
1.37554E-11 1.35360E-10
1.54213E-11 1.35135E-10
1.71823E-11 1.34899E-10
1.90386E-11 1.34650E-10
2.09900E-11 1.34389E-10
2.30367E-11 1.34117E-10
2.51785E-11 1.33832E-10
2.74156E-11 1.33537E-10
2.97478E-11 1.33230E-10
3.21752E-11 1.32911E-10
3.46979E-11 1.32582E-10
3.73157E-11 1.32241E-10
4.00286E-11 1.31890E-10
4.28368E-11 1.31528E-10
4.57402E-11 1.31155E-10
4.87388E-11 1.30772E-10
5.18325E-11 1.30379E-10
5.50215E-11 1.29976E-10
5.83057E-11 1.29563E-10
6.16850E-11 1.29140E-10
6.51595E-11 1.28708E-10
6.87293E-11 1.28266E-10
7.23943E-11 1.27816E-10
7.61544E-11 1.27356E-10
1.18991E-10 1.22312E-10
1.71347E-10 1.16592E-10
2.33223E-10 1.10401E-10
3.04617E-10 1.03933E-10
3.85531E-10 9.73649E-11
4.75965E-10 9.08475E-11
5.75917E-10 8.45016E-11
6.85389E-10 7.84208E-11
8.04380E-10 7.26732E-11
9.32891E-10 6.72933E-11
1.07092E-09 6.23001E-11
1.21847E-09 5.76968E-11
1.37554E-09 5.34752E-11
1.54213E-09 4.96208E-11
1.71823E-09 4.61109E-11
1.90386E-09 4.29171E-11
2.09900E-09 4.00130E-11
2.30367E-09 3.73726E-11
2.51785E-09 3.49708E-11
2.74156E-09 3.27831E-11
2.97478E-09 3.07863E-11
3.21752E-09 2.89606E-11
3.46978E-09 2.72880E-11
3.73156E-09 2.57523E-11
4.00286E-09 2.43393E-11
4.28368E-09 2.30332E-11
4.57402E-09 2.18240E-11
4.87388E-09 2.07029E-11
5.18326E-09 1.96611E-11
5.50215E-09 1.86910E-11
5.83057E-09 1.77857E-11
6.16850E-09 1.69360E-11
6.51596E-09 1.61392E-11
6.87293E-09 1.53916E-11
7.23942E-09 1.46888E-11
7.61544E-09 1.40274E-11
1.18991E-08 9.01267E-12
1.71347E-08 6.08578E-12
2.33223E-08 4.19108E-12
3.04617E-08 2.98150E-12
3.85531E-08 2.17872E-12
4.75965E-08 1.62811E-12
5.75917E-08 1.23952E-12
6.85389E-08 9.57341E-13
8.04380E-08 7.47703E-13
9.32891E-08 5.91376E-13
1.07092E-07 4.72985E-13
1.21847E-07 3.82161E-13
1.37554E-07 3.11713E-13
1.54213E-07 2.56423E-13
1.71823E-07 2.12707E-13
1.90386E-07 1.77963E-13
2.09900E-07 1.50094E-13
2.30367E-07 1.27545E-13
2.51785E-07 1.09151E-13
2.74156E-07 9.40438E-14
2.97478E-07 8.14454E-14
3.21752E-07 7.09355E-14
3.46978E-07 6.21150E-14
3.73156E-07 5.46629E-14
4.00286E-07 4.83255E-14
4.28368E-07 4.28933E-14
4.57402E-07 3.82123E-14
4.87388E-07 3.41591E-14
5.18325E-07 3.06323E-14
5.50215E-07 2.75501E-14
5.83057E-07 2.48459E-14
6.16850E-07 2.24614E-14
6.51596E-07 2.03562E-14
6.87293E-07 1.84925E-14
7.23942E-07 1.68378E-14
7.61543E-07 1.53644E-14
1.18991E-06 6.76839E-15
1.71347E-06 3.42441E-15
2.33223E-06 1.91307E-15
3.04617E-06 1.15127E-15
3.85531E-06 7.33933E-16
4.75964E-06 4.89850E-16
5.75916E-06 3.39378E-16
6.85388E-06 2.42514E-16
8.04378E-06 1.77866E-16
9.32888E-06 1.33379E-16
1.07092E-05 1.01956E-16
1.21846E-05 7.92547E-17
1.37553E-05 6.25270E-17
1.54212E-05 4.99836E-17
1.71822E-05 4.04305E-17
1.90385E-05 3.30351E-17
2.09899E-05 2.72845E-17
2.30365E-05 2.27285E-17
2.51783E-05 1.90798E-17
2.74153E-05 1.61307E-17
2.97475E-05 1.37282E-17
3.21749E-05 1.17567E-17
3.46974E-05 1.01279E-17
3.73152E-05 8.77290E-18
4.00281E-05 7.63818E-18
4.28362E-05 6.68167E-18
4.57395E-05 5.87039E-18
4.87380E-05 5.17841E-18
5.18317E-05 4.58520E-18
5.50205E-05 4.07438E-18
5.83045E-05 3.63272E-18
6.16838E-05 3.24938E-18
6.51582E-05 2.91545E-18
6.87277E-05 2.62347E-18
7.23925E-05 2.36724E-18
7.61524E-05 2.14164E-18
9.21439E-05 1.46843E-18
1.09658E-04 1.04022E-18
1.28695E-04 7.57476E-19
1.49255E-04 5.64602E-19
1.71338E-04 4.29449E-19
1.94942E-04 3.32440E-19
2.20070E-04 2.61360E-19
2.46720E-04 2.08319E-19
2.74892E-04 1.68087E-19
3.04586E-04 1.37125E-19
3.35803E-04 1.12984E-19
3.68542E-04 9.39351E-20
4.02802E-04 7.87427E-20
4.38585E-04 6.65060E-20
4.75889E-04 5.65606E-20
5.14715E-04 4.84101E-20
5.55063E-04 4.16791E-20
5.96931E-04 3.60808E-20
6.40321E-04 3.13938E-20
6.85233E-04 2.74456E-20
7.31665E-04 2.41007E-20
7.79618E-04 2.12515E-20
8.29092E-04 1.88124E-20
8.80086E-04 1.67145E-20
9.32601E-04 1.49019E-20
9.86636E-04 1.33294E-20
1.04219E-03 1.19596E-20
1.09927E-03 1.07620E-20
1.15786E-03 9.71121E-21
1.21797E-03 8.78608E-21
1.27961E-03 7.96901E-21
1.34276E-03 7.24514E-21
1.40743E-03 6.60200E-21
1.47362E-03 6.02898E-21
1.54133E-03 5.51710E-21
1.61056E-03 5.05868E-21
1.68131E-03 4.64713E-21
1.75357E-03 4.27681E-21
1.82735E-03 3.94286E-21
1.90265E-03 3.64105E-21
1.97947E-03 3.36773E-21
2.05780E-03 3.11973E-21
2.13765E-03 2.89428E-21
2.21902E-03 2.68896E-21
2.30190E-03 2.50163E-21
2.38630E-03 2.33044E-21
2.47222E-03 2.17374E-21
2.55965E-03 2.03008E-21
2.64859E-03 1.89817E-21
2.73905E-03 1.77688E-21
2.83103E-03 1.66519E-21
2.92452E-03 1.56220E-21
3.01952E-03 1.46710E-21
3.11604E-03 1.37919E-21
3.21407E-03 1.29781E-21
3.31362E-03 1.22240E-21
3.41468E-03 1.15242E-21
3.51725E-03 1.08742E-21
3.62133E-03 1.02697E-21
3.72692E-03 9.70702E-22
3.83403E-03 9.18264E-22
3.94265E-03 8.69348E-22
4.05278E-03 8.23673E-22
4.16442E-03 7.80984E-22
4.27757E-03 7.41048E-22
4.39223E-03 7.03654E-22
4.50840E-03 6.68609E-22
4.62608E-03 6.35738E-22
4.74527E-03 6.04880E-22
4.86597E-03 5.75888E-22
4.98817E-03 5.48628E-22
5.11188E-03 5.22976E-22
5.23711E-03 4.98820E-22
5.36383E-03 4.76055E-22
5.49207E-03 4.54586E-22
5.62181E-03 4.34324E-22
5.75306E-03 4.15190E-22
5.88581E-03 3.97107E-22
6.02007E-03 3.80007E-22
6.15583E-03 3.63826E-22
6.29310E-03 3.48506E-22
6.43187E-03 3.33991E-22
6.57214E-03 3.20231E-22
6.71392E-03 3.07180E-22
6.85720E-03 2.94792E-22
7.00198E-03 2.83029E-22
7.14827E-03 2.71852E-22
7.29605E-03 2.61227E-22
7.44534E-03 2.51121E-22
7.59612E-03 2.41504E-22
7.97965E-03 2.19417E-22
8.37255E-03 1.99821E-22
8.77480E-03 1.82384E-22
9.18641E-03 1.66825E-22
9.60736E-03 1.52904E-22
1.00376E-02 1.40418E-22
1.04773E-02 1.29193E-22
1.09262E-02 1.19076E-22
1.13844E-02 1.09939E-22
1.18520E-02 1.01670E-22
1.23288E-02 9.41700E-23
1.28150E-02 8.73524E-23
1.33104E-02 8.11453E-23
1.38150E-02 7.54838E-23
1.43290E-02 7.03111E-23
1.48521E-02 6.55769E-23
1.53845E-02 6.12372E-23
1.59262E-02 5.72527E-23
1.64770E-02 5.35890E-23
1.70371E-02 5.02153E-23
1.76063E-02 4.71044E-23
1.81848E-02 4.42317E-23
1.87724E-02 4.15757E-23
1.93692E-02 3.91169E-23
1.99751E-02 3.68378E-23
2.05901E-02 3.47227E-23
2.12143E-02 3.27577E-23
2.18476E-02 3.09301E-23
2.24900E-02 2.92283E-23
2.31415E-02 2.76421E-23
2.38021E-02 2.61620E-23
2.44717E-02 2.47797E-23
2.51504E-02 2.34875E-23
2.58382E-02 2.22783E-23
2.65349E-02 2.11457E-23
2.72407E-02 2.00841E-23
2.79555E-02 1.90880E-23
2.86793E-02 1.81527E-23
2.94120E-02 1.72738E-23
3.01537E-02 1.64471E-23
3.09043E-02 1.56690E-23
3.16639E-02 1.49361E-23
3.24324E-02 1.42452E-23
3.32098E-02 1.35935E-23
3.39961E-02 1.29784E-23
3.47912E-02 1.23973E-23
3.55952E-02 1.18481E-23
3.64081E-02 1.13286E-23
3.72297E-02 1.08369E-23
3.80602E-02 1.03713E-23
3.88995E-02 9.93012E-24
3.97476E-02 9.51182E-24
4.06044E-02 9.11499E-24
4.14700E-02 8.73832E-24
4.23443E-02 8.38060E-24
4.32273E-02 8.04067E-24
4.41190E-02 7.71750E-24
4.50194E-02 7.41010E-24
4.59284E-02 7.11756E-24
4.68461E-02 6.83901E-24
4.87074E-02 6.32079E-24
5.06030E-02 5.84966E-24
5.25328E-02 5.42059E-24
5.44967E-02 5.02917E-24
5.64946E-02 4.67150E-24
5.85262E-02 4.34415E-24
6.05914E-02 4.04412E-24
6.26901E-02 3.76871E-24
6.48222E-02 3.51556E-24
6.69873E-02 3.28256E-24
6.91854E-02 3.06782E-24
7.14163E-02 2.86967E-24
7.36799E-02 2.68660E-24
7.59760E-02 2.51728E-24
7.83043E-02 2.36049E-24
8.06647E-02 2.21515E-24
8.30571E-02 2.08029E-24
8.54812E-02 1.95502E-24
8.79369E-02 1.83855E-24
9.04240E-02 1.73016E-24
9.29422E-02 1.62919E-24
9.54915E-02 1.53506E-24
9.80716E-02 1.44723E-24
1.00682E-01 1.36521E-24
1.03323E-01 1.28855E-24
1.05995E-01 1.21685E-24
1.08696E-01 1.14974E-24
1.11427E-01 1.08688E-24
1.14188E-01 1.02795E-24
1.16978E-01 9.72678E-25
1.19797E-01 9.20798E-25
1.22645E-01 8.72071E-25
1.25522E-01 8.26277E-25
1.28428E-01 7.83213E-25
1.31361E-01 7.42694E-25
1.34323E-01 7.04547E-25
1.37313E-01 6.68613E-25
1.40330E-01 6.34746E-25
1.43375E-01 6.02810E-25
1.46447E-01 5.72679E-25
1.49545E-01 5.44238E-25
1.52671E-01 5.17380E-25
1.55823E-01 4.92003E-25
1.59001E-01 4.68016E-25
1.62205E-01 4.45332E-25
1.65435E-01 4.23871E-25
1.68690E-01 4.03560E-25
1.71970E-01 3.84328E-25
1.75276E-01 3.66111E-25
1.78606E-01 3.48848E-25
1.81961E-01 3.32485E-25
1.85340E-01 3.16967E-25
1.88743E-01 3.02246E-25
1.92169E-01 2.88277E-25
1.95619E-01 2.75016E-25
1.99092E-01 2.62424E-25
2.02589E-01 2.50463E-25
2.06107E-01 2.39097E-25
2.09649E-01 2.28294E-25
2.13212E-01 2.18023E-25
2.16797E-01 2.08255E-25
2.20404E-01 1.98963E-25
2.24032E-01 1.90120E-25
2.27680E-01 1.81703E-25
2.31350E-01 1.73690E-25
2.35040E-01 1.66059E-25
2.38751E-01 1.58790E-25
2.42481E-01 1.51864E-25
2.46231E-01 1.45263E-25
2.50000E-01 1.38971E-25
2.53788E-01 1.32972E-25
2.57595E-01 1.27251E-25
2.61421E-01 1.21794E-25
2.65264E-01 1.16588E-25
2.69126E-01 1.11620E-25
2.73005E-01 1.06878E-25
2.76901E-01 1.02351E-25
2.80814E-01 9.80285E-26
2.84744E-01 9.39007E-26
2.88691E-01 8.99580E-26
2.92653E-01 8.61913E-26
2.96632E-01 8.25923E-26
3.00625E-01 7.91528E-26
3.04634E-01 7.58652E-26
3.08658E-01 7.27224E-26
3.12697E-01 6.97175E-26
3.16749E-01 6.68439E-26
3.20816E-01 6.40956E-26
3.24896E-01 6.14667E-26
3.28990E-01 5.89516E-26
3.33097E-01 5.65451E-26
3.37216E-01 5.42421E-26
3.41348E-01 5.20380E-26
3.45492E-01 4.99282E-26
3.49647E-01 4.79084E-26
3.53814E-01 4.59745E-26
3.57992E-01 4.41226E-26
3.62181E-01 4.23491E-26
3.66381E-01 4.06505E-26
3.70590E-01 3.90233E-26
3.74810E-01 3.74645E-26
3.79039E-01 3.59709E-26
3.83277E-01 3.45397E-26
3.87524E-01 3.31682E-26
3.91780E-01 3.18536E-26
3.96044E-01 3.05936E-26
4.00316E-01 2.93858E-26
4.04596E-01 2.82278E-26
4.08882E-01 2.71175E-26
4.13176E-01 2.60529E-26
4.17476E-01 2.50319E-26
4.21783E-01 2.40527E-26
4.26095E-01 2.31135E-26
4.30413E-01 2.22127E-26
4.34737E-01 2.13484E-26
4.39065E-01 2.05193E-26
4.43398E-01 1.97238E-26
4.47736E-01 1.89604E-26
4.52077E-01 1.82279E-26
4.56422E-01 1.75249E-26
4.60770E-01 1.68502E-26
4.65122E-01 1.62026E-26
4.69476E-01 1.55809E-26
4.73832E-01 1.49841E-26
4.78190E-01 1.44112E-26
4.82550E-01 1.38611E-26
4.86912E-01 1.33329E-26
4.91274E-01 1.28258E-26
4.95637E-01 1.23387E-26
5.00000E-01 1.18709E-26
5.04363E-01 1.14217E-26
5.08726E-01 1.09902E-26
5.13088E-01 1.05757E-26
5.17450E-01 1.01775E-26
5.21810E-01 9.79500E-27
5.26168E-01 9.42749E-27
5.30524E-01 9.07439E-27
5.34878E-01 8.73510E-27
5.39230E-01 8.40908E-27
5.43578E-01 8.09577E-27
5.47923E-01 7.79466E-27
5.52264E-01 7.50527E-27
5.56602E-01 7.22712E-27
5.60935E-01 6.95976E-27
5.65263E-01 6.70275E-27
5.69587E-01 6.45567E-27
5.73905E-01 6.21814E-27
5.78217E-01 5.98976E-27
5.82524E-01 5.77017E-27
5.86824E-01 5.55902E-27
5.91118E-01 5.35598E-27
5.95404E-01 5.16071E-27
5.99684E-01 4.97292E-27
6.03956E-01 4.79229E-27
6.08220E-01 4.61856E-27
6.12476E-01 4.45145E-27
6.16723E-01 4.29068E-27
6.20961E-01 4.13602E-27
6.25190E-01 3.98722E-27
6.29410E-01 3.84405E-27
6.33619E-01 3.70629E-27
6.37819E-01 3.57372E-27
6.42008E-01 3.44615E-27
6.46186E-01 3.32337E-27
6.50353E-01 3.20519E-27
6.54508E-01 3.09144E-27
6.58652E-01 2.98195E-27
6.62784E-01 2.87654E-27
6.66903E-01 2.77505E-27
6.71010E-01 2.67734E-27
6.75104E-01 2.58325E-27
6.79184E-01 2.49265E-27
6.83251E-01 2.40540E-27
6.87303E-01 2.32137E-27
6.91342E-01 2.24043E-27
6.95366E-01 2.16246E-27
6.99375E-01 2.08736E-27
7.03368E-01 2.01500E-27
7.07347E-01 1.94528E-27
7.11309E-01 1.87810E-27
7.15256E-01 1.81336E-27
7.19186E-01 1.75097E-27
7.23099E-01 1.69083E-27
7.26995E-01 1.63287E-27
7.30874E-01 1.57699E-27
7.34736E-01 1.52312E-27
7.38579E-01 1.47118E-27
7.42405E-01 1.42109E-27
7.46212E-01 1.37279E-27
7.50000E-01 1.32620E-27
7.53769E-01 1.28127E-27
7.57519E-01 1.23792E-27
7.61249E-01 1.19610E-27
7.64960E-01 1.15575E-27
7.68650E-01 1.11681E-27
7.72320E-01 1.07924E-27
7.75968E-01 1.04297E-27
7.79596E-01 1.00796E-27
7.83203E-01 9.74164E-28
7.86788E-01 9.41534E-28
7.90351E-01 9.10025E-28
7.93893E-01 8.79597E-28
7.97411E-01 8.50208E-28
8.00908E-01 8.21820E-28
8.04381E-01 7.94395E-28
8.07831E-01 7.67898E-28
8.11257E-01 7.42293E-28
8.14660E-01 7.17549E-28
8.18039E-01 6.93632E-28
8.21394E-01 6.70513E-28
8.24724E-01 6.48162E-28
8.28030E-01 6.26551E-28
8.31310E-01 6.05653E-28
8.34565E-01 5.85441E-28
8.37795E-01 5.65891E-28
8.40999E-01 5.46978E-28
8.44177E-01 5.28680E-28
8.47329E-01 5.10974E-28
8.50455E-01 4.93838E-28
8.53553E-01 4.77253E-28
8.56625E-01 4.61199E-28
8.59670E-01 4.45656E-28
8.62687E-01 4.30607E-28
8.65677E-01 4.16034E-28
8.68639E-01 4.01920E-28
8.71572E-01 3.88249E-28
8.74478E-01 3.75006E-28
8.77355E-01 3.62175E-28
8.80203E-01 3.49743E-28
8.83022E-01 3.37696E-28
8.85812E-01 3.26020E-28
8.88573E-01 3.14703E-28
8.91304E-01 3.03733E-28
8.94005E-01 2.93097E-28
8.96677E-01 2.82785E-28
8.99318E-01 2.72786E-28
9.01928E-01 2.63090E-28
9.04508E-01 2.53686E-28
9.07058E-01 2.44565E-28
9.09576E-01 2.35718E-28
9.12063E-01 2.27135E-28
9.14519E-01 2.18809E-28
9.16943E-01 2.10732E-28
9.19335E-01 2.02895E-28
9.21696E-01 1.95290E-28
9.24024E-01 1.87912E-28
9.26320E-01 1.80752E-28
9.28584E-01 1.73805E-28
9.30815E-01 1.67063E-28
9.33013E-01 1.60521E-28
9.35178E-01 1.54172E-28
9.37310E-01 1.48012E-28
9.39409E-01 1.42034E-28
9.41474E-01 1.36234E-28
9.43505E-01 1.30607E-28
9.45503E-01 1.25146E-28
9.47467E-01 1.19849E-28
9.49397E-01 1.14711E-28
9.51293E-01 1.09727E-28
9.53154E-01 1.04893E-28
9.54981E-01 1.00206E-28
9.56773E-01 9.56609E-29
9.58530E-01 9.12552E-29
9.60252E-01 8.69852E-29
9.61940E-01 8.28475E-29
9.63592E-01 7.88389E-29
9.65209E-01 7.49565E-29
9.66790E-01 7.11973E-29
9.68336E-01 6.75586E-29
9.69846E-01 6.40376E-29
9.71321E-01 6.06319E-29
9.72759E-01 5.73389E-29
9.74162E-01 5.41564E-29
9.75528E-01 5.10820E-29
9.76858E-01 4.81138E-29
9.78152E-01 4.52495E-29
9.79410E-01 4.24873E-29
9.80631E-01 3.98254E-29
9.81815E-01 3.72618E-29
9.82963E-01 3.47950E-29
9.84074E-01 3.24232E-29
9.85148E-01 3.01450E-29
9.86185E-01 2.79589E-29
9.87185E-01 2.58635E-29
9.88148E-01 2.38574E-29
9.89074E-01 2.19394E-29
9.89962E-01 2.01083E-29
9.90814E-01 1.83629E-29
9.91627E-01 1.67023E-29
9.92404E-01 1.51253E-29
9.93143E-01 1.36310E-29
9.93844E-01 1.22185E-29
9.94508E-01 1.08870E-29
9.95134E-01 9.63566E-30
9.95722E-01 8.46376E-30
9.96273E-01 7.37060E-30
9.96786E-01 6.35554E-30
9.97261E-01 5.41799E-30
9.97698E-01 4.55741E-30
9.98097E-01 3.77330E-30
9.98459E-01 3.06521E-30
9.98782E-01 2.43273E-30
9.99067E-01 1.87551E-30
9.99315E-01 1.39322E-30
9.99524E-01 9.85586E-31
9.99695E-01 6.52384E-31
9.99829E-01 3.93422E-31
9.99924E-01 2.08553E-31
9.99981E-01 9.76735E-32
1.00000E+00 6.07208E-32
