 #
 # Subroutine ELSEPA. Elastic scattering of electrons and positrons
 #                    by neutral atoms and positive ions
 #
 # Projectile: electron
 # Kinetic energy = 6.00000E+06 eV = 2.20496E+05 a.u.
 #
 # WARNING: High-energy factorization with free-atom DF screening.
 #          Absorption, polarization and exchange corrections are
 #          switched off.
 #          Phase shifts are calculated for the bare nucleus.
 #          Scattering amplitudes are not evaluated.
 #
 # Element: Lu,  Z =  71,  atomic weight = 1.74967E+02 g/mol
 #
 # Nuclear model: Fermi distribution
 #                Average radius = 5.98461E-13 cm
 #                Skin thickness = 5.46000E-14 cm
 #
 # Number of electrons = 71
 #
 # Total elastic cross section = 7.23436E-18 cm**2 = 2.58344E-01 a0**2
 # 1st transport cross section = 2.01963E-22 cm**2 = 7.21221E-06 a0**2
 # 2nd transport cross section = 5.51652E-22 cm**2 = 1.96999E-05 a0**2
 #
 #
 # Differential cross section:                       MU=(1-COS(THETA))/2
 #
 #  THETA        MU          DCS          DCS        Sherman      error
 #  (deg)                 (cm**2/sr)   (a0**2/sr)    function
 #----------------------------------------------------------------------
0.00000E+00 2.80894E-12
7.61557E-13 2.80890E-12
1.18994E-12 2.80887E-12
1.71346E-12 2.80884E-12
2.33225E-12 2.80881E-12
3.04617E-12 2.80877E-12
3.85530E-12 2.80872E-12
4.75964E-12 2.80867E-12
5.75917E-12 2.80861E-12
6.85391E-12 2.80855E-12
8.04379E-12 2.80848E-12
9.32893E-12 2.80840E-12
1.07092E-11 2.80833E-12
1.21847E-11 2.80824E-12
1.37554E-11 2.80815E-12
1.54213E-11 2.80805E-12
1.71823E-11 2.80795E-12
1.90386E-11 2.80785E-12
2.09900E-11 2.80773E-12
2.30367E-11 2.80762E-12
2.51785E-11 2.80749E-12
2.74156E-11 2.80737E-12
2.97478E-11 2.80723E-12
3.21752E-11 2.80709E-12
3.46979E-11 2.80695E-12
3.73157E-11 2.80680E-12
4.00286E-11 2.80664E-12
4.28368E-11 2.80648E-12
4.57402E-11 2.80631E-12
4.87388E-11 2.80614E-12
5.18325E-11 2.80596E-12
5.50215E-11 2.80578E-12
5.83057E-11 2.80559E-12
6.16850E-11 2.80540E-12
6.51595E-11 2.80520E-12
6.87293E-11 2.80499E-12
7.23943E-11 2.80478E-12
7.61544E-11 2.80457E-12
1.18991E-10 2.80211E-12
1.71347E-10 2.79912E-12
2.33223E-10 2.79559E-12
3.04617E-10 2.79152E-12
3.85531E-10 2.78692E-12
4.75965E-10 2.78180E-12
5.75917E-10 2.77615E-12
6.85389E-10 2.77000E-12
8.04380E-10 2.76333E-12
9.32891E-10 2.75615E-12
1.07092E-09 2.74848E-12
1.21847E-09 2.74033E-12
1.37554E-09 2.73169E-12
1.54213E-09 2.72257E-12
1.71823E-09 2.71299E-12
1.90386E-09 2.70295E-12
2.09900E-09 2.69247E-12
2.30367E-09 2.68155E-12
2.51785E-09 2.67019E-12
2.74156E-09 2.65842E-12
2.97478E-09 2.64624E-12
3.21752E-09 2.63367E-12
3.46978E-09 2.62070E-12
3.73156E-09 2.60736E-12
4.00286E-09 2.59366E-12
4.28368E-09 2.57960E-12
4.57402E-09 2.56520E-12
4.87388E-09 2.55047E-12
5.18326E-09 2.53542E-12
5.50215E-09 2.52007E-12
5.83057E-09 2.50442E-12
6.16850E-09 2.48849E-12
6.51596E-09 2.47229E-12
6.87293E-09 2.45583E-12
7.23942E-09 2.43912E-12
7.61544E-09 2.42218E-12
1.18991E-08 2.24259E-12
1.71347E-08 2.05243E-12
2.33223E-08 1.86169E-12
3.04617E-08 1.67796E-12
3.85531E-08 1.50637E-12
4.75965E-08 1.34981E-12
5.75917E-08 1.20943E-12
6.85389E-08 1.08521E-12
8.04380E-08 9.76046E-13
9.32891E-08 8.80559E-13
1.07092E-07 7.97196E-13
1.21847E-07 7.24401E-13
1.37554E-07 6.60698E-13
1.54213E-07 6.04747E-13
1.71823E-07 5.55408E-13
1.90386E-07 5.11701E-13
2.09900E-07 4.72795E-13
2.30367E-07 4.37979E-13
2.51785E-07 4.06605E-13
2.74156E-07 3.78265E-13
2.97478E-07 3.52555E-13
3.21752E-07 3.29141E-13
3.46978E-07 3.07741E-13
3.73156E-07 2.88067E-13
4.00286E-07 2.69954E-13
4.28368E-07 2.53259E-13
4.57402E-07 2.37837E-13
4.87388E-07 2.23564E-13
5.18325E-07 2.10320E-13
5.50215E-07 1.97752E-13
5.83057E-07 1.85221E-13
6.16850E-07 1.73924E-13
6.51596E-07 1.63713E-13
6.87293E-07 1.54461E-13
7.23942E-07 1.46058E-13
7.61543E-07 1.38408E-13
1.18991E-06 8.22025E-14
1.71347E-06 5.13120E-14
2.33223E-06 3.35116E-14
3.04617E-06 2.27574E-14
3.85531E-06 1.59293E-14
4.75964E-06 1.14273E-14
5.75916E-06 8.37219E-15
6.85388E-06 6.24438E-15
8.04378E-06 4.74578E-15
9.32888E-06 3.67045E-15
1.07092E-05 2.88510E-15
1.21846E-05 2.30170E-15
1.37553E-05 1.86162E-15
1.54212E-05 1.52217E-15
1.71822E-05 1.25860E-15
1.90385E-05 1.05059E-15
2.09899E-05 8.85737E-16
2.30365E-05 7.52324E-16
2.51783E-05 6.42957E-16
2.74153E-05 5.52658E-16
2.97475E-05 4.77600E-16
3.21749E-05 4.14859E-16
3.46974E-05 3.62135E-16
3.73152E-05 3.17545E-16
4.00281E-05 2.79629E-16
4.28362E-05 2.47208E-16
4.57395E-05 2.19328E-16
4.87380E-05 1.95234E-16
5.18317E-05 1.74324E-16
5.50205E-05 1.56085E-16
5.83045E-05 1.40096E-16
6.16838E-05 1.26181E-16
6.51582E-05 1.14024E-16
6.87277E-05 1.03204E-16
7.23925E-05 9.36510E-17
7.61524E-05 8.52179E-17
9.21439E-05 5.95989E-17
1.09658E-04 4.29085E-17
1.28695E-04 3.16844E-17
1.49255E-04 2.39072E-17
1.71338E-04 1.83819E-17
1.94942E-04 1.43675E-17
2.20070E-04 1.13924E-17
2.46720E-04 9.15014E-18
2.74892E-04 7.43439E-18
3.04586E-04 6.10336E-18
3.35803E-04 5.05772E-18
3.68542E-04 4.22692E-18
4.02802E-04 3.55979E-18
4.38585E-04 3.01933E-18
4.75889E-04 2.57772E-18
5.14715E-04 2.21400E-18
5.55063E-04 1.91226E-18
5.96931E-04 1.66017E-18
6.40321E-04 1.44828E-18
6.85233E-04 1.26916E-18
7.31665E-04 1.11691E-18
7.79618E-04 9.86846E-19
8.29092E-04 8.75188E-19
8.80086E-04 7.78885E-19
9.32601E-04 6.95493E-19
9.86636E-04 6.22988E-19
1.04219E-03 5.59707E-19
1.09927E-03 5.04279E-19
1.15786E-03 4.55556E-19
1.21797E-03 4.12593E-19
1.27961E-03 3.74591E-19
1.34276E-03 3.40880E-19
1.40743E-03 3.10889E-19
1.47362E-03 2.84136E-19
1.54133E-03 2.60208E-19
1.61056E-03 2.38757E-19
1.68131E-03 2.19481E-19
1.75357E-03 2.02120E-19
1.82735E-03 1.86449E-19
1.90265E-03 1.72274E-19
1.97947E-03 1.59428E-19
2.05780E-03 1.47762E-19
2.13765E-03 1.37150E-19
2.21902E-03 1.27478E-19
2.30190E-03 1.18649E-19
2.38630E-03 1.10575E-19
2.47222E-03 1.03180E-19
2.55965E-03 9.63963E-20
2.64859E-03 9.01645E-20
2.73905E-03 8.44314E-20
2.83103E-03 7.91492E-20
2.92452E-03 7.42764E-20
3.01952E-03 6.97752E-20
3.11604E-03 6.56121E-20
3.21407E-03 6.17570E-20
3.31362E-03 5.81828E-20
3.41468E-03 5.48652E-20
3.51725E-03 5.17823E-20
3.62133E-03 4.89146E-20
3.72692E-03 4.62441E-20
3.83403E-03 4.37547E-20
3.94265E-03 4.14318E-20
4.05278E-03 3.92622E-20
4.16442E-03 3.72339E-20
4.27757E-03 3.53360E-20
4.39223E-03 3.35585E-20
4.50840E-03 3.18922E-20
4.62608E-03 3.03289E-20
4.74527E-03 2.88611E-20
4.86597E-03 2.74817E-20
4.98817E-03 2.61846E-20
5.11188E-03 2.49637E-20
5.23711E-03 2.38138E-20
5.36383E-03 2.27300E-20
5.49207E-03 2.17077E-20
5.62181E-03 2.07428E-20
5.75306E-03 1.98315E-20
5.88581E-03 1.89701E-20
6.02007E-03 1.81555E-20
6.15583E-03 1.73846E-20
6.29310E-03 1.66546E-20
6.43187E-03 1.59629E-20
6.57214E-03 1.53072E-20
6.71392E-03 1.46851E-20
6.85720E-03 1.40947E-20
7.00198E-03 1.35339E-20
7.14827E-03 1.30012E-20
7.29605E-03 1.24946E-20
7.44534E-03 1.20128E-20
7.59612E-03 1.15543E-20
7.97965E-03 1.05012E-20
8.37255E-03 9.56675E-21
8.77480E-03 8.73524E-21
9.18641E-03 7.99325E-21
9.60736E-03 7.32940E-21
1.00376E-02 6.73397E-21
1.04773E-02 6.19864E-21
1.09262E-02 5.71621E-21
1.13844E-02 5.28051E-21
1.18520E-02 4.88616E-21
1.23288E-02 4.52852E-21
1.28150E-02 4.20353E-21
1.33104E-02 3.90767E-21
1.38150E-02 3.63783E-21
1.43290E-02 3.39129E-21
1.48521E-02 3.16565E-21
1.53845E-02 2.95882E-21
1.59262E-02 2.76893E-21
1.64770E-02 2.59433E-21
1.70371E-02 2.43355E-21
1.76063E-02 2.28528E-21
1.81848E-02 2.14837E-21
1.87724E-02 2.02177E-21
1.93692E-02 1.90457E-21
1.99751E-02 1.79593E-21
2.05901E-02 1.69510E-21
2.12143E-02 1.60141E-21
2.18476E-02 1.51426E-21
2.24900E-02 1.43309E-21
2.31415E-02 1.35743E-21
2.38021E-02 1.28682E-21
2.44717E-02 1.22086E-21
2.51504E-02 1.15917E-21
2.58382E-02 1.10144E-21
2.65349E-02 1.04735E-21
2.72407E-02 9.96635E-22
2.79555E-02 9.49033E-22
2.86793E-02 9.04319E-22
2.94120E-02 8.62282E-22
3.01537E-02 8.22730E-22
3.09043E-02 7.85485E-22
3.16639E-02 7.50386E-22
3.24324E-02 7.17285E-22
3.32098E-02 6.86043E-22
3.39961E-02 6.56536E-22
3.47912E-02 6.28648E-22
3.55952E-02 6.02270E-22
3.64081E-02 5.77306E-22
3.72297E-02 5.53663E-22
3.80602E-02 5.31258E-22
3.88995E-02 5.10012E-22
3.97476E-02 4.89852E-22
4.06044E-02 4.70712E-22
4.14700E-02 4.52529E-22
4.23443E-02 4.35245E-22
4.32273E-02 4.18808E-22
4.41190E-02 4.03165E-22
4.50194E-02 3.88271E-22
4.59284E-02 3.74083E-22
4.68461E-02 3.60560E-22
4.87074E-02 3.35362E-22
5.06030E-02 3.12402E-22
5.25328E-02 2.91442E-22
5.44967E-02 2.72273E-22
5.64946E-02 2.54710E-22
5.85262E-02 2.38592E-22
6.05914E-02 2.23776E-22
6.26901E-02 2.10134E-22
6.48222E-02 1.97555E-22
6.69873E-02 1.85939E-22
6.91854E-02 1.75196E-22
7.14163E-02 1.65247E-22
7.36799E-02 1.56022E-22
7.59760E-02 1.47456E-22
7.83043E-02 1.39493E-22
8.06647E-02 1.32081E-22
8.30571E-02 1.25173E-22
8.54812E-02 1.18729E-22
8.79369E-02 1.12711E-22
9.04240E-02 1.07084E-22
9.29422E-02 1.01817E-22
9.54915E-02 9.68827E-23
9.80716E-02 9.22552E-23
1.00682E-01 8.79113E-23
1.03323E-01 8.38299E-23
1.05995E-01 7.99917E-23
1.08696E-01 7.63790E-23
1.11427E-01 7.29757E-23
1.14188E-01 6.97668E-23
1.16978E-01 6.67390E-23
1.19797E-01 6.38797E-23
1.22645E-01 6.11774E-23
1.25522E-01 5.86217E-23
1.28428E-01 5.62028E-23
1.31361E-01 5.39118E-23
1.34323E-01 5.17403E-23
1.37313E-01 4.96808E-23
1.40330E-01 4.77263E-23
1.43375E-01 4.58700E-23
1.46447E-01 4.41061E-23
1.49545E-01 4.24288E-23
1.52671E-01 4.08330E-23
1.55823E-01 3.93138E-23
1.59001E-01 3.78667E-23
1.62205E-01 3.64875E-23
1.65435E-01 3.51723E-23
1.68690E-01 3.39175E-23
1.71970E-01 3.27196E-23
1.75276E-01 3.15755E-23
1.78606E-01 3.04822E-23
1.81961E-01 2.94370E-23
1.85340E-01 2.84372E-23
1.88743E-01 2.74805E-23
1.92169E-01 2.65645E-23
1.95619E-01 2.56871E-23
1.99092E-01 2.48464E-23
2.02589E-01 2.40404E-23
2.06107E-01 2.32674E-23
2.09649E-01 2.25257E-23
2.13212E-01 2.18137E-23
2.16797E-01 2.11301E-23
2.20404E-01 2.04734E-23
2.24032E-01 1.98422E-23
2.27680E-01 1.92355E-23
2.31350E-01 1.86520E-23
2.35040E-01 1.80906E-23
2.38751E-01 1.75503E-23
2.42481E-01 1.70302E-23
2.46231E-01 1.65293E-23
2.50000E-01 1.60467E-23
2.53788E-01 1.55815E-23
2.57595E-01 1.51332E-23
2.61421E-01 1.47008E-23
2.65264E-01 1.42837E-23
2.69126E-01 1.38812E-23
2.73005E-01 1.34927E-23
2.76901E-01 1.31176E-23
2.80814E-01 1.27553E-23
2.84744E-01 1.24054E-23
2.88691E-01 1.20672E-23
2.92653E-01 1.17403E-23
2.96632E-01 1.14242E-23
3.00625E-01 1.11185E-23
3.04634E-01 1.08228E-23
3.08658E-01 1.05366E-23
3.12697E-01 1.02597E-23
3.16749E-01 9.99152E-24
3.20816E-01 9.73186E-24
3.24896E-01 9.48036E-24
3.28990E-01 9.23670E-24
3.33097E-01 9.00057E-24
3.37216E-01 8.77170E-24
3.41348E-01 8.54981E-24
3.45492E-01 8.33464E-24
3.49647E-01 8.12594E-24
3.53814E-01 7.92347E-24
3.57992E-01 7.72700E-24
3.62181E-01 7.53632E-24
3.66381E-01 7.35122E-24
3.70590E-01 7.17150E-24
3.74810E-01 6.99697E-24
3.79039E-01 6.82744E-24
3.83277E-01 6.66273E-24
3.87524E-01 6.50269E-24
3.91780E-01 6.34715E-24
3.96044E-01 6.19595E-24
4.00316E-01 6.04895E-24
4.04596E-01 5.90600E-24
4.08882E-01 5.76698E-24
4.13176E-01 5.63174E-24
4.17476E-01 5.50016E-24
4.21783E-01 5.37213E-24
4.26095E-01 5.24751E-24
4.30413E-01 5.12622E-24
4.34737E-01 5.00812E-24
4.39065E-01 4.89314E-24
4.43398E-01 4.78115E-24
4.47736E-01 4.67208E-24
4.52077E-01 4.56582E-24
4.56422E-01 4.46229E-24
4.60770E-01 4.36141E-24
4.65122E-01 4.26309E-24
4.69476E-01 4.16725E-24
4.73832E-01 4.07381E-24
4.78190E-01 3.98271E-24
4.82550E-01 3.89388E-24
4.86912E-01 3.80724E-24
4.91274E-01 3.72273E-24
4.95637E-01 3.64029E-24
5.00000E-01 3.55985E-24
5.04363E-01 3.48137E-24
5.08726E-01 3.40477E-24
5.13088E-01 3.33001E-24
5.17450E-01 3.25702E-24
5.21810E-01 3.18578E-24
5.26168E-01 3.11621E-24
5.30524E-01 3.04828E-24
5.34878E-01 2.98193E-24
5.39230E-01 2.91713E-24
5.43578E-01 2.85383E-24
5.47923E-01 2.79200E-24
5.52264E-01 2.73158E-24
5.56602E-01 2.67253E-24
5.60935E-01 2.61484E-24
5.65263E-01 2.55845E-24
5.69587E-01 2.50333E-24
5.73905E-01 2.44944E-24
5.78217E-01 2.39677E-24
5.82524E-01 2.34526E-24
5.86824E-01 2.29490E-24
5.91118E-01 2.24564E-24
5.95404E-01 2.19747E-24
5.99684E-01 2.15035E-24
6.03956E-01 2.10426E-24
6.08220E-01 2.05917E-24
6.12476E-01 2.01504E-24
6.16723E-01 1.97187E-24
6.20961E-01 1.92962E-24
6.25190E-01 1.88827E-24
6.29410E-01 1.84780E-24
6.33619E-01 1.80820E-24
6.37819E-01 1.76942E-24
6.42008E-01 1.73147E-24
6.46186E-01 1.69431E-24
6.50353E-01 1.65793E-24
6.54508E-01 1.62231E-24
6.58652E-01 1.58742E-24
6.62784E-01 1.55326E-24
6.66903E-01 1.51981E-24
6.71010E-01 1.48704E-24
6.75104E-01 1.45494E-24
6.79184E-01 1.42350E-24
6.83251E-01 1.39270E-24
6.87303E-01 1.36253E-24
6.91342E-01 1.33297E-24
6.95366E-01 1.30400E-24
6.99375E-01 1.27562E-24
7.03368E-01 1.24781E-24
7.07347E-01 1.22055E-24
7.11309E-01 1.19384E-24
7.15256E-01 1.16766E-24
7.19186E-01 1.14200E-24
7.23099E-01 1.11685E-24
7.26995E-01 1.09220E-24
7.30874E-01 1.06804E-24
7.34736E-01 1.04435E-24
7.38579E-01 1.02112E-24
7.42405E-01 9.98354E-25
7.46212E-01 9.76031E-25
7.50000E-01 9.54143E-25
7.53769E-01 9.32683E-25
7.57519E-01 9.11640E-25
7.61249E-01 8.91005E-25
7.64960E-01 8.70771E-25
7.68650E-01 8.50929E-25
7.72320E-01 8.31470E-25
7.75968E-01 8.12387E-25
7.79596E-01 7.93672E-25
7.83203E-01 7.75318E-25
7.86788E-01 7.57316E-25
7.90351E-01 7.39661E-25
7.93893E-01 7.22344E-25
7.97411E-01 7.05360E-25
8.00908E-01 6.88701E-25
8.04381E-01 6.72361E-25
8.07831E-01 6.56334E-25
8.11257E-01 6.40613E-25
8.14660E-01 6.25194E-25
8.18039E-01 6.10069E-25
8.21394E-01 5.95234E-25
8.24724E-01 5.80682E-25
8.28030E-01 5.66408E-25
8.31310E-01 5.52408E-25
8.34565E-01 5.38675E-25
8.37795E-01 5.25205E-25
8.40999E-01 5.11993E-25
8.44177E-01 4.99035E-25
8.47329E-01 4.86325E-25
8.50455E-01 4.73859E-25
8.53553E-01 4.61633E-25
8.56625E-01 4.49642E-25
8.59670E-01 4.37882E-25
8.62687E-01 4.26350E-25
8.65677E-01 4.15040E-25
8.68639E-01 4.03950E-25
8.71572E-01 3.93075E-25
8.74478E-01 3.82411E-25
8.77355E-01 3.71956E-25
8.80203E-01 3.61705E-25
8.83022E-01 3.51655E-25
8.85812E-01 3.41803E-25
8.88573E-01 3.32146E-25
8.91304E-01 3.22679E-25
8.94005E-01 3.13401E-25
8.96677E-01 3.04308E-25
8.99318E-01 2.95396E-25
9.01928E-01 2.86664E-25
9.04508E-01 2.78109E-25
9.07058E-01 2.69727E-25
9.09576E-01 2.61516E-25
9.12063E-01 2.53473E-25
9.14519E-01 2.45596E-25
9.16943E-01 2.37882E-25
9.19335E-01 2.30329E-25
9.21696E-01 2.22935E-25
9.24024E-01 2.15696E-25
9.26320E-01 2.08612E-25
9.28584E-01 2.01679E-25
9.30815E-01 1.94896E-25
9.33013E-01 1.88260E-25
9.35178E-01 1.81770E-25
9.37310E-01 1.75423E-25
9.39409E-01 1.69217E-25
9.41474E-01 1.63151E-25
9.43505E-01 1.57223E-25
9.45503E-01 1.51431E-25
9.47467E-01 1.45774E-25
9.49397E-01 1.40249E-25
9.51293E-01 1.34854E-25
9.53154E-01 1.29589E-25
9.54981E-01 1.24452E-25
9.56773E-01 1.19441E-25
9.58530E-01 1.14555E-25
9.60252E-01 1.09793E-25
9.61940E-01 1.05152E-25
9.63592E-01 1.00632E-25
9.65209E-01 9.62308E-26
9.66790E-01 9.19480E-26
9.68336E-01 8.77819E-26
9.69846E-01 8.37313E-26
9.71321E-01 7.97952E-26
9.72759E-01 7.59723E-26
9.74162E-01 7.22616E-26
9.75528E-01 6.86620E-26
9.76858E-01 6.51726E-26
9.78152E-01 6.17922E-26
9.79410E-01 5.85199E-26
9.80631E-01 5.53549E-26
9.81815E-01 5.22962E-26
9.82963E-01 4.93430E-26
9.84074E-01 4.64943E-26
9.85148E-01 4.37495E-26
9.86185E-01 4.11078E-26
9.87185E-01 3.85684E-26
9.88148E-01 3.61306E-26
9.89074E-01 3.37937E-26
9.89962E-01 3.15571E-26
9.90814E-01 2.94201E-26
9.91627E-01 2.73822E-26
9.92404E-01 2.54429E-26
9.93143E-01 2.36014E-26
9.93844E-01 2.18574E-26
9.94508E-01 2.02104E-26
9.95134E-01 1.86600E-26
9.95722E-01 1.72056E-26
9.96273E-01 1.58469E-26
9.96786E-01 1.45835E-26
9.97261E-01 1.34150E-26
9.97698E-01 1.23413E-26
9.98097E-01 1.13618E-26
9.98459E-01 1.04765E-26
9.98782E-01 9.68500E-27
9.99067E-01 8.98713E-27
9.99315E-01 8.38270E-27
9.99524E-01 7.87153E-27
9.99695E-01 7.45350E-27
9.99829E-01 7.12847E-27
9.99924E-01 6.89638E-27
9.99981E-01 6.75715E-27
1.00000E+00 6.71074E-27
