 #
 # Subroutine ELSEPA. Elastic scattering of electrons and positrons
 #                    by neutral atoms and positive ions
 #
 # Projectile: electron
 # Kinetic energy = 2.00000E+08 eV = 7.34987E+06 a.u.
 #
 # WARNING: High-energy factorization with free-atom DF screening.
 #          Absorption, polarization and exchange corrections are
 #          switched off.
 #          Phase shifts are calculated for the bare nucleus.
 #          Scattering amplitudes are not evaluated.
 #
 # Element: Lu,  Z =  71,  atomic weight = 1.74967E+02 g/mol
 #
 # Nuclear model: Fermi distribution
 #                Average radius = 5.98461E-13 cm
 #                Skin thickness = 5.46000E-14 cm
 #
 # Number of electrons = 71
 #
 # Total elastic cross section = 7.18467E-18 cm**2 = 2.56569E-01 a0**2
 # 1st transport cross section = 2.40083E-25 cm**2 = 8.57352E-09 a0**2
 # 2nd transport cross section = 7.18634E-25 cm**2 = 2.56629E-08 a0**2
 #
 #
 # Differential cross section:                       MU=(1-COS(THETA))/2
 #
 #  THETA        MU          DCS          DCS        Sherman      error
 #  (deg)                 (cm**2/sr)   (a0**2/sr)    function
 #----------------------------------------------------------------------
0.00000E+00 2.66394E-09
7.61557E-13 2.62474E-09
1.18994E-12 2.60314E-09
1.71346E-12 2.57714E-09
2.33225E-12 2.54697E-09
3.04617E-12 2.51289E-09
3.85530E-12 2.47518E-09
4.75964E-12 2.43415E-09
5.75917E-12 2.39012E-09
6.85391E-12 2.34344E-09
8.04379E-12 2.29442E-09
9.32893E-12 2.24342E-09
1.07092E-11 2.19078E-09
1.21847E-11 2.13680E-09
1.37554E-11 2.08184E-09
1.54213E-11 2.02618E-09
1.71823E-11 1.97006E-09
1.90386E-11 1.91387E-09
2.09900E-11 1.85774E-09
2.30367E-11 1.80189E-09
2.51785E-11 1.74668E-09
2.74156E-11 1.69210E-09
2.97478E-11 1.63840E-09
3.21752E-11 1.58577E-09
3.46979E-11 1.53417E-09
3.73157E-11 1.48388E-09
4.00286E-11 1.43489E-09
4.28368E-11 1.38715E-09
4.57402E-11 1.34100E-09
4.87388E-11 1.29622E-09
5.18325E-11 1.25284E-09
5.50215E-11 1.21108E-09
5.83057E-11 1.17070E-09
6.16850E-11 1.13180E-09
6.51595E-11 1.09440E-09
6.87293E-11 1.05834E-09
7.23943E-11 1.02375E-09
7.61544E-11 9.90519E-10
1.18991E-10 7.23939E-10
1.71347E-10 5.47647E-10
2.33223E-10 4.27177E-10
3.04617E-10 3.40992E-10
3.85531E-10 2.76635E-10
4.75965E-10 2.26974E-10
5.75917E-10 1.87682E-10
6.85389E-10 1.54527E-10
8.04380E-10 1.30084E-10
9.32891E-10 1.10455E-10
1.07092E-09 9.32576E-11
1.21847E-09 8.00117E-11
1.37554E-09 6.86949E-11
1.54213E-09 5.91720E-11
1.71823E-09 5.15811E-11
1.90386E-09 4.48122E-11
2.09900E-09 3.92186E-11
2.30367E-09 3.45905E-11
2.51785E-09 3.04122E-11
2.74156E-09 2.69474E-11
2.97478E-09 2.39571E-11
3.21752E-09 2.13007E-11
3.46978E-09 1.90566E-11
3.73156E-09 1.70558E-11
4.00286E-09 1.52997E-11
4.28368E-09 1.37938E-11
4.57402E-09 1.24185E-11
4.87388E-09 1.12219E-11
5.18326E-09 1.01741E-11
5.50215E-09 9.21842E-12
5.83057E-09 8.38333E-12
6.16850E-09 7.63708E-12
6.51596E-09 6.96345E-12
6.87293E-09 6.36903E-12
7.23942E-09 5.83005E-12
7.61544E-09 5.34638E-12
1.18991E-08 2.46308E-12
1.71347E-08 1.29828E-12
2.33223E-08 7.54842E-13
3.04617E-08 4.69966E-13
3.85531E-08 3.07594E-13
4.75965E-08 2.09561E-13
5.75917E-08 1.47468E-13
6.85389E-08 1.06720E-13
8.04380E-08 7.90904E-14
9.32891E-08 5.98474E-14
1.07092E-07 4.61212E-14
1.21847E-07 3.61165E-14
1.37554E-07 2.86856E-14
1.54213E-07 2.30734E-14
1.71823E-07 1.87704E-14
1.90386E-07 1.54264E-14
2.09900E-07 1.27959E-14
2.30367E-07 1.07035E-14
2.51785E-07 9.02227E-15
2.74156E-07 7.65831E-15
2.97478E-07 6.54277E-15
3.21752E-07 5.62326E-15
3.46978E-07 4.85977E-15
3.73156E-07 4.22156E-15
4.00286E-07 3.68472E-15
4.28368E-07 3.23050E-15
4.57402E-07 2.84409E-15
4.87388E-07 2.51370E-15
5.18325E-07 2.22986E-15
5.50215E-07 1.98491E-15
5.83057E-07 1.77263E-15
6.16850E-07 1.58791E-15
6.51596E-07 1.42660E-15
6.87293E-07 1.28523E-15
7.23942E-07 1.16092E-15
7.61543E-07 1.05126E-15
1.18991E-06 4.37235E-16
1.71347E-06 2.12940E-16
2.33223E-06 1.15763E-16
3.04617E-06 6.82348E-17
3.85531E-06 4.27879E-17
4.75964E-06 2.81747E-17
5.75916E-06 1.93011E-17
6.85388E-06 1.36617E-17
8.04378E-06 9.93945E-18
9.32888E-06 7.40274E-18
1.07092E-05 5.62599E-18
1.21846E-05 4.35164E-18
1.37553E-05 3.41848E-18
1.54212E-05 2.72255E-18
1.71822E-05 2.19502E-18
1.90385E-05 1.78834E-18
2.09899E-05 1.47323E-18
2.30365E-05 1.22437E-18
2.51783E-05 1.02563E-18
2.74153E-05 8.65422E-19
2.97475E-05 7.35202E-19
3.21749E-05 6.28573E-19
3.46974E-05 5.40643E-19
3.73152E-05 4.67629E-19
4.00281E-05 4.06584E-19
4.28362E-05 3.55208E-19
4.57395E-05 3.11696E-19
4.87380E-05 2.74634E-19
5.18317E-05 2.42905E-19
5.50205E-05 2.15617E-19
5.83045E-05 1.92051E-19
6.16838E-05 1.71622E-19
6.51582E-05 1.53844E-19
6.87277E-05 1.38316E-19
7.23925E-05 1.24704E-19
7.61524E-05 1.13078E-19
9.21439E-05 7.73673E-20
1.09658E-04 5.47163E-20
1.28695E-04 3.97943E-20
1.49255E-04 2.96344E-20
1.71338E-04 2.25259E-20
1.94942E-04 1.74298E-20
2.20070E-04 1.36994E-20
2.46720E-04 1.09177E-20
2.74892E-04 8.80889E-21
3.04586E-04 7.18666E-21
3.35803E-04 5.92202E-21
3.68542E-04 4.92433E-21
4.02802E-04 4.12863E-21
4.38585E-04 3.48768E-21
4.75889E-04 2.96669E-21
5.14715E-04 2.53966E-21
5.55063E-04 2.18691E-21
5.96931E-04 1.89347E-21
6.40321E-04 1.64772E-21
6.85233E-04 1.44058E-21
7.31665E-04 1.26503E-21
7.79618E-04 1.11544E-21
8.29092E-04 9.87342E-22
8.80086E-04 8.77117E-22
9.32601E-04 7.81852E-22
9.86636E-04 6.99171E-22
1.04219E-03 6.27125E-22
1.09927E-03 5.64113E-22
1.15786E-03 5.08805E-22
1.21797E-03 4.60097E-22
1.27961E-03 4.17064E-22
1.34276E-03 3.78930E-22
1.40743E-03 3.45039E-22
1.47362E-03 3.14836E-22
1.54133E-03 2.87850E-22
1.61056E-03 2.63678E-22
1.68131E-03 2.41973E-22
1.75357E-03 2.22441E-22
1.82735E-03 2.04825E-22
1.90265E-03 1.88903E-22
1.97947E-03 1.74484E-22
2.05780E-03 1.61401E-22
2.13765E-03 1.49508E-22
2.21902E-03 1.38677E-22
2.30190E-03 1.28797E-22
2.38630E-03 1.19770E-22
2.47222E-03 1.11508E-22
2.55965E-03 1.03935E-22
2.64859E-03 9.69843E-23
2.73905E-03 9.05946E-23
2.83103E-03 8.47129E-23
2.92452E-03 7.92917E-23
3.01952E-03 7.42884E-23
3.11604E-03 6.96652E-23
3.21407E-03 6.53880E-23
3.31362E-03 6.14264E-23
3.41468E-03 5.77530E-23
3.51725E-03 5.43431E-23
3.62133E-03 5.11745E-23
3.72692E-03 4.82270E-23
3.83403E-03 4.54826E-23
3.94265E-03 4.29248E-23
4.05278E-03 4.05387E-23
4.16442E-03 3.83107E-23
4.27757E-03 3.62286E-23
4.39223E-03 3.42811E-23
4.50840E-03 3.24581E-23
4.62608E-03 3.07501E-23
4.74527E-03 2.91487E-23
4.86597E-03 2.76462E-23
4.98817E-03 2.62352E-23
5.11188E-03 2.49094E-23
5.23711E-03 2.36626E-23
5.36383E-03 2.24894E-23
5.49207E-03 2.13847E-23
5.62181E-03 2.03439E-23
5.75306E-03 1.93625E-23
5.88581E-03 1.84367E-23
6.02007E-03 1.75628E-23
6.15583E-03 1.67373E-23
6.29310E-03 1.59572E-23
6.43187E-03 1.52195E-23
6.57214E-03 1.45216E-23
6.71392E-03 1.38610E-23
6.85720E-03 1.32353E-23
7.00198E-03 1.26424E-23
7.14827E-03 1.20804E-23
7.29605E-03 1.15472E-23
7.44534E-03 1.10413E-23
7.59612E-03 1.05610E-23
7.97965E-03 9.46267E-24
8.37255E-03 8.49444E-24
8.77480E-03 7.63870E-24
9.18641E-03 6.88056E-24
9.60736E-03 6.20736E-24
1.00376E-02 5.60827E-24
1.04773E-02 5.07405E-24
1.09262E-02 4.59674E-24
1.13844E-02 4.16949E-24
1.18520E-02 3.78637E-24
1.23288E-02 3.44226E-24
1.28150E-02 3.13270E-24
1.33104E-02 2.85378E-24
1.38150E-02 2.60213E-24
1.43290E-02 2.37476E-24
1.48521E-02 2.16906E-24
1.53845E-02 1.98274E-24
1.59262E-02 1.81378E-24
1.64770E-02 1.66038E-24
1.70371E-02 1.52096E-24
1.76063E-02 1.39412E-24
1.81848E-02 1.27861E-24
1.87724E-02 1.17333E-24
1.93692E-02 1.07728E-24
1.99751E-02 9.89583E-25
2.05901E-02 9.09446E-25
2.12143E-02 8.36163E-25
2.18476E-02 7.69100E-25
2.24900E-02 7.07687E-25
2.31415E-02 6.51412E-25
2.38021E-02 5.99812E-25
2.44717E-02 5.52472E-25
2.51504E-02 5.09017E-25
2.58382E-02 4.69106E-25
2.65349E-02 4.32433E-25
2.72407E-02 3.98718E-25
2.79555E-02 3.67710E-25
2.86793E-02 3.39179E-25
2.94120E-02 3.12918E-25
3.01537E-02 2.88736E-25
3.09043E-02 2.66462E-25
3.16639E-02 2.45938E-25
3.24324E-02 2.27022E-25
3.32098E-02 2.09581E-25
3.39961E-02 1.93498E-25
3.47912E-02 1.78663E-25
3.55952E-02 1.64976E-25
3.64081E-02 1.52345E-25
3.72297E-02 1.40688E-25
3.80602E-02 1.29926E-25
3.88995E-02 1.19991E-25
3.97476E-02 1.10817E-25
4.06044E-02 1.02344E-25
4.14700E-02 9.45198E-26
4.23443E-02 8.72925E-26
4.32273E-02 8.06165E-26
4.41190E-02 7.44495E-26
4.50194E-02 6.87523E-26
4.59284E-02 6.34892E-26
4.68461E-02 5.86269E-26
4.87074E-02 4.99852E-26
5.06030E-02 4.26103E-26
5.25328E-02 3.63177E-26
5.44967E-02 3.09499E-26
5.64946E-02 2.63727E-26
5.85262E-02 2.24713E-26
6.05914E-02 1.91476E-26
6.26901E-02 1.63175E-26
6.48222E-02 1.39094E-26
6.69873E-02 1.18615E-26
6.91854E-02 1.01213E-26
7.14163E-02 8.64352E-27
7.36799E-02 7.38950E-27
7.59760E-02 6.32610E-27
7.83043E-02 5.42493E-27
8.06647E-02 4.66168E-27
8.30571E-02 4.01556E-27
8.54812E-02 3.46879E-27
8.79369E-02 3.00618E-27
9.04240E-02 2.61476E-27
9.29422E-02 2.28347E-27
9.54915E-02 2.00290E-27
9.80716E-02 1.76503E-27
1.00682E-01 1.56306E-27
1.03323E-01 1.39123E-27
1.05995E-01 1.24466E-27
1.08696E-01 1.11922E-27
1.11427E-01 1.01144E-27
1.14188E-01 9.18399E-28
1.16978E-01 8.37653E-28
1.19797E-01 7.67153E-28
1.22645E-01 7.05190E-28
1.25522E-01 6.50346E-28
1.28428E-01 6.01446E-28
1.31361E-01 5.57519E-28
1.34323E-01 5.17768E-28
1.37313E-01 4.81540E-28
1.40330E-01 4.48301E-28
1.43375E-01 4.17618E-28
1.46447E-01 3.89141E-28
1.49545E-01 3.62588E-28
1.52671E-01 3.37732E-28
1.55823E-01 3.14391E-28
1.59001E-01 2.92421E-28
1.62205E-01 2.71705E-28
1.65435E-01 2.52151E-28
1.68690E-01 2.33684E-28
1.71970E-01 2.16242E-28
1.75276E-01 1.99776E-28
1.78606E-01 1.84243E-28
1.81961E-01 1.69607E-28
1.85340E-01 1.55833E-28
1.88743E-01 1.42893E-28
1.92169E-01 1.30758E-28
1.95619E-01 1.19400E-28
1.99092E-01 1.08792E-28
2.02589E-01 9.89069E-29
2.06107E-01 8.97164E-29
2.09649E-01 8.11928E-29
2.13212E-01 7.33078E-29
2.16797E-01 6.60325E-29
2.20404E-01 5.93379E-29
2.24032E-01 5.31945E-29
2.27680E-01 4.75729E-29
2.31350E-01 4.24438E-29
2.35040E-01 3.77778E-29
2.38751E-01 3.35461E-29
2.42481E-01 2.97203E-29
2.46231E-01 2.62726E-29
2.50000E-01 2.31760E-29
2.53788E-01 2.04041E-29
2.57595E-01 1.79318E-29
2.61421E-01 1.57347E-29
2.65264E-01 1.37896E-29
2.69126E-01 1.20743E-29
2.73005E-01 1.05678E-29
2.76901E-01 9.25050E-30
2.80814E-01 8.10367E-30
2.84744E-01 7.10992E-30
2.88691E-01 6.25303E-30
2.92653E-01 5.51793E-30
2.96632E-01 4.89069E-30
3.00625E-01 4.35850E-30
3.04634E-01 3.90960E-30
3.08658E-01 3.53325E-30
3.12697E-01 3.21971E-30
3.16749E-01 2.96017E-30
3.20816E-01 2.74667E-30
3.24896E-01 2.57212E-30
3.28990E-01 2.43018E-30
3.33097E-01 2.31522E-30
3.37216E-01 2.22232E-30
3.41348E-01 2.14714E-30
3.45492E-01 2.08593E-30
3.49647E-01 2.03545E-30
3.53814E-01 1.99294E-30
3.57992E-01 1.95605E-30
3.62181E-01 1.92283E-30
3.66381E-01 1.89167E-30
3.70590E-01 1.86127E-30
3.74810E-01 1.83060E-30
3.79039E-01 1.79885E-30
3.83277E-01 1.76545E-30
3.87524E-01 1.72997E-30
3.91780E-01 1.69217E-30
3.96044E-01 1.65191E-30
4.00316E-01 1.60917E-30
4.04596E-01 1.56403E-30
4.08882E-01 1.51661E-30
4.13176E-01 1.46712E-30
4.17476E-01 1.41580E-30
4.21783E-01 1.36291E-30
4.26095E-01 1.30875E-30
4.30413E-01 1.25360E-30
4.34737E-01 1.19779E-30
4.39065E-01 1.14161E-30
4.43398E-01 1.08535E-30
4.47736E-01 1.02930E-30
4.52077E-01 9.73730E-31
4.56422E-01 9.18878E-31
4.60770E-01 8.64977E-31
4.65122E-01 8.12234E-31
4.69476E-01 7.60835E-31
4.73832E-01 7.10940E-31
4.78190E-01 6.62691E-31
4.82550E-01 6.16204E-31
4.86912E-01 5.71576E-31
4.91274E-01 5.28883E-31
4.95637E-01 4.88179E-31
5.00000E-01 4.49504E-31
5.04363E-01 4.12877E-31
5.08726E-01 3.78304E-31
5.13088E-01 3.45776E-31
5.17450E-01 3.15269E-31
5.21810E-01 2.86752E-31
5.26168E-01 2.60179E-31
5.30524E-01 2.35498E-31
5.34878E-01 2.12650E-31
5.39230E-01 1.91568E-31
5.43578E-01 1.72180E-31
5.47923E-01 1.54412E-31
5.52264E-01 1.38185E-31
5.56602E-01 1.23418E-31
5.60935E-01 1.10030E-31
5.65263E-01 9.79380E-32
5.69587E-01 8.70607E-32
5.73905E-01 7.73168E-32
5.78217E-01 6.86263E-32
5.82524E-01 6.09113E-32
5.86824E-01 5.40960E-32
5.91118E-01 4.81072E-32
5.95404E-01 4.28744E-32
5.99684E-01 3.83303E-32
6.03956E-01 3.44107E-32
6.08220E-01 3.10549E-32
6.12476E-01 2.82054E-32
6.16723E-01 2.58082E-32
6.20961E-01 2.38130E-32
6.25190E-01 2.21727E-32
6.29410E-01 2.08436E-32
6.33619E-01 1.97855E-32
6.37819E-01 1.89613E-32
6.42008E-01 1.83371E-32
6.46186E-01 1.78820E-32
6.50353E-01 1.75679E-32
6.54508E-01 1.73696E-32
6.58652E-01 1.72644E-32
6.62784E-01 1.72321E-32
6.66903E-01 1.72547E-32
6.71010E-01 1.73165E-32
6.75104E-01 1.74038E-32
6.79184E-01 1.75046E-32
6.83251E-01 1.76087E-32
6.87303E-01 1.77076E-32
6.91342E-01 1.77940E-32
6.95366E-01 1.78621E-32
6.99375E-01 1.79071E-32
7.03368E-01 1.79254E-32
7.07347E-01 1.79143E-32
7.11309E-01 1.78719E-32
7.15256E-01 1.77970E-32
7.19186E-01 1.76893E-32
7.23099E-01 1.75488E-32
7.26995E-01 1.73760E-32
7.30874E-01 1.71718E-32
7.34736E-01 1.69377E-32
7.38579E-01 1.66750E-32
7.42405E-01 1.63857E-32
7.46212E-01 1.60717E-32
7.50000E-01 1.57351E-32
7.53769E-01 1.53780E-32
7.57519E-01 1.50026E-32
7.61249E-01 1.46113E-32
7.64960E-01 1.42061E-32
7.68650E-01 1.37894E-32
7.72320E-01 1.33633E-32
7.75968E-01 1.29298E-32
7.79596E-01 1.24909E-32
7.83203E-01 1.20485E-32
7.86788E-01 1.16045E-32
7.90351E-01 1.11604E-32
7.93893E-01 1.07180E-32
7.97411E-01 1.02786E-32
8.00908E-01 9.84366E-33
8.04381E-01 9.41430E-33
8.07831E-01 8.99167E-33
8.11257E-01 8.57676E-33
8.14660E-01 8.17046E-33
8.18039E-01 7.77355E-33
8.21394E-01 7.38669E-33
8.24724E-01 7.01046E-33
8.28030E-01 6.64533E-33
8.31310E-01 6.29169E-33
8.34565E-01 5.94986E-33
8.37795E-01 5.62005E-33
8.40999E-01 5.30243E-33
8.44177E-01 4.99708E-33
8.47329E-01 4.70402E-33
8.50455E-01 4.42323E-33
8.53553E-01 4.15463E-33
8.56625E-01 3.89808E-33
8.59670E-01 3.65344E-33
8.62687E-01 3.42048E-33
8.65677E-01 3.19897E-33
8.68639E-01 2.98866E-33
8.71572E-01 2.78925E-33
8.74478E-01 2.60044E-33
8.77355E-01 2.42190E-33
8.80203E-01 2.25330E-33
8.83022E-01 2.09429E-33
8.85812E-01 1.94453E-33
8.88573E-01 1.80364E-33
8.91304E-01 1.67127E-33
8.94005E-01 1.54705E-33
8.96677E-01 1.43063E-33
8.99318E-01 1.32165E-33
9.01928E-01 1.21975E-33
9.04508E-01 1.12458E-33
9.07058E-01 1.03580E-33
9.09576E-01 9.53088E-34
9.12063E-01 8.76106E-34
9.14519E-01 8.04544E-34
9.16943E-01 7.38093E-34
9.19335E-01 6.76460E-34
9.21696E-01 6.19359E-34
9.24024E-01 5.66516E-34
9.26320E-01 5.17670E-34
9.28584E-01 4.72565E-34
9.30815E-01 4.30964E-34
9.33013E-01 3.92637E-34
9.35178E-01 3.57364E-34
9.37310E-01 3.24939E-34
9.39409E-01 2.95164E-34
9.41474E-01 2.67853E-34
9.43505E-01 2.42831E-34
9.45503E-01 2.19928E-34
9.47467E-01 1.98992E-34
9.49397E-01 1.79872E-34
9.51293E-01 1.62431E-34
9.53154E-01 1.46539E-34
9.54981E-01 1.32074E-34
9.56773E-01 1.18922E-34
9.58530E-01 1.06978E-34
9.60252E-01 9.61419E-35
9.61940E-01 8.63222E-35
9.63592E-01 7.74328E-35
9.65209E-01 6.93943E-35
9.66790E-01 6.21331E-35
9.68336E-01 5.55809E-35
9.69846E-01 4.96746E-35
9.71321E-01 4.43557E-35
9.72759E-01 3.95709E-35
9.74162E-01 3.52707E-35
9.75528E-01 3.14098E-35
9.76858E-01 2.79464E-35
9.78152E-01 2.48424E-35
9.79410E-01 2.20629E-35
9.80631E-01 1.95760E-35
9.81815E-01 1.73527E-35
9.82963E-01 1.53663E-35
9.84074E-01 1.35930E-35
9.85148E-01 1.20109E-35
9.86185E-01 1.06001E-35
9.87185E-01 9.34272E-36
9.88148E-01 8.22257E-36
9.89074E-01 7.22501E-36
9.89962E-01 6.33714E-36
9.90814E-01 5.54694E-36
9.91627E-01 4.84400E-36
9.92404E-01 4.21887E-36
9.93143E-01 3.66298E-36
9.93844E-01 3.16902E-36
9.94508E-01 2.73025E-36
9.95134E-01 2.34066E-36
9.95722E-01 1.99514E-36
9.96273E-01 1.68904E-36
9.96786E-01 1.41830E-36
9.97261E-01 1.17938E-36
9.97698E-01 9.69155E-37
9.98097E-01 7.84979E-37
9.98459E-01 6.24485E-37
9.98782E-01 4.85672E-37
9.99067E-01 3.66841E-37
9.99315E-01 2.66566E-37
9.99524E-01 1.83610E-37
9.99695E-01 1.17015E-37
9.99829E-01 6.60020E-38
9.99924E-01 2.99785E-38
9.99981E-01 8.53968E-39
1.00000E+00 1.42062E-39
