 #
 # Subroutine ELSEPA. Elastic scattering of electrons and positrons
 #                    by neutral atoms and positive ions
 #
 # Projectile: electron
 # Kinetic energy = 2.50000E+08 eV = 9.18733E+06 a.u.
 #
 # WARNING: High-energy factorization with free-atom DF screening.
 #          Absorption, polarization and exchange corrections are
 #          switched off.
 #          Phase shifts are calculated for the bare nucleus.
 #          Scattering amplitudes are not evaluated.
 #
 # Element: Lu,  Z =  71,  atomic weight = 1.74967E+02 g/mol
 #
 # Nuclear model: Fermi distribution
 #                Average radius = 5.98461E-13 cm
 #                Skin thickness = 5.46000E-14 cm
 #
 # Number of electrons = 71
 #
 # Total elastic cross section = 7.18465E-18 cm**2 = 2.56569E-01 a0**2
 # 1st transport cross section = 1.53592E-25 cm**2 = 5.48487E-09 a0**2
 # 2nd transport cross section = 4.60101E-25 cm**2 = 1.64305E-08 a0**2
 #
 #
 # Differential cross section:                       MU=(1-COS(THETA))/2
 #
 #  THETA        MU          DCS          DCS        Sherman      error
 #  (deg)                 (cm**2/sr)   (a0**2/sr)    function
 #----------------------------------------------------------------------
0.00000E+00 4.15816E-09
7.61557E-13 4.06335E-09
1.18994E-12 4.01164E-09
1.71346E-12 3.94992E-09
2.33225E-12 3.87901E-09
3.04617E-12 3.79982E-09
3.85530E-12 3.71333E-09
4.75964E-12 3.62054E-09
5.75917E-12 3.52249E-09
6.85391E-12 3.42024E-09
8.04379E-12 3.31472E-09
9.32893E-12 3.20700E-09
1.07092E-11 3.09786E-09
1.21847E-11 2.98826E-09
1.37554E-11 2.87885E-09
1.54213E-11 2.77038E-09
1.71823E-11 2.66343E-09
1.90386E-11 2.55844E-09
2.09900E-11 2.45603E-09
2.30367E-11 2.35623E-09
2.51785E-11 2.25977E-09
2.74156E-11 2.16634E-09
2.97478E-11 2.07662E-09
3.21752E-11 1.99023E-09
3.46979E-11 1.90759E-09
3.73157E-11 1.82845E-09
4.00286E-11 1.75292E-09
4.28368E-11 1.68093E-09
4.57402E-11 1.61231E-09
4.87388E-11 1.54714E-09
5.18325E-11 1.48507E-09
5.50215E-11 1.42627E-09
5.83057E-11 1.37029E-09
6.16850E-11 1.31730E-09
6.51595E-11 1.26694E-09
6.87293E-11 1.21919E-09
7.23943E-11 1.17387E-09
7.61544E-11 1.13085E-09
1.18991E-10 8.01917E-10
1.71347E-10 5.94805E-10
2.33223E-10 4.54867E-10
3.04617E-10 3.54632E-10
3.85531E-10 2.78753E-10
4.75965E-10 2.20972E-10
5.75917E-10 1.80582E-10
6.85389E-10 1.45745E-10
8.04380E-10 1.20616E-10
9.32891E-10 9.94926E-11
1.07092E-09 8.33431E-11
1.21847E-09 7.00456E-11
1.37554E-09 5.93768E-11
1.54213E-09 5.06497E-11
1.71823E-09 4.33857E-11
1.90386E-09 3.74519E-11
2.09900E-09 3.23660E-11
2.30367E-09 2.82096E-11
2.51785E-09 2.45654E-11
2.74156E-09 2.15638E-11
2.97478E-09 1.89222E-11
3.21752E-09 1.67039E-11
3.46978E-09 1.47677E-11
3.73156E-09 1.31072E-11
4.00286E-09 1.16651E-11
4.28368E-09 1.04086E-11
4.57402E-09 9.31951E-12
4.87388E-09 8.35957E-12
5.18326E-09 7.52666E-12
5.50215E-09 6.78636E-12
5.83057E-09 6.14146E-12
6.16850E-09 5.56573E-12
6.51596E-09 5.06006E-12
6.87293E-09 4.60895E-12
7.23942E-09 4.20884E-12
7.61544E-09 3.85145E-12
1.18991E-08 1.75846E-12
1.71347E-08 9.24819E-13
2.33223E-08 5.32580E-13
3.04617E-08 3.27704E-13
3.85531E-08 2.12055E-13
4.75965E-08 1.43206E-13
5.75917E-08 1.00148E-13
6.85389E-08 7.21254E-14
8.04380E-08 5.32586E-14
9.32891E-08 4.01819E-14
1.07092E-07 3.08808E-14
1.21847E-07 2.41245E-14
1.37554E-07 1.91214E-14
1.54213E-07 1.53522E-14
1.71823E-07 1.24686E-14
1.90386E-07 1.02318E-14
2.09900E-07 8.47503E-15
2.30367E-07 7.07919E-15
2.51785E-07 5.95910E-15
2.74156E-07 5.05193E-15
2.97478E-07 4.31086E-15
3.21752E-07 3.70069E-15
3.46978E-07 3.19462E-15
3.73156E-07 2.77206E-15
4.00286E-07 2.41692E-15
4.28368E-07 2.11678E-15
4.57402E-07 1.86176E-15
4.87388E-07 1.64395E-15
5.18325E-07 1.45704E-15
5.50215E-07 1.29593E-15
5.83057E-07 1.15645E-15
6.16850E-07 1.03521E-15
6.51596E-07 9.29432E-16
6.87293E-07 8.36816E-16
7.23942E-07 7.55447E-16
7.61543E-07 6.83728E-16
1.18991E-06 2.83370E-16
1.71347E-06 1.37760E-16
2.33223E-06 7.48049E-17
3.04617E-06 4.40510E-17
3.85531E-06 2.75999E-17
4.75964E-06 1.81601E-17
5.75916E-06 1.24323E-17
6.85388E-06 8.79464E-18
8.04378E-06 6.39513E-18
9.32888E-06 4.76083E-18
1.07092E-05 3.61673E-18
1.21846E-05 2.79654E-18
1.37553E-05 2.19619E-18
1.54212E-05 1.74863E-18
1.71822E-05 1.40949E-18
1.90385E-05 1.14811E-18
2.09899E-05 9.45637E-19
2.30365E-05 7.85774E-19
2.51783E-05 6.58138E-19
2.74153E-05 5.55261E-19
2.97475E-05 4.71658E-19
3.21749E-05 4.03211E-19
3.46974E-05 3.46775E-19
3.73152E-05 2.99919E-19
4.00281E-05 2.60748E-19
4.28362E-05 2.27784E-19
4.57395E-05 1.99869E-19
4.87380E-05 1.76094E-19
5.18317E-05 1.55741E-19
5.50205E-05 1.38238E-19
5.83045E-05 1.23124E-19
6.16838E-05 1.10023E-19
6.51582E-05 9.86223E-20
6.87277E-05 8.86652E-20
7.23925E-05 7.99367E-20
7.61524E-05 7.25989E-20
9.21439E-05 4.96791E-20
1.09658E-04 3.51401E-20
1.28695E-04 2.55610E-20
1.49255E-04 1.90379E-20
1.71338E-04 1.44732E-20
1.94942E-04 1.12002E-20
2.20070E-04 8.80391E-21
2.46720E-04 7.01670E-21
2.74892E-04 5.66157E-21
3.04586E-04 4.61894E-21
3.35803E-04 3.80601E-21
3.68542E-04 3.16459E-21
4.02802E-04 2.65299E-21
4.38585E-04 2.24074E-21
4.75889E-04 1.90559E-21
5.14715E-04 1.63084E-21
5.55063E-04 1.40387E-21
5.96931E-04 1.21504E-21
6.40321E-04 1.05689E-21
6.85233E-04 9.23621E-22
7.31665E-04 8.10673E-22
7.79618E-04 7.14433E-22
8.29092E-04 6.32018E-22
8.80086E-04 5.61107E-22
9.32601E-04 4.99826E-22
9.86636E-04 4.46644E-22
1.04219E-03 4.00310E-22
1.09927E-03 3.59792E-22
1.15786E-03 3.24234E-22
1.21797E-03 2.92926E-22
1.27961E-03 2.65272E-22
1.34276E-03 2.40772E-22
1.40743E-03 2.19006E-22
1.47362E-03 1.99614E-22
1.54133E-03 1.82293E-22
1.61056E-03 1.66784E-22
1.68131E-03 1.52865E-22
1.75357E-03 1.40344E-22
1.82735E-03 1.29056E-22
1.90265E-03 1.18859E-22
1.97947E-03 1.09630E-22
2.05780E-03 1.01260E-22
2.13765E-03 9.36559E-23
2.21902E-03 8.67353E-23
2.30190E-03 8.04264E-23
2.38630E-03 7.46656E-23
2.47222E-03 6.93972E-23
2.55965E-03 6.45719E-23
2.64859E-03 6.01460E-23
2.73905E-03 5.60808E-23
2.83103E-03 5.23419E-23
2.92452E-03 4.88986E-23
3.01952E-03 4.57237E-23
3.11604E-03 4.27927E-23
3.21407E-03 4.00836E-23
3.31362E-03 3.75769E-23
3.41468E-03 3.52549E-23
3.51725E-03 3.31017E-23
3.62133E-03 3.11030E-23
3.72692E-03 2.92459E-23
3.83403E-03 2.75188E-23
3.94265E-03 2.59109E-23
4.05278E-03 2.44128E-23
4.16442E-03 2.30157E-23
4.27757E-03 2.17117E-23
4.39223E-03 2.04937E-23
4.50840E-03 1.93549E-23
4.62608E-03 1.82896E-23
4.74527E-03 1.72921E-23
4.86597E-03 1.63574E-23
4.98817E-03 1.54811E-23
5.11188E-03 1.46588E-23
5.23711E-03 1.38868E-23
5.36383E-03 1.31615E-23
5.49207E-03 1.24796E-23
5.62181E-03 1.18381E-23
5.75306E-03 1.12344E-23
5.88581E-03 1.06657E-23
6.02007E-03 1.01299E-23
6.15583E-03 9.62462E-24
6.29310E-03 9.14799E-24
6.43187E-03 8.69811E-24
6.57214E-03 8.27327E-24
6.71392E-03 7.87187E-24
6.85720E-03 7.49244E-24
7.00198E-03 7.13360E-24
7.14827E-03 6.79408E-24
7.29605E-03 6.47270E-24
7.44534E-03 6.16835E-24
7.59612E-03 5.88001E-24
7.97965E-03 5.22308E-24
8.37255E-03 4.64715E-24
8.77480E-03 4.14104E-24
9.18641E-03 3.69532E-24
9.60736E-03 3.30195E-24
1.00376E-02 2.95412E-24
1.04773E-02 2.64599E-24
1.09262E-02 2.37256E-24
1.13844E-02 2.12952E-24
1.18520E-02 1.91316E-24
1.23288E-02 1.72028E-24
1.28150E-02 1.54810E-24
1.33104E-02 1.39420E-24
1.38150E-02 1.25647E-24
1.43290E-02 1.13307E-24
1.48521E-02 1.02240E-24
1.53845E-02 9.23048E-25
1.59262E-02 8.33766E-25
1.64770E-02 7.53468E-25
1.70371E-02 6.81189E-25
1.76063E-02 6.16079E-25
1.81848E-02 5.57386E-25
1.87724E-02 5.04441E-25
1.93692E-02 4.56652E-25
1.99751E-02 4.13494E-25
2.05901E-02 3.74495E-25
2.12143E-02 3.39239E-25
2.18476E-02 3.07352E-25
2.24900E-02 2.78501E-25
2.31415E-02 2.52386E-25
2.38021E-02 2.28741E-25
2.44717E-02 2.07326E-25
2.51504E-02 1.87925E-25
2.58382E-02 1.70344E-25
2.65349E-02 1.54410E-25
2.72407E-02 1.39967E-25
2.79555E-02 1.26872E-25
2.86793E-02 1.14999E-25
2.94120E-02 1.04233E-25
3.01537E-02 9.44701E-26
3.09043E-02 8.56165E-26
3.16639E-02 7.75877E-26
3.24324E-02 7.03070E-26
3.32098E-02 6.37049E-26
3.39961E-02 5.77186E-26
3.47912E-02 5.22912E-26
3.55952E-02 4.73711E-26
3.64081E-02 4.29114E-26
3.72297E-02 3.88697E-26
3.80602E-02 3.52074E-26
3.88995E-02 3.18895E-26
3.97476E-02 2.88843E-26
4.06044E-02 2.61629E-26
4.14700E-02 2.36990E-26
4.23443E-02 2.14689E-26
4.32273E-02 1.94508E-26
4.41190E-02 1.76252E-26
4.50194E-02 1.59740E-26
4.59284E-02 1.44811E-26
4.68461E-02 1.31316E-26
4.87074E-02 1.08105E-26
5.06030E-02 8.91723E-27
5.25328E-02 7.37447E-27
5.44967E-02 6.11851E-27
5.64946E-02 5.09676E-27
5.85262E-02 4.26590E-27
6.05914E-02 3.59027E-27
6.26901E-02 3.04061E-27
6.48222E-02 2.59291E-27
6.69873E-02 2.22753E-27
6.91854E-02 1.92845E-27
7.14163E-02 1.68264E-27
7.36799E-02 1.47953E-27
7.59760E-02 1.31056E-27
7.83043E-02 1.16887E-27
8.06647E-02 1.04894E-27
8.30571E-02 9.46363E-28
8.54812E-02 8.57656E-28
8.79369E-02 7.80058E-28
9.04240E-02 7.11407E-28
9.29422E-02 6.50013E-28
9.54915E-02 5.94570E-28
9.80716E-02 5.44071E-28
1.00682E-01 4.97745E-28
1.03323E-01 4.55007E-28
1.05995E-01 4.15414E-28
1.08696E-01 3.78631E-28
1.11427E-01 3.44404E-28
1.14188E-01 3.12539E-28
1.16978E-01 2.82885E-28
1.19797E-01 2.55322E-28
1.22645E-01 2.29749E-28
1.25522E-01 2.06078E-28
1.28428E-01 1.84228E-28
1.31361E-01 1.64125E-28
1.34323E-01 1.45691E-28
1.37313E-01 1.28851E-28
1.40330E-01 1.13528E-28
1.43375E-01 9.96423E-29
1.46447E-01 8.71135E-29
1.49545E-01 7.58594E-29
1.52671E-01 6.57973E-29
1.55823E-01 5.68440E-29
1.59001E-01 4.89170E-29
1.62205E-01 4.19350E-29
1.65435E-01 3.58183E-29
1.68690E-01 3.04896E-29
1.71970E-01 2.58746E-29
1.75276E-01 2.19021E-29
1.78606E-01 1.85047E-29
1.81961E-01 1.56189E-29
1.85340E-01 1.31852E-29
1.88743E-01 1.11484E-29
1.92169E-01 9.45776E-30
1.95619E-01 8.06647E-30
1.99092E-01 6.93214E-30
2.02589E-01 6.01643E-30
2.06107E-01 5.28495E-30
2.09649E-01 4.70707E-30
2.13212E-01 4.25572E-30
2.16797E-01 3.90718E-30
2.20404E-01 3.64083E-30
2.24032E-01 3.43893E-30
2.27680E-01 3.28634E-30
2.31350E-01 3.17033E-30
2.35040E-01 3.08028E-30
2.38751E-01 3.00752E-30
2.42481E-01 2.94503E-30
2.46231E-01 2.88733E-30
2.50000E-01 2.83018E-30
2.53788E-01 2.77048E-30
2.57595E-01 2.70606E-30
2.61421E-01 2.63554E-30
2.65264E-01 2.55820E-30
2.69126E-01 2.47382E-30
2.73005E-01 2.38264E-30
2.76901E-01 2.28517E-30
2.80814E-01 2.18221E-30
2.84744E-01 2.07467E-30
2.88691E-01 1.96360E-30
2.92653E-01 1.85009E-30
2.96632E-01 1.73522E-30
3.00625E-01 1.62008E-30
3.04634E-01 1.50566E-30
3.08658E-01 1.39292E-30
3.12697E-01 1.28270E-30
3.16749E-01 1.17576E-30
3.20816E-01 1.07276E-30
3.24896E-01 9.74229E-31
3.28990E-01 8.80615E-31
3.33097E-01 7.92256E-31
3.37216E-01 7.09391E-31
3.41348E-01 6.32173E-31
3.45492E-01 5.60670E-31
3.49647E-01 4.94874E-31
3.53814E-01 4.34714E-31
3.57992E-01 3.80058E-31
3.62181E-01 3.30728E-31
3.66381E-01 2.86503E-31
3.70590E-01 2.47131E-31
3.74810E-01 2.12333E-31
3.79039E-01 1.81813E-31
3.83277E-01 1.55264E-31
3.87524E-01 1.32370E-31
3.91780E-01 1.12815E-31
3.96044E-01 9.62878E-32
4.00316E-01 8.24817E-32
4.04596E-01 7.11015E-32
4.08882E-01 6.18643E-32
4.13176E-01 5.45022E-32
4.17476E-01 4.87633E-32
4.21783E-01 4.44135E-32
4.26095E-01 4.12365E-32
4.30413E-01 3.90349E-32
4.34737E-01 3.76294E-32
4.39065E-01 3.68592E-32
4.43398E-01 3.65812E-32
4.47736E-01 3.66696E-32
4.52077E-01 3.70146E-32
4.56422E-01 3.75221E-32
4.60770E-01 3.81122E-32
4.65122E-01 3.87185E-32
4.69476E-01 3.92865E-32
4.73832E-01 3.97731E-32
4.78190E-01 4.01447E-32
4.82550E-01 4.03771E-32
4.86912E-01 4.04535E-32
4.91274E-01 4.03640E-32
4.95637E-01 4.01045E-32
5.00000E-01 3.96759E-32
5.04363E-01 3.90831E-32
5.08726E-01 3.83344E-32
5.13088E-01 3.74405E-32
5.17450E-01 3.64144E-32
5.21810E-01 3.52704E-32
5.26168E-01 3.40235E-32
5.30524E-01 3.26896E-32
5.34878E-01 3.12844E-32
5.39230E-01 2.98235E-32
5.43578E-01 2.83221E-32
5.47923E-01 2.67947E-32
5.52264E-01 2.52550E-32
5.56602E-01 2.37156E-32
5.60935E-01 2.21882E-32
5.65263E-01 2.06833E-32
5.69587E-01 1.92101E-32
5.73905E-01 1.77770E-32
5.78217E-01 1.63908E-32
5.82524E-01 1.50576E-32
5.86824E-01 1.37821E-32
5.91118E-01 1.25682E-32
5.95404E-01 1.14185E-32
5.99684E-01 1.03352E-32
6.03956E-01 9.31925E-33
6.08220E-01 8.37105E-33
6.12476E-01 7.49031E-33
6.16723E-01 6.67612E-33
6.20961E-01 5.92709E-33
6.25190E-01 5.24135E-33
6.29410E-01 4.61670E-33
6.33619E-01 4.05059E-33
6.37819E-01 3.54027E-33
6.42008E-01 3.08277E-33
6.46186E-01 2.67501E-33
6.50353E-01 2.31382E-33
6.54508E-01 1.99597E-33
6.58652E-01 1.71826E-33
6.62784E-01 1.47749E-33
6.66903E-01 1.27053E-33
6.71010E-01 1.09434E-33
6.75104E-01 9.45971E-34
6.79184E-01 8.22612E-34
6.83251E-01 7.21575E-34
6.87303E-01 6.40321E-34
6.91342E-01 5.76463E-34
6.95366E-01 5.27773E-34
6.99375E-01 4.92180E-34
7.03368E-01 4.67774E-34
7.07347E-01 4.52805E-34
7.11309E-01 4.45676E-34
7.15256E-01 4.44941E-34
7.19186E-01 4.49303E-34
7.23099E-01 4.57600E-34
7.26995E-01 4.68804E-34
7.30874E-01 4.82014E-34
7.34736E-01 4.96443E-34
7.38579E-01 5.11415E-34
7.42405E-01 5.26355E-34
7.46212E-01 5.40779E-34
7.50000E-01 5.54290E-34
7.53769E-01 5.66566E-34
7.57519E-01 5.77357E-34
7.61249E-01 5.86474E-34
7.64960E-01 5.93781E-34
7.68650E-01 5.99194E-34
7.72320E-01 6.02669E-34
7.75968E-01 6.04200E-34
7.79596E-01 6.03812E-34
7.83203E-01 6.01555E-34
7.86788E-01 5.97502E-34
7.90351E-01 5.91744E-34
7.93893E-01 5.84385E-34
7.97411E-01 5.75540E-34
8.00908E-01 5.65331E-34
8.04381E-01 5.53884E-34
8.07831E-01 5.41330E-34
8.11257E-01 5.27799E-34
8.14660E-01 5.13420E-34
8.18039E-01 4.98319E-34
8.21394E-01 4.82619E-34
8.24724E-01 4.66438E-34
8.28030E-01 4.49888E-34
8.31310E-01 4.33075E-34
8.34565E-01 4.16098E-34
8.37795E-01 3.99049E-34
8.40999E-01 3.82013E-34
8.44177E-01 3.65068E-34
8.47329E-01 3.48284E-34
8.50455E-01 3.31724E-34
8.53553E-01 3.15446E-34
8.56625E-01 2.99497E-34
8.59670E-01 2.83922E-34
8.62687E-01 2.68757E-34
8.65677E-01 2.54034E-34
8.68639E-01 2.39777E-34
8.71572E-01 2.26007E-34
8.74478E-01 2.12740E-34
8.77355E-01 1.99987E-34
8.80203E-01 1.87754E-34
8.83022E-01 1.76047E-34
8.85812E-01 1.64865E-34
8.88573E-01 1.54205E-34
8.91304E-01 1.44062E-34
8.94005E-01 1.34429E-34
8.96677E-01 1.25296E-34
8.99318E-01 1.16652E-34
9.01928E-01 1.08484E-34
9.04508E-01 1.00779E-34
9.07058E-01 9.35203E-35
9.09576E-01 8.66935E-35
9.12063E-01 8.02823E-35
9.14519E-01 7.42694E-35
9.16943E-01 6.86384E-35
9.19335E-01 6.33717E-35
9.21696E-01 5.84525E-35
9.24024E-01 5.38639E-35
9.26320E-01 4.95885E-35
9.28584E-01 4.56104E-35
9.30815E-01 4.19130E-35
9.33013E-01 3.84806E-35
9.35178E-01 3.52978E-35
9.37310E-01 3.23499E-35
9.39409E-01 2.96223E-35
9.41474E-01 2.71016E-35
9.43505E-01 2.47741E-35
9.45503E-01 2.26276E-35
9.47467E-01 2.06497E-35
9.49397E-01 1.88293E-35
9.51293E-01 1.71552E-35
9.53154E-01 1.56173E-35
9.54981E-01 1.42056E-35
9.56773E-01 1.29112E-35
9.58530E-01 1.17252E-35
9.60252E-01 1.06396E-35
9.61940E-01 9.64665E-36
9.63592E-01 8.73933E-36
9.65209E-01 7.91084E-36
9.66790E-01 7.15498E-36
9.68336E-01 6.46587E-36
9.69846E-01 5.83817E-36
9.71321E-01 5.26690E-36
9.72759E-01 4.74726E-36
9.74162E-01 4.27497E-36
9.75528E-01 3.84604E-36
9.76858E-01 3.45675E-36
9.78152E-01 3.10370E-36
9.79410E-01 2.78372E-36
9.80631E-01 2.49393E-36
9.81815E-01 2.23162E-36
9.82963E-01 1.99438E-36
9.84074E-01 1.77993E-36
9.85148E-01 1.58619E-36
9.86185E-01 1.41129E-36
9.87185E-01 1.25352E-36
9.88148E-01 1.11128E-36
9.89074E-01 9.83160E-37
9.89962E-01 8.67765E-37
9.90814E-01 7.63994E-37
9.91627E-01 6.70706E-37
9.92404E-01 5.86904E-37
9.93143E-01 5.11762E-37
9.93844E-01 4.44378E-37
9.94508E-01 3.84046E-37
9.95134E-01 3.30147E-37
9.95722E-01 2.82034E-37
9.96273E-01 2.39184E-37
9.96786E-01 2.01120E-37
9.97261E-01 1.67407E-37
9.97698E-01 1.37678E-37
9.98097E-01 1.11567E-37
9.98459E-01 8.87732E-38
9.98782E-01 6.90519E-38
9.99067E-01 5.21606E-38
9.99315E-01 3.78932E-38
9.99524E-01 2.60979E-38
9.99695E-01 1.66336E-38
9.99829E-01 9.38398E-39
9.99924E-01 4.26810E-39
9.99981E-01 1.21914E-39
1.00000E+00 2.07259E-40
