 #
 # Subroutine ELSEPA. Elastic scattering of electrons and positrons
 #                    by neutral atoms and positive ions
 #
 # Projectile: electron
 # Kinetic energy = 1.75000E+07 eV = 6.43113E+05 a.u.
 #
 # WARNING: High-energy factorization with free-atom DF screening.
 #          Absorption, polarization and exchange corrections are
 #          switched off.
 #          Phase shifts are calculated for the bare nucleus.
 #          Scattering amplitudes are not evaluated.
 #
 # Element: Lu,  Z =  71,  atomic weight = 1.74967E+02 g/mol
 #
 # Nuclear model: Fermi distribution
 #                Average radius = 5.98461E-13 cm
 #                Skin thickness = 5.46000E-14 cm
 #
 # Number of electrons = 71
 #
 # Total elastic cross section = 7.19256E-18 cm**2 = 2.56851E-01 a0**2
 # 1st transport cross section = 2.90707E-23 cm**2 = 1.03813E-06 a0**2
 # 2nd transport cross section = 8.17894E-23 cm**2 = 2.92075E-06 a0**2
 #
 #
 # Differential cross section:                       MU=(1-COS(THETA))/2
 #
 #  THETA        MU          DCS          DCS        Sherman      error
 #  (deg)                 (cm**2/sr)   (a0**2/sr)    function
 #----------------------------------------------------------------------
0.00000E+00 2.14943E-11
7.61557E-13 2.14917E-11
1.18994E-12 2.14902E-11
1.71346E-12 2.14884E-11
2.33225E-12 2.14863E-11
3.04617E-12 2.14839E-11
3.85530E-12 2.14812E-11
4.75964E-12 2.14781E-11
5.75917E-12 2.14747E-11
6.85391E-12 2.14710E-11
8.04379E-12 2.14670E-11
9.32893E-12 2.14626E-11
1.07092E-11 2.14580E-11
1.21847E-11 2.14530E-11
1.37554E-11 2.14477E-11
1.54213E-11 2.14421E-11
1.71823E-11 2.14361E-11
1.90386E-11 2.14299E-11
2.09900E-11 2.14233E-11
2.30367E-11 2.14164E-11
2.51785E-11 2.14092E-11
2.74156E-11 2.14017E-11
2.97478E-11 2.13938E-11
3.21752E-11 2.13857E-11
3.46979E-11 2.13772E-11
3.73157E-11 2.13684E-11
4.00286E-11 2.13593E-11
4.28368E-11 2.13499E-11
4.57402E-11 2.13402E-11
4.87388E-11 2.13302E-11
5.18325E-11 2.13198E-11
5.50215E-11 2.13092E-11
5.83057E-11 2.12982E-11
6.16850E-11 2.12869E-11
6.51595E-11 2.12754E-11
6.87293E-11 2.12635E-11
7.23943E-11 2.12513E-11
7.61544E-11 2.12388E-11
1.18991E-10 2.10975E-11
1.71347E-10 2.09268E-11
2.33223E-10 2.07281E-11
3.04617E-10 2.05027E-11
3.85531E-10 2.02522E-11
4.75965E-10 1.99783E-11
5.75917E-10 1.96827E-11
6.85389E-10 1.93674E-11
8.04380E-10 1.90342E-11
9.32891E-10 1.86852E-11
1.07092E-09 1.83223E-11
1.21847E-09 1.79476E-11
1.37554E-09 1.75629E-11
1.54213E-09 1.71701E-11
1.71823E-09 1.67713E-11
1.90386E-09 1.63680E-11
2.09900E-09 1.59617E-11
2.30367E-09 1.55545E-11
2.51785E-09 1.51476E-11
2.74156E-09 1.47419E-11
2.97478E-09 1.43395E-11
3.21752E-09 1.39412E-11
3.46978E-09 1.35473E-11
3.73156E-09 1.31599E-11
4.00286E-09 1.27792E-11
4.28368E-09 1.24053E-11
4.57402E-09 1.20397E-11
4.87388E-09 1.16829E-11
5.18326E-09 1.13341E-11
5.50215E-09 1.09948E-11
5.83057E-09 1.06653E-11
6.16850E-09 1.03445E-11
6.51596E-09 1.00335E-11
6.87293E-09 9.73269E-12
7.23942E-09 9.44077E-12
7.61544E-09 9.15851E-12
1.18991E-08 6.82759E-12
1.71347E-08 5.22183E-12
2.33223E-08 4.10552E-12
3.04617E-08 3.30294E-12
3.85531E-08 2.70392E-12
4.75965E-08 2.24190E-12
5.75917E-08 1.87612E-12
6.85389E-08 1.58108E-12
8.04380E-08 1.32559E-12
9.32891E-08 1.12755E-12
1.07092E-07 9.75154E-13
1.21847E-07 8.36204E-13
1.37554E-07 7.21740E-13
1.54213E-07 6.30811E-13
1.71823E-07 5.49306E-13
1.90386E-07 4.80483E-13
2.09900E-07 4.24362E-13
2.30367E-07 3.74339E-13
2.51785E-07 3.31254E-13
2.74156E-07 2.95364E-13
2.97478E-07 2.63322E-13
3.21752E-07 2.35249E-13
3.46978E-07 2.11454E-13
3.73156E-07 1.90135E-13
4.00286E-07 1.71186E-13
4.28368E-07 1.54895E-13
4.57402E-07 1.40253E-13
4.87388E-07 1.27089E-13
5.18325E-07 1.15637E-13
5.50215E-07 1.05322E-13
5.83057E-07 9.59688E-14
6.16850E-07 8.77503E-14
6.51596E-07 8.03344E-14
6.87293E-07 7.35691E-14
7.23942E-07 6.75725E-14
7.61543E-07 6.21517E-14
1.18991E-06 2.89791E-14
1.71347E-06 1.53163E-14
2.33223E-06 8.90703E-15
3.04617E-06 5.56759E-15
3.85531E-06 3.66288E-15
4.75964E-06 2.50706E-15
5.75916E-06 1.77271E-15
6.85388E-06 1.28725E-15
8.04378E-06 9.55972E-16
9.32888E-06 7.25154E-16
1.07092E-05 5.59989E-16
1.21846E-05 4.39287E-16
1.37553E-05 3.49410E-16
1.54212E-05 2.81327E-16
1.71822E-05 2.29092E-16
1.90385E-05 1.88366E-16
2.09899E-05 1.56488E-16
2.30365E-05 1.31070E-16
2.51783E-05 1.10572E-16
2.74153E-05 9.39106E-17
2.97475E-05 8.02683E-17
3.21749E-05 6.90200E-17
3.46974E-05 5.96835E-17
3.73152E-05 5.18816E-17
4.00281E-05 4.53162E-17
4.28362E-05 3.97611E-17
4.57395E-05 3.50324E-17
4.87380E-05 3.09850E-17
5.18317E-05 2.75038E-17
5.50205E-05 2.44953E-17
5.83045E-05 2.18859E-17
6.16838E-05 1.96151E-17
6.51582E-05 1.76319E-17
6.87277E-05 1.58936E-17
7.23925E-05 1.43646E-17
7.61524E-05 1.30142E-17
9.21439E-05 8.96852E-18
1.09658E-04 6.37819E-18
1.28695E-04 4.65923E-18
1.49255E-04 3.48201E-18
1.71338E-04 2.65440E-18
1.94942E-04 2.05881E-18
2.20070E-04 1.62145E-18
2.46720E-04 1.29443E-18
2.74892E-04 1.04594E-18
3.04586E-04 8.54416E-19
3.35803E-04 7.04851E-19
3.68542E-04 5.86678E-19
4.02802E-04 4.92306E-19
4.38585E-04 4.16201E-19
4.75889E-04 3.54276E-19
5.14715E-04 3.03472E-19
5.55063E-04 2.61473E-19
5.96931E-04 2.26509E-19
6.40321E-04 1.97210E-19
6.85233E-04 1.72508E-19
7.31665E-04 1.51562E-19
7.79618E-04 1.33709E-19
8.29092E-04 1.18415E-19
8.80086E-04 1.05251E-19
9.32601E-04 9.38710E-20
9.86636E-04 8.39918E-20
1.04219E-03 7.53822E-20
1.09927E-03 6.78513E-20
1.15786E-03 6.12400E-20
1.21797E-03 5.54172E-20
1.27961E-03 5.02725E-20
1.34276E-03 4.57129E-20
1.40743E-03 4.16605E-20
1.47362E-03 3.80489E-20
1.54133E-03 3.48217E-20
1.61056E-03 3.19307E-20
1.68131E-03 2.93348E-20
1.75357E-03 2.69984E-20
1.82735E-03 2.48910E-20
1.90265E-03 2.29862E-20
1.97947E-03 2.12609E-20
2.05780E-03 1.96953E-20
2.13765E-03 1.82718E-20
2.21902E-03 1.69752E-20
2.30190E-03 1.57922E-20
2.38630E-03 1.47110E-20
2.47222E-03 1.37213E-20
2.55965E-03 1.28139E-20
2.64859E-03 1.19806E-20
2.73905E-03 1.12145E-20
2.83103E-03 1.05089E-20
2.92452E-03 9.85831E-21
3.01952E-03 9.25760E-21
3.11604E-03 8.70226E-21
3.21407E-03 8.18821E-21
3.31362E-03 7.71181E-21
3.41468E-03 7.26980E-21
3.51725E-03 6.85923E-21
3.62133E-03 6.47745E-21
3.72692E-03 6.12205E-21
3.83403E-03 5.79089E-21
3.94265E-03 5.48199E-21
4.05278E-03 5.19358E-21
4.16442E-03 4.92404E-21
4.27757E-03 4.67190E-21
4.39223E-03 4.43582E-21
4.50840E-03 4.21460E-21
4.62608E-03 4.00712E-21
4.74527E-03 3.81236E-21
4.86597E-03 3.62940E-21
4.98817E-03 3.45739E-21
5.11188E-03 3.29554E-21
5.23711E-03 3.14314E-21
5.36383E-03 2.99953E-21
5.49207E-03 2.86412E-21
5.62181E-03 2.73633E-21
5.75306E-03 2.61567E-21
5.88581E-03 2.50165E-21
6.02007E-03 2.39384E-21
6.15583E-03 2.29184E-21
6.29310E-03 2.19527E-21
6.43187E-03 2.10379E-21
6.57214E-03 2.01708E-21
6.71392E-03 1.93484E-21
6.85720E-03 1.85680E-21
7.00198E-03 1.78270E-21
7.14827E-03 1.71230E-21
7.29605E-03 1.64538E-21
7.44534E-03 1.58174E-21
7.59612E-03 1.52119E-21
7.97965E-03 1.38215E-21
8.37255E-03 1.25883E-21
8.77480E-03 1.14913E-21
9.18641E-03 1.05127E-21
9.60736E-03 9.63737E-22
1.00376E-02 8.85252E-22
1.04773E-02 8.14704E-22
1.09262E-02 7.51143E-22
1.13844E-02 6.93749E-22
1.18520E-02 6.41815E-22
1.23288E-02 5.94722E-22
1.28150E-02 5.51936E-22
1.33104E-02 5.12990E-22
1.38150E-02 4.77474E-22
1.43290E-02 4.45029E-22
1.48521E-02 4.15338E-22
1.53845E-02 3.88125E-22
1.59262E-02 3.63143E-22
1.64770E-02 3.40174E-22
1.70371E-02 3.19024E-22
1.76063E-02 2.99522E-22
1.81848E-02 2.81516E-22
1.87724E-02 2.64867E-22
1.93692E-02 2.49454E-22
1.99751E-02 2.35167E-22
2.05901E-02 2.21909E-22
2.12143E-02 2.09589E-22
2.18476E-02 1.98130E-22
2.24900E-02 1.87459E-22
2.31415E-02 1.77511E-22
2.38021E-02 1.68228E-22
2.44717E-02 1.59556E-22
2.51504E-02 1.51447E-22
2.58382E-02 1.43858E-22
2.65349E-02 1.36748E-22
2.72407E-02 1.30081E-22
2.79555E-02 1.23824E-22
2.86793E-02 1.17947E-22
2.94120E-02 1.12422E-22
3.01537E-02 1.07224E-22
3.09043E-02 1.02329E-22
3.16639E-02 9.77163E-23
3.24324E-02 9.33665E-23
3.32098E-02 8.92612E-23
3.39961E-02 8.53843E-23
3.47912E-02 8.17201E-23
3.55952E-02 7.82547E-23
3.64081E-02 7.49752E-23
3.72297E-02 7.18696E-23
3.80602E-02 6.89266E-23
3.88995E-02 6.61361E-23
3.97476E-02 6.34886E-23
4.06044E-02 6.09751E-23
4.14700E-02 5.85876E-23
4.23443E-02 5.63184E-23
4.32273E-02 5.41605E-23
4.41190E-02 5.21072E-23
4.50194E-02 5.01525E-23
4.59284E-02 4.82906E-23
4.68461E-02 4.65162E-23
4.87074E-02 4.32104E-23
5.06030E-02 4.01992E-23
5.25328E-02 3.74512E-23
5.44967E-02 3.49388E-23
5.64946E-02 3.26378E-23
5.85262E-02 3.05269E-23
6.05914E-02 2.85873E-23
6.26901E-02 2.68023E-23
6.48222E-02 2.51571E-23
6.69873E-02 2.36386E-23
6.91854E-02 2.22350E-23
7.14163E-02 2.09360E-23
7.36799E-02 1.97321E-23
7.59760E-02 1.86151E-23
7.83043E-02 1.75773E-23
8.06647E-02 1.66118E-23
8.30571E-02 1.57126E-23
8.54812E-02 1.48742E-23
8.79369E-02 1.40919E-23
9.04240E-02 1.33610E-23
9.29422E-02 1.26775E-23
9.54915E-02 1.20376E-23
9.80716E-02 1.14381E-23
1.00682E-01 1.08759E-23
1.03323E-01 1.03481E-23
1.05995E-01 9.85222E-24
1.08696E-01 9.38596E-24
1.11427E-01 8.94717E-24
1.14188E-01 8.53390E-24
1.16978E-01 8.14437E-24
1.19797E-01 7.77693E-24
1.22645E-01 7.43006E-24
1.25522E-01 7.10239E-24
1.28428E-01 6.79264E-24
1.31361E-01 6.49962E-24
1.34323E-01 6.22224E-24
1.37313E-01 5.95950E-24
1.40330E-01 5.71048E-24
1.43375E-01 5.47430E-24
1.46447E-01 5.25017E-24
1.49545E-01 5.03734E-24
1.52671E-01 4.83515E-24
1.55823E-01 4.64294E-24
1.59001E-01 4.46011E-24
1.62205E-01 4.28613E-24
1.65435E-01 4.12048E-24
1.68690E-01 3.96267E-24
1.71970E-01 3.81227E-24
1.75276E-01 3.66884E-24
1.78606E-01 3.53201E-24
1.81961E-01 3.40141E-24
1.85340E-01 3.27670E-24
1.88743E-01 3.15756E-24
1.92169E-01 3.04369E-24
1.95619E-01 2.93482E-24
1.99092E-01 2.83067E-24
2.02589E-01 2.73101E-24
2.06107E-01 2.63560E-24
2.09649E-01 2.54422E-24
2.13212E-01 2.45668E-24
2.16797E-01 2.37277E-24
2.20404E-01 2.29232E-24
2.24032E-01 2.21515E-24
2.27680E-01 2.14112E-24
2.31350E-01 2.07006E-24
2.35040E-01 2.00183E-24
2.38751E-01 1.93629E-24
2.42481E-01 1.87333E-24
2.46231E-01 1.81282E-24
2.50000E-01 1.75464E-24
2.53788E-01 1.69869E-24
2.57595E-01 1.64487E-24
2.61421E-01 1.59308E-24
2.65264E-01 1.54323E-24
2.69126E-01 1.49523E-24
2.73005E-01 1.44900E-24
2.76901E-01 1.40447E-24
2.80814E-01 1.36155E-24
2.84744E-01 1.32019E-24
2.88691E-01 1.28031E-24
2.92653E-01 1.24185E-24
2.96632E-01 1.20474E-24
3.00625E-01 1.16894E-24
3.04634E-01 1.13440E-24
3.08658E-01 1.10104E-24
3.12697E-01 1.06884E-24
3.16749E-01 1.03773E-24
3.20816E-01 1.00769E-24
3.24896E-01 9.78657E-25
3.28990E-01 9.50599E-25
3.33097E-01 9.23476E-25
3.37216E-01 8.97252E-25
3.41348E-01 8.71892E-25
3.45492E-01 8.47361E-25
3.49647E-01 8.23628E-25
3.53814E-01 8.00663E-25
3.57992E-01 7.78436E-25
3.62181E-01 7.56919E-25
3.66381E-01 7.36086E-25
3.70590E-01 7.15911E-25
3.74810E-01 6.96369E-25
3.79039E-01 6.77438E-25
3.83277E-01 6.59095E-25
3.87524E-01 6.41318E-25
3.91780E-01 6.24088E-25
3.96044E-01 6.07383E-25
4.00316E-01 5.91187E-25
4.04596E-01 5.75480E-25
4.08882E-01 5.60245E-25
4.13176E-01 5.45465E-25
4.17476E-01 5.31126E-25
4.21783E-01 5.17211E-25
4.26095E-01 5.03706E-25
4.30413E-01 4.90596E-25
4.34737E-01 4.77869E-25
4.39065E-01 4.65511E-25
4.43398E-01 4.53510E-25
4.47736E-01 4.41853E-25
4.52077E-01 4.30530E-25
4.56422E-01 4.19529E-25
4.60770E-01 4.08840E-25
4.65122E-01 3.98452E-25
4.69476E-01 3.88356E-25
4.73832E-01 3.78542E-25
4.78190E-01 3.69000E-25
4.82550E-01 3.59723E-25
4.86912E-01 3.50701E-25
4.91274E-01 3.41927E-25
4.95637E-01 3.33392E-25
5.00000E-01 3.25090E-25
5.04363E-01 3.17012E-25
5.08726E-01 3.09152E-25
5.13088E-01 3.01504E-25
5.17450E-01 2.94059E-25
5.21810E-01 2.86813E-25
5.26168E-01 2.79759E-25
5.30524E-01 2.72892E-25
5.34878E-01 2.66205E-25
5.39230E-01 2.59693E-25
5.43578E-01 2.53351E-25
5.47923E-01 2.47174E-25
5.52264E-01 2.41157E-25
5.56602E-01 2.35295E-25
5.60935E-01 2.29584E-25
5.65263E-01 2.24019E-25
5.69587E-01 2.18596E-25
5.73905E-01 2.13310E-25
5.78217E-01 2.08159E-25
5.82524E-01 2.03137E-25
5.86824E-01 1.98242E-25
5.91118E-01 1.93469E-25
5.95404E-01 1.88815E-25
5.99684E-01 1.84277E-25
6.03956E-01 1.79851E-25
6.08220E-01 1.75535E-25
6.12476E-01 1.71325E-25
6.16723E-01 1.67218E-25
6.20961E-01 1.63211E-25
6.25190E-01 1.59302E-25
6.29410E-01 1.55488E-25
6.33619E-01 1.51767E-25
6.37819E-01 1.48135E-25
6.42008E-01 1.44591E-25
6.46186E-01 1.41131E-25
6.50353E-01 1.37754E-25
6.54508E-01 1.34458E-25
6.58652E-01 1.31240E-25
6.62784E-01 1.28098E-25
6.66903E-01 1.25031E-25
6.71010E-01 1.22036E-25
6.75104E-01 1.19111E-25
6.79184E-01 1.16255E-25
6.83251E-01 1.13465E-25
6.87303E-01 1.10740E-25
6.91342E-01 1.08079E-25
6.95366E-01 1.05479E-25
6.99375E-01 1.02940E-25
7.03368E-01 1.00459E-25
7.07347E-01 9.80345E-26
7.11309E-01 9.56661E-26
7.15256E-01 9.33518E-26
7.19186E-01 9.10904E-26
7.23099E-01 8.88804E-26
7.26995E-01 8.67206E-26
7.30874E-01 8.46098E-26
7.34736E-01 8.25467E-26
7.38579E-01 8.05302E-26
7.42405E-01 7.85591E-26
7.46212E-01 7.66322E-26
7.50000E-01 7.47486E-26
7.53769E-01 7.29071E-26
7.57519E-01 7.11068E-26
7.61249E-01 6.93466E-26
7.64960E-01 6.76256E-26
7.68650E-01 6.59428E-26
7.72320E-01 6.42973E-26
7.75968E-01 6.26882E-26
7.79596E-01 6.11148E-26
7.83203E-01 5.95760E-26
7.86788E-01 5.80712E-26
7.90351E-01 5.65994E-26
7.93893E-01 5.51601E-26
7.97411E-01 5.37523E-26
8.00908E-01 5.23754E-26
8.04381E-01 5.10286E-26
8.07831E-01 4.97114E-26
8.11257E-01 4.84229E-26
8.14660E-01 4.71625E-26
8.18039E-01 4.59296E-26
8.21394E-01 4.47237E-26
8.24724E-01 4.35440E-26
8.28030E-01 4.23899E-26
8.31310E-01 4.12611E-26
8.34565E-01 4.01567E-26
8.37795E-01 3.90764E-26
8.40999E-01 3.80196E-26
8.44177E-01 3.69858E-26
8.47329E-01 3.59744E-26
8.50455E-01 3.49851E-26
8.53553E-01 3.40173E-26
8.56625E-01 3.30705E-26
8.59670E-01 3.21444E-26
8.62687E-01 3.12384E-26
8.65677E-01 3.03522E-26
8.68639E-01 2.94853E-26
8.71572E-01 2.86373E-26
8.74478E-01 2.78079E-26
8.77355E-01 2.69967E-26
8.80203E-01 2.62033E-26
8.83022E-01 2.54272E-26
8.85812E-01 2.46683E-26
8.88573E-01 2.39260E-26
8.91304E-01 2.32002E-26
8.94005E-01 2.24904E-26
8.96677E-01 2.17964E-26
8.99318E-01 2.11179E-26
9.01928E-01 2.04544E-26
9.04508E-01 1.98058E-26
9.07058E-01 1.91718E-26
9.09576E-01 1.85521E-26
9.12063E-01 1.79463E-26
9.14519E-01 1.73543E-26
9.16943E-01 1.67758E-26
9.19335E-01 1.62106E-26
9.21696E-01 1.56583E-26
9.24024E-01 1.51188E-26
9.26320E-01 1.45919E-26
9.28584E-01 1.40772E-26
9.30815E-01 1.35747E-26
9.33013E-01 1.30840E-26
9.35178E-01 1.26050E-26
9.37310E-01 1.21374E-26
9.39409E-01 1.16811E-26
9.41474E-01 1.12359E-26
9.43505E-01 1.08016E-26
9.45503E-01 1.03781E-26
9.47467E-01 9.96504E-27
9.49397E-01 9.56238E-27
9.51293E-01 9.16993E-27
9.53154E-01 8.78752E-27
9.54981E-01 8.41501E-27
9.56773E-01 8.05224E-27
9.58530E-01 7.69905E-27
9.60252E-01 7.35532E-27
9.61940E-01 7.02090E-27
9.63592E-01 6.69566E-27
9.65209E-01 6.37946E-27
9.66790E-01 6.07218E-27
9.68336E-01 5.77370E-27
9.69846E-01 5.48389E-27
9.71321E-01 5.20265E-27
9.72759E-01 4.92986E-27
9.74162E-01 4.66541E-27
9.75528E-01 4.40920E-27
9.76858E-01 4.16113E-27
9.78152E-01 3.92110E-27
9.79410E-01 3.68901E-27
9.80631E-01 3.46479E-27
9.81815E-01 3.24833E-27
9.82963E-01 3.03955E-27
9.84074E-01 2.83838E-27
9.85148E-01 2.64473E-27
9.86185E-01 2.45853E-27
9.87185E-01 2.27970E-27
9.88148E-01 2.10819E-27
9.89074E-01 1.94392E-27
9.89962E-01 1.78683E-27
9.90814E-01 1.63685E-27
9.91627E-01 1.49394E-27
9.92404E-01 1.35803E-27
9.93143E-01 1.22908E-27
9.93844E-01 1.10703E-27
9.94508E-01 9.91841E-28
9.95134E-01 8.83465E-28
9.95722E-01 7.81862E-28
9.96273E-01 6.86994E-28
9.96786E-01 5.98823E-28
9.97261E-01 5.17317E-28
9.97698E-01 4.42445E-28
9.98097E-01 3.74178E-28
9.98459E-01 3.12491E-28
9.98782E-01 2.57359E-28
9.99067E-01 2.08762E-28
9.99315E-01 1.66682E-28
9.99524E-01 1.31103E-28
9.99695E-01 1.02011E-28
9.99829E-01 7.93955E-29
9.99924E-01 6.32476E-29
9.99981E-01 5.35613E-29
1.00000E+00 5.03329E-29
