 #  Total cross section table (last run of 'elscata').
 #
 #  Z =  71,   projectile: electron
 #
 #   Energy         ECS         TCS1         TCS2         ABSCS      error
 #    (eV)        (cm**2)      (cm**2)      (cm**2)      (cm**2)
 #--------------------------------------------------------------------------
   1.00000E+02  1.24203E-15  7.27993E-17  1.31174E-16  1.04317E-15  7.9E-06
   1.25000E+02  1.08834E-15  6.06194E-17  1.03563E-16  8.87500E-16  2.6E-05
   1.50000E+02  9.69176E-16  5.75394E-17  9.38198E-17  7.75034E-16  8.6E-07
   1.75000E+02  8.75319E-16  5.86798E-17  9.28143E-17  6.89685E-16  7.7E-06
   2.00000E+02  8.00149E-16  6.15180E-17  9.53606E-17  6.22492E-16  1.3E-06
   2.50000E+02  6.88420E-16  6.80078E-17  1.01496E-16  5.22933E-16  5.5E-06
   3.00000E+02  6.10425E-16  7.29944E-17  1.03784E-16  4.52260E-16  1.4E-06
   3.50000E+02  5.53252E-16  7.59241E-17  1.01884E-16  3.99198E-16  2.8E-06
   4.00000E+02  5.09609E-16  7.70952E-17  9.72378E-17  3.57739E-16  2.1E-06
   4.50000E+02  4.75129E-16  7.69561E-17  9.12360E-17  3.24369E-16  7.0E-07
   5.00000E+02  4.47049E-16  7.58972E-17  8.48250E-17  2.96895E-16  2.7E-06
   6.00000E+02  4.03603E-16  7.21686E-17  7.27690E-17  2.54246E-16  4.4E-07
   7.00000E+02  3.70933E-16  6.74713E-17  6.29007E-17  2.22621E-16  5.2E-06
   8.00000E+02  3.44937E-16  6.26056E-17  5.52351E-17  1.98200E-16  1.3E-06
   9.00000E+02  3.23204E-16  5.79600E-17  4.93592E-17  1.78750E-16  2.0E-06
   1.00000E+03  3.04272E-16  5.36660E-17  4.48354E-17  1.62883E-16  1.6E-06
   1.25000E+03  2.66643E-16  4.46030E-17  3.72180E-17  1.33572E-16  1.6E-03
   1.50000E+03  2.39803E-16  3.76091E-17  3.24367E-17  1.13444E-16  7.5E-04
   1.75000E+03  2.19421E-16  3.21680E-17  2.90188E-17  9.87512E-17  1.0E-03
   2.00000E+03  2.03260E-16  2.78531E-17  2.63354E-17  8.75571E-17  8.0E-04
   2.50000E+03  1.79214E-16  2.16813E-17  2.23466E-17  7.14488E-17  1.7E-03
   3.00000E+03  1.61976E-16  1.75513E-17  1.94492E-17  6.03590E-17  1.1E-03
   3.50000E+03  1.48788E-16  1.45987E-17  1.71810E-17  5.22724E-17  1.5E-03
   4.00000E+03  1.38247E-16  1.23933E-17  1.53391E-17  4.61180E-17  1.9E-03
   4.50000E+03  1.29556E-16  1.06919E-17  1.38102E-17  4.12780E-17  2.8E-03
   5.00000E+03  1.22219E-16  9.34579E-18  1.25215E-17  3.73721E-17  4.9E-03
   6.00000E+03  1.10418E-16  7.36543E-18  1.04746E-17  3.14555E-17  5.7E-03
   7.00000E+03  1.01252E-16  5.99264E-18  8.92991E-18  2.71858E-17  5.0E-03
   8.00000E+03  9.38640E-17  4.99486E-18  7.72993E-18  2.39587E-17  7.5E-03
   9.00000E+03  8.77481E-17  4.24502E-18  6.77825E-18  2.14307E-17  4.2E-03
   1.00000E+04  8.25788E-17  3.66487E-18  6.00838E-18  1.93963E-17  5.2E-03
   1.25000E+04  7.17875E-17  2.67289E-18  4.61281E-18  1.57076E-17  2.5E-07
   1.50000E+04  6.45578E-17  2.05661E-18  3.68585E-18  1.32290E-17  3.9E-07
   1.75000E+04  5.89356E-17  1.64331E-18  3.03272E-18  1.14488E-17  1.0E-07
   2.00000E+04  5.44088E-17  1.35052E-18  2.55196E-18  1.01083E-17  1.0E-07
   2.50000E+04  4.75136E-17  9.69492E-19  1.89950E-18  8.22352E-18  1.3E-07
   3.00000E+04  4.24643E-17  7.37283E-19  1.48390E-18  6.96122E-18  5.2E-07
   3.50000E+04  3.85798E-17  5.83953E-19  1.20023E-18  6.05843E-18  1.0E-07
   4.00000E+04  3.54847E-17  4.76648E-19  9.96501E-19  5.37918E-18  1.0E-07
   4.50000E+04  3.29527E-17  3.98193E-19  8.44395E-19  4.85008E-18  1.0E-07
   5.00000E+04  3.08385E-17  3.38842E-19  7.27301E-19  4.42634E-18  2.0E-06
   6.00000E+04  2.74989E-17  2.56015E-19  5.60492E-19  3.79009E-18  2.2E-06
   7.00000E+04  2.49725E-17  2.01837E-19  4.48845E-19  3.33526E-18  2.1E-06
   8.00000E+04  2.29897E-17  1.64200E-19  3.69859E-19  2.99409E-18  3.8E-06
   9.00000E+04  2.13897E-17  1.36848E-19  3.11591E-19  2.72877E-18  1.2E-05
   1.00000E+05  2.00702E-17  1.16260E-19  2.67175E-19  2.51659E-18  3.2E-05
   1.25000E+05  1.75986E-17  8.23325E-20  1.92733E-19  2.13481E-18  2.1E-04
   1.50000E+05  1.58764E-17  6.21489E-20  1.47539E-19  1.87986E-18  8.6E-04
   1.75000E+05  1.46077E-17  4.90374E-20  1.17718E-19  1.69611E-18  2.5E-03
   2.00000E+05  1.36348E-17  3.99698E-20  9.68328E-20  1.55523E-18  6.1E-03
   2.50000E+05  1.22435E-17  2.84581E-20  6.99360E-20  1.34635E-18  1.8E-02
   3.00000E+05  1.12997E-17  2.16046E-20  5.36672E-20  1.25757E-18  5.4E-06
   3.50000E+05  1.06205E-17  1.71389E-20  4.29359E-20  1.17088E-18  6.9E-06
   4.00000E+05  1.01103E-17  1.40372E-20  3.54081E-20  1.10680E-18  1.0E-07
   4.50000E+05  9.71466E-18  1.17779E-20  2.98795E-20  1.05769E-18  1.3E-07
   5.00000E+05  9.39994E-18  1.00706E-20  2.56724E-20  1.01897E-18  3.7E-07
   6.00000E+05  8.93364E-18  7.68361E-21  1.97412E-20  9.62451E-19  1.0E-07
   7.00000E+05  8.60765E-18  6.11275E-21  1.58010E-20  9.23335E-19  1.0E-07
   8.00000E+05  8.36918E-18  5.01217E-21  1.30196E-20  8.94967E-19  1.0E-07
   9.00000E+05  8.18863E-18  4.20466E-21  1.09663E-20  8.73632E-19  1.0E-07
   1.00000E+06  8.04818E-18  3.59084E-21  9.39747E-21  8.57125E-19  1.0E-07
   1.25000E+06  7.82444E-18  2.58835E-21  6.81699E-21  0.00000E+00  1.0E-07
   1.50000E+06  7.70626E-18  1.95987E-21  5.18974E-21  0.00000E+00  1.0E-05
   1.75000E+06  7.59418E-18  1.54276E-21  4.10096E-21  0.00000E+00  1.0E-05
   2.00000E+06  7.51524E-18  1.25085E-21  3.33564E-21  0.00000E+00  1.0E-05
   2.50000E+06  7.41331E-18  8.76187E-22  2.34843E-21  0.00000E+00  1.0E-05
   3.00000E+06  7.35254E-18  6.51527E-22  1.75326E-21  0.00000E+00  1.0E-05
   3.50000E+06  7.31250E-18  5.05207E-22  1.36401E-21  0.00000E+00  1.0E-05
   4.00000E+06  7.28672E-18  4.04145E-22  1.09426E-21  0.00000E+00  1.0E-05
   4.50000E+06  7.26327E-18  3.31190E-22  8.98982E-22  0.00000E+00  1.0E-05
   5.00000E+06  7.26565E-18  2.76758E-22  7.52952E-22  0.00000E+00  1.0E-05
   6.00000E+06  7.23436E-18  2.01963E-22  5.51652E-22  0.00000E+00  1.0E-05
   7.00000E+06  7.22121E-18  1.54197E-22  4.22662E-22  0.00000E+00  1.0E-05
   8.00000E+06  7.21380E-18  1.21739E-22  3.34755E-22  0.00000E+00  1.0E-05
   9.00000E+06  7.20813E-18  9.86350E-23  2.72020E-22  0.00000E+00  1.0E-05
   1.00000E+07  7.20305E-18  8.15815E-23  2.25608E-22  0.00000E+00  1.0E-05
   1.25000E+07  7.19748E-18  5.43210E-23  1.51169E-22  0.00000E+00  1.0E-05
   1.50000E+07  7.19439E-18  3.87805E-23  1.08538E-22  0.00000E+00  1.0E-05
   1.75000E+07  7.19256E-18  2.90707E-23  8.17894E-23  0.00000E+00  1.0E-05
   2.00000E+07  7.19119E-18  2.25949E-23  6.38796E-23  0.00000E+00  1.0E-05
   2.50000E+07  7.18900E-18  1.47583E-23  4.20890E-23  0.00000E+00  1.0E-05
   3.00000E+07  7.18831E-18  1.03780E-23  2.98186E-23  0.00000E+00  1.0E-05
   3.50000E+07  7.18519E-18  7.68593E-24  2.22236E-23  0.00000E+00  1.0E-05
   4.00000E+07  7.18337E-18  5.91610E-24  1.71971E-23  0.00000E+00  1.0E-05
   4.50000E+07  7.18493E-18  4.69164E-24  1.36979E-23  0.00000E+00  1.0E-05
   5.00000E+07  7.17951E-18  3.81018E-24  1.11648E-23  0.00000E+00  1.0E-05
   6.00000E+07  7.17975E-18  2.65497E-24  7.82255E-24  0.00000E+00  1.0E-05
   7.00000E+07  7.18310E-18  1.95450E-24  5.78069E-24  0.00000E+00  1.0E-05
   8.00000E+07  7.18261E-18  1.49820E-24  4.44326E-24  0.00000E+00  1.0E-05
   9.00000E+07  7.18236E-18  1.18464E-24  3.52048E-24  0.00000E+00  1.0E-05
   1.00000E+08  7.18324E-18  9.60018E-25  2.85738E-24  0.00000E+00  1.0E-05
   1.25000E+08  7.18293E-18  6.14702E-25  1.83429E-24  0.00000E+00  1.0E-05
   1.50000E+08  7.18362E-18  4.26912E-25  1.27583E-24  0.00000E+00  1.0E-05
   1.75000E+08  7.18408E-18  3.13626E-25  9.38168E-25  0.00000E+00  1.0E-05
   2.00000E+08  7.18467E-18  2.40083E-25  7.18634E-25  0.00000E+00  1.0E-05
   2.50000E+08  7.18465E-18  1.53592E-25  4.60101E-25  0.00000E+00  3.5E-05
   3.00000E+08  7.18346E-18  1.06618E-25  3.19525E-25  0.00000E+00  1.0E-04
   3.50000E+08  7.18117E-18  7.82999E-26  2.34720E-25  0.00000E+00  9.3E-05
   4.00000E+08  7.17870E-18  5.99271E-26  1.79675E-25  0.00000E+00  9.3E-05
   4.50000E+08  7.17830E-18  4.73335E-26  1.41934E-25  0.00000E+00  1.0E+00
   5.00000E+08  7.17156E-18  3.83280E-26  1.14940E-25  0.00000E+00  1.0E+00
   6.00000E+08  7.16561E-18  2.66018E-26  7.97842E-26  0.00000E+00  1.0E+00
   7.00000E+08  7.15970E-18  1.95351E-26  5.85939E-26  0.00000E+00  1.0E+00
   8.00000E+08  7.14535E-18  1.49501E-26  4.48435E-26  0.00000E+00  1.0E+00
   9.00000E+08  7.12708E-18  1.18083E-26  3.54206E-26  0.00000E+00  1.0E+00
   1.00000E+09  7.10494E-18  9.56227E-27  2.86840E-26  0.00000E+00  1.0E+00
