 #
 # Subroutine ELSEPA. Elastic scattering of electrons and positrons
 #                    by neutral atoms and positive ions
 #
 # Projectile: electron
 # Kinetic energy = 1.25000E+06 eV = 4.59367E+04 a.u.
 #
 # WARNING: High-energy factorization with free-atom DF screening.
 #          Absorption, polarization and exchange corrections are
 #          switched off.
 #          Phase shifts are calculated for the bare nucleus.
 #          Scattering amplitudes are not evaluated.
 #
 # Element: Cr,  Z =  24,  atomic weight = 5.19961E+01 g/mol
 #
 # Nuclear model: Fermi distribution
 #                Average radius = 3.99369E-13 cm
 #                Skin thickness = 5.46000E-14 cm
 #
 # Number of electrons = 24
 #
 # Total elastic cross section = 1.95907E-18 cm**2 = 6.99597E-02 a0**2
 # 1st transport cross section = 2.79182E-22 cm**2 = 9.96975E-06 a0**2
 # 2nd transport cross section = 7.80117E-22 cm**2 = 2.78585E-05 a0**2
 #
 #
 # Differential cross section:                       MU=(1-COS(THETA))/2
 #
 #  THETA        MU          DCS          DCS        Sherman      error
 #  (deg)                 (cm**2/sr)   (a0**2/sr)    function
 #----------------------------------------------------------------------
0.00000E+00 5.73285E-14
7.61557E-13 5.73284E-14
1.18994E-12 5.73284E-14
1.71346E-12 5.73284E-14
2.33225E-12 5.73283E-14
3.04617E-12 5.73283E-14
3.85530E-12 5.73282E-14
4.75964E-12 5.73282E-14
5.75917E-12 5.73281E-14
6.85391E-12 5.73280E-14
8.04379E-12 5.73279E-14
9.32893E-12 5.73278E-14
1.07092E-11 5.73277E-14
1.21847E-11 5.73276E-14
1.37554E-11 5.73275E-14
1.54213E-11 5.73274E-14
1.71823E-11 5.73273E-14
1.90386E-11 5.73272E-14
2.09900E-11 5.73270E-14
2.30367E-11 5.73269E-14
2.51785E-11 5.73267E-14
2.74156E-11 5.73266E-14
2.97478E-11 5.73264E-14
3.21752E-11 5.73262E-14
3.46979E-11 5.73260E-14
3.73157E-11 5.73259E-14
4.00286E-11 5.73257E-14
4.28368E-11 5.73255E-14
4.57402E-11 5.73253E-14
4.87388E-11 5.73250E-14
5.18325E-11 5.73248E-14
5.50215E-11 5.73246E-14
5.83057E-11 5.73244E-14
6.16850E-11 5.73241E-14
6.51595E-11 5.73239E-14
6.87293E-11 5.73236E-14
7.23943E-11 5.73233E-14
7.61544E-11 5.73231E-14
1.18991E-10 5.73200E-14
1.71347E-10 5.73162E-14
2.33223E-10 5.73117E-14
3.04617E-10 5.73066E-14
3.85531E-10 5.73007E-14
4.75965E-10 5.72942E-14
5.75917E-10 5.72870E-14
6.85389E-10 5.72790E-14
8.04380E-10 5.72704E-14
9.32891E-10 5.72611E-14
1.07092E-09 5.72511E-14
1.21847E-09 5.72404E-14
1.37554E-09 5.72290E-14
1.54213E-09 5.72170E-14
1.71823E-09 5.72042E-14
1.90386E-09 5.71908E-14
2.09900E-09 5.71767E-14
2.30367E-09 5.71619E-14
2.51785E-09 5.71464E-14
2.74156E-09 5.71302E-14
2.97478E-09 5.71133E-14
3.21752E-09 5.70958E-14
3.46978E-09 5.70776E-14
3.73156E-09 5.70587E-14
4.00286E-09 5.70391E-14
4.28368E-09 5.70189E-14
4.57402E-09 5.69980E-14
4.87388E-09 5.69764E-14
5.18326E-09 5.69541E-14
5.50215E-09 5.69312E-14
5.83057E-09 5.69076E-14
6.16850E-09 5.68833E-14
6.51596E-09 5.68584E-14
6.87293E-09 5.68328E-14
7.23942E-09 5.68065E-14
7.61544E-09 5.67796E-14
1.18991E-08 5.64744E-14
1.71347E-08 5.61051E-14
2.33223E-08 5.56740E-14
3.04617E-08 5.51837E-14
3.85531E-08 5.46369E-14
4.75965E-08 5.40369E-14
5.75917E-08 5.33870E-14
6.85389E-08 5.26907E-14
8.04380E-08 5.19517E-14
9.32891E-08 5.11732E-14
1.07092E-07 5.03602E-14
1.21847E-07 4.95165E-14
1.37554E-07 4.86447E-14
1.54213E-07 4.77496E-14
1.71823E-07 4.68352E-14
1.90386E-07 4.59044E-14
2.09900E-07 4.49606E-14
2.30367E-07 4.40081E-14
2.51785E-07 4.30497E-14
2.74156E-07 4.20875E-14
2.97478E-07 4.11255E-14
3.21752E-07 4.01663E-14
3.46978E-07 3.92110E-14
3.73156E-07 3.82631E-14
4.00286E-07 3.73246E-14
4.28368E-07 3.63963E-14
4.57402E-07 3.54805E-14
4.87388E-07 3.45789E-14
5.18325E-07 3.36922E-14
5.50215E-07 3.28213E-14
5.83057E-07 3.19678E-14
6.16850E-07 3.11322E-14
6.51596E-07 3.03143E-14
6.87293E-07 2.95156E-14
7.23942E-07 2.87365E-14
7.61543E-07 2.79759E-14
1.18991E-06 2.14328E-14
1.71347E-06 1.66041E-14
2.33223E-06 1.30679E-14
3.04617E-06 1.04432E-14
3.85531E-06 8.45422E-15
4.75964E-06 6.91526E-15
5.75916E-06 5.70280E-15
6.85388E-06 4.73361E-15
8.04378E-06 3.95007E-15
9.32888E-06 3.26759E-15
1.07092E-05 2.74627E-15
1.21846E-05 2.34276E-15
1.37553E-05 1.97999E-15
1.54212E-05 1.67908E-15
1.71822E-05 1.44004E-15
1.90385E-05 1.23582E-15
2.09899E-05 1.05878E-15
2.30365E-05 9.14910E-16
2.51783E-05 7.94828E-16
2.74153E-05 6.88665E-16
2.97475E-05 6.00683E-16
3.21749E-05 5.27236E-16
3.46974E-05 4.62419E-16
3.73152E-05 4.07626E-16
4.00281E-05 3.61151E-16
4.28362E-05 3.20699E-16
4.57395E-05 2.85725E-16
4.87380E-05 2.55624E-16
5.18317E-05 2.29411E-16
5.50205E-05 2.06440E-16
5.83045E-05 1.86420E-16
6.16838E-05 1.68873E-16
6.51582E-05 1.53337E-16
6.87277E-05 1.39649E-16
7.23925E-05 1.27549E-16
7.61524E-05 1.16732E-16
9.21439E-05 8.38208E-17
1.09658E-04 6.20739E-17
1.28695E-04 4.71276E-17
1.49255E-04 3.64772E-17
1.71338E-04 2.86974E-17
1.94942E-04 2.28881E-17
2.20070E-04 1.84668E-17
2.46720E-04 1.50461E-17
2.74892E-04 1.23671E-17
3.04586E-04 1.02494E-17
3.35803E-04 8.55827E-18
3.68542E-04 7.19546E-18
4.02802E-04 6.08706E-18
4.38585E-04 5.18087E-18
4.75889E-04 4.43498E-18
5.14715E-04 3.81710E-18
5.55063E-04 3.30190E-18
5.96931E-04 2.87010E-18
6.40321E-04 2.50626E-18
6.85233E-04 2.19807E-18
7.31665E-04 1.93566E-18
7.79618E-04 1.71118E-18
8.29092E-04 1.51818E-18
8.80086E-04 1.35166E-18
9.32601E-04 1.20765E-18
9.86636E-04 1.08248E-18
1.04219E-03 9.72940E-19
1.09927E-03 8.77086E-19
1.15786E-03 7.92911E-19
1.21797E-03 7.18500E-19
1.27961E-03 6.52712E-19
1.34276E-03 5.94388E-19
1.40743E-03 5.42428E-19
1.47362E-03 4.96055E-19
1.54133E-03 4.54604E-19
1.61056E-03 4.17412E-19
1.68131E-03 3.83941E-19
1.75357E-03 3.53806E-19
1.82735E-03 3.26603E-19
1.90265E-03 3.01942E-19
1.97947E-03 2.79598E-19
2.05780E-03 2.59314E-19
2.13765E-03 2.40815E-19
2.21902E-03 2.23954E-19
2.30190E-03 2.08565E-19
2.38630E-03 1.94468E-19
2.47222E-03 1.81544E-19
2.55965E-03 1.69693E-19
2.64859E-03 1.58795E-19
2.73905E-03 1.48751E-19
2.83103E-03 1.39501E-19
2.92452E-03 1.30966E-19
3.01952E-03 1.23063E-19
3.11604E-03 1.15754E-19
3.21407E-03 1.08989E-19
3.31362E-03 1.02702E-19
3.41468E-03 9.68652E-20
3.51725E-03 9.14432E-20
3.62133E-03 8.63924E-20
3.72692E-03 8.16847E-20
3.83403E-03 7.72976E-20
3.94265E-03 7.32017E-20
4.05278E-03 6.93701E-20
4.16442E-03 6.57892E-20
4.27757E-03 6.24390E-20
4.39223E-03 5.92947E-20
4.50840E-03 5.63483E-20
4.62608E-03 5.35850E-20
4.74527E-03 5.09863E-20
4.86597E-03 4.85439E-20
4.98817E-03 4.62478E-20
5.11188E-03 4.40850E-20
5.23711E-03 4.20466E-20
5.36383E-03 4.01261E-20
5.49207E-03 3.83142E-20
5.62181E-03 3.66021E-20
5.75306E-03 3.49856E-20
5.88581E-03 3.34583E-20
6.02007E-03 3.20118E-20
6.15583E-03 3.06434E-20
6.29310E-03 2.93481E-20
6.43187E-03 2.81198E-20
6.57214E-03 2.69551E-20
6.71392E-03 2.58508E-20
6.85720E-03 2.48022E-20
7.00198E-03 2.38060E-20
7.14827E-03 2.28598E-20
7.29605E-03 2.19603E-20
7.44534E-03 2.11041E-20
7.59612E-03 2.02896E-20
7.97965E-03 1.84190E-20
8.37255E-03 1.67595E-20
8.77480E-03 1.52830E-20
9.18641E-03 1.39655E-20
9.60736E-03 1.27873E-20
1.00376E-02 1.17311E-20
1.04773E-02 1.07819E-20
1.09262E-02 9.92680E-21
1.13844E-02 9.15502E-21
1.18520E-02 8.45700E-21
1.23288E-02 7.82441E-21
1.28150E-02 7.24996E-21
1.33104E-02 6.72738E-21
1.38150E-02 6.25118E-21
1.43290E-02 5.81649E-21
1.48521E-02 5.41903E-21
1.53845E-02 5.05501E-21
1.59262E-02 4.72114E-21
1.64770E-02 4.41447E-21
1.70371E-02 4.13237E-21
1.76063E-02 3.87250E-21
1.81848E-02 3.63281E-21
1.87724E-02 3.41144E-21
1.93692E-02 3.20673E-21
1.99751E-02 3.01719E-21
2.05901E-02 2.84149E-21
2.12143E-02 2.67845E-21
2.18476E-02 2.52697E-21
2.24900E-02 2.38609E-21
2.31415E-02 2.25491E-21
2.38021E-02 2.13267E-21
2.44717E-02 2.01863E-21
2.51504E-02 1.91213E-21
2.58382E-02 1.81259E-21
2.65349E-02 1.71947E-21
2.72407E-02 1.63227E-21
2.79555E-02 1.55055E-21
2.86793E-02 1.47390E-21
2.94120E-02 1.40195E-21
3.01537E-02 1.33435E-21
3.09043E-02 1.27079E-21
3.16639E-02 1.21099E-21
3.24324E-02 1.15467E-21
3.32098E-02 1.10161E-21
3.39961E-02 1.05157E-21
3.47912E-02 1.00434E-21
3.55952E-02 9.59753E-22
3.64081E-02 9.17620E-22
3.72297E-02 8.77782E-22
3.80602E-02 8.40091E-22
3.88995E-02 8.04408E-22
3.97476E-02 7.70608E-22
4.06044E-02 7.38571E-22
4.14700E-02 7.08187E-22
4.23443E-02 6.79356E-22
4.32273E-02 6.51982E-22
4.41190E-02 6.25979E-22
4.50194E-02 6.01263E-22
4.59284E-02 5.77760E-22
4.68461E-02 5.55398E-22
4.87074E-02 5.13838E-22
5.06030E-02 4.76106E-22
5.25328E-02 4.41786E-22
5.44967E-02 4.10513E-22
5.64946E-02 3.81967E-22
5.85262E-02 3.55866E-22
6.05914E-02 3.31964E-22
6.26901E-02 3.10040E-22
6.48222E-02 2.89901E-22
6.69873E-02 2.71375E-22
6.91854E-02 2.54309E-22
7.14163E-02 2.38567E-22
7.36799E-02 2.24026E-22
7.59760E-02 2.10578E-22
7.83043E-02 1.98126E-22
8.06647E-02 1.86582E-22
8.30571E-02 1.75868E-22
8.54812E-02 1.65913E-22
8.79369E-02 1.56653E-22
9.04240E-02 1.48030E-22
9.29422E-02 1.39993E-22
9.54915E-02 1.32494E-22
9.80716E-02 1.25491E-22
1.00682E-01 1.18944E-22
1.03323E-01 1.12818E-22
1.05995E-01 1.07081E-22
1.08696E-01 1.01704E-22
1.11427E-01 9.66596E-23
1.14188E-01 9.19237E-23
1.16978E-01 8.74737E-23
1.19797E-01 8.32892E-23
1.22645E-01 7.93513E-23
1.25522E-01 7.56427E-23
1.28428E-01 7.21476E-23
1.31361E-01 6.88513E-23
1.34323E-01 6.57405E-23
1.37313E-01 6.28026E-23
1.40330E-01 6.00262E-23
1.43375E-01 5.74009E-23
1.46447E-01 5.49167E-23
1.49545E-01 5.25647E-23
1.52671E-01 5.03366E-23
1.55823E-01 4.82245E-23
1.59001E-01 4.62212E-23
1.62205E-01 4.43202E-23
1.65435E-01 4.25151E-23
1.68690E-01 4.08003E-23
1.71970E-01 3.91703E-23
1.75276E-01 3.76202E-23
1.78606E-01 3.61452E-23
1.81961E-01 3.47412E-23
1.85340E-01 3.34039E-23
1.88743E-01 3.21297E-23
1.92169E-01 3.09149E-23
1.95619E-01 2.97564E-23
1.99092E-01 2.86509E-23
2.02589E-01 2.75957E-23
2.06107E-01 2.65879E-23
2.09649E-01 2.56251E-23
2.13212E-01 2.47048E-23
2.16797E-01 2.38249E-23
2.20404E-01 2.29832E-23
2.24032E-01 2.21777E-23
2.27680E-01 2.14066E-23
2.31350E-01 2.06681E-23
2.35040E-01 1.99607E-23
2.38751E-01 1.92827E-23
2.42481E-01 1.86327E-23
2.46231E-01 1.80093E-23
2.50000E-01 1.74112E-23
2.53788E-01 1.68373E-23
2.57595E-01 1.62862E-23
2.61421E-01 1.57571E-23
2.65264E-01 1.52487E-23
2.69126E-01 1.47602E-23
2.73005E-01 1.42907E-23
2.76901E-01 1.38391E-23
2.80814E-01 1.34049E-23
2.84744E-01 1.29870E-23
2.88691E-01 1.25849E-23
2.92653E-01 1.21978E-23
2.96632E-01 1.18250E-23
3.00625E-01 1.14660E-23
3.04634E-01 1.11200E-23
3.08658E-01 1.07866E-23
3.12697E-01 1.04652E-23
3.16749E-01 1.01553E-23
3.20816E-01 9.85636E-24
3.24896E-01 9.56799E-24
3.28990E-01 9.28972E-24
3.33097E-01 9.02112E-24
3.37216E-01 8.76181E-24
3.41348E-01 8.51139E-24
3.45492E-01 8.26951E-24
3.49647E-01 8.03582E-24
3.53814E-01 7.80999E-24
3.57992E-01 7.59171E-24
3.62181E-01 7.38069E-24
3.66381E-01 7.17662E-24
3.70590E-01 6.97925E-24
3.74810E-01 6.78832E-24
3.79039E-01 6.60356E-24
3.83277E-01 6.42475E-24
3.87524E-01 6.25167E-24
3.91780E-01 6.08408E-24
3.96044E-01 5.92180E-24
4.00316E-01 5.76461E-24
4.04596E-01 5.61233E-24
4.08882E-01 5.46477E-24
4.13176E-01 5.32178E-24
4.17476E-01 5.18317E-24
4.21783E-01 5.04878E-24
4.26095E-01 4.91848E-24
4.30413E-01 4.79210E-24
4.34737E-01 4.66952E-24
4.39065E-01 4.55059E-24
4.43398E-01 4.43519E-24
4.47736E-01 4.32319E-24
4.52077E-01 4.21447E-24
4.56422E-01 4.10893E-24
4.60770E-01 4.00645E-24
4.65122E-01 3.90693E-24
4.69476E-01 3.81027E-24
4.73832E-01 3.71637E-24
4.78190E-01 3.62513E-24
4.82550E-01 3.53648E-24
4.86912E-01 3.45031E-24
4.91274E-01 3.36656E-24
4.95637E-01 3.28514E-24
5.00000E-01 3.20597E-24
5.04363E-01 3.12899E-24
5.08726E-01 3.05411E-24
5.13088E-01 2.98128E-24
5.17450E-01 2.91043E-24
5.21810E-01 2.84149E-24
5.26168E-01 2.77440E-24
5.30524E-01 2.70911E-24
5.34878E-01 2.64556E-24
5.39230E-01 2.58369E-24
5.43578E-01 2.52346E-24
5.47923E-01 2.46481E-24
5.52264E-01 2.40769E-24
5.56602E-01 2.35206E-24
5.60935E-01 2.29787E-24
5.65263E-01 2.24508E-24
5.69587E-01 2.19364E-24
5.73905E-01 2.14352E-24
5.78217E-01 2.09467E-24
5.82524E-01 2.04707E-24
5.86824E-01 2.00066E-24
5.91118E-01 1.95542E-24
5.95404E-01 1.91132E-24
5.99684E-01 1.86831E-24
6.03956E-01 1.82637E-24
6.08220E-01 1.78547E-24
6.12476E-01 1.74557E-24
6.16723E-01 1.70665E-24
6.20961E-01 1.66868E-24
6.25190E-01 1.63164E-24
6.29410E-01 1.59550E-24
6.33619E-01 1.56022E-24
6.37819E-01 1.52580E-24
6.42008E-01 1.49220E-24
6.46186E-01 1.45940E-24
6.50353E-01 1.42739E-24
6.54508E-01 1.39613E-24
6.58652E-01 1.36561E-24
6.62784E-01 1.33580E-24
6.66903E-01 1.30670E-24
6.71010E-01 1.27828E-24
6.75104E-01 1.25052E-24
6.79184E-01 1.22340E-24
6.83251E-01 1.19691E-24
6.87303E-01 1.17103E-24
6.91342E-01 1.14574E-24
6.95366E-01 1.12104E-24
6.99375E-01 1.09690E-24
7.03368E-01 1.07331E-24
7.07347E-01 1.05025E-24
7.11309E-01 1.02771E-24
7.15256E-01 1.00569E-24
7.19186E-01 9.84157E-25
7.23099E-01 9.63109E-25
7.26995E-01 9.42532E-25
7.30874E-01 9.22413E-25
7.34736E-01 9.02743E-25
7.38579E-01 8.83509E-25
7.42405E-01 8.64700E-25
7.46212E-01 8.46307E-25
7.50000E-01 8.28319E-25
7.53769E-01 8.10726E-25
7.57519E-01 7.93519E-25
7.61249E-01 7.76688E-25
7.64960E-01 7.60224E-25
7.68650E-01 7.44119E-25
7.72320E-01 7.28363E-25
7.75968E-01 7.12950E-25
7.79596E-01 6.97870E-25
7.83203E-01 6.83116E-25
7.86788E-01 6.68680E-25
7.90351E-01 6.54555E-25
7.93893E-01 6.40733E-25
7.97411E-01 6.27209E-25
8.00908E-01 6.13974E-25
8.04381E-01 6.01022E-25
8.07831E-01 5.88347E-25
8.11257E-01 5.75943E-25
8.14660E-01 5.63803E-25
8.18039E-01 5.51922E-25
8.21394E-01 5.40294E-25
8.24724E-01 5.28913E-25
8.28030E-01 5.17774E-25
8.31310E-01 5.06871E-25
8.34565E-01 4.96200E-25
8.37795E-01 4.85755E-25
8.40999E-01 4.75532E-25
8.44177E-01 4.65526E-25
8.47329E-01 4.55732E-25
8.50455E-01 4.46145E-25
8.53553E-01 4.36762E-25
8.56625E-01 4.27578E-25
8.59670E-01 4.18589E-25
8.62687E-01 4.09790E-25
8.65677E-01 4.01179E-25
8.68639E-01 3.92751E-25
8.71572E-01 3.84502E-25
8.74478E-01 3.76430E-25
8.77355E-01 3.68529E-25
8.80203E-01 3.60798E-25
8.83022E-01 3.53231E-25
8.85812E-01 3.45828E-25
8.88573E-01 3.38583E-25
8.91304E-01 3.31495E-25
8.94005E-01 3.24559E-25
8.96677E-01 3.17774E-25
8.99318E-01 3.11135E-25
9.01928E-01 3.04642E-25
9.04508E-01 2.98290E-25
9.07058E-01 2.92078E-25
9.09576E-01 2.86002E-25
9.12063E-01 2.80060E-25
9.14519E-01 2.74250E-25
9.16943E-01 2.68569E-25
9.19335E-01 2.63015E-25
9.21696E-01 2.57587E-25
9.24024E-01 2.52281E-25
9.26320E-01 2.47095E-25
9.28584E-01 2.42028E-25
9.30815E-01 2.37077E-25
9.33013E-01 2.32241E-25
9.35178E-01 2.27518E-25
9.37310E-01 2.22905E-25
9.39409E-01 2.18402E-25
9.41474E-01 2.14005E-25
9.43505E-01 2.09714E-25
9.45503E-01 2.05528E-25
9.47467E-01 2.01443E-25
9.49397E-01 1.97459E-25
9.51293E-01 1.93574E-25
9.53154E-01 1.89787E-25
9.54981E-01 1.86097E-25
9.56773E-01 1.82501E-25
9.58530E-01 1.78999E-25
9.60252E-01 1.75589E-25
9.61940E-01 1.72270E-25
9.63592E-01 1.69040E-25
9.65209E-01 1.65900E-25
9.66790E-01 1.62846E-25
9.68336E-01 1.59879E-25
9.69846E-01 1.56997E-25
9.71321E-01 1.54199E-25
9.72759E-01 1.51484E-25
9.74162E-01 1.48852E-25
9.75528E-01 1.46300E-25
9.76858E-01 1.43829E-25
9.78152E-01 1.41437E-25
9.79410E-01 1.39123E-25
9.80631E-01 1.36887E-25
9.81815E-01 1.34728E-25
9.82963E-01 1.32644E-25
9.84074E-01 1.30636E-25
9.85148E-01 1.28703E-25
9.86185E-01 1.26843E-25
9.87185E-01 1.25057E-25
9.88148E-01 1.23343E-25
9.89074E-01 1.21701E-25
9.89962E-01 1.20131E-25
9.90814E-01 1.18631E-25
9.91627E-01 1.17202E-25
9.92404E-01 1.15842E-25
9.93143E-01 1.14552E-25
9.93844E-01 1.13330E-25
9.94508E-01 1.12177E-25
9.95134E-01 1.11092E-25
9.95722E-01 1.10075E-25
9.96273E-01 1.09125E-25
9.96786E-01 1.08242E-25
9.97261E-01 1.07425E-25
9.97698E-01 1.06675E-25
9.98097E-01 1.05991E-25
9.98459E-01 1.05373E-25
9.98782E-01 1.04821E-25
9.99067E-01 1.04333E-25
9.99315E-01 1.03912E-25
9.99524E-01 1.03555E-25
9.99695E-01 1.03263E-25
9.99829E-01 1.03037E-25
9.99924E-01 1.02875E-25
9.99981E-01 1.02778E-25
1.00000E+00 1.02745E-25
