 #
 # Subroutine ELSEPA. Elastic scattering of electrons and positrons
 #                    by neutral atoms and positive ions
 #
 # Projectile: electron
 # Kinetic energy = 8.00000E+08 eV = 2.93995E+07 a.u.
 #
 # WARNING: High-energy factorization with free-atom DF screening.
 #          Absorption, polarization and exchange corrections are
 #          switched off.
 #          Phase shifts are calculated for the bare nucleus.
 #          Scattering amplitudes are not evaluated.
 #
 # Element: Cr,  Z =  24,  atomic weight = 5.19961E+01 g/mol
 #
 # Nuclear model: Fermi distribution
 #                Average radius = 3.99369E-13 cm
 #                Skin thickness = 5.46000E-14 cm
 #
 # Number of electrons = 24
 #
 # Total elastic cross section = 1.78155E-18 cm**2 = 6.36201E-02 a0**2
 # 1st transport cross section = 1.88020E-27 cm**2 = 6.71432E-11 a0**2
 # 2nd transport cross section = 5.63949E-27 cm**2 = 2.01390E-10 a0**2
 #
 #
 # Differential cross section:                       MU=(1-COS(THETA))/2
 #
 #  THETA        MU          DCS          DCS        Sherman      error
 #  (deg)                 (cm**2/sr)   (a0**2/sr)    function
 #----------------------------------------------------------------------
0.00000E+00 1.18464E-08
7.61557E-13 9.67604E-09
1.18994E-12 8.74440E-09
1.71346E-12 7.80705E-09
2.33225E-12 6.91431E-09
3.04617E-12 6.09656E-09
3.85530E-12 5.36734E-09
4.75964E-12 4.72818E-09
5.75917E-12 4.17424E-09
6.85391E-12 3.69597E-09
8.04379E-12 3.28452E-09
9.32893E-12 2.92897E-09
1.07092E-11 2.62184E-09
1.21847E-11 2.35454E-09
1.37554E-11 2.12145E-09
1.54213E-11 1.91678E-09
1.71823E-11 1.73637E-09
1.90386E-11 1.57666E-09
2.09900E-11 1.43444E-09
2.30367E-11 1.30770E-09
2.51785E-11 1.19382E-09
2.74156E-11 1.09183E-09
2.97478E-11 9.99513E-10
3.21752E-11 9.16424E-10
3.46979E-11 8.40957E-10
3.73157E-11 7.68877E-10
4.00286E-11 7.02649E-10
4.28368E-11 6.44560E-10
4.57402E-11 5.93414E-10
4.87388E-11 5.48215E-10
5.18325E-11 5.08129E-10
5.50215E-11 4.72455E-10
5.83057E-11 4.35811E-10
6.16850E-11 4.01503E-10
6.51595E-11 3.70914E-10
6.87293E-11 3.43558E-10
7.23943E-11 3.19026E-10
7.61544E-11 2.96967E-10
1.18991E-10 1.47015E-10
1.71347E-10 7.89979E-11
2.33223E-10 4.59904E-11
3.04617E-10 2.87408E-11
3.85531E-10 1.90560E-11
4.75965E-10 1.32303E-11
5.75917E-10 9.52529E-12
6.85389E-10 7.04521E-12
8.04380E-10 5.32988E-12
9.32891E-10 4.10105E-12
1.07092E-09 3.20413E-12
1.21847E-09 2.53494E-12
1.37554E-09 2.02901E-12
1.54213E-09 1.64071E-12
1.71823E-09 1.33926E-12
1.90386E-09 1.10280E-12
2.09900E-09 9.15432E-13
2.30367E-09 7.65788E-13
2.51785E-09 6.45146E-13
2.74156E-09 5.47220E-13
2.97478E-09 4.67034E-13
3.21752E-09 4.00974E-13
3.46978E-09 3.46146E-13
3.73156E-09 3.00328E-13
4.00286E-09 2.61874E-13
4.28368E-09 2.29453E-13
4.57402E-09 2.01857E-13
4.87388E-09 1.78317E-13
5.18326E-09 1.58144E-13
5.50215E-09 1.40724E-13
5.83057E-09 1.25665E-13
6.16850E-09 1.12579E-13
6.51596E-09 1.01152E-13
6.87293E-09 9.11560E-14
7.23942E-09 8.23642E-14
7.61544E-09 7.46110E-14
1.18991E-08 3.12129E-14
1.71347E-08 1.52848E-14
2.33223E-08 8.33830E-15
3.04617E-08 4.92368E-15
3.85531E-08 3.08940E-15
4.75965E-08 2.03414E-15
5.75917E-08 1.39288E-15
6.85389E-08 9.85278E-16
8.04380E-08 7.16314E-16
9.32891E-08 5.33106E-16
1.07092E-07 4.04859E-16
1.21847E-07 3.12936E-16
1.37554E-07 2.45670E-16
1.54213E-07 1.95536E-16
1.71823E-07 1.57558E-16
1.90386E-07 1.28366E-16
2.09900E-07 1.05630E-16
2.30367E-07 8.77104E-17
2.51785E-07 7.34340E-17
2.74156E-07 6.19471E-17
2.97478E-07 5.26206E-17
3.21752E-07 4.49847E-17
3.46978E-07 3.86849E-17
3.73156E-07 3.34501E-17
4.00286E-07 2.90715E-17
4.28368E-07 2.53864E-17
4.57402E-07 2.22671E-17
4.87388E-07 1.96125E-17
5.18325E-07 1.73419E-17
5.50215E-07 1.53906E-17
5.83057E-07 1.37061E-17
6.16850E-07 1.22460E-17
6.51596E-07 1.09752E-17
6.87293E-07 9.86500E-18
7.23942E-07 8.89172E-18
7.61543E-07 8.03557E-18
1.18991E-06 3.29209E-18
1.71347E-06 1.58788E-18
2.33223E-06 8.57215E-19
3.04617E-06 5.02547E-19
3.85531E-06 3.13776E-19
4.75964E-06 2.05892E-19
5.75916E-06 1.40643E-19
6.85388E-06 9.93147E-20
8.04378E-06 7.21130E-20
9.32888E-06 5.36196E-20
1.07092E-05 4.06929E-20
1.21846E-05 3.14378E-20
1.37553E-05 2.46708E-20
1.54212E-05 1.96307E-20
1.71822E-05 1.58146E-20
1.90385E-05 1.28819E-20
2.09899E-05 1.06000E-20
2.30365E-05 8.80167E-21
2.51783E-05 7.36883E-21
2.74153E-05 6.21589E-21
2.97475E-05 5.27980E-21
3.21749E-05 4.51349E-21
3.46974E-05 3.88139E-21
3.73152E-05 3.35627E-21
4.00281E-05 2.91710E-21
4.28362E-05 2.54753E-21
4.57395E-05 2.23468E-21
4.87380E-05 1.96841E-21
5.18317E-05 1.74064E-21
5.50205E-05 1.54487E-21
5.83045E-05 1.37586E-21
6.16838E-05 1.22936E-21
6.51582E-05 1.10186E-21
6.87277E-05 9.90489E-22
7.23925E-05 8.92848E-22
7.61524E-05 7.93253E-22
9.21439E-05 5.39767E-22
1.09658E-04 3.79489E-22
1.28695E-04 2.74219E-22
1.49255E-04 2.02806E-22
1.71338E-04 1.53019E-22
1.94942E-04 1.17470E-22
2.20070E-04 9.15578E-23
2.46720E-04 7.23222E-23
2.74892E-04 5.78094E-23
3.04586E-04 4.67017E-23
3.35803E-04 3.80886E-23
3.68542E-04 3.13319E-23
4.02802E-04 2.59750E-23
4.38585E-04 2.16866E-23
4.75889E-04 1.82235E-23
5.14715E-04 1.54040E-23
5.55063E-04 1.30916E-23
5.96931E-04 1.11819E-23
6.40321E-04 9.59487E-24
6.85233E-04 8.26820E-24
7.31665E-04 7.15310E-24
7.79618E-04 6.21108E-24
8.29092E-04 5.41150E-24
8.80086E-04 4.72981E-24
9.32601E-04 4.14622E-24
9.86636E-04 3.64468E-24
1.04219E-03 3.21207E-24
1.09927E-03 2.83764E-24
1.15786E-03 2.51253E-24
1.21797E-03 2.22938E-24
1.27961E-03 1.98206E-24
1.34276E-03 1.76547E-24
1.40743E-03 1.57530E-24
1.47362E-03 1.40792E-24
1.54133E-03 1.26027E-24
1.61056E-03 1.12974E-24
1.68131E-03 1.01411E-24
1.75357E-03 9.11482E-25
1.82735E-03 8.20227E-25
1.90265E-03 7.38943E-25
1.97947E-03 6.66422E-25
2.05780E-03 6.01618E-25
2.13765E-03 5.43624E-25
2.21902E-03 4.91652E-25
2.30190E-03 4.45014E-25
2.38630E-03 4.03111E-25
2.47222E-03 3.65415E-25
2.55965E-03 3.31467E-25
2.64859E-03 3.00861E-25
2.73905E-03 2.73240E-25
2.83103E-03 2.48288E-25
2.92452E-03 2.25728E-25
3.01952E-03 2.05312E-25
3.11604E-03 1.86821E-25
3.21407E-03 1.70062E-25
3.31362E-03 1.54860E-25
3.41468E-03 1.41062E-25
3.51725E-03 1.28530E-25
3.62133E-03 1.17142E-25
3.72692E-03 1.06786E-25
3.83403E-03 9.73648E-26
3.94265E-03 8.87893E-26
4.05278E-03 8.09802E-26
4.16442E-03 7.38659E-26
4.27757E-03 6.73821E-26
4.39223E-03 6.14708E-26
4.50840E-03 5.60797E-26
4.62608E-03 5.11615E-26
4.74527E-03 4.66737E-26
4.86597E-03 4.25775E-26
4.98817E-03 3.88380E-26
5.11188E-03 3.54235E-26
5.23711E-03 3.23053E-26
5.36383E-03 2.94574E-26
5.49207E-03 2.68559E-26
5.62181E-03 2.44795E-26
5.75306E-03 2.23085E-26
5.88581E-03 2.03252E-26
6.02007E-03 1.85133E-26
6.15583E-03 1.68580E-26
6.29310E-03 1.53460E-26
6.43187E-03 1.39648E-26
6.57214E-03 1.27034E-26
6.71392E-03 1.15515E-26
6.85720E-03 1.04996E-26
7.00198E-03 9.53942E-27
7.14827E-03 8.66302E-27
7.29605E-03 7.86328E-27
7.44534E-03 7.13370E-27
7.59612E-03 6.46831E-27
7.97965E-03 5.05092E-27
8.37255E-03 3.92835E-27
8.77480E-03 3.04163E-27
9.18641E-03 2.34339E-27
9.60736E-03 1.79556E-27
1.00376E-02 1.36753E-27
1.04773E-02 1.03469E-27
1.09262E-02 7.77287E-28
1.13844E-02 5.79462E-28
1.18520E-02 4.28505E-28
1.23288E-02 3.14252E-28
1.28150E-02 2.28590E-28
1.33104E-02 1.65063E-28
1.38150E-02 1.18550E-28
1.43290E-02 8.50068E-29
1.48521E-02 6.12522E-29
1.53845E-02 4.47993E-29
1.59262E-02 3.37158E-29
1.64770E-02 2.65118E-29
1.70371E-02 2.20489E-29
1.76063E-02 1.94667E-29
1.81848E-02 1.81232E-29
1.87724E-02 1.75476E-29
1.93692E-02 1.74011E-29
1.99751E-02 1.74472E-29
2.05901E-02 1.75266E-29
2.12143E-02 1.75381E-29
2.18476E-02 1.74233E-29
2.24900E-02 1.71549E-29
2.31415E-02 1.67270E-29
2.38021E-02 1.61484E-29
2.44717E-02 1.54372E-29
2.51504E-02 1.46164E-29
2.58382E-02 1.37114E-29
2.65349E-02 1.27479E-29
2.72407E-02 1.17501E-29
2.79555E-02 1.07401E-29
2.86793E-02 9.73730E-30
2.94120E-02 8.75812E-30
3.01537E-02 7.81595E-30
3.09043E-02 6.92125E-30
3.16639E-02 6.08178E-30
3.24324E-02 5.30283E-30
3.32098E-02 4.58753E-30
3.39961E-02 3.93716E-30
3.47912E-02 3.35144E-30
3.55952E-02 2.82881E-30
3.64081E-02 2.36675E-30
3.72297E-02 1.96195E-30
3.80602E-02 1.61059E-30
3.88995E-02 1.30850E-30
3.97476E-02 1.05130E-30
4.06044E-02 8.34580E-31
4.14700E-02 6.53971E-31
4.23443E-02 5.05242E-31
4.32273E-02 3.84367E-31
4.41190E-02 2.87569E-31
4.50194E-02 2.11356E-31
4.59284E-02 1.52537E-31
4.68461E-02 1.08233E-31
4.87074E-02 5.31946E-32
5.06030E-02 2.92383E-32
5.25328E-02 2.37109E-32
5.44967E-02 2.76660E-32
5.64946E-02 3.51595E-32
5.85262E-02 4.25620E-32
6.05914E-02 4.79409E-32
6.26901E-02 5.05357E-32
6.48222E-02 5.03379E-32
6.69873E-02 4.77686E-32
6.91854E-02 4.34470E-32
7.14163E-02 3.80325E-32
7.36799E-02 3.21277E-32
7.59760E-02 2.62265E-32
7.83043E-02 2.06945E-32
8.06647E-02 1.57708E-32
8.30571E-02 1.15839E-32
8.54812E-02 8.17213E-33
8.79369E-02 5.50772E-33
9.04240E-02 3.51845E-33
9.29422E-02 2.10685E-33
9.54915E-02 1.16553E-33
9.80716E-02 5.88435E-34
1.00682E-01 2.78555E-34
1.03323E-01 1.52384E-34
1.05995E-01 1.41908E-34
1.08696E-01 1.94712E-34
1.11427E-01 2.72802E-34
1.14188E-01 3.50676E-34
1.16978E-01 4.13025E-34
1.19797E-01 4.52393E-34
1.22645E-01 4.66977E-34
1.25522E-01 4.58722E-34
1.28428E-01 4.31751E-34
1.31361E-01 3.91159E-34
1.34323E-01 3.42141E-34
1.37313E-01 2.89417E-34
1.40330E-01 2.36901E-34
1.43375E-01 1.87558E-34
1.46447E-01 1.43404E-34
1.49545E-01 1.05586E-34
1.52671E-01 7.45310E-35
1.55823E-01 5.00997E-35
1.59001E-01 3.17559E-35
1.62205E-01 1.87134E-35
1.65435E-01 1.00637E-35
1.68690E-01 4.87530E-36
1.71970E-01 2.26735E-36
1.75276E-01 1.45754E-36
1.78606E-01 1.78870E-36
1.81961E-01 2.73825E-36
1.85340E-01 3.91490E-36
1.88743E-01 5.04641E-36
1.92169E-01 5.96227E-36
1.95619E-01 6.57413E-36
1.99092E-01 6.85593E-36
2.02589E-01 6.82557E-36
2.06107E-01 6.52884E-36
2.09649E-01 6.02627E-36
2.13212E-01 5.38293E-36
2.16797E-01 4.66109E-36
2.20404E-01 3.91540E-36
2.24032E-01 3.19017E-36
2.27680E-01 2.51847E-36
2.31350E-01 1.92231E-36
2.35040E-01 1.41379E-36
2.38751E-01 9.96741E-37
2.42481E-01 6.68485E-37
2.46231E-01 4.21728E-37
2.50000E-01 2.46210E-37
2.53788E-01 1.30167E-37
2.57595E-01 6.14865E-38
2.61421E-01 2.85860E-38
2.65264E-01 2.10113E-38
2.69126E-01 2.98033E-38
2.73005E-01 4.76592E-38
2.76901E-01 6.89443E-38
2.80814E-01 8.95953E-38
2.84744E-01 1.06930E-37
2.88691E-01 1.19433E-37
2.92653E-01 1.26514E-37
2.96632E-01 1.28269E-37
3.00625E-01 1.25264E-37
3.04634E-01 1.18349E-37
3.08658E-01 1.08501E-37
3.12697E-01 9.67113E-38
3.16749E-01 8.38995E-38
3.20816E-01 7.08614E-38
3.24896E-01 5.82422E-38
3.28990E-01 4.65272E-38
3.33097E-01 3.60491E-38
3.37216E-01 2.70011E-38
3.41348E-01 1.94575E-38
3.45492E-01 1.33968E-38
3.49647E-01 8.72395E-39
3.53814E-01 1.00000E-45
3.57992E-01 1.00000E-45
3.62181E-01 1.00000E-45
3.66381E-01 1.00000E-45
3.70590E-01 1.00000E-45
3.74810E-01 1.00000E-45
3.79039E-01 1.00000E-45
3.83277E-01 1.00000E-45
3.87524E-01 1.00000E-45
3.91780E-01 1.00000E-45
3.96044E-01 1.00000E-45
4.00316E-01 1.00000E-45
4.04596E-01 1.00000E-45
4.08882E-01 1.00000E-45
4.13176E-01 1.00000E-45
4.17476E-01 1.00000E-45
4.21783E-01 1.00000E-45
4.26095E-01 1.00000E-45
4.30413E-01 1.00000E-45
4.34737E-01 1.00000E-45
4.39065E-01 1.00000E-45
4.43398E-01 1.00000E-45
4.47736E-01 1.00000E-45
4.52077E-01 1.00000E-45
4.56422E-01 1.00000E-45
4.60770E-01 1.00000E-45
4.65122E-01 1.00000E-45
4.69476E-01 1.00000E-45
4.73832E-01 1.00000E-45
4.78190E-01 1.00000E-45
4.82550E-01 1.00000E-45
4.86912E-01 1.00000E-45
4.91274E-01 1.00000E-45
4.95637E-01 1.00000E-45
5.00000E-01 1.00000E-45
5.04363E-01 1.00000E-45
5.08726E-01 1.00000E-45
5.13088E-01 1.00000E-45
5.17450E-01 1.00000E-45
5.21810E-01 1.00000E-45
5.26168E-01 1.00000E-45
5.30524E-01 1.00000E-45
5.34878E-01 1.00000E-45
5.39230E-01 1.00000E-45
5.43578E-01 1.00000E-45
5.47923E-01 1.00000E-45
5.52264E-01 1.00000E-45
5.56602E-01 1.00000E-45
5.60935E-01 1.00000E-45
5.65263E-01 1.00000E-45
5.69587E-01 1.00000E-45
5.73905E-01 1.00000E-45
5.78217E-01 1.00000E-45
5.82524E-01 1.00000E-45
5.86824E-01 1.00000E-45
5.91118E-01 1.00000E-45
5.95404E-01 1.00000E-45
5.99684E-01 1.00000E-45
6.03956E-01 1.00000E-45
6.08220E-01 1.00000E-45
6.12476E-01 1.00000E-45
6.16723E-01 1.00000E-45
6.20961E-01 1.00000E-45
6.25190E-01 1.00000E-45
6.29410E-01 1.00000E-45
6.33619E-01 1.00000E-45
6.37819E-01 1.00000E-45
6.42008E-01 1.00000E-45
6.46186E-01 1.00000E-45
6.50353E-01 1.00000E-45
6.54508E-01 1.00000E-45
6.58652E-01 1.00000E-45
6.62784E-01 1.00000E-45
6.66903E-01 1.00000E-45
6.71010E-01 1.00000E-45
6.75104E-01 1.00000E-45
6.79184E-01 1.00000E-45
6.83251E-01 1.00000E-45
6.87303E-01 1.00000E-45
6.91342E-01 1.00000E-45
6.95366E-01 1.00000E-45
6.99375E-01 1.00000E-45
7.03368E-01 1.00000E-45
7.07347E-01 1.00000E-45
7.11309E-01 1.00000E-45
7.15256E-01 1.00000E-45
7.19186E-01 1.00000E-45
7.23099E-01 1.00000E-45
7.26995E-01 1.00000E-45
7.30874E-01 1.00000E-45
7.34736E-01 1.00000E-45
7.38579E-01 1.00000E-45
7.42405E-01 1.00000E-45
7.46212E-01 1.00000E-45
7.50000E-01 1.00000E-45
7.53769E-01 1.00000E-45
7.57519E-01 1.00000E-45
7.61249E-01 1.00000E-45
7.64960E-01 1.00000E-45
7.68650E-01 1.00000E-45
7.72320E-01 1.00000E-45
7.75968E-01 1.00000E-45
7.79596E-01 1.00000E-45
7.83203E-01 1.00000E-45
7.86788E-01 1.00000E-45
7.90351E-01 1.00000E-45
7.93893E-01 1.00000E-45
7.97411E-01 1.00000E-45
8.00908E-01 1.00000E-45
8.04381E-01 1.00000E-45
8.07831E-01 1.00000E-45
8.11257E-01 1.00000E-45
8.14660E-01 1.00000E-45
8.18039E-01 1.00000E-45
8.21394E-01 1.00000E-45
8.24724E-01 1.00000E-45
8.28030E-01 1.00000E-45
8.31310E-01 1.00000E-45
8.34565E-01 1.00000E-45
8.37795E-01 1.00000E-45
8.40999E-01 1.00000E-45
8.44177E-01 1.00000E-45
8.47329E-01 1.00000E-45
8.50455E-01 1.00000E-45
8.53553E-01 1.00000E-45
8.56625E-01 1.00000E-45
8.59670E-01 1.00000E-45
8.62687E-01 1.00000E-45
8.65677E-01 1.00000E-45
8.68639E-01 1.00000E-45
8.71572E-01 1.00000E-45
8.74478E-01 1.00000E-45
8.77355E-01 1.00000E-45
8.80203E-01 1.00000E-45
8.83022E-01 1.00000E-45
8.85812E-01 1.00000E-45
8.88573E-01 1.00000E-45
8.91304E-01 1.00000E-45
8.94005E-01 1.00000E-45
8.96677E-01 1.00000E-45
8.99318E-01 1.00000E-45
9.01928E-01 1.00000E-45
9.04508E-01 1.00000E-45
9.07058E-01 1.00000E-45
9.09576E-01 1.00000E-45
9.12063E-01 1.00000E-45
9.14519E-01 1.00000E-45
9.16943E-01 1.00000E-45
9.19335E-01 1.00000E-45
9.21696E-01 1.00000E-45
9.24024E-01 1.00000E-45
9.26320E-01 1.00000E-45
9.28584E-01 1.00000E-45
9.30815E-01 1.00000E-45
9.33013E-01 1.00000E-45
9.35178E-01 1.00000E-45
9.37310E-01 1.00000E-45
9.39409E-01 1.00000E-45
9.41474E-01 1.00000E-45
9.43505E-01 1.00000E-45
9.45503E-01 1.00000E-45
9.47467E-01 1.00000E-45
9.49397E-01 1.00000E-45
9.51293E-01 1.00000E-45
9.53154E-01 1.00000E-45
9.54981E-01 1.00000E-45
9.56773E-01 1.00000E-45
9.58530E-01 1.00000E-45
9.60252E-01 1.00000E-45
9.61940E-01 1.00000E-45
9.63592E-01 1.00000E-45
9.65209E-01 1.00000E-45
9.66790E-01 1.00000E-45
9.68336E-01 1.00000E-45
9.69846E-01 1.00000E-45
9.71321E-01 1.00000E-45
9.72759E-01 1.00000E-45
9.74162E-01 1.00000E-45
9.75528E-01 1.00000E-45
9.76858E-01 1.00000E-45
9.78152E-01 1.00000E-45
9.79410E-01 1.00000E-45
9.80631E-01 1.00000E-45
9.81815E-01 1.00000E-45
9.82963E-01 1.00000E-45
9.84074E-01 1.00000E-45
9.85148E-01 1.00000E-45
9.86185E-01 1.00000E-45
9.87185E-01 1.00000E-45
9.88148E-01 1.00000E-45
9.89074E-01 1.00000E-45
9.89962E-01 1.00000E-45
9.90814E-01 1.00000E-45
9.91627E-01 1.00000E-45
9.92404E-01 1.00000E-45
9.93143E-01 1.00000E-45
9.93844E-01 1.00000E-45
9.94508E-01 1.00000E-45
9.95134E-01 1.00000E-45
9.95722E-01 1.00000E-45
9.96273E-01 1.00000E-45
9.96786E-01 1.00000E-45
9.97261E-01 1.00000E-45
9.97698E-01 1.00000E-45
9.98097E-01 1.00000E-45
9.98459E-01 1.00000E-45
9.98782E-01 1.00000E-45
9.99067E-01 1.00000E-45
9.99315E-01 1.00000E-45
9.99524E-01 1.00000E-45
9.99695E-01 1.00000E-45
9.99829E-01 1.00000E-45
9.99924E-01 1.00000E-45
9.99981E-01 1.00000E-45
1.00000E+00 1.00000E-45
