 #
 # Subroutine ELSEPA. Elastic scattering of electrons and positrons
 #                    by neutral atoms and positive ions
 #
 # Projectile: electron
 # Kinetic energy = 2.50000E+07 eV = 9.18733E+05 a.u.
 #
 # WARNING: High-energy factorization with free-atom DF screening.
 #          Absorption, polarization and exchange corrections are
 #          switched off.
 #          Phase shifts are calculated for the bare nucleus.
 #          Scattering amplitudes are not evaluated.
 #
 # Element: Cr,  Z =  24,  atomic weight = 5.19961E+01 g/mol
 #
 # Nuclear model: Fermi distribution
 #                Average radius = 3.99369E-13 cm
 #                Skin thickness = 5.46000E-14 cm
 #
 # Number of electrons = 24
 #
 # Total elastic cross section = 1.79163E-18 cm**2 = 6.39804E-02 a0**2
 # 1st transport cross section = 1.70857E-24 cm**2 = 6.10142E-08 a0**2
 # 2nd transport cross section = 4.93909E-24 cm**2 = 1.76378E-07 a0**2
 #
 #
 # Differential cross section:                       MU=(1-COS(THETA))/2
 #
 #  THETA        MU          DCS          DCS        Sherman      error
 #  (deg)                 (cm**2/sr)   (a0**2/sr)    function
 #----------------------------------------------------------------------
0.00000E+00 1.20311E-11
7.61557E-13 1.20285E-11
1.18994E-12 1.20270E-11
1.71346E-12 1.20251E-11
2.33225E-12 1.20229E-11
3.04617E-12 1.20204E-11
3.85530E-12 1.20176E-11
4.75964E-12 1.20144E-11
5.75917E-12 1.20109E-11
6.85391E-12 1.20071E-11
8.04379E-12 1.20030E-11
9.32893E-12 1.19985E-11
1.07092E-11 1.19937E-11
1.21847E-11 1.19885E-11
1.37554E-11 1.19830E-11
1.54213E-11 1.19772E-11
1.71823E-11 1.19711E-11
1.90386E-11 1.19647E-11
2.09900E-11 1.19579E-11
2.30367E-11 1.19508E-11
2.51785E-11 1.19434E-11
2.74156E-11 1.19356E-11
2.97478E-11 1.19276E-11
3.21752E-11 1.19192E-11
3.46979E-11 1.19105E-11
3.73157E-11 1.19015E-11
4.00286E-11 1.18922E-11
4.28368E-11 1.18825E-11
4.57402E-11 1.18726E-11
4.87388E-11 1.18623E-11
5.18325E-11 1.18517E-11
5.50215E-11 1.18409E-11
5.83057E-11 1.18297E-11
6.16850E-11 1.18182E-11
6.51595E-11 1.18064E-11
6.87293E-11 1.17943E-11
7.23943E-11 1.17819E-11
7.61544E-11 1.17692E-11
1.18991E-10 1.16262E-11
1.71347E-10 1.14555E-11
2.33223E-10 1.12594E-11
3.04617E-10 1.10402E-11
3.85531E-10 1.08007E-11
4.75965E-10 1.05437E-11
5.75917E-10 1.02721E-11
6.85389E-10 9.98834E-12
8.04380E-10 9.69561E-12
9.32891E-10 9.39605E-12
1.07092E-09 9.09258E-12
1.21847E-09 8.78698E-12
1.37554E-09 8.48174E-12
1.54213E-09 8.17836E-12
1.71823E-09 7.87868E-12
1.90386E-09 7.58393E-12
2.09900E-09 7.29537E-12
2.30367E-09 7.01391E-12
2.51785E-09 6.74032E-12
2.74156E-09 6.47524E-12
2.97478E-09 6.21898E-12
3.21752E-09 5.97204E-12
3.46978E-09 5.73427E-12
3.73156E-09 5.50616E-12
4.00286E-09 5.28710E-12
4.28368E-09 5.07765E-12
4.57402E-09 4.87695E-12
4.87388E-09 4.68544E-12
5.18326E-09 4.50227E-12
5.50215E-09 4.32766E-12
5.83057E-09 4.16092E-12
6.16850E-09 4.00197E-12
6.51596E-09 3.85040E-12
6.87293E-09 3.70577E-12
7.23942E-09 3.56808E-12
7.61544E-09 3.43645E-12
1.18991E-08 2.40899E-12
1.71347E-08 1.74366E-12
2.33223E-08 1.29164E-12
3.04617E-08 9.72816E-13
3.85531E-08 7.34511E-13
4.75965E-08 5.62830E-13
5.75917E-08 4.40883E-13
6.85389E-08 3.42875E-13
8.04380E-08 2.72746E-13
9.32891E-08 2.15566E-13
1.07092E-07 1.73719E-13
1.21847E-07 1.39909E-13
1.37554E-07 1.14271E-13
1.54213E-07 9.38292E-14
1.71823E-07 7.78123E-14
1.90386E-07 6.50195E-14
2.09900E-07 5.47662E-14
2.30367E-07 4.64912E-14
2.51785E-07 3.97420E-14
2.74156E-07 3.42179E-14
2.97478E-07 2.96420E-14
3.21752E-07 2.58427E-14
3.46978E-07 2.26476E-14
3.73156E-07 1.99608E-14
4.00286E-07 1.76665E-14
4.28368E-07 1.57144E-14
4.57402E-07 1.40267E-14
4.87388E-07 1.25735E-14
5.18325E-07 1.13049E-14
5.50215E-07 1.01997E-14
5.83057E-07 9.22763E-15
6.16850E-07 8.37131E-15
6.51596E-07 7.61388E-15
6.87293E-07 6.93965E-15
7.23942E-07 6.34087E-15
7.61543E-07 5.80272E-15
1.18991E-06 2.61689E-15
1.71347E-06 1.32986E-15
2.33223E-06 7.38281E-16
3.04617E-06 4.40247E-16
3.85531E-06 2.78147E-16
4.75964E-06 1.84371E-16
5.75916E-06 1.27087E-16
6.85388E-06 9.04975E-17
8.04378E-06 6.62175E-17
9.32888E-06 4.95848E-17
1.07092E-05 3.78749E-17
1.21846E-05 2.94330E-17
1.37553E-05 2.32203E-17
1.54212E-05 1.85647E-17
1.71822E-05 1.50190E-17
1.90385E-05 1.22794E-17
2.09899E-05 1.01378E-17
2.30365E-05 8.44276E-18
2.51783E-05 7.08693E-18
2.74153E-05 5.99207E-18
2.97475E-05 5.10022E-18
3.21749E-05 4.36792E-18
3.46974E-05 3.76231E-18
3.73152E-05 3.25803E-18
4.00281E-05 2.83541E-18
4.28362E-05 2.47907E-18
4.57395E-05 2.17690E-18
4.87380E-05 1.91930E-18
5.18317E-05 1.69862E-18
5.50205E-05 1.50872E-18
5.83045E-05 1.34459E-18
6.16838E-05 1.20216E-18
6.51582E-05 1.07809E-18
6.87277E-05 9.69605E-19
7.23925E-05 8.74425E-19
7.61524E-05 7.90634E-19
9.21439E-05 5.40984E-19
1.09658E-04 3.82501E-19
1.28695E-04 2.78026E-19
1.49255E-04 2.06899E-19
1.71338E-04 1.57135E-19
1.94942E-04 1.21473E-19
2.20070E-04 9.53805E-20
2.46720E-04 7.59348E-20
2.74892E-04 6.12031E-20
3.04586E-04 4.98787E-20
3.35803E-04 4.10576E-20
3.68542E-04 3.41043E-20
4.02802E-04 2.85635E-20
4.38585E-04 2.41043E-20
4.75889E-04 2.04830E-20
5.14715E-04 1.75174E-20
5.55063E-04 1.50701E-20
5.96931E-04 1.30360E-20
6.40321E-04 1.13341E-20
6.85233E-04 9.90132E-21
7.31665E-04 8.68820E-21
7.79618E-04 7.65552E-21
8.29092E-04 6.77196E-21
8.80086E-04 6.01243E-21
9.32601E-04 5.35658E-21
9.86636E-04 4.78787E-21
1.04219E-03 4.29277E-21
1.09927E-03 3.86012E-21
1.15786E-03 3.48070E-21
1.21797E-03 3.14684E-21
1.27961E-03 2.85212E-21
1.34276E-03 2.59116E-21
1.40743E-03 2.35941E-21
1.47362E-03 2.15304E-21
1.54133E-03 1.96879E-21
1.61056E-03 1.80386E-21
1.68131E-03 1.65587E-21
1.75357E-03 1.52278E-21
1.82735E-03 1.40282E-21
1.90265E-03 1.29446E-21
1.97947E-03 1.19638E-21
2.05780E-03 1.10743E-21
2.13765E-03 1.02661E-21
2.21902E-03 9.53048E-22
2.30190E-03 8.85968E-22
2.38630E-03 8.24698E-22
2.47222E-03 7.68645E-22
2.55965E-03 7.17283E-22
2.64859E-03 6.70148E-22
2.73905E-03 6.26830E-22
2.83103E-03 5.86963E-22
2.92452E-03 5.50222E-22
3.01952E-03 5.16317E-22
3.11604E-03 4.84989E-22
3.21407E-03 4.56007E-22
3.31362E-03 4.29162E-22
3.41468E-03 4.04268E-22
3.51725E-03 3.81157E-22
3.62133E-03 3.59677E-22
3.72692E-03 3.39693E-22
3.83403E-03 3.21081E-22
3.94265E-03 3.03729E-22
4.05278E-03 2.87536E-22
4.16442E-03 2.72411E-22
4.27757E-03 2.58269E-22
4.39223E-03 2.45035E-22
4.50840E-03 2.32640E-22
4.62608E-03 2.21021E-22
4.74527E-03 2.10120E-22
4.86597E-03 1.99885E-22
4.98817E-03 1.90266E-22
5.11188E-03 1.81221E-22
5.23711E-03 1.72708E-22
5.36383E-03 1.64690E-22
5.49207E-03 1.57134E-22
5.62181E-03 1.50006E-22
5.75306E-03 1.43280E-22
5.88581E-03 1.36927E-22
6.02007E-03 1.30923E-22
6.15583E-03 1.25246E-22
6.29310E-03 1.19874E-22
6.43187E-03 1.14787E-22
6.57214E-03 1.09968E-22
6.71392E-03 1.05400E-22
6.85720E-03 1.01067E-22
7.00198E-03 9.69554E-23
7.14827E-03 9.30511E-23
7.29605E-03 8.93419E-23
7.44534E-03 8.58162E-23
7.59612E-03 8.24630E-23
7.97965E-03 7.47712E-23
8.37255E-03 6.79578E-23
8.77480E-03 6.19048E-23
9.18641E-03 5.65126E-23
9.60736E-03 5.16963E-23
1.00376E-02 4.73834E-23
1.04773E-02 4.35122E-23
1.09262E-02 4.00292E-23
1.13844E-02 3.68887E-23
1.18520E-02 3.40509E-23
1.23288E-02 3.14814E-23
1.28150E-02 2.91503E-23
1.33104E-02 2.70315E-23
1.38150E-02 2.51021E-23
1.43290E-02 2.33423E-23
1.48521E-02 2.17343E-23
1.53845E-02 2.02627E-23
1.59262E-02 1.89138E-23
1.64770E-02 1.76755E-23
1.70371E-02 1.65371E-23
1.76063E-02 1.54891E-23
1.81848E-02 1.45229E-23
1.87724E-02 1.36311E-23
1.93692E-02 1.28068E-23
1.99751E-02 1.20439E-23
2.05901E-02 1.13371E-23
2.12143E-02 1.06815E-23
2.18476E-02 1.00727E-23
2.24900E-02 9.50665E-24
2.31415E-02 8.97988E-24
2.38021E-02 8.48914E-24
2.44717E-02 8.03150E-24
2.51504E-02 7.60432E-24
2.58382E-02 7.20519E-24
2.65349E-02 6.83192E-24
2.72407E-02 6.48253E-24
2.79555E-02 6.15521E-24
2.86793E-02 5.84829E-24
2.94120E-02 5.56028E-24
3.01537E-02 5.28978E-24
3.09043E-02 5.03553E-24
3.16639E-02 4.79637E-24
3.24324E-02 4.57125E-24
3.32098E-02 4.35917E-24
3.39961E-02 4.15925E-24
3.47912E-02 3.97065E-24
3.55952E-02 3.79261E-24
3.64081E-02 3.62443E-24
3.72297E-02 3.46546E-24
3.80602E-02 3.31511E-24
3.88995E-02 3.17281E-24
3.97476E-02 3.03805E-24
4.06044E-02 2.91036E-24
4.14700E-02 2.78930E-24
4.23443E-02 2.67445E-24
4.32273E-02 2.56544E-24
4.41190E-02 2.46192E-24
4.50194E-02 2.36356E-24
4.59284E-02 2.27004E-24
4.68461E-02 2.18110E-24
4.87074E-02 2.01586E-24
5.06030E-02 1.86593E-24
5.25328E-02 1.72964E-24
5.44967E-02 1.60551E-24
5.64946E-02 1.49228E-24
5.85262E-02 1.38882E-24
6.05914E-02 1.29412E-24
6.26901E-02 1.20731E-24
6.48222E-02 1.12762E-24
6.69873E-02 1.05436E-24
6.91854E-02 9.86908E-25
7.14163E-02 9.24730E-25
7.36799E-02 8.67335E-25
7.59760E-02 8.14289E-25
7.83043E-02 7.65203E-25
8.06647E-02 7.19727E-25
8.30571E-02 6.77548E-25
8.54812E-02 6.38383E-25
8.79369E-02 6.01977E-25
9.04240E-02 5.68102E-25
9.29422E-02 5.36549E-25
9.54915E-02 5.07130E-25
9.80716E-02 4.79674E-25
1.00682E-01 4.54028E-25
1.03323E-01 4.30048E-25
1.05995E-01 4.07609E-25
1.08696E-01 3.86592E-25
1.11427E-01 3.66892E-25
1.14188E-01 3.48411E-25
1.16978E-01 3.31059E-25
1.19797E-01 3.14755E-25
1.22645E-01 2.99425E-25
1.25522E-01 2.85000E-25
1.28428E-01 2.71416E-25
1.31361E-01 2.58616E-25
1.34323E-01 2.46546E-25
1.37313E-01 2.35157E-25
1.40330E-01 2.24404E-25
1.43375E-01 2.14244E-25
1.46447E-01 2.04640E-25
1.49545E-01 1.95555E-25
1.52671E-01 1.86956E-25
1.55823E-01 1.78813E-25
1.59001E-01 1.71097E-25
1.62205E-01 1.63781E-25
1.65435E-01 1.56842E-25
1.68690E-01 1.50256E-25
1.71970E-01 1.44002E-25
1.75276E-01 1.38060E-25
1.78606E-01 1.32412E-25
1.81961E-01 1.27041E-25
1.85340E-01 1.21931E-25
1.88743E-01 1.17067E-25
1.92169E-01 1.12434E-25
1.95619E-01 1.08021E-25
1.99092E-01 1.03815E-25
2.02589E-01 9.98036E-26
2.06107E-01 9.59772E-26
2.09649E-01 9.23256E-26
2.13212E-01 8.88393E-26
2.16797E-01 8.55095E-26
2.20404E-01 8.23280E-26
2.24032E-01 7.92871E-26
2.27680E-01 7.63793E-26
2.31350E-01 7.35979E-26
2.35040E-01 7.09365E-26
2.38751E-01 6.83889E-26
2.42481E-01 6.59495E-26
2.46231E-01 6.36128E-26
2.50000E-01 6.13738E-26
2.53788E-01 5.92277E-26
2.57595E-01 5.71700E-26
2.61421E-01 5.51964E-26
2.65264E-01 5.33029E-26
2.69126E-01 5.14857E-26
2.73005E-01 4.97411E-26
2.76901E-01 4.80659E-26
2.80814E-01 4.64567E-26
2.84744E-01 4.49106E-26
2.88691E-01 4.34246E-26
2.92653E-01 4.19960E-26
2.96632E-01 4.06222E-26
3.00625E-01 3.93008E-26
3.04634E-01 3.80294E-26
3.08658E-01 3.68059E-26
3.12697E-01 3.56281E-26
3.16749E-01 3.44940E-26
3.20816E-01 3.34017E-26
3.24896E-01 3.23495E-26
3.28990E-01 3.13356E-26
3.33097E-01 3.03584E-26
3.37216E-01 2.94164E-26
3.41348E-01 2.85081E-26
3.45492E-01 2.76321E-26
3.49647E-01 2.67870E-26
3.53814E-01 2.59716E-26
3.57992E-01 2.51847E-26
3.62181E-01 2.44251E-26
3.66381E-01 2.36917E-26
3.70590E-01 2.29835E-26
3.74810E-01 2.22995E-26
3.79039E-01 2.16386E-26
3.83277E-01 2.10001E-26
3.87524E-01 2.03830E-26
3.91780E-01 1.97865E-26
3.96044E-01 1.92098E-26
4.00316E-01 1.86522E-26
4.04596E-01 1.81128E-26
4.08882E-01 1.75911E-26
4.13176E-01 1.70864E-26
4.17476E-01 1.65979E-26
4.21783E-01 1.61252E-26
4.26095E-01 1.56676E-26
4.30413E-01 1.52246E-26
4.34737E-01 1.47956E-26
4.39065E-01 1.43801E-26
4.43398E-01 1.39777E-26
4.47736E-01 1.35878E-26
4.52077E-01 1.32101E-26
4.56422E-01 1.28440E-26
4.60770E-01 1.24892E-26
4.65122E-01 1.21452E-26
4.69476E-01 1.18118E-26
4.73832E-01 1.14885E-26
4.78190E-01 1.11749E-26
4.82550E-01 1.08707E-26
4.86912E-01 1.05757E-26
4.91274E-01 1.02895E-26
4.95637E-01 1.00117E-26
5.00000E-01 9.74218E-27
5.04363E-01 9.48056E-27
5.08726E-01 9.22661E-27
5.13088E-01 8.98006E-27
5.17450E-01 8.74067E-27
5.21810E-01 8.50821E-27
5.26168E-01 8.28244E-27
5.30524E-01 8.06314E-27
5.34878E-01 7.85011E-27
5.39230E-01 7.64314E-27
5.43578E-01 7.44203E-27
5.47923E-01 7.24660E-27
5.52264E-01 7.05666E-27
5.56602E-01 6.87204E-27
5.60935E-01 6.69257E-27
5.65263E-01 6.51809E-27
5.69587E-01 6.34844E-27
5.73905E-01 6.18347E-27
5.78217E-01 6.02302E-27
5.82524E-01 5.86698E-27
5.86824E-01 5.71518E-27
5.91118E-01 5.56752E-27
5.95404E-01 5.42385E-27
5.99684E-01 5.28406E-27
6.03956E-01 5.14802E-27
6.08220E-01 5.01564E-27
6.12476E-01 4.88678E-27
6.16723E-01 4.76136E-27
6.20961E-01 4.63927E-27
6.25190E-01 4.52040E-27
6.29410E-01 4.40466E-27
6.33619E-01 4.29196E-27
6.37819E-01 4.18222E-27
6.42008E-01 4.07534E-27
6.46186E-01 3.97123E-27
6.50353E-01 3.86983E-27
6.54508E-01 3.77105E-27
6.58652E-01 3.67481E-27
6.62784E-01 3.58105E-27
6.66903E-01 3.48969E-27
6.71010E-01 3.40066E-27
6.75104E-01 3.31390E-27
6.79184E-01 3.22935E-27
6.83251E-01 3.14693E-27
6.87303E-01 3.06660E-27
6.91342E-01 2.98829E-27
6.95366E-01 2.91194E-27
6.99375E-01 2.83751E-27
7.03368E-01 2.76494E-27
7.07347E-01 2.69418E-27
7.11309E-01 2.62517E-27
7.15256E-01 2.55788E-27
7.19186E-01 2.49225E-27
7.23099E-01 2.42823E-27
7.26995E-01 2.36580E-27
7.30874E-01 2.30489E-27
7.34736E-01 2.24548E-27
7.38579E-01 2.18752E-27
7.42405E-01 2.13097E-27
7.46212E-01 2.07580E-27
7.50000E-01 2.02197E-27
7.53769E-01 1.96944E-27
7.57519E-01 1.91818E-27
7.61249E-01 1.86816E-27
7.64960E-01 1.81935E-27
7.68650E-01 1.77170E-27
7.72320E-01 1.72520E-27
7.75968E-01 1.67982E-27
7.79596E-01 1.63551E-27
7.83203E-01 1.59227E-27
7.86788E-01 1.55006E-27
7.90351E-01 1.50885E-27
7.93893E-01 1.46861E-27
7.97411E-01 1.42934E-27
8.00908E-01 1.39099E-27
8.04381E-01 1.35355E-27
8.07831E-01 1.31700E-27
8.11257E-01 1.28130E-27
8.14660E-01 1.24645E-27
8.18039E-01 1.21242E-27
8.21394E-01 1.17919E-27
8.24724E-01 1.14674E-27
8.28030E-01 1.11505E-27
8.31310E-01 1.08410E-27
8.34565E-01 1.05388E-27
8.37795E-01 1.02437E-27
8.40999E-01 9.95550E-28
8.44177E-01 9.67404E-28
8.47329E-01 9.39916E-28
8.50455E-01 9.13071E-28
8.53553E-01 8.86854E-28
8.56625E-01 8.61250E-28
8.59670E-01 8.36245E-28
8.62687E-01 8.11825E-28
8.65677E-01 7.87976E-28
8.68639E-01 7.64686E-28
8.71572E-01 7.41941E-28
8.74478E-01 7.19729E-28
8.77355E-01 6.98038E-28
8.80203E-01 6.76856E-28
8.83022E-01 6.56171E-28
8.85812E-01 6.35974E-28
8.88573E-01 6.16252E-28
8.91304E-01 5.96995E-28
8.94005E-01 5.78194E-28
8.96677E-01 5.59837E-28
8.99318E-01 5.41916E-28
9.01928E-01 5.24421E-28
9.04508E-01 5.07342E-28
9.07058E-01 4.90672E-28
9.09576E-01 4.74400E-28
9.12063E-01 4.58520E-28
9.14519E-01 4.43022E-28
9.16943E-01 4.27899E-28
9.19335E-01 4.13142E-28
9.21696E-01 3.98745E-28
9.24024E-01 3.84700E-28
9.26320E-01 3.71000E-28
9.28584E-01 3.57638E-28
9.30815E-01 3.44607E-28
9.33013E-01 3.31901E-28
9.35178E-01 3.19513E-28
9.37310E-01 3.07438E-28
9.39409E-01 2.95668E-28
9.41474E-01 2.84199E-28
9.43505E-01 2.73024E-28
9.45503E-01 2.62138E-28
9.47467E-01 2.51537E-28
9.49397E-01 2.41213E-28
9.51293E-01 2.31164E-28
9.53154E-01 2.21382E-28
9.54981E-01 2.11865E-28
9.56773E-01 2.02607E-28
9.58530E-01 1.93603E-28
9.60252E-01 1.84850E-28
9.61940E-01 1.76343E-28
9.63592E-01 1.68079E-28
9.65209E-01 1.60052E-28
9.66790E-01 1.52259E-28
9.68336E-01 1.44697E-28
9.69846E-01 1.37363E-28
9.71321E-01 1.30251E-28
9.72759E-01 1.23360E-28
9.74162E-01 1.16685E-28
9.75528E-01 1.10224E-28
9.76858E-01 1.03974E-28
9.78152E-01 9.79312E-29
9.79410E-01 9.20934E-29
9.80631E-01 8.64578E-29
9.81815E-01 8.10216E-29
9.82963E-01 7.57824E-29
9.84074E-01 7.07377E-29
9.85148E-01 6.58851E-29
9.86185E-01 6.12224E-29
9.87185E-01 5.67474E-29
9.88148E-01 5.24581E-29
9.89074E-01 4.83525E-29
9.89962E-01 4.44286E-29
9.90814E-01 4.06846E-29
9.91627E-01 3.71189E-29
9.92404E-01 3.37298E-29
9.93143E-01 3.05158E-29
9.93844E-01 2.74752E-29
9.94508E-01 2.46068E-29
9.95134E-01 2.19093E-29
9.95722E-01 1.93814E-29
9.96273E-01 1.70219E-29
9.96786E-01 1.48298E-29
9.97261E-01 1.28040E-29
9.97698E-01 1.09437E-29
9.98097E-01 9.24800E-30
9.98459E-01 7.71610E-30
9.98782E-01 6.34732E-30
9.99067E-01 5.14103E-30
9.99315E-01 4.09669E-30
9.99524E-01 3.21382E-30
9.99695E-01 2.49202E-30
9.99829E-01 1.93096E-30
9.99924E-01 1.53039E-30
9.99981E-01 1.29011E-30
1.00000E+00 1.21004E-30
