 #
 # Subroutine ELSEPA. Elastic scattering of electrons and positrons
 #                    by neutral atoms and positive ions
 #
 # Projectile: electron
 # Kinetic energy = 3.00000E+07 eV = 1.10248E+06 a.u.
 #
 # WARNING: High-energy factorization with free-atom DF screening.
 #          Absorption, polarization and exchange corrections are
 #          switched off.
 #          Phase shifts are calculated for the bare nucleus.
 #          Scattering amplitudes are not evaluated.
 #
 # Element: Cr,  Z =  24,  atomic weight = 5.19961E+01 g/mol
 #
 # Nuclear model: Fermi distribution
 #                Average radius = 3.99369E-13 cm
 #                Skin thickness = 5.46000E-14 cm
 #
 # Number of electrons = 24
 #
 # Total elastic cross section = 1.79161E-18 cm**2 = 6.39796E-02 a0**2
 # 1st transport cross section = 1.21557E-24 cm**2 = 4.34086E-08 a0**2
 # 2nd transport cross section = 3.52361E-24 cm**2 = 1.25830E-07 a0**2
 #
 #
 # Differential cross section:                       MU=(1-COS(THETA))/2
 #
 #  THETA        MU          DCS          DCS        Sherman      error
 #  (deg)                 (cm**2/sr)   (a0**2/sr)    function
 #----------------------------------------------------------------------
0.00000E+00 1.72094E-11
7.61557E-13 1.72039E-11
1.18994E-12 1.72008E-11
1.71346E-12 1.71970E-11
2.33225E-12 1.71926E-11
3.04617E-12 1.71875E-11
3.85530E-12 1.71817E-11
4.75964E-12 1.71752E-11
5.75917E-12 1.71681E-11
6.85391E-12 1.71603E-11
8.04379E-12 1.71518E-11
9.32893E-12 1.71426E-11
1.07092E-11 1.71328E-11
1.21847E-11 1.71223E-11
1.37554E-11 1.71111E-11
1.54213E-11 1.70993E-11
1.71823E-11 1.70868E-11
1.90386E-11 1.70736E-11
2.09900E-11 1.70598E-11
2.30367E-11 1.70454E-11
2.51785E-11 1.70303E-11
2.74156E-11 1.70145E-11
2.97478E-11 1.69982E-11
3.21752E-11 1.69811E-11
3.46979E-11 1.69635E-11
3.73157E-11 1.69452E-11
4.00286E-11 1.69262E-11
4.28368E-11 1.69067E-11
4.57402E-11 1.68865E-11
4.87388E-11 1.68657E-11
5.18325E-11 1.68443E-11
5.50215E-11 1.68223E-11
5.83057E-11 1.67997E-11
6.16850E-11 1.67765E-11
6.51595E-11 1.67527E-11
6.87293E-11 1.67283E-11
7.23943E-11 1.67033E-11
7.61544E-11 1.66777E-11
1.18991E-10 1.63911E-11
1.71347E-10 1.60524E-11
2.33223E-10 1.56676E-11
3.04617E-10 1.52431E-11
3.85531E-10 1.47864E-11
4.75965E-10 1.43035E-11
5.75917E-10 1.38019E-11
6.85389E-10 1.32874E-11
8.04380E-10 1.27662E-11
9.32891E-10 1.22434E-11
1.07092E-09 1.17238E-11
1.21847E-09 1.12114E-11
1.37554E-09 1.07094E-11
1.54213E-09 1.02210E-11
1.71823E-09 9.74764E-12
1.90386E-09 9.29156E-12
2.09900E-09 8.85345E-12
2.30367E-09 8.43428E-12
2.51785E-09 8.03430E-12
2.74156E-09 7.65346E-12
2.97478E-09 7.29190E-12
3.21752E-09 6.94861E-12
3.46978E-09 6.62398E-12
3.73156E-09 6.31612E-12
4.00286E-09 6.02558E-12
4.28368E-09 5.75062E-12
4.57402E-09 5.49105E-12
4.87388E-09 5.24584E-12
5.18326E-09 5.01400E-12
5.50215E-09 4.79538E-12
5.83057E-09 4.58809E-12
6.16850E-09 4.39298E-12
6.51596E-09 4.20736E-12
6.87293E-09 4.03248E-12
7.23942E-09 3.86633E-12
7.61544E-09 3.70918E-12
1.18991E-08 2.50926E-12
1.71347E-08 1.75561E-12
2.33223E-08 1.25616E-12
3.04617E-08 8.99065E-13
3.85531E-08 6.71811E-13
4.75965E-08 4.95064E-13
5.75917E-08 3.75487E-13
6.85389E-08 2.85131E-13
8.04380E-08 2.20325E-13
9.32891E-08 1.71876E-13
1.07092E-07 1.35750E-13
1.21847E-07 1.08576E-13
1.37554E-07 8.77398E-14
1.54213E-07 7.17994E-14
1.71823E-07 5.93009E-14
1.90386E-07 4.95138E-14
2.09900E-07 4.17081E-14
2.30367E-07 3.54432E-14
2.51785E-07 3.03545E-14
2.74156E-07 2.61798E-14
2.97478E-07 2.27321E-14
3.21752E-07 1.98456E-14
3.46978E-07 1.74288E-14
3.73156E-07 1.53676E-14
4.00286E-07 1.36180E-14
4.28368E-07 1.21099E-14
4.57402E-07 1.08105E-14
4.87388E-07 9.68179E-15
5.18325E-07 8.69598E-15
5.50215E-07 7.83511E-15
5.83057E-07 7.07405E-15
6.16850E-07 6.40668E-15
6.51596E-07 5.81029E-15
6.87293E-07 5.28378E-15
7.23942E-07 4.81274E-15
7.61543E-07 4.39304E-15
1.18991E-06 1.92568E-15
1.71347E-06 9.59289E-16
2.33223E-06 5.27437E-16
3.04617E-06 3.13257E-16
3.85531E-06 1.97761E-16
4.75964E-06 1.31087E-16
5.75916E-06 9.03651E-17
6.85388E-06 6.43427E-17
8.04378E-06 4.70701E-17
9.32888E-06 3.52272E-17
1.07092E-05 2.68898E-17
1.21846E-05 2.08782E-17
1.37553E-05 1.64556E-17
1.54212E-05 1.31439E-17
1.71822E-05 1.06232E-17
1.90385E-05 8.67785E-18
2.09899E-05 7.15828E-18
2.30365E-05 5.95651E-18
2.51783E-05 4.99622E-18
2.74153E-05 4.22128E-18
2.97475E-05 3.59067E-18
3.21749E-05 3.07336E-18
3.46974E-05 2.64582E-18
3.73152E-05 2.29008E-18
4.00281E-05 1.99211E-18
4.28362E-05 1.74103E-18
4.57395E-05 1.52826E-18
4.87380E-05 1.34696E-18
5.18317E-05 1.19173E-18
5.50205E-05 1.05820E-18
5.83045E-05 9.42841E-19
6.16838E-05 8.42772E-19
6.51582E-05 7.55628E-19
6.87277E-05 6.79463E-19
7.23925E-05 6.12657E-19
7.61524E-05 5.53859E-19
9.21439E-05 3.78772E-19
1.09658E-04 2.67708E-19
1.28695E-04 1.94533E-19
1.49255E-04 1.44735E-19
1.71338E-04 1.09905E-19
1.94942E-04 8.49520E-20
2.20070E-04 6.66976E-20
2.46720E-04 5.30956E-20
2.74892E-04 4.27920E-20
3.04586E-04 3.48724E-20
3.35803E-04 2.87039E-20
3.68542E-04 2.38419E-20
4.02802E-04 1.99678E-20
4.38585E-04 1.68500E-20
4.75889E-04 1.43182E-20
5.14715E-04 1.22449E-20
5.55063E-04 1.05340E-20
5.96931E-04 9.11200E-21
6.40321E-04 7.92227E-21
6.85233E-04 6.92071E-21
7.31665E-04 6.07269E-21
7.79618E-04 5.35082E-21
8.29092E-04 4.73320E-21
8.80086E-04 4.20228E-21
9.32601E-04 3.74384E-21
9.86636E-04 3.34631E-21
1.04219E-03 3.00025E-21
1.09927E-03 2.69783E-21
1.15786E-03 2.43263E-21
1.21797E-03 2.19927E-21
1.27961E-03 1.99328E-21
1.34276E-03 1.81088E-21
1.40743E-03 1.64890E-21
1.47362E-03 1.50466E-21
1.54133E-03 1.37588E-21
1.61056E-03 1.26060E-21
1.68131E-03 1.15717E-21
1.75357E-03 1.06415E-21
1.82735E-03 9.80304E-22
1.90265E-03 9.04569E-22
1.97947E-03 8.36022E-22
2.05780E-03 7.73856E-22
2.13765E-03 7.17373E-22
2.21902E-03 6.65959E-22
2.30190E-03 6.19078E-22
2.38630E-03 5.76257E-22
2.47222E-03 5.37082E-22
2.55965E-03 5.01187E-22
2.64859E-03 4.68246E-22
2.73905E-03 4.37973E-22
2.83103E-03 4.10111E-22
2.92452E-03 3.84434E-22
3.01952E-03 3.60740E-22
3.11604E-03 3.38847E-22
3.21407E-03 3.18593E-22
3.31362E-03 2.99833E-22
3.41468E-03 2.82436E-22
3.51725E-03 2.66285E-22
3.62133E-03 2.51275E-22
3.72692E-03 2.37310E-22
3.83403E-03 2.24303E-22
3.94265E-03 2.12178E-22
4.05278E-03 2.00862E-22
4.16442E-03 1.90293E-22
4.27757E-03 1.80411E-22
4.39223E-03 1.71163E-22
4.50840E-03 1.62502E-22
4.62608E-03 1.54383E-22
4.74527E-03 1.46766E-22
4.86597E-03 1.39614E-22
4.98817E-03 1.32893E-22
5.11188E-03 1.26572E-22
5.23711E-03 1.20624E-22
5.36383E-03 1.15022E-22
5.49207E-03 1.09742E-22
5.62181E-03 1.04762E-22
5.75306E-03 1.00062E-22
5.88581E-03 9.56234E-23
6.02007E-03 9.14287E-23
6.15583E-03 8.74619E-23
6.29310E-03 8.37084E-23
6.43187E-03 8.01545E-23
6.57214E-03 7.67877E-23
6.71392E-03 7.35962E-23
6.85720E-03 7.05692E-23
7.00198E-03 6.76965E-23
7.14827E-03 6.49688E-23
7.29605E-03 6.23775E-23
7.44534E-03 5.99143E-23
7.59612E-03 5.75718E-23
7.97965E-03 5.21983E-23
8.37255E-03 4.74387E-23
8.77480E-03 4.32103E-23
9.18641E-03 3.94437E-23
9.60736E-03 3.60794E-23
1.00376E-02 3.30670E-23
1.04773E-02 3.03630E-23
1.09262E-02 2.79304E-23
1.13844E-02 2.57371E-23
1.18520E-02 2.37552E-23
1.23288E-02 2.19608E-23
1.28150E-02 2.03329E-23
1.33104E-02 1.88534E-23
1.38150E-02 1.75062E-23
1.43290E-02 1.62774E-23
1.48521E-02 1.51547E-23
1.53845E-02 1.41272E-23
1.59262E-02 1.31855E-23
1.64770E-02 1.23211E-23
1.70371E-02 1.15264E-23
1.76063E-02 1.07948E-23
1.81848E-02 1.01204E-23
1.87724E-02 9.49794E-24
1.93692E-02 8.92262E-24
1.99751E-02 8.39023E-24
2.05901E-02 7.89698E-24
2.12143E-02 7.43947E-24
2.18476E-02 7.01462E-24
2.24900E-02 6.61968E-24
2.31415E-02 6.25215E-24
2.38021E-02 5.90977E-24
2.44717E-02 5.59051E-24
2.51504E-02 5.29251E-24
2.58382E-02 5.01410E-24
2.65349E-02 4.75374E-24
2.72407E-02 4.51006E-24
2.79555E-02 4.28178E-24
2.86793E-02 4.06774E-24
2.94120E-02 3.86690E-24
3.01537E-02 3.67829E-24
3.09043E-02 3.50102E-24
3.16639E-02 3.33428E-24
3.24324E-02 3.17734E-24
3.32098E-02 3.02950E-24
3.39961E-02 2.89015E-24
3.47912E-02 2.75869E-24
3.55952E-02 2.63461E-24
3.64081E-02 2.51741E-24
3.72297E-02 2.40664E-24
3.80602E-02 2.30187E-24
3.88995E-02 2.20273E-24
3.97476E-02 2.10884E-24
4.06044E-02 2.01989E-24
4.14700E-02 1.93557E-24
4.23443E-02 1.85558E-24
4.32273E-02 1.77966E-24
4.41190E-02 1.70757E-24
4.50194E-02 1.63907E-24
4.59284E-02 1.57396E-24
4.68461E-02 1.51204E-24
4.87074E-02 1.39701E-24
5.06030E-02 1.29266E-24
5.25328E-02 1.19782E-24
5.44967E-02 1.11146E-24
5.64946E-02 1.03269E-24
5.85262E-02 9.60735E-25
6.05914E-02 8.94887E-25
6.26901E-02 8.34540E-25
6.48222E-02 7.79150E-25
6.69873E-02 7.28239E-25
6.91854E-02 6.81379E-25
7.14163E-02 6.38189E-25
7.36799E-02 5.98331E-25
7.59760E-02 5.61501E-25
7.83043E-02 5.27428E-25
8.06647E-02 4.95869E-25
8.30571E-02 4.66605E-25
8.54812E-02 4.39438E-25
8.79369E-02 4.14192E-25
9.04240E-02 3.90707E-25
9.29422E-02 3.68836E-25
9.54915E-02 3.48451E-25
9.80716E-02 3.29431E-25
1.00682E-01 3.11668E-25
1.03323E-01 2.95065E-25
1.05995E-01 2.79533E-25
1.08696E-01 2.64989E-25
1.11427E-01 2.51360E-25
1.14188E-01 2.38578E-25
1.16978E-01 2.26581E-25
1.19797E-01 2.15312E-25
1.22645E-01 2.04719E-25
1.25522E-01 1.94754E-25
1.28428E-01 1.85373E-25
1.31361E-01 1.76536E-25
1.34323E-01 1.68206E-25
1.37313E-01 1.60349E-25
1.40330E-01 1.52933E-25
1.43375E-01 1.45928E-25
1.46447E-01 1.39309E-25
1.49545E-01 1.33049E-25
1.52671E-01 1.27126E-25
1.55823E-01 1.21520E-25
1.59001E-01 1.16209E-25
1.62205E-01 1.11175E-25
1.65435E-01 1.06402E-25
1.68690E-01 1.01874E-25
1.71970E-01 9.75752E-26
1.75276E-01 9.34929E-26
1.78606E-01 8.96141E-26
1.81961E-01 8.59268E-26
1.85340E-01 8.24199E-26
1.88743E-01 7.90830E-26
1.92169E-01 7.59066E-26
1.95619E-01 7.28815E-26
1.99092E-01 6.99994E-26
2.02589E-01 6.72522E-26
2.06107E-01 6.46326E-26
2.09649E-01 6.21337E-26
2.13212E-01 5.97489E-26
2.16797E-01 5.74721E-26
2.20404E-01 5.52976E-26
2.24032E-01 5.32201E-26
2.27680E-01 5.12345E-26
2.31350E-01 4.93360E-26
2.35040E-01 4.75202E-26
2.38751E-01 4.57828E-26
2.42481E-01 4.41199E-26
2.46231E-01 4.25278E-26
2.50000E-01 4.10030E-26
2.53788E-01 3.95421E-26
2.57595E-01 3.81421E-26
2.61421E-01 3.67999E-26
2.65264E-01 3.55128E-26
2.69126E-01 3.42782E-26
2.73005E-01 3.30935E-26
2.76901E-01 3.19564E-26
2.80814E-01 3.08647E-26
2.84744E-01 2.98163E-26
2.88691E-01 2.88092E-26
2.92653E-01 2.78415E-26
2.96632E-01 2.69114E-26
3.00625E-01 2.60172E-26
3.04634E-01 2.51573E-26
3.08658E-01 2.43302E-26
3.12697E-01 2.35345E-26
3.16749E-01 2.27686E-26
3.20816E-01 2.20315E-26
3.24896E-01 2.13217E-26
3.28990E-01 2.06382E-26
3.33097E-01 1.99798E-26
3.37216E-01 1.93454E-26
3.41348E-01 1.87341E-26
3.45492E-01 1.81448E-26
3.49647E-01 1.75767E-26
3.53814E-01 1.70288E-26
3.57992E-01 1.65004E-26
3.62181E-01 1.59906E-26
3.66381E-01 1.54988E-26
3.70590E-01 1.50240E-26
3.74810E-01 1.45658E-26
3.79039E-01 1.41233E-26
3.83277E-01 1.36961E-26
3.87524E-01 1.32834E-26
3.91780E-01 1.28848E-26
3.96044E-01 1.24996E-26
4.00316E-01 1.21274E-26
4.04596E-01 1.17676E-26
4.08882E-01 1.14198E-26
4.13176E-01 1.10835E-26
4.17476E-01 1.07583E-26
4.21783E-01 1.04438E-26
4.26095E-01 1.01395E-26
4.30413E-01 9.84507E-27
4.34737E-01 9.56018E-27
4.39065E-01 9.28445E-27
4.43398E-01 9.01755E-27
4.47736E-01 8.75916E-27
4.52077E-01 8.50895E-27
4.56422E-01 8.26665E-27
4.60770E-01 8.03196E-27
4.65122E-01 7.80462E-27
4.69476E-01 7.58435E-27
4.73832E-01 7.37092E-27
4.78190E-01 7.16408E-27
4.82550E-01 6.96359E-27
4.86912E-01 6.76925E-27
4.91274E-01 6.58083E-27
4.95637E-01 6.39812E-27
5.00000E-01 6.22094E-27
5.04363E-01 6.04910E-27
5.08726E-01 5.88241E-27
5.13088E-01 5.72069E-27
5.17450E-01 5.56378E-27
5.21810E-01 5.41153E-27
5.26168E-01 5.26376E-27
5.30524E-01 5.12034E-27
5.34878E-01 4.98112E-27
5.39230E-01 4.84595E-27
5.43578E-01 4.71472E-27
5.47923E-01 4.58729E-27
5.52264E-01 4.46353E-27
5.56602E-01 4.34332E-27
5.60935E-01 4.22656E-27
5.65263E-01 4.11313E-27
5.69587E-01 4.00292E-27
5.73905E-01 3.89583E-27
5.78217E-01 3.79177E-27
5.82524E-01 3.69064E-27
5.86824E-01 3.59234E-27
5.91118E-01 3.49678E-27
5.95404E-01 3.40389E-27
5.99684E-01 3.31357E-27
6.03956E-01 3.22575E-27
6.08220E-01 3.14035E-27
6.12476E-01 3.05730E-27
6.16723E-01 2.97653E-27
6.20961E-01 2.89795E-27
6.25190E-01 2.82152E-27
6.29410E-01 2.74716E-27
6.33619E-01 2.67482E-27
6.37819E-01 2.60442E-27
6.42008E-01 2.53592E-27
6.46186E-01 2.46925E-27
6.50353E-01 2.40436E-27
6.54508E-01 2.34121E-27
6.58652E-01 2.27973E-27
6.62784E-01 2.21988E-27
6.66903E-01 2.16162E-27
6.71010E-01 2.10489E-27
6.75104E-01 2.04964E-27
6.79184E-01 1.99585E-27
6.83251E-01 1.94347E-27
6.87303E-01 1.89245E-27
6.91342E-01 1.84275E-27
6.95366E-01 1.79435E-27
6.99375E-01 1.74719E-27
7.03368E-01 1.70126E-27
7.07347E-01 1.65650E-27
7.11309E-01 1.61290E-27
7.15256E-01 1.57041E-27
7.19186E-01 1.52901E-27
7.23099E-01 1.48866E-27
7.26995E-01 1.44935E-27
7.30874E-01 1.41102E-27
7.34736E-01 1.37367E-27
7.38579E-01 1.33727E-27
7.42405E-01 1.30178E-27
7.46212E-01 1.26718E-27
7.50000E-01 1.23346E-27
7.53769E-01 1.20058E-27
7.57519E-01 1.16852E-27
7.61249E-01 1.13726E-27
7.64960E-01 1.10678E-27
7.68650E-01 1.07706E-27
7.72320E-01 1.04808E-27
7.75968E-01 1.01982E-27
7.79596E-01 9.92254E-28
7.83203E-01 9.65371E-28
7.86788E-01 9.39151E-28
7.90351E-01 9.13577E-28
7.93893E-01 8.88632E-28
7.97411E-01 8.64300E-28
8.00908E-01 8.40564E-28
8.04381E-01 8.17410E-28
8.07831E-01 7.94822E-28
8.11257E-01 7.72787E-28
8.14660E-01 7.51289E-28
8.18039E-01 7.30315E-28
8.21394E-01 7.09852E-28
8.24724E-01 6.89887E-28
8.28030E-01 6.70407E-28
8.31310E-01 6.51401E-28
8.34565E-01 6.32856E-28
8.37795E-01 6.14761E-28
8.40999E-01 5.97104E-28
8.44177E-01 5.79876E-28
8.47329E-01 5.63064E-28
8.50455E-01 5.46660E-28
8.53553E-01 5.30653E-28
8.56625E-01 5.15034E-28
8.59670E-01 4.99792E-28
8.62687E-01 4.84920E-28
8.65677E-01 4.70408E-28
8.68639E-01 4.56247E-28
8.71572E-01 4.42429E-28
8.74478E-01 4.28946E-28
8.77355E-01 4.15790E-28
8.80203E-01 4.02953E-28
8.83022E-01 3.90428E-28
8.85812E-01 3.78207E-28
8.88573E-01 3.66284E-28
8.91304E-01 3.54652E-28
8.94005E-01 3.43304E-28
8.96677E-01 3.32232E-28
8.99318E-01 3.21432E-28
9.01928E-01 3.10897E-28
9.04508E-01 3.00621E-28
9.07058E-01 2.90598E-28
9.09576E-01 2.80823E-28
9.12063E-01 2.71289E-28
9.14519E-01 2.61993E-28
9.16943E-01 2.52927E-28
9.19335E-01 2.44089E-28
9.21696E-01 2.35472E-28
9.24024E-01 2.27071E-28
9.26320E-01 2.18883E-28
9.28584E-01 2.10903E-28
9.30815E-01 2.03126E-28
9.33013E-01 1.95548E-28
9.35178E-01 1.88166E-28
9.37310E-01 1.80974E-28
9.39409E-01 1.73969E-28
9.41474E-01 1.67148E-28
9.43505E-01 1.60506E-28
9.45503E-01 1.54040E-28
9.47467E-01 1.47747E-28
9.49397E-01 1.41623E-28
9.51293E-01 1.35666E-28
9.53154E-01 1.29871E-28
9.54981E-01 1.24236E-28
9.56773E-01 1.18757E-28
9.58530E-01 1.13433E-28
9.60252E-01 1.08260E-28
9.61940E-01 1.03235E-28
9.63592E-01 9.83557E-29
9.65209E-01 9.36198E-29
9.66790E-01 8.90246E-29
9.68336E-01 8.45678E-29
9.69846E-01 8.02471E-29
9.71321E-01 7.60601E-29
9.72759E-01 7.20048E-29
9.74162E-01 6.80790E-29
9.75528E-01 6.42808E-29
9.76858E-01 6.06081E-29
9.78152E-01 5.70591E-29
9.79410E-01 5.36320E-29
9.80631E-01 5.03249E-29
9.81815E-01 4.71363E-29
9.82963E-01 4.40645E-29
9.84074E-01 4.11080E-29
9.85148E-01 3.82651E-29
9.86185E-01 3.55345E-29
9.87185E-01 3.29149E-29
9.88148E-01 3.04048E-29
9.89074E-01 2.80030E-29
9.89962E-01 2.57083E-29
9.90814E-01 2.35196E-29
9.91627E-01 2.14356E-29
9.92404E-01 1.94555E-29
9.93143E-01 1.75781E-29
9.93844E-01 1.58026E-29
9.94508E-01 1.41280E-29
9.95134E-01 1.25536E-29
9.95722E-01 1.10784E-29
9.96273E-01 9.70188E-30
9.96786E-01 8.42323E-30
9.97261E-01 7.24183E-30
9.97698E-01 6.15711E-30
9.98097E-01 5.16850E-30
9.98459E-01 4.27553E-30
9.98782E-01 3.47775E-30
9.99067E-01 2.77475E-30
9.99315E-01 2.16619E-30
9.99524E-01 1.65177E-30
9.99695E-01 1.23123E-30
9.99829E-01 9.04364E-31
9.99924E-01 6.71003E-31
9.99981E-01 5.31027E-31
1.00000E+00 4.84383E-31
