 #
 # Subroutine ELSEPA. Elastic scattering of electrons and positrons
 #                    by neutral atoms and positive ions
 #
 # Projectile: electron
 # Kinetic energy = 5.00000E+07 eV = 1.83747E+06 a.u.
 #
 # WARNING: High-energy factorization with free-atom DF screening.
 #          Absorption, polarization and exchange corrections are
 #          switched off.
 #          Phase shifts are calculated for the bare nucleus.
 #          Scattering amplitudes are not evaluated.
 #
 # Element: Cr,  Z =  24,  atomic weight = 5.19961E+01 g/mol
 #
 # Nuclear model: Fermi distribution
 #                Average radius = 3.99369E-13 cm
 #                Skin thickness = 5.46000E-14 cm
 #
 # Number of electrons = 24
 #
 # Total elastic cross section = 1.78968E-18 cm**2 = 6.39105E-02 a0**2
 # 1st transport cross section = 4.60268E-25 cm**2 = 1.64365E-08 a0**2
 # 2nd transport cross section = 1.34735E-24 cm**2 = 4.81147E-08 a0**2
 #
 #
 # Differential cross section:                       MU=(1-COS(THETA))/2
 #
 #  THETA        MU          DCS          DCS        Sherman      error
 #  (deg)                 (cm**2/sr)   (a0**2/sr)    function
 #----------------------------------------------------------------------
0.00000E+00 4.71655E-11
7.61557E-13 4.71243E-11
1.18994E-12 4.71012E-11
1.71346E-12 4.70731E-11
2.33225E-12 4.70398E-11
3.04617E-12 4.70015E-11
3.85530E-12 4.69582E-11
4.75964E-12 4.69099E-11
5.75917E-12 4.68566E-11
6.85391E-12 4.67983E-11
8.04379E-12 4.67351E-11
9.32893E-12 4.66670E-11
1.07092E-11 4.65941E-11
1.21847E-11 4.65163E-11
1.37554E-11 4.64338E-11
1.54213E-11 4.63466E-11
1.71823E-11 4.62547E-11
1.90386E-11 4.61582E-11
2.09900E-11 4.60571E-11
2.30367E-11 4.59515E-11
2.51785E-11 4.58414E-11
2.74156E-11 4.57269E-11
2.97478E-11 4.56081E-11
3.21752E-11 4.54850E-11
3.46979E-11 4.53577E-11
3.73157E-11 4.52262E-11
4.00286E-11 4.50907E-11
4.28368E-11 4.49512E-11
4.57402E-11 4.48077E-11
4.87388E-11 4.46603E-11
5.18325E-11 4.45092E-11
5.50215E-11 4.43543E-11
5.83057E-11 4.41958E-11
6.16850E-11 4.40338E-11
6.51595E-11 4.38682E-11
6.87293E-11 4.36993E-11
7.23943E-11 4.35270E-11
7.61544E-11 4.33515E-11
1.18991E-10 4.14362E-11
1.71347E-10 3.92906E-11
2.33223E-10 3.69982E-11
3.04617E-10 3.46364E-11
3.85531E-10 3.22715E-11
4.75965E-10 2.99571E-11
5.75917E-10 2.77333E-11
6.85389E-10 2.56276E-11
8.04380E-10 2.36568E-11
9.32891E-10 2.18287E-11
1.07092E-09 2.01447E-11
1.21847E-09 1.86011E-11
1.37554E-09 1.71912E-11
1.54213E-09 1.59063E-11
1.71823E-09 1.47365E-11
1.90386E-09 1.36720E-11
2.09900E-09 1.27029E-11
2.30367E-09 1.18198E-11
2.51785E-09 1.10141E-11
2.74156E-09 1.02779E-11
2.97478E-09 9.60392E-12
3.21752E-09 8.98490E-12
3.46978E-09 8.41586E-12
3.73156E-09 7.89187E-12
4.00286E-09 7.40846E-12
4.28368E-09 6.96164E-12
4.57402E-09 6.54791E-12
4.87388E-09 6.16415E-12
5.18326E-09 5.80760E-12
5.50215E-09 5.47584E-12
5.83057E-09 5.16667E-12
6.16850E-09 4.87818E-12
6.51596E-09 4.60864E-12
6.87293E-09 4.35635E-12
7.23942E-09 4.11975E-12
7.61544E-09 3.89800E-12
1.18991E-08 2.26149E-12
1.71347E-08 1.38277E-12
2.33223E-08 8.71880E-13
3.04617E-08 5.67008E-13
3.85531E-08 3.80704E-13
4.75965E-08 2.63950E-13
5.75917E-08 1.88753E-13
6.85389E-08 1.38907E-13
8.04380E-08 1.04878E-13
9.32891E-08 8.09760E-14
1.07092E-07 6.37352E-14
1.21847E-07 5.09915E-14
1.37554E-07 4.13650E-14
1.54213E-07 3.39535E-14
1.71823E-07 2.81522E-14
1.90386E-07 2.35460E-14
2.09900E-07 1.98439E-14
2.30367E-07 1.68365E-14
2.51785E-07 1.43696E-14
2.74156E-07 1.23315E-14
2.97478E-07 1.06358E-14
3.21752E-07 9.21474E-15
3.46978E-07 8.01836E-15
3.73156E-07 7.00601E-15
4.00286E-07 6.14521E-15
4.28368E-07 5.40995E-15
4.57402E-07 4.77932E-15
4.87388E-07 4.23630E-15
5.18325E-07 3.76702E-15
5.50215E-07 3.36002E-15
5.83057E-07 3.00587E-15
6.16850E-07 2.69667E-15
6.51596E-07 2.42587E-15
6.87293E-07 2.18794E-15
7.23942E-07 1.97825E-15
7.61543E-07 1.79296E-15
1.18991E-06 7.50913E-16
1.71347E-06 3.68523E-16
2.33223E-06 2.01916E-16
3.04617E-06 1.19844E-16
3.85531E-06 7.55866E-17
4.75964E-06 5.00012E-17
5.75916E-06 3.43721E-17
6.85388E-06 2.43939E-17
8.04378E-06 1.77832E-17
9.32888E-06 1.32643E-17
1.07092E-05 1.00918E-17
1.21846E-05 7.81229E-18
1.37553E-05 6.14073E-18
1.54212E-05 4.89270E-18
1.71822E-05 3.94591E-18
1.90385E-05 3.21708E-18
2.09899E-05 2.64920E-18
2.30365E-05 2.20114E-18
2.51783E-05 1.84379E-18
2.74153E-05 1.55601E-18
2.97475E-05 1.32219E-18
3.21749E-05 1.13066E-18
3.46974E-05 9.72594E-19
3.73152E-05 8.41217E-19
4.00281E-05 7.31303E-19
4.28362E-05 6.38772E-19
4.57395E-05 5.60421E-19
4.87380E-05 4.93718E-19
5.18317E-05 4.36644E-19
5.50205E-05 3.87579E-19
5.83045E-05 3.45215E-19
6.16838E-05 3.08484E-19
6.51582E-05 2.76514E-19
6.87277E-05 2.48583E-19
7.23925E-05 2.24093E-19
7.61524E-05 2.02545E-19
9.21439E-05 1.38429E-19
1.09658E-04 9.77947E-20
1.28695E-04 7.10405E-20
1.49255E-04 5.28424E-20
1.71338E-04 4.01186E-20
1.94942E-04 3.10053E-20
2.20070E-04 2.43400E-20
2.46720E-04 1.93743E-20
2.74892E-04 1.56133E-20
3.04586E-04 1.27228E-20
3.35803E-04 1.04717E-20
3.68542E-04 8.69743E-21
4.02802E-04 7.28378E-21
4.38585E-04 6.14621E-21
4.75889E-04 5.22248E-21
5.14715E-04 4.46606E-21
5.55063E-04 3.84187E-21
5.96931E-04 3.32311E-21
6.40321E-04 2.88910E-21
6.85233E-04 2.52375E-21
7.31665E-04 2.21441E-21
7.79618E-04 1.95110E-21
8.29092E-04 1.72582E-21
8.80086E-04 1.53217E-21
9.32601E-04 1.36496E-21
9.86636E-04 1.21998E-21
1.04219E-03 1.09376E-21
1.09927E-03 9.83467E-22
1.15786E-03 8.86749E-22
1.21797E-03 8.01646E-22
1.27961E-03 7.26522E-22
1.34276E-03 6.60006E-22
1.40743E-03 6.00940E-22
1.47362E-03 5.48343E-22
1.54133E-03 5.01383E-22
1.61056E-03 4.59350E-22
1.68131E-03 4.21636E-22
1.75357E-03 3.87719E-22
1.82735E-03 3.57149E-22
1.90265E-03 3.29537E-22
1.97947E-03 3.04545E-22
2.05780E-03 2.81882E-22
2.13765E-03 2.61290E-22
2.21902E-03 2.42547E-22
2.30190E-03 2.25457E-22
2.38630E-03 2.09848E-22
2.47222E-03 1.95568E-22
2.55965E-03 1.82484E-22
2.64859E-03 1.70477E-22
2.73905E-03 1.59443E-22
2.83103E-03 1.49289E-22
2.92452E-03 1.39931E-22
3.01952E-03 1.31295E-22
3.11604E-03 1.23317E-22
3.21407E-03 1.15936E-22
3.31362E-03 1.09100E-22
3.41468E-03 1.02761E-22
3.51725E-03 9.68757E-23
3.62133E-03 9.14066E-23
3.72692E-03 8.63185E-23
3.83403E-03 8.15799E-23
3.94265E-03 7.71624E-23
4.05278E-03 7.30402E-23
4.16442E-03 6.91899E-23
4.27757E-03 6.55903E-23
4.39223E-03 6.22219E-23
4.50840E-03 5.90672E-23
4.62608E-03 5.61102E-23
4.74527E-03 5.33360E-23
4.86597E-03 5.07314E-23
4.98817E-03 4.82839E-23
5.11188E-03 4.59824E-23
5.23711E-03 4.38165E-23
5.36383E-03 4.17767E-23
5.49207E-03 3.98544E-23
5.62181E-03 3.80414E-23
5.75306E-03 3.63304E-23
5.88581E-03 3.47146E-23
6.02007E-03 3.31877E-23
6.15583E-03 3.17439E-23
6.29310E-03 3.03777E-23
6.43187E-03 2.90843E-23
6.57214E-03 2.78591E-23
6.71392E-03 2.66977E-23
6.85720E-03 2.55962E-23
7.00198E-03 2.45510E-23
7.14827E-03 2.35586E-23
7.29605E-03 2.26158E-23
7.44534E-03 2.17198E-23
7.59612E-03 2.08677E-23
7.97965E-03 1.89132E-23
8.37255E-03 1.71823E-23
8.77480E-03 1.56449E-23
9.18641E-03 1.42756E-23
9.60736E-03 1.30529E-23
1.00376E-02 1.19581E-23
1.04773E-02 1.09757E-23
1.09262E-02 1.00921E-23
1.13844E-02 9.29551E-24
1.18520E-02 8.57589E-24
1.23288E-02 7.92447E-24
1.28150E-02 7.33365E-24
1.33104E-02 6.79677E-24
1.38150E-02 6.30804E-24
1.43290E-02 5.86236E-24
1.48521E-02 5.45526E-24
1.53845E-02 5.08279E-24
1.59262E-02 4.74149E-24
1.64770E-02 4.42827E-24
1.70371E-02 4.14040E-24
1.76063E-02 3.87547E-24
1.81848E-02 3.63131E-24
1.87724E-02 3.40600E-24
1.93692E-02 3.19783E-24
1.99751E-02 3.00524E-24
2.05901E-02 2.82687E-24
2.12143E-02 2.66146E-24
2.18476E-02 2.50792E-24
2.24900E-02 2.36522E-24
2.31415E-02 2.23248E-24
2.38021E-02 2.10885E-24
2.44717E-02 1.99361E-24
2.51504E-02 1.88608E-24
2.58382E-02 1.78566E-24
2.65349E-02 1.69177E-24
2.72407E-02 1.60393E-24
2.79555E-02 1.52167E-24
2.86793E-02 1.44458E-24
2.94120E-02 1.37226E-24
3.01537E-02 1.30436E-24
3.09043E-02 1.24058E-24
3.16639E-02 1.18061E-24
3.24324E-02 1.12418E-24
3.32098E-02 1.07105E-24
3.39961E-02 1.02099E-24
3.47912E-02 9.73781E-25
3.55952E-02 9.29240E-25
3.64081E-02 8.87186E-25
3.72297E-02 8.47455E-25
3.80602E-02 8.09895E-25
3.88995E-02 7.74366E-25
3.97476E-02 7.40737E-25
4.06044E-02 7.08888E-25
4.14700E-02 6.78708E-25
4.23443E-02 6.50093E-25
4.32273E-02 6.22948E-25
4.41190E-02 5.97183E-25
4.50194E-02 5.72715E-25
4.59284E-02 5.49466E-25
4.68461E-02 5.27365E-25
4.87074E-02 4.86344E-25
5.06030E-02 4.49166E-25
5.25328E-02 4.15410E-25
5.44967E-02 3.84706E-25
5.64946E-02 3.56732E-25
5.85262E-02 3.31201E-25
6.05914E-02 3.07866E-25
6.26901E-02 2.86503E-25
6.48222E-02 2.66918E-25
6.69873E-02 2.48938E-25
6.91854E-02 2.32408E-25
7.14163E-02 2.17192E-25
7.36799E-02 2.03167E-25
7.59760E-02 1.90224E-25
7.83043E-02 1.78265E-25
8.06647E-02 1.67203E-25
8.30571E-02 1.56960E-25
8.54812E-02 1.47463E-25
8.79369E-02 1.38650E-25
9.04240E-02 1.30463E-25
9.29422E-02 1.22850E-25
9.54915E-02 1.15765E-25
9.80716E-02 1.09163E-25
1.00682E-01 1.03008E-25
1.03323E-01 9.72629E-26
1.05995E-01 9.18967E-26
1.08696E-01 8.68801E-26
1.11427E-01 8.21866E-26
1.14188E-01 7.77918E-26
1.16978E-01 7.36738E-26
1.19797E-01 6.98121E-26
1.22645E-01 6.61882E-26
1.25522E-01 6.27851E-26
1.28428E-01 5.95871E-26
1.31361E-01 5.65800E-26
1.34323E-01 5.37503E-26
1.37313E-01 5.10861E-26
1.40330E-01 4.85760E-26
1.43375E-01 4.62098E-26
1.46447E-01 4.39779E-26
1.49545E-01 4.18714E-26
1.52671E-01 3.98822E-26
1.55823E-01 3.80027E-26
1.59001E-01 3.62260E-26
1.62205E-01 3.45455E-26
1.65435E-01 3.29553E-26
1.68690E-01 3.14496E-26
1.71970E-01 3.00235E-26
1.75276E-01 2.86719E-26
1.78606E-01 2.73904E-26
1.81961E-01 2.61749E-26
1.85340E-01 2.50214E-26
1.88743E-01 2.39263E-26
1.92169E-01 2.28861E-26
1.95619E-01 2.18978E-26
1.99092E-01 2.09583E-26
2.02589E-01 2.00650E-26
2.06107E-01 1.92151E-26
2.09649E-01 1.84063E-26
2.13212E-01 1.76363E-26
2.16797E-01 1.69029E-26
2.20404E-01 1.62042E-26
2.24032E-01 1.55384E-26
2.27680E-01 1.49036E-26
2.31350E-01 1.42981E-26
2.35040E-01 1.37205E-26
2.38751E-01 1.31693E-26
2.42481E-01 1.26432E-26
2.46231E-01 1.21407E-26
2.50000E-01 1.16607E-26
2.53788E-01 1.12022E-26
2.57595E-01 1.07639E-26
2.61421E-01 1.03448E-26
2.65264E-01 9.94409E-27
2.69126E-01 9.56076E-27
2.73005E-01 9.19399E-27
2.76901E-01 8.84295E-27
2.80814E-01 8.50689E-27
2.84744E-01 8.18509E-27
2.88691E-01 7.87686E-27
2.92653E-01 7.58156E-27
2.96632E-01 7.29858E-27
3.00625E-01 7.02734E-27
3.04634E-01 6.76730E-27
3.08658E-01 6.51793E-27
3.12697E-01 6.27874E-27
3.16749E-01 6.04927E-27
3.20816E-01 5.82907E-27
3.24896E-01 5.61773E-27
3.28990E-01 5.41484E-27
3.33097E-01 5.22003E-27
3.37216E-01 5.03294E-27
3.41348E-01 4.85322E-27
3.45492E-01 4.68056E-27
3.49647E-01 4.51465E-27
3.53814E-01 4.35518E-27
3.57992E-01 4.20189E-27
3.62181E-01 4.05450E-27
3.66381E-01 3.91276E-27
3.70590E-01 3.77644E-27
3.74810E-01 3.64530E-27
3.79039E-01 3.51913E-27
3.83277E-01 3.39771E-27
3.87524E-01 3.28085E-27
3.91780E-01 3.16836E-27
3.96044E-01 3.06006E-27
4.00316E-01 2.95577E-27
4.04596E-01 2.85534E-27
4.08882E-01 2.75860E-27
4.13176E-01 2.66541E-27
4.17476E-01 2.57561E-27
4.21783E-01 2.48909E-27
4.26095E-01 2.40570E-27
4.30413E-01 2.32532E-27
4.34737E-01 2.24783E-27
4.39065E-01 2.17311E-27
4.43398E-01 2.10107E-27
4.47736E-01 2.03159E-27
4.52077E-01 1.96457E-27
4.56422E-01 1.89992E-27
4.60770E-01 1.83755E-27
4.65122E-01 1.77736E-27
4.69476E-01 1.71929E-27
4.73832E-01 1.66323E-27
4.78190E-01 1.60913E-27
4.82550E-01 1.55690E-27
4.86912E-01 1.50647E-27
4.91274E-01 1.45778E-27
4.95637E-01 1.41076E-27
5.00000E-01 1.36535E-27
5.04363E-01 1.32148E-27
5.08726E-01 1.27911E-27
5.13088E-01 1.23818E-27
5.17450E-01 1.19863E-27
5.21810E-01 1.16041E-27
5.26168E-01 1.12348E-27
5.30524E-01 1.08778E-27
5.34878E-01 1.05328E-27
5.39230E-01 1.01993E-27
5.43578E-01 9.87691E-28
5.47923E-01 9.56517E-28
5.52264E-01 9.26375E-28
5.56602E-01 8.97227E-28
5.60935E-01 8.69038E-28
5.65263E-01 8.41773E-28
5.69587E-01 8.15401E-28
5.73905E-01 7.89890E-28
5.78217E-01 7.65210E-28
5.82524E-01 7.41331E-28
5.86824E-01 7.18227E-28
5.91118E-01 6.95869E-28
5.95404E-01 6.74232E-28
5.99684E-01 6.53292E-28
6.03956E-01 6.33024E-28
6.08220E-01 6.13405E-28
6.12476E-01 5.94413E-28
6.16723E-01 5.76027E-28
6.20961E-01 5.58226E-28
6.25190E-01 5.40990E-28
6.29410E-01 5.24300E-28
6.33619E-01 5.08137E-28
6.37819E-01 4.92485E-28
6.42008E-01 4.77325E-28
6.46186E-01 4.62641E-28
6.50353E-01 4.48418E-28
6.54508E-01 4.34640E-28
6.58652E-01 4.21292E-28
6.62784E-01 4.08360E-28
6.66903E-01 3.95830E-28
6.71010E-01 3.83690E-28
6.75104E-01 3.71925E-28
6.79184E-01 3.60524E-28
6.83251E-01 3.49476E-28
6.87303E-01 3.38768E-28
6.91342E-01 3.28389E-28
6.95366E-01 3.18328E-28
6.99375E-01 3.08577E-28
7.03368E-01 2.99123E-28
7.07347E-01 2.89959E-28
7.11309E-01 2.81073E-28
7.15256E-01 2.72459E-28
7.19186E-01 2.64106E-28
7.23099E-01 2.56006E-28
7.26995E-01 2.48152E-28
7.30874E-01 2.40536E-28
7.34736E-01 2.33149E-28
7.38579E-01 2.25985E-28
7.42405E-01 2.19037E-28
7.46212E-01 2.12298E-28
7.50000E-01 2.05761E-28
7.53769E-01 1.99420E-28
7.57519E-01 1.93269E-28
7.61249E-01 1.87302E-28
7.64960E-01 1.81513E-28
7.68650E-01 1.75896E-28
7.72320E-01 1.70447E-28
7.75968E-01 1.65160E-28
7.79596E-01 1.60029E-28
7.83203E-01 1.55051E-28
7.86788E-01 1.50220E-28
7.90351E-01 1.45532E-28
7.93893E-01 1.40983E-28
7.97411E-01 1.36568E-28
8.00908E-01 1.32283E-28
8.04381E-01 1.28125E-28
8.07831E-01 1.24089E-28
8.11257E-01 1.20171E-28
8.14660E-01 1.16368E-28
8.18039E-01 1.12677E-28
8.21394E-01 1.09095E-28
8.24724E-01 1.05617E-28
8.28030E-01 1.02241E-28
8.31310E-01 9.89630E-29
8.34565E-01 9.57813E-29
8.37795E-01 9.26925E-29
8.40999E-01 8.96938E-29
8.44177E-01 8.67825E-29
8.47329E-01 8.39560E-29
8.50455E-01 8.12118E-29
8.53553E-01 7.85475E-29
8.56625E-01 7.59607E-29
8.59670E-01 7.34492E-29
8.62687E-01 7.10106E-29
8.65677E-01 6.86429E-29
8.68639E-01 6.63441E-29
8.71572E-01 6.41120E-29
8.74478E-01 6.19447E-29
8.77355E-01 5.98404E-29
8.80203E-01 5.77973E-29
8.83022E-01 5.58135E-29
8.85812E-01 5.38874E-29
8.88573E-01 5.20172E-29
8.91304E-01 5.02015E-29
8.94005E-01 4.84386E-29
8.96677E-01 4.67270E-29
8.99318E-01 4.50653E-29
9.01928E-01 4.34520E-29
9.04508E-01 4.18858E-29
9.07058E-01 4.03654E-29
9.09576E-01 3.88894E-29
9.12063E-01 3.74566E-29
9.14519E-01 3.60659E-29
9.16943E-01 3.47160E-29
9.19335E-01 3.34059E-29
9.21696E-01 3.21343E-29
9.24024E-01 3.09003E-29
9.26320E-01 2.97029E-29
9.28584E-01 2.85410E-29
9.30815E-01 2.74136E-29
9.33013E-01 2.63199E-29
9.35178E-01 2.52589E-29
9.37310E-01 2.42298E-29
9.39409E-01 2.32317E-29
9.41474E-01 2.22638E-29
9.43505E-01 2.13253E-29
9.45503E-01 2.04154E-29
9.47467E-01 1.95334E-29
9.49397E-01 1.86786E-29
9.51293E-01 1.78502E-29
9.53154E-01 1.70476E-29
9.54981E-01 1.62702E-29
9.56773E-01 1.55173E-29
9.58530E-01 1.47882E-29
9.60252E-01 1.40825E-29
9.61940E-01 1.33996E-29
9.63592E-01 1.27388E-29
9.65209E-01 1.20997E-29
9.66790E-01 1.14817E-29
9.68336E-01 1.08844E-29
9.69846E-01 1.03073E-29
9.71321E-01 9.74990E-30
9.72759E-01 9.21175E-30
9.74162E-01 8.69244E-30
9.75528E-01 8.19156E-30
9.76858E-01 7.70870E-30
9.78152E-01 7.24349E-30
9.79410E-01 6.79555E-30
9.80631E-01 6.36452E-30
9.81815E-01 5.95008E-30
9.82963E-01 5.55188E-30
9.84074E-01 5.16962E-30
9.85148E-01 4.80299E-30
9.86185E-01 4.45170E-30
9.87185E-01 4.11549E-30
9.88148E-01 3.79407E-30
9.89074E-01 3.48720E-30
9.89962E-01 3.19464E-30
9.90814E-01 2.91616E-30
9.91627E-01 2.65154E-30
9.92404E-01 2.40058E-30
9.93143E-01 2.16307E-30
9.93844E-01 1.93883E-30
9.94508E-01 1.72768E-30
9.95134E-01 1.52947E-30
9.95722E-01 1.34403E-30
9.96273E-01 1.17122E-30
9.96786E-01 1.01091E-30
9.97261E-01 8.62964E-31
9.97698E-01 7.27277E-31
9.98097E-01 6.03740E-31
9.98459E-01 4.92257E-31
9.98782E-01 3.92739E-31
9.99067E-01 3.05111E-31
9.99315E-01 2.29304E-31
9.99524E-01 1.65260E-31
9.99695E-01 1.12927E-31
9.99829E-01 7.22663E-32
9.99924E-01 4.32456E-32
9.99981E-01 2.58414E-32
1.00000E+00 2.00424E-32
