 #
 # Subroutine ELSEPA. Elastic scattering of electrons and positrons
 #                    by neutral atoms and positive ions
 #
 # Projectile: electron
 # Kinetic energy = 1.00000E+08 eV = 3.67493E+06 a.u.
 #
 # WARNING: High-energy factorization with free-atom DF screening.
 #          Absorption, polarization and exchange corrections are
 #          switched off.
 #          Phase shifts are calculated for the bare nucleus.
 #          Scattering amplitudes are not evaluated.
 #
 # Element: Cr,  Z =  24,  atomic weight = 5.19961E+01 g/mol
 #
 # Nuclear model: Fermi distribution
 #                Average radius = 3.99369E-13 cm
 #                Skin thickness = 5.46000E-14 cm
 #
 # Number of electrons = 24
 #
 # Total elastic cross section = 1.79148E-18 cm**2 = 6.39747E-02 a0**2
 # 1st transport cross section = 1.18731E-25 cm**2 = 4.23998E-09 a0**2
 # 2nd transport cross section = 3.52630E-25 cm**2 = 1.25927E-08 a0**2
 #
 #
 # Differential cross section:                       MU=(1-COS(THETA))/2
 #
 #  THETA        MU          DCS          DCS        Sherman      error
 #  (deg)                 (cm**2/sr)   (a0**2/sr)    function
 #----------------------------------------------------------------------
0.00000E+00 1.86758E-10
7.61557E-13 1.86115E-10
1.18994E-12 1.85756E-10
1.71346E-12 1.85319E-10
2.33225E-12 1.84804E-10
3.04617E-12 1.84213E-10
3.85530E-12 1.83547E-10
4.75964E-12 1.82809E-10
5.75917E-12 1.81998E-10
6.85391E-12 1.81117E-10
8.04379E-12 1.80168E-10
9.32893E-12 1.79153E-10
1.07092E-11 1.78074E-10
1.21847E-11 1.76933E-10
1.37554E-11 1.75732E-10
1.54213E-11 1.74474E-10
1.71823E-11 1.73162E-10
1.90386E-11 1.71796E-10
2.09900E-11 1.70382E-10
2.30367E-11 1.68919E-10
2.51785E-11 1.67412E-10
2.74156E-11 1.65862E-10
2.97478E-11 1.64275E-10
3.21752E-11 1.62651E-10
3.46979E-11 1.60994E-10
3.73157E-11 1.59304E-10
4.00286E-11 1.57586E-10
4.28368E-11 1.55842E-10
4.57402E-11 1.54075E-10
4.87388E-11 1.52288E-10
5.18325E-11 1.50483E-10
5.50215E-11 1.48660E-10
5.83057E-11 1.46824E-10
6.16850E-11 1.44978E-10
6.51595E-11 1.43123E-10
6.87293E-11 1.41262E-10
7.23943E-11 1.39395E-10
7.61544E-11 1.37524E-10
1.18991E-10 1.19071E-10
1.71347E-10 1.01963E-10
2.33223E-10 8.69226E-11
3.04617E-10 7.41234E-11
3.85531E-10 6.34226E-11
4.75965E-10 5.45417E-11
5.75917E-10 4.71738E-11
6.85389E-10 4.10357E-11
8.04380E-10 3.58822E-11
9.32891E-10 3.15286E-11
1.07092E-09 2.78225E-11
1.21847E-09 2.46447E-11
1.37554E-09 2.19013E-11
1.54213E-09 1.95177E-11
1.71823E-09 1.74329E-11
1.90386E-09 1.56050E-11
2.09900E-09 1.39961E-11
2.30367E-09 1.25536E-11
2.51785E-09 1.11975E-11
2.74156E-09 1.00479E-11
2.97478E-09 9.06763E-12
3.21752E-09 8.22679E-12
3.46978E-09 7.50161E-12
3.73156E-09 6.78217E-12
4.00286E-09 6.12476E-12
4.28368E-09 5.55466E-12
4.57402E-09 5.05804E-12
4.87388E-09 4.62355E-12
5.18326E-09 4.22906E-12
5.50215E-09 3.84523E-12
5.83057E-09 3.50755E-12
6.16850E-09 3.20942E-12
6.51596E-09 2.94531E-12
6.87293E-09 2.71058E-12
7.23942E-09 2.48669E-12
7.61544E-09 2.28336E-12
1.18991E-08 1.06385E-12
1.71347E-08 5.59840E-13
2.33223E-08 3.26256E-13
3.04617E-08 2.05419E-13
3.85531E-08 1.36789E-13
4.75965E-08 9.48820E-14
5.75917E-08 6.78668E-14
6.85389E-08 4.97213E-14
8.04380E-08 3.71578E-14
9.32891E-08 2.82601E-14
1.07092E-07 2.18279E-14
1.21847E-07 1.70961E-14
1.37554E-07 1.35618E-14
1.54213E-07 1.08853E-14
1.71823E-07 8.83198E-15
1.90386E-07 7.23806E-15
2.09900E-07 5.98666E-15
2.30367E-07 4.99364E-15
2.51785E-07 4.19776E-15
2.74156E-07 3.55602E-15
2.97478E-07 3.03155E-15
3.21752E-07 2.60130E-15
3.46978E-07 2.24466E-15
3.73156E-07 1.94756E-15
4.00286E-07 1.69816E-15
4.28368E-07 1.48767E-15
4.57402E-07 1.30896E-15
4.87388E-07 1.15636E-15
5.18325E-07 1.02553E-15
5.50215E-07 9.12676E-16
5.83057E-07 8.15095E-16
6.16850E-07 7.30132E-16
6.51596E-07 6.56089E-16
6.87293E-07 5.91140E-16
7.23942E-07 5.34106E-16
7.61543E-07 4.83766E-16
1.18991E-06 2.01827E-16
1.71347E-06 9.84644E-17
2.33223E-06 5.35391E-17
3.04617E-06 3.15308E-17
3.85531E-06 1.97459E-17
4.75964E-06 1.29830E-17
5.75916E-06 8.88093E-18
6.85388E-06 6.27747E-18
8.04378E-06 4.56140E-18
9.32888E-06 3.39345E-18
1.07092E-05 2.57640E-18
1.21846E-05 1.99105E-18
1.37553E-05 1.56287E-18
1.54212E-05 1.24383E-18
1.71822E-05 1.00220E-18
1.90385E-05 8.16452E-19
2.09899E-05 6.71899E-19
2.30365E-05 5.57957E-19
2.51783E-05 4.67162E-19
2.74153E-05 3.94094E-19
2.97475E-05 3.34763E-19
3.21749E-05 2.86189E-19
3.46974E-05 2.46119E-19
3.73152E-05 2.12829E-19
4.00281E-05 1.84986E-19
4.28362E-05 1.61554E-19
4.57395E-05 1.41718E-19
4.87380E-05 1.24834E-19
5.18317E-05 1.10391E-19
5.50205E-05 9.79773E-20
5.83045E-05 8.72603E-20
6.16838E-05 7.79698E-20
6.51582E-05 6.98844E-20
6.87277E-05 6.28213E-20
7.23925E-05 5.66291E-20
7.61524E-05 5.11772E-20
9.21439E-05 3.49702E-20
1.09658E-04 2.47015E-20
1.28695E-04 1.79416E-20
1.49255E-04 1.33441E-20
1.71338E-04 1.01301E-20
1.94942E-04 7.82820E-21
2.20070E-04 6.14481E-21
2.46720E-04 4.89074E-21
2.74892E-04 3.94097E-21
3.04586E-04 3.21108E-21
3.35803E-04 2.64266E-21
3.68542E-04 2.19468E-21
4.02802E-04 1.83777E-21
4.38585E-04 1.55058E-21
4.75889E-04 1.31739E-21
5.14715E-04 1.12644E-21
5.55063E-04 9.68887E-22
5.96931E-04 8.37949E-22
6.40321E-04 7.28409E-22
6.85233E-04 6.36205E-22
7.31665E-04 5.58142E-22
7.79618E-04 4.91698E-22
8.29092E-04 4.34854E-22
8.80086E-04 3.85995E-22
9.32601E-04 3.43811E-22
9.86636E-04 3.07236E-22
1.04219E-03 2.75398E-22
1.09927E-03 2.47580E-22
1.15786E-03 2.23187E-22
1.21797E-03 2.01726E-22
1.27961E-03 1.82783E-22
1.34276E-03 1.66012E-22
1.40743E-03 1.51121E-22
1.47362E-03 1.37862E-22
1.54133E-03 1.26026E-22
1.61056E-03 1.15432E-22
1.68131E-03 1.05928E-22
1.75357E-03 9.73820E-23
1.82735E-03 8.96800E-23
1.90265E-03 8.27241E-23
1.97947E-03 7.64293E-23
2.05780E-03 7.07214E-23
2.13765E-03 6.55361E-23
2.21902E-03 6.08169E-23
2.30190E-03 5.65144E-23
2.38630E-03 5.25854E-23
2.47222E-03 4.89914E-23
2.55965E-03 4.56989E-23
2.64859E-03 4.26779E-23
2.73905E-03 3.99021E-23
2.83103E-03 3.73480E-23
2.92452E-03 3.49946E-23
3.01952E-03 3.28233E-23
3.11604E-03 3.08174E-23
3.21407E-03 2.89622E-23
3.31362E-03 2.72441E-23
3.41468E-03 2.56512E-23
3.51725E-03 2.41728E-23
3.62133E-03 2.27990E-23
3.72692E-03 2.15212E-23
3.83403E-03 2.03314E-23
3.94265E-03 1.92224E-23
4.05278E-03 1.81878E-23
4.16442E-03 1.72216E-23
4.27757E-03 1.63185E-23
4.39223E-03 1.54736E-23
4.50840E-03 1.46824E-23
4.62608E-03 1.39410E-23
4.74527E-03 1.32456E-23
4.86597E-03 1.25928E-23
4.98817E-03 1.19795E-23
5.11188E-03 1.14030E-23
5.23711E-03 1.08605E-23
5.36383E-03 1.03498E-23
5.49207E-03 9.86852E-24
5.62181E-03 9.41477E-24
5.75306E-03 8.98666E-24
5.88581E-03 8.58246E-24
6.02007E-03 8.20060E-24
6.15583E-03 7.83960E-24
6.29310E-03 7.49812E-24
6.43187E-03 7.17491E-24
6.57214E-03 6.86881E-24
6.71392E-03 6.57874E-24
6.85720E-03 6.30371E-24
7.00198E-03 6.04279E-24
7.14827E-03 5.79513E-24
7.29605E-03 5.55993E-24
7.44534E-03 5.33644E-24
7.59612E-03 5.12397E-24
7.97965E-03 4.63691E-24
8.37255E-03 4.20587E-24
8.77480E-03 3.82332E-24
9.18641E-03 3.48288E-24
9.60736E-03 3.17911E-24
1.00376E-02 2.90740E-24
1.04773E-02 2.66376E-24
1.09262E-02 2.44482E-24
1.13844E-02 2.24763E-24
1.18520E-02 2.06966E-24
1.23288E-02 1.90871E-24
1.28150E-02 1.76288E-24
1.33104E-02 1.63050E-24
1.38150E-02 1.51011E-24
1.43290E-02 1.40044E-24
1.48521E-02 1.30038E-24
1.53845E-02 1.20893E-24
1.59262E-02 1.12523E-24
1.64770E-02 1.04850E-24
1.70371E-02 9.78065E-25
1.76063E-02 9.13320E-25
1.81848E-02 8.53726E-25
1.87724E-02 7.98801E-25
1.93692E-02 7.48117E-25
1.99751E-02 7.01291E-25
2.05901E-02 6.57977E-25
2.12143E-02 6.17867E-25
2.18476E-02 5.80684E-25
2.24900E-02 5.46177E-25
2.31415E-02 5.14120E-25
2.38021E-02 4.84311E-25
2.44717E-02 4.56564E-25
2.51504E-02 4.30712E-25
2.58382E-02 4.06605E-25
2.65349E-02 3.84103E-25
2.72407E-02 3.63083E-25
2.79555E-02 3.43430E-25
2.86793E-02 3.25040E-25
2.94120E-02 3.07819E-25
3.01537E-02 2.91679E-25
3.09043E-02 2.76541E-25
3.16639E-02 2.62333E-25
3.24324E-02 2.48988E-25
3.32098E-02 2.36444E-25
3.39961E-02 2.24647E-25
3.47912E-02 2.13543E-25
3.55952E-02 2.03085E-25
3.64081E-02 1.93231E-25
3.72297E-02 1.83938E-25
3.80602E-02 1.75170E-25
3.88995E-02 1.66893E-25
3.97476E-02 1.59073E-25
4.06044E-02 1.51683E-25
4.14700E-02 1.44695E-25
4.23443E-02 1.38082E-25
4.32273E-02 1.31823E-25
4.41190E-02 1.25894E-25
4.50194E-02 1.20276E-25
4.59284E-02 1.14950E-25
4.68461E-02 1.09897E-25
4.87074E-02 1.00551E-25
5.06030E-02 9.21201E-26
5.25328E-02 8.45007E-26
5.44967E-02 7.76038E-26
5.64946E-02 7.13508E-26
5.85262E-02 6.56731E-26
6.05914E-02 6.05103E-26
6.26901E-02 5.58089E-26
6.48222E-02 5.15221E-26
6.69873E-02 4.76082E-26
6.91854E-02 4.40304E-26
7.14163E-02 4.07558E-26
7.36799E-02 3.77553E-26
7.59760E-02 3.50029E-26
7.83043E-02 3.24754E-26
8.06647E-02 3.01521E-26
8.30571E-02 2.80142E-26
8.54812E-02 2.60452E-26
8.79369E-02 2.42301E-26
9.04240E-02 2.25552E-26
9.29422E-02 2.10085E-26
9.54915E-02 1.95790E-26
9.80716E-02 1.82566E-26
1.00682E-01 1.70326E-26
1.03323E-01 1.58986E-26
1.05995E-01 1.48473E-26
1.08696E-01 1.38720E-26
1.11427E-01 1.29667E-26
1.14188E-01 1.21257E-26
1.16978E-01 1.13439E-26
1.19797E-01 1.06168E-26
1.22645E-01 9.94019E-27
1.25522E-01 9.31013E-27
1.28428E-01 8.72314E-27
1.31361E-01 8.17598E-27
1.34323E-01 7.66568E-27
1.37313E-01 7.18952E-27
1.40330E-01 6.74501E-27
1.43375E-01 6.32986E-27
1.46447E-01 5.94194E-27
1.49545E-01 5.57932E-27
1.52671E-01 5.24021E-27
1.55823E-01 4.92295E-27
1.59001E-01 4.62602E-27
1.62205E-01 4.34802E-27
1.65435E-01 4.08763E-27
1.68690E-01 3.84366E-27
1.71970E-01 3.61500E-27
1.75276E-01 3.40062E-27
1.78606E-01 3.19955E-27
1.81961E-01 3.01091E-27
1.85340E-01 2.83389E-27
1.88743E-01 2.66772E-27
1.92169E-01 2.51170E-27
1.95619E-01 2.36515E-27
1.99092E-01 2.22748E-27
2.02589E-01 2.09811E-27
2.06107E-01 1.97651E-27
2.09649E-01 1.86220E-27
2.13212E-01 1.75470E-27
2.16797E-01 1.65360E-27
2.20404E-01 1.55848E-27
2.24032E-01 1.46899E-27
2.27680E-01 1.38477E-27
2.31350E-01 1.30549E-27
2.35040E-01 1.23086E-27
2.38751E-01 1.16058E-27
2.42481E-01 1.09440E-27
2.46231E-01 1.03207E-27
2.50000E-01 9.73342E-28
2.53788E-01 9.18015E-28
2.57595E-01 8.65880E-28
2.61421E-01 8.16748E-28
2.65264E-01 7.70438E-28
2.69126E-01 7.26784E-28
2.73005E-01 6.85629E-28
2.76901E-01 6.46826E-28
2.80814E-01 6.10237E-28
2.84744E-01 5.75731E-28
2.88691E-01 5.43188E-28
2.92653E-01 5.12493E-28
2.96632E-01 4.83539E-28
3.00625E-01 4.56225E-28
3.04634E-01 4.30456E-28
3.08658E-01 4.06143E-28
3.12697E-01 3.83203E-28
3.16749E-01 3.61557E-28
3.20816E-01 3.41130E-28
3.24896E-01 3.21854E-28
3.28990E-01 3.03662E-28
3.33097E-01 2.86493E-28
3.37216E-01 2.70289E-28
3.41348E-01 2.54995E-28
3.45492E-01 2.40559E-28
3.49647E-01 2.26934E-28
3.53814E-01 2.14072E-28
3.57992E-01 2.01932E-28
3.62181E-01 1.90473E-28
3.66381E-01 1.79656E-28
3.70590E-01 1.69445E-28
3.74810E-01 1.59807E-28
3.79039E-01 1.50709E-28
3.83277E-01 1.42122E-28
3.87524E-01 1.34015E-28
3.91780E-01 1.26364E-28
3.96044E-01 1.19141E-28
4.00316E-01 1.12324E-28
4.04596E-01 1.05890E-28
4.08882E-01 9.98169E-29
4.13176E-01 9.40853E-29
4.17476E-01 8.86759E-29
4.21783E-01 8.35708E-29
4.26095E-01 7.87531E-29
4.30413E-01 7.42069E-29
4.34737E-01 6.99170E-29
4.39065E-01 6.58691E-29
4.43398E-01 6.20499E-29
4.47736E-01 5.84465E-29
4.52077E-01 5.50471E-29
4.56422E-01 5.18402E-29
4.60770E-01 4.88151E-29
4.65122E-01 4.59618E-29
4.69476E-01 4.32706E-29
4.73832E-01 4.07326E-29
4.78190E-01 3.83391E-29
4.82550E-01 3.60822E-29
4.86912E-01 3.39542E-29
4.91274E-01 3.19480E-29
4.95637E-01 3.00567E-29
5.00000E-01 2.82739E-29
5.04363E-01 2.65936E-29
5.08726E-01 2.50100E-29
5.13088E-01 2.35177E-29
5.17450E-01 2.21115E-29
5.21810E-01 2.07867E-29
5.26168E-01 1.95387E-29
5.30524E-01 1.83631E-29
5.34878E-01 1.72560E-29
5.39230E-01 1.62133E-29
5.43578E-01 1.52315E-29
5.47923E-01 1.43072E-29
5.52264E-01 1.34371E-29
5.56602E-01 1.26181E-29
5.60935E-01 1.18473E-29
5.65263E-01 1.11220E-29
5.69587E-01 1.04396E-29
5.73905E-01 9.79761E-30
5.78217E-01 9.19378E-30
5.82524E-01 8.62592E-30
5.86824E-01 8.09195E-30
5.91118E-01 7.58993E-30
5.95404E-01 7.11803E-30
5.99684E-01 6.67450E-30
6.03956E-01 6.25772E-30
6.08220E-01 5.86613E-30
6.12476E-01 5.49828E-30
6.16723E-01 5.15278E-30
6.20961E-01 4.82834E-30
6.25190E-01 4.52372E-30
6.29410E-01 4.23777E-30
6.33619E-01 3.96939E-30
6.37819E-01 3.71755E-30
6.42008E-01 3.48128E-30
6.46186E-01 3.25965E-30
6.50353E-01 3.05181E-30
6.54508E-01 2.85692E-30
6.58652E-01 2.67423E-30
6.62784E-01 2.50300E-30
6.66903E-01 2.34254E-30
6.71010E-01 2.19222E-30
6.75104E-01 2.05142E-30
6.79184E-01 1.91956E-30
6.83251E-01 1.79611E-30
6.87303E-01 1.68055E-30
6.91342E-01 1.57240E-30
6.95366E-01 1.47122E-30
6.99375E-01 1.37656E-30
7.03368E-01 1.28804E-30
7.07347E-01 1.20527E-30
7.11309E-01 1.12789E-30
7.15256E-01 1.05558E-30
7.19186E-01 9.88010E-31
7.23099E-01 9.24887E-31
7.26995E-01 8.65931E-31
7.30874E-01 8.10880E-31
7.34736E-01 7.59486E-31
7.38579E-01 7.11517E-31
7.42405E-01 6.66753E-31
7.46212E-01 6.24988E-31
7.50000E-01 5.86031E-31
7.53769E-01 5.49698E-31
7.57519E-01 5.15820E-31
7.61249E-01 4.84236E-31
7.64960E-01 4.54795E-31
7.68650E-01 4.27357E-31
7.72320E-01 4.01789E-31
7.75968E-01 3.77967E-31
7.79596E-01 3.55773E-31
7.83203E-01 3.35098E-31
7.86788E-01 3.15841E-31
7.90351E-01 2.97904E-31
7.93893E-01 2.81197E-31
7.97411E-01 2.65637E-31
8.00908E-01 2.51144E-31
8.04381E-01 2.37644E-31
8.07831E-01 2.25067E-31
8.11257E-01 2.13350E-31
8.14660E-01 2.02432E-31
8.18039E-01 1.92255E-31
8.21394E-01 1.82767E-31
8.24724E-01 1.73919E-31
8.28030E-01 1.65664E-31
8.31310E-01 1.57959E-31
8.34565E-01 1.50764E-31
8.37795E-01 1.44042E-31
8.40999E-01 1.37757E-31
8.44177E-01 1.31878E-31
8.47329E-01 1.26372E-31
8.50455E-01 1.21214E-31
8.53553E-01 1.16375E-31
8.56625E-01 1.11833E-31
8.59670E-01 1.07563E-31
8.62687E-01 1.03545E-31
8.65677E-01 9.97601E-32
8.68639E-01 9.61891E-32
8.71572E-01 9.28155E-32
8.74478E-01 8.96239E-32
8.77355E-01 8.65997E-32
8.80203E-01 8.37296E-32
8.83022E-01 8.10014E-32
8.85812E-01 7.84036E-32
8.88573E-01 7.59257E-32
8.91304E-01 7.35581E-32
8.94005E-01 7.12920E-32
8.96677E-01 6.91190E-32
8.99318E-01 6.70318E-32
9.01928E-01 6.50233E-32
9.04508E-01 6.30874E-32
9.07058E-01 6.12181E-32
9.09576E-01 5.94103E-32
9.12063E-01 5.76591E-32
9.14519E-01 5.59601E-32
9.16943E-01 5.43094E-32
9.19335E-01 5.27033E-32
9.21696E-01 5.11386E-32
9.24024E-01 4.96123E-32
9.26320E-01 4.81218E-32
9.28584E-01 4.66647E-32
9.30815E-01 4.52388E-32
9.33013E-01 4.38423E-32
9.35178E-01 4.24734E-32
9.37310E-01 4.11307E-32
9.39409E-01 3.98128E-32
9.41474E-01 3.85186E-32
9.43505E-01 3.72472E-32
9.45503E-01 3.59976E-32
9.47467E-01 3.47692E-32
9.49397E-01 3.35612E-32
9.51293E-01 3.23733E-32
9.53154E-01 3.12050E-32
9.54981E-01 3.00560E-32
9.56773E-01 2.89260E-32
9.58530E-01 2.78149E-32
9.60252E-01 2.67225E-32
9.61940E-01 2.56489E-32
9.63592E-01 2.45940E-32
9.65209E-01 2.35579E-32
9.66790E-01 2.25406E-32
9.68336E-01 2.15423E-32
9.69846E-01 2.05632E-32
9.71321E-01 1.96033E-32
9.72759E-01 1.86631E-32
9.74162E-01 1.77426E-32
9.75528E-01 1.68421E-32
9.76858E-01 1.59619E-32
9.78152E-01 1.51022E-32
9.79410E-01 1.42634E-32
9.80631E-01 1.34457E-32
9.81815E-01 1.26494E-32
9.82963E-01 1.18749E-32
9.84074E-01 1.11223E-32
9.85148E-01 1.03921E-32
9.86185E-01 9.68443E-33
9.87185E-01 8.99969E-33
9.88148E-01 8.33814E-33
9.89074E-01 7.70006E-33
9.89962E-01 7.08573E-33
9.90814E-01 6.49543E-33
9.91627E-01 5.92941E-33
9.92404E-01 5.38793E-33
9.93143E-01 4.87123E-33
9.93844E-01 4.37957E-33
9.94508E-01 3.91315E-33
9.95134E-01 3.47220E-33
9.95722E-01 3.05692E-33
9.96273E-01 2.66750E-33
9.96786E-01 2.30414E-33
9.97261E-01 1.96699E-33
9.97698E-01 1.65622E-33
9.98097E-01 1.37199E-33
9.98459E-01 1.11441E-33
9.98782E-01 8.83610E-34
9.99067E-01 6.79707E-34
9.99315E-01 5.02795E-34
9.99524E-01 3.52956E-34
9.99695E-01 2.30263E-34
9.99829E-01 1.34775E-34
9.99924E-01 6.65343E-35
9.99981E-01 2.55820E-35
1.00000E+00 1.19241E-35
