 #
 # Subroutine ELSEPA. Elastic scattering of electrons and positrons
 #                    by neutral atoms and positive ions
 #
 # Projectile: electron
 # Kinetic energy = 6.00000E+06 eV = 2.20496E+05 a.u.
 #
 # WARNING: High-energy factorization with free-atom DF screening.
 #          Absorption, polarization and exchange corrections are
 #          switched off.
 #          Phase shifts are calculated for the bare nucleus.
 #          Scattering amplitudes are not evaluated.
 #
 # Element: Cr,  Z =  24,  atomic weight = 5.19961E+01 g/mol
 #
 # Nuclear model: Fermi distribution
 #                Average radius = 3.99369E-13 cm
 #                Skin thickness = 5.46000E-14 cm
 #
 # Number of electrons = 24
 #
 # Total elastic cross section = 1.80270E-18 cm**2 = 6.43755E-02 a0**2
 # 1st transport cross section = 2.20557E-23 cm**2 = 7.87624E-07 a0**2
 # 2nd transport cross section = 6.28264E-23 cm**2 = 2.24357E-06 a0**2
 #
 #
 # Differential cross section:                       MU=(1-COS(THETA))/2
 #
 #  THETA        MU          DCS          DCS        Sherman      error
 #  (deg)                 (cm**2/sr)   (a0**2/sr)    function
 #----------------------------------------------------------------------
0.00000E+00 7.83696E-13
7.61557E-13 7.83684E-13
1.18994E-12 7.83678E-13
1.71346E-12 7.83670E-13
2.33225E-12 7.83661E-13
3.04617E-12 7.83650E-13
3.85530E-12 7.83638E-13
4.75964E-12 7.83625E-13
5.75917E-12 7.83610E-13
6.85391E-12 7.83594E-13
8.04379E-12 7.83576E-13
9.32893E-12 7.83557E-13
1.07092E-11 7.83537E-13
1.21847E-11 7.83515E-13
1.37554E-11 7.83492E-13
1.54213E-11 7.83467E-13
1.71823E-11 7.83441E-13
1.90386E-11 7.83414E-13
2.09900E-11 7.83385E-13
2.30367E-11 7.83355E-13
2.51785E-11 7.83323E-13
2.74156E-11 7.83290E-13
2.97478E-11 7.83256E-13
3.21752E-11 7.83220E-13
3.46979E-11 7.83183E-13
3.73157E-11 7.83144E-13
4.00286E-11 7.83104E-13
4.28368E-11 7.83062E-13
4.57402E-11 7.83020E-13
4.87388E-11 7.82975E-13
5.18325E-11 7.82930E-13
5.50215E-11 7.82882E-13
5.83057E-11 7.82834E-13
6.16850E-11 7.82784E-13
6.51595E-11 7.82733E-13
6.87293E-11 7.82680E-13
7.23943E-11 7.82626E-13
7.61544E-11 7.82571E-13
1.18991E-10 7.81939E-13
1.71347E-10 7.81169E-13
2.33223E-10 7.80260E-13
3.04617E-10 7.79214E-13
3.85531E-10 7.78031E-13
4.75965E-10 7.76713E-13
5.75917E-10 7.75261E-13
6.85389E-10 7.73676E-13
8.04380E-10 7.71959E-13
9.32891E-10 7.70112E-13
1.07092E-09 7.68137E-13
1.21847E-09 7.66036E-13
1.37554E-09 7.63809E-13
1.54213E-09 7.61461E-13
1.71823E-09 7.58991E-13
1.90386E-09 7.56404E-13
2.09900E-09 7.53700E-13
2.30367E-09 7.50882E-13
2.51785E-09 7.47953E-13
2.74156E-09 7.44915E-13
2.97478E-09 7.41770E-13
3.21752E-09 7.38522E-13
3.46978E-09 7.35173E-13
3.73156E-09 7.31725E-13
4.00286E-09 7.28181E-13
4.28368E-09 7.24545E-13
4.57402E-09 7.20819E-13
4.87388E-09 7.17006E-13
5.18326E-09 7.13108E-13
5.50215E-09 7.09129E-13
5.83057E-09 7.05069E-13
6.16850E-09 7.00935E-13
6.51596E-09 6.96730E-13
6.87293E-09 6.92456E-13
7.23942E-09 6.88118E-13
7.61544E-09 6.83717E-13
1.18991E-08 6.36893E-13
1.71347E-08 5.86955E-13
2.33223E-08 5.36418E-13
3.04617E-08 4.87241E-13
3.85531E-08 4.40778E-13
4.75965E-08 3.97838E-13
5.75917E-08 3.58790E-13
6.85389E-08 3.23671E-13
8.04380E-08 2.92334E-13
9.32891E-08 2.64502E-13
1.07092E-07 2.39837E-13
1.21847E-07 2.17990E-13
1.37554E-07 1.98597E-13
1.54213E-07 1.81353E-13
1.71823E-07 1.65993E-13
1.90386E-07 1.52272E-13
2.09900E-07 1.39977E-13
2.30367E-07 1.28920E-13
2.51785E-07 1.18918E-13
2.74156E-07 1.09871E-13
2.97478E-07 1.01665E-13
3.21752E-07 9.41999E-14
3.46978E-07 8.73929E-14
3.73156E-07 8.11549E-14
4.00286E-07 7.54347E-14
4.28368E-07 7.01863E-14
4.57402E-07 6.53624E-14
4.87388E-07 6.09213E-14
5.18325E-07 5.68237E-14
5.50215E-07 5.29625E-14
5.83057E-07 4.91508E-14
6.16850E-07 4.57302E-14
6.51596E-07 4.26527E-14
6.87293E-07 3.98769E-14
7.23942E-07 3.73672E-14
7.61543E-07 3.50927E-14
1.18991E-06 1.89256E-14
1.71347E-06 1.06723E-14
2.33223E-06 6.34014E-15
3.04617E-06 3.98043E-15
3.85531E-06 2.62908E-15
4.75964E-06 1.81579E-15
5.75916E-06 1.30241E-15
6.85388E-06 9.63327E-16
8.04378E-06 7.30756E-16
9.32888E-06 5.65816E-16
1.07092E-05 4.45516E-16
1.21846E-05 3.55710E-16
1.37553E-05 2.87269E-16
1.54212E-05 2.34287E-16
1.71822E-05 1.92815E-16
1.90385E-05 1.59974E-16
2.09899E-05 1.33729E-16
2.30365E-05 1.12542E-16
2.51783E-05 9.52828E-17
2.74153E-05 8.11476E-17
2.97475E-05 6.94949E-17
3.21749E-05 5.98305E-17
3.46974E-05 5.17693E-17
3.73152E-05 4.50056E-17
4.00281E-05 3.93022E-17
4.28362E-05 3.44692E-17
4.57395E-05 3.03530E-17
4.87380E-05 2.68307E-17
5.18317E-05 2.38032E-17
5.50205E-05 2.11889E-17
5.83045E-05 1.89216E-17
6.16838E-05 1.69531E-17
6.51582E-05 1.52374E-17
6.87277E-05 1.37310E-17
7.23925E-05 1.24073E-17
7.61524E-05 1.12413E-17
9.21439E-05 7.75152E-18
1.09658E-04 5.52100E-18
1.28695E-04 4.04112E-18
1.49255E-04 3.02708E-18
1.71338E-04 2.31298E-18
1.94942E-04 1.79800E-18
2.20070E-04 1.41880E-18
2.46720E-04 1.13456E-18
2.74892E-04 9.18084E-19
3.04586E-04 7.50870E-19
3.35803E-04 6.20033E-19
3.68542E-04 5.16476E-19
4.02802E-04 4.33627E-19
4.38585E-04 3.66732E-19
4.75889E-04 3.12244E-19
5.14715E-04 2.67500E-19
5.55063E-04 2.30486E-19
5.96931E-04 1.99649E-19
6.40321E-04 1.73796E-19
6.85233E-04 1.51993E-19
7.31665E-04 1.33503E-19
7.79618E-04 1.17739E-19
8.29092E-04 1.04234E-19
8.80086E-04 9.26092E-20
9.32601E-04 8.25607E-20
9.86636E-04 7.38388E-20
1.04219E-03 6.62389E-20
1.09927E-03 5.95923E-20
1.15786E-03 5.37588E-20
1.21797E-03 4.86221E-20
1.27961E-03 4.40848E-20
1.34276E-03 4.00649E-20
1.40743E-03 3.64933E-20
1.47362E-03 3.33112E-20
1.54133E-03 3.04686E-20
1.61056E-03 2.79232E-20
1.68131E-03 2.56384E-20
1.75357E-03 2.35828E-20
1.82735E-03 2.17294E-20
1.90265E-03 2.00548E-20
1.97947E-03 1.85386E-20
2.05780E-03 1.71632E-20
2.13765E-03 1.59132E-20
2.21902E-03 1.47751E-20
2.30190E-03 1.37371E-20
2.38630E-03 1.27888E-20
2.47222E-03 1.19211E-20
2.55965E-03 1.11259E-20
2.64859E-03 1.03960E-20
2.73905E-03 9.72511E-21
2.83103E-03 9.10756E-21
2.92452E-03 8.53836E-21
3.01952E-03 8.01302E-21
3.11604E-03 7.52756E-21
3.21407E-03 7.07838E-21
3.31362E-03 6.66229E-21
3.41468E-03 6.27639E-21
3.51725E-03 5.91809E-21
3.62133E-03 5.58506E-21
3.72692E-03 5.27518E-21
3.83403E-03 4.98654E-21
3.94265E-03 4.71743E-21
4.05278E-03 4.46627E-21
4.16442E-03 4.23165E-21
4.27757E-03 4.01227E-21
4.39223E-03 3.80697E-21
4.50840E-03 3.61466E-21
4.62608E-03 3.43437E-21
4.74527E-03 3.26522E-21
4.86597E-03 3.10638E-21
4.98817E-03 2.95711E-21
5.11188E-03 2.81672E-21
5.23711E-03 2.68459E-21
5.36383E-03 2.56014E-21
5.49207E-03 2.44284E-21
5.62181E-03 2.33220E-21
5.75306E-03 2.22777E-21
5.88581E-03 2.12914E-21
6.02007E-03 2.03592E-21
6.15583E-03 1.94777E-21
6.29310E-03 1.86435E-21
6.43187E-03 1.78536E-21
6.57214E-03 1.71052E-21
6.71392E-03 1.63958E-21
6.85720E-03 1.57229E-21
7.00198E-03 1.50843E-21
7.14827E-03 1.44778E-21
7.29605E-03 1.39017E-21
7.44534E-03 1.33540E-21
7.59612E-03 1.28331E-21
7.97965E-03 1.16381E-21
8.37255E-03 1.05795E-21
8.77480E-03 9.63889E-22
9.18641E-03 8.80089E-22
9.60736E-03 8.05231E-22
1.00376E-02 7.38192E-22
1.04773E-02 6.78010E-22
1.09262E-02 6.23859E-22
1.13844E-02 5.75026E-22
1.18520E-02 5.30896E-22
1.23288E-02 4.90935E-22
1.28150E-02 4.54677E-22
1.33104E-02 4.21717E-22
1.38150E-02 3.91702E-22
1.43290E-02 3.64320E-22
1.48521E-02 3.39298E-22
1.53845E-02 3.16396E-22
1.59262E-02 2.95401E-22
1.64770E-02 2.76126E-22
1.70371E-02 2.58403E-22
1.76063E-02 2.42085E-22
1.81848E-02 2.27041E-22
1.87724E-02 2.13151E-22
1.93692E-02 2.00312E-22
1.99751E-02 1.88428E-22
2.05901E-02 1.77417E-22
2.12143E-02 1.67201E-22
2.18476E-02 1.57713E-22
2.24900E-02 1.48891E-22
2.31415E-02 1.40679E-22
2.38021E-02 1.33029E-22
2.44717E-02 1.25893E-22
2.51504E-02 1.19231E-22
2.58382E-02 1.13006E-22
2.65349E-02 1.07183E-22
2.72407E-02 1.01733E-22
2.79555E-02 9.66250E-23
2.86793E-02 9.18353E-23
2.94120E-02 8.73398E-23
3.01537E-02 8.31170E-23
3.09043E-02 7.91473E-23
3.16639E-02 7.54127E-23
3.24324E-02 7.18965E-23
3.32098E-02 6.85837E-23
3.39961E-02 6.54602E-23
3.47912E-02 6.25131E-23
3.55952E-02 5.97305E-23
3.64081E-02 5.71016E-23
3.72297E-02 5.46163E-23
3.80602E-02 5.22651E-23
3.88995E-02 5.00396E-23
3.97476E-02 4.79316E-23
4.06044E-02 4.59338E-23
4.14700E-02 4.40393E-23
4.23443E-02 4.22418E-23
4.32273E-02 4.05354E-23
4.41190E-02 3.89145E-23
4.50194E-02 3.73740E-23
4.59284E-02 3.59093E-23
4.68461E-02 3.45158E-23
4.87074E-02 3.19263E-23
5.06030E-02 2.95757E-23
5.25328E-02 2.74380E-23
5.44967E-02 2.54904E-23
5.64946E-02 2.37129E-23
5.85262E-02 2.20879E-23
6.05914E-02 2.06000E-23
6.26901E-02 1.92354E-23
6.48222E-02 1.79821E-23
6.69873E-02 1.68294E-23
6.91854E-02 1.57676E-23
7.14163E-02 1.47882E-23
7.36799E-02 1.38838E-23
7.59760E-02 1.30475E-23
7.83043E-02 1.22731E-23
8.06647E-02 1.15554E-23
8.30571E-02 1.08893E-23
8.54812E-02 1.02705E-23
8.79369E-02 9.69492E-24
9.04240E-02 9.15906E-24
9.29422E-02 8.65964E-24
9.54915E-02 8.19372E-24
9.80716E-02 7.75865E-24
1.00682E-01 7.35198E-24
1.03323E-01 6.97152E-24
1.05995E-01 6.61527E-24
1.08696E-01 6.28140E-24
1.11427E-01 5.96823E-24
1.14188E-01 5.67424E-24
1.16978E-01 5.39805E-24
1.19797E-01 5.13836E-24
1.22645E-01 4.89401E-24
1.25522E-01 4.66391E-24
1.28428E-01 4.44710E-24
1.31361E-01 4.24264E-24
1.34323E-01 4.04971E-24
1.37313E-01 3.86753E-24
1.40330E-01 3.69540E-24
1.43375E-01 3.53265E-24
1.46447E-01 3.37867E-24
1.49545E-01 3.23291E-24
1.52671E-01 3.09484E-24
1.55823E-01 2.96399E-24
1.59001E-01 2.83989E-24
1.62205E-01 2.72215E-24
1.65435E-01 2.61036E-24
1.68690E-01 2.50418E-24
1.71970E-01 2.40327E-24
1.75276E-01 2.30732E-24
1.78606E-01 2.21603E-24
1.81961E-01 2.12915E-24
1.85340E-01 2.04642E-24
1.88743E-01 1.96759E-24
1.92169E-01 1.89246E-24
1.95619E-01 1.82082E-24
1.99092E-01 1.75247E-24
2.02589E-01 1.68723E-24
2.06107E-01 1.62495E-24
2.09649E-01 1.56545E-24
2.13212E-01 1.50859E-24
2.16797E-01 1.45423E-24
2.20404E-01 1.40224E-24
2.24032E-01 1.35250E-24
2.27680E-01 1.30489E-24
2.31350E-01 1.25931E-24
2.35040E-01 1.21565E-24
2.38751E-01 1.17381E-24
2.42481E-01 1.13371E-24
2.46231E-01 1.09525E-24
2.50000E-01 1.05837E-24
2.53788E-01 1.02298E-24
2.57595E-01 9.89012E-25
2.61421E-01 9.56397E-25
2.65264E-01 9.25072E-25
2.69126E-01 8.94976E-25
2.73005E-01 8.66052E-25
2.76901E-01 8.38246E-25
2.80814E-01 8.11507E-25
2.84744E-01 7.85786E-25
2.88691E-01 7.61037E-25
2.92653E-01 7.37217E-25
2.96632E-01 7.14285E-25
3.00625E-01 6.92201E-25
3.04634E-01 6.70928E-25
3.08658E-01 6.50431E-25
3.12697E-01 6.30676E-25
3.16749E-01 6.11632E-25
3.20816E-01 5.93268E-25
3.24896E-01 5.75556E-25
3.28990E-01 5.58468E-25
3.33097E-01 5.41978E-25
3.37216E-01 5.26062E-25
3.41348E-01 5.10695E-25
3.45492E-01 4.95856E-25
3.49647E-01 4.81523E-25
3.53814E-01 4.67675E-25
3.57992E-01 4.54294E-25
3.62181E-01 4.41360E-25
3.66381E-01 4.28857E-25
3.70590E-01 4.16766E-25
3.74810E-01 4.05073E-25
3.79039E-01 3.93761E-25
3.83277E-01 3.82815E-25
3.87524E-01 3.72223E-25
3.91780E-01 3.61971E-25
3.96044E-01 3.52044E-25
4.00316E-01 3.42433E-25
4.04596E-01 3.33124E-25
4.08882E-01 3.24106E-25
4.13176E-01 3.15369E-25
4.17476E-01 3.06902E-25
4.21783E-01 2.98696E-25
4.26095E-01 2.90741E-25
4.30413E-01 2.83029E-25
4.34737E-01 2.75549E-25
4.39065E-01 2.68295E-25
4.43398E-01 2.61258E-25
4.47736E-01 2.54430E-25
4.52077E-01 2.47804E-25
4.56422E-01 2.41374E-25
4.60770E-01 2.35132E-25
4.65122E-01 2.29072E-25
4.69476E-01 2.23188E-25
4.73832E-01 2.17473E-25
4.78190E-01 2.11923E-25
4.82550E-01 2.06531E-25
4.86912E-01 2.01292E-25
4.91274E-01 1.96201E-25
4.95637E-01 1.91253E-25
5.00000E-01 1.86444E-25
5.04363E-01 1.81769E-25
5.08726E-01 1.77224E-25
5.13088E-01 1.72804E-25
5.17450E-01 1.68505E-25
5.21810E-01 1.64323E-25
5.26168E-01 1.60256E-25
5.30524E-01 1.56298E-25
5.34878E-01 1.52447E-25
5.39230E-01 1.48700E-25
5.43578E-01 1.45052E-25
5.47923E-01 1.41502E-25
5.52264E-01 1.38045E-25
5.56602E-01 1.34680E-25
5.60935E-01 1.31402E-25
5.65263E-01 1.28211E-25
5.69587E-01 1.25102E-25
5.73905E-01 1.22074E-25
5.78217E-01 1.19124E-25
5.82524E-01 1.16250E-25
5.86824E-01 1.13449E-25
5.91118E-01 1.10719E-25
5.95404E-01 1.08059E-25
5.99684E-01 1.05466E-25
6.03956E-01 1.02938E-25
6.08220E-01 1.00473E-25
6.12476E-01 9.80704E-26
6.16723E-01 9.57271E-26
6.20961E-01 9.34418E-26
6.25190E-01 9.12130E-26
6.29410E-01 8.90389E-26
6.33619E-01 8.69180E-26
6.37819E-01 8.48489E-26
6.42008E-01 8.28300E-26
6.46186E-01 8.08601E-26
6.50353E-01 7.89377E-26
6.54508E-01 7.70615E-26
6.58652E-01 7.52303E-26
6.62784E-01 7.34428E-26
6.66903E-01 7.16978E-26
6.71010E-01 6.99942E-26
6.75104E-01 6.83309E-26
6.79184E-01 6.67068E-26
6.83251E-01 6.51208E-26
6.87303E-01 6.35720E-26
6.91342E-01 6.20593E-26
6.95366E-01 6.05817E-26
6.99375E-01 5.91385E-26
7.03368E-01 5.77286E-26
7.07347E-01 5.63512E-26
7.11309E-01 5.50055E-26
7.15256E-01 5.36906E-26
7.19186E-01 5.24058E-26
7.23099E-01 5.11502E-26
7.26995E-01 4.99232E-26
7.30874E-01 4.87240E-26
7.34736E-01 4.75519E-26
7.38579E-01 4.64063E-26
7.42405E-01 4.52864E-26
7.46212E-01 4.41917E-26
7.50000E-01 4.31214E-26
7.53769E-01 4.20751E-26
7.57519E-01 4.10521E-26
7.61249E-01 4.00518E-26
7.64960E-01 3.90737E-26
7.68650E-01 3.81172E-26
7.72320E-01 3.71819E-26
7.75968E-01 3.62673E-26
7.79596E-01 3.53727E-26
7.83203E-01 3.44978E-26
7.86788E-01 3.36421E-26
7.90351E-01 3.28051E-26
7.93893E-01 3.19865E-26
7.97411E-01 3.11856E-26
8.00908E-01 3.04023E-26
8.04381E-01 2.96360E-26
8.07831E-01 2.88863E-26
8.11257E-01 2.81529E-26
8.14660E-01 2.74354E-26
8.18039E-01 2.67335E-26
8.21394E-01 2.60467E-26
8.24724E-01 2.53748E-26
8.28030E-01 2.47175E-26
8.31310E-01 2.40743E-26
8.34565E-01 2.34450E-26
8.37795E-01 2.28292E-26
8.40999E-01 2.22268E-26
8.44177E-01 2.16373E-26
8.47329E-01 2.10605E-26
8.50455E-01 2.04962E-26
8.53553E-01 1.99440E-26
8.56625E-01 1.94038E-26
8.59670E-01 1.88752E-26
8.62687E-01 1.83580E-26
8.65677E-01 1.78519E-26
8.68639E-01 1.73568E-26
8.71572E-01 1.68725E-26
8.74478E-01 1.63986E-26
8.77355E-01 1.59349E-26
8.80203E-01 1.54814E-26
8.83022E-01 1.50377E-26
8.85812E-01 1.46037E-26
8.88573E-01 1.41791E-26
8.91304E-01 1.37638E-26
8.94005E-01 1.33576E-26
8.96677E-01 1.29604E-26
8.99318E-01 1.25719E-26
9.01928E-01 1.21920E-26
9.04508E-01 1.18205E-26
9.07058E-01 1.14572E-26
9.09576E-01 1.11021E-26
9.12063E-01 1.07549E-26
9.14519E-01 1.04155E-26
9.16943E-01 1.00837E-26
9.19335E-01 9.75952E-27
9.21696E-01 9.44269E-27
9.24024E-01 9.13311E-27
9.26320E-01 8.83065E-27
9.28584E-01 8.53519E-27
9.30815E-01 8.24661E-27
9.33013E-01 7.96478E-27
9.35178E-01 7.68960E-27
9.37310E-01 7.42095E-27
9.39409E-01 7.15871E-27
9.41474E-01 6.90280E-27
9.43505E-01 6.65309E-27
9.45503E-01 6.40949E-27
9.47467E-01 6.17191E-27
9.49397E-01 5.94025E-27
9.51293E-01 5.71441E-27
9.53154E-01 5.49431E-27
9.54981E-01 5.27986E-27
9.56773E-01 5.07098E-27
9.58530E-01 4.86758E-27
9.60252E-01 4.66958E-27
9.61940E-01 4.47691E-27
9.63592E-01 4.28949E-27
9.65209E-01 4.10726E-27
9.66790E-01 3.93013E-27
9.68336E-01 3.75804E-27
9.69846E-01 3.59092E-27
9.71321E-01 3.42871E-27
9.72759E-01 3.27135E-27
9.74162E-01 3.11878E-27
9.75528E-01 2.97094E-27
9.76858E-01 2.82777E-27
9.78152E-01 2.68923E-27
9.79410E-01 2.55524E-27
9.80631E-01 2.42578E-27
9.81815E-01 2.30078E-27
9.82963E-01 2.18020E-27
9.84074E-01 2.06400E-27
9.85148E-01 1.95213E-27
9.86185E-01 1.84455E-27
9.87185E-01 1.74121E-27
9.88148E-01 1.64209E-27
9.89074E-01 1.54715E-27
9.89962E-01 1.45634E-27
9.90814E-01 1.36964E-27
9.91627E-01 1.28701E-27
9.92404E-01 1.20843E-27
9.93143E-01 1.13386E-27
9.93844E-01 1.06328E-27
9.94508E-01 9.96654E-28
9.95134E-01 9.33967E-28
9.95722E-01 8.75193E-28
9.96273E-01 8.20312E-28
9.96786E-01 7.69301E-28
9.97261E-01 7.22144E-28
9.97698E-01 6.78822E-28
9.98097E-01 6.39320E-28
9.98459E-01 6.03624E-28
9.98782E-01 5.71719E-28
9.99067E-01 5.43596E-28
9.99315E-01 5.19243E-28
9.99524E-01 4.98651E-28
9.99695E-01 4.81814E-28
9.99829E-01 4.68725E-28
9.99924E-01 4.59379E-28
9.99981E-01 4.53772E-28
1.00000E+00 4.51904E-28
