 #
 # Subroutine ELSEPA. Elastic scattering of electrons and positrons
 #                    by neutral atoms and positive ions
 #
 # Projectile: electron
 # Kinetic energy = 9.00000E+06 eV = 3.30744E+05 a.u.
 #
 # WARNING: High-energy factorization with free-atom DF screening.
 #          Absorption, polarization and exchange corrections are
 #          switched off.
 #          Phase shifts are calculated for the bare nucleus.
 #          Scattering amplitudes are not evaluated.
 #
 # Element: Cr,  Z =  24,  atomic weight = 5.19961E+01 g/mol
 #
 # Nuclear model: Fermi distribution
 #                Average radius = 3.99369E-13 cm
 #                Skin thickness = 5.46000E-14 cm
 #
 # Number of electrons = 24
 #
 # Total elastic cross section = 1.79711E-18 cm**2 = 6.41758E-02 a0**2
 # 1st transport cross section = 1.08855E-23 cm**2 = 3.88728E-07 a0**2
 # 2nd transport cross section = 3.11232E-23 cm**2 = 1.11143E-06 a0**2
 #
 #
 # Differential cross section:                       MU=(1-COS(THETA))/2
 #
 #  THETA        MU          DCS          DCS        Sherman      error
 #  (deg)                 (cm**2/sr)   (a0**2/sr)    function
 #----------------------------------------------------------------------
0.00000E+00 1.67226E-12
7.61557E-13 1.67221E-12
1.18994E-12 1.67218E-12
1.71346E-12 1.67215E-12
2.33225E-12 1.67210E-12
3.04617E-12 1.67206E-12
3.85530E-12 1.67200E-12
4.75964E-12 1.67194E-12
5.75917E-12 1.67187E-12
6.85391E-12 1.67180E-12
8.04379E-12 1.67172E-12
9.32893E-12 1.67163E-12
1.07092E-11 1.67154E-12
1.21847E-11 1.67144E-12
1.37554E-11 1.67133E-12
1.54213E-11 1.67122E-12
1.71823E-11 1.67110E-12
1.90386E-11 1.67098E-12
2.09900E-11 1.67084E-12
2.30367E-11 1.67071E-12
2.51785E-11 1.67056E-12
2.74156E-11 1.67041E-12
2.97478E-11 1.67025E-12
3.21752E-11 1.67009E-12
3.46979E-11 1.66992E-12
3.73157E-11 1.66974E-12
4.00286E-11 1.66956E-12
4.28368E-11 1.66937E-12
4.57402E-11 1.66917E-12
4.87388E-11 1.66897E-12
5.18325E-11 1.66876E-12
5.50215E-11 1.66855E-12
5.83057E-11 1.66833E-12
6.16850E-11 1.66810E-12
6.51595E-11 1.66787E-12
6.87293E-11 1.66763E-12
7.23943E-11 1.66738E-12
7.61544E-11 1.66713E-12
1.18991E-10 1.66425E-12
1.71347E-10 1.66075E-12
2.33223E-10 1.65663E-12
3.04617E-10 1.65190E-12
3.85531E-10 1.64657E-12
4.75965E-10 1.64064E-12
5.75917E-10 1.63413E-12
6.85389E-10 1.62706E-12
8.04380E-10 1.61942E-12
9.32891E-10 1.61125E-12
1.07092E-09 1.60255E-12
1.21847E-09 1.59335E-12
1.37554E-09 1.58365E-12
1.54213E-09 1.57347E-12
1.71823E-09 1.56284E-12
1.90386E-09 1.55177E-12
2.09900E-09 1.54027E-12
2.30367E-09 1.52838E-12
2.51785E-09 1.51610E-12
2.74156E-09 1.50346E-12
2.97478E-09 1.49047E-12
3.21752E-09 1.47717E-12
3.46978E-09 1.46357E-12
3.73156E-09 1.44969E-12
4.00286E-09 1.43556E-12
4.28368E-09 1.42116E-12
4.57402E-09 1.40655E-12
4.87388E-09 1.39174E-12
5.18326E-09 1.37676E-12
5.50215E-09 1.36162E-12
5.83057E-09 1.34633E-12
6.16850E-09 1.33090E-12
6.51596E-09 1.31537E-12
6.87293E-09 1.29975E-12
7.23942E-09 1.28407E-12
7.61544E-09 1.26833E-12
1.18991E-08 1.11098E-12
1.71347E-08 9.61822E-13
2.33223E-08 8.27934E-13
3.04617E-08 7.11851E-13
3.85531E-08 6.13251E-13
4.75965E-08 5.30390E-13
5.75917E-08 4.60994E-13
6.85389E-08 4.02685E-13
8.04380E-08 3.53524E-13
9.32891E-08 3.11842E-13
1.07092E-07 2.76250E-13
1.21847E-07 2.45570E-13
1.37554E-07 2.19035E-13
1.54213E-07 1.95949E-13
1.71823E-07 1.75721E-13
1.90386E-07 1.57906E-13
2.09900E-07 1.42189E-13
2.30367E-07 1.28273E-13
2.51785E-07 1.15879E-13
2.74156E-07 1.03980E-13
2.97478E-07 9.36824E-14
3.21752E-07 8.48420E-14
3.46978E-07 7.72127E-14
3.73156E-07 7.05953E-14
4.00286E-07 6.46994E-14
4.28368E-07 5.86039E-14
4.57402E-07 5.32916E-14
4.87388E-07 4.86427E-14
5.18325E-07 4.45579E-14
5.50215E-07 4.09551E-14
5.83057E-07 3.76184E-14
6.16850E-07 3.43890E-14
6.51596E-07 3.15275E-14
6.87293E-07 2.89842E-14
7.23942E-07 2.67166E-14
7.61543E-07 2.46890E-14
1.18991E-06 1.16057E-14
1.71347E-06 6.12207E-15
2.33223E-06 3.56239E-15
3.04617E-06 2.23929E-15
3.85531E-06 1.49089E-15
4.75964E-06 1.03584E-15
5.75916E-06 7.43089E-16
6.85388E-06 5.46087E-16
8.04378E-06 4.09516E-16
9.32888E-06 3.12496E-16
1.07092E-05 2.42087E-16
1.21846E-05 1.90037E-16
1.37553E-05 1.51039E-16
1.54212E-05 1.21418E-16
1.71822E-05 9.86314E-17
1.90385E-05 8.08983E-17
2.09899E-05 6.69642E-17
2.30365E-05 5.58922E-17
2.51783E-05 4.70086E-17
2.74153E-05 3.98119E-17
2.97475E-05 3.39531E-17
3.21749E-05 2.91341E-17
3.46974E-05 2.51430E-17
3.73152E-05 2.18179E-17
4.00281E-05 1.90245E-17
4.28362E-05 1.66696E-17
4.57395E-05 1.46669E-17
4.87380E-05 1.29594E-17
5.18317E-05 1.14935E-17
5.50205E-05 1.02301E-17
5.83045E-05 9.13676E-18
6.16838E-05 8.18563E-18
6.51582E-05 7.35665E-18
6.87277E-05 6.62925E-18
7.23925E-05 5.99072E-18
7.61524E-05 5.42703E-18
9.21439E-05 3.74073E-18
1.09658E-04 2.66170E-18
1.28695E-04 1.94533E-18
1.49255E-04 1.45448E-18
1.71338E-04 1.10905E-18
1.94942E-04 8.60191E-19
2.20070E-04 6.77321E-19
2.46720E-04 5.40520E-19
2.74892E-04 4.36531E-19
3.04586E-04 3.56362E-19
3.35803E-04 2.93764E-19
3.68542E-04 2.44317E-19
4.02802E-04 2.04840E-19
4.38585E-04 1.73019E-19
4.75889E-04 1.47142E-19
5.14715E-04 1.25925E-19
5.55063E-04 1.08396E-19
5.96931E-04 9.38141E-20
6.40321E-04 8.16038E-20
6.85233E-04 7.13173E-20
7.31665E-04 6.26019E-20
7.79618E-04 5.51786E-20
8.29092E-04 4.88242E-20
8.80086E-04 4.33593E-20
9.32601E-04 3.86384E-20
9.86636E-04 3.45434E-20
1.04219E-03 3.09772E-20
1.09927E-03 2.78600E-20
1.15786E-03 2.51255E-20
1.21797E-03 2.27188E-20
1.27961E-03 2.05938E-20
1.34276E-03 1.87118E-20
1.40743E-03 1.70403E-20
1.47362E-03 1.55515E-20
1.54133E-03 1.42220E-20
1.61056E-03 1.30319E-20
1.68131E-03 1.19638E-20
1.75357E-03 1.10031E-20
1.82735E-03 1.01371E-20
1.90265E-03 9.35475E-21
1.97947E-03 8.64658E-21
2.05780E-03 8.00429E-21
2.13765E-03 7.42065E-21
2.21902E-03 6.88934E-21
2.30190E-03 6.40483E-21
2.38630E-03 5.96226E-21
2.47222E-03 5.55734E-21
2.55965E-03 5.18628E-21
2.64859E-03 4.84574E-21
2.73905E-03 4.53276E-21
2.83103E-03 4.24470E-21
2.92452E-03 3.97921E-21
3.01952E-03 3.73420E-21
3.11604E-03 3.50781E-21
3.21407E-03 3.29835E-21
3.31362E-03 3.10434E-21
3.41468E-03 2.92441E-21
3.51725E-03 2.75736E-21
3.62133E-03 2.60211E-21
3.72692E-03 2.45765E-21
3.83403E-03 2.32311E-21
3.94265E-03 2.19767E-21
4.05278E-03 2.08060E-21
4.16442E-03 1.97125E-21
4.27757E-03 1.86901E-21
4.39223E-03 1.77333E-21
4.50840E-03 1.68371E-21
4.62608E-03 1.59969E-21
4.74527E-03 1.52087E-21
4.86597E-03 1.44685E-21
4.98817E-03 1.37730E-21
5.11188E-03 1.31189E-21
5.23711E-03 1.25032E-21
5.36383E-03 1.19234E-21
5.49207E-03 1.13769E-21
5.62181E-03 1.08614E-21
5.75306E-03 1.03749E-21
5.88581E-03 9.91541E-22
6.02007E-03 9.48116E-22
6.15583E-03 9.07049E-22
6.29310E-03 8.68188E-22
6.43187E-03 8.31393E-22
6.57214E-03 7.96533E-22
6.71392E-03 7.63486E-22
6.85720E-03 7.32142E-22
7.00198E-03 7.02394E-22
7.14827E-03 6.74147E-22
7.29605E-03 6.47310E-22
7.44534E-03 6.21800E-22
7.59612E-03 5.97539E-22
7.97965E-03 5.41882E-22
8.37255E-03 4.92576E-22
8.77480E-03 4.48771E-22
9.18641E-03 4.09744E-22
9.60736E-03 3.74883E-22
1.00376E-02 3.43663E-22
1.04773E-02 3.15638E-22
1.09262E-02 2.90422E-22
1.13844E-02 2.67682E-22
1.18520E-02 2.47133E-22
1.23288E-02 2.28526E-22
1.28150E-02 2.11643E-22
1.33104E-02 1.96296E-22
1.38150E-02 1.82321E-22
1.43290E-02 1.69572E-22
1.48521E-02 1.57922E-22
1.53845E-02 1.47259E-22
1.59262E-02 1.37484E-22
1.64770E-02 1.28510E-22
1.70371E-02 1.20259E-22
1.76063E-02 1.12662E-22
1.81848E-02 1.05658E-22
1.87724E-02 9.91917E-23
1.93692E-02 9.32144E-23
1.99751E-02 8.76824E-23
2.05901E-02 8.25562E-23
2.12143E-02 7.78006E-23
2.18476E-02 7.33838E-23
2.24900E-02 6.92772E-23
2.31415E-02 6.54549E-23
2.38021E-02 6.18935E-23
2.44717E-02 5.85720E-23
2.51504E-02 5.54711E-23
2.58382E-02 5.25735E-23
2.65349E-02 4.98633E-23
2.72407E-02 4.73261E-23
2.79555E-02 4.49489E-23
2.86793E-02 4.27195E-23
2.94120E-02 4.06271E-23
3.01537E-02 3.86617E-23
3.09043E-02 3.68142E-23
3.16639E-02 3.50760E-23
3.24324E-02 3.34396E-23
3.32098E-02 3.18979E-23
3.39961E-02 3.04442E-23
3.47912E-02 2.90727E-23
3.55952E-02 2.77777E-23
3.64081E-02 2.65543E-23
3.72297E-02 2.53977E-23
3.80602E-02 2.43036E-23
3.88995E-02 2.32680E-23
3.97476E-02 2.22871E-23
4.06044E-02 2.13574E-23
4.14700E-02 2.04759E-23
4.23443E-02 1.96395E-23
4.32273E-02 1.88455E-23
4.41190E-02 1.80913E-23
4.50194E-02 1.73745E-23
4.59284E-02 1.66930E-23
4.68461E-02 1.60446E-23
4.87074E-02 1.48399E-23
5.06030E-02 1.37463E-23
5.25328E-02 1.27518E-23
5.44967E-02 1.18457E-23
5.64946E-02 1.10188E-23
5.85262E-02 1.02629E-23
6.05914E-02 9.57084E-24
6.26901E-02 8.93614E-24
6.48222E-02 8.35322E-24
6.69873E-02 7.81707E-24
6.91854E-02 7.32326E-24
7.14163E-02 6.86783E-24
7.36799E-02 6.44723E-24
7.59760E-02 6.05833E-24
7.83043E-02 5.69828E-24
8.06647E-02 5.36455E-24
8.30571E-02 5.05485E-24
8.54812E-02 4.76715E-24
8.79369E-02 4.49957E-24
9.04240E-02 4.25047E-24
9.29422E-02 4.01831E-24
9.54915E-02 3.80174E-24
9.80716E-02 3.59951E-24
1.00682E-01 3.41050E-24
1.03323E-01 3.23368E-24
1.05995E-01 3.06812E-24
1.08696E-01 2.91297E-24
1.11427E-01 2.76745E-24
1.14188E-01 2.63085E-24
1.16978E-01 2.50252E-24
1.19797E-01 2.38187E-24
1.22645E-01 2.26836E-24
1.25522E-01 2.16147E-24
1.28428E-01 2.06076E-24
1.31361E-01 1.96579E-24
1.34323E-01 1.87619E-24
1.37313E-01 1.79158E-24
1.40330E-01 1.71164E-24
1.43375E-01 1.63607E-24
1.46447E-01 1.56457E-24
1.49545E-01 1.49690E-24
1.52671E-01 1.43280E-24
1.55823E-01 1.37205E-24
1.59001E-01 1.31444E-24
1.62205E-01 1.25979E-24
1.65435E-01 1.20791E-24
1.68690E-01 1.15863E-24
1.71970E-01 1.11180E-24
1.75276E-01 1.06727E-24
1.78606E-01 1.02492E-24
1.81961E-01 9.84607E-25
1.85340E-01 9.46224E-25
1.88743E-01 9.09658E-25
1.92169E-01 8.74808E-25
1.95619E-01 8.41579E-25
1.99092E-01 8.09880E-25
2.02589E-01 7.79628E-25
2.06107E-01 7.50745E-25
2.09649E-01 7.23157E-25
2.13212E-01 6.96795E-25
2.16797E-01 6.71595E-25
2.20404E-01 6.47496E-25
2.24032E-01 6.24441E-25
2.27680E-01 6.02376E-25
2.31350E-01 5.81251E-25
2.35040E-01 5.61018E-25
2.38751E-01 5.41633E-25
2.42481E-01 5.23053E-25
2.46231E-01 5.05239E-25
2.50000E-01 4.88154E-25
2.53788E-01 4.71762E-25
2.57595E-01 4.56029E-25
2.61421E-01 4.40926E-25
2.65264E-01 4.26420E-25
2.69126E-01 4.12485E-25
2.73005E-01 3.99095E-25
2.76901E-01 3.86223E-25
2.80814E-01 3.73846E-25
2.84744E-01 3.61941E-25
2.88691E-01 3.50488E-25
2.92653E-01 3.39466E-25
2.96632E-01 3.28855E-25
3.00625E-01 3.18638E-25
3.04634E-01 3.08797E-25
3.08658E-01 2.99317E-25
3.12697E-01 2.90180E-25
3.16749E-01 2.81373E-25
3.20816E-01 2.72882E-25
3.24896E-01 2.64692E-25
3.28990E-01 2.56792E-25
3.33097E-01 2.49170E-25
3.37216E-01 2.41813E-25
3.41348E-01 2.34712E-25
3.45492E-01 2.27855E-25
3.49647E-01 2.21232E-25
3.53814E-01 2.14834E-25
3.57992E-01 2.08653E-25
3.62181E-01 2.02679E-25
3.66381E-01 1.96904E-25
3.70590E-01 1.91321E-25
3.74810E-01 1.85922E-25
3.79039E-01 1.80699E-25
3.83277E-01 1.75647E-25
3.87524E-01 1.70758E-25
3.91780E-01 1.66026E-25
3.96044E-01 1.61446E-25
4.00316E-01 1.57011E-25
4.04596E-01 1.52716E-25
4.08882E-01 1.48556E-25
4.13176E-01 1.44527E-25
4.17476E-01 1.40622E-25
4.21783E-01 1.36838E-25
4.26095E-01 1.33170E-25
4.30413E-01 1.29615E-25
4.34737E-01 1.26167E-25
4.39065E-01 1.22824E-25
4.43398E-01 1.19581E-25
4.47736E-01 1.16435E-25
4.52077E-01 1.13383E-25
4.56422E-01 1.10421E-25
4.60770E-01 1.07546E-25
4.65122E-01 1.04755E-25
4.69476E-01 1.02046E-25
4.73832E-01 9.94146E-26
4.78190E-01 9.68595E-26
4.82550E-01 9.43777E-26
4.86912E-01 9.19668E-26
4.91274E-01 8.96243E-26
4.95637E-01 8.73480E-26
5.00000E-01 8.51358E-26
5.04363E-01 8.29854E-26
5.08726E-01 8.08950E-26
5.13088E-01 7.88626E-26
5.17450E-01 7.68862E-26
5.21810E-01 7.49641E-26
5.26168E-01 7.30945E-26
5.30524E-01 7.12758E-26
5.34878E-01 6.95064E-26
5.39230E-01 6.77847E-26
5.43578E-01 6.61092E-26
5.47923E-01 6.44785E-26
5.52264E-01 6.28912E-26
5.56602E-01 6.13459E-26
5.60935E-01 5.98414E-26
5.65263E-01 5.83764E-26
5.69587E-01 5.69497E-26
5.73905E-01 5.55601E-26
5.78217E-01 5.42066E-26
5.82524E-01 5.28881E-26
5.86824E-01 5.16034E-26
5.91118E-01 5.03517E-26
5.95404E-01 4.91319E-26
5.99684E-01 4.79431E-26
6.03956E-01 4.67844E-26
6.08220E-01 4.56548E-26
6.12476E-01 4.45537E-26
6.16723E-01 4.34801E-26
6.20961E-01 4.24332E-26
6.25190E-01 4.14124E-26
6.29410E-01 4.04167E-26
6.33619E-01 3.94456E-26
6.37819E-01 3.84984E-26
6.42008E-01 3.75743E-26
6.46186E-01 3.66728E-26
6.50353E-01 3.57931E-26
6.54508E-01 3.49348E-26
6.58652E-01 3.40971E-26
6.62784E-01 3.32796E-26
6.66903E-01 3.24816E-26
6.71010E-01 3.17027E-26
6.75104E-01 3.09424E-26
6.79184E-01 3.02001E-26
6.83251E-01 2.94753E-26
6.87303E-01 2.87676E-26
6.91342E-01 2.80766E-26
6.95366E-01 2.74017E-26
6.99375E-01 2.67426E-26
7.03368E-01 2.60989E-26
7.07347E-01 2.54700E-26
7.11309E-01 2.48558E-26
7.15256E-01 2.42557E-26
7.19186E-01 2.36694E-26
7.23099E-01 2.30966E-26
7.26995E-01 2.25369E-26
7.30874E-01 2.19900E-26
7.34736E-01 2.14556E-26
7.38579E-01 2.09333E-26
7.42405E-01 2.04228E-26
7.46212E-01 1.99238E-26
7.50000E-01 1.94361E-26
7.53769E-01 1.89594E-26
7.57519E-01 1.84934E-26
7.61249E-01 1.80378E-26
7.64960E-01 1.75924E-26
7.68650E-01 1.71570E-26
7.72320E-01 1.67312E-26
7.75968E-01 1.63149E-26
7.79596E-01 1.59078E-26
7.83203E-01 1.55097E-26
7.86788E-01 1.51204E-26
7.90351E-01 1.47398E-26
7.93893E-01 1.43674E-26
7.97411E-01 1.40033E-26
8.00908E-01 1.36472E-26
8.04381E-01 1.32989E-26
8.07831E-01 1.29582E-26
8.11257E-01 1.26250E-26
8.14660E-01 1.22990E-26
8.18039E-01 1.19802E-26
8.21394E-01 1.16683E-26
8.24724E-01 1.13632E-26
8.28030E-01 1.10647E-26
8.31310E-01 1.07728E-26
8.34565E-01 1.04872E-26
8.37795E-01 1.02078E-26
8.40999E-01 9.93443E-27
8.44177E-01 9.66703E-27
8.47329E-01 9.40543E-27
8.50455E-01 9.14952E-27
8.53553E-01 8.89916E-27
8.56625E-01 8.65425E-27
8.59670E-01 8.41465E-27
8.62687E-01 8.18026E-27
8.65677E-01 7.95097E-27
8.68639E-01 7.72667E-27
8.71572E-01 7.50726E-27
8.74478E-01 7.29263E-27
8.77355E-01 7.08269E-27
8.80203E-01 6.87734E-27
8.83022E-01 6.67648E-27
8.85812E-01 6.48003E-27
8.88573E-01 6.28790E-27
8.91304E-01 6.09999E-27
8.94005E-01 5.91623E-27
8.96677E-01 5.73654E-27
8.99318E-01 5.56082E-27
9.01928E-01 5.38902E-27
9.04508E-01 5.22104E-27
9.07058E-01 5.05683E-27
9.09576E-01 4.89629E-27
9.12063E-01 4.73938E-27
9.14519E-01 4.58601E-27
9.16943E-01 4.43613E-27
9.19335E-01 4.28966E-27
9.21696E-01 4.14655E-27
9.24024E-01 4.00673E-27
9.26320E-01 3.87015E-27
9.28584E-01 3.73675E-27
9.30815E-01 3.60647E-27
9.33013E-01 3.47925E-27
9.35178E-01 3.35505E-27
9.37310E-01 3.23382E-27
9.39409E-01 3.11549E-27
9.41474E-01 3.00003E-27
9.43505E-01 2.88739E-27
9.45503E-01 2.77752E-27
9.47467E-01 2.67037E-27
9.49397E-01 2.56590E-27
9.51293E-01 2.46407E-27
9.53154E-01 2.36484E-27
9.54981E-01 2.26817E-27
9.56773E-01 2.17402E-27
9.58530E-01 2.08235E-27
9.60252E-01 1.99313E-27
9.61940E-01 1.90632E-27
9.63592E-01 1.82188E-27
9.65209E-01 1.73978E-27
9.66790E-01 1.65999E-27
9.68336E-01 1.58248E-27
9.69846E-01 1.50722E-27
9.71321E-01 1.43417E-27
9.72759E-01 1.36332E-27
9.74162E-01 1.29463E-27
9.75528E-01 1.22807E-27
9.76858E-01 1.16362E-27
9.78152E-01 1.10126E-27
9.79410E-01 1.04096E-27
9.80631E-01 9.82690E-28
9.81815E-01 9.26439E-28
9.82963E-01 8.72182E-28
9.84074E-01 8.19897E-28
9.85148E-01 7.69565E-28
9.86185E-01 7.21167E-28
9.87185E-01 6.74683E-28
9.88148E-01 6.30097E-28
9.89074E-01 5.87391E-28
9.89962E-01 5.46549E-28
9.90814E-01 5.07557E-28
9.91627E-01 4.70398E-28
9.92404E-01 4.35059E-28
9.93143E-01 4.01528E-28
9.93844E-01 3.69790E-28
9.94508E-01 3.39835E-28
9.95134E-01 3.11650E-28
9.95722E-01 2.85226E-28
9.96273E-01 2.60553E-28
9.96786E-01 2.37621E-28
9.97261E-01 2.16422E-28
9.97698E-01 1.96948E-28
9.98097E-01 1.79191E-28
9.98459E-01 1.63145E-28
9.98782E-01 1.48804E-28
9.99067E-01 1.36163E-28
9.99315E-01 1.25217E-28
9.99524E-01 1.15962E-28
9.99695E-01 1.08394E-28
9.99829E-01 1.02511E-28
9.99924E-01 9.83104E-29
9.99981E-01 9.57904E-29
1.00000E+00 9.49508E-29
