 #
 # Subroutine ELSEPA. Elastic scattering of electrons and positrons
 #                    by neutral atoms and positive ions
 #
 # Projectile: electron
 # Kinetic energy = 7.00000E+07 eV = 2.57245E+06 a.u.
 #
 # WARNING: High-energy factorization with free-atom DF screening.
 #          Absorption, polarization and exchange corrections are
 #          switched off.
 #          Phase shifts are calculated for the bare nucleus.
 #          Scattering amplitudes are not evaluated.
 #
 # Element: Cr,  Z =  24,  atomic weight = 5.19961E+01 g/mol
 #
 # Nuclear model: Fermi distribution
 #                Average radius = 3.99369E-13 cm
 #                Skin thickness = 5.46000E-14 cm
 #
 # Number of electrons = 24
 #
 # Total elastic cross section = 1.79100E-18 cm**2 = 6.39578E-02 a0**2
 # 1st transport cross section = 2.39492E-25 cm**2 = 8.55242E-09 a0**2
 # 2nd transport cross section = 7.06361E-25 cm**2 = 2.52246E-08 a0**2
 #
 #
 # Differential cross section:                       MU=(1-COS(THETA))/2
 #
 #  THETA        MU          DCS          DCS        Sherman      error
 #  (deg)                 (cm**2/sr)   (a0**2/sr)    function
 #----------------------------------------------------------------------
0.00000E+00 9.19107E-11
7.61557E-13 9.17546E-11
1.18994E-12 9.16672E-11
1.71346E-12 9.15606E-11
2.33225E-12 9.14349E-11
3.04617E-12 9.12903E-11
3.85530E-12 9.11269E-11
4.75964E-12 9.09448E-11
5.75917E-12 9.07443E-11
6.85391E-12 9.05256E-11
8.04379E-12 9.02890E-11
9.32893E-12 9.00346E-11
1.07092E-11 8.97628E-11
1.21847E-11 8.94738E-11
1.37554E-11 8.91680E-11
1.54213E-11 8.88456E-11
1.71823E-11 8.85070E-11
1.90386E-11 8.81525E-11
2.09900E-11 8.77825E-11
2.30367E-11 8.73974E-11
2.51785E-11 8.69975E-11
2.74156E-11 8.65832E-11
2.97478E-11 8.61550E-11
3.21752E-11 8.57132E-11
3.46979E-11 8.52583E-11
3.73157E-11 8.47907E-11
4.00286E-11 8.43108E-11
4.28368E-11 8.38190E-11
4.57402E-11 8.33159E-11
4.87388E-11 8.28014E-11
5.18325E-11 8.22765E-11
5.50215E-11 8.17416E-11
5.83057E-11 8.11974E-11
6.16850E-11 8.06441E-11
6.51595E-11 8.00822E-11
6.87293E-11 7.95123E-11
7.23943E-11 7.89347E-11
7.61544E-11 7.83489E-11
1.18991E-10 7.21892E-11
1.71347E-10 6.57574E-11
2.33223E-10 5.93929E-11
3.04617E-10 5.33367E-11
3.85531E-10 4.77399E-11
4.75965E-10 4.26744E-11
5.75917E-10 3.81545E-11
6.85389E-10 3.41582E-11
8.04380E-10 3.06459E-11
9.32891E-10 2.75670E-11
1.07092E-09 2.48628E-11
1.21847E-09 2.24888E-11
1.37554E-09 2.04002E-11
1.54213E-09 1.85537E-11
1.71823E-09 1.69145E-11
1.90386E-09 1.54571E-11
2.09900E-09 1.41566E-11
2.30367E-09 1.29864E-11
2.51785E-09 1.19346E-11
2.74156E-09 1.09865E-11
2.97478E-09 1.01272E-11
3.21752E-09 9.34585E-12
3.46978E-09 8.63595E-12
3.73156E-09 7.98947E-12
4.00286E-09 7.39650E-12
4.28368E-09 6.85439E-12
4.57402E-09 6.35811E-12
4.87388E-09 5.86488E-12
5.18326E-09 5.41990E-12
5.50215E-09 5.02335E-12
5.83057E-09 4.66892E-12
6.16850E-09 4.35122E-12
6.51596E-09 4.06566E-12
6.87293E-09 3.80829E-12
7.23942E-09 3.57154E-12
7.61544E-09 3.31682E-12
1.18991E-08 1.71446E-12
1.71347E-08 9.47403E-13
2.33223E-08 5.58055E-13
3.04617E-08 3.48596E-13
3.85531E-08 2.30265E-13
4.75965E-08 1.59368E-13
5.75917E-08 1.14526E-13
6.85389E-08 8.47954E-14
8.04380E-08 6.43197E-14
9.32891E-08 4.97493E-14
1.07092E-07 3.90611E-14
1.21847E-07 3.10831E-14
1.37554E-07 2.50206E-14
1.54213E-07 2.03405E-14
1.71823E-07 1.66825E-14
1.90386E-07 1.37975E-14
2.09900E-07 1.14991E-14
2.30367E-07 9.64821E-15
2.51785E-07 8.14942E-15
2.74156E-07 6.92680E-15
2.97478E-07 5.92201E-15
3.21752E-07 5.09091E-15
3.46978E-07 4.39962E-15
3.73156E-07 3.82112E-15
4.00286E-07 3.33398E-15
4.28368E-07 2.92182E-15
4.57402E-07 2.57136E-15
4.87388E-07 2.27143E-15
5.18325E-07 2.01435E-15
5.50215E-07 1.79306E-15
5.83057E-07 1.60108E-15
6.16850E-07 1.43423E-15
6.51596E-07 1.28882E-15
6.87293E-07 1.16132E-15
7.23942E-07 1.04925E-15
7.61543E-07 9.50535E-16
1.18991E-06 3.97824E-16
1.71347E-06 1.95102E-16
2.33223E-06 1.06638E-16
3.04617E-06 6.30805E-17
3.85531E-06 3.96405E-17
4.75964E-06 2.61322E-17
5.75916E-06 1.79111E-17
6.85388E-06 1.26796E-17
8.04378E-06 9.22406E-18
9.32888E-06 6.86836E-18
1.07092E-05 5.21825E-18
1.21846E-05 4.03488E-18
1.37553E-05 3.16853E-18
1.54212E-05 2.52259E-18
1.71822E-05 2.03311E-18
1.90385E-05 1.65668E-18
2.09899E-05 1.36362E-18
2.30365E-05 1.13256E-18
2.51783E-05 9.48381E-19
2.74153E-05 8.00135E-19
2.97475E-05 6.79738E-19
3.21749E-05 5.81156E-19
3.46974E-05 4.99821E-19
3.73152E-05 4.32240E-19
4.00281E-05 3.75713E-19
4.28362E-05 3.28136E-19
4.57395E-05 2.87858E-19
4.87380E-05 2.53574E-19
5.18317E-05 2.24243E-19
5.50205E-05 1.99031E-19
5.83045E-05 1.77265E-19
6.16838E-05 1.58395E-19
6.51582E-05 1.41972E-19
6.87277E-05 1.27626E-19
7.23925E-05 1.15048E-19
7.61524E-05 1.03979E-19
9.21439E-05 7.10554E-20
1.09658E-04 5.01933E-20
1.28695E-04 3.64591E-20
1.49255E-04 2.71180E-20
1.71338E-04 2.05873E-20
1.94942E-04 1.59100E-20
2.20070E-04 1.24894E-20
2.46720E-04 9.94099E-21
2.74892E-04 8.01092E-21
3.04586E-04 6.52764E-21
3.35803E-04 5.37245E-21
3.68542E-04 4.46203E-21
4.02802E-04 3.73665E-21
4.38585E-04 3.15295E-21
4.75889E-04 2.67897E-21
5.14715E-04 2.29086E-21
5.55063E-04 1.97061E-21
5.96931E-04 1.70444E-21
6.40321E-04 1.48177E-21
6.85233E-04 1.29433E-21
7.31665E-04 1.13563E-21
7.79618E-04 1.00054E-21
8.29092E-04 8.84970E-22
8.80086E-04 7.85627E-22
9.32601E-04 6.99850E-22
9.86636E-04 6.25476E-22
1.04219E-03 5.60732E-22
1.09927E-03 5.04158E-22
1.15786E-03 4.54547E-22
1.21797E-03 4.10896E-22
1.27961E-03 3.72365E-22
1.34276E-03 3.38250E-22
1.40743E-03 3.07956E-22
1.47362E-03 2.80982E-22
1.54133E-03 2.56899E-22
1.61056E-03 2.35343E-22
1.68131E-03 2.16003E-22
1.75357E-03 1.98611E-22
1.82735E-03 1.82936E-22
1.90265E-03 1.68778E-22
1.97947E-03 1.55964E-22
2.05780E-03 1.44344E-22
2.13765E-03 1.33787E-22
2.21902E-03 1.24178E-22
2.30190E-03 1.15417E-22
2.38630E-03 1.07415E-22
2.47222E-03 1.00095E-22
2.55965E-03 9.33889E-23
2.64859E-03 8.72349E-23
2.73905E-03 8.15797E-23
2.83103E-03 7.63755E-23
2.92452E-03 7.15798E-23
3.01952E-03 6.71548E-23
3.11604E-03 6.30665E-23
3.21407E-03 5.92846E-23
3.31362E-03 5.57820E-23
3.41468E-03 5.25343E-23
3.51725E-03 4.95195E-23
3.62133E-03 4.67178E-23
3.72692E-03 4.41115E-23
3.83403E-03 4.16843E-23
3.94265E-03 3.94218E-23
4.05278E-03 3.73106E-23
4.16442E-03 3.53388E-23
4.27757E-03 3.34955E-23
4.39223E-03 3.17708E-23
4.50840E-03 3.01555E-23
4.62608E-03 2.86416E-23
4.74527E-03 2.72214E-23
4.86597E-03 2.58880E-23
4.98817E-03 2.46353E-23
5.11188E-03 2.34573E-23
5.23711E-03 2.23488E-23
5.36383E-03 2.13049E-23
5.49207E-03 2.03212E-23
5.62181E-03 1.93936E-23
5.75306E-03 1.85182E-23
5.88581E-03 1.76915E-23
6.02007E-03 1.69104E-23
6.15583E-03 1.61719E-23
6.29310E-03 1.54731E-23
6.43187E-03 1.48117E-23
6.57214E-03 1.41851E-23
6.71392E-03 1.35912E-23
6.85720E-03 1.30280E-23
7.00198E-03 1.24937E-23
7.14827E-03 1.19863E-23
7.29605E-03 1.15044E-23
7.44534E-03 1.10465E-23
7.59612E-03 1.06110E-23
7.97965E-03 9.61230E-24
8.37255E-03 8.72806E-24
8.77480E-03 7.94287E-24
9.18641E-03 7.24372E-24
9.60736E-03 6.61954E-24
1.00376E-02 6.06089E-24
1.04773E-02 5.55969E-24
1.09262E-02 5.10900E-24
1.13844E-02 4.70284E-24
1.18520E-02 4.33603E-24
1.23288E-02 4.00409E-24
1.28150E-02 3.70312E-24
1.33104E-02 3.42972E-24
1.38150E-02 3.18092E-24
1.43290E-02 2.95412E-24
1.48521E-02 2.74702E-24
1.53845E-02 2.55760E-24
1.59262E-02 2.38410E-24
1.64770E-02 2.22493E-24
1.70371E-02 2.07871E-24
1.76063E-02 1.94418E-24
1.81848E-02 1.82025E-24
1.87724E-02 1.70594E-24
1.93692E-02 1.60036E-24
1.99751E-02 1.50272E-24
2.05901E-02 1.41233E-24
2.12143E-02 1.32856E-24
2.18476E-02 1.25082E-24
2.24900E-02 1.17860E-24
2.31415E-02 1.11145E-24
2.38021E-02 1.04895E-24
2.44717E-02 9.90711E-25
2.51504E-02 9.36396E-25
2.58382E-02 8.85693E-25
2.65349E-02 8.38318E-25
2.72407E-02 7.94013E-25
2.79555E-02 7.52545E-25
2.86793E-02 7.13700E-25
2.94120E-02 6.77281E-25
3.01537E-02 6.43110E-25
3.09043E-02 6.11025E-25
3.16639E-02 5.80874E-25
3.24324E-02 5.52520E-25
3.32098E-02 5.25837E-25
3.39961E-02 5.00710E-25
3.47912E-02 4.77031E-25
3.55952E-02 4.54702E-25
3.64081E-02 4.33633E-25
3.72297E-02 4.13739E-25
3.80602E-02 3.94944E-25
3.88995E-02 3.77177E-25
3.97476E-02 3.60370E-25
4.06044E-02 3.44463E-25
4.14700E-02 3.29400E-25
4.23443E-02 3.15127E-25
4.32273E-02 3.01596E-25
4.41190E-02 2.88762E-25
4.50194E-02 2.76582E-25
4.59284E-02 2.65018E-25
4.68461E-02 2.54032E-25
4.87074E-02 2.33663E-25
5.06030E-02 2.15229E-25
5.25328E-02 1.98516E-25
5.44967E-02 1.83338E-25
5.64946E-02 1.69530E-25
5.85262E-02 1.56949E-25
6.05914E-02 1.45469E-25
6.26901E-02 1.34976E-25
6.48222E-02 1.25373E-25
6.69873E-02 1.16572E-25
6.91854E-02 1.08496E-25
7.14163E-02 1.01074E-25
7.36799E-02 9.42464E-26
7.59760E-02 8.79572E-26
7.83043E-02 8.21574E-26
8.06647E-02 7.68031E-26
8.30571E-02 7.18545E-26
8.54812E-02 6.72763E-26
8.79369E-02 6.30364E-26
9.04240E-02 5.91060E-26
9.29422E-02 5.54590E-26
9.54915E-02 5.20719E-26
9.80716E-02 4.89233E-26
1.00682E-01 4.59940E-26
1.03323E-01 4.32664E-26
1.05995E-01 4.07245E-26
1.08696E-01 3.83538E-26
1.11427E-01 3.61411E-26
1.14188E-01 3.40744E-26
1.16978E-01 3.21426E-26
1.19797E-01 3.03356E-26
1.22645E-01 2.86442E-26
1.25522E-01 2.70600E-26
1.28428E-01 2.55753E-26
1.31361E-01 2.41828E-26
1.34323E-01 2.28762E-26
1.37313E-01 2.16493E-26
1.40330E-01 2.04967E-26
1.43375E-01 1.94132E-26
1.46447E-01 1.83941E-26
1.49545E-01 1.74351E-26
1.52671E-01 1.65322E-26
1.55823E-01 1.56816E-26
1.59001E-01 1.48801E-26
1.62205E-01 1.41242E-26
1.65435E-01 1.34112E-26
1.68690E-01 1.27383E-26
1.71970E-01 1.21029E-26
1.75276E-01 1.15027E-26
1.78606E-01 1.09355E-26
1.81961E-01 1.03993E-26
1.85340E-01 9.89219E-27
1.88743E-01 9.41237E-27
1.92169E-01 8.95822E-27
1.95619E-01 8.52820E-27
1.99092E-01 8.12088E-27
2.02589E-01 7.73493E-27
2.06107E-01 7.36910E-27
2.09649E-01 7.02223E-27
2.13212E-01 6.69322E-27
2.16797E-01 6.38105E-27
2.20404E-01 6.08477E-27
2.24032E-01 5.80348E-27
2.27680E-01 5.53635E-27
2.31350E-01 5.28258E-27
2.35040E-01 5.04144E-27
2.38751E-01 4.81223E-27
2.42481E-01 4.59432E-27
2.46231E-01 4.38707E-27
2.50000E-01 4.18993E-27
2.53788E-01 4.00235E-27
2.57595E-01 3.82382E-27
2.61421E-01 3.65386E-27
2.65264E-01 3.49203E-27
2.69126E-01 3.33789E-27
2.73005E-01 3.19106E-27
2.76901E-01 3.05115E-27
2.80814E-01 2.91780E-27
2.84744E-01 2.79069E-27
2.88691E-01 2.66949E-27
2.92653E-01 2.55391E-27
2.96632E-01 2.44367E-27
3.00625E-01 2.33849E-27
3.04634E-01 2.23812E-27
3.08658E-01 2.14234E-27
3.12697E-01 2.05091E-27
3.16749E-01 1.96361E-27
3.20816E-01 1.88025E-27
3.24896E-01 1.80064E-27
3.28990E-01 1.72459E-27
3.33097E-01 1.65194E-27
3.37216E-01 1.58251E-27
3.41348E-01 1.51616E-27
3.45492E-01 1.45275E-27
3.49647E-01 1.39212E-27
3.53814E-01 1.33416E-27
3.57992E-01 1.27873E-27
3.62181E-01 1.22572E-27
3.66381E-01 1.17501E-27
3.70590E-01 1.12650E-27
3.74810E-01 1.08009E-27
3.79039E-01 1.03568E-27
3.83277E-01 9.93183E-28
3.87524E-01 9.52505E-28
3.91780E-01 9.13565E-28
3.96044E-01 8.76286E-28
4.00316E-01 8.40592E-28
4.04596E-01 8.06412E-28
4.08882E-01 7.73679E-28
4.13176E-01 7.42328E-28
4.17476E-01 7.12296E-28
4.21783E-01 6.83527E-28
4.26095E-01 6.55963E-28
4.30413E-01 6.29551E-28
4.34737E-01 6.04242E-28
4.39065E-01 5.79986E-28
4.43398E-01 5.56738E-28
4.47736E-01 5.34454E-28
4.52077E-01 5.13091E-28
4.56422E-01 4.92611E-28
4.60770E-01 4.72974E-28
4.65122E-01 4.54145E-28
4.69476E-01 4.36088E-28
4.73832E-01 4.18772E-28
4.78190E-01 4.02163E-28
4.82550E-01 3.86232E-28
4.86912E-01 3.70950E-28
4.91274E-01 3.56290E-28
4.95637E-01 3.42225E-28
5.00000E-01 3.28730E-28
5.04363E-01 3.15781E-28
5.08726E-01 3.03355E-28
5.13088E-01 2.91430E-28
5.17450E-01 2.79986E-28
5.21810E-01 2.69002E-28
5.26168E-01 2.58458E-28
5.30524E-01 2.48338E-28
5.34878E-01 2.38622E-28
5.39230E-01 2.29295E-28
5.43578E-01 2.20341E-28
5.47923E-01 2.11743E-28
5.52264E-01 2.03488E-28
5.56602E-01 1.95560E-28
5.60935E-01 1.87948E-28
5.65263E-01 1.80637E-28
5.69587E-01 1.73616E-28
5.73905E-01 1.66873E-28
5.78217E-01 1.60396E-28
5.82524E-01 1.54175E-28
5.86824E-01 1.48199E-28
5.91118E-01 1.42458E-28
5.95404E-01 1.36943E-28
5.99684E-01 1.31645E-28
6.03956E-01 1.26555E-28
6.08220E-01 1.21664E-28
6.12476E-01 1.16965E-28
6.16723E-01 1.12449E-28
6.20961E-01 1.08110E-28
6.25190E-01 1.03941E-28
6.29410E-01 9.99338E-29
6.33619E-01 9.60831E-29
6.37819E-01 9.23822E-29
6.42008E-01 8.88254E-29
6.46186E-01 8.54068E-29
6.50353E-01 8.21209E-29
6.54508E-01 7.89625E-29
6.58652E-01 7.59265E-29
6.62784E-01 7.30081E-29
6.66903E-01 7.02026E-29
6.71010E-01 6.75056E-29
6.75104E-01 6.49128E-29
6.79184E-01 6.24201E-29
6.83251E-01 6.00236E-29
6.87303E-01 5.77194E-29
6.91342E-01 5.55040E-29
6.95366E-01 5.33738E-29
6.99375E-01 5.13256E-29
7.03368E-01 4.93561E-29
7.07347E-01 4.74622E-29
7.11309E-01 4.56410E-29
7.15256E-01 4.38897E-29
7.19186E-01 4.22055E-29
7.23099E-01 4.05858E-29
7.26995E-01 3.90280E-29
7.30874E-01 3.75299E-29
7.34736E-01 3.60891E-29
7.38579E-01 3.47033E-29
7.42405E-01 3.33704E-29
7.46212E-01 3.20883E-29
7.50000E-01 3.08552E-29
7.53769E-01 2.96690E-29
7.57519E-01 2.85281E-29
7.61249E-01 2.74305E-29
7.64960E-01 2.63748E-29
7.68650E-01 2.53592E-29
7.72320E-01 2.43821E-29
7.75968E-01 2.34422E-29
7.79596E-01 2.25380E-29
7.83203E-01 2.16681E-29
7.86788E-01 2.08312E-29
7.90351E-01 2.00260E-29
7.93893E-01 1.92513E-29
7.97411E-01 1.85059E-29
8.00908E-01 1.77888E-29
8.04381E-01 1.70988E-29
8.07831E-01 1.64348E-29
8.11257E-01 1.57960E-29
8.14660E-01 1.51813E-29
8.18039E-01 1.45899E-29
8.21394E-01 1.40207E-29
8.24724E-01 1.34730E-29
8.28030E-01 1.29460E-29
8.31310E-01 1.24389E-29
8.34565E-01 1.19508E-29
8.37795E-01 1.14812E-29
8.40999E-01 1.10292E-29
8.44177E-01 1.05943E-29
8.47329E-01 1.01757E-29
8.50455E-01 9.77283E-30
8.53553E-01 9.38514E-30
8.56625E-01 9.01202E-30
8.59670E-01 8.65292E-30
8.62687E-01 8.30732E-30
8.65677E-01 7.97469E-30
8.68639E-01 7.65456E-30
8.71572E-01 7.34645E-30
8.74478E-01 7.04990E-30
8.77355E-01 6.76448E-30
8.80203E-01 6.48977E-30
8.83022E-01 6.22536E-30
8.85812E-01 5.97088E-30
8.88573E-01 5.72594E-30
8.91304E-01 5.49018E-30
8.94005E-01 5.26327E-30
8.96677E-01 5.04487E-30
8.99318E-01 4.83467E-30
9.01928E-01 4.63234E-30
9.04508E-01 4.43761E-30
9.07058E-01 4.25019E-30
9.09576E-01 4.06980E-30
9.12063E-01 3.89619E-30
9.14519E-01 3.72910E-30
9.16943E-01 3.56828E-30
9.19335E-01 3.41352E-30
9.21696E-01 3.26457E-30
9.24024E-01 3.12123E-30
9.26320E-01 2.98329E-30
9.28584E-01 2.85056E-30
9.30815E-01 2.72283E-30
9.33013E-01 2.59992E-30
9.35178E-01 2.48167E-30
9.37310E-01 2.36789E-30
9.39409E-01 2.25843E-30
9.41474E-01 2.15313E-30
9.43505E-01 2.05184E-30
9.45503E-01 1.95441E-30
9.47467E-01 1.86070E-30
9.49397E-01 1.77057E-30
9.51293E-01 1.68391E-30
9.53154E-01 1.60059E-30
9.54981E-01 1.52048E-30
9.56773E-01 1.44348E-30
9.58530E-01 1.36947E-30
9.60252E-01 1.29835E-30
9.61940E-01 1.23002E-30
9.63592E-01 1.16437E-30
9.65209E-01 1.10133E-30
9.66790E-01 1.04079E-30
9.68336E-01 9.82680E-31
9.69846E-01 9.26907E-31
9.71321E-01 8.73396E-31
9.72759E-01 8.22071E-31
9.74162E-01 7.72860E-31
9.75528E-01 7.25693E-31
9.76858E-01 6.80504E-31
9.78152E-01 6.37229E-31
9.79410E-01 5.95808E-31
9.80631E-01 5.56182E-31
9.81815E-01 5.18296E-31
9.82963E-01 4.82097E-31
9.84074E-01 4.47533E-31
9.85148E-01 4.14556E-31
9.86185E-01 3.83121E-31
9.87185E-01 3.53183E-31
9.88148E-01 3.24701E-31
9.89074E-01 2.97634E-31
9.89962E-01 2.71945E-31
9.90814E-01 2.47598E-31
9.91627E-01 2.24560E-31
9.92404E-01 2.02797E-31
9.93143E-01 1.82280E-31
9.93844E-01 1.62980E-31
9.94508E-01 1.44870E-31
9.95134E-01 1.27926E-31
9.95722E-01 1.12123E-31
9.96273E-01 9.74396E-32
9.96786E-01 8.38556E-32
9.97261E-01 7.13520E-32
9.97698E-01 5.99114E-32
9.98097E-01 4.95179E-32
9.98459E-01 4.01573E-32
9.98782E-01 3.18164E-32
9.99067E-01 2.44838E-32
9.99315E-01 1.81493E-32
9.99524E-01 1.28041E-32
9.99695E-01 8.44077E-33
9.99829E-01 5.05331E-33
9.99924E-01 2.63712E-33
9.99981E-01 1.18861E-33
1.00000E+00 7.06117E-34
