 #
 # Subroutine ELSEPA. Elastic scattering of electrons and positrons
 #                    by neutral atoms and positive ions
 #
 # Projectile: electron
 # Kinetic energy = 8.00000E+06 eV = 2.93995E+05 a.u.
 #
 # WARNING: High-energy factorization with free-atom DF screening.
 #          Absorption, polarization and exchange corrections are
 #          switched off.
 #          Phase shifts are calculated for the bare nucleus.
 #          Scattering amplitudes are not evaluated.
 #
 # Element: Cr,  Z =  24,  atomic weight = 5.19961E+01 g/mol
 #
 # Nuclear model: Fermi distribution
 #                Average radius = 3.99369E-13 cm
 #                Skin thickness = 5.46000E-14 cm
 #
 # Number of electrons = 24
 #
 # Total elastic cross section = 1.79828E-18 cm**2 = 6.42177E-02 a0**2
 # 1st transport cross section = 1.33887E-23 cm**2 = 4.78121E-07 a0**2
 # 2nd transport cross section = 3.82392E-23 cm**2 = 1.36555E-06 a0**2
 #
 #
 # Differential cross section:                       MU=(1-COS(THETA))/2
 #
 #  THETA        MU          DCS          DCS        Sherman      error
 #  (deg)                 (cm**2/sr)   (a0**2/sr)    function
 #----------------------------------------------------------------------
0.00000E+00 1.33910E-12
7.61557E-13 1.33907E-12
1.18994E-12 1.33905E-12
1.71346E-12 1.33903E-12
2.33225E-12 1.33900E-12
3.04617E-12 1.33897E-12
3.85530E-12 1.33893E-12
4.75964E-12 1.33889E-12
5.75917E-12 1.33885E-12
6.85391E-12 1.33880E-12
8.04379E-12 1.33875E-12
9.32893E-12 1.33870E-12
1.07092E-11 1.33864E-12
1.21847E-11 1.33857E-12
1.37554E-11 1.33850E-12
1.54213E-11 1.33843E-12
1.71823E-11 1.33836E-12
1.90386E-11 1.33828E-12
2.09900E-11 1.33819E-12
2.30367E-11 1.33810E-12
2.51785E-11 1.33801E-12
2.74156E-11 1.33791E-12
2.97478E-11 1.33781E-12
3.21752E-11 1.33771E-12
3.46979E-11 1.33760E-12
3.73157E-11 1.33749E-12
4.00286E-11 1.33737E-12
4.28368E-11 1.33725E-12
4.57402E-11 1.33712E-12
4.87388E-11 1.33699E-12
5.18325E-11 1.33686E-12
5.50215E-11 1.33672E-12
5.83057E-11 1.33658E-12
6.16850E-11 1.33643E-12
6.51595E-11 1.33628E-12
6.87293E-11 1.33613E-12
7.23943E-11 1.33597E-12
7.61544E-11 1.33581E-12
1.18991E-10 1.33397E-12
1.71347E-10 1.33172E-12
2.33223E-10 1.32907E-12
3.04617E-10 1.32603E-12
3.85531E-10 1.32259E-12
4.75965E-10 1.31877E-12
5.75917E-10 1.31457E-12
6.85389E-10 1.31000E-12
8.04380E-10 1.30506E-12
9.32891E-10 1.29976E-12
1.07092E-09 1.29411E-12
1.21847E-09 1.28812E-12
1.37554E-09 1.28179E-12
1.54213E-09 1.27514E-12
1.71823E-09 1.26817E-12
1.90386E-09 1.26090E-12
2.09900E-09 1.25334E-12
2.30367E-09 1.24549E-12
2.51785E-09 1.23737E-12
2.74156E-09 1.22898E-12
2.97478E-09 1.22035E-12
3.21752E-09 1.21147E-12
3.46978E-09 1.20236E-12
3.73156E-09 1.19304E-12
4.00286E-09 1.18351E-12
4.28368E-09 1.17379E-12
4.57402E-09 1.16389E-12
4.87388E-09 1.15383E-12
5.18326E-09 1.14359E-12
5.50215E-09 1.13320E-12
5.83057E-09 1.12269E-12
6.16850E-09 1.11205E-12
6.51596E-09 1.10129E-12
6.87293E-09 1.09044E-12
7.23942E-09 1.07950E-12
7.61544E-09 1.06846E-12
1.18991E-08 9.55803E-13
1.71347E-08 8.44632E-13
2.33223E-08 7.40829E-13
3.04617E-08 6.47500E-13
3.85531E-08 5.65701E-13
4.75965E-08 4.95051E-13
5.75917E-08 4.34606E-13
6.85389E-08 3.82944E-13
8.04380E-08 3.38856E-13
9.32891E-08 3.01034E-13
1.07092E-07 2.68495E-13
1.21847E-07 2.40326E-13
1.37554E-07 2.15802E-13
1.54213E-07 1.94365E-13
1.71823E-07 1.75477E-13
1.90386E-07 1.58829E-13
2.09900E-07 1.44002E-13
2.30367E-07 1.30838E-13
2.51785E-07 1.19033E-13
2.74156E-07 1.08476E-13
2.97478E-07 9.89713E-14
3.21752E-07 9.02823E-14
3.46978E-07 8.19248E-14
3.73156E-07 7.46633E-14
4.00286E-07 6.83267E-14
4.28368E-07 6.27739E-14
4.57402E-07 5.78883E-14
4.87388E-07 5.35730E-14
5.18325E-07 4.91897E-14
5.50215E-07 4.50978E-14
5.83057E-07 4.14739E-14
6.16850E-07 3.82539E-14
6.51596E-07 3.53838E-14
6.87293E-07 3.28178E-14
7.23942E-07 3.04381E-14
7.61543E-07 2.80775E-14
1.18991E-06 1.36234E-14
1.71347E-06 7.25897E-15
2.33223E-06 4.21847E-15
3.04617E-06 2.64074E-15
3.85531E-06 1.75466E-15
4.75964E-06 1.21933E-15
5.75916E-06 8.77612E-16
6.85388E-06 6.48095E-16
8.04378E-06 4.89095E-16
9.32888E-06 3.75318E-16
1.07092E-05 2.92376E-16
1.21846E-05 2.30722E-16
1.37553E-05 1.84195E-16
1.54212E-05 1.48624E-16
1.71822E-05 1.21077E-16
1.90385E-05 9.95449E-17
2.09899E-05 8.25359E-17
2.30365E-05 6.89838E-17
2.51783E-05 5.80765E-17
2.74153E-05 4.92321E-17
2.97475E-05 4.20012E-17
3.21749E-05 3.60472E-17
3.46974E-05 3.11083E-17
3.73152E-05 2.69972E-17
4.00281E-05 2.35433E-17
4.28362E-05 2.06257E-17
4.57395E-05 1.81516E-17
4.87380E-05 1.60348E-17
5.18317E-05 1.42210E-17
5.50205E-05 1.26578E-17
5.83045E-05 1.13039E-17
6.16838E-05 1.01284E-17
6.51582E-05 9.10138E-18
6.87277E-05 8.20248E-18
7.23925E-05 7.41278E-18
7.61524E-05 6.71556E-18
9.21439E-05 4.63103E-18
1.09658E-04 3.29714E-18
1.28695E-04 2.41164E-18
1.49255E-04 1.80442E-18
1.71338E-04 1.37690E-18
1.94942E-04 1.06874E-18
2.20070E-04 8.42092E-19
2.46720E-04 6.72420E-19
2.74892E-04 5.43344E-19
3.04586E-04 4.43789E-19
3.35803E-04 3.65986E-19
3.68542E-04 3.04502E-19
4.02802E-04 2.55386E-19
4.38585E-04 2.15779E-19
4.75889E-04 1.83555E-19
5.14715E-04 1.57125E-19
5.55063E-04 1.35282E-19
5.96931E-04 1.17105E-19
6.40321E-04 1.01881E-19
6.85233E-04 8.90511E-20
7.31665E-04 7.81792E-20
7.79618E-04 6.89168E-20
8.29092E-04 6.09868E-20
8.80086E-04 5.41656E-20
9.32601E-04 4.82724E-20
9.86636E-04 4.31596E-20
1.04219E-03 3.87066E-20
1.09927E-03 3.48138E-20
1.15786E-03 3.13986E-20
1.21797E-03 2.83925E-20
1.27961E-03 2.57380E-20
1.34276E-03 2.33870E-20
1.40743E-03 2.12986E-20
1.47362E-03 1.94385E-20
1.54133E-03 1.77773E-20
1.61056E-03 1.62901E-20
1.68131E-03 1.49555E-20
1.75357E-03 1.37549E-20
1.82735E-03 1.26726E-20
1.90265E-03 1.16948E-20
1.97947E-03 1.08098E-20
2.05780E-03 1.00070E-20
2.13765E-03 9.27747E-21
2.21902E-03 8.61336E-21
2.30190E-03 8.00773E-21
2.38630E-03 7.45451E-21
2.47222E-03 6.94833E-21
2.55965E-03 6.48449E-21
2.64859E-03 6.05878E-21
2.73905E-03 5.66752E-21
2.83103E-03 5.30740E-21
2.92452E-03 4.97549E-21
3.01952E-03 4.66919E-21
3.11604E-03 4.38615E-21
3.21407E-03 4.12428E-21
3.31362E-03 3.88171E-21
3.41468E-03 3.65676E-21
3.51725E-03 3.44790E-21
3.62133E-03 3.25379E-21
3.72692E-03 3.07317E-21
3.83403E-03 2.90495E-21
3.94265E-03 2.74811E-21
4.05278E-03 2.60174E-21
4.16442E-03 2.46501E-21
4.27757E-03 2.33717E-21
4.39223E-03 2.21754E-21
4.50840E-03 2.10548E-21
4.62608E-03 2.00043E-21
4.74527E-03 1.90187E-21
4.86597E-03 1.80932E-21
4.98817E-03 1.72235E-21
5.11188E-03 1.64056E-21
5.23711E-03 1.56358E-21
5.36383E-03 1.49107E-21
5.49207E-03 1.42273E-21
5.62181E-03 1.35828E-21
5.75306E-03 1.29744E-21
5.88581E-03 1.23998E-21
6.02007E-03 1.18568E-21
6.15583E-03 1.13433E-21
6.29310E-03 1.08574E-21
6.43187E-03 1.03972E-21
6.57214E-03 9.96132E-22
6.71392E-03 9.54808E-22
6.85720E-03 9.15612E-22
7.00198E-03 8.78413E-22
7.14827E-03 8.43090E-22
7.29605E-03 8.09531E-22
7.44534E-03 7.77630E-22
7.59612E-03 7.47291E-22
7.97965E-03 6.77691E-22
8.37255E-03 6.16033E-22
8.77480E-03 5.61253E-22
9.18641E-03 5.12448E-22
9.60736E-03 4.68852E-22
1.00376E-02 4.29810E-22
1.04773E-02 3.94763E-22
1.09262E-02 3.63228E-22
1.13844E-02 3.34791E-22
1.18520E-02 3.09092E-22
1.23288E-02 2.85822E-22
1.28150E-02 2.64708E-22
1.33104E-02 2.45515E-22
1.38150E-02 2.28037E-22
1.43290E-02 2.12093E-22
1.48521E-02 1.97523E-22
1.53845E-02 1.84188E-22
1.59262E-02 1.71963E-22
1.64770E-02 1.60740E-22
1.70371E-02 1.50421E-22
1.76063E-02 1.40920E-22
1.81848E-02 1.32160E-22
1.87724E-02 1.24073E-22
1.93692E-02 1.16597E-22
1.99751E-02 1.09678E-22
2.05901E-02 1.03267E-22
2.12143E-02 9.73193E-23
2.18476E-02 9.17953E-23
2.24900E-02 8.66591E-23
2.31415E-02 8.18785E-23
2.38021E-02 7.74242E-23
2.44717E-02 7.32699E-23
2.51504E-02 6.93916E-23
2.58382E-02 6.57675E-23
2.65349E-02 6.23777E-23
2.72407E-02 5.92044E-23
2.79555E-02 5.62310E-23
2.86793E-02 5.34426E-23
2.94120E-02 5.08256E-23
3.01537E-02 4.83673E-23
3.09043E-02 4.60564E-23
3.16639E-02 4.38824E-23
3.24324E-02 4.18356E-23
3.32098E-02 3.99071E-23
3.39961E-02 3.80889E-23
3.47912E-02 3.63733E-23
3.55952E-02 3.47536E-23
3.64081E-02 3.32234E-23
3.72297E-02 3.17767E-23
3.80602E-02 3.04081E-23
3.88995E-02 2.91126E-23
3.97476E-02 2.78856E-23
4.06044E-02 2.67228E-23
4.14700E-02 2.56201E-23
4.23443E-02 2.45739E-23
4.32273E-02 2.35807E-23
4.41190E-02 2.26373E-23
4.50194E-02 2.17407E-23
4.59284E-02 2.08881E-23
4.68461E-02 2.00771E-23
4.87074E-02 1.85700E-23
5.06030E-02 1.72020E-23
5.25328E-02 1.59579E-23
5.44967E-02 1.48244E-23
5.64946E-02 1.37900E-23
5.85262E-02 1.28444E-23
6.05914E-02 1.19785E-23
6.26901E-02 1.11845E-23
6.48222E-02 1.04552E-23
6.69873E-02 9.78446E-24
6.91854E-02 9.16665E-24
7.14163E-02 8.59684E-24
7.36799E-02 8.07061E-24
7.59760E-02 7.58402E-24
7.83043E-02 7.13353E-24
8.06647E-02 6.71596E-24
8.30571E-02 6.32846E-24
8.54812E-02 5.96846E-24
8.79369E-02 5.63366E-24
9.04240E-02 5.32195E-24
9.29422E-02 5.03145E-24
9.54915E-02 4.76044E-24
9.80716E-02 4.50738E-24
1.00682E-01 4.27086E-24
1.03323E-01 4.04958E-24
1.05995E-01 3.84239E-24
1.08696E-01 3.64822E-24
1.11427E-01 3.46610E-24
1.14188E-01 3.29514E-24
1.16978E-01 3.13453E-24
1.19797E-01 2.98353E-24
1.22645E-01 2.84145E-24
1.25522E-01 2.70767E-24
1.28428E-01 2.58161E-24
1.31361E-01 2.46274E-24
1.34323E-01 2.35058E-24
1.37313E-01 2.24467E-24
1.40330E-01 2.14461E-24
1.43375E-01 2.05000E-24
1.46447E-01 1.96050E-24
1.49545E-01 1.87578E-24
1.52671E-01 1.79553E-24
1.55823E-01 1.71948E-24
1.59001E-01 1.64736E-24
1.62205E-01 1.57893E-24
1.65435E-01 1.51397E-24
1.68690E-01 1.45227E-24
1.71970E-01 1.39364E-24
1.75276E-01 1.33789E-24
1.78606E-01 1.28485E-24
1.81961E-01 1.23437E-24
1.85340E-01 1.18631E-24
1.88743E-01 1.14052E-24
1.92169E-01 1.09688E-24
1.95619E-01 1.05526E-24
1.99092E-01 1.01556E-24
2.02589E-01 9.77675E-25
2.06107E-01 9.41500E-25
2.09649E-01 9.06946E-25
2.13212E-01 8.73928E-25
2.16797E-01 8.42363E-25
2.20404E-01 8.12176E-25
2.24032E-01 7.83296E-25
2.27680E-01 7.55656E-25
2.31350E-01 7.29192E-25
2.35040E-01 7.03845E-25
2.38751E-01 6.79559E-25
2.42481E-01 6.56282E-25
2.46231E-01 6.33964E-25
2.50000E-01 6.12557E-25
2.53788E-01 5.92018E-25
2.57595E-01 5.72305E-25
2.61421E-01 5.53379E-25
2.65264E-01 5.35203E-25
2.69126E-01 5.17741E-25
2.73005E-01 5.00960E-25
2.76901E-01 4.84828E-25
2.80814E-01 4.69317E-25
2.84744E-01 4.54397E-25
2.88691E-01 4.40042E-25
2.92653E-01 4.26226E-25
2.96632E-01 4.12926E-25
3.00625E-01 4.00119E-25
3.04634E-01 3.87784E-25
3.08658E-01 3.75899E-25
3.12697E-01 3.64445E-25
3.16749E-01 3.53403E-25
3.20816E-01 3.42757E-25
3.24896E-01 3.32490E-25
3.28990E-01 3.22585E-25
3.33097E-01 3.13027E-25
3.37216E-01 3.03802E-25
3.41348E-01 2.94897E-25
3.45492E-01 2.86298E-25
3.49647E-01 2.77993E-25
3.53814E-01 2.69969E-25
3.57992E-01 2.62217E-25
3.62181E-01 2.54724E-25
3.66381E-01 2.47481E-25
3.70590E-01 2.40477E-25
3.74810E-01 2.33705E-25
3.79039E-01 2.27153E-25
3.83277E-01 2.20815E-25
3.87524E-01 2.14681E-25
3.91780E-01 2.08745E-25
3.96044E-01 2.02998E-25
4.00316E-01 1.97433E-25
4.04596E-01 1.92044E-25
4.08882E-01 1.86825E-25
4.13176E-01 1.81768E-25
4.17476E-01 1.76868E-25
4.21783E-01 1.72119E-25
4.26095E-01 1.67516E-25
4.30413E-01 1.63053E-25
4.34737E-01 1.58726E-25
4.39065E-01 1.54529E-25
4.43398E-01 1.50458E-25
4.47736E-01 1.46509E-25
4.52077E-01 1.42677E-25
4.56422E-01 1.38958E-25
4.60770E-01 1.35349E-25
4.65122E-01 1.31845E-25
4.69476E-01 1.28442E-25
4.73832E-01 1.25139E-25
4.78190E-01 1.21930E-25
4.82550E-01 1.18813E-25
4.86912E-01 1.15785E-25
4.91274E-01 1.12843E-25
4.95637E-01 1.09984E-25
5.00000E-01 1.07205E-25
5.04363E-01 1.04504E-25
5.08726E-01 1.01878E-25
5.13088E-01 9.93249E-26
5.17450E-01 9.68418E-26
5.21810E-01 9.44269E-26
5.26168E-01 9.20778E-26
5.30524E-01 8.97925E-26
5.34878E-01 8.75690E-26
5.39230E-01 8.54054E-26
5.43578E-01 8.32997E-26
5.47923E-01 8.12502E-26
5.52264E-01 7.92551E-26
5.56602E-01 7.73128E-26
5.60935E-01 7.54215E-26
5.65263E-01 7.35799E-26
5.69587E-01 7.17863E-26
5.73905E-01 7.00394E-26
5.78217E-01 6.83376E-26
5.82524E-01 6.66797E-26
5.86824E-01 6.50643E-26
5.91118E-01 6.34903E-26
5.95404E-01 6.19563E-26
5.99684E-01 6.04612E-26
6.03956E-01 5.90038E-26
6.08220E-01 5.75831E-26
6.12476E-01 5.61980E-26
6.16723E-01 5.48475E-26
6.20961E-01 5.35305E-26
6.25190E-01 5.22462E-26
6.29410E-01 5.09935E-26
6.33619E-01 4.97717E-26
6.37819E-01 4.85798E-26
6.42008E-01 4.74170E-26
6.46186E-01 4.62824E-26
6.50353E-01 4.51753E-26
6.54508E-01 4.40950E-26
6.58652E-01 4.30407E-26
6.62784E-01 4.20116E-26
6.66903E-01 4.10072E-26
6.71010E-01 4.00266E-26
6.75104E-01 3.90694E-26
6.79184E-01 3.81348E-26
6.83251E-01 3.72222E-26
6.87303E-01 3.63311E-26
6.91342E-01 3.54609E-26
6.95366E-01 3.46110E-26
6.99375E-01 3.37809E-26
7.03368E-01 3.29701E-26
7.07347E-01 3.21781E-26
7.11309E-01 3.14043E-26
7.15256E-01 3.06484E-26
7.19186E-01 2.99098E-26
7.23099E-01 2.91881E-26
7.26995E-01 2.84829E-26
7.30874E-01 2.77938E-26
7.34736E-01 2.71203E-26
7.38579E-01 2.64621E-26
7.42405E-01 2.58188E-26
7.46212E-01 2.51899E-26
7.50000E-01 2.45752E-26
7.53769E-01 2.39743E-26
7.57519E-01 2.33869E-26
7.61249E-01 2.28126E-26
7.64960E-01 2.22510E-26
7.68650E-01 2.17020E-26
7.72320E-01 2.11651E-26
7.75968E-01 2.06402E-26
7.79596E-01 2.01268E-26
7.83203E-01 1.96248E-26
7.86788E-01 1.91339E-26
7.90351E-01 1.86537E-26
7.93893E-01 1.81841E-26
7.97411E-01 1.77248E-26
8.00908E-01 1.72756E-26
8.04381E-01 1.68361E-26
8.07831E-01 1.64063E-26
8.11257E-01 1.59859E-26
8.14660E-01 1.55746E-26
8.18039E-01 1.51722E-26
8.21394E-01 1.47786E-26
8.24724E-01 1.43936E-26
8.28030E-01 1.40169E-26
8.31310E-01 1.36484E-26
8.34565E-01 1.32879E-26
8.37795E-01 1.29352E-26
8.40999E-01 1.25901E-26
8.44177E-01 1.22525E-26
8.47329E-01 1.19223E-26
8.50455E-01 1.15991E-26
8.53553E-01 1.12830E-26
8.56625E-01 1.09737E-26
8.59670E-01 1.06711E-26
8.62687E-01 1.03751E-26
8.65677E-01 1.00855E-26
8.68639E-01 9.80222E-27
8.71572E-01 9.52507E-27
8.74478E-01 9.25395E-27
8.77355E-01 8.98873E-27
8.80203E-01 8.72929E-27
8.83022E-01 8.47552E-27
8.85812E-01 8.22731E-27
8.88573E-01 7.98453E-27
8.91304E-01 7.74708E-27
8.94005E-01 7.51486E-27
8.96677E-01 7.28776E-27
8.99318E-01 7.06569E-27
9.01928E-01 6.84854E-27
9.04508E-01 6.63622E-27
9.07058E-01 6.42864E-27
9.09576E-01 6.22571E-27
9.12063E-01 6.02733E-27
9.14519E-01 5.83344E-27
9.16943E-01 5.64394E-27
9.19335E-01 5.45875E-27
9.21696E-01 5.27779E-27
9.24024E-01 5.10099E-27
9.26320E-01 4.92827E-27
9.28584E-01 4.75956E-27
9.30815E-01 4.59480E-27
9.33013E-01 4.43390E-27
9.35178E-01 4.27681E-27
9.37310E-01 4.12346E-27
9.39409E-01 3.97379E-27
9.41474E-01 3.82774E-27
9.43505E-01 3.68524E-27
9.45503E-01 3.54623E-27
9.47467E-01 3.41067E-27
9.49397E-01 3.27850E-27
9.51293E-01 3.14966E-27
9.53154E-01 3.02410E-27
9.54981E-01 2.90178E-27
9.56773E-01 2.78264E-27
9.58530E-01 2.66663E-27
9.60252E-01 2.55372E-27
9.61940E-01 2.44384E-27
9.63592E-01 2.33698E-27
9.65209E-01 2.23307E-27
9.66790E-01 2.13208E-27
9.68336E-01 2.03397E-27
9.69846E-01 1.93870E-27
9.71321E-01 1.84624E-27
9.72759E-01 1.75654E-27
9.74162E-01 1.66958E-27
9.75528E-01 1.58532E-27
9.76858E-01 1.50373E-27
9.78152E-01 1.42477E-27
9.79410E-01 1.34842E-27
9.80631E-01 1.27465E-27
9.81815E-01 1.20343E-27
9.82963E-01 1.13473E-27
9.84074E-01 1.06852E-27
9.85148E-01 1.00479E-27
9.86185E-01 9.43501E-28
9.87185E-01 8.84638E-28
9.88148E-01 8.28175E-28
9.89074E-01 7.74093E-28
9.89962E-01 7.22370E-28
9.90814E-01 6.72988E-28
9.91627E-01 6.25927E-28
9.92404E-01 5.81171E-28
9.93143E-01 5.38702E-28
9.93844E-01 4.98505E-28
9.94508E-01 4.60565E-28
9.95134E-01 4.24867E-28
9.95722E-01 3.91399E-28
9.96273E-01 3.60147E-28
9.96786E-01 3.31100E-28
9.97261E-01 3.04249E-28
9.97698E-01 2.79581E-28
9.98097E-01 2.57089E-28
9.98459E-01 2.36764E-28
9.98782E-01 2.18599E-28
9.99067E-01 2.02586E-28
9.99315E-01 1.88720E-28
9.99524E-01 1.76997E-28
9.99695E-01 1.67410E-28
9.99829E-01 1.59958E-28
9.99924E-01 1.54637E-28
9.99981E-01 1.51445E-28
1.00000E+00 1.50381E-28
