 #
 # Subroutine ELSEPA. Elastic scattering of electrons and positrons
 #                    by neutral atoms and positive ions
 #
 # Projectile: electron
 # Kinetic energy = 7.00000E+06 eV = 2.57245E+05 a.u.
 #
 # WARNING: High-energy factorization with free-atom DF screening.
 #          Absorption, polarization and exchange corrections are
 #          switched off.
 #          Phase shifts are calculated for the bare nucleus.
 #          Scattering amplitudes are not evaluated.
 #
 # Element: Cr,  Z =  24,  atomic weight = 5.19961E+01 g/mol
 #
 # Nuclear model: Fermi distribution
 #                Average radius = 3.99369E-13 cm
 #                Skin thickness = 5.46000E-14 cm
 #
 # Number of electrons = 24
 #
 # Total elastic cross section = 1.79977E-18 cm**2 = 6.42709E-02 a0**2
 # 1st transport cross section = 1.68988E-23 cm**2 = 6.03466E-07 a0**2
 # 2nd transport cross section = 4.82052E-23 cm**2 = 1.72144E-06 a0**2
 #
 #
 # Differential cross section:                       MU=(1-COS(THETA))/2
 #
 #  THETA        MU          DCS          DCS        Sherman      error
 #  (deg)                 (cm**2/sr)   (a0**2/sr)    function
 #----------------------------------------------------------------------
0.00000E+00 1.04291E-12
7.61557E-13 1.04289E-12
1.18994E-12 1.04288E-12
1.71346E-12 1.04287E-12
2.33225E-12 1.04285E-12
3.04617E-12 1.04283E-12
3.85530E-12 1.04281E-12
4.75964E-12 1.04279E-12
5.75917E-12 1.04276E-12
6.85391E-12 1.04273E-12
8.04379E-12 1.04270E-12
9.32893E-12 1.04267E-12
1.07092E-11 1.04263E-12
1.21847E-11 1.04259E-12
1.37554E-11 1.04255E-12
1.54213E-11 1.04251E-12
1.71823E-11 1.04246E-12
1.90386E-11 1.04241E-12
2.09900E-11 1.04236E-12
2.30367E-11 1.04231E-12
2.51785E-11 1.04225E-12
2.74156E-11 1.04219E-12
2.97478E-11 1.04213E-12
3.21752E-11 1.04207E-12
3.46979E-11 1.04200E-12
3.73157E-11 1.04193E-12
4.00286E-11 1.04186E-12
4.28368E-11 1.04179E-12
4.57402E-11 1.04171E-12
4.87388E-11 1.04163E-12
5.18325E-11 1.04155E-12
5.50215E-11 1.04147E-12
5.83057E-11 1.04138E-12
6.16850E-11 1.04130E-12
6.51595E-11 1.04120E-12
6.87293E-11 1.04111E-12
7.23943E-11 1.04102E-12
7.61544E-11 1.04092E-12
1.18991E-10 1.03980E-12
1.71347E-10 1.03843E-12
2.33223E-10 1.03683E-12
3.04617E-10 1.03498E-12
3.85531E-10 1.03289E-12
4.75965E-10 1.03056E-12
5.75917E-10 1.02800E-12
6.85389E-10 1.02520E-12
8.04380E-10 1.02218E-12
9.32891E-10 1.01894E-12
1.07092E-09 1.01547E-12
1.21847E-09 1.01179E-12
1.37554E-09 1.00790E-12
1.54213E-09 1.00379E-12
1.71823E-09 9.99490E-13
1.90386E-09 9.94988E-13
2.09900E-09 9.90293E-13
2.30367E-09 9.85410E-13
2.51785E-09 9.80345E-13
2.74156E-09 9.75103E-13
2.97478E-09 9.69690E-13
3.21752E-09 9.64112E-13
3.46978E-09 9.58375E-13
3.73156E-09 9.52484E-13
4.00286E-09 9.46446E-13
4.28368E-09 9.40262E-13
4.57402E-09 9.33943E-13
4.87388E-09 9.27497E-13
5.18326E-09 9.20929E-13
5.50215E-09 9.14246E-13
5.83057E-09 9.07455E-13
6.16850E-09 9.00562E-13
6.51596E-09 8.93567E-13
6.87293E-09 8.86473E-13
7.23942E-09 8.79296E-13
7.61544E-09 8.72041E-13
1.18991E-08 7.96395E-13
1.71347E-08 7.18724E-13
2.33223E-08 6.43213E-13
3.04617E-08 5.72646E-13
3.85531E-08 5.08506E-13
4.75965E-08 4.51348E-13
5.75917E-08 4.01071E-13
6.85389E-08 3.57127E-13
8.04380E-08 3.18908E-13
9.32891E-08 2.85671E-13
1.07092E-07 2.56693E-13
1.21847E-07 2.31417E-13
1.37554E-07 2.09234E-13
1.54213E-07 1.89700E-13
1.71823E-07 1.72464E-13
1.90386E-07 1.57115E-13
2.09900E-07 1.43449E-13
2.30367E-07 1.31237E-13
2.51785E-07 1.20231E-13
2.74156E-07 1.10340E-13
2.97478E-07 1.01400E-13
3.21752E-07 9.32880E-14
3.46978E-07 8.59402E-14
3.73156E-07 7.92413E-14
4.00286E-07 7.31359E-14
4.28368E-07 6.71959E-14
4.57402E-07 6.17745E-14
4.87388E-07 5.69790E-14
5.18325E-07 5.27227E-14
5.50215E-07 4.89329E-14
5.83057E-07 4.55478E-14
6.16850E-07 4.25150E-14
6.51596E-07 3.95736E-14
6.87293E-07 3.66119E-14
7.23942E-07 3.39548E-14
7.61543E-07 3.15649E-14
1.18991E-06 1.60756E-14
1.71347E-06 8.75061E-15
2.33223E-06 5.11128E-15
3.04617E-06 3.19456E-15
3.85531E-06 2.11315E-15
4.75964E-06 1.46505E-15
5.75916E-06 1.05442E-15
6.85388E-06 7.80662E-16
8.04378E-06 5.91632E-16
9.32888E-06 4.56724E-16
1.07092E-05 3.57823E-16
1.21846E-05 2.84075E-16
1.37553E-05 2.28041E-16
1.54212E-05 1.84914E-16
1.71822E-05 1.51361E-16
1.90385E-05 1.24895E-16
2.09899E-05 1.03889E-16
2.30365E-05 8.70524E-17
2.51783E-05 7.34311E-17
2.74153E-05 6.23471E-17
2.97475E-05 5.32579E-17
3.21749E-05 4.57530E-17
3.46974E-05 3.95199E-17
3.73152E-05 3.43087E-17
4.00281E-05 2.99278E-17
4.28362E-05 2.62202E-17
4.57395E-05 2.30726E-17
4.87380E-05 2.03890E-17
5.18317E-05 1.80812E-17
5.50205E-05 1.60925E-17
5.83045E-05 1.43731E-17
6.16838E-05 1.28758E-17
6.51582E-05 1.15702E-17
6.87277E-05 1.04281E-17
7.23925E-05 9.42264E-18
7.61524E-05 8.53683E-18
9.21439E-05 5.88763E-18
1.09658E-04 4.19332E-18
1.28695E-04 3.06878E-18
1.49255E-04 2.29781E-18
1.71338E-04 1.75460E-18
1.94942E-04 1.36299E-18
2.20070E-04 1.07474E-18
2.46720E-04 8.58786E-19
2.74892E-04 6.94434E-19
3.04586E-04 5.67520E-19
3.35803E-04 4.68297E-19
3.68542E-04 3.89827E-19
4.02802E-04 3.27097E-19
4.38585E-04 2.76485E-19
4.75889E-04 2.35285E-19
5.14715E-04 2.01471E-19
5.55063E-04 1.73518E-19
5.96931E-04 1.50244E-19
6.40321E-04 1.30742E-19
6.85233E-04 1.14304E-19
7.31665E-04 1.00368E-19
7.79618E-04 8.84927E-20
8.29092E-04 7.83228E-20
8.80086E-04 6.95725E-20
9.32601E-04 6.20111E-20
9.86636E-04 5.54498E-20
1.04219E-03 4.97341E-20
1.09927E-03 4.47366E-20
1.15786E-03 4.03516E-20
1.21797E-03 3.64912E-20
1.27961E-03 3.30821E-20
1.34276E-03 3.00622E-20
1.40743E-03 2.73794E-20
1.47362E-03 2.49897E-20
1.54133E-03 2.28553E-20
1.61056E-03 2.09443E-20
1.68131E-03 1.92291E-20
1.75357E-03 1.76862E-20
1.82735E-03 1.62952E-20
1.90265E-03 1.50385E-20
1.97947E-03 1.39008E-20
2.05780E-03 1.28688E-20
2.13765E-03 1.19310E-20
2.21902E-03 1.10773E-20
2.30190E-03 1.02986E-20
2.38630E-03 9.58737E-21
2.47222E-03 8.93656E-21
2.55965E-03 8.34015E-21
2.64859E-03 7.79277E-21
2.73905E-03 7.28966E-21
2.83103E-03 6.82658E-21
2.92452E-03 6.39977E-21
3.01952E-03 6.00587E-21
3.11604E-03 5.64188E-21
3.21407E-03 5.30511E-21
3.31362E-03 4.99315E-21
3.41468E-03 4.70384E-21
3.51725E-03 4.43524E-21
3.62133E-03 4.18558E-21
3.72692E-03 3.95328E-21
3.83403E-03 3.73692E-21
3.94265E-03 3.53519E-21
4.05278E-03 3.34693E-21
4.16442E-03 3.17107E-21
4.27757E-03 3.00664E-21
4.39223E-03 2.85275E-21
4.50840E-03 2.70861E-21
4.62608E-03 2.57349E-21
4.74527E-03 2.44671E-21
4.86597E-03 2.32766E-21
4.98817E-03 2.21579E-21
5.11188E-03 2.11058E-21
5.23711E-03 2.01156E-21
5.36383E-03 1.91829E-21
5.49207E-03 1.83038E-21
5.62181E-03 1.74747E-21
5.75306E-03 1.66921E-21
5.88581E-03 1.59529E-21
6.02007E-03 1.52544E-21
6.15583E-03 1.45938E-21
6.29310E-03 1.39687E-21
6.43187E-03 1.33768E-21
6.57214E-03 1.28160E-21
6.71392E-03 1.22844E-21
6.85720E-03 1.17801E-21
7.00198E-03 1.13016E-21
7.14827E-03 1.08472E-21
7.29605E-03 1.04154E-21
7.44534E-03 1.00050E-21
7.59612E-03 9.61471E-22
7.97965E-03 8.71931E-22
8.37255E-03 7.92608E-22
8.77480E-03 7.22133E-22
9.18641E-03 6.59344E-22
9.60736E-03 6.03256E-22
1.00376E-02 5.53027E-22
1.04773E-02 5.07936E-22
1.09262E-02 4.67364E-22
1.13844E-02 4.30777E-22
1.18520E-02 3.97714E-22
1.23288E-02 3.67774E-22
1.28150E-02 3.40609E-22
1.33104E-02 3.15916E-22
1.38150E-02 2.93428E-22
1.43290E-02 2.72914E-22
1.48521E-02 2.54168E-22
1.53845E-02 2.37010E-22
1.59262E-02 2.21281E-22
1.64770E-02 2.06841E-22
1.70371E-02 1.93564E-22
1.76063E-02 1.81339E-22
1.81848E-02 1.70068E-22
1.87724E-02 1.59662E-22
1.93692E-02 1.50044E-22
1.99751E-02 1.41141E-22
2.05901E-02 1.32892E-22
2.12143E-02 1.25239E-22
2.18476E-02 1.18131E-22
2.24900E-02 1.11522E-22
2.31415E-02 1.05371E-22
2.38021E-02 9.96397E-23
2.44717E-02 9.42943E-23
2.51504E-02 8.93039E-23
2.58382E-02 8.46405E-23
2.65349E-02 8.02787E-23
2.72407E-02 7.61954E-23
2.79555E-02 7.23694E-23
2.86793E-02 6.87814E-23
2.94120E-02 6.54138E-23
3.01537E-02 6.22506E-23
3.09043E-02 5.92770E-23
3.16639E-02 5.64794E-23
3.24324E-02 5.38455E-23
3.32098E-02 5.13640E-23
3.39961E-02 4.90242E-23
3.47912E-02 4.68167E-23
3.55952E-02 4.47324E-23
3.64081E-02 4.27632E-23
3.72297E-02 4.09015E-23
3.80602E-02 3.91403E-23
3.88995E-02 3.74733E-23
3.97476E-02 3.58943E-23
4.06044E-02 3.43979E-23
4.14700E-02 3.29789E-23
4.23443E-02 3.16325E-23
4.32273E-02 3.03543E-23
4.41190E-02 2.91402E-23
4.50194E-02 2.79864E-23
4.59284E-02 2.68893E-23
4.68461E-02 2.58455E-23
4.87074E-02 2.39060E-23
5.06030E-02 2.21454E-23
5.25328E-02 2.05443E-23
5.44967E-02 1.90856E-23
5.64946E-02 1.77543E-23
5.85262E-02 1.65372E-23
6.05914E-02 1.54228E-23
6.26901E-02 1.44009E-23
6.48222E-02 1.34622E-23
6.69873E-02 1.25989E-23
6.91854E-02 1.18037E-23
7.14163E-02 1.10703E-23
7.36799E-02 1.03930E-23
7.59760E-02 9.76664E-24
7.83043E-02 9.18677E-24
8.06647E-02 8.64927E-24
8.30571E-02 8.15047E-24
8.54812E-02 7.68706E-24
8.79369E-02 7.25608E-24
9.04240E-02 6.85482E-24
9.29422E-02 6.48085E-24
9.54915E-02 6.13198E-24
9.80716E-02 5.80620E-24
1.00682E-01 5.50170E-24
1.03323E-01 5.21683E-24
1.05995E-01 4.95009E-24
1.08696E-01 4.70011E-24
1.11427E-01 4.46563E-24
1.14188E-01 4.24553E-24
1.16978E-01 4.03874E-24
1.19797E-01 3.84432E-24
1.22645E-01 3.66138E-24
1.25522E-01 3.48912E-24
1.28428E-01 3.32680E-24
1.31361E-01 3.17374E-24
1.34323E-01 3.02931E-24
1.37313E-01 2.89294E-24
1.40330E-01 2.76408E-24
1.43375E-01 2.64225E-24
1.46447E-01 2.52699E-24
1.49545E-01 2.41788E-24
1.52671E-01 2.31454E-24
1.55823E-01 2.21659E-24
1.59001E-01 2.12371E-24
1.62205E-01 2.03557E-24
1.65435E-01 1.95191E-24
1.68690E-01 1.87244E-24
1.71970E-01 1.79691E-24
1.75276E-01 1.72510E-24
1.78606E-01 1.65679E-24
1.81961E-01 1.59177E-24
1.85340E-01 1.52985E-24
1.88743E-01 1.47087E-24
1.92169E-01 1.41464E-24
1.95619E-01 1.36103E-24
1.99092E-01 1.30989E-24
2.02589E-01 1.26108E-24
2.06107E-01 1.21447E-24
2.09649E-01 1.16995E-24
2.13212E-01 1.12741E-24
2.16797E-01 1.08674E-24
2.20404E-01 1.04784E-24
2.24032E-01 1.01063E-24
2.27680E-01 9.75013E-25
2.31350E-01 9.40911E-25
2.35040E-01 9.08247E-25
2.38751E-01 8.76950E-25
2.42481E-01 8.46952E-25
2.46231E-01 8.18188E-25
2.50000E-01 7.90599E-25
2.53788E-01 7.64128E-25
2.57595E-01 7.38720E-25
2.61421E-01 7.14326E-25
2.65264E-01 6.90897E-25
2.69126E-01 6.68388E-25
2.73005E-01 6.46757E-25
2.76901E-01 6.25962E-25
2.80814E-01 6.05965E-25
2.84744E-01 5.86731E-25
2.88691E-01 5.68224E-25
2.92653E-01 5.50412E-25
2.96632E-01 5.33265E-25
3.00625E-01 5.16752E-25
3.04634E-01 5.00846E-25
3.08658E-01 4.85521E-25
3.12697E-01 4.70751E-25
3.16749E-01 4.56513E-25
3.20816E-01 4.42785E-25
3.24896E-01 4.29543E-25
3.28990E-01 4.16769E-25
3.33097E-01 4.04442E-25
3.37216E-01 3.92545E-25
3.41348E-01 3.81059E-25
3.45492E-01 3.69967E-25
3.49647E-01 3.59254E-25
3.53814E-01 3.48904E-25
3.57992E-01 3.38904E-25
3.62181E-01 3.29238E-25
3.66381E-01 3.19893E-25
3.70590E-01 3.10858E-25
3.74810E-01 3.02120E-25
3.79039E-01 2.93667E-25
3.83277E-01 2.85488E-25
3.87524E-01 2.77574E-25
3.91780E-01 2.69913E-25
3.96044E-01 2.62497E-25
4.00316E-01 2.55316E-25
4.04596E-01 2.48362E-25
4.08882E-01 2.41625E-25
4.13176E-01 2.35098E-25
4.17476E-01 2.28774E-25
4.21783E-01 2.22644E-25
4.26095E-01 2.16702E-25
4.30413E-01 2.10941E-25
4.34737E-01 2.05355E-25
4.39065E-01 1.99937E-25
4.43398E-01 1.94682E-25
4.47736E-01 1.89583E-25
4.52077E-01 1.84635E-25
4.56422E-01 1.79833E-25
4.60770E-01 1.75172E-25
4.65122E-01 1.70648E-25
4.69476E-01 1.66254E-25
4.73832E-01 1.61987E-25
4.78190E-01 1.57844E-25
4.82550E-01 1.53818E-25
4.86912E-01 1.49907E-25
4.91274E-01 1.46107E-25
4.95637E-01 1.42414E-25
5.00000E-01 1.38824E-25
5.04363E-01 1.35335E-25
5.08726E-01 1.31942E-25
5.13088E-01 1.28643E-25
5.17450E-01 1.25435E-25
5.21810E-01 1.22315E-25
5.26168E-01 1.19279E-25
5.30524E-01 1.16326E-25
5.34878E-01 1.13453E-25
5.39230E-01 1.10657E-25
5.43578E-01 1.07935E-25
5.47923E-01 1.05286E-25
5.52264E-01 1.02707E-25
5.56602E-01 1.00197E-25
5.60935E-01 9.77521E-26
5.65263E-01 9.53713E-26
5.69587E-01 9.30526E-26
5.73905E-01 9.07940E-26
5.78217E-01 8.85938E-26
5.82524E-01 8.64501E-26
5.86824E-01 8.43614E-26
5.91118E-01 8.23259E-26
5.95404E-01 8.03421E-26
5.99684E-01 7.84086E-26
6.03956E-01 7.65238E-26
6.08220E-01 7.46862E-26
6.12476E-01 7.28947E-26
6.16723E-01 7.11477E-26
6.20961E-01 6.94441E-26
6.25190E-01 6.77826E-26
6.29410E-01 6.61621E-26
6.33619E-01 6.45812E-26
6.37819E-01 6.30391E-26
6.42008E-01 6.15344E-26
6.46186E-01 6.00663E-26
6.50353E-01 5.86337E-26
6.54508E-01 5.72356E-26
6.58652E-01 5.58711E-26
6.62784E-01 5.45392E-26
6.66903E-01 5.32391E-26
6.71010E-01 5.19698E-26
6.75104E-01 5.07307E-26
6.79184E-01 4.95208E-26
6.83251E-01 4.83393E-26
6.87303E-01 4.71856E-26
6.91342E-01 4.60589E-26
6.95366E-01 4.49584E-26
6.99375E-01 4.38835E-26
7.03368E-01 4.28335E-26
7.07347E-01 4.18078E-26
7.11309E-01 4.08056E-26
7.15256E-01 3.98266E-26
7.19186E-01 3.88699E-26
7.23099E-01 3.79351E-26
7.26995E-01 3.70216E-26
7.30874E-01 3.61288E-26
7.34736E-01 3.52563E-26
7.38579E-01 3.44034E-26
7.42405E-01 3.35698E-26
7.46212E-01 3.27550E-26
7.50000E-01 3.19584E-26
7.53769E-01 3.11797E-26
7.57519E-01 3.04184E-26
7.61249E-01 2.96740E-26
7.64960E-01 2.89462E-26
7.68650E-01 2.82345E-26
7.72320E-01 2.75386E-26
7.75968E-01 2.68581E-26
7.79596E-01 2.61925E-26
7.83203E-01 2.55417E-26
7.86788E-01 2.49051E-26
7.90351E-01 2.42825E-26
7.93893E-01 2.36736E-26
7.97411E-01 2.30779E-26
8.00908E-01 2.24953E-26
8.04381E-01 2.19254E-26
8.07831E-01 2.13679E-26
8.11257E-01 2.08225E-26
8.14660E-01 2.02890E-26
8.18039E-01 1.97671E-26
8.21394E-01 1.92565E-26
8.24724E-01 1.87569E-26
8.28030E-01 1.82682E-26
8.31310E-01 1.77901E-26
8.34565E-01 1.73223E-26
8.37795E-01 1.68646E-26
8.40999E-01 1.64168E-26
8.44177E-01 1.59786E-26
8.47329E-01 1.55500E-26
8.50455E-01 1.51306E-26
8.53553E-01 1.47202E-26
8.56625E-01 1.43188E-26
8.59670E-01 1.39260E-26
8.62687E-01 1.35417E-26
8.65677E-01 1.31657E-26
8.68639E-01 1.27979E-26
8.71572E-01 1.24380E-26
8.74478E-01 1.20859E-26
8.77355E-01 1.17415E-26
8.80203E-01 1.14046E-26
8.83022E-01 1.10751E-26
8.85812E-01 1.07527E-26
8.88573E-01 1.04374E-26
8.91304E-01 1.01289E-26
8.94005E-01 9.82729E-27
8.96677E-01 9.53228E-27
8.99318E-01 9.24379E-27
9.01928E-01 8.96168E-27
9.04508E-01 8.68583E-27
9.07058E-01 8.41612E-27
9.09576E-01 8.15244E-27
9.12063E-01 7.89468E-27
9.14519E-01 7.64272E-27
9.16943E-01 7.39645E-27
9.19335E-01 7.15578E-27
9.21696E-01 6.92060E-27
9.24024E-01 6.69081E-27
9.26320E-01 6.46632E-27
9.28584E-01 6.24703E-27
9.30815E-01 6.03285E-27
9.33013E-01 5.82370E-27
9.35178E-01 5.61948E-27
9.37310E-01 5.42012E-27
9.39409E-01 5.22553E-27
9.41474E-01 5.03563E-27
9.43505E-01 4.85035E-27
9.45503E-01 4.66961E-27
9.47467E-01 4.49334E-27
9.49397E-01 4.32147E-27
9.51293E-01 4.15392E-27
9.53154E-01 3.99064E-27
9.54981E-01 3.83155E-27
9.56773E-01 3.67660E-27
9.58530E-01 3.52572E-27
9.60252E-01 3.37885E-27
9.61940E-01 3.23594E-27
9.63592E-01 3.09693E-27
9.65209E-01 2.96177E-27
9.66790E-01 2.83040E-27
9.68336E-01 2.70277E-27
9.69846E-01 2.57883E-27
9.71321E-01 2.45854E-27
9.72759E-01 2.34185E-27
9.74162E-01 2.22871E-27
9.75528E-01 2.11908E-27
9.76858E-01 2.01291E-27
9.78152E-01 1.91018E-27
9.79410E-01 1.81084E-27
9.80631E-01 1.71484E-27
9.81815E-01 1.62216E-27
9.82963E-01 1.53276E-27
9.84074E-01 1.44661E-27
9.85148E-01 1.36367E-27
9.86185E-01 1.28391E-27
9.87185E-01 1.20730E-27
9.88148E-01 1.13382E-27
9.89074E-01 1.06343E-27
9.89962E-01 9.96114E-28
9.90814E-01 9.31842E-28
9.91627E-01 8.70590E-28
9.92404E-01 8.12337E-28
9.93143E-01 7.57060E-28
9.93844E-01 7.04739E-28
9.94508E-01 6.55355E-28
9.95134E-01 6.08889E-28
9.95722E-01 5.65324E-28
9.96273E-01 5.24644E-28
9.96786E-01 4.86834E-28
9.97261E-01 4.51880E-28
9.97698E-01 4.19770E-28
9.98097E-01 3.90491E-28
9.98459E-01 3.64033E-28
9.98782E-01 3.40386E-28
9.99067E-01 3.19541E-28
9.99315E-01 3.01491E-28
9.99524E-01 2.86230E-28
9.99695E-01 2.73750E-28
9.99829E-01 2.64049E-28
9.99924E-01 2.57122E-28
9.99981E-01 2.52966E-28
1.00000E+00 2.51582E-28
