 #
 # Subroutine ELSEPA. Elastic scattering of electrons and positrons
 #                    by neutral atoms and positive ions
 #
 # Projectile: electron
 # Kinetic energy = 4.00000E+08 eV = 1.46997E+07 a.u.
 #
 # WARNING: High-energy factorization with free-atom DF screening.
 #          Absorption, polarization and exchange corrections are
 #          switched off.
 #          Phase shifts are calculated for the bare nucleus.
 #          Scattering amplitudes are not evaluated.
 #
 # Element: Cr,  Z =  24,  atomic weight = 5.19961E+01 g/mol
 #
 # Nuclear model: Fermi distribution
 #                Average radius = 3.99369E-13 cm
 #                Skin thickness = 5.46000E-14 cm
 #
 # Number of electrons = 24
 #
 # Total elastic cross section = 1.78947E-18 cm**2 = 6.39031E-02 a0**2
 # 1st transport cross section = 7.50998E-27 cm**2 = 2.68186E-10 a0**2
 # 2nd transport cross section = 2.25125E-26 cm**2 = 8.03935E-10 a0**2
 #
 #
 # Differential cross section:                       MU=(1-COS(THETA))/2
 #
 #  THETA        MU          DCS          DCS        Sherman      error
 #  (deg)                 (cm**2/sr)   (a0**2/sr)    function
 #----------------------------------------------------------------------
0.00000E+00 2.96538E-09
7.61557E-13 2.81051E-09
1.18994E-12 2.72949E-09
1.71346E-12 2.63587E-09
2.33225E-12 2.53234E-09
3.04617E-12 2.42153E-09
3.85530E-12 2.30600E-09
4.75964E-12 2.18815E-09
5.75917E-12 2.07004E-09
6.85391E-12 1.95337E-09
8.04379E-12 1.83961E-09
9.32893E-12 1.72983E-09
1.07092E-11 1.62484E-09
1.21847E-11 1.52510E-09
1.37554E-11 1.43097E-09
1.54213E-11 1.34257E-09
1.71823E-11 1.25983E-09
1.90386E-11 1.18260E-09
2.09900E-11 1.11074E-09
2.30367E-11 1.04399E-09
2.51785E-11 9.81929E-10
2.74156E-11 9.24327E-10
2.97478E-11 8.70919E-10
3.21752E-11 8.21392E-10
3.46979E-11 7.75263E-10
3.73157E-11 7.32442E-10
4.00286E-11 6.92670E-10
4.28368E-11 6.55617E-10
4.57402E-11 6.21001E-10
4.87388E-11 5.88750E-10
5.18325E-11 5.58674E-10
5.50215E-11 5.30452E-10
5.83057E-11 5.04004E-10
6.16850E-11 4.79254E-10
6.51595E-11 4.56067E-10
6.87293E-11 4.34136E-10
7.23943E-11 4.13541E-10
7.61544E-11 3.94186E-10
1.18991E-10 2.49849E-10
1.71347E-10 1.61086E-10
2.33223E-10 1.08889E-10
3.04617E-10 7.42035E-11
3.85531E-10 5.15724E-11
4.75965E-10 3.67220E-11
5.75917E-10 2.66940E-11
6.85389E-10 1.97313E-11
8.04380E-10 1.49076E-11
9.32891E-10 1.14864E-11
1.07092E-09 9.00818E-12
1.21847E-09 7.17840E-12
1.37554E-09 5.80651E-12
1.54213E-09 4.75954E-12
1.71823E-09 3.94623E-12
1.90386E-09 3.30456E-12
2.09900E-09 2.79258E-12
2.30367E-09 2.37911E-12
2.51785E-09 2.03981E-12
2.74156E-09 1.75967E-12
2.97478E-09 1.52669E-12
3.21752E-09 1.33124E-12
3.46978E-09 1.16523E-12
3.73156E-09 1.02426E-12
4.00286E-09 9.03848E-13
4.28368E-09 8.00241E-13
4.57402E-09 7.10618E-13
4.87388E-09 6.33076E-13
5.18326E-09 5.65692E-13
5.50215E-09 5.06719E-13
5.83057E-09 4.55061E-13
6.16850E-09 4.09729E-13
6.51596E-09 3.69814E-13
6.87293E-09 3.34446E-13
7.23942E-09 3.03154E-13
7.61544E-09 2.75389E-13
1.18991E-08 1.16622E-13
1.71347E-08 5.72960E-14
2.33223E-08 3.13795E-14
3.04617E-08 1.86310E-14
3.85531E-08 1.17635E-14
4.75965E-08 7.79413E-15
5.75917E-08 5.36816E-15
6.85389E-08 3.81679E-15
8.04380E-08 2.78716E-15
9.32891E-08 2.08216E-15
1.07092E-07 1.58635E-15
1.21847E-07 1.22949E-15
1.37554E-07 9.67415E-16
1.54213E-07 7.71460E-16
1.71823E-07 6.22621E-16
1.90386E-07 5.07953E-16
2.09900E-07 4.18469E-16
2.30367E-07 3.47823E-16
2.51785E-07 2.91455E-16
2.74156E-07 2.46041E-16
2.97478E-07 2.09128E-16
3.21752E-07 1.78877E-16
3.46978E-07 1.53899E-16
3.73156E-07 1.33128E-16
4.00286E-07 1.15743E-16
4.28368E-07 1.01103E-16
4.57402E-07 8.87044E-17
4.87388E-07 7.81484E-17
5.18325E-07 6.91160E-17
5.50215E-07 6.13509E-17
5.83057E-07 5.46457E-17
6.16850E-07 4.88315E-17
6.51596E-07 4.37701E-17
6.87293E-07 3.93476E-17
7.23942E-07 3.54695E-17
7.61543E-07 3.20575E-17
1.18991E-06 1.31420E-17
1.71347E-06 6.34058E-18
2.33223E-06 3.42347E-18
3.04617E-06 2.00720E-18
3.85531E-06 1.25330E-18
4.75964E-06 8.22418E-19
5.75916E-06 5.61801E-19
6.85388E-06 3.96721E-19
8.04378E-06 2.88065E-19
9.32888E-06 2.14193E-19
1.07092E-05 1.62556E-19
1.21846E-05 1.25585E-19
1.37553E-05 9.85538E-20
1.54212E-05 7.84204E-20
1.71822E-05 6.31762E-20
1.90385E-05 5.14608E-20
2.09899E-05 4.23452E-20
2.30365E-05 3.51613E-20
2.51783E-05 2.94374E-20
2.74153E-05 2.48316E-20
2.97475E-05 2.10921E-20
3.21749E-05 1.80308E-20
3.46974E-05 1.55057E-20
3.73152E-05 1.34079E-20
4.00281E-05 1.16535E-20
4.28362E-05 1.01771E-20
4.57395E-05 8.92733E-21
4.87380E-05 7.86363E-21
5.18317E-05 6.95368E-21
5.50205E-05 6.17160E-21
5.83045E-05 5.49645E-21
6.16838E-05 4.91118E-21
6.51582E-05 4.40184E-21
6.87277E-05 3.95691E-21
7.23925E-05 3.56684E-21
7.61524E-05 3.21282E-21
9.21439E-05 2.19338E-21
1.09658E-04 1.54775E-21
1.28695E-04 1.12293E-21
1.49255E-04 8.34164E-22
1.71338E-04 6.32400E-22
1.94942E-04 4.87991E-22
2.20070E-04 3.82453E-22
2.46720E-04 3.03889E-22
2.74892E-04 2.44435E-22
3.04586E-04 1.98783E-22
3.35803E-04 1.63263E-22
3.68542E-04 1.35296E-22
4.02802E-04 1.13037E-22
4.38585E-04 9.51453E-23
4.75889E-04 8.06341E-23
5.14715E-04 6.87662E-23
5.55063E-04 5.89860E-23
5.96931E-04 5.08688E-23
6.40321E-04 4.40875E-23
6.85233E-04 3.83876E-23
7.31665E-04 3.35692E-23
7.79618E-04 2.94744E-23
8.29092E-04 2.59771E-23
8.80086E-04 2.29761E-23
9.32601E-04 2.03896E-23
9.86636E-04 1.81512E-23
1.04219E-03 1.62063E-23
1.09927E-03 1.45104E-23
1.15786E-03 1.30263E-23
1.21797E-03 1.17233E-23
1.27961E-03 1.05756E-23
1.34276E-03 9.56185E-24
1.40743E-03 8.66376E-24
1.47362E-03 7.86602E-24
1.54133E-03 7.15557E-24
1.61056E-03 6.52133E-24
1.68131E-03 5.95378E-24
1.75357E-03 5.44477E-24
1.82735E-03 4.98729E-24
1.90265E-03 4.57527E-24
1.97947E-03 4.20347E-24
2.05780E-03 3.86733E-24
2.13765E-03 3.56287E-24
2.21902E-03 3.28664E-24
2.30190E-03 3.03559E-24
2.38630E-03 2.80706E-24
2.47222E-03 2.59871E-24
2.55965E-03 2.40848E-24
2.64859E-03 2.23454E-24
2.73905E-03 2.07527E-24
2.83103E-03 1.92925E-24
2.92452E-03 1.79520E-24
3.01952E-03 1.67198E-24
3.11604E-03 1.55859E-24
3.21407E-03 1.45412E-24
3.31362E-03 1.35776E-24
3.41468E-03 1.26878E-24
3.51725E-03 1.18654E-24
3.62133E-03 1.11044E-24
3.72692E-03 1.03996E-24
3.83403E-03 9.74620E-25
3.94265E-03 9.13991E-25
4.05278E-03 8.57682E-25
4.16442E-03 8.05340E-25
4.27757E-03 7.56646E-25
4.39223E-03 7.11308E-25
4.50840E-03 6.69061E-25
4.62608E-03 6.29665E-25
4.74527E-03 5.92900E-25
4.86597E-03 5.58566E-25
4.98817E-03 5.26478E-25
5.11188E-03 4.96471E-25
5.23711E-03 4.68390E-25
5.36383E-03 4.42095E-25
5.49207E-03 4.17457E-25
5.62181E-03 3.94358E-25
5.75306E-03 3.72688E-25
5.88581E-03 3.52348E-25
6.02007E-03 3.33245E-25
6.15583E-03 3.15295E-25
6.29310E-03 2.98419E-25
6.43187E-03 2.82544E-25
6.57214E-03 2.67604E-25
6.71392E-03 2.53536E-25
6.85720E-03 2.40284E-25
7.00198E-03 2.27795E-25
7.14827E-03 2.16019E-25
7.29605E-03 2.04911E-25
7.44534E-03 1.94428E-25
7.59612E-03 1.84532E-25
7.97965E-03 1.62121E-25
8.37255E-03 1.42648E-25
8.77480E-03 1.25689E-25
9.18641E-03 1.10889E-25
9.60736E-03 9.79467E-26
1.00376E-02 8.66089E-26
1.04773E-02 7.66595E-26
1.09262E-02 6.79145E-26
1.13844E-02 6.02165E-26
1.18520E-02 5.34307E-26
1.23288E-02 4.74414E-26
1.28150E-02 4.21486E-26
1.33104E-02 3.74661E-26
1.38150E-02 3.33192E-26
1.43290E-02 2.96433E-26
1.48521E-02 2.63818E-26
1.53845E-02 2.34858E-26
1.59262E-02 2.09124E-26
1.64770E-02 1.86242E-26
1.70371E-02 1.65882E-26
1.76063E-02 1.47758E-26
1.81848E-02 1.31616E-26
1.87724E-02 1.17233E-26
1.93692E-02 1.04412E-26
1.99751E-02 9.29812E-27
2.05901E-02 8.27866E-27
2.12143E-02 7.36926E-27
2.18476E-02 6.55794E-27
2.24900E-02 5.83404E-27
2.31415E-02 5.18811E-27
2.38021E-02 4.61175E-27
2.44717E-02 4.09751E-27
2.51504E-02 3.63873E-27
2.58382E-02 3.22950E-27
2.65349E-02 2.86454E-27
2.72407E-02 2.53913E-27
2.79555E-02 2.24909E-27
2.86793E-02 1.99066E-27
2.94120E-02 1.76048E-27
3.01537E-02 1.55556E-27
3.09043E-02 1.37323E-27
3.16639E-02 1.21108E-27
3.24324E-02 1.06696E-27
3.32098E-02 9.38965E-28
3.39961E-02 8.25366E-28
3.47912E-02 7.24625E-28
3.55952E-02 6.35363E-28
3.64081E-02 5.56344E-28
3.72297E-02 4.86461E-28
3.80602E-02 4.24725E-28
3.88995E-02 3.70247E-28
3.97476E-02 3.22231E-28
4.06044E-02 2.79967E-28
4.14700E-02 2.42817E-28
4.23443E-02 2.10210E-28
4.32273E-02 1.81636E-28
4.41190E-02 1.56639E-28
4.50194E-02 1.34811E-28
4.59284E-02 1.15787E-28
4.68461E-02 9.92410E-29
4.87074E-02 7.24528E-29
5.06030E-02 5.24790E-29
5.25328E-02 3.77584E-29
5.44967E-02 2.70570E-29
5.64946E-02 1.94034E-29
5.85262E-02 1.40369E-29
6.05914E-02 1.03649E-29
6.26901E-02 7.92939E-30
6.48222E-02 6.37870E-30
6.69873E-02 5.44581E-30
6.91854E-02 4.93011E-30
7.14163E-02 4.68310E-30
7.36799E-02 4.59675E-30
7.59760E-02 4.59428E-30
7.83043E-02 4.62279E-30
8.06647E-02 4.64739E-30
8.30571E-02 4.64661E-30
8.54812E-02 4.60878E-30
8.79369E-02 4.52923E-30
9.04240E-02 4.40810E-30
9.29422E-02 4.24871E-30
9.54915E-02 4.05631E-30
9.80716E-02 3.83716E-30
1.00682E-01 3.59789E-30
1.03323E-01 3.34498E-30
1.05995E-01 3.08454E-30
1.08696E-01 2.82204E-30
1.11427E-01 2.56221E-30
1.14188E-01 2.30904E-30
1.16978E-01 2.06575E-30
1.19797E-01 1.83485E-30
1.22645E-01 1.61816E-30
1.25522E-01 1.41692E-30
1.28428E-01 1.23184E-30
1.31361E-01 1.06319E-30
1.34323E-01 9.10860E-31
1.37313E-01 7.74442E-31
1.40330E-01 6.53298E-31
1.43375E-01 5.46609E-31
1.46447E-01 4.53431E-31
1.49545E-01 3.72740E-31
1.52671E-01 3.03467E-31
1.55823E-01 2.44530E-31
1.59001E-01 1.94862E-31
1.62205E-01 1.53426E-31
1.65435E-01 1.19234E-31
1.68690E-01 9.13586E-32
1.71970E-01 6.89368E-32
1.75276E-01 5.11777E-32
1.78606E-01 3.73635E-32
1.81961E-01 2.68492E-32
1.85340E-01 1.90617E-32
1.88743E-01 1.34964E-32
1.92169E-01 9.71387E-33
1.95619E-01 7.33498E-33
1.99092E-01 6.03657E-33
2.02589E-01 5.54618E-33
2.06107E-01 5.63706E-33
2.09649E-01 6.12314E-33
2.13212E-01 6.85420E-33
2.16797E-01 7.71127E-33
2.20404E-01 8.60235E-33
2.24032E-01 9.45838E-33
2.27680E-01 1.02297E-32
2.31350E-01 1.08825E-32
2.35040E-01 1.13964E-32
2.38751E-01 1.17613E-32
2.42481E-01 1.19755E-32
2.46231E-01 1.20436E-32
2.50000E-01 1.19749E-32
2.53788E-01 1.17818E-32
2.57595E-01 1.14790E-32
2.61421E-01 1.10824E-32
2.65264E-01 1.06079E-32
2.69126E-01 1.00716E-32
2.73005E-01 9.48877E-33
2.76901E-01 8.87363E-33
2.80814E-01 8.23925E-33
2.84744E-01 7.59729E-33
2.88691E-01 6.95797E-33
2.92653E-01 6.33007E-33
2.96632E-01 5.72089E-33
3.00625E-01 5.13639E-33
3.04634E-01 4.58123E-33
3.08658E-01 4.05890E-33
3.12697E-01 3.57182E-33
3.16749E-01 3.12143E-33
3.20816E-01 2.70840E-33
3.24896E-01 2.33264E-33
3.28990E-01 1.99349E-33
3.33097E-01 1.68981E-33
3.37216E-01 1.42006E-33
3.41348E-01 1.18240E-33
3.45492E-01 9.74805E-34
3.49647E-01 7.95072E-34
3.53814E-01 6.40933E-34
3.57992E-01 5.10094E-34
3.62181E-01 4.00273E-34
3.66381E-01 3.09246E-34
3.70590E-01 2.34870E-34
3.74810E-01 1.75110E-34
3.79039E-01 1.28052E-34
3.83277E-01 9.19177E-35
3.87524E-01 6.50724E-35
3.91780E-01 4.60245E-35
3.96044E-01 3.34283E-35
4.00316E-01 2.60816E-35
4.04596E-01 2.29193E-35
4.08882E-01 2.30088E-35
4.13176E-01 2.55414E-35
4.17476E-01 2.98239E-35
4.21783E-01 3.52700E-35
4.26095E-01 4.13906E-35
4.30413E-01 4.77845E-35
4.34737E-01 5.41291E-35
4.39065E-01 6.01715E-35
4.43398E-01 6.57198E-35
4.47736E-01 7.06350E-35
4.52077E-01 7.48232E-35
4.56422E-01 7.82290E-35
4.60770E-01 8.08286E-35
4.65122E-01 8.26244E-35
4.69476E-01 8.36394E-35
4.73832E-01 8.39132E-35
4.78190E-01 8.34972E-35
4.82550E-01 8.24515E-35
4.86912E-01 8.08421E-35
4.91274E-01 7.87380E-35
4.95637E-01 7.62091E-35
5.00000E-01 7.33247E-35
5.04363E-01 7.01518E-35
5.08726E-01 6.67543E-35
5.13088E-01 6.31922E-35
5.17450E-01 5.95207E-35
5.21810E-01 5.57902E-35
5.26168E-01 5.20458E-35
5.30524E-01 4.83274E-35
5.34878E-01 4.46697E-35
5.39230E-01 4.11024E-35
5.43578E-01 3.76503E-35
5.47923E-01 3.43338E-35
5.52264E-01 3.11689E-35
5.56602E-01 2.81678E-35
5.60935E-01 2.53392E-35
5.65263E-01 2.26884E-35
5.69587E-01 2.02184E-35
5.73905E-01 1.79292E-35
5.78217E-01 1.58189E-35
5.82524E-01 1.38839E-35
5.86824E-01 1.21191E-35
5.91118E-01 1.05178E-35
5.95404E-01 9.07293E-36
5.99684E-01 7.77623E-36
6.03956E-01 6.61916E-36
6.08220E-01 5.59272E-36
6.12476E-01 4.68783E-36
6.16723E-01 3.89526E-36
6.20961E-01 3.20597E-36
6.25190E-01 2.61105E-36
6.29410E-01 2.10187E-36
6.33619E-01 1.67012E-36
6.37819E-01 1.30787E-36
6.42008E-01 1.00762E-36
6.46186E-01 7.62355E-37
6.50353E-01 5.65471E-37
6.54508E-01 4.10883E-37
6.58652E-01 2.92937E-37
6.62784E-01 2.06505E-37
6.66903E-01 1.46879E-37
6.71010E-01 1.09814E-37
6.75104E-01 9.14844E-38
6.79184E-01 8.84740E-38
6.83251E-01 9.77425E-38
6.87303E-01 1.16620E-37
6.91342E-01 1.42769E-37
6.95366E-01 1.74147E-37
6.99375E-01 2.09011E-37
7.03368E-01 2.45873E-37
7.07347E-01 2.83477E-37
7.11309E-01 3.20784E-37
7.15256E-01 3.56943E-37
7.19186E-01 3.91276E-37
7.23099E-01 4.23251E-37
7.26995E-01 4.52472E-37
7.30874E-01 4.78657E-37
7.34736E-01 5.01617E-37
7.38579E-01 5.21259E-37
7.42405E-01 5.37552E-37
7.46212E-01 5.50532E-37
7.50000E-01 5.60277E-37
7.53769E-01 5.66911E-37
7.57519E-01 5.70582E-37
7.61249E-01 5.71471E-37
7.64960E-01 5.69766E-37
7.68650E-01 5.65672E-37
7.72320E-01 5.59399E-37
7.75968E-01 5.51163E-37
7.79596E-01 5.41178E-37
7.83203E-01 5.29639E-37
7.86788E-01 5.16761E-37
7.90351E-01 5.02740E-37
7.93893E-01 4.87749E-37
7.97411E-01 4.71973E-37
8.00908E-01 4.55569E-37
8.04381E-01 4.38693E-37
8.07831E-01 4.21485E-37
8.11257E-01 4.04072E-37
8.14660E-01 3.86573E-37
8.18039E-01 3.69090E-37
8.21394E-01 3.51723E-37
8.24724E-01 3.34555E-37
8.28030E-01 3.17657E-37
8.31310E-01 3.01087E-37
8.34565E-01 2.84911E-37
8.37795E-01 2.69168E-37
8.40999E-01 2.53904E-37
8.44177E-01 2.39138E-37
8.47329E-01 2.24905E-37
8.50455E-01 2.11212E-37
8.53553E-01 1.98082E-37
8.56625E-01 1.85516E-37
8.59670E-01 1.73518E-37
8.62687E-01 1.62089E-37
8.65677E-01 1.51221E-37
8.68639E-01 1.40908E-37
8.71572E-01 1.31138E-37
8.74478E-01 1.21900E-37
8.77355E-01 1.13180E-37
8.80203E-01 1.04964E-37
8.83022E-01 9.72340E-38
8.85812E-01 8.99707E-38
8.88573E-01 8.31575E-38
8.91304E-01 7.67758E-38
8.94005E-01 7.08082E-38
8.96677E-01 6.52300E-38
8.99318E-01 6.00311E-38
9.01928E-01 5.51854E-38
9.04508E-01 5.06775E-38
9.07058E-01 4.64887E-38
9.09576E-01 4.26020E-38
9.12063E-01 3.90014E-38
9.14519E-01 3.56671E-38
9.16943E-01 3.25854E-38
9.19335E-01 2.97395E-38
9.21696E-01 2.71150E-38
9.24024E-01 2.46971E-38
9.26320E-01 2.24724E-38
9.28584E-01 2.04288E-38
9.30815E-01 1.85535E-38
9.33013E-01 1.68310E-38
9.35178E-01 1.52550E-38
9.37310E-01 1.38121E-38
9.39409E-01 1.24926E-38
9.41474E-01 1.12889E-38
9.43505E-01 1.01894E-38
9.45503E-01 9.18850E-39
9.47467E-01 8.27703E-39
9.49397E-01 7.44636E-39
9.51293E-01 6.69257E-39
9.53154E-01 6.00742E-39
9.54981E-01 5.38740E-39
9.56773E-01 4.82513E-39
9.58530E-01 4.31754E-39
9.60252E-01 3.85758E-39
9.61940E-01 3.44196E-39
9.63592E-01 3.06752E-39
9.65209E-01 2.73100E-39
9.66790E-01 2.42815E-39
9.68336E-01 2.15608E-39
9.69846E-01 1.91184E-39
9.71321E-01 1.69382E-39
9.72759E-01 1.49837E-39
9.74162E-01 1.32329E-39
9.75528E-01 1.16813E-39
9.76858E-01 1.02912E-39
9.78152E-01 9.05810E-40
9.79410E-01 7.96410E-40
9.80631E-01 6.98971E-40
9.81815E-01 6.12691E-40
9.82963E-01 5.36428E-40
9.84074E-01 4.68697E-40
9.85148E-01 4.08741E-40
9.86185E-01 3.55516E-40
9.87185E-01 3.09441E-40
9.88148E-01 2.68225E-40
9.89074E-01 2.32201E-40
9.89962E-01 2.00189E-40
9.90814E-01 1.72464E-40
9.91627E-01 1.47703E-40
9.92404E-01 1.26559E-40
9.93143E-01 1.07800E-40
9.93844E-01 9.14311E-41
9.94508E-01 7.71130E-41
9.95134E-01 6.48506E-41
9.95722E-01 5.39953E-41
9.96273E-01 4.47309E-41
9.96786E-01 3.66735E-41
9.97261E-01 2.98980E-41
9.97698E-01 2.40584E-41
9.98097E-01 1.90906E-41
9.98459E-01 1.49285E-41
9.98782E-01 1.14580E-41
9.99067E-01 8.43931E-42
9.99315E-01 6.12168E-42
9.99524E-01 4.18522E-42
9.99695E-01 2.76602E-42
9.99829E-01 1.58787E-42
9.99924E-01 8.65680E-43
9.99981E-01 5.06888E-43
1.00000E+00 2.49350E-43
