 #
 # Subroutine ELSEPA. Elastic scattering of electrons and positrons
 #                    by neutral atoms and positive ions
 #
 # Projectile: electron
 # Kinetic energy = 8.00000E+07 eV = 2.93995E+06 a.u.
 #
 # WARNING: High-energy factorization with free-atom DF screening.
 #          Absorption, polarization and exchange corrections are
 #          switched off.
 #          Phase shifts are calculated for the bare nucleus.
 #          Scattering amplitudes are not evaluated.
 #
 # Element: Cr,  Z =  24,  atomic weight = 5.19961E+01 g/mol
 #
 # Nuclear model: Fermi distribution
 #                Average radius = 3.99369E-13 cm
 #                Skin thickness = 5.46000E-14 cm
 #
 # Number of electrons = 24
 #
 # Total elastic cross section = 1.79115E-18 cm**2 = 6.39632E-02 a0**2
 # 1st transport cross section = 1.84326E-25 cm**2 = 6.58242E-09 a0**2
 # 2nd transport cross section = 5.45196E-25 cm**2 = 1.94693E-08 a0**2
 #
 #
 # Differential cross section:                       MU=(1-COS(THETA))/2
 #
 #  THETA        MU          DCS          DCS        Sherman      error
 #  (deg)                 (cm**2/sr)   (a0**2/sr)    function
 #----------------------------------------------------------------------
0.00000E+00 1.19829E-10
7.61557E-13 1.19564E-10
1.18994E-12 1.19416E-10
1.71346E-12 1.19235E-10
2.33225E-12 1.19022E-10
3.04617E-12 1.18777E-10
3.85530E-12 1.18500E-10
4.75964E-12 1.18192E-10
5.75917E-12 1.17853E-10
6.85391E-12 1.17485E-10
8.04379E-12 1.17086E-10
9.32893E-12 1.16658E-10
1.07092E-11 1.16201E-10
1.21847E-11 1.15716E-10
1.37554E-11 1.15204E-10
1.54213E-11 1.14665E-10
1.71823E-11 1.14100E-10
1.90386E-11 1.13510E-10
2.09900E-11 1.12895E-10
2.30367E-11 1.12257E-10
2.51785E-11 1.11595E-10
2.74156E-11 1.10912E-10
2.97478E-11 1.10207E-10
3.21752E-11 1.09482E-10
3.46979E-11 1.08737E-10
3.73157E-11 1.07972E-10
4.00286E-11 1.07190E-10
4.28368E-11 1.06391E-10
4.57402E-11 1.05577E-10
4.87388E-11 1.04747E-10
5.18325E-11 1.03903E-10
5.50215E-11 1.03046E-10
5.83057E-11 1.02176E-10
6.16850E-11 1.01293E-10
6.51595E-11 1.00400E-10
6.87293E-11 9.94973E-11
7.23943E-11 9.85857E-11
7.61544E-11 9.76660E-11
1.18991E-10 8.81789E-11
1.71347E-10 7.86506E-11
2.33223E-10 6.95930E-11
3.04617E-10 6.13109E-11
3.85531E-10 5.39368E-11
4.75965E-10 4.74839E-11
5.75917E-10 4.18967E-11
6.85389E-10 3.70798E-11
8.04380E-10 3.29375E-11
9.32891E-10 2.93617E-11
1.07092E-09 2.62754E-11
1.21847E-09 2.35872E-11
1.37554E-09 2.12476E-11
1.54213E-09 1.91896E-11
1.71823E-09 1.73801E-11
1.90386E-09 1.57744E-11
2.09900E-09 1.43489E-11
2.30367E-09 1.30748E-11
2.51785E-09 1.19342E-11
2.74156E-09 1.09092E-11
2.97478E-09 9.98506E-12
3.21752E-09 9.15137E-12
3.46978E-09 8.39542E-12
3.73156E-09 7.66408E-12
4.00286E-09 7.00476E-12
4.28368E-09 6.42651E-12
4.57402E-09 5.91743E-12
4.87388E-09 5.46756E-12
5.18326E-09 5.06860E-12
5.50215E-09 4.71358E-12
5.83057E-09 4.33566E-12
6.16850E-09 3.99476E-12
6.51596E-09 3.69081E-12
6.87293E-09 3.41901E-12
7.23942E-09 3.17527E-12
7.61544E-09 2.95610E-12
1.18991E-08 1.45887E-12
1.71347E-08 7.83536E-13
2.33223E-08 4.55929E-13
3.04617E-08 2.84991E-13
3.85531E-08 1.88976E-13
4.75965E-08 1.31233E-13
5.75917E-08 9.44667E-14
6.85389E-08 6.98737E-14
8.04380E-08 5.28466E-14
9.32891E-08 4.06540E-14
1.07092E-07 3.17591E-14
1.21847E-07 2.51154E-14
1.37554E-07 2.01006E-14
1.54213E-07 1.62479E-14
1.71823E-07 1.32614E-14
1.90386E-07 1.09171E-14
2.09900E-07 9.06170E-15
2.30367E-07 7.57914E-15
2.51785E-07 6.38494E-15
2.74156E-07 5.41522E-15
2.97478E-07 4.62166E-15
3.21752E-07 3.96776E-15
3.46978E-07 3.42518E-15
3.73156E-07 2.97169E-15
4.00286E-07 2.59131E-15
4.28368E-07 2.27058E-15
4.57402E-07 1.99739E-15
4.87388E-07 1.76452E-15
5.18325E-07 1.56484E-15
5.50215E-07 1.39252E-15
5.83057E-07 1.24356E-15
6.16850E-07 1.11403E-15
6.51596E-07 1.00099E-15
6.87293E-07 9.02100E-16
7.23942E-07 8.15066E-16
7.61543E-07 7.38367E-16
1.18991E-06 3.08901E-16
1.71347E-06 1.51276E-16
2.33223E-06 8.25247E-17
3.04617E-06 4.87304E-17
3.85531E-06 3.05779E-17
4.75964E-06 2.01342E-17
5.75916E-06 1.37877E-17
6.85388E-06 9.75373E-18
8.04378E-06 7.09166E-18
9.32888E-06 5.27828E-18
1.07092E-05 4.00886E-18
1.21846E-05 3.09892E-18
1.37553E-05 2.43302E-18
1.54212E-05 1.93670E-18
1.71822E-05 1.56068E-18
1.90385E-05 1.27158E-18
2.09899E-05 1.04654E-18
2.30365E-05 8.69139E-19
2.51783E-05 7.27753E-19
2.74153E-05 6.13961E-19
2.97475E-05 5.21553E-19
3.21749E-05 4.45894E-19
3.46974E-05 3.83477E-19
3.73152E-05 3.31617E-19
4.00281E-05 2.88242E-19
4.28362E-05 2.51736E-19
4.57395E-05 2.20831E-19
4.87380E-05 1.94527E-19
5.18317E-05 1.72023E-19
5.50205E-05 1.52680E-19
5.83045E-05 1.35981E-19
6.16838E-05 1.21505E-19
6.51582E-05 1.08906E-19
6.87277E-05 9.78998E-20
7.23925E-05 8.82507E-20
7.61524E-05 7.97585E-20
9.21439E-05 5.45024E-20
1.09658E-04 3.84994E-20
1.28695E-04 2.79644E-20
1.49255E-04 2.07994E-20
1.71338E-04 1.57901E-20
1.94942E-04 1.22025E-20
2.20070E-04 9.57880E-21
2.46720E-04 7.62418E-21
2.74892E-04 6.14383E-21
3.04586E-04 5.00616E-21
3.35803E-04 4.12015E-21
3.68542E-04 3.42187E-21
4.02802E-04 2.86553E-21
4.38585E-04 2.41785E-21
4.75889E-04 2.05434E-21
5.14715E-04 1.75668E-21
5.55063E-04 1.51106E-21
5.96931E-04 1.30693E-21
6.40321E-04 1.13616E-21
6.85233E-04 9.92410E-22
7.31665E-04 8.70703E-22
7.79618E-04 7.67107E-22
8.29092E-04 6.78477E-22
8.80086E-04 6.02294E-22
9.32601E-04 5.36516E-22
9.86636E-04 4.79482E-22
1.04219E-03 4.29834E-22
1.09927E-03 3.86452E-22
1.15786E-03 3.48410E-22
1.21797E-03 3.14939E-22
1.27961E-03 2.85394E-22
1.34276E-03 2.59235E-22
1.40743E-03 2.36007E-22
1.47362E-03 2.15325E-22
1.54133E-03 1.96860E-22
1.61056E-03 1.80333E-22
1.68131E-03 1.65506E-22
1.75357E-03 1.52172E-22
1.82735E-03 1.40154E-22
1.90265E-03 1.29300E-22
1.97947E-03 1.19477E-22
2.05780E-03 1.10569E-22
2.13765E-03 1.02476E-22
2.21902E-03 9.51105E-23
2.30190E-03 8.83948E-23
2.38630E-03 8.22615E-23
2.47222E-03 7.66510E-23
2.55965E-03 7.15106E-23
2.64859E-03 6.67939E-23
2.73905E-03 6.24596E-23
2.83103E-03 5.84711E-23
2.92452E-03 5.47958E-23
3.01952E-03 5.14047E-23
3.11604E-03 4.82717E-23
3.21407E-03 4.53737E-23
3.31362E-03 4.26897E-23
3.41468E-03 4.02011E-23
3.51725E-03 3.78911E-23
3.62133E-03 3.57445E-23
3.72692E-03 3.37477E-23
3.83403E-03 3.18881E-23
3.94265E-03 3.01548E-23
4.05278E-03 2.85375E-23
4.16442E-03 2.70270E-23
4.27757E-03 2.56150E-23
4.39223E-03 2.42939E-23
4.50840E-03 2.30567E-23
4.62608E-03 2.18971E-23
4.74527E-03 2.08094E-23
4.86597E-03 1.97883E-23
4.98817E-03 1.88289E-23
5.11188E-03 1.79268E-23
5.23711E-03 1.70780E-23
5.36383E-03 1.62787E-23
5.49207E-03 1.55255E-23
5.62181E-03 1.48152E-23
5.75306E-03 1.41450E-23
5.88581E-03 1.35122E-23
6.02007E-03 1.29142E-23
6.15583E-03 1.23489E-23
6.29310E-03 1.18140E-23
6.43187E-03 1.13077E-23
6.57214E-03 1.08282E-23
6.71392E-03 1.03737E-23
6.85720E-03 9.94268E-24
7.00198E-03 9.53375E-24
7.14827E-03 9.14555E-24
7.29605E-03 8.77682E-24
7.44534E-03 8.42641E-24
7.59612E-03 8.09323E-24
7.97965E-03 7.32926E-24
8.37255E-03 6.65292E-24
8.77480E-03 6.05245E-24
9.18641E-03 5.51786E-24
9.60736E-03 5.04067E-24
1.00376E-02 4.61365E-24
1.04773E-02 4.23061E-24
1.09262E-02 3.88624E-24
1.13844E-02 3.57594E-24
1.18520E-02 3.29577E-24
1.23288E-02 3.04227E-24
1.28150E-02 2.81247E-24
1.33104E-02 2.60377E-24
1.38150E-02 2.41388E-24
1.43290E-02 2.24082E-24
1.48521E-02 2.08282E-24
1.53845E-02 1.93836E-24
1.59262E-02 1.80605E-24
1.64770E-02 1.68471E-24
1.70371E-02 1.57325E-24
1.76063E-02 1.47074E-24
1.81848E-02 1.37633E-24
1.87724E-02 1.28926E-24
1.93692E-02 1.20887E-24
1.99751E-02 1.13455E-24
2.05901E-02 1.06576E-24
2.12143E-02 1.00202E-24
2.18476E-02 9.42885E-25
2.24900E-02 8.87974E-25
2.31415E-02 8.36927E-25
2.38021E-02 7.89424E-25
2.44717E-02 7.45177E-25
2.51504E-02 7.03923E-25
2.58382E-02 6.65424E-25
2.65349E-02 6.29463E-25
2.72407E-02 5.95844E-25
2.79555E-02 5.64387E-25
2.86793E-02 5.34928E-25
2.94120E-02 5.07320E-25
3.01537E-02 4.81424E-25
3.09043E-02 4.57116E-25
3.16639E-02 4.34282E-25
3.24324E-02 4.12817E-25
3.32098E-02 3.92624E-25
3.39961E-02 3.73614E-25
3.47912E-02 3.55707E-25
3.55952E-02 3.38828E-25
3.64081E-02 3.22906E-25
3.72297E-02 3.07879E-25
3.80602E-02 2.93687E-25
3.88995E-02 2.80276E-25
3.97476E-02 2.67595E-25
4.06044E-02 2.55598E-25
4.14700E-02 2.44242E-25
4.23443E-02 2.33486E-25
4.32273E-02 2.23294E-25
4.41190E-02 2.13631E-25
4.50194E-02 2.04464E-25
4.59284E-02 1.95764E-25
4.68461E-02 1.87503E-25
4.87074E-02 1.72196E-25
5.06030E-02 1.58356E-25
5.25328E-02 1.45821E-25
5.44967E-02 1.34447E-25
5.64946E-02 1.24110E-25
5.85262E-02 1.14702E-25
6.05914E-02 1.06124E-25
6.26901E-02 9.82935E-26
6.48222E-02 9.11344E-26
6.69873E-02 8.45803E-26
6.91854E-02 7.85724E-26
7.14163E-02 7.30582E-26
7.36799E-02 6.79910E-26
7.59760E-02 6.33290E-26
7.83043E-02 5.90351E-26
8.06647E-02 5.50759E-26
8.30571E-02 5.14214E-26
8.54812E-02 4.80447E-26
8.79369E-02 4.49216E-26
9.04240E-02 4.20304E-26
9.29422E-02 3.93513E-26
9.54915E-02 3.68666E-26
9.80716E-02 3.45601E-26
1.00682E-01 3.24174E-26
1.03323E-01 3.04250E-26
1.05995E-01 2.85712E-26
1.08696E-01 2.68448E-26
1.11427E-01 2.52360E-26
1.14188E-01 2.37356E-26
1.16978E-01 2.23354E-26
1.19797E-01 2.10278E-26
1.22645E-01 1.98059E-26
1.25522E-01 1.86633E-26
1.28428E-01 1.75943E-26
1.31361E-01 1.65935E-26
1.34323E-01 1.56560E-26
1.37313E-01 1.47772E-26
1.40330E-01 1.39532E-26
1.43375E-01 1.31799E-26
1.46447E-01 1.24541E-26
1.49545E-01 1.17723E-26
1.52671E-01 1.11316E-26
1.55823E-01 1.05292E-26
1.59001E-01 9.96266E-27
1.62205E-01 9.42950E-27
1.65435E-01 8.92756E-27
1.68690E-01 8.45481E-27
1.71970E-01 8.00937E-27
1.75276E-01 7.58950E-27
1.78606E-01 7.19356E-27
1.81961E-01 6.82005E-27
1.85340E-01 6.46757E-27
1.88743E-01 6.13481E-27
1.92169E-01 5.82057E-27
1.95619E-01 5.52370E-27
1.99092E-01 5.24315E-27
2.02589E-01 4.97795E-27
2.06107E-01 4.72716E-27
2.09649E-01 4.48993E-27
2.13212E-01 4.26547E-27
2.16797E-01 4.05302E-27
2.20404E-01 3.85189E-27
2.24032E-01 3.66141E-27
2.27680E-01 3.48097E-27
2.31350E-01 3.31000E-27
2.35040E-01 3.14796E-27
2.38751E-01 2.99435E-27
2.42481E-01 2.84869E-27
2.46231E-01 2.71054E-27
2.50000E-01 2.57947E-27
2.53788E-01 2.45510E-27
2.57595E-01 2.33707E-27
2.61421E-01 2.22501E-27
2.65264E-01 2.11862E-27
2.69126E-01 2.01757E-27
2.73005E-01 1.92159E-27
2.76901E-01 1.83040E-27
2.80814E-01 1.74375E-27
2.84744E-01 1.66140E-27
2.88691E-01 1.58311E-27
2.92653E-01 1.50868E-27
2.96632E-01 1.43790E-27
3.00625E-01 1.37058E-27
3.04634E-01 1.30655E-27
3.08658E-01 1.24562E-27
3.12697E-01 1.18766E-27
3.16749E-01 1.13249E-27
3.20816E-01 1.07998E-27
3.24896E-01 1.03000E-27
3.28990E-01 9.82414E-28
3.33097E-01 9.37101E-28
3.37216E-01 8.93949E-28
3.41348E-01 8.52850E-28
3.45492E-01 8.13700E-28
3.49647E-01 7.76404E-28
3.53814E-01 7.40868E-28
3.57992E-01 7.07007E-28
3.62181E-01 6.74737E-28
3.66381E-01 6.43981E-28
3.70590E-01 6.14665E-28
3.74810E-01 5.86718E-28
3.79039E-01 5.60074E-28
3.83277E-01 5.34669E-28
3.87524E-01 5.10444E-28
3.91780E-01 4.87342E-28
3.96044E-01 4.65309E-28
4.00316E-01 4.44293E-28
4.04596E-01 4.24246E-28
4.08882E-01 4.05122E-28
4.13176E-01 3.86877E-28
4.17476E-01 3.69469E-28
4.21783E-01 3.52859E-28
4.26095E-01 3.37008E-28
4.30413E-01 3.21881E-28
4.34737E-01 3.07445E-28
4.39065E-01 2.93666E-28
4.43398E-01 2.80513E-28
4.47736E-01 2.67959E-28
4.52077E-01 2.55974E-28
4.56422E-01 2.44532E-28
4.60770E-01 2.33608E-28
4.65122E-01 2.23178E-28
4.69476E-01 2.13220E-28
4.73832E-01 2.03710E-28
4.78190E-01 1.94630E-28
4.82550E-01 1.85958E-28
4.86912E-01 1.77676E-28
4.91274E-01 1.69767E-28
4.95637E-01 1.62213E-28
5.00000E-01 1.54997E-28
5.04363E-01 1.48105E-28
5.08726E-01 1.41522E-28
5.13088E-01 1.35234E-28
5.17450E-01 1.29227E-28
5.21810E-01 1.23488E-28
5.26168E-01 1.18005E-28
5.30524E-01 1.12768E-28
5.34878E-01 1.07764E-28
5.39230E-01 1.02983E-28
5.43578E-01 9.84147E-29
5.47923E-01 9.40502E-29
5.52264E-01 8.98798E-29
5.56602E-01 8.58950E-29
5.60935E-01 8.20874E-29
5.65263E-01 7.84490E-29
5.69587E-01 7.49722E-29
5.73905E-01 7.16497E-29
5.78217E-01 6.84748E-29
5.82524E-01 6.54407E-29
5.86824E-01 6.25411E-29
5.91118E-01 5.97702E-29
5.95404E-01 5.71220E-29
5.99684E-01 5.45912E-29
6.03956E-01 5.21725E-29
6.08220E-01 4.98609E-29
6.12476E-01 4.76517E-29
6.16723E-01 4.55403E-29
6.20961E-01 4.35223E-29
6.25190E-01 4.15936E-29
6.29410E-01 3.97502E-29
6.33619E-01 3.79884E-29
6.37819E-01 3.63045E-29
6.42008E-01 3.46950E-29
6.46186E-01 3.31567E-29
6.50353E-01 3.16864E-29
6.54508E-01 3.02812E-29
6.58652E-01 2.89380E-29
6.62784E-01 2.76542E-29
6.66903E-01 2.64272E-29
6.71010E-01 2.52543E-29
6.75104E-01 2.41334E-29
6.79184E-01 2.30619E-29
6.83251E-01 2.20378E-29
6.87303E-01 2.10590E-29
6.91342E-01 2.01234E-29
6.95366E-01 1.92292E-29
6.99375E-01 1.83745E-29
7.03368E-01 1.75576E-29
7.07347E-01 1.67767E-29
7.11309E-01 1.60304E-29
7.15256E-01 1.53171E-29
7.19186E-01 1.46353E-29
7.23099E-01 1.39837E-29
7.26995E-01 1.33609E-29
7.30874E-01 1.27656E-29
7.34736E-01 1.21966E-29
7.38579E-01 1.16528E-29
7.42405E-01 1.11331E-29
7.46212E-01 1.06363E-29
7.50000E-01 1.01615E-29
7.53769E-01 9.70777E-30
7.57519E-01 9.27408E-30
7.61249E-01 8.85957E-30
7.64960E-01 8.46342E-30
7.68650E-01 8.08480E-30
7.72320E-01 7.72294E-30
7.75968E-01 7.37710E-30
7.79596E-01 7.04657E-30
7.83203E-01 6.73068E-30
7.86788E-01 6.42878E-30
7.90351E-01 6.14026E-30
7.93893E-01 5.86451E-30
7.97411E-01 5.60098E-30
8.00908E-01 5.34913E-30
8.04381E-01 5.10844E-30
8.07831E-01 4.87842E-30
8.11257E-01 4.65859E-30
8.14660E-01 4.44851E-30
8.18039E-01 4.24774E-30
8.21394E-01 4.05587E-30
8.24724E-01 3.87251E-30
8.28030E-01 3.69728E-30
8.31310E-01 3.52982E-30
8.34565E-01 3.36979E-30
8.37795E-01 3.21685E-30
8.40999E-01 3.07070E-30
8.44177E-01 2.93103E-30
8.47329E-01 2.79756E-30
8.50455E-01 2.67001E-30
8.53553E-01 2.54812E-30
8.56625E-01 2.43163E-30
8.59670E-01 2.32031E-30
8.62687E-01 2.21393E-30
8.65677E-01 2.11228E-30
8.68639E-01 2.01513E-30
8.71572E-01 1.92229E-30
8.74478E-01 1.83357E-30
8.77355E-01 1.74879E-30
8.80203E-01 1.66777E-30
8.83022E-01 1.59034E-30
8.85812E-01 1.51635E-30
8.88573E-01 1.44564E-30
8.91304E-01 1.37806E-30
8.94005E-01 1.31349E-30
8.96677E-01 1.25178E-30
8.99318E-01 1.19280E-30
9.01928E-01 1.13645E-30
9.04508E-01 1.08259E-30
9.07058E-01 1.03112E-30
9.09576E-01 9.81936E-31
9.12063E-01 9.34932E-31
9.14519E-01 8.90013E-31
9.16943E-01 8.47087E-31
9.19335E-01 8.06065E-31
9.21696E-01 7.66863E-31
9.24024E-01 7.29400E-31
9.26320E-01 6.93600E-31
9.28584E-01 6.59390E-31
9.30815E-01 6.26698E-31
9.33013E-01 5.95457E-31
9.35178E-01 5.65605E-31
9.37310E-01 5.37079E-31
9.39409E-01 5.09822E-31
9.41474E-01 4.83777E-31
9.43505E-01 4.58891E-31
9.45503E-01 4.35114E-31
9.47467E-01 4.12397E-31
9.49397E-01 3.90693E-31
9.51293E-01 3.69959E-31
9.53154E-01 3.50153E-31
9.54981E-01 3.31233E-31
9.56773E-01 3.13162E-31
9.58530E-01 2.95904E-31
9.60252E-01 2.79422E-31
9.61940E-01 2.63684E-31
9.63592E-01 2.48658E-31
9.65209E-01 2.34313E-31
9.66790E-01 2.20621E-31
9.68336E-01 2.07555E-31
9.69846E-01 1.95087E-31
9.71321E-01 1.83193E-31
9.72759E-01 1.71849E-31
9.74162E-01 1.61032E-31
9.75528E-01 1.50721E-31
9.76858E-01 1.40895E-31
9.78152E-01 1.31535E-31
9.79410E-01 1.22621E-31
9.80631E-01 1.14137E-31
9.81815E-01 1.06065E-31
9.82963E-01 9.83889E-32
9.84074E-01 9.10943E-32
9.85148E-01 8.41665E-32
9.86185E-01 7.75917E-32
9.87185E-01 7.13572E-32
9.88148E-01 6.54505E-32
9.89074E-01 5.98601E-32
9.89962E-01 5.45750E-32
9.90814E-01 4.95851E-32
9.91627E-01 4.48803E-32
9.92404E-01 4.04517E-32
9.93143E-01 3.62905E-32
9.93844E-01 3.23887E-32
9.94508E-01 2.87386E-32
9.95134E-01 2.53333E-32
9.95722E-01 2.21660E-32
9.96273E-01 1.92308E-32
9.96786E-01 1.65218E-32
9.97261E-01 1.40339E-32
9.97698E-01 1.17622E-32
9.98097E-01 9.70246E-33
9.98459E-01 7.85061E-33
9.98782E-01 6.20312E-33
9.99067E-01 4.75680E-33
9.99315E-01 3.50890E-33
9.99524E-01 2.45701E-33
9.99695E-01 1.59911E-33
9.99829E-01 9.33547E-34
9.99924E-01 4.59077E-34
9.99981E-01 1.74722E-34
1.00000E+00 8.00309E-35
