 #
 # Subroutine ELSEPA. Elastic scattering of electrons and positrons
 #                    by neutral atoms and positive ions
 #
 # Projectile: electron
 # Kinetic energy = 6.00000E+08 eV = 2.20496E+07 a.u.
 #
 # WARNING: High-energy factorization with free-atom DF screening.
 #          Absorption, polarization and exchange corrections are
 #          switched off.
 #          Phase shifts are calculated for the bare nucleus.
 #          Scattering amplitudes are not evaluated.
 #
 # Element: Cr,  Z =  24,  atomic weight = 5.19961E+01 g/mol
 #
 # Nuclear model: Fermi distribution
 #                Average radius = 3.99369E-13 cm
 #                Skin thickness = 5.46000E-14 cm
 #
 # Number of electrons = 24
 #
 # Total elastic cross section = 1.78636E-18 cm**2 = 6.37922E-02 a0**2
 # 1st transport cross section = 3.34029E-27 cm**2 = 1.19284E-10 a0**2
 # 2nd transport cross section = 1.00174E-26 cm**2 = 3.57726E-10 a0**2
 #
 #
 # Differential cross section:                       MU=(1-COS(THETA))/2
 #
 #  THETA        MU          DCS          DCS        Sherman      error
 #  (deg)                 (cm**2/sr)   (a0**2/sr)    function
 #----------------------------------------------------------------------
0.00000E+00 6.66644E-09
7.61557E-13 5.92621E-09
1.18994E-12 5.57077E-09
1.71346E-12 5.18511E-09
2.33225E-12 4.78735E-09
3.04617E-12 4.39267E-09
3.85530E-12 4.01239E-09
4.75964E-12 3.65424E-09
5.75917E-12 3.32269E-09
6.85391E-12 3.01967E-09
8.04379E-12 2.74531E-09
9.32893E-12 2.49842E-09
1.07092E-11 2.27716E-09
1.21847E-11 2.07924E-09
1.37554E-11 1.90229E-09
1.54213E-11 1.74400E-09
1.71823E-11 1.60220E-09
1.90386E-11 1.47490E-09
2.09900E-11 1.36036E-09
2.30367E-11 1.25687E-09
2.51785E-11 1.16321E-09
2.74156E-11 1.07823E-09
2.97478E-11 1.00093E-09
3.21752E-11 9.30421E-10
3.46979E-11 8.65955E-10
3.73157E-11 8.06879E-10
4.00286E-11 7.52622E-10
4.28368E-11 7.02693E-10
4.57402E-11 6.56662E-10
4.87388E-11 6.14133E-10
5.18325E-11 5.74732E-10
5.50215E-11 5.38245E-10
5.83057E-11 5.04414E-10
6.16850E-11 4.73008E-10
6.51595E-11 4.42559E-10
6.87293E-11 4.13198E-10
7.23943E-11 3.86626E-10
7.61544E-11 3.62524E-10
1.18991E-10 2.00696E-10
1.71347E-10 1.16094E-10
2.33223E-10 7.01958E-11
3.04617E-10 4.44227E-11
3.85531E-10 2.93989E-11
4.75965E-10 2.02812E-11
5.75917E-10 1.45137E-11
6.85389E-10 1.07157E-11
8.04380E-10 8.12043E-12
9.32891E-10 6.28715E-12
1.07092E-09 4.95442E-12
1.21847E-09 3.96171E-12
1.37554E-09 3.20700E-12
1.54213E-09 2.62343E-12
1.71823E-09 2.16543E-12
1.90386E-09 1.80173E-12
2.09900E-09 1.51002E-12
2.30367E-09 1.27371E-12
2.51785E-09 1.08093E-12
2.74156E-09 9.22562E-13
2.97478E-09 7.91584E-13
3.21752E-09 6.82605E-13
3.46978E-09 5.91423E-13
3.73156E-09 5.14735E-13
4.00286E-09 4.49919E-13
4.28368E-09 3.94878E-13
4.57402E-09 3.47924E-13
4.87388E-09 3.07691E-13
5.18326E-09 2.73064E-13
5.50215E-09 2.43151E-13
5.83057E-09 2.17210E-13
6.16850E-09 1.94630E-13
6.51596E-09 1.74892E-13
6.87293E-09 1.57588E-13
7.23942E-09 1.42398E-13
7.61544E-09 1.29017E-13
1.18991E-08 5.39729E-14
1.71347E-08 2.64885E-14
2.33223E-08 1.45018E-14
3.04617E-08 8.59440E-15
3.85531E-08 5.41018E-15
4.75965E-08 3.57204E-15
5.75917E-08 2.45141E-15
6.85389E-08 1.73712E-15
8.04380E-08 1.26468E-15
9.32891E-08 9.42273E-16
1.07092E-07 7.16236E-16
1.21847E-07 5.54009E-16
1.37554E-07 4.35174E-16
1.54213E-07 3.46530E-16
1.71823E-07 2.79333E-16
1.90386E-07 2.27649E-16
2.09900E-07 1.87377E-16
2.30367E-07 1.55624E-16
2.51785E-07 1.30318E-16
2.74156E-07 1.09950E-16
2.97478E-07 9.34084E-17
3.21752E-07 7.98629E-17
3.46978E-07 6.86853E-17
3.73156E-07 5.93959E-17
4.00286E-07 5.16248E-17
4.28368E-07 4.50837E-17
4.57402E-07 3.95464E-17
4.87388E-07 3.48335E-17
5.18325E-07 3.08021E-17
5.50215E-07 2.73373E-17
5.83057E-07 2.43462E-17
6.16850E-07 2.17531E-17
6.51596E-07 1.94963E-17
6.87293E-07 1.75246E-17
7.23942E-07 1.57960E-17
7.61543E-07 1.42753E-17
1.18991E-06 5.84920E-18
1.71347E-06 2.82142E-18
2.33223E-06 1.52319E-18
3.04617E-06 8.92994E-19
3.85531E-06 5.57565E-19
4.75964E-06 3.65864E-19
5.75916E-06 2.49920E-19
6.85388E-06 1.76481E-19
8.04378E-06 1.28144E-19
9.32888E-06 9.52818E-20
1.07092E-05 7.23112E-20
1.21846E-05 5.58650E-20
1.37553E-05 4.38402E-20
1.54212E-05 3.48840E-20
1.71822E-05 2.81028E-20
1.90385E-05 2.28913E-20
2.09899E-05 1.88364E-20
2.30365E-05 1.56408E-20
2.51783E-05 1.30946E-20
2.74153E-05 1.10458E-20
2.97475E-05 9.38232E-21
3.21749E-05 8.02058E-21
3.46974E-05 6.89732E-21
3.73152E-05 5.96416E-21
4.00281E-05 5.18376E-21
4.28362E-05 4.52701E-21
4.57395E-05 3.97108E-21
4.87380E-05 3.49791E-21
5.18317E-05 3.09315E-21
5.50205E-05 2.74527E-21
5.83045E-05 2.44494E-21
6.16838E-05 2.18460E-21
6.51582E-05 1.95804E-21
6.87277E-05 1.76012E-21
7.23925E-05 1.58661E-21
7.61524E-05 1.42136E-21
9.21439E-05 9.69059E-22
1.09658E-04 6.82794E-22
1.28695E-04 4.94571E-22
1.49255E-04 3.66729E-22
1.71338E-04 2.77484E-22
1.94942E-04 2.13669E-22
2.20070E-04 1.67081E-22
2.46720E-04 1.32438E-22
2.74892E-04 1.06253E-22
3.04586E-04 8.61735E-23
3.35803E-04 7.05713E-23
3.68542E-04 5.83050E-23
4.02802E-04 4.85571E-23
4.38585E-04 4.07347E-23
4.75889E-04 3.44011E-23
5.14715E-04 2.92306E-23
5.55063E-04 2.49778E-23
5.96931E-04 2.14551E-23
6.40321E-04 1.85182E-23
6.85233E-04 1.60551E-23
7.31665E-04 1.39777E-23
7.79618E-04 1.22164E-23
8.29092E-04 1.07158E-23
8.80086E-04 9.43141E-24
9.32601E-04 8.32739E-24
9.86636E-04 7.37456E-24
1.04219E-03 6.54909E-24
1.09927E-03 5.83137E-24
1.15786E-03 5.20522E-24
1.21797E-03 4.65721E-24
1.27961E-03 4.17614E-24
1.34276E-03 3.75260E-24
1.40743E-03 3.37870E-24
1.47362E-03 3.04777E-24
1.54133E-03 2.75415E-24
1.61056E-03 2.49302E-24
1.68131E-03 2.26026E-24
1.75357E-03 2.05236E-24
1.82735E-03 1.86627E-24
1.90265E-03 1.69940E-24
1.97947E-03 1.54947E-24
2.05780E-03 1.41453E-24
2.13765E-03 1.29288E-24
2.21902E-03 1.18302E-24
2.30190E-03 1.08367E-24
2.38630E-03 9.93684E-25
2.47222E-03 9.12063E-25
2.55965E-03 8.37930E-25
2.64859E-03 7.70510E-25
2.73905E-03 7.09117E-25
2.83103E-03 6.53147E-25
2.92452E-03 6.02062E-25
3.01952E-03 5.55383E-25
3.11604E-03 5.12685E-25
3.21407E-03 4.73589E-25
3.31362E-03 4.37756E-25
3.41468E-03 4.04882E-25
3.51725E-03 3.74696E-25
3.62133E-03 3.46955E-25
3.72692E-03 3.21438E-25
3.83403E-03 2.97949E-25
3.94265E-03 2.76310E-25
4.05278E-03 2.56360E-25
4.16442E-03 2.37954E-25
4.27757E-03 2.20962E-25
4.39223E-03 2.05264E-25
4.50840E-03 1.90753E-25
4.62608E-03 1.77331E-25
4.74527E-03 1.64908E-25
4.86597E-03 1.53405E-25
4.98817E-03 1.42747E-25
5.11188E-03 1.32867E-25
5.23711E-03 1.23704E-25
5.36383E-03 1.15202E-25
5.49207E-03 1.07309E-25
5.62181E-03 9.99788E-26
5.75306E-03 9.31686E-26
5.88581E-03 8.68387E-26
6.02007E-03 8.09532E-26
6.15583E-03 7.54788E-26
6.29310E-03 7.03851E-26
6.43187E-03 6.56440E-26
6.57214E-03 6.12298E-26
6.71392E-03 5.71188E-26
6.85720E-03 5.32889E-26
7.00198E-03 4.97201E-26
7.14827E-03 4.63938E-26
7.29605E-03 4.32926E-26
7.44534E-03 4.04008E-26
7.59612E-03 3.77036E-26
7.97965E-03 3.17254E-26
8.37255E-03 2.66951E-26
8.77480E-03 2.24588E-26
9.18641E-03 1.88885E-26
9.60736E-03 1.58780E-26
1.00376E-02 1.33386E-26
1.04773E-02 1.11964E-26
1.09262E-02 9.38907E-27
1.13844E-02 7.86465E-27
1.18520E-02 6.57925E-27
1.23288E-02 5.49593E-27
1.28150E-02 4.58354E-27
1.33104E-02 3.81575E-27
1.38150E-02 3.17029E-27
1.43290E-02 2.62832E-27
1.48521E-02 2.17387E-27
1.53845E-02 1.79340E-27
1.59262E-02 1.47543E-27
1.64770E-02 1.21022E-27
1.70371E-02 9.89492E-28
1.76063E-02 8.06240E-28
1.81848E-02 6.54512E-28
1.87724E-02 5.29258E-28
1.93692E-02 4.26202E-28
1.99751E-02 3.41718E-28
2.05901E-02 2.72738E-28
2.12143E-02 2.16670E-28
2.18476E-02 1.71321E-28
2.24900E-02 1.34847E-28
2.31415E-02 1.05691E-28
2.38021E-02 8.25472E-29
2.44717E-02 6.43208E-29
2.51504E-02 5.00955E-29
2.58382E-02 3.91075E-29
2.65349E-02 3.07214E-29
2.72407E-02 2.44112E-29
2.79555E-02 1.97424E-29
2.86793E-02 1.63585E-29
2.94120E-02 1.39678E-29
3.01537E-02 1.23335E-29
3.09043E-02 1.12644E-29
3.16639E-02 1.06074E-29
3.24324E-02 1.02411E-29
3.32098E-02 1.00703E-29
3.39961E-02 1.00214E-29
3.47912E-02 1.00381E-29
3.55952E-02 1.00790E-29
3.64081E-02 1.01137E-29
3.72297E-02 1.01215E-29
3.80602E-02 1.00887E-29
3.88995E-02 1.00076E-29
3.97476E-02 9.87476E-30
4.06044E-02 9.69008E-30
4.14700E-02 9.45590E-30
4.23443E-02 9.17629E-30
4.32273E-02 8.85645E-30
4.41190E-02 8.50226E-30
4.50194E-02 8.11991E-30
4.59284E-02 7.71564E-30
4.68461E-02 7.29553E-30
4.87074E-02 6.43043E-30
5.06030E-02 5.56526E-30
5.25328E-02 4.73234E-30
5.44967E-02 3.95535E-30
5.64946E-02 3.24994E-30
5.85262E-02 2.62479E-30
6.05914E-02 2.08288E-30
6.26901E-02 1.62284E-30
6.48222E-02 1.24014E-30
6.69873E-02 9.28140E-31
6.91854E-02 6.78990E-31
7.14163E-02 4.84320E-31
7.36799E-02 3.35777E-31
7.59760E-02 2.25407E-31
7.83043E-02 1.45907E-31
8.06647E-02 9.07782E-32
8.30571E-02 5.43909E-32
8.54812E-02 3.19921E-32
8.79369E-02 1.96680E-32
9.04240E-02 1.42766E-32
9.29422E-02 1.33637E-32
9.54915E-02 1.50698E-32
9.80716E-02 1.80366E-32
1.00682E-01 2.13170E-32
1.03323E-01 2.42916E-32
1.05995E-01 2.65953E-32
1.08696E-01 2.80528E-32
1.11427E-01 2.86251E-32
1.14188E-01 2.83654E-32
1.16978E-01 2.73838E-32
1.19797E-01 2.58208E-32
1.22645E-01 2.38270E-32
1.25522E-01 2.15492E-32
1.28428E-01 1.91208E-32
1.31361E-01 1.66568E-32
1.34323E-01 1.42507E-32
1.37313E-01 1.19745E-32
1.40330E-01 9.87933E-33
1.43375E-01 7.99805E-33
1.46447E-01 6.34745E-33
1.49545E-01 4.93125E-33
1.52671E-01 3.74295E-33
1.55823E-01 2.76851E-33
1.59001E-01 1.98871E-33
1.62205E-01 1.38129E-33
1.65435E-01 9.22573E-34
1.68690E-01 5.88904E-34
1.71970E-01 3.57616E-34
1.75276E-01 2.07774E-34
1.78606E-01 1.20637E-34
1.81961E-01 7.99058E-35
1.85340E-01 7.18005E-35
1.88743E-01 8.50018E-35
1.92169E-01 1.10501E-34
1.95619E-01 1.41383E-34
1.99092E-01 1.72569E-34
2.02589E-01 2.00552E-34
2.06107E-01 2.23117E-34
2.09649E-01 2.39090E-34
2.13212E-01 2.48097E-34
2.16797E-01 2.50356E-34
2.20404E-01 2.46490E-34
2.24032E-01 2.37382E-34
2.27680E-01 2.24048E-34
2.31350E-01 2.07542E-34
2.35040E-01 1.88887E-34
2.38751E-01 1.69019E-34
2.42481E-01 1.48764E-34
2.46231E-01 1.28811E-34
2.50000E-01 1.09714E-34
2.53788E-01 9.18876E-35
2.57595E-01 7.56230E-35
2.61421E-01 6.10969E-35
2.65264E-01 4.83891E-35
2.69126E-01 3.74993E-35
2.73005E-01 2.83633E-35
2.76901E-01 2.08696E-35
2.80814E-01 1.48733E-35
2.84744E-01 1.02090E-35
2.88691E-01 6.70189E-36
2.92653E-01 4.17579E-36
2.96632E-01 2.46062E-36
3.00625E-01 1.39723E-36
3.04634E-01 8.40906E-37
3.08658E-01 6.63598E-37
3.12697E-01 7.54854E-37
3.16749E-01 1.02192E-36
3.20816E-01 1.38911E-36
3.24896E-01 1.79666E-36
3.28990E-01 2.19923E-36
3.33097E-01 2.56414E-36
3.37216E-01 2.86960E-36
3.41348E-01 3.10286E-36
3.45492E-01 3.25850E-36
3.49647E-01 3.33677E-36
3.53814E-01 3.34216E-36
3.57992E-01 3.28211E-36
3.62181E-01 3.16595E-36
3.66381E-01 3.00393E-36
3.70590E-01 2.80660E-36
3.74810E-01 2.58415E-36
3.79039E-01 2.34611E-36
3.83277E-01 2.10098E-36
3.87524E-01 1.85615E-36
3.91780E-01 1.61774E-36
3.96044E-01 1.39065E-36
4.00316E-01 1.17861E-36
4.04596E-01 9.84213E-37
4.08882E-01 8.09088E-37
4.13176E-01 6.54001E-37
4.17476E-01 5.18988E-37
4.21783E-01 4.03503E-37
4.26095E-01 3.06541E-37
4.30413E-01 2.26755E-37
4.34737E-01 1.62571E-37
4.39065E-01 1.12280E-37
4.43398E-01 7.41233E-38
4.47736E-01 4.63451E-38
4.52077E-01 2.72625E-38
4.56422E-01 1.52929E-38
4.60770E-01 8.98660E-39
4.65122E-01 7.04272E-39
4.69476E-01 8.31939E-39
4.73832E-01 1.18354E-38
4.78190E-01 1.67616E-38
4.82550E-01 2.24254E-38
4.86912E-01 2.82828E-38
4.91274E-01 3.39186E-38
4.95637E-01 3.90259E-38
5.00000E-01 4.33939E-38
5.04363E-01 4.68923E-38
5.08726E-01 4.94575E-38
5.13088E-01 5.10808E-38
5.17450E-01 5.17955E-38
5.21810E-01 5.16668E-38
5.26168E-01 5.07820E-38
5.30524E-01 4.92421E-38
5.34878E-01 4.71559E-38
5.39230E-01 4.46332E-38
5.43578E-01 4.17815E-38
5.47923E-01 3.87014E-38
5.52264E-01 3.54850E-38
5.56602E-01 3.22142E-38
5.60935E-01 2.89601E-38
5.65263E-01 2.57814E-38
5.69587E-01 2.27270E-38
5.73905E-01 1.98349E-38
5.78217E-01 1.71330E-38
5.82524E-01 1.46407E-38
5.86824E-01 1.23699E-38
5.91118E-01 1.03258E-38
5.95404E-01 8.50786E-39
5.99684E-01 6.91074E-39
6.03956E-01 5.52581E-39
6.08220E-01 4.34080E-39
6.12476E-01 3.34204E-39
6.16723E-01 2.51337E-39
6.20961E-01 1.83868E-39
6.25190E-01 1.00000E-45
6.29410E-01 1.00000E-45
6.33619E-01 1.00000E-45
6.37819E-01 1.00000E-45
6.42008E-01 1.00000E-45
6.46186E-01 1.00000E-45
6.50353E-01 1.00000E-45
6.54508E-01 1.00000E-45
6.58652E-01 1.00000E-45
6.62784E-01 1.00000E-45
6.66903E-01 1.00000E-45
6.71010E-01 1.00000E-45
6.75104E-01 1.00000E-45
6.79184E-01 1.00000E-45
6.83251E-01 1.00000E-45
6.87303E-01 1.00000E-45
6.91342E-01 1.00000E-45
6.95366E-01 1.00000E-45
6.99375E-01 1.00000E-45
7.03368E-01 1.00000E-45
7.07347E-01 1.00000E-45
7.11309E-01 1.00000E-45
7.15256E-01 1.00000E-45
7.19186E-01 1.00000E-45
7.23099E-01 1.00000E-45
7.26995E-01 1.00000E-45
7.30874E-01 1.00000E-45
7.34736E-01 1.00000E-45
7.38579E-01 1.00000E-45
7.42405E-01 1.00000E-45
7.46212E-01 1.00000E-45
7.50000E-01 1.00000E-45
7.53769E-01 1.00000E-45
7.57519E-01 1.00000E-45
7.61249E-01 1.00000E-45
7.64960E-01 1.00000E-45
7.68650E-01 1.00000E-45
7.72320E-01 1.00000E-45
7.75968E-01 1.00000E-45
7.79596E-01 1.00000E-45
7.83203E-01 1.00000E-45
7.86788E-01 1.00000E-45
7.90351E-01 1.00000E-45
7.93893E-01 1.00000E-45
7.97411E-01 1.00000E-45
8.00908E-01 1.00000E-45
8.04381E-01 1.00000E-45
8.07831E-01 1.00000E-45
8.11257E-01 1.00000E-45
8.14660E-01 1.00000E-45
8.18039E-01 1.00000E-45
8.21394E-01 1.00000E-45
8.24724E-01 1.00000E-45
8.28030E-01 1.00000E-45
8.31310E-01 1.00000E-45
8.34565E-01 1.00000E-45
8.37795E-01 1.00000E-45
8.40999E-01 1.00000E-45
8.44177E-01 1.00000E-45
8.47329E-01 1.00000E-45
8.50455E-01 1.00000E-45
8.53553E-01 1.00000E-45
8.56625E-01 1.00000E-45
8.59670E-01 1.00000E-45
8.62687E-01 1.00000E-45
8.65677E-01 1.00000E-45
8.68639E-01 1.00000E-45
8.71572E-01 1.00000E-45
8.74478E-01 1.00000E-45
8.77355E-01 1.00000E-45
8.80203E-01 1.00000E-45
8.83022E-01 1.00000E-45
8.85812E-01 1.00000E-45
8.88573E-01 1.00000E-45
8.91304E-01 1.00000E-45
8.94005E-01 1.00000E-45
8.96677E-01 1.00000E-45
8.99318E-01 1.00000E-45
9.01928E-01 1.00000E-45
9.04508E-01 1.00000E-45
9.07058E-01 1.00000E-45
9.09576E-01 1.00000E-45
9.12063E-01 1.00000E-45
9.14519E-01 1.00000E-45
9.16943E-01 1.00000E-45
9.19335E-01 1.00000E-45
9.21696E-01 1.00000E-45
9.24024E-01 1.00000E-45
9.26320E-01 1.00000E-45
9.28584E-01 1.00000E-45
9.30815E-01 1.00000E-45
9.33013E-01 1.00000E-45
9.35178E-01 1.00000E-45
9.37310E-01 1.00000E-45
9.39409E-01 1.00000E-45
9.41474E-01 1.00000E-45
9.43505E-01 1.00000E-45
9.45503E-01 1.00000E-45
9.47467E-01 1.00000E-45
9.49397E-01 1.00000E-45
9.51293E-01 1.00000E-45
9.53154E-01 1.00000E-45
9.54981E-01 1.00000E-45
9.56773E-01 1.00000E-45
9.58530E-01 1.00000E-45
9.60252E-01 1.00000E-45
9.61940E-01 1.00000E-45
9.63592E-01 1.00000E-45
9.65209E-01 1.00000E-45
9.66790E-01 1.00000E-45
9.68336E-01 1.00000E-45
9.69846E-01 1.00000E-45
9.71321E-01 1.00000E-45
9.72759E-01 1.00000E-45
9.74162E-01 1.00000E-45
9.75528E-01 1.00000E-45
9.76858E-01 1.00000E-45
9.78152E-01 1.00000E-45
9.79410E-01 1.00000E-45
9.80631E-01 1.00000E-45
9.81815E-01 1.00000E-45
9.82963E-01 1.00000E-45
9.84074E-01 1.00000E-45
9.85148E-01 1.00000E-45
9.86185E-01 1.00000E-45
9.87185E-01 1.00000E-45
9.88148E-01 1.00000E-45
9.89074E-01 1.00000E-45
9.89962E-01 1.00000E-45
9.90814E-01 1.00000E-45
9.91627E-01 1.00000E-45
9.92404E-01 1.00000E-45
9.93143E-01 1.00000E-45
9.93844E-01 1.00000E-45
9.94508E-01 1.00000E-45
9.95134E-01 1.00000E-45
9.95722E-01 1.00000E-45
9.96273E-01 1.00000E-45
9.96786E-01 1.00000E-45
9.97261E-01 1.00000E-45
9.97698E-01 1.00000E-45
9.98097E-01 1.00000E-45
9.98459E-01 1.00000E-45
9.98782E-01 1.00000E-45
9.99067E-01 1.00000E-45
9.99315E-01 1.00000E-45
9.99524E-01 1.00000E-45
9.99695E-01 1.00000E-45
9.99829E-01 1.00000E-45
9.99924E-01 1.00000E-45
9.99981E-01 1.00000E-45
1.00000E+00 1.00000E-45
