 #
 # Subroutine ELSEPA. Elastic scattering of electrons and positrons
 #                    by neutral atoms and positive ions
 #
 # Projectile: electron
 # Kinetic energy = 8.00000E+06 eV = 2.93995E+05 a.u.
 #
 # WARNING: High-energy factorization with free-atom DF screening.
 #          Absorption, polarization and exchange corrections are
 #          switched off.
 #          Phase shifts are calculated for the bare nucleus.
 #          Scattering amplitudes are not evaluated.
 #
 # Element: Sm,  Z =  62,  atomic weight = 1.50360E+02 g/mol
 #
 # Nuclear model: Fermi distribution
 #                Average radius = 5.68977E-13 cm
 #                Skin thickness = 5.46000E-14 cm
 #
 # Number of electrons = 62
 #
 # Total elastic cross section = 7.25664E-18 cm**2 = 2.59139E-01 a0**2
 # 1st transport cross section = 9.19875E-23 cm**2 = 3.28493E-06 a0**2
 # 2nd transport cross section = 2.55471E-22 cm**2 = 9.12305E-06 a0**2
 #
 #
 # Differential cross section:                       MU=(1-COS(THETA))/2
 #
 #  THETA        MU          DCS          DCS        Sherman      error
 #  (deg)                 (cm**2/sr)   (a0**2/sr)    function
 #----------------------------------------------------------------------
0.00000E+00 6.73537E-12
7.61557E-13 6.73511E-12
1.18994E-12 6.73497E-12
1.71346E-12 6.73480E-12
2.33225E-12 6.73460E-12
3.04617E-12 6.73436E-12
3.85530E-12 6.73409E-12
4.75964E-12 6.73380E-12
5.75917E-12 6.73347E-12
6.85391E-12 6.73311E-12
8.04379E-12 6.73271E-12
9.32893E-12 6.73229E-12
1.07092E-11 6.73184E-12
1.21847E-11 6.73135E-12
1.37554E-11 6.73084E-12
1.54213E-11 6.73029E-12
1.71823E-11 6.72971E-12
1.90386E-11 6.72910E-12
2.09900E-11 6.72846E-12
2.30367E-11 6.72779E-12
2.51785E-11 6.72708E-12
2.74156E-11 6.72635E-12
2.97478E-11 6.72558E-12
3.21752E-11 6.72479E-12
3.46979E-11 6.72396E-12
3.73157E-11 6.72310E-12
4.00286E-11 6.72221E-12
4.28368E-11 6.72129E-12
4.57402E-11 6.72034E-12
4.87388E-11 6.71935E-12
5.18325E-11 6.71834E-12
5.50215E-11 6.71730E-12
5.83057E-11 6.71622E-12
6.16850E-11 6.71511E-12
6.51595E-11 6.71398E-12
6.87293E-11 6.71281E-12
7.23943E-11 6.71161E-12
7.61544E-11 6.71038E-12
1.18991E-10 6.69640E-12
1.71347E-10 6.67938E-12
2.33223E-10 6.65936E-12
3.04617E-10 6.63638E-12
3.85531E-10 6.61049E-12
4.75965E-10 6.58176E-12
5.75917E-10 6.55024E-12
6.85389E-10 6.51601E-12
8.04380E-10 6.47913E-12
9.32891E-10 6.43969E-12
1.07092E-09 6.39777E-12
1.21847E-09 6.35345E-12
1.37554E-09 6.30684E-12
1.54213E-09 6.25801E-12
1.71823E-09 6.20709E-12
1.90386E-09 6.15414E-12
2.09900E-09 6.09930E-12
2.30367E-09 6.04265E-12
2.51785E-09 5.98431E-12
2.74156E-09 5.92437E-12
2.97478E-09 5.86296E-12
3.21752E-09 5.80028E-12
3.46978E-09 5.73683E-12
3.73156E-09 5.67201E-12
4.00286E-09 5.60590E-12
4.28368E-09 5.53859E-12
4.57402E-09 5.47017E-12
4.87388E-09 5.40074E-12
5.18326E-09 5.33166E-12
5.50215E-09 5.26229E-12
5.83057E-09 5.19217E-12
6.16850E-09 5.12138E-12
6.51596E-09 5.05001E-12
6.87293E-09 4.97813E-12
7.23942E-09 4.90636E-12
7.61544E-09 4.83588E-12
1.18991E-08 4.13705E-12
1.71347E-08 3.49996E-12
2.33223E-08 2.95133E-12
3.04617E-08 2.49693E-12
3.85531E-08 2.12597E-12
4.75965E-08 1.82712E-12
5.75917E-08 1.58416E-12
6.85389E-08 1.38610E-12
8.04380E-08 1.22208E-12
9.32891E-08 1.08466E-12
1.07092E-07 9.67978E-13
1.21847E-07 8.67688E-13
1.37554E-07 7.80557E-13
1.54213E-07 7.04321E-13
1.71823E-07 6.36953E-13
1.90386E-07 5.77391E-13
2.09900E-07 5.24161E-13
2.30367E-07 4.76793E-13
2.51785E-07 4.34251E-13
2.74156E-07 3.96190E-13
2.97478E-07 3.61952E-13
3.21752E-07 3.30776E-13
3.46978E-07 3.01139E-13
3.73156E-07 2.75347E-13
4.00286E-07 2.52803E-13
4.28368E-07 2.33015E-13
4.57402E-07 2.15577E-13
4.87388E-07 2.00150E-13
5.18325E-07 1.84840E-13
5.50215E-07 1.70637E-13
5.83057E-07 1.58015E-13
6.16850E-07 1.46760E-13
6.51596E-07 1.36694E-13
6.87293E-07 1.27662E-13
7.23942E-07 1.19295E-13
7.61543E-07 1.11067E-13
1.18991E-06 5.92712E-14
1.71347E-06 3.42968E-14
2.33223E-06 2.10017E-14
3.04617E-06 1.34602E-14
3.85531E-06 9.01125E-15
4.75964E-06 6.26577E-15
5.75916E-06 4.51189E-15
6.85388E-06 3.34283E-15
8.04378E-06 2.53915E-15
9.32888E-06 1.96464E-15
1.07092E-05 1.54620E-15
1.21846E-05 1.23413E-15
1.37553E-05 9.96676E-16
1.54212E-05 8.13135E-16
1.71822E-05 6.69222E-16
1.90385E-05 5.55257E-16
2.09899E-05 4.64636E-16
2.30365E-05 3.91675E-16
2.51783E-05 3.32277E-16
2.74153E-05 2.83620E-16
2.97475E-05 2.43459E-16
3.21749E-05 2.10119E-16
3.46974E-05 1.82244E-16
3.73152E-05 1.58998E-16
4.00281E-05 1.39327E-16
4.28362E-05 1.22609E-16
4.57395E-05 1.08399E-16
4.87380E-05 9.61094E-17
5.18317E-05 8.55549E-17
5.50205E-05 7.64132E-17
5.83045E-05 6.84488E-17
6.16838E-05 6.15244E-17
6.51582E-05 5.54350E-17
6.87277E-05 5.00938E-17
7.23925E-05 4.53903E-17
7.61524E-05 4.12163E-17
9.21439E-05 2.86611E-17
1.09658E-04 2.05379E-17
1.28695E-04 1.51041E-17
1.49255E-04 1.13508E-17
1.71338E-04 8.69420E-18
1.94942E-04 6.77004E-18
2.20070E-04 5.34933E-18
2.46720E-04 4.28228E-18
2.74892E-04 3.46811E-18
3.04586E-04 2.83865E-18
3.35803E-04 2.34557E-18
3.68542E-04 1.95518E-18
4.02802E-04 1.64272E-18
4.38585E-04 1.39035E-18
4.75889E-04 1.18468E-18
5.14715E-04 1.01574E-18
5.55063E-04 8.75919E-19
5.96931E-04 7.59397E-19
6.40321E-04 6.61671E-19
6.85233E-04 5.79203E-19
7.31665E-04 5.09231E-19
7.79618E-04 4.49537E-19
8.29092E-04 3.98367E-19
8.80086E-04 3.54294E-19
9.32601E-04 3.16171E-19
9.86636E-04 2.83055E-19
1.04219E-03 2.54178E-19
1.09927E-03 2.28903E-19
1.15786E-03 2.06704E-19
1.21797E-03 1.87141E-19
1.27961E-03 1.69846E-19
1.34276E-03 1.54512E-19
1.40743E-03 1.40875E-19
1.47362E-03 1.28716E-19
1.54133E-03 1.17845E-19
1.61056E-03 1.08103E-19
1.68131E-03 9.93509E-20
1.75357E-03 9.14703E-20
1.82735E-03 8.43592E-20
1.90265E-03 7.79285E-20
1.97947E-03 7.21019E-20
2.05780E-03 6.68119E-20
2.13765E-03 6.20007E-20
2.21902E-03 5.76166E-20
2.30190E-03 5.36151E-20
2.38630E-03 4.99567E-20
2.47222E-03 4.66065E-20
2.55965E-03 4.35340E-20
2.64859E-03 4.07117E-20
2.73905E-03 3.81158E-20
2.83103E-03 3.57245E-20
2.92452E-03 3.35189E-20
3.01952E-03 3.14818E-20
3.11604E-03 2.95980E-20
3.21407E-03 2.78538E-20
3.31362E-03 2.62371E-20
3.41468E-03 2.47365E-20
3.51725E-03 2.33425E-20
3.62133E-03 2.20459E-20
3.72692E-03 2.08387E-20
3.83403E-03 1.97136E-20
3.94265E-03 1.86638E-20
4.05278E-03 1.76835E-20
4.16442E-03 1.67671E-20
4.27757E-03 1.59098E-20
4.39223E-03 1.51070E-20
4.50840E-03 1.43545E-20
4.62608E-03 1.36487E-20
4.74527E-03 1.29861E-20
4.86597E-03 1.23634E-20
4.98817E-03 1.17780E-20
5.11188E-03 1.12271E-20
5.23711E-03 1.07083E-20
5.36383E-03 1.02194E-20
5.49207E-03 9.75824E-21
5.62181E-03 9.32308E-21
5.75306E-03 8.91213E-21
5.88581E-03 8.52376E-21
6.02007E-03 8.15652E-21
6.15583E-03 7.80902E-21
6.29310E-03 7.48001E-21
6.43187E-03 7.16832E-21
6.57214E-03 6.87284E-21
6.71392E-03 6.59258E-21
6.85720E-03 6.32662E-21
7.00198E-03 6.07405E-21
7.14827E-03 5.83410E-21
7.29605E-03 5.60601E-21
7.44534E-03 5.38907E-21
7.59612E-03 5.18264E-21
7.97965E-03 4.70862E-21
8.37255E-03 4.28815E-21
8.77480E-03 3.91408E-21
9.18641E-03 3.58037E-21
9.60736E-03 3.28189E-21
1.00376E-02 3.01423E-21
1.04773E-02 2.77365E-21
1.09262E-02 2.55689E-21
1.13844E-02 2.36117E-21
1.18520E-02 2.18407E-21
1.23288E-02 2.02349E-21
1.28150E-02 1.87761E-21
1.33104E-02 1.74482E-21
1.38150E-02 1.62374E-21
1.43290E-02 1.51314E-21
1.48521E-02 1.41194E-21
1.53845E-02 1.31919E-21
1.59262E-02 1.23405E-21
1.64770E-02 1.15579E-21
1.70371E-02 1.08373E-21
1.76063E-02 1.01730E-21
1.81848E-02 9.55964E-22
1.87724E-02 8.99265E-22
1.93692E-02 8.46782E-22
1.99751E-02 7.98140E-22
2.05901E-02 7.53006E-22
2.12143E-02 7.11077E-22
2.18476E-02 6.72081E-22
2.24900E-02 6.35773E-22
2.31415E-02 6.01932E-22
2.38021E-02 5.70357E-22
2.44717E-02 5.40868E-22
2.51504E-02 5.13298E-22
2.58382E-02 4.87498E-22
2.65349E-02 4.63332E-22
2.72407E-02 4.40677E-22
2.79555E-02 4.19420E-22
2.86793E-02 3.99456E-22
2.94120E-02 3.80692E-22
3.01537E-02 3.63041E-22
3.09043E-02 3.46424E-22
3.16639E-02 3.30768E-22
3.24324E-02 3.16006E-22
3.32098E-02 3.02077E-22
3.39961E-02 2.88925E-22
3.47912E-02 2.76498E-22
3.55952E-02 2.64747E-22
3.64081E-02 2.53629E-22
3.72297E-02 2.43102E-22
3.80602E-02 2.33129E-22
3.88995E-02 2.23674E-22
3.97476E-02 2.14705E-22
4.06044E-02 2.06192E-22
4.14700E-02 1.98107E-22
4.23443E-02 1.90424E-22
4.32273E-02 1.83120E-22
4.41190E-02 1.76171E-22
4.50194E-02 1.69557E-22
4.59284E-02 1.63258E-22
4.68461E-02 1.57256E-22
4.87074E-02 1.46077E-22
5.06030E-02 1.35898E-22
5.25328E-02 1.26613E-22
5.44967E-02 1.18126E-22
5.64946E-02 1.10356E-22
5.85262E-02 1.03230E-22
6.05914E-02 9.66851E-23
6.26901E-02 9.06633E-23
6.48222E-02 8.51147E-23
6.69873E-02 7.99947E-23
6.91854E-02 7.52636E-23
7.14163E-02 7.08860E-23
7.36799E-02 6.68300E-23
7.59760E-02 6.30671E-23
7.83043E-02 5.95719E-23
8.06647E-02 5.63215E-23
8.30571E-02 5.32953E-23
8.54812E-02 5.04745E-23
8.79369E-02 4.78424E-23
9.04240E-02 4.53838E-23
9.29422E-02 4.30849E-23
9.54915E-02 4.09331E-23
9.80716E-02 3.89170E-23
1.00682E-01 3.70265E-23
1.03323E-01 3.52520E-23
1.05995E-01 3.35848E-23
1.08696E-01 3.20172E-23
1.11427E-01 3.05420E-23
1.14188E-01 2.91527E-23
1.16978E-01 2.78430E-23
1.19797E-01 2.66075E-23
1.22645E-01 2.54412E-23
1.25522E-01 2.43394E-23
1.28428E-01 2.32977E-23
1.31361E-01 2.23121E-23
1.34323E-01 2.13790E-23
1.37313E-01 2.04951E-23
1.40330E-01 1.96571E-23
1.43375E-01 1.88622E-23
1.46447E-01 1.81077E-23
1.49545E-01 1.73911E-23
1.52671E-01 1.67101E-23
1.55823E-01 1.60625E-23
1.59001E-01 1.54465E-23
1.62205E-01 1.48600E-23
1.65435E-01 1.43014E-23
1.68690E-01 1.37691E-23
1.71970E-01 1.32616E-23
1.75276E-01 1.27775E-23
1.78606E-01 1.23154E-23
1.81961E-01 1.18742E-23
1.85340E-01 1.14527E-23
1.88743E-01 1.10498E-23
1.92169E-01 1.06646E-23
1.95619E-01 1.02961E-23
1.99092E-01 9.94343E-24
2.02589E-01 9.60575E-24
2.06107E-01 9.28230E-24
2.09649E-01 8.97234E-24
2.13212E-01 8.67521E-24
2.16797E-01 8.39025E-24
2.20404E-01 8.11686E-24
2.24032E-01 7.85448E-24
2.27680E-01 7.60256E-24
2.31350E-01 7.36059E-24
2.35040E-01 7.12810E-24
2.38751E-01 6.90465E-24
2.42481E-01 6.68980E-24
2.46231E-01 6.48315E-24
2.50000E-01 6.28433E-24
2.53788E-01 6.09297E-24
2.57595E-01 5.90874E-24
2.61421E-01 5.73131E-24
2.65264E-01 5.56038E-24
2.69126E-01 5.39566E-24
2.73005E-01 5.23688E-24
2.76901E-01 5.08378E-24
2.80814E-01 4.93611E-24
2.84744E-01 4.79364E-24
2.88691E-01 4.65615E-24
2.92653E-01 4.52343E-24
2.96632E-01 4.39528E-24
3.00625E-01 4.27150E-24
3.04634E-01 4.15192E-24
3.08658E-01 4.03636E-24
3.12697E-01 3.92467E-24
3.16749E-01 3.81668E-24
3.20816E-01 3.71225E-24
3.24896E-01 3.61123E-24
3.28990E-01 3.51349E-24
3.33097E-01 3.41889E-24
3.37216E-01 3.32732E-24
3.41348E-01 3.23866E-24
3.45492E-01 3.15280E-24
3.49647E-01 3.06963E-24
3.53814E-01 2.98906E-24
3.57992E-01 2.91098E-24
3.62181E-01 2.83531E-24
3.66381E-01 2.76194E-24
3.70590E-01 2.69081E-24
3.74810E-01 2.62182E-24
3.79039E-01 2.55489E-24
3.83277E-01 2.48996E-24
3.87524E-01 2.42696E-24
3.91780E-01 2.36580E-24
3.96044E-01 2.30644E-24
4.00316E-01 2.24880E-24
4.04596E-01 2.19283E-24
4.08882E-01 2.13846E-24
4.13176E-01 2.08564E-24
4.17476E-01 2.03433E-24
4.21783E-01 1.98446E-24
4.26095E-01 1.93599E-24
4.30413E-01 1.88887E-24
4.34737E-01 1.84306E-24
4.39065E-01 1.79851E-24
4.43398E-01 1.75519E-24
4.47736E-01 1.71304E-24
4.52077E-01 1.67204E-24
4.56422E-01 1.63215E-24
4.60770E-01 1.59332E-24
4.65122E-01 1.55553E-24
4.69476E-01 1.51875E-24
4.73832E-01 1.48293E-24
4.78190E-01 1.44806E-24
4.82550E-01 1.41410E-24
4.86912E-01 1.38102E-24
4.91274E-01 1.34880E-24
4.95637E-01 1.31740E-24
5.00000E-01 1.28681E-24
5.04363E-01 1.25700E-24
5.08726E-01 1.22795E-24
5.13088E-01 1.19963E-24
5.17450E-01 1.17202E-24
5.21810E-01 1.14510E-24
5.26168E-01 1.11885E-24
5.30524E-01 1.09325E-24
5.34878E-01 1.06828E-24
5.39230E-01 1.04392E-24
5.43578E-01 1.02016E-24
5.47923E-01 9.96973E-25
5.52264E-01 9.74350E-25
5.56602E-01 9.52272E-25
5.60935E-01 9.30723E-25
5.65263E-01 9.09689E-25
5.69587E-01 8.89156E-25
5.73905E-01 8.69109E-25
5.78217E-01 8.49534E-25
5.82524E-01 8.30419E-25
5.86824E-01 8.11752E-25
5.91118E-01 7.93519E-25
5.95404E-01 7.75709E-25
5.99684E-01 7.58311E-25
6.03956E-01 7.41313E-25
6.08220E-01 7.24704E-25
6.12476E-01 7.08475E-25
6.16723E-01 6.92616E-25
6.20961E-01 6.77115E-25
6.25190E-01 6.61965E-25
6.29410E-01 6.47155E-25
6.33619E-01 6.32678E-25
6.37819E-01 6.18524E-25
6.42008E-01 6.04684E-25
6.46186E-01 5.91152E-25
6.50353E-01 5.77919E-25
6.54508E-01 5.64977E-25
6.58652E-01 5.52319E-25
6.62784E-01 5.39939E-25
6.66903E-01 5.27828E-25
6.71010E-01 5.15981E-25
6.75104E-01 5.04390E-25
6.79184E-01 4.93049E-25
6.83251E-01 4.81953E-25
6.87303E-01 4.71095E-25
6.91342E-01 4.60470E-25
6.95366E-01 4.50071E-25
6.99375E-01 4.39894E-25
7.03368E-01 4.29933E-25
7.07347E-01 4.20182E-25
7.11309E-01 4.10638E-25
7.15256E-01 4.01294E-25
7.19186E-01 3.92147E-25
7.23099E-01 3.83191E-25
7.26995E-01 3.74422E-25
7.30874E-01 3.65836E-25
7.34736E-01 3.57429E-25
7.38579E-01 3.49196E-25
7.42405E-01 3.41134E-25
7.46212E-01 3.33238E-25
7.50000E-01 3.25505E-25
7.53769E-01 3.17931E-25
7.57519E-01 3.10512E-25
7.61249E-01 3.03246E-25
7.64960E-01 2.96128E-25
7.68650E-01 2.89156E-25
7.72320E-01 2.82326E-25
7.75968E-01 2.75634E-25
7.79596E-01 2.69079E-25
7.83203E-01 2.62657E-25
7.86788E-01 2.56365E-25
7.90351E-01 2.50201E-25
7.93893E-01 2.44161E-25
7.97411E-01 2.38243E-25
8.00908E-01 2.32445E-25
8.04381E-01 2.26763E-25
8.07831E-01 2.21196E-25
8.11257E-01 2.15741E-25
8.14660E-01 2.10396E-25
8.18039E-01 2.05158E-25
8.21394E-01 2.00026E-25
8.24724E-01 1.94997E-25
8.28030E-01 1.90068E-25
8.31310E-01 1.85239E-25
8.34565E-01 1.80506E-25
8.37795E-01 1.75869E-25
8.40999E-01 1.71325E-25
8.44177E-01 1.66872E-25
8.47329E-01 1.62509E-25
8.50455E-01 1.58233E-25
8.53553E-01 1.54044E-25
8.56625E-01 1.49939E-25
8.59670E-01 1.45917E-25
8.62687E-01 1.41976E-25
8.65677E-01 1.38115E-25
8.68639E-01 1.34332E-25
8.71572E-01 1.30625E-25
8.74478E-01 1.26994E-25
8.77355E-01 1.23437E-25
8.80203E-01 1.19953E-25
8.83022E-01 1.16539E-25
8.85812E-01 1.13196E-25
8.88573E-01 1.09922E-25
8.91304E-01 1.06715E-25
8.94005E-01 1.03574E-25
8.96677E-01 1.00498E-25
8.99318E-01 9.74866E-26
9.01928E-01 9.45380E-26
9.04508E-01 9.16511E-26
9.07058E-01 8.88250E-26
9.09576E-01 8.60587E-26
9.12063E-01 8.33511E-26
9.14519E-01 8.07014E-26
9.16943E-01 7.81084E-26
9.19335E-01 7.55714E-26
9.21696E-01 7.30895E-26
9.24024E-01 7.06616E-26
9.26320E-01 6.82871E-26
9.28584E-01 6.59650E-26
9.30815E-01 6.36946E-26
9.33013E-01 6.14750E-26
9.35178E-01 5.93056E-26
9.37310E-01 5.71854E-26
9.39409E-01 5.51139E-26
9.41474E-01 5.30903E-26
9.43505E-01 5.11139E-26
9.45503E-01 4.91841E-26
9.47467E-01 4.73002E-26
9.49397E-01 4.54615E-26
9.51293E-01 4.36674E-26
9.53154E-01 4.19174E-26
9.54981E-01 4.02108E-26
9.56773E-01 3.85471E-26
9.58530E-01 3.69257E-26
9.60252E-01 3.53461E-26
9.61940E-01 3.38078E-26
9.63592E-01 3.23102E-26
9.65209E-01 3.08528E-26
9.66790E-01 2.94353E-26
9.68336E-01 2.80571E-26
9.69846E-01 2.67177E-26
9.71321E-01 2.54168E-26
9.72759E-01 2.41539E-26
9.74162E-01 2.29286E-26
9.75528E-01 2.17405E-26
9.76858E-01 2.05892E-26
9.78152E-01 1.94744E-26
9.79410E-01 1.83957E-26
9.80631E-01 1.73527E-26
9.81815E-01 1.63451E-26
9.82963E-01 1.53727E-26
9.84074E-01 1.44350E-26
9.85148E-01 1.35318E-26
9.86185E-01 1.26628E-26
9.87185E-01 1.18277E-26
9.88148E-01 1.10263E-26
9.89074E-01 1.02583E-26
9.89962E-01 9.52344E-27
9.90814E-01 8.82154E-27
9.91627E-01 8.15235E-27
9.92404E-01 7.51566E-27
9.93143E-01 6.91128E-27
9.93844E-01 6.33901E-27
9.94508E-01 5.79868E-27
9.95134E-01 5.29012E-27
9.95722E-01 4.81316E-27
9.96273E-01 4.36767E-27
9.96786E-01 3.95350E-27
9.97261E-01 3.57052E-27
9.97698E-01 3.21862E-27
9.98097E-01 2.89767E-27
9.98459E-01 2.60760E-27
9.98782E-01 2.34830E-27
9.99067E-01 2.11969E-27
9.99315E-01 1.92171E-27
9.99524E-01 1.75429E-27
9.99695E-01 1.61738E-27
9.99829E-01 1.51094E-27
9.99924E-01 1.43493E-27
9.99981E-01 1.38934E-27
1.00000E+00 1.37414E-27
