 #
 # Subroutine ELSEPA. Elastic scattering of electrons and positrons
 #                    by neutral atoms and positive ions
 #
 # Projectile: electron
 # Kinetic energy = 1.25000E+07 eV = 4.59367E+05 a.u.
 #
 # WARNING: High-energy factorization with free-atom DF screening.
 #          Absorption, polarization and exchange corrections are
 #          switched off.
 #          Phase shifts are calculated for the bare nucleus.
 #          Scattering amplitudes are not evaluated.
 #
 # Element: Sm,  Z =  62,  atomic weight = 1.50360E+02 g/mol
 #
 # Nuclear model: Fermi distribution
 #                Average radius = 5.68977E-13 cm
 #                Skin thickness = 5.46000E-14 cm
 #
 # Number of electrons = 62
 #
 # Total elastic cross section = 7.24090E-18 cm**2 = 2.58577E-01 a0**2
 # 1st transport cross section = 4.12159E-23 cm**2 = 1.47185E-06 a0**2
 # 2nd transport cross section = 1.15568E-22 cm**2 = 4.12701E-06 a0**2
 #
 #
 # Differential cross section:                       MU=(1-COS(THETA))/2
 #
 #  THETA        MU          DCS          DCS        Sherman      error
 #  (deg)                 (cm**2/sr)   (a0**2/sr)    function
 #----------------------------------------------------------------------
0.00000E+00 1.57406E-11
7.61557E-13 1.57392E-11
1.18994E-12 1.57384E-11
1.71346E-12 1.57375E-11
2.33225E-12 1.57364E-11
3.04617E-12 1.57351E-11
3.85530E-12 1.57336E-11
4.75964E-12 1.57320E-11
5.75917E-12 1.57302E-11
6.85391E-12 1.57282E-11
8.04379E-12 1.57261E-11
9.32893E-12 1.57238E-11
1.07092E-11 1.57213E-11
1.21847E-11 1.57186E-11
1.37554E-11 1.57158E-11
1.54213E-11 1.57128E-11
1.71823E-11 1.57097E-11
1.90386E-11 1.57063E-11
2.09900E-11 1.57028E-11
2.30367E-11 1.56992E-11
2.51785E-11 1.56953E-11
2.74156E-11 1.56913E-11
2.97478E-11 1.56871E-11
3.21752E-11 1.56828E-11
3.46979E-11 1.56783E-11
3.73157E-11 1.56736E-11
4.00286E-11 1.56687E-11
4.28368E-11 1.56637E-11
4.57402E-11 1.56585E-11
4.87388E-11 1.56532E-11
5.18325E-11 1.56477E-11
5.50215E-11 1.56420E-11
5.83057E-11 1.56361E-11
6.16850E-11 1.56301E-11
6.51595E-11 1.56239E-11
6.87293E-11 1.56176E-11
7.23943E-11 1.56111E-11
7.61544E-11 1.56044E-11
1.18991E-10 1.55287E-11
1.71347E-10 1.54370E-11
2.33223E-10 1.53297E-11
3.04617E-10 1.52075E-11
3.85531E-10 1.50709E-11
4.75965E-10 1.49207E-11
5.75917E-10 1.47575E-11
6.85389E-10 1.45821E-11
8.04380E-10 1.43954E-11
9.32891E-10 1.41982E-11
1.07092E-09 1.39914E-11
1.21847E-09 1.37759E-11
1.37554E-09 1.35528E-11
1.54213E-09 1.33245E-11
1.71823E-09 1.30890E-11
1.90386E-09 1.28469E-11
2.09900E-09 1.25990E-11
2.30367E-09 1.23520E-11
2.51785E-09 1.21014E-11
2.74156E-09 1.18472E-11
2.97478E-09 1.15902E-11
3.21752E-09 1.13362E-11
3.46978E-09 1.10830E-11
3.73156E-09 1.08288E-11
4.00286E-09 1.05741E-11
4.28368E-09 1.03232E-11
4.57402E-09 1.00773E-11
4.87388E-09 9.83229E-12
5.18326E-09 9.58852E-12
5.50215E-09 9.34841E-12
5.83057E-09 9.11681E-12
6.16850E-09 8.88736E-12
6.51596E-09 8.66034E-12
6.87293E-09 8.43615E-12
7.23942E-09 8.22304E-12
7.61544E-09 8.01288E-12
1.18991E-08 6.18045E-12
1.71347E-08 4.83036E-12
2.33223E-08 3.85400E-12
3.04617E-08 3.13940E-12
3.85531E-08 2.60292E-12
4.75965E-08 2.18723E-12
5.75917E-08 1.85623E-12
6.85389E-08 1.58620E-12
8.04380E-08 1.36307E-12
9.32891E-08 1.17636E-12
1.07092E-07 1.01897E-12
1.21847E-07 8.85949E-13
1.37554E-07 7.71771E-13
1.54213E-07 6.69748E-13
1.71823E-07 5.86977E-13
1.90386E-07 5.19156E-13
2.09900E-07 4.63066E-13
2.30367E-07 4.09318E-13
2.51785E-07 3.63780E-13
2.74156E-07 3.25540E-13
2.97478E-07 2.93194E-13
3.21752E-07 2.63409E-13
3.46978E-07 2.37022E-13
3.73156E-07 2.14409E-13
4.00286E-07 1.94920E-13
4.28368E-07 1.77257E-13
4.57402E-07 1.61063E-13
4.87388E-07 1.46959E-13
5.18325E-07 1.34618E-13
5.50215E-07 1.23545E-13
5.83057E-07 1.13102E-13
6.16850E-07 1.03887E-13
6.51596E-07 9.57264E-14
6.87293E-07 8.84659E-14
7.23942E-07 8.14763E-14
7.61543E-07 7.52434E-14
1.18991E-06 3.65414E-14
1.71347E-06 1.96437E-14
2.33223E-06 1.15426E-14
3.04617E-06 7.28879E-15
3.85531E-06 4.85503E-15
4.75964E-06 3.36689E-15
5.75916E-06 2.40977E-15
6.85388E-06 1.76645E-15
8.04378E-06 1.32189E-15
9.32888E-06 1.00756E-15
1.07092E-05 7.80772E-16
1.21846E-05 6.14037E-16
1.37553E-05 4.89250E-16
1.54212E-05 3.94531E-16
1.71822E-05 3.21908E-16
1.90385E-05 2.65173E-16
2.09899E-05 2.20577E-16
2.30365E-05 1.85075E-16
2.51783E-05 1.56342E-16
2.74153E-05 1.33015E-16
2.97475E-05 1.13868E-16
3.21749E-05 9.80450E-17
3.46974E-05 8.49152E-17
3.73152E-05 7.38916E-17
4.00281E-05 6.46274E-17
4.28362E-05 5.67678E-17
4.57395E-05 5.00678E-17
4.87380E-05 4.43323E-17
5.18317E-05 3.93823E-17
5.50205E-05 3.51087E-17
5.83045E-05 3.13943E-17
6.16838E-05 2.81590E-17
6.51582E-05 2.53317E-17
6.87277E-05 2.28478E-17
7.23925E-05 2.06638E-17
7.61524E-05 1.87328E-17
9.21439E-05 1.29363E-17
1.09658E-04 9.21433E-18
1.28695E-04 6.73955E-18
1.49255E-04 5.04166E-18
1.71338E-04 3.84648E-18
1.94942E-04 2.98548E-18
2.20070E-04 2.35259E-18
2.46720E-04 1.87906E-18
2.74892E-04 1.51904E-18
3.04586E-04 1.24139E-18
3.35803E-04 1.02447E-18
3.68542E-04 8.53009E-19
4.02802E-04 7.16029E-19
4.38585E-04 6.05528E-19
4.75889E-04 5.15585E-19
5.14715E-04 4.41769E-19
5.55063E-04 3.80733E-19
5.96931E-04 3.29902E-19
6.40321E-04 2.87296E-19
6.85233E-04 2.51367E-19
7.31665E-04 2.20893E-19
7.79618E-04 1.94912E-19
8.29092E-04 1.72649E-19
8.80086E-04 1.53482E-19
9.32601E-04 1.36910E-19
9.86636E-04 1.22520E-19
1.04219E-03 1.09977E-19
1.09927E-03 9.90034E-20
1.15786E-03 8.93682E-20
1.21797E-03 8.08805E-20
1.27961E-03 7.33797E-20
1.34276E-03 6.67312E-20
1.40743E-03 6.08210E-20
1.47362E-03 5.55531E-20
1.54133E-03 5.08452E-20
1.61056E-03 4.66273E-20
1.68131E-03 4.28394E-20
1.75357E-03 3.94299E-20
1.82735E-03 3.63542E-20
1.90265E-03 3.35737E-20
1.97947E-03 3.10552E-20
2.05780E-03 2.87694E-20
2.13765E-03 2.66910E-20
2.21902E-03 2.47977E-20
2.30190E-03 2.30702E-20
2.38630E-03 2.14911E-20
2.47222E-03 2.00456E-20
2.55965E-03 1.87202E-20
2.64859E-03 1.75030E-20
2.73905E-03 1.63837E-20
2.83103E-03 1.53530E-20
2.92452E-03 1.44025E-20
3.01952E-03 1.35248E-20
3.11604E-03 1.27133E-20
3.21407E-03 1.19622E-20
3.31362E-03 1.12661E-20
3.41468E-03 1.06202E-20
3.51725E-03 1.00202E-20
3.62133E-03 9.46224E-21
3.72692E-03 8.94286E-21
3.83403E-03 8.45887E-21
3.94265E-03 8.00741E-21
4.05278E-03 7.58588E-21
4.16442E-03 7.19192E-21
4.27757E-03 6.82340E-21
4.39223E-03 6.47835E-21
4.50840E-03 6.15501E-21
4.62608E-03 5.85175E-21
4.74527E-03 5.56708E-21
4.86597E-03 5.29965E-21
4.98817E-03 5.04822E-21
5.11188E-03 4.81165E-21
5.23711E-03 4.58889E-21
5.36383E-03 4.37899E-21
5.49207E-03 4.18105E-21
5.62181E-03 3.99427E-21
5.75306E-03 3.81790E-21
5.88581E-03 3.65125E-21
6.02007E-03 3.49368E-21
6.15583E-03 3.34459E-21
6.29310E-03 3.20345E-21
6.43187E-03 3.06975E-21
6.57214E-03 2.94302E-21
6.71392E-03 2.82283E-21
6.85720E-03 2.70877E-21
7.00198E-03 2.60047E-21
7.14827E-03 2.49759E-21
7.29605E-03 2.39980E-21
7.44534E-03 2.30681E-21
7.59612E-03 2.21832E-21
7.97965E-03 2.01516E-21
8.37255E-03 1.83497E-21
8.77480E-03 1.67469E-21
9.18641E-03 1.53173E-21
9.60736E-03 1.40388E-21
1.00376E-02 1.28924E-21
1.04773E-02 1.18622E-21
1.09262E-02 1.09340E-21
1.13844E-02 1.00960E-21
1.18520E-02 9.33786E-22
1.23288E-02 8.65048E-22
1.28150E-02 8.02605E-22
1.33104E-02 7.45774E-22
1.38150E-02 6.93955E-22
1.43290E-02 6.46624E-22
1.48521E-02 6.03319E-22
1.53845E-02 5.63633E-22
1.59262E-02 5.27208E-22
1.64770E-02 4.93723E-22
1.70371E-02 4.62897E-22
1.76063E-02 4.34477E-22
1.81848E-02 4.08240E-22
1.87724E-02 3.83988E-22
1.93692E-02 3.61540E-22
1.99751E-02 3.40736E-22
2.05901E-02 3.21433E-22
2.12143E-02 3.03501E-22
2.18476E-02 2.86825E-22
2.24900E-02 2.71299E-22
2.31415E-02 2.56828E-22
2.38021E-02 2.43327E-22
2.44717E-02 2.30718E-22
2.51504E-02 2.18930E-22
2.58382E-02 2.07900E-22
2.65349E-02 1.97569E-22
2.72407E-02 1.87884E-22
2.79555E-02 1.78796E-22
2.86793E-02 1.70263E-22
2.94120E-02 1.62242E-22
3.01537E-02 1.54697E-22
3.09043E-02 1.47595E-22
3.16639E-02 1.40904E-22
3.24324E-02 1.34595E-22
3.32098E-02 1.28643E-22
3.39961E-02 1.23023E-22
3.47912E-02 1.17712E-22
3.55952E-02 1.12691E-22
3.64081E-02 1.07941E-22
3.72297E-02 1.03443E-22
3.80602E-02 9.91823E-23
3.88995E-02 9.51433E-23
3.97476E-02 9.13121E-23
4.06044E-02 8.76758E-23
4.14700E-02 8.42225E-23
4.23443E-02 8.09412E-23
4.32273E-02 7.78216E-23
4.41190E-02 7.48542E-23
4.50194E-02 7.20298E-23
4.59284E-02 6.93401E-23
4.68461E-02 6.67775E-23
4.87074E-02 6.20053E-23
5.06030E-02 5.76604E-23
5.25328E-02 5.36972E-23
5.44967E-02 5.00757E-23
5.64946E-02 4.67605E-23
5.85262E-02 4.37209E-23
6.05914E-02 4.09291E-23
6.26901E-02 3.83612E-23
6.48222E-02 3.59955E-23
6.69873E-02 3.38130E-23
6.91854E-02 3.17967E-23
7.14163E-02 2.99314E-23
7.36799E-02 2.82035E-23
7.59760E-02 2.66009E-23
7.83043E-02 2.51126E-23
8.06647E-02 2.37289E-23
8.30571E-02 2.24409E-23
8.54812E-02 2.12407E-23
8.79369E-02 2.01210E-23
9.04240E-02 1.90754E-23
9.29422E-02 1.80980E-23
9.54915E-02 1.71835E-23
9.80716E-02 1.63269E-23
1.00682E-01 1.55238E-23
1.03323E-01 1.47702E-23
1.05995E-01 1.40625E-23
1.08696E-01 1.33973E-23
1.11427E-01 1.27714E-23
1.14188E-01 1.21822E-23
1.16978E-01 1.16270E-23
1.19797E-01 1.11034E-23
1.22645E-01 1.06093E-23
1.25522E-01 1.01426E-23
1.28428E-01 9.70163E-24
1.31361E-01 9.28457E-24
1.34323E-01 8.88988E-24
1.37313E-01 8.51611E-24
1.40330E-01 8.16192E-24
1.43375E-01 7.82602E-24
1.46447E-01 7.50732E-24
1.49545E-01 7.20477E-24
1.52671E-01 6.91736E-24
1.55823E-01 6.64420E-24
1.59001E-01 6.38442E-24
1.62205E-01 6.13725E-24
1.65435E-01 5.90193E-24
1.68690E-01 5.67778E-24
1.71970E-01 5.46417E-24
1.75276E-01 5.26049E-24
1.78606E-01 5.06620E-24
1.81961E-01 4.88076E-24
1.85340E-01 4.70369E-24
1.88743E-01 4.53455E-24
1.92169E-01 4.37289E-24
1.95619E-01 4.21832E-24
1.99092E-01 4.07046E-24
2.02589E-01 3.92897E-24
2.06107E-01 3.79351E-24
2.09649E-01 3.66378E-24
2.13212E-01 3.53948E-24
2.16797E-01 3.42034E-24
2.20404E-01 3.30609E-24
2.24032E-01 3.19651E-24
2.27680E-01 3.09136E-24
2.31350E-01 2.99042E-24
2.35040E-01 2.89349E-24
2.38751E-01 2.80038E-24
2.42481E-01 2.71090E-24
2.46231E-01 2.62490E-24
2.50000E-01 2.54220E-24
2.53788E-01 2.46266E-24
2.57595E-01 2.38612E-24
2.61421E-01 2.31245E-24
2.65264E-01 2.24153E-24
2.69126E-01 2.17323E-24
2.73005E-01 2.10743E-24
2.76901E-01 2.04402E-24
2.80814E-01 1.98291E-24
2.84744E-01 1.92398E-24
2.88691E-01 1.86715E-24
2.92653E-01 1.81232E-24
2.96632E-01 1.75942E-24
3.00625E-01 1.70836E-24
3.04634E-01 1.65906E-24
3.08658E-01 1.61146E-24
3.12697E-01 1.56547E-24
3.16749E-01 1.52105E-24
3.20816E-01 1.47811E-24
3.24896E-01 1.43661E-24
3.28990E-01 1.39648E-24
3.33097E-01 1.35768E-24
3.37216E-01 1.32014E-24
3.41348E-01 1.28382E-24
3.45492E-01 1.24868E-24
3.49647E-01 1.21466E-24
3.53814E-01 1.18173E-24
3.57992E-01 1.14984E-24
3.62181E-01 1.11895E-24
3.66381E-01 1.08903E-24
3.70590E-01 1.06004E-24
3.74810E-01 1.03195E-24
3.79039E-01 1.00471E-24
3.83277E-01 9.78314E-25
3.87524E-01 9.52714E-25
3.91780E-01 9.27886E-25
3.96044E-01 9.03802E-25
4.00316E-01 8.80437E-25
4.04596E-01 8.57764E-25
4.08882E-01 8.35760E-25
4.13176E-01 8.14400E-25
4.17476E-01 7.93663E-25
4.21783E-01 7.73526E-25
4.26095E-01 7.53971E-25
4.30413E-01 7.34975E-25
4.34737E-01 7.16522E-25
4.39065E-01 6.98591E-25
4.43398E-01 6.81167E-25
4.47736E-01 6.64231E-25
4.52077E-01 6.47768E-25
4.56422E-01 6.31762E-25
4.60770E-01 6.16199E-25
4.65122E-01 6.01063E-25
4.69476E-01 5.86341E-25
4.73832E-01 5.72020E-25
4.78190E-01 5.58087E-25
4.82550E-01 5.44529E-25
4.86912E-01 5.31335E-25
4.91274E-01 5.18492E-25
4.95637E-01 5.05991E-25
5.00000E-01 4.93821E-25
5.04363E-01 4.81970E-25
5.08726E-01 4.70430E-25
5.13088E-01 4.59191E-25
5.17450E-01 4.48243E-25
5.21810E-01 4.37578E-25
5.26168E-01 4.27188E-25
5.30524E-01 4.17063E-25
5.34878E-01 4.07197E-25
5.39230E-01 3.97581E-25
5.43578E-01 3.88208E-25
5.47923E-01 3.79070E-25
5.52264E-01 3.70162E-25
5.56602E-01 3.61476E-25
5.60935E-01 3.53006E-25
5.65263E-01 3.44745E-25
5.69587E-01 3.36688E-25
5.73905E-01 3.28829E-25
5.78217E-01 3.21161E-25
5.82524E-01 3.13681E-25
5.86824E-01 3.06382E-25
5.91118E-01 2.99259E-25
5.95404E-01 2.92308E-25
5.99684E-01 2.85523E-25
6.03956E-01 2.78901E-25
6.08220E-01 2.72436E-25
6.12476E-01 2.66124E-25
6.16723E-01 2.59962E-25
6.20961E-01 2.53944E-25
6.25190E-01 2.48068E-25
6.29410E-01 2.42329E-25
6.33619E-01 2.36724E-25
6.37819E-01 2.31249E-25
6.42008E-01 2.25900E-25
6.46186E-01 2.20675E-25
6.50353E-01 2.15570E-25
6.54508E-01 2.10582E-25
6.58652E-01 2.05708E-25
6.62784E-01 2.00944E-25
6.66903E-01 1.96289E-25
6.71010E-01 1.91739E-25
6.75104E-01 1.87292E-25
6.79184E-01 1.82945E-25
6.83251E-01 1.78695E-25
6.87303E-01 1.74540E-25
6.91342E-01 1.70478E-25
6.95366E-01 1.66506E-25
6.99375E-01 1.62622E-25
7.03368E-01 1.58824E-25
7.07347E-01 1.55110E-25
7.11309E-01 1.51477E-25
7.15256E-01 1.47924E-25
7.19186E-01 1.44449E-25
7.23099E-01 1.41050E-25
7.26995E-01 1.37724E-25
7.30874E-01 1.34471E-25
7.34736E-01 1.31288E-25
7.38579E-01 1.28175E-25
7.42405E-01 1.25128E-25
7.46212E-01 1.22147E-25
7.50000E-01 1.19230E-25
7.53769E-01 1.16376E-25
7.57519E-01 1.13582E-25
7.61249E-01 1.10848E-25
7.64960E-01 1.08173E-25
7.68650E-01 1.05555E-25
7.72320E-01 1.02992E-25
7.75968E-01 1.00483E-25
7.79596E-01 9.80280E-26
7.83203E-01 9.56246E-26
7.86788E-01 9.32720E-26
7.90351E-01 9.09689E-26
7.93893E-01 8.87144E-26
7.97411E-01 8.65073E-26
8.00908E-01 8.43466E-26
8.04381E-01 8.22313E-26
8.07831E-01 8.01603E-26
8.11257E-01 7.81328E-26
8.14660E-01 7.61477E-26
8.18039E-01 7.42041E-26
8.21394E-01 7.23012E-26
8.24724E-01 7.04381E-26
8.28030E-01 6.86139E-26
8.31310E-01 6.68278E-26
8.34565E-01 6.50791E-26
8.37795E-01 6.33668E-26
8.40999E-01 6.16903E-26
8.44177E-01 6.00488E-26
8.47329E-01 5.84417E-26
8.50455E-01 5.68681E-26
8.53553E-01 5.53274E-26
8.56625E-01 5.38190E-26
8.59670E-01 5.23422E-26
8.62687E-01 5.08963E-26
8.65677E-01 4.94807E-26
8.68639E-01 4.80949E-26
8.71572E-01 4.67383E-26
8.74478E-01 4.54102E-26
8.77355E-01 4.41101E-26
8.80203E-01 4.28376E-26
8.83022E-01 4.15919E-26
8.85812E-01 4.03727E-26
8.88573E-01 3.91794E-26
8.91304E-01 3.80116E-26
8.94005E-01 3.68688E-26
8.96677E-01 3.57504E-26
8.99318E-01 3.46561E-26
9.01928E-01 3.35854E-26
9.04508E-01 3.25379E-26
9.07058E-01 3.15131E-26
9.09576E-01 3.05107E-26
9.12063E-01 2.95302E-26
9.14519E-01 2.85714E-26
9.16943E-01 2.76337E-26
9.19335E-01 2.67168E-26
9.21696E-01 2.58204E-26
9.24024E-01 2.49441E-26
9.26320E-01 2.40876E-26
9.28584E-01 2.32505E-26
9.30815E-01 2.24325E-26
9.33013E-01 2.16334E-26
9.35178E-01 2.08528E-26
9.37310E-01 2.00904E-26
9.39409E-01 1.93459E-26
9.41474E-01 1.86190E-26
9.43505E-01 1.79095E-26
9.45503E-01 1.72171E-26
9.47467E-01 1.65415E-26
9.49397E-01 1.58826E-26
9.51293E-01 1.52399E-26
9.53154E-01 1.46134E-26
9.54981E-01 1.40027E-26
9.56773E-01 1.34077E-26
9.58530E-01 1.28281E-26
9.60252E-01 1.22637E-26
9.61940E-01 1.17144E-26
9.63592E-01 1.11798E-26
9.65209E-01 1.06599E-26
9.66790E-01 1.01543E-26
9.68336E-01 9.66305E-27
9.69846E-01 9.18583E-27
9.71321E-01 8.72250E-27
9.72759E-01 8.27290E-27
9.74162E-01 7.83686E-27
9.75528E-01 7.41423E-27
9.76858E-01 7.00486E-27
9.78152E-01 6.60860E-27
9.79410E-01 6.22531E-27
9.80631E-01 5.85485E-27
9.81815E-01 5.49710E-27
9.82963E-01 5.15193E-27
9.84074E-01 4.81921E-27
9.85148E-01 4.49883E-27
9.86185E-01 4.19067E-27
9.87185E-01 3.89464E-27
9.88148E-01 3.61062E-27
9.89074E-01 3.33851E-27
9.89962E-01 3.07822E-27
9.90814E-01 2.82966E-27
9.91627E-01 2.59275E-27
9.92404E-01 2.36739E-27
9.93143E-01 2.15352E-27
9.93844E-01 1.95105E-27
9.94508E-01 1.75992E-27
9.95134E-01 1.58006E-27
9.95722E-01 1.41141E-27
9.96273E-01 1.25391E-27
9.96786E-01 1.10751E-27
9.97261E-01 9.72150E-28
9.97698E-01 8.47792E-28
9.98097E-01 7.34390E-28
9.98459E-01 6.31906E-28
9.98782E-01 5.40304E-28
9.99067E-01 4.59552E-28
9.99315E-01 3.89624E-28
9.99524E-01 3.30494E-28
9.99695E-01 2.82142E-28
9.99829E-01 2.44553E-28
9.99924E-01 2.17713E-28
9.99981E-01 2.01612E-28
1.00000E+00 1.96246E-28
