 #
 # Subroutine ELSEPA. Elastic scattering of electrons and positrons
 #                    by neutral atoms and positive ions
 #
 # Projectile: electron
 # Kinetic energy = 1.75000E+08 eV = 6.43113E+06 a.u.
 #
 # WARNING: High-energy factorization with free-atom DF screening.
 #          Absorption, polarization and exchange corrections are
 #          switched off.
 #          Phase shifts are calculated for the bare nucleus.
 #          Scattering amplitudes are not evaluated.
 #
 # Element: Sm,  Z =  62,  atomic weight = 1.50360E+02 g/mol
 #
 # Nuclear model: Fermi distribution
 #                Average radius = 5.68977E-13 cm
 #                Skin thickness = 5.46000E-14 cm
 #
 # Number of electrons = 62
 #
 # Total elastic cross section = 7.22756E-18 cm**2 = 2.58101E-01 a0**2
 # 1st transport cross section = 2.42463E-25 cm**2 = 8.65852E-09 a0**2
 # 2nd transport cross section = 7.25292E-25 cm**2 = 2.59007E-08 a0**2
 #
 #
 # Differential cross section:                       MU=(1-COS(THETA))/2
 #
 #  THETA        MU          DCS          DCS        Sherman      error
 #  (deg)                 (cm**2/sr)   (a0**2/sr)    function
 #----------------------------------------------------------------------
0.00000E+00 2.86424E-09
7.61557E-13 2.81932E-09
1.18994E-12 2.79458E-09
1.71346E-12 2.76483E-09
2.33225E-12 2.73034E-09
3.04617E-12 2.69142E-09
3.85530E-12 2.64842E-09
4.75964E-12 2.60170E-09
5.75917E-12 2.55165E-09
6.85391E-12 2.49865E-09
8.04379E-12 2.44340E-09
9.32893E-12 2.38601E-09
1.07092E-11 2.32643E-09
1.21847E-11 2.26559E-09
1.37554E-11 2.20426E-09
1.54213E-11 2.14173E-09
1.71823E-11 2.07877E-09
1.90386E-11 2.01665E-09
2.09900E-11 1.95417E-09
2.30367E-11 1.89182E-09
2.51785E-11 1.83141E-09
2.74156E-11 1.77128E-09
2.97478E-11 1.71162E-09
3.21752E-11 1.65467E-09
3.46979E-11 1.59847E-09
3.73157E-11 1.54311E-09
4.00286E-11 1.49046E-09
4.28368E-11 1.43908E-09
4.57402E-11 1.38877E-09
4.87388E-11 1.34096E-09
5.18325E-11 1.29477E-09
5.50215E-11 1.24974E-09
5.83057E-11 1.20691E-09
6.16850E-11 1.16587E-09
6.51595E-11 1.12601E-09
6.87293E-11 1.08799E-09
7.23943E-11 1.05183E-09
7.61544E-11 1.01678E-09
1.18991E-10 7.40286E-10
1.71347E-10 5.60198E-10
2.33223E-10 4.37285E-10
3.04617E-10 3.48721E-10
3.85531E-10 2.82023E-10
4.75965E-10 2.30285E-10
5.75917E-10 1.89383E-10
6.85389E-10 1.56772E-10
8.04380E-10 1.29703E-10
9.32891E-10 1.08152E-10
1.07092E-09 9.17085E-11
1.21847E-09 7.82142E-11
1.37554E-09 6.65531E-11
1.54213E-09 5.73478E-11
1.71823E-09 4.97814E-11
1.90386E-09 4.31123E-11
2.09900E-09 3.76983E-11
2.30367E-09 3.32083E-11
2.51785E-09 2.91574E-11
2.74156E-09 2.57948E-11
2.97478E-09 2.29807E-11
3.21752E-09 2.03925E-11
3.46978E-09 1.82034E-11
3.73156E-09 1.63415E-11
4.00286E-09 1.46386E-11
4.28368E-09 1.31623E-11
4.57402E-09 1.18899E-11
4.87388E-09 1.07342E-11
5.18326E-09 9.71310E-12
5.50215E-09 8.82309E-12
5.83057E-09 8.01943E-12
6.16850E-09 7.29965E-12
6.51596E-09 6.66609E-12
6.87293E-09 6.09582E-12
7.23942E-09 5.58027E-12
7.61544E-09 5.12250E-12
1.18991E-08 2.37940E-12
1.71347E-08 1.26909E-12
2.33223E-08 7.44807E-13
3.04617E-08 4.66953E-13
3.85531E-08 3.06789E-13
4.75965E-08 2.09100E-13
5.75917E-08 1.47120E-13
6.85389E-08 1.06381E-13
8.04380E-08 7.87327E-14
9.32891E-08 5.95743E-14
1.07092E-07 4.59204E-14
1.21847E-07 3.59535E-14
1.37554E-07 2.85644E-14
1.54213E-07 2.29874E-14
1.71823E-07 1.87117E-14
1.90386E-07 1.53882E-14
2.09900E-07 1.27681E-14
2.30367E-07 1.06838E-14
2.51785E-07 9.00851E-15
2.74156E-07 7.64928E-15
2.97478E-07 6.53682E-15
3.21752E-07 5.61829E-15
3.46978E-07 4.85551E-15
3.73156E-07 4.21780E-15
4.00286E-07 3.68130E-15
4.28368E-07 3.22731E-15
4.57402E-07 2.84075E-15
4.87388E-07 2.51032E-15
5.18325E-07 2.22650E-15
5.50215E-07 1.98163E-15
5.83057E-07 1.76945E-15
6.16850E-07 1.58478E-15
6.51596E-07 1.42357E-15
6.87293E-07 1.28232E-15
7.23942E-07 1.15815E-15
7.61543E-07 1.04864E-15
1.18991E-06 4.35826E-16
1.71347E-06 2.12236E-16
2.33223E-06 1.15393E-16
3.04617E-06 6.80237E-17
3.85531E-06 4.26576E-17
4.75964E-06 2.80888E-17
5.75916E-06 1.92413E-17
6.85388E-06 1.36184E-17
8.04378E-06 9.90700E-18
9.32888E-06 7.37788E-18
1.07092E-05 5.60655E-18
1.21846E-05 4.33618E-18
1.37553E-05 3.40603E-18
1.54212E-05 2.71240E-18
1.71822E-05 2.18666E-18
1.90385E-05 1.78156E-18
2.09899E-05 1.46736E-18
2.30365E-05 1.21933E-18
2.51783E-05 1.02134E-18
2.74153E-05 8.61773E-19
2.97475E-05 7.32101E-19
3.21749E-05 6.25921E-19
3.46974E-05 5.38352E-19
3.73152E-05 4.65630E-19
4.00281E-05 4.04826E-19
4.28362E-05 3.53653E-19
4.57395E-05 3.10318E-19
4.87380E-05 2.73410E-19
5.18317E-05 2.41816E-19
5.50205E-05 2.14647E-19
5.83045E-05 1.91185E-19
6.16838E-05 1.70845E-19
6.51582E-05 1.53145E-19
6.87277E-05 1.37685E-19
7.23925E-05 1.24133E-19
7.61524E-05 1.12481E-19
9.21439E-05 7.69362E-20
1.09658E-04 5.43943E-20
1.28695E-04 3.95475E-20
1.49255E-04 2.94407E-20
1.71338E-04 2.23710E-20
1.94942E-04 1.73038E-20
2.20070E-04 1.35955E-20
2.46720E-04 1.08310E-20
2.74892E-04 8.73570E-21
3.04586E-04 7.12437E-21
3.35803E-04 5.86853E-21
3.68542E-04 4.87810E-21
4.02802E-04 4.08841E-21
4.38585E-04 3.45250E-21
4.75889E-04 2.93577E-21
5.14715E-04 2.51233E-21
5.55063E-04 2.16268E-21
5.96931E-04 1.87188E-21
6.40321E-04 1.62842E-21
6.85233E-04 1.42334E-21
7.31665E-04 1.24959E-21
7.79618E-04 1.10158E-21
8.29092E-04 9.74851E-22
8.80086E-04 8.65843E-22
9.32601E-04 7.71659E-22
9.86636E-04 6.89940E-22
1.04219E-03 6.18756E-22
1.09927E-03 5.56515E-22
1.15786E-03 5.01901E-22
1.21797E-03 4.53817E-22
1.27961E-03 4.11348E-22
1.34276E-03 3.73723E-22
1.40743E-03 3.40295E-22
1.47362E-03 3.10511E-22
1.54133E-03 2.83907E-22
1.61056E-03 2.60081E-22
1.68131E-03 2.38694E-22
1.75357E-03 2.19451E-22
1.82735E-03 2.02099E-22
1.90265E-03 1.86420E-22
1.97947E-03 1.72223E-22
2.05780E-03 1.59344E-22
2.13765E-03 1.47638E-22
2.21902E-03 1.36979E-22
2.30190E-03 1.27257E-22
2.38630E-03 1.18375E-22
2.47222E-03 1.10248E-22
2.55965E-03 1.02799E-22
2.64859E-03 9.59621E-23
2.73905E-03 8.96778E-23
2.83103E-03 8.38934E-23
2.92452E-03 7.85621E-23
3.01952E-03 7.36420E-23
3.11604E-03 6.90956E-23
3.21407E-03 6.48895E-23
3.31362E-03 6.09937E-23
3.41468E-03 5.73811E-23
3.51725E-03 5.40274E-23
3.62133E-03 5.09109E-23
3.72692E-03 4.80116E-23
3.83403E-03 4.53118E-23
3.94265E-03 4.27953E-23
4.05278E-03 4.04474E-23
4.16442E-03 3.82548E-23
4.27757E-03 3.62053E-23
4.39223E-03 3.42880E-23
4.50840E-03 3.24929E-23
4.62608E-03 3.08107E-23
4.74527E-03 2.92331E-23
4.86597E-03 2.77524E-23
4.98817E-03 2.63617E-23
5.11188E-03 2.50544E-23
5.23711E-03 2.38248E-23
5.36383E-03 2.26673E-23
5.49207E-03 2.15771E-23
5.62181E-03 2.05494E-23
5.75306E-03 1.95802E-23
5.88581E-03 1.86654E-23
6.02007E-03 1.78015E-23
6.15583E-03 1.69852E-23
6.29310E-03 1.62134E-23
6.43187E-03 1.54832E-23
6.57214E-03 1.47921E-23
6.71392E-03 1.41375E-23
6.85720E-03 1.35172E-23
7.00198E-03 1.29291E-23
7.14827E-03 1.23712E-23
7.29605E-03 1.18417E-23
7.44534E-03 1.13390E-23
7.59612E-03 1.08614E-23
7.97965E-03 9.76809E-24
8.37255E-03 8.80256E-24
8.77480E-03 7.94762E-24
9.18641E-03 7.18867E-24
9.60736E-03 6.51332E-24
1.00376E-02 5.91097E-24
1.04773E-02 5.37257E-24
1.09262E-02 4.89031E-24
1.13844E-02 4.45750E-24
1.18520E-02 4.06834E-24
1.23288E-02 3.71778E-24
1.28150E-02 3.40146E-24
1.33104E-02 3.11557E-24
1.38150E-02 2.85677E-24
1.43290E-02 2.62214E-24
1.48521E-02 2.40913E-24
1.53845E-02 2.21548E-24
1.59262E-02 2.03919E-24
1.64770E-02 1.87851E-24
1.70371E-02 1.73188E-24
1.76063E-02 1.59792E-24
1.81848E-02 1.47539E-24
1.87724E-02 1.36321E-24
1.93692E-02 1.26039E-24
1.99751E-02 1.16606E-24
2.05901E-02 1.07945E-24
2.12143E-02 9.99836E-25
2.18476E-02 9.26603E-25
2.24900E-02 8.59181E-25
2.31415E-02 7.97061E-25
2.38021E-02 7.39781E-25
2.44717E-02 6.86927E-25
2.51504E-02 6.38121E-25
2.58382E-02 5.93024E-25
2.65349E-02 5.51327E-25
2.72407E-02 5.12750E-25
2.79555E-02 4.77038E-25
2.86793E-02 4.43960E-25
2.94120E-02 4.13305E-25
3.01537E-02 3.84880E-25
3.09043E-02 3.58511E-25
3.16639E-02 3.34036E-25
3.24324E-02 3.11309E-25
3.32098E-02 2.90197E-25
3.39961E-02 2.70576E-25
3.47912E-02 2.52333E-25
3.55952E-02 2.35366E-25
3.64081E-02 2.19580E-25
3.72297E-02 2.04886E-25
3.80602E-02 1.91206E-25
3.88995E-02 1.78465E-25
3.97476E-02 1.66595E-25
4.06044E-02 1.55533E-25
4.14700E-02 1.45222E-25
4.23443E-02 1.35609E-25
4.32273E-02 1.26643E-25
4.41190E-02 1.18279E-25
4.50194E-02 1.10476E-25
4.59284E-02 1.03194E-25
4.68461E-02 9.63975E-26
4.87074E-02 8.41282E-26
5.06030E-02 7.34291E-26
5.25328E-02 6.40941E-26
5.44967E-02 5.59458E-26
5.64946E-02 4.88307E-26
5.85262E-02 4.26161E-26
6.05914E-02 3.71870E-26
6.26901E-02 3.24435E-26
6.48222E-02 2.82987E-26
6.69873E-02 2.46773E-26
6.91854E-02 2.15135E-26
7.14163E-02 1.87497E-26
7.36799E-02 1.63361E-26
7.59760E-02 1.42289E-26
7.83043E-02 1.23897E-26
8.06647E-02 1.07851E-26
8.30571E-02 9.38595E-27
8.54812E-02 8.16645E-27
8.79369E-02 7.10415E-27
9.04240E-02 6.17935E-27
9.29422E-02 5.37478E-27
9.54915E-02 4.67528E-27
9.80716E-02 4.06758E-27
1.00682E-01 3.54002E-27
1.03323E-01 3.08239E-27
1.05995E-01 2.68572E-27
1.08696E-01 2.34217E-27
1.11427E-01 2.04485E-27
1.14188E-01 1.78774E-27
1.16978E-01 1.56557E-27
1.19797E-01 1.37370E-27
1.22645E-01 1.20812E-27
1.25522E-01 1.06528E-27
1.28428E-01 9.42107E-28
1.31361E-01 8.35916E-28
1.34323E-01 7.44366E-28
1.37313E-01 6.65417E-28
1.40330E-01 5.97300E-28
1.43375E-01 5.38477E-28
1.46447E-01 4.87615E-28
1.49545E-01 4.43561E-28
1.52671E-01 4.05318E-28
1.55823E-01 3.72027E-28
1.59001E-01 3.42949E-28
1.62205E-01 3.17450E-28
1.65435E-01 2.94985E-28
1.68690E-01 2.75089E-28
1.71970E-01 2.57367E-28
1.75276E-01 2.41483E-28
1.78606E-01 2.27151E-28
1.81961E-01 2.14130E-28
1.85340E-01 2.02220E-28
1.88743E-01 1.91250E-28
1.92169E-01 1.81079E-28
1.95619E-01 1.71590E-28
1.99092E-01 1.62687E-28
2.02589E-01 1.54290E-28
2.06107E-01 1.46334E-28
2.09649E-01 1.38767E-28
2.13212E-01 1.31545E-28
2.16797E-01 1.24637E-28
2.20404E-01 1.18014E-28
2.24032E-01 1.11656E-28
2.27680E-01 1.05546E-28
2.31350E-01 9.96707E-29
2.35040E-01 9.40211E-29
2.38751E-01 8.85893E-29
2.42481E-01 8.33694E-29
2.46231E-01 7.83568E-29
2.50000E-01 7.35476E-29
2.53788E-01 6.89387E-29
2.57595E-01 6.45273E-29
2.61421E-01 6.03107E-29
2.65264E-01 5.62863E-29
2.69126E-01 5.24512E-29
2.73005E-01 4.88024E-29
2.76901E-01 4.53368E-29
2.80814E-01 4.20508E-29
2.84744E-01 3.89407E-29
2.88691E-01 3.60023E-29
2.92653E-01 3.32313E-29
2.96632E-01 3.06229E-29
3.00625E-01 2.81723E-29
3.04634E-01 2.58743E-29
3.08658E-01 2.37235E-29
3.12697E-01 2.17144E-29
3.16749E-01 1.98414E-29
3.20816E-01 1.80987E-29
3.24896E-01 1.64806E-29
3.28990E-01 1.49812E-29
3.33097E-01 1.35947E-29
3.37216E-01 1.23153E-29
3.41348E-01 1.11372E-29
3.45492E-01 1.00547E-29
3.49647E-01 9.06238E-30
3.53814E-01 8.15472E-30
3.57992E-01 7.32642E-30
3.62181E-01 6.57235E-30
3.66381E-01 5.88752E-30
3.70590E-01 5.26715E-30
3.74810E-01 4.70661E-30
3.79039E-01 4.20149E-30
3.83277E-01 3.74757E-30
3.87524E-01 3.34083E-30
3.91780E-01 2.97746E-30
3.96044E-01 2.65383E-30
4.00316E-01 2.36653E-30
4.04596E-01 2.11236E-30
4.08882E-01 1.88829E-30
4.13176E-01 1.69150E-30
4.17476E-01 1.51935E-30
4.21783E-01 1.36938E-30
4.26095E-01 1.23930E-30
4.30413E-01 1.12701E-30
4.34737E-01 1.03055E-30
4.39065E-01 9.48129E-31
4.43398E-01 8.78087E-31
4.47736E-01 8.18918E-31
4.52077E-01 7.69242E-31
4.56422E-01 7.27808E-31
4.60770E-01 6.93478E-31
4.65122E-01 6.65228E-31
4.69476E-01 6.42134E-31
4.73832E-01 6.23371E-31
4.78190E-01 6.08201E-31
4.82550E-01 5.95970E-31
4.86912E-01 5.86100E-31
4.91274E-01 5.78083E-31
4.95637E-01 5.71476E-31
5.00000E-01 5.65895E-31
5.04363E-01 5.61010E-31
5.08726E-01 5.56540E-31
5.13088E-01 5.52247E-31
5.17450E-01 5.47935E-31
5.21810E-01 5.43442E-31
5.26168E-01 5.38638E-31
5.30524E-01 5.33422E-31
5.34878E-01 5.27718E-31
5.39230E-01 5.21473E-31
5.43578E-01 5.14651E-31
5.47923E-01 5.07233E-31
5.52264E-01 4.99217E-31
5.56602E-01 4.90610E-31
5.60935E-01 4.81431E-31
5.65263E-01 4.71706E-31
5.69587E-01 4.61469E-31
5.73905E-01 4.50758E-31
5.78217E-01 4.39618E-31
5.82524E-01 4.28094E-31
5.86824E-01 4.16234E-31
5.91118E-01 4.04088E-31
5.95404E-01 3.91705E-31
5.99684E-01 3.79134E-31
6.03956E-01 3.66425E-31
6.08220E-01 3.53624E-31
6.12476E-01 3.40778E-31
6.16723E-01 3.27929E-31
6.20961E-01 3.15119E-31
6.25190E-01 3.02388E-31
6.29410E-01 2.89770E-31
6.33619E-01 2.77301E-31
6.37819E-01 2.65012E-31
6.42008E-01 2.52929E-31
6.46186E-01 2.41079E-31
6.50353E-01 2.29485E-31
6.54508E-01 2.18166E-31
6.58652E-01 2.07139E-31
6.62784E-01 1.96421E-31
6.66903E-01 1.86023E-31
6.71010E-01 1.75955E-31
6.75104E-01 1.66226E-31
6.79184E-01 1.56841E-31
6.83251E-01 1.47806E-31
6.87303E-01 1.39121E-31
6.91342E-01 1.30789E-31
6.95366E-01 1.22807E-31
6.99375E-01 1.15175E-31
7.03368E-01 1.07888E-31
7.07347E-01 1.00941E-31
7.11309E-01 9.43305E-32
7.15256E-01 8.80484E-32
7.19186E-01 8.20879E-32
7.23099E-01 7.64409E-32
7.26995E-01 7.10991E-32
7.30874E-01 6.60533E-32
7.34736E-01 6.12941E-32
7.38579E-01 5.68119E-32
7.42405E-01 5.25966E-32
7.46212E-01 4.86380E-32
7.50000E-01 4.49259E-32
7.53769E-01 4.14499E-32
7.57519E-01 3.81998E-32
7.61249E-01 3.51653E-32
7.64960E-01 3.23361E-32
7.68650E-01 2.97022E-32
7.72320E-01 2.72537E-32
7.75968E-01 2.49811E-32
7.79596E-01 2.28747E-32
7.83203E-01 2.09253E-32
7.86788E-01 1.91241E-32
7.90351E-01 1.74622E-32
7.93893E-01 1.59314E-32
7.97411E-01 1.45236E-32
8.00908E-01 1.32309E-32
8.04381E-01 1.20459E-32
8.07831E-01 1.09614E-32
8.11257E-01 9.97065E-33
8.14660E-01 9.06708E-33
8.18039E-01 8.24451E-33
8.21394E-01 7.49703E-33
8.24724E-01 6.81907E-33
8.28030E-01 6.20532E-33
8.31310E-01 5.65079E-33
8.34565E-01 5.15079E-33
8.37795E-01 4.70086E-33
8.40999E-01 4.29685E-33
8.44177E-01 3.93486E-33
8.47329E-01 3.61123E-33
8.50455E-01 3.32254E-33
8.53553E-01 3.06561E-33
8.56625E-01 2.83748E-33
8.59670E-01 2.63538E-33
8.62687E-01 2.45677E-33
8.65677E-01 2.29928E-33
8.68639E-01 2.16072E-33
8.71572E-01 2.03909E-33
8.74478E-01 1.93253E-33
8.77355E-01 1.83933E-33
8.80203E-01 1.75795E-33
8.83022E-01 1.68696E-33
8.85812E-01 1.62506E-33
8.88573E-01 1.57107E-33
8.91304E-01 1.52393E-33
8.94005E-01 1.48267E-33
8.96677E-01 1.44642E-33
8.99318E-01 1.41440E-33
9.01928E-01 1.38591E-33
9.04508E-01 1.36032E-33
9.07058E-01 1.33707E-33
9.09576E-01 1.31569E-33
9.12063E-01 1.29574E-33
9.14519E-01 1.27685E-33
9.16943E-01 1.25868E-33
9.19335E-01 1.24095E-33
9.21696E-01 1.22344E-33
9.24024E-01 1.20593E-33
9.26320E-01 1.18825E-33
9.28584E-01 1.17027E-33
9.30815E-01 1.15188E-33
9.33013E-01 1.13299E-33
9.35178E-01 1.11352E-33
9.37310E-01 1.09345E-33
9.39409E-01 1.07274E-33
9.41474E-01 1.05138E-33
9.43505E-01 1.02936E-33
9.45503E-01 1.00669E-33
9.47467E-01 9.83406E-34
9.49397E-01 9.59525E-34
9.51293E-01 9.35087E-34
9.53154E-01 9.10132E-34
9.54981E-01 8.84707E-34
9.56773E-01 8.58862E-34
9.58530E-01 8.32649E-34
9.60252E-01 8.06124E-34
9.61940E-01 7.79343E-34
9.63592E-01 7.52364E-34
9.65209E-01 7.25244E-34
9.66790E-01 6.98040E-34
9.68336E-01 6.70809E-34
9.69846E-01 6.43608E-34
9.71321E-01 6.16491E-34
9.72759E-01 5.89511E-34
9.74162E-01 5.62720E-34
9.75528E-01 5.36168E-34
9.76858E-01 5.09903E-34
9.78152E-01 4.83970E-34
9.79410E-01 4.58414E-34
9.80631E-01 4.33276E-34
9.81815E-01 4.08596E-34
9.82963E-01 3.84411E-34
9.84074E-01 3.60756E-34
9.85148E-01 3.37664E-34
9.86185E-01 3.15166E-34
9.87185E-01 2.93293E-34
9.88148E-01 2.72068E-34
9.89074E-01 2.51519E-34
9.89962E-01 2.31669E-34
9.90814E-01 2.12538E-34
9.91627E-01 1.94147E-34
9.92404E-01 1.76514E-34
9.93143E-01 1.59655E-34
9.93844E-01 1.43585E-34
9.94508E-01 1.28319E-34
9.95134E-01 1.13869E-34
9.95722E-01 1.00246E-34
9.96273E-01 8.74607E-35
9.96786E-01 7.55226E-35
9.97261E-01 6.44394E-35
9.97698E-01 5.42186E-35
9.98097E-01 4.48670E-35
9.98459E-01 3.63901E-35
9.98782E-01 2.87930E-35
9.99067E-01 2.20800E-35
9.99315E-01 1.62549E-35
9.99524E-01 1.13208E-35
9.99695E-01 7.28026E-36
9.99829E-01 4.13557E-36
9.99924E-01 1.88820E-36
9.99981E-01 5.39402E-37
1.00000E+00 8.96103E-38
