 #
 # Subroutine ELSEPA. Elastic scattering of electrons and positrons
 #                    by neutral atoms and positive ions
 #
 # Projectile: electron
 # Kinetic energy = 3.50000E+08 eV = 1.28623E+07 a.u.
 #
 # WARNING: High-energy factorization with free-atom DF screening.
 #          Absorption, polarization and exchange corrections are
 #          switched off.
 #          Phase shifts are calculated for the bare nucleus.
 #          Scattering amplitudes are not evaluated.
 #
 # Element: Sm,  Z =  62,  atomic weight = 1.50360E+02 g/mol
 #
 # Nuclear model: Fermi distribution
 #                Average radius = 5.68977E-13 cm
 #                Skin thickness = 5.46000E-14 cm
 #
 # Number of electrons = 62
 #
 # Total elastic cross section = 7.22138E-18 cm**2 = 2.57880E-01 a0**2
 # 1st transport cross section = 6.05729E-26 cm**2 = 2.16310E-09 a0**2
 # 2nd transport cross section = 1.81579E-25 cm**2 = 6.48432E-09 a0**2
 #
 #
 # Differential cross section:                       MU=(1-COS(THETA))/2
 #
 #  THETA        MU          DCS          DCS        Sherman      error
 #  (deg)                 (cm**2/sr)   (a0**2/sr)    function
 #----------------------------------------------------------------------
0.00000E+00 1.14236E-08
7.61557E-13 1.07362E-08
1.18994E-12 1.03793E-08
1.71346E-12 9.96931E-09
2.33225E-12 9.52099E-09
3.04617E-12 9.04160E-09
3.85530E-12 8.54856E-09
4.75964E-12 8.05035E-09
5.75917E-12 7.55297E-09
6.85391E-12 7.07283E-09
8.04379E-12 6.60795E-09
9.32893E-12 6.16337E-09
1.07092E-11 5.74840E-09
1.21847E-11 5.35690E-09
1.37554E-11 4.99317E-09
1.54213E-11 4.65836E-09
1.71823E-11 4.34738E-09
1.90386E-11 4.06327E-09
2.09900E-11 3.80259E-09
2.30367E-11 3.56226E-09
2.51785E-11 3.34414E-09
2.74156E-11 3.14346E-09
2.97478E-11 2.95898E-09
3.21752E-11 2.79084E-09
3.46979E-11 2.63560E-09
3.73157E-11 2.49276E-09
4.00286E-11 2.36120E-09
4.28368E-11 2.23936E-09
4.57402E-11 2.12660E-09
4.87388E-11 2.02181E-09
5.18325E-11 1.92434E-09
5.50215E-11 1.83332E-09
5.83057E-11 1.74823E-09
6.16850E-11 1.66871E-09
6.51595E-11 1.59369E-09
6.87293E-11 1.52333E-09
7.23943E-11 1.45712E-09
7.61544E-11 1.39434E-09
1.18991E-10 9.21077E-10
1.71347E-10 6.27293E-10
2.33223E-10 4.32866E-10
3.04617E-10 3.13165E-10
3.85531E-10 2.29577E-10
4.75965E-10 1.72640E-10
5.75917E-10 1.33014E-10
6.85389E-10 1.03305E-10
8.04380E-10 8.16899E-11
9.32891E-10 6.54541E-11
1.07092E-09 5.27333E-11
1.21847E-09 4.30142E-11
1.37554E-09 3.53529E-11
1.54213E-09 2.92538E-11
1.71823E-09 2.44324E-11
1.90386E-09 2.05300E-11
2.09900E-09 1.73782E-11
2.30367E-09 1.48218E-11
2.51785E-09 1.27123E-11
2.74156E-09 1.09767E-11
2.97478E-09 9.53689E-12
3.21752E-09 8.32709E-12
3.46978E-09 7.31147E-12
3.73156E-09 6.45089E-12
4.00286E-09 5.71546E-12
4.28368E-09 5.08677E-12
4.57402E-09 4.54467E-12
4.87388E-09 4.07260E-12
5.18326E-09 3.66188E-12
5.50215E-09 3.30150E-12
5.83057E-09 2.98544E-12
6.16850E-09 2.70753E-12
6.51596E-09 2.46037E-12
6.87293E-09 2.24151E-12
7.23942E-09 2.04664E-12
7.61544E-09 1.87181E-12
1.18991E-08 8.38330E-13
1.71347E-08 4.26557E-13
2.33223E-08 2.38886E-13
3.04617E-08 1.44165E-13
3.85531E-08 9.21763E-14
4.75965E-08 6.17030E-14
5.75917E-08 4.28405E-14
6.85389E-08 3.06730E-14
8.04380E-08 2.25285E-14
9.32891E-08 1.69130E-14
1.07092E-07 1.29410E-14
1.21847E-07 1.00661E-14
1.37554E-07 7.94609E-15
1.54213E-07 6.35468E-15
1.71823E-07 5.14187E-15
1.90386E-07 4.20477E-15
2.09900E-07 3.47139E-15
2.30367E-07 2.89111E-15
2.51785E-07 2.42706E-15
2.74156E-07 2.05247E-15
2.97478E-07 1.74744E-15
3.21752E-07 1.49701E-15
3.46978E-07 1.28990E-15
3.73156E-07 1.11741E-15
4.00286E-07 9.72818E-16
4.28368E-07 8.50892E-16
4.57402E-07 7.47485E-16
4.87388E-07 6.59334E-16
5.18325E-07 5.83805E-16
5.50215E-07 5.18795E-16
5.83057E-07 4.62593E-16
6.16850E-07 4.13800E-16
6.51596E-07 3.71279E-16
6.87293E-07 3.34082E-16
7.23942E-07 3.01431E-16
7.61543E-07 2.72675E-16
1.18991E-06 1.12576E-16
1.71347E-06 5.45714E-17
2.33223E-06 2.95594E-17
3.04617E-06 1.73699E-17
3.85531E-06 1.08634E-17
4.75964E-06 7.13719E-18
5.75916E-06 4.87996E-18
6.85388E-06 3.44851E-18
8.04378E-06 2.50546E-18
9.32888E-06 1.86383E-18
1.07092E-05 1.41506E-18
1.21846E-05 1.09359E-18
1.37553E-05 8.58450E-19
1.54212E-05 6.83250E-19
1.71822E-05 5.50555E-19
1.90385E-05 4.48375E-19
2.09899E-05 3.69167E-19
2.30365E-05 3.06670E-19
2.51783E-05 2.56804E-19
2.74153E-05 2.16632E-19
2.97475E-05 1.83996E-19
3.21749E-05 1.57281E-19
3.46974E-05 1.35254E-19
3.73152E-05 1.16966E-19
4.00281E-05 1.01678E-19
4.28362E-05 8.88148E-20
4.57395E-05 7.79230E-20
4.87380E-05 6.86486E-20
5.18317E-05 6.07104E-20
5.50205E-05 5.38849E-20
5.83045E-05 4.79913E-20
6.16838E-05 4.28826E-20
6.51582E-05 3.84375E-20
6.87277E-05 3.45553E-20
7.23925E-05 3.11523E-20
7.61524E-05 2.83413E-20
9.21439E-05 1.93884E-20
1.09658E-04 1.37094E-20
1.28695E-04 9.96783E-21
1.49255E-04 7.42005E-21
1.71338E-04 5.63738E-21
1.94942E-04 4.35932E-21
2.20070E-04 3.42363E-21
2.46720E-04 2.72595E-21
2.74892E-04 2.19707E-21
3.04586E-04 1.79031E-21
3.35803E-04 1.47326E-21
3.68542E-04 1.22322E-21
4.02802E-04 1.02387E-21
4.38585E-04 8.63360E-22
4.75889E-04 7.32958E-22
5.14715E-04 6.26129E-22
5.55063E-04 5.37946E-22
5.96931E-04 4.64637E-22
6.40321E-04 4.03293E-22
6.85233E-04 3.51648E-22
7.31665E-04 3.07922E-22
7.79618E-04 2.70704E-22
8.29092E-04 2.38868E-22
8.80086E-04 2.11509E-22
9.32601E-04 1.87895E-22
9.86636E-04 1.67429E-22
1.04219E-03 1.49622E-22
1.09927E-03 1.34074E-22
1.15786E-03 1.20450E-22
1.21797E-03 1.08472E-22
1.27961E-03 9.79106E-23
1.34276E-03 8.85694E-23
1.40743E-03 8.02848E-23
1.47362E-03 7.29177E-23
1.54133E-03 6.63499E-23
1.61056E-03 6.04806E-23
1.68131E-03 5.52234E-23
1.75357E-03 5.05041E-23
1.82735E-03 4.62589E-23
1.90265E-03 4.24324E-23
1.97947E-03 3.89768E-23
2.05780E-03 3.58504E-23
2.13765E-03 3.30167E-23
2.21902E-03 3.04442E-23
2.30190E-03 2.81048E-23
2.38630E-03 2.59743E-23
2.47222E-03 2.40310E-23
2.55965E-03 2.22559E-23
2.64859E-03 2.06323E-23
2.73905E-03 1.91452E-23
2.83103E-03 1.77815E-23
2.92452E-03 1.65293E-23
3.01952E-03 1.53781E-23
3.11604E-03 1.43187E-23
3.21407E-03 1.33426E-23
3.31362E-03 1.24423E-23
3.41468E-03 1.16110E-23
3.51725E-03 1.08428E-23
3.62133E-03 1.01321E-23
3.72692E-03 9.47409E-24
3.83403E-03 8.86424E-24
3.94265E-03 8.29856E-24
4.05278E-03 7.77342E-24
4.16442E-03 7.28552E-24
4.27757E-03 6.83186E-24
4.39223E-03 6.40973E-24
4.50840E-03 6.01664E-24
4.62608E-03 5.65034E-24
4.74527E-03 5.30877E-24
4.86597E-03 4.99004E-24
4.98817E-03 4.69245E-24
5.11188E-03 4.41441E-24
5.23711E-03 4.15449E-24
5.36383E-03 3.91137E-24
5.49207E-03 3.68382E-24
5.62181E-03 3.47074E-24
5.75306E-03 3.27109E-24
5.88581E-03 3.08395E-24
6.02007E-03 2.90843E-24
6.15583E-03 2.74374E-24
6.29310E-03 2.58913E-24
6.43187E-03 2.44393E-24
6.57214E-03 2.30749E-24
6.71392E-03 2.17925E-24
6.85720E-03 2.05864E-24
7.00198E-03 1.94519E-24
7.14827E-03 1.83841E-24
7.29605E-03 1.73789E-24
7.44534E-03 1.64321E-24
7.59612E-03 1.55402E-24
7.97965E-03 1.35278E-24
8.37255E-03 1.17892E-24
8.77480E-03 1.02842E-24
9.18641E-03 8.97932E-25
9.60736E-03 7.84615E-25
1.00376E-02 6.86071E-25
1.04773E-02 6.00261E-25
1.09262E-02 5.25452E-25
1.13844E-02 4.60165E-25
1.18520E-02 4.03132E-25
1.23288E-02 3.53266E-25
1.28150E-02 3.09635E-25
1.33104E-02 2.71433E-25
1.38150E-02 2.37965E-25
1.43290E-02 2.08630E-25
1.48521E-02 1.82907E-25
1.53845E-02 1.60343E-25
1.59262E-02 1.40546E-25
1.64770E-02 1.23173E-25
1.70371E-02 1.07926E-25
1.76063E-02 9.45434E-26
1.81848E-02 8.27981E-26
1.87724E-02 7.24906E-26
1.93692E-02 6.34462E-26
1.99751E-02 5.55120E-26
2.05901E-02 4.85534E-26
2.12143E-02 4.24527E-26
2.18476E-02 3.71061E-26
2.24900E-02 3.24224E-26
2.31415E-02 2.83215E-26
2.38021E-02 2.47329E-26
2.44717E-02 2.15944E-26
2.51504E-02 1.88512E-26
2.58382E-02 1.64553E-26
2.65349E-02 1.43641E-26
2.72407E-02 1.25403E-26
2.79555E-02 1.09509E-26
2.86793E-02 9.56684E-27
2.94120E-02 8.36259E-27
3.01537E-02 7.31565E-27
3.09043E-02 6.40620E-27
3.16639E-02 5.61679E-27
3.24324E-02 4.93212E-27
3.32098E-02 4.33869E-27
3.39961E-02 3.82469E-27
3.47912E-02 3.37971E-27
3.55952E-02 2.99465E-27
3.64081E-02 2.66154E-27
3.72297E-02 2.37339E-27
3.80602E-02 2.12409E-27
3.88995E-02 1.90832E-27
3.97476E-02 1.72142E-27
4.06044E-02 1.55936E-27
4.14700E-02 1.41861E-27
4.23443E-02 1.29613E-27
4.32273E-02 1.18927E-27
4.41190E-02 1.09574E-27
4.50194E-02 1.01358E-27
4.59284E-02 9.41100E-28
4.68461E-02 8.76834E-28
4.87074E-02 7.68162E-28
5.06030E-02 6.79663E-28
5.25328E-02 6.05657E-28
5.44967E-02 5.42125E-28
5.64946E-02 4.86277E-28
5.85262E-02 4.36216E-28
6.05914E-02 3.90689E-28
6.26901E-02 3.48890E-28
6.48222E-02 3.10318E-28
6.69873E-02 2.74677E-28
6.91854E-02 2.41791E-28
7.14163E-02 2.11556E-28
7.36799E-02 1.83903E-28
7.59760E-02 1.58769E-28
7.83043E-02 1.36086E-28
8.06647E-02 1.15774E-28
8.30571E-02 9.77333E-29
8.54812E-02 8.18465E-29
8.79369E-02 6.79815E-29
9.04240E-02 5.59932E-29
9.29422E-02 4.57276E-29
9.54915E-02 3.70259E-29
9.80716E-02 2.97284E-29
1.00682E-01 2.36771E-29
1.03323E-01 1.87197E-29
1.05995E-01 1.47110E-29
1.08696E-01 1.15151E-29
1.11427E-01 9.00679E-30
1.14188E-01 7.07233E-30
1.16978E-01 5.60966E-30
1.19797E-01 4.52860E-30
1.22645E-01 3.75053E-30
1.25522E-01 3.20789E-30
1.28428E-01 2.84350E-30
1.31361E-01 2.60974E-30
1.34323E-01 2.46765E-30
1.37313E-01 2.38600E-30
1.40330E-01 2.34037E-30
1.43375E-01 2.31218E-30
1.46447E-01 2.28785E-30
1.49545E-01 2.25795E-30
1.52671E-01 2.21646E-30
1.55823E-01 2.16007E-30
1.59001E-01 2.08758E-30
1.62205E-01 1.99937E-30
1.65435E-01 1.89696E-30
1.68690E-01 1.78261E-30
1.71970E-01 1.65905E-30
1.75276E-01 1.52915E-30
1.78606E-01 1.39584E-30
1.81961E-01 1.26184E-30
1.85340E-01 1.12966E-30
1.88743E-01 1.00149E-30
1.92169E-01 8.79127E-31
1.95619E-01 7.64037E-31
1.99092E-01 6.57300E-31
2.02589E-01 5.59648E-31
2.06107E-01 4.71498E-31
2.09649E-01 3.92983E-31
2.13212E-01 3.23988E-31
2.16797E-01 2.64201E-31
2.20404E-01 2.13144E-31
2.24032E-01 1.70217E-31
2.27680E-01 1.34735E-31
2.31350E-01 1.05957E-31
2.35040E-01 8.31176E-32
2.38751E-01 6.54496E-32
2.42481E-01 5.22059E-32
2.46231E-01 4.26742E-32
2.50000E-01 3.61901E-32
2.53788E-01 3.21453E-32
2.57595E-01 2.99936E-32
2.61421E-01 2.92533E-32
2.65264E-01 2.95083E-32
2.69126E-01 3.04063E-32
2.73005E-01 3.16561E-32
2.76901E-01 3.30232E-32
2.80814E-01 3.43254E-32
2.84744E-01 3.54274E-32
2.88691E-01 3.62344E-32
2.92653E-01 3.66873E-32
2.96632E-01 3.67565E-32
3.00625E-01 3.64366E-32
3.04634E-01 3.57414E-32
3.08658E-01 3.46994E-32
3.12697E-01 3.33498E-32
3.16749E-01 3.17385E-32
3.20816E-01 2.99153E-32
3.24896E-01 2.79315E-32
3.28990E-01 2.58372E-32
3.33097E-01 2.36804E-32
3.37216E-01 2.15051E-32
3.41348E-01 1.93509E-32
3.45492E-01 1.72521E-32
3.49647E-01 1.52375E-32
3.53814E-01 1.33306E-32
3.57992E-01 1.15494E-32
3.62181E-01 9.90681E-33
3.66381E-01 8.41104E-33
3.70590E-01 7.06611E-33
3.74810E-01 5.87229E-33
3.79039E-01 4.82667E-33
3.83277E-01 3.92369E-33
3.87524E-01 3.15568E-33
3.91780E-01 2.51336E-33
3.96044E-01 1.98629E-33
4.00316E-01 1.56330E-33
4.04596E-01 1.23285E-33
4.08882E-01 9.83389E-34
4.13176E-01 8.03566E-34
4.17476E-01 6.82501E-34
4.21783E-01 6.09938E-34
4.26095E-01 5.76380E-34
4.30413E-01 5.73180E-34
4.34737E-01 5.92599E-34
4.39065E-01 6.27825E-34
4.43398E-01 6.72976E-34
4.47736E-01 7.23075E-34
4.52077E-01 7.74007E-34
4.56422E-01 8.22467E-34
4.60770E-01 8.65892E-34
4.65122E-01 9.02393E-34
4.69476E-01 9.30676E-34
4.73832E-01 9.49967E-34
4.78190E-01 9.59939E-34
4.82550E-01 9.60633E-34
4.86912E-01 9.52395E-34
4.91274E-01 9.35803E-34
4.95637E-01 9.11620E-34
5.00000E-01 8.80728E-34
5.04363E-01 8.44093E-34
5.08726E-01 8.02715E-34
5.13088E-01 7.57601E-34
5.17450E-01 7.09733E-34
5.21810E-01 6.60048E-34
5.26168E-01 6.09417E-34
5.30524E-01 5.58635E-34
5.34878E-01 5.08411E-34
5.39230E-01 4.59364E-34
5.43578E-01 4.12021E-34
5.47923E-01 3.66817E-34
5.52264E-01 3.24097E-34
5.56602E-01 2.84124E-34
5.60935E-01 2.47080E-34
5.65263E-01 2.13077E-34
5.69587E-01 1.82164E-34
5.73905E-01 1.54331E-34
5.78217E-01 1.29522E-34
5.82524E-01 1.07638E-34
5.86824E-01 8.85486E-35
5.91118E-01 7.20958E-35
5.95404E-01 5.81026E-35
5.99684E-01 4.63780E-35
6.03956E-01 3.67224E-35
6.08220E-01 2.89330E-35
6.12476E-01 2.28071E-35
6.16723E-01 1.81462E-35
6.20961E-01 1.47586E-35
6.25190E-01 1.24617E-35
6.29410E-01 1.10839E-35
6.33619E-01 1.04659E-35
6.37819E-01 1.04616E-35
6.42008E-01 1.09385E-35
6.46186E-01 1.17781E-35
6.50353E-01 1.28756E-35
6.54508E-01 1.41395E-35
6.58652E-01 1.54914E-35
6.62784E-01 1.68650E-35
6.66903E-01 1.82053E-35
6.71010E-01 1.94681E-35
6.75104E-01 2.06185E-35
6.79184E-01 2.16305E-35
6.83251E-01 2.24855E-35
6.87303E-01 2.31720E-35
6.91342E-01 2.36839E-35
6.95366E-01 2.40205E-35
6.99375E-01 2.41850E-35
7.03368E-01 2.41839E-35
7.07347E-01 2.40267E-35
7.11309E-01 2.37247E-35
7.15256E-01 2.32907E-35
7.19186E-01 2.27387E-35
7.23099E-01 2.20831E-35
7.26995E-01 2.13384E-35
7.30874E-01 2.05193E-35
7.34736E-01 1.96399E-35
7.38579E-01 1.87136E-35
7.42405E-01 1.77533E-35
7.46212E-01 1.67709E-35
7.50000E-01 1.57773E-35
7.53769E-01 1.47824E-35
7.57519E-01 1.37952E-35
7.61249E-01 1.28234E-35
7.64960E-01 1.18738E-35
7.68650E-01 1.09522E-35
7.72320E-01 1.00634E-35
7.75968E-01 9.21133E-36
7.79596E-01 8.39898E-36
7.83203E-01 7.62865E-36
7.86788E-01 6.90191E-36
7.90351E-01 6.21965E-36
7.93893E-01 5.58223E-36
7.97411E-01 4.98949E-36
8.00908E-01 4.44084E-36
8.04381E-01 3.93531E-36
8.07831E-01 3.47163E-36
8.11257E-01 3.04828E-36
8.14660E-01 2.66351E-36
8.18039E-01 2.31544E-36
8.21394E-01 2.00207E-36
8.24724E-01 1.72134E-36
8.28030E-01 1.47111E-36
8.31310E-01 1.24927E-36
8.34565E-01 1.05371E-36
8.37795E-01 8.82350E-37
8.40999E-01 7.33158E-37
8.44177E-01 6.04192E-37
8.47329E-01 4.93571E-37
8.50455E-01 3.99512E-37
8.53553E-01 3.20324E-37
8.56625E-01 2.54417E-37
8.59670E-01 2.00305E-37
8.62687E-01 1.56602E-37
8.65677E-01 1.22030E-37
8.68639E-01 9.54083E-38
8.71572E-01 7.56582E-38
8.74478E-01 6.17968E-38
8.77355E-01 5.29299E-38
8.80203E-01 4.82604E-38
8.83022E-01 4.70593E-38
8.85812E-01 4.86903E-38
8.88573E-01 5.25781E-38
8.91304E-01 5.82228E-38
8.94005E-01 6.51833E-38
8.96677E-01 7.30797E-38
8.99318E-01 8.15805E-38
9.01928E-01 9.04055E-38
9.04508E-01 9.93158E-38
9.07058E-01 1.08113E-37
9.09576E-01 1.16633E-37
9.12063E-01 1.24742E-37
9.14519E-01 1.32335E-37
9.16943E-01 1.39331E-37
9.19335E-01 1.45670E-37
9.21696E-01 1.51311E-37
9.24024E-01 1.56228E-37
9.26320E-01 1.60411E-37
9.28584E-01 1.63857E-37
9.30815E-01 1.66576E-37
9.33013E-01 1.68586E-37
9.35178E-01 1.69910E-37
9.37310E-01 1.70577E-37
9.39409E-01 1.70620E-37
9.41474E-01 1.70075E-37
9.43505E-01 1.68978E-37
9.45503E-01 1.67371E-37
9.47467E-01 1.65293E-37
9.49397E-01 1.62784E-37
9.51293E-01 1.59885E-37
9.53154E-01 1.56634E-37
9.54981E-01 1.53071E-37
9.56773E-01 1.49231E-37
9.58530E-01 1.45153E-37
9.60252E-01 1.40869E-37
9.61940E-01 1.36412E-37
9.63592E-01 1.31813E-37
9.65209E-01 1.27100E-37
9.66790E-01 1.22301E-37
9.68336E-01 1.17443E-37
9.69846E-01 1.12545E-37
9.71321E-01 1.07633E-37
9.72759E-01 1.02724E-37
9.74162E-01 9.78377E-38
9.75528E-01 9.29892E-38
9.76858E-01 8.81941E-38
9.78152E-01 8.34652E-38
9.79410E-01 7.88162E-38
9.80631E-01 7.42567E-38
9.81815E-01 6.97961E-38
9.82963E-01 6.54425E-38
9.84074E-01 6.12039E-38
9.85148E-01 5.70866E-38
9.86185E-01 5.30965E-38
9.87185E-01 4.92378E-38
9.88148E-01 4.55150E-38
9.89074E-01 4.19304E-38
9.89962E-01 3.84875E-38
9.90814E-01 3.51895E-38
9.91627E-01 3.20373E-38
9.92404E-01 2.90315E-38
9.93143E-01 2.61748E-38
9.93844E-01 2.34669E-38
9.94508E-01 2.09092E-38
9.95134E-01 1.85001E-38
9.95722E-01 1.62413E-38
9.96273E-01 1.41323E-38
9.96786E-01 1.21715E-38
9.97261E-01 1.03600E-38
9.97698E-01 8.69681E-39
9.98097E-01 7.18066E-39
9.98459E-01 5.81194E-39
9.98782E-01 4.58885E-39
9.99067E-01 3.51217E-39
9.99315E-01 2.58004E-39
9.99524E-01 1.79283E-39
9.99695E-01 1.14951E-39
9.99829E-01 6.49621E-40
9.99924E-01 2.92748E-40
9.99981E-01 7.87260E-41
1.00000E+00 7.25979E-42
