 #
 # Subroutine ELSEPA. Elastic scattering of electrons and positrons
 #                    by neutral atoms and positive ions
 #
 # Projectile: electron
 # Kinetic energy = 7.00000E+06 eV = 2.57245E+05 a.u.
 #
 # WARNING: High-energy factorization with free-atom DF screening.
 #          Absorption, polarization and exchange corrections are
 #          switched off.
 #          Phase shifts are calculated for the bare nucleus.
 #          Scattering amplitudes are not evaluated.
 #
 # Element: Sm,  Z =  62,  atomic weight = 1.50360E+02 g/mol
 #
 # Nuclear model: Fermi distribution
 #                Average radius = 5.68977E-13 cm
 #                Skin thickness = 5.46000E-14 cm
 #
 # Number of electrons = 62
 #
 # Total elastic cross section = 7.26441E-18 cm**2 = 2.59417E-01 a0**2
 # 1st transport cross section = 1.16396E-22 cm**2 = 4.15657E-06 a0**2
 # 2nd transport cross section = 3.22433E-22 cm**2 = 1.15143E-05 a0**2
 #
 #
 # Differential cross section:                       MU=(1-COS(THETA))/2
 #
 #  THETA        MU          DCS          DCS        Sherman      error
 #  (deg)                 (cm**2/sr)   (a0**2/sr)    function
 #----------------------------------------------------------------------
0.00000E+00 5.24561E-12
7.61557E-13 5.24545E-12
1.18994E-12 5.24537E-12
1.71346E-12 5.24526E-12
2.33225E-12 5.24514E-12
3.04617E-12 5.24500E-12
3.85530E-12 5.24483E-12
4.75964E-12 5.24465E-12
5.75917E-12 5.24445E-12
6.85391E-12 5.24424E-12
8.04379E-12 5.24400E-12
9.32893E-12 5.24374E-12
1.07092E-11 5.24347E-12
1.21847E-11 5.24317E-12
1.37554E-11 5.24286E-12
1.54213E-11 5.24253E-12
1.71823E-11 5.24218E-12
1.90386E-11 5.24181E-12
2.09900E-11 5.24142E-12
2.30367E-11 5.24101E-12
2.51785E-11 5.24059E-12
2.74156E-11 5.24014E-12
2.97478E-11 5.23968E-12
3.21752E-11 5.23919E-12
3.46979E-11 5.23869E-12
3.73157E-11 5.23817E-12
4.00286E-11 5.23763E-12
4.28368E-11 5.23707E-12
4.57402E-11 5.23650E-12
4.87388E-11 5.23590E-12
5.18325E-11 5.23529E-12
5.50215E-11 5.23465E-12
5.83057E-11 5.23400E-12
6.16850E-11 5.23333E-12
6.51595E-11 5.23264E-12
6.87293E-11 5.23193E-12
7.23943E-11 5.23120E-12
7.61544E-11 5.23046E-12
1.18991E-10 5.22197E-12
1.71347E-10 5.21163E-12
2.33223E-10 5.19946E-12
3.04617E-10 5.18547E-12
3.85531E-10 5.16969E-12
4.75965E-10 5.15214E-12
5.75917E-10 5.13287E-12
6.85389E-10 5.11189E-12
8.04380E-10 5.08926E-12
9.32891E-10 5.06499E-12
1.07092E-09 5.03914E-12
1.21847E-09 5.01175E-12
1.37554E-09 4.98287E-12
1.54213E-09 4.95253E-12
1.71823E-09 4.92079E-12
1.90386E-09 4.88770E-12
2.09900E-09 4.85331E-12
2.30367E-09 4.81767E-12
2.51785E-09 4.78085E-12
2.74156E-09 4.74288E-12
2.97478E-09 4.70383E-12
3.21752E-09 4.66376E-12
3.46978E-09 4.62272E-12
3.73156E-09 4.58077E-12
4.00286E-09 4.53797E-12
4.28368E-09 4.49470E-12
4.57402E-09 4.45073E-12
4.87388E-09 4.40594E-12
5.18326E-09 4.36038E-12
5.50215E-09 4.31411E-12
5.83057E-09 4.26716E-12
6.16850E-09 4.21959E-12
6.51596E-09 4.17192E-12
6.87293E-09 4.12450E-12
7.23942E-09 4.07660E-12
7.61544E-09 4.02827E-12
1.18991E-08 3.53931E-12
1.71347E-08 3.07043E-12
2.33223E-08 2.64638E-12
3.04617E-08 2.27637E-12
3.85531E-08 1.96437E-12
4.75965E-08 1.70359E-12
5.75917E-08 1.48685E-12
6.85389E-08 1.30779E-12
8.04380E-08 1.15811E-12
9.32891E-08 1.03227E-12
1.07092E-07 9.25459E-13
1.21847E-07 8.33814E-13
1.37554E-07 7.54335E-13
1.54213E-07 6.84778E-13
1.71823E-07 6.23533E-13
1.90386E-07 5.68972E-13
2.09900E-07 5.20297E-13
2.30367E-07 4.76683E-13
2.51785E-07 4.37250E-13
2.74156E-07 4.01722E-13
2.97478E-07 3.69547E-13
3.21752E-07 3.40311E-13
3.46978E-07 3.13820E-13
3.73156E-07 2.89681E-13
4.00286E-07 2.67710E-13
4.28368E-07 2.46570E-13
4.57402E-07 2.27332E-13
4.87388E-07 2.10290E-13
5.18325E-07 1.95143E-13
5.50215E-07 1.81637E-13
5.83057E-07 1.69555E-13
6.16850E-07 1.58716E-13
6.51596E-07 1.48339E-13
6.87293E-07 1.38073E-13
7.23942E-07 1.28835E-13
7.61543E-07 1.20501E-13
1.18991E-06 6.60867E-14
1.71347E-06 3.91059E-14
2.33223E-06 2.44196E-14
3.04617E-06 1.59440E-14
3.85531E-06 1.07638E-14
4.75964E-06 7.51852E-15
5.75916E-06 5.41908E-15
6.85388E-06 4.01250E-15
8.04378E-06 3.04551E-15
9.32888E-06 2.36025E-15
1.07092E-05 1.86113E-15
1.21846E-05 1.48876E-15
1.37553E-05 1.20607E-15
1.54212E-05 9.87829E-16
1.71822E-05 8.16915E-16
1.90385E-05 6.80500E-16
2.09899E-05 5.71586E-16
2.30365E-05 4.83297E-16
2.51783E-05 4.11026E-16
2.74153E-05 3.51641E-16
2.97475E-05 3.02495E-16
3.21749E-05 2.61565E-16
3.46974E-05 2.27320E-16
3.73152E-05 1.98477E-16
4.00281E-05 1.74068E-16
4.28362E-05 1.53238E-16
4.57395E-05 1.35478E-16
4.87380E-05 1.20294E-16
5.18317E-05 1.07107E-16
5.50205E-05 9.56923E-17
5.83045E-05 8.58026E-17
6.16838E-05 7.71148E-17
6.51582E-05 6.95192E-17
6.87277E-05 6.28660E-17
7.23925E-05 5.69643E-17
7.61524E-05 5.17554E-17
9.21439E-05 3.60504E-17
1.09658E-04 2.58755E-17
1.28695E-04 1.90605E-17
1.49255E-04 1.43487E-17
1.71338E-04 1.10058E-17
1.94942E-04 8.58246E-18
2.20070E-04 6.78980E-18
2.46720E-04 5.44119E-18
2.74892E-04 4.41129E-18
3.04586E-04 3.61344E-18
3.35803E-04 2.98802E-18
3.68542E-04 2.49227E-18
4.02802E-04 2.09507E-18
4.38585E-04 1.77401E-18
4.75889E-04 1.51220E-18
5.14715E-04 1.29696E-18
5.55063E-04 1.11877E-18
5.96931E-04 9.70185E-19
6.40321E-04 8.45512E-19
6.85233E-04 7.40289E-19
7.31665E-04 6.50961E-19
7.79618E-04 5.74748E-19
8.29092E-04 5.09400E-19
8.80086E-04 4.53103E-19
9.32601E-04 4.04400E-19
9.86636E-04 3.62087E-19
1.04219E-03 3.25184E-19
1.09927E-03 2.92882E-19
1.15786E-03 2.64506E-19
1.21797E-03 2.39497E-19
1.27961E-03 2.17387E-19
1.34276E-03 1.97778E-19
1.40743E-03 1.80341E-19
1.47362E-03 1.64791E-19
1.54133E-03 1.50888E-19
1.61056E-03 1.38427E-19
1.68131E-03 1.27232E-19
1.75357E-03 1.17150E-19
1.82735E-03 1.08052E-19
1.90265E-03 9.98242E-20
1.97947E-03 9.23681E-20
2.05780E-03 8.55990E-20
2.13765E-03 7.94409E-20
2.21902E-03 7.38299E-20
2.30190E-03 6.87078E-20
2.38630E-03 6.40245E-20
2.47222E-03 5.97356E-20
2.55965E-03 5.58017E-20
2.64859E-03 5.21880E-20
2.73905E-03 4.88638E-20
2.83103E-03 4.58014E-20
2.92452E-03 4.29766E-20
3.01952E-03 4.03675E-20
3.11604E-03 3.79544E-20
3.21407E-03 3.57202E-20
3.31362E-03 3.36489E-20
3.41468E-03 3.17265E-20
3.51725E-03 2.99403E-20
3.62133E-03 2.82789E-20
3.72692E-03 2.67318E-20
3.83403E-03 2.52899E-20
3.94265E-03 2.39444E-20
4.05278E-03 2.26880E-20
4.16442E-03 2.15133E-20
4.27757E-03 2.04144E-20
4.39223E-03 1.93851E-20
4.50840E-03 1.84205E-20
4.62608E-03 1.75155E-20
4.74527E-03 1.66659E-20
4.86597E-03 1.58675E-20
4.98817E-03 1.51168E-20
5.11188E-03 1.44104E-20
5.23711E-03 1.37450E-20
5.36383E-03 1.31180E-20
5.49207E-03 1.25265E-20
5.62181E-03 1.19684E-20
5.75306E-03 1.14412E-20
5.88581E-03 1.09430E-20
6.02007E-03 1.04719E-20
6.15583E-03 1.00261E-20
6.29310E-03 9.60401E-21
6.43187E-03 9.20410E-21
6.57214E-03 8.82499E-21
6.71392E-03 8.46538E-21
6.85720E-03 8.12411E-21
7.00198E-03 7.80001E-21
7.14827E-03 7.49211E-21
7.29605E-03 7.19938E-21
7.44534E-03 6.92098E-21
7.59612E-03 6.65603E-21
7.97965E-03 6.04766E-21
8.37255E-03 5.50793E-21
8.77480E-03 5.02775E-21
9.18641E-03 4.59934E-21
9.60736E-03 4.21612E-21
1.00376E-02 3.87247E-21
1.04773E-02 3.56355E-21
1.09262E-02 3.28521E-21
1.13844E-02 3.03387E-21
1.18520E-02 2.80643E-21
1.23288E-02 2.60020E-21
1.28150E-02 2.41283E-21
1.33104E-02 2.24228E-21
1.38150E-02 2.08675E-21
1.43290E-02 1.94468E-21
1.48521E-02 1.81468E-21
1.53845E-02 1.69553E-21
1.59262E-02 1.58616E-21
1.64770E-02 1.48561E-21
1.70371E-02 1.39304E-21
1.76063E-02 1.30768E-21
1.81848E-02 1.22888E-21
1.87724E-02 1.15603E-21
1.93692E-02 1.08859E-21
1.99751E-02 1.02609E-21
2.05901E-02 9.68098E-22
2.12143E-02 9.14220E-22
2.18476E-02 8.64109E-22
2.24900E-02 8.17452E-22
2.31415E-02 7.73964E-22
2.38021E-02 7.33387E-22
2.44717E-02 6.95489E-22
2.51504E-02 6.60058E-22
2.58382E-02 6.26900E-22
2.65349E-02 5.95843E-22
2.72407E-02 5.66726E-22
2.79555E-02 5.39405E-22
2.86793E-02 5.13746E-22
2.94120E-02 4.89629E-22
3.01537E-02 4.66942E-22
3.09043E-02 4.45583E-22
3.16639E-02 4.25460E-22
3.24324E-02 4.06486E-22
3.32098E-02 3.88582E-22
3.39961E-02 3.71676E-22
3.47912E-02 3.55702E-22
3.55952E-02 3.40596E-22
3.64081E-02 3.26304E-22
3.72297E-02 3.12771E-22
3.80602E-02 2.99951E-22
3.88995E-02 2.87796E-22
3.97476E-02 2.76266E-22
4.06044E-02 2.65322E-22
4.14700E-02 2.54929E-22
4.23443E-02 2.45052E-22
4.32273E-02 2.35660E-22
4.41190E-02 2.26726E-22
4.50194E-02 2.18222E-22
4.59284E-02 2.10124E-22
4.68461E-02 2.02407E-22
4.87074E-02 1.88035E-22
5.06030E-02 1.74947E-22
5.25328E-02 1.63007E-22
5.44967E-02 1.52094E-22
5.64946E-02 1.42102E-22
5.85262E-02 1.32939E-22
6.05914E-02 1.24522E-22
6.26901E-02 1.16777E-22
6.48222E-02 1.09641E-22
6.69873E-02 1.03056E-22
6.91854E-02 9.69705E-23
7.14163E-02 9.13395E-23
7.36799E-02 8.61220E-23
7.59760E-02 8.12814E-23
7.83043E-02 7.67851E-23
8.06647E-02 7.26034E-23
8.30571E-02 6.87099E-23
8.54812E-02 6.50805E-23
8.79369E-02 6.16937E-23
9.04240E-02 5.85301E-23
9.29422E-02 5.55717E-23
9.54915E-02 5.28025E-23
9.80716E-02 5.02079E-23
1.00682E-01 4.77746E-23
1.03323E-01 4.54906E-23
1.05995E-01 4.33447E-23
1.08696E-01 4.13267E-23
1.11427E-01 3.94276E-23
1.14188E-01 3.76388E-23
1.16978E-01 3.59526E-23
1.19797E-01 3.43618E-23
1.22645E-01 3.28599E-23
1.25522E-01 3.14409E-23
1.28428E-01 3.00993E-23
1.31361E-01 2.88299E-23
1.34323E-01 2.76281E-23
1.37313E-01 2.64894E-23
1.40330E-01 2.54098E-23
1.43375E-01 2.43857E-23
1.46447E-01 2.34136E-23
1.49545E-01 2.24902E-23
1.52671E-01 2.16126E-23
1.55823E-01 2.07781E-23
1.59001E-01 1.99840E-23
1.62205E-01 1.92281E-23
1.65435E-01 1.85081E-23
1.68690E-01 1.78218E-23
1.71970E-01 1.71674E-23
1.75276E-01 1.65432E-23
1.78606E-01 1.59474E-23
1.81961E-01 1.53783E-23
1.85340E-01 1.48346E-23
1.88743E-01 1.43150E-23
1.92169E-01 1.38181E-23
1.95619E-01 1.33427E-23
1.99092E-01 1.28876E-23
2.02589E-01 1.24518E-23
2.06107E-01 1.20344E-23
2.09649E-01 1.16344E-23
2.13212E-01 1.12509E-23
2.16797E-01 1.08830E-23
2.20404E-01 1.05300E-23
2.24032E-01 1.01913E-23
2.27680E-01 9.86594E-24
2.31350E-01 9.55345E-24
2.35040E-01 9.25318E-24
2.38751E-01 8.96454E-24
2.42481E-01 8.68698E-24
2.46231E-01 8.41999E-24
2.50000E-01 8.16307E-24
2.53788E-01 7.91578E-24
2.57595E-01 7.67767E-24
2.61421E-01 7.44833E-24
2.65264E-01 7.22736E-24
2.69126E-01 7.01439E-24
2.73005E-01 6.80908E-24
2.76901E-01 6.61109E-24
2.80814E-01 6.42010E-24
2.84744E-01 6.23581E-24
2.88691E-01 6.05794E-24
2.92653E-01 5.88622E-24
2.96632E-01 5.72039E-24
3.00625E-01 5.56020E-24
3.04634E-01 5.40542E-24
3.08658E-01 5.25584E-24
3.12697E-01 5.11123E-24
3.16749E-01 4.97140E-24
3.20816E-01 4.83616E-24
3.24896E-01 4.70532E-24
3.28990E-01 4.57872E-24
3.33097E-01 4.45618E-24
3.37216E-01 4.33755E-24
3.41348E-01 4.22268E-24
3.45492E-01 4.11142E-24
3.49647E-01 4.00364E-24
3.53814E-01 3.89921E-24
3.57992E-01 3.79799E-24
3.62181E-01 3.69987E-24
3.66381E-01 3.60474E-24
3.70590E-01 3.51249E-24
3.74810E-01 3.42300E-24
3.79039E-01 3.33619E-24
3.83277E-01 3.25195E-24
3.87524E-01 3.17019E-24
3.91780E-01 3.09082E-24
3.96044E-01 3.01377E-24
4.00316E-01 2.93895E-24
4.04596E-01 2.86627E-24
4.08882E-01 2.79568E-24
4.13176E-01 2.72709E-24
4.17476E-01 2.66043E-24
4.21783E-01 2.59565E-24
4.26095E-01 2.53267E-24
4.30413E-01 2.47143E-24
4.34737E-01 2.41188E-24
4.39065E-01 2.35397E-24
4.43398E-01 2.29764E-24
4.47736E-01 2.24283E-24
4.52077E-01 2.18950E-24
4.56422E-01 2.13761E-24
4.60770E-01 2.08710E-24
4.65122E-01 2.03793E-24
4.69476E-01 1.99005E-24
4.73832E-01 1.94344E-24
4.78190E-01 1.89804E-24
4.82550E-01 1.85382E-24
4.86912E-01 1.81075E-24
4.91274E-01 1.76878E-24
4.95637E-01 1.72789E-24
5.00000E-01 1.68803E-24
5.04363E-01 1.64919E-24
5.08726E-01 1.61133E-24
5.13088E-01 1.57441E-24
5.17450E-01 1.53842E-24
5.21810E-01 1.50332E-24
5.26168E-01 1.46909E-24
5.30524E-01 1.43570E-24
5.34878E-01 1.40313E-24
5.39230E-01 1.37135E-24
5.43578E-01 1.34035E-24
5.47923E-01 1.31009E-24
5.52264E-01 1.28056E-24
5.56602E-01 1.25174E-24
5.60935E-01 1.22360E-24
5.65263E-01 1.19613E-24
5.69587E-01 1.16932E-24
5.73905E-01 1.14313E-24
5.78217E-01 1.11755E-24
5.82524E-01 1.09258E-24
5.86824E-01 1.06818E-24
5.91118E-01 1.04434E-24
5.95404E-01 1.02106E-24
5.99684E-01 9.98310E-25
6.03956E-01 9.76080E-25
6.08220E-01 9.54356E-25
6.12476E-01 9.33125E-25
6.16723E-01 9.12373E-25
6.20961E-01 8.92089E-25
6.25190E-01 8.72259E-25
6.29410E-01 8.52872E-25
6.33619E-01 8.33917E-25
6.37819E-01 8.15381E-25
6.42008E-01 7.97256E-25
6.46186E-01 7.79529E-25
6.50353E-01 7.62192E-25
6.54508E-01 7.45233E-25
6.58652E-01 7.28644E-25
6.62784E-01 7.12416E-25
6.66903E-01 6.96538E-25
6.71010E-01 6.81003E-25
6.75104E-01 6.65803E-25
6.79184E-01 6.50928E-25
6.83251E-01 6.36371E-25
6.87303E-01 6.22125E-25
6.91342E-01 6.08181E-25
6.95366E-01 5.94533E-25
6.99375E-01 5.81172E-25
7.03368E-01 5.68094E-25
7.07347E-01 5.55290E-25
7.11309E-01 5.42754E-25
7.15256E-01 5.30480E-25
7.19186E-01 5.18462E-25
7.23099E-01 5.06694E-25
7.26995E-01 4.95170E-25
7.30874E-01 4.83884E-25
7.34736E-01 4.72832E-25
7.38579E-01 4.62006E-25
7.42405E-01 4.51404E-25
7.46212E-01 4.41018E-25
7.50000E-01 4.30845E-25
7.53769E-01 4.20880E-25
7.57519E-01 4.11118E-25
7.61249E-01 4.01554E-25
7.64960E-01 3.92185E-25
7.68650E-01 3.83006E-25
7.72320E-01 3.74012E-25
7.75968E-01 3.65200E-25
7.79596E-01 3.56566E-25
7.83203E-01 3.48105E-25
7.86788E-01 3.39815E-25
7.90351E-01 3.31692E-25
7.93893E-01 3.23731E-25
7.97411E-01 3.15930E-25
8.00908E-01 3.08286E-25
8.04381E-01 3.00794E-25
8.07831E-01 2.93452E-25
8.11257E-01 2.86257E-25
8.14660E-01 2.79206E-25
8.18039E-01 2.72295E-25
8.21394E-01 2.65522E-25
8.24724E-01 2.58884E-25
8.28030E-01 2.52379E-25
8.31310E-01 2.46003E-25
8.34565E-01 2.39754E-25
8.37795E-01 2.33630E-25
8.40999E-01 2.27628E-25
8.44177E-01 2.21746E-25
8.47329E-01 2.15982E-25
8.50455E-01 2.10332E-25
8.53553E-01 2.04796E-25
8.56625E-01 1.99370E-25
8.59670E-01 1.94053E-25
8.62687E-01 1.88843E-25
8.65677E-01 1.83737E-25
8.68639E-01 1.78734E-25
8.71572E-01 1.73832E-25
8.74478E-01 1.69029E-25
8.77355E-01 1.64323E-25
8.80203E-01 1.59712E-25
8.83022E-01 1.55195E-25
8.85812E-01 1.50770E-25
8.88573E-01 1.46436E-25
8.91304E-01 1.42190E-25
8.94005E-01 1.38032E-25
8.96677E-01 1.33959E-25
8.99318E-01 1.29970E-25
9.01928E-01 1.26065E-25
9.04508E-01 1.22240E-25
9.07058E-01 1.18496E-25
9.09576E-01 1.14831E-25
9.12063E-01 1.11242E-25
9.14519E-01 1.07731E-25
9.16943E-01 1.04294E-25
9.19335E-01 1.00930E-25
9.21696E-01 9.76397E-26
9.24024E-01 9.44204E-26
9.26320E-01 9.12715E-26
9.28584E-01 8.81918E-26
9.30815E-01 8.51802E-26
9.33013E-01 8.22358E-26
9.35178E-01 7.93576E-26
9.37310E-01 7.65445E-26
9.39409E-01 7.37956E-26
9.41474E-01 7.11101E-26
9.43505E-01 6.84869E-26
9.45503E-01 6.59252E-26
9.47467E-01 6.34243E-26
9.49397E-01 6.09831E-26
9.51293E-01 5.86010E-26
9.53154E-01 5.62771E-26
9.54981E-01 5.40107E-26
9.56773E-01 5.18011E-26
9.58530E-01 4.96474E-26
9.60252E-01 4.75491E-26
9.61940E-01 4.55055E-26
9.63592E-01 4.35157E-26
9.65209E-01 4.15794E-26
9.66790E-01 3.96957E-26
9.68336E-01 3.78641E-26
9.69846E-01 3.60841E-26
9.71321E-01 3.43550E-26
9.72759E-01 3.26763E-26
9.74162E-01 3.10475E-26
9.75528E-01 2.94680E-26
9.76858E-01 2.79373E-26
9.78152E-01 2.64551E-26
9.79410E-01 2.50207E-26
9.80631E-01 2.36337E-26
9.81815E-01 2.22938E-26
9.82963E-01 2.10005E-26
9.84074E-01 1.97534E-26
9.85148E-01 1.85520E-26
9.86185E-01 1.73961E-26
9.87185E-01 1.62853E-26
9.88148E-01 1.52192E-26
9.89074E-01 1.41974E-26
9.89962E-01 1.32198E-26
9.90814E-01 1.22859E-26
9.91627E-01 1.13955E-26
9.92404E-01 1.05483E-26
9.93143E-01 9.74412E-27
9.93844E-01 8.98260E-27
9.94508E-01 8.26355E-27
9.95134E-01 7.58676E-27
9.95722E-01 6.95201E-27
9.96273E-01 6.35912E-27
9.96786E-01 5.80789E-27
9.97261E-01 5.29817E-27
9.97698E-01 4.82979E-27
9.98097E-01 4.40261E-27
9.98459E-01 4.01651E-27
9.98782E-01 3.67137E-27
9.99067E-01 3.36707E-27
9.99315E-01 3.10354E-27
9.99524E-01 2.88068E-27
9.99695E-01 2.69844E-27
9.99829E-01 2.55675E-27
9.99924E-01 2.45558E-27
9.99981E-01 2.39488E-27
1.00000E+00 2.37465E-27
