 #
 # Subroutine ELSEPA. Elastic scattering of electrons and positrons
 #                    by neutral atoms and positive ions
 #
 # Projectile: electron
 # Kinetic energy = 1.50000E+07 eV = 5.51240E+05 a.u.
 #
 # WARNING: High-energy factorization with free-atom DF screening.
 #          Absorption, polarization and exchange corrections are
 #          switched off.
 #          Phase shifts are calculated for the bare nucleus.
 #          Scattering amplitudes are not evaluated.
 #
 # Element: Sm,  Z =  62,  atomic weight = 1.50360E+02 g/mol
 #
 # Nuclear model: Fermi distribution
 #                Average radius = 5.68977E-13 cm
 #                Skin thickness = 5.46000E-14 cm
 #
 # Number of electrons = 62
 #
 # Total elastic cross section = 7.23787E-18 cm**2 = 2.58469E-01 a0**2
 # 1st transport cross section = 2.94842E-23 cm**2 = 1.05290E-06 a0**2
 # 2nd transport cross section = 8.30510E-23 cm**2 = 2.96581E-06 a0**2
 #
 #
 # Differential cross section:                       MU=(1-COS(THETA))/2
 #
 #  THETA        MU          DCS          DCS        Sherman      error
 #  (deg)                 (cm**2/sr)   (a0**2/sr)    function
 #----------------------------------------------------------------------
0.00000E+00 2.23707E-11
7.61557E-13 2.23679E-11
1.18994E-12 2.23663E-11
1.71346E-12 2.23644E-11
2.33225E-12 2.23622E-11
3.04617E-12 2.23596E-11
3.85530E-12 2.23566E-11
4.75964E-12 2.23533E-11
5.75917E-12 2.23497E-11
6.85391E-12 2.23457E-11
8.04379E-12 2.23414E-11
9.32893E-12 2.23367E-11
1.07092E-11 2.23317E-11
1.21847E-11 2.23264E-11
1.37554E-11 2.23207E-11
1.54213E-11 2.23146E-11
1.71823E-11 2.23082E-11
1.90386E-11 2.23015E-11
2.09900E-11 2.22945E-11
2.30367E-11 2.22870E-11
2.51785E-11 2.22793E-11
2.74156E-11 2.22712E-11
2.97478E-11 2.22628E-11
3.21752E-11 2.22540E-11
3.46979E-11 2.22449E-11
3.73157E-11 2.22355E-11
4.00286E-11 2.22257E-11
4.28368E-11 2.22156E-11
4.57402E-11 2.22052E-11
4.87388E-11 2.21944E-11
5.18325E-11 2.21833E-11
5.50215E-11 2.21719E-11
5.83057E-11 2.21601E-11
6.16850E-11 2.21480E-11
6.51595E-11 2.21356E-11
6.87293E-11 2.21228E-11
7.23943E-11 2.21097E-11
7.61544E-11 2.20963E-11
1.18991E-10 2.19445E-11
1.71347E-10 2.17612E-11
2.33223E-10 2.15479E-11
3.04617E-10 2.13061E-11
3.85531E-10 2.10374E-11
4.75965E-10 2.07437E-11
5.75917E-10 2.04269E-11
6.85389E-10 2.00892E-11
8.04380E-10 1.97326E-11
9.32891E-10 1.93592E-11
1.07092E-09 1.89743E-11
1.21847E-09 1.85753E-11
1.37554E-09 1.81632E-11
1.54213E-09 1.77433E-11
1.71823E-09 1.73217E-11
1.90386E-09 1.68924E-11
2.09900E-09 1.64570E-11
2.30367E-09 1.60273E-11
2.51785E-09 1.55975E-11
2.74156E-09 1.51662E-11
2.97478E-09 1.47376E-11
3.21752E-09 1.43209E-11
3.46978E-09 1.39058E-11
3.73156E-09 1.34934E-11
4.00286E-09 1.30946E-11
4.28368E-09 1.27046E-11
4.57402E-09 1.23193E-11
4.87388E-09 1.19415E-11
5.18326E-09 1.15816E-11
5.50215E-09 1.12278E-11
5.83057E-09 1.08805E-11
6.16850E-09 1.05478E-11
6.51596E-09 1.02271E-11
6.87293E-09 9.91345E-12
7.23942E-09 9.60769E-12
7.61544E-09 9.31976E-12
1.18991E-08 6.92621E-12
1.71347E-08 5.29872E-12
2.33223E-08 4.17351E-12
3.04617E-08 3.36305E-12
3.85531E-08 2.75423E-12
4.75965E-08 2.28089E-12
5.75917E-08 1.90389E-12
6.85389E-08 1.59869E-12
8.04380E-08 1.34939E-12
9.32891E-08 1.14470E-12
1.07092E-07 9.66782E-13
1.21847E-07 8.25885E-13
1.37554E-07 7.14691E-13
1.54213E-07 6.21553E-13
1.71823E-07 5.37953E-13
1.90386E-07 4.70287E-13
2.09900E-07 4.14940E-13
2.30367E-07 3.65050E-13
2.51785E-07 3.22557E-13
2.74156E-07 2.87105E-13
2.97478E-07 2.56639E-13
3.21752E-07 2.28822E-13
3.46978E-07 2.05231E-13
3.73156E-07 1.85093E-13
4.00286E-07 1.66728E-13
4.28368E-07 1.50469E-13
4.57402E-07 1.36416E-13
4.87388E-07 1.24074E-13
5.18325E-07 1.12569E-13
5.50215E-07 1.02521E-13
5.83057E-07 9.37072E-14
6.16850E-07 8.56370E-14
6.51596E-07 7.83297E-14
6.87293E-07 7.18655E-14
7.23942E-07 6.61085E-14
7.61543E-07 6.07294E-14
1.18991E-06 2.85327E-14
1.71347E-06 1.52158E-14
2.33223E-06 8.94986E-15
3.04617E-06 5.63707E-15
3.85531E-06 3.73474E-15
4.75964E-06 2.56761E-15
5.75916E-06 1.81788E-15
6.85388E-06 1.32073E-15
8.04378E-06 9.81564E-16
9.32888E-06 7.44106E-16
1.07092E-05 5.73917E-16
1.21846E-05 4.50158E-16
1.37553E-05 3.58211E-16
1.54212E-05 2.88446E-16
1.71822E-05 2.35002E-16
1.90385E-05 1.93381E-16
2.09899E-05 1.60710E-16
2.30365E-05 1.34650E-16
2.51783E-05 1.13669E-16
2.74153E-05 9.66091E-17
2.97475E-05 8.26043E-17
3.21749E-05 7.10573E-17
3.46974E-05 6.14700E-17
3.73152E-05 5.34415E-17
4.00281E-05 4.66871E-17
4.28362E-05 4.09713E-17
4.57395E-05 3.61016E-17
4.87380E-05 3.19290E-17
5.18317E-05 2.83413E-17
5.50205E-05 2.52427E-17
5.83045E-05 2.25520E-17
6.16838E-05 2.02109E-17
6.51582E-05 1.81666E-17
6.87277E-05 1.63739E-17
7.23925E-05 1.47968E-17
7.61524E-05 1.34058E-17
9.21439E-05 9.23554E-18
1.09658E-04 6.56657E-18
1.28695E-04 4.79613E-18
1.49255E-04 3.58404E-18
1.71338E-04 2.73222E-18
1.94942E-04 2.11928E-18
2.20070E-04 1.66919E-18
2.46720E-04 1.33266E-18
2.74892E-04 1.07693E-18
3.04586E-04 8.79807E-19
3.35803E-04 7.25857E-19
3.68542E-04 6.04211E-19
4.02802E-04 5.07056E-19
4.38585E-04 4.28695E-19
4.75889E-04 3.64931E-19
5.14715E-04 3.12611E-19
5.55063E-04 2.69358E-19
5.96931E-04 2.33346E-19
6.40321E-04 2.03166E-19
6.85233E-04 1.77721E-19
7.31665E-04 1.56145E-19
7.79618E-04 1.37752E-19
8.29092E-04 1.21995E-19
8.80086E-04 1.08433E-19
9.32601E-04 9.67082E-20
9.86636E-04 8.65294E-20
1.04219E-03 7.76589E-20
1.09927E-03 6.98994E-20
1.15786E-03 6.30875E-20
1.21797E-03 5.70879E-20
1.27961E-03 5.17868E-20
1.34276E-03 4.70889E-20
1.40743E-03 4.29135E-20
1.47362E-03 3.91922E-20
1.54133E-03 3.58671E-20
1.61056E-03 3.28884E-20
1.68131E-03 3.02137E-20
1.75357E-03 2.78064E-20
1.82735E-03 2.56352E-20
1.90265E-03 2.36726E-20
1.97947E-03 2.18950E-20
2.05780E-03 2.02820E-20
2.13765E-03 1.88154E-20
2.21902E-03 1.74796E-20
2.30190E-03 1.62608E-20
2.38630E-03 1.51469E-20
2.47222E-03 1.41272E-20
2.55965E-03 1.31924E-20
2.64859E-03 1.23340E-20
2.73905E-03 1.15447E-20
2.83103E-03 1.08179E-20
2.92452E-03 1.01477E-20
3.01952E-03 9.52888E-21
3.11604E-03 8.95681E-21
3.21407E-03 8.42730E-21
3.31362E-03 7.93658E-21
3.41468E-03 7.48129E-21
3.51725E-03 7.05839E-21
3.62133E-03 6.66516E-21
3.72692E-03 6.29911E-21
3.83403E-03 5.95803E-21
3.94265E-03 5.63988E-21
4.05278E-03 5.34284E-21
4.16442E-03 5.06524E-21
4.27757E-03 4.80557E-21
4.39223E-03 4.56245E-21
4.50840E-03 4.33464E-21
4.62608E-03 4.12097E-21
4.74527E-03 3.92042E-21
4.86597E-03 3.73202E-21
4.98817E-03 3.55489E-21
5.11188E-03 3.38823E-21
5.23711E-03 3.23131E-21
5.36383E-03 3.08345E-21
5.49207E-03 2.94403E-21
5.62181E-03 2.81247E-21
5.75306E-03 2.68824E-21
5.88581E-03 2.57086E-21
6.02007E-03 2.45987E-21
6.15583E-03 2.35487E-21
6.29310E-03 2.25546E-21
6.43187E-03 2.16129E-21
6.57214E-03 2.07204E-21
6.71392E-03 1.98739E-21
6.85720E-03 1.90706E-21
7.00198E-03 1.83080E-21
7.14827E-03 1.75834E-21
7.29605E-03 1.68948E-21
7.44534E-03 1.62399E-21
7.59612E-03 1.56167E-21
7.97965E-03 1.41861E-21
8.37255E-03 1.29172E-21
8.77480E-03 1.17886E-21
9.18641E-03 1.07820E-21
9.60736E-03 9.88169E-22
1.00376E-02 9.07453E-22
1.04773E-02 8.34909E-22
1.09262E-02 7.69559E-22
1.13844E-02 7.10559E-22
1.18520E-02 6.57177E-22
1.23288E-02 6.08779E-22
1.28150E-02 5.64815E-22
1.33104E-02 5.24802E-22
1.38150E-02 4.88319E-22
1.43290E-02 4.54995E-22
1.48521E-02 4.24506E-22
1.53845E-02 3.96566E-22
1.59262E-02 3.70921E-22
1.64770E-02 3.47347E-22
1.70371E-02 3.25644E-22
1.76063E-02 3.05636E-22
1.81848E-02 2.87166E-22
1.87724E-02 2.70092E-22
1.93692E-02 2.54288E-22
1.99751E-02 2.39642E-22
2.05901E-02 2.26053E-22
2.12143E-02 2.13429E-22
2.18476E-02 2.01690E-22
2.24900E-02 1.90759E-22
2.31415E-02 1.80572E-22
2.38021E-02 1.71068E-22
2.44717E-02 1.62192E-22
2.51504E-02 1.53894E-22
2.58382E-02 1.46130E-22
2.65349E-02 1.38857E-22
2.72407E-02 1.32040E-22
2.79555E-02 1.25644E-22
2.86793E-02 1.19637E-22
2.94120E-02 1.13991E-22
3.01537E-02 1.08681E-22
3.09043E-02 1.03682E-22
3.16639E-02 9.89724E-23
3.24324E-02 9.45322E-23
3.32098E-02 9.03429E-23
3.39961E-02 8.63876E-23
3.47912E-02 8.26504E-23
3.55952E-02 7.91169E-23
3.64081E-02 7.57737E-23
3.72297E-02 7.26087E-23
3.80602E-02 6.96105E-23
3.88995E-02 6.67683E-23
3.97476E-02 6.40723E-23
4.06044E-02 6.15138E-23
4.14700E-02 5.90842E-23
4.23443E-02 5.67756E-23
4.32273E-02 5.45806E-23
4.41190E-02 5.24929E-23
4.50194E-02 5.05061E-23
4.59284E-02 4.86139E-23
4.68461E-02 4.68113E-23
4.87074E-02 4.34545E-23
5.06030E-02 4.03985E-23
5.25328E-02 3.76114E-23
5.44967E-02 3.50647E-23
5.64946E-02 3.27337E-23
5.85262E-02 3.05966E-23
6.05914E-02 2.86341E-23
6.26901E-02 2.68291E-23
6.48222E-02 2.51665E-23
6.69873E-02 2.36328E-23
6.91854E-02 2.22161E-23
7.14163E-02 2.09056E-23
7.36799E-02 1.96919E-23
7.59760E-02 1.85663E-23
7.83043E-02 1.75212E-23
8.06647E-02 1.65497E-23
8.30571E-02 1.56456E-23
8.54812E-02 1.48031E-23
8.79369E-02 1.40174E-23
9.04240E-02 1.32838E-23
9.29422E-02 1.25982E-23
9.54915E-02 1.19568E-23
9.80716E-02 1.13561E-23
1.00682E-01 1.07930E-23
1.03323E-01 1.02648E-23
1.05995E-01 9.76871E-24
1.08696E-01 9.30253E-24
1.11427E-01 8.86407E-24
1.14188E-01 8.45133E-24
1.16978E-01 8.06251E-24
1.19797E-01 7.69593E-24
1.22645E-01 7.35008E-24
1.25522E-01 7.02352E-24
1.28428E-01 6.71499E-24
1.31361E-01 6.42327E-24
1.34323E-01 6.14726E-24
1.37313E-01 5.88595E-24
1.40330E-01 5.63840E-24
1.43375E-01 5.40373E-24
1.46447E-01 5.18114E-24
1.49545E-01 4.96988E-24
1.52671E-01 4.76926E-24
1.55823E-01 4.57864E-24
1.59001E-01 4.39740E-24
1.62205E-01 4.22501E-24
1.65435E-01 4.06094E-24
1.68690E-01 3.90470E-24
1.71970E-01 3.75585E-24
1.75276E-01 3.61397E-24
1.78606E-01 3.47867E-24
1.81961E-01 3.34958E-24
1.85340E-01 3.22635E-24
1.88743E-01 3.10867E-24
1.92169E-01 2.99625E-24
1.95619E-01 2.88878E-24
1.99092E-01 2.78602E-24
2.02589E-01 2.68772E-24
2.06107E-01 2.59364E-24
2.09649E-01 2.50357E-24
2.13212E-01 2.41730E-24
2.16797E-01 2.33464E-24
2.20404E-01 2.25542E-24
2.24032E-01 2.17944E-24
2.27680E-01 2.10657E-24
2.31350E-01 2.03664E-24
2.35040E-01 1.96952E-24
2.38751E-01 1.90507E-24
2.42481E-01 1.84316E-24
2.46231E-01 1.78367E-24
2.50000E-01 1.72649E-24
2.53788E-01 1.67151E-24
2.57595E-01 1.61864E-24
2.61421E-01 1.56777E-24
2.65264E-01 1.51881E-24
2.69126E-01 1.47168E-24
2.73005E-01 1.42630E-24
2.76901E-01 1.38258E-24
2.80814E-01 1.34046E-24
2.84744E-01 1.29987E-24
2.88691E-01 1.26074E-24
2.92653E-01 1.22301E-24
2.96632E-01 1.18662E-24
3.00625E-01 1.15150E-24
3.04634E-01 1.11762E-24
3.08658E-01 1.08491E-24
3.12697E-01 1.05334E-24
3.16749E-01 1.02284E-24
3.20816E-01 9.93382E-25
3.24896E-01 9.64920E-25
3.28990E-01 9.37415E-25
3.33097E-01 9.10828E-25
3.37216E-01 8.85122E-25
3.41348E-01 8.60264E-25
3.45492E-01 8.36219E-25
3.49647E-01 8.12957E-25
3.53814E-01 7.90447E-25
3.57992E-01 7.68661E-25
3.62181E-01 7.47570E-25
3.66381E-01 7.27149E-25
3.70590E-01 7.07373E-25
3.74810E-01 6.88217E-25
3.79039E-01 6.69658E-25
3.83277E-01 6.51675E-25
3.87524E-01 6.34247E-25
3.91780E-01 6.17352E-25
3.96044E-01 6.00973E-25
4.00316E-01 5.85090E-25
4.04596E-01 5.69686E-25
4.08882E-01 5.54744E-25
4.13176E-01 5.40247E-25
4.17476E-01 5.26180E-25
4.21783E-01 5.12527E-25
4.26095E-01 4.99276E-25
4.30413E-01 4.86411E-25
4.34737E-01 4.73919E-25
4.39065E-01 4.61789E-25
4.43398E-01 4.50006E-25
4.47736E-01 4.38561E-25
4.52077E-01 4.27441E-25
4.56422E-01 4.16636E-25
4.60770E-01 4.06135E-25
4.65122E-01 3.95929E-25
4.69476E-01 3.86007E-25
4.73832E-01 3.76360E-25
4.78190E-01 3.66980E-25
4.82550E-01 3.57858E-25
4.86912E-01 3.48985E-25
4.91274E-01 3.40354E-25
4.95637E-01 3.31957E-25
5.00000E-01 3.23786E-25
5.04363E-01 3.15835E-25
5.08726E-01 3.08097E-25
5.13088E-01 3.00565E-25
5.17450E-01 2.93232E-25
5.21810E-01 2.86093E-25
5.26168E-01 2.79142E-25
5.30524E-01 2.72372E-25
5.34878E-01 2.65779E-25
5.39230E-01 2.59357E-25
5.43578E-01 2.53100E-25
5.47923E-01 2.47005E-25
5.52264E-01 2.41066E-25
5.56602E-01 2.35279E-25
5.60935E-01 2.29638E-25
5.65263E-01 2.24141E-25
5.69587E-01 2.18782E-25
5.73905E-01 2.13558E-25
5.78217E-01 2.08464E-25
5.82524E-01 2.03498E-25
5.86824E-01 1.98655E-25
5.91118E-01 1.93932E-25
5.95404E-01 1.89325E-25
5.99684E-01 1.84831E-25
6.03956E-01 1.80447E-25
6.08220E-01 1.76171E-25
6.12476E-01 1.71998E-25
6.16723E-01 1.67926E-25
6.20961E-01 1.63952E-25
6.25190E-01 1.60074E-25
6.29410E-01 1.56289E-25
6.33619E-01 1.52595E-25
6.37819E-01 1.48988E-25
6.42008E-01 1.45467E-25
6.46186E-01 1.42029E-25
6.50353E-01 1.38672E-25
6.54508E-01 1.35394E-25
6.58652E-01 1.32193E-25
6.62784E-01 1.29067E-25
6.66903E-01 1.26014E-25
6.71010E-01 1.23031E-25
6.75104E-01 1.20118E-25
6.79184E-01 1.17271E-25
6.83251E-01 1.14490E-25
6.87303E-01 1.11773E-25
6.91342E-01 1.09119E-25
6.95366E-01 1.06524E-25
6.99375E-01 1.03989E-25
7.03368E-01 1.01512E-25
7.07347E-01 9.90903E-26
7.11309E-01 9.67235E-26
7.15256E-01 9.44100E-26
7.19186E-01 9.21486E-26
7.23099E-01 8.99378E-26
7.26995E-01 8.77765E-26
7.30874E-01 8.56634E-26
7.34736E-01 8.35973E-26
7.38579E-01 8.15772E-26
7.42405E-01 7.96018E-26
7.46212E-01 7.76701E-26
7.50000E-01 7.57811E-26
7.53769E-01 7.39337E-26
7.57519E-01 7.21269E-26
7.61249E-01 7.03598E-26
7.64960E-01 6.86314E-26
7.68650E-01 6.69407E-26
7.72320E-01 6.52870E-26
7.75968E-01 6.36693E-26
7.79596E-01 6.20869E-26
7.83203E-01 6.05388E-26
7.86788E-01 5.90243E-26
7.90351E-01 5.75426E-26
7.93893E-01 5.60930E-26
7.97411E-01 5.46747E-26
8.00908E-01 5.32870E-26
8.04381E-01 5.19293E-26
8.07831E-01 5.06008E-26
8.11257E-01 4.93009E-26
8.14660E-01 4.80289E-26
8.18039E-01 4.67843E-26
8.21394E-01 4.55664E-26
8.24724E-01 4.43747E-26
8.28030E-01 4.32085E-26
8.31310E-01 4.20673E-26
8.34565E-01 4.09506E-26
8.37795E-01 3.98579E-26
8.40999E-01 3.87885E-26
8.44177E-01 3.77421E-26
8.47329E-01 3.67180E-26
8.50455E-01 3.57160E-26
8.53553E-01 3.47354E-26
8.56625E-01 3.37759E-26
8.59670E-01 3.28370E-26
8.62687E-01 3.19182E-26
8.65677E-01 3.10192E-26
8.68639E-01 3.01396E-26
8.71572E-01 2.92789E-26
8.74478E-01 2.84368E-26
8.77355E-01 2.76128E-26
8.80203E-01 2.68067E-26
8.83022E-01 2.60181E-26
8.85812E-01 2.52466E-26
8.88573E-01 2.44919E-26
8.91304E-01 2.37537E-26
8.94005E-01 2.30316E-26
8.96677E-01 2.23253E-26
8.99318E-01 2.16346E-26
9.01928E-01 2.09590E-26
9.04508E-01 2.02984E-26
9.07058E-01 1.96525E-26
9.09576E-01 1.90210E-26
9.12063E-01 1.84036E-26
9.14519E-01 1.78000E-26
9.16943E-01 1.72101E-26
9.19335E-01 1.66335E-26
9.21696E-01 1.60700E-26
9.24024E-01 1.55194E-26
9.26320E-01 1.49815E-26
9.28584E-01 1.44560E-26
9.30815E-01 1.39428E-26
9.33013E-01 1.34415E-26
9.35178E-01 1.29521E-26
9.37310E-01 1.24743E-26
9.39409E-01 1.20079E-26
9.41474E-01 1.15527E-26
9.43505E-01 1.11086E-26
9.45503E-01 1.06754E-26
9.47467E-01 1.02528E-26
9.49397E-01 9.84083E-27
9.51293E-01 9.43918E-27
9.53154E-01 9.04773E-27
9.54981E-01 8.66634E-27
9.56773E-01 8.29486E-27
9.58530E-01 7.93313E-27
9.60252E-01 7.58101E-27
9.61940E-01 7.23838E-27
9.63592E-01 6.90509E-27
9.65209E-01 6.58101E-27
9.66790E-01 6.26603E-27
9.68336E-01 5.96001E-27
9.69846E-01 5.66284E-27
9.71321E-01 5.37441E-27
9.72759E-01 5.09461E-27
9.74162E-01 4.82332E-27
9.75528E-01 4.56045E-27
9.76858E-01 4.30589E-27
9.78152E-01 4.05955E-27
9.79410E-01 3.82134E-27
9.80631E-01 3.59116E-27
9.81815E-01 3.36893E-27
9.82963E-01 3.15456E-27
9.84074E-01 2.94797E-27
9.85148E-01 2.74909E-27
9.86185E-01 2.55784E-27
9.87185E-01 2.37414E-27
9.88148E-01 2.19794E-27
9.89074E-01 2.02916E-27
9.89962E-01 1.86775E-27
9.90814E-01 1.71363E-27
9.91627E-01 1.56676E-27
9.92404E-01 1.42707E-27
9.93143E-01 1.29452E-27
9.93844E-01 1.16907E-27
9.94508E-01 1.05065E-27
9.95134E-01 9.39231E-28
9.95722E-01 8.34768E-28
9.96273E-01 7.37224E-28
9.96786E-01 6.46562E-28
9.97261E-01 5.62749E-28
9.97698E-01 4.85754E-28
9.98097E-01 4.15548E-28
9.98459E-01 3.52106E-28
9.98782E-01 2.95405E-28
9.99067E-01 2.45423E-28
9.99315E-01 2.02142E-28
9.99524E-01 1.65547E-28
9.99695E-01 1.35624E-28
9.99829E-01 1.12362E-28
9.99924E-01 9.57518E-29
9.99981E-01 8.57884E-29
1.00000E+00 8.24676E-29
