 #
 # Subroutine ELSEPA. Elastic scattering of electrons and positrons
 #                    by neutral atoms and positive ions
 #
 # Projectile: electron
 # Kinetic energy = 6.00000E+08 eV = 2.20496E+07 a.u.
 #
 # WARNING: High-energy factorization with free-atom DF screening.
 #          Absorption, polarization and exchange corrections are
 #          switched off.
 #          Phase shifts are calculated for the bare nucleus.
 #          Scattering amplitudes are not evaluated.
 #
 # Element: Sm,  Z =  62,  atomic weight = 1.50360E+02 g/mol
 #
 # Nuclear model: Fermi distribution
 #                Average radius = 5.68977E-13 cm
 #                Skin thickness = 5.46000E-14 cm
 #
 # Number of electrons = 62
 #
 # Total elastic cross section = 7.19948E-18 cm**2 = 2.57098E-01 a0**2
 # 1st transport cross section = 2.05903E-26 cm**2 = 7.35294E-10 a0**2
 # 2nd transport cross section = 6.17545E-26 cm**2 = 2.20529E-09 a0**2
 #
 #
 # Differential cross section:                       MU=(1-COS(THETA))/2
 #
 #  THETA        MU          DCS          DCS        Sherman      error
 #  (deg)                 (cm**2/sr)   (a0**2/sr)    function
 #----------------------------------------------------------------------
0.00000E+00 3.35307E-08
7.61557E-13 2.81460E-08
1.18994E-12 2.57262E-08
1.71346E-12 2.32216E-08
2.33225E-12 2.07704E-08
3.04617E-12 1.84703E-08
3.85530E-12 1.63783E-08
4.75964E-12 1.45187E-08
5.75917E-12 1.28938E-08
6.85391E-12 1.14886E-08
8.04379E-12 1.02773E-08
9.32893E-12 9.23484E-09
1.07092E-11 8.33650E-09
1.21847E-11 7.55960E-09
1.37554E-11 6.88433E-09
1.54213E-11 6.29383E-09
1.71823E-11 5.77410E-09
1.90386E-11 5.31358E-09
2.09900E-11 4.90291E-09
2.30367E-11 4.53406E-09
2.51785E-11 4.20112E-09
2.74156E-11 3.89925E-09
2.97478E-11 3.62443E-09
3.21752E-11 3.37336E-09
3.46979E-11 3.14329E-09
3.73157E-11 2.93196E-09
4.00286E-11 2.73742E-09
4.28368E-11 2.55803E-09
4.57402E-11 2.39238E-09
4.87388E-11 2.23916E-09
5.18325E-11 2.09713E-09
5.50215E-11 1.96560E-09
5.83057E-11 1.84373E-09
6.16850E-11 1.73071E-09
6.51595E-11 1.62197E-09
6.87293E-11 1.51786E-09
7.23943E-11 1.42353E-09
7.61544E-11 1.33787E-09
1.18991E-10 7.66274E-10
1.71347E-10 4.69558E-10
2.33223E-10 3.03744E-10
3.04617E-10 2.04576E-10
3.85531E-10 1.42085E-10
4.75965E-10 1.01220E-10
5.75917E-10 7.37392E-11
6.85389E-10 5.48731E-11
8.04380E-10 4.16891E-11
9.32891E-10 3.22862E-11
1.07092E-09 2.54442E-11
1.21847E-09 2.03673E-11
1.37554E-09 1.65289E-11
1.54213E-09 1.35801E-11
1.71823E-09 1.12682E-11
1.90386E-09 9.43399E-12
2.09900E-09 7.96364E-12
2.30367E-09 6.77043E-12
2.51785E-09 5.79267E-12
2.74156E-09 4.98411E-12
2.97478E-09 4.31012E-12
3.21752E-09 3.74454E-12
3.46978E-09 3.26733E-12
3.73156E-09 2.86274E-12
4.00286E-09 2.51822E-12
4.28368E-09 2.22358E-12
4.57402E-09 1.97050E-12
4.87388E-09 1.75216E-12
5.18326E-09 1.56293E-12
5.50215E-09 1.39839E-12
5.83057E-09 1.25483E-12
6.16850E-09 1.12915E-12
6.51596E-09 1.01855E-12
6.87293E-09 9.21078E-13
7.23942E-09 8.35355E-13
7.61544E-09 7.59703E-13
1.18991E-08 3.26419E-13
1.71347E-08 1.62963E-13
2.33223E-08 9.02346E-14
3.04617E-08 5.38941E-14
3.85531E-08 3.41175E-14
4.75965E-08 2.26235E-14
5.75917E-08 1.55807E-14
6.85389E-08 1.10739E-14
8.04380E-08 8.08378E-15
9.32891E-08 6.03777E-15
1.07092E-07 4.59995E-15
1.21847E-07 3.56577E-15
1.37554E-07 2.80665E-15
1.54213E-07 2.23930E-15
1.71823E-07 1.80839E-15
1.90386E-07 1.47636E-15
2.09900E-07 1.21718E-15
2.30367E-07 1.01249E-15
2.51785E-07 8.49081E-16
2.74156E-07 7.17354E-16
2.97478E-07 6.10213E-16
3.21752E-07 5.22351E-16
3.46978E-07 4.49748E-16
3.73156E-07 3.89330E-16
4.00286E-07 3.38724E-16
4.28368E-07 2.96079E-16
4.57402E-07 2.59936E-16
4.87388E-07 2.29142E-16
5.18325E-07 2.02775E-16
5.50215E-07 1.80093E-16
5.83057E-07 1.60494E-16
6.16850E-07 1.43488E-16
6.51596E-07 1.28676E-16
6.87293E-07 1.15726E-16
7.23942E-07 1.04364E-16
7.61543E-07 9.43621E-17
1.18991E-06 3.88000E-17
1.71347E-06 1.87538E-17
2.33223E-06 1.01376E-17
3.04617E-06 5.94847E-18
3.85531E-06 3.71636E-18
4.75964E-06 2.43972E-18
5.75916E-06 1.66715E-18
6.85388E-06 1.17759E-18
8.04378E-06 8.55256E-19
9.32888E-06 6.36054E-19
1.07092E-05 4.82797E-19
1.21846E-05 3.73048E-19
1.37553E-05 2.92790E-19
1.54212E-05 2.33005E-19
1.71822E-05 1.87733E-19
1.90385E-05 1.52877E-19
2.09899E-05 1.25861E-19
2.30365E-05 1.04547E-19
2.51783E-05 8.75416E-20
2.74153E-05 7.38437E-20
2.97475E-05 6.27163E-20
3.21749E-05 5.36081E-20
3.46974E-05 4.60988E-20
3.73152E-05 3.98645E-20
4.00281E-05 3.46533E-20
4.28362E-05 3.02685E-20
4.57395E-05 2.65560E-20
4.87380E-05 2.33949E-20
5.18317E-05 2.06893E-20
5.50205E-05 1.83630E-20
5.83045E-05 1.63545E-20
6.16838E-05 1.46134E-20
6.51582E-05 1.30986E-20
6.87277E-05 1.17755E-20
7.23925E-05 1.06157E-20
7.61524E-05 9.68480E-21
9.21439E-05 6.61878E-21
1.09658E-04 4.67369E-21
1.28695E-04 3.39224E-21
1.49255E-04 2.51981E-21
1.71338E-04 1.90958E-21
1.94942E-04 1.47233E-21
2.20070E-04 1.15249E-21
2.46720E-04 9.14236E-22
2.74892E-04 7.33835E-22
3.04586E-04 5.95280E-22
3.35803E-04 4.87462E-22
3.68542E-04 4.02586E-22
4.02802E-04 3.35058E-22
4.38585E-04 2.80814E-22
4.75889E-04 2.36858E-22
5.14715E-04 2.00949E-22
5.55063E-04 1.71399E-22
5.96931E-04 1.46915E-22
6.40321E-04 1.26500E-22
6.85233E-04 1.09379E-22
7.31665E-04 9.49417E-23
7.79618E-04 8.27071E-23
8.29092E-04 7.22899E-23
8.80086E-04 6.33813E-23
9.32601E-04 5.57316E-23
9.86636E-04 4.91376E-23
1.04219E-03 4.34332E-23
1.09927E-03 3.84817E-23
1.15786E-03 3.41700E-23
1.21797E-03 3.04041E-23
1.27961E-03 2.71059E-23
1.34276E-03 2.42094E-23
1.40743E-03 2.16593E-23
1.47362E-03 1.94090E-23
1.54133E-03 1.74187E-23
1.61056E-03 1.56546E-23
1.68131E-03 1.40880E-23
1.75357E-03 1.26940E-23
1.82735E-03 1.14514E-23
1.90265E-03 1.03418E-23
1.97947E-03 9.34954E-24
2.05780E-03 8.46072E-24
2.13765E-03 7.66343E-24
2.21902E-03 6.94726E-24
2.30190E-03 6.30313E-24
2.38630E-03 5.72305E-24
2.47222E-03 5.20006E-24
2.55965E-03 4.72801E-24
2.64859E-03 4.30149E-24
2.73905E-03 3.91573E-24
2.83103E-03 3.56649E-24
2.92452E-03 3.25004E-24
3.01952E-03 2.96305E-24
3.11604E-03 2.70258E-24
3.21407E-03 2.46600E-24
3.31362E-03 2.25096E-24
3.41468E-03 2.05536E-24
3.51725E-03 1.87735E-24
3.62133E-03 1.71523E-24
3.72692E-03 1.56752E-24
3.83403E-03 1.43285E-24
3.94265E-03 1.31002E-24
4.05278E-03 1.19794E-24
4.16442E-03 1.09562E-24
4.27757E-03 1.00217E-24
4.39223E-03 9.16795E-25
4.50840E-03 8.38773E-25
4.62608E-03 7.67445E-25
4.74527E-03 7.02221E-25
4.86597E-03 6.42563E-25
4.98817E-03 5.87983E-25
5.11188E-03 5.38040E-25
5.23711E-03 4.92331E-25
5.36383E-03 4.50491E-25
5.49207E-03 4.12187E-25
5.62181E-03 3.77118E-25
5.75306E-03 3.45007E-25
5.88581E-03 3.15603E-25
6.02007E-03 2.88677E-25
6.15583E-03 2.64019E-25
6.29310E-03 2.41439E-25
6.43187E-03 2.20762E-25
6.57214E-03 2.01828E-25
6.71392E-03 1.84492E-25
6.85720E-03 1.68620E-25
7.00198E-03 1.54090E-25
7.14827E-03 1.40789E-25
7.29605E-03 1.28616E-25
7.44534E-03 1.17477E-25
7.59612E-03 1.07286E-25
7.97965E-03 8.54515E-26
8.37255E-03 6.80010E-26
8.77480E-03 5.40764E-26
9.18641E-03 4.29853E-26
9.60736E-03 3.41689E-26
1.00376E-02 2.71757E-26
1.04773E-02 2.16413E-26
1.09262E-02 1.72714E-26
1.13844E-02 1.38290E-26
1.18520E-02 1.11230E-26
1.23288E-02 8.99978E-27
1.28150E-02 7.33619E-27
1.33104E-02 6.03362E-27
1.38150E-02 5.01341E-27
1.43290E-02 4.21302E-27
1.48521E-02 3.58292E-27
1.53845E-02 3.08411E-27
1.59262E-02 2.68598E-27
1.64770E-02 2.36470E-27
1.70371E-02 2.10182E-27
1.76063E-02 1.88320E-27
1.81848E-02 1.69805E-27
1.87724E-02 1.53827E-27
1.93692E-02 1.39781E-27
1.99751E-02 1.27225E-27
2.05901E-02 1.15839E-27
2.12143E-02 1.05393E-27
2.18476E-02 9.57307E-28
2.24900E-02 8.67434E-28
2.31415E-02 7.83594E-28
2.38021E-02 7.05324E-28
2.44717E-02 6.32324E-28
2.51504E-02 5.64398E-28
2.58382E-02 5.01410E-28
2.65349E-02 4.43247E-28
2.72407E-02 3.89799E-28
2.79555E-02 3.40947E-28
2.86793E-02 2.96551E-28
2.94120E-02 2.56447E-28
3.01537E-02 2.20450E-28
3.09043E-02 1.88351E-28
3.16639E-02 1.59923E-28
3.24324E-02 1.34925E-28
3.32098E-02 1.13104E-28
3.39961E-02 9.42026E-29
3.47912E-02 7.79629E-29
3.55952E-02 6.41281E-29
3.64081E-02 5.24482E-29
3.72297E-02 4.26822E-29
3.80602E-02 3.46007E-29
3.88995E-02 2.79881E-29
3.97476E-02 2.26436E-29
4.06044E-02 1.83824E-29
4.14700E-02 1.50362E-29
4.23443E-02 1.24532E-29
4.32273E-02 1.04980E-29
4.41190E-02 9.05114E-30
4.50194E-02 8.00845E-30
4.59284E-02 7.28003E-30
4.68461E-02 6.78941E-30
4.87074E-02 6.27597E-30
5.06030E-02 6.08181E-30
5.25328E-02 5.96305E-30
5.44967E-02 5.78374E-30
5.64946E-02 5.48507E-30
5.85262E-02 5.05941E-30
6.05914E-02 4.52958E-30
6.26901E-02 3.93318E-30
6.48222E-02 3.31152E-30
6.69873E-02 2.70245E-30
6.91854E-02 2.13632E-30
7.14163E-02 1.63431E-30
7.36799E-02 1.20844E-30
7.59760E-02 8.62626E-31
7.83043E-02 5.94291E-31
8.06647E-02 3.96212E-31
8.30571E-02 2.58296E-31
8.54812E-02 1.69137E-31
8.79369E-02 1.17263E-31
9.04240E-02 9.20428E-32
9.29422E-02 8.42717E-32
9.54915E-02 8.64724E-32
9.80716E-02 9.29664E-32
1.00682E-01 9.97761E-32
1.03323E-01 1.04415E-31
1.05995E-01 1.05618E-31
1.08696E-01 1.03045E-31
1.11427E-01 9.70061E-32
1.14188E-01 8.82042E-32
1.16978E-01 7.75328E-32
1.19797E-01 6.59146E-32
1.22645E-01 5.41910E-32
1.25522E-01 4.30530E-32
1.28428E-01 3.30089E-32
1.31361E-01 2.43794E-32
1.34323E-01 1.73126E-32
1.37313E-01 1.18124E-32
1.40330E-01 7.77214E-33
1.43375E-01 5.00985E-33
1.46447E-01 3.30131E-33
1.49545E-01 2.40808E-33
1.52671E-01 2.09964E-33
1.55823E-01 2.16921E-33
1.59001E-01 2.44340E-33
1.62205E-01 2.78677E-33
1.65435E-01 3.10194E-33
1.68690E-01 3.32674E-33
1.71970E-01 3.42913E-33
1.75276E-01 3.40113E-33
1.78606E-01 3.25240E-33
1.81961E-01 3.00415E-33
1.85340E-01 2.68374E-33
1.88743E-01 2.32033E-33
1.92169E-01 1.94152E-33
1.95619E-01 1.57112E-33
1.99092E-01 1.22783E-33
2.02589E-01 9.24746E-34
2.06107E-01 6.69524E-34
2.09649E-01 4.64941E-34
2.13212E-01 3.09767E-34
2.16797E-01 1.99760E-34
2.20404E-01 1.28668E-34
2.24032E-01 8.91607E-35
2.27680E-01 7.36221E-35
2.31350E-01 7.47742E-35
2.35040E-01 8.61284E-35
2.38751E-01 1.02265E-34
2.42481E-01 1.18964E-34
2.46231E-01 1.33212E-34
2.50000E-01 1.43114E-34
2.53788E-01 1.47748E-34
2.57595E-01 1.46974E-34
2.61421E-01 1.41239E-34
2.65264E-01 1.31380E-34
2.69126E-01 1.18452E-34
2.73005E-01 1.03582E-34
2.76901E-01 8.78531E-35
2.80814E-01 7.22207E-35
2.84744E-01 5.74648E-35
2.88691E-01 4.41640E-35
2.92653E-01 3.26932E-35
2.96632E-01 2.32390E-35
3.00625E-01 1.58248E-35
3.04634E-01 1.03441E-35
3.08658E-01 6.59515E-36
3.12697E-01 4.31539E-36
3.16749E-01 3.21230E-36
3.20816E-01 2.98969E-36
3.24896E-01 3.36825E-36
3.28990E-01 4.10030E-36
3.33097E-01 4.97892E-36
3.37216E-01 5.84229E-36
3.41348E-01 6.57381E-36
3.45492E-01 7.09912E-36
3.49647E-01 7.38096E-36
3.53814E-01 7.41257E-36
3.57992E-01 7.21068E-36
3.62181E-01 6.80849E-36
3.66381E-01 6.24914E-36
3.70590E-01 5.58014E-36
3.74810E-01 4.84873E-36
3.79039E-01 4.09846E-36
3.83277E-01 3.36674E-36
3.87524E-01 2.68348E-36
3.91780E-01 2.07051E-36
3.96044E-01 1.54176E-36
4.00316E-01 1.10390E-36
4.04596E-01 7.57335E-37
4.08882E-01 4.97463E-37
4.13176E-01 3.15935E-37
4.17476E-01 2.01921E-37
4.21783E-01 1.43267E-37
4.26095E-01 1.27479E-37
4.30413E-01 1.42535E-37
4.34737E-01 1.77474E-37
4.39065E-01 2.22814E-37
4.43398E-01 2.70780E-37
4.47736E-01 3.15372E-37
4.52077E-01 3.52325E-37
4.56422E-01 3.78965E-37
4.60770E-01 3.94006E-37
4.65122E-01 3.97301E-37
4.69476E-01 3.89596E-37
4.73832E-01 3.72277E-37
4.78190E-01 3.47129E-37
4.82550E-01 3.16147E-37
4.86912E-01 2.81348E-37
4.91274E-01 2.44653E-37
4.95637E-01 2.07782E-37
5.00000E-01 1.72181E-37
5.04363E-01 1.39005E-37
5.08726E-01 1.09095E-37
5.13088E-01 8.29921E-38
5.17450E-01 6.09672E-38
5.21810E-01 4.30536E-38
5.26168E-01 1.00000E-45
5.30524E-01 1.00000E-45
5.34878E-01 1.00000E-45
5.39230E-01 1.00000E-45
5.43578E-01 1.00000E-45
5.47923E-01 1.00000E-45
5.52264E-01 1.00000E-45
5.56602E-01 1.00000E-45
5.60935E-01 1.00000E-45
5.65263E-01 1.00000E-45
5.69587E-01 1.00000E-45
5.73905E-01 1.00000E-45
5.78217E-01 1.00000E-45
5.82524E-01 1.00000E-45
5.86824E-01 1.00000E-45
5.91118E-01 1.00000E-45
5.95404E-01 1.00000E-45
5.99684E-01 1.00000E-45
6.03956E-01 1.00000E-45
6.08220E-01 1.00000E-45
6.12476E-01 1.00000E-45
6.16723E-01 1.00000E-45
6.20961E-01 1.00000E-45
6.25190E-01 1.00000E-45
6.29410E-01 1.00000E-45
6.33619E-01 1.00000E-45
6.37819E-01 1.00000E-45
6.42008E-01 1.00000E-45
6.46186E-01 1.00000E-45
6.50353E-01 1.00000E-45
6.54508E-01 1.00000E-45
6.58652E-01 1.00000E-45
6.62784E-01 1.00000E-45
6.66903E-01 1.00000E-45
6.71010E-01 1.00000E-45
6.75104E-01 1.00000E-45
6.79184E-01 1.00000E-45
6.83251E-01 1.00000E-45
6.87303E-01 1.00000E-45
6.91342E-01 1.00000E-45
6.95366E-01 1.00000E-45
6.99375E-01 1.00000E-45
7.03368E-01 1.00000E-45
7.07347E-01 1.00000E-45
7.11309E-01 1.00000E-45
7.15256E-01 1.00000E-45
7.19186E-01 1.00000E-45
7.23099E-01 1.00000E-45
7.26995E-01 1.00000E-45
7.30874E-01 1.00000E-45
7.34736E-01 1.00000E-45
7.38579E-01 1.00000E-45
7.42405E-01 1.00000E-45
7.46212E-01 1.00000E-45
7.50000E-01 1.00000E-45
7.53769E-01 1.00000E-45
7.57519E-01 1.00000E-45
7.61249E-01 1.00000E-45
7.64960E-01 1.00000E-45
7.68650E-01 1.00000E-45
7.72320E-01 1.00000E-45
7.75968E-01 1.00000E-45
7.79596E-01 1.00000E-45
7.83203E-01 1.00000E-45
7.86788E-01 1.00000E-45
7.90351E-01 1.00000E-45
7.93893E-01 1.00000E-45
7.97411E-01 1.00000E-45
8.00908E-01 1.00000E-45
8.04381E-01 1.00000E-45
8.07831E-01 1.00000E-45
8.11257E-01 1.00000E-45
8.14660E-01 1.00000E-45
8.18039E-01 1.00000E-45
8.21394E-01 1.00000E-45
8.24724E-01 1.00000E-45
8.28030E-01 1.00000E-45
8.31310E-01 1.00000E-45
8.34565E-01 1.00000E-45
8.37795E-01 1.00000E-45
8.40999E-01 1.00000E-45
8.44177E-01 1.00000E-45
8.47329E-01 1.00000E-45
8.50455E-01 1.00000E-45
8.53553E-01 1.00000E-45
8.56625E-01 1.00000E-45
8.59670E-01 1.00000E-45
8.62687E-01 1.00000E-45
8.65677E-01 1.00000E-45
8.68639E-01 1.00000E-45
8.71572E-01 1.00000E-45
8.74478E-01 1.00000E-45
8.77355E-01 1.00000E-45
8.80203E-01 1.00000E-45
8.83022E-01 1.00000E-45
8.85812E-01 1.00000E-45
8.88573E-01 1.00000E-45
8.91304E-01 1.00000E-45
8.94005E-01 1.00000E-45
8.96677E-01 1.00000E-45
8.99318E-01 1.00000E-45
9.01928E-01 1.00000E-45
9.04508E-01 1.00000E-45
9.07058E-01 1.00000E-45
9.09576E-01 1.00000E-45
9.12063E-01 1.00000E-45
9.14519E-01 1.00000E-45
9.16943E-01 1.00000E-45
9.19335E-01 1.00000E-45
9.21696E-01 1.00000E-45
9.24024E-01 1.00000E-45
9.26320E-01 1.00000E-45
9.28584E-01 1.00000E-45
9.30815E-01 1.00000E-45
9.33013E-01 1.00000E-45
9.35178E-01 1.00000E-45
9.37310E-01 1.00000E-45
9.39409E-01 1.00000E-45
9.41474E-01 1.00000E-45
9.43505E-01 1.00000E-45
9.45503E-01 1.00000E-45
9.47467E-01 1.00000E-45
9.49397E-01 1.00000E-45
9.51293E-01 1.00000E-45
9.53154E-01 1.00000E-45
9.54981E-01 1.00000E-45
9.56773E-01 1.00000E-45
9.58530E-01 1.00000E-45
9.60252E-01 1.00000E-45
9.61940E-01 1.00000E-45
9.63592E-01 1.00000E-45
9.65209E-01 1.00000E-45
9.66790E-01 1.00000E-45
9.68336E-01 1.00000E-45
9.69846E-01 1.00000E-45
9.71321E-01 1.00000E-45
9.72759E-01 1.00000E-45
9.74162E-01 1.00000E-45
9.75528E-01 1.00000E-45
9.76858E-01 1.00000E-45
9.78152E-01 1.00000E-45
9.79410E-01 1.00000E-45
9.80631E-01 1.00000E-45
9.81815E-01 1.00000E-45
9.82963E-01 1.00000E-45
9.84074E-01 1.00000E-45
9.85148E-01 1.00000E-45
9.86185E-01 1.00000E-45
9.87185E-01 1.00000E-45
9.88148E-01 1.00000E-45
9.89074E-01 1.00000E-45
9.89962E-01 1.00000E-45
9.90814E-01 1.00000E-45
9.91627E-01 1.00000E-45
9.92404E-01 1.00000E-45
9.93143E-01 1.00000E-45
9.93844E-01 1.00000E-45
9.94508E-01 1.00000E-45
9.95134E-01 1.00000E-45
9.95722E-01 1.00000E-45
9.96273E-01 1.00000E-45
9.96786E-01 1.00000E-45
9.97261E-01 1.00000E-45
9.97698E-01 1.00000E-45
9.98097E-01 1.00000E-45
9.98459E-01 1.00000E-45
9.98782E-01 1.00000E-45
9.99067E-01 1.00000E-45
9.99315E-01 1.00000E-45
9.99524E-01 1.00000E-45
9.99695E-01 1.00000E-45
9.99829E-01 1.00000E-45
9.99924E-01 1.00000E-45
9.99981E-01 1.00000E-45
1.00000E+00 1.00000E-45
