 #
 # Subroutine ELSEPA. Elastic scattering of electrons and positrons
 #                    by neutral atoms and positive ions
 #
 # Projectile: electron
 # Kinetic energy = 9.00000E+07 eV = 3.30744E+06 a.u.
 #
 # WARNING: High-energy factorization with free-atom DF screening.
 #          Absorption, polarization and exchange corrections are
 #          switched off.
 #          Phase shifts are calculated for the bare nucleus.
 #          Scattering amplitudes are not evaluated.
 #
 # Element: Sm,  Z =  62,  atomic weight = 1.50360E+02 g/mol
 #
 # Nuclear model: Fermi distribution
 #                Average radius = 5.68977E-13 cm
 #                Skin thickness = 5.46000E-14 cm
 #
 # Number of electrons = 62
 #
 # Total elastic cross section = 7.22594E-18 cm**2 = 2.58043E-01 a0**2
 # 1st transport cross section = 9.14612E-25 cm**2 = 3.26614E-08 a0**2
 # 2nd transport cross section = 2.71809E-24 cm**2 = 9.70646E-08 a0**2
 #
 #
 # Differential cross section:                       MU=(1-COS(THETA))/2
 #
 #  THETA        MU          DCS          DCS        Sherman      error
 #  (deg)                 (cm**2/sr)   (a0**2/sr)    function
 #----------------------------------------------------------------------
0.00000E+00 7.61733E-10
7.61557E-13 7.58522E-10
1.18994E-12 7.56728E-10
1.71346E-12 7.54546E-10
2.33225E-12 7.51980E-10
3.04617E-12 7.49038E-10
3.85530E-12 7.45726E-10
4.75964E-12 7.42054E-10
5.75917E-12 7.38029E-10
6.85391E-12 7.33663E-10
8.04379E-12 7.28966E-10
9.32893E-12 7.23948E-10
1.07092E-11 7.18623E-10
1.21847E-11 7.13002E-10
1.37554E-11 7.07097E-10
1.54213E-11 7.00925E-10
1.71823E-11 6.94496E-10
1.90386E-11 6.87826E-10
2.09900E-11 6.80929E-10
2.30367E-11 6.73819E-10
2.51785E-11 6.66511E-10
2.74156E-11 6.59021E-10
2.97478E-11 6.51420E-10
3.21752E-11 6.43664E-10
3.46979E-11 6.35738E-10
3.73157E-11 6.27656E-10
4.00286E-11 6.19429E-10
4.28368E-11 6.11071E-10
4.57402E-11 6.02744E-10
4.87388E-11 5.94380E-10
5.18325E-11 5.85920E-10
5.50215E-11 5.77377E-10
5.83057E-11 5.68761E-10
6.16850E-11 5.60083E-10
6.51595E-11 5.51517E-10
6.87293E-11 5.43006E-10
7.23943E-11 5.34464E-10
7.61544E-11 5.25899E-10
1.18991E-10 4.43300E-10
1.71347E-10 3.70113E-10
2.33223E-10 3.09003E-10
3.04617E-10 2.59311E-10
3.85531E-10 2.19649E-10
4.75965E-10 1.88030E-10
5.75917E-10 1.62585E-10
6.85389E-10 1.41902E-10
8.04380E-10 1.24812E-10
9.32891E-10 1.10494E-10
1.07092E-09 9.83108E-11
1.21847E-09 8.78309E-11
1.37554E-09 7.87434E-11
1.54213E-09 7.07657E-11
1.71823E-09 6.37510E-11
1.90386E-09 5.75584E-11
2.09900E-09 5.20444E-11
2.30367E-09 4.71505E-11
2.51785E-09 4.27926E-11
2.74156E-09 3.88938E-11
2.97478E-09 3.52140E-11
3.21752E-09 3.19612E-11
3.46978E-09 2.91468E-11
3.73156E-09 2.67000E-11
4.00286E-09 2.45631E-11
4.28368E-09 2.26885E-11
4.57402E-09 2.08486E-11
4.87388E-09 1.91497E-11
5.18326E-09 1.76511E-11
5.50215E-09 1.63241E-11
5.83057E-09 1.51450E-11
6.16850E-09 1.40937E-11
6.51596E-09 1.30819E-11
6.87293E-09 1.21366E-11
7.23942E-09 1.12896E-11
7.61544E-09 1.05283E-11
1.18991E-08 5.56212E-12
1.71347E-08 3.18067E-12
2.33223E-08 1.92386E-12
3.04617E-08 1.22629E-12
3.85531E-08 8.18098E-13
4.75965E-08 5.68624E-13
5.75917E-08 4.09467E-13
6.85389E-08 3.03537E-13
8.04380E-08 2.30133E-13
9.32891E-08 1.77945E-13
1.07092E-07 1.39810E-13
1.21847E-07 1.11340E-13
1.37554E-07 8.96975E-14
1.54213E-07 7.29677E-14
1.71823E-07 5.99238E-14
1.90386E-07 4.96488E-14
2.09900E-07 4.14626E-14
2.30367E-07 3.48885E-14
2.51785E-07 2.95595E-14
2.74156E-07 2.52034E-14
2.97478E-07 2.16098E-14
3.21752E-07 1.86460E-14
3.46978E-07 1.61786E-14
3.73156E-07 1.40997E-14
4.00286E-07 1.23538E-14
4.28368E-07 1.08629E-14
4.57402E-07 9.59481E-15
4.87388E-07 8.50694E-15
5.18325E-07 7.56849E-15
5.50215E-07 6.75906E-15
5.83057E-07 6.05192E-15
6.16850E-07 5.43721E-15
6.51596E-07 4.89797E-15
6.87293E-07 4.42418E-15
7.23942E-07 4.00713E-15
7.61543E-07 3.63705E-15
1.18991E-06 1.54353E-15
1.71347E-06 7.61439E-16
2.33223E-06 4.17237E-16
3.04617E-06 2.47180E-16
3.85531E-06 1.55542E-16
4.75964E-06 1.02696E-16
5.75916E-06 7.05103E-17
6.85388E-06 5.00071E-17
8.04378E-06 3.64470E-17
9.32888E-06 2.71893E-17
1.07092E-05 2.06943E-17
1.21846E-05 1.60287E-17
1.37553E-05 1.26072E-17
1.54212E-05 1.00521E-17
1.71822E-05 8.11275E-18
1.90385E-05 6.61650E-18
2.09899E-05 5.45466E-18
2.30365E-05 4.53645E-18
2.51783E-05 3.80275E-18
2.74153E-05 3.21088E-18
2.97475E-05 2.72946E-18
3.21749E-05 2.33495E-18
3.46974E-05 2.00934E-18
3.73152E-05 1.73875E-18
4.00281E-05 1.51237E-18
4.28362E-05 1.32172E-18
4.57395E-05 1.16020E-18
4.87380E-05 1.02256E-18
5.18317E-05 9.04680E-19
5.50205E-05 8.03267E-19
5.83045E-05 7.15657E-19
6.16838E-05 6.39676E-19
6.51582E-05 5.73536E-19
6.87277E-05 5.15748E-19
7.23925E-05 4.65073E-19
7.61524E-05 4.20796E-19
9.21439E-05 2.87912E-19
1.09658E-04 2.03591E-19
1.28695E-04 1.48032E-19
1.49255E-04 1.10201E-19
1.71338E-04 8.37343E-20
1.94942E-04 6.47629E-20
2.20070E-04 5.08789E-20
2.46720E-04 4.05290E-20
2.74892E-04 3.26851E-20
3.04586E-04 2.66535E-20
3.35803E-04 2.19533E-20
3.68542E-04 1.82468E-20
4.02802E-04 1.52921E-20
4.38585E-04 1.29130E-20
4.75889E-04 1.09802E-20
5.14715E-04 9.39664E-21
5.55063E-04 8.08922E-21
5.96931E-04 7.00201E-21
6.40321E-04 6.09196E-21
6.85233E-04 5.32544E-21
7.31665E-04 4.67612E-21
7.79618E-04 4.12308E-21
8.29092E-04 3.64968E-21
8.80086E-04 3.24251E-21
9.32601E-04 2.89075E-21
9.86636E-04 2.58557E-21
1.04219E-03 2.31975E-21
1.09927E-03 2.08734E-21
1.15786E-03 1.88342E-21
1.21797E-03 1.70388E-21
1.27961E-03 1.54531E-21
1.34276E-03 1.40483E-21
1.40743E-03 1.28001E-21
1.47362E-03 1.16879E-21
1.54133E-03 1.06944E-21
1.61056E-03 9.80465E-22
1.68131E-03 9.00584E-22
1.75357E-03 8.28703E-22
1.82735E-03 7.63877E-22
1.90265E-03 7.05290E-22
1.97947E-03 6.52232E-22
2.05780E-03 6.04088E-22
2.13765E-03 5.60321E-22
2.21902E-03 5.20460E-22
2.30190E-03 4.84092E-22
2.38630E-03 4.50857E-22
2.47222E-03 4.20435E-22
2.55965E-03 3.92544E-22
2.64859E-03 3.66935E-22
2.73905E-03 3.43387E-22
2.83103E-03 3.21704E-22
2.92452E-03 3.01709E-22
3.01952E-03 2.83246E-22
3.11604E-03 2.66177E-22
3.21407E-03 2.50378E-22
3.31362E-03 2.35736E-22
3.41468E-03 2.22152E-22
3.51725E-03 2.09533E-22
3.62133E-03 1.97800E-22
3.72692E-03 1.86878E-22
3.83403E-03 1.76700E-22
3.94265E-03 1.67207E-22
4.05278E-03 1.58344E-22
4.16442E-03 1.50061E-22
4.27757E-03 1.42312E-22
4.39223E-03 1.35058E-22
4.50840E-03 1.28260E-22
4.62608E-03 1.21885E-22
4.74527E-03 1.15901E-22
4.86597E-03 1.10279E-22
4.98817E-03 1.04994E-22
5.11188E-03 1.00022E-22
5.23711E-03 9.53396E-23
5.36383E-03 9.09282E-23
5.49207E-03 8.67686E-23
5.62181E-03 8.28436E-23
5.75306E-03 7.91377E-23
5.88581E-03 7.56362E-23
6.02007E-03 7.23257E-23
6.15583E-03 6.91938E-23
6.29310E-03 6.62291E-23
6.43187E-03 6.34209E-23
6.57214E-03 6.07594E-23
6.71392E-03 5.82355E-23
6.85720E-03 5.58407E-23
7.00198E-03 5.35672E-23
7.14827E-03 5.14076E-23
7.29605E-03 4.93551E-23
7.44534E-03 4.74035E-23
7.59612E-03 4.55468E-23
7.97965E-03 4.12852E-23
8.37255E-03 3.75072E-23
8.77480E-03 3.41483E-23
9.18641E-03 3.11539E-23
9.60736E-03 2.84776E-23
1.00376E-02 2.60796E-23
1.04773E-02 2.39258E-23
1.09262E-02 2.19872E-23
1.13844E-02 2.02383E-23
1.18520E-02 1.86574E-23
1.23288E-02 1.72254E-23
1.28150E-02 1.59260E-23
1.33104E-02 1.47446E-23
1.38150E-02 1.36687E-23
1.43290E-02 1.26871E-23
1.48521E-02 1.17902E-23
1.53845E-02 1.09694E-23
1.59262E-02 1.02171E-23
1.64770E-02 9.52655E-24
1.70371E-02 8.89183E-24
1.76063E-02 8.30764E-24
1.81848E-02 7.76925E-24
1.87724E-02 7.27246E-24
1.93692E-02 6.81348E-24
1.99751E-02 6.38895E-24
2.05901E-02 5.99584E-24
2.12143E-02 5.63141E-24
2.18476E-02 5.29323E-24
2.24900E-02 4.97908E-24
2.31415E-02 4.68695E-24
2.38021E-02 4.41505E-24
2.44717E-02 4.16174E-24
2.51504E-02 3.92553E-24
2.58382E-02 3.70508E-24
2.65349E-02 3.49915E-24
2.72407E-02 3.30664E-24
2.79555E-02 3.12652E-24
2.86793E-02 2.95787E-24
2.94120E-02 2.79983E-24
3.01537E-02 2.65163E-24
3.09043E-02 2.51256E-24
3.16639E-02 2.38196E-24
3.24324E-02 2.25923E-24
3.32098E-02 2.14383E-24
3.39961E-02 2.03525E-24
3.47912E-02 1.93302E-24
3.55952E-02 1.83671E-24
3.64081E-02 1.74592E-24
3.72297E-02 1.66029E-24
3.80602E-02 1.57948E-24
3.88995E-02 1.50318E-24
3.97476E-02 1.43110E-24
4.06044E-02 1.36297E-24
4.14700E-02 1.29853E-24
4.23443E-02 1.23757E-24
4.32273E-02 1.17986E-24
4.41190E-02 1.12520E-24
4.50194E-02 1.07342E-24
4.59284E-02 1.02433E-24
4.68461E-02 9.77784E-25
4.87074E-02 8.91706E-25
5.06030E-02 8.14104E-25
5.25328E-02 7.44034E-25
5.44967E-02 6.80672E-25
5.64946E-02 6.23293E-25
5.85262E-02 5.71263E-25
6.05914E-02 5.24021E-25
6.26901E-02 4.81075E-25
6.48222E-02 4.41987E-25
6.69873E-02 4.06372E-25
6.91854E-02 3.73885E-25
7.14163E-02 3.44222E-25
7.36799E-02 3.17111E-25
7.59760E-02 2.92308E-25
7.83043E-02 2.69597E-25
8.06647E-02 2.48784E-25
8.30571E-02 2.29694E-25
8.54812E-02 2.12171E-25
8.79369E-02 1.96075E-25
9.04240E-02 1.81278E-25
9.29422E-02 1.67666E-25
9.54915E-02 1.55137E-25
9.80716E-02 1.43597E-25
1.00682E-01 1.32961E-25
1.03323E-01 1.23154E-25
1.05995E-01 1.14105E-25
1.08696E-01 1.05752E-25
1.11427E-01 9.80378E-26
1.14188E-01 9.09096E-26
1.16978E-01 8.43200E-26
1.19797E-01 7.82260E-26
1.22645E-01 7.25878E-26
1.25522E-01 6.73694E-26
1.28428E-01 6.25378E-26
1.31361E-01 5.80627E-26
1.34323E-01 5.39164E-26
1.37313E-01 5.00737E-26
1.40330E-01 4.65112E-26
1.43375E-01 4.32076E-26
1.46447E-01 4.01432E-26
1.49545E-01 3.73001E-26
1.52671E-01 3.46616E-26
1.55823E-01 3.22125E-26
1.59001E-01 2.99387E-26
1.62205E-01 2.78274E-26
1.65435E-01 2.58664E-26
1.68690E-01 2.40449E-26
1.71970E-01 2.23526E-26
1.75276E-01 2.07802E-26
1.78606E-01 1.93190E-26
1.81961E-01 1.79610E-26
1.85340E-01 1.66988E-26
1.88743E-01 1.55254E-26
1.92169E-01 1.44346E-26
1.95619E-01 1.34204E-26
1.99092E-01 1.24775E-26
2.02589E-01 1.16008E-26
2.06107E-01 1.07855E-26
2.09649E-01 1.00274E-26
2.13212E-01 9.32248E-27
2.16797E-01 8.66694E-27
2.20404E-01 8.05734E-27
2.24032E-01 7.49046E-27
2.27680E-01 6.96331E-27
2.31350E-01 6.47313E-27
2.35040E-01 6.01732E-27
2.38751E-01 5.59349E-27
2.42481E-01 5.19942E-27
2.46231E-01 4.83303E-27
2.50000E-01 4.49240E-27
2.53788E-01 4.17574E-27
2.57595E-01 3.88137E-27
2.61421E-01 3.60776E-27
2.65264E-01 3.35345E-27
2.69126E-01 3.11711E-27
2.73005E-01 2.89749E-27
2.76901E-01 2.69341E-27
2.80814E-01 2.50381E-27
2.84744E-01 2.32767E-27
2.88691E-01 2.16405E-27
2.92653E-01 2.01209E-27
2.96632E-01 1.87095E-27
3.00625E-01 1.73990E-27
3.04634E-01 1.61822E-27
3.08658E-01 1.50526E-27
3.12697E-01 1.40040E-27
3.16749E-01 1.30307E-27
3.20816E-01 1.21275E-27
3.24896E-01 1.12894E-27
3.28990E-01 1.05118E-27
3.33097E-01 9.79044E-28
3.37216E-01 9.12128E-28
3.41348E-01 8.50063E-28
3.45492E-01 7.92503E-28
3.49647E-01 7.39128E-28
3.53814E-01 6.89636E-28
3.57992E-01 6.43750E-28
3.62181E-01 6.01211E-28
3.66381E-01 5.61775E-28
3.70590E-01 5.25221E-28
3.74810E-01 4.91337E-28
3.79039E-01 4.59930E-28
3.83277E-01 4.30819E-28
3.87524E-01 4.03837E-28
3.91780E-01 3.78826E-28
3.96044E-01 3.55643E-28
4.00316E-01 3.34151E-28
4.04596E-01 3.14226E-28
4.08882E-01 2.95752E-28
4.13176E-01 2.78619E-28
4.17476E-01 2.62729E-28
4.21783E-01 2.47987E-28
4.26095E-01 2.34307E-28
4.30413E-01 2.21610E-28
4.34737E-01 2.09820E-28
4.39065E-01 1.98869E-28
4.43398E-01 1.88693E-28
4.47736E-01 1.79232E-28
4.52077E-01 1.70433E-28
4.56422E-01 1.62243E-28
4.60770E-01 1.54616E-28
4.65122E-01 1.47509E-28
4.69476E-01 1.40882E-28
4.73832E-01 1.34696E-28
4.78190E-01 1.28918E-28
4.82550E-01 1.23516E-28
4.86912E-01 1.18461E-28
4.91274E-01 1.13725E-28
4.95637E-01 1.09284E-28
5.00000E-01 1.05114E-28
5.04363E-01 1.01194E-28
5.08726E-01 9.75055E-29
5.13088E-01 9.40291E-29
5.17450E-01 9.07488E-29
5.21810E-01 8.76492E-29
5.26168E-01 8.47162E-29
5.30524E-01 8.19370E-29
5.34878E-01 7.92996E-29
5.39230E-01 7.67933E-29
5.43578E-01 7.44079E-29
5.47923E-01 7.21343E-29
5.52264E-01 6.99641E-29
5.56602E-01 6.78895E-29
5.60935E-01 6.59036E-29
5.65263E-01 6.39998E-29
5.69587E-01 6.21723E-29
5.73905E-01 6.04157E-29
5.78217E-01 5.87249E-29
5.82524E-01 5.70955E-29
5.86824E-01 5.55234E-29
5.91118E-01 5.40049E-29
5.95404E-01 5.25364E-29
5.99684E-01 5.11149E-29
6.03956E-01 4.97375E-29
6.08220E-01 4.84016E-29
6.12476E-01 4.71049E-29
6.16723E-01 4.58452E-29
6.20961E-01 4.46206E-29
6.25190E-01 4.34292E-29
6.29410E-01 4.22695E-29
6.33619E-01 4.11400E-29
6.37819E-01 4.00393E-29
6.42008E-01 3.89661E-29
6.46186E-01 3.79195E-29
6.50353E-01 3.68983E-29
6.54508E-01 3.59017E-29
6.58652E-01 3.49287E-29
6.62784E-01 3.39787E-29
6.66903E-01 3.30508E-29
6.71010E-01 3.21444E-29
6.75104E-01 3.12590E-29
6.79184E-01 3.03939E-29
6.83251E-01 2.95487E-29
6.87303E-01 2.87228E-29
6.91342E-01 2.79158E-29
6.95366E-01 2.71274E-29
6.99375E-01 2.63570E-29
7.03368E-01 2.56043E-29
7.07347E-01 2.48691E-29
7.11309E-01 2.41508E-29
7.15256E-01 2.34493E-29
7.19186E-01 2.27642E-29
7.23099E-01 2.20953E-29
7.26995E-01 2.14422E-29
7.30874E-01 2.08046E-29
7.34736E-01 2.01823E-29
7.38579E-01 1.95751E-29
7.42405E-01 1.89827E-29
7.46212E-01 1.84048E-29
7.50000E-01 1.78412E-29
7.53769E-01 1.72916E-29
7.57519E-01 1.67559E-29
7.61249E-01 1.62336E-29
7.64960E-01 1.57248E-29
7.68650E-01 1.52290E-29
7.72320E-01 1.47461E-29
7.75968E-01 1.42758E-29
7.79596E-01 1.38179E-29
7.83203E-01 1.33721E-29
7.86788E-01 1.29383E-29
7.90351E-01 1.25163E-29
7.93893E-01 1.21057E-29
7.97411E-01 1.17063E-29
8.00908E-01 1.13180E-29
8.04381E-01 1.09406E-29
8.07831E-01 1.05737E-29
8.11257E-01 1.02172E-29
8.14660E-01 9.87080E-30
8.18039E-01 9.53437E-30
8.21394E-01 9.20766E-30
8.24724E-01 8.89046E-30
8.28030E-01 8.58254E-30
8.31310E-01 8.28370E-30
8.34565E-01 7.99373E-30
8.37795E-01 7.71242E-30
8.40999E-01 7.43957E-30
8.44177E-01 7.17497E-30
8.47329E-01 6.91843E-30
8.50455E-01 6.66974E-30
8.53553E-01 6.42871E-30
8.56625E-01 6.19515E-30
8.59670E-01 5.96887E-30
8.62687E-01 5.74967E-30
8.65677E-01 5.53738E-30
8.68639E-01 5.33181E-30
8.71572E-01 5.13278E-30
8.74478E-01 4.94012E-30
8.77355E-01 4.75365E-30
8.80203E-01 4.57321E-30
8.83022E-01 4.39863E-30
8.85812E-01 4.22974E-30
8.88573E-01 4.06638E-30
8.91304E-01 3.90840E-30
8.94005E-01 3.75565E-30
8.96677E-01 3.60796E-30
8.99318E-01 3.46520E-30
9.01928E-01 3.32722E-30
9.04508E-01 3.19388E-30
9.07058E-01 3.06504E-30
9.09576E-01 2.94057E-30
9.12063E-01 2.82033E-30
9.14519E-01 2.70420E-30
9.16943E-01 2.59206E-30
9.19335E-01 2.48377E-30
9.21696E-01 2.37922E-30
9.24024E-01 2.27830E-30
9.26320E-01 2.18090E-30
9.28584E-01 2.08690E-30
9.30815E-01 1.99619E-30
9.33013E-01 1.90868E-30
9.35178E-01 1.82426E-30
9.37310E-01 1.74283E-30
9.39409E-01 1.66431E-30
9.41474E-01 1.58859E-30
9.43505E-01 1.51559E-30
9.45503E-01 1.44523E-30
9.47467E-01 1.37741E-30
9.49397E-01 1.31205E-30
9.51293E-01 1.24909E-30
9.53154E-01 1.18843E-30
9.54981E-01 1.13001E-30
9.56773E-01 1.07375E-30
9.58530E-01 1.01959E-30
9.60252E-01 9.67461E-31
9.61940E-01 9.17293E-31
9.63592E-01 8.69026E-31
9.65209E-01 8.22601E-31
9.66790E-01 7.77959E-31
9.68336E-01 7.35044E-31
9.69846E-01 6.93802E-31
9.71321E-01 6.54181E-31
9.72759E-01 6.16130E-31
9.74162E-01 5.79602E-31
9.75528E-01 5.44550E-31
9.76858E-01 5.10930E-31
9.78152E-01 4.78698E-31
9.79410E-01 4.47813E-31
9.80631E-01 4.18237E-31
9.81815E-01 3.89930E-31
9.82963E-01 3.62857E-31
9.84074E-01 3.36983E-31
9.85148E-01 3.12275E-31
9.86185E-01 2.88701E-31
9.87185E-01 2.66231E-31
9.88148E-01 2.44836E-31
9.89074E-01 2.24488E-31
9.89962E-01 2.05161E-31
9.90814E-01 1.86830E-31
9.91627E-01 1.69473E-31
9.92404E-01 1.53065E-31
9.93143E-01 1.37587E-31
9.93844E-01 1.23018E-31
9.94508E-01 1.09340E-31
9.95134E-01 9.65345E-32
9.95722E-01 8.45858E-32
9.96273E-01 7.34781E-32
9.96786E-01 6.31973E-32
9.97261E-01 5.37301E-32
9.97698E-01 4.50643E-32
9.98097E-01 3.71889E-32
9.98459E-01 3.00937E-32
9.98782E-01 2.37696E-32
9.99067E-01 1.82085E-32
9.99315E-01 1.34032E-32
9.99524E-01 9.34758E-33
9.99695E-01 6.03640E-33
9.99829E-01 3.46543E-33
9.99924E-01 1.63138E-33
9.99981E-01 5.31894E-34
1.00000E+00 1.65540E-34
