 #
 # Subroutine ELSEPA. Elastic scattering of electrons and positrons
 #                    by neutral atoms and positive ions
 #
 # Projectile: electron
 # Kinetic energy = 2.50000E+07 eV = 9.18733E+05 a.u.
 #
 # WARNING: High-energy factorization with free-atom DF screening.
 #          Absorption, polarization and exchange corrections are
 #          switched off.
 #          Phase shifts are calculated for the bare nucleus.
 #          Scattering amplitudes are not evaluated.
 #
 # Element: Sm,  Z =  62,  atomic weight = 1.50360E+02 g/mol
 #
 # Nuclear model: Fermi distribution
 #                Average radius = 5.68977E-13 cm
 #                Skin thickness = 5.46000E-14 cm
 #
 # Number of electrons = 62
 #
 # Total elastic cross section = 7.23056E-18 cm**2 = 2.58208E-01 a0**2
 # 1st transport cross section = 1.12901E-23 cm**2 = 4.03176E-07 a0**2
 # 2nd transport cross section = 3.22976E-23 cm**2 = 1.15337E-06 a0**2
 #
 #
 # Differential cross section:                       MU=(1-COS(THETA))/2
 #
 #  THETA        MU          DCS          DCS        Sherman      error
 #  (deg)                 (cm**2/sr)   (a0**2/sr)    function
 #----------------------------------------------------------------------
0.00000E+00 6.05139E-11
7.61557E-13 6.04935E-11
1.18994E-12 6.04820E-11
1.71346E-12 6.04681E-11
2.33225E-12 6.04516E-11
3.04617E-12 6.04326E-11
3.85530E-12 6.04110E-11
4.75964E-12 6.03870E-11
5.75917E-12 6.03605E-11
6.85391E-12 6.03314E-11
8.04379E-12 6.02999E-11
9.32893E-12 6.02658E-11
1.07092E-11 6.02293E-11
1.21847E-11 6.01903E-11
1.37554E-11 6.01488E-11
1.54213E-11 6.01049E-11
1.71823E-11 6.00585E-11
1.90386E-11 6.00097E-11
2.09900E-11 5.99585E-11
2.30367E-11 5.99048E-11
2.51785E-11 5.98487E-11
2.74156E-11 5.97902E-11
2.97478E-11 5.97294E-11
3.21752E-11 5.96661E-11
3.46979E-11 5.96005E-11
3.73157E-11 5.95326E-11
4.00286E-11 5.94623E-11
4.28368E-11 5.93897E-11
4.57402E-11 5.93148E-11
4.87388E-11 5.92376E-11
5.18325E-11 5.91581E-11
5.50215E-11 5.90763E-11
5.83057E-11 5.89924E-11
6.16850E-11 5.89061E-11
6.51595E-11 5.88177E-11
6.87293E-11 5.87271E-11
7.23943E-11 5.86343E-11
7.61544E-11 5.85394E-11
1.18991E-10 5.74754E-11
1.71347E-10 5.62179E-11
2.33223E-10 5.47900E-11
3.04617E-10 5.32163E-11
3.85531E-10 5.15293E-11
4.75965E-10 4.97461E-11
5.75917E-10 4.78852E-11
6.85389E-10 4.59940E-11
8.04380E-10 4.40609E-11
9.32891E-10 4.21522E-11
1.07092E-09 4.02314E-11
1.21847E-09 3.83732E-11
1.37554E-09 3.65336E-11
1.54213E-09 3.47708E-11
1.71823E-09 3.30548E-11
1.90386E-09 3.14195E-11
2.09900E-09 2.98514E-11
2.30367E-09 2.83604E-11
2.51785E-09 2.69492E-11
2.74156E-09 2.56074E-11
2.97478E-09 2.43513E-11
3.21752E-09 2.31553E-11
3.46978E-09 2.20453E-11
3.73156E-09 2.09862E-11
4.00286E-09 2.00093E-11
4.28368E-09 1.90785E-11
4.57402E-09 1.82166E-11
4.87388E-09 1.74000E-11
5.18326E-09 1.66391E-11
5.50215E-09 1.59218E-11
5.83057E-09 1.52494E-11
6.16850E-09 1.46174E-11
6.51596E-09 1.40221E-11
6.87293E-09 1.34629E-11
7.23942E-09 1.29343E-11
7.61544E-09 1.24372E-11
1.18991E-08 8.68441E-12
1.71347E-08 6.31812E-12
2.33223E-08 4.70113E-12
3.04617E-08 3.55273E-12
3.85531E-08 2.69975E-12
4.75965E-08 2.08907E-12
5.75917E-08 1.65673E-12
6.85389E-08 1.31545E-12
8.04380E-08 1.06906E-12
9.32891E-08 8.68872E-13
1.07092E-07 7.20284E-13
1.21847E-07 5.97032E-13
1.37554E-07 5.02126E-13
1.54213E-07 4.23113E-13
1.71823E-07 3.59902E-13
1.90386E-07 3.07201E-13
2.09900E-07 2.63754E-13
2.30367E-07 2.27527E-13
2.51785E-07 1.96987E-13
2.74156E-07 1.71490E-13
2.97478E-07 1.49661E-13
3.21752E-07 1.31369E-13
3.46978E-07 1.15543E-13
3.73156E-07 1.02202E-13
4.00286E-07 9.05727E-14
4.28368E-07 8.06712E-14
4.57402E-07 7.20314E-14
4.87388E-07 6.45819E-14
5.18325E-07 5.80664E-14
5.50215E-07 5.23867E-14
5.83057E-07 4.73982E-14
6.16850E-07 4.30085E-14
6.51596E-07 3.91339E-14
6.87293E-07 3.56947E-14
7.23942E-07 3.26445E-14
7.61543E-07 2.99144E-14
1.18991E-06 1.38312E-14
1.71347E-06 7.27075E-15
2.33223E-06 4.15257E-15
3.04617E-06 2.53305E-15
3.85531E-06 1.62805E-15
4.75964E-06 1.09471E-15
5.75916E-06 7.63463E-16
6.85388E-06 5.48939E-16
8.04378E-06 4.04828E-16
9.32888E-06 3.05127E-16
1.07092E-05 2.34354E-16
1.21846E-05 1.82973E-16
1.37553E-05 1.44930E-16
1.54212E-05 1.16273E-16
1.71822E-05 9.43455E-17
1.90385E-05 7.73063E-17
2.09899E-05 6.39969E-17
2.30365E-05 5.34214E-17
2.51783E-05 4.49297E-17
2.74153E-05 3.80497E-17
2.97475E-05 3.24312E-17
3.21749E-05 2.78100E-17
3.46974E-05 2.39843E-17
3.73152E-05 2.07963E-17
4.00281E-05 1.81224E-17
4.28362E-05 1.58655E-17
4.57395E-05 1.39491E-17
4.87380E-05 1.23128E-17
5.18317E-05 1.09089E-17
5.50205E-05 9.69905E-18
5.83045E-05 8.65227E-18
6.16838E-05 7.74314E-18
6.51582E-05 6.95064E-18
6.87277E-05 6.25726E-18
7.23925E-05 5.64848E-18
7.61524E-05 5.11246E-18
9.21439E-05 3.51056E-18
1.09658E-04 2.49008E-18
1.28695E-04 1.81539E-18
1.49255E-04 1.35458E-18
1.71338E-04 1.03132E-18
1.94942E-04 7.99048E-19
2.20070E-04 6.28692E-19
2.46720E-04 5.01452E-19
2.74892E-04 4.04853E-19
3.04586E-04 3.30461E-19
3.35803E-04 2.72409E-19
3.68542E-04 2.26577E-19
4.02802E-04 1.90001E-19
4.38585E-04 1.60524E-19
4.75889E-04 1.36556E-19
5.14715E-04 1.16905E-19
5.55063E-04 1.00670E-19
5.96931E-04 8.71621E-20
6.40321E-04 7.58496E-20
6.85233E-04 6.63174E-20
7.31665E-04 5.82395E-20
7.79618E-04 5.13575E-20
8.29092E-04 4.54648E-20
8.80086E-04 4.03955E-20
9.32601E-04 3.60151E-20
9.86636E-04 3.22142E-20
1.04219E-03 2.89031E-20
1.09927E-03 2.60079E-20
1.15786E-03 2.34673E-20
1.21797E-03 2.12304E-20
1.27961E-03 1.92547E-20
1.34276E-03 1.75043E-20
1.40743E-03 1.59491E-20
1.47362E-03 1.45634E-20
1.54133E-03 1.33256E-20
1.61056E-03 1.22170E-20
1.68131E-03 1.12218E-20
1.75357E-03 1.03264E-20
1.82735E-03 9.51883E-21
1.90265E-03 8.78906E-21
1.97947E-03 8.12822E-21
2.05780E-03 7.52863E-21
2.13765E-03 6.98359E-21
2.21902E-03 6.48722E-21
2.30190E-03 6.03441E-21
2.38630E-03 5.62062E-21
2.47222E-03 5.24189E-21
2.55965E-03 4.89470E-21
2.64859E-03 4.57595E-21
2.73905E-03 4.28288E-21
2.83103E-03 4.01303E-21
2.92452E-03 3.76423E-21
3.01952E-03 3.53452E-21
3.11604E-03 3.32219E-21
3.21407E-03 3.12566E-21
3.31362E-03 2.94355E-21
3.41468E-03 2.77460E-21
3.51725E-03 2.61768E-21
3.62133E-03 2.47177E-21
3.72692E-03 2.33595E-21
3.83403E-03 2.20940E-21
3.94265E-03 2.09137E-21
4.05278E-03 1.98118E-21
4.16442E-03 1.87820E-21
4.27757E-03 1.78188E-21
4.39223E-03 1.69169E-21
4.50840E-03 1.60719E-21
4.62608E-03 1.52794E-21
4.74527E-03 1.45355E-21
4.86597E-03 1.38367E-21
4.98817E-03 1.31798E-21
5.11188E-03 1.25617E-21
5.23711E-03 1.19797E-21
5.36383E-03 1.14314E-21
5.49207E-03 1.09143E-21
5.62181E-03 1.04263E-21
5.75306E-03 9.96564E-22
5.88581E-03 9.53032E-22
6.02007E-03 9.11874E-22
6.15583E-03 8.72933E-22
6.29310E-03 8.36067E-22
6.43187E-03 8.01145E-22
6.57214E-03 7.68046E-22
6.71392E-03 7.36655E-22
6.85720E-03 7.06867E-22
7.00198E-03 6.78584E-22
7.14827E-03 6.51715E-22
7.29605E-03 6.26176E-22
7.44534E-03 6.01888E-22
7.59612E-03 5.78778E-22
7.97965E-03 5.25723E-22
8.37255E-03 4.78667E-22
8.77480E-03 4.36811E-22
9.18641E-03 3.99478E-22
9.60736E-03 3.66089E-22
1.00376E-02 3.36153E-22
1.04773E-02 3.09248E-22
1.09262E-02 2.85010E-22
1.13844E-02 2.63127E-22
1.18520E-02 2.43327E-22
1.23288E-02 2.25376E-22
1.28150E-02 2.09069E-22
1.33104E-02 1.94227E-22
1.38150E-02 1.80694E-22
1.43290E-02 1.68334E-22
1.48521E-02 1.57024E-22
1.53845E-02 1.46661E-22
1.59262E-02 1.37148E-22
1.64770E-02 1.28404E-22
1.70371E-02 1.20354E-22
1.76063E-02 1.12932E-22
1.81848E-02 1.06081E-22
1.87724E-02 9.97482E-23
1.93692E-02 9.38867E-23
1.99751E-02 8.84546E-23
2.05901E-02 8.34146E-23
2.12143E-02 7.87330E-23
2.18476E-02 7.43792E-23
2.24900E-02 7.03260E-23
2.31415E-02 6.65485E-23
2.38021E-02 6.30244E-23
2.44717E-02 5.97333E-23
2.51504E-02 5.66568E-23
2.58382E-02 5.37783E-23
2.65349E-02 5.10825E-23
2.72407E-02 4.85555E-23
2.79555E-02 4.61847E-23
2.86793E-02 4.39586E-23
2.94120E-02 4.18665E-23
3.01537E-02 3.98989E-23
3.09043E-02 3.80468E-23
3.16639E-02 3.63022E-23
3.24324E-02 3.46575E-23
3.32098E-02 3.31060E-23
3.39961E-02 3.16413E-23
3.47912E-02 3.02576E-23
3.55952E-02 2.89495E-23
3.64081E-02 2.77121E-23
3.72297E-02 2.65406E-23
3.80602E-02 2.54309E-23
3.88995E-02 2.43792E-23
3.97476E-02 2.33819E-23
4.06044E-02 2.24354E-23
4.14700E-02 2.15369E-23
4.23443E-02 2.06832E-23
4.32273E-02 1.98718E-23
4.41190E-02 1.91001E-23
4.50194E-02 1.83659E-23
4.59284E-02 1.76668E-23
4.68461E-02 1.70009E-23
4.87074E-02 1.57614E-23
5.06030E-02 1.46335E-23
5.25328E-02 1.36053E-23
5.44967E-02 1.26663E-23
5.64946E-02 1.18073E-23
5.85262E-02 1.10202E-23
6.05914E-02 1.02978E-23
6.26901E-02 9.63377E-24
6.48222E-02 9.02254E-24
6.69873E-02 8.45909E-24
6.91854E-02 7.93896E-24
7.14163E-02 7.45819E-24
7.36799E-02 7.01323E-24
7.59760E-02 6.60091E-24
7.83043E-02 6.21836E-24
8.06647E-02 5.86303E-24
8.30571E-02 5.53261E-24
8.54812E-02 5.22502E-24
8.79369E-02 4.93839E-24
9.04240E-02 4.67100E-24
9.29422E-02 4.42132E-24
9.54915E-02 4.18796E-24
9.80716E-02 3.96965E-24
1.00682E-01 3.76522E-24
1.03323E-01 3.57363E-24
1.05995E-01 3.39392E-24
1.08696E-01 3.22521E-24
1.11427E-01 3.06671E-24
1.14188E-01 2.91766E-24
1.16978E-01 2.77742E-24
1.19797E-01 2.64535E-24
1.22645E-01 2.52089E-24
1.25522E-01 2.40352E-24
1.28428E-01 2.29276E-24
1.31361E-01 2.18817E-24
1.34323E-01 2.08934E-24
1.37313E-01 1.99589E-24
1.40330E-01 1.90748E-24
1.43375E-01 1.82379E-24
1.46447E-01 1.74450E-24
1.49545E-01 1.66936E-24
1.52671E-01 1.59810E-24
1.55823E-01 1.53049E-24
1.59001E-01 1.46631E-24
1.62205E-01 1.40534E-24
1.65435E-01 1.34740E-24
1.68690E-01 1.29231E-24
1.71970E-01 1.23991E-24
1.75276E-01 1.19004E-24
1.78606E-01 1.14256E-24
1.81961E-01 1.09733E-24
1.85340E-01 1.05422E-24
1.88743E-01 1.01312E-24
1.92169E-01 9.73922E-25
1.95619E-01 9.36516E-25
1.99092E-01 9.00809E-25
2.02589E-01 8.66708E-25
2.06107E-01 8.34130E-25
2.09649E-01 8.02995E-25
2.13212E-01 7.73227E-25
2.16797E-01 7.44756E-25
2.20404E-01 7.17515E-25
2.24032E-01 6.91443E-25
2.27680E-01 6.66481E-25
2.31350E-01 6.42573E-25
2.35040E-01 6.19667E-25
2.38751E-01 5.97714E-25
2.42481E-01 5.76668E-25
2.46231E-01 5.56485E-25
2.50000E-01 5.37124E-25
2.53788E-01 5.18546E-25
2.57595E-01 5.00713E-25
2.61421E-01 4.83591E-25
2.65264E-01 4.67148E-25
2.69126E-01 4.51351E-25
2.73005E-01 4.36171E-25
2.76901E-01 4.21580E-25
2.80814E-01 4.07551E-25
2.84744E-01 3.94060E-25
2.88691E-01 3.81083E-25
2.92653E-01 3.68596E-25
2.96632E-01 3.56579E-25
3.00625E-01 3.45011E-25
3.04634E-01 3.33872E-25
3.08658E-01 3.23144E-25
3.12697E-01 3.12810E-25
3.16749E-01 3.02853E-25
3.20816E-01 2.93257E-25
3.24896E-01 2.84006E-25
3.28990E-01 2.75088E-25
3.33097E-01 2.66487E-25
3.37216E-01 2.58191E-25
3.41348E-01 2.50188E-25
3.45492E-01 2.42465E-25
3.49647E-01 2.35011E-25
3.53814E-01 2.27816E-25
3.57992E-01 2.20869E-25
3.62181E-01 2.14161E-25
3.66381E-01 2.07682E-25
3.70590E-01 2.01423E-25
3.74810E-01 1.95375E-25
3.79039E-01 1.89531E-25
3.83277E-01 1.83882E-25
3.87524E-01 1.78421E-25
3.91780E-01 1.73142E-25
3.96044E-01 1.68036E-25
4.00316E-01 1.63098E-25
4.04596E-01 1.58322E-25
4.08882E-01 1.53700E-25
4.13176E-01 1.49229E-25
4.17476E-01 1.44901E-25
4.21783E-01 1.40713E-25
4.26095E-01 1.36658E-25
4.30413E-01 1.32732E-25
4.34737E-01 1.28930E-25
4.39065E-01 1.25248E-25
4.43398E-01 1.21681E-25
4.47736E-01 1.18227E-25
4.52077E-01 1.14879E-25
4.56422E-01 1.11635E-25
4.60770E-01 1.08492E-25
4.65122E-01 1.05445E-25
4.69476E-01 1.02491E-25
4.73832E-01 9.96278E-26
4.78190E-01 9.68512E-26
4.82550E-01 9.41586E-26
4.86912E-01 9.15472E-26
4.91274E-01 8.90142E-26
4.95637E-01 8.65569E-26
5.00000E-01 8.41728E-26
5.04363E-01 8.18596E-26
5.08726E-01 7.96147E-26
5.13088E-01 7.74360E-26
5.17450E-01 7.53212E-26
5.21810E-01 7.32684E-26
5.26168E-01 7.12753E-26
5.30524E-01 6.93402E-26
5.34878E-01 6.74611E-26
5.39230E-01 6.56362E-26
5.43578E-01 6.38638E-26
5.47923E-01 6.21422E-26
5.52264E-01 6.04697E-26
5.56602E-01 5.88448E-26
5.60935E-01 5.72661E-26
5.65263E-01 5.57319E-26
5.69587E-01 5.42411E-26
5.73905E-01 5.27921E-26
5.78217E-01 5.13837E-26
5.82524E-01 5.00146E-26
5.86824E-01 4.86836E-26
5.91118E-01 4.73896E-26
5.95404E-01 4.61313E-26
5.99684E-01 4.49078E-26
6.03956E-01 4.37179E-26
6.08220E-01 4.25607E-26
6.12476E-01 4.14350E-26
6.16723E-01 4.03401E-26
6.20961E-01 3.92749E-26
6.25190E-01 3.82386E-26
6.29410E-01 3.72303E-26
6.33619E-01 3.62491E-26
6.37819E-01 3.52944E-26
6.42008E-01 3.43652E-26
6.46186E-01 3.34609E-26
6.50353E-01 3.25807E-26
6.54508E-01 3.17238E-26
6.58652E-01 3.08898E-26
6.62784E-01 3.00777E-26
6.66903E-01 2.92871E-26
6.71010E-01 2.85173E-26
6.75104E-01 2.77677E-26
6.79184E-01 2.70378E-26
6.83251E-01 2.63269E-26
6.87303E-01 2.56345E-26
6.91342E-01 2.49601E-26
6.95366E-01 2.43033E-26
6.99375E-01 2.36634E-26
7.03368E-01 2.30400E-26
7.07347E-01 2.24327E-26
7.11309E-01 2.18410E-26
7.15256E-01 2.12645E-26
7.19186E-01 2.07027E-26
7.23099E-01 2.01553E-26
7.26995E-01 1.96218E-26
7.30874E-01 1.91018E-26
7.34736E-01 1.85951E-26
7.38579E-01 1.81012E-26
7.42405E-01 1.76198E-26
7.46212E-01 1.71505E-26
7.50000E-01 1.66930E-26
7.53769E-01 1.62471E-26
7.57519E-01 1.58123E-26
7.61249E-01 1.53884E-26
7.64960E-01 1.49751E-26
7.68650E-01 1.45721E-26
7.72320E-01 1.41791E-26
7.75968E-01 1.37959E-26
7.79596E-01 1.34222E-26
7.83203E-01 1.30578E-26
7.86788E-01 1.27024E-26
7.90351E-01 1.23558E-26
7.93893E-01 1.20177E-26
7.97411E-01 1.16879E-26
8.00908E-01 1.13663E-26
8.04381E-01 1.10526E-26
8.07831E-01 1.07466E-26
8.11257E-01 1.04481E-26
8.14660E-01 1.01568E-26
8.18039E-01 9.87276E-27
8.21394E-01 9.59562E-27
8.24724E-01 9.32524E-27
8.28030E-01 9.06146E-27
8.31310E-01 8.80411E-27
8.34565E-01 8.55303E-27
8.37795E-01 8.30806E-27
8.40999E-01 8.06906E-27
8.44177E-01 7.83586E-27
8.47329E-01 7.60833E-27
8.50455E-01 7.38632E-27
8.53553E-01 7.16971E-27
8.56625E-01 6.95837E-27
8.59670E-01 6.75215E-27
8.62687E-01 6.55094E-27
8.65677E-01 6.35461E-27
8.68639E-01 6.16306E-27
8.71572E-01 5.97616E-27
8.74478E-01 5.79380E-27
8.77355E-01 5.61588E-27
8.80203E-01 5.44229E-27
8.83022E-01 5.27293E-27
8.85812E-01 5.10770E-27
8.88573E-01 4.94649E-27
8.91304E-01 4.78923E-27
8.94005E-01 4.63582E-27
8.96677E-01 4.48616E-27
8.99318E-01 4.34018E-27
9.01928E-01 4.19779E-27
9.04508E-01 4.05890E-27
9.07058E-01 3.92344E-27
9.09576E-01 3.79134E-27
9.12063E-01 3.66251E-27
9.14519E-01 3.53689E-27
9.16943E-01 3.41440E-27
9.19335E-01 3.29498E-27
9.21696E-01 3.17856E-27
9.24024E-01 3.06507E-27
9.26320E-01 2.95445E-27
9.28584E-01 2.84665E-27
9.30815E-01 2.74159E-27
9.33013E-01 2.63923E-27
9.35178E-01 2.53950E-27
9.37310E-01 2.44236E-27
9.39409E-01 2.34775E-27
9.41474E-01 2.25561E-27
9.43505E-01 2.16591E-27
9.45503E-01 2.07858E-27
9.47467E-01 1.99359E-27
9.49397E-01 1.91089E-27
9.51293E-01 1.83043E-27
9.53154E-01 1.75217E-27
9.54981E-01 1.67606E-27
9.56773E-01 1.60208E-27
9.58530E-01 1.53018E-27
9.60252E-01 1.46032E-27
9.61940E-01 1.39246E-27
9.63592E-01 1.32657E-27
9.65209E-01 1.26262E-27
9.66790E-01 1.20057E-27
9.68336E-01 1.14038E-27
9.69846E-01 1.08204E-27
9.71321E-01 1.02550E-27
9.72759E-01 9.70734E-28
9.74162E-01 9.17722E-28
9.75528E-01 8.66431E-28
9.76858E-01 8.16836E-28
9.78152E-01 7.68911E-28
9.79410E-01 7.22631E-28
9.80631E-01 6.77973E-28
9.81815E-01 6.34914E-28
9.82963E-01 5.93433E-28
9.84074E-01 5.53507E-28
9.85148E-01 5.15116E-28
9.86185E-01 4.78242E-28
9.87185E-01 4.42865E-28
9.88148E-01 4.08967E-28
9.89074E-01 3.76532E-28
9.89962E-01 3.45543E-28
9.90814E-01 3.15984E-28
9.91627E-01 2.87841E-28
9.92404E-01 2.61099E-28
9.93143E-01 2.35745E-28
9.93844E-01 2.11766E-28
9.94508E-01 1.89151E-28
9.95134E-01 1.67887E-28
9.95722E-01 1.47965E-28
9.96273E-01 1.29374E-28
9.96786E-01 1.12105E-28
9.97261E-01 9.61489E-29
9.97698E-01 8.14987E-29
9.98097E-01 6.81468E-29
9.98459E-01 5.60863E-29
9.98782E-01 4.53114E-29
9.99067E-01 3.58167E-29
9.99315E-01 2.75974E-29
9.99524E-01 2.06496E-29
9.99695E-01 1.49696E-29
9.99829E-01 1.05548E-29
9.99924E-01 7.40299E-30
9.99981E-01 5.51250E-30
1.00000E+00 4.88244E-30
