 #
 # Subroutine ELSEPA. Elastic scattering of electrons and positrons
 #                    by neutral atoms and positive ions
 #
 # Projectile: electron
 # Kinetic energy = 9.00000E+06 eV = 3.30744E+05 a.u.
 #
 # WARNING: High-energy factorization with free-atom DF screening.
 #          Absorption, polarization and exchange corrections are
 #          switched off.
 #          Phase shifts are calculated for the bare nucleus.
 #          Scattering amplitudes are not evaluated.
 #
 # Element: Sm,  Z =  62,  atomic weight = 1.50360E+02 g/mol
 #
 # Nuclear model: Fermi distribution
 #                Average radius = 5.68977E-13 cm
 #                Skin thickness = 5.46000E-14 cm
 #
 # Number of electrons = 62
 #
 # Total elastic cross section = 7.25095E-18 cm**2 = 2.58936E-01 a0**2
 # 1st transport cross section = 7.46023E-23 cm**2 = 2.66410E-06 a0**2
 # 2nd transport cross section = 2.07676E-22 cm**2 = 7.41626E-06 a0**2
 #
 #
 # Differential cross section:                       MU=(1-COS(THETA))/2
 #
 #  THETA        MU          DCS          DCS        Sherman      error
 #  (deg)                 (cm**2/sr)   (a0**2/sr)    function
 #----------------------------------------------------------------------
0.00000E+00 8.41109E-12
7.61557E-13 8.41070E-12
1.18994E-12 8.41048E-12
1.71346E-12 8.41021E-12
2.33225E-12 8.40989E-12
3.04617E-12 8.40952E-12
3.85530E-12 8.40911E-12
4.75964E-12 8.40864E-12
5.75917E-12 8.40813E-12
6.85391E-12 8.40756E-12
8.04379E-12 8.40695E-12
9.32893E-12 8.40629E-12
1.07092E-11 8.40558E-12
1.21847E-11 8.40483E-12
1.37554E-11 8.40402E-12
1.54213E-11 8.40317E-12
1.71823E-11 8.40226E-12
1.90386E-11 8.40131E-12
2.09900E-11 8.40031E-12
2.30367E-11 8.39926E-12
2.51785E-11 8.39817E-12
2.74156E-11 8.39702E-12
2.97478E-11 8.39583E-12
3.21752E-11 8.39458E-12
3.46979E-11 8.39329E-12
3.73157E-11 8.39195E-12
4.00286E-11 8.39057E-12
4.28368E-11 8.38913E-12
4.57402E-11 8.38765E-12
4.87388E-11 8.38611E-12
5.18325E-11 8.38453E-12
5.50215E-11 8.38290E-12
5.83057E-11 8.38123E-12
6.16850E-11 8.37950E-12
6.51595E-11 8.37773E-12
6.87293E-11 8.37591E-12
7.23943E-11 8.37404E-12
7.61544E-11 8.37213E-12
1.18991E-10 8.35035E-12
1.71347E-10 8.32386E-12
2.33223E-10 8.29274E-12
3.04617E-10 8.25707E-12
3.85531E-10 8.21695E-12
4.75965E-10 8.17249E-12
5.75917E-10 8.12380E-12
6.85389E-10 8.07104E-12
8.04380E-10 8.01432E-12
9.32891E-10 7.95381E-12
1.07092E-09 7.88965E-12
1.21847E-09 7.82202E-12
1.37554E-09 7.75107E-12
1.54213E-09 7.67699E-12
1.71823E-09 7.59996E-12
1.90386E-09 7.52016E-12
2.09900E-09 7.43776E-12
2.30367E-09 7.35296E-12
2.51785E-09 7.26596E-12
2.74156E-09 7.17772E-12
2.97478E-09 7.08744E-12
3.21752E-09 6.99513E-12
3.46978E-09 6.90097E-12
3.73156E-09 6.80510E-12
4.00286E-09 6.70797E-12
4.28368E-09 6.61172E-12
4.57402E-09 6.51424E-12
4.87388E-09 6.41567E-12
5.18326E-09 6.31617E-12
5.50215E-09 6.21586E-12
5.83057E-09 6.11589E-12
6.16850E-09 6.01741E-12
6.51596E-09 5.91850E-12
6.87293E-09 5.81930E-12
7.23942E-09 5.71991E-12
7.61544E-09 5.62044E-12
1.18991E-08 4.68524E-12
1.71347E-08 3.87444E-12
2.33223E-08 3.20848E-12
3.04617E-08 2.67889E-12
3.85531E-08 2.26127E-12
4.75965E-08 1.93052E-12
5.75917E-08 1.66604E-12
6.85389E-08 1.45138E-12
8.04380E-08 1.27400E-12
9.32891E-08 1.12524E-12
1.07092E-07 9.98751E-13
1.21847E-07 8.89676E-13
1.37554E-07 7.95059E-13
1.54213E-07 7.12437E-13
1.71823E-07 6.39791E-13
1.90386E-07 5.75648E-13
2.09900E-07 5.18995E-13
2.30367E-07 4.68839E-13
2.51785E-07 4.24239E-13
2.74156E-07 3.81988E-13
2.97478E-07 3.45420E-13
3.21752E-07 3.13968E-13
3.46978E-07 2.86776E-13
3.73156E-07 2.63148E-13
4.00286E-07 2.42147E-13
4.28368E-07 2.21027E-13
4.57402E-07 2.02550E-13
4.87388E-07 1.86318E-13
5.18325E-07 1.71999E-13
5.50215E-07 1.59322E-13
5.83057E-07 1.47605E-13
6.16850E-07 1.36338E-13
6.51596E-07 1.26304E-13
6.87293E-07 1.17338E-13
7.23942E-07 1.09302E-13
7.61543E-07 1.02078E-13
1.18991E-06 5.31701E-14
1.71347E-06 3.00987E-14
2.33223E-06 1.81189E-14
3.04617E-06 1.14965E-14
3.85531E-06 7.66061E-15
4.75964E-06 5.32726E-15
5.75916E-06 3.83793E-15
6.85388E-06 2.84369E-15
8.04378E-06 2.15473E-15
9.32888E-06 1.66459E-15
1.07092E-05 1.30636E-15
1.21846E-05 1.03829E-15
1.37553E-05 8.34747E-16
1.54212E-05 6.78169E-16
1.71822E-05 5.56295E-16
1.90385E-05 4.60209E-16
2.09899E-05 3.84236E-16
2.30365E-05 3.23188E-16
2.51783E-05 2.73671E-16
2.74153E-05 2.33100E-16
2.97475E-05 1.99935E-16
3.21749E-05 1.72439E-16
3.46974E-05 1.49531E-16
3.73152E-05 1.30372E-16
4.00281E-05 1.14151E-16
4.28362E-05 1.00451E-16
4.57395E-05 8.87004E-17
4.87380E-05 7.86564E-17
5.18317E-05 6.99797E-17
5.50205E-05 6.24705E-17
5.83045E-05 5.59501E-17
6.16838E-05 5.02504E-17
6.51582E-05 4.52771E-17
6.87277E-05 4.08891E-17
7.23925E-05 3.70337E-17
7.61524E-05 3.36171E-17
9.21439E-05 2.33354E-17
1.09658E-04 1.66954E-17
1.28695E-04 1.22578E-17
1.49255E-04 9.19951E-18
1.71338E-04 7.03754E-18
1.94942E-04 5.47370E-18
2.20070E-04 4.32090E-18
2.46720E-04 3.45615E-18
2.74892E-04 2.79718E-18
3.04586E-04 2.28807E-18
3.35803E-04 1.88977E-18
3.68542E-04 1.57458E-18
4.02802E-04 1.32250E-18
4.38585E-04 1.11898E-18
4.75889E-04 9.53229E-19
5.14715E-04 8.17119E-19
5.55063E-04 7.04503E-19
5.96931E-04 6.10683E-19
6.40321E-04 5.32012E-19
6.85233E-04 4.65644E-19
7.31665E-04 4.09334E-19
7.79618E-04 3.61308E-19
8.29092E-04 3.20144E-19
8.80086E-04 2.84695E-19
9.32601E-04 2.54033E-19
9.86636E-04 2.27402E-19
1.04219E-03 2.04183E-19
1.09927E-03 1.83861E-19
1.15786E-03 1.66014E-19
1.21797E-03 1.50288E-19
1.27961E-03 1.36387E-19
1.34276E-03 1.24061E-19
1.40743E-03 1.13102E-19
1.47362E-03 1.03331E-19
1.54133E-03 9.45960E-20
1.61056E-03 8.67683E-20
1.68131E-03 7.97369E-20
1.75357E-03 7.34062E-20
1.82735E-03 6.76940E-20
1.90265E-03 6.25288E-20
1.97947E-03 5.78491E-20
2.05780E-03 5.36010E-20
2.13765E-03 4.97374E-20
2.21902E-03 4.62172E-20
2.30190E-03 4.30045E-20
2.38630E-03 4.00674E-20
2.47222E-03 3.73780E-20
2.55965E-03 3.49115E-20
2.64859E-03 3.26463E-20
2.73905E-03 3.05627E-20
2.83103E-03 2.86436E-20
2.92452E-03 2.68737E-20
3.01952E-03 2.52390E-20
3.11604E-03 2.37275E-20
3.21407E-03 2.23282E-20
3.31362E-03 2.10311E-20
3.41468E-03 1.98274E-20
3.51725E-03 1.87091E-20
3.62133E-03 1.76691E-20
3.72692E-03 1.67007E-20
3.83403E-03 1.57983E-20
3.94265E-03 1.49564E-20
4.05278E-03 1.41702E-20
4.16442E-03 1.34354E-20
4.27757E-03 1.27480E-20
4.39223E-03 1.21042E-20
4.50840E-03 1.15009E-20
4.62608E-03 1.09350E-20
4.74527E-03 1.04038E-20
4.86597E-03 9.90464E-21
4.98817E-03 9.43534E-21
5.11188E-03 8.99373E-21
5.23711E-03 8.57785E-21
5.36383E-03 8.18596E-21
5.49207E-03 7.81638E-21
5.62181E-03 7.46760E-21
5.75306E-03 7.13823E-21
5.88581E-03 6.82699E-21
6.02007E-03 6.53268E-21
6.15583E-03 6.25421E-21
6.29310E-03 5.99056E-21
6.43187E-03 5.74079E-21
6.57214E-03 5.50403E-21
6.71392E-03 5.27947E-21
6.85720E-03 5.06637E-21
7.00198E-03 4.86401E-21
7.14827E-03 4.67177E-21
7.29605E-03 4.48903E-21
7.44534E-03 4.31522E-21
7.59612E-03 4.14985E-21
7.97965E-03 3.77012E-21
8.37255E-03 3.43330E-21
8.77480E-03 3.13367E-21
9.18641E-03 2.86639E-21
9.60736E-03 2.62732E-21
1.00376E-02 2.41297E-21
1.04773E-02 2.22029E-21
1.09262E-02 2.04672E-21
1.13844E-02 1.88999E-21
1.18520E-02 1.74818E-21
1.23288E-02 1.61960E-21
1.28150E-02 1.50279E-21
1.33104E-02 1.39647E-21
1.38150E-02 1.29952E-21
1.43290E-02 1.21097E-21
1.48521E-02 1.12995E-21
1.53845E-02 1.05570E-21
1.59262E-02 9.87541E-22
1.64770E-02 9.24885E-22
1.70371E-02 8.67200E-22
1.76063E-02 8.14019E-22
1.81848E-02 7.64921E-22
1.87724E-02 7.19534E-22
1.93692E-02 6.77523E-22
1.99751E-02 6.38588E-22
2.05901E-02 6.02461E-22
2.12143E-02 5.68899E-22
2.18476E-02 5.37686E-22
2.24900E-02 5.08624E-22
2.31415E-02 4.81538E-22
2.38021E-02 4.56266E-22
2.44717E-02 4.32663E-22
2.51504E-02 4.10598E-22
2.58382E-02 3.89949E-22
2.65349E-02 3.70608E-22
2.72407E-02 3.52476E-22
2.79555E-02 3.35463E-22
2.86793E-02 3.19486E-22
2.94120E-02 3.04469E-22
3.01537E-02 2.90344E-22
3.09043E-02 2.77045E-22
3.16639E-02 2.64516E-22
3.24324E-02 2.52703E-22
3.32098E-02 2.41556E-22
3.39961E-02 2.31032E-22
3.47912E-02 2.21087E-22
3.55952E-02 2.11684E-22
3.64081E-02 2.02787E-22
3.72297E-02 1.94363E-22
3.80602E-02 1.86383E-22
3.88995E-02 1.78817E-22
3.97476E-02 1.71640E-22
4.06044E-02 1.64829E-22
4.14700E-02 1.58360E-22
4.23443E-02 1.52213E-22
4.32273E-02 1.46368E-22
4.41190E-02 1.40808E-22
4.50194E-02 1.35516E-22
4.59284E-02 1.30476E-22
4.68461E-02 1.25674E-22
4.87074E-02 1.16731E-22
5.06030E-02 1.08588E-22
5.25328E-02 1.01159E-22
5.44967E-02 9.43699E-23
5.64946E-02 8.81545E-23
5.85262E-02 8.24546E-23
6.05914E-02 7.72189E-23
6.26901E-02 7.24022E-23
6.48222E-02 6.79644E-23
6.69873E-02 6.38695E-23
6.91854E-02 6.00857E-23
7.14163E-02 5.65848E-23
7.36799E-02 5.33412E-23
7.59760E-02 5.03322E-23
7.83043E-02 4.75374E-23
8.06647E-02 4.49385E-23
8.30571E-02 4.25189E-23
8.54812E-02 4.02637E-23
8.79369E-02 3.81594E-23
9.04240E-02 3.61940E-23
9.29422E-02 3.43563E-23
9.54915E-02 3.26363E-23
9.80716E-02 3.10250E-23
1.00682E-01 2.95140E-23
1.03323E-01 2.80959E-23
1.05995E-01 2.67636E-23
1.08696E-01 2.55110E-23
1.11427E-01 2.43323E-23
1.14188E-01 2.32222E-23
1.16978E-01 2.21759E-23
1.19797E-01 2.11890E-23
1.22645E-01 2.02573E-23
1.25522E-01 1.93772E-23
1.28428E-01 1.85452E-23
1.31361E-01 1.77581E-23
1.34323E-01 1.70130E-23
1.37313E-01 1.63072E-23
1.40330E-01 1.56381E-23
1.43375E-01 1.50035E-23
1.46447E-01 1.44012E-23
1.49545E-01 1.38292E-23
1.52671E-01 1.32856E-23
1.55823E-01 1.27688E-23
1.59001E-01 1.22772E-23
1.62205E-01 1.18092E-23
1.65435E-01 1.13635E-23
1.68690E-01 1.09388E-23
1.71970E-01 1.05340E-23
1.75276E-01 1.01478E-23
1.78606E-01 9.77926E-24
1.81961E-01 9.42740E-24
1.85340E-01 9.09128E-24
1.88743E-01 8.77006E-24
1.92169E-01 8.46294E-24
1.95619E-01 8.16917E-24
1.99092E-01 7.88804E-24
2.02589E-01 7.61890E-24
2.06107E-01 7.36113E-24
2.09649E-01 7.11415E-24
2.13212E-01 6.87741E-24
2.16797E-01 6.65039E-24
2.20404E-01 6.43261E-24
2.24032E-01 6.22362E-24
2.27680E-01 6.02299E-24
2.31350E-01 5.83031E-24
2.35040E-01 5.64520E-24
2.38751E-01 5.46730E-24
2.42481E-01 5.29628E-24
2.46231E-01 5.13180E-24
2.50000E-01 4.97357E-24
2.53788E-01 4.82130E-24
2.57595E-01 4.67473E-24
2.61421E-01 4.53358E-24
2.65264E-01 4.39760E-24
2.69126E-01 4.26657E-24
2.73005E-01 4.14028E-24
2.76901E-01 4.01853E-24
2.80814E-01 3.90111E-24
2.84744E-01 3.78784E-24
2.88691E-01 3.67854E-24
2.92653E-01 3.57305E-24
2.96632E-01 3.47119E-24
3.00625E-01 3.37284E-24
3.04634E-01 3.27782E-24
3.08658E-01 3.18602E-24
3.12697E-01 3.09730E-24
3.16749E-01 3.01153E-24
3.20816E-01 2.92860E-24
3.24896E-01 2.84839E-24
3.28990E-01 2.77080E-24
3.33097E-01 2.69572E-24
3.37216E-01 2.62306E-24
3.41348E-01 2.55271E-24
3.45492E-01 2.48460E-24
3.49647E-01 2.41863E-24
3.53814E-01 2.35473E-24
3.57992E-01 2.29282E-24
3.62181E-01 2.23281E-24
3.66381E-01 2.17466E-24
3.70590E-01 2.11827E-24
3.74810E-01 2.06360E-24
3.79039E-01 2.01057E-24
3.83277E-01 1.95913E-24
3.87524E-01 1.90922E-24
3.91780E-01 1.86078E-24
3.96044E-01 1.81377E-24
4.00316E-01 1.76813E-24
4.04596E-01 1.72382E-24
4.08882E-01 1.68078E-24
4.13176E-01 1.63898E-24
4.17476E-01 1.59838E-24
4.21783E-01 1.55892E-24
4.26095E-01 1.52058E-24
4.30413E-01 1.48332E-24
4.34737E-01 1.44709E-24
4.39065E-01 1.41187E-24
4.43398E-01 1.37761E-24
4.47736E-01 1.34430E-24
4.52077E-01 1.31190E-24
4.56422E-01 1.28038E-24
4.60770E-01 1.24970E-24
4.65122E-01 1.21985E-24
4.69476E-01 1.19080E-24
4.73832E-01 1.16252E-24
4.78190E-01 1.13499E-24
4.82550E-01 1.10818E-24
4.86912E-01 1.08207E-24
4.91274E-01 1.05664E-24
4.95637E-01 1.03187E-24
5.00000E-01 1.00774E-24
5.04363E-01 9.84229E-25
5.08726E-01 9.61317E-25
5.13088E-01 9.38987E-25
5.17450E-01 9.17221E-25
5.21810E-01 8.96003E-25
5.26168E-01 8.75316E-25
5.30524E-01 8.55145E-25
5.34878E-01 8.35474E-25
5.39230E-01 8.16289E-25
5.43578E-01 7.97576E-25
5.47923E-01 7.79321E-25
5.52264E-01 7.61511E-25
5.56602E-01 7.44133E-25
5.60935E-01 7.27175E-25
5.65263E-01 7.10625E-25
5.69587E-01 6.94471E-25
5.73905E-01 6.78703E-25
5.78217E-01 6.63309E-25
5.82524E-01 6.48280E-25
5.86824E-01 6.33604E-25
5.91118E-01 6.19273E-25
5.95404E-01 6.05276E-25
5.99684E-01 5.91606E-25
6.03956E-01 5.78252E-25
6.08220E-01 5.65207E-25
6.12476E-01 5.52462E-25
6.16723E-01 5.40009E-25
6.20961E-01 5.27841E-25
6.25190E-01 5.15950E-25
6.29410E-01 5.04328E-25
6.33619E-01 4.92968E-25
6.37819E-01 4.81864E-25
6.42008E-01 4.71010E-25
6.46186E-01 4.60398E-25
6.50353E-01 4.50022E-25
6.54508E-01 4.39876E-25
6.58652E-01 4.29955E-25
6.62784E-01 4.20253E-25
6.66903E-01 4.10764E-25
6.71010E-01 4.01484E-25
6.75104E-01 3.92405E-25
6.79184E-01 3.83525E-25
6.83251E-01 3.74837E-25
6.87303E-01 3.66337E-25
6.91342E-01 3.58021E-25
6.95366E-01 3.49884E-25
6.99375E-01 3.41921E-25
7.03368E-01 3.34129E-25
7.07347E-01 3.26503E-25
7.11309E-01 3.19039E-25
7.15256E-01 3.11734E-25
7.19186E-01 3.04583E-25
7.23099E-01 2.97584E-25
7.26995E-01 2.90731E-25
7.30874E-01 2.84023E-25
7.34736E-01 2.77456E-25
7.38579E-01 2.71026E-25
7.42405E-01 2.64730E-25
7.46212E-01 2.58565E-25
7.50000E-01 2.52529E-25
7.53769E-01 2.46618E-25
7.57519E-01 2.40829E-25
7.61249E-01 2.35159E-25
7.64960E-01 2.29607E-25
7.68650E-01 2.24169E-25
7.72320E-01 2.18843E-25
7.75968E-01 2.13626E-25
7.79596E-01 2.08516E-25
7.83203E-01 2.03511E-25
7.86788E-01 1.98608E-25
7.90351E-01 1.93805E-25
7.93893E-01 1.89100E-25
7.97411E-01 1.84490E-25
8.00908E-01 1.79975E-25
8.04381E-01 1.75551E-25
8.07831E-01 1.71217E-25
8.11257E-01 1.66972E-25
8.14660E-01 1.62812E-25
8.18039E-01 1.58736E-25
8.21394E-01 1.54743E-25
8.24724E-01 1.50831E-25
8.28030E-01 1.46998E-25
8.31310E-01 1.43243E-25
8.34565E-01 1.39564E-25
8.37795E-01 1.35959E-25
8.40999E-01 1.32427E-25
8.44177E-01 1.28967E-25
8.47329E-01 1.25576E-25
8.50455E-01 1.22255E-25
8.53553E-01 1.19001E-25
8.56625E-01 1.15813E-25
8.59670E-01 1.12690E-25
8.62687E-01 1.09630E-25
8.65677E-01 1.06633E-25
8.68639E-01 1.03697E-25
8.71572E-01 1.00820E-25
8.74478E-01 9.80030E-26
8.77355E-01 9.52434E-26
8.80203E-01 9.25406E-26
8.83022E-01 8.98933E-26
8.85812E-01 8.73008E-26
8.88573E-01 8.47618E-26
8.91304E-01 8.22756E-26
8.94005E-01 7.98411E-26
8.96677E-01 7.74574E-26
8.99318E-01 7.51237E-26
9.01928E-01 7.28390E-26
9.04508E-01 7.06025E-26
9.07058E-01 6.84134E-26
9.09576E-01 6.62709E-26
9.12063E-01 6.41741E-26
9.14519E-01 6.21224E-26
9.16943E-01 6.01150E-26
9.19335E-01 5.81511E-26
9.21696E-01 5.62300E-26
9.24024E-01 5.43511E-26
9.26320E-01 5.25137E-26
9.28584E-01 5.07170E-26
9.30815E-01 4.89606E-26
9.33013E-01 4.72437E-26
9.35178E-01 4.55657E-26
9.37310E-01 4.39261E-26
9.39409E-01 4.23243E-26
9.41474E-01 4.07597E-26
9.43505E-01 3.92317E-26
9.45503E-01 3.77400E-26
9.47467E-01 3.62838E-26
9.49397E-01 3.48628E-26
9.51293E-01 3.34764E-26
9.53154E-01 3.21242E-26
9.54981E-01 3.08057E-26
9.56773E-01 2.95204E-26
9.58530E-01 2.82679E-26
9.60252E-01 2.70479E-26
9.61940E-01 2.58598E-26
9.63592E-01 2.47033E-26
9.65209E-01 2.35780E-26
9.66790E-01 2.24835E-26
9.68336E-01 2.14195E-26
9.69846E-01 2.03856E-26
9.71321E-01 1.93814E-26
9.72759E-01 1.84066E-26
9.74162E-01 1.74609E-26
9.75528E-01 1.65441E-26
9.76858E-01 1.56557E-26
9.78152E-01 1.47955E-26
9.79410E-01 1.39632E-26
9.80631E-01 1.31585E-26
9.81815E-01 1.23812E-26
9.82963E-01 1.16311E-26
9.84074E-01 1.09078E-26
9.85148E-01 1.02112E-26
9.86185E-01 9.54094E-27
9.87185E-01 8.89693E-27
9.88148E-01 8.27890E-27
9.89074E-01 7.68668E-27
9.89962E-01 7.12005E-27
9.90814E-01 6.57885E-27
9.91627E-01 6.06290E-27
9.92404E-01 5.57203E-27
9.93143E-01 5.10609E-27
9.93844E-01 4.66492E-27
9.94508E-01 4.24839E-27
9.95134E-01 3.85636E-27
9.95722E-01 3.48871E-27
9.96273E-01 3.14533E-27
9.96786E-01 2.82609E-27
9.97261E-01 2.53091E-27
9.97698E-01 2.25968E-27
9.98097E-01 2.01233E-27
9.98459E-01 1.78877E-27
9.98782E-01 1.58893E-27
9.99067E-01 1.41275E-27
9.99315E-01 1.26017E-27
9.99524E-01 1.13115E-27
9.99695E-01 1.02564E-27
9.99829E-01 9.43613E-28
9.99924E-01 8.85040E-28
9.99981E-01 8.49904E-28
1.00000E+00 8.38194E-28
