 #
 # Subroutine ELSEPA. Elastic scattering of electrons and positrons
 #                    by neutral atoms and positive ions
 #
 # Projectile: positron
 # Kinetic energy = 1.50000E+07 eV = 5.51240E+05 a.u.
 #
 # WARNING: High-energy factorization with free-atom DF screening.
 #          Absorption, polarization and exchange corrections are
 #          switched off.
 #          Phase shifts are calculated for the bare nucleus.
 #          Scattering amplitudes are not evaluated.
 #
 # Element: Ac,  Z =  89,  atomic weight = 2.27028E+02 g/mol
 #
 # Nuclear model: Fermi distribution
 #                Average radius = 6.52745E-13 cm
 #                Skin thickness = 5.46000E-14 cm
 #
 # Number of electrons = 89
 #
 # Total elastic cross section = 1.15508E-17 cm**2 = 4.12485E-01 a0**2
 # 1st transport cross section = 4.69330E-23 cm**2 = 1.67601E-06 a0**2
 # 2nd transport cross section = 1.36092E-22 cm**2 = 4.85995E-06 a0**2
 #
 #
 # Differential cross section:                       MU=(1-COS(THETA))/2
 #
 #  THETA        MU          DCS          DCS        Sherman      error
 #  (deg)                 (cm**2/sr)   (a0**2/sr)    function
 #----------------------------------------------------------------------
0.00000E+00 3.64344E-11
7.61557E-13 3.64302E-11
1.18994E-12 3.64279E-11
1.71346E-12 3.64250E-11
2.33225E-12 3.64217E-11
3.04617E-12 3.64178E-11
3.85530E-12 3.64134E-11
4.75964E-12 3.64086E-11
5.75917E-12 3.64032E-11
6.85391E-12 3.63973E-11
8.04379E-12 3.63909E-11
9.32893E-12 3.63840E-11
1.07092E-11 3.63765E-11
1.21847E-11 3.63686E-11
1.37554E-11 3.63602E-11
1.54213E-11 3.63512E-11
1.71823E-11 3.63418E-11
1.90386E-11 3.63318E-11
2.09900E-11 3.63214E-11
2.30367E-11 3.63104E-11
2.51785E-11 3.62990E-11
2.74156E-11 3.62870E-11
2.97478E-11 3.62745E-11
3.21752E-11 3.62616E-11
3.46979E-11 3.62481E-11
3.73157E-11 3.62341E-11
4.00286E-11 3.62197E-11
4.28368E-11 3.62047E-11
4.57402E-11 3.61893E-11
4.87388E-11 3.61733E-11
5.18325E-11 3.61569E-11
5.50215E-11 3.61399E-11
5.83057E-11 3.61225E-11
6.16850E-11 3.61046E-11
6.51595E-11 3.60862E-11
6.87293E-11 3.60673E-11
7.23943E-11 3.60479E-11
7.61544E-11 3.60280E-11
1.18991E-10 3.58030E-11
1.71347E-10 3.55311E-11
2.33223E-10 3.52142E-11
3.04617E-10 3.48541E-11
3.85531E-10 3.44534E-11
4.75965E-10 3.40143E-11
5.75917E-10 3.35396E-11
6.85389E-10 3.30321E-11
8.04380E-10 3.24946E-11
9.32891E-10 3.19302E-11
1.07092E-09 3.13446E-11
1.21847E-09 3.07364E-11
1.37554E-09 3.01079E-11
1.54213E-09 2.94647E-11
1.71823E-09 2.88134E-11
1.90386E-09 2.81498E-11
2.09900E-09 2.74762E-11
2.30367E-09 2.68044E-11
2.51785E-09 2.61302E-11
2.74156E-09 2.54527E-11
2.97478E-09 2.47771E-11
3.21752E-09 2.41126E-11
3.46978E-09 2.34503E-11
3.73156E-09 2.27918E-11
4.00286E-09 2.21482E-11
4.28368E-09 2.15154E-11
4.57402E-09 2.08900E-11
4.87388E-09 2.02751E-11
5.18326E-09 1.96814E-11
5.50215E-09 1.90975E-11
5.83057E-09 1.85241E-11
6.16850E-09 1.79698E-11
6.51596E-09 1.74319E-11
6.87293E-09 1.69057E-11
7.23942E-09 1.63922E-11
7.61544E-09 1.59017E-11
1.18991E-08 1.17641E-11
1.71347E-08 8.86786E-12
2.33223E-08 6.84177E-12
3.04617E-08 5.39049E-12
3.85531E-08 4.32028E-12
4.75965E-08 3.50982E-12
5.75917E-08 2.88303E-12
6.85389E-08 2.39031E-12
8.04380E-08 1.99853E-12
9.32891E-08 1.68425E-12
1.07092E-07 1.41952E-12
1.21847E-07 1.21087E-12
1.37554E-07 1.04633E-12
1.54213E-07 9.09666E-13
1.71823E-07 7.89038E-13
1.90386E-07 6.91294E-13
2.09900E-07 6.11257E-13
2.30367E-07 5.39223E-13
2.51785E-07 4.77833E-13
2.74156E-07 4.26541E-13
2.97478E-07 3.82381E-13
3.21752E-07 3.41949E-13
3.46978E-07 3.07607E-13
3.73156E-07 2.78249E-13
4.00286E-07 2.51473E-13
4.28368E-07 2.27742E-13
4.57402E-07 2.07195E-13
4.87388E-07 1.89134E-13
5.18325E-07 1.72353E-13
5.50215E-07 1.57664E-13
5.83057E-07 1.44751E-13
6.16850E-07 1.32945E-13
6.51596E-07 1.22252E-13
6.87293E-07 1.12769E-13
7.23942E-07 1.04300E-13
7.61543E-07 9.63803E-14
1.18991E-06 4.79733E-14
1.71347E-06 2.65448E-14
2.33223E-06 1.57919E-14
3.04617E-06 9.92841E-15
3.85531E-06 6.56200E-15
4.75964E-06 4.51573E-15
5.75916E-06 3.21167E-15
6.85388E-06 2.34931E-15
8.04378E-06 1.75914E-15
9.32888E-06 1.34335E-15
1.07092E-05 1.04279E-15
1.21846E-05 8.22842E-16
1.37553E-05 6.58351E-16
1.54212E-05 5.32591E-16
1.71822E-05 4.35768E-16
1.90385E-05 3.59906E-16
2.09899E-05 3.00255E-16
2.30365E-05 2.52405E-16
2.51783E-05 2.13700E-16
2.74153E-05 1.82089E-16
2.97475E-05 1.56020E-16
3.21749E-05 1.34468E-16
3.46974E-05 1.16530E-16
3.73152E-05 1.01469E-16
4.00281E-05 8.87695E-17
4.28362E-05 7.80033E-17
4.57395E-05 6.88129E-17
4.87380E-05 6.09235E-17
5.18317E-05 5.41316E-17
5.50205E-05 4.82591E-17
5.83045E-05 4.31540E-17
6.16838E-05 3.87086E-17
6.51582E-05 3.48238E-17
6.87277E-05 3.14143E-17
7.23925E-05 2.84123E-17
7.61524E-05 2.57619E-17
9.21439E-05 1.78065E-17
1.09658E-04 1.27001E-17
1.28695E-04 9.30082E-18
1.49255E-04 6.96628E-18
1.71338E-04 5.31977E-18
1.94942E-04 4.13160E-18
2.20070E-04 3.25679E-18
2.46720E-04 2.60121E-18
2.74892E-04 2.10226E-18
3.04586E-04 1.71711E-18
3.35803E-04 1.41610E-18
3.68542E-04 1.17809E-18
4.02802E-04 9.87954E-19
4.38585E-04 8.34598E-19
4.75889E-04 7.09815E-19
5.14715E-04 6.07472E-19
5.55063E-04 5.22890E-19
5.96931E-04 4.52509E-19
6.40321E-04 3.93561E-19
6.85233E-04 3.43890E-19
7.31665E-04 3.01803E-19
7.79618E-04 2.65950E-19
8.29092E-04 2.35259E-19
8.80086E-04 2.08862E-19
9.32601E-04 1.86060E-19
9.86636E-04 1.66279E-19
1.04219E-03 1.49055E-19
1.09927E-03 1.34001E-19
1.15786E-03 1.20795E-19
1.21797E-03 1.09173E-19
1.27961E-03 9.89133E-20
1.34276E-03 8.98280E-20
1.40743E-03 8.17601E-20
1.47362E-03 7.45756E-20
1.54133E-03 6.81615E-20
1.61056E-03 6.24203E-20
1.68131E-03 5.72693E-20
1.75357E-03 5.26375E-20
1.82735E-03 4.84632E-20
1.90265E-03 4.46935E-20
1.97947E-03 4.12821E-20
2.05780E-03 3.81891E-20
2.13765E-03 3.53794E-20
2.21902E-03 3.28225E-20
2.30190E-03 3.04918E-20
2.38630E-03 2.83635E-20
2.47222E-03 2.64171E-20
2.55965E-03 2.46343E-20
2.64859E-03 2.29987E-20
2.73905E-03 2.14962E-20
2.83103E-03 2.01139E-20
2.92452E-03 1.88405E-20
3.01952E-03 1.76658E-20
3.11604E-03 1.65810E-20
3.21407E-03 1.55778E-20
3.31362E-03 1.46490E-20
3.41468E-03 1.37881E-20
3.51725E-03 1.29893E-20
3.62133E-03 1.22472E-20
3.72692E-03 1.15571E-20
3.83403E-03 1.09147E-20
3.94265E-03 1.03162E-20
4.05278E-03 9.75788E-21
4.16442E-03 9.23667E-21
4.27757E-03 8.74962E-21
4.39223E-03 8.29410E-21
4.50840E-03 7.86770E-21
4.62608E-03 7.46820E-21
4.74527E-03 7.09361E-21
4.86597E-03 6.74210E-21
4.98817E-03 6.41197E-21
5.11188E-03 6.10169E-21
5.23711E-03 5.80986E-21
5.36383E-03 5.53517E-21
5.49207E-03 5.27643E-21
5.62181E-03 5.03256E-21
5.75306E-03 4.80253E-21
5.88581E-03 4.58541E-21
6.02007E-03 4.38036E-21
6.15583E-03 4.18657E-21
6.29310E-03 4.00332E-21
6.43187E-03 3.82993E-21
6.57214E-03 3.66577E-21
6.71392E-03 3.51025E-21
6.85720E-03 3.36285E-21
7.00198E-03 3.22305E-21
7.14827E-03 3.09040E-21
7.29605E-03 2.96446E-21
7.44534E-03 2.84482E-21
7.59612E-03 2.73112E-21
7.97965E-03 2.47061E-21
8.37255E-03 2.24025E-21
8.77480E-03 2.03594E-21
9.18641E-03 1.85426E-21
9.60736E-03 1.69226E-21
1.00376E-02 1.54746E-21
1.04773E-02 1.41771E-21
1.09262E-02 1.30118E-21
1.13844E-02 1.19629E-21
1.18520E-02 1.10169E-21
1.23288E-02 1.01618E-21
1.28150E-02 9.38752E-22
1.33104E-02 8.68499E-22
1.38150E-02 8.04643E-22
1.43290E-02 7.46504E-22
1.48521E-02 6.93478E-22
1.53845E-02 6.45038E-22
1.59262E-02 6.00718E-22
1.64770E-02 5.60107E-22
1.70371E-02 5.22840E-22
1.76063E-02 4.88594E-22
1.81848E-02 4.57081E-22
1.87724E-02 4.28044E-22
1.93692E-02 4.01254E-22
1.99751E-02 3.76509E-22
2.05901E-02 3.53623E-22
2.12143E-02 3.32433E-22
2.18476E-02 3.12790E-22
2.24900E-02 2.94562E-22
2.31415E-02 2.77630E-22
2.38021E-02 2.61883E-22
2.44717E-02 2.47226E-22
2.51504E-02 2.33568E-22
2.58382E-02 2.20831E-22
2.65349E-02 2.08941E-22
2.72407E-02 1.97831E-22
2.79555E-02 1.87441E-22
2.86793E-02 1.77717E-22
2.94120E-02 1.68608E-22
3.01537E-02 1.60068E-22
3.09043E-02 1.52056E-22
3.16639E-02 1.44533E-22
3.24324E-02 1.37463E-22
3.32098E-02 1.30816E-22
3.39961E-02 1.24560E-22
3.47912E-02 1.18668E-22
3.55952E-02 1.13117E-22
3.64081E-02 1.07883E-22
3.72297E-02 1.02943E-22
3.80602E-02 9.82792E-23
3.88995E-02 9.38732E-23
3.97476E-02 8.97082E-23
4.06044E-02 8.57682E-23
4.14700E-02 8.20388E-23
4.23443E-02 7.85074E-23
4.32273E-02 7.51617E-23
4.41190E-02 7.19891E-23
4.50194E-02 6.89798E-23
4.59284E-02 6.61242E-23
4.68461E-02 6.34125E-23
4.87074E-02 5.83874E-23
5.06030E-02 5.38434E-23
5.25328E-02 4.97263E-23
5.44967E-02 4.59896E-23
5.64946E-02 4.25918E-23
5.85262E-02 3.94973E-23
6.05914E-02 3.66743E-23
6.26901E-02 3.40950E-23
6.48222E-02 3.17347E-23
6.69873E-02 2.95717E-23
6.91854E-02 2.75868E-23
7.14163E-02 2.57627E-23
7.36799E-02 2.40842E-23
7.59760E-02 2.25377E-23
7.83043E-02 2.11112E-23
8.06647E-02 1.97936E-23
8.30571E-02 1.85752E-23
8.54812E-02 1.74473E-23
8.79369E-02 1.64021E-23
9.04240E-02 1.54324E-23
9.29422E-02 1.45319E-23
9.54915E-02 1.36947E-23
9.80716E-02 1.29158E-23
1.00682E-01 1.21902E-23
1.03323E-01 1.15138E-23
1.05995E-01 1.08827E-23
1.08696E-01 1.02934E-23
1.11427E-01 9.74257E-24
1.14188E-01 9.22742E-24
1.16978E-01 8.74507E-24
1.19797E-01 8.29257E-24
1.22645E-01 7.86824E-24
1.25522E-01 7.47003E-24
1.28428E-01 7.09607E-24
1.31361E-01 6.74461E-24
1.34323E-01 6.41407E-24
1.37313E-01 6.10300E-24
1.40330E-01 5.81006E-24
1.43375E-01 5.53400E-24
1.46447E-01 5.27369E-24
1.49545E-01 5.02807E-24
1.52671E-01 4.79618E-24
1.55823E-01 4.57712E-24
1.59001E-01 4.37005E-24
1.62205E-01 4.17422E-24
1.65435E-01 3.98889E-24
1.68690E-01 3.81342E-24
1.71970E-01 3.64720E-24
1.75276E-01 3.48964E-24
1.78606E-01 3.34023E-24
1.81961E-01 3.19846E-24
1.85340E-01 3.06389E-24
1.88743E-01 2.93609E-24
1.92169E-01 2.81465E-24
1.95619E-01 2.69920E-24
1.99092E-01 2.58941E-24
2.02589E-01 2.48495E-24
2.06107E-01 2.38550E-24
2.09649E-01 2.29080E-24
2.13212E-01 2.20058E-24
2.16797E-01 2.11459E-24
2.20404E-01 2.03260E-24
2.24032E-01 1.95438E-24
2.27680E-01 1.87975E-24
2.31350E-01 1.80850E-24
2.35040E-01 1.74045E-24
2.38751E-01 1.67545E-24
2.42481E-01 1.61332E-24
2.46231E-01 1.55393E-24
2.50000E-01 1.49712E-24
2.53788E-01 1.44277E-24
2.57595E-01 1.39076E-24
2.61421E-01 1.34097E-24
2.65264E-01 1.29328E-24
2.69126E-01 1.24759E-24
2.73005E-01 1.20381E-24
2.76901E-01 1.16184E-24
2.80814E-01 1.12159E-24
2.84744E-01 1.08299E-24
2.88691E-01 1.04595E-24
2.92653E-01 1.01040E-24
2.96632E-01 9.76272E-25
3.00625E-01 9.43496E-25
3.04634E-01 9.12011E-25
3.08658E-01 8.81758E-25
3.12697E-01 8.52681E-25
3.16749E-01 8.24726E-25
3.20816E-01 7.97843E-25
3.24896E-01 7.71985E-25
3.28990E-01 7.47105E-25
3.33097E-01 7.23160E-25
3.37216E-01 7.00110E-25
3.41348E-01 6.77916E-25
3.45492E-01 6.56540E-25
3.49647E-01 6.35948E-25
3.53814E-01 6.16106E-25
3.57992E-01 5.96982E-25
3.62181E-01 5.78546E-25
3.66381E-01 5.60770E-25
3.70590E-01 5.43625E-25
3.74810E-01 5.27087E-25
3.79039E-01 5.11129E-25
3.83277E-01 4.95728E-25
3.87524E-01 4.80862E-25
3.91780E-01 4.66509E-25
3.96044E-01 4.52648E-25
4.00316E-01 4.39260E-25
4.04596E-01 4.26327E-25
4.08882E-01 4.13829E-25
4.13176E-01 4.01751E-25
4.17476E-01 3.90075E-25
4.21783E-01 3.78787E-25
4.26095E-01 3.67871E-25
4.30413E-01 3.57313E-25
4.34737E-01 3.47100E-25
4.39065E-01 3.37218E-25
4.43398E-01 3.27656E-25
4.47736E-01 3.18400E-25
4.52077E-01 3.09440E-25
4.56422E-01 3.00765E-25
4.60770E-01 2.92364E-25
4.65122E-01 2.84227E-25
4.69476E-01 2.76345E-25
4.73832E-01 2.68708E-25
4.78190E-01 2.61307E-25
4.82550E-01 2.54135E-25
4.86912E-01 2.47183E-25
4.91274E-01 2.40443E-25
4.95637E-01 2.33908E-25
5.00000E-01 2.27570E-25
5.04363E-01 2.21423E-25
5.08726E-01 2.15460E-25
5.13088E-01 2.09674E-25
5.17450E-01 2.04060E-25
5.21810E-01 1.98612E-25
5.26168E-01 1.93324E-25
5.30524E-01 1.88190E-25
5.34878E-01 1.83206E-25
5.39230E-01 1.78366E-25
5.43578E-01 1.73666E-25
5.47923E-01 1.69101E-25
5.52264E-01 1.64667E-25
5.56602E-01 1.60358E-25
5.60935E-01 1.56172E-25
5.65263E-01 1.52104E-25
5.69587E-01 1.48150E-25
5.73905E-01 1.44307E-25
5.78217E-01 1.40571E-25
5.82524E-01 1.36938E-25
5.86824E-01 1.33406E-25
5.91118E-01 1.29971E-25
5.95404E-01 1.26631E-25
5.99684E-01 1.23381E-25
6.03956E-01 1.20220E-25
6.08220E-01 1.17144E-25
6.12476E-01 1.14151E-25
6.16723E-01 1.11239E-25
6.20961E-01 1.08405E-25
6.25190E-01 1.05646E-25
6.29410E-01 1.02960E-25
6.33619E-01 1.00345E-25
6.37819E-01 9.77997E-26
6.42008E-01 9.53208E-26
6.46186E-01 9.29068E-26
6.50353E-01 9.05556E-26
6.54508E-01 8.82656E-26
6.58652E-01 8.60347E-26
6.62784E-01 8.38614E-26
6.66903E-01 8.17439E-26
6.71010E-01 7.96807E-26
6.75104E-01 7.76701E-26
6.79184E-01 7.57106E-26
6.83251E-01 7.38008E-26
6.87303E-01 7.19392E-26
6.91342E-01 7.01245E-26
6.95366E-01 6.83553E-26
6.99375E-01 6.66304E-26
7.03368E-01 6.49485E-26
7.07347E-01 6.33084E-26
7.11309E-01 6.17089E-26
7.15256E-01 6.01490E-26
7.19186E-01 5.86275E-26
7.23099E-01 5.71434E-26
7.26995E-01 5.56956E-26
7.30874E-01 5.42832E-26
7.34736E-01 5.29052E-26
7.38579E-01 5.15606E-26
7.42405E-01 5.02486E-26
7.46212E-01 4.89683E-26
7.50000E-01 4.77189E-26
7.53769E-01 4.64994E-26
7.57519E-01 4.53092E-26
7.61249E-01 4.41475E-26
7.64960E-01 4.30135E-26
7.68650E-01 4.19064E-26
7.72320E-01 4.08256E-26
7.75968E-01 3.97705E-26
7.79596E-01 3.87403E-26
7.83203E-01 3.77344E-26
7.86788E-01 3.67521E-26
7.90351E-01 3.57930E-26
7.93893E-01 3.48563E-26
7.97411E-01 3.39416E-26
8.00908E-01 3.30482E-26
8.04381E-01 3.21756E-26
8.07831E-01 3.13234E-26
8.11257E-01 3.04910E-26
8.14660E-01 2.96779E-26
8.18039E-01 2.88837E-26
8.21394E-01 2.81078E-26
8.24724E-01 2.73499E-26
8.28030E-01 2.66095E-26
8.31310E-01 2.58862E-26
8.34565E-01 2.51795E-26
8.37795E-01 2.44891E-26
8.40999E-01 2.38146E-26
8.44177E-01 2.31556E-26
8.47329E-01 2.25117E-26
8.50455E-01 2.18826E-26
8.53553E-01 2.12680E-26
8.56625E-01 2.06675E-26
8.59670E-01 2.00807E-26
8.62687E-01 1.95074E-26
8.65677E-01 1.89473E-26
8.68639E-01 1.84000E-26
8.71572E-01 1.78653E-26
8.74478E-01 1.73429E-26
8.77355E-01 1.68325E-26
8.80203E-01 1.63338E-26
8.83022E-01 1.58466E-26
8.85812E-01 1.53707E-26
8.88573E-01 1.49057E-26
8.91304E-01 1.44514E-26
8.94005E-01 1.40077E-26
8.96677E-01 1.35743E-26
8.99318E-01 1.31509E-26
9.01928E-01 1.27374E-26
9.04508E-01 1.23336E-26
9.07058E-01 1.19392E-26
9.09576E-01 1.15540E-26
9.12063E-01 1.11779E-26
9.14519E-01 1.08107E-26
9.16943E-01 1.04522E-26
9.19335E-01 1.01021E-26
9.21696E-01 9.76050E-27
9.24024E-01 9.42703E-27
9.26320E-01 9.10159E-27
9.28584E-01 8.78402E-27
9.30815E-01 8.47417E-27
9.33013E-01 8.17189E-27
9.35178E-01 7.87704E-27
9.37310E-01 7.58947E-27
9.39409E-01 7.30906E-27
9.41474E-01 7.03567E-27
9.43505E-01 6.76917E-27
9.45503E-01 6.50944E-27
9.47467E-01 6.25636E-27
9.49397E-01 6.00982E-27
9.51293E-01 5.76969E-27
9.53154E-01 5.53587E-27
9.54981E-01 5.30825E-27
9.56773E-01 5.08673E-27
9.58530E-01 4.87121E-27
9.60252E-01 4.66159E-27
9.61940E-01 4.45777E-27
9.63592E-01 4.25967E-27
9.65209E-01 4.06719E-27
9.66790E-01 3.88025E-27
9.68336E-01 3.69877E-27
9.69846E-01 3.52266E-27
9.71321E-01 3.35185E-27
9.72759E-01 3.18625E-27
9.74162E-01 3.02581E-27
9.75528E-01 2.87044E-27
9.76858E-01 2.72008E-27
9.78152E-01 2.57466E-27
9.79410E-01 2.43413E-27
9.80631E-01 2.29841E-27
9.81815E-01 2.16745E-27
9.82963E-01 2.04119E-27
9.84074E-01 1.91958E-27
9.85148E-01 1.80257E-27
9.86185E-01 1.69010E-27
9.87185E-01 1.58212E-27
9.88148E-01 1.47860E-27
9.89074E-01 1.37948E-27
9.89962E-01 1.28472E-27
9.90814E-01 1.19429E-27
9.91627E-01 1.10814E-27
9.92404E-01 1.02624E-27
9.93143E-01 9.48547E-28
9.93844E-01 8.75035E-28
9.94508E-01 8.05672E-28
9.95134E-01 7.40427E-28
9.95722E-01 6.79273E-28
9.96273E-01 6.22184E-28
9.96786E-01 5.69137E-28
9.97261E-01 5.20107E-28
9.97698E-01 4.75076E-28
9.98097E-01 4.34024E-28
9.98459E-01 3.96933E-28
9.98782E-01 3.63788E-28
9.99067E-01 3.34575E-28
9.99315E-01 3.09282E-28
9.99524E-01 2.87898E-28
9.99695E-01 2.70415E-28
9.99829E-01 2.56824E-28
9.99924E-01 2.47120E-28
9.99981E-01 2.41300E-28
1.00000E+00 2.39360E-28
