 #
 # Subroutine ELSEPA. Elastic scattering of electrons and positrons
 #                    by neutral atoms and positive ions
 #
 # Projectile: positron
 # Kinetic energy = 2.50000E+06 eV = 9.18733E+04 a.u.
 #
 # WARNING: High-energy factorization with free-atom DF screening.
 #          Absorption, polarization and exchange corrections are
 #          switched off.
 #          Phase shifts are calculated for the bare nucleus.
 #          Scattering amplitudes are not evaluated.
 #
 # Element: Ac,  Z =  89,  atomic weight = 2.27028E+02 g/mol
 #
 # Nuclear model: Fermi distribution
 #                Average radius = 6.52745E-13 cm
 #                Skin thickness = 5.46000E-14 cm
 #
 # Number of electrons = 89
 #
 # Total elastic cross section = 1.18622E-17 cm**2 = 4.23606E-01 a0**2
 # 1st transport cross section = 9.32562E-22 cm**2 = 3.33024E-05 a0**2
 # 2nd transport cross section = 2.65579E-21 cm**2 = 9.48400E-05 a0**2
 #
 #
 # Differential cross section:                       MU=(1-COS(THETA))/2
 #
 #  THETA        MU          DCS          DCS        Sherman      error
 #  (deg)                 (cm**2/sr)   (a0**2/sr)    function
 #----------------------------------------------------------------------
0.00000E+00 1.37294E-12
7.61557E-13 1.37294E-12
1.18994E-12 1.37293E-12
1.71346E-12 1.37293E-12
2.33225E-12 1.37292E-12
3.04617E-12 1.37292E-12
3.85530E-12 1.37291E-12
4.75964E-12 1.37291E-12
5.75917E-12 1.37290E-12
6.85391E-12 1.37289E-12
8.04379E-12 1.37288E-12
9.32893E-12 1.37287E-12
1.07092E-11 1.37286E-12
1.21847E-11 1.37285E-12
1.37554E-11 1.37284E-12
1.54213E-11 1.37282E-12
1.71823E-11 1.37281E-12
1.90386E-11 1.37280E-12
2.09900E-11 1.37278E-12
2.30367E-11 1.37277E-12
2.51785E-11 1.37275E-12
2.74156E-11 1.37273E-12
2.97478E-11 1.37271E-12
3.21752E-11 1.37270E-12
3.46979E-11 1.37268E-12
3.73157E-11 1.37266E-12
4.00286E-11 1.37264E-12
4.28368E-11 1.37262E-12
4.57402E-11 1.37259E-12
4.87388E-11 1.37257E-12
5.18325E-11 1.37255E-12
5.50215E-11 1.37252E-12
5.83057E-11 1.37250E-12
6.16850E-11 1.37247E-12
6.51595E-11 1.37245E-12
6.87293E-11 1.37242E-12
7.23943E-11 1.37239E-12
7.61544E-11 1.37236E-12
1.18991E-10 1.37204E-12
1.71347E-10 1.37165E-12
2.33223E-10 1.37119E-12
3.04617E-10 1.37066E-12
3.85531E-10 1.37006E-12
4.75965E-10 1.36938E-12
5.75917E-10 1.36864E-12
6.85389E-10 1.36783E-12
8.04380E-10 1.36695E-12
9.32891E-10 1.36600E-12
1.07092E-09 1.36498E-12
1.21847E-09 1.36390E-12
1.37554E-09 1.36274E-12
1.54213E-09 1.36152E-12
1.71823E-09 1.36023E-12
1.90386E-09 1.35887E-12
2.09900E-09 1.35744E-12
2.30367E-09 1.35595E-12
2.51785E-09 1.35439E-12
2.74156E-09 1.35277E-12
2.97478E-09 1.35108E-12
3.21752E-09 1.34932E-12
3.46978E-09 1.34750E-12
3.73156E-09 1.34562E-12
4.00286E-09 1.34367E-12
4.28368E-09 1.34166E-12
4.57402E-09 1.33958E-12
4.87388E-09 1.33744E-12
5.18326E-09 1.33524E-12
5.50215E-09 1.33298E-12
5.83057E-09 1.33066E-12
6.16850E-09 1.32828E-12
6.51596E-09 1.32584E-12
6.87293E-09 1.32334E-12
7.23942E-09 1.32078E-12
7.61544E-09 1.31816E-12
1.18991E-08 1.28893E-12
1.71347E-08 1.25464E-12
2.33223E-08 1.21600E-12
3.04617E-08 1.17394E-12
3.85531E-08 1.12893E-12
4.75965E-08 1.08212E-12
5.75917E-08 1.03381E-12
6.85389E-08 9.85275E-13
8.04380E-08 9.36421E-13
9.32891E-08 8.88544E-13
1.07092E-07 8.41354E-13
1.21847E-07 7.95803E-13
1.37554E-07 7.51724E-13
1.54213E-07 7.09613E-13
1.71823E-07 6.69468E-13
1.90386E-07 6.31366E-13
2.09900E-07 5.95477E-13
2.30367E-07 5.61541E-13
2.51785E-07 5.29871E-13
2.74156E-07 4.99976E-13
2.97478E-07 4.72264E-13
3.21752E-07 4.46168E-13
3.46978E-07 4.21977E-13
3.73156E-07 3.99290E-13
4.00286E-07 3.78205E-13
4.28368E-07 3.58491E-13
4.57402E-07 3.40117E-13
4.87388E-07 3.22961E-13
5.18325E-07 3.06929E-13
5.50215E-07 2.91954E-13
5.83057E-07 2.77930E-13
6.16850E-07 2.64805E-13
6.51596E-07 2.52498E-13
6.87293E-07 2.40942E-13
7.23942E-07 2.30093E-13
7.61543E-07 2.19876E-13
1.18991E-06 1.44306E-13
1.71347E-06 9.90045E-14
2.33223E-06 7.02140E-14
3.04617E-06 5.07649E-14
3.85531E-06 3.81589E-14
4.75964E-06 2.91255E-14
5.75916E-06 2.28484E-14
6.85388E-06 1.80405E-14
8.04378E-06 1.45774E-14
9.32888E-06 1.18138E-14
1.07092E-05 9.73908E-15
1.21846E-05 8.06652E-15
1.37553E-05 6.75888E-15
1.54212E-05 5.69816E-15
1.71822E-05 4.84268E-15
1.90385E-05 4.14120E-15
2.09899E-05 3.56691E-15
2.30365E-05 3.09321E-15
2.51783E-05 2.69163E-15
2.74153E-05 2.35774E-15
2.97475E-05 2.06982E-15
3.21749E-05 1.82836E-15
3.46974E-05 1.61882E-15
3.73152E-05 1.44049E-15
4.00281E-05 1.28503E-15
4.28362E-05 1.15055E-15
4.57395E-05 1.03280E-15
4.87380E-05 9.29482E-16
5.18317E-05 8.38765E-16
5.50205E-05 7.58316E-16
5.83045E-05 6.87575E-16
6.16838E-05 6.24514E-16
6.51582E-05 5.68967E-16
6.87277E-05 5.18534E-16
7.23925E-05 4.73871E-16
7.61524E-05 4.33713E-16
9.21439E-05 3.10468E-16
1.09658E-04 2.28352E-16
1.28695E-04 1.71761E-16
1.49255E-04 1.31725E-16
1.71338E-04 1.02785E-16
1.94942E-04 8.14317E-17
2.20070E-04 6.53621E-17
2.46720E-04 5.30671E-17
2.74892E-04 4.34996E-17
3.04586E-04 3.60296E-17
3.35803E-04 3.00908E-17
3.68542E-04 2.53424E-17
4.02802E-04 2.14824E-17
4.38585E-04 1.83470E-17
4.75889E-04 1.57505E-17
5.14715E-04 1.36096E-17
5.55063E-04 1.18131E-17
5.96931E-04 1.03089E-17
6.40321E-04 9.03362E-18
6.85233E-04 7.95105E-18
7.31665E-04 7.02495E-18
7.79618E-04 6.22939E-18
8.29092E-04 5.54349E-18
8.80086E-04 4.94812E-18
9.32601E-04 4.43125E-18
9.86636E-04 3.97865E-18
1.04219E-03 3.58329E-18
1.09927E-03 3.23436E-18
1.15786E-03 2.92751E-18
1.21797E-03 2.65547E-18
1.27961E-03 2.41452E-18
1.34276E-03 2.19996E-18
1.40743E-03 2.00871E-18
1.47362E-03 1.83770E-18
1.54133E-03 1.68442E-18
1.61056E-03 1.54682E-18
1.68131E-03 1.42284E-18
1.75357E-03 1.31113E-18
1.82735E-03 1.21002E-18
1.90265E-03 1.11858E-18
1.97947E-03 1.03548E-18
2.05780E-03 9.60027E-19
2.13765E-03 8.91259E-19
2.21902E-03 8.28569E-19
2.30190E-03 7.71269E-19
2.38630E-03 7.18836E-19
2.47222E-03 6.70782E-19
2.55965E-03 6.26660E-19
2.64859E-03 5.86120E-19
2.73905E-03 5.48776E-19
2.83103E-03 5.14381E-19
2.92452E-03 4.82603E-19
3.01952E-03 4.53263E-19
3.11604E-03 4.26091E-19
3.21407E-03 4.00936E-19
3.31362E-03 3.77593E-19
3.41468E-03 3.55926E-19
3.51725E-03 3.35784E-19
3.62133E-03 3.17041E-19
3.72692E-03 2.99585E-19
3.83403E-03 2.83305E-19
3.94265E-03 2.68118E-19
4.05278E-03 2.53922E-19
4.16442E-03 2.40658E-19
4.27757E-03 2.28235E-19
4.39223E-03 2.16607E-19
4.50840E-03 2.05700E-19
4.62608E-03 1.95472E-19
4.74527E-03 1.85866E-19
4.86597E-03 1.76840E-19
4.98817E-03 1.68352E-19
5.11188E-03 1.60364E-19
5.23711E-03 1.52842E-19
5.36383E-03 1.45752E-19
5.49207E-03 1.39067E-19
5.62181E-03 1.32756E-19
5.75306E-03 1.26800E-19
5.88581E-03 1.21169E-19
6.02007E-03 1.15847E-19
6.15583E-03 1.10810E-19
6.29310E-03 1.06043E-19
6.43187E-03 1.01528E-19
6.57214E-03 9.72483E-20
6.71392E-03 9.31906E-20
6.85720E-03 8.93404E-20
7.00198E-03 8.56862E-20
7.14827E-03 8.22146E-20
7.29605E-03 7.89169E-20
7.44534E-03 7.57804E-20
7.59612E-03 7.27982E-20
7.97965E-03 6.59535E-20
8.37255E-03 5.98896E-20
8.77480E-03 5.45021E-20
9.18641E-03 4.97021E-20
9.60736E-03 4.54156E-20
1.00376E-02 4.15780E-20
1.04773E-02 3.81342E-20
1.09262E-02 3.50372E-20
1.13844E-02 3.22459E-20
1.18520E-02 2.97250E-20
1.23288E-02 2.74440E-20
1.28150E-02 2.53759E-20
1.33104E-02 2.34975E-20
1.38150E-02 2.17884E-20
1.43290E-02 2.02307E-20
1.48521E-02 1.88086E-20
1.53845E-02 1.75084E-20
1.59262E-02 1.63177E-20
1.64770E-02 1.52257E-20
1.70371E-02 1.42229E-20
1.76063E-02 1.33005E-20
1.81848E-02 1.24511E-20
1.87724E-02 1.16679E-20
1.93692E-02 1.09448E-20
1.99751E-02 1.02764E-20
2.05901E-02 9.65776E-21
2.12143E-02 9.08457E-21
2.18476E-02 8.55292E-21
2.24900E-02 8.05926E-21
2.31415E-02 7.60036E-21
2.38021E-02 7.17337E-21
2.44717E-02 6.77568E-21
2.51504E-02 6.40489E-21
2.58382E-02 6.05889E-21
2.65349E-02 5.73568E-21
2.72407E-02 5.43359E-21
2.79555E-02 5.15087E-21
2.86793E-02 4.88617E-21
2.94120E-02 4.63803E-21
3.01537E-02 4.40533E-21
3.09043E-02 4.18685E-21
3.16639E-02 3.98163E-21
3.24324E-02 3.78868E-21
3.32098E-02 3.60716E-21
3.39961E-02 3.43627E-21
3.47912E-02 3.27525E-21
3.55952E-02 3.12346E-21
3.64081E-02 2.98026E-21
3.72297E-02 2.84508E-21
3.80602E-02 2.71738E-21
3.88995E-02 2.59670E-21
3.97476E-02 2.48254E-21
4.06044E-02 2.37453E-21
4.14700E-02 2.27225E-21
4.23443E-02 2.17535E-21
4.32273E-02 2.08350E-21
4.41190E-02 1.99639E-21
4.50194E-02 1.91372E-21
4.59284E-02 1.83523E-21
4.68461E-02 1.76068E-21
4.87074E-02 1.62245E-21
5.06030E-02 1.49735E-21
5.25328E-02 1.38392E-21
5.44967E-02 1.28090E-21
5.64946E-02 1.18715E-21
5.85262E-02 1.10172E-21
6.05914E-02 1.02372E-21
6.26901E-02 9.52411E-22
6.48222E-02 8.87115E-22
6.69873E-02 8.27238E-22
6.91854E-02 7.72254E-22
7.14163E-02 7.21694E-22
7.36799E-02 6.75142E-22
7.59760E-02 6.32226E-22
7.83043E-02 5.92612E-22
8.06647E-02 5.56002E-22
8.30571E-02 5.22131E-22
8.54812E-02 4.90756E-22
8.79369E-02 4.61664E-22
9.04240E-02 4.34659E-22
9.29422E-02 4.09566E-22
9.54915E-02 3.86226E-22
9.80716E-02 3.64495E-22
1.00682E-01 3.44244E-22
1.03323E-01 3.25354E-22
1.05995E-01 3.07718E-22
1.08696E-01 2.91238E-22
1.11427E-01 2.75826E-22
1.14188E-01 2.61400E-22
1.16978E-01 2.47886E-22
1.19797E-01 2.35217E-22
1.22645E-01 2.23330E-22
1.25522E-01 2.12170E-22
1.28428E-01 2.01683E-22
1.31361E-01 1.91823E-22
1.34323E-01 1.82545E-22
1.37313E-01 1.73809E-22
1.40330E-01 1.65578E-22
1.43375E-01 1.57818E-22
1.46447E-01 1.50497E-22
1.49545E-01 1.43586E-22
1.52671E-01 1.37057E-22
1.55823E-01 1.30887E-22
1.59001E-01 1.25052E-22
1.62205E-01 1.19530E-22
1.65435E-01 1.14303E-22
1.68690E-01 1.09351E-22
1.71970E-01 1.04657E-22
1.75276E-01 1.00207E-22
1.78606E-01 9.59841E-23
1.81961E-01 9.19756E-23
1.85340E-01 8.81687E-23
1.88743E-01 8.45513E-23
1.92169E-01 8.11126E-23
1.95619E-01 7.78421E-23
1.99092E-01 7.47302E-23
2.02589E-01 7.17677E-23
2.06107E-01 6.89465E-23
2.09649E-01 6.62584E-23
2.13212E-01 6.36963E-23
2.16797E-01 6.12530E-23
2.20404E-01 5.89223E-23
2.24032E-01 5.66979E-23
2.27680E-01 5.45742E-23
2.31350E-01 5.25459E-23
2.35040E-01 5.06080E-23
2.38751E-01 4.87556E-23
2.42481E-01 4.69844E-23
2.46231E-01 4.52903E-23
2.50000E-01 4.36692E-23
2.53788E-01 4.21175E-23
2.57595E-01 4.06318E-23
2.61421E-01 3.92086E-23
2.65264E-01 3.78450E-23
2.69126E-01 3.65381E-23
2.73005E-01 3.52850E-23
2.76901E-01 3.40831E-23
2.80814E-01 3.29300E-23
2.84744E-01 3.18235E-23
2.88691E-01 3.07612E-23
2.92653E-01 2.97411E-23
2.96632E-01 2.87613E-23
3.00625E-01 2.78198E-23
3.04634E-01 2.69150E-23
3.08658E-01 2.60451E-23
3.12697E-01 2.52086E-23
3.16749E-01 2.44040E-23
3.20816E-01 2.36298E-23
3.24896E-01 2.28848E-23
3.28990E-01 2.21675E-23
3.33097E-01 2.14769E-23
3.37216E-01 2.08117E-23
3.41348E-01 2.01709E-23
3.45492E-01 1.95534E-23
3.49647E-01 1.89582E-23
3.53814E-01 1.83844E-23
3.57992E-01 1.78310E-23
3.62181E-01 1.72973E-23
3.66381E-01 1.67823E-23
3.70590E-01 1.62855E-23
3.74810E-01 1.58059E-23
3.79039E-01 1.53429E-23
3.83277E-01 1.48958E-23
3.87524E-01 1.44640E-23
3.91780E-01 1.40469E-23
3.96044E-01 1.36438E-23
4.00316E-01 1.32543E-23
4.04596E-01 1.28778E-23
4.08882E-01 1.25138E-23
4.13176E-01 1.21618E-23
4.17476E-01 1.18214E-23
4.21783E-01 1.14920E-23
4.26095E-01 1.11733E-23
4.30413E-01 1.08649E-23
4.34737E-01 1.05664E-23
4.39065E-01 1.02775E-23
4.43398E-01 9.99766E-24
4.47736E-01 9.72668E-24
4.52077E-01 9.46420E-24
4.56422E-01 9.20992E-24
4.60770E-01 8.96353E-24
4.65122E-01 8.72475E-24
4.69476E-01 8.49330E-24
4.73832E-01 8.26892E-24
4.78190E-01 8.05137E-24
4.82550E-01 7.84040E-24
4.86912E-01 7.63577E-24
4.91274E-01 7.43726E-24
4.95637E-01 7.24467E-24
5.00000E-01 7.05778E-24
5.04363E-01 6.87641E-24
5.08726E-01 6.70035E-24
5.13088E-01 6.52944E-24
5.17450E-01 6.36350E-24
5.21810E-01 6.20235E-24
5.26168E-01 6.04584E-24
5.30524E-01 5.89381E-24
5.34878E-01 5.74612E-24
5.39230E-01 5.60262E-24
5.43578E-01 5.46317E-24
5.47923E-01 5.32764E-24
5.52264E-01 5.19590E-24
5.56602E-01 5.06783E-24
5.60935E-01 4.94331E-24
5.65263E-01 4.82223E-24
5.69587E-01 4.70447E-24
5.73905E-01 4.58993E-24
5.78217E-01 4.47851E-24
5.82524E-01 4.37012E-24
5.86824E-01 4.26465E-24
5.91118E-01 4.16201E-24
5.95404E-01 4.06213E-24
5.99684E-01 3.96490E-24
6.03956E-01 3.87026E-24
6.08220E-01 3.77812E-24
6.12476E-01 3.68841E-24
6.16723E-01 3.60105E-24
6.20961E-01 3.51597E-24
6.25190E-01 3.43310E-24
6.29410E-01 3.35238E-24
6.33619E-01 3.27374E-24
6.37819E-01 3.19712E-24
6.42008E-01 3.12247E-24
6.46186E-01 3.04972E-24
6.50353E-01 2.97881E-24
6.54508E-01 2.90970E-24
6.58652E-01 2.84234E-24
6.62784E-01 2.77666E-24
6.66903E-01 2.71263E-24
6.71010E-01 2.65020E-24
6.75104E-01 2.58932E-24
6.79184E-01 2.52994E-24
6.83251E-01 2.47204E-24
6.87303E-01 2.41555E-24
6.91342E-01 2.36046E-24
6.95366E-01 2.30671E-24
6.99375E-01 2.25426E-24
7.03368E-01 2.20309E-24
7.07347E-01 2.15316E-24
7.11309E-01 2.10443E-24
7.15256E-01 2.05688E-24
7.19186E-01 2.01046E-24
7.23099E-01 1.96515E-24
7.26995E-01 1.92092E-24
7.30874E-01 1.87774E-24
7.34736E-01 1.83559E-24
7.38579E-01 1.79442E-24
7.42405E-01 1.75423E-24
7.46212E-01 1.71498E-24
7.50000E-01 1.67665E-24
7.53769E-01 1.63922E-24
7.57519E-01 1.60266E-24
7.61249E-01 1.56695E-24
7.64960E-01 1.53206E-24
7.68650E-01 1.49799E-24
7.72320E-01 1.46470E-24
7.75968E-01 1.43217E-24
7.79596E-01 1.40039E-24
7.83203E-01 1.36935E-24
7.86788E-01 1.33901E-24
7.90351E-01 1.30936E-24
7.93893E-01 1.28039E-24
7.97411E-01 1.25208E-24
8.00908E-01 1.22441E-24
8.04381E-01 1.19736E-24
8.07831E-01 1.17093E-24
8.11257E-01 1.14510E-24
8.14660E-01 1.11985E-24
8.18039E-01 1.09516E-24
8.21394E-01 1.07104E-24
8.24724E-01 1.04745E-24
8.28030E-01 1.02439E-24
8.31310E-01 1.00185E-24
8.34565E-01 9.79817E-25
8.37795E-01 9.58274E-25
8.40999E-01 9.37213E-25
8.44177E-01 9.16623E-25
8.47329E-01 8.96493E-25
8.50455E-01 8.76812E-25
8.53553E-01 8.57570E-25
8.56625E-01 8.38758E-25
8.59670E-01 8.20366E-25
8.62687E-01 8.02384E-25
8.65677E-01 7.84803E-25
8.68639E-01 7.67615E-25
8.71572E-01 7.50811E-25
8.74478E-01 7.34382E-25
8.77355E-01 7.18321E-25
8.80203E-01 7.02620E-25
8.83022E-01 6.87270E-25
8.85812E-01 6.72265E-25
8.88573E-01 6.57598E-25
8.91304E-01 6.43260E-25
8.94005E-01 6.29246E-25
8.96677E-01 6.15548E-25
8.99318E-01 6.02161E-25
9.01928E-01 5.89077E-25
9.04508E-01 5.76291E-25
9.07058E-01 5.63797E-25
9.09576E-01 5.51589E-25
9.12063E-01 5.39661E-25
9.14519E-01 5.28008E-25
9.16943E-01 5.16625E-25
9.19335E-01 5.05505E-25
9.21696E-01 4.94645E-25
9.24024E-01 4.84040E-25
9.26320E-01 4.73684E-25
9.28584E-01 4.63573E-25
9.30815E-01 4.53702E-25
9.33013E-01 4.44067E-25
9.35178E-01 4.34665E-25
9.37310E-01 4.25490E-25
9.39409E-01 4.16538E-25
9.41474E-01 4.07806E-25
9.43505E-01 3.99291E-25
9.45503E-01 3.90987E-25
9.47467E-01 3.82892E-25
9.49397E-01 3.75003E-25
9.51293E-01 3.67315E-25
9.53154E-01 3.59825E-25
9.54981E-01 3.52531E-25
9.56773E-01 3.45429E-25
9.58530E-01 3.38516E-25
9.60252E-01 3.31790E-25
9.61940E-01 3.25247E-25
9.63592E-01 3.18885E-25
9.65209E-01 3.12701E-25
9.66790E-01 3.06692E-25
9.68336E-01 3.00857E-25
9.69846E-01 2.95192E-25
9.71321E-01 2.89695E-25
9.72759E-01 2.84364E-25
9.74162E-01 2.79198E-25
9.75528E-01 2.74192E-25
9.76858E-01 2.69347E-25
9.78152E-01 2.64659E-25
9.79410E-01 2.60127E-25
9.80631E-01 2.55749E-25
9.81815E-01 2.51523E-25
9.82963E-01 2.47448E-25
9.84074E-01 2.43522E-25
9.85148E-01 2.39742E-25
9.86185E-01 2.36109E-25
9.87185E-01 2.32620E-25
9.88148E-01 2.29274E-25
9.89074E-01 2.26069E-25
9.89962E-01 2.23005E-25
9.90814E-01 2.20079E-25
9.91627E-01 2.17292E-25
9.92404E-01 2.14642E-25
9.93143E-01 2.12127E-25
9.93844E-01 2.09747E-25
9.94508E-01 2.07501E-25
9.95134E-01 2.05388E-25
9.95722E-01 2.03408E-25
9.96273E-01 2.01558E-25
9.96786E-01 1.99840E-25
9.97261E-01 1.98251E-25
9.97698E-01 1.96791E-25
9.98097E-01 1.95461E-25
9.98459E-01 1.94259E-25
9.98782E-01 1.93184E-25
9.99067E-01 1.92237E-25
9.99315E-01 1.91417E-25
9.99524E-01 1.90723E-25
9.99695E-01 1.90157E-25
9.99829E-01 1.89716E-25
9.99924E-01 1.89401E-25
9.99981E-01 1.89212E-25
1.00000E+00 1.89149E-25
