 #
 # Subroutine ELSEPA. Elastic scattering of electrons and positrons
 #                    by neutral atoms and positive ions
 #
 # Projectile: positron
 # Kinetic energy = 5.00000E+08 eV = 1.83747E+07 a.u.
 #
 # WARNING: High-energy factorization with free-atom DF screening.
 #          Absorption, polarization and exchange corrections are
 #          switched off.
 #          Phase shifts are calculated for the bare nucleus.
 #          Scattering amplitudes are not evaluated.
 #
 # Element: Ac,  Z =  89,  atomic weight = 2.27028E+02 g/mol
 #
 # Nuclear model: Fermi distribution
 #                Average radius = 6.52745E-13 cm
 #                Skin thickness = 5.46000E-14 cm
 #
 # Number of electrons = 89
 #
 # Total elastic cross section = 1.15217E-17 cm**2 = 4.11448E-01 a0**2
 # 1st transport cross section = 5.83610E-26 cm**2 = 2.08411E-09 a0**2
 # 2nd transport cross section = 1.75012E-25 cm**2 = 6.24978E-09 a0**2
 #
 #
 # Differential cross section:                       MU=(1-COS(THETA))/2
 #
 #  THETA        MU          DCS          DCS        Sherman      error
 #  (deg)                 (cm**2/sr)   (a0**2/sr)    function
 #----------------------------------------------------------------------
0.00000E+00 3.79366E-08
7.61557E-13 3.38843E-08
1.18994E-12 3.19124E-08
1.71346E-12 2.97473E-08
2.33225E-12 2.74900E-08
3.04617E-12 2.52265E-08
3.85530E-12 2.30249E-08
4.75964E-12 2.09347E-08
5.75917E-12 1.89882E-08
6.85391E-12 1.72050E-08
8.04379E-12 1.55886E-08
9.32893E-12 1.41342E-08
1.07092E-11 1.28331E-08
1.21847E-11 1.16734E-08
1.37554E-11 1.06415E-08
1.54213E-11 9.72375E-09
1.71823E-11 8.90704E-09
1.90386E-11 8.17900E-09
2.09900E-11 7.52858E-09
2.30367E-11 6.94590E-09
2.51785E-11 6.42230E-09
2.74156E-11 5.95005E-09
2.97478E-11 5.52285E-09
3.21752E-11 5.13526E-09
3.46979E-11 4.78259E-09
3.73157E-11 4.46084E-09
4.00286E-11 4.16655E-09
4.28368E-11 3.89674E-09
4.57402E-11 3.64886E-09
4.87388E-11 3.42066E-09
5.18325E-11 3.21022E-09
5.50215E-11 3.01582E-09
5.83057E-11 2.83572E-09
6.16850E-11 2.66887E-09
6.51595E-11 2.51415E-09
6.87293E-11 2.37052E-09
7.23943E-11 2.23704E-09
7.61544E-11 2.11287E-09
1.18991E-10 1.23418E-09
1.71347E-10 7.81585E-10
2.33223E-10 5.21919E-10
3.04617E-10 3.62948E-10
3.85531E-10 2.60466E-10
4.75965E-10 1.91807E-10
5.75917E-10 1.44440E-10
6.85389E-10 1.10871E-10
8.04380E-10 8.66141E-11
9.32891E-10 6.87417E-11
1.07092E-09 5.53064E-11
1.21847E-09 4.50233E-11
1.37554E-09 3.70272E-11
1.54213E-09 3.07238E-11
1.71823E-09 2.56958E-11
1.90386E-09 2.16447E-11
2.09900E-09 1.83540E-11
2.30367E-09 1.56655E-11
2.51785E-09 1.34298E-11
2.74156E-09 1.15773E-11
2.97478E-09 1.00361E-11
3.21752E-09 8.74598E-12
3.46978E-09 7.65896E-12
3.73156E-09 6.73726E-12
4.00286E-09 5.95108E-12
4.28368E-09 5.27688E-12
4.57402E-09 4.69594E-12
4.87388E-09 4.19325E-12
5.18326E-09 3.75656E-12
5.50215E-09 3.37583E-12
5.83057E-09 3.04248E-12
6.16850E-09 2.74971E-12
6.51596E-09 2.49166E-12
6.87293E-09 2.26340E-12
7.23942E-09 2.06080E-12
7.61544E-09 1.88043E-12
1.18991E-08 8.31493E-13
1.71347E-08 4.23710E-13
2.33223E-08 2.38480E-13
3.04617E-08 1.44249E-13
3.85531E-08 9.22337E-14
4.75965E-08 6.16533E-14
5.75917E-08 4.27464E-14
6.85389E-08 3.05614E-14
8.04380E-08 2.24304E-14
9.32891E-08 1.68367E-14
1.07092E-07 1.28848E-14
1.21847E-07 1.00286E-14
1.37554E-07 7.92225E-15
1.54213E-07 6.34103E-15
1.71823E-07 5.13502E-15
1.90386E-07 4.20239E-15
2.09900E-07 3.47199E-15
2.30367E-07 2.89335E-15
2.51785E-07 2.43023E-15
2.74156E-07 2.05605E-15
2.97478E-07 1.75110E-15
3.21752E-07 1.50057E-15
3.46978E-07 1.29324E-15
3.73156E-07 1.12048E-15
4.00286E-07 9.75601E-16
4.28368E-07 8.53383E-16
4.57402E-07 7.49709E-16
4.87388E-07 6.61307E-16
5.18325E-07 5.85551E-16
5.50215E-07 5.20338E-16
5.83057E-07 4.63956E-16
6.16850E-07 4.15008E-16
6.51596E-07 3.72347E-16
6.87293E-07 3.35031E-16
7.23942E-07 3.02275E-16
7.61543E-07 2.73427E-16
1.18991E-06 1.12860E-16
1.71347E-06 5.47140E-17
2.33223E-06 2.96438E-17
3.04617E-06 1.74239E-17
3.85531E-06 1.08995E-17
4.75964E-06 7.16194E-18
5.75916E-06 4.89728E-18
6.85388E-06 3.46082E-18
8.04378E-06 2.51432E-18
9.32888E-06 1.87026E-18
1.07092E-05 1.41977E-18
1.21846E-05 1.09706E-18
1.37553E-05 8.61006E-19
1.54212E-05 6.85139E-19
1.71822E-05 5.51949E-19
1.90385E-05 4.49274E-19
2.09899E-05 3.69931E-19
2.30365E-05 3.07281E-19
2.51783E-05 2.57253E-19
2.74153E-05 2.16931E-19
2.97475E-05 1.84174E-19
3.21749E-05 1.57370E-19
3.46974E-05 1.35282E-19
3.73152E-05 1.16952E-19
4.00281E-05 1.01636E-19
4.28362E-05 8.87512E-20
4.57395E-05 7.78432E-20
4.87380E-05 6.85558E-20
5.18317E-05 6.06079E-20
5.50205E-05 5.37755E-20
5.83045E-05 4.78779E-20
6.16838E-05 4.27670E-20
6.51582E-05 3.83210E-20
6.87277E-05 3.44388E-20
7.23925E-05 3.10364E-20
7.61524E-05 2.84282E-20
9.21439E-05 1.94505E-20
1.09658E-04 1.37567E-20
1.28695E-04 1.00014E-20
1.49255E-04 7.44381E-21
1.71338E-04 5.65326E-21
1.94942E-04 4.36935E-21
2.20070E-04 3.42920E-21
2.46720E-04 2.72795E-21
2.74892E-04 2.19632E-21
3.04586E-04 1.78730E-21
3.35803E-04 1.46853E-21
3.68542E-04 1.21709E-21
4.02802E-04 1.01666E-21
4.38585E-04 8.55326E-22
4.75889E-04 7.24284E-22
5.14715E-04 6.16994E-22
5.55063E-04 5.28476E-22
5.96931E-04 4.54947E-22
6.40321E-04 3.93474E-22
6.85233E-04 3.41774E-22
7.31665E-04 2.98057E-22
7.79618E-04 2.60895E-22
8.29092E-04 2.29158E-22
8.80086E-04 2.01930E-22
9.32601E-04 1.78474E-22
9.86636E-04 1.58187E-22
1.04219E-03 1.40575E-22
1.09927E-03 1.25234E-22
1.15786E-03 1.11827E-22
1.21797E-03 1.00074E-22
1.27961E-03 8.97398E-23
1.34276E-03 8.06292E-23
1.40743E-03 7.25764E-23
1.47362E-03 6.54405E-23
1.54133E-03 5.91028E-23
1.61056E-03 5.34612E-23
1.68131E-03 4.84287E-23
1.75357E-03 4.39308E-23
1.82735E-03 3.99028E-23
1.90265E-03 3.62892E-23
1.97947E-03 3.30417E-23
2.05780E-03 3.01185E-23
2.13765E-03 2.74830E-23
2.21902E-03 2.51035E-23
2.30190E-03 2.29519E-23
2.38630E-03 2.10039E-23
2.47222E-03 1.92378E-23
2.55965E-03 1.76347E-23
2.64859E-03 1.61778E-23
2.73905E-03 1.48524E-23
2.83103E-03 1.36451E-23
2.92452E-03 1.25444E-23
3.01952E-03 1.15399E-23
3.11604E-03 1.06223E-23
3.21407E-03 9.78329E-24
3.31362E-03 9.01550E-24
3.41468E-03 8.31232E-24
3.51725E-03 7.66778E-24
3.62133E-03 7.07655E-24
3.72692E-03 6.53384E-24
3.83403E-03 6.03532E-24
3.94265E-03 5.57708E-24
4.05278E-03 5.15561E-24
4.16442E-03 4.76773E-24
4.27757E-03 4.41054E-24
4.39223E-03 4.08144E-24
4.50840E-03 3.77807E-24
4.62608E-03 3.49827E-24
4.74527E-03 3.24008E-24
4.86597E-03 3.00173E-24
4.98817E-03 2.78160E-24
5.11188E-03 2.57821E-24
5.23711E-03 2.39021E-24
5.36383E-03 2.21638E-24
5.49207E-03 2.05559E-24
5.62181E-03 1.90681E-24
5.75306E-03 1.76910E-24
5.88581E-03 1.64160E-24
6.02007E-03 1.52351E-24
6.15583E-03 1.41412E-24
6.29310E-03 1.31276E-24
6.43187E-03 1.21881E-24
6.57214E-03 1.13171E-24
6.71392E-03 1.05095E-24
6.85720E-03 9.76053E-25
7.00198E-03 9.06575E-25
7.14827E-03 8.42116E-25
7.29605E-03 7.82304E-25
7.44534E-03 7.26795E-25
7.59612E-03 6.75272E-25
7.97965E-03 5.62044E-25
8.37255E-03 4.67974E-25
8.77480E-03 3.89779E-25
9.18641E-03 3.24756E-25
9.60736E-03 2.70672E-25
1.00376E-02 2.25680E-25
1.04773E-02 1.88249E-25
1.09262E-02 1.57111E-25
1.13844E-02 1.31209E-25
1.18520E-02 1.09665E-25
1.23288E-02 9.17492E-26
1.28150E-02 7.68525E-26
1.33104E-02 6.44675E-26
1.38150E-02 5.41714E-26
1.43290E-02 4.56115E-26
1.48521E-02 3.84939E-26
1.53845E-02 3.25735E-26
1.59262E-02 2.76462E-26
1.64770E-02 2.35422E-26
1.70371E-02 2.01201E-26
1.76063E-02 1.72622E-26
1.81848E-02 1.48711E-26
1.87724E-02 1.28658E-26
1.93692E-02 1.11793E-26
1.99751E-02 9.75607E-27
2.05901E-02 8.55044E-27
2.12143E-02 7.52462E-27
2.18476E-02 6.64756E-27
2.24900E-02 5.89373E-27
2.31415E-02 5.24221E-27
2.38021E-02 4.67585E-27
2.44717E-02 4.18064E-27
2.51504E-02 3.74513E-27
2.58382E-02 3.36000E-27
2.65349E-02 3.01763E-27
2.72407E-02 2.71183E-27
2.79555E-02 2.43752E-27
2.86793E-02 2.19056E-27
2.94120E-02 1.96757E-27
3.01537E-02 1.76574E-27
3.09043E-02 1.58276E-27
3.16639E-02 1.41668E-27
3.24324E-02 1.26587E-27
3.32098E-02 1.12894E-27
3.39961E-02 1.00467E-27
3.47912E-02 8.92019E-28
3.55952E-02 7.90042E-28
3.64081E-02 6.97896E-28
3.72297E-02 6.14814E-28
3.80602E-02 5.40090E-28
3.88995E-02 4.73067E-28
3.97476E-02 4.13134E-28
4.06044E-02 3.59715E-28
4.14700E-02 3.12268E-28
4.23443E-02 2.70281E-28
4.32273E-02 2.33271E-28
4.41190E-02 2.00782E-28
4.50194E-02 1.72386E-28
4.59284E-02 1.47678E-28
4.68461E-02 1.26280E-28
4.87074E-02 9.20323E-29
5.06030E-02 6.71160E-29
5.25328E-02 4.93865E-29
5.44967E-02 3.70587E-29
5.64946E-02 2.86787E-29
5.85262E-02 2.30909E-29
6.05914E-02 1.94016E-29
6.26901E-02 1.69401E-29
6.48222E-02 1.52215E-29
6.69873E-02 1.39111E-29
6.91854E-02 1.27913E-29
7.14163E-02 1.17331E-29
7.36799E-02 1.06713E-29
7.59760E-02 9.58443E-30
7.83043E-02 8.47861E-30
8.06647E-02 7.37496E-30
8.30571E-02 6.30074E-30
8.54812E-02 5.28311E-30
8.79369E-02 4.34525E-30
9.04240E-02 3.50428E-30
9.29422E-02 2.77052E-30
9.54915E-02 2.14772E-30
9.80716E-02 1.63386E-30
1.00682E-01 1.22228E-30
1.03323E-01 9.03025E-31
1.05995E-01 6.64027E-31
1.08696E-01 4.92272E-31
1.11427E-01 3.74725E-31
1.14188E-01 2.99067E-31
1.16978E-01 2.54201E-31
1.19797E-01 2.30581E-31
1.22645E-01 2.20344E-31
1.25522E-01 2.17328E-31
1.28428E-01 2.16968E-31
1.31361E-01 2.16121E-31
1.34323E-01 2.12857E-31
1.37313E-01 2.06224E-31
1.40330E-01 1.96011E-31
1.43375E-01 1.82539E-31
1.46447E-01 1.66461E-31
1.49545E-01 1.48611E-31
1.52671E-01 1.29870E-31
1.55823E-01 1.11077E-31
1.59001E-01 9.29626E-32
1.62205E-01 7.61114E-32
1.65435E-01 6.09474E-32
1.68690E-01 4.77340E-32
1.71970E-01 3.65874E-32
1.75276E-01 2.74977E-32
1.78606E-01 2.03545E-32
1.81961E-01 1.49735E-32
1.85340E-01 1.11227E-32
1.88743E-01 8.54589E-33
1.92169E-01 6.98216E-33
1.95619E-01 6.18190E-33
1.99092E-01 5.91830E-33
2.02589E-01 5.99495E-33
2.06107E-01 6.24986E-33
2.09649E-01 6.55654E-33
2.13212E-01 6.82269E-33
2.16797E-01 6.98709E-33
2.20404E-01 7.01544E-33
2.24032E-01 6.89556E-33
2.27680E-01 6.63232E-33
2.31350E-01 6.24287E-33
2.35040E-01 5.75221E-33
2.38751E-01 5.18938E-33
2.42481E-01 4.58430E-33
2.46231E-01 3.96541E-33
2.50000E-01 3.35789E-33
2.53788E-01 2.78258E-33
2.57595E-01 2.25546E-33
2.61421E-01 1.78753E-33
2.65264E-01 1.38508E-33
2.69126E-01 1.05017E-33
2.73005E-01 7.81348E-34
2.76901E-01 5.74345E-34
2.80814E-01 4.22867E-34
2.84744E-01 3.19314E-34
2.88691E-01 2.55436E-34
2.92653E-01 2.22888E-34
2.96632E-01 2.13686E-34
3.00625E-01 2.20540E-34
3.04634E-01 2.37081E-34
3.08658E-01 2.58002E-34
3.12697E-01 2.79093E-34
3.16749E-01 2.97229E-34
3.20816E-01 3.10290E-34
3.24896E-01 3.17048E-34
3.28990E-01 3.17030E-34
3.33097E-01 3.10374E-34
3.37216E-01 2.97676E-34
3.41348E-01 2.79851E-34
3.45492E-01 2.58009E-34
3.49647E-01 2.33339E-34
3.53814E-01 2.07025E-34
3.57992E-01 1.80172E-34
3.62181E-01 1.53760E-34
3.66381E-01 1.28604E-34
3.70590E-01 1.05347E-34
3.74810E-01 8.44481E-35
3.79039E-01 6.61970E-35
3.83277E-01 5.07247E-35
3.87524E-01 3.80262E-35
3.91780E-01 2.79841E-35
3.96044E-01 2.03943E-35
4.00316E-01 1.49900E-35
4.04596E-01 1.14657E-35
4.08882E-01 9.49780E-36
4.13176E-01 8.76241E-36
4.17476E-01 8.94967E-36
4.21783E-01 9.77482E-36
4.26095E-01 1.09860E-35
4.30413E-01 1.23690E-35
4.34737E-01 1.37493E-35
4.39065E-01 1.49921E-35
4.43398E-01 1.60004E-35
4.47736E-01 1.67113E-35
4.52077E-01 1.70929E-35
4.56422E-01 1.71382E-35
4.60770E-01 1.68614E-35
4.65122E-01 1.62923E-35
4.69476E-01 1.54718E-35
4.73832E-01 1.44476E-35
4.78190E-01 1.32709E-35
4.82550E-01 1.19927E-35
4.86912E-01 1.06619E-35
4.91274E-01 9.32278E-36
4.95637E-01 8.01433E-36
5.00000E-01 6.76887E-36
5.04363E-01 5.61193E-36
5.08726E-01 4.56237E-36
5.13088E-01 3.63252E-36
5.17450E-01 2.82871E-36
5.21810E-01 2.15206E-36
5.26168E-01 1.59925E-36
5.30524E-01 1.16339E-36
5.34878E-01 8.34849E-37
5.39230E-01 6.02045E-37
5.43578E-01 4.52184E-37
5.47923E-01 3.71982E-37
5.52264E-01 3.48197E-37
5.56602E-01 3.68077E-37
5.60935E-01 4.19753E-37
5.65263E-01 4.92472E-37
5.69587E-01 5.76857E-37
5.73905E-01 6.64880E-37
5.78217E-01 7.50037E-37
5.82524E-01 8.27140E-37
5.86824E-01 8.92445E-37
5.91118E-01 9.43392E-37
5.95404E-01 9.78534E-37
5.99684E-01 9.97356E-37
6.03956E-01 1.00013E-36
6.08220E-01 9.87773E-37
6.12476E-01 9.61718E-37
6.16723E-01 9.23648E-37
6.20961E-01 8.75576E-37
6.25190E-01 8.19577E-37
6.29410E-01 7.57668E-37
6.33619E-01 6.91891E-37
6.37819E-01 6.24122E-37
6.42008E-01 5.56009E-37
6.46186E-01 4.89112E-37
6.50353E-01 4.24644E-37
6.54508E-01 3.63672E-37
6.58652E-01 3.06968E-37
6.62784E-01 2.55160E-37
6.66903E-01 2.08598E-37
6.71010E-01 1.67475E-37
6.75104E-01 1.31830E-37
6.79184E-01 1.01560E-37
6.83251E-01 7.64151E-38
6.87303E-01 5.60966E-38
6.91342E-01 4.02143E-38
6.95366E-01 2.83330E-38
6.99375E-01 1.99865E-38
7.03368E-01 1.47030E-38
7.07347E-01 1.20105E-38
7.11309E-01 1.14514E-38
7.15256E-01 1.25915E-38
7.19186E-01 1.50313E-38
7.23099E-01 1.83997E-38
7.26995E-01 2.23797E-38
7.30874E-01 2.66863E-38
7.34736E-01 3.10752E-38
7.38579E-01 3.53490E-38
7.42405E-01 3.93469E-38
7.46212E-01 4.29442E-38
7.50000E-01 4.60498E-38
7.53769E-01 4.86030E-38
7.57519E-01 5.05720E-38
7.61249E-01 5.19376E-38
7.64960E-01 5.27128E-38
7.68650E-01 5.29322E-38
7.72320E-01 5.26043E-38
7.75968E-01 5.18018E-38
7.79596E-01 5.05607E-38
7.83203E-01 4.89411E-38
7.86788E-01 4.70028E-38
7.90351E-01 4.47997E-38
7.93893E-01 4.23862E-38
7.97411E-01 3.98251E-38
8.00908E-01 3.71597E-38
8.04381E-01 3.44436E-38
8.07831E-01 3.17124E-38
8.11257E-01 2.90069E-38
8.14660E-01 2.63527E-38
8.18039E-01 2.37887E-38
8.21394E-01 2.13247E-38
8.24724E-01 1.89879E-38
8.28030E-01 1.67860E-38
8.31310E-01 1.47308E-38
8.34565E-01 1.28315E-38
8.37795E-01 1.10841E-38
8.40999E-01 9.49905E-39
8.44177E-01 8.06535E-39
8.47329E-01 6.78390E-39
8.50455E-01 5.64764E-39
8.53553E-01 4.64823E-39
8.56625E-01 3.78022E-39
8.59670E-01 3.03194E-39
8.62687E-01 1.00000E-45
8.65677E-01 1.00000E-45
8.68639E-01 1.00000E-45
8.71572E-01 1.00000E-45
8.74478E-01 1.00000E-45
8.77355E-01 1.00000E-45
8.80203E-01 1.00000E-45
8.83022E-01 1.00000E-45
8.85812E-01 1.00000E-45
8.88573E-01 1.00000E-45
8.91304E-01 1.00000E-45
8.94005E-01 1.00000E-45
8.96677E-01 1.00000E-45
8.99318E-01 1.00000E-45
9.01928E-01 1.00000E-45
9.04508E-01 1.00000E-45
9.07058E-01 1.00000E-45
9.09576E-01 1.00000E-45
9.12063E-01 1.00000E-45
9.14519E-01 1.00000E-45
9.16943E-01 1.00000E-45
9.19335E-01 1.00000E-45
9.21696E-01 1.00000E-45
9.24024E-01 1.00000E-45
9.26320E-01 1.00000E-45
9.28584E-01 1.00000E-45
9.30815E-01 1.00000E-45
9.33013E-01 1.00000E-45
9.35178E-01 1.00000E-45
9.37310E-01 1.00000E-45
9.39409E-01 1.00000E-45
9.41474E-01 1.00000E-45
9.43505E-01 1.00000E-45
9.45503E-01 1.00000E-45
9.47467E-01 1.00000E-45
9.49397E-01 1.00000E-45
9.51293E-01 1.00000E-45
9.53154E-01 1.00000E-45
9.54981E-01 1.00000E-45
9.56773E-01 1.00000E-45
9.58530E-01 1.00000E-45
9.60252E-01 1.00000E-45
9.61940E-01 1.00000E-45
9.63592E-01 1.00000E-45
9.65209E-01 1.00000E-45
9.66790E-01 1.00000E-45
9.68336E-01 1.00000E-45
9.69846E-01 1.00000E-45
9.71321E-01 1.00000E-45
9.72759E-01 1.00000E-45
9.74162E-01 1.00000E-45
9.75528E-01 1.00000E-45
9.76858E-01 1.00000E-45
9.78152E-01 1.00000E-45
9.79410E-01 1.00000E-45
9.80631E-01 1.00000E-45
9.81815E-01 1.00000E-45
9.82963E-01 1.00000E-45
9.84074E-01 1.00000E-45
9.85148E-01 1.00000E-45
9.86185E-01 1.00000E-45
9.87185E-01 1.00000E-45
9.88148E-01 1.00000E-45
9.89074E-01 1.00000E-45
9.89962E-01 1.00000E-45
9.90814E-01 1.00000E-45
9.91627E-01 1.00000E-45
9.92404E-01 1.00000E-45
9.93143E-01 1.00000E-45
9.93844E-01 1.00000E-45
9.94508E-01 1.00000E-45
9.95134E-01 1.00000E-45
9.95722E-01 1.00000E-45
9.96273E-01 1.00000E-45
9.96786E-01 1.00000E-45
9.97261E-01 1.00000E-45
9.97698E-01 1.00000E-45
9.98097E-01 1.00000E-45
9.98459E-01 1.00000E-45
9.98782E-01 1.00000E-45
9.99067E-01 1.00000E-45
9.99315E-01 1.00000E-45
9.99524E-01 1.00000E-45
9.99695E-01 1.00000E-45
9.99829E-01 1.00000E-45
9.99924E-01 1.00000E-45
9.99981E-01 1.00000E-45
1.00000E+00 1.00000E-45
