 #
 # Subroutine ELSEPA. Elastic scattering of electrons and positrons
 #                    by neutral atoms and positive ions
 #
 # Projectile: positron
 # Kinetic energy = 4.50000E+07 eV = 1.65372E+06 a.u.
 #
 # WARNING: High-energy factorization with free-atom DF screening.
 #          Absorption, polarization and exchange corrections are
 #          switched off.
 #          Phase shifts are calculated for the bare nucleus.
 #          Scattering amplitudes are not evaluated.
 #
 # Element: Ac,  Z =  89,  atomic weight = 2.27028E+02 g/mol
 #
 # Nuclear model: Fermi distribution
 #                Average radius = 6.52745E-13 cm
 #                Skin thickness = 5.46000E-14 cm
 #
 # Number of electrons = 89
 #
 # Total elastic cross section = 1.15444E-17 cm**2 = 4.12259E-01 a0**2
 # 1st transport cross section = 6.42116E-24 cm**2 = 2.29304E-07 a0**2
 # 2nd transport cross section = 1.88139E-23 cm**2 = 6.71856E-07 a0**2
 #
 #
 # Differential cross section:                       MU=(1-COS(THETA))/2
 #
 #  THETA        MU          DCS          DCS        Sherman      error
 #  (deg)                 (cm**2/sr)   (a0**2/sr)    function
 #----------------------------------------------------------------------
0.00000E+00 3.13664E-10
7.61557E-13 3.13359E-10
1.18994E-12 3.13188E-10
1.71346E-12 3.12979E-10
2.33225E-12 3.12733E-10
3.04617E-12 3.12450E-10
3.85530E-12 3.12129E-10
4.75964E-12 3.11771E-10
5.75917E-12 3.11377E-10
6.85391E-12 3.10946E-10
8.04379E-12 3.10478E-10
9.32893E-12 3.09975E-10
1.07092E-11 3.09436E-10
1.21847E-11 3.08861E-10
1.37554E-11 3.08251E-10
1.54213E-11 3.07606E-10
1.71823E-11 3.06927E-10
1.90386E-11 3.06214E-10
2.09900E-11 3.05467E-10
2.30367E-11 3.04687E-10
2.51785E-11 3.03874E-10
2.74156E-11 3.03029E-10
2.97478E-11 3.02152E-10
3.21752E-11 3.01244E-10
3.46979E-11 3.00304E-10
3.73157E-11 2.99335E-10
4.00286E-11 2.98335E-10
4.28368E-11 2.97306E-10
4.57402E-11 2.96249E-10
4.87388E-11 2.95163E-10
5.18325E-11 2.94049E-10
5.50215E-11 2.92909E-10
5.83057E-11 2.91741E-10
6.16850E-11 2.90549E-10
6.51595E-11 2.89330E-10
6.87293E-11 2.88088E-10
7.23943E-11 2.86821E-10
7.61544E-11 2.85530E-10
1.18991E-10 2.71497E-10
1.71347E-10 2.55810E-10
2.33223E-10 2.39176E-10
3.04617E-10 2.22140E-10
3.85531E-10 2.05196E-10
4.75965E-10 1.88739E-10
5.75917E-10 1.73061E-10
6.85389E-10 1.58377E-10
8.04380E-10 1.44825E-10
9.32891E-10 1.32391E-10
1.07092E-09 1.21068E-10
1.21847E-09 1.10815E-10
1.37554E-09 1.01567E-10
1.54213E-09 9.32585E-11
1.71823E-09 8.57991E-11
1.90386E-09 7.90881E-11
2.09900E-09 7.30475E-11
2.30367E-09 6.76045E-11
2.51785E-09 6.26920E-11
2.74156E-09 5.82491E-11
2.97478E-09 5.42178E-11
3.21752E-09 5.05510E-11
3.46978E-09 4.72082E-11
3.73156E-09 4.41536E-11
4.00286E-09 4.13560E-11
4.28368E-09 3.87826E-11
4.57402E-09 3.64121E-11
4.87388E-09 3.42262E-11
5.18326E-09 3.22068E-11
5.50215E-09 3.03380E-11
5.83057E-09 2.86058E-11
6.16850E-09 2.69925E-11
6.51596E-09 2.54921E-11
6.87293E-09 2.40958E-11
7.23942E-09 2.27949E-11
7.61544E-09 2.15815E-11
1.18991E-08 1.29038E-11
1.71347E-08 8.28675E-12
2.33223E-08 5.55817E-12
3.04617E-08 3.89129E-12
3.85531E-08 2.81488E-12
4.75965E-08 2.08965E-12
5.75917E-08 1.58484E-12
6.85389E-08 1.22342E-12
8.04380E-08 9.58939E-13
9.32891E-08 7.63577E-13
1.07092E-07 6.16428E-13
1.21847E-07 5.03645E-13
1.37554E-07 4.15832E-13
1.54213E-07 3.46291E-13
1.71823E-07 2.90533E-13
1.90386E-07 2.45553E-13
2.09900E-07 2.08909E-13
2.30367E-07 1.78799E-13
2.51785E-07 1.53879E-13
2.74156E-07 1.33131E-13
2.97478E-07 1.15593E-13
3.21752E-07 1.00843E-13
3.46978E-07 8.83894E-14
3.73156E-07 7.78214E-14
4.00286E-07 6.88071E-14
4.28368E-07 6.10649E-14
4.57402E-07 5.43888E-14
4.87388E-07 4.86084E-14
5.18325E-07 4.35813E-14
5.50215E-07 3.91916E-14
5.83057E-07 3.53447E-14
6.16850E-07 3.19576E-14
6.51596E-07 2.89708E-14
6.87293E-07 2.63295E-14
7.23942E-07 2.39863E-14
7.61543E-07 2.19012E-14
1.18991E-06 9.73886E-15
1.71347E-06 4.97943E-15
2.33223E-06 2.80943E-15
3.04617E-06 1.70462E-15
3.85531E-06 1.09308E-15
4.75964E-06 7.32287E-16
5.75916E-06 5.08513E-16
6.85388E-06 3.63950E-16
8.04378E-06 2.67293E-16
9.32888E-06 2.00719E-16
1.07092E-05 1.53665E-16
1.21846E-05 1.19645E-16
1.37553E-05 9.45502E-17
1.54212E-05 7.57073E-17
1.71822E-05 6.13337E-17
1.90385E-05 5.01781E-17
2.09899E-05 4.15059E-17
2.30365E-05 3.46190E-17
2.51783E-05 2.90907E-17
2.74153E-05 2.46137E-17
2.97475E-05 2.09607E-17
3.21749E-05 1.79597E-17
3.46974E-05 1.54779E-17
3.73152E-05 1.34116E-17
4.00281E-05 1.16799E-17
4.28362E-05 1.02191E-17
4.57395E-05 8.97924E-18
4.87380E-05 7.92119E-18
5.18317E-05 7.01381E-18
5.50205E-05 6.23225E-18
5.83045E-05 5.55637E-18
6.16838E-05 4.96966E-18
6.51582E-05 4.45846E-18
6.87277E-05 4.01142E-18
7.23925E-05 3.61908E-18
7.61524E-05 3.27349E-18
9.21439E-05 2.24281E-18
1.09658E-04 1.58753E-18
1.28695E-04 1.15498E-18
1.49255E-04 8.60150E-19
1.71338E-04 6.53631E-19
1.94942E-04 5.05503E-19
2.20070E-04 3.97028E-19
2.46720E-04 3.16125E-19
2.74892E-04 2.54803E-19
3.04586E-04 2.07635E-19
3.35803E-04 1.70885E-19
3.68542E-04 1.41906E-19
4.02802E-04 1.18810E-19
4.38585E-04 1.00221E-19
4.75889E-04 8.51229E-20
5.14715E-04 7.27606E-20
5.55063E-04 6.25588E-20
5.96931E-04 5.40813E-20
6.40321E-04 4.69898E-20
6.85233E-04 4.10211E-20
7.31665E-04 3.59693E-20
7.79618E-04 3.16699E-20
8.29092E-04 2.79930E-20
8.80086E-04 2.48334E-20
9.32601E-04 2.21063E-20
9.86636E-04 1.97427E-20
1.04219E-03 1.76860E-20
1.09927E-03 1.58896E-20
1.15786E-03 1.43151E-20
1.21797E-03 1.29304E-20
1.27961E-03 1.17087E-20
1.34276E-03 1.06276E-20
1.40743E-03 9.66812E-21
1.47362E-03 8.81421E-21
1.54133E-03 8.05228E-21
1.61056E-03 7.37068E-21
1.68131E-03 6.75950E-21
1.75357E-03 6.21020E-21
1.82735E-03 5.71540E-21
1.90265E-03 5.26877E-21
1.97947E-03 4.86479E-21
2.05780E-03 4.49867E-21
2.13765E-03 4.16625E-21
2.21902E-03 3.86386E-21
2.30190E-03 3.58833E-21
2.38630E-03 3.33685E-21
2.47222E-03 3.10693E-21
2.55965E-03 2.89641E-21
2.64859E-03 2.70336E-21
2.73905E-03 2.52607E-21
2.83103E-03 2.36302E-21
2.92452E-03 2.21286E-21
3.01952E-03 2.07441E-21
3.11604E-03 1.94657E-21
3.21407E-03 1.82838E-21
3.31362E-03 1.71899E-21
3.41468E-03 1.61764E-21
3.51725E-03 1.52361E-21
3.62133E-03 1.43628E-21
3.72692E-03 1.35509E-21
3.83403E-03 1.27954E-21
3.94265E-03 1.20916E-21
4.05278E-03 1.14352E-21
4.16442E-03 1.08226E-21
4.27757E-03 1.02503E-21
4.39223E-03 9.71508E-22
4.50840E-03 9.21421E-22
4.62608E-03 8.74507E-22
4.74527E-03 8.30523E-22
4.86597E-03 7.89254E-22
4.98817E-03 7.50509E-22
5.11188E-03 7.14096E-22
5.23711E-03 6.79852E-22
5.36383E-03 6.47629E-22
5.49207E-03 6.17280E-22
5.62181E-03 5.88677E-22
5.75306E-03 5.61704E-22
5.88581E-03 5.36249E-22
6.02007E-03 5.12211E-22
6.15583E-03 4.89497E-22
6.29310E-03 4.68021E-22
6.43187E-03 4.47702E-22
6.57214E-03 4.28468E-22
6.71392E-03 4.10249E-22
6.85720E-03 3.92982E-22
7.00198E-03 3.76608E-22
7.14827E-03 3.61072E-22
7.29605E-03 3.46324E-22
7.44534E-03 3.32317E-22
7.59612E-03 3.19005E-22
7.97965E-03 2.88511E-22
8.37255E-03 2.61551E-22
8.77480E-03 2.37647E-22
9.18641E-03 2.16394E-22
9.60736E-03 1.97448E-22
1.00376E-02 1.80515E-22
1.04773E-02 1.65345E-22
1.09262E-02 1.51724E-22
1.13844E-02 1.39466E-22
1.18520E-02 1.28412E-22
1.23288E-02 1.18424E-22
1.28150E-02 1.09381E-22
1.33104E-02 1.01181E-22
1.38150E-02 9.37242E-23
1.43290E-02 8.69311E-23
1.48521E-02 8.07364E-23
1.53845E-02 7.50782E-23
1.59262E-02 6.99019E-23
1.64770E-02 6.51594E-23
1.70371E-02 6.08079E-23
1.76063E-02 5.68097E-23
1.81848E-02 5.31309E-23
1.87724E-02 4.97417E-23
1.93692E-02 4.66152E-23
1.99751E-02 4.37275E-23
2.05901E-02 4.10571E-23
2.12143E-02 3.85849E-23
2.18476E-02 3.62936E-23
2.24900E-02 3.41676E-23
2.31415E-02 3.21928E-23
2.38021E-02 3.03567E-23
2.44717E-02 2.86477E-23
2.51504E-02 2.70556E-23
2.58382E-02 2.55709E-23
2.65349E-02 2.41851E-23
2.72407E-02 2.28905E-23
2.79555E-02 2.16800E-23
2.86793E-02 2.05472E-23
2.94120E-02 1.94862E-23
3.01537E-02 1.84916E-23
3.09043E-02 1.75586E-23
3.16639E-02 1.66827E-23
3.24324E-02 1.58598E-23
3.32098E-02 1.50861E-23
3.39961E-02 1.43581E-23
3.47912E-02 1.36728E-23
3.55952E-02 1.30270E-23
3.64081E-02 1.24182E-23
3.72297E-02 1.18438E-23
3.80602E-02 1.13017E-23
3.88995E-02 1.07895E-23
3.97476E-02 1.03055E-23
4.06044E-02 9.84769E-24
4.14700E-02 9.41452E-24
4.23443E-02 9.00440E-24
4.32273E-02 8.61588E-24
4.41190E-02 8.24763E-24
4.50194E-02 7.89840E-24
4.59284E-02 7.56704E-24
4.68461E-02 7.25248E-24
4.87074E-02 6.66980E-24
5.06030E-02 6.14315E-24
5.25328E-02 5.66626E-24
5.44967E-02 5.23366E-24
5.64946E-02 4.84054E-24
5.85262E-02 4.48272E-24
6.05914E-02 4.15651E-24
6.26901E-02 3.85864E-24
6.48222E-02 3.58626E-24
6.69873E-02 3.33682E-24
6.91854E-02 3.10808E-24
7.14163E-02 2.89803E-24
7.36799E-02 2.70490E-24
7.59760E-02 2.52710E-24
7.83043E-02 2.36321E-24
8.06647E-02 2.21198E-24
8.30571E-02 2.07225E-24
8.54812E-02 1.94302E-24
8.79369E-02 1.82336E-24
9.04240E-02 1.71246E-24
9.29422E-02 1.60956E-24
9.54915E-02 1.51400E-24
9.80716E-02 1.42516E-24
1.00682E-01 1.34250E-24
1.03323E-01 1.26552E-24
1.05995E-01 1.19377E-24
1.08696E-01 1.12683E-24
1.11427E-01 1.06433E-24
1.14188E-01 1.00592E-24
1.16978E-01 9.51301E-25
1.19797E-01 9.00182E-25
1.22645E-01 8.52304E-25
1.25522E-01 8.07428E-25
1.28428E-01 7.65336E-25
1.31361E-01 7.25829E-25
1.34323E-01 6.88722E-25
1.37313E-01 6.53846E-25
1.40330E-01 6.21046E-25
1.43375E-01 5.90179E-25
1.46447E-01 5.61114E-25
1.49545E-01 5.33728E-25
1.52671E-01 5.07909E-25
1.55823E-01 4.83555E-25
1.59001E-01 4.60567E-25
1.62205E-01 4.38859E-25
1.65435E-01 4.18348E-25
1.68690E-01 3.98958E-25
1.71970E-01 3.80617E-25
1.75276E-01 3.63261E-25
1.78606E-01 3.46828E-25
1.81961E-01 3.31262E-25
1.85340E-01 3.16510E-25
1.88743E-01 3.02523E-25
1.92169E-01 2.89255E-25
1.95619E-01 2.76664E-25
1.99092E-01 2.64710E-25
2.02589E-01 2.53356E-25
2.06107E-01 2.42567E-25
2.09649E-01 2.32311E-25
2.13212E-01 2.22558E-25
2.16797E-01 2.13279E-25
2.20404E-01 2.04448E-25
2.24032E-01 1.96040E-25
2.27680E-01 1.88031E-25
2.31350E-01 1.80401E-25
2.35040E-01 1.73128E-25
2.38751E-01 1.66193E-25
2.42481E-01 1.59579E-25
2.46231E-01 1.53267E-25
2.50000E-01 1.47244E-25
2.53788E-01 1.41492E-25
2.57595E-01 1.35999E-25
2.61421E-01 1.30751E-25
2.65264E-01 1.25735E-25
2.69126E-01 1.20940E-25
2.73005E-01 1.16355E-25
2.76901E-01 1.11969E-25
2.80814E-01 1.07772E-25
2.84744E-01 1.03755E-25
2.88691E-01 9.99090E-26
2.92653E-01 9.62261E-26
2.96632E-01 9.26981E-26
3.00625E-01 8.93176E-26
3.04634E-01 8.60776E-26
3.08658E-01 8.29715E-26
3.12697E-01 7.99929E-26
3.16749E-01 7.71360E-26
3.20816E-01 7.43949E-26
3.24896E-01 7.17645E-26
3.28990E-01 6.92395E-26
3.33097E-01 6.68153E-26
3.37216E-01 6.44872E-26
3.41348E-01 6.22509E-26
3.45492E-01 6.01024E-26
3.49647E-01 5.80376E-26
3.53814E-01 5.60529E-26
3.57992E-01 5.41448E-26
3.62181E-01 5.23099E-26
3.66381E-01 5.05450E-26
3.70590E-01 4.88471E-26
3.74810E-01 4.72134E-26
3.79039E-01 4.56410E-26
3.83277E-01 4.41275E-26
3.87524E-01 4.26702E-26
3.91780E-01 4.12668E-26
3.96044E-01 3.99151E-26
4.00316E-01 3.86130E-26
4.04596E-01 3.73583E-26
4.08882E-01 3.61491E-26
4.13176E-01 3.49836E-26
4.17476E-01 3.38599E-26
4.21783E-01 3.27764E-26
4.26095E-01 3.17315E-26
4.30413E-01 3.07236E-26
4.34737E-01 2.97513E-26
4.39065E-01 2.88130E-26
4.43398E-01 2.79076E-26
4.47736E-01 2.70336E-26
4.52077E-01 2.61899E-26
4.56422E-01 2.53753E-26
4.60770E-01 2.45887E-26
4.65122E-01 2.38289E-26
4.69476E-01 2.30949E-26
4.73832E-01 2.23859E-26
4.78190E-01 2.17007E-26
4.82550E-01 2.10386E-26
4.86912E-01 2.03986E-26
4.91274E-01 1.97799E-26
4.95637E-01 1.91817E-26
5.00000E-01 1.86033E-26
5.04363E-01 1.80439E-26
5.08726E-01 1.75028E-26
5.13088E-01 1.69794E-26
5.17450E-01 1.64731E-26
5.21810E-01 1.59831E-26
5.26168E-01 1.55089E-26
5.30524E-01 1.50499E-26
5.34878E-01 1.46056E-26
5.39230E-01 1.41755E-26
5.43578E-01 1.37591E-26
5.47923E-01 1.33558E-26
5.52264E-01 1.29652E-26
5.56602E-01 1.25869E-26
5.60935E-01 1.22204E-26
5.65263E-01 1.18654E-26
5.69587E-01 1.15214E-26
5.73905E-01 1.11880E-26
5.78217E-01 1.08649E-26
5.82524E-01 1.05517E-26
5.86824E-01 1.02482E-26
5.91118E-01 9.95386E-27
5.95404E-01 9.66850E-27
5.99684E-01 9.39179E-27
6.03956E-01 9.12343E-27
6.08220E-01 8.86316E-27
6.12476E-01 8.61069E-27
6.16723E-01 8.36578E-27
6.20961E-01 8.12816E-27
6.25190E-01 7.89760E-27
6.29410E-01 7.67387E-27
6.33619E-01 7.45675E-27
6.37819E-01 7.24601E-27
6.42008E-01 7.04145E-27
6.46186E-01 6.84288E-27
6.50353E-01 6.65009E-27
6.54508E-01 6.46291E-27
6.58652E-01 6.28115E-27
6.62784E-01 6.10464E-27
6.66903E-01 5.93322E-27
6.71010E-01 5.76672E-27
6.75104E-01 5.60498E-27
6.79184E-01 5.44787E-27
6.83251E-01 5.29522E-27
6.87303E-01 5.14691E-27
6.91342E-01 5.00280E-27
6.95366E-01 4.86276E-27
6.99375E-01 4.72665E-27
7.03368E-01 4.59437E-27
7.07347E-01 4.46580E-27
7.11309E-01 4.34081E-27
7.15256E-01 4.21931E-27
7.19186E-01 4.10118E-27
7.23099E-01 3.98632E-27
7.26995E-01 3.87464E-27
7.30874E-01 3.76604E-27
7.34736E-01 3.66043E-27
7.38579E-01 3.55771E-27
7.42405E-01 3.45780E-27
7.46212E-01 3.36063E-27
7.50000E-01 3.26610E-27
7.53769E-01 3.17413E-27
7.57519E-01 3.08467E-27
7.61249E-01 2.99762E-27
7.64960E-01 2.91292E-27
7.68650E-01 2.83051E-27
7.72320E-01 2.75031E-27
7.75968E-01 2.67226E-27
7.79596E-01 2.59630E-27
7.83203E-01 2.52237E-27
7.86788E-01 2.45042E-27
7.90351E-01 2.38037E-27
7.93893E-01 2.31219E-27
7.97411E-01 2.24582E-27
8.00908E-01 2.18120E-27
8.04381E-01 2.11830E-27
8.07831E-01 2.05705E-27
8.11257E-01 1.99741E-27
8.14660E-01 1.93935E-27
8.18039E-01 1.88281E-27
8.21394E-01 1.82775E-27
8.24724E-01 1.77413E-27
8.28030E-01 1.72191E-27
8.31310E-01 1.67106E-27
8.34565E-01 1.62154E-27
8.37795E-01 1.57330E-27
8.40999E-01 1.52633E-27
8.44177E-01 1.48057E-27
8.47329E-01 1.43600E-27
8.50455E-01 1.39259E-27
8.53553E-01 1.35031E-27
8.56625E-01 1.30912E-27
8.59670E-01 1.26899E-27
8.62687E-01 1.22991E-27
8.65677E-01 1.19184E-27
8.68639E-01 1.15475E-27
8.71572E-01 1.11863E-27
8.74478E-01 1.08343E-27
8.77355E-01 1.04915E-27
8.80203E-01 1.01576E-27
8.83022E-01 9.83225E-28
8.85812E-01 9.51535E-28
8.88573E-01 9.20666E-28
8.91304E-01 8.90597E-28
8.94005E-01 8.61307E-28
8.96677E-01 8.32778E-28
8.99318E-01 8.04989E-28
9.01928E-01 7.77924E-28
9.04508E-01 7.51563E-28
9.07058E-01 7.25889E-28
9.09576E-01 7.00886E-28
9.12063E-01 6.76538E-28
9.14519E-01 6.52828E-28
9.16943E-01 6.29741E-28
9.19335E-01 6.07263E-28
9.21696E-01 5.85378E-28
9.24024E-01 5.64074E-28
9.26320E-01 5.43335E-28
9.28584E-01 5.23149E-28
9.30815E-01 5.03504E-28
9.33013E-01 4.84386E-28
9.35178E-01 4.65784E-28
9.37310E-01 4.47686E-28
9.39409E-01 4.30081E-28
9.41474E-01 4.12957E-28
9.43505E-01 3.96305E-28
9.45503E-01 3.80113E-28
9.47467E-01 3.64372E-28
9.49397E-01 3.49072E-28
9.51293E-01 3.34204E-28
9.53154E-01 3.19758E-28
9.54981E-01 3.05725E-28
9.56773E-01 2.92098E-28
9.58530E-01 2.78868E-28
9.60252E-01 2.66026E-28
9.61940E-01 2.53566E-28
9.63592E-01 2.41479E-28
9.65209E-01 2.29758E-28
9.66790E-01 2.18396E-28
9.68336E-01 2.07387E-28
9.69846E-01 1.96723E-28
9.71321E-01 1.86399E-28
9.72759E-01 1.76409E-28
9.74162E-01 1.66746E-28
9.75528E-01 1.57404E-28
9.76858E-01 1.48379E-28
9.78152E-01 1.39664E-28
9.79410E-01 1.31255E-28
9.80631E-01 1.23147E-28
9.81815E-01 1.15335E-28
9.82963E-01 1.07815E-28
9.84074E-01 1.00582E-28
9.85148E-01 9.36310E-29
9.86185E-01 8.69592E-29
9.87185E-01 8.05624E-29
9.88148E-01 7.44367E-29
9.89074E-01 6.85788E-29
9.89962E-01 6.29852E-29
9.90814E-01 5.76526E-29
9.91627E-01 5.25780E-29
9.92404E-01 4.77585E-29
9.93143E-01 4.31912E-29
9.93844E-01 3.88737E-29
9.94508E-01 3.48033E-29
9.95134E-01 3.09778E-29
9.95722E-01 2.73949E-29
9.96273E-01 2.40527E-29
9.96786E-01 2.09491E-29
9.97261E-01 1.80825E-29
9.97698E-01 1.54512E-29
9.98097E-01 1.30537E-29
9.98459E-01 1.08886E-29
9.98782E-01 8.95472E-30
9.99067E-01 7.25093E-30
9.99315E-01 5.77626E-30
9.99524E-01 4.52988E-30
9.99695E-01 3.51108E-30
9.99829E-01 2.71928E-30
9.99924E-01 2.15403E-30
9.99981E-01 1.81501E-30
1.00000E+00 1.70202E-30
