 #
 # Subroutine ELSEPA. Elastic scattering of electrons and positrons
 #                    by neutral atoms and positive ions
 #
 # Projectile: positron
 # Kinetic energy = 4.50000E+08 eV = 1.65372E+07 a.u.
 #
 # WARNING: High-energy factorization with free-atom DF screening.
 #          Absorption, polarization and exchange corrections are
 #          switched off.
 #          Phase shifts are calculated for the bare nucleus.
 #          Scattering amplitudes are not evaluated.
 #
 # Element: Ac,  Z =  89,  atomic weight = 2.27028E+02 g/mol
 #
 # Nuclear model: Fermi distribution
 #                Average radius = 6.52745E-13 cm
 #                Skin thickness = 5.46000E-14 cm
 #
 # Number of electrons = 89
 #
 # Total elastic cross section = 1.15318E-17 cm**2 = 4.11807E-01 a0**2
 # 1st transport cross section = 7.20041E-26 cm**2 = 2.57131E-09 a0**2
 # 2nd transport cross section = 2.15904E-25 cm**2 = 7.71006E-09 a0**2
 #
 #
 # Differential cross section:                       MU=(1-COS(THETA))/2
 #
 #  THETA        MU          DCS          DCS        Sherman      error
 #  (deg)                 (cm**2/sr)   (a0**2/sr)    function
 #----------------------------------------------------------------------
0.00000E+00 3.07357E-08
7.61557E-13 2.80301E-08
1.18994E-12 2.66770E-08
1.71346E-12 2.51634E-08
2.33225E-12 2.35541E-08
3.04617E-12 2.19023E-08
3.85530E-12 2.02557E-08
4.75964E-12 1.86526E-08
5.75917E-12 1.71218E-08
6.85391E-12 1.56889E-08
8.04379E-12 1.43599E-08
9.32893E-12 1.31381E-08
1.07092E-11 1.20235E-08
1.21847E-11 1.10125E-08
1.37554E-11 1.01002E-08
1.54213E-11 9.28028E-09
1.71823E-11 8.54167E-09
1.90386E-11 7.87660E-09
2.09900E-11 7.27762E-09
2.30367E-11 6.73765E-09
2.51785E-11 6.25033E-09
2.74156E-11 5.80907E-09
2.97478E-11 5.40856E-09
3.21752E-11 5.04426E-09
3.46979E-11 4.71214E-09
3.73157E-11 4.40862E-09
4.00286E-11 4.12994E-09
4.28368E-11 3.87394E-09
4.57402E-11 3.63833E-09
4.87388E-11 3.42104E-09
5.18325E-11 3.22029E-09
5.50215E-11 3.03415E-09
5.83057E-11 2.86122E-09
6.16850E-11 2.70067E-09
6.51595E-11 2.55142E-09
6.87293E-11 2.41248E-09
7.23943E-11 2.28300E-09
7.61544E-11 2.16175E-09
1.18991E-10 1.29692E-09
1.71347E-10 8.31563E-10
2.33223E-10 5.58763E-10
3.04617E-10 3.91791E-10
3.85531E-10 2.83816E-10
4.75965E-10 2.10955E-10
5.75917E-10 1.60152E-10
6.85389E-10 1.23501E-10
8.04380E-10 9.68872E-11
9.32891E-10 7.72015E-11
1.07092E-09 6.23603E-11
1.21847E-09 5.09785E-11
1.37554E-09 4.20972E-11
1.54213E-09 3.50481E-11
1.71823E-09 2.94229E-11
1.90386E-09 2.48825E-11
2.09900E-09 2.11813E-11
2.30367E-09 1.81379E-11
2.51785E-09 1.56081E-11
2.74156E-09 1.35045E-11
2.97478E-09 1.17343E-11
3.21752E-09 1.02401E-11
3.46978E-09 8.97739E-12
3.73156E-09 7.90521E-12
4.00286E-09 6.98845E-12
4.28368E-09 6.20266E-12
4.57402E-09 5.52556E-12
4.87388E-09 4.93925E-12
5.18326E-09 4.42924E-12
5.50215E-09 3.98333E-12
5.83057E-09 3.59215E-12
6.16850E-09 3.24830E-12
6.51596E-09 2.94509E-12
6.87293E-09 2.67687E-12
7.23942E-09 2.43890E-12
7.61544E-09 2.22685E-12
1.18991E-08 9.91161E-13
1.71347E-08 5.07025E-13
2.33223E-08 2.86183E-13
3.04617E-08 1.73717E-13
3.85531E-08 1.11446E-13
4.75965E-08 7.46926E-14
5.75917E-08 5.18869E-14
6.85389E-08 3.71477E-14
8.04380E-08 2.72893E-14
9.32891E-08 2.04976E-14
1.07092E-07 1.56963E-14
1.21847E-07 1.22241E-14
1.37554E-07 9.66239E-15
1.54213E-07 7.73854E-15
1.71823E-07 6.27073E-15
1.90386E-07 5.13494E-15
2.09900E-07 4.24492E-15
2.30367E-07 3.53948E-15
2.51785E-07 2.97451E-15
2.74156E-07 2.51776E-15
2.97478E-07 2.14529E-15
3.21752E-07 1.83911E-15
3.46978E-07 1.58559E-15
3.73156E-07 1.37423E-15
4.00286E-07 1.19690E-15
4.28368E-07 1.04724E-15
4.57402E-07 9.20229E-16
4.87388E-07 8.11890E-16
5.18325E-07 7.19023E-16
5.50215E-07 6.39055E-16
5.83057E-07 5.69896E-16
6.16850E-07 5.09841E-16
6.51596E-07 4.57491E-16
6.87293E-07 4.11688E-16
7.23942E-07 3.71477E-16
7.61543E-07 3.36057E-16
1.18991E-06 1.38810E-16
1.71347E-06 6.73282E-17
2.33223E-06 3.64936E-17
3.04617E-06 2.14578E-17
3.85531E-06 1.34270E-17
4.75964E-06 8.82500E-18
5.75916E-06 6.03577E-18
6.85388E-06 4.26613E-18
8.04378E-06 3.09985E-18
9.32888E-06 2.30611E-18
1.07092E-05 1.75083E-18
1.21846E-05 1.35300E-18
1.37553E-05 1.06196E-18
1.54212E-05 8.45111E-19
1.71822E-05 6.80865E-19
1.90385E-05 5.54239E-19
2.09899E-05 4.56382E-19
2.30365E-05 3.79106E-19
2.51783E-05 3.17396E-19
2.74153E-05 2.67657E-19
2.97475E-05 2.27247E-19
3.21749E-05 1.94179E-19
3.46974E-05 1.66928E-19
3.73152E-05 1.44314E-19
4.00281E-05 1.25418E-19
4.28362E-05 1.09520E-19
4.57395E-05 9.60603E-20
4.87380E-05 8.46006E-20
5.18317E-05 7.47937E-20
5.50205E-05 6.63629E-20
5.83045E-05 5.90852E-20
6.16838E-05 5.27784E-20
6.51582E-05 4.72921E-20
6.87277E-05 4.25013E-20
7.23925E-05 3.83026E-20
7.61524E-05 3.49947E-20
9.21439E-05 2.39381E-20
1.09658E-04 1.69260E-20
1.28695E-04 1.23061E-20
1.49255E-04 9.16099E-21
1.71338E-04 6.95832E-21
1.94942E-04 5.37928E-21
2.20070E-04 4.22324E-21
2.46720E-04 3.36110E-21
2.74892E-04 2.70756E-21
3.04586E-04 2.20477E-21
3.35803E-04 1.81292E-21
3.68542E-04 1.50382E-21
4.02802E-04 1.25739E-21
4.38585E-04 1.05899E-21
4.75889E-04 8.97800E-22
5.14715E-04 7.65785E-22
5.55063E-04 6.56825E-22
5.96931E-04 5.66274E-22
6.40321E-04 4.90530E-22
6.85233E-04 4.26790E-22
7.31665E-04 3.72855E-22
7.79618E-04 3.26975E-22
8.29092E-04 2.87760E-22
8.80086E-04 2.54087E-22
9.32601E-04 2.25051E-22
9.86636E-04 1.99912E-22
1.04219E-03 1.78066E-22
1.09927E-03 1.59013E-22
1.15786E-03 1.42342E-22
1.21797E-03 1.27708E-22
1.27961E-03 1.14823E-22
1.34276E-03 1.03448E-22
1.40743E-03 9.33777E-23
1.47362E-03 8.44400E-23
1.54133E-03 7.64888E-23
1.61056E-03 6.93987E-23
1.68131E-03 6.30628E-23
1.75357E-03 5.73891E-23
1.82735E-03 5.22983E-23
1.90265E-03 4.77221E-23
1.97947E-03 4.36009E-23
2.05780E-03 3.98832E-23
2.13765E-03 3.65240E-23
2.21902E-03 3.34839E-23
2.30190E-03 3.07287E-23
2.38630E-03 2.82278E-23
2.47222E-03 2.59549E-23
2.55965E-03 2.38864E-23
2.64859E-03 2.20016E-23
2.73905E-03 2.02820E-23
2.83103E-03 1.87114E-23
2.92452E-03 1.72753E-23
3.01952E-03 1.59608E-23
3.11604E-03 1.47564E-23
3.21407E-03 1.36517E-23
3.31362E-03 1.26376E-23
3.41468E-03 1.17057E-23
3.51725E-03 1.08488E-23
3.62133E-03 1.00600E-23
3.72692E-03 9.33343E-24
3.83403E-03 8.66364E-24
3.94265E-03 8.04575E-24
4.05278E-03 7.47531E-24
4.16442E-03 6.94833E-24
4.27757E-03 6.46118E-24
4.39223E-03 6.01056E-24
4.50840E-03 5.59350E-24
4.62608E-03 5.20725E-24
4.74527E-03 4.84935E-24
4.86597E-03 4.51754E-24
4.98817E-03 4.20975E-24
5.11188E-03 3.92412E-24
5.23711E-03 3.65891E-24
5.36383E-03 3.41255E-24
5.49207E-03 3.18361E-24
5.62181E-03 2.97077E-24
5.75306E-03 2.77280E-24
5.88581E-03 2.58861E-24
6.02007E-03 2.41717E-24
6.15583E-03 2.25754E-24
6.29310E-03 2.10886E-24
6.43187E-03 1.97033E-24
6.57214E-03 1.84122E-24
6.71392E-03 1.72085E-24
6.85720E-03 1.60859E-24
7.00198E-03 1.50389E-24
7.14827E-03 1.40619E-24
7.29605E-03 1.31501E-24
7.44534E-03 1.22990E-24
7.59612E-03 1.15042E-24
7.97965E-03 9.73948E-25
8.37255E-03 8.25031E-25
8.77480E-03 6.99239E-25
9.18641E-03 5.92885E-25
9.60736E-03 5.02897E-25
1.00376E-02 4.26707E-25
1.04773E-02 3.62167E-25
1.09262E-02 3.07472E-25
1.13844E-02 2.61106E-25
1.18520E-02 2.21793E-25
1.23288E-02 1.88454E-25
1.28150E-02 1.60180E-25
1.33104E-02 1.36200E-25
1.38150E-02 1.15864E-25
1.43290E-02 9.86183E-26
1.48521E-02 8.39956E-26
1.53845E-02 7.15981E-26
1.59262E-02 6.10883E-26
1.64770E-02 5.21794E-26
1.70371E-02 4.46281E-26
1.76063E-02 3.82274E-26
1.81848E-02 3.28014E-26
1.87724E-02 2.82007E-26
1.93692E-02 2.42986E-26
1.99751E-02 2.09873E-26
2.05901E-02 1.81754E-26
2.12143E-02 1.57855E-26
2.18476E-02 1.37518E-26
2.24900E-02 1.20187E-26
2.31415E-02 1.05392E-26
2.38021E-02 9.27346E-27
2.44717E-02 8.18798E-27
2.51504E-02 7.25444E-27
2.58382E-02 6.44901E-27
2.65349E-02 5.75162E-27
2.72407E-02 5.14546E-27
2.79555E-02 4.61638E-27
2.86793E-02 4.15257E-27
2.94120E-02 3.74412E-27
3.01537E-02 3.38276E-27
3.09043E-02 3.06159E-27
3.16639E-02 2.77485E-27
3.24324E-02 2.51774E-27
3.32098E-02 2.28625E-27
3.39961E-02 2.07706E-27
3.47912E-02 1.88737E-27
3.55952E-02 1.71488E-27
3.64081E-02 1.55761E-27
3.72297E-02 1.41395E-27
3.80602E-02 1.28251E-27
3.88995E-02 1.16211E-27
3.97476E-02 1.05175E-27
4.06044E-02 9.50556E-28
4.14700E-02 8.57785E-28
4.23443E-02 7.72770E-28
4.32273E-02 6.94924E-28
4.41190E-02 6.23719E-28
4.50194E-02 5.58675E-28
4.59284E-02 4.99355E-28
4.68461E-02 4.45353E-28
4.87074E-02 3.51822E-28
5.06030E-02 2.75338E-28
5.25328E-02 2.13453E-28
5.44967E-02 1.63971E-28
5.64946E-02 1.24919E-28
5.85262E-02 9.45296E-29
6.05914E-02 7.12407E-29
6.26901E-02 5.36826E-29
6.48222E-02 4.06729E-29
6.69873E-02 3.12062E-29
6.91854E-02 2.44417E-29
7.14163E-02 1.96895E-29
7.36799E-02 1.63941E-29
7.59760E-02 1.41190E-29
7.83043E-02 1.25290E-29
8.06647E-02 1.13749E-29
8.30571E-02 1.04778E-29
8.54812E-02 9.71543E-30
8.79369E-02 9.00936E-30
9.04240E-02 8.31456E-30
9.29422E-02 7.61003E-30
9.54915E-02 6.89129E-30
9.80716E-02 6.16434E-30
1.00682E-01 5.44099E-30
1.03323E-01 4.73537E-30
1.05995E-01 4.06151E-30
1.08696E-01 3.43169E-30
1.11427E-01 2.85554E-30
1.14188E-01 2.33963E-30
1.16978E-01 1.88742E-30
1.19797E-01 1.49952E-30
1.22645E-01 1.17410E-30
1.25522E-01 9.07369E-31
1.28428E-01 6.94112E-31
1.31361E-01 5.28177E-31
1.34323E-01 4.02942E-31
1.37313E-01 3.11703E-31
1.40330E-01 2.47984E-31
1.43375E-01 2.05779E-31
1.46447E-01 1.79707E-31
1.49545E-01 1.65118E-31
1.52671E-01 1.58124E-31
1.55823E-01 1.55599E-31
1.59001E-01 1.55132E-31
1.62205E-01 1.54966E-31
1.65435E-01 1.53908E-31
1.68690E-01 1.51244E-31
1.71970E-01 1.46642E-31
1.75276E-01 1.40067E-31
1.78606E-01 1.31694E-31
1.81961E-01 1.21842E-31
1.85340E-01 1.10908E-31
1.88743E-01 9.93184E-32
1.92169E-01 8.74934E-32
1.95619E-01 7.58152E-32
1.99092E-01 6.46120E-32
2.02589E-01 5.41467E-32
2.06107E-01 4.46135E-32
2.09649E-01 3.61387E-32
2.13212E-01 2.87864E-32
2.16797E-01 2.25661E-32
2.20404E-01 1.74417E-32
2.24032E-01 1.33416E-32
2.27680E-01 1.01686E-32
2.31350E-01 7.80895E-33
2.35040E-01 6.14051E-33
2.38751E-01 5.03986E-33
2.42481E-01 4.38789E-33
2.46231E-01 4.07412E-33
2.50000E-01 3.99975E-33
2.53788E-01 4.07948E-33
2.57595E-01 4.24241E-33
2.61421E-01 4.43205E-33
2.65264E-01 4.60563E-33
2.69126E-01 4.73300E-33
2.73005E-01 4.79510E-33
2.76901E-01 4.78230E-33
2.80814E-01 4.69268E-33
2.84744E-01 4.53025E-33
2.88691E-01 4.30337E-33
2.92653E-01 4.02323E-33
2.96632E-01 3.70264E-33
3.00625E-01 3.35489E-33
3.04634E-01 2.99292E-33
3.08658E-01 2.62870E-33
3.12697E-01 2.27271E-33
3.16749E-01 1.93374E-33
3.20816E-01 1.61867E-33
3.24896E-01 1.33252E-33
3.28990E-01 1.07852E-33
3.33097E-01 8.58239E-34
3.37216E-01 6.71829E-34
3.41348E-01 5.18238E-34
3.45492E-01 3.95460E-34
3.49647E-01 3.00782E-34
3.53814E-01 2.31008E-34
3.57992E-01 1.82670E-34
3.62181E-01 1.52213E-34
3.66381E-01 1.36144E-34
3.70590E-01 1.31151E-34
3.74810E-01 1.34204E-34
3.79039E-01 1.42606E-34
3.83277E-01 1.54041E-34
3.87524E-01 1.66584E-34
3.91780E-01 1.78703E-34
3.96044E-01 1.89234E-34
4.00316E-01 1.97359E-34
4.04596E-01 2.02567E-34
4.08882E-01 2.04608E-34
4.13176E-01 2.03457E-34
4.17476E-01 1.99261E-34
4.21783E-01 1.92304E-34
4.26095E-01 1.82962E-34
4.30413E-01 1.71672E-34
4.34737E-01 1.58895E-34
4.39065E-01 1.45099E-34
4.43398E-01 1.30731E-34
4.47736E-01 1.16203E-34
4.52077E-01 1.01883E-34
4.56422E-01 8.80825E-35
4.60770E-01 7.50579E-35
4.65122E-01 6.30066E-35
4.69476E-01 5.20700E-35
4.73832E-01 4.23363E-35
4.78190E-01 3.38457E-35
4.82550E-01 2.65973E-35
4.86912E-01 2.05541E-35
4.91274E-01 1.56509E-35
4.95637E-01 1.18003E-35
5.00000E-01 8.89948E-36
5.04363E-01 6.83551E-36
5.08726E-01 5.49057E-36
5.13088E-01 4.74658E-36
5.17450E-01 4.48879E-36
5.21810E-01 4.60879E-36
5.26168E-01 5.00669E-36
5.30524E-01 5.59279E-36
5.34878E-01 6.28864E-36
5.39230E-01 7.02734E-36
5.43578E-01 7.75361E-36
5.47923E-01 8.42353E-36
5.52264E-01 9.00387E-36
5.56602E-01 9.47126E-36
5.60935E-01 9.81076E-36
5.65263E-01 1.00157E-35
5.69587E-01 1.00851E-35
5.73905E-01 1.00240E-35
5.78217E-01 9.84116E-36
5.82524E-01 9.54901E-36
5.86824E-01 9.16165E-36
5.91118E-01 8.69479E-36
5.95404E-01 8.16466E-36
5.99684E-01 7.58748E-36
6.03956E-01 6.97894E-36
6.08220E-01 6.35365E-36
6.12476E-01 5.72489E-36
6.16723E-01 5.10469E-36
6.20961E-01 4.50312E-36
6.25190E-01 3.92868E-36
6.29410E-01 3.38834E-36
6.33619E-01 2.88721E-36
6.37819E-01 2.42894E-36
6.42008E-01 2.01589E-36
6.46186E-01 1.64887E-36
6.50353E-01 1.32783E-36
6.54508E-01 1.05161E-36
6.58652E-01 8.18370E-37
6.62784E-01 6.25510E-37
6.66903E-01 4.70076E-37
6.71010E-01 3.48726E-37
6.75104E-01 2.57896E-37
6.79184E-01 1.93935E-37
6.83251E-01 1.53215E-37
6.87303E-01 1.32161E-37
6.91342E-01 1.27361E-37
6.95366E-01 1.35612E-37
6.99375E-01 1.53950E-37
7.03368E-01 1.79687E-37
7.07347E-01 2.10411E-37
7.11309E-01 2.44030E-37
7.15256E-01 2.78739E-37
7.19186E-01 3.12984E-37
7.23099E-01 3.45591E-37
7.26995E-01 3.75500E-37
7.30874E-01 4.01988E-37
7.34736E-01 4.24534E-37
7.38579E-01 4.42778E-37
7.42405E-01 4.56547E-37
7.46212E-01 4.65810E-37
7.50000E-01 4.70656E-37
7.53769E-01 4.71271E-37
7.57519E-01 4.67910E-37
7.61249E-01 4.60923E-37
7.64960E-01 4.50658E-37
7.68650E-01 4.37471E-37
7.72320E-01 4.21860E-37
7.75968E-01 4.04143E-37
7.79596E-01 3.84775E-37
7.83203E-01 3.64130E-37
7.86788E-01 3.42568E-37
7.90351E-01 3.20444E-37
7.93893E-01 2.98077E-37
7.97411E-01 2.75719E-37
8.00908E-01 2.53641E-37
8.04381E-01 2.32037E-37
8.07831E-01 2.11108E-37
8.11257E-01 1.90993E-37
8.14660E-01 1.71834E-37
8.18039E-01 1.53689E-37
8.21394E-01 1.36664E-37
8.24724E-01 1.20778E-37
8.28030E-01 1.06071E-37
8.31310E-01 9.25448E-38
8.34565E-01 8.01816E-38
8.37795E-01 6.89782E-38
8.40999E-01 5.88718E-38
8.44177E-01 4.98428E-38
8.47329E-01 4.18268E-38
8.50455E-01 3.47694E-38
8.53553E-01 2.86135E-38
8.56625E-01 2.32875E-38
8.59670E-01 1.87336E-38
8.62687E-01 1.48760E-38
8.65677E-01 1.16582E-38
8.68639E-01 9.01210E-39
8.71572E-01 6.88023E-39
8.74478E-01 5.20237E-39
8.77355E-01 3.92082E-39
8.80203E-01 2.98755E-39
8.83022E-01 2.35076E-39
8.85812E-01 1.00000E-45
8.88573E-01 1.00000E-45
8.91304E-01 1.00000E-45
8.94005E-01 1.00000E-45
8.96677E-01 1.00000E-45
8.99318E-01 1.00000E-45
9.01928E-01 1.00000E-45
9.04508E-01 1.00000E-45
9.07058E-01 1.00000E-45
9.09576E-01 1.00000E-45
9.12063E-01 1.00000E-45
9.14519E-01 1.00000E-45
9.16943E-01 1.00000E-45
9.19335E-01 1.00000E-45
9.21696E-01 1.00000E-45
9.24024E-01 1.00000E-45
9.26320E-01 1.00000E-45
9.28584E-01 1.00000E-45
9.30815E-01 1.00000E-45
9.33013E-01 1.00000E-45
9.35178E-01 1.00000E-45
9.37310E-01 1.00000E-45
9.39409E-01 1.00000E-45
9.41474E-01 1.00000E-45
9.43505E-01 1.00000E-45
9.45503E-01 1.00000E-45
9.47467E-01 1.00000E-45
9.49397E-01 1.00000E-45
9.51293E-01 1.00000E-45
9.53154E-01 1.00000E-45
9.54981E-01 1.00000E-45
9.56773E-01 1.00000E-45
9.58530E-01 1.00000E-45
9.60252E-01 1.00000E-45
9.61940E-01 1.00000E-45
9.63592E-01 1.00000E-45
9.65209E-01 1.00000E-45
9.66790E-01 1.00000E-45
9.68336E-01 1.00000E-45
9.69846E-01 1.00000E-45
9.71321E-01 1.00000E-45
9.72759E-01 1.00000E-45
9.74162E-01 1.00000E-45
9.75528E-01 1.00000E-45
9.76858E-01 1.00000E-45
9.78152E-01 1.00000E-45
9.79410E-01 1.00000E-45
9.80631E-01 1.00000E-45
9.81815E-01 1.00000E-45
9.82963E-01 1.00000E-45
9.84074E-01 1.00000E-45
9.85148E-01 1.00000E-45
9.86185E-01 1.00000E-45
9.87185E-01 1.00000E-45
9.88148E-01 1.00000E-45
9.89074E-01 1.00000E-45
9.89962E-01 1.00000E-45
9.90814E-01 1.00000E-45
9.91627E-01 1.00000E-45
9.92404E-01 1.00000E-45
9.93143E-01 1.00000E-45
9.93844E-01 1.00000E-45
9.94508E-01 1.00000E-45
9.95134E-01 1.00000E-45
9.95722E-01 1.00000E-45
9.96273E-01 1.00000E-45
9.96786E-01 1.00000E-45
9.97261E-01 1.00000E-45
9.97698E-01 1.00000E-45
9.98097E-01 1.00000E-45
9.98459E-01 1.00000E-45
9.98782E-01 1.00000E-45
9.99067E-01 1.00000E-45
9.99315E-01 1.00000E-45
9.99524E-01 1.00000E-45
9.99695E-01 1.00000E-45
9.99829E-01 1.00000E-45
9.99924E-01 1.00000E-45
9.99981E-01 1.00000E-45
1.00000E+00 1.00000E-45
