 #
 # Subroutine ELSEPA. Elastic scattering of electrons and positrons
 #                    by neutral atoms and positive ions
 #
 # Projectile: positron
 # Kinetic energy = 1.25000E+06 eV = 4.59367E+04 a.u.
 #
 # Element: Ac,  Z =  89,  atomic weight = 2.27028E+02 g/mol
 #
 # Nuclear model: Fermi distribution
 #                Average radius = 6.52745E-13 cm
 #                Skin thickness = 5.46000E-14 cm
 #
 # Number of electrons = 89
 #
 # Electron density: Read from file Data/z_089.d
 #                   Number of data points =  843
 #                   Volume integral = 8.90000E+01
 #
 # Total elastic cross section = 1.24578E-17 cm**2 = 4.44877E-01 a0**2
 # 1st transport cross section = 2.65592E-21 cm**2 = 9.48445E-05 a0**2
 # 2nd transport cross section = 7.45900E-21 cm**2 = 2.66366E-04 a0**2
 #
 #
 # Differential cross section:                       MU=(1-COS(THETA))/2
 #
 #  THETA        MU          DCS          DCS        Sherman      error
 #  (deg)                 (cm**2/sr)   (a0**2/sr)    function
 #----------------------------------------------------------------------
0.00000E+00 4.67351E-13
7.61557E-13 4.67350E-13
1.18994E-12 4.67350E-13
1.71346E-12 4.67350E-13
2.33225E-12 4.67349E-13
3.04617E-12 4.67349E-13
3.85530E-12 4.67348E-13
4.75964E-12 4.67347E-13
5.75917E-12 4.67346E-13
6.85391E-12 4.67346E-13
8.04379E-12 4.67345E-13
9.32893E-12 4.67343E-13
1.07092E-11 4.67342E-13
1.21847E-11 4.67341E-13
1.37554E-11 4.67340E-13
1.54213E-11 4.67339E-13
1.71823E-11 4.67337E-13
1.90386E-11 4.67336E-13
2.09900E-11 4.67334E-13
2.30367E-11 4.67332E-13
2.51785E-11 4.67331E-13
2.74156E-11 4.67329E-13
2.97478E-11 4.67327E-13
3.21752E-11 4.67325E-13
3.46979E-11 4.67323E-13
3.73157E-11 4.67321E-13
4.00286E-11 4.67318E-13
4.28368E-11 4.67316E-13
4.57402E-11 4.67314E-13
4.87388E-11 4.67311E-13
5.18325E-11 4.67309E-13
5.50215E-11 4.67306E-13
5.83057E-11 4.67304E-13
6.16850E-11 4.67301E-13
6.51595E-11 4.67298E-13
6.87293E-11 4.67295E-13
7.23943E-11 4.67292E-13
7.61544E-11 4.67289E-13
1.18991E-10 4.67254E-13
1.71347E-10 4.67211E-13
2.33223E-10 4.67161E-13
3.04617E-10 4.67103E-13
3.85531E-10 4.67037E-13
4.75965E-10 4.66963E-13
5.75917E-10 4.66882E-13
6.85389E-10 4.66793E-13
8.04380E-10 4.66696E-13
9.32891E-10 4.66591E-13
1.07092E-09 4.66479E-13
1.21847E-09 4.66359E-13
1.37554E-09 4.66231E-13
1.54213E-09 4.66096E-13
1.71823E-09 4.65953E-13
1.90386E-09 4.65802E-13
2.09900E-09 4.65644E-13
2.30367E-09 4.65478E-13
2.51785E-09 4.65304E-13
2.74156E-09 4.65123E-13
2.97478E-09 4.64934E-13
3.21752E-09 4.64738E-13
3.46978E-09 4.64534E-13
3.73156E-09 4.64323E-13
4.00286E-09 4.64104E-13
4.28368E-09 4.63878E-13
4.57402E-09 4.63644E-13
4.87388E-09 4.63402E-13
5.18326E-09 4.63153E-13
5.50215E-09 4.62897E-13
5.83057E-09 4.62634E-13
6.16850E-09 4.62362E-13
6.51596E-09 4.62084E-13
6.87293E-09 4.61798E-13
7.23942E-09 4.61505E-13
7.61544E-09 4.61205E-13
1.18991E-08 4.57805E-13
1.71347E-08 4.53705E-13
2.33223E-08 4.48935E-13
3.04617E-08 4.43533E-13
3.85531E-08 4.37537E-13
4.75965E-08 4.30992E-13
5.75917E-08 4.23943E-13
6.85389E-08 4.16437E-13
8.04380E-08 4.08524E-13
9.32891E-08 4.00253E-13
1.07092E-07 3.91675E-13
1.21847E-07 3.82838E-13
1.37554E-07 3.73792E-13
1.54213E-07 3.64582E-13
1.71823E-07 3.55254E-13
1.90386E-07 3.45850E-13
2.09900E-07 3.36411E-13
2.30367E-07 3.26974E-13
2.51785E-07 3.17573E-13
2.74156E-07 3.08241E-13
2.97478E-07 2.99005E-13
3.21752E-07 2.89891E-13
3.46978E-07 2.80921E-13
3.73156E-07 2.72116E-13
4.00286E-07 2.63491E-13
4.28368E-07 2.55062E-13
4.57402E-07 2.46838E-13
4.87388E-07 2.38831E-13
5.18325E-07 2.31047E-13
5.50215E-07 2.23490E-13
5.83057E-07 2.16165E-13
6.16850E-07 2.09073E-13
6.51596E-07 2.02214E-13
6.87293E-07 1.95588E-13
7.23942E-07 1.89191E-13
7.61543E-07 1.83021E-13
1.18991E-06 1.32699E-13
1.71347E-06 9.87134E-14
2.33223E-06 7.54105E-14
3.04617E-06 5.88938E-14
3.85531E-06 4.67900E-14
4.75964E-06 3.76808E-14
5.75916E-06 3.06906E-14
6.85388E-06 2.52498E-14
8.04378E-06 2.09677E-14
9.32888E-06 1.75651E-14
1.07092E-05 1.48368E-14
1.21846E-05 1.26297E-14
1.37553E-05 1.08284E-14
1.54212E-05 9.34545E-15
1.71822E-05 8.11429E-15
1.90385E-05 7.08393E-15
2.09899E-05 6.21514E-15
2.30365E-05 5.47752E-15
2.51783E-05 4.84734E-15
2.74153E-05 4.30592E-15
2.97475E-05 3.83840E-15
3.21749E-05 3.43284E-15
3.46974E-05 3.07959E-15
3.73152E-05 2.77076E-15
4.00281E-05 2.49982E-15
4.28362E-05 2.26137E-15
4.57395E-05 2.05089E-15
4.87380E-05 1.86455E-15
5.18317E-05 1.69913E-15
5.50205E-05 1.55189E-15
5.83045E-05 1.42049E-15
6.16838E-05 1.30293E-15
6.51582E-05 1.19749E-15
6.87277E-05 1.10269E-15
7.23925E-05 1.01725E-15
7.61524E-05 9.40062E-16
9.21439E-05 6.96547E-16
1.09658E-04 5.27524E-16
1.28695E-04 4.06787E-16
1.49255E-04 3.18486E-16
1.71338E-04 2.52663E-16
1.94942E-04 2.02823E-16
2.20070E-04 1.64583E-16
2.46720E-04 1.34900E-16
2.74892E-04 1.11609E-16
3.04586E-04 9.31478E-17
3.35803E-04 7.83720E-17
3.68542E-04 6.64349E-17
4.02802E-04 5.67049E-17
4.38585E-04 4.87068E-17
4.75889E-04 4.20802E-17
5.14715E-04 3.65497E-17
5.55063E-04 3.19025E-17
5.96931E-04 2.79732E-17
6.40321E-04 2.46318E-17
6.85233E-04 2.17753E-17
7.31665E-04 1.93213E-17
7.79618E-04 1.72036E-17
8.29092E-04 1.53684E-17
8.80086E-04 1.37717E-17
9.32601E-04 1.23773E-17
9.86636E-04 1.11552E-17
1.04219E-03 1.00807E-17
1.09927E-03 9.13275E-18
1.15786E-03 8.29398E-18
1.21797E-03 7.54962E-18
1.27961E-03 6.88719E-18
1.34276E-03 6.29607E-18
1.40743E-03 5.76722E-18
1.47362E-03 5.29290E-18
1.54133E-03 4.86647E-18
1.61056E-03 4.48221E-18
1.68131E-03 4.13518E-18
1.75357E-03 3.82112E-18
1.82735E-03 3.53632E-18
1.90265E-03 3.27753E-18
1.97947E-03 3.04196E-18
2.05780E-03 2.82713E-18
2.13765E-03 2.63087E-18
2.21902E-03 2.45129E-18
2.30190E-03 2.28671E-18
2.38630E-03 2.13564E-18
2.47222E-03 1.99678E-18
2.55965E-03 1.86896E-18
2.64859E-03 1.75114E-18
2.73905E-03 1.64239E-18
2.83103E-03 1.54190E-18
2.92452E-03 1.44893E-18
3.01952E-03 1.36281E-18
3.11604E-03 1.28294E-18
3.21407E-03 1.20880E-18
3.31362E-03 1.13990E-18
3.41468E-03 1.07580E-18
3.51725E-03 1.01611E-18
3.62133E-03 9.60473E-19
3.72692E-03 9.08567E-19
3.83403E-03 8.60097E-19
3.94265E-03 8.14794E-19
4.05278E-03 7.72417E-19
4.16442E-03 7.32742E-19
4.27757E-03 6.95566E-19
4.39223E-03 6.60705E-19
4.50840E-03 6.27989E-19
4.62608E-03 5.97262E-19
4.74527E-03 5.68382E-19
4.86597E-03 5.41218E-19
4.98817E-03 5.15650E-19
5.11188E-03 4.91567E-19
5.23711E-03 4.68869E-19
5.36383E-03 4.47459E-19
5.49207E-03 4.27253E-19
5.62181E-03 4.08171E-19
5.75306E-03 3.90138E-19
5.88581E-03 3.73087E-19
6.02007E-03 3.56953E-19
6.15583E-03 3.41680E-19
6.29310E-03 3.27212E-19
6.43187E-03 3.13499E-19
6.57214E-03 3.00494E-19
6.71392E-03 2.88155E-19
6.85720E-03 2.76441E-19
7.00198E-03 2.65314E-19
7.14827E-03 2.54739E-19
7.29605E-03 2.44684E-19
7.44534E-03 2.35119E-19
7.59612E-03 2.26015E-19
7.97965E-03 2.05105E-19
8.37255E-03 1.86549E-19
8.77480E-03 1.70037E-19
9.18641E-03 1.55305E-19
9.60736E-03 1.42128E-19
1.00376E-02 1.30313E-19
1.04773E-02 1.19694E-19
1.09262E-02 1.10130E-19
1.13844E-02 1.01496E-19
1.18520E-02 9.36876E-20
1.23288E-02 8.66107E-20
1.28150E-02 8.01851E-20
1.33104E-02 7.43403E-20
1.38150E-02 6.90145E-20
1.43290E-02 6.41536E-20
1.48521E-02 5.97098E-20
1.53845E-02 5.56411E-20
1.59262E-02 5.19102E-20
1.64770E-02 4.84841E-20
1.70371E-02 4.53335E-20
1.76063E-02 4.24324E-20
1.81848E-02 3.97576E-20
1.87724E-02 3.72883E-20
1.93692E-02 3.50059E-20
1.99751E-02 3.28938E-20
2.05901E-02 3.09371E-20
2.12143E-02 2.91223E-20
2.18476E-02 2.74373E-20
2.24900E-02 2.58712E-20
2.31415E-02 2.44141E-20
2.38021E-02 2.30571E-20
2.44717E-02 2.17921E-20
2.51504E-02 2.06118E-20
2.58382E-02 1.95095E-20
2.65349E-02 1.84791E-20
2.72407E-02 1.75151E-20
2.79555E-02 1.66125E-20
2.86793E-02 1.57667E-20
2.94120E-02 1.49735E-20
3.01537E-02 1.42289E-20
3.09043E-02 1.35296E-20
3.16639E-02 1.28723E-20
3.24324E-02 1.22540E-20
3.32098E-02 1.16719E-20
3.39961E-02 1.11236E-20
3.47912E-02 1.06068E-20
3.55952E-02 1.01193E-20
3.64081E-02 9.65920E-21
3.72297E-02 9.22466E-21
3.80602E-02 8.81400E-21
3.88995E-02 8.42569E-21
3.97476E-02 8.05829E-21
4.06044E-02 7.71047E-21
4.14700E-02 7.38100E-21
4.23443E-02 7.06875E-21
4.32273E-02 6.77264E-21
4.41190E-02 6.49170E-21
4.50194E-02 6.22501E-21
4.59284E-02 5.97172E-21
4.68461E-02 5.73102E-21
4.87074E-02 5.28454E-21
5.06030E-02 4.88021E-21
5.25328E-02 4.51339E-21
5.44967E-02 4.18000E-21
5.64946E-02 3.87648E-21
5.85262E-02 3.59970E-21
6.05914E-02 3.34689E-21
6.26901E-02 3.11563E-21
6.48222E-02 2.90375E-21
6.69873E-02 2.70937E-21
6.91854E-02 2.53078E-21
7.14163E-02 2.36648E-21
7.36799E-02 2.21514E-21
7.59760E-02 2.07554E-21
7.83043E-02 1.94663E-21
8.06647E-02 1.82744E-21
8.30571E-02 1.71711E-21
8.54812E-02 1.61487E-21
8.79369E-02 1.52003E-21
9.04240E-02 1.43195E-21
9.29422E-02 1.35007E-21
9.54915E-02 1.27388E-21
9.80716E-02 1.20291E-21
1.00682E-01 1.13674E-21
1.03323E-01 1.07499E-21
1.05995E-01 1.01732E-21
1.08696E-01 9.63404E-22
1.11427E-01 9.12959E-22
1.14188E-01 8.65723E-22
1.16978E-01 8.21455E-22
1.19797E-01 7.79937E-22
1.22645E-01 7.40967E-22
1.25522E-01 7.04362E-22
1.28428E-01 6.69953E-22
1.31361E-01 6.37585E-22
1.34323E-01 6.07116E-22
1.37313E-01 5.78415E-22
1.40330E-01 5.51361E-22
1.43375E-01 5.25844E-22
1.46447E-01 5.01760E-22
1.49545E-01 4.79016E-22
1.52671E-01 4.57523E-22
1.55823E-01 4.37200E-22
1.59001E-01 4.17973E-22
1.62205E-01 3.99772E-22
1.65435E-01 3.82534E-22
1.68690E-01 3.66197E-22
1.71970E-01 3.50706E-22
1.75276E-01 3.36011E-22
1.78606E-01 3.22062E-22
1.81961E-01 3.08816E-22
1.85340E-01 2.96231E-22
1.88743E-01 2.84268E-22
1.92169E-01 2.72890E-22
1.95619E-01 2.62065E-22
1.99092E-01 2.51761E-22
2.02589E-01 2.41947E-22
2.06107E-01 2.32597E-22
2.09649E-01 2.23685E-22
2.13212E-01 2.15187E-22
2.16797E-01 2.07080E-22
2.20404E-01 1.99344E-22
2.24032E-01 1.91957E-22
2.27680E-01 1.84902E-22
2.31350E-01 1.78161E-22
2.35040E-01 1.71717E-22
2.38751E-01 1.65556E-22
2.42481E-01 1.59662E-22
2.46231E-01 1.54022E-22
2.50000E-01 1.48623E-22
2.53788E-01 1.43454E-22
2.57595E-01 1.38502E-22
2.61421E-01 1.33756E-22
2.65264E-01 1.29208E-22
2.69126E-01 1.24846E-22
2.73005E-01 1.20662E-22
2.76901E-01 1.16648E-22
2.80814E-01 1.12796E-22
2.84744E-01 1.09097E-22
2.88691E-01 1.05544E-22
2.92653E-01 1.02132E-22
2.96632E-01 9.88525E-23
3.00625E-01 9.57002E-23
3.04634E-01 9.26694E-23
3.08658E-01 8.97545E-23
3.12697E-01 8.69504E-23
3.16749E-01 8.42519E-23
3.20816E-01 8.16544E-23
3.24896E-01 7.91535E-23
3.28990E-01 7.67450E-23
3.33097E-01 7.44249E-23
3.37216E-01 7.21893E-23
3.41348E-01 7.00348E-23
3.45492E-01 6.79578E-23
3.49647E-01 6.59549E-23
3.53814E-01 6.40230E-23
3.57992E-01 6.21595E-23
3.62181E-01 6.03612E-23
3.66381E-01 5.86255E-23
3.70590E-01 5.69500E-23
3.74810E-01 5.53321E-23
3.79039E-01 5.37694E-23
3.83277E-01 5.22598E-23
3.87524E-01 5.08012E-23
3.91780E-01 4.93915E-23
3.96044E-01 4.80289E-23
4.00316E-01 4.67115E-23
4.04596E-01 4.54375E-23
4.08882E-01 4.42052E-23
4.13176E-01 4.30131E-23
4.17476E-01 4.18595E-23
4.21783E-01 4.07431E-23
4.26095E-01 3.96625E-23
4.30413E-01 3.86163E-23
4.34737E-01 3.76031E-23
4.39065E-01 3.66218E-23
4.43398E-01 3.56713E-23
4.47736E-01 3.47503E-23
4.52077E-01 3.38578E-23
4.56422E-01 3.29928E-23
4.60770E-01 3.21543E-23
4.65122E-01 3.13413E-23
4.69476E-01 3.05529E-23
4.73832E-01 2.97883E-23
4.78190E-01 2.90466E-23
4.82550E-01 2.83270E-23
4.86912E-01 2.76287E-23
4.91274E-01 2.69510E-23
4.95637E-01 2.62932E-23
5.00000E-01 2.56546E-23
5.04363E-01 2.50346E-23
5.08726E-01 2.44324E-23
5.13088E-01 2.38476E-23
5.17450E-01 2.32795E-23
5.21810E-01 2.27276E-23
5.26168E-01 2.21913E-23
5.30524E-01 2.16701E-23
5.34878E-01 2.11636E-23
5.39230E-01 2.06712E-23
5.43578E-01 2.01924E-23
5.47923E-01 1.97269E-23
5.52264E-01 1.92743E-23
5.56602E-01 1.88340E-23
5.60935E-01 1.84057E-23
5.65263E-01 1.79891E-23
5.69587E-01 1.75837E-23
5.73905E-01 1.71892E-23
5.78217E-01 1.68052E-23
5.82524E-01 1.64316E-23
5.86824E-01 1.60678E-23
5.91118E-01 1.57136E-23
5.95404E-01 1.53687E-23
5.99684E-01 1.50329E-23
6.03956E-01 1.47058E-23
6.08220E-01 1.43873E-23
6.12476E-01 1.40769E-23
6.16723E-01 1.37746E-23
6.20961E-01 1.34800E-23
6.25190E-01 1.31929E-23
6.29410E-01 1.29131E-23
6.33619E-01 1.26405E-23
6.37819E-01 1.23746E-23
6.42008E-01 1.21155E-23
6.46186E-01 1.18629E-23
6.50353E-01 1.16165E-23
6.54508E-01 1.13763E-23
6.58652E-01 1.11420E-23
6.62784E-01 1.09135E-23
6.66903E-01 1.06906E-23
6.71010E-01 1.04732E-23
6.75104E-01 1.02610E-23
6.79184E-01 1.00540E-23
6.83251E-01 9.85203E-24
6.87303E-01 9.65491E-24
6.91342E-01 9.46253E-24
6.95366E-01 9.27475E-24
6.99375E-01 9.09146E-24
7.03368E-01 8.91253E-24
7.07347E-01 8.73785E-24
7.11309E-01 8.56729E-24
7.15256E-01 8.40074E-24
7.19186E-01 8.23810E-24
7.23099E-01 8.07927E-24
7.26995E-01 7.92415E-24
7.30874E-01 7.77264E-24
7.34736E-01 7.62464E-24
7.38579E-01 7.48007E-24
7.42405E-01 7.33883E-24
7.46212E-01 7.20083E-24
7.50000E-01 7.06600E-24
7.53769E-01 6.93425E-24
7.57519E-01 6.80551E-24
7.61249E-01 6.67971E-24
7.64960E-01 6.55675E-24
7.68650E-01 6.43658E-24
7.72320E-01 6.31913E-24
7.75968E-01 6.20431E-24
7.79596E-01 6.09208E-24
7.83203E-01 5.98237E-24
7.86788E-01 5.87512E-24
7.90351E-01 5.77027E-24
7.93893E-01 5.66775E-24
7.97411E-01 5.56751E-24
8.00908E-01 5.46950E-24
8.04381E-01 5.37366E-24
8.07831E-01 5.27995E-24
8.11257E-01 5.18831E-24
8.14660E-01 5.09870E-24
8.18039E-01 5.01106E-24
8.21394E-01 4.92534E-24
8.24724E-01 4.84151E-24
8.28030E-01 4.75952E-24
8.31310E-01 4.67934E-24
8.34565E-01 4.60091E-24
8.37795E-01 4.52420E-24
8.40999E-01 4.44918E-24
8.44177E-01 4.37579E-24
8.47329E-01 4.30400E-24
8.50455E-01 4.23379E-24
8.53553E-01 4.16511E-24
8.56625E-01 4.09793E-24
8.59670E-01 4.03223E-24
8.62687E-01 3.96796E-24
8.65677E-01 3.90509E-24
8.68639E-01 3.84360E-24
8.71572E-01 3.78345E-24
8.74478E-01 3.72462E-24
8.77355E-01 3.66709E-24
8.80203E-01 3.61082E-24
8.83022E-01 3.55579E-24
8.85812E-01 3.50197E-24
8.88573E-01 3.44933E-24
8.91304E-01 3.39785E-24
8.94005E-01 3.34751E-24
8.96677E-01 3.29830E-24
8.99318E-01 3.25017E-24
9.01928E-01 3.20313E-24
9.04508E-01 3.15713E-24
9.07058E-01 3.11215E-24
9.09576E-01 3.06819E-24
9.12063E-01 3.02522E-24
9.14519E-01 2.98323E-24
9.16943E-01 2.94220E-24
9.19335E-01 2.90210E-24
9.21696E-01 2.86292E-24
9.24024E-01 2.82464E-24
9.26320E-01 2.78724E-24
9.28584E-01 2.75072E-24
9.30815E-01 2.71505E-24
9.33013E-01 2.68023E-24
9.35178E-01 2.64623E-24
9.37310E-01 2.61304E-24
9.39409E-01 2.58065E-24
9.41474E-01 2.54903E-24
9.43505E-01 2.51819E-24
9.45503E-01 2.48812E-24
9.47467E-01 2.45879E-24
9.49397E-01 2.43019E-24
9.51293E-01 2.40231E-24
9.53154E-01 2.37514E-24
9.54981E-01 2.34867E-24
9.56773E-01 2.32289E-24
9.58530E-01 2.29780E-24
9.60252E-01 2.27337E-24
9.61940E-01 2.24960E-24
9.63592E-01 2.22648E-24
9.65209E-01 2.20400E-24
9.66790E-01 2.18215E-24
9.68336E-01 2.16092E-24
9.69846E-01 2.14032E-24
9.71321E-01 2.12031E-24
9.72759E-01 2.10091E-24
9.74162E-01 2.08210E-24
9.75528E-01 2.06387E-24
9.76858E-01 2.04622E-24
9.78152E-01 2.02914E-24
9.79410E-01 2.01262E-24
9.80631E-01 1.99666E-24
9.81815E-01 1.98126E-24
9.82963E-01 1.96640E-24
9.84074E-01 1.95208E-24
9.85148E-01 1.93829E-24
9.86185E-01 1.92502E-24
9.87185E-01 1.91229E-24
9.88148E-01 1.90008E-24
9.89074E-01 1.88838E-24
9.89962E-01 1.87719E-24
9.90814E-01 1.86651E-24
9.91627E-01 1.85633E-24
9.92404E-01 1.84664E-24
9.93143E-01 1.83745E-24
9.93844E-01 1.82875E-24
9.94508E-01 1.82055E-24
9.95134E-01 1.81283E-24
9.95722E-01 1.80559E-24
9.96273E-01 1.79883E-24
9.96786E-01 1.79254E-24
9.97261E-01 1.78673E-24
9.97698E-01 1.78139E-24
9.98097E-01 1.77653E-24
9.98459E-01 1.77214E-24
9.98782E-01 1.76821E-24
9.99067E-01 1.76474E-24
9.99315E-01 1.76173E-24
9.99524E-01 1.75919E-24
9.99695E-01 1.75712E-24
9.99829E-01 1.75551E-24
9.99924E-01 1.75437E-24
9.99981E-01 1.75369E-24
1.00000E+00 1.75347E-24
