 #
 # Subroutine ELSEPA. Elastic scattering of electrons and positrons
 #                    by neutral atoms and positive ions
 #
 # Projectile: positron
 # Kinetic energy = 1.00000E+08 eV = 3.67493E+06 a.u.
 #
 # WARNING: High-energy factorization with free-atom DF screening.
 #          Absorption, polarization and exchange corrections are
 #          switched off.
 #          Phase shifts are calculated for the bare nucleus.
 #          Scattering amplitudes are not evaluated.
 #
 # Element: Ac,  Z =  89,  atomic weight = 2.27028E+02 g/mol
 #
 # Nuclear model: Fermi distribution
 #                Average radius = 6.52745E-13 cm
 #                Skin thickness = 5.46000E-14 cm
 #
 # Number of electrons = 89
 #
 # Total elastic cross section = 1.15419E-17 cm**2 = 4.12167E-01 a0**2
 # 1st transport cross section = 1.40750E-24 cm**2 = 5.02627E-08 a0**2
 # 2nd transport cross section = 4.18224E-24 cm**2 = 1.49351E-07 a0**2
 #
 #
 # Differential cross section:                       MU=(1-COS(THETA))/2
 #
 #  THETA        MU          DCS          DCS        Sherman      error
 #  (deg)                 (cm**2/sr)   (a0**2/sr)    function
 #----------------------------------------------------------------------
0.00000E+00 1.52989E-09
7.61557E-13 1.52267E-09
1.18994E-12 1.51865E-09
1.71346E-12 1.51375E-09
2.33225E-12 1.50800E-09
3.04617E-12 1.50140E-09
3.85530E-12 1.49399E-09
4.75964E-12 1.48577E-09
5.75917E-12 1.47677E-09
6.85391E-12 1.46702E-09
8.04379E-12 1.45654E-09
9.32893E-12 1.44536E-09
1.07092E-11 1.43351E-09
1.21847E-11 1.42101E-09
1.37554E-11 1.40791E-09
1.54213E-11 1.39422E-09
1.71823E-11 1.37999E-09
1.90386E-11 1.36525E-09
2.09900E-11 1.35003E-09
2.30367E-11 1.33438E-09
2.51785E-11 1.31840E-09
2.74156E-11 1.30200E-09
2.97478E-11 1.28522E-09
3.21752E-11 1.26809E-09
3.46979E-11 1.25065E-09
3.73157E-11 1.23310E-09
4.00286E-11 1.21538E-09
4.28368E-11 1.19743E-09
4.57402E-11 1.17928E-09
4.87388E-11 1.16096E-09
5.18325E-11 1.14258E-09
5.50215E-11 1.12433E-09
5.83057E-11 1.10599E-09
6.16850E-11 1.08758E-09
6.51595E-11 1.06913E-09
6.87293E-11 1.05065E-09
7.23943E-11 1.03247E-09
7.61544E-11 1.01438E-09
1.18991E-10 8.40950E-10
1.71347E-10 6.90445E-10
2.33223E-10 5.66817E-10
3.04617E-10 4.67883E-10
3.85531E-10 3.89585E-10
4.75965E-10 3.27589E-10
5.75917E-10 2.78120E-10
6.85389E-10 2.38191E-10
8.04380E-10 2.05524E-10
9.32891E-10 1.78486E-10
1.07092E-09 1.55874E-10
1.21847E-09 1.36792E-10
1.37554E-09 1.20570E-10
1.54213E-09 1.06690E-10
1.71823E-09 9.47393E-11
1.90386E-09 8.44228E-11
2.09900E-09 7.54820E-11
2.30367E-09 6.76294E-11
2.51785E-09 6.05010E-11
2.74156E-09 5.44495E-11
2.97478E-09 4.92812E-11
3.21752E-09 4.48418E-11
3.46978E-09 4.10074E-11
3.73156E-09 3.73565E-11
4.00286E-09 3.40607E-11
4.28368E-09 3.11889E-11
4.57402E-09 2.86751E-11
4.87388E-09 2.64652E-11
5.18326E-09 2.44596E-11
5.50215E-09 2.25271E-11
5.83057E-09 2.08160E-11
6.16850E-09 1.92954E-11
6.51596E-09 1.79396E-11
6.87293E-09 1.67267E-11
7.23942E-09 1.55487E-11
7.61544E-09 1.44684E-11
1.18991E-08 7.64007E-12
1.71347E-08 4.41686E-12
2.33223E-08 2.73725E-12
3.04617E-08 1.79206E-12
3.85531E-08 1.22237E-12
4.75965E-08 8.60809E-13
5.75917E-08 6.22776E-13
6.85389E-08 4.60264E-13
8.04380E-08 3.47655E-13
9.32891E-08 2.67774E-13
1.07092E-07 2.09703E-13
1.21847E-07 1.66621E-13
1.37554E-07 1.34131E-13
1.54213E-07 1.09257E-13
1.71823E-07 8.99263E-14
1.90386E-07 7.47032E-14
2.09900E-07 6.25727E-14
2.30367E-07 5.27997E-14
2.51785E-07 4.48454E-14
2.74156E-07 3.83978E-14
2.97478E-07 3.30213E-14
3.21752E-07 2.85895E-14
3.46978E-07 2.48611E-14
3.73156E-07 2.17343E-14
4.00286E-07 1.90815E-14
4.28368E-07 1.68244E-14
4.57402E-07 1.48939E-14
4.87388E-07 1.32308E-14
5.18325E-07 1.17979E-14
5.50215E-07 1.05496E-14
5.83057E-07 9.46723E-15
6.16850E-07 8.51514E-15
6.51596E-07 7.68371E-15
6.87293E-07 6.94810E-15
7.23942E-07 6.30035E-15
7.61543E-07 5.72493E-15
1.18991E-06 2.44615E-15
1.71347E-06 1.21220E-15
2.33223E-06 6.67688E-16
3.04617E-06 3.97623E-16
3.85531E-06 2.51363E-16
4.75964E-06 1.66556E-16
5.75916E-06 1.14651E-16
6.85388E-06 8.14581E-17
8.04378E-06 5.94398E-17
9.32888E-06 4.43762E-17
1.07092E-05 3.37924E-17
1.21846E-05 2.61822E-17
1.37553E-05 2.05979E-17
1.54212E-05 1.64257E-17
1.71822E-05 1.32582E-17
1.90385E-05 1.08110E-17
2.09899E-05 8.91627E-18
2.30365E-05 7.41733E-18
2.51783E-05 6.21841E-18
2.74153E-05 5.25058E-18
2.97475E-05 4.46313E-18
3.21749E-05 3.81787E-18
3.46974E-05 3.28548E-18
3.73152E-05 2.84315E-18
4.00281E-05 2.47311E-18
4.28362E-05 2.16148E-18
4.57395E-05 1.89737E-18
4.87380E-05 1.67228E-18
5.18317E-05 1.47948E-18
5.50205E-05 1.31360E-18
5.83045E-05 1.17029E-18
6.16838E-05 1.04600E-18
6.51582E-05 9.37795E-19
6.87277E-05 8.43246E-19
7.23925E-05 7.60324E-19
7.61524E-05 6.87349E-19
9.21439E-05 4.69997E-19
1.09658E-04 3.32102E-19
1.28695E-04 2.41247E-19
1.49255E-04 1.79420E-19
1.71338E-04 1.36176E-19
1.94942E-04 1.05201E-19
2.20070E-04 8.25463E-20
2.46720E-04 6.56691E-20
2.74892E-04 5.28903E-20
3.04586E-04 4.30705E-20
3.35803E-04 3.54261E-20
3.68542E-04 2.94030E-20
4.02802E-04 2.46061E-20
4.38585E-04 2.07479E-20
4.75889E-04 1.76161E-20
5.14715E-04 1.50532E-20
5.55063E-04 1.29392E-20
5.96931E-04 1.11833E-20
6.40321E-04 9.71502E-21
6.85233E-04 8.47968E-21
7.31665E-04 7.43441E-21
7.79618E-04 6.54511E-21
8.29092E-04 5.78474E-21
8.80086E-04 5.13150E-21
9.32601E-04 4.56778E-21
9.86636E-04 4.07927E-21
1.04219E-03 3.65427E-21
1.09927E-03 3.28311E-21
1.15786E-03 2.95781E-21
1.21797E-03 2.67177E-21
1.27961E-03 2.41941E-21
1.34276E-03 2.19610E-21
1.40743E-03 1.99793E-21
1.47362E-03 1.82156E-21
1.54133E-03 1.66419E-21
1.61056E-03 1.52342E-21
1.68131E-03 1.39718E-21
1.75357E-03 1.28373E-21
1.82735E-03 1.18153E-21
1.90265E-03 1.08927E-21
1.97947E-03 1.00583E-21
2.05780E-03 9.30198E-22
2.13765E-03 8.61525E-22
2.21902E-03 7.99055E-22
2.30190E-03 7.42130E-22
2.38630E-03 6.90170E-22
2.47222E-03 6.42667E-22
2.55965E-03 5.99172E-22
2.64859E-03 5.59291E-22
2.73905E-03 5.22680E-22
2.83103E-03 4.88974E-22
2.92452E-03 4.57917E-22
3.01952E-03 4.29275E-22
3.11604E-03 4.02828E-22
3.21407E-03 3.78377E-22
3.31362E-03 3.55743E-22
3.41468E-03 3.34769E-22
3.51725E-03 3.15309E-22
3.62133E-03 2.97235E-22
3.72692E-03 2.80430E-22
3.83403E-03 2.64789E-22
3.94265E-03 2.50217E-22
4.05278E-03 2.36627E-22
4.16442E-03 2.23942E-22
4.27757E-03 2.12089E-22
4.39223E-03 2.01005E-22
4.50840E-03 1.90630E-22
4.62608E-03 1.80911E-22
4.74527E-03 1.71799E-22
4.86597E-03 1.63249E-22
4.98817E-03 1.55220E-22
5.11188E-03 1.47674E-22
5.23711E-03 1.40578E-22
5.36383E-03 1.33899E-22
5.49207E-03 1.27608E-22
5.62181E-03 1.21679E-22
5.75306E-03 1.16087E-22
5.88581E-03 1.10809E-22
6.02007E-03 1.05825E-22
6.15583E-03 1.01115E-22
6.29310E-03 9.66614E-23
6.43187E-03 9.24476E-23
6.57214E-03 8.84584E-23
6.71392E-03 8.46796E-23
6.85720E-03 8.10981E-23
7.00198E-03 7.77016E-23
7.14827E-03 7.44789E-23
7.29605E-03 7.14194E-23
7.44534E-03 6.85134E-23
7.59612E-03 6.57518E-23
7.97965E-03 5.94250E-23
8.37255E-03 5.38312E-23
8.77480E-03 4.88713E-23
9.18641E-03 4.44615E-23
9.60736E-03 4.05303E-23
1.00376E-02 3.70172E-23
1.04773E-02 3.38702E-23
1.09262E-02 3.10448E-23
1.13844E-02 2.85024E-23
1.18520E-02 2.62100E-23
1.23288E-02 2.41389E-23
1.28150E-02 2.22640E-23
1.33104E-02 2.05637E-23
1.38150E-02 1.90190E-23
1.43290E-02 1.76132E-23
1.48521E-02 1.63317E-23
1.53845E-02 1.51618E-23
1.59262E-02 1.40919E-23
1.64770E-02 1.31122E-23
1.70371E-02 1.22138E-23
1.76063E-02 1.13888E-23
1.81848E-02 1.06302E-23
1.87724E-02 9.93176E-24
1.93692E-02 9.28791E-24
1.99751E-02 8.69368E-24
2.05901E-02 8.14461E-24
2.12143E-02 7.63670E-24
2.18476E-02 7.16635E-24
2.24900E-02 6.73032E-24
2.31415E-02 6.32571E-24
2.38021E-02 5.94986E-24
2.44717E-02 5.60041E-24
2.51504E-02 5.27520E-24
2.58382E-02 4.97226E-24
2.65349E-02 4.68984E-24
2.72407E-02 4.42630E-24
2.79555E-02 4.18019E-24
2.86793E-02 3.95017E-24
2.94120E-02 3.73501E-24
3.01537E-02 3.53360E-24
3.09043E-02 3.34493E-24
3.16639E-02 3.16805E-24
3.24324E-02 3.00212E-24
3.32098E-02 2.84635E-24
3.39961E-02 2.70001E-24
3.47912E-02 2.56246E-24
3.55952E-02 2.43307E-24
3.64081E-02 2.31130E-24
3.72297E-02 2.19661E-24
3.80602E-02 2.08854E-24
3.88995E-02 1.98664E-24
3.97476E-02 1.89051E-24
4.06044E-02 1.79977E-24
4.14700E-02 1.71407E-24
4.23443E-02 1.63309E-24
4.32273E-02 1.55654E-24
4.41190E-02 1.48412E-24
4.50194E-02 1.41560E-24
4.59284E-02 1.35071E-24
4.68461E-02 1.28925E-24
4.87074E-02 1.17579E-24
5.06030E-02 1.07371E-24
5.25328E-02 9.81715E-25
5.44967E-02 8.98675E-25
5.64946E-02 8.23600E-25
5.85262E-02 7.55626E-25
6.05914E-02 6.93991E-25
6.26901E-02 6.38028E-25
6.48222E-02 5.87146E-25
6.69873E-02 5.40827E-25
6.91854E-02 4.98608E-25
7.14163E-02 4.60081E-25
7.36799E-02 4.24884E-25
7.59760E-02 3.92693E-25
7.83043E-02 3.63220E-25
8.06647E-02 3.36209E-25
8.30571E-02 3.11429E-25
8.54812E-02 2.88675E-25
8.79369E-02 2.67761E-25
9.04240E-02 2.48522E-25
9.29422E-02 2.30809E-25
9.54915E-02 2.14487E-25
9.80716E-02 1.99435E-25
1.00682E-01 1.85543E-25
1.03323E-01 1.72713E-25
1.05995E-01 1.60854E-25
1.08696E-01 1.49885E-25
1.11427E-01 1.39733E-25
1.14188E-01 1.30331E-25
1.16978E-01 1.21617E-25
1.19797E-01 1.13537E-25
1.22645E-01 1.06040E-25
1.25522E-01 9.90790E-26
1.28428E-01 9.26129E-26
1.31361E-01 8.66031E-26
1.34323E-01 8.10144E-26
1.37313E-01 7.58146E-26
1.40330E-01 7.09742E-26
1.43375E-01 6.64662E-26
1.46447E-01 6.22657E-26
1.49545E-01 5.83501E-26
1.52671E-01 5.46984E-26
1.55823E-01 5.12913E-26
1.59001E-01 4.81111E-26
1.62205E-01 4.51415E-26
1.65435E-01 4.23674E-26
1.68690E-01 3.97750E-26
1.71970E-01 3.73514E-26
1.75276E-01 3.50849E-26
1.78606E-01 3.29644E-26
1.81961E-01 3.09800E-26
1.85340E-01 2.91221E-26
1.88743E-01 2.73823E-26
1.92169E-01 2.57525E-26
1.95619E-01 2.42252E-26
1.99092E-01 2.27935E-26
2.02589E-01 2.14512E-26
2.06107E-01 2.01921E-26
2.09649E-01 1.90110E-26
2.13212E-01 1.79025E-26
2.16797E-01 1.68620E-26
2.20404E-01 1.58850E-26
2.24032E-01 1.49675E-26
2.27680E-01 1.41056E-26
2.31350E-01 1.32957E-26
2.35040E-01 1.25345E-26
2.38751E-01 1.18189E-26
2.42481E-01 1.11461E-26
2.46231E-01 1.05133E-26
2.50000E-01 9.91806E-27
2.53788E-01 9.35799E-27
2.57595E-01 8.83091E-27
2.61421E-01 8.33478E-27
2.65264E-01 7.86770E-27
2.69126E-01 7.42788E-27
2.73005E-01 7.01365E-27
2.76901E-01 6.62345E-27
2.80814E-01 6.25582E-27
2.84744E-01 5.90940E-27
2.88691E-01 5.58289E-27
2.92653E-01 5.27512E-27
2.96632E-01 4.98494E-27
3.00625E-01 4.71132E-27
3.04634E-01 4.45327E-27
3.08658E-01 4.20986E-27
3.12697E-01 3.98023E-27
3.16749E-01 3.76357E-27
3.20816E-01 3.55911E-27
3.24896E-01 3.36614E-27
3.28990E-01 3.18398E-27
3.33097E-01 3.01202E-27
3.37216E-01 2.84965E-27
3.41348E-01 2.69631E-27
3.45492E-01 2.55150E-27
3.49647E-01 2.41471E-27
3.53814E-01 2.28549E-27
3.57992E-01 2.16340E-27
3.62181E-01 2.04803E-27
3.66381E-01 1.93901E-27
3.70590E-01 1.83596E-27
3.74810E-01 1.73856E-27
3.79039E-01 1.64648E-27
3.83277E-01 1.55942E-27
3.87524E-01 1.47709E-27
3.91780E-01 1.39924E-27
3.96044E-01 1.32561E-27
4.00316E-01 1.25597E-27
4.04596E-01 1.19009E-27
4.08882E-01 1.12776E-27
4.13176E-01 1.06878E-27
4.17476E-01 1.01298E-27
4.21783E-01 9.60165E-28
4.26095E-01 9.10181E-28
4.30413E-01 8.62870E-28
4.34737E-01 8.18084E-28
4.39065E-01 7.75685E-28
4.43398E-01 7.35541E-28
4.47736E-01 6.97529E-28
4.52077E-01 6.61534E-28
4.56422E-01 6.27444E-28
4.60770E-01 5.95156E-28
4.65122E-01 5.64573E-28
4.69476E-01 5.35601E-28
4.73832E-01 5.08155E-28
4.78190E-01 4.82150E-28
4.82550E-01 4.57510E-28
4.86912E-01 4.34161E-28
4.91274E-01 4.12033E-28
4.95637E-01 3.91061E-28
5.00000E-01 3.71183E-28
5.04363E-01 3.52341E-28
5.08726E-01 3.34479E-28
5.13088E-01 3.17545E-28
5.17450E-01 3.01490E-28
5.21810E-01 2.86266E-28
5.26168E-01 2.71829E-28
5.30524E-01 2.58139E-28
5.34878E-01 2.45155E-28
5.39230E-01 2.32840E-28
5.43578E-01 2.21159E-28
5.47923E-01 2.10078E-28
5.52264E-01 1.99566E-28
5.56602E-01 1.89592E-28
5.60935E-01 1.80130E-28
5.65263E-01 1.71151E-28
5.69587E-01 1.62630E-28
5.73905E-01 1.54544E-28
5.78217E-01 1.46870E-28
5.82524E-01 1.39587E-28
5.86824E-01 1.32673E-28
5.91118E-01 1.26110E-28
5.95404E-01 1.19880E-28
5.99684E-01 1.13965E-28
6.03956E-01 1.08349E-28
6.08220E-01 1.03017E-28
6.12476E-01 9.79532E-29
6.16723E-01 9.31448E-29
6.20961E-01 8.85783E-29
6.25190E-01 8.42413E-29
6.29410E-01 8.01219E-29
6.33619E-01 7.62089E-29
6.37819E-01 7.24919E-29
6.42008E-01 6.89607E-29
6.46186E-01 6.56058E-29
6.50353E-01 6.24183E-29
6.54508E-01 5.93895E-29
6.58652E-01 5.65115E-29
6.62784E-01 5.37765E-29
6.66903E-01 5.11772E-29
6.71010E-01 4.87068E-29
6.75104E-01 4.63586E-29
6.79184E-01 4.41266E-29
6.83251E-01 4.20049E-29
6.87303E-01 3.99878E-29
6.91342E-01 3.80701E-29
6.95366E-01 3.62467E-29
6.99375E-01 3.45129E-29
7.03368E-01 3.28642E-29
7.07347E-01 3.12964E-29
7.11309E-01 2.98053E-29
7.15256E-01 2.83871E-29
7.19186E-01 2.70381E-29
7.23099E-01 2.57549E-29
7.26995E-01 2.45342E-29
7.30874E-01 2.33729E-29
7.34736E-01 2.22680E-29
7.38579E-01 2.12166E-29
7.42405E-01 2.02162E-29
7.46212E-01 1.92642E-29
7.50000E-01 1.83582E-29
7.53769E-01 1.74959E-29
7.57519E-01 1.66751E-29
7.61249E-01 1.58938E-29
7.64960E-01 1.51500E-29
7.68650E-01 1.44419E-29
7.72320E-01 1.37677E-29
7.75968E-01 1.31258E-29
7.79596E-01 1.25145E-29
7.83203E-01 1.19324E-29
7.86788E-01 1.13779E-29
7.90351E-01 1.08499E-29
7.93893E-01 1.03468E-29
7.97411E-01 9.86766E-30
8.00908E-01 9.41116E-30
8.04381E-01 8.97621E-30
8.07831E-01 8.56177E-30
8.11257E-01 8.16685E-30
8.14660E-01 7.79049E-30
8.18039E-01 7.43178E-30
8.21394E-01 7.08988E-30
8.24724E-01 6.76397E-30
8.28030E-01 6.45326E-30
8.31310E-01 6.15704E-30
8.34565E-01 5.87460E-30
8.37795E-01 5.60527E-30
8.40999E-01 5.34842E-30
8.44177E-01 5.10345E-30
8.47329E-01 4.86979E-30
8.50455E-01 4.64690E-30
8.53553E-01 4.43427E-30
8.56625E-01 4.23140E-30
8.59670E-01 4.03782E-30
8.62687E-01 3.85310E-30
8.65677E-01 3.67681E-30
8.68639E-01 3.50854E-30
8.71572E-01 3.34793E-30
8.74478E-01 3.19461E-30
8.77355E-01 3.04823E-30
8.80203E-01 2.90846E-30
8.83022E-01 2.77499E-30
8.85812E-01 2.64754E-30
8.88573E-01 2.52580E-30
8.91304E-01 2.40953E-30
8.94005E-01 2.29845E-30
8.96677E-01 2.19233E-30
8.99318E-01 2.09094E-30
9.01928E-01 1.99405E-30
9.04508E-01 1.90147E-30
9.07058E-01 1.81298E-30
9.09576E-01 1.72840E-30
9.12063E-01 1.64755E-30
9.14519E-01 1.57026E-30
9.16943E-01 1.49637E-30
9.19335E-01 1.42571E-30
9.21696E-01 1.35815E-30
9.24024E-01 1.29354E-30
9.26320E-01 1.23175E-30
9.28584E-01 1.17264E-30
9.30815E-01 1.11611E-30
9.33013E-01 1.06203E-30
9.35178E-01 1.01029E-30
9.37310E-01 9.60793E-31
9.39409E-01 9.13435E-31
9.41474E-01 8.68122E-31
9.43505E-01 8.24764E-31
9.45503E-01 7.83274E-31
9.47467E-01 7.43572E-31
9.49397E-01 7.05580E-31
9.51293E-01 6.69222E-31
9.53154E-01 6.34430E-31
9.54981E-01 6.01135E-31
9.56773E-01 5.69274E-31
9.58530E-01 5.38785E-31
9.60252E-01 5.09612E-31
9.61940E-01 4.81699E-31
9.63592E-01 4.54994E-31
9.65209E-01 4.29446E-31
9.66790E-01 4.05009E-31
9.68336E-01 3.81637E-31
9.69846E-01 3.59286E-31
9.71321E-01 3.37917E-31
9.72759E-01 3.17490E-31
9.74162E-01 2.97969E-31
9.75528E-01 2.79318E-31
9.76858E-01 2.61504E-31
9.78152E-01 2.44495E-31
9.79410E-01 2.28261E-31
9.80631E-01 2.12773E-31
9.81815E-01 1.98005E-31
9.82963E-01 1.83930E-31
9.84074E-01 1.70523E-31
9.85148E-01 1.57763E-31
9.86185E-01 1.45626E-31
9.87185E-01 1.34093E-31
9.88148E-01 1.23143E-31
9.89074E-01 1.12757E-31
9.89962E-01 1.02919E-31
9.90814E-01 9.36111E-32
9.91627E-01 8.48185E-32
9.92404E-01 7.65263E-32
9.93143E-01 6.87205E-32
9.93844E-01 6.13885E-32
9.94508E-01 5.45180E-32
9.95134E-01 4.80976E-32
9.95722E-01 4.21169E-32
9.96273E-01 3.65661E-32
9.96786E-01 3.14362E-32
9.97261E-01 2.67187E-32
9.97698E-01 2.24061E-32
9.98097E-01 1.84914E-32
9.98459E-01 1.49682E-32
9.98782E-01 1.18308E-32
9.99067E-01 9.07439E-33
9.99315E-01 6.69424E-33
9.99524E-01 4.68675E-33
9.99695E-01 3.04857E-33
9.99829E-01 1.77713E-33
9.99924E-01 8.70434E-34
9.99981E-01 3.26989E-34
1.00000E+00 1.45920E-34
