 #
 # Subroutine ELSEPA. Elastic scattering of electrons and positrons
 #                    by neutral atoms and positive ions
 #
 # Projectile: positron
 # Kinetic energy = 8.00000E+08 eV = 2.93995E+07 a.u.
 #
 # WARNING: High-energy factorization with free-atom DF screening.
 #          Absorption, polarization and exchange corrections are
 #          switched off.
 #          Phase shifts are calculated for the bare nucleus.
 #          Scattering amplitudes are not evaluated.
 #
 # Element: Ac,  Z =  89,  atomic weight = 2.27028E+02 g/mol
 #
 # Nuclear model: Fermi distribution
 #                Average radius = 6.52745E-13 cm
 #                Skin thickness = 5.46000E-14 cm
 #
 # Number of electrons = 89
 #
 # Total elastic cross section = 1.14428E-17 cm**2 = 4.08630E-01 a0**2
 # 1st transport cross section = 2.28280E-26 cm**2 = 8.15202E-10 a0**2
 # 2nd transport cross section = 6.84731E-26 cm**2 = 2.44522E-09 a0**2
 #
 #
 # Differential cross section:                       MU=(1-COS(THETA))/2
 #
 #  THETA        MU          DCS          DCS        Sherman      error
 #  (deg)                 (cm**2/sr)   (a0**2/sr)    function
 #----------------------------------------------------------------------
0.00000E+00 9.70435E-08
7.61557E-13 7.38075E-08
1.18994E-12 6.45474E-08
1.71346E-12 5.56733E-08
2.33225E-12 4.76545E-08
3.04617E-12 4.06950E-08
3.85530E-12 3.47944E-08
4.75964E-12 2.98781E-08
5.75917E-12 2.57922E-08
6.85391E-12 2.24094E-08
8.04379E-12 1.95893E-08
9.32893E-12 1.72264E-08
1.07092E-11 1.52310E-08
1.21847E-11 1.35308E-08
1.37554E-11 1.20728E-08
1.54213E-11 1.08120E-08
1.71823E-11 9.71559E-09
1.90386E-11 8.75710E-09
2.09900E-11 7.91421E-09
2.30367E-11 7.17180E-09
2.51785E-11 6.51329E-09
2.74156E-11 5.93017E-09
2.97478E-11 5.40951E-09
3.21752E-11 4.94618E-09
3.46979E-11 4.53093E-09
3.73157E-11 4.14603E-09
4.00286E-11 3.79778E-09
4.28368E-11 3.49197E-09
4.57402E-11 3.22240E-09
4.87388E-11 2.98389E-09
5.18325E-11 2.77212E-09
5.50215E-11 2.58344E-09
5.83057E-11 2.39778E-09
6.16850E-11 2.22596E-09
6.51595E-11 2.07218E-09
6.87293E-11 1.93412E-09
7.23943E-11 1.80984E-09
7.61544E-11 1.69766E-09
1.18991E-10 9.29448E-10
1.71347E-10 5.53077E-10
2.33223E-10 3.49948E-10
3.04617E-10 2.32587E-10
3.85531E-10 1.61214E-10
4.75965E-10 1.15313E-10
5.75917E-10 8.47664E-11
6.85389E-10 6.35535E-11
8.04380E-10 4.85714E-11
9.32891E-10 3.76912E-11
1.07092E-09 2.96550E-11
1.21847E-09 2.36555E-11
1.37554E-09 1.91166E-11
1.54213E-09 1.56228E-11
1.71823E-09 1.28957E-11
1.90386E-09 1.07414E-11
2.09900E-09 9.02112E-12
2.30367E-09 7.63587E-12
2.51785E-09 6.50825E-12
2.74156E-09 5.58355E-12
2.97478E-09 4.81701E-12
3.21752E-09 4.17833E-12
3.46978E-09 3.64173E-12
3.73156E-09 3.18705E-12
4.00286E-09 2.80216E-12
4.28368E-09 2.47628E-12
4.57402E-09 2.19415E-12
4.87388E-09 1.95200E-12
5.18326E-09 1.74348E-12
5.50215E-09 1.56061E-12
5.83057E-09 1.40206E-12
6.16850E-09 1.26330E-12
6.51596E-09 1.14087E-12
6.87293E-09 1.03350E-12
7.23942E-09 9.38237E-13
7.61544E-09 8.53696E-13
1.18991E-08 3.69551E-13
1.71347E-08 1.84695E-13
2.33223E-08 1.02168E-13
3.04617E-08 6.10200E-14
3.85531E-08 3.86751E-14
4.75965E-08 2.56945E-14
5.75917E-08 1.77337E-14
6.85389E-08 1.26299E-14
8.04380E-08 9.23565E-15
9.32891E-08 6.90772E-15
1.07092E-07 5.26824E-15
1.21847E-07 4.08703E-15
1.37554E-07 3.21877E-15
1.54213E-07 2.56911E-15
1.71823E-07 2.07529E-15
1.90386E-07 1.69458E-15
2.09900E-07 1.39727E-15
2.30367E-07 1.16240E-15
2.51785E-07 9.74863E-16
2.74156E-07 8.23671E-16
2.97478E-07 7.00691E-16
3.21752E-07 5.99836E-16
3.46978E-07 5.16494E-16
3.73156E-07 4.47141E-16
4.00286E-07 3.89049E-16
4.28368E-07 3.40096E-16
4.57402E-07 2.98607E-16
4.87388E-07 2.63257E-16
5.18325E-07 2.32988E-16
5.50215E-07 2.06947E-16
5.83057E-07 1.84446E-16
6.16850E-07 1.64921E-16
6.51596E-07 1.47913E-16
6.87293E-07 1.33042E-16
7.23942E-07 1.19994E-16
7.61543E-07 1.08506E-16
1.18991E-06 4.46635E-17
1.71347E-06 2.16054E-17
2.33223E-06 1.16854E-17
3.04617E-06 6.85890E-18
3.85531E-06 4.28586E-18
4.75964E-06 2.81370E-18
5.75916E-06 1.92261E-18
6.85388E-06 1.35788E-18
8.04378E-06 9.86030E-19
9.32888E-06 7.33157E-19
1.07092E-05 5.56372E-19
1.21846E-05 4.29787E-19
1.37553E-05 3.37230E-19
1.54212E-05 2.68291E-19
1.71822E-05 2.16098E-19
1.90385E-05 1.75872E-19
2.09899E-05 1.44793E-19
2.30365E-05 1.20258E-19
2.51783E-05 1.00669E-19
2.74153E-05 8.48829E-20
2.97475E-05 7.20603E-20
3.21749E-05 6.15690E-20
3.46974E-05 5.29248E-20
3.73152E-05 4.57527E-20
4.00281E-05 3.97608E-20
4.28362E-05 3.47225E-20
4.57395E-05 3.04549E-20
4.87380E-05 2.68198E-20
5.18317E-05 2.37093E-20
5.50205E-05 2.10356E-20
5.83045E-05 1.87277E-20
6.16838E-05 1.67279E-20
6.51582E-05 1.49884E-20
6.87277E-05 1.34695E-20
7.23925E-05 1.21384E-20
7.61524E-05 1.12607E-20
9.21439E-05 7.69738E-21
1.09658E-04 5.43378E-21
1.28695E-04 3.94034E-21
1.49255E-04 2.92275E-21
1.71338E-04 2.21024E-21
1.94942E-04 1.69949E-21
2.20070E-04 1.32580E-21
2.46720E-04 1.04745E-21
2.74892E-04 8.36826E-22
3.04586E-04 6.75180E-22
3.35803E-04 5.49581E-22
3.68542E-04 4.50874E-22
4.02802E-04 3.72518E-22
4.38585E-04 3.09747E-22
4.75889E-04 2.59037E-22
5.14715E-04 2.17765E-22
5.55063E-04 1.83938E-22
5.96931E-04 1.56039E-22
6.40321E-04 1.32896E-22
6.85233E-04 1.13593E-22
7.31665E-04 9.74169E-23
7.79618E-04 8.37971E-23
8.29092E-04 7.22830E-23
8.80086E-04 6.25105E-23
9.32601E-04 5.41867E-23
9.86636E-04 4.70733E-23
1.04219E-03 4.09752E-23
1.09927E-03 3.57328E-23
1.15786E-03 3.12137E-23
1.21797E-03 2.73087E-23
1.27961E-03 2.39265E-23
1.34276E-03 2.09908E-23
1.40743E-03 1.84376E-23
1.47362E-03 1.62130E-23
1.54133E-03 1.42714E-23
1.61056E-03 1.25740E-23
1.68131E-03 1.10880E-23
1.75357E-03 9.78529E-24
1.82735E-03 8.64172E-24
1.90265E-03 7.63676E-24
1.97947E-03 6.75260E-24
2.05780E-03 5.97399E-24
2.13765E-03 5.28768E-24
2.21902E-03 4.68222E-24
2.30190E-03 4.14770E-24
2.38630E-03 3.67546E-24
2.47222E-03 3.25800E-24
2.55965E-03 2.88874E-24
2.64859E-03 2.56196E-24
2.73905E-03 2.27264E-24
2.83103E-03 2.01638E-24
2.92452E-03 1.78933E-24
3.01952E-03 1.58810E-24
3.11604E-03 1.40970E-24
3.21407E-03 1.25152E-24
3.31362E-03 1.11123E-24
3.41468E-03 9.86799E-25
3.51725E-03 8.76420E-25
3.62133E-03 7.78502E-25
3.72692E-03 6.91633E-25
3.83403E-03 6.14566E-25
3.94265E-03 5.46195E-25
4.05278E-03 4.85542E-25
4.16442E-03 4.31737E-25
4.27757E-03 3.84010E-25
4.39223E-03 3.41679E-25
4.50840E-03 3.04135E-25
4.62608E-03 2.70840E-25
4.74527E-03 2.41316E-25
4.86597E-03 2.15137E-25
4.98817E-03 1.91925E-25
5.11188E-03 1.71346E-25
5.23711E-03 1.53099E-25
5.36383E-03 1.36921E-25
5.49207E-03 1.22577E-25
5.62181E-03 1.09856E-25
5.75306E-03 9.85737E-26
5.88581E-03 8.85647E-26
6.02007E-03 7.96825E-26
6.15583E-03 7.17973E-26
6.29310E-03 6.47938E-26
6.43187E-03 5.85698E-26
6.57214E-03 5.30346E-26
6.71392E-03 4.81080E-26
6.85720E-03 4.37189E-26
7.00198E-03 3.98044E-26
7.14827E-03 3.63090E-26
7.29605E-03 3.31834E-26
7.44534E-03 3.03843E-26
7.59612E-03 2.78732E-26
7.97965E-03 2.26442E-26
8.37255E-03 1.85884E-26
8.77480E-03 1.53960E-26
9.18641E-03 1.28430E-26
9.60736E-03 1.07688E-26
1.00376E-02 9.05800E-27
1.04773E-02 7.62843E-27
1.09262E-02 6.42110E-27
1.13844E-02 5.39354E-27
1.18520E-02 4.51480E-27
1.23288E-02 3.76180E-27
1.28150E-02 3.11687E-27
1.33104E-02 2.56597E-27
1.38150E-02 2.09752E-27
1.43290E-02 1.70158E-27
1.48521E-02 1.36941E-27
1.53845E-02 1.09313E-27
1.59262E-02 8.65530E-28
1.64770E-02 6.80012E-28
1.70371E-02 5.30528E-28
1.76063E-02 4.11568E-28
1.81848E-02 3.18154E-28
1.87724E-02 2.45838E-28
1.93692E-02 1.90693E-28
1.99751E-02 1.49299E-28
2.05901E-02 1.18723E-28
2.12143E-02 9.64850E-29
2.18476E-02 8.05282E-29
2.24900E-02 6.91752E-29
2.31415E-02 6.10879E-29
2.38021E-02 5.52239E-29
2.44717E-02 5.07934E-29
2.51504E-02 4.72187E-29
2.58382E-02 4.40953E-29
2.65349E-02 4.11577E-29
2.72407E-02 3.82477E-29
2.79555E-02 3.52873E-29
2.86793E-02 3.22564E-29
2.94120E-02 2.91732E-29
3.01537E-02 2.60789E-29
3.09043E-02 2.30266E-29
3.16639E-02 2.00712E-29
3.24324E-02 1.72644E-29
3.32098E-02 1.46497E-29
3.39961E-02 1.22604E-29
3.47912E-02 1.01188E-29
3.55952E-02 8.23630E-30
3.64081E-02 6.61399E-30
3.72297E-02 5.24441E-30
3.80602E-02 4.11301E-30
3.88995E-02 3.19990E-30
3.97476E-02 2.48159E-30
4.06044E-02 1.93257E-30
4.14700E-02 1.52671E-30
4.23443E-02 1.23842E-30
4.32273E-02 1.04355E-30
4.41190E-02 9.20122E-31
4.50194E-02 8.48710E-31
4.59284E-02 8.12737E-31
4.68461E-02 7.98524E-31
4.87074E-02 7.94616E-31
5.06030E-02 7.80300E-31
5.25328E-02 7.31820E-31
5.44967E-02 6.47785E-31
5.64946E-02 5.39187E-31
5.85262E-02 4.21432E-31
6.05914E-02 3.08929E-31
6.26901E-02 2.12128E-31
6.48222E-02 1.36565E-31
6.69873E-02 8.32651E-32
6.91854E-02 4.99086E-32
7.14163E-02 3.22319E-32
7.36799E-02 2.53196E-32
7.59760E-02 2.45821E-32
7.83043E-02 2.63533E-32
8.06647E-02 2.81327E-32
8.30571E-02 2.85533E-32
8.54812E-02 2.71731E-32
8.79369E-02 2.41894E-32
9.04240E-02 2.01479E-32
9.29422E-02 1.57000E-32
9.54915E-02 1.14306E-32
9.80716E-02 7.76112E-33
1.00682E-01 4.91837E-33
1.03323E-01 2.94997E-33
1.05995E-01 1.76814E-33
1.08696E-01 1.20379E-33
1.11427E-01 1.05771E-33
1.14188E-01 1.14088E-33
1.16978E-01 1.30050E-33
1.19797E-01 1.43169E-33
1.22645E-01 1.47775E-33
1.25522E-01 1.42248E-33
1.28428E-01 1.27845E-33
1.31361E-01 1.07447E-33
1.34323E-01 8.44586E-34
1.37313E-01 6.19899E-34
1.40330E-01 4.23656E-34
1.43375E-01 2.69332E-34
1.46447E-01 1.61046E-34
1.49545E-01 9.54729E-35
1.52671E-01 6.44574E-35
1.55823E-01 5.76423E-35
1.59001E-01 6.46825E-35
1.62205E-01 7.67967E-35
1.65435E-01 8.76065E-35
1.68690E-01 9.33460E-35
1.71970E-01 9.25983E-35
1.75276E-01 8.57468E-35
1.78606E-01 7.43160E-35
1.81961E-01 6.03374E-35
1.85340E-01 4.58356E-35
1.88743E-01 3.24766E-35
1.92169E-01 2.13840E-35
1.95619E-01 1.31008E-35
1.99092E-01 7.65778E-36
2.02589E-01 4.70468E-36
2.06107E-01 3.66500E-36
2.09649E-01 3.88166E-36
2.13212E-01 4.73437E-36
2.16797E-01 5.71777E-36
2.20404E-01 6.48036E-36
2.24032E-01 6.82922E-36
2.27680E-01 6.70996E-36
2.31350E-01 6.17212E-36
2.35040E-01 5.32937E-36
2.38751E-01 4.32189E-36
2.42481E-01 3.28601E-36
2.46231E-01 2.33332E-36
2.50000E-01 1.53975E-36
2.53788E-01 9.43117E-37
2.57595E-01 5.47301E-37
2.61421E-01 3.30194E-37
2.65264E-01 2.53560E-37
2.69126E-01 2.72383E-37
2.73005E-01 3.42816E-37
2.76901E-01 4.27722E-37
2.80814E-01 4.99824E-37
2.84744E-01 5.42600E-37
2.88691E-01 5.49454E-37
2.92653E-01 5.21749E-37
2.96632E-01 4.66306E-37
3.00625E-01 3.92831E-37
3.04634E-01 3.11695E-37
3.08658E-01 2.32211E-37
3.12697E-01 1.61579E-37
3.16749E-01 1.04354E-37
3.20816E-01 6.24815E-38
3.24896E-01 1.00000E-45
3.28990E-01 1.00000E-45
3.33097E-01 1.00000E-45
3.37216E-01 1.00000E-45
3.41348E-01 1.00000E-45
3.45492E-01 1.00000E-45
3.49647E-01 1.00000E-45
3.53814E-01 1.00000E-45
3.57992E-01 1.00000E-45
3.62181E-01 1.00000E-45
3.66381E-01 1.00000E-45
3.70590E-01 1.00000E-45
3.74810E-01 1.00000E-45
3.79039E-01 1.00000E-45
3.83277E-01 1.00000E-45
3.87524E-01 1.00000E-45
3.91780E-01 1.00000E-45
3.96044E-01 1.00000E-45
4.00316E-01 1.00000E-45
4.04596E-01 1.00000E-45
4.08882E-01 1.00000E-45
4.13176E-01 1.00000E-45
4.17476E-01 1.00000E-45
4.21783E-01 1.00000E-45
4.26095E-01 1.00000E-45
4.30413E-01 1.00000E-45
4.34737E-01 1.00000E-45
4.39065E-01 1.00000E-45
4.43398E-01 1.00000E-45
4.47736E-01 1.00000E-45
4.52077E-01 1.00000E-45
4.56422E-01 1.00000E-45
4.60770E-01 1.00000E-45
4.65122E-01 1.00000E-45
4.69476E-01 1.00000E-45
4.73832E-01 1.00000E-45
4.78190E-01 1.00000E-45
4.82550E-01 1.00000E-45
4.86912E-01 1.00000E-45
4.91274E-01 1.00000E-45
4.95637E-01 1.00000E-45
5.00000E-01 1.00000E-45
5.04363E-01 1.00000E-45
5.08726E-01 1.00000E-45
5.13088E-01 1.00000E-45
5.17450E-01 1.00000E-45
5.21810E-01 1.00000E-45
5.26168E-01 1.00000E-45
5.30524E-01 1.00000E-45
5.34878E-01 1.00000E-45
5.39230E-01 1.00000E-45
5.43578E-01 1.00000E-45
5.47923E-01 1.00000E-45
5.52264E-01 1.00000E-45
5.56602E-01 1.00000E-45
5.60935E-01 1.00000E-45
5.65263E-01 1.00000E-45
5.69587E-01 1.00000E-45
5.73905E-01 1.00000E-45
5.78217E-01 1.00000E-45
5.82524E-01 1.00000E-45
5.86824E-01 1.00000E-45
5.91118E-01 1.00000E-45
5.95404E-01 1.00000E-45
5.99684E-01 1.00000E-45
6.03956E-01 1.00000E-45
6.08220E-01 1.00000E-45
6.12476E-01 1.00000E-45
6.16723E-01 1.00000E-45
6.20961E-01 1.00000E-45
6.25190E-01 1.00000E-45
6.29410E-01 1.00000E-45
6.33619E-01 1.00000E-45
6.37819E-01 1.00000E-45
6.42008E-01 1.00000E-45
6.46186E-01 1.00000E-45
6.50353E-01 1.00000E-45
6.54508E-01 1.00000E-45
6.58652E-01 1.00000E-45
6.62784E-01 1.00000E-45
6.66903E-01 1.00000E-45
6.71010E-01 1.00000E-45
6.75104E-01 1.00000E-45
6.79184E-01 1.00000E-45
6.83251E-01 1.00000E-45
6.87303E-01 1.00000E-45
6.91342E-01 1.00000E-45
6.95366E-01 1.00000E-45
6.99375E-01 1.00000E-45
7.03368E-01 1.00000E-45
7.07347E-01 1.00000E-45
7.11309E-01 1.00000E-45
7.15256E-01 1.00000E-45
7.19186E-01 1.00000E-45
7.23099E-01 1.00000E-45
7.26995E-01 1.00000E-45
7.30874E-01 1.00000E-45
7.34736E-01 1.00000E-45
7.38579E-01 1.00000E-45
7.42405E-01 1.00000E-45
7.46212E-01 1.00000E-45
7.50000E-01 1.00000E-45
7.53769E-01 1.00000E-45
7.57519E-01 1.00000E-45
7.61249E-01 1.00000E-45
7.64960E-01 1.00000E-45
7.68650E-01 1.00000E-45
7.72320E-01 1.00000E-45
7.75968E-01 1.00000E-45
7.79596E-01 1.00000E-45
7.83203E-01 1.00000E-45
7.86788E-01 1.00000E-45
7.90351E-01 1.00000E-45
7.93893E-01 1.00000E-45
7.97411E-01 1.00000E-45
8.00908E-01 1.00000E-45
8.04381E-01 1.00000E-45
8.07831E-01 1.00000E-45
8.11257E-01 1.00000E-45
8.14660E-01 1.00000E-45
8.18039E-01 1.00000E-45
8.21394E-01 1.00000E-45
8.24724E-01 1.00000E-45
8.28030E-01 1.00000E-45
8.31310E-01 1.00000E-45
8.34565E-01 1.00000E-45
8.37795E-01 1.00000E-45
8.40999E-01 1.00000E-45
8.44177E-01 1.00000E-45
8.47329E-01 1.00000E-45
8.50455E-01 1.00000E-45
8.53553E-01 1.00000E-45
8.56625E-01 1.00000E-45
8.59670E-01 1.00000E-45
8.62687E-01 1.00000E-45
8.65677E-01 1.00000E-45
8.68639E-01 1.00000E-45
8.71572E-01 1.00000E-45
8.74478E-01 1.00000E-45
8.77355E-01 1.00000E-45
8.80203E-01 1.00000E-45
8.83022E-01 1.00000E-45
8.85812E-01 1.00000E-45
8.88573E-01 1.00000E-45
8.91304E-01 1.00000E-45
8.94005E-01 1.00000E-45
8.96677E-01 1.00000E-45
8.99318E-01 1.00000E-45
9.01928E-01 1.00000E-45
9.04508E-01 1.00000E-45
9.07058E-01 1.00000E-45
9.09576E-01 1.00000E-45
9.12063E-01 1.00000E-45
9.14519E-01 1.00000E-45
9.16943E-01 1.00000E-45
9.19335E-01 1.00000E-45
9.21696E-01 1.00000E-45
9.24024E-01 1.00000E-45
9.26320E-01 1.00000E-45
9.28584E-01 1.00000E-45
9.30815E-01 1.00000E-45
9.33013E-01 1.00000E-45
9.35178E-01 1.00000E-45
9.37310E-01 1.00000E-45
9.39409E-01 1.00000E-45
9.41474E-01 1.00000E-45
9.43505E-01 1.00000E-45
9.45503E-01 1.00000E-45
9.47467E-01 1.00000E-45
9.49397E-01 1.00000E-45
9.51293E-01 1.00000E-45
9.53154E-01 1.00000E-45
9.54981E-01 1.00000E-45
9.56773E-01 1.00000E-45
9.58530E-01 1.00000E-45
9.60252E-01 1.00000E-45
9.61940E-01 1.00000E-45
9.63592E-01 1.00000E-45
9.65209E-01 1.00000E-45
9.66790E-01 1.00000E-45
9.68336E-01 1.00000E-45
9.69846E-01 1.00000E-45
9.71321E-01 1.00000E-45
9.72759E-01 1.00000E-45
9.74162E-01 1.00000E-45
9.75528E-01 1.00000E-45
9.76858E-01 1.00000E-45
9.78152E-01 1.00000E-45
9.79410E-01 1.00000E-45
9.80631E-01 1.00000E-45
9.81815E-01 1.00000E-45
9.82963E-01 1.00000E-45
9.84074E-01 1.00000E-45
9.85148E-01 1.00000E-45
9.86185E-01 1.00000E-45
9.87185E-01 1.00000E-45
9.88148E-01 1.00000E-45
9.89074E-01 1.00000E-45
9.89962E-01 1.00000E-45
9.90814E-01 1.00000E-45
9.91627E-01 1.00000E-45
9.92404E-01 1.00000E-45
9.93143E-01 1.00000E-45
9.93844E-01 1.00000E-45
9.94508E-01 1.00000E-45
9.95134E-01 1.00000E-45
9.95722E-01 1.00000E-45
9.96273E-01 1.00000E-45
9.96786E-01 1.00000E-45
9.97261E-01 1.00000E-45
9.97698E-01 1.00000E-45
9.98097E-01 1.00000E-45
9.98459E-01 1.00000E-45
9.98782E-01 1.00000E-45
9.99067E-01 1.00000E-45
9.99315E-01 1.00000E-45
9.99524E-01 1.00000E-45
9.99695E-01 1.00000E-45
9.99829E-01 1.00000E-45
9.99924E-01 1.00000E-45
9.99981E-01 1.00000E-45
1.00000E+00 1.00000E-45
