 #
 # Subroutine ELSEPA. Elastic scattering of electrons and positrons
 #                    by neutral atoms and positive ions
 #
 # Projectile: positron
 # Kinetic energy = 1.25000E+08 eV = 4.59367E+06 a.u.
 #
 # WARNING: High-energy factorization with free-atom DF screening.
 #          Absorption, polarization and exchange corrections are
 #          switched off.
 #          Phase shifts are calculated for the bare nucleus.
 #          Scattering amplitudes are not evaluated.
 #
 # Element: Ac,  Z =  89,  atomic weight = 2.27028E+02 g/mol
 #
 # Nuclear model: Fermi distribution
 #                Average radius = 6.52745E-13 cm
 #                Skin thickness = 5.46000E-14 cm
 #
 # Number of electrons = 89
 #
 # Total elastic cross section = 1.15418E-17 cm**2 = 4.12166E-01 a0**2
 # 1st transport cross section = 9.10386E-25 cm**2 = 3.25105E-08 a0**2
 # 2nd transport cross section = 2.71382E-24 cm**2 = 9.69122E-08 a0**2
 #
 #
 # Differential cross section:                       MU=(1-COS(THETA))/2
 #
 #  THETA        MU          DCS          DCS        Sherman      error
 #  (deg)                 (cm**2/sr)   (a0**2/sr)    function
 #----------------------------------------------------------------------
0.00000E+00 2.38559E-09
7.61557E-13 2.36810E-09
1.18994E-12 2.35836E-09
1.71346E-12 2.34655E-09
2.33225E-12 2.33272E-09
3.04617E-12 2.31693E-09
3.85530E-12 2.29925E-09
4.75964E-12 2.27974E-09
5.75917E-12 2.25850E-09
6.85391E-12 2.23560E-09
8.04379E-12 2.21113E-09
9.32893E-12 2.18520E-09
1.07092E-11 2.15791E-09
1.21847E-11 2.12934E-09
1.37554E-11 2.09961E-09
1.54213E-11 2.06893E-09
1.71823E-11 2.03731E-09
1.90386E-11 2.00475E-09
2.09900E-11 1.97133E-09
2.30367E-11 1.93723E-09
2.51785E-11 1.90292E-09
2.74156E-11 1.86804E-09
2.97478E-11 1.83267E-09
3.21752E-11 1.79689E-09
3.46979E-11 1.76130E-09
3.73157E-11 1.72561E-09
4.00286E-11 1.68976E-09
4.28368E-11 1.65381E-09
4.57402E-11 1.61812E-09
4.87388E-11 1.58289E-09
5.18325E-11 1.54776E-09
5.50215E-11 1.51276E-09
5.83057E-11 1.47798E-09
6.16850E-11 1.44418E-09
6.51595E-11 1.41065E-09
6.87293E-11 1.37744E-09
7.23943E-11 1.34458E-09
7.61544E-11 1.31259E-09
1.18991E-10 1.02611E-09
1.71347E-10 8.03441E-10
2.33223E-10 6.36296E-10
3.04617E-10 5.11690E-10
3.85531E-10 4.17618E-10
4.75965E-10 3.45353E-10
5.75917E-10 2.88721E-10
6.85389E-10 2.43550E-10
8.04380E-10 2.07031E-10
9.32891E-10 1.77163E-10
1.07092E-09 1.52466E-10
1.21847E-09 1.31946E-10
1.37554E-09 1.14790E-10
1.54213E-09 9.99208E-11
1.71823E-09 8.73425E-11
1.90386E-09 7.70351E-11
2.09900E-09 6.85118E-11
2.30367E-09 6.12724E-11
2.51785E-09 5.44752E-11
2.74156E-09 4.87614E-11
2.97478E-09 4.39240E-11
3.21752E-09 3.98009E-11
3.46978E-09 3.59464E-11
3.73156E-09 3.25484E-11
4.00286E-09 2.96169E-11
4.28368E-09 2.70743E-11
4.57402E-09 2.47679E-11
4.87388E-09 2.26261E-11
5.18326E-09 2.07503E-11
5.50215E-09 1.91004E-11
5.83057E-09 1.76403E-11
6.16850E-09 1.62320E-11
6.51596E-09 1.49834E-11
6.87293E-09 1.38725E-11
7.23942E-09 1.28808E-11
7.61544E-09 1.19501E-11
1.18991E-08 6.08548E-12
1.71347E-08 3.44438E-12
2.33223E-08 2.09929E-12
3.04617E-08 1.34694E-12
3.85531E-08 9.01446E-13
4.75965E-08 6.24341E-13
5.75917E-08 4.46614E-13
6.85389E-08 3.28193E-13
8.04380E-08 2.46719E-13
9.32891E-08 1.89206E-13
1.07092E-07 1.47628E-13
1.21847E-07 1.16923E-13
1.37554E-07 9.38127E-14
1.54213E-07 7.60863E-14
1.71823E-07 6.24341E-14
1.90386E-07 5.16882E-14
2.09900E-07 4.32079E-14
2.30367E-07 3.63609E-14
2.51785E-07 3.08488E-14
2.74156E-07 2.63362E-14
2.97478E-07 2.26260E-14
3.21752E-07 1.95512E-14
3.46978E-07 1.69771E-14
3.73156E-07 1.48208E-14
4.00286E-07 1.29883E-14
4.28368E-07 1.14352E-14
4.57402E-07 1.01048E-14
4.87388E-07 8.96266E-15
5.18325E-07 7.97755E-15
5.50215E-07 7.12242E-15
5.83057E-07 6.38036E-15
6.16850E-07 5.73010E-15
6.51596E-07 5.16162E-15
6.87293E-07 4.66119E-15
7.23942E-07 4.22000E-15
7.61543E-07 3.82986E-15
1.18991E-06 1.62110E-15
1.71347E-06 8.00041E-16
2.33223E-06 4.39332E-16
3.04617E-06 2.60840E-16
3.85531E-06 1.64404E-16
4.75964E-06 1.08651E-16
5.75916E-06 7.46311E-17
6.85388E-06 5.29336E-17
8.04378E-06 3.85748E-17
9.32888E-06 2.87696E-17
1.07092E-05 2.18907E-17
1.21846E-05 1.69501E-17
1.37553E-05 1.33280E-17
1.54212E-05 1.06238E-17
1.71822E-05 8.57192E-18
1.90385E-05 6.98740E-18
2.09899E-05 5.76106E-18
2.30365E-05 4.79123E-18
2.51783E-05 4.01572E-18
2.74153E-05 3.38987E-18
2.97475E-05 2.88079E-18
3.21749E-05 2.46374E-18
3.46974E-05 2.11971E-18
3.73152E-05 1.83394E-18
4.00281E-05 1.59493E-18
4.28362E-05 1.39368E-18
4.57395E-05 1.22316E-18
4.87380E-05 1.07786E-18
5.18317E-05 9.53427E-19
5.50205E-05 8.46384E-19
5.83045E-05 7.53924E-19
6.16838E-05 6.73749E-19
6.51582E-05 6.03964E-19
6.87277E-05 5.42994E-19
7.23925E-05 4.89532E-19
7.61524E-05 4.42540E-19
9.21439E-05 3.02475E-19
1.09658E-04 2.13660E-19
1.28695E-04 1.55166E-19
1.49255E-04 1.15377E-19
1.71338E-04 8.75543E-20
1.94942E-04 6.76312E-20
2.20070E-04 5.30626E-20
2.46720E-04 4.22113E-20
2.74892E-04 3.39963E-20
3.04586E-04 2.76842E-20
3.35803E-04 2.27709E-20
3.68542E-04 1.88999E-20
4.02802E-04 1.58171E-20
4.38585E-04 1.33377E-20
4.75889E-04 1.13251E-20
5.14715E-04 9.67812E-21
5.55063E-04 8.31960E-21
5.96931E-04 7.19115E-21
6.40321E-04 6.24752E-21
6.85233E-04 5.45358E-21
7.31665E-04 4.78177E-21
7.79618E-04 4.21016E-21
8.29092E-04 3.72140E-21
8.80086E-04 3.30145E-21
9.32601E-04 2.93904E-21
9.86636E-04 2.62496E-21
1.04219E-03 2.35168E-21
1.09927E-03 2.11301E-21
1.15786E-03 1.90381E-21
1.21797E-03 1.71983E-21
1.27961E-03 1.55751E-21
1.34276E-03 1.41386E-21
1.40743E-03 1.28637E-21
1.47362E-03 1.17290E-21
1.54133E-03 1.07165E-21
1.61056E-03 9.81076E-22
1.68131E-03 8.99863E-22
1.75357E-03 8.26898E-22
1.82735E-03 7.61109E-22
1.90265E-03 7.01689E-22
1.97947E-03 6.47935E-22
2.05780E-03 5.99213E-22
2.13765E-03 5.54969E-22
2.21902E-03 5.14718E-22
2.30190E-03 4.78035E-22
2.38630E-03 4.44548E-22
2.47222E-03 4.13929E-22
2.55965E-03 3.85888E-22
2.64859E-03 3.60170E-22
2.73905E-03 3.36548E-22
2.83103E-03 3.14819E-22
2.92452E-03 2.94806E-22
3.01952E-03 2.76348E-22
3.11604E-03 2.59303E-22
3.21407E-03 2.43544E-22
3.31362E-03 2.28955E-22
3.41468E-03 2.15434E-22
3.51725E-03 2.02889E-22
3.62133E-03 1.91237E-22
3.72692E-03 1.80402E-22
3.83403E-03 1.70317E-22
3.94265E-03 1.60921E-22
4.05278E-03 1.52158E-22
4.16442E-03 1.43978E-22
4.27757E-03 1.36334E-22
4.39223E-03 1.29186E-22
4.50840E-03 1.22495E-22
4.62608E-03 1.16227E-22
4.74527E-03 1.10350E-22
4.86597E-03 1.04836E-22
4.98817E-03 9.96576E-23
5.11188E-03 9.47910E-23
5.23711E-03 9.02140E-23
5.36383E-03 8.59063E-23
5.49207E-03 8.18491E-23
5.62181E-03 7.80252E-23
5.75306E-03 7.44187E-23
5.88581E-03 7.10151E-23
6.02007E-03 6.78009E-23
6.15583E-03 6.47636E-23
6.29310E-03 6.18918E-23
6.43187E-03 5.91747E-23
6.57214E-03 5.66025E-23
6.71392E-03 5.41661E-23
6.85720E-03 5.18571E-23
7.00198E-03 4.96675E-23
7.14827E-03 4.75901E-23
7.29605E-03 4.56181E-23
7.44534E-03 4.37451E-23
7.59612E-03 4.19653E-23
7.97965E-03 3.78886E-23
8.37255E-03 3.42852E-23
8.77480E-03 3.10910E-23
9.18641E-03 2.82520E-23
9.60736E-03 2.57222E-23
1.00376E-02 2.34623E-23
1.04773E-02 2.14387E-23
1.09262E-02 1.96228E-23
1.13844E-02 1.79896E-23
1.18520E-02 1.65179E-23
1.23288E-02 1.51889E-23
1.28150E-02 1.39867E-23
1.33104E-02 1.28971E-23
1.38150E-02 1.19078E-23
1.43290E-02 1.10082E-23
1.48521E-02 1.01888E-23
1.53845E-02 9.44130E-24
1.59262E-02 8.75833E-24
1.64770E-02 8.13346E-24
1.70371E-02 7.56095E-24
1.76063E-02 7.03571E-24
1.81848E-02 6.55323E-24
1.87724E-02 6.10946E-24
1.93692E-02 5.70081E-24
1.99751E-02 5.32408E-24
2.05901E-02 4.97637E-24
2.12143E-02 4.65510E-24
2.18476E-02 4.35795E-24
2.24900E-02 4.08283E-24
2.31415E-02 3.82785E-24
2.38021E-02 3.59132E-24
2.44717E-02 3.37170E-24
2.51504E-02 3.16759E-24
2.58382E-02 2.97775E-24
2.65349E-02 2.80101E-24
2.72407E-02 2.63634E-24
2.79555E-02 2.48280E-24
2.86793E-02 2.33952E-24
2.94120E-02 2.20572E-24
3.01537E-02 2.08068E-24
3.09043E-02 1.96374E-24
3.16639E-02 1.85430E-24
3.24324E-02 1.75182E-24
3.32098E-02 1.65578E-24
3.39961E-02 1.56573E-24
3.47912E-02 1.48124E-24
3.55952E-02 1.40192E-24
3.64081E-02 1.32741E-24
3.72297E-02 1.25738E-24
3.80602E-02 1.19152E-24
3.88995E-02 1.12955E-24
3.97476E-02 1.07122E-24
4.06044E-02 1.01627E-24
4.14700E-02 9.64484E-25
4.23443E-02 9.15661E-25
4.32273E-02 8.69608E-25
4.41190E-02 8.26147E-25
4.50194E-02 7.85112E-25
4.59284E-02 7.46353E-25
4.68461E-02 7.09726E-25
4.87074E-02 6.42353E-25
5.06030E-02 5.82042E-25
5.25328E-02 5.27970E-25
5.44967E-02 4.79420E-25
5.64946E-02 4.35766E-25
5.85262E-02 3.96461E-25
6.05914E-02 3.61026E-25
6.26901E-02 3.29041E-25
6.48222E-02 3.00136E-25
6.69873E-02 2.73985E-25
6.91854E-02 2.50300E-25
7.14163E-02 2.28826E-25
7.36799E-02 2.09338E-25
7.59760E-02 1.91634E-25
7.83043E-02 1.75538E-25
8.06647E-02 1.60889E-25
8.30571E-02 1.47548E-25
8.54812E-02 1.35387E-25
8.79369E-02 1.24294E-25
9.04240E-02 1.14167E-25
9.29422E-02 1.04915E-25
9.54915E-02 9.64579E-26
9.80716E-02 8.87216E-26
1.00682E-01 8.16403E-26
1.03323E-01 7.51547E-26
1.05995E-01 6.92113E-26
1.08696E-01 6.37616E-26
1.11427E-01 5.87621E-26
1.14188E-01 5.41732E-26
1.16978E-01 4.99592E-26
1.19797E-01 4.60874E-26
1.22645E-01 4.25287E-26
1.25522E-01 3.92561E-26
1.28428E-01 3.62455E-26
1.31361E-01 3.34748E-26
1.34323E-01 3.09239E-26
1.37313E-01 2.85744E-26
1.40330E-01 2.64097E-26
1.43375E-01 2.44146E-26
1.46447E-01 2.25752E-26
1.49545E-01 2.08788E-26
1.52671E-01 1.93138E-26
1.55823E-01 1.78696E-26
1.59001E-01 1.65365E-26
1.62205E-01 1.53057E-26
1.65435E-01 1.41690E-26
1.68690E-01 1.31189E-26
1.71970E-01 1.21486E-26
1.75276E-01 1.12519E-26
1.78606E-01 1.04230E-26
1.81961E-01 9.65655E-27
1.85340E-01 8.94777E-27
1.88743E-01 8.29217E-27
1.92169E-01 7.68565E-27
1.95619E-01 7.12444E-27
1.99092E-01 6.60506E-27
2.02589E-01 6.12431E-27
2.06107E-01 5.67925E-27
2.09649E-01 5.26717E-27
2.13212E-01 4.88557E-27
2.16797E-01 4.53214E-27
2.20404E-01 4.20476E-27
2.24032E-01 3.90147E-27
2.27680E-01 3.62046E-27
2.31350E-01 3.36006E-27
2.35040E-01 3.11873E-27
2.38751E-01 2.89505E-27
2.42481E-01 2.68771E-27
2.46231E-01 2.49549E-27
2.50000E-01 2.31727E-27
2.53788E-01 2.15201E-27
2.57595E-01 1.99877E-27
2.61421E-01 1.85664E-27
2.65264E-01 1.72481E-27
2.69126E-01 1.60253E-27
2.73005E-01 1.48909E-27
2.76901E-01 1.38384E-27
2.80814E-01 1.28619E-27
2.84744E-01 1.19557E-27
2.88691E-01 1.11148E-27
2.92653E-01 1.03343E-27
2.96632E-01 9.60995E-28
3.00625E-01 8.93756E-28
3.04634E-01 8.31337E-28
3.08658E-01 7.73387E-28
3.12697E-01 7.19583E-28
3.16749E-01 6.69624E-28
3.20816E-01 6.23230E-28
3.24896E-01 5.80145E-28
3.28990E-01 5.40128E-28
3.33097E-01 5.02958E-28
3.37216E-01 4.68428E-28
3.41348E-01 4.36350E-28
3.45492E-01 4.06545E-28
3.49647E-01 3.78851E-28
3.53814E-01 3.53114E-28
3.57992E-01 3.29195E-28
3.62181E-01 3.06962E-28
3.66381E-01 2.86295E-28
3.70590E-01 2.67081E-28
3.74810E-01 2.49215E-28
3.79039E-01 2.32603E-28
3.83277E-01 2.17152E-28
3.87524E-01 2.02781E-28
3.91780E-01 1.89412E-28
3.96044E-01 1.76974E-28
4.00316E-01 1.65400E-28
4.04596E-01 1.54628E-28
4.08882E-01 1.44602E-28
4.13176E-01 1.35268E-28
4.17476E-01 1.26578E-28
4.21783E-01 1.18484E-28
4.26095E-01 1.10946E-28
4.30413E-01 1.03923E-28
4.34737E-01 9.73789E-29
4.39065E-01 9.12802E-29
4.43398E-01 8.55952E-29
4.47736E-01 8.02948E-29
4.52077E-01 7.53517E-29
4.56422E-01 7.07408E-29
4.60770E-01 6.64388E-29
4.65122E-01 6.24239E-29
4.69476E-01 5.86762E-29
4.73832E-01 5.51767E-29
4.78190E-01 5.19083E-29
4.82550E-01 4.88547E-29
4.86912E-01 4.60010E-29
4.91274E-01 4.33334E-29
4.95637E-01 4.08389E-29
5.00000E-01 3.85055E-29
5.04363E-01 3.63221E-29
5.08726E-01 3.42783E-29
5.13088E-01 3.23647E-29
5.17450E-01 3.05721E-29
5.21810E-01 2.88925E-29
5.26168E-01 2.73180E-29
5.30524E-01 2.58414E-29
5.34878E-01 2.44563E-29
5.39230E-01 2.31563E-29
5.43578E-01 2.19358E-29
5.47923E-01 2.07893E-29
5.52264E-01 1.97120E-29
5.56602E-01 1.86992E-29
5.60935E-01 1.77467E-29
5.65263E-01 1.68504E-29
5.69587E-01 1.60067E-29
5.73905E-01 1.52121E-29
5.78217E-01 1.44633E-29
5.82524E-01 1.37575E-29
5.86824E-01 1.30918E-29
5.91118E-01 1.24636E-29
5.95404E-01 1.18706E-29
5.99684E-01 1.13104E-29
6.03956E-01 1.07811E-29
6.08220E-01 1.02807E-29
6.12476E-01 9.80730E-30
6.16723E-01 9.35929E-30
6.20961E-01 8.93508E-30
6.25190E-01 8.53322E-30
6.29410E-01 8.15232E-30
6.33619E-01 7.79113E-30
6.37819E-01 7.44846E-30
6.42008E-01 7.12319E-30
6.46186E-01 6.81429E-30
6.50353E-01 6.52080E-30
6.54508E-01 6.24181E-30
6.58652E-01 5.97649E-30
6.62784E-01 5.72404E-30
6.66903E-01 5.48373E-30
6.71010E-01 5.25487E-30
6.75104E-01 5.03682E-30
6.79184E-01 4.82898E-30
6.83251E-01 4.63078E-30
6.87303E-01 4.44170E-30
6.91342E-01 4.26123E-30
6.95366E-01 4.08893E-30
6.99375E-01 3.92435E-30
7.03368E-01 3.76708E-30
7.07347E-01 3.61675E-30
7.11309E-01 3.47299E-30
7.15256E-01 3.33547E-30
7.19186E-01 3.20387E-30
7.23099E-01 3.07789E-30
7.26995E-01 2.95726E-30
7.30874E-01 2.84170E-30
7.34736E-01 2.73097E-30
7.38579E-01 2.62484E-30
7.42405E-01 2.52309E-30
7.46212E-01 2.42551E-30
7.50000E-01 2.33189E-30
7.53769E-01 2.24207E-30
7.57519E-01 2.15585E-30
7.61249E-01 2.07309E-30
7.64960E-01 1.99361E-30
7.68650E-01 1.91728E-30
7.72320E-01 1.84395E-30
7.75968E-01 1.77349E-30
7.79596E-01 1.70577E-30
7.83203E-01 1.64069E-30
7.86788E-01 1.57811E-30
7.90351E-01 1.51794E-30
7.93893E-01 1.46008E-30
7.97411E-01 1.40442E-30
8.00908E-01 1.35088E-30
8.04381E-01 1.29936E-30
8.07831E-01 1.24979E-30
8.11257E-01 1.20209E-30
8.14660E-01 1.15617E-30
8.18039E-01 1.11197E-30
8.21394E-01 1.06943E-30
8.24724E-01 1.02846E-30
8.28030E-01 9.89019E-31
8.31310E-01 9.51038E-31
8.34565E-01 9.14461E-31
8.37795E-01 8.79235E-31
8.40999E-01 8.45307E-31
8.44177E-01 8.12627E-31
8.47329E-01 7.81148E-31
8.50455E-01 7.50824E-31
8.53553E-01 7.21611E-31
8.56625E-01 6.93467E-31
8.59670E-01 6.66352E-31
8.62687E-01 6.40228E-31
8.65677E-01 6.15058E-31
8.68639E-01 5.90806E-31
8.71572E-01 5.67439E-31
8.74478E-01 5.44923E-31
8.77355E-01 5.23228E-31
8.80203E-01 5.02324E-31
8.83022E-01 4.82180E-31
8.85812E-01 4.62771E-31
8.88573E-01 4.44068E-31
8.91304E-01 4.26047E-31
8.94005E-01 4.08683E-31
8.96677E-01 3.91952E-31
8.99318E-01 3.75830E-31
9.01928E-01 3.60297E-31
9.04508E-01 3.45332E-31
9.07058E-01 3.30912E-31
9.09576E-01 3.17021E-31
9.12063E-01 3.03637E-31
9.14519E-01 2.90744E-31
9.16943E-01 2.78324E-31
9.19335E-01 2.66359E-31
9.21696E-01 2.54835E-31
9.24024E-01 2.43734E-31
9.26320E-01 2.33043E-31
9.28584E-01 2.22747E-31
9.30815E-01 2.12831E-31
9.33013E-01 2.03283E-31
9.35178E-01 1.94090E-31
9.37310E-01 1.85238E-31
9.39409E-01 1.76717E-31
9.41474E-01 1.68514E-31
9.43505E-01 1.60618E-31
9.45503E-01 1.53019E-31
9.47467E-01 1.45707E-31
9.49397E-01 1.38671E-31
9.51293E-01 1.31902E-31
9.53154E-01 1.25390E-31
9.54981E-01 1.19128E-31
9.56773E-01 1.13105E-31
9.58530E-01 1.07315E-31
9.60252E-01 1.01749E-31
9.61940E-01 9.63989E-32
9.63592E-01 9.12585E-32
9.65209E-01 8.63202E-32
9.66790E-01 8.15774E-32
9.68336E-01 7.70234E-32
9.69846E-01 7.26521E-32
9.71321E-01 6.84574E-32
9.72759E-01 6.44335E-32
9.74162E-01 6.05750E-32
9.75528E-01 5.68764E-32
9.76858E-01 5.33327E-32
9.78152E-01 4.99389E-32
9.79410E-01 4.66904E-32
9.80631E-01 4.35827E-32
9.81815E-01 4.06115E-32
9.82963E-01 3.77725E-32
9.84074E-01 3.50620E-32
9.85148E-01 3.24760E-32
9.86185E-01 3.00111E-32
9.87185E-01 2.76637E-32
9.88148E-01 2.54306E-32
9.89074E-01 2.33087E-32
9.89962E-01 2.12950E-32
9.90814E-01 1.93867E-32
9.91627E-01 1.75811E-32
9.92404E-01 1.58757E-32
9.93143E-01 1.42682E-32
9.93844E-01 1.27561E-32
9.94508E-01 1.13375E-32
9.95134E-01 1.00103E-32
9.95722E-01 8.77260E-33
9.96273E-01 7.62276E-33
9.96786E-01 6.55911E-33
9.97261E-01 5.58016E-33
9.97698E-01 4.68454E-33
9.98097E-01 3.87097E-33
9.98459E-01 3.13830E-33
9.98782E-01 2.48551E-33
9.99067E-01 1.91166E-33
9.99315E-01 1.41598E-33
9.99524E-01 9.97715E-34
9.99695E-01 6.56308E-34
9.99829E-01 3.91274E-34
9.99924E-01 2.02223E-34
9.99981E-01 8.89013E-35
1.00000E+00 5.11503E-35
