 #
 # Subroutine ELSEPA. Elastic scattering of electrons and positrons
 #                    by neutral atoms and positive ions
 #
 # Projectile: positron
 # Kinetic energy = 2.00000E+08 eV = 7.34987E+06 a.u.
 #
 # WARNING: High-energy factorization with free-atom DF screening.
 #          Absorption, polarization and exchange corrections are
 #          switched off.
 #          Phase shifts are calculated for the bare nucleus.
 #          Scattering amplitudes are not evaluated.
 #
 # Element: Ac,  Z =  89,  atomic weight = 2.27028E+02 g/mol
 #
 # Nuclear model: Fermi distribution
 #                Average radius = 6.52745E-13 cm
 #                Skin thickness = 5.46000E-14 cm
 #
 # Number of electrons = 89
 #
 # Total elastic cross section = 1.15426E-17 cm**2 = 4.12192E-01 a0**2
 # 1st transport cross section = 3.60625E-25 cm**2 = 1.28782E-08 a0**2
 # 2nd transport cross section = 1.07912E-24 cm**2 = 3.85361E-08 a0**2
 #
 #
 # Differential cross section:                       MU=(1-COS(THETA))/2
 #
 #  THETA        MU          DCS          DCS        Sherman      error
 #  (deg)                 (cm**2/sr)   (a0**2/sr)    function
 #----------------------------------------------------------------------
0.00000E+00 6.08847E-09
7.61557E-13 5.97568E-09
1.18994E-12 5.91377E-09
1.71346E-12 5.83953E-09
2.33225E-12 5.75372E-09
3.04617E-12 5.65727E-09
3.85530E-12 5.55111E-09
4.75964E-12 5.43630E-09
5.75917E-12 5.31394E-09
6.85391E-12 5.18559E-09
8.04379E-12 5.05117E-09
9.32893E-12 4.91233E-09
1.07092E-11 4.77086E-09
1.21847E-11 4.62621E-09
1.37554E-11 4.48077E-09
1.54213E-11 4.33493E-09
1.71823E-11 4.18836E-09
1.90386E-11 4.04422E-09
2.09900E-11 3.90110E-09
2.30367E-11 3.75943E-09
2.51785E-11 3.62209E-09
2.74156E-11 3.48675E-09
2.97478E-11 3.35490E-09
3.21752E-11 3.22759E-09
3.46979E-11 3.10313E-09
3.73157E-11 2.98357E-09
4.00286E-11 2.86822E-09
4.28368E-11 2.75617E-09
4.57402E-11 2.64977E-09
4.87388E-11 2.54700E-09
5.18325E-11 2.44797E-09
5.50215E-11 2.35416E-09
5.83057E-11 2.26365E-09
6.16850E-11 2.17721E-09
6.51595E-11 2.09499E-09
6.87293E-11 2.01590E-09
7.23943E-11 1.94084E-09
7.61544E-11 1.86916E-09
1.18991E-10 1.30928E-09
1.71347E-10 9.52290E-10
2.33223E-10 7.13811E-10
3.04617E-10 5.47252E-10
3.85531E-10 4.26919E-10
4.75965E-10 3.37919E-10
5.75917E-10 2.70875E-10
6.85389E-10 2.18053E-10
8.04380E-10 1.79545E-10
9.32891E-10 1.49673E-10
1.07092E-09 1.24941E-10
1.21847E-09 1.05999E-10
1.37554E-09 9.02793E-11
1.54213E-09 7.73154E-11
1.71823E-09 6.70114E-11
1.90386E-09 5.79968E-11
2.09900E-09 5.05830E-11
2.30367E-09 4.44682E-11
2.51785E-09 3.90217E-11
2.74156E-09 3.45095E-11
2.97478E-09 3.06405E-11
3.21752E-09 2.72373E-11
3.46978E-09 2.43626E-11
3.73156E-09 2.18264E-11
4.00286E-09 1.96124E-11
4.28368E-09 1.77122E-11
4.57402E-09 1.59981E-11
4.87388E-09 1.45066E-11
5.18326E-09 1.32004E-11
5.50215E-09 1.20167E-11
5.83057E-09 1.09799E-11
6.16850E-09 1.00526E-11
6.51596E-09 9.21496E-12
6.87293E-09 8.47387E-12
7.23942E-09 7.79858E-12
7.61544E-09 7.19032E-12
1.18991E-08 3.45563E-12
1.71347E-08 1.84809E-12
2.33223E-08 1.07537E-12
3.04617E-08 6.69246E-13
3.85531E-08 4.38849E-13
4.75965E-08 3.00092E-13
5.75917E-08 2.12142E-13
6.85389E-08 1.54260E-13
8.04380E-08 1.14867E-13
9.32891E-08 8.73306E-14
1.07092E-07 6.76064E-14
1.21847E-07 5.31693E-14
1.37554E-07 4.23974E-14
1.54213E-07 3.42232E-14
1.71823E-07 2.79269E-14
1.90386E-07 2.30119E-14
2.09900E-07 1.91294E-14
2.30367E-07 1.60301E-14
2.51785E-07 1.35318E-14
2.74156E-07 1.14997E-14
2.97478E-07 9.83437E-15
3.21752E-07 8.45953E-15
3.46978E-07 7.31672E-15
3.73156E-07 6.36053E-15
4.00286E-07 5.55568E-15
4.28368E-07 4.87435E-15
4.57402E-07 4.29449E-15
4.87388E-07 3.79850E-15
5.18325E-07 3.37223E-15
5.50215E-07 3.00422E-15
5.83057E-07 2.68516E-15
6.16850E-07 2.40738E-15
6.51596E-07 2.16468E-15
6.87293E-07 1.95185E-15
7.23942E-07 1.76457E-15
7.61543E-07 1.59926E-15
1.18991E-06 6.70058E-16
1.71347E-06 3.27785E-16
2.33223E-06 1.78608E-16
3.04617E-06 1.05401E-16
3.85531E-06 6.61376E-17
4.75964E-06 4.35696E-17
5.75916E-06 2.98583E-17
6.85388E-06 2.11415E-17
8.04378E-06 1.53860E-17
9.32888E-06 1.14625E-17
1.07092E-05 8.71354E-18
1.21846E-05 6.74130E-18
1.37553E-05 5.29668E-18
1.54212E-05 4.21902E-18
1.71822E-05 3.40191E-18
1.90385E-05 2.77133E-18
2.09899E-05 2.28359E-18
2.30365E-05 1.89811E-18
2.51783E-05 1.59004E-18
2.74153E-05 1.34156E-18
2.97475E-05 1.13955E-18
3.21749E-05 9.74149E-19
3.46974E-05 8.37770E-19
3.73152E-05 7.24538E-19
4.00281E-05 6.29875E-19
4.28362E-05 5.50202E-19
4.57395E-05 4.82723E-19
4.87380E-05 4.25246E-19
5.18317E-05 3.76042E-19
5.50205E-05 3.33729E-19
5.83045E-05 2.97193E-19
6.16838E-05 2.65522E-19
6.51582E-05 2.37963E-19
6.87277E-05 2.13892E-19
7.23925E-05 1.92792E-19
7.61524E-05 1.74430E-19
9.21439E-05 1.19177E-19
1.09658E-04 8.41649E-20
1.28695E-04 6.11176E-20
1.49255E-04 4.54455E-20
1.71338E-04 3.44899E-20
1.94942E-04 2.66459E-20
2.20070E-04 2.09105E-20
2.46720E-04 1.66384E-20
2.74892E-04 1.34041E-20
3.04586E-04 1.09187E-20
3.35803E-04 8.98372E-21
3.68542E-04 7.45896E-21
4.02802E-04 6.24439E-21
4.38585E-04 5.26728E-21
4.75889E-04 4.47395E-21
5.14715E-04 3.82452E-21
5.55063E-04 3.28869E-21
5.96931E-04 2.84349E-21
6.40321E-04 2.47113E-21
6.85233E-04 2.15787E-21
7.31665E-04 1.89250E-21
7.79618E-04 1.66655E-21
8.29092E-04 1.47328E-21
8.80086E-04 1.30717E-21
9.32601E-04 1.16377E-21
9.86636E-04 1.03946E-21
1.04219E-03 9.31256E-22
1.09927E-03 8.36728E-22
1.15786E-03 7.53845E-22
1.21797E-03 6.80933E-22
1.27961E-03 6.16585E-22
1.34276E-03 5.59622E-22
1.40743E-03 5.09051E-22
1.47362E-03 4.64029E-22
1.54133E-03 4.23844E-22
1.61056E-03 3.87885E-22
1.68131E-03 3.55629E-22
1.75357E-03 3.26630E-22
1.82735E-03 3.00501E-22
1.90265E-03 2.76908E-22
1.97947E-03 2.55562E-22
2.05780E-03 2.36212E-22
2.13765E-03 2.18637E-22
2.21902E-03 2.02647E-22
2.30190E-03 1.88074E-22
2.38630E-03 1.74770E-22
2.47222E-03 1.62604E-22
2.55965E-03 1.51463E-22
2.64859E-03 1.41245E-22
2.73905E-03 1.31860E-22
2.83103E-03 1.23228E-22
2.92452E-03 1.15279E-22
3.01952E-03 1.07947E-22
3.11604E-03 1.01178E-22
3.21407E-03 9.49209E-23
3.31362E-03 8.91292E-23
3.41468E-03 8.37629E-23
3.51725E-03 7.87850E-23
3.62133E-03 7.41626E-23
3.72692E-03 6.98658E-23
3.83403E-03 6.58677E-23
3.94265E-03 6.21439E-23
4.05278E-03 5.86723E-23
4.16442E-03 5.54329E-23
4.27757E-03 5.24074E-23
4.39223E-03 4.95793E-23
4.50840E-03 4.69334E-23
4.62608E-03 4.44560E-23
4.74527E-03 4.21345E-23
4.86597E-03 3.99574E-23
4.98817E-03 3.79142E-23
5.11188E-03 3.59952E-23
5.23711E-03 3.41916E-23
5.36383E-03 3.24953E-23
5.49207E-03 3.08988E-23
5.62181E-03 2.93952E-23
5.75306E-03 2.79782E-23
5.88581E-03 2.66420E-23
6.02007E-03 2.53812E-23
6.15583E-03 2.41908E-23
6.29310E-03 2.30662E-23
6.43187E-03 2.20032E-23
6.57214E-03 2.09979E-23
6.71392E-03 2.00466E-23
6.85720E-03 1.91459E-23
7.00198E-03 1.82927E-23
7.14827E-03 1.74841E-23
7.29605E-03 1.67173E-23
7.44534E-03 1.59899E-23
7.59612E-03 1.52995E-23
7.97965E-03 1.37213E-23
8.37255E-03 1.23306E-23
8.77480E-03 1.11021E-23
9.18641E-03 1.00140E-23
9.60736E-03 9.04797E-24
1.00376E-02 8.18837E-24
1.04773E-02 7.42183E-24
1.09262E-02 6.73686E-24
1.13844E-02 6.12359E-24
1.18520E-02 5.57348E-24
1.23288E-02 5.07915E-24
1.28150E-02 4.63419E-24
1.33104E-02 4.23301E-24
1.38150E-02 3.87076E-24
1.43290E-02 3.54316E-24
1.48521E-02 3.24649E-24
1.53845E-02 2.97745E-24
1.59262E-02 2.73316E-24
1.64770E-02 2.51107E-24
1.70371E-02 2.30891E-24
1.76063E-02 2.12468E-24
1.81848E-02 1.95662E-24
1.87724E-02 1.80314E-24
1.93692E-02 1.66283E-24
1.99751E-02 1.53445E-24
2.05901E-02 1.41686E-24
2.12143E-02 1.30907E-24
2.18476E-02 1.21017E-24
2.24900E-02 1.11935E-24
2.31415E-02 1.03590E-24
2.38021E-02 9.59141E-25
2.44717E-02 8.88500E-25
2.51504E-02 8.23440E-25
2.58382E-02 7.63479E-25
2.65349E-02 7.08182E-25
2.72407E-02 6.57154E-25
2.79555E-02 6.10038E-25
2.86793E-02 5.66508E-25
2.94120E-02 5.26270E-25
3.01537E-02 4.89054E-25
3.09043E-02 4.54616E-25
3.16639E-02 4.22734E-25
3.24324E-02 3.93202E-25
3.32098E-02 3.65837E-25
3.39961E-02 3.40467E-25
3.47912E-02 3.16938E-25
3.55952E-02 2.95107E-25
3.64081E-02 2.74844E-25
3.72297E-02 2.56029E-25
3.80602E-02 2.38553E-25
3.88995E-02 2.22314E-25
3.97476E-02 2.07221E-25
4.06044E-02 1.93188E-25
4.14700E-02 1.80137E-25
4.23443E-02 1.67995E-25
4.32273E-02 1.56697E-25
4.41190E-02 1.46180E-25
4.50194E-02 1.36389E-25
4.59284E-02 1.27271E-25
4.68461E-02 1.18778E-25
4.87074E-02 1.03492E-25
5.06030E-02 9.02129E-26
5.25328E-02 7.86695E-26
5.44967E-02 6.86282E-26
5.64946E-02 5.98884E-26
5.85262E-02 5.22774E-26
6.05914E-02 4.56464E-26
6.26901E-02 3.98670E-26
6.48222E-02 3.48278E-26
6.69873E-02 3.04329E-26
6.91854E-02 2.65988E-26
7.14163E-02 2.32532E-26
7.36799E-02 2.03333E-26
7.59760E-02 1.77847E-26
7.83043E-02 1.55597E-26
8.06647E-02 1.36172E-26
8.30571E-02 1.19210E-26
8.54812E-02 1.04400E-26
8.79369E-02 9.14668E-27
9.04240E-02 8.01724E-27
9.29422E-02 7.03088E-27
9.54915E-02 6.16942E-27
9.80716E-02 5.41700E-27
1.00682E-01 4.75976E-27
1.03323E-01 4.18562E-27
1.05995E-01 3.68399E-27
1.08696E-01 3.24564E-27
1.11427E-01 2.86252E-27
1.14188E-01 2.52756E-27
1.16978E-01 2.23463E-27
1.19797E-01 1.97834E-27
1.22645E-01 1.75400E-27
1.25522E-01 1.55752E-27
1.28428E-01 1.38533E-27
1.31361E-01 1.23430E-27
1.34323E-01 1.10172E-27
1.37313E-01 9.85225E-28
1.40330E-01 8.82737E-28
1.43375E-01 7.92462E-28
1.46447E-01 7.12833E-28
1.49545E-01 6.42486E-28
1.52671E-01 5.80234E-28
1.55823E-01 5.25048E-28
1.59001E-01 4.76028E-28
1.62205E-01 4.32397E-28
1.65435E-01 3.93477E-28
1.68690E-01 3.58681E-28
1.71970E-01 3.27499E-28
1.75276E-01 2.99488E-28
1.78606E-01 2.74265E-28
1.81961E-01 2.51494E-28
1.85340E-01 2.30889E-28
1.88743E-01 2.12197E-28
1.92169E-01 1.95201E-28
1.95619E-01 1.79711E-28
1.99092E-01 1.65563E-28
2.02589E-01 1.52614E-28
2.06107E-01 1.40739E-28
2.09649E-01 1.29830E-28
2.13212E-01 1.19791E-28
2.16797E-01 1.10539E-28
2.20404E-01 1.02002E-28
2.24032E-01 9.41147E-29
2.27680E-01 8.68207E-29
2.31350E-01 8.00699E-29
2.35040E-01 7.38177E-29
2.38751E-01 6.80244E-29
2.42481E-01 6.26544E-29
2.46231E-01 5.76757E-29
2.50000E-01 5.30595E-29
2.53788E-01 4.87795E-29
2.57595E-01 4.48120E-29
2.61421E-01 4.11352E-29
2.65264E-01 3.77290E-29
2.69126E-01 3.45752E-29
2.73005E-01 3.16566E-29
2.76901E-01 2.89575E-29
2.80814E-01 2.64631E-29
2.84744E-01 2.41599E-29
2.88691E-01 2.20350E-29
2.92653E-01 2.00765E-29
2.96632E-01 1.82730E-29
3.00625E-01 1.66141E-29
3.04634E-01 1.50898E-29
3.08658E-01 1.36908E-29
3.12697E-01 1.24084E-29
3.16749E-01 1.12342E-29
3.20816E-01 1.01605E-29
3.24896E-01 9.18003E-30
3.28990E-01 8.28585E-30
3.33097E-01 7.47152E-30
3.37216E-01 6.73098E-30
3.41348E-01 6.05851E-30
3.45492E-01 5.44878E-30
3.49647E-01 4.89680E-30
3.53814E-01 4.39786E-30
3.57992E-01 3.94761E-30
3.62181E-01 3.54196E-30
3.66381E-01 3.17710E-30
3.70590E-01 2.84949E-30
3.74810E-01 2.55585E-30
3.79039E-01 2.29311E-30
3.83277E-01 2.05845E-30
3.87524E-01 1.84924E-30
3.91780E-01 1.66308E-30
3.96044E-01 1.49772E-30
4.00316E-01 1.35112E-30
4.04596E-01 1.22138E-30
4.08882E-01 1.10679E-30
4.13176E-01 1.00574E-30
4.17476E-01 9.16809E-31
4.21783E-01 8.38660E-31
4.26095E-01 7.70096E-31
4.30413E-01 7.10025E-31
4.34737E-01 6.57459E-31
4.39065E-01 6.11502E-31
4.43398E-01 5.71349E-31
4.47736E-01 5.36273E-31
4.52077E-01 5.05622E-31
4.56422E-01 4.78815E-31
4.60770E-01 4.55328E-31
4.65122E-01 4.34701E-31
4.69476E-01 4.16521E-31
4.73832E-01 4.00424E-31
4.78190E-01 3.86092E-31
4.82550E-01 3.73244E-31
4.86912E-01 3.61633E-31
4.91274E-01 3.51047E-31
4.95637E-01 3.41301E-31
5.00000E-01 3.32237E-31
5.04363E-01 3.23720E-31
5.08726E-01 3.15634E-31
5.13088E-01 3.07883E-31
5.17450E-01 3.00386E-31
5.21810E-01 2.93078E-31
5.26168E-01 2.85904E-31
5.30524E-01 2.78822E-31
5.34878E-01 2.71800E-31
5.39230E-01 2.64812E-31
5.43578E-01 2.57839E-31
5.47923E-01 2.50872E-31
5.52264E-01 2.43901E-31
5.56602E-01 2.36926E-31
5.60935E-01 2.29947E-31
5.65263E-01 2.22967E-31
5.69587E-01 2.15994E-31
5.73905E-01 2.09033E-31
5.78217E-01 2.02096E-31
5.82524E-01 1.95191E-31
5.86824E-01 1.88329E-31
5.91118E-01 1.81522E-31
5.95404E-01 1.74780E-31
5.99684E-01 1.68114E-31
6.03956E-01 1.61535E-31
6.08220E-01 1.55053E-31
6.12476E-01 1.48678E-31
6.16723E-01 1.42418E-31
6.20961E-01 1.36283E-31
6.25190E-01 1.30279E-31
6.29410E-01 1.24413E-31
6.33619E-01 1.18693E-31
6.37819E-01 1.13122E-31
6.42008E-01 1.07705E-31
6.46186E-01 1.02447E-31
6.50353E-01 9.73498E-32
6.54508E-01 9.24162E-32
6.58652E-01 8.76477E-32
6.62784E-01 8.30452E-32
6.66903E-01 7.86091E-32
6.71010E-01 7.43392E-32
6.75104E-01 7.02347E-32
6.79184E-01 6.62944E-32
6.83251E-01 6.25165E-32
6.87303E-01 5.88989E-32
6.91342E-01 5.54390E-32
6.95366E-01 5.21341E-32
6.99375E-01 4.89810E-32
7.03368E-01 4.59763E-32
7.07347E-01 4.31164E-32
7.11309E-01 4.03974E-32
7.15256E-01 3.78153E-32
7.19186E-01 3.53661E-32
7.23099E-01 3.30455E-32
7.26995E-01 3.08493E-32
7.30874E-01 2.87729E-32
7.34736E-01 2.68122E-32
7.38579E-01 2.49625E-32
7.42405E-01 2.32197E-32
7.46212E-01 2.15792E-32
7.50000E-01 2.00367E-32
7.53769E-01 1.85880E-32
7.57519E-01 1.72288E-32
7.61249E-01 1.59550E-32
7.64960E-01 1.47624E-32
7.68650E-01 1.36472E-32
7.72320E-01 1.26054E-32
7.75968E-01 1.16334E-32
7.79596E-01 1.07273E-32
7.83203E-01 9.88372E-33
7.86788E-01 9.09918E-33
7.90351E-01 8.37039E-33
7.93893E-01 7.69414E-33
7.97411E-01 7.06739E-33
8.00908E-01 6.48717E-33
8.04381E-01 5.95068E-33
8.07831E-01 5.45521E-33
8.11257E-01 4.99818E-33
8.14660E-01 4.57712E-33
8.18039E-01 4.18969E-33
8.21394E-01 3.83366E-33
8.24724E-01 3.50690E-33
8.28030E-01 3.20741E-33
8.31310E-01 2.93326E-33
8.34565E-01 2.68267E-33
8.37795E-01 2.45391E-33
8.40999E-01 2.24539E-33
8.44177E-01 2.05558E-33
8.47329E-01 1.88305E-33
8.50455E-01 1.72647E-33
8.53553E-01 1.58457E-33
8.56625E-01 1.45617E-33
8.59670E-01 1.34016E-33
8.62687E-01 1.23550E-33
8.65677E-01 1.14124E-33
8.68639E-01 1.05646E-33
8.71572E-01 9.80334E-34
8.74478E-01 9.12072E-34
8.77355E-01 8.50949E-34
8.80203E-01 7.96298E-34
8.83022E-01 7.47491E-34
8.85812E-01 7.03954E-34
8.88573E-01 6.65157E-34
8.91304E-01 6.30611E-34
8.94005E-01 5.99862E-34
8.96677E-01 5.72497E-34
8.99318E-01 5.48139E-34
9.01928E-01 5.26440E-34
9.04508E-01 5.07083E-34
9.07058E-01 4.89780E-34
9.09576E-01 4.74271E-34
9.12063E-01 4.60313E-34
9.14519E-01 4.47696E-34
9.16943E-01 4.36224E-34
9.19335E-01 4.25722E-34
9.21696E-01 4.16039E-34
9.24024E-01 4.07030E-34
9.26320E-01 3.98574E-34
9.28584E-01 3.90560E-34
9.30815E-01 3.82895E-34
9.33013E-01 3.75490E-34
9.35178E-01 3.68276E-34
9.37310E-01 3.61184E-34
9.39409E-01 3.54166E-34
9.41474E-01 3.47172E-34
9.43505E-01 3.40165E-34
9.45503E-01 3.33114E-34
9.47467E-01 3.25991E-34
9.49397E-01 3.18782E-34
9.51293E-01 3.11468E-34
9.53154E-01 3.04043E-34
9.54981E-01 2.96493E-34
9.56773E-01 2.88824E-34
9.58530E-01 2.81032E-34
9.60252E-01 2.73122E-34
9.61940E-01 2.65099E-34
9.63592E-01 2.56971E-34
9.65209E-01 2.48747E-34
9.66790E-01 2.40438E-34
9.68336E-01 2.32058E-34
9.69846E-01 2.23620E-34
9.71321E-01 2.15136E-34
9.72759E-01 2.06624E-34
9.74162E-01 1.98097E-34
9.75528E-01 1.89573E-34
9.76858E-01 1.81067E-34
9.78152E-01 1.72596E-34
9.79410E-01 1.64174E-34
9.80631E-01 1.55821E-34
9.81815E-01 1.47548E-34
9.82963E-01 1.39376E-34
9.84074E-01 1.31316E-34
9.85148E-01 1.23387E-34
9.86185E-01 1.15601E-34
9.87185E-01 1.07974E-34
9.88148E-01 1.00520E-34
9.89074E-01 9.32504E-35
9.89962E-01 8.61804E-35
9.90814E-01 7.93211E-35
9.91627E-01 7.26855E-35
9.92404E-01 6.62842E-35
9.93143E-01 6.01266E-35
9.93844E-01 5.42267E-35
9.94508E-01 4.85911E-35
9.95134E-01 4.32290E-35
9.95722E-01 3.81509E-35
9.96273E-01 3.33627E-35
9.96786E-01 2.88732E-35
9.97261E-01 2.46889E-35
9.97698E-01 2.08162E-35
9.98097E-01 1.72604E-35
9.98459E-01 1.40284E-35
9.98782E-01 1.11230E-35
9.99067E-01 8.55054E-36
9.99315E-01 6.31227E-36
9.99524E-01 4.41397E-36
9.99695E-01 2.85658E-36
9.99829E-01 1.64266E-36
9.99924E-01 7.74847E-37
9.99981E-01 2.53548E-37
1.00000E+00 7.95795E-38
