 #
 # Subroutine ELSEPA. Elastic scattering of electrons and positrons
 #                    by neutral atoms and positive ions
 #
 # Projectile: electron
 # Kinetic energy = 3.00000E+08 eV = 1.10248E+07 a.u.
 #
 # WARNING: High-energy factorization with free-atom DF screening.
 #          Absorption, polarization and exchange corrections are
 #          switched off.
 #          Phase shifts are calculated for the bare nucleus.
 #          Scattering amplitudes are not evaluated.
 #
 # Element: Ne,  Z =  10,  atomic weight = 2.01797E+01 g/mol
 #
 # Nuclear model: Fermi distribution
 #                Average radius = 2.91310E-13 cm
 #                Skin thickness = 5.46000E-14 cm
 #
 # Number of electrons = 10
 #
 # Total elastic cross section = 2.93165E-19 cm**2 = 1.04691E-02 a0**2
 # 1st transport cross section = 2.44032E-27 cm**2 = 8.71455E-11 a0**2
 # 2nd transport cross section = 7.30698E-27 cm**2 = 2.60937E-10 a0**2
 #
 #
 # Differential cross section:                       MU=(1-COS(THETA))/2
 #
 #  THETA        MU          DCS          DCS        Sherman      error
 #  (deg)                 (cm**2/sr)   (a0**2/sr)    function
 #----------------------------------------------------------------------
0.00000E+00 9.40275E-11
7.61557E-13 9.34925E-11
1.18994E-12 9.31946E-11
1.71346E-12 9.28327E-11
2.33225E-12 9.24076E-11
3.04617E-12 9.19208E-11
3.85530E-12 9.13737E-11
4.75964E-12 9.07674E-11
5.75917E-12 9.01040E-11
6.85391E-12 8.93855E-11
8.04379E-12 8.86139E-11
9.32893E-12 8.77914E-11
1.07092E-11 8.69203E-11
1.21847E-11 8.60030E-11
1.37554E-11 8.50419E-11
1.54213E-11 8.40391E-11
1.71823E-11 8.29871E-11
1.90386E-11 8.17992E-11
2.09900E-11 8.06386E-11
2.30367E-11 7.95086E-11
2.51785E-11 7.84116E-11
2.74156E-11 7.72450E-11
2.97478E-11 7.59216E-11
3.21752E-11 7.46478E-11
3.46979E-11 7.34239E-11
3.73157E-11 7.22496E-11
4.00286E-11 7.09312E-11
4.28368E-11 6.95501E-11
4.57402E-11 6.82319E-11
4.87388E-11 6.69745E-11
5.18325E-11 6.57757E-11
5.50215E-11 6.43671E-11
5.83057E-11 6.29917E-11
6.16850E-11 6.16845E-11
6.51595E-11 6.04423E-11
6.87293E-11 5.92207E-11
7.23943E-11 5.78256E-11
7.61544E-11 5.65025E-11
1.18991E-10 4.44509E-11
1.71347E-10 3.42606E-11
2.33223E-10 2.60983E-11
3.04617E-10 1.97700E-11
3.85531E-10 1.49600E-11
4.75965E-10 1.13484E-11
5.75917E-10 8.66349E-12
6.85389E-10 6.66590E-12
8.04380E-10 5.17123E-12
9.32891E-10 4.04594E-12
1.07092E-09 3.19475E-12
1.21847E-09 2.54763E-12
1.37554E-09 2.05148E-12
1.54213E-09 1.66665E-12
1.71823E-09 1.36468E-12
1.90386E-09 1.12677E-12
2.09900E-09 9.39095E-13
2.30367E-09 7.87968E-13
2.51785E-09 6.66305E-13
2.74156E-09 5.67059E-13
2.97478E-09 4.85785E-13
3.21752E-09 4.18617E-13
3.46978E-09 3.62788E-13
3.73156E-09 3.16064E-13
4.00286E-09 2.76715E-13
4.28368E-09 2.43398E-13
4.57402E-09 2.15011E-13
4.87388E-09 1.90723E-13
5.18326E-09 1.69809E-13
5.50215E-09 1.51748E-13
5.83057E-09 1.36045E-13
6.16850E-09 1.22372E-13
6.51596E-09 1.10383E-13
6.87293E-09 9.98631E-14
7.23942E-09 9.05729E-14
7.61544E-09 8.23617E-14
1.18991E-08 3.55950E-14
1.71347E-08 1.78469E-14
2.33223E-08 9.89651E-15
3.04617E-08 5.90857E-15
3.85531E-08 3.73546E-15
4.75965E-08 2.47236E-15
5.75917E-08 1.69907E-15
6.85389E-08 1.20494E-15
8.04380E-08 8.77614E-16
9.32891E-08 6.54018E-16
1.07092E-07 4.97167E-16
1.21847E-07 3.84565E-16
1.37554E-07 3.02067E-16
1.54213E-07 2.40524E-16
1.71823E-07 1.93869E-16
1.90386E-07 1.57988E-16
2.09900E-07 1.30030E-16
2.30367E-07 1.07988E-16
2.51785E-07 9.04215E-17
2.74156E-07 7.62845E-17
2.97478E-07 6.48042E-17
3.21752E-07 5.54036E-17
3.46978E-07 4.76469E-17
3.73156E-07 4.12009E-17
4.00286E-07 3.58088E-17
4.28368E-07 3.12704E-17
4.57402E-07 2.74286E-17
4.87388E-07 2.41590E-17
5.18325E-07 2.13623E-17
5.50215E-07 1.89587E-17
5.83057E-07 1.68839E-17
6.16850E-07 1.50852E-17
6.51596E-07 1.35198E-17
6.87293E-07 1.21522E-17
7.23942E-07 1.09533E-17
7.61543E-07 9.89863E-18
1.18991E-06 4.05485E-18
1.71347E-06 1.95560E-18
2.33223E-06 1.05565E-18
3.04617E-06 6.18837E-19
3.85531E-06 3.86358E-19
4.75964E-06 2.53503E-19
5.75916E-06 1.73155E-19
6.85388E-06 1.22265E-19
8.04378E-06 8.87722E-20
9.32888E-06 6.60025E-20
1.07092E-05 5.00876E-20
1.21846E-05 3.86934E-20
1.37553E-05 3.03629E-20
1.54212E-05 2.41586E-20
1.71822E-05 1.94612E-20
1.90385E-05 1.58516E-20
2.09899E-05 1.30420E-20
2.30365E-05 1.08282E-20
2.51783E-05 9.06481E-21
2.74153E-05 7.64618E-21
2.97475E-05 6.49453E-21
3.21749E-05 5.55178E-21
3.46974E-05 4.77407E-21
3.73152E-05 4.12793E-21
4.00281E-05 3.58753E-21
4.28362E-05 3.13275E-21
4.57395E-05 2.74781E-21
4.87380E-05 2.42022E-21
5.18317E-05 2.14004E-21
5.50205E-05 1.89925E-21
5.83045E-05 1.69139E-21
6.16838E-05 1.51122E-21
6.51582E-05 1.35441E-21
6.87277E-05 1.21743E-21
7.23925E-05 1.09734E-21
7.61524E-05 9.89686E-22
9.21439E-05 6.75799E-22
1.09658E-04 4.77016E-22
1.28695E-04 3.46208E-22
1.49255E-04 2.57293E-22
1.71338E-04 1.95159E-22
1.94942E-04 1.50683E-22
2.20070E-04 1.18173E-22
2.46720E-04 9.39674E-23
2.74892E-04 7.56457E-23
3.04586E-04 6.15730E-23
3.35803E-04 5.06203E-23
3.68542E-04 4.19936E-23
4.02802E-04 3.51248E-23
4.38585E-04 2.96013E-23
4.75889E-04 2.51193E-23
5.14715E-04 2.14519E-23
5.55063E-04 1.84279E-23
5.96931E-04 1.59165E-23
6.40321E-04 1.38172E-23
6.85233E-04 1.20514E-23
7.31665E-04 1.05576E-23
7.79618E-04 9.28718E-24
8.29092E-04 8.20122E-24
8.80086E-04 7.26856E-24
9.32601E-04 6.46401E-24
9.86636E-04 5.76706E-24
1.04219E-03 5.16092E-24
1.09927E-03 4.63180E-24
1.15786E-03 4.16826E-24
1.21797E-03 3.76082E-24
1.27961E-03 3.40155E-24
1.34276E-03 3.08378E-24
1.40743E-03 2.80192E-24
1.47362E-03 2.55122E-24
1.54133E-03 2.32765E-24
1.61056E-03 2.12777E-24
1.68131E-03 1.94864E-24
1.75357E-03 1.78775E-24
1.82735E-03 1.64292E-24
1.90265E-03 1.51226E-24
1.97947E-03 1.39417E-24
2.05780E-03 1.28721E-24
2.13765E-03 1.19016E-24
2.21902E-03 1.10195E-24
2.30190E-03 1.02163E-24
2.38630E-03 9.48373E-25
2.47222E-03 8.81452E-25
2.55965E-03 8.20224E-25
2.64859E-03 7.64123E-25
2.73905E-03 7.12644E-25
2.83103E-03 6.65341E-25
2.92452E-03 6.21818E-25
3.01952E-03 5.81720E-25
3.11604E-03 5.44731E-25
3.21407E-03 5.10569E-25
3.31362E-03 4.78980E-25
3.41468E-03 4.49738E-25
3.51725E-03 4.22638E-25
3.62133E-03 3.97496E-25
3.72692E-03 3.74147E-25
3.83403E-03 3.52441E-25
3.94265E-03 3.32242E-25
4.05278E-03 3.13428E-25
4.16442E-03 2.95888E-25
4.27757E-03 2.79521E-25
4.39223E-03 2.64234E-25
4.50840E-03 2.49945E-25
4.62608E-03 2.36578E-25
4.74527E-03 2.24062E-25
4.86597E-03 2.12334E-25
4.98817E-03 2.01337E-25
5.11188E-03 1.91017E-25
5.23711E-03 1.81326E-25
5.36383E-03 1.72218E-25
5.49207E-03 1.63653E-25
5.62181E-03 1.55593E-25
5.75306E-03 1.48003E-25
5.88581E-03 1.40851E-25
6.02007E-03 1.34107E-25
6.15583E-03 1.27746E-25
6.29310E-03 1.21740E-25
6.43187E-03 1.16067E-25
6.57214E-03 1.10706E-25
6.71392E-03 1.05637E-25
6.85720E-03 1.00841E-25
7.00198E-03 9.63002E-26
7.14827E-03 9.19999E-26
7.29605E-03 8.79250E-26
7.44534E-03 8.40617E-26
7.59612E-03 8.03972E-26
7.97965E-03 7.20299E-26
8.37255E-03 6.46685E-26
8.77480E-03 5.81744E-26
9.18641E-03 5.24307E-26
9.60736E-03 4.73381E-26
1.00376E-02 4.28123E-26
1.04773E-02 3.87812E-26
1.09262E-02 3.51831E-26
1.13844E-02 3.19651E-26
1.18520E-02 2.90814E-26
1.23288E-02 2.64926E-26
1.28150E-02 2.41643E-26
1.33104E-02 2.20669E-26
1.38150E-02 2.01744E-26
1.43290E-02 1.84641E-26
1.48521E-02 1.69163E-26
1.53845E-02 1.55135E-26
1.59262E-02 1.42404E-26
1.64770E-02 1.30835E-26
1.70371E-02 1.20309E-26
1.76063E-02 1.10720E-26
1.81848E-02 1.01976E-26
1.87724E-02 9.39920E-27
1.93692E-02 8.66952E-27
1.99751E-02 8.00195E-27
2.05901E-02 7.39061E-27
2.12143E-02 6.83023E-27
2.18476E-02 6.31611E-27
2.24900E-02 5.84401E-27
2.31415E-02 5.41014E-27
2.38021E-02 5.01109E-27
2.44717E-02 4.64378E-27
2.51504E-02 4.30543E-27
2.58382E-02 3.99354E-27
2.65349E-02 3.70584E-27
2.72407E-02 3.44029E-27
2.79555E-02 3.19501E-27
2.86793E-02 2.96834E-27
2.94120E-02 2.75873E-27
3.01537E-02 2.56479E-27
3.09043E-02 2.38525E-27
3.16639E-02 2.21896E-27
3.24324E-02 2.06486E-27
3.32098E-02 1.92199E-27
3.39961E-02 1.78947E-27
3.47912E-02 1.66650E-27
3.55952E-02 1.55234E-27
3.64081E-02 1.44632E-27
3.72297E-02 1.34782E-27
3.80602E-02 1.25626E-27
3.88995E-02 1.17114E-27
3.97476E-02 1.09198E-27
4.06044E-02 1.01832E-27
4.14700E-02 9.49770E-28
4.23443E-02 8.85956E-28
4.32273E-02 8.26531E-28
4.41190E-02 7.71180E-28
4.50194E-02 7.19611E-28
4.59284E-02 6.71552E-28
4.68461E-02 6.26755E-28
4.87074E-02 5.46041E-28
5.06030E-02 4.75826E-28
5.25328E-02 4.14699E-28
5.44967E-02 3.61452E-28
5.64946E-02 3.15043E-28
5.85262E-02 2.74575E-28
6.05914E-02 2.39275E-28
6.26901E-02 2.08472E-28
6.48222E-02 1.81588E-28
6.69873E-02 1.58119E-28
6.91854E-02 1.37631E-28
7.14163E-02 1.19743E-28
7.36799E-02 1.04126E-28
7.59760E-02 9.04938E-29
7.83043E-02 7.85955E-29
8.06647E-02 6.82130E-29
8.30571E-02 5.91559E-29
8.54812E-02 5.12577E-29
8.79369E-02 4.43731E-29
9.04240E-02 3.83750E-29
9.29422E-02 3.31520E-29
9.54915E-02 2.86068E-29
9.80716E-02 2.46542E-29
1.00682E-01 2.12195E-29
1.03323E-01 1.82373E-29
1.05995E-01 1.56503E-29
1.08696E-01 1.34085E-29
1.11427E-01 1.14678E-29
1.14188E-01 9.78972E-30
1.16978E-01 8.34054E-30
1.19797E-01 7.09072E-30
1.22645E-01 6.01442E-30
1.25522E-01 5.08898E-30
1.28428E-01 4.29461E-30
1.31361E-01 3.61400E-30
1.34323E-01 3.03199E-30
1.37313E-01 2.53536E-30
1.40330E-01 2.11256E-30
1.43375E-01 1.75352E-30
1.46447E-01 1.44944E-30
1.49545E-01 1.19269E-30
1.52671E-01 9.76590E-31
1.55823E-01 7.95360E-31
1.59001E-01 6.43968E-31
1.62205E-01 5.18055E-31
1.65435E-01 4.13841E-31
1.68690E-01 3.28059E-31
1.71970E-01 2.57885E-31
1.75276E-01 2.00885E-31
1.78606E-01 1.54964E-31
1.81961E-01 1.18324E-31
1.85340E-01 8.94197E-32
1.88743E-01 6.69337E-32
1.92169E-01 4.97402E-32
1.95619E-01 3.68821E-32
1.99092E-01 2.75476E-32
2.02589E-01 2.10511E-32
2.06107E-01 1.68151E-32
2.09649E-01 1.43557E-32
2.13212E-01 1.32692E-32
2.16797E-01 1.32208E-32
2.20404E-01 1.39344E-32
2.24032E-01 1.51842E-32
2.27680E-01 1.67868E-32
2.31350E-01 1.85951E-32
2.35040E-01 2.04924E-32
2.38751E-01 2.23877E-32
2.42481E-01 2.42113E-32
2.46231E-01 2.59114E-32
2.50000E-01 2.74509E-32
2.53788E-01 2.88047E-32
2.57595E-01 2.99576E-32
2.61421E-01 3.09024E-32
2.65264E-01 3.16378E-32
2.69126E-01 3.21679E-32
2.73005E-01 3.25002E-32
2.76901E-01 3.26451E-32
2.80814E-01 3.26151E-32
2.84744E-01 3.24239E-32
2.88691E-01 3.20861E-32
2.92653E-01 3.16166E-32
2.96632E-01 3.10304E-32
3.00625E-01 3.03422E-32
3.04634E-01 2.95662E-32
3.08658E-01 2.87160E-32
3.12697E-01 2.78045E-32
3.16749E-01 2.68436E-32
3.20816E-01 2.58447E-32
3.24896E-01 2.48178E-32
3.28990E-01 2.37725E-32
3.33097E-01 2.27171E-32
3.37216E-01 2.16592E-32
3.41348E-01 2.06056E-32
3.45492E-01 1.95622E-32
3.49647E-01 1.85342E-32
3.53814E-01 1.75260E-32
3.57992E-01 1.65415E-32
3.62181E-01 1.55837E-32
3.66381E-01 1.46553E-32
3.70590E-01 1.37585E-32
3.74810E-01 1.28947E-32
3.79039E-01 1.20653E-32
3.83277E-01 1.12710E-32
3.87524E-01 1.05123E-32
3.91780E-01 9.78938E-33
3.96044E-01 9.10219E-33
4.00316E-01 8.45041E-33
4.04596E-01 7.83354E-33
4.08882E-01 7.25089E-33
4.13176E-01 6.70168E-33
4.17476E-01 6.18496E-33
4.21783E-01 5.69972E-33
4.26095E-01 5.24485E-33
4.30413E-01 4.81922E-33
4.34737E-01 4.42161E-33
4.39065E-01 4.05081E-33
4.43398E-01 3.70559E-33
4.47736E-01 3.38469E-33
4.52077E-01 3.08690E-33
4.56422E-01 2.81097E-33
4.60770E-01 2.55571E-33
4.65122E-01 2.31994E-33
4.69476E-01 2.10251E-33
4.73832E-01 1.90230E-33
4.78190E-01 1.71825E-33
4.82550E-01 1.54931E-33
4.86912E-01 1.39448E-33
4.91274E-01 1.25282E-33
4.95637E-01 1.12341E-33
5.00000E-01 1.00538E-33
5.04363E-01 8.97925E-34
5.08726E-01 8.00249E-34
5.13088E-01 7.11623E-34
5.17450E-01 6.31351E-34
5.21810E-01 5.58777E-34
5.26168E-01 4.93291E-34
5.30524E-01 4.34314E-34
5.34878E-01 3.81308E-34
5.39230E-01 3.33770E-34
5.43578E-01 2.91232E-34
5.47923E-01 2.53256E-34
5.52264E-01 2.19437E-34
5.56602E-01 1.89398E-34
5.60935E-01 1.62791E-34
5.65263E-01 1.39295E-34
5.69587E-01 1.18611E-34
5.73905E-01 1.00466E-34
5.78217E-01 8.46073E-35
5.82524E-01 7.08041E-35
5.86824E-01 5.88443E-35
5.91118E-01 4.85342E-35
5.95404E-01 3.96953E-35
5.99684E-01 3.21663E-35
6.03956E-01 2.57999E-35
6.08220E-01 2.04621E-35
6.12476E-01 1.60312E-35
6.16723E-01 1.23974E-35
6.20961E-01 9.46128E-36
6.25190E-01 7.13323E-36
6.29410E-01 5.33251E-36
6.33619E-01 3.98679E-36
6.37819E-01 3.03114E-36
6.42008E-01 2.40765E-36
6.46186E-01 2.06486E-36
6.50353E-01 1.95663E-36
6.54508E-01 2.04240E-36
6.58652E-01 2.28654E-36
6.62784E-01 2.65738E-36
6.66903E-01 3.12707E-36
6.71010E-01 3.67205E-36
6.75104E-01 4.27097E-36
6.79184E-01 4.90598E-36
6.83251E-01 5.56153E-36
6.87303E-01 6.22463E-36
6.91342E-01 6.88372E-36
6.95366E-01 7.52952E-36
6.99375E-01 8.15530E-36
7.03368E-01 8.75347E-36
7.07347E-01 9.32026E-36
7.11309E-01 9.85087E-36
7.15256E-01 1.03430E-35
7.19186E-01 1.07944E-35
7.23099E-01 1.12035E-35
7.26995E-01 1.15702E-35
7.30874E-01 1.18939E-35
7.34736E-01 1.21750E-35
7.38579E-01 1.24141E-35
7.42405E-01 1.26127E-35
7.46212E-01 1.27715E-35
7.50000E-01 1.28921E-35
7.53769E-01 1.29763E-35
7.57519E-01 1.30258E-35
7.61249E-01 1.30426E-35
7.64960E-01 1.30284E-35
7.68650E-01 1.29853E-35
7.72320E-01 1.29157E-35
7.75968E-01 1.28209E-35
7.79596E-01 1.27034E-35
7.83203E-01 1.25643E-35
7.86788E-01 1.24063E-35
7.90351E-01 1.22309E-35
7.93893E-01 1.20398E-35
7.97411E-01 1.18346E-35
8.00908E-01 1.16174E-35
8.04381E-01 1.13894E-35
8.07831E-01 1.11521E-35
8.11257E-01 1.09067E-35
8.14660E-01 1.06544E-35
8.18039E-01 1.03968E-35
8.21394E-01 1.01350E-35
8.24724E-01 9.86994E-36
8.28030E-01 9.60270E-36
8.31310E-01 9.33416E-36
8.34565E-01 9.06477E-36
8.37795E-01 8.79566E-36
8.40999E-01 8.52773E-36
8.44177E-01 8.26141E-36
8.47329E-01 7.99733E-36
8.50455E-01 7.73598E-36
8.53553E-01 7.47757E-36
8.56625E-01 7.22298E-36
8.59670E-01 6.97220E-36
8.62687E-01 6.72594E-36
8.65677E-01 6.48413E-36
8.68639E-01 6.24711E-36
8.71572E-01 6.01529E-36
8.74478E-01 5.78855E-36
8.77355E-01 5.56712E-36
8.80203E-01 5.35131E-36
8.83022E-01 5.14099E-36
8.85812E-01 4.93613E-36
8.88573E-01 4.73702E-36
8.91304E-01 4.54384E-36
8.94005E-01 4.35604E-36
8.96677E-01 4.17407E-36
8.99318E-01 3.99777E-36
9.01928E-01 3.82694E-36
9.04508E-01 3.66174E-36
9.07058E-01 3.50201E-36
9.09576E-01 3.34747E-36
9.12063E-01 3.19849E-36
9.14519E-01 3.05456E-36
9.16943E-01 2.91564E-36
9.19335E-01 2.78190E-36
9.21696E-01 2.65295E-36
9.24024E-01 2.52877E-36
9.26320E-01 2.40932E-36
9.28584E-01 2.29453E-36
9.30815E-01 2.18396E-36
9.33013E-01 2.07780E-36
9.35178E-01 1.97580E-36
9.37310E-01 1.87790E-36
9.39409E-01 1.78388E-36
9.41474E-01 1.69377E-36
9.43505E-01 1.60719E-36
9.45503E-01 1.52423E-36
9.47467E-01 1.44501E-36
9.49397E-01 1.36875E-36
9.51293E-01 1.29596E-36
9.53154E-01 1.22622E-36
9.54981E-01 1.15953E-36
9.56773E-01 1.09565E-36
9.58530E-01 1.03473E-36
9.60252E-01 9.76387E-37
9.61940E-01 9.20661E-37
9.63592E-01 8.67428E-37
9.65209E-01 8.16619E-37
9.66790E-01 7.68160E-37
9.68336E-01 7.21793E-37
9.69846E-01 6.77731E-37
9.71321E-01 6.35582E-37
9.72759E-01 5.95580E-37
9.74162E-01 5.57296E-37
9.75528E-01 5.20929E-37
9.76858E-01 4.86379E-37
9.78152E-01 4.53371E-37
9.79410E-01 4.22065E-37
9.80631E-01 3.92284E-37
9.81815E-01 3.64040E-37
9.82963E-01 3.37182E-37
9.84074E-01 3.11764E-37
9.85148E-01 2.87604E-37
9.86185E-01 2.64809E-37
9.87185E-01 2.43155E-37
9.88148E-01 2.22655E-37
9.89074E-01 2.03369E-37
9.89962E-01 1.85115E-37
9.90814E-01 1.67913E-37
9.91627E-01 1.51753E-37
9.92404E-01 1.36614E-37
9.93143E-01 1.22363E-37
9.93844E-01 1.09079E-37
9.94508E-01 9.66611E-38
9.95134E-01 8.50761E-38
9.95722E-01 7.43154E-38
9.96273E-01 6.43883E-38
9.96786E-01 5.52067E-38
9.97261E-01 4.68562E-38
9.97698E-01 3.91888E-38
9.98097E-01 3.22463E-38
9.98459E-01 2.60123E-38
9.98782E-01 2.05415E-38
9.99067E-01 1.56737E-38
9.99315E-01 1.14929E-38
9.99524E-01 7.97955E-39
9.99695E-01 5.10171E-39
9.99829E-01 2.90244E-39
9.99924E-01 1.30219E-39
9.99981E-01 3.64277E-40
1.00000E+00 4.10774E-41
