 #
 # Subroutine ELSEPA. Elastic scattering of electrons and positrons
 #                    by neutral atoms and positive ions
 #
 # Projectile: electron
 # Kinetic energy = 2.50000E+06 eV = 9.18733E+04 a.u.
 #
 # WARNING: High-energy factorization with free-atom DF screening.
 #          Absorption, polarization and exchange corrections are
 #          switched off.
 #          Phase shifts are calculated for the bare nucleus.
 #          Scattering amplitudes are not evaluated.
 #
 # Element: Ne,  Z =  10,  atomic weight = 2.01797E+01 g/mol
 #
 # Nuclear model: Fermi distribution
 #                Average radius = 2.91310E-13 cm
 #                Skin thickness = 5.46000E-14 cm
 #
 # Number of electrons = 10
 #
 # Total elastic cross section = 3.01990E-19 cm**2 = 1.07843E-02 a0**2
 # 1st transport cross section = 1.65988E-23 cm**2 = 5.92753E-07 a0**2
 # 2nd transport cross section = 4.72524E-23 cm**2 = 1.68741E-06 a0**2
 #
 #
 # Differential cross section:                       MU=(1-COS(THETA))/2
 #
 #  THETA        MU          DCS          DCS        Sherman      error
 #  (deg)                 (cm**2/sr)   (a0**2/sr)    function
 #----------------------------------------------------------------------
0.00000E+00 9.43963E-15
7.61557E-13 9.43963E-15
1.18994E-12 9.43962E-15
1.71346E-12 9.43962E-15
2.33225E-12 9.43961E-15
3.04617E-12 9.43961E-15
3.85530E-12 9.43960E-15
4.75964E-12 9.43960E-15
5.75917E-12 9.43959E-15
6.85391E-12 9.43958E-15
8.04379E-12 9.43957E-15
9.32893E-12 9.43956E-15
1.07092E-11 9.43955E-15
1.21847E-11 9.43954E-15
1.37554E-11 9.43953E-15
1.54213E-11 9.43952E-15
1.71823E-11 9.43951E-15
1.90386E-11 9.43949E-15
2.09900E-11 9.43948E-15
2.30367E-11 9.43947E-15
2.51785E-11 9.43945E-15
2.74156E-11 9.43943E-15
2.97478E-11 9.43942E-15
3.21752E-11 9.43940E-15
3.46979E-11 9.43938E-15
3.73157E-11 9.43937E-15
4.00286E-11 9.43935E-15
4.28368E-11 9.43933E-15
4.57402E-11 9.43931E-15
4.87388E-11 9.43929E-15
5.18325E-11 9.43926E-15
5.50215E-11 9.43924E-15
5.83057E-11 9.43922E-15
6.16850E-11 9.43919E-15
6.51595E-11 9.43917E-15
6.87293E-11 9.43914E-15
7.23943E-11 9.43912E-15
7.61544E-11 9.43909E-15
1.18991E-10 9.43880E-15
1.71347E-10 9.43843E-15
2.33223E-10 9.43800E-15
3.04617E-10 9.43751E-15
3.85531E-10 9.43695E-15
4.75965E-10 9.43633E-15
5.75917E-10 9.43564E-15
6.85389E-10 9.43488E-15
8.04380E-10 9.43406E-15
9.32891E-10 9.43318E-15
1.07092E-09 9.43223E-15
1.21847E-09 9.43121E-15
1.37554E-09 9.43013E-15
1.54213E-09 9.42899E-15
1.71823E-09 9.42778E-15
1.90386E-09 9.42650E-15
2.09900E-09 9.42516E-15
2.30367E-09 9.42376E-15
2.51785E-09 9.42229E-15
2.74156E-09 9.42076E-15
2.97478E-09 9.41916E-15
3.21752E-09 9.41749E-15
3.46978E-09 9.41576E-15
3.73156E-09 9.41397E-15
4.00286E-09 9.41212E-15
4.28368E-09 9.41019E-15
4.57402E-09 9.40821E-15
4.87388E-09 9.40616E-15
5.18326E-09 9.40405E-15
5.50215E-09 9.40187E-15
5.83057E-09 9.39962E-15
6.16850E-09 9.39731E-15
6.51596E-09 9.39494E-15
6.87293E-09 9.39251E-15
7.23942E-09 9.39001E-15
7.61544E-09 9.38744E-15
1.18991E-08 9.35832E-15
1.71347E-08 9.32291E-15
2.33223E-08 9.28132E-15
3.04617E-08 9.23367E-15
3.85531E-08 9.18009E-15
4.75965E-08 9.12075E-15
5.75917E-08 9.05581E-15
6.85389E-08 8.98543E-15
8.04380E-08 8.90978E-15
9.32891E-08 8.82910E-15
1.07092E-07 8.74362E-15
1.21847E-07 8.65355E-15
1.37554E-07 8.55914E-15
1.54213E-07 8.46062E-15
1.71823E-07 8.35825E-15
1.90386E-07 8.24254E-15
2.09900E-07 8.12679E-15
2.30367E-07 8.01396E-15
2.51785E-07 7.90429E-15
2.74156E-07 7.79676E-15
2.97478E-07 7.66409E-15
3.21752E-07 7.53626E-15
3.46978E-07 7.41331E-15
3.73156E-07 7.29522E-15
4.00286E-07 7.17410E-15
4.28368E-07 7.03485E-15
4.57402E-07 6.90182E-15
4.87388E-07 6.77483E-15
5.18325E-07 6.65366E-15
5.50215E-07 6.52423E-15
5.83057E-07 6.38485E-15
6.16850E-07 6.25230E-15
6.51596E-07 6.12626E-15
6.87293E-07 6.00639E-15
7.23942E-07 5.87409E-15
7.61543E-07 5.73944E-15
1.18991E-06 4.53471E-15
1.71347E-06 3.50965E-15
2.33223E-06 2.68398E-15
3.04617E-06 2.04057E-15
3.85531E-06 1.54949E-15
4.75964E-06 1.17971E-15
5.75916E-06 9.03221E-16
6.85388E-06 6.96513E-16
8.04378E-06 5.41309E-16
9.32888E-06 4.24170E-16
1.07092E-05 3.35338E-16
1.21846E-05 2.67659E-16
1.37553E-05 2.15702E-16
1.54212E-05 1.75381E-16
1.71822E-05 1.43735E-16
1.90385E-05 1.18699E-16
2.09899E-05 9.89692E-17
2.30365E-05 8.30578E-17
2.51783E-05 7.02597E-17
2.74153E-05 5.97917E-17
2.97475E-05 5.12321E-17
3.21749E-05 4.41457E-17
3.46974E-05 3.82624E-17
3.73152E-05 3.33325E-17
4.00281E-05 2.91849E-17
4.28362E-05 2.56694E-17
4.57395E-05 2.26770E-17
4.87380E-05 2.01140E-17
5.18317E-05 1.79094E-17
5.50205E-05 1.60034E-17
5.83045E-05 1.43484E-17
6.16838E-05 1.29055E-17
6.51582E-05 1.16421E-17
6.87277E-05 1.05323E-17
7.23925E-05 9.55312E-18
7.61524E-05 8.68734E-18
9.21439E-05 6.07494E-18
1.09658E-04 4.38101E-18
1.28695E-04 3.24084E-18
1.49255E-04 2.44933E-18
1.71338E-04 1.88539E-18
1.94942E-04 1.47456E-18
2.20070E-04 1.16947E-18
2.46720E-04 9.39084E-19
2.74892E-04 7.62497E-19
3.04586E-04 6.25344E-19
3.35803E-04 5.17540E-19
3.68542E-04 4.31886E-19
4.02802E-04 3.63155E-19
4.38585E-04 3.07501E-19
4.75889E-04 2.62064E-19
5.14715E-04 2.24682E-19
5.55063E-04 1.93707E-19
5.96931E-04 1.67870E-19
6.40321E-04 1.46186E-19
6.85233E-04 1.27880E-19
7.31665E-04 1.12343E-19
7.79618E-04 9.90893E-20
8.29092E-04 8.77282E-20
8.80086E-04 7.79456E-20
9.32601E-04 6.94861E-20
9.86636E-04 6.21414E-20
1.04219E-03 5.57401E-20
1.09927E-03 5.01408E-20
1.15786E-03 4.52262E-20
1.21797E-03 4.08983E-20
1.27961E-03 3.70753E-20
1.34276E-03 3.36882E-20
1.40743E-03 3.06789E-20
1.47362E-03 2.79978E-20
1.54133E-03 2.56031E-20
1.61056E-03 2.34588E-20
1.68131E-03 2.15343E-20
1.75357E-03 1.98030E-20
1.82735E-03 1.82421E-20
1.90265E-03 1.68320E-20
1.97947E-03 1.55555E-20
2.05780E-03 1.43977E-20
2.13765E-03 1.33457E-20
2.21902E-03 1.23880E-20
2.30190E-03 1.15147E-20
2.38630E-03 1.07169E-20
2.47222E-03 9.98712E-21
2.55965E-03 9.31840E-21
2.64859E-03 8.70472E-21
2.73905E-03 8.14076E-21
2.83103E-03 7.62174E-21
2.92452E-03 7.14344E-21
3.01952E-03 6.70208E-21
3.11604E-03 6.29431E-21
3.21407E-03 5.91709E-21
3.31362E-03 5.56772E-21
3.41468E-03 5.24377E-21
3.51725E-03 4.94305E-21
3.62133E-03 4.66359E-21
3.72692E-03 4.40361E-21
3.83403E-03 4.16151E-21
3.94265E-03 3.93583E-21
4.05278E-03 3.72525E-21
4.16442E-03 3.52857E-21
4.27757E-03 3.34471E-21
4.39223E-03 3.17268E-21
4.50840E-03 3.01157E-21
4.62608E-03 2.86057E-21
4.74527E-03 2.71892E-21
4.86597E-03 2.58594E-21
4.98817E-03 2.46099E-21
5.11188E-03 2.34351E-21
5.23711E-03 2.23295E-21
5.36383E-03 2.12885E-21
5.49207E-03 2.03074E-21
5.62181E-03 1.93823E-21
5.75306E-03 1.85093E-21
5.88581E-03 1.76849E-21
6.02007E-03 1.69059E-21
6.15583E-03 1.61694E-21
6.29310E-03 1.54726E-21
6.43187E-03 1.48130E-21
6.57214E-03 1.41882E-21
6.71392E-03 1.35960E-21
6.85720E-03 1.30344E-21
7.00198E-03 1.25015E-21
7.14827E-03 1.19956E-21
7.29605E-03 1.15150E-21
7.44534E-03 1.10583E-21
7.59612E-03 1.06241E-21
7.97965E-03 9.62814E-22
8.37255E-03 8.74622E-22
8.77480E-03 7.96308E-22
9.18641E-03 7.26574E-22
9.60736E-03 6.64315E-22
1.00376E-02 6.08589E-22
1.04773E-02 5.58590E-22
1.09262E-02 5.13626E-22
1.13844E-02 4.73100E-22
1.18520E-02 4.36496E-22
1.23288E-02 4.03367E-22
1.28150E-02 3.73325E-22
1.33104E-02 3.46030E-22
1.38150E-02 3.21186E-22
1.43290E-02 2.98534E-22
1.48521E-02 2.77846E-22
1.53845E-02 2.58920E-22
1.59262E-02 2.41579E-22
1.64770E-02 2.25667E-22
1.70371E-02 2.11045E-22
1.76063E-02 1.97588E-22
1.81848E-02 1.85188E-22
1.87724E-02 1.73746E-22
1.93692E-02 1.63174E-22
1.99751E-02 1.53395E-22
2.05901E-02 1.44337E-22
2.12143E-02 1.35939E-22
2.18476E-02 1.28143E-22
2.24900E-02 1.20898E-22
2.31415E-02 1.14158E-22
2.38021E-02 1.07881E-22
2.44717E-02 1.02030E-22
2.51504E-02 9.65701E-23
2.58382E-02 9.14707E-23
2.65349E-02 8.67035E-23
2.72407E-02 8.22429E-23
2.79555E-02 7.80654E-23
2.86793E-02 7.41498E-23
2.94120E-02 7.04766E-23
3.01537E-02 6.70279E-23
3.09043E-02 6.37876E-23
3.16639E-02 6.07407E-23
3.24324E-02 5.78735E-23
3.32098E-02 5.51734E-23
3.39961E-02 5.26289E-23
3.47912E-02 5.02293E-23
3.55952E-02 4.79648E-23
3.64081E-02 4.58264E-23
3.72297E-02 4.38057E-23
3.80602E-02 4.18952E-23
3.88995E-02 4.00875E-23
3.97476E-02 3.83762E-23
4.06044E-02 3.67552E-23
4.14700E-02 3.52187E-23
4.23443E-02 3.37616E-23
4.32273E-02 3.23790E-23
4.41190E-02 3.10664E-23
4.50194E-02 2.98195E-23
4.59284E-02 2.86344E-23
4.68461E-02 2.75075E-23
4.87074E-02 2.54150E-23
5.06030E-02 2.35174E-23
5.25328E-02 2.17933E-23
5.44967E-02 2.02239E-23
5.64946E-02 1.87930E-23
5.85262E-02 1.74862E-23
6.05914E-02 1.62907E-23
6.26901E-02 1.51953E-23
6.48222E-02 1.41902E-23
6.69873E-02 1.32665E-23
6.91854E-02 1.24166E-23
7.14163E-02 1.16333E-23
7.36799E-02 1.09106E-23
7.59760E-02 1.02430E-23
7.83043E-02 9.62539E-24
8.06647E-02 9.05343E-24
8.30571E-02 8.52313E-24
8.54812E-02 8.03088E-24
8.79369E-02 7.57347E-24
9.04240E-02 7.14798E-24
9.29422E-02 6.75177E-24
9.54915E-02 6.38247E-24
9.80716E-02 6.03790E-24
1.00682E-01 5.71612E-24
1.03323E-01 5.41533E-24
1.05995E-01 5.13392E-24
1.08696E-01 4.87042E-24
1.11427E-01 4.62346E-24
1.14188E-01 4.39183E-24
1.16978E-01 4.17439E-24
1.19797E-01 3.97012E-24
1.22645E-01 3.77807E-24
1.25522E-01 3.59739E-24
1.28428E-01 3.42726E-24
1.31361E-01 3.26696E-24
1.34323E-01 3.11583E-24
1.37313E-01 2.97323E-24
1.40330E-01 2.83860E-24
1.43375E-01 2.71141E-24
1.46447E-01 2.59118E-24
1.49545E-01 2.47745E-24
1.52671E-01 2.36980E-24
1.55823E-01 2.26786E-24
1.59001E-01 2.17126E-24
1.62205E-01 2.07968E-24
1.65435E-01 1.99279E-24
1.68690E-01 1.91033E-24
1.71970E-01 1.83202E-24
1.75276E-01 1.75761E-24
1.78606E-01 1.68688E-24
1.81961E-01 1.61960E-24
1.85340E-01 1.55559E-24
1.88743E-01 1.49464E-24
1.92169E-01 1.43660E-24
1.95619E-01 1.38129E-24
1.99092E-01 1.32856E-24
2.02589E-01 1.27826E-24
2.06107E-01 1.23028E-24
2.09649E-01 1.18448E-24
2.13212E-01 1.14073E-24
2.16797E-01 1.09895E-24
2.20404E-01 1.05901E-24
2.24032E-01 1.02082E-24
2.27680E-01 9.84302E-25
2.31350E-01 9.49356E-25
2.35040E-01 9.15905E-25
2.38751E-01 8.83875E-25
2.42481E-01 8.53194E-25
2.46231E-01 8.23795E-25
2.50000E-01 7.95614E-25
2.53788E-01 7.68592E-25
2.57595E-01 7.42672E-25
2.61421E-01 7.17801E-25
2.65264E-01 6.93929E-25
2.69126E-01 6.71008E-25
2.73005E-01 6.48994E-25
2.76901E-01 6.27845E-25
2.80814E-01 6.07520E-25
2.84744E-01 5.87981E-25
2.88691E-01 5.69192E-25
2.92653E-01 5.51119E-25
2.96632E-01 5.33731E-25
3.00625E-01 5.16996E-25
3.04634E-01 5.00885E-25
3.08658E-01 4.85372E-25
3.12697E-01 4.70429E-25
3.16749E-01 4.56032E-25
3.20816E-01 4.42158E-25
3.24896E-01 4.28783E-25
3.28990E-01 4.15888E-25
3.33097E-01 4.03451E-25
3.37216E-01 3.91454E-25
3.41348E-01 3.79878E-25
3.45492E-01 3.68705E-25
3.49647E-01 3.57919E-25
3.53814E-01 3.47505E-25
3.57992E-01 3.37447E-25
3.62181E-01 3.27730E-25
3.66381E-01 3.18342E-25
3.70590E-01 3.09269E-25
3.74810E-01 3.00498E-25
3.79039E-01 2.92019E-25
3.83277E-01 2.83818E-25
3.87524E-01 2.75886E-25
3.91780E-01 2.68213E-25
3.96044E-01 2.60788E-25
4.00316E-01 2.53601E-25
4.04596E-01 2.46645E-25
4.08882E-01 2.39910E-25
4.13176E-01 2.33387E-25
4.17476E-01 2.27070E-25
4.21783E-01 2.20950E-25
4.26095E-01 2.15020E-25
4.30413E-01 2.09274E-25
4.34737E-01 2.03704E-25
4.39065E-01 1.98305E-25
4.43398E-01 1.93069E-25
4.47736E-01 1.87992E-25
4.52077E-01 1.83068E-25
4.56422E-01 1.78290E-25
4.60770E-01 1.73655E-25
4.65122E-01 1.69157E-25
4.69476E-01 1.64792E-25
4.73832E-01 1.60554E-25
4.78190E-01 1.56440E-25
4.82550E-01 1.52445E-25
4.86912E-01 1.48566E-25
4.91274E-01 1.44797E-25
4.95637E-01 1.41137E-25
5.00000E-01 1.37580E-25
5.04363E-01 1.34124E-25
5.08726E-01 1.30765E-25
5.13088E-01 1.27500E-25
5.17450E-01 1.24326E-25
5.21810E-01 1.21240E-25
5.26168E-01 1.18239E-25
5.30524E-01 1.15321E-25
5.34878E-01 1.12483E-25
5.39230E-01 1.09721E-25
5.43578E-01 1.07035E-25
5.47923E-01 1.04421E-25
5.52264E-01 1.01877E-25
5.56602E-01 9.94013E-26
5.60935E-01 9.69914E-26
5.65263E-01 9.46452E-26
5.69587E-01 9.23610E-26
5.73905E-01 9.01367E-26
5.78217E-01 8.79706E-26
5.82524E-01 8.58609E-26
5.86824E-01 8.38059E-26
5.91118E-01 8.18040E-26
5.95404E-01 7.98535E-26
5.99684E-01 7.79530E-26
6.03956E-01 7.61009E-26
6.08220E-01 7.42959E-26
6.12476E-01 7.25365E-26
6.16723E-01 7.08215E-26
6.20961E-01 6.91495E-26
6.25190E-01 6.75193E-26
6.29410E-01 6.59297E-26
6.33619E-01 6.43795E-26
6.37819E-01 6.28677E-26
6.42008E-01 6.13931E-26
6.46186E-01 5.99546E-26
6.50353E-01 5.85514E-26
6.54508E-01 5.71823E-26
6.58652E-01 5.58464E-26
6.62784E-01 5.45428E-26
6.66903E-01 5.32707E-26
6.71010E-01 5.20291E-26
6.75104E-01 5.08172E-26
6.79184E-01 4.96342E-26
6.83251E-01 4.84793E-26
6.87303E-01 4.73518E-26
6.91342E-01 4.62509E-26
6.95366E-01 4.51760E-26
6.99375E-01 4.41263E-26
7.03368E-01 4.31011E-26
7.07347E-01 4.20999E-26
7.11309E-01 4.11219E-26
7.15256E-01 4.01666E-26
7.19186E-01 3.92334E-26
7.23099E-01 3.83217E-26
7.26995E-01 3.74310E-26
7.30874E-01 3.65607E-26
7.34736E-01 3.57102E-26
7.38579E-01 3.48792E-26
7.42405E-01 3.40671E-26
7.46212E-01 3.32734E-26
7.50000E-01 3.24976E-26
7.53769E-01 3.17394E-26
7.57519E-01 3.09983E-26
7.61249E-01 3.02737E-26
7.64960E-01 2.95655E-26
7.68650E-01 2.88731E-26
7.72320E-01 2.81961E-26
7.75968E-01 2.75342E-26
7.79596E-01 2.68870E-26
7.83203E-01 2.62542E-26
7.86788E-01 2.56354E-26
7.90351E-01 2.50303E-26
7.93893E-01 2.44385E-26
7.97411E-01 2.38598E-26
8.00908E-01 2.32938E-26
8.04381E-01 2.27402E-26
8.07831E-01 2.21988E-26
8.11257E-01 2.16693E-26
8.14660E-01 2.11513E-26
8.18039E-01 2.06446E-26
8.21394E-01 2.01491E-26
8.24724E-01 1.96643E-26
8.28030E-01 1.91901E-26
8.31310E-01 1.87262E-26
8.34565E-01 1.82724E-26
8.37795E-01 1.78285E-26
8.40999E-01 1.73942E-26
8.44177E-01 1.69693E-26
8.47329E-01 1.65537E-26
8.50455E-01 1.61472E-26
8.53553E-01 1.57494E-26
8.56625E-01 1.53603E-26
8.59670E-01 1.49797E-26
8.62687E-01 1.46073E-26
8.65677E-01 1.42430E-26
8.68639E-01 1.38867E-26
8.71572E-01 1.35381E-26
8.74478E-01 1.31971E-26
8.77355E-01 1.28636E-26
8.80203E-01 1.25374E-26
8.83022E-01 1.22183E-26
8.85812E-01 1.19062E-26
8.88573E-01 1.16009E-26
8.91304E-01 1.13024E-26
8.94005E-01 1.10104E-26
8.96677E-01 1.07249E-26
8.99318E-01 1.04458E-26
9.01928E-01 1.01728E-26
9.04508E-01 9.90590E-27
9.07058E-01 9.64497E-27
9.09576E-01 9.38990E-27
9.12063E-01 9.14057E-27
9.14519E-01 8.89687E-27
9.16943E-01 8.65870E-27
9.19335E-01 8.42596E-27
9.21696E-01 8.19855E-27
9.24024E-01 7.97636E-27
9.26320E-01 7.75931E-27
9.28584E-01 7.54731E-27
9.30815E-01 7.34026E-27
9.33013E-01 7.13809E-27
9.35178E-01 6.94069E-27
9.37310E-01 6.74801E-27
9.39409E-01 6.55994E-27
9.41474E-01 6.37642E-27
9.43505E-01 6.19738E-27
9.45503E-01 6.02273E-27
9.47467E-01 5.85241E-27
9.49397E-01 5.68634E-27
9.51293E-01 5.52447E-27
9.53154E-01 5.36673E-27
9.54981E-01 5.21304E-27
9.56773E-01 5.06336E-27
9.58530E-01 4.91762E-27
9.60252E-01 4.77576E-27
9.61940E-01 4.63773E-27
9.63592E-01 4.50347E-27
9.65209E-01 4.37293E-27
9.66790E-01 4.24606E-27
9.68336E-01 4.12281E-27
9.69846E-01 4.00313E-27
9.71321E-01 3.88697E-27
9.72759E-01 3.77429E-27
9.74162E-01 3.66505E-27
9.75528E-01 3.55920E-27
9.76858E-01 3.45670E-27
9.78152E-01 3.35752E-27
9.79410E-01 3.26161E-27
9.80631E-01 3.16893E-27
9.81815E-01 3.07946E-27
9.82963E-01 2.99316E-27
9.84074E-01 2.90999E-27
9.85148E-01 2.82993E-27
9.86185E-01 2.75294E-27
9.87185E-01 2.67900E-27
9.88148E-01 2.60807E-27
9.89074E-01 2.54013E-27
9.89962E-01 2.47516E-27
9.90814E-01 2.41312E-27
9.91627E-01 2.35401E-27
9.92404E-01 2.29778E-27
9.93143E-01 2.24443E-27
9.93844E-01 2.19394E-27
9.94508E-01 2.14628E-27
9.95134E-01 2.10143E-27
9.95722E-01 2.05939E-27
9.96273E-01 2.02013E-27
9.96786E-01 1.98365E-27
9.97261E-01 1.94992E-27
9.97698E-01 1.91893E-27
9.98097E-01 1.89067E-27
9.98459E-01 1.86514E-27
9.98782E-01 1.84232E-27
9.99067E-01 1.82221E-27
9.99315E-01 1.80479E-27
9.99524E-01 1.79006E-27
9.99695E-01 1.77802E-27
9.99829E-01 1.76866E-27
9.99924E-01 1.76197E-27
9.99981E-01 1.75797E-27
1.00000E+00 1.75662E-27
