 #
 # Subroutine ELSEPA. Elastic scattering of electrons and positrons
 #                    by neutral atoms and positive ions
 #
 # Projectile: electron
 # Kinetic energy = 1.00000E+09 eV = 3.67493E+07 a.u.
 #
 # WARNING: High-energy factorization with free-atom DF screening.
 #          Absorption, polarization and exchange corrections are
 #          switched off.
 #          Phase shifts are calculated for the bare nucleus.
 #          Scattering amplitudes are not evaluated.
 #
 # Element: Ne,  Z =  10,  atomic weight = 2.01797E+01 g/mol
 #
 # Nuclear model: Fermi distribution
 #                Average radius = 2.91310E-13 cm
 #                Skin thickness = 5.46000E-14 cm
 #
 # Number of electrons = 10
 #
 # Total elastic cross section = 2.93259E-19 cm**2 = 1.04725E-02 a0**2
 # 1st transport cross section = 2.20580E-28 cm**2 = 7.87707E-12 a0**2
 # 2nd transport cross section = 6.61623E-28 cm**2 = 2.36270E-11 a0**2
 #
 #
 # Differential cross section:                       MU=(1-COS(THETA))/2
 #
 #  THETA        MU          DCS          DCS        Sherman      error
 #  (deg)                 (cm**2/sr)   (a0**2/sr)    function
 #----------------------------------------------------------------------
0.00000E+00 1.04226E-09
7.61557E-13 9.79426E-10
1.18994E-12 9.46472E-10
1.71346E-12 9.07027E-10
2.33225E-12 8.65525E-10
3.04617E-12 8.18768E-10
3.85530E-12 7.71474E-10
4.75964E-12 7.24733E-10
5.75917E-12 6.75091E-10
6.85391E-12 6.26991E-10
8.04379E-12 5.81384E-10
9.32893E-12 5.36657E-10
1.07092E-11 4.93454E-10
1.21847E-11 4.53525E-10
1.37554E-11 4.16368E-10
1.54213E-11 3.80476E-10
1.71823E-11 3.47801E-10
1.90386E-11 3.18021E-10
2.09900E-11 2.89936E-10
2.30367E-11 2.64265E-10
2.51785E-11 2.41041E-10
2.74156E-11 2.19706E-10
2.97478E-11 2.00040E-10
3.21752E-11 1.82327E-10
3.46979E-11 1.66332E-10
3.73157E-11 1.51519E-10
4.00286E-11 1.38205E-10
4.28368E-11 1.26210E-10
4.57402E-11 1.15251E-10
4.87388E-11 1.05318E-10
5.18325E-11 9.63702E-11
5.50215E-11 8.82575E-11
5.83057E-11 8.08503E-11
6.16850E-11 7.41630E-11
6.51595E-11 6.81121E-11
6.87293E-11 6.25688E-11
7.23943E-11 5.75432E-11
7.61544E-11 5.29851E-11
1.18991E-10 2.45208E-11
1.71347E-10 1.25454E-11
2.33223E-10 7.02513E-12
3.04617E-10 4.23466E-12
3.85531E-10 2.71012E-12
4.75965E-10 1.82041E-12
5.75917E-10 1.27157E-12
6.85389E-10 9.17035E-13
8.04380E-10 6.78960E-13
9.32891E-10 5.13886E-13
1.07092E-09 3.96326E-13
1.21847E-09 3.10646E-13
1.37554E-09 2.46930E-13
1.54213E-09 1.98721E-13
1.71823E-09 1.61704E-13
1.90386E-09 1.32894E-13
2.09900E-09 1.10199E-13
2.30367E-09 9.21219E-14
2.51785E-09 7.75875E-14
2.74156E-09 6.57959E-14
2.97478E-09 5.61503E-14
3.21752E-09 4.81979E-14
3.46978E-09 4.15979E-14
3.73156E-09 3.60844E-14
4.00286E-09 3.14504E-14
4.28368E-09 2.75327E-14
4.57402E-09 2.42037E-14
4.87388E-09 2.13608E-14
5.18326E-09 1.89215E-14
5.50215E-09 1.68191E-14
5.83057E-09 1.49996E-14
6.16850E-09 1.34188E-14
6.51596E-09 1.20401E-14
6.87293E-09 1.08334E-14
7.23942E-09 9.77361E-15
7.61544E-09 8.83995E-15
1.18991E-08 3.64019E-15
1.71347E-08 1.75946E-15
2.33223E-08 9.50742E-16
3.04617E-08 5.57628E-16
3.85531E-08 3.48239E-16
4.75965E-08 2.28525E-16
5.75917E-08 1.56106E-16
6.85389E-08 1.10231E-16
8.04380E-08 8.00327E-17
9.32891E-08 5.95026E-17
1.07092E-07 4.51533E-17
1.21847E-07 3.48803E-17
1.37554E-07 2.73696E-17
1.54213E-07 2.17761E-17
1.71823E-07 1.75412E-17
1.90386E-07 1.42875E-17
2.09900E-07 1.17545E-17
2.30367E-07 9.75874E-18
2.51785E-07 8.16914E-18
2.74156E-07 6.89042E-18
2.97478E-07 5.85239E-18
3.21752E-07 5.00268E-18
3.46978E-07 4.30174E-18
3.73156E-07 3.71938E-18
4.00286E-07 3.23231E-18
4.28368E-07 2.82242E-18
4.57402E-07 2.47550E-18
4.87388E-07 2.18028E-18
5.18325E-07 1.92779E-18
5.50215E-07 1.71081E-18
5.83057E-07 1.52352E-18
6.16850E-07 1.36117E-18
6.51596E-07 1.21988E-18
6.87293E-07 1.09646E-18
7.23942E-07 9.88260E-19
7.61543E-07 8.93083E-19
1.18991E-06 3.65826E-19
1.71347E-06 1.76430E-19
2.33223E-06 9.52372E-20
3.04617E-06 5.58291E-20
3.85531E-06 3.48556E-20
4.75964E-06 2.28699E-20
5.75916E-06 1.56212E-20
6.85388E-06 1.10302E-20
8.04378E-06 8.00858E-21
9.32888E-06 5.95441E-21
1.07092E-05 4.51864E-21
1.21846E-05 3.49071E-21
1.37553E-05 2.73918E-21
1.54212E-05 2.17945E-21
1.71822E-05 1.75568E-21
1.90385E-05 1.43005E-21
2.09899E-05 1.17658E-21
2.30365E-05 9.76860E-22
2.51783E-05 8.17776E-22
2.74153E-05 6.89796E-22
2.97475E-05 5.85900E-22
3.21749E-05 5.00850E-22
3.46974E-05 4.30690E-22
3.73152E-05 3.72399E-22
4.00281E-05 3.23646E-22
4.28362E-05 2.82619E-22
4.57395E-05 2.47892E-22
4.87380E-05 2.18339E-22
5.18317E-05 1.93062E-22
5.50205E-05 1.71339E-22
5.83045E-05 1.52588E-22
6.16838E-05 1.36333E-22
6.51582E-05 1.22187E-22
6.87277E-05 1.09829E-22
7.23925E-05 9.89956E-23
7.61524E-05 8.74096E-23
9.21439E-05 5.94158E-23
1.09658E-04 4.17297E-23
1.28695E-04 3.01219E-23
1.49255E-04 2.22543E-23
1.71338E-04 1.67733E-23
1.94942E-04 1.28631E-23
2.20070E-04 1.00152E-23
2.46720E-04 7.90274E-24
2.74892E-04 6.31032E-24
3.04586E-04 5.09249E-24
3.35803E-04 4.14899E-24
3.68542E-04 3.40944E-24
4.02802E-04 2.82359E-24
4.38585E-04 2.35500E-24
4.75889E-04 1.97690E-24
5.14715E-04 1.66933E-24
5.55063E-04 1.41729E-24
5.96931E-04 1.20932E-24
6.40321E-04 1.03663E-24
6.85233E-04 8.92401E-25
7.31665E-04 7.71275E-25
7.79618E-04 6.69037E-25
8.29092E-04 5.82332E-25
8.80086E-04 5.08475E-25
9.32601E-04 4.45302E-25
9.86636E-04 3.91057E-25
1.04219E-03 3.44308E-25
1.09927E-03 3.03882E-25
1.15786E-03 2.68811E-25
1.21797E-03 2.38293E-25
1.27961E-03 2.11662E-25
1.34276E-03 1.88359E-25
1.40743E-03 1.67917E-25
1.47362E-03 1.49941E-25
1.54133E-03 1.34097E-25
1.61056E-03 1.20104E-25
1.68131E-03 1.07718E-25
1.75357E-03 9.67354E-26
1.82735E-03 8.69783E-26
1.90265E-03 7.82951E-26
1.97947E-03 7.05549E-26
2.05780E-03 6.36445E-26
2.13765E-03 5.74658E-26
2.21902E-03 5.19335E-26
2.30190E-03 4.69734E-26
2.38630E-03 4.25207E-26
2.47222E-03 3.85187E-26
2.55965E-03 3.49177E-26
2.64859E-03 3.16739E-26
2.73905E-03 2.87490E-26
2.83103E-03 2.61091E-26
2.92452E-03 2.37241E-26
3.01952E-03 2.15676E-26
3.11604E-03 1.96161E-26
3.21407E-03 1.78486E-26
3.31362E-03 1.62468E-26
3.41468E-03 1.47940E-26
3.51725E-03 1.34755E-26
3.62133E-03 1.22782E-26
3.72692E-03 1.11902E-26
3.83403E-03 1.02011E-26
3.94265E-03 9.30145E-27
4.05278E-03 8.48269E-27
4.16442E-03 7.73725E-27
4.27757E-03 7.05828E-27
4.39223E-03 6.43962E-27
4.50840E-03 5.87570E-27
4.62608E-03 5.36151E-27
4.74527E-03 4.89253E-27
4.86597E-03 4.46466E-27
4.98817E-03 4.07419E-27
5.11188E-03 3.71779E-27
5.23711E-03 3.39241E-27
5.36383E-03 3.09530E-27
5.49207E-03 2.82397E-27
5.62181E-03 2.57614E-27
5.75306E-03 2.34975E-27
5.88581E-03 2.14294E-27
6.02007E-03 1.95400E-27
6.15583E-03 1.78137E-27
6.29310E-03 1.62366E-27
6.43187E-03 1.47956E-27
6.57214E-03 1.34791E-27
6.71392E-03 1.22763E-27
6.85720E-03 1.11776E-27
7.00198E-03 1.01740E-27
7.14827E-03 9.25738E-28
7.29605E-03 8.42030E-28
7.44534E-03 7.65598E-28
7.59612E-03 6.95821E-28
7.97965E-03 5.46892E-28
8.37255E-03 4.28526E-28
8.77480E-03 3.34616E-28
9.18641E-03 2.60269E-28
9.60736E-03 2.01555E-28
1.00376E-02 1.55322E-28
1.04773E-02 1.19037E-28
1.09262E-02 9.06677E-29
1.13844E-02 6.85825E-29
1.18520E-02 5.14736E-29
1.23288E-02 3.82934E-29
1.28150E-02 2.82041E-29
1.33104E-02 2.05368E-29
1.38150E-02 1.47589E-29
1.43290E-02 1.04470E-29
1.48521E-02 7.26582E-30
1.53845E-02 4.95077E-30
1.59262E-02 3.29377E-30
1.64770E-02 2.13202E-30
1.70371E-02 1.33883E-30
1.76063E-02 8.16207E-31
1.81848E-02 4.88901E-31
1.87724E-02 2.99632E-31
1.93692E-02 2.05225E-31
1.99751E-02 1.73536E-31
2.05901E-02 1.80986E-31
2.12143E-02 2.10601E-31
2.18476E-02 2.50456E-31
2.24900E-02 2.92450E-31
2.31415E-02 3.31335E-31
2.38021E-02 3.63968E-31
2.44717E-02 3.88722E-31
2.51504E-02 4.05038E-31
2.58382E-02 4.13085E-31
2.65349E-02 4.13497E-31
2.72407E-02 4.07187E-31
2.79555E-02 3.95204E-31
2.86793E-02 3.78636E-31
2.94120E-02 3.58543E-31
3.01537E-02 3.35912E-31
3.09043E-02 3.11631E-31
3.16639E-02 2.86472E-31
3.24324E-02 2.61091E-31
3.32098E-02 2.36030E-31
3.39961E-02 2.11720E-31
3.47912E-02 1.88492E-31
3.55952E-02 1.66592E-31
3.64081E-02 1.46184E-31
3.72297E-02 1.27370E-31
3.80602E-02 1.10195E-31
3.88995E-02 9.46605E-32
3.97476E-02 8.07316E-32
4.06044E-02 6.83465E-32
4.14700E-02 5.74235E-32
4.23443E-02 4.78667E-32
4.32273E-02 3.95714E-32
4.41190E-02 3.24286E-32
4.50194E-02 2.63279E-32
4.59284E-02 2.11609E-32
4.68461E-02 1.68228E-32
4.87074E-02 1.02413E-32
5.06030E-02 5.86774E-33
5.25328E-02 3.10335E-33
5.44967E-02 1.46770E-33
5.64946E-02 5.89694E-34
5.85262E-02 1.93270E-34
6.05914E-02 8.09723E-35
6.26901E-02 1.17716E-34
6.48222E-02 2.15974E-34
6.69873E-02 3.23073E-34
6.91854E-02 4.10785E-34
7.14163E-02 4.67173E-34
7.36799E-02 4.90441E-34
7.59760E-02 4.84492E-34
7.83043E-02 4.55884E-34
8.06647E-02 4.11839E-34
8.30571E-02 3.59076E-34
8.54812E-02 3.03197E-34
8.79369E-02 2.48466E-34
9.04240E-02 1.97827E-34
9.29422E-02 1.53058E-34
9.54915E-02 1.14994E-34
9.80716E-02 8.37573E-35
1.00682E-01 5.89735E-35
1.03323E-01 3.99641E-35
1.05995E-01 2.58925E-35
1.08696E-01 1.58765E-35
1.11427E-01 9.06749E-36
1.14188E-01 4.69845E-36
1.16978E-01 2.11077E-36
1.19797E-01 7.63090E-37
1.22645E-01 2.28731E-37
1.25522E-01 1.85198E-37
1.28428E-01 3.99837E-37
1.31361E-01 7.13699E-37
1.34323E-01 1.02590E-36
1.37313E-01 1.27928E-36
1.40330E-01 1.44784E-36
1.43375E-01 1.52671E-36
1.46447E-01 1.52410E-36
1.49545E-01 1.45515E-36
1.52671E-01 1.33769E-36
1.55823E-01 1.18941E-36
1.59001E-01 1.02598E-36
1.62205E-01 8.60093E-37
1.65435E-01 7.01475E-37
1.68690E-01 5.56556E-37
1.71970E-01 4.29311E-37
1.75276E-01 3.21384E-37
1.78606E-01 2.32842E-37
1.81961E-01 1.62552E-37
1.85340E-01 1.08642E-37
1.88743E-01 6.88257E-38
1.92169E-01 4.06923E-38
1.95619E-01 2.18866E-38
1.99092E-01 1.02336E-38
2.02589E-01 3.82591E-39
2.06107E-01 1.00000E-45
2.09649E-01 1.00000E-45
2.13212E-01 1.00000E-45
2.16797E-01 1.00000E-45
2.20404E-01 1.00000E-45
2.24032E-01 1.00000E-45
2.27680E-01 1.00000E-45
2.31350E-01 1.00000E-45
2.35040E-01 1.00000E-45
2.38751E-01 1.00000E-45
2.42481E-01 1.00000E-45
2.46231E-01 1.00000E-45
2.50000E-01 1.00000E-45
2.53788E-01 1.00000E-45
2.57595E-01 1.00000E-45
2.61421E-01 1.00000E-45
2.65264E-01 1.00000E-45
2.69126E-01 1.00000E-45
2.73005E-01 1.00000E-45
2.76901E-01 1.00000E-45
2.80814E-01 1.00000E-45
2.84744E-01 1.00000E-45
2.88691E-01 1.00000E-45
2.92653E-01 1.00000E-45
2.96632E-01 1.00000E-45
3.00625E-01 1.00000E-45
3.04634E-01 1.00000E-45
3.08658E-01 1.00000E-45
3.12697E-01 1.00000E-45
3.16749E-01 1.00000E-45
3.20816E-01 1.00000E-45
3.24896E-01 1.00000E-45
3.28990E-01 1.00000E-45
3.33097E-01 1.00000E-45
3.37216E-01 1.00000E-45
3.41348E-01 1.00000E-45
3.45492E-01 1.00000E-45
3.49647E-01 1.00000E-45
3.53814E-01 1.00000E-45
3.57992E-01 1.00000E-45
3.62181E-01 1.00000E-45
3.66381E-01 1.00000E-45
3.70590E-01 1.00000E-45
3.74810E-01 1.00000E-45
3.79039E-01 1.00000E-45
3.83277E-01 1.00000E-45
3.87524E-01 1.00000E-45
3.91780E-01 1.00000E-45
3.96044E-01 1.00000E-45
4.00316E-01 1.00000E-45
4.04596E-01 1.00000E-45
4.08882E-01 1.00000E-45
4.13176E-01 1.00000E-45
4.17476E-01 1.00000E-45
4.21783E-01 1.00000E-45
4.26095E-01 1.00000E-45
4.30413E-01 1.00000E-45
4.34737E-01 1.00000E-45
4.39065E-01 1.00000E-45
4.43398E-01 1.00000E-45
4.47736E-01 1.00000E-45
4.52077E-01 1.00000E-45
4.56422E-01 1.00000E-45
4.60770E-01 1.00000E-45
4.65122E-01 1.00000E-45
4.69476E-01 1.00000E-45
4.73832E-01 1.00000E-45
4.78190E-01 1.00000E-45
4.82550E-01 1.00000E-45
4.86912E-01 1.00000E-45
4.91274E-01 1.00000E-45
4.95637E-01 1.00000E-45
5.00000E-01 1.00000E-45
5.04363E-01 1.00000E-45
5.08726E-01 1.00000E-45
5.13088E-01 1.00000E-45
5.17450E-01 1.00000E-45
5.21810E-01 1.00000E-45
5.26168E-01 1.00000E-45
5.30524E-01 1.00000E-45
5.34878E-01 1.00000E-45
5.39230E-01 1.00000E-45
5.43578E-01 1.00000E-45
5.47923E-01 1.00000E-45
5.52264E-01 1.00000E-45
5.56602E-01 1.00000E-45
5.60935E-01 1.00000E-45
5.65263E-01 1.00000E-45
5.69587E-01 1.00000E-45
5.73905E-01 1.00000E-45
5.78217E-01 1.00000E-45
5.82524E-01 1.00000E-45
5.86824E-01 1.00000E-45
5.91118E-01 1.00000E-45
5.95404E-01 1.00000E-45
5.99684E-01 1.00000E-45
6.03956E-01 1.00000E-45
6.08220E-01 1.00000E-45
6.12476E-01 1.00000E-45
6.16723E-01 1.00000E-45
6.20961E-01 1.00000E-45
6.25190E-01 1.00000E-45
6.29410E-01 1.00000E-45
6.33619E-01 1.00000E-45
6.37819E-01 1.00000E-45
6.42008E-01 1.00000E-45
6.46186E-01 1.00000E-45
6.50353E-01 1.00000E-45
6.54508E-01 1.00000E-45
6.58652E-01 1.00000E-45
6.62784E-01 1.00000E-45
6.66903E-01 1.00000E-45
6.71010E-01 1.00000E-45
6.75104E-01 1.00000E-45
6.79184E-01 1.00000E-45
6.83251E-01 1.00000E-45
6.87303E-01 1.00000E-45
6.91342E-01 1.00000E-45
6.95366E-01 1.00000E-45
6.99375E-01 1.00000E-45
7.03368E-01 1.00000E-45
7.07347E-01 1.00000E-45
7.11309E-01 1.00000E-45
7.15256E-01 1.00000E-45
7.19186E-01 1.00000E-45
7.23099E-01 1.00000E-45
7.26995E-01 1.00000E-45
7.30874E-01 1.00000E-45
7.34736E-01 1.00000E-45
7.38579E-01 1.00000E-45
7.42405E-01 1.00000E-45
7.46212E-01 1.00000E-45
7.50000E-01 1.00000E-45
7.53769E-01 1.00000E-45
7.57519E-01 1.00000E-45
7.61249E-01 1.00000E-45
7.64960E-01 1.00000E-45
7.68650E-01 1.00000E-45
7.72320E-01 1.00000E-45
7.75968E-01 1.00000E-45
7.79596E-01 1.00000E-45
7.83203E-01 1.00000E-45
7.86788E-01 1.00000E-45
7.90351E-01 1.00000E-45
7.93893E-01 1.00000E-45
7.97411E-01 1.00000E-45
8.00908E-01 1.00000E-45
8.04381E-01 1.00000E-45
8.07831E-01 1.00000E-45
8.11257E-01 1.00000E-45
8.14660E-01 1.00000E-45
8.18039E-01 1.00000E-45
8.21394E-01 1.00000E-45
8.24724E-01 1.00000E-45
8.28030E-01 1.00000E-45
8.31310E-01 1.00000E-45
8.34565E-01 1.00000E-45
8.37795E-01 1.00000E-45
8.40999E-01 1.00000E-45
8.44177E-01 1.00000E-45
8.47329E-01 1.00000E-45
8.50455E-01 1.00000E-45
8.53553E-01 1.00000E-45
8.56625E-01 1.00000E-45
8.59670E-01 1.00000E-45
8.62687E-01 1.00000E-45
8.65677E-01 1.00000E-45
8.68639E-01 1.00000E-45
8.71572E-01 1.00000E-45
8.74478E-01 1.00000E-45
8.77355E-01 1.00000E-45
8.80203E-01 1.00000E-45
8.83022E-01 1.00000E-45
8.85812E-01 1.00000E-45
8.88573E-01 1.00000E-45
8.91304E-01 1.00000E-45
8.94005E-01 1.00000E-45
8.96677E-01 1.00000E-45
8.99318E-01 1.00000E-45
9.01928E-01 1.00000E-45
9.04508E-01 1.00000E-45
9.07058E-01 1.00000E-45
9.09576E-01 1.00000E-45
9.12063E-01 1.00000E-45
9.14519E-01 1.00000E-45
9.16943E-01 1.00000E-45
9.19335E-01 1.00000E-45
9.21696E-01 1.00000E-45
9.24024E-01 1.00000E-45
9.26320E-01 1.00000E-45
9.28584E-01 1.00000E-45
9.30815E-01 1.00000E-45
9.33013E-01 1.00000E-45
9.35178E-01 1.00000E-45
9.37310E-01 1.00000E-45
9.39409E-01 1.00000E-45
9.41474E-01 1.00000E-45
9.43505E-01 1.00000E-45
9.45503E-01 1.00000E-45
9.47467E-01 1.00000E-45
9.49397E-01 1.00000E-45
9.51293E-01 1.00000E-45
9.53154E-01 1.00000E-45
9.54981E-01 1.00000E-45
9.56773E-01 1.00000E-45
9.58530E-01 1.00000E-45
9.60252E-01 1.00000E-45
9.61940E-01 1.00000E-45
9.63592E-01 1.00000E-45
9.65209E-01 1.00000E-45
9.66790E-01 1.00000E-45
9.68336E-01 1.00000E-45
9.69846E-01 1.00000E-45
9.71321E-01 1.00000E-45
9.72759E-01 1.00000E-45
9.74162E-01 1.00000E-45
9.75528E-01 1.00000E-45
9.76858E-01 1.00000E-45
9.78152E-01 1.00000E-45
9.79410E-01 1.00000E-45
9.80631E-01 1.00000E-45
9.81815E-01 1.00000E-45
9.82963E-01 1.00000E-45
9.84074E-01 1.00000E-45
9.85148E-01 1.00000E-45
9.86185E-01 1.00000E-45
9.87185E-01 1.00000E-45
9.88148E-01 1.00000E-45
9.89074E-01 1.00000E-45
9.89962E-01 1.00000E-45
9.90814E-01 1.00000E-45
9.91627E-01 1.00000E-45
9.92404E-01 1.00000E-45
9.93143E-01 1.00000E-45
9.93844E-01 1.00000E-45
9.94508E-01 1.00000E-45
9.95134E-01 1.00000E-45
9.95722E-01 1.00000E-45
9.96273E-01 1.00000E-45
9.96786E-01 1.00000E-45
9.97261E-01 1.00000E-45
9.97698E-01 1.00000E-45
9.98097E-01 1.00000E-45
9.98459E-01 1.00000E-45
9.98782E-01 1.00000E-45
9.99067E-01 1.00000E-45
9.99315E-01 1.00000E-45
9.99524E-01 1.00000E-45
9.99695E-01 1.00000E-45
9.99829E-01 1.00000E-45
9.99924E-01 1.00000E-45
9.99981E-01 1.00000E-45
1.00000E+00 1.00000E-45
