 #
 # Subroutine ELSEPA. Elastic scattering of electrons and positrons
 #                    by neutral atoms and positive ions
 #
 # Projectile: electron
 # Kinetic energy = 4.00000E+07 eV = 1.46997E+06 a.u.
 #
 # WARNING: High-energy factorization with free-atom DF screening.
 #          Absorption, polarization and exchange corrections are
 #          switched off.
 #          Phase shifts are calculated for the bare nucleus.
 #          Scattering amplitudes are not evaluated.
 #
 # Element: Ne,  Z =  10,  atomic weight = 2.01797E+01 g/mol
 #
 # Nuclear model: Fermi distribution
 #                Average radius = 2.91310E-13 cm
 #                Skin thickness = 5.46000E-14 cm
 #
 # Number of electrons = 10
 #
 # Total elastic cross section = 2.93177E-19 cm**2 = 1.04695E-02 a0**2
 # 1st transport cross section = 1.25499E-25 cm**2 = 4.48166E-09 a0**2
 # 2nd transport cross section = 3.65824E-25 cm**2 = 1.30638E-08 a0**2
 #
 #
 # Differential cross section:                       MU=(1-COS(THETA))/2
 #
 #  THETA        MU          DCS          DCS        Sherman      error
 #  (deg)                 (cm**2/sr)   (a0**2/sr)    function
 #----------------------------------------------------------------------
0.00000E+00 1.70876E-12
7.61557E-13 1.70857E-12
1.18994E-12 1.70847E-12
1.71346E-12 1.70835E-12
2.33225E-12 1.70820E-12
3.04617E-12 1.70803E-12
3.85530E-12 1.70784E-12
4.75964E-12 1.70763E-12
5.75917E-12 1.70740E-12
6.85391E-12 1.70715E-12
8.04379E-12 1.70687E-12
9.32893E-12 1.70657E-12
1.07092E-11 1.70625E-12
1.21847E-11 1.70591E-12
1.37554E-11 1.70554E-12
1.54213E-11 1.70516E-12
1.71823E-11 1.70475E-12
1.90386E-11 1.70432E-12
2.09900E-11 1.70387E-12
2.30367E-11 1.70339E-12
2.51785E-11 1.70290E-12
2.74156E-11 1.70238E-12
2.97478E-11 1.70184E-12
3.21752E-11 1.70128E-12
3.46979E-11 1.70070E-12
3.73157E-11 1.70010E-12
4.00286E-11 1.69947E-12
4.28368E-11 1.69882E-12
4.57402E-11 1.69816E-12
4.87388E-11 1.69747E-12
5.18325E-11 1.69676E-12
5.50215E-11 1.69602E-12
5.83057E-11 1.69527E-12
6.16850E-11 1.69450E-12
6.51595E-11 1.69370E-12
6.87293E-11 1.69288E-12
7.23943E-11 1.69205E-12
7.61544E-11 1.69118E-12
1.18991E-10 1.68144E-12
1.71347E-10 1.66965E-12
2.33223E-10 1.65586E-12
3.04617E-10 1.64015E-12
3.85531E-10 1.62261E-12
4.75965E-10 1.60333E-12
5.75917E-10 1.58239E-12
6.85389E-10 1.55992E-12
8.04380E-10 1.53602E-12
9.32891E-10 1.51078E-12
1.07092E-09 1.48187E-12
1.21847E-09 1.45373E-12
1.37554E-09 1.42664E-12
1.54213E-09 1.39736E-12
1.71823E-09 1.36547E-12
1.90386E-09 1.33523E-12
2.09900E-09 1.30662E-12
2.30367E-09 1.27246E-12
2.51785E-09 1.23991E-12
2.74156E-09 1.20937E-12
2.97478E-09 1.17752E-12
3.21752E-09 1.14361E-12
3.46978E-09 1.11195E-12
3.73156E-09 1.08238E-12
4.00286E-09 1.04863E-12
4.28368E-09 1.01667E-12
4.57402E-09 9.86901E-13
4.87388E-09 9.56719E-13
5.18326E-09 9.25206E-13
5.50215E-09 8.95886E-13
5.83057E-09 8.68585E-13
6.16850E-09 8.38671E-13
6.51596E-09 8.10347E-13
6.87293E-09 7.83974E-13
7.23942E-09 7.57758E-13
7.61544E-09 7.30837E-13
1.18991E-08 5.09477E-13
1.71347E-08 3.50592E-13
2.33223E-08 2.40892E-13
3.04617E-08 1.66806E-13
3.85531E-08 1.17105E-13
4.75965E-08 8.34533E-14
5.75917E-08 6.04320E-14
6.85389E-08 4.45417E-14
8.04380E-08 3.34065E-14
9.32891E-08 2.54368E-14
1.07092E-07 1.96615E-14
1.21847E-07 1.54337E-14
1.37554E-07 1.22800E-14
1.54213E-07 9.88891E-15
1.71823E-07 8.05525E-15
1.90386E-07 6.63135E-15
2.09900E-07 5.51183E-15
2.30367E-07 4.62130E-15
2.51785E-07 3.90624E-15
2.74156E-07 3.32647E-15
2.97478E-07 2.85182E-15
3.21752E-07 2.46013E-15
3.46978E-07 2.13455E-15
3.73156E-07 1.86191E-15
4.00286E-07 1.63184E-15
4.28368E-07 1.43677E-15
4.57402E-07 1.27041E-15
4.87388E-07 1.12759E-15
5.18325E-07 1.00446E-15
5.50215E-07 8.97890E-16
5.83057E-07 8.05186E-16
6.16850E-07 7.24135E-16
6.51596E-07 6.53118E-16
6.87293E-07 5.90663E-16
7.23942E-07 5.35461E-16
7.61543E-07 4.86577E-16
1.18991E-06 2.08042E-16
1.71347E-06 1.02950E-16
2.33223E-06 5.64402E-17
3.04617E-06 3.34026E-17
3.85531E-06 2.09800E-17
4.75964E-06 1.38198E-17
5.75916E-06 9.46442E-18
6.85388E-06 6.69493E-18
8.04378E-06 4.86711E-18
9.32888E-06 3.62202E-18
1.07092E-05 2.75049E-18
1.21846E-05 2.12586E-18
1.37553E-05 1.66881E-18
1.54212E-05 1.32819E-18
1.71822E-05 1.07018E-18
1.90385E-05 8.71846E-19
2.09899E-05 7.17419E-19
2.30365E-05 5.95711E-19
2.51783E-05 4.98746E-19
2.74153E-05 4.20726E-19
2.97475E-05 3.57380E-19
3.21749E-05 3.05519E-19
3.46974E-05 2.62733E-19
3.73152E-05 2.27183E-19
4.00281E-05 1.97448E-19
4.28362E-05 1.72422E-19
4.57395E-05 1.51237E-19
4.87380E-05 1.33208E-19
5.18317E-05 1.17787E-19
5.50205E-05 1.04534E-19
5.83045E-05 9.30945E-20
6.16838E-05 8.31778E-20
6.51582E-05 7.45474E-20
6.87277E-05 6.70081E-20
7.23925E-05 6.03985E-20
7.61524E-05 5.45822E-20
9.21439E-05 3.72876E-20
1.09658E-04 2.63325E-20
1.28695E-04 1.91217E-20
1.49255E-04 1.42189E-20
1.71338E-04 1.07918E-20
1.94942E-04 8.33787E-21
2.20070E-04 6.54359E-21
2.46720E-04 5.20713E-21
2.74892E-04 4.19516E-21
3.04586E-04 3.41757E-21
3.35803E-04 2.81212E-21
3.68542E-04 2.33504E-21
4.02802E-04 1.95500E-21
4.38585E-04 1.64924E-21
4.75889E-04 1.40100E-21
5.14715E-04 1.19778E-21
5.55063E-04 1.03011E-21
5.96931E-04 8.90790E-22
6.40321E-04 7.74254E-22
6.85233E-04 6.76173E-22
7.31665E-04 5.93147E-22
7.79618E-04 5.22486E-22
8.29092E-04 4.62045E-22
8.80086E-04 4.10099E-22
9.32601E-04 3.65255E-22
9.86636E-04 3.26378E-22
1.04219E-03 2.92541E-22
1.09927E-03 2.62979E-22
1.15786E-03 2.37059E-22
1.21797E-03 2.14257E-22
1.27961E-03 1.94133E-22
1.34276E-03 1.76318E-22
1.40743E-03 1.60501E-22
1.47362E-03 1.46419E-22
1.54133E-03 1.33849E-22
1.61056E-03 1.22600E-22
1.68131E-03 1.12508E-22
1.75357E-03 1.03434E-22
1.82735E-03 9.52576E-23
1.90265E-03 8.78732E-23
1.97947E-03 8.11910E-23
2.05780E-03 7.51323E-23
2.13765E-03 6.96286E-23
2.21902E-03 6.46198E-23
2.30190E-03 6.00537E-23
2.38630E-03 5.58839E-23
2.47222E-03 5.20699E-23
2.55965E-03 4.85760E-23
2.64859E-03 4.53703E-23
2.73905E-03 4.24249E-23
2.83103E-03 3.97147E-23
2.92452E-03 3.72176E-23
3.01952E-03 3.49137E-23
3.11604E-03 3.27854E-23
3.21407E-03 3.08169E-23
3.31362E-03 2.89940E-23
3.41468E-03 2.73039E-23
3.51725E-03 2.57353E-23
3.62133E-03 2.42777E-23
3.72692E-03 2.29219E-23
3.83403E-03 2.16594E-23
3.94265E-03 2.04827E-23
4.05278E-03 1.93848E-23
4.16442E-03 1.83595E-23
4.27757E-03 1.74011E-23
4.39223E-03 1.65045E-23
4.50840E-03 1.56649E-23
4.62608E-03 1.48780E-23
4.74527E-03 1.41399E-23
4.86597E-03 1.34470E-23
4.98817E-03 1.27960E-23
5.11188E-03 1.21840E-23
5.23711E-03 1.16081E-23
5.36383E-03 1.10659E-23
5.49207E-03 1.05549E-23
5.62181E-03 1.00731E-23
5.75306E-03 9.61846E-24
5.88581E-03 9.18918E-24
6.02007E-03 8.78359E-24
6.15583E-03 8.40013E-24
6.29310E-03 8.03736E-24
6.43187E-03 7.69396E-24
6.57214E-03 7.36870E-24
6.71392E-03 7.06045E-24
6.85720E-03 6.76814E-24
7.00198E-03 6.49080E-24
7.14827E-03 6.22751E-24
7.29605E-03 5.97744E-24
7.44534E-03 5.73979E-24
7.59612E-03 5.51383E-24
7.97965E-03 4.99569E-24
8.37255E-03 4.53699E-24
8.77480E-03 4.12971E-24
9.18641E-03 3.76710E-24
9.60736E-03 3.44340E-24
1.00376E-02 3.15371E-24
1.04773E-02 2.89382E-24
1.09262E-02 2.66014E-24
1.13844E-02 2.44955E-24
1.18520E-02 2.25937E-24
1.23288E-02 2.08727E-24
1.28150E-02 1.93123E-24
1.33104E-02 1.78948E-24
1.38150E-02 1.66048E-24
1.43290E-02 1.54288E-24
1.48521E-02 1.43550E-24
1.53845E-02 1.33727E-24
1.59262E-02 1.24729E-24
1.64770E-02 1.16474E-24
1.70371E-02 1.08889E-24
1.76063E-02 1.01910E-24
1.81848E-02 9.54795E-25
1.87724E-02 8.95474E-25
1.93692E-02 8.40676E-25
1.99751E-02 7.89995E-25
2.05901E-02 7.43064E-25
2.12143E-02 6.99557E-25
2.18476E-02 6.59177E-25
2.24900E-02 6.21659E-25
2.31415E-02 5.86764E-25
2.38021E-02 5.54274E-25
2.44717E-02 5.23993E-25
2.51504E-02 4.95743E-25
2.58382E-02 4.69364E-25
2.65349E-02 4.44709E-25
2.72407E-02 4.21644E-25
2.79555E-02 4.00049E-25
2.86793E-02 3.79812E-25
2.94120E-02 3.60832E-25
3.01537E-02 3.43017E-25
3.09043E-02 3.26281E-25
3.16639E-02 3.10549E-25
3.24324E-02 2.95748E-25
3.32098E-02 2.81813E-25
3.39961E-02 2.68684E-25
3.47912E-02 2.56306E-25
3.55952E-02 2.44628E-25
3.64081E-02 2.33604E-25
3.72297E-02 2.23189E-25
3.80602E-02 2.13344E-25
3.88995E-02 2.04032E-25
3.97476E-02 1.95218E-25
4.06044E-02 1.86872E-25
4.14700E-02 1.78964E-25
4.23443E-02 1.71466E-25
4.32273E-02 1.64353E-25
4.41190E-02 1.57602E-25
4.50194E-02 1.51192E-25
4.59284E-02 1.45101E-25
4.68461E-02 1.39310E-25
4.87074E-02 1.28563E-25
5.06030E-02 1.18823E-25
5.25328E-02 1.09979E-25
5.44967E-02 1.01934E-25
5.64946E-02 9.46041E-26
5.85262E-02 8.79135E-26
6.05914E-02 8.17971E-26
6.26901E-02 7.61971E-26
6.48222E-02 7.10620E-26
6.69873E-02 6.63466E-26
6.91854E-02 6.20105E-26
7.14163E-02 5.80178E-26
7.36799E-02 5.43366E-26
7.59760E-02 5.09383E-26
7.83043E-02 4.77973E-26
8.06647E-02 4.48907E-26
8.30571E-02 4.21979E-26
8.54812E-02 3.97005E-26
8.79369E-02 3.73817E-26
9.04240E-02 3.52266E-26
9.29422E-02 3.32216E-26
9.54915E-02 3.13543E-26
9.80716E-02 2.96137E-26
1.00682E-01 2.79896E-26
1.03323E-01 2.64729E-26
1.05995E-01 2.50552E-26
1.08696E-01 2.37290E-26
1.11427E-01 2.24872E-26
1.14188E-01 2.13236E-26
1.16978E-01 2.02325E-26
1.19797E-01 1.92084E-26
1.22645E-01 1.82466E-26
1.25522E-01 1.73425E-26
1.28428E-01 1.64923E-26
1.31361E-01 1.56920E-26
1.34323E-01 1.49382E-26
1.37313E-01 1.42278E-26
1.40330E-01 1.35578E-26
1.43375E-01 1.29255E-26
1.46447E-01 1.23285E-26
1.49545E-01 1.17644E-26
1.52671E-01 1.12312E-26
1.55823E-01 1.07267E-26
1.59001E-01 1.02493E-26
1.62205E-01 9.79716E-27
1.65435E-01 9.36877E-27
1.68690E-01 8.96267E-27
1.71970E-01 8.57749E-27
1.75276E-01 8.21197E-27
1.78606E-01 7.86494E-27
1.81961E-01 7.53530E-27
1.85340E-01 7.22204E-27
1.88743E-01 6.92419E-27
1.92169E-01 6.64089E-27
1.95619E-01 6.37128E-27
1.99092E-01 6.11461E-27
2.02589E-01 5.87015E-27
2.06107E-01 5.63722E-27
2.09649E-01 5.41518E-27
2.13212E-01 5.20344E-27
2.16797E-01 5.00144E-27
2.20404E-01 4.80866E-27
2.24032E-01 4.62461E-27
2.27680E-01 4.44884E-27
2.31350E-01 4.28089E-27
2.35040E-01 4.12038E-27
2.38751E-01 3.96691E-27
2.42481E-01 3.82013E-27
2.46231E-01 3.67970E-27
2.50000E-01 3.54529E-27
2.53788E-01 3.41662E-27
2.57595E-01 3.29338E-27
2.61421E-01 3.17533E-27
2.65264E-01 3.06219E-27
2.69126E-01 2.95375E-27
2.73005E-01 2.84976E-27
2.76901E-01 2.75002E-27
2.80814E-01 2.65433E-27
2.84744E-01 2.56250E-27
2.88691E-01 2.47434E-27
2.92653E-01 2.38968E-27
2.96632E-01 2.30837E-27
3.00625E-01 2.23026E-27
3.04634E-01 2.15519E-27
3.08658E-01 2.08302E-27
3.12697E-01 2.01364E-27
3.16749E-01 1.94692E-27
3.20816E-01 1.88273E-27
3.24896E-01 1.82097E-27
3.28990E-01 1.76153E-27
3.33097E-01 1.70431E-27
3.37216E-01 1.64921E-27
3.41348E-01 1.59615E-27
3.45492E-01 1.54503E-27
3.49647E-01 1.49579E-27
3.53814E-01 1.44832E-27
3.57992E-01 1.40257E-27
3.62181E-01 1.35847E-27
3.66381E-01 1.31593E-27
3.70590E-01 1.27491E-27
3.74810E-01 1.23533E-27
3.79039E-01 1.19714E-27
3.83277E-01 1.16028E-27
3.87524E-01 1.12471E-27
3.91780E-01 1.09036E-27
3.96044E-01 1.05720E-27
4.00316E-01 1.02517E-27
4.04596E-01 9.94223E-28
4.08882E-01 9.64328E-28
4.13176E-01 9.35440E-28
4.17476E-01 9.07519E-28
4.21783E-01 8.80530E-28
4.26095E-01 8.54437E-28
4.30413E-01 8.29205E-28
4.34737E-01 8.04802E-28
4.39065E-01 7.81198E-28
4.43398E-01 7.58362E-28
4.47736E-01 7.36266E-28
4.52077E-01 7.14883E-28
4.56422E-01 6.94186E-28
4.60770E-01 6.74151E-28
4.65122E-01 6.54754E-28
4.69476E-01 6.35971E-28
4.73832E-01 6.17780E-28
4.78190E-01 6.00161E-28
4.82550E-01 5.83093E-28
4.86912E-01 5.66556E-28
4.91274E-01 5.50532E-28
4.95637E-01 5.35003E-28
5.00000E-01 5.19951E-28
5.04363E-01 5.05359E-28
5.08726E-01 4.91213E-28
5.13088E-01 4.77497E-28
5.17450E-01 4.64195E-28
5.21810E-01 4.51294E-28
5.26168E-01 4.38780E-28
5.30524E-01 4.26640E-28
5.34878E-01 4.14862E-28
5.39230E-01 4.03433E-28
5.43578E-01 3.92342E-28
5.47923E-01 3.81577E-28
5.52264E-01 3.71128E-28
5.56602E-01 3.60984E-28
5.60935E-01 3.51136E-28
5.65263E-01 3.41573E-28
5.69587E-01 3.32286E-28
5.73905E-01 3.23267E-28
5.78217E-01 3.14507E-28
5.82524E-01 3.05998E-28
5.86824E-01 2.97731E-28
5.91118E-01 2.89699E-28
5.95404E-01 2.81894E-28
5.99684E-01 2.74309E-28
6.03956E-01 2.66938E-28
6.08220E-01 2.59773E-28
6.12476E-01 2.52808E-28
6.16723E-01 2.46037E-28
6.20961E-01 2.39454E-28
6.25190E-01 2.33054E-28
6.29410E-01 2.26829E-28
6.33619E-01 2.20776E-28
6.37819E-01 2.14889E-28
6.42008E-01 2.09163E-28
6.46186E-01 2.03593E-28
6.50353E-01 1.98174E-28
6.54508E-01 1.92902E-28
6.58652E-01 1.87772E-28
6.62784E-01 1.82780E-28
6.66903E-01 1.77923E-28
6.71010E-01 1.73195E-28
6.75104E-01 1.68594E-28
6.79184E-01 1.64115E-28
6.83251E-01 1.59755E-28
6.87303E-01 1.55511E-28
6.91342E-01 1.51379E-28
6.95366E-01 1.47355E-28
6.99375E-01 1.43438E-28
7.03368E-01 1.39623E-28
7.07347E-01 1.35907E-28
7.11309E-01 1.32289E-28
7.15256E-01 1.28765E-28
7.19186E-01 1.25332E-28
7.23099E-01 1.21989E-28
7.26995E-01 1.18731E-28
7.30874E-01 1.15558E-28
7.34736E-01 1.12466E-28
7.38579E-01 1.09454E-28
7.42405E-01 1.06519E-28
7.46212E-01 1.03658E-28
7.50000E-01 1.00871E-28
7.53769E-01 9.81545E-29
7.57519E-01 9.55071E-29
7.61249E-01 9.29268E-29
7.64960E-01 9.04117E-29
7.68650E-01 8.79602E-29
7.72320E-01 8.55704E-29
7.75968E-01 8.32407E-29
7.79596E-01 8.09696E-29
7.83203E-01 7.87554E-29
7.86788E-01 7.65966E-29
7.90351E-01 7.44918E-29
7.93893E-01 7.24395E-29
7.97411E-01 7.04383E-29
8.00908E-01 6.84869E-29
8.04381E-01 6.65840E-29
8.07831E-01 6.47283E-29
8.11257E-01 6.29186E-29
8.14660E-01 6.11537E-29
8.18039E-01 5.94324E-29
8.21394E-01 5.77536E-29
8.24724E-01 5.61162E-29
8.28030E-01 5.45192E-29
8.31310E-01 5.29615E-29
8.34565E-01 5.14421E-29
8.37795E-01 4.99601E-29
8.40999E-01 4.85144E-29
8.44177E-01 4.71043E-29
8.47329E-01 4.57288E-29
8.50455E-01 4.43871E-29
8.53553E-01 4.30782E-29
8.56625E-01 4.18014E-29
8.59670E-01 4.05559E-29
8.62687E-01 3.93410E-29
8.65677E-01 3.81558E-29
8.68639E-01 3.69997E-29
8.71572E-01 3.58720E-29
8.74478E-01 3.47719E-29
8.77355E-01 3.36988E-29
8.80203E-01 3.26521E-29
8.83022E-01 3.16311E-29
8.85812E-01 3.06352E-29
8.88573E-01 2.96639E-29
8.91304E-01 2.87165E-29
8.94005E-01 2.77924E-29
8.96677E-01 2.68912E-29
8.99318E-01 2.60124E-29
9.01928E-01 2.51553E-29
9.04508E-01 2.43195E-29
9.07058E-01 2.35045E-29
9.09576E-01 2.27099E-29
9.12063E-01 2.19351E-29
9.14519E-01 2.11798E-29
9.16943E-01 2.04435E-29
9.19335E-01 1.97258E-29
9.21696E-01 1.90262E-29
9.24024E-01 1.83444E-29
9.26320E-01 1.76800E-29
9.28584E-01 1.70326E-29
9.30815E-01 1.64019E-29
9.33013E-01 1.57874E-29
9.35178E-01 1.51889E-29
9.37310E-01 1.46061E-29
9.39409E-01 1.40385E-29
9.41474E-01 1.34859E-29
9.43505E-01 1.29480E-29
9.45503E-01 1.24244E-29
9.47467E-01 1.19149E-29
9.49397E-01 1.14193E-29
9.51293E-01 1.09372E-29
9.53154E-01 1.04683E-29
9.54981E-01 1.00125E-29
9.56773E-01 9.56944E-30
9.58530E-01 9.13892E-30
9.60252E-01 8.72069E-30
9.61940E-01 8.31454E-30
9.63592E-01 7.92024E-30
9.65209E-01 7.53759E-30
9.66790E-01 7.16637E-30
9.68336E-01 6.80640E-30
9.69846E-01 6.45747E-30
9.71321E-01 6.11940E-30
9.72759E-01 5.79201E-30
9.74162E-01 5.47513E-30
9.75528E-01 5.16860E-30
9.76858E-01 4.87224E-30
9.78152E-01 4.58590E-30
9.79410E-01 4.30944E-30
9.80631E-01 4.04270E-30
9.81815E-01 3.78555E-30
9.82963E-01 3.53785E-30
9.84074E-01 3.29947E-30
9.85148E-01 3.07029E-30
9.86185E-01 2.85019E-30
9.87185E-01 2.63905E-30
9.88148E-01 2.43676E-30
9.89074E-01 2.24323E-30
9.89962E-01 2.05834E-30
9.90814E-01 1.88200E-30
9.91627E-01 1.71413E-30
9.92404E-01 1.55463E-30
9.93143E-01 1.40343E-30
9.93844E-01 1.26043E-30
9.94508E-01 1.12558E-30
9.95134E-01 9.98801E-31
9.95722E-01 8.80027E-31
9.96273E-01 7.69198E-31
9.96786E-01 6.66256E-31
9.97261E-01 5.71151E-31
9.97698E-01 4.83831E-31
9.98097E-01 4.04253E-31
9.98459E-01 3.32377E-31
9.98782E-01 2.68165E-31
9.99067E-01 2.11584E-31
9.99315E-01 1.62605E-31
9.99524E-01 1.21204E-31
9.99695E-01 8.73593E-32
9.99829E-01 6.10541E-32
9.99924E-01 4.22731E-32
9.99981E-01 3.10101E-32
1.00000E+00 2.72541E-32
