 #
 # Subroutine ELSEPA. Elastic scattering of electrons and positrons
 #                    by neutral atoms and positive ions
 #
 # Projectile: electron
 # Kinetic energy = 2.50000E+08 eV = 9.18733E+06 a.u.
 #
 # WARNING: High-energy factorization with free-atom DF screening.
 #          Absorption, polarization and exchange corrections are
 #          switched off.
 #          Phase shifts are calculated for the bare nucleus.
 #          Scattering amplitudes are not evaluated.
 #
 # Element: Ne,  Z =  10,  atomic weight = 2.01797E+01 g/mol
 #
 # Nuclear model: Fermi distribution
 #                Average radius = 2.91310E-13 cm
 #                Skin thickness = 5.46000E-14 cm
 #
 # Number of electrons = 10
 #
 # Total elastic cross section = 2.93286E-19 cm**2 = 1.04734E-02 a0**2
 # 1st transport cross section = 3.50971E-27 cm**2 = 1.25334E-10 a0**2
 # 2nd transport cross section = 1.05007E-26 cm**2 = 3.74985E-10 a0**2
 #
 #
 # Differential cross section:                       MU=(1-COS(THETA))/2
 #
 #  THETA        MU          DCS          DCS        Sherman      error
 #  (deg)                 (cm**2/sr)   (a0**2/sr)    function
 #----------------------------------------------------------------------
0.00000E+00 6.53413E-11
7.61557E-13 6.50823E-11
1.18994E-12 6.49379E-11
1.71346E-12 6.47622E-11
2.33225E-12 6.45554E-11
3.04617E-12 6.43183E-11
3.85530E-12 6.40509E-11
4.75964E-12 6.37539E-11
5.75917E-12 6.34281E-11
6.85391E-12 6.30743E-11
8.04379E-12 6.26928E-11
9.32893E-12 6.22841E-11
1.07092E-11 6.18496E-11
1.21847E-11 6.13904E-11
1.37554E-11 6.09069E-11
1.54213E-11 6.03993E-11
1.71823E-11 5.98696E-11
1.90386E-11 5.93188E-11
2.09900E-11 5.87482E-11
2.30367E-11 5.81567E-11
2.51785E-11 5.75249E-11
2.74156E-11 5.68381E-11
2.97478E-11 5.61645E-11
3.21752E-11 5.55054E-11
3.46979E-11 5.48619E-11
3.73157E-11 5.42348E-11
4.00286E-11 5.35156E-11
4.28368E-11 5.27515E-11
4.57402E-11 5.20115E-11
4.87388E-11 5.12956E-11
5.18325E-11 5.06036E-11
5.50215E-11 4.99355E-11
5.83057E-11 4.91186E-11
6.16850E-11 4.83220E-11
6.51595E-11 4.75558E-11
6.87293E-11 4.68191E-11
7.23943E-11 4.61110E-11
7.61544E-11 4.53830E-11
1.18991E-10 3.78245E-11
1.71347E-10 3.08766E-11
2.33223E-10 2.48775E-11
3.04617E-10 1.98790E-11
3.85531E-10 1.57802E-11
4.75965E-10 1.24967E-11
5.75917E-10 9.90796E-12
6.85389E-10 7.87873E-12
8.04380E-10 6.28938E-12
9.32891E-10 5.04528E-12
1.07092E-09 4.07137E-12
1.21847E-09 3.30493E-12
1.37554E-09 2.69874E-12
1.54213E-09 2.21748E-12
1.71823E-09 1.83489E-12
1.90386E-09 1.52883E-12
2.09900E-09 1.28206E-12
2.30367E-09 1.08125E-12
2.51785E-09 9.16716E-13
2.74156E-09 7.82025E-13
2.97478E-09 6.71667E-13
3.21752E-09 5.79265E-13
3.46978E-09 5.02503E-13
3.73156E-09 4.37876E-13
4.00286E-09 3.83379E-13
4.28368E-09 3.37146E-13
4.57402E-09 2.97700E-13
4.87388E-09 2.63943E-13
5.18326E-09 2.34855E-13
5.50215E-09 2.09747E-13
5.83057E-09 1.87923E-13
6.16850E-09 1.68925E-13
6.51596E-09 1.52296E-13
6.87293E-09 1.37701E-13
7.23942E-09 1.24842E-13
7.61544E-09 1.13471E-13
1.18991E-08 4.90401E-14
1.71347E-08 2.47040E-14
2.33223E-08 1.37871E-14
3.04617E-08 8.28288E-15
3.85531E-08 5.26440E-15
4.75965E-08 3.49940E-15
5.75917E-08 2.41301E-15
6.85389E-08 1.71582E-15
8.04380E-08 1.25229E-15
9.32891E-08 9.34737E-16
1.07092E-07 7.11463E-16
1.21847E-07 5.50872E-16
1.37554E-07 4.33039E-16
1.54213E-07 3.45029E-16
1.71823E-07 2.78245E-16
1.90386E-07 2.26840E-16
2.09900E-07 1.86760E-16
2.30367E-07 1.55144E-16
2.51785E-07 1.29936E-16
2.74156E-07 1.09642E-16
2.97478E-07 9.31563E-17
3.21752E-07 7.96536E-17
3.46978E-07 6.85095E-17
3.73156E-07 5.92468E-17
4.00286E-07 5.14971E-17
4.28368E-07 4.49736E-17
4.57402E-07 3.94506E-17
4.87388E-07 3.47497E-17
5.18325E-07 3.07284E-17
5.50215E-07 2.72721E-17
5.83057E-07 2.42883E-17
6.16850E-07 2.17015E-17
6.51596E-07 1.94500E-17
6.87293E-07 1.74831E-17
7.23942E-07 1.57585E-17
7.61543E-07 1.42414E-17
1.18991E-06 5.83486E-18
1.71347E-06 2.81410E-18
2.33223E-06 1.51908E-18
3.04617E-06 8.90511E-19
3.85531E-06 5.55974E-19
4.75964E-06 3.64794E-19
5.75916E-06 2.49173E-19
6.85388E-06 1.75942E-19
8.04378E-06 1.27745E-19
9.32888E-06 9.49789E-20
1.07092E-05 7.20770E-20
1.21846E-05 5.56806E-20
1.37553E-05 4.36929E-20
1.54212E-05 3.47647E-20
1.71822E-05 2.80050E-20
1.90385E-05 2.28108E-20
2.09899E-05 1.87677E-20
2.30365E-05 1.55820E-20
2.51783E-05 1.30445E-20
2.74153E-05 1.10030E-20
2.97475E-05 9.34578E-21
3.21749E-05 7.98914E-21
3.46974E-05 6.87000E-21
3.73152E-05 5.94019E-21
4.00281E-05 5.16254E-21
4.28362E-05 4.50810E-21
4.57395E-05 3.95416E-21
4.87380E-05 3.48276E-21
5.18317E-05 3.07956E-21
5.50205E-05 2.73306E-21
5.83045E-05 2.43395E-21
6.16838E-05 2.17468E-21
6.51582E-05 1.94903E-21
6.87277E-05 1.75191E-21
7.23925E-05 1.57910E-21
7.61524E-05 1.42507E-21
9.21439E-05 9.73231E-22
1.09658E-04 6.87062E-22
1.28695E-04 4.98736E-22
1.49255E-04 3.70714E-22
1.71338E-04 2.81242E-22
1.94942E-04 2.17193E-22
2.20070E-04 1.70371E-22
2.46720E-04 1.35504E-22
2.74892E-04 1.09110E-22
3.04586E-04 8.88352E-23
3.35803E-04 7.30529E-23
3.68542E-04 6.06205E-23
4.02802E-04 5.07201E-23
4.38585E-04 4.27577E-23
4.75889E-04 3.62955E-23
5.14715E-04 3.10069E-23
5.55063E-04 2.66453E-23
5.96931E-04 2.30226E-23
6.40321E-04 1.99936E-23
6.85233E-04 1.74454E-23
7.31665E-04 1.52893E-23
7.79618E-04 1.34552E-23
8.29092E-04 1.18870E-23
8.80086E-04 1.05400E-23
9.32601E-04 9.37765E-24
9.86636E-04 8.37054E-24
1.04219E-03 7.49445E-24
1.09927E-03 6.72948E-24
1.15786E-03 6.05916E-24
1.21797E-03 5.46980E-24
1.27961E-03 4.94997E-24
1.34276E-03 4.49007E-24
1.40743E-03 4.08201E-24
1.47362E-03 3.71896E-24
1.54133E-03 3.39509E-24
1.61056E-03 3.10546E-24
1.68131E-03 2.84582E-24
1.75357E-03 2.61252E-24
1.82735E-03 2.40245E-24
1.90265E-03 2.21287E-24
1.97947E-03 2.04146E-24
2.05780E-03 1.88616E-24
2.13765E-03 1.74520E-24
2.21902E-03 1.61702E-24
2.30190E-03 1.50026E-24
2.38630E-03 1.39373E-24
2.47222E-03 1.29637E-24
2.55965E-03 1.20727E-24
2.64859E-03 1.12558E-24
2.73905E-03 1.05060E-24
2.83103E-03 9.81671E-25
2.92452E-03 9.18220E-25
3.01952E-03 8.59737E-25
3.11604E-03 8.05764E-25
3.21407E-03 7.55893E-25
3.31362E-03 7.09757E-25
3.41468E-03 6.67028E-25
3.51725E-03 6.27409E-25
3.62133E-03 5.90635E-25
3.72692E-03 5.56466E-25
3.83403E-03 5.24684E-25
3.94265E-03 4.95095E-25
4.05278E-03 4.67519E-25
4.16442E-03 4.41797E-25
4.27757E-03 4.17781E-25
4.39223E-03 3.95339E-25
4.50840E-03 3.74349E-25
4.62608E-03 3.54701E-25
4.74527E-03 3.36295E-25
4.86597E-03 3.19038E-25
4.98817E-03 3.02846E-25
5.11188E-03 2.87642E-25
5.23711E-03 2.73354E-25
5.36383E-03 2.59919E-25
5.49207E-03 2.47276E-25
5.62181E-03 2.35371E-25
5.75306E-03 2.24153E-25
5.88581E-03 2.13576E-25
6.02007E-03 2.03596E-25
6.15583E-03 1.94174E-25
6.29310E-03 1.85274E-25
6.43187E-03 1.76861E-25
6.57214E-03 1.68905E-25
6.71392E-03 1.61375E-25
6.85720E-03 1.54247E-25
7.00198E-03 1.47494E-25
7.14827E-03 1.41093E-25
7.29605E-03 1.35023E-25
7.44534E-03 1.29263E-25
7.59612E-03 1.23796E-25
7.97965E-03 1.11296E-25
8.37255E-03 1.00276E-25
8.77480E-03 9.05333E-26
9.18641E-03 8.18981E-26
9.60736E-03 7.42247E-26
1.00376E-02 6.73897E-26
1.04773E-02 6.12875E-26
1.09262E-02 5.58276E-26
1.13844E-02 5.09321E-26
1.18520E-02 4.65340E-26
1.23288E-02 4.25752E-26
1.28150E-02 3.90052E-26
1.33104E-02 3.57802E-26
1.38150E-02 3.28620E-26
1.43290E-02 3.02172E-26
1.48521E-02 2.78163E-26
1.53845E-02 2.56337E-26
1.59262E-02 2.36467E-26
1.64770E-02 2.18353E-26
1.70371E-02 2.01817E-26
1.76063E-02 1.86703E-26
1.81848E-02 1.72871E-26
1.87724E-02 1.60199E-26
1.93692E-02 1.48575E-26
1.99751E-02 1.37902E-26
2.05901E-02 1.28090E-26
2.12143E-02 1.19062E-26
2.18476E-02 1.10746E-26
2.24900E-02 1.03079E-26
2.31415E-02 9.60046E-27
2.38021E-02 8.94703E-27
2.44717E-02 8.34300E-27
2.51504E-02 7.78418E-27
2.58382E-02 7.26676E-27
2.65349E-02 6.78731E-27
2.72407E-02 6.34272E-27
2.79555E-02 5.93015E-27
2.86793E-02 5.54703E-27
2.94120E-02 5.19101E-27
3.01537E-02 4.85997E-27
3.09043E-02 4.55195E-27
3.16639E-02 4.26518E-27
3.24324E-02 3.99805E-27
3.32098E-02 3.74905E-27
3.39961E-02 3.51683E-27
3.47912E-02 3.30015E-27
3.55952E-02 3.09785E-27
3.64081E-02 2.90890E-27
3.72297E-02 2.73232E-27
3.80602E-02 2.56722E-27
3.88995E-02 2.41280E-27
3.97476E-02 2.26829E-27
4.06044E-02 2.13300E-27
4.14700E-02 2.00630E-27
4.23443E-02 1.88758E-27
4.32273E-02 1.77631E-27
4.41190E-02 1.67197E-27
4.50194E-02 1.57411E-27
4.59284E-02 1.48228E-27
4.68461E-02 1.39608E-27
4.87074E-02 1.23913E-27
5.06030E-02 1.10059E-27
5.25328E-02 9.78163E-28
5.44967E-02 8.69852E-28
5.64946E-02 7.73935E-28
5.85262E-02 6.88915E-28
6.05914E-02 6.13487E-28
6.26901E-02 5.46516E-28
6.48222E-02 4.87010E-28
6.69873E-02 4.34100E-28
6.91854E-02 3.87026E-28
7.14163E-02 3.45120E-28
7.36799E-02 3.07794E-28
7.59760E-02 2.74533E-28
7.83043E-02 2.44882E-28
8.06647E-02 2.18438E-28
8.30571E-02 1.94848E-28
8.54812E-02 1.73796E-28
8.79369E-02 1.55005E-28
9.04240E-02 1.38229E-28
9.29422E-02 1.23249E-28
9.54915E-02 1.09871E-28
9.80716E-02 9.79231E-29
1.00682E-01 8.72515E-29
1.03323E-01 7.77197E-29
1.05995E-01 6.92063E-29
1.08696E-01 6.16028E-29
1.11427E-01 5.48126E-29
1.14188E-01 4.87494E-29
1.16978E-01 4.33364E-29
1.19797E-01 3.85046E-29
1.22645E-01 3.41928E-29
1.25522E-01 3.03459E-29
1.28428E-01 2.69149E-29
1.31361E-01 2.38558E-29
1.34323E-01 2.11294E-29
1.37313E-01 1.87004E-29
1.40330E-01 1.65374E-29
1.43375E-01 1.46122E-29
1.46447E-01 1.28995E-29
1.49545E-01 1.13767E-29
1.52671E-01 1.00236E-29
1.55823E-01 8.82211E-30
1.59001E-01 7.75590E-30
1.62205E-01 6.81046E-30
1.65435E-01 5.97278E-30
1.68690E-01 5.23119E-30
1.71970E-01 4.57526E-30
1.75276E-01 3.99565E-30
1.78606E-01 3.48398E-30
1.81961E-01 3.03278E-30
1.85340E-01 2.63536E-30
1.88743E-01 2.28574E-30
1.92169E-01 1.97855E-30
1.95619E-01 1.70902E-30
1.99092E-01 1.47289E-30
2.02589E-01 1.26634E-30
2.06107E-01 1.08596E-30
2.09649E-01 9.28732E-31
2.13212E-01 7.91940E-31
2.16797E-01 6.73177E-31
2.20404E-01 5.70299E-31
2.24032E-01 4.81396E-31
2.27680E-01 4.04774E-31
2.31350E-01 3.38925E-31
2.35040E-01 2.82511E-31
2.38751E-01 2.34347E-31
2.42481E-01 1.93383E-31
2.46231E-01 1.58690E-31
2.50000E-01 1.29445E-31
2.53788E-01 1.04924E-31
2.57595E-01 8.44874E-32
2.61421E-01 6.75724E-32
2.65264E-01 5.36841E-32
2.69126E-01 4.23881E-32
2.73005E-01 3.33037E-32
2.76901E-01 2.60980E-32
2.80814E-01 2.04806E-32
2.84744E-01 1.61983E-32
2.88691E-01 1.30312E-32
2.92653E-01 1.07887E-32
2.96632E-01 9.30619E-33
3.00625E-01 8.44173E-33
3.04634E-01 8.07356E-33
3.08658E-01 8.09750E-33
3.12697E-01 8.42489E-33
3.16749E-01 8.98059E-33
3.20816E-01 9.70133E-33
3.24896E-01 1.05341E-32
3.28990E-01 1.14349E-32
3.33097E-01 1.23676E-32
3.37216E-01 1.33026E-32
3.41348E-01 1.42163E-32
3.45492E-01 1.50899E-32
3.49647E-01 1.59091E-32
3.53814E-01 1.66630E-32
3.57992E-01 1.73439E-32
3.62181E-01 1.79465E-32
3.66381E-01 1.84680E-32
3.70590E-01 1.89072E-32
3.74810E-01 1.92642E-32
3.79039E-01 1.95406E-32
3.83277E-01 1.97388E-32
3.87524E-01 1.98619E-32
3.91780E-01 1.99137E-32
3.96044E-01 1.98984E-32
4.00316E-01 1.98203E-32
4.04596E-01 1.96842E-32
4.08882E-01 1.94947E-32
4.13176E-01 1.92566E-32
4.17476E-01 1.89746E-32
4.21783E-01 1.86533E-32
4.26095E-01 1.82971E-32
4.30413E-01 1.79104E-32
4.34737E-01 1.74972E-32
4.39065E-01 1.70616E-32
4.43398E-01 1.66070E-32
4.47736E-01 1.61371E-32
4.52077E-01 1.56551E-32
4.56422E-01 1.51639E-32
4.60770E-01 1.46663E-32
4.65122E-01 1.41649E-32
4.69476E-01 1.36619E-32
4.73832E-01 1.31596E-32
4.78190E-01 1.26597E-32
4.82550E-01 1.21639E-32
4.86912E-01 1.16739E-32
4.91274E-01 1.11910E-32
4.95637E-01 1.07163E-32
5.00000E-01 1.02509E-32
5.04363E-01 9.79568E-33
5.08726E-01 9.35134E-33
5.13088E-01 8.91856E-33
5.17450E-01 8.49782E-33
5.21810E-01 8.08955E-33
5.26168E-01 7.69406E-33
5.30524E-01 7.31157E-33
5.34878E-01 6.94222E-33
5.39230E-01 6.58609E-33
5.43578E-01 6.24320E-33
5.47923E-01 5.91349E-33
5.52264E-01 5.59686E-33
5.56602E-01 5.29318E-33
5.60935E-01 5.00226E-33
5.65263E-01 4.72387E-33
5.69587E-01 4.45778E-33
5.73905E-01 4.20371E-33
5.78217E-01 3.96136E-33
5.82524E-01 3.73042E-33
5.86824E-01 3.51057E-33
5.91118E-01 3.30148E-33
5.95404E-01 3.10280E-33
5.99684E-01 2.91416E-33
6.03956E-01 2.73523E-33
6.08220E-01 2.56564E-33
6.12476E-01 2.40503E-33
6.16723E-01 2.25306E-33
6.20961E-01 2.10937E-33
6.25190E-01 1.97362E-33
6.29410E-01 1.84545E-33
6.33619E-01 1.72454E-33
6.37819E-01 1.61057E-33
6.42008E-01 1.50320E-33
6.46186E-01 1.40212E-33
6.50353E-01 1.30704E-33
6.54508E-01 1.21766E-33
6.58652E-01 1.13370E-33
6.62784E-01 1.05487E-33
6.66903E-01 9.80915E-34
6.71010E-01 9.11577E-34
6.75104E-01 8.46612E-34
6.79184E-01 7.85783E-34
6.83251E-01 7.28862E-34
6.87303E-01 6.75631E-34
6.91342E-01 6.25887E-34
6.95366E-01 5.79430E-34
6.99375E-01 5.36064E-34
7.03368E-01 4.95618E-34
7.07347E-01 4.57912E-34
7.11309E-01 4.22788E-34
7.15256E-01 3.90086E-34
7.19186E-01 3.59661E-34
7.23099E-01 3.31374E-34
7.26995E-01 3.05088E-34
7.30874E-01 2.80679E-34
7.34736E-01 2.58029E-34
7.38579E-01 2.37025E-34
7.42405E-01 2.17558E-34
7.46212E-01 1.99530E-34
7.50000E-01 1.82846E-34
7.53769E-01 1.67417E-34
7.57519E-01 1.53157E-34
7.61249E-01 1.39988E-34
7.64960E-01 1.27835E-34
7.68650E-01 1.16629E-34
7.72320E-01 1.06302E-34
7.75968E-01 9.67939E-35
7.79596E-01 8.80461E-35
7.83203E-01 8.00057E-35
7.86788E-01 7.26201E-35
7.90351E-01 6.58424E-35
7.93893E-01 5.96280E-35
7.97411E-01 5.39354E-35
8.00908E-01 4.87251E-35
8.04381E-01 4.39611E-35
8.07831E-01 3.96093E-35
8.11257E-01 3.56387E-35
8.14660E-01 3.20196E-35
8.18039E-01 2.87241E-35
8.21394E-01 2.57270E-35
8.24724E-01 2.30044E-35
8.28030E-01 2.05343E-35
8.31310E-01 1.82961E-35
8.34565E-01 1.62713E-35
8.37795E-01 1.44418E-35
8.40999E-01 1.27910E-35
8.44177E-01 1.13041E-35
8.47329E-01 9.96699E-36
8.50455E-01 8.76672E-36
8.53553E-01 7.69147E-36
8.56625E-01 6.72989E-36
8.59670E-01 5.87198E-36
8.62687E-01 5.10814E-36
8.65677E-01 4.42985E-36
8.68639E-01 3.82910E-36
8.71572E-01 3.29845E-36
8.74478E-01 2.83128E-36
8.77355E-01 2.42135E-36
8.80203E-01 2.06293E-36
8.83022E-01 1.75087E-36
8.85812E-01 1.48041E-36
8.88573E-01 1.24715E-36
8.91304E-01 1.04714E-36
8.94005E-01 8.76750E-37
8.96677E-01 7.32687E-37
8.99318E-01 6.11940E-37
9.01928E-01 5.11759E-37
9.04508E-01 4.29690E-37
9.07058E-01 3.63480E-37
9.09576E-01 3.11046E-37
9.12063E-01 2.70669E-37
9.14519E-01 2.40584E-37
9.16943E-01 2.19307E-37
9.19335E-01 2.05612E-37
9.21696E-01 1.98192E-37
9.24024E-01 1.96024E-37
9.26320E-01 1.98192E-37
9.28584E-01 2.03884E-37
9.30815E-01 2.12185E-37
9.33013E-01 2.22602E-37
9.35178E-01 2.34487E-37
9.37310E-01 2.47384E-37
9.39409E-01 2.60782E-37
9.41474E-01 2.74419E-37
9.43505E-01 2.87773E-37
9.45503E-01 3.00724E-37
9.47467E-01 3.13251E-37
9.49397E-01 3.24608E-37
9.51293E-01 3.35171E-37
9.53154E-01 3.44556E-37
9.54981E-01 3.52762E-37
9.56773E-01 3.59590E-37
9.58530E-01 3.65258E-37
9.60252E-01 3.69449E-37
9.61940E-01 3.72301E-37
9.63592E-01 3.73792E-37
9.65209E-01 3.73967E-37
9.66790E-01 3.72877E-37
9.68336E-01 3.70372E-37
9.69846E-01 3.66845E-37
9.71321E-01 3.61993E-37
9.72759E-01 3.56249E-37
9.74162E-01 3.49253E-37
9.75528E-01 3.41414E-37
9.76858E-01 3.32775E-37
9.78152E-01 3.23141E-37
9.79410E-01 3.12887E-37
9.80631E-01 3.01940E-37
9.81815E-01 2.90476E-37
9.82963E-01 2.78446E-37
9.84074E-01 2.66082E-37
9.85148E-01 2.53280E-37
9.86185E-01 2.40340E-37
9.87185E-01 2.27083E-37
9.88148E-01 2.13663E-37
9.89074E-01 2.00306E-37
9.89962E-01 1.86873E-37
9.90814E-01 1.73517E-37
9.91627E-01 1.60346E-37
9.92404E-01 1.47440E-37
9.93143E-01 1.34706E-37
9.93844E-01 1.22373E-37
9.94508E-01 1.10380E-37
9.95134E-01 9.87708E-38
9.95722E-01 8.76190E-38
9.96273E-01 7.70227E-38
9.96786E-01 6.69197E-38
9.97261E-01 5.75197E-38
9.97698E-01 4.86505E-38
9.98097E-01 4.04415E-38
9.98459E-01 3.29218E-38
9.98782E-01 2.62340E-38
9.99067E-01 2.01592E-38
9.99315E-01 1.48754E-38
9.99524E-01 1.03861E-38
9.99695E-01 6.66723E-39
9.99829E-01 3.81458E-39
9.99924E-01 1.71545E-39
9.99981E-01 4.85793E-40
1.00000E+00 6.05499E-41
