 #
 # Subroutine ELSEPA. Elastic scattering of electrons and positrons
 #                    by neutral atoms and positive ions
 #
 # Projectile: electron
 # Kinetic energy = 6.00000E+08 eV = 2.20496E+07 a.u.
 #
 # WARNING: High-energy factorization with free-atom DF screening.
 #          Absorption, polarization and exchange corrections are
 #          switched off.
 #          Phase shifts are calculated for the bare nucleus.
 #          Scattering amplitudes are not evaluated.
 #
 # Element: Ne,  Z =  10,  atomic weight = 2.01797E+01 g/mol
 #
 # Nuclear model: Fermi distribution
 #                Average radius = 2.91310E-13 cm
 #                Skin thickness = 5.46000E-14 cm
 #
 # Number of electrons = 10
 #
 # Total elastic cross section = 2.93216E-19 cm**2 = 1.04709E-02 a0**2
 # 1st transport cross section = 6.11729E-28 cm**2 = 2.18452E-11 a0**2
 # 2nd transport cross section = 1.83428E-27 cm**2 = 6.55034E-11 a0**2
 #
 #
 # Differential cross section:                       MU=(1-COS(THETA))/2
 #
 #  THETA        MU          DCS          DCS        Sherman      error
 #  (deg)                 (cm**2/sr)   (a0**2/sr)    function
 #----------------------------------------------------------------------
0.00000E+00 3.75471E-10
7.61557E-13 3.67072E-10
1.18994E-12 3.62474E-10
1.71346E-12 3.56965E-10
2.33225E-12 3.50609E-10
3.04617E-12 3.43478E-10
3.85530E-12 3.35648E-10
4.75964E-12 3.26720E-10
5.75917E-12 3.17577E-10
6.85391E-12 3.08564E-10
8.04379E-12 2.98194E-10
9.32893E-12 2.88616E-10
1.07092E-11 2.77865E-10
1.21847E-11 2.67576E-10
1.37554E-11 2.57193E-10
1.54213E-11 2.46474E-10
1.71823E-11 2.36665E-10
1.90386E-11 2.25801E-10
2.09900E-11 2.16025E-10
2.30367E-11 2.05909E-10
2.51785E-11 1.96255E-10
2.74156E-11 1.87039E-10
2.97478E-11 1.77689E-10
3.21752E-11 1.69278E-10
3.46979E-11 1.60436E-10
3.73157E-11 1.52418E-10
4.00286E-11 1.44536E-10
4.28368E-11 1.36992E-10
4.57402E-11 1.29978E-10
4.87388E-11 1.22958E-10
5.18325E-11 1.16607E-10
5.50215E-11 1.10247E-10
5.83057E-11 1.04382E-10
6.16850E-11 9.87761E-11
6.51595E-11 9.33985E-11
6.87293E-11 8.84532E-11
7.23943E-11 8.35544E-11
7.61544E-11 7.90901E-11
1.18991E-10 4.54235E-11
1.71347E-10 2.66886E-11
2.33223E-10 1.62025E-11
3.04617E-10 1.02037E-11
3.85531E-10 6.67607E-12
4.75965E-10 4.51369E-12
5.75917E-10 3.15658E-12
6.85389E-10 2.27166E-12
8.04380E-10 1.67700E-12
9.32891E-10 1.26616E-12
1.07092E-09 9.75056E-13
1.21847E-09 7.64034E-13
1.37554E-09 6.07895E-13
1.54213E-09 4.90219E-13
1.71823E-09 4.00047E-13
1.90386E-09 3.29936E-13
2.09900E-09 2.74698E-13
2.30367E-09 2.30660E-13
2.51785E-09 1.95171E-13
2.74156E-09 1.66295E-13
2.97478E-09 1.42592E-13
3.21752E-09 1.22979E-13
3.46978E-09 1.06631E-13
3.73156E-09 9.29135E-14
4.00286E-09 8.13312E-14
4.28368E-09 7.14960E-14
4.57402E-09 6.30999E-14
4.87388E-09 5.58972E-14
5.18326E-09 4.96896E-14
5.50215E-09 4.43166E-14
5.83057E-09 3.96471E-14
6.16850E-09 3.55735E-14
6.51596E-09 3.20067E-14
6.87293E-09 2.88735E-14
7.23942E-09 2.61123E-14
7.61544E-09 2.36716E-14
1.18991E-08 9.90538E-15
1.71347E-08 4.82761E-15
2.33223E-08 2.62036E-15
3.04617E-08 1.54079E-15
3.85531E-08 9.63678E-16
4.75965E-08 6.32988E-16
5.75917E-08 4.32658E-16
6.85389E-08 3.05637E-16
8.04380E-08 2.21976E-16
9.32891E-08 1.65072E-16
1.07092E-07 1.25285E-16
1.21847E-07 9.67923E-17
1.37554E-07 7.59572E-17
1.54213E-07 6.04379E-17
1.71823E-07 4.86870E-17
1.90386E-07 3.96578E-17
2.09900E-07 3.26272E-17
2.30367E-07 2.70877E-17
2.51785E-07 2.26755E-17
2.74156E-07 1.91262E-17
2.97478E-07 1.62449E-17
3.21752E-07 1.38864E-17
3.46978E-07 1.19407E-17
3.73156E-07 1.03242E-17
4.00286E-07 8.97226E-18
4.28368E-07 7.83451E-18
4.57402E-07 6.87153E-18
4.87388E-07 6.05207E-18
5.18325E-07 5.35120E-18
5.50215E-07 4.74891E-18
5.83057E-07 4.22903E-18
6.16850E-07 3.77838E-18
6.51596E-07 3.38619E-18
6.87293E-07 3.04360E-18
7.23942E-07 2.74325E-18
7.61543E-07 2.47906E-18
1.18991E-06 1.01548E-18
1.71347E-06 4.89746E-19
2.33223E-06 2.64367E-19
3.04617E-06 1.54975E-19
3.85531E-06 9.67549E-20
4.75964E-06 6.34841E-20
5.75916E-06 4.33627E-20
6.85388E-06 3.06185E-20
8.04378E-06 2.22309E-20
9.32888E-06 1.65288E-20
1.07092E-05 1.25432E-20
1.21846E-05 9.68983E-21
1.37553E-05 7.60365E-21
1.54212E-05 6.04992E-21
1.71822E-05 4.87357E-21
1.90385E-05 3.96965E-21
2.09899E-05 3.26604E-21
2.30365E-05 2.71166E-21
2.51783E-05 2.27006E-21
2.74153E-05 1.91480E-21
2.97475E-05 1.62639E-21
3.21749E-05 1.39030E-21
3.46974E-05 1.19555E-21
3.73152E-05 1.03374E-21
4.00281E-05 8.98406E-22
4.28362E-05 7.84518E-22
4.57395E-05 6.88120E-22
4.87380E-05 6.06084E-22
5.18317E-05 5.35918E-22
5.50205E-05 4.75618E-22
5.83045E-05 4.23567E-22
6.16838E-05 3.78446E-22
6.51582E-05 3.39178E-22
6.87277E-05 3.04874E-22
7.23925E-05 2.74801E-22
7.61524E-05 2.46304E-22
9.21439E-05 1.67961E-22
1.09658E-04 1.18382E-22
1.28695E-04 8.57807E-23
1.49255E-04 6.36392E-23
1.71338E-04 4.81803E-23
1.94942E-04 3.71257E-23
2.20070E-04 2.90536E-23
2.46720E-04 2.30500E-23
2.74892E-04 1.85111E-23
3.04586E-04 1.50292E-23
3.35803E-04 1.23227E-23
3.68542E-04 1.01940E-23
4.02802E-04 8.50158E-24
4.38585E-04 7.14270E-24
4.75889E-04 6.04179E-24
5.14715E-04 5.14247E-24
5.55063E-04 4.40223E-24
5.96931E-04 3.78860E-24
6.40321E-04 3.27661E-24
6.85233E-04 2.84682E-24
7.31665E-04 2.48398E-24
7.79618E-04 2.17603E-24
8.29092E-04 1.91339E-24
8.80086E-04 1.68833E-24
9.32601E-04 1.49464E-24
9.86636E-04 1.32727E-24
1.04219E-03 1.18207E-24
1.09927E-03 1.05564E-24
1.15786E-03 9.45182E-25
1.21797E-03 8.48357E-25
1.27961E-03 7.63221E-25
1.34276E-03 6.88140E-25
1.40743E-03 6.21742E-25
1.47362E-03 5.62865E-25
1.54133E-03 5.10526E-25
1.61056E-03 4.63886E-25
1.68131E-03 4.22228E-25
1.75357E-03 3.84938E-25
1.82735E-03 3.51488E-25
1.90265E-03 3.21421E-25
1.97947E-03 2.94344E-25
2.05780E-03 2.69913E-25
2.13765E-03 2.47832E-25
2.21902E-03 2.27840E-25
2.30190E-03 2.09711E-25
2.38630E-03 1.93244E-25
2.47222E-03 1.78265E-25
2.55965E-03 1.64620E-25
2.64859E-03 1.52172E-25
2.73905E-03 1.40802E-25
2.83103E-03 1.30402E-25
2.92452E-03 1.20879E-25
3.01952E-03 1.12146E-25
3.11604E-03 1.04131E-25
3.21407E-03 9.67653E-26
3.31362E-03 8.99892E-26
3.41468E-03 8.37491E-26
3.51725E-03 7.79968E-26
3.62133E-03 7.26892E-26
3.72692E-03 6.77871E-26
3.83403E-03 6.32556E-26
3.94265E-03 5.90630E-26
4.05278E-03 5.51806E-26
4.16442E-03 5.15826E-26
4.27757E-03 4.82454E-26
4.39223E-03 4.51479E-26
4.50840E-03 4.22707E-26
4.62608E-03 3.95961E-26
4.74527E-03 3.71082E-26
4.86597E-03 3.47925E-26
4.98817E-03 3.26355E-26
5.11188E-03 3.06252E-26
5.23711E-03 2.87504E-26
5.36383E-03 2.70010E-26
5.49207E-03 2.53676E-26
5.62181E-03 2.38417E-26
5.75306E-03 2.24155E-26
5.88581E-03 2.10817E-26
6.02007E-03 1.98338E-26
6.15583E-03 1.86656E-26
6.29310E-03 1.75715E-26
6.43187E-03 1.65464E-26
6.57214E-03 1.55855E-26
6.71392E-03 1.46843E-26
6.85720E-03 1.38388E-26
7.00198E-03 1.30453E-26
7.14827E-03 1.23003E-26
7.29605E-03 1.16004E-26
7.44534E-03 1.09428E-26
7.59612E-03 1.03247E-26
7.97965E-03 8.93570E-27
8.37255E-03 7.74242E-27
8.77480E-03 6.71538E-27
9.18641E-03 5.82988E-27
9.60736E-03 5.06521E-27
1.00376E-02 4.40392E-27
1.04773E-02 3.83127E-27
1.09262E-02 3.33478E-27
1.13844E-02 2.90385E-27
1.18520E-02 2.52945E-27
1.23288E-02 2.20389E-27
1.28150E-02 1.92056E-27
1.33104E-02 1.67382E-27
1.38150E-02 1.45881E-27
1.43290E-02 1.27135E-27
1.48521E-02 1.10785E-27
1.53845E-02 9.65186E-28
1.59262E-02 8.40673E-28
1.64770E-02 7.31979E-28
1.70371E-02 6.37083E-28
1.76063E-02 5.54229E-28
1.81848E-02 4.81890E-28
1.87724E-02 4.18737E-28
1.93692E-02 3.63613E-28
1.99751E-02 3.15508E-28
2.05901E-02 2.73540E-28
2.12143E-02 2.36941E-28
2.18476E-02 2.05038E-28
2.24900E-02 1.77242E-28
2.31415E-02 1.53039E-28
2.38021E-02 1.31977E-28
2.44717E-02 1.13664E-28
2.51504E-02 9.77525E-29
2.58382E-02 8.39404E-29
2.65349E-02 7.19622E-29
2.72407E-02 6.15856E-29
2.79555E-02 5.26066E-29
2.86793E-02 4.48468E-29
2.94120E-02 3.81497E-29
3.01537E-02 3.23780E-29
3.09043E-02 2.74119E-29
3.16639E-02 2.31461E-29
3.24324E-02 1.94886E-29
3.32098E-02 1.63588E-29
3.39961E-02 1.36864E-29
3.47912E-02 1.14098E-29
3.55952E-02 9.47526E-30
3.64081E-02 7.83589E-30
3.72297E-02 6.45079E-30
3.80602E-02 5.28434E-30
3.88995E-02 4.30552E-30
3.97476E-02 3.48740E-30
4.06044E-02 2.80656E-30
4.14700E-02 2.24271E-30
4.23443E-02 1.77829E-30
4.32273E-02 1.39811E-30
4.41190E-02 1.08906E-30
4.50194E-02 8.39840E-31
4.59284E-02 6.40753E-31
4.68461E-02 4.83468E-31
4.87074E-02 2.66852E-31
5.06030E-02 1.44714E-31
5.25328E-02 8.44607E-32
5.44967E-02 6.29828E-32
5.64946E-02 6.41990E-32
5.85262E-02 7.71899E-32
6.05914E-02 9.47831E-32
6.26901E-02 1.12487E-31
6.48222E-02 1.27693E-31
6.69873E-02 1.39088E-31
6.91854E-02 1.46218E-31
7.14163E-02 1.49175E-31
7.36799E-02 1.48377E-31
7.59760E-02 1.44409E-31
7.83043E-02 1.37919E-31
8.06647E-02 1.29551E-31
8.30571E-02 1.19898E-31
8.54812E-02 1.09485E-31
8.79369E-02 9.87512E-32
9.04240E-02 8.80562E-32
9.29422E-02 7.76783E-32
9.54915E-02 6.78242E-32
9.80716E-02 5.86377E-32
1.00682E-01 5.02095E-32
1.03323E-01 4.25862E-32
1.05995E-01 3.57800E-32
1.08696E-01 2.97758E-32
1.11427E-01 2.45392E-32
1.14188E-01 2.00215E-32
1.16978E-01 1.61653E-32
1.19797E-01 1.29084E-32
1.22645E-01 1.01868E-32
1.25522E-01 7.93708E-33
1.28428E-01 6.09833E-33
1.31361E-01 4.61332E-33
1.34323E-01 3.42932E-33
1.37313E-01 2.49854E-33
1.40330E-01 1.77828E-33
1.43375E-01 1.23094E-33
1.46447E-01 8.23823E-34
1.49545E-01 5.28851E-34
1.52671E-01 3.22188E-34
1.55823E-01 1.83859E-34
1.59001E-01 9.73281E-35
1.62205E-01 4.90893E-35
1.65435E-01 2.82670E-35
1.68690E-01 2.62409E-35
1.71970E-01 3.62993E-35
1.75276E-01 5.33277E-35
1.78606E-01 7.35269E-35
1.81961E-01 9.41684E-35
1.85340E-01 1.13380E-34
1.88743E-01 1.29965E-34
1.92169E-01 1.43245E-34
1.95619E-01 1.52933E-34
1.99092E-01 1.59026E-34
2.02589E-01 1.61720E-34
2.06107E-01 1.61343E-34
2.09649E-01 1.58297E-34
2.13212E-01 1.53023E-34
2.16797E-01 1.45965E-34
2.20404E-01 1.37552E-34
2.24032E-01 1.28179E-34
2.27680E-01 1.18206E-34
2.31350E-01 1.07943E-34
2.35040E-01 9.76519E-35
2.38751E-01 8.75513E-35
2.42481E-01 7.78131E-35
2.46231E-01 6.85688E-35
2.50000E-01 5.99143E-35
2.53788E-01 5.19117E-35
2.57595E-01 4.45975E-35
2.61421E-01 3.79836E-35
2.65264E-01 3.20649E-35
2.69126E-01 2.68206E-35
2.73005E-01 2.22188E-35
2.76901E-01 1.82200E-35
2.80814E-01 1.47790E-35
2.84744E-01 1.18474E-35
2.88691E-01 9.37539E-36
2.92653E-01 7.31376E-36
2.96632E-01 5.61425E-36
3.00625E-01 4.23117E-36
3.04634E-01 3.12133E-36
3.08658E-01 2.24507E-36
3.12697E-01 1.56613E-36
3.16749E-01 1.05198E-36
3.20816E-01 6.73584E-37
3.24896E-01 4.05507E-37
3.28990E-01 2.25528E-37
3.33097E-01 1.14644E-37
3.37216E-01 5.66693E-38
3.41348E-01 3.80371E-38
3.45492E-01 4.75502E-38
3.49647E-01 7.60606E-38
3.53814E-01 1.16253E-37
3.57992E-01 1.62377E-37
3.62181E-01 2.10057E-37
3.66381E-01 2.56026E-37
3.70590E-01 2.97998E-37
3.74810E-01 3.34396E-37
3.79039E-01 3.64360E-37
3.83277E-01 3.87464E-37
3.87524E-01 4.03665E-37
3.91780E-01 4.13244E-37
3.96044E-01 4.16610E-37
4.00316E-01 4.14411E-37
4.04596E-01 4.07275E-37
4.08882E-01 3.95906E-37
4.13176E-01 3.81076E-37
4.17476E-01 3.63442E-37
4.21783E-01 3.43671E-37
4.26095E-01 3.22368E-37
4.30413E-01 3.00115E-37
4.34737E-01 2.77353E-37
4.39065E-01 2.54566E-37
4.43398E-01 2.32057E-37
4.47736E-01 2.10152E-37
4.52077E-01 1.89108E-37
4.56422E-01 1.69074E-37
4.60770E-01 1.50213E-37
4.65122E-01 1.32609E-37
4.69476E-01 1.16318E-37
4.73832E-01 1.01380E-37
4.78190E-01 8.77674E-38
4.82550E-01 7.54642E-38
4.86912E-01 6.44198E-38
4.91274E-01 5.45809E-38
4.95637E-01 4.58841E-38
5.00000E-01 3.82347E-38
5.04363E-01 3.15843E-38
5.08726E-01 2.58188E-38
5.13088E-01 2.08788E-38
5.17450E-01 1.66758E-38
5.21810E-01 1.31329E-38
5.26168E-01 1.01818E-38
5.30524E-01 7.74845E-39
5.34878E-01 5.76885E-39
5.39230E-01 4.18240E-39
5.43578E-01 2.93685E-39
5.47923E-01 1.98043E-39
5.52264E-01 1.26576E-39
5.56602E-01 7.54331E-40
5.60935E-01 1.00000E-45
5.65263E-01 1.00000E-45
5.69587E-01 1.00000E-45
5.73905E-01 1.00000E-45
5.78217E-01 1.00000E-45
5.82524E-01 1.00000E-45
5.86824E-01 1.00000E-45
5.91118E-01 1.00000E-45
5.95404E-01 1.00000E-45
5.99684E-01 1.00000E-45
6.03956E-01 1.00000E-45
6.08220E-01 1.00000E-45
6.12476E-01 1.00000E-45
6.16723E-01 1.00000E-45
6.20961E-01 1.00000E-45
6.25190E-01 1.00000E-45
6.29410E-01 1.00000E-45
6.33619E-01 1.00000E-45
6.37819E-01 1.00000E-45
6.42008E-01 1.00000E-45
6.46186E-01 1.00000E-45
6.50353E-01 1.00000E-45
6.54508E-01 1.00000E-45
6.58652E-01 1.00000E-45
6.62784E-01 1.00000E-45
6.66903E-01 1.00000E-45
6.71010E-01 1.00000E-45
6.75104E-01 1.00000E-45
6.79184E-01 1.00000E-45
6.83251E-01 1.00000E-45
6.87303E-01 1.00000E-45
6.91342E-01 1.00000E-45
6.95366E-01 1.00000E-45
6.99375E-01 1.00000E-45
7.03368E-01 1.00000E-45
7.07347E-01 1.00000E-45
7.11309E-01 1.00000E-45
7.15256E-01 1.00000E-45
7.19186E-01 1.00000E-45
7.23099E-01 1.00000E-45
7.26995E-01 1.00000E-45
7.30874E-01 1.00000E-45
7.34736E-01 1.00000E-45
7.38579E-01 1.00000E-45
7.42405E-01 1.00000E-45
7.46212E-01 1.00000E-45
7.50000E-01 1.00000E-45
7.53769E-01 1.00000E-45
7.57519E-01 1.00000E-45
7.61249E-01 1.00000E-45
7.64960E-01 1.00000E-45
7.68650E-01 1.00000E-45
7.72320E-01 1.00000E-45
7.75968E-01 1.00000E-45
7.79596E-01 1.00000E-45
7.83203E-01 1.00000E-45
7.86788E-01 1.00000E-45
7.90351E-01 1.00000E-45
7.93893E-01 1.00000E-45
7.97411E-01 1.00000E-45
8.00908E-01 1.00000E-45
8.04381E-01 1.00000E-45
8.07831E-01 1.00000E-45
8.11257E-01 1.00000E-45
8.14660E-01 1.00000E-45
8.18039E-01 1.00000E-45
8.21394E-01 1.00000E-45
8.24724E-01 1.00000E-45
8.28030E-01 1.00000E-45
8.31310E-01 1.00000E-45
8.34565E-01 1.00000E-45
8.37795E-01 1.00000E-45
8.40999E-01 1.00000E-45
8.44177E-01 1.00000E-45
8.47329E-01 1.00000E-45
8.50455E-01 1.00000E-45
8.53553E-01 1.00000E-45
8.56625E-01 1.00000E-45
8.59670E-01 1.00000E-45
8.62687E-01 1.00000E-45
8.65677E-01 1.00000E-45
8.68639E-01 1.00000E-45
8.71572E-01 1.00000E-45
8.74478E-01 1.00000E-45
8.77355E-01 1.00000E-45
8.80203E-01 1.00000E-45
8.83022E-01 1.00000E-45
8.85812E-01 1.00000E-45
8.88573E-01 1.00000E-45
8.91304E-01 1.00000E-45
8.94005E-01 1.00000E-45
8.96677E-01 1.00000E-45
8.99318E-01 1.00000E-45
9.01928E-01 1.00000E-45
9.04508E-01 1.00000E-45
9.07058E-01 1.00000E-45
9.09576E-01 1.00000E-45
9.12063E-01 1.00000E-45
9.14519E-01 1.00000E-45
9.16943E-01 1.00000E-45
9.19335E-01 1.00000E-45
9.21696E-01 1.00000E-45
9.24024E-01 1.00000E-45
9.26320E-01 1.00000E-45
9.28584E-01 1.00000E-45
9.30815E-01 1.00000E-45
9.33013E-01 1.00000E-45
9.35178E-01 1.00000E-45
9.37310E-01 1.00000E-45
9.39409E-01 1.00000E-45
9.41474E-01 1.00000E-45
9.43505E-01 1.00000E-45
9.45503E-01 1.00000E-45
9.47467E-01 1.00000E-45
9.49397E-01 1.00000E-45
9.51293E-01 1.00000E-45
9.53154E-01 1.00000E-45
9.54981E-01 1.00000E-45
9.56773E-01 1.00000E-45
9.58530E-01 1.00000E-45
9.60252E-01 1.00000E-45
9.61940E-01 1.00000E-45
9.63592E-01 1.00000E-45
9.65209E-01 1.00000E-45
9.66790E-01 1.00000E-45
9.68336E-01 1.00000E-45
9.69846E-01 1.00000E-45
9.71321E-01 1.00000E-45
9.72759E-01 1.00000E-45
9.74162E-01 1.00000E-45
9.75528E-01 1.00000E-45
9.76858E-01 1.00000E-45
9.78152E-01 1.00000E-45
9.79410E-01 1.00000E-45
9.80631E-01 1.00000E-45
9.81815E-01 1.00000E-45
9.82963E-01 1.00000E-45
9.84074E-01 1.00000E-45
9.85148E-01 1.00000E-45
9.86185E-01 1.00000E-45
9.87185E-01 1.00000E-45
9.88148E-01 1.00000E-45
9.89074E-01 1.00000E-45
9.89962E-01 1.00000E-45
9.90814E-01 1.00000E-45
9.91627E-01 1.00000E-45
9.92404E-01 1.00000E-45
9.93143E-01 1.00000E-45
9.93844E-01 1.00000E-45
9.94508E-01 1.00000E-45
9.95134E-01 1.00000E-45
9.95722E-01 1.00000E-45
9.96273E-01 1.00000E-45
9.96786E-01 1.00000E-45
9.97261E-01 1.00000E-45
9.97698E-01 1.00000E-45
9.98097E-01 1.00000E-45
9.98459E-01 1.00000E-45
9.98782E-01 1.00000E-45
9.99067E-01 1.00000E-45
9.99315E-01 1.00000E-45
9.99524E-01 1.00000E-45
9.99695E-01 1.00000E-45
9.99829E-01 1.00000E-45
9.99924E-01 1.00000E-45
9.99981E-01 1.00000E-45
1.00000E+00 1.00000E-45
