 #
 # Subroutine ELSEPA. Elastic scattering of electrons and positrons
 #                    by neutral atoms and positive ions
 #
 # Projectile: electron
 # Kinetic energy = 2.00000E+08 eV = 7.34987E+06 a.u.
 #
 # WARNING: High-energy factorization with free-atom DF screening.
 #          Absorption, polarization and exchange corrections are
 #          switched off.
 #          Phase shifts are calculated for the bare nucleus.
 #          Scattering amplitudes are not evaluated.
 #
 # Element: Ne,  Z =  10,  atomic weight = 2.01797E+01 g/mol
 #
 # Nuclear model: Fermi distribution
 #                Average radius = 2.91310E-13 cm
 #                Skin thickness = 5.46000E-14 cm
 #
 # Number of electrons = 10
 #
 # Total elastic cross section = 2.93416E-19 cm**2 = 1.04781E-02 a0**2
 # 1st transport cross section = 5.47219E-27 cm**2 = 1.95415E-10 a0**2
 # 2nd transport cross section = 1.63492E-26 cm**2 = 5.83840E-10 a0**2
 #
 #
 # Differential cross section:                       MU=(1-COS(THETA))/2
 #
 #  THETA        MU          DCS          DCS        Sherman      error
 #  (deg)                 (cm**2/sr)   (a0**2/sr)    function
 #----------------------------------------------------------------------
0.00000E+00 4.18611E-11
7.61557E-13 4.17545E-11
1.18994E-12 4.16950E-11
1.71346E-12 4.16225E-11
2.33225E-12 4.15372E-11
3.04617E-12 4.14390E-11
3.85530E-12 4.13283E-11
4.75964E-12 4.12050E-11
5.75917E-12 4.10693E-11
6.85391E-12 4.09217E-11
8.04379E-12 4.07618E-11
9.32893E-12 4.05903E-11
1.07092E-11 4.04073E-11
1.21847E-11 4.02128E-11
1.37554E-11 4.00076E-11
1.54213E-11 3.97911E-11
1.71823E-11 3.95645E-11
1.90386E-11 3.93274E-11
2.09900E-11 3.90803E-11
2.30367E-11 3.88242E-11
2.51785E-11 3.85577E-11
2.74156E-11 3.82830E-11
2.97478E-11 3.79991E-11
3.21752E-11 3.77069E-11
3.46979E-11 3.74072E-11
3.73157E-11 3.70989E-11
4.00286E-11 3.67597E-11
4.28368E-11 3.64082E-11
4.57402E-11 3.60621E-11
4.87388E-11 3.57220E-11
5.18325E-11 3.53881E-11
5.50215E-11 3.50607E-11
5.83057E-11 3.47401E-11
6.16850E-11 3.43773E-11
6.51595E-11 3.39820E-11
6.87293E-11 3.35966E-11
7.23943E-11 3.32210E-11
7.61544E-11 3.28553E-11
1.18991E-10 2.90638E-11
1.71347E-10 2.51355E-11
2.33223E-10 2.15074E-11
3.04617E-10 1.81623E-11
3.85531E-10 1.52326E-11
4.75965E-10 1.27232E-11
5.75917E-10 1.05699E-11
6.85389E-10 8.78555E-12
8.04380E-10 7.28648E-12
9.32891E-10 6.05409E-12
1.07092E-09 5.04040E-12
1.21847E-09 4.20541E-12
1.37554E-09 3.52365E-12
1.54213E-09 2.95985E-12
1.71823E-09 2.49681E-12
1.90386E-09 2.11374E-12
2.09900E-09 1.79612E-12
2.30367E-09 1.53299E-12
2.51785E-09 1.31354E-12
2.74156E-09 1.13082E-12
2.97478E-09 9.77665E-13
3.21752E-09 8.48733E-13
3.46978E-09 7.39684E-13
3.73156E-09 6.46821E-13
4.00286E-09 5.67521E-13
4.28368E-09 5.00059E-13
4.57402E-09 4.42549E-13
4.87388E-09 3.92703E-13
5.18326E-09 3.49687E-13
5.50215E-09 3.12517E-13
5.83057E-09 2.79987E-13
6.16850E-09 2.51647E-13
6.51596E-09 2.26857E-13
6.87293E-09 2.05005E-13
7.23942E-09 1.85772E-13
7.61544E-09 1.68770E-13
1.18991E-08 7.25564E-14
1.71347E-08 3.65510E-14
2.33223E-08 2.04826E-14
3.04617E-08 1.23811E-14
3.85531E-08 7.92001E-15
4.75965E-08 5.29616E-15
5.75917E-08 3.67116E-15
6.85389E-08 2.62191E-15
8.04380E-08 1.92059E-15
9.32891E-08 1.43784E-15
1.07092E-07 1.09707E-15
1.21847E-07 8.51120E-16
1.37554E-07 6.70152E-16
1.54213E-07 5.34658E-16
1.71823E-07 4.31642E-16
1.90386E-07 3.52213E-16
2.09900E-07 2.90200E-16
2.30367E-07 2.41222E-16
2.51785E-07 2.02134E-16
2.74156E-07 1.70638E-16
2.97478E-07 1.45035E-16
3.21752E-07 1.24052E-16
3.46978E-07 1.06725E-16
3.73156E-07 9.23164E-17
4.00286E-07 8.02570E-17
4.28368E-07 7.01020E-17
4.57402E-07 6.15023E-17
4.87388E-07 5.41808E-17
5.18325E-07 4.79162E-17
5.50215E-07 4.25309E-17
5.83057E-07 3.78809E-17
6.16850E-07 3.38490E-17
6.51596E-07 3.03393E-17
6.87293E-07 2.72727E-17
7.23942E-07 2.45838E-17
7.61543E-07 2.22182E-17
1.18991E-06 9.10572E-18
1.71347E-06 4.39239E-18
2.33223E-06 2.37109E-18
3.04617E-06 1.38998E-18
3.85531E-06 8.67813E-19
4.75964E-06 5.69405E-19
5.75916E-06 3.88933E-19
6.85388E-06 2.74628E-19
8.04378E-06 1.99397E-19
9.32888E-06 1.48253E-19
1.07092E-05 1.12505E-19
1.21846E-05 8.69123E-20
1.37553E-05 6.82005E-20
1.54212E-05 5.42645E-20
1.71822E-05 4.37133E-20
1.90385E-05 3.56056E-20
2.09899E-05 2.92947E-20
2.30365E-05 2.43222E-20
2.51783E-05 2.03612E-20
2.74153E-05 1.71748E-20
2.97475E-05 1.45879E-20
3.21749E-05 1.24703E-20
3.46974E-05 1.07235E-20
3.73152E-05 9.27212E-21
4.00281E-05 8.05827E-21
4.28362E-05 7.03674E-21
4.57395E-05 6.17210E-21
4.87380E-05 5.43629E-21
5.18317E-05 4.80693E-21
5.50205E-05 4.26607E-21
5.83045E-05 3.79919E-21
6.16838E-05 3.39448E-21
6.51582E-05 3.04226E-21
6.87277E-05 2.73458E-21
7.23925E-05 2.46483E-21
7.61524E-05 2.22554E-21
9.21439E-05 1.52007E-21
1.09658E-04 1.07324E-21
1.28695E-04 7.79165E-22
1.49255E-04 5.79242E-22
1.71338E-04 4.39510E-22
1.94942E-04 3.39474E-22
2.20070E-04 2.66338E-22
2.46720E-04 2.11872E-22
2.74892E-04 1.70637E-22
3.04586E-04 1.38958E-22
3.35803E-04 1.14296E-22
3.68542E-04 9.48673E-23
4.02802E-04 7.93933E-23
4.38585E-04 6.69467E-23
4.75889E-04 5.68439E-23
5.14715E-04 4.85748E-23
5.55063E-04 4.17542E-23
5.96931E-04 3.60882E-23
6.40321E-04 3.13500E-23
6.85233E-04 2.73633E-23
7.31665E-04 2.39894E-23
7.79618E-04 2.11189E-23
8.29092E-04 1.86643E-23
8.80086E-04 1.65553E-23
9.32601E-04 1.47353E-23
9.86636E-04 1.31579E-23
1.04219E-03 1.17855E-23
1.09927E-03 1.05869E-23
1.15786E-03 9.53644E-24
1.21797E-03 8.61262E-24
1.27961E-03 7.79760E-24
1.34276E-03 7.07638E-24
1.40743E-03 6.43631E-24
1.47362E-03 5.86669E-24
1.54133E-03 5.35843E-24
1.61056E-03 4.90378E-24
1.68131E-03 4.49610E-24
1.75357E-03 4.12970E-24
1.82735E-03 3.79967E-24
1.90265E-03 3.50177E-24
1.97947E-03 3.23233E-24
2.05780E-03 2.98814E-24
2.13765E-03 2.76644E-24
2.21902E-03 2.56478E-24
2.30190E-03 2.38103E-24
2.38630E-03 2.21332E-24
2.47222E-03 2.06001E-24
2.55965E-03 1.91964E-24
2.64859E-03 1.79093E-24
2.73905E-03 1.67273E-24
2.83103E-03 1.56403E-24
2.92452E-03 1.46394E-24
3.01952E-03 1.37166E-24
3.11604E-03 1.28646E-24
3.21407E-03 1.20770E-24
3.31362E-03 1.13482E-24
3.41468E-03 1.06729E-24
3.51725E-03 1.00465E-24
3.62133E-03 9.46490E-25
3.72692E-03 8.92425E-25
3.83403E-03 8.42118E-25
3.94265E-03 7.95260E-25
4.05278E-03 7.51574E-25
4.16442E-03 7.10805E-25
4.27757E-03 6.72725E-25
4.39223E-03 6.37125E-25
4.50840E-03 6.03813E-25
4.62608E-03 5.72617E-25
4.74527E-03 5.43379E-25
4.86597E-03 5.15953E-25
4.98817E-03 4.90207E-25
5.11188E-03 4.66020E-25
5.23711E-03 4.43281E-25
5.36383E-03 4.21887E-25
5.49207E-03 4.01744E-25
5.62181E-03 3.82768E-25
5.75306E-03 3.64877E-25
5.88581E-03 3.47999E-25
6.02007E-03 3.32065E-25
6.15583E-03 3.17015E-25
6.29310E-03 3.02790E-25
6.43187E-03 2.89337E-25
6.57214E-03 2.76606E-25
6.71392E-03 2.64553E-25
6.85720E-03 2.53133E-25
7.00198E-03 2.42309E-25
7.14827E-03 2.32044E-25
7.29605E-03 2.22303E-25
7.44534E-03 2.13055E-25
7.59612E-03 2.04271E-25
7.97965E-03 1.84165E-25
8.37255E-03 1.66411E-25
8.77480E-03 1.50691E-25
9.18641E-03 1.36733E-25
9.60736E-03 1.24308E-25
1.00376E-02 1.13220E-25
1.04773E-02 1.03303E-25
1.09262E-02 9.44136E-26
1.13844E-02 8.64273E-26
1.18520E-02 7.92380E-26
1.23288E-02 7.27536E-26
1.28150E-02 6.68938E-26
1.33104E-02 6.15890E-26
1.38150E-02 5.67782E-26
1.43290E-02 5.24081E-26
1.48521E-02 4.84320E-26
1.53845E-02 4.48089E-26
1.59262E-02 4.15024E-26
1.64770E-02 3.84806E-26
1.70371E-02 3.57152E-26
1.76063E-02 3.31810E-26
1.81848E-02 3.08558E-26
1.87724E-02 2.87196E-26
1.93692E-02 2.67548E-26
1.99751E-02 2.49455E-26
2.05901E-02 2.32775E-26
2.12143E-02 2.17382E-26
2.18476E-02 2.03161E-26
2.24900E-02 1.90010E-26
2.31415E-02 1.77837E-26
2.38021E-02 1.66557E-26
2.44717E-02 1.56097E-26
2.51504E-02 1.46387E-26
2.58382E-02 1.37367E-26
2.65349E-02 1.28980E-26
2.72407E-02 1.21175E-26
2.79555E-02 1.13907E-26
2.86793E-02 1.07133E-26
2.94120E-02 1.00815E-26
3.01537E-02 9.49179E-27
3.09043E-02 8.94102E-27
3.16639E-02 8.42625E-27
3.24324E-02 7.94481E-27
3.32098E-02 7.49426E-27
3.39961E-02 7.07236E-27
3.47912E-02 6.67703E-27
3.55952E-02 6.30639E-27
3.64081E-02 5.95871E-27
3.72297E-02 5.63237E-27
3.80602E-02 5.32591E-27
3.88995E-02 5.03795E-27
3.97476E-02 4.76725E-27
4.06044E-02 4.51265E-27
4.14700E-02 4.27306E-27
4.23443E-02 4.04750E-27
4.32273E-02 3.83505E-27
4.41190E-02 3.63486E-27
4.50194E-02 3.44614E-27
4.59284E-02 3.26816E-27
4.68461E-02 3.10023E-27
4.87074E-02 2.79206E-27
5.06030E-02 2.51709E-27
5.25328E-02 2.27138E-27
5.44967E-02 2.05152E-27
5.64946E-02 1.85452E-27
5.85262E-02 1.67779E-27
6.05914E-02 1.51905E-27
6.26901E-02 1.37630E-27
6.48222E-02 1.24781E-27
6.69873E-02 1.13202E-27
6.91854E-02 1.02759E-27
7.14163E-02 9.33304E-28
7.36799E-02 8.48111E-28
7.59760E-02 7.71068E-28
7.83043E-02 7.01341E-28
8.06647E-02 6.38188E-28
8.30571E-02 5.80951E-28
8.54812E-02 5.29039E-28
8.79369E-02 4.81929E-28
9.04240E-02 4.39150E-28
9.29422E-02 4.00282E-28
9.54915E-02 3.64950E-28
9.80716E-02 3.32815E-28
1.00682E-01 3.03576E-28
1.03323E-01 2.76958E-28
1.05995E-01 2.52718E-28
1.08696E-01 2.30633E-28
1.11427E-01 2.10507E-28
1.14188E-01 1.92157E-28
1.16978E-01 1.75424E-28
1.19797E-01 1.60159E-28
1.22645E-01 1.46231E-28
1.25522E-01 1.33518E-28
1.28428E-01 1.21914E-28
1.31361E-01 1.11318E-28
1.34323E-01 1.01641E-28
1.37313E-01 9.28029E-29
1.40330E-01 8.47292E-29
1.43375E-01 7.73529E-29
1.46447E-01 7.06131E-29
1.49545E-01 6.44543E-29
1.52671E-01 5.88262E-29
1.55823E-01 5.36826E-29
1.59001E-01 4.89818E-29
1.62205E-01 4.46855E-29
1.65435E-01 4.07589E-29
1.68690E-01 3.71703E-29
1.71970E-01 3.38907E-29
1.75276E-01 3.08936E-29
1.78606E-01 2.81548E-29
1.81961E-01 2.56523E-29
1.85340E-01 2.33660E-29
1.88743E-01 2.12773E-29
1.92169E-01 1.93695E-29
1.95619E-01 1.76271E-29
1.99092E-01 1.60360E-29
2.02589E-01 1.45833E-29
2.06107E-01 1.32573E-29
2.09649E-01 1.20471E-29
2.13212E-01 1.09429E-29
2.16797E-01 9.93569E-30
2.20404E-01 9.01708E-30
2.24032E-01 8.17955E-30
2.27680E-01 7.41615E-30
2.31350E-01 6.72055E-30
2.35040E-01 6.08692E-30
2.38751E-01 5.50994E-30
2.42481E-01 4.98473E-30
2.46231E-01 4.50683E-30
2.50000E-01 4.07215E-30
2.53788E-01 3.67694E-30
2.57595E-01 3.31778E-30
2.61421E-01 2.99154E-30
2.65264E-01 2.69533E-30
2.69126E-01 2.42653E-30
2.73005E-01 2.18273E-30
2.76901E-01 1.96174E-30
2.80814E-01 1.76153E-30
2.84744E-01 1.58026E-30
2.88691E-01 1.41624E-30
2.92653E-01 1.26794E-30
2.96632E-01 1.13394E-30
3.00625E-01 1.01295E-30
3.04634E-01 9.03801E-31
3.08658E-01 8.05406E-31
3.12697E-01 7.16784E-31
3.16749E-01 6.37038E-31
3.20816E-01 5.65346E-31
3.24896E-01 5.00961E-31
3.28990E-01 4.43199E-31
3.33097E-01 3.91437E-31
3.37216E-01 3.45107E-31
3.41348E-01 3.03691E-31
3.45492E-01 2.66717E-31
3.49647E-01 2.33756E-31
3.53814E-01 2.04417E-31
3.57992E-01 1.78344E-31
3.62181E-01 1.55213E-31
3.66381E-01 1.34732E-31
3.70590E-01 1.16631E-31
3.74810E-01 1.00669E-31
3.79039E-01 8.66269E-32
3.83277E-01 7.43038E-32
3.87524E-01 6.35194E-32
3.91780E-01 5.41101E-32
3.96044E-01 4.59279E-32
4.00316E-01 3.88387E-32
4.04596E-01 3.27218E-32
4.08882E-01 2.74680E-32
4.13176E-01 2.29788E-32
4.17476E-01 1.91657E-32
4.21783E-01 1.59488E-32
4.26095E-01 1.32565E-32
4.30413E-01 1.10243E-32
4.34737E-01 9.19466E-33
4.39065E-01 7.71575E-33
4.43398E-01 6.54139E-33
4.47736E-01 5.63032E-33
4.52077E-01 4.94576E-33
4.56422E-01 4.45496E-33
4.60770E-01 4.12889E-33
4.65122E-01 3.94177E-33
4.69476E-01 3.87082E-33
4.73832E-01 3.89599E-33
4.78190E-01 3.99957E-33
4.82550E-01 4.16609E-33
4.86912E-01 4.38200E-33
4.91274E-01 4.63551E-33
4.95637E-01 4.91640E-33
5.00000E-01 5.21583E-33
5.04363E-01 5.52626E-33
5.08726E-01 5.84118E-33
5.13088E-01 6.15516E-33
5.17450E-01 6.46360E-33
5.21810E-01 6.76268E-33
5.26168E-01 7.04930E-33
5.30524E-01 7.32091E-33
5.34878E-01 7.57554E-33
5.39230E-01 7.81167E-33
5.43578E-01 8.02819E-33
5.47923E-01 8.22433E-33
5.52264E-01 8.39964E-33
5.56602E-01 8.55392E-33
5.60935E-01 8.68719E-33
5.65263E-01 8.79969E-33
5.69587E-01 8.89179E-33
5.73905E-01 8.96400E-33
5.78217E-01 9.01694E-33
5.82524E-01 9.05130E-33
5.86824E-01 9.06789E-33
5.91118E-01 9.06754E-33
5.95404E-01 9.05109E-33
5.99684E-01 9.01945E-33
6.03956E-01 8.97354E-33
6.08220E-01 8.91428E-33
6.12476E-01 8.84257E-33
6.16723E-01 8.75933E-33
6.20961E-01 8.66545E-33
6.25190E-01 8.56183E-33
6.29410E-01 8.44929E-33
6.33619E-01 8.32867E-33
6.37819E-01 8.20078E-33
6.42008E-01 8.06638E-33
6.46186E-01 7.92620E-33
6.50353E-01 7.78096E-33
6.54508E-01 7.63132E-33
6.58652E-01 7.47791E-33
6.62784E-01 7.32134E-33
6.66903E-01 7.16219E-33
6.71010E-01 7.00096E-33
6.75104E-01 6.83817E-33
6.79184E-01 6.67428E-33
6.83251E-01 6.50974E-33
6.87303E-01 6.34494E-33
6.91342E-01 6.18026E-33
6.95366E-01 6.01607E-33
6.99375E-01 5.85263E-33
7.03368E-01 5.69030E-33
7.07347E-01 5.52930E-33
7.11309E-01 5.36989E-33
7.15256E-01 5.21229E-33
7.19186E-01 5.05670E-33
7.23099E-01 4.90330E-33
7.26995E-01 4.75223E-33
7.30874E-01 4.60365E-33
7.34736E-01 4.45768E-33
7.38579E-01 4.31442E-33
7.42405E-01 4.17396E-33
7.46212E-01 4.03638E-33
7.50000E-01 3.90176E-33
7.53769E-01 3.77012E-33
7.57519E-01 3.64153E-33
7.61249E-01 3.51600E-33
7.64960E-01 3.39356E-33
7.68650E-01 3.27421E-33
7.72320E-01 3.15796E-33
7.75968E-01 3.04481E-33
7.79596E-01 2.93474E-33
7.83203E-01 2.82774E-33
7.86788E-01 2.72378E-33
7.90351E-01 2.62284E-33
7.93893E-01 2.52487E-33
7.97411E-01 2.42984E-33
8.00908E-01 2.33772E-33
8.04381E-01 2.24844E-33
8.07831E-01 2.16197E-33
8.11257E-01 2.07827E-33
8.14660E-01 1.99727E-33
8.18039E-01 1.91892E-33
8.21394E-01 1.84316E-33
8.24724E-01 1.76995E-33
8.28030E-01 1.69921E-33
8.31310E-01 1.63089E-33
8.34565E-01 1.56495E-33
8.37795E-01 1.50130E-33
8.40999E-01 1.43990E-33
8.44177E-01 1.38068E-33
8.47329E-01 1.32358E-33
8.50455E-01 1.26855E-33
8.53553E-01 1.21553E-33
8.56625E-01 1.16446E-33
8.59670E-01 1.11528E-33
8.62687E-01 1.06793E-33
8.65677E-01 1.02235E-33
8.68639E-01 9.78505E-34
8.71572E-01 9.36320E-34
8.74478E-01 8.95752E-34
8.77355E-01 8.56746E-34
8.80203E-01 8.19248E-34
8.83022E-01 7.83210E-34
8.85812E-01 7.48586E-34
8.88573E-01 7.15323E-34
8.91304E-01 6.83371E-34
8.94005E-01 6.52693E-34
8.96677E-01 6.23238E-34
8.99318E-01 5.94964E-34
9.01928E-01 5.67831E-34
9.04508E-01 5.41795E-34
9.07058E-01 5.16817E-34
9.09576E-01 4.92862E-34
9.12063E-01 4.69885E-34
9.14519E-01 4.47855E-34
9.16943E-01 4.26738E-34
9.19335E-01 4.06493E-34
9.21696E-01 3.87092E-34
9.24024E-01 3.68503E-34
9.26320E-01 3.50691E-34
9.28584E-01 3.33628E-34
9.30815E-01 3.17288E-34
9.33013E-01 3.01639E-34
9.35178E-01 2.86656E-34
9.37310E-01 2.72311E-34
9.39409E-01 2.58582E-34
9.41474E-01 2.45441E-34
9.43505E-01 2.32870E-34
9.45503E-01 2.20842E-34
9.47467E-01 2.09331E-34
9.49397E-01 1.98329E-34
9.51293E-01 1.87803E-34
9.53154E-01 1.77741E-34
9.54981E-01 1.68121E-34
9.56773E-01 1.58929E-34
9.58530E-01 1.50141E-34
9.60252E-01 1.41748E-34
9.61940E-01 1.33730E-34
9.63592E-01 1.26072E-34
9.65209E-01 1.18761E-34
9.66790E-01 1.11781E-34
9.68336E-01 1.05121E-34
9.69846E-01 9.87643E-35
9.71321E-01 9.27034E-35
9.72759E-01 8.69212E-35
9.74162E-01 8.14121E-35
9.75528E-01 7.61610E-35
9.76858E-01 7.11578E-35
9.78152E-01 6.63960E-35
9.79410E-01 6.18626E-35
9.80631E-01 5.75503E-35
9.81815E-01 5.34494E-35
9.82963E-01 4.95531E-35
9.84074E-01 4.58518E-35
9.85148E-01 4.23401E-35
9.86185E-01 3.90085E-35
9.87185E-01 3.58530E-35
9.88148E-01 3.28662E-35
9.89074E-01 3.00404E-35
9.89962E-01 2.73720E-35
9.90814E-01 2.48547E-35
9.91627E-01 2.24829E-35
9.92404E-01 2.02514E-35
9.93143E-01 1.81572E-35
9.93844E-01 1.61944E-35
9.94508E-01 1.43599E-35
9.95134E-01 1.26501E-35
9.95722E-01 1.10612E-35
9.96273E-01 9.58918E-36
9.96786E-01 8.23222E-36
9.97261E-01 6.98573E-36
9.97698E-01 5.84918E-36
9.98097E-01 4.81925E-36
9.98459E-01 3.89379E-36
9.98782E-01 3.06978E-36
9.99067E-01 2.34786E-36
9.99315E-01 1.72496E-36
9.99524E-01 1.19996E-36
9.99695E-01 7.72150E-37
9.99829E-01 4.39806E-37
9.99924E-01 2.03481E-37
9.99981E-01 6.14770E-38
1.00000E+00 1.44711E-38
