 #
 # Subroutine ELSEPA. Elastic scattering of electrons and positrons
 #                    by neutral atoms and positive ions
 #
 # Projectile: electron
 # Kinetic energy = 1.25000E+08 eV = 4.59367E+06 a.u.
 #
 # WARNING: High-energy factorization with free-atom DF screening.
 #          Absorption, polarization and exchange corrections are
 #          switched off.
 #          Phase shifts are calculated for the bare nucleus.
 #          Scattering amplitudes are not evaluated.
 #
 # Element: Ne,  Z =  10,  atomic weight = 2.01797E+01 g/mol
 #
 # Nuclear model: Fermi distribution
 #                Average radius = 2.91310E-13 cm
 #                Skin thickness = 5.46000E-14 cm
 #
 # Number of electrons = 10
 #
 # Total elastic cross section = 2.93588E-19 cm**2 = 1.04842E-02 a0**2
 # 1st transport cross section = 1.38903E-26 cm**2 = 4.96031E-10 a0**2
 # 2nd transport cross section = 4.12835E-26 cm**2 = 1.47426E-09 a0**2
 #
 #
 # Differential cross section:                       MU=(1-COS(THETA))/2
 #
 #  THETA        MU          DCS          DCS        Sherman      error
 #  (deg)                 (cm**2/sr)   (a0**2/sr)    function
 #----------------------------------------------------------------------
0.00000E+00 1.64020E-11
7.61557E-13 1.63855E-11
1.18994E-12 1.63764E-11
1.71346E-12 1.63652E-11
2.33225E-12 1.63520E-11
3.04617E-12 1.63368E-11
3.85530E-12 1.63196E-11
4.75964E-12 1.63004E-11
5.75917E-12 1.62792E-11
6.85391E-12 1.62561E-11
8.04379E-12 1.62310E-11
9.32893E-12 1.62040E-11
1.07092E-11 1.61750E-11
1.21847E-11 1.61442E-11
1.37554E-11 1.61115E-11
1.54213E-11 1.60768E-11
1.71823E-11 1.60403E-11
1.90386E-11 1.60020E-11
2.09900E-11 1.59618E-11
2.30367E-11 1.59199E-11
2.51785E-11 1.58762E-11
2.74156E-11 1.58307E-11
2.97478E-11 1.57835E-11
3.21752E-11 1.57346E-11
3.46979E-11 1.56839E-11
3.73157E-11 1.56316E-11
4.00286E-11 1.55777E-11
4.28368E-11 1.55221E-11
4.57402E-11 1.54650E-11
4.87388E-11 1.54064E-11
5.18325E-11 1.53463E-11
5.50215E-11 1.52846E-11
5.83057E-11 1.52214E-11
6.16850E-11 1.51568E-11
6.51595E-11 1.50907E-11
6.87293E-11 1.50233E-11
7.23943E-11 1.49545E-11
7.61544E-11 1.48845E-11
1.18991E-10 1.40900E-11
1.71347E-10 1.32303E-11
2.33223E-10 1.23153E-11
3.04617E-10 1.13749E-11
3.85531E-10 1.04209E-11
4.75965E-10 9.47736E-12
5.75917E-10 8.57700E-12
6.85389E-10 7.73111E-12
8.04380E-10 6.94611E-12
9.32891E-10 6.22469E-12
1.07092E-09 5.56684E-12
1.21847E-09 4.97071E-12
1.37554E-09 4.43322E-12
1.54213E-09 3.94499E-12
1.71823E-09 3.50952E-12
1.90386E-09 3.12229E-12
2.09900E-09 2.77865E-12
2.30367E-09 2.47420E-12
2.51785E-09 2.20481E-12
2.74156E-09 1.96659E-12
2.97478E-09 1.75610E-12
3.21752E-09 1.56968E-12
3.46978E-09 1.40457E-12
3.73156E-09 1.25872E-12
4.00286E-09 1.12971E-12
4.28368E-09 1.01542E-12
4.57402E-09 9.14056E-13
4.87388E-09 8.24038E-13
5.18326E-09 7.44017E-13
5.50215E-09 6.72821E-13
5.83057E-09 6.09305E-13
6.16850E-09 5.52741E-13
6.51596E-09 5.02319E-13
6.87293E-09 4.57305E-13
7.23942E-09 4.17051E-13
7.61544E-09 3.80981E-13
1.18991E-08 1.67316E-13
1.71347E-08 8.39816E-14
2.33223E-08 4.68120E-14
3.04617E-08 2.82668E-14
3.85531E-08 1.81467E-14
4.75965E-08 1.22166E-14
5.75917E-08 8.53936E-15
6.85389E-08 6.15408E-15
8.04380E-08 4.54861E-15
9.32891E-08 3.43441E-15
1.07092E-07 2.64084E-15
1.21847E-07 2.06312E-15
1.37554E-07 1.63453E-15
1.54213E-07 1.31121E-15
1.71823E-07 1.06365E-15
1.90386E-07 8.71545E-16
2.09900E-07 7.20694E-16
2.30367E-07 6.00957E-16
2.51785E-07 5.04966E-16
2.74156E-07 4.27310E-16
2.97478E-07 3.63952E-16
3.21752E-07 3.11864E-16
3.46978E-07 2.68732E-16
3.73156E-07 2.32779E-16
4.00286E-07 2.02620E-16
4.28368E-07 1.77174E-16
4.57402E-07 1.55587E-16
4.87388E-07 1.37181E-16
5.18325E-07 1.21411E-16
5.50215E-07 1.07837E-16
5.83057E-07 9.61037E-17
6.16850E-07 8.59201E-17
6.51596E-07 7.70476E-17
6.87293E-07 6.92892E-17
7.23942E-07 6.24814E-17
7.61543E-07 5.64882E-17
1.18991E-06 2.31981E-17
1.71347E-06 1.11997E-17
2.33223E-06 6.04861E-18
3.04617E-06 3.54667E-18
3.85531E-06 2.21461E-18
4.75964E-06 1.45318E-18
5.75916E-06 9.92605E-19
6.85388E-06 7.00889E-19
8.04378E-06 5.08893E-19
9.32888E-06 3.78367E-19
1.07092E-05 2.87134E-19
1.21846E-05 2.21816E-19
1.37553E-05 1.74061E-19
1.54212E-05 1.38494E-19
1.71822E-05 1.11565E-19
1.90385E-05 9.08729E-20
2.09899E-05 7.47662E-20
2.30365E-05 6.20753E-20
2.51783E-05 5.19662E-20
2.74153E-05 4.38337E-20
2.97475E-05 3.72316E-20
3.21749E-05 3.18270E-20
3.46974E-05 2.73687E-20
3.73152E-05 2.36645E-20
4.00281E-05 2.05665E-20
4.28362E-05 1.79593E-20
4.57395E-05 1.57526E-20
4.87380E-05 1.38746E-20
5.18317E-05 1.22684E-20
5.50205E-05 1.08880E-20
5.83045E-05 9.69641E-21
6.16838E-05 8.66349E-21
6.51582E-05 7.76455E-21
6.87277E-05 6.97927E-21
7.23925E-05 6.29083E-21
7.61524E-05 5.68321E-21
9.21439E-05 3.88216E-21
1.09658E-04 2.74135E-21
1.28695E-04 1.99049E-21
1.49255E-04 1.47999E-21
1.71338E-04 1.12316E-21
1.94942E-04 8.67673E-22
2.20070E-04 6.80875E-22
2.46720E-04 5.41747E-22
2.74892E-04 4.36406E-22
3.04586E-04 3.55468E-22
3.35803E-04 2.92452E-22
3.68542E-04 2.42800E-22
4.02802E-04 2.03251E-22
4.38585E-04 1.71435E-22
4.75889E-04 1.45606E-22
5.14715E-04 1.24463E-22
5.55063E-04 1.07020E-22
5.96931E-04 9.25279E-23
6.40321E-04 8.04069E-23
6.85233E-04 7.02064E-23
7.31665E-04 6.15727E-23
7.79618E-04 5.42255E-23
8.29092E-04 4.79416E-23
8.80086E-04 4.25416E-23
9.32601E-04 3.78804E-23
9.86636E-04 3.38399E-23
1.04219E-03 3.03237E-23
1.09927E-03 2.72521E-23
1.15786E-03 2.45594E-23
1.21797E-03 2.21908E-23
1.27961E-03 2.01007E-23
1.34276E-03 1.82507E-23
1.40743E-03 1.66084E-23
1.47362E-03 1.51465E-23
1.54133E-03 1.38418E-23
1.61056E-03 1.26743E-23
1.68131E-03 1.16272E-23
1.75357E-03 1.06858E-23
1.82735E-03 9.83761E-24
1.90265E-03 9.07177E-24
1.97947E-03 8.37887E-24
2.05780E-03 7.75074E-24
2.13765E-03 7.18025E-24
2.21902E-03 6.66117E-24
2.30190E-03 6.18804E-24
2.38630E-03 5.75608E-24
2.47222E-03 5.36105E-24
2.55965E-03 4.99924E-24
2.64859E-03 4.66735E-24
2.73905E-03 4.36247E-24
2.83103E-03 4.08200E-24
2.92452E-03 3.82364E-24
3.01952E-03 3.58532E-24
3.11604E-03 3.36522E-24
3.21407E-03 3.16169E-24
3.31362E-03 2.97326E-24
3.41468E-03 2.79860E-24
3.51725E-03 2.63652E-24
3.62133E-03 2.48596E-24
3.72692E-03 2.34594E-24
3.83403E-03 2.21560E-24
3.94265E-03 2.09415E-24
4.05278E-03 1.98086E-24
4.16442E-03 1.87509E-24
4.27757E-03 1.77625E-24
4.39223E-03 1.68380E-24
4.50840E-03 1.59725E-24
4.62608E-03 1.51616E-24
4.74527E-03 1.44013E-24
4.86597E-03 1.36877E-24
4.98817E-03 1.30174E-24
5.11188E-03 1.23875E-24
5.23711E-03 1.17949E-24
5.36383E-03 1.12371E-24
5.49207E-03 1.07116E-24
5.62181E-03 1.02163E-24
5.75306E-03 9.74910E-25
5.88581E-03 9.30807E-25
6.02007E-03 8.89151E-25
6.15583E-03 8.49780E-25
6.29310E-03 8.12546E-25
6.43187E-03 7.77312E-25
6.57214E-03 7.43951E-25
6.71392E-03 7.12345E-25
6.85720E-03 6.82384E-25
7.00198E-03 6.53967E-25
7.14827E-03 6.27000E-25
7.29605E-03 6.01396E-25
7.44534E-03 5.77072E-25
7.59612E-03 5.53952E-25
7.97965E-03 5.00974E-25
8.37255E-03 4.54116E-25
8.77480E-03 4.12553E-25
9.18641E-03 3.75585E-25
9.60736E-03 3.42617E-25
1.00376E-02 3.13144E-25
1.04773E-02 2.86732E-25
1.09262E-02 2.63009E-25
1.13844E-02 2.41655E-25
1.18520E-02 2.22392E-25
1.23288E-02 2.04981E-25
1.28150E-02 1.89214E-25
1.33104E-02 1.74908E-25
1.38150E-02 1.61905E-25
1.43290E-02 1.50067E-25
1.48521E-02 1.39270E-25
1.53845E-02 1.29408E-25
1.59262E-02 1.20386E-25
1.64770E-02 1.12120E-25
1.70371E-02 1.04536E-25
1.76063E-02 9.75679E-26
1.81848E-02 9.11572E-26
1.87724E-02 8.52517E-26
1.93692E-02 7.98048E-26
1.99751E-02 7.47748E-26
2.05901E-02 7.01244E-26
2.12143E-02 6.58201E-26
2.18476E-02 6.18316E-26
2.24900E-02 5.81319E-26
2.31415E-02 5.46966E-26
2.38021E-02 5.15035E-26
2.44717E-02 4.85327E-26
2.51504E-02 4.57660E-26
2.58382E-02 4.31872E-26
2.65349E-02 4.07812E-26
2.72407E-02 3.85346E-26
2.79555E-02 3.64350E-26
2.86793E-02 3.44712E-26
2.94120E-02 3.26329E-26
3.01537E-02 3.09108E-26
3.09043E-02 2.92963E-26
3.16639E-02 2.77816E-26
3.24324E-02 2.63594E-26
3.32098E-02 2.50233E-26
3.39961E-02 2.37671E-26
3.47912E-02 2.25852E-26
3.55952E-02 2.14726E-26
3.64081E-02 2.04245E-26
3.72297E-02 1.94365E-26
3.80602E-02 1.85047E-26
3.88995E-02 1.76253E-26
3.97476E-02 1.67950E-26
4.06044E-02 1.60105E-26
4.14700E-02 1.52688E-26
4.23443E-02 1.45674E-26
4.32273E-02 1.39036E-26
4.41190E-02 1.32751E-26
4.50194E-02 1.26798E-26
4.59284E-02 1.21155E-26
4.68461E-02 1.15805E-26
4.87074E-02 1.05913E-26
5.06030E-02 9.69941E-27
5.25328E-02 8.89395E-27
5.44967E-02 8.16531E-27
5.64946E-02 7.50509E-27
5.85262E-02 6.90596E-27
6.05914E-02 6.36146E-27
6.26901E-02 5.86590E-27
6.48222E-02 5.41427E-27
6.69873E-02 5.00214E-27
6.91854E-02 4.62557E-27
7.14163E-02 4.28108E-27
7.36799E-02 3.96557E-27
7.59760E-02 3.67628E-27
7.83043E-02 3.41073E-27
8.06647E-02 3.16672E-27
8.30571E-02 2.94228E-27
8.54812E-02 2.73564E-27
8.79369E-02 2.54521E-27
9.04240E-02 2.36955E-27
9.29422E-02 2.20739E-27
9.54915E-02 2.05754E-27
9.80716E-02 1.91897E-27
1.00682E-01 1.79073E-27
1.03323E-01 1.67195E-27
1.05995E-01 1.56186E-27
1.08696E-01 1.45974E-27
1.11427E-01 1.36495E-27
1.14188E-01 1.27692E-27
1.16978E-01 1.19509E-27
1.19797E-01 1.11900E-27
1.22645E-01 1.04819E-27
1.25522E-01 9.82255E-28
1.28428E-01 9.20829E-28
1.31361E-01 8.63570E-28
1.34323E-01 8.10168E-28
1.37313E-01 7.60336E-28
1.40330E-01 7.13813E-28
1.43375E-01 6.70357E-28
1.46447E-01 6.29747E-28
1.49545E-01 5.91780E-28
1.52671E-01 5.56268E-28
1.55823E-01 5.23038E-28
1.59001E-01 4.91930E-28
1.62205E-01 4.62796E-28
1.65435E-01 4.35502E-28
1.68690E-01 4.09921E-28
1.71970E-01 3.85936E-28
1.75276E-01 3.63441E-28
1.78606E-01 3.42335E-28
1.81961E-01 3.22525E-28
1.85340E-01 3.03927E-28
1.88743E-01 2.86461E-28
1.92169E-01 2.70052E-28
1.95619E-01 2.54632E-28
1.99092E-01 2.40137E-28
2.02589E-01 2.26508E-28
2.06107E-01 2.13690E-28
2.09649E-01 2.01632E-28
2.13212E-01 1.90284E-28
2.16797E-01 1.79604E-28
2.20404E-01 1.69549E-28
2.24032E-01 1.60080E-28
2.27680E-01 1.51161E-28
2.31350E-01 1.42759E-28
2.35040E-01 1.34842E-28
2.38751E-01 1.27380E-28
2.42481E-01 1.20346E-28
2.46231E-01 1.13713E-28
2.50000E-01 1.07459E-28
2.53788E-01 1.01559E-28
2.57595E-01 9.59941E-29
2.61421E-01 9.07431E-29
2.65264E-01 8.57878E-29
2.69126E-01 8.11108E-29
2.73005E-01 7.66957E-29
2.76901E-01 7.25274E-29
2.80814E-01 6.85913E-29
2.84744E-01 6.48742E-29
2.88691E-01 6.13632E-29
2.92653E-01 5.80466E-29
2.96632E-01 5.49132E-29
3.00625E-01 5.19524E-29
3.04634E-01 4.91546E-29
3.08658E-01 4.65103E-29
3.12697E-01 4.40109E-29
3.16749E-01 4.16482E-29
3.20816E-01 3.94145E-29
3.24896E-01 3.73026E-29
3.28990E-01 3.53055E-29
3.33097E-01 3.34170E-29
3.37216E-01 3.16309E-29
3.41348E-01 2.99415E-29
3.45492E-01 2.83434E-29
3.49647E-01 2.68317E-29
3.53814E-01 2.54015E-29
3.57992E-01 2.40483E-29
3.62181E-01 2.27680E-29
3.66381E-01 2.15564E-29
3.70590E-01 2.04098E-29
3.74810E-01 1.93248E-29
3.79039E-01 1.82978E-29
3.83277E-01 1.73258E-29
3.87524E-01 1.64057E-29
3.91780E-01 1.55348E-29
3.96044E-01 1.47103E-29
4.00316E-01 1.39298E-29
4.04596E-01 1.31909E-29
4.08882E-01 1.24913E-29
4.13176E-01 1.18289E-29
4.17476E-01 1.12017E-29
4.21783E-01 1.06078E-29
4.26095E-01 1.00455E-29
4.30413E-01 9.51296E-30
4.34737E-01 9.00869E-30
4.39065E-01 8.53115E-30
4.43398E-01 8.07891E-30
4.47736E-01 7.65062E-30
4.52077E-01 7.24500E-30
4.56422E-01 6.86084E-30
4.60770E-01 6.49701E-30
4.65122E-01 6.15241E-30
4.69476E-01 5.82604E-30
4.73832E-01 5.51691E-30
4.78190E-01 5.22412E-30
4.82550E-01 4.94680E-30
4.86912E-01 4.68412E-30
4.91274E-01 4.43533E-30
4.95637E-01 4.19967E-30
5.00000E-01 3.97646E-30
5.04363E-01 3.76503E-30
5.08726E-01 3.56477E-30
5.13088E-01 3.37509E-30
5.17450E-01 3.19542E-30
5.21810E-01 3.02524E-30
5.26168E-01 2.86405E-30
5.30524E-01 2.71137E-30
5.34878E-01 2.56676E-30
5.39230E-01 2.42980E-30
5.43578E-01 2.30007E-30
5.47923E-01 2.17719E-30
5.52264E-01 2.06082E-30
5.56602E-01 1.95059E-30
5.60935E-01 1.84620E-30
5.65263E-01 1.74734E-30
5.69587E-01 1.65370E-30
5.73905E-01 1.56503E-30
5.78217E-01 1.48105E-30
5.82524E-01 1.40152E-30
5.86824E-01 1.32621E-30
5.91118E-01 1.25489E-30
5.95404E-01 1.18735E-30
5.99684E-01 1.12340E-30
6.03956E-01 1.06285E-30
6.08220E-01 1.00551E-30
6.12476E-01 9.51219E-31
6.16723E-01 8.99818E-31
6.20961E-01 8.51152E-31
6.25190E-01 8.05078E-31
6.29410E-01 7.61458E-31
6.33619E-01 7.20164E-31
6.37819E-01 6.81073E-31
6.42008E-01 6.44069E-31
6.46186E-01 6.09042E-31
6.50353E-01 5.75887E-31
6.54508E-01 5.44506E-31
6.58652E-01 5.14805E-31
6.62784E-01 4.86695E-31
6.66903E-01 4.60092E-31
6.71010E-01 4.34916E-31
6.75104E-01 4.11093E-31
6.79184E-01 3.88550E-31
6.83251E-01 3.67219E-31
6.87303E-01 3.47037E-31
6.91342E-01 3.27942E-31
6.95366E-01 3.09877E-31
6.99375E-01 2.92787E-31
7.03368E-01 2.76621E-31
7.07347E-01 2.61329E-31
7.11309E-01 2.46864E-31
7.15256E-01 2.33184E-31
7.19186E-01 2.20245E-31
7.23099E-01 2.08009E-31
7.26995E-01 1.96438E-31
7.30874E-01 1.85496E-31
7.34736E-01 1.75151E-31
7.38579E-01 1.65369E-31
7.42405E-01 1.56122E-31
7.46212E-01 1.47379E-31
7.50000E-01 1.39115E-31
7.53769E-01 1.31304E-31
7.57519E-01 1.23921E-31
7.61249E-01 1.16943E-31
7.64960E-01 1.10349E-31
7.68650E-01 1.04117E-31
7.72320E-01 9.82292E-32
7.75968E-01 9.26659E-32
7.79596E-01 8.74099E-32
7.83203E-01 8.24445E-32
7.86788E-01 7.77542E-32
7.90351E-01 7.33239E-32
7.93893E-01 6.91395E-32
7.97411E-01 6.51878E-32
8.00908E-01 6.14561E-32
8.04381E-01 5.79324E-32
8.07831E-01 5.46055E-32
8.11257E-01 5.14645E-32
8.14660E-01 4.84993E-32
8.18039E-01 4.57003E-32
8.21394E-01 4.30585E-32
8.24724E-01 4.05652E-32
8.28030E-01 3.82123E-32
8.31310E-01 3.59921E-32
8.34565E-01 3.38972E-32
8.37795E-01 3.19208E-32
8.40999E-01 3.00564E-32
8.44177E-01 2.82977E-32
8.47329E-01 2.66389E-32
8.50455E-01 2.50746E-32
8.53553E-01 2.35993E-32
8.56625E-01 2.22083E-32
8.59670E-01 2.08968E-32
8.62687E-01 1.96604E-32
8.65677E-01 1.84949E-32
8.68639E-01 1.73964E-32
8.71572E-01 1.63610E-32
8.74478E-01 1.53854E-32
8.77355E-01 1.44660E-32
8.80203E-01 1.35998E-32
8.83022E-01 1.27837E-32
8.85812E-01 1.20150E-32
8.88573E-01 1.12909E-32
8.91304E-01 1.06090E-32
8.94005E-01 9.96681E-33
8.96677E-01 9.36212E-33
8.99318E-01 8.79280E-33
9.01928E-01 8.25681E-33
9.04508E-01 7.75228E-33
9.07058E-01 7.27739E-33
9.09576E-01 6.83045E-33
9.12063E-01 6.40987E-33
9.14519E-01 6.01411E-33
9.16943E-01 5.64176E-33
9.19335E-01 5.29148E-33
9.21696E-01 4.96198E-33
9.24024E-01 4.65206E-33
9.26320E-01 4.36059E-33
9.28584E-01 4.08650E-33
9.30815E-01 3.82877E-33
9.33013E-01 3.58646E-33
9.35178E-01 3.35866E-33
9.37310E-01 3.14453E-33
9.39409E-01 2.94326E-33
9.41474E-01 2.75410E-33
9.43505E-01 2.57635E-33
9.45503E-01 2.40932E-33
9.47467E-01 2.25240E-33
9.49397E-01 2.10496E-33
9.51293E-01 1.96648E-33
9.53154E-01 1.83640E-33
9.54981E-01 1.71423E-33
9.56773E-01 1.59951E-33
9.58530E-01 1.49178E-33
9.60252E-01 1.39064E-33
9.61940E-01 1.29569E-33
9.63592E-01 1.20657E-33
9.65209E-01 1.12291E-33
9.66790E-01 1.04441E-33
9.68336E-01 9.70743E-34
9.69846E-01 9.01630E-34
9.71321E-01 8.36794E-34
9.72759E-01 7.75984E-34
9.74162E-01 7.18956E-34
9.75528E-01 6.65485E-34
9.76858E-01 6.15359E-34
9.78152E-01 5.68379E-34
9.79410E-01 5.24357E-34
9.80631E-01 4.83119E-34
9.81815E-01 4.44500E-34
9.82963E-01 4.08344E-34
9.84074E-01 3.74508E-34
9.85148E-01 3.42855E-34
9.86185E-01 3.13259E-34
9.87185E-01 2.85601E-34
9.88148E-01 2.59769E-34
9.89074E-01 2.35660E-34
9.89962E-01 2.13177E-34
9.90814E-01 1.92229E-34
9.91627E-01 1.72731E-34
9.92404E-01 1.54606E-34
9.93143E-01 1.37780E-34
9.93844E-01 1.22184E-34
9.94508E-01 1.07758E-34
9.95134E-01 9.44410E-35
9.95722E-01 8.21808E-35
9.96273E-01 7.09277E-35
9.96786E-01 6.06362E-35
9.97261E-01 5.12646E-35
9.97698E-01 4.27758E-35
9.98097E-01 3.51351E-35
9.98459E-01 2.83121E-35
9.98782E-01 2.22783E-35
9.99067E-01 1.70107E-35
9.99315E-01 1.24876E-35
9.99524E-01 8.69061E-36
9.99695E-01 5.60471E-36
9.99829E-01 3.21717E-36
9.99924E-01 1.51865E-36
9.99981E-01 5.02541E-37
1.00000E+00 1.63520E-37
