 #
 # Subroutine ELSEPA. Elastic scattering of electrons and positrons
 #                    by neutral atoms and positive ions
 #
 # Projectile: positron
 # Kinetic energy = 9.00000E+07 eV = 3.30744E+06 a.u.
 #
 # WARNING: High-energy factorization with free-atom DF screening.
 #          Absorption, polarization and exchange corrections are
 #          switched off.
 #          Phase shifts are calculated for the bare nucleus.
 #          Scattering amplitudes are not evaluated.
 #
 # Element: Rn,  Z =  86,  atomic weight = 2.22018E+02 g/mol
 #
 # Nuclear model: Fermi distribution
 #                Average radius = 6.47907E-13 cm
 #                Skin thickness = 5.46000E-14 cm
 #
 # Number of electrons = 86
 #
 # Total elastic cross section = 9.58705E-18 cm**2 = 3.42360E-01 a0**2
 # 1st transport cross section = 1.61764E-24 cm**2 = 5.77668E-08 a0**2
 # 2nd transport cross section = 4.79846E-24 cm**2 = 1.71356E-07 a0**2
 #
 #
 # Differential cross section:                       MU=(1-COS(THETA))/2
 #
 #  THETA        MU          DCS          DCS        Sherman      error
 #  (deg)                 (cm**2/sr)   (a0**2/sr)    function
 #----------------------------------------------------------------------
0.00000E+00 5.26546E-10
7.61557E-13 5.25798E-10
1.18994E-12 5.25380E-10
1.71346E-12 5.24870E-10
2.33225E-12 5.24269E-10
3.04617E-12 5.23576E-10
3.85530E-12 5.22794E-10
4.75964E-12 5.21921E-10
5.75917E-12 5.20960E-10
6.85391E-12 5.19910E-10
8.04379E-12 5.18773E-10
9.32893E-12 5.17549E-10
1.07092E-11 5.16240E-10
1.21847E-11 5.14846E-10
1.37554E-11 5.13369E-10
1.54213E-11 5.11809E-10
1.71823E-11 5.10168E-10
1.90386E-11 5.08447E-10
2.09900E-11 5.06648E-10
2.30367E-11 5.04771E-10
2.51785E-11 5.02819E-10
2.74156E-11 5.00792E-10
2.97478E-11 4.98665E-10
3.21752E-11 4.96469E-10
3.46979E-11 4.94215E-10
3.73157E-11 4.91908E-10
4.00286E-11 4.89550E-10
4.28368E-11 4.87144E-10
4.57402E-11 4.84621E-10
4.87388E-11 4.82020E-10
5.18325E-11 4.79379E-10
5.50215E-11 4.76699E-10
5.83057E-11 4.73984E-10
6.16850E-11 4.71237E-10
6.51595E-11 4.68375E-10
6.87293E-11 4.65434E-10
7.23943E-11 4.62469E-10
7.61544E-11 4.59481E-10
1.18991E-10 4.27443E-10
1.71347E-10 3.92824E-10
2.33223E-10 3.57112E-10
3.04617E-10 3.22016E-10
3.85531E-10 2.88392E-10
4.75965E-10 2.56929E-10
5.75917E-10 2.28220E-10
6.85389E-10 2.02254E-10
8.04380E-10 1.79092E-10
9.32891E-10 1.58669E-10
1.07092E-09 1.40672E-10
1.21847E-09 1.24940E-10
1.37554E-09 1.11233E-10
1.54213E-09 9.92488E-11
1.71823E-09 8.88146E-11
1.90386E-09 7.97197E-11
2.09900E-09 7.17488E-11
2.30367E-09 6.47760E-11
2.51785E-09 5.86539E-11
2.74156E-09 5.32512E-11
2.97478E-09 4.82679E-11
3.21752E-09 4.38853E-11
3.46978E-09 4.00902E-11
3.73156E-09 3.67880E-11
4.00286E-09 3.39014E-11
4.28368E-09 3.13670E-11
4.57402E-09 2.88972E-11
4.87388E-09 2.66212E-11
5.18326E-09 2.46104E-11
5.50215E-09 2.28274E-11
5.83057E-09 2.12407E-11
6.16850E-09 1.98239E-11
6.51596E-09 1.84463E-11
6.87293E-09 1.71512E-11
7.23942E-09 1.59895E-11
7.61544E-09 1.49442E-11
1.18991E-08 8.04507E-12
1.71347E-08 4.71190E-12
2.33223E-08 2.94992E-12
3.04617E-08 1.95000E-12
3.85531E-08 1.34017E-12
4.75965E-08 9.48997E-13
5.75917E-08 6.89532E-13
6.85389E-08 5.12021E-13
8.04380E-08 3.87253E-13
9.32891E-08 2.98454E-13
1.07092E-07 2.33947E-13
1.21847E-07 1.86144E-13
1.37554E-07 1.50048E-13
1.54213E-07 1.22310E-13
1.71823E-07 1.00756E-13
1.90386E-07 8.37989E-14
2.09900E-07 7.02793E-14
2.30367E-07 5.93952E-14
2.51785E-07 5.05422E-14
2.74156E-07 4.32755E-14
2.97478E-07 3.72463E-14
3.21752E-07 3.22595E-14
3.46978E-07 2.80919E-14
3.73156E-07 2.45597E-14
4.00286E-07 2.15884E-14
4.28368E-07 1.90349E-14
4.57402E-07 1.68588E-14
4.87388E-07 1.49851E-14
5.18325E-07 1.33622E-14
5.50215E-07 1.19607E-14
5.83057E-07 1.07300E-14
6.16850E-07 9.65910E-15
6.51596E-07 8.71643E-15
6.87293E-07 7.88614E-15
7.23942E-07 7.15418E-15
7.61543E-07 6.50230E-15
1.18991E-06 2.78744E-15
1.71347E-06 1.38424E-15
2.33223E-06 7.63297E-16
3.04617E-06 4.54963E-16
3.85531E-06 2.87824E-16
4.75964E-06 1.90847E-16
5.75916E-06 1.31453E-16
6.85388E-06 9.34441E-17
8.04378E-06 6.82157E-17
9.32888E-06 5.09457E-17
1.07092E-05 3.88059E-17
1.21846E-05 3.00735E-17
1.37553E-05 2.36634E-17
1.54212E-05 1.88732E-17
1.71822E-05 1.52357E-17
1.90385E-05 1.24252E-17
2.09899E-05 1.02483E-17
2.30365E-05 8.52612E-18
2.51783E-05 7.14854E-18
2.74153E-05 6.03641E-18
2.97475E-05 5.13148E-18
3.21749E-05 4.38992E-18
3.46974E-05 3.77796E-18
3.73152E-05 3.26951E-18
4.00281E-05 2.84414E-18
4.28362E-05 2.48587E-18
4.57395E-05 2.18225E-18
4.87380E-05 1.92346E-18
5.18317E-05 1.70178E-18
5.50205E-05 1.51103E-18
5.83045E-05 1.34623E-18
6.16838E-05 1.20329E-18
6.51582E-05 1.07885E-18
6.87277E-05 9.70111E-19
7.23925E-05 8.74745E-19
7.61524E-05 7.90834E-19
9.21439E-05 5.40813E-19
1.09658E-04 3.82167E-19
1.28695E-04 2.77633E-19
1.49255E-04 2.06488E-19
1.71338E-04 1.56725E-19
1.94942E-04 1.21078E-19
2.20070E-04 9.50050E-20
2.46720E-04 7.55809E-20
2.74892E-04 6.08727E-20
3.04586E-04 4.95704E-20
3.35803E-04 4.07716E-20
3.68542E-04 3.38390E-20
4.02802E-04 2.83176E-20
4.38585E-04 2.38767E-20
4.75889E-04 2.02720E-20
5.14715E-04 1.73221E-20
5.55063E-04 1.48889E-20
5.96931E-04 1.28679E-20
6.40321E-04 1.11779E-20
6.85233E-04 9.75618E-21
7.31665E-04 8.55316E-21
7.79618E-04 7.52968E-21
8.29092E-04 6.65461E-21
8.80086E-04 5.90285E-21
9.32601E-04 5.25412E-21
9.86636E-04 4.69200E-21
1.04219E-03 4.20292E-21
1.09927E-03 3.77585E-21
1.15786E-03 3.40156E-21
1.21797E-03 3.07243E-21
1.27961E-03 2.78210E-21
1.34276E-03 2.52518E-21
1.40743E-03 2.29718E-21
1.47362E-03 2.09430E-21
1.54133E-03 1.91327E-21
1.61056E-03 1.75134E-21
1.68131E-03 1.60614E-21
1.75357E-03 1.47564E-21
1.82735E-03 1.35810E-21
1.90265E-03 1.25200E-21
1.97947E-03 1.15603E-21
2.05780E-03 1.06906E-21
2.13765E-03 9.90088E-22
2.21902E-03 9.18254E-22
2.30190E-03 8.52798E-22
2.38630E-03 7.93051E-22
2.47222E-03 7.38428E-22
2.55965E-03 6.88412E-22
2.64859E-03 6.42545E-22
2.73905E-03 6.00421E-22
2.83103E-03 5.61680E-22
2.92452E-03 5.26003E-22
3.01952E-03 4.93104E-22
3.11604E-03 4.62729E-22
3.21407E-03 4.34650E-22
3.31362E-03 4.08669E-22
3.41468E-03 3.84585E-22
3.51725E-03 3.62224E-22
3.62133E-03 3.41457E-22
3.72692E-03 3.22149E-22
3.83403E-03 3.04179E-22
3.94265E-03 2.87437E-22
4.05278E-03 2.71825E-22
4.16442E-03 2.57252E-22
4.27757E-03 2.43637E-22
4.39223E-03 2.30905E-22
4.50840E-03 2.18989E-22
4.62608E-03 2.07826E-22
4.74527E-03 1.97360E-22
4.86597E-03 1.87541E-22
4.98817E-03 1.78320E-22
5.11188E-03 1.69655E-22
5.23711E-03 1.61505E-22
5.36383E-03 1.53836E-22
5.49207E-03 1.46612E-22
5.62181E-03 1.39804E-22
5.75306E-03 1.33383E-22
5.88581E-03 1.27324E-22
6.02007E-03 1.21602E-22
6.15583E-03 1.16194E-22
6.29310E-03 1.11081E-22
6.43187E-03 1.06244E-22
6.57214E-03 1.01664E-22
6.71392E-03 9.73262E-23
6.85720E-03 9.32148E-23
7.00198E-03 8.93160E-23
7.14827E-03 8.56167E-23
7.29605E-03 8.21048E-23
7.44534E-03 7.87692E-23
7.59612E-03 7.55993E-23
7.97965E-03 6.83374E-23
8.37255E-03 6.19171E-23
8.77480E-03 5.62244E-23
9.18641E-03 5.11630E-23
9.60736E-03 4.66511E-23
1.00376E-02 4.26190E-23
1.04773E-02 3.90070E-23
1.09262E-02 3.57639E-23
1.13844E-02 3.28457E-23
1.18520E-02 3.02142E-23
1.23288E-02 2.78366E-23
1.28150E-02 2.56842E-23
1.33104E-02 2.37320E-23
1.38150E-02 2.19583E-23
1.43290E-02 2.03439E-23
1.48521E-02 1.88721E-23
1.53845E-02 1.75282E-23
1.59262E-02 1.62992E-23
1.64770E-02 1.51736E-23
1.70371E-02 1.41411E-23
1.76063E-02 1.31929E-23
1.81848E-02 1.23208E-23
1.87724E-02 1.15177E-23
1.93692E-02 1.07773E-23
1.99751E-02 1.00938E-23
2.05901E-02 9.46203E-24
2.12143E-02 8.87751E-24
2.18476E-02 8.33608E-24
2.24900E-02 7.83403E-24
2.31415E-02 7.36802E-24
2.38021E-02 6.93502E-24
2.44717E-02 6.53231E-24
2.51504E-02 6.15741E-24
2.58382E-02 5.80808E-24
2.65349E-02 5.48229E-24
2.72407E-02 5.17819E-24
2.79555E-02 4.89409E-24
2.86793E-02 4.62846E-24
2.94120E-02 4.37990E-24
3.01537E-02 4.14714E-24
3.09043E-02 3.92900E-24
3.16639E-02 3.72442E-24
3.24324E-02 3.53241E-24
3.32098E-02 3.35208E-24
3.39961E-02 3.18260E-24
3.47912E-02 3.02322E-24
3.55952E-02 2.87322E-24
3.64081E-02 2.73198E-24
3.72297E-02 2.59890E-24
3.80602E-02 2.47342E-24
3.88995E-02 2.35505E-24
3.97476E-02 2.24333E-24
4.06044E-02 2.13781E-24
4.14700E-02 2.03809E-24
4.23443E-02 1.94382E-24
4.32273E-02 1.85464E-24
4.41190E-02 1.77024E-24
4.50194E-02 1.69031E-24
4.59284E-02 1.61459E-24
4.68461E-02 1.54282E-24
4.87074E-02 1.41020E-24
5.06030E-02 1.29072E-24
5.25328E-02 1.18290E-24
5.44967E-02 1.08543E-24
5.64946E-02 9.97188E-25
5.85262E-02 9.17166E-25
6.05914E-02 8.44495E-25
6.26901E-02 7.78405E-25
6.48222E-02 7.18217E-25
6.69873E-02 6.63332E-25
6.91854E-02 6.13219E-25
7.14163E-02 5.67407E-25
7.36799E-02 5.25477E-25
7.59760E-02 4.87056E-25
7.83043E-02 4.51812E-25
8.06647E-02 4.19448E-25
8.30571E-02 3.89698E-25
8.54812E-02 3.62323E-25
8.79369E-02 3.37111E-25
9.04240E-02 3.13867E-25
9.29422E-02 2.92421E-25
9.54915E-02 2.72614E-25
9.80716E-02 2.54307E-25
1.00682E-01 2.37372E-25
1.03323E-01 2.21694E-25
1.05995E-01 2.07168E-25
1.08696E-01 1.93701E-25
1.11427E-01 1.81205E-25
1.14188E-01 1.69602E-25
1.16978E-01 1.58822E-25
1.19797E-01 1.48799E-25
1.22645E-01 1.39475E-25
1.25522E-01 1.30794E-25
1.28428E-01 1.22709E-25
1.31361E-01 1.15173E-25
1.34323E-01 1.08146E-25
1.37313E-01 1.01588E-25
1.40330E-01 9.54668E-26
1.43375E-01 8.97489E-26
1.46447E-01 8.44052E-26
1.49545E-01 7.94088E-26
1.52671E-01 7.47350E-26
1.55823E-01 7.03607E-26
1.59001E-01 6.62649E-26
1.62205E-01 6.24282E-26
1.65435E-01 5.88327E-26
1.68690E-01 5.54616E-26
1.71970E-01 5.22998E-26
1.75276E-01 4.93330E-26
1.78606E-01 4.65481E-26
1.81961E-01 4.39329E-26
1.85340E-01 4.14762E-26
1.88743E-01 3.91676E-26
1.92169E-01 3.69972E-26
1.95619E-01 3.49563E-26
1.99092E-01 3.30362E-26
2.02589E-01 3.12294E-26
2.06107E-01 2.95286E-26
2.09649E-01 2.79270E-26
2.13212E-01 2.64185E-26
2.16797E-01 2.49970E-26
2.20404E-01 2.36574E-26
2.24032E-01 2.23944E-26
2.27680E-01 2.12033E-26
2.31350E-01 2.00798E-26
2.35040E-01 1.90197E-26
2.38751E-01 1.80191E-26
2.42481E-01 1.70746E-26
2.46231E-01 1.61827E-26
2.50000E-01 1.53402E-26
2.53788E-01 1.45443E-26
2.57595E-01 1.37922E-26
2.61421E-01 1.30813E-26
2.65264E-01 1.24092E-26
2.69126E-01 1.17737E-26
2.73005E-01 1.11726E-26
2.76901E-01 1.06039E-26
2.80814E-01 1.00658E-26
2.84744E-01 9.55656E-27
2.88691E-01 9.07448E-27
2.92653E-01 8.61804E-27
2.96632E-01 8.18579E-27
3.00625E-01 7.77638E-27
3.04634E-01 7.38852E-27
3.08658E-01 7.02102E-27
3.12697E-01 6.67273E-27
3.16749E-01 6.34260E-27
3.20816E-01 6.02963E-27
3.24896E-01 5.73288E-27
3.28990E-01 5.45145E-27
3.33097E-01 5.18450E-27
3.37216E-01 4.93127E-27
3.41348E-01 4.69099E-27
3.45492E-01 4.46298E-27
3.49647E-01 4.24657E-27
3.53814E-01 4.04114E-27
3.57992E-01 3.84610E-27
3.62181E-01 3.66091E-27
3.66381E-01 3.48504E-27
3.70590E-01 3.31799E-27
3.74810E-01 3.15931E-27
3.79039E-01 3.00854E-27
3.83277E-01 2.86529E-27
3.87524E-01 2.72915E-27
3.91780E-01 2.59975E-27
3.96044E-01 2.47675E-27
4.00316E-01 2.35981E-27
4.04596E-01 2.24863E-27
4.08882E-01 2.14289E-27
4.13176E-01 2.04234E-27
4.17476E-01 1.94669E-27
4.21783E-01 1.85570E-27
4.26095E-01 1.76914E-27
4.30413E-01 1.68677E-27
4.34737E-01 1.60838E-27
4.39065E-01 1.53378E-27
4.43398E-01 1.46278E-27
4.47736E-01 1.39519E-27
4.52077E-01 1.33083E-27
4.56422E-01 1.26956E-27
4.60770E-01 1.21122E-27
4.65122E-01 1.15565E-27
4.69476E-01 1.10273E-27
4.73832E-01 1.05232E-27
4.78190E-01 1.00430E-27
4.82550E-01 9.58546E-28
4.86912E-01 9.14952E-28
4.91274E-01 8.73410E-28
4.95637E-01 8.33821E-28
5.00000E-01 7.96089E-28
5.04363E-01 7.60123E-28
5.08726E-01 7.25838E-28
5.13088E-01 6.93151E-28
5.17450E-01 6.61986E-28
5.21810E-01 6.32269E-28
5.26168E-01 6.03931E-28
5.30524E-01 5.76904E-28
5.34878E-01 5.51126E-28
5.39230E-01 5.26537E-28
5.43578E-01 5.03081E-28
5.47923E-01 4.80703E-28
5.52264E-01 4.59351E-28
5.56602E-01 4.38978E-28
5.60935E-01 4.19537E-28
5.65263E-01 4.00982E-28
5.69587E-01 3.83274E-28
5.73905E-01 3.66371E-28
5.78217E-01 3.50236E-28
5.82524E-01 3.34833E-28
5.86824E-01 3.20127E-28
5.91118E-01 3.06086E-28
5.95404E-01 2.92679E-28
5.99684E-01 2.79875E-28
6.03956E-01 2.67648E-28
6.08220E-01 2.55970E-28
6.12476E-01 2.44815E-28
6.16723E-01 2.34160E-28
6.20961E-01 2.23981E-28
6.25190E-01 2.14257E-28
6.29410E-01 2.04966E-28
6.33619E-01 1.96089E-28
6.37819E-01 1.87605E-28
6.42008E-01 1.79499E-28
6.46186E-01 1.71751E-28
6.50353E-01 1.64346E-28
6.54508E-01 1.57269E-28
6.58652E-01 1.50503E-28
6.62784E-01 1.44036E-28
6.66903E-01 1.37853E-28
6.71010E-01 1.31941E-28
6.75104E-01 1.26289E-28
6.79184E-01 1.20884E-28
6.83251E-01 1.15716E-28
6.87303E-01 1.10773E-28
6.91342E-01 1.06046E-28
6.95366E-01 1.01525E-28
6.99375E-01 9.72003E-29
7.03368E-01 9.30635E-29
7.07347E-01 8.91062E-29
7.11309E-01 8.53203E-29
7.15256E-01 8.16981E-29
7.19186E-01 7.82325E-29
7.23099E-01 7.49163E-29
7.26995E-01 7.17430E-29
7.30874E-01 6.87063E-29
7.34736E-01 6.58000E-29
7.38579E-01 6.30185E-29
7.42405E-01 6.03562E-29
7.46212E-01 5.78079E-29
7.50000E-01 5.53685E-29
7.53769E-01 5.30333E-29
7.57519E-01 5.07977E-29
7.61249E-01 4.86572E-29
7.64960E-01 4.66078E-29
7.68650E-01 4.46455E-29
7.72320E-01 4.27664E-29
7.75968E-01 4.09670E-29
7.79596E-01 3.92437E-29
7.83203E-01 3.75933E-29
7.86788E-01 3.60126E-29
7.90351E-01 3.44985E-29
7.93893E-01 3.30482E-29
7.97411E-01 3.16590E-29
8.00908E-01 3.03281E-29
8.04381E-01 2.90530E-29
8.07831E-01 2.78314E-29
8.11257E-01 2.66610E-29
8.14660E-01 2.55395E-29
8.18039E-01 2.44649E-29
8.21394E-01 2.34351E-29
8.24724E-01 2.24482E-29
8.28030E-01 2.15025E-29
8.31310E-01 2.05960E-29
8.34565E-01 1.97272E-29
8.37795E-01 1.88945E-29
8.40999E-01 1.80963E-29
8.44177E-01 1.73311E-29
8.47329E-01 1.65976E-29
8.50455E-01 1.58943E-29
8.53553E-01 1.52202E-29
8.56625E-01 1.45738E-29
8.59670E-01 1.39540E-29
8.62687E-01 1.33597E-29
8.65677E-01 1.27899E-29
8.68639E-01 1.22435E-29
8.71572E-01 1.17194E-29
8.74478E-01 1.12169E-29
8.77355E-01 1.07350E-29
8.80203E-01 1.02727E-29
8.83022E-01 9.82937E-30
8.85812E-01 9.40414E-30
8.88573E-01 8.99626E-30
8.91304E-01 8.60501E-30
8.94005E-01 8.22970E-30
8.96677E-01 7.86968E-30
8.99318E-01 7.52430E-30
9.01928E-01 7.19297E-30
9.04508E-01 6.87510E-30
9.07058E-01 6.57014E-30
9.09576E-01 6.27756E-30
9.12063E-01 5.99685E-30
9.14519E-01 5.72752E-30
9.16943E-01 5.46911E-30
9.19335E-01 5.22117E-30
9.21696E-01 4.98328E-30
9.24024E-01 4.75503E-30
9.26320E-01 4.53602E-30
9.28584E-01 4.32588E-30
9.30815E-01 4.12425E-30
9.33013E-01 3.93080E-30
9.35178E-01 3.74518E-30
9.37310E-01 3.56709E-30
9.39409E-01 3.39622E-30
9.41474E-01 3.23229E-30
9.43505E-01 3.07502E-30
9.45503E-01 2.92415E-30
9.47467E-01 2.77942E-30
9.49397E-01 2.64059E-30
9.51293E-01 2.50743E-30
9.53154E-01 2.37971E-30
9.54981E-01 2.25723E-30
9.56773E-01 2.13978E-30
9.58530E-01 2.02716E-30
9.60252E-01 1.91920E-30
9.61940E-01 1.81571E-30
9.63592E-01 1.71652E-30
9.65209E-01 1.62146E-30
9.66790E-01 1.53039E-30
9.68336E-01 1.44315E-30
9.69846E-01 1.35961E-30
9.71321E-01 1.27961E-30
9.72759E-01 1.20305E-30
9.74162E-01 1.12978E-30
9.75528E-01 1.05969E-30
9.76858E-01 9.92670E-31
9.78152E-01 9.28608E-31
9.79410E-01 8.67403E-31
9.80631E-01 8.08953E-31
9.81815E-01 7.53167E-31
9.82963E-01 6.99954E-31
9.84074E-01 6.49229E-31
9.85148E-01 6.00911E-31
9.86185E-01 5.54922E-31
9.87185E-01 5.11190E-31
9.88148E-01 4.69643E-31
9.89074E-01 4.30217E-31
9.89962E-01 3.92849E-31
9.90814E-01 3.57479E-31
9.91627E-01 3.24050E-31
9.92404E-01 2.92511E-31
9.93143E-01 2.62811E-31
9.93844E-01 2.34904E-31
9.94508E-01 2.08744E-31
9.95134E-01 1.84292E-31
9.95722E-01 1.61509E-31
9.96273E-01 1.40358E-31
9.96786E-01 1.20806E-31
9.97261E-01 1.02823E-31
9.97698E-01 8.63811E-32
9.98097E-01 7.14532E-32
9.98459E-01 5.80167E-32
9.98782E-01 4.60504E-32
9.99067E-01 3.55357E-32
9.99315E-01 2.64557E-32
9.99524E-01 1.87967E-32
9.99695E-01 1.25465E-32
9.99829E-01 7.69532E-33
9.99924E-01 4.23560E-33
9.99981E-01 2.16189E-33
1.00000E+00 1.47101E-33
