 #
 # Subroutine ELSEPA. Elastic scattering of electrons and positrons
 #                    by neutral atoms and positive ions
 #
 # Projectile: positron
 # Kinetic energy = 5.00000E+08 eV = 1.83747E+07 a.u.
 #
 # WARNING: High-energy factorization with free-atom DF screening.
 #          Absorption, polarization and exchange corrections are
 #          switched off.
 #          Phase shifts are calculated for the bare nucleus.
 #          Scattering amplitudes are not evaluated.
 #
 # Element: Rn,  Z =  86,  atomic weight = 2.22018E+02 g/mol
 #
 # Nuclear model: Fermi distribution
 #                Average radius = 6.47907E-13 cm
 #                Skin thickness = 5.46000E-14 cm
 #
 # Number of electrons = 86
 #
 # Total elastic cross section = 9.58244E-18 cm**2 = 3.42195E-01 a0**2
 # 1st transport cross section = 5.46343E-26 cm**2 = 1.95103E-09 a0**2
 # 2nd transport cross section = 1.63837E-25 cm**2 = 5.85074E-09 a0**2
 #
 #
 # Differential cross section:                       MU=(1-COS(THETA))/2
 #
 #  THETA        MU          DCS          DCS        Sherman      error
 #  (deg)                 (cm**2/sr)   (a0**2/sr)    function
 #----------------------------------------------------------------------
0.00000E+00 1.61013E-08
7.61557E-13 1.54285E-08
1.18994E-12 1.50670E-08
1.71346E-12 1.46444E-08
2.33225E-12 1.41684E-08
3.04617E-12 1.36486E-08
3.85530E-12 1.30950E-08
4.75964E-12 1.25170E-08
5.75917E-12 1.19236E-08
6.85391E-12 1.13210E-08
8.04379E-12 1.07174E-08
9.32893E-12 1.01208E-08
1.07092E-11 9.53671E-09
1.21847E-11 8.96960E-09
1.37554E-11 8.42299E-09
1.54213E-11 7.89947E-09
1.71823E-11 7.40087E-09
1.90386E-11 6.92825E-09
2.09900E-11 6.48214E-09
2.30367E-11 6.06257E-09
2.51785E-11 5.66883E-09
2.74156E-11 5.29973E-09
2.97478E-11 4.95552E-09
3.21752E-11 4.63512E-09
3.46979E-11 4.33727E-09
3.73157E-11 4.06071E-09
4.00286E-11 3.80412E-09
4.28368E-11 3.56619E-09
4.57402E-11 3.34566E-09
4.87388E-11 3.14126E-09
5.18325E-11 2.95182E-09
5.50215E-11 2.77620E-09
5.83057E-11 2.61310E-09
6.16850E-11 2.46178E-09
6.51595E-11 2.32137E-09
6.87293E-11 2.19097E-09
7.23943E-11 2.06980E-09
7.61544E-11 1.95710E-09
1.18991E-10 1.15882E-09
1.71347E-10 7.42330E-10
2.33223E-10 4.98906E-10
3.04617E-10 3.47582E-10
3.85531E-10 2.49398E-10
4.75965E-10 1.83632E-10
5.75917E-10 1.38373E-10
6.85389E-10 1.06347E-10
8.04380E-10 8.31867E-11
9.32891E-10 6.60807E-11
1.07092E-09 5.31819E-11
1.21847E-09 4.32803E-11
1.37554E-09 3.55637E-11
1.54213E-09 2.94729E-11
1.71823E-09 2.46133E-11
1.90386E-09 2.07006E-11
2.09900E-09 1.75268E-11
2.30367E-09 1.49383E-11
2.51785E-09 1.27912E-11
2.74156E-09 1.10159E-11
2.97478E-09 9.54170E-12
3.21752E-09 8.30969E-12
3.46978E-09 7.27315E-12
3.73156E-09 6.39531E-12
4.00286E-09 5.64725E-12
4.28368E-09 5.00621E-12
4.57402E-09 4.45415E-12
4.87388E-09 3.97662E-12
5.18326E-09 3.56193E-12
5.50215E-09 3.20044E-12
5.83057E-09 2.88400E-12
6.16850E-09 2.60614E-12
6.51596E-09 2.36128E-12
6.87293E-09 2.14471E-12
7.23942E-09 1.95252E-12
7.61544E-09 1.78144E-12
1.18991E-08 7.87047E-13
1.71347E-08 4.00650E-13
2.33223E-08 2.25150E-13
3.04617E-08 1.35961E-13
3.85531E-08 8.68221E-14
4.75965E-08 5.79877E-14
5.75917E-08 4.01863E-14
6.85389E-08 2.87237E-14
8.04380E-08 2.10777E-14
9.32891E-08 1.58184E-14
1.07092E-07 1.21029E-14
1.21847E-07 9.41762E-15
1.37554E-07 7.43752E-15
1.54213E-07 5.95128E-15
1.71823E-07 4.81795E-15
1.90386E-07 3.94175E-15
2.09900E-07 3.25574E-15
2.30367E-07 2.71245E-15
2.51785E-07 2.27774E-15
2.74156E-07 1.92664E-15
2.97478E-07 1.64057E-15
3.21752E-07 1.40562E-15
3.46978E-07 1.21123E-15
3.73156E-07 1.04929E-15
4.00286E-07 9.13513E-16
4.28368E-07 7.98995E-16
4.57402E-07 7.01868E-16
4.87388E-07 6.19059E-16
5.18325E-07 5.48107E-16
5.50215E-07 4.87036E-16
5.83057E-07 4.34239E-16
6.16850E-07 3.88407E-16
6.51596E-07 3.48466E-16
6.87293E-07 3.13531E-16
7.23942E-07 2.82867E-16
7.61543E-07 2.55863E-16
1.18991E-06 1.05582E-16
1.71347E-06 5.11739E-17
2.33223E-06 2.77198E-17
3.04617E-06 1.62899E-17
3.85531E-06 1.01884E-17
4.75964E-06 6.69370E-18
5.75916E-06 4.57652E-18
6.85388E-06 3.23380E-18
8.04378E-06 2.34917E-18
9.32888E-06 1.74728E-18
1.07092E-05 1.32633E-18
1.21846E-05 1.02480E-18
1.37553E-05 8.04255E-19
1.54212E-05 6.39953E-19
1.71822E-05 5.15529E-19
1.90385E-05 4.19625E-19
2.09899E-05 3.45500E-19
2.30365E-05 2.86976E-19
2.51783E-05 2.40249E-19
2.74153E-05 2.02591E-19
2.97475E-05 1.71998E-19
3.21749E-05 1.46964E-19
3.46974E-05 1.26334E-19
3.73152E-05 1.09216E-19
4.00281E-05 9.49116E-20
4.28362E-05 8.28787E-20
4.57395E-05 7.26923E-20
4.87380E-05 6.40192E-20
5.18317E-05 5.65970E-20
5.50205E-05 5.02164E-20
5.83045E-05 4.47086E-20
6.16838E-05 3.99356E-20
6.51582E-05 3.57837E-20
6.87277E-05 3.21584E-20
7.23925E-05 2.89813E-20
7.61524E-05 2.65376E-20
9.21439E-05 1.81527E-20
1.09658E-04 1.28352E-20
1.28695E-04 9.32861E-21
1.49255E-04 6.94094E-21
1.71338E-04 5.26977E-21
1.94942E-04 4.07166E-21
2.20070E-04 3.19453E-21
2.46720E-04 2.54044E-21
2.74892E-04 2.04467E-21
3.04586E-04 1.66335E-21
3.35803E-04 1.36623E-21
3.68542E-04 1.13195E-21
4.02802E-04 9.45238E-22
4.38585E-04 7.94984E-22
4.75889E-04 6.72980E-22
5.14715E-04 5.73117E-22
5.55063E-04 4.90749E-22
5.96931E-04 4.22349E-22
6.40321E-04 3.65179E-22
6.85233E-04 3.17112E-22
7.31665E-04 2.76477E-22
7.79618E-04 2.41945E-22
8.29092E-04 2.12462E-22
8.80086E-04 1.87174E-22
9.32601E-04 1.65395E-22
9.86636E-04 1.46563E-22
1.04219E-03 1.30219E-22
1.09927E-03 1.15985E-22
1.15786E-03 1.03549E-22
1.21797E-03 9.26487E-23
1.27961E-03 8.30674E-23
1.34276E-03 7.46221E-23
1.40743E-03 6.71588E-23
1.47362E-03 6.05467E-23
1.54133E-03 5.46753E-23
1.61056E-03 4.94497E-23
1.68131E-03 4.47893E-23
1.75357E-03 4.06246E-23
1.82735E-03 3.68956E-23
1.90265E-03 3.35508E-23
1.97947E-03 3.05454E-23
2.05780E-03 2.78404E-23
2.13765E-03 2.54021E-23
2.21902E-03 2.32008E-23
2.30190E-03 2.12107E-23
2.38630E-03 1.94091E-23
2.47222E-03 1.77759E-23
2.55965E-03 1.62936E-23
2.64859E-03 1.49467E-23
2.73905E-03 1.37214E-23
2.83103E-03 1.26054E-23
2.92452E-03 1.15881E-23
3.01952E-03 1.06597E-23
3.11604E-03 9.81164E-24
3.21407E-03 9.03633E-24
3.31362E-03 8.32687E-24
3.41468E-03 7.67715E-24
3.51725E-03 7.08164E-24
3.62133E-03 6.53543E-24
3.72692E-03 6.03405E-24
3.83403E-03 5.57352E-24
3.94265E-03 5.15022E-24
4.05278E-03 4.76089E-24
4.16442E-03 4.40260E-24
4.27757E-03 4.07267E-24
4.39223E-03 3.76870E-24
4.50840E-03 3.48849E-24
4.62608E-03 3.23005E-24
4.74527E-03 2.99159E-24
4.86597E-03 2.77144E-24
4.98817E-03 2.56813E-24
5.11188E-03 2.38027E-24
5.23711E-03 2.20664E-24
5.36383E-03 2.04609E-24
5.49207E-03 1.89758E-24
5.62181E-03 1.76017E-24
5.75306E-03 1.63298E-24
5.88581E-03 1.51521E-24
6.02007E-03 1.40615E-24
6.15583E-03 1.30511E-24
6.29310E-03 1.21148E-24
6.43187E-03 1.12471E-24
6.57214E-03 1.04426E-24
6.71392E-03 9.69662E-25
6.85720E-03 9.00479E-25
7.00198E-03 8.36303E-25
7.14827E-03 7.76762E-25
7.29605E-03 7.21514E-25
7.44534E-03 6.70240E-25
7.59612E-03 6.22648E-25
7.97965E-03 5.18059E-25
8.37255E-03 4.31168E-25
8.77480E-03 3.58943E-25
9.18641E-03 2.98890E-25
9.60736E-03 2.48944E-25
1.00376E-02 2.07402E-25
1.04773E-02 1.72849E-25
1.09262E-02 1.44112E-25
1.13844E-02 1.20216E-25
1.18520E-02 1.00349E-25
1.23288E-02 8.38372E-26
1.28150E-02 7.01163E-26
1.33104E-02 5.87177E-26
1.38150E-02 4.92502E-26
1.43290E-02 4.13876E-26
1.48521E-02 3.48578E-26
1.53845E-02 2.94342E-26
1.59262E-02 2.49276E-26
1.64770E-02 2.11809E-26
1.70371E-02 1.80631E-26
1.76063E-02 1.54654E-26
1.81848E-02 1.32973E-26
1.87724E-02 1.14839E-26
1.93692E-02 9.96315E-27
1.99751E-02 8.68373E-27
2.05901E-02 7.60324E-27
2.12143E-02 6.68677E-27
2.18476E-02 5.90561E-27
2.24900E-02 5.23617E-27
2.31415E-02 4.65916E-27
2.38021E-02 4.15877E-27
2.44717E-02 3.72212E-27
2.51504E-02 3.33872E-27
2.58382E-02 3.00003E-27
2.65349E-02 2.69911E-27
2.72407E-02 2.43032E-27
2.79555E-02 2.18909E-27
2.86793E-02 1.97170E-27
2.94120E-02 1.77512E-27
3.01537E-02 1.59687E-27
3.09043E-02 1.43492E-27
3.16639E-02 1.28757E-27
3.24324E-02 1.15341E-27
3.32098E-02 1.03124E-27
3.39961E-02 9.20039E-28
3.47912E-02 8.18917E-28
3.55952E-02 7.27085E-28
3.64081E-02 6.43837E-28
3.72297E-02 5.68530E-28
3.80602E-02 5.00575E-28
3.88995E-02 4.39421E-28
3.97476E-02 3.84555E-28
4.06044E-02 3.35490E-28
4.14700E-02 2.91766E-28
4.23443E-02 2.52946E-28
4.32273E-02 2.18616E-28
4.41190E-02 1.88382E-28
4.50194E-02 1.61871E-28
4.59284E-02 1.38730E-28
4.68461E-02 1.18627E-28
4.87074E-02 8.63078E-29
5.06030E-02 6.26597E-29
5.25328E-02 4.57483E-29
5.44967E-02 3.39464E-29
5.64946E-02 2.59145E-29
5.85262E-02 2.05766E-29
6.05914E-02 1.70909E-29
6.26901E-02 1.48184E-29
6.48222E-02 1.32906E-29
6.69873E-02 1.21786E-29
6.91854E-02 1.12643E-29
7.14163E-02 1.04143E-29
7.36799E-02 9.55732E-30
7.59760E-02 8.66585E-30
7.83043E-02 7.74048E-30
8.06647E-02 6.79829E-30
8.30571E-02 5.86395E-30
8.54812E-02 4.96356E-30
8.79369E-02 4.12054E-30
9.04240E-02 3.35335E-30
9.29422E-02 2.67442E-30
9.54915E-02 2.09010E-30
9.80716E-02 1.60122E-30
1.00682E-01 1.20400E-30
1.03323E-01 8.91163E-31
1.05995E-01 6.53079E-31
1.08696E-01 4.78795E-31
1.11427E-01 3.56952E-31
1.14188E-01 2.76508E-31
1.16978E-01 2.27278E-31
1.19797E-01 2.00296E-31
1.22645E-01 1.88006E-31
1.25522E-01 1.84333E-31
1.28428E-01 1.84636E-31
1.31361E-01 1.85588E-31
1.34323E-01 1.85009E-31
1.37313E-01 1.81670E-31
1.40330E-01 1.75091E-31
1.43375E-01 1.65342E-31
1.46447E-01 1.52872E-31
1.49545E-01 1.38351E-31
1.52671E-01 1.22547E-31
1.55823E-01 1.06232E-31
1.59001E-01 9.01098E-32
1.62205E-01 7.47725E-32
1.65435E-01 6.06783E-32
1.68690E-01 4.81431E-32
1.71970E-01 3.73469E-32
1.75276E-01 2.83484E-32
1.78606E-01 2.11052E-32
1.81961E-01 1.54964E-32
1.85340E-01 1.13458E-32
1.88743E-01 8.44382E-33
1.92169E-01 6.56591E-33
1.95619E-01 5.48894E-33
1.99092E-01 5.00321E-33
2.02589E-01 4.92118E-33
2.06107E-01 5.08291E-33
2.09649E-01 5.35856E-33
2.13212E-01 5.64863E-33
2.16797E-01 5.88220E-33
2.20404E-01 6.01407E-33
2.24032E-01 6.02088E-33
2.27680E-01 5.89696E-33
2.31350E-01 5.65006E-33
2.35040E-01 5.29732E-33
2.38751E-01 4.86165E-33
2.42481E-01 4.36863E-33
2.46231E-01 3.84401E-33
2.50000E-01 3.31182E-33
2.53788E-01 2.79302E-33
2.57595E-01 2.30472E-33
2.61421E-01 1.85979E-33
2.65264E-01 1.46688E-33
2.69126E-01 1.13068E-33
2.73005E-01 8.52413E-34
2.76901E-01 6.30361E-34
2.80814E-01 4.60562E-34
2.84744E-01 3.37428E-34
2.88691E-01 2.54359E-34
2.92653E-01 2.04279E-34
2.96632E-01 1.80097E-34
3.00625E-01 1.75070E-34
3.04634E-01 1.83076E-34
3.08658E-01 1.98793E-34
3.12697E-01 2.17803E-34
3.16749E-01 2.36621E-34
3.20816E-01 2.52672E-34
3.24896E-01 2.64222E-34
3.28990E-01 2.70284E-34
3.33097E-01 2.70498E-34
3.37216E-01 2.65009E-34
3.41348E-01 2.54342E-34
3.45492E-01 2.39286E-34
3.49647E-01 2.20787E-34
3.53814E-01 1.99857E-34
3.57992E-01 1.77499E-34
3.62181E-01 1.54652E-34
3.66381E-01 1.32146E-34
3.70590E-01 1.10675E-34
3.74810E-01 9.07872E-35
3.79039E-01 7.28763E-35
3.83277E-01 5.71939E-35
3.87524E-01 4.38578E-35
3.91780E-01 3.28715E-35
3.96044E-01 2.41424E-35
4.00316E-01 1.75050E-35
4.04596E-01 1.27389E-35
4.08882E-01 9.59068E-36
4.13176E-01 7.78965E-36
4.17476E-01 7.06368E-36
4.21783E-01 7.15097E-36
4.26095E-01 7.80982E-36
4.30413E-01 8.82499E-36
4.34737E-01 1.00123E-35
4.39065E-01 1.12201E-35
4.43398E-01 1.23302E-35
4.47736E-01 1.32557E-35
4.52077E-01 1.39390E-35
4.56422E-01 1.43482E-35
4.60770E-01 1.44736E-35
4.65122E-01 1.43232E-35
4.69476E-01 1.39192E-35
4.73832E-01 1.32936E-35
4.78190E-01 1.24850E-35
4.82550E-01 1.15355E-35
4.86912E-01 1.04876E-35
4.91274E-01 9.38273E-36
4.95637E-01 8.25891E-36
5.00000E-01 7.14986E-36
5.04363E-01 6.08427E-36
5.08726E-01 5.08513E-36
5.13088E-01 4.16998E-36
5.17450E-01 3.35087E-36
5.21810E-01 2.63486E-36
5.26168E-01 2.02449E-36
5.30524E-01 1.51839E-36
5.34878E-01 1.11200E-36
5.39230E-01 7.98278E-37
5.43578E-01 5.68303E-37
5.47923E-01 4.11992E-37
5.52264E-01 3.18563E-37
5.56602E-01 2.77077E-37
5.60935E-01 2.76870E-37
5.65263E-01 3.07830E-37
5.69587E-01 3.60701E-37
5.73905E-01 4.27207E-37
5.78217E-01 5.00217E-37
5.82524E-01 5.73732E-37
5.86824E-01 6.42971E-37
5.91118E-01 7.04183E-37
5.95404E-01 7.54779E-37
5.99684E-01 7.93013E-37
6.03956E-01 8.18029E-37
6.08220E-01 8.29697E-37
6.12476E-01 8.28429E-37
6.16723E-01 8.15098E-37
6.20961E-01 7.90980E-37
6.25190E-01 7.57534E-37
6.29410E-01 7.16344E-37
6.33619E-01 6.69129E-37
6.37819E-01 6.17541E-37
6.42008E-01 5.63150E-37
6.46186E-01 5.07446E-37
6.50353E-01 4.51719E-37
6.54508E-01 3.97169E-37
6.58652E-01 3.44764E-37
6.62784E-01 2.95288E-37
6.66903E-01 2.49343E-37
6.71010E-01 2.07393E-37
6.75104E-01 1.69700E-37
6.79184E-01 1.36407E-37
6.83251E-01 1.07529E-37
6.87303E-01 8.29595E-38
6.91342E-01 6.25162E-38
6.95366E-01 4.59348E-38
6.99375E-01 3.29141E-38
7.03368E-01 2.31076E-38
7.07347E-01 1.61396E-38
7.11309E-01 1.16494E-38
7.15256E-01 9.25106E-39
7.19186E-01 8.59013E-39
7.23099E-01 9.31943E-39
7.26995E-01 1.11226E-38
7.30874E-01 1.37104E-38
7.34736E-01 1.68230E-38
7.38579E-01 2.02370E-38
7.42405E-01 2.37570E-38
7.46212E-01 2.72201E-38
7.50000E-01 3.05006E-38
7.53769E-01 3.34854E-38
7.57519E-01 3.61094E-38
7.61249E-01 3.83096E-38
7.64960E-01 4.00619E-38
7.68650E-01 4.13421E-38
7.72320E-01 4.21563E-38
7.75968E-01 4.25269E-38
7.79596E-01 4.24693E-38
7.83203E-01 4.20153E-38
7.86788E-01 4.12046E-38
7.90351E-01 4.00790E-38
7.93893E-01 3.86883E-38
7.97411E-01 3.70707E-38
8.00908E-01 3.52699E-38
8.04381E-01 3.33230E-38
8.07831E-01 3.12793E-38
8.11257E-01 2.91743E-38
8.14660E-01 2.70360E-38
8.18039E-01 2.48962E-38
8.21394E-01 2.27913E-38
8.24724E-01 2.07296E-38
8.28030E-01 1.87343E-38
8.31310E-01 1.68298E-38
8.34565E-01 1.50193E-38
8.37795E-01 1.33158E-38
8.40999E-01 1.17260E-38
8.44177E-01 1.02535E-38
8.47329E-01 8.90152E-39
8.50455E-01 7.66512E-39
8.53553E-01 6.55126E-39
8.56625E-01 5.54832E-39
8.59670E-01 4.65634E-39
8.62687E-01 3.86802E-39
8.65677E-01 3.17781E-39
8.68639E-01 2.57978E-39
8.71572E-01 1.00000E-45
8.74478E-01 1.00000E-45
8.77355E-01 1.00000E-45
8.80203E-01 1.00000E-45
8.83022E-01 1.00000E-45
8.85812E-01 1.00000E-45
8.88573E-01 1.00000E-45
8.91304E-01 1.00000E-45
8.94005E-01 1.00000E-45
8.96677E-01 1.00000E-45
8.99318E-01 1.00000E-45
9.01928E-01 1.00000E-45
9.04508E-01 1.00000E-45
9.07058E-01 1.00000E-45
9.09576E-01 1.00000E-45
9.12063E-01 1.00000E-45
9.14519E-01 1.00000E-45
9.16943E-01 1.00000E-45
9.19335E-01 1.00000E-45
9.21696E-01 1.00000E-45
9.24024E-01 1.00000E-45
9.26320E-01 1.00000E-45
9.28584E-01 1.00000E-45
9.30815E-01 1.00000E-45
9.33013E-01 1.00000E-45
9.35178E-01 1.00000E-45
9.37310E-01 1.00000E-45
9.39409E-01 1.00000E-45
9.41474E-01 1.00000E-45
9.43505E-01 1.00000E-45
9.45503E-01 1.00000E-45
9.47467E-01 1.00000E-45
9.49397E-01 1.00000E-45
9.51293E-01 1.00000E-45
9.53154E-01 1.00000E-45
9.54981E-01 1.00000E-45
9.56773E-01 1.00000E-45
9.58530E-01 1.00000E-45
9.60252E-01 1.00000E-45
9.61940E-01 1.00000E-45
9.63592E-01 1.00000E-45
9.65209E-01 1.00000E-45
9.66790E-01 1.00000E-45
9.68336E-01 1.00000E-45
9.69846E-01 1.00000E-45
9.71321E-01 1.00000E-45
9.72759E-01 1.00000E-45
9.74162E-01 1.00000E-45
9.75528E-01 1.00000E-45
9.76858E-01 1.00000E-45
9.78152E-01 1.00000E-45
9.79410E-01 1.00000E-45
9.80631E-01 1.00000E-45
9.81815E-01 1.00000E-45
9.82963E-01 1.00000E-45
9.84074E-01 1.00000E-45
9.85148E-01 1.00000E-45
9.86185E-01 1.00000E-45
9.87185E-01 1.00000E-45
9.88148E-01 1.00000E-45
9.89074E-01 1.00000E-45
9.89962E-01 1.00000E-45
9.90814E-01 1.00000E-45
9.91627E-01 1.00000E-45
9.92404E-01 1.00000E-45
9.93143E-01 1.00000E-45
9.93844E-01 1.00000E-45
9.94508E-01 1.00000E-45
9.95134E-01 1.00000E-45
9.95722E-01 1.00000E-45
9.96273E-01 1.00000E-45
9.96786E-01 1.00000E-45
9.97261E-01 1.00000E-45
9.97698E-01 1.00000E-45
9.98097E-01 1.00000E-45
9.98459E-01 1.00000E-45
9.98782E-01 1.00000E-45
9.99067E-01 1.00000E-45
9.99315E-01 1.00000E-45
9.99524E-01 1.00000E-45
9.99695E-01 1.00000E-45
9.99829E-01 1.00000E-45
9.99924E-01 1.00000E-45
9.99981E-01 1.00000E-45
1.00000E+00 1.00000E-45
