 #
 # Subroutine ELSEPA. Elastic scattering of electrons and positrons
 #                    by neutral atoms and positive ions
 #
 # Projectile: positron
 # Kinetic energy = 3.00000E+06 eV = 1.10248E+05 a.u.
 #
 # WARNING: High-energy factorization with free-atom DF screening.
 #          Absorption, polarization and exchange corrections are
 #          switched off.
 #          Phase shifts are calculated for the bare nucleus.
 #          Scattering amplitudes are not evaluated.
 #
 # Element: Rn,  Z =  86,  atomic weight = 2.22018E+02 g/mol
 #
 # Nuclear model: Fermi distribution
 #                Average radius = 6.47907E-13 cm
 #                Skin thickness = 5.46000E-14 cm
 #
 # Number of electrons = 86
 #
 # Total elastic cross section = 9.77637E-18 cm**2 = 3.49121E-01 a0**2
 # 1st transport cross section = 6.59279E-22 cm**2 = 2.35433E-05 a0**2
 # 2nd transport cross section = 1.88304E-21 cm**2 = 6.72445E-05 a0**2
 #
 #
 # Differential cross section:                       MU=(1-COS(THETA))/2
 #
 #  THETA        MU          DCS          DCS        Sherman      error
 #  (deg)                 (cm**2/sr)   (a0**2/sr)    function
 #----------------------------------------------------------------------
0.00000E+00 7.92310E-13
7.61557E-13 7.92307E-13
1.18994E-12 7.92306E-13
1.71346E-12 7.92305E-13
2.33225E-12 7.92303E-13
3.04617E-12 7.92301E-13
3.85530E-12 7.92299E-13
4.75964E-12 7.92297E-13
5.75917E-12 7.92295E-13
6.85391E-12 7.92292E-13
8.04379E-12 7.92289E-13
9.32893E-12 7.92286E-13
1.07092E-11 7.92283E-13
1.21847E-11 7.92280E-13
1.37554E-11 7.92276E-13
1.54213E-11 7.92272E-13
1.71823E-11 7.92268E-13
1.90386E-11 7.92264E-13
2.09900E-11 7.92259E-13
2.30367E-11 7.92255E-13
2.51785E-11 7.92250E-13
2.74156E-11 7.92245E-13
2.97478E-11 7.92240E-13
3.21752E-11 7.92234E-13
3.46979E-11 7.92228E-13
3.73157E-11 7.92223E-13
4.00286E-11 7.92216E-13
4.28368E-11 7.92210E-13
4.57402E-11 7.92204E-13
4.87388E-11 7.92197E-13
5.18325E-11 7.92190E-13
5.50215E-11 7.92183E-13
5.83057E-11 7.92176E-13
6.16850E-11 7.92168E-13
6.51595E-11 7.92160E-13
6.87293E-11 7.92152E-13
7.23943E-11 7.92144E-13
7.61544E-11 7.92136E-13
1.18991E-10 7.92041E-13
1.71347E-10 7.91926E-13
2.33223E-10 7.91790E-13
3.04617E-10 7.91633E-13
3.85531E-10 7.91456E-13
4.75965E-10 7.91259E-13
5.75917E-10 7.91041E-13
6.85389E-10 7.90803E-13
8.04380E-10 7.90545E-13
9.32891E-10 7.90266E-13
1.07092E-09 7.89966E-13
1.21847E-09 7.89647E-13
1.37554E-09 7.89307E-13
1.54213E-09 7.88947E-13
1.71823E-09 7.88567E-13
1.90386E-09 7.88167E-13
2.09900E-09 7.87746E-13
2.30367E-09 7.87306E-13
2.51785E-09 7.86846E-13
2.74156E-09 7.86365E-13
2.97478E-09 7.85865E-13
3.21752E-09 7.85345E-13
3.46978E-09 7.84806E-13
3.73156E-09 7.84246E-13
4.00286E-09 7.83667E-13
4.28368E-09 7.83069E-13
4.57402E-09 7.82451E-13
4.87388E-09 7.81814E-13
5.18326E-09 7.81157E-13
5.50215E-09 7.80481E-13
5.83057E-09 7.79786E-13
6.16850E-09 7.79072E-13
6.51596E-09 7.78338E-13
6.87293E-09 7.77586E-13
7.23942E-09 7.76815E-13
7.61544E-09 7.76025E-13
1.18991E-08 7.67118E-13
1.71347E-08 7.56448E-13
2.33223E-08 7.44033E-13
3.04617E-08 7.30273E-13
3.85531E-08 7.14990E-13
4.75965E-08 6.98548E-13
5.75917E-08 6.81202E-13
6.85389E-08 6.62667E-13
8.04380E-08 6.43596E-13
9.32891E-08 6.23955E-13
1.07092E-07 6.03702E-13
1.21847E-07 5.83412E-13
1.37554E-07 5.62777E-13
1.54213E-07 5.42119E-13
1.71823E-07 5.21800E-13
1.90386E-07 5.01283E-13
2.09900E-07 4.81241E-13
2.30367E-07 4.61655E-13
2.51785E-07 4.42222E-13
2.74156E-07 4.23489E-13
2.97478E-07 4.05212E-13
3.21752E-07 3.87417E-13
3.46978E-07 3.70392E-13
3.73156E-07 3.53791E-13
4.00286E-07 3.37873E-13
4.28368E-07 3.22712E-13
4.57402E-07 3.07952E-13
4.87388E-07 2.93954E-13
5.18325E-07 2.80589E-13
5.50215E-07 2.67738E-13
5.83057E-07 2.55580E-13
6.16850E-07 2.43944E-13
6.51596E-07 2.32860E-13
6.87293E-07 2.22390E-13
7.23942E-07 2.12347E-13
7.61543E-07 2.02847E-13
1.18991E-06 1.30791E-13
1.71347E-06 8.79353E-14
2.33223E-06 6.09764E-14
3.04617E-06 4.45256E-14
3.85531E-06 3.29731E-14
4.75964E-06 2.50809E-14
5.75916E-06 1.94861E-14
6.85388E-06 1.52431E-14
8.04378E-06 1.21555E-14
9.32888E-06 9.80608E-15
1.07092E-05 7.98911E-15
1.21846E-05 6.59576E-15
1.37553E-05 5.48787E-15
1.54212E-05 4.60826E-15
1.71822E-05 3.90668E-15
1.90385E-05 3.32493E-15
2.09899E-05 2.85581E-15
2.30365E-05 2.46739E-15
2.51783E-05 2.13869E-15
2.74153E-05 1.86410E-15
2.97475E-05 1.63071E-15
3.21749E-05 1.43167E-15
3.46974E-05 1.26282E-15
3.73152E-05 1.11690E-15
4.00281E-05 9.91557E-16
4.28362E-05 8.83578E-16
4.57395E-05 7.89286E-16
4.87380E-05 7.07241E-16
5.18317E-05 6.35135E-16
5.50205E-05 5.71806E-16
5.83045E-05 5.16381E-16
6.16838E-05 4.67515E-16
6.51582E-05 4.24383E-16
6.87277E-05 3.86281E-16
7.23925E-05 3.52330E-16
7.61524E-05 3.22114E-16
9.21439E-05 2.29481E-16
1.09658E-04 1.67992E-16
1.28695E-04 1.25944E-16
1.49255E-04 9.63282E-17
1.71338E-04 7.49498E-17
1.94942E-04 5.91565E-17
2.20070E-04 4.73265E-17
2.46720E-04 3.83234E-17
2.74892E-04 3.13884E-17
3.04586E-04 2.59282E-17
3.35803E-04 2.16194E-17
3.68542E-04 1.81739E-17
4.02802E-04 1.53802E-17
4.38585E-04 1.31089E-17
4.75889E-04 1.12394E-17
5.14715E-04 9.68970E-18
5.55063E-04 8.39990E-18
5.96931E-04 7.31458E-18
6.40321E-04 6.39901E-18
6.85233E-04 5.62278E-18
7.31665E-04 4.95853E-18
7.79618E-04 4.39003E-18
8.29092E-04 3.90042E-18
8.80086E-04 3.47650E-18
9.32601E-04 3.10891E-18
9.86636E-04 2.78826E-18
1.04219E-03 2.50777E-18
1.09927E-03 2.26183E-18
1.15786E-03 2.04500E-18
1.21797E-03 1.85361E-18
1.27961E-03 1.68414E-18
1.34276E-03 1.53343E-18
1.40743E-03 1.39930E-18
1.47362E-03 1.27948E-18
1.54133E-03 1.17216E-18
1.61056E-03 1.07592E-18
1.68131E-03 9.89294E-19
1.75357E-03 9.11214E-19
1.82735E-03 8.40712E-19
1.90265E-03 7.76835E-19
1.97947E-03 7.18928E-19
2.05780E-03 6.66314E-19
2.13765E-03 6.18392E-19
2.21902E-03 5.74712E-19
2.30190E-03 5.34803E-19
2.38630E-03 4.98283E-19
2.47222E-03 4.64833E-19
2.55965E-03 4.34118E-19
2.64859E-03 4.05894E-19
2.73905E-03 3.79926E-19
2.83103E-03 3.55979E-19
2.92452E-03 3.33890E-19
3.01952E-03 3.13479E-19
3.11604E-03 2.94592E-19
3.21407E-03 2.77106E-19
3.31362E-03 2.60887E-19
3.41468E-03 2.45831E-19
3.51725E-03 2.31844E-19
3.62133E-03 2.18826E-19
3.72692E-03 2.06707E-19
3.83403E-03 1.95412E-19
3.94265E-03 1.84870E-19
4.05278E-03 1.75028E-19
4.16442E-03 1.65827E-19
4.27757E-03 1.57218E-19
4.39223E-03 1.49160E-19
4.50840E-03 1.41605E-19
4.62608E-03 1.34521E-19
4.74527E-03 1.27873E-19
4.86597E-03 1.21625E-19
4.98817E-03 1.15753E-19
5.11188E-03 1.10229E-19
5.23711E-03 1.05028E-19
5.36383E-03 1.00129E-19
5.49207E-03 9.55094E-20
5.62181E-03 9.11516E-20
5.75306E-03 8.70387E-20
5.88581E-03 8.31525E-20
6.02007E-03 7.94799E-20
6.15583E-03 7.60068E-20
6.29310E-03 7.27193E-20
6.43187E-03 6.96071E-20
6.57214E-03 6.66583E-20
6.71392E-03 6.38628E-20
6.85720E-03 6.12117E-20
7.00198E-03 5.86955E-20
7.14827E-03 5.63065E-20
7.29605E-03 5.40373E-20
7.44534E-03 5.18799E-20
7.59612E-03 4.98288E-20
7.97965E-03 4.51245E-20
8.37255E-03 4.09590E-20
8.77480E-03 3.72604E-20
9.18641E-03 3.39671E-20
9.60736E-03 3.10276E-20
1.00376E-02 2.83972E-20
1.04773E-02 2.60380E-20
1.09262E-02 2.39171E-20
1.13844E-02 2.20064E-20
1.18520E-02 2.02815E-20
1.23288E-02 1.87211E-20
1.28150E-02 1.73070E-20
1.33104E-02 1.60229E-20
1.38150E-02 1.48549E-20
1.43290E-02 1.37906E-20
1.48521E-02 1.28192E-20
1.53845E-02 1.19313E-20
1.59262E-02 1.11183E-20
1.64770E-02 1.03729E-20
1.70371E-02 9.68841E-21
1.76063E-02 9.05900E-21
1.81848E-02 8.47949E-21
1.87724E-02 7.94518E-21
1.93692E-02 7.45191E-21
1.99751E-02 6.99608E-21
2.05901E-02 6.57422E-21
2.12143E-02 6.18342E-21
2.18476E-02 5.82100E-21
2.24900E-02 5.48446E-21
2.31415E-02 5.17169E-21
2.38021E-02 4.88070E-21
2.44717E-02 4.60967E-21
2.51504E-02 4.35704E-21
2.58382E-02 4.12129E-21
2.65349E-02 3.90112E-21
2.72407E-02 3.69533E-21
2.79555E-02 3.50276E-21
2.86793E-02 3.32246E-21
2.94120E-02 3.15349E-21
3.01537E-02 2.99501E-21
3.09043E-02 2.84626E-21
3.16639E-02 2.70652E-21
3.24324E-02 2.57516E-21
3.32098E-02 2.45159E-21
3.39961E-02 2.33525E-21
3.47912E-02 2.22566E-21
3.55952E-02 2.12235E-21
3.64081E-02 2.02488E-21
3.72297E-02 1.93289E-21
3.80602E-02 1.84600E-21
3.88995E-02 1.76387E-21
3.97476E-02 1.68621E-21
4.06044E-02 1.61272E-21
4.14700E-02 1.54314E-21
4.23443E-02 1.47723E-21
4.32273E-02 1.41475E-21
4.41190E-02 1.35550E-21
4.50194E-02 1.29928E-21
4.59284E-02 1.24590E-21
4.68461E-02 1.19521E-21
4.87074E-02 1.10121E-21
5.06030E-02 1.01616E-21
5.25328E-02 9.39057E-22
5.44967E-02 8.69033E-22
5.64946E-02 8.05324E-22
5.85262E-02 7.47267E-22
6.05914E-02 6.94275E-22
6.26901E-02 6.45831E-22
6.48222E-02 6.01477E-22
6.69873E-02 5.60808E-22
6.91854E-02 5.23468E-22
7.14163E-02 4.89137E-22
7.36799E-02 4.57530E-22
7.59760E-02 4.28394E-22
7.83043E-02 4.01504E-22
8.06647E-02 3.76656E-22
8.30571E-02 3.53669E-22
8.54812E-02 3.32379E-22
8.79369E-02 3.12639E-22
9.04240E-02 2.94318E-22
9.29422E-02 2.77296E-22
9.54915E-02 2.61464E-22
9.80716E-02 2.46726E-22
1.00682E-01 2.32992E-22
1.03323E-01 2.20183E-22
1.05995E-01 2.08225E-22
1.08696E-01 1.97053E-22
1.11427E-01 1.86605E-22
1.14188E-01 1.76826E-22
1.16978E-01 1.67667E-22
1.19797E-01 1.59081E-22
1.22645E-01 1.51026E-22
1.25522E-01 1.43464E-22
1.28428E-01 1.36359E-22
1.31361E-01 1.29679E-22
1.34323E-01 1.23394E-22
1.37313E-01 1.17476E-22
1.40330E-01 1.11902E-22
1.43375E-01 1.06646E-22
1.46447E-01 1.01688E-22
1.49545E-01 9.70083E-23
1.52671E-01 9.25882E-23
1.55823E-01 8.84108E-23
1.59001E-01 8.44605E-23
1.62205E-01 8.07230E-23
1.65435E-01 7.71847E-23
1.68690E-01 7.38331E-23
1.71970E-01 7.06569E-23
1.75276E-01 6.76450E-23
1.78606E-01 6.47876E-23
1.81961E-01 6.20755E-23
1.85340E-01 5.94998E-23
1.88743E-01 5.70527E-23
1.92169E-01 5.47265E-23
1.95619E-01 5.25143E-23
1.99092E-01 5.04095E-23
2.02589E-01 4.84059E-23
2.06107E-01 4.64980E-23
2.09649E-01 4.46803E-23
2.13212E-01 4.29478E-23
2.16797E-01 4.12958E-23
2.20404E-01 3.97200E-23
2.24032E-01 3.82162E-23
2.27680E-01 3.67806E-23
2.31350E-01 3.54096E-23
2.35040E-01 3.40997E-23
2.38751E-01 3.28478E-23
2.42481E-01 3.16508E-23
2.46231E-01 3.05060E-23
2.50000E-01 2.94106E-23
2.53788E-01 2.83621E-23
2.57595E-01 2.73583E-23
2.61421E-01 2.63968E-23
2.65264E-01 2.54757E-23
2.69126E-01 2.45928E-23
2.73005E-01 2.37463E-23
2.76901E-01 2.29346E-23
2.80814E-01 2.21558E-23
2.84744E-01 2.14085E-23
2.88691E-01 2.06912E-23
2.92653E-01 2.00024E-23
2.96632E-01 1.93408E-23
3.00625E-01 1.87052E-23
3.04634E-01 1.80943E-23
3.08658E-01 1.75071E-23
3.12697E-01 1.69424E-23
3.16749E-01 1.63993E-23
3.20816E-01 1.58768E-23
3.24896E-01 1.53739E-23
3.28990E-01 1.48899E-23
3.33097E-01 1.44238E-23
3.37216E-01 1.39750E-23
3.41348E-01 1.35426E-23
3.45492E-01 1.31260E-23
3.49647E-01 1.27244E-23
3.53814E-01 1.23373E-23
3.57992E-01 1.19640E-23
3.62181E-01 1.16040E-23
3.66381E-01 1.12567E-23
3.70590E-01 1.09216E-23
3.74810E-01 1.05982E-23
3.79039E-01 1.02859E-23
3.83277E-01 9.98446E-24
3.87524E-01 9.69332E-24
3.91780E-01 9.41208E-24
3.96044E-01 9.14037E-24
4.00316E-01 8.87779E-24
4.04596E-01 8.62399E-24
4.08882E-01 8.37862E-24
4.13176E-01 8.14137E-24
4.17476E-01 7.91192E-24
4.21783E-01 7.68996E-24
4.26095E-01 7.47522E-24
4.30413E-01 7.26741E-24
4.34737E-01 7.06629E-24
4.39065E-01 6.87159E-24
4.43398E-01 6.68309E-24
4.47736E-01 6.50054E-24
4.52077E-01 6.32373E-24
4.56422E-01 6.15246E-24
4.60770E-01 5.98651E-24
4.65122E-01 5.82569E-24
4.69476E-01 5.66983E-24
4.73832E-01 5.51874E-24
4.78190E-01 5.37224E-24
4.82550E-01 5.23019E-24
4.86912E-01 5.09242E-24
4.91274E-01 4.95879E-24
4.95637E-01 4.82914E-24
5.00000E-01 4.70335E-24
5.04363E-01 4.58127E-24
5.08726E-01 4.46279E-24
5.13088E-01 4.34777E-24
5.17450E-01 4.23610E-24
5.21810E-01 4.12767E-24
5.26168E-01 4.02237E-24
5.30524E-01 3.92008E-24
5.34878E-01 3.82072E-24
5.39230E-01 3.72419E-24
5.43578E-01 3.63038E-24
5.47923E-01 3.53922E-24
5.52264E-01 3.45062E-24
5.56602E-01 3.36449E-24
5.60935E-01 3.28075E-24
5.65263E-01 3.19934E-24
5.69587E-01 3.12016E-24
5.73905E-01 3.04316E-24
5.78217E-01 2.96826E-24
5.82524E-01 2.89539E-24
5.86824E-01 2.82450E-24
5.91118E-01 2.75552E-24
5.95404E-01 2.68839E-24
5.99684E-01 2.62305E-24
6.03956E-01 2.55946E-24
6.08220E-01 2.49754E-24
6.12476E-01 2.43727E-24
6.16723E-01 2.37857E-24
6.20961E-01 2.32142E-24
6.25190E-01 2.26575E-24
6.29410E-01 2.21153E-24
6.33619E-01 2.15872E-24
6.37819E-01 2.10726E-24
6.42008E-01 2.05713E-24
6.46186E-01 2.00828E-24
6.50353E-01 1.96067E-24
6.54508E-01 1.91428E-24
6.58652E-01 1.86905E-24
6.62784E-01 1.82497E-24
6.66903E-01 1.78199E-24
6.71010E-01 1.74009E-24
6.75104E-01 1.69923E-24
6.79184E-01 1.65939E-24
6.83251E-01 1.62053E-24
6.87303E-01 1.58263E-24
6.91342E-01 1.54566E-24
6.95366E-01 1.50960E-24
6.99375E-01 1.47442E-24
7.03368E-01 1.44010E-24
7.07347E-01 1.40661E-24
7.11309E-01 1.37393E-24
7.15256E-01 1.34204E-24
7.19186E-01 1.31092E-24
7.23099E-01 1.28054E-24
7.26995E-01 1.25089E-24
7.30874E-01 1.22194E-24
7.34736E-01 1.19368E-24
7.38579E-01 1.16609E-24
7.42405E-01 1.13915E-24
7.46212E-01 1.11285E-24
7.50000E-01 1.08716E-24
7.53769E-01 1.06208E-24
7.57519E-01 1.03758E-24
7.61249E-01 1.01366E-24
7.64960E-01 9.90288E-25
7.68650E-01 9.67462E-25
7.72320E-01 9.45163E-25
7.75968E-01 9.23380E-25
7.79596E-01 9.02099E-25
7.83203E-01 8.81308E-25
7.86788E-01 8.60994E-25
7.90351E-01 8.41145E-25
7.93893E-01 8.21749E-25
7.97411E-01 8.02796E-25
8.00908E-01 7.84274E-25
8.04381E-01 7.66173E-25
8.07831E-01 7.48483E-25
8.11257E-01 7.31193E-25
8.14660E-01 7.14295E-25
8.18039E-01 6.97778E-25
8.21394E-01 6.81635E-25
8.24724E-01 6.65855E-25
8.28030E-01 6.50430E-25
8.31310E-01 6.35353E-25
8.34565E-01 6.20614E-25
8.37795E-01 6.06207E-25
8.40999E-01 5.92122E-25
8.44177E-01 5.78354E-25
8.47329E-01 5.64895E-25
8.50455E-01 5.51737E-25
8.53553E-01 5.38873E-25
8.56625E-01 5.26298E-25
8.59670E-01 5.14004E-25
8.62687E-01 5.01985E-25
8.65677E-01 4.90234E-25
8.68639E-01 4.78747E-25
8.71572E-01 4.67517E-25
8.74478E-01 4.56539E-25
8.77355E-01 4.45808E-25
8.80203E-01 4.35317E-25
8.83022E-01 4.25062E-25
8.85812E-01 4.15038E-25
8.88573E-01 4.05241E-25
8.91304E-01 3.95664E-25
8.94005E-01 3.86305E-25
8.96677E-01 3.77157E-25
8.99318E-01 3.68218E-25
9.01928E-01 3.59482E-25
9.04508E-01 3.50945E-25
9.07058E-01 3.42604E-25
9.09576E-01 3.34454E-25
9.12063E-01 3.26492E-25
9.14519E-01 3.18714E-25
9.16943E-01 3.11116E-25
9.19335E-01 3.03695E-25
9.21696E-01 2.96448E-25
9.24024E-01 2.89371E-25
9.26320E-01 2.82460E-25
9.28584E-01 2.75714E-25
9.30815E-01 2.69128E-25
9.33013E-01 2.62701E-25
9.35178E-01 2.56428E-25
9.37310E-01 2.50308E-25
9.39409E-01 2.44337E-25
9.41474E-01 2.38513E-25
9.43505E-01 2.32833E-25
9.45503E-01 2.27295E-25
9.47467E-01 2.21897E-25
9.49397E-01 2.16636E-25
9.51293E-01 2.11510E-25
9.53154E-01 2.06516E-25
9.54981E-01 2.01653E-25
9.56773E-01 1.96918E-25
9.58530E-01 1.92310E-25
9.60252E-01 1.87826E-25
9.61940E-01 1.83464E-25
9.63592E-01 1.79224E-25
9.65209E-01 1.75102E-25
9.66790E-01 1.71097E-25
9.68336E-01 1.67208E-25
9.69846E-01 1.63433E-25
9.71321E-01 1.59770E-25
9.72759E-01 1.56218E-25
9.74162E-01 1.52775E-25
9.75528E-01 1.49440E-25
9.76858E-01 1.46211E-25
9.78152E-01 1.43088E-25
9.79410E-01 1.40069E-25
9.80631E-01 1.37152E-25
9.81815E-01 1.34337E-25
9.82963E-01 1.31622E-25
9.84074E-01 1.29007E-25
9.85148E-01 1.26489E-25
9.86185E-01 1.24069E-25
9.87185E-01 1.21745E-25
9.88148E-01 1.19516E-25
9.89074E-01 1.17382E-25
9.89962E-01 1.15341E-25
9.90814E-01 1.13393E-25
9.91627E-01 1.11537E-25
9.92404E-01 1.09772E-25
9.93143E-01 1.08097E-25
9.93844E-01 1.06513E-25
9.94508E-01 1.05017E-25
9.95134E-01 1.03610E-25
9.95722E-01 1.02291E-25
9.96273E-01 1.01060E-25
9.96786E-01 9.99151E-26
9.97261E-01 9.88573E-26
9.97698E-01 9.78856E-26
9.98097E-01 9.69997E-26
9.98459E-01 9.61991E-26
9.98782E-01 9.54837E-26
9.99067E-01 9.48532E-26
9.99315E-01 9.43072E-26
9.99524E-01 9.38455E-26
9.99695E-01 9.34681E-26
9.99829E-01 9.31746E-26
9.99924E-01 9.29651E-26
9.99981E-01 9.28395E-26
1.00000E+00 9.27976E-26
