 #
 # Subroutine ELSEPA. Elastic scattering of electrons and positrons
 #                    by neutral atoms and positive ions
 #
 # Projectile: positron
 # Kinetic energy = 3.00000E+08 eV = 1.10248E+07 a.u.
 #
 # WARNING: High-energy factorization with free-atom DF screening.
 #          Absorption, polarization and exchange corrections are
 #          switched off.
 #          Phase shifts are calculated for the bare nucleus.
 #          Scattering amplitudes are not evaluated.
 #
 # Element: Rn,  Z =  86,  atomic weight = 2.22018E+02 g/mol
 #
 # Nuclear model: Fermi distribution
 #                Average radius = 6.47907E-13 cm
 #                Skin thickness = 5.46000E-14 cm
 #
 # Number of electrons = 86
 #
 # Total elastic cross section = 9.58621E-18 cm**2 = 3.42330E-01 a0**2
 # 1st transport cross section = 1.51094E-25 cm**2 = 5.39565E-09 a0**2
 # 2nd transport cross section = 4.52775E-25 cm**2 = 1.61689E-08 a0**2
 #
 #
 # Differential cross section:                       MU=(1-COS(THETA))/2
 #
 #  THETA        MU          DCS          DCS        Sherman      error
 #  (deg)                 (cm**2/sr)   (a0**2/sr)    function
 #----------------------------------------------------------------------
0.00000E+00 5.80436E-09
7.61557E-13 5.71499E-09
1.18994E-12 5.66571E-09
1.71346E-12 5.60639E-09
2.33225E-12 5.53750E-09
3.04617E-12 5.45894E-09
3.85530E-12 5.37320E-09
4.75964E-12 5.27850E-09
5.75917E-12 5.17852E-09
6.85391E-12 5.07030E-09
8.04379E-12 4.95836E-09
9.32893E-12 4.84037E-09
1.07092E-11 4.71934E-09
1.21847E-11 4.59478E-09
1.37554E-11 4.46750E-09
1.54213E-11 4.33933E-09
1.71823E-11 4.20851E-09
1.90386E-11 4.07937E-09
2.09900E-11 3.94744E-09
2.30367E-11 3.81890E-09
2.51785E-11 3.68867E-09
2.74156E-11 3.56199E-09
2.97478E-11 3.43579E-09
3.21752E-11 3.31256E-09
3.46979E-11 3.19166E-09
3.73157E-11 3.07310E-09
4.00286E-11 2.95839E-09
4.28368E-11 2.84541E-09
4.57402E-11 2.73745E-09
4.87388E-11 2.63068E-09
5.18325E-11 2.52914E-09
5.50215E-11 2.42955E-09
5.83057E-11 2.33448E-09
6.16850E-11 2.24225E-09
6.51595E-11 2.15373E-09
6.87293E-11 2.06866E-09
7.23943E-11 1.98662E-09
7.61544E-11 1.90843E-09
1.18991E-10 1.28389E-09
1.71347E-10 8.86170E-10
2.33223E-10 6.31479E-10
3.04617E-10 4.59561E-10
3.85531E-10 3.48904E-10
4.75965E-10 2.67141E-10
5.75917E-10 2.10751E-10
6.85389E-10 1.66482E-10
8.04380E-10 1.34411E-10
9.32891E-10 1.09060E-10
1.07092E-09 8.97250E-11
1.21847E-09 7.43909E-11
1.37554E-09 6.22412E-11
1.54213E-09 5.25481E-11
1.71823E-09 4.46306E-11
1.90386E-09 3.82593E-11
2.09900E-09 3.29169E-11
2.30367E-09 2.85612E-11
2.51785E-09 2.48532E-11
2.74156E-09 2.17701E-11
2.97478E-09 1.91303E-11
3.21752E-09 1.68890E-11
3.46978E-09 1.49620E-11
3.73156E-09 1.32964E-11
4.00286E-09 1.18603E-11
4.28368E-09 1.06005E-11
4.57402E-09 9.51195E-12
4.87388E-09 8.54545E-12
5.18326E-09 7.70563E-12
5.50215E-09 6.95844E-12
5.83057E-09 6.30329E-12
6.16850E-09 5.72183E-12
6.51596E-09 5.20443E-12
6.87293E-09 4.74187E-12
7.23942E-09 4.32917E-12
7.61544E-09 3.96157E-12
1.18991E-08 1.80026E-12
1.71347E-08 9.37160E-13
2.33223E-08 5.36495E-13
3.04617E-08 3.29061E-13
3.85531E-08 2.13007E-13
4.75965E-08 1.44056E-13
5.75917E-08 1.00947E-13
6.85389E-08 7.27889E-14
8.04380E-08 5.38055E-14
9.32891E-08 4.06116E-14
1.07092E-07 3.12139E-14
1.21847E-07 2.43836E-14
1.37554E-07 1.93192E-14
1.54213E-07 1.55045E-14
1.71823E-07 1.25881E-14
1.90386E-07 1.03259E-14
2.09900E-07 8.55113E-15
2.30367E-07 7.14244E-15
2.51785E-07 6.01241E-15
2.74156E-07 5.09778E-15
2.97478E-07 4.35069E-15
3.21752E-07 3.73564E-15
3.46978E-07 3.22567E-15
3.73156E-07 2.79967E-15
4.00286E-07 2.44175E-15
4.28368E-07 2.13922E-15
4.57402E-07 1.88202E-15
4.87388E-07 1.66233E-15
5.18325E-07 1.47372E-15
5.50215E-07 1.31107E-15
5.83057E-07 1.17024E-15
6.16850E-07 1.04777E-15
6.51596E-07 9.40893E-16
6.87293E-07 8.47288E-16
7.23942E-07 7.65011E-16
7.61543E-07 6.92475E-16
1.18991E-06 2.87152E-16
1.71347E-06 1.39579E-16
2.33223E-06 7.57721E-17
3.04617E-06 4.46097E-17
3.85531E-06 2.79447E-17
4.75964E-06 1.83844E-17
5.75916E-06 1.25842E-17
6.85388E-06 8.90097E-18
8.04378E-06 6.47159E-18
9.32888E-06 4.81705E-18
1.07092E-05 3.65885E-18
1.21846E-05 2.82861E-18
1.37553E-05 2.22095E-18
1.54212E-05 1.76798E-18
1.71822E-05 1.42476E-18
1.90385E-05 1.16009E-18
2.09899E-05 9.55445E-19
2.30365E-05 7.93808E-19
2.51783E-05 6.64708E-19
2.74153E-05 5.60633E-19
2.97475E-05 4.76060E-19
3.21749E-05 4.06837E-19
3.46974E-05 3.49781E-19
3.73152E-05 3.02426E-19
4.00281E-05 2.62850E-19
4.28362E-05 2.29551E-19
4.57395E-05 2.01358E-19
4.87380E-05 1.77349E-19
5.18317E-05 1.56801E-19
5.50205E-05 1.39135E-19
5.83045E-05 1.23883E-19
6.16838E-05 1.10664E-19
6.51582E-05 9.91648E-20
6.87277E-05 8.91231E-20
7.23925E-05 8.03219E-20
7.61524E-05 7.29004E-20
9.21439E-05 4.98221E-20
1.09658E-04 3.51971E-20
1.28695E-04 2.55693E-20
1.49255E-04 1.90206E-20
1.71338E-04 1.44414E-20
1.94942E-04 1.11615E-20
2.20070E-04 8.76233E-21
2.46720E-04 6.97462E-21
2.74892E-04 5.62058E-21
3.04586E-04 4.58002E-21
3.35803E-04 3.76886E-21
3.68542E-04 3.12935E-21
4.02802E-04 2.61972E-21
4.38585E-04 2.20956E-21
4.75889E-04 1.87641E-21
5.14715E-04 1.60359E-21
5.55063E-04 1.37841E-21
5.96931E-04 1.19124E-21
6.40321E-04 1.03464E-21
6.85233E-04 9.02793E-22
7.31665E-04 7.91168E-22
7.79618E-04 6.96144E-22
8.29092E-04 6.14854E-22
8.80086E-04 5.44982E-22
9.32601E-04 4.84659E-22
9.86636E-04 4.32365E-22
1.04219E-03 3.86851E-22
1.09927E-03 3.47094E-22
1.15786E-03 3.12241E-22
1.21797E-03 2.81588E-22
1.27961E-03 2.54543E-22
1.34276E-03 2.30610E-22
1.40743E-03 2.09372E-22
1.47362E-03 1.90473E-22
1.54133E-03 1.73613E-22
1.61056E-03 1.58535E-22
1.68131E-03 1.45018E-22
1.75357E-03 1.32875E-22
1.82735E-03 1.21942E-22
1.90265E-03 1.12079E-22
1.97947E-03 1.03163E-22
2.05780E-03 9.50886E-23
2.13765E-03 8.77627E-23
2.21902E-03 8.11045E-23
2.30190E-03 7.50433E-23
2.38630E-03 6.95166E-23
2.47222E-03 6.44695E-23
2.55965E-03 5.98537E-23
2.64859E-03 5.56263E-23
2.73905E-03 5.17493E-23
2.83103E-03 4.81889E-23
2.92452E-03 4.49152E-23
3.01952E-03 4.19013E-23
3.11604E-03 3.91233E-23
3.21407E-03 3.65599E-23
3.31362E-03 3.41919E-23
3.41468E-03 3.20019E-23
3.51725E-03 2.99746E-23
3.62133E-03 2.80960E-23
3.72692E-03 2.63535E-23
3.83403E-03 2.47357E-23
3.94265E-03 2.32323E-23
4.05278E-03 2.18340E-23
4.16442E-03 2.05323E-23
4.27757E-03 1.93197E-23
4.39223E-03 1.81890E-23
4.50840E-03 1.71339E-23
4.62608E-03 1.61487E-23
4.74527E-03 1.52280E-23
4.86597E-03 1.43670E-23
4.98817E-03 1.35612E-23
5.11188E-03 1.28067E-23
5.23711E-03 1.20997E-23
5.36383E-03 1.14367E-23
5.49207E-03 1.08148E-23
5.62181E-03 1.02309E-23
5.75306E-03 9.68241E-24
5.88581E-03 9.16695E-24
6.02007E-03 8.68223E-24
6.15583E-03 8.22618E-24
6.29310E-03 7.79687E-24
6.43187E-03 7.39254E-24
6.57214E-03 7.01154E-24
6.71392E-03 6.65236E-24
6.85720E-03 6.31359E-24
7.00198E-03 5.99393E-24
7.14827E-03 5.69216E-24
7.29605E-03 5.40716E-24
7.44534E-03 5.13788E-24
7.59612E-03 4.88336E-24
7.97965E-03 4.30583E-24
8.37255E-03 3.80252E-24
8.77480E-03 3.36290E-24
9.18641E-03 2.97812E-24
9.60736E-03 2.64068E-24
1.00376E-02 2.34421E-24
1.04773E-02 2.08328E-24
1.09262E-02 1.85326E-24
1.13844E-02 1.65019E-24
1.18520E-02 1.47065E-24
1.23288E-02 1.31170E-24
1.28150E-02 1.17081E-24
1.33104E-02 1.04577E-24
1.38150E-02 9.34689E-25
1.43290E-02 8.35899E-25
1.48521E-02 7.47957E-25
1.53845E-02 6.69603E-25
1.59262E-02 5.99733E-25
1.64770E-02 5.37381E-25
1.70371E-02 4.81696E-25
1.76063E-02 4.31934E-25
1.81848E-02 3.87437E-25
1.87724E-02 3.47625E-25
1.93692E-02 3.11985E-25
1.99751E-02 2.80067E-25
2.05901E-02 2.51468E-25
2.12143E-02 2.25832E-25
2.18476E-02 2.02846E-25
2.24900E-02 1.82228E-25
2.31415E-02 1.63728E-25
2.38021E-02 1.47125E-25
2.44717E-02 1.32222E-25
2.51504E-02 1.18841E-25
2.58382E-02 1.06825E-25
2.65349E-02 9.60326E-26
2.72407E-02 8.63390E-26
2.79555E-02 7.76312E-26
2.86793E-02 6.98083E-26
2.94120E-02 6.27801E-26
3.01537E-02 5.64657E-26
3.09043E-02 5.07924E-26
3.16639E-02 4.56953E-26
3.24324E-02 4.11159E-26
3.32098E-02 3.70017E-26
3.39961E-02 3.33056E-26
3.47912E-02 2.99852E-26
3.55952E-02 2.70026E-26
3.64081E-02 2.43235E-26
3.72297E-02 2.19172E-26
3.80602E-02 1.97559E-26
3.88995E-02 1.78150E-26
3.97476E-02 1.60719E-26
4.06044E-02 1.45066E-26
4.14700E-02 1.31009E-26
4.23443E-02 1.18386E-26
4.32273E-02 1.07051E-26
4.41190E-02 9.68706E-27
4.50194E-02 8.77277E-27
4.59284E-02 7.95153E-27
4.68461E-02 7.21377E-27
4.87074E-02 5.95510E-27
5.06030E-02 4.93782E-27
5.25328E-02 4.11436E-27
5.44967E-02 3.44639E-27
5.64946E-02 2.90306E-27
5.85262E-02 2.45958E-27
6.05914E-02 2.09607E-27
6.26901E-02 1.79661E-27
6.48222E-02 1.54848E-27
6.69873E-02 1.34156E-27
6.91854E-02 1.16778E-27
7.14163E-02 1.02073E-27
7.36799E-02 8.95339E-28
7.59760E-02 7.87602E-28
7.83043E-02 6.94342E-28
8.06647E-02 6.13053E-28
8.30571E-02 5.41754E-28
8.54812E-02 4.78876E-28
8.79369E-02 4.23172E-28
9.04240E-02 3.73648E-28
9.29422E-02 3.29501E-28
9.54915E-02 2.90082E-28
9.80716E-02 2.54854E-28
1.00682E-01 2.23371E-28
1.03323E-01 1.95254E-28
1.05995E-01 1.70177E-28
1.08696E-01 1.47854E-28
1.11427E-01 1.28031E-28
1.14188E-01 1.10478E-28
1.16978E-01 9.49851E-29
1.19797E-01 8.13610E-29
1.22645E-01 6.94275E-29
1.25522E-01 5.90192E-29
1.28428E-01 4.99825E-29
1.31361E-01 4.21745E-29
1.34323E-01 3.54624E-29
1.37313E-01 2.97234E-29
1.40330E-01 2.48440E-29
1.43375E-01 2.07199E-29
1.46447E-01 1.72558E-29
1.49545E-01 1.43648E-29
1.52671E-01 1.19682E-29
1.55823E-01 9.99545E-30
1.59001E-01 8.38319E-30
1.62205E-01 7.07523E-30
1.65435E-01 6.02195E-30
1.68690E-01 5.17986E-30
1.71970E-01 4.51115E-30
1.75276E-01 3.98318E-30
1.78606E-01 3.56804E-30
1.81961E-01 3.24204E-30
1.85340E-01 2.98534E-30
1.88743E-01 2.78145E-30
1.92169E-01 2.61686E-30
1.95619E-01 2.48066E-30
1.99092E-01 2.36418E-30
2.02589E-01 2.26069E-30
2.06107E-01 2.16506E-30
2.09649E-01 2.07354E-30
2.13212E-01 1.98348E-30
2.16797E-01 1.89317E-30
2.20404E-01 1.80161E-30
2.24032E-01 1.70838E-30
2.27680E-01 1.61347E-30
2.31350E-01 1.51720E-30
2.35040E-01 1.42011E-30
2.38751E-01 1.32286E-30
2.42481E-01 1.22618E-30
2.46231E-01 1.13084E-30
2.50000E-01 1.03757E-30
2.53788E-01 9.47045E-31
2.57595E-01 8.59886E-31
2.61421E-01 7.76616E-31
2.65264E-01 6.97669E-31
2.69126E-01 6.23380E-31
2.73005E-01 5.53992E-31
2.76901E-01 4.89655E-31
2.80814E-01 4.30436E-31
2.84744E-01 3.76322E-31
2.88691E-01 3.27235E-31
2.92653E-01 2.83036E-31
2.96632E-01 2.43538E-31
3.00625E-01 2.08512E-31
3.04634E-01 1.77700E-31
3.08658E-01 1.50820E-31
3.12697E-01 1.27575E-31
3.16749E-01 1.07660E-31
3.20816E-01 9.07671E-32
3.24896E-01 7.65928E-32
3.28990E-01 6.48403E-32
3.33097E-01 5.52245E-32
3.37216E-01 4.74743E-32
3.41348E-01 4.13351E-32
3.45492E-01 3.65703E-32
3.49647E-01 3.29625E-32
3.53814E-01 3.03137E-32
3.57992E-01 2.84459E-32
3.62181E-01 2.72002E-32
3.66381E-01 2.64370E-32
3.70590E-01 2.60346E-32
3.74810E-01 2.58885E-32
3.79039E-01 2.59103E-32
3.83277E-01 2.60261E-32
3.87524E-01 2.61758E-32
3.91780E-01 2.63113E-32
3.96044E-01 2.63956E-32
4.00316E-01 2.64010E-32
4.04596E-01 2.63083E-32
4.08882E-01 2.61055E-32
4.13176E-01 2.57868E-32
4.17476E-01 2.53511E-32
4.21783E-01 2.48017E-32
4.26095E-01 2.41452E-32
4.30413E-01 2.33904E-32
4.34737E-01 2.25481E-32
4.39065E-01 2.16303E-32
4.43398E-01 2.06498E-32
4.47736E-01 1.96196E-32
4.52077E-01 1.85526E-32
4.56422E-01 1.74614E-32
4.60770E-01 1.63578E-32
4.65122E-01 1.52530E-32
4.69476E-01 1.41572E-32
4.73832E-01 1.30797E-32
4.78190E-01 1.20285E-32
4.82550E-01 1.10107E-32
4.86912E-01 1.00322E-32
4.91274E-01 9.09799E-33
4.95637E-01 8.21180E-33
5.00000E-01 7.37655E-33
5.04363E-01 6.59424E-33
5.08726E-01 5.86604E-33
5.13088E-01 5.19237E-33
5.17450E-01 4.57298E-33
5.21810E-01 4.00705E-33
5.26168E-01 3.49324E-33
5.30524E-01 3.02981E-33
5.34878E-01 2.61465E-33
5.39230E-01 2.24537E-33
5.43578E-01 1.91938E-33
5.47923E-01 1.63393E-33
5.52264E-01 1.38616E-33
5.56602E-01 1.17317E-33
5.60935E-01 9.92051E-34
5.65263E-01 8.39913E-34
5.69587E-01 7.13931E-34
5.73905E-01 6.11371E-34
5.78217E-01 5.29603E-34
5.82524E-01 4.66129E-34
5.86824E-01 4.18589E-34
5.91118E-01 3.84775E-34
5.95404E-01 3.62635E-34
5.99684E-01 3.50281E-34
6.03956E-01 3.45983E-34
6.08220E-01 3.48174E-34
6.12476E-01 3.55444E-34
6.16723E-01 3.66535E-34
6.20961E-01 3.80337E-34
6.25190E-01 3.95878E-34
6.29410E-01 4.12320E-34
6.33619E-01 4.28944E-34
6.37819E-01 4.45149E-34
6.42008E-01 4.60437E-34
6.46186E-01 4.74407E-34
6.50353E-01 4.86747E-34
6.54508E-01 4.97219E-34
6.58652E-01 5.05656E-34
6.62784E-01 5.11954E-34
6.66903E-01 5.16063E-34
6.71010E-01 5.17975E-34
6.75104E-01 5.17726E-34
6.79184E-01 5.15383E-34
6.83251E-01 5.11037E-34
6.87303E-01 5.04807E-34
6.91342E-01 4.96822E-34
6.95366E-01 4.87229E-34
6.99375E-01 4.76181E-34
7.03368E-01 4.63833E-34
7.07347E-01 4.50351E-34
7.11309E-01 4.35887E-34
7.15256E-01 4.20605E-34
7.19186E-01 4.04652E-34
7.23099E-01 3.88179E-34
7.26995E-01 3.71323E-34
7.30874E-01 3.54216E-34
7.34736E-01 3.36977E-34
7.38579E-01 3.19723E-34
7.42405E-01 3.02556E-34
7.46212E-01 2.85567E-34
7.50000E-01 2.68844E-34
7.53769E-01 2.52457E-34
7.57519E-01 2.36473E-34
7.61249E-01 2.20946E-34
7.64960E-01 2.05925E-34
7.68650E-01 1.91447E-34
7.72320E-01 1.77543E-34
7.75968E-01 1.64240E-34
7.79596E-01 1.51552E-34
7.83203E-01 1.39492E-34
7.86788E-01 1.28064E-34
7.90351E-01 1.17271E-34
7.93893E-01 1.07108E-34
7.97411E-01 9.75682E-35
8.00908E-01 8.86393E-35
8.04381E-01 8.03071E-35
8.07831E-01 7.25555E-35
8.11257E-01 6.53656E-35
8.14660E-01 5.87164E-35
8.18039E-01 5.25860E-35
8.21394E-01 4.69519E-35
8.24724E-01 4.17892E-35
8.28030E-01 3.70739E-35
8.31310E-01 3.27818E-35
8.34565E-01 2.88879E-35
8.37795E-01 2.53678E-35
8.40999E-01 2.21973E-35
8.44177E-01 1.93526E-35
8.47329E-01 1.68109E-35
8.50455E-01 1.45493E-35
8.53553E-01 1.25467E-35
8.56625E-01 1.07819E-35
8.59670E-01 9.23525E-36
8.62687E-01 7.88774E-36
8.65677E-01 6.72146E-36
8.68639E-01 5.71943E-36
8.71572E-01 4.86571E-36
8.74478E-01 4.14518E-36
8.77355E-01 3.54388E-36
8.80203E-01 3.04876E-36
8.83022E-01 2.64769E-36
8.85812E-01 2.32946E-36
8.88573E-01 2.08372E-36
8.91304E-01 1.90099E-36
8.94005E-01 1.77257E-36
8.96677E-01 1.69057E-36
8.99318E-01 1.64774E-36
9.01928E-01 1.63764E-36
9.04508E-01 1.65440E-36
9.07058E-01 1.69279E-36
9.09576E-01 1.74810E-36
9.12063E-01 1.81621E-36
9.14519E-01 1.89336E-36
9.16943E-01 1.97649E-36
9.19335E-01 2.06274E-36
9.21696E-01 2.14984E-36
9.24024E-01 2.23539E-36
9.26320E-01 2.31798E-36
9.28584E-01 2.39610E-36
9.30815E-01 2.46847E-36
9.33013E-01 2.53443E-36
9.35178E-01 2.59281E-36
9.37310E-01 2.64333E-36
9.39409E-01 2.68545E-36
9.41474E-01 2.71913E-36
9.43505E-01 2.74416E-36
9.45503E-01 2.76050E-36
9.47467E-01 2.76839E-36
9.49397E-01 2.76788E-36
9.51293E-01 2.75923E-36
9.53154E-01 2.74278E-36
9.54981E-01 2.71898E-36
9.56773E-01 2.68791E-36
9.58530E-01 2.65036E-36
9.60252E-01 2.60649E-36
9.61940E-01 2.55695E-36
9.63592E-01 2.50218E-36
9.65209E-01 2.44255E-36
9.66790E-01 2.37871E-36
9.68336E-01 2.31081E-36
9.69846E-01 2.23962E-36
9.71321E-01 2.16549E-36
9.72759E-01 2.08895E-36
9.74162E-01 2.01016E-36
9.75528E-01 1.92973E-36
9.76858E-01 1.84804E-36
9.78152E-01 1.76542E-36
9.79410E-01 1.68232E-36
9.80631E-01 1.59887E-36
9.81815E-01 1.51553E-36
9.82963E-01 1.43265E-36
9.84074E-01 1.35036E-36
9.85148E-01 1.26910E-36
9.86185E-01 1.18897E-36
9.87185E-01 1.11035E-36
9.88148E-01 1.03328E-36
9.89074E-01 9.58078E-37
9.89962E-01 8.84896E-37
9.90814E-01 8.13904E-37
9.91627E-01 7.45182E-37
9.92404E-01 6.78816E-37
9.93143E-01 6.15254E-37
9.93844E-01 5.54323E-37
9.94508E-01 4.96159E-37
9.95134E-01 4.40998E-37
9.95722E-01 3.88748E-37
9.96273E-01 3.39578E-37
9.96786E-01 2.93541E-37
9.97261E-01 2.50719E-37
9.97698E-01 2.11177E-37
9.98097E-01 1.74841E-37
9.98459E-01 1.41910E-37
9.98782E-01 1.12338E-37
9.99067E-01 8.62382E-38
9.99315E-01 6.34537E-38
9.99524E-01 4.42321E-38
9.99695E-01 2.84386E-38
9.99829E-01 1.61551E-38
9.99924E-01 7.36956E-39
9.99981E-01 2.07767E-39
1.00000E+00 3.21765E-40
