 #
 # Subroutine ELSEPA. Elastic scattering of electrons and positrons
 #                    by neutral atoms and positive ions
 #
 # Projectile: positron
 # Kinetic energy = 6.00000E+06 eV = 2.20496E+05 a.u.
 #
 # WARNING: High-energy factorization with free-atom DF screening.
 #          Absorption, polarization and exchange corrections are
 #          switched off.
 #          Phase shifts are calculated for the bare nucleus.
 #          Scattering amplitudes are not evaluated.
 #
 # Element: Rn,  Z =  86,  atomic weight = 2.22018E+02 g/mol
 #
 # Nuclear model: Fermi distribution
 #                Average radius = 6.47907E-13 cm
 #                Skin thickness = 5.46000E-14 cm
 #
 # Number of electrons = 86
 #
 # Total elastic cross section = 9.63933E-18 cm**2 = 3.44227E-01 a0**2
 # 1st transport cross section = 2.13570E-22 cm**2 = 7.62671E-06 a0**2
 # 2nd transport cross section = 6.14734E-22 cm**2 = 2.19525E-05 a0**2
 #
 #
 # Differential cross section:                       MU=(1-COS(THETA))/2
 #
 #  THETA        MU          DCS          DCS        Sherman      error
 #  (deg)                 (cm**2/sr)   (a0**2/sr)    function
 #----------------------------------------------------------------------
0.00000E+00 2.72476E-12
7.61557E-13 2.72474E-12
1.18994E-12 2.72473E-12
1.71346E-12 2.72471E-12
2.33225E-12 2.72470E-12
3.04617E-12 2.72468E-12
3.85530E-12 2.72465E-12
4.75964E-12 2.72463E-12
5.75917E-12 2.72460E-12
6.85391E-12 2.72457E-12
8.04379E-12 2.72454E-12
9.32893E-12 2.72451E-12
1.07092E-11 2.72447E-12
1.21847E-11 2.72443E-12
1.37554E-11 2.72439E-12
1.54213E-11 2.72434E-12
1.71823E-11 2.72430E-12
1.90386E-11 2.72425E-12
2.09900E-11 2.72420E-12
2.30367E-11 2.72414E-12
2.51785E-11 2.72409E-12
2.74156E-11 2.72403E-12
2.97478E-11 2.72396E-12
3.21752E-11 2.72390E-12
3.46979E-11 2.72383E-12
3.73157E-11 2.72377E-12
4.00286E-11 2.72369E-12
4.28368E-11 2.72362E-12
4.57402E-11 2.72354E-12
4.87388E-11 2.72346E-12
5.18325E-11 2.72338E-12
5.50215E-11 2.72330E-12
5.83057E-11 2.72321E-12
6.16850E-11 2.72312E-12
6.51595E-11 2.72303E-12
6.87293E-11 2.72294E-12
7.23943E-11 2.72284E-12
7.61544E-11 2.72275E-12
1.18991E-10 2.72163E-12
1.71347E-10 2.72026E-12
2.33223E-10 2.71865E-12
3.04617E-10 2.71679E-12
3.85531E-10 2.71469E-12
4.75965E-10 2.71235E-12
5.75917E-10 2.70977E-12
6.85389E-10 2.70694E-12
8.04380E-10 2.70388E-12
9.32891E-10 2.70058E-12
1.07092E-09 2.69704E-12
1.21847E-09 2.69326E-12
1.37554E-09 2.68925E-12
1.54213E-09 2.68501E-12
1.71823E-09 2.68054E-12
1.90386E-09 2.67584E-12
2.09900E-09 2.67091E-12
2.30367E-09 2.66576E-12
2.51785E-09 2.66039E-12
2.74156E-09 2.65479E-12
2.97478E-09 2.64898E-12
3.21752E-09 2.64295E-12
3.46978E-09 2.63670E-12
3.73156E-09 2.63025E-12
4.00286E-09 2.62358E-12
4.28368E-09 2.61671E-12
4.57402E-09 2.60964E-12
4.87388E-09 2.60237E-12
5.18326E-09 2.59489E-12
5.50215E-09 2.58720E-12
5.83057E-09 2.57921E-12
6.16850E-09 2.57106E-12
6.51596E-09 2.56276E-12
6.87293E-09 2.55431E-12
7.23942E-09 2.54573E-12
7.61544E-09 2.53700E-12
1.18991E-08 2.44038E-12
1.71347E-08 2.32959E-12
2.33223E-08 2.20812E-12
3.04617E-08 2.07995E-12
3.85531E-08 1.94843E-12
4.75965E-08 1.81647E-12
5.75917E-08 1.68644E-12
6.85389E-08 1.55938E-12
8.04380E-08 1.43789E-12
9.32891E-08 1.32300E-12
1.07092E-07 1.21535E-12
1.21847E-07 1.11523E-12
1.37554E-07 1.02238E-12
1.54213E-07 9.36869E-13
1.71823E-07 8.58667E-13
1.90386E-07 7.87370E-13
2.09900E-07 7.22522E-13
2.30367E-07 6.63609E-13
2.51785E-07 6.10002E-13
2.74156E-07 5.61454E-13
2.97478E-07 5.17493E-13
3.21752E-07 4.77675E-13
3.46978E-07 4.41591E-13
3.73156E-07 4.08800E-13
4.00286E-07 3.79010E-13
4.28368E-07 3.51942E-13
4.57402E-07 3.27314E-13
4.87388E-07 3.04870E-13
5.18325E-07 2.84375E-13
5.50215E-07 2.65384E-13
5.83057E-07 2.47201E-13
6.16850E-07 2.30853E-13
6.51596E-07 2.16117E-13
6.87293E-07 2.02802E-13
7.23942E-07 1.90740E-13
7.61543E-07 1.79789E-13
1.18991E-06 1.03492E-13
1.71347E-06 6.35917E-14
2.33223E-06 4.10961E-14
3.04617E-06 2.77884E-14
3.85531E-06 1.95208E-14
4.75964E-06 1.41554E-14
5.75916E-06 1.05330E-14
6.85388E-06 7.99092E-15
8.04378E-06 6.16973E-15
9.32888E-06 4.83458E-15
1.07092E-05 3.83753E-15
1.21846E-05 3.08163E-15
1.37553E-05 2.50158E-15
1.54212E-05 2.04793E-15
1.71822E-05 1.69327E-15
1.90385E-05 1.41217E-15
2.09899E-05 1.18954E-15
2.30365E-05 1.00937E-15
2.51783E-05 8.61828E-16
2.74153E-05 7.40232E-16
2.97475E-05 6.39387E-16
3.21749E-05 5.55293E-16
3.46974E-05 4.84780E-16
3.73152E-05 4.25256E-16
4.00281E-05 3.74703E-16
4.28362E-05 3.31505E-16
4.57395E-05 2.94370E-16
4.87380E-05 2.62282E-16
5.18317E-05 2.34431E-16
5.50205E-05 2.10127E-16
5.83045E-05 1.88806E-16
6.16838E-05 1.70241E-16
6.51582E-05 1.54013E-16
6.87277E-05 1.39549E-16
7.23925E-05 1.26768E-16
7.61524E-05 1.15481E-16
9.21439E-05 8.11078E-17
1.09658E-04 5.86094E-17
1.28695E-04 4.34102E-17
1.49255E-04 3.28319E-17
1.71338E-04 2.52838E-17
1.94942E-04 1.97801E-17
2.20070E-04 1.56894E-17
2.46720E-04 1.25998E-17
2.74892E-04 1.02337E-17
3.04586E-04 8.39699E-18
3.35803E-04 6.95439E-18
3.68542E-04 5.80849E-18
4.02802E-04 4.88892E-18
4.38585E-04 4.14444E-18
4.75889E-04 3.53650E-18
5.14715E-04 3.03613E-18
5.55063E-04 2.62121E-18
5.96931E-04 2.27472E-18
6.40321E-04 1.98358E-18
6.85233E-04 1.73752E-18
7.31665E-04 1.52842E-18
7.79618E-04 1.34978E-18
8.29092E-04 1.19645E-18
8.80086E-04 1.06419E-18
9.32601E-04 9.49672E-19
9.86636E-04 8.50106E-19
1.04219E-03 7.63210E-19
1.09927E-03 6.87103E-19
1.15786E-03 6.20204E-19
1.21797E-03 5.61221E-19
1.27961E-03 5.09060E-19
1.34276E-03 4.62797E-19
1.40743E-03 4.21653E-19
1.47362E-03 3.84961E-19
1.54133E-03 3.52155E-19
1.61056E-03 3.22758E-19
1.68131E-03 2.96352E-19
1.75357E-03 2.72583E-19
1.82735E-03 2.51140E-19
1.90265E-03 2.31754E-19
1.97947E-03 2.14196E-19
2.05780E-03 1.98263E-19
2.13765E-03 1.83779E-19
2.21902E-03 1.70589E-19
2.30190E-03 1.58556E-19
2.38630E-03 1.47561E-19
2.47222E-03 1.37500E-19
2.55965E-03 1.28278E-19
2.64859E-03 1.19814E-19
2.73905E-03 1.12033E-19
2.83103E-03 1.04872E-19
2.92452E-03 9.82711E-20
3.01952E-03 9.21797E-20
3.11604E-03 8.65513E-20
3.21407E-03 8.13443E-20
3.31362E-03 7.65214E-20
3.41468E-03 7.20492E-20
3.51725E-03 6.78977E-20
3.62133E-03 6.40398E-20
3.72692E-03 6.04510E-20
3.83403E-03 5.71090E-20
3.94265E-03 5.39938E-20
4.05278E-03 5.10872E-20
4.16442E-03 4.83728E-20
4.27757E-03 4.58355E-20
4.39223E-03 4.34617E-20
4.50840E-03 4.12389E-20
4.62608E-03 3.91557E-20
4.74527E-03 3.72018E-20
4.86597E-03 3.53678E-20
4.98817E-03 3.36449E-20
5.11188E-03 3.20251E-20
5.23711E-03 3.05011E-20
5.36383E-03 2.90663E-20
5.49207E-03 2.77144E-20
5.62181E-03 2.64398E-20
5.75306E-03 2.52374E-20
5.88581E-03 2.41021E-20
6.02007E-03 2.30297E-20
6.15583E-03 2.20158E-20
6.29310E-03 2.10570E-20
6.43187E-03 2.01494E-20
6.57214E-03 1.92900E-20
6.71392E-03 1.84755E-20
6.85720E-03 1.77036E-20
7.00198E-03 1.69711E-20
7.14827E-03 1.62760E-20
7.29605E-03 1.56158E-20
7.44534E-03 1.49887E-20
7.59612E-03 1.43924E-20
7.97965E-03 1.30259E-20
8.37255E-03 1.18168E-20
8.77480E-03 1.07440E-20
9.18641E-03 9.78952E-21
9.60736E-03 8.93800E-21
1.00376E-02 8.17650E-21
1.04773E-02 7.49387E-21
1.09262E-02 6.88054E-21
1.13844E-02 6.32826E-21
1.18520E-02 5.82989E-21
1.23288E-02 5.37927E-21
1.28150E-02 4.97104E-21
1.33104E-02 4.60053E-21
1.38150E-02 4.26363E-21
1.43290E-02 3.95677E-21
1.48521E-02 3.67680E-21
1.53845E-02 3.42097E-21
1.59262E-02 3.18681E-21
1.64770E-02 2.97219E-21
1.70371E-02 2.77517E-21
1.76063E-02 2.59407E-21
1.81848E-02 2.42737E-21
1.87724E-02 2.27373E-21
1.93692E-02 2.13194E-21
1.99751E-02 2.00094E-21
2.05901E-02 1.87974E-21
2.12143E-02 1.76750E-21
2.18476E-02 1.66343E-21
2.24900E-02 1.56683E-21
2.31415E-02 1.47707E-21
2.38021E-02 1.39358E-21
2.44717E-02 1.31585E-21
2.51504E-02 1.24341E-21
2.58382E-02 1.17583E-21
2.65349E-02 1.11273E-21
2.72407E-02 1.05377E-21
2.79555E-02 9.98610E-22
2.86793E-02 9.46976E-22
2.94120E-02 8.98599E-22
3.01537E-02 8.53237E-22
3.09043E-02 8.10669E-22
3.16639E-02 7.70692E-22
3.24324E-02 7.33120E-22
3.32098E-02 6.97783E-22
3.39961E-02 6.64523E-22
3.47912E-02 6.33199E-22
3.55952E-02 6.03674E-22
3.64081E-02 5.75831E-22
3.72297E-02 5.49553E-22
3.80602E-02 5.24739E-22
3.88995E-02 5.01292E-22
3.97476E-02 4.79123E-22
4.06044E-02 4.58150E-22
4.14700E-02 4.38297E-22
4.23443E-02 4.19493E-22
4.32273E-02 4.01674E-22
4.41190E-02 3.84778E-22
4.50194E-02 3.68749E-22
4.59284E-02 3.53534E-22
4.68461E-02 3.39085E-22
4.87074E-02 3.12306E-22
5.06030E-02 2.88083E-22
5.25328E-02 2.66131E-22
5.44967E-02 2.46202E-22
5.64946E-02 2.28076E-22
5.85262E-02 2.11565E-22
6.05914E-02 1.96498E-22
6.26901E-02 1.82729E-22
6.48222E-02 1.70127E-22
6.69873E-02 1.58575E-22
6.91854E-02 1.47972E-22
7.14163E-02 1.38227E-22
7.36799E-02 1.29257E-22
7.59760E-02 1.20991E-22
7.83043E-02 1.13364E-22
8.06647E-02 1.06318E-22
8.30571E-02 9.98019E-23
8.54812E-02 9.37684E-23
8.79369E-02 8.81756E-23
9.04240E-02 8.29860E-23
9.29422E-02 7.81654E-23
9.54915E-02 7.36833E-23
9.80716E-02 6.95116E-23
1.00682E-01 6.56253E-23
1.03323E-01 6.20013E-23
1.05995E-01 5.86190E-23
1.08696E-01 5.54594E-23
1.11427E-01 5.25056E-23
1.14188E-01 4.97416E-23
1.16978E-01 4.71532E-23
1.19797E-01 4.47273E-23
1.22645E-01 4.24519E-23
1.25522E-01 4.03162E-23
1.28428E-01 3.83100E-23
1.31361E-01 3.64242E-23
1.34323E-01 3.46503E-23
1.37313E-01 3.29805E-23
1.40330E-01 3.14076E-23
1.43375E-01 2.99251E-23
1.46447E-01 2.85268E-23
1.49545E-01 2.72073E-23
1.52671E-01 2.59611E-23
1.55823E-01 2.47836E-23
1.59001E-01 2.36704E-23
1.62205E-01 2.26173E-23
1.65435E-01 2.16205E-23
1.68690E-01 2.06765E-23
1.71970E-01 1.97821E-23
1.75276E-01 1.89340E-23
1.78606E-01 1.81296E-23
1.81961E-01 1.73663E-23
1.85340E-01 1.66415E-23
1.88743E-01 1.59530E-23
1.92169E-01 1.52986E-23
1.95619E-01 1.46764E-23
1.99092E-01 1.40845E-23
2.02589E-01 1.35212E-23
2.06107E-01 1.29848E-23
2.09649E-01 1.24739E-23
2.13212E-01 1.19871E-23
2.16797E-01 1.15229E-23
2.20404E-01 1.10802E-23
2.24032E-01 1.06579E-23
2.27680E-01 1.02547E-23
2.31350E-01 9.86977E-24
2.35040E-01 9.50201E-24
2.38751E-01 9.15059E-24
2.42481E-01 8.81469E-24
2.46231E-01 8.49349E-24
2.50000E-01 8.18617E-24
2.53788E-01 7.89205E-24
2.57595E-01 7.61052E-24
2.61421E-01 7.34094E-24
2.65264E-01 7.08269E-24
2.69126E-01 6.83520E-24
2.73005E-01 6.59797E-24
2.76901E-01 6.37049E-24
2.80814E-01 6.15231E-24
2.84744E-01 5.94298E-24
2.88691E-01 5.74206E-24
2.92653E-01 5.54917E-24
2.96632E-01 5.36393E-24
3.00625E-01 5.18599E-24
3.04634E-01 5.01502E-24
3.08658E-01 4.85069E-24
3.12697E-01 4.69269E-24
3.16749E-01 4.54075E-24
3.20816E-01 4.39460E-24
3.24896E-01 4.25397E-24
3.28990E-01 4.11863E-24
3.33097E-01 3.98834E-24
3.37216E-01 3.86287E-24
3.41348E-01 3.74203E-24
3.45492E-01 3.62561E-24
3.49647E-01 3.51343E-24
3.53814E-01 3.40530E-24
3.57992E-01 3.30105E-24
3.62181E-01 3.20052E-24
3.66381E-01 3.10356E-24
3.70590E-01 3.01002E-24
3.74810E-01 2.91975E-24
3.79039E-01 2.83263E-24
3.83277E-01 2.74852E-24
3.87524E-01 2.66730E-24
3.91780E-01 2.58886E-24
3.96044E-01 2.51310E-24
4.00316E-01 2.43989E-24
4.04596E-01 2.36914E-24
4.08882E-01 2.30075E-24
4.13176E-01 2.23464E-24
4.17476E-01 2.17072E-24
4.21783E-01 2.10889E-24
4.26095E-01 2.04908E-24
4.30413E-01 1.99122E-24
4.34737E-01 1.93522E-24
4.39065E-01 1.88103E-24
4.43398E-01 1.82856E-24
4.47736E-01 1.77777E-24
4.52077E-01 1.72858E-24
4.56422E-01 1.68093E-24
4.60770E-01 1.63478E-24
4.65122E-01 1.59006E-24
4.69476E-01 1.54673E-24
4.73832E-01 1.50473E-24
4.78190E-01 1.46402E-24
4.82550E-01 1.42455E-24
4.86912E-01 1.38628E-24
4.91274E-01 1.34917E-24
4.95637E-01 1.31316E-24
5.00000E-01 1.27824E-24
5.04363E-01 1.24435E-24
5.08726E-01 1.21146E-24
5.13088E-01 1.17955E-24
5.17450E-01 1.14856E-24
5.21810E-01 1.11849E-24
5.26168E-01 1.08928E-24
5.30524E-01 1.06092E-24
5.34878E-01 1.03337E-24
5.39230E-01 1.00662E-24
5.43578E-01 9.80623E-25
5.47923E-01 9.55366E-25
5.52264E-01 9.30821E-25
5.56602E-01 9.06967E-25
5.60935E-01 8.83780E-25
5.65263E-01 8.61240E-25
5.69587E-01 8.39325E-25
5.73905E-01 8.18014E-25
5.78217E-01 7.97290E-25
5.82524E-01 7.77134E-25
5.86824E-01 7.57528E-25
5.91118E-01 7.38453E-25
5.95404E-01 7.19894E-25
5.99684E-01 7.01836E-25
6.03956E-01 6.84261E-25
6.08220E-01 6.67155E-25
6.12476E-01 6.50506E-25
6.16723E-01 6.34297E-25
6.20961E-01 6.18516E-25
6.25190E-01 6.03150E-25
6.29410E-01 5.88187E-25
6.33619E-01 5.73614E-25
6.37819E-01 5.59420E-25
6.42008E-01 5.45594E-25
6.46186E-01 5.32126E-25
6.50353E-01 5.19002E-25
6.54508E-01 5.06217E-25
6.58652E-01 4.93749E-25
6.62784E-01 4.81595E-25
6.66903E-01 4.69750E-25
6.71010E-01 4.58203E-25
6.75104E-01 4.46947E-25
6.79184E-01 4.35972E-25
6.83251E-01 4.25271E-25
6.87303E-01 4.14837E-25
6.91342E-01 4.04661E-25
6.95366E-01 3.94737E-25
6.99375E-01 3.85057E-25
7.03368E-01 3.75614E-25
7.07347E-01 3.66403E-25
7.11309E-01 3.57417E-25
7.15256E-01 3.48649E-25
7.19186E-01 3.40094E-25
7.23099E-01 3.31745E-25
7.26995E-01 3.23598E-25
7.30874E-01 3.15647E-25
7.34736E-01 3.07886E-25
7.38579E-01 3.00310E-25
7.42405E-01 2.92915E-25
7.46212E-01 2.85696E-25
7.50000E-01 2.78648E-25
7.53769E-01 2.71767E-25
7.57519E-01 2.65048E-25
7.61249E-01 2.58487E-25
7.64960E-01 2.52080E-25
7.68650E-01 2.45823E-25
7.72320E-01 2.39712E-25
7.75968E-01 2.33743E-25
7.79596E-01 2.27914E-25
7.83203E-01 2.22219E-25
7.86788E-01 2.16657E-25
7.90351E-01 2.11222E-25
7.93893E-01 2.05914E-25
7.97411E-01 2.00727E-25
8.00908E-01 1.95660E-25
8.04381E-01 1.90709E-25
8.07831E-01 1.85871E-25
8.11257E-01 1.81144E-25
8.14660E-01 1.76525E-25
8.18039E-01 1.72011E-25
8.21394E-01 1.67600E-25
8.24724E-01 1.63289E-25
8.28030E-01 1.59076E-25
8.31310E-01 1.54959E-25
8.34565E-01 1.50935E-25
8.37795E-01 1.47002E-25
8.40999E-01 1.43158E-25
8.44177E-01 1.39402E-25
8.47329E-01 1.35730E-25
8.50455E-01 1.32141E-25
8.53553E-01 1.28633E-25
8.56625E-01 1.25204E-25
8.59670E-01 1.21853E-25
8.62687E-01 1.18578E-25
8.65677E-01 1.15376E-25
8.68639E-01 1.12247E-25
8.71572E-01 1.09189E-25
8.74478E-01 1.06199E-25
8.77355E-01 1.03278E-25
8.80203E-01 1.00422E-25
8.83022E-01 9.76316E-26
8.85812E-01 9.49042E-26
8.88573E-01 9.22389E-26
8.91304E-01 8.96342E-26
8.94005E-01 8.70889E-26
8.96677E-01 8.46018E-26
8.99318E-01 8.21717E-26
9.01928E-01 7.97973E-26
9.04508E-01 7.74775E-26
9.07058E-01 7.52112E-26
9.09576E-01 7.29973E-26
9.12063E-01 7.08348E-26
9.14519E-01 6.87227E-26
9.16943E-01 6.66599E-26
9.19335E-01 6.46455E-26
9.21696E-01 6.26785E-26
9.24024E-01 6.07581E-26
9.26320E-01 5.88832E-26
9.28584E-01 5.70532E-26
9.30815E-01 5.52671E-26
9.33013E-01 5.35241E-26
9.35178E-01 5.18234E-26
9.37310E-01 5.01642E-26
9.39409E-01 4.85459E-26
9.41474E-01 4.69676E-26
9.43505E-01 4.54287E-26
9.45503E-01 4.39284E-26
9.47467E-01 4.24662E-26
9.49397E-01 4.10413E-26
9.51293E-01 3.96531E-26
9.53154E-01 3.83010E-26
9.54981E-01 3.69845E-26
9.56773E-01 3.57029E-26
9.58530E-01 3.44556E-26
9.60252E-01 3.32422E-26
9.61940E-01 3.20622E-26
9.63592E-01 3.09149E-26
9.65209E-01 2.97999E-26
9.66790E-01 2.87168E-26
9.68336E-01 2.76651E-26
9.69846E-01 2.66442E-26
9.71321E-01 2.56539E-26
9.72759E-01 2.46936E-26
9.74162E-01 2.37629E-26
9.75528E-01 2.28616E-26
9.76858E-01 2.19891E-26
9.78152E-01 2.11451E-26
9.79410E-01 2.03293E-26
9.80631E-01 1.95413E-26
9.81815E-01 1.87809E-26
9.82963E-01 1.80475E-26
9.84074E-01 1.73411E-26
9.85148E-01 1.66613E-26
9.86185E-01 1.60077E-26
9.87185E-01 1.53802E-26
9.88148E-01 1.47785E-26
9.89074E-01 1.42022E-26
9.89962E-01 1.36513E-26
9.90814E-01 1.31254E-26
9.91627E-01 1.26244E-26
9.92404E-01 1.21480E-26
9.93143E-01 1.16961E-26
9.93844E-01 1.12684E-26
9.94508E-01 1.08648E-26
9.95134E-01 1.04852E-26
9.95722E-01 1.01293E-26
9.96273E-01 9.79702E-27
9.96786E-01 9.48826E-27
9.97261E-01 9.20286E-27
9.97698E-01 8.94072E-27
9.98097E-01 8.70173E-27
9.98459E-01 8.48578E-27
9.98782E-01 8.29280E-27
9.99067E-01 8.12271E-27
9.99315E-01 7.97543E-27
9.99524E-01 7.85091E-27
9.99695E-01 7.74910E-27
9.99829E-01 7.66995E-27
9.99924E-01 7.61344E-27
9.99981E-01 7.57955E-27
1.00000E+00 7.56825E-27
