 #
 # Subroutine ELSEPA. Elastic scattering of electrons and positrons
 #                    by neutral atoms and positive ions
 #
 # Projectile: positron
 # Kinetic energy = 1.75000E+07 eV = 6.43113E+05 a.u.
 #
 # WARNING: High-energy factorization with free-atom DF screening.
 #          Absorption, polarization and exchange corrections are
 #          switched off.
 #          Phase shifts are calculated for the bare nucleus.
 #          Scattering amplitudes are not evaluated.
 #
 # Element: Rn,  Z =  86,  atomic weight = 2.22018E+02 g/mol
 #
 # Nuclear model: Fermi distribution
 #                Average radius = 6.47907E-13 cm
 #                Skin thickness = 5.46000E-14 cm
 #
 # Number of electrons = 86
 #
 # Total elastic cross section = 9.58816E-18 cm**2 = 3.42400E-01 a0**2
 # 1st transport cross section = 3.35250E-23 cm**2 = 1.19720E-06 a0**2
 # 2nd transport cross section = 9.73428E-23 cm**2 = 3.47617E-06 a0**2
 #
 #
 # Differential cross section:                       MU=(1-COS(THETA))/2
 #
 #  THETA        MU          DCS          DCS        Sherman      error
 #  (deg)                 (cm**2/sr)   (a0**2/sr)    function
 #----------------------------------------------------------------------
0.00000E+00 2.08502E-11
7.61557E-13 2.08489E-11
1.18994E-12 2.08483E-11
1.71346E-12 2.08474E-11
2.33225E-12 2.08465E-11
3.04617E-12 2.08454E-11
3.85530E-12 2.08441E-11
4.75964E-12 2.08427E-11
5.75917E-12 2.08412E-11
6.85391E-12 2.08395E-11
8.04379E-12 2.08377E-11
9.32893E-12 2.08357E-11
1.07092E-11 2.08336E-11
1.21847E-11 2.08313E-11
1.37554E-11 2.08289E-11
1.54213E-11 2.08263E-11
1.71823E-11 2.08236E-11
1.90386E-11 2.08208E-11
2.09900E-11 2.08178E-11
2.30367E-11 2.08147E-11
2.51785E-11 2.08114E-11
2.74156E-11 2.08080E-11
2.97478E-11 2.08044E-11
3.21752E-11 2.08007E-11
3.46979E-11 2.07968E-11
3.73157E-11 2.07928E-11
4.00286E-11 2.07887E-11
4.28368E-11 2.07844E-11
4.57402E-11 2.07800E-11
4.87388E-11 2.07754E-11
5.18325E-11 2.07707E-11
5.50215E-11 2.07658E-11
5.83057E-11 2.07608E-11
6.16850E-11 2.07557E-11
6.51595E-11 2.07504E-11
6.87293E-11 2.07450E-11
7.23943E-11 2.07394E-11
7.61544E-11 2.07337E-11
1.18991E-10 2.06688E-11
1.71347E-10 2.05900E-11
2.33223E-10 2.04975E-11
3.04617E-10 2.03915E-11
3.85531E-10 2.02725E-11
4.75965E-10 2.01407E-11
5.75917E-10 1.99966E-11
6.85389E-10 1.98406E-11
8.04380E-10 1.96712E-11
9.32891E-10 1.94922E-11
1.07092E-09 1.93051E-11
1.21847E-09 1.91046E-11
1.37554E-09 1.88955E-11
1.54213E-09 1.86809E-11
1.71823E-09 1.84538E-11
1.90386E-09 1.82197E-11
2.09900E-09 1.79824E-11
2.30367E-09 1.77343E-11
2.51785E-09 1.74804E-11
2.74156E-09 1.72256E-11
2.97478E-09 1.69619E-11
3.21752E-09 1.66933E-11
3.46978E-09 1.64261E-11
3.73156E-09 1.61520E-11
4.00286E-09 1.58739E-11
4.28368E-09 1.55990E-11
4.57402E-09 1.53193E-11
4.87388E-09 1.50363E-11
5.18326E-09 1.47581E-11
5.50215E-09 1.44773E-11
5.83057E-09 1.41936E-11
6.16850E-09 1.39160E-11
6.51596E-09 1.36378E-11
6.87293E-09 1.33571E-11
7.23942E-09 1.30834E-11
7.61544E-09 1.28109E-11
1.18991E-08 1.02381E-11
1.71347E-08 8.07094E-12
2.33223E-08 6.34068E-12
3.04617E-08 4.99778E-12
3.85531E-08 3.97286E-12
4.75965E-08 3.19277E-12
5.75917E-08 2.59583E-12
6.85389E-08 2.13460E-12
8.04380E-08 1.76040E-12
9.32891E-08 1.47515E-12
1.07092E-07 1.25726E-12
1.21847E-07 1.06873E-12
1.37554E-07 9.16088E-13
1.54213E-07 7.95244E-13
1.71823E-07 6.89073E-13
1.90386E-07 6.00200E-13
2.09900E-07 5.27882E-13
2.30367E-07 4.64026E-13
2.51785E-07 4.09315E-13
2.74156E-07 3.63813E-13
2.97478E-07 3.23585E-13
3.21752E-07 2.88552E-13
3.46978E-07 2.58887E-13
3.73156E-07 2.32600E-13
4.00286E-07 2.09418E-13
4.28368E-07 1.89489E-13
4.57402E-07 1.71750E-13
4.87388E-07 1.55932E-13
5.18325E-07 1.42158E-13
5.50215E-07 1.29826E-13
5.83057E-07 1.18713E-13
6.16850E-07 1.08931E-13
6.51596E-07 1.00119E-13
6.87293E-07 9.20992E-14
7.23942E-07 8.49747E-14
7.61543E-07 7.85203E-14
1.18991E-06 3.82348E-14
1.71347E-06 2.06376E-14
2.33223E-06 1.20348E-14
3.04617E-06 7.50599E-15
3.85531E-06 4.93182E-15
4.75964E-06 3.37866E-15
5.75916E-06 2.39496E-15
6.85388E-06 1.74491E-15
8.04378E-06 1.30056E-15
9.32888E-06 9.90164E-16
1.07092E-05 7.67417E-16
1.21846E-05 6.04125E-16
1.37553E-05 4.82080E-16
1.54212E-05 3.89279E-16
1.71822E-05 3.17817E-16
1.90385E-05 2.61858E-16
2.09899E-05 2.17993E-16
2.30365E-05 1.82889E-16
2.51783E-05 1.54470E-16
2.74153E-05 1.31308E-16
2.97475E-05 1.12305E-16
3.21749E-05 9.66138E-17
3.46974E-05 8.35766E-17
3.73152E-05 7.26738E-17
4.00281E-05 6.34931E-17
4.28362E-05 5.57230E-17
4.57395E-05 4.91069E-17
4.87380E-05 4.34429E-17
5.18317E-05 3.85712E-17
5.50205E-05 3.43609E-17
5.83045E-05 3.07093E-17
6.16838E-05 2.75315E-17
6.51582E-05 2.47559E-17
6.87277E-05 2.23227E-17
7.23925E-05 2.01823E-17
7.61524E-05 1.82917E-17
9.21439E-05 1.26235E-17
1.09658E-04 8.98892E-18
1.28695E-04 6.57226E-18
1.49255E-04 4.91451E-18
1.71338E-04 3.74701E-18
1.94942E-04 2.90586E-18
2.20070E-04 2.28760E-18
2.46720E-04 1.82506E-18
2.74892E-04 1.47354E-18
3.04586E-04 1.20258E-18
3.35803E-04 9.91054E-19
3.68542E-04 8.23984E-19
4.02802E-04 6.90640E-19
4.38585E-04 5.83180E-19
4.75889E-04 4.95801E-19
5.14715E-04 4.24175E-19
5.55063E-04 3.65009E-19
5.96931E-04 3.15798E-19
6.40321E-04 2.74596E-19
6.85233E-04 2.39890E-19
7.31665E-04 2.10489E-19
7.79618E-04 1.85452E-19
8.29092E-04 1.64022E-19
8.80086E-04 1.45595E-19
9.32601E-04 1.29680E-19
9.86636E-04 1.15877E-19
1.04219E-03 1.03858E-19
1.09927E-03 9.33557E-20
1.15786E-03 8.41441E-20
1.21797E-03 7.60389E-20
1.27961E-03 6.88843E-20
1.34276E-03 6.25493E-20
1.40743E-03 5.69243E-20
1.47362E-03 5.19160E-20
1.54133E-03 4.74450E-20
1.61056E-03 4.34437E-20
1.68131E-03 3.98543E-20
1.75357E-03 3.66269E-20
1.82735E-03 3.37186E-20
1.90265E-03 3.10925E-20
1.97947E-03 2.87162E-20
2.05780E-03 2.65619E-20
2.13765E-03 2.46053E-20
2.21902E-03 2.28248E-20
2.30190E-03 2.12020E-20
2.38630E-03 1.97203E-20
2.47222E-03 1.83654E-20
2.55965E-03 1.71243E-20
2.64859E-03 1.59860E-20
2.73905E-03 1.49404E-20
2.83103E-03 1.39784E-20
2.92452E-03 1.30924E-20
3.01952E-03 1.22752E-20
3.11604E-03 1.15205E-20
3.21407E-03 1.08226E-20
3.31362E-03 1.01766E-20
3.41468E-03 9.57787E-21
3.51725E-03 9.02232E-21
3.62133E-03 8.50629E-21
3.72692E-03 8.02646E-21
3.83403E-03 7.57983E-21
3.94265E-03 7.16369E-21
4.05278E-03 6.77558E-21
4.16442E-03 6.41328E-21
4.27757E-03 6.07475E-21
4.39223E-03 5.75815E-21
4.50840E-03 5.46182E-21
4.62608E-03 5.18419E-21
4.74527E-03 4.92390E-21
4.86597E-03 4.67966E-21
4.98817E-03 4.45029E-21
5.11188E-03 4.23473E-21
5.23711E-03 4.03199E-21
5.36383E-03 3.84117E-21
5.49207E-03 3.66145E-21
5.62181E-03 3.49206E-21
5.75306E-03 3.33229E-21
5.88581E-03 3.18151E-21
6.02007E-03 3.03911E-21
6.15583E-03 2.90454E-21
6.29310E-03 2.77729E-21
6.43187E-03 2.65690E-21
6.57214E-03 2.54291E-21
6.71392E-03 2.43494E-21
6.85720E-03 2.33261E-21
7.00198E-03 2.23555E-21
7.14827E-03 2.14347E-21
7.29605E-03 2.05604E-21
7.44534E-03 1.97300E-21
7.59612E-03 1.89408E-21
7.97965E-03 1.71328E-21
8.37255E-03 1.55341E-21
8.77480E-03 1.41164E-21
9.18641E-03 1.28558E-21
9.60736E-03 1.17319E-21
1.00376E-02 1.07273E-21
1.04773E-02 9.82726E-22
1.09262E-02 9.01900E-22
1.13844E-02 8.29155E-22
1.18520E-02 7.63544E-22
1.23288E-02 7.04248E-22
1.28150E-02 6.50555E-22
1.33104E-02 6.01842E-22
1.38150E-02 5.57567E-22
1.43290E-02 5.17258E-22
1.48521E-02 4.80496E-22
1.53845E-02 4.46916E-22
1.59262E-02 4.16192E-22
1.64770E-02 3.88042E-22
1.70371E-02 3.62211E-22
1.76063E-02 3.38474E-22
1.81848E-02 3.16632E-22
1.87724E-02 2.96508E-22
1.93692E-02 2.77942E-22
1.99751E-02 2.60793E-22
2.05901E-02 2.44933E-22
2.12143E-02 2.30249E-22
2.18476E-02 2.16638E-22
2.24900E-02 2.04008E-22
2.31415E-02 1.92275E-22
2.38021E-02 1.81365E-22
2.44717E-02 1.71210E-22
2.51504E-02 1.61747E-22
2.58382E-02 1.52922E-22
2.65349E-02 1.44685E-22
2.72407E-02 1.36988E-22
2.79555E-02 1.29791E-22
2.86793E-02 1.23054E-22
2.94120E-02 1.16744E-22
3.01537E-02 1.10829E-22
3.09043E-02 1.05278E-22
3.16639E-02 1.00067E-22
3.24324E-02 9.51704E-23
3.32098E-02 9.05653E-23
3.39961E-02 8.62325E-23
3.47912E-02 8.21523E-23
3.55952E-02 7.83072E-23
3.64081E-02 7.46816E-23
3.72297E-02 7.12608E-23
3.80602E-02 6.80308E-23
3.88995E-02 6.49792E-23
3.97476E-02 6.20946E-23
4.06044E-02 5.93660E-23
4.14700E-02 5.67835E-23
4.23443E-02 5.43380E-23
4.32273E-02 5.20208E-23
4.41190E-02 4.98240E-23
4.50194E-02 4.77402E-23
4.59284E-02 4.57627E-23
4.68461E-02 4.38849E-23
4.87074E-02 4.04054E-23
5.06030E-02 3.72590E-23
5.25328E-02 3.44084E-23
5.44967E-02 3.18211E-23
5.64946E-02 2.94687E-23
5.85262E-02 2.73263E-23
6.05914E-02 2.53719E-23
6.26901E-02 2.35863E-23
6.48222E-02 2.19524E-23
6.69873E-02 2.04551E-23
6.91854E-02 1.90811E-23
7.14163E-02 1.78186E-23
7.36799E-02 1.66569E-23
7.59760E-02 1.55866E-23
7.83043E-02 1.45994E-23
8.06647E-02 1.36877E-23
8.30571E-02 1.28449E-23
8.54812E-02 1.20649E-23
8.79369E-02 1.13412E-23
9.04240E-02 1.06699E-23
9.29422E-02 1.00465E-23
9.54915E-02 9.46692E-24
9.80716E-02 8.92767E-24
1.00682E-01 8.42542E-24
1.03323E-01 7.95720E-24
1.05995E-01 7.52031E-24
1.08696E-01 7.11230E-24
1.11427E-01 6.73093E-24
1.14188E-01 6.37417E-24
1.16978E-01 6.04015E-24
1.19797E-01 5.72719E-24
1.22645E-01 5.43372E-24
1.25522E-01 5.15833E-24
1.28428E-01 4.89971E-24
1.31361E-01 4.65667E-24
1.34323E-01 4.42811E-24
1.37313E-01 4.21301E-24
1.40330E-01 4.01046E-24
1.43375E-01 3.81959E-24
1.46447E-01 3.63962E-24
1.49545E-01 3.46981E-24
1.52671E-01 3.30950E-24
1.55823E-01 3.15807E-24
1.59001E-01 3.01493E-24
1.62205E-01 2.87956E-24
1.65435E-01 2.75147E-24
1.68690E-01 2.63020E-24
1.71970E-01 2.51531E-24
1.75276E-01 2.40643E-24
1.78606E-01 2.30318E-24
1.81961E-01 2.20522E-24
1.85340E-01 2.11224E-24
1.88743E-01 2.02393E-24
1.92169E-01 1.94003E-24
1.95619E-01 1.86027E-24
1.99092E-01 1.78443E-24
2.02589E-01 1.71227E-24
2.06107E-01 1.64358E-24
2.09649E-01 1.57817E-24
2.13212E-01 1.51586E-24
2.16797E-01 1.45647E-24
2.20404E-01 1.39985E-24
2.24032E-01 1.34584E-24
2.27680E-01 1.29431E-24
2.31350E-01 1.24511E-24
2.35040E-01 1.19814E-24
2.38751E-01 1.15326E-24
2.42481E-01 1.11038E-24
2.46231E-01 1.06938E-24
2.50000E-01 1.03017E-24
2.53788E-01 9.92665E-25
2.57595E-01 9.56772E-25
2.61421E-01 9.22410E-25
2.65264E-01 8.89505E-25
2.69126E-01 8.57984E-25
2.73005E-01 8.27780E-25
2.76901E-01 7.98827E-25
2.80814E-01 7.71067E-25
2.84744E-01 7.44441E-25
2.88691E-01 7.18895E-25
2.92653E-01 6.94379E-25
2.96632E-01 6.70844E-25
3.00625E-01 6.48244E-25
3.04634E-01 6.26536E-25
3.08658E-01 6.05680E-25
3.12697E-01 5.85635E-25
3.16749E-01 5.66366E-25
3.20816E-01 5.47838E-25
3.24896E-01 5.30016E-25
3.28990E-01 5.12871E-25
3.33097E-01 4.96372E-25
3.37216E-01 4.80491E-25
3.41348E-01 4.65200E-25
3.45492E-01 4.50475E-25
3.49647E-01 4.36291E-25
3.53814E-01 4.22624E-25
3.57992E-01 4.09454E-25
3.62181E-01 3.96759E-25
3.66381E-01 3.84519E-25
3.70590E-01 3.72715E-25
3.74810E-01 3.61329E-25
3.79039E-01 3.50344E-25
3.83277E-01 3.39744E-25
3.87524E-01 3.29513E-25
3.91780E-01 3.19635E-25
3.96044E-01 3.10098E-25
4.00316E-01 3.00887E-25
4.04596E-01 2.91989E-25
4.08882E-01 2.83392E-25
4.13176E-01 2.75084E-25
4.17476E-01 2.67054E-25
4.21783E-01 2.59292E-25
4.26095E-01 2.51786E-25
4.30413E-01 2.44527E-25
4.34737E-01 2.37506E-25
4.39065E-01 2.30713E-25
4.43398E-01 2.24140E-25
4.47736E-01 2.17779E-25
4.52077E-01 2.11622E-25
4.56422E-01 2.05661E-25
4.60770E-01 1.99890E-25
4.65122E-01 1.94300E-25
4.69476E-01 1.88886E-25
4.73832E-01 1.83641E-25
4.78190E-01 1.78559E-25
4.82550E-01 1.73634E-25
4.86912E-01 1.68861E-25
4.91274E-01 1.64234E-25
4.95637E-01 1.59748E-25
5.00000E-01 1.55399E-25
5.04363E-01 1.51180E-25
5.08726E-01 1.47088E-25
5.13088E-01 1.43119E-25
5.17450E-01 1.39268E-25
5.21810E-01 1.35531E-25
5.26168E-01 1.31904E-25
5.30524E-01 1.28383E-25
5.34878E-01 1.24966E-25
5.39230E-01 1.21648E-25
5.43578E-01 1.18426E-25
5.47923E-01 1.15297E-25
5.52264E-01 1.12257E-25
5.56602E-01 1.09305E-25
5.60935E-01 1.06437E-25
5.65263E-01 1.03650E-25
5.69587E-01 1.00941E-25
5.73905E-01 9.83091E-26
5.78217E-01 9.57505E-26
5.82524E-01 9.32632E-26
5.86824E-01 9.08449E-26
5.91118E-01 8.84935E-26
5.95404E-01 8.62067E-26
5.99684E-01 8.39827E-26
6.03956E-01 8.18194E-26
6.08220E-01 7.97150E-26
6.12476E-01 7.76675E-26
6.16723E-01 7.56753E-26
6.20961E-01 7.37367E-26
6.25190E-01 7.18500E-26
6.29410E-01 7.00136E-26
6.33619E-01 6.82260E-26
6.37819E-01 6.64858E-26
6.42008E-01 6.47914E-26
6.46186E-01 6.31417E-26
6.50353E-01 6.15351E-26
6.54508E-01 5.99704E-26
6.58652E-01 5.84465E-26
6.62784E-01 5.69620E-26
6.66903E-01 5.55159E-26
6.71010E-01 5.41069E-26
6.75104E-01 5.27342E-26
6.79184E-01 5.13965E-26
6.83251E-01 5.00929E-26
6.87303E-01 4.88224E-26
6.91342E-01 4.75840E-26
6.95366E-01 4.63769E-26
6.99375E-01 4.52002E-26
7.03368E-01 4.40529E-26
7.07347E-01 4.29344E-26
7.11309E-01 4.18437E-26
7.15256E-01 4.07801E-26
7.19186E-01 3.97428E-26
7.23099E-01 3.87312E-26
7.26995E-01 3.77445E-26
7.30874E-01 3.67820E-26
7.34736E-01 3.58431E-26
7.38579E-01 3.49271E-26
7.42405E-01 3.40334E-26
7.46212E-01 3.31614E-26
7.50000E-01 3.23106E-26
7.53769E-01 3.14803E-26
7.57519E-01 3.06701E-26
7.61249E-01 2.98793E-26
7.64960E-01 2.91075E-26
7.68650E-01 2.83541E-26
7.72320E-01 2.76188E-26
7.75968E-01 2.69010E-26
7.79596E-01 2.62002E-26
7.83203E-01 2.55161E-26
7.86788E-01 2.48482E-26
7.90351E-01 2.41960E-26
7.93893E-01 2.35593E-26
7.97411E-01 2.29375E-26
8.00908E-01 2.23303E-26
8.04381E-01 2.17374E-26
8.07831E-01 2.11584E-26
8.11257E-01 2.05929E-26
8.14660E-01 2.00406E-26
8.18039E-01 1.95012E-26
8.21394E-01 1.89743E-26
8.24724E-01 1.84597E-26
8.28030E-01 1.79571E-26
8.31310E-01 1.74661E-26
8.34565E-01 1.69865E-26
8.37795E-01 1.65180E-26
8.40999E-01 1.60603E-26
8.44177E-01 1.56133E-26
8.47329E-01 1.51765E-26
8.50455E-01 1.47499E-26
8.53553E-01 1.43331E-26
8.56625E-01 1.39259E-26
8.59670E-01 1.35281E-26
8.62687E-01 1.31395E-26
8.65677E-01 1.27599E-26
8.68639E-01 1.23890E-26
8.71572E-01 1.20267E-26
8.74478E-01 1.16727E-26
8.77355E-01 1.13270E-26
8.80203E-01 1.09892E-26
8.83022E-01 1.06593E-26
8.85812E-01 1.03370E-26
8.88573E-01 1.00222E-26
8.91304E-01 9.71467E-27
8.94005E-01 9.41432E-27
8.96677E-01 9.12097E-27
8.99318E-01 8.83448E-27
9.01928E-01 8.55469E-27
9.04508E-01 8.28146E-27
9.07058E-01 8.01465E-27
9.09576E-01 7.75414E-27
9.12063E-01 7.49979E-27
9.14519E-01 7.25146E-27
9.16943E-01 7.00905E-27
9.19335E-01 6.77243E-27
9.21696E-01 6.54148E-27
9.24024E-01 6.31609E-27
9.26320E-01 6.09615E-27
9.28584E-01 5.88156E-27
9.30815E-01 5.67220E-27
9.33013E-01 5.46798E-27
9.35178E-01 5.26880E-27
9.37310E-01 5.07456E-27
9.39409E-01 4.88518E-27
9.41474E-01 4.70056E-27
9.43505E-01 4.52061E-27
9.45503E-01 4.34525E-27
9.47467E-01 4.17440E-27
9.49397E-01 4.00797E-27
9.51293E-01 3.84590E-27
9.53154E-01 3.68809E-27
9.54981E-01 3.53449E-27
9.56773E-01 3.38502E-27
9.58530E-01 3.23960E-27
9.60252E-01 3.09819E-27
9.61940E-01 2.96070E-27
9.63592E-01 2.82707E-27
9.65209E-01 2.69725E-27
9.66790E-01 2.57118E-27
9.68336E-01 2.44880E-27
9.69846E-01 2.33005E-27
9.71321E-01 2.21488E-27
9.72759E-01 2.10324E-27
9.74162E-01 1.99508E-27
9.75528E-01 1.89035E-27
9.76858E-01 1.78900E-27
9.78152E-01 1.69099E-27
9.79410E-01 1.59628E-27
9.80631E-01 1.50482E-27
9.81815E-01 1.41657E-27
9.82963E-01 1.33150E-27
9.84074E-01 1.24957E-27
9.85148E-01 1.17073E-27
9.86185E-01 1.09496E-27
9.87185E-01 1.02223E-27
9.88148E-01 9.52494E-28
9.89074E-01 8.85731E-28
9.89962E-01 8.21910E-28
9.90814E-01 7.61003E-28
9.91627E-01 7.02984E-28
9.92404E-01 6.47828E-28
9.93143E-01 5.95510E-28
9.93844E-01 5.46009E-28
9.94508E-01 4.99303E-28
9.95134E-01 4.55372E-28
9.95722E-01 4.14196E-28
9.96273E-01 3.75759E-28
9.96786E-01 3.40044E-28
9.97261E-01 3.07035E-28
9.97698E-01 2.76719E-28
9.98097E-01 2.49082E-28
9.98459E-01 2.24112E-28
9.98782E-01 2.01800E-28
9.99067E-01 1.82135E-28
9.99315E-01 1.65108E-28
9.99524E-01 1.50714E-28
9.99695E-01 1.38945E-28
9.99829E-01 1.29796E-28
9.99924E-01 1.23264E-28
9.99981E-01 1.19346E-28
1.00000E+00 1.18040E-28
