 #
 # Subroutine ELSEPA. Elastic scattering of electrons and positrons
 #                    by neutral atoms and positive ions
 #
 # Projectile: positron
 # Kinetic energy = 2.00000E+08 eV = 7.34987E+06 a.u.
 #
 # WARNING: High-energy factorization with free-atom DF screening.
 #          Absorption, polarization and exchange corrections are
 #          switched off.
 #          Phase shifts are calculated for the bare nucleus.
 #          Scattering amplitudes are not evaluated.
 #
 # Element: Rn,  Z =  86,  atomic weight = 2.22018E+02 g/mol
 #
 # Nuclear model: Fermi distribution
 #                Average radius = 6.47907E-13 cm
 #                Skin thickness = 5.46000E-14 cm
 #
 # Number of electrons = 86
 #
 # Total elastic cross section = 9.58360E-18 cm**2 = 3.42237E-01 a0**2
 # 1st transport cross section = 3.37680E-25 cm**2 = 1.20588E-08 a0**2
 # 2nd transport cross section = 1.01050E-24 cm**2 = 3.60856E-08 a0**2
 #
 #
 # Differential cross section:                       MU=(1-COS(THETA))/2
 #
 #  THETA        MU          DCS          DCS        Sherman      error
 #  (deg)                 (cm**2/sr)   (a0**2/sr)    function
 #----------------------------------------------------------------------
0.00000E+00 2.58410E-09
7.61557E-13 2.56625E-09
1.18994E-12 2.55631E-09
1.71346E-12 2.54425E-09
2.33225E-12 2.53011E-09
3.04617E-12 2.51395E-09
3.85530E-12 2.49582E-09
4.75964E-12 2.47580E-09
5.75917E-12 2.45394E-09
6.85391E-12 2.43007E-09
8.04379E-12 2.40489E-09
9.32893E-12 2.37817E-09
1.07092E-11 2.34962E-09
1.21847E-11 2.32017E-09
1.37554E-11 2.28911E-09
1.54213E-11 2.25680E-09
1.71823E-11 2.22402E-09
1.90386E-11 2.18940E-09
2.09900E-11 2.15431E-09
2.30367E-11 2.11892E-09
2.51785E-11 2.08180E-09
2.74156E-11 2.04484E-09
2.97478E-11 2.00737E-09
3.21752E-11 1.96894E-09
3.46979E-11 1.93101E-09
3.73157E-11 1.89223E-09
4.00286E-11 1.85333E-09
4.28368E-11 1.81517E-09
4.57402E-11 1.77582E-09
4.87388E-11 1.73715E-09
5.18325E-11 1.69907E-09
5.50215E-11 1.66015E-09
5.83057E-11 1.62229E-09
6.16850E-11 1.58463E-09
6.51595E-11 1.54688E-09
6.87293E-11 1.51031E-09
7.23943E-11 1.47353E-09
7.61544E-11 1.43736E-09
1.18991E-10 1.10963E-09
1.71347E-10 8.48488E-10
2.33223E-10 6.49877E-10
3.04617E-10 5.02584E-10
3.85531E-10 3.93814E-10
4.75965E-10 3.13028E-10
5.75917E-10 2.52200E-10
6.85389E-10 2.04180E-10
8.04380E-10 1.69073E-10
9.32891E-10 1.41645E-10
1.07092E-09 1.18676E-10
1.21847E-09 1.01051E-10
1.37554E-09 8.62526E-11
1.54213E-09 7.39500E-11
1.71823E-09 6.41662E-11
1.90386E-09 5.55414E-11
2.09900E-09 4.84387E-11
2.30367E-09 4.25806E-11
2.51785E-09 3.73616E-11
2.74156E-09 3.30381E-11
2.97478E-09 2.93348E-11
3.21752E-09 2.60831E-11
3.46978E-09 2.33361E-11
3.73156E-09 2.09152E-11
4.00286E-09 1.88031E-11
4.28368E-09 1.69899E-11
4.57402E-09 1.53536E-11
4.87388E-09 1.39293E-11
5.18326E-09 1.26813E-11
5.50215E-09 1.15479E-11
5.83057E-09 1.05551E-11
6.16850E-09 9.66565E-12
6.51596E-09 8.86077E-12
6.87293E-09 8.14860E-12
7.23942E-09 7.49823E-12
7.61544E-09 6.91188E-12
1.18991E-08 3.30475E-12
1.71347E-08 1.75841E-12
2.33223E-08 1.02077E-12
3.04617E-08 6.34667E-13
3.85531E-08 4.15934E-13
4.75965E-08 2.84293E-13
5.75917E-08 2.00896E-13
6.85389E-08 1.46036E-13
8.04380E-08 1.08709E-13
9.32891E-08 8.26164E-14
1.07092E-07 6.39263E-14
1.21847E-07 5.02459E-14
1.37554E-07 4.00403E-14
1.54213E-07 3.22987E-14
1.71823E-07 2.63386E-14
1.90386E-07 2.16893E-14
2.09900E-07 1.80196E-14
2.30367E-07 1.50925E-14
2.51785E-07 1.27350E-14
2.74156E-07 1.08188E-14
2.97478E-07 9.24958E-15
3.21752E-07 7.95478E-15
3.46978E-07 6.87898E-15
3.73156E-07 5.97920E-15
4.00286E-07 5.22204E-15
4.28368E-07 4.58123E-15
4.57402E-07 4.03592E-15
4.87388E-07 3.56954E-15
5.18325E-07 3.16874E-15
5.50215E-07 2.82273E-15
5.83057E-07 2.52276E-15
6.16850E-07 2.26159E-15
6.51596E-07 2.03340E-15
6.87293E-07 1.83331E-15
7.23942E-07 1.65724E-15
7.61543E-07 1.50182E-15
1.18991E-06 6.28494E-16
1.71347E-06 3.07151E-16
2.33223E-06 1.67260E-16
3.04617E-06 9.86675E-17
3.85531E-06 6.18983E-17
4.75964E-06 4.07707E-17
5.75916E-06 2.79370E-17
6.85388E-06 1.97790E-17
8.04378E-06 1.43931E-17
9.32888E-06 1.07218E-17
1.07092E-05 8.14974E-18
1.21846E-05 6.30455E-18
1.37553E-05 4.95311E-18
1.54212E-05 3.94502E-18
1.71822E-05 3.18073E-18
1.90385E-05 2.59101E-18
2.09899E-05 2.13480E-18
2.30365E-05 1.77429E-18
2.51783E-05 1.48623E-18
2.74153E-05 1.25390E-18
2.97475E-05 1.06505E-18
3.21749E-05 9.10410E-19
3.46974E-05 7.82914E-19
3.73152E-05 6.77064E-19
4.00281E-05 5.88577E-19
4.28362E-05 5.14108E-19
4.57395E-05 4.51041E-19
4.87380E-05 3.97324E-19
5.18317E-05 3.51339E-19
5.50205E-05 3.11796E-19
5.83045E-05 2.77651E-19
6.16838E-05 2.48054E-19
6.51582E-05 2.22302E-19
6.87277E-05 1.99811E-19
7.23925E-05 1.80096E-19
7.61524E-05 1.62971E-19
9.21439E-05 1.11342E-19
1.09658E-04 7.86261E-20
1.28695E-04 5.70931E-20
1.49255E-04 4.24507E-20
1.71338E-04 3.22157E-20
1.94942E-04 2.48877E-20
2.20070E-04 1.95297E-20
2.46720E-04 1.55390E-20
2.74892E-04 1.25177E-20
3.04586E-04 1.01961E-20
3.35803E-04 8.38864E-21
3.68542E-04 6.96444E-21
4.02802E-04 5.83000E-21
4.38585E-04 4.91738E-21
4.75889E-04 4.17644E-21
5.14715E-04 3.56992E-21
5.55063E-04 3.06951E-21
5.96931E-04 2.65376E-21
6.40321E-04 2.30604E-21
6.85233E-04 2.01352E-21
7.31665E-04 1.76567E-21
7.79618E-04 1.55472E-21
8.29092E-04 1.37429E-21
8.80086E-04 1.21923E-21
9.32601E-04 1.08537E-21
9.86636E-04 9.69340E-22
1.04219E-03 8.68348E-22
1.09927E-03 7.80126E-22
1.15786E-03 7.02778E-22
1.21797E-03 6.34740E-22
1.27961E-03 5.74697E-22
1.34276E-03 5.21549E-22
1.40743E-03 4.74368E-22
1.47362E-03 4.32368E-22
1.54133E-03 3.94883E-22
1.61056E-03 3.61342E-22
1.68131E-03 3.31258E-22
1.75357E-03 3.04214E-22
1.82735E-03 2.79848E-22
1.90265E-03 2.57849E-22
1.97947E-03 2.37946E-22
2.05780E-03 2.19906E-22
2.13765E-03 2.03523E-22
2.21902E-03 1.88619E-22
2.30190E-03 1.75036E-22
2.38630E-03 1.62636E-22
2.47222E-03 1.51300E-22
2.55965E-03 1.40919E-22
2.64859E-03 1.31398E-22
2.73905E-03 1.22655E-22
2.83103E-03 1.14614E-22
2.92452E-03 1.07209E-22
3.01952E-03 1.00381E-22
3.11604E-03 9.40770E-23
3.21407E-03 8.82499E-23
3.31362E-03 8.28571E-23
3.41468E-03 7.78608E-23
3.51725E-03 7.32265E-23
3.62133E-03 6.89236E-23
3.72692E-03 6.49242E-23
3.83403E-03 6.12032E-23
3.94265E-03 5.77377E-23
4.05278E-03 5.45073E-23
4.16442E-03 5.14931E-23
4.27757E-03 4.86783E-23
4.39223E-03 4.60473E-23
4.50840E-03 4.35861E-23
4.62608E-03 4.12817E-23
4.74527E-03 3.91226E-23
4.86597E-03 3.70980E-23
4.98817E-03 3.51980E-23
5.11188E-03 3.34137E-23
5.23711E-03 3.17369E-23
5.36383E-03 3.01599E-23
5.49207E-03 2.86758E-23
5.62181E-03 2.72782E-23
5.75306E-03 2.59612E-23
5.88581E-03 2.47194E-23
6.02007E-03 2.35478E-23
6.15583E-03 2.24417E-23
6.29310E-03 2.13969E-23
6.43187E-03 2.04093E-23
6.57214E-03 1.94754E-23
6.71392E-03 1.85918E-23
6.85720E-03 1.77552E-23
7.00198E-03 1.69628E-23
7.14827E-03 1.62118E-23
7.29605E-03 1.54998E-23
7.44534E-03 1.48244E-23
7.59612E-03 1.41833E-23
7.97965E-03 1.27182E-23
8.37255E-03 1.14275E-23
8.77480E-03 1.02874E-23
9.18641E-03 9.27779E-24
9.60736E-03 8.38161E-24
1.00376E-02 7.58430E-24
1.04773E-02 6.87341E-24
1.09262E-02 6.23826E-24
1.13844E-02 5.66969E-24
1.18520E-02 5.15974E-24
1.23288E-02 4.70157E-24
1.28150E-02 4.28922E-24
1.33104E-02 3.91749E-24
1.38150E-02 3.58186E-24
1.43290E-02 3.27839E-24
1.48521E-02 3.00359E-24
1.53845E-02 2.75442E-24
1.59262E-02 2.52820E-24
1.64770E-02 2.32255E-24
1.70371E-02 2.13537E-24
1.76063E-02 1.96483E-24
1.81848E-02 1.80926E-24
1.87724E-02 1.66720E-24
1.93692E-02 1.53735E-24
1.99751E-02 1.41854E-24
2.05901E-02 1.30973E-24
2.12143E-02 1.20999E-24
2.18476E-02 1.11849E-24
2.24900E-02 1.03447E-24
2.31415E-02 9.57272E-25
2.38021E-02 8.86276E-25
2.44717E-02 8.20938E-25
2.51504E-02 7.60767E-25
2.58382E-02 7.05316E-25
2.65349E-02 6.54180E-25
2.72407E-02 6.06996E-25
2.79555E-02 5.63432E-25
2.86793E-02 5.23186E-25
2.94120E-02 4.85985E-25
3.01537E-02 4.51581E-25
3.09043E-02 4.19746E-25
3.16639E-02 3.90275E-25
3.24324E-02 3.62980E-25
3.32098E-02 3.37687E-25
3.39961E-02 3.14240E-25
3.47912E-02 2.92496E-25
3.55952E-02 2.72322E-25
3.64081E-02 2.53597E-25
3.72297E-02 2.36212E-25
3.80602E-02 2.20065E-25
3.88995E-02 2.05063E-25
3.97476E-02 1.91119E-25
4.06044E-02 1.78155E-25
4.14700E-02 1.66099E-25
4.23443E-02 1.54884E-25
4.32273E-02 1.44449E-25
4.41190E-02 1.34736E-25
4.50194E-02 1.25694E-25
4.59284E-02 1.17273E-25
4.68461E-02 1.09431E-25
4.87074E-02 9.53172E-26
5.06030E-02 8.30588E-26
5.25328E-02 7.24041E-26
5.44967E-02 6.31375E-26
5.64946E-02 5.50735E-26
5.85262E-02 4.80525E-26
6.05914E-02 4.19368E-26
6.26901E-02 3.66078E-26
6.48222E-02 3.19627E-26
6.69873E-02 2.79125E-26
6.91854E-02 2.43803E-26
7.14163E-02 2.12991E-26
7.36799E-02 1.86111E-26
7.59760E-02 1.62657E-26
7.83043E-02 1.42191E-26
8.06647E-02 1.24332E-26
8.30571E-02 1.08746E-26
8.54812E-02 9.51438E-27
8.79369E-02 8.32730E-27
9.04240E-02 7.29132E-27
9.29422E-02 6.38721E-27
9.54915E-02 5.59818E-27
9.80716E-02 4.90958E-27
1.00682E-01 4.30862E-27
1.03323E-01 3.78412E-27
1.05995E-01 3.32632E-27
1.08696E-01 2.92670E-27
1.11427E-01 2.57781E-27
1.14188E-01 2.27315E-27
1.16978E-01 2.00705E-27
1.19797E-01 1.77454E-27
1.22645E-01 1.57131E-27
1.25522E-01 1.39357E-27
1.28428E-01 1.23804E-27
1.31361E-01 1.10184E-27
1.34323E-01 9.82476E-28
1.37313E-01 8.77759E-28
1.40330E-01 7.85792E-28
1.43375E-01 7.04923E-28
1.46447E-01 6.33713E-28
1.49545E-01 5.70911E-28
1.52671E-01 5.15430E-28
1.55823E-01 4.66326E-28
1.59001E-01 4.22777E-28
1.62205E-01 3.84073E-28
1.65435E-01 3.49597E-28
1.68690E-01 3.18812E-28
1.71970E-01 2.91255E-28
1.75276E-01 2.66524E-28
1.78606E-01 2.44272E-28
1.81961E-01 2.24196E-28
1.85340E-01 2.06035E-28
1.88743E-01 1.89564E-28
1.92169E-01 1.74587E-28
1.95619E-01 1.60935E-28
1.99092E-01 1.48460E-28
2.02589E-01 1.37035E-28
2.06107E-01 1.26550E-28
2.09649E-01 1.16908E-28
2.13212E-01 1.08025E-28
2.16797E-01 9.98285E-29
2.20404E-01 9.22544E-29
2.24032E-01 8.52465E-29
2.27680E-01 7.87556E-29
2.31350E-01 7.27381E-29
2.35040E-01 6.71555E-29
2.38751E-01 6.19736E-29
2.42481E-01 5.71616E-29
2.46231E-01 5.26921E-29
2.50000E-01 4.85404E-29
2.53788E-01 4.46841E-29
2.57595E-01 4.11028E-29
2.61421E-01 3.77778E-29
2.65264E-01 3.46920E-29
2.69126E-01 3.18297E-29
2.73005E-01 2.91763E-29
2.76901E-01 2.67181E-29
2.80814E-01 2.44427E-29
2.84744E-01 2.23380E-29
2.88691E-01 2.03932E-29
2.92653E-01 1.85977E-29
2.96632E-01 1.69419E-29
3.00625E-01 1.54165E-29
3.04634E-01 1.40128E-29
3.08658E-01 1.27227E-29
3.12697E-01 1.15383E-29
3.16749E-01 1.04525E-29
3.20816E-01 9.45838E-30
3.24896E-01 8.54936E-30
3.28990E-01 7.71934E-30
3.33097E-01 6.96255E-30
3.37216E-01 6.27354E-30
3.41348E-01 5.64720E-30
3.45492E-01 5.07869E-30
3.49647E-01 4.56351E-30
3.53814E-01 4.09741E-30
3.57992E-01 3.67641E-30
3.62181E-01 3.29679E-30
3.66381E-01 2.95509E-30
3.70590E-01 2.64806E-30
3.74810E-01 2.37269E-30
3.79039E-01 2.12617E-30
3.83277E-01 1.90588E-30
3.87524E-01 1.70943E-30
3.91780E-01 1.53456E-30
3.96044E-01 1.37923E-30
4.00316E-01 1.24151E-30
4.04596E-01 1.11966E-30
4.08882E-01 1.01207E-30
4.13176E-01 9.17255E-31
4.17476E-01 8.33869E-31
4.21783E-01 7.60676E-31
4.26095E-01 6.96547E-31
4.30413E-01 6.40460E-31
4.34737E-01 5.91484E-31
4.39065E-01 5.48776E-31
4.43398E-01 5.11576E-31
4.47736E-01 4.79199E-31
4.52077E-01 4.51027E-31
4.56422E-01 4.26507E-31
4.60770E-01 4.05147E-31
4.65122E-01 3.86504E-31
4.69476E-01 3.70189E-31
4.73832E-01 3.55854E-31
4.78190E-01 3.43195E-31
4.82550E-01 3.31941E-31
4.86912E-01 3.21859E-31
4.91274E-01 3.12744E-31
4.95637E-01 3.04417E-31
5.00000E-01 2.96728E-31
5.04363E-01 2.89544E-31
5.08726E-01 2.82756E-31
5.13088E-01 2.76268E-31
5.17450E-01 2.70004E-31
5.21810E-01 2.63898E-31
5.26168E-01 2.57899E-31
5.30524E-01 2.51965E-31
5.34878E-01 2.46064E-31
5.39230E-01 2.40170E-31
5.43578E-01 2.34266E-31
5.47923E-01 2.28341E-31
5.52264E-01 2.22386E-31
5.56602E-01 2.16401E-31
5.60935E-01 2.10384E-31
5.65263E-01 2.04341E-31
5.69587E-01 1.98276E-31
5.73905E-01 1.92198E-31
5.78217E-01 1.86115E-31
5.82524E-01 1.80036E-31
5.86824E-01 1.73974E-31
5.91118E-01 1.67938E-31
5.95404E-01 1.61940E-31
5.99684E-01 1.55990E-31
6.03956E-01 1.50100E-31
6.08220E-01 1.44280E-31
6.12476E-01 1.38539E-31
6.16723E-01 1.32887E-31
6.20961E-01 1.27333E-31
6.25190E-01 1.21885E-31
6.29410E-01 1.16550E-31
6.33619E-01 1.11335E-31
6.37819E-01 1.06245E-31
6.42008E-01 1.01286E-31
6.46186E-01 9.64624E-32
6.50353E-01 9.17772E-32
6.54508E-01 8.72336E-32
6.58652E-01 8.28339E-32
6.62784E-01 7.85798E-32
6.66903E-01 7.44724E-32
6.71010E-01 7.05121E-32
6.75104E-01 6.66989E-32
6.79184E-01 6.30322E-32
6.83251E-01 5.95110E-32
6.87303E-01 5.61339E-32
6.91342E-01 5.28992E-32
6.95366E-01 4.98046E-32
6.99375E-01 4.68478E-32
7.03368E-01 4.40259E-32
7.07347E-01 4.13361E-32
7.11309E-01 3.87751E-32
7.15256E-01 3.63397E-32
7.19186E-01 3.40262E-32
7.23099E-01 3.18310E-32
7.26995E-01 2.97505E-32
7.30874E-01 2.77809E-32
7.34736E-01 2.59182E-32
7.38579E-01 2.41587E-32
7.42405E-01 2.24983E-32
7.46212E-01 2.09333E-32
7.50000E-01 1.94596E-32
7.53769E-01 1.80736E-32
7.57519E-01 1.67713E-32
7.61249E-01 1.55490E-32
7.64960E-01 1.44030E-32
7.68650E-01 1.33298E-32
7.72320E-01 1.23257E-32
7.75968E-01 1.13874E-32
7.79596E-01 1.05115E-32
7.83203E-01 9.69467E-33
7.86788E-01 8.93384E-33
7.90351E-01 8.22593E-33
7.93893E-01 7.56800E-33
7.97411E-01 6.95720E-33
8.00908E-01 6.39081E-33
8.04381E-01 5.86620E-33
8.07831E-01 5.38086E-33
8.11257E-01 4.93237E-33
8.14660E-01 4.51844E-33
8.18039E-01 4.13686E-33
8.21394E-01 3.78554E-33
8.24724E-01 3.46248E-33
8.28030E-01 3.16580E-33
8.31310E-01 2.89368E-33
8.34565E-01 2.64443E-33
8.37795E-01 2.41642E-33
8.40999E-01 2.20814E-33
8.44177E-01 2.01814E-33
8.47329E-01 1.84506E-33
8.50455E-01 1.68762E-33
8.53553E-01 1.54462E-33
8.56625E-01 1.41492E-33
8.59670E-01 1.29747E-33
8.62687E-01 1.19126E-33
8.65677E-01 1.09538E-33
8.68639E-01 1.00895E-33
8.71572E-01 9.31160E-34
8.74478E-01 8.61252E-34
8.77355E-01 7.98524E-34
8.80203E-01 7.42324E-34
8.83022E-01 6.92043E-34
8.85812E-01 6.47119E-34
8.88573E-01 6.07033E-34
8.91304E-01 5.71304E-34
8.94005E-01 5.39488E-34
8.96677E-01 5.11178E-34
8.99318E-01 4.85997E-34
9.01928E-01 4.63603E-34
9.04508E-01 4.43679E-34
9.07058E-01 4.25939E-34
9.09576E-01 4.10118E-34
9.12063E-01 3.95978E-34
9.14519E-01 3.83300E-34
9.16943E-01 3.71890E-34
9.19335E-01 3.61568E-34
9.21696E-01 3.52179E-34
9.24024E-01 3.43570E-34
9.26320E-01 3.35620E-34
9.28584E-01 3.28214E-34
9.30815E-01 3.21247E-34
9.33013E-01 3.14636E-34
9.35178E-01 3.08293E-34
9.37310E-01 3.02155E-34
9.39409E-01 2.96159E-34
9.41474E-01 2.90257E-34
9.43505E-01 2.84404E-34
9.45503E-01 2.78561E-34
9.47467E-01 2.72702E-34
9.49397E-01 2.66799E-34
9.51293E-01 2.60832E-34
9.53154E-01 2.54787E-34
9.54981E-01 2.48654E-34
9.56773E-01 2.42421E-34
9.58530E-01 2.36091E-34
9.60252E-01 2.29658E-34
9.61940E-01 2.23125E-34
9.63592E-01 2.16497E-34
9.65209E-01 2.09778E-34
9.66790E-01 2.02977E-34
9.68336E-01 1.96100E-34
9.69846E-01 1.89160E-34
9.71321E-01 1.82168E-34
9.72759E-01 1.75136E-34
9.74162E-01 1.68074E-34
9.75528E-01 1.60998E-34
9.76858E-01 1.53922E-34
9.78152E-01 1.46857E-34
9.79410E-01 1.39821E-34
9.80631E-01 1.32824E-34
9.81815E-01 1.25882E-34
9.82963E-01 1.19010E-34
9.84074E-01 1.12220E-34
9.85148E-01 1.05527E-34
9.86185E-01 9.89438E-35
9.87185E-01 9.24847E-35
9.88148E-01 8.61604E-35
9.89074E-01 7.99846E-35
9.89962E-01 7.39689E-35
9.90814E-01 6.81250E-35
9.91627E-01 6.24630E-35
9.92404E-01 5.69927E-35
9.93143E-01 5.17282E-35
9.93844E-01 4.66757E-35
9.94508E-01 4.18445E-35
9.95134E-01 3.72451E-35
9.95722E-01 3.28832E-35
9.96273E-01 2.87678E-35
9.96786E-01 2.49057E-35
9.97261E-01 2.13036E-35
9.97698E-01 1.79680E-35
9.98097E-01 1.49027E-35
9.98459E-01 1.21149E-35
9.98782E-01 9.60813E-36
9.99067E-01 7.38744E-36
9.99315E-01 5.45423E-36
9.99524E-01 3.81434E-36
9.99695E-01 2.46850E-36
9.99829E-01 1.41973E-36
9.99924E-01 6.69300E-37
9.99981E-01 2.18401E-37
1.00000E+00 6.81482E-38
