 #
 # Subroutine ELSEPA. Elastic scattering of electrons and positrons
 #                    by neutral atoms and positive ions
 #
 # Projectile: positron
 # Kinetic energy = 4.00000E+06 eV = 1.46997E+05 a.u.
 #
 # WARNING: High-energy factorization with free-atom DF screening.
 #          Absorption, polarization and exchange corrections are
 #          switched off.
 #          Phase shifts are calculated for the bare nucleus.
 #          Scattering amplitudes are not evaluated.
 #
 # Element: Rn,  Z =  86,  atomic weight = 2.22018E+02 g/mol
 #
 # Nuclear model: Fermi distribution
 #                Average radius = 6.47907E-13 cm
 #                Skin thickness = 5.46000E-14 cm
 #
 # Number of electrons = 86
 #
 # Total elastic cross section = 9.69989E-18 cm**2 = 3.46389E-01 a0**2
 # 1st transport cross section = 4.16169E-22 cm**2 = 1.48617E-05 a0**2
 # 2nd transport cross section = 1.19290E-21 cm**2 = 4.25991E-05 a0**2
 #
 #
 # Differential cross section:                       MU=(1-COS(THETA))/2
 #
 #  THETA        MU          DCS          DCS        Sherman      error
 #  (deg)                 (cm**2/sr)   (a0**2/sr)    function
 #----------------------------------------------------------------------
0.00000E+00 1.30791E-12
7.61557E-13 1.30791E-12
1.18994E-12 1.30790E-12
1.71346E-12 1.30790E-12
2.33225E-12 1.30790E-12
3.04617E-12 1.30789E-12
3.85530E-12 1.30789E-12
4.75964E-12 1.30788E-12
5.75917E-12 1.30787E-12
6.85391E-12 1.30787E-12
8.04379E-12 1.30786E-12
9.32893E-12 1.30785E-12
1.07092E-11 1.30784E-12
1.21847E-11 1.30783E-12
1.37554E-11 1.30782E-12
1.54213E-11 1.30781E-12
1.71823E-11 1.30780E-12
1.90386E-11 1.30779E-12
2.09900E-11 1.30778E-12
2.30367E-11 1.30777E-12
2.51785E-11 1.30775E-12
2.74156E-11 1.30774E-12
2.97478E-11 1.30773E-12
3.21752E-11 1.30771E-12
3.46979E-11 1.30770E-12
3.73157E-11 1.30768E-12
4.00286E-11 1.30766E-12
4.28368E-11 1.30765E-12
4.57402E-11 1.30763E-12
4.87388E-11 1.30761E-12
5.18325E-11 1.30759E-12
5.50215E-11 1.30757E-12
5.83057E-11 1.30755E-12
6.16850E-11 1.30753E-12
6.51595E-11 1.30751E-12
6.87293E-11 1.30749E-12
7.23943E-11 1.30747E-12
7.61544E-11 1.30744E-12
1.18991E-10 1.30719E-12
1.71347E-10 1.30687E-12
2.33223E-10 1.30650E-12
3.04617E-10 1.30607E-12
3.85531E-10 1.30559E-12
4.75965E-10 1.30505E-12
5.75917E-10 1.30445E-12
6.85389E-10 1.30380E-12
8.04380E-10 1.30310E-12
9.32891E-10 1.30233E-12
1.07092E-09 1.30151E-12
1.21847E-09 1.30064E-12
1.37554E-09 1.29971E-12
1.54213E-09 1.29873E-12
1.71823E-09 1.29769E-12
1.90386E-09 1.29660E-12
2.09900E-09 1.29545E-12
2.30367E-09 1.29425E-12
2.51785E-09 1.29300E-12
2.74156E-09 1.29169E-12
2.97478E-09 1.29033E-12
3.21752E-09 1.28891E-12
3.46978E-09 1.28745E-12
3.73156E-09 1.28593E-12
4.00286E-09 1.28435E-12
4.28368E-09 1.28273E-12
4.57402E-09 1.28105E-12
4.87388E-09 1.27933E-12
5.18326E-09 1.27755E-12
5.50215E-09 1.27572E-12
5.83057E-09 1.27384E-12
6.16850E-09 1.27191E-12
6.51596E-09 1.26993E-12
6.87293E-09 1.26791E-12
7.23942E-09 1.26583E-12
7.61544E-09 1.26371E-12
1.18991E-08 1.23984E-12
1.71347E-08 1.21165E-12
2.33223E-08 1.17949E-12
3.04617E-08 1.14403E-12
3.85531E-08 1.10588E-12
4.75965E-08 1.06564E-12
5.75917E-08 1.02384E-12
6.85389E-08 9.80520E-13
8.04380E-08 9.36680E-13
9.32891E-08 8.92787E-13
1.07092E-07 8.49245E-13
1.21847E-07 8.06397E-13
1.37554E-07 7.64199E-13
1.54213E-07 7.23056E-13
1.71823E-07 6.83357E-13
1.90386E-07 6.45234E-13
2.09900E-07 6.08780E-13
2.30367E-07 5.73988E-13
2.51785E-07 5.40688E-13
2.74156E-07 5.09197E-13
2.97478E-07 4.79485E-13
3.21752E-07 4.51507E-13
3.46978E-07 4.25207E-13
3.73156E-07 4.00388E-13
4.00286E-07 3.77092E-13
4.28368E-07 3.55298E-13
4.57402E-07 3.34921E-13
4.87388E-07 3.15878E-13
5.18325E-07 2.98062E-13
5.50215E-07 2.81358E-13
5.83057E-07 2.65771E-13
6.16850E-07 2.51225E-13
6.51596E-07 2.37647E-13
6.87293E-07 2.24968E-13
7.23942E-07 2.13082E-13
7.61543E-07 2.01969E-13
1.18991E-06 1.22655E-13
1.71347E-06 7.95659E-14
2.33223E-06 5.39719E-14
3.04617E-06 3.80349E-14
3.85531E-06 2.76053E-14
4.75964E-06 2.05246E-14
5.75916E-06 1.55776E-14
6.85388E-06 1.20150E-14
8.04378E-06 9.43751E-15
9.32888E-06 7.52974E-15
1.07092E-05 6.08911E-15
1.21846E-05 4.98161E-15
1.37553E-05 4.11199E-15
1.54212E-05 3.42248E-15
1.71822E-05 2.87123E-15
1.90385E-05 2.42410E-15
2.09899E-05 2.06269E-15
2.30365E-05 1.76460E-15
2.51783E-05 1.51623E-15
2.74153E-05 1.30992E-15
2.97475E-05 1.13670E-15
3.21749E-05 9.90597E-16
3.46974E-05 8.67458E-16
3.73152E-05 7.63047E-16
4.00281E-05 6.74178E-16
4.28362E-05 5.98130E-16
4.57395E-05 5.32659E-16
4.87380E-05 4.75986E-16
5.18317E-05 4.26663E-16
5.50205E-05 3.83524E-16
5.83045E-05 3.45740E-16
6.16838E-05 3.12542E-16
6.51582E-05 2.83284E-16
6.87277E-05 2.57419E-16
7.23925E-05 2.34453E-16
7.61524E-05 2.14019E-16
9.21439E-05 1.51650E-16
1.09658E-04 1.10439E-16
1.28695E-04 8.22740E-17
1.49255E-04 6.26124E-17
1.71338E-04 4.85063E-17
1.94942E-04 3.81682E-17
2.20070E-04 3.04371E-17
2.46720E-04 2.45671E-17
2.74892E-04 2.00484E-17
3.04586E-04 1.65223E-17
3.35803E-04 1.37376E-17
3.68542E-04 1.15134E-17
4.02802E-04 9.71777E-18
4.38585E-04 8.25841E-18
4.75889E-04 7.06229E-18
5.14715E-04 6.07463E-18
5.55063E-04 5.25334E-18
5.96931E-04 4.56549E-18
6.40321E-04 3.98637E-18
6.85233E-04 3.49621E-18
7.31665E-04 3.07912E-18
7.79618E-04 2.72238E-18
8.29092E-04 2.41582E-18
8.80086E-04 2.15108E-18
9.32601E-04 1.92165E-18
9.86636E-04 1.72204E-18
1.04219E-03 1.54768E-18
1.09927E-03 1.39484E-18
1.15786E-03 1.26035E-18
1.21797E-03 1.14167E-18
1.27961E-03 1.03662E-18
1.34276E-03 9.43373E-19
1.40743E-03 8.60365E-19
1.47362E-03 7.86258E-19
1.54133E-03 7.19929E-19
1.61056E-03 6.60432E-19
1.68131E-03 6.06941E-19
1.75357E-03 5.58744E-19
1.82735E-03 5.15221E-19
1.90265E-03 4.75826E-19
1.97947E-03 4.40111E-19
2.05780E-03 4.07673E-19
2.13765E-03 3.78158E-19
2.21902E-03 3.51255E-19
2.30190E-03 3.26689E-19
2.38630E-03 3.04219E-19
2.47222E-03 2.83641E-19
2.55965E-03 2.64765E-19
2.64859E-03 2.47427E-19
2.73905E-03 2.31478E-19
2.83103E-03 2.16783E-19
2.92452E-03 2.03231E-19
3.01952E-03 1.90716E-19
3.11604E-03 1.79145E-19
3.21407E-03 1.68434E-19
3.31362E-03 1.58507E-19
3.41468E-03 1.49296E-19
3.51725E-03 1.40741E-19
3.62133E-03 1.32787E-19
3.72692E-03 1.25384E-19
3.83403E-03 1.18487E-19
3.94265E-03 1.12055E-19
4.05278E-03 1.06051E-19
4.16442E-03 1.00441E-19
4.27757E-03 9.51962E-20
4.39223E-03 9.02873E-20
4.50840E-03 8.56887E-20
4.62608E-03 8.13775E-20
4.74527E-03 7.73327E-20
4.86597E-03 7.35348E-20
4.98817E-03 6.99660E-20
5.11188E-03 6.66099E-20
5.23711E-03 6.34513E-20
5.36383E-03 6.04768E-20
5.49207E-03 5.76737E-20
5.62181E-03 5.50303E-20
5.75306E-03 5.25358E-20
5.88581E-03 5.01801E-20
6.02007E-03 4.79542E-20
6.15583E-03 4.58497E-20
6.29310E-03 4.38589E-20
6.43187E-03 4.19743E-20
6.57214E-03 4.01893E-20
6.71392E-03 3.84975E-20
6.85720E-03 3.68934E-20
7.00198E-03 3.53715E-20
7.14827E-03 3.39268E-20
7.29605E-03 3.25548E-20
7.44534E-03 3.12509E-20
7.59612E-03 3.00112E-20
7.97965E-03 2.71693E-20
8.37255E-03 2.46540E-20
8.77480E-03 2.24216E-20
9.18641E-03 2.04347E-20
9.60736E-03 1.86619E-20
1.00376E-02 1.70760E-20
1.04773E-02 1.56540E-20
1.09262E-02 1.43761E-20
1.13844E-02 1.32250E-20
1.18520E-02 1.21861E-20
1.23288E-02 1.12466E-20
1.28150E-02 1.03953E-20
1.33104E-02 9.62248E-21
1.38150E-02 8.91965E-21
1.43290E-02 8.27932E-21
1.48521E-02 7.69500E-21
1.53845E-02 7.16093E-21
1.59262E-02 6.67205E-21
1.64770E-02 6.22386E-21
1.70371E-02 5.81237E-21
1.76063E-02 5.43403E-21
1.81848E-02 5.08572E-21
1.87724E-02 4.76464E-21
1.93692E-02 4.46829E-21
1.99751E-02 4.19442E-21
2.05901E-02 3.94101E-21
2.12143E-02 3.70627E-21
2.18476E-02 3.48860E-21
2.24900E-02 3.28652E-21
2.31415E-02 3.09873E-21
2.38021E-02 2.92402E-21
2.44717E-02 2.76133E-21
2.51504E-02 2.60969E-21
2.58382E-02 2.46820E-21
2.65349E-02 2.33608E-21
2.72407E-02 2.21259E-21
2.79555E-02 2.09706E-21
2.86793E-02 1.98890E-21
2.94120E-02 1.88754E-21
3.01537E-02 1.79249E-21
3.09043E-02 1.70328E-21
3.16639E-02 1.61949E-21
3.24324E-02 1.54072E-21
3.32098E-02 1.46664E-21
3.39961E-02 1.39690E-21
3.47912E-02 1.33121E-21
3.55952E-02 1.26928E-21
3.64081E-02 1.21088E-21
3.72297E-02 1.15575E-21
3.80602E-02 1.10368E-21
3.88995E-02 1.05448E-21
3.97476E-02 1.00796E-21
4.06044E-02 9.63937E-22
4.14700E-02 9.22263E-22
4.23443E-02 8.82787E-22
4.32273E-02 8.45373E-22
4.41190E-02 8.09895E-22
4.50194E-02 7.76232E-22
4.59284E-02 7.44277E-22
4.68461E-02 7.13927E-22
4.87074E-02 6.57668E-22
5.06030E-02 6.06770E-22
5.25328E-02 5.60635E-22
5.44967E-02 5.18742E-22
5.64946E-02 4.80635E-22
5.85262E-02 4.45914E-22
6.05914E-02 4.14227E-22
6.26901E-02 3.85263E-22
6.48222E-02 3.58749E-22
6.69873E-02 3.34443E-22
6.91854E-02 3.12128E-22
7.14163E-02 2.91614E-22
7.36799E-02 2.72731E-22
7.59760E-02 2.55327E-22
7.83043E-02 2.39266E-22
8.06647E-02 2.24427E-22
8.30571E-02 2.10701E-22
8.54812E-02 1.97991E-22
8.79369E-02 1.86207E-22
9.04240E-02 1.75272E-22
9.29422E-02 1.65113E-22
9.54915E-02 1.55665E-22
9.80716E-02 1.46871E-22
1.00682E-01 1.38678E-22
1.03323E-01 1.31037E-22
1.05995E-01 1.23905E-22
1.08696E-01 1.17241E-22
1.11427E-01 1.11011E-22
1.14188E-01 1.05180E-22
1.16978E-01 9.97198E-23
1.19797E-01 9.46014E-23
1.22645E-01 8.98001E-23
1.25522E-01 8.52931E-23
1.28428E-01 8.10590E-23
1.31361E-01 7.70784E-23
1.34323E-01 7.33337E-23
1.37313E-01 6.98084E-23
1.40330E-01 6.64874E-23
1.43375E-01 6.33570E-23
1.46447E-01 6.04040E-23
1.49545E-01 5.76170E-23
1.52671E-01 5.49849E-23
1.55823E-01 5.24976E-23
1.59001E-01 5.01457E-23
1.62205E-01 4.79207E-23
1.65435E-01 4.58145E-23
1.68690E-01 4.38196E-23
1.71970E-01 4.19293E-23
1.75276E-01 4.01369E-23
1.78606E-01 3.84367E-23
1.81961E-01 3.68229E-23
1.85340E-01 3.52906E-23
1.88743E-01 3.38348E-23
1.92169E-01 3.24511E-23
1.95619E-01 3.11353E-23
1.99092E-01 2.98835E-23
2.02589E-01 2.86920E-23
2.06107E-01 2.75575E-23
2.09649E-01 2.64767E-23
2.13212E-01 2.54467E-23
2.16797E-01 2.44646E-23
2.20404E-01 2.35279E-23
2.24032E-01 2.26341E-23
2.27680E-01 2.17809E-23
2.31350E-01 2.09661E-23
2.35040E-01 2.01877E-23
2.38751E-01 1.94439E-23
2.42481E-01 1.87327E-23
2.46231E-01 1.80525E-23
2.50000E-01 1.74018E-23
2.53788E-01 1.67791E-23
2.57595E-01 1.61828E-23
2.61421E-01 1.56118E-23
2.65264E-01 1.50648E-23
2.69126E-01 1.45405E-23
2.73005E-01 1.40380E-23
2.76901E-01 1.35560E-23
2.80814E-01 1.30937E-23
2.84744E-01 1.26501E-23
2.88691E-01 1.22243E-23
2.92653E-01 1.18155E-23
2.96632E-01 1.14229E-23
3.00625E-01 1.10457E-23
3.04634E-01 1.06832E-23
3.08658E-01 1.03348E-23
3.12697E-01 9.99981E-24
3.16749E-01 9.67763E-24
3.20816E-01 9.36768E-24
3.24896E-01 9.06942E-24
3.28990E-01 8.78235E-24
3.33097E-01 8.50596E-24
3.37216E-01 8.23980E-24
3.41348E-01 7.98342E-24
3.45492E-01 7.73641E-24
3.49647E-01 7.49836E-24
3.53814E-01 7.26889E-24
3.57992E-01 7.04764E-24
3.62181E-01 6.83426E-24
3.66381E-01 6.62843E-24
3.70590E-01 6.42984E-24
3.74810E-01 6.23819E-24
3.79039E-01 6.05320E-24
3.83277E-01 5.87460E-24
3.87524E-01 5.70213E-24
3.91780E-01 5.53554E-24
3.96044E-01 5.37460E-24
4.00316E-01 5.21909E-24
4.04596E-01 5.06879E-24
4.08882E-01 4.92349E-24
4.13176E-01 4.78301E-24
4.17476E-01 4.64716E-24
4.21783E-01 4.51577E-24
4.26095E-01 4.38865E-24
4.30413E-01 4.26566E-24
4.34737E-01 4.14663E-24
4.39065E-01 4.03141E-24
4.43398E-01 3.91986E-24
4.47736E-01 3.81184E-24
4.52077E-01 3.70723E-24
4.56422E-01 3.60590E-24
4.60770E-01 3.50773E-24
4.65122E-01 3.41261E-24
4.69476E-01 3.32043E-24
4.73832E-01 3.23108E-24
4.78190E-01 3.14446E-24
4.82550E-01 3.06047E-24
4.86912E-01 2.97901E-24
4.91274E-01 2.90000E-24
4.95637E-01 2.82336E-24
5.00000E-01 2.74900E-24
5.04363E-01 2.67685E-24
5.08726E-01 2.60684E-24
5.13088E-01 2.53888E-24
5.17450E-01 2.47290E-24
5.21810E-01 2.40883E-24
5.26168E-01 2.34662E-24
5.30524E-01 2.28619E-24
5.34878E-01 2.22750E-24
5.39230E-01 2.17049E-24
5.43578E-01 2.11510E-24
5.47923E-01 2.06127E-24
5.52264E-01 2.00896E-24
5.56602E-01 1.95811E-24
5.60935E-01 1.90868E-24
5.65263E-01 1.86062E-24
5.69587E-01 1.81388E-24
5.73905E-01 1.76844E-24
5.78217E-01 1.72424E-24
5.82524E-01 1.68124E-24
5.86824E-01 1.63942E-24
5.91118E-01 1.59872E-24
5.95404E-01 1.55912E-24
5.99684E-01 1.52059E-24
6.03956E-01 1.48308E-24
6.08220E-01 1.44657E-24
6.12476E-01 1.41102E-24
6.16723E-01 1.37642E-24
6.20961E-01 1.34272E-24
6.25190E-01 1.30990E-24
6.29410E-01 1.27795E-24
6.33619E-01 1.24682E-24
6.37819E-01 1.21649E-24
6.42008E-01 1.18695E-24
6.46186E-01 1.15817E-24
6.50353E-01 1.13012E-24
6.54508E-01 1.10279E-24
6.58652E-01 1.07615E-24
6.62784E-01 1.05018E-24
6.66903E-01 1.02487E-24
6.71010E-01 1.00020E-24
6.75104E-01 9.76137E-25
6.79184E-01 9.52680E-25
6.83251E-01 9.29805E-25
6.87303E-01 9.07497E-25
6.91342E-01 8.85740E-25
6.95366E-01 8.64517E-25
6.99375E-01 8.43815E-25
7.03368E-01 8.23619E-25
7.07347E-01 8.03915E-25
7.11309E-01 7.84690E-25
7.15256E-01 7.65930E-25
7.19186E-01 7.47622E-25
7.23099E-01 7.29756E-25
7.26995E-01 7.12318E-25
7.30874E-01 6.95298E-25
7.34736E-01 6.78683E-25
7.38579E-01 6.62464E-25
7.42405E-01 6.46629E-25
7.46212E-01 6.31169E-25
7.50000E-01 6.16074E-25
7.53769E-01 6.01334E-25
7.57519E-01 5.86939E-25
7.61249E-01 5.72882E-25
7.64960E-01 5.59153E-25
7.68650E-01 5.45744E-25
7.72320E-01 5.32647E-25
7.75968E-01 5.19854E-25
7.79596E-01 5.07357E-25
7.83203E-01 4.95148E-25
7.86788E-01 4.83220E-25
7.90351E-01 4.71567E-25
7.93893E-01 4.60182E-25
7.97411E-01 4.49057E-25
8.00908E-01 4.38187E-25
8.04381E-01 4.27564E-25
8.07831E-01 4.17184E-25
8.11257E-01 4.07040E-25
8.14660E-01 3.97127E-25
8.18039E-01 3.87439E-25
8.21394E-01 3.77970E-25
8.24724E-01 3.68715E-25
8.28030E-01 3.59670E-25
8.31310E-01 3.50829E-25
8.34565E-01 3.42188E-25
8.37795E-01 3.33741E-25
8.40999E-01 3.25485E-25
8.44177E-01 3.17414E-25
8.47329E-01 3.09525E-25
8.50455E-01 3.01813E-25
8.53553E-01 2.94275E-25
8.56625E-01 2.86907E-25
8.59670E-01 2.79704E-25
8.62687E-01 2.72662E-25
8.65677E-01 2.65780E-25
8.68639E-01 2.59052E-25
8.71572E-01 2.52475E-25
8.74478E-01 2.46047E-25
8.77355E-01 2.39763E-25
8.80203E-01 2.33621E-25
8.83022E-01 2.27618E-25
8.85812E-01 2.21750E-25
8.88573E-01 2.16015E-25
8.91304E-01 2.10410E-25
8.94005E-01 2.04933E-25
8.96677E-01 1.99580E-25
8.99318E-01 1.94349E-25
9.01928E-01 1.89237E-25
9.04508E-01 1.84243E-25
9.07058E-01 1.79363E-25
9.09576E-01 1.74596E-25
9.12063E-01 1.69939E-25
9.14519E-01 1.65390E-25
9.16943E-01 1.60947E-25
9.19335E-01 1.56608E-25
9.21696E-01 1.52370E-25
9.24024E-01 1.48233E-25
9.26320E-01 1.44193E-25
9.28584E-01 1.40249E-25
9.30815E-01 1.36400E-25
9.33013E-01 1.32643E-25
9.35178E-01 1.28978E-25
9.37310E-01 1.25401E-25
9.39409E-01 1.21912E-25
9.41474E-01 1.18509E-25
9.43505E-01 1.15191E-25
9.45503E-01 1.11956E-25
9.47467E-01 1.08803E-25
9.49397E-01 1.05729E-25
9.51293E-01 1.02735E-25
9.53154E-01 9.98188E-26
9.54981E-01 9.69787E-26
9.56773E-01 9.42138E-26
9.58530E-01 9.15229E-26
9.60252E-01 8.89048E-26
9.61940E-01 8.63584E-26
9.63592E-01 8.38826E-26
9.65209E-01 8.14764E-26
9.66790E-01 7.91387E-26
9.68336E-01 7.68685E-26
9.69846E-01 7.46650E-26
9.71321E-01 7.25271E-26
9.72759E-01 7.04540E-26
9.74162E-01 6.84448E-26
9.75528E-01 6.64987E-26
9.76858E-01 6.46148E-26
9.78152E-01 6.27924E-26
9.79410E-01 6.10307E-26
9.80631E-01 5.93290E-26
9.81815E-01 5.76866E-26
9.82963E-01 5.61028E-26
9.84074E-01 5.45770E-26
9.85148E-01 5.31085E-26
9.86185E-01 5.16968E-26
9.87185E-01 5.03412E-26
9.88148E-01 4.90412E-26
9.89074E-01 4.77964E-26
9.89962E-01 4.66061E-26
9.90814E-01 4.54699E-26
9.91627E-01 4.43874E-26
9.92404E-01 4.33581E-26
9.93143E-01 4.23816E-26
9.93844E-01 4.14574E-26
9.94508E-01 4.05853E-26
9.95134E-01 3.97649E-26
9.95722E-01 3.89958E-26
9.96273E-01 3.82778E-26
9.96786E-01 3.76105E-26
9.97261E-01 3.69937E-26
9.97698E-01 3.64272E-26
9.98097E-01 3.59106E-26
9.98459E-01 3.54439E-26
9.98782E-01 3.50268E-26
9.99067E-01 3.46592E-26
9.99315E-01 3.43408E-26
9.99524E-01 3.40717E-26
9.99695E-01 3.38517E-26
9.99829E-01 3.36806E-26
9.99924E-01 3.35584E-26
9.99981E-01 3.34852E-26
1.00000E+00 3.34608E-26
