 #
 # Subroutine ELSEPA. Elastic scattering of electrons and positrons
 #                    by neutral atoms and positive ions
 #
 # Projectile: positron
 # Kinetic energy = 2.00000E+07 eV = 7.34987E+05 a.u.
 #
 # WARNING: High-energy factorization with free-atom DF screening.
 #          Absorption, polarization and exchange corrections are
 #          switched off.
 #          Phase shifts are calculated for the bare nucleus.
 #          Scattering amplitudes are not evaluated.
 #
 # Element: Rn,  Z =  86,  atomic weight = 2.22018E+02 g/mol
 #
 # Nuclear model: Fermi distribution
 #                Average radius = 6.47907E-13 cm
 #                Skin thickness = 5.46000E-14 cm
 #
 # Number of electrons = 86
 #
 # Total elastic cross section = 9.58656E-18 cm**2 = 3.42342E-01 a0**2
 # 1st transport cross section = 2.64131E-23 cm**2 = 9.43227E-07 a0**2
 # 2nd transport cross section = 7.67730E-23 cm**2 = 2.74161E-06 a0**2
 #
 #
 # Differential cross section:                       MU=(1-COS(THETA))/2
 #
 #  THETA        MU          DCS          DCS        Sherman      error
 #  (deg)                 (cm**2/sr)   (a0**2/sr)    function
 #----------------------------------------------------------------------
0.00000E+00 2.70400E-11
7.61557E-13 2.70380E-11
1.18994E-12 2.70369E-11
1.71346E-12 2.70355E-11
2.33225E-12 2.70339E-11
3.04617E-12 2.70320E-11
3.85530E-12 2.70299E-11
4.75964E-12 2.70276E-11
5.75917E-12 2.70250E-11
6.85391E-12 2.70222E-11
8.04379E-12 2.70191E-11
9.32893E-12 2.70158E-11
1.07092E-11 2.70122E-11
1.21847E-11 2.70084E-11
1.37554E-11 2.70043E-11
1.54213E-11 2.70000E-11
1.71823E-11 2.69955E-11
1.90386E-11 2.69907E-11
2.09900E-11 2.69857E-11
2.30367E-11 2.69804E-11
2.51785E-11 2.69749E-11
2.74156E-11 2.69692E-11
2.97478E-11 2.69632E-11
3.21752E-11 2.69570E-11
3.46979E-11 2.69505E-11
3.73157E-11 2.69438E-11
4.00286E-11 2.69368E-11
4.28368E-11 2.69296E-11
4.57402E-11 2.69222E-11
4.87388E-11 2.69145E-11
5.18325E-11 2.69066E-11
5.50215E-11 2.68985E-11
5.83057E-11 2.68901E-11
6.16850E-11 2.68814E-11
6.51595E-11 2.68726E-11
6.87293E-11 2.68635E-11
7.23943E-11 2.68541E-11
7.61544E-11 2.68446E-11
1.18991E-10 2.67358E-11
1.71347E-10 2.66039E-11
2.33223E-10 2.64493E-11
3.04617E-10 2.62727E-11
3.85531E-10 2.60748E-11
4.75965E-10 2.58562E-11
5.75917E-10 2.56168E-11
6.85389E-10 2.53575E-11
8.04380E-10 2.50843E-11
9.32891E-10 2.47911E-11
1.07092E-09 2.44822E-11
1.21847E-09 2.41640E-11
1.37554E-09 2.38232E-11
1.54213E-09 2.34753E-11
1.71823E-09 2.31177E-11
1.90386E-09 2.27432E-11
2.09900E-09 2.23670E-11
2.30367E-09 2.19780E-11
2.51785E-09 2.15816E-11
2.74156E-09 2.11876E-11
2.97478E-09 2.07763E-11
3.21752E-09 2.03680E-11
3.46978E-09 1.99599E-11
3.73156E-09 1.95406E-11
4.00286E-09 1.91294E-11
4.28368E-09 1.87133E-11
4.57402E-09 1.82964E-11
4.87388E-09 1.78898E-11
5.18326E-09 1.74730E-11
5.50215E-09 1.70651E-11
5.83057E-09 1.66643E-11
6.16850E-09 1.62580E-11
6.51596E-09 1.58644E-11
6.87293E-09 1.54722E-11
7.23942E-09 1.50834E-11
7.61544E-09 1.47079E-11
1.18991E-08 1.12651E-11
1.71347E-08 8.55761E-12
2.33223E-08 6.52407E-12
3.04617E-08 5.02634E-12
3.85531E-08 3.92721E-12
4.75965E-08 3.11551E-12
5.75917E-08 2.49779E-12
6.85389E-08 2.02517E-12
8.04380E-08 1.67988E-12
9.32891E-08 1.39847E-12
1.07092E-07 1.17357E-12
1.21847E-07 1.00101E-12
1.37554E-07 8.49173E-13
1.54213E-07 7.29140E-13
1.71823E-07 6.30926E-13
1.90386E-07 5.45469E-13
2.09900E-07 4.76347E-13
2.30367E-07 4.16918E-13
2.51785E-07 3.66237E-13
2.74156E-07 3.24239E-13
2.97478E-07 2.86882E-13
3.21752E-07 2.55346E-13
3.46978E-07 2.28341E-13
3.73156E-07 2.04368E-13
4.00286E-07 1.83903E-13
4.28368E-07 1.65837E-13
4.57402E-07 1.49913E-13
4.87388E-07 1.36123E-13
5.18325E-07 1.23627E-13
5.50215E-07 1.12665E-13
5.83057E-07 1.02972E-13
6.16850E-07 9.41484E-14
6.51596E-07 8.63684E-14
6.87293E-07 7.93313E-14
7.23942E-07 7.29651E-14
7.61543E-07 6.73013E-14
1.18991E-06 3.20145E-14
1.71347E-06 1.69884E-14
2.33223E-06 9.85675E-15
3.04617E-06 6.12226E-15
3.85531E-06 4.00936E-15
4.75964E-06 2.73829E-15
5.75916E-06 1.93235E-15
6.85388E-06 1.40409E-15
8.04378E-06 1.04501E-15
9.32888E-06 7.93959E-16
1.07092E-05 6.14136E-16
1.21846E-05 4.82440E-16
1.37553E-05 3.84223E-16
1.54212E-05 3.09757E-16
1.71822E-05 2.52459E-16
1.90385E-05 2.07642E-16
2.09899E-05 1.72565E-16
2.30365E-05 1.44543E-16
2.51783E-05 1.21932E-16
2.74153E-05 1.03537E-16
2.97475E-05 8.84648E-17
3.21749E-05 7.60368E-17
3.46974E-05 6.57245E-17
3.73152E-05 5.71122E-17
4.00281E-05 4.98736E-17
4.28362E-05 4.37503E-17
4.57395E-05 3.85389E-17
4.87380E-05 3.40796E-17
5.18317E-05 3.02455E-17
5.50205E-05 2.69349E-17
5.83045E-05 2.40648E-17
6.16838E-05 2.15676E-17
6.51582E-05 1.93867E-17
6.87277E-05 1.74753E-17
7.23925E-05 1.57940E-17
7.61524E-05 1.43102E-17
9.21439E-05 9.86251E-18
1.09658E-04 7.01371E-18
1.28695E-04 5.12178E-18
1.49255E-04 3.82571E-18
1.71338E-04 2.91420E-18
1.94942E-04 2.25824E-18
2.20070E-04 1.77661E-18
2.46720E-04 1.41663E-18
2.74892E-04 1.14328E-18
3.04586E-04 9.32699E-19
3.35803E-04 7.68407E-19
3.68542E-04 6.38706E-19
4.02802E-04 5.35226E-19
4.38585E-04 4.51859E-19
4.75889E-04 3.84089E-19
5.14715E-04 3.28550E-19
5.55063E-04 2.82680E-19
5.96931E-04 2.44536E-19
6.40321E-04 2.12604E-19
6.85233E-04 1.85711E-19
7.31665E-04 1.62932E-19
7.79618E-04 1.43535E-19
8.29092E-04 1.26936E-19
8.80086E-04 1.12664E-19
9.32601E-04 1.00338E-19
9.86636E-04 8.96497E-20
1.04219E-03 8.03437E-20
1.09927E-03 7.22123E-20
1.15786E-03 6.50812E-20
1.21797E-03 5.88072E-20
1.27961E-03 5.32692E-20
1.34276E-03 4.83664E-20
1.40743E-03 4.40133E-20
1.47362E-03 4.01378E-20
1.54133E-03 3.66784E-20
1.61056E-03 3.35827E-20
1.68131E-03 3.08058E-20
1.75357E-03 2.83093E-20
1.82735E-03 2.60596E-20
1.90265E-03 2.40285E-20
1.97947E-03 2.21907E-20
2.05780E-03 2.05247E-20
2.13765E-03 1.90116E-20
2.21902E-03 1.76349E-20
2.30190E-03 1.63802E-20
2.38630E-03 1.52347E-20
2.47222E-03 1.41872E-20
2.55965E-03 1.32279E-20
2.64859E-03 1.23480E-20
2.73905E-03 1.15397E-20
2.83103E-03 1.07963E-20
2.92452E-03 1.01115E-20
3.01952E-03 9.47993E-21
3.11604E-03 8.89671E-21
3.21407E-03 8.35747E-21
3.31362E-03 7.85829E-21
3.41468E-03 7.39565E-21
3.51725E-03 6.96643E-21
3.62133E-03 6.56776E-21
3.72692E-03 6.19706E-21
3.83403E-03 5.85203E-21
3.94265E-03 5.53057E-21
4.05278E-03 5.23078E-21
4.16442E-03 4.95093E-21
4.27757E-03 4.68945E-21
4.39223E-03 4.44492E-21
4.50840E-03 4.21605E-21
4.62608E-03 4.00164E-21
4.74527E-03 3.80062E-21
4.86597E-03 3.61200E-21
4.98817E-03 3.43488E-21
5.11188E-03 3.26843E-21
5.23711E-03 3.11187E-21
5.36383E-03 2.96453E-21
5.49207E-03 2.82576E-21
5.62181E-03 2.69498E-21
5.75306E-03 2.57162E-21
5.88581E-03 2.45521E-21
6.02007E-03 2.34527E-21
6.15583E-03 2.24138E-21
6.29310E-03 2.14314E-21
6.43187E-03 2.05020E-21
6.57214E-03 1.96220E-21
6.71392E-03 1.87886E-21
6.85720E-03 1.79986E-21
7.00198E-03 1.72494E-21
7.14827E-03 1.65386E-21
7.29605E-03 1.58638E-21
7.44534E-03 1.52229E-21
7.59612E-03 1.46137E-21
7.97965E-03 1.32182E-21
8.37255E-03 1.19844E-21
8.77480E-03 1.08903E-21
9.18641E-03 9.91742E-22
9.60736E-03 9.05011E-22
1.00376E-02 8.27493E-22
1.04773E-02 7.58042E-22
1.09262E-02 6.95675E-22
1.13844E-02 6.39546E-22
1.18520E-02 5.88924E-22
1.23288E-02 5.43175E-22
1.28150E-02 5.01749E-22
1.33104E-02 4.64168E-22
1.38150E-02 4.30011E-22
1.43290E-02 3.98913E-22
1.48521E-02 3.70554E-22
1.53845E-02 3.44649E-22
1.59262E-02 3.20949E-22
1.64770E-02 2.99234E-22
1.70371E-02 2.79309E-22
1.76063E-02 2.60999E-22
1.81848E-02 2.44151E-22
1.87724E-02 2.28629E-22
1.93692E-02 2.14309E-22
1.99751E-02 2.01081E-22
2.05901E-02 1.88849E-22
2.12143E-02 1.77524E-22
2.18476E-02 1.67026E-22
2.24900E-02 1.57285E-22
2.31415E-02 1.48236E-22
2.38021E-02 1.39821E-22
2.44717E-02 1.31990E-22
2.51504E-02 1.24692E-22
2.58382E-02 1.17886E-22
2.65349E-02 1.11534E-22
2.72407E-02 1.05598E-22
2.79555E-02 1.00048E-22
2.86793E-02 9.48530E-23
2.94120E-02 8.99868E-23
3.01537E-02 8.54250E-23
3.09043E-02 8.11452E-23
3.16639E-02 7.71267E-23
3.24324E-02 7.33507E-23
3.32098E-02 6.98001E-23
3.39961E-02 6.64589E-23
3.47912E-02 6.33127E-23
3.55952E-02 6.03480E-23
3.64081E-02 5.75525E-23
3.72297E-02 5.49148E-23
3.80602E-02 5.24244E-23
3.88995E-02 5.00716E-23
3.97476E-02 4.78475E-23
4.06044E-02 4.57437E-23
4.14700E-02 4.37527E-23
4.23443E-02 4.18672E-23
4.32273E-02 4.00807E-23
4.41190E-02 3.83871E-23
4.50194E-02 3.67806E-23
4.59284E-02 3.52561E-23
4.68461E-02 3.38085E-23
4.87074E-02 3.11261E-23
5.06030E-02 2.87007E-23
5.25328E-02 2.65033E-23
5.44967E-02 2.45090E-23
5.64946E-02 2.26959E-23
5.85262E-02 2.10448E-23
6.05914E-02 1.95387E-23
6.26901E-02 1.81629E-23
6.48222E-02 1.69044E-23
6.69873E-02 1.57506E-23
6.91854E-02 1.46913E-23
7.14163E-02 1.37179E-23
7.36799E-02 1.28222E-23
7.59760E-02 1.19971E-23
7.83043E-02 1.12360E-23
8.06647E-02 1.05331E-23
8.30571E-02 9.88322E-24
8.54812E-02 9.28164E-24
8.79369E-02 8.72418E-24
9.04240E-02 8.20705E-24
9.29422E-02 7.72684E-24
9.54915E-02 7.28046E-24
9.80716E-02 6.86513E-24
1.00682E-01 6.47831E-24
1.03323E-01 6.11772E-24
1.05995E-01 5.78128E-24
1.08696E-01 5.46709E-24
1.11427E-01 5.17343E-24
1.14188E-01 4.89873E-24
1.16978E-01 4.64156E-24
1.19797E-01 4.40061E-24
1.22645E-01 4.17469E-24
1.25522E-01 3.96269E-24
1.28428E-01 3.76362E-24
1.31361E-01 3.57655E-24
1.34323E-01 3.40063E-24
1.37313E-01 3.23509E-24
1.40330E-01 3.07921E-24
1.43375E-01 2.93233E-24
1.46447E-01 2.79385E-24
1.49545E-01 2.66319E-24
1.52671E-01 2.53986E-24
1.55823E-01 2.42336E-24
1.59001E-01 2.31325E-24
1.62205E-01 2.20912E-24
1.65435E-01 2.11060E-24
1.68690E-01 2.01733E-24
1.71970E-01 1.92898E-24
1.75276E-01 1.84525E-24
1.78606E-01 1.76585E-24
1.81961E-01 1.69054E-24
1.85340E-01 1.61905E-24
1.88743E-01 1.55116E-24
1.92169E-01 1.48667E-24
1.95619E-01 1.42537E-24
1.99092E-01 1.36708E-24
2.02589E-01 1.31162E-24
2.06107E-01 1.25884E-24
2.09649E-01 1.20858E-24
2.13212E-01 1.16071E-24
2.16797E-01 1.11508E-24
2.20404E-01 1.07159E-24
2.24032E-01 1.03010E-24
2.27680E-01 9.90523E-25
2.31350E-01 9.52745E-25
2.35040E-01 9.16672E-25
2.38751E-01 8.82216E-25
2.42481E-01 8.49291E-25
2.46231E-01 8.17818E-25
2.50000E-01 7.87723E-25
2.53788E-01 7.58935E-25
2.57595E-01 7.31388E-25
2.61421E-01 7.05020E-25
2.65264E-01 6.79772E-25
2.69126E-01 6.55588E-25
2.73005E-01 6.32417E-25
2.76901E-01 6.10208E-25
2.80814E-01 5.88916E-25
2.84744E-01 5.68496E-25
2.88691E-01 5.48907E-25
2.92653E-01 5.30109E-25
2.96632E-01 5.12066E-25
3.00625E-01 4.94741E-25
3.04634E-01 4.78102E-25
3.08658E-01 4.62117E-25
3.12697E-01 4.46756E-25
3.16749E-01 4.31991E-25
3.20816E-01 4.17795E-25
3.24896E-01 4.04143E-25
3.28990E-01 3.91010E-25
3.33097E-01 3.78373E-25
3.37216E-01 3.66211E-25
3.41348E-01 3.54502E-25
3.45492E-01 3.43228E-25
3.49647E-01 3.32369E-25
3.53814E-01 3.21909E-25
3.57992E-01 3.11828E-25
3.62181E-01 3.02113E-25
3.66381E-01 2.92747E-25
3.70590E-01 2.83716E-25
3.74810E-01 2.75006E-25
3.79039E-01 2.66604E-25
3.83277E-01 2.58497E-25
3.87524E-01 2.50673E-25
3.91780E-01 2.43120E-25
3.96044E-01 2.35829E-25
4.00316E-01 2.28787E-25
4.04596E-01 2.21986E-25
4.08882E-01 2.15416E-25
4.13176E-01 2.09068E-25
4.17476E-01 2.02933E-25
4.21783E-01 1.97003E-25
4.26095E-01 1.91270E-25
4.30413E-01 1.85726E-25
4.34737E-01 1.80364E-25
4.39065E-01 1.75178E-25
4.43398E-01 1.70160E-25
4.47736E-01 1.65305E-25
4.52077E-01 1.60606E-25
4.56422E-01 1.56057E-25
4.60770E-01 1.51653E-25
4.65122E-01 1.47389E-25
4.69476E-01 1.43259E-25
4.73832E-01 1.39259E-25
4.78190E-01 1.35383E-25
4.82550E-01 1.31628E-25
4.86912E-01 1.27989E-25
4.91274E-01 1.24462E-25
4.95637E-01 1.21044E-25
5.00000E-01 1.17729E-25
5.04363E-01 1.14515E-25
5.08726E-01 1.11397E-25
5.13088E-01 1.08374E-25
5.17450E-01 1.05441E-25
5.21810E-01 1.02595E-25
5.26168E-01 9.98334E-26
5.30524E-01 9.71535E-26
5.34878E-01 9.45522E-26
5.39230E-01 9.20270E-26
5.43578E-01 8.95753E-26
5.47923E-01 8.71946E-26
5.52264E-01 8.48827E-26
5.56602E-01 8.26371E-26
5.60935E-01 8.04558E-26
5.65263E-01 7.83367E-26
5.69587E-01 7.62776E-26
5.73905E-01 7.42768E-26
5.78217E-01 7.23322E-26
5.82524E-01 7.04421E-26
5.86824E-01 6.86047E-26
5.91118E-01 6.68184E-26
5.95404E-01 6.50815E-26
5.99684E-01 6.33925E-26
6.03956E-01 6.17499E-26
6.08220E-01 6.01522E-26
6.12476E-01 5.85981E-26
6.16723E-01 5.70861E-26
6.20961E-01 5.56150E-26
6.25190E-01 5.41835E-26
6.29410E-01 5.27904E-26
6.33619E-01 5.14346E-26
6.37819E-01 5.01148E-26
6.42008E-01 4.88301E-26
6.46186E-01 4.75794E-26
6.50353E-01 4.63616E-26
6.54508E-01 4.51758E-26
6.58652E-01 4.40210E-26
6.62784E-01 4.28963E-26
6.66903E-01 4.18009E-26
6.71010E-01 4.07338E-26
6.75104E-01 3.96942E-26
6.79184E-01 3.86814E-26
6.83251E-01 3.76945E-26
6.87303E-01 3.67329E-26
6.91342E-01 3.57957E-26
6.95366E-01 3.48824E-26
6.99375E-01 3.39921E-26
7.03368E-01 3.31243E-26
7.07347E-01 3.22784E-26
7.11309E-01 3.14536E-26
7.15256E-01 3.06495E-26
7.19186E-01 2.98655E-26
7.23099E-01 2.91009E-26
7.26995E-01 2.83552E-26
7.30874E-01 2.76280E-26
7.34736E-01 2.69188E-26
7.38579E-01 2.62269E-26
7.42405E-01 2.55520E-26
7.46212E-01 2.48936E-26
7.50000E-01 2.42513E-26
7.53769E-01 2.36246E-26
7.57519E-01 2.30131E-26
7.61249E-01 2.24164E-26
7.64960E-01 2.18342E-26
7.68650E-01 2.12659E-26
7.72320E-01 2.07113E-26
7.75968E-01 2.01700E-26
7.79596E-01 1.96417E-26
7.83203E-01 1.91260E-26
7.86788E-01 1.86226E-26
7.90351E-01 1.81311E-26
7.93893E-01 1.76514E-26
7.97411E-01 1.71830E-26
8.00908E-01 1.67257E-26
8.04381E-01 1.62791E-26
8.07831E-01 1.58431E-26
8.11257E-01 1.54174E-26
8.14660E-01 1.50017E-26
8.18039E-01 1.45957E-26
8.21394E-01 1.41993E-26
8.24724E-01 1.38121E-26
8.28030E-01 1.34340E-26
8.31310E-01 1.30647E-26
8.34565E-01 1.27040E-26
8.37795E-01 1.23518E-26
8.40999E-01 1.20077E-26
8.44177E-01 1.16717E-26
8.47329E-01 1.13435E-26
8.50455E-01 1.10229E-26
8.53553E-01 1.07097E-26
8.56625E-01 1.04039E-26
8.59670E-01 1.01051E-26
8.62687E-01 9.81328E-27
8.65677E-01 9.52824E-27
8.68639E-01 9.24981E-27
8.71572E-01 8.97786E-27
8.74478E-01 8.71222E-27
8.77355E-01 8.45277E-27
8.80203E-01 8.19935E-27
8.83022E-01 7.95184E-27
8.85812E-01 7.71010E-27
8.88573E-01 7.47400E-27
8.91304E-01 7.24343E-27
8.94005E-01 7.01825E-27
8.96677E-01 6.79835E-27
8.99318E-01 6.58361E-27
9.01928E-01 6.37394E-27
9.04508E-01 6.16920E-27
9.07058E-01 5.96931E-27
9.09576E-01 5.77416E-27
9.12063E-01 5.58365E-27
9.14519E-01 5.39768E-27
9.16943E-01 5.21617E-27
9.19335E-01 5.03901E-27
9.21696E-01 4.86612E-27
9.24024E-01 4.69742E-27
9.26320E-01 4.53281E-27
9.28584E-01 4.37223E-27
9.30815E-01 4.21559E-27
9.33013E-01 4.06280E-27
9.35178E-01 3.91381E-27
9.37310E-01 3.76854E-27
9.39409E-01 3.62691E-27
9.41474E-01 3.48886E-27
9.43505E-01 3.35431E-27
9.45503E-01 3.22322E-27
9.47467E-01 3.09551E-27
9.49397E-01 2.97112E-27
9.51293E-01 2.85000E-27
9.53154E-01 2.73208E-27
9.54981E-01 2.61731E-27
9.56773E-01 2.50565E-27
9.58530E-01 2.39702E-27
9.60252E-01 2.29139E-27
9.61940E-01 2.18871E-27
9.63592E-01 2.08892E-27
9.65209E-01 1.99198E-27
9.66790E-01 1.89785E-27
9.68336E-01 1.80649E-27
9.69846E-01 1.71784E-27
9.71321E-01 1.63188E-27
9.72759E-01 1.54856E-27
9.74162E-01 1.46784E-27
9.75528E-01 1.38968E-27
9.76858E-01 1.31406E-27
9.78152E-01 1.24094E-27
9.79410E-01 1.17028E-27
9.80631E-01 1.10205E-27
9.81815E-01 1.03622E-27
9.82963E-01 9.72769E-28
9.84074E-01 9.11659E-28
9.85148E-01 8.52865E-28
9.86185E-01 7.96363E-28
9.87185E-01 7.42125E-28
9.88148E-01 6.90129E-28
9.89074E-01 6.40351E-28
9.89962E-01 5.92769E-28
9.90814E-01 5.47362E-28
9.91627E-01 5.04111E-28
9.92404E-01 4.62995E-28
9.93143E-01 4.23998E-28
9.93844E-01 3.87102E-28
9.94508E-01 3.52290E-28
9.95134E-01 3.19548E-28
9.95722E-01 2.88861E-28
9.96273E-01 2.60216E-28
9.96786E-01 2.33601E-28
9.97261E-01 2.09003E-28
9.97698E-01 1.86412E-28
9.98097E-01 1.65818E-28
9.98459E-01 1.47212E-28
9.98782E-01 1.30587E-28
9.99067E-01 1.15934E-28
9.99315E-01 1.03248E-28
9.99524E-01 9.25227E-29
9.99695E-01 8.37539E-29
9.99829E-01 7.69377E-29
9.99924E-01 7.20711E-29
9.99981E-01 6.91520E-29
1.00000E+00 6.81790E-29
