 #
 # Subroutine ELSEPA. Elastic scattering of electrons and positrons
 #                    by neutral atoms and positive ions
 #
 # Projectile: positron
 # Kinetic energy = 2.50000E+08 eV = 9.18733E+06 a.u.
 #
 # WARNING: High-energy factorization with free-atom DF screening.
 #          Absorption, polarization and exchange corrections are
 #          switched off.
 #          Phase shifts are calculated for the bare nucleus.
 #          Scattering amplitudes are not evaluated.
 #
 # Element: Rn,  Z =  86,  atomic weight = 2.22018E+02 g/mol
 #
 # Nuclear model: Fermi distribution
 #                Average radius = 6.47907E-13 cm
 #                Skin thickness = 5.46000E-14 cm
 #
 # Number of electrons = 86
 #
 # Total elastic cross section = 9.58469E-18 cm**2 = 3.42275E-01 a0**2
 # 1st transport cross section = 2.17007E-25 cm**2 = 7.74946E-09 a0**2
 # 2nd transport cross section = 6.49974E-25 cm**2 = 2.32110E-08 a0**2
 #
 #
 # Differential cross section:                       MU=(1-COS(THETA))/2
 #
 #  THETA        MU          DCS          DCS        Sherman      error
 #  (deg)                 (cm**2/sr)   (a0**2/sr)    function
 #----------------------------------------------------------------------
0.00000E+00 4.03355E-09
7.61557E-13 3.99021E-09
1.18994E-12 3.96619E-09
1.71346E-12 3.93714E-09
2.33225E-12 3.90323E-09
3.04617E-12 3.86466E-09
3.85530E-12 3.82148E-09
4.75964E-12 3.77396E-09
5.75917E-12 3.72330E-09
6.85391E-12 3.66789E-09
8.04379E-12 3.61027E-09
9.32893E-12 3.54843E-09
1.07092E-11 3.48483E-09
1.21847E-11 3.41802E-09
1.37554E-11 3.34955E-09
1.54213E-11 3.27910E-09
1.71823E-11 3.20690E-09
1.90386E-11 3.13409E-09
2.09900E-11 3.05925E-09
2.30367E-11 2.98525E-09
2.51785E-11 2.90883E-09
2.74156E-11 2.83422E-09
2.97478E-11 2.75763E-09
3.21752E-11 2.68288E-09
3.46979E-11 2.60741E-09
3.73157E-11 2.53329E-09
4.00286E-11 2.45965E-09
4.28368E-11 2.38686E-09
4.57402E-11 2.31561E-09
4.87388E-11 2.24471E-09
5.18325E-11 2.17626E-09
5.50215E-11 2.10772E-09
5.83057E-11 2.04220E-09
6.16850E-11 1.97654E-09
6.51595E-11 1.91374E-09
6.87293E-11 1.85161E-09
7.23943E-11 1.79175E-09
7.61544E-11 1.73322E-09
1.18991E-10 1.23931E-09
1.71347E-10 8.91607E-10
2.33223E-10 6.53217E-10
3.04617E-10 4.89162E-10
3.85531E-10 3.73033E-10
4.75965E-10 2.89596E-10
5.75917E-10 2.32038E-10
6.85389E-10 1.85481E-10
8.04380E-10 1.52059E-10
9.32891E-10 1.24637E-10
1.07092E-09 1.03803E-10
1.21847E-09 8.68207E-11
1.37554E-09 7.32759E-11
1.54213E-09 6.22888E-11
1.71823E-09 5.32208E-11
1.90386E-09 4.58597E-11
2.09900E-09 3.96339E-11
2.30367E-09 3.45548E-11
2.51785E-09 3.01736E-11
2.74156E-09 2.65600E-11
2.97478E-09 2.34167E-11
3.21752E-09 2.07745E-11
3.46978E-09 1.84751E-11
3.73156E-09 1.65015E-11
4.00286E-09 1.47824E-11
4.28368E-09 1.32797E-11
4.57402E-09 1.19698E-11
4.87388E-09 1.08065E-11
5.18326E-09 9.79229E-12
5.50215E-09 8.87925E-12
5.83057E-09 8.08160E-12
6.16850E-09 7.35808E-12
6.51596E-09 6.72071E-12
6.87293E-09 6.14453E-12
7.23942E-09 5.63075E-12
7.61544E-09 5.16749E-12
1.18991E-08 2.38166E-12
1.71347E-08 1.24949E-12
2.33223E-08 7.19797E-13
3.04617E-08 4.44590E-13
3.85531E-08 2.89215E-13
4.75965E-08 1.96405E-13
5.75917E-08 1.38108E-13
6.85389E-08 9.99772E-14
8.04380E-08 7.41685E-14
9.32891E-08 5.61808E-14
1.07092E-07 4.33144E-14
1.21847E-07 3.39230E-14
1.37554E-07 2.69400E-14
1.54213E-07 2.16618E-14
1.71823E-07 1.76133E-14
1.90386E-07 1.44672E-14
2.09900E-07 1.19931E-14
2.30367E-07 1.00255E-14
2.51785E-07 8.44572E-15
2.74156E-07 7.16573E-15
2.97478E-07 6.11972E-15
3.21752E-07 5.25816E-15
3.46978E-07 4.54327E-15
3.73156E-07 3.94606E-15
4.00286E-07 3.44384E-15
4.28368E-07 3.01910E-15
4.57402E-07 2.65792E-15
4.87388E-07 2.34919E-15
5.18325E-07 2.08402E-15
5.50215E-07 1.85522E-15
5.83057E-07 1.65696E-15
6.16850E-07 1.48444E-15
6.51596E-07 1.33378E-15
6.87293E-07 1.20173E-15
7.23942E-07 1.08561E-15
7.61543E-07 9.83157E-16
1.18991E-06 4.09147E-16
1.71347E-06 1.99243E-16
2.33223E-06 1.08274E-16
3.04617E-06 6.37912E-17
3.85531E-06 3.99841E-17
4.75964E-06 2.63185E-17
5.75916E-06 1.80236E-17
6.85388E-06 1.27538E-17
8.04378E-06 9.27636E-18
9.32888E-06 6.90713E-18
1.07092E-05 5.24802E-18
1.21846E-05 4.05830E-18
1.37553E-05 3.18726E-18
1.54212E-05 2.53776E-18
1.71822E-05 2.04552E-18
1.90385E-05 1.66584E-18
2.09899E-05 1.37219E-18
2.30365E-05 1.14022E-18
2.51783E-05 9.54906E-19
2.74153E-05 8.05488E-19
2.97475E-05 6.84052E-19
3.21749E-05 5.84643E-19
3.46974E-05 5.02696E-19
3.73152E-05 4.34675E-19
4.00281E-05 3.77821E-19
4.28362E-05 3.29980E-19
4.57395E-05 2.89470E-19
4.87380E-05 2.54971E-19
5.18317E-05 2.25441E-19
5.50205E-05 2.00051E-19
5.83045E-05 1.78130E-19
6.16838E-05 1.59130E-19
6.51582E-05 1.42600E-19
6.87277E-05 1.28165E-19
7.23925E-05 1.15512E-19
7.61524E-05 1.04662E-19
9.21439E-05 7.15132E-20
1.09658E-04 5.05088E-20
1.28695E-04 3.66835E-20
1.49255E-04 2.72814E-20
1.71338E-04 2.07086E-20
1.94942E-04 1.60019E-20
2.20070E-04 1.25598E-20
2.46720E-04 9.99559E-21
2.74892E-04 8.05379E-21
3.04586E-04 6.56137E-21
3.35803E-04 5.39923E-21
3.68542E-04 4.48330E-21
4.02802E-04 3.75361E-21
4.38585E-04 3.16669E-21
4.75889E-04 2.68964E-21
5.14715E-04 2.29902E-21
5.55063E-04 1.97667E-21
5.96931E-04 1.70878E-21
6.40321E-04 1.48466E-21
6.85233E-04 1.29600E-21
7.31665E-04 1.13629E-21
7.79618E-04 1.00033E-21
8.29092E-04 8.84030E-22
8.80086E-04 7.84062E-22
9.32601E-04 6.97755E-22
9.86636E-04 6.22929E-22
1.04219E-03 5.57799E-22
1.09927E-03 5.00900E-22
1.15786E-03 4.51012E-22
1.21797E-03 4.07127E-22
1.27961E-03 3.68399E-22
1.34276E-03 3.34118E-22
1.40743E-03 3.03689E-22
1.47362E-03 2.76602E-22
1.54133E-03 2.52429E-22
1.61056E-03 2.30802E-22
1.68131E-03 2.11407E-22
1.75357E-03 1.93974E-22
1.82735E-03 1.78271E-22
1.90265E-03 1.64096E-22
1.97947E-03 1.51276E-22
2.05780E-03 1.39658E-22
2.13765E-03 1.29111E-22
2.21902E-03 1.19518E-22
2.30190E-03 1.10779E-22
2.38630E-03 1.02805E-22
2.47222E-03 9.55173E-23
2.55965E-03 8.88466E-23
2.64859E-03 8.27318E-23
2.73905E-03 7.71189E-23
2.83103E-03 7.19594E-23
2.92452E-03 6.72108E-23
3.01952E-03 6.28346E-23
3.11604E-03 5.87967E-23
3.21407E-03 5.50667E-23
3.31362E-03 5.16170E-23
3.41468E-03 4.84230E-23
3.51725E-03 4.54627E-23
3.62133E-03 4.27161E-23
3.72692E-03 4.01652E-23
3.83403E-03 3.77938E-23
3.94265E-03 3.55871E-23
4.05278E-03 3.35318E-23
4.16442E-03 3.16159E-23
4.27757E-03 2.98283E-23
4.39223E-03 2.81590E-23
4.50840E-03 2.65990E-23
4.62608E-03 2.51400E-23
4.74527E-03 2.37743E-23
4.86597E-03 2.24950E-23
4.98817E-03 2.12958E-23
5.11188E-03 2.01709E-23
5.23711E-03 1.91149E-23
5.36383E-03 1.81231E-23
5.49207E-03 1.71907E-23
5.62181E-03 1.63139E-23
5.75306E-03 1.54886E-23
5.88581E-03 1.47115E-23
6.02007E-03 1.39793E-23
6.15583E-03 1.32890E-23
6.29310E-03 1.26378E-23
6.43187E-03 1.20232E-23
6.57214E-03 1.14428E-23
6.71392E-03 1.08945E-23
6.85720E-03 1.03761E-23
7.00198E-03 9.88591E-24
7.14827E-03 9.42208E-24
7.29605E-03 8.98300E-24
7.44534E-03 8.56715E-24
7.59612E-03 8.17314E-24
7.97965E-03 7.27527E-24
8.37255E-03 6.48776E-24
8.77480E-03 5.79535E-24
9.18641E-03 5.18512E-24
9.60736E-03 4.64614E-24
1.00376E-02 4.16910E-24
1.04773E-02 3.74603E-24
1.09262E-02 3.37014E-24
1.13844E-02 3.03557E-24
1.18520E-02 2.73727E-24
1.23288E-02 2.47089E-24
1.28150E-02 2.23266E-24
1.33104E-02 2.01930E-24
1.38150E-02 1.82794E-24
1.43290E-02 1.65611E-24
1.48521E-02 1.50161E-24
1.53845E-02 1.36254E-24
1.59262E-02 1.23721E-24
1.64770E-02 1.12416E-24
1.70371E-02 1.02207E-24
1.76063E-02 9.29803E-25
1.81848E-02 8.46331E-25
1.87724E-02 7.70753E-25
1.93692E-02 7.02268E-25
1.99751E-02 6.40162E-25
2.05901E-02 5.83801E-25
2.12143E-02 5.32617E-25
2.18476E-02 4.86105E-25
2.24900E-02 4.43813E-25
2.31415E-02 4.05335E-25
2.38021E-02 3.70307E-25
2.44717E-02 3.38405E-25
2.51504E-02 3.09334E-25
2.58382E-02 2.82832E-25
2.65349E-02 2.58661E-25
2.72407E-02 2.36607E-25
2.79555E-02 2.16477E-25
2.86793E-02 1.98096E-25
2.94120E-02 1.81308E-25
3.01537E-02 1.65968E-25
3.09043E-02 1.51949E-25
3.16639E-02 1.39132E-25
3.24324E-02 1.27413E-25
3.32098E-02 1.16694E-25
3.39961E-02 1.06888E-25
3.47912E-02 9.79161E-26
3.55952E-02 8.97054E-26
3.64081E-02 8.21902E-26
3.72297E-02 7.53106E-26
3.80602E-02 6.90121E-26
3.88995E-02 6.32449E-26
3.97476E-02 5.79638E-26
4.06044E-02 5.31274E-26
4.14700E-02 4.86978E-26
4.23443E-02 4.46406E-26
4.32273E-02 4.09243E-26
4.41190E-02 3.75202E-26
4.50194E-02 3.44020E-26
4.59284E-02 3.15455E-26
4.68461E-02 2.89287E-26
4.87074E-02 2.43357E-26
5.06030E-02 2.04815E-26
5.25328E-02 1.72474E-26
5.44967E-02 1.45339E-26
5.64946E-02 1.22574E-26
5.85262E-02 1.03477E-26
6.05914E-02 8.74589E-27
6.26901E-02 7.40227E-27
6.48222E-02 6.27520E-27
6.69873E-02 5.32965E-27
6.91854E-02 4.53616E-27
7.14163E-02 3.87001E-27
7.36799E-02 3.31043E-27
7.59760E-02 2.83998E-27
7.83043E-02 2.44404E-27
8.06647E-02 2.11036E-27
8.30571E-02 1.82868E-27
8.54812E-02 1.59040E-27
8.79369E-02 1.38837E-27
9.04240E-02 1.21659E-27
9.29422E-02 1.07006E-27
9.54915E-02 9.44631E-28
9.80716E-02 8.36837E-28
1.00682E-01 7.43805E-28
1.03323E-01 6.63149E-28
1.05995E-01 5.92891E-28
1.08696E-01 5.31393E-28
1.11427E-01 4.77300E-28
1.14188E-01 4.29491E-28
1.16978E-01 3.87038E-28
1.19797E-01 3.49175E-28
1.22645E-01 3.15266E-28
1.25522E-01 2.84786E-28
1.28428E-01 2.57299E-28
1.31361E-01 2.32440E-28
1.34323E-01 2.09905E-28
1.37313E-01 1.89440E-28
1.40330E-01 1.70827E-28
1.43375E-01 1.53883E-28
1.46447E-01 1.38450E-28
1.49545E-01 1.24392E-28
1.52671E-01 1.11589E-28
1.55823E-01 9.99366E-29
1.59001E-01 8.93396E-29
1.62205E-01 7.97139E-29
1.65435E-01 7.09828E-29
1.68690E-01 6.30760E-29
1.71970E-01 5.59288E-29
1.75276E-01 4.94813E-29
1.78606E-01 4.36779E-29
1.81961E-01 3.84663E-29
1.85340E-01 3.37980E-29
1.88743E-01 2.96274E-29
1.92169E-01 2.59117E-29
1.95619E-01 2.26110E-29
1.99092E-01 1.96877E-29
2.02589E-01 1.71069E-29
2.06107E-01 1.48360E-29
2.09649E-01 1.28444E-29
2.13212E-01 1.11040E-29
2.16797E-01 9.58870E-30
2.20404E-01 8.27433E-30
2.24032E-01 7.13872E-30
2.27680E-01 6.16149E-30
2.31350E-01 5.32403E-30
2.35040E-01 4.60942E-30
2.38751E-01 4.00226E-30
2.42481E-01 3.48866E-30
2.46231E-01 3.05612E-30
2.50000E-01 2.69343E-30
2.53788E-01 2.39057E-30
2.57595E-01 2.13868E-30
2.61421E-01 1.92988E-30
2.65264E-01 1.75727E-30
2.69126E-01 1.61481E-30
2.73005E-01 1.49723E-30
2.76901E-01 1.39998E-30
2.80814E-01 1.31918E-30
2.84744E-01 1.25148E-30
2.88691E-01 1.19407E-30
2.92653E-01 1.14460E-30
2.96632E-01 1.10110E-30
3.00625E-01 1.06199E-30
3.04634E-01 1.02596E-30
3.08658E-01 9.91992E-31
3.12697E-01 9.59277E-31
3.16749E-01 9.27217E-31
3.20816E-01 8.95370E-31
3.24896E-01 8.63434E-31
3.28990E-01 8.31222E-31
3.33097E-01 7.98635E-31
3.37216E-01 7.65650E-31
3.41348E-01 7.32302E-31
3.45492E-01 6.98666E-31
3.49647E-01 6.64852E-31
3.53814E-01 6.30990E-31
3.57992E-01 5.97222E-31
3.62181E-01 5.63696E-31
3.66381E-01 5.30562E-31
3.70590E-01 4.97965E-31
3.74810E-01 4.66040E-31
3.79039E-01 4.34915E-31
3.83277E-01 4.04703E-31
3.87524E-01 3.75505E-31
3.91780E-01 3.47406E-31
3.96044E-01 3.20478E-31
4.00316E-01 2.94778E-31
4.04596E-01 2.70348E-31
4.08882E-01 2.47217E-31
4.13176E-01 2.25402E-31
4.17476E-01 2.04908E-31
4.21783E-01 1.85727E-31
4.26095E-01 1.67845E-31
4.30413E-01 1.51237E-31
4.34737E-01 1.35870E-31
4.39065E-01 1.21707E-31
4.43398E-01 1.08704E-31
4.47736E-01 9.68118E-32
4.52077E-01 8.59794E-32
4.56422E-01 7.61523E-32
4.60770E-01 6.72746E-32
4.65122E-01 5.92891E-32
4.69476E-01 5.21382E-32
4.73832E-01 4.57644E-32
4.78190E-01 4.01111E-32
4.82550E-01 3.51227E-32
4.86912E-01 3.07449E-32
4.91274E-01 2.69255E-32
4.95637E-01 2.36143E-32
5.00000E-01 2.07631E-32
5.04363E-01 1.83264E-32
5.08726E-01 1.62612E-32
5.13088E-01 1.45270E-32
5.17450E-01 1.30860E-32
5.21810E-01 1.19031E-32
5.26168E-01 1.09457E-32
5.30524E-01 1.01839E-32
5.34878E-01 9.59027E-33
5.39230E-01 9.13972E-33
5.43578E-01 8.80963E-33
5.47923E-01 8.57956E-33
5.52264E-01 8.43118E-33
5.56602E-01 8.34817E-33
5.60935E-01 8.31611E-33
5.65263E-01 8.32230E-33
5.69587E-01 8.35567E-33
5.73905E-01 8.40669E-33
5.78217E-01 8.46717E-33
5.82524E-01 8.53020E-33
5.86824E-01 8.59005E-33
5.91118E-01 8.64197E-33
5.95404E-01 8.68220E-33
5.99684E-01 8.70778E-33
6.03956E-01 8.71650E-33
6.08220E-01 8.70681E-33
6.12476E-01 8.67773E-33
6.16723E-01 8.62875E-33
6.20961E-01 8.55983E-33
6.25190E-01 8.47124E-33
6.29410E-01 8.36358E-33
6.33619E-01 8.23769E-33
6.37819E-01 8.09461E-33
6.42008E-01 7.93553E-33
6.46186E-01 7.76177E-33
6.50353E-01 7.57470E-33
6.54508E-01 7.37579E-33
6.58652E-01 7.16650E-33
6.62784E-01 6.94831E-33
6.66903E-01 6.72266E-33
6.71010E-01 6.49100E-33
6.75104E-01 6.25470E-33
6.79184E-01 6.01508E-33
6.83251E-01 5.77340E-33
6.87303E-01 5.53085E-33
6.91342E-01 5.28853E-33
6.95366E-01 5.04747E-33
6.99375E-01 4.80861E-33
7.03368E-01 4.57281E-33
7.07347E-01 4.34084E-33
7.11309E-01 4.11341E-33
7.15256E-01 3.89111E-33
7.19186E-01 3.67449E-33
7.23099E-01 3.46399E-33
7.26995E-01 3.26001E-33
7.30874E-01 3.06287E-33
7.34736E-01 2.87281E-33
7.38579E-01 2.69004E-33
7.42405E-01 2.51469E-33
7.46212E-01 2.34685E-33
7.50000E-01 2.18655E-33
7.53769E-01 2.03381E-33
7.57519E-01 1.88856E-33
7.61249E-01 1.75074E-33
7.64960E-01 1.62023E-33
7.68650E-01 1.49691E-33
7.72320E-01 1.38061E-33
7.75968E-01 1.27115E-33
7.79596E-01 1.16833E-33
7.83203E-01 1.07195E-33
7.86788E-01 9.81780E-34
7.90351E-01 8.97583E-34
7.93893E-01 8.19121E-34
7.97411E-01 7.46150E-34
8.00908E-01 6.78421E-34
8.04381E-01 6.15687E-34
8.07831E-01 5.57698E-34
8.11257E-01 5.04206E-34
8.14660E-01 4.54969E-34
8.18039E-01 4.09745E-34
8.21394E-01 3.68300E-34
8.24724E-01 3.30405E-34
8.28030E-01 2.95838E-34
8.31310E-01 2.64383E-34
8.34565E-01 2.35831E-34
8.37795E-01 2.09983E-34
8.40999E-01 1.86646E-34
8.44177E-01 1.65637E-34
8.47329E-01 1.46780E-34
8.50455E-01 1.29910E-34
8.53553E-01 1.14867E-34
8.56625E-01 1.01502E-34
8.59670E-01 8.96729E-35
8.62687E-01 7.92473E-35
8.65677E-01 7.00994E-35
8.68639E-01 6.21119E-35
8.71572E-01 5.51749E-35
8.74478E-01 4.91861E-35
8.77355E-01 4.40502E-35
8.80203E-01 3.96782E-35
8.83022E-01 3.59882E-35
8.85812E-01 3.29044E-35
8.88573E-01 3.03566E-35
8.91304E-01 2.82807E-35
8.94005E-01 2.66176E-35
8.96677E-01 2.53133E-35
8.99318E-01 2.43188E-35
9.01928E-01 2.35892E-35
9.04508E-01 2.30839E-35
9.07058E-01 2.27664E-35
9.09576E-01 2.26036E-35
9.12063E-01 2.25661E-35
9.14519E-01 2.26279E-35
9.16943E-01 2.27648E-35
9.19335E-01 2.29566E-35
9.21696E-01 2.31844E-35
9.24024E-01 2.34338E-35
9.26320E-01 2.36895E-35
9.28584E-01 2.39402E-35
9.30815E-01 2.41759E-35
9.33013E-01 2.43872E-35
9.35178E-01 2.45686E-35
9.37310E-01 2.47134E-35
9.39409E-01 2.48177E-35
9.41474E-01 2.48772E-35
9.43505E-01 2.48898E-35
9.45503E-01 2.48540E-35
9.47467E-01 2.47683E-35
9.49397E-01 2.46330E-35
9.51293E-01 2.44483E-35
9.53154E-01 2.42149E-35
9.54981E-01 2.39337E-35
9.56773E-01 2.36073E-35
9.58530E-01 2.32364E-35
9.60252E-01 2.28242E-35
9.61940E-01 2.23724E-35
9.63592E-01 2.18836E-35
9.65209E-01 2.13608E-35
9.66790E-01 2.08062E-35
9.68336E-01 2.02238E-35
9.69846E-01 1.96153E-35
9.71321E-01 1.89840E-35
9.72759E-01 1.83324E-35
9.74162E-01 1.76644E-35
9.75528E-01 1.69821E-35
9.76858E-01 1.62882E-35
9.78152E-01 1.55857E-35
9.79410E-01 1.48769E-35
9.80631E-01 1.41650E-35
9.81815E-01 1.34521E-35
9.82963E-01 1.27404E-35
9.84074E-01 1.20326E-35
9.85148E-01 1.13304E-35
9.86185E-01 1.06363E-35
9.87185E-01 9.95187E-36
9.88148E-01 9.27950E-36
9.89074E-01 8.62064E-36
9.89962E-01 7.97706E-36
9.90814E-01 7.35031E-36
9.91627E-01 6.74217E-36
9.92404E-01 6.15422E-36
9.93143E-01 5.58668E-36
9.93844E-01 5.04175E-36
9.94508E-01 4.52049E-36
9.95134E-01 4.02346E-36
9.95722E-01 3.55226E-36
9.96273E-01 3.10745E-36
9.96786E-01 2.68995E-36
9.97261E-01 2.30043E-36
9.97698E-01 1.93954E-36
9.98097E-01 1.60834E-36
9.98459E-01 1.30684E-36
9.98782E-01 1.03583E-36
9.99067E-01 7.95469E-37
9.99315E-01 5.86778E-37
9.99524E-01 4.09314E-37
9.99695E-01 2.63891E-37
9.99829E-01 1.50494E-37
9.99924E-01 6.93949E-38
9.99981E-01 2.07397E-38
1.00000E+00 4.48059E-39
