 #  Total cross section table (last run of 'elscata').
 #
 #  Z =  86,   projectile: positron
 #
 #   Energy         ECS         TCS1         TCS2         ABSCS      error
 #    (eV)        (cm**2)      (cm**2)      (cm**2)      (cm**2)
 #--------------------------------------------------------------------------
   1.00000E+02  3.72050E-16  6.58530E-17  1.03238E-16  6.20930E-16  1.2E-05
   1.25000E+02  3.62300E-16  5.99877E-17  9.71863E-17  5.45739E-16  1.3E-05
   1.50000E+02  3.54690E-16  5.60033E-17  9.25683E-17  4.87837E-16  3.8E-06
   1.75000E+02  3.48241E-16  5.27050E-17  8.84532E-17  4.41705E-16  1.2E-05
   2.00000E+02  3.42614E-16  4.98721E-17  8.47141E-17  4.04048E-16  1.6E-05
   2.50000E+02  3.32813E-16  4.51750E-17  7.81075E-17  3.46130E-16  6.2E-06
   3.00000E+02  3.24178E-16  4.13801E-17  7.24476E-17  3.03562E-16  9.2E-06
   3.50000E+02  3.16269E-16  3.82172E-17  6.75549E-17  2.70862E-16  4.2E-06
   4.00000E+02  3.08900E-16  3.55178E-17  6.32821E-17  2.44910E-16  1.2E-05
   4.50000E+02  3.02007E-16  3.31878E-17  5.95341E-17  2.23765E-16  1.7E-05
   5.00000E+02  2.95522E-16  3.11449E-17  5.62110E-17  2.06192E-16  1.3E-05
   6.00000E+02  2.83733E-16  2.77495E-17  5.06243E-17  1.78542E-16  2.4E-05
   7.00000E+02  2.73244E-16  2.50253E-17  4.60855E-17  1.57739E-16  1.1E-05
   8.00000E+02  2.63880E-16  2.27982E-17  4.23343E-17  1.41451E-16  1.8E-05
   9.00000E+02  2.55470E-16  2.09463E-17  3.91824E-17  1.28313E-16  1.7E-03
   1.00000E+03  2.47861E-16  1.93827E-17  3.64937E-17  1.17470E-16  2.4E-03
   1.25000E+03  2.31614E-16  1.63705E-17  3.12261E-17  9.70929E-17  1.7E-03
   1.50000E+03  2.18287E-16  1.41989E-17  2.73413E-17  8.28147E-17  2.2E-03
   1.75000E+03  2.07020E-16  1.25458E-17  2.43307E-17  7.22483E-17  1.4E-03
   2.00000E+03  1.97292E-16  1.12385E-17  2.19174E-17  6.41130E-17  1.1E-03
   2.50000E+03  1.81182E-16  9.29229E-18  1.82779E-17  5.24073E-17  9.8E-04
   3.00000E+03  1.68258E-16  7.90635E-18  1.56610E-17  4.43852E-17  1.1E-03
   3.50000E+03  1.57577E-16  6.86542E-18  1.36877E-17  3.85390E-17  9.9E-04
   4.00000E+03  1.48553E-16  6.05320E-18  1.21451E-17  3.40851E-17  4.2E-03
   4.50000E+03  1.40799E-16  5.40073E-18  1.09041E-17  3.05771E-17  3.4E-03
   5.00000E+03  1.34045E-16  4.86529E-18  9.88372E-18  2.77396E-17  4.2E-03
   6.00000E+03  1.22804E-16  4.03932E-18  8.30300E-18  2.34258E-17  3.5E-03
   7.00000E+03  1.13782E-16  3.43455E-18  7.13631E-18  2.02927E-17  3.9E-03
   8.00000E+03  1.06342E-16  2.97458E-18  6.24017E-18  1.79099E-17  3.8E-03
   9.00000E+03  1.00073E-16  2.61388E-18  5.53013E-18  1.60355E-17  3.1E-03
   1.00000E+04  9.47004E-17  2.32355E-18  4.95291E-18  1.45232E-17  4.1E-03
   1.25000E+04  8.44774E-17  1.79783E-18  3.89244E-18  1.17748E-17  2.0E-07
   1.50000E+04  7.63826E-17  1.44712E-18  3.17212E-18  9.92424E-18  1.5E-07
   1.75000E+04  7.00461E-17  1.19839E-18  2.65413E-18  8.59380E-18  1.6E-07
   2.00000E+04  6.49190E-17  1.01394E-18  2.26576E-18  7.59122E-18  1.6E-07
   2.50000E+04  5.70685E-17  7.61066E-19  1.72648E-18  6.18030E-18  2.0E-07
   3.00000E+04  5.12885E-17  5.97997E-19  1.37351E-18  5.23449E-18  1.9E-07
   3.50000E+04  4.68231E-17  4.85574E-19  1.12703E-18  4.55611E-18  1.0E-07
   4.00000E+04  4.32522E-17  4.04181E-19  9.46590E-19  4.04584E-18  1.0E-07
   4.50000E+04  4.03214E-17  3.43005E-19  8.09640E-19  3.64815E-18  1.0E-07
   5.00000E+04  3.78666E-17  2.95651E-19  7.02723E-19  3.32953E-18  1.0E-07
   6.00000E+04  3.39727E-17  2.27791E-19  5.47865E-19  2.85111E-18  3.5E-07
   7.00000E+04  3.10115E-17  1.82118E-19  4.42339E-19  2.50910E-18  1.0E-07
   8.00000E+04  2.86766E-17  1.49700E-19  3.66667E-19  2.25247E-18  1.0E-07
   9.00000E+04  2.67844E-17  1.25744E-19  3.10262E-19  2.05296E-18  1.0E-07
   1.00000E+05  2.52179E-17  1.07472E-19  2.66914E-19  1.89341E-18  8.0E-07
   1.25000E+05  2.22672E-17  7.68683E-20  1.93542E-19  1.60668E-18  1.0E-06
   1.50000E+05  2.01970E-17  5.83476E-20  1.48546E-19  1.41613E-18  6.6E-07
   1.75000E+05  1.86635E-17  4.61842E-20  1.18673E-19  1.28057E-18  3.2E-06
   2.00000E+05  1.74825E-17  3.77119E-20  9.76732E-20  1.17938E-18  1.1E-05
   2.50000E+05  1.57853E-17  2.68905E-20  7.05534E-20  1.03884E-18  8.1E-05
   3.00000E+05  1.46284E-17  2.04209E-20  5.41290E-20  9.46145E-19  3.6E-04
   3.50000E+05  1.37930E-17  1.62006E-20  4.33001E-20  8.80550E-19  1.1E-03
   4.00000E+05  1.31641E-17  1.32702E-20  3.57131E-20  8.31549E-19  3.0E-03
   4.50000E+05  1.26755E-17  1.11378E-20  3.01488E-20  7.96188E-19  1.6E-06
   5.00000E+05  1.22865E-17  9.52835E-21  2.59206E-20  7.67152E-19  1.5E-06
   6.00000E+05  1.17095E-17  7.28225E-21  1.99699E-20  7.24654E-19  1.6E-06
   7.00000E+05  1.13058E-17  5.80704E-21  1.60233E-20  6.95274E-19  1.0E-07
   8.00000E+05  1.10105E-17  4.77474E-21  1.32398E-20  6.73964E-19  1.5E-07
   9.00000E+05  1.07870E-17  4.01768E-21  1.11851E-20  6.57929E-19  5.3E-07
   1.00000E+06  1.06132E-17  3.44213E-21  9.61438E-21  6.45562E-19  1.0E-07
   1.25000E+06  1.03397E-17  2.50136E-21  7.02849E-21  0.00000E+00  1.0E-07
   1.50000E+06  1.01549E-17  1.90737E-21  5.38284E-21  0.00000E+00  1.0E-07
   1.75000E+06  1.00718E-17  1.51746E-21  4.29641E-21  0.00000E+00  1.0E-05
   2.00000E+06  9.97293E-18  1.23812E-21  3.51425E-21  0.00000E+00  1.0E-05
   2.50000E+06  9.84862E-18  8.77463E-22  2.49970E-21  0.00000E+00  1.0E-05
   3.00000E+06  9.77637E-18  6.59279E-22  1.88304E-21  0.00000E+00  1.0E-05
   3.50000E+06  9.73003E-18  5.15955E-22  1.47659E-21  0.00000E+00  1.0E-05
   4.00000E+06  9.69989E-18  4.16169E-22  1.19290E-21  0.00000E+00  1.0E-05
   4.50000E+06  9.67346E-18  3.43608E-22  9.86188E-22  0.00000E+00  1.0E-05
   5.00000E+06  9.67485E-18  2.89117E-22  8.30717E-22  0.00000E+00  1.0E-05
   6.00000E+06  9.63933E-18  2.13570E-22  6.14734E-22  0.00000E+00  1.0E-05
   7.00000E+06  9.62369E-18  1.64816E-22  4.75068E-22  0.00000E+00  1.0E-05
   8.00000E+06  9.61521E-18  1.31383E-22  3.79139E-22  0.00000E+00  1.0E-05
   9.00000E+06  9.60900E-18  1.07391E-22  3.10209E-22  0.00000E+00  1.0E-05
   1.00000E+07  9.60332E-18  8.95532E-23  2.58902E-22  0.00000E+00  1.0E-05
   1.25000E+07  9.59634E-18  6.07338E-23  1.75891E-22  0.00000E+00  1.0E-05
   1.50000E+07  9.59155E-18  4.40687E-23  1.27806E-22  0.00000E+00  1.0E-05
   1.75000E+07  9.58816E-18  3.35250E-23  9.73428E-23  0.00000E+00  1.0E-05
   2.00000E+07  9.58656E-18  2.64131E-23  7.67730E-23  0.00000E+00  1.0E-05
   2.50000E+07  9.58594E-18  1.76774E-23  5.14765E-23  0.00000E+00  1.0E-05
   3.00000E+07  9.58796E-18  1.26966E-23  3.70341E-23  0.00000E+00  1.0E-05
   3.50000E+07  9.58750E-18  9.57733E-24  2.79800E-23  0.00000E+00  1.0E-05
   4.00000E+07  9.58771E-18  7.49010E-24  2.19161E-23  0.00000E+00  1.0E-05
   4.50000E+07  9.59019E-18  6.02181E-24  1.76468E-23  0.00000E+00  1.0E-05
   5.00000E+07  9.58523E-18  4.94843E-24  1.45234E-23  0.00000E+00  1.0E-05
   6.00000E+07  9.58521E-18  3.51333E-24  1.03424E-23  0.00000E+00  1.0E-05
   7.00000E+07  9.58813E-18  2.62213E-24  7.74089E-24  0.00000E+00  1.0E-05
   8.00000E+07  9.58752E-18  2.03038E-24  6.00944E-24  0.00000E+00  1.0E-05
   9.00000E+07  9.58705E-18  1.61764E-24  4.79846E-24  0.00000E+00  1.0E-05
   1.00000E+08  9.58791E-18  1.31854E-24  3.91845E-24  0.00000E+00  1.0E-05
   1.25000E+08  9.58645E-18  8.52686E-25  2.54206E-24  0.00000E+00  1.0E-05
   1.50000E+08  9.58500E-18  5.95921E-25  1.77987E-24  0.00000E+00  1.0E-05
   1.75000E+08  9.58407E-18  4.39700E-25  1.31479E-24  0.00000E+00  1.0E-05
   2.00000E+08  9.58360E-18  3.37680E-25  1.01050E-24  0.00000E+00  1.0E-05
   2.50000E+08  9.58469E-18  2.17007E-25  6.49974E-25  0.00000E+00  2.1E-05
   3.00000E+08  9.58621E-18  1.51094E-25  4.52775E-25  0.00000E+00  7.1E-05
   3.50000E+08  9.58659E-18  1.11199E-25  3.33322E-25  0.00000E+00  7.7E-05
   4.00000E+08  9.58649E-18  8.52399E-26  2.55559E-25  0.00000E+00  8.7E-05
   4.50000E+08  9.58771E-18  6.74074E-26  2.02122E-25  0.00000E+00  1.0E+00
   5.00000E+08  9.58244E-18  5.46343E-26  1.63837E-25  0.00000E+00  1.0E+00
   6.00000E+08  9.57908E-18  3.79705E-26  1.13880E-25  0.00000E+00  1.0E+00
   7.00000E+08  9.57722E-18  2.79084E-26  8.37083E-26  0.00000E+00  1.0E+00
   8.00000E+08  9.56893E-18  2.13708E-26  6.41025E-26  0.00000E+00  1.0E+00
   9.00000E+08  9.55817E-18  1.68863E-26  5.06526E-26  0.00000E+00  1.0E+00
   1.00000E+09  9.54518E-18  1.36777E-26  4.10291E-26  0.00000E+00  1.0E+00
