 #
 # Subroutine ELSEPA. Elastic scattering of electrons and positrons
 #                    by neutral atoms and positive ions
 #
 # Projectile: positron
 # Kinetic energy = 2.50000E+06 eV = 9.18733E+04 a.u.
 #
 # WARNING: High-energy factorization with free-atom DF screening.
 #          Absorption, polarization and exchange corrections are
 #          switched off.
 #          Phase shifts are calculated for the bare nucleus.
 #          Scattering amplitudes are not evaluated.
 #
 # Element: In,  Z =  49,  atomic weight = 1.14818E+02 g/mol
 #
 # Nuclear model: Fermi distribution
 #                Average radius = 5.20060E-13 cm
 #                Skin thickness = 5.46000E-14 cm
 #
 # Number of electrons = 49
 #
 # Total elastic cross section = 4.95551E-18 cm**2 = 1.76965E-01 a0**2
 # 1st transport cross section = 3.20088E-22 cm**2 = 1.14305E-05 a0**2
 # 2nd transport cross section = 9.15091E-22 cm**2 = 3.26785E-05 a0**2
 #
 #
 # Differential cross section:                       MU=(1-COS(THETA))/2
 #
 #  THETA        MU          DCS          DCS        Sherman      error
 #  (deg)                 (cm**2/sr)   (a0**2/sr)    function
 #----------------------------------------------------------------------
0.00000E+00 3.75844E-13
7.61557E-13 3.75843E-13
1.18994E-12 3.75842E-13
1.71346E-12 3.75841E-13
2.33225E-12 3.75840E-13
3.04617E-12 3.75839E-13
3.85530E-12 3.75838E-13
4.75964E-12 3.75837E-13
5.75917E-12 3.75836E-13
6.85391E-12 3.75834E-13
8.04379E-12 3.75833E-13
9.32893E-12 3.75831E-13
1.07092E-11 3.75829E-13
1.21847E-11 3.75827E-13
1.37554E-11 3.75825E-13
1.54213E-11 3.75823E-13
1.71823E-11 3.75820E-13
1.90386E-11 3.75818E-13
2.09900E-11 3.75815E-13
2.30367E-11 3.75813E-13
2.51785E-11 3.75810E-13
2.74156E-11 3.75807E-13
2.97478E-11 3.75804E-13
3.21752E-11 3.75801E-13
3.46979E-11 3.75797E-13
3.73157E-11 3.75794E-13
4.00286E-11 3.75790E-13
4.28368E-11 3.75787E-13
4.57402E-11 3.75783E-13
4.87388E-11 3.75779E-13
5.18325E-11 3.75775E-13
5.50215E-11 3.75771E-13
5.83057E-11 3.75767E-13
6.16850E-11 3.75762E-13
6.51595E-11 3.75758E-13
6.87293E-11 3.75753E-13
7.23943E-11 3.75748E-13
7.61544E-11 3.75743E-13
1.18991E-10 3.75688E-13
1.71347E-10 3.75620E-13
2.33223E-10 3.75541E-13
3.04617E-10 3.75449E-13
3.85531E-10 3.75345E-13
4.75965E-10 3.75230E-13
5.75917E-10 3.75102E-13
6.85389E-10 3.74962E-13
8.04380E-10 3.74810E-13
9.32891E-10 3.74647E-13
1.07092E-09 3.74471E-13
1.21847E-09 3.74284E-13
1.37554E-09 3.74084E-13
1.54213E-09 3.73873E-13
1.71823E-09 3.73650E-13
1.90386E-09 3.73416E-13
2.09900E-09 3.73169E-13
2.30367E-09 3.72911E-13
2.51785E-09 3.72642E-13
2.74156E-09 3.72361E-13
2.97478E-09 3.72068E-13
3.21752E-09 3.71764E-13
3.46978E-09 3.71448E-13
3.73156E-09 3.71121E-13
4.00286E-09 3.70783E-13
4.28368E-09 3.70434E-13
4.57402E-09 3.70073E-13
4.87388E-09 3.69701E-13
5.18326E-09 3.69318E-13
5.50215E-09 3.68924E-13
5.83057E-09 3.68520E-13
6.16850E-09 3.68104E-13
6.51596E-09 3.67677E-13
6.87293E-09 3.67240E-13
7.23942E-09 3.66792E-13
7.61544E-09 3.66334E-13
1.18991E-08 3.61185E-13
1.71347E-08 3.55069E-13
2.33223E-08 3.48082E-13
3.04617E-08 3.40312E-13
3.85531E-08 3.31902E-13
4.75965E-08 3.22925E-13
5.75917E-08 3.13536E-13
6.85389E-08 3.03779E-13
8.04380E-08 2.93830E-13
9.32891E-08 2.83699E-13
1.07092E-07 2.73553E-13
1.21847E-07 2.63399E-13
1.37554E-07 2.53357E-13
1.54213E-07 2.43450E-13
1.71823E-07 2.33739E-13
1.90386E-07 2.24270E-13
2.09900E-07 2.15048E-13
2.30367E-07 2.06142E-13
2.51785E-07 1.97506E-13
2.74156E-07 1.89232E-13
2.97478E-07 1.81229E-13
3.21752E-07 1.73601E-13
3.46978E-07 1.66257E-13
3.73156E-07 1.59268E-13
4.00286E-07 1.52571E-13
4.28368E-07 1.46197E-13
4.57402E-07 1.40116E-13
4.87388E-07 1.34320E-13
5.18325E-07 1.28813E-13
5.50215E-07 1.23554E-13
5.83057E-07 1.18573E-13
6.16850E-07 1.13804E-13
6.51596E-07 1.09302E-13
6.87293E-07 1.04979E-13
7.23942E-07 1.00896E-13
7.61543E-07 9.69868E-14
1.18991E-06 6.67791E-14
1.71347E-06 4.74903E-14
2.33223E-06 3.46019E-14
3.04617E-06 2.53068E-14
3.85531E-06 1.91388E-14
4.75964E-06 1.44882E-14
5.75916E-06 1.12207E-14
6.85388E-06 8.67092E-15
8.04378E-06 6.84997E-15
9.32888E-06 5.42192E-15
1.07092E-05 4.36808E-15
1.21846E-05 3.54575E-15
1.37553E-05 2.91661E-15
1.54212E-05 2.42171E-15
1.71822E-05 2.03176E-15
1.90385E-05 1.71991E-15
2.09899E-05 1.46858E-15
2.30365E-05 1.26432E-15
2.51783E-05 1.09476E-15
2.74153E-05 9.54848E-16
2.97475E-05 8.36060E-16
3.21749E-05 7.36701E-16
3.46974E-05 6.51175E-16
3.73152E-05 5.78485E-16
4.00281E-05 5.15359E-16
4.28362E-05 4.60819E-16
4.57395E-05 4.13148E-16
4.87380E-05 3.71355E-16
5.18317E-05 3.34685E-16
5.50205E-05 3.02156E-16
5.83045E-05 2.73561E-16
6.16838E-05 2.47989E-16
6.51582E-05 2.25472E-16
6.87277E-05 2.05103E-16
7.23925E-05 1.87072E-16
7.61524E-05 1.70828E-16
9.21439E-05 1.20935E-16
1.09658E-04 8.77763E-17
1.28695E-04 6.51448E-17
1.49255E-04 4.93332E-17
1.71338E-04 3.80612E-17
1.94942E-04 2.98570E-17
2.20070E-04 2.37663E-17
2.46720E-04 1.91622E-17
2.74892E-04 1.56201E-17
3.04586E-04 1.28714E-17
3.35803E-04 1.07010E-17
3.68542E-04 8.97398E-18
4.02802E-04 7.57714E-18
4.38585E-04 6.44559E-18
4.75889E-04 5.51291E-18
5.14715E-04 4.74544E-18
5.55063E-04 4.10387E-18
5.96931E-04 3.56805E-18
6.40321E-04 3.11549E-18
6.85233E-04 2.73249E-18
7.31665E-04 2.40598E-18
7.79618E-04 2.12650E-18
8.29092E-04 1.88629E-18
8.80086E-04 1.67868E-18
9.32601E-04 1.49891E-18
9.86636E-04 1.34219E-18
1.04219E-03 1.20554E-18
1.09927E-03 1.08554E-18
1.15786E-03 9.80193E-19
1.21797E-03 8.87155E-19
1.27961E-03 8.04919E-19
1.34276E-03 7.31919E-19
1.40743E-03 6.66999E-19
1.47362E-03 6.09092E-19
1.54133E-03 5.57308E-19
1.61056E-03 5.10908E-19
1.68131E-03 4.69208E-19
1.75357E-03 4.31686E-19
1.82735E-03 3.97809E-19
1.90265E-03 3.67203E-19
1.97947E-03 3.39460E-19
2.05780E-03 3.14295E-19
2.13765E-03 2.91407E-19
2.21902E-03 2.70565E-19
2.30190E-03 2.51547E-19
2.38630E-03 2.34169E-19
2.47222E-03 2.18264E-19
2.55965E-03 2.03682E-19
2.64859E-03 1.90298E-19
2.73905E-03 1.77989E-19
2.83103E-03 1.66662E-19
2.92452E-03 1.56216E-19
3.01952E-03 1.46577E-19
3.11604E-03 1.37665E-19
3.21407E-03 1.29421E-19
3.31362E-03 1.21783E-19
3.41468E-03 1.14699E-19
3.51725E-03 1.08121E-19
3.62133E-03 1.02007E-19
3.72692E-03 9.63177E-20
3.83403E-03 9.10181E-20
3.94265E-03 8.60780E-20
4.05278E-03 8.14664E-20
4.16442E-03 7.71599E-20
4.27757E-03 7.31318E-20
4.39223E-03 6.93636E-20
4.50840E-03 6.58332E-20
4.62608E-03 6.25245E-20
4.74527E-03 5.94199E-20
4.86597E-03 5.65052E-20
4.98817E-03 5.37663E-20
5.11188E-03 5.11906E-20
5.23711E-03 4.87670E-20
5.36383E-03 4.64842E-20
5.49207E-03 4.43333E-20
5.62181E-03 4.23044E-20
5.75306E-03 4.03902E-20
5.88581E-03 3.85821E-20
6.02007E-03 3.68740E-20
6.15583E-03 3.52586E-20
6.29310E-03 3.37306E-20
6.43187E-03 3.22839E-20
6.57214E-03 3.09136E-20
6.71392E-03 2.96149E-20
6.85720E-03 2.83833E-20
7.00198E-03 2.72149E-20
7.14827E-03 2.61055E-20
7.29605E-03 2.50519E-20
7.44534E-03 2.40505E-20
7.59612E-03 2.30986E-20
7.97965E-03 2.09155E-20
8.37255E-03 1.89831E-20
8.77480E-03 1.72676E-20
9.18641E-03 1.57405E-20
9.60736E-03 1.43776E-20
1.00376E-02 1.31582E-20
1.04773E-02 1.20646E-20
1.09262E-02 1.10816E-20
1.13844E-02 1.01961E-20
1.18520E-02 9.39669E-21
1.23288E-02 8.67365E-21
1.28150E-02 8.01836E-21
1.33104E-02 7.42338E-21
1.38150E-02 6.88221E-21
1.43290E-02 6.38911E-21
1.48521E-02 5.93908E-21
1.53845E-02 5.52771E-21
1.59262E-02 5.15107E-21
1.64770E-02 4.80574E-21
1.70371E-02 4.48866E-21
1.76063E-02 4.19709E-21
1.81848E-02 3.92864E-21
1.87724E-02 3.68115E-21
1.93692E-02 3.45268E-21
1.99751E-02 3.24152E-21
2.05901E-02 3.04614E-21
2.12143E-02 2.86512E-21
2.18476E-02 2.69725E-21
2.24900E-02 2.54139E-21
2.31415E-02 2.39653E-21
2.38021E-02 2.26176E-21
2.44717E-02 2.13625E-21
2.51504E-02 2.01924E-21
2.58382E-02 1.91007E-21
2.65349E-02 1.80811E-21
2.72407E-02 1.71280E-21
2.79555E-02 1.62363E-21
2.86793E-02 1.54014E-21
2.94120E-02 1.46189E-21
3.01537E-02 1.38851E-21
3.09043E-02 1.31962E-21
3.16639E-02 1.25492E-21
3.24324E-02 1.19409E-21
3.32098E-02 1.13687E-21
3.39961E-02 1.08300E-21
3.47912E-02 1.03225E-21
3.55952E-02 9.84411E-22
3.64081E-02 9.39281E-22
3.72297E-02 8.96683E-22
3.80602E-02 8.56445E-22
3.88995E-02 8.18417E-22
3.97476E-02 7.82452E-22
4.06044E-02 7.48422E-22
4.14700E-02 7.16200E-22
4.23443E-02 6.85676E-22
4.32273E-02 6.56742E-22
4.41190E-02 6.29302E-22
4.50194E-02 6.03264E-22
4.59284E-02 5.78543E-22
4.68461E-02 5.55061E-22
4.87074E-02 5.11526E-22
5.06030E-02 4.72129E-22
5.25328E-02 4.36411E-22
5.44967E-02 4.03968E-22
5.64946E-02 3.74449E-22
5.85262E-02 3.47546E-22
6.05914E-02 3.22987E-22
6.26901E-02 3.00532E-22
6.48222E-02 2.79971E-22
6.69873E-02 2.61116E-22
6.91854E-02 2.43801E-22
7.14163E-02 2.27879E-22
7.36799E-02 2.13218E-22
7.59760E-02 1.99702E-22
7.83043E-02 1.87224E-22
8.06647E-02 1.75693E-22
8.30571E-02 1.65022E-22
8.54812E-02 1.55138E-22
8.79369E-02 1.45972E-22
9.04240E-02 1.37463E-22
9.29422E-02 1.29555E-22
9.54915E-02 1.22199E-22
9.80716E-02 1.15349E-22
1.00682E-01 1.08965E-22
1.03323E-01 1.03009E-22
1.05995E-01 9.74479E-23
1.08696E-01 9.22506E-23
1.11427E-01 8.73892E-23
1.14188E-01 8.28383E-23
1.16978E-01 7.85745E-23
1.19797E-01 7.45765E-23
1.22645E-01 7.08250E-23
1.25522E-01 6.73020E-23
1.28428E-01 6.39911E-23
1.31361E-01 6.08775E-23
1.34323E-01 5.79472E-23
1.37313E-01 5.51876E-23
1.40330E-01 5.25871E-23
1.43375E-01 5.01348E-23
1.46447E-01 4.78207E-23
1.49545E-01 4.56359E-23
1.52671E-01 4.35717E-23
1.55823E-01 4.16203E-23
1.59001E-01 3.97746E-23
1.62205E-01 3.80277E-23
1.65435E-01 3.63734E-23
1.68690E-01 3.48061E-23
1.71970E-01 3.33202E-23
1.75276E-01 3.19109E-23
1.78606E-01 3.05735E-23
1.81961E-01 2.93037E-23
1.85340E-01 2.80975E-23
1.88743E-01 2.69511E-23
1.92169E-01 2.58611E-23
1.95619E-01 2.48241E-23
1.99092E-01 2.38373E-23
2.02589E-01 2.28976E-23
2.06107E-01 2.20025E-23
2.09649E-01 2.11495E-23
2.13212E-01 2.03362E-23
2.16797E-01 1.95605E-23
2.20404E-01 1.88203E-23
2.24032E-01 1.81138E-23
2.27680E-01 1.74391E-23
2.31350E-01 1.67946E-23
2.35040E-01 1.61786E-23
2.38751E-01 1.55897E-23
2.42481E-01 1.50265E-23
2.46231E-01 1.44877E-23
2.50000E-01 1.39720E-23
2.53788E-01 1.34782E-23
2.57595E-01 1.30053E-23
2.61421E-01 1.25523E-23
2.65264E-01 1.21181E-23
2.69126E-01 1.17018E-23
2.73005E-01 1.13026E-23
2.76901E-01 1.09196E-23
2.80814E-01 1.05521E-23
2.84744E-01 1.01993E-23
2.88691E-01 9.86058E-24
2.92653E-01 9.53523E-24
2.96632E-01 9.22266E-24
3.00625E-01 8.92227E-24
3.04634E-01 8.63349E-24
3.08658E-01 8.35581E-24
3.12697E-01 8.08872E-24
3.16749E-01 7.83175E-24
3.20816E-01 7.58444E-24
3.24896E-01 7.34638E-24
3.28990E-01 7.11716E-24
3.33097E-01 6.89639E-24
3.37216E-01 6.68371E-24
3.41348E-01 6.47877E-24
3.45492E-01 6.28125E-24
3.49647E-01 6.09082E-24
3.53814E-01 5.90719E-24
3.57992E-01 5.73008E-24
3.62181E-01 5.55921E-24
3.66381E-01 5.39433E-24
3.70590E-01 5.23519E-24
3.74810E-01 5.08155E-24
3.79039E-01 4.93320E-24
3.83277E-01 4.78991E-24
3.87524E-01 4.65149E-24
3.91780E-01 4.51775E-24
3.96044E-01 4.38850E-24
4.00316E-01 4.26356E-24
4.04596E-01 4.14277E-24
4.08882E-01 4.02596E-24
4.13176E-01 3.91298E-24
4.17476E-01 3.80369E-24
4.21783E-01 3.69794E-24
4.26095E-01 3.59560E-24
4.30413E-01 3.49655E-24
4.34737E-01 3.40065E-24
4.39065E-01 3.30779E-24
4.43398E-01 3.21786E-24
4.47736E-01 3.13075E-24
4.52077E-01 3.04635E-24
4.56422E-01 2.96457E-24
4.60770E-01 2.88532E-24
4.65122E-01 2.80850E-24
4.69476E-01 2.73402E-24
4.73832E-01 2.66181E-24
4.78190E-01 2.59178E-24
4.82550E-01 2.52386E-24
4.86912E-01 2.45796E-24
4.91274E-01 2.39403E-24
4.95637E-01 2.33199E-24
5.00000E-01 2.27178E-24
5.04363E-01 2.21334E-24
5.08726E-01 2.15660E-24
5.13088E-01 2.10151E-24
5.17450E-01 2.04800E-24
5.21810E-01 1.99604E-24
5.26168E-01 1.94556E-24
5.30524E-01 1.89652E-24
5.34878E-01 1.84887E-24
5.39230E-01 1.80256E-24
5.43578E-01 1.75755E-24
5.47923E-01 1.71380E-24
5.52264E-01 1.67127E-24
5.56602E-01 1.62992E-24
5.60935E-01 1.58970E-24
5.65263E-01 1.55059E-24
5.69587E-01 1.51255E-24
5.73905E-01 1.47555E-24
5.78217E-01 1.43954E-24
5.82524E-01 1.40451E-24
5.86824E-01 1.37042E-24
5.91118E-01 1.33724E-24
5.95404E-01 1.30494E-24
5.99684E-01 1.27350E-24
6.03956E-01 1.24289E-24
6.08220E-01 1.21308E-24
6.12476E-01 1.18406E-24
6.16723E-01 1.15579E-24
6.20961E-01 1.12825E-24
6.25190E-01 1.10143E-24
6.29410E-01 1.07530E-24
6.33619E-01 1.04984E-24
6.37819E-01 1.02503E-24
6.42008E-01 1.00086E-24
6.46186E-01 9.77293E-25
6.50353E-01 9.54326E-25
6.54508E-01 9.31937E-25
6.58652E-01 9.10110E-25
6.62784E-01 8.88829E-25
6.66903E-01 8.68078E-25
6.71010E-01 8.47843E-25
6.75104E-01 8.28107E-25
6.79184E-01 8.08859E-25
6.83251E-01 7.90083E-25
6.87303E-01 7.71766E-25
6.91342E-01 7.53896E-25
6.95366E-01 7.36461E-25
6.99375E-01 7.19449E-25
7.03368E-01 7.02847E-25
7.07347E-01 6.86646E-25
7.11309E-01 6.70833E-25
7.15256E-01 6.55399E-25
7.19186E-01 6.40333E-25
7.23099E-01 6.25626E-25
7.26995E-01 6.11268E-25
7.30874E-01 5.97249E-25
7.34736E-01 5.83561E-25
7.38579E-01 5.70195E-25
7.42405E-01 5.57142E-25
7.46212E-01 5.44395E-25
7.50000E-01 5.31945E-25
7.53769E-01 5.19785E-25
7.57519E-01 5.07907E-25
7.61249E-01 4.96304E-25
7.64960E-01 4.84968E-25
7.68650E-01 4.73894E-25
7.72320E-01 4.63074E-25
7.75968E-01 4.52503E-25
7.79596E-01 4.42173E-25
7.83203E-01 4.32080E-25
7.86788E-01 4.22216E-25
7.90351E-01 4.12577E-25
7.93893E-01 4.03156E-25
7.97411E-01 3.93949E-25
8.00908E-01 3.84950E-25
8.04381E-01 3.76155E-25
8.07831E-01 3.67558E-25
8.11257E-01 3.59154E-25
8.14660E-01 3.50940E-25
8.18039E-01 3.42909E-25
8.21394E-01 3.35059E-25
8.24724E-01 3.27385E-25
8.28030E-01 3.19883E-25
8.31310E-01 3.12548E-25
8.34565E-01 3.05377E-25
8.37795E-01 2.98366E-25
8.40999E-01 2.91511E-25
8.44177E-01 2.84809E-25
8.47329E-01 2.78256E-25
8.50455E-01 2.71849E-25
8.53553E-01 2.65585E-25
8.56625E-01 2.59460E-25
8.59670E-01 2.53472E-25
8.62687E-01 2.47616E-25
8.65677E-01 2.41892E-25
8.68639E-01 2.36294E-25
8.71572E-01 2.30822E-25
8.74478E-01 2.25471E-25
8.77355E-01 2.20240E-25
8.80203E-01 2.15126E-25
8.83022E-01 2.10126E-25
8.85812E-01 2.05238E-25
8.88573E-01 2.00460E-25
8.91304E-01 1.95789E-25
8.94005E-01 1.91223E-25
8.96677E-01 1.86760E-25
8.99318E-01 1.82398E-25
9.01928E-01 1.78135E-25
9.04508E-01 1.73969E-25
9.07058E-01 1.69898E-25
9.09576E-01 1.65920E-25
9.12063E-01 1.62032E-25
9.14519E-01 1.58235E-25
9.16943E-01 1.54525E-25
9.19335E-01 1.50901E-25
9.21696E-01 1.47362E-25
9.24024E-01 1.43905E-25
9.26320E-01 1.40529E-25
9.28584E-01 1.37234E-25
9.30815E-01 1.34016E-25
9.33013E-01 1.30876E-25
9.35178E-01 1.27810E-25
9.37310E-01 1.24819E-25
9.39409E-01 1.21901E-25
9.41474E-01 1.19055E-25
9.43505E-01 1.16278E-25
9.45503E-01 1.13571E-25
9.47467E-01 1.10932E-25
9.49397E-01 1.08359E-25
9.51293E-01 1.05853E-25
9.53154E-01 1.03411E-25
9.54981E-01 1.01032E-25
9.56773E-01 9.87164E-26
9.58530E-01 9.64623E-26
9.60252E-01 9.42688E-26
9.61940E-01 9.21352E-26
9.63592E-01 9.00604E-26
9.65209E-01 8.80437E-26
9.66790E-01 8.60841E-26
9.68336E-01 8.41810E-26
9.69846E-01 8.23335E-26
9.71321E-01 8.05408E-26
9.72759E-01 7.88022E-26
9.74162E-01 7.71170E-26
9.75528E-01 7.54846E-26
9.76858E-01 7.39042E-26
9.78152E-01 7.23752E-26
9.79410E-01 7.08970E-26
9.80631E-01 6.94690E-26
9.81815E-01 6.80907E-26
9.82963E-01 6.67614E-26
9.84074E-01 6.54806E-26
9.85148E-01 6.42479E-26
9.86185E-01 6.30627E-26
9.87185E-01 6.19245E-26
9.88148E-01 6.08330E-26
9.89074E-01 5.97877E-26
9.89962E-01 5.87881E-26
9.90814E-01 5.78339E-26
9.91627E-01 5.69247E-26
9.92404E-01 5.60601E-26
9.93143E-01 5.52398E-26
9.93844E-01 5.44635E-26
9.94508E-01 5.37308E-26
9.95134E-01 5.30415E-26
9.95722E-01 5.23954E-26
9.96273E-01 5.17921E-26
9.96786E-01 5.12314E-26
9.97261E-01 5.07131E-26
9.97698E-01 5.02370E-26
9.98097E-01 4.98029E-26
9.98459E-01 4.94107E-26
9.98782E-01 4.90602E-26
9.99067E-01 4.87512E-26
9.99315E-01 4.84837E-26
9.99524E-01 4.82575E-26
9.99695E-01 4.80725E-26
9.99829E-01 4.79288E-26
9.99924E-01 4.78261E-26
9.99981E-01 4.77645E-26
1.00000E+00 4.77440E-26
