 #
 # Subroutine ELSEPA. Elastic scattering of electrons and positrons
 #                    by neutral atoms and positive ions
 #
 # Projectile: positron
 # Kinetic energy = 1.75000E+08 eV = 6.43113E+06 a.u.
 #
 # WARNING: High-energy factorization with free-atom DF screening.
 #          Absorption, polarization and exchange corrections are
 #          switched off.
 #          Phase shifts are calculated for the bare nucleus.
 #          Scattering amplitudes are not evaluated.
 #
 # Element: In,  Z =  49,  atomic weight = 1.14818E+02 g/mol
 #
 # Nuclear model: Fermi distribution
 #                Average radius = 5.20060E-13 cm
 #                Skin thickness = 5.46000E-14 cm
 #
 # Number of electrons = 49
 #
 # Total elastic cross section = 4.82140E-18 cm**2 = 1.72175E-01 a0**2
 # 1st transport cross section = 1.51538E-25 cm**2 = 5.41152E-09 a0**2
 # 2nd transport cross section = 4.53095E-25 cm**2 = 1.61803E-08 a0**2
 #
 #
 # Differential cross section:                       MU=(1-COS(THETA))/2
 #
 #  THETA        MU          DCS          DCS        Sherman      error
 #  (deg)                 (cm**2/sr)   (a0**2/sr)    function
 #----------------------------------------------------------------------
0.00000E+00 1.27701E-09
7.61557E-13 1.26555E-09
1.18994E-12 1.25920E-09
1.71346E-12 1.25151E-09
2.33225E-12 1.24254E-09
3.04617E-12 1.23232E-09
3.85530E-12 1.22094E-09
4.75964E-12 1.20843E-09
5.75917E-12 1.19488E-09
6.85391E-12 1.18035E-09
8.04379E-12 1.16490E-09
9.32893E-12 1.14861E-09
1.07092E-11 1.13163E-09
1.21847E-11 1.11396E-09
1.37554E-11 1.09566E-09
1.54213E-11 1.07689E-09
1.71823E-11 1.05770E-09
1.90386E-11 1.03806E-09
2.09900E-11 1.01819E-09
2.30367E-11 9.98131E-10
2.51785E-11 9.77787E-10
2.74156E-11 9.57414E-10
2.97478E-11 9.37072E-10
3.21752E-11 9.16577E-10
3.46979E-11 8.96218E-10
3.73157E-11 8.76043E-10
4.00286E-11 8.55874E-10
4.28368E-11 8.35938E-10
4.57402E-11 8.16302E-10
4.87388E-11 7.96803E-10
5.18325E-11 7.77596E-10
5.50215E-11 7.58770E-10
5.83057E-11 7.40184E-10
6.16850E-11 7.21918E-10
6.51595E-11 7.04084E-10
6.87293E-11 6.86568E-10
7.23943E-11 6.69374E-10
7.61544E-11 6.52639E-10
1.18991E-10 5.06142E-10
1.71347E-10 3.95085E-10
2.33223E-10 3.12213E-10
3.04617E-10 2.50049E-10
3.85531E-10 2.02745E-10
4.75965E-10 1.66125E-10
5.75917E-10 1.37263E-10
6.85389E-10 1.14220E-10
8.04380E-10 9.48295E-11
9.32891E-10 7.92320E-11
1.07092E-09 6.73189E-11
1.21847E-09 5.73765E-11
1.37554E-09 4.85727E-11
1.54213E-09 4.16407E-11
1.71823E-09 3.59211E-11
1.90386E-09 3.07998E-11
2.09900E-09 2.66631E-11
2.30367E-09 2.32514E-11
2.51785E-09 2.02011E-11
2.74156E-09 1.76826E-11
2.97478E-09 1.55860E-11
3.21752E-09 1.37215E-11
3.46978E-09 1.21513E-11
3.73156E-09 1.08212E-11
4.00286E-09 9.65001E-12
4.28368E-09 8.64240E-12
4.57402E-09 7.77569E-12
4.87388E-09 7.01157E-12
5.18326E-09 6.34356E-12
5.50215E-09 5.76135E-12
5.83057E-09 5.24458E-12
6.16850E-09 4.78648E-12
6.51596E-09 4.38271E-12
6.87293E-09 4.02144E-12
7.23942E-09 3.69683E-12
7.61544E-09 3.40800E-12
1.18991E-08 1.65046E-12
1.71347E-08 8.90776E-13
2.33223E-08 5.15999E-13
3.04617E-08 3.16797E-13
3.85531E-08 2.04456E-13
4.75965E-08 1.37761E-13
5.75917E-08 9.63404E-14
6.85389E-08 6.94882E-14
8.04380E-08 5.14022E-14
9.32891E-08 3.88928E-14
1.07092E-07 2.99824E-14
1.21847E-07 2.34693E-14
1.37554E-07 1.86342E-14
1.54213E-07 1.49809E-14
1.71823E-07 1.21780E-14
1.90386E-07 9.99862E-15
2.09900E-07 8.28086E-15
2.30367E-07 6.91558E-15
2.51785E-07 5.81958E-15
2.74156E-07 4.93166E-15
2.97478E-07 4.20620E-15
3.21752E-07 3.60852E-15
3.46978E-07 3.11317E-15
3.73156E-07 2.69986E-15
4.00286E-07 2.35285E-15
4.28368E-07 2.05980E-15
4.57402E-07 1.81082E-15
4.87388E-07 1.59838E-15
5.18325E-07 1.41621E-15
5.50215E-07 1.25927E-15
5.83057E-07 1.12350E-15
6.16850E-07 1.00553E-15
6.51596E-07 9.02653E-16
6.87293E-07 8.12622E-16
7.23942E-07 7.33556E-16
7.61543E-07 6.63886E-16
1.18991E-06 2.75212E-16
1.71347E-06 1.33852E-16
2.33223E-06 7.26885E-17
3.04617E-06 4.27941E-17
3.85531E-06 2.68001E-17
4.75964E-06 1.76240E-17
5.75916E-06 1.20578E-17
6.85388E-06 8.52438E-18
8.04378E-06 6.19477E-18
9.32888E-06 4.60891E-18
1.07092E-05 3.49929E-18
1.21846E-05 2.70422E-18
1.37553E-05 2.12255E-18
1.54212E-05 1.68913E-18
1.71822E-05 1.36084E-18
1.90385E-05 1.10825E-18
2.09899E-05 9.12118E-19
2.30365E-05 7.57439E-19
2.51783E-05 6.34096E-19
2.74153E-05 5.34782E-19
2.97475E-05 4.54126E-19
3.21749E-05 3.88107E-19
3.46974E-05 3.33671E-19
3.73152E-05 2.88472E-19
4.00281E-05 2.50687E-19
4.28362E-05 2.18897E-19
4.57395E-05 1.91988E-19
4.87380E-05 1.69081E-19
5.18317E-05 1.49482E-19
5.50205E-05 1.32635E-19
5.83045E-05 1.18093E-19
6.16838E-05 1.05490E-19
6.51582E-05 9.45252E-20
6.87277E-05 8.49505E-20
7.23925E-05 7.65592E-20
7.61524E-05 6.92369E-20
9.21439E-05 4.72687E-20
1.09658E-04 3.33573E-20
1.28695E-04 2.42070E-20
1.49255E-04 1.79869E-20
1.71338E-04 1.36419E-20
1.94942E-04 1.05319E-20
2.20070E-04 8.25919E-21
2.46720E-04 6.56727E-21
2.74892E-04 5.28671E-21
3.04586E-04 4.30334E-21
3.35803E-04 3.53800E-21
3.68542E-04 2.93529E-21
4.02802E-04 2.45544E-21
4.38585E-04 2.06958E-21
4.75889E-04 1.75650E-21
5.14715E-04 1.50031E-21
5.55063E-04 1.28909E-21
5.96931E-04 1.11367E-21
6.40321E-04 9.67025E-22
6.85233E-04 8.43672E-22
7.31665E-04 7.39316E-22
7.79618E-04 6.50558E-22
8.29092E-04 5.74682E-22
8.80086E-04 5.09513E-22
9.32601E-04 4.53290E-22
9.86636E-04 4.04580E-22
1.04219E-03 3.62212E-22
1.09927E-03 3.25222E-22
1.15786E-03 2.92812E-22
1.21797E-03 2.64320E-22
1.27961E-03 2.39191E-22
1.34276E-03 2.16961E-22
1.40743E-03 1.97239E-22
1.47362E-03 1.79694E-22
1.54133E-03 1.64043E-22
1.61056E-03 1.50048E-22
1.68131E-03 1.37503E-22
1.75357E-03 1.26231E-22
1.82735E-03 1.16082E-22
1.90265E-03 1.06924E-22
1.97947E-03 9.86433E-23
2.05780E-03 9.11415E-23
2.13765E-03 8.43326E-23
2.21902E-03 7.81414E-23
2.30190E-03 7.25021E-23
2.38630E-03 6.73570E-23
2.47222E-03 6.26550E-23
2.55965E-03 5.83515E-23
2.64859E-03 5.44066E-23
2.73905E-03 5.07854E-23
2.83103E-03 4.74565E-23
2.92452E-03 4.43923E-23
3.01952E-03 4.15680E-23
3.11604E-03 3.89615E-23
3.21407E-03 3.65530E-23
3.31362E-03 3.43250E-23
3.41468E-03 3.22615E-23
3.51725E-03 3.03481E-23
3.62133E-03 2.85722E-23
3.72692E-03 2.69220E-23
3.83403E-03 2.53871E-23
3.94265E-03 2.39580E-23
4.05278E-03 2.26261E-23
4.16442E-03 2.13838E-23
4.27757E-03 2.02238E-23
4.39223E-03 1.91398E-23
4.50840E-03 1.81259E-23
4.62608E-03 1.71768E-23
4.74527E-03 1.62877E-23
4.86597E-03 1.54540E-23
4.98817E-03 1.46718E-23
5.11188E-03 1.39372E-23
5.23711E-03 1.32469E-23
5.36383E-03 1.25977E-23
5.49207E-03 1.19868E-23
5.62181E-03 1.14116E-23
5.75306E-03 1.08694E-23
5.88581E-03 1.03582E-23
6.02007E-03 9.87590E-24
6.15583E-03 9.42050E-24
6.29310E-03 8.99028E-24
6.43187E-03 8.58360E-24
6.57214E-03 8.19896E-24
6.71392E-03 7.83495E-24
6.85720E-03 7.49027E-24
7.00198E-03 7.16372E-24
7.14827E-03 6.85418E-24
7.29605E-03 6.56062E-24
7.44534E-03 6.28206E-24
7.59612E-03 6.01761E-24
7.97965E-03 5.41286E-24
8.37255E-03 4.87960E-24
8.77480E-03 4.40806E-24
9.18641E-03 3.99000E-24
9.60736E-03 3.61840E-24
1.00376E-02 3.28731E-24
1.04773E-02 2.99162E-24
1.09262E-02 2.72697E-24
1.13844E-02 2.48961E-24
1.18520E-02 2.27629E-24
1.23288E-02 2.08420E-24
1.28150E-02 1.91092E-24
1.33104E-02 1.75432E-24
1.38150E-02 1.61256E-24
1.43290E-02 1.48403E-24
1.48521E-02 1.36730E-24
1.53845E-02 1.26114E-24
1.59262E-02 1.16444E-24
1.64770E-02 1.07625E-24
1.70371E-02 9.95697E-25
1.76063E-02 9.22036E-25
1.81848E-02 8.54590E-25
1.87724E-02 7.92761E-25
1.93692E-02 7.36015E-25
1.99751E-02 6.83878E-25
2.05901E-02 6.35922E-25
2.12143E-02 5.91767E-25
2.18476E-02 5.51070E-25
2.24900E-02 5.13526E-25
2.31415E-02 4.78856E-25
2.38021E-02 4.46812E-25
2.44717E-02 4.17169E-25
2.51504E-02 3.89724E-25
2.58382E-02 3.64293E-25
2.65349E-02 3.40710E-25
2.72407E-02 3.18823E-25
2.79555E-02 2.98496E-25
2.86793E-02 2.79604E-25
2.94120E-02 2.62034E-25
3.01537E-02 2.45681E-25
3.09043E-02 2.30451E-25
3.16639E-02 2.16259E-25
3.24324E-02 2.03026E-25
3.32098E-02 1.90679E-25
3.39961E-02 1.79153E-25
3.47912E-02 1.68386E-25
3.55952E-02 1.58324E-25
3.64081E-02 1.48916E-25
3.72297E-02 1.40113E-25
3.80602E-02 1.31874E-25
3.88995E-02 1.24159E-25
3.97476E-02 1.16930E-25
4.06044E-02 1.10155E-25
4.14700E-02 1.03802E-25
4.23443E-02 9.78416E-26
4.32273E-02 9.22479E-26
4.41190E-02 8.69961E-26
4.50194E-02 8.20635E-26
4.59284E-02 7.74287E-26
4.68461E-02 7.30724E-26
4.87074E-02 6.51236E-26
5.06030E-02 5.80866E-26
5.25328E-02 5.18491E-26
5.44967E-02 4.63136E-26
5.64946E-02 4.13956E-26
5.85262E-02 3.70216E-26
6.05914E-02 3.31278E-26
6.26901E-02 2.96581E-26
6.48222E-02 2.65637E-26
6.69873E-02 2.38018E-26
6.91854E-02 2.13349E-26
7.14163E-02 1.91299E-26
7.36799E-02 1.71578E-26
7.59760E-02 1.53929E-26
7.83043E-02 1.38125E-26
8.06647E-02 1.23967E-26
8.30571E-02 1.11277E-26
8.54812E-02 9.98989E-27
8.79369E-02 8.96924E-27
9.04240E-02 8.05341E-27
9.29422E-02 7.23137E-27
9.54915E-02 6.49332E-27
9.80716E-02 5.83052E-27
1.00682E-01 5.23518E-27
1.03323E-01 4.70035E-27
1.05995E-01 4.21981E-27
1.08696E-01 3.78800E-27
1.11427E-01 3.39996E-27
1.14188E-01 3.05122E-27
1.16978E-01 2.73781E-27
1.19797E-01 2.45614E-27
1.22645E-01 2.20302E-27
1.25522E-01 1.97555E-27
1.28428E-01 1.77117E-27
1.31361E-01 1.58755E-27
1.34323E-01 1.42260E-27
1.37313E-01 1.27445E-27
1.40330E-01 1.14141E-27
1.43375E-01 1.02197E-27
1.46447E-01 9.14757E-28
1.49545E-01 8.18551E-28
1.52671E-01 7.32244E-28
1.55823E-01 6.54840E-28
1.59001E-01 5.85444E-28
1.62205E-01 5.23247E-28
1.65435E-01 4.67524E-28
1.68690E-01 4.17619E-28
1.71970E-01 3.72943E-28
1.75276E-01 3.32965E-28
1.78606E-01 2.97206E-28
1.81961E-01 2.65235E-28
1.85340E-01 2.36665E-28
1.88743E-01 2.11146E-28
1.92169E-01 1.88364E-28
1.95619E-01 1.68035E-28
1.99092E-01 1.49904E-28
2.02589E-01 1.33743E-28
2.06107E-01 1.19345E-28
2.09649E-01 1.06524E-28
2.13212E-01 9.51143E-29
2.16797E-01 8.49655E-29
2.20404E-01 7.59431E-29
2.24032E-01 6.79262E-29
2.27680E-01 6.08064E-29
2.31350E-01 5.44863E-29
2.35040E-01 4.88786E-29
2.38751E-01 4.39051E-29
2.42481E-01 3.94958E-29
2.46231E-01 3.55878E-29
2.50000E-01 3.21252E-29
2.53788E-01 2.90578E-29
2.57595E-01 2.63407E-29
2.61421E-01 2.39338E-29
2.65264E-01 2.18016E-29
2.69126E-01 1.99122E-29
2.73005E-01 1.82373E-29
2.76901E-01 1.67516E-29
2.80814E-01 1.54328E-29
2.84744E-01 1.42609E-29
2.88691E-01 1.32183E-29
2.92653E-01 1.22894E-29
2.96632E-01 1.14603E-29
3.00625E-01 1.07187E-29
3.04634E-01 1.00540E-29
3.08658E-01 9.45643E-30
3.12697E-01 8.91774E-30
3.16749E-01 8.43052E-30
3.20816E-01 7.98829E-30
3.24896E-01 7.58537E-30
3.28990E-01 7.21681E-30
3.33097E-01 6.87825E-30
3.37216E-01 6.56592E-30
3.41348E-01 6.27652E-30
3.45492E-01 6.00720E-30
3.49647E-01 5.75548E-30
3.53814E-01 5.51922E-30
3.57992E-01 5.29657E-30
3.62181E-01 5.08594E-30
3.66381E-01 4.88597E-30
3.70590E-01 4.69549E-30
3.74810E-01 4.51350E-30
3.79039E-01 4.33915E-30
3.83277E-01 4.17173E-30
3.87524E-01 4.01062E-30
3.91780E-01 3.85531E-30
3.96044E-01 3.70536E-30
4.00316E-01 3.56040E-30
4.04596E-01 3.42015E-30
4.08882E-01 3.28433E-30
4.13176E-01 3.15273E-30
4.17476E-01 3.02518E-30
4.21783E-01 2.90152E-30
4.26095E-01 2.78162E-30
4.30413E-01 2.66539E-30
4.34737E-01 2.55272E-30
4.39065E-01 2.44354E-30
4.43398E-01 2.33777E-30
4.47736E-01 2.23536E-30
4.52077E-01 2.13624E-30
4.56422E-01 2.04036E-30
4.60770E-01 1.94767E-30
4.65122E-01 1.85812E-30
4.69476E-01 1.77166E-30
4.73832E-01 1.68824E-30
4.78190E-01 1.60780E-30
4.82550E-01 1.53029E-30
4.86912E-01 1.45567E-30
4.91274E-01 1.38387E-30
4.95637E-01 1.31484E-30
5.00000E-01 1.24852E-30
5.04363E-01 1.18486E-30
5.08726E-01 1.12378E-30
5.13088E-01 1.06524E-30
5.17450E-01 1.00916E-30
5.21810E-01 9.55475E-31
5.26168E-01 9.04129E-31
5.30524E-01 8.55051E-31
5.34878E-01 8.08175E-31
5.39230E-01 7.63433E-31
5.43578E-01 7.20760E-31
5.47923E-01 6.80086E-31
5.52264E-01 6.41347E-31
5.56602E-01 6.04474E-31
5.60935E-01 5.69402E-31
5.65263E-01 5.36066E-31
5.69587E-01 5.04399E-31
5.73905E-01 4.74340E-31
5.78217E-01 4.45825E-31
5.82524E-01 4.18792E-31
5.86824E-01 3.93181E-31
5.91118E-01 3.68932E-31
5.95404E-01 3.45988E-31
5.99684E-01 3.24293E-31
6.03956E-01 3.03790E-31
6.08220E-01 2.84428E-31
6.12476E-01 2.66153E-31
6.16723E-01 2.48915E-31
6.20961E-01 2.32666E-31
6.25190E-01 2.17358E-31
6.29410E-01 2.02945E-31
6.33619E-01 1.89384E-31
6.37819E-01 1.76631E-31
6.42008E-01 1.64647E-31
6.46186E-01 1.53391E-31
6.50353E-01 1.42826E-31
6.54508E-01 1.32915E-31
6.58652E-01 1.23623E-31
6.62784E-01 1.14918E-31
6.66903E-01 1.06767E-31
6.71010E-01 9.91391E-32
6.75104E-01 9.20056E-32
6.79184E-01 8.53386E-32
6.83251E-01 7.91113E-32
6.87303E-01 7.32985E-32
6.91342E-01 6.78759E-32
6.95366E-01 6.28206E-32
6.99375E-01 5.81108E-32
7.03368E-01 5.37256E-32
7.07347E-01 4.96453E-32
7.11309E-01 4.58513E-32
7.15256E-01 4.23258E-32
7.19186E-01 3.90520E-32
7.23099E-01 3.60140E-32
7.26995E-01 3.31968E-32
7.30874E-01 3.05862E-32
7.34736E-01 2.81686E-32
7.38579E-01 2.59316E-32
7.42405E-01 2.38629E-32
7.46212E-01 2.19516E-32
7.50000E-01 2.01867E-32
7.53769E-01 1.85585E-32
7.57519E-01 1.70575E-32
7.61249E-01 1.56748E-32
7.64960E-01 1.44021E-32
7.68650E-01 1.32316E-32
7.72320E-01 1.21560E-32
7.75968E-01 1.11685E-32
7.79596E-01 1.02626E-32
7.83203E-01 9.43219E-33
7.86788E-01 8.67175E-33
7.90351E-01 7.97598E-33
7.93893E-01 7.33995E-33
7.97411E-01 6.75906E-33
8.00908E-01 6.22901E-33
8.04381E-01 5.74580E-33
8.07831E-01 5.30571E-33
8.11257E-01 4.90524E-33
8.14660E-01 4.54120E-33
8.18039E-01 4.21054E-33
8.21394E-01 3.91050E-33
8.24724E-01 3.63848E-33
8.28030E-01 3.39207E-33
8.31310E-01 3.16905E-33
8.34565E-01 2.96737E-33
8.37795E-01 2.78510E-33
8.40999E-01 2.62049E-33
8.44177E-01 2.47191E-33
8.47329E-01 2.33787E-33
8.50455E-01 2.21697E-33
8.53553E-01 2.10794E-33
8.56625E-01 2.00961E-33
8.59670E-01 1.92092E-33
8.62687E-01 1.84085E-33
8.65677E-01 1.76854E-33
8.68639E-01 1.70313E-33
8.71572E-01 1.64388E-33
8.74478E-01 1.59009E-33
8.77355E-01 1.54114E-33
8.80203E-01 1.49646E-33
8.83022E-01 1.45553E-33
8.85812E-01 1.41789E-33
8.88573E-01 1.38310E-33
8.91304E-01 1.35079E-33
8.94005E-01 1.32060E-33
8.96677E-01 1.29224E-33
8.99318E-01 1.26542E-33
9.01928E-01 1.23990E-33
9.04508E-01 1.21545E-33
9.07058E-01 1.19190E-33
9.09576E-01 1.16905E-33
9.12063E-01 1.14677E-33
9.14519E-01 1.12492E-33
9.16943E-01 1.10340E-33
9.19335E-01 1.08209E-33
9.21696E-01 1.06092E-33
9.24024E-01 1.03983E-33
9.26320E-01 1.01874E-33
9.28584E-01 9.97615E-34
9.30815E-01 9.76419E-34
9.33013E-01 9.55117E-34
9.35178E-01 9.33688E-34
9.37310E-01 9.12124E-34
9.39409E-01 8.90413E-34
9.41474E-01 8.68551E-34
9.43505E-01 8.46546E-34
9.45503E-01 8.24394E-34
9.47467E-01 8.02117E-34
9.49397E-01 7.79724E-34
9.51293E-01 7.57226E-34
9.53154E-01 7.34648E-34
9.54981E-01 7.12007E-34
9.56773E-01 6.89324E-34
9.58530E-01 6.66630E-34
9.60252E-01 6.43941E-34
9.61940E-01 6.21288E-34
9.63592E-01 5.98695E-34
9.65209E-01 5.76190E-34
9.66790E-01 5.53796E-34
9.68336E-01 5.31542E-34
9.69846E-01 5.09456E-34
9.71321E-01 4.87563E-34
9.72759E-01 4.65890E-34
9.74162E-01 4.44463E-34
9.75528E-01 4.23309E-34
9.76858E-01 4.02449E-34
9.78152E-01 3.81911E-34
9.79410E-01 3.61719E-34
9.80631E-01 3.41893E-34
9.81815E-01 3.22458E-34
9.82963E-01 3.03436E-34
9.84074E-01 2.84847E-34
9.85148E-01 2.66707E-34
9.86185E-01 2.49041E-34
9.87185E-01 2.31866E-34
9.88148E-01 2.15199E-34
9.89074E-01 1.99058E-34
9.89962E-01 1.83459E-34
9.90814E-01 1.68416E-34
9.91627E-01 1.53944E-34
9.92404E-01 1.40058E-34
9.93143E-01 1.26771E-34
9.93844E-01 1.14094E-34
9.94508E-01 1.02038E-34
9.95134E-01 9.06162E-35
9.95722E-01 7.98364E-35
9.96273E-01 6.97115E-35
9.96786E-01 6.02461E-35
9.97261E-01 5.14512E-35
9.97698E-01 4.33319E-35
9.98097E-01 3.58963E-35
9.98459E-01 2.91529E-35
9.98782E-01 2.31026E-35
9.99067E-01 1.77540E-35
9.99315E-01 1.31084E-35
9.99524E-01 9.17231E-36
9.99695E-01 5.94731E-36
9.99829E-01 3.43612E-36
9.99924E-01 1.64168E-36
9.99981E-01 5.63798E-37
1.00000E+00 2.05093E-37
