 #
 # Subroutine ELSEPA. Elastic scattering of electrons and positrons
 #                    by neutral atoms and positive ions
 #
 # Projectile: positron
 # Kinetic energy = 4.50000E+08 eV = 1.65372E+07 a.u.
 #
 # WARNING: High-energy factorization with free-atom DF screening.
 #          Absorption, polarization and exchange corrections are
 #          switched off.
 #          Phase shifts are calculated for the bare nucleus.
 #          Scattering amplitudes are not evaluated.
 #
 # Element: In,  Z =  49,  atomic weight = 1.14818E+02 g/mol
 #
 # Nuclear model: Fermi distribution
 #                Average radius = 5.20060E-13 cm
 #                Skin thickness = 5.46000E-14 cm
 #
 # Number of electrons = 49
 #
 # Total elastic cross section = 4.81916E-18 cm**2 = 1.72095E-01 a0**2
 # 1st transport cross section = 2.31812E-26 cm**2 = 8.27815E-10 a0**2
 # 2nd transport cross section = 6.95080E-26 cm**2 = 2.48218E-09 a0**2
 #
 #
 # Differential cross section:                       MU=(1-COS(THETA))/2
 #
 #  THETA        MU          DCS          DCS        Sherman      error
 #  (deg)                 (cm**2/sr)   (a0**2/sr)    function
 #----------------------------------------------------------------------
0.00000E+00 8.41390E-09
7.61557E-13 7.93881E-09
1.18994E-12 7.69247E-09
1.71346E-12 7.40994E-09
2.33225E-12 7.09937E-09
3.04617E-12 6.76964E-09
3.85530E-12 6.42874E-09
4.75964E-12 6.08377E-09
5.75917E-12 5.74077E-09
6.85391E-12 5.40381E-09
8.04379E-12 5.07730E-09
9.32893E-12 4.76415E-09
1.07092E-11 4.46628E-09
1.21847E-11 4.18479E-09
1.37554E-11 3.91999E-09
1.54213E-11 3.67147E-09
1.71823E-11 3.43962E-09
1.90386E-11 3.22386E-09
2.09900E-11 3.02344E-09
2.30367E-11 2.83751E-09
2.51785E-11 2.66469E-09
2.74156E-11 2.50431E-09
2.97478E-11 2.35571E-09
3.21752E-11 2.21798E-09
3.46979E-11 2.09026E-09
3.73157E-11 1.97172E-09
4.00286E-11 1.86116E-09
4.28368E-11 1.75839E-09
4.57402E-11 1.66278E-09
4.87388E-11 1.57373E-09
5.18325E-11 1.49070E-09
5.50215E-11 1.41300E-09
5.83057E-11 1.34019E-09
6.16850E-11 1.27206E-09
6.51595E-11 1.20826E-09
6.87293E-11 1.14843E-09
7.23943E-11 1.09227E-09
7.61544E-11 1.03923E-09
1.18991E-10 6.44822E-10
1.71347E-10 4.17287E-10
2.33223E-10 2.75668E-10
3.04617E-10 1.87654E-10
3.85531E-10 1.31268E-10
4.75965E-10 9.42473E-11
5.75917E-10 6.94035E-11
6.85389E-10 5.22965E-11
8.04380E-10 4.03202E-11
9.32891E-10 3.17196E-11
1.07092E-09 2.53899E-11
1.21847E-09 2.06259E-11
1.37554E-09 1.69615E-11
1.54213E-09 1.40819E-11
1.71823E-09 1.17957E-11
1.90386E-09 9.95645E-12
2.09900E-09 8.45973E-12
2.30367E-09 7.22987E-12
2.51785E-09 6.20718E-12
2.74156E-09 5.35460E-12
2.97478E-09 4.63895E-12
3.21752E-09 4.03554E-12
3.46978E-09 3.52503E-12
3.73156E-09 3.09112E-12
4.00286E-09 2.71995E-12
4.28368E-09 2.40224E-12
4.57402E-09 2.12913E-12
4.87388E-09 1.89338E-12
5.18326E-09 1.68911E-12
5.50215E-09 1.51134E-12
5.83057E-09 1.35620E-12
6.16850E-09 1.22049E-12
6.51596E-09 1.10141E-12
6.87293E-09 9.96613E-13
7.23942E-09 9.04104E-13
7.61544E-09 8.22156E-13
1.18991E-08 3.55502E-13
1.71347E-08 1.78715E-13
2.33223E-08 9.93975E-14
3.04617E-08 5.95000E-14
3.85531E-08 3.76998E-14
4.75965E-08 2.50035E-14
5.75917E-08 1.72191E-14
6.85389E-08 1.22384E-14
8.04380E-08 8.93444E-15
9.32891E-08 6.67409E-15
1.07092E-07 5.08581E-15
1.21847E-07 3.94346E-15
1.37554E-07 3.10483E-15
1.54213E-07 2.47793E-15
1.71823E-07 2.00168E-15
1.90386E-07 1.63460E-15
2.09900E-07 1.34799E-15
2.30367E-07 1.12155E-15
2.51785E-07 9.40731E-16
2.74156E-07 7.94930E-16
2.97478E-07 6.76310E-16
3.21752E-07 5.79009E-16
3.46978E-07 4.98589E-16
3.73156E-07 4.31652E-16
4.00286E-07 3.75576E-16
4.28368E-07 3.28312E-16
4.57402E-07 2.88250E-16
4.87388E-07 2.54112E-16
5.18325E-07 2.24878E-16
5.50215E-07 1.99727E-16
5.83057E-07 1.77993E-16
6.16850E-07 1.59134E-16
6.51596E-07 1.42707E-16
6.87293E-07 1.28343E-16
7.23942E-07 1.15741E-16
7.61543E-07 1.04647E-16
1.18991E-06 4.30145E-17
1.71347E-06 2.07819E-17
2.33223E-06 1.12289E-17
3.04617E-06 6.58600E-18
3.85531E-06 4.11296E-18
4.75964E-06 2.69899E-18
5.75916E-06 1.84360E-18
6.85388E-06 1.30173E-18
8.04378E-06 9.45064E-19
9.32888E-06 7.02585E-19
1.07092E-05 5.33103E-19
1.21846E-05 4.11770E-19
1.37553E-05 3.23067E-19
1.54212E-05 2.57008E-19
1.71822E-05 2.06999E-19
1.90385E-05 1.68536E-19
2.09899E-05 1.38681E-19
2.30365E-05 1.15143E-19
2.51783E-05 9.63781E-20
2.74153E-05 8.12723E-20
2.97475E-05 6.90069E-20
3.21749E-05 5.89689E-20
3.46974E-05 5.06934E-20
3.73152E-05 4.38231E-20
4.00281E-05 3.80804E-20
4.28362E-05 3.32492E-20
4.57395E-05 2.91602E-20
4.87380E-05 2.56797E-20
5.18317E-05 2.27019E-20
5.50205E-05 2.01427E-20
5.83045E-05 1.79336E-20
6.16838E-05 1.60191E-20
6.51582E-05 1.43536E-20
6.87277E-05 1.28993E-20
7.23925E-05 1.16249E-20
7.61524E-05 1.05237E-20
9.21439E-05 7.18101E-21
1.09658E-04 5.06428E-21
1.28695E-04 3.67210E-21
1.49255E-04 2.72587E-21
1.71338E-04 2.06503E-21
1.94942E-04 1.59216E-21
2.20070E-04 1.24670E-21
2.46720E-04 9.89639E-22
2.74892E-04 7.95175E-22
3.04586E-04 6.45930E-22
3.35803E-04 5.29856E-22
3.68542E-04 4.38516E-22
4.02802E-04 3.65857E-22
4.38585E-04 3.07488E-22
4.75889E-04 2.60178E-22
5.14715E-04 2.21512E-22
5.55063E-04 1.89672E-22
5.96931E-04 1.63266E-22
6.40321E-04 1.41224E-22
6.85233E-04 1.22713E-22
7.31665E-04 1.07080E-22
7.79618E-04 9.38080E-23
8.29092E-04 8.24840E-23
8.80086E-04 7.27778E-23
9.32601E-04 6.44220E-23
9.86636E-04 5.71992E-23
1.04219E-03 5.09320E-23
1.09927E-03 4.54740E-23
1.15786E-03 4.07044E-23
1.21797E-03 3.65229E-23
1.27961E-03 3.28456E-23
1.34276E-03 2.96024E-23
1.40743E-03 2.67339E-23
1.47362E-03 2.41904E-23
1.54133E-03 2.19292E-23
1.61056E-03 1.99142E-23
1.68131E-03 1.81145E-23
1.75357E-03 1.65037E-23
1.82735E-03 1.50588E-23
1.90265E-03 1.37603E-23
1.97947E-03 1.25911E-23
2.05780E-03 1.15364E-23
2.13765E-03 1.05833E-23
2.21902E-03 9.72059E-24
2.30190E-03 8.93849E-24
2.38630E-03 8.22834E-24
2.47222E-03 7.58259E-24
2.55965E-03 6.99456E-24
2.64859E-03 6.45836E-24
2.73905E-03 5.96878E-24
2.83103E-03 5.52121E-24
2.92452E-03 5.11155E-24
3.01952E-03 4.73615E-24
3.11604E-03 4.39175E-24
3.21407E-03 4.07546E-24
3.31362E-03 3.78468E-24
3.41468E-03 3.51708E-24
3.51725E-03 3.27058E-24
3.62133E-03 3.04330E-24
3.72692E-03 2.83356E-24
3.83403E-03 2.63982E-24
3.94265E-03 2.46073E-24
4.05278E-03 2.29503E-24
4.16442E-03 2.14161E-24
4.27757E-03 1.99945E-24
4.39223E-03 1.86763E-24
4.50840E-03 1.74531E-24
4.62608E-03 1.63173E-24
4.74527E-03 1.52619E-24
4.86597E-03 1.42806E-24
4.98817E-03 1.33677E-24
5.11188E-03 1.25179E-24
5.23711E-03 1.17264E-24
5.36383E-03 1.09887E-24
5.49207E-03 1.03009E-24
5.62181E-03 9.65920E-25
5.75306E-03 9.06027E-25
5.88581E-03 8.50097E-25
6.02007E-03 7.97843E-25
6.15583E-03 7.49003E-25
6.29310E-03 7.03333E-25
6.43187E-03 6.60609E-25
6.57214E-03 6.20626E-25
6.71392E-03 5.83192E-25
6.85720E-03 5.48133E-25
7.00198E-03 5.15286E-25
7.14827E-03 4.84500E-25
7.29605E-03 4.55636E-25
7.44534E-03 4.28566E-25
7.59612E-03 4.03170E-25
7.97965E-03 3.46298E-25
8.37255E-03 2.97695E-25
8.77480E-03 2.56093E-25
9.18641E-03 2.20433E-25
9.60736E-03 1.89827E-25
1.00376E-02 1.63528E-25
1.04773E-02 1.40909E-25
1.09262E-02 1.21437E-25
1.13844E-02 1.04662E-25
1.18520E-02 9.02020E-26
1.23288E-02 7.77304E-26
1.28150E-02 6.69697E-26
1.33104E-02 5.76826E-26
1.38150E-02 4.96656E-26
1.43290E-02 4.27446E-26
1.48521E-02 3.67698E-26
1.53845E-02 3.16124E-26
1.59262E-02 2.71614E-26
1.64770E-02 2.33213E-26
1.70371E-02 2.00095E-26
1.76063E-02 1.71546E-26
1.81848E-02 1.46952E-26
1.87724E-02 1.25777E-26
1.93692E-02 1.07559E-26
1.99751E-02 9.19000E-27
2.05901E-02 7.84517E-27
2.12143E-02 6.69138E-27
2.18476E-02 5.70258E-27
2.24900E-02 4.85616E-27
2.31415E-02 4.13254E-27
2.38021E-02 3.51472E-27
2.44717E-02 2.98797E-27
2.51504E-02 2.53953E-27
2.58382E-02 2.15836E-27
2.65349E-02 1.83488E-27
2.72407E-02 1.56082E-27
2.79555E-02 1.32901E-27
2.86793E-02 1.13327E-27
2.94120E-02 9.68275E-28
3.01537E-02 8.29423E-28
3.09043E-02 7.12758E-28
3.16639E-02 6.14879E-28
3.24324E-02 5.32865E-28
3.32098E-02 4.64217E-28
3.39961E-02 4.06797E-28
3.47912E-02 3.58779E-28
3.55952E-02 3.18611E-28
3.64081E-02 2.84973E-28
3.72297E-02 2.56749E-28
3.80602E-02 2.32995E-28
3.88995E-02 2.12918E-28
3.97476E-02 1.95854E-28
4.06044E-02 1.81245E-28
4.14700E-02 1.68632E-28
4.23443E-02 1.57632E-28
4.32273E-02 1.47932E-28
4.41190E-02 1.39274E-28
4.50194E-02 1.31451E-28
4.59284E-02 1.24295E-28
4.68461E-02 1.17673E-28
4.87074E-02 1.05631E-28
5.06030E-02 9.47403E-29
5.25328E-02 8.46676E-29
5.44967E-02 7.52448E-29
5.64946E-02 6.64043E-29
5.85262E-02 5.81346E-29
6.05914E-02 5.04513E-29
6.26901E-02 4.33778E-29
6.48222E-02 3.69340E-29
6.69873E-02 3.11300E-29
6.91854E-02 2.59636E-29
7.14163E-02 2.14199E-29
7.36799E-02 1.74729E-29
7.59760E-02 1.40871E-29
7.83043E-02 1.12197E-29
8.06647E-02 8.82365E-30
8.30571E-02 6.84897E-30
8.54812E-02 5.24533E-30
8.79369E-02 3.96335E-30
9.04240E-02 2.95594E-30
9.29422E-02 2.17923E-30
9.54915E-02 1.59314E-30
9.80716E-02 1.16183E-30
1.00682E-01 8.53785E-31
1.03323E-01 6.41799E-31
1.05995E-01 5.02811E-31
1.08696E-01 4.17629E-31
1.11427E-01 3.70598E-31
1.14188E-01 3.49220E-31
1.16978E-01 3.43766E-31
1.19797E-01 3.46881E-31
1.22645E-01 3.53207E-31
1.25522E-01 3.59032E-31
1.28428E-01 3.61971E-31
1.31361E-01 3.60673E-31
1.34323E-01 3.54581E-31
1.37313E-01 3.43709E-31
1.40330E-01 3.28473E-31
1.43375E-01 3.09542E-31
1.46447E-01 2.87721E-31
1.49545E-01 2.63867E-31
1.52671E-01 2.38820E-31
1.55823E-01 2.13357E-31
1.59001E-01 1.88164E-31
1.62205E-01 1.63818E-31
1.65435E-01 1.40776E-31
1.68690E-01 1.19385E-31
1.71970E-01 9.98803E-32
1.75276E-01 8.23991E-32
1.78606E-01 6.69942E-32
1.81961E-01 5.36468E-32
1.85340E-01 4.22803E-32
1.88743E-01 3.27746E-32
1.92169E-01 2.49779E-32
1.95619E-01 1.87186E-32
1.99092E-01 1.38145E-32
2.02589E-01 1.00809E-32
2.06107E-01 7.33747E-33
2.09649E-01 5.41305E-33
2.13212E-01 4.14930E-33
2.16797E-01 3.40325E-33
2.20404E-01 3.04865E-33
2.24032E-01 2.97652E-33
2.27680E-01 3.09496E-33
2.31350E-01 3.32844E-33
2.35040E-01 3.61665E-33
2.38751E-01 3.91309E-33
2.42481E-01 4.18348E-33
2.46231E-01 4.40415E-33
2.50000E-01 4.56032E-33
2.53788E-01 4.64456E-33
2.57595E-01 4.65525E-33
2.61421E-01 4.59525E-33
2.65264E-01 4.47068E-33
2.69126E-01 4.28985E-33
2.73005E-01 4.06238E-33
2.76901E-01 3.79848E-33
2.80814E-01 3.50833E-33
2.84744E-01 3.20169E-33
2.88691E-01 2.88750E-33
2.92653E-01 2.57370E-33
2.96632E-01 2.26710E-33
3.00625E-01 1.97332E-33
3.04634E-01 1.69676E-33
3.08658E-01 1.44072E-33
3.12697E-01 1.20739E-33
3.16749E-01 9.98051E-34
3.20816E-01 8.13127E-34
3.24896E-01 6.52345E-34
3.28990E-01 5.14861E-34
3.33097E-01 3.99374E-34
3.37216E-01 3.04254E-34
3.41348E-01 2.27639E-34
3.45492E-01 1.67535E-34
3.49647E-01 1.21889E-34
3.53814E-01 8.86660E-35
3.57992E-01 6.58942E-35
3.62181E-01 5.17146E-35
3.66381E-01 4.44087E-35
3.70590E-01 4.24205E-35
3.74810E-01 4.43692E-35
3.79039E-01 4.90532E-35
3.83277E-01 5.54509E-35
3.87524E-01 6.27118E-35
3.91780E-01 7.01496E-35
3.96044E-01 7.72260E-35
4.00316E-01 8.35388E-35
4.04596E-01 8.88054E-35
4.08882E-01 9.28465E-35
4.13176E-01 9.55692E-35
4.17476E-01 9.69540E-35
4.21783E-01 9.70390E-35
4.26095E-01 9.59056E-35
4.30413E-01 9.36691E-35
4.34737E-01 9.04664E-35
4.39065E-01 8.64475E-35
4.43398E-01 8.17683E-35
4.47736E-01 7.65831E-35
4.52077E-01 7.10411E-35
4.56422E-01 6.52814E-35
4.60770E-01 5.94319E-35
4.65122E-01 5.36052E-35
4.69476E-01 4.78990E-35
4.73832E-01 4.23952E-35
4.78190E-01 3.71606E-35
4.82550E-01 3.22472E-35
4.86912E-01 2.76925E-35
4.91274E-01 2.35217E-35
4.95637E-01 1.97485E-35
5.00000E-01 1.63761E-35
5.04363E-01 1.33999E-35
5.08726E-01 1.08075E-35
5.13088E-01 8.58113E-36
5.17450E-01 6.69821E-36
5.21810E-01 5.13327E-36
5.26168E-01 3.85845E-36
5.30524E-01 2.84462E-36
5.34878E-01 2.06234E-36
5.39230E-01 1.48249E-36
5.43578E-01 1.07676E-36
5.47923E-01 8.18174E-37
5.52264E-01 6.81471E-37
5.56602E-01 6.43319E-37
5.60935E-01 6.82510E-37
5.65263E-01 7.79986E-37
5.69587E-01 9.18985E-37
5.73905E-01 1.08495E-36
5.78217E-01 1.26539E-36
5.82524E-01 1.44992E-36
5.86824E-01 1.63005E-36
5.91118E-01 1.79892E-36
5.95404E-01 1.95153E-36
5.99684E-01 2.08399E-36
6.03956E-01 2.19376E-36
6.08220E-01 2.27947E-36
6.12476E-01 2.34071E-36
6.16723E-01 2.37747E-36
6.20961E-01 2.39082E-36
6.25190E-01 2.38201E-36
6.29410E-01 2.35295E-36
6.33619E-01 2.30540E-36
6.37819E-01 2.24157E-36
6.42008E-01 2.16375E-36
6.46186E-01 2.07426E-36
6.50353E-01 1.97522E-36
6.54508E-01 1.86890E-36
6.58652E-01 1.75722E-36
6.62784E-01 1.64221E-36
6.66903E-01 1.52548E-36
6.71010E-01 1.40872E-36
6.75104E-01 1.29318E-36
6.79184E-01 1.18016E-36
6.83251E-01 1.07063E-36
6.87303E-01 9.65424E-37
6.91342E-01 8.65221E-37
6.95366E-01 7.70596E-37
6.99375E-01 6.81883E-37
7.03368E-01 5.99320E-37
7.07347E-01 5.23082E-37
7.11309E-01 4.53175E-37
7.15256E-01 3.89558E-37
7.19186E-01 3.32099E-37
7.23099E-01 2.80551E-37
7.26995E-01 2.34743E-37
7.30874E-01 1.94330E-37
7.34736E-01 1.59003E-37
7.38579E-01 1.28428E-37
7.42405E-01 1.02252E-37
7.46212E-01 8.01089E-38
7.50000E-01 6.16379E-38
7.53769E-01 4.64849E-38
7.57519E-01 3.42968E-38
7.61249E-01 2.47491E-38
7.64960E-01 1.75172E-38
7.68650E-01 1.23049E-38
7.72320E-01 8.82829E-39
7.75968E-01 6.82591E-39
7.79596E-01 6.05899E-39
7.83203E-01 6.31013E-39
7.86788E-01 7.37455E-39
7.90351E-01 9.08804E-39
7.93893E-01 1.12800E-38
7.97411E-01 1.38188E-38
8.00908E-01 1.65723E-38
8.04381E-01 1.94555E-38
8.07831E-01 2.23642E-38
8.11257E-01 2.52233E-38
8.14660E-01 2.79932E-38
8.18039E-01 3.05951E-38
8.21394E-01 3.30075E-38
8.24724E-01 3.52057E-38
8.28030E-01 3.71557E-38
8.31310E-01 3.88502E-38
8.34565E-01 4.02976E-38
8.37795E-01 4.14696E-38
8.40999E-01 4.23907E-38
8.44177E-01 4.30542E-38
8.47329E-01 4.34793E-38
8.50455E-01 4.36730E-38
8.53553E-01 4.36544E-38
8.56625E-01 4.34325E-38
8.59670E-01 4.30262E-38
8.62687E-01 4.24449E-38
8.65677E-01 4.17323E-38
8.68639E-01 4.08726E-38
8.71572E-01 3.99092E-38
8.74478E-01 3.88286E-38
8.77355E-01 3.76712E-38
8.80203E-01 3.64425E-38
8.83022E-01 3.51622E-38
8.85812E-01 3.38441E-38
8.88573E-01 3.24920E-38
8.91304E-01 3.11187E-38
8.94005E-01 2.97305E-38
8.96677E-01 2.83527E-38
8.99318E-01 2.69762E-38
9.01928E-01 2.56192E-38
9.04508E-01 2.42817E-38
9.07058E-01 2.29732E-38
9.09576E-01 2.16857E-38
9.12063E-01 2.04522E-38
9.14519E-01 1.92449E-38
9.16943E-01 1.80853E-38
9.19335E-01 1.69673E-38
9.21696E-01 1.58913E-38
9.24024E-01 1.48657E-38
9.26320E-01 1.38841E-38
9.28584E-01 1.29461E-38
9.30815E-01 1.20586E-38
9.33013E-01 1.12128E-38
9.35178E-01 1.04096E-38
9.37310E-01 9.65590E-39
9.39409E-01 8.94361E-39
9.41474E-01 8.27247E-39
9.43505E-01 7.64576E-39
9.45503E-01 7.05191E-39
9.47467E-01 6.50171E-39
9.49397E-01 5.98944E-39
9.51293E-01 5.50661E-39
9.53154E-01 5.05918E-39
9.54981E-01 4.64173E-39
9.56773E-01 4.25147E-39
9.58530E-01 3.89478E-39
9.60252E-01 3.56124E-39
9.61940E-01 3.25354E-39
9.63592E-01 2.96981E-39
9.65209E-01 2.70822E-39
9.66790E-01 2.46602E-39
9.68336E-01 2.24223E-39
9.69846E-01 2.03621E-39
9.71321E-01 1.84728E-39
9.72759E-01 1.67381E-39
9.74162E-01 1.51479E-39
9.75528E-01 1.37019E-39
9.76858E-01 1.23597E-39
9.78152E-01 1.11414E-39
9.79410E-01 1.00393E-39
9.80631E-01 9.02557E-40
9.81815E-01 8.10077E-40
9.82963E-01 7.27237E-40
9.84074E-01 6.52732E-40
9.85148E-01 5.81867E-40
9.86185E-01 5.19295E-40
9.87185E-01 4.62548E-40
9.88148E-01 4.10572E-40
9.89074E-01 3.64456E-40
9.89962E-01 3.22801E-40
9.90814E-01 2.84933E-40
9.91627E-01 2.50238E-40
9.92404E-01 2.19597E-40
9.93143E-01 1.92184E-40
9.93844E-01 1.66962E-40
9.94508E-01 1.43794E-40
9.95134E-01 1.23979E-40
9.95722E-01 1.05481E-40
9.96273E-01 9.00310E-41
9.96786E-01 7.54316E-41
9.97261E-01 6.30297E-41
9.97698E-01 5.13619E-41
9.98097E-01 4.11436E-41
9.98459E-01 3.33675E-41
9.98782E-01 2.55990E-41
9.99067E-01 1.96090E-41
9.99315E-01 1.38936E-41
9.99524E-01 9.65282E-42
9.99695E-01 6.13802E-42
9.99829E-01 3.37175E-42
9.99924E-01 1.71739E-42
9.99981E-01 4.44653E-43
1.00000E+00 8.38732E-43
