 #
 # Subroutine ELSEPA. Elastic scattering of electrons and positrons
 #                    by neutral atoms and positive ions
 #
 # Projectile: positron
 # Kinetic energy = 7.00000E+08 eV = 2.57245E+07 a.u.
 #
 # WARNING: High-energy factorization with free-atom DF screening.
 #          Absorption, polarization and exchange corrections are
 #          switched off.
 #          Phase shifts are calculated for the bare nucleus.
 #          Scattering amplitudes are not evaluated.
 #
 # Element: In,  Z =  49,  atomic weight = 1.14818E+02 g/mol
 #
 # Nuclear model: Fermi distribution
 #                Average radius = 5.20060E-13 cm
 #                Skin thickness = 5.46000E-14 cm
 #
 # Number of electrons = 49
 #
 # Total elastic cross section = 4.81037E-18 cm**2 = 1.71782E-01 a0**2
 # 1st transport cross section = 9.60089E-27 cm**2 = 3.42854E-10 a0**2
 # 2nd transport cross section = 2.87966E-26 cm**2 = 1.02835E-09 a0**2
 #
 #
 # Differential cross section:                       MU=(1-COS(THETA))/2
 #
 #  THETA        MU          DCS          DCS        Sherman      error
 #  (deg)                 (cm**2/sr)   (a0**2/sr)    function
 #----------------------------------------------------------------------
0.00000E+00 2.03431E-08
7.61557E-13 1.77557E-08
1.18994E-12 1.65502E-08
1.71346E-12 1.52688E-08
2.33225E-12 1.39751E-08
3.04617E-12 1.27148E-08
3.85530E-12 1.15229E-08
4.75964E-12 1.04197E-08
5.75917E-12 9.41332E-09
6.85391E-12 8.50296E-09
8.04379E-12 7.68786E-09
9.32893E-12 6.96129E-09
1.07092E-11 6.31390E-09
1.21847E-11 5.73773E-09
1.37554E-11 5.22578E-09
1.54213E-11 4.77033E-09
1.71823E-11 4.36265E-09
1.90386E-11 3.99837E-09
2.09900E-11 3.67216E-09
2.30367E-11 3.37876E-09
2.51785E-11 3.11363E-09
2.74156E-11 2.87427E-09
2.97478E-11 2.65757E-09
3.21752E-11 2.46014E-09
3.46979E-11 2.28023E-09
3.73157E-11 2.11619E-09
4.00286E-11 1.96622E-09
4.28368E-11 1.82823E-09
4.57402E-11 1.70168E-09
4.87388E-11 1.57782E-09
5.18325E-11 1.46305E-09
5.50215E-11 1.36057E-09
5.83057E-11 1.26882E-09
6.16850E-11 1.18642E-09
6.51595E-11 1.11223E-09
6.87293E-11 1.04524E-09
7.23943E-11 9.84597E-10
7.61544E-11 9.19585E-10
1.18991E-10 4.93858E-10
1.71347E-10 2.83614E-10
2.33223E-10 1.73587E-10
3.04617E-10 1.12500E-10
3.85531E-10 7.67925E-11
4.75965E-10 5.46733E-11
5.75917E-10 4.02064E-11
6.85389E-10 3.02686E-11
8.04380E-10 2.32352E-11
9.32891E-10 1.81167E-11
1.07092E-09 1.42998E-11
1.21847E-09 1.14107E-11
1.37554E-09 9.19644E-12
1.54213E-09 7.48472E-12
1.71823E-09 6.14441E-12
1.90386E-09 5.08795E-12
2.09900E-09 4.24723E-12
2.30367E-09 3.57184E-12
2.51785E-09 3.02477E-12
2.74156E-09 2.57890E-12
2.97478E-09 2.21284E-12
3.21752E-09 1.91002E-12
3.46978E-09 1.65782E-12
3.73156E-09 1.44636E-12
4.00286E-09 1.26788E-12
4.28368E-09 1.11625E-12
4.57402E-09 9.86812E-13
4.87388E-09 8.75461E-13
5.18326E-09 7.79615E-13
5.50215E-09 6.96940E-13
5.83057E-09 6.24817E-13
6.16850E-09 5.61696E-13
6.51596E-09 5.06584E-13
6.87293E-09 4.58034E-13
7.23942E-09 4.15002E-13
7.61544E-09 3.77045E-13
1.18991E-08 1.60659E-13
1.71347E-08 7.92578E-14
2.33223E-08 4.33940E-14
3.04617E-08 2.56920E-14
3.85531E-08 1.61636E-14
4.75965E-08 1.06725E-14
5.75917E-08 7.32881E-15
6.85389E-08 5.19878E-15
8.04380E-08 3.78980E-15
9.32891E-08 2.82762E-15
1.07092E-07 2.15238E-15
1.21847E-07 1.66720E-15
1.37554E-07 1.31131E-15
1.54213E-07 1.04550E-15
1.71823E-07 8.43720E-16
1.90386E-07 6.88333E-16
2.09900E-07 5.67105E-16
2.30367E-07 4.71411E-16
2.51785E-07 3.95062E-16
2.74156E-07 3.33553E-16
2.97478E-07 2.83554E-16
3.21752E-07 2.42575E-16
3.46978E-07 2.08734E-16
3.73156E-07 1.80589E-16
4.00286E-07 1.57029E-16
4.28368E-07 1.37186E-16
4.57402E-07 1.20379E-16
4.87388E-07 1.06066E-16
5.18325E-07 9.38181E-17
5.50215E-07 8.32868E-17
5.83057E-07 7.41918E-17
6.16850E-07 6.63045E-17
6.51596E-07 5.94373E-17
6.87293E-07 5.34361E-17
7.23942E-07 4.81732E-17
7.61543E-07 4.35423E-17
1.18991E-06 1.78582E-17
1.71347E-06 8.61729E-18
2.33223E-06 4.65268E-18
3.04617E-06 2.72762E-18
3.85531E-06 1.70287E-18
4.75964E-06 1.11721E-18
5.75916E-06 7.63013E-19
6.85388E-06 5.38686E-19
8.04378E-06 3.91056E-19
9.32888E-06 2.90700E-19
1.07092E-05 2.20564E-19
1.21846E-05 1.70357E-19
1.37553E-05 1.33654E-19
1.54212E-05 1.06322E-19
1.71822E-05 8.56316E-20
1.90385E-05 6.97187E-20
2.09899E-05 5.73675E-20
2.30365E-05 4.76299E-20
2.51783E-05 3.98672E-20
2.74153E-05 3.36184E-20
2.97475E-05 2.85445E-20
3.21749E-05 2.43921E-20
3.46974E-05 2.09689E-20
3.73152E-05 1.81270E-20
4.00281E-05 1.57515E-20
4.28362E-05 1.37531E-20
4.57395E-05 1.20616E-20
4.87380E-05 1.06219E-20
5.18317E-05 9.39014E-21
5.50205E-05 8.33149E-21
5.83045E-05 7.41770E-21
6.16838E-05 6.62580E-21
6.51582E-05 5.93689E-21
6.87277E-05 5.33535E-21
7.23925E-05 4.80818E-21
7.61524E-05 4.33605E-21
9.21439E-05 2.95314E-21
1.09658E-04 2.07800E-21
1.28695E-04 1.50288E-21
1.49255E-04 1.11237E-21
1.71338E-04 8.39941E-22
1.94942E-04 6.45264E-22
2.20070E-04 5.03256E-22
2.46720E-04 3.97766E-22
2.74892E-04 3.18116E-22
3.04586E-04 2.57116E-22
3.35803E-04 2.09784E-22
3.68542E-04 1.72631E-22
4.02802E-04 1.43158E-22
4.38585E-04 1.19551E-22
4.75889E-04 1.00478E-22
5.14715E-04 8.49414E-23
5.55063E-04 7.21939E-23
5.96931E-04 6.16625E-23
6.40321E-04 5.29073E-23
6.85233E-04 4.55863E-23
7.31665E-04 3.94311E-23
7.79618E-04 3.42303E-23
8.29092E-04 2.98150E-23
8.80086E-04 2.60503E-23
9.32601E-04 2.28271E-23
9.86636E-04 2.00568E-23
1.04219E-03 1.76674E-23
1.09927E-03 1.55994E-23
1.15786E-03 1.38039E-23
1.21797E-03 1.22403E-23
1.27961E-03 1.08749E-23
1.34276E-03 9.67943E-24
1.40743E-03 8.63001E-24
1.47362E-03 7.70667E-24
1.54133E-03 6.89244E-24
1.61056E-03 6.17292E-24
1.68131E-03 5.53581E-24
1.75357E-03 4.97061E-24
1.82735E-03 4.46831E-24
1.90265E-03 4.02115E-24
1.97947E-03 3.62245E-24
2.05780E-03 3.26640E-24
2.13765E-03 2.94799E-24
2.21902E-03 2.66285E-24
2.30190E-03 2.40718E-24
2.38630E-03 2.17766E-24
2.47222E-03 1.97136E-24
2.55965E-03 1.78574E-24
2.64859E-03 1.61856E-24
2.73905E-03 1.46783E-24
2.83103E-03 1.33181E-24
2.92452E-03 1.20895E-24
3.01952E-03 1.09790E-24
3.11604E-03 9.97444E-25
3.21407E-03 9.06500E-25
3.31362E-03 8.24113E-25
3.41468E-03 7.49431E-25
3.51725E-03 6.81693E-25
3.62133E-03 6.20219E-25
3.72692E-03 5.64400E-25
3.83403E-03 5.13692E-25
3.94265E-03 4.67606E-25
4.05278E-03 4.25704E-25
4.16442E-03 3.87591E-25
4.27757E-03 3.52913E-25
4.39223E-03 3.21351E-25
4.50840E-03 2.92615E-25
4.62608E-03 2.66448E-25
4.74527E-03 2.42613E-25
4.86597E-03 2.20898E-25
4.98817E-03 2.01112E-25
5.11188E-03 1.83081E-25
5.23711E-03 1.66648E-25
5.36383E-03 1.51669E-25
5.49207E-03 1.38015E-25
5.62181E-03 1.25569E-25
5.75306E-03 1.14223E-25
5.88581E-03 1.03881E-25
6.02007E-03 9.44538E-26
6.15583E-03 8.58615E-26
6.29310E-03 7.80308E-26
6.43187E-03 7.08950E-26
6.57214E-03 6.43934E-26
6.71392E-03 5.84705E-26
6.85720E-03 5.30759E-26
7.00198E-03 4.81635E-26
7.14827E-03 4.36912E-26
7.29605E-03 3.96207E-26
7.44534E-03 3.59168E-26
7.59612E-03 3.25477E-26
7.97965E-03 2.54033E-26
8.37255E-03 1.97825E-26
8.77480E-03 1.53720E-26
9.18641E-03 1.19215E-26
9.60736E-03 9.23094E-27
1.00376E-02 7.14057E-27
1.04773E-02 5.52286E-27
1.09262E-02 4.27617E-27
1.13844E-02 3.31957E-27
1.18520E-02 2.58882E-27
1.23288E-02 2.03303E-27
1.28150E-02 1.61201E-27
1.33104E-02 1.29417E-27
1.38150E-02 1.05475E-27
1.43290E-02 8.74477E-28
1.48521E-02 7.38425E-28
1.53845E-02 6.35116E-28
1.59262E-02 5.55798E-28
1.64770E-02 4.93860E-28
1.70371E-02 4.44365E-28
1.76063E-02 4.03672E-28
1.81848E-02 3.69145E-28
1.87724E-02 3.38907E-28
1.93692E-02 3.11659E-28
1.99751E-02 2.86531E-28
2.05901E-02 2.62964E-28
2.12143E-02 2.40624E-28
2.18476E-02 2.19332E-28
2.24900E-02 1.99013E-28
2.31415E-02 1.79658E-28
2.38021E-02 1.61293E-28
2.44717E-02 1.43961E-28
2.51504E-02 1.27708E-28
2.58382E-02 1.12574E-28
2.65349E-02 9.85842E-29
2.72407E-02 8.57518E-29
2.79555E-02 7.40726E-29
2.86793E-02 6.35275E-29
2.94120E-02 5.40828E-29
3.01537E-02 4.56931E-29
3.09043E-02 3.83026E-29
3.16639E-02 3.18482E-29
3.24324E-02 2.62609E-29
3.32098E-02 2.14685E-29
3.39961E-02 1.73975E-29
3.47912E-02 1.39742E-29
3.55952E-02 1.11268E-29
3.64081E-02 8.78600E-30
3.72297E-02 6.88627E-30
3.80602E-02 5.36630E-30
3.88995E-02 4.16954E-30
3.97476E-02 3.24448E-30
4.06044E-02 2.54475E-30
4.14700E-02 2.02910E-30
4.23443E-02 1.66130E-30
4.32273E-02 1.40989E-30
4.41190E-02 1.24791E-30
4.50194E-02 1.15262E-30
4.59284E-02 1.10506E-30
4.68461E-02 1.08974E-30
4.87074E-02 1.10883E-30
5.06030E-02 1.14075E-30
5.25328E-02 1.14839E-30
5.44967E-02 1.11698E-30
5.64946E-02 1.04605E-30
5.85262E-02 9.43222E-31
6.05914E-02 8.19649E-31
6.26901E-02 6.86994E-31
6.48222E-02 5.55539E-31
6.69873E-02 4.33240E-31
6.91854E-02 3.25432E-31
7.14163E-02 2.34968E-31
7.36799E-02 1.62611E-31
7.59760E-02 1.07536E-31
7.83043E-02 6.78496E-32
8.06647E-02 4.10583E-32
8.30571E-02 2.44581E-32
8.54812E-02 1.54241E-32
8.79369E-02 1.16063E-32
9.04240E-02 1.10406E-32
9.29422E-02 1.21915E-32
9.54915E-02 1.39433E-32
9.80716E-02 1.55570E-32
1.00682E-01 1.66077E-32
1.03323E-01 1.69142E-32
1.05995E-01 1.64693E-32
1.08696E-01 1.53780E-32
1.11427E-01 1.38052E-32
1.14188E-01 1.19361E-32
1.16978E-01 9.94720E-33
1.19797E-01 7.98896E-33
1.22645E-01 6.17625E-33
1.25522E-01 4.58609E-33
1.28428E-01 3.25991E-33
1.31361E-01 2.20894E-33
1.34323E-01 1.42098E-33
1.37313E-01 8.67627E-34
1.40330E-01 5.10901E-34
1.43375E-01 3.09009E-34
1.46447E-01 2.20800E-34
1.49545E-01 2.08927E-34
1.52671E-01 2.41807E-34
1.55823E-01 2.94523E-34
1.59001E-01 3.48905E-34
1.62205E-01 3.93009E-34
1.65435E-01 4.20228E-34
1.68690E-01 4.28194E-34
1.71970E-01 4.17651E-34
1.75276E-01 3.91393E-34
1.78606E-01 3.53333E-34
1.81961E-01 3.07766E-34
1.85340E-01 2.58811E-34
1.88743E-01 2.10045E-34
1.92169E-01 1.64290E-34
1.95619E-01 1.23538E-34
1.99092E-01 8.89776E-35
2.02589E-01 6.10835E-35
2.06107E-01 3.97502E-35
2.09649E-01 2.44418E-35
2.13212E-01 1.43400E-35
2.16797E-01 8.47692E-36
2.20404E-01 5.84782E-36
2.24032E-01 5.49649E-36
2.27680E-01 6.57485E-36
2.31350E-01 8.37861E-36
2.35040E-01 1.03619E-35
2.38751E-01 1.21357E-35
2.42481E-01 1.34545E-35
2.46231E-01 1.41951E-35
2.50000E-01 1.43313E-35
2.53788E-01 1.39084E-35
2.57595E-01 1.30184E-35
2.61421E-01 1.17787E-35
2.65264E-01 1.03145E-35
2.69126E-01 8.74485E-36
2.73005E-01 7.17458E-36
2.76901E-01 5.68803E-36
2.80814E-01 4.34671E-36
2.84744E-01 3.19003E-36
2.88691E-01 2.23692E-36
2.92653E-01 1.48921E-36
2.96632E-01 9.35382E-37
3.00625E-01 5.54357E-37
3.04634E-01 3.19229E-37
3.08658E-01 2.00477E-37
3.12697E-01 1.68595E-37
3.16749E-01 1.96137E-37
3.20816E-01 2.59044E-37
3.24896E-01 3.37465E-37
3.28990E-01 4.16055E-37
3.33097E-01 4.83926E-37
3.37216E-01 5.34150E-37
3.41348E-01 5.63395E-37
3.45492E-01 5.71002E-37
3.49647E-01 5.58551E-37
3.53814E-01 5.28914E-37
3.57992E-01 4.85948E-37
3.62181E-01 4.33673E-37
3.66381E-01 3.76157E-37
3.70590E-01 3.17004E-37
3.74810E-01 2.59353E-37
3.79039E-01 2.05576E-37
3.83277E-01 1.57459E-37
3.87524E-01 1.16050E-37
3.91780E-01 8.18670E-38
3.96044E-01 5.48668E-38
4.00316E-01 3.46501E-38
4.04596E-01 2.05276E-38
4.08882E-01 1.16230E-38
4.13176E-01 1.00000E-45
4.17476E-01 1.00000E-45
4.21783E-01 1.00000E-45
4.26095E-01 1.00000E-45
4.30413E-01 1.00000E-45
4.34737E-01 1.00000E-45
4.39065E-01 1.00000E-45
4.43398E-01 1.00000E-45
4.47736E-01 1.00000E-45
4.52077E-01 1.00000E-45
4.56422E-01 1.00000E-45
4.60770E-01 1.00000E-45
4.65122E-01 1.00000E-45
4.69476E-01 1.00000E-45
4.73832E-01 1.00000E-45
4.78190E-01 1.00000E-45
4.82550E-01 1.00000E-45
4.86912E-01 1.00000E-45
4.91274E-01 1.00000E-45
4.95637E-01 1.00000E-45
5.00000E-01 1.00000E-45
5.04363E-01 1.00000E-45
5.08726E-01 1.00000E-45
5.13088E-01 1.00000E-45
5.17450E-01 1.00000E-45
5.21810E-01 1.00000E-45
5.26168E-01 1.00000E-45
5.30524E-01 1.00000E-45
5.34878E-01 1.00000E-45
5.39230E-01 1.00000E-45
5.43578E-01 1.00000E-45
5.47923E-01 1.00000E-45
5.52264E-01 1.00000E-45
5.56602E-01 1.00000E-45
5.60935E-01 1.00000E-45
5.65263E-01 1.00000E-45
5.69587E-01 1.00000E-45
5.73905E-01 1.00000E-45
5.78217E-01 1.00000E-45
5.82524E-01 1.00000E-45
5.86824E-01 1.00000E-45
5.91118E-01 1.00000E-45
5.95404E-01 1.00000E-45
5.99684E-01 1.00000E-45
6.03956E-01 1.00000E-45
6.08220E-01 1.00000E-45
6.12476E-01 1.00000E-45
6.16723E-01 1.00000E-45
6.20961E-01 1.00000E-45
6.25190E-01 1.00000E-45
6.29410E-01 1.00000E-45
6.33619E-01 1.00000E-45
6.37819E-01 1.00000E-45
6.42008E-01 1.00000E-45
6.46186E-01 1.00000E-45
6.50353E-01 1.00000E-45
6.54508E-01 1.00000E-45
6.58652E-01 1.00000E-45
6.62784E-01 1.00000E-45
6.66903E-01 1.00000E-45
6.71010E-01 1.00000E-45
6.75104E-01 1.00000E-45
6.79184E-01 1.00000E-45
6.83251E-01 1.00000E-45
6.87303E-01 1.00000E-45
6.91342E-01 1.00000E-45
6.95366E-01 1.00000E-45
6.99375E-01 1.00000E-45
7.03368E-01 1.00000E-45
7.07347E-01 1.00000E-45
7.11309E-01 1.00000E-45
7.15256E-01 1.00000E-45
7.19186E-01 1.00000E-45
7.23099E-01 1.00000E-45
7.26995E-01 1.00000E-45
7.30874E-01 1.00000E-45
7.34736E-01 1.00000E-45
7.38579E-01 1.00000E-45
7.42405E-01 1.00000E-45
7.46212E-01 1.00000E-45
7.50000E-01 1.00000E-45
7.53769E-01 1.00000E-45
7.57519E-01 1.00000E-45
7.61249E-01 1.00000E-45
7.64960E-01 1.00000E-45
7.68650E-01 1.00000E-45
7.72320E-01 1.00000E-45
7.75968E-01 1.00000E-45
7.79596E-01 1.00000E-45
7.83203E-01 1.00000E-45
7.86788E-01 1.00000E-45
7.90351E-01 1.00000E-45
7.93893E-01 1.00000E-45
7.97411E-01 1.00000E-45
8.00908E-01 1.00000E-45
8.04381E-01 1.00000E-45
8.07831E-01 1.00000E-45
8.11257E-01 1.00000E-45
8.14660E-01 1.00000E-45
8.18039E-01 1.00000E-45
8.21394E-01 1.00000E-45
8.24724E-01 1.00000E-45
8.28030E-01 1.00000E-45
8.31310E-01 1.00000E-45
8.34565E-01 1.00000E-45
8.37795E-01 1.00000E-45
8.40999E-01 1.00000E-45
8.44177E-01 1.00000E-45
8.47329E-01 1.00000E-45
8.50455E-01 1.00000E-45
8.53553E-01 1.00000E-45
8.56625E-01 1.00000E-45
8.59670E-01 1.00000E-45
8.62687E-01 1.00000E-45
8.65677E-01 1.00000E-45
8.68639E-01 1.00000E-45
8.71572E-01 1.00000E-45
8.74478E-01 1.00000E-45
8.77355E-01 1.00000E-45
8.80203E-01 1.00000E-45
8.83022E-01 1.00000E-45
8.85812E-01 1.00000E-45
8.88573E-01 1.00000E-45
8.91304E-01 1.00000E-45
8.94005E-01 1.00000E-45
8.96677E-01 1.00000E-45
8.99318E-01 1.00000E-45
9.01928E-01 1.00000E-45
9.04508E-01 1.00000E-45
9.07058E-01 1.00000E-45
9.09576E-01 1.00000E-45
9.12063E-01 1.00000E-45
9.14519E-01 1.00000E-45
9.16943E-01 1.00000E-45
9.19335E-01 1.00000E-45
9.21696E-01 1.00000E-45
9.24024E-01 1.00000E-45
9.26320E-01 1.00000E-45
9.28584E-01 1.00000E-45
9.30815E-01 1.00000E-45
9.33013E-01 1.00000E-45
9.35178E-01 1.00000E-45
9.37310E-01 1.00000E-45
9.39409E-01 1.00000E-45
9.41474E-01 1.00000E-45
9.43505E-01 1.00000E-45
9.45503E-01 1.00000E-45
9.47467E-01 1.00000E-45
9.49397E-01 1.00000E-45
9.51293E-01 1.00000E-45
9.53154E-01 1.00000E-45
9.54981E-01 1.00000E-45
9.56773E-01 1.00000E-45
9.58530E-01 1.00000E-45
9.60252E-01 1.00000E-45
9.61940E-01 1.00000E-45
9.63592E-01 1.00000E-45
9.65209E-01 1.00000E-45
9.66790E-01 1.00000E-45
9.68336E-01 1.00000E-45
9.69846E-01 1.00000E-45
9.71321E-01 1.00000E-45
9.72759E-01 1.00000E-45
9.74162E-01 1.00000E-45
9.75528E-01 1.00000E-45
9.76858E-01 1.00000E-45
9.78152E-01 1.00000E-45
9.79410E-01 1.00000E-45
9.80631E-01 1.00000E-45
9.81815E-01 1.00000E-45
9.82963E-01 1.00000E-45
9.84074E-01 1.00000E-45
9.85148E-01 1.00000E-45
9.86185E-01 1.00000E-45
9.87185E-01 1.00000E-45
9.88148E-01 1.00000E-45
9.89074E-01 1.00000E-45
9.89962E-01 1.00000E-45
9.90814E-01 1.00000E-45
9.91627E-01 1.00000E-45
9.92404E-01 1.00000E-45
9.93143E-01 1.00000E-45
9.93844E-01 1.00000E-45
9.94508E-01 1.00000E-45
9.95134E-01 1.00000E-45
9.95722E-01 1.00000E-45
9.96273E-01 1.00000E-45
9.96786E-01 1.00000E-45
9.97261E-01 1.00000E-45
9.97698E-01 1.00000E-45
9.98097E-01 1.00000E-45
9.98459E-01 1.00000E-45
9.98782E-01 1.00000E-45
9.99067E-01 1.00000E-45
9.99315E-01 1.00000E-45
9.99524E-01 1.00000E-45
9.99695E-01 1.00000E-45
9.99829E-01 1.00000E-45
9.99924E-01 1.00000E-45
9.99981E-01 1.00000E-45
1.00000E+00 1.00000E-45
