 #
 # Subroutine ELSEPA. Elastic scattering of electrons and positrons
 #                    by neutral atoms and positive ions
 #
 # Projectile: positron
 # Kinetic energy = 4.00000E+07 eV = 1.46997E+06 a.u.
 #
 # WARNING: High-energy factorization with free-atom DF screening.
 #          Absorption, polarization and exchange corrections are
 #          switched off.
 #          Phase shifts are calculated for the bare nucleus.
 #          Scattering amplitudes are not evaluated.
 #
 # Element: In,  Z =  49,  atomic weight = 1.14818E+02 g/mol
 #
 # Nuclear model: Fermi distribution
 #                Average radius = 5.20060E-13 cm
 #                Skin thickness = 5.46000E-14 cm
 #
 # Number of electrons = 49
 #
 # Total elastic cross section = 4.82024E-18 cm**2 = 1.72134E-01 a0**2
 # 1st transport cross section = 2.61414E-24 cm**2 = 9.33525E-08 a0**2
 # 2nd transport cross section = 7.65493E-24 cm**2 = 2.73362E-07 a0**2
 #
 #
 # Differential cross section:                       MU=(1-COS(THETA))/2
 #
 #  THETA        MU          DCS          DCS        Sherman      error
 #  (deg)                 (cm**2/sr)   (a0**2/sr)    function
 #----------------------------------------------------------------------
0.00000E+00 6.80350E-11
7.61557E-13 6.80019E-11
1.18994E-12 6.79835E-11
1.71346E-12 6.79609E-11
2.33225E-12 6.79343E-11
3.04617E-12 6.79037E-11
3.85530E-12 6.78690E-11
4.75964E-12 6.78302E-11
5.75917E-12 6.77875E-11
6.85391E-12 6.77407E-11
8.04379E-12 6.76899E-11
9.32893E-12 6.76352E-11
1.07092E-11 6.75765E-11
1.21847E-11 6.75139E-11
1.37554E-11 6.74473E-11
1.54213E-11 6.73768E-11
1.71823E-11 6.73025E-11
1.90386E-11 6.72243E-11
2.09900E-11 6.71423E-11
2.30367E-11 6.70565E-11
2.51785E-11 6.69669E-11
2.74156E-11 6.68736E-11
2.97478E-11 6.67765E-11
3.21752E-11 6.66758E-11
3.46979E-11 6.65714E-11
3.73157E-11 6.64634E-11
4.00286E-11 6.63518E-11
4.28368E-11 6.62366E-11
4.57402E-11 6.61180E-11
4.87388E-11 6.59958E-11
5.18325E-11 6.58702E-11
5.50215E-11 6.57412E-11
5.83057E-11 6.56088E-11
6.16850E-11 6.54730E-11
6.51595E-11 6.53340E-11
6.87293E-11 6.51918E-11
7.23943E-11 6.50463E-11
7.61544E-11 6.48976E-11
1.18991E-10 6.32470E-11
1.71347E-10 6.13283E-11
2.33223E-10 5.91974E-11
3.04617E-10 5.69017E-11
3.85531E-10 5.44873E-11
4.75965E-10 5.20057E-11
5.75917E-10 4.94991E-11
6.85389E-10 4.69975E-11
8.04380E-10 4.45310E-11
9.32891E-10 4.21289E-11
1.07092E-09 3.98096E-11
1.21847E-09 3.75781E-11
1.37554E-09 3.54486E-11
1.54213E-09 3.34295E-11
1.71823E-09 3.15230E-11
1.90386E-09 2.97195E-11
2.09900E-09 2.80257E-11
2.30367E-09 2.64392E-11
2.51785E-09 2.49548E-11
2.74156E-09 2.35601E-11
2.97478E-09 2.22584E-11
3.21752E-09 2.10440E-11
3.46978E-09 1.99093E-11
3.73156E-09 1.88454E-11
4.00286E-09 1.78529E-11
4.28368E-09 1.69267E-11
4.57402E-09 1.60589E-11
4.87388E-09 1.52447E-11
5.18326E-09 1.44834E-11
5.50215E-09 1.37711E-11
5.83057E-09 1.31006E-11
6.16850E-09 1.24703E-11
6.51596E-09 1.18790E-11
6.87293E-09 1.13238E-11
7.23942E-09 1.07984E-11
7.61544E-09 1.03034E-11
1.18991E-08 6.61697E-12
1.71347E-08 4.33290E-12
2.33223E-08 2.97554E-12
3.04617E-08 2.07349E-12
3.85531E-08 1.46666E-12
4.75965E-08 1.06442E-12
5.75917E-08 7.89671E-13
6.85389E-08 5.96766E-13
8.04380E-08 4.60163E-13
9.32891E-08 3.61845E-13
1.07092E-07 2.89492E-13
1.21847E-07 2.34910E-13
1.37554E-07 1.93120E-13
1.54213E-07 1.60625E-13
1.71823E-07 1.34951E-13
1.90386E-07 1.14179E-13
2.09900E-07 9.73158E-14
2.30367E-07 8.34892E-14
2.51785E-07 7.20294E-14
2.74156E-07 6.23709E-14
2.97478E-07 5.42657E-14
3.21752E-07 4.74197E-14
3.46978E-07 4.15931E-14
3.73156E-07 3.65755E-14
4.00286E-07 3.22805E-14
4.28368E-07 2.85880E-14
4.57402E-07 2.53932E-14
4.87388E-07 2.26209E-14
5.18325E-07 2.02140E-14
5.50215E-07 1.81163E-14
5.83057E-07 1.62776E-14
6.16850E-07 1.46634E-14
6.51596E-07 1.32439E-14
6.87293E-07 1.19917E-14
7.23942E-07 1.08819E-14
7.61543E-07 9.89779E-15
1.18991E-06 4.28498E-15
1.71347E-06 2.15789E-15
2.33223E-06 1.20425E-15
3.04617E-06 7.23318E-16
3.85531E-06 4.59630E-16
4.75964E-06 3.05498E-16
5.75916E-06 2.10702E-16
6.85388E-06 1.49901E-16
8.04378E-06 1.09500E-16
9.32888E-06 8.18237E-17
1.07092E-05 6.23639E-17
1.21846E-05 4.83618E-17
1.37553E-05 3.80800E-17
1.54212E-05 3.03928E-17
1.71822E-05 2.45524E-17
1.90385E-05 2.00454E-17
2.09899E-05 1.65365E-17
2.30365E-05 1.37621E-17
2.51783E-05 1.15444E-17
2.74153E-05 9.75471E-18
2.97475E-05 8.29807E-18
3.21749E-05 7.10334E-18
3.46974E-05 6.11629E-18
3.73152E-05 5.29523E-18
4.00281E-05 4.60770E-18
4.28362E-05 4.02830E-18
4.57395E-05 3.53711E-18
4.87380E-05 3.11838E-18
5.18317E-05 2.75963E-18
5.50205E-05 2.45086E-18
5.83045E-05 2.18401E-18
6.16838E-05 1.95248E-18
6.51582E-05 1.75083E-18
6.87277E-05 1.57458E-18
7.23925E-05 1.41996E-18
7.61524E-05 1.28390E-18
9.21439E-05 8.78245E-19
1.09658E-04 6.20704E-19
1.28695E-04 4.50964E-19
1.49255E-04 3.35394E-19
1.71338E-04 2.54563E-19
1.94942E-04 1.96649E-19
2.20070E-04 1.54290E-19
2.46720E-04 1.22736E-19
2.74892E-04 9.88397E-20
3.04586E-04 8.04812E-20
3.35803E-04 6.61878E-20
3.68542E-04 5.49277E-20
4.02802E-04 4.59604E-20
4.38585E-04 3.87481E-20
4.75889E-04 3.28948E-20
5.14715E-04 2.81045E-20
5.55063E-04 2.41541E-20
5.96931E-04 2.08729E-20
6.40321E-04 1.81296E-20
6.85233E-04 1.58219E-20
7.31665E-04 1.38692E-20
7.79618E-04 1.22083E-20
8.29092E-04 1.07882E-20
8.80086E-04 9.56838E-21
9.32601E-04 8.51586E-21
9.86636E-04 7.60388E-21
1.04219E-03 6.81055E-21
1.09927E-03 6.11782E-21
1.15786E-03 5.51078E-21
1.21797E-03 4.97703E-21
1.27961E-03 4.50622E-21
1.34276E-03 4.08967E-21
1.40743E-03 3.72005E-21
1.47362E-03 3.39115E-21
1.54133E-03 3.09772E-21
1.61056E-03 2.83527E-21
1.68131E-03 2.59997E-21
1.75357E-03 2.38851E-21
1.82735E-03 2.19806E-21
1.90265E-03 2.02617E-21
1.97947E-03 1.87072E-21
2.05780E-03 1.72984E-21
2.13765E-03 1.60194E-21
2.21902E-03 1.48561E-21
2.30190E-03 1.37962E-21
2.38630E-03 1.28288E-21
2.47222E-03 1.19445E-21
2.55965E-03 1.11348E-21
2.64859E-03 1.03924E-21
2.73905E-03 9.71066E-22
2.83103E-03 9.08369E-22
2.92452E-03 8.50632E-22
3.01952E-03 7.97395E-22
3.11604E-03 7.48244E-22
3.21407E-03 7.02808E-22
3.31362E-03 6.60755E-22
3.41468E-03 6.21789E-22
3.51725E-03 5.85643E-22
3.62133E-03 5.52075E-22
3.72692E-03 5.20868E-22
3.83403E-03 4.91826E-22
3.94265E-03 4.64772E-22
4.05278E-03 4.39546E-22
4.16442E-03 4.16000E-22
4.27757E-03 3.94002E-22
4.39223E-03 3.73433E-22
4.50840E-03 3.54184E-22
4.62608E-03 3.36154E-22
4.74527E-03 3.19250E-22
4.86597E-03 3.03390E-22
4.98817E-03 2.88500E-22
5.11188E-03 2.74507E-22
5.23711E-03 2.61347E-22
5.36383E-03 2.48963E-22
5.49207E-03 2.37301E-22
5.62181E-03 2.26310E-22
5.75306E-03 2.15944E-22
5.88581E-03 2.06161E-22
6.02007E-03 1.96925E-22
6.15583E-03 1.88197E-22
6.29310E-03 1.79943E-22
6.43187E-03 1.72135E-22
6.57214E-03 1.64745E-22
6.71392E-03 1.57743E-22
6.85720E-03 1.51108E-22
7.00198E-03 1.44816E-22
7.14827E-03 1.38846E-22
7.29605E-03 1.33179E-22
7.44534E-03 1.27796E-22
7.59612E-03 1.22681E-22
7.97965E-03 1.10962E-22
8.37255E-03 1.00602E-22
8.77480E-03 9.14161E-23
9.18641E-03 8.32484E-23
9.60736E-03 7.59670E-23
1.00376E-02 6.94594E-23
1.04773E-02 6.36292E-23
1.09262E-02 5.83937E-23
1.13844E-02 5.36820E-23
1.18520E-02 4.94326E-23
1.23288E-02 4.55921E-23
1.28150E-02 4.21145E-23
1.33104E-02 3.89596E-23
1.38150E-02 3.60923E-23
1.43290E-02 3.34818E-23
1.48521E-02 3.11010E-23
1.53845E-02 2.89263E-23
1.59262E-02 2.69367E-23
1.64770E-02 2.51136E-23
1.70371E-02 2.34408E-23
1.76063E-02 2.19036E-23
1.81848E-02 2.04892E-23
1.87724E-02 1.91859E-23
1.93692E-02 1.79836E-23
1.99751E-02 1.68730E-23
2.05901E-02 1.58460E-23
2.12143E-02 1.48950E-23
2.18476E-02 1.40135E-23
2.24900E-02 1.31956E-23
2.31415E-02 1.24358E-23
2.38021E-02 1.17292E-23
2.44717E-02 1.10715E-23
2.51504E-02 1.04587E-23
2.58382E-02 9.88720E-24
2.65349E-02 9.35370E-24
2.72407E-02 8.85524E-24
2.79555E-02 8.38912E-24
2.86793E-02 7.95285E-24
2.94120E-02 7.54419E-24
3.01537E-02 7.16108E-24
3.09043E-02 6.80163E-24
3.16639E-02 6.46414E-24
3.24324E-02 6.14702E-24
3.32098E-02 5.84882E-24
3.39961E-02 5.56821E-24
3.47912E-02 5.30398E-24
3.55952E-02 5.05498E-24
3.64081E-02 4.82020E-24
3.72297E-02 4.59868E-24
3.80602E-02 4.38952E-24
3.88995E-02 4.19193E-24
3.97476E-02 4.00514E-24
4.06044E-02 3.82847E-24
4.14700E-02 3.66126E-24
4.23443E-02 3.50292E-24
4.32273E-02 3.35290E-24
4.41190E-02 3.21067E-24
4.50194E-02 3.07577E-24
4.59284E-02 2.94775E-24
4.68461E-02 2.82620E-24
4.87074E-02 2.60097E-24
5.06030E-02 2.39733E-24
5.25328E-02 2.21285E-24
5.44967E-02 2.04543E-24
5.64946E-02 1.89324E-24
5.85262E-02 1.75464E-24
6.05914E-02 1.62823E-24
6.26901E-02 1.51276E-24
6.48222E-02 1.40711E-24
6.69873E-02 1.31032E-24
6.91854E-02 1.22151E-24
7.14163E-02 1.13992E-24
7.36799E-02 1.06486E-24
7.59760E-02 9.95727E-25
7.83043E-02 9.31968E-25
8.06647E-02 8.73097E-25
8.30571E-02 8.18677E-25
8.54812E-02 7.68315E-25
8.79369E-02 7.21659E-25
9.04240E-02 6.78389E-25
9.29422E-02 6.38219E-25
9.54915E-02 6.00890E-25
9.80716E-02 5.66167E-25
1.00682E-01 5.33839E-25
1.03323E-01 5.03712E-25
1.05995E-01 4.75612E-25
1.08696E-01 4.49379E-25
1.11427E-01 4.24870E-25
1.14188E-01 4.01952E-25
1.16978E-01 3.80505E-25
1.19797E-01 3.60418E-25
1.22645E-01 3.41592E-25
1.25522E-01 3.23934E-25
1.28428E-01 3.07359E-25
1.31361E-01 2.91791E-25
1.34323E-01 2.77158E-25
1.37313E-01 2.63394E-25
1.40330E-01 2.50440E-25
1.43375E-01 2.38240E-25
1.46447E-01 2.26744E-25
1.49545E-01 2.15903E-25
1.52671E-01 2.05675E-25
1.55823E-01 1.96019E-25
1.59001E-01 1.86898E-25
1.62205E-01 1.78278E-25
1.65435E-01 1.70127E-25
1.68690E-01 1.62414E-25
1.71970E-01 1.55113E-25
1.75276E-01 1.48199E-25
1.78606E-01 1.41646E-25
1.81961E-01 1.35435E-25
1.85340E-01 1.29543E-25
1.88743E-01 1.23951E-25
1.92169E-01 1.18643E-25
1.95619E-01 1.13602E-25
1.99092E-01 1.08811E-25
2.02589E-01 1.04256E-25
2.06107E-01 9.99249E-26
2.09649E-01 9.58038E-26
2.13212E-01 9.18812E-26
2.16797E-01 8.81461E-26
2.20404E-01 8.45880E-26
2.24032E-01 8.11973E-26
2.27680E-01 7.79649E-26
2.31350E-01 7.48823E-26
2.35040E-01 7.19413E-26
2.38751E-01 6.91347E-26
2.42481E-01 6.64551E-26
2.46231E-01 6.38961E-26
2.50000E-01 6.14513E-26
2.53788E-01 5.91149E-26
2.57595E-01 5.68813E-26
2.61421E-01 5.47453E-26
2.65264E-01 5.27021E-26
2.69126E-01 5.07469E-26
2.73005E-01 4.88755E-26
2.76901E-01 4.70836E-26
2.80814E-01 4.53675E-26
2.84744E-01 4.37233E-26
2.88691E-01 4.21477E-26
2.92653E-01 4.06374E-26
2.96632E-01 3.91892E-26
3.00625E-01 3.78002E-26
3.04634E-01 3.64677E-26
3.08658E-01 3.51890E-26
3.12697E-01 3.39617E-26
3.16749E-01 3.27832E-26
3.20816E-01 3.16516E-26
3.24896E-01 3.05645E-26
3.28990E-01 2.95200E-26
3.33097E-01 2.85162E-26
3.37216E-01 2.75512E-26
3.41348E-01 2.66234E-26
3.45492E-01 2.57312E-26
3.49647E-01 2.48728E-26
3.53814E-01 2.40470E-26
3.57992E-01 2.32523E-26
3.62181E-01 2.24872E-26
3.66381E-01 2.17507E-26
3.70590E-01 2.10415E-26
3.74810E-01 2.03583E-26
3.79039E-01 1.97002E-26
3.83277E-01 1.90660E-26
3.87524E-01 1.84549E-26
3.91780E-01 1.78658E-26
3.96044E-01 1.72978E-26
4.00316E-01 1.67500E-26
4.04596E-01 1.62218E-26
4.08882E-01 1.57122E-26
4.13176E-01 1.52205E-26
4.17476E-01 1.47460E-26
4.21783E-01 1.42880E-26
4.26095E-01 1.38459E-26
4.30413E-01 1.34190E-26
4.34737E-01 1.30068E-26
4.39065E-01 1.26087E-26
4.43398E-01 1.22241E-26
4.47736E-01 1.18525E-26
4.52077E-01 1.14934E-26
4.56422E-01 1.11464E-26
4.60770E-01 1.08109E-26
4.65122E-01 1.04866E-26
4.69476E-01 1.01730E-26
4.73832E-01 9.86976E-27
4.78190E-01 9.57645E-27
4.82550E-01 9.29272E-27
4.86912E-01 9.01821E-27
4.91274E-01 8.75259E-27
4.95637E-01 8.49553E-27
5.00000E-01 8.24672E-27
5.04363E-01 8.00586E-27
5.08726E-01 7.77267E-27
5.13088E-01 7.54688E-27
5.17450E-01 7.32822E-27
5.21810E-01 7.11643E-27
5.26168E-01 6.91127E-27
5.30524E-01 6.71252E-27
5.34878E-01 6.51995E-27
5.39230E-01 6.33334E-27
5.43578E-01 6.15248E-27
5.47923E-01 5.97718E-27
5.52264E-01 5.80724E-27
5.56602E-01 5.64249E-27
5.60935E-01 5.48274E-27
5.65263E-01 5.32783E-27
5.69587E-01 5.17759E-27
5.73905E-01 5.03186E-27
5.78217E-01 4.89050E-27
5.82524E-01 4.75335E-27
5.86824E-01 4.62028E-27
5.91118E-01 4.49116E-27
5.95404E-01 4.36584E-27
5.99684E-01 4.24421E-27
6.03956E-01 4.12615E-27
6.08220E-01 4.01154E-27
6.12476E-01 3.90026E-27
6.16723E-01 3.79222E-27
6.20961E-01 3.68730E-27
6.25190E-01 3.58541E-27
6.29410E-01 3.48645E-27
6.33619E-01 3.39032E-27
6.37819E-01 3.29693E-27
6.42008E-01 3.20621E-27
6.46186E-01 3.11806E-27
6.50353E-01 3.03241E-27
6.54508E-01 2.94917E-27
6.58652E-01 2.86827E-27
6.62784E-01 2.78964E-27
6.66903E-01 2.71321E-27
6.71010E-01 2.63891E-27
6.75104E-01 2.56667E-27
6.79184E-01 2.49644E-27
6.83251E-01 2.42815E-27
6.87303E-01 2.36174E-27
6.91342E-01 2.29715E-27
6.95366E-01 2.23434E-27
6.99375E-01 2.17324E-27
7.03368E-01 2.11381E-27
7.07347E-01 2.05599E-27
7.11309E-01 1.99974E-27
7.15256E-01 1.94501E-27
7.19186E-01 1.89176E-27
7.23099E-01 1.83994E-27
7.26995E-01 1.78951E-27
7.30874E-01 1.74044E-27
7.34736E-01 1.69267E-27
7.38579E-01 1.64617E-27
7.42405E-01 1.60092E-27
7.46212E-01 1.55686E-27
7.50000E-01 1.51397E-27
7.53769E-01 1.47221E-27
7.57519E-01 1.43155E-27
7.61249E-01 1.39196E-27
7.64960E-01 1.35341E-27
7.68650E-01 1.31587E-27
7.72320E-01 1.27931E-27
7.75968E-01 1.24370E-27
7.79596E-01 1.20902E-27
7.83203E-01 1.17524E-27
7.86788E-01 1.14233E-27
7.90351E-01 1.11028E-27
7.93893E-01 1.07905E-27
7.97411E-01 1.04863E-27
8.00908E-01 1.01900E-27
8.04381E-01 9.90122E-28
8.07831E-01 9.61988E-28
8.11257E-01 9.34576E-28
8.14660E-01 9.07864E-28
8.18039E-01 8.81835E-28
8.21394E-01 8.56471E-28
8.24724E-01 8.31753E-28
8.28030E-01 8.07664E-28
8.31310E-01 7.84187E-28
8.34565E-01 7.61307E-28
8.37795E-01 7.39008E-28
8.40999E-01 7.17274E-28
8.44177E-01 6.96090E-28
8.47329E-01 6.75443E-28
8.50455E-01 6.55318E-28
8.53553E-01 6.35701E-28
8.56625E-01 6.16580E-28
8.59670E-01 5.97942E-28
8.62687E-01 5.79775E-28
8.65677E-01 5.62066E-28
8.68639E-01 5.44804E-28
8.71572E-01 5.27977E-28
8.74478E-01 5.11576E-28
8.77355E-01 4.95588E-28
8.80203E-01 4.80004E-28
8.83022E-01 4.64813E-28
8.85812E-01 4.50007E-28
8.88573E-01 4.35574E-28
8.91304E-01 4.21508E-28
8.94005E-01 4.07797E-28
8.96677E-01 3.94434E-28
8.99318E-01 3.81411E-28
9.01928E-01 3.68718E-28
9.04508E-01 3.56349E-28
9.07058E-01 3.44296E-28
9.09576E-01 3.32551E-28
9.12063E-01 3.21106E-28
9.14519E-01 3.09955E-28
9.16943E-01 2.99092E-28
9.19335E-01 2.88508E-28
9.21696E-01 2.78199E-28
9.24024E-01 2.68157E-28
9.26320E-01 2.58377E-28
9.28584E-01 2.48853E-28
9.30815E-01 2.39579E-28
9.33013E-01 2.30549E-28
9.35178E-01 2.21758E-28
9.37310E-01 2.13202E-28
9.39409E-01 2.04874E-28
9.41474E-01 1.96770E-28
9.43505E-01 1.88885E-28
9.45503E-01 1.81214E-28
9.47467E-01 1.73754E-28
9.49397E-01 1.66499E-28
9.51293E-01 1.59446E-28
9.53154E-01 1.52590E-28
9.54981E-01 1.45927E-28
9.56773E-01 1.39454E-28
9.58530E-01 1.33167E-28
9.60252E-01 1.27062E-28
9.61940E-01 1.21136E-28
9.63592E-01 1.15384E-28
9.65209E-01 1.09805E-28
9.66790E-01 1.04395E-28
9.68336E-01 9.91510E-29
9.69846E-01 9.40696E-29
9.71321E-01 8.91481E-29
9.72759E-01 8.43837E-29
9.74162E-01 7.97739E-29
9.75528E-01 7.53161E-29
9.76858E-01 7.10077E-29
9.78152E-01 6.68463E-29
9.79410E-01 6.28297E-29
9.80631E-01 5.89555E-29
9.81815E-01 5.52217E-29
9.82963E-01 5.16261E-29
9.84074E-01 4.81668E-29
9.85148E-01 4.48418E-29
9.86185E-01 4.16494E-29
9.87185E-01 3.85878E-29
9.88148E-01 3.56553E-29
9.89074E-01 3.28502E-29
9.89962E-01 3.01711E-29
9.90814E-01 2.76164E-29
9.91627E-01 2.51849E-29
9.92404E-01 2.28751E-29
9.93143E-01 2.06857E-29
9.93844E-01 1.86157E-29
9.94508E-01 1.66639E-29
9.95134E-01 1.48291E-29
9.95722E-01 1.31105E-29
9.96273E-01 1.15071E-29
9.96786E-01 1.00180E-29
9.97261E-01 8.64238E-30
9.97698E-01 7.37954E-30
9.98097E-01 6.22879E-30
9.98459E-01 5.18949E-30
9.98782E-01 4.26109E-30
9.99067E-01 3.44309E-30
9.99315E-01 2.73505E-30
9.99524E-01 2.13658E-30
9.99695E-01 1.64736E-30
9.99829E-01 1.26713E-30
9.99924E-01 9.95682E-31
9.99981E-01 8.32874E-31
1.00000E+00 7.78607E-31
