 #
 # Subroutine ELSEPA. Elastic scattering of electrons and positrons
 #                    by neutral atoms and positive ions
 #
 # Projectile: positron
 # Kinetic energy = 9.00000E+07 eV = 3.30744E+06 a.u.
 #
 # WARNING: High-energy factorization with free-atom DF screening.
 #          Absorption, polarization and exchange corrections are
 #          switched off.
 #          Phase shifts are calculated for the bare nucleus.
 #          Scattering amplitudes are not evaluated.
 #
 # Element: In,  Z =  49,  atomic weight = 1.14818E+02 g/mol
 #
 # Nuclear model: Fermi distribution
 #                Average radius = 5.20060E-13 cm
 #                Skin thickness = 5.46000E-14 cm
 #
 # Number of electrons = 49
 #
 # Total elastic cross section = 4.82231E-18 cm**2 = 1.72208E-01 a0**2
 # 1st transport cross section = 5.59484E-25 cm**2 = 1.99795E-08 a0**2
 # 2nd transport cross section = 1.65975E-24 cm**2 = 5.92709E-08 a0**2
 #
 #
 # Differential cross section:                       MU=(1-COS(THETA))/2
 #
 #  THETA        MU          DCS          DCS        Sherman      error
 #  (deg)                 (cm**2/sr)   (a0**2/sr)    function
 #----------------------------------------------------------------------
0.00000E+00 3.39617E-10
7.61557E-13 3.38800E-10
1.18994E-12 3.38343E-10
1.71346E-12 3.37786E-10
2.33225E-12 3.37130E-10
3.04617E-12 3.36377E-10
3.85530E-12 3.35527E-10
4.75964E-12 3.34582E-10
5.75917E-12 3.33542E-10
6.85391E-12 3.32411E-10
8.04379E-12 3.31189E-10
9.32893E-12 3.29878E-10
1.07092E-11 3.28481E-10
1.21847E-11 3.27000E-10
1.37554E-11 3.25436E-10
1.54213E-11 3.23793E-10
1.71823E-11 3.22071E-10
1.90386E-11 3.20275E-10
2.09900E-11 3.18406E-10
2.30367E-11 3.16467E-10
2.51785E-11 3.14462E-10
2.74156E-11 3.12391E-10
2.97478E-11 3.10253E-10
3.21752E-11 3.08056E-10
3.46979E-11 3.05806E-10
3.73157E-11 3.03506E-10
4.00286E-11 3.01158E-10
4.28368E-11 2.98766E-10
4.57402E-11 2.96319E-10
4.87388E-11 2.93826E-10
5.18325E-11 2.91297E-10
5.50215E-11 2.88737E-10
5.83057E-11 2.86146E-10
6.16850E-11 2.83530E-10
6.51595E-11 2.80872E-10
6.87293E-11 2.78184E-10
7.23943E-11 2.75478E-10
7.61544E-11 2.72756E-10
1.18991E-10 2.44930E-10
1.71347E-10 2.17394E-10
2.33223E-10 1.91518E-10
3.04617E-10 1.68111E-10
3.85531E-10 1.47411E-10
4.75965E-10 1.29368E-10
5.75917E-10 1.13808E-10
6.85389E-10 1.00413E-10
8.04380E-10 8.88962E-11
9.32891E-10 7.89983E-11
1.07092E-09 7.04367E-11
1.21847E-09 6.30185E-11
1.37554E-09 5.65707E-11
1.54213E-09 5.09149E-11
1.71823E-09 4.59512E-11
1.90386E-09 4.15773E-11
2.09900E-09 3.76877E-11
2.30367E-09 3.42343E-11
2.51785E-09 3.11541E-11
2.74156E-09 2.83891E-11
2.97478E-09 2.57393E-11
3.21752E-09 2.33859E-11
3.46978E-09 2.13487E-11
3.73156E-09 1.95766E-11
4.00286E-09 1.80282E-11
4.28368E-09 1.66691E-11
4.57402E-09 1.52944E-11
4.87388E-09 1.40111E-11
5.18326E-09 1.28805E-11
5.50215E-09 1.18807E-11
5.83057E-09 1.09935E-11
6.16850E-09 1.02035E-11
6.51596E-09 9.43146E-12
6.87293E-09 8.70505E-12
7.23942E-09 8.05578E-12
7.61544E-09 7.47380E-12
1.18991E-08 3.74866E-12
1.71347E-08 2.08036E-12
2.33223E-08 1.26169E-12
3.04617E-08 8.20313E-13
3.85531E-08 5.60118E-13
4.75965E-08 3.95835E-13
5.75917E-08 2.87278E-13
6.85389E-08 2.12745E-13
8.04380E-08 1.60251E-13
9.32891E-08 1.22710E-13
1.07092E-07 9.53547E-14
1.21847E-07 7.51387E-14
1.37554E-07 5.99731E-14
1.54213E-07 4.84270E-14
1.71823E-07 3.95414E-14
1.90386E-07 3.26205E-14
2.09900E-07 2.71624E-14
2.30367E-07 2.28111E-14
2.51785E-07 1.93044E-14
2.74156E-07 1.64502E-14
2.97478E-07 1.41026E-14
3.21752E-07 1.21677E-14
3.46978E-07 1.05573E-14
3.73156E-07 9.20111E-15
4.00286E-07 8.06211E-15
4.28368E-07 7.08830E-15
4.57402E-07 6.25997E-15
4.87388E-07 5.54872E-15
5.18325E-07 4.93456E-15
5.50215E-07 4.40492E-15
5.83057E-07 3.94148E-15
6.16850E-07 3.53877E-15
6.51596E-07 3.18533E-15
6.87293E-07 2.87475E-15
7.23942E-07 2.60145E-15
7.61543E-07 2.35891E-15
1.18991E-06 9.90948E-16
1.71347E-06 4.84925E-16
2.33223E-06 2.64404E-16
3.04617E-06 1.56202E-16
3.85531E-06 9.81359E-17
4.75964E-06 6.47270E-17
5.75916E-06 4.44045E-17
6.85388E-06 3.14684E-17
8.04378E-06 2.29175E-17
9.32888E-06 1.70825E-17
1.07092E-05 1.29909E-17
1.21846E-05 1.00535E-17
1.37553E-05 7.90067E-18
1.54212E-05 6.29402E-18
1.71822E-05 5.07545E-18
1.90385E-05 4.13670E-18
2.09899E-05 3.40702E-18
2.30365E-05 2.83100E-18
2.51783E-05 2.37128E-18
2.74153E-05 2.00084E-18
2.97475E-05 1.69979E-18
3.21749E-05 1.45323E-18
3.46974E-05 1.24982E-18
3.73152E-05 1.08084E-18
4.00281E-05 9.39523E-19
4.28362E-05 8.20577E-19
4.57395E-05 7.19857E-19
4.87380E-05 6.34094E-19
5.18317E-05 5.60693E-19
5.50205E-05 4.97584E-19
5.83045E-05 4.43094E-19
6.16838E-05 3.95859E-19
6.51582E-05 3.54757E-19
6.87277E-05 3.18858E-19
7.23925E-05 2.87391E-19
7.61524E-05 2.59771E-19
9.21439E-05 1.77392E-19
1.09658E-04 1.25206E-19
1.28695E-04 9.08716E-20
1.49255E-04 6.75279E-20
1.71338E-04 5.12195E-20
1.94942E-04 3.95456E-20
2.20070E-04 3.10138E-20
2.46720E-04 2.46621E-20
2.74892E-04 1.98546E-20
3.04586E-04 1.61627E-20
3.35803E-04 1.32895E-20
3.68542E-04 1.10266E-20
4.02802E-04 9.22501E-21
4.38585E-04 7.77629E-21
4.75889E-04 6.60084E-21
5.14715E-04 5.63898E-21
5.55063E-04 4.84591E-21
5.96931E-04 4.18726E-21
6.40321E-04 3.63665E-21
6.85233E-04 3.17348E-21
7.31665E-04 2.78164E-21
7.79618E-04 2.44834E-21
8.29092E-04 2.16342E-21
8.80086E-04 1.91867E-21
9.32601E-04 1.70751E-21
9.86636E-04 1.52455E-21
1.04219E-03 1.36540E-21
1.09927E-03 1.22644E-21
1.15786E-03 1.10467E-21
1.21797E-03 9.97614E-22
1.27961E-03 9.03175E-22
1.34276E-03 8.19629E-22
1.40743E-03 7.45495E-22
1.47362E-03 6.79530E-22
1.54133E-03 6.20683E-22
1.61056E-03 5.68048E-22
1.68131E-03 5.20860E-22
1.75357E-03 4.78455E-22
1.82735E-03 4.40263E-22
1.90265E-03 4.05795E-22
1.97947E-03 3.74622E-22
2.05780E-03 3.46374E-22
2.13765E-03 3.20729E-22
2.21902E-03 2.97405E-22
2.30190E-03 2.76154E-22
2.38630E-03 2.56759E-22
2.47222E-03 2.39030E-22
2.55965E-03 2.22797E-22
2.64859E-03 2.07913E-22
2.73905E-03 1.94246E-22
2.83103E-03 1.81677E-22
2.92452E-03 1.70104E-22
3.01952E-03 1.59433E-22
3.11604E-03 1.49581E-22
3.21407E-03 1.40475E-22
3.31362E-03 1.32047E-22
3.41468E-03 1.24238E-22
3.51725E-03 1.16994E-22
3.62133E-03 1.10268E-22
3.72692E-03 1.04015E-22
3.83403E-03 9.81964E-23
3.94265E-03 9.27762E-23
4.05278E-03 8.77224E-23
4.16442E-03 8.30057E-23
4.27757E-03 7.85996E-23
4.39223E-03 7.44799E-23
4.50840E-03 7.06246E-23
4.62608E-03 6.70137E-23
4.74527E-03 6.36289E-23
4.86597E-03 6.04534E-23
4.98817E-03 5.74720E-23
5.11188E-03 5.46706E-23
5.23711E-03 5.20364E-23
5.36383E-03 4.95577E-23
5.49207E-03 4.72234E-23
5.62181E-03 4.50238E-23
5.75306E-03 4.29497E-23
5.88581E-03 4.09924E-23
6.02007E-03 3.91444E-23
6.15583E-03 3.73983E-23
6.29310E-03 3.57476E-23
6.43187E-03 3.41860E-23
6.57214E-03 3.27079E-23
6.71392E-03 3.13080E-23
6.85720E-03 2.99815E-23
7.00198E-03 2.87236E-23
7.14827E-03 2.75304E-23
7.29605E-03 2.63977E-23
7.44534E-03 2.53221E-23
7.59612E-03 2.43000E-23
7.97965E-03 2.19592E-23
8.37255E-03 1.98904E-23
8.77480E-03 1.80567E-23
9.18641E-03 1.64270E-23
9.60736E-03 1.49747E-23
1.00376E-02 1.36773E-23
1.04773E-02 1.25154E-23
1.09262E-02 1.14726E-23
1.13844E-02 1.05345E-23
1.18520E-02 9.68888E-24
1.23288E-02 8.92507E-24
1.28150E-02 8.23382E-24
1.33104E-02 7.60705E-24
1.38150E-02 7.03774E-24
1.43290E-02 6.51972E-24
1.48521E-02 6.04760E-24
1.53845E-02 5.61660E-24
1.59262E-02 5.22254E-24
1.64770E-02 4.86173E-24
1.70371E-02 4.53086E-24
1.76063E-02 4.22705E-24
1.81848E-02 3.94770E-24
1.87724E-02 3.69050E-24
1.93692E-02 3.45341E-24
1.99751E-02 3.23458E-24
2.05901E-02 3.03237E-24
2.12143E-02 2.84530E-24
2.18476E-02 2.67205E-24
2.24900E-02 2.51143E-24
2.31415E-02 2.36235E-24
2.38021E-02 2.22385E-24
2.44717E-02 2.09505E-24
2.51504E-02 1.97516E-24
2.58382E-02 1.86346E-24
2.65349E-02 1.75929E-24
2.72407E-02 1.66207E-24
2.79555E-02 1.57124E-24
2.86793E-02 1.48632E-24
2.94120E-02 1.40687E-24
3.01537E-02 1.33246E-24
3.09043E-02 1.26273E-24
3.16639E-02 1.19733E-24
3.24324E-02 1.13596E-24
3.32098E-02 1.07831E-24
3.39961E-02 1.02413E-24
3.47912E-02 9.73177E-25
3.55952E-02 9.25223E-25
3.64081E-02 8.80064E-25
3.72297E-02 8.37509E-25
3.80602E-02 7.97385E-25
3.88995E-02 7.59530E-25
3.97476E-02 7.23795E-25
4.06044E-02 6.90041E-25
4.14700E-02 6.58140E-25
4.23443E-02 6.27976E-25
4.32273E-02 5.99437E-25
4.41190E-02 5.72423E-25
4.50194E-02 5.46838E-25
4.59284E-02 5.22594E-25
4.68461E-02 4.99611E-25
4.87074E-02 4.57127E-25
5.06030E-02 4.18838E-25
5.25328E-02 3.84268E-25
5.44967E-02 3.53002E-25
5.64946E-02 3.24678E-25
5.85262E-02 2.98979E-25
6.05914E-02 2.75625E-25
6.26901E-02 2.54372E-25
6.48222E-02 2.35004E-25
6.69873E-02 2.17329E-25
6.91854E-02 2.01178E-25
7.14163E-02 1.86402E-25
7.36799E-02 1.72866E-25
7.59760E-02 1.60452E-25
7.83043E-02 1.49055E-25
8.06647E-02 1.38579E-25
8.30571E-02 1.28940E-25
8.54812E-02 1.20061E-25
8.79369E-02 1.11876E-25
9.04240E-02 1.04322E-25
9.29422E-02 9.73441E-26
9.54915E-02 9.08928E-26
9.80716E-02 8.49232E-26
1.00682E-01 7.93946E-26
1.03323E-01 7.42702E-26
1.05995E-01 6.95168E-26
1.08696E-01 6.51041E-26
1.11427E-01 6.10047E-26
1.14188E-01 5.71935E-26
1.16978E-01 5.36478E-26
1.19797E-01 5.03468E-26
1.22645E-01 4.72717E-26
1.25522E-01 4.44052E-26
1.28428E-01 4.17313E-26
1.31361E-01 3.92358E-26
1.34323E-01 3.69053E-26
1.37313E-01 3.47276E-26
1.40330E-01 3.26916E-26
1.43375E-01 3.07871E-26
1.46447E-01 2.90046E-26
1.49545E-01 2.73354E-26
1.52671E-01 2.57716E-26
1.55823E-01 2.43059E-26
1.59001E-01 2.29313E-26
1.62205E-01 2.16417E-26
1.65435E-01 2.04312E-26
1.68690E-01 1.92945E-26
1.71970E-01 1.82267E-26
1.75276E-01 1.72231E-26
1.78606E-01 1.62795E-26
1.81961E-01 1.53920E-26
1.85340E-01 1.45570E-26
1.88743E-01 1.37709E-26
1.92169E-01 1.30308E-26
1.95619E-01 1.23336E-26
1.99092E-01 1.16766E-26
2.02589E-01 1.10574E-26
2.06107E-01 1.04735E-26
2.09649E-01 9.92270E-27
2.13212E-01 9.40305E-27
2.16797E-01 8.91260E-27
2.20404E-01 8.44958E-27
2.24032E-01 8.01231E-27
2.27680E-01 7.59925E-27
2.31350E-01 7.20895E-27
2.35040E-01 6.84005E-27
2.38751E-01 6.49129E-27
2.42481E-01 6.16149E-27
2.46231E-01 5.84952E-27
2.50000E-01 5.55437E-27
2.53788E-01 5.27504E-27
2.57595E-01 5.01063E-27
2.61421E-01 4.76029E-27
2.65264E-01 4.52321E-27
2.69126E-01 4.29864E-27
2.73005E-01 4.08587E-27
2.76901E-01 3.88424E-27
2.80814E-01 3.69313E-27
2.84744E-01 3.51196E-27
2.88691E-01 3.34016E-27
2.92653E-01 3.17723E-27
2.96632E-01 3.02267E-27
3.00625E-01 2.87603E-27
3.04634E-01 2.73689E-27
3.08658E-01 2.60482E-27
3.12697E-01 2.47945E-27
3.16749E-01 2.36042E-27
3.20816E-01 2.24739E-27
3.24896E-01 2.14004E-27
3.28990E-01 2.03806E-27
3.33097E-01 1.94118E-27
3.37216E-01 1.84913E-27
3.41348E-01 1.76164E-27
3.45492E-01 1.67848E-27
3.49647E-01 1.59943E-27
3.53814E-01 1.52427E-27
3.57992E-01 1.45280E-27
3.62181E-01 1.38483E-27
3.66381E-01 1.32018E-27
3.70590E-01 1.25867E-27
3.74810E-01 1.20016E-27
3.79039E-01 1.14448E-27
3.83277E-01 1.09149E-27
3.87524E-01 1.04105E-27
3.91780E-01 9.93043E-28
3.96044E-01 9.47337E-28
4.00316E-01 9.03819E-28
4.04596E-01 8.62380E-28
4.08882E-01 8.22915E-28
4.13176E-01 7.85327E-28
4.17476E-01 7.49521E-28
4.21783E-01 7.15410E-28
4.26095E-01 6.82911E-28
4.30413E-01 6.51942E-28
4.34737E-01 6.22430E-28
4.39065E-01 5.94304E-28
4.43398E-01 5.67494E-28
4.47736E-01 5.41937E-28
4.52077E-01 5.17573E-28
4.56422E-01 4.94343E-28
4.60770E-01 4.72192E-28
4.65122E-01 4.51068E-28
4.69476E-01 4.30922E-28
4.73832E-01 4.11707E-28
4.78190E-01 3.93377E-28
4.82550E-01 3.75891E-28
4.86912E-01 3.59209E-28
4.91274E-01 3.43291E-28
4.95637E-01 3.28102E-28
5.00000E-01 3.13608E-28
5.04363E-01 2.99774E-28
5.08726E-01 2.86570E-28
5.13088E-01 2.73966E-28
5.17450E-01 2.61935E-28
5.21810E-01 2.50448E-28
5.26168E-01 2.39481E-28
5.30524E-01 2.29009E-28
5.34878E-01 2.19009E-28
5.39230E-01 2.09459E-28
5.43578E-01 2.00338E-28
5.47923E-01 1.91626E-28
5.52264E-01 1.83305E-28
5.56602E-01 1.75355E-28
5.60935E-01 1.67761E-28
5.65263E-01 1.60505E-28
5.69587E-01 1.53572E-28
5.73905E-01 1.46947E-28
5.78217E-01 1.40616E-28
5.82524E-01 1.34566E-28
5.86824E-01 1.28783E-28
5.91118E-01 1.23256E-28
5.95404E-01 1.17972E-28
5.99684E-01 1.12921E-28
6.03956E-01 1.08093E-28
6.08220E-01 1.03476E-28
6.12476E-01 9.90619E-29
6.16723E-01 9.48410E-29
6.20961E-01 9.08047E-29
6.25190E-01 8.69446E-29
6.29410E-01 8.32528E-29
6.33619E-01 7.97217E-29
6.37819E-01 7.63442E-29
6.42008E-01 7.31133E-29
6.46186E-01 7.00225E-29
6.50353E-01 6.70655E-29
6.54508E-01 6.42364E-29
6.58652E-01 6.15294E-29
6.62784E-01 5.89392E-29
6.66903E-01 5.64605E-29
6.71010E-01 5.40884E-29
6.75104E-01 5.18181E-29
6.79184E-01 4.96453E-29
6.83251E-01 4.75654E-29
6.87303E-01 4.55746E-29
6.91342E-01 4.36688E-29
6.95366E-01 4.18442E-29
6.99375E-01 4.00974E-29
7.03368E-01 3.84250E-29
7.07347E-01 3.68236E-29
7.11309E-01 3.52901E-29
7.15256E-01 3.38216E-29
7.19186E-01 3.24153E-29
7.23099E-01 3.10684E-29
7.26995E-01 2.97784E-29
7.30874E-01 2.85428E-29
7.34736E-01 2.73592E-29
7.38579E-01 2.62253E-29
7.42405E-01 2.51391E-29
7.46212E-01 2.40984E-29
7.50000E-01 2.31014E-29
7.53769E-01 2.21460E-29
7.57519E-01 2.12306E-29
7.61249E-01 2.03534E-29
7.64960E-01 1.95127E-29
7.68650E-01 1.87070E-29
7.72320E-01 1.79348E-29
7.75968E-01 1.71947E-29
7.79596E-01 1.64853E-29
7.83203E-01 1.58053E-29
7.86788E-01 1.51534E-29
7.90351E-01 1.45284E-29
7.93893E-01 1.39292E-29
7.97411E-01 1.33548E-29
8.00908E-01 1.28039E-29
8.04381E-01 1.22758E-29
8.07831E-01 1.17693E-29
8.11257E-01 1.12836E-29
8.14660E-01 1.08178E-29
8.18039E-01 1.03710E-29
8.21394E-01 9.94253E-30
8.24724E-01 9.53155E-30
8.28030E-01 9.13732E-30
8.31310E-01 8.75915E-30
8.34565E-01 8.39637E-30
8.37795E-01 8.04833E-30
8.40999E-01 7.71442E-30
8.44177E-01 7.39405E-30
8.47329E-01 7.08666E-30
8.50455E-01 6.79171E-30
8.53553E-01 6.50867E-30
8.56625E-01 6.23707E-30
8.59670E-01 5.97642E-30
8.62687E-01 5.72628E-30
8.65677E-01 5.48620E-30
8.68639E-01 5.25578E-30
8.71572E-01 5.03461E-30
8.74478E-01 4.82232E-30
8.77355E-01 4.61854E-30
8.80203E-01 4.42293E-30
8.83022E-01 4.23514E-30
8.85812E-01 4.05487E-30
8.88573E-01 3.88179E-30
8.91304E-01 3.71563E-30
8.94005E-01 3.55610E-30
8.96677E-01 3.40293E-30
8.99318E-01 3.25586E-30
9.01928E-01 3.11464E-30
9.04508E-01 2.97904E-30
9.07058E-01 2.84884E-30
9.09576E-01 2.72381E-30
9.12063E-01 2.60375E-30
9.14519E-01 2.48846E-30
9.16943E-01 2.37774E-30
9.19335E-01 2.27142E-30
9.21696E-01 2.16932E-30
9.24024E-01 2.07127E-30
9.26320E-01 1.97711E-30
9.28584E-01 1.88668E-30
9.30815E-01 1.79985E-30
9.33013E-01 1.71646E-30
9.35178E-01 1.63638E-30
9.37310E-01 1.55949E-30
9.39409E-01 1.48565E-30
9.41474E-01 1.41476E-30
9.43505E-01 1.34668E-30
9.45503E-01 1.28132E-30
9.47467E-01 1.21857E-30
9.49397E-01 1.15833E-30
9.51293E-01 1.10051E-30
9.53154E-01 1.04500E-30
9.54981E-01 9.91727E-31
9.56773E-01 9.40602E-31
9.58530E-01 8.91544E-31
9.60252E-01 8.44475E-31
9.61940E-01 7.99322E-31
9.63592E-01 7.56013E-31
9.65209E-01 7.14479E-31
9.66790E-01 6.74657E-31
9.68336E-01 6.36483E-31
9.69846E-01 5.99899E-31
9.71321E-01 5.64845E-31
9.72759E-01 5.31270E-31
9.74162E-01 4.99119E-31
9.75528E-01 4.68343E-31
9.76858E-01 4.38895E-31
9.78152E-01 4.10728E-31
9.79410E-01 3.83801E-31
9.80631E-01 3.58070E-31
9.81815E-01 3.33496E-31
9.82963E-01 3.10042E-31
9.84074E-01 2.87672E-31
9.85148E-01 2.66351E-31
9.86185E-01 2.46047E-31
9.87185E-01 2.26728E-31
9.88148E-01 2.08366E-31
9.89074E-01 1.90932E-31
9.89962E-01 1.74400E-31
9.90814E-01 1.58745E-31
9.91627E-01 1.43943E-31
9.92404E-01 1.29971E-31
9.93143E-01 1.16808E-31
9.93844E-01 1.04435E-31
9.94508E-01 9.28326E-32
9.95134E-01 8.19835E-32
9.95722E-01 7.18712E-32
9.96273E-01 6.24806E-32
9.96786E-01 5.37975E-32
9.97261E-01 4.58087E-32
9.97698E-01 3.85026E-32
9.98097E-01 3.18678E-32
9.98459E-01 2.58945E-32
9.98782E-01 2.05738E-32
9.99067E-01 1.58976E-32
9.99315E-01 1.18590E-32
9.99524E-01 8.45187E-33
9.99695E-01 5.67116E-33
9.99829E-01 3.51270E-33
9.99924E-01 1.97322E-33
9.99981E-01 1.05050E-33
1.00000E+00 7.42953E-34
