 #
 # Subroutine ELSEPA. Elastic scattering of electrons and positrons
 #                    by neutral atoms and positive ions
 #
 # Projectile: positron
 # Kinetic energy = 1.25000E+07 eV = 4.59367E+05 a.u.
 #
 # WARNING: High-energy factorization with free-atom DF screening.
 #          Absorption, polarization and exchange corrections are
 #          switched off.
 #          Phase shifts are calculated for the bare nucleus.
 #          Scattering amplitudes are not evaluated.
 #
 # Element: In,  Z =  49,  atomic weight = 1.14818E+02 g/mol
 #
 # Nuclear model: Fermi distribution
 #                Average radius = 5.20060E-13 cm
 #                Skin thickness = 5.46000E-14 cm
 #
 # Number of electrons = 49
 #
 # Total elastic cross section = 4.82830E-18 cm**2 = 1.72422E-01 a0**2
 # 1st transport cross section = 2.15492E-23 cm**2 = 7.69535E-07 a0**2
 # 2nd transport cross section = 6.24888E-23 cm**2 = 2.23152E-06 a0**2
 #
 #
 # Differential cross section:                       MU=(1-COS(THETA))/2
 #
 #  THETA        MU          DCS          DCS        Sherman      error
 #  (deg)                 (cm**2/sr)   (a0**2/sr)    function
 #----------------------------------------------------------------------
0.00000E+00 7.01791E-12
7.61557E-13 7.01755E-12
1.18994E-12 7.01735E-12
1.71346E-12 7.01710E-12
2.33225E-12 7.01682E-12
3.04617E-12 7.01649E-12
3.85530E-12 7.01612E-12
4.75964E-12 7.01570E-12
5.75917E-12 7.01524E-12
6.85391E-12 7.01474E-12
8.04379E-12 7.01419E-12
9.32893E-12 7.01360E-12
1.07092E-11 7.01297E-12
1.21847E-11 7.01229E-12
1.37554E-11 7.01157E-12
1.54213E-11 7.01081E-12
1.71823E-11 7.01000E-12
1.90386E-11 7.00915E-12
2.09900E-11 7.00826E-12
2.30367E-11 7.00733E-12
2.51785E-11 7.00635E-12
2.74156E-11 7.00533E-12
2.97478E-11 7.00426E-12
3.21752E-11 7.00315E-12
3.46979E-11 7.00200E-12
3.73157E-11 7.00081E-12
4.00286E-11 6.99957E-12
4.28368E-11 6.99830E-12
4.57402E-11 6.99697E-12
4.87388E-11 6.99561E-12
5.18325E-11 6.99420E-12
5.50215E-11 6.99275E-12
5.83057E-11 6.99126E-12
6.16850E-11 6.98972E-12
6.51595E-11 6.98815E-12
6.87293E-11 6.98653E-12
7.23943E-11 6.98486E-12
7.61544E-11 6.98316E-12
1.18991E-10 6.96380E-12
1.71347E-10 6.94027E-12
2.33223E-10 6.91266E-12
3.04617E-10 6.88105E-12
3.85531E-10 6.84555E-12
4.75965E-10 6.80627E-12
5.75917E-10 6.76333E-12
6.85389E-10 6.71686E-12
8.04380E-10 6.66701E-12
9.32891E-10 6.61393E-12
1.07092E-09 6.55776E-12
1.21847E-09 6.49868E-12
1.37554E-09 6.43681E-12
1.54213E-09 6.37220E-12
1.71823E-09 6.30530E-12
1.90386E-09 6.23629E-12
2.09900E-09 6.16535E-12
2.30367E-09 6.09211E-12
2.51785E-09 6.01725E-12
2.74156E-09 5.94101E-12
2.97478E-09 5.86357E-12
3.21752E-09 5.78457E-12
3.46978E-09 5.70446E-12
3.73156E-09 5.62366E-12
4.00286E-09 5.54232E-12
4.28368E-09 5.46019E-12
4.57402E-09 5.37734E-12
4.87388E-09 5.29440E-12
5.18326E-09 5.21150E-12
5.50215E-09 5.12854E-12
5.83057E-09 5.04512E-12
6.16850E-09 4.96210E-12
6.51596E-09 4.87960E-12
6.87293E-09 4.79769E-12
7.23942E-09 4.71545E-12
7.61544E-09 4.63401E-12
1.18991E-08 3.86541E-12
1.71347E-08 3.20232E-12
2.33223E-08 2.65410E-12
3.04617E-08 2.21041E-12
3.85531E-08 1.85278E-12
4.75965E-08 1.56468E-12
5.75917E-08 1.33107E-12
6.85389E-08 1.13953E-12
8.04380E-08 9.81488E-13
9.32891E-08 8.49617E-13
1.07092E-07 7.38612E-13
1.21847E-07 6.44659E-13
1.37554E-07 5.63496E-13
1.54213E-07 4.89720E-13
1.71823E-07 4.29822E-13
1.90386E-07 3.80706E-13
2.09900E-07 3.40058E-13
2.30367E-07 2.99603E-13
2.51785E-07 2.65254E-13
2.74156E-07 2.36465E-13
2.97478E-07 2.12159E-13
3.21752E-07 1.89422E-13
3.46978E-07 1.69184E-13
3.73156E-07 1.51906E-13
4.00286E-07 1.37069E-13
4.28368E-07 1.23702E-13
4.57402E-07 1.11522E-13
4.87388E-07 1.00956E-13
5.18325E-07 9.17479E-14
5.50215E-07 8.35756E-14
5.83057E-07 7.60624E-14
6.16850E-07 6.94529E-14
6.51596E-07 6.36168E-14
6.87293E-07 5.84428E-14
7.23942E-07 5.36671E-14
7.61543E-07 4.94148E-14
1.18991E-06 2.39888E-14
1.71347E-06 1.33115E-14
2.33223E-06 8.02396E-15
3.04617E-06 5.10480E-15
3.85531E-06 3.37391E-15
4.75964E-06 2.30574E-15
5.75916E-06 1.62419E-15
6.85388E-06 1.17473E-15
8.04378E-06 8.70395E-16
9.32888E-06 6.59035E-16
1.07092E-05 5.08637E-16
1.21846E-05 3.99130E-16
1.37553E-05 3.17702E-16
1.54212E-05 2.56097E-16
1.71822E-05 2.08889E-16
1.90385E-05 1.72064E-16
2.09899E-05 1.43043E-16
2.30365E-05 1.19945E-16
2.51783E-05 1.01231E-16
2.74153E-05 8.60428E-17
2.97475E-05 7.35704E-17
3.21749E-05 6.32617E-17
3.46974E-05 5.47085E-17
3.73152E-05 4.75268E-17
4.00281E-05 4.14954E-17
4.28362E-05 3.63829E-17
4.57395E-05 3.20304E-17
4.87380E-05 2.83095E-17
5.18317E-05 2.51045E-17
5.50205E-05 2.23414E-17
5.83045E-05 1.99447E-17
6.16838E-05 1.78605E-17
6.51582E-05 1.60418E-17
6.87277E-05 1.44475E-17
7.23925E-05 1.30473E-17
7.61524E-05 1.18118E-17
9.21439E-05 8.11767E-18
1.09658E-04 5.76008E-18
1.28695E-04 4.19998E-18
1.49255E-04 3.13389E-18
1.71338E-04 2.38578E-18
1.94942E-04 1.84815E-18
2.20070E-04 1.45377E-18
2.46720E-04 1.15919E-18
2.74892E-04 9.35536E-19
3.04586E-04 7.63282E-19
3.35803E-04 6.28870E-19
3.68542E-04 5.22757E-19
4.02802E-04 4.38080E-19
4.38585E-04 3.69850E-19
4.75889E-04 3.14380E-19
5.14715E-04 2.68911E-19
5.55063E-04 2.31360E-19
5.96931E-04 2.00126E-19
6.40321E-04 1.73979E-19
6.85233E-04 1.51957E-19
7.31665E-04 1.33303E-19
7.79618E-04 1.17420E-19
8.29092E-04 1.03828E-19
8.80086E-04 9.21418E-20
9.32601E-04 8.20507E-20
9.86636E-04 7.33002E-20
1.04219E-03 6.56830E-20
1.09927E-03 5.90273E-20
1.15786E-03 5.31914E-20
1.21797E-03 4.80574E-20
1.27961E-03 4.35263E-20
1.34276E-03 3.95154E-20
1.40743E-03 3.59547E-20
1.47362E-03 3.27851E-20
1.54133E-03 2.99561E-20
1.61056E-03 2.74249E-20
1.68131E-03 2.51547E-20
1.75357E-03 2.31139E-20
1.82735E-03 2.12753E-20
1.90265E-03 1.96153E-20
1.97947E-03 1.81137E-20
2.05780E-03 1.67525E-20
2.13765E-03 1.55164E-20
2.21902E-03 1.43919E-20
2.30190E-03 1.33671E-20
2.38630E-03 1.24316E-20
2.47222E-03 1.15763E-20
2.55965E-03 1.07930E-20
2.64859E-03 1.00746E-20
2.73905E-03 9.41481E-21
2.83103E-03 8.80796E-21
2.92452E-03 8.24904E-21
3.01952E-03 7.73360E-21
3.11604E-03 7.25765E-21
3.21407E-03 6.81762E-21
3.31362E-03 6.41031E-21
3.41468E-03 6.03285E-21
3.51725E-03 5.68267E-21
3.62133E-03 5.35742E-21
3.72692E-03 5.05503E-21
3.83403E-03 4.77359E-21
3.94265E-03 4.51138E-21
4.05278E-03 4.26686E-21
4.16442E-03 4.03862E-21
4.27757E-03 3.82537E-21
4.39223E-03 3.62595E-21
4.50840E-03 3.43930E-21
4.62608E-03 3.26446E-21
4.74527E-03 3.10054E-21
4.86597E-03 2.94673E-21
4.98817E-03 2.80230E-21
5.11188E-03 2.66658E-21
5.23711E-03 2.53893E-21
5.36383E-03 2.41879E-21
5.49207E-03 2.30565E-21
5.62181E-03 2.19901E-21
5.75306E-03 2.09844E-21
5.88581E-03 2.00352E-21
6.02007E-03 1.91389E-21
6.15583E-03 1.82919E-21
6.29310E-03 1.74910E-21
6.43187E-03 1.67332E-21
6.57214E-03 1.60158E-21
6.71392E-03 1.53362E-21
6.85720E-03 1.46922E-21
7.00198E-03 1.40814E-21
7.14827E-03 1.35018E-21
7.29605E-03 1.29516E-21
7.44534E-03 1.24290E-21
7.59612E-03 1.19324E-21
7.97965E-03 1.07946E-21
8.37255E-03 9.78850E-22
8.77480E-03 8.89633E-22
9.18641E-03 8.10299E-22
9.60736E-03 7.39567E-22
1.00376E-02 6.76344E-22
1.04773E-02 6.19697E-22
1.09262E-02 5.68823E-22
1.13844E-02 5.23033E-22
1.18520E-02 4.81731E-22
1.23288E-02 4.44402E-22
1.28150E-02 4.10597E-22
1.33104E-02 3.79925E-22
1.38150E-02 3.52046E-22
1.43290E-02 3.26660E-22
1.48521E-02 3.03506E-22
1.53845E-02 2.82354E-22
1.59262E-02 2.63000E-22
1.64770E-02 2.45265E-22
1.70371E-02 2.28988E-22
1.76063E-02 2.14029E-22
1.81848E-02 2.00263E-22
1.87724E-02 1.87578E-22
1.93692E-02 1.75874E-22
1.99751E-02 1.65061E-22
2.05901E-02 1.55060E-22
2.12143E-02 1.45799E-22
2.18476E-02 1.37213E-22
2.24900E-02 1.29245E-22
2.31415E-02 1.21842E-22
2.38021E-02 1.14957E-22
2.44717E-02 1.08547E-22
2.51504E-02 1.02574E-22
2.58382E-02 9.70022E-23
2.65349E-02 9.18004E-23
2.72407E-02 8.69395E-23
2.79555E-02 8.23929E-23
2.86793E-02 7.81368E-23
2.94120E-02 7.41494E-23
3.01537E-02 7.04108E-23
3.09043E-02 6.69025E-23
3.16639E-02 6.36078E-23
3.24324E-02 6.05113E-23
3.32098E-02 5.75990E-23
3.39961E-02 5.48581E-23
3.47912E-02 5.22766E-23
3.55952E-02 4.98436E-23
3.64081E-02 4.75488E-23
3.72297E-02 4.53832E-23
3.80602E-02 4.33381E-23
3.88995E-02 4.14058E-23
3.97476E-02 3.95787E-23
4.06044E-02 3.78500E-23
4.14700E-02 3.62136E-23
4.23443E-02 3.46637E-23
4.32273E-02 3.31949E-23
4.41190E-02 3.18021E-23
4.50194E-02 3.04808E-23
4.59284E-02 2.92264E-23
4.68461E-02 2.80351E-23
4.87074E-02 2.58272E-23
5.06030E-02 2.38297E-23
5.25328E-02 2.20192E-23
5.44967E-02 2.03754E-23
5.64946E-02 1.88801E-23
5.85262E-02 1.75177E-23
6.05914E-02 1.62744E-23
6.26901E-02 1.51379E-23
6.48222E-02 1.40976E-23
6.69873E-02 1.31438E-23
6.91854E-02 1.22681E-23
7.14163E-02 1.14631E-23
7.36799E-02 1.07221E-23
7.59760E-02 1.00390E-23
7.83043E-02 9.40866E-24
8.06647E-02 8.82621E-24
8.30571E-02 8.28739E-24
8.54812E-02 7.78840E-24
8.79369E-02 7.32575E-24
9.04240E-02 6.89637E-24
9.29422E-02 6.49742E-24
9.54915E-02 6.12640E-24
9.80716E-02 5.78100E-24
1.00682E-01 5.45914E-24
1.03323E-01 5.15896E-24
1.05995E-01 4.87872E-24
1.08696E-01 4.61689E-24
1.11427E-01 4.37203E-24
1.14188E-01 4.14286E-24
1.16978E-01 3.92819E-24
1.19797E-01 3.72695E-24
1.22645E-01 3.53816E-24
1.25522E-01 3.36091E-24
1.28428E-01 3.19437E-24
1.31361E-01 3.03779E-24
1.34323E-01 2.89046E-24
1.37313E-01 2.75175E-24
1.40330E-01 2.62106E-24
1.43375E-01 2.49785E-24
1.46447E-01 2.38161E-24
1.49545E-01 2.27189E-24
1.52671E-01 2.16825E-24
1.55823E-01 2.07030E-24
1.59001E-01 1.97768E-24
1.62205E-01 1.89003E-24
1.65435E-01 1.80706E-24
1.68690E-01 1.72846E-24
1.71970E-01 1.65397E-24
1.75276E-01 1.58333E-24
1.78606E-01 1.51632E-24
1.81961E-01 1.45270E-24
1.85340E-01 1.39229E-24
1.88743E-01 1.33489E-24
1.92169E-01 1.28032E-24
1.95619E-01 1.22843E-24
1.99092E-01 1.17905E-24
2.02589E-01 1.13204E-24
2.06107E-01 1.08728E-24
2.09649E-01 1.04463E-24
2.13212E-01 1.00399E-24
2.16797E-01 9.65225E-25
2.20404E-01 9.28251E-25
2.24032E-01 8.92966E-25
2.27680E-01 8.59280E-25
2.31350E-01 8.27108E-25
2.35040E-01 7.96370E-25
2.38751E-01 7.66991E-25
2.42481E-01 7.38902E-25
2.46231E-01 7.12035E-25
2.50000E-01 6.86329E-25
2.53788E-01 6.61724E-25
2.57595E-01 6.38166E-25
2.61421E-01 6.15602E-25
2.65264E-01 5.93983E-25
2.69126E-01 5.73263E-25
2.73005E-01 5.53399E-25
2.76901E-01 5.34348E-25
2.80814E-01 5.16072E-25
2.84744E-01 4.98534E-25
2.88691E-01 4.81699E-25
2.92653E-01 4.65534E-25
2.96632E-01 4.50008E-25
3.00625E-01 4.35092E-25
3.04634E-01 4.20757E-25
3.08658E-01 4.06977E-25
3.12697E-01 3.93727E-25
3.16749E-01 3.80983E-25
3.20816E-01 3.68723E-25
3.24896E-01 3.56924E-25
3.28990E-01 3.45567E-25
3.33097E-01 3.34633E-25
3.37216E-01 3.24103E-25
3.41348E-01 3.13959E-25
3.45492E-01 3.04186E-25
3.49647E-01 2.94766E-25
3.53814E-01 2.85687E-25
3.57992E-01 2.76932E-25
3.62181E-01 2.68488E-25
3.66381E-01 2.60343E-25
3.70590E-01 2.52485E-25
3.74810E-01 2.44901E-25
3.79039E-01 2.37580E-25
3.83277E-01 2.30512E-25
3.87524E-01 2.23687E-25
3.91780E-01 2.17094E-25
3.96044E-01 2.10726E-25
4.00316E-01 2.04571E-25
4.04596E-01 1.98623E-25
4.08882E-01 1.92874E-25
4.13176E-01 1.87315E-25
4.17476E-01 1.81939E-25
4.21783E-01 1.76740E-25
4.26095E-01 1.71710E-25
4.30413E-01 1.66843E-25
4.34737E-01 1.62133E-25
4.39065E-01 1.57574E-25
4.43398E-01 1.53161E-25
4.47736E-01 1.48887E-25
4.52077E-01 1.44749E-25
4.56422E-01 1.40740E-25
4.60770E-01 1.36857E-25
4.65122E-01 1.33094E-25
4.69476E-01 1.29448E-25
4.73832E-01 1.25914E-25
4.78190E-01 1.22488E-25
4.82550E-01 1.19166E-25
4.86912E-01 1.15945E-25
4.91274E-01 1.12821E-25
4.95637E-01 1.09791E-25
5.00000E-01 1.06852E-25
5.04363E-01 1.03999E-25
5.08726E-01 1.01231E-25
5.13088E-01 9.85446E-26
5.17450E-01 9.59368E-26
5.21810E-01 9.34050E-26
5.26168E-01 9.09467E-26
5.30524E-01 8.85593E-26
5.34878E-01 8.62407E-26
5.39230E-01 8.39884E-26
5.43578E-01 8.18002E-26
5.47923E-01 7.96742E-26
5.52264E-01 7.76082E-26
5.56602E-01 7.56003E-26
5.60935E-01 7.36486E-26
5.65263E-01 7.17513E-26
5.69587E-01 6.99066E-26
5.73905E-01 6.81129E-26
5.78217E-01 6.63686E-26
5.82524E-01 6.46721E-26
5.86824E-01 6.30219E-26
5.91118E-01 6.14165E-26
5.95404E-01 5.98546E-26
5.99684E-01 5.83348E-26
6.03956E-01 5.68558E-26
6.08220E-01 5.54164E-26
6.12476E-01 5.40152E-26
6.16723E-01 5.26513E-26
6.20961E-01 5.13234E-26
6.25190E-01 5.00304E-26
6.29410E-01 4.87714E-26
6.33619E-01 4.75453E-26
6.37819E-01 4.63510E-26
6.42008E-01 4.51878E-26
6.46186E-01 4.40546E-26
6.50353E-01 4.29506E-26
6.54508E-01 4.18749E-26
6.58652E-01 4.08266E-26
6.62784E-01 3.98051E-26
6.66903E-01 3.88095E-26
6.71010E-01 3.78391E-26
6.75104E-01 3.68932E-26
6.79184E-01 3.59710E-26
6.83251E-01 3.50719E-26
6.87303E-01 3.41953E-26
6.91342E-01 3.33404E-26
6.95366E-01 3.25068E-26
6.99375E-01 3.16937E-26
7.03368E-01 3.09007E-26
7.07347E-01 3.01272E-26
7.11309E-01 2.93726E-26
7.15256E-01 2.86364E-26
7.19186E-01 2.79182E-26
7.23099E-01 2.72173E-26
7.26995E-01 2.65335E-26
7.30874E-01 2.58661E-26
7.34736E-01 2.52149E-26
7.38579E-01 2.45792E-26
7.42405E-01 2.39588E-26
7.46212E-01 2.33532E-26
7.50000E-01 2.27619E-26
7.53769E-01 2.21848E-26
7.57519E-01 2.16213E-26
7.61249E-01 2.10711E-26
7.64960E-01 2.05340E-26
7.68650E-01 2.00094E-26
7.72320E-01 1.94972E-26
7.75968E-01 1.89969E-26
7.79596E-01 1.85084E-26
7.83203E-01 1.80312E-26
7.86788E-01 1.75652E-26
7.90351E-01 1.71100E-26
7.93893E-01 1.66653E-26
7.97411E-01 1.62310E-26
8.00908E-01 1.58066E-26
8.04381E-01 1.53921E-26
8.07831E-01 1.49871E-26
8.11257E-01 1.45914E-26
8.14660E-01 1.42048E-26
8.18039E-01 1.38271E-26
8.21394E-01 1.34581E-26
8.24724E-01 1.30974E-26
8.28030E-01 1.27450E-26
8.31310E-01 1.24007E-26
8.34565E-01 1.20642E-26
8.37795E-01 1.17354E-26
8.40999E-01 1.14141E-26
8.44177E-01 1.11001E-26
8.47329E-01 1.07932E-26
8.50455E-01 1.04933E-26
8.53553E-01 1.02002E-26
8.56625E-01 9.91382E-27
8.59670E-01 9.63391E-27
8.62687E-01 9.36037E-27
8.65677E-01 9.09304E-27
8.68639E-01 8.83180E-27
8.71572E-01 8.57649E-27
8.74478E-01 8.32700E-27
8.77355E-01 8.08319E-27
8.80203E-01 7.84494E-27
8.83022E-01 7.61212E-27
8.85812E-01 7.38463E-27
8.88573E-01 7.16234E-27
8.91304E-01 6.94514E-27
8.94005E-01 6.73293E-27
8.96677E-01 6.52559E-27
8.99318E-01 6.32304E-27
9.01928E-01 6.12516E-27
9.04508E-01 5.93186E-27
9.07058E-01 5.74305E-27
9.09576E-01 5.55863E-27
9.12063E-01 5.37851E-27
9.14519E-01 5.20262E-27
9.16943E-01 5.03086E-27
9.19335E-01 4.86316E-27
9.21696E-01 4.69942E-27
9.24024E-01 4.53958E-27
9.26320E-01 4.38357E-27
9.28584E-01 4.23129E-27
9.30815E-01 4.08270E-27
9.33013E-01 3.93771E-27
9.35178E-01 3.79626E-27
9.37310E-01 3.65829E-27
9.39409E-01 3.52373E-27
9.41474E-01 3.39251E-27
9.43505E-01 3.26459E-27
9.45503E-01 3.13989E-27
9.47467E-01 3.01837E-27
9.49397E-01 2.89997E-27
9.51293E-01 2.78464E-27
9.53154E-01 2.67232E-27
9.54981E-01 2.56296E-27
9.56773E-01 2.45652E-27
9.58530E-01 2.35295E-27
9.60252E-01 2.25220E-27
9.61940E-01 2.15423E-27
9.63592E-01 2.05899E-27
9.65209E-01 1.96645E-27
9.66790E-01 1.87656E-27
9.68336E-01 1.78928E-27
9.69846E-01 1.70457E-27
9.71321E-01 1.62241E-27
9.72759E-01 1.54274E-27
9.74162E-01 1.46555E-27
9.75528E-01 1.39079E-27
9.76858E-01 1.31843E-27
9.78152E-01 1.24844E-27
9.79410E-01 1.18080E-27
9.80631E-01 1.11547E-27
9.81815E-01 1.05243E-27
9.82963E-01 9.91638E-28
9.84074E-01 9.33084E-28
9.85148E-01 8.76738E-28
9.86185E-01 8.22575E-28
9.87185E-01 7.70574E-28
9.88148E-01 7.20713E-28
9.89074E-01 6.72969E-28
9.89962E-01 6.27324E-28
9.90814E-01 5.83759E-28
9.91627E-01 5.42254E-28
9.92404E-01 5.02793E-28
9.93143E-01 4.65360E-28
9.93844E-01 4.29938E-28
9.94508E-01 3.96513E-28
9.95134E-01 3.65072E-28
9.95722E-01 3.35600E-28
9.96273E-01 3.08086E-28
9.96786E-01 2.82519E-28
9.97261E-01 2.58888E-28
9.97698E-01 2.37183E-28
9.98097E-01 2.17395E-28
9.98459E-01 1.99516E-28
9.98782E-01 1.83539E-28
9.99067E-01 1.69457E-28
9.99315E-01 1.57264E-28
9.99524E-01 1.46956E-28
9.99695E-01 1.38527E-28
9.99829E-01 1.31975E-28
9.99924E-01 1.27297E-28
9.99981E-01 1.24491E-28
1.00000E+00 1.23556E-28
