 #
 # Subroutine ELSEPA. Elastic scattering of electrons and positrons
 #                    by neutral atoms and positive ions
 #
 # Projectile: positron
 # Kinetic energy = 3.50000E+08 eV = 1.28623E+07 a.u.
 #
 # WARNING: High-energy factorization with free-atom DF screening.
 #          Absorption, polarization and exchange corrections are
 #          switched off.
 #          Phase shifts are calculated for the bare nucleus.
 #          Scattering amplitudes are not evaluated.
 #
 # Element: He,  Z =   2,  atomic weight = 4.00260E+00 g/mol
 #
 # Nuclear model: Fermi distribution
 #                Average radius = 1.69889E-13 cm
 #                Skin thickness = 5.46000E-14 cm
 #
 # Number of electrons =  2
 #
 # Total elastic cross section = 1.64512E-20 cm**2 = 5.87484E-04 a0**2
 # 1st transport cross section = 7.72948E-29 cm**2 = 2.76025E-12 a0**2
 # 2nd transport cross section = 2.31368E-28 cm**2 = 8.26230E-12 a0**2
 #
 #
 # Differential cross section:                       MU=(1-COS(THETA))/2
 #
 #  THETA        MU          DCS          DCS        Sherman      error
 #  (deg)                 (cm**2/sr)   (a0**2/sr)    function
 #----------------------------------------------------------------------
0.00000E+00 8.20779E-12
7.61557E-13 8.13666E-12
1.18994E-12 8.09703E-12
1.71346E-12 8.04899E-12
2.33225E-12 7.99270E-12
3.04617E-12 7.92844E-12
3.85530E-12 7.85649E-12
4.75964E-12 7.77712E-12
5.75917E-12 7.69075E-12
6.85391E-12 7.59757E-12
8.04379E-12 7.49823E-12
9.32893E-12 7.39276E-12
1.07092E-11 7.28200E-12
1.21847E-11 7.16591E-12
1.37554E-11 7.03545E-12
1.54213E-11 6.90467E-12
1.71823E-11 6.77802E-12
1.90386E-11 6.65585E-12
2.09900E-11 6.51476E-12
2.30367E-11 6.37064E-12
2.51785E-11 6.23315E-12
2.74156E-11 6.10225E-12
2.97478E-11 5.95551E-12
3.21752E-11 5.80531E-12
3.46979E-11 5.66328E-12
3.73157E-11 5.52909E-12
4.00286E-11 5.38303E-12
4.28368E-11 5.23311E-12
4.57402E-11 5.09204E-12
4.87388E-11 4.95930E-12
5.18325E-11 4.81874E-12
5.50215E-11 4.67412E-12
5.83057E-11 4.53837E-12
6.16850E-11 4.41088E-12
6.51595E-11 4.27912E-12
6.87293E-11 4.14337E-12
7.23943E-11 4.01604E-12
7.61544E-11 3.89655E-12
1.18991E-10 2.79898E-12
1.71347E-10 1.98318E-12
2.33223E-10 1.39983E-12
3.04617E-10 9.92805E-13
3.85531E-10 7.10591E-13
4.75965E-10 5.19287E-13
5.75917E-10 3.82366E-13
6.85389E-10 2.85072E-13
8.04380E-10 2.16616E-13
9.32891E-10 1.67049E-13
1.07092E-09 1.30208E-13
1.21847E-09 1.02598E-13
1.37554E-09 8.18580E-14
1.54213E-09 6.61356E-14
1.71823E-09 5.38127E-14
1.90386E-09 4.42284E-14
2.09900E-09 3.66833E-14
2.30367E-09 3.06386E-14
2.51785E-09 2.57825E-14
2.74156E-09 2.18344E-14
2.97478E-09 1.86148E-14
3.21752E-09 1.59683E-14
3.46978E-09 1.37604E-14
3.73156E-09 1.19227E-14
4.00286E-09 1.03834E-14
4.28368E-09 9.07711E-15
4.57402E-09 7.96797E-15
4.87388E-09 7.02301E-15
5.18326E-09 6.21393E-15
5.50215E-09 5.51798E-15
5.83057E-09 4.91670E-15
6.16850E-09 4.39507E-15
6.51596E-09 3.94076E-15
6.87293E-09 3.54363E-15
7.23942E-09 3.19525E-15
7.61544E-09 2.88861E-15
1.18991E-08 1.18634E-15
1.71347E-08 5.72943E-16
2.33223E-08 3.09531E-16
3.04617E-08 1.81544E-16
3.85531E-08 1.13381E-16
4.75965E-08 7.44101E-17
5.75917E-08 5.08335E-17
6.85389E-08 3.58975E-17
8.04380E-08 2.60656E-17
9.32891E-08 1.93808E-17
1.07092E-07 1.47079E-17
1.21847E-07 1.13622E-17
1.37554E-07 8.91602E-18
1.54213E-07 7.09407E-18
1.71823E-07 5.71461E-18
1.90386E-07 4.65473E-18
2.09900E-07 3.82956E-18
2.30367E-07 3.17940E-18
2.51785E-07 2.66154E-18
2.74156E-07 2.24495E-18
2.97478E-07 1.90677E-18
3.21752E-07 1.62994E-18
3.46978E-07 1.40157E-18
3.73156E-07 1.21183E-18
4.00286E-07 1.05314E-18
4.28368E-07 9.19596E-19
4.57402E-07 8.06564E-19
4.87388E-07 7.10376E-19
5.18325E-07 6.28109E-19
5.50215E-07 5.57414E-19
5.83057E-07 4.96390E-19
6.16850E-07 4.43493E-19
6.51596E-07 3.97459E-19
6.87293E-07 3.57245E-19
7.23942E-07 3.21991E-19
7.61543E-07 2.90980E-19
1.18991E-06 1.19187E-19
1.71347E-06 5.74788E-20
2.33223E-06 3.10256E-20
3.04617E-06 1.81866E-20
3.85531E-06 1.13537E-20
4.75964E-06 7.44913E-21
5.75916E-06 5.08782E-21
6.85388E-06 3.59231E-21
8.04378E-06 2.60809E-21
9.32888E-06 1.93901E-21
1.07092E-05 1.47137E-21
1.21846E-05 1.13659E-21
1.37553E-05 8.91836E-22
1.54212E-05 7.09557E-22
1.71822E-05 5.71557E-22
1.90385E-05 4.65532E-22
2.09899E-05 3.82991E-22
2.30365E-05 3.17960E-22
2.51783E-05 2.65974E-22
2.74153E-05 2.24497E-22
2.97475E-05 1.90674E-22
3.21749E-05 1.62988E-22
3.46974E-05 1.40149E-22
3.73152E-05 1.21284E-22
4.00281E-05 1.05304E-22
4.28362E-05 9.19494E-23
4.57395E-05 8.06462E-23
4.87380E-05 7.10831E-23
5.18317E-05 6.27387E-23
5.50205E-05 5.57320E-23
5.83045E-05 4.96301E-23
6.16838E-05 4.43408E-23
6.51582E-05 3.97225E-23
6.87277E-05 3.57461E-23
7.23925E-05 3.21918E-23
7.61524E-05 2.90911E-23
9.21439E-05 1.98691E-23
1.09658E-04 1.39998E-23
1.28695E-04 1.01499E-23
1.49255E-04 7.54184E-24
1.71338E-04 5.72344E-24
1.94942E-04 4.41433E-24
2.20070E-04 3.46467E-24
2.46720E-04 2.75280E-24
2.74892E-04 2.21652E-24
3.04586E-04 1.80403E-24
3.35803E-04 1.48256E-24
3.68542E-04 1.23031E-24
4.02802E-04 1.02856E-24
4.38585E-04 8.67030E-25
4.75889E-04 7.35593E-25
5.14715E-04 6.28152E-25
5.55063E-04 5.39664E-25
5.96931E-04 4.65997E-25
6.40321E-04 4.04617E-25
6.85233E-04 3.52840E-25
7.31665E-04 3.09130E-25
7.79618E-04 2.71936E-25
8.29092E-04 2.40117E-25
8.80086E-04 2.12845E-25
9.32601E-04 1.89264E-25
9.86636E-04 1.68883E-25
1.04219E-03 1.51132E-25
1.09927E-03 1.35643E-25
1.15786E-03 1.22084E-25
1.21797E-03 1.10149E-25
1.27961E-03 9.96440E-26
1.34276E-03 9.03373E-26
1.40743E-03 8.20916E-26
1.47362E-03 7.47555E-26
1.54133E-03 6.82095E-26
1.61056E-03 6.23646E-26
1.68131E-03 5.71185E-26
1.75357E-03 5.24130E-26
1.82735E-03 4.81732E-26
1.90265E-03 4.43493E-26
1.97947E-03 4.08946E-26
2.05780E-03 3.77624E-26
2.13765E-03 3.49240E-26
2.21902E-03 3.23409E-26
2.30190E-03 2.99905E-26
2.38630E-03 2.78464E-26
2.47222E-03 2.58868E-26
2.55965E-03 2.40954E-26
2.64859E-03 2.24521E-26
2.73905E-03 2.09456E-26
2.83103E-03 1.95603E-26
2.92452E-03 1.82858E-26
3.01952E-03 1.71119E-26
3.11604E-03 1.60282E-26
3.21407E-03 1.50281E-26
3.31362E-03 1.41025E-26
3.41468E-03 1.32460E-26
3.51725E-03 1.24520E-26
3.62133E-03 1.17152E-26
3.72692E-03 1.10312E-26
3.83403E-03 1.03948E-26
3.94265E-03 9.80289E-27
4.05278E-03 9.25127E-27
4.16442E-03 8.73695E-27
4.27757E-03 8.25712E-27
4.39223E-03 7.80862E-27
4.50840E-03 7.38964E-27
4.62608E-03 6.99735E-27
4.74527E-03 6.63015E-27
4.86597E-03 6.28600E-27
4.98817E-03 5.96312E-27
5.11188E-03 5.66024E-27
5.23711E-03 5.37556E-27
5.36383E-03 5.10813E-27
5.49207E-03 4.85650E-27
5.62181E-03 4.61966E-27
5.75306E-03 4.39665E-27
5.88581E-03 4.18635E-27
6.02007E-03 3.98815E-27
6.15583E-03 3.80102E-27
6.29310E-03 3.62438E-27
6.43187E-03 3.45749E-27
6.57214E-03 3.29968E-27
6.71392E-03 3.15049E-27
6.85720E-03 3.00923E-27
7.00198E-03 2.87552E-27
7.14827E-03 2.74882E-27
7.29605E-03 2.62873E-27
7.44534E-03 2.51487E-27
7.59612E-03 2.40679E-27
7.97965E-03 2.15993E-27
8.37255E-03 1.94258E-27
8.77480E-03 1.75068E-27
9.18641E-03 1.58080E-27
9.60736E-03 1.43004E-27
1.00376E-02 1.29593E-27
1.04773E-02 1.17636E-27
1.09262E-02 1.06952E-27
1.13844E-02 9.73863E-28
1.18520E-02 8.88043E-28
1.23288E-02 8.10904E-28
1.28150E-02 7.41444E-28
1.33104E-02 6.78789E-28
1.38150E-02 6.22180E-28
1.43290E-02 5.70950E-28
1.48521E-02 5.24519E-28
1.53845E-02 4.82375E-28
1.59262E-02 4.44069E-28
1.64770E-02 4.09203E-28
1.70371E-02 3.77427E-28
1.76063E-02 3.48432E-28
1.81848E-02 3.21943E-28
1.87724E-02 2.97714E-28
1.93692E-02 2.75527E-28
1.99751E-02 2.55190E-28
2.05901E-02 2.36529E-28
2.12143E-02 2.19387E-28
2.18476E-02 2.03627E-28
2.24900E-02 1.89123E-28
2.31415E-02 1.75764E-28
2.38021E-02 1.63448E-28
2.44717E-02 1.52084E-28
2.51504E-02 1.41591E-28
2.58382E-02 1.31894E-28
2.65349E-02 1.22925E-28
2.72407E-02 1.14625E-28
2.79555E-02 1.06938E-28
2.86793E-02 9.98131E-29
2.94120E-02 9.32056E-29
3.01537E-02 8.70739E-29
3.09043E-02 8.13803E-29
3.16639E-02 7.60902E-29
3.24324E-02 7.11722E-29
3.32098E-02 6.65976E-29
3.39961E-02 6.23401E-29
3.47912E-02 5.83757E-29
3.55952E-02 5.46823E-29
3.64081E-02 5.12396E-29
3.72297E-02 4.80292E-29
3.80602E-02 4.50340E-29
3.88995E-02 4.22383E-29
3.97476E-02 3.96277E-29
4.06044E-02 3.71889E-29
4.14700E-02 3.49097E-29
4.23443E-02 3.27787E-29
4.32273E-02 3.07857E-29
4.41190E-02 2.89210E-29
4.50194E-02 2.71756E-29
4.59284E-02 2.55414E-29
4.68461E-02 2.40108E-29
4.87074E-02 2.12328E-29
5.06030E-02 1.87912E-29
5.25328E-02 1.66427E-29
5.44967E-02 1.47501E-29
5.64946E-02 1.30812E-29
5.85262E-02 1.16081E-29
6.05914E-02 1.03067E-29
6.26901E-02 9.15598E-30
6.48222E-02 8.13764E-30
6.69873E-02 7.23579E-30
6.91854E-02 6.43655E-30
7.14163E-02 5.72777E-30
7.36799E-02 5.09881E-30
7.59760E-02 4.54038E-30
7.83043E-02 4.04429E-30
8.06647E-02 3.60336E-30
8.30571E-02 3.21128E-30
8.54812E-02 2.86248E-30
8.79369E-02 2.55206E-30
9.04240E-02 2.27569E-30
9.29422E-02 2.02956E-30
9.54915E-02 1.81027E-30
9.80716E-02 1.61486E-30
1.00682E-01 1.44067E-30
1.03323E-01 1.28536E-30
1.05995E-01 1.14685E-30
1.08696E-01 1.02330E-30
1.11427E-01 9.13075E-31
1.14188E-01 8.14725E-31
1.16978E-01 7.26956E-31
1.19797E-01 6.48622E-31
1.22645E-01 5.78701E-31
1.25522E-01 5.16285E-31
1.28428E-01 4.60565E-31
1.31361E-01 4.10819E-31
1.34323E-01 3.66407E-31
1.37313E-01 3.26755E-31
1.40330E-01 2.91354E-31
1.43375E-01 2.59748E-31
1.46447E-01 2.31532E-31
1.49545E-01 2.06343E-31
1.52671E-01 1.83857E-31
1.55823E-01 1.63787E-31
1.59001E-01 1.45874E-31
1.62205E-01 1.29889E-31
1.65435E-01 1.15625E-31
1.68690E-01 1.02900E-31
1.71970E-01 9.15479E-32
1.75276E-01 8.14234E-32
1.78606E-01 7.23948E-32
1.81961E-01 6.43454E-32
1.85340E-01 5.71702E-32
1.88743E-01 5.07759E-32
1.92169E-01 4.50788E-32
1.95619E-01 4.00044E-32
1.99092E-01 3.54854E-32
2.02589E-01 3.14627E-32
2.06107E-01 2.78825E-32
2.09649E-01 2.46972E-32
2.13212E-01 2.18644E-32
2.16797E-01 1.93457E-32
2.20404E-01 1.71074E-32
2.24032E-01 1.51189E-32
2.27680E-01 1.33530E-32
2.31350E-01 1.17856E-32
2.35040E-01 1.03950E-32
2.38751E-01 9.16174E-33
2.42481E-01 8.06868E-33
2.46231E-01 7.10026E-33
2.50000E-01 6.24294E-33
2.53788E-01 5.48423E-33
2.57595E-01 4.81330E-33
2.61421E-01 4.22032E-33
2.65264E-01 3.69664E-33
2.69126E-01 3.23440E-33
2.73005E-01 2.82676E-33
2.76901E-01 2.46754E-33
2.80814E-01 2.15124E-33
2.84744E-01 1.87295E-33
2.88691E-01 1.62838E-33
2.92653E-01 1.41359E-33
2.96632E-01 1.22520E-33
3.00625E-01 1.06009E-33
3.04634E-01 9.15597E-34
3.08658E-01 7.89256E-34
3.12697E-01 6.78971E-34
3.16749E-01 5.82797E-34
3.20816E-01 4.99065E-34
3.24896E-01 4.26280E-34
3.28990E-01 3.63103E-34
3.33097E-01 3.08388E-34
3.37216E-01 2.61068E-34
3.41348E-01 2.20231E-34
3.45492E-01 1.85088E-34
3.49647E-01 1.54892E-34
3.53814E-01 1.29037E-34
3.57992E-01 1.06956E-34
3.62181E-01 8.81532E-35
3.66381E-01 7.22019E-35
3.70590E-01 5.87243E-35
3.74810E-01 4.73834E-35
3.79039E-01 3.78917E-35
3.83277E-01 2.99874E-35
3.87524E-01 2.34504E-35
3.91780E-01 1.80828E-35
3.96044E-01 1.37174E-35
4.00316E-01 1.02001E-35
4.04596E-01 7.40431E-36
4.08882E-01 5.21707E-36
4.13176E-01 3.54296E-36
4.17476E-01 2.29445E-36
4.21783E-01 1.40056E-36
4.26095E-01 7.98783E-37
4.30413E-01 4.35078E-37
4.34737E-01 2.64114E-37
4.39065E-01 2.46378E-37
4.43398E-01 3.48626E-37
4.47736E-01 5.42586E-37
4.52077E-01 8.05256E-37
4.56422E-01 1.11554E-36
4.60770E-01 1.45864E-36
4.65122E-01 1.82023E-36
4.69476E-01 2.18923E-36
4.73832E-01 2.55664E-36
4.78190E-01 2.91514E-36
4.82550E-01 3.25922E-36
4.86912E-01 3.58396E-36
4.91274E-01 3.88801E-36
4.95637E-01 4.16554E-36
5.00000E-01 4.42024E-36
5.04363E-01 4.64868E-36
5.08726E-01 4.84932E-36
5.13088E-01 5.02294E-36
5.17450E-01 5.17226E-36
5.21810E-01 5.29459E-36
5.26168E-01 5.39328E-36
5.30524E-01 5.46888E-36
5.34878E-01 5.52300E-36
5.39230E-01 5.55588E-36
5.43578E-01 5.57072E-36
5.47923E-01 5.56719E-36
5.52264E-01 5.54848E-36
5.56602E-01 5.51297E-36
5.60935E-01 5.46431E-36
5.65263E-01 5.40369E-36
5.69587E-01 5.33194E-36
5.73905E-01 5.24915E-36
5.78217E-01 5.15856E-36
5.82524E-01 5.06196E-36
5.86824E-01 4.95749E-36
5.91118E-01 4.84767E-36
5.95404E-01 4.73167E-36
5.99684E-01 4.61493E-36
6.03956E-01 4.49419E-36
6.08220E-01 4.36991E-36
6.12476E-01 4.24574E-36
6.16723E-01 4.11950E-36
6.20961E-01 3.99196E-36
6.25190E-01 3.86613E-36
6.29410E-01 3.74022E-36
6.33619E-01 3.61469E-36
6.37819E-01 3.49012E-36
6.42008E-01 3.36771E-36
6.46186E-01 3.24613E-36
6.50353E-01 3.12669E-36
6.54508E-01 3.00993E-36
6.58652E-01 2.89556E-36
6.62784E-01 2.78384E-36
6.66903E-01 2.67425E-36
6.71010E-01 2.56730E-36
6.75104E-01 2.46395E-36
6.79184E-01 2.36297E-36
6.83251E-01 2.26523E-36
6.87303E-01 2.17000E-36
6.91342E-01 2.07753E-36
6.95366E-01 1.98902E-36
6.99375E-01 1.90282E-36
7.03368E-01 1.82011E-36
7.07347E-01 1.73954E-36
7.11309E-01 1.66207E-36
7.15256E-01 1.58702E-36
7.19186E-01 1.51635E-36
7.23099E-01 1.44673E-36
7.26995E-01 1.38076E-36
7.30874E-01 1.31623E-36
7.34736E-01 1.25537E-36
7.38579E-01 1.19625E-36
7.42405E-01 1.14049E-36
7.46212E-01 1.08572E-36
7.50000E-01 1.03440E-36
7.53769E-01 9.84936E-37
7.57519E-01 9.37533E-37
7.61249E-01 8.91997E-37
7.64960E-01 8.48368E-37
7.68650E-01 8.07379E-37
7.72320E-01 7.67823E-37
7.75968E-01 7.29869E-37
7.79596E-01 6.93733E-37
7.83203E-01 6.59506E-37
7.86788E-01 6.26662E-37
7.90351E-01 5.95323E-37
7.93893E-01 5.65329E-37
7.97411E-01 5.37248E-37
8.00908E-01 5.10129E-37
8.04381E-01 4.84086E-37
8.07831E-01 4.59620E-37
8.11257E-01 4.36037E-37
8.14660E-01 4.14378E-37
8.18039E-01 3.92854E-37
8.21394E-01 3.72394E-37
8.24724E-01 3.53119E-37
8.28030E-01 3.35393E-37
8.31310E-01 3.17912E-37
8.34565E-01 3.01266E-37
8.37795E-01 2.85639E-37
8.40999E-01 2.70763E-37
8.44177E-01 2.56465E-37
8.47329E-01 2.43313E-37
8.50455E-01 2.30382E-37
8.53553E-01 2.18082E-37
8.56625E-01 2.06734E-37
8.59670E-01 1.95726E-37
8.62687E-01 1.85467E-37
8.65677E-01 1.75430E-37
8.68639E-01 1.66331E-37
8.71572E-01 1.57776E-37
8.74478E-01 1.49120E-37
8.77355E-01 1.41093E-37
8.80203E-01 1.33359E-37
8.83022E-01 1.26125E-37
8.85812E-01 1.19474E-37
8.88573E-01 1.13000E-37
8.91304E-01 1.07041E-37
8.94005E-01 1.01160E-37
8.96677E-01 9.54404E-38
8.99318E-01 9.03540E-38
9.01928E-01 8.54977E-38
9.04508E-01 8.07381E-38
9.07058E-01 7.64708E-38
9.09576E-01 7.21569E-38
9.12063E-01 6.80751E-38
9.14519E-01 6.42847E-38
9.16943E-01 6.07652E-38
9.19335E-01 5.74375E-38
9.21696E-01 5.41140E-38
9.24024E-01 5.11981E-38
9.26320E-01 4.83681E-38
9.28584E-01 4.54730E-38
9.30815E-01 4.29763E-38
9.33013E-01 4.05552E-38
9.35178E-01 3.82379E-38
9.37310E-01 3.61629E-38
9.39409E-01 3.40055E-38
9.41474E-01 3.20900E-38
9.43505E-01 3.00812E-38
9.45503E-01 2.83560E-38
9.47467E-01 2.66825E-38
9.49397E-01 2.51228E-38
9.51293E-01 2.36741E-38
9.53154E-01 2.20964E-38
9.54981E-01 2.08121E-38
9.56773E-01 1.94961E-38
9.58530E-01 1.82591E-38
9.60252E-01 1.72358E-38
9.61940E-01 1.61897E-38
9.63592E-01 1.51329E-38
9.65209E-01 1.42334E-38
9.66790E-01 1.32359E-38
9.68336E-01 1.24354E-38
9.69846E-01 1.16391E-38
9.71321E-01 1.08665E-38
9.72759E-01 1.01163E-38
9.74162E-01 9.40474E-39
9.75528E-01 8.76926E-39
9.76858E-01 8.17802E-39
9.78152E-01 7.56769E-39
9.79410E-01 6.97569E-39
9.80631E-01 6.49963E-39
9.81815E-01 5.94908E-39
9.82963E-01 5.55991E-39
9.84074E-01 5.05483E-39
9.85148E-01 4.65782E-39
9.86185E-01 4.26685E-39
9.87185E-01 3.93034E-39
9.88148E-01 3.59054E-39
9.89074E-01 3.28210E-39
9.89962E-01 2.98557E-39
9.90814E-01 2.68565E-39
9.91627E-01 2.46465E-39
9.92404E-01 2.16365E-39
9.93143E-01 1.92732E-39
9.93844E-01 1.70390E-39
9.94508E-01 1.55866E-39
9.95134E-01 1.35287E-39
9.95722E-01 1.19944E-39
9.96273E-01 1.02843E-39
9.96786E-01 8.92664E-40
9.97261E-01 7.56015E-40
9.97698E-01 6.32637E-40
9.98097E-01 5.06638E-40
9.98459E-01 4.26721E-40
9.98782E-01 3.18173E-40
9.99067E-01 2.47656E-40
9.99315E-01 1.60771E-40
9.99524E-01 1.30664E-40
9.99695E-01 9.04184E-41
9.99829E-01 4.12056E-41
9.99924E-01 3.54834E-41
9.99981E-01 2.31782E-41
1.00000E+00 2.22052E-41
