 #
 # Subroutine ELSEPA. Elastic scattering of electrons and positrons
 #                    by neutral atoms and positive ions
 #
 # Projectile: positron
 # Kinetic energy = 3.00000E+07 eV = 1.10248E+06 a.u.
 #
 # WARNING: High-energy factorization with free-atom DF screening.
 #          Absorption, polarization and exchange corrections are
 #          switched off.
 #          Phase shifts are calculated for the bare nucleus.
 #          Scattering amplitudes are not evaluated.
 #
 # Element: He,  Z =   2,  atomic weight = 4.00260E+00 g/mol
 #
 # Nuclear model: Fermi distribution
 #                Average radius = 1.69889E-13 cm
 #                Skin thickness = 5.46000E-14 cm
 #
 # Number of electrons =  2
 #
 # Total elastic cross section = 1.64596E-20 cm**2 = 5.87783E-04 a0**2
 # 1st transport cross section = 8.96778E-27 cm**2 = 3.20245E-10 a0**2
 # 2nd transport cross section = 2.61229E-26 cm**2 = 9.32864E-10 a0**2
 #
 #
 # Differential cross section:                       MU=(1-COS(THETA))/2
 #
 #  THETA        MU          DCS          DCS        Sherman      error
 #  (deg)                 (cm**2/sr)   (a0**2/sr)    function
 #----------------------------------------------------------------------
0.00000E+00 6.21922E-14
7.61557E-13 6.21880E-14
1.18994E-12 6.21857E-14
1.71346E-12 6.21829E-14
2.33225E-12 6.21795E-14
3.04617E-12 6.21757E-14
3.85530E-12 6.21713E-14
4.75964E-12 6.21664E-14
5.75917E-12 6.21610E-14
6.85391E-12 6.21551E-14
8.04379E-12 6.21487E-14
9.32893E-12 6.21418E-14
1.07092E-11 6.21343E-14
1.21847E-11 6.21264E-14
1.37554E-11 6.21179E-14
1.54213E-11 6.21090E-14
1.71823E-11 6.20995E-14
1.90386E-11 6.20895E-14
2.09900E-11 6.20790E-14
2.30367E-11 6.20679E-14
2.51785E-11 6.20564E-14
2.74156E-11 6.20444E-14
2.97478E-11 6.20319E-14
3.21752E-11 6.20188E-14
3.46979E-11 6.20053E-14
3.73157E-11 6.19912E-14
4.00286E-11 6.19766E-14
4.28368E-11 6.19616E-14
4.57402E-11 6.19460E-14
4.87388E-11 6.19299E-14
5.18325E-11 6.19134E-14
5.50215E-11 6.18962E-14
5.83057E-11 6.18786E-14
6.16850E-11 6.18606E-14
6.51595E-11 6.18420E-14
6.87293E-11 6.18229E-14
7.23943E-11 6.18033E-14
7.61544E-11 6.17832E-14
1.18991E-10 6.15549E-14
1.71347E-10 6.12776E-14
2.33223E-10 6.09522E-14
3.04617E-10 6.05794E-14
3.85531E-10 6.01608E-14
4.75965E-10 5.96977E-14
5.75917E-10 5.91917E-14
6.85389E-10 5.86445E-14
8.04380E-10 5.80578E-14
9.32891E-10 5.74332E-14
1.07092E-09 5.67722E-14
1.21847E-09 5.60774E-14
1.37554E-09 5.53509E-14
1.54213E-09 5.45949E-14
1.71823E-09 5.37778E-14
1.90386E-09 5.29021E-14
2.09900E-09 5.20486E-14
2.30367E-09 5.12195E-14
2.51785E-09 5.04163E-14
2.74156E-09 4.94886E-14
2.97478E-09 4.85304E-14
3.21752E-09 4.76103E-14
3.46978E-09 4.67282E-14
3.73156E-09 4.58761E-14
4.00286E-09 4.48469E-14
4.28368E-09 4.38660E-14
4.57402E-09 4.29318E-14
4.87388E-09 4.20426E-14
5.18326E-09 4.11170E-14
5.50215E-09 4.01075E-14
5.83057E-09 3.91500E-14
6.16850E-09 3.82419E-14
6.51596E-09 3.73807E-14
6.87293E-09 3.64298E-14
7.23942E-09 3.54766E-14
7.61544E-09 3.45745E-14
1.18991E-08 2.63395E-14
1.71347E-08 1.96774E-14
2.33223E-08 1.45655E-14
3.04617E-08 1.07476E-14
3.85531E-08 7.96135E-15
4.75965E-08 5.93733E-15
5.75917E-08 4.49224E-15
6.85389E-08 3.43109E-15
8.04380E-08 2.63675E-15
9.32891E-08 2.05037E-15
1.07092E-07 1.61728E-15
1.21847E-07 1.28998E-15
1.37554E-07 1.03710E-15
1.54213E-07 8.40603E-16
1.71823E-07 6.87497E-16
1.90386E-07 5.67990E-16
2.09900E-07 4.72713E-16
2.30367E-07 3.95885E-16
2.51785E-07 3.33962E-16
2.74156E-07 2.83683E-16
2.97478E-07 2.42281E-16
3.21752E-07 2.08134E-16
3.46978E-07 1.79632E-16
3.73156E-07 1.55850E-16
4.00286E-07 1.35870E-16
4.28368E-07 1.18985E-16
4.57402E-07 1.04555E-16
4.87388E-07 9.22542E-17
5.18325E-07 8.17222E-17
5.50215E-07 7.26236E-17
5.83057E-07 6.47218E-17
6.16850E-07 5.78650E-17
6.51596E-07 5.18916E-17
6.87293E-07 4.66688E-17
7.23942E-07 4.20862E-17
7.61543E-07 3.80520E-17
1.18991E-06 1.56409E-17
1.71347E-06 7.55723E-18
2.33223E-06 4.08388E-18
3.04617E-06 2.39567E-18
3.85531E-06 1.49636E-18
4.75964E-06 9.82113E-19
5.75916E-06 6.70973E-19
6.85388E-06 4.73845E-19
8.04378E-06 3.44076E-19
9.32888E-06 2.55839E-19
1.07092E-05 1.94158E-19
1.21846E-05 1.49994E-19
1.37553E-05 1.17702E-19
1.54212E-05 9.36506E-20
1.71822E-05 7.54404E-20
1.90385E-05 6.14488E-20
2.09899E-05 5.05555E-20
2.30365E-05 4.19725E-20
2.51783E-05 3.51114E-20
2.74153E-05 2.96364E-20
2.97475E-05 2.51719E-20
3.21749E-05 2.15173E-20
3.46974E-05 1.85024E-20
3.73152E-05 1.60119E-20
4.00281E-05 1.39026E-20
4.28362E-05 1.21397E-20
4.57395E-05 1.06475E-20
4.87380E-05 9.38485E-21
5.18317E-05 8.28347E-21
5.50205E-05 7.35832E-21
5.83045E-05 6.55272E-21
6.16838E-05 5.85442E-21
6.51582E-05 5.24471E-21
6.87277E-05 4.71964E-21
7.23925E-05 4.25043E-21
7.61524E-05 3.84106E-21
9.21439E-05 2.62346E-21
1.09658E-04 1.85338E-21
1.28695E-04 1.34436E-21
1.49255E-04 9.99418E-22
1.71338E-04 7.58849E-22
1.94942E-04 5.85625E-22
2.20070E-04 4.59911E-22
2.46720E-04 3.65656E-22
2.74892E-04 2.94621E-22
3.04586E-04 2.39964E-22
3.35803E-04 1.97353E-22
3.68542E-04 1.63903E-22
4.02802E-04 1.37140E-22
4.38585E-04 1.15702E-22
4.75889E-04 9.82508E-23
5.14715E-04 8.39789E-23
5.55063E-04 7.22187E-23
5.96931E-04 6.24237E-23
6.40321E-04 5.42579E-23
6.85233E-04 4.73662E-23
7.31665E-04 4.15448E-23
7.79618E-04 3.65884E-23
8.29092E-04 3.23459E-23
8.80086E-04 2.87073E-23
9.32601E-04 2.55592E-23
9.86636E-04 2.28364E-23
1.04219E-03 2.04635E-23
1.09927E-03 1.83916E-23
1.15786E-03 1.65765E-23
1.21797E-03 1.49776E-23
1.27961E-03 1.35693E-23
1.34276E-03 1.23207E-23
1.40743E-03 1.12135E-23
1.47362E-03 1.02277E-23
1.54133E-03 9.34738E-24
1.61056E-03 8.56063E-24
1.68131E-03 7.85390E-24
1.75357E-03 7.21941E-24
1.82735E-03 6.64722E-24
1.90265E-03 6.13068E-24
1.97947E-03 5.66356E-24
2.05780E-03 5.23966E-24
2.13765E-03 4.85513E-24
2.21902E-03 4.50484E-24
2.30190E-03 4.18578E-24
2.38630E-03 3.89443E-24
2.47222E-03 3.62786E-24
2.55965E-03 3.38391E-24
2.64859E-03 3.15989E-24
2.73905E-03 2.95428E-24
2.83103E-03 2.76500E-24
2.92452E-03 2.59065E-24
3.01952E-03 2.42989E-24
3.11604E-03 2.28128E-24
3.21407E-03 2.14398E-24
3.31362E-03 2.01675E-24
3.41468E-03 1.89887E-24
3.51725E-03 1.78946E-24
3.62133E-03 1.68778E-24
3.72692E-03 1.59328E-24
3.83403E-03 1.50522E-24
3.94265E-03 1.42322E-24
4.05278E-03 1.34669E-24
4.16442E-03 1.27524E-24
4.27757E-03 1.20848E-24
4.39223E-03 1.14599E-24
4.50840E-03 1.08752E-24
4.62608E-03 1.03270E-24
4.74527E-03 9.81310E-25
4.86597E-03 9.33070E-25
4.98817E-03 8.87742E-25
5.11188E-03 8.45154E-25
5.23711E-03 8.05062E-25
5.36383E-03 7.67337E-25
5.49207E-03 7.31783E-25
5.62181E-03 6.98263E-25
5.75306E-03 6.66647E-25
5.88581E-03 6.36784E-25
6.02007E-03 6.08588E-25
6.15583E-03 5.81921E-25
6.29310E-03 5.56705E-25
6.43187E-03 5.32837E-25
6.57214E-03 5.10228E-25
6.71392E-03 4.88814E-25
6.85720E-03 4.68499E-25
7.00198E-03 4.49236E-25
7.14827E-03 4.30948E-25
7.29605E-03 4.13579E-25
7.44534E-03 3.97079E-25
7.59612E-03 3.81386E-25
7.97965E-03 3.45420E-25
8.37255E-03 3.13590E-25
8.77480E-03 2.85338E-25
9.18641E-03 2.60193E-25
9.60736E-03 2.37753E-25
1.00376E-02 2.17678E-25
1.04773E-02 1.99673E-25
1.09262E-02 1.83490E-25
1.13844E-02 1.68910E-25
1.18520E-02 1.55747E-25
1.23288E-02 1.43839E-25
1.28150E-02 1.33045E-25
1.33104E-02 1.23243E-25
1.38150E-02 1.14326E-25
1.43290E-02 1.06198E-25
1.48521E-02 9.87789E-26
1.53845E-02 9.19947E-26
1.59262E-02 8.57816E-26
1.64770E-02 8.00829E-26
1.70371E-02 7.48484E-26
1.76063E-02 7.00335E-26
1.81848E-02 6.55986E-26
1.87724E-02 6.15082E-26
1.93692E-02 5.77307E-26
1.99751E-02 5.42379E-26
2.05901E-02 5.10045E-26
2.12143E-02 4.80077E-26
2.18476E-02 4.52271E-26
2.24900E-02 4.26442E-26
2.31415E-02 4.02424E-26
2.38021E-02 3.80067E-26
2.44717E-02 3.59236E-26
2.51504E-02 3.39806E-26
2.58382E-02 3.21668E-26
2.65349E-02 3.04719E-26
2.72407E-02 2.88866E-26
2.79555E-02 2.74027E-26
2.86793E-02 2.60125E-26
2.94120E-02 2.47089E-26
3.01537E-02 2.34855E-26
3.09043E-02 2.23366E-26
3.16639E-02 2.12568E-26
3.24324E-02 2.02410E-26
3.32098E-02 1.92850E-26
3.39961E-02 1.83844E-26
3.47912E-02 1.75355E-26
3.55952E-02 1.67347E-26
3.64081E-02 1.59789E-26
3.72297E-02 1.52651E-26
3.80602E-02 1.45904E-26
3.88995E-02 1.39524E-26
3.97476E-02 1.33486E-26
4.06044E-02 1.27770E-26
4.14700E-02 1.22354E-26
4.23443E-02 1.17221E-26
4.32273E-02 1.12352E-26
4.41190E-02 1.07731E-26
4.50194E-02 1.03344E-26
4.59284E-02 9.91764E-27
4.68461E-02 9.52153E-27
4.87074E-02 8.78647E-27
5.06030E-02 8.12048E-27
5.25328E-02 7.51593E-27
5.44967E-02 6.96617E-27
5.64946E-02 6.46536E-27
5.85262E-02 6.00838E-27
6.05914E-02 5.59071E-27
6.26901E-02 5.20838E-27
6.48222E-02 4.85788E-27
6.69873E-02 4.53608E-27
6.91854E-02 4.24023E-27
7.14163E-02 3.96785E-27
7.36799E-02 3.71676E-27
7.59760E-02 3.48501E-27
7.83043E-02 3.27082E-27
8.06647E-02 3.07265E-27
8.30571E-02 2.88908E-27
8.54812E-02 2.71884E-27
8.79369E-02 2.56079E-27
9.04240E-02 2.41391E-27
9.29422E-02 2.27727E-27
9.54915E-02 2.15002E-27
9.80716E-02 2.03140E-27
1.00682E-01 1.92073E-27
1.03323E-01 1.81738E-27
1.05995E-01 1.72078E-27
1.08696E-01 1.63041E-27
1.11427E-01 1.54579E-27
1.14188E-01 1.46649E-27
1.16978E-01 1.39213E-27
1.19797E-01 1.32234E-27
1.22645E-01 1.25678E-27
1.25522E-01 1.19516E-27
1.28428E-01 1.13719E-27
1.31361E-01 1.08263E-27
1.34323E-01 1.03123E-27
1.37313E-01 9.82780E-28
1.40330E-01 9.37082E-28
1.43375E-01 8.93951E-28
1.46447E-01 8.53216E-28
1.49545E-01 8.14722E-28
1.52671E-01 7.78323E-28
1.55823E-01 7.43884E-28
1.59001E-01 7.11282E-28
1.62205E-01 6.80401E-28
1.65435E-01 6.51134E-28
1.68690E-01 6.23383E-28
1.71970E-01 5.97054E-28
1.75276E-01 5.72062E-28
1.78606E-01 5.48326E-28
1.81961E-01 5.25774E-28
1.85340E-01 5.04334E-28
1.88743E-01 4.83944E-28
1.92169E-01 4.64541E-28
1.95619E-01 4.46071E-28
1.99092E-01 4.28480E-28
2.02589E-01 4.11719E-28
2.06107E-01 3.95743E-28
2.09649E-01 3.80507E-28
2.13212E-01 3.65972E-28
2.16797E-01 3.52100E-28
2.20404E-01 3.38855E-28
2.24032E-01 3.26204E-28
2.27680E-01 3.14116E-28
2.31350E-01 3.02561E-28
2.35040E-01 2.91512E-28
2.38751E-01 2.80942E-28
2.42481E-01 2.70828E-28
2.46231E-01 2.61145E-28
2.50000E-01 2.51874E-28
2.53788E-01 2.42993E-28
2.57595E-01 2.34482E-28
2.61421E-01 2.26324E-28
2.65264E-01 2.18502E-28
2.69126E-01 2.11000E-28
2.73005E-01 2.03801E-28
2.76901E-01 1.96892E-28
2.80814E-01 1.90260E-28
2.84744E-01 1.83890E-28
2.88691E-01 1.77771E-28
2.92653E-01 1.71892E-28
2.96632E-01 1.66241E-28
3.00625E-01 1.60807E-28
3.04634E-01 1.55583E-28
3.08658E-01 1.50557E-28
3.12697E-01 1.45721E-28
3.16749E-01 1.41066E-28
3.20816E-01 1.36585E-28
3.24896E-01 1.32270E-28
3.28990E-01 1.28115E-28
3.33097E-01 1.24111E-28
3.37216E-01 1.20252E-28
3.41348E-01 1.16533E-28
3.45492E-01 1.12948E-28
3.49647E-01 1.09490E-28
3.53814E-01 1.06155E-28
3.57992E-01 1.02938E-28
3.62181E-01 9.98332E-29
3.66381E-01 9.68365E-29
3.70590E-01 9.39436E-29
3.74810E-01 9.11502E-29
3.79039E-01 8.84523E-29
3.83277E-01 8.58461E-29
3.87524E-01 8.33281E-29
3.91780E-01 8.08947E-29
3.96044E-01 7.85427E-29
4.00316E-01 7.62688E-29
4.04596E-01 7.40701E-29
4.08882E-01 7.19436E-29
4.13176E-01 6.98867E-29
4.17476E-01 6.78966E-29
4.21783E-01 6.59709E-29
4.26095E-01 6.41071E-29
4.30413E-01 6.23029E-29
4.34737E-01 6.05561E-29
4.39065E-01 5.88647E-29
4.43398E-01 5.72265E-29
4.47736E-01 5.56396E-29
4.52077E-01 5.41022E-29
4.56422E-01 5.26125E-29
4.60770E-01 5.11688E-29
4.65122E-01 4.97693E-29
4.69476E-01 4.84126E-29
4.73832E-01 4.70972E-29
4.78190E-01 4.58216E-29
4.82550E-01 4.45843E-29
4.86912E-01 4.33842E-29
4.91274E-01 4.22198E-29
4.95637E-01 4.10901E-29
5.00000E-01 3.99936E-29
5.04363E-01 3.89294E-29
5.08726E-01 3.78964E-29
5.13088E-01 3.68934E-29
5.17450E-01 3.59196E-29
5.21810E-01 3.49739E-29
5.26168E-01 3.40553E-29
5.30524E-01 3.31631E-29
5.34878E-01 3.22962E-29
5.39230E-01 3.14540E-29
5.43578E-01 3.06355E-29
5.47923E-01 2.98401E-29
5.52264E-01 2.90669E-29
5.56602E-01 2.83153E-29
5.60935E-01 2.75846E-29
5.65263E-01 2.68741E-29
5.69587E-01 2.61831E-29
5.73905E-01 2.55112E-29
5.78217E-01 2.48576E-29
5.82524E-01 2.42217E-29
5.86824E-01 2.36031E-29
5.91118E-01 2.30012E-29
5.95404E-01 2.24156E-29
5.99684E-01 2.18455E-29
6.03956E-01 2.12907E-29
6.08220E-01 2.07507E-29
6.12476E-01 2.02249E-29
6.16723E-01 1.97131E-29
6.20961E-01 1.92147E-29
6.25190E-01 1.87293E-29
6.29410E-01 1.82566E-29
6.33619E-01 1.77962E-29
6.37819E-01 1.73478E-29
6.42008E-01 1.69109E-29
6.46186E-01 1.64853E-29
6.50353E-01 1.60706E-29
6.54508E-01 1.56665E-29
6.58652E-01 1.52727E-29
6.62784E-01 1.48888E-29
6.66903E-01 1.45147E-29
6.71010E-01 1.41501E-29
6.75104E-01 1.37946E-29
6.79184E-01 1.34480E-29
6.83251E-01 1.31101E-29
6.87303E-01 1.27806E-29
6.91342E-01 1.24593E-29
6.95366E-01 1.21459E-29
6.99375E-01 1.18403E-29
7.03368E-01 1.15422E-29
7.07347E-01 1.12515E-29
7.11309E-01 1.09678E-29
7.15256E-01 1.06911E-29
7.19186E-01 1.04210E-29
7.23099E-01 1.01576E-29
7.26995E-01 9.90052E-30
7.30874E-01 9.64968E-30
7.34736E-01 9.40485E-30
7.38579E-01 9.16592E-30
7.42405E-01 8.93269E-30
7.46212E-01 8.70508E-30
7.50000E-01 8.48285E-30
7.53769E-01 8.26593E-30
7.57519E-01 8.05415E-30
7.61249E-01 7.84740E-30
7.64960E-01 7.64554E-30
7.68650E-01 7.44842E-30
7.72320E-01 7.25594E-30
7.75968E-01 7.06800E-30
7.79596E-01 6.88445E-30
7.83203E-01 6.70520E-30
7.86788E-01 6.53013E-30
7.90351E-01 6.35915E-30
7.93893E-01 6.19215E-30
7.97411E-01 6.02901E-30
8.00908E-01 5.86967E-30
8.04381E-01 5.71403E-30
8.07831E-01 5.56198E-30
8.11257E-01 5.41345E-30
8.14660E-01 5.26831E-30
8.18039E-01 5.12656E-30
8.21394E-01 4.98807E-30
8.24724E-01 4.85275E-30
8.28030E-01 4.72052E-30
8.31310E-01 4.59135E-30
8.34565E-01 4.46514E-30
8.37795E-01 4.34181E-30
8.40999E-01 4.22131E-30
8.44177E-01 4.10358E-30
8.47329E-01 3.98852E-30
8.50455E-01 3.87611E-30
8.53553E-01 3.76627E-30
8.56625E-01 3.65893E-30
8.59670E-01 3.55405E-30
8.62687E-01 3.45157E-30
8.65677E-01 3.35144E-30
8.68639E-01 3.25358E-30
8.71572E-01 3.15796E-30
8.74478E-01 3.06456E-30
8.77355E-01 2.97329E-30
8.80203E-01 2.88412E-30
8.83022E-01 2.79699E-30
8.85812E-01 2.71185E-30
8.88573E-01 2.62869E-30
8.91304E-01 2.54743E-30
8.94005E-01 2.46807E-30
8.96677E-01 2.39055E-30
8.99318E-01 2.31481E-30
9.01928E-01 2.24083E-30
9.04508E-01 2.16859E-30
9.07058E-01 2.09802E-30
9.09576E-01 2.02912E-30
9.12063E-01 1.96184E-30
9.14519E-01 1.89614E-30
9.16943E-01 1.83199E-30
9.19335E-01 1.76937E-30
9.21696E-01 1.70825E-30
9.24024E-01 1.64858E-30
9.26320E-01 1.59035E-30
9.28584E-01 1.53354E-30
9.30815E-01 1.47810E-30
9.33013E-01 1.42401E-30
9.35178E-01 1.37126E-30
9.37310E-01 1.31980E-30
9.39409E-01 1.26964E-30
9.41474E-01 1.22072E-30
9.43505E-01 1.17305E-30
9.45503E-01 1.12658E-30
9.47467E-01 1.08130E-30
9.49397E-01 1.03719E-30
9.51293E-01 9.94232E-31
9.53154E-01 9.52413E-31
9.54981E-01 9.11690E-31
9.56773E-01 8.72066E-31
9.58530E-01 8.33514E-31
9.60252E-01 7.96007E-31
9.61940E-01 7.59547E-31
9.63592E-01 7.24114E-31
9.65209E-01 6.89680E-31
9.66790E-01 6.56249E-31
9.68336E-01 6.23782E-31
9.69846E-01 5.92282E-31
9.71321E-01 5.61732E-31
9.72759E-01 5.32118E-31
9.74162E-01 5.03424E-31
9.75528E-01 4.75637E-31
9.76858E-01 4.48745E-31
9.78152E-01 4.22743E-31
9.79410E-01 3.97615E-31
9.80631E-01 3.73342E-31
9.81815E-01 3.49929E-31
9.82963E-01 3.27347E-31
9.84074E-01 3.05608E-31
9.85148E-01 2.84685E-31
9.86185E-01 2.64575E-31
9.87185E-01 2.45268E-31
9.88148E-01 2.26759E-31
9.89074E-01 2.09037E-31
9.89962E-01 1.92095E-31
9.90814E-01 1.75930E-31
9.91627E-01 1.60525E-31
9.92404E-01 1.45888E-31
9.93143E-01 1.32000E-31
9.93844E-01 1.18859E-31
9.94508E-01 1.06455E-31
9.95134E-01 9.47944E-32
9.95722E-01 8.38607E-32
9.96273E-01 7.36573E-32
9.96786E-01 6.41742E-32
9.97261E-01 5.54112E-32
9.97698E-01 4.73617E-32
9.98097E-01 4.00258E-32
9.98459E-01 3.33943E-32
9.98782E-01 2.74727E-32
9.99067E-01 2.22509E-32
9.99315E-01 1.77304E-32
9.99524E-01 1.39071E-32
9.99695E-01 1.07805E-32
9.99829E-01 8.35364E-33
9.99924E-01 6.61691E-33
9.99981E-01 5.57701E-33
1.00000E+00 5.24053E-33
