 #
 # Subroutine ELSEPA. Elastic scattering of electrons and positrons
 #                    by neutral atoms and positive ions
 #
 # Projectile: positron
 # Kinetic energy = 1.50000E+08 eV = 5.51240E+06 a.u.
 #
 # WARNING: High-energy factorization with free-atom DF screening.
 #          Absorption, polarization and exchange corrections are
 #          switched off.
 #          Phase shifts are calculated for the bare nucleus.
 #          Scattering amplitudes are not evaluated.
 #
 # Element: He,  Z =   2,  atomic weight = 4.00260E+00 g/mol
 #
 # Nuclear model: Fermi distribution
 #                Average radius = 1.69889E-13 cm
 #                Skin thickness = 5.46000E-14 cm
 #
 # Number of electrons =  2
 #
 # Total elastic cross section = 1.64696E-20 cm**2 = 5.88140E-04 a0**2
 # 1st transport cross section = 4.14703E-28 cm**2 = 1.48093E-11 a0**2
 # 2nd transport cross section = 1.23191E-27 cm**2 = 4.39922E-11 a0**2
 #
 #
 # Differential cross section:                       MU=(1-COS(THETA))/2
 #
 #  THETA        MU          DCS          DCS        Sherman      error
 #  (deg)                 (cm**2/sr)   (a0**2/sr)    function
 #----------------------------------------------------------------------
0.00000E+00 1.51342E-12
7.61557E-13 1.51099E-12
1.18994E-12 1.50962E-12
1.71346E-12 1.50796E-12
2.33225E-12 1.50599E-12
3.04617E-12 1.50373E-12
3.85530E-12 1.50117E-12
4.75964E-12 1.49832E-12
5.75917E-12 1.49518E-12
6.85391E-12 1.49174E-12
8.04379E-12 1.48803E-12
9.32893E-12 1.48403E-12
1.07092E-11 1.47975E-12
1.21847E-11 1.47519E-12
1.37554E-11 1.47037E-12
1.54213E-11 1.46527E-12
1.71823E-11 1.45990E-12
1.90386E-11 1.45428E-12
2.09900E-11 1.44840E-12
2.30367E-11 1.44227E-12
2.51785E-11 1.43589E-12
2.74156E-11 1.42927E-12
2.97478E-11 1.42242E-12
3.21752E-11 1.41533E-12
3.46979E-11 1.40802E-12
3.73157E-11 1.40049E-12
4.00286E-11 1.39275E-12
4.28368E-11 1.38479E-12
4.57402E-11 1.37664E-12
4.87388E-11 1.36829E-12
5.18325E-11 1.35974E-12
5.50215E-11 1.35102E-12
5.83057E-11 1.34210E-12
6.16850E-11 1.33302E-12
6.51595E-11 1.32376E-12
6.87293E-11 1.31411E-12
7.23943E-11 1.30347E-12
7.61544E-11 1.29296E-12
1.18991E-10 1.18860E-12
1.71347E-10 1.07682E-12
2.33223E-10 9.63367E-13
3.04617E-10 8.52856E-13
3.85531E-10 7.48645E-13
4.75965E-10 6.52853E-13
5.75917E-10 5.66533E-13
6.85389E-10 4.89927E-13
8.04380E-10 4.22714E-13
9.32891E-10 3.64239E-13
1.07092E-09 3.13682E-13
1.21847E-09 2.70171E-13
1.37554E-09 2.32857E-13
1.54213E-09 2.00859E-13
1.71823E-09 1.73570E-13
1.90386E-09 1.50263E-13
2.09900E-09 1.30290E-13
2.30367E-09 1.13760E-13
2.51785E-09 9.94977E-14
2.74156E-09 8.71212E-14
2.97478E-09 7.63797E-14
3.21752E-09 6.70895E-14
3.46978E-09 5.90893E-14
3.73156E-09 5.22180E-14
4.00286E-09 4.63122E-14
4.28368E-09 4.12153E-14
4.57402E-09 3.67875E-14
4.87388E-09 3.29139E-14
5.18326E-09 2.95058E-14
5.50215E-09 2.64975E-14
5.83057E-09 2.38387E-14
6.16850E-09 2.14915E-14
6.51596E-09 1.94193E-14
6.87293E-09 1.75845E-14
7.23942E-09 1.59615E-14
7.61544E-09 1.45257E-14
1.18991E-08 6.20904E-15
1.71347E-08 3.05125E-15
2.33223E-08 1.66087E-15
3.04617E-08 9.76561E-16
3.85531E-08 6.10946E-16
4.75965E-08 4.01446E-16
5.75917E-08 2.74499E-16
6.85389E-08 1.93979E-16
8.04380E-08 1.40927E-16
9.32891E-08 1.04829E-16
1.07092E-07 7.95815E-17
1.21847E-07 6.14961E-17
1.37554E-07 4.82676E-17
1.54213E-07 3.84119E-17
1.71823E-07 3.09478E-17
1.90386E-07 2.52115E-17
2.09900E-07 2.07447E-17
2.30367E-07 1.72246E-17
2.51785E-07 1.44204E-17
2.74156E-07 1.21643E-17
2.97478E-07 1.03326E-17
3.21752E-07 8.83301E-18
3.46978E-07 7.59586E-18
3.73156E-07 6.56790E-18
4.00286E-07 5.70808E-18
4.28368E-07 4.98446E-18
4.57402E-07 4.37196E-18
4.87388E-07 3.85071E-18
5.18325E-07 3.40487E-18
5.50215E-07 3.02173E-18
5.83057E-07 2.69099E-18
6.16850E-07 2.40429E-18
6.51596E-07 2.15477E-18
6.87293E-07 1.93679E-18
7.23942E-07 1.74569E-18
7.61543E-07 1.57759E-18
1.18991E-06 6.46270E-19
1.71347E-06 3.11687E-19
2.33223E-06 1.68247E-19
3.04617E-06 9.86257E-20
3.85531E-06 6.15722E-20
4.75964E-06 4.03978E-20
5.75916E-06 2.75923E-20
6.85388E-06 1.94820E-20
8.04378E-06 1.41444E-20
9.32888E-06 1.05158E-20
1.07092E-05 7.97973E-21
1.21846E-05 6.16411E-21
1.37553E-05 4.83674E-21
1.54212E-05 3.84818E-21
1.71822E-05 3.09976E-21
1.90385E-05 2.52475E-21
2.09899E-05 2.07711E-21
2.30365E-05 1.72442E-21
2.51783E-05 1.44248E-21
2.74153E-05 1.21753E-21
2.97475E-05 1.03410E-21
3.21749E-05 8.83947E-22
3.46974E-05 7.60084E-22
3.73152E-05 6.57769E-22
4.00281E-05 5.71108E-22
4.28362E-05 4.98680E-22
4.57395E-05 4.37378E-22
4.87380E-05 3.85513E-22
5.18317E-05 3.40259E-22
5.50205E-05 3.02258E-22
5.83045E-05 2.69165E-22
6.16838E-05 2.40479E-22
6.51582E-05 2.15432E-22
6.87277E-05 1.93866E-22
7.23925E-05 1.74590E-22
7.61524E-05 1.57774E-22
9.21439E-05 1.07758E-22
1.09658E-04 7.60918E-23
1.28695E-04 5.51879E-23
1.49255E-04 4.10237E-23
1.71338E-04 3.11461E-23
1.94942E-04 2.40335E-23
2.20070E-04 1.88724E-23
2.46720E-04 1.50028E-23
2.74892E-04 1.20868E-23
3.04586E-04 9.84325E-24
3.35803E-04 8.09425E-24
3.68542E-04 6.72141E-24
4.02802E-04 5.62303E-24
4.38585E-04 4.74333E-24
4.75889E-04 4.02725E-24
5.14715E-04 3.44168E-24
5.55063E-04 2.95921E-24
5.96931E-04 2.55739E-24
6.40321E-04 2.22245E-24
6.85233E-04 1.93978E-24
7.31665E-04 1.70104E-24
7.79618E-04 1.49780E-24
8.29092E-04 1.32385E-24
8.80086E-04 1.17467E-24
9.32601E-04 1.04562E-24
9.86636E-04 9.34017E-25
1.04219E-03 8.36767E-25
1.09927E-03 7.51861E-25
1.15786E-03 6.77492E-25
1.21797E-03 6.11986E-25
1.27961E-03 5.54299E-25
1.34276E-03 5.03157E-25
1.40743E-03 4.57817E-25
1.47362E-03 4.17452E-25
1.54133E-03 3.81409E-25
1.61056E-03 3.49204E-25
1.68131E-03 3.20279E-25
1.75357E-03 2.94314E-25
1.82735E-03 2.70903E-25
1.90265E-03 2.49771E-25
1.97947E-03 2.30665E-25
2.05780E-03 2.13329E-25
2.13765E-03 1.97606E-25
2.21902E-03 1.83286E-25
2.30190E-03 1.70244E-25
2.38630E-03 1.58338E-25
2.47222E-03 1.47446E-25
2.55965E-03 1.37480E-25
2.64859E-03 1.28330E-25
2.73905E-03 1.19933E-25
2.83103E-03 1.12205E-25
2.92452E-03 1.05088E-25
3.01952E-03 9.85273E-26
3.11604E-03 9.24636E-26
3.21407E-03 8.68624E-26
3.31362E-03 8.16730E-26
3.41468E-03 7.68660E-26
3.51725E-03 7.24057E-26
3.62133E-03 6.82611E-26
3.72692E-03 6.44101E-26
3.83403E-03 6.08227E-26
3.94265E-03 5.74826E-26
4.05278E-03 5.43662E-26
4.16442E-03 5.14571E-26
4.27757E-03 4.87398E-26
4.39223E-03 4.61969E-26
4.50840E-03 4.38185E-26
4.62608E-03 4.15889E-26
4.74527E-03 3.94991E-26
4.86597E-03 3.75382E-26
4.98817E-03 3.56960E-26
5.11188E-03 3.39657E-26
5.23711E-03 3.23372E-26
5.36383E-03 3.08053E-26
5.49207E-03 2.93619E-26
5.62181E-03 2.80015E-26
5.75306E-03 2.67187E-26
5.88581E-03 2.55074E-26
6.02007E-03 2.43641E-26
6.15583E-03 2.32830E-26
6.29310E-03 2.22611E-26
6.43187E-03 2.12941E-26
6.57214E-03 2.03784E-26
6.71392E-03 1.95114E-26
6.85720E-03 1.86891E-26
7.00198E-03 1.79096E-26
7.14827E-03 1.71698E-26
7.29605E-03 1.64675E-26
7.44534E-03 1.58005E-26
7.59612E-03 1.51663E-26
7.97965E-03 1.37137E-26
8.37255E-03 1.24292E-26
8.77480E-03 1.12901E-26
9.18641E-03 1.02771E-26
9.60736E-03 9.37402E-27
1.00376E-02 8.56680E-27
1.04773E-02 7.84356E-27
1.09262E-02 7.19407E-27
1.13844E-02 6.60955E-27
1.18520E-02 6.08237E-27
1.23288E-02 5.60596E-27
1.28150E-02 5.17459E-27
1.33104E-02 4.78328E-27
1.38150E-02 4.42766E-27
1.43290E-02 4.10393E-27
1.48521E-02 3.80874E-27
1.53845E-02 3.53913E-27
1.59262E-02 3.29252E-27
1.64770E-02 3.06661E-27
1.70371E-02 2.85935E-27
1.76063E-02 2.66896E-27
1.81848E-02 2.49381E-27
1.87724E-02 2.33248E-27
1.93692E-02 2.18369E-27
1.99751E-02 2.04631E-27
2.05901E-02 1.91930E-27
2.12143E-02 1.80175E-27
2.18476E-02 1.69284E-27
2.24900E-02 1.59181E-27
2.31415E-02 1.49801E-27
2.38021E-02 1.41083E-27
2.44717E-02 1.32972E-27
2.51504E-02 1.25419E-27
2.58382E-02 1.18379E-27
2.65349E-02 1.11810E-27
2.72407E-02 1.05677E-27
2.79555E-02 9.99454E-28
2.86793E-02 9.45842E-28
2.94120E-02 8.95657E-28
3.01537E-02 8.48643E-28
3.09043E-02 8.04565E-28
3.16639E-02 7.63210E-28
3.24324E-02 7.24381E-28
3.32098E-02 6.87898E-28
3.39961E-02 6.53595E-28
3.47912E-02 6.21321E-28
3.55952E-02 5.90936E-28
3.64081E-02 5.62311E-28
3.72297E-02 5.35326E-28
3.80602E-02 5.09873E-28
3.88995E-02 4.85850E-28
3.97476E-02 4.63163E-28
4.06044E-02 4.41726E-28
4.14700E-02 4.21459E-28
4.23443E-02 4.02288E-28
4.32273E-02 3.84143E-28
4.41190E-02 3.66960E-28
4.50194E-02 3.50682E-28
4.59284E-02 3.35251E-28
4.68461E-02 3.20617E-28
4.87074E-02 2.93552E-28
5.06030E-02 2.69142E-28
5.25328E-02 2.47087E-28
5.44967E-02 2.27127E-28
5.64946E-02 2.09033E-28
5.85262E-02 1.92604E-28
6.05914E-02 1.77665E-28
6.26901E-02 1.64061E-28
6.48222E-02 1.51656E-28
6.69873E-02 1.40328E-28
6.91854E-02 1.29971E-28
7.14163E-02 1.20489E-28
7.36799E-02 1.11798E-28
7.59760E-02 1.03823E-28
7.83043E-02 9.64964E-29
8.06647E-02 8.97585E-29
8.30571E-02 8.35553E-29
8.54812E-02 7.78387E-29
8.79369E-02 7.25653E-29
9.04240E-02 6.76962E-29
9.29422E-02 6.31963E-29
9.54915E-02 5.90337E-29
9.80716E-02 5.51801E-29
1.00682E-01 5.16093E-29
1.03323E-01 4.82982E-29
1.05995E-01 4.52252E-29
1.08696E-01 4.23712E-29
1.11427E-01 3.97186E-29
1.14188E-01 3.72515E-29
1.16978E-01 3.49552E-29
1.19797E-01 3.28166E-29
1.22645E-01 3.08234E-29
1.25522E-01 2.89647E-29
1.28428E-01 2.72302E-29
1.31361E-01 2.56108E-29
1.34323E-01 2.40979E-29
1.37313E-01 2.26837E-29
1.40330E-01 2.13610E-29
1.43375E-01 2.01233E-29
1.46447E-01 1.89645E-29
1.49545E-01 1.78790E-29
1.52671E-01 1.68617E-29
1.55823E-01 1.59078E-29
1.59001E-01 1.50130E-29
1.62205E-01 1.41733E-29
1.65435E-01 1.33848E-29
1.68690E-01 1.26442E-29
1.71970E-01 1.19482E-29
1.75276E-01 1.12939E-29
1.78606E-01 1.06786E-29
1.81961E-01 1.00997E-29
1.85340E-01 9.55479E-30
1.88743E-01 9.04176E-30
1.92169E-01 8.55855E-30
1.95619E-01 8.10327E-30
1.99092E-01 7.67415E-30
2.02589E-01 7.26956E-30
2.06107E-01 6.88796E-30
2.09649E-01 6.52793E-30
2.13212E-01 6.18816E-30
2.16797E-01 5.86740E-30
2.20404E-01 5.56450E-30
2.24032E-01 5.27838E-30
2.27680E-01 5.00803E-30
2.31350E-01 4.75252E-30
2.35040E-01 4.51097E-30
2.38751E-01 4.28254E-30
2.42481E-01 4.06648E-30
2.46231E-01 3.86205E-30
2.50000E-01 3.66859E-30
2.53788E-01 3.48547E-30
2.57595E-01 3.31208E-30
2.61421E-01 3.14788E-30
2.65264E-01 2.99233E-30
2.69126E-01 2.84496E-30
2.73005E-01 2.70530E-30
2.76901E-01 2.57292E-30
2.80814E-01 2.44741E-30
2.84744E-01 2.32839E-30
2.88691E-01 2.21551E-30
2.92653E-01 2.10842E-30
2.96632E-01 2.00681E-30
3.00625E-01 1.91038E-30
3.04634E-01 1.81885E-30
3.08658E-01 1.73195E-30
3.12697E-01 1.64944E-30
3.16749E-01 1.57107E-30
3.20816E-01 1.49663E-30
3.24896E-01 1.42592E-30
3.28990E-01 1.35872E-30
3.33097E-01 1.29486E-30
3.37216E-01 1.23416E-30
3.41348E-01 1.17645E-30
3.45492E-01 1.12159E-30
3.49647E-01 1.06941E-30
3.53814E-01 1.01978E-30
3.57992E-01 9.72576E-31
3.62181E-01 9.27664E-31
3.66381E-01 8.84930E-31
3.70590E-01 8.44261E-31
3.74810E-01 8.05553E-31
3.79039E-01 7.68706E-31
3.83277E-01 7.33625E-31
3.87524E-01 7.00222E-31
3.91780E-01 6.68412E-31
3.96044E-01 6.38116E-31
4.00316E-01 6.09257E-31
4.04596E-01 5.81763E-31
4.08882E-01 5.55568E-31
4.13176E-01 5.30607E-31
4.17476E-01 5.06817E-31
4.21783E-01 4.84143E-31
4.26095E-01 4.62528E-31
4.30413E-01 4.41921E-31
4.34737E-01 4.22274E-31
4.39065E-01 4.03538E-31
4.43398E-01 3.85670E-31
4.47736E-01 3.68629E-31
4.52077E-01 3.52372E-31
4.56422E-01 3.36864E-31
4.60770E-01 3.22066E-31
4.65122E-01 3.07947E-31
4.69476E-01 2.94472E-31
4.73832E-01 2.81612E-31
4.78190E-01 2.69338E-31
4.82550E-01 2.57620E-31
4.86912E-01 2.46434E-31
4.91274E-01 2.35753E-31
4.95637E-01 2.25555E-31
5.00000E-01 2.15815E-31
5.04363E-01 2.06513E-31
5.08726E-01 1.97628E-31
5.13088E-01 1.89141E-31
5.17450E-01 1.81032E-31
5.21810E-01 1.73285E-31
5.26168E-01 1.65883E-31
5.30524E-01 1.58809E-31
5.34878E-01 1.52049E-31
5.39230E-01 1.45588E-31
5.43578E-01 1.39411E-31
5.47923E-01 1.33507E-31
5.52264E-01 1.27862E-31
5.56602E-01 1.22466E-31
5.60935E-01 1.17305E-31
5.65263E-01 1.12370E-31
5.69587E-01 1.07651E-31
5.73905E-01 1.03138E-31
5.78217E-01 9.88200E-32
5.82524E-01 9.46893E-32
5.86824E-01 9.07380E-32
5.91118E-01 8.69575E-32
5.95404E-01 8.33406E-32
5.99684E-01 7.98787E-32
6.03956E-01 7.65658E-32
6.08220E-01 7.33956E-32
6.12476E-01 7.03607E-32
6.16723E-01 6.74558E-32
6.20961E-01 6.46753E-32
6.25190E-01 6.20127E-32
6.29410E-01 5.94635E-32
6.33619E-01 5.70228E-32
6.37819E-01 5.46856E-32
6.42008E-01 5.24471E-32
6.46186E-01 5.03034E-32
6.50353E-01 4.82501E-32
6.54508E-01 4.62831E-32
6.58652E-01 4.43988E-32
6.62784E-01 4.25935E-32
6.66903E-01 4.08639E-32
6.71010E-01 3.92067E-32
6.75104E-01 3.76185E-32
6.79184E-01 3.60966E-32
6.83251E-01 3.46379E-32
6.87303E-01 3.32399E-32
6.91342E-01 3.19000E-32
6.95366E-01 3.06152E-32
6.99375E-01 2.93837E-32
7.03368E-01 2.82028E-32
7.07347E-01 2.70708E-32
7.11309E-01 2.59853E-32
7.15256E-01 2.49444E-32
7.19186E-01 2.39457E-32
7.23099E-01 2.29884E-32
7.26995E-01 2.20699E-32
7.30874E-01 2.11891E-32
7.34736E-01 2.03439E-32
7.38579E-01 1.95333E-32
7.42405E-01 1.87552E-32
7.46212E-01 1.80091E-32
7.50000E-01 1.72928E-32
7.53769E-01 1.66056E-32
7.57519E-01 1.59460E-32
7.61249E-01 1.53131E-32
7.64960E-01 1.47056E-32
7.68650E-01 1.41223E-32
7.72320E-01 1.35625E-32
7.75968E-01 1.30251E-32
7.79596E-01 1.25091E-32
7.83203E-01 1.20136E-32
7.86788E-01 1.15379E-32
7.90351E-01 1.10811E-32
7.93893E-01 1.06425E-32
7.97411E-01 1.02211E-32
8.00908E-01 9.81648E-33
8.04381E-01 9.42791E-33
8.07831E-01 9.05454E-33
8.11257E-01 8.69597E-33
8.14660E-01 8.35125E-33
8.18039E-01 8.02035E-33
8.21394E-01 7.70242E-33
8.24724E-01 7.39686E-33
8.28030E-01 7.10305E-33
8.31310E-01 6.82091E-33
8.34565E-01 6.54978E-33
8.37795E-01 6.28913E-33
8.40999E-01 6.03862E-33
8.44177E-01 5.79788E-33
8.47329E-01 5.56632E-33
8.50455E-01 5.34387E-33
8.53553E-01 5.13003E-33
8.56625E-01 4.92432E-33
8.59670E-01 4.72662E-33
8.62687E-01 4.53646E-33
8.65677E-01 4.35372E-33
8.68639E-01 4.17783E-33
8.71572E-01 4.00867E-33
8.74478E-01 3.84618E-33
8.77355E-01 3.68983E-33
8.80203E-01 3.53951E-33
8.83022E-01 3.39488E-33
8.85812E-01 3.25569E-33
8.88573E-01 3.12187E-33
8.91304E-01 2.99306E-33
8.94005E-01 2.86925E-33
8.96677E-01 2.75019E-33
8.99318E-01 2.63551E-33
9.01928E-01 2.52520E-33
9.04508E-01 2.41914E-33
9.07058E-01 2.31699E-33
9.09576E-01 2.21881E-33
9.12063E-01 2.12435E-33
9.14519E-01 2.03342E-33
9.16943E-01 1.94590E-33
9.19335E-01 1.86169E-33
9.21696E-01 1.78073E-33
9.24024E-01 1.70272E-33
9.26320E-01 1.62770E-33
9.28584E-01 1.55559E-33
9.30815E-01 1.48611E-33
9.33013E-01 1.41927E-33
9.35178E-01 1.35498E-33
9.37310E-01 1.29306E-33
9.39409E-01 1.23357E-33
9.41474E-01 1.17628E-33
9.43505E-01 1.12125E-33
9.45503E-01 1.06824E-33
9.47467E-01 1.01726E-33
9.49397E-01 9.68206E-34
9.51293E-01 9.21018E-34
9.53154E-01 8.75730E-34
9.54981E-01 8.32085E-34
9.56773E-01 7.90166E-34
9.58530E-01 7.49862E-34
9.60252E-01 7.11050E-34
9.61940E-01 6.73786E-34
9.63592E-01 6.38010E-34
9.65209E-01 6.03589E-34
9.66790E-01 5.70598E-34
9.68336E-01 5.38845E-34
9.69846E-01 5.08381E-34
9.71321E-01 4.79150E-34
9.72759E-01 4.51113E-34
9.74162E-01 4.24220E-34
9.75528E-01 3.98417E-34
9.76858E-01 3.73682E-34
9.78152E-01 3.50011E-34
9.79410E-01 3.27353E-34
9.80631E-01 3.05625E-34
9.81815E-01 2.84895E-34
9.82963E-01 2.65014E-34
9.84074E-01 2.46094E-34
9.85148E-01 2.27995E-34
9.86185E-01 2.10743E-34
9.87185E-01 1.94291E-34
9.88148E-01 1.78645E-34
9.89074E-01 1.63765E-34
9.89962E-01 1.49640E-34
9.90814E-01 1.36260E-34
9.91627E-01 1.23563E-34
9.92404E-01 1.11615E-34
9.93143E-01 1.00322E-34
9.93844E-01 8.96979E-35
9.94508E-01 7.96927E-35
9.95134E-01 7.03662E-35
9.95722E-01 6.16452E-35
9.96273E-01 5.35558E-35
9.96786E-01 4.60587E-35
9.97261E-01 3.91630E-35
9.97698E-01 3.28508E-35
9.98097E-01 2.71235E-35
9.98459E-01 2.19464E-35
9.98782E-01 1.73531E-35
9.99067E-01 1.33010E-35
9.99315E-01 9.81288E-36
9.99524E-01 6.84726E-36
9.99695E-01 4.43370E-36
9.99829E-01 2.57031E-36
9.99924E-01 1.22566E-36
9.99981E-01 4.26408E-37
1.00000E+00 1.76393E-37
