 #
 # Subroutine ELSEPA. Elastic scattering of electrons and positrons
 #                    by neutral atoms and positive ions
 #
 # Projectile: positron
 # Kinetic energy = 2.00000E+07 eV = 7.34987E+05 a.u.
 #
 # WARNING: High-energy factorization with free-atom DF screening.
 #          Absorption, polarization and exchange corrections are
 #          switched off.
 #          Phase shifts are calculated for the bare nucleus.
 #          Scattering amplitudes are not evaluated.
 #
 # Element: He,  Z =   2,  atomic weight = 4.00260E+00 g/mol
 #
 # Nuclear model: Fermi distribution
 #                Average radius = 1.69889E-13 cm
 #                Skin thickness = 5.46000E-14 cm
 #
 # Number of electrons =  2
 #
 # Total elastic cross section = 1.64751E-20 cm**2 = 5.88338E-04 a0**2
 # 1st transport cross section = 1.89311E-26 cm**2 = 6.76043E-10 a0**2
 # 2nd transport cross section = 5.50082E-26 cm**2 = 1.96438E-09 a0**2
 #
 #
 # Differential cross section:                       MU=(1-COS(THETA))/2
 #
 #  THETA        MU          DCS          DCS        Sherman      error
 #  (deg)                 (cm**2/sr)   (a0**2/sr)    function
 #----------------------------------------------------------------------
0.00000E+00 2.81058E-14
7.61557E-13 2.81050E-14
1.18994E-12 2.81045E-14
1.71346E-12 2.81039E-14
2.33225E-12 2.81033E-14
3.04617E-12 2.81025E-14
3.85530E-12 2.81016E-14
4.75964E-12 2.81006E-14
5.75917E-12 2.80995E-14
6.85391E-12 2.80983E-14
8.04379E-12 2.80969E-14
9.32893E-12 2.80955E-14
1.07092E-11 2.80940E-14
1.21847E-11 2.80924E-14
1.37554E-11 2.80907E-14
1.54213E-11 2.80888E-14
1.71823E-11 2.80869E-14
1.90386E-11 2.80848E-14
2.09900E-11 2.80827E-14
2.30367E-11 2.80804E-14
2.51785E-11 2.80781E-14
2.74156E-11 2.80756E-14
2.97478E-11 2.80730E-14
3.21752E-11 2.80704E-14
3.46979E-11 2.80676E-14
3.73157E-11 2.80647E-14
4.00286E-11 2.80617E-14
4.28368E-11 2.80587E-14
4.57402E-11 2.80555E-14
4.87388E-11 2.80522E-14
5.18325E-11 2.80488E-14
5.50215E-11 2.80453E-14
5.83057E-11 2.80417E-14
6.16850E-11 2.80380E-14
6.51595E-11 2.80341E-14
6.87293E-11 2.80302E-14
7.23943E-11 2.80262E-14
7.61544E-11 2.80221E-14
1.18991E-10 2.79752E-14
1.71347E-10 2.79180E-14
2.33223E-10 2.78506E-14
3.04617E-10 2.77731E-14
3.85531E-10 2.76858E-14
4.75965E-10 2.75885E-14
5.75917E-10 2.74816E-14
6.85389E-10 2.73652E-14
8.04380E-10 2.72394E-14
9.32891E-10 2.71045E-14
1.07092E-09 2.69605E-14
1.21847E-09 2.68080E-14
1.37554E-09 2.66466E-14
1.54213E-09 2.64774E-14
1.71823E-09 2.62996E-14
1.90386E-09 2.61144E-14
2.09900E-09 2.59214E-14
2.30367E-09 2.57213E-14
2.51785E-09 2.55142E-14
2.74156E-09 2.53001E-14
2.97478E-09 2.50801E-14
3.21752E-09 2.48533E-14
3.46978E-09 2.46213E-14
3.73156E-09 2.43755E-14
4.00286E-09 2.41074E-14
4.28368E-09 2.38435E-14
4.57402E-09 2.35842E-14
4.87388E-09 2.33299E-14
5.18326E-09 2.30807E-14
5.50215E-09 2.28368E-14
5.83057E-09 2.25766E-14
6.16850E-09 2.22782E-14
6.51596E-09 2.19875E-14
6.87293E-09 2.17047E-14
7.23942E-09 2.14295E-14
7.61544E-09 2.11622E-14
1.18991E-08 1.83019E-14
1.71347E-08 1.54959E-14
2.33223E-08 1.29508E-14
3.04617E-08 1.06735E-14
3.85531E-08 8.76951E-15
4.75965E-08 7.15113E-15
5.75917E-08 5.83738E-15
6.85389E-08 4.75984E-15
8.04380E-08 3.89003E-15
9.32891E-08 3.18898E-15
1.07092E-07 2.61974E-15
1.21847E-07 2.17190E-15
1.37554E-07 1.80870E-15
1.54213E-07 1.51085E-15
1.71823E-07 1.26458E-15
1.90386E-07 1.06408E-15
2.09900E-07 9.00980E-16
2.30367E-07 7.67902E-16
2.51785E-07 6.58096E-16
2.74156E-07 5.66259E-16
2.97478E-07 4.89004E-16
3.21752E-07 4.23654E-16
3.46978E-07 3.68585E-16
3.73156E-07 3.21931E-16
4.00286E-07 2.82469E-16
4.28368E-07 2.49008E-16
4.57402E-07 2.20105E-16
4.87388E-07 1.95002E-16
5.18325E-07 1.73424E-16
5.50215E-07 1.54691E-16
5.83057E-07 1.38415E-16
6.16850E-07 1.24250E-16
6.51596E-07 1.11742E-16
6.87293E-07 1.00774E-16
7.23942E-07 9.11168E-17
7.61543E-07 8.25381E-17
1.18991E-06 3.43719E-17
1.71347E-06 1.66459E-17
2.33223E-06 9.00791E-18
3.04617E-06 5.28897E-18
3.85531E-06 3.30560E-18
4.75964E-06 2.17055E-18
5.75916E-06 1.48339E-18
6.85388E-06 1.04785E-18
8.04378E-06 7.61027E-19
9.32888E-06 5.65952E-19
1.07092E-05 4.29558E-19
1.21846E-05 3.31883E-19
1.37553E-05 2.60455E-19
1.54212E-05 2.07248E-19
1.71822E-05 1.66959E-19
1.90385E-05 1.36001E-19
2.09899E-05 1.11896E-19
2.30365E-05 9.29027E-20
2.51783E-05 7.77194E-20
2.74153E-05 6.56019E-20
2.97475E-05 5.57209E-20
3.21749E-05 4.76321E-20
3.46974E-05 4.09591E-20
3.73152E-05 3.54460E-20
4.00281E-05 3.07775E-20
4.28362E-05 2.68750E-20
4.57395E-05 2.35719E-20
4.87380E-05 2.07768E-20
5.18317E-05 1.83390E-20
5.50205E-05 1.62908E-20
5.83045E-05 1.45074E-20
6.16838E-05 1.29615E-20
6.51582E-05 1.16117E-20
6.87277E-05 1.04492E-20
7.23925E-05 9.41052E-21
7.61524E-05 8.50421E-21
9.21439E-05 5.80854E-21
1.09658E-04 4.10360E-21
1.28695E-04 2.97663E-21
1.49255E-04 2.21291E-21
1.71338E-04 1.68025E-21
1.94942E-04 1.29671E-21
2.20070E-04 1.01835E-21
2.46720E-04 8.09660E-22
2.74892E-04 6.52372E-22
3.04586E-04 5.31350E-22
3.35803E-04 4.37001E-22
3.68542E-04 3.62932E-22
4.02802E-04 3.03673E-22
4.38585E-04 2.56203E-22
4.75889E-04 2.17562E-22
5.14715E-04 1.85960E-22
5.55063E-04 1.59919E-22
5.96931E-04 1.38230E-22
6.40321E-04 1.20149E-22
6.85233E-04 1.04888E-22
7.31665E-04 9.19978E-23
7.79618E-04 8.10226E-23
8.29092E-04 7.16284E-23
8.80086E-04 6.35711E-23
9.32601E-04 5.66001E-23
9.86636E-04 5.05709E-23
1.04219E-03 4.53165E-23
1.09927E-03 4.07284E-23
1.15786E-03 3.67091E-23
1.21797E-03 3.31685E-23
1.27961E-03 3.00500E-23
1.34276E-03 2.72851E-23
1.40743E-03 2.48334E-23
1.47362E-03 2.26503E-23
1.54133E-03 2.07009E-23
1.61056E-03 1.89586E-23
1.68131E-03 1.73936E-23
1.75357E-03 1.59886E-23
1.82735E-03 1.47215E-23
1.90265E-03 1.35776E-23
1.97947E-03 1.25432E-23
2.05780E-03 1.16044E-23
2.13765E-03 1.07529E-23
2.21902E-03 9.97717E-24
2.30190E-03 9.27061E-24
2.38630E-03 8.62540E-24
2.47222E-03 8.03507E-24
2.55965E-03 7.49483E-24
2.64859E-03 6.99871E-24
2.73905E-03 6.54337E-24
2.83103E-03 6.12421E-24
2.92452E-03 5.73810E-24
3.01952E-03 5.38207E-24
3.11604E-03 5.05296E-24
3.21407E-03 4.74889E-24
3.31362E-03 4.46712E-24
3.41468E-03 4.20605E-24
3.51725E-03 3.96375E-24
3.62133E-03 3.73856E-24
3.72692E-03 3.52927E-24
3.83403E-03 3.33425E-24
3.94265E-03 3.15264E-24
4.05278E-03 2.98315E-24
4.16442E-03 2.82490E-24
4.27757E-03 2.67704E-24
4.39223E-03 2.53864E-24
4.50840E-03 2.40916E-24
4.62608E-03 2.28775E-24
4.74527E-03 2.17392E-24
4.86597E-03 2.06708E-24
4.98817E-03 1.96668E-24
5.11188E-03 1.87236E-24
5.23711E-03 1.78356E-24
5.36383E-03 1.70001E-24
5.49207E-03 1.62126E-24
5.62181E-03 1.54701E-24
5.75306E-03 1.47699E-24
5.88581E-03 1.41084E-24
6.02007E-03 1.34839E-24
6.15583E-03 1.28932E-24
6.29310E-03 1.23347E-24
6.43187E-03 1.18061E-24
6.57214E-03 1.13053E-24
6.71392E-03 1.08309E-24
6.85720E-03 1.03810E-24
7.00198E-03 9.95427E-25
7.14827E-03 9.54916E-25
7.29605E-03 9.16443E-25
7.44534E-03 8.79894E-25
7.59612E-03 8.45133E-25
7.97965E-03 7.65463E-25
8.37255E-03 6.94954E-25
8.77480E-03 6.32369E-25
9.18641E-03 5.76666E-25
9.60736E-03 5.26955E-25
1.00376E-02 4.82480E-25
1.04773E-02 4.42593E-25
1.09262E-02 4.06738E-25
1.13844E-02 3.74435E-25
1.18520E-02 3.45272E-25
1.23288E-02 3.18889E-25
1.28150E-02 2.94974E-25
1.33104E-02 2.73256E-25
1.38150E-02 2.53496E-25
1.43290E-02 2.35487E-25
1.48521E-02 2.19046E-25
1.53845E-02 2.04013E-25
1.59262E-02 1.90245E-25
1.64770E-02 1.77616E-25
1.70371E-02 1.66015E-25
1.76063E-02 1.55345E-25
1.81848E-02 1.45516E-25
1.87724E-02 1.36450E-25
1.93692E-02 1.28078E-25
1.99751E-02 1.20336E-25
2.05901E-02 1.13169E-25
2.12143E-02 1.06526E-25
2.18476E-02 1.00362E-25
2.24900E-02 9.46368E-26
2.31415E-02 8.93125E-26
2.38021E-02 8.43562E-26
2.44717E-02 7.97379E-26
2.51504E-02 7.54304E-26
2.58382E-02 7.14088E-26
2.65349E-02 6.76509E-26
2.72407E-02 6.41360E-26
2.79555E-02 6.08456E-26
2.86793E-02 5.77628E-26
2.94120E-02 5.48720E-26
3.01537E-02 5.21591E-26
3.09043E-02 4.96112E-26
3.16639E-02 4.72163E-26
3.24324E-02 4.49636E-26
3.32098E-02 4.28430E-26
3.39961E-02 4.08455E-26
3.47912E-02 3.89625E-26
3.55952E-02 3.71863E-26
3.64081E-02 3.55097E-26
3.72297E-02 3.39261E-26
3.80602E-02 3.24293E-26
3.88995E-02 3.10138E-26
3.97476E-02 2.96742E-26
4.06044E-02 2.84059E-26
4.14700E-02 2.72042E-26
4.23443E-02 2.60650E-26
4.32273E-02 2.49846E-26
4.41190E-02 2.39592E-26
4.50194E-02 2.29856E-26
4.59284E-02 2.20606E-26
4.68461E-02 2.11814E-26
4.87074E-02 1.95498E-26
5.06030E-02 1.80714E-26
5.25328E-02 1.67292E-26
5.44967E-02 1.55086E-26
5.64946E-02 1.43965E-26
5.85262E-02 1.33816E-26
6.05914E-02 1.24540E-26
6.26901E-02 1.16047E-26
6.48222E-02 1.08260E-26
6.69873E-02 1.01111E-26
6.91854E-02 9.45366E-27
7.14163E-02 8.84835E-27
7.36799E-02 8.29028E-27
7.59760E-02 7.77511E-27
7.83043E-02 7.29896E-27
8.06647E-02 6.85833E-27
8.30571E-02 6.45012E-27
8.54812E-02 6.07150E-27
8.79369E-02 5.71996E-27
9.04240E-02 5.39321E-27
9.29422E-02 5.08919E-27
9.54915E-02 4.80603E-27
9.80716E-02 4.54205E-27
1.00682E-01 4.29571E-27
1.03323E-01 4.06564E-27
1.05995E-01 3.85055E-27
1.08696E-01 3.64930E-27
1.11427E-01 3.46084E-27
1.14188E-01 3.28421E-27
1.16978E-01 3.11853E-27
1.19797E-01 2.96301E-27
1.22645E-01 2.81691E-27
1.25522E-01 2.67956E-27
1.28428E-01 2.55034E-27
1.31361E-01 2.42867E-27
1.34323E-01 2.31405E-27
1.37313E-01 2.20599E-27
1.40330E-01 2.10405E-27
1.43375E-01 2.00781E-27
1.46447E-01 1.91691E-27
1.49545E-01 1.83098E-27
1.52671E-01 1.74972E-27
1.55823E-01 1.67283E-27
1.59001E-01 1.60002E-27
1.62205E-01 1.53104E-27
1.65435E-01 1.46565E-27
1.68690E-01 1.40364E-27
1.71970E-01 1.34479E-27
1.75276E-01 1.28893E-27
1.78606E-01 1.23586E-27
1.81961E-01 1.18542E-27
1.85340E-01 1.13746E-27
1.88743E-01 1.09185E-27
1.92169E-01 1.04843E-27
1.95619E-01 1.00709E-27
1.99092E-01 9.67706E-28
2.02589E-01 9.30176E-28
2.06107E-01 8.94394E-28
2.09649E-01 8.60263E-28
2.13212E-01 8.27695E-28
2.16797E-01 7.96605E-28
2.20404E-01 7.66914E-28
2.24032E-01 7.38548E-28
2.27680E-01 7.11437E-28
2.31350E-01 6.85516E-28
2.35040E-01 6.60724E-28
2.38751E-01 6.37003E-28
2.42481E-01 6.14297E-28
2.46231E-01 5.92557E-28
2.50000E-01 5.71733E-28
2.53788E-01 5.51781E-28
2.57595E-01 5.32657E-28
2.61421E-01 5.14322E-28
2.65264E-01 4.96736E-28
2.69126E-01 4.79864E-28
2.73005E-01 4.63671E-28
2.76901E-01 4.48127E-28
2.80814E-01 4.33199E-28
2.84744E-01 4.18859E-28
2.88691E-01 4.05081E-28
2.92653E-01 3.91838E-28
2.96632E-01 3.79106E-28
3.00625E-01 3.66862E-28
3.04634E-01 3.55084E-28
3.08658E-01 3.43750E-28
3.12697E-01 3.32843E-28
3.16749E-01 3.22341E-28
3.20816E-01 3.12229E-28
3.24896E-01 3.02488E-28
3.28990E-01 2.93103E-28
3.33097E-01 2.84059E-28
3.37216E-01 2.75341E-28
3.41348E-01 2.66935E-28
3.45492E-01 2.58829E-28
3.49647E-01 2.51010E-28
3.53814E-01 2.43465E-28
3.57992E-01 2.36184E-28
3.62181E-01 2.29156E-28
3.66381E-01 2.22371E-28
3.70590E-01 2.15818E-28
3.74810E-01 2.09488E-28
3.79039E-01 2.03374E-28
3.83277E-01 1.97465E-28
3.87524E-01 1.91754E-28
3.91780E-01 1.86233E-28
3.96044E-01 1.80895E-28
4.00316E-01 1.75733E-28
4.04596E-01 1.70739E-28
4.08882E-01 1.65908E-28
4.13176E-01 1.61234E-28
4.17476E-01 1.56710E-28
4.21783E-01 1.52330E-28
4.26095E-01 1.48090E-28
4.30413E-01 1.43985E-28
4.34737E-01 1.40008E-28
4.39065E-01 1.36156E-28
4.43398E-01 1.32424E-28
4.47736E-01 1.28808E-28
4.52077E-01 1.25303E-28
4.56422E-01 1.21906E-28
4.60770E-01 1.18612E-28
4.65122E-01 1.15418E-28
4.69476E-01 1.12320E-28
4.73832E-01 1.09316E-28
4.78190E-01 1.06401E-28
4.82550E-01 1.03574E-28
4.86912E-01 1.00829E-28
4.91274E-01 9.81661E-29
4.95637E-01 9.55810E-29
5.00000E-01 9.30710E-29
5.04363E-01 9.06339E-29
5.08726E-01 8.82674E-29
5.13088E-01 8.59689E-29
5.17450E-01 8.37360E-29
5.21810E-01 8.15669E-29
5.26168E-01 7.94593E-29
5.30524E-01 7.74112E-29
5.34878E-01 7.54206E-29
5.39230E-01 7.34858E-29
5.43578E-01 7.16047E-29
5.47923E-01 6.97759E-29
5.52264E-01 6.79975E-29
5.56602E-01 6.62681E-29
5.60935E-01 6.45860E-29
5.65263E-01 6.29497E-29
5.69587E-01 6.13579E-29
5.73905E-01 5.98091E-29
5.78217E-01 5.83020E-29
5.82524E-01 5.68352E-29
5.86824E-01 5.54077E-29
5.91118E-01 5.40180E-29
5.95404E-01 5.26653E-29
5.99684E-01 5.13480E-29
6.03956E-01 5.00655E-29
6.08220E-01 4.88165E-29
6.12476E-01 4.76000E-29
6.16723E-01 4.64152E-29
6.20961E-01 4.52610E-29
6.25190E-01 4.41365E-29
6.29410E-01 4.30409E-29
6.33619E-01 4.19734E-29
6.37819E-01 4.09330E-29
6.42008E-01 3.99191E-29
6.46186E-01 3.89308E-29
6.50353E-01 3.79675E-29
6.54508E-01 3.70283E-29
6.58652E-01 3.61127E-29
6.62784E-01 3.52199E-29
6.66903E-01 3.43493E-29
6.71010E-01 3.35003E-29
6.75104E-01 3.26723E-29
6.79184E-01 3.18646E-29
6.83251E-01 3.10768E-29
6.87303E-01 3.03082E-29
6.91342E-01 2.95585E-29
6.95366E-01 2.88268E-29
6.99375E-01 2.81130E-29
7.03368E-01 2.74164E-29
7.07347E-01 2.67366E-29
7.11309E-01 2.60731E-29
7.15256E-01 2.54255E-29
7.19186E-01 2.47933E-29
7.23099E-01 2.41763E-29
7.26995E-01 2.35739E-29
7.30874E-01 2.29858E-29
7.34736E-01 2.24115E-29
7.38579E-01 2.18508E-29
7.42405E-01 2.13032E-29
7.46212E-01 2.07686E-29
7.50000E-01 2.02463E-29
7.53769E-01 1.97363E-29
7.57519E-01 1.92382E-29
7.61249E-01 1.87516E-29
7.64960E-01 1.82763E-29
7.68650E-01 1.78120E-29
7.72320E-01 1.73584E-29
7.75968E-01 1.69152E-29
7.79596E-01 1.64823E-29
7.83203E-01 1.60592E-29
7.86788E-01 1.56458E-29
7.90351E-01 1.52419E-29
7.93893E-01 1.48472E-29
7.97411E-01 1.44615E-29
8.00908E-01 1.40845E-29
8.04381E-01 1.37162E-29
8.07831E-01 1.33561E-29
8.11257E-01 1.30042E-29
8.14660E-01 1.26602E-29
8.18039E-01 1.23241E-29
8.21394E-01 1.19955E-29
8.24724E-01 1.16744E-29
8.28030E-01 1.13604E-29
8.31310E-01 1.10535E-29
8.34565E-01 1.07535E-29
8.37795E-01 1.04603E-29
8.40999E-01 1.01736E-29
8.44177E-01 9.89336E-30
8.47329E-01 9.61938E-30
8.50455E-01 9.35158E-30
8.53553E-01 9.08979E-30
8.56625E-01 8.83383E-30
8.59670E-01 8.58364E-30
8.62687E-01 8.33903E-30
8.65677E-01 8.09995E-30
8.68639E-01 7.86618E-30
8.71572E-01 7.63765E-30
8.74478E-01 7.41433E-30
8.77355E-01 7.19600E-30
8.80203E-01 6.98261E-30
8.83022E-01 6.77401E-30
8.85812E-01 6.57009E-30
8.88573E-01 6.37081E-30
8.91304E-01 6.17601E-30
8.94005E-01 5.98567E-30
8.96677E-01 5.79967E-30
8.99318E-01 5.61786E-30
9.01928E-01 5.44021E-30
9.04508E-01 5.26665E-30
9.07058E-01 5.09705E-30
9.09576E-01 4.93138E-30
9.12063E-01 4.76955E-30
9.14519E-01 4.61145E-30
9.16943E-01 4.45703E-30
9.19335E-01 4.30621E-30
9.21696E-01 4.15895E-30
9.24024E-01 4.01514E-30
9.26320E-01 3.87474E-30
9.28584E-01 3.73771E-30
9.30815E-01 3.60393E-30
9.33013E-01 3.47337E-30
9.35178E-01 3.34598E-30
9.37310E-01 3.22167E-30
9.39409E-01 3.10044E-30
9.41474E-01 2.98219E-30
9.43505E-01 2.86690E-30
9.45503E-01 2.75448E-30
9.47467E-01 2.64491E-30
9.49397E-01 2.53812E-30
9.51293E-01 2.43408E-30
9.53154E-01 2.33278E-30
9.54981E-01 2.23409E-30
9.56773E-01 2.13804E-30
9.58530E-01 2.04456E-30
9.60252E-01 1.95358E-30
9.61940E-01 1.86511E-30
9.63592E-01 1.77912E-30
9.65209E-01 1.69552E-30
9.66790E-01 1.61433E-30
9.68336E-01 1.53546E-30
9.69846E-01 1.45892E-30
9.71321E-01 1.38466E-30
9.72759E-01 1.31266E-30
9.74162E-01 1.24288E-30
9.75528E-01 1.17529E-30
9.76858E-01 1.10986E-30
9.78152E-01 1.04658E-30
9.79410E-01 9.85408E-31
9.80631E-01 9.26305E-31
9.81815E-01 8.69286E-31
9.82963E-01 8.14276E-31
9.84074E-01 7.61310E-31
9.85148E-01 7.10320E-31
9.86185E-01 6.61304E-31
9.87185E-01 6.14232E-31
9.88148E-01 5.69102E-31
9.89074E-01 5.25881E-31
9.89962E-01 4.84555E-31
9.90814E-01 4.45118E-31
9.91627E-01 4.07528E-31
9.92404E-01 3.71808E-31
9.93143E-01 3.37909E-31
9.93844E-01 3.05830E-31
9.94508E-01 2.75546E-31
9.95134E-01 2.47074E-31
9.95722E-01 2.20373E-31
9.96273E-01 1.95453E-31
9.96786E-01 1.72290E-31
9.97261E-01 1.50884E-31
9.97698E-01 1.31218E-31
9.98097E-01 1.13295E-31
9.98459E-01 9.70916E-32
9.98782E-01 8.26220E-32
9.99067E-01 6.98617E-32
9.99315E-01 5.88120E-32
9.99524E-01 4.94696E-32
9.99695E-01 4.18267E-32
9.99829E-01 3.58960E-32
9.99924E-01 3.16505E-32
9.99981E-01 2.91090E-32
1.00000E+00 2.82955E-32
