 #
 # Subroutine ELSEPA. Elastic scattering of electrons and positrons
 #                    by neutral atoms and positive ions
 #
 # Projectile: positron
 # Kinetic energy = 7.00000E+08 eV = 2.57245E+07 a.u.
 #
 # WARNING: High-energy factorization with free-atom DF screening.
 #          Absorption, polarization and exchange corrections are
 #          switched off.
 #          Phase shifts are calculated for the bare nucleus.
 #          Scattering amplitudes are not evaluated.
 #
 # Element: He,  Z =   2,  atomic weight = 4.00260E+00 g/mol
 #
 # Nuclear model: Fermi distribution
 #                Average radius = 1.69889E-13 cm
 #                Skin thickness = 5.46000E-14 cm
 #
 # Number of electrons =  2
 #
 # Total elastic cross section = 1.64642E-20 cm**2 = 5.87947E-04 a0**2
 # 1st transport cross section = 1.93950E-29 cm**2 = 6.92607E-13 a0**2
 # 2nd transport cross section = 5.81515E-29 cm**2 = 2.07663E-12 a0**2
 #
 #
 # Differential cross section:                       MU=(1-COS(THETA))/2
 #
 #  THETA        MU          DCS          DCS        Sherman      error
 #  (deg)                 (cm**2/sr)   (a0**2/sr)    function
 #----------------------------------------------------------------------
0.00000E+00 3.27833E-11
7.61557E-13 3.16691E-11
1.18994E-12 3.10655E-11
1.71346E-12 3.03494E-11
2.33225E-12 2.95323E-11
3.04617E-12 2.86274E-11
3.85530E-12 2.75852E-11
4.75964E-12 2.65916E-11
5.75917E-12 2.54544E-11
6.85391E-12 2.43823E-11
8.04379E-12 2.31985E-11
9.32893E-12 2.20947E-11
1.07092E-11 2.09146E-11
1.21847E-11 1.98203E-11
1.37554E-11 1.86831E-11
1.54213E-11 1.76308E-11
1.71823E-11 1.65639E-11
1.90386E-11 1.55769E-11
2.09900E-11 1.45968E-11
2.30367E-11 1.36899E-11
2.51785E-11 1.28042E-11
2.74156E-11 1.19839E-11
2.97478E-11 1.11938E-11
3.21752E-11 1.04611E-11
3.46979E-11 9.76293E-12
3.73157E-11 9.11475E-12
4.00286E-11 8.50223E-12
4.28368E-11 7.93287E-12
4.57402E-11 7.39840E-12
4.87388E-11 6.90097E-12
5.18325E-11 6.43648E-12
5.50215E-11 6.00370E-12
5.83057E-11 5.60126E-12
6.16850E-11 5.22598E-12
6.51595E-11 4.87813E-12
6.87293E-11 4.55353E-12
7.23943E-11 4.25339E-12
7.61544E-11 3.97319E-12
1.18991E-10 2.07878E-12
1.71347E-10 1.14146E-12
2.33223E-10 6.68956E-13
3.04617E-10 4.10907E-13
3.85531E-10 2.64892E-13
4.75965E-10 1.77150E-13
5.75917E-10 1.22722E-13
6.85389E-10 8.74589E-14
8.04380E-10 6.39635E-14
9.32891E-10 4.77582E-14
1.07092E-09 3.63607E-14
1.21847E-09 2.81325E-14
1.37554E-09 2.21038E-14
1.54213E-09 1.76057E-14
1.71823E-09 1.41950E-14
1.90386E-09 1.15712E-14
2.09900E-09 9.52621E-15
2.30367E-09 7.91345E-15
2.51785E-09 6.62784E-15
2.74156E-09 5.59290E-15
2.97478E-09 4.75223E-15
3.21752E-09 4.06368E-15
3.46978E-09 3.49540E-15
3.73156E-09 3.02304E-15
4.00286E-09 2.62782E-15
4.28368E-09 2.29511E-15
4.57402E-09 2.01341E-15
4.87388E-09 1.77362E-15
5.18326E-09 1.56849E-15
5.50215E-09 1.39216E-15
5.83057E-09 1.23993E-15
6.16850E-09 1.10794E-15
6.51596E-09 9.93053E-16
6.87293E-09 8.92676E-16
7.23942E-09 8.04665E-16
7.61544E-09 7.27236E-16
1.18991E-08 2.98075E-16
1.71347E-08 1.43800E-16
2.33223E-08 7.76364E-17
3.04617E-08 4.55155E-17
3.85531E-08 2.84178E-17
4.75965E-08 1.86462E-17
5.75917E-08 1.27363E-17
6.85389E-08 8.99300E-18
8.04380E-08 6.52934E-18
9.32891E-08 4.85445E-18
1.07092E-07 3.68380E-18
1.21847E-07 2.84569E-18
1.37554E-07 2.23294E-18
1.54213E-07 1.77659E-18
1.71823E-07 1.43109E-18
1.90386E-07 1.16564E-18
2.09900E-07 9.58979E-19
2.30367E-07 7.96155E-19
2.51785E-07 6.66467E-19
2.74156E-07 5.62143E-19
2.97478E-07 4.77456E-19
3.21752E-07 4.08132E-19
3.46978E-07 3.50946E-19
3.73156E-07 3.03434E-19
4.00286E-07 2.63697E-19
4.28368E-07 2.30257E-19
4.57402E-07 2.01953E-19
4.87388E-07 1.77868E-19
5.18325E-07 1.57269E-19
5.50215E-07 1.39567E-19
5.83057E-07 1.24287E-19
6.16850E-07 1.11042E-19
6.51596E-07 9.95159E-20
6.87293E-07 8.94468E-20
7.23942E-07 8.06196E-20
7.61543E-07 7.28550E-20
1.18991E-06 2.98413E-20
1.71347E-06 1.43910E-20
2.33223E-06 7.76784E-21
3.04617E-06 4.55333E-21
3.85531E-06 2.84259E-21
4.75964E-06 1.86501E-21
5.75916E-06 1.27382E-21
6.85388E-06 8.99391E-22
8.04378E-06 6.52975E-22
9.32888E-06 4.85460E-22
1.07092E-05 3.68381E-22
1.21846E-05 2.84563E-22
1.37553E-05 2.23285E-22
1.54212E-05 1.77648E-22
1.71822E-05 1.43098E-22
1.90385E-05 1.16553E-22
2.09899E-05 9.58875E-23
2.30365E-05 7.96058E-23
2.51783E-05 6.65904E-23
2.74153E-05 5.62061E-23
2.97475E-05 4.77380E-23
3.21749E-05 4.08063E-23
3.46974E-05 3.50883E-23
3.73152E-05 3.03651E-23
4.00281E-05 2.63644E-23
4.28362E-05 2.30209E-23
4.57395E-05 2.01909E-23
4.87380E-05 1.77967E-23
5.18317E-05 1.57075E-23
5.50205E-05 1.39533E-23
5.83045E-05 1.24256E-23
6.16838E-05 1.11014E-23
6.51582E-05 9.94509E-24
6.87277E-05 8.94956E-24
7.23925E-05 8.05968E-24
7.61524E-05 7.28338E-24
9.21439E-05 4.97450E-24
1.09658E-04 3.47709E-24
1.28695E-04 2.51739E-24
1.49255E-04 1.86772E-24
1.71338E-04 1.41511E-24
1.94942E-04 1.08955E-24
2.20070E-04 8.53588E-25
2.46720E-04 6.76882E-25
2.74892E-04 5.43898E-25
3.04586E-04 4.41719E-25
3.35803E-04 3.62179E-25
3.68542E-04 2.99840E-25
4.02802E-04 2.50042E-25
4.38585E-04 2.10226E-25
4.75889E-04 1.77871E-25
5.14715E-04 1.51461E-25
5.55063E-04 1.29742E-25
5.96931E-04 1.11690E-25
6.40321E-04 9.66723E-26
6.85233E-04 8.40256E-26
7.31665E-04 7.33677E-26
7.79618E-04 6.43150E-26
8.29092E-04 5.65852E-26
8.80086E-04 4.99727E-26
9.32601E-04 4.42663E-26
9.86636E-04 3.93444E-26
1.04219E-03 3.50669E-26
1.09927E-03 3.13427E-26
1.15786E-03 2.80898E-26
1.21797E-03 2.52330E-26
1.27961E-03 2.27247E-26
1.34276E-03 2.05079E-26
1.40743E-03 1.85487E-26
1.47362E-03 1.68102E-26
1.54133E-03 1.52630E-26
1.61056E-03 1.38853E-26
1.68131E-03 1.26522E-26
1.75357E-03 1.15493E-26
1.82735E-03 1.05585E-26
1.90265E-03 9.66756E-27
1.97947E-03 8.86511E-27
2.05780E-03 8.13986E-27
2.13765E-03 7.48475E-27
2.21902E-03 6.89051E-27
2.30190E-03 6.35164E-27
2.38630E-03 5.86175E-27
2.47222E-03 5.41558E-27
2.55965E-03 5.00917E-27
2.64859E-03 4.63773E-27
2.73905E-03 4.29847E-27
2.83103E-03 3.98771E-27
2.92452E-03 3.70290E-27
3.01952E-03 3.44163E-27
3.11604E-03 3.20138E-27
3.21407E-03 2.98059E-27
3.31362E-03 2.77710E-27
3.41468E-03 2.58962E-27
3.51725E-03 2.41659E-27
3.62133E-03 2.25669E-27
3.72692E-03 2.10896E-27
3.83403E-03 1.97212E-27
3.94265E-03 1.84545E-27
4.05278E-03 1.72796E-27
4.16442E-03 1.61895E-27
4.27757E-03 1.51775E-27
4.39223E-03 1.42362E-27
4.50840E-03 1.33614E-27
4.62608E-03 1.25466E-27
4.74527E-03 1.17878E-27
4.86597E-03 1.10805E-27
4.98817E-03 1.04206E-27
5.11188E-03 9.80485E-28
5.23711E-03 9.22938E-28
5.36383E-03 8.69185E-28
5.49207E-03 8.18897E-28
5.62181E-03 7.71843E-28
5.75306E-03 7.27799E-28
5.88581E-03 6.86517E-28
6.02007E-03 6.47846E-28
6.15583E-03 6.11561E-28
6.29310E-03 5.77526E-28
6.43187E-03 5.45574E-28
6.57214E-03 5.15557E-28
6.71392E-03 4.87364E-28
6.85720E-03 4.60845E-28
7.00198E-03 4.35915E-28
7.14827E-03 4.12452E-28
7.29605E-03 3.90366E-28
7.44534E-03 3.69572E-28
7.59612E-03 3.49974E-28
7.97965E-03 3.05769E-28
8.37255E-03 2.67563E-28
8.77480E-03 2.34469E-28
9.18641E-03 2.05746E-28
9.60736E-03 1.80767E-28
1.00376E-02 1.59006E-28
1.04773E-02 1.40017E-28
1.09262E-02 1.23419E-28
1.13844E-02 1.08890E-28
1.18520E-02 9.61553E-29
1.23288E-02 8.49781E-29
1.28150E-02 7.51561E-29
1.33104E-02 6.65152E-29
1.38150E-02 5.89053E-29
1.43290E-02 5.21965E-29
1.48521E-02 4.62768E-29
1.53845E-02 4.10488E-29
1.59262E-02 3.64279E-29
1.64770E-02 3.23404E-29
1.70371E-02 2.87224E-29
1.76063E-02 2.55177E-29
1.81848E-02 2.26774E-29
1.87724E-02 2.01587E-29
1.93692E-02 1.79240E-29
1.99751E-02 1.59402E-29
2.05901E-02 1.41786E-29
2.12143E-02 1.26134E-29
2.18476E-02 1.12224E-29
2.24900E-02 9.98577E-30
2.31415E-02 8.88598E-30
2.38021E-02 7.90765E-30
2.44717E-02 7.03715E-30
2.51504E-02 6.26245E-30
2.58382E-02 5.57287E-30
2.65349E-02 4.95897E-30
2.72407E-02 4.41236E-30
2.79555E-02 3.92563E-30
2.86793E-02 3.49218E-30
2.94120E-02 3.10616E-30
3.01537E-02 2.76236E-30
3.09043E-02 2.45618E-30
3.16639E-02 2.18349E-30
3.24324E-02 1.94064E-30
3.32098E-02 1.72438E-30
3.39961E-02 1.53182E-30
3.47912E-02 1.36037E-30
3.55952E-02 1.20775E-30
3.64081E-02 1.07189E-30
3.72297E-02 9.50985E-31
3.80602E-02 8.43405E-31
3.88995E-02 7.47701E-31
3.97476E-02 6.62580E-31
4.06044E-02 5.86892E-31
4.14700E-02 5.19610E-31
4.23443E-02 4.59817E-31
4.32273E-02 4.06696E-31
4.41190E-02 3.59517E-31
4.50194E-02 3.17632E-31
4.59284E-02 2.80461E-31
4.68461E-02 2.47485E-31
4.87074E-02 1.92327E-31
5.06030E-02 1.49034E-31
5.25328E-02 1.15123E-31
5.44967E-02 8.86224E-32
5.64946E-02 6.79632E-32
5.85262E-02 5.19025E-32
6.05914E-02 3.94547E-32
6.26901E-02 2.98392E-32
6.48222E-02 2.24393E-32
6.69873E-02 1.67677E-32
6.91854E-02 1.24407E-32
7.14163E-02 9.15622E-33
7.36799E-02 6.67747E-33
7.59760E-02 4.81884E-33
7.83043E-02 3.43550E-33
8.06647E-02 2.41461E-33
8.30571E-02 1.66860E-33
8.54812E-02 1.12979E-33
8.79369E-02 7.45993E-34
9.04240E-02 4.77277E-34
9.29422E-02 2.93101E-34
9.54915E-02 1.70337E-34
9.80716E-02 9.15896E-35
1.00682E-01 4.38189E-35
1.03323E-01 1.73914E-35
1.05995E-01 5.23417E-36
1.08696E-01 2.23623E-36
1.11427E-01 4.75563E-36
1.14188E-01 1.02522E-35
1.16978E-01 1.69997E-35
1.19797E-01 2.38684E-35
1.22645E-01 3.01597E-35
1.25522E-01 3.54779E-35
1.28428E-01 3.96418E-35
1.31361E-01 4.26177E-35
1.34323E-01 4.44513E-35
1.37313E-01 4.52520E-35
1.40330E-01 4.51589E-35
1.43375E-01 4.43166E-35
1.46447E-01 4.28750E-35
1.49545E-01 4.09691E-35
1.52671E-01 3.87257E-35
1.55823E-01 3.62539E-35
1.59001E-01 3.36483E-35
1.62205E-01 3.09859E-35
1.65435E-01 2.83314E-35
1.68690E-01 2.57351E-35
1.71970E-01 2.32327E-35
1.75276E-01 2.08538E-35
1.78606E-01 1.86194E-35
1.81961E-01 1.65388E-35
1.85340E-01 1.46207E-35
1.88743E-01 1.28642E-35
1.92169E-01 1.12677E-35
1.95619E-01 9.82475E-36
1.99092E-01 8.53129E-36
2.02589E-01 7.37511E-36
2.06107E-01 6.34915E-36
2.09649E-01 5.44381E-36
2.13212E-01 4.64701E-36
2.16797E-01 3.95062E-36
2.20404E-01 3.34403E-36
2.24032E-01 2.81807E-36
2.27680E-01 2.36416E-36
2.31350E-01 1.97419E-36
2.35040E-01 1.64039E-36
2.38751E-01 1.35623E-36
2.42481E-01 1.11516E-36
2.46231E-01 9.12251E-37
2.50000E-01 7.41101E-37
2.53788E-01 5.98452E-37
2.57595E-01 4.79629E-37
2.61421E-01 3.81528E-37
2.65264E-01 3.00696E-37
2.69126E-01 2.34889E-37
2.73005E-01 1.81481E-37
2.76901E-01 1.38421E-37
2.80814E-01 1.04119E-37
2.84744E-01 7.70723E-38
2.88691E-01 5.58279E-38
2.92653E-01 3.95631E-38
2.96632E-01 2.71453E-38
3.00625E-01 1.79546E-38
3.04634E-01 1.12459E-38
3.08658E-01 6.57310E-39
3.12697E-01 3.42132E-39
3.16749E-01 1.48694E-39
3.20816E-01 4.52059E-40
3.24896E-01 8.22531E-41
3.28990E-01 1.86479E-40
3.33097E-01 6.22236E-40
3.37216E-01 1.25958E-39
3.41348E-01 2.00306E-39
3.45492E-01 2.81793E-39
3.49647E-01 3.59961E-39
3.53814E-01 4.36667E-39
3.57992E-01 5.07240E-39
3.62181E-01 5.68370E-39
3.66381E-01 6.20307E-39
3.70590E-01 6.63727E-39
3.74810E-01 6.96602E-39
3.79039E-01 7.22392E-39
3.83277E-01 7.37597E-39
3.87524E-01 7.45882E-39
3.91780E-01 7.46047E-39
3.96044E-01 7.43195E-39
4.00316E-01 7.31995E-39
4.04596E-01 7.16495E-39
4.08882E-01 6.96619E-39
4.13176E-01 6.77614E-39
4.17476E-01 6.52836E-39
4.21783E-01 6.26397E-39
4.26095E-01 5.99281E-39
4.30413E-01 5.68847E-39
4.34737E-01 5.40433E-39
4.39065E-01 5.11695E-39
4.43398E-01 4.83167E-39
4.47736E-01 4.55817E-39
4.52077E-01 4.26766E-39
4.56422E-01 4.01475E-39
4.60770E-01 3.74377E-39
4.65122E-01 3.48382E-39
4.69476E-01 3.23481E-39
4.73832E-01 2.99783E-39
4.78190E-01 2.77591E-39
4.82550E-01 2.56727E-39
4.86912E-01 2.37982E-39
4.91274E-01 2.18986E-39
4.95637E-01 2.03953E-39
5.00000E-01 1.87044E-39
5.04363E-01 1.71262E-39
5.08726E-01 1.57685E-39
5.13088E-01 1.45518E-39
5.17450E-01 1.32848E-39
5.21810E-01 1.22452E-39
5.26168E-01 1.12355E-39
5.30524E-01 1.02979E-39
5.34878E-01 9.40512E-40
5.39230E-01 8.62397E-40
5.43578E-01 7.83602E-40
5.47923E-01 7.14565E-40
5.52264E-01 6.44809E-40
5.56602E-01 5.90338E-40
5.60935E-01 5.38269E-40
5.65263E-01 4.89297E-40
5.69587E-01 4.45215E-40
5.73905E-01 4.10746E-40
5.78217E-01 3.76071E-40
5.82524E-01 3.38433E-40
5.86824E-01 3.09647E-40
5.91118E-01 2.82905E-40
5.95404E-01 2.64425E-40
5.99684E-01 2.36876E-40
6.03956E-01 2.15059E-40
6.08220E-01 1.99239E-40
6.12476E-01 1.79168E-40
6.16723E-01 1.63905E-40
6.20961E-01 1.52341E-40
6.25190E-01 1.36638E-40
6.29410E-01 1.23653E-40
6.33619E-01 1.12980E-40
6.37819E-01 1.03786E-40
6.42008E-01 9.36513E-41
6.46186E-01 8.68049E-41
6.50353E-01 8.02953E-41
6.54508E-01 7.32797E-41
6.58652E-01 6.69098E-41
6.62784E-01 6.08922E-41
6.66903E-01 5.65844E-41
6.71010E-01 5.29997E-41
6.75104E-01 4.80941E-41
6.79184E-01 4.46988E-41
6.83251E-01 4.09495E-41
6.87303E-01 3.84124E-41
6.91342E-01 3.65187E-41
6.95366E-01 3.27755E-41
6.99375E-01 3.05583E-41
7.03368E-01 2.74238E-41
7.07347E-01 2.59370E-41
7.11309E-01 2.41561E-41
7.15256E-01 2.32989E-41
7.19186E-01 1.96202E-41
7.23099E-01 1.91382E-41
7.26995E-01 1.70170E-41
7.30874E-01 1.71448E-41
7.34736E-01 1.53717E-41
7.38579E-01 1.50264E-41
7.42405E-01 1.31207E-41
7.46212E-01 1.36681E-41
7.50000E-01 1.22145E-41
7.53769E-01 1.14477E-41
7.57519E-01 1.08434E-41
7.61249E-01 1.06060E-41
7.64960E-01 1.05428E-41
7.68650E-01 9.24012E-42
7.72320E-01 8.69019E-42
7.75968E-01 8.45648E-42
7.79596E-01 8.07540E-42
7.83203E-01 7.26590E-42
7.86788E-01 6.84245E-42
7.90351E-01 6.46706E-42
7.93893E-01 6.30132E-42
7.97411E-01 5.34514E-42
8.00908E-01 5.05315E-42
8.04381E-01 5.13191E-42
8.07831E-01 4.69020E-42
8.11257E-01 4.78051E-42
8.14660E-01 3.60303E-42
8.18039E-01 3.92923E-42
8.21394E-01 4.25985E-42
8.24724E-01 4.27632E-42
8.28030E-01 3.29714E-42
8.31310E-01 3.36583E-42
8.34565E-01 3.49962E-42
8.37795E-01 3.27802E-42
8.40999E-01 3.11665E-42
8.44177E-01 3.22947E-42
8.47329E-01 2.58967E-42
8.50455E-01 2.74168E-42
8.53553E-01 2.91427E-42
8.56625E-01 2.49703E-42
8.59670E-01 2.52413E-42
8.62687E-01 2.20894E-42
8.65677E-01 2.49330E-42
8.68639E-01 1.96412E-42
8.71572E-01 1.39271E-42
8.74478E-01 1.71619E-42
8.77355E-01 1.73415E-42
8.80203E-01 2.02343E-42
8.83022E-01 2.06300E-42
8.85812E-01 1.70965E-42
8.88573E-01 1.70208E-42
8.91304E-01 1.34537E-42
8.94005E-01 1.45587E-42
8.96677E-01 1.82496E-42
8.99318E-01 1.52301E-42
9.01928E-01 1.25425E-42
9.04508E-01 1.35131E-42
9.07058E-01 9.46987E-43
9.09576E-01 1.11009E-42
9.12063E-01 1.23192E-42
9.14519E-01 1.25507E-42
9.16943E-01 1.05338E-42
9.19335E-01 8.93061E-43
9.21696E-01 1.11010E-42
9.24024E-01 8.18252E-43
9.26320E-01 7.22657E-43
9.28584E-01 1.06947E-42
9.30815E-01 8.37375E-43
9.33013E-01 7.66573E-43
9.35178E-01 7.42609E-43
9.37310E-01 5.03227E-43
9.39409E-01 6.38268E-43
9.41474E-01 4.89319E-43
9.43505E-01 7.65615E-43
9.45503E-01 6.49304E-43
9.47467E-01 6.01834E-43
9.49397E-01 5.71455E-43
9.51293E-01 3.72754E-43
9.53154E-01 7.50024E-43
9.54981E-01 5.39899E-43
9.56773E-01 6.36152E-43
9.58530E-01 7.33689E-43
9.60252E-01 3.93199E-43
9.61940E-01 2.99579E-43
9.63592E-01 3.98247E-43
9.65209E-01 2.58235E-43
9.66790E-01 4.61740E-43
9.68336E-01 2.50517E-43
9.69846E-01 1.89173E-43
9.71321E-01 1.75194E-43
9.72759E-01 2.44158E-43
9.74162E-01 2.45222E-43
9.75528E-01 1.95664E-43
9.76858E-01 1.17706E-43
9.78152E-01 1.59760E-43
9.79410E-01 2.54090E-43
9.80631E-01 1.48720E-43
9.81815E-01 2.88189E-43
9.82963E-01 9.39412E-44
9.84074E-01 2.55093E-43
9.85148E-01 2.00824E-43
9.86185E-01 2.27540E-43
9.87185E-01 1.82052E-43
9.88148E-01 1.13717E-43
9.89074E-01 7.85615E-44
9.89962E-01 9.40363E-44
9.90814E-01 1.00000E-45
9.91627E-01 1.00000E-45
9.92404E-01 1.00000E-45
9.93143E-01 1.00000E-45
9.93844E-01 1.00000E-45
9.94508E-01 1.00000E-45
9.95134E-01 1.00000E-45
9.95722E-01 1.00000E-45
9.96273E-01 1.00000E-45
9.96786E-01 1.00000E-45
9.97261E-01 1.00000E-45
9.97698E-01 1.00000E-45
9.98097E-01 1.00000E-45
9.98459E-01 1.00000E-45
9.98782E-01 1.00000E-45
9.99067E-01 1.00000E-45
9.99315E-01 1.00000E-45
9.99524E-01 1.00000E-45
9.99695E-01 1.00000E-45
9.99829E-01 1.00000E-45
9.99924E-01 1.00000E-45
9.99981E-01 1.00000E-45
1.00000E+00 1.00000E-45
