 #
 # Subroutine ELSEPA. Elastic scattering of electrons and positrons
 #                    by neutral atoms and positive ions
 #
 # Projectile: positron
 # Kinetic energy = 3.00000E+08 eV = 1.10248E+07 a.u.
 #
 # WARNING: High-energy factorization with free-atom DF screening.
 #          Absorption, polarization and exchange corrections are
 #          switched off.
 #          Phase shifts are calculated for the bare nucleus.
 #          Scattering amplitudes are not evaluated.
 #
 # Element: He,  Z =   2,  atomic weight = 4.00260E+00 g/mol
 #
 # Nuclear model: Fermi distribution
 #                Average radius = 1.69889E-13 cm
 #                Skin thickness = 5.46000E-14 cm
 #
 # Number of electrons =  2
 #
 # Total elastic cross section = 1.64537E-20 cm**2 = 5.87573E-04 a0**2
 # 1st transport cross section = 1.05064E-28 cm**2 = 3.75190E-12 a0**2
 # 2nd transport cross section = 3.14251E-28 cm**2 = 1.12221E-11 a0**2
 #
 #
 # Differential cross section:                       MU=(1-COS(THETA))/2
 #
 #  THETA        MU          DCS          DCS        Sherman      error
 #  (deg)                 (cm**2/sr)   (a0**2/sr)    function
 #----------------------------------------------------------------------
0.00000E+00 6.03314E-12
7.61557E-13 5.99464E-12
1.18994E-12 5.97314E-12
1.71346E-12 5.94702E-12
2.33225E-12 5.91636E-12
3.04617E-12 5.88126E-12
3.85530E-12 5.84183E-12
4.75964E-12 5.79817E-12
5.75917E-12 5.75044E-12
6.85391E-12 5.69879E-12
8.04379E-12 5.64339E-12
9.32893E-12 5.58440E-12
1.07092E-11 5.52200E-12
1.21847E-11 5.45639E-12
1.37554E-11 5.38774E-12
1.54213E-11 5.31623E-12
1.71823E-11 5.24136E-12
1.90386E-11 5.15710E-12
2.09900E-11 5.07487E-12
2.30367E-11 4.99487E-12
2.51785E-11 4.91727E-12
2.74156E-11 4.83502E-12
2.97478E-11 4.74213E-12
3.21752E-11 4.65282E-12
3.46979E-11 4.56709E-12
3.73157E-11 4.48492E-12
4.00286E-11 4.39319E-12
4.28368E-11 4.29744E-12
4.57402E-11 4.20615E-12
4.87388E-11 4.11918E-12
5.18325E-11 4.03635E-12
5.50215E-11 3.93985E-12
5.83057E-11 3.84582E-12
6.16850E-11 3.75658E-12
6.51595E-11 3.67187E-12
6.87293E-11 3.58880E-12
7.23943E-11 3.49477E-12
7.61544E-11 3.40572E-12
1.18991E-10 2.60865E-12
1.71347E-10 1.95876E-12
2.33223E-10 1.45702E-12
3.04617E-10 1.08124E-12
3.85531E-10 8.04397E-13
4.75965E-10 6.02006E-13
5.75917E-10 4.55802E-13
6.85389E-10 3.49185E-13
8.04380E-10 2.68967E-13
9.32891E-10 2.09369E-13
1.07092E-09 1.65263E-13
1.21847E-09 1.31991E-13
1.37554E-09 1.06277E-13
1.54213E-09 8.62133E-14
1.71823E-09 7.05441E-14
1.90386E-09 5.82722E-14
2.09900E-09 4.85680E-14
2.30367E-09 4.06718E-14
2.51785E-09 3.43233E-14
2.74156E-09 2.91540E-14
2.97478E-09 2.49151E-14
3.21752E-09 2.14028E-14
3.46978E-09 1.84811E-14
3.73156E-09 1.60342E-14
4.00286E-09 1.39795E-14
4.28368E-09 1.22445E-14
4.57402E-09 1.07630E-14
4.87388E-09 9.49649E-15
5.18326E-09 8.41216E-15
5.50215E-09 7.47884E-15
5.83057E-09 6.66571E-15
6.16850E-09 5.95965E-15
6.51596E-09 5.34455E-15
6.87293E-09 4.80672E-15
7.23942E-09 4.33480E-15
7.61544E-09 3.91936E-15
1.18991E-08 1.61120E-15
1.71347E-08 7.78537E-16
2.33223E-08 4.20734E-16
3.04617E-08 2.46817E-16
3.85531E-08 1.54168E-16
4.75965E-08 1.01188E-16
5.75917E-08 6.91321E-17
6.85389E-08 4.88223E-17
8.04380E-08 3.54520E-17
9.32891E-08 2.63608E-17
1.07092E-07 2.00056E-17
1.21847E-07 1.54552E-17
1.37554E-07 1.21280E-17
1.54213E-07 9.64986E-18
1.71823E-07 7.77354E-18
1.90386E-07 6.33186E-18
2.09900E-07 5.20943E-18
2.30367E-07 4.32504E-18
2.51785E-07 3.62061E-18
2.74156E-07 3.05393E-18
2.97478E-07 2.59390E-18
3.21752E-07 2.21731E-18
3.46978E-07 1.90666E-18
3.73156E-07 1.64855E-18
4.00286E-07 1.43268E-18
4.28368E-07 1.25101E-18
4.57402E-07 1.09724E-18
4.87388E-07 9.66392E-19
5.18325E-07 8.54479E-19
5.50215E-07 7.58306E-19
5.83057E-07 6.75291E-19
6.16850E-07 6.03332E-19
6.51596E-07 5.40707E-19
6.87293E-07 4.86000E-19
7.23942E-07 4.38041E-19
7.61543E-07 3.95854E-19
1.18991E-06 1.62146E-19
1.71347E-06 7.81962E-20
2.33223E-06 4.22085E-20
3.04617E-06 2.47418E-20
3.85531E-06 1.54461E-20
4.75964E-06 1.01341E-20
5.75916E-06 6.92171E-21
6.85388E-06 4.88715E-21
8.04378E-06 3.54817E-21
9.32888E-06 2.63792E-21
1.07092E-05 2.00173E-21
1.21846E-05 1.54628E-21
1.37553E-05 1.21330E-21
1.54212E-05 9.65317E-22
1.71822E-05 7.77574E-22
1.90385E-05 6.33334E-22
2.09899E-05 5.21041E-22
2.30365E-05 4.32568E-22
2.51783E-05 3.61845E-22
2.74153E-05 3.05417E-22
2.97475E-05 2.59403E-22
3.21749E-05 2.21737E-22
3.46974E-05 1.90666E-22
3.73152E-05 1.65000E-22
4.00281E-05 1.43261E-22
4.28362E-05 1.25093E-22
4.57395E-05 1.09715E-22
4.87380E-05 9.67051E-23
5.18317E-05 8.53530E-23
5.50205E-05 7.58207E-23
5.83045E-05 6.75193E-23
6.16838E-05 6.03235E-23
6.51582E-05 5.40405E-23
6.87277E-05 4.86309E-23
7.23925E-05 4.37954E-23
7.61524E-05 3.95771E-23
9.21439E-05 2.70309E-23
1.09658E-04 1.90595E-23
1.28695E-04 1.38200E-23
1.49255E-04 1.02702E-23
1.71338E-04 7.79506E-24
1.94942E-04 6.01304E-24
2.20070E-04 4.72020E-24
2.46720E-04 3.75102E-24
2.74892E-04 3.02082E-24
3.04586E-04 2.45912E-24
3.35803E-04 2.02133E-24
3.68542E-04 1.67776E-24
4.02802E-04 1.40295E-24
4.38585E-04 1.18289E-24
4.75889E-04 1.00382E-24
5.14715E-04 8.57414E-25
5.55063E-04 7.36821E-25
5.96931E-04 6.36413E-25
6.40321E-04 5.52742E-25
6.85233E-04 4.82150E-25
7.31665E-04 4.22547E-25
7.79618E-04 3.71821E-25
8.29092E-04 3.28421E-25
8.80086E-04 2.91215E-25
9.32601E-04 2.59039E-25
9.86636E-04 2.31224E-25
1.04219E-03 2.06995E-25
1.09927E-03 1.85849E-25
1.15786E-03 1.67335E-25
1.21797E-03 1.51034E-25
1.27961E-03 1.36685E-25
1.34276E-03 1.23969E-25
1.40743E-03 1.12700E-25
1.47362E-03 1.02673E-25
1.54133E-03 9.37231E-26
1.61056E-03 8.57301E-26
1.68131E-03 7.85543E-26
1.75357E-03 7.21164E-26
1.82735E-03 6.63143E-26
1.90265E-03 6.10801E-26
1.97947E-03 5.63499E-26
2.05780E-03 5.20602E-26
2.13765E-03 4.81719E-26
2.21902E-03 4.46322E-26
2.30190E-03 4.14106E-26
2.38630E-03 3.84710E-26
2.47222E-03 3.57835E-26
2.55965E-03 3.33259E-26
2.64859E-03 3.10709E-26
2.73905E-03 2.90029E-26
2.83103E-03 2.71008E-26
2.92452E-03 2.53502E-26
3.01952E-03 2.37373E-26
3.11604E-03 2.22477E-26
3.21407E-03 2.08727E-26
3.31362E-03 1.95996E-26
3.41468E-03 1.84212E-26
3.51725E-03 1.73285E-26
3.62133E-03 1.63139E-26
3.72692E-03 1.53719E-26
3.83403E-03 1.44950E-26
3.94265E-03 1.36791E-26
4.05278E-03 1.29185E-26
4.16442E-03 1.22091E-26
4.27757E-03 1.15469E-26
4.39223E-03 1.09277E-26
4.50840E-03 1.03491E-26
4.62608E-03 9.80709E-27
4.74527E-03 9.29953E-27
4.86597E-03 8.82363E-27
4.98817E-03 8.37696E-27
5.11188E-03 7.95776E-27
5.23711E-03 7.56359E-27
5.36383E-03 7.19313E-27
5.49207E-03 6.84439E-27
5.62181E-03 6.51600E-27
5.75306E-03 6.20664E-27
5.88581E-03 5.91479E-27
6.02007E-03 5.63958E-27
6.15583E-03 5.37962E-27
6.29310E-03 5.13411E-27
6.43187E-03 4.90204E-27
6.57214E-03 4.68249E-27
6.71392E-03 4.47481E-27
6.85720E-03 4.27807E-27
7.00198E-03 4.09176E-27
7.14827E-03 3.91512E-27
7.29605E-03 3.74759E-27
7.44534E-03 3.58867E-27
7.59612E-03 3.43774E-27
7.97965E-03 3.09267E-27
8.37255E-03 2.78841E-27
8.77480E-03 2.51937E-27
9.18641E-03 2.28085E-27
9.60736E-03 2.06883E-27
1.00376E-02 1.87993E-27
1.04773E-02 1.71122E-27
1.09262E-02 1.56022E-27
1.13844E-02 1.42479E-27
1.18520E-02 1.30306E-27
1.23288E-02 1.19345E-27
1.28150E-02 1.09457E-27
1.33104E-02 1.00520E-27
1.38150E-02 9.24289E-28
1.43290E-02 8.50922E-28
1.48521E-02 7.84288E-28
1.53845E-02 7.23679E-28
1.59262E-02 6.68469E-28
1.64770E-02 6.18107E-28
1.70371E-02 5.72104E-28
1.76063E-02 5.30030E-28
1.81848E-02 4.91500E-28
1.87724E-02 4.56173E-28
1.93692E-02 4.23745E-28
1.99751E-02 3.93945E-28
2.05901E-02 3.66530E-28
2.12143E-02 3.41282E-28
2.18476E-02 3.18007E-28
2.24900E-02 2.96530E-28
2.31415E-02 2.76693E-28
2.38021E-02 2.58353E-28
2.44717E-02 2.41383E-28
2.51504E-02 2.25668E-28
2.58382E-02 2.11101E-28
2.65349E-02 1.97588E-28
2.72407E-02 1.85044E-28
2.79555E-02 1.73390E-28
2.86793E-02 1.62555E-28
2.94120E-02 1.52474E-28
3.01537E-02 1.43088E-28
3.09043E-02 1.34344E-28
3.16639E-02 1.26192E-28
3.24324E-02 1.18587E-28
3.32098E-02 1.11489E-28
3.39961E-02 1.04860E-28
3.47912E-02 9.86645E-29
3.55952E-02 9.28719E-29
3.64081E-02 8.74527E-29
3.72297E-02 8.23802E-29
3.80602E-02 7.76298E-29
3.88995E-02 7.31788E-29
3.97476E-02 6.90063E-29
4.06044E-02 6.50931E-29
4.14700E-02 6.14213E-29
4.23443E-02 5.79746E-29
4.32273E-02 5.47377E-29
4.41190E-02 5.16966E-29
4.50194E-02 4.88383E-29
4.59284E-02 4.61507E-29
4.68461E-02 4.36226E-29
4.87074E-02 3.90044E-29
5.06030E-02 3.49093E-29
5.25328E-02 3.12730E-29
5.44967E-02 2.80400E-29
5.64946E-02 2.51619E-29
5.85262E-02 2.25969E-29
6.05914E-02 2.03083E-29
6.26901E-02 1.82642E-29
6.48222E-02 1.64367E-29
6.69873E-02 1.48012E-29
6.91854E-02 1.33363E-29
7.14163E-02 1.20231E-29
7.36799E-02 1.08448E-29
7.59760E-02 9.78689E-30
7.83043E-02 8.83629E-30
8.06647E-02 7.98155E-30
8.30571E-02 7.21248E-30
8.54812E-02 6.52008E-30
8.79369E-02 5.89633E-30
9.04240E-02 5.33412E-30
9.29422E-02 4.82709E-30
9.54915E-02 4.36960E-30
9.80716E-02 3.95662E-30
1.00682E-01 3.58365E-30
1.03323E-01 3.24666E-30
1.05995E-01 2.94205E-30
1.08696E-01 2.66662E-30
1.11427E-01 2.41747E-30
1.14188E-01 2.19203E-30
1.16978E-01 1.98796E-30
1.19797E-01 1.80319E-30
1.22645E-01 1.63584E-30
1.25522E-01 1.48423E-30
1.28428E-01 1.34685E-30
1.31361E-01 1.22232E-30
1.34323E-01 1.10943E-30
1.37313E-01 1.00705E-30
1.40330E-01 9.14201E-31
1.43375E-01 8.29972E-31
1.46447E-01 7.53551E-31
1.49545E-01 6.84203E-31
1.52671E-01 6.21265E-31
1.55823E-01 5.64136E-31
1.59001E-01 5.12274E-31
1.62205E-01 4.65189E-31
1.65435E-01 4.22434E-31
1.68690E-01 3.83610E-31
1.71970E-01 3.48351E-31
1.75276E-01 3.16328E-31
1.78606E-01 2.87241E-31
1.81961E-01 2.60821E-31
1.85340E-01 2.36822E-31
1.88743E-01 2.15020E-31
1.92169E-01 1.95215E-31
1.95619E-01 1.77223E-31
1.99092E-01 1.60878E-31
2.02589E-01 1.46029E-31
2.06107E-01 1.32539E-31
2.09649E-01 1.20284E-31
2.13212E-01 1.09151E-31
2.16797E-01 9.90383E-32
2.20404E-01 8.98517E-32
2.24032E-01 8.15072E-32
2.27680E-01 7.39280E-32
2.31350E-01 6.70441E-32
2.35040E-01 6.07924E-32
2.38751E-01 5.51150E-32
2.42481E-01 4.99597E-32
2.46231E-01 4.52785E-32
2.50000E-01 4.10290E-32
2.53788E-01 3.71710E-32
2.57595E-01 3.36693E-32
2.61421E-01 3.04910E-32
2.65264E-01 2.76069E-32
2.69126E-01 2.49899E-32
2.73005E-01 2.26156E-32
2.76901E-01 2.04620E-32
2.80814E-01 1.85087E-32
2.84744E-01 1.67373E-32
2.88691E-01 1.51314E-32
2.92653E-01 1.36755E-32
2.96632E-01 1.23561E-32
3.00625E-01 1.11604E-32
3.04634E-01 1.00772E-32
3.08658E-01 9.09606E-33
3.12697E-01 8.20762E-33
3.16749E-01 7.40320E-33
3.20816E-01 6.67510E-33
3.24896E-01 6.01624E-33
3.28990E-01 5.42014E-33
3.33097E-01 4.88109E-33
3.37216E-01 4.39366E-33
3.41348E-01 3.95303E-33
3.45492E-01 3.55495E-33
3.49647E-01 3.19529E-33
3.53814E-01 2.87056E-33
3.57992E-01 2.57743E-33
3.62181E-01 2.31291E-33
3.66381E-01 2.07430E-33
3.70590E-01 1.85917E-33
3.74810E-01 1.66526E-33
3.79039E-01 1.49060E-33
3.83277E-01 1.33329E-33
3.87524E-01 1.19172E-33
3.91780E-01 1.06435E-33
3.96044E-01 9.49849E-34
4.00316E-01 8.46929E-34
4.04596E-01 7.54491E-34
4.08882E-01 6.71511E-34
4.13176E-01 5.97099E-34
4.17476E-01 5.30366E-34
4.21783E-01 4.70582E-34
4.26095E-01 4.17063E-34
4.30413E-01 3.69172E-34
4.34737E-01 3.26377E-34
4.39065E-01 2.88153E-34
4.43398E-01 2.54045E-34
4.47736E-01 2.23641E-34
4.52077E-01 1.96549E-34
4.56422E-01 1.72459E-34
4.60770E-01 1.51036E-34
4.65122E-01 1.32018E-34
4.69476E-01 1.15156E-34
4.73832E-01 1.00224E-34
4.78190E-01 8.70216E-35
4.82550E-01 7.53651E-35
4.86912E-01 6.50930E-35
4.91274E-01 5.60483E-35
4.95637E-01 4.81131E-35
5.00000E-01 4.11473E-35
5.04363E-01 3.50542E-35
5.08726E-01 2.97405E-35
5.13088E-01 2.51168E-35
5.17450E-01 2.11000E-35
5.21810E-01 1.76283E-35
5.26168E-01 1.46339E-35
5.30524E-01 1.20620E-35
5.34878E-01 9.86216E-36
5.39230E-01 7.99125E-36
5.43578E-01 6.40686E-36
5.47923E-01 5.07565E-36
5.52264E-01 3.96399E-36
5.56602E-01 3.04642E-36
5.60935E-01 2.29562E-36
5.65263E-01 1.68952E-36
5.69587E-01 1.20866E-36
5.73905E-01 8.35913E-37
5.78217E-01 5.54862E-37
5.82524E-01 3.51925E-37
5.86824E-01 2.15817E-37
5.91118E-01 1.35545E-37
5.95404E-01 1.01838E-37
5.99684E-01 1.06664E-37
6.03956E-01 1.42928E-37
6.08220E-01 2.04200E-37
6.12476E-01 2.85745E-37
6.16723E-01 3.82300E-37
6.20961E-01 4.89790E-37
6.25190E-01 6.05832E-37
6.29410E-01 7.26641E-37
6.33619E-01 8.49706E-37
6.37819E-01 9.73028E-37
6.42008E-01 1.09544E-36
6.46186E-01 1.21445E-36
6.50353E-01 1.32960E-36
6.54508E-01 1.44023E-36
6.58652E-01 1.54526E-36
6.62784E-01 1.64426E-36
6.66903E-01 1.73621E-36
6.71010E-01 1.82116E-36
6.75104E-01 1.89985E-36
6.79184E-01 1.97090E-36
6.83251E-01 2.03518E-36
6.87303E-01 2.09191E-36
6.91342E-01 2.14146E-36
6.95366E-01 2.18543E-36
6.99375E-01 2.22207E-36
7.03368E-01 2.25311E-36
7.07347E-01 2.27710E-36
7.11309E-01 2.29561E-36
7.15256E-01 2.30803E-36
7.19186E-01 2.31754E-36
7.23099E-01 2.31973E-36
7.26995E-01 2.31879E-36
7.30874E-01 2.31176E-36
7.34736E-01 2.30245E-36
7.38579E-01 2.28828E-36
7.42405E-01 2.27222E-36
7.46212E-01 2.25075E-36
7.50000E-01 2.22839E-36
7.53769E-01 2.20281E-36
7.57519E-01 2.17473E-36
7.61249E-01 2.14416E-36
7.64960E-01 2.11149E-36
7.68650E-01 2.07845E-36
7.72320E-01 2.04312E-36
7.75968E-01 2.00612E-36
7.79596E-01 1.96817E-36
7.83203E-01 1.92976E-36
7.86788E-01 1.89013E-36
7.90351E-01 1.84980E-36
7.93893E-01 1.80869E-36
7.97411E-01 1.76826E-36
8.00908E-01 1.72673E-36
8.04381E-01 1.68458E-36
8.07831E-01 1.64310E-36
8.11257E-01 1.60098E-36
8.14660E-01 1.56077E-36
8.18039E-01 1.51862E-36
8.21394E-01 1.47677E-36
8.24724E-01 1.43571E-36
8.28030E-01 1.39648E-36
8.31310E-01 1.35614E-36
8.34565E-01 1.31623E-36
8.37795E-01 1.27733E-36
8.40999E-01 1.23894E-36
8.44177E-01 1.20073E-36
8.47329E-01 1.16426E-36
8.50455E-01 1.12729E-36
8.53553E-01 1.09096E-36
8.56625E-01 1.05621E-36
8.59670E-01 1.02154E-36
8.62687E-01 9.88117E-37
8.65677E-01 9.54596E-37
8.68639E-01 9.23009E-37
8.71572E-01 8.92364E-37
8.74478E-01 8.60923E-37
8.77355E-01 8.30780E-37
8.80203E-01 8.01042E-37
8.83022E-01 7.72362E-37
8.85812E-01 7.45036E-37
8.88573E-01 7.17937E-37
8.91304E-01 6.92105E-37
8.94005E-01 6.66280E-37
8.96677E-01 6.40737E-37
8.99318E-01 6.16946E-37
9.01928E-01 5.93724E-37
9.04508E-01 5.70686E-37
9.07058E-01 5.49088E-37
9.09576E-01 5.27277E-37
9.12063E-01 5.06142E-37
9.14519E-01 4.85901E-37
9.16943E-01 4.66515E-37
9.19335E-01 4.47751E-37
9.21696E-01 4.29012E-37
9.24024E-01 4.11640E-37
9.26320E-01 3.94594E-37
9.28584E-01 3.77376E-37
9.30815E-01 3.61554E-37
9.33013E-01 3.46057E-37
9.35178E-01 3.30989E-37
9.37310E-01 3.16839E-37
9.39409E-01 3.02492E-37
9.41474E-01 2.89082E-37
9.43505E-01 2.75441E-37
9.45503E-01 2.62902E-37
9.47467E-01 2.50655E-37
9.49397E-01 2.38927E-37
9.51293E-01 2.27713E-37
9.53154E-01 2.16145E-37
9.54981E-01 2.05763E-37
9.56773E-01 1.95384E-37
9.58530E-01 1.85416E-37
9.60252E-01 1.76365E-37
9.61940E-01 1.67354E-37
9.63592E-01 1.58425E-37
9.65209E-01 1.50214E-37
9.66790E-01 1.41754E-37
9.68336E-01 1.34169E-37
9.69846E-01 1.26723E-37
9.71321E-01 1.19491E-37
9.72759E-01 1.12466E-37
9.74162E-01 1.05713E-37
9.75528E-01 9.93764E-38
9.76858E-01 9.33330E-38
9.78152E-01 8.73325E-38
9.79410E-01 8.15202E-38
9.80631E-01 7.62870E-38
9.81815E-01 7.08689E-38
9.82963E-01 6.62145E-38
9.84074E-01 6.12042E-38
9.85148E-01 5.67431E-38
9.86185E-01 5.24169E-38
9.87185E-01 4.84227E-38
9.88148E-01 4.45244E-38
9.89074E-01 4.08620E-38
9.89962E-01 3.73545E-38
9.90814E-01 3.39391E-38
9.91627E-01 3.09547E-38
9.92404E-01 2.77407E-38
9.93143E-01 2.48980E-38
9.93844E-01 2.22097E-38
9.94508E-01 1.99504E-38
9.95134E-01 1.75365E-38
9.95722E-01 1.54406E-38
9.96273E-01 1.33687E-38
9.96786E-01 1.15418E-38
9.97261E-01 9.80687E-39
9.97698E-01 8.22418E-39
9.98097E-01 6.72414E-39
9.98459E-01 5.51347E-39
9.98782E-01 4.27371E-39
9.99067E-01 3.28868E-39
9.99315E-01 2.32607E-39
9.99524E-01 1.69949E-39
9.99695E-01 1.11892E-39
9.99829E-01 5.92231E-40
9.99924E-01 3.36090E-40
9.99981E-01 1.35521E-40
1.00000E+00 9.48240E-42
