 #
 # Subroutine ELSEPA. Elastic scattering of electrons and positrons
 #                    by neutral atoms and positive ions
 #
 # Projectile: positron
 # Kinetic energy = 1.00000E+08 eV = 3.67493E+06 a.u.
 #
 # WARNING: High-energy factorization with free-atom DF screening.
 #          Absorption, polarization and exchange corrections are
 #          switched off.
 #          Phase shifts are calculated for the bare nucleus.
 #          Scattering amplitudes are not evaluated.
 #
 # Element: He,  Z =   2,  atomic weight = 4.00260E+00 g/mol
 #
 # Nuclear model: Fermi distribution
 #                Average radius = 1.69889E-13 cm
 #                Skin thickness = 5.46000E-14 cm
 #
 # Number of electrons =  2
 #
 # Total elastic cross section = 1.64773E-20 cm**2 = 5.88417E-04 a0**2
 # 1st transport cross section = 9.15885E-28 cm**2 = 3.27068E-11 a0**2
 # 2nd transport cross section = 2.70362E-27 cm**2 = 9.65481E-11 a0**2
 #
 #
 # Differential cross section:                       MU=(1-COS(THETA))/2
 #
 #  THETA        MU          DCS          DCS        Sherman      error
 #  (deg)                 (cm**2/sr)   (a0**2/sr)    function
 #----------------------------------------------------------------------
0.00000E+00 6.74917E-13
7.61557E-13 6.74432E-13
1.18994E-12 6.74160E-13
1.71346E-12 6.73828E-13
2.33225E-12 6.73436E-13
3.04617E-12 6.72983E-13
3.85530E-12 6.72472E-13
4.75964E-12 6.71901E-13
5.75917E-12 6.71270E-13
6.85391E-12 6.70580E-13
8.04379E-12 6.69832E-13
9.32893E-12 6.69025E-13
1.07092E-11 6.68159E-13
1.21847E-11 6.67236E-13
1.37554E-11 6.66257E-13
1.54213E-11 6.65218E-13
1.71823E-11 6.64122E-13
1.90386E-11 6.62972E-13
2.09900E-11 6.61765E-13
2.30367E-11 6.60501E-13
2.51785E-11 6.59183E-13
2.74156E-11 6.57813E-13
2.97478E-11 6.56383E-13
3.21752E-11 6.54902E-13
3.46979E-11 6.53371E-13
3.73157E-11 6.51784E-13
4.00286E-11 6.50144E-13
4.28368E-11 6.48455E-13
4.57402E-11 6.46717E-13
4.87388E-11 6.44922E-13
5.18325E-11 6.43082E-13
5.50215E-11 6.41198E-13
5.83057E-11 6.39256E-13
6.16850E-11 6.37268E-13
6.51595E-11 6.35239E-13
6.87293E-11 6.33161E-13
7.23943E-11 6.31033E-13
7.61544E-11 6.28865E-13
1.18991E-10 6.04869E-13
1.71347E-10 5.76285E-13
2.33223E-10 5.46587E-13
3.04617E-10 5.13205E-13
3.85531E-10 4.79685E-13
4.75965E-10 4.46808E-13
5.75917E-10 4.12705E-13
6.85389E-10 3.79682E-13
8.04380E-10 3.48693E-13
9.32891E-10 3.19031E-13
1.07092E-09 2.90465E-13
1.21847E-09 2.64379E-13
1.37554E-09 2.40578E-13
1.54213E-09 2.17852E-13
1.71823E-09 1.97348E-13
1.90386E-09 1.78880E-13
2.09900E-09 1.61879E-13
2.30367E-09 1.46376E-13
2.51785E-09 1.32504E-13
2.74156E-09 1.20015E-13
2.97478E-09 1.08545E-13
3.21752E-09 9.83145E-14
3.46978E-09 8.91653E-14
3.73156E-09 8.08478E-14
4.00286E-09 7.33824E-14
4.28368E-09 6.66782E-14
4.57402E-09 6.05732E-14
4.87388E-09 5.52424E-14
5.18326E-09 5.04766E-14
5.50215E-09 4.61784E-14
5.83057E-09 4.22264E-14
6.16850E-09 3.86435E-14
6.51596E-09 3.53977E-14
6.87293E-09 3.24378E-14
7.23942E-09 2.97505E-14
7.61544E-09 2.73264E-14
1.18991E-08 1.26139E-14
1.71347E-08 6.43724E-15
2.33223E-08 3.58659E-15
3.04617E-08 2.14173E-15
3.85531E-08 1.35176E-15
4.75965E-08 8.92540E-16
5.75917E-08 6.11504E-16
6.85389E-08 4.32583E-16
8.04380E-08 3.14530E-16
9.32891E-08 2.34117E-16
1.07092E-07 1.77824E-16
1.21847E-07 1.37472E-16
1.37554E-07 1.07938E-16
1.54213E-07 8.59242E-17
1.71823E-07 6.92451E-17
1.90386E-07 5.64225E-17
2.09900E-07 4.64344E-17
2.30367E-07 3.85614E-17
2.51785E-07 3.22880E-17
2.74156E-07 2.72398E-17
2.97478E-07 2.31406E-17
3.21752E-07 1.97841E-17
3.46978E-07 1.70146E-17
3.73156E-07 1.47131E-17
4.00286E-07 1.27879E-17
4.28368E-07 1.11674E-17
4.57402E-07 9.79571E-18
4.87388E-07 8.62825E-18
5.18325E-07 7.62962E-18
5.50215E-07 6.77136E-18
5.83057E-07 6.03045E-18
6.16850E-07 5.38815E-18
6.51596E-07 4.82912E-18
6.87293E-07 4.34074E-18
7.23942E-07 3.91256E-18
7.61543E-07 3.53590E-18
1.18991E-06 1.44876E-18
1.71347E-06 6.98786E-19
2.33223E-06 3.77224E-19
3.04617E-06 2.21135E-19
3.85531E-06 1.38059E-19
4.75964E-06 9.05825E-20
5.75916E-06 6.18701E-20
6.85388E-06 4.36848E-20
8.04378E-06 3.17165E-20
9.32888E-06 2.35802E-20
1.07092E-05 1.78935E-20
1.21846E-05 1.38223E-20
1.37553E-05 1.08458E-20
1.54212E-05 8.62911E-21
1.71822E-05 6.95088E-21
1.90385E-05 5.66151E-21
2.09899E-05 4.65771E-21
2.30365E-05 3.86684E-21
2.51783E-05 3.23464E-21
2.74153E-05 2.73022E-21
2.97475E-05 2.31889E-21
3.21749E-05 1.98218E-21
3.46974E-05 1.70443E-21
3.73152E-05 1.47499E-21
4.00281E-05 1.28066E-21
4.28362E-05 1.11825E-21
4.57395E-05 9.80787E-22
4.87380E-05 8.64483E-22
5.18317E-05 7.63007E-22
5.50205E-05 6.77792E-22
5.83045E-05 6.03583E-22
6.16838E-05 5.39257E-22
6.51582E-05 4.83092E-22
6.87277E-05 4.34731E-22
7.23925E-05 3.91506E-22
7.61524E-05 3.53797E-22
9.21439E-05 2.41641E-22
1.09658E-04 1.70677E-22
1.28695E-04 1.23795E-22
1.49255E-04 9.20270E-23
1.71338E-04 6.98726E-23
1.94942E-04 5.39195E-23
2.20070E-04 4.23432E-23
2.46720E-04 3.36633E-23
2.74892E-04 2.71223E-23
3.04586E-04 2.20895E-23
3.35803E-04 1.81659E-23
3.68542E-04 1.50860E-23
4.02802E-04 1.26218E-23
4.38585E-04 1.06481E-23
4.75889E-04 9.04146E-24
5.14715E-04 7.72755E-24
5.55063E-04 6.64493E-24
5.96931E-04 5.74323E-24
6.40321E-04 4.99157E-24
6.85233E-04 4.35719E-24
7.31665E-04 3.82137E-24
7.79618E-04 3.36518E-24
8.29092E-04 2.97472E-24
8.80086E-04 2.63985E-24
9.32601E-04 2.35013E-24
9.86636E-04 2.09958E-24
1.04219E-03 1.88122E-24
1.09927E-03 1.69058E-24
1.15786E-03 1.52358E-24
1.21797E-03 1.37647E-24
1.27961E-03 1.24691E-24
1.34276E-03 1.13204E-24
1.40743E-03 1.03020E-24
1.47362E-03 9.39517E-25
1.54133E-03 8.58543E-25
1.61056E-03 7.86185E-25
1.68131E-03 7.21188E-25
1.75357E-03 6.62841E-25
1.82735E-03 6.10225E-25
1.90265E-03 5.62730E-25
1.97947E-03 5.19783E-25
2.05780E-03 4.80811E-25
2.13765E-03 4.45461E-25
2.21902E-03 4.13262E-25
2.30190E-03 3.83936E-25
2.38630E-03 3.57158E-25
2.47222E-03 3.32659E-25
2.55965E-03 3.10242E-25
2.64859E-03 2.89657E-25
2.73905E-03 2.70765E-25
2.83103E-03 2.53376E-25
2.92452E-03 2.37360E-25
3.01952E-03 2.22593E-25
3.11604E-03 2.08943E-25
3.21407E-03 1.96333E-25
3.31362E-03 1.84649E-25
3.41468E-03 1.73825E-25
3.51725E-03 1.63780E-25
3.62133E-03 1.54444E-25
3.72692E-03 1.45769E-25
3.83403E-03 1.37687E-25
3.94265E-03 1.30161E-25
4.05278E-03 1.23137E-25
4.16442E-03 1.16580E-25
4.27757E-03 1.10455E-25
4.39223E-03 1.04722E-25
4.50840E-03 9.93588E-26
4.62608E-03 9.43305E-26
4.74527E-03 8.96170E-26
4.86597E-03 8.51932E-26
4.98817E-03 8.10368E-26
5.11188E-03 7.71321E-26
5.23711E-03 7.34567E-26
5.36383E-03 6.99987E-26
5.49207E-03 6.67400E-26
5.62181E-03 6.36681E-26
5.75306E-03 6.07711E-26
5.88581E-03 5.80350E-26
6.02007E-03 5.54520E-26
6.15583E-03 5.30094E-26
6.29310E-03 5.06998E-26
6.43187E-03 4.85142E-26
6.57214E-03 4.64440E-26
6.71392E-03 4.44834E-26
6.85720E-03 4.26238E-26
7.00198E-03 4.08607E-26
7.14827E-03 3.91870E-26
7.29605E-03 3.75977E-26
7.44534E-03 3.60881E-26
7.59612E-03 3.46525E-26
7.97965E-03 3.13631E-26
8.37255E-03 2.84531E-26
8.77480E-03 2.58711E-26
9.18641E-03 2.35738E-26
9.60736E-03 2.15245E-26
1.00376E-02 1.96919E-26
1.04773E-02 1.80489E-26
1.09262E-02 1.65727E-26
1.13844E-02 1.52434E-26
1.18520E-02 1.40437E-26
1.23288E-02 1.29589E-26
1.28150E-02 1.19761E-26
1.33104E-02 1.10839E-26
1.38150E-02 1.02726E-26
1.43290E-02 9.53359E-27
1.48521E-02 8.85924E-27
1.53845E-02 8.24293E-27
1.59262E-02 7.67877E-27
1.64770E-02 7.16159E-27
1.70371E-02 6.68679E-27
1.76063E-02 6.25027E-27
1.81848E-02 5.84841E-27
1.87724E-02 5.47797E-27
1.93692E-02 5.13606E-27
1.99751E-02 4.82010E-27
2.05901E-02 4.52776E-27
2.12143E-02 4.25698E-27
2.18476E-02 4.00587E-27
2.24900E-02 3.77276E-27
2.31415E-02 3.55613E-27
2.38021E-02 3.35460E-27
2.44717E-02 3.16694E-27
2.51504E-02 2.99202E-27
2.58382E-02 2.82883E-27
2.65349E-02 2.67644E-27
2.72407E-02 2.53401E-27
2.79555E-02 2.40076E-27
2.86793E-02 2.27602E-27
2.94120E-02 2.15912E-27
3.01537E-02 2.04951E-27
3.09043E-02 1.94663E-27
3.16639E-02 1.85001E-27
3.24324E-02 1.75919E-27
3.32098E-02 1.67377E-27
3.39961E-02 1.59337E-27
3.47912E-02 1.51764E-27
3.55952E-02 1.44626E-27
3.64081E-02 1.37893E-27
3.72297E-02 1.31540E-27
3.80602E-02 1.25540E-27
3.88995E-02 1.19870E-27
3.97476E-02 1.14510E-27
4.06044E-02 1.09438E-27
4.14700E-02 1.04638E-27
4.23443E-02 1.00091E-27
4.32273E-02 9.57825E-28
4.41190E-02 9.16973E-28
4.50194E-02 8.78219E-28
4.59284E-02 8.41436E-28
4.68461E-02 8.06507E-28
4.87074E-02 7.41777E-28
5.06030E-02 6.83238E-28
5.25328E-02 6.30199E-28
5.44967E-02 5.82060E-28
5.64946E-02 5.38294E-28
5.85262E-02 4.98437E-28
6.05914E-02 4.62085E-28
6.26901E-02 4.28878E-28
6.48222E-02 3.98499E-28
6.69873E-02 3.70670E-28
6.91854E-02 3.45140E-28
7.14163E-02 3.21689E-28
7.36799E-02 3.00121E-28
7.59760E-02 2.80259E-28
7.83043E-02 2.61948E-28
8.06647E-02 2.45046E-28
8.30571E-02 2.29428E-28
8.54812E-02 2.14980E-28
8.79369E-02 2.01602E-28
9.04240E-02 1.89200E-28
9.29422E-02 1.77694E-28
9.54915E-02 1.67007E-28
9.80716E-02 1.57072E-28
1.00682E-01 1.47828E-28
1.03323E-01 1.39220E-28
1.05995E-01 1.31197E-28
1.08696E-01 1.23712E-28
1.11427E-01 1.16725E-28
1.14188E-01 1.10197E-28
1.16978E-01 1.04093E-28
1.19797E-01 9.83820E-29
1.22645E-01 9.30342E-29
1.25522E-01 8.80232E-29
1.28428E-01 8.33246E-29
1.31361E-01 7.89160E-29
1.34323E-01 7.47768E-29
1.37313E-01 7.08881E-29
1.40330E-01 6.72325E-29
1.43375E-01 6.37939E-29
1.46447E-01 6.05577E-29
1.49545E-01 5.75101E-29
1.52671E-01 5.46385E-29
1.55823E-01 5.19314E-29
1.59001E-01 4.93779E-29
1.62205E-01 4.69681E-29
1.65435E-01 4.46928E-29
1.68690E-01 4.25433E-29
1.71970E-01 4.05118E-29
1.75276E-01 3.85908E-29
1.78606E-01 3.67736E-29
1.81961E-01 3.50537E-29
1.85340E-01 3.34251E-29
1.88743E-01 3.18825E-29
1.92169E-01 3.04206E-29
1.95619E-01 2.90346E-29
1.99092E-01 2.77201E-29
2.02589E-01 2.64729E-29
2.06107E-01 2.52890E-29
2.09649E-01 2.41649E-29
2.13212E-01 2.30971E-29
2.16797E-01 2.20825E-29
2.20404E-01 2.11180E-29
2.24032E-01 2.02009E-29
2.27680E-01 1.93285E-29
2.31350E-01 1.84983E-29
2.35040E-01 1.77082E-29
2.38751E-01 1.69558E-29
2.42481E-01 1.62392E-29
2.46231E-01 1.55564E-29
2.50000E-01 1.49057E-29
2.53788E-01 1.42854E-29
2.57595E-01 1.36938E-29
2.61421E-01 1.31296E-29
2.65264E-01 1.25912E-29
2.69126E-01 1.20773E-29
2.73005E-01 1.15867E-29
2.76901E-01 1.11183E-29
2.80814E-01 1.06708E-29
2.84744E-01 1.02433E-29
2.88691E-01 9.83480E-30
2.92653E-01 9.44428E-30
2.96632E-01 9.07089E-30
3.00625E-01 8.71380E-30
3.04634E-01 8.37223E-30
3.08658E-01 8.04541E-30
3.12697E-01 7.73264E-30
3.16749E-01 7.43326E-30
3.20816E-01 7.14661E-30
3.24896E-01 6.87212E-30
3.28990E-01 6.60919E-30
3.33097E-01 6.35731E-30
3.37216E-01 6.11594E-30
3.41348E-01 5.88460E-30
3.45492E-01 5.66285E-30
3.49647E-01 5.45023E-30
3.53814E-01 5.24634E-30
3.57992E-01 5.05077E-30
3.62181E-01 4.86316E-30
3.66381E-01 4.68314E-30
3.70590E-01 4.51039E-30
3.74810E-01 4.34457E-30
3.79039E-01 4.18538E-30
3.83277E-01 4.03253E-30
3.87524E-01 3.88574E-30
3.91780E-01 3.74475E-30
3.96044E-01 3.60931E-30
4.00316E-01 3.47918E-30
4.04596E-01 3.35413E-30
4.08882E-01 3.23394E-30
4.13176E-01 3.11841E-30
4.17476E-01 3.00734E-30
4.21783E-01 2.90054E-30
4.26095E-01 2.79783E-30
4.30413E-01 2.69904E-30
4.34737E-01 2.60401E-30
4.39065E-01 2.51258E-30
4.43398E-01 2.42461E-30
4.47736E-01 2.33994E-30
4.52077E-01 2.25845E-30
4.56422E-01 2.18002E-30
4.60770E-01 2.10450E-30
4.65122E-01 2.03178E-30
4.69476E-01 1.96175E-30
4.73832E-01 1.89431E-30
4.78190E-01 1.82935E-30
4.82550E-01 1.76677E-30
4.86912E-01 1.70648E-30
4.91274E-01 1.64838E-30
4.95637E-01 1.59239E-30
5.00000E-01 1.53842E-30
5.04363E-01 1.48641E-30
5.08726E-01 1.43626E-30
5.13088E-01 1.38791E-30
5.17450E-01 1.34129E-30
5.21810E-01 1.29634E-30
5.26168E-01 1.25298E-30
5.30524E-01 1.21116E-30
5.34878E-01 1.17081E-30
5.39230E-01 1.13189E-30
5.43578E-01 1.09433E-30
5.47923E-01 1.05810E-30
5.52264E-01 1.02312E-30
5.56602E-01 9.89368E-31
5.60935E-01 9.56787E-31
5.65263E-01 9.25336E-31
5.69587E-01 8.94971E-31
5.73905E-01 8.65655E-31
5.78217E-01 8.37346E-31
5.82524E-01 8.10006E-31
5.86824E-01 7.83603E-31
5.91118E-01 7.58100E-31
5.95404E-01 7.33468E-31
5.99684E-01 7.09667E-31
6.03956E-01 6.86674E-31
6.08220E-01 6.64459E-31
6.12476E-01 6.42990E-31
6.16723E-01 6.22244E-31
6.20961E-01 6.02195E-31
6.25190E-01 5.82814E-31
6.29410E-01 5.64080E-31
6.33619E-01 5.45971E-31
6.37819E-01 5.28464E-31
6.42008E-01 5.11535E-31
6.46186E-01 4.95168E-31
6.50353E-01 4.79340E-31
6.54508E-01 4.64032E-31
6.58652E-01 4.49227E-31
6.62784E-01 4.34907E-31
6.66903E-01 4.21056E-31
6.71010E-01 4.07656E-31
6.75104E-01 3.94692E-31
6.79184E-01 3.82149E-31
6.83251E-01 3.70013E-31
6.87303E-01 3.58269E-31
6.91342E-01 3.46905E-31
6.95366E-01 3.35905E-31
6.99375E-01 3.25260E-31
7.03368E-01 3.14955E-31
7.07347E-01 3.04981E-31
7.11309E-01 2.95325E-31
7.15256E-01 2.85978E-31
7.19186E-01 2.76926E-31
7.23099E-01 2.68163E-31
7.26995E-01 2.59677E-31
7.30874E-01 2.51461E-31
7.34736E-01 2.43503E-31
7.38579E-01 2.35796E-31
7.42405E-01 2.28331E-31
7.46212E-01 2.21102E-31
7.50000E-01 2.14097E-31
7.53769E-01 2.07312E-31
7.57519E-01 2.00739E-31
7.61249E-01 1.94372E-31
7.64960E-01 1.88202E-31
7.68650E-01 1.82223E-31
7.72320E-01 1.76430E-31
7.75968E-01 1.70816E-31
7.79596E-01 1.65376E-31
7.83203E-01 1.60104E-31
7.86788E-01 1.54993E-31
7.90351E-01 1.50041E-31
7.93893E-01 1.45240E-31
7.97411E-01 1.40586E-31
8.00908E-01 1.36074E-31
8.04381E-01 1.31701E-31
8.07831E-01 1.27461E-31
8.11257E-01 1.23351E-31
8.14660E-01 1.19364E-31
8.18039E-01 1.15500E-31
8.21394E-01 1.11754E-31
8.24724E-01 1.08120E-31
8.28030E-01 1.04596E-31
8.31310E-01 1.01179E-31
8.34565E-01 9.78654E-32
8.37795E-01 9.46514E-32
8.40999E-01 9.15344E-32
8.44177E-01 8.85114E-32
8.47329E-01 8.55785E-32
8.50455E-01 8.27346E-32
8.53553E-01 7.99761E-32
8.56625E-01 7.72996E-32
8.59670E-01 7.47037E-32
8.62687E-01 7.21852E-32
8.65677E-01 6.97427E-32
8.68639E-01 6.73722E-32
8.71572E-01 6.50724E-32
8.74478E-01 6.28425E-32
8.77355E-01 6.06788E-32
8.80203E-01 5.85798E-32
8.83022E-01 5.65433E-32
8.85812E-01 5.45670E-32
8.88573E-01 5.26500E-32
8.91304E-01 5.07897E-32
8.94005E-01 4.89855E-32
8.96677E-01 4.72354E-32
8.99318E-01 4.55367E-32
9.01928E-01 4.38888E-32
9.04508E-01 4.22905E-32
9.07058E-01 4.07393E-32
9.09576E-01 3.92351E-32
9.12063E-01 3.77760E-32
9.14519E-01 3.63603E-32
9.16943E-01 3.49869E-32
9.19335E-01 3.36547E-32
9.21696E-01 3.23631E-32
9.24024E-01 3.11096E-32
9.26320E-01 2.98942E-32
9.28584E-01 2.87161E-32
9.30815E-01 2.75730E-32
9.33013E-01 2.64648E-32
9.35178E-01 2.53904E-32
9.37310E-01 2.43484E-32
9.39409E-01 2.33389E-32
9.41474E-01 2.23601E-32
9.43505E-01 2.14120E-32
9.45503E-01 2.04928E-32
9.47467E-01 1.96022E-32
9.49397E-01 1.87394E-32
9.51293E-01 1.79036E-32
9.53154E-01 1.70947E-32
9.54981E-01 1.63109E-32
9.56773E-01 1.55525E-32
9.58530E-01 1.48184E-32
9.60252E-01 1.41075E-32
9.61940E-01 1.34201E-32
9.63592E-01 1.27555E-32
9.65209E-01 1.21125E-32
9.66790E-01 1.14916E-32
9.68336E-01 1.08911E-32
9.69846E-01 1.03112E-32
9.71321E-01 9.75137E-33
9.72759E-01 9.21113E-33
9.74162E-01 8.68994E-33
9.75528E-01 8.18728E-33
9.76858E-01 7.70282E-33
9.78152E-01 7.23635E-33
9.79410E-01 6.78738E-33
9.80631E-01 6.35518E-33
9.81815E-01 5.94007E-33
9.82963E-01 5.54086E-33
9.84074E-01 5.15820E-33
9.85148E-01 4.79099E-33
9.86185E-01 4.43928E-33
9.87185E-01 4.10262E-33
9.88148E-01 3.78092E-33
9.89074E-01 3.47380E-33
9.89962E-01 3.18107E-33
9.90814E-01 2.90257E-33
9.91627E-01 2.63775E-33
9.92404E-01 2.38697E-33
9.93143E-01 2.14950E-33
9.93844E-01 1.92534E-33
9.94508E-01 1.71407E-33
9.95134E-01 1.51603E-33
9.95722E-01 1.33063E-33
9.96273E-01 1.15799E-33
9.96786E-01 9.97772E-34
9.97261E-01 8.49978E-34
9.97698E-01 7.14425E-34
9.98097E-01 5.91081E-34
9.98459E-01 4.79652E-34
9.98782E-01 3.80337E-34
9.99067E-01 2.92797E-34
9.99315E-01 2.17152E-34
9.99524E-01 1.53105E-34
9.99695E-01 1.00815E-34
9.99829E-01 6.02700E-35
9.99924E-01 3.12186E-35
9.99981E-01 1.38477E-35
1.00000E+00 8.20862E-36
