 #
 # Subroutine ELSEPA. Elastic scattering of electrons and positrons
 #                    by neutral atoms and positive ions
 #
 # Projectile: positron
 # Kinetic energy = 5.00000E+08 eV = 1.83747E+07 a.u.
 #
 # WARNING: High-energy factorization with free-atom DF screening.
 #          Absorption, polarization and exchange corrections are
 #          switched off.
 #          Phase shifts are calculated for the bare nucleus.
 #          Scattering amplitudes are not evaluated.
 #
 # Element: He,  Z =   2,  atomic weight = 4.00260E+00 g/mol
 #
 # Nuclear model: Fermi distribution
 #                Average radius = 1.69889E-13 cm
 #                Skin thickness = 5.46000E-14 cm
 #
 # Number of electrons =  2
 #
 # Total elastic cross section = 1.64565E-20 cm**2 = 5.87673E-04 a0**2
 # 1st transport cross section = 3.79588E-29 cm**2 = 1.35553E-12 a0**2
 # 2nd transport cross section = 1.13750E-28 cm**2 = 4.06207E-12 a0**2
 #
 #
 # Differential cross section:                       MU=(1-COS(THETA))/2
 #
 #  THETA        MU          DCS          DCS        Sherman      error
 #  (deg)                 (cm**2/sr)   (a0**2/sr)    function
 #----------------------------------------------------------------------
0.00000E+00 1.67359E-11
7.61557E-13 1.64421E-11
1.18994E-12 1.62800E-11
1.71346E-12 1.60850E-11
2.33225E-12 1.58585E-11
3.04617E-12 1.56029E-11
3.85530E-12 1.53198E-11
4.75964E-12 1.50121E-11
5.75917E-12 1.46818E-11
6.85391E-12 1.43089E-11
8.04379E-12 1.39323E-11
9.32893E-12 1.35736E-11
1.07092E-11 1.31590E-11
1.21847E-11 1.27516E-11
1.37554E-11 1.23716E-11
1.54213E-11 1.19264E-11
1.71823E-11 1.15109E-11
1.90386E-11 1.11170E-11
2.09900E-11 1.06744E-11
2.30367E-11 1.02685E-11
2.51785E-11 9.87365E-12
2.74156E-11 9.45401E-12
2.97478E-11 9.07054E-12
3.21752E-11 8.68921E-12
3.46979E-11 8.30243E-12
3.73157E-11 7.94931E-12
4.00286E-11 7.59209E-12
4.28368E-11 7.24318E-12
4.57402E-11 6.92442E-12
4.87388E-11 6.59777E-12
5.18325E-11 6.28808E-12
5.50215E-11 6.00471E-12
5.83057E-11 5.71155E-12
6.16850E-11 5.43995E-12
6.51595E-11 5.18892E-12
6.87293E-11 4.93153E-12
7.23943E-11 4.69542E-12
7.61544E-11 4.47312E-12
1.18991E-10 2.71859E-12
1.71347E-10 1.67331E-12
2.33223E-10 1.06027E-12
3.04617E-10 6.87011E-13
3.85531E-10 4.59514E-13
4.75965E-10 3.17407E-13
5.75917E-10 2.24030E-13
6.85389E-10 1.62056E-13
8.04380E-10 1.19896E-13
9.32891E-10 9.03344E-14
1.07092E-09 6.92967E-14
1.21847E-09 5.39584E-14
1.37554E-09 4.25831E-14
1.54213E-09 3.40565E-14
1.71823E-09 2.75275E-14
1.90386E-09 2.24896E-14
2.09900E-09 1.85407E-14
2.30367E-09 1.54106E-14
2.51785E-09 1.29134E-14
2.74156E-09 1.09018E-14
2.97478E-09 9.26668E-15
3.21752E-09 7.92675E-15
3.46978E-09 6.82032E-15
3.73156E-09 5.90025E-15
4.00286E-09 5.13013E-15
4.28368E-09 4.48159E-15
4.57402E-09 3.93232E-15
4.87388E-09 3.46463E-15
5.18326E-09 3.06442E-15
5.50215E-09 2.72034E-15
5.83057E-09 2.42320E-15
6.16850E-09 2.16553E-15
6.51596E-09 1.94120E-15
6.87293E-09 1.74518E-15
7.23942E-09 1.57327E-15
7.61544E-09 1.42202E-15
1.18991E-08 5.83221E-16
1.71347E-08 2.81460E-16
2.33223E-08 1.51990E-16
3.04617E-08 8.91187E-17
3.85531E-08 5.56469E-17
4.75965E-08 3.65149E-17
5.75917E-08 2.49427E-17
6.85389E-08 1.76125E-17
8.04380E-08 1.27879E-17
9.32891E-08 9.50780E-18
1.07092E-07 7.21512E-18
1.21847E-07 5.57368E-18
1.37554E-07 4.37358E-18
1.54213E-07 3.47978E-18
1.71823E-07 2.80308E-18
1.90386E-07 2.28316E-18
2.09900E-07 1.87838E-18
2.30367E-07 1.55946E-18
2.51785E-07 1.30544E-18
2.74156E-07 1.10110E-18
2.97478E-07 9.35225E-19
3.21752E-07 7.99439E-19
3.46978E-07 6.87426E-19
3.73156E-07 5.94362E-19
4.00286E-07 5.16527E-19
4.28368E-07 4.51026E-19
4.57402E-07 3.95586E-19
4.87388E-07 3.48409E-19
5.18325E-07 3.08059E-19
5.50215E-07 2.73385E-19
5.83057E-07 2.43456E-19
6.16850E-07 2.17512E-19
6.51596E-07 1.94933E-19
6.87293E-07 1.75210E-19
7.23942E-07 1.57920E-19
7.61543E-07 1.42710E-19
1.18991E-06 5.84543E-20
1.71347E-06 2.81897E-20
2.33223E-06 1.52160E-20
3.04617E-06 8.91928E-21
3.85531E-06 5.56822E-21
4.75964E-06 3.65328E-21
5.75916E-06 2.49522E-21
6.85388E-06 1.76178E-21
8.04378E-06 1.27908E-21
9.32888E-06 9.50947E-22
1.07092E-05 7.21605E-22
1.21846E-05 5.57418E-22
1.37553E-05 4.37382E-22
1.54212E-05 3.47987E-22
1.71822E-05 2.80308E-22
1.90385E-05 2.28310E-22
2.09899E-05 1.87830E-22
2.30365E-05 1.55936E-22
2.51783E-05 1.30441E-22
2.74153E-05 1.10100E-22
2.97475E-05 9.35120E-23
3.21749E-05 7.99338E-23
3.46974E-05 6.87330E-23
3.73152E-05 5.94809E-23
4.00281E-05 5.16441E-23
4.28362E-05 4.50946E-23
4.57395E-05 3.95512E-23
4.87380E-05 3.48612E-23
5.18317E-05 3.07688E-23
5.50205E-05 2.73325E-23
5.83045E-05 2.43400E-23
6.16838E-05 2.17460E-23
6.51582E-05 1.94810E-23
6.87277E-05 1.75309E-23
7.23925E-05 1.57878E-23
7.61524E-05 1.42671E-23
9.21439E-05 9.74434E-24
1.09658E-04 6.84686E-24
1.28695E-04 4.96161E-24
1.49255E-04 3.68477E-24
1.71338E-04 2.79478E-24
1.94942E-04 2.15424E-24
2.20070E-04 1.68972E-24
2.46720E-04 1.34163E-24
2.74892E-04 1.07950E-24
3.04586E-04 8.77943E-25
3.35803E-04 7.20926E-25
3.68542E-04 5.97769E-25
4.02802E-04 4.99309E-25
4.38585E-04 4.20515E-25
4.75889E-04 3.56430E-25
5.14715E-04 3.04071E-25
5.55063E-04 2.60969E-25
5.96931E-04 2.25106E-25
6.40321E-04 1.95242E-25
6.85233E-04 1.70064E-25
7.31665E-04 1.48821E-25
7.79618E-04 1.30756E-25
8.29092E-04 1.15312E-25
8.80086E-04 1.02084E-25
9.32601E-04 9.06529E-26
9.86636E-04 8.07803E-26
1.04219E-03 7.21881E-26
1.09927E-03 6.46965E-26
1.15786E-03 5.81433E-26
1.21797E-03 5.23792E-26
1.27961E-03 4.73102E-26
1.34276E-03 4.28230E-26
1.40743E-03 3.88508E-26
1.47362E-03 3.53198E-26
1.54133E-03 3.21720E-26
1.61056E-03 2.93638E-26
1.68131E-03 2.68457E-26
1.75357E-03 2.45893E-26
1.82735E-03 2.25582E-26
1.90265E-03 2.07282E-26
1.97947E-03 1.90765E-26
2.05780E-03 1.75807E-26
2.13765E-03 1.62266E-26
2.21902E-03 1.49956E-26
2.30190E-03 1.38768E-26
2.38630E-03 1.28574E-26
2.47222E-03 1.19268E-26
2.55965E-03 1.10771E-26
2.64859E-03 1.02986E-26
2.73905E-03 9.58573E-27
2.83103E-03 8.93111E-27
2.92452E-03 8.32959E-27
3.01952E-03 7.77631E-27
3.11604E-03 7.26618E-27
3.21407E-03 6.79608E-27
3.31362E-03 6.36158E-27
3.41468E-03 5.96011E-27
3.51725E-03 5.58851E-27
3.62133E-03 5.24410E-27
3.72692E-03 4.92491E-27
3.83403E-03 4.62834E-27
3.94265E-03 4.35297E-27
4.05278E-03 4.09673E-27
4.16442E-03 3.85819E-27
4.27757E-03 3.63601E-27
4.39223E-03 3.42868E-27
4.50840E-03 3.23532E-27
4.62608E-03 3.05459E-27
4.74527E-03 2.88571E-27
4.86597E-03 2.72770E-27
4.98817E-03 2.57973E-27
5.11188E-03 2.44117E-27
5.23711E-03 2.31118E-27
5.36383E-03 2.18929E-27
5.49207E-03 2.07481E-27
5.62181E-03 1.96728E-27
5.75306E-03 1.86622E-27
5.88581E-03 1.77111E-27
6.02007E-03 1.68164E-27
6.15583E-03 1.59735E-27
6.29310E-03 1.51794E-27
6.43187E-03 1.44308E-27
6.57214E-03 1.37244E-27
6.71392E-03 1.30580E-27
6.85720E-03 1.24283E-27
7.00198E-03 1.18337E-27
7.14827E-03 1.12715E-27
7.29605E-03 1.07398E-27
7.44534E-03 1.02368E-27
7.59612E-03 9.76046E-28
7.97965E-03 8.67697E-28
8.37255E-03 7.72873E-28
8.77480E-03 6.89672E-28
9.18641E-03 6.16491E-28
9.60736E-03 5.51974E-28
1.00376E-02 4.94971E-28
1.04773E-02 4.44502E-28
1.09262E-02 3.99730E-28
1.13844E-02 3.59938E-28
1.18520E-02 3.24508E-28
1.23288E-02 2.92908E-28
1.28150E-02 2.64680E-28
1.33104E-02 2.39425E-28
1.38150E-02 2.16797E-28
1.43290E-02 1.96494E-28
1.48521E-02 1.78254E-28
1.53845E-02 1.61845E-28
1.59262E-02 1.47067E-28
1.64770E-02 1.33742E-28
1.70371E-02 1.21713E-28
1.76063E-02 1.10844E-28
1.81848E-02 1.01013E-28
1.87724E-02 9.21120E-29
1.93692E-02 8.40458E-29
1.99751E-02 7.67298E-29
2.05901E-02 7.00887E-29
2.12143E-02 6.40554E-29
2.18476E-02 5.85701E-29
2.24900E-02 5.35795E-29
2.31415E-02 4.90358E-29
2.38021E-02 4.48962E-29
2.44717E-02 4.11225E-29
2.51504E-02 3.76801E-29
2.58382E-02 3.45383E-29
2.65349E-02 3.16691E-29
2.72407E-02 2.90475E-29
2.79555E-02 2.66511E-29
2.86793E-02 2.44593E-29
2.94120E-02 2.24539E-29
3.01537E-02 2.06181E-29
3.09043E-02 1.89369E-29
3.16639E-02 1.73967E-29
3.24324E-02 1.59852E-29
3.32098E-02 1.46911E-29
3.39961E-02 1.35043E-29
3.47912E-02 1.24154E-29
3.55952E-02 1.14162E-29
3.64081E-02 1.04990E-29
3.72297E-02 9.65681E-30
3.80602E-02 8.88328E-30
3.88995E-02 8.17266E-30
3.97476E-02 7.51968E-30
4.06044E-02 6.91953E-30
4.14700E-02 6.36782E-30
4.23443E-02 5.86054E-30
4.32273E-02 5.39403E-30
4.41190E-02 4.96495E-30
4.50194E-02 4.57021E-30
4.59284E-02 4.20703E-30
4.68461E-02 3.87283E-30
4.87074E-02 3.28216E-30
5.06030E-02 2.78166E-30
5.25328E-02 2.35740E-30
5.44967E-02 1.99766E-30
5.64946E-02 1.69256E-30
5.85262E-02 1.43375E-30
6.05914E-02 1.21420E-30
6.26901E-02 1.02793E-30
6.48222E-02 8.69912E-31
6.69873E-02 7.35866E-31
6.91854E-02 6.22172E-31
7.14163E-02 5.25758E-31
7.36799E-02 4.44019E-31
7.59760E-02 3.74741E-31
7.83043E-02 3.16046E-31
8.06647E-02 2.66337E-31
8.30571E-02 2.24259E-31
8.54812E-02 1.88659E-31
8.79369E-02 1.58556E-31
9.04240E-02 1.33119E-31
9.29422E-02 1.11638E-31
9.54915E-02 9.35125E-32
9.80716E-02 7.82306E-32
1.00682E-01 6.53570E-32
1.03323E-01 5.45230E-32
1.05995E-01 4.54143E-32
1.08696E-01 3.77648E-32
1.11427E-01 3.13481E-32
1.14188E-01 2.59724E-32
1.16978E-01 2.14749E-32
1.19797E-01 1.77175E-32
1.22645E-01 1.45833E-32
1.25522E-01 1.19733E-32
1.28428E-01 9.80378E-33
1.31361E-01 8.00371E-33
1.34323E-01 6.51339E-33
1.37313E-01 5.28226E-33
1.40330E-01 4.26766E-33
1.43375E-01 3.43374E-33
1.46447E-01 2.75026E-33
1.49545E-01 2.19186E-33
1.52671E-01 1.73718E-33
1.55823E-01 1.36837E-33
1.59001E-01 1.07044E-33
1.62205E-01 8.30899E-34
1.65435E-01 6.39291E-34
1.68690E-01 4.86918E-34
1.71970E-01 3.66563E-34
1.75276E-01 2.72218E-34
1.78606E-01 1.98909E-34
1.81961E-01 1.42552E-34
1.85340E-01 9.97628E-35
1.88743E-01 6.77799E-35
1.92169E-01 4.43364E-35
1.95619E-01 2.75894E-35
1.99092E-01 1.60336E-35
2.02589E-01 8.46623E-36
2.06107E-01 3.91072E-36
2.09649E-01 1.59123E-36
2.13212E-01 8.93001E-37
2.16797E-01 1.33120E-36
2.20404E-01 2.52858E-36
2.24032E-01 4.19450E-36
2.27680E-01 6.10870E-36
2.31350E-01 8.10719E-36
2.35040E-01 1.00698E-35
2.38751E-01 1.19138E-35
2.42481E-01 1.35820E-35
2.46231E-01 1.50435E-35
2.50000E-01 1.62730E-35
2.53788E-01 1.72720E-35
2.57595E-01 1.80395E-35
2.61421E-01 1.85889E-35
2.65264E-01 1.89312E-35
2.69126E-01 1.90885E-35
2.73005E-01 1.90768E-35
2.76901E-01 1.89150E-35
2.80814E-01 1.86249E-35
2.84744E-01 1.82257E-35
2.88691E-01 1.77316E-35
2.92653E-01 1.71654E-35
2.96632E-01 1.65369E-35
3.00625E-01 1.58647E-35
3.04634E-01 1.51575E-35
3.08658E-01 1.44305E-35
3.12697E-01 1.36890E-35
3.16749E-01 1.29457E-35
3.20816E-01 1.22059E-35
3.24896E-01 1.14757E-35
3.28990E-01 1.07618E-35
3.33097E-01 1.00651E-35
3.37216E-01 9.39247E-36
3.41348E-01 8.74582E-36
3.45492E-01 8.12411E-36
3.49647E-01 7.53309E-36
3.53814E-01 6.96970E-36
3.57992E-01 6.43600E-36
3.62181E-01 5.93283E-36
3.66381E-01 5.45932E-36
3.70590E-01 5.01457E-36
3.74810E-01 4.59873E-36
3.79039E-01 4.20983E-36
3.83277E-01 3.84831E-36
3.87524E-01 3.51211E-36
3.91780E-01 3.20069E-36
3.96044E-01 2.91167E-36
4.00316E-01 2.64557E-36
4.04596E-01 2.40025E-36
4.08882E-01 2.17471E-36
4.13176E-01 1.96666E-36
4.17476E-01 1.77668E-36
4.21783E-01 1.60277E-36
4.26095E-01 1.44370E-36
4.30413E-01 1.29909E-36
4.34737E-01 1.16685E-36
4.39065E-01 1.04658E-36
4.43398E-01 9.37327E-37
4.47736E-01 8.38075E-37
4.52077E-01 7.48589E-37
4.56422E-01 6.67123E-37
4.60770E-01 5.94004E-37
4.65122E-01 5.28051E-37
4.69476E-01 4.68665E-37
4.73832E-01 4.15261E-37
4.78190E-01 3.67268E-37
4.82550E-01 3.24229E-37
4.86912E-01 2.85569E-37
4.91274E-01 2.51232E-37
4.95637E-01 2.20199E-37
5.00000E-01 1.92966E-37
5.04363E-01 1.68755E-37
5.08726E-01 1.47116E-37
5.13088E-01 1.27885E-37
5.17450E-01 1.11052E-37
5.21810E-01 9.60265E-38
5.26168E-01 8.28443E-38
5.30524E-01 7.12577E-38
5.34878E-01 6.11209E-38
5.39230E-01 5.22002E-38
5.43578E-01 4.44804E-38
5.47923E-01 3.77192E-38
5.52264E-01 3.19064E-38
5.56602E-01 2.67803E-38
5.60935E-01 2.23739E-38
5.65263E-01 1.85940E-38
5.69587E-01 1.53477E-38
5.73905E-01 1.25326E-38
5.78217E-01 1.01662E-38
5.82524E-01 8.20747E-39
5.86824E-01 6.52515E-39
5.91118E-01 5.12442E-39
5.95404E-01 3.93288E-39
5.99684E-01 3.00949E-39
6.03956E-01 2.24348E-39
6.08220E-01 1.61298E-39
6.12476E-01 1.13638E-39
6.16723E-01 7.58501E-40
6.20961E-01 4.69682E-40
6.25190E-01 2.72769E-40
6.29410E-01 1.37157E-40
6.33619E-01 5.40223E-41
6.37819E-01 1.57716E-41
6.42008E-01 1.37860E-41
6.46186E-01 4.14380E-41
6.50353E-01 9.22453E-41
6.54508E-01 1.58363E-40
6.58652E-01 2.36321E-40
6.62784E-01 3.21362E-40
6.66903E-01 4.15413E-40
6.71010E-01 5.13673E-40
6.75104E-01 6.04488E-40
6.79184E-01 6.99310E-40
6.83251E-01 7.87427E-40
6.87303E-01 8.77540E-40
6.91342E-01 9.66639E-40
6.95366E-01 1.03530E-39
6.99375E-01 1.10834E-39
7.03368E-01 1.16574E-39
7.07347E-01 1.23045E-39
7.11309E-01 1.28501E-39
7.15256E-01 1.34184E-39
7.19186E-01 1.35938E-39
7.23099E-01 1.40604E-39
7.26995E-01 1.42512E-39
7.30874E-01 1.46538E-39
7.34736E-01 1.47406E-39
7.38579E-01 1.49515E-39
7.42405E-01 1.48767E-39
7.46212E-01 1.51014E-39
7.50000E-01 1.49733E-39
7.53769E-01 1.48967E-39
7.57519E-01 1.48003E-39
7.61249E-01 1.47250E-39
7.64960E-01 1.46454E-39
7.68650E-01 1.43280E-39
7.72320E-01 1.41085E-39
7.75968E-01 1.39228E-39
7.79596E-01 1.36903E-39
7.83203E-01 1.33612E-39
7.86788E-01 1.30840E-39
7.90351E-01 1.28024E-39
7.93893E-01 1.25527E-39
7.97411E-01 1.21275E-39
8.00908E-01 1.18251E-39
8.04381E-01 1.15929E-39
8.07831E-01 1.12416E-39
8.11257E-01 1.09941E-39
8.14660E-01 1.04650E-39
8.18039E-01 1.02711E-39
8.21394E-01 1.00701E-39
8.24724E-01 9.79988E-40
8.28030E-01 9.30633E-40
8.31310E-01 9.05627E-40
8.34565E-01 8.81880E-40
8.37795E-01 8.50840E-40
8.40999E-01 8.21226E-40
8.44177E-01 7.98439E-40
8.47329E-01 7.58872E-40
8.50455E-01 7.37694E-40
8.53553E-01 7.17543E-40
8.56625E-01 6.84296E-40
8.59670E-01 6.61423E-40
8.62687E-01 6.31250E-40
8.65677E-01 6.14458E-40
8.68639E-01 5.80172E-40
8.71572E-01 5.43863E-40
8.74478E-01 5.31304E-40
8.77355E-01 5.11396E-40
8.80203E-01 4.97390E-40
8.83022E-01 4.79526E-40
8.85812E-01 4.53197E-40
8.88573E-01 4.35214E-40
8.91304E-01 4.10056E-40
8.94005E-01 3.96130E-40
8.96677E-01 3.89180E-40
8.99318E-01 3.67491E-40
9.01928E-01 3.48147E-40
9.04508E-01 3.36705E-40
9.07058E-01 3.14622E-40
9.09576E-01 3.05653E-40
9.12063E-01 2.96806E-40
9.14519E-01 2.84552E-40
9.16943E-01 2.69359E-40
9.19335E-01 2.54410E-40
9.21696E-01 2.48073E-40
9.24024E-01 2.30846E-40
9.26320E-01 2.17554E-40
9.28584E-01 2.14962E-40
9.30815E-01 2.00585E-40
9.33013E-01 1.89540E-40
9.35178E-01 1.80136E-40
9.37310E-01 1.65310E-40
9.39409E-01 1.60421E-40
9.41474E-01 1.49593E-40
9.43505E-01 1.48757E-40
9.45503E-01 1.39351E-40
9.47467E-01 1.32216E-40
9.49397E-01 1.24396E-40
9.51293E-01 1.15359E-40
9.53154E-01 1.17208E-40
9.54981E-01 1.08375E-40
9.56773E-01 1.05138E-40
9.58530E-01 1.01591E-40
9.60252E-01 9.05637E-41
9.61940E-01 8.41475E-41
9.63592E-01 8.14664E-41
9.65209E-01 7.36954E-41
9.66790E-01 7.37853E-41
9.68336E-01 6.63160E-41
9.69846E-01 6.12772E-41
9.71321E-01 5.74798E-41
9.72759E-01 5.48770E-41
9.74162E-01 5.24273E-41
9.75528E-01 4.81663E-41
9.76858E-01 4.35636E-41
9.78152E-01 4.18952E-41
9.79410E-01 4.11562E-41
9.80631E-01 3.60845E-41
9.81815E-01 3.66150E-41
9.82963E-01 3.01934E-41
9.84074E-01 3.14818E-41
9.85148E-01 2.84758E-41
9.86185E-01 2.66571E-41
9.87185E-01 2.33182E-41
9.88148E-01 2.11063E-41
9.89074E-01 1.86825E-41
9.89962E-01 1.69410E-41
9.90814E-01 1.61969E-41
9.91627E-01 1.24985E-41
9.92404E-01 1.40975E-41
9.93143E-01 1.31125E-41
9.93844E-01 1.24606E-41
9.94508E-01 8.29599E-42
9.95134E-01 8.36853E-42
9.95722E-01 6.37280E-42
9.96273E-01 6.11586E-42
9.96786E-01 4.73421E-42
9.97261E-01 4.14356E-42
9.97698E-01 3.47768E-42
9.98097E-01 3.67103E-42
9.98459E-01 2.05225E-42
9.98782E-01 2.62640E-42
9.99067E-01 1.73525E-42
9.99315E-01 3.70387E-42
9.99524E-01 7.51908E-43
9.99695E-01 1.21320E-42
9.99829E-01 1.01551E-42
9.99924E-01 1.34398E-42
9.99981E-01 1.00000E-45
1.00000E+00 1.00000E-45
