 #
 # Subroutine ELSEPA. Elastic scattering of electrons and positrons
 #                    by neutral atoms and positive ions
 #
 # Projectile: positron
 # Kinetic energy = 2.50000E+08 eV = 9.18733E+06 a.u.
 #
 # WARNING: High-energy factorization with free-atom DF screening.
 #          Absorption, polarization and exchange corrections are
 #          switched off.
 #          Phase shifts are calculated for the bare nucleus.
 #          Scattering amplitudes are not evaluated.
 #
 # Element: He,  Z =   2,  atomic weight = 4.00260E+00 g/mol
 #
 # Nuclear model: Fermi distribution
 #                Average radius = 1.69889E-13 cm
 #                Skin thickness = 5.46000E-14 cm
 #
 # Number of electrons =  2
 #
 # Total elastic cross section = 1.64598E-20 cm**2 = 5.87792E-04 a0**2
 # 1st transport cross section = 1.50968E-28 cm**2 = 5.39116E-12 a0**2
 # 2nd transport cross section = 4.51009E-28 cm**2 = 1.61058E-11 a0**2
 #
 #
 # Differential cross section:                       MU=(1-COS(THETA))/2
 #
 #  THETA        MU          DCS          DCS        Sherman      error
 #  (deg)                 (cm**2/sr)   (a0**2/sr)    function
 #----------------------------------------------------------------------
0.00000E+00 4.19253E-12
7.61557E-13 4.17391E-12
1.18994E-12 4.16349E-12
1.71346E-12 4.15081E-12
2.33225E-12 4.13589E-12
3.04617E-12 4.11878E-12
3.85530E-12 4.09950E-12
4.75964E-12 4.07809E-12
5.75917E-12 4.05462E-12
6.85391E-12 4.02914E-12
8.04379E-12 4.00168E-12
9.32893E-12 3.97230E-12
1.07092E-11 3.94109E-12
1.21847E-11 3.90813E-12
1.37554E-11 3.87346E-12
1.54213E-11 3.83711E-12
1.71823E-11 3.79921E-12
1.90386E-11 3.75986E-12
2.09900E-11 3.71914E-12
2.30367E-11 3.67699E-12
2.51785E-11 3.63207E-12
2.74156E-11 3.58337E-12
2.97478E-11 3.53563E-12
3.21752E-11 3.48896E-12
3.46979E-11 3.44343E-12
3.73157E-11 3.39909E-12
4.00286E-11 3.34847E-12
4.28368E-11 3.29485E-12
4.57402E-11 3.24296E-12
4.87388E-11 3.19280E-12
5.18325E-11 3.14436E-12
5.50215E-11 3.09763E-12
5.83057E-11 3.04092E-12
6.16850E-11 2.98570E-12
6.51595E-11 2.93263E-12
6.87293E-11 2.88166E-12
7.23943E-11 2.83272E-12
7.61544E-11 2.78257E-12
1.18991E-10 2.26993E-12
1.71347E-10 1.81194E-12
2.33223E-10 1.42827E-12
3.04617E-10 1.11821E-12
3.85531E-10 8.71536E-13
4.75965E-10 6.79333E-13
5.75917E-10 5.31457E-13
6.85389E-10 4.17926E-13
8.04380E-10 3.31054E-13
9.32891E-10 2.64777E-13
1.07092E-09 2.12532E-13
1.21847E-09 1.71510E-13
1.37554E-09 1.39586E-13
1.54213E-09 1.14710E-13
1.71823E-09 9.50437E-14
1.90386E-09 7.92219E-14
2.09900E-09 6.63691E-14
2.30367E-09 5.59109E-14
2.51785E-09 4.73910E-14
2.74156E-09 4.04432E-14
2.97478E-09 3.47478E-14
3.21752E-09 2.99188E-14
3.46978E-09 2.59104E-14
3.73156E-09 2.25414E-14
4.00286E-09 1.97036E-14
4.28368E-09 1.72911E-14
4.57402E-09 1.52283E-14
4.87388E-09 1.34635E-14
5.18326E-09 1.19389E-14
5.50215E-09 1.06252E-14
5.83057E-09 9.48679E-15
6.16850E-09 8.49760E-15
6.51596E-09 7.62986E-15
6.87293E-09 6.86828E-15
7.23942E-09 6.19983E-15
7.61544E-09 5.61132E-15
1.18991E-08 2.31200E-15
1.71347E-08 1.11813E-15
2.33223E-08 6.04572E-16
3.04617E-08 3.54783E-16
3.85531E-08 2.21658E-16
4.75965E-08 1.45509E-16
5.75917E-08 9.94245E-17
6.85389E-08 7.02218E-17
8.04380E-08 5.09949E-17
9.32891E-08 3.79202E-17
1.07092E-07 2.87795E-17
1.21847E-07 2.22342E-17
1.37554E-07 1.74482E-17
1.54213E-07 1.38833E-17
1.71823E-07 1.11841E-17
1.90386E-07 9.11009E-18
2.09900E-07 7.49529E-18
2.30367E-07 6.22293E-18
2.51785E-07 5.20945E-18
2.74156E-07 4.39413E-18
2.97478E-07 3.73226E-18
3.21752E-07 3.19043E-18
3.46978E-07 2.74346E-18
3.73156E-07 2.37209E-18
4.00286E-07 2.06148E-18
4.28368E-07 1.80009E-18
4.57402E-07 1.57884E-18
4.87388E-07 1.39057E-18
5.18325E-07 1.22954E-18
5.50215E-07 1.09115E-18
5.83057E-07 9.71705E-19
6.16850E-07 8.68162E-19
6.51596E-07 7.78050E-19
6.87293E-07 6.99332E-19
7.23942E-07 6.30322E-19
7.61543E-07 5.69618E-19
1.18991E-06 2.33325E-19
1.71347E-06 1.12524E-19
2.33223E-06 6.07381E-20
3.04617E-06 3.56036E-20
3.85531E-06 2.22271E-20
4.75964E-06 1.45832E-20
5.75916E-06 9.96045E-21
6.85388E-06 7.03270E-21
8.04378E-06 5.10588E-21
9.32888E-06 3.79602E-21
1.07092E-05 2.88053E-21
1.21846E-05 2.22512E-21
1.37553E-05 1.74596E-21
1.54212E-05 1.38911E-21
1.71822E-05 1.11895E-21
1.90385E-05 9.11381E-22
2.09899E-05 7.49790E-22
2.30365E-05 6.22476E-22
2.51783E-05 5.20703E-22
2.74153E-05 4.39502E-22
2.97475E-05 3.73287E-22
3.21749E-05 3.19084E-22
3.46974E-05 2.74372E-22
3.73152E-05 2.37439E-22
4.00281E-05 2.06156E-22
4.28362E-05 1.80011E-22
4.57395E-05 1.57883E-22
4.87380E-05 1.39161E-22
5.18317E-05 1.22825E-22
5.50205E-05 1.09108E-22
5.83045E-05 9.71619E-23
6.16838E-05 8.68070E-23
6.51582E-05 7.77657E-23
6.87277E-05 6.99809E-23
7.23925E-05 6.30226E-23
7.61524E-05 5.69524E-23
9.21439E-05 3.88981E-23
1.09658E-04 2.74435E-23
1.28695E-04 1.99012E-23
1.49255E-04 1.47911E-23
1.71338E-04 1.12278E-23
1.94942E-04 8.66211E-24
2.20070E-04 6.80064E-24
2.46720E-04 5.40507E-24
2.74892E-04 4.35356E-24
3.04586E-04 3.54462E-24
3.35803E-04 2.91407E-24
3.68542E-04 2.41920E-24
4.02802E-04 2.02331E-24
4.38585E-04 1.70629E-24
4.75889E-04 1.44827E-24
5.14715E-04 1.23731E-24
5.55063E-04 1.06352E-24
5.96931E-04 9.18801E-25
6.40321E-04 7.98192E-25
6.85233E-04 6.96424E-25
7.31665E-04 6.10488E-25
7.79618E-04 5.37340E-25
8.29092E-04 4.74748E-25
8.80086E-04 4.21083E-25
9.32601E-04 3.74665E-25
9.86636E-04 3.34533E-25
1.04219E-03 2.99569E-25
1.09927E-03 2.69051E-25
1.15786E-03 2.42326E-25
1.21797E-03 2.18791E-25
1.27961E-03 1.98071E-25
1.34276E-03 1.79706E-25
1.40743E-03 1.63429E-25
1.47362E-03 1.48941E-25
1.54133E-03 1.36009E-25
1.61056E-03 1.24456E-25
1.68131E-03 1.14083E-25
1.75357E-03 1.04775E-25
1.82735E-03 9.63840E-26
1.90265E-03 8.88127E-26
1.97947E-03 8.19691E-26
2.05780E-03 7.57615E-26
2.13765E-03 7.01334E-26
2.21902E-03 6.50089E-26
2.30190E-03 6.03438E-26
2.38630E-03 5.60859E-26
2.47222E-03 5.21922E-26
2.55965E-03 4.86309E-26
2.64859E-03 4.53622E-26
2.73905E-03 4.23639E-26
2.83103E-03 3.96054E-26
2.92452E-03 3.70658E-26
3.01952E-03 3.47255E-26
3.11604E-03 3.25635E-26
3.21407E-03 3.05672E-26
3.31362E-03 2.87183E-26
3.41468E-03 2.70065E-26
3.51725E-03 2.54187E-26
3.62133E-03 2.39440E-26
3.72692E-03 2.25743E-26
3.83403E-03 2.12990E-26
3.94265E-03 2.01120E-26
4.05278E-03 1.90051E-26
4.16442E-03 1.79723E-26
4.27757E-03 1.70080E-26
4.39223E-03 1.61060E-26
4.50840E-03 1.52628E-26
4.62608E-03 1.44727E-26
4.74527E-03 1.37325E-26
4.86597E-03 1.30383E-26
4.98817E-03 1.23865E-26
5.11188E-03 1.17746E-26
5.23711E-03 1.11989E-26
5.36383E-03 1.06577E-26
5.49207E-03 1.01481E-26
5.62181E-03 9.66798E-27
5.75306E-03 9.21553E-27
5.88581E-03 8.78851E-27
6.02007E-03 8.38569E-27
6.15583E-03 8.00503E-27
6.29310E-03 7.64538E-27
6.43187E-03 7.30528E-27
6.57214E-03 6.98339E-27
6.71392E-03 6.67879E-27
6.85720E-03 6.39009E-27
7.00198E-03 6.11659E-27
7.14827E-03 5.85717E-27
7.29605E-03 5.61102E-27
7.44534E-03 5.37742E-27
7.59612E-03 5.15545E-27
7.97965E-03 4.64759E-27
8.37255E-03 4.19925E-27
8.77480E-03 3.80233E-27
9.18641E-03 3.44998E-27
9.60736E-03 3.13640E-27
1.00376E-02 2.85662E-27
1.04773E-02 2.60642E-27
1.09262E-02 2.38217E-27
1.13844E-02 2.18075E-27
1.18520E-02 1.99945E-27
1.23288E-02 1.83595E-27
1.28150E-02 1.68822E-27
1.33104E-02 1.55450E-27
1.38150E-02 1.43324E-27
1.43290E-02 1.32311E-27
1.48521E-02 1.22291E-27
1.53845E-02 1.13162E-27
1.59262E-02 1.04831E-27
1.64770E-02 9.72181E-28
1.70371E-02 9.02514E-28
1.76063E-02 8.38676E-28
1.81848E-02 7.80104E-28
1.87724E-02 7.26297E-28
1.93692E-02 6.76807E-28
1.99751E-02 6.31234E-28
2.05901E-02 5.89222E-28
2.12143E-02 5.50450E-28
2.18476E-02 5.14631E-28
2.24900E-02 4.81505E-28
2.31415E-02 4.50841E-28
2.38021E-02 4.22427E-28
2.44717E-02 3.96075E-28
2.51504E-02 3.71612E-28
2.58382E-02 3.48884E-28
2.65349E-02 3.27749E-28
2.72407E-02 3.08080E-28
2.79555E-02 2.89761E-28
2.86793E-02 2.72685E-28
2.94120E-02 2.56756E-28
3.01537E-02 2.41887E-28
3.09043E-02 2.27997E-28
3.16639E-02 2.15012E-28
3.24324E-02 2.02866E-28
3.32098E-02 1.91497E-28
3.39961E-02 1.80848E-28
3.47912E-02 1.70868E-28
3.55952E-02 1.61508E-28
3.64081E-02 1.52726E-28
3.72297E-02 1.44481E-28
3.80602E-02 1.36736E-28
3.88995E-02 1.29457E-28
3.97476E-02 1.22611E-28
4.06044E-02 1.16170E-28
4.14700E-02 1.10107E-28
4.23443E-02 1.04397E-28
4.32273E-02 9.90170E-29
4.41190E-02 9.39451E-29
4.50194E-02 8.91619E-29
4.59284E-02 8.46488E-29
4.68461E-02 8.03888E-29
4.87074E-02 7.25656E-29
5.06030E-02 6.55782E-29
5.25328E-02 5.93276E-29
5.44967E-02 5.37279E-29
5.64946E-02 4.87044E-29
5.85262E-02 4.41917E-29
6.05914E-02 4.01327E-29
6.26901E-02 3.64773E-29
6.48222E-02 3.31816E-29
6.69873E-02 3.02069E-29
6.91854E-02 2.75191E-29
7.14163E-02 2.50880E-29
7.36799E-02 2.28869E-29
7.59760E-02 2.08923E-29
7.83043E-02 1.90832E-29
8.06647E-02 1.74409E-29
8.30571E-02 1.59488E-29
8.54812E-02 1.45921E-29
8.79369E-02 1.33577E-29
9.04240E-02 1.22336E-29
9.29422E-02 1.12094E-29
9.54915E-02 1.02755E-29
9.80716E-02 9.42345E-30
1.00682E-01 8.64558E-30
1.03323E-01 7.93503E-30
1.05995E-01 7.28560E-30
1.08696E-01 6.69173E-30
1.11427E-01 6.14838E-30
1.14188E-01 5.65101E-30
1.16978E-01 5.19551E-30
1.19797E-01 4.77817E-30
1.22645E-01 4.39563E-30
1.25522E-01 4.04483E-30
1.28428E-01 3.72303E-30
1.31361E-01 3.42769E-30
1.34323E-01 3.15655E-30
1.37313E-01 2.90754E-30
1.40330E-01 2.67877E-30
1.43375E-01 2.46853E-30
1.46447E-01 2.27525E-30
1.49545E-01 2.09752E-30
1.52671E-01 1.93403E-30
1.55823E-01 1.78361E-30
1.59001E-01 1.64516E-30
1.62205E-01 1.51772E-30
1.65435E-01 1.40036E-30
1.68690E-01 1.29228E-30
1.71970E-01 1.19270E-30
1.75276E-01 1.10095E-30
1.78606E-01 1.01639E-30
1.81961E-01 9.38445E-31
1.85340E-01 8.66576E-31
1.88743E-01 8.00302E-31
1.92169E-01 7.39176E-31
1.95619E-01 6.82789E-31
1.99092E-01 6.30763E-31
2.02589E-01 5.82757E-31
2.06107E-01 5.38450E-31
2.09649E-01 4.97553E-31
2.13212E-01 4.59799E-31
2.16797E-01 4.24940E-31
2.20404E-01 3.92752E-31
2.24032E-01 3.63025E-31
2.27680E-01 3.35569E-31
2.31350E-01 3.10207E-31
2.35040E-01 2.86778E-31
2.38751E-01 2.65131E-31
2.42481E-01 2.45130E-31
2.46231E-01 2.26647E-31
2.50000E-01 2.09566E-31
2.53788E-01 1.93779E-31
2.57595E-01 1.79187E-31
2.61421E-01 1.65699E-31
2.65264E-01 1.53231E-31
2.69126E-01 1.41703E-31
2.73005E-01 1.31045E-31
2.76901E-01 1.21192E-31
2.80814E-01 1.12080E-31
2.84744E-01 1.03655E-31
2.88691E-01 9.58636E-32
2.92653E-01 8.86582E-32
2.96632E-01 8.19949E-32
3.00625E-01 7.58321E-32
3.04634E-01 7.01326E-32
3.08658E-01 6.48607E-32
3.12697E-01 5.99850E-32
3.16749E-01 5.54749E-32
3.20816E-01 5.13032E-32
3.24896E-01 4.74444E-32
3.28990E-01 4.38749E-32
3.33097E-01 4.05733E-32
3.37216E-01 3.75190E-32
3.41348E-01 3.46936E-32
3.45492E-01 3.20802E-32
3.49647E-01 2.96624E-32
3.53814E-01 2.74260E-32
3.57992E-01 2.53573E-32
3.62181E-01 2.34436E-32
3.66381E-01 2.16734E-32
3.70590E-01 2.00359E-32
3.74810E-01 1.85212E-32
3.79039E-01 1.71202E-32
3.83277E-01 1.58242E-32
3.87524E-01 1.46255E-32
3.91780E-01 1.35168E-32
3.96044E-01 1.24914E-32
4.00316E-01 1.15429E-32
4.04596E-01 1.06657E-32
4.08882E-01 9.85443E-33
4.13176E-01 9.10428E-33
4.17476E-01 8.41048E-33
4.21783E-01 7.76891E-33
4.26095E-01 7.17568E-33
4.30413E-01 6.62709E-33
4.34737E-01 6.11993E-33
4.39065E-01 5.65104E-33
4.43398E-01 5.21756E-33
4.47736E-01 4.81685E-33
4.52077E-01 4.44638E-33
4.56422E-01 4.10403E-33
4.60770E-01 3.78754E-33
4.65122E-01 3.49503E-33
4.69476E-01 3.22472E-33
4.73832E-01 2.97493E-33
4.78190E-01 2.74414E-33
4.82550E-01 2.53091E-33
4.86912E-01 2.33394E-33
4.91274E-01 2.15195E-33
4.95637E-01 1.98392E-33
5.00000E-01 1.82866E-33
5.04363E-01 1.68527E-33
5.08726E-01 1.55289E-33
5.13088E-01 1.43067E-33
5.17450E-01 1.31781E-33
5.21810E-01 1.21366E-33
5.26168E-01 1.11752E-33
5.30524E-01 1.02879E-33
5.34878E-01 9.46903E-34
5.39230E-01 8.71367E-34
5.43578E-01 8.01664E-34
5.47923E-01 7.37382E-34
5.52264E-01 6.78079E-34
5.56602E-01 6.23422E-34
5.60935E-01 5.73024E-34
5.65263E-01 5.26562E-34
5.69587E-01 4.83740E-34
5.73905E-01 4.44296E-34
5.78217E-01 4.07944E-34
5.82524E-01 3.74440E-34
5.86824E-01 3.43599E-34
5.91118E-01 3.15197E-34
5.95404E-01 2.89067E-34
5.99684E-01 2.64984E-34
6.03956E-01 2.42832E-34
6.08220E-01 2.22464E-34
6.12476E-01 2.03713E-34
6.16723E-01 1.86478E-34
6.20961E-01 1.70641E-34
6.25190E-01 1.56070E-34
6.29410E-01 1.42685E-34
6.33619E-01 1.30393E-34
6.37819E-01 1.19107E-34
6.42008E-01 1.08740E-34
6.46186E-01 9.92331E-35
6.50353E-01 9.05095E-35
6.54508E-01 8.25051E-35
6.58652E-01 7.51664E-35
6.62784E-01 6.84395E-35
6.66903E-01 6.22800E-35
6.71010E-01 5.66399E-35
6.75104E-01 5.14721E-35
6.79184E-01 4.67465E-35
6.83251E-01 4.24226E-35
6.87303E-01 3.84722E-35
6.91342E-01 3.48638E-35
6.95366E-01 3.15629E-35
6.99375E-01 2.85532E-35
7.03368E-01 2.58046E-35
7.07347E-01 2.33023E-35
7.11309E-01 2.10210E-35
7.15256E-01 1.89455E-35
7.19186E-01 1.70495E-35
7.23099E-01 1.53325E-35
7.26995E-01 1.37679E-35
7.30874E-01 1.23521E-35
7.34736E-01 1.10629E-35
7.38579E-01 9.89709E-36
7.42405E-01 8.83758E-36
7.46212E-01 7.88370E-36
7.50000E-01 7.01727E-36
7.53769E-01 6.23600E-36
7.57519E-01 5.53147E-36
7.61249E-01 4.89730E-36
7.64960E-01 4.32693E-36
7.68650E-01 3.81228E-36
7.72320E-01 3.35161E-36
7.75968E-01 2.93935E-36
7.79596E-01 2.57033E-36
7.83203E-01 2.24021E-36
7.86788E-01 1.94646E-36
7.90351E-01 1.68527E-36
7.93893E-01 1.45374E-36
7.97411E-01 1.24777E-36
8.00908E-01 1.06665E-36
8.04381E-01 9.07610E-37
8.07831E-01 7.67490E-37
8.11257E-01 6.45456E-37
8.14660E-01 5.38035E-37
8.18039E-01 4.46207E-37
8.21394E-01 3.66971E-37
8.24724E-01 2.98801E-37
8.28030E-01 2.40114E-37
8.31310E-01 1.91162E-37
8.34565E-01 1.50204E-37
8.37795E-01 1.16158E-37
8.40999E-01 8.84026E-38
8.44177E-01 6.62439E-38
8.47329E-01 4.87096E-38
8.50455E-01 3.55906E-38
8.53553E-01 2.61071E-38
8.56625E-01 1.97249E-38
8.59670E-01 1.60984E-38
8.62687E-01 1.47994E-38
8.65677E-01 1.54239E-38
8.68639E-01 1.77877E-38
8.71572E-01 2.15851E-38
8.74478E-01 2.62602E-38
8.77355E-01 3.18844E-38
8.80203E-01 3.80893E-38
8.83022E-01 4.48511E-38
8.85812E-01 5.21389E-38
8.88573E-01 5.94871E-38
8.91304E-01 6.71240E-38
8.94005E-01 7.44872E-38
8.96677E-01 8.15509E-38
8.99318E-01 8.88833E-38
9.01928E-01 9.59359E-38
9.04508E-01 1.02454E-37
9.07058E-01 1.09037E-37
9.09576E-01 1.14780E-37
9.12063E-01 1.20119E-37
9.14519E-01 1.25180E-37
9.16943E-01 1.29948E-37
9.19335E-01 1.34283E-37
9.21696E-01 1.37777E-37
9.24024E-01 1.41353E-37
9.26320E-01 1.44311E-37
9.28584E-01 1.46270E-37
9.30815E-01 1.48425E-37
9.33013E-01 1.49990E-37
9.35178E-01 1.51063E-37
9.37310E-01 1.52069E-37
9.39409E-01 1.52102E-37
9.41474E-01 1.52144E-37
9.43505E-01 1.51200E-37
9.45503E-01 1.50485E-37
9.47467E-01 1.49302E-37
9.49397E-01 1.47892E-37
9.51293E-01 1.46281E-37
9.53154E-01 1.43649E-37
9.54981E-01 1.41536E-37
9.56773E-01 1.38801E-37
9.58530E-01 1.35880E-37
9.60252E-01 1.33337E-37
9.61940E-01 1.30288E-37
9.63592E-01 1.26794E-37
9.65209E-01 1.23570E-37
9.66790E-01 1.19584E-37
9.68336E-01 1.16107E-37
9.69846E-01 1.12347E-37
9.71321E-01 1.08411E-37
9.72759E-01 1.04310E-37
9.74162E-01 1.00146E-37
9.75528E-01 9.61133E-38
9.76858E-01 9.20904E-38
9.78152E-01 8.77983E-38
9.79410E-01 8.34290E-38
9.80631E-01 7.94856E-38
9.81815E-01 7.50450E-38
9.82963E-01 7.13072E-38
9.84074E-01 6.68878E-38
9.85148E-01 6.29434E-38
9.86185E-01 5.89685E-38
9.87185E-01 5.52321E-38
9.88148E-01 5.14447E-38
9.89074E-01 4.78040E-38
9.89962E-01 4.42182E-38
9.90814E-01 4.06149E-38
9.91627E-01 3.74584E-38
9.92404E-01 3.38814E-38
9.93143E-01 3.06961E-38
9.93844E-01 2.76237E-38
9.94508E-01 2.50459E-38
9.95134E-01 2.21817E-38
9.95722E-01 1.96834E-38
9.96273E-01 1.71562E-38
9.96786E-01 1.49107E-38
9.97261E-01 1.27438E-38
9.97698E-01 1.07468E-38
9.98097E-01 8.82609E-39
9.98459E-01 7.27628E-39
9.98782E-01 5.65787E-39
9.99067E-01 4.37177E-39
9.99315E-01 3.10155E-39
9.99524E-01 2.27812E-39
9.99695E-01 1.51056E-39
9.99829E-01 8.02070E-40
9.99924E-01 4.65982E-40
9.99981E-01 1.96777E-40
1.00000E+00 7.46606E-42
