 #
 # Subroutine ELSEPA. Elastic scattering of electrons and positrons
 #                    by neutral atoms and positive ions
 #
 # Projectile: electron
 # Kinetic energy = 9.00000E+08 eV = 3.30744E+07 a.u.
 #
 # WARNING: High-energy factorization with free-atom DF screening.
 #          Absorption, polarization and exchange corrections are
 #          switched off.
 #          Phase shifts are calculated for the bare nucleus.
 #          Scattering amplitudes are not evaluated.
 #
 # Element: Nd,  Z =  60,  atomic weight = 1.44240E+02 g/mol
 #
 # Nuclear model: Fermi distribution
 #                Average radius = 5.61150E-13 cm
 #                Skin thickness = 5.46000E-14 cm
 #
 # Number of electrons = 60
 #
 # Total elastic cross section = 7.15593E-18 cm**2 = 2.55543E-01 a0**2
 # 1st transport cross section = 8.59554E-27 cm**2 = 3.06952E-10 a0**2
 # 2nd transport cross section = 2.57835E-26 cm**2 = 9.20746E-10 a0**2
 #
 #
 # Differential cross section:                       MU=(1-COS(THETA))/2
 #
 #  THETA        MU          DCS          DCS        Sherman      error
 #  (deg)                 (cm**2/sr)   (a0**2/sr)    function
 #----------------------------------------------------------------------
0.00000E+00 8.25610E-08
7.61557E-13 5.61621E-08
1.18994E-12 4.70431E-08
1.71346E-12 3.90406E-08
2.33225E-12 3.24066E-08
3.04617E-12 2.70514E-08
3.85530E-12 2.28112E-08
4.75964E-12 1.94437E-08
5.75917E-12 1.67455E-08
6.85391E-12 1.45604E-08
8.04379E-12 1.27591E-08
9.32893E-12 1.12538E-08
1.07092E-11 9.97500E-09
1.21847E-11 8.87907E-09
1.37554E-11 7.93027E-09
1.54213E-11 7.10084E-09
1.71823E-11 6.37468E-09
1.90386E-11 5.73445E-09
2.09900E-11 5.16835E-09
2.30367E-11 4.66793E-09
2.51785E-11 4.22308E-09
2.74156E-11 3.82794E-09
2.97478E-11 3.46088E-09
3.21752E-11 3.13365E-09
3.46979E-11 2.85082E-09
3.73157E-11 2.60520E-09
4.00286E-11 2.39091E-09
4.28368E-11 2.20312E-09
4.57402E-11 2.02483E-09
4.87388E-11 1.85729E-09
5.18325E-11 1.70958E-09
5.50215E-11 1.57887E-09
5.83057E-11 1.46280E-09
6.16850E-11 1.35937E-09
6.51595E-11 1.26236E-09
6.87293E-11 1.17012E-09
7.23943E-11 1.08749E-09
7.61544E-11 1.01327E-09
1.18991E-10 5.32698E-10
1.71347E-10 3.02997E-10
2.33223E-10 1.82796E-10
3.04617E-10 1.16434E-10
3.85531E-10 7.77485E-11
4.75965E-10 5.41612E-11
5.75917E-10 3.90924E-11
6.85389E-10 2.90234E-11
8.04380E-10 2.20322E-11
9.32891E-10 1.70426E-11
1.07092E-09 1.33853E-11
1.21847E-09 1.06543E-11
1.37554E-09 8.57562E-12
1.54213E-09 6.97016E-12
1.71823E-09 5.71938E-12
1.90386E-09 4.73418E-12
2.09900E-09 3.95090E-12
2.30367E-09 3.32257E-12
2.51785E-09 2.81348E-12
2.74156E-09 2.39803E-12
2.97478E-09 2.05569E-12
3.21752E-09 1.77314E-12
3.46978E-09 1.53842E-12
3.73156E-09 1.34048E-12
4.00286E-09 1.17426E-12
4.28368E-09 1.03264E-12
4.57402E-09 9.11982E-13
4.87388E-09 8.08641E-13
5.18326E-09 7.19367E-13
5.50215E-09 6.42406E-13
5.83057E-09 5.75218E-13
6.16850E-09 5.16743E-13
6.51596E-09 4.65525E-13
6.87293E-09 4.20450E-13
7.23942E-09 3.80835E-13
7.61544E-09 3.45622E-13
1.18991E-08 1.46548E-13
1.71347E-08 7.22133E-14
2.33223E-08 3.95328E-14
3.04617E-08 2.34043E-14
3.85531E-08 1.47210E-14
4.75965E-08 9.71632E-15
5.75917E-08 6.66938E-15
6.85389E-08 4.72898E-15
8.04380E-08 3.44594E-15
9.32891E-08 2.57013E-15
1.07092E-07 1.95577E-15
1.21847E-07 1.51452E-15
1.37554E-07 1.19099E-15
1.54213E-07 9.49405E-16
1.71823E-07 7.66075E-16
1.90386E-07 6.24925E-16
2.09900E-07 5.14827E-16
2.30367E-07 4.27933E-16
2.51785E-07 3.58615E-16
2.74156E-07 3.02775E-16
2.97478E-07 2.57388E-16
3.21752E-07 2.20192E-16
3.46978E-07 1.89475E-16
3.73156E-07 1.63931E-16
4.00286E-07 1.42547E-16
4.28368E-07 1.24538E-16
4.57402E-07 1.09284E-16
4.87388E-07 9.62946E-17
5.18325E-07 8.51781E-17
5.50215E-07 7.56199E-17
5.83057E-07 6.73649E-17
6.16850E-07 6.02058E-17
6.51596E-07 5.39727E-17
6.87293E-07 4.85254E-17
7.23942E-07 4.37481E-17
7.61543E-07 3.95443E-17
1.18991E-06 1.62257E-17
1.71347E-06 7.83291E-18
2.33223E-06 4.23088E-18
3.04617E-06 2.48129E-18
3.85531E-06 1.54966E-18
4.75964E-06 1.01707E-18
5.75916E-06 6.94871E-19
6.85388E-06 4.90752E-19
8.04378E-06 3.56384E-19
9.32888E-06 2.65020E-19
1.07092E-05 2.01150E-19
1.21846E-05 1.55416E-19
1.37553E-05 1.21975E-19
1.54212E-05 9.70649E-20
1.71822E-05 7.82030E-20
1.90385E-05 6.36831E-20
2.09899E-05 5.24268E-20
2.30365E-05 4.35469E-20
2.51783E-05 3.64633E-20
2.74153E-05 3.07578E-20
2.97475E-05 2.61230E-20
3.21749E-05 2.23290E-20
3.46974E-05 1.92010E-20
3.73152E-05 1.66041E-20
4.00281E-05 1.44333E-20
4.28362E-05 1.26067E-20
4.57395E-05 1.10603E-20
4.87380E-05 9.74359E-21
5.18317E-05 8.61666E-21
5.50205E-05 7.64773E-21
5.83045E-05 6.81114E-21
6.16838E-05 6.08598E-21
6.51582E-05 5.45503E-21
6.87277E-05 4.90399E-21
7.23925E-05 4.42097E-21
7.61524E-05 4.00136E-21
9.21439E-05 2.72339E-21
1.09658E-04 1.91379E-21
1.28695E-04 1.38139E-21
1.49255E-04 1.01972E-21
1.71338E-04 7.67431E-22
1.94942E-04 5.87206E-22
2.20070E-04 4.55840E-22
2.46720E-04 3.58369E-22
2.74892E-04 2.84891E-22
3.04586E-04 2.28731E-22
3.35803E-04 1.85261E-22
3.68542E-04 1.51238E-22
4.02802E-04 1.24338E-22
4.38585E-04 1.02875E-22
4.75889E-04 8.56071E-23
5.14715E-04 7.16089E-23
5.55063E-04 6.01832E-23
5.96931E-04 5.07980E-23
6.40321E-04 4.30441E-23
6.85233E-04 3.66040E-23
7.31665E-04 3.12287E-23
7.79618E-04 2.67220E-23
8.29092E-04 2.29277E-23
8.80086E-04 1.97209E-23
9.32601E-04 1.70010E-23
9.86636E-04 1.46866E-23
1.04219E-03 1.27111E-23
1.09927E-03 1.10202E-23
1.15786E-03 9.56909E-24
1.21797E-03 8.32083E-24
1.27961E-03 7.24467E-24
1.34276E-03 6.31496E-24
1.40743E-03 5.51026E-24
1.47362E-03 4.81255E-24
1.54133E-03 4.20663E-24
1.61056E-03 3.67966E-24
1.68131E-03 3.22073E-24
1.75357E-03 2.82057E-24
1.82735E-03 2.47126E-24
1.90265E-03 2.16604E-24
1.97947E-03 1.89911E-24
2.05780E-03 1.66546E-24
2.13765E-03 1.46081E-24
2.21902E-03 1.28144E-24
2.30190E-03 1.12416E-24
2.38630E-03 9.86165E-25
2.47222E-03 8.65059E-25
2.55965E-03 7.58739E-25
2.64859E-03 6.65380E-25
2.73905E-03 5.83390E-25
2.83103E-03 5.11378E-25
2.92452E-03 4.48130E-25
3.01952E-03 3.92582E-25
3.11604E-03 3.43803E-25
3.21407E-03 3.00975E-25
3.31362E-03 2.63381E-25
3.41468E-03 2.30393E-25
3.51725E-03 2.01456E-25
3.62133E-03 1.76083E-25
3.72692E-03 1.53847E-25
3.83403E-03 1.34369E-25
3.94265E-03 1.17317E-25
4.05278E-03 1.02399E-25
4.16442E-03 8.93560E-26
4.27757E-03 7.79608E-26
4.39223E-03 6.80127E-26
4.50840E-03 5.93349E-26
4.62608E-03 5.17714E-26
4.74527E-03 4.51848E-26
4.86597E-03 3.94538E-26
4.98817E-03 3.44717E-26
5.11188E-03 3.01445E-26
5.23711E-03 2.63894E-26
5.36383E-03 2.31335E-26
5.49207E-03 2.03128E-26
5.62181E-03 1.78708E-26
5.75306E-03 1.57582E-26
5.88581E-03 1.39316E-26
6.02007E-03 1.23529E-26
6.15583E-03 1.09888E-26
6.29310E-03 9.81025E-27
6.43187E-03 8.79166E-27
6.57214E-03 7.91091E-27
6.71392E-03 7.14864E-27
6.85720E-03 6.48804E-27
7.00198E-03 5.91452E-27
7.14827E-03 5.41543E-27
7.29605E-03 4.97983E-27
7.44534E-03 4.59829E-27
7.59612E-03 4.26270E-27
7.97965E-03 3.58147E-27
8.37255E-03 3.06269E-27
8.77480E-03 2.65060E-27
9.18641E-03 2.30902E-27
9.60736E-03 2.01525E-27
1.00376E-02 1.75554E-27
1.04773E-02 1.52200E-27
1.09262E-02 1.31036E-27
1.13844E-02 1.11848E-27
1.18520E-02 9.45339E-28
1.23288E-02 7.90404E-28
1.28150E-02 6.53231E-28
1.33104E-02 5.33263E-28
1.38150E-02 4.29739E-28
1.43290E-02 3.41669E-28
1.48521E-02 2.67867E-28
1.53845E-02 2.06998E-28
1.59262E-02 1.57633E-28
1.64770E-02 1.18316E-28
1.70371E-02 8.76069E-29
1.76063E-02 6.41330E-29
1.81848E-02 4.66170E-29
1.87724E-02 3.39021E-29
1.93692E-02 2.49655E-29
1.99751E-02 1.89235E-29
2.05901E-02 1.50303E-29
2.12143E-02 1.26719E-29
2.18476E-02 1.13559E-29
2.24900E-02 1.06984E-29
2.31415E-02 1.04109E-29
2.38021E-02 1.02852E-29
2.44717E-02 1.01797E-29
2.51504E-02 1.00062E-29
2.58382E-02 9.71773E-30
2.65349E-02 9.29784E-30
2.72407E-02 8.75176E-30
2.79555E-02 8.09874E-30
2.86793E-02 7.36596E-30
2.94120E-02 6.58388E-30
3.01537E-02 5.78281E-30
3.09043E-02 4.99042E-30
3.16639E-02 4.23032E-30
3.24324E-02 3.52118E-30
3.32098E-02 2.87655E-30
3.39961E-02 2.30498E-30
3.47912E-02 1.81053E-30
3.55952E-02 1.39337E-30
3.64081E-02 1.05053E-30
3.72297E-02 7.76660E-31
3.80602E-02 5.64757E-31
3.88995E-02 4.06817E-31
3.97476E-02 2.94416E-31
4.06044E-02 2.19184E-31
4.14700E-02 1.73172E-31
4.23443E-02 1.49125E-31
4.32273E-02 1.40653E-31
4.41190E-02 1.42332E-31
4.50194E-02 1.49727E-31
4.59284E-02 1.59369E-31
4.68461E-02 1.68686E-31
4.87074E-02 1.79948E-31
5.06030E-02 1.76878E-31
5.25328E-02 1.60039E-31
5.44967E-02 1.33751E-31
5.64946E-02 1.03451E-31
5.85262E-02 7.39682E-32
6.05914E-02 4.86720E-32
6.26901E-02 2.92688E-32
6.48222E-02 1.60257E-32
6.69873E-02 8.19903E-33
6.91854E-02 4.50461E-33
7.14163E-02 3.52010E-33
7.36799E-02 3.96953E-33
7.59760E-02 4.87995E-33
7.83043E-02 5.62852E-33
8.06647E-02 5.91169E-33
8.30571E-02 5.67051E-33
8.54812E-02 5.00148E-33
8.79369E-02 4.07394E-33
9.04240E-02 3.06625E-33
9.29422E-02 2.12501E-33
9.54915E-02 1.34595E-33
9.80716E-02 7.71845E-34
1.00682E-01 4.01410E-34
1.03323E-01 2.03450E-34
1.05995E-01 1.31752E-34
1.08696E-01 1.37657E-34
1.11427E-01 1.78848E-34
1.14188E-01 2.24073E-34
1.16978E-01 2.54361E-34
1.19797E-01 2.61734E-34
1.22645E-01 2.46489E-34
1.25522E-01 2.14021E-34
1.28428E-01 1.71899E-34
1.31361E-01 1.27598E-34
1.34323E-01 8.70718E-35
1.37313E-01 5.40998E-35
1.40330E-01 3.02645E-35
1.43375E-01 1.53379E-35
1.46447E-01 7.86694E-36
1.49545E-01 5.78652E-36
1.52671E-01 6.94214E-36
1.55823E-01 9.46095E-36
1.59001E-01 1.19567E-35
1.62205E-01 1.35880E-35
1.65435E-01 1.40081E-35
1.68690E-01 1.32496E-35
1.71970E-01 1.15847E-35
1.75276E-01 9.39310E-36
1.78606E-01 7.05523E-36
1.81961E-01 4.88242E-36
1.85340E-01 3.08174E-36
1.88743E-01 1.75083E-36
1.92169E-01 8.93243E-37
1.95619E-01 4.45182E-37
1.99092E-01 3.05219E-37
2.02589E-01 3.61112E-37
2.06107E-01 5.10167E-37
2.09649E-01 6.71849E-37
2.13212E-01 7.93014E-37
2.16797E-01 8.47243E-37
2.20404E-01 8.30181E-37
2.24032E-01 7.52909E-37
2.27680E-01 6.34973E-37
2.31350E-01 4.98280E-37
2.35040E-01 3.62571E-37
2.38751E-01 2.42698E-37
2.42481E-01 1.47546E-37
2.46231E-01 1.00000E-45
2.50000E-01 1.00000E-45
2.53788E-01 1.00000E-45
2.57595E-01 1.00000E-45
2.61421E-01 1.00000E-45
2.65264E-01 1.00000E-45
2.69126E-01 1.00000E-45
2.73005E-01 1.00000E-45
2.76901E-01 1.00000E-45
2.80814E-01 1.00000E-45
2.84744E-01 1.00000E-45
2.88691E-01 1.00000E-45
2.92653E-01 1.00000E-45
2.96632E-01 1.00000E-45
3.00625E-01 1.00000E-45
3.04634E-01 1.00000E-45
3.08658E-01 1.00000E-45
3.12697E-01 1.00000E-45
3.16749E-01 1.00000E-45
3.20816E-01 1.00000E-45
3.24896E-01 1.00000E-45
3.28990E-01 1.00000E-45
3.33097E-01 1.00000E-45
3.37216E-01 1.00000E-45
3.41348E-01 1.00000E-45
3.45492E-01 1.00000E-45
3.49647E-01 1.00000E-45
3.53814E-01 1.00000E-45
3.57992E-01 1.00000E-45
3.62181E-01 1.00000E-45
3.66381E-01 1.00000E-45
3.70590E-01 1.00000E-45
3.74810E-01 1.00000E-45
3.79039E-01 1.00000E-45
3.83277E-01 1.00000E-45
3.87524E-01 1.00000E-45
3.91780E-01 1.00000E-45
3.96044E-01 1.00000E-45
4.00316E-01 1.00000E-45
4.04596E-01 1.00000E-45
4.08882E-01 1.00000E-45
4.13176E-01 1.00000E-45
4.17476E-01 1.00000E-45
4.21783E-01 1.00000E-45
4.26095E-01 1.00000E-45
4.30413E-01 1.00000E-45
4.34737E-01 1.00000E-45
4.39065E-01 1.00000E-45
4.43398E-01 1.00000E-45
4.47736E-01 1.00000E-45
4.52077E-01 1.00000E-45
4.56422E-01 1.00000E-45
4.60770E-01 1.00000E-45
4.65122E-01 1.00000E-45
4.69476E-01 1.00000E-45
4.73832E-01 1.00000E-45
4.78190E-01 1.00000E-45
4.82550E-01 1.00000E-45
4.86912E-01 1.00000E-45
4.91274E-01 1.00000E-45
4.95637E-01 1.00000E-45
5.00000E-01 1.00000E-45
5.04363E-01 1.00000E-45
5.08726E-01 1.00000E-45
5.13088E-01 1.00000E-45
5.17450E-01 1.00000E-45
5.21810E-01 1.00000E-45
5.26168E-01 1.00000E-45
5.30524E-01 1.00000E-45
5.34878E-01 1.00000E-45
5.39230E-01 1.00000E-45
5.43578E-01 1.00000E-45
5.47923E-01 1.00000E-45
5.52264E-01 1.00000E-45
5.56602E-01 1.00000E-45
5.60935E-01 1.00000E-45
5.65263E-01 1.00000E-45
5.69587E-01 1.00000E-45
5.73905E-01 1.00000E-45
5.78217E-01 1.00000E-45
5.82524E-01 1.00000E-45
5.86824E-01 1.00000E-45
5.91118E-01 1.00000E-45
5.95404E-01 1.00000E-45
5.99684E-01 1.00000E-45
6.03956E-01 1.00000E-45
6.08220E-01 1.00000E-45
6.12476E-01 1.00000E-45
6.16723E-01 1.00000E-45
6.20961E-01 1.00000E-45
6.25190E-01 1.00000E-45
6.29410E-01 1.00000E-45
6.33619E-01 1.00000E-45
6.37819E-01 1.00000E-45
6.42008E-01 1.00000E-45
6.46186E-01 1.00000E-45
6.50353E-01 1.00000E-45
6.54508E-01 1.00000E-45
6.58652E-01 1.00000E-45
6.62784E-01 1.00000E-45
6.66903E-01 1.00000E-45
6.71010E-01 1.00000E-45
6.75104E-01 1.00000E-45
6.79184E-01 1.00000E-45
6.83251E-01 1.00000E-45
6.87303E-01 1.00000E-45
6.91342E-01 1.00000E-45
6.95366E-01 1.00000E-45
6.99375E-01 1.00000E-45
7.03368E-01 1.00000E-45
7.07347E-01 1.00000E-45
7.11309E-01 1.00000E-45
7.15256E-01 1.00000E-45
7.19186E-01 1.00000E-45
7.23099E-01 1.00000E-45
7.26995E-01 1.00000E-45
7.30874E-01 1.00000E-45
7.34736E-01 1.00000E-45
7.38579E-01 1.00000E-45
7.42405E-01 1.00000E-45
7.46212E-01 1.00000E-45
7.50000E-01 1.00000E-45
7.53769E-01 1.00000E-45
7.57519E-01 1.00000E-45
7.61249E-01 1.00000E-45
7.64960E-01 1.00000E-45
7.68650E-01 1.00000E-45
7.72320E-01 1.00000E-45
7.75968E-01 1.00000E-45
7.79596E-01 1.00000E-45
7.83203E-01 1.00000E-45
7.86788E-01 1.00000E-45
7.90351E-01 1.00000E-45
7.93893E-01 1.00000E-45
7.97411E-01 1.00000E-45
8.00908E-01 1.00000E-45
8.04381E-01 1.00000E-45
8.07831E-01 1.00000E-45
8.11257E-01 1.00000E-45
8.14660E-01 1.00000E-45
8.18039E-01 1.00000E-45
8.21394E-01 1.00000E-45
8.24724E-01 1.00000E-45
8.28030E-01 1.00000E-45
8.31310E-01 1.00000E-45
8.34565E-01 1.00000E-45
8.37795E-01 1.00000E-45
8.40999E-01 1.00000E-45
8.44177E-01 1.00000E-45
8.47329E-01 1.00000E-45
8.50455E-01 1.00000E-45
8.53553E-01 1.00000E-45
8.56625E-01 1.00000E-45
8.59670E-01 1.00000E-45
8.62687E-01 1.00000E-45
8.65677E-01 1.00000E-45
8.68639E-01 1.00000E-45
8.71572E-01 1.00000E-45
8.74478E-01 1.00000E-45
8.77355E-01 1.00000E-45
8.80203E-01 1.00000E-45
8.83022E-01 1.00000E-45
8.85812E-01 1.00000E-45
8.88573E-01 1.00000E-45
8.91304E-01 1.00000E-45
8.94005E-01 1.00000E-45
8.96677E-01 1.00000E-45
8.99318E-01 1.00000E-45
9.01928E-01 1.00000E-45
9.04508E-01 1.00000E-45
9.07058E-01 1.00000E-45
9.09576E-01 1.00000E-45
9.12063E-01 1.00000E-45
9.14519E-01 1.00000E-45
9.16943E-01 1.00000E-45
9.19335E-01 1.00000E-45
9.21696E-01 1.00000E-45
9.24024E-01 1.00000E-45
9.26320E-01 1.00000E-45
9.28584E-01 1.00000E-45
9.30815E-01 1.00000E-45
9.33013E-01 1.00000E-45
9.35178E-01 1.00000E-45
9.37310E-01 1.00000E-45
9.39409E-01 1.00000E-45
9.41474E-01 1.00000E-45
9.43505E-01 1.00000E-45
9.45503E-01 1.00000E-45
9.47467E-01 1.00000E-45
9.49397E-01 1.00000E-45
9.51293E-01 1.00000E-45
9.53154E-01 1.00000E-45
9.54981E-01 1.00000E-45
9.56773E-01 1.00000E-45
9.58530E-01 1.00000E-45
9.60252E-01 1.00000E-45
9.61940E-01 1.00000E-45
9.63592E-01 1.00000E-45
9.65209E-01 1.00000E-45
9.66790E-01 1.00000E-45
9.68336E-01 1.00000E-45
9.69846E-01 1.00000E-45
9.71321E-01 1.00000E-45
9.72759E-01 1.00000E-45
9.74162E-01 1.00000E-45
9.75528E-01 1.00000E-45
9.76858E-01 1.00000E-45
9.78152E-01 1.00000E-45
9.79410E-01 1.00000E-45
9.80631E-01 1.00000E-45
9.81815E-01 1.00000E-45
9.82963E-01 1.00000E-45
9.84074E-01 1.00000E-45
9.85148E-01 1.00000E-45
9.86185E-01 1.00000E-45
9.87185E-01 1.00000E-45
9.88148E-01 1.00000E-45
9.89074E-01 1.00000E-45
9.89962E-01 1.00000E-45
9.90814E-01 1.00000E-45
9.91627E-01 1.00000E-45
9.92404E-01 1.00000E-45
9.93143E-01 1.00000E-45
9.93844E-01 1.00000E-45
9.94508E-01 1.00000E-45
9.95134E-01 1.00000E-45
9.95722E-01 1.00000E-45
9.96273E-01 1.00000E-45
9.96786E-01 1.00000E-45
9.97261E-01 1.00000E-45
9.97698E-01 1.00000E-45
9.98097E-01 1.00000E-45
9.98459E-01 1.00000E-45
9.98782E-01 1.00000E-45
9.99067E-01 1.00000E-45
9.99315E-01 1.00000E-45
9.99524E-01 1.00000E-45
9.99695E-01 1.00000E-45
9.99829E-01 1.00000E-45
9.99924E-01 1.00000E-45
9.99981E-01 1.00000E-45
1.00000E+00 1.00000E-45
