 #
 # Subroutine ELSEPA. Elastic scattering of electrons and positrons
 #                    by neutral atoms and positive ions
 #
 # Projectile: electron
 # Kinetic energy = 4.00000E+07 eV = 1.46997E+06 a.u.
 #
 # WARNING: High-energy factorization with free-atom DF screening.
 #          Absorption, polarization and exchange corrections are
 #          switched off.
 #          Phase shifts are calculated for the bare nucleus.
 #          Scattering amplitudes are not evaluated.
 #
 # Element: Nd,  Z =  60,  atomic weight = 1.44240E+02 g/mol
 #
 # Nuclear model: Fermi distribution
 #                Average radius = 5.61150E-13 cm
 #                Skin thickness = 5.46000E-14 cm
 #
 # Number of electrons = 60
 #
 # Total elastic cross section = 7.26510E-18 cm**2 = 2.59442E-01 a0**2
 # 1st transport cross section = 4.26826E-24 cm**2 = 1.52422E-07 a0**2
 # 2nd transport cross section = 1.24183E-23 cm**2 = 4.43465E-07 a0**2
 #
 #
 # Differential cross section:                       MU=(1-COS(THETA))/2
 #
 #  THETA        MU          DCS          DCS        Sherman      error
 #  (deg)                 (cm**2/sr)   (a0**2/sr)    function
 #----------------------------------------------------------------------
0.00000E+00 1.67087E-10
7.61557E-13 1.66938E-10
1.18994E-12 1.66854E-10
1.71346E-12 1.66752E-10
2.33225E-12 1.66631E-10
3.04617E-12 1.66492E-10
3.85530E-12 1.66335E-10
4.75964E-12 1.66160E-10
5.75917E-12 1.65967E-10
6.85391E-12 1.65755E-10
8.04379E-12 1.65526E-10
9.32893E-12 1.65279E-10
1.07092E-11 1.65014E-10
1.21847E-11 1.64732E-10
1.37554E-11 1.64433E-10
1.54213E-11 1.64116E-10
1.71823E-11 1.63783E-10
1.90386E-11 1.63432E-10
2.09900E-11 1.63065E-10
2.30367E-11 1.62682E-10
2.51785E-11 1.62282E-10
2.74156E-11 1.61866E-10
2.97478E-11 1.61434E-10
3.21752E-11 1.60987E-10
3.46979E-11 1.60524E-10
3.73157E-11 1.60047E-10
4.00286E-11 1.59554E-10
4.28368E-11 1.59047E-10
4.57402E-11 1.58525E-10
4.87388E-11 1.57989E-10
5.18325E-11 1.57439E-10
5.50215E-11 1.56876E-10
5.83057E-11 1.56299E-10
6.16850E-11 1.55709E-10
6.51595E-11 1.55106E-10
6.87293E-11 1.54491E-10
7.23943E-11 1.53863E-10
7.61544E-11 1.53224E-10
1.18991E-10 1.46240E-10
1.71347E-10 1.38436E-10
2.33223E-10 1.30033E-10
3.04617E-10 1.21368E-10
3.85531E-10 1.12732E-10
4.75965E-10 1.04260E-10
5.75917E-10 9.61048E-11
6.85389E-10 8.84410E-11
8.04380E-10 8.13243E-11
9.32891E-10 7.47372E-11
1.07092E-09 6.86929E-11
1.21847E-09 6.32401E-11
1.37554E-09 5.83049E-11
1.54213E-09 5.38353E-11
1.71823E-09 4.97991E-11
1.90386E-09 4.61928E-11
2.09900E-09 4.29340E-11
2.30367E-09 3.99863E-11
2.51785E-09 3.73205E-11
2.74156E-09 3.49143E-11
2.97478E-09 3.27221E-11
3.21752E-09 3.07223E-11
3.46978E-09 2.88949E-11
3.73156E-09 2.72179E-11
4.00286E-09 2.56739E-11
4.28368E-09 2.42498E-11
4.57402E-09 2.29311E-11
4.87388E-09 2.17047E-11
5.18326E-09 2.05646E-11
5.50215E-09 1.95031E-11
5.83057E-09 1.85085E-11
6.16850E-09 1.75758E-11
6.51596E-09 1.67027E-11
6.87293E-09 1.58842E-11
7.23942E-09 1.51106E-11
7.61544E-09 1.43823E-11
1.18991E-08 8.99218E-12
1.71347E-08 5.77549E-12
2.33223E-08 3.92737E-12
3.04617E-08 2.75414E-12
3.85531E-08 1.98361E-12
4.75965E-08 1.46984E-12
5.75917E-08 1.11343E-12
6.85389E-08 8.54831E-13
8.04380E-08 6.64807E-13
9.32891E-08 5.24389E-13
1.07092E-07 4.18681E-13
1.21847E-07 3.37292E-13
1.37554E-07 2.74704E-13
1.54213E-07 2.26140E-13
1.71823E-07 1.88001E-13
1.90386E-07 1.57603E-13
2.09900E-07 1.33293E-13
2.30367E-07 1.13651E-13
2.51785E-07 9.76199E-14
2.74156E-07 8.43667E-14
2.97478E-07 7.33654E-14
3.21752E-07 6.41627E-14
3.46978E-07 5.64033E-14
3.73156E-07 4.97565E-14
4.00286E-07 4.40786E-14
4.28368E-07 3.92028E-14
4.57402E-07 3.49838E-14
4.87388E-07 3.13135E-14
5.18325E-07 2.81155E-14
5.50215E-07 2.53165E-14
5.83057E-07 2.28482E-14
6.16850E-07 2.06674E-14
6.51596E-07 1.87385E-14
6.87293E-07 1.70268E-14
7.23942E-07 1.54983E-14
7.61543E-07 1.41351E-14
1.18991E-06 6.19649E-15
1.71347E-06 3.12105E-15
2.33223E-06 1.74188E-15
3.04617E-06 1.04870E-15
3.85531E-06 6.68978E-16
4.75964E-06 4.46620E-16
5.75916E-06 3.09361E-16
6.85388E-06 2.20929E-16
8.04378E-06 1.61897E-16
9.32888E-06 1.21283E-16
1.07092E-05 9.26238E-17
1.21846E-05 7.19407E-17
1.37553E-05 5.67162E-17
1.54212E-05 4.53118E-17
1.71822E-05 3.66342E-17
1.90385E-05 2.99253E-17
2.09899E-05 2.47051E-17
2.30365E-05 2.05734E-17
2.51783E-05 1.72674E-17
2.74153E-05 1.45973E-17
2.97475E-05 1.24229E-17
3.21749E-05 1.06389E-17
3.46974E-05 9.16474E-18
3.73152E-05 7.93841E-18
4.00281E-05 6.91136E-18
4.28362E-05 6.04561E-18
4.57395E-05 5.31138E-18
4.87380E-05 4.68519E-18
5.18317E-05 4.14841E-18
5.50205E-05 3.68621E-18
5.83045E-05 3.28658E-18
6.16838E-05 2.93972E-18
6.51582E-05 2.63754E-18
6.87277E-05 2.37331E-18
7.23925E-05 2.14143E-18
7.61524E-05 1.93758E-18
9.21439E-05 1.32830E-18
1.09658E-04 9.40768E-19
1.28695E-04 6.84915E-19
1.49255E-04 5.10403E-19
1.71338E-04 3.88144E-19
1.94942E-04 3.00404E-19
2.20070E-04 2.36128E-19
2.46720E-04 1.88174E-19
2.74892E-04 1.51804E-19
3.04586E-04 1.23823E-19
3.35803E-04 1.02006E-19
3.68542E-04 8.47958E-20
4.02802E-04 7.10713E-20
4.38585E-04 6.00182E-20
4.75889E-04 5.10362E-20
5.14715E-04 4.36758E-20
5.55063E-04 3.75982E-20
5.96931E-04 3.25439E-20
6.40321E-04 2.83128E-20
6.85233E-04 2.47490E-20
7.31665E-04 2.17299E-20
7.79618E-04 1.91586E-20
8.29092E-04 1.69576E-20
8.80086E-04 1.50646E-20
9.32601E-04 1.34292E-20
9.86636E-04 1.20105E-20
1.04219E-03 1.07749E-20
1.09927E-03 9.69466E-21
1.15786E-03 8.74690E-21
1.21797E-03 7.91256E-21
1.27961E-03 7.17572E-21
1.34276E-03 6.52301E-21
1.40743E-03 5.94312E-21
1.47362E-03 5.42651E-21
1.54133E-03 4.96505E-21
1.61056E-03 4.55182E-21
1.68131E-03 4.18089E-21
1.75357E-03 3.84713E-21
1.82735E-03 3.54617E-21
1.90265E-03 3.27421E-21
1.97947E-03 3.02795E-21
2.05780E-03 2.80452E-21
2.13765E-03 2.60142E-21
2.21902E-03 2.41647E-21
2.30190E-03 2.24775E-21
2.38630E-03 2.09358E-21
2.47222E-03 1.95247E-21
2.55965E-03 1.82312E-21
2.64859E-03 1.70436E-21
2.73905E-03 1.59517E-21
2.83103E-03 1.49463E-21
2.92452E-03 1.40193E-21
3.01952E-03 1.31636E-21
3.11604E-03 1.23725E-21
3.21407E-03 1.16403E-21
3.31362E-03 1.09618E-21
3.41468E-03 1.03324E-21
3.51725E-03 9.74773E-22
3.62133E-03 9.20413E-22
3.72692E-03 8.69813E-22
3.83403E-03 8.22665E-22
3.94265E-03 7.78690E-22
4.05278E-03 7.37635E-22
4.16442E-03 6.99267E-22
4.27757E-03 6.63377E-22
4.39223E-03 6.29777E-22
4.50840E-03 5.98293E-22
4.62608E-03 5.68765E-22
4.74527E-03 5.41049E-22
4.86597E-03 5.15012E-22
4.98817E-03 4.90535E-22
5.11188E-03 4.67505E-22
5.23711E-03 4.45820E-22
5.36383E-03 4.25386E-22
5.49207E-03 4.06120E-22
5.62181E-03 3.87940E-22
5.75306E-03 3.70772E-22
5.88581E-03 3.54551E-22
6.02007E-03 3.39215E-22
6.15583E-03 3.24705E-22
6.29310E-03 3.10967E-22
6.43187E-03 2.97954E-22
6.57214E-03 2.85621E-22
6.71392E-03 2.73923E-22
6.85720E-03 2.62823E-22
7.00198E-03 2.52284E-22
7.14827E-03 2.42272E-22
7.29605E-03 2.32755E-22
7.44534E-03 2.23705E-22
7.59612E-03 2.15094E-22
7.97965E-03 1.95323E-22
8.37255E-03 1.77789E-22
8.77480E-03 1.62193E-22
9.18641E-03 1.48283E-22
9.60736E-03 1.35842E-22
1.00376E-02 1.24689E-22
1.04773E-02 1.14665E-22
1.09262E-02 1.05636E-22
1.13844E-02 9.74839E-23
1.18520E-02 9.01090E-23
1.23288E-02 8.34231E-23
1.28150E-02 7.73501E-23
1.33104E-02 7.18235E-23
1.38150E-02 6.67850E-23
1.43290E-02 6.21832E-23
1.48521E-02 5.79730E-23
1.53845E-02 5.41153E-23
1.59262E-02 5.05750E-23
1.64770E-02 4.73211E-23
1.70371E-02 4.43261E-23
1.76063E-02 4.15655E-23
1.81848E-02 3.90175E-23
1.87724E-02 3.66627E-23
1.93692E-02 3.44837E-23
1.99751E-02 3.24648E-23
2.05901E-02 3.05920E-23
2.12143E-02 2.88528E-23
2.18476E-02 2.72358E-23
2.24900E-02 2.57309E-23
2.31415E-02 2.43287E-23
2.38021E-02 2.30209E-23
2.44717E-02 2.18000E-23
2.51504E-02 2.06591E-23
2.58382E-02 1.95919E-23
2.65349E-02 1.85928E-23
2.72407E-02 1.76565E-23
2.79555E-02 1.67785E-23
2.86793E-02 1.59543E-23
2.94120E-02 1.51800E-23
3.01537E-02 1.44521E-23
3.09043E-02 1.37672E-23
3.16639E-02 1.31222E-23
3.24324E-02 1.25145E-23
3.32098E-02 1.19415E-23
3.39961E-02 1.14007E-23
3.47912E-02 1.08901E-23
3.55952E-02 1.04076E-23
3.64081E-02 9.95138E-24
3.72297E-02 9.51974E-24
3.80602E-02 9.11109E-24
3.88995E-02 8.72398E-24
3.97476E-02 8.35706E-24
4.06044E-02 8.00906E-24
4.14700E-02 7.67884E-24
4.23443E-02 7.36530E-24
4.32273E-02 7.06744E-24
4.41190E-02 6.78432E-24
4.50194E-02 6.51509E-24
4.59284E-02 6.25892E-24
4.68461E-02 6.01507E-24
4.87074E-02 5.56152E-24
5.06030E-02 5.14936E-24
5.25328E-02 4.77412E-24
5.44967E-02 4.43191E-24
5.64946E-02 4.11929E-24
5.85262E-02 3.83325E-24
6.05914E-02 3.57112E-24
6.26901E-02 3.33056E-24
6.48222E-02 3.10946E-24
6.69873E-02 2.90597E-24
6.91854E-02 2.71845E-24
7.14163E-02 2.54541E-24
7.36799E-02 2.38554E-24
7.59760E-02 2.23766E-24
7.83043E-02 2.10071E-24
8.06647E-02 1.97375E-24
8.30571E-02 1.85591E-24
8.54812E-02 1.74643E-24
8.79369E-02 1.64462E-24
9.04240E-02 1.54984E-24
9.29422E-02 1.46152E-24
9.54915E-02 1.37914E-24
9.80716E-02 1.30225E-24
1.00682E-01 1.23041E-24
1.03323E-01 1.16323E-24
1.05995E-01 1.10036E-24
1.08696E-01 1.04148E-24
1.11427E-01 9.86287E-25
1.14188E-01 9.34519E-25
1.16978E-01 8.85925E-25
1.19797E-01 8.40280E-25
1.22645E-01 7.97374E-25
1.25522E-01 7.57017E-25
1.28428E-01 7.19033E-25
1.31361E-01 6.83259E-25
1.34323E-01 6.49547E-25
1.37313E-01 6.17759E-25
1.40330E-01 5.87767E-25
1.43375E-01 5.59455E-25
1.46447E-01 5.32713E-25
1.49545E-01 5.07441E-25
1.52671E-01 4.83546E-25
1.55823E-01 4.60941E-25
1.59001E-01 4.39546E-25
1.62205E-01 4.19287E-25
1.65435E-01 4.00094E-25
1.68690E-01 3.81902E-25
1.71970E-01 3.64652E-25
1.75276E-01 3.48288E-25
1.78606E-01 3.32758E-25
1.81961E-01 3.18013E-25
1.85340E-01 3.04007E-25
1.88743E-01 2.90699E-25
1.92169E-01 2.78049E-25
1.95619E-01 2.66019E-25
1.99092E-01 2.54576E-25
2.02589E-01 2.43686E-25
2.06107E-01 2.33319E-25
2.09649E-01 2.23447E-25
2.13212E-01 2.14043E-25
2.16797E-01 2.05081E-25
2.20404E-01 1.96539E-25
2.24032E-01 1.88393E-25
2.27680E-01 1.80624E-25
2.31350E-01 1.73211E-25
2.35040E-01 1.66137E-25
2.38751E-01 1.59383E-25
2.42481E-01 1.52933E-25
2.46231E-01 1.46773E-25
2.50000E-01 1.40887E-25
2.53788E-01 1.35262E-25
2.57595E-01 1.29884E-25
2.61421E-01 1.24743E-25
2.65264E-01 1.19825E-25
2.69126E-01 1.15120E-25
2.73005E-01 1.10619E-25
2.76901E-01 1.06310E-25
2.80814E-01 1.02186E-25
2.84744E-01 9.82361E-26
2.88691E-01 9.44535E-26
2.92653E-01 9.08300E-26
2.96632E-01 8.73582E-26
3.00625E-01 8.40310E-26
3.04634E-01 8.08418E-26
3.08658E-01 7.77842E-26
3.12697E-01 7.48523E-26
3.16749E-01 7.20403E-26
3.20816E-01 6.93429E-26
3.24896E-01 6.67549E-26
3.28990E-01 6.42714E-26
3.33097E-01 6.18879E-26
3.37216E-01 5.95998E-26
3.41348E-01 5.74030E-26
3.45492E-01 5.52935E-26
3.49647E-01 5.32675E-26
3.53814E-01 5.13214E-26
3.57992E-01 4.94518E-26
3.62181E-01 4.76553E-26
3.66381E-01 4.59289E-26
3.70590E-01 4.42696E-26
3.74810E-01 4.26745E-26
3.79039E-01 4.11409E-26
3.83277E-01 3.96663E-26
3.87524E-01 3.82482E-26
3.91780E-01 3.68842E-26
3.96044E-01 3.55722E-26
4.00316E-01 3.43099E-26
4.04596E-01 3.30954E-26
4.08882E-01 3.19266E-26
4.13176E-01 3.08017E-26
4.17476E-01 2.97190E-26
4.21783E-01 2.86767E-26
4.26095E-01 2.76733E-26
4.30413E-01 2.67070E-26
4.34737E-01 2.57766E-26
4.39065E-01 2.48804E-26
4.43398E-01 2.40173E-26
4.47736E-01 2.31858E-26
4.52077E-01 2.23848E-26
4.56422E-01 2.16130E-26
4.60770E-01 2.08693E-26
4.65122E-01 2.01526E-26
4.69476E-01 1.94619E-26
4.73832E-01 1.87961E-26
4.78190E-01 1.81543E-26
4.82550E-01 1.75355E-26
4.86912E-01 1.69390E-26
4.91274E-01 1.63637E-26
4.95637E-01 1.58090E-26
5.00000E-01 1.52740E-26
5.04363E-01 1.47581E-26
5.08726E-01 1.42604E-26
5.13088E-01 1.37802E-26
5.17450E-01 1.33171E-26
5.21810E-01 1.28702E-26
5.26168E-01 1.24390E-26
5.30524E-01 1.20228E-26
5.34878E-01 1.16213E-26
5.39230E-01 1.12337E-26
5.43578E-01 1.08596E-26
5.47923E-01 1.04986E-26
5.52264E-01 1.01500E-26
5.56602E-01 9.81346E-27
5.60935E-01 9.48856E-27
5.65263E-01 9.17484E-27
5.69587E-01 8.87190E-27
5.73905E-01 8.57936E-27
5.78217E-01 8.29683E-27
5.82524E-01 8.02396E-27
5.86824E-01 7.76039E-27
5.91118E-01 7.50579E-27
5.95404E-01 7.25985E-27
5.99684E-01 7.02224E-27
6.03956E-01 6.79267E-27
6.08220E-01 6.57086E-27
6.12476E-01 6.35653E-27
6.16723E-01 6.14941E-27
6.20961E-01 5.94925E-27
6.25190E-01 5.75581E-27
6.29410E-01 5.56884E-27
6.33619E-01 5.38811E-27
6.37819E-01 5.21342E-27
6.42008E-01 5.04454E-27
6.46186E-01 4.88128E-27
6.50353E-01 4.72344E-27
6.54508E-01 4.57082E-27
6.58652E-01 4.42325E-27
6.62784E-01 4.28055E-27
6.66903E-01 4.14256E-27
6.71010E-01 4.00910E-27
6.75104E-01 3.88003E-27
6.79184E-01 3.75519E-27
6.83251E-01 3.63444E-27
6.87303E-01 3.51763E-27
6.91342E-01 3.40464E-27
6.95366E-01 3.29532E-27
6.99375E-01 3.18956E-27
7.03368E-01 3.08723E-27
7.07347E-01 2.98822E-27
7.11309E-01 2.89241E-27
7.15256E-01 2.79970E-27
7.19186E-01 2.70998E-27
7.23099E-01 2.62314E-27
7.26995E-01 2.53910E-27
7.30874E-01 2.45776E-27
7.34736E-01 2.37902E-27
7.38579E-01 2.30280E-27
7.42405E-01 2.22901E-27
7.46212E-01 2.15758E-27
7.50000E-01 2.08842E-27
7.53769E-01 2.02146E-27
7.57519E-01 1.95662E-27
7.61249E-01 1.89384E-27
7.64960E-01 1.83305E-27
7.68650E-01 1.77417E-27
7.72320E-01 1.71715E-27
7.75968E-01 1.66193E-27
7.79596E-01 1.60844E-27
7.83203E-01 1.55663E-27
7.86788E-01 1.50644E-27
7.90351E-01 1.45783E-27
7.93893E-01 1.41073E-27
7.97411E-01 1.36510E-27
8.00908E-01 1.32090E-27
8.04381E-01 1.27806E-27
8.07831E-01 1.23656E-27
8.11257E-01 1.19635E-27
8.14660E-01 1.15738E-27
8.18039E-01 1.11961E-27
8.21394E-01 1.08301E-27
8.24724E-01 1.04754E-27
8.28030E-01 1.01316E-27
8.31310E-01 9.79833E-28
8.34565E-01 9.47532E-28
8.37795E-01 9.16222E-28
8.40999E-01 8.85869E-28
8.44177E-01 8.56445E-28
8.47329E-01 8.27919E-28
8.50455E-01 8.00263E-28
8.53553E-01 7.73449E-28
8.56625E-01 7.47451E-28
8.59670E-01 7.22243E-28
8.62687E-01 6.97800E-28
8.65677E-01 6.74099E-28
8.68639E-01 6.51115E-28
8.71572E-01 6.28827E-28
8.74478E-01 6.07213E-28
8.77355E-01 5.86251E-28
8.80203E-01 5.65922E-28
8.83022E-01 5.46207E-28
8.85812E-01 5.27086E-28
8.88573E-01 5.08541E-28
8.91304E-01 4.90554E-28
8.94005E-01 4.73109E-28
8.96677E-01 4.56188E-28
8.99318E-01 4.39777E-28
9.01928E-01 4.23859E-28
9.04508E-01 4.08421E-28
9.07058E-01 3.93446E-28
9.09576E-01 3.78922E-28
9.12063E-01 3.64835E-28
9.14519E-01 3.51173E-28
9.16943E-01 3.37922E-28
9.19335E-01 3.25071E-28
9.21696E-01 3.12607E-28
9.24024E-01 3.00520E-28
9.26320E-01 2.88799E-28
9.28584E-01 2.77434E-28
9.30815E-01 2.66413E-28
9.33013E-01 2.55727E-28
9.35178E-01 2.45367E-28
9.37310E-01 2.35324E-28
9.39409E-01 2.25588E-28
9.41474E-01 2.16151E-28
9.43505E-01 2.07006E-28
9.45503E-01 1.98143E-28
9.47467E-01 1.89555E-28
9.49397E-01 1.81235E-28
9.51293E-01 1.73176E-28
9.53154E-01 1.65370E-28
9.54981E-01 1.57811E-28
9.56773E-01 1.50493E-28
9.58530E-01 1.43409E-28
9.60252E-01 1.36554E-28
9.61940E-01 1.29920E-28
9.63592E-01 1.23504E-28
9.65209E-01 1.17300E-28
9.66790E-01 1.11302E-28
9.68336E-01 1.05505E-28
9.69846E-01 9.99050E-29
9.71321E-01 9.44970E-29
9.72759E-01 8.92764E-29
9.74162E-01 8.42392E-29
9.75528E-01 7.93811E-29
9.76858E-01 7.46981E-29
9.78152E-01 7.01866E-29
9.79410E-01 6.58427E-29
9.80631E-01 6.16631E-29
9.81815E-01 5.76444E-29
9.82963E-01 5.37832E-29
9.84074E-01 5.00766E-29
9.85148E-01 4.65216E-29
9.86185E-01 4.31153E-29
9.87185E-01 3.98551E-29
9.88148E-01 3.67383E-29
9.89074E-01 3.37625E-29
9.89962E-01 3.09254E-29
9.90814E-01 2.82247E-29
9.91627E-01 2.56584E-29
9.92404E-01 2.32243E-29
9.93143E-01 2.09206E-29
9.93844E-01 1.87456E-29
9.94508E-01 1.66975E-29
9.95134E-01 1.47747E-29
9.95722E-01 1.29757E-29
9.96273E-01 1.12992E-29
9.96786E-01 9.74380E-30
9.97261E-01 8.30839E-30
9.97698E-01 6.99183E-30
9.98097E-01 5.79310E-30
9.98459E-01 4.71129E-30
9.98782E-01 3.74557E-30
9.99067E-01 2.89519E-30
9.99315E-01 2.15950E-30
9.99524E-01 1.53795E-30
9.99695E-01 1.03005E-30
9.99829E-01 6.35422E-31
9.99924E-01 3.53758E-31
9.99981E-01 1.84847E-31
1.00000E+00 1.28556E-31
