 #
 # Subroutine ELSEPA. Elastic scattering of electrons and positrons
 #                    by neutral atoms and positive ions
 #
 # Projectile: electron
 # Kinetic energy = 6.00000E+08 eV = 2.20496E+07 a.u.
 #
 # WARNING: High-energy factorization with free-atom DF screening.
 #          Absorption, polarization and exchange corrections are
 #          switched off.
 #          Phase shifts are calculated for the bare nucleus.
 #          Scattering amplitudes are not evaluated.
 #
 # Element: Nd,  Z =  60,  atomic weight = 1.44240E+02 g/mol
 #
 # Nuclear model: Fermi distribution
 #                Average radius = 5.61150E-13 cm
 #                Skin thickness = 5.46000E-14 cm
 #
 # Number of electrons = 60
 #
 # Total elastic cross section = 7.23585E-18 cm**2 = 2.58397E-01 a0**2
 # 1st transport cross section = 1.93520E-26 cm**2 = 6.91072E-10 a0**2
 # 2nd transport cross section = 5.80404E-26 cm**2 = 2.07266E-09 a0**2
 #
 #
 # Differential cross section:                       MU=(1-COS(THETA))/2
 #
 #  THETA        MU          DCS          DCS        Sherman      error
 #  (deg)                 (cm**2/sr)   (a0**2/sr)    function
 #----------------------------------------------------------------------
0.00000E+00 3.67146E-08
7.61557E-13 3.05438E-08
1.18994E-12 2.77962E-08
1.71346E-12 2.49705E-08
2.33225E-12 2.22242E-08
3.04617E-12 1.96657E-08
3.85530E-12 1.73556E-08
4.75964E-12 1.53163E-08
5.75917E-12 1.35463E-08
6.85391E-12 1.20249E-08
8.04379E-12 1.07203E-08
9.32893E-12 9.60246E-09
1.07092E-11 8.64275E-09
1.21847E-11 7.81534E-09
1.37554E-11 7.09798E-09
1.54213E-11 6.47198E-09
1.71823E-11 5.92197E-09
1.90386E-11 5.43538E-09
2.09900E-11 5.00210E-09
2.30367E-11 4.61353E-09
2.51785E-11 4.26336E-09
2.74156E-11 3.94644E-09
2.97478E-11 3.65847E-09
3.21752E-11 3.39596E-09
3.46979E-11 3.15597E-09
3.73157E-11 2.93608E-09
4.00286E-11 2.73421E-09
4.28368E-11 2.54859E-09
4.57402E-11 2.37770E-09
4.87388E-11 2.22011E-09
5.18325E-11 2.07450E-09
5.50215E-11 1.94009E-09
5.83057E-11 1.81593E-09
6.16850E-11 1.70115E-09
6.51595E-11 1.59145E-09
6.87293E-11 1.48705E-09
7.23943E-11 1.39253E-09
7.61544E-11 1.30677E-09
1.18991E-10 7.39526E-10
1.71347E-10 4.50244E-10
2.33223E-10 2.89976E-10
3.04617E-10 1.94536E-10
3.85531E-10 1.34623E-10
4.75965E-10 9.56286E-11
5.75917E-10 6.95457E-11
6.85389E-10 5.17276E-11
8.04380E-10 3.93192E-11
9.32891E-10 3.04866E-11
1.07092E-09 2.40621E-11
1.21847E-09 1.92908E-11
1.37554E-09 1.56771E-11
1.54213E-09 1.28943E-11
1.71823E-09 1.07074E-11
1.90386E-09 8.96844E-12
2.09900E-09 7.57145E-12
2.30367E-09 6.43577E-12
2.51785E-09 5.50409E-12
2.74156E-09 4.73318E-12
2.97478E-09 4.09046E-12
3.21752E-09 3.55124E-12
3.46978E-09 3.09646E-12
3.73156E-09 2.71114E-12
4.00286E-09 2.38328E-12
4.28368E-09 2.10311E-12
4.57402E-09 1.86268E-12
4.87388E-09 1.65544E-12
5.18326E-09 1.47600E-12
5.50215E-09 1.32010E-12
5.83057E-09 1.18418E-12
6.16850E-09 1.06528E-12
6.51596E-09 9.60737E-13
6.87293E-09 8.68662E-13
7.23942E-09 7.87688E-13
7.61544E-09 7.16233E-13
1.18991E-08 3.07610E-13
1.71347E-08 1.53536E-13
2.33223E-08 8.49679E-14
3.04617E-08 5.07114E-14
3.85531E-08 3.20793E-14
4.75965E-08 2.12586E-14
5.75917E-08 1.46335E-14
6.85389E-08 1.03970E-14
8.04380E-08 7.58769E-15
9.32891E-08 5.66623E-15
1.07092E-07 4.31636E-15
1.21847E-07 3.34565E-15
1.37554E-07 2.63323E-15
1.54213E-07 2.10083E-15
1.71823E-07 1.69650E-15
1.90386E-07 1.38496E-15
2.09900E-07 1.14179E-15
2.30367E-07 9.49737E-16
2.51785E-07 7.96428E-16
2.74156E-07 6.72842E-16
2.97478E-07 5.72327E-16
3.21752E-07 4.89900E-16
3.46978E-07 4.21790E-16
3.73156E-07 3.65112E-16
4.00286E-07 3.17641E-16
4.28368E-07 2.77638E-16
4.57402E-07 2.43737E-16
4.87388E-07 2.14854E-16
5.18325E-07 1.90123E-16
5.50215E-07 1.68849E-16
5.83057E-07 1.50468E-16
6.16850E-07 1.34520E-16
6.51596E-07 1.20629E-16
6.87293E-07 1.08485E-16
7.23942E-07 9.78305E-17
7.61543E-07 8.84521E-17
1.18991E-06 3.63603E-17
1.71347E-06 1.75716E-17
2.33223E-06 9.49738E-18
3.04617E-06 5.57235E-18
3.85531E-06 3.48118E-18
4.75964E-06 2.28522E-18
5.75916E-06 1.56152E-18
6.85388E-06 1.10295E-18
8.04378E-06 8.01035E-19
9.32888E-06 5.95720E-19
1.07092E-05 4.52176E-19
1.21846E-05 3.49383E-19
1.37553E-05 2.74215E-19
1.54212E-05 2.18221E-19
1.71822E-05 1.75820E-19
1.90385E-05 1.43178E-19
2.09899E-05 1.17873E-19
2.30365E-05 9.79090E-20
2.51783E-05 8.19830E-20
2.74153E-05 6.91550E-20
2.97475E-05 5.87347E-20
3.21749E-05 5.02051E-20
3.46974E-05 4.31727E-20
3.73152E-05 3.73341E-20
4.00281E-05 3.24535E-20
4.28362E-05 2.83468E-20
4.57395E-05 2.48699E-20
4.87380E-05 2.19094E-20
5.18317E-05 1.93756E-20
5.50205E-05 1.71970E-20
5.83045E-05 1.53160E-20
6.16838E-05 1.36855E-20
6.51582E-05 1.22669E-20
6.87277E-05 1.10277E-20
7.23925E-05 9.94155E-21
7.61524E-05 9.05813E-21
9.21439E-05 6.18920E-21
1.09658E-04 4.36946E-21
1.28695E-04 3.17080E-21
1.49255E-04 2.35488E-21
1.71338E-04 1.78429E-21
1.94942E-04 1.37550E-21
2.20070E-04 1.07654E-21
2.46720E-04 8.53877E-22
2.74892E-04 6.85309E-22
3.04586E-04 5.55862E-22
3.35803E-04 4.55147E-22
3.68542E-04 3.75874E-22
4.02802E-04 3.12813E-22
4.38585E-04 2.62163E-22
4.75889E-04 2.21124E-22
5.14715E-04 1.87602E-22
5.55063E-04 1.60019E-22
5.96931E-04 1.37166E-22
6.40321E-04 1.18113E-22
6.85233E-04 1.02135E-22
7.31665E-04 8.86626E-23
7.79618E-04 7.72458E-23
8.29092E-04 6.75252E-23
8.80086E-04 5.92124E-23
9.32601E-04 5.20744E-23
9.86636E-04 4.59213E-23
1.04219E-03 4.05982E-23
1.09927E-03 3.59775E-23
1.15786E-03 3.19536E-23
1.21797E-03 2.84390E-23
1.27961E-03 2.53604E-23
1.34276E-03 2.26566E-23
1.40743E-03 2.02760E-23
1.47362E-03 1.81749E-23
1.54133E-03 1.63163E-23
1.61056E-03 1.46688E-23
1.68131E-03 1.32054E-23
1.75357E-03 1.19030E-23
1.82735E-03 1.07419E-23
1.90265E-03 9.70493E-24
1.97947E-03 8.77730E-24
2.05780E-03 7.94621E-24
2.13765E-03 7.20052E-24
2.21902E-03 6.53053E-24
2.30190E-03 5.92776E-24
2.38630E-03 5.38479E-24
2.47222E-03 4.89510E-24
2.55965E-03 4.45296E-24
2.64859E-03 4.05334E-24
2.73905E-03 3.69177E-24
2.83103E-03 3.36432E-24
2.92452E-03 3.06751E-24
3.01952E-03 2.79822E-24
3.11604E-03 2.55372E-24
3.21407E-03 2.33154E-24
3.31362E-03 2.12951E-24
3.41468E-03 1.94566E-24
3.51725E-03 1.77826E-24
3.62133E-03 1.62575E-24
3.72692E-03 1.48670E-24
3.83403E-03 1.35988E-24
3.94265E-03 1.24414E-24
4.05278E-03 1.13847E-24
4.16442E-03 1.04195E-24
4.27757E-03 9.53756E-25
4.39223E-03 8.73132E-25
4.50840E-03 7.99404E-25
4.62608E-03 7.31962E-25
4.74527E-03 6.70252E-25
4.86597E-03 6.13770E-25
4.98817E-03 5.62063E-25
5.11188E-03 5.14716E-25
5.23711E-03 4.71353E-25
5.36383E-03 4.31632E-25
5.49207E-03 3.95243E-25
5.62181E-03 3.61901E-25
5.75306E-03 3.31348E-25
5.88581E-03 3.03350E-25
6.02007E-03 2.77690E-25
6.15583E-03 2.54174E-25
6.29310E-03 2.32621E-25
6.43187E-03 2.12868E-25
6.57214E-03 1.94765E-25
6.71392E-03 1.78175E-25
6.85720E-03 1.62973E-25
7.00198E-03 1.49043E-25
7.14827E-03 1.36281E-25
7.29605E-03 1.24590E-25
7.44534E-03 1.13882E-25
7.59612E-03 1.04076E-25
7.97965E-03 8.30315E-26
8.37255E-03 6.61707E-26
8.77480E-03 5.26824E-26
9.18641E-03 4.19113E-26
9.60736E-03 3.33271E-26
1.00376E-02 2.65007E-26
1.04773E-02 2.10848E-26
1.09262E-02 1.67986E-26
1.13844E-02 1.34147E-26
1.18520E-02 1.07500E-26
1.23288E-02 8.65628E-27
1.28150E-02 7.01464E-27
1.33104E-02 5.72942E-27
1.38150E-02 4.72403E-27
1.43290E-02 3.93734E-27
1.48521E-02 3.32071E-27
1.53845E-02 2.83564E-27
1.59262E-02 2.45178E-27
1.64770E-02 2.14536E-27
1.70371E-02 1.89786E-27
1.76063E-02 1.69498E-27
1.81848E-02 1.52576E-27
1.87724E-02 1.38187E-27
1.93692E-02 1.25708E-27
1.99751E-02 1.14675E-27
2.05901E-02 1.04752E-27
2.12143E-02 9.56968E-28
2.18476E-02 8.73389E-28
2.24900E-02 7.95623E-28
2.31415E-02 7.22899E-28
2.38021E-02 6.54721E-28
2.44717E-02 5.90782E-28
2.51504E-02 5.30902E-28
2.58382E-02 4.74972E-28
2.65349E-02 4.22926E-28
2.72407E-02 3.74709E-28
2.79555E-02 3.30265E-28
2.86793E-02 2.89521E-28
2.94120E-02 2.52387E-28
3.01537E-02 2.18750E-28
3.09043E-02 1.88472E-28
3.16639E-02 1.61398E-28
3.24324E-02 1.37353E-28
3.32098E-02 1.16148E-28
3.39961E-02 9.75828E-29
3.47912E-02 8.14531E-29
3.55952E-02 6.75504E-29
3.64081E-02 5.56671E-29
3.72297E-02 4.55996E-29
3.80602E-02 3.71506E-29
3.88995E-02 3.01316E-29
3.97476E-02 2.43644E-29
4.06044E-02 1.96825E-29
4.14700E-02 1.59319E-29
4.23443E-02 1.29717E-29
4.32273E-02 1.06744E-29
4.41190E-02 8.92570E-30
4.50194E-02 7.62423E-30
4.59284E-02 6.68113E-30
4.68461E-02 6.01933E-30
4.87074E-02 5.28597E-30
5.06030E-02 5.01365E-30
5.25328E-02 4.92678E-30
5.44967E-02 4.85595E-30
5.64946E-02 4.71118E-30
5.85262E-02 4.45838E-30
6.05914E-02 4.09978E-30
6.26901E-02 3.65846E-30
6.48222E-02 3.16690E-30
6.69873E-02 2.65891E-30
6.91854E-02 2.16459E-30
7.14163E-02 1.70757E-30
7.36799E-02 1.30398E-30
7.59760E-02 9.62696E-31
7.83043E-02 6.86210E-31
8.06647E-02 4.72030E-31
8.30571E-02 3.14108E-31
8.54812E-02 2.04242E-31
8.79369E-02 1.33273E-31
9.04240E-02 9.20479E-32
9.29422E-02 7.21110E-32
9.54915E-02 6.61492E-32
9.80716E-02 6.82166E-32
1.00682E-01 7.37860E-32
1.03323E-01 7.96704E-32
1.05995E-01 8.38589E-32
1.08696E-01 8.53063E-32
1.11427E-01 8.37056E-32
1.14188E-01 7.92694E-32
1.16978E-01 7.25337E-32
1.19797E-01 6.41951E-32
1.22645E-01 5.49852E-32
1.25522E-01 4.55804E-32
1.28428E-01 3.65461E-32
1.31361E-01 2.83076E-32
1.34323E-01 2.11443E-32
1.37313E-01 1.51990E-32
1.40330E-01 1.04977E-32
1.43375E-01 6.97551E-33
1.46447E-01 4.50305E-33
1.49545E-01 2.91248E-33
1.52671E-01 2.01974E-33
1.55823E-01 1.64260E-33
1.59001E-01 1.61391E-33
1.62205E-01 1.79026E-33
1.65435E-01 2.05649E-33
1.68690E-01 2.32678E-33
1.71970E-01 2.54314E-33
1.75276E-01 2.67212E-33
1.78606E-01 2.70042E-33
1.81961E-01 2.63012E-33
1.85340E-01 2.47398E-33
1.88743E-01 2.25115E-33
1.92169E-01 1.98356E-33
1.95619E-01 1.69310E-33
1.99092E-01 1.39952E-33
2.02589E-01 1.11921E-33
2.06107E-01 8.64446E-34
2.09649E-01 6.43351E-34
2.13212E-01 4.60119E-34
2.16797E-01 3.15565E-34
2.20404E-01 2.07810E-34
2.24032E-01 1.33029E-34
2.27680E-01 8.61677E-35
2.31350E-01 6.15902E-35
2.35040E-01 5.36186E-35
2.38751E-01 5.69447E-35
2.42481E-01 6.69170E-35
2.46231E-01 7.97091E-35
2.50000E-01 9.23870E-35
2.53788E-01 1.02893E-34
2.57595E-01 1.09970E-34
2.61421E-01 1.13045E-34
2.65264E-01 1.12091E-34
2.69126E-01 1.07485E-34
2.73005E-01 9.98693E-35
2.76901E-01 9.00292E-35
2.80814E-01 7.87915E-35
2.84744E-01 6.69450E-35
2.88691E-01 5.51844E-35
2.92653E-01 4.40753E-35
2.96632E-01 3.40383E-35
3.00625E-01 2.53480E-35
3.04634E-01 1.81434E-35
3.08658E-01 1.24464E-35
3.12697E-01 8.18518E-36
3.16749E-01 5.21810E-36
3.20816E-01 3.35855E-36
3.24896E-01 2.39659E-36
3.28990E-01 2.11775E-36
3.33097E-01 2.31784E-36
3.37216E-01 2.81373E-36
3.41348E-01 3.45031E-36
3.45492E-01 4.10398E-36
3.49647E-01 4.68322E-36
3.53814E-01 5.12691E-36
3.57992E-01 5.40108E-36
3.62181E-01 5.49448E-36
3.66381E-01 5.41382E-36
3.70590E-01 5.17892E-36
3.74810E-01 4.81801E-36
3.79039E-01 4.36377E-36
3.83277E-01 3.84984E-36
3.87524E-01 3.30824E-36
3.91780E-01 2.76734E-36
3.96044E-01 2.25073E-36
4.00316E-01 1.77656E-36
4.04596E-01 1.35743E-36
4.08882E-01 1.00067E-36
4.13176E-01 7.08962E-37
4.17476E-01 4.81051E-37
4.21783E-01 3.12625E-37
4.26095E-01 1.97168E-37
4.30413E-01 1.26789E-37
4.34737E-01 9.29465E-38
4.39065E-01 8.70663E-38
4.43398E-01 1.01031E-37
4.47736E-01 1.27536E-37
4.52077E-01 1.60321E-37
4.56422E-01 1.94286E-37
4.60770E-01 2.25529E-37
4.65122E-01 2.51293E-37
4.69476E-01 2.69863E-37
4.73832E-01 2.80427E-37
4.78190E-01 2.82925E-37
4.82550E-01 2.77870E-37
4.86912E-01 2.66189E-37
4.91274E-01 2.49082E-37
4.95637E-01 2.27880E-37
5.00000E-01 2.03936E-37
5.04363E-01 1.78544E-37
5.08726E-01 1.52865E-37
5.13088E-01 1.27894E-37
5.17450E-01 1.04427E-37
5.21810E-01 8.30592E-38
5.26168E-01 6.41911E-38
5.30524E-01 4.80401E-38
5.34878E-01 3.46677E-38
5.39230E-01 1.00000E-45
5.43578E-01 1.00000E-45
5.47923E-01 1.00000E-45
5.52264E-01 1.00000E-45
5.56602E-01 1.00000E-45
5.60935E-01 1.00000E-45
5.65263E-01 1.00000E-45
5.69587E-01 1.00000E-45
5.73905E-01 1.00000E-45
5.78217E-01 1.00000E-45
5.82524E-01 1.00000E-45
5.86824E-01 1.00000E-45
5.91118E-01 1.00000E-45
5.95404E-01 1.00000E-45
5.99684E-01 1.00000E-45
6.03956E-01 1.00000E-45
6.08220E-01 1.00000E-45
6.12476E-01 1.00000E-45
6.16723E-01 1.00000E-45
6.20961E-01 1.00000E-45
6.25190E-01 1.00000E-45
6.29410E-01 1.00000E-45
6.33619E-01 1.00000E-45
6.37819E-01 1.00000E-45
6.42008E-01 1.00000E-45
6.46186E-01 1.00000E-45
6.50353E-01 1.00000E-45
6.54508E-01 1.00000E-45
6.58652E-01 1.00000E-45
6.62784E-01 1.00000E-45
6.66903E-01 1.00000E-45
6.71010E-01 1.00000E-45
6.75104E-01 1.00000E-45
6.79184E-01 1.00000E-45
6.83251E-01 1.00000E-45
6.87303E-01 1.00000E-45
6.91342E-01 1.00000E-45
6.95366E-01 1.00000E-45
6.99375E-01 1.00000E-45
7.03368E-01 1.00000E-45
7.07347E-01 1.00000E-45
7.11309E-01 1.00000E-45
7.15256E-01 1.00000E-45
7.19186E-01 1.00000E-45
7.23099E-01 1.00000E-45
7.26995E-01 1.00000E-45
7.30874E-01 1.00000E-45
7.34736E-01 1.00000E-45
7.38579E-01 1.00000E-45
7.42405E-01 1.00000E-45
7.46212E-01 1.00000E-45
7.50000E-01 1.00000E-45
7.53769E-01 1.00000E-45
7.57519E-01 1.00000E-45
7.61249E-01 1.00000E-45
7.64960E-01 1.00000E-45
7.68650E-01 1.00000E-45
7.72320E-01 1.00000E-45
7.75968E-01 1.00000E-45
7.79596E-01 1.00000E-45
7.83203E-01 1.00000E-45
7.86788E-01 1.00000E-45
7.90351E-01 1.00000E-45
7.93893E-01 1.00000E-45
7.97411E-01 1.00000E-45
8.00908E-01 1.00000E-45
8.04381E-01 1.00000E-45
8.07831E-01 1.00000E-45
8.11257E-01 1.00000E-45
8.14660E-01 1.00000E-45
8.18039E-01 1.00000E-45
8.21394E-01 1.00000E-45
8.24724E-01 1.00000E-45
8.28030E-01 1.00000E-45
8.31310E-01 1.00000E-45
8.34565E-01 1.00000E-45
8.37795E-01 1.00000E-45
8.40999E-01 1.00000E-45
8.44177E-01 1.00000E-45
8.47329E-01 1.00000E-45
8.50455E-01 1.00000E-45
8.53553E-01 1.00000E-45
8.56625E-01 1.00000E-45
8.59670E-01 1.00000E-45
8.62687E-01 1.00000E-45
8.65677E-01 1.00000E-45
8.68639E-01 1.00000E-45
8.71572E-01 1.00000E-45
8.74478E-01 1.00000E-45
8.77355E-01 1.00000E-45
8.80203E-01 1.00000E-45
8.83022E-01 1.00000E-45
8.85812E-01 1.00000E-45
8.88573E-01 1.00000E-45
8.91304E-01 1.00000E-45
8.94005E-01 1.00000E-45
8.96677E-01 1.00000E-45
8.99318E-01 1.00000E-45
9.01928E-01 1.00000E-45
9.04508E-01 1.00000E-45
9.07058E-01 1.00000E-45
9.09576E-01 1.00000E-45
9.12063E-01 1.00000E-45
9.14519E-01 1.00000E-45
9.16943E-01 1.00000E-45
9.19335E-01 1.00000E-45
9.21696E-01 1.00000E-45
9.24024E-01 1.00000E-45
9.26320E-01 1.00000E-45
9.28584E-01 1.00000E-45
9.30815E-01 1.00000E-45
9.33013E-01 1.00000E-45
9.35178E-01 1.00000E-45
9.37310E-01 1.00000E-45
9.39409E-01 1.00000E-45
9.41474E-01 1.00000E-45
9.43505E-01 1.00000E-45
9.45503E-01 1.00000E-45
9.47467E-01 1.00000E-45
9.49397E-01 1.00000E-45
9.51293E-01 1.00000E-45
9.53154E-01 1.00000E-45
9.54981E-01 1.00000E-45
9.56773E-01 1.00000E-45
9.58530E-01 1.00000E-45
9.60252E-01 1.00000E-45
9.61940E-01 1.00000E-45
9.63592E-01 1.00000E-45
9.65209E-01 1.00000E-45
9.66790E-01 1.00000E-45
9.68336E-01 1.00000E-45
9.69846E-01 1.00000E-45
9.71321E-01 1.00000E-45
9.72759E-01 1.00000E-45
9.74162E-01 1.00000E-45
9.75528E-01 1.00000E-45
9.76858E-01 1.00000E-45
9.78152E-01 1.00000E-45
9.79410E-01 1.00000E-45
9.80631E-01 1.00000E-45
9.81815E-01 1.00000E-45
9.82963E-01 1.00000E-45
9.84074E-01 1.00000E-45
9.85148E-01 1.00000E-45
9.86185E-01 1.00000E-45
9.87185E-01 1.00000E-45
9.88148E-01 1.00000E-45
9.89074E-01 1.00000E-45
9.89962E-01 1.00000E-45
9.90814E-01 1.00000E-45
9.91627E-01 1.00000E-45
9.92404E-01 1.00000E-45
9.93143E-01 1.00000E-45
9.93844E-01 1.00000E-45
9.94508E-01 1.00000E-45
9.95134E-01 1.00000E-45
9.95722E-01 1.00000E-45
9.96273E-01 1.00000E-45
9.96786E-01 1.00000E-45
9.97261E-01 1.00000E-45
9.97698E-01 1.00000E-45
9.98097E-01 1.00000E-45
9.98459E-01 1.00000E-45
9.98782E-01 1.00000E-45
9.99067E-01 1.00000E-45
9.99315E-01 1.00000E-45
9.99524E-01 1.00000E-45
9.99695E-01 1.00000E-45
9.99829E-01 1.00000E-45
9.99924E-01 1.00000E-45
9.99981E-01 1.00000E-45
1.00000E+00 1.00000E-45
