 #
 # Subroutine ELSEPA. Elastic scattering of electrons and positrons
 #                    by neutral atoms and positive ions
 #
 # Projectile: electron
 # Kinetic energy = 4.50000E+06 eV = 1.65372E+05 a.u.
 #
 # WARNING: High-energy factorization with free-atom DF screening.
 #          Absorption, polarization and exchange corrections are
 #          switched off.
 #          Phase shifts are calculated for the bare nucleus.
 #          Scattering amplitudes are not evaluated.
 #
 # Element: Nd,  Z =  60,  atomic weight = 1.44240E+02 g/mol
 #
 # Nuclear model: Fermi distribution
 #                Average radius = 5.61150E-13 cm
 #                Skin thickness = 5.46000E-14 cm
 #
 # Number of electrons = 60
 #
 # Total elastic cross section = 7.34624E-18 cm**2 = 2.62339E-01 a0**2
 # 1st transport cross section = 2.32841E-22 cm**2 = 8.31489E-06 a0**2
 # 2nd transport cross section = 6.41418E-22 cm**2 = 2.29055E-05 a0**2
 #
 #
 # Differential cross section:                       MU=(1-COS(THETA))/2
 #
 #  THETA        MU          DCS          DCS        Sherman      error
 #  (deg)                 (cm**2/sr)   (a0**2/sr)    function
 #----------------------------------------------------------------------
0.00000E+00 2.55650E-12
7.61557E-13 2.55646E-12
1.18994E-12 2.55644E-12
1.71346E-12 2.55642E-12
2.33225E-12 2.55639E-12
3.04617E-12 2.55636E-12
3.85530E-12 2.55632E-12
4.75964E-12 2.55628E-12
5.75917E-12 2.55624E-12
6.85391E-12 2.55619E-12
8.04379E-12 2.55613E-12
9.32893E-12 2.55608E-12
1.07092E-11 2.55601E-12
1.21847E-11 2.55595E-12
1.37554E-11 2.55588E-12
1.54213E-11 2.55580E-12
1.71823E-11 2.55572E-12
1.90386E-11 2.55564E-12
2.09900E-11 2.55555E-12
2.30367E-11 2.55546E-12
2.51785E-11 2.55536E-12
2.74156E-11 2.55526E-12
2.97478E-11 2.55515E-12
3.21752E-11 2.55504E-12
3.46979E-11 2.55493E-12
3.73157E-11 2.55481E-12
4.00286E-11 2.55469E-12
4.28368E-11 2.55456E-12
4.57402E-11 2.55443E-12
4.87388E-11 2.55430E-12
5.18325E-11 2.55416E-12
5.50215E-11 2.55401E-12
5.83057E-11 2.55386E-12
6.16850E-11 2.55371E-12
6.51595E-11 2.55355E-12
6.87293E-11 2.55339E-12
7.23943E-11 2.55323E-12
7.61544E-11 2.55306E-12
1.18991E-10 2.55113E-12
1.71347E-10 2.54877E-12
2.33223E-10 2.54598E-12
3.04617E-10 2.54278E-12
3.85531E-10 2.53916E-12
4.75965E-10 2.53512E-12
5.75917E-10 2.53066E-12
6.85389E-10 2.52580E-12
8.04380E-10 2.52053E-12
9.32891E-10 2.51486E-12
1.07092E-09 2.50879E-12
1.21847E-09 2.50233E-12
1.37554E-09 2.49549E-12
1.54213E-09 2.48826E-12
1.71823E-09 2.48065E-12
1.90386E-09 2.47268E-12
2.09900E-09 2.46434E-12
2.30367E-09 2.45564E-12
2.51785E-09 2.44660E-12
2.74156E-09 2.43721E-12
2.97478E-09 2.42748E-12
3.21752E-09 2.41743E-12
3.46978E-09 2.40705E-12
3.73156E-09 2.39636E-12
4.00286E-09 2.38536E-12
4.28368E-09 2.37406E-12
4.57402E-09 2.36247E-12
4.87388E-09 2.35060E-12
5.18326E-09 2.33845E-12
5.50215E-09 2.32604E-12
5.83057E-09 2.31338E-12
6.16850E-09 2.30046E-12
6.51596E-09 2.28731E-12
6.87293E-09 2.27392E-12
7.23942E-09 2.26032E-12
7.61544E-09 2.24650E-12
1.18991E-08 2.09909E-12
1.71347E-08 1.93950E-12
2.33223E-08 1.77601E-12
3.04617E-08 1.61511E-12
3.85531E-08 1.46167E-12
4.75965E-08 1.31892E-12
5.75917E-08 1.18868E-12
6.85389E-08 1.07196E-12
8.04380E-08 9.67971E-13
9.32891E-08 8.75969E-13
1.07092E-07 7.94903E-13
1.21847E-07 7.23599E-13
1.37554E-07 6.60874E-13
1.54213E-07 6.05602E-13
1.71823E-07 5.56759E-13
1.90386E-07 5.13435E-13
2.09900E-07 4.74841E-13
2.30367E-07 4.40298E-13
2.51785E-07 4.09218E-13
2.74156E-07 3.81111E-13
2.97478E-07 3.55583E-13
3.21752E-07 3.32304E-13
3.46978E-07 3.10995E-13
3.73156E-07 2.91426E-13
4.00286E-07 2.73399E-13
4.28368E-07 2.56748E-13
4.57402E-07 2.41332E-13
4.87388E-07 2.27032E-13
5.18325E-07 2.13735E-13
5.50215E-07 2.01337E-13
5.83057E-07 1.89786E-13
6.16850E-07 1.79013E-13
6.51596E-07 1.68957E-13
6.87293E-07 1.59563E-13
7.23942E-07 1.50781E-13
7.61543E-07 1.42566E-13
1.18991E-06 8.30771E-14
1.71347E-06 5.20852E-14
2.33223E-06 3.43318E-14
3.04617E-06 2.35746E-14
3.85531E-06 1.67046E-14
4.75964E-06 1.21267E-14
5.75916E-06 8.97817E-15
6.85388E-06 6.75680E-15
8.04378E-06 5.17342E-15
9.32888E-06 4.02597E-15
1.07092E-05 3.18142E-15
1.21846E-05 2.55034E-15
1.37553E-05 2.07169E-15
1.54212E-05 1.70328E-15
1.71822E-05 1.41567E-15
1.90385E-05 1.18756E-15
2.09899E-05 1.00571E-15
2.30365E-05 8.58311E-16
2.51783E-05 7.36531E-16
2.74153E-05 6.35746E-16
2.97475E-05 5.51725E-16
3.21749E-05 4.81197E-16
3.46974E-05 4.21608E-16
3.73152E-05 3.70941E-16
4.00281E-05 3.27599E-16
4.28362E-05 2.90316E-16
4.57395E-05 2.58089E-16
4.87380E-05 2.30117E-16
5.18317E-05 2.05752E-16
5.50205E-05 1.84462E-16
5.83045E-05 1.65826E-16
6.16838E-05 1.49471E-16
6.51582E-05 1.35076E-16
6.87277E-05 1.22370E-16
7.23925E-05 1.11119E-16
7.61524E-05 1.01128E-16
9.21439E-05 7.07896E-17
1.09658E-04 5.10241E-17
1.28695E-04 3.77338E-17
1.49255E-04 2.85173E-17
1.71338E-04 2.19646E-17
1.94942E-04 1.71969E-17
2.20070E-04 1.36591E-17
2.46720E-04 1.09881E-17
2.74892E-04 8.93993E-18
3.04586E-04 7.34786E-18
3.35803E-04 6.09494E-18
3.68542E-04 5.09780E-18
4.02802E-04 4.29608E-18
4.38585E-04 3.64583E-18
4.75889E-04 3.11401E-18
5.14715E-04 2.67564E-18
5.55063E-04 2.31173E-18
5.96931E-04 2.00760E-18
6.40321E-04 1.75187E-18
6.85233E-04 1.53558E-18
7.31665E-04 1.35167E-18
7.79618E-04 1.19450E-18
8.29092E-04 1.05954E-18
8.80086E-04 9.43116E-19
9.32601E-04 8.42277E-19
9.86636E-04 7.54588E-19
1.04219E-03 6.78043E-19
1.09927E-03 6.10985E-19
1.15786E-03 5.52039E-19
1.21797E-03 5.00053E-19
1.27961E-03 4.54064E-19
1.34276E-03 4.13260E-19
1.40743E-03 3.76955E-19
1.47362E-03 3.44565E-19
1.54133E-03 3.15592E-19
1.61056E-03 2.89614E-19
1.68131E-03 2.66267E-19
1.75357E-03 2.45236E-19
1.82735E-03 2.26252E-19
1.90265E-03 2.09078E-19
1.97947E-03 1.93511E-19
2.05780E-03 1.79374E-19
2.13765E-03 1.66511E-19
2.21902E-03 1.54787E-19
2.30190E-03 1.44083E-19
2.38630E-03 1.34292E-19
2.47222E-03 1.25324E-19
2.55965E-03 1.17097E-19
2.64859E-03 1.09538E-19
2.73905E-03 1.02583E-19
2.83103E-03 9.61742E-20
2.92452E-03 9.02616E-20
3.01952E-03 8.47993E-20
3.11604E-03 7.97466E-20
3.21407E-03 7.50672E-20
3.31362E-03 7.07281E-20
3.41468E-03 6.67001E-20
3.51725E-03 6.29568E-20
3.62133E-03 5.94742E-20
3.72692E-03 5.62308E-20
3.83403E-03 5.32071E-20
3.94265E-03 5.03854E-20
4.05278E-03 4.77497E-20
4.16442E-03 4.52853E-20
4.27757E-03 4.29791E-20
4.39223E-03 4.08190E-20
4.50840E-03 3.87938E-20
4.62608E-03 3.68938E-20
4.74527E-03 3.51094E-20
4.86597E-03 3.34326E-20
4.98817E-03 3.18555E-20
5.11188E-03 3.03711E-20
5.23711E-03 2.89728E-20
5.36383E-03 2.76549E-20
5.49207E-03 2.64116E-20
5.62181E-03 2.52380E-20
5.75306E-03 2.41295E-20
5.88581E-03 2.30817E-20
6.02007E-03 2.20907E-20
6.15583E-03 2.11527E-20
6.29310E-03 2.02645E-20
6.43187E-03 1.94229E-20
6.57214E-03 1.86249E-20
6.71392E-03 1.78679E-20
6.85720E-03 1.71494E-20
7.00198E-03 1.64669E-20
7.14827E-03 1.58185E-20
7.29605E-03 1.52019E-20
7.44534E-03 1.46154E-20
7.59612E-03 1.40572E-20
7.97965E-03 1.27751E-20
8.37255E-03 1.16374E-20
8.77480E-03 1.06249E-20
9.18641E-03 9.72129E-21
9.60736E-03 8.91277E-21
1.00376E-02 8.18755E-21
1.04773E-02 7.53548E-21
1.09262E-02 6.94782E-21
1.13844E-02 6.41706E-21
1.18520E-02 5.93668E-21
1.23288E-02 5.50099E-21
1.28150E-02 5.10509E-21
1.33104E-02 4.74466E-21
1.38150E-02 4.41593E-21
1.43290E-02 4.11558E-21
1.48521E-02 3.84071E-21
1.53845E-02 3.58876E-21
1.59262E-02 3.35745E-21
1.64770E-02 3.14477E-21
1.70371E-02 2.94894E-21
1.76063E-02 2.76836E-21
1.81848E-02 2.60163E-21
1.87724E-02 2.44747E-21
1.93692E-02 2.30476E-21
1.99751E-02 2.17249E-21
2.05901E-02 2.04973E-21
2.12143E-02 1.93569E-21
2.18476E-02 1.82961E-21
2.24900E-02 1.73083E-21
2.31415E-02 1.63876E-21
2.38021E-02 1.55285E-21
2.44717E-02 1.47261E-21
2.51504E-02 1.39758E-21
2.58382E-02 1.32737E-21
2.65349E-02 1.26161E-21
2.72407E-02 1.19995E-21
2.79555E-02 1.14209E-21
2.86793E-02 1.08775E-21
2.94120E-02 1.03667E-21
3.01537E-02 9.88620E-22
3.09043E-02 9.43383E-22
3.16639E-02 9.00762E-22
3.24324E-02 8.60574E-22
3.32098E-02 8.22654E-22
3.39961E-02 7.86847E-22
3.47912E-02 7.53012E-22
3.55952E-02 7.21018E-22
3.64081E-02 6.90746E-22
3.72297E-02 6.62083E-22
3.80602E-02 6.34927E-22
3.88995E-02 6.09183E-22
3.97476E-02 5.84762E-22
4.06044E-02 5.61582E-22
4.14700E-02 5.39568E-22
4.23443E-02 5.18649E-22
4.32273E-02 4.98759E-22
4.41190E-02 4.79837E-22
4.50194E-02 4.61826E-22
4.59284E-02 4.44674E-22
4.68461E-02 4.28332E-22
4.87074E-02 3.97893E-22
5.06030E-02 3.70177E-22
5.25328E-02 3.44892E-22
5.44967E-02 3.21784E-22
5.64946E-02 3.00628E-22
5.85262E-02 2.81226E-22
6.05914E-02 2.63404E-22
6.26901E-02 2.47008E-22
6.48222E-02 2.31902E-22
6.69873E-02 2.17962E-22
6.91854E-02 2.05082E-22
7.14163E-02 1.93164E-22
7.36799E-02 1.82122E-22
7.59760E-02 1.71878E-22
7.83043E-02 1.62363E-22
8.06647E-02 1.53514E-22
8.30571E-02 1.45276E-22
8.54812E-02 1.37598E-22
8.79369E-02 1.30433E-22
9.04240E-02 1.23740E-22
9.29422E-02 1.17483E-22
9.54915E-02 1.11625E-22
9.80716E-02 1.06138E-22
1.00682E-01 1.00992E-22
1.03323E-01 9.61619E-23
1.05995E-01 9.16243E-23
1.08696E-01 8.73576E-23
1.11427E-01 8.33424E-23
1.14188E-01 7.95607E-23
1.16978E-01 7.59959E-23
1.19797E-01 7.26332E-23
1.22645E-01 6.94586E-23
1.25522E-01 6.64595E-23
1.28428E-01 6.36241E-23
1.31361E-01 6.09414E-23
1.34323E-01 5.84016E-23
1.37313E-01 5.59954E-23
1.40330E-01 5.37143E-23
1.43375E-01 5.15504E-23
1.46447E-01 4.94965E-23
1.49545E-01 4.75457E-23
1.52671E-01 4.56918E-23
1.55823E-01 4.39289E-23
1.59001E-01 4.22516E-23
1.62205E-01 4.06548E-23
1.65435E-01 3.91339E-23
1.68690E-01 3.76845E-23
1.71970E-01 3.63024E-23
1.75276E-01 3.49840E-23
1.78606E-01 3.37257E-23
1.81961E-01 3.25240E-23
1.85340E-01 3.13760E-23
1.88743E-01 3.02786E-23
1.92169E-01 2.92292E-23
1.95619E-01 2.82253E-23
1.99092E-01 2.72644E-23
2.02589E-01 2.63444E-23
2.06107E-01 2.54630E-23
2.09649E-01 2.46184E-23
2.13212E-01 2.38086E-23
2.16797E-01 2.30319E-23
2.20404E-01 2.22867E-23
2.24032E-01 2.15714E-23
2.27680E-01 2.08846E-23
2.31350E-01 2.02248E-23
2.35040E-01 1.95909E-23
2.38751E-01 1.89815E-23
2.42481E-01 1.83955E-23
2.46231E-01 1.78318E-23
2.50000E-01 1.72894E-23
2.53788E-01 1.67673E-23
2.57595E-01 1.62645E-23
2.61421E-01 1.57803E-23
2.65264E-01 1.53138E-23
2.69126E-01 1.48641E-23
2.73005E-01 1.44306E-23
2.76901E-01 1.40125E-23
2.80814E-01 1.36093E-23
2.84744E-01 1.32201E-23
2.88691E-01 1.28445E-23
2.92653E-01 1.24819E-23
2.96632E-01 1.21317E-23
3.00625E-01 1.17934E-23
3.04634E-01 1.14666E-23
3.08658E-01 1.11506E-23
3.12697E-01 1.08452E-23
3.16749E-01 1.05499E-23
3.20816E-01 1.02642E-23
3.24896E-01 9.98783E-24
3.28990E-01 9.72039E-24
3.33097E-01 9.46154E-24
3.37216E-01 9.21092E-24
3.41348E-01 8.96822E-24
3.45492E-01 8.73314E-24
3.49647E-01 8.50540E-24
3.53814E-01 8.28471E-24
3.57992E-01 8.07082E-24
3.62181E-01 7.86347E-24
3.66381E-01 7.66241E-24
3.70590E-01 7.46742E-24
3.74810E-01 7.27827E-24
3.79039E-01 7.09474E-24
3.83277E-01 6.91664E-24
3.87524E-01 6.74378E-24
3.91780E-01 6.57597E-24
3.96044E-01 6.41305E-24
4.00316E-01 6.25482E-24
4.04596E-01 6.10112E-24
4.08882E-01 5.95180E-24
4.13176E-01 5.80670E-24
4.17476E-01 5.66568E-24
4.21783E-01 5.52863E-24
4.26095E-01 5.39539E-24
4.30413E-01 5.26583E-24
4.34737E-01 5.13984E-24
4.39065E-01 5.01728E-24
4.43398E-01 4.89805E-24
4.47736E-01 4.78205E-24
4.52077E-01 4.66917E-24
4.56422E-01 4.55931E-24
4.60770E-01 4.45236E-24
4.65122E-01 4.34825E-24
4.69476E-01 4.24687E-24
4.73832E-01 4.14814E-24
4.78190E-01 4.05198E-24
4.82550E-01 3.95831E-24
4.86912E-01 3.86705E-24
4.91274E-01 3.77812E-24
4.95637E-01 3.69146E-24
5.00000E-01 3.60700E-24
5.04363E-01 3.52467E-24
5.08726E-01 3.44440E-24
5.13088E-01 3.36614E-24
5.17450E-01 3.28982E-24
5.21810E-01 3.21538E-24
5.26168E-01 3.14278E-24
5.30524E-01 3.07195E-24
5.34878E-01 3.00286E-24
5.39230E-01 2.93543E-24
5.43578E-01 2.86964E-24
5.47923E-01 2.80542E-24
5.52264E-01 2.74274E-24
5.56602E-01 2.68155E-24
5.60935E-01 2.62181E-24
5.65263E-01 2.56348E-24
5.69587E-01 2.50653E-24
5.73905E-01 2.45090E-24
5.78217E-01 2.39657E-24
5.82524E-01 2.34350E-24
5.86824E-01 2.29165E-24
5.91118E-01 2.24100E-24
5.95404E-01 2.19150E-24
5.99684E-01 2.14314E-24
6.03956E-01 2.09587E-24
6.08220E-01 2.04967E-24
6.12476E-01 2.00451E-24
6.16723E-01 1.96037E-24
6.20961E-01 1.91721E-24
6.25190E-01 1.87502E-24
6.29410E-01 1.83376E-24
6.33619E-01 1.79341E-24
6.37819E-01 1.75395E-24
6.42008E-01 1.71536E-24
6.46186E-01 1.67761E-24
6.50353E-01 1.64068E-24
6.54508E-01 1.60455E-24
6.58652E-01 1.56921E-24
6.62784E-01 1.53463E-24
6.66903E-01 1.50079E-24
6.71010E-01 1.46767E-24
6.75104E-01 1.43527E-24
6.79184E-01 1.40355E-24
6.83251E-01 1.37250E-24
6.87303E-01 1.34211E-24
6.91342E-01 1.31237E-24
6.95366E-01 1.28324E-24
6.99375E-01 1.25473E-24
7.03368E-01 1.22682E-24
7.07347E-01 1.19948E-24
7.11309E-01 1.17272E-24
7.15256E-01 1.14650E-24
7.19186E-01 1.12084E-24
7.23099E-01 1.09570E-24
7.26995E-01 1.07107E-24
7.30874E-01 1.04696E-24
7.34736E-01 1.02333E-24
7.38579E-01 1.00019E-24
7.42405E-01 9.77521E-25
7.46212E-01 9.55313E-25
7.50000E-01 9.33555E-25
7.53769E-01 9.12237E-25
7.57519E-01 8.91351E-25
7.61249E-01 8.70885E-25
7.64960E-01 8.50832E-25
7.68650E-01 8.31182E-25
7.72320E-01 8.11927E-25
7.75968E-01 7.93057E-25
7.79596E-01 7.74564E-25
7.83203E-01 7.56441E-25
7.86788E-01 7.38680E-25
7.90351E-01 7.21272E-25
7.93893E-01 7.04211E-25
7.97411E-01 6.87489E-25
8.00908E-01 6.71099E-25
8.04381E-01 6.55035E-25
8.07831E-01 6.39289E-25
8.11257E-01 6.23855E-25
8.14660E-01 6.08726E-25
8.18039E-01 5.93897E-25
8.21394E-01 5.79361E-25
8.24724E-01 5.65113E-25
8.28030E-01 5.51147E-25
8.31310E-01 5.37456E-25
8.34565E-01 5.24037E-25
8.37795E-01 5.10883E-25
8.40999E-01 4.97989E-25
8.44177E-01 4.85351E-25
8.47329E-01 4.72962E-25
8.50455E-01 4.60820E-25
8.53553E-01 4.48918E-25
8.56625E-01 4.37252E-25
8.59670E-01 4.25818E-25
8.62687E-01 4.14612E-25
8.65677E-01 4.03629E-25
8.68639E-01 3.92866E-25
8.71572E-01 3.82317E-25
8.74478E-01 3.71980E-25
8.77355E-01 3.61851E-25
8.80203E-01 3.51925E-25
8.83022E-01 3.42199E-25
8.85812E-01 3.32670E-25
8.88573E-01 3.23334E-25
8.91304E-01 3.14188E-25
8.94005E-01 3.05229E-25
8.96677E-01 2.96453E-25
8.99318E-01 2.87857E-25
9.01928E-01 2.79439E-25
9.04508E-01 2.71195E-25
9.07058E-01 2.63122E-25
9.09576E-01 2.55218E-25
9.12063E-01 2.47479E-25
9.14519E-01 2.39904E-25
9.16943E-01 2.32490E-25
9.19335E-01 2.25233E-25
9.21696E-01 2.18132E-25
9.24024E-01 2.11184E-25
9.26320E-01 2.04387E-25
9.28584E-01 1.97739E-25
9.30815E-01 1.91237E-25
9.33013E-01 1.84879E-25
9.35178E-01 1.78663E-25
9.37310E-01 1.72587E-25
9.39409E-01 1.66649E-25
9.41474E-01 1.60847E-25
9.43505E-01 1.55179E-25
9.45503E-01 1.49643E-25
9.47467E-01 1.44238E-25
9.49397E-01 1.38962E-25
9.51293E-01 1.33812E-25
9.53154E-01 1.28788E-25
9.54981E-01 1.23888E-25
9.56773E-01 1.19109E-25
9.58530E-01 1.14452E-25
9.60252E-01 1.09913E-25
9.61940E-01 1.05492E-25
9.63592E-01 1.01188E-25
9.65209E-01 9.69985E-26
9.66790E-01 9.29227E-26
9.68336E-01 8.89592E-26
9.69846E-01 8.51069E-26
9.71321E-01 8.13644E-26
9.72759E-01 7.77307E-26
9.74162E-01 7.42047E-26
9.75528E-01 7.07852E-26
9.76858E-01 6.74711E-26
9.78152E-01 6.42615E-26
9.79410E-01 6.11554E-26
9.80631E-01 5.81518E-26
9.81815E-01 5.52498E-26
9.82963E-01 5.24485E-26
9.84074E-01 4.97470E-26
9.85148E-01 4.71446E-26
9.86185E-01 4.46404E-26
9.87185E-01 4.22337E-26
9.88148E-01 3.99237E-26
9.89074E-01 3.77098E-26
9.89962E-01 3.55913E-26
9.90814E-01 3.35676E-26
9.91627E-01 3.16379E-26
9.92404E-01 2.98019E-26
9.93143E-01 2.80588E-26
9.93844E-01 2.64082E-26
9.94508E-01 2.48496E-26
9.95134E-01 2.33826E-26
9.95722E-01 2.20066E-26
9.96273E-01 2.07213E-26
9.96786E-01 1.95263E-26
9.97261E-01 1.84212E-26
9.97698E-01 1.74057E-26
9.98097E-01 1.64796E-26
9.98459E-01 1.56425E-26
9.98782E-01 1.48941E-26
9.99067E-01 1.42343E-26
9.99315E-01 1.36629E-26
9.99524E-01 1.31797E-26
9.99695E-01 1.27845E-26
9.99829E-01 1.24773E-26
9.99924E-01 1.22579E-26
9.99981E-01 1.21263E-26
1.00000E+00 1.20825E-26
