 #
 # Subroutine ELSEPA. Elastic scattering of electrons and positrons
 #                    by neutral atoms and positive ions
 #
 # Projectile: electron
 # Kinetic energy = 9.00000E+07 eV = 3.30744E+06 a.u.
 #
 # WARNING: High-energy factorization with free-atom DF screening.
 #          Absorption, polarization and exchange corrections are
 #          switched off.
 #          Phase shifts are calculated for the bare nucleus.
 #          Scattering amplitudes are not evaluated.
 #
 # Element: Nd,  Z =  60,  atomic weight = 1.44240E+02 g/mol
 #
 # Nuclear model: Fermi distribution
 #                Average radius = 5.61150E-13 cm
 #                Skin thickness = 5.46000E-14 cm
 #
 # Number of electrons = 60
 #
 # Total elastic cross section = 7.26515E-18 cm**2 = 2.59443E-01 a0**2
 # 1st transport cross section = 8.59085E-25 cm**2 = 3.06785E-08 a0**2
 # 2nd transport cross section = 2.55298E-24 cm**2 = 9.11685E-08 a0**2
 #
 #
 # Differential cross section:                       MU=(1-COS(THETA))/2
 #
 #  THETA        MU          DCS          DCS        Sherman      error
 #  (deg)                 (cm**2/sr)   (a0**2/sr)    function
 #----------------------------------------------------------------------
0.00000E+00 8.34064E-10
7.61557E-13 8.30363E-10
1.18994E-12 8.28295E-10
1.71346E-12 8.25780E-10
2.33225E-12 8.22824E-10
3.04617E-12 8.19435E-10
3.85530E-12 8.15622E-10
4.75964E-12 8.11395E-10
5.75917E-12 8.06764E-10
6.85391E-12 8.01742E-10
8.04379E-12 7.96342E-10
9.32893E-12 7.90576E-10
1.07092E-11 7.84459E-10
1.21847E-11 7.78006E-10
1.37554E-11 7.71232E-10
1.54213E-11 7.64155E-10
1.71823E-11 7.56788E-10
1.90386E-11 7.49149E-10
2.09900E-11 7.41257E-10
2.30367E-11 7.33126E-10
2.51785E-11 7.24775E-10
2.74156E-11 7.16222E-10
2.97478E-11 7.07560E-10
3.21752E-11 6.98726E-10
3.46979E-11 6.89703E-10
3.73157E-11 6.80504E-10
4.00286E-11 6.71144E-10
4.28368E-11 6.61638E-10
4.57402E-11 6.52194E-10
4.87388E-11 6.42720E-10
5.18325E-11 6.33143E-10
5.50215E-11 6.23474E-10
5.83057E-11 6.13726E-10
6.16850E-11 6.03911E-10
6.51595E-11 5.94251E-10
6.87293E-11 5.84672E-10
7.23943E-11 5.75060E-10
7.61544E-11 5.65426E-10
1.18991E-10 4.73066E-10
1.71347E-10 3.92115E-10
2.33223E-10 3.25247E-10
3.04617E-10 2.71364E-10
3.85531E-10 2.28699E-10
4.75965E-10 1.94897E-10
5.75917E-10 1.67819E-10
6.85389E-10 1.45885E-10
8.04380E-10 1.27809E-10
9.32891E-10 1.12699E-10
1.07092E-09 9.98718E-11
1.21847E-09 8.88662E-11
1.37554E-09 7.93508E-11
1.54213E-09 7.10268E-11
1.71823E-09 6.37356E-11
1.90386E-09 5.73254E-11
2.09900E-09 5.16445E-11
2.30367E-09 4.66252E-11
2.51785E-09 4.21766E-11
2.74156E-09 3.82164E-11
2.97478E-09 3.45160E-11
3.21752E-09 3.12565E-11
3.46978E-09 2.84395E-11
3.73156E-09 2.59932E-11
4.00286E-09 2.38591E-11
4.28368E-09 2.19891E-11
4.57402E-09 2.01749E-11
4.87388E-09 1.85080E-11
5.18326E-09 1.70386E-11
5.50215E-09 1.57383E-11
5.83057E-09 1.45836E-11
6.16850E-09 1.35546E-11
6.51596E-09 1.25700E-11
6.87293E-09 1.16531E-11
7.23942E-09 1.08317E-11
7.61544E-09 1.00938E-11
1.18991E-08 5.29870E-12
1.71347E-08 3.01318E-12
2.33223E-08 1.81579E-12
3.04617E-08 1.15602E-12
3.85531E-08 7.72052E-13
4.75965E-08 5.37798E-13
5.75917E-08 3.88154E-13
6.85389E-08 2.88231E-13
8.04380E-08 2.18743E-13
9.32891E-08 1.69179E-13
1.07092E-07 1.32868E-13
1.21847E-07 1.05726E-13
1.37554E-07 8.50896E-14
1.54213E-07 6.91453E-14
1.71823E-07 5.67260E-14
1.90386E-07 4.69546E-14
2.09900E-07 3.91807E-14
2.30367E-07 3.29458E-14
2.51785E-07 2.78981E-14
2.74156E-07 2.37768E-14
2.97478E-07 2.03810E-14
3.21752E-07 1.75814E-14
3.46978E-07 1.52518E-14
3.73156E-07 1.32906E-14
4.00286E-07 1.16436E-14
4.28368E-07 1.02379E-14
4.57402E-07 9.04241E-15
4.87388E-07 8.01691E-15
5.18325E-07 7.13237E-15
5.50215E-07 6.36945E-15
5.83057E-07 5.70292E-15
6.16850E-07 5.12352E-15
6.51596E-07 4.61523E-15
6.87293E-07 4.16862E-15
7.23942E-07 3.77548E-15
7.61543E-07 3.42658E-15
1.18991E-06 1.45287E-15
1.71347E-06 7.15922E-16
2.33223E-06 3.91949E-16
3.04617E-06 2.32064E-16
3.85531E-06 1.45980E-16
4.75964E-06 9.63635E-17
5.75916E-06 6.61544E-17
6.85388E-06 4.69142E-17
8.04378E-06 3.41907E-17
9.32888E-06 2.55047E-17
1.07092E-05 1.94110E-17
1.21846E-05 1.50338E-17
1.37553E-05 1.18240E-17
1.54212E-05 9.42697E-18
1.71822E-05 7.60776E-18
1.90385E-05 6.20440E-18
2.09899E-05 5.11447E-18
2.30365E-05 4.25319E-18
2.51783E-05 3.56508E-18
2.74153E-05 3.01005E-18
2.97475E-05 2.55863E-18
3.21749E-05 2.18872E-18
3.46974E-05 1.88342E-18
3.73152E-05 1.62972E-18
4.00281E-05 1.41747E-18
4.28362E-05 1.23873E-18
4.57395E-05 1.08730E-18
4.87380E-05 9.58272E-19
5.18317E-05 8.47776E-19
5.50205E-05 7.52719E-19
5.83045E-05 6.70604E-19
6.16838E-05 5.99391E-19
6.51582E-05 5.37402E-19
6.87277E-05 4.83243E-19
7.23925E-05 4.35752E-19
7.61524E-05 3.94265E-19
9.21439E-05 2.69737E-19
1.09658E-04 1.90726E-19
1.28695E-04 1.38670E-19
1.49255E-04 1.03226E-19
1.71338E-04 7.84306E-20
1.94942E-04 6.06581E-20
2.20070E-04 4.76522E-20
2.46720E-04 3.79572E-20
2.74892E-04 3.06098E-20
3.04586E-04 2.49602E-20
3.35803E-04 2.05578E-20
3.68542E-04 1.70863E-20
4.02802E-04 1.43190E-20
4.38585E-04 1.20908E-20
4.75889E-04 1.02807E-20
5.14715E-04 8.79764E-21
5.55063E-04 7.57326E-21
5.96931E-04 6.55512E-21
6.40321E-04 5.70290E-21
6.85233E-04 4.98512E-21
7.31665E-04 4.37710E-21
7.79618E-04 3.85925E-21
8.29092E-04 3.41599E-21
8.80086E-04 3.03475E-21
9.32601E-04 2.70541E-21
9.86636E-04 2.41968E-21
1.04219E-03 2.17081E-21
1.09927E-03 1.95322E-21
1.15786E-03 1.76231E-21
1.21797E-03 1.59424E-21
1.27961E-03 1.44580E-21
1.34276E-03 1.31430E-21
1.40743E-03 1.19746E-21
1.47362E-03 1.09336E-21
1.54133E-03 1.00037E-21
1.61056E-03 9.17088E-22
1.68131E-03 8.42325E-22
1.75357E-03 7.75051E-22
1.82735E-03 7.14383E-22
1.90265E-03 6.59556E-22
1.97947E-03 6.09906E-22
2.05780E-03 5.64855E-22
2.13765E-03 5.23901E-22
2.21902E-03 4.86604E-22
2.30190E-03 4.52577E-22
2.38630E-03 4.21482E-22
2.47222E-03 3.93020E-22
2.55965E-03 3.66927E-22
2.64859E-03 3.42970E-22
2.73905E-03 3.20942E-22
2.83103E-03 3.00659E-22
2.92452E-03 2.81955E-22
3.01952E-03 2.64686E-22
3.11604E-03 2.48722E-22
3.21407E-03 2.33945E-22
3.31362E-03 2.20253E-22
3.41468E-03 2.07549E-22
3.51725E-03 1.95749E-22
3.62133E-03 1.84778E-22
3.72692E-03 1.74565E-22
3.83403E-03 1.65049E-22
3.94265E-03 1.56174E-22
4.05278E-03 1.47887E-22
4.16442E-03 1.40143E-22
4.27757E-03 1.32900E-22
4.39223E-03 1.26119E-22
4.50840E-03 1.19765E-22
4.62608E-03 1.13806E-22
4.74527E-03 1.08212E-22
4.86597E-03 1.02958E-22
4.98817E-03 9.80193E-23
5.11188E-03 9.33724E-23
5.23711E-03 8.89973E-23
5.36383E-03 8.48750E-23
5.49207E-03 8.09883E-23
5.62181E-03 7.73210E-23
5.75306E-03 7.38585E-23
5.88581E-03 7.05872E-23
6.02007E-03 6.74945E-23
6.15583E-03 6.45687E-23
6.29310E-03 6.17993E-23
6.43187E-03 5.91762E-23
6.57214E-03 5.66902E-23
6.71392E-03 5.43329E-23
6.85720E-03 5.20962E-23
7.00198E-03 4.99729E-23
7.14827E-03 4.79561E-23
7.29605E-03 4.60395E-23
7.44534E-03 4.42171E-23
7.59612E-03 4.24834E-23
7.97965E-03 3.85044E-23
8.37255E-03 3.49774E-23
8.77480E-03 3.18420E-23
9.18641E-03 2.90472E-23
9.60736E-03 2.65495E-23
1.00376E-02 2.43118E-23
1.04773E-02 2.23022E-23
1.09262E-02 2.04935E-23
1.13844E-02 1.88621E-23
1.18520E-02 1.73875E-23
1.23288E-02 1.60520E-23
1.28150E-02 1.48401E-23
1.33104E-02 1.37385E-23
1.38150E-02 1.27353E-23
1.43290E-02 1.18202E-23
1.48521E-02 1.09841E-23
1.53845E-02 1.02190E-23
1.59262E-02 9.51781E-24
1.64770E-02 8.87425E-24
1.70371E-02 8.28276E-24
1.76063E-02 7.73840E-24
1.81848E-02 7.23677E-24
1.87724E-02 6.77391E-24
1.93692E-02 6.34633E-24
1.99751E-02 5.95086E-24
2.05901E-02 5.58468E-24
2.12143E-02 5.24525E-24
2.18476E-02 4.93028E-24
2.24900E-02 4.63771E-24
2.31415E-02 4.36567E-24
2.38021E-02 4.11248E-24
2.44717E-02 3.87661E-24
2.51504E-02 3.65667E-24
2.58382E-02 3.45142E-24
2.65349E-02 3.25970E-24
2.72407E-02 3.08047E-24
2.79555E-02 2.91279E-24
2.86793E-02 2.75579E-24
2.94120E-02 2.60868E-24
3.01537E-02 2.47072E-24
3.09043E-02 2.34127E-24
3.16639E-02 2.21971E-24
3.24324E-02 2.10548E-24
3.32098E-02 1.99806E-24
3.39961E-02 1.89700E-24
3.47912E-02 1.80184E-24
3.55952E-02 1.71220E-24
3.64081E-02 1.62770E-24
3.72297E-02 1.54801E-24
3.80602E-02 1.47280E-24
3.88995E-02 1.40178E-24
3.97476E-02 1.33469E-24
4.06044E-02 1.27127E-24
4.14700E-02 1.21130E-24
4.23443E-02 1.15455E-24
4.32273E-02 1.10084E-24
4.41190E-02 1.04996E-24
4.50194E-02 1.00176E-24
4.59284E-02 9.56068E-25
4.68461E-02 9.12734E-25
4.87074E-02 8.32600E-25
5.06030E-02 7.60350E-25
5.25328E-02 6.95106E-25
5.44967E-02 6.36101E-25
5.64946E-02 5.82662E-25
5.85262E-02 5.34198E-25
6.05914E-02 4.90188E-25
6.26901E-02 4.50173E-25
6.48222E-02 4.13748E-25
6.69873E-02 3.80552E-25
6.91854E-02 3.50266E-25
7.14163E-02 3.22606E-25
7.36799E-02 2.97321E-25
7.59760E-02 2.74183E-25
7.83043E-02 2.52991E-25
8.06647E-02 2.33565E-25
8.30571E-02 2.15743E-25
8.54812E-02 1.99378E-25
8.79369E-02 1.84342E-25
9.04240E-02 1.70515E-25
9.29422E-02 1.57792E-25
9.54915E-02 1.46077E-25
9.80716E-02 1.35282E-25
1.00682E-01 1.25330E-25
1.03323E-01 1.16150E-25
1.05995E-01 1.07677E-25
1.08696E-01 9.98515E-26
1.11427E-01 9.26215E-26
1.14188E-01 8.59381E-26
1.16978E-01 7.97572E-26
1.19797E-01 7.40384E-26
1.22645E-01 6.87450E-26
1.25522E-01 6.38434E-26
1.28428E-01 5.93029E-26
1.31361E-01 5.50953E-26
1.34323E-01 5.11949E-26
1.37313E-01 4.75781E-26
1.40330E-01 4.42233E-26
1.43375E-01 4.11105E-26
1.46447E-01 3.82216E-26
1.49545E-01 3.55396E-26
1.52671E-01 3.30493E-26
1.55823E-01 3.07363E-26
1.59001E-01 2.85876E-26
1.62205E-01 2.65911E-26
1.65435E-01 2.47356E-26
1.68690E-01 2.30110E-26
1.71970E-01 2.14076E-26
1.75276E-01 1.99169E-26
1.78606E-01 1.85306E-26
1.81961E-01 1.72412E-26
1.85340E-01 1.60420E-26
1.88743E-01 1.49263E-26
1.92169E-01 1.38884E-26
1.95619E-01 1.29228E-26
1.99092E-01 1.20242E-26
2.02589E-01 1.11881E-26
2.06107E-01 1.04100E-26
2.09649E-01 9.68590E-27
2.13212E-01 9.01200E-27
2.16797E-01 8.38482E-27
2.20404E-01 7.80109E-27
2.24032E-01 7.25782E-27
2.27680E-01 6.75219E-27
2.31350E-01 6.28160E-27
2.35040E-01 5.84363E-27
2.38751E-01 5.43604E-27
2.42481E-01 5.05671E-27
2.46231E-01 4.70371E-27
2.50000E-01 4.37523E-27
2.53788E-01 4.06958E-27
2.57595E-01 3.78518E-27
2.61421E-01 3.52058E-27
2.65264E-01 3.27442E-27
2.69126E-01 3.04543E-27
2.73005E-01 2.83243E-27
2.76901E-01 2.63432E-27
2.80814E-01 2.45008E-27
2.84744E-01 2.27875E-27
2.88691E-01 2.11945E-27
2.92653E-01 1.97134E-27
2.96632E-01 1.83366E-27
3.00625E-01 1.70568E-27
3.04634E-01 1.58674E-27
3.08658E-01 1.47621E-27
3.12697E-01 1.37351E-27
3.16749E-01 1.27810E-27
3.20816E-01 1.18947E-27
3.24896E-01 1.10714E-27
3.28990E-01 1.03069E-27
3.33097E-01 9.59696E-28
3.37216E-01 8.93782E-28
3.41348E-01 8.32592E-28
3.45492E-01 7.75794E-28
3.49647E-01 7.23079E-28
3.53814E-01 6.74160E-28
3.57992E-01 6.28769E-28
3.62181E-01 5.86655E-28
3.66381E-01 5.47586E-28
3.70590E-01 5.11346E-28
3.74810E-01 4.77732E-28
3.79039E-01 4.46558E-28
3.83277E-01 4.17647E-28
3.87524E-01 3.90837E-28
3.91780E-01 3.65976E-28
3.96044E-01 3.42924E-28
4.00316E-01 3.21548E-28
4.04596E-01 3.01728E-28
4.08882E-01 2.83349E-28
4.13176E-01 2.66305E-28
4.17476E-01 2.50499E-28
4.21783E-01 2.35840E-28
4.26095E-01 2.22241E-28
4.30413E-01 2.09625E-28
4.34737E-01 1.97919E-28
4.39065E-01 1.87054E-28
4.43398E-01 1.76968E-28
4.47736E-01 1.67601E-28
4.52077E-01 1.58900E-28
4.56422E-01 1.50813E-28
4.60770E-01 1.43295E-28
4.65122E-01 1.36302E-28
4.69476E-01 1.29794E-28
4.73832E-01 1.23734E-28
4.78190E-01 1.18086E-28
4.82550E-01 1.12820E-28
4.86912E-01 1.07906E-28
4.91274E-01 1.03317E-28
4.95637E-01 9.90271E-29
5.00000E-01 9.50132E-29
5.04363E-01 9.12540E-29
5.08726E-01 8.77294E-29
5.13088E-01 8.44212E-29
5.17450E-01 8.13124E-29
5.21810E-01 7.83874E-29
5.26168E-01 7.56319E-29
5.30524E-01 7.30326E-29
5.34878E-01 7.05773E-29
5.39230E-01 6.82548E-29
5.43578E-01 6.60546E-29
5.47923E-01 6.39675E-29
5.52264E-01 6.19846E-29
5.56602E-01 6.00978E-29
5.60935E-01 5.83000E-29
5.65263E-01 5.65843E-29
5.69587E-01 5.49445E-29
5.73905E-01 5.33750E-29
5.78217E-01 5.18706E-29
5.82524E-01 5.04265E-29
5.86824E-01 4.90384E-29
5.91118E-01 4.77024E-29
5.95404E-01 4.64148E-29
5.99684E-01 4.51723E-29
6.03956E-01 4.39719E-29
6.08220E-01 4.28108E-29
6.12476E-01 4.16865E-29
6.16723E-01 4.05968E-29
6.20961E-01 3.95395E-29
6.25190E-01 3.85128E-29
6.29410E-01 3.75149E-29
6.33619E-01 3.65443E-29
6.37819E-01 3.55995E-29
6.42008E-01 3.46793E-29
6.46186E-01 3.37824E-29
6.50353E-01 3.29078E-29
6.54508E-01 3.20545E-29
6.58652E-01 3.12217E-29
6.62784E-01 3.04084E-29
6.66903E-01 2.96141E-29
6.71010E-01 2.88379E-29
6.75104E-01 2.80794E-29
6.79184E-01 2.73378E-29
6.83251E-01 2.66129E-29
6.87303E-01 2.59039E-29
6.91342E-01 2.52106E-29
6.95366E-01 2.45325E-29
6.99375E-01 2.38693E-29
7.03368E-01 2.32206E-29
7.07347E-01 2.25861E-29
7.11309E-01 2.19655E-29
7.15256E-01 2.13585E-29
7.19186E-01 2.07649E-29
7.23099E-01 2.01844E-29
7.26995E-01 1.96168E-29
7.30874E-01 1.90619E-29
7.34736E-01 1.85194E-29
7.38579E-01 1.79892E-29
7.42405E-01 1.74710E-29
7.46212E-01 1.69646E-29
7.50000E-01 1.64699E-29
7.53769E-01 1.59867E-29
7.57519E-01 1.55148E-29
7.61249E-01 1.50540E-29
7.64960E-01 1.46041E-29
7.68650E-01 1.41650E-29
7.72320E-01 1.37365E-29
7.75968E-01 1.33185E-29
7.79596E-01 1.29107E-29
7.83203E-01 1.25130E-29
7.86788E-01 1.21252E-29
7.90351E-01 1.17472E-29
7.93893E-01 1.13787E-29
7.97411E-01 1.10197E-29
8.00908E-01 1.06700E-29
8.04381E-01 1.03293E-29
8.07831E-01 9.99757E-30
8.11257E-01 9.67460E-30
8.14660E-01 9.36023E-30
8.18039E-01 9.05429E-30
8.21394E-01 8.75662E-30
8.24724E-01 8.46706E-30
8.28030E-01 8.18545E-30
8.31310E-01 7.91162E-30
8.34565E-01 7.64542E-30
8.37795E-01 7.38668E-30
8.40999E-01 7.13524E-30
8.44177E-01 6.89096E-30
8.47329E-01 6.65366E-30
8.50455E-01 6.42320E-30
8.53553E-01 6.19943E-30
8.56625E-01 5.98218E-30
8.59670E-01 5.77132E-30
8.62687E-01 5.56668E-30
8.65677E-01 5.36812E-30
8.68639E-01 5.17551E-30
8.71572E-01 4.98868E-30
8.74478E-01 4.80750E-30
8.77355E-01 4.63184E-30
8.80203E-01 4.46154E-30
8.83022E-01 4.29648E-30
8.85812E-01 4.13652E-30
8.88573E-01 3.98154E-30
8.91304E-01 3.83139E-30
8.94005E-01 3.68595E-30
8.96677E-01 3.54510E-30
8.99318E-01 3.40871E-30
9.01928E-01 3.27667E-30
9.04508E-01 3.14885E-30
9.07058E-01 3.02513E-30
9.09576E-01 2.90542E-30
9.12063E-01 2.78958E-30
9.14519E-01 2.67752E-30
9.16943E-01 2.56913E-30
9.19335E-01 2.46431E-30
9.21696E-01 2.36294E-30
9.24024E-01 2.26494E-30
9.26320E-01 2.17020E-30
9.28584E-01 2.07863E-30
9.30815E-01 1.99014E-30
9.33013E-01 1.90463E-30
9.35178E-01 1.82203E-30
9.37310E-01 1.74224E-30
9.39409E-01 1.66518E-30
9.41474E-01 1.59077E-30
9.43505E-01 1.51894E-30
9.45503E-01 1.44959E-30
9.47467E-01 1.38267E-30
9.49397E-01 1.31809E-30
9.51293E-01 1.25578E-30
9.53154E-01 1.19569E-30
9.54981E-01 1.13774E-30
9.56773E-01 1.08186E-30
9.58530E-01 1.02800E-30
9.60252E-01 9.76100E-31
9.61940E-01 9.26092E-31
9.63592E-01 8.77924E-31
9.65209E-01 8.31541E-31
9.66790E-01 7.86891E-31
9.68336E-01 7.43921E-31
9.69846E-01 7.02582E-31
9.71321E-01 6.62828E-31
9.72759E-01 6.24611E-31
9.74162E-01 5.87887E-31
9.75528E-01 5.52614E-31
9.76858E-01 5.18749E-31
9.78152E-01 4.86255E-31
9.79410E-01 4.55091E-31
9.80631E-01 4.25222E-31
9.81815E-01 3.96612E-31
9.82963E-01 3.69227E-31
9.84074E-01 3.43035E-31
9.85148E-01 3.18005E-31
9.86185E-01 2.94106E-31
9.87185E-01 2.71311E-31
9.88148E-01 2.49592E-31
9.89074E-01 2.28924E-31
9.89962E-01 2.09280E-31
9.90814E-01 1.90638E-31
9.91627E-01 1.72976E-31
9.92404E-01 1.56272E-31
9.93143E-01 1.40507E-31
9.93844E-01 1.25660E-31
9.94508E-01 1.11715E-31
9.95134E-01 9.86538E-32
9.95722E-01 8.64618E-32
9.96273E-01 7.51238E-32
9.96786E-01 6.46262E-32
9.97261E-01 5.49563E-32
9.97698E-01 4.61024E-32
9.98097E-01 3.80538E-32
9.98459E-01 3.08007E-32
9.98782E-01 2.43346E-32
9.99067E-01 1.86474E-32
9.99315E-01 1.37323E-32
9.99524E-01 9.58346E-33
9.99695E-01 6.19575E-33
9.99829E-01 3.56510E-33
9.99924E-01 1.68835E-33
9.99981E-01 5.63199E-34
1.00000E+00 1.88320E-34
