 #
 # Subroutine ELSEPA. Elastic scattering of electrons and positrons
 #                    by neutral atoms and positive ions
 #
 # Projectile: electron
 # Kinetic energy = 5.00000E+08 eV = 1.83747E+07 a.u.
 #
 # WARNING: High-energy factorization with free-atom DF screening.
 #          Absorption, polarization and exchange corrections are
 #          switched off.
 #          Phase shifts are calculated for the bare nucleus.
 #          Scattering amplitudes are not evaluated.
 #
 # Element: Nd,  Z =  60,  atomic weight = 1.44240E+02 g/mol
 #
 # Nuclear model: Fermi distribution
 #                Average radius = 5.61150E-13 cm
 #                Skin thickness = 5.46000E-14 cm
 #
 # Number of electrons = 60
 #
 # Total elastic cross section = 7.24815E-18 cm**2 = 2.58836E-01 a0**2
 # 1st transport cross section = 2.78762E-26 cm**2 = 9.95479E-10 a0**2
 # 2nd transport cross section = 8.35967E-26 cm**2 = 2.98529E-09 a0**2
 #
 #
 # Differential cross section:                       MU=(1-COS(THETA))/2
 #
 #  THETA        MU          DCS          DCS        Sherman      error
 #  (deg)                 (cm**2/sr)   (a0**2/sr)    function
 #----------------------------------------------------------------------
0.00000E+00 2.55049E-08
7.61557E-13 2.23880E-08
1.18994E-12 2.09082E-08
1.71346E-12 1.93080E-08
2.33225E-12 1.76702E-08
3.04617E-12 1.60603E-08
3.85530E-12 1.45268E-08
4.75964E-12 1.31018E-08
5.75917E-12 1.18025E-08
6.85391E-12 1.06377E-08
8.04379E-12 9.60271E-09
9.32893E-12 8.68772E-09
1.07092E-11 7.88207E-09
1.21847E-11 7.17382E-09
1.37554E-11 6.55102E-09
1.54213E-11 6.00238E-09
1.71823E-11 5.51765E-09
1.90386E-11 5.08772E-09
2.09900E-11 4.70473E-09
2.30367E-11 4.36194E-09
2.51785E-11 4.05362E-09
2.74156E-11 3.77478E-09
2.97478E-11 3.52149E-09
3.21752E-11 3.29049E-09
3.46979E-11 3.07903E-09
3.73157E-11 2.88482E-09
4.00286E-11 2.70591E-09
4.28368E-11 2.54066E-09
4.57402E-11 2.38768E-09
4.87388E-11 2.24578E-09
5.18325E-11 2.11393E-09
5.50215E-11 1.99123E-09
5.83057E-11 1.87669E-09
6.16850E-11 1.76984E-09
6.51595E-11 1.67011E-09
6.87293E-11 1.57697E-09
7.23943E-11 1.48991E-09
7.61544E-11 1.40850E-09
1.18991E-10 8.19856E-10
1.71347E-10 5.13503E-10
2.33223E-10 3.38223E-10
3.04617E-10 2.32085E-10
3.85531E-10 1.64334E-10
4.75965E-10 1.19217E-10
5.75917E-10 8.82230E-11
6.85389E-10 6.63952E-11
8.04380E-10 5.08084E-11
9.32891E-10 3.95227E-11
1.07092E-09 3.12221E-11
1.21847E-09 2.50229E-11
1.37554E-09 2.03227E-11
1.54213E-09 1.67058E-11
1.71823E-09 1.38825E-11
1.90386E-09 1.16483E-11
2.09900E-09 9.85823E-12
2.30367E-09 8.40870E-12
2.51785E-09 7.21457E-12
2.74156E-09 6.22660E-12
2.97478E-09 5.40357E-12
3.21752E-09 4.71267E-12
3.46978E-09 4.12851E-12
3.73156E-09 3.63140E-12
4.00286E-09 3.20590E-12
4.28368E-09 2.83985E-12
4.57402E-09 2.52360E-12
4.87388E-09 2.24934E-12
5.18326E-09 2.01072E-12
5.50215E-09 1.80249E-12
5.83057E-09 1.62014E-12
6.16850E-09 1.46009E-12
6.51596E-09 1.31922E-12
6.87293E-09 1.19485E-12
7.23942E-09 1.08471E-12
7.61544E-09 9.86909E-13
1.18991E-08 4.26058E-13
1.71347E-08 2.13557E-13
2.33223E-08 1.18734E-13
3.04617E-08 7.11690E-14
3.85531E-08 4.51960E-14
4.75965E-08 3.00469E-14
5.75917E-08 2.07341E-14
6.85389E-08 1.47586E-14
8.04380E-08 1.07861E-14
9.32891E-08 8.06335E-15
1.07092E-07 6.14725E-15
1.21847E-07 4.76778E-15
1.37554E-07 3.75446E-15
1.54213E-07 2.99664E-15
1.71823E-07 2.42077E-15
1.90386E-07 1.97689E-15
2.09900E-07 1.63030E-15
2.30367E-07 1.35647E-15
2.51785E-07 1.13782E-15
2.74156E-07 9.61526E-16
2.97478E-07 8.18105E-16
3.21752E-07 7.00459E-16
3.46978E-07 6.03226E-16
3.73156E-07 5.22299E-16
4.00286E-07 4.54499E-16
4.28368E-07 3.97352E-16
4.57402E-07 3.48911E-16
4.87388E-07 3.07632E-16
5.18325E-07 2.72278E-16
5.50215E-07 2.41860E-16
5.83057E-07 2.15573E-16
6.16850E-07 1.92760E-16
6.51596E-07 1.72886E-16
6.87293E-07 1.55508E-16
7.23942E-07 1.40258E-16
7.61543E-07 1.26832E-16
1.18991E-06 5.22008E-17
1.71347E-06 2.52462E-17
2.33223E-06 1.36523E-17
3.04617E-06 8.01283E-18
3.85531E-06 5.00696E-18
4.75964E-06 3.28738E-18
5.75916E-06 2.24659E-18
6.85388E-06 1.58699E-18
8.04378E-06 1.15265E-18
9.32888E-06 8.57262E-19
1.07092E-05 6.50727E-19
1.21846E-05 5.02816E-19
1.37553E-05 3.94650E-19
1.54212E-05 3.14072E-19
1.71822E-05 2.53051E-19
1.90385E-05 2.06075E-19
2.09899E-05 1.69656E-19
2.30365E-05 1.40923E-19
2.51783E-05 1.18002E-19
2.74153E-05 9.95390E-20
2.97475E-05 8.45411E-20
3.21749E-05 7.22642E-20
3.46974E-05 6.21423E-20
3.73152E-05 5.37386E-20
4.00281E-05 4.67138E-20
4.28362E-05 4.08028E-20
4.57395E-05 3.57981E-20
4.87380E-05 3.15367E-20
5.18317E-05 2.78896E-20
5.50205E-05 2.47537E-20
5.83045E-05 2.20461E-20
6.16838E-05 1.96991E-20
6.51582E-05 1.76570E-20
6.87277E-05 1.58735E-20
7.23925E-05 1.43102E-20
7.61524E-05 1.30371E-20
9.21439E-05 8.91408E-21
1.09658E-04 6.29836E-21
1.28695E-04 4.57512E-21
1.49255E-04 3.40184E-21
1.71338E-04 2.58107E-21
1.94942E-04 1.99280E-21
2.20070E-04 1.56235E-21
2.46720E-04 1.24155E-21
2.74892E-04 9.98519E-22
3.04586E-04 8.11734E-22
3.35803E-04 6.66270E-22
3.68542E-04 5.51656E-22
4.02802E-04 4.60377E-22
4.38585E-04 3.86969E-22
4.75889E-04 3.27409E-22
5.14715E-04 2.78687E-22
5.55063E-04 2.38531E-22
5.96931E-04 2.05205E-22
6.40321E-04 1.77368E-22
6.85233E-04 1.53979E-22
7.31665E-04 1.34217E-22
7.79618E-04 1.17433E-22
8.29092E-04 1.03110E-22
8.80086E-04 9.08315E-23
9.32601E-04 8.02611E-23
9.86636E-04 7.11249E-23
1.04219E-03 6.31990E-23
1.09927E-03 5.62986E-23
1.15786E-03 5.02712E-23
1.21797E-03 4.49897E-23
1.27961E-03 4.03483E-23
1.34276E-03 3.62579E-23
1.40743E-03 3.26434E-23
1.47362E-03 2.94415E-23
1.54133E-03 2.65984E-23
1.61056E-03 2.40680E-23
1.68131E-03 2.18111E-23
1.75357E-03 1.97941E-23
1.82735E-03 1.79878E-23
1.90265E-03 1.63674E-23
1.97947E-03 1.49111E-23
2.05780E-03 1.36000E-23
2.13765E-03 1.24178E-23
2.21902E-03 1.13502E-23
2.30190E-03 1.03846E-23
2.38630E-03 9.51007E-24
2.47222E-03 8.71697E-24
2.55965E-03 7.99678E-24
2.64859E-03 7.34201E-24
2.73905E-03 6.74601E-24
2.83103E-03 6.20290E-24
2.92452E-03 5.70745E-24
3.01952E-03 5.25502E-24
3.11604E-03 4.84146E-24
3.21407E-03 4.46309E-24
3.31362E-03 4.11660E-24
3.41468E-03 3.79902E-24
3.51725E-03 3.50771E-24
3.62133E-03 3.24028E-24
3.72692E-03 2.99459E-24
3.83403E-03 2.76871E-24
3.94265E-03 2.56090E-24
4.05278E-03 2.36959E-24
4.16442E-03 2.19336E-24
4.27757E-03 2.03092E-24
4.39223E-03 1.88110E-24
4.50840E-03 1.74285E-24
4.62608E-03 1.61522E-24
4.74527E-03 1.49731E-24
4.86597E-03 1.38836E-24
4.98817E-03 1.28762E-24
5.11188E-03 1.19443E-24
5.23711E-03 1.10821E-24
5.36383E-03 1.02839E-24
5.49207E-03 9.54474E-25
5.62181E-03 8.86002E-25
5.75306E-03 8.22550E-25
5.88581E-03 7.63734E-25
6.02007E-03 7.09198E-25
6.15583E-03 6.58618E-25
6.29310E-03 6.11694E-25
6.43187E-03 5.68152E-25
6.57214E-03 5.27740E-25
6.71392E-03 4.90223E-25
6.85720E-03 4.55389E-25
7.00198E-03 4.23040E-25
7.14827E-03 3.92994E-25
7.29605E-03 3.65082E-25
7.44534E-03 3.39150E-25
7.59612E-03 3.15055E-25
7.97965E-03 2.62007E-25
8.37255E-03 2.17827E-25
8.77480E-03 1.81020E-25
9.18641E-03 1.50354E-25
9.60736E-03 1.24806E-25
1.00376E-02 1.03527E-25
1.04773E-02 8.58124E-26
1.09262E-02 7.10738E-26
1.13844E-02 5.88207E-26
1.18520E-02 4.86434E-26
1.23288E-02 4.01993E-26
1.28150E-02 3.32018E-26
1.33104E-02 2.74108E-26
1.38150E-02 2.26254E-26
1.43290E-02 1.86771E-26
1.48521E-02 1.54249E-26
1.53845E-02 1.27506E-26
1.59262E-02 1.05555E-26
1.64770E-02 8.75682E-27
1.70371E-02 7.28543E-27
1.76063E-02 6.08369E-27
1.81848E-02 5.10352E-27
1.87724E-02 4.30494E-27
1.93692E-02 3.65471E-27
1.99751E-02 3.12532E-27
2.05901E-02 2.69401E-27
2.12143E-02 2.34203E-27
2.18476E-02 2.05396E-27
2.24900E-02 1.81720E-27
2.31415E-02 1.62146E-27
2.38021E-02 1.45838E-27
2.44717E-02 1.32122E-27
2.51504E-02 1.20456E-27
2.58382E-02 1.10409E-27
2.65349E-02 1.01636E-27
2.72407E-02 9.38686E-28
2.79555E-02 8.68966E-28
2.86793E-02 8.05580E-28
2.94120E-02 7.47291E-28
3.01537E-02 6.93170E-28
3.09043E-02 6.42530E-28
3.16639E-02 5.94869E-28
3.24324E-02 5.49832E-28
3.32098E-02 5.07171E-28
3.39961E-02 4.66717E-28
3.47912E-02 4.28363E-28
3.55952E-02 3.92038E-28
3.64081E-02 3.57697E-28
3.72297E-02 3.25312E-28
3.80602E-02 2.94861E-28
3.88995E-02 2.66321E-28
3.97476E-02 2.39671E-28
4.06044E-02 2.14880E-28
4.14700E-02 1.91911E-28
4.23443E-02 1.70720E-28
4.32273E-02 1.51254E-28
4.41190E-02 1.33453E-28
4.50194E-02 1.17249E-28
4.59284E-02 1.02568E-28
4.68461E-02 8.93325E-29
4.87074E-02 6.68623E-29
5.06030E-02 4.91527E-29
5.25328E-02 3.55086E-29
5.44967E-02 2.52559E-29
5.64946E-02 1.77641E-29
5.85262E-02 1.24626E-29
6.05914E-02 8.85063E-30
6.26901E-02 6.50079E-30
6.48222E-02 5.05893E-30
6.69873E-02 4.24006E-30
6.91854E-02 3.82220E-30
7.14163E-02 3.63861E-30
7.36799E-02 3.56953E-30
7.59760E-02 3.53375E-30
7.83043E-02 3.48071E-30
8.06647E-02 3.38320E-30
8.30571E-02 3.23103E-30
8.54812E-02 3.02570E-30
8.79369E-02 2.77599E-30
9.04240E-02 2.49460E-30
9.29422E-02 2.19557E-30
9.54915E-02 1.89247E-30
9.80716E-02 1.59726E-30
1.00682E-01 1.31962E-30
1.03323E-01 1.06666E-30
1.05995E-01 8.42990E-31
1.08696E-01 6.50880E-31
1.11427E-01 4.90639E-31
1.14188E-01 3.61000E-31
1.16978E-01 2.59530E-31
1.19797E-01 1.83022E-31
1.22645E-01 1.27846E-31
1.25522E-01 9.02391E-32
1.28428E-01 6.65383E-32
1.31361E-01 5.33523E-32
1.34323E-01 4.76751E-32
1.37313E-01 4.69513E-32
1.40330E-01 4.90998E-32
1.43375E-01 5.25037E-32
1.46447E-01 5.59780E-32
1.49545E-01 5.87196E-32
1.52671E-01 6.02492E-32
1.55823E-01 6.03488E-32
1.59001E-01 5.90008E-32
1.62205E-01 5.63314E-32
1.65435E-01 5.25599E-32
1.68690E-01 4.79567E-32
1.71970E-01 4.28085E-32
1.75276E-01 3.73931E-32
1.78606E-01 3.19601E-32
1.81961E-01 2.67201E-32
1.85340E-01 2.18380E-32
1.88743E-01 1.74323E-32
1.92169E-01 1.35766E-32
1.95619E-01 1.03048E-32
1.99092E-01 7.61637E-33
2.02589E-01 5.48411E-33
2.06107E-01 3.86052E-33
2.09649E-01 2.68473E-33
2.13212E-01 1.88841E-33
2.16797E-01 1.40096E-33
2.20404E-01 1.15356E-33
2.24032E-01 1.08237E-33
2.27680E-01 1.13065E-33
2.31350E-01 1.25012E-33
2.35040E-01 1.40143E-33
2.38751E-01 1.55420E-33
2.42481E-01 1.68645E-33
2.46231E-01 1.78375E-33
2.50000E-01 1.83818E-33
2.53788E-01 1.84715E-33
2.57595E-01 1.81219E-33
2.61421E-01 1.73788E-33
2.65264E-01 1.63077E-33
2.69126E-01 1.49848E-33
2.73005E-01 1.34898E-33
2.76901E-01 1.19001E-33
2.80814E-01 1.02862E-33
2.84744E-01 8.70887E-34
2.88691E-01 7.21747E-34
2.92653E-01 5.84945E-34
2.96632E-01 4.63040E-34
3.00625E-01 3.57498E-34
3.04634E-01 2.68818E-34
3.08658E-01 1.96691E-34
3.12697E-01 1.40166E-34
3.16749E-01 9.78155E-35
3.20816E-01 6.79016E-35
3.24896E-01 4.85126E-35
3.28990E-01 3.76889E-35
3.33097E-01 3.35229E-35
3.37216E-01 3.42365E-35
3.41348E-01 3.82367E-35
3.45492E-01 4.41505E-35
3.49647E-01 5.08420E-35
3.53814E-01 5.74147E-35
3.57992E-01 6.32018E-35
3.62181E-01 6.77476E-35
3.66381E-01 7.07824E-35
3.70590E-01 7.21944E-35
3.74810E-01 7.19995E-35
3.79039E-01 7.03117E-35
3.83277E-01 6.73151E-35
3.87524E-01 6.32388E-35
3.91780E-01 5.83344E-35
3.96044E-01 5.28580E-35
4.00316E-01 4.70557E-35
4.04596E-01 4.11521E-35
4.08882E-01 3.53435E-35
4.13176E-01 2.97926E-35
4.17476E-01 2.46272E-35
4.21783E-01 1.99402E-35
4.26095E-01 1.57916E-35
4.30413E-01 1.22113E-35
4.34737E-01 9.20340E-36
4.39065E-01 6.75042E-36
4.43398E-01 4.81792E-36
4.47736E-01 3.35888E-36
4.52077E-01 2.31791E-36
4.56422E-01 1.63498E-36
4.60770E-01 1.24866E-36
4.65122E-01 1.09877E-36
4.69476E-01 1.12855E-36
4.73832E-01 1.28620E-36
4.78190E-01 1.52593E-36
4.82550E-01 1.80862E-36
4.86912E-01 2.10200E-36
4.91274E-01 2.38057E-36
4.95637E-01 2.62526E-36
5.00000E-01 2.82286E-36
5.04363E-01 2.96535E-36
5.08726E-01 3.04922E-36
5.13088E-01 3.07458E-36
5.17450E-01 3.04448E-36
5.21810E-01 2.96419E-36
5.26168E-01 2.84041E-36
5.30524E-01 2.68081E-36
5.34878E-01 2.49344E-36
5.39230E-01 2.28632E-36
5.43578E-01 2.06710E-36
5.47923E-01 1.84280E-36
5.52264E-01 1.61965E-36
5.56602E-01 1.40296E-36
5.60935E-01 1.19707E-36
5.65263E-01 1.00536E-36
5.69587E-01 8.30266E-37
5.73905E-01 6.73381E-37
5.78217E-01 5.35500E-37
5.82524E-01 4.16750E-37
5.86824E-01 3.16686E-37
5.91118E-01 2.34406E-37
5.95404E-01 1.68654E-37
5.99684E-01 1.17921E-37
6.03956E-01 8.05348E-38
6.08220E-01 5.47402E-38
6.12476E-01 3.87677E-38
6.16723E-01 3.08915E-38
6.20961E-01 2.94727E-38
6.25190E-01 3.29935E-38
6.29410E-01 4.00850E-38
6.33619E-01 4.95370E-38
6.37819E-01 6.03090E-38
6.42008E-01 7.15295E-38
6.46186E-01 8.24899E-38
6.50353E-01 9.26352E-38
6.54508E-01 1.01556E-37
6.58652E-01 1.08966E-37
6.62784E-01 1.14695E-37
6.66903E-01 1.18665E-37
6.71010E-01 1.20878E-37
6.75104E-01 1.21402E-37
6.79184E-01 1.20350E-37
6.83251E-01 1.17877E-37
6.87303E-01 1.14155E-37
6.91342E-01 1.09378E-37
6.95366E-01 1.03738E-37
6.99375E-01 9.74320E-38
7.03368E-01 9.06434E-38
7.07347E-01 8.35504E-38
7.11309E-01 7.63096E-38
7.15256E-01 6.90655E-38
7.19186E-01 6.19385E-38
7.23099E-01 5.50356E-38
7.26995E-01 4.84411E-38
7.30874E-01 4.22227E-38
7.34736E-01 3.64307E-38
7.38579E-01 3.10987E-38
7.42405E-01 2.62468E-38
7.46212E-01 2.18834E-38
7.50000E-01 1.80050E-38
7.53769E-01 1.45998E-38
7.57519E-01 1.16485E-38
7.61249E-01 1.00000E-45
7.64960E-01 1.00000E-45
7.68650E-01 1.00000E-45
7.72320E-01 1.00000E-45
7.75968E-01 1.00000E-45
7.79596E-01 1.00000E-45
7.83203E-01 1.00000E-45
7.86788E-01 1.00000E-45
7.90351E-01 1.00000E-45
7.93893E-01 1.00000E-45
7.97411E-01 1.00000E-45
8.00908E-01 1.00000E-45
8.04381E-01 1.00000E-45
8.07831E-01 1.00000E-45
8.11257E-01 1.00000E-45
8.14660E-01 1.00000E-45
8.18039E-01 1.00000E-45
8.21394E-01 1.00000E-45
8.24724E-01 1.00000E-45
8.28030E-01 1.00000E-45
8.31310E-01 1.00000E-45
8.34565E-01 1.00000E-45
8.37795E-01 1.00000E-45
8.40999E-01 1.00000E-45
8.44177E-01 1.00000E-45
8.47329E-01 1.00000E-45
8.50455E-01 1.00000E-45
8.53553E-01 1.00000E-45
8.56625E-01 1.00000E-45
8.59670E-01 1.00000E-45
8.62687E-01 1.00000E-45
8.65677E-01 1.00000E-45
8.68639E-01 1.00000E-45
8.71572E-01 1.00000E-45
8.74478E-01 1.00000E-45
8.77355E-01 1.00000E-45
8.80203E-01 1.00000E-45
8.83022E-01 1.00000E-45
8.85812E-01 1.00000E-45
8.88573E-01 1.00000E-45
8.91304E-01 1.00000E-45
8.94005E-01 1.00000E-45
8.96677E-01 1.00000E-45
8.99318E-01 1.00000E-45
9.01928E-01 1.00000E-45
9.04508E-01 1.00000E-45
9.07058E-01 1.00000E-45
9.09576E-01 1.00000E-45
9.12063E-01 1.00000E-45
9.14519E-01 1.00000E-45
9.16943E-01 1.00000E-45
9.19335E-01 1.00000E-45
9.21696E-01 1.00000E-45
9.24024E-01 1.00000E-45
9.26320E-01 1.00000E-45
9.28584E-01 1.00000E-45
9.30815E-01 1.00000E-45
9.33013E-01 1.00000E-45
9.35178E-01 1.00000E-45
9.37310E-01 1.00000E-45
9.39409E-01 1.00000E-45
9.41474E-01 1.00000E-45
9.43505E-01 1.00000E-45
9.45503E-01 1.00000E-45
9.47467E-01 1.00000E-45
9.49397E-01 1.00000E-45
9.51293E-01 1.00000E-45
9.53154E-01 1.00000E-45
9.54981E-01 1.00000E-45
9.56773E-01 1.00000E-45
9.58530E-01 1.00000E-45
9.60252E-01 1.00000E-45
9.61940E-01 1.00000E-45
9.63592E-01 1.00000E-45
9.65209E-01 1.00000E-45
9.66790E-01 1.00000E-45
9.68336E-01 1.00000E-45
9.69846E-01 1.00000E-45
9.71321E-01 1.00000E-45
9.72759E-01 1.00000E-45
9.74162E-01 1.00000E-45
9.75528E-01 1.00000E-45
9.76858E-01 1.00000E-45
9.78152E-01 1.00000E-45
9.79410E-01 1.00000E-45
9.80631E-01 1.00000E-45
9.81815E-01 1.00000E-45
9.82963E-01 1.00000E-45
9.84074E-01 1.00000E-45
9.85148E-01 1.00000E-45
9.86185E-01 1.00000E-45
9.87185E-01 1.00000E-45
9.88148E-01 1.00000E-45
9.89074E-01 1.00000E-45
9.89962E-01 1.00000E-45
9.90814E-01 1.00000E-45
9.91627E-01 1.00000E-45
9.92404E-01 1.00000E-45
9.93143E-01 1.00000E-45
9.93844E-01 1.00000E-45
9.94508E-01 1.00000E-45
9.95134E-01 1.00000E-45
9.95722E-01 1.00000E-45
9.96273E-01 1.00000E-45
9.96786E-01 1.00000E-45
9.97261E-01 1.00000E-45
9.97698E-01 1.00000E-45
9.98097E-01 1.00000E-45
9.98459E-01 1.00000E-45
9.98782E-01 1.00000E-45
9.99067E-01 1.00000E-45
9.99315E-01 1.00000E-45
9.99524E-01 1.00000E-45
9.99695E-01 1.00000E-45
9.99829E-01 1.00000E-45
9.99924E-01 1.00000E-45
9.99981E-01 1.00000E-45
1.00000E+00 1.00000E-45
