 #
 # Subroutine ELSEPA. Elastic scattering of electrons and positrons
 #                    by neutral atoms and positive ions
 #
 # Projectile: electron
 # Kinetic energy = 2.00000E+08 eV = 7.34987E+06 a.u.
 #
 # WARNING: High-energy factorization with free-atom DF screening.
 #          Absorption, polarization and exchange corrections are
 #          switched off.
 #          Phase shifts are calculated for the bare nucleus.
 #          Scattering amplitudes are not evaluated.
 #
 # Element: Nd,  Z =  60,  atomic weight = 1.44240E+02 g/mol
 #
 # Nuclear model: Fermi distribution
 #                Average radius = 5.61150E-13 cm
 #                Skin thickness = 5.46000E-14 cm
 #
 # Number of electrons = 60
 #
 # Total elastic cross section = 7.26662E-18 cm**2 = 2.59496E-01 a0**2
 # 1st transport cross section = 1.74427E-25 cm**2 = 6.22890E-09 a0**2
 # 2nd transport cross section = 5.22100E-25 cm**2 = 1.86445E-08 a0**2
 #
 #
 # Differential cross section:                       MU=(1-COS(THETA))/2
 #
 #  THETA        MU          DCS          DCS        Sherman      error
 #  (deg)                 (cm**2/sr)   (a0**2/sr)    function
 #----------------------------------------------------------------------
0.00000E+00 4.09330E-09
7.61557E-13 4.00550E-09
1.18994E-12 3.95749E-09
1.71346E-12 3.90008E-09
2.33225E-12 3.83398E-09
3.04617E-12 3.75997E-09
3.85530E-12 3.67891E-09
4.75964E-12 3.59170E-09
5.75917E-12 3.49930E-09
6.85391E-12 3.40333E-09
8.04379E-12 3.30300E-09
9.32893E-12 3.20004E-09
1.07092E-11 3.09635E-09
1.21847E-11 2.99052E-09
1.37554E-11 2.88531E-09
1.54213E-11 2.78075E-09
1.71823E-11 2.67587E-09
1.90386E-11 2.57446E-09
2.09900E-11 2.47423E-09
2.30367E-11 2.37539E-09
2.51785E-11 2.28134E-09
2.74156E-11 2.18880E-09
2.97478E-11 2.09942E-09
3.21752E-11 2.01430E-09
3.46979E-11 1.93121E-09
3.73157E-11 1.85244E-09
4.00286E-11 1.77708E-09
4.28368E-11 1.70395E-09
4.57402E-11 1.63574E-09
4.87388E-11 1.57002E-09
5.18325E-11 1.50692E-09
5.50215E-11 1.44808E-09
5.83057E-11 1.39132E-09
6.16850E-11 1.33751E-09
6.51595E-11 1.28683E-09
6.87293E-11 1.23807E-09
7.23943E-11 1.19227E-09
7.61544E-11 1.14873E-09
1.18991E-10 8.14555E-10
1.71347E-10 6.04265E-10
2.33223E-10 4.61714E-10
3.04617E-10 3.59349E-10
3.85531E-10 2.83144E-10
4.75965E-10 2.25282E-10
5.75917E-10 1.80795E-10
6.85389E-10 1.45076E-10
8.04380E-10 1.19078E-10
9.32891E-10 9.88784E-11
1.07092E-09 8.20784E-11
1.21847E-09 6.92475E-11
1.37554E-09 5.86569E-11
1.54213E-09 4.99625E-11
1.71823E-09 4.30706E-11
1.90386E-09 3.70815E-11
2.09900E-09 3.21722E-11
2.30367E-09 2.81336E-11
2.51785E-09 2.45442E-11
2.74156E-09 2.15791E-11
2.97478E-09 1.90404E-11
3.21752E-09 1.68088E-11
3.46978E-09 1.49303E-11
3.73156E-09 1.32756E-11
4.00286E-09 1.18352E-11
4.28368E-09 1.06038E-11
4.57402E-09 9.49932E-12
4.87388E-09 8.54239E-12
5.18326E-09 7.70897E-12
5.50215E-09 6.96214E-12
5.83057E-09 6.31061E-12
6.16850E-09 5.73371E-12
6.51596E-09 5.21896E-12
6.87293E-09 4.76513E-12
7.23942E-09 4.35830E-12
7.61544E-09 3.99514E-12
1.18991E-08 1.85976E-12
1.71347E-08 9.94133E-13
2.33223E-08 5.79708E-13
3.04617E-08 3.59021E-13
3.85531E-08 2.33037E-13
4.75965E-08 1.57505E-13
5.75917E-08 1.10149E-13
6.85389E-08 7.93571E-14
8.04380E-08 5.86379E-14
9.32891E-08 4.42831E-14
1.07092E-07 3.40813E-14
1.21847E-07 2.66631E-14
1.37554E-07 2.11617E-14
1.54213E-07 1.70104E-14
1.71823E-07 1.38290E-14
1.90386E-07 1.13574E-14
2.09900E-07 9.41349E-15
2.30367E-07 7.86744E-15
2.51785E-07 6.62556E-15
2.74156E-07 5.61836E-15
2.97478E-07 4.79502E-15
3.21752E-07 4.11679E-15
3.46978E-07 3.55406E-15
3.73156E-07 3.08407E-15
4.00286E-07 2.68910E-15
4.28368E-07 2.35525E-15
4.57402E-07 2.07154E-15
4.87388E-07 1.82923E-15
5.18325E-07 1.62128E-15
5.50215E-07 1.44202E-15
5.83057E-07 1.28683E-15
6.16850E-07 1.15194E-15
6.51596E-07 1.03426E-15
6.87293E-07 9.31221E-16
7.23942E-07 8.40700E-16
7.61543E-07 7.60915E-16
1.18991E-06 3.15531E-16
1.71347E-06 1.53484E-16
2.33223E-06 8.33802E-17
3.04617E-06 4.91154E-17
3.85531E-06 3.07785E-17
4.75964E-06 2.02536E-17
5.75916E-06 1.38660E-17
6.85388E-06 9.80897E-18
8.04378E-06 7.13262E-18
9.32888E-06 5.30972E-18
1.07092E-05 4.03360E-18
1.21846E-05 3.11875E-18
1.37553E-05 2.44915E-18
1.54212E-05 1.94997E-18
1.71822E-05 1.57171E-18
1.90385E-05 1.28036E-18
2.09899E-05 1.05438E-18
2.30365E-05 8.76025E-19
2.51783E-05 7.33694E-19
2.74153E-05 6.19012E-19
2.97475E-05 5.25828E-19
3.21749E-05 4.49534E-19
3.46974E-05 3.86619E-19
3.73152E-05 3.34372E-19
4.00281E-05 2.90691E-19
4.28362E-05 2.53931E-19
4.57395E-05 2.22804E-19
4.87380E-05 1.96296E-19
5.18317E-05 1.73606E-19
5.50205E-05 1.54096E-19
5.83045E-05 1.37248E-19
6.16838E-05 1.22643E-19
6.51582E-05 1.09934E-19
6.87277E-05 9.88343E-20
7.23925E-05 8.91037E-20
7.61524E-05 8.07760E-20
9.21439E-05 5.52478E-20
1.09658E-04 3.90594E-20
1.28695E-04 2.83975E-20
1.49255E-04 2.11395E-20
1.71338E-04 1.60625E-20
1.94942E-04 1.24237E-20
2.20070E-04 9.76062E-21
2.46720E-04 7.77539E-21
2.74892E-04 6.27069E-21
3.04586E-04 5.11355E-21
3.35803E-04 4.21171E-21
3.68542E-04 3.50047E-21
4.02802E-04 2.93339E-21
4.38585E-04 2.47675E-21
4.75889E-04 2.10570E-21
5.14715E-04 1.80166E-21
5.55063E-04 1.55062E-21
5.96931E-04 1.34182E-21
6.40321E-04 1.16702E-21
6.85233E-04 1.01977E-21
7.31665E-04 8.95031E-22
7.79618E-04 7.88784E-22
8.29092E-04 6.97832E-22
8.80086E-04 6.19605E-22
9.32601E-04 5.52022E-22
9.86636E-04 4.93391E-22
1.04219E-03 4.42325E-22
1.09927E-03 3.97680E-22
1.15786E-03 3.58511E-22
1.21797E-03 3.24030E-22
1.27961E-03 2.93581E-22
1.34276E-03 2.66609E-22
1.40743E-03 2.42650E-22
1.47362E-03 2.21307E-22
1.54133E-03 2.02246E-22
1.61056E-03 1.85179E-22
1.68131E-03 1.69863E-22
1.75357E-03 1.56084E-22
1.82735E-03 1.43663E-22
1.90265E-03 1.32442E-22
1.97947E-03 1.22285E-22
2.05780E-03 1.13072E-22
2.13765E-03 1.04701E-22
2.21902E-03 9.70810E-23
2.30190E-03 9.01329E-23
2.38630E-03 8.37868E-23
2.47222E-03 7.79816E-23
2.55965E-03 7.26628E-23
2.64859E-03 6.77825E-23
2.73905E-03 6.32983E-23
2.83103E-03 5.91722E-23
2.92452E-03 5.53706E-23
3.01952E-03 5.18635E-23
3.11604E-03 4.86240E-23
3.21407E-03 4.56282E-23
3.31362E-03 4.28544E-23
3.41468E-03 4.02834E-23
3.51725E-03 3.78976E-23
3.62133E-03 3.56814E-23
3.72692E-03 3.36207E-23
3.83403E-03 3.17026E-23
3.94265E-03 2.99155E-23
4.05278E-03 2.82488E-23
4.16442E-03 2.66932E-23
4.27757E-03 2.52398E-23
4.39223E-03 2.38809E-23
4.50840E-03 2.26091E-23
4.62608E-03 2.14180E-23
4.74527E-03 2.03015E-23
4.86597E-03 1.92542E-23
4.98817E-03 1.82710E-23
5.11188E-03 1.73474E-23
5.23711E-03 1.64790E-23
5.36383E-03 1.56622E-23
5.49207E-03 1.48931E-23
5.62181E-03 1.41687E-23
5.75306E-03 1.34859E-23
5.88581E-03 1.28418E-23
6.02007E-03 1.22339E-23
6.15583E-03 1.16599E-23
6.29310E-03 1.11175E-23
6.43187E-03 1.06047E-23
6.57214E-03 1.01196E-23
6.71392E-03 9.66048E-24
6.85720E-03 9.22572E-24
7.00198E-03 8.81381E-24
7.14827E-03 8.42336E-24
7.29605E-03 8.05305E-24
7.44534E-03 7.70169E-24
7.59612E-03 7.36815E-24
7.97965E-03 6.60553E-24
8.37255E-03 5.93336E-24
8.77480E-03 5.33935E-24
9.18641E-03 4.81312E-24
9.60736E-03 4.34583E-24
1.00376E-02 3.92996E-24
1.04773E-02 3.55907E-24
1.09262E-02 3.22763E-24
1.13844E-02 2.93087E-24
1.18520E-02 2.66469E-24
1.23288E-02 2.42551E-24
1.28150E-02 2.21025E-24
1.33104E-02 2.01621E-24
1.38150E-02 1.84104E-24
1.43290E-02 1.68267E-24
1.48521E-02 1.53929E-24
1.53845E-02 1.40933E-24
1.59262E-02 1.29138E-24
1.64770E-02 1.18420E-24
1.70371E-02 1.08670E-24
1.76063E-02 9.97909E-25
1.81848E-02 9.16965E-25
1.87724E-02 8.43104E-25
1.93692E-02 7.75641E-25
1.99751E-02 7.13967E-25
2.05901E-02 6.57538E-25
2.12143E-02 6.05864E-25
2.18476E-02 5.58509E-25
2.24900E-02 5.15079E-25
2.31415E-02 4.75221E-25
2.38021E-02 4.38616E-25
2.44717E-02 4.04977E-25
2.51504E-02 3.74044E-25
2.58382E-02 3.45583E-25
2.65349E-02 3.19383E-25
2.72407E-02 2.95250E-25
2.79555E-02 2.73011E-25
2.86793E-02 2.52506E-25
2.94120E-02 2.33593E-25
3.01537E-02 2.16140E-25
3.09043E-02 2.00028E-25
3.16639E-02 1.85149E-25
3.24324E-02 1.71402E-25
3.32098E-02 1.58697E-25
3.39961E-02 1.46953E-25
3.47912E-02 1.36092E-25
3.55952E-02 1.26045E-25
3.64081E-02 1.16750E-25
3.72297E-02 1.08147E-25
3.80602E-02 1.00184E-25
3.88995E-02 9.28113E-26
3.97476E-02 8.59836E-26
4.06044E-02 7.96597E-26
4.14700E-02 7.38015E-26
4.23443E-02 6.83740E-26
4.32273E-02 6.33449E-26
4.41190E-02 5.86843E-26
4.50194E-02 5.43649E-26
4.59284E-02 5.03614E-26
4.68461E-02 4.66504E-26
4.87074E-02 4.00213E-26
5.06030E-02 3.43242E-26
5.25328E-02 2.94280E-26
5.44967E-02 2.52204E-26
5.64946E-02 2.16051E-26
5.85262E-02 1.84997E-26
6.05914E-02 1.58332E-26
6.26901E-02 1.35446E-26
6.48222E-02 1.15815E-26
6.69873E-02 9.89853E-27
6.91854E-02 8.45680E-27
7.14163E-02 7.22270E-27
7.36799E-02 6.16722E-27
7.59760E-02 5.26534E-27
7.83043E-02 4.49545E-27
8.06647E-02 3.83893E-27
8.30571E-02 3.27968E-27
8.54812E-02 2.80381E-27
8.79369E-02 2.39935E-27
9.04240E-02 2.05598E-27
9.29422E-02 1.76478E-27
9.54915E-02 1.51809E-27
9.80716E-02 1.30933E-27
1.00682E-01 1.13280E-27
1.03323E-01 9.83653E-28
1.05995E-01 8.57698E-28
1.08696E-01 7.51356E-28
1.11427E-01 6.61566E-28
1.14188E-01 5.85713E-28
1.16978E-01 5.21567E-28
1.19797E-01 4.67233E-28
1.22645E-01 4.21100E-28
1.25522E-01 3.81806E-28
1.28428E-01 3.48199E-28
1.31361E-01 3.19311E-28
1.34323E-01 2.94329E-28
1.37313E-01 2.72571E-28
1.40330E-01 2.53470E-28
1.43375E-01 2.36557E-28
1.46447E-01 2.21443E-28
1.49545E-01 2.07808E-28
1.52671E-01 1.95391E-28
1.55823E-01 1.83981E-28
1.59001E-01 1.73406E-28
1.62205E-01 1.63529E-28
1.65435E-01 1.54243E-28
1.68690E-01 1.45461E-28
1.71970E-01 1.37117E-28
1.75276E-01 1.29161E-28
1.78606E-01 1.21554E-28
1.81961E-01 1.14267E-28
1.85340E-01 1.07279E-28
1.88743E-01 1.00574E-28
1.92169E-01 9.41431E-29
1.95619E-01 8.79777E-29
1.99092E-01 8.20731E-29
2.02589E-01 7.64256E-29
2.06107E-01 7.10326E-29
2.09649E-01 6.58919E-29
2.13212E-01 6.10012E-29
2.16797E-01 5.63582E-29
2.20404E-01 5.19601E-29
2.24032E-01 4.78035E-29
2.27680E-01 4.38846E-29
2.31350E-01 4.01985E-29
2.35040E-01 3.67403E-29
2.38751E-01 3.35038E-29
2.42481E-01 3.04827E-29
2.46231E-01 2.76700E-29
2.50000E-01 2.50581E-29
2.53788E-01 2.26391E-29
2.57595E-01 2.04050E-29
2.61421E-01 1.83471E-29
2.65264E-01 1.64568E-29
2.69126E-01 1.47255E-29
2.73005E-01 1.31443E-29
2.76901E-01 1.17044E-29
2.80814E-01 1.03972E-29
2.84744E-01 9.21409E-30
2.88691E-01 8.14667E-30
2.92653E-01 7.18679E-30
2.96632E-01 6.32653E-30
3.00625E-01 5.55824E-30
3.04634E-01 4.87459E-30
3.08658E-01 4.26855E-30
3.12697E-01 3.73346E-30
3.16749E-01 3.26296E-30
3.20816E-01 2.85109E-30
3.24896E-01 2.49220E-30
3.28990E-01 2.18103E-30
3.33097E-01 1.91264E-30
3.37216E-01 1.68246E-30
3.41348E-01 1.48625E-30
3.45492E-01 1.32008E-30
3.49647E-01 1.18035E-30
3.53814E-01 1.06377E-30
3.57992E-01 9.67320E-31
3.62181E-01 8.88271E-31
3.66381E-01 8.24149E-31
3.70590E-01 7.72727E-31
3.74810E-01 7.32008E-31
3.79039E-01 7.00210E-31
3.83277E-01 6.75754E-31
3.87524E-01 6.57245E-31
3.91780E-01 6.43461E-31
3.96044E-01 6.33336E-31
4.00316E-01 6.25950E-31
4.04596E-01 6.20514E-31
4.08882E-01 6.16358E-31
4.13176E-01 6.12920E-31
4.17476E-01 6.09734E-31
4.21783E-01 6.06422E-31
4.26095E-01 6.02680E-31
4.30413E-01 5.98274E-31
4.34737E-01 5.93028E-31
4.39065E-01 5.86819E-31
4.43398E-01 5.79568E-31
4.47736E-01 5.71233E-31
4.52077E-01 5.61806E-31
4.56422E-01 5.51306E-31
4.60770E-01 5.39773E-31
4.65122E-01 5.27265E-31
4.69476E-01 5.13854E-31
4.73832E-01 4.99625E-31
4.78190E-01 4.84667E-31
4.82550E-01 4.69076E-31
4.86912E-01 4.52950E-31
4.91274E-01 4.36390E-31
4.95637E-01 4.19494E-31
5.00000E-01 4.02357E-31
5.04363E-01 3.85074E-31
5.08726E-01 3.67732E-31
5.13088E-01 3.50417E-31
5.17450E-01 3.33205E-31
5.21810E-01 3.16170E-31
5.26168E-01 2.99378E-31
5.30524E-01 2.82889E-31
5.34878E-01 2.66757E-31
5.39230E-01 2.51029E-31
5.43578E-01 2.35745E-31
5.47923E-01 2.20942E-31
5.52264E-01 2.06649E-31
5.56602E-01 1.92889E-31
5.60935E-01 1.79681E-31
5.65263E-01 1.67040E-31
5.69587E-01 1.54973E-31
5.73905E-01 1.43487E-31
5.78217E-01 1.32582E-31
5.82524E-01 1.22256E-31
5.86824E-01 1.12504E-31
5.91118E-01 1.03317E-31
5.95404E-01 9.46851E-32
5.99684E-01 8.65943E-32
6.03956E-01 7.90303E-32
6.08220E-01 7.19766E-32
6.12476E-01 6.54155E-32
6.16723E-01 5.93282E-32
6.20961E-01 5.36952E-32
6.25190E-01 4.84962E-32
6.29410E-01 4.37105E-32
6.33619E-01 3.93172E-32
6.37819E-01 3.52955E-32
6.42008E-01 3.16244E-32
6.46186E-01 2.82833E-32
6.50353E-01 2.52517E-32
6.54508E-01 2.25097E-32
6.58652E-01 2.00379E-32
6.62784E-01 1.78173E-32
6.66903E-01 1.58297E-32
6.71010E-01 1.40575E-32
6.75104E-01 1.24838E-32
6.79184E-01 1.10926E-32
6.83251E-01 9.86850E-33
6.87303E-01 8.79691E-33
6.91342E-01 7.86407E-33
6.95366E-01 7.05699E-33
6.99375E-01 6.36347E-33
7.03368E-01 5.77208E-33
7.07347E-01 5.27213E-33
7.11309E-01 4.85369E-33
7.15256E-01 4.50754E-33
7.19186E-01 4.22514E-33
7.23099E-01 3.99863E-33
7.26995E-01 3.82078E-33
7.30874E-01 3.68499E-33
7.34736E-01 3.58522E-33
7.38579E-01 3.51599E-33
7.42405E-01 3.47234E-33
7.46212E-01 3.44979E-33
7.50000E-01 3.44433E-33
7.53769E-01 3.45238E-33
7.57519E-01 3.47076E-33
7.61249E-01 3.49666E-33
7.64960E-01 3.52761E-33
7.68650E-01 3.56146E-33
7.72320E-01 3.59637E-33
7.75968E-01 3.63073E-33
7.79596E-01 3.66322E-33
7.83203E-01 3.69271E-33
7.86788E-01 3.71829E-33
7.90351E-01 3.73920E-33
7.93893E-01 3.75489E-33
7.97411E-01 3.76492E-33
8.00908E-01 3.76900E-33
8.04381E-01 3.76693E-33
8.07831E-01 3.75863E-33
8.11257E-01 3.74410E-33
8.14660E-01 3.72342E-33
8.18039E-01 3.69672E-33
8.21394E-01 3.66421E-33
8.24724E-01 3.62611E-33
8.28030E-01 3.58272E-33
8.31310E-01 3.53432E-33
8.34565E-01 3.48125E-33
8.37795E-01 3.42385E-33
8.40999E-01 3.36247E-33
8.44177E-01 3.29748E-33
8.47329E-01 3.22924E-33
8.50455E-01 3.15811E-33
8.53553E-01 3.08444E-33
8.56625E-01 3.00860E-33
8.59670E-01 2.93091E-33
8.62687E-01 2.85171E-33
8.65677E-01 2.77131E-33
8.68639E-01 2.69002E-33
8.71572E-01 2.60811E-33
8.74478E-01 2.52588E-33
8.77355E-01 2.44356E-33
8.80203E-01 2.36139E-33
8.83022E-01 2.27961E-33
8.85812E-01 2.19841E-33
8.88573E-01 2.11797E-33
8.91304E-01 2.03848E-33
8.94005E-01 1.96009E-33
8.96677E-01 1.88294E-33
8.99318E-01 1.80716E-33
9.01928E-01 1.73285E-33
9.04508E-01 1.66012E-33
9.07058E-01 1.58904E-33
9.09576E-01 1.51970E-33
9.12063E-01 1.45214E-33
9.14519E-01 1.38643E-33
9.16943E-01 1.32260E-33
9.19335E-01 1.26068E-33
9.21696E-01 1.20069E-33
9.24024E-01 1.14264E-33
9.26320E-01 1.08654E-33
9.28584E-01 1.03238E-33
9.30815E-01 9.80160E-34
9.33013E-01 9.29859E-34
9.35178E-01 8.81460E-34
9.37310E-01 8.34937E-34
9.39409E-01 7.90264E-34
9.41474E-01 7.47405E-34
9.43505E-01 7.06328E-34
9.45503E-01 6.66992E-34
9.47467E-01 6.29359E-34
9.49397E-01 5.93383E-34
9.51293E-01 5.59023E-34
9.53154E-01 5.26232E-34
9.54981E-01 4.94963E-34
9.56773E-01 4.65169E-34
9.58530E-01 4.36802E-34
9.60252E-01 4.09814E-34
9.61940E-01 3.84157E-34
9.63592E-01 3.59783E-34
9.65209E-01 3.36643E-34
9.66790E-01 3.14692E-34
9.68336E-01 2.93882E-34
9.69846E-01 2.74168E-34
9.71321E-01 2.55504E-34
9.72759E-01 2.37846E-34
9.74162E-01 2.21152E-34
9.75528E-01 2.05380E-34
9.76858E-01 1.90488E-34
9.78152E-01 1.76437E-34
9.79410E-01 1.63189E-34
9.80631E-01 1.50707E-34
9.81815E-01 1.38954E-34
9.82963E-01 1.27897E-34
9.84074E-01 1.17502E-34
9.85148E-01 1.07738E-34
9.86185E-01 9.85732E-35
9.87185E-01 8.99792E-35
9.88148E-01 8.19278E-35
9.89074E-01 7.43926E-35
9.89962E-01 6.73481E-35
9.90814E-01 6.07703E-35
9.91627E-01 5.46365E-35
9.92404E-01 4.89248E-35
9.93143E-01 4.36152E-35
9.93844E-01 3.86881E-35
9.94508E-01 3.41257E-35
9.95134E-01 2.99110E-35
9.95722E-01 2.60282E-35
9.96273E-01 2.24626E-35
9.96786E-01 1.92005E-35
9.97261E-01 1.62293E-35
9.97698E-01 1.35376E-35
9.98097E-01 1.11146E-35
9.98459E-01 8.95064E-36
9.98782E-01 7.03755E-36
9.99067E-01 5.36721E-36
9.99315E-01 3.93313E-36
9.99524E-01 2.72941E-36
9.99695E-01 1.75120E-36
9.99829E-01 9.94478E-37
9.99924E-01 4.56191E-37
9.99981E-01 1.34085E-37
1.00000E+00 2.69114E-38
