 #
 # Subroutine ELSEPA. Elastic scattering of electrons and positrons
 #                    by neutral atoms and positive ions
 #
 # Projectile: electron
 # Kinetic energy = 1.75000E+07 eV = 6.43113E+05 a.u.
 #
 # WARNING: High-energy factorization with free-atom DF screening.
 #          Absorption, polarization and exchange corrections are
 #          switched off.
 #          Phase shifts are calculated for the bare nucleus.
 #          Scattering amplitudes are not evaluated.
 #
 # Element: Nd,  Z =  60,  atomic weight = 1.44240E+02 g/mol
 #
 # Nuclear model: Fermi distribution
 #                Average radius = 5.61150E-13 cm
 #                Skin thickness = 5.46000E-14 cm
 #
 # Number of electrons = 60
 #
 # Total elastic cross section = 7.27491E-18 cm**2 = 2.59792E-01 a0**2
 # 1st transport cross section = 2.07290E-23 cm**2 = 7.40244E-07 a0**2
 # 2nd transport cross section = 5.87019E-23 cm**2 = 2.09628E-06 a0**2
 #
 #
 # Differential cross section:                       MU=(1-COS(THETA))/2
 #
 #  THETA        MU          DCS          DCS        Sherman      error
 #  (deg)                 (cm**2/sr)   (a0**2/sr)    function
 #----------------------------------------------------------------------
0.00000E+00 3.30273E-11
7.61557E-13 3.30214E-11
1.18994E-12 3.30181E-11
1.71346E-12 3.30141E-11
2.33225E-12 3.30094E-11
3.04617E-12 3.30039E-11
3.85530E-12 3.29978E-11
4.75964E-12 3.29909E-11
5.75917E-12 3.29832E-11
6.85391E-12 3.29749E-11
8.04379E-12 3.29658E-11
9.32893E-12 3.29561E-11
1.07092E-11 3.29456E-11
1.21847E-11 3.29344E-11
1.37554E-11 3.29224E-11
1.54213E-11 3.29098E-11
1.71823E-11 3.28964E-11
1.90386E-11 3.28824E-11
2.09900E-11 3.28676E-11
2.30367E-11 3.28521E-11
2.51785E-11 3.28359E-11
2.74156E-11 3.28190E-11
2.97478E-11 3.28014E-11
3.21752E-11 3.27831E-11
3.46979E-11 3.27641E-11
3.73157E-11 3.27444E-11
4.00286E-11 3.27240E-11
4.28368E-11 3.27029E-11
4.57402E-11 3.26811E-11
4.87388E-11 3.26586E-11
5.18325E-11 3.26355E-11
5.50215E-11 3.26116E-11
5.83057E-11 3.25871E-11
6.16850E-11 3.25619E-11
6.51595E-11 3.25360E-11
6.87293E-11 3.25095E-11
7.23943E-11 3.24822E-11
7.61544E-11 3.24543E-11
1.18991E-10 3.21393E-11
1.71347E-10 3.17610E-11
2.33223E-10 3.13233E-11
3.04617E-10 3.08305E-11
3.85531E-10 3.02872E-11
4.75965E-10 2.96985E-11
5.75917E-10 2.90696E-11
6.85389E-10 2.84059E-11
8.04380E-10 2.77184E-11
9.32891E-10 2.70028E-11
1.07092E-09 2.62617E-11
1.21847E-09 2.55164E-11
1.37554E-09 2.47597E-11
1.54213E-09 2.39903E-11
1.71823E-09 2.32307E-11
1.90386E-09 2.24732E-11
2.09900E-09 2.17133E-11
2.30367E-09 2.09731E-11
2.51785E-09 2.02454E-11
2.74156E-09 1.95231E-11
2.97478E-09 1.88260E-11
3.21752E-09 1.81487E-11
3.46978E-09 1.74819E-11
3.73156E-09 1.68424E-11
4.00286E-09 1.62270E-11
4.28368E-09 1.56248E-11
4.57402E-09 1.50496E-11
4.87388E-09 1.45002E-11
5.18326E-09 1.39651E-11
5.50215E-09 1.34550E-11
5.83057E-09 1.29706E-11
6.16850E-09 1.25005E-11
6.51596E-09 1.20526E-11
6.87293E-09 1.16288E-11
7.23942E-09 1.12187E-11
7.61544E-09 1.08277E-11
1.18991E-08 7.78311E-12
1.71347E-08 5.82869E-12
2.33223E-08 4.50521E-12
3.04617E-08 3.55478E-12
3.85531E-08 2.84303E-12
4.75965E-08 2.29609E-12
5.75917E-08 1.86920E-12
6.85389E-08 1.53292E-12
8.04380E-08 1.25499E-12
9.32891E-08 1.04335E-12
1.07092E-07 8.82315E-13
1.21847E-07 7.43908E-13
1.37554E-07 6.32391E-13
1.54213E-07 5.44471E-13
1.71823E-07 4.68719E-13
1.90386E-07 4.05888E-13
2.09900E-07 3.54910E-13
2.30367E-07 3.10420E-13
2.51785E-07 2.72558E-13
2.74156E-07 2.41142E-13
2.97478E-07 2.13425E-13
3.21752E-07 1.89345E-13
3.46978E-07 1.69007E-13
3.73156E-07 1.50960E-13
4.00286E-07 1.35046E-13
4.28368E-07 1.21409E-13
4.57402E-07 1.09277E-13
4.87388E-07 9.84724E-14
5.18325E-07 8.90991E-14
5.50215E-07 8.07464E-14
5.83057E-07 7.32572E-14
6.16850E-07 6.66908E-14
6.51596E-07 6.08249E-14
6.87293E-07 5.55396E-14
7.23942E-07 5.08617E-14
7.61543E-07 4.66676E-14
1.18991E-06 2.17119E-14
1.71347E-06 1.16367E-14
2.33223E-06 6.83438E-15
3.04617E-06 4.27347E-15
3.85531E-06 2.79632E-15
4.75964E-06 1.89964E-15
5.75916E-06 1.33347E-15
6.85388E-06 9.62596E-16
8.04378E-06 7.11881E-16
9.32888E-06 5.38274E-16
1.07092E-05 4.14732E-16
1.21846E-05 3.24828E-16
1.37553E-05 2.58095E-16
1.54212E-05 2.07645E-16
1.71822E-05 1.68982E-16
1.90385E-05 1.38875E-16
2.09899E-05 1.15289E-16
2.30365E-05 9.64941E-17
2.51783E-05 8.13469E-17
2.74153E-05 6.90398E-17
2.97475E-05 5.89666E-17
3.21749E-05 5.06628E-17
3.46974E-05 4.37713E-17
3.73152E-05 3.80140E-17
4.00281E-05 3.31715E-17
4.28362E-05 2.90766E-17
4.57395E-05 2.55937E-17
4.87380E-05 2.26154E-17
5.18317E-05 2.00561E-17
5.50205E-05 1.78468E-17
5.83045E-05 1.59325E-17
6.16838E-05 1.42681E-17
6.51582E-05 1.28157E-17
6.87277E-05 1.15440E-17
7.23925E-05 1.04263E-17
7.61524E-05 9.44097E-18
9.21439E-05 6.49268E-18
1.09658E-04 4.61064E-18
1.28695E-04 3.36459E-18
1.49255E-04 2.51265E-18
1.71338E-04 1.91448E-18
1.94942E-04 1.48436E-18
2.20070E-04 1.16868E-18
2.46720E-04 9.32756E-19
2.74892E-04 7.53528E-19
3.04586E-04 6.15420E-19
3.35803E-04 5.07585E-19
3.68542E-04 4.22398E-19
4.02802E-04 3.54379E-19
4.38585E-04 2.99533E-19
4.75889E-04 2.54914E-19
5.14715E-04 2.18312E-19
5.55063E-04 1.88060E-19
5.96931E-04 1.62879E-19
6.40321E-04 1.41781E-19
6.85233E-04 1.23997E-19
7.31665E-04 1.08920E-19
7.79618E-04 9.60720E-20
8.29092E-04 8.50666E-20
8.80086E-04 7.55963E-20
9.32601E-04 6.74111E-20
9.86636E-04 6.03064E-20
1.04219E-03 5.41158E-20
1.09927E-03 4.87017E-20
1.15786E-03 4.39497E-20
1.21797E-03 3.97650E-20
1.27961E-03 3.60682E-20
1.34276E-03 3.27924E-20
1.40743E-03 2.98814E-20
1.47362E-03 2.72874E-20
1.54133E-03 2.49697E-20
1.61056E-03 2.28939E-20
1.68131E-03 2.10302E-20
1.75357E-03 1.93530E-20
1.82735E-03 1.78403E-20
1.90265E-03 1.64733E-20
1.97947E-03 1.52352E-20
2.05780E-03 1.41118E-20
2.13765E-03 1.30905E-20
2.21902E-03 1.21603E-20
2.30190E-03 1.13117E-20
2.38630E-03 1.05362E-20
2.47222E-03 9.82642E-21
2.55965E-03 9.17567E-21
2.64859E-03 8.57820E-21
2.73905E-03 8.02883E-21
2.83103E-03 7.52298E-21
2.92452E-03 7.05658E-21
3.01952E-03 6.62597E-21
3.11604E-03 6.22791E-21
3.21407E-03 5.85947E-21
3.31362E-03 5.51805E-21
3.41468E-03 5.20128E-21
3.51725E-03 4.90707E-21
3.62133E-03 4.63351E-21
3.72692E-03 4.37887E-21
3.83403E-03 4.14161E-21
3.94265E-03 3.92031E-21
4.05278E-03 3.71370E-21
4.16442E-03 3.52062E-21
4.27757E-03 3.34002E-21
4.39223E-03 3.17094E-21
4.50840E-03 3.01250E-21
4.62608E-03 2.86391E-21
4.74527E-03 2.72444E-21
4.86597E-03 2.59342E-21
4.98817E-03 2.47025E-21
5.11188E-03 2.35437E-21
5.23711E-03 2.24526E-21
5.36383E-03 2.14245E-21
5.49207E-03 2.04551E-21
5.62181E-03 1.95403E-21
5.75306E-03 1.86766E-21
5.88581E-03 1.78605E-21
6.02007E-03 1.70889E-21
6.15583E-03 1.63589E-21
6.29310E-03 1.56678E-21
6.43187E-03 1.50131E-21
6.57214E-03 1.43927E-21
6.71392E-03 1.38042E-21
6.85720E-03 1.32459E-21
7.00198E-03 1.27157E-21
7.14827E-03 1.22121E-21
7.29605E-03 1.17334E-21
7.44534E-03 1.12781E-21
7.59612E-03 1.08450E-21
7.97965E-03 9.85059E-22
8.37255E-03 8.96873E-22
8.77480E-03 8.18435E-22
9.18641E-03 7.48475E-22
9.60736E-03 6.85912E-22
1.00376E-02 6.29823E-22
1.04773E-02 5.79415E-22
1.09262E-02 5.34006E-22
1.13844E-02 4.93011E-22
1.18520E-02 4.55923E-22
1.23288E-02 4.22299E-22
1.28150E-02 3.91756E-22
1.33104E-02 3.63959E-22
1.38150E-02 3.38616E-22
1.43290E-02 3.15469E-22
1.48521E-02 2.94291E-22
1.53845E-02 2.74885E-22
1.59262E-02 2.57075E-22
1.64770E-02 2.40703E-22
1.70371E-02 2.25631E-22
1.76063E-02 2.11738E-22
1.81848E-02 1.98913E-22
1.87724E-02 1.87058E-22
1.93692E-02 1.76085E-22
1.99751E-02 1.65918E-22
2.05901E-02 1.56484E-22
2.12143E-02 1.47722E-22
2.18476E-02 1.39573E-22
2.24900E-02 1.31987E-22
2.31415E-02 1.24917E-22
2.38021E-02 1.18322E-22
2.44717E-02 1.12162E-22
2.51504E-02 1.06405E-22
2.58382E-02 1.01018E-22
2.65349E-02 9.59730E-23
2.72407E-02 9.12438E-23
2.79555E-02 8.68072E-23
2.86793E-02 8.26411E-23
2.94120E-02 7.87257E-23
3.01537E-02 7.50432E-23
3.09043E-02 7.15772E-23
3.16639E-02 6.83118E-23
3.24324E-02 6.52336E-23
3.32098E-02 6.23298E-23
3.39961E-02 5.95881E-23
3.47912E-02 5.69980E-23
3.55952E-02 5.45494E-23
3.64081E-02 5.22330E-23
3.72297E-02 5.00400E-23
3.80602E-02 4.79629E-23
3.88995E-02 4.59941E-23
3.97476E-02 4.41269E-23
4.06044E-02 4.23550E-23
4.14700E-02 4.06725E-23
4.23443E-02 3.90741E-23
4.32273E-02 3.75546E-23
4.41190E-02 3.61094E-23
4.50194E-02 3.47342E-23
4.59284E-02 3.34247E-23
4.68461E-02 3.21774E-23
4.87074E-02 2.98550E-23
5.06030E-02 2.77413E-23
5.25328E-02 2.58140E-23
5.44967E-02 2.40535E-23
5.64946E-02 2.24426E-23
5.85262E-02 2.09661E-23
6.05914E-02 1.96106E-23
6.26901E-02 1.83642E-23
6.48222E-02 1.72166E-23
6.69873E-02 1.61582E-23
6.91854E-02 1.51809E-23
7.14163E-02 1.42772E-23
7.36799E-02 1.34404E-23
7.59760E-02 1.26646E-23
7.83043E-02 1.19445E-23
8.06647E-02 1.12753E-23
8.30571E-02 1.06528E-23
8.54812E-02 1.00730E-23
8.79369E-02 9.53235E-24
9.04240E-02 9.02778E-24
9.29422E-02 8.55637E-24
9.54915E-02 8.11552E-24
9.80716E-02 7.70284E-24
1.00682E-01 7.31618E-24
1.03323E-01 6.95358E-24
1.05995E-01 6.61324E-24
1.08696E-01 6.29352E-24
1.11427E-01 5.99293E-24
1.14188E-01 5.71010E-24
1.16978E-01 5.44376E-24
1.19797E-01 5.19277E-24
1.22645E-01 4.95606E-24
1.25522E-01 4.73267E-24
1.28428E-01 4.52169E-24
1.31361E-01 4.32229E-24
1.34323E-01 4.13373E-24
1.37313E-01 3.95528E-24
1.40330E-01 3.78630E-24
1.43375E-01 3.62620E-24
1.46447E-01 3.47440E-24
1.49545E-01 3.33040E-24
1.52671E-01 3.19371E-24
1.55823E-01 3.06390E-24
1.59001E-01 2.94054E-24
1.62205E-01 2.82325E-24
1.65435E-01 2.71168E-24
1.68690E-01 2.60549E-24
1.71970E-01 2.50437E-24
1.75276E-01 2.40804E-24
1.78606E-01 2.31621E-24
1.81961E-01 2.22865E-24
1.85340E-01 2.14510E-24
1.88743E-01 2.06536E-24
1.92169E-01 1.98922E-24
1.95619E-01 1.91648E-24
1.99092E-01 1.84695E-24
2.02589E-01 1.78048E-24
2.06107E-01 1.71690E-24
2.09649E-01 1.65606E-24
2.13212E-01 1.59782E-24
2.16797E-01 1.54204E-24
2.20404E-01 1.48861E-24
2.24032E-01 1.43741E-24
2.27680E-01 1.38832E-24
2.31350E-01 1.34124E-24
2.35040E-01 1.29607E-24
2.38751E-01 1.25273E-24
2.42481E-01 1.21111E-24
2.46231E-01 1.17115E-24
2.50000E-01 1.13276E-24
2.53788E-01 1.09588E-24
2.57595E-01 1.06042E-24
2.61421E-01 1.02632E-24
2.65264E-01 9.93530E-25
2.69126E-01 9.61980E-25
2.73005E-01 9.31617E-25
2.76901E-01 9.02389E-25
2.80814E-01 8.74244E-25
2.84744E-01 8.47136E-25
2.88691E-01 8.21019E-25
2.92653E-01 7.95850E-25
2.96632E-01 7.71588E-25
3.00625E-01 7.48196E-25
3.04634E-01 7.25636E-25
3.08658E-01 7.03872E-25
3.12697E-01 6.82873E-25
3.16749E-01 6.62606E-25
3.20816E-01 6.43041E-25
3.24896E-01 6.24149E-25
3.28990E-01 6.05904E-25
3.33097E-01 5.88279E-25
3.37216E-01 5.71249E-25
3.41348E-01 5.54790E-25
3.45492E-01 5.38881E-25
3.49647E-01 5.23499E-25
3.53814E-01 5.08624E-25
3.57992E-01 4.94236E-25
3.62181E-01 4.80317E-25
3.66381E-01 4.66849E-25
3.70590E-01 4.53814E-25
3.74810E-01 4.41197E-25
3.79039E-01 4.28981E-25
3.83277E-01 4.17151E-25
3.87524E-01 4.05694E-25
3.91780E-01 3.94596E-25
3.96044E-01 3.83843E-25
4.00316E-01 3.73422E-25
4.04596E-01 3.63323E-25
4.08882E-01 3.53533E-25
4.13176E-01 3.44041E-25
4.17476E-01 3.34837E-25
4.21783E-01 3.25910E-25
4.26095E-01 3.17252E-25
4.30413E-01 3.08851E-25
4.34737E-01 3.00700E-25
4.39065E-01 2.92790E-25
4.43398E-01 2.85112E-25
4.47736E-01 2.77659E-25
4.52077E-01 2.70423E-25
4.56422E-01 2.63397E-25
4.60770E-01 2.56573E-25
4.65122E-01 2.49945E-25
4.69476E-01 2.43507E-25
4.73832E-01 2.37251E-25
4.78190E-01 2.31173E-25
4.82550E-01 2.25265E-25
4.86912E-01 2.19524E-25
4.91274E-01 2.13943E-25
4.95637E-01 2.08517E-25
5.00000E-01 2.03241E-25
5.04363E-01 1.98110E-25
5.08726E-01 1.93120E-25
5.13088E-01 1.88267E-25
5.17450E-01 1.83545E-25
5.21810E-01 1.78952E-25
5.26168E-01 1.74482E-25
5.30524E-01 1.70133E-25
5.34878E-01 1.65900E-25
5.39230E-01 1.61780E-25
5.43578E-01 1.57769E-25
5.47923E-01 1.53864E-25
5.52264E-01 1.50062E-25
5.56602E-01 1.46359E-25
5.60935E-01 1.42754E-25
5.65263E-01 1.39242E-25
5.69587E-01 1.35821E-25
5.73905E-01 1.32489E-25
5.78217E-01 1.29243E-25
5.82524E-01 1.26080E-25
5.86824E-01 1.22997E-25
5.91118E-01 1.19993E-25
5.95404E-01 1.17066E-25
5.99684E-01 1.14212E-25
6.03956E-01 1.11430E-25
6.08220E-01 1.08718E-25
6.12476E-01 1.06074E-25
6.16723E-01 1.03496E-25
6.20961E-01 1.00982E-25
6.25190E-01 9.85300E-26
6.29410E-01 9.61388E-26
6.33619E-01 9.38064E-26
6.37819E-01 9.15312E-26
6.42008E-01 8.93116E-26
6.46186E-01 8.71462E-26
6.50353E-01 8.50334E-26
6.54508E-01 8.29717E-26
6.58652E-01 8.09599E-26
6.62784E-01 7.89965E-26
6.66903E-01 7.70803E-26
6.71010E-01 7.52100E-26
6.75104E-01 7.33843E-26
6.79184E-01 7.16020E-26
6.83251E-01 6.98621E-26
6.87303E-01 6.81634E-26
6.91342E-01 6.65048E-26
6.95366E-01 6.48853E-26
6.99375E-01 6.33038E-26
7.03368E-01 6.17593E-26
7.07347E-01 6.02510E-26
7.11309E-01 5.87778E-26
7.15256E-01 5.73388E-26
7.19186E-01 5.59333E-26
7.23099E-01 5.45602E-26
7.26995E-01 5.32189E-26
7.30874E-01 5.19085E-26
7.34736E-01 5.06282E-26
7.38579E-01 4.93772E-26
7.42405E-01 4.81549E-26
7.46212E-01 4.69605E-26
7.50000E-01 4.57933E-26
7.53769E-01 4.46527E-26
7.57519E-01 4.35379E-26
7.61249E-01 4.24484E-26
7.64960E-01 4.13836E-26
7.68650E-01 4.03428E-26
7.72320E-01 3.93255E-26
7.75968E-01 3.83310E-26
7.79596E-01 3.73589E-26
7.83203E-01 3.64086E-26
7.86788E-01 3.54796E-26
7.90351E-01 3.45714E-26
7.93893E-01 3.36835E-26
7.97411E-01 3.28153E-26
8.00908E-01 3.19665E-26
8.04381E-01 3.11367E-26
8.07831E-01 3.03252E-26
8.11257E-01 2.95318E-26
8.14660E-01 2.87560E-26
8.18039E-01 2.79974E-26
8.21394E-01 2.72555E-26
8.24724E-01 2.65302E-26
8.28030E-01 2.58208E-26
8.31310E-01 2.51272E-26
8.34565E-01 2.44489E-26
8.37795E-01 2.37856E-26
8.40999E-01 2.31369E-26
8.44177E-01 2.25026E-26
8.47329E-01 2.18822E-26
8.50455E-01 2.12756E-26
8.53553E-01 2.06824E-26
8.56625E-01 2.01023E-26
8.59670E-01 1.95350E-26
8.62687E-01 1.89803E-26
8.65677E-01 1.84379E-26
8.68639E-01 1.79074E-26
8.71572E-01 1.73888E-26
8.74478E-01 1.68816E-26
8.77355E-01 1.63858E-26
8.80203E-01 1.59009E-26
8.83022E-01 1.54269E-26
8.85812E-01 1.49634E-26
8.88573E-01 1.45104E-26
8.91304E-01 1.40674E-26
8.94005E-01 1.36345E-26
8.96677E-01 1.32112E-26
8.99318E-01 1.27975E-26
9.01928E-01 1.23932E-26
9.04508E-01 1.19981E-26
9.07058E-01 1.16119E-26
9.09576E-01 1.12346E-26
9.12063E-01 1.08659E-26
9.14519E-01 1.05057E-26
9.16943E-01 1.01538E-26
9.19335E-01 9.81005E-27
9.21696E-01 9.47432E-27
9.24024E-01 9.14646E-27
9.26320E-01 8.82630E-27
9.28584E-01 8.51372E-27
9.30815E-01 8.20856E-27
9.33013E-01 7.91071E-27
9.35178E-01 7.62002E-27
9.37310E-01 7.33638E-27
9.39409E-01 7.05965E-27
9.41474E-01 6.78972E-27
9.43505E-01 6.52646E-27
9.45503E-01 6.26978E-27
9.47467E-01 6.01955E-27
9.49397E-01 5.77568E-27
9.51293E-01 5.53804E-27
9.53154E-01 5.30655E-27
9.54981E-01 5.08111E-27
9.56773E-01 4.86162E-27
9.58530E-01 4.64798E-27
9.60252E-01 4.44011E-27
9.61940E-01 4.23792E-27
9.63592E-01 4.04132E-27
9.65209E-01 3.85024E-27
9.66790E-01 3.66459E-27
9.68336E-01 3.48429E-27
9.69846E-01 3.30927E-27
9.71321E-01 3.13946E-27
9.72759E-01 2.97479E-27
9.74162E-01 2.81519E-27
9.75528E-01 2.66059E-27
9.76858E-01 2.51094E-27
9.78152E-01 2.36616E-27
9.79410E-01 2.22620E-27
9.80631E-01 2.09100E-27
9.81815E-01 1.96051E-27
9.82963E-01 1.83467E-27
9.84074E-01 1.71344E-27
9.85148E-01 1.59676E-27
9.86185E-01 1.48459E-27
9.87185E-01 1.37688E-27
9.88148E-01 1.27358E-27
9.89074E-01 1.17466E-27
9.89962E-01 1.08008E-27
9.90814E-01 9.89794E-28
9.91627E-01 9.03771E-28
9.92404E-01 8.21975E-28
9.93143E-01 7.44373E-28
9.93844E-01 6.70934E-28
9.94508E-01 6.01630E-28
9.95134E-01 5.36431E-28
9.95722E-01 4.75313E-28
9.96273E-01 4.18251E-28
9.96786E-01 3.65223E-28
9.97261E-01 3.16206E-28
9.97698E-01 2.71182E-28
9.98097E-01 2.30132E-28
9.98459E-01 1.93041E-28
9.98782E-01 1.59894E-28
9.99067E-01 1.30677E-28
9.99315E-01 1.05379E-28
9.99524E-01 8.39900E-29
9.99695E-01 6.65015E-29
9.99829E-01 5.29065E-29
9.99924E-01 4.31996E-29
9.99981E-01 3.73770E-29
1.00000E+00 3.54364E-29
