 #
 # Subroutine ELSEPA. Elastic scattering of electrons and positrons
 #                    by neutral atoms and positive ions
 #
 # Projectile: electron
 # Kinetic energy = 1.50000E+06 eV = 5.51240E+04 a.u.
 #
 # WARNING: High-energy factorization with free-atom DF screening.
 #          Absorption, polarization and exchange corrections are
 #          switched off.
 #          Phase shifts are calculated for the bare nucleus.
 #          Scattering amplitudes are not evaluated.
 #
 # Element: Nd,  Z =  60,  atomic weight = 1.44240E+02 g/mol
 #
 # Nuclear model: Fermi distribution
 #                Average radius = 5.61150E-13 cm
 #                Skin thickness = 5.46000E-14 cm
 #
 # Number of electrons = 60
 #
 # Total elastic cross section = 7.78923E-18 cm**2 = 2.78159E-01 a0**2
 # 1st transport cross section = 1.37302E-21 cm**2 = 4.90315E-05 a0**2
 # 2nd transport cross section = 3.70471E-21 cm**2 = 1.32297E-04 a0**2
 #
 #
 # Differential cross section:                       MU=(1-COS(THETA))/2
 #
 #  THETA        MU          DCS          DCS        Sherman      error
 #  (deg)                 (cm**2/sr)   (a0**2/sr)    function
 #----------------------------------------------------------------------
0.00000E+00 4.11738E-13
7.61557E-13 4.11737E-13
1.18994E-12 4.11737E-13
1.71346E-12 4.11736E-13
2.33225E-12 4.11735E-13
3.04617E-12 4.11735E-13
3.85530E-12 4.11734E-13
4.75964E-12 4.11733E-13
5.75917E-12 4.11732E-13
6.85391E-12 4.11731E-13
8.04379E-12 4.11729E-13
9.32893E-12 4.11728E-13
1.07092E-11 4.11726E-13
1.21847E-11 4.11725E-13
1.37554E-11 4.11723E-13
1.54213E-11 4.11721E-13
1.71823E-11 4.11719E-13
1.90386E-11 4.11717E-13
2.09900E-11 4.11715E-13
2.30367E-11 4.11713E-13
2.51785E-11 4.11711E-13
2.74156E-11 4.11708E-13
2.97478E-11 4.11706E-13
3.21752E-11 4.11703E-13
3.46979E-11 4.11700E-13
3.73157E-11 4.11697E-13
4.00286E-11 4.11694E-13
4.28368E-11 4.11691E-13
4.57402E-11 4.11688E-13
4.87388E-11 4.11685E-13
5.18325E-11 4.11682E-13
5.50215E-11 4.11678E-13
5.83057E-11 4.11674E-13
6.16850E-11 4.11671E-13
6.51595E-11 4.11667E-13
6.87293E-11 4.11663E-13
7.23943E-11 4.11659E-13
7.61544E-11 4.11655E-13
1.18991E-10 4.11608E-13
1.71347E-10 4.11550E-13
2.33223E-10 4.11482E-13
3.04617E-10 4.11403E-13
3.85531E-10 4.11314E-13
4.75965E-10 4.11214E-13
5.75917E-10 4.11104E-13
6.85389E-10 4.10984E-13
8.04380E-10 4.10852E-13
9.32891E-10 4.10711E-13
1.07092E-09 4.10559E-13
1.21847E-09 4.10396E-13
1.37554E-09 4.10224E-13
1.54213E-09 4.10040E-13
1.71823E-09 4.09847E-13
1.90386E-09 4.09643E-13
2.09900E-09 4.09429E-13
2.30367E-09 4.09204E-13
2.51785E-09 4.08970E-13
2.74156E-09 4.08725E-13
2.97478E-09 4.08470E-13
3.21752E-09 4.08205E-13
3.46978E-09 4.07929E-13
3.73156E-09 4.07644E-13
4.00286E-09 4.07348E-13
4.28368E-09 4.07043E-13
4.57402E-09 4.06727E-13
4.87388E-09 4.06402E-13
5.18326E-09 4.06067E-13
5.50215E-09 4.05721E-13
5.83057E-09 4.05366E-13
6.16850E-09 4.05002E-13
6.51596E-09 4.04627E-13
6.87293E-09 4.04243E-13
7.23942E-09 4.03849E-13
7.61544E-09 4.03446E-13
1.18991E-08 3.98896E-13
1.71347E-08 3.93447E-13
2.33223E-08 3.87162E-13
3.04617E-08 3.80113E-13
3.85531E-08 3.72375E-13
4.75965E-08 3.64032E-13
5.75917E-08 3.55166E-13
6.85389E-08 3.45931E-13
8.04380E-08 3.36296E-13
9.32891E-08 3.26291E-13
1.07092E-07 3.16255E-13
1.21847E-07 3.06020E-13
1.37554E-07 2.95641E-13
1.54213E-07 2.85479E-13
1.71823E-07 2.75258E-13
1.90386E-07 2.65123E-13
2.09900E-07 2.55305E-13
2.30367E-07 2.45555E-13
2.51785E-07 2.36074E-13
2.74156E-07 2.26938E-13
2.97478E-07 2.17952E-13
3.21752E-07 2.09362E-13
3.46978E-07 2.01096E-13
3.73156E-07 1.93024E-13
4.00286E-07 1.85420E-13
4.28368E-07 1.78091E-13
4.57402E-07 1.70974E-13
4.87388E-07 1.64349E-13
5.18325E-07 1.57942E-13
5.50215E-07 1.51780E-13
5.83057E-07 1.46030E-13
6.16850E-07 1.40479E-13
6.51596E-07 1.35189E-13
6.87293E-07 1.30219E-13
7.23942E-07 1.25432E-13
7.61543E-07 1.20901E-13
1.18991E-06 8.60608E-14
1.71347E-06 6.40294E-14
2.33223E-06 4.91112E-14
3.04617E-06 3.83865E-14
3.85531E-06 3.03873E-14
4.75964E-06 2.42835E-14
5.75916E-06 1.95834E-14
6.85388E-06 1.57834E-14
8.04378E-06 1.29312E-14
9.32888E-06 1.08064E-14
1.07092E-05 8.98052E-15
1.21846E-05 7.56271E-15
1.37553E-05 6.45309E-15
1.54212E-05 5.48783E-15
1.71822E-05 4.72279E-15
1.90385E-05 4.09245E-15
2.09899E-05 3.54734E-15
2.30365E-05 3.10241E-15
2.51783E-05 2.72173E-15
2.74153E-05 2.38974E-15
2.97475E-05 2.11303E-15
3.21749E-05 1.87003E-15
3.46974E-05 1.65916E-15
3.73152E-05 1.48068E-15
4.00281E-05 1.32112E-15
4.28362E-05 1.18286E-15
4.57395E-05 1.06401E-15
4.87380E-05 9.56447E-16
5.18317E-05 8.63070E-16
5.50205E-05 7.81381E-16
5.83045E-05 7.07815E-16
6.16838E-05 6.43389E-16
6.51582E-05 5.86295E-16
6.87277E-05 5.35053E-16
7.23925E-05 4.89737E-16
7.61524E-05 4.49131E-16
9.21439E-05 3.23988E-16
1.09658E-04 2.40668E-16
1.28695E-04 1.83075E-16
1.49255E-04 1.42200E-16
1.71338E-04 1.12186E-16
1.94942E-04 8.97598E-17
2.20070E-04 7.27050E-17
2.46720E-04 5.94824E-17
2.74892E-04 4.91157E-17
3.04586E-04 4.08625E-17
3.35803E-04 3.42506E-17
3.68542E-04 2.89069E-17
4.02802E-04 2.45562E-17
4.38585E-04 2.09927E-17
4.75889E-04 1.80474E-17
5.14715E-04 1.56008E-17
5.55063E-04 1.35532E-17
5.96931E-04 1.18309E-17
6.40321E-04 1.03699E-17
6.85233E-04 9.13231E-18
7.31665E-04 8.07997E-18
7.79618E-04 7.16938E-18
8.29092E-04 6.38706E-18
8.80086E-04 5.71102E-18
9.32601E-04 5.11946E-18
9.86636E-04 4.60484E-18
1.04219E-03 4.15404E-18
1.09927E-03 3.75626E-18
1.15786E-03 3.40641E-18
1.21797E-03 3.09624E-18
1.27961E-03 2.82036E-18
1.34276E-03 2.57544E-18
1.40743E-03 2.35614E-18
1.47362E-03 2.15983E-18
1.54133E-03 1.98415E-18
1.61056E-03 1.82544E-18
1.68131E-03 1.68256E-18
1.75357E-03 1.55377E-18
1.82735E-03 1.43657E-18
1.90265E-03 1.33052E-18
1.97947E-03 1.23422E-18
2.05780E-03 1.14624E-18
2.13765E-03 1.06616E-18
2.21902E-03 9.92974E-19
2.30190E-03 9.25857E-19
2.38630E-03 8.64458E-19
2.47222E-03 8.08021E-19
2.55965E-03 7.56098E-19
2.64859E-03 7.08381E-19
2.73905E-03 6.64295E-19
2.83103E-03 6.23609E-19
2.92452E-03 5.86064E-19
3.01952E-03 5.51222E-19
3.11604E-03 5.18975E-19
3.21407E-03 4.89095E-19
3.31362E-03 4.61276E-19
3.41468E-03 4.35451E-19
3.51725E-03 4.11424E-19
3.62133E-03 3.89003E-19
3.72692E-03 3.68122E-19
3.83403E-03 3.48625E-19
3.94265E-03 3.30393E-19
4.05278E-03 3.13362E-19
4.16442E-03 2.97408E-19
4.27757E-03 2.82458E-19
4.39223E-03 2.68456E-19
4.50840E-03 2.55299E-19
4.62608E-03 2.42948E-19
4.74527E-03 2.31349E-19
4.86597E-03 2.20422E-19
4.98817E-03 2.10144E-19
5.11188E-03 2.00468E-19
5.23711E-03 1.91335E-19
5.36383E-03 1.82726E-19
5.49207E-03 1.74601E-19
5.62181E-03 1.66920E-19
5.75306E-03 1.59665E-19
5.88581E-03 1.52802E-19
6.02007E-03 1.46304E-19
6.15583E-03 1.40155E-19
6.29310E-03 1.34325E-19
6.43187E-03 1.28798E-19
6.57214E-03 1.23558E-19
6.71392E-03 1.18580E-19
6.85720E-03 1.13855E-19
7.00198E-03 1.09367E-19
7.14827E-03 1.05096E-19
7.29605E-03 1.01035E-19
7.44534E-03 9.71724E-20
7.59612E-03 9.34917E-20
7.97965E-03 8.50352E-20
8.37255E-03 7.75235E-20
8.77480E-03 7.08323E-20
9.18641E-03 6.48555E-20
9.60736E-03 5.95031E-20
1.00376E-02 5.46984E-20
1.04773E-02 5.03752E-20
1.09262E-02 4.64765E-20
1.13844E-02 4.29528E-20
1.18520E-02 3.97614E-20
1.23288E-02 3.68652E-20
1.28150E-02 3.42319E-20
1.33104E-02 3.18328E-20
1.38150E-02 2.96435E-20
1.43290E-02 2.76422E-20
1.48521E-02 2.58097E-20
1.53845E-02 2.41290E-20
1.59262E-02 2.25852E-20
1.64770E-02 2.11650E-20
1.70371E-02 1.98567E-20
1.76063E-02 1.86496E-20
1.81848E-02 1.75345E-20
1.87724E-02 1.65030E-20
1.93692E-02 1.55477E-20
1.99751E-02 1.46618E-20
2.05901E-02 1.38394E-20
2.12143E-02 1.30749E-20
2.18476E-02 1.23635E-20
2.24900E-02 1.17008E-20
2.31415E-02 1.10828E-20
2.38021E-02 1.05059E-20
2.44717E-02 9.96682E-21
2.51504E-02 9.46261E-21
2.58382E-02 8.99057E-21
2.65349E-02 8.54823E-21
2.72407E-02 8.13335E-21
2.79555E-02 7.74390E-21
2.86793E-02 7.37798E-21
2.94120E-02 7.03390E-21
3.01537E-02 6.71012E-21
3.09043E-02 6.40517E-21
3.16639E-02 6.11775E-21
3.24324E-02 5.84667E-21
3.32098E-02 5.59078E-21
3.39961E-02 5.34906E-21
3.47912E-02 5.12059E-21
3.55952E-02 4.90448E-21
3.64081E-02 4.69993E-21
3.72297E-02 4.50620E-21
3.80602E-02 4.32260E-21
3.88995E-02 4.14849E-21
3.97476E-02 3.98328E-21
4.06044E-02 3.82642E-21
4.14700E-02 3.67740E-21
4.23443E-02 3.53575E-21
4.32273E-02 3.40104E-21
4.41190E-02 3.27285E-21
4.50194E-02 3.15080E-21
4.59284E-02 3.03455E-21
4.68461E-02 2.92374E-21
4.87074E-02 2.71729E-21
5.06030E-02 2.52921E-21
5.25328E-02 2.35755E-21
5.44967E-02 2.20059E-21
5.64946E-02 2.05682E-21
5.85262E-02 1.92492E-21
6.05914E-02 1.80371E-21
6.26901E-02 1.69215E-21
6.48222E-02 1.58932E-21
6.69873E-02 1.49441E-21
6.91854E-02 1.40667E-21
7.14163E-02 1.32545E-21
7.36799E-02 1.25018E-21
7.59760E-02 1.18033E-21
7.83043E-02 1.11542E-21
8.06647E-02 1.05504E-21
8.30571E-02 9.98810E-22
8.54812E-02 9.46377E-22
8.79369E-02 8.97440E-22
9.04240E-02 8.51716E-22
9.29422E-02 8.08946E-22
9.54915E-02 7.68904E-22
9.80716E-02 7.31380E-22
1.00682E-01 6.96179E-22
1.03323E-01 6.63130E-22
1.05995E-01 6.32074E-22
1.08696E-01 6.02863E-22
1.11427E-01 5.75367E-22
1.14188E-01 5.49464E-22
1.16978E-01 5.25039E-22
1.19797E-01 5.01994E-22
1.22645E-01 4.80233E-22
1.25522E-01 4.59667E-22
1.28428E-01 4.40219E-22
1.31361E-01 4.21816E-22
1.34323E-01 4.04387E-22
1.37313E-01 3.87872E-22
1.40330E-01 3.72211E-22
1.43375E-01 3.57351E-22
1.46447E-01 3.43243E-22
1.49545E-01 3.29840E-22
1.52671E-01 3.17100E-22
1.55823E-01 3.04982E-22
1.59001E-01 2.93449E-22
1.62205E-01 2.82468E-22
1.65435E-01 2.72006E-22
1.68690E-01 2.62034E-22
1.71970E-01 2.52522E-22
1.75276E-01 2.43447E-22
1.78606E-01 2.34782E-22
1.81961E-01 2.26506E-22
1.85340E-01 2.18598E-22
1.88743E-01 2.11037E-22
1.92169E-01 2.03805E-22
1.95619E-01 1.96884E-22
1.99092E-01 1.90259E-22
2.02589E-01 1.83913E-22
2.06107E-01 1.77833E-22
2.09649E-01 1.72004E-22
2.13212E-01 1.66415E-22
2.16797E-01 1.61054E-22
2.20404E-01 1.55908E-22
2.24032E-01 1.50967E-22
2.27680E-01 1.46222E-22
2.31350E-01 1.41663E-22
2.35040E-01 1.37281E-22
2.38751E-01 1.33068E-22
2.42481E-01 1.29016E-22
2.46231E-01 1.25117E-22
2.50000E-01 1.21364E-22
2.53788E-01 1.17751E-22
2.57595E-01 1.14271E-22
2.61421E-01 1.10918E-22
2.65264E-01 1.07687E-22
2.69126E-01 1.04572E-22
2.73005E-01 1.01568E-22
2.76901E-01 9.86706E-23
2.80814E-01 9.58747E-23
2.84744E-01 9.31763E-23
2.88691E-01 9.05711E-23
2.92653E-01 8.80552E-23
2.96632E-01 8.56249E-23
3.00625E-01 8.32767E-23
3.04634E-01 8.10071E-23
3.08658E-01 7.88129E-23
3.12697E-01 7.66912E-23
3.16749E-01 7.46390E-23
3.20816E-01 7.26535E-23
3.24896E-01 7.07321E-23
3.28990E-01 6.88722E-23
3.33097E-01 6.70716E-23
3.37216E-01 6.53278E-23
3.41348E-01 6.36387E-23
3.45492E-01 6.20022E-23
3.49647E-01 6.04163E-23
3.53814E-01 5.88792E-23
3.57992E-01 5.73889E-23
3.62181E-01 5.59438E-23
3.66381E-01 5.45422E-23
3.70590E-01 5.31825E-23
3.74810E-01 5.18632E-23
3.79039E-01 5.05828E-23
3.83277E-01 4.93399E-23
3.87524E-01 4.81333E-23
3.91780E-01 4.69615E-23
3.96044E-01 4.58235E-23
4.00316E-01 4.47179E-23
4.04596E-01 4.36438E-23
4.08882E-01 4.26000E-23
4.13176E-01 4.15854E-23
4.17476E-01 4.05992E-23
4.21783E-01 3.96403E-23
4.26095E-01 3.87077E-23
4.30413E-01 3.78008E-23
4.34737E-01 3.69185E-23
4.39065E-01 3.60601E-23
4.43398E-01 3.52247E-23
4.47736E-01 3.44118E-23
4.52077E-01 3.36204E-23
4.56422E-01 3.28500E-23
4.60770E-01 3.20998E-23
4.65122E-01 3.13693E-23
4.69476E-01 3.06578E-23
4.73832E-01 2.99646E-23
4.78190E-01 2.92893E-23
4.82550E-01 2.86313E-23
4.86912E-01 2.79900E-23
4.91274E-01 2.73649E-23
4.95637E-01 2.67556E-23
5.00000E-01 2.61616E-23
5.04363E-01 2.55823E-23
5.08726E-01 2.50174E-23
5.13088E-01 2.44665E-23
5.17450E-01 2.39291E-23
5.21810E-01 2.34048E-23
5.26168E-01 2.28932E-23
5.30524E-01 2.23941E-23
5.34878E-01 2.19069E-23
5.39230E-01 2.14314E-23
5.43578E-01 2.09673E-23
5.47923E-01 2.05141E-23
5.52264E-01 2.00717E-23
5.56602E-01 1.96397E-23
5.60935E-01 1.92178E-23
5.65263E-01 1.88057E-23
5.69587E-01 1.84031E-23
5.73905E-01 1.80099E-23
5.78217E-01 1.76257E-23
5.82524E-01 1.72503E-23
5.86824E-01 1.68834E-23
5.91118E-01 1.65249E-23
5.95404E-01 1.61745E-23
5.99684E-01 1.58319E-23
6.03956E-01 1.54971E-23
6.08220E-01 1.51697E-23
6.12476E-01 1.48496E-23
6.16723E-01 1.45365E-23
6.20961E-01 1.42304E-23
6.25190E-01 1.39310E-23
6.29410E-01 1.36381E-23
6.33619E-01 1.33517E-23
6.37819E-01 1.30714E-23
6.42008E-01 1.27973E-23
6.46186E-01 1.25290E-23
6.50353E-01 1.22665E-23
6.54508E-01 1.20096E-23
6.58652E-01 1.17582E-23
6.62784E-01 1.15121E-23
6.66903E-01 1.12713E-23
6.71010E-01 1.10355E-23
6.75104E-01 1.08047E-23
6.79184E-01 1.05788E-23
6.83251E-01 1.03576E-23
6.87303E-01 1.01409E-23
6.91342E-01 9.92883E-24
6.95366E-01 9.72112E-24
6.99375E-01 9.51769E-24
7.03368E-01 9.31846E-24
7.07347E-01 9.12332E-24
7.11309E-01 8.93217E-24
7.15256E-01 8.74493E-24
7.19186E-01 8.56151E-24
7.23099E-01 8.38182E-24
7.26995E-01 8.20577E-24
7.30874E-01 8.03328E-24
7.34736E-01 7.86427E-24
7.38579E-01 7.69866E-24
7.42405E-01 7.53637E-24
7.46212E-01 7.37734E-24
7.50000E-01 7.22149E-24
7.53769E-01 7.06875E-24
7.57519E-01 6.91905E-24
7.61249E-01 6.77233E-24
7.64960E-01 6.62852E-24
7.68650E-01 6.48756E-24
7.72320E-01 6.34938E-24
7.75968E-01 6.21394E-24
7.79596E-01 6.08117E-24
7.83203E-01 5.95101E-24
7.86788E-01 5.82341E-24
7.90351E-01 5.69831E-24
7.93893E-01 5.57568E-24
7.97411E-01 5.45544E-24
8.00908E-01 5.33756E-24
8.04381E-01 5.22199E-24
8.07831E-01 5.10867E-24
8.11257E-01 4.99757E-24
8.14660E-01 4.88864E-24
8.18039E-01 4.78183E-24
8.21394E-01 4.67711E-24
8.24724E-01 4.57443E-24
8.28030E-01 4.47376E-24
8.31310E-01 4.37505E-24
8.34565E-01 4.27826E-24
8.37795E-01 4.18336E-24
8.40999E-01 4.09032E-24
8.44177E-01 3.99909E-24
8.47329E-01 3.90964E-24
8.50455E-01 3.82195E-24
8.53553E-01 3.73597E-24
8.56625E-01 3.65167E-24
8.59670E-01 3.56903E-24
8.62687E-01 3.48802E-24
8.65677E-01 3.40860E-24
8.68639E-01 3.33074E-24
8.71572E-01 3.25442E-24
8.74478E-01 3.17961E-24
8.77355E-01 3.10628E-24
8.80203E-01 3.03441E-24
8.83022E-01 2.96398E-24
8.85812E-01 2.89495E-24
8.88573E-01 2.82730E-24
8.91304E-01 2.76101E-24
8.94005E-01 2.69606E-24
8.96677E-01 2.63242E-24
8.99318E-01 2.57008E-24
9.01928E-01 2.50901E-24
9.04508E-01 2.44919E-24
9.07058E-01 2.39060E-24
9.09576E-01 2.33322E-24
9.12063E-01 2.27703E-24
9.14519E-01 2.22201E-24
9.16943E-01 2.16815E-24
9.19335E-01 2.11543E-24
9.21696E-01 2.06382E-24
9.24024E-01 2.01332E-24
9.26320E-01 1.96390E-24
9.28584E-01 1.91556E-24
9.30815E-01 1.86827E-24
9.33013E-01 1.82201E-24
9.35178E-01 1.77679E-24
9.37310E-01 1.73257E-24
9.39409E-01 1.68934E-24
9.41474E-01 1.64710E-24
9.43505E-01 1.60583E-24
9.45503E-01 1.56551E-24
9.47467E-01 1.52614E-24
9.49397E-01 1.48770E-24
9.51293E-01 1.45017E-24
9.53154E-01 1.41356E-24
9.54981E-01 1.37784E-24
9.56773E-01 1.34300E-24
9.58530E-01 1.30904E-24
9.60252E-01 1.27594E-24
9.61940E-01 1.24369E-24
9.63592E-01 1.21229E-24
9.65209E-01 1.18172E-24
9.66790E-01 1.15198E-24
9.68336E-01 1.12305E-24
9.69846E-01 1.09493E-24
9.71321E-01 1.06761E-24
9.72759E-01 1.04108E-24
9.74162E-01 1.01533E-24
9.75528E-01 9.90351E-25
9.76858E-01 9.66144E-25
9.78152E-01 9.42696E-25
9.79410E-01 9.20002E-25
9.80631E-01 8.98054E-25
9.81815E-01 8.76846E-25
9.82963E-01 8.56372E-25
9.84074E-01 8.36625E-25
9.85148E-01 8.17600E-25
9.86185E-01 7.99292E-25
9.87185E-01 7.81695E-25
9.88148E-01 7.64803E-25
9.89074E-01 7.48613E-25
9.89962E-01 7.33118E-25
9.90814E-01 7.18316E-25
9.91627E-01 7.04201E-25
9.92404E-01 6.90769E-25
9.93143E-01 6.78016E-25
9.93844E-01 6.65940E-25
9.94508E-01 6.54536E-25
9.95134E-01 6.43800E-25
9.95722E-01 6.33731E-25
9.96273E-01 6.24325E-25
9.96786E-01 6.15579E-25
9.97261E-01 6.07491E-25
9.97698E-01 6.00058E-25
9.98097E-01 5.93279E-25
9.98459E-01 5.87151E-25
9.98782E-01 5.81673E-25
9.99067E-01 5.76844E-25
9.99315E-01 5.72661E-25
9.99524E-01 5.69123E-25
9.99695E-01 5.66230E-25
9.99829E-01 5.63981E-25
9.99924E-01 5.62375E-25
9.99981E-01 5.61411E-25
1.00000E+00 5.61090E-25
