 #
 # Subroutine ELSEPA. Elastic scattering of electrons and positrons
 #                    by neutral atoms and positive ions
 #
 # Projectile: electron
 # Kinetic energy = 5.00000E+06 eV = 1.83747E+05 a.u.
 #
 # WARNING: High-energy factorization with free-atom DF screening.
 #          Absorption, polarization and exchange corrections are
 #          switched off.
 #          Phase shifts are calculated for the bare nucleus.
 #          Scattering amplitudes are not evaluated.
 #
 # Element: Nd,  Z =  60,  atomic weight = 1.44240E+02 g/mol
 #
 # Nuclear model: Fermi distribution
 #                Average radius = 5.61150E-13 cm
 #                Skin thickness = 5.46000E-14 cm
 #
 # Number of electrons = 60
 #
 # Total elastic cross section = 7.34387E-18 cm**2 = 2.62254E-01 a0**2
 # 1st transport cross section = 1.94701E-22 cm**2 = 6.95290E-06 a0**2
 # 2nd transport cross section = 5.37333E-22 cm**2 = 1.91885E-05 a0**2
 #
 #
 # Differential cross section:                       MU=(1-COS(THETA))/2
 #
 #  THETA        MU          DCS          DCS        Sherman      error
 #  (deg)                 (cm**2/sr)   (a0**2/sr)    function
 #----------------------------------------------------------------------
0.00000E+00 3.09213E-12
7.61557E-13 3.09208E-12
1.18994E-12 3.09205E-12
1.71346E-12 3.09201E-12
2.33225E-12 3.09197E-12
3.04617E-12 3.09193E-12
3.85530E-12 3.09187E-12
4.75964E-12 3.09181E-12
5.75917E-12 3.09175E-12
6.85391E-12 3.09167E-12
8.04379E-12 3.09160E-12
9.32893E-12 3.09151E-12
1.07092E-11 3.09142E-12
1.21847E-11 3.09132E-12
1.37554E-11 3.09122E-12
1.54213E-11 3.09111E-12
1.71823E-11 3.09099E-12
1.90386E-11 3.09087E-12
2.09900E-11 3.09074E-12
2.30367E-11 3.09060E-12
2.51785E-11 3.09046E-12
2.74156E-11 3.09031E-12
2.97478E-11 3.09016E-12
3.21752E-11 3.09000E-12
3.46979E-11 3.08983E-12
3.73157E-11 3.08966E-12
4.00286E-11 3.08948E-12
4.28368E-11 3.08929E-12
4.57402E-11 3.08910E-12
4.87388E-11 3.08890E-12
5.18325E-11 3.08869E-12
5.50215E-11 3.08848E-12
5.83057E-11 3.08827E-12
6.16850E-11 3.08804E-12
6.51595E-11 3.08781E-12
6.87293E-11 3.08758E-12
7.23943E-11 3.08733E-12
7.61544E-11 3.08709E-12
1.18991E-10 3.08425E-12
1.71347E-10 3.08080E-12
2.33223E-10 3.07673E-12
3.04617E-10 3.07204E-12
3.85531E-10 3.06674E-12
4.75965E-10 3.06083E-12
5.75917E-10 3.05432E-12
6.85389E-10 3.04722E-12
8.04380E-10 3.03953E-12
9.32891E-10 3.03126E-12
1.07092E-09 3.02242E-12
1.21847E-09 3.01302E-12
1.37554E-09 3.00307E-12
1.54213E-09 2.99256E-12
1.71823E-09 2.98153E-12
1.90386E-09 2.96997E-12
2.09900E-09 2.95789E-12
2.30367E-09 2.94531E-12
2.51785E-09 2.93224E-12
2.74156E-09 2.91870E-12
2.97478E-09 2.90468E-12
3.21752E-09 2.89021E-12
3.46978E-09 2.87530E-12
3.73156E-09 2.85995E-12
4.00286E-09 2.84420E-12
4.28368E-09 2.82804E-12
4.57402E-09 2.81149E-12
4.87388E-09 2.79456E-12
5.18326E-09 2.77728E-12
5.50215E-09 2.75965E-12
5.83057E-09 2.74168E-12
6.16850E-09 2.72340E-12
6.51596E-09 2.70481E-12
6.87293E-09 2.68593E-12
7.23942E-09 2.66678E-12
7.61544E-09 2.64737E-12
1.18991E-08 2.44195E-12
1.71347E-08 2.22537E-12
2.33223E-08 2.00923E-12
3.04617E-08 1.80229E-12
3.85531E-08 1.61034E-12
4.75965E-08 1.43651E-12
5.75917E-08 1.28183E-12
6.85389E-08 1.14586E-12
8.04380E-08 1.02726E-12
9.32891E-08 9.24241E-13
1.07092E-07 8.34850E-13
1.21847E-07 7.57182E-13
1.37554E-07 6.89489E-13
1.54213E-07 6.30228E-13
1.71823E-07 5.78074E-13
1.90386E-07 5.31912E-13
2.09900E-07 4.90813E-13
2.30367E-07 4.54012E-13
2.51785E-07 4.20880E-13
2.74156E-07 3.90903E-13
2.97478E-07 3.63658E-13
3.21752E-07 3.38799E-13
3.46978E-07 3.16038E-13
3.73156E-07 2.95136E-13
4.00286E-07 2.75895E-13
4.28368E-07 2.58144E-13
4.57402E-07 2.41740E-13
4.87388E-07 2.26559E-13
5.18325E-07 2.12491E-13
5.50215E-07 1.99442E-13
5.83057E-07 1.87328E-13
6.16850E-07 1.76073E-13
6.51596E-07 1.65610E-13
6.87293E-07 1.55876E-13
7.23942E-07 1.46816E-13
7.61543E-07 1.38380E-13
1.18991E-06 7.95922E-14
1.71347E-06 4.89738E-14
2.33223E-06 3.18593E-14
3.04617E-06 2.16046E-14
3.85531E-06 1.51107E-14
4.75964E-06 1.08335E-14
5.75916E-06 7.93705E-15
6.85388E-06 5.93357E-15
8.04378E-06 4.52181E-15
9.32888E-06 3.50910E-15
1.07092E-05 2.76955E-15
1.21846E-05 2.21970E-15
1.37553E-05 1.80362E-15
1.54212E-05 1.48341E-15
1.71822E-05 1.23306E-15
1.90385E-05 1.03448E-15
2.09899E-05 8.74921E-16
2.30365E-05 7.45238E-16
2.51783E-05 6.38772E-16
2.74153E-05 5.50596E-16
2.97475E-05 4.77005E-16
3.21749E-05 4.15171E-16
3.46974E-05 3.62906E-16
3.73152E-05 3.18494E-16
4.00281E-05 2.80572E-16
4.28362E-05 2.48048E-16
4.57395E-05 2.20041E-16
4.87380E-05 1.95830E-16
5.18317E-05 1.74826E-16
5.50205E-05 1.56539E-16
5.83045E-05 1.40566E-16
6.16838E-05 1.26570E-16
6.51582E-05 1.14268E-16
6.87277E-05 1.03423E-16
7.23925E-05 9.38340E-17
7.61524E-05 8.53330E-17
9.21439E-05 5.96261E-17
1.09658E-04 4.29430E-17
1.28695E-04 3.17306E-17
1.49255E-04 2.39638E-17
1.71338E-04 1.84417E-17
1.94942E-04 1.44259E-17
2.20070E-04 1.14474E-17
2.46720E-04 9.19985E-18
2.74892E-04 7.47777E-18
3.04586E-04 6.14020E-18
3.35803E-04 5.08850E-18
3.68542E-04 4.25241E-18
4.02802E-04 3.58100E-18
4.38585E-04 3.03689E-18
4.75889E-04 2.59221E-18
5.14715E-04 2.22597E-18
5.55063E-04 1.92215E-18
5.96931E-04 1.66843E-18
6.40321E-04 1.45524E-18
6.85233E-04 1.27505E-18
7.31665E-04 1.12192E-18
7.79618E-04 9.91139E-19
8.29092E-04 8.78895E-19
8.80086E-04 7.82128E-19
9.32601E-04 6.98347E-19
9.86636E-04 6.25515E-19
1.04219E-03 5.61960E-19
1.09927E-03 5.06299E-19
1.15786E-03 4.57383E-19
1.21797E-03 4.14253E-19
1.27961E-03 3.76108E-19
1.34276E-03 3.42270E-19
1.40743E-03 3.12167E-19
1.47362E-03 2.85316E-19
1.54133E-03 2.61303E-19
1.61056E-03 2.39775E-19
1.68131E-03 2.20428E-19
1.75357E-03 2.03003E-19
1.82735E-03 1.87275E-19
1.90265E-03 1.73048E-19
1.97947E-03 1.60153E-19
2.05780E-03 1.48443E-19
2.13765E-03 1.37790E-19
2.21902E-03 1.28080E-19
2.30190E-03 1.19215E-19
2.38630E-03 1.11109E-19
2.47222E-03 1.03683E-19
2.55965E-03 9.68715E-20
2.64859E-03 9.06132E-20
2.73905E-03 8.48551E-20
2.83103E-03 7.95498E-20
2.92452E-03 7.46552E-20
3.01952E-03 7.01337E-20
3.11604E-03 6.59513E-20
3.21407E-03 6.20782E-20
3.31362E-03 5.84870E-20
3.41468E-03 5.51534E-20
3.51725E-03 5.20556E-20
3.62133E-03 4.91736E-20
3.72692E-03 4.64897E-20
3.83403E-03 4.39878E-20
3.94265E-03 4.16529E-20
4.05278E-03 3.94721E-20
4.16442E-03 3.74332E-20
4.27757E-03 3.55252E-20
4.39223E-03 3.37382E-20
4.50840E-03 3.20629E-20
4.62608E-03 3.04911E-20
4.74527E-03 2.90152E-20
4.86597E-03 2.76282E-20
4.98817E-03 2.63238E-20
5.11188E-03 2.50961E-20
5.23711E-03 2.39397E-20
5.36383E-03 2.28497E-20
5.49207E-03 2.18216E-20
5.62181E-03 2.08511E-20
5.75306E-03 1.99345E-20
5.88581E-03 1.90681E-20
6.02007E-03 1.82487E-20
6.15583E-03 1.74733E-20
6.29310E-03 1.67389E-20
6.43187E-03 1.60431E-20
6.57214E-03 1.53835E-20
6.71392E-03 1.47577E-20
6.85720E-03 1.41637E-20
7.00198E-03 1.35996E-20
7.14827E-03 1.30636E-20
7.29605E-03 1.25540E-20
7.44534E-03 1.20693E-20
7.59612E-03 1.16079E-20
7.97965E-03 1.05484E-20
8.37255E-03 9.60828E-21
8.77480E-03 8.77167E-21
9.18641E-03 8.02512E-21
9.60736E-03 7.35720E-21
1.00376E-02 6.75813E-21
1.04773E-02 6.21952E-21
1.09262E-02 5.73416E-21
1.13844E-02 5.29582E-21
1.18520E-02 4.89910E-21
1.23288E-02 4.53933E-21
1.28150E-02 4.21242E-21
1.33104E-02 3.91482E-21
1.38150E-02 3.64342E-21
1.43290E-02 3.39547E-21
1.48521E-02 3.16856E-21
1.53845E-02 2.96058E-21
1.59262E-02 2.76965E-21
1.64770E-02 2.59410E-21
1.70371E-02 2.43247E-21
1.76063E-02 2.28344E-21
1.81848E-02 2.14583E-21
1.87724E-02 2.01862E-21
1.93692E-02 1.90085E-21
1.99751E-02 1.79170E-21
2.05901E-02 1.69041E-21
2.12143E-02 1.59631E-21
2.18476E-02 1.50878E-21
2.24900E-02 1.42729E-21
2.31415E-02 1.35133E-21
2.38021E-02 1.28045E-21
2.44717E-02 1.21425E-21
2.51504E-02 1.15236E-21
2.58382E-02 1.09444E-21
2.65349E-02 1.04019E-21
2.72407E-02 9.89324E-22
2.79555E-02 9.41597E-22
2.86793E-02 8.96775E-22
2.94120E-02 8.54645E-22
3.01537E-02 8.15013E-22
3.09043E-02 7.77703E-22
3.16639E-02 7.42550E-22
3.24324E-02 7.09406E-22
3.32098E-02 6.78131E-22
3.39961E-02 6.48601E-22
3.47912E-02 6.20697E-22
3.55952E-02 5.94312E-22
3.64081E-02 5.69347E-22
3.72297E-02 5.45710E-22
3.80602E-02 5.23316E-22
3.88995E-02 5.02087E-22
3.97476E-02 4.81949E-22
4.06044E-02 4.62835E-22
4.14700E-02 4.44682E-22
4.23443E-02 4.27433E-22
4.32273E-02 4.11033E-22
4.41190E-02 3.95431E-22
4.50194E-02 3.80581E-22
4.59284E-02 3.66439E-22
4.68461E-02 3.52965E-22
4.87074E-02 3.27868E-22
5.06030E-02 3.05017E-22
5.25328E-02 2.84172E-22
5.44967E-02 2.65121E-22
5.64946E-02 2.47680E-22
5.85262E-02 2.31686E-22
6.05914E-02 2.16995E-22
6.26901E-02 2.03479E-22
6.48222E-02 1.91026E-22
6.69873E-02 1.79536E-22
6.91854E-02 1.68919E-22
7.14163E-02 1.59096E-22
7.36799E-02 1.49995E-22
7.59760E-02 1.41552E-22
7.83043E-02 1.33710E-22
8.06647E-02 1.26417E-22
8.30571E-02 1.19628E-22
8.54812E-02 1.13300E-22
8.79369E-02 1.07395E-22
9.04240E-02 1.01880E-22
9.29422E-02 9.67234E-23
9.54915E-02 9.18969E-23
9.80716E-02 8.73751E-23
1.00682E-01 8.31348E-23
1.03323E-01 7.91550E-23
1.05995E-01 7.54162E-23
1.08696E-01 7.19009E-23
1.11427E-01 6.85927E-23
1.14188E-01 6.54769E-23
1.16978E-01 6.25401E-23
1.19797E-01 5.97697E-23
1.22645E-01 5.71545E-23
1.25522E-01 5.46839E-23
1.28428E-01 5.23481E-23
1.31361E-01 5.01383E-23
1.34323E-01 4.80462E-23
1.37313E-01 4.60642E-23
1.40330E-01 4.41853E-23
1.43375E-01 4.24031E-23
1.46447E-01 4.07114E-23
1.49545E-01 3.91048E-23
1.52671E-01 3.75780E-23
1.55823E-01 3.61261E-23
1.59001E-01 3.47448E-23
1.62205E-01 3.34298E-23
1.65435E-01 3.21774E-23
1.68690E-01 3.09840E-23
1.71970E-01 2.98460E-23
1.75276E-01 2.87605E-23
1.78606E-01 2.77243E-23
1.81961E-01 2.67350E-23
1.85340E-01 2.57898E-23
1.88743E-01 2.48864E-23
1.92169E-01 2.40225E-23
1.95619E-01 2.31961E-23
1.99092E-01 2.24051E-23
2.02589E-01 2.16478E-23
2.06107E-01 2.09223E-23
2.09649E-01 2.02271E-23
2.13212E-01 1.95606E-23
2.16797E-01 1.89213E-23
2.20404E-01 1.83081E-23
2.24032E-01 1.77194E-23
2.27680E-01 1.71542E-23
2.31350E-01 1.66113E-23
2.35040E-01 1.60896E-23
2.38751E-01 1.55881E-23
2.42481E-01 1.51060E-23
2.46231E-01 1.46422E-23
2.50000E-01 1.41959E-23
2.53788E-01 1.37664E-23
2.57595E-01 1.33528E-23
2.61421E-01 1.29545E-23
2.65264E-01 1.25707E-23
2.69126E-01 1.22008E-23
2.73005E-01 1.18443E-23
2.76901E-01 1.15004E-23
2.80814E-01 1.11687E-23
2.84744E-01 1.08487E-23
2.88691E-01 1.05398E-23
2.92653E-01 1.02416E-23
2.96632E-01 9.95362E-24
3.00625E-01 9.67546E-24
3.04634E-01 9.40670E-24
3.08658E-01 9.14695E-24
3.12697E-01 8.89583E-24
3.16749E-01 8.65302E-24
3.20816E-01 8.41817E-24
3.24896E-01 8.19099E-24
3.28990E-01 7.97117E-24
3.33097E-01 7.75840E-24
3.37216E-01 7.55240E-24
3.41348E-01 7.35292E-24
3.45492E-01 7.15971E-24
3.49647E-01 6.97256E-24
3.53814E-01 6.79122E-24
3.57992E-01 6.61546E-24
3.62181E-01 6.44507E-24
3.66381E-01 6.27986E-24
3.70590E-01 6.11965E-24
3.74810E-01 5.96424E-24
3.79039E-01 5.81348E-24
3.83277E-01 5.66718E-24
3.87524E-01 5.52519E-24
3.91780E-01 5.38735E-24
3.96044E-01 5.25352E-24
4.00316E-01 5.12355E-24
4.04596E-01 4.99732E-24
4.08882E-01 4.87470E-24
4.13176E-01 4.75555E-24
4.17476E-01 4.63977E-24
4.21783E-01 4.52723E-24
4.26095E-01 4.41782E-24
4.30413E-01 4.31145E-24
4.34737E-01 4.20800E-24
4.39065E-01 4.10740E-24
4.43398E-01 4.00953E-24
4.47736E-01 3.91431E-24
4.52077E-01 3.82166E-24
4.56422E-01 3.73148E-24
4.60770E-01 3.64371E-24
4.65122E-01 3.55827E-24
4.69476E-01 3.47507E-24
4.73832E-01 3.39406E-24
4.78190E-01 3.31516E-24
4.82550E-01 3.23830E-24
4.86912E-01 3.16343E-24
4.91274E-01 3.09047E-24
4.95637E-01 3.01938E-24
5.00000E-01 2.95009E-24
5.04363E-01 2.88256E-24
5.08726E-01 2.81672E-24
5.13088E-01 2.75253E-24
5.17450E-01 2.68994E-24
5.21810E-01 2.62890E-24
5.26168E-01 2.56936E-24
5.30524E-01 2.51129E-24
5.34878E-01 2.45463E-24
5.39230E-01 2.39935E-24
5.43578E-01 2.34541E-24
5.47923E-01 2.29276E-24
5.52264E-01 2.24138E-24
5.56602E-01 2.19123E-24
5.60935E-01 2.14226E-24
5.65263E-01 2.09445E-24
5.69587E-01 2.04777E-24
5.73905E-01 2.00219E-24
5.78217E-01 1.95766E-24
5.82524E-01 1.91418E-24
5.86824E-01 1.87170E-24
5.91118E-01 1.83019E-24
5.95404E-01 1.78964E-24
5.99684E-01 1.75002E-24
6.03956E-01 1.71130E-24
6.08220E-01 1.67346E-24
6.12476E-01 1.63647E-24
6.16723E-01 1.60032E-24
6.20961E-01 1.56497E-24
6.25190E-01 1.53042E-24
6.29410E-01 1.49663E-24
6.33619E-01 1.46359E-24
6.37819E-01 1.43128E-24
6.42008E-01 1.39968E-24
6.46186E-01 1.36878E-24
6.50353E-01 1.33854E-24
6.54508E-01 1.30897E-24
6.58652E-01 1.28004E-24
6.62784E-01 1.25174E-24
6.66903E-01 1.22404E-24
6.71010E-01 1.19694E-24
6.75104E-01 1.17042E-24
6.79184E-01 1.14446E-24
6.83251E-01 1.11906E-24
6.87303E-01 1.09419E-24
6.91342E-01 1.06986E-24
6.95366E-01 1.04603E-24
6.99375E-01 1.02271E-24
7.03368E-01 9.99870E-25
7.07347E-01 9.77511E-25
7.11309E-01 9.55619E-25
7.15256E-01 9.34181E-25
7.19186E-01 9.13188E-25
7.23099E-01 8.92629E-25
7.26995E-01 8.72494E-25
7.30874E-01 8.52774E-25
7.34736E-01 8.33458E-25
7.38579E-01 8.14538E-25
7.42405E-01 7.96004E-25
7.46212E-01 7.77849E-25
7.50000E-01 7.60063E-25
7.53769E-01 7.42638E-25
7.57519E-01 7.25566E-25
7.61249E-01 7.08840E-25
7.64960E-01 6.92451E-25
7.68650E-01 6.76393E-25
7.72320E-01 6.60656E-25
7.75968E-01 6.45236E-25
7.79596E-01 6.30126E-25
7.83203E-01 6.15318E-25
7.86788E-01 6.00806E-25
7.90351E-01 5.86584E-25
7.93893E-01 5.72646E-25
7.97411E-01 5.58986E-25
8.00908E-01 5.45598E-25
8.04381E-01 5.32476E-25
8.07831E-01 5.19615E-25
8.11257E-01 5.07010E-25
8.14660E-01 4.94655E-25
8.18039E-01 4.82545E-25
8.21394E-01 4.70676E-25
8.24724E-01 4.59042E-25
8.28030E-01 4.47638E-25
8.31310E-01 4.36461E-25
8.34565E-01 4.25505E-25
8.37795E-01 4.14767E-25
8.40999E-01 4.04241E-25
8.44177E-01 3.93925E-25
8.47329E-01 3.83813E-25
8.50455E-01 3.73902E-25
8.53553E-01 3.64189E-25
8.56625E-01 3.54668E-25
8.59670E-01 3.45338E-25
8.62687E-01 3.36193E-25
8.65677E-01 3.27232E-25
8.68639E-01 3.18449E-25
8.71572E-01 3.09843E-25
8.74478E-01 3.01409E-25
8.77355E-01 2.93145E-25
8.80203E-01 2.85048E-25
8.83022E-01 2.77115E-25
8.85812E-01 2.69342E-25
8.88573E-01 2.61727E-25
8.91304E-01 2.54268E-25
8.94005E-01 2.46960E-25
8.96677E-01 2.39803E-25
8.99318E-01 2.32793E-25
9.01928E-01 2.25929E-25
9.04508E-01 2.19206E-25
9.07058E-01 2.12623E-25
9.09576E-01 2.06179E-25
9.12063E-01 1.99870E-25
9.14519E-01 1.93694E-25
9.16943E-01 1.87649E-25
9.19335E-01 1.81733E-25
9.21696E-01 1.75945E-25
9.24024E-01 1.70282E-25
9.26320E-01 1.64741E-25
9.28584E-01 1.59322E-25
9.30815E-01 1.54023E-25
9.33013E-01 1.48841E-25
9.35178E-01 1.43775E-25
9.37310E-01 1.38824E-25
9.39409E-01 1.33985E-25
9.41474E-01 1.29257E-25
9.43505E-01 1.24639E-25
9.45503E-01 1.20128E-25
9.47467E-01 1.15724E-25
9.49397E-01 1.11425E-25
9.51293E-01 1.07230E-25
9.53154E-01 1.03136E-25
9.54981E-01 9.91442E-26
9.56773E-01 9.52517E-26
9.58530E-01 9.14575E-26
9.60252E-01 8.77605E-26
9.61940E-01 8.41595E-26
9.63592E-01 8.06533E-26
9.65209E-01 7.72409E-26
9.66790E-01 7.39212E-26
9.68336E-01 7.06930E-26
9.69846E-01 6.75555E-26
9.71321E-01 6.45076E-26
9.72759E-01 6.15483E-26
9.74162E-01 5.86767E-26
9.75528E-01 5.58920E-26
9.76858E-01 5.31932E-26
9.78152E-01 5.05795E-26
9.79410E-01 4.80502E-26
9.80631E-01 4.56044E-26
9.81815E-01 4.32414E-26
9.82963E-01 4.09604E-26
9.84074E-01 3.87608E-26
9.85148E-01 3.66419E-26
9.86185E-01 3.46030E-26
9.87185E-01 3.26435E-26
9.88148E-01 3.07628E-26
9.89074E-01 2.89603E-26
9.89962E-01 2.72355E-26
9.90814E-01 2.55879E-26
9.91627E-01 2.40170E-26
9.92404E-01 2.25222E-26
9.93143E-01 2.11032E-26
9.93844E-01 1.97595E-26
9.94508E-01 1.84907E-26
9.95134E-01 1.72964E-26
9.95722E-01 1.61763E-26
9.96273E-01 1.51300E-26
9.96786E-01 1.41572E-26
9.97261E-01 1.32577E-26
9.97698E-01 1.24310E-26
9.98097E-01 1.16771E-26
9.98459E-01 1.09957E-26
9.98782E-01 1.03866E-26
9.99067E-01 9.84950E-27
9.99315E-01 9.38437E-27
9.99524E-01 8.99103E-27
9.99695E-01 8.66937E-27
9.99829E-01 8.41929E-27
9.99924E-01 8.24071E-27
9.99981E-01 8.13359E-27
1.00000E+00 8.09788E-27
