 #
 # Subroutine ELSEPA. Elastic scattering of electrons and positrons
 #                    by neutral atoms and positive ions
 #
 # Projectile: electron
 # Kinetic energy = 3.50000E+08 eV = 1.28623E+07 a.u.
 #
 # WARNING: High-energy factorization with free-atom DF screening.
 #          Absorption, polarization and exchange corrections are
 #          switched off.
 #          Phase shifts are calculated for the bare nucleus.
 #          Scattering amplitudes are not evaluated.
 #
 # Element: In,  Z =  49,  atomic weight = 1.14818E+02 g/mol
 #
 # Nuclear model: Fermi distribution
 #                Average radius = 5.20060E-13 cm
 #                Skin thickness = 5.46000E-14 cm
 #
 # Number of electrons = 49
 #
 # Total elastic cross section = 4.82024E-18 cm**2 = 1.72134E-01 a0**2
 # 1st transport cross section = 3.85791E-26 cm**2 = 1.37768E-09 a0**2
 # 2nd transport cross section = 1.15645E-25 cm**2 = 4.12976E-09 a0**2
 #
 #
 # Differential cross section:                       MU=(1-COS(THETA))/2
 #
 #  THETA        MU          DCS          DCS        Sherman      error
 #  (deg)                 (cm**2/sr)   (a0**2/sr)    function
 #----------------------------------------------------------------------
0.00000E+00 5.09319E-09
7.61557E-13 4.91546E-09
1.18994E-12 4.82042E-09
1.71346E-12 4.70873E-09
2.33225E-12 4.58245E-09
3.04617E-12 4.44458E-09
3.85530E-12 4.29704E-09
4.75964E-12 4.14247E-09
5.75917E-12 3.98352E-09
6.85391E-12 3.82137E-09
8.04379E-12 3.65875E-09
9.32893E-12 3.49726E-09
1.07092E-11 3.33749E-09
1.21847E-11 3.18156E-09
1.37554E-11 3.02995E-09
1.54213E-11 2.88306E-09
1.71823E-11 2.74215E-09
1.90386E-11 2.60681E-09
2.09900E-11 2.47755E-09
2.30367E-11 2.35484E-09
2.51785E-11 2.23776E-09
2.74156E-11 2.12697E-09
2.97478E-11 2.02237E-09
3.21752E-11 1.92296E-09
3.46979E-11 1.82940E-09
3.73157E-11 1.74114E-09
4.00286E-11 1.65759E-09
4.28368E-11 1.57911E-09
4.57402E-11 1.50496E-09
4.87388E-11 1.43495E-09
5.18325E-11 1.36920E-09
5.50215E-11 1.30687E-09
5.83057E-11 1.24815E-09
6.16850E-11 1.19294E-09
6.51595E-11 1.14038E-09
6.87293E-11 1.09092E-09
7.23943E-11 1.04423E-09
7.61544E-11 9.99806E-10
1.18991E-10 6.64439E-10
1.71347E-10 4.57006E-10
2.33223E-10 3.17119E-10
3.04617E-10 2.29772E-10
3.85531E-10 1.66730E-10
4.75965E-10 1.23380E-10
5.75917E-10 9.31700E-11
6.85389E-10 7.08484E-11
8.04380E-10 5.49880E-11
9.32891E-10 4.33614E-11
1.07092E-09 3.46343E-11
1.21847E-09 2.81001E-11
1.37554E-09 2.30878E-11
1.54213E-09 1.91818E-11
1.71823E-09 1.61165E-11
1.90386E-09 1.36571E-11
2.09900E-09 1.16652E-11
2.30367E-09 1.00428E-11
2.51785E-09 8.68808E-12
2.74156E-09 7.56046E-12
2.97478E-09 6.61465E-12
3.21752E-09 5.80361E-12
3.46978E-09 5.11573E-12
3.73156E-09 4.52502E-12
4.00286E-09 4.01259E-12
4.28368E-09 3.57134E-12
4.57402E-09 3.18655E-12
4.87388E-09 2.84970E-12
5.18326E-09 2.55587E-12
5.50215E-09 2.29668E-12
5.83057E-09 2.06920E-12
6.16850E-09 1.86917E-12
6.51596E-09 1.69139E-12
6.87293E-09 1.53438E-12
7.23942E-09 1.39498E-12
7.61544E-09 1.27055E-12
1.18991E-08 5.52577E-13
1.71347E-08 2.78746E-13
2.33223E-08 1.56029E-13
3.04617E-08 9.41579E-14
3.85531E-08 6.01098E-14
4.75965E-08 4.01211E-14
5.75917E-08 2.77529E-14
6.85389E-08 1.97930E-14
8.04380E-08 1.44834E-14
9.32891E-08 1.08371E-14
1.07092E-07 8.26835E-15
1.21847E-07 6.41656E-15
1.37554E-07 5.05555E-15
1.54213E-07 4.03704E-15
1.71823E-07 3.26274E-15
1.90386E-07 2.66568E-15
2.09900E-07 2.19923E-15
2.30367E-07 1.83061E-15
2.51785E-07 1.53615E-15
2.74156E-07 1.29863E-15
2.97478E-07 1.10534E-15
3.21752E-07 9.46720E-16
3.46978E-07 8.15586E-16
3.73156E-07 7.06394E-16
4.00286E-07 6.14886E-16
4.28368E-07 5.37732E-16
4.57402E-07 4.72306E-16
4.87388E-07 4.16537E-16
5.18325E-07 3.68759E-16
5.50215E-07 3.27639E-16
5.83057E-07 2.92092E-16
6.16850E-07 2.61235E-16
6.51596E-07 2.34347E-16
6.87293E-07 2.10828E-16
7.23942E-07 1.90186E-16
7.61543E-07 1.72009E-16
1.18991E-06 7.08749E-17
1.71347E-06 3.42983E-17
2.33223E-06 1.85535E-17
3.04617E-06 1.08915E-17
3.85531E-06 6.80653E-18
4.75964E-06 4.46921E-18
5.75916E-06 3.05437E-18
6.85388E-06 2.15765E-18
8.04378E-06 1.56716E-18
9.32888E-06 1.16555E-18
1.07092E-05 8.84741E-19
1.21846E-05 6.83639E-19
1.37553E-05 5.36571E-19
1.54212E-05 4.27013E-19
1.71822E-05 3.44048E-19
1.90385E-05 2.80219E-19
2.09899E-05 2.30662E-19
2.30365E-05 1.91580E-19
2.51783E-05 1.60414E-19
2.74153E-05 1.35319E-19
2.97475E-05 1.14937E-19
3.21749E-05 9.82517E-20
3.46974E-05 8.44923E-20
3.73152E-05 7.30663E-20
4.00281E-05 6.35130E-20
4.28362E-05 5.54744E-20
4.57395E-05 4.86684E-20
4.87380E-05 4.28742E-20
5.18317E-05 3.79156E-20
5.50205E-05 3.36527E-20
5.83045E-05 2.99720E-20
6.16838E-05 2.67815E-20
6.51582E-05 2.40051E-20
6.87277E-05 2.15804E-20
7.23925E-05 1.94547E-20
7.61524E-05 1.76379E-20
9.21439E-05 1.20568E-20
1.09658E-04 8.51856E-21
1.28695E-04 6.18864E-21
1.49255E-04 4.60308E-21
1.71338E-04 3.49427E-21
1.94942E-04 2.69979E-21
2.20070E-04 2.11859E-21
2.46720E-04 1.68551E-21
2.74892E-04 1.35742E-21
3.04586E-04 1.10526E-21
3.35803E-04 9.08847E-22
3.68542E-04 7.54047E-22
4.02802E-04 6.30714E-22
4.38585E-04 5.31476E-22
4.75889E-04 4.50909E-22
5.14715E-04 3.84949E-22
5.55063E-04 3.30539E-22
5.96931E-04 2.85335E-22
6.40321E-04 2.47533E-22
6.85233E-04 2.15730E-22
7.31665E-04 1.88818E-22
7.79618E-04 1.65927E-22
8.29092E-04 1.46357E-22
8.80086E-04 1.29550E-22
9.32601E-04 1.15051E-22
9.86636E-04 1.02491E-22
1.04219E-03 9.15704E-23
1.09927E-03 8.20387E-23
1.15786E-03 7.36909E-23
1.21797E-03 6.63557E-23
1.27961E-03 5.98902E-23
1.34276E-03 5.41744E-23
1.40743E-03 4.91071E-23
1.47362E-03 4.46027E-23
1.54133E-03 4.05885E-23
1.61056E-03 3.70024E-23
1.68131E-03 3.37913E-23
1.75357E-03 3.09096E-23
1.82735E-03 2.83181E-23
1.90265E-03 2.59827E-23
1.97947E-03 2.38741E-23
2.05780E-03 2.19667E-23
2.13765E-03 2.02382E-23
2.21902E-03 1.86692E-23
2.30190E-03 1.72426E-23
2.38630E-03 1.59434E-23
2.47222E-03 1.47584E-23
2.55965E-03 1.36761E-23
2.64859E-03 1.26861E-23
2.73905E-03 1.17793E-23
2.83103E-03 1.09477E-23
2.92452E-03 1.01840E-23
3.01952E-03 9.48187E-24
3.11604E-03 8.83559E-24
3.21407E-03 8.24002E-24
3.31362E-03 7.69060E-24
3.41468E-03 7.18321E-24
3.51725E-03 6.71416E-24
3.62133E-03 6.28012E-24
3.72692E-03 5.87810E-24
3.83403E-03 5.50539E-24
3.94265E-03 5.15954E-24
4.05278E-03 4.83835E-24
4.16442E-03 4.53980E-24
4.27757E-03 4.26207E-24
4.39223E-03 4.00352E-24
4.50840E-03 3.76263E-24
4.62608E-03 3.53802E-24
4.74527E-03 3.32846E-24
4.86597E-03 3.13280E-24
4.98817E-03 2.94998E-24
5.11188E-03 2.77907E-24
5.23711E-03 2.61917E-24
5.36383E-03 2.46950E-24
5.49207E-03 2.32931E-24
5.62181E-03 2.19792E-24
5.75306E-03 2.07472E-24
5.88581E-03 1.95913E-24
6.02007E-03 1.85063E-24
6.15583E-03 1.74872E-24
6.29310E-03 1.65296E-24
6.43187E-03 1.56294E-24
6.57214E-03 1.47826E-24
6.71392E-03 1.39859E-24
6.85720E-03 1.32358E-24
7.00198E-03 1.25294E-24
7.14827E-03 1.18638E-24
7.29605E-03 1.12364E-24
7.44534E-03 1.06448E-24
7.59612E-03 1.00868E-24
7.97965E-03 8.82494E-25
8.37255E-03 7.73104E-25
8.77480E-03 6.78075E-25
9.18641E-03 5.95366E-25
9.60736E-03 5.23252E-25
1.00376E-02 4.60274E-25
1.04773E-02 4.05191E-25
1.09262E-02 3.56946E-25
1.13844E-02 3.14636E-25
1.18520E-02 2.77487E-25
1.23288E-02 2.44835E-25
1.28150E-02 2.16107E-25
1.33104E-02 1.90809E-25
1.38150E-02 1.68513E-25
1.43290E-02 1.48850E-25
1.48521E-02 1.31496E-25
1.53845E-02 1.16173E-25
1.59262E-02 1.02635E-25
1.64770E-02 9.06703E-26
1.70371E-02 8.00920E-26
1.76063E-02 7.07368E-26
1.81848E-02 6.24616E-26
1.87724E-02 5.51405E-26
1.93692E-02 4.86631E-26
1.99751E-02 4.29319E-26
2.05901E-02 3.78611E-26
2.12143E-02 3.33752E-26
2.18476E-02 2.94072E-26
2.24900E-02 2.58981E-26
2.31415E-02 2.27957E-26
2.38021E-02 2.00538E-26
2.44717E-02 1.76313E-26
2.51504E-02 1.54921E-26
2.58382E-02 1.36039E-26
2.65349E-02 1.19382E-26
2.72407E-02 1.04697E-26
2.79555E-02 9.17592E-27
2.86793E-02 8.03687E-27
2.94120E-02 7.03483E-27
3.01537E-02 6.15406E-27
3.09043E-02 5.38057E-27
3.16639E-02 4.70193E-27
3.24324E-02 4.10710E-27
3.32098E-02 3.58629E-27
3.39961E-02 3.13077E-27
3.47912E-02 2.73283E-27
3.55952E-02 2.38560E-27
3.64081E-02 2.08300E-27
3.72297E-02 1.81962E-27
3.80602E-02 1.59069E-27
3.88995E-02 1.39196E-27
3.97476E-02 1.21969E-27
4.06044E-02 1.07055E-27
4.14700E-02 9.41612E-28
4.23443E-02 8.30286E-28
4.32273E-02 7.34287E-28
4.41190E-02 6.51602E-28
4.50194E-02 5.80460E-28
4.59284E-02 5.19303E-28
4.68461E-02 4.66765E-28
4.87074E-02 3.82905E-28
5.06030E-02 3.20998E-28
5.25328E-02 2.75057E-28
5.44967E-02 2.40577E-28
5.64946E-02 2.14201E-28
5.85262E-02 1.93462E-28
6.05914E-02 1.76575E-28
6.26901E-02 1.62274E-28
6.48222E-02 1.49682E-28
6.69873E-02 1.38210E-28
6.91854E-02 1.27483E-28
7.14163E-02 1.17276E-28
7.36799E-02 1.07471E-28
7.59760E-02 9.80192E-29
7.83043E-02 8.89167E-29
8.06647E-02 8.01864E-29
8.30571E-02 7.18634E-29
8.54812E-02 6.39860E-29
8.79369E-02 5.65895E-29
9.04240E-02 4.97025E-29
9.29422E-02 4.33446E-29
9.54915E-02 3.75257E-29
9.80716E-02 3.22464E-29
1.00682E-01 2.74985E-29
1.03323E-01 2.32658E-29
1.05995E-01 1.95258E-29
1.08696E-01 1.62509E-29
1.11427E-01 1.34096E-29
1.14188E-01 1.09679E-29
1.16978E-01 8.89010E-30
1.19797E-01 7.14033E-30
1.22645E-01 5.68293E-30
1.25522E-01 4.48334E-30
1.28428E-01 3.50860E-30
1.31361E-01 2.72775E-30
1.34323E-01 2.11214E-30
1.37313E-01 1.63560E-30
1.40330E-01 1.27453E-30
1.43375E-01 1.00791E-30
1.46447E-01 8.17256E-31
1.49545E-01 6.86520E-31
1.52671E-01 6.01946E-31
1.55823E-01 5.51908E-31
1.59001E-01 5.26733E-31
1.62205E-01 5.18501E-31
1.65435E-01 5.20860E-31
1.68690E-01 5.28826E-31
1.71970E-01 5.38604E-31
1.75276E-01 5.47408E-31
1.78606E-01 5.53302E-31
1.81961E-01 5.55048E-31
1.85340E-01 5.51973E-31
1.88743E-01 5.43847E-31
1.92169E-01 5.30782E-31
1.95619E-01 5.13138E-31
1.99092E-01 4.91449E-31
2.02589E-01 4.66359E-31
2.06107E-01 4.38566E-31
2.09649E-01 4.08786E-31
2.13212E-01 3.77716E-31
2.16797E-01 3.46013E-31
2.20404E-01 3.14273E-31
2.24032E-01 2.83024E-31
2.27680E-01 2.52718E-31
2.31350E-01 2.23726E-31
2.35040E-01 1.96345E-31
2.38751E-01 1.70795E-31
2.42481E-01 1.47230E-31
2.46231E-01 1.25739E-31
2.50000E-01 1.06358E-31
2.53788E-01 8.90737E-32
2.57595E-01 7.38338E-32
2.61421E-01 6.05537E-32
2.65264E-01 4.91229E-32
2.69126E-01 3.94127E-32
2.73005E-01 3.12812E-32
2.76901E-01 2.45790E-32
2.80814E-01 1.91537E-32
2.84744E-01 1.48538E-32
2.88691E-01 1.15319E-32
2.92653E-01 9.04714E-33
2.96632E-01 7.26713E-33
3.00625E-01 6.06956E-33
3.04634E-01 5.34301E-33
3.08658E-01 4.98745E-33
3.12697E-01 4.91446E-33
3.16749E-01 5.04706E-33
3.20816E-01 5.31934E-33
3.24896E-01 5.67590E-33
3.28990E-01 6.07114E-33
3.33097E-01 6.46845E-33
3.37216E-01 6.83934E-33
3.41348E-01 7.16255E-33
3.45492E-01 7.42316E-33
3.49647E-01 7.61166E-33
3.53814E-01 7.72316E-33
3.57992E-01 7.75656E-33
3.62181E-01 7.71380E-33
3.66381E-01 7.59924E-33
3.70590E-01 7.41900E-33
3.74810E-01 7.18045E-33
3.79039E-01 6.89178E-33
3.83277E-01 6.56155E-33
3.87524E-01 6.19842E-33
3.91780E-01 5.81084E-33
3.96044E-01 5.40687E-33
4.00316E-01 4.99401E-33
4.04596E-01 4.57907E-33
4.08882E-01 4.16813E-33
4.13176E-01 3.76647E-33
4.17476E-01 3.37855E-33
4.21783E-01 3.00806E-33
4.26095E-01 2.65790E-33
4.30413E-01 2.33025E-33
4.34737E-01 2.02664E-33
4.39065E-01 1.74798E-33
4.43398E-01 1.49464E-33
4.47736E-01 1.26651E-33
4.52077E-01 1.06310E-33
4.56422E-01 8.83571E-34
4.60770E-01 7.26803E-34
4.65122E-01 5.91479E-34
4.69476E-01 4.76119E-34
4.73832E-01 3.79140E-34
4.78190E-01 2.98896E-34
4.82550E-01 2.33718E-34
4.86912E-01 1.81950E-34
4.91274E-01 1.41973E-34
4.95637E-01 1.12232E-34
5.00000E-01 9.12510E-35
5.04363E-01 7.76499E-35
5.08726E-01 7.01512E-35
5.13088E-01 6.75887E-35
5.17450E-01 6.89094E-35
5.21810E-01 7.31749E-35
5.26168E-01 7.95591E-35
5.30524E-01 8.73454E-35
5.34878E-01 9.59210E-35
5.39230E-01 1.04771E-34
5.43578E-01 1.13472E-34
5.47923E-01 1.21683E-34
5.52264E-01 1.29141E-34
5.56602E-01 1.35647E-34
5.60935E-01 1.41066E-34
5.65263E-01 1.45311E-34
5.69587E-01 1.48342E-34
5.73905E-01 1.50157E-34
5.78217E-01 1.50784E-34
5.82524E-01 1.50276E-34
5.86824E-01 1.48707E-34
5.91118E-01 1.46163E-34
5.95404E-01 1.42742E-34
5.99684E-01 1.38550E-34
6.03956E-01 1.33693E-34
6.08220E-01 1.28280E-34
6.12476E-01 1.22417E-34
6.16723E-01 1.16205E-34
6.20961E-01 1.09742E-34
6.25190E-01 1.03119E-34
6.29410E-01 9.64173E-35
6.33619E-01 8.97133E-35
6.37819E-01 8.30739E-35
6.42008E-01 7.65579E-35
6.46186E-01 7.02161E-35
6.50353E-01 6.40912E-35
6.54508E-01 5.82184E-35
6.58652E-01 5.26255E-35
6.62784E-01 4.73341E-35
6.66903E-01 4.23591E-35
6.71010E-01 3.77102E-35
6.75104E-01 3.33919E-35
6.79184E-01 2.94045E-35
6.83251E-01 2.57442E-35
6.87303E-01 2.24041E-35
6.91342E-01 1.93744E-35
6.95366E-01 1.66432E-35
6.99375E-01 1.41966E-35
7.03368E-01 1.20194E-35
7.07347E-01 1.00955E-35
7.11309E-01 8.40788E-36
7.15256E-01 6.93944E-36
7.19186E-01 5.67285E-36
7.23099E-01 4.59094E-36
7.26995E-01 3.67689E-36
7.30874E-01 2.91436E-36
7.34736E-01 2.28768E-36
7.38579E-01 1.78187E-36
7.42405E-01 1.38279E-36
7.46212E-01 1.07717E-36
7.50000E-01 8.52655E-37
7.53769E-01 6.97798E-37
7.57519E-01 6.02098E-37
7.61249E-01 5.55968E-37
7.64960E-01 5.50733E-37
7.68650E-01 5.78582E-37
7.72320E-01 6.32548E-37
7.75968E-01 7.06461E-37
7.79596E-01 7.94898E-37
7.83203E-01 8.93150E-37
7.86788E-01 9.97143E-37
7.90351E-01 1.10343E-36
7.93893E-01 1.20910E-36
7.97411E-01 1.31174E-36
8.00908E-01 1.40940E-36
8.04381E-01 1.50054E-36
8.07831E-01 1.58397E-36
8.11257E-01 1.65881E-36
8.14660E-01 1.72450E-36
8.18039E-01 1.78067E-36
8.21394E-01 1.82718E-36
8.24724E-01 1.86408E-36
8.28030E-01 1.89154E-36
8.31310E-01 1.90985E-36
8.34565E-01 1.91942E-36
8.37795E-01 1.92071E-36
8.40999E-01 1.91426E-36
8.44177E-01 1.90062E-36
8.47329E-01 1.88040E-36
8.50455E-01 1.85419E-36
8.53553E-01 1.82261E-36
8.56625E-01 1.78626E-36
8.59670E-01 1.74573E-36
8.62687E-01 1.70158E-36
8.65677E-01 1.65438E-36
8.68639E-01 1.60464E-36
8.71572E-01 1.55284E-36
8.74478E-01 1.49945E-36
8.77355E-01 1.44490E-36
8.80203E-01 1.38957E-36
8.83022E-01 1.33383E-36
8.85812E-01 1.27800E-36
8.88573E-01 1.22238E-36
8.91304E-01 1.16722E-36
8.94005E-01 1.11275E-36
8.96677E-01 1.05920E-36
8.99318E-01 1.00672E-36
9.01928E-01 9.55464E-37
9.04508E-01 9.05566E-37
9.07058E-01 8.57130E-37
9.09576E-01 8.10233E-37
9.12063E-01 7.64953E-37
9.14519E-01 7.21327E-37
9.16943E-01 6.79395E-37
9.19335E-01 6.39173E-37
9.21696E-01 6.00668E-37
9.24024E-01 5.63879E-37
9.26320E-01 5.28790E-37
9.28584E-01 4.95379E-37
9.30815E-01 4.63619E-37
9.33013E-01 4.33472E-37
9.35178E-01 4.04900E-37
9.37310E-01 3.77859E-37
9.39409E-01 3.52301E-37
9.41474E-01 3.28175E-37
9.43505E-01 3.05432E-37
9.45503E-01 2.84012E-37
9.47467E-01 2.63868E-37
9.49397E-01 2.44942E-37
9.51293E-01 2.27178E-37
9.53154E-01 2.10523E-37
9.54981E-01 1.94924E-37
9.56773E-01 1.80327E-37
9.58530E-01 1.66683E-37
9.60252E-01 1.53938E-37
9.61940E-01 1.42047E-37
9.63592E-01 1.30960E-37
9.65209E-01 1.20633E-37
9.66790E-01 1.11021E-37
9.68336E-01 1.02081E-37
9.69846E-01 9.37737E-38
9.71321E-01 8.60598E-38
9.72759E-01 7.89024E-38
9.74162E-01 7.22662E-38
9.75528E-01 6.61180E-38
9.76858E-01 6.04246E-38
9.78152E-01 5.51571E-38
9.79410E-01 5.02871E-38
9.80631E-01 4.57867E-38
9.81815E-01 4.16308E-38
9.82963E-01 3.77964E-38
9.84074E-01 3.42607E-38
9.85148E-01 3.10007E-38
9.86185E-01 2.79992E-38
9.87185E-01 2.52370E-38
9.88148E-01 2.26966E-38
9.89074E-01 2.03627E-38
9.89962E-01 1.82199E-38
9.90814E-01 1.62545E-38
9.91627E-01 1.44533E-38
9.92404E-01 1.28050E-38
9.93143E-01 1.12986E-38
9.93844E-01 9.92323E-39
9.94508E-01 8.66978E-39
9.95134E-01 7.53023E-39
9.95722E-01 6.49576E-39
9.96273E-01 5.56021E-39
9.96786E-01 4.71559E-39
9.97261E-01 3.95689E-39
9.97698E-01 3.27774E-39
9.98097E-01 2.67362E-39
9.98459E-01 2.14067E-39
9.98782E-01 1.67370E-39
9.99067E-01 1.27001E-39
9.99315E-01 9.25907E-40
9.99524E-01 6.39453E-40
9.99695E-01 4.07938E-40
9.99829E-01 2.29632E-40
9.99924E-01 1.03537E-40
9.99981E-01 2.81946E-41
1.00000E+00 1.89183E-42
