 #
 # Subroutine ELSEPA. Elastic scattering of electrons and positrons
 #                    by neutral atoms and positive ions
 #
 # Projectile: electron
 # Kinetic energy = 1.50000E+07 eV = 5.51240E+05 a.u.
 #
 # WARNING: High-energy factorization with free-atom DF screening.
 #          Absorption, polarization and exchange corrections are
 #          switched off.
 #          Phase shifts are calculated for the bare nucleus.
 #          Scattering amplitudes are not evaluated.
 #
 # Element: In,  Z =  49,  atomic weight = 1.14818E+02 g/mol
 #
 # Nuclear model: Fermi distribution
 #                Average radius = 5.20060E-13 cm
 #                Skin thickness = 5.46000E-14 cm
 #
 # Number of electrons = 49
 #
 # Total elastic cross section = 4.82908E-18 cm**2 = 1.72450E-01 a0**2
 # 1st transport cross section = 1.82535E-23 cm**2 = 6.51843E-07 a0**2
 # 2nd transport cross section = 5.18209E-23 cm**2 = 1.85056E-06 a0**2
 #
 #
 # Differential cross section:                       MU=(1-COS(THETA))/2
 #
 #  THETA        MU          DCS          DCS        Sherman      error
 #  (deg)                 (cm**2/sr)   (a0**2/sr)    function
 #----------------------------------------------------------------------
0.00000E+00 9.97392E-12
7.61557E-13 9.97321E-12
1.18994E-12 9.97281E-12
1.71346E-12 9.97233E-12
2.33225E-12 9.97175E-12
3.04617E-12 9.97109E-12
3.85530E-12 9.97034E-12
4.75964E-12 9.96951E-12
5.75917E-12 9.96858E-12
6.85391E-12 9.96757E-12
8.04379E-12 9.96647E-12
9.32893E-12 9.96529E-12
1.07092E-11 9.96401E-12
1.21847E-11 9.96265E-12
1.37554E-11 9.96120E-12
1.54213E-11 9.95967E-12
1.71823E-11 9.95805E-12
1.90386E-11 9.95634E-12
2.09900E-11 9.95454E-12
2.30367E-11 9.95266E-12
2.51785E-11 9.95069E-12
2.74156E-11 9.94863E-12
2.97478E-11 9.94649E-12
3.21752E-11 9.94426E-12
3.46979E-11 9.94194E-12
3.73157E-11 9.93954E-12
4.00286E-11 9.93705E-12
4.28368E-11 9.93448E-12
4.57402E-11 9.93182E-12
4.87388E-11 9.92907E-12
5.18325E-11 9.92624E-12
5.50215E-11 9.92332E-12
5.83057E-11 9.92032E-12
6.16850E-11 9.91723E-12
6.51595E-11 9.91406E-12
6.87293E-11 9.91080E-12
7.23943E-11 9.90746E-12
7.61544E-11 9.90403E-12
1.18991E-10 9.86514E-12
1.71347E-10 9.81798E-12
2.33223E-10 9.76279E-12
3.04617E-10 9.69980E-12
3.85531E-10 9.62930E-12
4.75965E-10 9.55160E-12
5.75917E-10 9.46704E-12
6.85389E-10 9.37598E-12
8.04380E-10 9.27879E-12
9.32891E-10 9.17587E-12
1.07092E-09 9.06735E-12
1.21847E-09 8.95406E-12
1.37554E-09 8.83655E-12
1.54213E-09 8.71493E-12
1.71823E-09 8.58921E-12
1.90386E-09 8.46058E-12
2.09900E-09 8.32947E-12
2.30367E-09 8.19529E-12
2.51785E-09 8.05914E-12
2.74156E-09 7.92172E-12
2.97478E-09 7.78308E-12
3.21752E-09 7.64272E-12
3.46978E-09 7.50218E-12
3.73156E-09 7.36177E-12
4.00286E-09 7.22066E-12
4.28368E-09 7.07974E-12
4.57402E-09 6.93981E-12
4.87388E-09 6.80085E-12
5.18326E-09 6.66183E-12
5.50215E-09 6.52447E-12
5.83057E-09 6.38895E-12
6.16850E-09 6.25433E-12
6.51596E-09 6.12116E-12
6.87293E-09 5.99028E-12
7.23942E-09 5.86167E-12
7.61544E-09 5.73386E-12
1.18991E-08 4.58488E-12
1.71347E-08 3.66675E-12
2.33223E-08 2.95307E-12
3.04617E-08 2.40223E-12
3.85531E-08 1.97467E-12
4.75965E-08 1.63901E-12
5.75917E-08 1.37193E-12
6.85389E-08 1.15643E-12
8.04380E-08 9.80512E-13
9.32891E-08 8.35546E-13
1.07092E-07 7.07217E-13
1.21847E-07 6.05220E-13
1.37554E-07 5.24655E-13
1.54213E-07 4.56211E-13
1.71823E-07 3.93068E-13
1.90386E-07 3.42076E-13
2.09900E-07 3.00461E-13
2.30367E-07 2.62290E-13
2.51785E-07 2.29720E-13
2.74156E-07 2.02666E-13
2.97478E-07 1.79544E-13
3.21752E-07 1.58601E-13
3.46978E-07 1.40921E-13
3.73156E-07 1.25901E-13
4.00286E-07 1.12535E-13
4.28368E-07 1.00851E-13
4.57402E-07 9.07891E-14
4.87388E-07 8.20331E-14
5.18325E-07 7.41682E-14
5.50215E-07 6.73110E-14
5.83057E-07 6.13070E-14
6.16850E-07 5.59436E-14
6.51596E-07 5.11627E-14
6.87293E-07 4.69338E-14
7.23942E-07 4.31746E-14
7.61543E-07 3.97537E-14
1.18991E-06 1.93506E-14
1.71347E-06 1.06314E-14
2.33223E-06 6.27514E-15
3.04617E-06 3.90080E-15
3.85531E-06 2.53685E-15
4.75964E-06 1.71584E-15
5.75916E-06 1.20108E-15
6.85388E-06 8.66710E-16
8.04378E-06 6.41930E-16
9.32888E-06 4.86001E-16
1.07092E-05 3.74789E-16
1.21846E-05 2.93975E-16
1.37553E-05 2.33957E-16
1.54212E-05 1.88356E-16
1.71822E-05 1.53385E-16
1.90385E-05 1.26148E-16
2.09899E-05 1.04704E-16
2.30365E-05 8.75993E-17
2.51783E-05 7.38375E-17
2.74153E-05 6.26560E-17
2.97475E-05 5.34857E-17
3.21749E-05 4.59327E-17
3.46974E-05 3.96676E-17
3.73152E-05 3.44287E-17
4.00281E-05 3.00276E-17
4.28362E-05 2.63088E-17
4.57395E-05 2.31465E-17
4.87380E-05 2.04429E-17
5.18317E-05 1.81224E-17
5.50205E-05 1.61217E-17
5.83045E-05 1.43881E-17
6.16838E-05 1.28818E-17
6.51582E-05 1.15683E-17
6.87277E-05 1.04181E-17
7.23925E-05 9.40770E-18
7.61524E-05 8.51757E-18
9.21439E-05 5.85584E-18
1.09658E-04 4.15818E-18
1.28695E-04 3.03453E-18
1.49255E-04 2.26639E-18
1.71338E-04 1.72704E-18
1.94942E-04 1.33915E-18
2.20070E-04 1.05442E-18
2.46720E-04 8.41572E-19
2.74892E-04 6.79858E-19
3.04586E-04 5.55231E-19
3.35803E-04 4.57914E-19
3.68542E-04 3.81033E-19
4.02802E-04 3.19644E-19
4.38585E-04 2.70143E-19
4.75889E-04 2.29874E-19
5.14715E-04 1.96842E-19
5.55063E-04 1.69543E-19
5.96931E-04 1.46821E-19
6.40321E-04 1.27786E-19
6.85233E-04 1.11742E-19
7.31665E-04 9.81419E-20
7.79618E-04 8.65526E-20
8.29092E-04 7.66271E-20
8.80086E-04 6.80870E-20
9.32601E-04 6.07062E-20
9.86636E-04 5.43007E-20
1.04219E-03 4.87201E-20
1.09927E-03 4.38399E-20
1.15786E-03 3.95569E-20
1.21797E-03 3.57857E-20
1.27961E-03 3.24545E-20
1.34276E-03 2.95031E-20
1.40743E-03 2.68805E-20
1.47362E-03 2.45438E-20
1.54133E-03 2.24564E-20
1.61056E-03 2.05868E-20
1.68131E-03 1.89085E-20
1.75357E-03 1.73983E-20
1.82735E-03 1.60364E-20
1.90265E-03 1.48056E-20
1.97947E-03 1.36911E-20
2.05780E-03 1.26800E-20
2.13765E-03 1.17608E-20
2.21902E-03 1.09237E-20
2.30190E-03 1.01601E-20
2.38630E-03 9.46236E-21
2.47222E-03 8.82375E-21
2.55965E-03 8.23834E-21
2.64859E-03 7.70091E-21
2.73905E-03 7.20677E-21
2.83103E-03 6.75184E-21
2.92452E-03 6.33241E-21
3.01952E-03 5.94521E-21
3.11604E-03 5.58730E-21
3.21407E-03 5.25605E-21
3.31362E-03 4.94912E-21
3.41468E-03 4.66439E-21
3.51725E-03 4.39995E-21
3.62133E-03 4.15409E-21
3.72692E-03 3.92526E-21
3.83403E-03 3.71206E-21
3.94265E-03 3.51322E-21
4.05278E-03 3.32760E-21
4.16442E-03 3.15415E-21
4.27757E-03 2.99192E-21
4.39223E-03 2.84005E-21
4.50840E-03 2.69776E-21
4.62608E-03 2.56432E-21
4.74527E-03 2.43909E-21
4.86597E-03 2.32145E-21
4.98817E-03 2.21087E-21
5.11188E-03 2.10684E-21
5.23711E-03 2.00890E-21
5.36383E-03 1.91663E-21
5.49207E-03 1.82963E-21
5.62181E-03 1.74754E-21
5.75306E-03 1.67004E-21
5.88581E-03 1.59682E-21
6.02007E-03 1.52759E-21
6.15583E-03 1.46211E-21
6.29310E-03 1.40012E-21
6.43187E-03 1.34141E-21
6.57214E-03 1.28577E-21
6.71392E-03 1.23300E-21
6.85720E-03 1.18293E-21
7.00198E-03 1.13540E-21
7.14827E-03 1.09026E-21
7.29605E-03 1.04735E-21
7.44534E-03 1.00655E-21
7.59612E-03 9.67734E-22
7.97965E-03 8.78634E-22
8.37255E-03 7.99636E-22
8.77480E-03 7.29391E-22
9.18641E-03 6.66756E-22
9.60736E-03 6.10759E-22
1.00376E-02 5.60567E-22
1.04773E-02 5.15471E-22
1.09262E-02 4.74862E-22
1.13844E-02 4.38209E-22
1.18520E-02 4.05058E-22
1.23288E-02 3.75012E-22
1.28150E-02 3.47728E-22
1.33104E-02 3.22905E-22
1.38150E-02 3.00279E-22
1.43290E-02 2.79620E-22
1.48521E-02 2.60725E-22
1.53845E-02 2.43416E-22
1.59262E-02 2.27536E-22
1.64770E-02 2.12942E-22
1.70371E-02 1.99512E-22
1.76063E-02 1.87136E-22
1.81848E-02 1.75715E-22
1.87724E-02 1.65162E-22
1.93692E-02 1.55397E-22
1.99751E-02 1.46352E-22
2.05901E-02 1.37963E-22
2.12143E-02 1.30173E-22
2.18476E-02 1.22931E-22
2.24900E-02 1.16192E-22
2.31415E-02 1.09914E-22
2.38021E-02 1.04059E-22
2.44717E-02 9.85928E-23
2.51504E-02 9.34853E-23
2.58382E-02 8.87080E-23
2.65349E-02 8.42357E-23
2.72407E-02 8.00451E-23
2.79555E-02 7.61150E-23
2.86793E-02 7.24259E-23
2.94120E-02 6.89602E-23
3.01537E-02 6.57019E-23
3.09043E-02 6.26361E-23
3.16639E-02 5.97492E-23
3.24324E-02 5.70285E-23
3.32098E-02 5.44628E-23
3.39961E-02 5.20417E-23
3.47912E-02 4.97552E-23
3.55952E-02 4.75942E-23
3.64081E-02 4.55507E-23
3.72297E-02 4.36171E-23
3.80602E-02 4.17863E-23
3.88995E-02 4.00516E-23
3.97476E-02 3.84069E-23
4.06044E-02 3.68469E-23
4.14700E-02 3.53663E-23
4.23443E-02 3.39602E-23
4.32273E-02 3.26237E-23
4.41190E-02 3.13535E-23
4.50194E-02 3.01452E-23
4.59284E-02 2.89950E-23
4.68461E-02 2.78998E-23
4.87074E-02 2.58620E-23
5.06030E-02 2.40088E-23
5.25328E-02 2.23204E-23
5.44967E-02 2.07793E-23
5.64946E-02 1.93703E-23
5.85262E-02 1.80798E-23
6.05914E-02 1.68961E-23
6.26901E-02 1.58085E-23
6.48222E-02 1.48079E-23
6.69873E-02 1.38858E-23
6.91854E-02 1.30350E-23
7.14163E-02 1.22490E-23
7.36799E-02 1.15217E-23
7.59760E-02 1.08480E-23
7.83043E-02 1.02232E-23
8.06647E-02 9.64306E-24
8.30571E-02 9.10370E-24
8.54812E-02 8.60175E-24
8.79369E-02 8.13410E-24
9.04240E-02 7.69795E-24
9.29422E-02 7.29079E-24
9.54915E-02 6.91030E-24
9.80716E-02 6.55439E-24
1.00682E-01 6.22118E-24
1.03323E-01 5.90892E-24
1.05995E-01 5.61606E-24
1.08696E-01 5.34114E-24
1.11427E-01 5.08285E-24
1.14188E-01 4.83999E-24
1.16978E-01 4.61147E-24
1.19797E-01 4.39626E-24
1.22645E-01 4.19344E-24
1.25522E-01 4.00216E-24
1.28428E-01 3.82163E-24
1.31361E-01 3.65114E-24
1.34323E-01 3.49001E-24
1.37313E-01 3.33763E-24
1.40330E-01 3.19343E-24
1.43375E-01 3.05689E-24
1.46447E-01 2.92752E-24
1.49545E-01 2.80487E-24
1.52671E-01 2.68852E-24
1.55823E-01 2.57809E-24
1.59001E-01 2.47322E-24
1.62205E-01 2.37357E-24
1.65435E-01 2.27884E-24
1.68690E-01 2.18873E-24
1.71970E-01 2.10297E-24
1.75276E-01 2.02131E-24
1.78606E-01 1.94352E-24
1.81961E-01 1.86938E-24
1.85340E-01 1.79869E-24
1.88743E-01 1.73125E-24
1.92169E-01 1.66688E-24
1.95619E-01 1.60543E-24
1.99092E-01 1.54672E-24
2.02589E-01 1.49062E-24
2.06107E-01 1.43699E-24
2.09649E-01 1.38569E-24
2.13212E-01 1.33661E-24
2.16797E-01 1.28963E-24
2.20404E-01 1.24464E-24
2.24032E-01 1.20155E-24
2.27680E-01 1.16026E-24
2.31350E-01 1.12067E-24
2.35040E-01 1.08271E-24
2.38751E-01 1.04630E-24
2.42481E-01 1.01136E-24
2.46231E-01 9.77814E-25
2.50000E-01 9.45605E-25
2.53788E-01 9.14666E-25
2.57595E-01 8.84938E-25
2.61421E-01 8.56364E-25
2.65264E-01 8.28892E-25
2.69126E-01 8.02470E-25
2.73005E-01 7.77052E-25
2.76901E-01 7.52591E-25
2.80814E-01 7.29045E-25
2.84744E-01 7.06374E-25
2.88691E-01 6.84538E-25
2.92653E-01 6.63502E-25
2.96632E-01 6.43230E-25
3.00625E-01 6.23691E-25
3.04634E-01 6.04851E-25
3.08658E-01 5.86683E-25
3.12697E-01 5.69156E-25
3.16749E-01 5.52246E-25
3.20816E-01 5.35925E-25
3.24896E-01 5.20170E-25
3.28990E-01 5.04957E-25
3.33097E-01 4.90265E-25
3.37216E-01 4.76072E-25
3.41348E-01 4.62359E-25
3.45492E-01 4.49105E-25
3.49647E-01 4.36294E-25
3.53814E-01 4.23907E-25
3.57992E-01 4.11929E-25
3.62181E-01 4.00342E-25
3.66381E-01 3.89133E-25
3.70590E-01 3.78286E-25
3.74810E-01 3.67787E-25
3.79039E-01 3.57625E-25
3.83277E-01 3.47785E-25
3.87524E-01 3.38257E-25
3.91780E-01 3.29027E-25
3.96044E-01 3.20086E-25
4.00316E-01 3.11423E-25
4.04596E-01 3.03027E-25
4.08882E-01 2.94889E-25
4.13176E-01 2.87000E-25
4.17476E-01 2.79351E-25
4.21783E-01 2.71933E-25
4.26095E-01 2.64737E-25
4.30413E-01 2.57757E-25
4.34737E-01 2.50985E-25
4.39065E-01 2.44412E-25
4.43398E-01 2.38034E-25
4.47736E-01 2.31842E-25
4.52077E-01 2.25831E-25
4.56422E-01 2.19993E-25
4.60770E-01 2.14325E-25
4.65122E-01 2.08819E-25
4.69476E-01 2.03470E-25
4.73832E-01 1.98273E-25
4.78190E-01 1.93224E-25
4.82550E-01 1.88316E-25
4.86912E-01 1.83547E-25
4.91274E-01 1.78910E-25
4.95637E-01 1.74402E-25
5.00000E-01 1.70018E-25
5.04363E-01 1.65755E-25
5.08726E-01 1.61609E-25
5.13088E-01 1.57576E-25
5.17450E-01 1.53652E-25
5.21810E-01 1.49834E-25
5.26168E-01 1.46120E-25
5.30524E-01 1.42504E-25
5.34878E-01 1.38985E-25
5.39230E-01 1.35560E-25
5.43578E-01 1.32225E-25
5.47923E-01 1.28978E-25
5.52264E-01 1.25816E-25
5.56602E-01 1.22737E-25
5.60935E-01 1.19737E-25
5.65263E-01 1.16816E-25
5.69587E-01 1.13970E-25
5.73905E-01 1.11197E-25
5.78217E-01 1.08495E-25
5.82524E-01 1.05862E-25
5.86824E-01 1.03296E-25
5.91118E-01 1.00795E-25
5.95404E-01 9.83572E-26
5.99684E-01 9.59805E-26
6.03956E-01 9.36633E-26
6.08220E-01 9.14039E-26
6.12476E-01 8.92006E-26
6.16723E-01 8.70519E-26
6.20961E-01 8.49563E-26
6.25190E-01 8.29122E-26
6.29410E-01 8.09182E-26
6.33619E-01 7.89729E-26
6.37819E-01 7.70750E-26
6.42008E-01 7.52231E-26
6.46186E-01 7.34160E-26
6.50353E-01 7.16524E-26
6.54508E-01 6.99313E-26
6.58652E-01 6.82513E-26
6.62784E-01 6.66115E-26
6.66903E-01 6.50107E-26
6.71010E-01 6.34479E-26
6.75104E-01 6.19221E-26
6.79184E-01 6.04322E-26
6.83251E-01 5.89774E-26
6.87303E-01 5.75567E-26
6.91342E-01 5.61693E-26
6.95366E-01 5.48142E-26
6.99375E-01 5.34906E-26
7.03368E-01 5.21977E-26
7.07347E-01 5.09347E-26
7.11309E-01 4.97008E-26
7.15256E-01 4.84954E-26
7.19186E-01 4.73176E-26
7.23099E-01 4.61668E-26
7.26995E-01 4.50422E-26
7.30874E-01 4.39433E-26
7.34736E-01 4.28694E-26
7.38579E-01 4.18198E-26
7.42405E-01 4.07940E-26
7.46212E-01 3.97913E-26
7.50000E-01 3.88113E-26
7.53769E-01 3.78533E-26
7.57519E-01 3.69167E-26
7.61249E-01 3.60012E-26
7.64960E-01 3.51061E-26
7.68650E-01 3.42310E-26
7.72320E-01 3.33754E-26
7.75968E-01 3.25388E-26
7.79596E-01 3.17208E-26
7.83203E-01 3.09209E-26
7.86788E-01 3.01387E-26
7.90351E-01 2.93738E-26
7.93893E-01 2.86257E-26
7.97411E-01 2.78942E-26
8.00908E-01 2.71788E-26
8.04381E-01 2.64791E-26
8.07831E-01 2.57947E-26
8.11257E-01 2.51254E-26
8.14660E-01 2.44707E-26
8.18039E-01 2.38304E-26
8.21394E-01 2.32041E-26
8.24724E-01 2.25914E-26
8.28030E-01 2.19922E-26
8.31310E-01 2.14061E-26
8.34565E-01 2.08327E-26
8.37795E-01 2.02719E-26
8.40999E-01 1.97233E-26
8.44177E-01 1.91866E-26
8.47329E-01 1.86617E-26
8.50455E-01 1.81483E-26
8.53553E-01 1.76460E-26
8.56625E-01 1.71547E-26
8.59670E-01 1.66742E-26
8.62687E-01 1.62041E-26
8.65677E-01 1.57443E-26
8.68639E-01 1.52946E-26
8.71572E-01 1.48548E-26
8.74478E-01 1.44245E-26
8.77355E-01 1.40038E-26
8.80203E-01 1.35923E-26
8.83022E-01 1.31898E-26
8.85812E-01 1.27963E-26
8.88573E-01 1.24114E-26
8.91304E-01 1.20351E-26
8.94005E-01 1.16671E-26
8.96677E-01 1.13073E-26
8.99318E-01 1.09555E-26
9.01928E-01 1.06116E-26
9.04508E-01 1.02755E-26
9.07058E-01 9.94685E-27
9.09576E-01 9.62567E-27
9.12063E-01 9.31177E-27
9.14519E-01 9.00501E-27
9.16943E-01 8.70526E-27
9.19335E-01 8.41239E-27
9.21696E-01 8.12628E-27
9.24024E-01 7.84680E-27
9.26320E-01 7.57382E-27
9.28584E-01 7.30724E-27
9.30815E-01 7.04694E-27
9.33013E-01 6.79280E-27
9.35178E-01 6.54472E-27
9.37310E-01 6.30260E-27
9.39409E-01 6.06633E-27
9.41474E-01 5.83582E-27
9.43505E-01 5.61096E-27
9.45503E-01 5.39166E-27
9.47467E-01 5.17784E-27
9.49397E-01 4.96939E-27
9.51293E-01 4.76625E-27
9.53154E-01 4.56831E-27
9.54981E-01 4.37551E-27
9.56773E-01 4.18776E-27
9.58530E-01 4.00498E-27
9.60252E-01 3.82711E-27
9.61940E-01 3.65406E-27
9.63592E-01 3.48577E-27
9.65209E-01 3.32217E-27
9.66790E-01 3.16319E-27
9.68336E-01 3.00877E-27
9.69846E-01 2.85885E-27
9.71321E-01 2.71337E-27
9.72759E-01 2.57226E-27
9.74162E-01 2.43548E-27
9.75528E-01 2.30296E-27
9.76858E-01 2.17466E-27
9.78152E-01 2.05053E-27
9.79410E-01 1.93051E-27
9.80631E-01 1.81456E-27
9.81815E-01 1.70263E-27
9.82963E-01 1.59468E-27
9.84074E-01 1.49066E-27
9.85148E-01 1.39054E-27
9.86185E-01 1.29427E-27
9.87185E-01 1.20182E-27
9.88148E-01 1.11316E-27
9.89074E-01 1.02824E-27
9.89962E-01 9.47031E-28
9.90814E-01 8.69507E-28
9.91627E-01 7.95636E-28
9.92404E-01 7.25388E-28
9.93143E-01 6.58737E-28
9.93844E-01 5.95657E-28
9.94508E-01 5.36123E-28
9.95134E-01 4.80112E-28
9.95722E-01 4.27603E-28
9.96273E-01 3.78575E-28
9.96786E-01 3.33010E-28
9.97261E-01 2.90889E-28
9.97698E-01 2.52198E-28
9.98097E-01 2.16921E-28
9.98459E-01 1.85043E-28
9.98782E-01 1.56555E-28
9.99067E-01 1.31443E-28
9.99315E-01 1.09699E-28
9.99524E-01 9.13144E-29
9.99695E-01 7.62820E-29
9.99829E-01 6.45961E-29
9.99924E-01 5.62522E-29
9.99981E-01 5.12472E-29
1.00000E+00 4.95789E-29
