 #
 # Subroutine ELSEPA. Elastic scattering of electrons and positrons
 #                    by neutral atoms and positive ions
 #
 # Projectile: electron
 # Kinetic energy = 5.00000E+06 eV = 1.83747E+05 a.u.
 #
 # WARNING: High-energy factorization with free-atom DF screening.
 #          Absorption, polarization and exchange corrections are
 #          switched off.
 #          Phase shifts are calculated for the bare nucleus.
 #          Scattering amplitudes are not evaluated.
 #
 # Element: In,  Z =  49,  atomic weight = 1.14818E+02 g/mol
 #
 # Nuclear model: Fermi distribution
 #                Average radius = 5.20060E-13 cm
 #                Skin thickness = 5.46000E-14 cm
 #
 # Number of electrons = 49
 #
 # Total elastic cross section = 4.87596E-18 cm**2 = 1.74124E-01 a0**2
 # 1st transport cross section = 1.27562E-22 cm**2 = 4.55533E-06 a0**2
 # 2nd transport cross section = 3.56027E-22 cm**2 = 1.27139E-05 a0**2
 #
 #
 # Differential cross section:                       MU=(1-COS(THETA))/2
 #
 #  THETA        MU          DCS          DCS        Sherman      error
 #  (deg)                 (cm**2/sr)   (a0**2/sr)    function
 #----------------------------------------------------------------------
0.00000E+00 1.25906E-12
7.61557E-13 1.25905E-12
1.18994E-12 1.25904E-12
1.71346E-12 1.25904E-12
2.33225E-12 1.25903E-12
3.04617E-12 1.25902E-12
3.85530E-12 1.25901E-12
4.75964E-12 1.25899E-12
5.75917E-12 1.25898E-12
6.85391E-12 1.25896E-12
8.04379E-12 1.25894E-12
9.32893E-12 1.25893E-12
1.07092E-11 1.25891E-12
1.21847E-11 1.25888E-12
1.37554E-11 1.25886E-12
1.54213E-11 1.25884E-12
1.71823E-11 1.25881E-12
1.90386E-11 1.25878E-12
2.09900E-11 1.25876E-12
2.30367E-11 1.25873E-12
2.51785E-11 1.25869E-12
2.74156E-11 1.25866E-12
2.97478E-11 1.25863E-12
3.21752E-11 1.25859E-12
3.46979E-11 1.25856E-12
3.73157E-11 1.25852E-12
4.00286E-11 1.25848E-12
4.28368E-11 1.25844E-12
4.57402E-11 1.25840E-12
4.87388E-11 1.25835E-12
5.18325E-11 1.25831E-12
5.50215E-11 1.25826E-12
5.83057E-11 1.25821E-12
6.16850E-11 1.25816E-12
6.51595E-11 1.25811E-12
6.87293E-11 1.25806E-12
7.23943E-11 1.25801E-12
7.61544E-11 1.25795E-12
1.18991E-10 1.25733E-12
1.71347E-10 1.25657E-12
2.33223E-10 1.25567E-12
3.04617E-10 1.25463E-12
3.85531E-10 1.25346E-12
4.75965E-10 1.25216E-12
5.75917E-10 1.25071E-12
6.85389E-10 1.24914E-12
8.04380E-10 1.24743E-12
9.32891E-10 1.24559E-12
1.07092E-09 1.24362E-12
1.21847E-09 1.24152E-12
1.37554E-09 1.23929E-12
1.54213E-09 1.23693E-12
1.71823E-09 1.23445E-12
1.90386E-09 1.23184E-12
2.09900E-09 1.22911E-12
2.30367E-09 1.22626E-12
2.51785E-09 1.22329E-12
2.74156E-09 1.22020E-12
2.97478E-09 1.21699E-12
3.21752E-09 1.21367E-12
3.46978E-09 1.21024E-12
3.73156E-09 1.20670E-12
4.00286E-09 1.20304E-12
4.28368E-09 1.19928E-12
4.57402E-09 1.19542E-12
4.87388E-09 1.19145E-12
5.18326E-09 1.18738E-12
5.50215E-09 1.18321E-12
5.83057E-09 1.17895E-12
6.16850E-09 1.17459E-12
6.51596E-09 1.17014E-12
6.87293E-09 1.16559E-12
7.23942E-09 1.16096E-12
7.61544E-09 1.15625E-12
1.18991E-08 1.10491E-12
1.71347E-08 1.04757E-12
2.33223E-08 9.86517E-13
3.04617E-08 9.23793E-13
3.85531E-08 8.61130E-13
4.75965E-08 7.99894E-13
5.75917E-08 7.41091E-13
6.85389E-08 6.85398E-13
8.04380E-08 6.33221E-13
9.32891E-08 5.84745E-13
1.07092E-07 5.39993E-13
1.21847E-07 4.98871E-13
1.37554E-07 4.61211E-13
1.54213E-07 4.26794E-13
1.71823E-07 3.95382E-13
1.90386E-07 3.66728E-13
2.09900E-07 3.40586E-13
2.30367E-07 3.16724E-13
2.51785E-07 2.94924E-13
2.74156E-07 2.74982E-13
2.97478E-07 2.56716E-13
3.21752E-07 2.39959E-13
3.46978E-07 2.24560E-13
3.73156E-07 2.10386E-13
4.00286E-07 1.97318E-13
4.28368E-07 1.85247E-13
4.57402E-07 1.74080E-13
4.87388E-07 1.63732E-13
5.18325E-07 1.54128E-13
5.50215E-07 1.45202E-13
5.83057E-07 1.36893E-13
6.16850E-07 1.29148E-13
6.51596E-07 1.21922E-13
6.87293E-07 1.15169E-13
7.23942E-07 1.08854E-13
7.61543E-07 1.02941E-13
1.18991E-06 6.03998E-14
1.71347E-06 3.68488E-14
2.33223E-06 2.33372E-14
3.04617E-06 1.53658E-14
3.85531E-06 1.05201E-14
4.75964E-06 7.47321E-15
5.75916E-06 5.48627E-15
6.85388E-06 4.14202E-15
8.04378E-06 3.20024E-15
9.32888E-06 2.51936E-15
1.07092E-05 2.01355E-15
1.21846E-05 1.62923E-15
1.37553E-05 1.33180E-15
1.54212E-05 1.09816E-15
1.71822E-05 9.12442E-16
1.90385E-05 7.63356E-16
2.09899E-05 6.42693E-16
2.30365E-05 5.44338E-16
2.51783E-05 4.63657E-16
2.74153E-05 3.97086E-16
2.97475E-05 3.41853E-16
3.21749E-05 2.95783E-16
3.46974E-05 2.57159E-16
3.73152E-05 2.24613E-16
4.00281E-05 1.97053E-16
4.28362E-05 1.73605E-16
4.57395E-05 1.53560E-16
4.87380E-05 1.36348E-16
5.18317E-05 1.21501E-16
5.50205E-05 1.08641E-16
5.83045E-05 9.74564E-17
6.16838E-05 8.76901E-17
6.51582E-05 7.91302E-17
6.87277E-05 7.16008E-17
7.23925E-05 6.49550E-17
7.61524E-05 5.90702E-17
9.21439E-05 4.12962E-17
1.09658E-04 2.97548E-17
1.28695E-04 2.19820E-17
1.49255E-04 1.65867E-17
1.71338E-04 1.27457E-17
1.94942E-04 9.95124E-18
2.20070E-04 7.87967E-18
2.46720E-04 6.31836E-18
2.74892E-04 5.12414E-18
3.04586E-04 4.19853E-18
3.35803E-04 3.47243E-18
3.68542E-04 2.89656E-18
4.02802E-04 2.43521E-18
4.38585E-04 2.06219E-18
4.75889E-04 1.75799E-18
5.14715E-04 1.50794E-18
5.55063E-04 1.30089E-18
5.96931E-04 1.12825E-18
6.40321E-04 9.83401E-19
6.85233E-04 8.61128E-19
7.31665E-04 7.57337E-19
7.79618E-04 6.68770E-19
8.29092E-04 5.92821E-19
8.80086E-04 5.27390E-19
9.32601E-04 4.70773E-19
9.86636E-04 4.21580E-19
1.04219E-03 3.78671E-19
1.09927E-03 3.41105E-19
1.15786E-03 3.08100E-19
1.21797E-03 2.79007E-19
1.27961E-03 2.53281E-19
1.34276E-03 2.30463E-19
1.40743E-03 2.10168E-19
1.47362E-03 1.92067E-19
1.54133E-03 1.75880E-19
1.61056E-03 1.61370E-19
1.68131E-03 1.48331E-19
1.75357E-03 1.36588E-19
1.82735E-03 1.25988E-19
1.90265E-03 1.16402E-19
1.97947E-03 1.07713E-19
2.05780E-03 9.98233E-20
2.13765E-03 9.26458E-20
2.21902E-03 8.61045E-20
2.30190E-03 8.01327E-20
2.38630E-03 7.46719E-20
2.47222E-03 6.96704E-20
2.55965E-03 6.50824E-20
2.64859E-03 6.08676E-20
2.73905E-03 5.69899E-20
2.83103E-03 5.34176E-20
2.92452E-03 5.01220E-20
3.01952E-03 4.70779E-20
3.11604E-03 4.42624E-20
3.21407E-03 4.16553E-20
3.31362E-03 3.92383E-20
3.41468E-03 3.69949E-20
3.51725E-03 3.49103E-20
3.62133E-03 3.29713E-20
3.72692E-03 3.11657E-20
3.83403E-03 2.94827E-20
3.94265E-03 2.79124E-20
4.05278E-03 2.64457E-20
4.16442E-03 2.50747E-20
4.27757E-03 2.37919E-20
4.39223E-03 2.25906E-20
4.50840E-03 2.14646E-20
4.62608E-03 2.04082E-20
4.74527E-03 1.94165E-20
4.86597E-03 1.84846E-20
4.98817E-03 1.76083E-20
5.11188E-03 1.67837E-20
5.23711E-03 1.60070E-20
5.36383E-03 1.52751E-20
5.49207E-03 1.45848E-20
5.62181E-03 1.39333E-20
5.75306E-03 1.33181E-20
5.88581E-03 1.27366E-20
6.02007E-03 1.21868E-20
6.15583E-03 1.16665E-20
6.29310E-03 1.11739E-20
6.43187E-03 1.07072E-20
6.57214E-03 1.02649E-20
6.71392E-03 9.84525E-21
6.85720E-03 9.44703E-21
7.00198E-03 9.06890E-21
7.14827E-03 8.70964E-21
7.29605E-03 8.36814E-21
7.44534E-03 8.04335E-21
7.59612E-03 7.73429E-21
7.97965E-03 7.02466E-21
8.37255E-03 6.39522E-21
8.77480E-03 5.83529E-21
9.18641E-03 5.33582E-21
9.60736E-03 4.88913E-21
1.00376E-02 4.48862E-21
1.04773E-02 4.12867E-21
1.09262E-02 3.80442E-21
1.13844E-02 3.51168E-21
1.18520E-02 3.24684E-21
1.23288E-02 3.00675E-21
1.28150E-02 2.78867E-21
1.33104E-02 2.59022E-21
1.38150E-02 2.40929E-21
1.43290E-02 2.24406E-21
1.48521E-02 2.09291E-21
1.53845E-02 1.95442E-21
1.59262E-02 1.82733E-21
1.64770E-02 1.71052E-21
1.70371E-02 1.60301E-21
1.76063E-02 1.50391E-21
1.81848E-02 1.41245E-21
1.87724E-02 1.32792E-21
1.93692E-02 1.24971E-21
1.99751E-02 1.17724E-21
2.05901E-02 1.11001E-21
2.12143E-02 1.04758E-21
2.18476E-02 9.89536E-22
2.24900E-02 9.35513E-22
2.31415E-02 8.85172E-22
2.38021E-02 8.38224E-22
2.44717E-02 7.94385E-22
2.51504E-02 7.53420E-22
2.58382E-02 7.15096E-22
2.65349E-02 6.79215E-22
2.72407E-02 6.45588E-22
2.79555E-02 6.14046E-22
2.86793E-02 5.84437E-22
2.94120E-02 5.56617E-22
3.01537E-02 5.30458E-22
3.09043E-02 5.05840E-22
3.16639E-02 4.82656E-22
3.24324E-02 4.60805E-22
3.32098E-02 4.40196E-22
3.39961E-02 4.20745E-22
3.47912E-02 4.02372E-22
3.55952E-02 3.85007E-22
3.64081E-02 3.68584E-22
3.72297E-02 3.53041E-22
3.80602E-02 3.38322E-22
3.88995E-02 3.24374E-22
3.97476E-02 3.11149E-22
4.06044E-02 2.98602E-22
4.14700E-02 2.86691E-22
4.23443E-02 2.75378E-22
4.32273E-02 2.64627E-22
4.41190E-02 2.54404E-22
4.50194E-02 2.44678E-22
4.59284E-02 2.35420E-22
4.68461E-02 2.26603E-22
4.87074E-02 2.10192E-22
5.06030E-02 1.95264E-22
5.25328E-02 1.81658E-22
5.44967E-02 1.69236E-22
5.64946E-02 1.57874E-22
5.85262E-02 1.47466E-22
6.05914E-02 1.37914E-22
6.26901E-02 1.29135E-22
6.48222E-02 1.21055E-22
6.69873E-02 1.13607E-22
6.91854E-02 1.06732E-22
7.14163E-02 1.00377E-22
7.36799E-02 9.44959E-23
7.59760E-02 8.90455E-23
7.83043E-02 8.39882E-23
8.06647E-02 7.92903E-23
8.30571E-02 7.49211E-23
8.54812E-02 7.08531E-23
8.79369E-02 6.70616E-23
9.04240E-02 6.35239E-23
9.29422E-02 6.02196E-23
9.54915E-02 5.71303E-23
9.80716E-02 5.42392E-23
1.00682E-01 5.15310E-23
1.03323E-01 4.89920E-23
1.05995E-01 4.66095E-23
1.08696E-01 4.43718E-23
1.11427E-01 4.22683E-23
1.14188E-01 4.02894E-23
1.16978E-01 3.84262E-23
1.19797E-01 3.66706E-23
1.22645E-01 3.50152E-23
1.25522E-01 3.34532E-23
1.28428E-01 3.19780E-23
1.31361E-01 3.05840E-23
1.34323E-01 2.92658E-23
1.37313E-01 2.80183E-23
1.40330E-01 2.68372E-23
1.43375E-01 2.57180E-23
1.46447E-01 2.46570E-23
1.49545E-01 2.36505E-23
1.52671E-01 2.26951E-23
1.55823E-01 2.17876E-23
1.59001E-01 2.09252E-23
1.62205E-01 2.01052E-23
1.65435E-01 1.93252E-23
1.68690E-01 1.85827E-23
1.71970E-01 1.78755E-23
1.75276E-01 1.72017E-23
1.78606E-01 1.65594E-23
1.81961E-01 1.59467E-23
1.85340E-01 1.53621E-23
1.88743E-01 1.48040E-23
1.92169E-01 1.42709E-23
1.95619E-01 1.37616E-23
1.99092E-01 1.32746E-23
2.02589E-01 1.28089E-23
2.06107E-01 1.23633E-23
2.09649E-01 1.19368E-23
2.13212E-01 1.15284E-23
2.16797E-01 1.11372E-23
2.20404E-01 1.07623E-23
2.24032E-01 1.04029E-23
2.27680E-01 1.00581E-23
2.31350E-01 9.72739E-24
2.35040E-01 9.40995E-24
2.38751E-01 9.10519E-24
2.42481E-01 8.81249E-24
2.46231E-01 8.53128E-24
2.50000E-01 8.26100E-24
2.53788E-01 8.00115E-24
2.57595E-01 7.75123E-24
2.61421E-01 7.51080E-24
2.65264E-01 7.27944E-24
2.69126E-01 7.05672E-24
2.73005E-01 6.84227E-24
2.76901E-01 6.63570E-24
2.80814E-01 6.43666E-24
2.84744E-01 6.24483E-24
2.88691E-01 6.05989E-24
2.92653E-01 5.88155E-24
2.96632E-01 5.70954E-24
3.00625E-01 5.54358E-24
3.04634E-01 5.38341E-24
3.08658E-01 5.22878E-24
3.12697E-01 5.07946E-24
3.16749E-01 4.93524E-24
3.20816E-01 4.79591E-24
3.24896E-01 4.66128E-24
3.28990E-01 4.53116E-24
3.33097E-01 4.40537E-24
3.37216E-01 4.28371E-24
3.41348E-01 4.16601E-24
3.45492E-01 4.05214E-24
3.49647E-01 3.94199E-24
3.53814E-01 3.83538E-24
3.57992E-01 3.73215E-24
3.62181E-01 3.63219E-24
3.66381E-01 3.53537E-24
3.70590E-01 3.44158E-24
3.74810E-01 3.35071E-24
3.79039E-01 3.26266E-24
3.83277E-01 3.17730E-24
3.87524E-01 3.09455E-24
3.91780E-01 3.01431E-24
3.96044E-01 2.93647E-24
4.00316E-01 2.86098E-24
4.04596E-01 2.78773E-24
4.08882E-01 2.71665E-24
4.13176E-01 2.64766E-24
4.17476E-01 2.58069E-24
4.21783E-01 2.51567E-24
4.26095E-01 2.45252E-24
4.30413E-01 2.39119E-24
4.34737E-01 2.33162E-24
4.39065E-01 2.27374E-24
4.43398E-01 2.21749E-24
4.47736E-01 2.16283E-24
4.52077E-01 2.10969E-24
4.56422E-01 2.05803E-24
4.60770E-01 2.00780E-24
4.65122E-01 1.95895E-24
4.69476E-01 1.91144E-24
4.73832E-01 1.86522E-24
4.78190E-01 1.82025E-24
4.82550E-01 1.77650E-24
4.86912E-01 1.73391E-24
4.91274E-01 1.69246E-24
4.95637E-01 1.65211E-24
5.00000E-01 1.61283E-24
5.04363E-01 1.57457E-24
5.08726E-01 1.53732E-24
5.13088E-01 1.50104E-24
5.17450E-01 1.46569E-24
5.21810E-01 1.43125E-24
5.26168E-01 1.39770E-24
5.30524E-01 1.36500E-24
5.34878E-01 1.33314E-24
5.39230E-01 1.30207E-24
5.43578E-01 1.27179E-24
5.47923E-01 1.24227E-24
5.52264E-01 1.21349E-24
5.56602E-01 1.18541E-24
5.60935E-01 1.15804E-24
5.65263E-01 1.13133E-24
5.69587E-01 1.10528E-24
5.73905E-01 1.07987E-24
5.78217E-01 1.05507E-24
5.82524E-01 1.03087E-24
5.86824E-01 1.00725E-24
5.91118E-01 9.84204E-25
5.95404E-01 9.61705E-25
5.99684E-01 9.39741E-25
6.03956E-01 9.18298E-25
6.08220E-01 8.97360E-25
6.12476E-01 8.76914E-25
6.16723E-01 8.56947E-25
6.20961E-01 8.37445E-25
6.25190E-01 8.18396E-25
6.29410E-01 7.99789E-25
6.33619E-01 7.81611E-25
6.37819E-01 7.63850E-25
6.42008E-01 7.46495E-25
6.46186E-01 7.29536E-25
6.50353E-01 7.12962E-25
6.54508E-01 6.96764E-25
6.58652E-01 6.80931E-25
6.62784E-01 6.65454E-25
6.66903E-01 6.50324E-25
6.71010E-01 6.35532E-25
6.75104E-01 6.21069E-25
6.79184E-01 6.06928E-25
6.83251E-01 5.93099E-25
6.87303E-01 5.79575E-25
6.91342E-01 5.66349E-25
6.95366E-01 5.53413E-25
6.99375E-01 5.40759E-25
7.03368E-01 5.28381E-25
7.07347E-01 5.16272E-25
7.11309E-01 5.04426E-25
7.15256E-01 4.92836E-25
7.19186E-01 4.81495E-25
7.23099E-01 4.70398E-25
7.26995E-01 4.59539E-25
7.30874E-01 4.48912E-25
7.34736E-01 4.38512E-25
7.38579E-01 4.28334E-25
7.42405E-01 4.18371E-25
7.46212E-01 4.08619E-25
7.50000E-01 3.99074E-25
7.53769E-01 3.89730E-25
7.57519E-01 3.80582E-25
7.61249E-01 3.71627E-25
7.64960E-01 3.62859E-25
7.68650E-01 3.54275E-25
7.72320E-01 3.45870E-25
7.75968E-01 3.37640E-25
7.79596E-01 3.29582E-25
7.83203E-01 3.21691E-25
7.86788E-01 3.13963E-25
7.90351E-01 3.06396E-25
7.93893E-01 2.98985E-25
7.97411E-01 2.91728E-25
8.00908E-01 2.84620E-25
8.04381E-01 2.77659E-25
8.07831E-01 2.70841E-25
8.11257E-01 2.64164E-25
8.14660E-01 2.57623E-25
8.18039E-01 2.51218E-25
8.21394E-01 2.44943E-25
8.24724E-01 2.38798E-25
8.28030E-01 2.32778E-25
8.31310E-01 2.26882E-25
8.34565E-01 2.21107E-25
8.37795E-01 2.15450E-25
8.40999E-01 2.09910E-25
8.44177E-01 2.04483E-25
8.47329E-01 1.99167E-25
8.50455E-01 1.93960E-25
8.53553E-01 1.88860E-25
8.56625E-01 1.83865E-25
8.59670E-01 1.78973E-25
8.62687E-01 1.74181E-25
8.65677E-01 1.69488E-25
8.68639E-01 1.64892E-25
8.71572E-01 1.60390E-25
8.74478E-01 1.55982E-25
8.77355E-01 1.51665E-25
8.80203E-01 1.47438E-25
8.83022E-01 1.43299E-25
8.85812E-01 1.39246E-25
8.88573E-01 1.35278E-25
8.91304E-01 1.31393E-25
8.94005E-01 1.27589E-25
8.96677E-01 1.23866E-25
8.99318E-01 1.20221E-25
9.01928E-01 1.16654E-25
9.04508E-01 1.13162E-25
9.07058E-01 1.09746E-25
9.09576E-01 1.06402E-25
9.12063E-01 1.03131E-25
9.14519E-01 9.99302E-26
9.16943E-01 9.67992E-26
9.19335E-01 9.37367E-26
9.21696E-01 9.07414E-26
9.24024E-01 8.78124E-26
9.26320E-01 8.49485E-26
9.28584E-01 8.21487E-26
9.30815E-01 7.94119E-26
9.33013E-01 7.67371E-26
9.35178E-01 7.41235E-26
9.37310E-01 7.15699E-26
9.39409E-01 6.90756E-26
9.41474E-01 6.66396E-26
9.43505E-01 6.42610E-26
9.45503E-01 6.19390E-26
9.47467E-01 5.96728E-26
9.49397E-01 5.74615E-26
9.51293E-01 5.53045E-26
9.53154E-01 5.32008E-26
9.54981E-01 5.11499E-26
9.56773E-01 4.91509E-26
9.58530E-01 4.72032E-26
9.60252E-01 4.53061E-26
9.61940E-01 4.34590E-26
9.63592E-01 4.16611E-26
9.65209E-01 3.99119E-26
9.66790E-01 3.82109E-26
9.68336E-01 3.65573E-26
9.69846E-01 3.49506E-26
9.71321E-01 3.33904E-26
9.72759E-01 3.18760E-26
9.74162E-01 3.04069E-26
9.75528E-01 2.89827E-26
9.76858E-01 2.76029E-26
9.78152E-01 2.62669E-26
9.79410E-01 2.49745E-26
9.80631E-01 2.37250E-26
9.81815E-01 2.25181E-26
9.82963E-01 2.13535E-26
9.84074E-01 2.02307E-26
9.85148E-01 1.91493E-26
9.86185E-01 1.81089E-26
9.87185E-01 1.71094E-26
9.88148E-01 1.61502E-26
9.89074E-01 1.52311E-26
9.89962E-01 1.43518E-26
9.90814E-01 1.35120E-26
9.91627E-01 1.27114E-26
9.92404E-01 1.19498E-26
9.93143E-01 1.12269E-26
9.93844E-01 1.05425E-26
9.94508E-01 9.89629E-27
9.95134E-01 9.28815E-27
9.95722E-01 8.71784E-27
9.96273E-01 8.18519E-27
9.96786E-01 7.69002E-27
9.97261E-01 7.23218E-27
9.97698E-01 6.81150E-27
9.98097E-01 6.42786E-27
9.98459E-01 6.08113E-27
9.98782E-01 5.77120E-27
9.99067E-01 5.49796E-27
9.99315E-01 5.26134E-27
9.99524E-01 5.06125E-27
9.99695E-01 4.89762E-27
9.99829E-01 4.77042E-27
9.99924E-01 4.67958E-27
9.99981E-01 4.62510E-27
1.00000E+00 4.60693E-27
