 #
 # Subroutine ELSEPA. Elastic scattering of electrons and positrons
 #                    by neutral atoms and positive ions
 #
 # Projectile: electron
 # Kinetic energy = 7.00000E+06 eV = 2.57245E+05 a.u.
 #
 # WARNING: High-energy factorization with free-atom DF screening.
 #          Absorption, polarization and exchange corrections are
 #          switched off.
 #          Phase shifts are calculated for the bare nucleus.
 #          Scattering amplitudes are not evaluated.
 #
 # Element: In,  Z =  49,  atomic weight = 1.14818E+02 g/mol
 #
 # Nuclear model: Fermi distribution
 #                Average radius = 5.20060E-13 cm
 #                Skin thickness = 5.46000E-14 cm
 #
 # Number of electrons = 49
 #
 # Total elastic cross section = 4.84740E-18 cm**2 = 1.73104E-01 a0**2
 # 1st transport cross section = 7.14065E-23 cm**2 = 2.54997E-06 a0**2
 # 2nd transport cross section = 2.00242E-22 cm**2 = 7.15076E-06 a0**2
 #
 #
 # Differential cross section:                       MU=(1-COS(THETA))/2
 #
 #  THETA        MU          DCS          DCS        Sherman      error
 #  (deg)                 (cm**2/sr)   (a0**2/sr)    function
 #----------------------------------------------------------------------
0.00000E+00 2.33874E-12
7.61557E-13 2.33870E-12
1.18994E-12 2.33868E-12
1.71346E-12 2.33865E-12
2.33225E-12 2.33862E-12
3.04617E-12 2.33858E-12
3.85530E-12 2.33854E-12
4.75964E-12 2.33850E-12
5.75917E-12 2.33845E-12
6.85391E-12 2.33839E-12
8.04379E-12 2.33833E-12
9.32893E-12 2.33827E-12
1.07092E-11 2.33820E-12
1.21847E-11 2.33812E-12
1.37554E-11 2.33804E-12
1.54213E-11 2.33796E-12
1.71823E-11 2.33787E-12
1.90386E-11 2.33778E-12
2.09900E-11 2.33768E-12
2.30367E-11 2.33757E-12
2.51785E-11 2.33747E-12
2.74156E-11 2.33735E-12
2.97478E-11 2.33723E-12
3.21752E-11 2.33711E-12
3.46979E-11 2.33698E-12
3.73157E-11 2.33685E-12
4.00286E-11 2.33672E-12
4.28368E-11 2.33657E-12
4.57402E-11 2.33643E-12
4.87388E-11 2.33628E-12
5.18325E-11 2.33612E-12
5.50215E-11 2.33596E-12
5.83057E-11 2.33579E-12
6.16850E-11 2.33562E-12
6.51595E-11 2.33545E-12
6.87293E-11 2.33527E-12
7.23943E-11 2.33508E-12
7.61544E-11 2.33489E-12
1.18991E-10 2.33274E-12
1.71347E-10 2.33010E-12
2.33223E-10 2.32700E-12
3.04617E-10 2.32343E-12
3.85531E-10 2.31940E-12
4.75965E-10 2.31490E-12
5.75917E-10 2.30995E-12
6.85389E-10 2.30456E-12
8.04380E-10 2.29871E-12
9.32891E-10 2.29244E-12
1.07092E-09 2.28573E-12
1.21847E-09 2.27860E-12
1.37554E-09 2.27105E-12
1.54213E-09 2.26309E-12
1.71823E-09 2.25474E-12
1.90386E-09 2.24599E-12
2.09900E-09 2.23686E-12
2.30367E-09 2.22736E-12
2.51785E-09 2.21749E-12
2.74156E-09 2.20727E-12
2.97478E-09 2.19671E-12
3.21752E-09 2.18581E-12
3.46978E-09 2.17459E-12
3.73156E-09 2.16305E-12
4.00286E-09 2.15122E-12
4.28368E-09 2.13906E-12
4.57402E-09 2.12661E-12
4.87388E-09 2.11391E-12
5.18326E-09 2.10097E-12
5.50215E-09 2.08779E-12
5.83057E-09 2.07439E-12
6.16850E-09 2.06078E-12
6.51596E-09 2.04693E-12
6.87293E-09 2.03282E-12
7.23942E-09 2.01853E-12
7.61544E-09 2.00408E-12
1.18991E-08 1.85214E-12
1.71347E-08 1.69314E-12
2.33223E-08 1.53523E-12
3.04617E-08 1.38447E-12
3.85531E-08 1.24405E-12
4.75965E-08 1.11611E-12
5.75917E-08 1.00122E-12
6.85389E-08 8.98595E-13
8.04380E-08 8.07849E-13
9.32891E-08 7.27727E-13
1.07092E-07 6.56939E-13
1.21847E-07 5.94596E-13
1.37554E-07 5.39428E-13
1.54213E-07 4.90553E-13
1.71823E-07 4.47242E-13
1.90386E-07 4.08541E-13
2.09900E-07 3.74007E-13
2.30367E-07 3.43098E-13
2.51785E-07 3.15206E-13
2.74156E-07 2.90112E-13
2.97478E-07 2.67409E-13
3.21752E-07 2.46785E-13
3.46978E-07 2.28082E-13
3.73156E-07 2.11007E-13
4.00286E-07 1.95419E-13
4.28368E-07 1.80207E-13
4.57402E-07 1.66289E-13
4.87388E-07 1.53956E-13
5.18325E-07 1.42989E-13
5.50215E-07 1.33205E-13
5.83057E-07 1.24450E-13
6.16850E-07 1.16592E-13
6.51596E-07 1.08932E-13
6.87293E-07 1.01173E-13
7.23942E-07 9.41973E-14
7.61543E-07 8.79111E-14
1.18991E-06 4.65789E-14
1.71347E-06 2.63934E-14
2.33223E-06 1.60415E-14
3.04617E-06 1.04112E-14
3.85531E-06 7.11383E-15
4.75964E-06 5.06427E-15
5.75916E-06 3.71965E-15
6.85388E-06 2.79156E-15
8.04378E-06 2.13485E-15
9.32888E-06 1.65697E-15
1.07092E-05 1.30184E-15
1.21846E-05 1.03474E-15
1.37553E-05 8.31259E-16
1.54212E-05 6.74664E-16
1.71822E-05 5.52961E-16
1.90385E-05 4.57019E-16
2.09899E-05 3.81152E-16
2.30365E-05 3.20380E-16
2.51783E-05 2.71237E-16
2.74153E-05 2.31232E-16
2.97475E-05 1.98400E-16
3.21749E-05 1.71247E-16
3.46974E-05 1.48641E-16
3.73152E-05 1.29682E-16
4.00281E-05 1.13683E-16
4.28362E-05 1.00064E-16
4.57395E-05 8.84617E-17
4.87380E-05 7.85434E-17
5.18317E-05 6.99357E-17
5.50205E-05 6.24872E-17
5.83045E-05 5.60336E-17
6.16838E-05 5.03575E-17
6.51582E-05 4.53936E-17
6.87277E-05 4.10454E-17
7.23925E-05 3.71809E-17
7.61524E-05 3.37699E-17
9.21439E-05 2.34775E-17
1.09658E-04 1.68036E-17
1.28695E-04 1.23376E-17
1.49255E-04 9.25665E-18
1.71338E-04 7.07729E-18
1.94942E-04 5.50259E-18
2.20070E-04 4.34193E-18
2.46720E-04 3.47177E-18
2.74892E-04 2.80927E-18
3.04586E-04 2.29762E-18
3.35803E-04 1.89751E-18
3.68542E-04 1.58103E-18
4.02802E-04 1.32796E-18
4.38585E-04 1.12369E-18
4.75889E-04 9.57335E-19
5.14715E-04 8.20719E-19
5.55063E-04 7.07703E-19
5.96931E-04 6.13530E-19
6.40321E-04 5.34556E-19
6.85233E-04 4.67928E-19
7.31665E-04 4.11385E-19
7.79618E-04 3.63156E-19
8.29092E-04 3.21811E-19
8.80086E-04 2.86198E-19
9.32601E-04 2.55393E-19
9.86636E-04 2.28633E-19
1.04219E-03 2.05296E-19
1.09927E-03 1.84871E-19
1.15786E-03 1.66930E-19
1.21797E-03 1.51119E-19
1.27961E-03 1.37142E-19
1.34276E-03 1.24747E-19
1.40743E-03 1.13726E-19
1.47362E-03 1.03899E-19
1.54133E-03 9.51134E-20
1.61056E-03 8.72400E-20
1.68131E-03 8.01671E-20
1.75357E-03 7.37986E-20
1.82735E-03 6.80523E-20
1.90265E-03 6.28561E-20
1.97947E-03 5.81482E-20
2.05780E-03 5.38744E-20
2.13765E-03 4.99874E-20
2.21902E-03 4.64460E-20
2.30190E-03 4.32138E-20
2.38630E-03 4.02589E-20
2.47222E-03 3.75534E-20
2.55965E-03 3.50722E-20
2.64859E-03 3.27934E-20
2.73905E-03 3.06974E-20
2.83103E-03 2.87670E-20
2.92452E-03 2.69866E-20
3.01952E-03 2.53424E-20
3.11604E-03 2.38221E-20
3.21407E-03 2.24146E-20
3.31362E-03 2.11101E-20
3.41468E-03 1.98995E-20
3.51725E-03 1.87750E-20
3.62133E-03 1.77291E-20
3.72692E-03 1.67555E-20
3.83403E-03 1.58481E-20
3.94265E-03 1.50016E-20
4.05278E-03 1.42113E-20
4.16442E-03 1.34725E-20
4.27757E-03 1.27815E-20
4.39223E-03 1.21344E-20
4.50840E-03 1.15280E-20
4.62608E-03 1.09593E-20
4.74527E-03 1.04254E-20
4.86597E-03 9.92382E-21
4.98817E-03 9.45225E-21
5.11188E-03 9.00855E-21
5.23711E-03 8.59073E-21
5.36383E-03 8.19704E-21
5.49207E-03 7.82577E-21
5.62181E-03 7.47546E-21
5.75306E-03 7.14464E-21
5.88581E-03 6.83207E-21
6.02007E-03 6.53652E-21
6.15583E-03 6.25690E-21
6.29310E-03 5.99218E-21
6.43187E-03 5.74142E-21
6.57214E-03 5.50374E-21
6.71392E-03 5.27833E-21
6.85720E-03 5.06444E-21
7.00198E-03 4.86134E-21
7.14827E-03 4.66842E-21
7.29605E-03 4.48504E-21
7.44534E-03 4.31066E-21
7.59612E-03 4.14474E-21
7.97965E-03 3.76384E-21
8.37255E-03 3.42604E-21
8.77480E-03 3.12562E-21
9.18641E-03 2.85770E-21
9.60736E-03 2.61812E-21
1.00376E-02 2.40335E-21
1.04773E-02 2.21037E-21
1.09262E-02 2.03655E-21
1.13844E-02 1.87965E-21
1.18520E-02 1.73772E-21
1.23288E-02 1.60907E-21
1.28150E-02 1.49223E-21
1.33104E-02 1.38591E-21
1.38150E-02 1.28900E-21
1.43290E-02 1.20051E-21
1.48521E-02 1.11956E-21
1.53845E-02 1.04540E-21
1.59262E-02 9.77346E-22
1.64770E-02 9.14808E-22
1.70371E-02 8.57251E-22
1.76063E-02 8.04204E-22
1.81848E-02 7.55248E-22
1.87724E-02 7.10006E-22
1.93692E-02 6.68144E-22
1.99751E-02 6.29361E-22
2.05901E-02 5.93388E-22
2.12143E-02 5.59981E-22
2.18476E-02 5.28924E-22
2.24900E-02 5.00019E-22
2.31415E-02 4.73088E-22
2.38021E-02 4.47970E-22
2.44717E-02 4.24520E-22
2.51504E-02 4.02606E-22
2.58382E-02 3.82107E-22
2.65349E-02 3.62915E-22
2.72407E-02 3.44929E-22
2.79555E-02 3.28060E-22
2.86793E-02 3.12225E-22
2.94120E-02 2.97348E-22
3.01537E-02 2.83359E-22
3.09043E-02 2.70195E-22
3.16639E-02 2.57798E-22
3.24324E-02 2.46115E-22
3.32098E-02 2.35096E-22
3.39961E-02 2.24695E-22
3.47912E-02 2.14873E-22
3.55952E-02 2.05589E-22
3.64081E-02 1.96809E-22
3.72297E-02 1.88500E-22
3.80602E-02 1.80632E-22
3.88995E-02 1.73176E-22
3.97476E-02 1.66107E-22
4.06044E-02 1.59401E-22
4.14700E-02 1.53035E-22
4.23443E-02 1.46988E-22
4.32273E-02 1.41242E-22
4.41190E-02 1.35778E-22
4.50194E-02 1.30581E-22
4.59284E-02 1.25633E-22
4.68461E-02 1.20921E-22
4.87074E-02 1.12152E-22
5.06030E-02 1.04176E-22
5.25328E-02 9.69061E-23
5.44967E-02 9.02692E-23
5.64946E-02 8.41996E-23
5.85262E-02 7.86392E-23
6.05914E-02 7.35371E-23
6.26901E-02 6.88481E-23
6.48222E-02 6.45325E-23
6.69873E-02 6.05548E-23
6.91854E-02 5.68834E-23
7.14163E-02 5.34900E-23
7.36799E-02 5.03494E-23
7.59760E-02 4.74392E-23
7.83043E-02 4.47393E-23
8.06647E-02 4.22314E-23
8.30571E-02 3.98991E-23
8.54812E-02 3.77276E-23
8.79369E-02 3.57039E-23
9.04240E-02 3.38158E-23
9.29422E-02 3.20525E-23
9.54915E-02 3.04039E-23
9.80716E-02 2.88613E-23
1.00682E-01 2.74164E-23
1.03323E-01 2.60618E-23
1.05995E-01 2.47908E-23
1.08696E-01 2.35971E-23
1.11427E-01 2.24751E-23
1.14188E-01 2.14197E-23
1.16978E-01 2.04261E-23
1.19797E-01 1.94900E-23
1.22645E-01 1.86073E-23
1.25522E-01 1.77744E-23
1.28428E-01 1.69880E-23
1.31361E-01 1.62449E-23
1.34323E-01 1.55423E-23
1.37313E-01 1.48774E-23
1.40330E-01 1.42479E-23
1.43375E-01 1.36516E-23
1.46447E-01 1.30862E-23
1.49545E-01 1.25500E-23
1.52671E-01 1.20410E-23
1.55823E-01 1.15576E-23
1.59001E-01 1.10983E-23
1.62205E-01 1.06616E-23
1.65435E-01 1.02462E-23
1.68690E-01 9.85080E-24
1.71970E-01 9.47429E-24
1.75276E-01 9.11561E-24
1.78606E-01 8.77373E-24
1.81961E-01 8.44762E-24
1.85340E-01 8.13644E-24
1.88743E-01 7.83949E-24
1.92169E-01 7.55588E-24
1.95619E-01 7.28487E-24
1.99092E-01 7.02581E-24
2.02589E-01 6.77812E-24
2.06107E-01 6.54115E-24
2.09649E-01 6.31435E-24
2.13212E-01 6.09718E-24
2.16797E-01 5.88918E-24
2.20404E-01 5.68988E-24
2.24032E-01 5.49883E-24
2.27680E-01 5.31561E-24
2.31350E-01 5.13985E-24
2.35040E-01 4.97119E-24
2.38751E-01 4.80928E-24
2.42481E-01 4.65380E-24
2.46231E-01 4.50442E-24
2.50000E-01 4.36088E-24
2.53788E-01 4.22290E-24
2.57595E-01 4.09022E-24
2.61421E-01 3.96258E-24
2.65264E-01 3.83977E-24
2.69126E-01 3.72156E-24
2.73005E-01 3.60776E-24
2.76901E-01 3.49815E-24
2.80814E-01 3.39256E-24
2.84744E-01 3.29080E-24
2.88691E-01 3.19272E-24
2.92653E-01 3.09815E-24
2.96632E-01 3.00694E-24
3.00625E-01 2.91895E-24
3.04634E-01 2.83404E-24
3.08658E-01 2.75209E-24
3.12697E-01 2.67296E-24
3.16749E-01 2.59655E-24
3.20816E-01 2.52274E-24
3.24896E-01 2.45143E-24
3.28990E-01 2.38250E-24
3.33097E-01 2.31588E-24
3.37216E-01 2.25147E-24
3.41348E-01 2.18917E-24
3.45492E-01 2.12891E-24
3.49647E-01 2.07061E-24
3.53814E-01 2.01418E-24
3.57992E-01 1.95956E-24
3.62181E-01 1.90668E-24
3.66381E-01 1.85548E-24
3.70590E-01 1.80588E-24
3.74810E-01 1.75783E-24
3.79039E-01 1.71128E-24
3.83277E-01 1.66616E-24
3.87524E-01 1.62242E-24
3.91780E-01 1.58002E-24
3.96044E-01 1.53890E-24
4.00316E-01 1.49902E-24
4.04596E-01 1.46033E-24
4.08882E-01 1.42280E-24
4.13176E-01 1.38637E-24
4.17476E-01 1.35102E-24
4.21783E-01 1.31670E-24
4.26095E-01 1.28337E-24
4.30413E-01 1.25101E-24
4.34737E-01 1.21959E-24
4.39065E-01 1.18906E-24
4.43398E-01 1.15939E-24
4.47736E-01 1.13057E-24
4.52077E-01 1.10256E-24
4.56422E-01 1.07533E-24
4.60770E-01 1.04886E-24
4.65122E-01 1.02312E-24
4.69476E-01 9.98087E-25
4.73832E-01 9.73742E-25
4.78190E-01 9.50061E-25
4.82550E-01 9.27021E-25
4.86912E-01 9.04603E-25
4.91274E-01 8.82786E-25
4.95637E-01 8.61552E-25
5.00000E-01 8.40882E-25
5.04363E-01 8.20759E-25
5.08726E-01 8.01164E-25
5.13088E-01 7.82083E-25
5.17450E-01 7.63499E-25
5.21810E-01 7.45397E-25
5.26168E-01 7.27763E-25
5.30524E-01 7.10581E-25
5.34878E-01 6.93839E-25
5.39230E-01 6.77522E-25
5.43578E-01 6.61620E-25
5.47923E-01 6.46118E-25
5.52264E-01 6.31006E-25
5.56602E-01 6.16272E-25
5.60935E-01 6.01904E-25
5.65263E-01 5.87892E-25
5.69587E-01 5.74227E-25
5.73905E-01 5.60897E-25
5.78217E-01 5.47893E-25
5.82524E-01 5.35206E-25
5.86824E-01 5.22827E-25
5.91118E-01 5.10747E-25
5.95404E-01 4.98958E-25
5.99684E-01 4.87451E-25
6.03956E-01 4.76220E-25
6.08220E-01 4.65255E-25
6.12476E-01 4.54550E-25
6.16723E-01 4.44098E-25
6.20961E-01 4.33892E-25
6.25190E-01 4.23924E-25
6.29410E-01 4.14189E-25
6.33619E-01 4.04681E-25
6.37819E-01 3.95393E-25
6.42008E-01 3.86319E-25
6.46186E-01 3.77454E-25
6.50353E-01 3.68792E-25
6.54508E-01 3.60327E-25
6.58652E-01 3.52056E-25
6.62784E-01 3.43972E-25
6.66903E-01 3.36071E-25
6.71010E-01 3.28348E-25
6.75104E-01 3.20799E-25
6.79184E-01 3.13418E-25
6.83251E-01 3.06202E-25
6.87303E-01 2.99147E-25
6.91342E-01 2.92249E-25
6.95366E-01 2.85503E-25
6.99375E-01 2.78905E-25
7.03368E-01 2.72453E-25
7.07347E-01 2.66142E-25
7.11309E-01 2.59970E-25
7.15256E-01 2.53931E-25
7.19186E-01 2.48025E-25
7.23099E-01 2.42246E-25
7.26995E-01 2.36592E-25
7.30874E-01 2.31061E-25
7.34736E-01 2.25648E-25
7.38579E-01 2.20352E-25
7.42405E-01 2.15169E-25
7.46212E-01 2.10097E-25
7.50000E-01 2.05133E-25
7.53769E-01 2.00275E-25
7.57519E-01 1.95520E-25
7.61249E-01 1.90865E-25
7.64960E-01 1.86310E-25
7.68650E-01 1.81850E-25
7.72320E-01 1.77484E-25
7.75968E-01 1.73211E-25
7.79596E-01 1.69027E-25
7.83203E-01 1.64931E-25
7.86788E-01 1.60920E-25
7.90351E-01 1.56994E-25
7.93893E-01 1.53149E-25
7.97411E-01 1.49385E-25
8.00908E-01 1.45699E-25
8.04381E-01 1.42089E-25
8.07831E-01 1.38555E-25
8.11257E-01 1.35094E-25
8.14660E-01 1.31705E-25
8.18039E-01 1.28386E-25
8.21394E-01 1.25136E-25
8.24724E-01 1.21954E-25
8.28030E-01 1.18837E-25
8.31310E-01 1.15784E-25
8.34565E-01 1.12795E-25
8.37795E-01 1.09868E-25
8.40999E-01 1.07001E-25
8.44177E-01 1.04193E-25
8.47329E-01 1.01444E-25
8.50455E-01 9.87516E-26
8.53553E-01 9.61148E-26
8.56625E-01 9.35327E-26
8.59670E-01 9.10041E-26
8.62687E-01 8.85281E-26
8.65677E-01 8.61034E-26
8.68639E-01 8.37292E-26
8.71572E-01 8.14045E-26
8.74478E-01 7.91282E-26
8.77355E-01 7.68995E-26
8.80203E-01 7.47175E-26
8.83022E-01 7.25812E-26
8.85812E-01 7.04898E-26
8.88573E-01 6.84424E-26
8.91304E-01 6.64383E-26
8.94005E-01 6.44767E-26
8.96677E-01 6.25566E-26
8.99318E-01 6.06775E-26
9.01928E-01 5.88386E-26
9.04508E-01 5.70391E-26
9.07058E-01 5.52783E-26
9.09576E-01 5.35556E-26
9.12063E-01 5.18702E-26
9.14519E-01 5.02217E-26
9.16943E-01 4.86092E-26
9.19335E-01 4.70322E-26
9.21696E-01 4.54901E-26
9.24024E-01 4.39823E-26
9.26320E-01 4.25083E-26
9.28584E-01 4.10674E-26
9.30815E-01 3.96592E-26
9.33013E-01 3.82831E-26
9.35178E-01 3.69386E-26
9.37310E-01 3.56253E-26
9.39409E-01 3.43426E-26
9.41474E-01 3.30900E-26
9.43505E-01 3.18671E-26
9.45503E-01 3.06735E-26
9.47467E-01 2.95087E-26
9.49397E-01 2.83723E-26
9.51293E-01 2.72639E-26
9.53154E-01 2.61831E-26
9.54981E-01 2.51295E-26
9.56773E-01 2.41027E-26
9.58530E-01 2.31024E-26
9.60252E-01 2.21281E-26
9.61940E-01 2.11796E-26
9.63592E-01 2.02566E-26
9.65209E-01 1.93586E-26
9.66790E-01 1.84854E-26
9.68336E-01 1.76367E-26
9.69846E-01 1.68122E-26
9.71321E-01 1.60115E-26
9.72759E-01 1.52345E-26
9.74162E-01 1.44808E-26
9.75528E-01 1.37502E-26
9.76858E-01 1.30424E-26
9.78152E-01 1.23572E-26
9.79410E-01 1.16943E-26
9.80631E-01 1.10536E-26
9.81815E-01 1.04347E-26
9.82963E-01 9.83755E-27
9.84074E-01 9.26188E-27
9.85148E-01 8.70750E-27
9.86185E-01 8.17421E-27
9.87185E-01 7.66184E-27
9.88148E-01 7.17022E-27
9.89074E-01 6.69918E-27
9.89962E-01 6.24856E-27
9.90814E-01 5.81820E-27
9.91627E-01 5.40797E-27
9.92404E-01 5.01773E-27
9.93143E-01 4.64733E-27
9.93844E-01 4.29667E-27
9.94508E-01 3.96562E-27
9.95134E-01 3.65408E-27
9.95722E-01 3.36193E-27
9.96273E-01 3.08908E-27
9.96786E-01 2.83544E-27
9.97261E-01 2.60092E-27
9.97698E-01 2.38546E-27
9.98097E-01 2.18896E-27
9.98459E-01 2.01138E-27
9.98782E-01 1.85265E-27
9.99067E-01 1.71271E-27
9.99315E-01 1.59153E-27
9.99524E-01 1.48906E-27
9.99695E-01 1.40526E-27
9.99829E-01 1.34012E-27
9.99924E-01 1.29360E-27
9.99981E-01 1.26570E-27
1.00000E+00 1.25640E-27
