 #
 # Subroutine ELSEPA. Elastic scattering of electrons and positrons
 #                    by neutral atoms and positive ions
 #
 # Projectile: electron
 # Kinetic energy = 4.50000E+06 eV = 1.65372E+05 a.u.
 #
 # WARNING: High-energy factorization with free-atom DF screening.
 #          Absorption, polarization and exchange corrections are
 #          switched off.
 #          Phase shifts are calculated for the bare nucleus.
 #          Scattering amplitudes are not evaluated.
 #
 # Element: In,  Z =  49,  atomic weight = 1.14818E+02 g/mol
 #
 # Nuclear model: Fermi distribution
 #                Average radius = 5.20060E-13 cm
 #                Skin thickness = 5.46000E-14 cm
 #
 # Number of electrons = 49
 #
 # Total elastic cross section = 4.87385E-18 cm**2 = 1.74048E-01 a0**2
 # 1st transport cross section = 1.52454E-22 cm**2 = 5.44423E-06 a0**2
 # 2nd transport cross section = 4.24857E-22 cm**2 = 1.51719E-05 a0**2
 #
 #
 # Differential cross section:                       MU=(1-COS(THETA))/2
 #
 #  THETA        MU          DCS          DCS        Sherman      error
 #  (deg)                 (cm**2/sr)   (a0**2/sr)    function
 #----------------------------------------------------------------------
0.00000E+00 1.04096E-12
7.61557E-13 1.04096E-12
1.18994E-12 1.04095E-12
1.71346E-12 1.04095E-12
2.33225E-12 1.04094E-12
3.04617E-12 1.04093E-12
3.85530E-12 1.04092E-12
4.75964E-12 1.04092E-12
5.75917E-12 1.04091E-12
6.85391E-12 1.04089E-12
8.04379E-12 1.04088E-12
9.32893E-12 1.04087E-12
1.07092E-11 1.04086E-12
1.21847E-11 1.04084E-12
1.37554E-11 1.04083E-12
1.54213E-11 1.04081E-12
1.71823E-11 1.04079E-12
1.90386E-11 1.04077E-12
2.09900E-11 1.04075E-12
2.30367E-11 1.04073E-12
2.51785E-11 1.04071E-12
2.74156E-11 1.04069E-12
2.97478E-11 1.04067E-12
3.21752E-11 1.04064E-12
3.46979E-11 1.04062E-12
3.73157E-11 1.04059E-12
4.00286E-11 1.04056E-12
4.28368E-11 1.04054E-12
4.57402E-11 1.04051E-12
4.87388E-11 1.04048E-12
5.18325E-11 1.04045E-12
5.50215E-11 1.04042E-12
5.83057E-11 1.04038E-12
6.16850E-11 1.04035E-12
6.51595E-11 1.04032E-12
6.87293E-11 1.04028E-12
7.23943E-11 1.04024E-12
7.61544E-11 1.04021E-12
1.18991E-10 1.03978E-12
1.71347E-10 1.03926E-12
2.33223E-10 1.03865E-12
3.04617E-10 1.03794E-12
3.85531E-10 1.03714E-12
4.75965E-10 1.03625E-12
5.75917E-10 1.03526E-12
6.85389E-10 1.03418E-12
8.04380E-10 1.03302E-12
9.32891E-10 1.03176E-12
1.07092E-09 1.03041E-12
1.21847E-09 1.02897E-12
1.37554E-09 1.02744E-12
1.54213E-09 1.02582E-12
1.71823E-09 1.02412E-12
1.90386E-09 1.02233E-12
2.09900E-09 1.02045E-12
2.30367E-09 1.01849E-12
2.51785E-09 1.01645E-12
2.74156E-09 1.01432E-12
2.97478E-09 1.01211E-12
3.21752E-09 1.00982E-12
3.46978E-09 1.00745E-12
3.73156E-09 1.00500E-12
4.00286E-09 1.00247E-12
4.28368E-09 9.99869E-13
4.57402E-09 9.97190E-13
4.87388E-09 9.94437E-13
5.18326E-09 9.91611E-13
5.50215E-09 9.88713E-13
5.83057E-09 9.85744E-13
6.16850E-09 9.82707E-13
6.51596E-09 9.79601E-13
6.87293E-09 9.76430E-13
7.23942E-09 9.73192E-13
7.61544E-09 9.69892E-13
1.18991E-08 9.33637E-13
1.71347E-08 8.92597E-13
2.33223E-08 8.48187E-13
3.04617E-08 8.01775E-13
3.85531E-08 7.54575E-13
4.75965E-08 7.07611E-13
5.75917E-08 6.61695E-13
6.85389E-08 6.17387E-13
8.04380E-08 5.75173E-13
9.32891E-08 5.35327E-13
1.07092E-07 4.97991E-13
1.21847E-07 4.63209E-13
1.37554E-07 4.30949E-13
1.54213E-07 4.01124E-13
1.71823E-07 3.73616E-13
1.90386E-07 3.48283E-13
2.09900E-07 3.24974E-13
2.30367E-07 3.03530E-13
2.51785E-07 2.83771E-13
2.74156E-07 2.65589E-13
2.97478E-07 2.48847E-13
3.21752E-07 2.33416E-13
3.46978E-07 2.19177E-13
3.73156E-07 2.06022E-13
4.00286E-07 1.93853E-13
4.28368E-07 1.82581E-13
4.57402E-07 1.72124E-13
4.87388E-07 1.62410E-13
5.18325E-07 1.53367E-13
5.50215E-07 1.44928E-13
5.83057E-07 1.37056E-13
6.16850E-07 1.29705E-13
6.51596E-07 1.22830E-13
6.87293E-07 1.16394E-13
7.23942E-07 1.10362E-13
7.61543E-07 1.04701E-13
1.18991E-06 6.24768E-14
1.71347E-06 3.93737E-14
2.33223E-06 2.55854E-14
3.04617E-06 1.71342E-14
3.85531E-06 1.18367E-14
4.75964E-06 8.43609E-15
5.75916E-06 6.19373E-15
6.85388E-06 4.66946E-15
8.04378E-06 3.60450E-15
9.32888E-06 2.83815E-15
1.07092E-05 2.27178E-15
1.21846E-05 1.84327E-15
1.37553E-05 1.51249E-15
1.54212E-05 1.25279E-15
1.71822E-05 1.04600E-15
1.90385E-05 8.79203E-16
2.09899E-05 7.44037E-16
2.30365E-05 6.33229E-16
2.51783E-05 5.41218E-16
2.74153E-05 4.64877E-16
2.97475E-05 4.01236E-16
3.21749E-05 3.47938E-16
3.46974E-05 3.03093E-16
3.73152E-05 2.65177E-16
4.00281E-05 2.32963E-16
4.28362E-05 2.05461E-16
4.57395E-05 1.81876E-16
4.87380E-05 1.61564E-16
5.18317E-05 1.44005E-16
5.50205E-05 1.28770E-16
5.83045E-05 1.15514E-16
6.16838E-05 1.03939E-16
6.51582E-05 9.37991E-17
6.87277E-05 8.48834E-17
7.23925E-05 7.70161E-17
7.61524E-05 7.00501E-17
9.21439E-05 4.90018E-17
1.09658E-04 3.53364E-17
1.28695E-04 2.61426E-17
1.49255E-04 1.97566E-17
1.71338E-04 1.52079E-17
1.94942E-04 1.18934E-17
2.20070E-04 9.43224E-18
2.46720E-04 7.57408E-18
2.74892E-04 6.15004E-18
3.04586E-04 5.04447E-18
3.35803E-04 4.17580E-18
3.68542E-04 3.48580E-18
4.02802E-04 2.93225E-18
4.38585E-04 2.48423E-18
4.75889E-04 2.11861E-18
5.14715E-04 1.81786E-18
5.55063E-04 1.56868E-18
5.96931E-04 1.36082E-18
6.40321E-04 1.18634E-18
6.85233E-04 1.03901E-18
7.31665E-04 9.13911E-19
7.79618E-04 8.07139E-19
8.29092E-04 7.15555E-19
8.80086E-04 6.36637E-19
9.32601E-04 5.68342E-19
9.86636E-04 5.08997E-19
1.04219E-03 4.57228E-19
1.09927E-03 4.11901E-19
1.15786E-03 3.72077E-19
1.21797E-03 3.36970E-19
1.27961E-03 3.05924E-19
1.34276E-03 2.78387E-19
1.40743E-03 2.53892E-19
1.47362E-03 2.32044E-19
1.54133E-03 2.12505E-19
1.61056E-03 1.94988E-19
1.68131E-03 1.79247E-19
1.75357E-03 1.65069E-19
1.82735E-03 1.52272E-19
1.90265E-03 1.40696E-19
1.97947E-03 1.30205E-19
2.05780E-03 1.20678E-19
2.13765E-03 1.12010E-19
2.21902E-03 1.04110E-19
2.30190E-03 9.68967E-20
2.38630E-03 9.03003E-20
2.47222E-03 8.42583E-20
2.55965E-03 7.87156E-20
2.64859E-03 7.36233E-20
2.73905E-03 6.89381E-20
2.83103E-03 6.46215E-20
2.92452E-03 6.06390E-20
3.01952E-03 5.69602E-20
3.11604E-03 5.35575E-20
3.21407E-03 5.04063E-20
3.31362E-03 4.74847E-20
3.41468E-03 4.47726E-20
3.51725E-03 4.22525E-20
3.62133E-03 3.99081E-20
3.72692E-03 3.77249E-20
3.83403E-03 3.56898E-20
3.94265E-03 3.37908E-20
4.05278E-03 3.20172E-20
4.16442E-03 3.03591E-20
4.27757E-03 2.88075E-20
4.39223E-03 2.73544E-20
4.50840E-03 2.59922E-20
4.62608E-03 2.47143E-20
4.74527E-03 2.35144E-20
4.86597E-03 2.23870E-20
4.98817E-03 2.13267E-20
5.11188E-03 2.03288E-20
5.23711E-03 1.93890E-20
5.36383E-03 1.85032E-20
5.49207E-03 1.76678E-20
5.62181E-03 1.68793E-20
5.75306E-03 1.61346E-20
5.88581E-03 1.54309E-20
6.02007E-03 1.47653E-20
6.15583E-03 1.41355E-20
6.29310E-03 1.35391E-20
6.43187E-03 1.29741E-20
6.57214E-03 1.24385E-20
6.71392E-03 1.19304E-20
6.85720E-03 1.14482E-20
7.00198E-03 1.09904E-20
7.14827E-03 1.05553E-20
7.29605E-03 1.01418E-20
7.44534E-03 9.74843E-21
7.59612E-03 9.37413E-21
7.97965E-03 8.51464E-21
8.37255E-03 7.75219E-21
8.77480E-03 7.07389E-21
9.18641E-03 6.46879E-21
9.60736E-03 5.92757E-21
1.00376E-02 5.44227E-21
1.04773E-02 5.00609E-21
1.09262E-02 4.61314E-21
1.13844E-02 4.25837E-21
1.18520E-02 3.93738E-21
1.23288E-02 3.64638E-21
1.28150E-02 3.38204E-21
1.33104E-02 3.14147E-21
1.38150E-02 2.92215E-21
1.43290E-02 2.72183E-21
1.48521E-02 2.53858E-21
1.53845E-02 2.37067E-21
1.59262E-02 2.21657E-21
1.64770E-02 2.07494E-21
1.70371E-02 1.94457E-21
1.76063E-02 1.82441E-21
1.81848E-02 1.71350E-21
1.87724E-02 1.61100E-21
1.93692E-02 1.51614E-21
1.99751E-02 1.42825E-21
2.05901E-02 1.34672E-21
2.12143E-02 1.27101E-21
2.18476E-02 1.20061E-21
2.24900E-02 1.13508E-21
2.31415E-02 1.07402E-21
2.38021E-02 1.01707E-21
2.44717E-02 9.63902E-22
2.51504E-02 9.14209E-22
2.58382E-02 8.67724E-22
2.65349E-02 8.24197E-22
2.72407E-02 7.83407E-22
2.79555E-02 7.45143E-22
2.86793E-02 7.09225E-22
2.94120E-02 6.75475E-22
3.01537E-02 6.43740E-22
3.09043E-02 6.13875E-22
3.16639E-02 5.85748E-22
3.24324E-02 5.59239E-22
3.32098E-02 5.34235E-22
3.39961E-02 5.10635E-22
3.47912E-02 4.88345E-22
3.55952E-02 4.67277E-22
3.64081E-02 4.47350E-22
3.72297E-02 4.28492E-22
3.80602E-02 4.10633E-22
3.88995E-02 3.93709E-22
3.97476E-02 3.77663E-22
4.06044E-02 3.62439E-22
4.14700E-02 3.47987E-22
4.23443E-02 3.34260E-22
4.32273E-02 3.21215E-22
4.41190E-02 3.08810E-22
4.50194E-02 2.97008E-22
4.59284E-02 2.85773E-22
4.68461E-02 2.75074E-22
4.87074E-02 2.55160E-22
5.06030E-02 2.37045E-22
5.25328E-02 2.20534E-22
5.44967E-02 2.05459E-22
5.64946E-02 1.91671E-22
5.85262E-02 1.79039E-22
6.05914E-02 1.67447E-22
6.26901E-02 1.56793E-22
6.48222E-02 1.46986E-22
6.69873E-02 1.37947E-22
6.91854E-02 1.29603E-22
7.14163E-02 1.21890E-22
7.36799E-02 1.14751E-22
7.59760E-02 1.08136E-22
7.83043E-02 1.01997E-22
8.06647E-02 9.62949E-23
8.30571E-02 9.09915E-23
8.54812E-02 8.60537E-23
8.79369E-02 8.14512E-23
9.04240E-02 7.71568E-23
9.29422E-02 7.31457E-23
9.54915E-02 6.93955E-23
9.80716E-02 6.58858E-23
1.00682E-01 6.25982E-23
1.03323E-01 5.95158E-23
1.05995E-01 5.66234E-23
1.08696E-01 5.39067E-23
1.11427E-01 5.13529E-23
1.14188E-01 4.89504E-23
1.16978E-01 4.66882E-23
1.19797E-01 4.45568E-23
1.22645E-01 4.25468E-23
1.25522E-01 4.06501E-23
1.28428E-01 3.88590E-23
1.31361E-01 3.71664E-23
1.34323E-01 3.55658E-23
1.37313E-01 3.40510E-23
1.40330E-01 3.26167E-23
1.43375E-01 3.12577E-23
1.46447E-01 2.99692E-23
1.49545E-01 2.87469E-23
1.52671E-01 2.75866E-23
1.55823E-01 2.64846E-23
1.59001E-01 2.54373E-23
1.62205E-01 2.44415E-23
1.65435E-01 2.34940E-23
1.68690E-01 2.25922E-23
1.71970E-01 2.17333E-23
1.75276E-01 2.09149E-23
1.78606E-01 2.01348E-23
1.81961E-01 1.93906E-23
1.85340E-01 1.86805E-23
1.88743E-01 1.80025E-23
1.92169E-01 1.73550E-23
1.95619E-01 1.67362E-23
1.99092E-01 1.61447E-23
2.02589E-01 1.55789E-23
2.06107E-01 1.50376E-23
2.09649E-01 1.45195E-23
2.13212E-01 1.40233E-23
2.16797E-01 1.35480E-23
2.20404E-01 1.30924E-23
2.24032E-01 1.26557E-23
2.27680E-01 1.22368E-23
2.31350E-01 1.18350E-23
2.35040E-01 1.14493E-23
2.38751E-01 1.10790E-23
2.42481E-01 1.07233E-23
2.46231E-01 1.03815E-23
2.50000E-01 1.00531E-23
2.53788E-01 9.73726E-24
2.57595E-01 9.43355E-24
2.61421E-01 9.14136E-24
2.65264E-01 8.86017E-24
2.69126E-01 8.58948E-24
2.73005E-01 8.32881E-24
2.76901E-01 8.07772E-24
2.80814E-01 7.83578E-24
2.84744E-01 7.60260E-24
2.88691E-01 7.37779E-24
2.92653E-01 7.16101E-24
2.96632E-01 6.95190E-24
3.00625E-01 6.75014E-24
3.04634E-01 6.55540E-24
3.08658E-01 6.36740E-24
3.12697E-01 6.18586E-24
3.16749E-01 6.01051E-24
3.20816E-01 5.84111E-24
3.24896E-01 5.67741E-24
3.28990E-01 5.51918E-24
3.33097E-01 5.36620E-24
3.37216E-01 5.21826E-24
3.41348E-01 5.07515E-24
3.45492E-01 4.93669E-24
3.49647E-01 4.80270E-24
3.53814E-01 4.67301E-24
3.57992E-01 4.54746E-24
3.62181E-01 4.42589E-24
3.66381E-01 4.30814E-24
3.70590E-01 4.19407E-24
3.74810E-01 4.08353E-24
3.79039E-01 3.97641E-24
3.83277E-01 3.87256E-24
3.87524E-01 3.77188E-24
3.91780E-01 3.67426E-24
3.96044E-01 3.57958E-24
4.00316E-01 3.48773E-24
4.04596E-01 3.39862E-24
4.08882E-01 3.31213E-24
4.13176E-01 3.22817E-24
4.17476E-01 3.14666E-24
4.21783E-01 3.06754E-24
4.26095E-01 2.99071E-24
4.30413E-01 2.91608E-24
4.34737E-01 2.84358E-24
4.39065E-01 2.77313E-24
4.43398E-01 2.70466E-24
4.47736E-01 2.63812E-24
4.52077E-01 2.57344E-24
4.56422E-01 2.51056E-24
4.60770E-01 2.44942E-24
4.65122E-01 2.38996E-24
4.69476E-01 2.33212E-24
4.73832E-01 2.27585E-24
4.78190E-01 2.22110E-24
4.82550E-01 2.16782E-24
4.86912E-01 2.11597E-24
4.91274E-01 2.06550E-24
4.95637E-01 2.01637E-24
5.00000E-01 1.96853E-24
5.04363E-01 1.92195E-24
5.08726E-01 1.87658E-24
5.13088E-01 1.83239E-24
5.17450E-01 1.78934E-24
5.21810E-01 1.74739E-24
5.26168E-01 1.70652E-24
5.30524E-01 1.66670E-24
5.34878E-01 1.62788E-24
5.39230E-01 1.59004E-24
5.43578E-01 1.55316E-24
5.47923E-01 1.51719E-24
5.52264E-01 1.48212E-24
5.56602E-01 1.44792E-24
5.60935E-01 1.41456E-24
5.65263E-01 1.38202E-24
5.69587E-01 1.35028E-24
5.73905E-01 1.31931E-24
5.78217E-01 1.28909E-24
5.82524E-01 1.25960E-24
5.86824E-01 1.23082E-24
5.91118E-01 1.20272E-24
5.95404E-01 1.17530E-24
5.99684E-01 1.14853E-24
6.03956E-01 1.12239E-24
6.08220E-01 1.09687E-24
6.12476E-01 1.07195E-24
6.16723E-01 1.04760E-24
6.20961E-01 1.02383E-24
6.25190E-01 1.00061E-24
6.29410E-01 9.77918E-25
6.33619E-01 9.55752E-25
6.37819E-01 9.34095E-25
6.42008E-01 9.12933E-25
6.46186E-01 8.92252E-25
6.50353E-01 8.72041E-25
6.54508E-01 8.52287E-25
6.58652E-01 8.32978E-25
6.62784E-01 8.14102E-25
6.66903E-01 7.95648E-25
6.71010E-01 7.77605E-25
6.75104E-01 7.59964E-25
6.79184E-01 7.42713E-25
6.83251E-01 7.25844E-25
6.87303E-01 7.09346E-25
6.91342E-01 6.93210E-25
6.95366E-01 6.77427E-25
6.99375E-01 6.61988E-25
7.03368E-01 6.46885E-25
7.07347E-01 6.32110E-25
7.11309E-01 6.17654E-25
7.15256E-01 6.03509E-25
7.19186E-01 5.89670E-25
7.23099E-01 5.76127E-25
7.26995E-01 5.62874E-25
7.30874E-01 5.49903E-25
7.34736E-01 5.37209E-25
7.38579E-01 5.24785E-25
7.42405E-01 5.12623E-25
7.46212E-01 5.00719E-25
7.50000E-01 4.89065E-25
7.53769E-01 4.77657E-25
7.57519E-01 4.66489E-25
7.61249E-01 4.55555E-25
7.64960E-01 4.44849E-25
7.68650E-01 4.34367E-25
7.72320E-01 4.24104E-25
7.75968E-01 4.14054E-25
7.79596E-01 4.04212E-25
7.83203E-01 3.94575E-25
7.86788E-01 3.85137E-25
7.90351E-01 3.75894E-25
7.93893E-01 3.66843E-25
7.97411E-01 3.57977E-25
8.00908E-01 3.49295E-25
8.04381E-01 3.40791E-25
8.07831E-01 3.32461E-25
8.11257E-01 3.24303E-25
8.14660E-01 3.16313E-25
8.18039E-01 3.08486E-25
8.21394E-01 3.00819E-25
8.24724E-01 2.93310E-25
8.28030E-01 2.85954E-25
8.31310E-01 2.78749E-25
8.34565E-01 2.71691E-25
8.37795E-01 2.64778E-25
8.40999E-01 2.58006E-25
8.44177E-01 2.51373E-25
8.47329E-01 2.44875E-25
8.50455E-01 2.38511E-25
8.53553E-01 2.32277E-25
8.56625E-01 2.26171E-25
8.59670E-01 2.20190E-25
8.62687E-01 2.14332E-25
8.65677E-01 2.08594E-25
8.68639E-01 2.02975E-25
8.71572E-01 1.97471E-25
8.74478E-01 1.92081E-25
8.77355E-01 1.86803E-25
8.80203E-01 1.81634E-25
8.83022E-01 1.76572E-25
8.85812E-01 1.71616E-25
8.88573E-01 1.66763E-25
8.91304E-01 1.62011E-25
8.94005E-01 1.57360E-25
8.96677E-01 1.52806E-25
8.99318E-01 1.48348E-25
9.01928E-01 1.43984E-25
9.04508E-01 1.39714E-25
9.07058E-01 1.35534E-25
9.09576E-01 1.31444E-25
9.12063E-01 1.27442E-25
9.14519E-01 1.23526E-25
9.16943E-01 1.19696E-25
9.19335E-01 1.15949E-25
9.21696E-01 1.12284E-25
9.24024E-01 1.08701E-25
9.26320E-01 1.05196E-25
9.28584E-01 1.01770E-25
9.30815E-01 9.84216E-26
9.33013E-01 9.51485E-26
9.35178E-01 9.19501E-26
9.37310E-01 8.88251E-26
9.39409E-01 8.57725E-26
9.41474E-01 8.27912E-26
9.43505E-01 7.98801E-26
9.45503E-01 7.70382E-26
9.47467E-01 7.42645E-26
9.49397E-01 7.15580E-26
9.51293E-01 6.89177E-26
9.53154E-01 6.63427E-26
9.54981E-01 6.38322E-26
9.56773E-01 6.13852E-26
9.58530E-01 5.90010E-26
9.60252E-01 5.66786E-26
9.61940E-01 5.44173E-26
9.63592E-01 5.22163E-26
9.65209E-01 5.00748E-26
9.66790E-01 4.79922E-26
9.68336E-01 4.59677E-26
9.69846E-01 4.40006E-26
9.71321E-01 4.20902E-26
9.72759E-01 4.02360E-26
9.74162E-01 3.84372E-26
9.75528E-01 3.66933E-26
9.76858E-01 3.50038E-26
9.78152E-01 3.33679E-26
9.79410E-01 3.17852E-26
9.80631E-01 3.02552E-26
9.81815E-01 2.87773E-26
9.82963E-01 2.73511E-26
9.84074E-01 2.59761E-26
9.85148E-01 2.46517E-26
9.86185E-01 2.33777E-26
9.87185E-01 2.21536E-26
9.88148E-01 2.09789E-26
9.89074E-01 1.98532E-26
9.89962E-01 1.87764E-26
9.90814E-01 1.77478E-26
9.91627E-01 1.67673E-26
9.92404E-01 1.58345E-26
9.93143E-01 1.49491E-26
9.93844E-01 1.41108E-26
9.94508E-01 1.33193E-26
9.95134E-01 1.25745E-26
9.95722E-01 1.18759E-26
9.96273E-01 1.12235E-26
9.96786E-01 1.06170E-26
9.97261E-01 1.00562E-26
9.97698E-01 9.54094E-27
9.98097E-01 9.07102E-27
9.98459E-01 8.64632E-27
9.98782E-01 8.26668E-27
9.99067E-01 7.93200E-27
9.99315E-01 7.64216E-27
9.99524E-01 7.39706E-27
9.99695E-01 7.19664E-27
9.99829E-01 7.04082E-27
9.99924E-01 6.92956E-27
9.99981E-01 6.86281E-27
1.00000E+00 6.84056E-27
