 #
 # Subroutine ELSEPA. Elastic scattering of electrons and positrons
 #                    by neutral atoms and positive ions
 #
 # Projectile: electron
 # Kinetic energy = 9.00000E+08 eV = 3.30744E+07 a.u.
 #
 # WARNING: High-energy factorization with free-atom DF screening.
 #          Absorption, polarization and exchange corrections are
 #          switched off.
 #          Phase shifts are calculated for the bare nucleus.
 #          Scattering amplitudes are not evaluated.
 #
 # Element: In,  Z =  49,  atomic weight = 1.14818E+02 g/mol
 #
 # Nuclear model: Fermi distribution
 #                Average radius = 5.20060E-13 cm
 #                Skin thickness = 5.46000E-14 cm
 #
 # Number of electrons = 49
 #
 # Total elastic cross section = 4.79421E-18 cm**2 = 1.71204E-01 a0**2
 # 1st transport cross section = 5.83287E-27 cm**2 = 2.08295E-10 a0**2
 # 2nd transport cross section = 1.74964E-26 cm**2 = 6.24809E-10 a0**2
 #
 #
 # Differential cross section:                       MU=(1-COS(THETA))/2
 #
 #  THETA        MU          DCS          DCS        Sherman      error
 #  (deg)                 (cm**2/sr)   (a0**2/sr)    function
 #----------------------------------------------------------------------
0.00000E+00 3.36174E-08
7.61557E-13 2.70539E-08
1.18994E-12 2.43152E-08
1.71346E-12 2.15999E-08
2.33225E-12 1.90447E-08
3.04617E-12 1.67302E-08
3.85530E-12 1.46791E-08
4.75964E-12 1.28903E-08
5.75917E-12 1.13462E-08
6.85391E-12 1.00143E-08
8.04379E-12 8.86976E-09
9.32893E-12 7.88518E-09
1.07092E-11 7.03235E-09
1.21847E-11 6.29412E-09
1.37554E-11 5.65137E-09
1.54213E-11 5.08790E-09
1.71823E-11 4.59361E-09
1.90386E-11 4.15687E-09
2.09900E-11 3.76942E-09
2.30367E-11 3.42534E-09
2.51785E-11 3.11750E-09
2.74156E-11 2.84193E-09
2.97478E-11 2.57999E-09
3.21752E-11 2.34377E-09
3.46979E-11 2.13926E-09
3.73157E-11 1.96136E-09
4.00286E-11 1.80590E-09
4.28368E-11 1.66946E-09
4.57402E-11 1.53551E-09
4.87388E-11 1.40649E-09
5.18325E-11 1.29282E-09
5.50215E-11 1.19230E-09
5.83057E-11 1.10311E-09
6.16850E-11 1.02368E-09
6.51595E-11 9.48066E-10
6.87293E-11 8.74956E-10
7.23943E-11 8.09610E-10
7.61544E-11 7.51035E-10
1.18991E-10 3.77264E-10
1.71347E-10 2.09336E-10
2.33223E-10 1.26971E-10
3.04617E-10 8.25659E-11
3.85531E-10 5.63695E-11
4.75965E-10 3.98578E-11
5.75917E-10 2.89448E-11
6.85389E-10 2.14375E-11
8.04380E-10 1.61577E-11
9.32891E-10 1.23766E-11
1.07092E-09 9.61877E-12
1.21847E-09 7.58149E-12
1.37554E-09 6.05177E-12
1.54213E-09 4.88722E-12
1.71823E-09 3.99079E-12
1.90386E-09 3.29221E-12
2.09900E-09 2.74147E-12
2.30367E-09 2.30242E-12
2.51785E-09 1.94845E-12
2.74156E-09 1.66046E-12
2.97478E-09 1.42361E-12
3.21752E-09 1.22821E-12
3.46978E-09 1.06585E-12
3.73156E-09 9.28883E-13
4.00286E-09 8.13851E-13
4.28368E-09 7.15696E-13
4.57402E-09 6.32032E-13
4.87388E-09 5.60328E-13
5.18326E-09 4.98291E-13
5.50215E-09 4.44819E-13
5.83057E-09 3.98072E-13
6.16850E-09 3.57389E-13
6.51596E-09 3.21748E-13
6.87293E-09 2.90371E-13
7.23942E-09 2.62805E-13
7.61544E-09 2.38299E-13
1.18991E-08 1.00147E-13
1.71347E-08 4.90215E-14
2.33223E-08 2.67350E-14
3.04617E-08 1.57975E-14
3.85531E-08 9.92710E-15
4.75965E-08 6.54891E-15
5.75917E-08 4.49363E-15
6.85389E-08 3.18516E-15
8.04380E-08 2.32012E-15
9.32891E-08 1.72974E-15
1.07092E-07 1.31570E-15
1.21847E-07 1.01840E-15
1.37554E-07 8.00480E-16
1.54213E-07 6.37822E-16
1.71823E-07 5.14436E-16
1.90386E-07 4.19475E-16
2.09900E-07 3.45436E-16
2.30367E-07 2.87025E-16
2.51785E-07 2.40448E-16
2.74156E-07 2.02941E-16
2.97478E-07 1.72467E-16
3.21752E-07 1.47501E-16
3.46978E-07 1.26891E-16
3.73156E-07 1.09757E-16
4.00286E-07 9.54188E-17
4.28368E-07 8.33462E-17
4.57402E-07 7.31232E-17
4.87388E-07 6.44200E-17
5.18325E-07 5.69736E-17
5.50215E-07 5.05723E-17
5.83057E-07 4.50451E-17
6.16850E-07 4.02525E-17
6.51596E-07 3.60806E-17
6.87293E-07 3.24352E-17
7.23942E-07 2.92388E-17
7.61543E-07 2.64264E-17
1.18991E-06 1.08352E-17
1.71347E-06 5.22844E-18
2.33223E-06 2.82336E-18
3.04617E-06 1.65554E-18
3.85531E-06 1.03382E-18
4.75964E-06 6.78455E-19
5.75916E-06 4.63496E-19
6.85388E-06 3.27326E-19
8.04378E-06 2.37694E-19
9.32888E-06 1.76752E-19
1.07092E-05 1.34150E-19
1.21846E-05 1.03647E-19
1.37553E-05 8.13424E-20
1.54212E-05 6.47294E-20
1.71822E-05 5.21499E-20
1.90385E-05 4.24729E-20
2.09899E-05 3.49601E-20
2.30365E-05 2.90356E-20
2.51783E-05 2.43115E-20
2.74153E-05 2.05075E-20
2.97475E-05 1.74181E-20
3.21749E-05 1.48892E-20
3.46974E-05 1.28038E-20
3.73152E-05 1.10721E-20
4.00281E-05 9.62429E-21
4.28362E-05 8.40602E-21
4.57395E-05 7.37464E-21
4.87380E-05 6.49655E-21
5.18317E-05 5.74514E-21
5.50205E-05 5.09914E-21
5.83045E-05 4.54140E-21
6.16838E-05 4.05793E-21
6.51582E-05 3.63723E-21
6.87277E-05 3.26980E-21
7.23925E-05 2.94771E-21
7.61524E-05 2.63865E-21
9.21439E-05 1.79400E-21
1.09658E-04 1.25958E-21
1.28695E-04 9.08517E-22
1.49255E-04 6.70304E-22
1.71338E-04 5.04287E-22
1.94942E-04 3.85799E-22
2.20070E-04 2.99501E-22
2.46720E-04 2.35513E-22
2.74892E-04 1.87302E-22
3.04586E-04 1.50470E-22
3.35803E-04 1.21969E-22
3.68542E-04 9.96661E-23
4.02802E-04 8.20335E-23
4.38585E-04 6.79629E-23
4.75889E-04 5.66404E-23
5.14715E-04 4.74583E-23
5.55063E-04 3.99599E-23
5.96931E-04 3.37966E-23
6.40321E-04 2.87006E-23
6.85233E-04 2.44640E-23
7.31665E-04 2.09240E-23
7.79618E-04 1.79524E-23
8.29092E-04 1.54471E-23
8.80086E-04 1.33264E-23
9.32601E-04 1.15248E-23
9.86636E-04 9.98879E-24
1.04219E-03 8.67519E-24
1.09927E-03 7.54841E-24
1.15786E-03 6.57923E-24
1.21797E-03 5.74346E-24
1.27961E-03 5.02102E-24
1.34276E-03 4.39518E-24
1.40743E-03 3.85190E-24
1.47362E-03 3.37939E-24
1.54133E-03 2.96770E-24
1.61056E-03 2.60843E-24
1.68131E-03 2.29443E-24
1.75357E-03 2.01961E-24
1.82735E-03 1.77877E-24
1.90265E-03 1.56746E-24
1.97947E-03 1.38187E-24
2.05780E-03 1.21871E-24
2.13765E-03 1.07513E-24
2.21902E-03 9.48689E-25
2.30190E-03 8.37257E-25
2.38630E-03 7.38993E-25
2.47222E-03 6.52291E-25
2.55965E-03 5.75754E-25
2.64859E-03 5.08164E-25
2.73905E-03 4.48454E-25
2.83103E-03 3.95691E-25
2.92452E-03 3.49059E-25
3.01952E-03 3.07838E-25
3.11604E-03 2.71399E-25
3.21407E-03 2.39186E-25
3.31362E-03 2.10712E-25
3.41468E-03 1.85544E-25
3.51725E-03 1.63303E-25
3.62133E-03 1.43654E-25
3.72692E-03 1.26299E-25
3.83403E-03 1.10976E-25
3.94265E-03 9.74522E-26
4.05278E-03 8.55225E-26
4.16442E-03 7.50043E-26
4.27757E-03 6.57361E-26
4.39223E-03 5.75745E-26
4.50840E-03 5.03924E-26
4.62608E-03 4.40771E-26
4.74527E-03 3.85284E-26
4.86597E-03 3.36576E-26
4.98817E-03 2.93858E-26
5.11188E-03 2.56430E-26
5.23711E-03 2.23670E-26
5.36383E-03 1.95029E-26
5.49207E-03 1.70016E-26
5.62181E-03 1.48198E-26
5.75306E-03 1.29191E-26
5.88581E-03 1.12653E-26
6.02007E-03 9.82834E-27
6.15583E-03 8.58138E-27
6.29310E-03 7.50081E-27
6.43187E-03 6.56571E-27
6.57214E-03 5.75762E-27
6.71392E-03 5.06022E-27
6.85720E-03 4.45913E-27
7.00198E-03 3.94171E-27
7.14827E-03 3.49679E-27
7.29605E-03 3.11461E-27
7.44534E-03 2.78656E-27
7.59612E-03 2.50513E-27
7.97965E-03 1.96436E-27
8.37255E-03 1.59426E-27
8.77480E-03 1.33729E-27
9.18641E-03 1.15363E-27
9.60736E-03 1.01630E-27
1.00376E-02 9.07469E-28
1.04773E-02 8.15767E-28
1.09262E-02 7.34273E-28
1.13844E-02 6.59063E-28
1.18520E-02 5.88167E-28
1.23288E-02 5.20825E-28
1.28150E-02 4.56971E-28
1.33104E-02 3.96883E-28
1.38150E-02 3.40960E-28
1.43290E-02 2.89580E-28
1.48521E-02 2.43025E-28
1.53845E-02 2.01441E-28
1.59262E-02 1.64838E-28
1.64770E-02 1.33094E-28
1.70371E-02 1.05976E-28
1.76063E-02 8.31670E-29
1.81848E-02 6.42875E-29
1.87724E-02 4.89225E-29
1.93692E-02 3.66412E-29
1.99751E-02 2.70155E-29
2.05901E-02 1.96337E-29
2.12143E-02 1.41111E-29
2.18476E-02 1.00973E-29
2.24900E-02 7.28067E-30
2.31415E-02 5.38978E-30
2.38021E-02 4.19371E-30
2.44717E-02 3.50027E-30
2.51504E-02 3.15327E-30
2.58382E-02 3.02915E-30
2.65349E-02 3.03309E-30
2.72407E-02 3.09500E-30
2.79555E-02 3.16553E-30
2.86793E-02 3.21230E-30
2.94120E-02 3.21639E-30
3.01537E-02 3.16921E-30
3.09043E-02 3.06975E-30
3.16639E-02 2.92232E-30
3.24324E-02 2.73455E-30
3.32098E-02 2.51592E-30
3.39961E-02 2.27656E-30
3.47912E-02 2.02635E-30
3.55952E-02 1.77432E-30
3.64081E-02 1.52826E-30
3.72297E-02 1.29453E-30
3.80602E-02 1.07794E-30
3.88995E-02 8.81841E-31
3.97476E-02 7.08233E-31
4.06044E-02 5.57902E-31
4.14700E-02 4.30637E-31
4.23443E-02 3.25427E-31
4.32273E-02 2.40657E-31
4.41190E-02 1.74302E-31
4.50194E-02 1.24089E-31
4.59284E-02 8.76398E-32
4.68461E-02 6.25951E-32
4.87074E-02 3.78840E-32
5.06030E-02 3.43099E-32
5.25328E-02 4.00856E-32
5.44967E-02 4.74425E-32
5.64946E-02 5.21209E-32
5.85262E-02 5.25301E-32
6.05914E-02 4.88376E-32
6.26901E-02 4.21561E-32
6.48222E-02 3.39161E-32
6.69873E-02 2.54481E-32
6.91854E-02 1.77571E-32
7.14163E-02 1.14477E-32
7.36799E-02 6.75138E-33
7.59760E-02 3.61017E-33
7.83043E-02 1.78085E-33
8.06647E-02 9.33038E-34
8.30571E-02 7.27334E-34
8.54812E-02 8.67647E-34
8.79369E-02 1.12851E-33
9.04240E-02 1.36197E-33
9.29422E-02 1.49023E-33
9.54915E-02 1.49039E-33
9.80716E-02 1.37633E-33
1.00682E-01 1.18174E-33
1.03323E-01 9.46352E-34
1.05995E-01 7.06440E-34
1.08696E-01 4.89425E-34
1.11427E-01 3.11995E-34
1.14188E-01 1.80711E-34
1.16978E-01 9.41017E-35
1.19797E-01 4.53730E-35
1.22645E-01 2.50746E-35
1.25522E-01 2.33051E-35
1.28428E-01 3.12648E-35
1.31361E-01 4.21314E-35
1.34323E-01 5.13516E-35
1.37313E-01 5.65011E-35
1.40330E-01 5.68767E-35
1.43375E-01 5.29749E-35
1.46447E-01 4.59721E-35
1.49545E-01 3.72827E-35
1.52671E-01 2.82366E-35
1.55823E-01 1.98818E-35
1.59001E-01 1.28998E-35
1.62205E-01 7.60798E-36
1.65435E-01 4.01869E-36
1.68690E-01 1.92736E-36
1.71970E-01 1.00576E-36
1.75276E-01 8.84835E-37
1.78606E-01 1.21776E-36
1.81961E-01 1.72011E-36
1.85340E-01 2.18850E-36
1.88743E-01 2.50183E-36
1.92169E-01 2.61058E-36
1.95619E-01 2.51943E-36
1.99092E-01 2.26792E-36
2.02589E-01 1.91248E-36
2.06107E-01 1.51196E-36
2.09649E-01 1.11757E-36
2.13212E-01 7.67201E-37
2.16797E-01 4.83610E-37
2.20404E-01 2.75363E-37
2.24032E-01 1.39621E-37
2.27680E-01 6.57451E-38
2.31350E-01 3.89310E-38
2.35040E-01 4.33570E-38
2.38751E-01 6.45313E-38
2.42481E-01 9.07534E-38
2.46231E-01 1.13757E-37
2.50000E-01 1.28702E-37
2.53788E-01 1.33712E-37
2.57595E-01 1.29165E-37
2.61421E-01 1.16913E-37
2.65264E-01 9.95427E-38
2.69126E-01 7.97765E-38
2.73005E-01 6.00307E-38
2.76901E-01 4.21573E-38
2.80814E-01 1.00000E-45
2.84744E-01 1.00000E-45
2.88691E-01 1.00000E-45
2.92653E-01 1.00000E-45
2.96632E-01 1.00000E-45
3.00625E-01 1.00000E-45
3.04634E-01 1.00000E-45
3.08658E-01 1.00000E-45
3.12697E-01 1.00000E-45
3.16749E-01 1.00000E-45
3.20816E-01 1.00000E-45
3.24896E-01 1.00000E-45
3.28990E-01 1.00000E-45
3.33097E-01 1.00000E-45
3.37216E-01 1.00000E-45
3.41348E-01 1.00000E-45
3.45492E-01 1.00000E-45
3.49647E-01 1.00000E-45
3.53814E-01 1.00000E-45
3.57992E-01 1.00000E-45
3.62181E-01 1.00000E-45
3.66381E-01 1.00000E-45
3.70590E-01 1.00000E-45
3.74810E-01 1.00000E-45
3.79039E-01 1.00000E-45
3.83277E-01 1.00000E-45
3.87524E-01 1.00000E-45
3.91780E-01 1.00000E-45
3.96044E-01 1.00000E-45
4.00316E-01 1.00000E-45
4.04596E-01 1.00000E-45
4.08882E-01 1.00000E-45
4.13176E-01 1.00000E-45
4.17476E-01 1.00000E-45
4.21783E-01 1.00000E-45
4.26095E-01 1.00000E-45
4.30413E-01 1.00000E-45
4.34737E-01 1.00000E-45
4.39065E-01 1.00000E-45
4.43398E-01 1.00000E-45
4.47736E-01 1.00000E-45
4.52077E-01 1.00000E-45
4.56422E-01 1.00000E-45
4.60770E-01 1.00000E-45
4.65122E-01 1.00000E-45
4.69476E-01 1.00000E-45
4.73832E-01 1.00000E-45
4.78190E-01 1.00000E-45
4.82550E-01 1.00000E-45
4.86912E-01 1.00000E-45
4.91274E-01 1.00000E-45
4.95637E-01 1.00000E-45
5.00000E-01 1.00000E-45
5.04363E-01 1.00000E-45
5.08726E-01 1.00000E-45
5.13088E-01 1.00000E-45
5.17450E-01 1.00000E-45
5.21810E-01 1.00000E-45
5.26168E-01 1.00000E-45
5.30524E-01 1.00000E-45
5.34878E-01 1.00000E-45
5.39230E-01 1.00000E-45
5.43578E-01 1.00000E-45
5.47923E-01 1.00000E-45
5.52264E-01 1.00000E-45
5.56602E-01 1.00000E-45
5.60935E-01 1.00000E-45
5.65263E-01 1.00000E-45
5.69587E-01 1.00000E-45
5.73905E-01 1.00000E-45
5.78217E-01 1.00000E-45
5.82524E-01 1.00000E-45
5.86824E-01 1.00000E-45
5.91118E-01 1.00000E-45
5.95404E-01 1.00000E-45
5.99684E-01 1.00000E-45
6.03956E-01 1.00000E-45
6.08220E-01 1.00000E-45
6.12476E-01 1.00000E-45
6.16723E-01 1.00000E-45
6.20961E-01 1.00000E-45
6.25190E-01 1.00000E-45
6.29410E-01 1.00000E-45
6.33619E-01 1.00000E-45
6.37819E-01 1.00000E-45
6.42008E-01 1.00000E-45
6.46186E-01 1.00000E-45
6.50353E-01 1.00000E-45
6.54508E-01 1.00000E-45
6.58652E-01 1.00000E-45
6.62784E-01 1.00000E-45
6.66903E-01 1.00000E-45
6.71010E-01 1.00000E-45
6.75104E-01 1.00000E-45
6.79184E-01 1.00000E-45
6.83251E-01 1.00000E-45
6.87303E-01 1.00000E-45
6.91342E-01 1.00000E-45
6.95366E-01 1.00000E-45
6.99375E-01 1.00000E-45
7.03368E-01 1.00000E-45
7.07347E-01 1.00000E-45
7.11309E-01 1.00000E-45
7.15256E-01 1.00000E-45
7.19186E-01 1.00000E-45
7.23099E-01 1.00000E-45
7.26995E-01 1.00000E-45
7.30874E-01 1.00000E-45
7.34736E-01 1.00000E-45
7.38579E-01 1.00000E-45
7.42405E-01 1.00000E-45
7.46212E-01 1.00000E-45
7.50000E-01 1.00000E-45
7.53769E-01 1.00000E-45
7.57519E-01 1.00000E-45
7.61249E-01 1.00000E-45
7.64960E-01 1.00000E-45
7.68650E-01 1.00000E-45
7.72320E-01 1.00000E-45
7.75968E-01 1.00000E-45
7.79596E-01 1.00000E-45
7.83203E-01 1.00000E-45
7.86788E-01 1.00000E-45
7.90351E-01 1.00000E-45
7.93893E-01 1.00000E-45
7.97411E-01 1.00000E-45
8.00908E-01 1.00000E-45
8.04381E-01 1.00000E-45
8.07831E-01 1.00000E-45
8.11257E-01 1.00000E-45
8.14660E-01 1.00000E-45
8.18039E-01 1.00000E-45
8.21394E-01 1.00000E-45
8.24724E-01 1.00000E-45
8.28030E-01 1.00000E-45
8.31310E-01 1.00000E-45
8.34565E-01 1.00000E-45
8.37795E-01 1.00000E-45
8.40999E-01 1.00000E-45
8.44177E-01 1.00000E-45
8.47329E-01 1.00000E-45
8.50455E-01 1.00000E-45
8.53553E-01 1.00000E-45
8.56625E-01 1.00000E-45
8.59670E-01 1.00000E-45
8.62687E-01 1.00000E-45
8.65677E-01 1.00000E-45
8.68639E-01 1.00000E-45
8.71572E-01 1.00000E-45
8.74478E-01 1.00000E-45
8.77355E-01 1.00000E-45
8.80203E-01 1.00000E-45
8.83022E-01 1.00000E-45
8.85812E-01 1.00000E-45
8.88573E-01 1.00000E-45
8.91304E-01 1.00000E-45
8.94005E-01 1.00000E-45
8.96677E-01 1.00000E-45
8.99318E-01 1.00000E-45
9.01928E-01 1.00000E-45
9.04508E-01 1.00000E-45
9.07058E-01 1.00000E-45
9.09576E-01 1.00000E-45
9.12063E-01 1.00000E-45
9.14519E-01 1.00000E-45
9.16943E-01 1.00000E-45
9.19335E-01 1.00000E-45
9.21696E-01 1.00000E-45
9.24024E-01 1.00000E-45
9.26320E-01 1.00000E-45
9.28584E-01 1.00000E-45
9.30815E-01 1.00000E-45
9.33013E-01 1.00000E-45
9.35178E-01 1.00000E-45
9.37310E-01 1.00000E-45
9.39409E-01 1.00000E-45
9.41474E-01 1.00000E-45
9.43505E-01 1.00000E-45
9.45503E-01 1.00000E-45
9.47467E-01 1.00000E-45
9.49397E-01 1.00000E-45
9.51293E-01 1.00000E-45
9.53154E-01 1.00000E-45
9.54981E-01 1.00000E-45
9.56773E-01 1.00000E-45
9.58530E-01 1.00000E-45
9.60252E-01 1.00000E-45
9.61940E-01 1.00000E-45
9.63592E-01 1.00000E-45
9.65209E-01 1.00000E-45
9.66790E-01 1.00000E-45
9.68336E-01 1.00000E-45
9.69846E-01 1.00000E-45
9.71321E-01 1.00000E-45
9.72759E-01 1.00000E-45
9.74162E-01 1.00000E-45
9.75528E-01 1.00000E-45
9.76858E-01 1.00000E-45
9.78152E-01 1.00000E-45
9.79410E-01 1.00000E-45
9.80631E-01 1.00000E-45
9.81815E-01 1.00000E-45
9.82963E-01 1.00000E-45
9.84074E-01 1.00000E-45
9.85148E-01 1.00000E-45
9.86185E-01 1.00000E-45
9.87185E-01 1.00000E-45
9.88148E-01 1.00000E-45
9.89074E-01 1.00000E-45
9.89962E-01 1.00000E-45
9.90814E-01 1.00000E-45
9.91627E-01 1.00000E-45
9.92404E-01 1.00000E-45
9.93143E-01 1.00000E-45
9.93844E-01 1.00000E-45
9.94508E-01 1.00000E-45
9.95134E-01 1.00000E-45
9.95722E-01 1.00000E-45
9.96273E-01 1.00000E-45
9.96786E-01 1.00000E-45
9.97261E-01 1.00000E-45
9.97698E-01 1.00000E-45
9.98097E-01 1.00000E-45
9.98459E-01 1.00000E-45
9.98782E-01 1.00000E-45
9.99067E-01 1.00000E-45
9.99315E-01 1.00000E-45
9.99524E-01 1.00000E-45
9.99695E-01 1.00000E-45
9.99829E-01 1.00000E-45
9.99924E-01 1.00000E-45
9.99981E-01 1.00000E-45
1.00000E+00 1.00000E-45
