 #
 # Subroutine ELSEPA. Elastic scattering of electrons and positrons
 #                    by neutral atoms and positive ions
 #
 # Projectile: positron
 # Kinetic energy = 1.50000E+08 eV = 5.51240E+06 a.u.
 #
 # WARNING: High-energy factorization with free-atom DF screening.
 #          Absorption, polarization and exchange corrections are
 #          switched off.
 #          Phase shifts are calculated for the bare nucleus.
 #          Scattering amplitudes are not evaluated.
 #
 # Element:  N,  Z =   7,  atomic weight = 1.40067E+01 g/mol
 #
 # Nuclear model: Fermi distribution
 #                Average radius = 2.57926E-13 cm
 #                Skin thickness = 5.46000E-14 cm
 #
 # Number of electrons =  7
 #
 # Total elastic cross section = 2.59979E-19 cm**2 = 9.28403E-03 a0**2
 # 1st transport cross section = 4.85770E-27 cm**2 = 1.73471E-10 a0**2
 # 2nd transport cross section = 1.44603E-26 cm**2 = 5.16388E-10 a0**2
 #
 #
 # Differential cross section:                       MU=(1-COS(THETA))/2
 #
 #  THETA        MU          DCS          DCS        Sherman      error
 #  (deg)                 (cm**2/sr)   (a0**2/sr)    function
 #----------------------------------------------------------------------
0.00000E+00 4.22339E-11
7.61557E-13 4.21149E-11
1.18994E-12 4.20484E-11
1.71346E-12 4.19674E-11
2.33225E-12 4.18719E-11
3.04617E-12 4.17622E-11
3.85530E-12 4.16383E-11
4.75964E-12 4.15005E-11
5.75917E-12 4.13490E-11
6.85391E-12 4.11840E-11
8.04379E-12 4.10057E-11
9.32893E-12 4.08145E-11
1.07092E-11 4.06105E-11
1.21847E-11 4.03941E-11
1.37554E-11 4.01656E-11
1.54213E-11 3.99252E-11
1.71823E-11 3.96732E-11
1.90386E-11 3.94101E-11
2.09900E-11 3.91362E-11
2.30367E-11 3.88519E-11
2.51785E-11 3.85576E-11
2.74156E-11 3.82536E-11
2.97478E-11 3.79403E-11
3.21752E-11 3.76182E-11
3.46979E-11 3.72877E-11
3.73157E-11 3.69491E-11
4.00286E-11 3.66028E-11
4.28368E-11 3.62493E-11
4.57402E-11 3.58891E-11
4.87388E-11 3.55224E-11
5.18325E-11 3.51497E-11
5.50215E-11 3.47714E-11
5.83057E-11 3.43876E-11
6.16850E-11 3.39990E-11
6.51595E-11 3.36060E-11
6.87293E-11 3.32009E-11
7.23943E-11 3.27644E-11
7.61544E-11 3.23340E-11
1.18991E-10 2.81873E-11
1.71347E-10 2.40906E-11
2.33223E-10 2.02720E-11
3.04617E-10 1.68609E-11
3.85531E-10 1.39080E-11
4.75965E-10 1.14105E-11
5.75917E-10 9.33326E-12
6.85389E-10 7.62620E-12
8.04380E-10 6.23472E-12
9.32891E-10 5.10634E-12
1.07092E-09 4.19388E-12
1.21847E-09 3.45676E-12
1.37554E-09 2.86103E-12
1.54213E-09 2.37819E-12
1.71823E-09 1.98624E-12
1.90386E-09 1.66782E-12
2.09900E-09 1.40787E-12
2.30367E-09 1.19469E-12
2.51785E-09 1.01904E-12
2.74156E-09 8.73627E-13
2.97478E-09 7.52698E-13
3.21752E-09 6.51670E-13
3.46978E-09 5.66888E-13
3.73156E-09 4.95415E-13
4.00286E-09 4.34883E-13
4.28368E-09 3.83377E-13
4.57402E-09 3.39347E-13
4.87388E-09 3.01535E-13
5.18326E-09 2.68920E-13
5.50215E-09 2.40673E-13
5.83057E-09 2.16113E-13
6.16850E-09 1.94678E-13
6.51596E-09 1.75904E-13
6.87293E-09 1.59400E-13
7.23942E-09 1.44839E-13
7.61544E-09 1.31952E-13
1.18991E-08 5.84044E-14
1.71347E-08 3.01411E-14
2.33223E-08 1.71810E-14
3.04617E-08 1.05080E-14
3.85531E-08 6.77397E-15
4.75965E-08 4.55295E-15
5.75917E-08 3.16711E-15
6.85389E-08 2.26715E-15
8.04380E-08 1.66336E-15
9.32891E-08 1.24670E-15
1.07092E-07 9.51936E-16
1.21847E-07 7.38938E-16
1.37554E-07 5.82057E-16
1.54213E-07 4.64502E-16
1.71823E-07 3.75080E-16
1.90386E-07 3.06108E-16
2.09900E-07 2.52238E-16
2.30367E-07 2.09684E-16
2.51785E-07 1.75717E-16
2.74156E-07 1.48343E-16
2.97478E-07 1.26089E-16
3.21752E-07 1.07849E-16
3.46978E-07 9.27863E-17
3.73156E-07 8.02604E-17
4.00286E-07 6.97761E-17
4.28368E-07 6.09475E-17
4.57402E-07 5.34707E-17
4.87388E-07 4.71051E-17
5.18325E-07 4.16584E-17
5.50215E-07 3.69762E-17
5.83057E-07 3.29332E-17
6.16850E-07 2.94277E-17
6.51596E-07 2.63762E-17
6.87293E-07 2.37100E-17
7.23942E-07 2.13722E-17
7.61543E-07 1.93154E-17
1.18991E-06 7.91529E-18
1.71347E-06 3.81760E-18
2.33223E-06 2.06068E-18
3.04617E-06 1.20793E-18
3.85531E-06 7.54092E-19
4.75964E-06 4.94751E-19
5.75916E-06 3.37914E-19
6.85388E-06 2.38584E-19
8.04378E-06 1.73213E-19
9.32888E-06 1.28774E-19
1.07092E-05 9.77155E-20
1.21846E-05 7.54806E-20
1.37553E-05 5.92252E-20
1.54212E-05 4.71192E-20
1.71822E-05 3.79542E-20
1.90385E-05 3.09232E-20
2.09899E-05 2.54387E-20
2.30365E-05 2.11156E-20
2.51783E-05 1.76723E-20
2.74153E-05 1.49034E-20
2.97475E-05 1.26571E-20
3.21749E-05 1.08194E-20
3.46974E-05 9.30393E-21
3.73152E-05 8.04489E-21
4.00281E-05 6.99162E-21
4.28362E-05 6.10491E-21
4.57395E-05 5.35413E-21
4.87380E-05 4.71513E-21
5.18317E-05 4.16863E-21
5.50205E-05 3.69912E-21
5.83045E-05 3.29400E-21
6.16838E-05 2.94294E-21
6.51582E-05 2.63749E-21
6.87277E-05 2.37065E-21
7.23925E-05 2.13669E-21
7.61524E-05 1.93003E-21
9.21439E-05 1.31780E-21
1.09658E-04 9.30299E-22
1.28695E-04 6.75232E-22
1.49255E-04 5.01883E-22
1.71338E-04 3.80755E-22
1.94942E-04 2.94033E-22
2.20070E-04 2.30660E-22
2.46720E-04 1.83460E-22
2.74892E-04 1.47737E-22
3.04586E-04 1.20296E-22
3.35803E-04 9.89351E-23
3.68542E-04 8.21109E-23
4.02802E-04 6.87111E-23
4.38585E-04 5.79359E-23
4.75889E-04 4.91899E-23
5.14715E-04 4.20323E-23
5.55063E-04 3.61295E-23
5.96931E-04 3.12259E-23
6.40321E-04 2.71261E-23
6.85233E-04 2.36765E-23
7.31665E-04 2.07577E-23
7.79618E-04 1.82744E-23
8.29092E-04 1.61510E-23
8.80086E-04 1.43269E-23
9.32601E-04 1.27526E-23
9.86636E-04 1.13884E-23
1.04219E-03 1.02015E-23
1.09927E-03 9.16492E-24
1.15786E-03 8.25649E-24
1.21797E-03 7.45758E-24
1.27961E-03 6.75282E-24
1.34276E-03 6.12914E-24
1.40743E-03 5.57567E-24
1.47362E-03 5.08311E-24
1.54133E-03 4.64360E-24
1.61056E-03 4.25046E-24
1.68131E-03 3.89791E-24
1.75357E-03 3.58107E-24
1.82735E-03 3.29566E-24
1.90265E-03 3.03803E-24
1.97947E-03 2.80500E-24
2.05780E-03 2.59380E-24
2.13765E-03 2.40204E-24
2.21902E-03 2.22760E-24
2.30190E-03 2.06865E-24
2.38630E-03 1.92356E-24
2.47222E-03 1.79092E-24
2.55965E-03 1.66946E-24
2.64859E-03 1.55808E-24
2.73905E-03 1.45579E-24
2.83103E-03 1.36171E-24
2.92452E-03 1.27507E-24
3.01952E-03 1.19517E-24
3.11604E-03 1.12140E-24
3.21407E-03 1.05321E-24
3.31362E-03 9.90082E-25
3.41468E-03 9.31590E-25
3.51725E-03 8.77326E-25
3.62133E-03 8.26929E-25
3.72692E-03 7.80077E-25
3.83403E-03 7.36472E-25
3.94265E-03 6.95852E-25
4.05278E-03 6.57972E-25
4.16442E-03 6.22616E-25
4.27757E-03 5.89585E-25
4.39223E-03 5.58698E-25
4.50840E-03 5.29792E-25
4.62608E-03 5.02715E-25
4.74527E-03 4.77332E-25
4.86597E-03 4.53516E-25
4.98817E-03 4.31154E-25
5.11188E-03 4.10142E-25
5.23711E-03 3.90381E-25
5.36383E-03 3.71785E-25
5.49207E-03 3.54272E-25
5.62181E-03 3.37768E-25
5.75306E-03 3.22205E-25
5.88581E-03 3.07517E-25
6.02007E-03 2.93649E-25
6.15583E-03 2.80545E-25
6.29310E-03 2.68155E-25
6.43187E-03 2.56434E-25
6.57214E-03 2.45339E-25
6.71392E-03 2.34831E-25
6.85720E-03 2.24872E-25
7.00198E-03 2.15429E-25
7.14827E-03 2.06471E-25
7.29605E-03 1.97967E-25
7.44534E-03 1.89891E-25
7.59612E-03 1.82216E-25
7.97965E-03 1.64639E-25
8.37255E-03 1.49103E-25
8.77480E-03 1.35332E-25
9.18641E-03 1.23092E-25
9.60736E-03 1.12184E-25
1.00376E-02 1.02439E-25
1.04773E-02 9.37115E-26
1.09262E-02 8.58784E-26
1.13844E-02 7.88322E-26
1.18520E-02 7.24807E-26
1.23288E-02 6.67438E-26
1.28150E-02 6.15520E-26
1.33104E-02 5.68448E-26
1.38150E-02 5.25694E-26
1.43290E-02 4.86795E-26
1.48521E-02 4.51345E-26
1.53845E-02 4.18987E-26
1.59262E-02 3.89405E-26
1.64770E-02 3.62321E-26
1.70371E-02 3.37490E-26
1.76063E-02 3.14692E-26
1.81848E-02 2.93732E-26
1.87724E-02 2.74438E-26
1.93692E-02 2.56656E-26
1.99751E-02 2.40246E-26
2.05901E-02 2.25086E-26
2.12143E-02 2.11064E-26
2.18476E-02 1.98081E-26
2.24900E-02 1.86047E-26
2.31415E-02 1.74880E-26
2.38021E-02 1.64509E-26
2.44717E-02 1.54867E-26
2.51504E-02 1.45894E-26
2.58382E-02 1.37537E-26
2.65349E-02 1.29746E-26
2.72407E-02 1.22476E-26
2.79555E-02 1.15687E-26
2.86793E-02 1.09342E-26
2.94120E-02 1.03407E-26
3.01537E-02 9.78511E-27
3.09043E-02 9.26467E-27
3.16639E-02 8.77676E-27
3.24324E-02 8.31902E-27
3.32098E-02 7.88930E-27
3.39961E-02 7.48559E-27
3.47912E-02 7.10608E-27
3.55952E-02 6.74908E-27
3.64081E-02 6.41304E-27
3.72297E-02 6.09655E-27
3.80602E-02 5.79828E-27
3.88995E-02 5.51701E-27
3.97476E-02 5.25164E-27
4.06044E-02 5.00111E-27
4.14700E-02 4.76448E-27
4.23443E-02 4.54084E-27
4.32273E-02 4.32938E-27
4.41190E-02 4.12934E-27
4.50194E-02 3.93999E-27
4.59284E-02 3.76068E-27
4.68461E-02 3.59081E-27
4.87074E-02 3.27709E-27
5.06030E-02 2.99473E-27
5.25328E-02 2.74015E-27
5.44967E-02 2.51024E-27
5.64946E-02 2.30227E-27
5.85262E-02 2.11388E-27
6.05914E-02 1.94295E-27
6.26901E-02 1.78767E-27
6.48222E-02 1.64640E-27
6.69873E-02 1.51771E-27
6.91854E-02 1.40034E-27
7.14163E-02 1.29316E-27
7.36799E-02 1.19517E-27
7.59760E-02 1.10549E-27
7.83043E-02 1.02333E-27
8.06647E-02 9.47969E-28
8.30571E-02 8.78783E-28
8.54812E-02 8.15204E-28
8.79369E-02 7.56722E-28
9.04240E-02 7.02883E-28
9.29422E-02 6.53273E-28
9.54915E-02 6.07522E-28
9.80716E-02 5.65297E-28
1.00682E-01 5.26296E-28
1.03323E-01 4.90244E-28
1.05995E-01 4.56896E-28
1.08696E-01 4.26026E-28
1.11427E-01 3.97430E-28
1.14188E-01 3.70925E-28
1.16978E-01 3.46341E-28
1.19797E-01 3.23525E-28
1.22645E-01 3.02337E-28
1.25522E-01 2.82650E-28
1.28428E-01 2.64348E-28
1.31361E-01 2.47323E-28
1.34323E-01 2.31479E-28
1.37313E-01 2.16725E-28
1.40330E-01 2.02981E-28
1.43375E-01 1.90171E-28
1.46447E-01 1.78225E-28
1.49545E-01 1.67082E-28
1.52671E-01 1.56681E-28
1.55823E-01 1.46971E-28
1.59001E-01 1.37900E-28
1.62205E-01 1.29425E-28
1.65435E-01 1.21502E-28
1.68690E-01 1.14092E-28
1.71970E-01 1.07161E-28
1.75276E-01 1.00675E-28
1.78606E-01 9.46036E-29
1.81961E-01 8.89178E-29
1.85340E-01 8.35919E-29
1.88743E-01 7.86014E-29
1.92169E-01 7.39238E-29
1.95619E-01 6.95383E-29
1.99092E-01 6.54254E-29
2.02589E-01 6.15671E-29
2.06107E-01 5.79468E-29
2.09649E-01 5.45488E-29
2.13212E-01 5.13587E-29
2.16797E-01 4.83631E-29
2.20404E-01 4.55494E-29
2.24032E-01 4.29060E-29
2.27680E-01 4.04220E-29
2.31350E-01 3.80873E-29
2.35040E-01 3.58925E-29
2.38751E-01 3.38288E-29
2.42481E-01 3.18879E-29
2.46231E-01 3.00622E-29
2.50000E-01 2.83446E-29
2.53788E-01 2.67283E-29
2.57595E-01 2.52071E-29
2.61421E-01 2.37752E-29
2.65264E-01 2.24271E-29
2.69126E-01 2.11576E-29
2.73005E-01 1.99621E-29
2.76901E-01 1.88361E-29
2.80814E-01 1.77752E-29
2.84744E-01 1.67757E-29
2.88691E-01 1.58339E-29
2.92653E-01 1.49462E-29
2.96632E-01 1.41095E-29
3.00625E-01 1.33208E-29
3.04634E-01 1.25772E-29
3.08658E-01 1.18760E-29
3.12697E-01 1.12148E-29
3.16749E-01 1.05911E-29
3.20816E-01 1.00029E-29
3.24896E-01 9.44798E-30
3.28990E-01 8.92445E-30
3.33097E-01 8.43048E-30
3.37216E-01 7.96435E-30
3.41348E-01 7.52446E-30
3.45492E-01 7.10928E-30
3.49647E-01 6.71741E-30
3.53814E-01 6.34748E-30
3.57992E-01 5.99825E-30
3.62181E-01 5.66854E-30
3.66381E-01 5.35722E-30
3.70590E-01 5.06324E-30
3.74810E-01 4.78563E-30
3.79039E-01 4.52344E-30
3.83277E-01 4.27581E-30
3.87524E-01 4.04192E-30
3.91780E-01 3.82097E-30
3.96044E-01 3.61225E-30
4.00316E-01 3.41507E-30
4.04596E-01 3.22877E-30
4.08882E-01 3.05275E-30
4.13176E-01 2.88642E-30
4.17476E-01 2.72925E-30
4.21783E-01 2.58073E-30
4.26095E-01 2.44037E-30
4.30413E-01 2.30771E-30
4.34737E-01 2.18232E-30
4.39065E-01 2.06381E-30
4.43398E-01 1.95179E-30
4.47736E-01 1.84590E-30
4.52077E-01 1.74580E-30
4.56422E-01 1.65117E-30
4.60770E-01 1.56171E-30
4.65122E-01 1.47713E-30
4.69476E-01 1.39716E-30
4.73832E-01 1.32154E-30
4.78190E-01 1.25005E-30
4.82550E-01 1.18244E-30
4.86912E-01 1.11852E-30
4.91274E-01 1.05807E-30
4.95637E-01 1.00090E-30
5.00000E-01 9.46838E-31
5.04363E-01 8.95710E-31
5.08726E-01 8.47356E-31
5.13088E-01 8.01624E-31
5.17450E-01 7.58371E-31
5.21810E-01 7.17460E-31
5.26168E-01 6.78765E-31
5.30524E-01 6.42165E-31
5.34878E-01 6.07545E-31
5.39230E-01 5.74797E-31
5.43578E-01 5.43820E-31
5.47923E-01 5.14518E-31
5.52264E-01 4.86798E-31
5.56602E-01 4.60576E-31
5.60935E-01 4.35769E-31
5.65263E-01 4.12301E-31
5.69587E-01 3.90100E-31
5.73905E-01 3.69096E-31
5.78217E-01 3.49225E-31
5.82524E-01 3.30425E-31
5.86824E-01 3.12639E-31
5.91118E-01 2.95811E-31
5.95404E-01 2.79890E-31
5.99684E-01 2.64826E-31
6.03956E-01 2.50574E-31
6.08220E-01 2.37089E-31
6.12476E-01 2.24330E-31
6.16723E-01 2.12258E-31
6.20961E-01 2.00835E-31
6.25190E-01 1.90027E-31
6.29410E-01 1.79801E-31
6.33619E-01 1.70125E-31
6.37819E-01 1.60968E-31
6.42008E-01 1.52305E-31
6.46186E-01 1.44107E-31
6.50353E-01 1.36350E-31
6.54508E-01 1.29011E-31
6.58652E-01 1.22065E-31
6.62784E-01 1.15493E-31
6.66903E-01 1.09274E-31
6.71010E-01 1.03390E-31
6.75104E-01 9.78218E-32
6.79184E-01 9.25528E-32
6.83251E-01 8.75670E-32
6.87303E-01 8.28491E-32
6.91342E-01 7.83847E-32
6.95366E-01 7.41602E-32
6.99375E-01 7.01626E-32
7.03368E-01 6.63801E-32
7.07347E-01 6.28006E-32
7.11309E-01 5.94136E-32
7.15256E-01 5.62085E-32
7.19186E-01 5.31757E-32
7.23099E-01 5.03059E-32
7.26995E-01 4.75903E-32
7.30874E-01 4.50206E-32
7.34736E-01 4.25891E-32
7.38579E-01 4.02883E-32
7.42405E-01 3.81112E-32
7.46212E-01 3.60511E-32
7.50000E-01 3.41017E-32
7.53769E-01 3.22573E-32
7.57519E-01 3.05119E-32
7.61249E-01 2.88605E-32
7.64960E-01 2.72979E-32
7.68650E-01 2.58193E-32
7.72320E-01 2.44203E-32
7.75968E-01 2.30966E-32
7.79596E-01 2.18441E-32
7.83203E-01 2.06590E-32
7.86788E-01 1.95377E-32
7.90351E-01 1.84768E-32
7.93893E-01 1.74730E-32
7.97411E-01 1.65233E-32
8.00908E-01 1.56248E-32
8.04381E-01 1.47746E-32
8.07831E-01 1.39703E-32
8.11257E-01 1.32093E-32
8.14660E-01 1.24893E-32
8.18039E-01 1.18082E-32
8.21394E-01 1.11638E-32
8.24724E-01 1.05541E-32
8.28030E-01 9.97739E-33
8.31310E-01 9.43173E-33
8.34565E-01 8.91558E-33
8.37795E-01 8.42730E-33
8.40999E-01 7.96533E-33
8.44177E-01 7.52838E-33
8.47329E-01 7.11500E-33
8.50455E-01 6.72396E-33
8.53553E-01 6.35411E-33
8.56625E-01 6.00423E-33
8.59670E-01 5.67327E-33
8.62687E-01 5.36025E-33
8.65677E-01 5.06415E-33
8.68639E-01 4.78406E-33
8.71572E-01 4.51917E-33
8.74478E-01 4.26861E-33
8.77355E-01 4.03166E-33
8.80203E-01 3.80753E-33
8.83022E-01 3.59555E-33
8.85812E-01 3.39509E-33
8.88573E-01 3.20552E-33
8.91304E-01 3.02622E-33
8.94005E-01 2.85665E-33
8.96677E-01 2.69633E-33
8.99318E-01 2.54469E-33
9.01928E-01 2.40131E-33
9.04508E-01 2.26572E-33
9.07058E-01 2.13751E-33
9.09576E-01 2.01627E-33
9.12063E-01 1.90165E-33
9.14519E-01 1.79327E-33
9.16943E-01 1.69079E-33
9.19335E-01 1.59391E-33
9.21696E-01 1.50232E-33
9.24024E-01 1.41571E-33
9.26320E-01 1.33385E-33
9.28584E-01 1.25645E-33
9.30815E-01 1.18329E-33
9.33013E-01 1.11412E-33
9.35178E-01 1.04875E-33
9.37310E-01 9.86945E-34
9.39409E-01 9.28539E-34
9.41474E-01 8.73338E-34
9.43505E-01 8.21158E-34
9.45503E-01 7.71851E-34
9.47467E-01 7.25259E-34
9.49397E-01 6.81228E-34
9.51293E-01 6.39618E-34
9.53154E-01 6.00299E-34
9.54981E-01 5.63154E-34
9.56773E-01 5.28071E-34
9.58530E-01 4.94916E-34
9.60252E-01 4.63602E-34
9.61940E-01 4.34022E-34
9.63592E-01 4.06090E-34
9.65209E-01 3.79708E-34
9.66790E-01 3.54802E-34
9.68336E-01 3.31287E-34
9.69846E-01 3.09091E-34
9.71321E-01 2.88134E-34
9.72759E-01 2.68367E-34
9.74162E-01 2.49718E-34
9.75528E-01 2.32111E-34
9.76858E-01 2.15517E-34
9.78152E-01 1.99866E-34
9.79410E-01 1.85122E-34
9.80631E-01 1.71224E-34
9.81815E-01 1.58133E-34
9.82963E-01 1.45800E-34
9.84074E-01 1.34206E-34
9.85148E-01 1.23285E-34
9.86185E-01 1.13031E-34
9.87185E-01 1.03388E-34
9.88148E-01 9.43375E-35
9.89074E-01 8.58437E-35
9.89962E-01 7.78834E-35
9.90814E-01 7.04287E-35
9.91627E-01 6.34619E-35
9.92404E-01 5.69510E-35
9.93143E-01 5.08816E-35
9.93844E-01 4.52275E-35
9.94508E-01 3.99811E-35
9.95134E-01 3.51180E-35
9.95722E-01 3.06214E-35
9.96273E-01 2.64788E-35
9.96786E-01 2.26807E-35
9.97261E-01 1.92082E-35
9.97698E-01 1.60570E-35
9.98097E-01 1.32092E-35
9.98459E-01 1.06620E-35
9.98782E-01 8.40329E-36
9.99067E-01 6.42686E-36
9.99315E-01 4.73078E-36
9.99524E-01 3.29993E-36
9.99695E-01 2.13679E-36
9.99829E-01 1.23693E-36
9.99924E-01 5.96164E-37
9.99981E-01 2.12330E-37
1.00000E+00 8.73214E-38
