 #
 # Subroutine ELSEPA. Elastic scattering of electrons and positrons
 #                    by neutral atoms and positive ions
 #
 # Projectile: positron
 # Kinetic energy = 3.50000E+06 eV = 1.28623E+05 a.u.
 #
 # WARNING: High-energy factorization with free-atom DF screening.
 #          Absorption, polarization and exchange corrections are
 #          switched off.
 #          Phase shifts are calculated for the bare nucleus.
 #          Scattering amplitudes are not evaluated.
 #
 # Element:  N,  Z =   7,  atomic weight = 1.40067E+01 g/mol
 #
 # Nuclear model: Fermi distribution
 #                Average radius = 2.57926E-13 cm
 #                Skin thickness = 5.46000E-14 cm
 #
 # Number of electrons =  7
 #
 # Total elastic cross section = 2.64188E-19 cm**2 = 9.43433E-03 a0**2
 # 1st transport cross section = 4.69467E-24 cm**2 = 1.67650E-07 a0**2
 # 2nd transport cross section = 1.34897E-23 cm**2 = 4.81726E-07 a0**2
 #
 #
 # Differential cross section:                       MU=(1-COS(THETA))/2
 #
 #  THETA        MU          DCS          DCS        Sherman      error
 #  (deg)                 (cm**2/sr)   (a0**2/sr)    function
 #----------------------------------------------------------------------
0.00000E+00 2.99937E-14
7.61557E-13 2.99936E-14
1.18994E-12 2.99936E-14
1.71346E-12 2.99935E-14
2.33225E-12 2.99935E-14
3.04617E-12 2.99934E-14
3.85530E-12 2.99933E-14
4.75964E-12 2.99933E-14
5.75917E-12 2.99932E-14
6.85391E-12 2.99931E-14
8.04379E-12 2.99930E-14
9.32893E-12 2.99929E-14
1.07092E-11 2.99928E-14
1.21847E-11 2.99927E-14
1.37554E-11 2.99925E-14
1.54213E-11 2.99924E-14
1.71823E-11 2.99923E-14
1.90386E-11 2.99921E-14
2.09900E-11 2.99920E-14
2.30367E-11 2.99918E-14
2.51785E-11 2.99916E-14
2.74156E-11 2.99915E-14
2.97478E-11 2.99913E-14
3.21752E-11 2.99911E-14
3.46979E-11 2.99909E-14
3.73157E-11 2.99907E-14
4.00286E-11 2.99905E-14
4.28368E-11 2.99902E-14
4.57402E-11 2.99900E-14
4.87388E-11 2.99898E-14
5.18325E-11 2.99895E-14
5.50215E-11 2.99893E-14
5.83057E-11 2.99890E-14
6.16850E-11 2.99888E-14
6.51595E-11 2.99885E-14
6.87293E-11 2.99882E-14
7.23943E-11 2.99879E-14
7.61544E-11 2.99876E-14
1.18991E-10 2.99843E-14
1.71347E-10 2.99802E-14
2.33223E-10 2.99754E-14
3.04617E-10 2.99698E-14
3.85531E-10 2.99636E-14
4.75965E-10 2.99565E-14
5.75917E-10 2.99488E-14
6.85389E-10 2.99403E-14
8.04380E-10 2.99311E-14
9.32891E-10 2.99212E-14
1.07092E-09 2.99105E-14
1.21847E-09 2.98991E-14
1.37554E-09 2.98870E-14
1.54213E-09 2.98742E-14
1.71823E-09 2.98606E-14
1.90386E-09 2.98463E-14
2.09900E-09 2.98313E-14
2.30367E-09 2.98156E-14
2.51785E-09 2.97992E-14
2.74156E-09 2.97820E-14
2.97478E-09 2.97642E-14
3.21752E-09 2.97456E-14
3.46978E-09 2.97263E-14
3.73156E-09 2.97063E-14
4.00286E-09 2.96856E-14
4.28368E-09 2.96642E-14
4.57402E-09 2.96421E-14
4.87388E-09 2.96193E-14
5.18326E-09 2.95958E-14
5.50215E-09 2.95716E-14
5.83057E-09 2.95467E-14
6.16850E-09 2.95212E-14
6.51596E-09 2.94949E-14
6.87293E-09 2.94679E-14
7.23942E-09 2.94404E-14
7.61544E-09 2.94120E-14
1.18991E-08 2.90925E-14
1.71347E-08 2.87086E-14
2.33223E-08 2.82643E-14
3.04617E-08 2.77640E-14
3.85531E-08 2.72124E-14
4.75965E-08 2.66145E-14
5.75917E-08 2.59750E-14
6.85389E-08 2.52997E-14
8.04380E-08 2.45941E-14
9.32891E-08 2.38637E-14
1.07092E-07 2.30688E-14
1.21847E-07 2.22785E-14
1.37554E-07 2.15222E-14
1.54213E-07 2.07818E-14
1.71823E-07 1.99489E-14
1.90386E-07 1.91646E-14
2.09900E-07 1.84278E-14
2.30367E-07 1.76582E-14
2.51785E-07 1.68791E-14
2.74156E-07 1.61538E-14
2.97478E-07 1.54793E-14
3.21752E-07 1.47356E-14
3.46978E-07 1.40450E-14
3.73156E-07 1.34057E-14
4.00286E-07 1.27741E-14
4.28368E-07 1.21347E-14
4.57402E-07 1.15446E-14
4.87388E-07 1.09995E-14
5.18325E-07 1.04343E-14
5.50215E-07 9.90131E-15
5.83057E-07 9.40953E-15
6.16850E-07 8.94081E-15
6.51596E-07 8.46804E-15
6.87293E-07 8.03188E-15
7.23942E-07 7.62908E-15
7.61543E-07 7.22923E-15
1.18991E-06 4.24373E-15
1.71347E-06 2.52053E-15
2.33223E-06 1.54088E-15
3.04617E-06 9.75556E-16
3.85531E-06 6.40495E-16
4.75964E-06 4.35373E-16
5.75916E-06 3.05767E-16
6.85388E-06 2.21209E-16
8.04378E-06 1.64259E-16
9.32888E-06 1.24802E-16
1.07092E-05 9.67555E-17
1.21846E-05 7.63385E-17
1.37553E-05 6.11588E-17
1.54212E-05 4.96510E-17
1.71822E-05 4.07912E-17
1.90385E-05 3.38786E-17
2.09899E-05 2.83743E-17
2.30365E-05 2.39633E-17
2.51783E-05 2.03920E-17
2.74153E-05 1.74630E-17
2.97475E-05 1.50466E-17
3.21749E-05 1.30399E-17
3.46974E-05 1.13575E-17
3.73152E-05 9.93624E-18
4.00281E-05 8.73180E-18
4.28362E-05 7.70468E-18
4.57395E-05 6.82084E-18
4.87380E-05 6.06041E-18
5.18317E-05 5.40313E-18
5.50205E-05 4.83106E-18
5.83045E-05 4.33243E-18
6.16838E-05 3.89654E-18
6.51582E-05 3.51356E-18
6.87277E-05 3.17579E-18
7.23925E-05 2.87752E-18
7.61524E-05 2.61323E-18
9.21439E-05 1.81362E-18
1.09658E-04 1.29611E-18
1.28695E-04 9.49537E-19
1.49255E-04 7.10810E-19
1.71338E-04 5.42235E-19
1.94942E-04 4.20536E-19
2.20070E-04 3.31022E-19
2.46720E-04 2.64006E-19
2.74892E-04 2.13073E-19
3.04586E-04 1.73813E-19
3.35803E-04 1.43167E-19
3.68542E-04 1.18973E-19
4.02802E-04 9.96675E-20
4.38585E-04 8.41177E-20
4.75889E-04 7.14791E-20
5.14715E-04 6.11237E-20
5.55063E-04 5.25750E-20
5.96931E-04 4.54673E-20
6.40321E-04 3.95202E-20
6.85233E-04 3.45127E-20
7.31665E-04 3.02732E-20
7.79618E-04 2.66643E-20
8.29092E-04 2.35769E-20
8.80086E-04 2.09235E-20
9.32601E-04 1.86325E-20
9.86636E-04 1.66465E-20
1.04219E-03 1.49179E-20
1.09927E-03 1.34077E-20
1.15786E-03 1.20838E-20
1.21797E-03 1.09192E-20
1.27961E-03 9.89147E-21
1.34276E-03 8.98173E-21
1.40743E-03 8.17415E-21
1.47362E-03 7.45526E-21
1.54133E-03 6.81361E-21
1.61056E-03 6.23950E-21
1.68131E-03 5.72453E-21
1.75357E-03 5.26158E-21
1.82735E-03 4.84446E-21
1.90265E-03 4.46783E-21
1.97947E-03 4.12707E-21
2.05780E-03 3.81814E-21
2.13765E-03 3.53755E-21
2.21902E-03 3.28223E-21
2.30190E-03 3.04953E-21
2.38630E-03 2.83707E-21
2.47222E-03 2.64278E-21
2.55965E-03 2.46483E-21
2.64859E-03 2.30159E-21
2.73905E-03 2.15163E-21
2.83103E-03 2.01368E-21
2.92452E-03 1.88660E-21
3.01952E-03 1.76939E-21
3.11604E-03 1.66112E-21
3.21407E-03 1.56101E-21
3.31362E-03 1.46831E-21
3.41468E-03 1.38239E-21
3.51725E-03 1.30266E-21
3.62133E-03 1.22858E-21
3.72692E-03 1.15970E-21
3.83403E-03 1.09557E-21
3.94265E-03 1.03580E-21
4.05278E-03 9.80056E-22
4.16442E-03 9.28005E-22
4.27757E-03 8.79360E-22
4.39223E-03 8.33857E-22
4.50840E-03 7.91257E-22
4.62608E-03 7.51340E-22
4.74527E-03 7.13905E-22
4.86597E-03 6.78770E-22
4.98817E-03 6.45767E-22
5.11188E-03 6.14744E-22
5.23711E-03 5.85559E-22
5.36383E-03 5.58083E-22
5.49207E-03 5.32198E-22
5.62181E-03 5.07795E-22
5.75306E-03 4.84772E-22
5.88581E-03 4.63038E-22
6.02007E-03 4.42507E-22
6.15583E-03 4.23099E-22
6.29310E-03 4.04742E-22
6.43187E-03 3.87369E-22
6.57214E-03 3.70917E-22
6.71392E-03 3.55327E-22
6.85720E-03 3.40547E-22
7.00198E-03 3.26526E-22
7.14827E-03 3.13218E-22
7.29605E-03 3.00581E-22
7.44534E-03 2.88573E-22
7.59612E-03 2.77158E-22
7.97965E-03 2.50991E-22
8.37255E-03 2.27836E-22
8.77480E-03 2.07286E-22
9.18641E-03 1.88998E-22
9.60736E-03 1.72679E-22
1.00376E-02 1.58082E-22
1.04773E-02 1.44992E-22
1.09262E-02 1.33226E-22
1.13844E-02 1.22628E-22
1.18520E-02 1.13061E-22
1.23288E-02 1.04407E-22
1.28150E-02 9.65636E-23
1.33104E-02 8.94415E-23
1.38150E-02 8.29626E-23
1.43290E-02 7.70586E-23
1.48521E-02 7.16692E-23
1.53845E-02 6.67418E-23
1.59262E-02 6.22295E-23
1.64770E-02 5.80913E-23
1.70371E-02 5.42905E-23
1.76063E-02 5.07946E-23
1.81848E-02 4.75749E-23
1.87724E-02 4.46056E-23
1.93692E-02 4.18637E-23
1.99751E-02 3.93287E-23
2.05901E-02 3.69820E-23
2.12143E-02 3.48073E-23
2.18476E-02 3.27896E-23
2.24900E-02 3.09155E-23
2.31415E-02 2.91730E-23
2.38021E-02 2.75511E-23
2.44717E-02 2.60400E-23
2.51504E-02 2.46307E-23
2.58382E-02 2.33151E-23
2.65349E-02 2.20859E-23
2.72407E-02 2.09363E-23
2.79555E-02 1.98603E-23
2.86793E-02 1.88522E-23
2.94120E-02 1.79070E-23
3.01537E-02 1.70201E-23
3.09043E-02 1.61872E-23
3.16639E-02 1.54044E-23
3.24324E-02 1.46682E-23
3.32098E-02 1.39752E-23
3.39961E-02 1.33224E-23
3.47912E-02 1.27072E-23
3.55952E-02 1.21269E-23
3.64081E-02 1.15792E-23
3.72297E-02 1.10619E-23
3.80602E-02 1.05731E-23
3.88995E-02 1.01108E-23
3.97476E-02 9.67336E-24
4.06044E-02 9.25921E-24
4.14700E-02 8.86687E-24
4.23443E-02 8.49498E-24
4.32273E-02 8.14228E-24
4.41190E-02 7.80758E-24
4.50194E-02 7.48981E-24
4.59284E-02 7.18795E-24
4.68461E-02 6.90105E-24
4.87074E-02 6.36870E-24
5.06030E-02 5.88639E-24
5.25328E-02 5.44861E-24
5.44967E-02 5.05053E-24
5.64946E-02 4.68791E-24
5.85262E-02 4.35703E-24
6.05914E-02 4.05464E-24
6.26901E-02 3.77784E-24
6.48222E-02 3.52408E-24
6.69873E-02 3.29112E-24
6.91854E-02 3.07694E-24
7.14163E-02 2.87976E-24
7.36799E-02 2.69799E-24
7.59760E-02 2.53021E-24
7.83043E-02 2.37516E-24
8.06647E-02 2.23170E-24
8.30571E-02 2.09880E-24
8.54812E-02 1.97555E-24
8.79369E-02 1.86113E-24
9.04240E-02 1.75479E-24
9.29422E-02 1.65586E-24
9.54915E-02 1.56372E-24
9.80716E-02 1.47783E-24
1.00682E-01 1.39769E-24
1.03323E-01 1.32285E-24
1.05995E-01 1.25289E-24
1.08696E-01 1.18743E-24
1.11427E-01 1.12614E-24
1.14188E-01 1.06870E-24
1.16978E-01 1.01483E-24
1.19797E-01 9.64264E-25
1.22645E-01 9.16763E-25
1.25522E-01 8.72108E-25
1.28428E-01 8.30099E-25
1.31361E-01 7.90551E-25
1.34323E-01 7.53292E-25
1.37313E-01 7.18168E-25
1.40330E-01 6.85034E-25
1.43375E-01 6.53757E-25
1.46447E-01 6.24213E-25
1.49545E-01 5.96290E-25
1.52671E-01 5.69883E-25
1.55823E-01 5.44894E-25
1.59001E-01 5.21235E-25
1.62205E-01 4.98820E-25
1.65435E-01 4.77574E-25
1.68690E-01 4.57424E-25
1.71970E-01 4.38303E-25
1.75276E-01 4.20150E-25
1.78606E-01 4.02906E-25
1.81961E-01 3.86518E-25
1.85340E-01 3.70937E-25
1.88743E-01 3.56114E-25
1.92169E-01 3.42006E-25
1.95619E-01 3.28574E-25
1.99092E-01 3.15778E-25
2.02589E-01 3.03583E-25
2.06107E-01 2.91956E-25
2.09649E-01 2.80865E-25
2.13212E-01 2.70282E-25
2.16797E-01 2.60179E-25
2.20404E-01 2.50530E-25
2.24032E-01 2.41311E-25
2.27680E-01 2.32500E-25
2.31350E-01 2.24076E-25
2.35040E-01 2.16018E-25
2.38751E-01 2.08307E-25
2.42481E-01 2.00927E-25
2.46231E-01 1.93860E-25
2.50000E-01 1.87090E-25
2.53788E-01 1.80604E-25
2.57595E-01 1.74386E-25
2.61421E-01 1.68424E-25
2.65264E-01 1.62706E-25
2.69126E-01 1.57219E-25
2.73005E-01 1.51953E-25
2.76901E-01 1.46897E-25
2.80814E-01 1.42041E-25
2.84744E-01 1.37377E-25
2.88691E-01 1.32895E-25
2.92653E-01 1.28586E-25
2.96632E-01 1.24443E-25
3.00625E-01 1.20459E-25
3.04634E-01 1.16625E-25
3.08658E-01 1.12937E-25
3.12697E-01 1.09386E-25
3.16749E-01 1.05967E-25
3.20816E-01 1.02675E-25
3.24896E-01 9.95029E-26
3.28990E-01 9.64467E-26
3.33097E-01 9.35010E-26
3.37216E-01 9.06612E-26
3.41348E-01 8.79228E-26
3.45492E-01 8.52816E-26
3.49647E-01 8.27335E-26
3.53814E-01 8.02747E-26
3.57992E-01 7.79014E-26
3.62181E-01 7.56102E-26
3.66381E-01 7.33978E-26
3.70590E-01 7.12609E-26
3.74810E-01 6.91966E-26
3.79039E-01 6.72019E-26
3.83277E-01 6.52742E-26
3.87524E-01 6.34107E-26
3.91780E-01 6.16089E-26
3.96044E-01 5.98666E-26
4.00316E-01 5.81813E-26
4.04596E-01 5.65508E-26
4.08882E-01 5.49732E-26
4.13176E-01 5.34463E-26
4.17476E-01 5.19683E-26
4.21783E-01 5.05373E-26
4.26095E-01 4.91517E-26
4.30413E-01 4.78096E-26
4.34737E-01 4.65095E-26
4.39065E-01 4.52499E-26
4.43398E-01 4.40293E-26
4.47736E-01 4.28463E-26
4.52077E-01 4.16995E-26
4.56422E-01 4.05876E-26
4.60770E-01 3.95094E-26
4.65122E-01 3.84637E-26
4.69476E-01 3.74494E-26
4.73832E-01 3.64653E-26
4.78190E-01 3.55105E-26
4.82550E-01 3.45838E-26
4.86912E-01 3.36843E-26
4.91274E-01 3.28112E-26
4.95637E-01 3.19634E-26
5.00000E-01 3.11402E-26
5.04363E-01 3.03406E-26
5.08726E-01 2.95640E-26
5.13088E-01 2.88096E-26
5.17450E-01 2.80765E-26
5.21810E-01 2.73642E-26
5.26168E-01 2.66719E-26
5.30524E-01 2.59989E-26
5.34878E-01 2.53447E-26
5.39230E-01 2.47087E-26
5.43578E-01 2.40902E-26
5.47923E-01 2.34887E-26
5.52264E-01 2.29036E-26
5.56602E-01 2.23345E-26
5.60935E-01 2.17808E-26
5.65263E-01 2.12420E-26
5.69587E-01 2.07178E-26
5.73905E-01 2.02075E-26
5.78217E-01 1.97109E-26
5.82524E-01 1.92274E-26
5.86824E-01 1.87567E-26
5.91118E-01 1.82983E-26
5.95404E-01 1.78520E-26
5.99684E-01 1.74173E-26
6.03956E-01 1.69939E-26
6.08220E-01 1.65815E-26
6.12476E-01 1.61797E-26
6.16723E-01 1.57882E-26
6.20961E-01 1.54067E-26
6.25190E-01 1.50349E-26
6.29410E-01 1.46726E-26
6.33619E-01 1.43194E-26
6.37819E-01 1.39752E-26
6.42008E-01 1.36395E-26
6.46186E-01 1.33123E-26
6.50353E-01 1.29932E-26
6.54508E-01 1.26820E-26
6.58652E-01 1.23785E-26
6.62784E-01 1.20824E-26
6.66903E-01 1.17937E-26
6.71010E-01 1.15120E-26
6.75104E-01 1.12372E-26
6.79184E-01 1.09690E-26
6.83251E-01 1.07074E-26
6.87303E-01 1.04520E-26
6.91342E-01 1.02028E-26
6.95366E-01 9.95962E-27
6.99375E-01 9.72221E-27
7.03368E-01 9.49046E-27
7.07347E-01 9.26421E-27
7.11309E-01 9.04332E-27
7.15256E-01 8.82765E-27
7.19186E-01 8.61705E-27
7.23099E-01 8.41140E-27
7.26995E-01 8.21056E-27
7.30874E-01 8.01441E-27
7.34736E-01 7.82282E-27
7.38579E-01 7.63568E-27
7.42405E-01 7.45288E-27
7.46212E-01 7.27429E-27
7.50000E-01 7.09982E-27
7.53769E-01 6.92936E-27
7.57519E-01 6.76280E-27
7.61249E-01 6.60006E-27
7.64960E-01 6.44102E-27
7.68650E-01 6.28561E-27
7.72320E-01 6.13372E-27
7.75968E-01 5.98528E-27
7.79596E-01 5.84020E-27
7.83203E-01 5.69839E-27
7.86788E-01 5.55977E-27
7.90351E-01 5.42427E-27
7.93893E-01 5.29182E-27
7.97411E-01 5.16233E-27
8.00908E-01 5.03574E-27
8.04381E-01 4.91197E-27
8.07831E-01 4.79097E-27
8.11257E-01 4.67266E-27
8.14660E-01 4.55699E-27
8.18039E-01 4.44388E-27
8.21394E-01 4.33328E-27
8.24724E-01 4.22514E-27
8.28030E-01 4.11939E-27
8.31310E-01 4.01598E-27
8.34565E-01 3.91486E-27
8.37795E-01 3.81597E-27
8.40999E-01 3.71926E-27
8.44177E-01 3.62469E-27
8.47329E-01 3.53221E-27
8.50455E-01 3.44176E-27
8.53553E-01 3.35331E-27
8.56625E-01 3.26682E-27
8.59670E-01 3.18223E-27
8.62687E-01 3.09951E-27
8.65677E-01 3.01861E-27
8.68639E-01 2.93950E-27
8.71572E-01 2.86214E-27
8.74478E-01 2.78649E-27
8.77355E-01 2.71251E-27
8.80203E-01 2.64018E-27
8.83022E-01 2.56944E-27
8.85812E-01 2.50029E-27
8.88573E-01 2.43267E-27
8.91304E-01 2.36656E-27
8.94005E-01 2.30192E-27
8.96677E-01 2.23874E-27
8.99318E-01 2.17697E-27
9.01928E-01 2.11659E-27
9.04508E-01 2.05758E-27
9.07058E-01 1.99990E-27
9.09576E-01 1.94352E-27
9.12063E-01 1.88844E-27
9.14519E-01 1.83461E-27
9.16943E-01 1.78202E-27
9.19335E-01 1.73064E-27
9.21696E-01 1.68045E-27
9.24024E-01 1.63142E-27
9.26320E-01 1.58355E-27
9.28584E-01 1.53679E-27
9.30815E-01 1.49114E-27
9.33013E-01 1.44658E-27
9.35178E-01 1.40308E-27
9.37310E-01 1.36063E-27
9.39409E-01 1.31921E-27
9.41474E-01 1.27879E-27
9.43505E-01 1.23938E-27
9.45503E-01 1.20093E-27
9.47467E-01 1.16345E-27
9.49397E-01 1.12692E-27
9.51293E-01 1.09131E-27
9.53154E-01 1.05662E-27
9.54981E-01 1.02283E-27
9.56773E-01 9.89928E-28
9.58530E-01 9.57896E-28
9.60252E-01 9.26725E-28
9.61940E-01 8.96400E-28
9.63592E-01 8.66910E-28
9.65209E-01 8.38242E-28
9.66790E-01 8.10384E-28
9.68336E-01 7.83327E-28
9.69846E-01 7.57057E-28
9.71321E-01 7.31565E-28
9.72759E-01 7.06842E-28
9.74162E-01 6.82876E-28
9.75528E-01 6.59657E-28
9.76858E-01 6.37177E-28
9.78152E-01 6.15427E-28
9.79410E-01 5.94399E-28
9.80631E-01 5.74083E-28
9.81815E-01 5.54472E-28
9.82963E-01 5.35557E-28
9.84074E-01 5.17333E-28
9.85148E-01 4.99791E-28
9.86185E-01 4.82925E-28
9.87185E-01 4.66727E-28
9.88148E-01 4.51192E-28
9.89074E-01 4.36313E-28
9.89962E-01 4.22085E-28
9.90814E-01 4.08502E-28
9.91627E-01 3.95560E-28
9.92404E-01 3.83251E-28
9.93143E-01 3.71573E-28
9.93844E-01 3.60520E-28
9.94508E-01 3.50090E-28
9.95134E-01 3.40276E-28
9.95722E-01 3.31076E-28
9.96273E-01 3.22485E-28
9.96786E-01 3.14502E-28
9.97261E-01 3.07122E-28
9.97698E-01 3.00343E-28
9.98097E-01 2.94161E-28
9.98459E-01 2.88576E-28
9.98782E-01 2.83584E-28
9.99067E-01 2.79184E-28
9.99315E-01 2.75374E-28
9.99524E-01 2.72152E-28
9.99695E-01 2.69518E-28
9.99829E-01 2.67471E-28
9.99924E-01 2.66009E-28
9.99981E-01 2.65132E-28
1.00000E+00 2.64844E-28
