 #
 # Subroutine ELSEPA. Elastic scattering of electrons and positrons
 #                    by neutral atoms and positive ions
 #
 # Projectile: positron
 # Kinetic energy = 5.00000E+08 eV = 1.83747E+07 a.u.
 #
 # WARNING: High-energy factorization with free-atom DF screening.
 #          Absorption, polarization and exchange corrections are
 #          switched off.
 #          Phase shifts are calculated for the bare nucleus.
 #          Scattering amplitudes are not evaluated.
 #
 # Element:  N,  Z =   7,  atomic weight = 1.40067E+01 g/mol
 #
 # Nuclear model: Fermi distribution
 #                Average radius = 2.57926E-13 cm
 #                Skin thickness = 5.46000E-14 cm
 #
 # Number of electrons =  7
 #
 # Total elastic cross section = 2.60017E-19 cm**2 = 9.28538E-03 a0**2
 # 1st transport cross section = 4.43612E-28 cm**2 = 1.58417E-11 a0**2
 # 2nd transport cross section = 1.32977E-27 cm**2 = 4.74871E-11 a0**2
 #
 #
 # Differential cross section:                       MU=(1-COS(THETA))/2
 #
 #  THETA        MU          DCS          DCS        Sherman      error
 #  (deg)                 (cm**2/sr)   (a0**2/sr)    function
 #----------------------------------------------------------------------
0.00000E+00 4.67037E-10
7.61557E-13 4.52834E-10
1.18994E-12 4.45120E-10
1.71346E-12 4.35953E-10
2.33225E-12 4.25460E-10
3.04617E-12 4.13805E-10
3.85530E-12 4.01138E-10
4.75964E-12 3.87636E-10
5.75917E-12 3.73456E-10
6.85391E-12 3.58010E-10
8.04379E-12 3.42676E-10
9.32893E-12 3.28198E-10
1.07092E-11 3.12274E-10
1.21847E-11 2.96908E-10
1.37554E-11 2.82711E-10
1.54213E-11 2.67048E-10
1.71823E-11 2.52606E-10
1.90386E-11 2.39148E-10
2.09900E-11 2.24853E-10
2.30367E-11 2.11884E-10
2.51785E-11 1.99591E-10
2.74156E-11 1.87128E-10
2.97478E-11 1.75858E-10
3.21752E-11 1.65025E-10
3.46979E-11 1.54443E-10
3.73157E-11 1.44882E-10
4.00286E-11 1.35592E-10
4.28368E-11 1.26777E-10
4.57402E-11 1.18804E-10
4.87388E-11 1.10998E-10
5.18325E-11 1.03750E-10
5.50215E-11 9.71813E-11
5.83057E-11 9.07204E-11
6.16850E-11 8.48130E-11
6.51595E-11 7.94198E-11
6.87293E-11 7.41548E-11
7.23943E-11 6.93675E-11
7.61544E-11 6.49431E-11
1.18991E-10 3.39101E-11
1.71347E-10 1.85956E-11
2.33223E-10 1.07913E-11
3.04617E-10 6.62160E-12
3.85531E-10 4.27716E-12
4.75965E-10 2.89016E-12
5.75917E-10 2.02919E-12
6.85389E-10 1.47198E-12
8.04380E-10 1.09738E-12
9.32891E-10 8.37245E-13
1.07092E-09 6.51471E-13
1.21847E-09 5.15475E-13
1.37554E-09 4.13737E-13
1.54213E-09 3.36191E-13
1.71823E-09 2.76173E-13
1.90386E-09 2.29077E-13
2.09900E-09 1.91656E-13
2.30367E-09 1.61591E-13
2.51785E-09 1.37200E-13
2.74156E-09 1.17234E-13
2.97478E-09 1.00757E-13
3.21752E-09 8.70472E-14
3.46978E-09 7.55787E-14
3.73156E-09 6.59269E-14
4.00286E-09 5.77571E-14
4.28368E-09 5.08048E-14
4.57402E-09 4.48595E-14
4.87388E-09 3.97518E-14
5.18326E-09 3.53443E-14
5.50215E-09 3.15244E-14
5.83057E-09 2.82017E-14
6.16850E-09 2.53020E-14
6.51596E-09 2.27627E-14
6.87293E-09 2.05315E-14
7.23942E-09 1.85650E-14
7.61544E-09 1.68266E-14
1.18991E-08 7.02461E-15
1.71347E-08 3.41722E-15
2.33223E-08 1.85256E-15
3.04617E-08 1.08848E-15
3.85531E-08 6.80445E-16
4.75965E-08 4.46802E-16
5.75917E-08 3.05327E-16
6.85389E-08 2.15654E-16
8.04380E-08 1.56605E-16
9.32891E-08 1.16449E-16
1.07092E-07 8.83757E-17
1.21847E-07 6.82736E-17
1.37554E-07 5.35741E-17
1.54213E-07 4.26254E-17
1.71823E-07 3.43361E-17
1.90386E-07 2.79673E-17
2.09900E-07 2.30090E-17
2.30367E-07 1.91024E-17
2.51785E-07 1.59908E-17
2.74156E-07 1.34877E-17
2.97478E-07 1.14558E-17
3.21752E-07 9.79251E-18
3.46978E-07 8.42041E-18
3.73156E-07 7.28043E-18
4.00286E-07 6.32700E-18
4.28368E-07 5.52466E-18
4.57402E-07 4.84556E-18
4.87388E-07 4.26767E-18
5.18325E-07 3.77342E-18
5.50215E-07 3.34869E-18
5.83057E-07 2.98207E-18
6.16850E-07 2.66428E-18
6.51596E-07 2.38772E-18
6.87293E-07 2.14612E-18
7.23942E-07 1.93433E-18
7.61543E-07 1.74803E-18
1.18991E-06 7.15976E-19
1.71347E-06 3.45272E-19
2.33223E-06 1.86364E-19
3.04617E-06 1.09240E-19
3.85531E-06 6.81956E-20
4.75964E-06 4.47417E-20
5.75916E-06 3.05581E-20
6.85388E-06 2.15754E-20
8.04378E-06 1.56637E-20
9.32888E-06 1.16451E-20
1.07092E-05 8.83639E-21
1.21846E-05 6.82567E-21
1.37553E-05 5.35569E-21
1.54212E-05 4.26095E-21
1.71822E-05 3.43216E-21
1.90385E-05 2.79635E-21
2.09899E-05 2.30038E-21
2.30365E-05 1.90945E-21
2.51783E-05 1.59807E-21
2.74153E-05 1.34769E-21
2.97475E-05 1.14456E-21
3.21749E-05 9.78377E-22
3.46974E-05 8.41337E-22
3.73152E-05 7.27484E-22
4.00281E-05 6.32239E-22
4.28362E-05 5.52055E-22
4.57395E-05 4.84164E-22
4.87380E-05 4.26379E-22
5.18317E-05 3.76960E-22
5.50205E-05 3.34503E-22
5.83045E-05 2.97869E-22
6.16838E-05 2.66124E-22
6.51582E-05 2.38502E-22
6.87277E-05 2.14373E-22
7.23925E-05 1.93216E-22
7.61524E-05 1.73738E-22
9.21439E-05 1.18511E-22
1.09658E-04 8.35740E-23
1.28695E-04 6.05897E-23
1.49255E-04 4.49785E-23
1.71338E-04 3.40772E-23
1.94942E-04 2.62778E-23
2.20070E-04 2.05825E-23
2.46720E-04 1.63440E-23
2.74892E-04 1.31389E-23
3.04586E-04 1.06789E-23
3.35803E-04 8.76589E-24
3.68542E-04 7.26062E-24
4.02802E-04 6.06297E-24
4.38585E-04 5.10095E-24
4.75889E-04 4.32098E-24
5.14715E-04 3.68342E-24
5.55063E-04 3.15828E-24
5.96931E-04 2.72259E-24
6.40321E-04 2.35882E-24
6.85233E-04 2.05315E-24
7.31665E-04 1.79489E-24
7.79618E-04 1.57549E-24
8.29092E-04 1.38818E-24
8.80086E-04 1.22752E-24
9.32601E-04 1.08909E-24
9.86636E-04 9.69348E-25
1.04219E-03 8.65341E-25
1.09927E-03 7.74674E-25
1.15786E-03 6.95361E-25
1.21797E-03 6.25744E-25
1.27961E-03 5.64451E-25
1.34276E-03 5.10319E-25
1.40743E-03 4.62379E-25
1.47362E-03 4.19806E-25
1.54133E-03 3.81901E-25
1.61056E-03 3.48071E-25
1.68131E-03 3.17803E-25
1.75357E-03 2.90664E-25
1.82735E-03 2.66276E-25
1.90265E-03 2.44316E-25
1.97947E-03 2.24502E-25
2.05780E-03 2.06591E-25
2.13765E-03 1.90371E-25
2.21902E-03 1.75656E-25
2.30190E-03 1.62284E-25
2.38630E-03 1.50113E-25
2.47222E-03 1.39017E-25
2.55965E-03 1.28886E-25
2.64859E-03 1.19623E-25
2.73905E-03 1.11143E-25
2.83103E-03 1.03367E-25
2.92452E-03 9.62286E-26
3.01952E-03 8.96672E-26
3.11604E-03 8.36286E-26
3.21407E-03 7.80648E-26
3.31362E-03 7.29325E-26
3.41468E-03 6.81931E-26
3.51725E-03 6.38119E-26
3.62133E-03 5.97575E-26
3.72692E-03 5.60020E-26
3.83403E-03 5.25197E-26
3.94265E-03 4.92880E-26
4.05278E-03 4.62860E-26
4.16442E-03 4.34949E-26
4.27757E-03 4.08977E-26
4.39223E-03 3.84789E-26
4.50840E-03 3.62245E-26
4.62608E-03 3.41216E-26
4.74527E-03 3.21585E-26
4.86597E-03 3.03246E-26
4.98817E-03 2.86101E-26
5.11188E-03 2.70063E-26
5.23711E-03 2.55048E-26
5.36383E-03 2.40983E-26
5.49207E-03 2.27798E-26
5.62181E-03 2.15431E-26
5.75306E-03 2.03825E-26
5.88581E-03 1.92925E-26
6.02007E-03 1.82684E-26
6.15583E-03 1.73055E-26
6.29310E-03 1.63998E-26
6.43187E-03 1.55473E-26
6.57214E-03 1.47446E-26
6.71392E-03 1.39883E-26
6.85720E-03 1.32754E-26
7.00198E-03 1.26031E-26
7.14827E-03 1.19687E-26
7.29605E-03 1.13700E-26
7.44534E-03 1.08045E-26
7.59612E-03 1.02703E-26
7.97965E-03 9.05893E-27
8.37255E-03 8.00420E-27
8.77480E-03 7.08363E-27
9.18641E-03 6.27836E-27
9.60736E-03 5.57243E-27
1.00376E-02 4.95236E-27
1.04773E-02 4.40667E-27
1.09262E-02 3.92560E-27
1.13844E-02 3.50078E-27
1.18520E-02 3.12503E-27
1.23288E-02 2.79220E-27
1.28150E-02 2.49698E-27
1.33104E-02 2.23476E-27
1.38150E-02 2.00157E-27
1.43290E-02 1.79395E-27
1.48521E-02 1.60889E-27
1.53845E-02 1.44377E-27
1.59262E-02 1.29630E-27
1.64770E-02 1.16448E-27
1.70371E-02 1.04653E-27
1.76063E-02 9.40924E-28
1.81848E-02 8.46287E-28
1.87724E-02 7.61425E-28
1.93692E-02 6.85277E-28
1.99751E-02 6.16908E-28
2.05901E-02 5.55487E-28
2.12143E-02 5.00280E-28
2.18476E-02 4.50634E-28
2.24900E-02 4.05969E-28
2.31415E-02 3.65769E-28
2.38021E-02 3.29574E-28
2.44717E-02 2.96974E-28
2.51504E-02 2.67604E-28
2.58382E-02 2.41135E-28
2.65349E-02 2.17277E-28
2.72407E-02 1.95767E-28
2.79555E-02 1.76370E-28
2.86793E-02 1.58876E-28
2.94120E-02 1.43097E-28
3.01537E-02 1.28864E-28
3.09043E-02 1.16024E-28
3.16639E-02 1.04441E-28
3.24324E-02 9.39906E-29
3.32098E-02 8.45633E-29
3.39961E-02 7.60591E-29
3.47912E-02 6.83881E-29
3.55952E-02 6.14695E-29
3.64081E-02 5.52301E-29
3.72297E-02 4.96042E-29
3.80602E-02 4.45323E-29
3.88995E-02 3.99607E-29
3.97476E-02 3.58412E-29
4.06044E-02 3.21298E-29
4.14700E-02 2.87871E-29
4.23443E-02 2.57774E-29
4.32273E-02 2.30684E-29
4.41190E-02 2.06310E-29
4.50194E-02 1.84387E-29
4.59284E-02 1.64677E-29
4.68461E-02 1.46965E-29
4.87074E-02 1.16773E-29
5.06030E-02 9.24637E-30
5.25328E-02 7.29369E-30
5.44967E-02 5.72925E-30
5.64946E-02 4.47950E-30
5.85262E-02 3.48437E-30
6.05914E-02 2.69484E-30
6.26901E-02 2.07096E-30
6.48222E-02 1.58019E-30
6.69873E-02 1.19607E-30
6.91854E-02 8.97133E-31
7.14163E-02 6.65984E-31
7.36799E-02 4.88560E-31
7.59760E-02 3.53522E-31
7.83043E-02 2.51751E-31
8.06647E-02 1.75936E-31
8.30571E-02 1.20238E-31
8.54812E-02 8.00112E-32
8.79369E-02 5.15741E-32
9.04240E-02 3.20262E-32
9.29422E-02 1.90944E-32
9.54915E-02 1.10092E-32
9.80716E-02 6.40397E-33
1.00682E-01 4.23245E-33
1.03323E-01 3.70231E-33
1.05995E-01 4.22130E-33
1.08696E-01 5.35377E-33
1.11427E-01 6.78587E-33
1.14188E-01 8.29752E-33
1.16978E-01 9.74028E-33
1.19797E-01 1.10196E-32
1.22645E-01 1.20810E-32
1.25522E-01 1.28992E-32
1.28428E-01 1.34694E-32
1.31361E-01 1.38014E-32
1.34323E-01 1.39137E-32
1.37313E-01 1.38307E-32
1.40330E-01 1.35794E-32
1.43375E-01 1.31876E-32
1.46447E-01 1.26823E-32
1.49545E-01 1.20892E-32
1.52671E-01 1.14314E-32
1.55823E-01 1.07301E-32
1.59001E-01 1.00033E-32
1.62205E-01 9.26680E-33
1.65435E-01 8.53353E-33
1.68690E-01 7.81426E-33
1.71970E-01 7.11751E-33
1.75276E-01 6.44989E-33
1.78606E-01 5.81627E-33
1.81961E-01 5.22004E-33
1.85340E-01 4.66333E-33
1.88743E-01 4.14718E-33
1.92169E-01 3.67176E-33
1.95619E-01 3.23653E-33
1.99092E-01 2.84039E-33
2.02589E-01 2.48178E-33
2.06107E-01 2.15888E-33
2.09649E-01 1.86957E-33
2.13212E-01 1.61167E-33
2.16797E-01 1.38286E-33
2.20404E-01 1.18082E-33
2.24032E-01 1.00330E-33
2.27680E-01 8.48035E-34
2.31350E-01 7.12906E-34
2.35040E-01 5.95869E-34
2.38751E-01 4.95017E-34
2.42481E-01 4.08554E-34
2.46231E-01 3.34834E-34
2.50000E-01 2.72330E-34
2.53788E-01 2.19654E-34
2.57595E-01 1.75547E-34
2.61421E-01 1.38869E-34
2.65264E-01 1.08599E-34
2.69126E-01 8.38260E-35
2.73005E-01 6.37407E-35
2.76901E-01 4.76286E-35
2.80814E-01 3.48626E-35
2.84744E-01 2.48951E-35
2.88691E-01 1.72486E-35
2.92653E-01 1.15125E-35
2.96632E-01 7.33138E-36
3.00625E-01 4.40452E-36
3.04634E-01 2.47471E-36
3.08658E-01 1.32562E-36
3.12697E-01 7.76302E-37
3.16749E-01 6.76507E-37
3.20816E-01 9.02410E-37
3.24896E-01 1.35353E-36
3.28990E-01 1.94868E-36
3.33097E-01 2.62383E-36
3.37216E-01 3.32869E-36
3.41348E-01 4.02525E-36
3.45492E-01 4.68462E-36
3.49647E-01 5.28766E-36
3.53814E-01 5.82042E-36
3.57992E-01 6.27434E-36
3.62181E-01 6.64575E-36
3.66381E-01 6.93471E-36
3.70590E-01 7.14266E-36
3.74810E-01 7.27332E-36
3.79039E-01 7.33305E-36
3.83277E-01 7.32705E-36
3.87524E-01 7.26254E-36
3.91780E-01 7.14613E-36
3.96044E-01 6.98494E-36
4.00316E-01 6.78615E-36
4.04596E-01 6.55567E-36
4.08882E-01 6.30029E-36
4.13176E-01 6.02502E-36
4.17476E-01 5.73543E-36
4.21783E-01 5.43621E-36
4.26095E-01 5.13200E-36
4.30413E-01 4.82541E-36
4.34737E-01 4.52054E-36
4.39065E-01 4.21990E-36
4.43398E-01 3.92601E-36
4.47736E-01 3.64029E-36
4.52077E-01 3.36467E-36
4.56422E-01 3.10014E-36
4.60770E-01 2.84789E-36
4.65122E-01 2.60829E-36
4.69476E-01 2.38193E-36
4.73832E-01 2.16904E-36
4.78190E-01 1.96930E-36
4.82550E-01 1.78307E-36
4.86912E-01 1.60996E-36
4.91274E-01 1.44952E-36
4.95637E-01 1.30143E-36
5.00000E-01 1.16496E-36
5.04363E-01 1.04012E-36
5.08726E-01 9.25762E-37
5.13088E-01 8.21616E-37
5.17450E-01 7.26956E-37
5.21810E-01 6.41186E-37
5.26168E-01 5.63792E-37
5.30524E-01 4.94118E-37
5.34878E-01 4.31444E-37
5.39230E-01 3.75443E-37
5.43578E-01 3.25482E-37
5.47923E-01 2.81054E-37
5.52264E-01 2.41698E-37
5.56602E-01 2.06932E-37
5.60935E-01 1.76327E-37
5.65263E-01 1.49462E-37
5.69587E-01 1.26042E-37
5.73905E-01 1.05628E-37
5.78217E-01 8.79579E-38
5.82524E-01 7.27217E-38
5.86824E-01 5.96816E-38
5.91118E-01 4.85276E-38
5.95404E-01 3.90851E-38
5.99684E-01 3.11188E-38
6.03956E-01 2.44683E-38
6.08220E-01 1.89469E-38
6.12476E-01 1.44349E-38
6.16723E-01 1.07604E-38
6.20961E-01 7.82495E-39
6.25190E-01 5.50988E-39
6.29410E-01 3.73201E-39
6.33619E-01 2.40219E-39
6.37819E-01 1.44442E-39
6.42008E-01 8.03590E-40
6.46186E-01 4.15676E-40
6.50353E-01 2.35829E-40
6.54508E-01 2.21753E-40
6.58652E-01 3.36632E-40
6.62784E-01 5.51694E-40
6.66903E-01 8.37147E-40
6.71010E-01 1.16843E-39
6.75104E-01 1.53922E-39
6.79184E-01 1.92623E-39
6.83251E-01 2.31206E-39
6.87303E-01 2.69180E-39
6.91342E-01 3.06432E-39
6.95366E-01 3.41007E-39
6.99375E-01 3.74492E-39
7.03368E-01 4.02358E-39
7.07347E-01 4.28906E-39
7.11309E-01 4.51545E-39
7.15256E-01 4.72082E-39
7.19186E-01 4.88767E-39
7.23099E-01 5.01964E-39
7.26995E-01 5.12567E-39
7.30874E-01 5.19965E-39
7.34736E-01 5.24522E-39
7.38579E-01 5.27041E-39
7.42405E-01 5.27012E-39
7.46212E-01 5.24466E-39
7.50000E-01 5.21058E-39
7.53769E-01 5.14805E-39
7.57519E-01 5.07545E-39
7.61249E-01 4.97916E-39
7.64960E-01 4.88648E-39
7.68650E-01 4.77384E-39
7.72320E-01 4.65862E-39
7.75968E-01 4.52927E-39
7.79596E-01 4.39119E-39
7.83203E-01 4.25498E-39
7.86788E-01 4.11472E-39
7.90351E-01 3.96670E-39
7.93893E-01 3.81534E-39
7.97411E-01 3.66795E-39
8.00908E-01 3.51528E-39
8.04381E-01 3.36381E-39
8.07831E-01 3.22038E-39
8.11257E-01 3.07508E-39
8.14660E-01 2.92761E-39
8.18039E-01 2.78713E-39
8.21394E-01 2.65601E-39
8.24724E-01 2.51755E-39
8.28030E-01 2.39034E-39
8.31310E-01 2.27074E-39
8.34565E-01 2.14692E-39
8.37795E-01 2.02716E-39
8.40999E-01 1.92420E-39
8.44177E-01 1.81342E-39
8.47329E-01 1.71364E-39
8.50455E-01 1.61996E-39
8.53553E-01 1.52223E-39
8.56625E-01 1.43363E-39
8.59670E-01 1.34910E-39
8.62687E-01 1.26475E-39
8.65677E-01 1.18892E-39
8.68639E-01 1.11928E-39
8.71572E-01 1.04725E-39
8.74478E-01 9.85204E-40
8.77355E-01 9.18940E-40
8.80203E-01 8.60645E-40
8.83022E-01 8.06052E-40
8.85812E-01 7.51448E-40
8.88573E-01 6.98512E-40
8.91304E-01 6.53273E-40
8.94005E-01 6.09665E-40
8.96677E-01 5.62950E-40
8.99318E-01 5.26937E-40
9.01928E-01 4.88188E-40
9.04508E-01 4.54196E-40
9.07058E-01 4.23256E-40
9.09576E-01 3.93740E-40
9.12063E-01 3.65647E-40
9.14519E-01 3.39247E-40
9.16943E-01 3.15322E-40
9.19335E-01 2.92599E-40
9.21696E-01 2.69963E-40
9.24024E-01 2.51115E-40
9.26320E-01 2.31863E-40
9.28584E-01 2.15721E-40
9.30815E-01 1.99184E-40
9.33013E-01 1.85299E-40
9.35178E-01 1.70822E-40
9.37310E-01 1.58611E-40
9.39409E-01 1.46116E-40
9.41474E-01 1.34168E-40
9.43505E-01 1.24627E-40
9.45503E-01 1.14479E-40
9.47467E-01 1.04426E-40
9.49397E-01 9.55719E-41
9.51293E-01 8.79715E-41
9.53154E-01 8.13643E-41
9.54981E-01 7.48373E-41
9.56773E-01 6.72815E-41
9.58530E-01 6.22627E-41
9.60252E-01 5.69871E-41
9.61940E-01 5.28216E-41
9.63592E-01 4.82429E-41
9.65209E-01 4.48589E-41
9.66790E-01 4.10052E-41
9.68336E-01 3.75425E-41
9.69846E-01 3.42161E-41
9.71321E-01 3.21769E-41
9.72759E-01 2.89990E-41
9.74162E-01 2.57237E-41
9.75528E-01 2.48297E-41
9.76858E-01 2.23888E-41
9.78152E-01 2.09226E-41
9.79410E-01 1.84010E-41
9.80631E-01 1.65863E-41
9.81815E-01 1.48991E-41
9.82963E-01 1.41568E-41
9.84074E-01 1.18443E-41
9.85148E-01 1.14986E-41
9.86185E-01 9.45212E-42
9.87185E-01 8.51561E-42
9.88148E-01 7.37539E-42
9.89074E-01 6.65649E-42
9.89962E-01 5.92738E-42
9.90814E-01 5.44063E-42
9.91627E-01 4.44456E-42
9.92404E-01 4.01342E-42
9.93143E-01 3.43606E-42
9.93844E-01 3.45375E-42
9.94508E-01 2.78879E-42
9.95134E-01 2.35900E-42
9.95722E-01 2.21430E-42
9.96273E-01 2.15010E-42
9.96786E-01 1.72179E-42
9.97261E-01 1.67637E-42
9.97698E-01 1.19826E-42
9.98097E-01 1.20715E-42
9.98459E-01 9.23814E-43
9.98782E-01 8.34222E-43
9.99067E-01 9.30698E-43
9.99315E-01 3.70001E-43
9.99524E-01 4.41874E-43
9.99695E-01 4.83008E-43
9.99829E-01 3.30109E-43
9.99924E-01 1.90135E-43
9.99981E-01 7.82841E-43
1.00000E+00 4.66429E-42
