 #
 # Subroutine ELSEPA. Elastic scattering of electrons and positrons
 #                    by neutral atoms and positive ions
 #
 # Projectile: positron
 # Kinetic energy = 1.00000E+09 eV = 3.67493E+07 a.u.
 #
 # WARNING: High-energy factorization with free-atom DF screening.
 #          Absorption, polarization and exchange corrections are
 #          switched off.
 #          Phase shifts are calculated for the bare nucleus.
 #          Scattering amplitudes are not evaluated.
 #
 # Element:  N,  Z =   7,  atomic weight = 1.40067E+01 g/mol
 #
 # Nuclear model: Fermi distribution
 #                Average radius = 2.57926E-13 cm
 #                Skin thickness = 5.46000E-14 cm
 #
 # Number of electrons =  7
 #
 # Total elastic cross section = 2.59299E-19 cm**2 = 9.25974E-03 a0**2
 # 1st transport cross section = 1.11219E-28 cm**2 = 3.97169E-12 a0**2
 # 2nd transport cross section = 3.33589E-28 cm**2 = 1.19127E-11 a0**2
 #
 #
 # Differential cross section:                       MU=(1-COS(THETA))/2
 #
 #  THETA        MU          DCS          DCS        Sherman      error
 #  (deg)                 (cm**2/sr)   (a0**2/sr)    function
 #----------------------------------------------------------------------
0.00000E+00 1.86624E-09
7.61557E-13 1.65373E-09
1.18994E-12 1.54924E-09
1.71346E-12 1.43097E-09
2.33225E-12 1.31185E-09
3.04617E-12 1.18690E-09
3.85530E-12 1.06766E-09
4.75964E-12 9.56228E-10
5.75917E-12 8.47225E-10
6.85391E-12 7.48326E-10
8.04379E-12 6.60016E-10
9.32893E-12 5.79456E-10
1.07092E-11 5.07102E-10
1.21847E-11 4.44037E-10
1.37554E-11 3.88763E-10
1.54213E-11 3.39319E-10
1.71823E-11 2.96706E-10
1.90386E-11 2.59870E-10
2.09900E-11 2.27425E-10
2.30367E-11 1.99354E-10
2.51785E-11 1.75147E-10
2.74156E-11 1.54081E-10
2.97478E-11 1.35718E-10
3.21752E-11 1.19854E-10
3.46979E-11 1.06099E-10
3.73157E-11 9.40214E-11
4.00286E-11 8.35500E-11
4.28368E-11 7.44378E-11
4.57402E-11 6.64517E-11
4.87388E-11 5.94602E-11
5.18325E-11 5.33370E-11
5.50215E-11 4.79522E-11
5.83057E-11 4.32004E-11
6.16850E-11 3.90115E-11
6.51595E-11 3.53085E-11
6.87293E-11 3.20213E-11
7.23943E-11 2.91041E-11
7.61544E-11 2.65094E-11
1.18991E-10 1.15708E-11
1.71347E-10 5.89296E-12
2.33223E-10 3.35180E-12
3.04617E-10 2.06363E-12
3.85531E-10 1.34588E-12
4.75965E-10 9.17080E-13
5.75917E-10 6.46922E-13
6.85389E-10 4.69347E-13
8.04380E-10 3.48496E-13
9.32891E-10 2.63945E-13
1.07092E-09 2.03406E-13
1.21847E-09 1.59156E-13
1.37554E-09 1.26216E-13
1.54213E-09 1.01304E-13
1.71823E-09 8.22050E-14
1.90386E-09 6.73716E-14
2.09900E-09 5.57151E-14
2.30367E-09 4.64563E-14
2.51785E-09 3.90326E-14
2.74156E-09 3.30264E-14
2.97478E-09 2.81265E-14
3.21752E-09 2.40975E-14
3.46978E-09 2.07619E-14
3.73156E-09 1.79817E-14
4.00286E-09 1.56499E-14
4.28368E-09 1.36827E-14
4.57402E-09 1.20142E-14
4.87388E-09 1.05916E-14
5.18326E-09 9.37302E-15
5.50215E-09 8.32425E-15
5.83057E-09 7.41781E-15
6.16850E-09 6.63120E-15
6.51596E-09 5.94595E-15
6.87293E-09 5.34680E-15
7.23942E-09 4.82112E-15
7.61544E-09 4.35839E-15
1.18991E-08 1.78905E-15
1.71347E-08 8.63511E-16
2.33223E-08 4.66283E-16
3.04617E-08 2.73381E-16
3.85531E-08 1.70681E-16
4.75965E-08 1.11987E-16
5.75917E-08 7.64904E-17
6.85389E-08 5.40082E-17
8.04380E-08 3.92117E-17
9.32891E-08 2.91529E-17
1.07092E-07 2.21223E-17
1.21847E-07 1.70890E-17
1.37554E-07 1.34092E-17
1.54213E-07 1.06687E-17
1.71823E-07 8.59382E-18
1.90386E-07 6.99972E-18
2.09900E-07 5.75869E-18
2.30367E-07 4.78090E-18
2.51785E-07 4.00211E-18
2.74156E-07 3.37563E-18
2.97478E-07 2.86707E-18
3.21752E-07 2.45078E-18
3.46978E-07 2.10738E-18
3.73156E-07 1.82207E-18
4.00286E-07 1.58345E-18
4.28368E-07 1.38264E-18
4.57402E-07 1.21268E-18
4.87388E-07 1.06805E-18
5.18325E-07 9.44355E-19
5.50215E-07 8.38059E-19
5.83057E-07 7.46306E-19
6.16850E-07 6.66772E-19
6.51596E-07 5.97557E-19
6.87293E-07 5.37095E-19
7.23942E-07 4.84089E-19
7.61543E-07 4.37464E-19
1.18991E-06 1.79180E-19
1.71347E-06 8.64072E-20
2.33223E-06 4.66389E-20
3.04617E-06 2.73380E-20
3.85531E-06 1.70664E-20
4.75964E-06 1.11969E-20
5.75916E-06 7.64736E-21
6.85388E-06 5.39936E-21
8.04378E-06 3.91994E-21
9.32888E-06 2.91424E-21
1.07092E-05 2.21136E-21
1.21846E-05 1.70816E-21
1.37553E-05 1.34029E-21
1.54212E-05 1.06633E-21
1.71822E-05 8.58916E-22
1.90385E-05 6.99801E-22
2.09899E-05 5.75683E-22
2.30365E-05 4.77850E-22
2.51783E-05 3.99926E-22
2.74153E-05 3.37267E-22
2.97475E-05 2.86432E-22
3.21749E-05 2.44844E-22
3.46974E-05 2.10549E-22
3.73152E-05 1.82057E-22
4.00281E-05 1.58221E-22
4.28362E-05 1.38155E-22
4.57395E-05 1.21164E-22
4.87380E-05 1.06704E-22
5.18317E-05 9.43362E-23
5.50205E-05 8.37112E-23
5.83045E-05 7.45433E-23
6.16838E-05 6.65989E-23
6.51582E-05 5.96864E-23
6.87277E-05 5.36479E-23
7.23925E-05 4.83533E-23
7.61524E-05 4.28136E-23
9.21439E-05 2.91086E-23
1.09658E-04 2.04539E-23
1.28695E-04 1.47709E-23
1.49255E-04 1.09189E-23
1.71338E-04 8.23504E-24
1.94942E-04 6.31948E-24
2.20070E-04 4.92429E-24
2.46720E-04 3.88883E-24
2.74892E-04 3.10812E-24
3.04586E-04 2.51077E-24
3.35803E-04 2.04775E-24
3.68542E-04 1.68469E-24
4.02802E-04 1.39688E-24
4.38585E-04 1.16657E-24
4.75889E-04 9.80606E-25
5.14715E-04 8.29234E-25
5.55063E-04 7.05101E-25
5.96931E-04 6.02587E-25
6.40321E-04 5.17405E-25
6.85233E-04 4.46188E-25
7.31665E-04 3.86328E-25
7.79618E-04 3.35753E-25
8.29092E-04 2.92815E-25
8.80086E-04 2.56203E-25
9.32601E-04 2.24849E-25
9.86636E-04 1.97895E-25
1.04219E-03 1.74636E-25
1.09927E-03 1.54496E-25
1.15786E-03 1.37000E-25
1.21797E-03 1.21753E-25
1.27961E-03 1.08429E-25
1.34276E-03 9.67510E-26
1.40743E-03 8.64904E-26
1.47362E-03 7.74523E-26
1.54133E-03 6.94723E-26
1.61056E-03 6.24113E-26
1.68131E-03 5.61498E-26
1.75357E-03 5.05866E-26
1.82735E-03 4.56341E-26
1.90265E-03 4.12174E-26
1.97947E-03 3.72719E-26
2.05780E-03 3.37412E-26
2.13765E-03 3.05772E-26
2.21902E-03 2.77372E-26
2.30190E-03 2.51847E-26
2.38630E-03 2.28874E-26
2.47222E-03 2.08172E-26
2.55965E-03 1.89493E-26
2.64859E-03 1.72620E-26
2.73905E-03 1.57361E-26
2.83103E-03 1.43548E-26
2.92452E-03 1.31030E-26
3.01952E-03 1.19676E-26
3.11604E-03 1.09367E-26
3.21407E-03 9.99997E-27
3.31362E-03 9.14805E-27
3.41468E-03 8.37267E-27
3.51725E-03 7.66641E-27
3.62133E-03 7.02264E-27
3.72692E-03 6.43545E-27
3.83403E-03 5.89948E-27
3.94265E-03 5.41000E-27
4.05278E-03 4.96270E-27
4.16442E-03 4.55371E-27
4.27757E-03 4.17956E-27
4.39223E-03 3.83710E-27
4.50840E-03 3.52351E-27
4.62608E-03 3.23622E-27
4.74527E-03 2.97292E-27
4.86597E-03 2.73150E-27
4.98817E-03 2.51006E-27
5.11188E-03 2.30689E-27
5.23711E-03 2.12040E-27
5.36383E-03 1.94919E-27
5.49207E-03 1.79194E-27
5.62181E-03 1.64749E-27
5.75306E-03 1.51475E-27
5.88581E-03 1.39276E-27
6.02007E-03 1.28061E-27
6.15583E-03 1.17750E-27
6.29310E-03 1.08267E-27
6.43187E-03 9.95457E-28
6.57214E-03 9.15228E-28
6.71392E-03 8.41418E-28
6.85720E-03 7.73504E-28
7.00198E-03 7.11012E-28
7.14827E-03 6.53503E-28
7.29605E-03 6.00577E-28
7.44534E-03 5.51868E-28
7.59612E-03 5.07036E-28
7.97965E-03 4.09958E-28
8.37255E-03 3.31070E-28
8.77480E-03 2.66983E-28
9.18641E-03 2.14948E-28
9.60736E-03 1.72728E-28
1.00376E-02 1.38506E-28
1.04773E-02 1.10800E-28
1.09262E-02 8.83996E-29
1.13844E-02 7.03200E-29
1.18520E-02 5.57550E-29
1.23288E-02 4.40470E-29
1.28150E-02 3.46584E-29
1.33104E-02 2.71503E-29
1.38150E-02 2.11646E-29
1.43290E-02 1.64089E-29
1.48521E-02 1.26448E-29
1.53845E-02 9.67842E-30
1.59262E-02 7.35182E-30
1.64770E-02 5.53685E-30
1.70371E-02 4.12961E-30
1.76063E-02 3.04602E-30
1.81848E-02 2.21823E-30
1.87724E-02 1.59163E-30
1.93692E-02 1.12237E-30
1.99751E-02 7.75366E-31
2.05901E-02 5.22683E-31
2.12143E-02 3.42139E-31
2.18476E-02 2.16221E-31
2.24900E-02 1.31178E-31
2.31415E-02 7.62781E-32
2.38021E-02 4.32106E-32
2.44717E-02 2.55921E-32
2.51504E-02 1.85706E-32
2.58382E-02 1.85021E-32
2.65349E-02 2.26910E-32
2.72407E-02 2.91804E-32
2.79555E-02 3.65844E-32
2.86793E-02 4.39540E-32
2.94120E-02 5.06708E-32
3.01537E-02 5.63625E-32
3.09043E-02 6.08376E-32
3.16639E-02 6.40333E-32
3.24324E-02 6.59765E-32
3.32098E-02 6.67528E-32
3.39961E-02 6.64844E-32
3.47912E-02 6.53126E-32
3.55952E-02 6.33858E-32
3.64081E-02 6.08507E-32
3.72297E-02 5.78462E-32
3.80602E-02 5.45001E-32
3.88995E-02 5.09265E-32
3.97476E-02 4.72251E-32
4.06044E-02 4.34809E-32
4.14700E-02 3.97647E-32
4.23443E-02 3.61340E-32
4.32273E-02 3.26343E-32
4.41190E-02 2.92999E-32
4.50194E-02 2.61558E-32
4.59284E-02 2.32186E-32
4.68461E-02 2.04979E-32
4.87074E-02 1.57161E-32
5.06030E-02 1.17888E-32
5.25328E-02 8.64625E-33
5.44967E-02 6.19273E-33
5.64946E-02 4.32291E-33
5.85262E-02 2.93244E-33
6.05914E-02 1.92480E-33
6.26901E-02 1.21493E-33
6.48222E-02 7.30670E-34
6.69873E-02 4.12794E-34
6.91854E-02 2.14098E-34
7.14163E-02 9.79895E-35
7.36799E-02 3.68871E-35
7.59760E-02 1.06012E-35
7.83043E-02 4.82671E-36
8.06647E-02 9.80476E-36
8.30571E-02 1.91882E-35
8.54812E-02 2.91120E-35
8.79369E-02 3.74534E-35
9.04240E-02 4.32603E-35
9.29422E-02 4.63259E-35
9.54915E-02 4.68810E-35
9.80716E-02 4.53770E-35
1.00682E-01 4.23446E-35
1.03323E-01 3.83044E-35
1.05995E-01 3.37149E-35
1.08696E-01 2.89521E-35
1.11427E-01 2.42990E-35
1.14188E-01 1.99559E-35
1.16978E-01 1.60463E-35
1.19797E-01 1.26345E-35
1.22645E-01 9.73793E-36
1.25522E-01 7.34026E-36
1.28428E-01 5.40320E-36
1.31361E-01 3.87509E-36
1.34323E-01 2.69911E-36
1.37313E-01 1.81737E-36
1.40330E-01 1.17508E-36
1.43375E-01 7.22221E-37
1.46447E-01 4.15545E-37
1.49545E-01 2.18132E-37
1.52671E-01 9.98927E-38
1.55823E-01 3.66823E-38
1.59001E-01 9.92456E-39
1.62205E-01 5.68101E-39
1.65435E-01 1.38889E-38
1.68690E-01 2.76158E-38
1.71970E-01 4.23120E-38
1.75276E-01 5.52696E-38
1.78606E-01 6.50880E-38
1.81961E-01 7.12369E-38
1.85340E-01 7.38143E-38
1.88743E-01 7.32132E-38
1.92169E-01 7.00553E-38
1.95619E-01 6.49894E-38
1.99092E-01 5.86712E-38
2.02589E-01 5.16579E-38
2.06107E-01 4.44626E-38
2.09649E-01 3.74250E-38
2.13212E-01 3.08585E-38
2.16797E-01 2.49122E-38
2.20404E-01 1.96719E-38
2.24032E-01 1.52105E-38
2.27680E-01 1.14668E-38
2.31350E-01 8.42314E-39
2.35040E-01 5.99233E-39
2.38751E-01 4.11468E-39
2.42481E-01 2.69416E-39
2.46231E-01 1.66551E-39
2.50000E-01 9.49574E-40
2.53788E-01 1.00000E-45
2.57595E-01 1.00000E-45
2.61421E-01 1.00000E-45
2.65264E-01 1.00000E-45
2.69126E-01 1.00000E-45
2.73005E-01 1.00000E-45
2.76901E-01 1.00000E-45
2.80814E-01 1.00000E-45
2.84744E-01 1.00000E-45
2.88691E-01 1.00000E-45
2.92653E-01 1.00000E-45
2.96632E-01 1.00000E-45
3.00625E-01 1.00000E-45
3.04634E-01 1.00000E-45
3.08658E-01 1.00000E-45
3.12697E-01 1.00000E-45
3.16749E-01 1.00000E-45
3.20816E-01 1.00000E-45
3.24896E-01 1.00000E-45
3.28990E-01 1.00000E-45
3.33097E-01 1.00000E-45
3.37216E-01 1.00000E-45
3.41348E-01 1.00000E-45
3.45492E-01 1.00000E-45
3.49647E-01 1.00000E-45
3.53814E-01 1.00000E-45
3.57992E-01 1.00000E-45
3.62181E-01 1.00000E-45
3.66381E-01 1.00000E-45
3.70590E-01 1.00000E-45
3.74810E-01 1.00000E-45
3.79039E-01 1.00000E-45
3.83277E-01 1.00000E-45
3.87524E-01 1.00000E-45
3.91780E-01 1.00000E-45
3.96044E-01 1.00000E-45
4.00316E-01 1.00000E-45
4.04596E-01 1.00000E-45
4.08882E-01 1.00000E-45
4.13176E-01 1.00000E-45
4.17476E-01 1.00000E-45
4.21783E-01 1.00000E-45
4.26095E-01 1.00000E-45
4.30413E-01 1.00000E-45
4.34737E-01 1.00000E-45
4.39065E-01 1.00000E-45
4.43398E-01 1.00000E-45
4.47736E-01 1.00000E-45
4.52077E-01 1.00000E-45
4.56422E-01 1.00000E-45
4.60770E-01 1.00000E-45
4.65122E-01 1.00000E-45
4.69476E-01 1.00000E-45
4.73832E-01 1.00000E-45
4.78190E-01 1.00000E-45
4.82550E-01 1.00000E-45
4.86912E-01 1.00000E-45
4.91274E-01 1.00000E-45
4.95637E-01 1.00000E-45
5.00000E-01 1.00000E-45
5.04363E-01 1.00000E-45
5.08726E-01 1.00000E-45
5.13088E-01 1.00000E-45
5.17450E-01 1.00000E-45
5.21810E-01 1.00000E-45
5.26168E-01 1.00000E-45
5.30524E-01 1.00000E-45
5.34878E-01 1.00000E-45
5.39230E-01 1.00000E-45
5.43578E-01 1.00000E-45
5.47923E-01 1.00000E-45
5.52264E-01 1.00000E-45
5.56602E-01 1.00000E-45
5.60935E-01 1.00000E-45
5.65263E-01 1.00000E-45
5.69587E-01 1.00000E-45
5.73905E-01 1.00000E-45
5.78217E-01 1.00000E-45
5.82524E-01 1.00000E-45
5.86824E-01 1.00000E-45
5.91118E-01 1.00000E-45
5.95404E-01 1.00000E-45
5.99684E-01 1.00000E-45
6.03956E-01 1.00000E-45
6.08220E-01 1.00000E-45
6.12476E-01 1.00000E-45
6.16723E-01 1.00000E-45
6.20961E-01 1.00000E-45
6.25190E-01 1.00000E-45
6.29410E-01 1.00000E-45
6.33619E-01 1.00000E-45
6.37819E-01 1.00000E-45
6.42008E-01 1.00000E-45
6.46186E-01 1.00000E-45
6.50353E-01 1.00000E-45
6.54508E-01 1.00000E-45
6.58652E-01 1.00000E-45
6.62784E-01 1.00000E-45
6.66903E-01 1.00000E-45
6.71010E-01 1.00000E-45
6.75104E-01 1.00000E-45
6.79184E-01 1.00000E-45
6.83251E-01 1.00000E-45
6.87303E-01 1.00000E-45
6.91342E-01 1.00000E-45
6.95366E-01 1.00000E-45
6.99375E-01 1.00000E-45
7.03368E-01 1.00000E-45
7.07347E-01 1.00000E-45
7.11309E-01 1.00000E-45
7.15256E-01 1.00000E-45
7.19186E-01 1.00000E-45
7.23099E-01 1.00000E-45
7.26995E-01 1.00000E-45
7.30874E-01 1.00000E-45
7.34736E-01 1.00000E-45
7.38579E-01 1.00000E-45
7.42405E-01 1.00000E-45
7.46212E-01 1.00000E-45
7.50000E-01 1.00000E-45
7.53769E-01 1.00000E-45
7.57519E-01 1.00000E-45
7.61249E-01 1.00000E-45
7.64960E-01 1.00000E-45
7.68650E-01 1.00000E-45
7.72320E-01 1.00000E-45
7.75968E-01 1.00000E-45
7.79596E-01 1.00000E-45
7.83203E-01 1.00000E-45
7.86788E-01 1.00000E-45
7.90351E-01 1.00000E-45
7.93893E-01 1.00000E-45
7.97411E-01 1.00000E-45
8.00908E-01 1.00000E-45
8.04381E-01 1.00000E-45
8.07831E-01 1.00000E-45
8.11257E-01 1.00000E-45
8.14660E-01 1.00000E-45
8.18039E-01 1.00000E-45
8.21394E-01 1.00000E-45
8.24724E-01 1.00000E-45
8.28030E-01 1.00000E-45
8.31310E-01 1.00000E-45
8.34565E-01 1.00000E-45
8.37795E-01 1.00000E-45
8.40999E-01 1.00000E-45
8.44177E-01 1.00000E-45
8.47329E-01 1.00000E-45
8.50455E-01 1.00000E-45
8.53553E-01 1.00000E-45
8.56625E-01 1.00000E-45
8.59670E-01 1.00000E-45
8.62687E-01 1.00000E-45
8.65677E-01 1.00000E-45
8.68639E-01 1.00000E-45
8.71572E-01 1.00000E-45
8.74478E-01 1.00000E-45
8.77355E-01 1.00000E-45
8.80203E-01 1.00000E-45
8.83022E-01 1.00000E-45
8.85812E-01 1.00000E-45
8.88573E-01 1.00000E-45
8.91304E-01 1.00000E-45
8.94005E-01 1.00000E-45
8.96677E-01 1.00000E-45
8.99318E-01 1.00000E-45
9.01928E-01 1.00000E-45
9.04508E-01 1.00000E-45
9.07058E-01 1.00000E-45
9.09576E-01 1.00000E-45
9.12063E-01 1.00000E-45
9.14519E-01 1.00000E-45
9.16943E-01 1.00000E-45
9.19335E-01 1.00000E-45
9.21696E-01 1.00000E-45
9.24024E-01 1.00000E-45
9.26320E-01 1.00000E-45
9.28584E-01 1.00000E-45
9.30815E-01 1.00000E-45
9.33013E-01 1.00000E-45
9.35178E-01 1.00000E-45
9.37310E-01 1.00000E-45
9.39409E-01 1.00000E-45
9.41474E-01 1.00000E-45
9.43505E-01 1.00000E-45
9.45503E-01 1.00000E-45
9.47467E-01 1.00000E-45
9.49397E-01 1.00000E-45
9.51293E-01 1.00000E-45
9.53154E-01 1.00000E-45
9.54981E-01 1.00000E-45
9.56773E-01 1.00000E-45
9.58530E-01 1.00000E-45
9.60252E-01 1.00000E-45
9.61940E-01 1.00000E-45
9.63592E-01 1.00000E-45
9.65209E-01 1.00000E-45
9.66790E-01 1.00000E-45
9.68336E-01 1.00000E-45
9.69846E-01 1.00000E-45
9.71321E-01 1.00000E-45
9.72759E-01 1.00000E-45
9.74162E-01 1.00000E-45
9.75528E-01 1.00000E-45
9.76858E-01 1.00000E-45
9.78152E-01 1.00000E-45
9.79410E-01 1.00000E-45
9.80631E-01 1.00000E-45
9.81815E-01 1.00000E-45
9.82963E-01 1.00000E-45
9.84074E-01 1.00000E-45
9.85148E-01 1.00000E-45
9.86185E-01 1.00000E-45
9.87185E-01 1.00000E-45
9.88148E-01 1.00000E-45
9.89074E-01 1.00000E-45
9.89962E-01 1.00000E-45
9.90814E-01 1.00000E-45
9.91627E-01 1.00000E-45
9.92404E-01 1.00000E-45
9.93143E-01 1.00000E-45
9.93844E-01 1.00000E-45
9.94508E-01 1.00000E-45
9.95134E-01 1.00000E-45
9.95722E-01 1.00000E-45
9.96273E-01 1.00000E-45
9.96786E-01 1.00000E-45
9.97261E-01 1.00000E-45
9.97698E-01 1.00000E-45
9.98097E-01 1.00000E-45
9.98459E-01 1.00000E-45
9.98782E-01 1.00000E-45
9.99067E-01 1.00000E-45
9.99315E-01 1.00000E-45
9.99524E-01 1.00000E-45
9.99695E-01 1.00000E-45
9.99829E-01 1.00000E-45
9.99924E-01 1.00000E-45
9.99981E-01 1.00000E-45
1.00000E+00 1.00000E-45
