 #
 # Subroutine ELSEPA. Elastic scattering of electrons and positrons
 #                    by neutral atoms and positive ions
 #
 # Projectile: positron
 # Kinetic energy = 8.00000E+07 eV = 2.93995E+06 a.u.
 #
 # WARNING: High-energy factorization with free-atom DF screening.
 #          Absorption, polarization and exchange corrections are
 #          switched off.
 #          Phase shifts are calculated for the bare nucleus.
 #          Scattering amplitudes are not evaluated.
 #
 # Element:  N,  Z =   7,  atomic weight = 1.40067E+01 g/mol
 #
 # Nuclear model: Fermi distribution
 #                Average radius = 2.57926E-13 cm
 #                Skin thickness = 5.46000E-14 cm
 #
 # Number of electrons =  7
 #
 # Total elastic cross section = 2.60278E-19 cm**2 = 9.29471E-03 a0**2
 # 1st transport cross section = 1.65777E-26 cm**2 = 5.91999E-10 a0**2
 # 2nd transport cross section = 4.88630E-26 cm**2 = 1.74493E-09 a0**2
 #
 #
 # Differential cross section:                       MU=(1-COS(THETA))/2
 #
 #  THETA        MU          DCS          DCS        Sherman      error
 #  (deg)                 (cm**2/sr)   (a0**2/sr)    function
 #----------------------------------------------------------------------
0.00000E+00 1.20847E-11
7.61557E-13 1.20749E-11
1.18994E-12 1.20694E-11
1.71346E-12 1.20627E-11
2.33225E-12 1.20548E-11
3.04617E-12 1.20457E-11
3.85530E-12 1.20355E-11
4.75964E-12 1.20240E-11
5.75917E-12 1.20113E-11
6.85391E-12 1.19975E-11
8.04379E-12 1.19824E-11
9.32893E-12 1.19663E-11
1.07092E-11 1.19489E-11
1.21847E-11 1.19304E-11
1.37554E-11 1.19107E-11
1.54213E-11 1.18899E-11
1.71823E-11 1.18680E-11
1.90386E-11 1.18450E-11
2.09900E-11 1.18208E-11
2.30367E-11 1.17955E-11
2.51785E-11 1.17692E-11
2.74156E-11 1.17418E-11
2.97478E-11 1.17133E-11
3.21752E-11 1.16837E-11
3.46979E-11 1.16531E-11
3.73157E-11 1.16215E-11
4.00286E-11 1.15888E-11
4.28368E-11 1.15552E-11
4.57402E-11 1.15205E-11
4.87388E-11 1.14849E-11
5.18325E-11 1.14483E-11
5.50215E-11 1.14108E-11
5.83057E-11 1.13723E-11
6.16850E-11 1.13329E-11
6.51595E-11 1.12927E-11
6.87293E-11 1.12514E-11
7.23943E-11 1.12094E-11
7.61544E-11 1.11664E-11
1.18991E-10 1.06937E-11
1.71347E-10 1.01543E-11
2.33223E-10 9.56554E-12
3.04617E-10 8.91777E-12
3.85531E-10 8.30041E-12
4.75965E-10 7.64996E-12
5.75917E-10 7.03113E-12
6.85389E-10 6.42968E-12
8.04380E-10 5.84955E-12
9.32891E-10 5.32059E-12
1.07092E-09 4.80291E-12
1.21847E-09 4.34689E-12
1.37554E-09 3.90799E-12
1.54213E-09 3.51956E-12
1.71823E-09 3.16182E-12
1.90386E-09 2.83869E-12
2.09900E-09 2.55064E-12
2.30367E-09 2.28632E-12
2.51785E-09 2.05548E-12
2.74156E-09 1.84241E-12
2.97478E-09 1.65610E-12
3.21752E-09 1.48774E-12
3.46978E-09 1.33827E-12
3.73156E-09 1.20522E-12
4.00286E-09 1.08568E-12
4.28368E-09 9.80358E-13
4.57402E-09 8.84879E-13
4.87388E-09 8.00716E-13
5.18326E-09 7.24952E-13
5.50215E-09 6.57517E-13
5.83057E-09 5.97123E-13
6.16850E-09 5.43010E-13
6.51596E-09 4.94752E-13
6.87293E-09 4.51208E-13
7.23942E-09 4.12323E-13
7.61544E-09 3.77201E-13
1.18991E-08 1.67990E-13
1.71347E-08 8.53370E-14
2.33223E-08 4.81625E-14
3.04617E-08 2.94723E-14
3.85531E-08 1.91774E-14
4.75965E-08 1.30815E-14
5.75917E-08 9.25612E-15
6.85389E-08 6.74795E-15
8.04380E-08 5.03665E-15
9.32891E-08 3.83725E-15
1.07092E-07 2.97382E-15
1.21847E-07 2.33923E-15
1.37554E-07 1.86465E-15
1.54213E-07 1.50342E-15
1.71823E-07 1.22518E-15
1.90386E-07 1.00780E-15
2.09900E-07 8.36226E-16
2.30367E-07 6.99381E-16
2.51785E-07 5.89163E-16
2.74156E-07 4.99700E-16
2.97478E-07 4.26429E-16
3.21752E-07 3.66032E-16
3.46978E-07 3.15883E-16
3.73156E-07 2.73979E-16
4.00286E-07 2.38762E-16
4.28368E-07 2.08987E-16
4.57402E-07 1.83693E-16
4.87388E-07 1.62089E-16
5.18325E-07 1.43557E-16
5.50215E-07 1.27587E-16
5.83057E-07 1.13768E-16
6.16850E-07 1.01764E-16
6.51596E-07 9.12950E-17
6.87293E-07 8.21346E-17
7.23942E-07 7.40909E-17
7.61543E-07 6.70053E-17
1.18991E-06 2.75690E-17
1.71347E-06 1.33193E-17
2.33223E-06 7.19534E-18
3.04617E-06 4.21949E-18
3.85531E-06 2.63477E-18
4.75964E-06 1.72887E-18
5.75916E-06 1.18086E-18
6.85388E-06 8.33764E-19
8.04378E-06 6.05327E-19
9.32888E-06 4.50033E-19
1.07092E-05 3.41494E-19
1.21846E-05 2.63790E-19
1.37553E-05 2.06982E-19
1.54212E-05 1.64675E-19
1.71822E-05 1.32645E-19
1.90385E-05 1.08073E-19
2.09899E-05 8.89056E-20
2.30365E-05 7.37971E-20
2.51783E-05 6.17632E-20
2.74153E-05 5.20865E-20
2.97475E-05 4.42359E-20
3.21749E-05 3.78132E-20
3.46974E-05 3.25168E-20
3.73152E-05 2.81165E-20
4.00281E-05 2.44355E-20
4.28362E-05 2.13365E-20
4.57395E-05 1.87125E-20
4.87380E-05 1.64792E-20
5.18317E-05 1.45693E-20
5.50205E-05 1.29284E-20
5.83045E-05 1.15125E-20
6.16838E-05 1.02856E-20
6.51582E-05 9.21799E-21
6.87277E-05 8.28541E-21
7.23925E-05 7.46771E-21
7.61524E-05 6.74749E-21
9.21439E-05 4.60738E-21
1.09658E-04 3.25282E-21
1.28695E-04 2.36115E-21
1.49255E-04 1.75514E-21
1.71338E-04 1.33166E-21
1.94942E-04 1.02846E-21
2.20070E-04 8.06877E-22
2.46720E-04 6.41835E-22
2.74892E-04 5.16920E-22
3.04586E-04 4.20956E-22
3.35803E-04 3.46252E-22
3.68542E-04 2.87410E-22
4.02802E-04 2.40541E-22
4.38585E-04 2.02850E-22
4.75889E-04 1.72254E-22
5.14715E-04 1.47213E-22
5.55063E-04 1.26561E-22
5.96931E-04 1.09402E-22
6.40321E-04 9.50558E-23
6.85233E-04 8.29830E-23
7.31665E-04 7.27670E-23
7.79618E-04 6.40746E-23
8.29092E-04 5.66411E-23
8.80086E-04 5.02546E-23
9.32601E-04 4.47423E-23
9.86636E-04 3.99651E-23
1.04219E-03 3.58082E-23
1.09927E-03 3.21774E-23
1.15786E-03 2.89951E-23
1.21797E-03 2.61961E-23
1.27961E-03 2.37266E-23
1.34276E-03 2.15410E-23
1.40743E-03 1.96011E-23
1.47362E-03 1.78745E-23
1.54133E-03 1.63336E-23
1.61056E-03 1.49551E-23
1.68131E-03 1.37188E-23
1.75357E-03 1.26075E-23
1.82735E-03 1.16063E-23
1.90265E-03 1.07024E-23
1.97947E-03 9.88464E-24
2.05780E-03 9.14340E-24
2.13765E-03 8.47028E-24
2.21902E-03 7.85785E-24
2.30190E-03 7.29970E-24
2.38630E-03 6.79015E-24
2.47222E-03 6.32421E-24
2.55965E-03 5.89749E-24
2.64859E-03 5.50608E-24
2.73905E-03 5.14656E-24
2.83103E-03 4.81584E-24
2.92452E-03 4.51121E-24
3.01952E-03 4.23024E-24
3.11604E-03 3.97075E-24
3.21407E-03 3.73082E-24
3.31362E-03 3.50869E-24
3.41468E-03 3.30282E-24
3.51725E-03 3.11178E-24
3.62133E-03 2.93433E-24
3.72692E-03 2.76931E-24
3.83403E-03 2.61570E-24
3.94265E-03 2.47256E-24
4.05278E-03 2.33906E-24
4.16442E-03 2.21442E-24
4.27757E-03 2.09794E-24
4.39223E-03 1.98901E-24
4.50840E-03 1.88703E-24
4.62608E-03 1.79148E-24
4.74527E-03 1.70188E-24
4.86597E-03 1.61780E-24
4.98817E-03 1.53883E-24
5.11188E-03 1.46460E-24
5.23711E-03 1.39478E-24
5.36383E-03 1.32905E-24
5.49207E-03 1.26714E-24
5.62181E-03 1.20877E-24
5.75306E-03 1.15372E-24
5.88581E-03 1.10175E-24
6.02007E-03 1.05266E-24
6.15583E-03 1.00627E-24
6.29310E-03 9.62390E-25
6.43187E-03 9.20868E-25
6.57214E-03 8.81551E-25
6.71392E-03 8.44302E-25
6.85720E-03 8.08990E-25
7.00198E-03 7.75496E-25
7.14827E-03 7.43710E-25
7.29605E-03 7.13528E-25
7.44534E-03 6.84854E-25
7.59612E-03 6.57599E-25
7.97965E-03 5.95135E-25
8.37255E-03 5.39879E-25
8.77480E-03 4.90857E-25
9.18641E-03 4.47245E-25
9.60736E-03 4.08344E-25
1.00376E-02 3.73557E-25
1.04773E-02 3.42375E-25
1.09262E-02 3.14358E-25
1.13844E-02 2.89131E-25
1.18520E-02 2.66367E-25
1.23288E-02 2.45784E-25
1.28150E-02 2.27137E-25
1.33104E-02 2.10212E-25
1.38150E-02 1.94821E-25
1.43290E-02 1.80802E-25
1.48521E-02 1.68011E-25
1.53845E-02 1.56322E-25
1.59262E-02 1.45622E-25
1.64770E-02 1.35814E-25
1.70371E-02 1.26810E-25
1.76063E-02 1.18532E-25
1.81848E-02 1.10912E-25
1.87724E-02 1.03888E-25
1.93692E-02 9.74053E-26
1.99751E-02 9.14147E-26
2.05901E-02 8.58724E-26
2.12143E-02 8.07387E-26
2.18476E-02 7.59783E-26
2.24900E-02 7.15592E-26
2.31415E-02 6.74527E-26
2.38021E-02 6.36325E-26
2.44717E-02 6.00754E-26
2.51504E-02 5.67599E-26
2.58382E-02 5.36667E-26
2.65349E-02 5.07782E-26
2.72407E-02 4.80786E-26
2.79555E-02 4.55532E-26
2.86793E-02 4.31889E-26
2.94120E-02 4.09734E-26
3.01537E-02 3.88959E-26
3.09043E-02 3.69462E-26
3.16639E-02 3.51149E-26
3.24324E-02 3.33938E-26
3.32098E-02 3.17748E-26
3.39961E-02 3.02510E-26
3.47912E-02 2.88157E-26
3.55952E-02 2.74629E-26
3.64081E-02 2.61870E-26
3.72297E-02 2.49828E-26
3.80602E-02 2.38456E-26
3.88995E-02 2.27711E-26
3.97476E-02 2.17551E-26
4.06044E-02 2.07938E-26
4.14700E-02 1.98839E-26
4.23443E-02 1.90221E-26
4.32273E-02 1.82055E-26
4.41190E-02 1.74311E-26
4.50194E-02 1.66965E-26
4.59284E-02 1.59992E-26
4.68461E-02 1.53370E-26
4.87074E-02 1.41099E-26
5.06030E-02 1.30000E-26
5.25328E-02 1.19943E-26
5.44967E-02 1.10815E-26
5.64946E-02 1.02515E-26
5.85262E-02 9.49552E-27
6.05914E-02 8.80595E-27
6.26901E-02 8.17596E-27
6.48222E-02 7.59956E-27
6.69873E-02 7.07144E-27
6.91854E-02 6.58689E-27
7.14163E-02 6.14173E-27
7.36799E-02 5.73224E-27
7.59760E-02 5.35508E-27
7.83043E-02 5.00730E-27
8.06647E-02 4.68622E-27
8.30571E-02 4.38947E-27
8.54812E-02 4.11491E-27
8.79369E-02 3.86060E-27
9.04240E-02 3.62481E-27
9.29422E-02 3.40598E-27
9.54915E-02 3.20270E-27
9.80716E-02 3.01367E-27
1.00682E-01 2.83775E-27
1.03323E-01 2.67387E-27
1.05995E-01 2.52109E-27
1.08696E-01 2.37853E-27
1.11427E-01 2.24540E-27
1.14188E-01 2.12098E-27
1.16978E-01 2.00462E-27
1.19797E-01 1.89570E-27
1.22645E-01 1.79367E-27
1.25522E-01 1.69804E-27
1.28428E-01 1.60835E-27
1.31361E-01 1.52415E-27
1.34323E-01 1.44508E-27
1.37313E-01 1.37076E-27
1.40330E-01 1.30087E-27
1.43375E-01 1.23511E-27
1.46447E-01 1.17319E-27
1.49545E-01 1.11486E-27
1.52671E-01 1.05987E-27
1.55823E-01 1.00801E-27
1.59001E-01 9.59076E-28
1.62205E-01 9.12874E-28
1.65435E-01 8.69229E-28
1.68690E-01 8.27981E-28
1.71970E-01 7.88979E-28
1.75276E-01 7.52082E-28
1.78606E-01 7.17161E-28
1.81961E-01 6.84094E-28
1.85340E-01 6.52769E-28
1.88743E-01 6.23082E-28
1.92169E-01 5.94934E-28
1.95619E-01 5.68235E-28
1.99092E-01 5.42900E-28
2.02589E-01 5.18849E-28
2.06107E-01 4.96009E-28
2.09649E-01 4.74309E-28
2.13212E-01 4.53685E-28
2.16797E-01 4.34078E-28
2.20404E-01 4.15428E-28
2.24032E-01 3.97685E-28
2.27680E-01 3.80797E-28
2.31350E-01 3.64719E-28
2.35040E-01 3.49405E-28
2.38751E-01 3.34816E-28
2.42481E-01 3.20912E-28
2.46231E-01 3.07657E-28
2.50000E-01 2.95016E-28
2.53788E-01 2.82958E-28
2.57595E-01 2.71453E-28
2.61421E-01 2.60471E-28
2.65264E-01 2.49986E-28
2.69126E-01 2.39973E-28
2.73005E-01 2.30407E-28
2.76901E-01 2.21267E-28
2.80814E-01 2.12531E-28
2.84744E-01 2.04179E-28
2.88691E-01 1.96192E-28
2.92653E-01 1.88553E-28
2.96632E-01 1.81244E-28
3.00625E-01 1.74249E-28
3.04634E-01 1.67553E-28
3.08658E-01 1.61142E-28
3.12697E-01 1.55003E-28
3.16749E-01 1.49122E-28
3.20816E-01 1.43488E-28
3.24896E-01 1.38088E-28
3.28990E-01 1.32913E-28
3.33097E-01 1.27951E-28
3.37216E-01 1.23193E-28
3.41348E-01 1.18630E-28
3.45492E-01 1.14253E-28
3.49647E-01 1.10053E-28
3.53814E-01 1.06022E-28
3.57992E-01 1.02153E-28
3.62181E-01 9.84384E-29
3.66381E-01 9.48718E-29
3.70590E-01 9.14465E-29
3.74810E-01 8.81563E-29
3.79039E-01 8.49953E-29
3.83277E-01 8.19579E-29
3.87524E-01 7.90387E-29
3.91780E-01 7.62328E-29
3.96044E-01 7.35352E-29
4.00316E-01 7.09414E-29
4.04596E-01 6.84470E-29
4.08882E-01 6.60477E-29
4.13176E-01 6.37396E-29
4.17476E-01 6.15189E-29
4.21783E-01 5.93819E-29
4.26095E-01 5.73253E-29
4.30413E-01 5.53456E-29
4.34737E-01 5.34397E-29
4.39065E-01 5.16047E-29
4.43398E-01 4.98375E-29
4.47736E-01 4.81356E-29
4.52077E-01 4.64962E-29
4.56422E-01 4.49169E-29
4.60770E-01 4.33952E-29
4.65122E-01 4.19288E-29
4.69476E-01 4.05156E-29
4.73832E-01 3.91535E-29
4.78190E-01 3.78404E-29
4.82550E-01 3.65744E-29
4.86912E-01 3.53537E-29
4.91274E-01 3.41765E-29
4.95637E-01 3.30411E-29
5.00000E-01 3.19460E-29
5.04363E-01 3.08896E-29
5.08726E-01 2.98703E-29
5.13088E-01 2.88868E-29
5.17450E-01 2.79377E-29
5.21810E-01 2.70217E-29
5.26168E-01 2.61376E-29
5.30524E-01 2.52842E-29
5.34878E-01 2.44602E-29
5.39230E-01 2.36647E-29
5.43578E-01 2.28965E-29
5.47923E-01 2.21546E-29
5.52264E-01 2.14381E-29
5.56602E-01 2.07460E-29
5.60935E-01 2.00774E-29
5.65263E-01 1.94315E-29
5.69587E-01 1.88074E-29
5.73905E-01 1.82044E-29
5.78217E-01 1.76216E-29
5.82524E-01 1.70584E-29
5.86824E-01 1.65141E-29
5.91118E-01 1.59878E-29
5.95404E-01 1.54791E-29
5.99684E-01 1.49873E-29
6.03956E-01 1.45118E-29
6.08220E-01 1.40519E-29
6.12476E-01 1.36073E-29
6.16723E-01 1.31772E-29
6.20961E-01 1.27612E-29
6.25190E-01 1.23589E-29
6.29410E-01 1.19696E-29
6.33619E-01 1.15930E-29
6.37819E-01 1.12287E-29
6.42008E-01 1.08762E-29
6.46186E-01 1.05350E-29
6.50353E-01 1.02049E-29
6.54508E-01 9.88534E-30
6.58652E-01 9.57607E-30
6.62784E-01 9.27672E-30
6.66903E-01 8.98693E-30
6.71010E-01 8.70638E-30
6.75104E-01 8.43476E-30
6.79184E-01 8.17176E-30
6.83251E-01 7.91710E-30
6.87303E-01 7.67050E-30
6.91342E-01 7.43167E-30
6.95366E-01 7.20037E-30
6.99375E-01 6.97633E-30
7.03368E-01 6.75932E-30
7.07347E-01 6.54911E-30
7.11309E-01 6.34546E-30
7.15256E-01 6.14816E-30
7.19186E-01 5.95700E-30
7.23099E-01 5.77177E-30
7.26995E-01 5.59229E-30
7.30874E-01 5.41837E-30
7.34736E-01 5.24981E-30
7.38579E-01 5.08645E-30
7.42405E-01 4.92812E-30
7.46212E-01 4.77465E-30
7.50000E-01 4.62588E-30
7.53769E-01 4.48167E-30
7.57519E-01 4.34187E-30
7.61249E-01 4.20633E-30
7.64960E-01 4.07492E-30
7.68650E-01 3.94750E-30
7.72320E-01 3.82395E-30
7.75968E-01 3.70415E-30
7.79596E-01 3.58797E-30
7.83203E-01 3.47530E-30
7.86788E-01 3.36602E-30
7.90351E-01 3.26004E-30
7.93893E-01 3.15725E-30
7.97411E-01 3.05754E-30
8.00908E-01 2.96082E-30
8.04381E-01 2.86700E-30
8.07831E-01 2.77599E-30
8.11257E-01 2.68769E-30
8.14660E-01 2.60202E-30
8.18039E-01 2.51891E-30
8.21394E-01 2.43827E-30
8.24724E-01 2.36003E-30
8.28030E-01 2.28410E-30
8.31310E-01 2.21043E-30
8.34565E-01 2.13894E-30
8.37795E-01 2.06957E-30
8.40999E-01 2.00224E-30
8.44177E-01 1.93691E-30
8.47329E-01 1.87350E-30
8.50455E-01 1.81195E-30
8.53553E-01 1.75223E-30
8.56625E-01 1.69426E-30
8.59670E-01 1.63799E-30
8.62687E-01 1.58338E-30
8.65677E-01 1.53037E-30
8.68639E-01 1.47892E-30
8.71572E-01 1.42898E-30
8.74478E-01 1.38050E-30
8.77355E-01 1.33344E-30
8.80203E-01 1.28777E-30
8.83022E-01 1.24343E-30
8.85812E-01 1.20039E-30
8.88573E-01 1.15862E-30
8.91304E-01 1.11806E-30
8.94005E-01 1.07870E-30
8.96677E-01 1.04049E-30
8.99318E-01 1.00341E-30
9.01928E-01 9.67407E-31
9.04508E-01 9.32466E-31
9.07058E-01 8.98551E-31
9.09576E-01 8.65634E-31
9.12063E-01 8.33687E-31
9.14519E-01 8.02683E-31
9.16943E-01 7.72593E-31
9.19335E-01 7.43393E-31
9.21696E-01 7.15058E-31
9.24024E-01 6.87564E-31
9.26320E-01 6.60887E-31
9.28584E-01 6.35005E-31
9.30815E-01 6.09896E-31
9.33013E-01 5.85538E-31
9.35178E-01 5.61913E-31
9.37310E-01 5.38998E-31
9.39409E-01 5.16777E-31
9.41474E-01 4.95229E-31
9.43505E-01 4.74338E-31
9.45503E-01 4.54085E-31
9.47467E-01 4.34455E-31
9.49397E-01 4.15430E-31
9.51293E-01 3.96995E-31
9.53154E-01 3.79135E-31
9.54981E-01 3.61836E-31
9.56773E-01 3.45083E-31
9.58530E-01 3.28862E-31
9.60252E-01 3.13161E-31
9.61940E-01 2.97966E-31
9.63592E-01 2.83265E-31
9.65209E-01 2.69046E-31
9.66790E-01 2.55299E-31
9.68336E-01 2.42011E-31
9.69846E-01 2.29172E-31
9.71321E-01 2.16772E-31
9.72759E-01 2.04800E-31
9.74162E-01 1.93248E-31
9.75528E-01 1.82105E-31
9.76858E-01 1.71364E-31
9.78152E-01 1.61015E-31
9.79410E-01 1.51050E-31
9.80631E-01 1.41462E-31
9.81815E-01 1.32242E-31
9.82963E-01 1.23384E-31
9.84074E-01 1.14880E-31
9.85148E-01 1.06723E-31
9.86185E-01 9.89087E-32
9.87185E-01 9.14287E-32
9.88148E-01 8.42781E-32
9.89074E-01 7.74508E-32
9.89962E-01 7.09419E-32
9.90814E-01 6.47459E-32
9.91627E-01 5.88586E-32
9.92404E-01 5.32747E-32
9.93143E-01 4.79902E-32
9.93844E-01 4.30006E-32
9.94508E-01 3.83027E-32
9.95134E-01 3.38923E-32
9.95722E-01 2.97659E-32
9.96273E-01 2.59205E-32
9.96786E-01 2.23533E-32
9.97261E-01 1.90612E-32
9.97698E-01 1.60420E-32
9.98097E-01 1.32928E-32
9.98459E-01 1.08120E-32
9.98782E-01 8.59731E-33
9.99067E-01 6.64722E-33
9.99315E-01 4.96048E-33
9.99524E-01 3.53506E-33
9.99695E-01 2.37041E-33
9.99829E-01 1.46558E-33
9.99924E-01 8.19755E-34
9.99981E-01 4.32468E-34
1.00000E+00 3.03699E-34
