 #
 # Subroutine ELSEPA. Elastic scattering of electrons and positrons
 #                    by neutral atoms and positive ions
 #
 # Projectile: positron
 # Kinetic energy = 6.00000E+06 eV = 2.20496E+05 a.u.
 #
 # WARNING: High-energy factorization with free-atom DF screening.
 #          Absorption, polarization and exchange corrections are
 #          switched off.
 #          Phase shifts are calculated for the bare nucleus.
 #          Scattering amplitudes are not evaluated.
 #
 # Element:  N,  Z =   7,  atomic weight = 1.40067E+01 g/mol
 #
 # Nuclear model: Fermi distribution
 #                Average radius = 2.57926E-13 cm
 #                Skin thickness = 5.46000E-14 cm
 #
 # Number of electrons =  7
 #
 # Total elastic cross section = 2.61806E-19 cm**2 = 9.34926E-03 a0**2
 # 1st transport cross section = 1.89296E-24 cm**2 = 6.75988E-08 a0**2
 # 2nd transport cross section = 5.46071E-24 cm**2 = 1.95006E-07 a0**2
 #
 #
 # Differential cross section:                       MU=(1-COS(THETA))/2
 #
 #  THETA        MU          DCS          DCS        Sherman      error
 #  (deg)                 (cm**2/sr)   (a0**2/sr)    function
 #----------------------------------------------------------------------
0.00000E+00 7.90350E-14
7.61557E-13 7.90346E-14
1.18994E-12 7.90343E-14
1.71346E-12 7.90340E-14
2.33225E-12 7.90337E-14
3.04617E-12 7.90333E-14
3.85530E-12 7.90328E-14
4.75964E-12 7.90323E-14
5.75917E-12 7.90318E-14
6.85391E-12 7.90311E-14
8.04379E-12 7.90305E-14
9.32893E-12 7.90298E-14
1.07092E-11 7.90290E-14
1.21847E-11 7.90282E-14
1.37554E-11 7.90273E-14
1.54213E-11 7.90264E-14
1.71823E-11 7.90255E-14
1.90386E-11 7.90244E-14
2.09900E-11 7.90234E-14
2.30367E-11 7.90222E-14
2.51785E-11 7.90211E-14
2.74156E-11 7.90198E-14
2.97478E-11 7.90186E-14
3.21752E-11 7.90172E-14
3.46979E-11 7.90158E-14
3.73157E-11 7.90144E-14
4.00286E-11 7.90129E-14
4.28368E-11 7.90114E-14
4.57402E-11 7.90098E-14
4.87388E-11 7.90082E-14
5.18325E-11 7.90065E-14
5.50215E-11 7.90047E-14
5.83057E-11 7.90029E-14
6.16850E-11 7.90011E-14
6.51595E-11 7.89992E-14
6.87293E-11 7.89973E-14
7.23943E-11 7.89953E-14
7.61544E-11 7.89932E-14
1.18991E-10 7.89699E-14
1.71347E-10 7.89414E-14
2.33223E-10 7.89078E-14
3.04617E-10 7.88691E-14
3.85531E-10 7.88252E-14
4.75965E-10 7.87762E-14
5.75917E-10 7.87222E-14
6.85389E-10 7.86631E-14
8.04380E-10 7.85990E-14
9.32891E-10 7.85297E-14
1.07092E-09 7.84556E-14
1.21847E-09 7.83763E-14
1.37554E-09 7.82921E-14
1.54213E-09 7.82030E-14
1.71823E-09 7.81089E-14
1.90386E-09 7.80100E-14
2.09900E-09 7.79061E-14
2.30367E-09 7.77976E-14
2.51785E-09 7.76839E-14
2.74156E-09 7.75658E-14
2.97478E-09 7.74426E-14
3.21752E-09 7.73150E-14
3.46978E-09 7.71824E-14
3.73156E-09 7.70454E-14
4.00286E-09 7.69037E-14
4.28368E-09 7.67574E-14
4.57402E-09 7.66067E-14
4.87388E-09 7.64512E-14
5.18326E-09 7.62918E-14
5.50215E-09 7.61273E-14
5.83057E-09 7.59593E-14
6.16850E-09 7.57860E-14
6.51596E-09 7.56092E-14
6.87293E-09 7.54275E-14
7.23942E-09 7.52422E-14
7.61544E-09 7.50525E-14
1.18991E-08 7.29400E-14
1.71347E-08 7.04720E-14
2.33223E-08 6.77090E-14
3.04617E-08 6.47083E-14
3.85531E-08 6.14640E-14
4.75965E-08 5.80671E-14
5.75917E-08 5.48818E-14
6.85389E-08 5.13560E-14
8.04380E-08 4.81667E-14
9.32891E-08 4.47934E-14
1.07092E-07 4.17097E-14
1.21847E-07 3.86325E-14
1.37554E-07 3.57571E-14
1.54213E-07 3.30254E-14
1.71823E-07 3.04219E-14
1.90386E-07 2.80433E-14
2.09900E-07 2.57407E-14
2.30367E-07 2.36980E-14
2.51785E-07 2.16986E-14
2.74156E-07 1.99441E-14
2.97478E-07 1.82504E-14
3.21752E-07 1.67464E-14
3.46978E-07 1.53350E-14
3.73156E-07 1.40586E-14
4.00286E-07 1.28860E-14
4.28368E-07 1.18107E-14
4.57402E-07 1.08381E-14
4.87388E-07 9.93703E-15
5.18325E-07 9.13053E-15
5.50215E-07 8.37802E-15
5.83057E-07 7.70744E-15
6.16850E-07 7.08178E-15
6.51596E-07 6.52108E-15
6.87293E-07 6.00381E-15
7.23942E-07 5.53533E-15
7.61543E-07 5.10651E-15
1.18991E-06 2.40013E-15
1.71347E-06 1.24100E-15
2.33223E-06 7.00777E-16
3.04617E-06 4.26463E-16
3.85531E-06 2.75796E-16
4.75964E-06 1.87294E-16
5.75916E-06 1.32266E-16
6.85388E-06 9.64135E-17
8.04378E-06 7.21197E-17
9.32888E-06 5.51187E-17
1.07092E-05 4.28775E-17
1.21846E-05 3.38723E-17
1.37553E-05 2.71179E-17
1.54212E-05 2.19665E-17
1.71822E-05 1.79795E-17
1.90385E-05 1.48584E-17
2.09899E-05 1.23784E-17
2.30365E-05 1.03891E-17
2.51783E-05 8.78036E-18
2.74153E-05 7.46917E-18
2.97475E-05 6.39237E-18
3.21749E-05 5.50166E-18
3.46974E-05 4.75982E-18
3.73152E-05 4.13796E-18
4.00281E-05 3.61336E-18
4.28362E-05 3.16847E-18
4.57395E-05 2.78936E-18
4.87380E-05 2.46481E-18
5.18317E-05 2.18578E-18
5.50205E-05 1.94490E-18
5.83045E-05 1.73616E-18
6.16838E-05 1.55453E-18
6.51582E-05 1.39592E-18
6.87277E-05 1.25693E-18
7.23925E-05 1.13470E-18
7.61524E-05 1.02688E-18
9.21439E-05 7.04448E-19
1.09658E-04 4.98937E-19
1.28695E-04 3.62993E-19
1.49255E-04 2.70272E-19
1.71338E-04 2.05310E-19
1.94942E-04 1.58710E-19
2.20070E-04 1.24604E-19
2.46720E-04 9.91722E-20
2.74892E-04 7.99066E-20
3.04586E-04 6.50958E-20
3.35803E-04 5.35598E-20
3.68542E-04 4.44689E-20
4.02802E-04 3.72254E-20
4.38585E-04 3.13983E-20
4.75889E-04 2.66671E-20
5.14715E-04 2.27939E-20
5.55063E-04 1.95989E-20
5.96931E-04 1.69440E-20
6.40321E-04 1.47239E-20
6.85233E-04 1.28553E-20
7.31665E-04 1.12740E-20
7.79618E-04 9.92830E-21
8.29092E-04 8.77729E-21
8.80086E-04 7.78834E-21
9.32601E-04 6.93471E-21
9.86636E-04 6.19488E-21
1.04219E-03 5.55106E-21
1.09927E-03 4.98872E-21
1.15786E-03 4.49579E-21
1.21797E-03 4.06221E-21
1.27961E-03 3.67966E-21
1.34276E-03 3.34106E-21
1.40743E-03 3.04051E-21
1.47362E-03 2.77299E-21
1.54133E-03 2.53423E-21
1.61056E-03 2.32062E-21
1.68131E-03 2.12902E-21
1.75357E-03 1.95679E-21
1.82735E-03 1.80162E-21
1.90265E-03 1.66151E-21
1.97947E-03 1.53476E-21
2.05780E-03 1.41985E-21
2.13765E-03 1.31550E-21
2.21902E-03 1.22055E-21
2.30190E-03 1.13400E-21
2.38630E-03 1.05499E-21
2.47222E-03 9.82737E-22
2.55965E-03 9.16560E-22
2.64859E-03 8.55854E-22
2.73905E-03 8.00088E-22
2.83103E-03 7.48787E-22
2.92452E-03 7.01529E-22
3.01952E-03 6.57938E-22
3.11604E-03 6.17677E-22
3.21407E-03 5.80447E-22
3.31362E-03 5.45977E-22
3.41468E-03 5.14026E-22
3.51725E-03 4.84376E-22
3.62133E-03 4.56830E-22
3.72692E-03 4.31214E-22
3.83403E-03 4.07366E-22
3.94265E-03 3.85143E-22
4.05278E-03 3.64413E-22
4.16442E-03 3.45057E-22
4.27757E-03 3.26968E-22
4.39223E-03 3.10048E-22
4.50840E-03 2.94207E-22
4.62608E-03 2.79363E-22
4.74527E-03 2.65443E-22
4.86597E-03 2.52378E-22
4.98817E-03 2.40106E-22
5.11188E-03 2.28571E-22
5.23711E-03 2.17718E-22
5.36383E-03 2.07502E-22
5.49207E-03 1.97877E-22
5.62181E-03 1.88802E-22
5.75306E-03 1.80242E-22
5.88581E-03 1.72160E-22
6.02007E-03 1.64526E-22
6.15583E-03 1.57309E-22
6.29310E-03 1.50484E-22
6.43187E-03 1.44024E-22
6.57214E-03 1.37906E-22
6.71392E-03 1.32110E-22
6.85720E-03 1.26614E-22
7.00198E-03 1.21400E-22
7.14827E-03 1.16452E-22
7.29605E-03 1.11753E-22
7.44534E-03 1.07288E-22
7.59612E-03 1.03044E-22
7.97965E-03 9.33146E-23
8.37255E-03 8.47051E-23
8.77480E-03 7.70643E-23
9.18641E-03 7.02645E-23
9.60736E-03 6.41971E-23
1.00376E-02 5.87695E-23
1.04773E-02 5.39024E-23
1.09262E-02 4.95280E-23
1.13844E-02 4.55876E-23
1.18520E-02 4.20305E-23
1.23288E-02 3.88130E-23
1.28150E-02 3.58969E-23
1.33104E-02 3.32490E-23
1.38150E-02 3.08402E-23
1.43290E-02 2.86451E-23
1.48521E-02 2.66414E-23
1.53845E-02 2.48095E-23
1.59262E-02 2.31319E-23
1.64770E-02 2.15934E-23
1.70371E-02 2.01804E-23
1.76063E-02 1.88807E-23
1.81848E-02 1.76837E-23
1.87724E-02 1.65798E-23
1.93692E-02 1.55605E-23
1.99751E-02 1.46180E-23
2.05901E-02 1.37456E-23
2.12143E-02 1.29372E-23
2.18476E-02 1.21871E-23
2.24900E-02 1.14904E-23
2.31415E-02 1.08426E-23
2.38021E-02 1.02397E-23
2.44717E-02 9.67791E-24
2.51504E-02 9.15401E-24
2.58382E-02 8.66496E-24
2.65349E-02 8.20801E-24
2.72407E-02 7.78067E-24
2.79555E-02 7.38067E-24
2.86793E-02 7.00594E-24
2.94120E-02 6.65460E-24
3.01537E-02 6.32491E-24
3.09043E-02 6.01530E-24
3.16639E-02 5.72433E-24
3.24324E-02 5.45065E-24
3.32098E-02 5.19306E-24
3.39961E-02 4.95044E-24
3.47912E-02 4.72175E-24
3.55952E-02 4.50606E-24
3.64081E-02 4.30248E-24
3.72297E-02 4.11021E-24
3.80602E-02 3.92850E-24
3.88995E-02 3.75667E-24
3.97476E-02 3.59409E-24
4.06044E-02 3.44016E-24
4.14700E-02 3.29433E-24
4.23443E-02 3.15611E-24
4.32273E-02 3.02502E-24
4.41190E-02 2.90062E-24
4.50194E-02 2.78252E-24
4.59284E-02 2.67033E-24
4.68461E-02 2.56370E-24
4.87074E-02 2.36585E-24
5.06030E-02 2.18660E-24
5.25328E-02 2.02390E-24
5.44967E-02 1.87596E-24
5.64946E-02 1.74120E-24
5.85262E-02 1.61824E-24
6.05914E-02 1.50587E-24
6.26901E-02 1.40301E-24
6.48222E-02 1.30872E-24
6.69873E-02 1.22215E-24
6.91854E-02 1.14257E-24
7.14163E-02 1.06930E-24
7.36799E-02 1.00176E-24
7.59760E-02 9.39424E-25
7.83043E-02 8.81816E-25
8.06647E-02 8.28514E-25
8.30571E-02 7.79139E-25
8.54812E-02 7.33351E-25
8.79369E-02 6.90842E-25
9.04240E-02 6.51336E-25
9.29422E-02 6.14583E-25
9.54915E-02 5.80356E-25
9.80716E-02 5.48452E-25
1.00682E-01 5.18683E-25
1.03323E-01 4.90882E-25
1.05995E-01 4.64895E-25
1.08696E-01 4.40583E-25
1.11427E-01 4.17819E-25
1.14188E-01 3.96485E-25
1.16978E-01 3.76477E-25
1.19797E-01 3.57697E-25
1.22645E-01 3.40056E-25
1.25522E-01 3.23473E-25
1.28428E-01 3.07873E-25
1.31361E-01 2.93186E-25
1.34323E-01 2.79351E-25
1.37313E-01 2.66309E-25
1.40330E-01 2.54006E-25
1.43375E-01 2.42392E-25
1.46447E-01 2.31423E-25
1.49545E-01 2.21056E-25
1.52671E-01 2.11252E-25
1.55823E-01 2.01975E-25
1.59001E-01 1.93192E-25
1.62205E-01 1.84871E-25
1.65435E-01 1.76984E-25
1.68690E-01 1.69504E-25
1.71970E-01 1.62407E-25
1.75276E-01 1.55669E-25
1.78606E-01 1.49268E-25
1.81961E-01 1.43186E-25
1.85340E-01 1.37403E-25
1.88743E-01 1.31902E-25
1.92169E-01 1.26667E-25
1.95619E-01 1.21682E-25
1.99092E-01 1.16934E-25
2.02589E-01 1.12409E-25
2.06107E-01 1.08094E-25
2.09649E-01 1.03979E-25
2.13212E-01 1.00053E-25
2.16797E-01 9.63044E-26
2.20404E-01 9.27247E-26
2.24032E-01 8.93049E-26
2.27680E-01 8.60364E-26
2.31350E-01 8.29113E-26
2.35040E-01 7.99223E-26
2.38751E-01 7.70624E-26
2.42481E-01 7.43250E-26
2.46231E-01 7.17039E-26
2.50000E-01 6.91933E-26
2.53788E-01 6.67877E-26
2.57595E-01 6.44820E-26
2.61421E-01 6.22712E-26
2.65264E-01 6.01508E-26
2.69126E-01 5.81164E-26
2.73005E-01 5.61639E-26
2.76901E-01 5.42895E-26
2.80814E-01 5.24894E-26
2.84744E-01 5.07602E-26
2.88691E-01 4.90985E-26
2.92653E-01 4.75014E-26
2.96632E-01 4.59658E-26
3.00625E-01 4.44890E-26
3.04634E-01 4.30683E-26
3.08658E-01 4.17012E-26
3.12697E-01 4.03854E-26
3.16749E-01 3.91185E-26
3.20816E-01 3.78984E-26
3.24896E-01 3.67232E-26
3.28990E-01 3.55908E-26
3.33097E-01 3.44994E-26
3.37216E-01 3.34474E-26
3.41348E-01 3.24329E-26
3.45492E-01 3.14545E-26
3.49647E-01 3.05107E-26
3.53814E-01 2.95999E-26
3.57992E-01 2.87209E-26
3.62181E-01 2.78723E-26
3.66381E-01 2.70530E-26
3.70590E-01 2.62617E-26
3.74810E-01 2.54973E-26
3.79039E-01 2.47587E-26
3.83277E-01 2.40450E-26
3.87524E-01 2.33550E-26
3.91780E-01 2.26880E-26
3.96044E-01 2.20430E-26
4.00316E-01 2.14192E-26
4.04596E-01 2.08157E-26
4.08882E-01 2.02317E-26
4.13176E-01 1.96666E-26
4.17476E-01 1.91197E-26
4.21783E-01 1.85901E-26
4.26095E-01 1.80774E-26
4.30413E-01 1.75808E-26
4.34737E-01 1.70998E-26
4.39065E-01 1.66338E-26
4.43398E-01 1.61822E-26
4.47736E-01 1.57446E-26
4.52077E-01 1.53204E-26
4.56422E-01 1.49091E-26
4.60770E-01 1.45104E-26
4.65122E-01 1.41237E-26
4.69476E-01 1.37486E-26
4.73832E-01 1.33847E-26
4.78190E-01 1.30316E-26
4.82550E-01 1.26890E-26
4.86912E-01 1.23564E-26
4.91274E-01 1.20337E-26
4.95637E-01 1.17203E-26
5.00000E-01 1.14160E-26
5.04363E-01 1.11205E-26
5.08726E-01 1.08335E-26
5.13088E-01 1.05547E-26
5.17450E-01 1.02838E-26
5.21810E-01 1.00206E-26
5.26168E-01 9.76477E-27
5.30524E-01 9.51615E-27
5.34878E-01 9.27448E-27
5.39230E-01 9.03952E-27
5.43578E-01 8.81107E-27
5.47923E-01 8.58890E-27
5.52264E-01 8.37283E-27
5.56602E-01 8.16266E-27
5.60935E-01 7.95820E-27
5.65263E-01 7.75927E-27
5.69587E-01 7.56570E-27
5.73905E-01 7.37732E-27
5.78217E-01 7.19398E-27
5.82524E-01 7.01551E-27
5.86824E-01 6.84177E-27
5.91118E-01 6.67262E-27
5.95404E-01 6.50790E-27
5.99684E-01 6.34750E-27
6.03956E-01 6.19127E-27
6.08220E-01 6.03910E-27
6.12476E-01 5.89086E-27
6.16723E-01 5.74644E-27
6.20961E-01 5.60572E-27
6.25190E-01 5.46860E-27
6.29410E-01 5.33497E-27
6.33619E-01 5.20472E-27
6.37819E-01 5.07776E-27
6.42008E-01 4.95400E-27
6.46186E-01 4.83334E-27
6.50353E-01 4.71570E-27
6.54508E-01 4.60098E-27
6.58652E-01 4.48911E-27
6.62784E-01 4.38000E-27
6.66903E-01 4.27358E-27
6.71010E-01 4.16977E-27
6.75104E-01 4.06850E-27
6.79184E-01 3.96970E-27
6.83251E-01 3.87330E-27
6.87303E-01 3.77923E-27
6.91342E-01 3.68744E-27
6.95366E-01 3.59785E-27
6.99375E-01 3.51041E-27
7.03368E-01 3.42506E-27
7.07347E-01 3.34174E-27
7.11309E-01 3.26041E-27
7.15256E-01 3.18100E-27
7.19186E-01 3.10347E-27
7.23099E-01 3.02776E-27
7.26995E-01 2.95383E-27
7.30874E-01 2.88164E-27
7.34736E-01 2.81113E-27
7.38579E-01 2.74226E-27
7.42405E-01 2.67499E-27
7.46212E-01 2.60929E-27
7.50000E-01 2.54510E-27
7.53769E-01 2.48239E-27
7.57519E-01 2.42112E-27
7.61249E-01 2.36126E-27
7.64960E-01 2.30277E-27
7.68650E-01 2.24561E-27
7.72320E-01 2.18976E-27
7.75968E-01 2.13518E-27
7.79596E-01 2.08184E-27
7.83203E-01 2.02971E-27
7.86788E-01 1.97875E-27
7.90351E-01 1.92895E-27
7.93893E-01 1.88027E-27
7.97411E-01 1.83268E-27
8.00908E-01 1.78616E-27
8.04381E-01 1.74069E-27
8.07831E-01 1.69623E-27
8.11257E-01 1.65276E-27
8.14660E-01 1.61027E-27
8.18039E-01 1.56873E-27
8.21394E-01 1.52810E-27
8.24724E-01 1.48839E-27
8.28030E-01 1.44955E-27
8.31310E-01 1.41158E-27
8.34565E-01 1.37445E-27
8.37795E-01 1.33815E-27
8.40999E-01 1.30265E-27
8.44177E-01 1.26793E-27
8.47329E-01 1.23399E-27
8.50455E-01 1.20080E-27
8.53553E-01 1.16834E-27
8.56625E-01 1.13660E-27
8.59670E-01 1.10556E-27
8.62687E-01 1.07521E-27
8.65677E-01 1.04553E-27
8.68639E-01 1.01651E-27
8.71572E-01 9.88136E-28
8.74478E-01 9.60390E-28
8.77355E-01 9.33260E-28
8.80203E-01 9.06734E-28
8.83022E-01 8.80798E-28
8.85812E-01 8.55441E-28
8.88573E-01 8.30651E-28
8.91304E-01 8.06414E-28
8.94005E-01 7.82722E-28
8.96677E-01 7.59562E-28
8.99318E-01 7.36923E-28
9.01928E-01 7.14795E-28
9.04508E-01 6.93168E-28
9.07058E-01 6.72033E-28
9.09576E-01 6.51378E-28
9.12063E-01 6.31196E-28
9.14519E-01 6.11476E-28
9.16943E-01 5.92210E-28
9.19335E-01 5.73390E-28
9.21696E-01 5.55007E-28
9.24024E-01 5.37052E-28
9.26320E-01 5.19519E-28
9.28584E-01 5.02398E-28
9.30815E-01 4.85683E-28
9.33013E-01 4.69366E-28
9.35178E-01 4.53440E-28
9.37310E-01 4.37899E-28
9.39409E-01 4.22735E-28
9.41474E-01 4.07943E-28
9.43505E-01 3.93514E-28
9.45503E-01 3.79445E-28
9.47467E-01 3.65728E-28
9.49397E-01 3.52358E-28
9.51293E-01 3.39328E-28
9.53154E-01 3.26634E-28
9.54981E-01 3.14271E-28
9.56773E-01 3.02233E-28
9.58530E-01 2.90514E-28
9.60252E-01 2.79111E-28
9.61940E-01 2.68018E-28
9.63592E-01 2.57230E-28
9.65209E-01 2.46745E-28
9.66790E-01 2.36556E-28
9.68336E-01 2.26660E-28
9.69846E-01 2.17053E-28
9.71321E-01 2.07731E-28
9.72759E-01 1.98690E-28
9.74162E-01 1.89927E-28
9.75528E-01 1.81437E-28
9.76858E-01 1.73218E-28
9.78152E-01 1.65266E-28
9.79410E-01 1.57578E-28
9.80631E-01 1.50151E-28
9.81815E-01 1.42982E-28
9.82963E-01 1.36068E-28
9.84074E-01 1.29406E-28
9.85148E-01 1.22994E-28
9.86185E-01 1.16829E-28
9.87185E-01 1.10909E-28
9.88148E-01 1.05231E-28
9.89074E-01 9.97936E-29
9.89962E-01 9.45939E-29
9.90814E-01 8.96300E-29
9.91627E-01 8.49003E-29
9.92404E-01 8.04025E-29
9.93143E-01 7.61352E-29
9.93844E-01 7.20964E-29
9.94508E-01 6.82850E-29
9.95134E-01 6.46991E-29
9.95722E-01 6.13374E-29
9.96273E-01 5.81987E-29
9.96786E-01 5.52817E-29
9.97261E-01 5.25852E-29
9.97698E-01 5.01085E-29
9.98097E-01 4.78500E-29
9.98459E-01 4.58094E-29
9.98782E-01 4.39856E-29
9.99067E-01 4.23782E-29
9.99315E-01 4.09864E-29
9.99524E-01 3.98094E-29
9.99695E-01 3.88471E-29
9.99829E-01 3.80991E-29
9.99924E-01 3.75649E-29
9.99981E-01 3.72447E-29
1.00000E+00 3.71389E-29
