 #
 # Subroutine ELSEPA. Elastic scattering of electrons and positrons
 #                    by neutral atoms and positive ions
 #
 # Projectile: positron
 # Kinetic energy = 5.00000E+06 eV = 1.83747E+05 a.u.
 #
 # WARNING: High-energy factorization with free-atom DF screening.
 #          Absorption, polarization and exchange corrections are
 #          switched off.
 #          Phase shifts are calculated for the bare nucleus.
 #          Scattering amplitudes are not evaluated.
 #
 # Element:  N,  Z =   7,  atomic weight = 1.40067E+01 g/mol
 #
 # Nuclear model: Fermi distribution
 #                Average radius = 2.57926E-13 cm
 #                Skin thickness = 5.46000E-14 cm
 #
 # Number of electrons =  7
 #
 # Total elastic cross section = 2.62349E-19 cm**2 = 9.36864E-03 a0**2
 # 1st transport cross section = 2.58414E-24 cm**2 = 9.22814E-08 a0**2
 # 2nd transport cross section = 7.44530E-24 cm**2 = 2.65877E-07 a0**2
 #
 #
 # Differential cross section:                       MU=(1-COS(THETA))/2
 #
 #  THETA        MU          DCS          DCS        Sherman      error
 #  (deg)                 (cm**2/sr)   (a0**2/sr)    function
 #----------------------------------------------------------------------
0.00000E+00 5.66220E-14
7.61557E-13 5.66217E-14
1.18994E-12 5.66216E-14
1.71346E-12 5.66215E-14
2.33225E-12 5.66213E-14
3.04617E-12 5.66211E-14
3.85530E-12 5.66208E-14
4.75964E-12 5.66206E-14
5.75917E-12 5.66203E-14
6.85391E-12 5.66200E-14
8.04379E-12 5.66196E-14
9.32893E-12 5.66193E-14
1.07092E-11 5.66189E-14
1.21847E-11 5.66185E-14
1.37554E-11 5.66180E-14
1.54213E-11 5.66175E-14
1.71823E-11 5.66170E-14
1.90386E-11 5.66165E-14
2.09900E-11 5.66160E-14
2.30367E-11 5.66154E-14
2.51785E-11 5.66148E-14
2.74156E-11 5.66142E-14
2.97478E-11 5.66135E-14
3.21752E-11 5.66128E-14
3.46979E-11 5.66121E-14
3.73157E-11 5.66114E-14
4.00286E-11 5.66106E-14
4.28368E-11 5.66098E-14
4.57402E-11 5.66090E-14
4.87388E-11 5.66082E-14
5.18325E-11 5.66073E-14
5.50215E-11 5.66064E-14
5.83057E-11 5.66055E-14
6.16850E-11 5.66045E-14
6.51595E-11 5.66036E-14
6.87293E-11 5.66026E-14
7.23943E-11 5.66015E-14
7.61544E-11 5.66005E-14
1.18991E-10 5.65885E-14
1.71347E-10 5.65739E-14
2.33223E-10 5.65567E-14
3.04617E-10 5.65368E-14
3.85531E-10 5.65143E-14
4.75965E-10 5.64892E-14
5.75917E-10 5.64615E-14
6.85389E-10 5.64312E-14
8.04380E-10 5.63983E-14
9.32891E-10 5.63627E-14
1.07092E-09 5.63246E-14
1.21847E-09 5.62839E-14
1.37554E-09 5.62406E-14
1.54213E-09 5.61948E-14
1.71823E-09 5.61463E-14
1.90386E-09 5.60954E-14
2.09900E-09 5.60420E-14
2.30367E-09 5.59859E-14
2.51785E-09 5.59275E-14
2.74156E-09 5.58664E-14
2.97478E-09 5.58029E-14
3.21752E-09 5.57370E-14
3.46978E-09 5.56684E-14
3.73156E-09 5.55975E-14
4.00286E-09 5.55242E-14
4.28368E-09 5.54483E-14
4.57402E-09 5.53704E-14
4.87388E-09 5.52896E-14
5.18326E-09 5.52067E-14
5.50215E-09 5.51215E-14
5.83057E-09 5.50336E-14
6.16850E-09 5.49438E-14
6.51596E-09 5.48514E-14
6.87293E-09 5.47568E-14
7.23942E-09 5.46601E-14
7.61544E-09 5.45607E-14
1.18991E-08 5.34496E-14
1.71347E-08 5.21356E-14
2.33223E-08 5.06421E-14
3.04617E-08 4.89936E-14
3.85531E-08 4.72169E-14
4.75965E-08 4.53390E-14
5.75917E-08 4.32886E-14
6.85389E-08 4.12623E-14
8.04380E-08 3.93448E-14
9.32891E-08 3.71914E-14
1.07092E-07 3.52112E-14
1.21847E-07 3.32315E-14
1.37554E-07 3.12395E-14
1.54213E-07 2.94358E-14
1.71823E-07 2.75410E-14
1.90386E-07 2.57965E-14
2.09900E-07 2.41595E-14
2.30367E-07 2.25147E-14
2.51785E-07 2.10416E-14
2.74156E-07 1.95911E-14
2.97478E-07 1.82352E-14
3.21752E-07 1.70084E-14
3.46978E-07 1.57821E-14
3.73156E-07 1.46845E-14
4.00286E-07 1.36482E-14
4.28368E-07 1.26695E-14
4.57402E-07 1.17911E-14
4.87388E-07 1.09356E-14
5.18325E-07 1.01603E-14
5.50215E-07 9.44561E-15
5.83057E-07 8.76713E-15
6.16850E-07 8.15540E-15
6.51596E-07 7.57657E-15
6.87293E-07 7.04394E-15
7.23942E-07 6.55851E-15
7.61543E-07 6.09709E-15
1.18991E-06 3.05678E-15
1.71347E-06 1.63432E-15
2.33223E-06 9.35495E-16
3.04617E-06 5.70638E-16
3.85531E-06 3.68171E-16
4.75964E-06 2.48989E-16
5.75916E-06 1.75168E-16
6.85388E-06 1.27312E-16
8.04378E-06 9.50695E-17
9.32888E-06 7.26183E-17
1.07092E-05 5.65346E-17
1.21846E-05 4.47321E-17
1.37553E-05 3.58898E-17
1.54212E-05 2.91455E-17
1.71822E-05 2.39218E-17
1.90385E-05 1.98259E-17
2.09899E-05 1.65649E-17
2.30365E-05 1.39448E-17
2.51783E-05 1.18202E-17
2.74153E-05 1.00835E-17
2.97475E-05 8.65268E-18
3.21749E-05 7.46567E-18
3.46974E-05 6.47411E-18
3.73152E-05 5.64053E-18
4.00281E-05 4.93558E-18
4.28362E-05 4.33616E-18
4.57395E-05 3.82410E-18
4.87380E-05 3.38467E-18
5.18317E-05 3.00602E-18
5.50205E-05 2.67847E-18
5.83045E-05 2.39405E-18
6.16838E-05 2.14616E-18
6.51582E-05 1.92933E-18
6.87277E-05 1.73900E-18
7.23925E-05 1.57138E-18
7.61524E-05 1.42329E-18
9.21439E-05 9.79182E-19
1.09658E-04 6.94974E-19
1.28695E-04 5.06401E-19
1.49255E-04 3.77484E-19
1.71338E-04 2.87004E-19
1.94942E-04 2.22009E-19
2.20070E-04 1.74390E-19
2.46720E-04 1.38853E-19
2.74892E-04 1.11914E-19
3.04586E-04 9.11939E-20
3.35803E-04 7.50482E-20
3.68542E-04 6.23204E-20
4.02802E-04 5.21761E-20
4.38585E-04 4.40136E-20
4.75889E-04 3.73848E-20
5.14715E-04 3.19575E-20
5.55063E-04 2.74797E-20
5.96931E-04 2.37586E-20
6.40321E-04 2.06465E-20
6.85233E-04 1.80271E-20
7.31665E-04 1.58101E-20
7.79618E-04 1.39235E-20
8.29092E-04 1.23098E-20
8.80086E-04 1.09232E-20
9.32601E-04 9.72631E-21
9.86636E-04 8.68890E-21
1.04219E-03 7.78607E-21
1.09927E-03 6.99739E-21
1.15786E-03 6.30601E-21
1.21797E-03 5.69787E-21
1.27961E-03 5.16130E-21
1.34276E-03 4.68637E-21
1.40743E-03 4.26482E-21
1.47362E-03 3.88958E-21
1.54133E-03 3.55470E-21
1.61056E-03 3.25508E-21
1.68131E-03 2.98634E-21
1.75357E-03 2.74476E-21
1.82735E-03 2.52710E-21
1.90265E-03 2.33058E-21
1.97947E-03 2.15279E-21
2.05780E-03 1.99162E-21
2.13765E-03 1.84524E-21
2.21902E-03 1.71206E-21
2.30190E-03 1.59067E-21
2.38630E-03 1.47984E-21
2.47222E-03 1.37849E-21
2.55965E-03 1.28566E-21
2.64859E-03 1.20051E-21
2.73905E-03 1.12229E-21
2.83103E-03 1.05033E-21
2.92452E-03 9.84045E-22
3.01952E-03 9.22901E-22
3.11604E-03 8.66427E-22
3.21407E-03 8.14205E-22
3.31362E-03 7.65854E-22
3.41468E-03 7.21036E-22
3.51725E-03 6.79446E-22
3.62133E-03 6.40809E-22
3.72692E-03 6.04877E-22
3.83403E-03 5.71425E-22
3.94265E-03 5.40252E-22
4.05278E-03 5.11174E-22
4.16442E-03 4.84024E-22
4.27757E-03 4.58651E-22
4.39223E-03 4.34916E-22
4.50840E-03 4.12696E-22
4.62608E-03 3.91875E-22
4.74527E-03 3.72349E-22
4.86597E-03 3.54023E-22
4.98817E-03 3.36809E-22
5.11188E-03 3.20627E-22
5.23711E-03 3.05405E-22
5.36383E-03 2.91074E-22
5.49207E-03 2.77572E-22
5.62181E-03 2.64844E-22
5.75306E-03 2.52835E-22
5.88581E-03 2.41499E-22
6.02007E-03 2.30790E-22
6.15583E-03 2.20668E-22
6.29310E-03 2.11093E-22
6.43187E-03 2.02032E-22
6.57214E-03 1.93450E-22
6.71392E-03 1.85319E-22
6.85720E-03 1.77610E-22
7.00198E-03 1.70297E-22
7.14827E-03 1.63356E-22
7.29605E-03 1.56765E-22
7.44534E-03 1.50502E-22
7.59612E-03 1.44548E-22
7.97965E-03 1.30900E-22
8.37255E-03 1.18823E-22
8.77480E-03 1.08105E-22
9.18641E-03 9.85666E-23
9.60736E-03 9.00555E-23
1.00376E-02 8.24419E-23
1.04773E-02 7.56147E-23
1.09262E-02 6.94784E-23
1.13844E-02 6.39509E-23
1.18520E-02 5.89613E-23
1.23288E-02 5.44478E-23
1.28150E-02 5.03572E-23
1.33104E-02 4.66427E-23
1.38150E-02 4.32638E-23
1.43290E-02 4.01846E-23
1.48521E-02 3.73739E-23
1.53845E-02 3.48040E-23
1.59262E-02 3.24508E-23
1.64770E-02 3.02926E-23
1.70371E-02 2.83103E-23
1.76063E-02 2.64872E-23
1.81848E-02 2.48081E-23
1.87724E-02 2.32595E-23
1.93692E-02 2.18296E-23
1.99751E-02 2.05075E-23
2.05901E-02 1.92837E-23
2.12143E-02 1.81496E-23
2.18476E-02 1.70973E-23
2.24900E-02 1.61200E-23
2.31415E-02 1.52113E-23
2.38021E-02 1.43655E-23
2.44717E-02 1.35774E-23
2.51504E-02 1.28425E-23
2.58382E-02 1.21564E-23
2.65349E-02 1.15154E-23
2.72407E-02 1.09159E-23
2.79555E-02 1.03548E-23
2.86793E-02 9.82911E-24
2.94120E-02 9.33623E-24
3.01537E-02 8.87373E-24
3.09043E-02 8.43939E-24
3.16639E-02 8.03119E-24
3.24324E-02 7.64726E-24
3.32098E-02 7.28590E-24
3.39961E-02 6.94553E-24
3.47912E-02 6.62471E-24
3.55952E-02 6.32212E-24
3.64081E-02 6.03652E-24
3.72297E-02 5.76678E-24
3.80602E-02 5.51187E-24
3.88995E-02 5.27082E-24
3.97476E-02 5.04273E-24
4.06044E-02 4.82678E-24
4.14700E-02 4.62220E-24
4.23443E-02 4.42829E-24
4.32273E-02 4.24438E-24
4.41190E-02 4.06986E-24
4.50194E-02 3.90417E-24
4.59284E-02 3.74678E-24
4.68461E-02 3.59718E-24
4.87074E-02 3.31961E-24
5.06030E-02 3.06814E-24
5.25328E-02 2.83988E-24
5.44967E-02 2.63233E-24
5.64946E-02 2.44326E-24
5.85262E-02 2.27076E-24
6.05914E-02 2.11310E-24
6.26901E-02 1.96879E-24
6.48222E-02 1.83649E-24
6.69873E-02 1.71504E-24
6.91854E-02 1.60338E-24
7.14163E-02 1.50058E-24
7.36799E-02 1.40582E-24
7.59760E-02 1.31836E-24
7.83043E-02 1.23753E-24
8.06647E-02 1.16275E-24
8.30571E-02 1.09347E-24
8.54812E-02 1.02922E-24
8.79369E-02 9.69581E-25
9.04240E-02 9.14149E-25
9.29422E-02 8.62580E-25
9.54915E-02 8.14555E-25
9.80716E-02 7.69788E-25
1.00682E-01 7.28017E-25
1.03323E-01 6.89008E-25
1.05995E-01 6.52544E-25
1.08696E-01 6.18429E-25
1.11427E-01 5.86485E-25
1.14188E-01 5.56550E-25
1.16978E-01 5.28474E-25
1.19797E-01 5.02121E-25
1.22645E-01 4.77366E-25
1.25522E-01 4.54095E-25
1.28428E-01 4.32203E-25
1.31361E-01 4.11594E-25
1.34323E-01 3.92179E-25
1.37313E-01 3.73876E-25
1.40330E-01 3.56610E-25
1.43375E-01 3.40313E-25
1.46447E-01 3.24919E-25
1.49545E-01 3.10370E-25
1.52671E-01 2.96611E-25
1.55823E-01 2.83591E-25
1.59001E-01 2.71264E-25
1.62205E-01 2.59587E-25
1.65435E-01 2.48518E-25
1.68690E-01 2.38020E-25
1.71970E-01 2.28059E-25
1.75276E-01 2.18602E-25
1.78606E-01 2.09619E-25
1.81961E-01 2.01082E-25
1.85340E-01 1.92966E-25
1.88743E-01 1.85245E-25
1.92169E-01 1.77896E-25
1.95619E-01 1.70900E-25
1.99092E-01 1.64235E-25
2.02589E-01 1.57883E-25
2.06107E-01 1.51827E-25
2.09649E-01 1.46051E-25
2.13212E-01 1.40539E-25
2.16797E-01 1.35278E-25
2.20404E-01 1.30253E-25
2.24032E-01 1.25452E-25
2.27680E-01 1.20864E-25
2.31350E-01 1.16477E-25
2.35040E-01 1.12281E-25
2.38751E-01 1.08266E-25
2.42481E-01 1.04424E-25
2.46231E-01 1.00744E-25
2.50000E-01 9.72193E-26
2.53788E-01 9.38421E-26
2.57595E-01 9.06051E-26
2.61421E-01 8.75013E-26
2.65264E-01 8.45243E-26
2.69126E-01 8.16681E-26
2.73005E-01 7.89268E-26
2.76901E-01 7.62950E-26
2.80814E-01 7.37675E-26
2.84744E-01 7.13396E-26
2.88691E-01 6.90065E-26
2.92653E-01 6.67640E-26
2.96632E-01 6.46079E-26
3.00625E-01 6.25342E-26
3.04634E-01 6.05393E-26
3.08658E-01 5.86196E-26
3.12697E-01 5.67718E-26
3.16749E-01 5.49928E-26
3.20816E-01 5.32796E-26
3.24896E-01 5.16292E-26
3.28990E-01 5.00389E-26
3.33097E-01 4.85063E-26
3.37216E-01 4.70288E-26
3.41348E-01 4.56041E-26
3.45492E-01 4.42301E-26
3.49647E-01 4.29045E-26
3.53814E-01 4.16254E-26
3.57992E-01 4.03908E-26
3.62181E-01 3.91990E-26
3.66381E-01 3.80482E-26
3.70590E-01 3.69368E-26
3.74810E-01 3.58631E-26
3.79039E-01 3.48257E-26
3.83277E-01 3.38231E-26
3.87524E-01 3.28540E-26
3.91780E-01 3.19171E-26
3.96044E-01 3.10110E-26
4.00316E-01 3.01347E-26
4.04596E-01 2.92869E-26
4.08882E-01 2.84666E-26
4.13176E-01 2.76728E-26
4.17476E-01 2.69044E-26
4.21783E-01 2.61604E-26
4.26095E-01 2.54401E-26
4.30413E-01 2.47424E-26
4.34737E-01 2.40666E-26
4.39065E-01 2.34119E-26
4.43398E-01 2.27774E-26
4.47736E-01 2.21625E-26
4.52077E-01 2.15665E-26
4.56422E-01 2.09887E-26
4.60770E-01 2.04284E-26
4.65122E-01 1.98850E-26
4.69476E-01 1.93579E-26
4.73832E-01 1.88465E-26
4.78190E-01 1.83504E-26
4.82550E-01 1.78689E-26
4.86912E-01 1.74016E-26
4.91274E-01 1.69480E-26
4.95637E-01 1.65076E-26
5.00000E-01 1.60799E-26
5.04363E-01 1.56646E-26
5.08726E-01 1.52612E-26
5.13088E-01 1.48693E-26
5.17450E-01 1.44886E-26
5.21810E-01 1.41187E-26
5.26168E-01 1.37591E-26
5.30524E-01 1.34097E-26
5.34878E-01 1.30700E-26
5.39230E-01 1.27397E-26
5.43578E-01 1.24185E-26
5.47923E-01 1.21062E-26
5.52264E-01 1.18025E-26
5.56602E-01 1.15070E-26
5.60935E-01 1.12196E-26
5.65263E-01 1.09399E-26
5.69587E-01 1.06678E-26
5.73905E-01 1.04029E-26
5.78217E-01 1.01452E-26
5.82524E-01 9.89423E-27
5.86824E-01 9.64994E-27
5.91118E-01 9.41209E-27
5.95404E-01 9.18048E-27
5.99684E-01 8.95493E-27
6.03956E-01 8.73525E-27
6.08220E-01 8.52126E-27
6.12476E-01 8.31280E-27
6.16723E-01 8.10970E-27
6.20961E-01 7.91181E-27
6.25190E-01 7.71896E-27
6.29410E-01 7.53102E-27
6.33619E-01 7.34784E-27
6.37819E-01 7.16928E-27
6.42008E-01 6.99521E-27
6.46186E-01 6.82550E-27
6.50353E-01 6.66002E-27
6.54508E-01 6.49866E-27
6.58652E-01 6.34129E-27
6.62784E-01 6.18781E-27
6.66903E-01 6.03811E-27
6.71010E-01 5.89208E-27
6.75104E-01 5.74961E-27
6.79184E-01 5.61061E-27
6.83251E-01 5.47499E-27
6.87303E-01 5.34265E-27
6.91342E-01 5.21349E-27
6.95366E-01 5.08744E-27
6.99375E-01 4.96441E-27
7.03368E-01 4.84432E-27
7.07347E-01 4.72709E-27
7.11309E-01 4.61264E-27
7.15256E-01 4.50090E-27
7.19186E-01 4.39180E-27
7.23099E-01 4.28526E-27
7.26995E-01 4.18122E-27
7.30874E-01 4.07962E-27
7.34736E-01 3.98039E-27
7.38579E-01 3.88346E-27
7.42405E-01 3.78879E-27
7.46212E-01 3.69630E-27
7.50000E-01 3.60596E-27
7.53769E-01 3.51769E-27
7.57519E-01 3.43145E-27
7.61249E-01 3.34719E-27
7.64960E-01 3.26485E-27
7.68650E-01 3.18440E-27
7.72320E-01 3.10577E-27
7.75968E-01 3.02894E-27
7.79596E-01 2.95384E-27
7.83203E-01 2.88044E-27
7.86788E-01 2.80870E-27
7.90351E-01 2.73858E-27
7.93893E-01 2.67004E-27
7.97411E-01 2.60304E-27
8.00908E-01 2.53754E-27
8.04381E-01 2.47350E-27
8.07831E-01 2.41090E-27
8.11257E-01 2.34969E-27
8.14660E-01 2.28986E-27
8.18039E-01 2.23135E-27
8.21394E-01 2.17414E-27
8.24724E-01 2.11821E-27
8.28030E-01 2.06352E-27
8.31310E-01 2.01004E-27
8.34565E-01 1.95774E-27
8.37795E-01 1.90661E-27
8.40999E-01 1.85661E-27
8.44177E-01 1.80771E-27
8.47329E-01 1.75990E-27
8.50455E-01 1.71314E-27
8.53553E-01 1.66741E-27
8.56625E-01 1.62270E-27
8.59670E-01 1.57898E-27
8.62687E-01 1.53622E-27
8.65677E-01 1.49441E-27
8.68639E-01 1.45353E-27
8.71572E-01 1.41355E-27
8.74478E-01 1.37445E-27
8.77355E-01 1.33623E-27
8.80203E-01 1.29885E-27
8.83022E-01 1.26231E-27
8.85812E-01 1.22658E-27
8.88573E-01 1.19165E-27
8.91304E-01 1.15750E-27
8.94005E-01 1.12411E-27
8.96677E-01 1.09147E-27
8.99318E-01 1.05957E-27
9.01928E-01 1.02838E-27
9.04508E-01 9.97904E-28
9.07058E-01 9.68116E-28
9.09576E-01 9.39006E-28
9.12063E-01 9.10561E-28
9.14519E-01 8.82767E-28
9.16943E-01 8.55612E-28
9.19335E-01 8.29084E-28
9.21696E-01 8.03172E-28
9.24024E-01 7.77864E-28
9.26320E-01 7.53148E-28
9.28584E-01 7.29014E-28
9.30815E-01 7.05451E-28
9.33013E-01 6.82449E-28
9.35178E-01 6.59998E-28
9.37310E-01 6.38088E-28
9.39409E-01 6.16711E-28
9.41474E-01 5.95856E-28
9.43505E-01 5.75514E-28
9.45503E-01 5.55677E-28
9.47467E-01 5.36338E-28
9.49397E-01 5.17486E-28
9.51293E-01 4.99115E-28
9.53154E-01 4.81217E-28
9.54981E-01 4.63784E-28
9.56773E-01 4.46809E-28
9.58530E-01 4.30285E-28
9.60252E-01 4.14205E-28
9.61940E-01 3.98563E-28
9.63592E-01 3.83351E-28
9.65209E-01 3.68564E-28
9.66790E-01 3.54196E-28
9.68336E-01 3.40241E-28
9.69846E-01 3.26693E-28
9.71321E-01 3.13546E-28
9.72759E-01 3.00796E-28
9.74162E-01 2.88436E-28
9.75528E-01 2.76463E-28
9.76858E-01 2.64871E-28
9.78152E-01 2.53656E-28
9.79410E-01 2.42813E-28
9.80631E-01 2.32338E-28
9.81815E-01 2.22226E-28
9.82963E-01 2.12474E-28
9.84074E-01 2.03078E-28
9.85148E-01 1.94034E-28
9.86185E-01 1.85339E-28
9.87185E-01 1.76988E-28
9.88148E-01 1.68979E-28
9.89074E-01 1.61309E-28
9.89962E-01 1.53975E-28
9.90814E-01 1.46973E-28
9.91627E-01 1.40301E-28
9.92404E-01 1.33956E-28
9.93143E-01 1.27937E-28
9.93844E-01 1.22240E-28
9.94508E-01 1.16863E-28
9.95134E-01 1.11805E-28
9.95722E-01 1.07063E-28
9.96273E-01 1.02635E-28
9.96786E-01 9.85199E-29
9.97261E-01 9.47161E-29
9.97698E-01 9.12221E-29
9.98097E-01 8.80362E-29
9.98459E-01 8.51575E-29
9.98782E-01 8.25847E-29
9.99067E-01 8.03171E-29
9.99315E-01 7.83536E-29
9.99524E-01 7.66931E-29
9.99695E-01 7.53356E-29
9.99829E-01 7.42804E-29
9.99924E-01 7.35268E-29
9.99981E-01 7.30751E-29
1.00000E+00 7.29261E-29
