 #
 # Subroutine ELSEPA. Elastic scattering of electrons and positrons
 #                    by neutral atoms and positive ions
 #
 # Projectile: positron
 # Kinetic energy = 1.75000E+08 eV = 6.43113E+06 a.u.
 #
 # WARNING: High-energy factorization with free-atom DF screening.
 #          Absorption, polarization and exchange corrections are
 #          switched off.
 #          Phase shifts are calculated for the bare nucleus.
 #          Scattering amplitudes are not evaluated.
 #
 # Element: Sb,  Z =  51,  atomic weight = 1.21760E+02 g/mol
 #
 # Nuclear model: Fermi distribution
 #                Average radius = 5.30337E-13 cm
 #                Skin thickness = 5.46000E-14 cm
 #
 # Number of electrons = 51
 #
 # Total elastic cross section = 5.31613E-18 cm**2 = 1.89842E-01 a0**2
 # 1st transport cross section = 1.63545E-25 cm**2 = 5.84030E-09 a0**2
 # 2nd transport cross section = 4.89019E-25 cm**2 = 1.74632E-08 a0**2
 #
 #
 # Differential cross section:                       MU=(1-COS(THETA))/2
 #
 #  THETA        MU          DCS          DCS        Sherman      error
 #  (deg)                 (cm**2/sr)   (a0**2/sr)    function
 #----------------------------------------------------------------------
0.00000E+00 1.39797E-09
7.61557E-13 1.38795E-09
1.18994E-12 1.38238E-09
1.71346E-12 1.37562E-09
2.33225E-12 1.36769E-09
3.04617E-12 1.35864E-09
3.85530E-12 1.34850E-09
4.75964E-12 1.33730E-09
5.75917E-12 1.32510E-09
6.85391E-12 1.31194E-09
8.04379E-12 1.29778E-09
9.32893E-12 1.28277E-09
1.07092E-11 1.26709E-09
1.21847E-11 1.25064E-09
1.37554E-11 1.23334E-09
1.54213E-11 1.21559E-09
1.71823E-11 1.19730E-09
1.90386E-11 1.17823E-09
2.09900E-11 1.15892E-09
2.30367E-11 1.13933E-09
2.51785E-11 1.11901E-09
2.74156E-11 1.09863E-09
2.97478E-11 1.07825E-09
3.21752E-11 1.05718E-09
3.46979E-11 1.03621E-09
3.73157E-11 1.01540E-09
4.00286E-11 9.94116E-10
4.28368E-11 9.72982E-10
4.57402E-11 9.52145E-10
4.87388E-11 9.31049E-10
5.18325E-11 9.10116E-10
5.50215E-11 8.89581E-10
5.83057E-11 8.68996E-10
6.16850E-11 8.48563E-10
6.51595E-11 8.28604E-10
6.87293E-11 8.08775E-10
7.23943E-11 7.89079E-10
7.61544E-11 7.69904E-10
1.18991E-10 5.96108E-10
1.71347E-10 4.58889E-10
2.33223E-10 3.55264E-10
3.04617E-10 2.78270E-10
3.85531E-10 2.21055E-10
4.75965E-10 1.78115E-10
5.75917E-10 1.45374E-10
6.85389E-10 1.20009E-10
8.04380E-10 9.93769E-11
9.32891E-10 8.30299E-11
1.07092E-09 7.05445E-11
1.21847E-09 6.02123E-11
1.37554E-09 5.11752E-11
1.54213E-09 4.40455E-11
1.71823E-09 3.81436E-11
1.90386E-09 3.28289E-11
2.09900E-09 2.85280E-11
2.30367E-09 2.49678E-11
2.51785E-09 2.17374E-11
2.74156E-09 1.90674E-11
2.97478E-09 1.68423E-11
3.21752E-09 1.48325E-11
3.46978E-09 1.31393E-11
3.73156E-09 1.17048E-11
4.00286E-09 1.04301E-11
4.28368E-09 9.33217E-12
4.57402E-09 8.38827E-12
4.87388E-09 7.55344E-12
5.18326E-09 6.82314E-12
5.50215E-09 6.18715E-12
5.83057E-09 5.62308E-12
6.16850E-09 5.12344E-12
6.51596E-09 4.68343E-12
6.87293E-09 4.29074E-12
7.23942E-09 3.93885E-12
7.61544E-09 3.62596E-12
1.18991E-08 1.74501E-12
1.71347E-08 9.45513E-13
2.33223E-08 5.51159E-13
3.04617E-08 3.39975E-13
3.85531E-08 2.19931E-13
4.75965E-08 1.48285E-13
5.75917E-08 1.03681E-13
6.85389E-08 7.47497E-14
8.04380E-08 5.52737E-14
9.32891E-08 4.18120E-14
1.07092E-07 3.22313E-14
1.21847E-07 2.52338E-14
1.37554E-07 2.00407E-14
1.54213E-07 1.61177E-14
1.71823E-07 1.31077E-14
1.90386E-07 1.07669E-14
2.09900E-07 8.92119E-15
2.30367E-07 7.45359E-15
2.51785E-07 6.27491E-15
2.74156E-07 5.31956E-15
2.97478E-07 4.53861E-15
3.21752E-07 3.89485E-15
3.46978E-07 3.36108E-15
3.73156E-07 2.91554E-15
4.00286E-07 2.54132E-15
4.28368E-07 2.22517E-15
4.57402E-07 1.95648E-15
4.87388E-07 1.72715E-15
5.18325E-07 1.53045E-15
5.50215E-07 1.36098E-15
5.83057E-07 1.21432E-15
6.16850E-07 1.08687E-15
6.51596E-07 9.75715E-16
6.87293E-07 8.78429E-16
7.23942E-07 7.92984E-16
7.61543E-07 7.17687E-16
1.18991E-06 2.97547E-16
1.71347E-06 1.44731E-16
2.33223E-06 7.86097E-17
3.04617E-06 4.62890E-17
3.85531E-06 2.89944E-17
4.75964E-06 1.90702E-17
5.75916E-06 1.30492E-17
6.85388E-06 9.22641E-18
8.04378E-06 6.70565E-18
9.32888E-06 4.98945E-18
1.07092E-05 3.78850E-18
1.21846E-05 2.92790E-18
1.37553E-05 2.29824E-18
1.54212E-05 1.82902E-18
1.71822E-05 1.47360E-18
1.90385E-05 1.20009E-18
2.09899E-05 9.87760E-19
2.30365E-05 8.20288E-19
2.51783E-05 6.86728E-19
2.74153E-05 5.79179E-19
2.97475E-05 4.91829E-19
3.21749E-05 4.20330E-19
3.46974E-05 3.61376E-19
3.73152E-05 3.12426E-19
4.00281E-05 2.71507E-19
4.28362E-05 2.37080E-19
4.57395E-05 2.07938E-19
4.87380E-05 1.83130E-19
5.18317E-05 1.61903E-19
5.50205E-05 1.43657E-19
5.83045E-05 1.27907E-19
6.16838E-05 1.14256E-19
6.51582E-05 1.02380E-19
6.87277E-05 9.20101E-20
7.23925E-05 8.29216E-20
7.61524E-05 7.49977E-20
9.21439E-05 5.12030E-20
1.09658E-04 3.61344E-20
1.28695E-04 2.62229E-20
1.49255E-04 1.94851E-20
1.71338E-04 1.47785E-20
1.94942E-04 1.14097E-20
2.20070E-04 8.94768E-21
2.46720E-04 7.11486E-21
2.74892E-04 5.72764E-21
3.04586E-04 4.66234E-21
3.35803E-04 3.83323E-21
3.68542E-04 3.18029E-21
4.02802E-04 2.66043E-21
4.38585E-04 2.24240E-21
4.75889E-04 1.90321E-21
5.14715E-04 1.62566E-21
5.55063E-04 1.39681E-21
5.96931E-04 1.20676E-21
6.40321E-04 1.04787E-21
6.85233E-04 9.14228E-22
7.31665E-04 8.01157E-22
7.79618E-04 7.04986E-22
8.29092E-04 6.22771E-22
8.80086E-04 5.52157E-22
9.32601E-04 4.91235E-22
9.86636E-04 4.38453E-22
1.04219E-03 3.92544E-22
1.09927E-03 3.52460E-22
1.15786E-03 3.17339E-22
1.21797E-03 2.86463E-22
1.27961E-03 2.59232E-22
1.34276E-03 2.35142E-22
1.40743E-03 2.13769E-22
1.47362E-03 1.94755E-22
1.54133E-03 1.77794E-22
1.61056E-03 1.62626E-22
1.68131E-03 1.49030E-22
1.75357E-03 1.36814E-22
1.82735E-03 1.25815E-22
1.90265E-03 1.15889E-22
1.97947E-03 1.06914E-22
2.05780E-03 9.87837E-23
2.13765E-03 9.14038E-23
2.21902E-03 8.46935E-23
2.30190E-03 7.85811E-23
2.38630E-03 7.30043E-23
2.47222E-03 6.79079E-23
2.55965E-03 6.32433E-23
2.64859E-03 5.89674E-23
2.73905E-03 5.50422E-23
2.83103E-03 5.14339E-23
2.92452E-03 4.81124E-23
3.01952E-03 4.50510E-23
3.11604E-03 4.22257E-23
3.21407E-03 3.96150E-23
3.31362E-03 3.71999E-23
3.41468E-03 3.49630E-23
3.51725E-03 3.28890E-23
3.62133E-03 3.09638E-23
3.72692E-03 2.91750E-23
3.83403E-03 2.75112E-23
3.94265E-03 2.59620E-23
4.05278E-03 2.45183E-23
4.16442E-03 2.31715E-23
4.27757E-03 2.19141E-23
4.39223E-03 2.07391E-23
4.50840E-03 1.96400E-23
4.62608E-03 1.86112E-23
4.74527E-03 1.76473E-23
4.86597E-03 1.67436E-23
4.98817E-03 1.58957E-23
5.11188E-03 1.50994E-23
5.23711E-03 1.43511E-23
5.36383E-03 1.36474E-23
5.49207E-03 1.29852E-23
5.62181E-03 1.23616E-23
5.75306E-03 1.17739E-23
5.88581E-03 1.12198E-23
6.02007E-03 1.06970E-23
6.15583E-03 1.02033E-23
6.29310E-03 9.73699E-24
6.43187E-03 9.29617E-24
6.57214E-03 8.87924E-24
6.71392E-03 8.48468E-24
6.85720E-03 8.11108E-24
7.00198E-03 7.75714E-24
7.14827E-03 7.42163E-24
7.29605E-03 7.10345E-24
7.44534E-03 6.80153E-24
7.59612E-03 6.51491E-24
7.97965E-03 5.85947E-24
8.37255E-03 5.28154E-24
8.77480E-03 4.77053E-24
9.18641E-03 4.31749E-24
9.60736E-03 3.91483E-24
1.00376E-02 3.55607E-24
1.04773E-02 3.23570E-24
1.09262E-02 2.94899E-24
1.13844E-02 2.69184E-24
1.18520E-02 2.46076E-24
1.23288E-02 2.25270E-24
1.28150E-02 2.06503E-24
1.33104E-02 1.89544E-24
1.38150E-02 1.74193E-24
1.43290E-02 1.60276E-24
1.48521E-02 1.47639E-24
1.53845E-02 1.36146E-24
1.59262E-02 1.25680E-24
1.64770E-02 1.16135E-24
1.70371E-02 1.07418E-24
1.76063E-02 9.94482E-25
1.81848E-02 9.21514E-25
1.87724E-02 8.54633E-25
1.93692E-02 7.93259E-25
1.99751E-02 7.36877E-25
2.05901E-02 6.85025E-25
2.12143E-02 6.37289E-25
2.18476E-02 5.93300E-25
2.24900E-02 5.52724E-25
2.31415E-02 5.15262E-25
2.38021E-02 4.80643E-25
2.44717E-02 4.48624E-25
2.51504E-02 4.18984E-25
2.58382E-02 3.91525E-25
2.65349E-02 3.66065E-25
2.72407E-02 3.42442E-25
2.79555E-02 3.20507E-25
2.86793E-02 3.00124E-25
2.94120E-02 2.81171E-25
3.01537E-02 2.63536E-25
3.09043E-02 2.47116E-25
3.16639E-02 2.31817E-25
3.24324E-02 2.17556E-25
3.32098E-02 2.04253E-25
3.39961E-02 1.91837E-25
3.47912E-02 1.80242E-25
3.55952E-02 1.69409E-25
3.64081E-02 1.59282E-25
3.72297E-02 1.49810E-25
3.80602E-02 1.40946E-25
3.88995E-02 1.32648E-25
3.97476E-02 1.24876E-25
4.06044E-02 1.17593E-25
4.14700E-02 1.10766E-25
4.23443E-02 1.04363E-25
4.32273E-02 9.83555E-26
4.41190E-02 9.27170E-26
4.50194E-02 8.74228E-26
4.59284E-02 8.24499E-26
4.68461E-02 7.77772E-26
4.87074E-02 6.92551E-26
5.06030E-02 6.17158E-26
5.25328E-02 5.50376E-26
5.44967E-02 4.91151E-26
5.64946E-02 4.38573E-26
5.85262E-02 3.91845E-26
6.05914E-02 3.50279E-26
6.26901E-02 3.13270E-26
6.48222E-02 2.80292E-26
6.69873E-02 2.50882E-26
6.91854E-02 2.24636E-26
7.14163E-02 2.01197E-26
7.36799E-02 1.80252E-26
7.59760E-02 1.61526E-26
7.83043E-02 1.44773E-26
8.06647E-02 1.29780E-26
8.30571E-02 1.16355E-26
8.54812E-02 1.04330E-26
8.79369E-02 9.35551E-27
9.04240E-02 8.38967E-27
9.29422E-02 7.52370E-27
9.54915E-02 6.74708E-27
9.80716E-02 6.05045E-27
1.00682E-01 5.42545E-27
1.03323E-01 4.86465E-27
1.05995E-01 4.36139E-27
1.08696E-01 3.90973E-27
1.11427E-01 3.50436E-27
1.14188E-01 3.14053E-27
1.16978E-01 2.81398E-27
1.19797E-01 2.52091E-27
1.22645E-01 2.25789E-27
1.25522E-01 2.02187E-27
1.28428E-01 1.81011E-27
1.31361E-01 1.62013E-27
1.34323E-01 1.44972E-27
1.37313E-01 1.29689E-27
1.40330E-01 1.15987E-27
1.43375E-01 1.03703E-27
1.46447E-01 9.26956E-28
1.49545E-01 8.28334E-28
1.52671E-01 7.40003E-28
1.55823E-01 6.60914E-28
1.59001E-01 5.90124E-28
1.62205E-01 5.26786E-28
1.65435E-01 4.70137E-28
1.68690E-01 4.19490E-28
1.71970E-01 3.74228E-28
1.75276E-01 3.33796E-28
1.78606E-01 2.97694E-28
1.81961E-01 2.65474E-28
1.85340E-01 2.36732E-28
1.88743E-01 2.11104E-28
1.92169E-01 1.88265E-28
1.95619E-01 1.67921E-28
1.99092E-01 1.49808E-28
2.02589E-01 1.33689E-28
2.06107E-01 1.19354E-28
2.09649E-01 1.06609E-28
2.13212E-01 9.52848E-29
2.16797E-01 8.52273E-29
2.20404E-01 7.62987E-29
2.24032E-01 6.83758E-29
2.27680E-01 6.13480E-29
2.31350E-01 5.51164E-29
2.35040E-01 4.95924E-29
2.38751E-01 4.46968E-29
2.42481E-01 4.03591E-29
2.46231E-01 3.65158E-29
2.50000E-01 3.31107E-29
2.53788E-01 3.00935E-29
2.57595E-01 2.74194E-29
2.61421E-01 2.50484E-29
2.65264E-01 2.29451E-29
2.69126E-01 2.10779E-29
2.73005E-01 1.94188E-29
2.76901E-01 1.79429E-29
2.80814E-01 1.66283E-29
2.84744E-01 1.54553E-29
2.88691E-01 1.44068E-29
2.92653E-01 1.34676E-29
2.96632E-01 1.26241E-29
3.00625E-01 1.18646E-29
3.04634E-01 1.11787E-29
3.08658E-01 1.05571E-29
3.12697E-01 9.99193E-30
3.16749E-01 9.47608E-30
3.20816E-01 9.00342E-30
3.24896E-01 8.56858E-30
3.28990E-01 8.16689E-30
3.33097E-01 7.79427E-30
3.37216E-01 7.44718E-30
3.41348E-01 7.12257E-30
3.45492E-01 6.81778E-30
3.49647E-01 6.53053E-30
3.53814E-01 6.25885E-30
3.57992E-01 6.00105E-30
3.62181E-01 5.75567E-30
3.66381E-01 5.52147E-30
3.70590E-01 5.29739E-30
3.74810E-01 5.08253E-30
3.79039E-01 4.87612E-30
3.83277E-01 4.67750E-30
3.87524E-01 4.48612E-30
3.91780E-01 4.30152E-30
3.96044E-01 4.12329E-30
4.00316E-01 3.95110E-30
4.04596E-01 3.78466E-30
4.08882E-01 3.62373E-30
4.13176E-01 3.46810E-30
4.17476E-01 3.31759E-30
4.21783E-01 3.17204E-30
4.26095E-01 3.03133E-30
4.30413E-01 2.89531E-30
4.34737E-01 2.76390E-30
4.39065E-01 2.63697E-30
4.43398E-01 2.51445E-30
4.47736E-01 2.39624E-30
4.52077E-01 2.28225E-30
4.56422E-01 2.17240E-30
4.60770E-01 2.06662E-30
4.65122E-01 1.96480E-30
4.69476E-01 1.86689E-30
4.73832E-01 1.77278E-30
4.78190E-01 1.68240E-30
4.82550E-01 1.59567E-30
4.86912E-01 1.51248E-30
4.91274E-01 1.43277E-30
4.95637E-01 1.35644E-30
5.00000E-01 1.28340E-30
5.04363E-01 1.21355E-30
5.08726E-01 1.14682E-30
5.13088E-01 1.08311E-30
5.17450E-01 1.02231E-30
5.21810E-01 9.64357E-31
5.26168E-01 9.09141E-31
5.30524E-01 8.56574E-31
5.34878E-01 8.06565E-31
5.39230E-01 7.59024E-31
5.43578E-01 7.13860E-31
5.47923E-01 6.70984E-31
5.52264E-01 6.30310E-31
5.56602E-01 5.91750E-31
5.60935E-01 5.55220E-31
5.65263E-01 5.20637E-31
5.69587E-01 4.87920E-31
5.73905E-01 4.56988E-31
5.78217E-01 4.27764E-31
5.82524E-01 4.00172E-31
5.86824E-01 3.74138E-31
5.91118E-01 3.49591E-31
5.95404E-01 3.26461E-31
5.99684E-01 3.04680E-31
6.03956E-01 2.84184E-31
6.08220E-01 2.64910E-31
6.12476E-01 2.46796E-31
6.16723E-01 2.29783E-31
6.20961E-01 2.13816E-31
6.25190E-01 1.98840E-31
6.29410E-01 1.84803E-31
6.33619E-01 1.71654E-31
6.37819E-01 1.59346E-31
6.42008E-01 1.47832E-31
6.46186E-01 1.37068E-31
6.50353E-01 1.27013E-31
6.54508E-01 1.17625E-31
6.58652E-01 1.08867E-31
6.62784E-01 1.00702E-31
6.66903E-01 9.30953E-32
6.71010E-01 8.60130E-32
6.75104E-01 7.94240E-32
6.79184E-01 7.32982E-32
6.83251E-01 6.76071E-32
6.87303E-01 6.23237E-32
6.91342E-01 5.74225E-32
6.95366E-01 5.28792E-32
6.99375E-01 4.86708E-32
7.03368E-01 4.47755E-32
7.07347E-01 4.11730E-32
7.11309E-01 3.78438E-32
7.15256E-01 3.47697E-32
7.19186E-01 3.19335E-32
7.23099E-01 2.93188E-32
7.26995E-01 2.69105E-32
7.30874E-01 2.46941E-32
7.34736E-01 2.26561E-32
7.38579E-01 2.07840E-32
7.42405E-01 1.90656E-32
7.46212E-01 1.74899E-32
7.50000E-01 1.60464E-32
7.53769E-01 1.47252E-32
7.57519E-01 1.35173E-32
7.61249E-01 1.24139E-32
7.64960E-01 1.14071E-32
7.68650E-01 1.04894E-32
7.72320E-01 9.65374E-33
7.75968E-01 8.89364E-33
7.79596E-01 8.20302E-33
7.83203E-01 7.57621E-33
7.86788E-01 7.00796E-33
7.90351E-01 6.49338E-33
7.93893E-01 6.02791E-33
7.97411E-01 5.60735E-33
8.00908E-01 5.22779E-33
8.04381E-01 4.88561E-33
8.07831E-01 4.57745E-33
8.11257E-01 4.30023E-33
8.14660E-01 4.05107E-33
8.18039E-01 3.82735E-33
8.21394E-01 3.62663E-33
8.24724E-01 3.44668E-33
8.28030E-01 3.28543E-33
8.31310E-01 3.14098E-33
8.34565E-01 3.01162E-33
8.37795E-01 2.89573E-33
8.40999E-01 2.79188E-33
8.44177E-01 2.69873E-33
8.47329E-01 2.61506E-33
8.50455E-01 2.53978E-33
8.53553E-01 2.47187E-33
8.56625E-01 2.41042E-33
8.59670E-01 2.35462E-33
8.62687E-01 2.30370E-33
8.65677E-01 2.25700E-33
8.68639E-01 2.21391E-33
8.71572E-01 2.17388E-33
8.74478E-01 2.13642E-33
8.77355E-01 2.10110E-33
8.80203E-01 2.06754E-33
8.83022E-01 2.03538E-33
8.85812E-01 2.00433E-33
8.88573E-01 1.97412E-33
8.91304E-01 1.94451E-33
8.94005E-01 1.91532E-33
8.96677E-01 1.88635E-33
8.99318E-01 1.85748E-33
9.01928E-01 1.82856E-33
9.04508E-01 1.79949E-33
9.07058E-01 1.77019E-33
9.09576E-01 1.74060E-33
9.12063E-01 1.71065E-33
9.14519E-01 1.68030E-33
9.16943E-01 1.64954E-33
9.19335E-01 1.61833E-33
9.21696E-01 1.58668E-33
9.24024E-01 1.55458E-33
9.26320E-01 1.52205E-33
9.28584E-01 1.48910E-33
9.30815E-01 1.45574E-33
9.33013E-01 1.42200E-33
9.35178E-01 1.38792E-33
9.37310E-01 1.35352E-33
9.39409E-01 1.31883E-33
9.41474E-01 1.28391E-33
9.43505E-01 1.24878E-33
9.45503E-01 1.21349E-33
9.47467E-01 1.17808E-33
9.49397E-01 1.14259E-33
9.51293E-01 1.10707E-33
9.53154E-01 1.07155E-33
9.54981E-01 1.03609E-33
9.56773E-01 1.00072E-33
9.58530E-01 9.65487E-34
9.60252E-01 9.30435E-34
9.61940E-01 8.95603E-34
9.63592E-01 8.61031E-34
9.65209E-01 8.26758E-34
9.66790E-01 7.92823E-34
9.68336E-01 7.59260E-34
9.69846E-01 7.26107E-34
9.71321E-01 6.93400E-34
9.72759E-01 6.61170E-34
9.74162E-01 6.29446E-34
9.75528E-01 5.98266E-34
9.76858E-01 5.67655E-34
9.78152E-01 5.37639E-34
9.79410E-01 5.08248E-34
9.80631E-01 4.79508E-34
9.81815E-01 4.51440E-34
9.82963E-01 4.24071E-34
9.84074E-01 3.97419E-34
9.85148E-01 3.71507E-34
9.86185E-01 3.46355E-34
9.87185E-01 3.21980E-34
9.88148E-01 2.98399E-34
9.89074E-01 2.75630E-34
9.89962E-01 2.53687E-34
9.90814E-01 2.32586E-34
9.91627E-01 2.12339E-34
9.92404E-01 1.92959E-34
9.93143E-01 1.74457E-34
9.93844E-01 1.56845E-34
9.94508E-01 1.40133E-34
9.95134E-01 1.24329E-34
9.95722E-01 1.09444E-34
9.96273E-01 9.54846E-35
9.96786E-01 8.24577E-35
9.97261E-01 7.03703E-35
9.97698E-01 5.92283E-35
9.98097E-01 4.90393E-35
9.98459E-01 3.98051E-35
9.98782E-01 3.15314E-35
9.99067E-01 2.42226E-35
9.99315E-01 1.78808E-35
9.99524E-01 1.25108E-35
9.99695E-01 8.11385E-36
9.99829E-01 4.69143E-36
9.99924E-01 2.24600E-36
9.99981E-01 7.78326E-37
1.00000E+00 2.88918E-37
