 #
 # Subroutine ELSEPA. Elastic scattering of electrons and positrons
 #                    by neutral atoms and positive ions
 #
 # Projectile: positron
 # Kinetic energy = 4.00000E+06 eV = 1.46997E+05 a.u.
 #
 # WARNING: High-energy factorization with free-atom DF screening.
 #          Absorption, polarization and exchange corrections are
 #          switched off.
 #          Phase shifts are calculated for the bare nucleus.
 #          Scattering amplitudes are not evaluated.
 #
 # Element: Sb,  Z =  51,  atomic weight = 1.21760E+02 g/mol
 #
 # Nuclear model: Fermi distribution
 #                Average radius = 5.30337E-13 cm
 #                Skin thickness = 5.46000E-14 cm
 #
 # Number of electrons = 51
 #
 # Total elastic cross section = 5.38061E-18 cm**2 = 1.92145E-01 a0**2
 # 1st transport cross section = 1.62120E-22 cm**2 = 5.78941E-06 a0**2
 # 2nd transport cross section = 4.65877E-22 cm**2 = 1.66368E-05 a0**2
 #
 #
 # Differential cross section:                       MU=(1-COS(THETA))/2
 #
 #  THETA        MU          DCS          DCS        Sherman      error
 #  (deg)                 (cm**2/sr)   (a0**2/sr)    function
 #----------------------------------------------------------------------
0.00000E+00 9.23494E-13
7.61557E-13 9.23489E-13
1.18994E-12 9.23486E-13
1.71346E-12 9.23483E-13
2.33225E-12 9.23479E-13
3.04617E-12 9.23475E-13
3.85530E-12 9.23470E-13
4.75964E-12 9.23464E-13
5.75917E-12 9.23458E-13
6.85391E-12 9.23452E-13
8.04379E-12 9.23445E-13
9.32893E-12 9.23437E-13
1.07092E-11 9.23429E-13
1.21847E-11 9.23421E-13
1.37554E-11 9.23411E-13
1.54213E-11 9.23402E-13
1.71823E-11 9.23391E-13
1.90386E-11 9.23380E-13
2.09900E-11 9.23369E-13
2.30367E-11 9.23357E-13
2.51785E-11 9.23345E-13
2.74156E-11 9.23332E-13
2.97478E-11 9.23318E-13
3.21752E-11 9.23304E-13
3.46979E-11 9.23290E-13
3.73157E-11 9.23274E-13
4.00286E-11 9.23259E-13
4.28368E-11 9.23243E-13
4.57402E-11 9.23226E-13
4.87388E-11 9.23209E-13
5.18325E-11 9.23191E-13
5.50215E-11 9.23172E-13
5.83057E-11 9.23153E-13
6.16850E-11 9.23134E-13
6.51595E-11 9.23114E-13
6.87293E-11 9.23093E-13
7.23943E-11 9.23072E-13
7.61544E-11 9.23051E-13
1.18991E-10 9.22805E-13
1.71347E-10 9.22505E-13
2.33223E-10 9.22152E-13
3.04617E-10 9.21744E-13
3.85531E-10 9.21283E-13
4.75965E-10 9.20769E-13
5.75917E-10 9.20202E-13
6.85389E-10 9.19581E-13
8.04380E-10 9.18907E-13
9.32891E-10 9.18181E-13
1.07092E-09 9.17402E-13
1.21847E-09 9.16570E-13
1.37554E-09 9.15686E-13
1.54213E-09 9.14751E-13
1.71823E-09 9.13763E-13
1.90386E-09 9.12725E-13
2.09900E-09 9.11635E-13
2.30367E-09 9.10495E-13
2.51785E-09 9.09303E-13
2.74156E-09 9.08062E-13
2.97478E-09 9.06771E-13
3.21752E-09 9.05430E-13
3.46978E-09 9.04041E-13
3.73156E-09 9.02602E-13
4.00286E-09 9.01115E-13
4.28368E-09 8.99580E-13
4.57402E-09 8.97998E-13
4.87388E-09 8.96368E-13
5.18326E-09 8.94692E-13
5.50215E-09 8.92969E-13
5.83057E-09 8.91200E-13
6.16850E-09 8.89386E-13
6.51596E-09 8.87527E-13
6.87293E-09 8.85624E-13
7.23942E-09 8.83676E-13
7.61544E-09 8.81685E-13
1.18991E-08 8.59471E-13
1.71347E-08 8.33536E-13
2.33223E-08 8.04396E-13
3.04617E-08 7.72775E-13
3.85531E-08 7.39334E-13
4.75965E-08 7.04698E-13
5.75917E-08 6.69415E-13
6.85389E-08 6.33736E-13
8.04380E-08 5.98389E-13
9.32891E-08 5.63756E-13
1.07092E-07 5.30139E-13
1.21847E-07 4.97767E-13
1.37554E-07 4.66661E-13
1.54213E-07 4.37026E-13
1.71823E-07 4.09021E-13
1.90386E-07 3.82669E-13
2.09900E-07 3.57960E-13
2.30367E-07 3.34836E-13
2.51785E-07 3.13173E-13
2.74156E-07 2.93029E-13
2.97478E-07 2.74326E-13
3.21752E-07 2.56978E-13
3.46978E-07 2.40900E-13
3.73156E-07 2.25958E-13
4.00286E-07 2.12110E-13
4.28368E-07 1.99293E-13
4.57402E-07 1.87428E-13
4.87388E-07 1.76440E-13
5.18325E-07 1.66247E-13
5.50215E-07 1.56770E-13
5.83057E-07 1.47979E-13
6.16850E-07 1.39818E-13
6.51596E-07 1.32233E-13
6.87293E-07 1.25177E-13
7.23942E-07 1.18587E-13
7.61543E-07 1.12439E-13
1.18991E-06 6.85598E-14
1.71347E-06 4.43211E-14
2.33223E-06 2.95910E-14
3.04617E-06 2.03680E-14
3.85531E-06 1.43714E-14
4.75964E-06 1.03681E-14
5.75916E-06 7.64007E-15
6.85388E-06 5.74146E-15
8.04378E-06 4.41032E-15
9.32888E-06 3.45477E-15
1.07092E-05 2.75384E-15
1.21846E-05 2.22909E-15
1.37553E-05 1.82746E-15
1.54212E-05 1.51483E-15
1.71822E-05 1.26802E-15
1.90385E-05 1.07006E-15
2.09899E-05 9.10154E-16
2.30365E-05 7.78805E-16
2.51783E-05 6.69496E-16
2.74153E-05 5.78471E-16
2.97475E-05 5.01987E-16
3.21749E-05 4.37363E-16
3.46974E-05 3.82615E-16
3.73152E-05 3.35908E-16
4.00281E-05 2.95988E-16
4.28362E-05 2.61748E-16
4.57395E-05 2.32242E-16
4.87380E-05 2.06709E-16
5.18317E-05 1.84515E-16
5.50205E-05 1.65150E-16
5.83045E-05 1.48237E-16
6.16838E-05 1.33424E-16
6.51582E-05 1.20415E-16
6.87277E-05 1.08958E-16
7.23925E-05 9.88320E-17
7.61524E-05 8.98641E-17
9.21439E-05 6.27904E-17
1.09658E-04 4.52315E-17
1.28695E-04 3.34243E-17
1.49255E-04 2.52586E-17
1.71338E-04 1.94515E-17
1.94942E-04 1.52229E-17
2.20070E-04 1.20796E-17
2.46720E-04 9.70416E-18
2.74892E-04 7.88347E-18
3.04586E-04 6.46914E-18
3.35803E-04 5.35677E-18
3.68542E-04 4.47218E-18
4.02802E-04 3.76139E-18
4.38585E-04 3.18579E-18
4.75889E-04 2.71579E-18
5.14715E-04 2.32902E-18
5.55063E-04 2.00846E-18
5.96931E-04 1.74087E-18
6.40321E-04 1.51625E-18
6.85233E-04 1.32664E-18
7.31665E-04 1.16569E-18
7.79618E-04 1.02838E-18
8.29092E-04 9.10644E-19
8.80086E-04 8.09236E-19
9.32601E-04 7.21541E-19
9.86636E-04 6.45395E-19
1.04219E-03 5.79023E-19
1.09927E-03 5.20957E-19
1.15786E-03 4.69972E-19
1.21797E-03 4.25066E-19
1.27961E-03 3.85393E-19
1.34276E-03 3.50237E-19
1.40743E-03 3.18996E-19
1.47362E-03 2.91156E-19
1.54133E-03 2.66281E-19
1.61056E-03 2.44003E-19
1.68131E-03 2.24004E-19
1.75357E-03 2.06010E-19
1.82735E-03 1.89784E-19
1.90265E-03 1.75119E-19
1.97947E-03 1.61842E-19
2.05780E-03 1.49797E-19
2.13765E-03 1.38850E-19
2.21902E-03 1.28883E-19
2.30190E-03 1.19791E-19
2.38630E-03 1.11485E-19
2.47222E-03 1.03885E-19
2.55965E-03 9.69200E-20
2.64859E-03 9.05275E-20
2.73905E-03 8.46519E-20
2.83103E-03 7.92433E-20
2.92452E-03 7.42586E-20
3.01952E-03 6.96586E-20
3.11604E-03 6.54081E-20
3.21407E-03 6.14759E-20
3.31362E-03 5.78336E-20
3.41468E-03 5.44560E-20
3.51725E-03 5.13205E-20
3.62133E-03 4.84066E-20
3.72692E-03 4.56958E-20
3.83403E-03 4.31715E-20
3.94265E-03 4.08181E-20
4.05278E-03 3.86223E-20
4.16442E-03 3.65716E-20
4.27757E-03 3.46546E-20
4.39223E-03 3.28611E-20
4.50840E-03 3.11815E-20
4.62608E-03 2.96073E-20
4.74527E-03 2.81308E-20
4.86597E-03 2.67447E-20
4.98817E-03 2.54426E-20
5.11188E-03 2.42184E-20
5.23711E-03 2.30665E-20
5.36383E-03 2.19819E-20
5.49207E-03 2.09601E-20
5.62181E-03 1.99966E-20
5.75306E-03 1.90876E-20
5.88581E-03 1.82293E-20
6.02007E-03 1.74185E-20
6.15583E-03 1.66520E-20
6.29310E-03 1.59270E-20
6.43187E-03 1.52409E-20
6.57214E-03 1.45910E-20
6.71392E-03 1.39752E-20
6.85720E-03 1.33914E-20
7.00198E-03 1.28376E-20
7.14827E-03 1.23120E-20
7.29605E-03 1.18128E-20
7.44534E-03 1.13385E-20
7.59612E-03 1.08877E-20
7.97965E-03 9.85422E-21
8.37255E-03 8.93985E-21
8.77480E-03 8.12851E-21
9.18641E-03 7.40662E-21
9.60736E-03 6.76264E-21
1.00376E-02 6.18673E-21
1.04773E-02 5.67045E-21
1.09262E-02 5.20659E-21
1.13844E-02 4.78890E-21
1.18520E-02 4.41198E-21
1.23288E-02 4.07118E-21
1.28150E-02 3.76245E-21
1.33104E-02 3.48224E-21
1.38150E-02 3.22745E-21
1.43290E-02 2.99538E-21
1.48521E-02 2.78365E-21
1.53845E-02 2.59016E-21
1.59262E-02 2.41308E-21
1.64770E-02 2.25076E-21
1.70371E-02 2.10176E-21
1.76063E-02 1.96479E-21
1.81848E-02 1.83872E-21
1.87724E-02 1.72251E-21
1.93692E-02 1.61527E-21
1.99751E-02 1.51618E-21
2.05901E-02 1.42451E-21
2.12143E-02 1.33961E-21
2.18476E-02 1.26089E-21
2.24900E-02 1.18782E-21
2.31415E-02 1.11992E-21
2.38021E-02 1.05676E-21
2.44717E-02 9.97947E-22
2.51504E-02 9.43137E-22
2.58382E-02 8.92004E-22
2.65349E-02 8.44259E-22
2.72407E-02 7.99637E-22
2.79555E-02 7.57896E-22
2.86793E-02 7.18818E-22
2.94120E-02 6.82203E-22
3.01537E-02 6.47867E-22
3.09043E-02 6.15644E-22
3.16639E-02 5.85379E-22
3.24324E-02 5.56933E-22
3.32098E-02 5.30177E-22
3.39961E-02 5.04992E-22
3.47912E-02 4.81269E-22
3.55952E-02 4.58910E-22
3.64081E-02 4.37819E-22
3.72297E-02 4.17914E-22
3.80602E-02 3.99115E-22
3.88995E-02 3.81350E-22
3.97476E-02 3.64552E-22
4.06044E-02 3.48658E-22
4.14700E-02 3.33611E-22
4.23443E-02 3.19358E-22
4.32273E-02 3.05850E-22
4.41190E-02 2.93040E-22
4.50194E-02 2.80886E-22
4.59284E-02 2.69349E-22
4.68461E-02 2.58390E-22
4.87074E-02 2.38077E-22
5.06030E-02 2.19698E-22
5.25328E-02 2.03038E-22
5.44967E-02 1.87909E-22
5.64946E-02 1.74146E-22
5.85262E-02 1.61605E-22
6.05914E-02 1.50158E-22
6.26901E-02 1.39694E-22
6.48222E-02 1.30114E-22
6.69873E-02 1.21331E-22
6.91854E-02 1.13266E-22
7.14163E-02 1.05851E-22
7.36799E-02 9.90238E-23
7.59760E-02 9.27308E-23
7.83043E-02 8.69225E-23
8.06647E-02 8.15551E-23
8.30571E-02 7.65895E-23
8.54812E-02 7.19903E-23
8.79369E-02 6.77257E-23
9.04240E-02 6.37673E-23
9.29422E-02 6.00891E-23
9.54915E-02 5.66680E-23
9.80716E-02 5.34828E-23
1.00682E-01 5.05145E-23
1.03323E-01 4.77457E-23
1.05995E-01 4.51607E-23
1.08696E-01 4.27451E-23
1.11427E-01 4.04860E-23
1.14188E-01 3.83713E-23
1.16978E-01 3.63903E-23
1.19797E-01 3.45330E-23
1.22645E-01 3.27904E-23
1.25522E-01 3.11542E-23
1.28428E-01 2.96167E-23
1.31361E-01 2.81710E-23
1.34323E-01 2.68105E-23
1.37313E-01 2.55295E-23
1.40330E-01 2.43224E-23
1.43375E-01 2.31842E-23
1.46447E-01 2.21103E-23
1.49545E-01 2.10965E-23
1.52671E-01 2.01388E-23
1.55823E-01 1.92335E-23
1.59001E-01 1.83774E-23
1.62205E-01 1.75672E-23
1.65435E-01 1.68001E-23
1.68690E-01 1.60733E-23
1.71970E-01 1.53844E-23
1.75276E-01 1.47310E-23
1.78606E-01 1.41111E-23
1.81961E-01 1.35225E-23
1.85340E-01 1.29635E-23
1.88743E-01 1.24323E-23
1.92169E-01 1.19273E-23
1.95619E-01 1.14469E-23
1.99092E-01 1.09897E-23
2.02589E-01 1.05545E-23
2.06107E-01 1.01399E-23
2.09649E-01 9.74492E-24
2.13212E-01 9.36836E-24
2.16797E-01 9.00924E-24
2.20404E-01 8.66663E-24
2.24032E-01 8.33961E-24
2.27680E-01 8.02736E-24
2.31350E-01 7.72909E-24
2.35040E-01 7.44407E-24
2.38751E-01 7.17161E-24
2.42481E-01 6.91107E-24
2.46231E-01 6.66182E-24
2.50000E-01 6.42331E-24
2.53788E-01 6.19498E-24
2.57595E-01 5.97633E-24
2.61421E-01 5.76687E-24
2.65264E-01 5.56614E-24
2.69126E-01 5.37372E-24
2.73005E-01 5.18921E-24
2.76901E-01 5.01223E-24
2.80814E-01 4.84242E-24
2.84744E-01 4.67944E-24
2.88691E-01 4.52296E-24
2.92653E-01 4.37269E-24
2.96632E-01 4.22833E-24
3.00625E-01 4.08960E-24
3.04634E-01 3.95626E-24
3.08658E-01 3.82805E-24
3.12697E-01 3.70475E-24
3.16749E-01 3.58614E-24
3.20816E-01 3.47200E-24
3.24896E-01 3.36215E-24
3.28990E-01 3.25639E-24
3.33097E-01 3.15454E-24
3.37216E-01 3.05643E-24
3.41348E-01 2.96191E-24
3.45492E-01 2.87081E-24
3.49647E-01 2.78299E-24
3.53814E-01 2.69833E-24
3.57992E-01 2.61667E-24
3.62181E-01 2.53791E-24
3.66381E-01 2.46192E-24
3.70590E-01 2.38858E-24
3.74810E-01 2.31779E-24
3.79039E-01 2.24943E-24
3.83277E-01 2.18343E-24
3.87524E-01 2.11967E-24
3.91780E-01 2.05807E-24
3.96044E-01 1.99855E-24
4.00316E-01 1.94103E-24
4.04596E-01 1.88542E-24
4.08882E-01 1.83165E-24
4.13176E-01 1.77965E-24
4.17476E-01 1.72936E-24
4.21783E-01 1.68070E-24
4.26095E-01 1.63361E-24
4.30413E-01 1.58804E-24
4.34737E-01 1.54393E-24
4.39065E-01 1.50122E-24
4.43398E-01 1.45987E-24
4.47736E-01 1.41982E-24
4.52077E-01 1.38102E-24
4.56422E-01 1.34344E-24
4.60770E-01 1.30701E-24
4.65122E-01 1.27171E-24
4.69476E-01 1.23749E-24
4.73832E-01 1.20431E-24
4.78190E-01 1.17215E-24
4.82550E-01 1.14095E-24
4.86912E-01 1.11069E-24
4.91274E-01 1.08134E-24
4.95637E-01 1.05286E-24
5.00000E-01 1.02522E-24
5.04363E-01 9.98395E-25
5.08726E-01 9.72354E-25
5.13088E-01 9.47071E-25
5.17450E-01 9.22523E-25
5.21810E-01 8.98687E-25
5.26168E-01 8.75538E-25
5.30524E-01 8.53052E-25
5.34878E-01 8.31204E-25
5.39230E-01 8.09974E-25
5.43578E-01 7.89342E-25
5.47923E-01 7.69290E-25
5.52264E-01 7.49799E-25
5.56602E-01 7.30851E-25
5.60935E-01 7.12428E-25
5.65263E-01 6.94514E-25
5.69587E-01 6.77092E-25
5.73905E-01 6.60146E-25
5.78217E-01 6.43662E-25
5.82524E-01 6.27624E-25
5.86824E-01 6.12019E-25
5.91118E-01 5.96833E-25
5.95404E-01 5.82054E-25
5.99684E-01 5.67668E-25
6.03956E-01 5.53665E-25
6.08220E-01 5.40033E-25
6.12476E-01 5.26759E-25
6.16723E-01 5.13833E-25
6.20961E-01 5.01246E-25
6.25190E-01 4.88985E-25
6.29410E-01 4.77042E-25
6.33619E-01 4.65408E-25
6.37819E-01 4.54072E-25
6.42008E-01 4.43027E-25
6.46186E-01 4.32264E-25
6.50353E-01 4.21775E-25
6.54508E-01 4.11552E-25
6.58652E-01 4.01586E-25
6.62784E-01 3.91872E-25
6.66903E-01 3.82401E-25
6.71010E-01 3.73166E-25
6.75104E-01 3.64161E-25
6.79184E-01 3.55379E-25
6.83251E-01 3.46815E-25
6.87303E-01 3.38461E-25
6.91342E-01 3.30313E-25
6.95366E-01 3.22363E-25
6.99375E-01 3.14608E-25
7.03368E-01 3.07042E-25
7.07347E-01 2.99659E-25
7.11309E-01 2.92454E-25
7.15256E-01 2.85423E-25
7.19186E-01 2.78560E-25
7.23099E-01 2.71862E-25
7.26995E-01 2.65324E-25
7.30874E-01 2.58941E-25
7.34736E-01 2.52710E-25
7.38579E-01 2.46626E-25
7.42405E-01 2.40686E-25
7.46212E-01 2.34886E-25
7.50000E-01 2.29222E-25
7.53769E-01 2.23690E-25
7.57519E-01 2.18288E-25
7.61249E-01 2.13012E-25
7.64960E-01 2.07858E-25
7.68650E-01 2.02824E-25
7.72320E-01 1.97907E-25
7.75968E-01 1.93102E-25
7.79596E-01 1.88409E-25
7.83203E-01 1.83823E-25
7.86788E-01 1.79343E-25
7.90351E-01 1.74965E-25
7.93893E-01 1.70688E-25
7.97411E-01 1.66508E-25
8.00908E-01 1.62423E-25
8.04381E-01 1.58431E-25
8.07831E-01 1.54529E-25
8.11257E-01 1.50716E-25
8.14660E-01 1.46990E-25
8.18039E-01 1.43347E-25
8.21394E-01 1.39787E-25
8.24724E-01 1.36307E-25
8.28030E-01 1.32905E-25
8.31310E-01 1.29580E-25
8.34565E-01 1.26330E-25
8.37795E-01 1.23152E-25
8.40999E-01 1.20046E-25
8.44177E-01 1.17010E-25
8.47329E-01 1.14042E-25
8.50455E-01 1.11140E-25
8.53553E-01 1.08303E-25
8.56625E-01 1.05530E-25
8.59670E-01 1.02819E-25
8.62687E-01 1.00169E-25
8.65677E-01 9.75776E-26
8.68639E-01 9.50447E-26
8.71572E-01 9.25686E-26
8.74478E-01 9.01481E-26
8.77355E-01 8.77820E-26
8.80203E-01 8.54690E-26
8.83022E-01 8.32081E-26
8.85812E-01 8.09982E-26
8.88573E-01 7.88382E-26
8.91304E-01 7.67269E-26
8.94005E-01 7.46635E-26
8.96677E-01 7.26469E-26
8.99318E-01 7.06762E-26
9.01928E-01 6.87503E-26
9.04508E-01 6.68685E-26
9.07058E-01 6.50298E-26
9.09576E-01 6.32333E-26
9.12063E-01 6.14782E-26
9.14519E-01 5.97638E-26
9.16943E-01 5.80891E-26
9.19335E-01 5.64535E-26
9.21696E-01 5.48562E-26
9.24024E-01 5.32964E-26
9.26320E-01 5.17735E-26
9.28584E-01 5.02867E-26
9.30815E-01 4.88354E-26
9.33013E-01 4.74189E-26
9.35178E-01 4.60367E-26
9.37310E-01 4.46880E-26
9.39409E-01 4.33724E-26
9.41474E-01 4.20891E-26
9.43505E-01 4.08377E-26
9.45503E-01 3.96176E-26
9.47467E-01 3.84282E-26
9.49397E-01 3.72691E-26
9.51293E-01 3.61397E-26
9.53154E-01 3.50396E-26
9.54981E-01 3.39682E-26
9.56773E-01 3.29252E-26
9.58530E-01 3.19100E-26
9.60252E-01 3.09223E-26
9.61940E-01 2.99615E-26
9.63592E-01 2.90274E-26
9.65209E-01 2.81195E-26
9.66790E-01 2.72374E-26
9.68336E-01 2.63808E-26
9.69846E-01 2.55493E-26
9.71321E-01 2.47426E-26
9.72759E-01 2.39602E-26
9.74162E-01 2.32020E-26
9.75528E-01 2.24675E-26
9.76858E-01 2.17566E-26
9.78152E-01 2.10688E-26
9.79410E-01 2.04039E-26
9.80631E-01 1.97616E-26
9.81815E-01 1.91417E-26
9.82963E-01 1.85439E-26
9.84074E-01 1.79680E-26
9.85148E-01 1.74137E-26
9.86185E-01 1.68808E-26
9.87185E-01 1.63691E-26
9.88148E-01 1.58783E-26
9.89074E-01 1.54084E-26
9.89962E-01 1.49591E-26
9.90814E-01 1.45302E-26
9.91627E-01 1.41215E-26
9.92404E-01 1.37329E-26
9.93143E-01 1.33642E-26
9.93844E-01 1.30154E-26
9.94508E-01 1.26861E-26
9.95134E-01 1.23764E-26
9.95722E-01 1.20860E-26
9.96273E-01 1.18149E-26
9.96786E-01 1.15630E-26
9.97261E-01 1.13301E-26
9.97698E-01 1.11162E-26
9.98097E-01 1.09212E-26
9.98459E-01 1.07449E-26
9.98782E-01 1.05875E-26
9.99067E-01 1.04486E-26
9.99315E-01 1.03285E-26
9.99524E-01 1.02268E-26
9.99695E-01 1.01437E-26
9.99829E-01 1.00792E-26
9.99924E-01 1.00330E-26
9.99981E-01 1.00054E-26
1.00000E+00 9.99616E-27
