 #
 # Subroutine ELSEPA. Elastic scattering of electrons and positrons
 #                    by neutral atoms and positive ions
 #
 # Projectile: positron
 # Kinetic energy = 2.00000E+07 eV = 7.34987E+05 a.u.
 #
 # WARNING: High-energy factorization with free-atom DF screening.
 #          Absorption, polarization and exchange corrections are
 #          switched off.
 #          Phase shifts are calculated for the bare nucleus.
 #          Scattering amplitudes are not evaluated.
 #
 # Element: Sb,  Z =  51,  atomic weight = 1.21760E+02 g/mol
 #
 # Nuclear model: Fermi distribution
 #                Average radius = 5.30337E-13 cm
 #                Skin thickness = 5.46000E-14 cm
 #
 # Number of electrons = 51
 #
 # Total elastic cross section = 5.31790E-18 cm**2 = 1.89906E-01 a0**2
 # 1st transport cross section = 1.00382E-23 cm**2 = 3.58470E-07 a0**2
 # 2nd transport cross section = 2.92071E-23 cm**2 = 1.04301E-06 a0**2
 #
 #
 # Differential cross section:                       MU=(1-COS(THETA))/2
 #
 #  THETA        MU          DCS          DCS        Sherman      error
 #  (deg)                 (cm**2/sr)   (a0**2/sr)    function
 #----------------------------------------------------------------------
0.00000E+00 1.90925E-11
7.61557E-13 1.90905E-11
1.18994E-12 1.90895E-11
1.71346E-12 1.90882E-11
2.33225E-12 1.90866E-11
3.04617E-12 1.90849E-11
3.85530E-12 1.90829E-11
4.75964E-12 1.90806E-11
5.75917E-12 1.90782E-11
6.85391E-12 1.90755E-11
8.04379E-12 1.90725E-11
9.32893E-12 1.90694E-11
1.07092E-11 1.90660E-11
1.21847E-11 1.90623E-11
1.37554E-11 1.90585E-11
1.54213E-11 1.90544E-11
1.71823E-11 1.90500E-11
1.90386E-11 1.90455E-11
2.09900E-11 1.90407E-11
2.30367E-11 1.90357E-11
2.51785E-11 1.90304E-11
2.74156E-11 1.90249E-11
2.97478E-11 1.90192E-11
3.21752E-11 1.90133E-11
3.46979E-11 1.90071E-11
3.73157E-11 1.90007E-11
4.00286E-11 1.89941E-11
4.28368E-11 1.89872E-11
4.57402E-11 1.89801E-11
4.87388E-11 1.89728E-11
5.18325E-11 1.89653E-11
5.50215E-11 1.89575E-11
5.83057E-11 1.89495E-11
6.16850E-11 1.89413E-11
6.51595E-11 1.89328E-11
6.87293E-11 1.89242E-11
7.23943E-11 1.89153E-11
7.61544E-11 1.89062E-11
1.18991E-10 1.88028E-11
1.71347E-10 1.86777E-11
2.33223E-10 1.85316E-11
3.04617E-10 1.83653E-11
3.85531E-10 1.81796E-11
4.75965E-10 1.79757E-11
5.75917E-10 1.77536E-11
6.85389E-10 1.75148E-11
8.04380E-10 1.72636E-11
9.32891E-10 1.69967E-11
1.07092E-09 1.67174E-11
1.21847E-09 1.64302E-11
1.37554E-09 1.61276E-11
1.54213E-09 1.58195E-11
1.71823E-09 1.55051E-11
1.90386E-09 1.51804E-11
2.09900E-09 1.48552E-11
2.30367E-09 1.45233E-11
2.51785E-09 1.41882E-11
2.74156E-09 1.38562E-11
2.97478E-09 1.35163E-11
3.21752E-09 1.31805E-11
3.46978E-09 1.28473E-11
3.73156E-09 1.25110E-11
4.00286E-09 1.21820E-11
4.28368E-09 1.18539E-11
4.57402E-09 1.15289E-11
4.87388E-09 1.12127E-11
5.18326E-09 1.08954E-11
5.50215E-09 1.05864E-11
5.83057E-09 1.02849E-11
6.16850E-09 9.98495E-12
6.51596E-09 9.69515E-12
6.87293E-09 9.41025E-12
7.23942E-09 9.13116E-12
7.61544E-09 8.86227E-12
1.18991E-08 6.53050E-12
1.71347E-08 4.83968E-12
2.33223E-08 3.64388E-12
3.04617E-08 2.79678E-12
3.85531E-08 2.18733E-12
4.75965E-08 1.73952E-12
5.75917E-08 1.39594E-12
6.85389E-08 1.13000E-12
8.04380E-08 9.35855E-13
9.32891E-08 7.74740E-13
1.07092E-07 6.44934E-13
1.21847E-07 5.45732E-13
1.37554E-07 4.57425E-13
1.54213E-07 3.87972E-13
1.71823E-07 3.31491E-13
1.90386E-07 2.82658E-13
2.09900E-07 2.43432E-13
2.30367E-07 2.10185E-13
2.51785E-07 1.82163E-13
2.74156E-07 1.59099E-13
2.97478E-07 1.39095E-13
3.21752E-07 1.22339E-13
3.46978E-07 1.08159E-13
3.73156E-07 9.58761E-14
4.00286E-07 8.54415E-14
4.28368E-07 7.64094E-14
4.57402E-07 6.85725E-14
4.87388E-07 6.18107E-14
5.18325E-07 5.58421E-14
5.50215E-07 5.06350E-14
5.83057E-07 4.60641E-14
6.16850E-07 4.19860E-14
6.51596E-07 3.83958E-14
6.87293E-07 3.51845E-14
7.23942E-07 3.23073E-14
7.61543E-07 2.97496E-14
1.18991E-06 1.41368E-14
1.71347E-06 7.48339E-15
2.33223E-06 4.27872E-15
3.04617E-06 2.60571E-15
3.85531E-06 1.67525E-15
4.75964E-06 1.12743E-15
5.75916E-06 7.87127E-16
6.85388E-06 5.67033E-16
8.04378E-06 4.19056E-16
9.32888E-06 3.16404E-16
1.07092E-05 2.43345E-16
1.21846E-05 1.90126E-16
1.37553E-05 1.50648E-16
1.54212E-05 1.20867E-16
1.71822E-05 9.80636E-17
1.90385E-05 8.03496E-17
2.09899E-05 6.64849E-17
2.30365E-05 5.54703E-17
2.51783E-05 4.66305E-17
2.74153E-05 3.94725E-17
2.97475E-05 3.36305E-17
3.21749E-05 2.88279E-17
3.46974E-05 2.48527E-17
3.73152E-05 2.15408E-17
4.00281E-05 1.87635E-17
4.28362E-05 1.64202E-17
4.57395E-05 1.44313E-17
4.87380E-05 1.27341E-17
5.18317E-05 1.12786E-17
5.50205E-05 1.00249E-17
5.83045E-05 8.94057E-18
6.16838E-05 7.99902E-18
6.51582E-05 7.17844E-18
6.87277E-05 6.46067E-18
7.23925E-05 5.83059E-18
7.61524E-05 5.27562E-18
9.21439E-05 3.61887E-18
1.09658E-04 2.56422E-18
1.28695E-04 1.86735E-18
1.49255E-04 1.39173E-18
1.71338E-04 1.05831E-18
1.94942E-04 8.18911E-19
2.20070E-04 6.43466E-19
2.46720E-04 5.12539E-19
2.74892E-04 4.13229E-19
3.04586E-04 3.36820E-19
3.35803E-04 2.77251E-19
3.68542E-04 2.30269E-19
4.02802E-04 1.92813E-19
4.38585E-04 1.62658E-19
4.75889E-04 1.38165E-19
5.14715E-04 1.18104E-19
5.55063E-04 1.01549E-19
5.96931E-04 8.77896E-20
6.40321E-04 7.62790E-20
6.85233E-04 6.65911E-20
7.31665E-04 5.83900E-20
7.79618E-04 5.14111E-20
8.29092E-04 4.54419E-20
8.80086E-04 4.03127E-20
9.32601E-04 3.58855E-20
9.86636E-04 3.20484E-20
1.04219E-03 2.87095E-20
1.09927E-03 2.57933E-20
1.15786E-03 2.32372E-20
1.21797E-03 2.09893E-20
1.27961E-03 1.90061E-20
1.34276E-03 1.72511E-20
1.40743E-03 1.56935E-20
1.47362E-03 1.43074E-20
1.54133E-03 1.30706E-20
1.61056E-03 1.19642E-20
1.68131E-03 1.09721E-20
1.75357E-03 1.00805E-20
1.82735E-03 9.27736E-21
1.90265E-03 8.55241E-21
1.97947E-03 7.89669E-21
2.05780E-03 7.30245E-21
2.13765E-03 6.76289E-21
2.21902E-03 6.27211E-21
2.30190E-03 5.82491E-21
2.38630E-03 5.41674E-21
2.47222E-03 5.04358E-21
2.55965E-03 4.70191E-21
2.64859E-03 4.38859E-21
2.73905E-03 4.10084E-21
2.83103E-03 3.83622E-21
2.92452E-03 3.59253E-21
3.01952E-03 3.36781E-21
3.11604E-03 3.16034E-21
3.21407E-03 2.96853E-21
3.31362E-03 2.79101E-21
3.41468E-03 2.62651E-21
3.51725E-03 2.47390E-21
3.62133E-03 2.33218E-21
3.72692E-03 2.20042E-21
3.83403E-03 2.07780E-21
3.94265E-03 1.96357E-21
4.05278E-03 1.85705E-21
4.16442E-03 1.75763E-21
4.27757E-03 1.66474E-21
4.39223E-03 1.57788E-21
4.50840E-03 1.49659E-21
4.62608E-03 1.42045E-21
4.74527E-03 1.34906E-21
4.86597E-03 1.28209E-21
4.98817E-03 1.21920E-21
5.11188E-03 1.16010E-21
5.23711E-03 1.10453E-21
5.36383E-03 1.05222E-21
5.49207E-03 1.00297E-21
5.62181E-03 9.56542E-22
5.75306E-03 9.12761E-22
5.88581E-03 8.71443E-22
6.02007E-03 8.32426E-22
6.15583E-03 7.95558E-22
6.29310E-03 7.60699E-22
6.43187E-03 7.27718E-22
6.57214E-03 6.96496E-22
6.71392E-03 6.66922E-22
6.85720E-03 6.38892E-22
7.00198E-03 6.12312E-22
7.14827E-03 5.87092E-22
7.29605E-03 5.63150E-22
7.44534E-03 5.40411E-22
7.59612E-03 5.18801E-22
7.97965E-03 4.69294E-22
8.37255E-03 4.25522E-22
8.77480E-03 3.86710E-22
9.18641E-03 3.52199E-22
9.60736E-03 3.21432E-22
1.00376E-02 2.93932E-22
1.04773E-02 2.69295E-22
1.09262E-02 2.47170E-22
1.13844E-02 2.27256E-22
1.18520E-02 2.09296E-22
1.23288E-02 1.93064E-22
1.28150E-02 1.78365E-22
1.33104E-02 1.65029E-22
1.38150E-02 1.52908E-22
1.43290E-02 1.41872E-22
1.48521E-02 1.31807E-22
1.53845E-02 1.22612E-22
1.59262E-02 1.14199E-22
1.64770E-02 1.06490E-22
1.70371E-02 9.94158E-23
1.76063E-02 9.29148E-23
1.81848E-02 8.69323E-23
1.87724E-02 8.14194E-23
1.93692E-02 7.63334E-23
1.99751E-02 7.16350E-23
2.05901E-02 6.72893E-23
2.12143E-02 6.32654E-23
2.18476E-02 5.95354E-23
2.24900E-02 5.60736E-23
2.31415E-02 5.28574E-23
2.38021E-02 4.98668E-23
2.44717E-02 4.70823E-23
2.51504E-02 4.44878E-23
2.58382E-02 4.20680E-23
2.65349E-02 3.98085E-23
2.72407E-02 3.76975E-23
2.79555E-02 3.57231E-23
2.86793E-02 3.38748E-23
2.94120E-02 3.21434E-23
3.01537E-02 3.05201E-23
3.09043E-02 2.89968E-23
3.16639E-02 2.75663E-23
3.24324E-02 2.62221E-23
3.32098E-02 2.49578E-23
3.39961E-02 2.37680E-23
3.47912E-02 2.26474E-23
3.55952E-02 2.15913E-23
3.64081E-02 2.05954E-23
3.72297E-02 1.96555E-23
3.80602E-02 1.87680E-23
3.88995E-02 1.79294E-23
3.97476E-02 1.71366E-23
4.06044E-02 1.63865E-23
4.14700E-02 1.56766E-23
4.23443E-02 1.50041E-23
4.32273E-02 1.43669E-23
4.41190E-02 1.37627E-23
4.50194E-02 1.31895E-23
4.59284E-02 1.26455E-23
4.68461E-02 1.21288E-23
4.87074E-02 1.11712E-23
5.06030E-02 1.03050E-23
5.25328E-02 9.51998E-24
5.44967E-02 8.80728E-24
5.64946E-02 8.15909E-24
5.85262E-02 7.56859E-24
6.05914E-02 7.02976E-24
6.26901E-02 6.53730E-24
6.48222E-02 6.08656E-24
6.69873E-02 5.67339E-24
6.91854E-02 5.29411E-24
7.14163E-02 4.94549E-24
7.36799E-02 4.62461E-24
7.59760E-02 4.32889E-24
7.83043E-02 4.05601E-24
8.06647E-02 3.80392E-24
8.30571E-02 3.57075E-24
8.54812E-02 3.35484E-24
8.79369E-02 3.15470E-24
9.04240E-02 2.96897E-24
9.29422E-02 2.79644E-24
9.54915E-02 2.63601E-24
9.80716E-02 2.48668E-24
1.00682E-01 2.34756E-24
1.03323E-01 2.21782E-24
1.05995E-01 2.09673E-24
1.08696E-01 1.98361E-24
1.11427E-01 1.87785E-24
1.14188E-01 1.77887E-24
1.16978E-01 1.68618E-24
1.19797E-01 1.59931E-24
1.22645E-01 1.51782E-24
1.25522E-01 1.44133E-24
1.28428E-01 1.36948E-24
1.31361E-01 1.30194E-24
1.34323E-01 1.23840E-24
1.37313E-01 1.17858E-24
1.40330E-01 1.12224E-24
1.43375E-01 1.06914E-24
1.46447E-01 1.01905E-24
1.49545E-01 9.71772E-25
1.52671E-01 9.27129E-25
1.55823E-01 8.84946E-25
1.59001E-01 8.45063E-25
1.62205E-01 8.07335E-25
1.65435E-01 7.71623E-25
1.68690E-01 7.37803E-25
1.71970E-01 7.05757E-25
1.75276E-01 6.75376E-25
1.78606E-01 6.46558E-25
1.81961E-01 6.19210E-25
1.85340E-01 5.93244E-25
1.88743E-01 5.68578E-25
1.92169E-01 5.45136E-25
1.95619E-01 5.22847E-25
1.99092E-01 5.01644E-25
2.02589E-01 4.81466E-25
2.06107E-01 4.62254E-25
2.09649E-01 4.43955E-25
2.13212E-01 4.26518E-25
2.16797E-01 4.09895E-25
2.20404E-01 3.94042E-25
2.24032E-01 3.78917E-25
2.27680E-01 3.64481E-25
2.31350E-01 3.50698E-25
2.35040E-01 3.37532E-25
2.38751E-01 3.24953E-25
2.42481E-01 3.12928E-25
2.46231E-01 3.01430E-25
2.50000E-01 2.90431E-25
2.53788E-01 2.79907E-25
2.57595E-01 2.69833E-25
2.61421E-01 2.60187E-25
2.65264E-01 2.50948E-25
2.69126E-01 2.42095E-25
2.73005E-01 2.33610E-25
2.76901E-01 2.25476E-25
2.80814E-01 2.17674E-25
2.84744E-01 2.10189E-25
2.88691E-01 2.03007E-25
2.92653E-01 1.96113E-25
2.96632E-01 1.89493E-25
3.00625E-01 1.83135E-25
3.04634E-01 1.77026E-25
3.08658E-01 1.71156E-25
3.12697E-01 1.65513E-25
3.16749E-01 1.60088E-25
3.20816E-01 1.54870E-25
3.24896E-01 1.49850E-25
3.28990E-01 1.45020E-25
3.33097E-01 1.40370E-25
3.37216E-01 1.35895E-25
3.41348E-01 1.31584E-25
3.45492E-01 1.27433E-25
3.49647E-01 1.23433E-25
3.53814E-01 1.19579E-25
3.57992E-01 1.15863E-25
3.62181E-01 1.12281E-25
3.66381E-01 1.08827E-25
3.70590E-01 1.05496E-25
3.74810E-01 1.02282E-25
3.79039E-01 9.91807E-26
3.83277E-01 9.61875E-26
3.87524E-01 9.32979E-26
3.91780E-01 9.05080E-26
3.96044E-01 8.78136E-26
4.00316E-01 8.52110E-26
4.04596E-01 8.26965E-26
4.08882E-01 8.02667E-26
4.13176E-01 7.79184E-26
4.17476E-01 7.56482E-26
4.21783E-01 7.34533E-26
4.26095E-01 7.13307E-26
4.30413E-01 6.92777E-26
4.34737E-01 6.72916E-26
4.39065E-01 6.53699E-26
4.43398E-01 6.35103E-26
4.47736E-01 6.17103E-26
4.52077E-01 5.99678E-26
4.56422E-01 5.82806E-26
4.60770E-01 5.66468E-26
4.65122E-01 5.50644E-26
4.69476E-01 5.35314E-26
4.73832E-01 5.20462E-26
4.78190E-01 5.06070E-26
4.82550E-01 4.92122E-26
4.86912E-01 4.78602E-26
4.91274E-01 4.65495E-26
4.95637E-01 4.52786E-26
5.00000E-01 4.40461E-26
5.04363E-01 4.28507E-26
5.08726E-01 4.16912E-26
5.13088E-01 4.05662E-26
5.17450E-01 3.94746E-26
5.21810E-01 3.84153E-26
5.26168E-01 3.73871E-26
5.30524E-01 3.63891E-26
5.34878E-01 3.54201E-26
5.39230E-01 3.44793E-26
5.43578E-01 3.35657E-26
5.47923E-01 3.26783E-26
5.52264E-01 3.18164E-26
5.56602E-01 3.09791E-26
5.60935E-01 3.01655E-26
5.65263E-01 2.93750E-26
5.69587E-01 2.86067E-26
5.73905E-01 2.78600E-26
5.78217E-01 2.71341E-26
5.82524E-01 2.64284E-26
5.86824E-01 2.57423E-26
5.91118E-01 2.50751E-26
5.95404E-01 2.44263E-26
5.99684E-01 2.37952E-26
6.03956E-01 2.31814E-26
6.08220E-01 2.25842E-26
6.12476E-01 2.20032E-26
6.16723E-01 2.14378E-26
6.20961E-01 2.08876E-26
6.25190E-01 2.03522E-26
6.29410E-01 1.98310E-26
6.33619E-01 1.93237E-26
6.37819E-01 1.88298E-26
6.42008E-01 1.83489E-26
6.46186E-01 1.78806E-26
6.50353E-01 1.74247E-26
6.54508E-01 1.69806E-26
6.58652E-01 1.65480E-26
6.62784E-01 1.61267E-26
6.66903E-01 1.57162E-26
6.71010E-01 1.53163E-26
6.75104E-01 1.49267E-26
6.79184E-01 1.45471E-26
6.83251E-01 1.41771E-26
6.87303E-01 1.38165E-26
6.91342E-01 1.34650E-26
6.95366E-01 1.31224E-26
6.99375E-01 1.27885E-26
7.03368E-01 1.24629E-26
7.07347E-01 1.21454E-26
7.11309E-01 1.18359E-26
7.15256E-01 1.15341E-26
7.19186E-01 1.12397E-26
7.23099E-01 1.09527E-26
7.26995E-01 1.06727E-26
7.30874E-01 1.03996E-26
7.34736E-01 1.01332E-26
7.38579E-01 9.87332E-27
7.42405E-01 9.61977E-27
7.46212E-01 9.37240E-27
7.50000E-01 9.13103E-27
7.53769E-01 8.89550E-27
7.57519E-01 8.66566E-27
7.61249E-01 8.44136E-27
7.64960E-01 8.22245E-27
7.68650E-01 8.00879E-27
7.72320E-01 7.80024E-27
7.75968E-01 7.59668E-27
7.79596E-01 7.39796E-27
7.83203E-01 7.20398E-27
7.86788E-01 7.01459E-27
7.90351E-01 6.82970E-27
7.93893E-01 6.64917E-27
7.97411E-01 6.47291E-27
8.00908E-01 6.30080E-27
8.04381E-01 6.13274E-27
8.07831E-01 5.96862E-27
8.11257E-01 5.80836E-27
8.14660E-01 5.65185E-27
8.18039E-01 5.49900E-27
8.21394E-01 5.34972E-27
8.24724E-01 5.20392E-27
8.28030E-01 5.06152E-27
8.31310E-01 4.92243E-27
8.34565E-01 4.78658E-27
8.37795E-01 4.65388E-27
8.40999E-01 4.52427E-27
8.44177E-01 4.39766E-27
8.47329E-01 4.27399E-27
8.50455E-01 4.15319E-27
8.53553E-01 4.03518E-27
8.56625E-01 3.91991E-27
8.59670E-01 3.80731E-27
8.62687E-01 3.69732E-27
8.65677E-01 3.58987E-27
8.68639E-01 3.48492E-27
8.71572E-01 3.38239E-27
8.74478E-01 3.28225E-27
8.77355E-01 3.18442E-27
8.80203E-01 3.08887E-27
8.83022E-01 2.99554E-27
8.85812E-01 2.90438E-27
8.88573E-01 2.81534E-27
8.91304E-01 2.72838E-27
8.94005E-01 2.64346E-27
8.96677E-01 2.56052E-27
8.99318E-01 2.47952E-27
9.01928E-01 2.40043E-27
9.04508E-01 2.32319E-27
9.07058E-01 2.24779E-27
9.09576E-01 2.17416E-27
9.12063E-01 2.10229E-27
9.14519E-01 2.03212E-27
9.16943E-01 1.96363E-27
9.19335E-01 1.89679E-27
9.21696E-01 1.83155E-27
9.24024E-01 1.76789E-27
9.26320E-01 1.70577E-27
9.28584E-01 1.64517E-27
9.30815E-01 1.58605E-27
9.33013E-01 1.52839E-27
9.35178E-01 1.47216E-27
9.37310E-01 1.41733E-27
9.39409E-01 1.36387E-27
9.41474E-01 1.31176E-27
9.43505E-01 1.26097E-27
9.45503E-01 1.21149E-27
9.47467E-01 1.16328E-27
9.49397E-01 1.11632E-27
9.51293E-01 1.07060E-27
9.53154E-01 1.02608E-27
9.54981E-01 9.82753E-28
9.56773E-01 9.40594E-28
9.58530E-01 8.99584E-28
9.60252E-01 8.59703E-28
9.61940E-01 8.20933E-28
9.63592E-01 7.83257E-28
9.65209E-01 7.46656E-28
9.66790E-01 7.11114E-28
9.68336E-01 6.76615E-28
9.69846E-01 6.43143E-28
9.71321E-01 6.10682E-28
9.72759E-01 5.79219E-28
9.74162E-01 5.48738E-28
9.75528E-01 5.19225E-28
9.76858E-01 4.90669E-28
9.78152E-01 4.63055E-28
9.79410E-01 4.36371E-28
9.80631E-01 4.10605E-28
9.81815E-01 3.85746E-28
9.82963E-01 3.61782E-28
9.84074E-01 3.38704E-28
9.85148E-01 3.16500E-28
9.86185E-01 2.95161E-28
9.87185E-01 2.74677E-28
9.88148E-01 2.55040E-28
9.89074E-01 2.36240E-28
9.89962E-01 2.18269E-28
9.90814E-01 2.01120E-28
9.91627E-01 1.84785E-28
9.92404E-01 1.69256E-28
9.93143E-01 1.54527E-28
9.93844E-01 1.40592E-28
9.94508E-01 1.27444E-28
9.95134E-01 1.15077E-28
9.95722E-01 1.03487E-28
9.96273E-01 9.26676E-29
9.96786E-01 8.26149E-29
9.97261E-01 7.33242E-29
9.97698E-01 6.47915E-29
9.98097E-01 5.70131E-29
9.98459E-01 4.99856E-29
9.98782E-01 4.37060E-29
9.99067E-01 3.81715E-29
9.99315E-01 3.33799E-29
9.99524E-01 2.93289E-29
9.99695E-01 2.60168E-29
9.99829E-01 2.34423E-29
9.99924E-01 2.16041E-29
9.99981E-01 2.05015E-29
1.00000E+00 2.01340E-29
