 #
 # Subroutine ELSEPA. Elastic scattering of electrons and positrons
 #                    by neutral atoms and positive ions
 #
 # Projectile: positron
 # Kinetic energy = 9.00000E+06 eV = 3.30744E+05 a.u.
 #
 # WARNING: High-energy factorization with free-atom DF screening.
 #          Absorption, polarization and exchange corrections are
 #          switched off.
 #          Phase shifts are calculated for the bare nucleus.
 #          Scattering amplitudes are not evaluated.
 #
 # Element: Sb,  Z =  51,  atomic weight = 1.21760E+02 g/mol
 #
 # Nuclear model: Fermi distribution
 #                Average radius = 5.30337E-13 cm
 #                Skin thickness = 5.46000E-14 cm
 #
 # Number of electrons = 51
 #
 # Total elastic cross section = 5.33009E-18 cm**2 = 1.90341E-01 a0**2
 # 1st transport cross section = 4.12818E-23 cm**2 = 1.47420E-06 a0**2
 # 2nd transport cross section = 1.19432E-22 cm**2 = 4.26499E-06 a0**2
 #
 #
 # Differential cross section:                       MU=(1-COS(THETA))/2
 #
 #  THETA        MU          DCS          DCS        Sherman      error
 #  (deg)                 (cm**2/sr)   (a0**2/sr)    function
 #----------------------------------------------------------------------
0.00000E+00 4.10526E-12
7.61557E-13 4.10517E-12
1.18994E-12 4.10512E-12
1.71346E-12 4.10506E-12
2.33225E-12 4.10499E-12
3.04617E-12 4.10490E-12
3.85530E-12 4.10481E-12
4.75964E-12 4.10470E-12
5.75917E-12 4.10459E-12
6.85391E-12 4.10446E-12
8.04379E-12 4.10433E-12
9.32893E-12 4.10418E-12
1.07092E-11 4.10402E-12
1.21847E-11 4.10385E-12
1.37554E-11 4.10367E-12
1.54213E-11 4.10348E-12
1.71823E-11 4.10328E-12
1.90386E-11 4.10307E-12
2.09900E-11 4.10285E-12
2.30367E-11 4.10261E-12
2.51785E-11 4.10237E-12
2.74156E-11 4.10211E-12
2.97478E-11 4.10185E-12
3.21752E-11 4.10157E-12
3.46979E-11 4.10128E-12
3.73157E-11 4.10098E-12
4.00286E-11 4.10067E-12
4.28368E-11 4.10036E-12
4.57402E-11 4.10002E-12
4.87388E-11 4.09968E-12
5.18325E-11 4.09933E-12
5.50215E-11 4.09897E-12
5.83057E-11 4.09860E-12
6.16850E-11 4.09821E-12
6.51595E-11 4.09782E-12
6.87293E-11 4.09741E-12
7.23943E-11 4.09700E-12
7.61544E-11 4.09657E-12
1.18991E-10 4.09171E-12
1.71347E-10 4.08580E-12
2.33223E-10 4.07883E-12
3.04617E-10 4.07081E-12
3.85531E-10 4.06175E-12
4.75965E-10 4.05167E-12
5.75917E-10 4.04058E-12
6.85389E-10 4.02849E-12
8.04380E-10 4.01541E-12
9.32891E-10 4.00136E-12
1.07092E-09 3.98636E-12
1.21847E-09 3.97043E-12
1.37554E-09 3.95358E-12
1.54213E-09 3.93583E-12
1.71823E-09 3.91721E-12
1.90386E-09 3.89773E-12
2.09900E-09 3.87741E-12
2.30367E-09 3.85629E-12
2.51785E-09 3.83438E-12
2.74156E-09 3.81148E-12
2.97478E-09 3.78789E-12
3.21752E-09 3.76370E-12
3.46978E-09 3.73894E-12
3.73156E-09 3.71364E-12
4.00286E-09 3.68776E-12
4.28368E-09 3.66071E-12
4.57402E-09 3.63321E-12
4.87388E-09 3.60531E-12
5.18326E-09 3.57703E-12
5.50215E-09 3.54841E-12
5.83057E-09 3.51917E-12
6.16850E-09 3.48899E-12
6.51596E-09 3.45857E-12
6.87293E-09 3.42794E-12
7.23942E-09 3.39713E-12
7.61544E-09 3.36617E-12
1.18991E-08 3.03923E-12
1.71347E-08 2.70498E-12
2.33223E-08 2.38190E-12
3.04617E-08 2.08119E-12
3.85531E-08 1.81000E-12
4.75965E-08 1.57130E-12
5.75917E-08 1.36431E-12
6.85389E-08 1.18607E-12
8.04380E-08 1.03404E-12
9.32891E-08 9.04758E-13
1.07092E-07 7.94811E-13
1.21847E-07 7.00997E-13
1.37554E-07 6.20933E-13
1.54213E-07 5.52332E-13
1.71823E-07 4.93220E-13
1.90386E-07 4.42022E-13
2.09900E-07 3.97528E-13
2.30367E-07 3.58661E-13
2.51785E-07 3.24478E-13
2.74156E-07 2.92438E-13
2.97478E-07 2.64719E-13
3.21752E-07 2.40866E-13
3.46978E-07 2.20232E-13
3.73156E-07 2.02294E-13
4.00286E-07 1.86304E-13
4.28368E-07 1.69942E-13
4.57402E-07 1.55631E-13
4.87388E-07 1.43064E-13
5.18325E-07 1.31982E-13
5.50215E-07 1.22173E-13
5.83057E-07 1.13011E-13
6.16850E-07 1.04032E-13
6.51596E-07 9.60479E-14
6.87293E-07 8.89263E-14
7.23942E-07 8.25545E-14
7.61543E-07 7.68366E-14
1.18991E-06 3.82992E-14
1.71347E-06 2.11213E-14
2.33223E-06 1.27201E-14
3.04617E-06 8.21084E-15
3.85531E-06 5.57736E-15
4.75964E-06 3.93190E-15
5.75916E-06 2.84913E-15
6.85388E-06 2.10742E-15
8.04378E-06 1.58696E-15
9.32888E-06 1.21520E-15
1.07092E-05 9.44557E-16
1.21846E-05 7.44037E-16
1.37553E-05 5.93593E-16
1.54212E-05 4.79233E-16
1.71822E-05 3.91210E-16
1.90385E-05 3.22533E-16
2.09899E-05 2.68563E-16
2.30365E-05 2.25480E-16
2.51783E-05 1.90719E-16
2.74153E-05 1.62357E-16
2.97475E-05 1.39191E-16
3.21749E-05 1.20009E-16
3.46974E-05 1.04040E-16
3.73152E-05 9.06823E-17
4.00281E-05 7.93693E-17
4.28362E-05 6.98162E-17
4.57395E-05 6.16133E-17
4.87380E-05 5.46046E-17
5.18317E-05 4.85471E-17
5.50205E-05 4.33046E-17
5.83045E-05 3.87527E-17
6.16838E-05 3.47722E-17
6.51582E-05 3.13007E-17
6.87277E-05 2.82367E-17
7.23925E-05 2.55463E-17
7.61524E-05 2.31627E-17
9.21439E-05 1.60024E-17
1.09658E-04 1.13952E-17
1.28695E-04 8.32951E-18
1.49255E-04 6.22628E-18
1.71338E-04 4.74610E-18
1.94942E-04 3.67999E-18
2.20070E-04 2.89698E-18
2.46720E-04 2.31154E-18
2.74892E-04 1.86669E-18
3.04586E-04 1.52388E-18
3.35803E-04 1.25626E-18
3.68542E-04 1.04489E-18
4.02802E-04 8.76131E-19
4.38585E-04 7.40091E-19
4.75889E-04 6.29451E-19
5.14715E-04 5.38717E-19
5.55063E-04 4.63740E-19
5.96931E-04 4.01350E-19
6.40321E-04 3.49096E-19
6.85233E-04 3.05065E-19
7.31665E-04 2.67748E-19
7.79618E-04 2.35958E-19
8.29092E-04 2.08740E-19
8.80086E-04 1.85327E-19
9.32601E-04 1.65100E-19
9.86636E-04 1.47552E-19
1.04219E-03 1.32270E-19
1.09927E-03 1.18910E-19
1.15786E-03 1.07191E-19
1.21797E-03 9.68772E-20
1.27961E-03 8.77711E-20
1.34276E-03 7.97070E-20
1.40743E-03 7.25453E-20
1.47362E-03 6.61680E-20
1.54133E-03 6.04741E-20
1.61056E-03 5.53777E-20
1.68131E-03 5.08054E-20
1.75357E-03 4.66938E-20
1.82735E-03 4.29885E-20
1.90265E-03 3.96423E-20
1.97947E-03 3.66143E-20
2.05780E-03 3.38691E-20
2.13765E-03 3.13754E-20
2.21902E-03 2.91062E-20
2.30190E-03 2.70378E-20
2.38630E-03 2.51493E-20
2.47222E-03 2.34221E-20
2.55965E-03 2.18401E-20
2.64859E-03 2.03890E-20
2.73905E-03 1.90560E-20
2.83103E-03 1.78297E-20
2.92452E-03 1.67002E-20
3.01952E-03 1.56582E-20
3.11604E-03 1.46960E-20
3.21407E-03 1.38063E-20
3.31362E-03 1.29826E-20
3.41468E-03 1.22192E-20
3.51725E-03 1.15109E-20
3.62133E-03 1.08529E-20
3.72692E-03 1.02411E-20
3.83403E-03 9.67156E-21
3.94265E-03 9.14094E-21
4.05278E-03 8.64604E-21
4.16442E-03 8.18404E-21
4.27757E-03 7.75237E-21
4.39223E-03 7.34864E-21
4.50840E-03 6.97073E-21
4.62608E-03 6.61671E-21
4.74527E-03 6.28476E-21
4.86597E-03 5.97328E-21
4.98817E-03 5.68077E-21
5.11188E-03 5.40586E-21
5.23711E-03 5.14729E-21
5.36383E-03 4.90393E-21
5.49207E-03 4.67472E-21
5.62181E-03 4.45867E-21
5.75306E-03 4.25489E-21
5.88581E-03 4.06257E-21
6.02007E-03 3.88094E-21
6.15583E-03 3.70929E-21
6.29310E-03 3.54698E-21
6.43187E-03 3.39341E-21
6.57214E-03 3.24801E-21
6.71392E-03 3.11028E-21
6.85720E-03 2.97973E-21
7.00198E-03 2.85593E-21
7.14827E-03 2.73845E-21
7.29605E-03 2.62691E-21
7.44534E-03 2.52097E-21
7.59612E-03 2.42029E-21
7.97965E-03 2.18960E-21
8.37255E-03 1.98561E-21
8.77480E-03 1.80470E-21
9.18641E-03 1.64382E-21
9.60736E-03 1.50037E-21
1.00376E-02 1.37215E-21
1.04773E-02 1.25726E-21
1.09262E-02 1.15407E-21
1.13844E-02 1.06119E-21
1.18520E-02 9.77411E-22
1.23288E-02 9.01687E-22
1.28150E-02 8.33109E-22
1.33104E-02 7.70886E-22
1.38150E-02 7.14326E-22
1.43290E-02 6.62825E-22
1.48521E-02 6.15851E-22
1.53845E-02 5.72936E-22
1.59262E-02 5.33668E-22
1.64770E-02 4.97683E-22
1.70371E-02 4.64659E-22
1.76063E-02 4.34308E-22
1.81848E-02 4.06377E-22
1.87724E-02 3.80638E-22
1.93692E-02 3.56889E-22
1.99751E-02 3.34949E-22
2.05901E-02 3.14656E-22
2.12143E-02 2.95864E-22
2.18476E-02 2.78442E-22
2.24900E-02 2.62274E-22
2.31415E-02 2.47252E-22
2.38021E-02 2.33281E-22
2.44717E-02 2.20274E-22
2.51504E-02 2.08154E-22
2.58382E-02 1.96848E-22
2.65349E-02 1.86292E-22
2.72407E-02 1.76428E-22
2.79555E-02 1.67202E-22
2.86793E-02 1.58566E-22
2.94120E-02 1.50475E-22
3.01537E-02 1.42888E-22
3.09043E-02 1.35769E-22
3.16639E-02 1.29083E-22
3.24324E-02 1.22800E-22
3.32098E-02 1.16890E-22
3.39961E-02 1.11328E-22
3.47912E-02 1.06090E-22
3.55952E-02 1.01153E-22
3.64081E-02 9.64965E-23
3.72297E-02 9.21021E-23
3.80602E-02 8.79522E-23
3.88995E-02 8.40308E-23
3.97476E-02 8.03231E-23
4.06044E-02 7.68154E-23
4.14700E-02 7.34949E-23
4.23443E-02 7.03499E-23
4.32273E-02 6.73694E-23
4.41190E-02 6.45431E-23
4.50194E-02 6.18617E-23
4.59284E-02 5.93164E-23
4.68461E-02 5.68991E-23
4.87074E-02 5.24186E-23
5.06030E-02 4.83654E-23
5.25328E-02 4.46917E-23
5.44967E-02 4.13559E-23
5.64946E-02 3.83218E-23
5.85262E-02 3.55573E-23
6.05914E-02 3.30343E-23
6.26901E-02 3.07281E-23
6.48222E-02 2.86171E-23
6.69873E-02 2.66817E-23
6.91854E-02 2.49048E-23
7.14163E-02 2.32712E-23
7.36799E-02 2.17675E-23
7.59760E-02 2.03815E-23
7.83043E-02 1.91023E-23
8.06647E-02 1.79203E-23
8.30571E-02 1.68270E-23
8.54812E-02 1.58144E-23
8.79369E-02 1.48755E-23
9.04240E-02 1.40041E-23
9.29422E-02 1.31946E-23
9.54915E-02 1.24416E-23
9.80716E-02 1.17407E-23
1.00682E-01 1.10875E-23
1.03323E-01 1.04783E-23
1.05995E-01 9.90955E-24
1.08696E-01 9.37816E-24
1.11427E-01 8.88126E-24
1.14188E-01 8.41610E-24
1.16978E-01 7.98043E-24
1.19797E-01 7.57205E-24
1.22645E-01 7.18886E-24
1.25522E-01 6.82910E-24
1.28428E-01 6.49111E-24
1.31361E-01 6.17329E-24
1.34323E-01 5.87425E-24
1.37313E-01 5.59270E-24
1.40330E-01 5.32742E-24
1.43375E-01 5.07731E-24
1.46447E-01 4.84136E-24
1.49545E-01 4.61864E-24
1.52671E-01 4.40824E-24
1.55823E-01 4.20940E-24
1.59001E-01 4.02135E-24
1.62205E-01 3.84342E-24
1.65435E-01 3.67496E-24
1.68690E-01 3.51538E-24
1.71970E-01 3.36413E-24
1.75276E-01 3.22070E-24
1.78606E-01 3.08462E-24
1.81961E-01 2.95545E-24
1.85340E-01 2.83276E-24
1.88743E-01 2.71619E-24
1.92169E-01 2.60538E-24
1.95619E-01 2.49998E-24
1.99092E-01 2.39970E-24
2.02589E-01 2.30423E-24
2.06107E-01 2.21331E-24
2.09649E-01 2.12668E-24
2.13212E-01 2.04411E-24
2.16797E-01 1.96537E-24
2.20404E-01 1.89026E-24
2.24032E-01 1.81858E-24
2.27680E-01 1.75013E-24
2.31350E-01 1.68476E-24
2.35040E-01 1.62230E-24
2.38751E-01 1.56260E-24
2.42481E-01 1.50552E-24
2.46231E-01 1.45092E-24
2.50000E-01 1.39867E-24
2.53788E-01 1.34867E-24
2.57595E-01 1.30078E-24
2.61421E-01 1.25491E-24
2.65264E-01 1.21097E-24
2.69126E-01 1.16885E-24
2.73005E-01 1.12846E-24
2.76901E-01 1.08973E-24
2.80814E-01 1.05257E-24
2.84744E-01 1.01691E-24
2.88691E-01 9.82671E-25
2.92653E-01 9.49798E-25
2.96632E-01 9.18222E-25
3.00625E-01 8.87884E-25
3.04634E-01 8.58726E-25
3.08658E-01 8.30696E-25
3.12697E-01 8.03742E-25
3.16749E-01 7.77815E-25
3.20816E-01 7.52871E-25
3.24896E-01 7.28865E-25
3.28990E-01 7.05756E-25
3.33097E-01 6.83505E-25
3.37216E-01 6.62074E-25
3.41348E-01 6.41430E-25
3.45492E-01 6.21536E-25
3.49647E-01 6.02363E-25
3.53814E-01 5.83879E-25
3.57992E-01 5.66056E-25
3.62181E-01 5.48865E-25
3.66381E-01 5.32281E-25
3.70590E-01 5.16278E-25
3.74810E-01 5.00834E-25
3.79039E-01 4.85924E-25
3.83277E-01 4.71528E-25
3.87524E-01 4.57625E-25
3.91780E-01 4.44196E-25
3.96044E-01 4.31220E-25
4.00316E-01 4.18681E-25
4.04596E-01 4.06562E-25
4.08882E-01 3.94845E-25
4.13176E-01 3.83516E-25
4.17476E-01 3.72560E-25
4.21783E-01 3.61962E-25
4.26095E-01 3.51708E-25
4.30413E-01 3.41786E-25
4.34737E-01 3.32183E-25
4.39065E-01 3.22887E-25
4.43398E-01 3.13887E-25
4.47736E-01 3.05172E-25
4.52077E-01 2.96731E-25
4.56422E-01 2.88554E-25
4.60770E-01 2.80632E-25
4.65122E-01 2.72956E-25
4.69476E-01 2.65516E-25
4.73832E-01 2.58304E-25
4.78190E-01 2.51312E-25
4.82550E-01 2.44533E-25
4.86912E-01 2.37958E-25
4.91274E-01 2.31581E-25
4.95637E-01 2.25394E-25
5.00000E-01 2.19392E-25
5.04363E-01 2.13567E-25
5.08726E-01 2.07914E-25
5.13088E-01 2.02427E-25
5.17450E-01 1.97100E-25
5.21810E-01 1.91928E-25
5.26168E-01 1.86905E-25
5.30524E-01 1.82027E-25
5.34878E-01 1.77289E-25
5.39230E-01 1.72686E-25
5.43578E-01 1.68213E-25
5.47923E-01 1.63867E-25
5.52264E-01 1.59643E-25
5.56602E-01 1.55538E-25
5.60935E-01 1.51547E-25
5.65263E-01 1.47666E-25
5.69587E-01 1.43894E-25
5.73905E-01 1.40224E-25
5.78217E-01 1.36656E-25
5.82524E-01 1.33185E-25
5.86824E-01 1.29808E-25
5.91118E-01 1.26522E-25
5.95404E-01 1.23325E-25
5.99684E-01 1.20214E-25
6.03956E-01 1.17186E-25
6.08220E-01 1.14239E-25
6.12476E-01 1.11370E-25
6.16723E-01 1.08576E-25
6.20961E-01 1.05856E-25
6.25190E-01 1.03208E-25
6.29410E-01 1.00628E-25
6.33619E-01 9.81160E-26
6.37819E-01 9.56687E-26
6.42008E-01 9.32846E-26
6.46186E-01 9.09617E-26
6.50353E-01 8.86984E-26
6.54508E-01 8.64929E-26
6.58652E-01 8.43435E-26
6.62784E-01 8.22485E-26
6.66903E-01 8.02065E-26
6.71010E-01 7.82158E-26
6.75104E-01 7.62751E-26
6.79184E-01 7.43829E-26
6.83251E-01 7.25378E-26
6.87303E-01 7.07385E-26
6.91342E-01 6.89838E-26
6.95366E-01 6.72724E-26
6.99375E-01 6.56030E-26
7.03368E-01 6.39745E-26
7.07347E-01 6.23859E-26
7.11309E-01 6.08359E-26
7.15256E-01 5.93236E-26
7.19186E-01 5.78479E-26
7.23099E-01 5.64078E-26
7.26995E-01 5.50024E-26
7.30874E-01 5.36308E-26
7.34736E-01 5.22919E-26
7.38579E-01 5.09850E-26
7.42405E-01 4.97093E-26
7.46212E-01 4.84638E-26
7.50000E-01 4.72478E-26
7.53769E-01 4.60605E-26
7.57519E-01 4.49013E-26
7.61249E-01 4.37692E-26
7.64960E-01 4.26637E-26
7.68650E-01 4.15841E-26
7.72320E-01 4.05297E-26
7.75968E-01 3.94998E-26
7.79596E-01 3.84939E-26
7.83203E-01 3.75112E-26
7.86788E-01 3.65514E-26
7.90351E-01 3.56137E-26
7.93893E-01 3.46976E-26
7.97411E-01 3.38026E-26
8.00908E-01 3.29282E-26
8.04381E-01 3.20738E-26
8.07831E-01 3.12390E-26
8.11257E-01 3.04233E-26
8.14660E-01 2.96262E-26
8.18039E-01 2.88473E-26
8.21394E-01 2.80861E-26
8.24724E-01 2.73422E-26
8.28030E-01 2.66153E-26
8.31310E-01 2.59048E-26
8.34565E-01 2.52105E-26
8.37795E-01 2.45318E-26
8.40999E-01 2.38686E-26
8.44177E-01 2.32203E-26
8.47329E-01 2.25868E-26
8.50455E-01 2.19675E-26
8.53553E-01 2.13622E-26
8.56625E-01 2.07706E-26
8.59670E-01 2.01924E-26
8.62687E-01 1.96273E-26
8.65677E-01 1.90749E-26
8.68639E-01 1.85350E-26
8.71572E-01 1.80073E-26
8.74478E-01 1.74916E-26
8.77355E-01 1.69875E-26
8.80203E-01 1.64949E-26
8.83022E-01 1.60135E-26
8.85812E-01 1.55429E-26
8.88573E-01 1.50831E-26
8.91304E-01 1.46338E-26
8.94005E-01 1.41948E-26
8.96677E-01 1.37657E-26
8.99318E-01 1.33465E-26
9.01928E-01 1.29370E-26
9.04508E-01 1.25368E-26
9.07058E-01 1.21459E-26
9.09576E-01 1.17641E-26
9.12063E-01 1.13911E-26
9.14519E-01 1.10268E-26
9.16943E-01 1.06711E-26
9.19335E-01 1.03237E-26
9.21696E-01 9.98446E-27
9.24024E-01 9.65328E-27
9.26320E-01 9.32997E-27
9.28584E-01 9.01439E-27
9.30815E-01 8.70640E-27
9.33013E-01 8.40585E-27
9.35178E-01 8.11260E-27
9.37310E-01 7.82653E-27
9.39409E-01 7.54750E-27
9.41474E-01 7.27538E-27
9.43505E-01 7.01006E-27
9.45503E-01 6.75141E-27
9.47467E-01 6.49932E-27
9.49397E-01 6.25368E-27
9.51293E-01 6.01437E-27
9.53154E-01 5.78130E-27
9.54981E-01 5.55435E-27
9.56773E-01 5.33344E-27
9.58530E-01 5.11845E-27
9.60252E-01 4.90931E-27
9.61940E-01 4.70591E-27
9.63592E-01 4.50817E-27
9.65209E-01 4.31601E-27
9.66790E-01 4.12934E-27
9.68336E-01 3.94808E-27
9.69846E-01 3.77215E-27
9.71321E-01 3.60148E-27
9.72759E-01 3.43599E-27
9.74162E-01 3.27562E-27
9.75528E-01 3.12030E-27
9.76858E-01 2.96996E-27
9.78152E-01 2.82453E-27
9.79410E-01 2.68396E-27
9.80631E-01 2.54819E-27
9.81815E-01 2.41716E-27
9.82963E-01 2.29082E-27
9.84074E-01 2.16910E-27
9.85148E-01 2.05197E-27
9.86185E-01 1.93938E-27
9.87185E-01 1.83127E-27
9.88148E-01 1.72760E-27
9.89074E-01 1.62833E-27
9.89962E-01 1.53342E-27
9.90814E-01 1.44283E-27
9.91627E-01 1.35652E-27
9.92404E-01 1.27446E-27
9.93143E-01 1.19660E-27
9.93844E-01 1.12293E-27
9.94508E-01 1.05342E-27
9.95134E-01 9.88018E-28
9.95722E-01 9.26717E-28
9.96273E-01 8.69486E-28
9.96786E-01 8.16302E-28
9.97261E-01 7.67144E-28
9.97698E-01 7.21991E-28
9.98097E-01 6.80826E-28
9.98459E-01 6.43632E-28
9.98782E-01 6.10393E-28
9.99067E-01 5.81096E-28
9.99315E-01 5.55729E-28
9.99524E-01 5.34282E-28
9.99695E-01 5.16746E-28
9.99829E-01 5.03115E-28
9.99924E-01 4.93382E-28
9.99981E-01 4.87544E-28
1.00000E+00 4.85598E-28
