 #
 # Subroutine ELSEPA. Elastic scattering of electrons and positrons
 #                    by neutral atoms and positive ions
 #
 # Projectile: positron
 # Kinetic energy = 2.00000E+08 eV = 7.34987E+06 a.u.
 #
 # WARNING: High-energy factorization with free-atom DF screening.
 #          Absorption, polarization and exchange corrections are
 #          switched off.
 #          Phase shifts are calculated for the bare nucleus.
 #          Scattering amplitudes are not evaluated.
 #
 # Element: Sb,  Z =  51,  atomic weight = 1.21760E+02 g/mol
 #
 # Nuclear model: Fermi distribution
 #                Average radius = 5.30337E-13 cm
 #                Skin thickness = 5.46000E-14 cm
 #
 # Number of electrons = 51
 #
 # Total elastic cross section = 5.31593E-18 cm**2 = 1.89835E-01 a0**2
 # 1st transport cross section = 1.25535E-25 cm**2 = 4.48293E-09 a0**2
 # 2nd transport cross section = 3.75649E-25 cm**2 = 1.34147E-08 a0**2
 #
 #
 # Differential cross section:                       MU=(1-COS(THETA))/2
 #
 #  THETA        MU          DCS          DCS        Sherman      error
 #  (deg)                 (cm**2/sr)   (a0**2/sr)    function
 #----------------------------------------------------------------------
0.00000E+00 1.82459E-09
7.61557E-13 1.80757E-09
1.18994E-12 1.79811E-09
1.71346E-12 1.78667E-09
2.33225E-12 1.77330E-09
3.04617E-12 1.75806E-09
3.85530E-12 1.74105E-09
4.75964E-12 1.72234E-09
5.75917E-12 1.70202E-09
6.85391E-12 1.68003E-09
8.04379E-12 1.65686E-09
9.32893E-12 1.63243E-09
1.07092E-11 1.60659E-09
1.21847E-11 1.57999E-09
1.37554E-11 1.55224E-09
1.54213E-11 1.52361E-09
1.71823E-11 1.49463E-09
1.90386E-11 1.46452E-09
2.09900E-11 1.43413E-09
2.30367E-11 1.40363E-09
2.51785E-11 1.37222E-09
2.74156E-11 1.34103E-09
2.97478E-11 1.30971E-09
3.21752E-11 1.27805E-09
3.46979E-11 1.24688E-09
3.73157E-11 1.21550E-09
4.00286E-11 1.18432E-09
4.28368E-11 1.15383E-09
4.57402E-11 1.12303E-09
4.87388E-11 1.09290E-09
5.18325E-11 1.06342E-09
5.50215E-11 1.03387E-09
5.83057E-11 1.00522E-09
6.16850E-11 9.77022E-10
6.51595E-11 9.49174E-10
6.87293E-11 9.22252E-10
7.23943E-11 8.95631E-10
7.61544E-11 8.69671E-10
1.18991E-10 6.45577E-10
1.71347E-10 4.81019E-10
2.33223E-10 3.63441E-10
3.04617E-10 2.79712E-10
3.85531E-10 2.19250E-10
4.75965E-10 1.74679E-10
5.75917E-10 1.41000E-10
6.85389E-10 1.13974E-10
8.04380E-10 9.42310E-11
9.32891E-10 7.86650E-11
1.07092E-09 6.53905E-11
1.21847E-09 5.52452E-11
1.37554E-09 4.66757E-11
1.54213E-09 3.95404E-11
1.71823E-09 3.38999E-11
1.90386E-09 2.89573E-11
2.09900E-09 2.49140E-11
2.30367E-09 2.16061E-11
2.51785E-09 1.87109E-11
2.74156E-09 1.63282E-11
2.97478E-09 1.43159E-11
3.21752E-09 1.25824E-11
3.46978E-09 1.11263E-11
3.73156E-09 9.87048E-12
4.00286E-09 8.79029E-12
4.28368E-09 7.86734E-12
4.57402E-09 7.05779E-12
4.87388E-09 6.35764E-12
5.18326E-09 5.74878E-12
5.50215E-09 5.20945E-12
5.83057E-09 4.73814E-12
6.16850E-09 4.32095E-12
6.51596E-09 3.94907E-12
6.87293E-09 3.62052E-12
7.23942E-09 3.32464E-12
7.61544E-09 3.05967E-12
1.18991E-08 1.45882E-12
1.71347E-08 7.75370E-13
2.33223E-08 4.44323E-13
3.04617E-08 2.71044E-13
3.85531E-08 1.74362E-13
4.75965E-08 1.17376E-13
5.75917E-08 8.19967E-14
6.85389E-08 5.90812E-14
8.04380E-08 4.36693E-14
9.32891E-08 3.29807E-14
1.07092E-07 2.53739E-14
1.21847E-07 1.98360E-14
1.37554E-07 1.57261E-14
1.54213E-07 1.26240E-14
1.71823E-07 1.02475E-14
1.90386E-07 8.40253E-15
2.09900E-07 6.95312E-15
2.30367E-07 5.80193E-15
2.51785E-07 4.87869E-15
2.74156E-07 4.13122E-15
2.97478E-07 3.52125E-15
3.21752E-07 3.01963E-15
3.46978E-07 2.60411E-15
3.73156E-07 2.25759E-15
4.00286E-07 1.96681E-15
4.28368E-07 1.72136E-15
4.57402E-07 1.51302E-15
4.87388E-07 1.33528E-15
5.18325E-07 1.18289E-15
5.50215E-07 1.05165E-15
5.83057E-07 9.38124E-16
6.16850E-07 8.39516E-16
6.51596E-07 7.53541E-16
6.87293E-07 6.78305E-16
7.23942E-07 6.12237E-16
7.61543E-07 5.54029E-16
1.18991E-06 2.29464E-16
1.71347E-06 1.11510E-16
2.33223E-06 6.05124E-17
3.04617E-06 3.56046E-17
3.85531E-06 2.22873E-17
4.75964E-06 1.46509E-17
5.75916E-06 1.00209E-17
6.85388E-06 7.08277E-18
8.04378E-06 5.14622E-18
9.32888E-06 3.82824E-18
1.07092E-05 2.90624E-18
1.21846E-05 2.24570E-18
1.37553E-05 1.76253E-18
1.54212E-05 1.40253E-18
1.71822E-05 1.12988E-18
1.90385E-05 9.20094E-19
2.09899E-05 7.57251E-19
2.30365E-05 6.28824E-19
2.51783E-05 5.26413E-19
2.74153E-05 4.43951E-19
2.97475E-05 3.76981E-19
3.21749E-05 3.22167E-19
3.46974E-05 2.76973E-19
3.73152E-05 2.39449E-19
4.00281E-05 2.08083E-19
4.28362E-05 1.81695E-19
4.57395E-05 1.59357E-19
4.87380E-05 1.40343E-19
5.18317E-05 1.24074E-19
5.50205E-05 1.10090E-19
5.83045E-05 9.80184E-20
6.16838E-05 8.75564E-20
6.51582E-05 7.84549E-20
6.87277E-05 7.05076E-20
7.23925E-05 6.35424E-20
7.61524E-05 5.74834E-20
9.21439E-05 3.92452E-20
1.09658E-04 2.76955E-20
1.28695E-04 2.00986E-20
1.49255E-04 1.49343E-20
1.71338E-04 1.13267E-20
1.94942E-04 8.74458E-21
2.20070E-04 6.85747E-21
2.46720E-04 5.45264E-21
2.74892E-04 4.38933E-21
3.04586E-04 3.57278E-21
3.35803E-04 2.93727E-21
3.68542E-04 2.43678E-21
4.02802E-04 2.03831E-21
4.38585E-04 1.71789E-21
4.75889E-04 1.45791E-21
5.14715E-04 1.24518E-21
5.55063E-04 1.06976E-21
5.96931E-04 9.24088E-22
6.40321E-04 8.02311E-22
6.85233E-04 6.99882E-22
7.31665E-04 6.13229E-22
7.79618E-04 5.39530E-22
8.29092E-04 4.76530E-22
8.80086E-04 4.22421E-22
9.32601E-04 3.75741E-22
9.86636E-04 3.35301E-22
1.04219E-03 3.00128E-22
1.09927E-03 2.69421E-22
1.15786E-03 2.42518E-22
1.21797E-03 2.18868E-22
1.27961E-03 1.98011E-22
1.34276E-03 1.79563E-22
1.40743E-03 1.63196E-22
1.47362E-03 1.48637E-22
1.54133E-03 1.35652E-22
1.61056E-03 1.24041E-22
1.68131E-03 1.13635E-22
1.75357E-03 1.04286E-22
1.82735E-03 9.58685E-23
1.90265E-03 8.82742E-23
1.97947E-03 8.14084E-23
2.05780E-03 7.51893E-23
2.13765E-03 6.95453E-23
2.21902E-03 6.44141E-23
2.30190E-03 5.97411E-23
2.38630E-03 5.54782E-23
2.47222E-03 5.15831E-23
2.55965E-03 4.80188E-23
2.64859E-03 4.47521E-23
2.73905E-03 4.17539E-23
2.83103E-03 3.89983E-23
2.92452E-03 3.64623E-23
3.01952E-03 3.41254E-23
3.11604E-03 3.19691E-23
3.21407E-03 2.99772E-23
3.31362E-03 2.81348E-23
3.41468E-03 2.64289E-23
3.51725E-03 2.48476E-23
3.62133E-03 2.33801E-23
3.72692E-03 2.20169E-23
3.83403E-03 2.07493E-23
3.94265E-03 1.95694E-23
4.05278E-03 1.84701E-23
4.16442E-03 1.74449E-23
4.27757E-03 1.64880E-23
4.39223E-03 1.55940E-23
4.50840E-03 1.47582E-23
4.62608E-03 1.39760E-23
4.74527E-03 1.32434E-23
4.86597E-03 1.25567E-23
4.98817E-03 1.19127E-23
5.11188E-03 1.13081E-23
5.23711E-03 1.07401E-23
5.36383E-03 1.02062E-23
5.49207E-03 9.70388E-24
5.62181E-03 9.23106E-24
5.75306E-03 8.78567E-24
5.88581E-03 8.36585E-24
6.02007E-03 7.96988E-24
6.15583E-03 7.59618E-24
6.29310E-03 7.24329E-24
6.43187E-03 6.90985E-24
6.57214E-03 6.59461E-24
6.71392E-03 6.29641E-24
6.85720E-03 6.01417E-24
7.00198E-03 5.74690E-24
7.14827E-03 5.49367E-24
7.29605E-03 5.25362E-24
7.44534E-03 5.02595E-24
7.59612E-03 4.80991E-24
7.97965E-03 4.31629E-24
8.37255E-03 3.88158E-24
8.77480E-03 3.49769E-24
9.18641E-03 3.15781E-24
9.60736E-03 2.85613E-24
1.00376E-02 2.58774E-24
1.04773E-02 2.34841E-24
1.09262E-02 2.13455E-24
1.13844E-02 1.94305E-24
1.18520E-02 1.77123E-24
1.23288E-02 1.61679E-24
1.28150E-02 1.47772E-24
1.33104E-02 1.35228E-24
1.38150E-02 1.23893E-24
1.43290E-02 1.13637E-24
1.48521E-02 1.04341E-24
1.53845E-02 9.59040E-25
1.59262E-02 8.82359E-25
1.64770E-02 8.12573E-25
1.70371E-02 7.48980E-25
1.76063E-02 6.90959E-25
1.81848E-02 6.37959E-25
1.87724E-02 5.89491E-25
1.93692E-02 5.45119E-25
1.99751E-02 5.04453E-25
2.05901E-02 4.67147E-25
2.12143E-02 4.32889E-25
2.18476E-02 4.01401E-25
2.24900E-02 3.72432E-25
2.31415E-02 3.45758E-25
2.38021E-02 3.21176E-25
2.44717E-02 2.98504E-25
2.51504E-02 2.77577E-25
2.58382E-02 2.58246E-25
2.65349E-02 2.40377E-25
2.72407E-02 2.23846E-25
2.79555E-02 2.08545E-25
2.86793E-02 1.94371E-25
2.94120E-02 1.81235E-25
3.01537E-02 1.69051E-25
3.09043E-02 1.57745E-25
3.16639E-02 1.47248E-25
3.24324E-02 1.37497E-25
3.32098E-02 1.28432E-25
3.39961E-02 1.20003E-25
3.47912E-02 1.12161E-25
3.55952E-02 1.04861E-25
3.64081E-02 9.80625E-26
3.72297E-02 9.17288E-26
3.80602E-02 8.58254E-26
3.88995E-02 8.03208E-26
3.97476E-02 7.51862E-26
4.06044E-02 7.03948E-26
4.14700E-02 6.59222E-26
4.23443E-02 6.17455E-26
4.32273E-02 5.78441E-26
4.41190E-02 5.41985E-26
4.50194E-02 5.07909E-26
4.59284E-02 4.76048E-26
4.68461E-02 4.46251E-26
4.87074E-02 3.92291E-26
5.06030E-02 3.45019E-26
5.25328E-02 3.03568E-26
5.44967E-02 2.67190E-26
5.64946E-02 2.35239E-26
5.85262E-02 2.07157E-26
6.05914E-02 1.82460E-26
6.26901E-02 1.60729E-26
6.48222E-02 1.41597E-26
6.69873E-02 1.24746E-26
6.91854E-02 1.09900E-26
7.14163E-02 9.68148E-27
7.36799E-02 8.52798E-27
7.59760E-02 7.51090E-27
7.83043E-02 6.61400E-27
8.06647E-02 5.82299E-27
8.30571E-02 5.12536E-27
8.54812E-02 4.51010E-27
8.79369E-02 3.96750E-27
9.04240E-02 3.48904E-27
9.29422E-02 3.06721E-27
9.54915E-02 2.69538E-27
9.80716E-02 2.36769E-27
1.00682E-01 2.07900E-27
1.03323E-01 1.82474E-27
1.05995E-01 1.60089E-27
1.08696E-01 1.40389E-27
1.11427E-01 1.23061E-27
1.14188E-01 1.07825E-27
1.16978E-01 9.44367E-28
1.19797E-01 8.26782E-28
1.22645E-01 7.23571E-28
1.25522E-01 6.33035E-28
1.28428E-01 5.53669E-28
1.31361E-01 4.84143E-28
1.34323E-01 4.23279E-28
1.37313E-01 3.70038E-28
1.40330E-01 3.23501E-28
1.43375E-01 2.82854E-28
1.46447E-01 2.47380E-28
1.49545E-01 2.16446E-28
1.52671E-01 1.89491E-28
1.55823E-01 1.66023E-28
1.59001E-01 1.45606E-28
1.62205E-01 1.27857E-28
1.65435E-01 1.12437E-28
1.68690E-01 9.90511E-29
1.71970E-01 8.74368E-29
1.75276E-01 7.73648E-29
1.78606E-01 6.86338E-29
1.81961E-01 6.10673E-29
1.85340E-01 5.45104E-29
1.88743E-01 4.88279E-29
1.92169E-01 4.39015E-29
1.95619E-01 3.96280E-29
1.99092E-01 3.59174E-29
2.02589E-01 3.26915E-29
2.06107E-01 2.98822E-29
2.09649E-01 2.74305E-29
2.13212E-01 2.52852E-29
2.16797E-01 2.34022E-29
2.20404E-01 2.17434E-29
2.24032E-01 2.02759E-29
2.27680E-01 1.89715E-29
2.31350E-01 1.78061E-29
2.35040E-01 1.67590E-29
2.38751E-01 1.58126E-29
2.42481E-01 1.49519E-29
2.46231E-01 1.41642E-29
2.50000E-01 1.34389E-29
2.53788E-01 1.27668E-29
2.57595E-01 1.21405E-29
2.61421E-01 1.15535E-29
2.65264E-01 1.10007E-29
2.69126E-01 1.04776E-29
2.73005E-01 9.98076E-30
2.76901E-01 9.50711E-30
2.80814E-01 9.05427E-30
2.84744E-01 8.62029E-30
2.88691E-01 8.20360E-30
2.92653E-01 7.80292E-30
2.96632E-01 7.41723E-30
3.00625E-01 7.04572E-30
3.04634E-01 6.68774E-30
3.08658E-01 6.34278E-30
3.12697E-01 6.01041E-30
3.16749E-01 5.69030E-30
3.20816E-01 5.38217E-30
3.24896E-01 5.08578E-30
3.28990E-01 4.80092E-30
3.33097E-01 4.52738E-30
3.37216E-01 4.26499E-30
3.41348E-01 4.01357E-30
3.45492E-01 3.77294E-30
3.49647E-01 3.54289E-30
3.53814E-01 3.32324E-30
3.57992E-01 3.11377E-30
3.62181E-01 2.91427E-30
3.66381E-01 2.72451E-30
3.70590E-01 2.54424E-30
3.74810E-01 2.37321E-30
3.79039E-01 2.21117E-30
3.83277E-01 2.05783E-30
3.87524E-01 1.91293E-30
3.91780E-01 1.77617E-30
3.96044E-01 1.64728E-30
4.00316E-01 1.52595E-30
4.04596E-01 1.41190E-30
4.08882E-01 1.30483E-30
4.13176E-01 1.20444E-30
4.17476E-01 1.11044E-30
4.21783E-01 1.02254E-30
4.26095E-01 9.40451E-31
4.30413E-01 8.63893E-31
4.34737E-01 7.92587E-31
4.39065E-01 7.26261E-31
4.43398E-01 6.64651E-31
4.47736E-01 6.07498E-31
4.52077E-01 5.54553E-31
4.56422E-01 5.05573E-31
4.60770E-01 4.60325E-31
4.65122E-01 4.18584E-31
4.69476E-01 3.80132E-31
4.73832E-01 3.44762E-31
4.78190E-01 3.12275E-31
4.82550E-01 2.82482E-31
4.86912E-01 2.55200E-31
4.91274E-01 2.30258E-31
4.95637E-01 2.07491E-31
5.00000E-01 1.86745E-31
5.04363E-01 1.67872E-31
5.08726E-01 1.50733E-31
5.13088E-01 1.35198E-31
5.17450E-01 1.21142E-31
5.21810E-01 1.08449E-31
5.26168E-01 9.70106E-32
5.30524E-01 8.67244E-32
5.34878E-01 7.74948E-32
5.39230E-01 6.92322E-32
5.43578E-01 6.18533E-32
5.47923E-01 5.52805E-32
5.52264E-01 4.94414E-32
5.56602E-01 4.42691E-32
5.60935E-01 3.97013E-32
5.65263E-01 3.56804E-32
5.69587E-01 3.21533E-32
5.73905E-01 2.90710E-32
5.78217E-01 2.63882E-32
5.82524E-01 2.40633E-32
5.86824E-01 2.20583E-32
5.91118E-01 2.03382E-32
5.95404E-01 1.88710E-32
5.99684E-01 1.76277E-32
6.03956E-01 1.65816E-32
6.08220E-01 1.57085E-32
6.12476E-01 1.49867E-32
6.16723E-01 1.43963E-32
6.20961E-01 1.39193E-32
6.25190E-01 1.35396E-32
6.29410E-01 1.32429E-32
6.33619E-01 1.30161E-32
6.37819E-01 1.28476E-32
6.42008E-01 1.27271E-32
6.46186E-01 1.26456E-32
6.50353E-01 1.25949E-32
6.54508E-01 1.25680E-32
6.58652E-01 1.25587E-32
6.62784E-01 1.25615E-32
6.66903E-01 1.25718E-32
6.71010E-01 1.25856E-32
6.75104E-01 1.25994E-32
6.79184E-01 1.26105E-32
6.83251E-01 1.26163E-32
6.87303E-01 1.26150E-32
6.91342E-01 1.26049E-32
6.95366E-01 1.25848E-32
6.99375E-01 1.25538E-32
7.03368E-01 1.25112E-32
7.07347E-01 1.24565E-32
7.11309E-01 1.23894E-32
7.15256E-01 1.23101E-32
7.19186E-01 1.22184E-32
7.23099E-01 1.21147E-32
7.26995E-01 1.19992E-32
7.30874E-01 1.18724E-32
7.34736E-01 1.17347E-32
7.38579E-01 1.15867E-32
7.42405E-01 1.14291E-32
7.46212E-01 1.12623E-32
7.50000E-01 1.10872E-32
7.53769E-01 1.09043E-32
7.57519E-01 1.07143E-32
7.61249E-01 1.05180E-32
7.64960E-01 1.03160E-32
7.68650E-01 1.01090E-32
7.72320E-01 9.89758E-33
7.75968E-01 9.68249E-33
7.79596E-01 9.46431E-33
7.83203E-01 9.24364E-33
7.86788E-01 9.02107E-33
7.90351E-01 8.79715E-33
7.93893E-01 8.57240E-33
7.97411E-01 8.34733E-33
8.00908E-01 8.12240E-33
8.04381E-01 7.89805E-33
8.07831E-01 7.67471E-33
8.11257E-01 7.45275E-33
8.14660E-01 7.23253E-33
8.18039E-01 7.01438E-33
8.21394E-01 6.79861E-33
8.24724E-01 6.58550E-33
8.28030E-01 6.37529E-33
8.31310E-01 6.16822E-33
8.34565E-01 5.96449E-33
8.37795E-01 5.76428E-33
8.40999E-01 5.56776E-33
8.44177E-01 5.37506E-33
8.47329E-01 5.18631E-33
8.50455E-01 5.00160E-33
8.53553E-01 4.82103E-33
8.56625E-01 4.64467E-33
8.59670E-01 4.47256E-33
8.62687E-01 4.30475E-33
8.65677E-01 4.14128E-33
8.68639E-01 3.98214E-33
8.71572E-01 3.82734E-33
8.74478E-01 3.67688E-33
8.77355E-01 3.53074E-33
8.80203E-01 3.38890E-33
8.83022E-01 3.25131E-33
8.85812E-01 3.11794E-33
8.88573E-01 2.98874E-33
8.91304E-01 2.86366E-33
8.94005E-01 2.74263E-33
8.96677E-01 2.62560E-33
8.99318E-01 2.51248E-33
9.01928E-01 2.40322E-33
9.04508E-01 2.29772E-33
9.07058E-01 2.19593E-33
9.09576E-01 2.09775E-33
9.12063E-01 2.00310E-33
9.14519E-01 1.91191E-33
9.16943E-01 1.82407E-33
9.19335E-01 1.73952E-33
9.21696E-01 1.65815E-33
9.24024E-01 1.57989E-33
9.26320E-01 1.50465E-33
9.28584E-01 1.43233E-33
9.30815E-01 1.36286E-33
9.33013E-01 1.29615E-33
9.35178E-01 1.23212E-33
9.37310E-01 1.17067E-33
9.39409E-01 1.11173E-33
9.41474E-01 1.05522E-33
9.43505E-01 1.00105E-33
9.45503E-01 9.49149E-34
9.47467E-01 8.99438E-34
9.49397E-01 8.51840E-34
9.51293E-01 8.06281E-34
9.53154E-01 7.62690E-34
9.54981E-01 7.20995E-34
9.56773E-01 6.81128E-34
9.58530E-01 6.43022E-34
9.60252E-01 6.06612E-34
9.61940E-01 5.71833E-34
9.63592E-01 5.38626E-34
9.65209E-01 5.06930E-34
9.66790E-01 4.76687E-34
9.68336E-01 4.47841E-34
9.69846E-01 4.20338E-34
9.71321E-01 3.94126E-34
9.72759E-01 3.69155E-34
9.74162E-01 3.45374E-34
9.75528E-01 3.22739E-34
9.76858E-01 3.01203E-34
9.78152E-01 2.80723E-34
9.79410E-01 2.61257E-34
9.80631E-01 2.42765E-34
9.81815E-01 2.25208E-34
9.82963E-01 2.08550E-34
9.84074E-01 1.92755E-34
9.85148E-01 1.77789E-34
9.86185E-01 1.63620E-34
9.87185E-01 1.50216E-34
9.88148E-01 1.37549E-34
9.89074E-01 1.25590E-34
9.89962E-01 1.14313E-34
9.90814E-01 1.03692E-34
9.91627E-01 9.37042E-35
9.92404E-01 8.43254E-35
9.93143E-01 7.55347E-35
9.93844E-01 6.73119E-35
9.94508E-01 5.96381E-35
9.95134E-01 5.24949E-35
9.95722E-01 4.58660E-35
9.96273E-01 3.97360E-35
9.96786E-01 3.40900E-35
9.97261E-01 2.89149E-35
9.97698E-01 2.41982E-35
9.98097E-01 1.99291E-35
9.98459E-01 1.60968E-35
9.98782E-01 1.26922E-35
9.99067E-01 9.70736E-36
9.99315E-01 7.13480E-36
9.99524E-01 4.96865E-36
9.99695E-01 3.20351E-36
9.99829E-01 1.83505E-36
9.99924E-01 8.59931E-37
9.99981E-01 2.75823E-37
1.00000E+00 8.12126E-38
