 #
 # Subroutine ELSEPA. Elastic scattering of electrons and positrons
 #                    by neutral atoms and positive ions
 #
 # Projectile: positron
 # Kinetic energy = 5.00000E+06 eV = 1.83747E+05 a.u.
 #
 # WARNING: High-energy factorization with free-atom DF screening.
 #          Absorption, polarization and exchange corrections are
 #          switched off.
 #          Phase shifts are calculated for the bare nucleus.
 #          Scattering amplitudes are not evaluated.
 #
 # Element: Sb,  Z =  51,  atomic weight = 1.21760E+02 g/mol
 #
 # Nuclear model: Fermi distribution
 #                Average radius = 5.30337E-13 cm
 #                Skin thickness = 5.46000E-14 cm
 #
 # Number of electrons = 51
 #
 # Total elastic cross section = 5.36641E-18 cm**2 = 1.91638E-01 a0**2
 # 1st transport cross section = 1.12199E-22 cm**2 = 4.00671E-06 a0**2
 # 2nd transport cross section = 3.23094E-22 cm**2 = 1.15379E-05 a0**2
 #
 #
 # Differential cross section:                       MU=(1-COS(THETA))/2
 #
 #  THETA        MU          DCS          DCS        Sherman      error
 #  (deg)                 (cm**2/sr)   (a0**2/sr)    function
 #----------------------------------------------------------------------
0.00000E+00 1.37832E-12
7.61557E-13 1.37831E-12
1.18994E-12 1.37830E-12
1.71346E-12 1.37829E-12
2.33225E-12 1.37828E-12
3.04617E-12 1.37828E-12
3.85530E-12 1.37826E-12
4.75964E-12 1.37825E-12
5.75917E-12 1.37824E-12
6.85391E-12 1.37823E-12
8.04379E-12 1.37821E-12
9.32893E-12 1.37819E-12
1.07092E-11 1.37817E-12
1.21847E-11 1.37816E-12
1.37554E-11 1.37814E-12
1.54213E-11 1.37811E-12
1.71823E-11 1.37809E-12
1.90386E-11 1.37807E-12
2.09900E-11 1.37804E-12
2.30367E-11 1.37802E-12
2.51785E-11 1.37799E-12
2.74156E-11 1.37796E-12
2.97478E-11 1.37793E-12
3.21752E-11 1.37790E-12
3.46979E-11 1.37786E-12
3.73157E-11 1.37783E-12
4.00286E-11 1.37780E-12
4.28368E-11 1.37776E-12
4.57402E-11 1.37772E-12
4.87388E-11 1.37768E-12
5.18325E-11 1.37764E-12
5.50215E-11 1.37760E-12
5.83057E-11 1.37756E-12
6.16850E-11 1.37752E-12
6.51595E-11 1.37747E-12
6.87293E-11 1.37743E-12
7.23943E-11 1.37738E-12
7.61544E-11 1.37733E-12
1.18991E-10 1.37678E-12
1.71347E-10 1.37612E-12
2.33223E-10 1.37533E-12
3.04617E-10 1.37442E-12
3.85531E-10 1.37339E-12
4.75965E-10 1.37225E-12
5.75917E-10 1.37098E-12
6.85389E-10 1.36960E-12
8.04380E-10 1.36810E-12
9.32891E-10 1.36648E-12
1.07092E-09 1.36475E-12
1.21847E-09 1.36290E-12
1.37554E-09 1.36094E-12
1.54213E-09 1.35886E-12
1.71823E-09 1.35667E-12
1.90386E-09 1.35437E-12
2.09900E-09 1.35196E-12
2.30367E-09 1.34943E-12
2.51785E-09 1.34680E-12
2.74156E-09 1.34406E-12
2.97478E-09 1.34121E-12
3.21752E-09 1.33826E-12
3.46978E-09 1.33520E-12
3.73156E-09 1.33204E-12
4.00286E-09 1.32878E-12
4.28368E-09 1.32541E-12
4.57402E-09 1.32195E-12
4.87388E-09 1.31838E-12
5.18326E-09 1.31472E-12
5.50215E-09 1.31097E-12
5.83057E-09 1.30712E-12
6.16850E-09 1.30317E-12
6.51596E-09 1.29914E-12
6.87293E-09 1.29502E-12
7.23942E-09 1.29080E-12
7.61544E-09 1.28650E-12
1.18991E-08 1.23910E-12
1.71347E-08 1.18485E-12
2.33223E-08 1.12549E-12
3.04617E-08 1.06272E-12
3.85531E-08 9.98164E-13
4.75965E-08 9.33226E-13
5.75917E-08 8.69116E-13
6.85389E-08 8.06801E-13
8.04380E-08 7.47021E-13
9.32891E-08 6.90300E-13
1.07092E-07 6.36975E-13
1.21847E-07 5.87223E-13
1.37554E-07 5.41097E-13
1.54213E-07 4.98548E-13
1.71823E-07 4.59458E-13
1.90386E-07 4.23657E-13
2.09900E-07 3.90946E-13
2.30367E-07 3.61107E-13
2.51785E-07 3.33917E-13
2.74156E-07 3.09154E-13
2.97478E-07 2.86603E-13
3.21752E-07 2.66061E-13
3.46978E-07 2.47337E-13
3.73156E-07 2.30256E-13
4.00286E-07 2.14656E-13
4.28368E-07 2.00392E-13
4.57402E-07 1.87330E-13
4.87388E-07 1.75351E-13
5.18325E-07 1.64347E-13
5.50215E-07 1.54223E-13
5.83057E-07 1.44893E-13
6.16850E-07 1.36280E-13
6.51596E-07 1.28315E-13
6.87293E-07 1.20938E-13
7.23942E-07 1.14094E-13
7.61543E-07 1.07735E-13
1.18991E-06 6.31879E-14
1.71347E-06 3.90154E-14
2.33223E-06 2.49957E-14
3.04617E-06 1.65607E-14
3.85531E-06 1.13456E-14
4.75964E-06 8.03315E-15
5.75916E-06 5.86658E-15
6.85388E-06 4.40476E-15
8.04378E-06 3.38711E-15
9.32888E-06 2.65721E-15
1.07092E-05 2.11932E-15
1.21846E-05 1.71341E-15
1.37553E-05 1.40089E-15
1.54212E-05 1.15623E-15
1.71822E-05 9.62042E-16
1.90385E-05 8.06187E-16
2.09899E-05 6.79913E-16
2.30365E-05 5.76801E-16
2.51783E-05 4.92029E-16
2.74153E-05 4.21911E-16
2.97475E-05 3.63591E-16
3.21749E-05 3.14832E-16
3.46974E-05 2.73865E-16
3.73152E-05 2.39281E-16
4.00281E-05 2.09950E-16
4.28362E-05 1.84963E-16
4.57395E-05 1.63581E-16
4.87380E-05 1.45208E-16
5.18317E-05 1.29353E-16
5.50205E-05 1.15616E-16
5.83045E-05 1.03667E-16
6.16838E-05 9.32353E-17
6.51582E-05 8.40940E-17
6.87277E-05 7.60555E-17
7.23925E-05 6.89632E-17
7.61524E-05 6.26855E-17
9.21439E-05 4.37481E-17
1.09658E-04 3.14768E-17
1.28695E-04 2.32275E-17
1.49255E-04 1.75099E-17
1.71338E-04 1.34438E-17
1.94942E-04 1.04879E-17
2.20070E-04 8.29802E-18
2.46720E-04 6.64829E-18
2.74892E-04 5.38696E-18
3.04586E-04 4.40971E-18
3.35803E-04 3.64341E-18
3.68542E-04 3.03594E-18
4.02802E-04 2.54953E-18
4.38585E-04 2.15647E-18
4.75889E-04 1.83613E-18
5.14715E-04 1.57299E-18
5.55063E-04 1.35526E-18
5.96931E-04 1.17387E-18
6.40321E-04 1.02180E-18
6.85233E-04 8.93541E-19
7.31665E-04 7.84771E-19
7.79618E-04 6.92042E-19
8.29092E-04 6.12600E-19
8.80086E-04 5.44227E-19
9.32601E-04 4.85123E-19
9.86636E-04 4.33821E-19
1.04219E-03 3.89118E-19
1.09927E-03 3.50021E-19
1.15786E-03 3.15707E-19
1.21797E-03 2.85491E-19
1.27961E-03 2.58801E-19
1.34276E-03 2.35153E-19
1.40743E-03 2.14141E-19
1.47362E-03 1.95420E-19
1.54133E-03 1.78697E-19
1.61056E-03 1.63721E-19
1.68131E-03 1.50279E-19
1.75357E-03 1.38185E-19
1.82735E-03 1.27281E-19
1.90265E-03 1.17428E-19
1.97947E-03 1.08509E-19
2.05780E-03 1.00418E-19
2.13765E-03 9.30647E-20
2.21902E-03 8.63707E-20
2.30190E-03 8.02659E-20
2.38630E-03 7.46894E-20
2.47222E-03 6.95872E-20
2.55965E-03 6.49119E-20
2.64859E-03 6.06214E-20
2.73905E-03 5.66782E-20
2.83103E-03 5.30494E-20
2.92452E-03 4.97052E-20
3.01952E-03 4.66195E-20
3.11604E-03 4.37686E-20
3.21407E-03 4.11315E-20
3.31362E-03 3.86892E-20
3.41468E-03 3.64247E-20
3.51725E-03 3.43228E-20
3.62133E-03 3.23697E-20
3.72692E-03 3.05530E-20
3.83403E-03 2.88614E-20
3.94265E-03 2.72847E-20
4.05278E-03 2.58137E-20
4.16442E-03 2.44401E-20
4.27757E-03 2.31562E-20
4.39223E-03 2.19551E-20
4.50840E-03 2.08306E-20
4.62608E-03 1.97767E-20
4.74527E-03 1.87884E-20
4.86597E-03 1.78607E-20
4.98817E-03 1.69892E-20
5.11188E-03 1.61701E-20
5.23711E-03 1.53994E-20
5.36383E-03 1.46739E-20
5.49207E-03 1.39903E-20
5.62181E-03 1.33459E-20
5.75306E-03 1.27380E-20
5.88581E-03 1.21642E-20
6.02007E-03 1.16221E-20
6.15583E-03 1.11097E-20
6.29310E-03 1.06250E-20
6.43187E-03 1.01664E-20
6.57214E-03 9.73211E-21
6.71392E-03 9.32063E-21
6.85720E-03 8.93055E-21
7.00198E-03 8.56055E-21
7.14827E-03 8.20939E-21
7.29605E-03 7.87596E-21
7.44534E-03 7.55918E-21
7.59612E-03 7.25808E-21
7.97965E-03 6.56802E-21
8.37255E-03 5.95759E-21
8.77480E-03 5.41607E-21
9.18641E-03 4.93433E-21
9.60736E-03 4.50468E-21
1.00376E-02 4.12050E-21
1.04773E-02 3.77617E-21
1.09262E-02 3.46685E-21
1.13844E-02 3.18836E-21
1.18520E-02 2.93710E-21
1.23288E-02 2.70995E-21
1.28150E-02 2.50420E-21
1.33104E-02 2.31747E-21
1.38150E-02 2.14772E-21
1.43290E-02 1.99311E-21
1.48521E-02 1.85207E-21
1.53845E-02 1.72321E-21
1.59262E-02 1.60527E-21
1.64770E-02 1.49718E-21
1.70371E-02 1.39797E-21
1.76063E-02 1.30678E-21
1.81848E-02 1.22285E-21
1.87724E-02 1.14550E-21
1.93692E-02 1.07412E-21
1.99751E-02 1.00817E-21
2.05901E-02 9.47162E-22
2.12143E-02 8.90664E-22
2.18476E-02 8.38280E-22
2.24900E-02 7.89661E-22
2.31415E-02 7.44483E-22
2.38021E-02 7.02466E-22
2.44717E-02 6.63343E-22
2.51504E-02 6.26884E-22
2.58382E-02 5.92871E-22
2.65349E-02 5.61115E-22
2.72407E-02 5.31436E-22
2.79555E-02 5.03676E-22
2.86793E-02 4.77688E-22
2.94120E-02 4.53339E-22
3.01537E-02 4.30507E-22
3.09043E-02 4.09080E-22
3.16639E-02 3.88957E-22
3.24324E-02 3.70044E-22
3.32098E-02 3.52254E-22
3.39961E-02 3.35511E-22
3.47912E-02 3.19740E-22
3.55952E-02 3.04875E-22
3.64081E-02 2.90855E-22
3.72297E-02 2.77624E-22
3.80602E-02 2.65128E-22
3.88995E-02 2.53319E-22
3.97476E-02 2.42154E-22
4.06044E-02 2.31590E-22
4.14700E-02 2.21590E-22
4.23443E-02 2.12117E-22
4.32273E-02 2.03140E-22
4.41190E-02 1.94627E-22
4.50194E-02 1.86550E-22
4.59284E-02 1.78883E-22
4.68461E-02 1.71601E-22
4.87074E-02 1.58103E-22
5.06030E-02 1.45891E-22
5.25328E-02 1.34821E-22
5.44967E-02 1.24770E-22
5.64946E-02 1.15626E-22
5.85262E-02 1.07294E-22
6.05914E-02 9.96904E-23
6.26901E-02 9.27394E-23
6.48222E-02 8.63757E-23
6.69873E-02 8.05412E-23
6.91854E-02 7.51844E-23
7.14163E-02 7.02594E-23
7.36799E-02 6.57255E-23
7.59760E-02 6.15461E-23
7.83043E-02 5.76887E-23
8.06647E-02 5.41242E-23
8.30571E-02 5.08266E-23
8.54812E-02 4.77725E-23
8.79369E-02 4.49407E-23
9.04240E-02 4.23123E-23
9.29422E-02 3.98701E-23
9.54915E-02 3.75985E-23
9.80716E-02 3.54837E-23
1.00682E-01 3.35129E-23
1.03323E-01 3.16747E-23
1.05995E-01 2.99586E-23
1.08696E-01 2.83550E-23
1.11427E-01 2.68552E-23
1.14188E-01 2.54514E-23
1.16978E-01 2.41364E-23
1.19797E-01 2.29035E-23
1.22645E-01 2.17469E-23
1.25522E-01 2.06608E-23
1.28428E-01 1.96404E-23
1.31361E-01 1.86808E-23
1.34323E-01 1.77778E-23
1.37313E-01 1.69276E-23
1.40330E-01 1.61265E-23
1.43375E-01 1.53711E-23
1.46447E-01 1.46585E-23
1.49545E-01 1.39857E-23
1.52671E-01 1.33502E-23
1.55823E-01 1.27495E-23
1.59001E-01 1.21814E-23
1.62205E-01 1.16438E-23
1.65435E-01 1.11348E-23
1.68690E-01 1.06526E-23
1.71970E-01 1.01955E-23
1.75276E-01 9.76203E-24
1.78606E-01 9.35073E-24
1.81961E-01 8.96027E-24
1.85340E-01 8.58941E-24
1.88743E-01 8.23701E-24
1.92169E-01 7.90199E-24
1.95619E-01 7.58332E-24
1.99092E-01 7.28008E-24
2.02589E-01 6.99139E-24
2.06107E-01 6.71641E-24
2.09649E-01 6.45441E-24
2.13212E-01 6.20465E-24
2.16797E-01 5.96648E-24
2.20404E-01 5.73925E-24
2.24032E-01 5.52238E-24
2.27680E-01 5.31530E-24
2.31350E-01 5.11749E-24
2.35040E-01 4.92849E-24
2.38751E-01 4.74782E-24
2.42481E-01 4.57506E-24
2.46231E-01 4.40980E-24
2.50000E-01 4.25165E-24
2.53788E-01 4.10026E-24
2.57595E-01 3.95528E-24
2.61421E-01 3.81640E-24
2.65264E-01 3.68332E-24
2.69126E-01 3.55577E-24
2.73005E-01 3.43346E-24
2.76901E-01 3.31614E-24
2.80814E-01 3.20357E-24
2.84744E-01 3.09553E-24
2.88691E-01 2.99181E-24
2.92653E-01 2.89220E-24
2.96632E-01 2.79652E-24
3.00625E-01 2.70458E-24
3.04634E-01 2.61621E-24
3.08658E-01 2.53124E-24
3.12697E-01 2.44953E-24
3.16749E-01 2.37092E-24
3.20816E-01 2.29529E-24
3.24896E-01 2.22249E-24
3.28990E-01 2.15242E-24
3.33097E-01 2.08494E-24
3.37216E-01 2.01993E-24
3.41348E-01 1.95730E-24
3.45492E-01 1.89693E-24
3.49647E-01 1.83876E-24
3.53814E-01 1.78268E-24
3.57992E-01 1.72859E-24
3.62181E-01 1.67641E-24
3.66381E-01 1.62607E-24
3.70590E-01 1.57749E-24
3.74810E-01 1.53060E-24
3.79039E-01 1.48533E-24
3.83277E-01 1.44161E-24
3.87524E-01 1.39939E-24
3.91780E-01 1.35860E-24
3.96044E-01 1.31918E-24
4.00316E-01 1.28108E-24
4.04596E-01 1.24426E-24
4.08882E-01 1.20866E-24
4.13176E-01 1.17423E-24
4.17476E-01 1.14093E-24
4.21783E-01 1.10871E-24
4.26095E-01 1.07754E-24
4.30413E-01 1.04737E-24
4.34737E-01 1.01817E-24
4.39065E-01 9.89896E-25
4.43398E-01 9.62522E-25
4.47736E-01 9.36012E-25
4.52077E-01 9.10332E-25
4.56422E-01 8.85452E-25
4.60770E-01 8.61345E-25
4.65122E-01 8.37982E-25
4.69476E-01 8.15337E-25
4.73832E-01 7.93383E-25
4.78190E-01 7.72097E-25
4.82550E-01 7.51454E-25
4.86912E-01 7.31432E-25
4.91274E-01 7.12009E-25
4.95637E-01 6.93165E-25
5.00000E-01 6.74879E-25
5.04363E-01 6.57133E-25
5.08726E-01 6.39908E-25
5.13088E-01 6.23186E-25
5.17450E-01 6.06949E-25
5.21810E-01 5.91182E-25
5.26168E-01 5.75869E-25
5.30524E-01 5.60995E-25
5.34878E-01 5.46545E-25
5.39230E-01 5.32506E-25
5.43578E-01 5.18863E-25
5.47923E-01 5.05604E-25
5.52264E-01 4.92716E-25
5.56602E-01 4.80187E-25
5.60935E-01 4.68007E-25
5.65263E-01 4.56162E-25
5.69587E-01 4.44644E-25
5.73905E-01 4.33442E-25
5.78217E-01 4.22544E-25
5.82524E-01 4.11943E-25
5.86824E-01 4.01628E-25
5.91118E-01 3.91591E-25
5.95404E-01 3.81823E-25
5.99684E-01 3.72316E-25
6.03956E-01 3.63062E-25
6.08220E-01 3.54053E-25
6.12476E-01 3.45282E-25
6.16723E-01 3.36741E-25
6.20961E-01 3.28423E-25
6.25190E-01 3.20322E-25
6.29410E-01 3.12432E-25
6.33619E-01 3.04746E-25
6.37819E-01 2.97258E-25
6.42008E-01 2.89962E-25
6.46186E-01 2.82853E-25
6.50353E-01 2.75924E-25
6.54508E-01 2.69172E-25
6.58652E-01 2.62591E-25
6.62784E-01 2.56175E-25
6.66903E-01 2.49920E-25
6.71010E-01 2.43822E-25
6.75104E-01 2.37876E-25
6.79184E-01 2.32078E-25
6.83251E-01 2.26423E-25
6.87303E-01 2.20908E-25
6.91342E-01 2.15528E-25
6.95366E-01 2.10280E-25
6.99375E-01 2.05161E-25
7.03368E-01 2.00166E-25
7.07347E-01 1.95293E-25
7.11309E-01 1.90538E-25
7.15256E-01 1.85897E-25
7.19186E-01 1.81368E-25
7.23099E-01 1.76948E-25
7.26995E-01 1.72633E-25
7.30874E-01 1.68422E-25
7.34736E-01 1.64310E-25
7.38579E-01 1.60297E-25
7.42405E-01 1.56378E-25
7.46212E-01 1.52551E-25
7.50000E-01 1.48815E-25
7.53769E-01 1.45166E-25
7.57519E-01 1.41603E-25
7.61249E-01 1.38123E-25
7.64960E-01 1.34724E-25
7.68650E-01 1.31404E-25
7.72320E-01 1.28161E-25
7.75968E-01 1.24993E-25
7.79596E-01 1.21898E-25
7.83203E-01 1.18874E-25
7.86788E-01 1.15920E-25
7.90351E-01 1.13034E-25
7.93893E-01 1.10214E-25
7.97411E-01 1.07459E-25
8.00908E-01 1.04766E-25
8.04381E-01 1.02134E-25
8.07831E-01 9.95630E-26
8.11257E-01 9.70499E-26
8.14660E-01 9.45938E-26
8.18039E-01 9.21934E-26
8.21394E-01 8.98473E-26
8.24724E-01 8.75542E-26
8.28030E-01 8.53128E-26
8.31310E-01 8.31220E-26
8.34565E-01 8.09806E-26
8.37795E-01 7.88873E-26
8.40999E-01 7.68412E-26
8.44177E-01 7.48410E-26
8.47329E-01 7.28858E-26
8.50455E-01 7.09745E-26
8.53553E-01 6.91061E-26
8.56625E-01 6.72797E-26
8.59670E-01 6.54943E-26
8.62687E-01 6.37490E-26
8.65677E-01 6.20428E-26
8.68639E-01 6.03750E-26
8.71572E-01 5.87447E-26
8.74478E-01 5.71511E-26
8.77355E-01 5.55933E-26
8.80203E-01 5.40706E-26
8.83022E-01 5.25823E-26
8.85812E-01 5.11276E-26
8.88573E-01 4.97057E-26
8.91304E-01 4.83161E-26
8.94005E-01 4.69580E-26
8.96677E-01 4.56308E-26
8.99318E-01 4.43339E-26
9.01928E-01 4.30665E-26
9.04508E-01 4.18282E-26
9.07058E-01 4.06183E-26
9.09576E-01 3.94362E-26
9.12063E-01 3.82815E-26
9.14519E-01 3.71535E-26
9.16943E-01 3.60517E-26
9.19335E-01 3.49757E-26
9.21696E-01 3.39249E-26
9.24024E-01 3.28989E-26
9.26320E-01 3.18971E-26
9.28584E-01 3.09192E-26
9.30815E-01 2.99647E-26
9.33013E-01 2.90331E-26
9.35178E-01 2.81240E-26
9.37310E-01 2.72371E-26
9.39409E-01 2.63719E-26
9.41474E-01 2.55281E-26
9.43505E-01 2.47052E-26
9.45503E-01 2.39029E-26
9.47467E-01 2.31209E-26
9.49397E-01 2.23588E-26
9.51293E-01 2.16162E-26
9.53154E-01 2.08930E-26
9.54981E-01 2.01887E-26
9.56773E-01 1.95030E-26
9.58530E-01 1.88356E-26
9.60252E-01 1.81864E-26
9.61940E-01 1.75549E-26
9.63592E-01 1.69409E-26
9.65209E-01 1.63441E-26
9.66790E-01 1.57644E-26
9.68336E-01 1.52014E-26
9.69846E-01 1.46549E-26
9.71321E-01 1.41247E-26
9.72759E-01 1.36106E-26
9.74162E-01 1.31123E-26
9.75528E-01 1.26297E-26
9.76858E-01 1.21625E-26
9.78152E-01 1.17106E-26
9.79410E-01 1.12737E-26
9.80631E-01 1.08517E-26
9.81815E-01 1.04444E-26
9.82963E-01 1.00516E-26
9.84074E-01 9.67319E-27
9.85148E-01 9.30901E-27
9.86185E-01 8.95891E-27
9.87185E-01 8.62274E-27
9.88148E-01 8.30036E-27
9.89074E-01 7.99165E-27
9.89962E-01 7.69647E-27
9.90814E-01 7.41471E-27
9.91627E-01 7.14625E-27
9.92404E-01 6.89099E-27
9.93143E-01 6.64882E-27
9.93844E-01 6.41964E-27
9.94508E-01 6.20337E-27
9.95134E-01 5.99991E-27
9.95722E-01 5.80919E-27
9.96273E-01 5.63112E-27
9.96786E-01 5.46564E-27
9.97261E-01 5.31269E-27
9.97698E-01 5.17219E-27
9.98097E-01 5.04410E-27
9.98459E-01 4.92836E-27
9.98782E-01 4.82492E-27
9.99067E-01 4.73375E-27
9.99315E-01 4.65481E-27
9.99524E-01 4.58807E-27
9.99695E-01 4.53350E-27
9.99829E-01 4.49108E-27
9.99924E-01 4.46079E-27
9.99981E-01 4.44262E-27
1.00000E+00 4.43656E-27
