 #
 # Subroutine ELSEPA. Elastic scattering of electrons and positrons
 #                    by neutral atoms and positive ions
 #
 # Projectile: positron
 # Kinetic energy = 3.50000E+06 eV = 1.28623E+05 a.u.
 #
 # WARNING: High-energy factorization with free-atom DF screening.
 #          Absorption, polarization and exchange corrections are
 #          switched off.
 #          Phase shifts are calculated for the bare nucleus.
 #          Scattering amplitudes are not evaluated.
 #
 # Element: Sb,  Z =  51,  atomic weight = 1.21760E+02 g/mol
 #
 # Nuclear model: Fermi distribution
 #                Average radius = 5.30337E-13 cm
 #                Skin thickness = 5.46000E-14 cm
 #
 # Number of electrons = 51
 #
 # Total elastic cross section = 5.39790E-18 cm**2 = 1.92762E-01 a0**2
 # 1st transport cross section = 2.01461E-22 cm**2 = 7.19431E-06 a0**2
 # 2nd transport cross section = 5.78148E-22 cm**2 = 2.06460E-05 a0**2
 #
 #
 # Differential cross section:                       MU=(1-COS(THETA))/2
 #
 #  THETA        MU          DCS          DCS        Sherman      error
 #  (deg)                 (cm**2/sr)   (a0**2/sr)    function
 #----------------------------------------------------------------------
0.00000E+00 7.30119E-13
7.61557E-13 7.30116E-13
1.18994E-12 7.30114E-13
1.71346E-12 7.30112E-13
2.33225E-12 7.30110E-13
3.04617E-12 7.30107E-13
3.85530E-12 7.30104E-13
4.75964E-12 7.30100E-13
5.75917E-12 7.30097E-13
6.85391E-12 7.30093E-13
8.04379E-12 7.30088E-13
9.32893E-12 7.30083E-13
1.07092E-11 7.30078E-13
1.21847E-11 7.30073E-13
1.37554E-11 7.30067E-13
1.54213E-11 7.30061E-13
1.71823E-11 7.30055E-13
1.90386E-11 7.30048E-13
2.09900E-11 7.30041E-13
2.30367E-11 7.30033E-13
2.51785E-11 7.30025E-13
2.74156E-11 7.30017E-13
2.97478E-11 7.30009E-13
3.21752E-11 7.30000E-13
3.46979E-11 7.29991E-13
3.73157E-11 7.29981E-13
4.00286E-11 7.29972E-13
4.28368E-11 7.29961E-13
4.57402E-11 7.29951E-13
4.87388E-11 7.29940E-13
5.18325E-11 7.29929E-13
5.50215E-11 7.29918E-13
5.83057E-11 7.29906E-13
6.16850E-11 7.29894E-13
6.51595E-11 7.29881E-13
6.87293E-11 7.29868E-13
7.23943E-11 7.29855E-13
7.61544E-11 7.29842E-13
1.18991E-10 7.29688E-13
1.71347E-10 7.29501E-13
2.33223E-10 7.29280E-13
3.04617E-10 7.29026E-13
3.85531E-10 7.28738E-13
4.75965E-10 7.28418E-13
5.75917E-10 7.28063E-13
6.85389E-10 7.27676E-13
8.04380E-10 7.27255E-13
9.32891E-10 7.26801E-13
1.07092E-09 7.26315E-13
1.21847E-09 7.25795E-13
1.37554E-09 7.25243E-13
1.54213E-09 7.24658E-13
1.71823E-09 7.24041E-13
1.90386E-09 7.23391E-13
2.09900E-09 7.22709E-13
2.30367E-09 7.21995E-13
2.51785E-09 7.21249E-13
2.74156E-09 7.20471E-13
2.97478E-09 7.19662E-13
3.21752E-09 7.18821E-13
3.46978E-09 7.17949E-13
3.73156E-09 7.17046E-13
4.00286E-09 7.16112E-13
4.28368E-09 7.15148E-13
4.57402E-09 7.14152E-13
4.87388E-09 7.13127E-13
5.18326E-09 7.12072E-13
5.50215E-09 7.10987E-13
5.83057E-09 7.09872E-13
6.16850E-09 7.08728E-13
6.51596E-09 7.07554E-13
6.87293E-09 7.06352E-13
7.23942E-09 7.05121E-13
7.61544E-09 7.03863E-13
1.18991E-08 6.89768E-13
1.71347E-08 6.73069E-13
2.33223E-08 6.54280E-13
3.04617E-08 6.33530E-13
3.85531E-08 6.11242E-13
4.75965E-08 5.87869E-13
5.75917E-08 5.63743E-13
6.85389E-08 5.38889E-13
8.04380E-08 5.13914E-13
9.32891E-08 4.89091E-13
1.07092E-07 4.64482E-13
1.21847E-07 4.40254E-13
1.37554E-07 4.16757E-13
1.54213E-07 3.94104E-13
1.71823E-07 3.72145E-13
1.90386E-07 3.51153E-13
2.09900E-07 3.31208E-13
2.30367E-07 3.12279E-13
2.51785E-07 2.94245E-13
2.74156E-07 2.77276E-13
2.97478E-07 2.61337E-13
3.21752E-07 2.46307E-13
3.46978E-07 2.32181E-13
3.73156E-07 2.18977E-13
4.00286E-07 2.06642E-13
4.28368E-07 1.95037E-13
4.57402E-07 1.84207E-13
4.87388E-07 1.74108E-13
5.18325E-07 1.64669E-13
5.50215E-07 1.55819E-13
5.83057E-07 1.47567E-13
6.16850E-07 1.39868E-13
6.51596E-07 1.32651E-13
6.87293E-07 1.25895E-13
7.23942E-07 1.19584E-13
7.61543E-07 1.13684E-13
1.18991E-06 7.10787E-14
1.71347E-06 4.64503E-14
2.33223E-06 3.21307E-14
3.04617E-06 2.25376E-14
3.85531E-06 1.61665E-14
4.75964E-06 1.18592E-14
5.75916E-06 8.85109E-15
6.85388E-06 6.68902E-15
8.04378E-06 5.15749E-15
9.32888E-06 4.04662E-15
1.07092E-05 3.22329E-15
1.21846E-05 2.60474E-15
1.37553E-05 2.13415E-15
1.54212E-05 1.77005E-15
1.71822E-05 1.48223E-15
1.90385E-05 1.25230E-15
2.09899E-05 1.06752E-15
2.30365E-05 9.16276E-16
2.51783E-05 7.90338E-16
2.74153E-05 6.85485E-16
2.97475E-05 5.97501E-16
3.21749E-05 5.22770E-16
3.46974E-05 4.59142E-16
3.73152E-05 4.04801E-16
4.00281E-05 3.58084E-16
4.28362E-05 3.17560E-16
4.57395E-05 2.82539E-16
4.87380E-05 2.52154E-16
5.18317E-05 2.25643E-16
5.50205E-05 2.02395E-16
5.83045E-05 1.82037E-16
6.16838E-05 1.64152E-16
6.51582E-05 1.48350E-16
6.87277E-05 1.34379E-16
7.23925E-05 1.22010E-16
7.61524E-05 1.11026E-16
9.21439E-05 7.76630E-17
1.09658E-04 5.59847E-17
1.28695E-04 4.14136E-17
1.49255E-04 3.13034E-17
1.71338E-04 2.41248E-17
1.94942E-04 1.88942E-17
2.20070E-04 1.50150E-17
2.46720E-04 1.20853E-17
2.74892E-04 9.83113E-18
3.04586E-04 8.07830E-18
3.35803E-04 6.69896E-18
3.68542E-04 5.60072E-18
4.02802E-04 4.71606E-18
4.38585E-04 3.99901E-18
4.75889E-04 3.41282E-18
5.14715E-04 2.92928E-18
5.55063E-04 2.52786E-18
5.96931E-04 2.19273E-18
6.40321E-04 1.91118E-18
6.85233E-04 1.67296E-18
7.31665E-04 1.47065E-18
7.79618E-04 1.29795E-18
8.29092E-04 1.14978E-18
8.80086E-04 1.02204E-18
9.32601E-04 9.11535E-19
9.86636E-04 8.15550E-19
1.04219E-03 7.31816E-19
1.09927E-03 6.58533E-19
1.15786E-03 5.94190E-19
1.21797E-03 5.37509E-19
1.27961E-03 4.87396E-19
1.34276E-03 4.42987E-19
1.40743E-03 4.03519E-19
1.47362E-03 3.68340E-19
1.54133E-03 3.36903E-19
1.61056E-03 3.08747E-19
1.68131E-03 2.83470E-19
1.75357E-03 2.60718E-19
1.82735E-03 2.40201E-19
1.90265E-03 2.21661E-19
1.97947E-03 2.04874E-19
2.05780E-03 1.89640E-19
2.13765E-03 1.75794E-19
2.21902E-03 1.63188E-19
2.30190E-03 1.51689E-19
2.38630E-03 1.41182E-19
2.47222E-03 1.31568E-19
2.55965E-03 1.22757E-19
2.64859E-03 1.14668E-19
2.73905E-03 1.07234E-19
2.83103E-03 1.00391E-19
2.92452E-03 9.40837E-20
3.01952E-03 8.82620E-20
3.11604E-03 8.28827E-20
3.21407E-03 7.79061E-20
3.31362E-03 7.32959E-20
3.41468E-03 6.90204E-20
3.51725E-03 6.50514E-20
3.62133E-03 6.13628E-20
3.72692E-03 5.79305E-20
3.83403E-03 5.47342E-20
3.94265E-03 5.17546E-20
4.05278E-03 4.89742E-20
4.16442E-03 4.63771E-20
4.27757E-03 4.39493E-20
4.39223E-03 4.16777E-20
4.50840E-03 3.95502E-20
4.62608E-03 3.75562E-20
4.74527E-03 3.56858E-20
4.86597E-03 3.39299E-20
4.98817E-03 3.22800E-20
5.11188E-03 3.07288E-20
5.23711E-03 2.92693E-20
5.36383E-03 2.78949E-20
5.49207E-03 2.65998E-20
5.62181E-03 2.53787E-20
5.75306E-03 2.42266E-20
5.88581E-03 2.31387E-20
6.02007E-03 2.21108E-20
6.15583E-03 2.11391E-20
6.29310E-03 2.02200E-20
6.43187E-03 1.93499E-20
6.57214E-03 1.85259E-20
6.71392E-03 1.77451E-20
6.85720E-03 1.70047E-20
7.00198E-03 1.63024E-20
7.14827E-03 1.56357E-20
7.29605E-03 1.50026E-20
7.44534E-03 1.44009E-20
7.59612E-03 1.38290E-20
7.97965E-03 1.25179E-20
8.37255E-03 1.13577E-20
8.77480E-03 1.03281E-20
9.18641E-03 9.41185E-21
9.60736E-03 8.59441E-21
1.00376E-02 7.86327E-21
1.04773E-02 7.20777E-21
1.09262E-02 6.61874E-21
1.13844E-02 6.08828E-21
1.18520E-02 5.60956E-21
1.23288E-02 5.17668E-21
1.28150E-02 4.78447E-21
1.33104E-02 4.42846E-21
1.38150E-02 4.10472E-21
1.43290E-02 3.80982E-21
1.48521E-02 3.54073E-21
1.53845E-02 3.29483E-21
1.59262E-02 3.06976E-21
1.64770E-02 2.86342E-21
1.70371E-02 2.67400E-21
1.76063E-02 2.49988E-21
1.81848E-02 2.33958E-21
1.87724E-02 2.19183E-21
1.93692E-02 2.05547E-21
1.99751E-02 1.92946E-21
2.05901E-02 1.81288E-21
2.12143E-02 1.70490E-21
2.18476E-02 1.60478E-21
2.24900E-02 1.51184E-21
2.31415E-02 1.42547E-21
2.38021E-02 1.34512E-21
2.44717E-02 1.27031E-21
2.51504E-02 1.20058E-21
2.58382E-02 1.13553E-21
2.65349E-02 1.07479E-21
2.72407E-02 1.01801E-21
2.79555E-02 9.64902E-22
2.86793E-02 9.15178E-22
2.94120E-02 8.68586E-22
3.01537E-02 8.24892E-22
3.09043E-02 7.83885E-22
3.16639E-02 7.45370E-22
3.24324E-02 7.09169E-22
3.32098E-02 6.75115E-22
3.39961E-02 6.43061E-22
3.47912E-02 6.12868E-22
3.55952E-02 5.84407E-22
3.64081E-02 5.57562E-22
3.72297E-02 5.32225E-22
3.80602E-02 5.08296E-22
3.88995E-02 4.85682E-22
3.97476E-02 4.64298E-22
4.06044E-02 4.44065E-22
4.14700E-02 4.24909E-22
4.23443E-02 4.06765E-22
4.32273E-02 3.89567E-22
4.41190E-02 3.73258E-22
4.50194E-02 3.57785E-22
4.59284E-02 3.43095E-22
4.68461E-02 3.29142E-22
4.87074E-02 3.03278E-22
5.06030E-02 2.79876E-22
5.25328E-02 2.58662E-22
5.44967E-02 2.39396E-22
5.64946E-02 2.21870E-22
5.85262E-02 2.05899E-22
6.05914E-02 1.91321E-22
6.26901E-02 1.77994E-22
6.48222E-02 1.65793E-22
6.69873E-02 1.54606E-22
6.91854E-02 1.44334E-22
7.14163E-02 1.34889E-22
7.36799E-02 1.26193E-22
7.59760E-02 1.18177E-22
7.83043E-02 1.10778E-22
8.06647E-02 1.03941E-22
8.30571E-02 9.76152E-23
8.54812E-02 9.17561E-23
8.79369E-02 8.63233E-23
9.04240E-02 8.12802E-23
9.29422E-02 7.65942E-23
9.54915E-02 7.22355E-23
9.80716E-02 6.81774E-23
1.00682E-01 6.43954E-23
1.03323E-01 6.08676E-23
1.05995E-01 5.75738E-23
1.08696E-01 5.44960E-23
1.11427E-01 5.16173E-23
1.14188E-01 4.89228E-23
1.16978E-01 4.63984E-23
1.19797E-01 4.40318E-23
1.22645E-01 4.18111E-23
1.25522E-01 3.97260E-23
1.28428E-01 3.77666E-23
1.31361E-01 3.59241E-23
1.34323E-01 3.41904E-23
1.37313E-01 3.25577E-23
1.40330E-01 3.10193E-23
1.43375E-01 2.95687E-23
1.46447E-01 2.82001E-23
1.49545E-01 2.69079E-23
1.52671E-01 2.56872E-23
1.55823E-01 2.45334E-23
1.59001E-01 2.34421E-23
1.62205E-01 2.24093E-23
1.65435E-01 2.14315E-23
1.68690E-01 2.05051E-23
1.71970E-01 1.96269E-23
1.75276E-01 1.87941E-23
1.78606E-01 1.80038E-23
1.81961E-01 1.72535E-23
1.85340E-01 1.65408E-23
1.88743E-01 1.58636E-23
1.92169E-01 1.52197E-23
1.95619E-01 1.46073E-23
1.99092E-01 1.40244E-23
2.02589E-01 1.34695E-23
2.06107E-01 1.29410E-23
2.09649E-01 1.24374E-23
2.13212E-01 1.19572E-23
2.16797E-01 1.14993E-23
2.20404E-01 1.10625E-23
2.24032E-01 1.06455E-23
2.27680E-01 1.02473E-23
2.31350E-01 9.86695E-24
2.35040E-01 9.50350E-24
2.38751E-01 9.15607E-24
2.42481E-01 8.82382E-24
2.46231E-01 8.50597E-24
2.50000E-01 8.20180E-24
2.53788E-01 7.91059E-24
2.57595E-01 7.63172E-24
2.61421E-01 7.36456E-24
2.65264E-01 7.10855E-24
2.69126E-01 6.86314E-24
2.73005E-01 6.62781E-24
2.76901E-01 6.40208E-24
2.80814E-01 6.18549E-24
2.84744E-01 5.97760E-24
2.88691E-01 5.77800E-24
2.92653E-01 5.58630E-24
2.96632E-01 5.40214E-24
3.00625E-01 5.22518E-24
3.04634E-01 5.05507E-24
3.08658E-01 4.89151E-24
3.12697E-01 4.73422E-24
3.16749E-01 4.58290E-24
3.20816E-01 4.43728E-24
3.24896E-01 4.29713E-24
3.28990E-01 4.16219E-24
3.33097E-01 4.03224E-24
3.37216E-01 3.90706E-24
3.41348E-01 3.78645E-24
3.45492E-01 3.67021E-24
3.49647E-01 3.55816E-24
3.53814E-01 3.45012E-24
3.57992E-01 3.34592E-24
3.62181E-01 3.24541E-24
3.66381E-01 3.14843E-24
3.70590E-01 3.05484E-24
3.74810E-01 2.96449E-24
3.79039E-01 2.87726E-24
3.83277E-01 2.79302E-24
3.87524E-01 2.71164E-24
3.91780E-01 2.63302E-24
3.96044E-01 2.55705E-24
4.00316E-01 2.48363E-24
4.04596E-01 2.41264E-24
4.08882E-01 2.34401E-24
4.13176E-01 2.27764E-24
4.17476E-01 2.21343E-24
4.21783E-01 2.15132E-24
4.26095E-01 2.09121E-24
4.30413E-01 2.03303E-24
4.34737E-01 1.97672E-24
4.39065E-01 1.92219E-24
4.43398E-01 1.86939E-24
4.47736E-01 1.81826E-24
4.52077E-01 1.76872E-24
4.56422E-01 1.72072E-24
4.60770E-01 1.67422E-24
4.65122E-01 1.62914E-24
4.69476E-01 1.58545E-24
4.73832E-01 1.54308E-24
4.78190E-01 1.50200E-24
4.82550E-01 1.46216E-24
4.86912E-01 1.42352E-24
4.91274E-01 1.38603E-24
4.95637E-01 1.34965E-24
5.00000E-01 1.31435E-24
5.04363E-01 1.28009E-24
5.08726E-01 1.24683E-24
5.13088E-01 1.21454E-24
5.17450E-01 1.18319E-24
5.21810E-01 1.15274E-24
5.26168E-01 1.12316E-24
5.30524E-01 1.09444E-24
5.34878E-01 1.06652E-24
5.39230E-01 1.03940E-24
5.43578E-01 1.01304E-24
5.47923E-01 9.87424E-25
5.52264E-01 9.62522E-25
5.56602E-01 9.38311E-25
5.60935E-01 9.14772E-25
5.65263E-01 8.91882E-25
5.69587E-01 8.69619E-25
5.73905E-01 8.47965E-25
5.78217E-01 8.26900E-25
5.82524E-01 8.06405E-25
5.86824E-01 7.86462E-25
5.91118E-01 7.67054E-25
5.95404E-01 7.48165E-25
5.99684E-01 7.29778E-25
6.03956E-01 7.11880E-25
6.08220E-01 6.94454E-25
6.12476E-01 6.77487E-25
6.16723E-01 6.60964E-25
6.20961E-01 6.44874E-25
6.25190E-01 6.29201E-25
6.29410E-01 6.13934E-25
6.33619E-01 5.99061E-25
6.37819E-01 5.84569E-25
6.42008E-01 5.70448E-25
6.46186E-01 5.56685E-25
6.50353E-01 5.43273E-25
6.54508E-01 5.30199E-25
6.58652E-01 5.17456E-25
6.62784E-01 5.05034E-25
6.66903E-01 4.92923E-25
6.71010E-01 4.81115E-25
6.75104E-01 4.69600E-25
6.79184E-01 4.58369E-25
6.83251E-01 4.47415E-25
6.87303E-01 4.36731E-25
6.91342E-01 4.26308E-25
6.95366E-01 4.16140E-25
6.99375E-01 4.06220E-25
7.03368E-01 3.96540E-25
7.07347E-01 3.87096E-25
7.11309E-01 3.77879E-25
7.15256E-01 3.68884E-25
7.19186E-01 3.60104E-25
7.23099E-01 3.51535E-25
7.26995E-01 3.43170E-25
7.30874E-01 3.35003E-25
7.34736E-01 3.27031E-25
7.38579E-01 3.19246E-25
7.42405E-01 3.11645E-25
7.46212E-01 3.04222E-25
7.50000E-01 2.96974E-25
7.53769E-01 2.89895E-25
7.57519E-01 2.82981E-25
7.61249E-01 2.76228E-25
7.64960E-01 2.69632E-25
7.68650E-01 2.63189E-25
7.72320E-01 2.56894E-25
7.75968E-01 2.50745E-25
7.79596E-01 2.44737E-25
7.83203E-01 2.38867E-25
7.86788E-01 2.33132E-25
7.90351E-01 2.27528E-25
7.93893E-01 2.22051E-25
7.97411E-01 2.16699E-25
8.00908E-01 2.11469E-25
8.04381E-01 2.06358E-25
8.07831E-01 2.01362E-25
8.11257E-01 1.96480E-25
8.14660E-01 1.91708E-25
8.18039E-01 1.87043E-25
8.21394E-01 1.82484E-25
8.24724E-01 1.78027E-25
8.28030E-01 1.73671E-25
8.31310E-01 1.69412E-25
8.34565E-01 1.65249E-25
8.37795E-01 1.61179E-25
8.40999E-01 1.57201E-25
8.44177E-01 1.53312E-25
8.47329E-01 1.49509E-25
8.50455E-01 1.45792E-25
8.53553E-01 1.42158E-25
8.56625E-01 1.38605E-25
8.59670E-01 1.35132E-25
8.62687E-01 1.31737E-25
8.65677E-01 1.28417E-25
8.68639E-01 1.25172E-25
8.71572E-01 1.21999E-25
8.74478E-01 1.18898E-25
8.77355E-01 1.15866E-25
8.80203E-01 1.12902E-25
8.83022E-01 1.10004E-25
8.85812E-01 1.07172E-25
8.88573E-01 1.04404E-25
8.91304E-01 1.01698E-25
8.94005E-01 9.90538E-26
8.96677E-01 9.64691E-26
8.99318E-01 9.39432E-26
9.01928E-01 9.14747E-26
9.04508E-01 8.90626E-26
9.07058E-01 8.67056E-26
9.09576E-01 8.44028E-26
9.12063E-01 8.21529E-26
9.14519E-01 7.99551E-26
9.16943E-01 7.78082E-26
9.19335E-01 7.57113E-26
9.21696E-01 7.36634E-26
9.24024E-01 7.16636E-26
9.26320E-01 6.97109E-26
9.28584E-01 6.78046E-26
9.30815E-01 6.59437E-26
9.33013E-01 6.41275E-26
9.35178E-01 6.23550E-26
9.37310E-01 6.06256E-26
9.39409E-01 5.89384E-26
9.41474E-01 5.72928E-26
9.43505E-01 5.56879E-26
9.45503E-01 5.41232E-26
9.47467E-01 5.25978E-26
9.49397E-01 5.11112E-26
9.51293E-01 4.96627E-26
9.53154E-01 4.82517E-26
9.54981E-01 4.68775E-26
9.56773E-01 4.55397E-26
9.58530E-01 4.42375E-26
9.60252E-01 4.29705E-26
9.61940E-01 4.17382E-26
9.63592E-01 4.05399E-26
9.65209E-01 3.93753E-26
9.66790E-01 3.82438E-26
9.68336E-01 3.71449E-26
9.69846E-01 3.60782E-26
9.71321E-01 3.50432E-26
9.72759E-01 3.40395E-26
9.74162E-01 3.30667E-26
9.75528E-01 3.21244E-26
9.76858E-01 3.12122E-26
9.78152E-01 3.03298E-26
9.79410E-01 2.94767E-26
9.80631E-01 2.86526E-26
9.81815E-01 2.78572E-26
9.82963E-01 2.70901E-26
9.84074E-01 2.63511E-26
9.85148E-01 2.56399E-26
9.86185E-01 2.49561E-26
9.87185E-01 2.42995E-26
9.88148E-01 2.36698E-26
9.89074E-01 2.30668E-26
9.89962E-01 2.24902E-26
9.90814E-01 2.19398E-26
9.91627E-01 2.14153E-26
9.92404E-01 2.09166E-26
9.93143E-01 2.04435E-26
9.93844E-01 1.99958E-26
9.94508E-01 1.95733E-26
9.95134E-01 1.91758E-26
9.95722E-01 1.88031E-26
9.96273E-01 1.84552E-26
9.96786E-01 1.81319E-26
9.97261E-01 1.78330E-26
9.97698E-01 1.75585E-26
9.98097E-01 1.73082E-26
9.98459E-01 1.70820E-26
9.98782E-01 1.68799E-26
9.99067E-01 1.67018E-26
9.99315E-01 1.65475E-26
9.99524E-01 1.64171E-26
9.99695E-01 1.63105E-26
9.99829E-01 1.62276E-26
9.99924E-01 1.61684E-26
9.99981E-01 1.61329E-26
1.00000E+00 1.61210E-26
