 #  Total cross section table (last run of 'elscata').
 #
 #  Z =  51,   projectile: positron
 #
 #   Energy         ECS         TCS1         TCS2         ABSCS      error
 #    (eV)        (cm**2)      (cm**2)      (cm**2)      (cm**2)
 #--------------------------------------------------------------------------
   1.00000E+02  3.34153E-16  5.15339E-17  8.31444E-17  7.50534E-16  2.7E-05
   1.25000E+02  3.23621E-16  4.80234E-17  7.99534E-17  6.45083E-16  9.1E-06
   1.50000E+02  3.16515E-16  4.55308E-17  7.70915E-17  5.67185E-16  2.7E-05
   1.75000E+02  3.10221E-16  4.31663E-17  7.39645E-17  5.07157E-16  3.2E-05
   2.00000E+02  3.04462E-16  4.09957E-17  7.08651E-17  4.59346E-16  2.0E-05
   2.50000E+02  2.93913E-16  3.71823E-17  6.50874E-17  3.87793E-16  3.4E-05
   3.00000E+02  2.84317E-16  3.39879E-17  6.00505E-17  3.36587E-16  1.4E-05
   3.50000E+02  2.75505E-16  3.12849E-17  5.57124E-17  2.97989E-16  3.5E-05
   4.00000E+02  2.67378E-16  2.89639E-17  5.19567E-17  2.67782E-16  3.6E-05
   4.50000E+02  2.59876E-16  2.69500E-17  4.86830E-17  2.43447E-16  2.0E-05
   5.00000E+02  2.52949E-16  2.51879E-17  4.58103E-17  2.23381E-16  6.3E-06
   6.00000E+02  2.40585E-16  2.22487E-17  4.09990E-17  1.92157E-16  3.4E-05
   7.00000E+02  2.29877E-16  1.98923E-17  3.71161E-17  1.68908E-16  3.5E-06
   8.00000E+02  2.20535E-16  1.79695E-17  3.39202E-17  1.50849E-16  2.1E-05
   9.00000E+02  2.12307E-16  1.63745E-17  3.12420E-17  1.36372E-16  4.2E-06
   1.00000E+03  2.05007E-16  1.50381E-17  2.89715E-17  1.24472E-16  4.9E-06
   1.25000E+03  1.89835E-16  1.25021E-17  2.45676E-17  1.02211E-16  2.8E-03
   1.50000E+03  1.77716E-16  1.07008E-17  2.13391E-17  8.67067E-17  3.9E-03
   1.75000E+03  1.67610E-16  9.33361E-18  1.88243E-17  7.53088E-17  2.7E-03
   2.00000E+03  1.58958E-16  8.25489E-18  1.67981E-17  6.65852E-17  2.6E-03
   2.50000E+03  1.44752E-16  6.66234E-18  1.37375E-17  5.41158E-17  3.3E-03
   3.00000E+03  1.33449E-16  5.54787E-18  1.15493E-17  4.56296E-17  2.8E-03
   3.50000E+03  1.24164E-16  4.72683E-18  9.91647E-18  3.94777E-17  2.0E-03
   4.00000E+03  1.16358E-16  4.09808E-18  8.65599E-18  3.48112E-17  3.3E-03
   4.50000E+03  1.09679E-16  3.60215E-18  7.65609E-18  3.11481E-17  8.0E-03
   5.00000E+03  1.03881E-16  3.20155E-18  6.84465E-18  2.81952E-17  8.6E-03
   6.00000E+03  9.42775E-17  2.59656E-18  5.61149E-18  2.37243E-17  4.2E-03
   7.00000E+03  8.66071E-17  2.16385E-18  4.72182E-18  2.04963E-17  8.7E-03
   8.00000E+03  8.03099E-17  1.84106E-18  4.05224E-18  1.80540E-17  7.4E-03
   9.00000E+03  7.50273E-17  1.59225E-18  3.53159E-18  1.61408E-17  8.8E-03
   1.00000E+04  7.05180E-17  1.39530E-18  3.11599E-18  1.46015E-17  4.8E-03
   1.25000E+04  6.20082E-17  1.04741E-18  2.37288E-18  1.18124E-17  4.0E-07
   1.50000E+04  5.53184E-17  8.22563E-19  1.88494E-18  9.94071E-18  4.1E-07
   1.75000E+04  5.01291E-17  6.67172E-19  1.54340E-18  8.59776E-18  5.3E-07
   2.00000E+04  4.59666E-17  5.54490E-19  1.29310E-18  7.58739E-18  4.3E-07
   2.50000E+04  3.96679E-17  4.04116E-19  9.54960E-19  6.16823E-18  4.8E-07
   3.00000E+04  3.50989E-17  3.10092E-19  7.40612E-19  5.21913E-18  1.0E-07
   3.50000E+04  3.16160E-17  2.46855E-19  5.94845E-19  4.53962E-18  1.0E-07
   4.00000E+04  2.88643E-17  2.02024E-19  4.90539E-19  4.02938E-18  1.7E-07
   4.50000E+04  2.66308E-17  1.68945E-19  4.12953E-19  3.63195E-18  4.2E-07
   5.00000E+04  2.47789E-17  1.43756E-19  3.53456E-19  3.31393E-18  1.0E-07
   6.00000E+04  2.18804E-17  1.08384E-19  2.69175E-19  2.83648E-18  1.0E-07
   7.00000E+04  1.97118E-17  8.51376E-20  2.13217E-19  2.49539E-18  1.0E-07
   8.00000E+04  1.80257E-17  6.89630E-20  1.73948E-19  2.23965E-18  2.2E-06
   9.00000E+04  1.66762E-17  5.72120E-20  1.45211E-19  2.04086E-18  1.3E-06
   1.00000E+05  1.55713E-17  4.83805E-20  1.23476E-19  1.88198E-18  1.0E-07
   1.25000E+05  1.35226E-17  3.38865E-20  8.74886E-20  1.59649E-18  3.6E-06
   1.50000E+05  1.21128E-17  2.53300E-20  6.60071E-20  1.40694E-18  2.0E-05
   1.75000E+05  1.10843E-17  1.98170E-20  5.20412E-20  1.27205E-18  7.6E-05
   2.00000E+05  1.03020E-17  1.60347E-20  4.23868E-20  1.17133E-18  2.2E-04
   2.50000E+05  9.19357E-18  1.12831E-20  3.01481E-20  1.03107E-18  1.2E-03
   3.00000E+05  8.44916E-18  8.49103E-21  2.28798E-20  9.37744E-19  4.3E-03
   3.50000E+05  7.91745E-18  6.69184E-21  1.81553E-20  8.70268E-19  1.2E-02
   4.00000E+05  7.52051E-18  5.45393E-21  1.48806E-20  8.27178E-19  3.4E-06
   4.50000E+05  7.21417E-18  4.55936E-21  1.24991E-20  7.90507E-19  3.9E-06
   5.00000E+05  6.97152E-18  3.88788E-21  1.07015E-20  7.61650E-19  1.0E-07
   6.00000E+05  6.61377E-18  2.95641E-21  8.19096E-21  7.19375E-19  1.0E-07
   7.00000E+05  6.36501E-18  2.34845E-21  6.53942E-21  6.90133E-19  4.1E-07
   8.00000E+05  6.18380E-18  1.92499E-21  5.38171E-21  6.68988E-19  1.0E-07
   9.00000E+05  6.04708E-18  1.61556E-21  4.53129E-21  6.53079E-19  1.0E-07
   1.00000E+06  5.94107E-18  1.38100E-21  3.88381E-21  6.40766E-19  1.0E-07
   1.25000E+06  5.78848E-18  9.99512E-22  2.82498E-21  0.00000E+00  1.0E-05
   1.50000E+06  5.66898E-18  7.58562E-22  2.15160E-21  0.00000E+00  1.0E-05
   1.75000E+06  5.59014E-18  5.99564E-22  1.70514E-21  0.00000E+00  1.0E-05
   2.00000E+06  5.53508E-18  4.88132E-22  1.39111E-21  0.00000E+00  1.0E-05
   2.50000E+06  5.46542E-18  3.44636E-22  9.85189E-22  0.00000E+00  1.0E-05
   3.00000E+06  5.42454E-18  2.58121E-22  7.39501E-22  0.00000E+00  1.0E-05
   3.50000E+06  5.39790E-18  2.01461E-22  5.78148E-22  0.00000E+00  1.0E-05
   4.00000E+06  5.38061E-18  1.62120E-22  4.65877E-22  0.00000E+00  1.0E-05
   4.50000E+06  5.36475E-18  1.33576E-22  3.84281E-22  0.00000E+00  1.0E-05
   5.00000E+06  5.36641E-18  1.12199E-22  3.23094E-22  0.00000E+00  1.0E-05
   6.00000E+06  5.34610E-18  8.26255E-23  2.38298E-22  0.00000E+00  1.0E-05
   7.00000E+06  5.33742E-18  6.36034E-23  1.83662E-22  0.00000E+00  1.0E-05
   8.00000E+06  5.33321E-18  5.05954E-23  1.46250E-22  0.00000E+00  1.0E-05
   9.00000E+06  5.33009E-18  4.12818E-23  1.19432E-22  0.00000E+00  1.0E-05
   1.00000E+07  5.32728E-18  3.43706E-23  9.95129E-23  0.00000E+00  1.0E-05
   1.25000E+07  5.32355E-18  2.32341E-23  6.73756E-23  0.00000E+00  1.0E-05
   1.50000E+07  5.32079E-18  1.68152E-23  4.88239E-23  0.00000E+00  1.0E-05
   1.75000E+07  5.31888E-18  1.27645E-23  3.71032E-23  0.00000E+00  1.0E-05
   2.00000E+07  5.31790E-18  1.00382E-23  2.92071E-23  0.00000E+00  1.0E-05
   2.50000E+07  5.31749E-18  6.69805E-24  1.95231E-23  0.00000E+00  1.0E-05
   3.00000E+07  5.31852E-18  4.79927E-24  1.40113E-23  0.00000E+00  1.0E-05
   3.50000E+07  5.31761E-18  3.61295E-24  1.05642E-23  0.00000E+00  1.0E-05
   4.00000E+07  5.31712E-18  2.82063E-24  8.26003E-24  0.00000E+00  1.0E-05
   4.50000E+07  5.31835E-18  2.26424E-24  6.64064E-24  0.00000E+00  1.0E-05
   5.00000E+07  5.31449E-18  1.85805E-24  5.45740E-24  0.00000E+00  1.0E-05
   6.00000E+07  5.31427E-18  1.31625E-24  3.87718E-24  0.00000E+00  1.0E-05
   7.00000E+07  5.31669E-18  9.80757E-25  2.89673E-24  0.00000E+00  1.0E-05
   8.00000E+07  5.31683E-18  7.58506E-25  2.24572E-24  0.00000E+00  1.0E-05
   9.00000E+07  5.31691E-18  6.03766E-25  1.79131E-24  0.00000E+00  1.0E-05
   1.00000E+08  5.31766E-18  4.91791E-25  1.46164E-24  0.00000E+00  1.0E-05
   1.25000E+08  5.31746E-18  3.17639E-25  9.46957E-25  0.00000E+00  1.0E-05
   1.50000E+08  5.31672E-18  2.21796E-25  6.62437E-25  0.00000E+00  1.0E-05
   1.75000E+08  5.31613E-18  1.63545E-25  4.89019E-25  0.00000E+00  1.0E-05
   2.00000E+08  5.31593E-18  1.25535E-25  3.75649E-25  0.00000E+00  1.0E-05
   2.50000E+08  5.31653E-18  8.06165E-26  2.41455E-25  0.00000E+00  8.3E-05
   3.00000E+08  5.31711E-18  5.61062E-26  1.68128E-25  0.00000E+00  6.7E-05
   3.50000E+08  5.31669E-18  4.12818E-26  1.23742E-25  0.00000E+00  1.5E-04
   4.00000E+08  5.31583E-18  3.16400E-26  9.48596E-26  0.00000E+00  2.9E-04
   4.50000E+08  5.31596E-18  2.50190E-26  7.50192E-26  0.00000E+00  1.0E+00
   5.00000E+08  5.31159E-18  2.02770E-26  6.08063E-26  0.00000E+00  1.0E+00
   6.00000E+08  5.30843E-18  1.40936E-26  4.22688E-26  0.00000E+00  1.0E+00
   7.00000E+08  5.30640E-18  1.03616E-26  3.10784E-26  0.00000E+00  1.0E+00
   8.00000E+08  5.29957E-18  7.93721E-27  2.38079E-26  0.00000E+00  1.0E+00
   9.00000E+08  5.29047E-18  6.27428E-27  1.88205E-26  0.00000E+00  1.0E+00
   1.00000E+09  5.27907E-18  5.08449E-27  1.52519E-26  0.00000E+00  1.0E+00
