 #
 # Subroutine ELSEPA. Elastic scattering of electrons and positrons
 #                    by neutral atoms and positive ions
 #
 # Projectile: electron
 # Kinetic energy = 9.00000E+07 eV = 3.30744E+06 a.u.
 #
 # WARNING: High-energy factorization with free-atom DF screening.
 #          Absorption, polarization and exchange corrections are
 #          switched off.
 #          Phase shifts are calculated for the bare nucleus.
 #          Scattering amplitudes are not evaluated.
 #
 # Element: Hf,  Z =  72,  atomic weight = 1.78490E+02 g/mol
 #
 # Nuclear model: Fermi distribution
 #                Average radius = 6.02451E-13 cm
 #                Skin thickness = 5.46000E-14 cm
 #
 # Number of electrons = 72
 #
 # Total elastic cross section = 7.31560E-18 cm**2 = 2.61245E-01 a0**2
 # 1st transport cross section = 1.21662E-24 cm**2 = 4.34464E-08 a0**2
 # 2nd transport cross section = 3.61556E-24 cm**2 = 1.29114E-07 a0**2
 #
 #
 # Differential cross section:                       MU=(1-COS(THETA))/2
 #
 #  THETA        MU          DCS          DCS        Sherman      error
 #  (deg)                 (cm**2/sr)   (a0**2/sr)    function
 #----------------------------------------------------------------------
0.00000E+00 5.17612E-10
7.61557E-13 5.16249E-10
1.18994E-12 5.15487E-10
1.71346E-12 5.14559E-10
2.33225E-12 5.13465E-10
3.04617E-12 5.12209E-10
3.85530E-12 5.10791E-10
4.75964E-12 5.09215E-10
5.75917E-12 5.07482E-10
6.85391E-12 5.05595E-10
8.04379E-12 5.03557E-10
9.32893E-12 5.01372E-10
1.07092E-11 4.99043E-10
1.21847E-11 4.96573E-10
1.37554E-11 4.93967E-10
1.54213E-11 4.91227E-10
1.71823E-11 4.88358E-10
1.90386E-11 4.85365E-10
2.09900E-11 4.82251E-10
2.30367E-11 4.79021E-10
2.51785E-11 4.75680E-10
2.74156E-11 4.72232E-10
2.97478E-11 4.68672E-10
3.21752E-11 4.65015E-10
3.46979E-11 4.61270E-10
3.73157E-11 4.57443E-10
4.00286E-11 4.53539E-10
4.28368E-11 4.49563E-10
4.57402E-11 4.45496E-10
4.87388E-11 4.41354E-10
5.18325E-11 4.37156E-10
5.50215E-11 4.32906E-10
5.83057E-11 4.28609E-10
6.16850E-11 4.24270E-10
6.51595E-11 4.19867E-10
6.87293E-11 4.15416E-10
7.23943E-11 4.10937E-10
7.61544E-11 4.06435E-10
1.18991E-10 3.60624E-10
1.71347E-10 3.15786E-10
2.33223E-10 2.74320E-10
3.04617E-10 2.37512E-10
3.85531E-10 2.05682E-10
4.75965E-10 1.78609E-10
5.75917E-10 1.55803E-10
6.85389E-10 1.36634E-10
8.04380E-10 1.20506E-10
9.32891E-10 1.06892E-10
1.07092E-09 9.53095E-11
1.21847E-09 8.53977E-11
1.37554E-09 7.68622E-11
1.54213E-09 6.94317E-11
1.71823E-09 6.29391E-11
1.90386E-09 5.72327E-11
2.09900E-09 5.21659E-11
2.30367E-09 4.76665E-11
2.51785E-09 4.36498E-11
2.74156E-09 4.00388E-11
2.97478E-09 3.65759E-11
3.21752E-09 3.34906E-11
3.46978E-09 3.08094E-11
3.73156E-09 2.84683E-11
4.00286E-09 2.64148E-11
4.28368E-09 2.46057E-11
4.57402E-09 2.27704E-11
4.87388E-09 2.10502E-11
5.18326E-09 1.95278E-11
5.50215E-09 1.81755E-11
5.83057E-09 1.69700E-11
6.16850E-09 1.58918E-11
6.51596E-09 1.48269E-11
6.87293E-09 1.38169E-11
7.23942E-09 1.29099E-11
7.61544E-09 1.20929E-11
1.18991E-08 6.62702E-12
1.71347E-08 3.90747E-12
2.33223E-08 2.42443E-12
3.04617E-08 1.57238E-12
3.85531E-08 1.05691E-12
4.75965E-08 7.34446E-13
5.75917E-08 5.26558E-13
6.85389E-08 3.88083E-13
8.04380E-08 2.92662E-13
9.32891E-08 2.25443E-13
1.07092E-07 1.76832E-13
1.21847E-07 1.40823E-13
1.37554E-07 1.13593E-13
1.54213E-07 9.26133E-14
1.71823E-07 7.62701E-14
1.90386E-07 6.33881E-14
2.09900E-07 5.31033E-14
2.30367E-07 4.48191E-14
2.51785E-07 3.80803E-14
2.74156E-07 3.25506E-14
2.97478E-07 2.79669E-14
3.21752E-07 2.41793E-14
3.46978E-07 2.10176E-14
3.73156E-07 1.83420E-14
4.00286E-07 1.60933E-14
4.28368E-07 1.41647E-14
4.57402E-07 1.25228E-14
4.87388E-07 1.11117E-14
5.18325E-07 9.89194E-15
5.50215E-07 8.83947E-15
5.83057E-07 7.91799E-15
6.16850E-07 7.11679E-15
6.51596E-07 6.41328E-15
6.87293E-07 5.79472E-15
7.23942E-07 5.25009E-15
7.61543E-07 4.76647E-15
1.18991E-06 2.02854E-15
1.71347E-06 1.00448E-15
2.33223E-06 5.52598E-16
3.04617E-06 3.28451E-16
3.85531E-06 2.07177E-16
4.75964E-06 1.37009E-16
5.75916E-06 9.41688E-17
6.85388E-06 6.68329E-17
8.04378E-06 4.87339E-17
9.32888E-06 3.63684E-17
1.07092E-05 2.76889E-17
1.21846E-05 2.14521E-17
1.37553E-05 1.68773E-17
1.54212E-05 1.34602E-17
1.71822E-05 1.08661E-17
1.90385E-05 8.86349E-18
2.09899E-05 7.30992E-18
2.30365E-05 6.08146E-18
2.51783E-05 5.09925E-18
2.74153E-05 4.30653E-18
2.97475E-05 3.66152E-18
3.21749E-05 3.13288E-18
3.46974E-05 2.69653E-18
3.73152E-05 2.33391E-18
4.00281E-05 2.03049E-18
4.28362E-05 1.77493E-18
4.57395E-05 1.55834E-18
4.87380E-05 1.37372E-18
5.18317E-05 1.21557E-18
5.50205E-05 1.07948E-18
5.83045E-05 9.61882E-19
6.16838E-05 8.59882E-19
6.51582E-05 7.71080E-19
6.87277E-05 6.93481E-19
7.23925E-05 6.25423E-19
7.61524E-05 5.65769E-19
9.21439E-05 3.87264E-19
1.09658E-04 2.73941E-19
1.28695E-04 1.99242E-19
1.49255E-04 1.48362E-19
1.71338E-04 1.12755E-19
1.94942E-04 8.72265E-20
2.20070E-04 6.85399E-20
2.46720E-04 5.46069E-20
2.74892E-04 4.40462E-20
3.04586E-04 3.59240E-20
3.35803E-04 2.95940E-20
3.68542E-04 2.46016E-20
4.02802E-04 2.06213E-20
4.38585E-04 1.74162E-20
4.75889E-04 1.48119E-20
5.14715E-04 1.26780E-20
5.55063E-04 1.09160E-20
5.96931E-04 9.45065E-21
6.40321E-04 8.22391E-21
6.85233E-04 7.19056E-21
7.31665E-04 6.31511E-21
7.79618E-04 5.56938E-21
8.29092E-04 4.93097E-21
8.80086E-04 4.38182E-21
9.32601E-04 3.90733E-21
9.86636E-04 3.49562E-21
1.04219E-03 3.13697E-21
1.09927E-03 2.82335E-21
1.15786E-03 2.54814E-21
1.21797E-03 2.30580E-21
1.27961E-03 2.09174E-21
1.34276E-03 1.90207E-21
1.40743E-03 1.73351E-21
1.47362E-03 1.58331E-21
1.54133E-03 1.44911E-21
1.61056E-03 1.32890E-21
1.68131E-03 1.22096E-21
1.75357E-03 1.12382E-21
1.82735E-03 1.03619E-21
1.90265E-03 9.56988E-22
1.97947E-03 8.85246E-22
2.05780E-03 8.20136E-22
2.13765E-03 7.60934E-22
2.21902E-03 7.07005E-22
2.30190E-03 6.57794E-22
2.38630E-03 6.12812E-22
2.47222E-03 5.71630E-22
2.55965E-03 5.33866E-22
2.64859E-03 4.99186E-22
2.73905E-03 4.67290E-22
2.83103E-03 4.37914E-22
2.92452E-03 4.10822E-22
3.01952E-03 3.85803E-22
3.11604E-03 3.62671E-22
3.21407E-03 3.41248E-22
3.31362E-03 3.21388E-22
3.41468E-03 3.02958E-22
3.51725E-03 2.85835E-22
3.62133E-03 2.69910E-22
3.72692E-03 2.55082E-22
3.83403E-03 2.41262E-22
3.94265E-03 2.28368E-22
4.05278E-03 2.16327E-22
4.16442E-03 2.05071E-22
4.27757E-03 1.94539E-22
4.39223E-03 1.84677E-22
4.50840E-03 1.75433E-22
4.62608E-03 1.66762E-22
4.74527E-03 1.58620E-22
4.86597E-03 1.50971E-22
4.98817E-03 1.43777E-22
5.11188E-03 1.37007E-22
5.23711E-03 1.30631E-22
5.36383E-03 1.24622E-22
5.49207E-03 1.18955E-22
5.62181E-03 1.13606E-22
5.75306E-03 1.08554E-22
5.88581E-03 1.03780E-22
6.02007E-03 9.92649E-23
6.15583E-03 9.49925E-23
6.29310E-03 9.09471E-23
6.43187E-03 8.71143E-23
6.57214E-03 8.34808E-23
6.71392E-03 8.00342E-23
6.85720E-03 7.67632E-23
7.00198E-03 7.36570E-23
7.14827E-03 7.07057E-23
7.29605E-03 6.79002E-23
7.44534E-03 6.52318E-23
7.59612E-03 6.26925E-23
7.97965E-03 5.68617E-23
8.37255E-03 5.16893E-23
8.77480E-03 4.70879E-23
9.18641E-03 4.29832E-23
9.60736E-03 3.93122E-23
1.00376E-02 3.60210E-23
1.04773E-02 3.30632E-23
1.09262E-02 3.03992E-23
1.13844E-02 2.79945E-23
1.18520E-02 2.58195E-23
1.23288E-02 2.38483E-23
1.28150E-02 2.20584E-23
1.33104E-02 2.04302E-23
1.38150E-02 1.89465E-23
1.43290E-02 1.75923E-23
1.48521E-02 1.63541E-23
1.53845E-02 1.52204E-23
1.59262E-02 1.41808E-23
1.64770E-02 1.32260E-23
1.70371E-02 1.23480E-23
1.76063E-02 1.15394E-23
1.81848E-02 1.07940E-23
1.87724E-02 1.01057E-23
1.93692E-02 9.46962E-24
1.99751E-02 8.88098E-24
2.05901E-02 8.33566E-24
2.12143E-02 7.82994E-24
2.18476E-02 7.36044E-24
2.24900E-02 6.92412E-24
2.31415E-02 6.51825E-24
2.38021E-02 6.14035E-24
2.44717E-02 5.78815E-24
2.51504E-02 5.45962E-24
2.58382E-02 5.15290E-24
2.65349E-02 4.86631E-24
2.72407E-02 4.59831E-24
2.79555E-02 4.34749E-24
2.86793E-02 4.11258E-24
2.94120E-02 3.89239E-24
3.01537E-02 3.68586E-24
3.09043E-02 3.49201E-24
3.16639E-02 3.30993E-24
3.24324E-02 3.13880E-24
3.32098E-02 2.97785E-24
3.39961E-02 2.82638E-24
3.47912E-02 2.68376E-24
3.55952E-02 2.54937E-24
3.64081E-02 2.42268E-24
3.72297E-02 2.30317E-24
3.80602E-02 2.19039E-24
3.88995E-02 2.08388E-24
3.97476E-02 1.98326E-24
4.06044E-02 1.88814E-24
4.14700E-02 1.79819E-24
4.23443E-02 1.71308E-24
4.32273E-02 1.63251E-24
4.41190E-02 1.55622E-24
4.50194E-02 1.48393E-24
4.59284E-02 1.41541E-24
4.68461E-02 1.35043E-24
4.87074E-02 1.23030E-24
5.06030E-02 1.12202E-24
5.25328E-02 1.02428E-24
5.44967E-02 9.35920E-25
5.64946E-02 8.55940E-25
5.85262E-02 7.83449E-25
6.05914E-02 7.17666E-25
6.26901E-02 6.57898E-25
6.48222E-02 6.03537E-25
6.69873E-02 5.54039E-25
6.91854E-02 5.08925E-25
7.14163E-02 4.67766E-25
7.36799E-02 4.30181E-25
7.59760E-02 3.95830E-25
7.83043E-02 3.64407E-25
8.06647E-02 3.35641E-25
8.30571E-02 3.09287E-25
8.54812E-02 2.85126E-25
8.79369E-02 2.62959E-25
9.04240E-02 2.42608E-25
9.29422E-02 2.23913E-25
9.54915E-02 2.06730E-25
9.80716E-02 1.90926E-25
1.00682E-01 1.76384E-25
1.03323E-01 1.62996E-25
1.05995E-01 1.50664E-25
1.08696E-01 1.39300E-25
1.11427E-01 1.28823E-25
1.14188E-01 1.19161E-25
1.16978E-01 1.10245E-25
1.19797E-01 1.02016E-25
1.22645E-01 9.44176E-26
1.25522E-01 8.73997E-26
1.28428E-01 8.09156E-26
1.31361E-01 7.49232E-26
1.34323E-01 6.93835E-26
1.37313E-01 6.42610E-26
1.40330E-01 5.95233E-26
1.43375E-01 5.51404E-26
1.46447E-01 5.10848E-26
1.49545E-01 4.73316E-26
1.52671E-01 4.38574E-26
1.55823E-01 4.06410E-26
1.59001E-01 3.76628E-26
1.62205E-01 3.49048E-26
1.65435E-01 3.23505E-26
1.68690E-01 2.99844E-26
1.71970E-01 2.77926E-26
1.75276E-01 2.57620E-26
1.78606E-01 2.38805E-26
1.81961E-01 2.21372E-26
1.85340E-01 2.05218E-26
1.88743E-01 1.90249E-26
1.92169E-01 1.76376E-26
1.95619E-01 1.63520E-26
1.99092E-01 1.51605E-26
2.02589E-01 1.40563E-26
2.06107E-01 1.30330E-26
2.09649E-01 1.20846E-26
2.13212E-01 1.12057E-26
2.16797E-01 1.03912E-26
2.20404E-01 9.63640E-27
2.24032E-01 8.93695E-27
2.27680E-01 8.28882E-27
2.31350E-01 7.68827E-27
2.35040E-01 7.13183E-27
2.38751E-01 6.61630E-27
2.42481E-01 6.13869E-27
2.46231E-01 5.69624E-27
2.50000E-01 5.28638E-27
2.53788E-01 4.90675E-27
2.57595E-01 4.55514E-27
2.61421E-01 4.22950E-27
2.65264E-01 3.92794E-27
2.69126E-01 3.64869E-27
2.73005E-01 3.39012E-27
2.76901E-01 3.15071E-27
2.80814E-01 2.92907E-27
2.84744E-01 2.72388E-27
2.88691E-01 2.53393E-27
2.92653E-01 2.35810E-27
2.96632E-01 2.19535E-27
3.00625E-01 2.04471E-27
3.04634E-01 1.90528E-27
3.08658E-01 1.77624E-27
3.12697E-01 1.65680E-27
3.16749E-01 1.54625E-27
3.20816E-01 1.44394E-27
3.24896E-01 1.34923E-27
3.28990E-01 1.26157E-27
3.33097E-01 1.18042E-27
3.37216E-01 1.10529E-27
3.41348E-01 1.03573E-27
3.45492E-01 9.71312E-28
3.49647E-01 9.11650E-28
3.53814E-01 8.56382E-28
3.57992E-01 8.05172E-28
3.62181E-01 7.57711E-28
3.66381E-01 7.13710E-28
3.70590E-01 6.72906E-28
3.74810E-01 6.35051E-28
3.79039E-01 5.99918E-28
3.83277E-01 5.67298E-28
3.87524E-01 5.36995E-28
3.91780E-01 5.08830E-28
3.96044E-01 4.82636E-28
4.00316E-01 4.58261E-28
4.04596E-01 4.35563E-28
4.08882E-01 4.14410E-28
4.13176E-01 3.94683E-28
4.17476E-01 3.76269E-28
4.21783E-01 3.59067E-28
4.26095E-01 3.42981E-28
4.30413E-01 3.27924E-28
4.34737E-01 3.13816E-28
4.39065E-01 3.00583E-28
4.43398E-01 2.88156E-28
4.47736E-01 2.76473E-28
4.52077E-01 2.65476E-28
4.56422E-01 2.55112E-28
4.60770E-01 2.45333E-28
4.65122E-01 2.36093E-28
4.69476E-01 2.27351E-28
4.73832E-01 2.19070E-28
4.78190E-01 2.11215E-28
4.82550E-01 2.03754E-28
4.86912E-01 1.96658E-28
4.91274E-01 1.89900E-28
4.95637E-01 1.83455E-28
5.00000E-01 1.77302E-28
5.04363E-01 1.71420E-28
5.08726E-01 1.65789E-28
5.13088E-01 1.60393E-28
5.17450E-01 1.55216E-28
5.21810E-01 1.50243E-28
5.26168E-01 1.45462E-28
5.30524E-01 1.40859E-28
5.34878E-01 1.36425E-28
5.39230E-01 1.32149E-28
5.43578E-01 1.28022E-28
5.47923E-01 1.24035E-28
5.52264E-01 1.20182E-28
5.56602E-01 1.16453E-28
5.60935E-01 1.12844E-28
5.65263E-01 1.09348E-28
5.69587E-01 1.05961E-28
5.73905E-01 1.02676E-28
5.78217E-01 9.94890E-29
5.82524E-01 9.63966E-29
5.86824E-01 9.33944E-29
5.91118E-01 9.04789E-29
5.95404E-01 8.76470E-29
5.99684E-01 8.48954E-29
6.03956E-01 8.22214E-29
6.08220E-01 7.96225E-29
6.12476E-01 7.70961E-29
6.16723E-01 7.46401E-29
6.20961E-01 7.22522E-29
6.25190E-01 6.99306E-29
6.29410E-01 6.76734E-29
6.33619E-01 6.54787E-29
6.37819E-01 6.33450E-29
6.42008E-01 6.12706E-29
6.46186E-01 5.92542E-29
6.50353E-01 5.72941E-29
6.54508E-01 5.53891E-29
6.58652E-01 5.35379E-29
6.62784E-01 5.17391E-29
6.66903E-01 4.99916E-29
6.71010E-01 4.82942E-29
6.75104E-01 4.66457E-29
6.79184E-01 4.50450E-29
6.83251E-01 4.34910E-29
6.87303E-01 4.19826E-29
6.91342E-01 4.05189E-29
6.95366E-01 3.90988E-29
6.99375E-01 3.77213E-29
7.03368E-01 3.63854E-29
7.07347E-01 3.50902E-29
7.11309E-01 3.38347E-29
7.15256E-01 3.26180E-29
7.19186E-01 3.14391E-29
7.23099E-01 3.02972E-29
7.26995E-01 2.91913E-29
7.30874E-01 2.81206E-29
7.34736E-01 2.70843E-29
7.38579E-01 2.60814E-29
7.42405E-01 2.51111E-29
7.46212E-01 2.41726E-29
7.50000E-01 2.32651E-29
7.53769E-01 2.23877E-29
7.57519E-01 2.15397E-29
7.61249E-01 2.07203E-29
7.64960E-01 1.99286E-29
7.68650E-01 1.91640E-29
7.72320E-01 1.84257E-29
7.75968E-01 1.77129E-29
7.79596E-01 1.70250E-29
7.83203E-01 1.63612E-29
7.86788E-01 1.57208E-29
7.90351E-01 1.51031E-29
7.93893E-01 1.45075E-29
7.97411E-01 1.39333E-29
8.00908E-01 1.33798E-29
8.04381E-01 1.28464E-29
8.07831E-01 1.23325E-29
8.11257E-01 1.18375E-29
8.14660E-01 1.13607E-29
8.18039E-01 1.09016E-29
8.21394E-01 1.04597E-29
8.24724E-01 1.00343E-29
8.28030E-01 9.62496E-30
8.31310E-01 9.23108E-30
8.34565E-01 8.85217E-30
8.37795E-01 8.48772E-30
8.40999E-01 8.13724E-30
8.44177E-01 7.80025E-30
8.47329E-01 7.47627E-30
8.50455E-01 7.16486E-30
8.53553E-01 6.86558E-30
8.56625E-01 6.57798E-30
8.59670E-01 6.30165E-30
8.62687E-01 6.03619E-30
8.65677E-01 5.78120E-30
8.68639E-01 5.53629E-30
8.71572E-01 5.30111E-30
8.74478E-01 5.07527E-30
8.77355E-01 4.85844E-30
8.80203E-01 4.65028E-30
8.83022E-01 4.45046E-30
8.85812E-01 4.25866E-30
8.88573E-01 4.07457E-30
8.91304E-01 3.89790E-30
8.94005E-01 3.72836E-30
8.96677E-01 3.56568E-30
8.99318E-01 3.40958E-30
9.01928E-01 3.25981E-30
9.04508E-01 3.11611E-30
9.07058E-01 2.97825E-30
9.09576E-01 2.84600E-30
9.12063E-01 2.71912E-30
9.14519E-01 2.59742E-30
9.16943E-01 2.48066E-30
9.19335E-01 2.36867E-30
9.21696E-01 2.26124E-30
9.24024E-01 2.15819E-30
9.26320E-01 2.05934E-30
9.28584E-01 1.96452E-30
9.30815E-01 1.87356E-30
9.33013E-01 1.78632E-30
9.35178E-01 1.70263E-30
9.37310E-01 1.62235E-30
9.39409E-01 1.54535E-30
9.41474E-01 1.47148E-30
9.43505E-01 1.40062E-30
9.45503E-01 1.33264E-30
9.47467E-01 1.26744E-30
9.49397E-01 1.20489E-30
9.51293E-01 1.14489E-30
9.53154E-01 1.08734E-30
9.54981E-01 1.03213E-30
9.56773E-01 9.79172E-31
9.58530E-01 9.28378E-31
9.60252E-01 8.79659E-31
9.61940E-01 8.32934E-31
9.63592E-01 7.88125E-31
9.65209E-01 7.45156E-31
9.66790E-01 7.03957E-31
9.68336E-01 6.64459E-31
9.69846E-01 6.26598E-31
9.71321E-01 5.90312E-31
9.72759E-01 5.55543E-31
9.74162E-01 5.22235E-31
9.75528E-01 4.90334E-31
9.76858E-01 4.59791E-31
9.78152E-01 4.30558E-31
9.79410E-01 4.02589E-31
9.80631E-01 3.75841E-31
9.81815E-01 3.50273E-31
9.82963E-01 3.25848E-31
9.84074E-01 3.02527E-31
9.85148E-01 2.80278E-31
9.86185E-01 2.59065E-31
9.87185E-01 2.38860E-31
9.88148E-01 2.19633E-31
9.89074E-01 2.01356E-31
9.89962E-01 1.84003E-31
9.90814E-01 1.67551E-31
9.91627E-01 1.51976E-31
9.92404E-01 1.37256E-31
9.93143E-01 1.23372E-31
9.93844E-01 1.10305E-31
9.94508E-01 9.80369E-32
9.95134E-01 8.65522E-32
9.95722E-01 7.58353E-32
9.96273E-01 6.58722E-32
9.96786E-01 5.66501E-32
9.97261E-01 4.81570E-32
9.97698E-01 4.03820E-32
9.98097E-01 3.33153E-32
9.98459E-01 2.69479E-32
9.98782E-01 2.12719E-32
9.99067E-01 1.62800E-32
9.99315E-01 1.19661E-32
9.99524E-01 8.32489E-33
9.99695E-01 5.35178E-33
9.99829E-01 3.04315E-33
9.99924E-01 1.39615E-33
9.99981E-01 4.08751E-34
1.00000E+00 7.97596E-35
