 #
 # Subroutine ELSEPA. Elastic scattering of electrons and positrons
 #                    by neutral atoms and positive ions
 #
 # Projectile: electron
 # Kinetic energy = 3.50000E+07 eV = 1.28623E+06 a.u.
 #
 # WARNING: High-energy factorization with free-atom DF screening.
 #          Absorption, polarization and exchange corrections are
 #          switched off.
 #          Phase shifts are calculated for the bare nucleus.
 #          Scattering amplitudes are not evaluated.
 #
 # Element: Hf,  Z =  72,  atomic weight = 1.78490E+02 g/mol
 #
 # Nuclear model: Fermi distribution
 #                Average radius = 6.02451E-13 cm
 #                Skin thickness = 5.46000E-14 cm
 #
 # Number of electrons = 72
 #
 # Total elastic cross section = 7.31891E-18 cm**2 = 2.61363E-01 a0**2
 # 1st transport cross section = 7.89791E-24 cm**2 = 2.82040E-07 a0**2
 # 2nd transport cross section = 2.28342E-23 cm**2 = 8.15425E-07 a0**2
 #
 #
 # Differential cross section:                       MU=(1-COS(THETA))/2
 #
 #  THETA        MU          DCS          DCS        Sherman      error
 #  (deg)                 (cm**2/sr)   (a0**2/sr)    function
 #----------------------------------------------------------------------
0.00000E+00 7.96759E-11
7.61557E-13 7.96434E-11
1.18994E-12 7.96252E-11
1.71346E-12 7.96030E-11
2.33225E-12 7.95768E-11
3.04617E-12 7.95466E-11
3.85530E-12 7.95124E-11
4.75964E-12 7.94742E-11
5.75917E-12 7.94321E-11
6.85391E-12 7.93860E-11
8.04379E-12 7.93359E-11
9.32893E-12 7.92819E-11
1.07092E-11 7.92239E-11
1.21847E-11 7.91621E-11
1.37554E-11 7.90963E-11
1.54213E-11 7.90267E-11
1.71823E-11 7.89532E-11
1.90386E-11 7.88759E-11
2.09900E-11 7.87947E-11
2.30367E-11 7.87097E-11
2.51785E-11 7.86209E-11
2.74156E-11 7.85284E-11
2.97478E-11 7.84322E-11
3.21752E-11 7.83322E-11
3.46979E-11 7.82285E-11
3.73157E-11 7.81211E-11
4.00286E-11 7.80102E-11
4.28368E-11 7.78955E-11
4.57402E-11 7.77774E-11
4.87388E-11 7.76556E-11
5.18325E-11 7.75303E-11
5.50215E-11 7.74016E-11
5.83057E-11 7.72693E-11
6.16850E-11 7.71336E-11
6.51595E-11 7.69945E-11
6.87293E-11 7.68520E-11
7.23943E-11 7.67062E-11
7.61544E-11 7.65571E-11
1.18991E-10 7.48921E-11
1.71347E-10 7.29382E-11
2.33223E-10 7.07336E-11
3.04617E-10 6.83318E-11
3.85531E-10 6.57717E-11
4.75965E-10 6.30968E-11
5.75917E-10 6.03565E-11
6.85389E-10 5.75798E-11
8.04380E-10 5.48060E-11
9.32891E-10 5.20692E-11
1.07092E-09 4.93834E-11
1.21847E-09 4.67775E-11
1.37554E-09 4.42681E-11
1.54213E-09 4.18569E-11
1.71823E-09 3.95616E-11
1.90386E-09 3.73843E-11
2.09900E-09 3.53227E-11
2.30367E-09 3.33820E-11
2.51785E-09 3.15577E-11
2.74156E-09 2.98450E-11
2.97478E-09 2.82427E-11
3.21752E-09 2.67433E-11
3.46978E-09 2.53414E-11
3.73156E-09 2.40334E-11
4.00286E-09 2.28106E-11
4.28368E-09 2.16686E-11
4.57402E-09 2.06034E-11
4.87388E-09 1.96058E-11
5.18326E-09 1.86736E-11
5.50215E-09 1.78031E-11
5.83057E-09 1.69845E-11
6.16850E-09 1.62187E-11
6.51596E-09 1.55011E-11
6.87293E-09 1.48244E-11
7.23942E-09 1.41896E-11
7.61544E-09 1.35921E-11
1.18991E-08 9.13462E-12
1.71347E-08 6.41289E-12
2.33223E-08 4.57062E-12
3.04617E-08 3.39966E-12
3.85531E-08 2.55947E-12
4.75965E-08 1.95729E-12
5.75917E-08 1.52997E-12
6.85389E-08 1.20615E-12
8.04380E-08 9.63934E-13
9.32891E-08 7.81565E-13
1.07092E-07 6.36656E-13
1.21847E-07 5.24104E-13
1.37554E-07 4.35671E-13
1.54213E-07 3.63083E-13
1.71823E-07 3.05246E-13
1.90386E-07 2.58303E-13
2.09900E-07 2.19408E-13
2.30367E-07 1.87660E-13
2.51785E-07 1.61332E-13
2.74156E-07 1.39325E-13
2.97478E-07 1.21011E-13
3.21752E-07 1.05574E-13
3.46978E-07 9.25247E-14
3.73156E-07 8.14814E-14
4.00286E-07 7.20358E-14
4.28368E-07 6.39611E-14
4.57402E-07 5.70269E-14
4.87388E-07 5.09759E-14
5.18325E-07 4.57324E-14
5.50215E-07 4.11708E-14
5.83057E-07 3.71693E-14
6.16850E-07 3.36613E-14
6.51596E-07 3.05713E-14
6.87293E-07 2.78291E-14
7.23942E-07 2.53975E-14
7.61543E-07 2.32296E-14
1.18991E-06 1.04717E-14
1.71347E-06 5.38657E-15
2.33223E-06 3.03852E-15
3.04617E-06 1.84229E-15
3.85531E-06 1.18025E-15
4.75964E-06 7.91035E-16
5.75916E-06 5.49855E-16
6.85388E-06 3.94050E-16
8.04378E-06 2.89817E-16
9.32888E-06 2.17869E-16
1.07092E-05 1.66955E-16
1.21846E-05 1.30087E-16
1.37553E-05 1.02849E-16
1.54212E-05 8.23827E-17
1.71822E-05 6.67556E-17
1.90385E-05 5.46318E-17
2.09899E-05 4.51875E-17
2.30365E-05 3.76881E-17
2.51783E-05 3.16725E-17
2.74153E-05 2.68023E-17
2.97475E-05 2.28288E-17
3.21749E-05 1.95647E-17
3.46974E-05 1.68644E-17
3.73152E-05 1.46163E-17
4.00281E-05 1.27320E-17
4.28362E-05 1.11424E-17
4.57395E-05 9.79336E-18
4.87380E-05 8.64197E-18
5.18317E-05 7.65443E-18
5.50205E-05 6.80371E-18
5.83045E-05 6.06781E-18
6.16838E-05 5.42892E-18
6.51582E-05 4.87218E-18
6.87277E-05 4.38523E-18
7.23925E-05 3.95782E-18
7.61524E-05 3.58119E-18
9.21439E-05 2.45735E-18
1.09658E-04 1.74198E-18
1.28695E-04 1.26930E-18
1.49255E-04 9.46656E-19
1.71338E-04 7.20433E-19
1.94942E-04 5.57963E-19
2.20070E-04 4.38860E-19
2.46720E-04 3.49934E-19
2.74892E-04 2.82452E-19
3.04586E-04 2.30498E-19
3.35803E-04 1.89970E-19
3.68542E-04 1.57982E-19
4.02802E-04 1.32460E-19
4.38585E-04 1.11897E-19
4.75889E-04 9.51792E-20
5.14715E-04 8.14754E-20
5.55063E-04 7.01558E-20
5.96931E-04 6.07391E-20
6.40321E-04 5.28538E-20
6.85233E-04 4.62103E-20
7.31665E-04 4.05810E-20
7.79618E-04 3.57854E-20
8.29092E-04 3.16796E-20
8.80086E-04 2.81477E-20
9.32601E-04 2.50959E-20
9.86636E-04 2.24481E-20
1.04219E-03 2.01415E-20
1.09927E-03 1.81247E-20
1.15786E-03 1.63550E-20
1.21797E-03 1.47969E-20
1.27961E-03 1.34207E-20
1.34276E-03 1.22014E-20
1.40743E-03 1.11182E-20
1.47362E-03 1.01530E-20
1.54133E-03 9.29074E-21
1.61056E-03 8.51855E-21
1.68131E-03 7.82532E-21
1.75357E-03 7.20155E-21
1.82735E-03 6.63902E-21
1.90265E-03 6.13064E-21
1.97947E-03 5.67026E-21
2.05780E-03 5.25254E-21
2.13765E-03 4.87281E-21
2.21902E-03 4.52698E-21
2.30190E-03 4.21147E-21
2.38630E-03 3.92315E-21
2.47222E-03 3.65923E-21
2.55965E-03 3.41729E-21
2.64859E-03 3.19515E-21
2.73905E-03 2.99088E-21
2.83103E-03 2.80280E-21
2.92452E-03 2.62937E-21
3.01952E-03 2.46925E-21
3.11604E-03 2.32123E-21
3.21407E-03 2.18421E-21
3.31362E-03 2.05723E-21
3.41468E-03 1.93942E-21
3.51725E-03 1.82999E-21
3.62133E-03 1.72823E-21
3.72692E-03 1.63351E-21
3.83403E-03 1.54524E-21
3.94265E-03 1.46290E-21
4.05278E-03 1.38602E-21
4.16442E-03 1.31417E-21
4.27757E-03 1.24696E-21
4.39223E-03 1.18403E-21
4.50840E-03 1.12505E-21
4.62608E-03 1.06974E-21
4.74527E-03 1.01781E-21
4.86597E-03 9.69029E-22
4.98817E-03 9.23162E-22
5.11188E-03 8.80003E-22
5.23711E-03 8.39362E-22
5.36383E-03 8.01063E-22
5.49207E-03 7.64946E-22
5.62181E-03 7.30862E-22
5.75306E-03 6.98675E-22
5.88581E-03 6.68259E-22
6.02007E-03 6.39497E-22
6.15583E-03 6.12283E-22
6.29310E-03 5.86516E-22
6.43187E-03 5.62105E-22
6.57214E-03 5.38965E-22
6.71392E-03 5.17016E-22
6.85720E-03 4.96185E-22
7.00198E-03 4.76405E-22
7.14827E-03 4.57612E-22
7.29605E-03 4.39746E-22
7.44534E-03 4.22754E-22
7.59612E-03 4.06584E-22
7.97965E-03 3.69451E-22
8.37255E-03 3.36509E-22
8.77480E-03 3.07197E-22
9.18641E-03 2.81043E-22
9.60736E-03 2.57645E-22
1.00376E-02 2.36660E-22
1.04773E-02 2.17792E-22
1.09262E-02 2.00790E-22
1.13844E-02 1.85433E-22
1.18520E-02 1.71535E-22
1.23288E-02 1.58929E-22
1.28150E-02 1.47474E-22
1.33104E-02 1.37044E-22
1.38150E-02 1.27531E-22
1.43290E-02 1.18840E-22
1.48521E-02 1.10884E-22
1.53845E-02 1.03591E-22
1.59262E-02 9.68951E-23
1.64770E-02 9.07375E-23
1.70371E-02 8.50670E-23
1.76063E-02 7.98375E-23
1.81848E-02 7.50084E-23
1.87724E-02 7.05430E-23
1.93692E-02 6.64087E-23
1.99751E-02 6.25764E-23
2.05901E-02 5.90192E-23
2.12143E-02 5.57129E-23
2.18476E-02 5.26371E-23
2.24900E-02 4.97727E-23
2.31415E-02 4.71023E-23
2.38021E-02 4.46103E-23
2.44717E-02 4.22824E-23
2.51504E-02 4.01056E-23
2.58382E-02 3.80683E-23
2.65349E-02 3.61597E-23
2.72407E-02 3.43701E-23
2.79555E-02 3.26907E-23
2.86793E-02 3.11133E-23
2.94120E-02 2.96305E-23
3.01537E-02 2.82355E-23
3.09043E-02 2.69222E-23
3.16639E-02 2.56846E-23
3.24324E-02 2.45178E-23
3.32098E-02 2.34167E-23
3.39961E-02 2.23770E-23
3.47912E-02 2.13945E-23
3.55952E-02 2.04656E-23
3.64081E-02 1.95866E-23
3.72297E-02 1.87544E-23
3.80602E-02 1.79660E-23
3.88995E-02 1.72186E-23
3.97476E-02 1.65097E-23
4.06044E-02 1.58369E-23
4.14700E-02 1.51980E-23
4.23443E-02 1.45910E-23
4.32273E-02 1.40139E-23
4.41190E-02 1.34650E-23
4.50194E-02 1.29426E-23
4.59284E-02 1.24452E-23
4.68461E-02 1.19714E-23
4.87074E-02 1.10892E-23
5.06030E-02 1.02863E-23
5.25328E-02 9.55428E-24
5.44967E-02 8.88570E-24
5.64946E-02 8.27404E-24
5.85262E-02 7.71354E-24
6.05914E-02 7.19915E-24
6.26901E-02 6.72635E-24
6.48222E-02 6.29116E-24
6.69873E-02 5.89004E-24
6.91854E-02 5.51982E-24
7.14163E-02 5.17769E-24
7.36799E-02 4.86113E-24
7.59760E-02 4.56786E-24
7.83043E-02 4.29586E-24
8.06647E-02 4.04332E-24
8.30571E-02 3.80857E-24
8.54812E-02 3.59015E-24
8.79369E-02 3.38670E-24
9.04240E-02 3.19703E-24
9.29422E-02 3.02002E-24
9.54915E-02 2.85468E-24
9.80716E-02 2.70010E-24
1.00682E-01 2.55547E-24
1.03323E-01 2.42002E-24
1.05995E-01 2.29307E-24
1.08696E-01 2.17399E-24
1.11427E-01 2.06221E-24
1.14188E-01 1.95721E-24
1.16978E-01 1.85850E-24
1.19797E-01 1.76564E-24
1.22645E-01 1.67822E-24
1.25522E-01 1.59588E-24
1.28428E-01 1.51826E-24
1.31361E-01 1.44505E-24
1.34323E-01 1.37597E-24
1.37313E-01 1.31072E-24
1.40330E-01 1.24908E-24
1.43375E-01 1.19080E-24
1.46447E-01 1.13568E-24
1.49545E-01 1.08351E-24
1.52671E-01 1.03411E-24
1.55823E-01 9.87315E-25
1.59001E-01 9.42958E-25
1.62205E-01 9.00895E-25
1.65435E-01 8.60989E-25
1.68690E-01 8.23112E-25
1.71970E-01 7.87145E-25
1.75276E-01 7.52977E-25
1.78606E-01 7.20503E-25
1.81961E-01 6.89629E-25
1.85340E-01 6.60262E-25
1.88743E-01 6.32318E-25
1.92169E-01 6.05718E-25
1.95619E-01 5.80389E-25
1.99092E-01 5.56260E-25
2.02589E-01 5.33266E-25
2.06107E-01 5.11347E-25
2.09649E-01 4.90445E-25
2.13212E-01 4.70506E-25
2.16797E-01 4.51480E-25
2.20404E-01 4.33319E-25
2.24032E-01 4.15979E-25
2.27680E-01 3.99416E-25
2.31350E-01 3.83593E-25
2.35040E-01 3.68471E-25
2.38751E-01 3.54015E-25
2.42481E-01 3.40192E-25
2.46231E-01 3.26970E-25
2.50000E-01 3.14321E-25
2.53788E-01 3.02216E-25
2.57595E-01 2.90629E-25
2.61421E-01 2.79534E-25
2.65264E-01 2.68909E-25
2.69126E-01 2.58731E-25
2.73005E-01 2.48980E-25
2.76901E-01 2.39634E-25
2.80814E-01 2.30675E-25
2.84744E-01 2.22085E-25
2.88691E-01 2.13847E-25
2.92653E-01 2.05946E-25
2.96632E-01 1.98365E-25
3.00625E-01 1.91091E-25
3.04634E-01 1.84109E-25
3.08658E-01 1.77406E-25
3.12697E-01 1.70971E-25
3.16749E-01 1.64791E-25
3.20816E-01 1.58854E-25
3.24896E-01 1.53151E-25
3.28990E-01 1.47672E-25
3.33097E-01 1.42406E-25
3.37216E-01 1.37344E-25
3.41348E-01 1.32478E-25
3.45492E-01 1.27799E-25
3.49647E-01 1.23299E-25
3.53814E-01 1.18972E-25
3.57992E-01 1.14808E-25
3.62181E-01 1.10803E-25
3.66381E-01 1.06949E-25
3.70590E-01 1.03240E-25
3.74810E-01 9.96692E-26
3.79039E-01 9.62321E-26
3.83277E-01 9.29229E-26
3.87524E-01 8.97362E-26
3.91780E-01 8.66672E-26
3.96044E-01 8.37112E-26
4.00316E-01 8.08636E-26
4.04596E-01 7.81200E-26
4.08882E-01 7.54764E-26
4.13176E-01 7.29288E-26
4.17476E-01 7.04734E-26
4.21783E-01 6.81066E-26
4.26095E-01 6.58248E-26
4.30413E-01 6.36249E-26
4.34737E-01 6.15036E-26
4.39065E-01 5.94579E-26
4.43398E-01 5.74849E-26
4.47736E-01 5.55817E-26
4.52077E-01 5.37457E-26
4.56422E-01 5.19744E-26
4.60770E-01 5.02653E-26
4.65122E-01 4.86160E-26
4.69476E-01 4.70243E-26
4.73832E-01 4.54880E-26
4.78190E-01 4.40051E-26
4.82550E-01 4.25735E-26
4.86912E-01 4.11913E-26
4.91274E-01 3.98568E-26
4.95637E-01 3.85681E-26
5.00000E-01 3.73235E-26
5.04363E-01 3.61215E-26
5.08726E-01 3.49604E-26
5.13088E-01 3.38388E-26
5.17450E-01 3.27553E-26
5.21810E-01 3.17084E-26
5.26168E-01 3.06968E-26
5.30524E-01 2.97193E-26
5.34878E-01 2.87746E-26
5.39230E-01 2.78616E-26
5.43578E-01 2.69791E-26
5.47923E-01 2.61260E-26
5.52264E-01 2.53013E-26
5.56602E-01 2.45039E-26
5.60935E-01 2.37330E-26
5.65263E-01 2.29875E-26
5.69587E-01 2.22666E-26
5.73905E-01 2.15694E-26
5.78217E-01 2.08951E-26
5.82524E-01 2.02428E-26
5.86824E-01 1.96119E-26
5.91118E-01 1.90015E-26
5.95404E-01 1.84110E-26
5.99684E-01 1.78396E-26
6.03956E-01 1.72867E-26
6.08220E-01 1.67517E-26
6.12476E-01 1.62339E-26
6.16723E-01 1.57328E-26
6.20961E-01 1.52478E-26
6.25190E-01 1.47783E-26
6.29410E-01 1.43238E-26
6.33619E-01 1.38838E-26
6.37819E-01 1.34578E-26
6.42008E-01 1.30453E-26
6.46186E-01 1.26459E-26
6.50353E-01 1.22591E-26
6.54508E-01 1.18846E-26
6.58652E-01 1.15218E-26
6.62784E-01 1.11704E-26
6.66903E-01 1.08301E-26
6.71010E-01 1.05004E-26
6.75104E-01 1.01810E-26
6.79184E-01 9.87150E-27
6.83251E-01 9.57167E-27
6.87303E-01 9.28114E-27
6.91342E-01 8.99960E-27
6.95366E-01 8.72677E-27
6.99375E-01 8.46234E-27
7.03368E-01 8.20606E-27
7.07347E-01 7.95764E-27
7.11309E-01 7.71684E-27
7.15256E-01 7.48340E-27
7.19186E-01 7.25708E-27
7.23099E-01 7.03766E-27
7.26995E-01 6.82490E-27
7.30874E-01 6.61860E-27
7.34736E-01 6.41854E-27
7.38579E-01 6.22452E-27
7.42405E-01 6.03634E-27
7.46212E-01 5.85383E-27
7.50000E-01 5.67680E-27
7.53769E-01 5.50506E-27
7.57519E-01 5.33846E-27
7.61249E-01 5.17683E-27
7.64960E-01 5.02001E-27
7.68650E-01 4.86785E-27
7.72320E-01 4.72020E-27
7.75968E-01 4.57691E-27
7.79596E-01 4.43786E-27
7.83203E-01 4.30290E-27
7.86788E-01 4.17191E-27
7.90351E-01 4.04477E-27
7.93893E-01 3.92135E-27
7.97411E-01 3.80153E-27
8.00908E-01 3.68521E-27
8.04381E-01 3.57228E-27
8.07831E-01 3.46262E-27
8.11257E-01 3.35615E-27
8.14660E-01 3.25276E-27
8.18039E-01 3.15235E-27
8.21394E-01 3.05484E-27
8.24724E-01 2.96013E-27
8.28030E-01 2.86815E-27
8.31310E-01 2.77880E-27
8.34565E-01 2.69201E-27
8.37795E-01 2.60770E-27
8.40999E-01 2.52580E-27
8.44177E-01 2.44623E-27
8.47329E-01 2.36892E-27
8.50455E-01 2.29380E-27
8.53553E-01 2.22081E-27
8.56625E-01 2.14989E-27
8.59670E-01 2.08097E-27
8.62687E-01 2.01400E-27
8.65677E-01 1.94892E-27
8.68639E-01 1.88567E-27
8.71572E-01 1.82419E-27
8.74478E-01 1.76444E-27
8.77355E-01 1.70637E-27
8.80203E-01 1.64993E-27
8.83022E-01 1.59506E-27
8.85812E-01 1.54174E-27
8.88573E-01 1.48990E-27
8.91304E-01 1.43951E-27
8.94005E-01 1.39053E-27
8.96677E-01 1.34292E-27
8.99318E-01 1.29664E-27
9.01928E-01 1.25165E-27
9.04508E-01 1.20791E-27
9.07058E-01 1.16540E-27
9.09576E-01 1.12408E-27
9.12063E-01 1.08391E-27
9.14519E-01 1.04486E-27
9.16943E-01 1.00691E-27
9.19335E-01 9.70021E-28
9.21696E-01 9.34168E-28
9.24024E-01 8.99322E-28
9.26320E-01 8.65458E-28
9.28584E-01 8.32549E-28
9.30815E-01 8.00571E-28
9.33013E-01 7.69499E-28
9.35178E-01 7.39310E-28
9.37310E-01 7.09982E-28
9.39409E-01 6.81492E-28
9.41474E-01 6.53821E-28
9.43505E-01 6.26947E-28
9.45503E-01 6.00851E-28
9.47467E-01 5.75514E-28
9.49397E-01 5.50917E-28
9.51293E-01 5.27043E-28
9.53154E-01 5.03875E-28
9.54981E-01 4.81397E-28
9.56773E-01 4.59591E-28
9.58530E-01 4.38444E-28
9.60252E-01 4.17939E-28
9.61940E-01 3.98064E-28
9.63592E-01 3.78803E-28
9.65209E-01 3.60143E-28
9.66790E-01 3.42072E-28
9.68336E-01 3.24578E-28
9.69846E-01 3.07647E-28
9.71321E-01 2.91270E-28
9.72759E-01 2.75433E-28
9.74162E-01 2.60128E-28
9.75528E-01 2.45344E-28
9.76858E-01 2.31070E-28
9.78152E-01 2.17298E-28
9.79410E-01 2.04017E-28
9.80631E-01 1.91220E-28
9.81815E-01 1.78898E-28
9.82963E-01 1.67043E-28
9.84074E-01 1.55646E-28
9.85148E-01 1.44701E-28
9.86185E-01 1.34201E-28
9.87185E-01 1.24139E-28
9.88148E-01 1.14507E-28
9.89074E-01 1.05301E-28
9.89962E-01 9.65142E-29
9.90814E-01 8.81406E-29
9.91627E-01 8.01753E-29
9.92404E-01 7.26131E-29
9.93143E-01 6.54493E-29
9.93844E-01 5.86793E-29
9.94508E-01 5.22988E-29
9.95134E-01 4.63039E-29
9.95722E-01 4.06909E-29
9.96273E-01 3.54560E-29
9.96786E-01 3.05962E-29
9.97261E-01 2.61084E-29
9.97698E-01 2.19897E-29
9.98097E-01 1.82377E-29
9.98459E-01 1.48500E-29
9.98782E-01 1.18245E-29
9.99067E-01 9.15926E-30
9.99315E-01 6.85274E-30
9.99524E-01 4.90346E-30
9.99695E-01 3.31024E-30
9.99829E-01 2.07208E-30
9.99924E-01 1.18822E-30
9.99981E-01 6.58130E-31
1.00000E+00 4.81465E-31
