 #
 # Subroutine ELSEPA. Elastic scattering of electrons and positrons
 #                    by neutral atoms and positive ions
 #
 # Projectile: electron
 # Kinetic energy = 1.00000E+07 eV = 3.67493E+05 a.u.
 #
 # WARNING: High-energy factorization with free-atom DF screening.
 #          Absorption, polarization and exchange corrections are
 #          switched off.
 #          Phase shifts are calculated for the bare nucleus.
 #          Scattering amplitudes are not evaluated.
 #
 # Element: Hf,  Z =  72,  atomic weight = 1.78490E+02 g/mol
 #
 # Nuclear model: Fermi distribution
 #                Average radius = 6.02451E-13 cm
 #                Skin thickness = 5.46000E-14 cm
 #
 # Number of electrons = 72
 #
 # Total elastic cross section = 7.33652E-18 cm**2 = 2.61992E-01 a0**2
 # 1st transport cross section = 8.39728E-23 cm**2 = 2.99872E-06 a0**2
 # 2nd transport cross section = 2.31985E-22 cm**2 = 8.28433E-06 a0**2
 #
 #
 # Differential cross section:                       MU=(1-COS(THETA))/2
 #
 #  THETA        MU          DCS          DCS        Sherman      error
 #  (deg)                 (cm**2/sr)   (a0**2/sr)    function
 #----------------------------------------------------------------------
0.00000E+00 6.98054E-12
7.61557E-13 6.98029E-12
1.18994E-12 6.98015E-12
1.71346E-12 6.97998E-12
2.33225E-12 6.97978E-12
3.04617E-12 6.97955E-12
3.85530E-12 6.97928E-12
4.75964E-12 6.97899E-12
5.75917E-12 6.97866E-12
6.85391E-12 6.97831E-12
8.04379E-12 6.97792E-12
9.32893E-12 6.97751E-12
1.07092E-11 6.97706E-12
1.21847E-11 6.97658E-12
1.37554E-11 6.97607E-12
1.54213E-11 6.97553E-12
1.71823E-11 6.97496E-12
1.90386E-11 6.97436E-12
2.09900E-11 6.97373E-12
2.30367E-11 6.97306E-12
2.51785E-11 6.97237E-12
2.74156E-11 6.97164E-12
2.97478E-11 6.97089E-12
3.21752E-11 6.97010E-12
3.46979E-11 6.96929E-12
3.73157E-11 6.96844E-12
4.00286E-11 6.96756E-12
4.28368E-11 6.96666E-12
4.57402E-11 6.96572E-12
4.87388E-11 6.96475E-12
5.18325E-11 6.96375E-12
5.50215E-11 6.96272E-12
5.83057E-11 6.96166E-12
6.16850E-11 6.96057E-12
6.51595E-11 6.95945E-12
6.87293E-11 6.95829E-12
7.23943E-11 6.95711E-12
7.61544E-11 6.95590E-12
1.18991E-10 6.94212E-12
1.71347E-10 6.92533E-12
2.33223E-10 6.90559E-12
3.04617E-10 6.88292E-12
3.85531E-10 6.85739E-12
4.75965E-10 6.82903E-12
5.75917E-10 6.79792E-12
6.85389E-10 6.76412E-12
8.04380E-10 6.72770E-12
9.32891E-10 6.68873E-12
1.07092E-09 6.64729E-12
1.21847E-09 6.60347E-12
1.37554E-09 6.55735E-12
1.54213E-09 6.50902E-12
1.71823E-09 6.45858E-12
1.90386E-09 6.40612E-12
2.09900E-09 6.35172E-12
2.30367E-09 6.29533E-12
2.51785E-09 6.23730E-12
2.74156E-09 6.17775E-12
2.97478E-09 6.11679E-12
3.21752E-09 6.05451E-12
3.46978E-09 5.99055E-12
3.73156E-09 5.92541E-12
4.00286E-09 5.85928E-12
4.28368E-09 5.79227E-12
4.57402E-09 5.72447E-12
4.87388E-09 5.65558E-12
5.18326E-09 5.58587E-12
5.50215E-09 5.51567E-12
5.83057E-09 5.44508E-12
6.16850E-09 5.37419E-12
6.51596E-09 5.30280E-12
6.87293E-09 5.23088E-12
7.23942E-09 5.15891E-12
7.61544E-09 5.08699E-12
1.18991E-08 4.37712E-12
1.71347E-08 3.72127E-12
2.33223E-08 3.14852E-12
3.04617E-08 2.66587E-12
3.85531E-08 2.26732E-12
4.75965E-08 1.94118E-12
5.75917E-08 1.67456E-12
6.85389E-08 1.45559E-12
8.04380E-08 1.27432E-12
9.32891E-08 1.12288E-12
1.07092E-07 9.95094E-13
1.21847E-07 8.86224E-13
1.37554E-07 7.92637E-13
1.54213E-07 7.11546E-13
1.71823E-07 6.40797E-13
1.90386E-07 5.78709E-13
2.09900E-07 5.23473E-13
2.30367E-07 4.71109E-13
2.51785E-07 4.26737E-13
2.74156E-07 3.88892E-13
2.97478E-07 3.56413E-13
3.21752E-07 3.28375E-13
3.46978E-07 2.99512E-13
3.73156E-07 2.73878E-13
4.00286E-07 2.51586E-13
4.28368E-07 2.32105E-13
4.57402E-07 2.15002E-13
4.87388E-07 1.98371E-13
5.18325E-07 1.82900E-13
5.50215E-07 1.69230E-13
5.83057E-07 1.57105E-13
6.16850E-07 1.46310E-13
6.51596E-07 1.36172E-13
6.87293E-07 1.26451E-13
7.23942E-07 1.17749E-13
7.61543E-07 1.09935E-13
1.18991E-06 5.82489E-14
1.71347E-06 3.33331E-14
2.33223E-06 2.01975E-14
3.04617E-06 1.28476E-14
3.85531E-06 8.53953E-15
4.75964E-06 5.90465E-15
5.75916E-06 4.22387E-15
6.85388E-06 3.10893E-15
8.04378E-06 2.34598E-15
9.32888E-06 1.80617E-15
1.07092E-05 1.41357E-15
1.21846E-05 1.12209E-15
1.37553E-05 9.02087E-16
1.54212E-05 7.33483E-16
1.71822E-05 6.02378E-16
1.90385E-05 4.98865E-16
2.09899E-05 4.16960E-16
2.30365E-05 3.50872E-16
2.51783E-05 2.97758E-16
2.74153E-05 2.53853E-16
2.97475E-05 2.17982E-16
3.21749E-05 1.88034E-16
3.46974E-05 1.63195E-16
3.73152E-05 1.42267E-16
4.00281E-05 1.24662E-16
4.28362E-05 1.09668E-16
4.57395E-05 9.68858E-17
4.87380E-05 8.58967E-17
5.18317E-05 7.64265E-17
5.50205E-05 6.82206E-17
5.83045E-05 6.10870E-17
6.16838E-05 5.48656E-17
6.51582E-05 4.94161E-17
6.87277E-05 4.46337E-17
7.23925E-05 4.04139E-17
7.61524E-05 3.66866E-17
9.21439E-05 2.54590E-17
1.09658E-04 1.82194E-17
1.28695E-04 1.33830E-17
1.49255E-04 1.00502E-17
1.71338E-04 7.69377E-18
1.94942E-04 5.98898E-18
2.20070E-04 4.73112E-18
2.46720E-04 3.78668E-18
2.74892E-04 3.06644E-18
3.04586E-04 2.50953E-18
3.35803E-04 2.07348E-18
3.68542E-04 1.72816E-18
4.02802E-04 1.45186E-18
4.38585E-04 1.22865E-18
4.75889E-04 1.04678E-18
5.14715E-04 8.97391E-19
5.55063E-04 7.73762E-19
5.96931E-04 6.70744E-19
6.40321E-04 5.84346E-19
6.85233E-04 5.11451E-19
7.31665E-04 4.49602E-19
7.79618E-04 3.96848E-19
8.29092E-04 3.51630E-19
8.80086E-04 3.12689E-19
9.32601E-04 2.79008E-19
9.86636E-04 2.49755E-19
1.04219E-03 2.24249E-19
1.09927E-03 2.01928E-19
1.15786E-03 1.82325E-19
1.21797E-03 1.65052E-19
1.27961E-03 1.49784E-19
1.34276E-03 1.36247E-19
1.40743E-03 1.24212E-19
1.47362E-03 1.13481E-19
1.54133E-03 1.03889E-19
1.61056E-03 9.52927E-20
1.68131E-03 8.75713E-20
1.75357E-03 8.06195E-20
1.82735E-03 7.43468E-20
1.90265E-03 6.86752E-20
1.97947E-03 6.35366E-20
2.05780E-03 5.88719E-20
2.13765E-03 5.46292E-20
2.21902E-03 5.07640E-20
2.30190E-03 4.72364E-20
2.38630E-03 4.40114E-20
2.47222E-03 4.10583E-20
2.55965E-03 3.83501E-20
2.64859E-03 3.58628E-20
2.73905E-03 3.35750E-20
2.83103E-03 3.14677E-20
2.92452E-03 2.95241E-20
3.01952E-03 2.77292E-20
3.11604E-03 2.60695E-20
3.21407E-03 2.45329E-20
3.31362E-03 2.31085E-20
3.41468E-03 2.17867E-20
3.51725E-03 2.05587E-20
3.62133E-03 1.94166E-20
3.72692E-03 1.83532E-20
3.83403E-03 1.73622E-20
3.94265E-03 1.64376E-20
4.05278E-03 1.55743E-20
4.16442E-03 1.47672E-20
4.27757E-03 1.40122E-20
4.39223E-03 1.33053E-20
4.50840E-03 1.26427E-20
4.62608E-03 1.20211E-20
4.74527E-03 1.14377E-20
4.86597E-03 1.08895E-20
4.98817E-03 1.03740E-20
5.11188E-03 9.88895E-21
5.23711E-03 9.43217E-21
5.36383E-03 9.00170E-21
5.49207E-03 8.59575E-21
5.62181E-03 8.21266E-21
5.75306E-03 7.85086E-21
5.88581E-03 7.50896E-21
6.02007E-03 7.18567E-21
6.15583E-03 6.87977E-21
6.29310E-03 6.59015E-21
6.43187E-03 6.31576E-21
6.57214E-03 6.05566E-21
6.71392E-03 5.80897E-21
6.85720E-03 5.57485E-21
7.00198E-03 5.35253E-21
7.14827E-03 5.14131E-21
7.29605E-03 4.94054E-21
7.44534E-03 4.74959E-21
7.59612E-03 4.56788E-21
7.97965E-03 4.15065E-21
8.37255E-03 3.78055E-21
8.77480E-03 3.45129E-21
9.18641E-03 3.15756E-21
9.60736E-03 2.89482E-21
1.00376E-02 2.65922E-21
1.04773E-02 2.44745E-21
1.09262E-02 2.25664E-21
1.13844E-02 2.08434E-21
1.18520E-02 1.92843E-21
1.23288E-02 1.78706E-21
1.28150E-02 1.65862E-21
1.33104E-02 1.54170E-21
1.38150E-02 1.43508E-21
1.43290E-02 1.33769E-21
1.48521E-02 1.24856E-21
1.53845E-02 1.16687E-21
1.59262E-02 1.09188E-21
1.64770E-02 1.02294E-21
1.70371E-02 9.59455E-22
1.76063E-02 9.00920E-22
1.81848E-02 8.46874E-22
1.87724E-02 7.96905E-22
1.93692E-02 7.50647E-22
1.99751E-02 7.07770E-22
2.05901E-02 6.67979E-22
2.12143E-02 6.31009E-22
2.18476E-02 5.96620E-22
2.24900E-02 5.64596E-22
2.31415E-02 5.34744E-22
2.38021E-02 5.06886E-22
2.44717E-02 4.80864E-22
2.51504E-02 4.56532E-22
2.58382E-02 4.33758E-22
2.65349E-02 4.12423E-22
2.72407E-02 3.92418E-22
2.79555E-02 3.73643E-22
2.86793E-02 3.56008E-22
2.94120E-02 3.39429E-22
3.01537E-02 3.23830E-22
3.09043E-02 3.09142E-22
3.16639E-02 2.95301E-22
3.24324E-02 2.82247E-22
3.32098E-02 2.69927E-22
3.39961E-02 2.58292E-22
3.47912E-02 2.47295E-22
3.55952E-02 2.36895E-22
3.64081E-02 2.27052E-22
3.72297E-02 2.17729E-22
3.80602E-02 2.08895E-22
3.88995E-02 2.00519E-22
3.97476E-02 1.92570E-22
4.06044E-02 1.85024E-22
4.14700E-02 1.77856E-22
4.23443E-02 1.71042E-22
4.32273E-02 1.64561E-22
4.41190E-02 1.58395E-22
4.50194E-02 1.52524E-22
4.59284E-02 1.46931E-22
4.68461E-02 1.41600E-22
4.87074E-02 1.31668E-22
5.06030E-02 1.22618E-22
5.25328E-02 1.14357E-22
5.44967E-02 1.06802E-22
5.64946E-02 9.98806E-23
5.85262E-02 9.35291E-23
6.05914E-02 8.76909E-23
6.26901E-02 8.23161E-23
6.48222E-02 7.73602E-23
6.69873E-02 7.27840E-23
6.91854E-02 6.85523E-23
7.14163E-02 6.46339E-23
7.36799E-02 6.10007E-23
7.59760E-02 5.76276E-23
7.83043E-02 5.44921E-23
8.06647E-02 5.15740E-23
8.30571E-02 4.88550E-23
8.54812E-02 4.63187E-23
8.79369E-02 4.39502E-23
9.04240E-02 4.17359E-23
9.29422E-02 3.96639E-23
9.54915E-02 3.77230E-23
9.80716E-02 3.59030E-23
1.00682E-01 3.41950E-23
1.03323E-01 3.25904E-23
1.05995E-01 3.10816E-23
1.08696E-01 2.96619E-23
1.11427E-01 2.83246E-23
1.14188E-01 2.70641E-23
1.16978E-01 2.58749E-23
1.19797E-01 2.47522E-23
1.22645E-01 2.36914E-23
1.25522E-01 2.26883E-23
1.28428E-01 2.17392E-23
1.31361E-01 2.08405E-23
1.34323E-01 1.99889E-23
1.37313E-01 1.91815E-23
1.40330E-01 1.84154E-23
1.43375E-01 1.76881E-23
1.46447E-01 1.69971E-23
1.49545E-01 1.63402E-23
1.52671E-01 1.57155E-23
1.55823E-01 1.51210E-23
1.59001E-01 1.45548E-23
1.62205E-01 1.40154E-23
1.65435E-01 1.35012E-23
1.68690E-01 1.30108E-23
1.71970E-01 1.25428E-23
1.75276E-01 1.20959E-23
1.78606E-01 1.16691E-23
1.81961E-01 1.12612E-23
1.85340E-01 1.08712E-23
1.88743E-01 1.04981E-23
1.92169E-01 1.01410E-23
1.95619E-01 9.79915E-24
1.99092E-01 9.47169E-24
2.02589E-01 9.15791E-24
2.06107E-01 8.85708E-24
2.09649E-01 8.56858E-24
2.13212E-01 8.29177E-24
2.16797E-01 8.02609E-24
2.20404E-01 7.77098E-24
2.24032E-01 7.52595E-24
2.27680E-01 7.29049E-24
2.31350E-01 7.06417E-24
2.35040E-01 6.84650E-24
2.38751E-01 6.63706E-24
2.42481E-01 6.43551E-24
2.46231E-01 6.24151E-24
2.50000E-01 6.05469E-24
2.53788E-01 5.87475E-24
2.57595E-01 5.70137E-24
2.61421E-01 5.53425E-24
2.65264E-01 5.37313E-24
2.69126E-01 5.21774E-24
2.73005E-01 5.06783E-24
2.76901E-01 4.92317E-24
2.80814E-01 4.78354E-24
2.84744E-01 4.64871E-24
2.88691E-01 4.51850E-24
2.92653E-01 4.39270E-24
2.96632E-01 4.27114E-24
3.00625E-01 4.15364E-24
3.04634E-01 4.04004E-24
3.08658E-01 3.93018E-24
3.12697E-01 3.82391E-24
3.16749E-01 3.72109E-24
3.20816E-01 3.62158E-24
3.24896E-01 3.52525E-24
3.28990E-01 3.43198E-24
3.33097E-01 3.34165E-24
3.37216E-01 3.25415E-24
3.41348E-01 3.16937E-24
3.45492E-01 3.08722E-24
3.49647E-01 3.00758E-24
3.53814E-01 2.93037E-24
3.57992E-01 2.85549E-24
3.62181E-01 2.78287E-24
3.66381E-01 2.71242E-24
3.70590E-01 2.64406E-24
3.74810E-01 2.57772E-24
3.79039E-01 2.51332E-24
3.83277E-01 2.45080E-24
3.87524E-01 2.39008E-24
3.91780E-01 2.33112E-24
3.96044E-01 2.27384E-24
4.00316E-01 2.21818E-24
4.04596E-01 2.16410E-24
4.08882E-01 2.11154E-24
4.13176E-01 2.06044E-24
4.17476E-01 2.01077E-24
4.21783E-01 1.96246E-24
4.26095E-01 1.91548E-24
4.30413E-01 1.86978E-24
4.34737E-01 1.82532E-24
4.39065E-01 1.78206E-24
4.43398E-01 1.73996E-24
4.47736E-01 1.69898E-24
4.52077E-01 1.65909E-24
4.56422E-01 1.62025E-24
4.60770E-01 1.58243E-24
4.65122E-01 1.54559E-24
4.69476E-01 1.50972E-24
4.73832E-01 1.47477E-24
4.78190E-01 1.44072E-24
4.82550E-01 1.40754E-24
4.86912E-01 1.37520E-24
4.91274E-01 1.34368E-24
4.95637E-01 1.31295E-24
5.00000E-01 1.28300E-24
5.04363E-01 1.25379E-24
5.08726E-01 1.22531E-24
5.13088E-01 1.19753E-24
5.17450E-01 1.17043E-24
5.21810E-01 1.14399E-24
5.26168E-01 1.11820E-24
5.30524E-01 1.09304E-24
5.34878E-01 1.06848E-24
5.39230E-01 1.04451E-24
5.43578E-01 1.02111E-24
5.47923E-01 9.98273E-25
5.52264E-01 9.75975E-25
5.56602E-01 9.54203E-25
5.60935E-01 9.32942E-25
5.65263E-01 9.12178E-25
5.69587E-01 8.91898E-25
5.73905E-01 8.72088E-25
5.78217E-01 8.52736E-25
5.82524E-01 8.33829E-25
5.86824E-01 8.15355E-25
5.91118E-01 7.97303E-25
5.95404E-01 7.79660E-25
5.99684E-01 7.62417E-25
6.03956E-01 7.45563E-25
6.08220E-01 7.29088E-25
6.12476E-01 7.12981E-25
6.16723E-01 6.97233E-25
6.20961E-01 6.81835E-25
6.25190E-01 6.66778E-25
6.29410E-01 6.52053E-25
6.33619E-01 6.37651E-25
6.37819E-01 6.23564E-25
6.42008E-01 6.09785E-25
6.46186E-01 5.96306E-25
6.50353E-01 5.83119E-25
6.54508E-01 5.70216E-25
6.58652E-01 5.57591E-25
6.62784E-01 5.45237E-25
6.66903E-01 5.33148E-25
6.71010E-01 5.21316E-25
6.75104E-01 5.09735E-25
6.79184E-01 4.98400E-25
6.83251E-01 4.87305E-25
6.87303E-01 4.76443E-25
6.91342E-01 4.65810E-25
6.95366E-01 4.55399E-25
6.99375E-01 4.45206E-25
7.03368E-01 4.35225E-25
7.07347E-01 4.25451E-25
7.11309E-01 4.15880E-25
7.15256E-01 4.06507E-25
7.19186E-01 3.97327E-25
7.23099E-01 3.88336E-25
7.26995E-01 3.79529E-25
7.30874E-01 3.70903E-25
7.34736E-01 3.62453E-25
7.38579E-01 3.54175E-25
7.42405E-01 3.46066E-25
7.46212E-01 3.38121E-25
7.50000E-01 3.30337E-25
7.53769E-01 3.22711E-25
7.57519E-01 3.15238E-25
7.61249E-01 3.07917E-25
7.64960E-01 3.00742E-25
7.68650E-01 2.93711E-25
7.72320E-01 2.86822E-25
7.75968E-01 2.80070E-25
7.79596E-01 2.73453E-25
7.83203E-01 2.66968E-25
7.86788E-01 2.60613E-25
7.90351E-01 2.54384E-25
7.93893E-01 2.48280E-25
7.97411E-01 2.42296E-25
8.00908E-01 2.36431E-25
8.04381E-01 2.30683E-25
8.07831E-01 2.25049E-25
8.11257E-01 2.19526E-25
8.14660E-01 2.14113E-25
8.18039E-01 2.08807E-25
8.21394E-01 2.03606E-25
8.24724E-01 1.98508E-25
8.28030E-01 1.93511E-25
8.31310E-01 1.88612E-25
8.34565E-01 1.83811E-25
8.37795E-01 1.79105E-25
8.40999E-01 1.74491E-25
8.44177E-01 1.69970E-25
8.47329E-01 1.65538E-25
8.50455E-01 1.61194E-25
8.53553E-01 1.56936E-25
8.56625E-01 1.52762E-25
8.59670E-01 1.48672E-25
8.62687E-01 1.44664E-25
8.65677E-01 1.40735E-25
8.68639E-01 1.36885E-25
8.71572E-01 1.33112E-25
8.74478E-01 1.29414E-25
8.77355E-01 1.25791E-25
8.80203E-01 1.22241E-25
8.83022E-01 1.18763E-25
8.85812E-01 1.15355E-25
8.88573E-01 1.12016E-25
8.91304E-01 1.08746E-25
8.94005E-01 1.05542E-25
8.96677E-01 1.02404E-25
8.99318E-01 9.93302E-26
9.01928E-01 9.63201E-26
9.04508E-01 9.33725E-26
9.07058E-01 9.04862E-26
9.09576E-01 8.76603E-26
9.12063E-01 8.48939E-26
9.14519E-01 8.21859E-26
9.16943E-01 7.95354E-26
9.19335E-01 7.69415E-26
9.21696E-01 7.44033E-26
9.24024E-01 7.19199E-26
9.26320E-01 6.94906E-26
9.28584E-01 6.71145E-26
9.30815E-01 6.47907E-26
9.33013E-01 6.25186E-26
9.35178E-01 6.02973E-26
9.37310E-01 5.81261E-26
9.39409E-01 5.60043E-26
9.41474E-01 5.39311E-26
9.43505E-01 5.19060E-26
9.45503E-01 4.99282E-26
9.47467E-01 4.79971E-26
9.49397E-01 4.61121E-26
9.51293E-01 4.42724E-26
9.53154E-01 4.24777E-26
9.54981E-01 4.07272E-26
9.56773E-01 3.90204E-26
9.58530E-01 3.73567E-26
9.60252E-01 3.57357E-26
9.61940E-01 3.41568E-26
9.63592E-01 3.26194E-26
9.65209E-01 3.11232E-26
9.66790E-01 2.96676E-26
9.68336E-01 2.82522E-26
9.69846E-01 2.68765E-26
9.71321E-01 2.55402E-26
9.72759E-01 2.42426E-26
9.74162E-01 2.29836E-26
9.75528E-01 2.17627E-26
9.76858E-01 2.05794E-26
9.78152E-01 1.94335E-26
9.79410E-01 1.83245E-26
9.80631E-01 1.72522E-26
9.81815E-01 1.62161E-26
9.82963E-01 1.52161E-26
9.84074E-01 1.42517E-26
9.85148E-01 1.33227E-26
9.86185E-01 1.24288E-26
9.87185E-01 1.15697E-26
9.88148E-01 1.07452E-26
9.89074E-01 9.95496E-27
9.89962E-01 9.19879E-27
9.90814E-01 8.47646E-27
9.91627E-01 7.78774E-27
9.92404E-01 7.13243E-27
9.93143E-01 6.51032E-27
9.93844E-01 5.92123E-27
9.94508E-01 5.36498E-27
9.95134E-01 4.84141E-27
9.95722E-01 4.35035E-27
9.96273E-01 3.89165E-27
9.96786E-01 3.46519E-27
9.97261E-01 3.07083E-27
9.97698E-01 2.70845E-27
9.98097E-01 2.37794E-27
9.98459E-01 2.07921E-27
9.98782E-01 1.81216E-27
9.99067E-01 1.57672E-27
9.99315E-01 1.37281E-27
9.99524E-01 1.20038E-27
9.99695E-01 1.05936E-27
9.99829E-01 9.49731E-28
9.99924E-01 8.71445E-28
9.99981E-01 8.24483E-28
1.00000E+00 8.08831E-28
