 #
 # Subroutine ELSEPA. Elastic scattering of electrons and positrons
 #                    by neutral atoms and positive ions
 #
 # Projectile: electron
 # Kinetic energy = 3.00000E+08 eV = 1.10248E+07 a.u.
 #
 # WARNING: High-energy factorization with free-atom DF screening.
 #          Absorption, polarization and exchange corrections are
 #          switched off.
 #          Phase shifts are calculated for the bare nucleus.
 #          Scattering amplitudes are not evaluated.
 #
 # Element: Hf,  Z =  72,  atomic weight = 1.78490E+02 g/mol
 #
 # Nuclear model: Fermi distribution
 #                Average radius = 6.02451E-13 cm
 #                Skin thickness = 5.46000E-14 cm
 #
 # Number of electrons = 72
 #
 # Total elastic cross section = 7.31697E-18 cm**2 = 2.61294E-01 a0**2
 # 1st transport cross section = 1.09476E-25 cm**2 = 3.90945E-09 a0**2
 # 2nd transport cross section = 3.28089E-25 cm**2 = 1.17163E-08 a0**2
 #
 #
 # Differential cross section:                       MU=(1-COS(THETA))/2
 #
 #  THETA        MU          DCS          DCS        Sherman      error
 #  (deg)                 (cm**2/sr)   (a0**2/sr)    function
 #----------------------------------------------------------------------
0.00000E+00 5.70587E-09
7.61557E-13 5.54433E-09
1.18994E-12 5.45685E-09
1.71346E-12 5.35304E-09
2.33225E-12 5.23455E-09
3.04617E-12 5.10298E-09
3.85530E-12 4.96095E-09
4.75964E-12 4.80953E-09
5.75917E-12 4.65168E-09
6.85391E-12 4.48812E-09
8.04379E-12 4.32180E-09
9.32893E-12 4.15347E-09
1.07092E-11 3.98528E-09
1.21847E-11 3.81821E-09
1.37554E-11 3.65351E-09
1.54213E-11 3.49232E-09
1.71823E-11 3.33509E-09
1.90386E-11 3.18301E-09
2.09900E-11 3.03587E-09
2.30367E-11 2.89480E-09
2.51785E-11 2.75932E-09
2.74156E-11 2.63015E-09
2.97478E-11 2.50694E-09
3.21752E-11 2.38988E-09
3.46979E-11 2.27879E-09
3.73157E-11 2.17349E-09
4.00286E-11 2.07393E-09
4.28368E-11 1.97969E-09
4.57402E-11 1.89082E-09
4.87388E-11 1.80671E-09
5.18325E-11 1.72750E-09
5.50215E-11 1.65259E-09
5.83057E-11 1.58201E-09
6.16850E-11 1.51532E-09
6.51595E-11 1.45239E-09
6.87293E-11 1.39297E-09
7.23943E-11 1.33676E-09
7.61544E-11 1.28373E-09
1.18991E-10 8.83127E-10
1.71347E-10 6.35524E-10
2.33223E-10 4.71115E-10
3.04617E-10 3.52070E-10
3.85531E-10 2.73458E-10
4.75965E-10 2.12100E-10
5.75917E-10 1.69202E-10
6.85389E-10 1.34657E-10
8.04380E-10 1.09482E-10
9.32891E-10 8.93540E-11
1.07092E-09 7.38837E-11
1.21847E-09 6.14911E-11
1.37554E-09 5.15587E-11
1.54213E-09 4.35674E-11
1.71823E-09 3.69486E-11
1.90386E-09 3.16007E-11
2.09900E-09 2.70595E-11
2.30367E-09 2.33582E-11
2.51785E-09 2.01897E-11
2.74156E-09 1.75629E-11
2.97478E-09 1.53188E-11
3.21752E-09 1.34244E-11
3.46978E-09 1.18061E-11
3.73156E-09 1.04204E-11
4.00286E-09 9.23430E-12
4.28368E-09 8.20707E-12
4.57402E-09 7.32438E-12
4.87388E-09 6.55266E-12
5.18326E-09 5.88497E-12
5.50215E-09 5.29865E-12
5.83057E-09 4.78694E-12
6.16850E-09 4.33673E-12
6.51596E-09 3.93858E-12
6.87293E-09 3.58492E-12
7.23942E-09 3.27086E-12
7.61544E-09 2.99183E-12
1.18991E-08 1.36197E-12
1.71347E-08 7.08582E-13
2.33223E-08 4.03814E-13
3.04617E-08 2.46220E-13
3.85531E-08 1.58420E-13
4.75965E-08 1.06517E-13
5.75917E-08 7.42505E-14
6.85389E-08 5.33124E-14
8.04380E-08 3.92755E-14
9.32891E-08 2.95716E-14
1.07092E-07 2.26887E-14
1.21847E-07 1.77007E-14
1.37554E-07 1.40105E-14
1.54213E-07 1.12344E-14
1.71823E-07 9.11369E-15
1.90386E-07 7.46953E-15
2.09900E-07 6.18009E-15
2.30367E-07 5.15700E-15
2.51785E-07 4.33667E-15
2.74156E-07 3.67308E-15
2.97478E-07 3.13142E-15
3.21752E-07 2.68586E-15
3.46978E-07 2.31676E-15
3.73156E-07 2.00876E-15
4.00286E-07 1.75025E-15
4.28368E-07 1.53198E-15
4.57402E-07 1.34663E-15
4.87388E-07 1.18848E-15
5.18325E-07 1.05285E-15
5.50215E-07 9.36014E-16
5.83057E-07 8.34945E-16
6.16850E-07 7.47143E-16
6.51596E-07 6.70585E-16
6.87293E-07 6.03588E-16
7.23942E-07 5.44748E-16
7.61543E-07 4.92909E-16
1.18991E-06 2.03944E-16
1.71347E-06 9.90463E-17
2.33223E-06 5.37392E-17
3.04617E-06 3.16234E-17
3.85531E-06 1.98013E-17
4.75964E-06 1.30221E-17
5.75916E-06 8.91082E-18
6.85388E-06 6.30117E-18
8.04378E-06 4.58052E-18
9.32888E-06 3.40904E-18
1.07092E-05 2.58920E-18
1.21846E-05 2.00164E-18
1.37553E-05 1.57168E-18
1.54212E-05 1.25121E-18
1.71822E-05 1.00841E-18
1.90385E-05 8.21322E-19
2.09899E-05 6.76424E-19
2.30365E-05 5.62031E-19
2.51783E-05 4.70705E-19
2.74153E-05 3.97100E-19
2.97475E-05 3.37290E-19
3.21749E-05 2.88327E-19
3.46974E-05 2.47959E-19
3.73152E-05 2.14446E-19
4.00281E-05 1.86432E-19
4.28362E-05 1.62858E-19
4.57395E-05 1.42895E-19
4.87380E-05 1.25894E-19
5.18317E-05 1.11341E-19
5.50205E-05 9.88255E-20
5.83045E-05 8.80189E-20
6.16838E-05 7.86512E-20
6.51582E-05 7.05002E-20
6.87277E-05 6.33814E-20
7.23925E-05 5.71411E-20
7.61524E-05 5.19879E-20
9.21439E-05 3.55824E-20
1.09658E-04 2.51739E-20
1.28695E-04 1.83148E-20
1.49255E-04 1.36430E-20
1.71338E-04 1.03731E-20
1.94942E-04 8.02798E-21
2.20070E-04 6.31068E-21
2.46720E-04 5.02964E-21
2.74892E-04 4.05818E-21
3.04586E-04 3.31050E-21
3.35803E-04 2.72737E-21
3.68542E-04 2.26719E-21
4.02802E-04 1.90008E-21
4.38585E-04 1.60430E-21
4.75889E-04 1.36383E-21
5.14715E-04 1.16669E-21
5.55063E-04 1.00383E-21
5.96931E-04 8.68330E-22
6.40321E-04 7.54848E-22
6.85233E-04 6.59225E-22
7.31665E-04 5.78189E-22
7.79618E-04 5.09148E-22
8.29092E-04 4.50033E-22
8.80086E-04 3.99179E-22
9.32601E-04 3.55240E-22
9.86636E-04 3.17118E-22
1.04219E-03 2.83913E-22
1.09927E-03 2.54886E-22
1.15786E-03 2.29421E-22
1.21797E-03 2.07008E-22
1.27961E-03 1.87219E-22
1.34276E-03 1.69696E-22
1.40743E-03 1.54134E-22
1.47362E-03 1.40278E-22
1.54133E-03 1.27909E-22
1.61056E-03 1.16841E-22
1.68131E-03 1.06913E-22
1.75357E-03 9.79886E-23
1.82735E-03 8.99491E-23
1.90265E-03 8.26922E-23
1.97947E-03 7.61289E-23
2.05780E-03 7.01818E-23
2.13765E-03 6.47836E-23
2.21902E-03 5.98751E-23
2.30190E-03 5.54046E-23
2.38630E-03 5.13266E-23
2.47222E-03 4.76010E-23
2.55965E-03 4.41924E-23
2.64859E-03 4.10693E-23
2.73905E-03 3.82042E-23
2.83103E-03 3.55721E-23
2.92452E-03 3.31511E-23
3.01952E-03 3.09217E-23
3.11604E-03 2.88661E-23
3.21407E-03 2.69689E-23
3.31362E-03 2.52157E-23
3.41468E-03 2.35941E-23
3.51725E-03 2.20926E-23
3.62133E-03 2.07009E-23
3.72692E-03 1.94099E-23
3.83403E-03 1.82110E-23
3.94265E-03 1.70969E-23
4.05278E-03 1.60605E-23
4.16442E-03 1.50956E-23
4.27757E-03 1.41967E-23
4.39223E-03 1.33584E-23
4.50840E-03 1.25763E-23
4.62608E-03 1.18458E-23
4.74527E-03 1.11633E-23
4.86597E-03 1.05250E-23
4.98817E-03 9.92771E-24
5.11188E-03 9.36845E-24
5.23711E-03 8.84445E-24
5.36383E-03 8.35319E-24
5.49207E-03 7.89236E-24
5.62181E-03 7.45982E-24
5.75306E-03 7.05361E-24
5.88581E-03 6.67192E-24
6.02007E-03 6.31309E-24
6.15583E-03 5.97556E-24
6.29310E-03 5.65792E-24
6.43187E-03 5.35886E-24
6.57214E-03 5.07716E-24
6.71392E-03 4.81168E-24
6.85720E-03 4.56138E-24
7.00198E-03 4.32530E-24
7.14827E-03 4.10254E-24
7.29605E-03 3.89225E-24
7.44534E-03 3.69367E-24
7.59612E-03 3.50606E-24
7.97965E-03 3.08077E-24
8.37255E-03 2.71071E-24
8.77480E-03 2.38803E-24
9.18641E-03 2.10614E-24
9.60736E-03 1.85944E-24
1.00376E-02 1.64318E-24
1.04773E-02 1.45331E-24
1.09262E-02 1.28638E-24
1.13844E-02 1.13942E-24
1.18520E-02 1.00989E-24
1.23288E-02 8.95591E-25
1.28150E-02 7.94625E-25
1.33104E-02 7.05355E-25
1.38150E-02 6.26356E-25
1.43290E-02 5.56391E-25
1.48521E-02 4.94384E-25
1.53845E-02 4.39393E-25
1.59262E-02 3.90595E-25
1.64770E-02 3.47272E-25
1.70371E-02 3.08790E-25
1.76063E-02 2.74596E-25
1.81848E-02 2.44202E-25
1.87724E-02 2.17176E-25
1.93692E-02 1.93141E-25
1.99751E-02 1.71762E-25
2.05901E-02 1.52742E-25
2.12143E-02 1.35820E-25
2.18476E-02 1.20763E-25
2.24900E-02 1.07366E-25
2.31415E-02 9.54467E-26
2.38021E-02 8.48425E-26
2.44717E-02 7.54096E-26
2.51504E-02 6.70199E-26
2.58382E-02 5.95594E-26
2.65349E-02 5.29267E-26
2.72407E-02 4.70313E-26
2.79555E-02 4.17929E-26
2.86793E-02 3.71395E-26
2.94120E-02 3.30072E-26
3.01537E-02 2.93390E-26
3.09043E-02 2.60838E-26
3.16639E-02 2.31962E-26
3.24324E-02 2.06358E-26
3.32098E-02 1.83664E-26
3.39961E-02 1.63555E-26
3.47912E-02 1.45746E-26
3.55952E-02 1.29978E-26
3.64081E-02 1.16023E-26
3.72297E-02 1.03675E-26
3.80602E-02 9.27537E-27
3.88995E-02 8.30957E-27
3.97476E-02 7.45565E-27
4.06044E-02 6.70072E-27
4.14700E-02 6.03333E-27
4.23443E-02 5.44326E-27
4.32273E-02 4.92147E-27
4.41190E-02 4.45988E-27
4.50194E-02 4.05136E-27
4.59284E-02 3.68957E-27
4.68461E-02 3.36887E-27
4.87074E-02 2.83147E-27
5.06030E-02 2.40588E-27
5.25328E-02 2.06620E-27
5.44967E-02 1.79235E-27
5.64946E-02 1.56885E-27
5.85262E-02 1.38386E-27
6.05914E-02 1.22836E-27
6.26901E-02 1.09555E-27
6.48222E-02 9.80346E-28
6.69873E-02 8.78963E-28
6.91854E-02 7.88625E-28
7.14163E-02 7.07306E-28
7.36799E-02 6.33541E-28
7.59760E-02 5.66274E-28
7.83043E-02 5.04743E-28
8.06647E-02 4.48395E-28
8.30571E-02 3.96819E-28
8.54812E-02 3.49698E-28
8.79369E-02 3.06771E-28
9.04240E-02 2.67812E-28
9.29422E-02 2.32613E-28
9.54915E-02 2.00971E-28
9.80716E-02 1.72682E-28
1.00682E-01 1.47540E-28
1.03323E-01 1.25335E-28
1.05995E-01 1.05851E-28
1.08696E-01 8.88741E-29
1.11427E-01 7.41874E-29
1.14188E-01 6.15784E-29
1.16978E-01 5.08391E-29
1.19797E-01 4.17689E-29
1.22645E-01 3.41762E-29
1.25522E-01 2.78800E-29
1.28428E-01 2.27113E-29
1.31361E-01 1.85138E-29
1.34323E-01 1.51444E-29
1.37313E-01 1.24735E-29
1.40330E-01 1.03848E-29
1.43375E-01 8.77524E-30
1.46447E-01 7.55418E-30
1.49545E-01 6.64301E-30
1.52671E-01 5.97426E-30
1.55823E-01 5.49075E-30
1.59001E-01 5.14472E-30
1.62205E-01 4.89684E-30
1.65435E-01 4.71535E-30
1.68690E-01 4.57510E-30
1.71970E-01 4.45669E-30
1.75276E-01 4.34565E-30
1.78606E-01 4.23165E-30
1.81961E-01 4.10783E-30
1.85340E-01 3.97010E-30
1.88743E-01 3.81663E-30
1.92169E-01 3.64729E-30
1.95619E-01 3.46325E-30
1.99092E-01 3.26660E-30
2.02589E-01 3.06001E-30
2.06107E-01 2.84648E-30
2.09649E-01 2.62916E-30
2.13212E-01 2.41112E-30
2.16797E-01 2.19530E-30
2.20404E-01 1.98435E-30
2.24032E-01 1.78062E-30
2.27680E-01 1.58607E-30
2.31350E-01 1.40231E-30
2.35040E-01 1.23057E-30
2.38751E-01 1.07170E-30
2.42481E-01 9.26246E-31
2.46231E-01 7.94408E-31
2.50000E-01 6.76133E-31
2.53788E-01 5.71127E-31
2.57595E-01 4.78900E-31
2.61421E-01 3.98801E-31
2.65264E-01 3.30056E-31
2.69126E-01 2.71801E-31
2.73005E-01 2.23117E-31
2.76901E-01 1.83051E-31
2.80814E-01 1.50646E-31
2.84744E-01 1.24962E-31
2.88691E-01 1.05087E-31
2.92653E-01 9.01573E-32
2.96632E-01 7.93646E-32
3.00625E-01 7.19645E-32
3.04634E-01 6.72816E-32
3.08658E-01 6.47118E-32
3.12697E-01 6.37231E-32
3.16749E-01 6.38542E-32
3.20816E-01 6.47126E-32
3.24896E-01 6.59705E-32
3.28990E-01 6.73604E-32
3.33097E-01 6.86704E-32
3.37216E-01 6.97387E-32
3.41348E-01 7.04477E-32
3.45492E-01 7.07187E-32
3.49647E-01 7.05064E-32
3.53814E-01 6.97935E-32
3.57992E-01 6.85856E-32
3.62181E-01 6.69066E-32
3.66381E-01 6.47946E-32
3.70590E-01 6.22979E-32
3.74810E-01 5.94720E-32
3.79039E-01 5.63759E-32
3.83277E-01 5.30707E-32
3.87524E-01 4.96164E-32
3.91780E-01 4.60713E-32
3.96044E-01 4.24898E-32
4.00316E-01 3.89220E-32
4.04596E-01 3.54126E-32
4.08882E-01 3.20007E-32
4.13176E-01 2.87198E-32
4.17476E-01 2.55971E-32
4.21783E-01 2.26544E-32
4.26095E-01 1.99079E-32
4.30413E-01 1.73686E-32
4.34737E-01 1.50429E-32
4.39065E-01 1.29328E-32
4.43398E-01 1.10369E-32
4.47736E-01 9.35016E-33
4.52077E-01 7.86519E-33
4.56422E-01 6.57225E-33
4.60770E-01 5.45987E-33
4.65122E-01 4.51535E-33
4.69476E-01 3.72505E-33
4.73832E-01 3.07486E-33
4.78190E-01 2.55047E-33
4.82550E-01 2.13766E-33
4.86912E-01 1.82253E-33
4.91274E-01 1.59174E-33
4.95637E-01 1.43260E-33
5.00000E-01 1.33326E-33
5.04363E-01 1.28276E-33
5.08726E-01 1.27108E-33
5.13088E-01 1.28922E-33
5.17450E-01 1.32917E-33
5.21810E-01 1.38390E-33
5.26168E-01 1.44734E-33
5.30524E-01 1.51435E-33
5.34878E-01 1.58065E-33
5.39230E-01 1.64276E-33
5.43578E-01 1.69797E-33
5.47923E-01 1.74419E-33
5.52264E-01 1.77998E-33
5.56602E-01 1.80440E-33
5.60935E-01 1.81698E-33
5.65263E-01 1.81763E-33
5.69587E-01 1.80661E-33
5.73905E-01 1.78442E-33
5.78217E-01 1.75179E-33
5.82524E-01 1.70962E-33
5.86824E-01 1.65889E-33
5.91118E-01 1.60071E-33
5.95404E-01 1.53617E-33
5.99684E-01 1.46642E-33
6.03956E-01 1.39258E-33
6.08220E-01 1.31572E-33
6.12476E-01 1.23686E-33
6.16723E-01 1.15697E-33
6.20961E-01 1.07693E-33
6.25190E-01 9.97528E-34
6.29410E-01 9.19485E-34
6.33619E-01 8.43416E-34
6.37819E-01 7.69854E-34
6.42008E-01 6.99241E-34
6.46186E-01 6.31938E-34
6.50353E-01 5.68224E-34
6.54508E-01 5.08304E-34
6.58652E-01 4.52316E-34
6.62784E-01 4.00333E-34
6.66903E-01 3.52376E-34
6.71010E-01 3.08411E-34
6.75104E-01 2.68368E-34
6.79184E-01 2.32134E-34
6.83251E-01 1.99570E-34
6.87303E-01 1.70511E-34
6.91342E-01 1.44772E-34
6.95366E-01 1.22154E-34
6.99375E-01 1.02447E-34
7.03368E-01 8.54370E-35
7.07347E-01 7.09063E-35
7.11309E-01 5.86382E-35
7.15256E-01 4.84194E-35
7.19186E-01 4.00421E-35
7.23099E-01 3.33064E-35
7.26995E-01 2.80213E-35
7.30874E-01 2.40061E-35
7.34736E-01 2.10912E-35
7.38579E-01 1.91188E-35
7.42405E-01 1.79431E-35
7.46212E-01 1.74305E-35
7.50000E-01 1.74597E-35
7.53769E-01 1.79212E-35
7.57519E-01 1.87173E-35
7.61249E-01 1.97612E-35
7.64960E-01 2.09769E-35
7.68650E-01 2.22983E-35
7.72320E-01 2.36690E-35
7.75968E-01 2.50409E-35
7.79596E-01 2.63741E-35
7.83203E-01 2.76361E-35
7.86788E-01 2.88008E-35
7.90351E-01 2.98482E-35
7.93893E-01 3.07635E-35
7.97411E-01 3.15365E-35
8.00908E-01 3.21614E-35
8.04381E-01 3.26355E-35
8.07831E-01 3.29591E-35
8.11257E-01 3.31354E-35
8.14660E-01 3.31693E-35
8.18039E-01 3.30675E-35
8.21394E-01 3.28379E-35
8.24724E-01 3.24895E-35
8.28030E-01 3.20319E-35
8.31310E-01 3.14753E-35
8.34565E-01 3.08300E-35
8.37795E-01 3.01063E-35
8.40999E-01 2.93145E-35
8.44177E-01 2.84645E-35
8.47329E-01 2.75662E-35
8.50455E-01 2.66286E-35
8.53553E-01 2.56605E-35
8.56625E-01 2.46701E-35
8.59670E-01 2.36649E-35
8.62687E-01 2.26519E-35
8.65677E-01 2.16375E-35
8.68639E-01 2.06275E-35
8.71572E-01 1.96268E-35
8.74478E-01 1.86403E-35
8.77355E-01 1.76716E-35
8.80203E-01 1.67245E-35
8.83022E-01 1.58017E-35
8.85812E-01 1.49058E-35
8.88573E-01 1.40387E-35
8.91304E-01 1.32021E-35
8.94005E-01 1.23971E-35
8.96677E-01 1.16247E-35
8.99318E-01 1.08854E-35
9.01928E-01 1.01794E-35
9.04508E-01 9.50679E-36
9.07058E-01 8.86739E-36
9.09576E-01 8.26087E-36
9.12063E-01 7.68651E-36
9.14519E-01 7.14378E-36
9.16943E-01 6.63175E-36
9.19335E-01 6.14959E-36
9.21696E-01 5.69637E-36
9.24024E-01 5.27090E-36
9.26320E-01 4.87215E-36
9.28584E-01 4.49903E-36
9.30815E-01 4.15032E-36
9.33013E-01 3.82494E-36
9.35178E-01 3.52170E-36
9.37310E-01 3.23948E-36
9.39409E-01 2.97713E-36
9.41474E-01 2.73353E-36
9.43505E-01 2.50763E-36
9.45503E-01 2.29839E-36
9.47467E-01 2.10476E-36
9.49397E-01 1.92578E-36
9.51293E-01 1.76055E-36
9.53154E-01 1.60812E-36
9.54981E-01 1.46767E-36
9.56773E-01 1.33836E-36
9.58530E-01 1.21943E-36
9.60252E-01 1.11015E-36
9.61940E-01 1.00981E-36
9.63592E-01 9.17778E-37
9.65209E-01 8.33430E-37
9.66790E-01 7.56183E-37
9.68336E-01 6.85499E-37
9.69846E-01 6.20887E-37
9.71321E-01 5.61872E-37
9.72759E-01 5.07981E-37
9.74162E-01 4.58827E-37
9.75528E-01 4.14040E-37
9.76858E-01 3.73237E-37
9.78152E-01 3.36098E-37
9.79410E-01 3.02318E-37
9.80631E-01 2.71615E-37
9.81815E-01 2.43732E-37
9.82963E-01 2.18428E-37
9.84074E-01 1.95465E-37
9.85148E-01 1.74658E-37
9.86185E-01 1.55815E-37
9.87185E-01 1.38749E-37
9.88148E-01 1.23313E-37
9.89074E-01 1.09358E-37
9.89962E-01 9.67624E-38
9.90814E-01 8.53847E-38
9.91627E-01 7.51291E-38
9.92404E-01 6.58887E-38
9.93143E-01 5.75683E-38
9.93844E-01 5.00928E-38
9.94508E-01 4.33742E-38
9.95134E-01 3.73588E-38
9.95722E-01 3.19646E-38
9.96273E-01 2.71531E-38
9.96786E-01 2.28653E-38
9.97261E-01 1.90594E-38
9.97698E-01 1.56913E-38
9.98097E-01 1.27317E-38
9.98459E-01 1.01391E-38
9.98782E-01 7.89112E-39
9.99067E-01 5.96669E-39
9.99315E-01 4.33304E-39
9.99524E-01 2.98191E-39
9.99695E-01 1.89906E-39
9.99829E-01 1.06719E-39
9.99924E-01 4.79133E-40
9.99981E-01 1.28179E-40
1.00000E+00 1.10428E-41
