 #
 # Subroutine ELSEPA. Elastic scattering of electrons and positrons
 #                    by neutral atoms and positive ions
 #
 # Projectile: electron
 # Kinetic energy = 3.00000E+07 eV = 1.10248E+06 a.u.
 #
 # WARNING: High-energy factorization with free-atom DF screening.
 #          Absorption, polarization and exchange corrections are
 #          switched off.
 #          Phase shifts are calculated for the bare nucleus.
 #          Scattering amplitudes are not evaluated.
 #
 # Element: Hf,  Z =  72,  atomic weight = 1.78490E+02 g/mol
 #
 # Nuclear model: Fermi distribution
 #                Average radius = 6.02451E-13 cm
 #                Skin thickness = 5.46000E-14 cm
 #
 # Number of electrons = 72
 #
 # Total elastic cross section = 7.32174E-18 cm**2 = 2.61464E-01 a0**2
 # 1st transport cross section = 1.06662E-23 cm**2 = 3.80897E-07 a0**2
 # 2nd transport cross section = 3.06409E-23 cm**2 = 1.09421E-06 a0**2
 #
 #
 # Differential cross section:                       MU=(1-COS(THETA))/2
 #
 #  THETA        MU          DCS          DCS        Sherman      error
 #  (deg)                 (cm**2/sr)   (a0**2/sr)    function
 #----------------------------------------------------------------------
0.00000E+00 5.88185E-11
7.61557E-13 5.88008E-11
1.18994E-12 5.87909E-11
1.71346E-12 5.87788E-11
2.33225E-12 5.87645E-11
3.04617E-12 5.87480E-11
3.85530E-12 5.87293E-11
4.75964E-12 5.87085E-11
5.75917E-12 5.86855E-11
6.85391E-12 5.86603E-11
8.04379E-12 5.86330E-11
9.32893E-12 5.86035E-11
1.07092E-11 5.85718E-11
1.21847E-11 5.85380E-11
1.37554E-11 5.85021E-11
1.54213E-11 5.84640E-11
1.71823E-11 5.84238E-11
1.90386E-11 5.83815E-11
2.09900E-11 5.83370E-11
2.30367E-11 5.82905E-11
2.51785E-11 5.82419E-11
2.74156E-11 5.81911E-11
2.97478E-11 5.81383E-11
3.21752E-11 5.80834E-11
3.46979E-11 5.80265E-11
3.73157E-11 5.79675E-11
4.00286E-11 5.79065E-11
4.28368E-11 5.78434E-11
4.57402E-11 5.77784E-11
4.87388E-11 5.77113E-11
5.18325E-11 5.76422E-11
5.50215E-11 5.75712E-11
5.83057E-11 5.74982E-11
6.16850E-11 5.74232E-11
6.51595E-11 5.73463E-11
6.87293E-11 5.72675E-11
7.23943E-11 5.71867E-11
7.61544E-11 5.71041E-11
1.18991E-10 5.61765E-11
1.71347E-10 5.50767E-11
2.33223E-10 5.38228E-11
3.04617E-10 5.24320E-11
3.85531E-10 5.09333E-11
4.75965E-10 4.93364E-11
5.75917E-10 4.76737E-11
6.85389E-10 4.59564E-11
8.04380E-10 4.42099E-11
9.32891E-10 4.24489E-11
1.07092E-09 4.06889E-11
1.21847E-09 3.89474E-11
1.37554E-09 3.72302E-11
1.54213E-09 3.55562E-11
1.71823E-09 3.39228E-11
1.90386E-09 3.23469E-11
2.09900E-09 3.08262E-11
2.30367E-09 2.93685E-11
2.51785E-09 2.79740E-11
2.74156E-09 2.66438E-11
2.97478E-09 2.53795E-11
3.21752E-09 2.41778E-11
3.46978E-09 2.30411E-11
3.73156E-09 2.19632E-11
4.00286E-09 2.09463E-11
4.28368E-09 1.99849E-11
4.57402E-09 1.90783E-11
4.87388E-09 1.82232E-11
5.18326E-09 1.74164E-11
5.50215E-09 1.66566E-11
5.83057E-09 1.59388E-11
6.16850E-09 1.52636E-11
6.51596E-09 1.46244E-11
6.87293E-09 1.40228E-11
7.23942E-09 1.34534E-11
7.61544E-09 1.29161E-11
1.18991E-08 8.86846E-12
1.71347E-08 6.36873E-12
2.33223E-08 4.71182E-12
3.04617E-08 3.51149E-12
3.85531E-08 2.73208E-12
4.75965E-08 2.10902E-12
5.75917E-08 1.67589E-12
6.85389E-08 1.33587E-12
8.04380E-08 1.08261E-12
9.32891E-08 8.84841E-13
1.07092E-07 7.29542E-13
1.21847E-07 6.07944E-13
1.37554E-07 5.08379E-13
1.54213E-07 4.29986E-13
1.71823E-07 3.63800E-13
1.90386E-07 3.10742E-13
2.09900E-07 2.66062E-13
2.30367E-07 2.29225E-13
2.51785E-07 1.98265E-13
2.74156E-07 1.72185E-13
2.97478E-07 1.50272E-13
3.21752E-07 1.31511E-13
3.46978E-07 1.15708E-13
3.73156E-07 1.02027E-13
4.00286E-07 9.03991E-14
4.28368E-07 8.03280E-14
4.57402E-07 7.16544E-14
4.87388E-07 6.41233E-14
5.18325E-07 5.75649E-14
5.50215E-07 5.18484E-14
5.83057E-07 4.68329E-14
6.16850E-07 4.24412E-14
6.51596E-07 3.85220E-14
6.87293E-07 3.50672E-14
7.23942E-07 3.19954E-14
7.61543E-07 2.92655E-14
1.18991E-06 1.33205E-14
1.71347E-06 6.92365E-15
2.33223E-06 3.94286E-15
3.04617E-06 2.40250E-15
3.85531E-06 1.54543E-15
4.75964E-06 1.03920E-15
5.75916E-06 7.24055E-16
6.85388E-06 5.19949E-16
8.04378E-06 3.83062E-16
9.32888E-06 2.88380E-16
1.07092E-05 2.21293E-16
1.21846E-05 1.72633E-16
1.37553E-05 1.36653E-16
1.54212E-05 1.09591E-16
1.71822E-05 8.88971E-17
1.90385E-05 7.28308E-17
2.09899E-05 6.02990E-17
2.30365E-05 5.03389E-17
2.51783E-05 4.23414E-17
2.74153E-05 3.58577E-17
2.97475E-05 3.05639E-17
3.21749E-05 2.62104E-17
3.46974E-05 2.26059E-17
3.73152E-05 1.96028E-17
4.00281E-05 1.70834E-17
4.28362E-05 1.49567E-17
4.57395E-05 1.31507E-17
4.87380E-05 1.16084E-17
5.18317E-05 1.02849E-17
5.50205E-05 9.14421E-18
5.83045E-05 8.15713E-18
6.16838E-05 7.29987E-18
6.51582E-05 6.55249E-18
6.87277E-05 5.89870E-18
7.23925E-05 5.32464E-18
7.61524E-05 4.81865E-18
9.21439E-05 3.30818E-18
1.09658E-04 2.34611E-18
1.28695E-04 1.71013E-18
1.49255E-04 1.27587E-18
1.71338E-04 9.71279E-19
1.94942E-04 7.52465E-19
2.20070E-04 5.92002E-19
2.46720E-04 4.72166E-19
2.74892E-04 3.81201E-19
3.04586E-04 3.11150E-19
3.35803E-04 2.56493E-19
3.68542E-04 2.13341E-19
4.02802E-04 1.78905E-19
4.38585E-04 1.51154E-19
4.75889E-04 1.28589E-19
5.14715E-04 1.10088E-19
5.55063E-04 9.48034E-20
5.96931E-04 8.20863E-20
6.40321E-04 7.14358E-20
6.85233E-04 6.24614E-20
7.31665E-04 5.48561E-20
7.79618E-04 4.83764E-20
8.29092E-04 4.28282E-20
8.80086E-04 3.80550E-20
9.32601E-04 3.39304E-20
9.86636E-04 3.03514E-20
1.04219E-03 2.72334E-20
1.09927E-03 2.45071E-20
1.15786E-03 2.21146E-20
1.21797E-03 2.00080E-20
1.27961E-03 1.81473E-20
1.34276E-03 1.64988E-20
1.40743E-03 1.50340E-20
1.47362E-03 1.37289E-20
1.54133E-03 1.25630E-20
1.61056E-03 1.15188E-20
1.68131E-03 1.05813E-20
1.75357E-03 9.73775E-21
1.82735E-03 8.97702E-21
1.90265E-03 8.28952E-21
1.97947E-03 7.66691E-21
2.05780E-03 7.10199E-21
2.13765E-03 6.58844E-21
2.21902E-03 6.12073E-21
2.30190E-03 5.69405E-21
2.38630E-03 5.30413E-21
2.47222E-03 4.94722E-21
2.55965E-03 4.62001E-21
2.64859E-03 4.31959E-21
2.73905E-03 4.04335E-21
2.83103E-03 3.78900E-21
2.92452E-03 3.55448E-21
3.01952E-03 3.33794E-21
3.11604E-03 3.13777E-21
3.21407E-03 2.95248E-21
3.31362E-03 2.78078E-21
3.41468E-03 2.62147E-21
3.51725E-03 2.47350E-21
3.62133E-03 2.33591E-21
3.72692E-03 2.20783E-21
3.83403E-03 2.08847E-21
3.94265E-03 1.97715E-21
4.05278E-03 1.87321E-21
4.16442E-03 1.77606E-21
4.27757E-03 1.68519E-21
4.39223E-03 1.60011E-21
4.50840E-03 1.52038E-21
4.62608E-03 1.44560E-21
4.74527E-03 1.37541E-21
4.86597E-03 1.30946E-21
4.98817E-03 1.24746E-21
5.11188E-03 1.18912E-21
5.23711E-03 1.13418E-21
5.36383E-03 1.08242E-21
5.49207E-03 1.03360E-21
5.62181E-03 9.87531E-22
5.75306E-03 9.44028E-22
5.88581E-03 9.02920E-22
6.02007E-03 8.64049E-22
6.15583E-03 8.27269E-22
6.29310E-03 7.92448E-22
6.43187E-03 7.59459E-22
6.57214E-03 7.28189E-22
6.71392E-03 6.98529E-22
6.85720E-03 6.70382E-22
7.00198E-03 6.43654E-22
7.14827E-03 6.18261E-22
7.29605E-03 5.94122E-22
7.44534E-03 5.71164E-22
7.59612E-03 5.49317E-22
7.97965E-03 4.99151E-22
8.37255E-03 4.54648E-22
8.77480E-03 4.15052E-22
9.18641E-03 3.79725E-22
9.60736E-03 3.48123E-22
1.00376E-02 3.19781E-22
1.04773E-02 2.94301E-22
1.09262E-02 2.71340E-22
1.13844E-02 2.50604E-22
1.18520E-02 2.31837E-22
1.23288E-02 2.14816E-22
1.28150E-02 1.99350E-22
1.33104E-02 1.85270E-22
1.38150E-02 1.72427E-22
1.43290E-02 1.60693E-22
1.48521E-02 1.49954E-22
1.53845E-02 1.40109E-22
1.59262E-02 1.31070E-22
1.64770E-02 1.22758E-22
1.70371E-02 1.15104E-22
1.76063E-02 1.08045E-22
1.81848E-02 1.01527E-22
1.87724E-02 9.54992E-23
1.93692E-02 8.99184E-23
1.99751E-02 8.47449E-23
2.05901E-02 7.99431E-23
2.12143E-02 7.54813E-23
2.18476E-02 7.13305E-23
2.24900E-02 6.74649E-23
2.31415E-02 6.38612E-23
2.38021E-02 6.04980E-23
2.44717E-02 5.73562E-23
2.51504E-02 5.44183E-23
2.58382E-02 5.16687E-23
2.65349E-02 4.90927E-23
2.72407E-02 4.66774E-23
2.79555E-02 4.44103E-23
2.86793E-02 4.22802E-23
2.94120E-02 4.02777E-23
3.01537E-02 3.83938E-23
3.09043E-02 3.66199E-23
3.16639E-02 3.49483E-23
3.24324E-02 3.33720E-23
3.32098E-02 3.18845E-23
3.39961E-02 3.04797E-23
3.47912E-02 2.91522E-23
3.55952E-02 2.78968E-23
3.64081E-02 2.67089E-23
3.72297E-02 2.55840E-23
3.80602E-02 2.45182E-23
3.88995E-02 2.35078E-23
3.97476E-02 2.25492E-23
4.06044E-02 2.16394E-23
4.14700E-02 2.07752E-23
4.23443E-02 1.99541E-23
4.32273E-02 1.91733E-23
4.41190E-02 1.84305E-23
4.50194E-02 1.77236E-23
4.59284E-02 1.70503E-23
4.68461E-02 1.64089E-23
4.87074E-02 1.52142E-23
5.06030E-02 1.41266E-23
5.25328E-02 1.31345E-23
5.44967E-02 1.22281E-23
5.64946E-02 1.13985E-23
5.85262E-02 1.06379E-23
6.05914E-02 9.93961E-24
6.26901E-02 9.29743E-24
6.48222E-02 8.70604E-24
6.69873E-02 8.16065E-24
6.91854E-02 7.65700E-24
7.14163E-02 7.19129E-24
7.36799E-02 6.76012E-24
7.59760E-02 6.36044E-24
7.83043E-02 5.98952E-24
8.06647E-02 5.64490E-24
8.30571E-02 5.32435E-24
8.54812E-02 5.02588E-24
8.79369E-02 4.74768E-24
9.04240E-02 4.48812E-24
9.29422E-02 4.24572E-24
9.54915E-02 4.01912E-24
9.80716E-02 3.80710E-24
1.00682E-01 3.60856E-24
1.03323E-01 3.42247E-24
1.05995E-01 3.24791E-24
1.08696E-01 3.08404E-24
1.11427E-01 2.93007E-24
1.14188E-01 2.78531E-24
1.16978E-01 2.64910E-24
1.19797E-01 2.52084E-24
1.22645E-01 2.39998E-24
1.25522E-01 2.28602E-24
1.28428E-01 2.17850E-24
1.31361E-01 2.07699E-24
1.34323E-01 1.98108E-24
1.37313E-01 1.89043E-24
1.40330E-01 1.80468E-24
1.43375E-01 1.72352E-24
1.46447E-01 1.64667E-24
1.49545E-01 1.57386E-24
1.52671E-01 1.50484E-24
1.55823E-01 1.43937E-24
1.59001E-01 1.37725E-24
1.62205E-01 1.31827E-24
1.65435E-01 1.26225E-24
1.68690E-01 1.20900E-24
1.71970E-01 1.15839E-24
1.75276E-01 1.11024E-24
1.78606E-01 1.06442E-24
1.81961E-01 1.02080E-24
1.85340E-01 9.79256E-25
1.88743E-01 9.39674E-25
1.92169E-01 9.01944E-25
1.95619E-01 8.65967E-25
1.99092E-01 8.31648E-25
2.02589E-01 7.98899E-25
2.06107E-01 7.67635E-25
2.09649E-01 7.37779E-25
2.13212E-01 7.09258E-25
2.16797E-01 6.82003E-25
2.20404E-01 6.55949E-25
2.24032E-01 6.31034E-25
2.27680E-01 6.07202E-25
2.31350E-01 5.84398E-25
2.35040E-01 5.62571E-25
2.38751E-01 5.41673E-25
2.42481E-01 5.21658E-25
2.46231E-01 5.02485E-25
2.50000E-01 4.84111E-25
2.53788E-01 4.66499E-25
2.57595E-01 4.49613E-25
2.61421E-01 4.33419E-25
2.65264E-01 4.17883E-25
2.69126E-01 4.02977E-25
2.73005E-01 3.88670E-25
2.76901E-01 3.74935E-25
2.80814E-01 3.61746E-25
2.84744E-01 3.49078E-25
2.88691E-01 3.36908E-25
2.92653E-01 3.25214E-25
2.96632E-01 3.13975E-25
3.00625E-01 3.03170E-25
3.04634E-01 2.92780E-25
3.08658E-01 2.82789E-25
3.12697E-01 2.73177E-25
3.16749E-01 2.63929E-25
3.20816E-01 2.55030E-25
3.24896E-01 2.46464E-25
3.28990E-01 2.38218E-25
3.33097E-01 2.30278E-25
3.37216E-01 2.22631E-25
3.41348E-01 2.15266E-25
3.45492E-01 2.08170E-25
3.49647E-01 2.01332E-25
3.53814E-01 1.94742E-25
3.57992E-01 1.88390E-25
3.62181E-01 1.82267E-25
3.66381E-01 1.76362E-25
3.70590E-01 1.70668E-25
3.74810E-01 1.65176E-25
3.79039E-01 1.59877E-25
3.83277E-01 1.54765E-25
3.87524E-01 1.49833E-25
3.91780E-01 1.45072E-25
3.96044E-01 1.40476E-25
4.00316E-01 1.36040E-25
4.04596E-01 1.31756E-25
4.08882E-01 1.27620E-25
4.13176E-01 1.23625E-25
4.17476E-01 1.19766E-25
4.21783E-01 1.16038E-25
4.26095E-01 1.12436E-25
4.30413E-01 1.08955E-25
4.34737E-01 1.05592E-25
4.39065E-01 1.02340E-25
4.43398E-01 9.91974E-26
4.47736E-01 9.61588E-26
4.52077E-01 9.32208E-26
4.56422E-01 9.03797E-26
4.60770E-01 8.76320E-26
4.65122E-01 8.49743E-26
4.69476E-01 8.24033E-26
4.73832E-01 7.99160E-26
4.78190E-01 7.75093E-26
4.82550E-01 7.51804E-26
4.86912E-01 7.29266E-26
4.91274E-01 7.07451E-26
4.95637E-01 6.86335E-26
5.00000E-01 6.65893E-26
5.04363E-01 6.46101E-26
5.08726E-01 6.26938E-26
5.13088E-01 6.08380E-26
5.17450E-01 5.90407E-26
5.21810E-01 5.72999E-26
5.26168E-01 5.56137E-26
5.30524E-01 5.39802E-26
5.34878E-01 5.23976E-26
5.39230E-01 5.08641E-26
5.43578E-01 4.93782E-26
5.47923E-01 4.79382E-26
5.52264E-01 4.65425E-26
5.56602E-01 4.51897E-26
5.60935E-01 4.38783E-26
5.65263E-01 4.26071E-26
5.69587E-01 4.13745E-26
5.73905E-01 4.01794E-26
5.78217E-01 3.90206E-26
5.82524E-01 3.78967E-26
5.86824E-01 3.68068E-26
5.91118E-01 3.57496E-26
5.95404E-01 3.47241E-26
5.99684E-01 3.37293E-26
6.03956E-01 3.27642E-26
6.08220E-01 3.18277E-26
6.12476E-01 3.09191E-26
6.16723E-01 3.00374E-26
6.20961E-01 2.91818E-26
6.25190E-01 2.83513E-26
6.29410E-01 2.75453E-26
6.33619E-01 2.67628E-26
6.37819E-01 2.60033E-26
6.42008E-01 2.52659E-26
6.46186E-01 2.45500E-26
6.50353E-01 2.38549E-26
6.54508E-01 2.31799E-26
6.58652E-01 2.25244E-26
6.62784E-01 2.18878E-26
6.66903E-01 2.12696E-26
6.71010E-01 2.06690E-26
6.75104E-01 2.00857E-26
6.79184E-01 1.95190E-26
6.83251E-01 1.89685E-26
6.87303E-01 1.84336E-26
6.91342E-01 1.79139E-26
6.95366E-01 1.74089E-26
6.99375E-01 1.69182E-26
7.03368E-01 1.64413E-26
7.07347E-01 1.59778E-26
7.11309E-01 1.55274E-26
7.15256E-01 1.50895E-26
7.19186E-01 1.46639E-26
7.23099E-01 1.42501E-26
7.26995E-01 1.38479E-26
7.30874E-01 1.34568E-26
7.34736E-01 1.30765E-26
7.38579E-01 1.27068E-26
7.42405E-01 1.23473E-26
7.46212E-01 1.19976E-26
7.50000E-01 1.16576E-26
7.53769E-01 1.13269E-26
7.57519E-01 1.10052E-26
7.61249E-01 1.06924E-26
7.64960E-01 1.03880E-26
7.68650E-01 1.00919E-26
7.72320E-01 9.80393E-27
7.75968E-01 9.52371E-27
7.79596E-01 9.25108E-27
7.83203E-01 8.98581E-27
7.86788E-01 8.72769E-27
7.90351E-01 8.47652E-27
7.93893E-01 8.23209E-27
7.97411E-01 7.99422E-27
8.00908E-01 7.76271E-27
8.04381E-01 7.53740E-27
8.07831E-01 7.31809E-27
8.11257E-01 7.10463E-27
8.14660E-01 6.89685E-27
8.18039E-01 6.69458E-27
8.21394E-01 6.49768E-27
8.24724E-01 6.30599E-27
8.28030E-01 6.11938E-27
8.31310E-01 5.93769E-27
8.34565E-01 5.76079E-27
8.37795E-01 5.58856E-27
8.40999E-01 5.42085E-27
8.44177E-01 5.25756E-27
8.47329E-01 5.09855E-27
8.50455E-01 4.94371E-27
8.53553E-01 4.79294E-27
8.56625E-01 4.64611E-27
8.59670E-01 4.50312E-27
8.62687E-01 4.36387E-27
8.65677E-01 4.22826E-27
8.68639E-01 4.09619E-27
8.71572E-01 3.96757E-27
8.74478E-01 3.84230E-27
8.77355E-01 3.72031E-27
8.80203E-01 3.60149E-27
8.83022E-01 3.48578E-27
8.85812E-01 3.37308E-27
8.88573E-01 3.26333E-27
8.91304E-01 3.15644E-27
8.94005E-01 3.05234E-27
8.96677E-01 2.95096E-27
8.99318E-01 2.85223E-27
9.01928E-01 2.75608E-27
9.04508E-01 2.66246E-27
9.07058E-01 2.57129E-27
9.09576E-01 2.48251E-27
9.12063E-01 2.39607E-27
9.14519E-01 2.31190E-27
9.16943E-01 2.22996E-27
9.19335E-01 2.15019E-27
9.21696E-01 2.07253E-27
9.24024E-01 1.99694E-27
9.26320E-01 1.92336E-27
9.28584E-01 1.85175E-27
9.30815E-01 1.78206E-27
9.33013E-01 1.71425E-27
9.35178E-01 1.64827E-27
9.37310E-01 1.58408E-27
9.39409E-01 1.52164E-27
9.41474E-01 1.46091E-27
9.43505E-01 1.40186E-27
9.45503E-01 1.34444E-27
9.47467E-01 1.28862E-27
9.49397E-01 1.23436E-27
9.51293E-01 1.18163E-27
9.53154E-01 1.13041E-27
9.54981E-01 1.08065E-27
9.56773E-01 1.03232E-27
9.58530E-01 9.85402E-28
9.60252E-01 9.39861E-28
9.61940E-01 8.95669E-28
9.63592E-01 8.52801E-28
9.65209E-01 8.11230E-28
9.66790E-01 7.70932E-28
9.68336E-01 7.31881E-28
9.69846E-01 6.94055E-28
9.71321E-01 6.57431E-28
9.72759E-01 6.21988E-28
9.74162E-01 5.87704E-28
9.75528E-01 5.54560E-28
9.76858E-01 5.22535E-28
9.78152E-01 4.91611E-28
9.79410E-01 4.61769E-28
9.80631E-01 4.32993E-28
9.81815E-01 4.05266E-28
9.82963E-01 3.78571E-28
9.84074E-01 3.52893E-28
9.85148E-01 3.28218E-28
9.86185E-01 3.04530E-28
9.87185E-01 2.81817E-28
9.88148E-01 2.60066E-28
9.89074E-01 2.39263E-28
9.89962E-01 2.19397E-28
9.90814E-01 2.00457E-28
9.91627E-01 1.82432E-28
9.92404E-01 1.65312E-28
9.93143E-01 1.49087E-28
9.93844E-01 1.33748E-28
9.94508E-01 1.19286E-28
9.95134E-01 1.05694E-28
9.95722E-01 9.29623E-29
9.96273E-01 8.10854E-29
9.96786E-01 7.00561E-29
9.97261E-01 5.98684E-29
9.97698E-01 5.05164E-29
9.98097E-01 4.19950E-29
9.98459E-01 3.42994E-29
9.98782E-01 2.74253E-29
9.99067E-01 2.13689E-29
9.99315E-01 1.61268E-29
9.99524E-01 1.16961E-29
9.99695E-01 8.07437E-30
9.99829E-01 5.25953E-30
9.99924E-01 3.25005E-30
9.99981E-01 2.04481E-30
1.00000E+00 1.64313E-30
