 #
 # Subroutine ELSEPA. Elastic scattering of electrons and positrons
 #                    by neutral atoms and positive ions
 #
 # Projectile: electron
 # Kinetic energy = 1.75000E+07 eV = 6.43113E+05 a.u.
 #
 # WARNING: High-energy factorization with free-atom DF screening.
 #          Absorption, polarization and exchange corrections are
 #          switched off.
 #          Phase shifts are calculated for the bare nucleus.
 #          Scattering amplitudes are not evaluated.
 #
 # Element: Hf,  Z =  72,  atomic weight = 1.78490E+02 g/mol
 #
 # Nuclear model: Fermi distribution
 #                Average radius = 6.02451E-13 cm
 #                Skin thickness = 5.46000E-14 cm
 #
 # Number of electrons = 72
 #
 # Total elastic cross section = 7.32527E-18 cm**2 = 2.61590E-01 a0**2
 # 1st transport cross section = 2.99004E-23 cm**2 = 1.06776E-06 a0**2
 # 2nd transport cross section = 8.40743E-23 cm**2 = 3.00235E-06 a0**2
 #
 #
 # Differential cross section:                       MU=(1-COS(THETA))/2
 #
 #  THETA        MU          DCS          DCS        Sherman      error
 #  (deg)                 (cm**2/sr)   (a0**2/sr)    function
 #----------------------------------------------------------------------
0.00000E+00 2.04964E-11
7.61557E-13 2.04942E-11
1.18994E-12 2.04930E-11
1.71346E-12 2.04915E-11
2.33225E-12 2.04898E-11
3.04617E-12 2.04878E-11
3.85530E-12 2.04855E-11
4.75964E-12 2.04830E-11
5.75917E-12 2.04802E-11
6.85391E-12 2.04771E-11
8.04379E-12 2.04738E-11
9.32893E-12 2.04702E-11
1.07092E-11 2.04663E-11
1.21847E-11 2.04622E-11
1.37554E-11 2.04578E-11
1.54213E-11 2.04532E-11
1.71823E-11 2.04482E-11
1.90386E-11 2.04431E-11
2.09900E-11 2.04376E-11
2.30367E-11 2.04319E-11
2.51785E-11 2.04259E-11
2.74156E-11 2.04197E-11
2.97478E-11 2.04132E-11
3.21752E-11 2.04065E-11
3.46979E-11 2.03995E-11
3.73157E-11 2.03922E-11
4.00286E-11 2.03847E-11
4.28368E-11 2.03769E-11
4.57402E-11 2.03688E-11
4.87388E-11 2.03605E-11
5.18325E-11 2.03520E-11
5.50215E-11 2.03431E-11
5.83057E-11 2.03341E-11
6.16850E-11 2.03247E-11
6.51595E-11 2.03151E-11
6.87293E-11 2.03053E-11
7.23943E-11 2.02952E-11
7.61544E-11 2.02848E-11
1.18991E-10 2.01676E-11
1.71347E-10 2.00257E-11
2.33223E-10 1.98603E-11
3.04617E-10 1.96722E-11
3.85531E-10 1.94627E-11
4.75965E-10 1.92328E-11
5.75917E-10 1.89841E-11
6.85389E-10 1.87177E-11
8.04380E-10 1.84346E-11
9.32891E-10 1.81374E-11
1.07092E-09 1.78280E-11
1.21847E-09 1.75058E-11
1.37554E-09 1.71738E-11
1.54213E-09 1.68343E-11
1.71823E-09 1.64865E-11
1.90386E-09 1.61332E-11
2.09900E-09 1.57767E-11
2.30367E-09 1.54161E-11
2.51785E-09 1.50538E-11
2.74156E-09 1.46921E-11
2.97478E-09 1.43299E-11
3.21752E-09 1.39690E-11
3.46978E-09 1.36118E-11
3.73156E-09 1.32571E-11
4.00286E-09 1.29061E-11
4.28368E-09 1.25609E-11
4.57402E-09 1.22206E-11
4.87388E-09 1.18857E-11
5.18326E-09 1.15581E-11
5.50215E-09 1.12368E-11
5.83057E-09 1.09222E-11
6.16850E-09 1.06156E-11
6.51596E-09 1.03164E-11
6.87293E-09 1.00243E-11
7.23942E-09 9.74069E-12
7.61544E-09 9.46482E-12
1.18991E-08 7.12669E-12
1.71347E-08 5.45631E-12
2.33223E-08 4.27114E-12
3.04617E-08 3.41382E-12
3.85531E-08 2.77661E-12
4.75965E-08 2.28963E-12
5.75917E-08 1.90816E-12
6.85389E-08 1.60348E-12
8.04380E-08 1.34260E-12
9.32891E-08 1.14082E-12
1.07092E-07 9.85608E-13
1.21847E-07 8.44966E-13
1.37554E-07 7.29303E-13
1.54213E-07 6.37422E-13
1.71823E-07 5.55165E-13
1.90386E-07 4.85733E-13
2.09900E-07 4.29109E-13
2.30367E-07 3.78650E-13
2.51785E-07 3.35190E-13
2.74156E-07 2.98981E-13
2.97478E-07 2.66661E-13
3.21752E-07 2.38344E-13
3.46978E-07 2.14337E-13
3.73156E-07 1.92827E-13
4.00286E-07 1.73706E-13
4.28368E-07 1.57263E-13
4.57402E-07 1.42479E-13
4.87388E-07 1.29183E-13
5.18325E-07 1.17613E-13
5.50215E-07 1.07185E-13
5.83057E-07 9.77217E-14
6.16850E-07 8.94044E-14
6.51596E-07 8.18931E-14
6.87293E-07 7.50338E-14
7.23942E-07 6.89523E-14
7.61543E-07 6.34500E-14
1.18991E-06 2.96601E-14
1.71347E-06 1.56758E-14
2.33223E-06 9.10919E-15
3.04617E-06 5.69141E-15
3.85531E-06 3.74423E-15
4.75964E-06 2.56346E-15
5.75916E-06 1.81337E-15
6.85388E-06 1.31739E-15
8.04378E-06 9.78774E-16
9.32888E-06 7.42734E-16
1.07092E-05 5.73751E-16
1.21846E-05 4.50204E-16
1.37553E-05 3.58168E-16
1.54212E-05 2.88425E-16
1.71822E-05 2.34900E-16
1.90385E-05 1.93158E-16
2.09899E-05 1.60484E-16
2.30365E-05 1.34426E-16
2.51783E-05 1.13409E-16
2.74153E-05 9.63234E-17
2.97475E-05 8.23337E-17
3.21749E-05 7.07987E-17
3.46974E-05 6.12243E-17
3.73152E-05 5.32236E-17
4.00281E-05 4.64910E-17
4.28362E-05 4.07943E-17
4.57395E-05 3.59449E-17
4.87380E-05 3.17941E-17
5.18317E-05 2.82238E-17
5.50205E-05 2.51382E-17
5.83045E-05 2.24618E-17
6.16838E-05 2.01326E-17
6.51582E-05 1.80982E-17
6.87277E-05 1.63150E-17
7.23925E-05 1.47465E-17
7.61524E-05 1.33609E-17
9.21439E-05 9.20945E-18
1.09658E-04 6.55071E-18
1.28695E-04 4.78590E-18
1.49255E-04 3.57704E-18
1.71338E-04 2.72705E-18
1.94942E-04 2.11528E-18
2.20070E-04 1.66598E-18
2.46720E-04 1.33002E-18
2.74892E-04 1.07473E-18
3.04586E-04 8.77947E-19
3.35803E-04 7.24275E-19
3.68542E-04 6.02854E-19
4.02802E-04 5.05887E-19
4.38585E-04 4.27689E-19
4.75889E-04 3.64059E-19
5.14715E-04 3.11856E-19
5.55063E-04 2.68700E-19
5.96931E-04 2.32773E-19
6.40321E-04 2.02666E-19
6.85233E-04 1.77283E-19
7.31665E-04 1.55760E-19
7.79618E-04 1.37414E-19
8.29092E-04 1.21697E-19
8.80086E-04 1.08169E-19
9.32601E-04 9.64753E-20
9.86636E-04 8.63230E-20
1.04219E-03 7.74753E-20
1.09927E-03 6.97360E-20
1.15786E-03 6.29418E-20
1.21797E-03 5.69578E-20
1.27961E-03 5.16706E-20
1.34276E-03 4.69846E-20
1.40743E-03 4.28199E-20
1.47362E-03 3.91081E-20
1.54133E-03 3.57913E-20
1.61056E-03 3.28201E-20
1.68131E-03 3.01521E-20
1.75357E-03 2.77509E-20
1.82735E-03 2.55849E-20
1.90265E-03 2.36272E-20
1.97947E-03 2.18540E-20
2.05780E-03 2.02448E-20
2.13765E-03 1.87817E-20
2.21902E-03 1.74491E-20
2.30190E-03 1.62332E-20
2.38630E-03 1.51219E-20
2.47222E-03 1.41046E-20
2.55965E-03 1.31719E-20
2.64859E-03 1.23154E-20
2.73905E-03 1.15279E-20
2.83103E-03 1.08027E-20
2.92452E-03 1.01340E-20
3.01952E-03 9.51652E-21
3.11604E-03 8.94569E-21
3.21407E-03 8.41731E-21
3.31362E-03 7.92763E-21
3.41468E-03 7.47329E-21
3.51725E-03 7.05126E-21
3.62133E-03 6.65883E-21
3.72692E-03 6.29352E-21
3.83403E-03 5.95311E-21
3.94265E-03 5.63559E-21
4.05278E-03 5.33913E-21
4.16442E-03 5.06206E-21
4.27757E-03 4.80288E-21
4.39223E-03 4.56022E-21
4.50840E-03 4.33282E-21
4.62608E-03 4.11954E-21
4.74527E-03 3.91934E-21
4.86597E-03 3.73127E-21
4.98817E-03 3.55445E-21
5.11188E-03 3.38808E-21
5.23711E-03 3.23142E-21
5.36383E-03 3.08380E-21
5.49207E-03 2.94460E-21
5.62181E-03 2.81324E-21
5.75306E-03 2.68920E-21
5.88581E-03 2.57200E-21
6.02007E-03 2.46118E-21
6.15583E-03 2.35632E-21
6.29310E-03 2.25705E-21
6.43187E-03 2.16301E-21
6.57214E-03 2.07388E-21
6.71392E-03 1.98934E-21
6.85720E-03 1.90912E-21
7.00198E-03 1.83294E-21
7.14827E-03 1.76057E-21
7.29605E-03 1.69178E-21
7.44534E-03 1.62636E-21
7.59612E-03 1.56411E-21
7.97965E-03 1.42118E-21
8.37255E-03 1.29441E-21
8.77480E-03 1.18163E-21
9.18641E-03 1.08103E-21
9.60736E-03 9.91048E-22
1.00376E-02 9.10363E-22
1.04773E-02 8.37836E-22
1.09262E-02 7.72491E-22
1.13844E-02 7.13487E-22
1.18520E-02 6.60094E-22
1.23288E-02 6.11679E-22
1.28150E-02 5.67691E-22
1.33104E-02 5.27650E-22
1.38150E-02 4.91135E-22
1.43290E-02 4.57777E-22
1.48521E-02 4.27251E-22
1.53845E-02 3.99272E-22
1.59262E-02 3.73585E-22
1.64770E-02 3.49968E-22
1.70371E-02 3.28222E-22
1.76063E-02 3.08170E-22
1.81848E-02 2.89655E-22
1.87724E-02 2.72535E-22
1.93692E-02 2.56686E-22
1.99751E-02 2.41995E-22
2.05901E-02 2.28361E-22
2.12143E-02 2.15693E-22
2.18476E-02 2.03908E-22
2.24900E-02 1.92934E-22
2.31415E-02 1.82704E-22
2.38021E-02 1.73157E-22
2.44717E-02 1.64238E-22
2.51504E-02 1.55898E-22
2.58382E-02 1.48093E-22
2.65349E-02 1.40780E-22
2.72407E-02 1.33923E-22
2.79555E-02 1.27487E-22
2.86793E-02 1.21442E-22
2.94120E-02 1.15759E-22
3.01537E-02 1.10412E-22
3.09043E-02 1.05376E-22
3.16639E-02 1.00631E-22
3.24324E-02 9.61566E-23
3.32098E-02 9.19331E-23
3.39961E-02 8.79446E-23
3.47912E-02 8.41748E-23
3.55952E-02 8.06093E-23
3.64081E-02 7.72351E-23
3.72297E-02 7.40396E-23
3.80602E-02 7.10114E-23
3.88995E-02 6.81400E-23
3.97476E-02 6.54156E-23
4.06044E-02 6.28292E-23
4.14700E-02 6.03722E-23
4.23443E-02 5.80369E-23
4.32273E-02 5.58161E-23
4.41190E-02 5.37028E-23
4.50194E-02 5.16909E-23
4.59284E-02 4.97746E-23
4.68461E-02 4.79482E-23
4.87074E-02 4.45454E-23
5.06030E-02 4.14455E-23
5.25328E-02 3.86164E-23
5.44967E-02 3.60297E-23
5.64946E-02 3.36604E-23
5.85262E-02 3.14868E-23
6.05914E-02 2.94893E-23
6.26901E-02 2.76509E-23
6.48222E-02 2.59564E-23
6.69873E-02 2.43922E-23
6.91854E-02 2.29464E-23
7.14163E-02 2.16081E-23
7.36799E-02 2.03677E-23
7.59760E-02 1.92167E-23
7.83043E-02 1.81473E-23
8.06647E-02 1.71523E-23
8.30571E-02 1.62255E-23
8.54812E-02 1.53614E-23
8.79369E-02 1.45549E-23
9.04240E-02 1.38014E-23
9.29422E-02 1.30967E-23
9.54915E-02 1.24369E-23
9.80716E-02 1.18187E-23
1.00682E-01 1.12388E-23
1.03323E-01 1.06945E-23
1.05995E-01 1.01830E-23
1.08696E-01 9.70203E-24
1.11427E-01 9.24935E-24
1.14188E-01 8.82296E-24
1.16978E-01 8.42103E-24
1.19797E-01 8.04185E-24
1.22645E-01 7.68389E-24
1.25522E-01 7.34570E-24
1.28428E-01 7.02597E-24
1.31361E-01 6.72349E-24
1.34323E-01 6.43713E-24
1.37313E-01 6.16587E-24
1.40330E-01 5.90873E-24
1.43375E-01 5.66484E-24
1.46447E-01 5.43338E-24
1.49545E-01 5.21357E-24
1.52671E-01 5.00472E-24
1.55823E-01 4.80617E-24
1.59001E-01 4.61730E-24
1.62205E-01 4.43755E-24
1.65435E-01 4.26639E-24
1.68690E-01 4.10332E-24
1.71970E-01 3.94789E-24
1.75276E-01 3.79966E-24
1.78606E-01 3.65824E-24
1.81961E-01 3.52324E-24
1.85340E-01 3.39432E-24
1.88743E-01 3.27115E-24
1.92169E-01 3.15342E-24
1.95619E-01 3.04084E-24
1.99092E-01 2.93314E-24
2.02589E-01 2.83008E-24
2.06107E-01 2.73140E-24
2.09649E-01 2.63688E-24
2.13212E-01 2.54633E-24
2.16797E-01 2.45953E-24
2.20404E-01 2.37630E-24
2.24032E-01 2.29646E-24
2.27680E-01 2.21985E-24
2.31350E-01 2.14632E-24
2.35040E-01 2.07571E-24
2.38751E-01 2.00789E-24
2.42481E-01 1.94272E-24
2.46231E-01 1.88008E-24
2.50000E-01 1.81986E-24
2.53788E-01 1.76194E-24
2.57595E-01 1.70622E-24
2.61421E-01 1.65260E-24
2.65264E-01 1.60098E-24
2.69126E-01 1.55128E-24
2.73005E-01 1.50340E-24
2.76901E-01 1.45728E-24
2.80814E-01 1.41283E-24
2.84744E-01 1.36999E-24
2.88691E-01 1.32867E-24
2.92653E-01 1.28883E-24
2.96632E-01 1.25039E-24
3.00625E-01 1.21330E-24
3.04634E-01 1.17751E-24
3.08658E-01 1.14295E-24
3.12697E-01 1.10957E-24
3.16749E-01 1.07734E-24
3.20816E-01 1.04620E-24
3.24896E-01 1.01611E-24
3.28990E-01 9.87029E-25
3.33097E-01 9.58915E-25
3.37216E-01 9.31731E-25
3.41348E-01 9.05440E-25
3.45492E-01 8.80008E-25
3.49647E-01 8.55401E-25
3.53814E-01 8.31590E-25
3.57992E-01 8.08542E-25
3.62181E-01 7.86229E-25
3.66381E-01 7.64624E-25
3.70590E-01 7.43701E-25
3.74810E-01 7.23433E-25
3.79039E-01 7.03798E-25
3.83277E-01 6.84771E-25
3.87524E-01 6.66331E-25
3.91780E-01 6.48457E-25
3.96044E-01 6.31127E-25
4.00316E-01 6.14324E-25
4.04596E-01 5.98027E-25
4.08882E-01 5.82220E-25
4.13176E-01 5.66885E-25
4.17476E-01 5.52005E-25
4.21783E-01 5.37565E-25
4.26095E-01 5.23549E-25
4.30413E-01 5.09944E-25
4.34737E-01 4.96735E-25
4.39065E-01 4.83908E-25
4.43398E-01 4.71451E-25
4.47736E-01 4.59351E-25
4.52077E-01 4.47597E-25
4.56422E-01 4.36177E-25
4.60770E-01 4.25080E-25
4.65122E-01 4.14295E-25
4.69476E-01 4.03812E-25
4.73832E-01 3.93622E-25
4.78190E-01 3.83715E-25
4.82550E-01 3.74081E-25
4.86912E-01 3.64713E-25
4.91274E-01 3.55601E-25
4.95637E-01 3.46737E-25
5.00000E-01 3.38115E-25
5.04363E-01 3.29725E-25
5.08726E-01 3.21562E-25
5.13088E-01 3.13617E-25
5.17450E-01 3.05884E-25
5.21810E-01 2.98357E-25
5.26168E-01 2.91029E-25
5.30524E-01 2.83895E-25
5.34878E-01 2.76948E-25
5.39230E-01 2.70182E-25
5.43578E-01 2.63593E-25
5.47923E-01 2.57175E-25
5.52264E-01 2.50923E-25
5.56602E-01 2.44832E-25
5.60935E-01 2.38897E-25
5.65263E-01 2.33114E-25
5.69587E-01 2.27478E-25
5.73905E-01 2.21985E-25
5.78217E-01 2.16631E-25
5.82524E-01 2.11411E-25
5.86824E-01 2.06323E-25
5.91118E-01 2.01362E-25
5.95404E-01 1.96525E-25
5.99684E-01 1.91807E-25
6.03956E-01 1.87207E-25
6.08220E-01 1.82719E-25
6.12476E-01 1.78342E-25
6.16723E-01 1.74073E-25
6.20961E-01 1.69907E-25
6.25190E-01 1.65843E-25
6.29410E-01 1.61878E-25
6.33619E-01 1.58008E-25
6.37819E-01 1.54231E-25
6.42008E-01 1.50546E-25
6.46186E-01 1.46948E-25
6.50353E-01 1.43436E-25
6.54508E-01 1.40008E-25
6.58652E-01 1.36662E-25
6.62784E-01 1.33394E-25
6.66903E-01 1.30204E-25
6.71010E-01 1.27088E-25
6.75104E-01 1.24046E-25
6.79184E-01 1.21075E-25
6.83251E-01 1.18173E-25
6.87303E-01 1.15339E-25
6.91342E-01 1.12570E-25
6.95366E-01 1.09865E-25
6.99375E-01 1.07223E-25
7.03368E-01 1.04642E-25
7.07347E-01 1.02120E-25
7.11309E-01 9.96553E-26
7.15256E-01 9.72472E-26
7.19186E-01 9.48941E-26
7.23099E-01 9.25944E-26
7.26995E-01 9.03469E-26
7.30874E-01 8.81502E-26
7.34736E-01 8.60032E-26
7.38579E-01 8.39045E-26
7.42405E-01 8.18530E-26
7.46212E-01 7.98475E-26
7.50000E-01 7.78869E-26
7.53769E-01 7.59702E-26
7.57519E-01 7.40962E-26
7.61249E-01 7.22639E-26
7.64960E-01 7.04723E-26
7.68650E-01 6.87205E-26
7.72320E-01 6.70075E-26
7.75968E-01 6.53323E-26
7.79596E-01 6.36941E-26
7.83203E-01 6.20920E-26
7.86788E-01 6.05251E-26
7.90351E-01 5.89927E-26
7.93893E-01 5.74940E-26
7.97411E-01 5.60280E-26
8.00908E-01 5.45942E-26
8.04381E-01 5.31917E-26
8.07831E-01 5.18199E-26
8.11257E-01 5.04780E-26
8.14660E-01 4.91653E-26
8.18039E-01 4.78813E-26
8.21394E-01 4.66252E-26
8.24724E-01 4.53964E-26
8.28030E-01 4.41943E-26
8.31310E-01 4.30184E-26
8.34565E-01 4.18680E-26
8.37795E-01 4.07426E-26
8.40999E-01 3.96417E-26
8.44177E-01 3.85646E-26
8.47329E-01 3.75110E-26
8.50455E-01 3.64802E-26
8.53553E-01 3.54718E-26
8.56625E-01 3.44853E-26
8.59670E-01 3.35203E-26
8.62687E-01 3.25763E-26
8.65677E-01 3.16528E-26
8.68639E-01 3.07494E-26
8.71572E-01 2.98658E-26
8.74478E-01 2.90014E-26
8.77355E-01 2.81559E-26
8.80203E-01 2.73290E-26
8.83022E-01 2.65202E-26
8.85812E-01 2.57291E-26
8.88573E-01 2.49555E-26
8.91304E-01 2.41989E-26
8.94005E-01 2.34590E-26
8.96677E-01 2.27355E-26
8.99318E-01 2.20282E-26
9.01928E-01 2.13365E-26
9.04508E-01 2.06604E-26
9.07058E-01 1.99993E-26
9.09576E-01 1.93532E-26
9.12063E-01 1.87216E-26
9.14519E-01 1.81044E-26
9.16943E-01 1.75012E-26
9.19335E-01 1.69118E-26
9.21696E-01 1.63359E-26
9.24024E-01 1.57733E-26
9.26320E-01 1.52238E-26
9.28584E-01 1.46871E-26
9.30815E-01 1.41630E-26
9.33013E-01 1.36512E-26
9.35178E-01 1.31517E-26
9.37310E-01 1.26640E-26
9.39409E-01 1.21881E-26
9.41474E-01 1.17238E-26
9.43505E-01 1.12708E-26
9.45503E-01 1.08289E-26
9.47467E-01 1.03981E-26
9.49397E-01 9.97805E-27
9.51293E-01 9.56865E-27
9.53154E-01 9.16972E-27
9.54981E-01 8.78110E-27
9.56773E-01 8.40263E-27
9.58530E-01 8.03416E-27
9.60252E-01 7.67554E-27
9.61940E-01 7.32662E-27
9.63592E-01 6.98727E-27
9.65209E-01 6.65735E-27
9.66790E-01 6.33673E-27
9.68336E-01 6.02528E-27
9.69846E-01 5.72288E-27
9.71321E-01 5.42941E-27
9.72759E-01 5.14475E-27
9.74162E-01 4.86879E-27
9.75528E-01 4.60142E-27
9.76858E-01 4.34254E-27
9.78152E-01 4.09204E-27
9.79410E-01 3.84984E-27
9.80631E-01 3.61582E-27
9.81815E-01 3.38991E-27
9.82963E-01 3.17202E-27
9.84074E-01 2.96205E-27
9.85148E-01 2.75994E-27
9.86185E-01 2.56560E-27
9.87185E-01 2.37895E-27
9.88148E-01 2.19993E-27
9.89074E-01 2.02847E-27
9.89962E-01 1.86450E-27
9.90814E-01 1.70795E-27
9.91627E-01 1.55878E-27
9.92404E-01 1.41691E-27
9.93143E-01 1.28230E-27
9.93844E-01 1.15490E-27
9.94508E-01 1.03466E-27
9.95134E-01 9.21528E-28
9.95722E-01 8.15466E-28
9.96273E-01 7.16432E-28
9.96786E-01 6.24390E-28
9.97261E-01 5.39305E-28
9.97698E-01 4.61144E-28
9.98097E-01 3.89878E-28
9.98459E-01 3.25479E-28
9.98782E-01 2.67925E-28
9.99067E-01 2.17192E-28
9.99315E-01 1.73263E-28
9.99524E-01 1.36120E-28
9.99695E-01 1.05749E-28
9.99829E-01 8.21386E-29
9.99924E-01 6.52807E-29
9.99981E-01 5.51685E-29
1.00000E+00 5.17981E-29
