 #
 # Subroutine ELSEPA. Elastic scattering of electrons and positrons
 #                    by neutral atoms and positive ions
 #
 # Projectile: electron
 # Kinetic energy = 4.00000E+07 eV = 1.46997E+06 a.u.
 #
 # WARNING: High-energy factorization with free-atom DF screening.
 #          Absorption, polarization and exchange corrections are
 #          switched off.
 #          Phase shifts are calculated for the bare nucleus.
 #          Scattering amplitudes are not evaluated.
 #
 # Element: Hf,  Z =  72,  atomic weight = 1.78490E+02 g/mol
 #
 # Nuclear model: Fermi distribution
 #                Average radius = 6.02451E-13 cm
 #                Skin thickness = 5.46000E-14 cm
 #
 # Number of electrons = 72
 #
 # Total elastic cross section = 7.31724E-18 cm**2 = 2.61303E-01 a0**2
 # 1st transport cross section = 6.07845E-24 cm**2 = 2.17065E-07 a0**2
 # 2nd transport cross section = 1.76681E-23 cm**2 = 6.30939E-07 a0**2
 #
 #
 # Differential cross section:                       MU=(1-COS(THETA))/2
 #
 #  THETA        MU          DCS          DCS        Sherman      error
 #  (deg)                 (cm**2/sr)   (a0**2/sr)    function
 #----------------------------------------------------------------------
0.00000E+00 1.03692E-10
7.61557E-13 1.03637E-10
1.18994E-12 1.03607E-10
1.71346E-12 1.03569E-10
2.33225E-12 1.03525E-10
3.04617E-12 1.03474E-10
3.85530E-12 1.03416E-10
4.75964E-12 1.03351E-10
5.75917E-12 1.03280E-10
6.85391E-12 1.03202E-10
8.04379E-12 1.03117E-10
9.32893E-12 1.03026E-10
1.07092E-11 1.02928E-10
1.21847E-11 1.02824E-10
1.37554E-11 1.02713E-10
1.54213E-11 1.02595E-10
1.71823E-11 1.02471E-10
1.90386E-11 1.02341E-10
2.09900E-11 1.02204E-10
2.30367E-11 1.02061E-10
2.51785E-11 1.01912E-10
2.74156E-11 1.01756E-10
2.97478E-11 1.01594E-10
3.21752E-11 1.01426E-10
3.46979E-11 1.01252E-10
3.73157E-11 1.01072E-10
4.00286E-11 1.00886E-10
4.28368E-11 1.00694E-10
4.57402E-11 1.00496E-10
4.87388E-11 1.00293E-10
5.18325E-11 1.00083E-10
5.50215E-11 9.98681E-11
5.83057E-11 9.96474E-11
6.16850E-11 9.94211E-11
6.51595E-11 9.91894E-11
6.87293E-11 9.89523E-11
7.23943E-11 9.87098E-11
7.61544E-11 9.84621E-11
1.18991E-10 9.57120E-11
1.71347E-10 9.25174E-11
2.33223E-10 8.89748E-11
3.04617E-10 8.51649E-11
3.85531E-10 8.11682E-11
4.75965E-10 7.70737E-11
5.75917E-10 7.29533E-11
6.85389E-10 6.88617E-11
8.04380E-10 6.48524E-11
9.32891E-10 6.09722E-11
1.07092E-09 5.72509E-11
1.21847E-09 5.37039E-11
1.37554E-09 5.03500E-11
1.54213E-09 4.71977E-11
1.71823E-09 4.42481E-11
1.90386E-09 4.14935E-11
2.09900E-09 3.89328E-11
2.30367E-09 3.65577E-11
2.51785E-09 3.43580E-11
2.74156E-09 3.23193E-11
2.97478E-09 3.04344E-11
3.21752E-09 2.86921E-11
3.46978E-09 2.70805E-11
3.73156E-09 2.55866E-11
4.00286E-09 2.42038E-11
4.28368E-09 2.29230E-11
4.57402E-09 2.17333E-11
4.87388E-09 2.06259E-11
5.18326E-09 1.95965E-11
5.50215E-09 1.86384E-11
5.83057E-09 1.77424E-11
6.16850E-09 1.69041E-11
6.51596E-09 1.61205E-11
6.87293E-09 1.53871E-11
7.23942E-09 1.46959E-11
7.61544E-09 1.40462E-11
1.18991E-08 9.23548E-12
1.71347E-08 6.24671E-12
2.33223E-08 4.44386E-12
3.04617E-08 3.22429E-12
3.85531E-08 2.37991E-12
4.75965E-08 1.80022E-12
5.75917E-08 1.38857E-12
6.85389E-08 1.08410E-12
8.04380E-08 8.56609E-13
9.32891E-08 6.85807E-13
1.07092E-07 5.55083E-13
1.21847E-07 4.52161E-13
1.37554E-07 3.71439E-13
1.54213E-07 3.07757E-13
1.71823E-07 2.56957E-13
1.90386E-07 2.15719E-13
2.09900E-07 1.82426E-13
2.30367E-07 1.55336E-13
2.51785E-07 1.33106E-13
2.74156E-07 1.14670E-13
2.97478E-07 9.93807E-14
3.21752E-07 8.66180E-14
3.46978E-07 7.58974E-14
3.73156E-07 6.67530E-14
4.00286E-07 5.89810E-14
4.28368E-07 5.23424E-14
4.57402E-07 4.66354E-14
4.87388E-07 4.17021E-14
5.18325E-07 3.74229E-14
5.50215E-07 3.36928E-14
5.83057E-07 3.04182E-14
6.16850E-07 2.75338E-14
6.51596E-07 2.49874E-14
6.87293E-07 2.27312E-14
7.23942E-07 2.07196E-14
7.61543E-07 1.89262E-14
1.18991E-06 8.44092E-15
1.71347E-06 4.30012E-15
2.33223E-06 2.41317E-15
3.04617E-06 1.45659E-15
3.85531E-06 9.30676E-16
4.75964E-06 6.22286E-16
5.75916E-06 4.31807E-16
6.85388E-06 3.09009E-16
8.04378E-06 2.26950E-16
9.32888E-06 1.70404E-16
1.07092E-05 1.30422E-16
1.21846E-05 1.01503E-16
1.37553E-05 8.01658E-17
1.54212E-05 6.41464E-17
1.71822E-05 5.19312E-17
1.90385E-05 4.24631E-17
2.09899E-05 3.50939E-17
2.30365E-05 2.92500E-17
2.51783E-05 2.45659E-17
2.74153E-05 2.07773E-17
2.97475E-05 1.76888E-17
3.21749E-05 1.51531E-17
3.46974E-05 1.30570E-17
3.73152E-05 1.13128E-17
4.00281E-05 9.85154E-18
4.28362E-05 8.61944E-18
4.57395E-05 7.57416E-18
4.87380E-05 6.68236E-18
5.18317E-05 5.91769E-18
5.50205E-05 5.25910E-18
5.83045E-05 4.68958E-18
6.16838E-05 4.19522E-18
6.51582E-05 3.76451E-18
6.87277E-05 3.38787E-18
7.23925E-05 3.05731E-18
7.61524E-05 2.76611E-18
9.21439E-05 1.89731E-18
1.09658E-04 1.34451E-18
1.28695E-04 9.79367E-19
1.49255E-04 7.30204E-19
1.71338E-04 5.55557E-19
1.94942E-04 4.30164E-19
2.20070E-04 3.38263E-19
2.46720E-04 2.69666E-19
2.74892E-04 2.17623E-19
3.04586E-04 1.77564E-19
3.35803E-04 1.46321E-19
3.68542E-04 1.21666E-19
4.02802E-04 1.01999E-19
4.38585E-04 8.61558E-20
4.75889E-04 7.32774E-20
5.14715E-04 6.27220E-20
5.55063E-04 5.40040E-20
5.96931E-04 4.67526E-20
6.40321E-04 4.06809E-20
6.85233E-04 3.55659E-20
7.31665E-04 3.12322E-20
7.79618E-04 2.75405E-20
8.29092E-04 2.43801E-20
8.80086E-04 2.16615E-20
9.32601E-04 1.93127E-20
9.86636E-04 1.72748E-20
1.04219E-03 1.54997E-20
1.09927E-03 1.39477E-20
1.15786E-03 1.25858E-20
1.21797E-03 1.13868E-20
1.27961E-03 1.03278E-20
1.34276E-03 9.38964E-21
1.40743E-03 8.55608E-21
1.47362E-03 7.81339E-21
1.54133E-03 7.14995E-21
1.61056E-03 6.55579E-21
1.68131E-03 6.02239E-21
1.75357E-03 5.54244E-21
1.82735E-03 5.10959E-21
1.90265E-03 4.71842E-21
1.97947E-03 4.36419E-21
2.05780E-03 4.04277E-21
2.13765E-03 3.75057E-21
2.21902E-03 3.48446E-21
2.30190E-03 3.24169E-21
2.38630E-03 3.01983E-21
2.47222E-03 2.81675E-21
2.55965E-03 2.63057E-21
2.64859E-03 2.45962E-21
2.73905E-03 2.30244E-21
2.83103E-03 2.15769E-21
2.92452E-03 2.02423E-21
3.01952E-03 1.90100E-21
3.11604E-03 1.78708E-21
3.21407E-03 1.68163E-21
3.31362E-03 1.58391E-21
3.41468E-03 1.49323E-21
3.51725E-03 1.40901E-21
3.62133E-03 1.33069E-21
3.72692E-03 1.25778E-21
3.83403E-03 1.18983E-21
3.94265E-03 1.12646E-21
4.05278E-03 1.06728E-21
4.16442E-03 1.01197E-21
4.27757E-03 9.60228E-22
4.39223E-03 9.11781E-22
4.50840E-03 8.66379E-22
4.62608E-03 8.23794E-22
4.74527E-03 7.83818E-22
4.86597E-03 7.46259E-22
4.98817E-03 7.10945E-22
5.11188E-03 6.77715E-22
5.23711E-03 6.46422E-22
5.36383E-03 6.16933E-22
5.49207E-03 5.89122E-22
5.62181E-03 5.62876E-22
5.75306E-03 5.38090E-22
5.88581E-03 5.14668E-22
6.02007E-03 4.92518E-22
6.15583E-03 4.71559E-22
6.29310E-03 4.51716E-22
6.43187E-03 4.32915E-22
6.57214E-03 4.15092E-22
6.71392E-03 3.98188E-22
6.85720E-03 3.82144E-22
7.00198E-03 3.66908E-22
7.14827E-03 3.52432E-22
7.29605E-03 3.38671E-22
7.44534E-03 3.25581E-22
7.59612E-03 3.13125E-22
7.97965E-03 2.84520E-22
8.37255E-03 2.59141E-22
8.77480E-03 2.36557E-22
9.18641E-03 2.16406E-22
9.60736E-03 1.98378E-22
1.00376E-02 1.82207E-22
1.04773E-02 1.67668E-22
1.09262E-02 1.54565E-22
1.13844E-02 1.42730E-22
1.18520E-02 1.32019E-22
1.23288E-02 1.22303E-22
1.28150E-02 1.13475E-22
1.33104E-02 1.05436E-22
1.38150E-02 9.81042E-23
1.43290E-02 9.14049E-23
1.48521E-02 8.52736E-23
1.53845E-02 7.96530E-23
1.59262E-02 7.44916E-23
1.64770E-02 6.97442E-23
1.70371E-02 6.53722E-23
1.76063E-02 6.13404E-23
1.81848E-02 5.76172E-23
1.87724E-02 5.41744E-23
1.93692E-02 5.09869E-23
1.99751E-02 4.80321E-23
2.05901E-02 4.52898E-23
2.12143E-02 4.27417E-23
2.18476E-02 4.03714E-23
2.24900E-02 3.81641E-23
2.31415E-02 3.61064E-23
2.38021E-02 3.41862E-23
2.44717E-02 3.23926E-23
2.51504E-02 3.07155E-23
2.58382E-02 2.91460E-23
2.65349E-02 2.76758E-23
2.72407E-02 2.62974E-23
2.79555E-02 2.50039E-23
2.86793E-02 2.37891E-23
2.94120E-02 2.26473E-23
3.01537E-02 2.15732E-23
3.09043E-02 2.05621E-23
3.16639E-02 1.96095E-23
3.24324E-02 1.87113E-23
3.32098E-02 1.78639E-23
3.39961E-02 1.70638E-23
3.47912E-02 1.63079E-23
3.55952E-02 1.55933E-23
3.64081E-02 1.49172E-23
3.72297E-02 1.42771E-23
3.80602E-02 1.36709E-23
3.88995E-02 1.30963E-23
3.97476E-02 1.25514E-23
4.06044E-02 1.20343E-23
4.14700E-02 1.15433E-23
4.23443E-02 1.10769E-23
4.32273E-02 1.06336E-23
4.41190E-02 1.02121E-23
4.50194E-02 9.81096E-24
4.59284E-02 9.42912E-24
4.68461E-02 9.06545E-24
4.87074E-02 8.38855E-24
5.06030E-02 7.77280E-24
5.25328E-02 7.21165E-24
5.44967E-02 6.69939E-24
5.64946E-02 6.23099E-24
5.85262E-02 5.80200E-24
6.05914E-02 5.40851E-24
6.26901E-02 5.04706E-24
6.48222E-02 4.71456E-24
6.69873E-02 4.40828E-24
6.91854E-02 4.12578E-24
7.14163E-02 3.86489E-24
7.36799E-02 3.62366E-24
7.59760E-02 3.40034E-24
7.83043E-02 3.19337E-24
8.06647E-02 3.00134E-24
8.30571E-02 2.82299E-24
8.54812E-02 2.65717E-24
8.79369E-02 2.50285E-24
9.04240E-02 2.35909E-24
9.29422E-02 2.22505E-24
9.54915E-02 2.09995E-24
9.80716E-02 1.98310E-24
1.00682E-01 1.87387E-24
1.03323E-01 1.77167E-24
1.05995E-01 1.67597E-24
1.08696E-01 1.58630E-24
1.11427E-01 1.50221E-24
1.14188E-01 1.42329E-24
1.16978E-01 1.34918E-24
1.19797E-01 1.27954E-24
1.22645E-01 1.21405E-24
1.25522E-01 1.15243E-24
1.28428E-01 1.09441E-24
1.31361E-01 1.03975E-24
1.34323E-01 9.88219E-25
1.37313E-01 9.39618E-25
1.40330E-01 8.93752E-25
1.43375E-01 8.50444E-25
1.46447E-01 8.09529E-25
1.49545E-01 7.70855E-25
1.52671E-01 7.34282E-25
1.55823E-01 6.99679E-25
1.59001E-01 6.66923E-25
1.62205E-01 6.35903E-25
1.65435E-01 6.06513E-25
1.68690E-01 5.78655E-25
1.71970E-01 5.52238E-25
1.75276E-01 5.27178E-25
1.78606E-01 5.03394E-25
1.81961E-01 4.80814E-25
1.85340E-01 4.59367E-25
1.88743E-01 4.38990E-25
1.92169E-01 4.19622E-25
1.95619E-01 4.01207E-25
1.99092E-01 3.83691E-25
2.02589E-01 3.67025E-25
2.06107E-01 3.51163E-25
2.09649E-01 3.36061E-25
2.13212E-01 3.21678E-25
2.16797E-01 3.07975E-25
2.20404E-01 2.94917E-25
2.24032E-01 2.82469E-25
2.27680E-01 2.70600E-25
2.31350E-01 2.59280E-25
2.35040E-01 2.48479E-25
2.38751E-01 2.38172E-25
2.42481E-01 2.28334E-25
2.46231E-01 2.18940E-25
2.50000E-01 2.09969E-25
2.53788E-01 2.01400E-25
2.57595E-01 1.93211E-25
2.61421E-01 1.85386E-25
2.65264E-01 1.77905E-25
2.69126E-01 1.70752E-25
2.73005E-01 1.63912E-25
2.76901E-01 1.57368E-25
2.80814E-01 1.51108E-25
2.84744E-01 1.45118E-25
2.88691E-01 1.39384E-25
2.92653E-01 1.33895E-25
2.96632E-01 1.28639E-25
3.00625E-01 1.23605E-25
3.04634E-01 1.18784E-25
3.08658E-01 1.14165E-25
3.12697E-01 1.09739E-25
3.16749E-01 1.05498E-25
3.20816E-01 1.01432E-25
3.24896E-01 9.75349E-26
3.28990E-01 9.37979E-26
3.33097E-01 9.02142E-26
3.37216E-01 8.67769E-26
3.41348E-01 8.34797E-26
3.45492E-01 8.03162E-26
3.49647E-01 7.72808E-26
3.53814E-01 7.43677E-26
3.57992E-01 7.15716E-26
3.62181E-01 6.88876E-26
3.66381E-01 6.63106E-26
3.70590E-01 6.38362E-26
3.74810E-01 6.14600E-26
3.79039E-01 5.91778E-26
3.83277E-01 5.69855E-26
3.87524E-01 5.48794E-26
3.91780E-01 5.28559E-26
3.96044E-01 5.09114E-26
4.00316E-01 4.90428E-26
4.04596E-01 4.72468E-26
4.08882E-01 4.55204E-26
4.13176E-01 4.38607E-26
4.17476E-01 4.22650E-26
4.21783E-01 4.07307E-26
4.26095E-01 3.92552E-26
4.30413E-01 3.78361E-26
4.34737E-01 3.64712E-26
4.39065E-01 3.51583E-26
4.43398E-01 3.38952E-26
4.47736E-01 3.26799E-26
4.52077E-01 3.15106E-26
4.56422E-01 3.03854E-26
4.60770E-01 2.93025E-26
4.65122E-01 2.82602E-26
4.69476E-01 2.72569E-26
4.73832E-01 2.62911E-26
4.78190E-01 2.53614E-26
4.82550E-01 2.44662E-26
4.86912E-01 2.36042E-26
4.91274E-01 2.27742E-26
4.95637E-01 2.19748E-26
5.00000E-01 2.12049E-26
5.04363E-01 2.04633E-26
5.08726E-01 1.97490E-26
5.13088E-01 1.90609E-26
5.17450E-01 1.83979E-26
5.21810E-01 1.77591E-26
5.26168E-01 1.71437E-26
5.30524E-01 1.65505E-26
5.34878E-01 1.59790E-26
5.39230E-01 1.54281E-26
5.43578E-01 1.48971E-26
5.47923E-01 1.43853E-26
5.52264E-01 1.38919E-26
5.56602E-01 1.34163E-26
5.60935E-01 1.29577E-26
5.65263E-01 1.25155E-26
5.69587E-01 1.20892E-26
5.73905E-01 1.16781E-26
5.78217E-01 1.12816E-26
5.82524E-01 1.08991E-26
5.86824E-01 1.05303E-26
5.91118E-01 1.01745E-26
5.95404E-01 9.83133E-27
5.99684E-01 9.50024E-27
6.03956E-01 9.18081E-27
6.08220E-01 8.87261E-27
6.12476E-01 8.57523E-27
6.16723E-01 8.28826E-27
6.20961E-01 8.01132E-27
6.25190E-01 7.74404E-27
6.29410E-01 7.48608E-27
6.33619E-01 7.23708E-27
6.37819E-01 6.99673E-27
6.42008E-01 6.76470E-27
6.46186E-01 6.54069E-27
6.50353E-01 6.32441E-27
6.54508E-01 6.11558E-27
6.58652E-01 5.91393E-27
6.62784E-01 5.71920E-27
6.66903E-01 5.53113E-27
6.71010E-01 5.34949E-27
6.75104E-01 5.17405E-27
6.79184E-01 5.00458E-27
6.83251E-01 4.84087E-27
6.87303E-01 4.68271E-27
6.91342E-01 4.52990E-27
6.95366E-01 4.38225E-27
6.99375E-01 4.23958E-27
7.03368E-01 4.10171E-27
7.07347E-01 3.96846E-27
7.11309E-01 3.83968E-27
7.15256E-01 3.71520E-27
7.19186E-01 3.59488E-27
7.23099E-01 3.47856E-27
7.26995E-01 3.36610E-27
7.30874E-01 3.25737E-27
7.34736E-01 3.15223E-27
7.38579E-01 3.05056E-27
7.42405E-01 2.95224E-27
7.46212E-01 2.85715E-27
7.50000E-01 2.76517E-27
7.53769E-01 2.67620E-27
7.57519E-01 2.59013E-27
7.61249E-01 2.50686E-27
7.64960E-01 2.42630E-27
7.68650E-01 2.34834E-27
7.72320E-01 2.27291E-27
7.75968E-01 2.19990E-27
7.79596E-01 2.12925E-27
7.83203E-01 2.06086E-27
7.86788E-01 1.99465E-27
7.90351E-01 1.93056E-27
7.93893E-01 1.86851E-27
7.97411E-01 1.80843E-27
8.00908E-01 1.75026E-27
8.04381E-01 1.69392E-27
8.07831E-01 1.63936E-27
8.11257E-01 1.58651E-27
8.14660E-01 1.53532E-27
8.18039E-01 1.48573E-27
8.21394E-01 1.43769E-27
8.24724E-01 1.39115E-27
8.28030E-01 1.34604E-27
8.31310E-01 1.30234E-27
8.34565E-01 1.25998E-27
8.37795E-01 1.21893E-27
8.40999E-01 1.17914E-27
8.44177E-01 1.14057E-27
8.47329E-01 1.10318E-27
8.50455E-01 1.06692E-27
8.53553E-01 1.03178E-27
8.56625E-01 9.97692E-28
8.59670E-01 9.64641E-28
8.62687E-01 9.32588E-28
8.65677E-01 9.01500E-28
8.68639E-01 8.71347E-28
8.71572E-01 8.42098E-28
8.74478E-01 8.13724E-28
8.77355E-01 7.86198E-28
8.80203E-01 7.59492E-28
8.83022E-01 7.33580E-28
8.85812E-01 7.08437E-28
8.88573E-01 6.84040E-28
8.91304E-01 6.60363E-28
8.94005E-01 6.37386E-28
8.96677E-01 6.15087E-28
8.99318E-01 5.93444E-28
9.01928E-01 5.72437E-28
9.04508E-01 5.52048E-28
9.07058E-01 5.32256E-28
9.09576E-01 5.13045E-28
9.12063E-01 4.94396E-28
9.14519E-01 4.76293E-28
9.16943E-01 4.58720E-28
9.19335E-01 4.41661E-28
9.21696E-01 4.25102E-28
9.24024E-01 4.09027E-28
9.26320E-01 3.93422E-28
9.28584E-01 3.78275E-28
9.30815E-01 3.63571E-28
9.33013E-01 3.49300E-28
9.35178E-01 3.35448E-28
9.37310E-01 3.22004E-28
9.39409E-01 3.08957E-28
9.41474E-01 2.96295E-28
9.43505E-01 2.84010E-28
9.45503E-01 2.72090E-28
9.47467E-01 2.60526E-28
9.49397E-01 2.49308E-28
9.51293E-01 2.38429E-28
9.53154E-01 2.27878E-28
9.54981E-01 2.17649E-28
9.56773E-01 2.07732E-28
9.58530E-01 1.98120E-28
9.60252E-01 1.88807E-28
9.61940E-01 1.79783E-28
9.63592E-01 1.71044E-28
9.65209E-01 1.62582E-28
9.66790E-01 1.54391E-28
9.68336E-01 1.46465E-28
9.69846E-01 1.38797E-28
9.71321E-01 1.31384E-28
9.72759E-01 1.24218E-28
9.74162E-01 1.17295E-28
9.75528E-01 1.10609E-28
9.76858E-01 1.04157E-28
9.78152E-01 9.79334E-29
9.79410E-01 9.19338E-29
9.80631E-01 8.61542E-29
9.81815E-01 8.05904E-29
9.82963E-01 7.52386E-29
9.84074E-01 7.00953E-29
9.85148E-01 6.51567E-29
9.86185E-01 6.04197E-29
9.87185E-01 5.58809E-29
9.88148E-01 5.15374E-29
9.89074E-01 4.73862E-29
9.89962E-01 4.34245E-29
9.90814E-01 3.96498E-29
9.91627E-01 3.60595E-29
9.92404E-01 3.26513E-29
9.93143E-01 2.94230E-29
9.93844E-01 2.63724E-29
9.94508E-01 2.34976E-29
9.95134E-01 2.07967E-29
9.95722E-01 1.82680E-29
9.96273E-01 1.59099E-29
9.96786E-01 1.37208E-29
9.97261E-01 1.16994E-29
9.97698E-01 9.84434E-30
9.98097E-01 8.15448E-30
9.98459E-01 6.62875E-30
9.98782E-01 5.26618E-30
9.99067E-01 4.06592E-30
9.99315E-01 3.02722E-30
9.99524E-01 2.14941E-30
9.99695E-01 1.43195E-30
9.99829E-01 8.74387E-31
9.99924E-01 4.76379E-31
9.99981E-01 2.37673E-31
1.00000E+00 1.58120E-31
