 #
 # Subroutine ELSEPA. Elastic scattering of electrons and positrons
 #                    by neutral atoms and positive ions
 #
 # Projectile: electron
 # Kinetic energy = 7.00000E+07 eV = 2.57245E+06 a.u.
 #
 # WARNING: High-energy factorization with free-atom DF screening.
 #          Absorption, polarization and exchange corrections are
 #          switched off.
 #          Phase shifts are calculated for the bare nucleus.
 #          Scattering amplitudes are not evaluated.
 #
 # Element: Hf,  Z =  72,  atomic weight = 1.78490E+02 g/mol
 #
 # Nuclear model: Fermi distribution
 #                Average radius = 6.02451E-13 cm
 #                Skin thickness = 5.46000E-14 cm
 #
 # Number of electrons = 72
 #
 # Total elastic cross section = 7.31651E-18 cm**2 = 2.61277E-01 a0**2
 # 1st transport cross section = 2.00744E-24 cm**2 = 7.16871E-08 a0**2
 # 2nd transport cross section = 5.93732E-24 cm**2 = 2.12026E-07 a0**2
 #
 #
 # Differential cross section:                       MU=(1-COS(THETA))/2
 #
 #  THETA        MU          DCS          DCS        Sherman      error
 #  (deg)                 (cm**2/sr)   (a0**2/sr)    function
 #----------------------------------------------------------------------
0.00000E+00 3.14134E-10
7.61557E-13 3.13631E-10
1.18994E-12 3.13350E-10
1.71346E-12 3.13007E-10
2.33225E-12 3.12602E-10
3.04617E-12 3.12136E-10
3.85530E-12 3.11610E-10
4.75964E-12 3.11023E-10
5.75917E-12 3.10377E-10
6.85391E-12 3.09673E-10
8.04379E-12 3.08909E-10
9.32893E-12 3.08089E-10
1.07092E-11 3.07212E-10
1.21847E-11 3.06278E-10
1.37554E-11 3.05290E-10
1.54213E-11 3.04248E-10
1.71823E-11 3.03153E-10
1.90386E-11 3.02005E-10
2.09900E-11 3.00807E-10
2.30367E-11 2.99559E-10
2.51785E-11 2.98262E-10
2.74156E-11 2.96917E-10
2.97478E-11 2.95526E-10
3.21752E-11 2.94090E-10
3.46979E-11 2.92609E-10
3.73157E-11 2.91087E-10
4.00286E-11 2.89522E-10
4.28368E-11 2.87918E-10
4.57402E-11 2.86275E-10
4.87388E-11 2.84589E-10
5.18325E-11 2.82868E-10
5.50215E-11 2.81114E-10
5.83057E-11 2.79329E-10
6.16850E-11 2.77513E-10
6.51595E-11 2.75670E-10
6.87293E-11 2.73800E-10
7.23943E-11 2.71903E-10
7.61544E-11 2.69966E-10
1.18991E-10 2.49528E-10
1.71347E-10 2.27948E-10
2.33223E-10 2.06360E-10
3.04617E-10 1.85579E-10
3.85531E-10 1.66216E-10
4.75965E-10 1.48582E-10
5.75917E-10 1.32781E-10
6.85389E-10 1.18788E-10
8.04380E-10 1.06500E-10
9.32891E-10 9.57558E-11
1.07092E-09 8.63658E-11
1.21847E-09 7.81673E-11
1.37554E-09 7.09972E-11
1.54213E-09 6.47010E-11
1.71823E-09 5.91492E-11
1.90386E-09 5.42409E-11
2.09900E-09 4.98828E-11
2.30367E-09 4.59812E-11
2.51785E-09 4.24856E-11
2.74156E-09 3.93416E-11
2.97478E-09 3.64970E-11
3.21752E-09 3.39122E-11
3.46978E-09 3.15626E-11
3.73156E-09 2.94204E-11
4.00286E-09 2.74526E-11
4.28368E-09 2.56490E-11
4.57402E-09 2.39929E-11
4.87388E-09 2.23418E-11
5.18326E-09 2.08452E-11
5.50215E-09 1.95052E-11
5.83057E-09 1.83018E-11
6.16850E-09 1.72180E-11
6.51596E-09 1.62392E-11
6.87293E-09 1.53529E-11
7.23942E-09 1.45333E-11
7.61544E-09 1.36424E-11
1.18991E-08 7.86058E-12
1.71347E-08 4.84689E-12
2.33223E-08 3.14771E-12
3.04617E-08 2.11214E-12
3.85531E-08 1.46397E-12
4.75965E-08 1.04200E-12
5.75917E-08 7.58038E-13
6.85389E-08 5.62895E-13
8.04380E-08 4.26580E-13
9.32891E-08 3.29356E-13
1.07092E-07 2.58509E-13
1.21847E-07 2.06044E-13
1.37554E-07 1.66394E-13
1.54213E-07 1.36058E-13
1.71823E-07 1.12476E-13
1.90386E-07 9.38825E-14
2.09900E-07 7.90199E-14
2.30367E-07 6.69734E-14
2.51785E-07 5.71418E-14
2.74156E-07 4.90544E-14
2.97478E-07 4.23480E-14
3.21752E-07 3.67477E-14
3.46978E-07 3.20445E-14
3.73156E-07 2.80690E-14
4.00286E-07 2.46837E-14
4.28368E-07 2.17912E-14
4.57402E-07 1.93089E-14
4.87388E-07 1.71563E-14
5.18325E-07 1.53034E-14
5.50215E-07 1.37039E-14
5.83057E-07 1.22970E-14
6.16850E-07 1.10668E-14
6.51596E-07 9.99219E-15
6.87293E-07 9.04031E-15
7.23942E-07 8.19819E-15
7.61543E-07 7.45508E-15
1.18991E-06 3.20216E-15
1.71347E-06 1.59506E-15
2.33223E-06 8.81838E-16
3.04617E-06 5.26491E-16
3.85531E-06 3.33409E-16
4.75964E-06 2.21202E-16
5.75916E-06 1.52424E-16
6.85388E-06 1.08391E-16
8.04378E-06 7.91575E-17
9.32888E-06 5.91412E-17
1.07092E-05 4.50672E-17
1.21846E-05 3.49412E-17
1.37553E-05 2.75063E-17
1.54212E-05 2.19484E-17
1.71822E-05 1.77266E-17
1.90385E-05 1.44656E-17
2.09899E-05 1.19347E-17
2.30365E-05 9.93266E-18
2.51783E-05 8.33136E-18
2.74153E-05 7.03852E-18
2.97475E-05 5.98627E-18
3.21749E-05 5.12355E-18
3.46974E-05 4.41127E-18
3.73152E-05 3.81915E-18
4.00281E-05 3.32356E-18
4.28362E-05 2.90602E-18
4.57395E-05 2.55205E-18
4.87380E-05 2.25026E-18
5.18317E-05 1.99165E-18
5.50205E-05 1.76907E-18
5.83045E-05 1.57669E-18
6.16838E-05 1.40978E-18
6.51582E-05 1.26443E-18
6.87277E-05 1.13740E-18
7.23925E-05 1.02596E-18
7.61524E-05 9.28020E-19
9.21439E-05 6.35556E-19
1.09658E-04 4.49764E-19
1.28695E-04 3.27225E-19
1.49255E-04 2.43723E-19
1.71338E-04 1.85264E-19
1.94942E-04 1.43338E-19
2.20070E-04 1.12641E-19
2.46720E-04 8.97486E-20
2.74892E-04 7.23941E-20
3.04586E-04 5.90450E-20
3.35803E-04 4.86404E-20
3.68542E-04 4.04340E-20
4.02802E-04 3.38907E-20
4.38585E-04 2.86219E-20
4.75889E-04 2.43405E-20
5.14715E-04 2.08325E-20
5.55063E-04 1.79359E-20
5.96931E-04 1.55270E-20
6.40321E-04 1.35105E-20
6.85233E-04 1.18119E-20
7.31665E-04 1.03729E-20
7.79618E-04 9.14728E-21
8.29092E-04 8.09807E-21
8.80086E-04 7.19561E-21
9.32601E-04 6.41591E-21
9.86636E-04 5.73944E-21
1.04219E-03 5.15018E-21
1.09927E-03 4.63496E-21
1.15786E-03 4.18286E-21
1.21797E-03 3.78482E-21
1.27961E-03 3.43324E-21
1.34276E-03 3.12174E-21
1.40743E-03 2.84496E-21
1.47362E-03 2.59833E-21
1.54133E-03 2.37800E-21
1.61056E-03 2.18066E-21
1.68131E-03 2.00348E-21
1.75357E-03 1.84403E-21
1.82735E-03 1.70022E-21
1.90265E-03 1.57024E-21
1.97947E-03 1.45252E-21
2.05780E-03 1.34569E-21
2.13765E-03 1.24856E-21
2.21902E-03 1.16009E-21
2.30190E-03 1.07937E-21
2.38630E-03 1.00559E-21
2.47222E-03 9.38045E-22
2.55965E-03 8.76113E-22
2.64859E-03 8.19242E-22
2.73905E-03 7.66940E-22
2.83103E-03 7.18772E-22
2.92452E-03 6.74351E-22
3.01952E-03 6.33331E-22
3.11604E-03 5.95403E-22
3.21407E-03 5.60291E-22
3.31362E-03 5.27745E-22
3.41468E-03 4.97545E-22
3.51725E-03 4.69487E-22
3.62133E-03 4.43393E-22
3.72692E-03 4.19098E-22
3.83403E-03 3.96455E-22
3.94265E-03 3.75331E-22
4.05278E-03 3.55604E-22
4.16442E-03 3.37164E-22
4.27757E-03 3.19912E-22
4.39223E-03 3.03756E-22
4.50840E-03 2.88614E-22
4.62608E-03 2.74409E-22
4.74527E-03 2.61073E-22
4.86597E-03 2.48543E-22
4.98817E-03 2.36761E-22
5.11188E-03 2.25673E-22
5.23711E-03 2.15229E-22
5.36383E-03 2.05383E-22
5.49207E-03 1.96096E-22
5.62181E-03 1.87332E-22
5.75306E-03 1.79054E-22
5.88581E-03 1.71231E-22
6.02007E-03 1.63832E-22
6.15583E-03 1.56830E-22
6.29310E-03 1.50201E-22
6.43187E-03 1.43919E-22
6.57214E-03 1.37964E-22
6.71392E-03 1.32315E-22
6.85720E-03 1.26953E-22
7.00198E-03 1.21861E-22
7.14827E-03 1.17023E-22
7.29605E-03 1.12423E-22
7.44534E-03 1.08048E-22
7.59612E-03 1.03884E-22
7.97965E-03 9.43213E-23
8.37255E-03 8.58362E-23
8.77480E-03 7.82856E-23
9.18641E-03 7.15480E-23
9.60736E-03 6.55201E-23
1.00376E-02 6.01137E-23
1.04773E-02 5.52530E-23
1.09262E-02 5.08731E-23
1.13844E-02 4.69177E-23
1.18520E-02 4.33381E-23
1.23288E-02 4.00922E-23
1.28150E-02 3.71432E-23
1.33104E-02 3.44589E-23
1.38150E-02 3.20112E-23
1.43290E-02 2.97755E-23
1.48521E-02 2.77301E-23
1.53845E-02 2.58557E-23
1.59262E-02 2.41355E-23
1.64770E-02 2.25544E-23
1.70371E-02 2.10992E-23
1.76063E-02 1.97579E-23
1.81848E-02 1.85201E-23
1.87724E-02 1.73762E-23
1.93692E-02 1.63179E-23
1.99751E-02 1.53375E-23
2.05901E-02 1.44284E-23
2.12143E-02 1.35843E-23
2.18476E-02 1.27998E-23
2.24900E-02 1.20699E-23
2.31415E-02 1.13901E-23
2.38021E-02 1.07563E-23
2.44717E-02 1.01649E-23
2.51504E-02 9.61253E-24
2.58382E-02 9.09613E-24
2.65349E-02 8.61295E-24
2.72407E-02 8.16046E-24
2.79555E-02 7.73637E-24
2.86793E-02 7.33858E-24
2.94120E-02 6.96517E-24
3.01537E-02 6.61437E-24
3.09043E-02 6.28458E-24
3.16639E-02 5.97431E-24
3.24324E-02 5.68222E-24
3.32098E-02 5.40703E-24
3.39961E-02 5.14762E-24
3.47912E-02 4.90291E-24
3.55952E-02 4.67192E-24
3.64081E-02 4.45376E-24
3.72297E-02 4.24759E-24
3.80602E-02 4.05264E-24
3.88995E-02 3.86819E-24
3.97476E-02 3.69359E-24
4.06044E-02 3.52821E-24
4.14700E-02 3.37149E-24
4.23443E-02 3.22289E-24
4.32273E-02 3.08194E-24
4.41190E-02 2.94816E-24
4.50194E-02 2.82114E-24
4.59284E-02 2.70047E-24
4.68461E-02 2.58579E-24
4.87074E-02 2.37302E-24
5.06030E-02 2.18035E-24
5.25328E-02 2.00558E-24
5.44967E-02 1.84680E-24
5.64946E-02 1.70234E-24
5.85262E-02 1.57071E-24
6.05914E-02 1.45061E-24
6.26901E-02 1.34090E-24
6.48222E-02 1.24053E-24
6.69873E-02 1.14861E-24
6.91854E-02 1.06433E-24
7.14163E-02 9.86966E-25
7.36799E-02 9.15877E-25
7.59760E-02 8.50487E-25
7.83043E-02 7.90279E-25
8.06647E-02 7.34792E-25
8.30571E-02 6.83608E-25
8.54812E-02 6.36352E-25
8.79369E-02 5.92688E-25
9.04240E-02 5.52309E-25
9.29422E-02 5.14940E-25
9.54915E-02 4.80330E-25
9.80716E-02 4.48252E-25
1.00682E-01 4.18502E-25
1.03323E-01 3.90892E-25
1.05995E-01 3.65251E-25
1.08696E-01 3.41425E-25
1.11427E-01 3.19273E-25
1.14188E-01 2.98664E-25
1.16978E-01 2.79481E-25
1.19797E-01 2.61616E-25
1.22645E-01 2.44969E-25
1.25522E-01 2.29451E-25
1.28428E-01 2.14978E-25
1.31361E-01 2.01474E-25
1.34323E-01 1.88867E-25
1.37313E-01 1.77095E-25
1.40330E-01 1.66096E-25
1.43375E-01 1.55816E-25
1.46447E-01 1.46205E-25
1.49545E-01 1.37216E-25
1.52671E-01 1.28806E-25
1.55823E-01 1.20935E-25
1.59001E-01 1.13566E-25
1.62205E-01 1.06664E-25
1.65435E-01 1.00199E-25
1.68690E-01 9.41414E-26
1.71970E-01 8.84634E-26
1.75276E-01 8.31401E-26
1.78606E-01 7.81480E-26
1.81961E-01 7.34656E-26
1.85340E-01 6.90725E-26
1.88743E-01 6.49500E-26
1.92169E-01 6.10807E-26
1.95619E-01 5.74482E-26
1.99092E-01 5.40375E-26
2.02589E-01 5.08343E-26
2.06107E-01 4.78256E-26
2.09649E-01 4.49991E-26
2.13212E-01 4.23433E-26
2.16797E-01 3.98476E-26
2.20404E-01 3.75019E-26
2.24032E-01 3.52970E-26
2.27680E-01 3.32241E-26
2.31350E-01 3.12752E-26
2.35040E-01 2.94425E-26
2.38751E-01 2.77189E-26
2.42481E-01 2.60979E-26
2.46231E-01 2.45731E-26
2.50000E-01 2.31387E-26
2.53788E-01 2.17892E-26
2.57595E-01 2.05196E-26
2.61421E-01 1.93249E-26
2.65264E-01 1.82007E-26
2.69126E-01 1.71428E-26
2.73005E-01 1.61472E-26
2.76901E-01 1.52101E-26
2.80814E-01 1.43282E-26
2.84744E-01 1.34980E-26
2.88691E-01 1.27166E-26
2.92653E-01 1.19810E-26
2.96632E-01 1.12886E-26
3.00625E-01 1.06367E-26
3.04634E-01 1.00231E-26
3.08658E-01 9.44532E-27
3.12697E-01 8.90140E-27
3.16749E-01 8.38932E-27
3.20816E-01 7.90720E-27
3.24896E-01 7.45328E-27
3.28990E-01 7.02590E-27
3.33097E-01 6.62352E-27
3.37216E-01 6.24467E-27
3.41348E-01 5.88797E-27
3.45492E-01 5.55212E-27
3.49647E-01 5.23591E-27
3.53814E-01 4.93819E-27
3.57992E-01 4.65787E-27
3.62181E-01 4.39394E-27
3.66381E-01 4.14544E-27
3.70590E-01 3.91148E-27
3.74810E-01 3.69119E-27
3.79039E-01 3.48379E-27
3.83277E-01 3.28852E-27
3.87524E-01 3.10466E-27
3.91780E-01 2.93156E-27
3.96044E-01 2.76858E-27
4.00316E-01 2.61514E-27
4.04596E-01 2.47066E-27
4.08882E-01 2.33464E-27
4.13176E-01 2.20657E-27
4.17476E-01 2.08598E-27
4.21783E-01 1.97245E-27
4.26095E-01 1.86555E-27
4.30413E-01 1.76489E-27
4.34737E-01 1.67011E-27
4.39065E-01 1.58086E-27
4.43398E-01 1.49682E-27
4.47736E-01 1.41768E-27
4.52077E-01 1.34315E-27
4.56422E-01 1.27296E-27
4.60770E-01 1.20686E-27
4.65122E-01 1.14459E-27
4.69476E-01 1.08594E-27
4.73832E-01 1.03068E-27
4.78190E-01 9.78630E-28
4.82550E-01 9.29585E-28
4.86912E-01 8.83369E-28
4.91274E-01 8.39816E-28
4.95637E-01 7.98765E-28
5.00000E-01 7.60069E-28
5.04363E-01 7.23587E-28
5.08726E-01 6.89187E-28
5.13088E-01 6.56745E-28
5.17450E-01 6.26142E-28
5.21810E-01 5.97271E-28
5.26168E-01 5.70026E-28
5.30524E-01 5.44310E-28
5.34878E-01 5.20032E-28
5.39230E-01 4.97106E-28
5.43578E-01 4.75450E-28
5.47923E-01 4.54988E-28
5.52264E-01 4.35648E-28
5.56602E-01 4.17363E-28
5.60935E-01 4.00070E-28
5.65263E-01 3.83708E-28
5.69587E-01 3.68222E-28
5.73905E-01 3.53559E-28
5.78217E-01 3.39670E-28
5.82524E-01 3.26508E-28
5.86824E-01 3.14030E-28
5.91118E-01 3.02194E-28
5.95404E-01 2.90961E-28
5.99684E-01 2.80297E-28
6.03956E-01 2.70166E-28
6.08220E-01 2.60537E-28
6.12476E-01 2.51380E-28
6.16723E-01 2.42666E-28
6.20961E-01 2.34370E-28
6.25190E-01 2.26467E-28
6.29410E-01 2.18932E-28
6.33619E-01 2.11746E-28
6.37819E-01 2.04886E-28
6.42008E-01 1.98334E-28
6.46186E-01 1.92073E-28
6.50353E-01 1.86084E-28
6.54508E-01 1.80352E-28
6.58652E-01 1.74863E-28
6.62784E-01 1.69603E-28
6.66903E-01 1.64558E-28
6.71010E-01 1.59716E-28
6.75104E-01 1.55066E-28
6.79184E-01 1.50597E-28
6.83251E-01 1.46300E-28
6.87303E-01 1.42163E-28
6.91342E-01 1.38180E-28
6.95366E-01 1.34341E-28
6.99375E-01 1.30640E-28
7.03368E-01 1.27067E-28
7.07347E-01 1.23618E-28
7.11309E-01 1.20285E-28
7.15256E-01 1.17062E-28
7.19186E-01 1.13944E-28
7.23099E-01 1.10926E-28
7.26995E-01 1.08002E-28
7.30874E-01 1.05169E-28
7.34736E-01 1.02422E-28
7.38579E-01 9.97559E-29
7.42405E-01 9.71681E-29
7.46212E-01 9.46548E-29
7.50000E-01 9.22127E-29
7.53769E-01 8.98385E-29
7.57519E-01 8.75294E-29
7.61249E-01 8.52827E-29
7.64960E-01 8.30957E-29
7.68650E-01 8.09660E-29
7.72320E-01 7.88913E-29
7.75968E-01 7.68696E-29
7.79596E-01 7.48988E-29
7.83203E-01 7.29770E-29
7.86788E-01 7.11024E-29
7.90351E-01 6.92733E-29
7.93893E-01 6.74882E-29
7.97411E-01 6.57456E-29
8.00908E-01 6.40441E-29
8.04381E-01 6.23822E-29
8.07831E-01 6.07589E-29
8.11257E-01 5.91728E-29
8.14660E-01 5.76230E-29
8.18039E-01 5.61082E-29
8.21394E-01 5.46275E-29
8.24724E-01 5.31800E-29
8.28030E-01 5.17646E-29
8.31310E-01 5.03807E-29
8.34565E-01 4.90272E-29
8.37795E-01 4.77036E-29
8.40999E-01 4.64089E-29
8.44177E-01 4.51425E-29
8.47329E-01 4.39036E-29
8.50455E-01 4.26918E-29
8.53553E-01 4.15062E-29
8.56625E-01 4.03464E-29
8.59670E-01 3.92117E-29
8.62687E-01 3.81016E-29
8.65677E-01 3.70156E-29
8.68639E-01 3.59531E-29
8.71572E-01 3.49136E-29
8.74478E-01 3.38967E-29
8.77355E-01 3.29019E-29
8.80203E-01 3.19287E-29
8.83022E-01 3.09768E-29
8.85812E-01 3.00457E-29
8.88573E-01 2.91350E-29
8.91304E-01 2.82443E-29
8.94005E-01 2.73732E-29
8.96677E-01 2.65214E-29
8.99318E-01 2.56884E-29
9.01928E-01 2.48741E-29
9.04508E-01 2.40779E-29
9.07058E-01 2.32996E-29
9.09576E-01 2.25389E-29
9.12063E-01 2.17954E-29
9.14519E-01 2.10688E-29
9.16943E-01 2.03589E-29
9.19335E-01 1.96653E-29
9.21696E-01 1.89877E-29
9.24024E-01 1.83259E-29
9.26320E-01 1.76796E-29
9.28584E-01 1.70486E-29
9.30815E-01 1.64326E-29
9.33013E-01 1.58312E-29
9.35178E-01 1.52444E-29
9.37310E-01 1.46717E-29
9.39409E-01 1.41131E-29
9.41474E-01 1.35683E-29
9.43505E-01 1.30369E-29
9.45503E-01 1.25190E-29
9.47467E-01 1.20141E-29
9.49397E-01 1.15221E-29
9.51293E-01 1.10428E-29
9.53154E-01 1.05760E-29
9.54981E-01 1.01215E-29
9.56773E-01 9.67909E-30
9.58530E-01 9.24861E-30
9.60252E-01 8.82987E-30
9.61940E-01 8.42269E-30
9.63592E-01 8.02690E-30
9.65209E-01 7.64233E-30
9.66790E-01 7.26881E-30
9.68336E-01 6.90620E-30
9.69846E-01 6.55432E-30
9.71321E-01 6.21304E-30
9.72759E-01 5.88221E-30
9.74162E-01 5.56167E-30
9.75528E-01 5.25130E-30
9.76858E-01 4.95097E-30
9.78152E-01 4.66053E-30
9.79410E-01 4.37987E-30
9.80631E-01 4.10886E-30
9.81815E-01 3.84738E-30
9.82963E-01 3.59533E-30
9.84074E-01 3.35258E-30
9.85148E-01 3.11905E-30
9.86185E-01 2.89461E-30
9.87185E-01 2.67917E-30
9.88148E-01 2.47265E-30
9.89074E-01 2.27494E-30
9.89962E-01 2.08596E-30
9.90814E-01 1.90563E-30
9.91627E-01 1.73387E-30
9.92404E-01 1.57060E-30
9.93143E-01 1.41575E-30
9.93844E-01 1.26925E-30
9.94508E-01 1.13103E-30
9.95134E-01 1.00104E-30
9.95722E-01 8.79215E-31
9.96273E-01 7.65501E-31
9.96786E-01 6.59849E-31
9.97261E-01 5.62211E-31
9.97698E-01 4.72544E-31
9.98097E-01 3.90807E-31
9.98459E-01 3.16965E-31
9.98782E-01 2.50984E-31
9.99067E-01 1.92835E-31
9.99315E-01 1.42491E-31
9.99524E-01 9.99305E-32
9.99695E-01 6.51343E-32
9.99829E-01 3.80868E-32
9.99924E-01 1.87757E-32
9.99981E-01 7.19252E-33
1.00000E+00 3.33202E-33
