 #
 # Subroutine ELSEPA. Elastic scattering of electrons and positrons
 #                    by neutral atoms and positive ions
 #
 # Projectile: positron
 # Kinetic energy = 1.75000E+08 eV = 6.43113E+06 a.u.
 #
 # WARNING: High-energy factorization with free-atom DF screening.
 #          Absorption, polarization and exchange corrections are
 #          switched off.
 #          Phase shifts are calculated for the bare nucleus.
 #          Scattering amplitudes are not evaluated.
 #
 # Element: Li,  Z =   3,  atomic weight = 6.94100E+00 g/mol
 #
 # Nuclear model: Fermi distribution
 #                Average radius = 2.04107E-13 cm
 #                Skin thickness = 5.46000E-14 cm
 #
 # Number of electrons =  3
 #
 # Total elastic cross section = 1.07461E-19 cm**2 = 3.83752E-03 a0**2
 # 1st transport cross section = 6.80183E-28 cm**2 = 2.42898E-11 a0**2
 # 2nd transport cross section = 2.02633E-27 cm**2 = 7.23616E-11 a0**2
 #
 #
 # Differential cross section:                       MU=(1-COS(THETA))/2
 #
 #  THETA        MU          DCS          DCS        Sherman      error
 #  (deg)                 (cm**2/sr)   (a0**2/sr)    function
 #----------------------------------------------------------------------
0.00000E+00 1.27368E-10
7.61557E-13 1.24787E-10
1.18994E-12 1.23365E-10
1.71346E-12 1.21656E-10
2.33225E-12 1.19675E-10
3.04617E-12 1.17442E-10
3.85530E-12 1.14976E-10
4.75964E-12 1.12299E-10
5.75917E-12 1.09435E-10
6.85391E-12 1.06406E-10
8.04379E-12 1.03237E-10
9.32893E-12 9.99526E-11
1.07092E-11 9.65759E-11
1.21847E-11 9.31294E-11
1.37554E-11 8.96353E-11
1.54213E-11 8.61182E-11
1.71823E-11 8.25953E-11
1.90386E-11 7.90845E-11
2.09900E-11 7.56028E-11
2.30367E-11 7.21684E-11
2.51785E-11 6.87937E-11
2.74156E-11 6.54891E-11
2.97478E-11 6.22650E-11
3.21752E-11 5.91321E-11
3.46979E-11 5.60985E-11
3.73157E-11 5.31671E-11
4.00286E-11 5.03424E-11
4.28368E-11 4.76281E-11
4.57402E-11 4.50297E-11
4.87388E-11 4.25439E-11
5.18325E-11 4.02319E-11
5.50215E-11 3.80514E-11
5.83057E-11 3.59507E-11
6.16850E-11 3.39303E-11
6.51595E-11 3.19905E-11
6.87293E-11 3.01308E-11
7.23943E-11 2.83507E-11
7.61544E-11 2.66491E-11
1.18991E-10 1.48245E-11
1.71347E-10 8.56559E-12
2.33223E-10 5.23170E-12
3.04617E-10 3.39576E-12
3.85531E-10 2.33789E-12
4.75965E-10 1.69080E-12
5.75917E-10 1.27014E-12
6.85389E-10 9.83859E-13
8.04380E-10 7.81064E-13
9.32891E-10 6.32220E-13
1.07092E-09 5.19666E-13
1.21847E-09 4.32169E-13
1.37554E-09 3.63448E-13
1.54213E-09 3.08401E-13
1.71823E-09 2.63629E-13
1.90386E-09 2.26731E-13
2.09900E-09 1.96009E-13
2.30367E-09 1.70175E-13
2.51785E-09 1.48384E-13
2.74156E-09 1.29946E-13
2.97478E-09 1.14262E-13
3.21752E-09 1.00826E-13
3.46978E-09 8.92406E-14
3.73156E-09 7.92203E-14
4.00286E-09 7.05178E-14
4.28368E-09 6.29348E-14
4.57402E-09 5.63019E-14
4.87388E-09 5.05020E-14
5.18326E-09 4.53711E-14
5.50215E-09 4.08674E-14
5.83057E-09 3.69415E-14
6.16850E-09 3.34581E-14
6.51596E-09 3.03201E-14
6.87293E-09 2.75586E-14
7.23942E-09 2.51123E-14
7.61544E-09 2.28900E-14
1.18991E-08 9.98198E-15
1.71347E-08 4.96118E-15
2.33223E-08 2.72003E-15
3.04617E-08 1.60827E-15
3.85531E-08 1.00912E-15
4.75965E-08 6.64123E-16
5.75917E-08 4.54492E-16
6.85389E-08 3.21319E-16
8.04380E-08 2.33419E-16
9.32891E-08 1.73606E-16
1.07092E-07 1.31779E-16
1.21847E-07 1.01822E-16
1.37554E-07 7.99128E-17
1.54213E-07 6.35914E-17
1.71823E-07 5.12316E-17
1.90386E-07 4.17338E-17
2.09900E-07 3.43382E-17
2.30367E-07 2.85105E-17
2.51785E-07 2.38682E-17
2.74156E-07 2.01334E-17
2.97478E-07 1.71013E-17
3.21752E-07 1.46191E-17
3.46978E-07 1.25713E-17
3.73156E-07 1.08698E-17
4.00286E-07 9.44669E-18
4.28368E-07 8.24901E-18
4.57402E-07 7.23526E-18
4.87388E-07 6.37255E-18
5.18325E-07 5.63468E-18
5.50215E-07 5.00057E-18
5.83057E-07 4.45320E-18
6.16850E-07 3.97872E-18
6.51596E-07 3.56578E-18
6.87293E-07 3.20504E-18
7.23942E-07 2.88879E-18
7.61543E-07 2.61060E-18
1.18991E-06 1.06940E-18
1.71347E-06 5.15744E-19
2.33223E-06 2.78392E-19
3.04617E-06 1.63189E-19
3.85531E-06 1.01878E-19
4.75964E-06 6.68422E-20
5.75916E-06 4.56539E-20
6.85388E-06 3.22344E-20
8.04378E-06 2.34028E-20
9.32888E-06 1.73990E-20
1.07092E-05 1.32028E-20
1.21846E-05 1.01987E-20
1.37553E-05 8.00250E-21
1.54212E-05 6.36687E-21
1.71822E-05 5.12857E-21
1.90385E-05 4.18559E-21
2.09899E-05 3.44247E-21
2.30365E-05 2.85543E-21
2.51783E-05 2.38781E-21
2.74153E-05 2.01246E-21
2.97475E-05 1.70879E-21
3.21749E-05 1.46100E-21
3.46974E-05 1.25696E-21
3.73152E-05 1.08744E-21
4.00281E-05 9.45428E-22
4.28362E-05 8.25620E-22
4.57395E-05 7.23982E-22
4.87380E-05 6.37384E-22
5.18317E-05 5.63333E-22
5.50205E-05 4.99787E-22
5.83045E-05 4.45044E-22
6.16838E-05 3.97676E-22
6.51582E-05 3.56490E-22
6.87277E-05 3.20503E-22
7.23925E-05 2.88916E-22
7.61524E-05 2.60953E-22
9.21439E-05 1.78089E-22
1.09658E-04 1.25775E-22
1.28695E-04 9.12801E-23
1.49255E-04 6.78495E-23
1.71338E-04 5.14832E-23
1.94942E-04 3.97522E-23
2.20070E-04 3.11912E-23
2.46720E-04 2.48065E-23
2.74892E-04 1.99784E-23
3.04586E-04 1.62683E-23
3.35803E-04 1.33794E-23
3.68542E-04 1.11055E-23
4.02802E-04 9.29278E-24
4.38585E-04 7.83625E-24
4.75889E-04 6.65332E-24
5.14715E-04 5.68538E-24
5.55063E-04 4.88724E-24
5.96931E-04 4.22388E-24
6.40321E-04 3.66958E-24
6.85233E-04 3.20290E-24
7.31665E-04 2.80816E-24
7.79618E-04 2.47228E-24
8.29092E-04 2.18502E-24
8.80086E-04 1.93833E-24
9.32601E-04 1.72533E-24
9.86636E-04 1.54083E-24
1.04219E-03 1.38025E-24
1.09927E-03 1.24002E-24
1.15786E-03 1.11713E-24
1.21797E-03 1.00903E-24
1.27961E-03 9.13703E-25
1.34276E-03 8.29311E-25
1.40743E-03 7.54433E-25
1.47362E-03 6.87791E-25
1.54133E-03 6.28319E-25
1.61056E-03 5.75132E-25
1.68131E-03 5.27423E-25
1.75357E-03 4.84556E-25
1.82735E-03 4.45934E-25
1.90265E-03 4.11072E-25
1.97947E-03 3.79542E-25
2.05780E-03 3.50960E-25
2.13765E-03 3.25014E-25
2.21902E-03 3.01406E-25
2.30190E-03 2.79897E-25
2.38630E-03 2.60264E-25
2.47222E-03 2.42312E-25
2.55965E-03 2.25878E-25
2.64859E-03 2.10802E-25
2.73905E-03 1.96960E-25
2.83103E-03 1.84228E-25
2.92452E-03 1.72503E-25
3.01952E-03 1.61691E-25
3.11604E-03 1.51707E-25
3.21407E-03 1.42478E-25
3.31362E-03 1.33935E-25
3.41468E-03 1.26019E-25
3.51725E-03 1.18675E-25
3.62133E-03 1.11854E-25
3.72692E-03 1.05514E-25
3.83403E-03 9.96122E-26
3.94265E-03 9.41151E-26
4.05278E-03 8.89885E-26
4.16442E-03 8.42035E-26
4.27757E-03 7.97336E-26
4.39223E-03 7.55532E-26
4.50840E-03 7.16415E-26
4.62608E-03 6.79769E-26
4.74527E-03 6.45418E-26
4.86597E-03 6.13189E-26
4.98817E-03 5.82925E-26
5.11188E-03 5.54491E-26
5.23711E-03 5.27747E-26
5.36383E-03 5.02584E-26
5.49207E-03 4.78884E-26
5.62181E-03 4.56550E-26
5.75306E-03 4.35490E-26
5.88581E-03 4.15615E-26
6.02007E-03 3.96849E-26
6.15583E-03 3.79116E-26
6.29310E-03 3.62352E-26
6.43187E-03 3.46493E-26
6.57214E-03 3.31480E-26
6.71392E-03 3.17262E-26
6.85720E-03 3.03787E-26
7.00198E-03 2.91011E-26
7.14827E-03 2.78890E-26
7.29605E-03 2.67385E-26
7.44534E-03 2.56459E-26
7.59612E-03 2.46076E-26
7.97965E-03 2.22297E-26
8.37255E-03 2.01281E-26
8.77480E-03 1.82653E-26
9.18641E-03 1.66098E-26
9.60736E-03 1.51345E-26
1.00376E-02 1.38167E-26
1.04773E-02 1.26366E-26
1.09262E-02 1.15775E-26
1.13844E-02 1.06249E-26
1.18520E-02 9.76630E-27
1.23288E-02 8.99087E-27
1.28150E-02 8.28921E-27
1.33104E-02 7.65312E-27
1.38150E-02 7.07544E-27
1.43290E-02 6.54992E-27
1.48521E-02 6.07106E-27
1.53845E-02 5.63403E-27
1.59262E-02 5.23455E-27
1.64770E-02 4.86887E-27
1.70371E-02 4.53365E-27
1.76063E-02 4.22592E-27
1.81848E-02 3.94307E-27
1.87724E-02 3.68274E-27
1.93692E-02 3.44284E-27
1.99751E-02 3.22151E-27
2.05901E-02 3.01706E-27
2.12143E-02 2.82801E-27
2.18476E-02 2.65299E-27
2.24900E-02 2.49080E-27
2.31415E-02 2.34034E-27
2.38021E-02 2.20062E-27
2.44717E-02 2.07075E-27
2.51504E-02 1.94993E-27
2.58382E-02 1.83742E-27
2.65349E-02 1.73256E-27
2.72407E-02 1.63473E-27
2.79555E-02 1.54340E-27
2.86793E-02 1.45807E-27
2.94120E-02 1.37827E-27
3.01537E-02 1.30359E-27
3.09043E-02 1.23365E-27
3.16639E-02 1.16811E-27
3.24324E-02 1.10663E-27
3.32098E-02 1.04893E-27
3.39961E-02 9.94743E-28
3.47912E-02 9.43817E-28
3.55952E-02 8.95927E-28
3.64081E-02 8.50863E-28
3.72297E-02 8.08434E-28
3.80602E-02 7.68460E-28
3.88995E-02 7.30779E-28
3.97476E-02 6.95238E-28
4.06044E-02 6.61697E-28
4.14700E-02 6.30027E-28
4.23443E-02 6.00107E-28
4.32273E-02 5.71827E-28
4.41190E-02 5.45082E-28
4.50194E-02 5.19778E-28
4.59284E-02 4.95824E-28
4.68461E-02 4.73139E-28
4.87074E-02 4.31270E-28
5.06030E-02 3.93616E-28
5.25328E-02 3.59694E-28
5.44967E-02 3.29086E-28
5.64946E-02 3.01424E-28
5.85262E-02 2.76386E-28
6.05914E-02 2.53692E-28
6.26901E-02 2.33093E-28
6.48222E-02 2.14372E-28
6.69873E-02 1.97335E-28
6.91854E-02 1.81811E-28
7.14163E-02 1.67651E-28
7.36799E-02 1.54718E-28
7.59760E-02 1.42895E-28
7.83043E-02 1.32074E-28
8.06647E-02 1.22161E-28
8.30571E-02 1.13070E-28
8.54812E-02 1.04726E-28
8.79369E-02 9.70593E-29
9.04240E-02 9.00100E-29
9.29422E-02 8.35226E-29
9.54915E-02 7.75473E-29
9.80716E-02 7.20394E-29
1.00682E-01 6.69586E-29
1.03323E-01 6.22682E-29
1.05995E-01 5.79353E-29
1.08696E-01 5.39298E-29
1.11427E-01 5.02245E-29
1.14188E-01 4.67948E-29
1.16978E-01 4.36181E-29
1.19797E-01 4.06742E-29
1.22645E-01 3.79443E-29
1.25522E-01 3.54114E-29
1.28428E-01 3.30602E-29
1.31361E-01 3.08763E-29
1.34323E-01 2.88470E-29
1.37313E-01 2.69602E-29
1.40330E-01 2.52052E-29
1.43375E-01 2.35720E-29
1.46447E-01 2.20515E-29
1.49545E-01 2.06353E-29
1.52671E-01 1.93156E-29
1.55823E-01 1.80855E-29
1.59001E-01 1.69383E-29
1.62205E-01 1.58681E-29
1.65435E-01 1.48694E-29
1.68690E-01 1.39370E-29
1.71970E-01 1.30662E-29
1.75276E-01 1.22527E-29
1.78606E-01 1.14925E-29
1.81961E-01 1.07818E-29
1.85340E-01 1.01172E-29
1.88743E-01 9.49558E-30
1.92169E-01 8.91394E-30
1.95619E-01 8.36957E-30
1.99092E-01 7.85995E-30
2.02589E-01 7.38272E-30
2.06107E-01 6.93571E-30
2.09649E-01 6.51691E-30
2.13212E-01 6.12444E-30
2.16797E-01 5.75655E-30
2.20404E-01 5.41163E-30
2.24032E-01 5.08817E-30
2.27680E-01 4.78477E-30
2.31350E-01 4.50013E-30
2.35040E-01 4.23302E-30
2.38751E-01 3.98233E-30
2.42481E-01 3.74699E-30
2.46231E-01 3.52603E-30
2.50000E-01 3.31852E-30
2.53788E-01 3.12362E-30
2.57595E-01 2.94053E-30
2.61421E-01 2.76850E-30
2.65264E-01 2.60683E-30
2.69126E-01 2.45488E-30
2.73005E-01 2.31204E-30
2.76901E-01 2.17775E-30
2.80814E-01 2.05148E-30
2.84744E-01 1.93272E-30
2.88691E-01 1.82102E-30
2.92653E-01 1.71594E-30
2.96632E-01 1.61708E-30
3.00625E-01 1.52406E-30
3.04634E-01 1.43651E-30
3.08658E-01 1.35412E-30
3.12697E-01 1.27656E-30
3.16749E-01 1.20354E-30
3.20816E-01 1.13480E-30
3.24896E-01 1.07006E-30
3.28990E-01 1.00910E-30
3.33097E-01 9.51686E-31
3.37216E-01 8.97606E-31
3.41348E-01 8.46660E-31
3.45492E-01 7.98664E-31
3.49647E-01 7.53440E-31
3.53814E-01 7.10828E-31
3.57992E-01 6.70670E-31
3.62181E-01 6.32823E-31
3.66381E-01 5.97151E-31
3.70590E-01 5.63524E-31
3.74810E-01 5.31824E-31
3.79039E-01 5.01938E-31
3.83277E-01 4.73759E-31
3.87524E-01 4.47189E-31
3.91780E-01 4.22133E-31
3.96044E-01 3.98503E-31
4.00316E-01 3.76217E-31
4.04596E-01 3.55196E-31
4.08882E-01 3.35368E-31
4.13176E-01 3.16663E-31
4.17476E-01 2.99016E-31
4.21783E-01 2.82368E-31
4.26095E-01 2.66659E-31
4.30413E-01 2.51836E-31
4.34737E-01 2.37849E-31
4.39065E-01 2.24649E-31
4.43398E-01 2.12192E-31
4.47736E-01 2.00434E-31
4.52077E-01 1.89336E-31
4.56422E-01 1.78861E-31
4.60770E-01 1.68973E-31
4.65122E-01 1.59638E-31
4.69476E-01 1.50825E-31
4.73832E-01 1.42504E-31
4.78190E-01 1.34648E-31
4.82550E-01 1.27231E-31
4.86912E-01 1.20226E-31
4.91274E-01 1.13612E-31
4.95637E-01 1.07365E-31
5.00000E-01 1.01466E-31
5.04363E-01 9.58948E-32
5.08726E-01 9.06328E-32
5.13088E-01 8.56626E-32
5.17450E-01 8.09678E-32
5.21810E-01 7.65328E-32
5.26168E-01 7.23437E-32
5.30524E-01 6.83859E-32
5.34878E-01 6.46470E-32
5.39230E-01 6.11145E-32
5.43578E-01 5.77769E-32
5.47923E-01 5.46233E-32
5.52264E-01 5.16438E-32
5.56602E-01 4.88280E-32
5.60935E-01 4.61675E-32
5.65263E-01 4.36532E-32
5.69587E-01 4.12771E-32
5.73905E-01 3.90315E-32
5.78217E-01 3.69092E-32
5.82524E-01 3.49033E-32
5.86824E-01 3.30075E-32
5.91118E-01 3.12155E-32
5.95404E-01 2.95217E-32
5.99684E-01 2.79205E-32
6.03956E-01 2.64071E-32
6.08220E-01 2.49761E-32
6.12476E-01 2.36235E-32
6.16723E-01 2.23445E-32
6.20961E-01 2.11356E-32
6.25190E-01 1.99926E-32
6.29410E-01 1.89118E-32
6.33619E-01 1.78899E-32
6.37819E-01 1.69238E-32
6.42008E-01 1.60100E-32
6.46186E-01 1.51461E-32
6.50353E-01 1.43292E-32
6.54508E-01 1.35567E-32
6.58652E-01 1.28261E-32
6.62784E-01 1.21350E-32
6.66903E-01 1.14816E-32
6.71010E-01 1.08635E-32
6.75104E-01 1.02789E-32
6.79184E-01 9.72608E-33
6.83251E-01 9.20311E-33
6.87303E-01 8.70847E-33
6.91342E-01 8.24059E-33
6.95366E-01 7.79799E-33
6.99375E-01 7.37935E-33
7.03368E-01 6.98324E-33
7.07347E-01 6.60858E-33
7.11309E-01 6.25412E-33
7.15256E-01 5.91880E-33
7.19186E-01 5.60153E-33
7.23099E-01 5.30136E-33
7.26995E-01 5.01738E-33
7.30874E-01 4.74869E-33
7.34736E-01 4.49443E-33
7.38579E-01 4.25387E-33
7.42405E-01 4.02621E-33
7.46212E-01 3.81080E-33
7.50000E-01 3.60697E-33
7.53769E-01 3.41409E-33
7.57519E-01 3.23158E-33
7.61249E-01 3.05883E-33
7.64960E-01 2.89534E-33
7.68650E-01 2.74064E-33
7.72320E-01 2.59425E-33
7.75968E-01 2.45565E-33
7.79596E-01 2.32448E-33
7.83203E-01 2.20034E-33
7.86788E-01 2.08280E-33
7.90351E-01 1.97159E-33
7.93893E-01 1.86635E-33
7.97411E-01 1.76669E-33
8.00908E-01 1.67233E-33
8.04381E-01 1.58306E-33
8.07831E-01 1.49852E-33
8.11257E-01 1.41848E-33
8.14660E-01 1.34273E-33
8.18039E-01 1.27103E-33
8.21394E-01 1.20313E-33
8.24724E-01 1.13886E-33
8.28030E-01 1.07800E-33
8.31310E-01 1.02039E-33
8.34565E-01 9.65844E-34
8.37795E-01 9.14196E-34
8.40999E-01 8.65286E-34
8.44177E-01 8.18973E-34
8.47329E-01 7.75146E-34
8.50455E-01 7.33618E-34
8.53553E-01 6.94307E-34
8.56625E-01 6.57084E-34
8.59670E-01 6.21828E-34
8.62687E-01 5.88458E-34
8.65677E-01 5.56856E-34
8.68639E-01 5.26906E-34
8.71572E-01 4.98556E-34
8.74478E-01 4.71717E-34
8.77355E-01 4.46305E-34
8.80203E-01 4.22199E-34
8.83022E-01 3.99403E-34
8.85812E-01 3.77790E-34
8.88573E-01 3.57341E-34
8.91304E-01 3.37959E-34
8.94005E-01 3.19608E-34
8.96677E-01 3.02228E-34
8.99318E-01 2.85755E-34
9.01928E-01 2.70177E-34
9.04508E-01 2.55402E-34
9.07058E-01 2.41423E-34
9.09576E-01 2.28171E-34
9.12063E-01 2.15618E-34
9.14519E-01 2.03716E-34
9.16943E-01 1.92462E-34
9.19335E-01 1.81788E-34
9.21696E-01 1.71695E-34
9.24024E-01 1.62121E-34
9.26320E-01 1.53055E-34
9.28584E-01 1.44469E-34
9.30815E-01 1.36327E-34
9.33013E-01 1.28631E-34
9.35178E-01 1.21327E-34
9.37310E-01 1.14407E-34
9.39409E-01 1.07859E-34
9.41474E-01 1.01657E-34
9.43505E-01 9.57747E-35
9.45503E-01 9.02013E-35
9.47467E-01 8.49257E-35
9.49397E-01 7.99393E-35
9.51293E-01 7.52157E-35
9.53154E-01 7.07247E-35
9.54981E-01 6.64875E-35
9.56773E-01 6.24773E-35
9.58530E-01 5.86636E-35
9.60252E-01 5.50637E-35
9.61940E-01 5.16503E-35
9.63592E-01 4.84185E-35
9.65209E-01 4.53668E-35
9.66790E-01 4.24667E-35
9.68336E-01 3.97344E-35
9.69846E-01 3.71371E-35
9.71321E-01 3.46855E-35
9.72759E-01 3.23645E-35
9.74162E-01 3.01633E-35
9.75528E-01 2.80910E-35
9.76858E-01 2.61273E-35
9.78152E-01 2.42728E-35
9.79410E-01 2.25212E-35
9.80631E-01 2.08627E-35
9.81815E-01 1.92957E-35
9.82963E-01 1.78210E-35
9.84074E-01 1.64307E-35
9.85148E-01 1.51167E-35
9.86185E-01 1.38801E-35
9.87185E-01 1.27111E-35
9.88148E-01 1.16153E-35
9.89074E-01 1.05840E-35
9.89962E-01 9.61702E-36
9.90814E-01 8.70563E-36
9.91627E-01 7.85242E-36
9.92404E-01 7.05628E-36
9.93143E-01 6.30840E-36
9.93844E-01 5.61381E-36
9.94508E-01 4.96693E-36
9.95134E-01 4.36852E-36
9.95722E-01 3.81096E-36
9.96273E-01 3.29617E-36
9.96786E-01 2.82672E-36
9.97261E-01 2.39906E-36
9.97698E-01 2.00053E-36
9.98097E-01 1.64760E-36
9.98459E-01 1.33244E-36
9.98782E-01 1.04800E-36
9.99067E-01 8.01223E-37
9.99315E-01 5.89897E-37
9.99524E-01 4.09423E-37
9.99695E-01 2.64005E-37
9.99829E-01 1.51731E-37
9.99924E-01 7.10763E-38
9.99981E-01 2.37528E-38
1.00000E+00 9.15332E-39
