 #
 # Subroutine ELSEPA. Elastic scattering of electrons and positrons
 #                    by neutral atoms and positive ions
 #
 # Projectile: positron
 # Kinetic energy = 9.00000E+07 eV = 3.30744E+06 a.u.
 #
 # WARNING: High-energy factorization with free-atom DF screening.
 #          Absorption, polarization and exchange corrections are
 #          switched off.
 #          Phase shifts are calculated for the bare nucleus.
 #          Scattering amplitudes are not evaluated.
 #
 # Element: Li,  Z =   3,  atomic weight = 6.94100E+00 g/mol
 #
 # Nuclear model: Fermi distribution
 #                Average radius = 2.04107E-13 cm
 #                Skin thickness = 5.46000E-14 cm
 #
 # Number of electrons =  3
 #
 # Total elastic cross section = 1.07386E-19 cm**2 = 3.83483E-03 a0**2
 # 1st transport cross section = 2.50130E-27 cm**2 = 8.93229E-11 a0**2
 # 2nd transport cross section = 7.37774E-27 cm**2 = 2.63464E-10 a0**2
 #
 #
 # Differential cross section:                       MU=(1-COS(THETA))/2
 #
 #  THETA        MU          DCS          DCS        Sherman      error
 #  (deg)                 (cm**2/sr)   (a0**2/sr)    function
 #----------------------------------------------------------------------
0.00000E+00 3.38731E-11
7.61557E-13 3.36886E-11
1.18994E-12 3.35855E-11
1.71346E-12 3.34600E-11
2.33225E-12 3.33126E-11
3.04617E-12 3.31434E-11
3.85530E-12 3.29531E-11
4.75964E-12 3.27421E-11
5.75917E-12 3.25108E-11
6.85391E-12 3.22601E-11
8.04379E-12 3.19903E-11
9.32893E-12 3.17022E-11
1.07092E-11 3.13966E-11
1.21847E-11 3.10741E-11
1.37554E-11 3.07356E-11
1.54213E-11 3.03818E-11
1.71823E-11 3.00134E-11
1.90386E-11 2.96316E-11
2.09900E-11 2.92369E-11
2.30367E-11 2.88301E-11
2.51785E-11 2.84128E-11
2.74156E-11 2.79850E-11
2.97478E-11 2.75478E-11
3.21752E-11 2.71026E-11
3.46979E-11 2.66495E-11
3.73157E-11 2.61899E-11
4.00286E-11 2.57247E-11
4.28368E-11 2.52541E-11
4.57402E-11 2.47799E-11
4.87388E-11 2.43022E-11
5.18325E-11 2.38215E-11
5.50215E-11 2.33398E-11
5.83057E-11 2.28567E-11
6.16850E-11 2.23730E-11
6.51595E-11 2.18904E-11
6.87293E-11 2.14082E-11
7.23943E-11 2.09279E-11
7.61544E-11 2.04501E-11
1.18991E-10 1.59034E-11
1.71347E-10 1.20149E-11
2.33223E-10 8.97185E-12
3.04617E-10 6.58095E-12
3.85531E-10 4.86591E-12
4.75965E-10 3.61313E-12
5.75917E-10 2.69645E-12
6.85389E-10 2.06613E-12
8.04380E-10 1.59786E-12
9.32891E-10 1.25580E-12
1.07092E-09 1.00794E-12
1.21847E-09 8.18401E-13
1.37554E-09 6.75579E-13
1.54213E-09 5.65436E-13
1.71823E-09 4.78108E-13
1.90386E-09 4.09470E-13
2.09900E-09 3.53794E-13
2.30367E-09 3.08130E-13
2.51785E-09 2.70702E-13
2.74156E-09 2.39255E-13
2.97478E-09 2.12738E-13
3.21752E-09 1.90163E-13
3.46978E-09 1.70773E-13
3.73156E-09 1.54006E-13
4.00286E-09 1.39384E-13
4.28368E-09 1.26590E-13
4.57402E-09 1.15211E-13
4.87388E-09 1.05201E-13
5.18326E-09 9.63681E-14
5.50215E-09 8.84445E-14
5.83057E-09 8.13704E-14
6.16850E-09 7.50176E-14
6.51596E-09 6.92490E-14
6.87293E-09 6.40482E-14
7.23942E-09 5.93132E-14
7.61544E-09 5.49914E-14
1.18991E-08 2.75371E-14
1.71347E-08 1.50700E-14
2.33223E-08 8.81086E-15
3.04617E-08 5.43843E-15
3.85531E-08 3.51481E-15
4.75965E-08 2.36129E-15
5.75917E-08 1.63866E-15
6.85389E-08 1.17044E-15
8.04380E-08 8.56714E-16
9.32891E-08 6.40758E-16
1.07092E-07 4.88408E-16
1.21847E-07 3.78549E-16
1.37554E-07 2.97797E-16
1.54213E-07 2.37400E-16
1.71823E-07 1.91529E-16
1.90386E-07 1.56190E-16
2.09900E-07 1.28624E-16
2.30367E-07 1.06869E-16
2.51785E-07 8.95163E-17
2.74156E-07 7.55366E-17
2.97478E-07 6.41722E-17
3.21752E-07 5.48664E-17
3.46978E-07 4.71875E-17
3.73156E-07 4.08060E-17
4.00286E-07 3.54675E-17
4.28368E-07 3.09740E-17
4.57402E-07 2.71700E-17
4.87388E-07 2.39323E-17
5.18325E-07 2.11628E-17
5.50215E-07 1.87825E-17
5.83057E-07 1.67276E-17
6.16850E-07 1.49462E-17
6.51596E-07 1.33957E-17
6.87293E-07 1.20411E-17
7.23942E-07 1.08535E-17
7.61543E-07 9.80871E-18
1.18991E-06 4.01920E-18
1.71347E-06 1.93867E-18
2.33223E-06 1.04657E-18
3.04617E-06 6.13521E-19
3.85531E-06 3.83035E-19
4.75964E-06 2.51316E-19
5.75916E-06 1.71655E-19
6.85388E-06 1.21201E-19
8.04378E-06 8.79954E-20
9.32888E-06 6.54216E-20
1.07092E-05 4.96441E-20
1.21846E-05 3.83487E-20
1.37553E-05 3.00907E-20
1.54212E-05 2.39406E-20
1.71822E-05 1.92844E-20
1.90385E-05 1.57386E-20
2.09899E-05 1.29444E-20
2.30365E-05 1.07370E-20
2.51783E-05 8.97875E-21
2.74153E-05 7.56738E-21
2.97475E-05 6.42550E-21
3.21749E-05 5.49374E-21
3.46974E-05 4.72652E-21
3.73152E-05 4.08907E-21
4.00281E-05 3.55506E-21
4.28362E-05 3.10455E-21
4.57395E-05 2.72237E-21
4.87380E-05 2.39674E-21
5.18317E-05 2.11829E-21
5.50205E-05 1.87935E-21
5.83045E-05 1.67350E-21
6.16838E-05 1.49538E-21
6.51582E-05 1.34051E-21
6.87277E-05 1.20519E-21
7.23925E-05 1.08641E-21
7.61524E-05 9.81629E-22
9.21439E-05 6.69977E-22
1.09658E-04 4.73211E-22
1.28695E-04 3.43461E-22
1.49255E-04 2.55324E-22
1.71338E-04 1.93757E-22
1.94942E-04 1.49625E-22
2.20070E-04 1.17417E-22
2.46720E-04 9.33947E-23
2.74892E-04 7.52279E-23
3.04586E-04 6.12666E-23
3.35803E-04 5.03948E-23
3.68542E-04 4.18368E-23
4.02802E-04 3.50139E-23
4.38585E-04 2.95311E-23
4.75889E-04 2.50779E-23
5.14715E-04 2.14337E-23
5.55063E-04 1.84284E-23
5.96931E-04 1.59304E-23
6.40321E-04 1.38428E-23
6.85233E-04 1.20851E-23
7.31665E-04 1.05981E-23
7.79618E-04 9.33274E-24
8.29092E-04 8.25039E-24
8.80086E-04 7.32078E-24
9.32601E-04 6.51801E-24
9.86636E-04 5.82256E-24
1.04219E-03 5.21720E-24
1.09927E-03 4.68848E-24
1.15786E-03 4.22510E-24
1.21797E-03 3.81739E-24
1.27961E-03 3.45781E-24
1.34276E-03 3.13942E-24
1.40743E-03 2.85689E-24
1.47362E-03 2.60539E-24
1.54133E-03 2.38091E-24
1.61056E-03 2.18013E-24
1.68131E-03 1.99998E-24
1.75357E-03 1.83810E-24
1.82735E-03 1.69221E-24
1.90265E-03 1.56051E-24
1.97947E-03 1.44137E-24
2.05780E-03 1.33334E-24
2.13765E-03 1.23527E-24
2.21902E-03 1.14601E-24
2.30190E-03 1.06467E-24
2.38630E-03 9.90404E-25
2.47222E-03 9.22488E-25
2.55965E-03 8.60297E-25
2.64859E-03 8.03237E-25
2.73905E-03 7.50833E-25
2.83103E-03 7.02620E-25
2.92452E-03 6.58209E-25
3.01952E-03 6.17248E-25
3.11604E-03 5.79413E-25
3.21407E-03 5.44433E-25
3.31362E-03 5.12042E-25
3.41468E-03 4.82023E-25
3.51725E-03 4.54166E-25
3.62133E-03 4.28286E-25
3.72692E-03 4.04223E-25
3.83403E-03 3.81818E-25
3.94265E-03 3.60943E-25
4.05278E-03 3.41470E-25
4.16442E-03 3.23290E-25
4.27757E-03 3.06301E-25
4.39223E-03 2.90409E-25
4.50840E-03 2.75533E-25
4.62608E-03 2.61593E-25
4.74527E-03 2.48522E-25
4.86597E-03 2.36255E-25
4.98817E-03 2.24732E-25
5.11188E-03 2.13902E-25
5.23711E-03 2.03713E-25
5.36383E-03 1.94123E-25
5.49207E-03 1.85088E-25
5.62181E-03 1.76571E-25
5.75306E-03 1.68536E-25
5.88581E-03 1.60951E-25
6.02007E-03 1.53788E-25
6.15583E-03 1.47016E-25
6.29310E-03 1.40611E-25
6.43187E-03 1.34550E-25
6.57214E-03 1.28811E-25
6.71392E-03 1.23374E-25
6.85720E-03 1.18218E-25
7.00198E-03 1.13329E-25
7.14827E-03 1.08688E-25
7.29605E-03 1.04281E-25
7.44534E-03 1.00095E-25
7.59612E-03 9.61150E-26
7.97965E-03 8.69939E-26
8.37255E-03 7.89245E-26
8.77480E-03 7.17649E-26
9.18641E-03 6.53948E-26
9.60736E-03 5.97122E-26
1.00376E-02 5.46302E-26
1.04773E-02 5.00744E-26
1.09262E-02 4.59808E-26
1.13844E-02 4.22944E-26
1.18520E-02 3.89677E-26
1.23288E-02 3.59594E-26
1.28150E-02 3.32338E-26
1.33104E-02 3.07597E-26
1.38150E-02 2.85098E-26
1.43290E-02 2.64602E-26
1.48521E-02 2.45900E-26
1.53845E-02 2.28807E-26
1.59262E-02 2.13161E-26
1.64770E-02 1.98817E-26
1.70371E-02 1.85648E-26
1.76063E-02 1.73540E-26
1.81848E-02 1.62393E-26
1.87724E-02 1.52118E-26
1.93692E-02 1.42634E-26
1.99751E-02 1.33869E-26
2.05901E-02 1.25760E-26
2.12143E-02 1.18248E-26
2.18476E-02 1.11281E-26
2.24900E-02 1.04814E-26
2.31415E-02 9.88038E-27
2.38021E-02 9.32124E-27
2.44717E-02 8.80056E-27
2.51504E-02 8.31521E-27
2.58382E-02 7.86239E-27
2.65349E-02 7.43951E-27
2.72407E-02 7.04425E-27
2.79555E-02 6.67448E-27
2.86793E-02 6.32827E-27
2.94120E-02 6.00386E-27
3.01537E-02 5.69961E-27
3.09043E-02 5.41407E-27
3.16639E-02 5.14586E-27
3.24324E-02 4.89377E-27
3.32098E-02 4.65663E-27
3.39961E-02 4.43342E-27
3.47912E-02 4.22317E-27
3.55952E-02 4.02498E-27
3.64081E-02 3.83805E-27
3.72297E-02 3.66163E-27
3.80602E-02 3.49501E-27
3.88995E-02 3.33756E-27
3.97476E-02 3.18869E-27
4.06044E-02 3.04784E-27
4.14700E-02 2.91450E-27
4.23443E-02 2.78820E-27
4.32273E-02 2.66851E-27
4.41190E-02 2.55502E-27
4.50194E-02 2.44735E-27
4.59284E-02 2.34516E-27
4.68461E-02 2.24810E-27
4.87074E-02 2.06822E-27
5.06030E-02 1.90552E-27
5.25328E-02 1.75809E-27
5.44967E-02 1.62426E-27
5.64946E-02 1.50257E-27
5.85262E-02 1.39173E-27
6.05914E-02 1.29061E-27
6.26901E-02 1.19823E-27
6.48222E-02 1.11371E-27
6.69873E-02 1.03626E-27
6.91854E-02 9.65205E-28
7.14163E-02 8.99921E-28
7.36799E-02 8.39866E-28
7.59760E-02 7.84553E-28
7.83043E-02 7.33546E-28
8.06647E-02 6.86456E-28
8.30571E-02 6.42934E-28
8.54812E-02 6.02665E-28
8.79369E-02 5.65367E-28
9.04240E-02 5.30787E-28
9.29422E-02 4.98693E-28
9.54915E-02 4.68879E-28
9.80716E-02 4.41157E-28
1.00682E-01 4.15357E-28
1.03323E-01 3.91325E-28
1.05995E-01 3.68920E-28
1.08696E-01 3.48015E-28
1.11427E-01 3.28494E-28
1.14188E-01 3.10251E-28
1.16978E-01 2.93188E-28
1.19797E-01 2.77219E-28
1.22645E-01 2.62262E-28
1.25522E-01 2.48242E-28
1.28428E-01 2.35093E-28
1.31361E-01 2.22752E-28
1.34323E-01 2.11162E-28
1.37313E-01 2.00270E-28
1.40330E-01 1.90028E-28
1.43375E-01 1.80391E-28
1.46447E-01 1.71318E-28
1.49545E-01 1.62771E-28
1.52671E-01 1.54715E-28
1.55823E-01 1.47118E-28
1.59001E-01 1.39950E-28
1.62205E-01 1.33183E-28
1.65435E-01 1.26792E-28
1.68690E-01 1.20752E-28
1.71970E-01 1.15041E-28
1.75276E-01 1.09639E-28
1.78606E-01 1.04527E-28
1.81961E-01 9.96874E-29
1.85340E-01 9.51031E-29
1.88743E-01 9.07589E-29
1.92169E-01 8.66406E-29
1.95619E-01 8.27347E-29
1.99092E-01 7.90289E-29
2.02589E-01 7.55113E-29
2.06107E-01 7.21713E-29
2.09649E-01 6.89985E-29
2.13212E-01 6.59836E-29
2.16797E-01 6.31175E-29
2.20404E-01 6.03920E-29
2.24032E-01 5.77993E-29
2.27680E-01 5.53320E-29
2.31350E-01 5.29833E-29
2.35040E-01 5.07467E-29
2.38751E-01 4.86162E-29
2.42481E-01 4.65861E-29
2.46231E-01 4.46511E-29
2.50000E-01 4.28062E-29
2.53788E-01 4.10466E-29
2.57595E-01 3.93679E-29
2.61421E-01 3.77659E-29
2.65264E-01 3.62367E-29
2.69126E-01 3.47766E-29
2.73005E-01 3.33820E-29
2.76901E-01 3.20497E-29
2.80814E-01 3.07765E-29
2.84744E-01 2.95596E-29
2.88691E-01 2.83961E-29
2.92653E-01 2.72834E-29
2.96632E-01 2.62190E-29
3.00625E-01 2.52006E-29
3.04634E-01 2.42260E-29
3.08658E-01 2.32930E-29
3.12697E-01 2.23998E-29
3.16749E-01 2.15443E-29
3.20816E-01 2.07249E-29
3.24896E-01 1.99398E-29
3.28990E-01 1.91874E-29
3.33097E-01 1.84663E-29
3.37216E-01 1.77749E-29
3.41348E-01 1.71120E-29
3.45492E-01 1.64762E-29
3.49647E-01 1.58663E-29
3.53814E-01 1.52811E-29
3.57992E-01 1.47196E-29
3.62181E-01 1.41806E-29
3.66381E-01 1.36632E-29
3.70590E-01 1.31664E-29
3.74810E-01 1.26893E-29
3.79039E-01 1.22310E-29
3.83277E-01 1.17908E-29
3.87524E-01 1.13678E-29
3.91780E-01 1.09613E-29
3.96044E-01 1.05706E-29
4.00316E-01 1.01951E-29
4.04596E-01 9.83398E-30
4.08882E-01 9.48675E-30
4.13176E-01 9.15280E-30
4.17476E-01 8.83158E-30
4.21783E-01 8.52254E-30
4.26095E-01 8.22520E-30
4.30413E-01 7.93905E-30
4.34737E-01 7.66364E-30
4.39065E-01 7.39854E-30
4.43398E-01 7.14331E-30
4.47736E-01 6.89756E-30
4.52077E-01 6.66090E-30
4.56422E-01 6.43297E-30
4.60770E-01 6.21342E-30
4.65122E-01 6.00190E-30
4.69476E-01 5.79811E-30
4.73832E-01 5.60173E-30
4.78190E-01 5.41246E-30
4.82550E-01 5.23004E-30
4.86912E-01 5.05419E-30
4.91274E-01 4.88465E-30
4.95637E-01 4.72118E-30
5.00000E-01 4.56355E-30
5.04363E-01 4.41151E-30
5.08726E-01 4.26487E-30
5.13088E-01 4.12342E-30
5.17450E-01 3.98694E-30
5.21810E-01 3.85527E-30
5.26168E-01 3.72820E-30
5.30524E-01 3.60558E-30
5.34878E-01 3.48722E-30
5.39230E-01 3.37298E-30
5.43578E-01 3.26269E-30
5.47923E-01 3.15621E-30
5.52264E-01 3.05339E-30
5.56602E-01 2.95411E-30
5.60935E-01 2.85823E-30
5.65263E-01 2.76562E-30
5.69587E-01 2.67616E-30
5.73905E-01 2.58974E-30
5.78217E-01 2.50625E-30
5.82524E-01 2.42559E-30
5.86824E-01 2.34764E-30
5.91118E-01 2.27231E-30
5.95404E-01 2.19950E-30
5.99684E-01 2.12913E-30
6.03956E-01 2.06111E-30
6.08220E-01 1.99535E-30
6.12476E-01 1.93177E-30
6.16723E-01 1.87030E-30
6.20961E-01 1.81086E-30
6.25190E-01 1.75338E-30
6.29410E-01 1.69779E-30
6.33619E-01 1.64402E-30
6.37819E-01 1.59201E-30
6.42008E-01 1.54169E-30
6.46186E-01 1.49302E-30
6.50353E-01 1.44593E-30
6.54508E-01 1.40036E-30
6.58652E-01 1.35627E-30
6.62784E-01 1.31360E-30
6.66903E-01 1.27230E-30
6.71010E-01 1.23233E-30
6.75104E-01 1.19365E-30
6.79184E-01 1.15620E-30
6.83251E-01 1.11994E-30
6.87303E-01 1.08484E-30
6.91342E-01 1.05086E-30
6.95366E-01 1.01796E-30
6.99375E-01 9.86095E-31
7.03368E-01 9.55238E-31
7.07347E-01 9.25355E-31
7.11309E-01 8.96412E-31
7.15256E-01 8.68379E-31
7.19186E-01 8.41223E-31
7.23099E-01 8.14918E-31
7.26995E-01 7.89434E-31
7.30874E-01 7.64745E-31
7.34736E-01 7.40823E-31
7.38579E-01 7.17644E-31
7.42405E-01 6.95183E-31
7.46212E-01 6.73416E-31
7.50000E-01 6.52323E-31
7.53769E-01 6.31880E-31
7.57519E-01 6.12066E-31
7.61249E-01 5.92860E-31
7.64960E-01 5.74243E-31
7.68650E-01 5.56197E-31
7.72320E-01 5.38703E-31
7.75968E-01 5.21741E-31
7.79596E-01 5.05297E-31
7.83203E-01 4.89352E-31
7.86788E-01 4.73891E-31
7.90351E-01 4.58900E-31
7.93893E-01 4.44364E-31
7.97411E-01 4.30265E-31
8.00908E-01 4.16592E-31
8.04381E-01 4.03333E-31
8.07831E-01 3.90471E-31
8.11257E-01 3.77996E-31
8.14660E-01 3.65896E-31
8.18039E-01 3.54159E-31
8.21394E-01 3.42773E-31
8.24724E-01 3.31728E-31
8.28030E-01 3.21012E-31
8.31310E-01 3.10617E-31
8.34565E-01 3.00531E-31
8.37795E-01 2.90745E-31
8.40999E-01 2.81250E-31
8.44177E-01 2.72037E-31
8.47329E-01 2.63099E-31
8.50455E-01 2.54424E-31
8.53553E-01 2.46007E-31
8.56625E-01 2.37839E-31
8.59670E-01 2.29913E-31
8.62687E-01 2.22221E-31
8.65677E-01 2.14757E-31
8.68639E-01 2.07512E-31
8.71572E-01 2.00482E-31
8.74478E-01 1.93659E-31
8.77355E-01 1.87037E-31
8.80203E-01 1.80610E-31
8.83022E-01 1.74373E-31
8.85812E-01 1.68319E-31
8.88573E-01 1.62444E-31
8.91304E-01 1.56742E-31
8.94005E-01 1.51208E-31
8.96677E-01 1.45837E-31
8.99318E-01 1.40624E-31
9.01928E-01 1.35566E-31
9.04508E-01 1.30657E-31
9.07058E-01 1.25893E-31
9.09576E-01 1.21270E-31
9.12063E-01 1.16783E-31
9.14519E-01 1.12429E-31
9.16943E-01 1.08205E-31
9.19335E-01 1.04106E-31
9.21696E-01 1.00129E-31
9.24024E-01 9.62708E-32
9.26320E-01 9.25277E-32
9.28584E-01 8.88967E-32
9.30815E-01 8.53741E-32
9.33013E-01 8.19584E-32
9.35178E-01 7.86449E-32
9.37310E-01 7.54316E-32
9.39409E-01 7.23161E-32
9.41474E-01 6.92955E-32
9.43505E-01 6.63669E-32
9.45503E-01 6.35281E-32
9.47467E-01 6.07770E-32
9.49397E-01 5.81116E-32
9.51293E-01 5.55292E-32
9.53154E-01 5.30266E-32
9.54981E-01 5.06038E-32
9.56773E-01 4.82578E-32
9.58530E-01 4.59857E-32
9.60252E-01 4.37873E-32
9.61940E-01 4.16597E-32
9.63592E-01 3.96015E-32
9.65209E-01 3.76115E-32
9.66790E-01 3.56869E-32
9.68336E-01 3.38275E-32
9.69846E-01 3.20305E-32
9.71321E-01 3.02954E-32
9.72759E-01 2.86204E-32
9.74162E-01 2.70037E-32
9.75528E-01 2.54452E-32
9.76858E-01 2.39426E-32
9.78152E-01 2.24951E-32
9.79410E-01 2.11015E-32
9.80631E-01 1.97604E-32
9.81815E-01 1.84710E-32
9.82963E-01 1.72324E-32
9.84074E-01 1.60435E-32
9.85148E-01 1.49032E-32
9.86185E-01 1.38107E-32
9.87185E-01 1.27648E-32
9.88148E-01 1.17654E-32
9.89074E-01 1.08111E-32
9.89962E-01 9.90149E-33
9.90814E-01 9.03543E-33
9.91627E-01 8.21257E-33
9.92404E-01 7.43233E-33
9.93143E-01 6.69370E-33
9.93844E-01 5.99655E-33
9.94508E-01 5.34010E-33
9.95134E-01 4.72400E-33
9.95722E-01 4.14739E-33
9.96273E-01 3.61004E-33
9.96786E-01 3.11180E-33
9.97261E-01 2.65212E-33
9.97698E-01 2.22990E-33
9.98097E-01 1.84600E-33
9.98459E-01 1.49960E-33
9.98782E-01 1.19008E-33
9.99067E-01 9.17697E-34
9.99315E-01 6.82132E-34
9.99524E-01 4.82929E-34
9.99695E-01 3.20277E-34
9.99829E-01 1.93920E-34
9.99924E-01 1.03707E-34
9.99981E-01 4.96563E-35
1.00000E+00 3.18032E-35
