 #
 # Subroutine ELSEPA. Elastic scattering of electrons and positrons
 #                    by neutral atoms and positive ions
 #
 # Projectile: positron
 # Kinetic energy = 4.00000E+07 eV = 1.46997E+06 a.u.
 #
 # WARNING: High-energy factorization with free-atom DF screening.
 #          Absorption, polarization and exchange corrections are
 #          switched off.
 #          Phase shifts are calculated for the bare nucleus.
 #          Scattering amplitudes are not evaluated.
 #
 # Element: Li,  Z =   3,  atomic weight = 6.94100E+00 g/mol
 #
 # Nuclear model: Fermi distribution
 #                Average radius = 2.04107E-13 cm
 #                Skin thickness = 5.46000E-14 cm
 #
 # Number of electrons =  3
 #
 # Total elastic cross section = 1.07576E-19 cm**2 = 3.84159E-03 a0**2
 # 1st transport cross section = 1.17062E-26 cm**2 = 4.18038E-10 a0**2
 # 2nd transport cross section = 3.41835E-26 cm**2 = 1.22071E-09 a0**2
 #
 #
 # Differential cross section:                       MU=(1-COS(THETA))/2
 #
 #  THETA        MU          DCS          DCS        Sherman      error
 #  (deg)                 (cm**2/sr)   (a0**2/sr)    function
 #----------------------------------------------------------------------
0.00000E+00 6.78575E-12
7.61557E-13 6.77832E-12
1.18994E-12 6.77415E-12
1.71346E-12 6.76906E-12
2.33225E-12 6.76305E-12
3.04617E-12 6.75612E-12
3.85530E-12 6.74829E-12
4.75964E-12 6.73954E-12
5.75917E-12 6.72989E-12
6.85391E-12 6.71935E-12
8.04379E-12 6.70791E-12
9.32893E-12 6.69558E-12
1.07092E-11 6.68238E-12
1.21847E-11 6.66831E-12
1.37554E-11 6.65336E-12
1.54213E-11 6.63756E-12
1.71823E-11 6.62091E-12
1.90386E-11 6.60342E-12
2.09900E-11 6.58508E-12
2.30367E-11 6.56594E-12
2.51785E-11 6.54599E-12
2.74156E-11 6.52522E-12
2.97478E-11 6.50366E-12
3.21752E-11 6.48133E-12
3.46979E-11 6.45822E-12
3.73157E-11 6.43434E-12
4.00286E-11 6.40974E-12
4.28368E-11 6.38440E-12
4.57402E-11 6.35832E-12
4.87388E-11 6.33154E-12
5.18325E-11 6.30408E-12
5.50215E-11 6.27592E-12
5.83057E-11 6.24707E-12
6.16850E-11 6.21761E-12
6.51595E-11 6.18749E-12
6.87293E-11 6.15673E-12
7.23943E-11 6.12536E-12
7.61544E-11 6.09342E-12
1.18991E-10 5.74419E-12
1.71347E-10 5.35205E-12
2.33223E-10 4.93268E-12
3.04617E-10 4.50096E-12
3.85531E-10 4.07003E-12
4.75965E-10 3.65087E-12
5.75917E-10 3.25198E-12
6.85389E-10 2.87940E-12
8.04380E-10 2.53690E-12
9.32891E-10 2.22644E-12
1.07092E-09 1.95736E-12
1.21847E-09 1.71164E-12
1.37554E-09 1.48866E-12
1.54213E-09 1.29688E-12
1.71823E-09 1.13491E-12
1.90386E-09 9.89694E-13
2.09900E-09 8.60107E-13
2.30367E-09 7.56534E-13
2.51785E-09 6.64811E-13
2.74156E-09 5.83134E-13
2.97478E-09 5.13822E-13
3.21752E-09 4.56156E-13
3.46978E-09 4.04701E-13
3.73156E-09 3.58832E-13
4.00286E-09 3.21723E-13
4.28368E-09 2.88800E-13
4.57402E-09 2.59301E-13
4.87388E-09 2.33816E-13
5.18326E-09 2.12210E-13
5.50215E-09 1.92739E-13
5.83057E-09 1.75182E-13
6.16850E-09 1.60428E-13
6.51596E-09 1.47178E-13
6.87293E-09 1.35158E-13
7.23942E-09 1.24504E-13
7.61544E-09 1.15197E-13
1.18991E-08 5.87434E-14
1.71347E-08 3.47465E-14
2.33223E-08 2.23946E-14
3.04617E-08 1.52656E-14
3.85531E-08 1.07887E-14
4.75965E-08 7.82053E-15
5.75917E-08 5.79603E-15
6.85389E-08 4.37523E-15
8.04380E-08 3.35138E-15
9.32891E-08 2.60236E-15
1.07092E-07 2.04426E-15
1.21847E-07 1.62666E-15
1.37554E-07 1.30863E-15
1.54213E-07 1.06217E-15
1.71823E-07 8.69888E-16
1.90386E-07 7.18697E-16
2.09900E-07 5.98397E-16
2.30367E-07 5.01632E-16
2.51785E-07 4.23474E-16
2.74156E-07 3.59789E-16
2.97478E-07 3.07449E-16
3.21752E-07 2.64171E-16
3.46978E-07 2.28190E-16
3.73156E-07 1.98075E-16
4.00286E-07 1.72706E-16
4.28368E-07 1.51247E-16
4.57402E-07 1.32997E-16
4.87388E-07 1.17398E-16
5.18325E-07 1.04003E-16
5.50215E-07 9.24558E-17
5.83057E-07 8.24613E-17
6.16850E-07 7.37712E-17
6.51596E-07 6.61921E-17
6.87293E-07 5.95582E-17
7.23942E-07 5.37319E-17
7.61543E-07 4.85971E-17
1.18991E-06 2.00041E-17
1.71347E-06 9.66078E-18
2.33223E-06 5.21799E-18
3.04617E-06 3.05995E-18
3.85531E-06 1.91084E-18
4.75964E-06 1.25395E-18
5.75916E-06 8.56582E-19
6.85388E-06 6.04866E-19
8.04378E-06 4.39182E-19
9.32888E-06 3.26536E-19
1.07092E-05 2.47798E-19
1.21846E-05 1.91424E-19
1.37553E-05 1.50208E-19
1.54212E-05 1.19511E-19
1.71822E-05 9.62695E-20
1.90385E-05 7.85688E-20
2.09899E-05 6.46211E-20
2.30365E-05 5.36026E-20
2.51783E-05 4.48255E-20
2.74153E-05 3.77800E-20
2.97475E-05 3.20796E-20
3.21749E-05 2.74279E-20
3.46974E-05 2.35976E-20
3.73152E-05 2.04151E-20
4.00281E-05 1.77491E-20
4.28362E-05 1.54999E-20
4.57395E-05 1.35919E-20
4.87380E-05 1.19663E-20
5.18317E-05 1.05761E-20
5.50205E-05 9.38315E-21
5.83045E-05 8.35544E-21
6.16838E-05 7.46615E-21
6.51582E-05 6.69291E-21
6.87277E-05 6.01727E-21
7.23925E-05 5.42424E-21
7.61524E-05 4.90164E-21
9.21439E-05 3.34555E-21
1.09658E-04 2.36307E-21
1.28695E-04 1.71519E-21
1.49255E-04 1.27509E-21
1.71338E-04 9.67658E-22
1.94942E-04 7.47283E-22
2.20070E-04 5.86444E-22
2.46720E-04 4.66482E-22
2.74892E-04 3.75759E-22
3.04586E-04 3.06036E-22
3.35803E-04 2.51741E-22
3.68542E-04 2.09001E-22
4.02802E-04 1.74925E-22
4.38585E-04 1.47541E-22
4.75889E-04 1.25299E-22
5.14715E-04 1.07097E-22
5.55063E-04 9.20862E-23
5.96931E-04 7.96083E-23
6.40321E-04 6.91805E-23
6.85233E-04 6.03999E-23
7.31665E-04 5.29718E-23
7.79618E-04 4.66503E-23
8.29092E-04 4.12430E-23
8.80086E-04 3.65986E-23
9.32601E-04 3.25878E-23
9.86636E-04 2.91130E-23
1.04219E-03 2.60883E-23
1.09927E-03 2.34464E-23
1.15786E-03 2.11308E-23
1.21797E-03 1.90934E-23
1.27961E-03 1.72964E-23
1.34276E-03 1.57052E-23
1.40743E-03 1.42931E-23
1.47362E-03 1.30361E-23
1.54133E-03 1.19141E-23
1.61056E-03 1.09104E-23
1.68131E-03 1.00099E-23
1.75357E-03 9.20061E-24
1.82735E-03 8.47129E-24
1.90265E-03 7.81281E-24
1.97947E-03 7.21711E-24
2.05780E-03 6.67697E-24
2.13765E-03 6.18652E-24
2.21902E-03 5.74016E-24
2.30190E-03 5.33337E-24
2.38630E-03 4.96195E-24
2.47222E-03 4.62226E-24
2.55965E-03 4.31118E-24
2.64859E-03 4.02575E-24
2.73905E-03 3.76359E-24
2.83103E-03 3.52238E-24
2.92452E-03 3.30018E-24
3.01952E-03 3.09523E-24
3.11604E-03 2.90590E-24
3.21407E-03 2.73085E-24
3.31362E-03 2.56874E-24
3.41468E-03 2.41850E-24
3.51725E-03 2.27906E-24
3.62133E-03 2.14951E-24
3.72692E-03 2.02905E-24
3.83403E-03 1.91688E-24
3.94265E-03 1.81236E-24
4.05278E-03 1.71485E-24
4.16442E-03 1.62381E-24
4.27757E-03 1.53873E-24
4.39223E-03 1.45913E-24
4.50840E-03 1.38462E-24
4.62608E-03 1.31479E-24
4.74527E-03 1.24930E-24
4.86597E-03 1.18784E-24
4.98817E-03 1.13010E-24
5.11188E-03 1.07584E-24
5.23711E-03 1.02477E-24
5.36383E-03 9.76706E-25
5.49207E-03 9.31418E-25
5.62181E-03 8.88721E-25
5.75306E-03 8.48441E-25
5.88581E-03 8.10411E-25
6.02007E-03 7.74488E-25
6.15583E-03 7.40528E-25
6.29310E-03 7.08408E-25
6.43187E-03 6.78008E-25
6.57214E-03 6.49216E-25
6.71392E-03 6.21938E-25
6.85720E-03 5.96071E-25
7.00198E-03 5.71536E-25
7.14827E-03 5.48246E-25
7.29605E-03 5.26129E-25
7.44534E-03 5.05115E-25
7.59612E-03 4.85136E-25
7.97965E-03 4.39339E-25
8.37255E-03 3.98810E-25
8.77480E-03 3.62841E-25
9.18641E-03 3.30829E-25
9.60736E-03 3.02263E-25
1.00376E-02 2.76708E-25
1.04773E-02 2.53792E-25
1.09262E-02 2.33194E-25
1.13844E-02 2.14639E-25
1.18520E-02 1.97889E-25
1.23288E-02 1.82736E-25
1.28150E-02 1.69003E-25
1.33104E-02 1.56533E-25
1.38150E-02 1.45188E-25
1.43290E-02 1.34850E-25
1.48521E-02 1.25412E-25
1.53845E-02 1.16784E-25
1.59262E-02 1.08882E-25
1.64770E-02 1.01635E-25
1.70371E-02 9.49792E-26
1.76063E-02 8.88573E-26
1.81848E-02 8.32189E-26
1.87724E-02 7.80189E-26
1.93692E-02 7.32172E-26
1.99751E-02 6.87777E-26
2.05901E-02 6.46682E-26
2.12143E-02 6.08598E-26
2.18476E-02 5.73263E-26
2.24900E-02 5.40444E-26
2.31415E-02 5.09929E-26
2.38021E-02 4.81527E-26
2.44717E-02 4.55066E-26
2.51504E-02 4.30387E-26
2.58382E-02 4.07350E-26
2.65349E-02 3.85826E-26
2.72407E-02 3.65697E-26
2.79555E-02 3.46856E-26
2.86793E-02 3.29205E-26
2.94120E-02 3.12657E-26
3.01537E-02 2.97128E-26
3.09043E-02 2.82546E-26
3.16639E-02 2.68842E-26
3.24324E-02 2.55953E-26
3.32098E-02 2.43822E-26
3.39961E-02 2.32396E-26
3.47912E-02 2.21627E-26
3.55952E-02 2.11470E-26
3.64081E-02 2.01884E-26
3.72297E-02 1.92831E-26
3.80602E-02 1.84275E-26
3.88995E-02 1.76185E-26
3.97476E-02 1.68531E-26
4.06044E-02 1.61285E-26
4.14700E-02 1.54420E-26
4.23443E-02 1.47914E-26
4.32273E-02 1.41743E-26
4.41190E-02 1.35889E-26
4.50194E-02 1.30330E-26
4.59284E-02 1.25051E-26
4.68461E-02 1.20033E-26
4.87074E-02 1.10724E-26
5.06030E-02 1.02291E-26
5.25328E-02 9.46378E-27
5.44967E-02 8.76799E-27
5.64946E-02 8.13431E-27
5.85262E-02 7.55623E-27
6.05914E-02 7.02801E-27
6.26901E-02 6.54460E-27
6.48222E-02 6.10154E-27
6.69873E-02 5.69487E-27
6.91854E-02 5.32108E-27
7.14163E-02 4.97705E-27
7.36799E-02 4.65999E-27
7.59760E-02 4.36741E-27
7.83043E-02 4.09710E-27
8.06647E-02 3.84707E-27
8.30571E-02 3.61551E-27
8.54812E-02 3.40084E-27
8.79369E-02 3.20160E-27
9.04240E-02 3.01649E-27
9.29422E-02 2.84433E-27
9.54915E-02 2.68405E-27
9.80716E-02 2.53470E-27
1.00682E-01 2.39539E-27
1.03323E-01 2.26533E-27
1.05995E-01 2.14381E-27
1.08696E-01 2.03015E-27
1.11427E-01 1.92377E-27
1.14188E-01 1.82411E-27
1.16978E-01 1.73068E-27
1.19797E-01 1.64302E-27
1.22645E-01 1.56071E-27
1.25522E-01 1.48336E-27
1.28428E-01 1.41063E-27
1.31361E-01 1.34220E-27
1.34323E-01 1.27775E-27
1.37313E-01 1.21703E-27
1.40330E-01 1.15977E-27
1.43375E-01 1.10575E-27
1.46447E-01 1.05474E-27
1.49545E-01 1.00656E-27
1.52671E-01 9.61024E-28
1.55823E-01 9.17953E-28
1.59001E-01 8.77194E-28
1.62205E-01 8.38602E-28
1.65435E-01 8.02041E-28
1.68690E-01 7.67386E-28
1.71970E-01 7.34521E-28
1.75276E-01 7.03336E-28
1.78606E-01 6.73732E-28
1.81961E-01 6.45614E-28
1.85340E-01 6.18895E-28
1.88743E-01 5.93494E-28
1.92169E-01 5.69334E-28
1.95619E-01 5.46344E-28
1.99092E-01 5.24458E-28
2.02589E-01 5.03614E-28
2.06107E-01 4.83753E-28
2.09649E-01 4.64822E-28
2.13212E-01 4.46769E-28
2.16797E-01 4.29548E-28
2.20404E-01 4.13112E-28
2.24032E-01 3.97420E-28
2.27680E-01 3.82433E-28
2.31350E-01 3.68114E-28
2.35040E-01 3.54428E-28
2.38751E-01 3.41342E-28
2.42481E-01 3.28826E-28
2.46231E-01 3.16850E-28
2.50000E-01 3.05388E-28
2.53788E-01 2.94413E-28
2.57595E-01 2.83902E-28
2.61421E-01 2.73831E-28
2.65264E-01 2.64180E-28
2.69126E-01 2.54927E-28
2.73005E-01 2.46054E-28
2.76901E-01 2.37542E-28
2.80814E-01 2.29374E-28
2.84744E-01 2.21535E-28
2.88691E-01 2.14008E-28
2.92653E-01 2.06779E-28
2.96632E-01 1.99835E-28
3.00625E-01 1.93162E-28
3.04634E-01 1.86748E-28
3.08658E-01 1.80582E-28
3.12697E-01 1.74652E-28
3.16749E-01 1.68948E-28
3.20816E-01 1.63460E-28
3.24896E-01 1.58178E-28
3.28990E-01 1.53093E-28
3.33097E-01 1.48197E-28
3.37216E-01 1.43482E-28
3.41348E-01 1.38939E-28
3.45492E-01 1.34563E-28
3.49647E-01 1.30344E-28
3.53814E-01 1.26278E-28
3.57992E-01 1.22357E-28
3.62181E-01 1.18576E-28
3.66381E-01 1.14929E-28
3.70590E-01 1.11410E-28
3.74810E-01 1.08014E-28
3.79039E-01 1.04736E-28
3.83277E-01 1.01572E-28
3.87524E-01 9.85162E-29
3.91780E-01 9.55652E-29
3.96044E-01 9.27146E-29
4.00316E-01 8.99605E-29
4.04596E-01 8.72991E-29
4.08882E-01 8.47268E-29
4.13176E-01 8.22402E-29
4.17476E-01 7.98359E-29
4.21783E-01 7.75109E-29
4.26095E-01 7.52622E-29
4.30413E-01 7.30867E-29
4.34737E-01 7.09819E-29
4.39065E-01 6.89451E-29
4.43398E-01 6.69737E-29
4.47736E-01 6.50654E-29
4.52077E-01 6.32178E-29
4.56422E-01 6.14287E-29
4.60770E-01 5.96960E-29
4.65122E-01 5.80176E-29
4.69476E-01 5.63916E-29
4.73832E-01 5.48161E-29
4.78190E-01 5.32894E-29
4.82550E-01 5.18096E-29
4.86912E-01 5.03752E-29
4.91274E-01 4.89846E-29
4.95637E-01 4.76361E-29
5.00000E-01 4.63285E-29
5.04363E-01 4.50602E-29
5.08726E-01 4.38299E-29
5.13088E-01 4.26363E-29
5.17450E-01 4.14782E-29
5.21810E-01 4.03543E-29
5.26168E-01 3.92636E-29
5.30524E-01 3.82048E-29
5.34878E-01 3.71769E-29
5.39230E-01 3.61790E-29
5.43578E-01 3.52100E-29
5.47923E-01 3.42689E-29
5.52264E-01 3.33549E-29
5.56602E-01 3.24670E-29
5.60935E-01 3.16044E-29
5.65263E-01 3.07664E-29
5.69587E-01 2.99520E-29
5.73905E-01 2.91606E-29
5.78217E-01 2.83914E-29
5.82524E-01 2.76437E-29
5.86824E-01 2.69169E-29
5.91118E-01 2.62102E-29
5.95404E-01 2.55231E-29
5.99684E-01 2.48549E-29
6.03956E-01 2.42051E-29
6.08220E-01 2.35730E-29
6.12476E-01 2.29581E-29
6.16723E-01 2.23600E-29
6.20961E-01 2.17781E-29
6.25190E-01 2.12118E-29
6.29410E-01 2.06608E-29
6.33619E-01 2.01245E-29
6.37819E-01 1.96026E-29
6.42008E-01 1.90945E-29
6.46186E-01 1.86000E-29
6.50353E-01 1.81185E-29
6.54508E-01 1.76497E-29
6.58652E-01 1.71932E-29
6.62784E-01 1.67487E-29
6.66903E-01 1.63158E-29
6.71010E-01 1.58941E-29
6.75104E-01 1.54834E-29
6.79184E-01 1.50833E-29
6.83251E-01 1.46936E-29
6.87303E-01 1.43138E-29
6.91342E-01 1.39438E-29
6.95366E-01 1.35833E-29
6.99375E-01 1.32320E-29
7.03368E-01 1.28896E-29
7.07347E-01 1.25559E-29
7.11309E-01 1.22306E-29
7.15256E-01 1.19136E-29
7.19186E-01 1.16045E-29
7.23099E-01 1.13031E-29
7.26995E-01 1.10094E-29
7.30874E-01 1.07229E-29
7.34736E-01 1.04436E-29
7.38579E-01 1.01712E-29
7.42405E-01 9.90562E-30
7.46212E-01 9.64657E-30
7.50000E-01 9.39391E-30
7.53769E-01 9.14748E-30
7.57519E-01 8.90711E-30
7.61249E-01 8.67262E-30
7.64960E-01 8.44387E-30
7.68650E-01 8.22071E-30
7.72320E-01 8.00299E-30
7.75968E-01 7.79055E-30
7.79596E-01 7.58328E-30
7.83203E-01 7.38102E-30
7.86788E-01 7.18365E-30
7.90351E-01 6.99106E-30
7.93893E-01 6.80311E-30
7.97411E-01 6.61968E-30
8.00908E-01 6.44065E-30
8.04381E-01 6.26592E-30
8.07831E-01 6.09538E-30
8.11257E-01 5.92891E-30
8.14660E-01 5.76642E-30
8.18039E-01 5.60782E-30
8.21394E-01 5.45299E-30
8.24724E-01 5.30185E-30
8.28030E-01 5.15431E-30
8.31310E-01 5.01027E-30
8.34565E-01 4.86965E-30
8.37795E-01 4.73237E-30
8.40999E-01 4.59834E-30
8.44177E-01 4.46749E-30
8.47329E-01 4.33975E-30
8.50455E-01 4.21502E-30
8.53553E-01 4.09324E-30
8.56625E-01 3.97435E-30
8.59670E-01 3.85827E-30
8.62687E-01 3.74494E-30
8.65677E-01 3.63430E-30
8.68639E-01 3.52626E-30
8.71572E-01 3.42079E-30
8.74478E-01 3.31782E-30
8.77355E-01 3.21729E-30
8.80203E-01 3.11914E-30
8.83022E-01 3.02332E-30
8.85812E-01 2.92978E-30
8.88573E-01 2.83847E-30
8.91304E-01 2.74933E-30
8.94005E-01 2.66232E-30
8.96677E-01 2.57738E-30
8.99318E-01 2.49448E-30
9.01928E-01 2.41358E-30
9.04508E-01 2.33461E-30
9.07058E-01 2.25756E-30
9.09576E-01 2.18236E-30
9.12063E-01 2.10898E-30
9.14519E-01 2.03738E-30
9.16943E-01 1.96753E-30
9.19335E-01 1.89939E-30
9.21696E-01 1.83292E-30
9.24024E-01 1.76809E-30
9.26320E-01 1.70487E-30
9.28584E-01 1.64321E-30
9.30815E-01 1.58309E-30
9.33013E-01 1.52449E-30
9.35178E-01 1.46736E-30
9.37310E-01 1.41168E-30
9.39409E-01 1.35743E-30
9.41474E-01 1.30456E-30
9.43505E-01 1.25306E-30
9.45503E-01 1.20290E-30
9.47467E-01 1.15406E-30
9.49397E-01 1.10651E-30
9.51293E-01 1.06023E-30
9.53154E-01 1.01518E-30
9.54981E-01 9.71366E-31
9.56773E-01 9.28750E-31
9.58530E-01 8.87304E-31
9.60252E-01 8.47022E-31
9.61940E-01 8.07875E-31
9.63592E-01 7.69848E-31
9.65209E-01 7.32925E-31
9.66790E-01 6.97078E-31
9.68336E-01 6.62303E-31
9.69846E-01 6.28569E-31
9.71321E-01 5.95870E-31
9.72759E-01 5.64186E-31
9.74162E-01 5.33498E-31
9.75528E-01 5.03802E-31
9.76858E-01 4.75074E-31
9.78152E-01 4.47305E-31
9.79410E-01 4.20480E-31
9.80631E-01 3.94584E-31
9.81815E-01 3.69606E-31
9.82963E-01 3.45539E-31
9.84074E-01 3.22367E-31
9.85148E-01 3.00077E-31
9.86185E-01 2.78663E-31
9.87185E-01 2.58110E-31
9.88148E-01 2.38414E-31
9.89074E-01 2.19562E-31
9.89962E-01 2.01547E-31
9.90814E-01 1.84357E-31
9.91627E-01 1.67986E-31
9.92404E-01 1.52429E-31
9.93143E-01 1.37674E-31
9.93844E-01 1.23718E-31
9.94508E-01 1.10552E-31
9.95134E-01 9.81730E-32
9.95722E-01 8.65701E-32
9.96273E-01 7.57409E-32
9.96786E-01 6.56827E-32
9.97261E-01 5.63887E-32
9.97698E-01 4.78481E-32
9.98097E-01 4.00689E-32
9.98459E-01 3.30410E-32
9.98782E-01 2.67590E-32
9.99067E-01 2.12244E-32
9.99315E-01 1.64336E-32
9.99524E-01 1.23814E-32
9.99695E-01 9.07018E-33
9.99829E-01 6.49641E-33
9.99924E-01 4.65900E-33
9.99981E-01 3.55697E-33
1.00000E+00 3.19355E-33
