 #
 # Subroutine ELSEPA. Elastic scattering of electrons and positrons
 #                    by neutral atoms and positive ions
 #
 # Projectile: positron
 # Kinetic energy = 5.00000E+06 eV = 1.83747E+05 a.u.
 #
 # WARNING: High-energy factorization with free-atom DF screening.
 #          Absorption, polarization and exchange corrections are
 #          switched off.
 #          Phase shifts are calculated for the bare nucleus.
 #          Scattering amplitudes are not evaluated.
 #
 # Element: Li,  Z =   3,  atomic weight = 6.94100E+00 g/mol
 #
 # Nuclear model: Fermi distribution
 #                Average radius = 2.04107E-13 cm
 #                Skin thickness = 5.46000E-14 cm
 #
 # Number of electrons =  3
 #
 # Total elastic cross section = 1.08416E-19 cm**2 = 3.87160E-03 a0**2
 # 1st transport cross section = 4.92938E-25 cm**2 = 1.76031E-08 a0**2
 # 2nd transport cross section = 1.42081E-24 cm**2 = 5.07381E-08 a0**2
 #
 #
 # Differential cross section:                       MU=(1-COS(THETA))/2
 #
 #  THETA        MU          DCS          DCS        Sherman      error
 #  (deg)                 (cm**2/sr)   (a0**2/sr)    function
 #----------------------------------------------------------------------
0.00000E+00 1.25578E-13
7.61557E-13 1.25575E-13
1.18994E-12 1.25574E-13
1.71346E-12 1.25572E-13
2.33225E-12 1.25570E-13
3.04617E-12 1.25568E-13
3.85530E-12 1.25565E-13
4.75964E-12 1.25562E-13
5.75917E-12 1.25559E-13
6.85391E-12 1.25555E-13
8.04379E-12 1.25551E-13
9.32893E-12 1.25547E-13
1.07092E-11 1.25542E-13
1.21847E-11 1.25537E-13
1.37554E-11 1.25532E-13
1.54213E-11 1.25527E-13
1.71823E-11 1.25521E-13
1.90386E-11 1.25515E-13
2.09900E-11 1.25508E-13
2.30367E-11 1.25501E-13
2.51785E-11 1.25494E-13
2.74156E-11 1.25487E-13
2.97478E-11 1.25479E-13
3.21752E-11 1.25471E-13
3.46979E-11 1.25463E-13
3.73157E-11 1.25454E-13
4.00286E-11 1.25445E-13
4.28368E-11 1.25436E-13
4.57402E-11 1.25426E-13
4.87388E-11 1.25416E-13
5.18325E-11 1.25406E-13
5.50215E-11 1.25395E-13
5.83057E-11 1.25385E-13
6.16850E-11 1.25373E-13
6.51595E-11 1.25362E-13
6.87293E-11 1.25350E-13
7.23943E-11 1.25338E-13
7.61544E-11 1.25326E-13
1.18991E-10 1.25184E-13
1.71347E-10 1.25012E-13
2.33223E-10 1.24808E-13
3.04617E-10 1.24574E-13
3.85531E-10 1.24309E-13
4.75965E-10 1.24014E-13
5.75917E-10 1.23690E-13
6.85389E-10 1.23335E-13
8.04380E-10 1.22951E-13
9.32891E-10 1.22538E-13
1.07092E-09 1.22097E-13
1.21847E-09 1.21627E-13
1.37554E-09 1.21130E-13
1.54213E-09 1.20605E-13
1.71823E-09 1.20054E-13
1.90386E-09 1.19476E-13
2.09900E-09 1.18872E-13
2.30367E-09 1.18244E-13
2.51785E-09 1.17591E-13
2.74156E-09 1.16914E-13
2.97478E-09 1.16213E-13
3.21752E-09 1.15489E-13
3.46978E-09 1.14744E-13
3.73156E-09 1.13977E-13
4.00286E-09 1.13189E-13
4.28368E-09 1.12382E-13
4.57402E-09 1.11553E-13
4.87388E-09 1.10708E-13
5.18326E-09 1.09843E-13
5.50215E-09 1.08961E-13
5.83057E-09 1.08063E-13
6.16850E-09 1.07148E-13
6.51596E-09 1.06219E-13
6.87293E-09 1.05274E-13
7.23942E-09 1.04316E-13
7.61544E-09 1.03346E-13
1.18991E-08 9.30756E-14
1.71347E-08 8.22702E-14
2.33223E-08 7.15381E-14
3.04617E-08 6.13524E-14
3.85531E-08 5.20276E-14
4.75965E-08 4.37370E-14
5.75917E-08 3.66966E-14
6.85389E-08 3.05816E-14
8.04380E-08 2.52566E-14
9.32891E-08 2.11030E-14
1.07092E-07 1.75190E-14
1.21847E-07 1.45969E-14
1.37554E-07 1.22572E-14
1.54213E-07 1.02578E-14
1.71823E-07 8.70971E-15
1.90386E-07 7.40667E-15
2.09900E-07 6.32044E-15
2.30367E-07 5.46003E-15
2.51785E-07 4.71851E-15
2.74156E-07 4.11744E-15
2.97478E-07 3.61306E-15
3.21752E-07 3.17747E-15
3.46978E-07 2.82496E-15
3.73156E-07 2.51619E-15
4.00286E-07 2.25347E-15
4.28368E-07 2.02978E-15
4.57402E-07 1.83208E-15
4.87388E-07 1.66461E-15
5.18325E-07 1.51642E-15
5.50215E-07 1.38573E-15
5.83057E-07 1.27181E-15
6.16850E-07 1.16968E-15
6.51596E-07 1.07944E-15
6.87293E-07 9.98701E-16
7.23942E-07 9.25923E-16
7.61543E-07 8.60814E-16
1.18991E-06 4.55453E-16
1.71347E-06 2.69806E-16
2.33223E-06 1.70495E-16
3.04617E-06 1.12477E-16
3.85531E-06 7.68419E-17
4.75964E-06 5.39142E-17
5.75916E-06 3.87106E-17
6.85388E-06 2.84373E-17
8.04378E-06 2.12859E-17
9.32888E-06 1.62069E-17
1.07092E-05 1.25291E-17
1.21846E-05 9.82206E-18
1.37553E-05 7.79811E-18
1.54212E-05 6.26272E-18
1.71822E-05 5.08347E-18
1.90385E-05 4.17372E-18
2.09899E-05 3.45032E-18
2.30365E-05 2.87422E-18
2.51783E-05 2.41203E-18
2.74153E-05 2.03900E-18
2.97475E-05 1.73552E-18
3.21749E-05 1.48690E-18
3.46974E-05 1.28141E-18
3.73152E-05 1.11016E-18
4.00281E-05 9.66388E-19
4.28362E-05 8.44805E-19
4.57395E-05 7.41526E-19
4.87380E-05 6.53376E-19
5.18317E-05 5.77891E-19
5.50205E-05 5.13035E-19
5.83045E-05 4.57083E-19
6.16838E-05 4.08625E-19
6.51582E-05 3.66447E-19
6.87277E-05 3.29567E-19
7.23925E-05 2.97168E-19
7.61524E-05 2.68594E-19
9.21439E-05 1.83431E-19
1.09658E-04 1.29610E-19
1.28695E-04 9.41059E-20
1.49255E-04 6.99769E-20
1.71338E-04 5.31152E-20
1.94942E-04 4.10263E-20
2.20070E-04 3.22002E-20
2.46720E-04 2.56168E-20
2.74892E-04 2.06368E-20
3.04586E-04 1.68091E-20
3.35803E-04 1.38281E-20
3.68542E-04 1.14811E-20
4.02802E-04 9.60992E-21
4.38585E-04 8.10597E-21
4.75889E-04 6.88437E-21
5.14715E-04 5.88457E-21
5.55063E-04 5.06000E-21
5.96931E-04 4.37457E-21
6.40321E-04 3.80169E-21
6.85233E-04 3.31931E-21
7.31665E-04 2.91120E-21
7.79618E-04 2.56388E-21
8.29092E-04 2.26678E-21
8.80086E-04 2.01158E-21
9.32601E-04 1.79120E-21
9.86636E-04 1.60025E-21
1.04219E-03 1.43404E-21
1.09927E-03 1.28886E-21
1.15786E-03 1.16161E-21
1.21797E-03 1.04964E-21
1.27961E-03 9.50879E-22
1.34276E-03 8.63431E-22
1.40743E-03 7.85822E-22
1.47362E-03 7.16735E-22
1.54133E-03 6.55065E-22
1.61056E-03 5.99899E-22
1.68131E-03 5.50403E-22
1.75357E-03 5.05919E-22
1.82735E-03 4.65830E-22
1.90265E-03 4.29634E-22
1.97947E-03 3.96889E-22
2.05780E-03 3.67197E-22
2.13765E-03 3.40236E-22
2.21902E-03 3.15698E-22
2.30190E-03 2.93335E-22
2.38630E-03 2.72916E-22
2.47222E-03 2.54241E-22
2.55965E-03 2.37139E-22
2.64859E-03 2.21446E-22
2.73905E-03 2.07033E-22
2.83103E-03 1.93771E-22
2.92452E-03 1.81554E-22
3.01952E-03 1.70285E-22
3.11604E-03 1.59875E-22
3.21407E-03 1.50250E-22
3.31362E-03 1.41336E-22
3.41468E-03 1.33074E-22
3.51725E-03 1.25407E-22
3.62133E-03 1.18283E-22
3.72692E-03 1.11658E-22
3.83403E-03 1.05490E-22
3.94265E-03 9.97419E-23
4.05278E-03 9.43796E-23
4.16442E-03 8.93725E-23
4.27757E-03 8.46933E-23
4.39223E-03 8.03156E-23
4.50840E-03 7.62174E-23
4.62608E-03 7.23767E-23
4.74527E-03 6.87750E-23
4.86597E-03 6.53943E-23
4.98817E-03 6.22185E-23
5.11188E-03 5.92333E-23
5.23711E-03 5.64245E-23
5.36383E-03 5.37804E-23
5.49207E-03 5.12891E-23
5.62181E-03 4.89402E-23
5.75306E-03 4.67243E-23
5.88581E-03 4.46321E-23
6.02007E-03 4.26558E-23
6.15583E-03 4.07874E-23
6.29310E-03 3.90202E-23
6.43187E-03 3.73476E-23
6.57214E-03 3.57635E-23
6.71392E-03 3.42625E-23
6.85720E-03 3.28392E-23
7.00198E-03 3.14892E-23
7.14827E-03 3.02076E-23
7.29605E-03 2.89905E-23
7.44534E-03 2.78341E-23
7.59612E-03 2.67346E-23
7.97965E-03 2.42142E-23
8.37255E-03 2.19836E-23
8.77480E-03 2.00037E-23
9.18641E-03 1.82416E-23
9.60736E-03 1.66690E-23
1.00376E-02 1.52621E-23
1.04773E-02 1.40003E-23
1.09262E-02 1.28661E-23
1.13844E-02 1.18443E-23
1.18520E-02 1.09218E-23
1.23288E-02 1.00873E-23
1.28150E-02 9.33079E-24
1.33104E-02 8.64381E-24
1.38150E-02 8.01880E-24
1.43290E-02 7.44917E-24
1.48521E-02 6.92915E-24
1.53845E-02 6.45363E-24
1.59262E-02 6.01814E-24
1.64770E-02 5.61870E-24
1.70371E-02 5.25179E-24
1.76063E-02 4.91428E-24
1.81848E-02 4.60340E-24
1.87724E-02 4.31666E-24
1.93692E-02 4.05185E-24
1.99751E-02 3.80699E-24
2.05901E-02 3.58031E-24
2.12143E-02 3.37021E-24
2.18476E-02 3.17526E-24
2.24900E-02 2.99416E-24
2.31415E-02 2.82576E-24
2.38021E-02 2.66900E-24
2.44717E-02 2.52294E-24
2.51504E-02 2.38669E-24
2.58382E-02 2.25950E-24
2.65349E-02 2.14064E-24
2.72407E-02 2.02947E-24
2.79555E-02 1.92540E-24
2.86793E-02 1.82790E-24
2.94120E-02 1.73647E-24
3.01537E-02 1.65066E-24
3.09043E-02 1.57007E-24
3.16639E-02 1.49432E-24
3.24324E-02 1.42307E-24
3.32098E-02 1.35600E-24
3.39961E-02 1.29282E-24
3.47912E-02 1.23326E-24
3.55952E-02 1.17708E-24
3.64081E-02 1.12405E-24
3.72297E-02 1.07396E-24
3.80602E-02 1.02662E-24
3.88995E-02 9.81842E-25
3.97476E-02 9.39471E-25
4.06044E-02 8.99351E-25
4.14700E-02 8.61340E-25
4.23443E-02 8.25306E-25
4.32273E-02 7.91128E-25
4.41190E-02 7.58692E-25
4.50194E-02 7.27893E-25
4.59284E-02 6.98633E-25
4.68461E-02 6.70821E-25
4.87074E-02 6.19206E-25
5.06030E-02 5.72435E-25
5.25328E-02 5.29974E-25
5.44967E-02 4.91356E-25
5.64946E-02 4.56170E-25
5.85262E-02 4.24060E-25
6.05914E-02 3.94708E-25
6.26901E-02 3.67835E-25
6.48222E-02 3.43195E-25
6.69873E-02 3.20570E-25
6.91854E-02 2.99765E-25
7.14163E-02 2.80608E-25
7.36799E-02 2.62946E-25
7.59760E-02 2.46640E-25
7.83043E-02 2.31568E-25
8.06647E-02 2.17620E-25
8.30571E-02 2.04698E-25
8.54812E-02 1.92711E-25
8.79369E-02 1.81581E-25
9.04240E-02 1.71235E-25
9.29422E-02 1.61608E-25
9.54915E-02 1.52642E-25
9.80716E-02 1.44282E-25
1.00682E-01 1.36480E-25
1.03323E-01 1.29192E-25
1.05995E-01 1.22379E-25
1.08696E-01 1.16004E-25
1.11427E-01 1.10033E-25
1.14188E-01 1.04437E-25
1.16978E-01 9.91871E-26
1.19797E-01 9.42587E-26
1.22645E-01 8.96284E-26
1.25522E-01 8.52750E-26
1.28428E-01 8.11789E-26
1.31361E-01 7.73221E-26
1.34323E-01 7.36881E-26
1.37313E-01 7.02617E-26
1.40330E-01 6.70290E-26
1.43375E-01 6.39770E-26
1.46447E-01 6.10938E-26
1.49545E-01 5.83683E-26
1.52671E-01 5.57905E-26
1.55823E-01 5.33507E-26
1.59001E-01 5.10404E-26
1.62205E-01 4.88514E-26
1.65435E-01 4.67762E-26
1.68690E-01 4.48077E-26
1.71970E-01 4.29396E-26
1.75276E-01 4.11658E-26
1.78606E-01 3.94806E-26
1.81961E-01 3.78789E-26
1.85340E-01 3.63557E-26
1.88743E-01 3.49065E-26
1.92169E-01 3.35271E-26
1.95619E-01 3.22135E-26
1.99092E-01 3.09621E-26
2.02589E-01 2.97692E-26
2.06107E-01 2.86317E-26
2.09649E-01 2.75466E-26
2.13212E-01 2.65111E-26
2.16797E-01 2.55223E-26
2.20404E-01 2.45779E-26
2.24032E-01 2.36756E-26
2.27680E-01 2.28130E-26
2.31350E-01 2.19881E-26
2.35040E-01 2.11991E-26
2.38751E-01 2.04440E-26
2.42481E-01 1.97211E-26
2.46231E-01 1.90288E-26
2.50000E-01 1.83657E-26
2.53788E-01 1.77301E-26
2.57595E-01 1.71209E-26
2.61421E-01 1.65366E-26
2.65264E-01 1.59761E-26
2.69126E-01 1.54383E-26
2.73005E-01 1.49221E-26
2.76901E-01 1.44264E-26
2.80814E-01 1.39503E-26
2.84744E-01 1.34929E-26
2.88691E-01 1.30533E-26
2.92653E-01 1.26307E-26
2.96632E-01 1.22244E-26
3.00625E-01 1.18335E-26
3.04634E-01 1.14574E-26
3.08658E-01 1.10955E-26
3.12697E-01 1.07471E-26
3.16749E-01 1.04115E-26
3.20816E-01 1.00884E-26
3.24896E-01 9.77706E-27
3.28990E-01 9.47704E-27
3.33097E-01 9.18784E-27
3.37216E-01 8.90902E-27
3.41348E-01 8.64013E-27
3.45492E-01 8.38076E-27
3.49647E-01 8.13051E-27
3.53814E-01 7.88901E-27
3.57992E-01 7.65588E-27
3.62181E-01 7.43081E-27
3.66381E-01 7.21345E-27
3.70590E-01 7.00350E-27
3.74810E-01 6.80065E-27
3.79039E-01 6.60464E-27
3.83277E-01 6.41519E-27
3.87524E-01 6.23204E-27
3.91780E-01 6.05494E-27
3.96044E-01 5.88366E-27
4.00316E-01 5.71799E-27
4.04596E-01 5.55769E-27
4.08882E-01 5.40257E-27
4.13176E-01 5.25243E-27
4.17476E-01 5.10709E-27
4.21783E-01 4.96636E-27
4.26095E-01 4.83008E-27
4.30413E-01 4.69807E-27
4.34737E-01 4.57019E-27
4.39065E-01 4.44628E-27
4.43398E-01 4.32619E-27
4.47736E-01 4.20980E-27
4.52077E-01 4.09696E-27
4.56422E-01 3.98755E-27
4.60770E-01 3.88145E-27
4.65122E-01 3.77854E-27
4.69476E-01 3.67871E-27
4.73832E-01 3.58186E-27
4.78190E-01 3.48787E-27
4.82550E-01 3.39665E-27
4.86912E-01 3.30810E-27
4.91274E-01 3.22214E-27
4.95637E-01 3.13867E-27
5.00000E-01 3.05762E-27
5.04363E-01 2.97889E-27
5.08726E-01 2.90241E-27
5.13088E-01 2.82812E-27
5.17450E-01 2.75592E-27
5.21810E-01 2.68576E-27
5.26168E-01 2.61758E-27
5.30524E-01 2.55129E-27
5.34878E-01 2.48685E-27
5.39230E-01 2.42419E-27
5.43578E-01 2.36326E-27
5.47923E-01 2.30400E-27
5.52264E-01 2.24636E-27
5.56602E-01 2.19028E-27
5.60935E-01 2.13572E-27
5.65263E-01 2.08263E-27
5.69587E-01 2.03097E-27
5.73905E-01 1.98068E-27
5.78217E-01 1.93174E-27
5.82524E-01 1.88408E-27
5.86824E-01 1.83769E-27
5.91118E-01 1.79251E-27
5.95404E-01 1.74852E-27
5.99684E-01 1.70567E-27
6.03956E-01 1.66393E-27
6.08220E-01 1.62327E-27
6.12476E-01 1.58366E-27
6.16723E-01 1.54506E-27
6.20961E-01 1.50745E-27
6.25190E-01 1.47080E-27
6.29410E-01 1.43507E-27
6.33619E-01 1.40024E-27
6.37819E-01 1.36630E-27
6.42008E-01 1.33320E-27
6.46186E-01 1.30092E-27
6.50353E-01 1.26945E-27
6.54508E-01 1.23876E-27
6.58652E-01 1.20883E-27
6.62784E-01 1.17963E-27
6.66903E-01 1.15115E-27
6.71010E-01 1.12337E-27
6.75104E-01 1.09626E-27
6.79184E-01 1.06981E-27
6.83251E-01 1.04400E-27
6.87303E-01 1.01881E-27
6.91342E-01 9.94227E-28
6.95366E-01 9.70233E-28
6.99375E-01 9.46812E-28
7.03368E-01 9.23947E-28
7.07347E-01 9.01626E-28
7.11309E-01 8.79832E-28
7.15256E-01 8.58553E-28
7.19186E-01 8.37774E-28
7.23099E-01 8.17482E-28
7.26995E-01 7.97665E-28
7.30874E-01 7.78310E-28
7.34736E-01 7.59405E-28
7.38579E-01 7.40939E-28
7.42405E-01 7.22899E-28
7.46212E-01 7.05276E-28
7.50000E-01 6.88059E-28
7.53769E-01 6.71236E-28
7.57519E-01 6.54800E-28
7.61249E-01 6.38738E-28
7.64960E-01 6.23043E-28
7.68650E-01 6.07705E-28
7.72320E-01 5.92715E-28
7.75968E-01 5.78064E-28
7.79596E-01 5.63744E-28
7.83203E-01 5.49748E-28
7.86788E-01 5.36066E-28
7.90351E-01 5.22692E-28
7.93893E-01 5.09619E-28
7.97411E-01 4.96838E-28
8.00908E-01 4.84342E-28
8.04381E-01 4.72126E-28
8.07831E-01 4.60182E-28
8.11257E-01 4.48503E-28
8.14660E-01 4.37085E-28
8.18039E-01 4.25920E-28
8.21394E-01 4.15003E-28
8.24724E-01 4.04328E-28
8.28030E-01 3.93889E-28
8.31310E-01 3.83681E-28
8.34565E-01 3.73699E-28
8.37795E-01 3.63937E-28
8.40999E-01 3.54390E-28
8.44177E-01 3.45054E-28
8.47329E-01 3.35925E-28
8.50455E-01 3.26996E-28
8.53553E-01 3.18264E-28
8.56625E-01 3.09725E-28
8.59670E-01 3.01374E-28
8.62687E-01 2.93208E-28
8.65677E-01 2.85222E-28
8.68639E-01 2.77412E-28
8.71572E-01 2.69774E-28
8.74478E-01 2.62306E-28
8.77355E-01 2.55003E-28
8.80203E-01 2.47862E-28
8.83022E-01 2.40879E-28
8.85812E-01 2.34051E-28
8.88573E-01 2.27376E-28
8.91304E-01 2.20849E-28
8.94005E-01 2.14468E-28
8.96677E-01 2.08230E-28
8.99318E-01 2.02131E-28
9.01928E-01 1.96171E-28
9.04508E-01 1.90344E-28
9.07058E-01 1.84650E-28
9.09576E-01 1.79085E-28
9.12063E-01 1.73646E-28
9.14519E-01 1.68332E-28
9.16943E-01 1.63140E-28
9.19335E-01 1.58067E-28
9.21696E-01 1.53112E-28
9.24024E-01 1.48272E-28
9.26320E-01 1.43546E-28
9.28584E-01 1.38930E-28
9.30815E-01 1.34423E-28
9.33013E-01 1.30024E-28
9.35178E-01 1.25729E-28
9.37310E-01 1.21538E-28
9.39409E-01 1.17449E-28
9.41474E-01 1.13459E-28
9.43505E-01 1.09568E-28
9.45503E-01 1.05772E-28
9.47467E-01 1.02072E-28
9.49397E-01 9.84654E-29
9.51293E-01 9.49505E-29
9.53154E-01 9.15253E-29
9.54981E-01 8.81897E-29
9.56773E-01 8.49414E-29
9.58530E-01 8.17790E-29
9.60252E-01 7.87017E-29
9.61940E-01 7.57080E-29
9.63592E-01 7.27965E-29
9.65209E-01 6.99667E-29
9.66790E-01 6.72164E-29
9.68336E-01 6.45455E-29
9.69846E-01 6.19519E-29
9.71321E-01 5.94355E-29
9.72759E-01 5.69947E-29
9.74162E-01 5.46286E-29
9.75528E-01 5.23367E-29
9.76858E-01 5.01174E-29
9.78152E-01 4.79704E-29
9.79410E-01 4.58945E-29
9.80631E-01 4.38888E-29
9.81815E-01 4.19528E-29
9.82963E-01 4.00858E-29
9.84074E-01 3.82867E-29
9.85148E-01 3.65550E-29
9.86185E-01 3.48901E-29
9.87185E-01 3.32910E-29
9.88148E-01 3.17574E-29
9.89074E-01 3.02887E-29
9.89962E-01 2.88842E-29
9.90814E-01 2.75433E-29
9.91627E-01 2.62656E-29
9.92404E-01 2.50506E-29
9.93143E-01 2.38977E-29
9.93844E-01 2.28068E-29
9.94508E-01 2.17771E-29
9.95134E-01 2.08084E-29
9.95722E-01 1.99001E-29
9.96273E-01 1.90522E-29
9.96786E-01 1.82643E-29
9.97261E-01 1.75357E-29
9.97698E-01 1.68662E-29
9.98097E-01 1.62565E-29
9.98459E-01 1.57049E-29
9.98782E-01 1.52121E-29
9.99067E-01 1.47778E-29
9.99315E-01 1.44017E-29
9.99524E-01 1.40834E-29
9.99695E-01 1.38236E-29
9.99829E-01 1.36215E-29
9.99924E-01 1.34775E-29
9.99981E-01 1.33908E-29
1.00000E+00 1.33637E-29
