 #
 # Subroutine ELSEPA. Elastic scattering of electrons and positrons
 #                    by neutral atoms and positive ions
 #
 # Projectile: positron
 # Kinetic energy = 8.00000E+05 eV = 2.93995E+04 a.u.
 #
 # Element: Li,  Z =   3,  atomic weight = 6.94100E+00 g/mol
 #
 # Nuclear model: Fermi distribution
 #                Average radius = 2.04107E-13 cm
 #                Skin thickness = 5.46000E-14 cm
 #
 # Number of electrons =  3
 #
 # Electron density: Read from file Data/z_003.d
 #                   Number of data points =  823
 #                   Volume integral = 3.00000E+00
 #
 # LDA absorption potential (only electron-hole excitations):
 #                           Delta = 0.00000E+00 eV
 #                            Aabs = 2.00000E+00
 #
 # Total elastic cross section = 1.26389E-19 cm**2 = 4.51345E-03 a0**2
 # 1st transport cross section = 9.16696E-24 cm**2 = 3.27358E-07 a0**2
 # 2nd transport cross section = 2.58931E-23 cm**2 = 9.24658E-07 a0**2
 #
 #    Absorption cross section = 4.13014E-19 cm**2 = 1.47490E-02 a0**2
 #   Grand total cross section = 5.39683E-19 cm**2 = 1.92724E-02 a0**2
 #
 #
 # Differential cross section:                       MU=(1-COS(THETA))/2
 #
 #  THETA        MU          DCS          DCS        Sherman      error
 #  (deg)                 (cm**2/sr)   (a0**2/sr)    function
 #----------------------------------------------------------------------
0.00000E+00 7.11045E-15
7.61557E-13 7.11045E-15
1.18994E-12 7.11044E-15
1.71346E-12 7.11044E-15
2.33225E-12 7.11043E-15
3.04617E-12 7.11042E-15
3.85530E-12 7.11042E-15
4.75964E-12 7.11041E-15
5.75917E-12 7.11040E-15
6.85391E-12 7.11039E-15
8.04379E-12 7.11038E-15
9.32893E-12 7.11037E-15
1.07092E-11 7.11036E-15
1.21847E-11 7.11034E-15
1.37554E-11 7.11033E-15
1.54213E-11 7.11031E-15
1.71823E-11 7.11030E-15
1.90386E-11 7.11028E-15
2.09900E-11 7.11026E-15
2.30367E-11 7.11024E-15
2.51785E-11 7.11022E-15
2.74156E-11 7.11020E-15
2.97478E-11 7.11018E-15
3.21752E-11 7.11016E-15
3.46979E-11 7.11014E-15
3.73157E-11 7.11011E-15
4.00286E-11 7.11009E-15
4.28368E-11 7.11006E-15
4.57402E-11 7.11004E-15
4.87388E-11 7.11001E-15
5.18325E-11 7.10998E-15
5.50215E-11 7.10995E-15
5.83057E-11 7.10992E-15
6.16850E-11 7.10989E-15
6.51595E-11 7.10986E-15
6.87293E-11 7.10983E-15
7.23943E-11 7.10979E-15
7.61544E-11 7.10976E-15
1.18991E-10 7.10937E-15
1.71347E-10 7.10890E-15
2.33223E-10 7.10833E-15
3.04617E-10 7.10769E-15
3.85531E-10 7.10695E-15
4.75965E-10 7.10613E-15
5.75917E-10 7.10522E-15
6.85389E-10 7.10423E-15
8.04380E-10 7.10315E-15
9.32891E-10 7.10198E-15
1.07092E-09 7.10073E-15
1.21847E-09 7.09939E-15
1.37554E-09 7.09797E-15
1.54213E-09 7.09646E-15
1.71823E-09 7.09486E-15
1.90386E-09 7.09318E-15
2.09900E-09 7.09141E-15
2.30367E-09 7.08956E-15
2.51785E-09 7.08762E-15
2.74156E-09 7.08560E-15
2.97478E-09 7.08349E-15
3.21752E-09 7.08130E-15
3.46978E-09 7.07902E-15
3.73156E-09 7.07665E-15
4.00286E-09 7.07420E-15
4.28368E-09 7.07167E-15
4.57402E-09 7.06905E-15
4.87388E-09 7.06635E-15
5.18326E-09 7.06356E-15
5.50215E-09 7.06069E-15
5.83057E-09 7.05773E-15
6.16850E-09 7.05469E-15
6.51596E-09 7.05157E-15
6.87293E-09 7.04836E-15
7.23942E-09 7.04507E-15
7.61544E-09 7.04169E-15
1.18991E-08 7.00340E-15
1.71347E-08 6.95696E-15
2.33223E-08 6.90259E-15
3.04617E-08 6.84054E-15
3.85531E-08 6.77110E-15
4.75965E-08 6.69457E-15
5.75917E-08 6.61130E-15
6.85389E-08 6.52163E-15
8.04380E-08 6.42596E-15
9.32891E-08 6.32469E-15
1.07092E-07 6.21823E-15
1.21847E-07 6.10700E-15
1.37554E-07 5.99144E-15
1.54213E-07 5.87198E-15
1.71823E-07 5.74907E-15
1.90386E-07 5.62315E-15
2.09900E-07 5.49464E-15
2.30367E-07 5.36399E-15
2.51785E-07 5.23159E-15
2.74156E-07 5.09787E-15
2.97478E-07 4.96322E-15
3.21752E-07 4.82801E-15
3.46978E-07 4.69261E-15
3.73156E-07 4.55736E-15
4.00286E-07 4.42259E-15
4.28368E-07 4.28861E-15
4.57402E-07 4.15569E-15
4.87388E-07 4.02410E-15
5.18325E-07 3.89410E-15
5.50215E-07 3.76589E-15
5.83057E-07 3.63968E-15
6.16850E-07 3.51566E-15
6.51596E-07 3.39398E-15
6.87293E-07 3.27479E-15
7.23942E-07 3.15820E-15
7.61543E-07 3.04432E-15
1.18991E-06 2.06658E-15
1.71347E-06 1.37568E-15
2.33223E-06 9.16599E-16
3.04617E-06 6.20321E-16
3.85531E-06 4.30280E-16
4.75964E-06 3.07231E-16
5.75916E-06 2.26015E-16
6.85388E-06 1.71077E-16
8.04378E-06 1.32900E-16
9.32888E-06 1.05639E-16
1.07092E-05 8.56580E-17
1.21846E-05 7.06506E-17
1.37553E-05 5.91241E-17
1.54212E-05 5.00915E-17
1.71822E-05 4.28857E-17
1.90385E-05 3.70464E-17
2.09899E-05 3.22483E-17
2.30365E-05 2.82573E-17
2.51783E-05 2.49022E-17
2.74153E-05 2.20554E-17
2.97475E-05 1.96202E-17
3.21749E-05 1.75221E-17
3.46974E-05 1.57030E-17
3.73152E-05 1.41170E-17
4.00281E-05 1.27273E-17
4.28362E-05 1.15044E-17
4.57395E-05 1.04240E-17
4.87380E-05 9.46603E-18
5.18317E-05 8.61386E-18
5.50205E-05 7.85363E-18
5.83045E-05 7.17359E-18
6.16838E-05 6.56377E-18
6.51582E-05 6.01568E-18
6.87277E-05 5.52196E-18
7.23925E-05 5.07635E-18
7.61524E-05 4.67343E-18
9.21439E-05 3.40225E-18
1.09658E-04 2.52527E-18
1.28695E-04 1.90694E-18
1.49255E-04 1.46260E-18
1.71338E-04 1.13777E-18
1.94942E-04 8.96582E-19
2.20070E-04 7.14923E-19
2.46720E-04 5.76287E-19
2.74892E-04 4.69193E-19
3.04586E-04 3.85531E-19
3.35803E-04 3.19487E-19
3.68542E-04 2.66845E-19
4.02802E-04 2.24505E-19
4.38585E-04 1.90163E-19
4.75889E-04 1.62091E-19
5.14715E-04 1.38974E-19
5.55063E-04 1.19808E-19
5.96931E-04 1.03814E-19
6.40321E-04 9.03876E-20
6.85233E-04 7.90521E-20
7.31665E-04 6.94309E-20
7.79618E-04 6.12235E-20
8.29092E-04 5.41890E-20
8.80086E-04 4.81328E-20
9.32601E-04 4.28967E-20
9.86636E-04 3.83514E-20
1.04219E-03 3.43907E-20
1.09927E-03 3.09270E-20
1.15786E-03 2.78876E-20
1.21797E-03 2.52117E-20
1.27961E-03 2.28485E-20
1.34276E-03 2.07552E-20
1.40743E-03 1.88958E-20
1.47362E-03 1.72397E-20
1.54133E-03 1.57608E-20
1.61056E-03 1.44369E-20
1.68131E-03 1.32489E-20
1.75357E-03 1.21805E-20
1.82735E-03 1.12175E-20
1.90265E-03 1.03476E-20
1.97947E-03 9.56042E-21
2.05780E-03 8.84657E-21
2.13765E-03 8.19805E-21
2.21902E-03 7.60781E-21
2.30190E-03 7.06970E-21
2.38630E-03 6.57828E-21
2.47222E-03 6.12879E-21
2.55965E-03 5.71701E-21
2.64859E-03 5.33920E-21
2.73905E-03 4.99207E-21
2.83103E-03 4.67267E-21
2.92452E-03 4.37839E-21
3.01952E-03 4.10689E-21
3.11604E-03 3.85610E-21
3.21407E-03 3.62415E-21
3.31362E-03 3.40937E-21
3.41468E-03 3.21025E-21
3.51725E-03 3.02545E-21
3.62133E-03 2.85374E-21
3.72692E-03 2.69404E-21
3.83403E-03 2.54535E-21
3.94265E-03 2.40676E-21
4.05278E-03 2.27748E-21
4.16442E-03 2.15675E-21
4.27757E-03 2.04391E-21
4.39223E-03 1.93835E-21
4.50840E-03 1.83951E-21
4.62608E-03 1.74689E-21
4.74527E-03 1.66002E-21
4.86597E-03 1.57848E-21
4.98817E-03 1.50188E-21
5.11188E-03 1.42987E-21
5.23711E-03 1.36212E-21
5.36383E-03 1.29834E-21
5.49207E-03 1.23824E-21
5.62181E-03 1.18157E-21
5.75306E-03 1.12811E-21
5.88581E-03 1.07764E-21
6.02007E-03 1.02995E-21
6.15583E-03 9.84871E-22
6.29310E-03 9.42230E-22
6.43187E-03 9.01870E-22
6.57214E-03 8.63646E-22
6.71392E-03 8.27425E-22
6.85720E-03 7.93081E-22
7.00198E-03 7.60499E-22
7.14827E-03 7.29572E-22
7.29605E-03 7.00200E-22
7.44534E-03 6.72290E-22
7.59612E-03 6.45755E-22
7.97965E-03 5.84923E-22
8.37255E-03 5.31082E-22
8.77480E-03 4.83291E-22
9.18641E-03 4.40753E-22
9.60736E-03 4.02789E-22
1.00376E-02 3.68822E-22
1.04773E-02 3.38359E-22
1.09262E-02 3.10973E-22
1.13844E-02 2.86301E-22
1.18520E-02 2.64024E-22
1.23288E-02 2.43871E-22
1.28150E-02 2.25602E-22
1.33104E-02 2.09011E-22
1.38150E-02 1.93915E-22
1.43290E-02 1.80157E-22
1.48521E-02 1.67596E-22
1.53845E-02 1.56109E-22
1.59262E-02 1.45589E-22
1.64770E-02 1.35939E-22
1.70371E-02 1.27074E-22
1.76063E-02 1.18919E-22
1.81848E-02 1.11407E-22
1.87724E-02 1.04479E-22
1.93692E-02 9.80795E-23
1.99751E-02 9.21622E-23
2.05901E-02 8.66836E-23
2.12143E-02 8.16056E-23
2.18476E-02 7.68934E-23
2.24900E-02 7.25160E-23
2.31415E-02 6.84451E-23
2.38021E-02 6.46554E-23
2.44717E-02 6.11239E-23
2.51504E-02 5.78299E-23
2.58382E-02 5.47544E-23
2.65349E-02 5.18803E-23
2.72407E-02 4.91920E-23
2.79555E-02 4.66751E-23
2.86793E-02 4.43170E-23
2.94120E-02 4.21055E-23
3.01537E-02 4.00300E-23
3.09043E-02 3.80805E-23
3.16639E-02 3.62481E-23
3.24324E-02 3.45242E-23
3.32098E-02 3.29015E-23
3.39961E-02 3.13727E-23
3.47912E-02 2.99315E-23
3.55952E-02 2.85719E-23
3.64081E-02 2.72885E-23
3.72297E-02 2.60761E-23
3.80602E-02 2.49301E-23
3.88995E-02 2.38463E-23
3.97476E-02 2.28205E-23
4.06044E-02 2.18492E-23
4.14700E-02 2.09288E-23
4.23443E-02 2.00563E-23
4.32273E-02 1.92287E-23
4.41190E-02 1.84431E-23
4.50194E-02 1.76972E-23
4.59284E-02 1.69885E-23
4.68461E-02 1.63148E-23
4.87074E-02 1.50643E-23
5.06030E-02 1.39311E-23
5.25328E-02 1.29020E-23
5.44967E-02 1.19660E-23
5.64946E-02 1.11130E-23
5.85262E-02 1.03344E-23
6.05914E-02 9.62260E-24
6.26901E-02 8.97081E-24
6.48222E-02 8.37306E-24
6.69873E-02 7.82408E-24
6.91854E-02 7.31917E-24
7.14163E-02 6.85416E-24
7.36799E-02 6.42535E-24
7.59760E-02 6.02939E-24
7.83043E-02 5.66333E-24
8.06647E-02 5.32450E-24
8.30571E-02 5.01051E-24
8.54812E-02 4.71921E-24
8.79369E-02 4.44864E-24
9.04240E-02 4.19711E-24
9.29422E-02 3.96299E-24
9.54915E-02 3.74489E-24
9.80716E-02 3.54149E-24
1.00682E-01 3.35165E-24
1.03323E-01 3.17426E-24
1.05995E-01 3.00838E-24
1.08696E-01 2.85313E-24
1.11427E-01 2.70769E-24
1.14188E-01 2.57135E-24
1.16978E-01 2.44341E-24
1.19797E-01 2.32328E-24
1.22645E-01 2.21039E-24
1.25522E-01 2.10421E-24
1.28428E-01 2.00429E-24
1.31361E-01 1.91018E-24
1.34323E-01 1.82149E-24
1.37313E-01 1.73784E-24
1.40330E-01 1.65889E-24
1.43375E-01 1.58434E-24
1.46447E-01 1.51389E-24
1.49545E-01 1.44728E-24
1.52671E-01 1.38425E-24
1.55823E-01 1.32459E-24
1.59001E-01 1.26808E-24
1.62205E-01 1.21451E-24
1.65435E-01 1.16372E-24
1.68690E-01 1.11552E-24
1.71970E-01 1.06977E-24
1.75276E-01 1.02631E-24
1.78606E-01 9.85019E-25
1.81961E-01 9.45755E-25
1.85340E-01 9.08404E-25
1.88743E-01 8.72857E-25
1.92169E-01 8.39009E-25
1.95619E-01 8.06766E-25
1.99092E-01 7.76037E-25
2.02589E-01 7.46740E-25
2.06107E-01 7.18794E-25
2.09649E-01 6.92125E-25
2.13212E-01 6.66664E-25
2.16797E-01 6.42346E-25
2.20404E-01 6.19110E-25
2.24032E-01 5.96900E-25
2.27680E-01 5.75662E-25
2.31350E-01 5.55347E-25
2.35040E-01 5.35906E-25
2.38751E-01 5.17295E-25
2.42481E-01 4.99471E-25
2.46231E-01 4.82395E-25
2.50000E-01 4.66031E-25
2.53788E-01 4.50343E-25
2.57595E-01 4.35299E-25
2.61421E-01 4.20867E-25
2.65264E-01 4.07016E-25
2.69126E-01 3.93720E-25
2.73005E-01 3.80951E-25
2.76901E-01 3.68687E-25
2.80814E-01 3.56902E-25
2.84744E-01 3.45577E-25
2.88691E-01 3.34688E-25
2.92653E-01 3.24215E-25
2.96632E-01 3.14140E-25
3.00625E-01 3.04445E-25
3.04634E-01 2.95113E-25
3.08658E-01 2.86128E-25
3.12697E-01 2.77475E-25
3.16749E-01 2.69140E-25
3.20816E-01 2.61107E-25
3.24896E-01 2.53365E-25
3.28990E-01 2.45901E-25
3.33097E-01 2.38702E-25
3.37216E-01 2.31760E-25
3.41348E-01 2.25062E-25
3.45492E-01 2.18600E-25
3.49647E-01 2.12359E-25
3.53814E-01 2.06334E-25
3.57992E-01 2.00515E-25
3.62181E-01 1.94895E-25
3.66381E-01 1.89466E-25
3.70590E-01 1.84219E-25
3.74810E-01 1.79147E-25
3.79039E-01 1.74243E-25
3.83277E-01 1.69501E-25
3.87524E-01 1.64915E-25
3.91780E-01 1.60478E-25
3.96044E-01 1.56185E-25
4.00316E-01 1.52031E-25
4.04596E-01 1.48009E-25
4.08882E-01 1.44115E-25
4.13176E-01 1.40344E-25
4.17476E-01 1.36691E-25
4.21783E-01 1.33153E-25
4.26095E-01 1.29725E-25
4.30413E-01 1.26403E-25
4.34737E-01 1.23183E-25
4.39065E-01 1.20061E-25
4.43398E-01 1.17034E-25
4.47736E-01 1.14098E-25
4.52077E-01 1.11251E-25
4.56422E-01 1.08488E-25
4.60770E-01 1.05808E-25
4.65122E-01 1.03207E-25
4.69476E-01 1.00682E-25
4.73832E-01 9.82314E-26
4.78190E-01 9.58517E-26
4.82550E-01 9.35410E-26
4.86912E-01 9.12968E-26
4.91274E-01 8.91169E-26
4.95637E-01 8.69990E-26
5.00000E-01 8.49411E-26
5.04363E-01 8.29412E-26
5.08726E-01 8.09973E-26
5.13088E-01 7.91076E-26
5.17450E-01 7.72704E-26
5.21810E-01 7.54839E-26
5.26168E-01 7.37466E-26
5.30524E-01 7.20569E-26
5.34878E-01 7.04131E-26
5.39230E-01 6.88139E-26
5.43578E-01 6.72578E-26
5.47923E-01 6.57435E-26
5.52264E-01 6.42697E-26
5.56602E-01 6.28351E-26
5.60935E-01 6.14383E-26
5.65263E-01 6.00784E-26
5.69587E-01 5.87540E-26
5.73905E-01 5.74643E-26
5.78217E-01 5.62080E-26
5.82524E-01 5.49844E-26
5.86824E-01 5.37923E-26
5.91118E-01 5.26308E-26
5.95404E-01 5.14989E-26
5.99684E-01 5.03958E-26
6.03956E-01 4.93207E-26
6.08220E-01 4.82726E-26
6.12476E-01 4.72508E-26
6.16723E-01 4.62546E-26
6.20961E-01 4.52832E-26
6.25190E-01 4.43359E-26
6.29410E-01 4.34119E-26
6.33619E-01 4.25107E-26
6.37819E-01 4.16317E-26
6.42008E-01 4.07741E-26
6.46186E-01 3.99374E-26
6.50353E-01 3.91209E-26
6.54508E-01 3.83242E-26
6.58652E-01 3.75465E-26
6.62784E-01 3.67875E-26
6.66903E-01 3.60466E-26
6.71010E-01 3.53233E-26
6.75104E-01 3.46171E-26
6.79184E-01 3.39277E-26
6.83251E-01 3.32544E-26
6.87303E-01 3.25970E-26
6.91342E-01 3.19549E-26
6.95366E-01 3.13278E-26
6.99375E-01 3.07153E-26
7.03368E-01 3.01169E-26
7.07347E-01 2.95324E-26
7.11309E-01 2.89612E-26
7.15256E-01 2.84031E-26
7.19186E-01 2.78578E-26
7.23099E-01 2.73248E-26
7.26995E-01 2.68040E-26
7.30874E-01 2.62951E-26
7.34736E-01 2.57976E-26
7.38579E-01 2.53114E-26
7.42405E-01 2.48361E-26
7.46212E-01 2.43714E-26
7.50000E-01 2.39170E-26
7.53769E-01 2.34728E-26
7.57519E-01 2.30385E-26
7.61249E-01 2.26138E-26
7.64960E-01 2.21985E-26
7.68650E-01 2.17923E-26
7.72320E-01 2.13951E-26
7.75968E-01 2.10067E-26
7.79596E-01 2.06267E-26
7.83203E-01 2.02551E-26
7.86788E-01 1.98917E-26
7.90351E-01 1.95361E-26
7.93893E-01 1.91883E-26
7.97411E-01 1.88480E-26
8.00908E-01 1.85151E-26
8.04381E-01 1.81894E-26
8.07831E-01 1.78707E-26
8.11257E-01 1.75589E-26
8.14660E-01 1.72539E-26
8.18039E-01 1.69555E-26
8.21394E-01 1.66634E-26
8.24724E-01 1.63777E-26
8.28030E-01 1.60981E-26
8.31310E-01 1.58244E-26
8.34565E-01 1.55567E-26
8.37795E-01 1.52947E-26
8.40999E-01 1.50383E-26
8.44177E-01 1.47874E-26
8.47329E-01 1.45418E-26
8.50455E-01 1.43015E-26
8.53553E-01 1.40663E-26
8.56625E-01 1.38362E-26
8.59670E-01 1.36111E-26
8.62687E-01 1.33908E-26
8.65677E-01 1.31752E-26
8.68639E-01 1.29642E-26
8.71572E-01 1.27577E-26
8.74478E-01 1.25557E-26
8.77355E-01 1.23580E-26
8.80203E-01 1.21645E-26
8.83022E-01 1.19753E-26
8.85812E-01 1.17901E-26
8.88573E-01 1.16090E-26
8.91304E-01 1.14317E-26
8.94005E-01 1.12584E-26
8.96677E-01 1.10888E-26
8.99318E-01 1.09230E-26
9.01928E-01 1.07608E-26
9.04508E-01 1.06021E-26
9.07058E-01 1.04469E-26
9.09576E-01 1.02951E-26
9.12063E-01 1.01467E-26
9.14519E-01 1.00016E-26
9.16943E-01 9.85983E-27
9.19335E-01 9.72121E-27
9.21696E-01 9.58573E-27
9.24024E-01 9.45332E-27
9.26320E-01 9.32394E-27
9.28584E-01 9.19754E-27
9.30815E-01 9.07406E-27
9.33013E-01 8.95345E-27
9.35178E-01 8.83565E-27
9.37310E-01 8.72060E-27
9.39409E-01 8.60826E-27
9.41474E-01 8.49861E-27
9.43505E-01 8.39162E-27
9.45503E-01 8.28725E-27
9.47467E-01 8.18547E-27
9.49397E-01 8.08621E-27
9.51293E-01 7.98943E-27
9.53154E-01 7.89508E-27
9.54981E-01 7.80311E-27
9.56773E-01 7.71351E-27
9.58530E-01 7.62625E-27
9.60252E-01 7.54130E-27
9.61940E-01 7.45862E-27
9.63592E-01 7.37817E-27
9.65209E-01 7.29994E-27
9.66790E-01 7.22389E-27
9.68336E-01 7.15000E-27
9.69846E-01 7.07827E-27
9.71321E-01 7.00864E-27
9.72759E-01 6.94109E-27
9.74162E-01 6.87557E-27
9.75528E-01 6.81204E-27
9.76858E-01 6.75049E-27
9.78152E-01 6.69091E-27
9.79410E-01 6.63329E-27
9.80631E-01 6.57763E-27
9.81815E-01 6.52390E-27
9.82963E-01 6.47207E-27
9.84074E-01 6.42212E-27
9.85148E-01 6.37403E-27
9.86185E-01 6.32777E-27
9.87185E-01 6.28334E-27
9.88148E-01 6.24071E-27
9.89074E-01 6.19987E-27
9.89962E-01 6.16079E-27
9.90814E-01 6.12345E-27
9.91627E-01 6.08785E-27
9.92404E-01 6.05398E-27
9.93143E-01 6.02187E-27
9.93844E-01 5.99150E-27
9.94508E-01 5.96287E-27
9.95134E-01 5.93594E-27
9.95722E-01 5.91068E-27
9.96273E-01 5.88706E-27
9.96786E-01 5.86508E-27
9.97261E-01 5.84475E-27
9.97698E-01 5.82606E-27
9.98097E-01 5.80902E-27
9.98459E-01 5.79363E-27
9.98782E-01 5.77986E-27
9.99067E-01 5.76773E-27
9.99315E-01 5.75722E-27
9.99524E-01 5.74838E-27
9.99695E-01 5.74119E-27
9.99829E-01 5.73567E-27
9.99924E-01 5.73178E-27
9.99981E-01 5.72950E-27
1.00000E+00 5.73092E-27
