 #
 # Subroutine ELSEPA. Elastic scattering of electrons and positrons
 #                    by neutral atoms and positive ions
 #
 # Projectile: positron
 # Kinetic energy = 4.50000E+07 eV = 1.65372E+06 a.u.
 #
 # WARNING: High-energy factorization with free-atom DF screening.
 #          Absorption, polarization and exchange corrections are
 #          switched off.
 #          Phase shifts are calculated for the bare nucleus.
 #          Scattering amplitudes are not evaluated.
 #
 # Element: Li,  Z =   3,  atomic weight = 6.94100E+00 g/mol
 #
 # Nuclear model: Fermi distribution
 #                Average radius = 2.04107E-13 cm
 #                Skin thickness = 5.46000E-14 cm
 #
 # Number of electrons =  3
 #
 # Total elastic cross section = 1.07549E-19 cm**2 = 3.84063E-03 a0**2
 # 1st transport cross section = 9.38368E-27 cm**2 = 3.35097E-10 a0**2
 # 2nd transport cross section = 2.74312E-26 cm**2 = 9.79586E-10 a0**2
 #
 #
 # Differential cross section:                       MU=(1-COS(THETA))/2
 #
 #  THETA        MU          DCS          DCS        Sherman      error
 #  (deg)                 (cm**2/sr)   (a0**2/sr)    function
 #----------------------------------------------------------------------
0.00000E+00 8.56415E-12
7.61557E-13 8.55233E-12
1.18994E-12 8.54569E-12
1.71346E-12 8.53759E-12
2.33225E-12 8.52802E-12
3.04617E-12 8.51701E-12
3.85530E-12 8.50454E-12
4.75964E-12 8.49064E-12
5.75917E-12 8.47532E-12
6.85391E-12 8.45857E-12
8.04379E-12 8.44042E-12
9.32893E-12 8.42087E-12
1.07092E-11 8.39994E-12
1.21847E-11 8.37764E-12
1.37554E-11 8.35399E-12
1.54213E-11 8.32899E-12
1.71823E-11 8.30267E-12
1.90386E-11 8.27506E-12
2.09900E-11 8.24615E-12
2.30367E-11 8.21597E-12
2.51785E-11 8.18456E-12
2.74156E-11 8.15190E-12
2.97478E-11 8.11801E-12
3.21752E-11 8.08299E-12
3.46979E-11 8.04677E-12
3.73157E-11 8.00938E-12
4.00286E-11 7.97092E-12
4.28368E-11 7.93135E-12
4.57402E-11 7.89067E-12
4.87388E-11 7.84899E-12
5.18325E-11 7.80628E-12
5.50215E-11 7.76253E-12
5.83057E-11 7.71785E-12
6.16850E-11 7.67223E-12
6.51595E-11 7.62565E-12
6.87293E-11 7.57821E-12
7.23943E-11 7.52992E-12
7.61544E-11 7.48075E-12
1.18991E-10 6.94926E-12
1.71347E-10 6.36498E-12
2.33223E-10 5.75495E-12
3.04617E-10 5.14342E-12
3.85531E-10 4.55033E-12
4.75965E-10 3.99069E-12
5.75917E-10 3.47485E-12
6.85389E-10 3.00821E-12
8.04380E-10 2.60085E-12
9.32891E-10 2.24167E-12
1.07092E-09 1.91877E-12
1.21847E-09 1.64214E-12
1.37554E-09 1.41338E-12
1.54213E-09 1.21112E-12
1.71823E-09 1.03803E-12
1.90386E-09 8.98878E-13
2.09900E-09 7.76537E-13
2.30367E-09 6.70722E-13
2.51785E-09 5.86861E-13
2.74156E-09 5.13062E-13
2.97478E-09 4.48216E-13
3.21752E-09 3.96954E-13
3.46978E-09 3.51637E-13
3.73156E-09 3.11579E-13
4.00286E-09 2.78939E-13
4.28368E-09 2.50280E-13
4.57402E-09 2.24772E-13
4.87388E-09 2.03351E-13
5.18326E-09 1.84584E-13
5.50215E-09 1.67761E-13
5.83057E-09 1.53251E-13
6.16850E-09 1.40510E-13
6.51596E-09 1.29011E-13
6.87293E-09 1.18871E-13
7.23942E-09 1.09915E-13
7.61544E-09 1.01782E-13
1.18991E-08 5.29304E-14
1.71347E-08 3.14952E-14
2.33223E-08 2.02430E-14
3.04617E-08 1.36728E-14
3.85531E-08 9.53829E-15
4.75965E-08 6.83961E-15
5.75917E-08 5.01133E-15
6.85389E-08 3.73811E-15
8.04380E-08 2.83205E-15
9.32891E-08 2.18333E-15
1.07092E-07 1.70551E-15
1.21847E-07 1.34733E-15
1.37554E-07 1.07703E-15
1.54213E-07 8.70184E-16
1.71823E-07 7.09958E-16
1.90386E-07 5.84515E-16
2.09900E-07 4.84908E-16
2.30367E-07 4.05486E-16
2.51785E-07 3.41520E-16
2.74156E-07 2.89553E-16
2.97478E-07 2.47022E-16
3.21752E-07 2.11928E-16
3.46978E-07 1.82802E-16
3.73156E-07 1.58485E-16
4.00286E-07 1.38059E-16
4.28368E-07 1.20796E-16
4.57402E-07 1.06132E-16
4.87388E-07 9.36172E-17
5.18325E-07 8.28855E-17
5.50215E-07 7.36426E-17
5.83057E-07 6.56503E-17
6.16850E-07 5.87052E-17
6.51596E-07 5.26538E-17
6.87293E-07 4.73602E-17
7.23942E-07 4.27133E-17
7.61543E-07 3.86214E-17
1.18991E-06 1.58663E-17
1.71347E-06 7.65807E-18
2.33223E-06 4.13572E-18
3.04617E-06 2.42507E-18
3.85531E-06 1.51429E-18
4.75964E-06 9.93673E-19
5.75916E-06 6.78765E-19
6.85388E-06 4.79291E-19
8.04378E-06 3.47998E-19
9.32888E-06 2.58736E-19
1.07092E-05 1.96344E-19
1.21846E-05 1.51675E-19
1.37553E-05 1.19016E-19
1.54212E-05 9.46926E-20
1.71822E-05 7.62773E-20
1.90385E-05 6.22524E-20
2.09899E-05 5.12009E-20
2.30365E-05 4.24705E-20
2.51783E-05 3.55161E-20
2.74153E-05 2.99337E-20
2.97475E-05 2.54171E-20
3.21749E-05 2.17314E-20
3.46974E-05 1.86966E-20
3.73152E-05 1.61751E-20
4.00281E-05 1.40627E-20
4.28362E-05 1.22807E-20
4.57395E-05 1.07690E-20
4.87380E-05 9.48093E-21
5.18317E-05 8.37949E-21
5.50205E-05 7.43429E-21
5.83045E-05 6.62003E-21
6.16838E-05 5.91544E-21
6.51582E-05 5.30280E-21
6.87277E-05 4.76748E-21
7.23925E-05 4.29763E-21
7.61524E-05 3.88354E-21
9.21439E-05 2.65065E-21
1.09658E-04 1.87223E-21
1.28695E-04 1.35892E-21
1.49255E-04 1.01023E-21
1.71338E-04 7.66658E-22
1.94942E-04 5.92057E-22
2.20070E-04 4.64626E-22
2.46720E-04 3.69582E-22
2.74892E-04 2.97704E-22
3.04586E-04 2.42464E-22
3.35803E-04 1.99447E-22
3.68542E-04 1.65584E-22
4.02802E-04 1.38587E-22
4.38585E-04 1.16891E-22
4.75889E-04 9.92693E-23
5.14715E-04 8.48481E-23
5.55063E-04 7.29554E-23
5.96931E-04 6.30696E-23
6.40321E-04 5.48079E-23
6.85233E-04 4.78513E-23
7.31665E-04 4.19663E-23
7.79618E-04 3.69580E-23
8.29092E-04 3.26740E-23
8.80086E-04 2.89944E-23
9.32601E-04 2.58168E-23
9.86636E-04 2.30639E-23
1.04219E-03 2.06675E-23
1.09927E-03 1.85745E-23
1.15786E-03 1.67400E-23
1.21797E-03 1.51259E-23
1.27961E-03 1.37022E-23
1.34276E-03 1.24416E-23
1.40743E-03 1.13229E-23
1.47362E-03 1.03270E-23
1.54133E-03 9.43808E-24
1.61056E-03 8.64294E-24
1.68131E-03 7.92953E-24
1.75357E-03 7.28838E-24
1.82735E-03 6.71059E-24
1.90265E-03 6.18893E-24
1.97947E-03 5.71700E-24
2.05780E-03 5.28909E-24
2.13765E-03 4.90056E-24
2.21902E-03 4.54694E-24
2.30190E-03 4.22468E-24
2.38630E-03 3.93044E-24
2.47222E-03 3.66133E-24
2.55965E-03 3.41490E-24
2.64859E-03 3.18878E-24
2.73905E-03 2.98110E-24
2.83103E-03 2.79002E-24
2.92452E-03 2.61399E-24
3.01952E-03 2.45164E-24
3.11604E-03 2.30165E-24
3.21407E-03 2.16298E-24
3.31362E-03 2.03457E-24
3.41468E-03 1.91555E-24
3.51725E-03 1.80509E-24
3.62133E-03 1.70247E-24
3.72692E-03 1.60704E-24
3.83403E-03 1.51818E-24
3.94265E-03 1.43539E-24
4.05278E-03 1.35815E-24
4.16442E-03 1.28603E-24
4.27757E-03 1.21864E-24
4.39223E-03 1.15558E-24
4.50840E-03 1.09656E-24
4.62608E-03 1.04125E-24
4.74527E-03 9.89377E-25
4.86597E-03 9.40692E-25
4.98817E-03 8.94957E-25
5.11188E-03 8.51970E-25
5.23711E-03 8.11524E-25
5.36383E-03 7.73450E-25
5.49207E-03 7.37578E-25
5.62181E-03 7.03758E-25
5.75306E-03 6.71853E-25
5.88581E-03 6.41730E-25
6.02007E-03 6.13277E-25
6.15583E-03 5.86379E-25
6.29310E-03 5.60937E-25
6.43187E-03 5.36859E-25
6.57214E-03 5.14055E-25
6.71392E-03 4.92449E-25
6.85720E-03 4.71961E-25
7.00198E-03 4.52528E-25
7.14827E-03 4.34082E-25
7.29605E-03 4.16565E-25
7.44534E-03 3.99921E-25
7.59612E-03 3.84098E-25
7.97965E-03 3.47826E-25
8.37255E-03 3.15728E-25
8.77480E-03 2.87241E-25
9.18641E-03 2.61889E-25
9.60736E-03 2.39266E-25
1.00376E-02 2.19029E-25
1.04773E-02 2.00881E-25
1.09262E-02 1.84570E-25
1.13844E-02 1.69877E-25
1.18520E-02 1.56613E-25
1.23288E-02 1.44615E-25
1.28150E-02 1.33740E-25
1.33104E-02 1.23866E-25
1.38150E-02 1.14883E-25
1.43290E-02 1.06698E-25
1.48521E-02 9.92259E-26
1.53845E-02 9.23944E-26
1.59262E-02 8.61386E-26
1.64770E-02 8.04013E-26
1.70371E-02 7.51320E-26
1.76063E-02 7.02856E-26
1.81848E-02 6.58221E-26
1.87724E-02 6.17058E-26
1.93692E-02 5.79048E-26
1.99751E-02 5.43907E-26
2.05901E-02 5.11379E-26
2.12143E-02 4.81235E-26
2.18476E-02 4.53268E-26
2.24900E-02 4.27294E-26
2.31415E-02 4.03143E-26
2.38021E-02 3.80665E-26
2.44717E-02 3.59724E-26
2.51504E-02 3.40194E-26
2.58382E-02 3.21964E-26
2.65349E-02 3.04932E-26
2.72407E-02 2.89004E-26
2.79555E-02 2.74096E-26
2.86793E-02 2.60130E-26
2.94120E-02 2.47037E-26
3.01537E-02 2.34752E-26
3.09043E-02 2.23215E-26
3.16639E-02 2.12373E-26
3.24324E-02 2.02177E-26
3.32098E-02 1.92581E-26
3.39961E-02 1.83543E-26
3.47912E-02 1.75025E-26
3.55952E-02 1.66991E-26
3.64081E-02 1.59409E-26
3.72297E-02 1.52249E-26
3.80602E-02 1.45483E-26
3.88995E-02 1.39085E-26
3.97476E-02 1.33032E-26
4.06044E-02 1.27302E-26
4.14700E-02 1.21874E-26
4.23443E-02 1.16729E-26
4.32273E-02 1.11850E-26
4.41190E-02 1.07221E-26
4.50194E-02 1.02827E-26
4.59284E-02 9.86530E-27
4.68461E-02 9.46865E-27
4.87074E-02 8.73277E-27
5.06030E-02 8.06624E-27
5.25328E-02 7.46141E-27
5.44967E-02 6.91158E-27
5.64946E-02 6.41087E-27
5.85262E-02 5.95413E-27
6.05914E-02 5.53683E-27
6.26901E-02 5.15498E-27
6.48222E-02 4.80504E-27
6.69873E-02 4.48388E-27
6.91854E-02 4.18871E-27
7.14163E-02 3.91708E-27
7.36799E-02 3.66676E-27
7.59760E-02 3.43581E-27
7.83043E-02 3.22246E-27
8.06647E-02 3.02513E-27
8.30571E-02 2.84241E-27
8.54812E-02 2.67304E-27
8.79369E-02 2.51586E-27
9.04240E-02 2.36984E-27
9.29422E-02 2.23406E-27
9.54915E-02 2.10767E-27
9.80716E-02 1.98991E-27
1.00682E-01 1.88008E-27
1.03323E-01 1.77757E-27
1.05995E-01 1.68179E-27
1.08696E-01 1.59222E-27
1.11427E-01 1.50840E-27
1.14188E-01 1.42989E-27
1.16978E-01 1.35630E-27
1.19797E-01 1.28726E-27
1.22645E-01 1.22245E-27
1.25522E-01 1.16156E-27
1.28428E-01 1.10430E-27
1.31361E-01 1.05044E-27
1.34323E-01 9.99725E-28
1.37313E-01 9.51947E-28
1.40330E-01 9.06905E-28
1.43375E-01 8.64414E-28
1.46447E-01 8.24307E-28
1.49545E-01 7.86426E-28
1.52671E-01 7.50626E-28
1.55823E-01 7.16773E-28
1.59001E-01 6.84743E-28
1.62205E-01 6.54422E-28
1.65435E-01 6.25702E-28
1.68690E-01 5.98484E-28
1.71970E-01 5.72676E-28
1.75276E-01 5.48194E-28
1.78606E-01 5.24956E-28
1.81961E-01 5.02890E-28
1.85340E-01 4.81925E-28
1.88743E-01 4.61999E-28
1.92169E-01 4.43050E-28
1.95619E-01 4.25022E-28
1.99092E-01 4.07864E-28
2.02589E-01 3.91525E-28
2.06107E-01 3.75961E-28
2.09649E-01 3.61129E-28
2.13212E-01 3.46988E-28
2.16797E-01 3.33501E-28
2.20404E-01 3.20632E-28
2.24032E-01 3.08349E-28
2.27680E-01 2.96620E-28
2.31350E-01 2.85416E-28
2.35040E-01 2.74709E-28
2.38751E-01 2.64475E-28
2.42481E-01 2.54689E-28
2.46231E-01 2.45327E-28
2.50000E-01 2.36369E-28
2.53788E-01 2.27794E-28
2.57595E-01 2.19583E-28
2.61421E-01 2.11718E-28
2.65264E-01 2.04183E-28
2.69126E-01 1.96960E-28
2.73005E-01 1.90036E-28
2.76901E-01 1.83395E-28
2.80814E-01 1.77024E-28
2.84744E-01 1.70911E-28
2.88691E-01 1.65044E-28
2.92653E-01 1.59410E-28
2.96632E-01 1.53999E-28
3.00625E-01 1.48802E-28
3.04634E-01 1.43807E-28
3.08658E-01 1.39007E-28
3.12697E-01 1.34391E-28
3.16749E-01 1.29953E-28
3.20816E-01 1.25683E-28
3.24896E-01 1.21576E-28
3.28990E-01 1.17623E-28
3.33097E-01 1.13818E-28
3.37216E-01 1.10154E-28
3.41348E-01 1.06626E-28
3.45492E-01 1.03227E-28
3.49647E-01 9.99521E-29
3.53814E-01 9.67963E-29
3.57992E-01 9.37545E-29
3.62181E-01 9.08218E-29
3.66381E-01 8.79937E-29
3.70590E-01 8.52659E-29
3.74810E-01 8.26344E-29
3.79039E-01 8.00952E-29
3.83277E-01 7.76447E-29
3.87524E-01 7.52791E-29
3.91780E-01 7.29952E-29
3.96044E-01 7.07897E-29
4.00316E-01 6.86596E-29
4.04596E-01 6.66018E-29
4.08882E-01 6.46136E-29
4.13176E-01 6.26922E-29
4.17476E-01 6.08350E-29
4.21783E-01 5.90397E-29
4.26095E-01 5.73038E-29
4.30413E-01 5.56251E-29
4.34737E-01 5.40014E-29
4.39065E-01 5.24307E-29
4.43398E-01 5.09110E-29
4.47736E-01 4.94404E-29
4.52077E-01 4.80171E-29
4.56422E-01 4.66393E-29
4.60770E-01 4.53054E-29
4.65122E-01 4.40138E-29
4.69476E-01 4.27630E-29
4.73832E-01 4.15514E-29
4.78190E-01 4.03777E-29
4.82550E-01 3.92406E-29
4.86912E-01 3.81387E-29
4.91274E-01 3.70708E-29
4.95637E-01 3.60357E-29
5.00000E-01 3.50323E-29
5.04363E-01 3.40594E-29
5.08726E-01 3.31161E-29
5.13088E-01 3.22012E-29
5.17450E-01 3.13138E-29
5.21810E-01 3.04530E-29
5.26168E-01 2.96179E-29
5.30524E-01 2.88076E-29
5.34878E-01 2.80212E-29
5.39230E-01 2.72580E-29
5.43578E-01 2.65172E-29
5.47923E-01 2.57980E-29
5.52264E-01 2.50998E-29
5.56602E-01 2.44218E-29
5.60935E-01 2.37635E-29
5.65263E-01 2.31240E-29
5.69587E-01 2.25029E-29
5.73905E-01 2.18996E-29
5.78217E-01 2.13134E-29
5.82524E-01 2.07438E-29
5.86824E-01 2.01903E-29
5.91118E-01 1.96524E-29
5.95404E-01 1.91296E-29
5.99684E-01 1.86214E-29
6.03956E-01 1.81273E-29
6.08220E-01 1.76469E-29
6.12476E-01 1.71799E-29
6.16723E-01 1.67257E-29
6.20961E-01 1.62840E-29
6.25190E-01 1.58544E-29
6.29410E-01 1.54365E-29
6.33619E-01 1.50299E-29
6.37819E-01 1.46344E-29
6.42008E-01 1.42496E-29
6.46186E-01 1.38751E-29
6.50353E-01 1.35107E-29
6.54508E-01 1.31561E-29
6.58652E-01 1.28109E-29
6.62784E-01 1.24749E-29
6.66903E-01 1.21478E-29
6.71010E-01 1.18294E-29
6.75104E-01 1.15193E-29
6.79184E-01 1.12174E-29
6.83251E-01 1.09234E-29
6.87303E-01 1.06371E-29
6.91342E-01 1.03583E-29
6.95366E-01 1.00867E-29
6.99375E-01 9.82217E-30
7.03368E-01 9.56446E-30
7.07347E-01 9.31340E-30
7.11309E-01 9.06879E-30
7.15256E-01 8.83047E-30
7.19186E-01 8.59823E-30
7.23099E-01 8.37193E-30
7.26995E-01 8.15138E-30
7.30874E-01 7.93644E-30
7.34736E-01 7.72694E-30
7.38579E-01 7.52274E-30
7.42405E-01 7.32368E-30
7.46212E-01 7.12964E-30
7.50000E-01 6.94046E-30
7.53769E-01 6.75603E-30
7.57519E-01 6.57621E-30
7.61249E-01 6.40086E-30
7.64960E-01 6.22989E-30
7.68650E-01 6.06316E-30
7.72320E-01 5.90057E-30
7.75968E-01 5.74200E-30
7.79596E-01 5.58734E-30
7.83203E-01 5.43650E-30
7.86788E-01 5.28936E-30
7.90351E-01 5.14585E-30
7.93893E-01 5.00586E-30
7.97411E-01 4.86929E-30
8.00908E-01 4.73606E-30
8.04381E-01 4.60609E-30
8.07831E-01 4.47928E-30
8.11257E-01 4.35556E-30
8.14660E-01 4.23485E-30
8.18039E-01 4.11708E-30
8.21394E-01 4.00216E-30
8.24724E-01 3.89002E-30
8.28030E-01 3.78060E-30
8.31310E-01 3.67383E-30
8.34565E-01 3.56964E-30
8.37795E-01 3.46796E-30
8.40999E-01 3.36873E-30
8.44177E-01 3.27190E-30
8.47329E-01 3.17740E-30
8.50455E-01 3.08518E-30
8.53553E-01 2.99518E-30
8.56625E-01 2.90734E-30
8.59670E-01 2.82162E-30
8.62687E-01 2.73797E-30
8.65677E-01 2.65633E-30
8.68639E-01 2.57665E-30
8.71572E-01 2.49889E-30
8.74478E-01 2.42301E-30
8.77355E-01 2.34896E-30
8.80203E-01 2.27668E-30
8.83022E-01 2.20616E-30
8.85812E-01 2.13733E-30
8.88573E-01 2.07018E-30
8.91304E-01 2.00465E-30
8.94005E-01 1.94070E-30
8.96677E-01 1.87832E-30
8.99318E-01 1.81744E-30
9.01928E-01 1.75806E-30
9.04508E-01 1.70012E-30
9.07058E-01 1.64360E-30
9.09576E-01 1.58847E-30
9.12063E-01 1.53469E-30
9.14519E-01 1.48224E-30
9.16943E-01 1.43109E-30
9.19335E-01 1.38120E-30
9.21696E-01 1.33257E-30
9.24024E-01 1.28514E-30
9.26320E-01 1.23891E-30
9.28584E-01 1.19384E-30
9.30815E-01 1.14991E-30
9.33013E-01 1.10710E-30
9.35178E-01 1.06538E-30
9.37310E-01 1.02474E-30
9.39409E-01 9.85142E-31
9.41474E-01 9.46578E-31
9.43505E-01 9.09021E-31
9.45503E-01 8.72453E-31
9.47467E-01 8.36857E-31
9.49397E-01 8.02216E-31
9.51293E-01 7.68509E-31
9.53154E-01 7.35710E-31
9.54981E-01 7.03817E-31
9.56773E-01 6.72807E-31
9.58530E-01 6.42658E-31
9.60252E-01 6.13363E-31
9.61940E-01 5.84903E-31
9.63592E-01 5.57264E-31
9.65209E-01 5.30435E-31
9.66790E-01 5.04395E-31
9.68336E-01 4.79141E-31
9.69846E-01 4.54648E-31
9.71321E-01 4.30914E-31
9.72759E-01 4.07921E-31
9.74162E-01 3.85658E-31
9.75528E-01 3.64119E-31
9.76858E-01 3.43287E-31
9.78152E-01 3.23154E-31
9.79410E-01 3.03711E-31
9.80631E-01 2.84945E-31
9.81815E-01 2.66848E-31
9.82963E-01 2.49415E-31
9.84074E-01 2.32633E-31
9.85148E-01 2.16494E-31
9.86185E-01 2.00991E-31
9.87185E-01 1.86115E-31
9.88148E-01 1.71861E-31
9.89074E-01 1.58220E-31
9.89962E-01 1.45187E-31
9.90814E-01 1.32753E-31
9.91627E-01 1.20913E-31
9.92404E-01 1.09664E-31
9.93143E-01 9.89950E-32
9.93844E-01 8.89059E-32
9.94508E-01 7.93894E-32
9.95134E-01 7.04422E-32
9.95722E-01 6.20570E-32
9.96273E-01 5.42318E-32
9.96786E-01 4.69644E-32
9.97261E-01 4.02499E-32
9.97698E-01 3.40800E-32
9.98097E-01 2.84607E-32
9.98459E-01 2.33845E-32
9.98782E-01 1.88472E-32
9.99067E-01 1.48500E-32
9.99315E-01 1.13902E-32
9.99524E-01 8.46392E-33
9.99695E-01 6.07281E-33
9.99829E-01 4.21430E-33
9.99924E-01 2.88747E-33
9.99981E-01 2.09175E-33
1.00000E+00 1.82914E-33
