 #
 # Subroutine ELSEPA. Elastic scattering of electrons and positrons
 #                    by neutral atoms and positive ions
 #
 # Projectile: positron
 # Kinetic energy = 5.00000E+08 eV = 1.83747E+07 a.u.
 #
 # WARNING: High-energy factorization with free-atom DF screening.
 #          Absorption, polarization and exchange corrections are
 #          switched off.
 #          Phase shifts are calculated for the bare nucleus.
 #          Scattering amplitudes are not evaluated.
 #
 # Element: Li,  Z =   3,  atomic weight = 6.94100E+00 g/mol
 #
 # Nuclear model: Fermi distribution
 #                Average radius = 2.04107E-13 cm
 #                Skin thickness = 5.46000E-14 cm
 #
 # Number of electrons =  3
 #
 # Total elastic cross section = 1.06816E-19 cm**2 = 3.81446E-03 a0**2
 # 1st transport cross section = 8.42970E-29 cm**2 = 3.01030E-12 a0**2
 # 2nd transport cross section = 2.52645E-28 cm**2 = 9.02212E-12 a0**2
 #
 #
 # Differential cross section:                       MU=(1-COS(THETA))/2
 #
 #  THETA        MU          DCS          DCS        Sherman      error
 #  (deg)                 (cm**2/sr)   (a0**2/sr)    function
 #----------------------------------------------------------------------
0.00000E+00 1.03581E-09
7.61557E-13 8.80087E-10
1.18994E-12 8.05811E-10
1.71346E-12 7.25803E-10
2.33225E-12 6.44220E-10
3.04617E-12 5.64515E-10
3.85530E-12 4.89328E-10
4.75964E-12 4.20376E-10
5.75917E-12 3.58627E-10
6.85391E-12 3.05618E-10
8.04379E-12 2.59039E-10
9.32893E-12 2.17744E-10
1.07092E-11 1.84435E-10
1.21847E-11 1.55964E-10
1.37554E-11 1.31197E-10
1.54213E-11 1.11964E-10
1.71823E-11 9.53603E-11
1.90386E-11 8.11592E-11
2.09900E-11 7.00683E-11
2.30367E-11 6.04332E-11
2.51785E-11 5.22950E-11
2.74156E-11 4.57597E-11
2.97478E-11 4.00534E-11
3.21752E-11 3.52583E-11
3.46979E-11 3.12842E-11
3.73157E-11 2.77887E-11
4.00286E-11 2.48479E-11
4.28368E-11 2.23361E-11
4.57402E-11 2.01089E-11
4.87388E-11 1.82230E-11
5.18325E-11 1.65702E-11
5.50215E-11 1.50931E-11
5.83057E-11 1.38289E-11
6.16850E-11 1.26985E-11
6.51595E-11 1.16833E-11
6.87293E-11 1.07979E-11
7.23943E-11 9.99688E-12
7.61544E-11 9.27478E-12
1.18991E-10 4.88062E-12
1.71347E-10 2.90112E-12
2.33223E-10 1.85419E-12
3.04617E-10 1.23759E-12
3.85531E-10 8.54558E-13
4.75965E-10 6.06432E-13
5.75917E-10 4.39726E-13
6.85389E-10 3.24919E-13
8.04380E-10 2.44846E-13
9.32891E-10 1.87442E-13
1.07092E-09 1.45611E-13
1.21847E-09 1.14601E-13
1.37554E-09 9.12623E-14
1.54213E-09 7.34824E-14
1.71823E-09 5.97662E-14
1.90386E-09 4.90734E-14
2.09900E-09 4.06432E-14
2.30367E-09 3.39290E-14
2.51785E-09 2.85342E-14
2.74156E-09 2.41620E-14
2.97478E-09 2.05883E-14
3.21752E-09 1.76478E-14
3.46978E-09 1.52100E-14
3.73156E-09 1.31771E-14
4.00286E-09 1.14713E-14
4.28368E-09 1.00314E-14
4.57402E-09 8.80966E-15
4.87388E-09 7.76784E-15
5.18326E-09 6.87476E-15
5.50215E-09 6.10624E-15
5.83057E-09 5.44170E-15
6.16850E-09 4.86495E-15
6.51596E-09 4.36250E-15
6.87293E-09 3.92309E-15
7.23942E-09 3.53753E-15
7.61544E-09 3.19815E-15
1.18991E-08 1.31224E-15
1.71347E-08 6.33283E-16
2.33223E-08 3.41977E-16
3.04617E-08 2.00516E-16
3.85531E-08 1.25205E-16
4.75965E-08 8.21581E-17
5.75917E-08 5.61207E-17
6.85389E-08 3.96279E-17
8.04380E-08 2.87726E-17
9.32891E-08 2.13924E-17
1.07092E-07 1.62339E-17
1.21847E-07 1.25407E-17
1.37554E-07 9.84047E-18
1.54213E-07 7.82943E-18
1.71823E-07 6.30686E-18
1.90386E-07 5.13705E-18
2.09900E-07 4.22632E-18
2.30367E-07 3.50875E-18
2.51785E-07 2.93722E-18
2.74156E-07 2.47745E-18
2.97478E-07 2.10423E-18
3.21752E-07 1.79872E-18
3.46978E-07 1.54669E-18
3.73156E-07 1.33730E-18
4.00286E-07 1.16217E-18
4.28368E-07 1.01479E-18
4.57402E-07 8.90055E-19
4.87388E-07 7.83908E-19
5.18325E-07 6.93122E-19
5.50215E-07 6.15107E-19
5.83057E-07 5.47766E-19
6.16850E-07 4.89393E-19
6.51596E-07 4.38592E-19
6.87293E-07 3.94216E-19
7.23942E-07 3.55312E-19
7.61543E-07 3.21091E-19
1.18991E-06 1.31519E-19
1.71347E-06 6.34249E-20
2.33223E-06 3.42348E-20
3.04617E-06 2.00676E-20
3.85531E-06 1.25279E-20
4.75964E-06 8.21947E-21
5.75916E-06 5.61394E-21
6.85388E-06 3.96376E-21
8.04378E-06 2.87775E-21
9.32888E-06 2.13948E-21
1.07092E-05 1.62349E-21
1.21846E-05 1.25409E-21
1.37553E-05 9.84027E-22
1.54212E-05 7.82901E-22
1.71822E-05 6.30633E-22
1.90385E-05 5.14680E-22
2.09899E-05 4.23303E-22
2.30365E-05 3.51116E-22
2.51783E-05 2.93615E-22
2.74153E-05 2.47460E-22
2.97475E-05 2.10119E-22
3.21749E-05 1.79649E-22
3.46974E-05 1.54561E-22
3.73152E-05 1.33716E-22
4.00281E-05 1.16253E-22
4.28362E-05 1.01521E-22
4.57395E-05 8.90236E-23
4.87380E-05 7.83751E-23
5.18317E-05 6.92694E-23
5.50205E-05 6.14555E-23
5.83045E-05 5.47242E-23
6.16838E-05 4.88997E-23
6.51582E-05 4.38353E-23
6.87277E-05 3.94101E-23
7.23925E-05 3.55261E-23
7.61524E-05 3.19684E-23
9.21439E-05 2.17999E-23
1.09658E-04 1.53830E-23
1.28695E-04 1.11536E-23
1.49255E-04 8.28220E-24
1.71338E-04 6.27759E-24
1.94942E-04 4.84155E-24
2.20070E-04 3.79420E-24
2.46720E-04 3.01359E-24
2.74892E-04 2.42369E-24
3.04586E-04 1.97072E-24
3.35803E-04 1.61827E-24
3.68542E-04 1.34108E-24
4.02802E-04 1.12029E-24
4.38585E-04 9.43037E-25
4.75889E-04 7.99212E-25
5.14715E-04 6.81637E-25
5.55063E-04 5.84784E-25
5.96931E-04 5.04368E-25
6.40321E-04 4.37246E-25
6.85233E-04 3.80796E-25
7.31665E-04 3.33104E-25
7.79618E-04 2.92571E-25
8.29092E-04 2.57948E-25
8.80086E-04 2.28252E-25
9.32601E-04 2.02645E-25
9.86636E-04 1.80494E-25
1.04219E-03 1.61242E-25
1.09927E-03 1.44454E-25
1.15786E-03 1.29764E-25
1.21797E-03 1.16861E-25
1.27961E-03 1.05500E-25
1.34276E-03 9.54590E-26
1.40743E-03 8.65643E-26
1.47362E-03 7.86612E-26
1.54133E-03 7.16205E-26
1.61056E-03 6.53352E-26
1.68131E-03 5.97072E-26
1.75357E-03 5.46599E-26
1.82735E-03 5.01210E-26
1.90265E-03 4.60320E-26
1.97947E-03 4.23411E-26
2.05780E-03 3.90020E-26
2.13765E-03 3.59772E-26
2.21902E-03 3.32307E-26
2.30190E-03 3.07339E-26
2.38630E-03 2.84598E-26
2.47222E-03 2.63852E-26
2.55965E-03 2.44902E-26
2.64859E-03 2.27561E-26
2.73905E-03 2.11676E-26
2.83103E-03 1.97100E-26
2.92452E-03 1.83710E-26
3.01952E-03 1.71395E-26
3.11604E-03 1.60051E-26
3.21407E-03 1.49593E-26
3.31362E-03 1.39938E-26
3.41468E-03 1.31016E-26
3.51725E-03 1.22761E-26
3.62133E-03 1.15116E-26
3.72692E-03 1.08030E-26
3.83403E-03 1.01453E-26
3.94265E-03 9.53455E-27
4.05278E-03 8.96664E-27
4.16442E-03 8.43819E-27
4.27757E-03 7.94606E-27
4.39223E-03 7.48726E-27
4.50840E-03 7.05932E-27
4.62608E-03 6.65971E-27
4.74527E-03 6.28637E-27
4.86597E-03 5.93726E-27
4.98817E-03 5.61055E-27
5.11188E-03 5.30465E-27
5.23711E-03 5.01795E-27
5.36383E-03 4.74914E-27
5.49207E-03 4.49688E-27
5.62181E-03 4.26003E-27
5.75306E-03 4.03752E-27
5.88581E-03 3.82831E-27
6.02007E-03 3.63154E-27
6.15583E-03 3.44631E-27
6.29310E-03 3.27189E-27
6.43187E-03 3.10754E-27
6.57214E-03 2.95259E-27
6.71392E-03 2.80644E-27
6.85720E-03 2.66850E-27
7.00198E-03 2.53826E-27
7.14827E-03 2.41523E-27
7.29605E-03 2.29894E-27
7.44534E-03 2.18899E-27
7.59612E-03 2.08497E-27
7.97965E-03 1.84858E-27
8.37255E-03 1.64205E-27
8.77480E-03 1.46115E-27
9.18641E-03 1.30234E-27
9.60736E-03 1.16259E-27
1.00376E-02 1.03936E-27
1.04773E-02 9.30470E-28
1.09262E-02 8.34077E-28
1.13844E-02 7.48588E-28
1.18520E-02 6.72641E-28
1.23288E-02 6.05059E-28
1.28150E-02 5.44830E-28
1.33104E-02 4.91074E-28
1.38150E-02 4.43029E-28
1.43290E-02 4.00031E-28
1.48521E-02 3.61502E-28
1.53845E-02 3.26937E-28
1.59262E-02 2.95892E-28
1.64770E-02 2.67979E-28
1.70371E-02 2.42857E-28
1.76063E-02 2.20224E-28
1.81848E-02 1.99815E-28
1.87724E-02 1.81396E-28
1.93692E-02 1.64758E-28
1.99751E-02 1.49717E-28
2.05901E-02 1.36110E-28
2.12143E-02 1.23792E-28
2.18476E-02 1.12633E-28
2.24900E-02 1.02517E-28
2.31415E-02 9.33410E-29
2.38021E-02 8.50135E-29
2.44717E-02 7.74516E-29
2.51504E-02 7.05815E-29
2.58382E-02 6.43368E-29
2.65349E-02 5.86580E-29
2.72407E-02 5.34917E-29
2.79555E-02 4.87896E-29
2.86793E-02 4.45084E-29
2.94120E-02 4.06091E-29
3.01537E-02 3.70565E-29
3.09043E-02 3.38186E-29
3.16639E-02 3.08668E-29
3.24324E-02 2.81750E-29
3.32098E-02 2.57198E-29
3.39961E-02 2.34798E-29
3.47912E-02 2.14357E-29
3.55952E-02 1.95701E-29
3.64081E-02 1.78670E-29
3.72297E-02 1.63121E-29
3.80602E-02 1.48923E-29
3.88995E-02 1.35956E-29
3.97476E-02 1.24112E-29
4.06044E-02 1.13294E-29
4.14700E-02 1.03411E-29
4.23443E-02 9.43827E-30
4.32273E-02 8.61341E-30
4.41190E-02 7.85977E-30
4.50194E-02 7.17120E-30
4.59284E-02 6.54207E-30
4.68461E-02 5.96725E-30
4.87074E-02 4.96224E-30
5.06030E-02 4.12343E-30
5.25328E-02 3.42351E-30
5.44967E-02 2.83970E-30
5.64946E-02 2.35296E-30
5.85262E-02 1.94738E-30
6.05914E-02 1.60965E-30
6.26901E-02 1.32863E-30
6.48222E-02 1.09501E-30
6.69873E-02 9.00974E-31
6.91854E-02 7.39995E-31
7.14163E-02 6.06599E-31
7.36799E-02 4.96206E-31
7.59760E-02 4.04981E-31
7.83043E-02 3.29714E-31
8.06647E-02 2.67720E-31
8.30571E-02 2.16754E-31
8.54812E-02 1.74939E-31
8.79369E-02 1.40708E-31
9.04240E-02 1.12753E-31
9.29422E-02 8.99831E-32
9.54915E-02 7.14899E-32
9.80716E-02 5.65172E-32
1.00682E-01 4.44365E-32
1.03323E-01 3.47262E-32
1.05995E-01 2.69539E-32
1.08696E-01 2.07619E-32
1.11427E-01 1.58546E-32
1.14188E-01 1.19883E-32
1.16978E-01 8.96239E-33
1.19797E-01 6.61225E-33
1.22645E-01 4.80306E-33
1.25522E-01 3.42472E-33
1.28428E-01 2.38758E-33
1.31361E-01 1.61887E-33
1.34323E-01 1.05976E-33
1.37313E-01 6.62892E-34
1.40330E-01 3.90321E-34
1.43375E-01 2.11762E-34
1.46447E-01 1.03247E-34
1.49545E-01 4.58796E-35
1.52671E-01 2.49240E-35
1.55823E-01 2.89731E-35
1.59001E-01 4.93037E-35
1.62205E-01 7.93327E-35
1.65435E-01 1.14179E-34
1.68690E-01 1.50311E-34
1.71970E-01 1.85234E-34
1.75276E-01 2.17277E-34
1.78606E-01 2.45392E-34
1.81961E-01 2.69001E-34
1.85340E-01 2.87872E-34
1.88743E-01 3.02026E-34
1.92169E-01 3.11669E-34
1.95619E-01 3.17128E-34
1.99092E-01 3.18786E-34
2.02589E-01 3.17087E-34
2.06107E-01 3.12478E-34
2.09649E-01 3.05396E-34
2.13212E-01 2.96274E-34
2.16797E-01 2.85514E-34
2.20404E-01 2.73483E-34
2.24032E-01 2.60499E-34
2.27680E-01 2.46872E-34
2.31350E-01 2.32855E-34
2.35040E-01 2.18672E-34
2.38751E-01 2.04512E-34
2.42481E-01 1.90529E-34
2.46231E-01 1.76861E-34
2.50000E-01 1.63605E-34
2.53788E-01 1.50850E-34
2.57595E-01 1.38653E-34
2.61421E-01 1.27062E-34
2.65264E-01 1.16105E-34
2.69126E-01 1.05796E-34
2.73005E-01 9.61453E-35
2.76901E-01 8.71418E-35
2.80814E-01 7.87829E-35
2.84744E-01 7.10443E-35
2.88691E-01 6.39084E-35
2.92653E-01 5.73490E-35
2.96632E-01 5.13393E-35
3.00625E-01 4.58497E-35
3.04634E-01 4.08482E-35
3.08658E-01 3.63048E-35
3.12697E-01 3.21909E-35
3.16749E-01 2.84739E-35
3.20816E-01 2.51254E-35
3.24896E-01 2.21142E-35
3.28990E-01 1.94141E-35
3.33097E-01 1.70026E-35
3.37216E-01 1.48490E-35
3.41348E-01 1.29337E-35
3.45492E-01 1.12334E-35
3.49647E-01 9.73001E-36
3.53814E-01 8.39997E-36
3.57992E-01 7.22990E-36
3.62181E-01 6.20183E-36
3.66381E-01 5.30145E-36
3.70590E-01 4.51580E-36
3.74810E-01 3.83134E-36
3.79039E-01 3.23680E-36
3.83277E-01 2.72247E-36
3.87524E-01 2.27876E-36
3.91780E-01 1.89786E-36
3.96044E-01 1.57159E-36
4.00316E-01 1.29290E-36
4.04596E-01 1.05678E-36
4.08882E-01 8.56968E-37
4.13176E-01 6.89238E-37
4.17476E-01 5.48797E-37
4.21783E-01 4.32273E-37
4.26095E-01 3.36106E-37
4.30413E-01 2.57667E-37
4.34737E-01 1.94062E-37
4.39065E-01 1.43032E-37
4.43398E-01 1.02730E-37
4.47736E-01 7.13647E-38
4.52077E-01 4.75600E-38
4.56422E-01 2.99055E-38
4.60770E-01 1.73578E-38
4.65122E-01 8.95249E-39
4.69476E-01 3.89131E-39
4.73832E-01 1.47149E-39
4.78190E-01 1.10576E-39
4.82550E-01 2.31604E-39
4.86912E-01 4.68024E-39
4.91274E-01 7.85744E-39
4.95637E-01 1.15652E-38
5.00000E-01 1.56241E-38
5.04363E-01 1.97566E-38
5.08726E-01 2.39208E-38
5.13088E-01 2.79537E-38
5.17450E-01 3.17619E-38
5.21810E-01 3.52326E-38
5.26168E-01 3.84933E-38
5.30524E-01 4.13024E-38
5.34878E-01 4.38206E-38
5.39230E-01 4.59623E-38
5.43578E-01 4.76991E-38
5.47923E-01 4.90723E-38
5.52264E-01 5.01897E-38
5.56602E-01 5.08648E-38
5.60935E-01 5.13564E-38
5.65263E-01 5.15413E-38
5.69587E-01 5.14662E-38
5.73905E-01 5.11086E-38
5.78217E-01 5.06007E-38
5.82524E-01 4.98795E-38
5.86824E-01 4.90222E-38
5.91118E-01 4.80220E-38
5.95404E-01 4.68857E-38
5.99684E-01 4.56425E-38
6.03956E-01 4.43656E-38
6.08220E-01 4.28932E-38
6.12476E-01 4.14725E-38
6.16723E-01 3.99037E-38
6.20961E-01 3.84615E-38
6.25190E-01 3.69500E-38
6.29410E-01 3.54071E-38
6.33619E-01 3.38608E-38
6.37819E-01 3.23812E-38
6.42008E-01 3.08354E-38
6.46186E-01 2.93813E-38
6.50353E-01 2.79726E-38
6.54508E-01 2.65819E-38
6.58652E-01 2.52270E-38
6.62784E-01 2.38563E-38
6.66903E-01 2.26084E-38
6.71010E-01 2.13703E-38
6.75104E-01 2.01637E-38
6.79184E-01 1.90342E-38
6.83251E-01 1.79294E-38
6.87303E-01 1.68833E-38
6.91342E-01 1.58883E-38
6.95366E-01 1.49348E-38
6.99375E-01 1.40437E-38
7.03368E-01 1.31541E-38
7.07347E-01 1.23422E-38
7.11309E-01 1.15663E-38
7.15256E-01 1.08369E-38
7.19186E-01 1.01315E-38
7.23099E-01 9.47021E-39
7.26995E-01 8.85300E-39
7.30874E-01 8.27110E-39
7.34736E-01 7.71374E-39
7.38579E-01 7.19469E-39
7.42405E-01 6.69452E-39
7.46212E-01 6.22616E-39
7.50000E-01 5.79610E-39
7.53769E-01 5.39692E-39
7.57519E-01 5.02725E-39
7.61249E-01 4.66845E-39
7.64960E-01 4.33134E-39
7.68650E-01 4.03053E-39
7.72320E-01 3.75363E-39
7.75968E-01 3.47797E-39
7.79596E-01 3.22582E-39
7.83203E-01 2.99295E-39
7.86788E-01 2.76258E-39
7.90351E-01 2.56370E-39
7.93893E-01 2.38683E-39
7.97411E-01 2.21006E-39
8.00908E-01 2.03318E-39
8.04381E-01 1.89307E-39
8.07831E-01 1.74333E-39
8.11257E-01 1.60712E-39
8.14660E-01 1.48556E-39
8.18039E-01 1.37541E-39
8.21394E-01 1.26920E-39
8.24724E-01 1.17266E-39
8.28030E-01 1.08111E-39
8.31310E-01 9.98310E-40
8.34565E-01 9.21813E-40
8.37795E-01 8.50054E-40
8.40999E-01 7.81343E-40
8.44177E-01 7.16714E-40
8.47329E-01 6.65928E-40
8.50455E-01 6.09331E-40
8.53553E-01 5.61392E-40
8.56625E-01 5.17677E-40
8.59670E-01 4.75116E-40
8.62687E-01 4.40726E-40
8.65677E-01 4.09068E-40
8.68639E-01 3.72463E-40
8.71572E-01 3.42827E-40
8.74478E-01 3.18432E-40
8.77355E-01 2.97640E-40
8.80203E-01 2.66772E-40
8.83022E-01 2.48403E-40
8.85812E-01 2.24804E-40
8.88573E-01 2.08494E-40
8.91304E-01 1.89979E-40
8.94005E-01 1.74171E-40
8.96677E-01 1.60109E-40
8.99318E-01 1.44177E-40
9.01928E-01 1.35510E-40
9.04508E-01 1.22752E-40
9.07058E-01 1.15090E-40
9.09576E-01 1.05206E-40
9.12063E-01 9.58954E-41
9.14519E-01 8.47061E-41
9.16943E-01 7.93109E-41
9.19335E-01 7.10417E-41
9.21696E-01 6.75113E-41
9.24024E-01 6.13107E-41
9.26320E-01 5.63708E-41
9.28584E-01 5.22550E-41
9.30815E-01 4.66581E-41
9.33013E-01 4.51757E-41
9.35178E-01 4.06926E-41
9.37310E-01 3.65296E-41
9.39409E-01 3.40899E-41
9.41474E-01 3.16566E-41
9.43505E-01 2.82173E-41
9.45503E-01 2.46363E-41
9.47467E-01 2.20618E-41
9.49397E-01 2.15043E-41
9.51293E-01 2.09108E-41
9.53154E-01 1.71343E-41
9.54981E-01 1.65822E-41
9.56773E-01 1.65727E-41
9.58530E-01 1.35592E-41
9.60252E-01 1.28568E-41
9.61940E-01 1.13488E-41
9.63592E-01 9.96433E-42
9.65209E-01 9.94270E-42
9.66790E-01 8.07449E-42
9.68336E-01 8.41285E-42
9.69846E-01 6.92632E-42
9.71321E-01 6.45761E-42
9.72759E-01 5.84994E-42
9.74162E-01 4.43884E-42
9.75528E-01 4.53378E-42
9.76858E-01 3.98542E-42
9.78152E-01 3.76085E-42
9.79410E-01 3.67018E-42
9.80631E-01 3.06208E-42
9.81815E-01 2.42061E-42
9.82963E-01 2.47790E-42
9.84074E-01 2.55941E-42
9.85148E-01 2.28121E-42
9.86185E-01 2.30935E-42
9.87185E-01 1.69247E-42
9.88148E-01 1.68646E-42
9.89074E-01 1.56875E-42
9.89962E-01 1.72148E-42
9.90814E-01 1.28203E-42
9.91627E-01 1.01109E-42
9.92404E-01 1.12906E-42
9.93143E-01 7.12953E-43
9.93844E-01 5.81560E-43
9.94508E-01 4.77839E-43
9.95134E-01 6.64737E-43
9.95722E-01 3.89254E-43
9.96273E-01 1.30225E-43
9.96786E-01 3.30488E-43
9.97261E-01 1.00000E-45
9.97698E-01 1.00000E-45
9.98097E-01 1.00000E-45
9.98459E-01 1.00000E-45
9.98782E-01 1.00000E-45
9.99067E-01 1.00000E-45
9.99315E-01 1.00000E-45
9.99524E-01 1.00000E-45
9.99695E-01 1.00000E-45
9.99829E-01 1.00000E-45
9.99924E-01 1.00000E-45
9.99981E-01 1.00000E-45
1.00000E+00 1.00000E-45
