 #
 # Subroutine ELSEPA. Elastic scattering of electrons and positrons
 #                    by neutral atoms and positive ions
 #
 # Projectile: positron
 # Kinetic energy = 6.00000E+06 eV = 2.20496E+05 a.u.
 #
 # WARNING: High-energy factorization with free-atom DF screening.
 #          Absorption, polarization and exchange corrections are
 #          switched off.
 #          Phase shifts are calculated for the bare nucleus.
 #          Scattering amplitudes are not evaluated.
 #
 # Element: Li,  Z =   3,  atomic weight = 6.94100E+00 g/mol
 #
 # Nuclear model: Fermi distribution
 #                Average radius = 2.04107E-13 cm
 #                Skin thickness = 5.46000E-14 cm
 #
 # Number of electrons =  3
 #
 # Total elastic cross section = 1.08107E-19 cm**2 = 3.86056E-03 a0**2
 # 1st transport cross section = 3.60697E-25 cm**2 = 1.28807E-08 a0**2
 # 2nd transport cross section = 1.04088E-24 cm**2 = 3.71704E-08 a0**2
 #
 #
 # Differential cross section:                       MU=(1-COS(THETA))/2
 #
 #  THETA        MU          DCS          DCS        Sherman      error
 #  (deg)                 (cm**2/sr)   (a0**2/sr)    function
 #----------------------------------------------------------------------
0.00000E+00 1.75286E-13
7.61557E-13 1.75281E-13
1.18994E-12 1.75278E-13
1.71346E-12 1.75275E-13
2.33225E-12 1.75271E-13
3.04617E-12 1.75266E-13
3.85530E-12 1.75261E-13
4.75964E-12 1.75255E-13
5.75917E-12 1.75249E-13
6.85391E-12 1.75241E-13
8.04379E-12 1.75234E-13
9.32893E-12 1.75225E-13
1.07092E-11 1.75217E-13
1.21847E-11 1.75207E-13
1.37554E-11 1.75197E-13
1.54213E-11 1.75186E-13
1.71823E-11 1.75175E-13
1.90386E-11 1.75163E-13
2.09900E-11 1.75150E-13
2.30367E-11 1.75137E-13
2.51785E-11 1.75123E-13
2.74156E-11 1.75109E-13
2.97478E-11 1.75093E-13
3.21752E-11 1.75078E-13
3.46979E-11 1.75061E-13
3.73157E-11 1.75045E-13
4.00286E-11 1.75027E-13
4.28368E-11 1.75009E-13
4.57402E-11 1.74990E-13
4.87388E-11 1.74971E-13
5.18325E-11 1.74951E-13
5.50215E-11 1.74930E-13
5.83057E-11 1.74909E-13
6.16850E-11 1.74887E-13
6.51595E-11 1.74865E-13
6.87293E-11 1.74842E-13
7.23943E-11 1.74818E-13
7.61544E-11 1.74794E-13
1.18991E-10 1.74518E-13
1.71347E-10 1.74182E-13
2.33223E-10 1.73786E-13
3.04617E-10 1.73330E-13
3.85531E-10 1.72816E-13
4.75965E-10 1.72243E-13
5.75917E-10 1.71613E-13
6.85389E-10 1.70926E-13
8.04380E-10 1.70184E-13
9.32891E-10 1.69387E-13
1.07092E-09 1.68536E-13
1.21847E-09 1.67633E-13
1.37554E-09 1.66679E-13
1.54213E-09 1.65674E-13
1.71823E-09 1.64620E-13
1.90386E-09 1.63519E-13
2.09900E-09 1.62372E-13
2.30367E-09 1.61180E-13
2.51785E-09 1.59946E-13
2.74156E-09 1.58668E-13
2.97478E-09 1.57352E-13
3.21752E-09 1.55995E-13
3.46978E-09 1.54603E-13
3.73156E-09 1.53175E-13
4.00286E-09 1.51713E-13
4.28368E-09 1.50219E-13
4.57402E-09 1.48694E-13
4.87388E-09 1.47141E-13
5.18326E-09 1.45559E-13
5.50215E-09 1.43955E-13
5.83057E-09 1.42323E-13
6.16850E-09 1.40673E-13
6.51596E-09 1.39000E-13
6.87293E-09 1.37310E-13
7.23942E-09 1.35601E-13
7.61544E-09 1.33878E-13
1.18991E-08 1.16132E-13
1.71347E-08 9.84309E-14
2.33223E-08 8.18528E-14
3.04617E-08 6.70740E-14
3.85531E-08 5.45014E-14
4.75965E-08 4.40693E-14
5.75917E-08 3.51797E-14
6.85389E-08 2.84212E-14
8.04380E-08 2.27560E-14
9.32891E-08 1.84817E-14
1.07092E-07 1.49919E-14
1.21847E-07 1.23025E-14
1.37554E-07 1.01561E-14
1.54213E-07 8.45260E-15
1.71823E-07 7.11024E-15
1.90386E-07 6.01168E-15
2.09900E-07 5.14867E-15
2.30367E-07 4.42268E-15
2.51785E-07 3.84933E-15
2.74156E-07 3.35895E-15
2.97478E-07 2.96195E-15
3.21752E-07 2.62167E-15
3.46978E-07 2.33707E-15
3.73156E-07 2.09317E-15
4.00286E-07 1.88401E-15
4.28368E-07 1.70387E-15
4.57402E-07 1.54655E-15
4.87388E-07 1.40988E-15
5.18325E-07 1.28902E-15
5.50215E-07 1.18284E-15
5.83057E-07 1.08822E-15
6.16850E-07 1.00399E-15
6.51596E-07 9.28542E-16
6.87293E-07 8.60614E-16
7.23942E-07 7.99414E-16
7.61543E-07 7.43915E-16
1.18991E-06 3.92622E-16
1.71347E-06 2.28063E-16
2.33223E-06 1.40681E-16
3.04617E-06 9.07351E-17
3.85531E-06 6.05785E-17
4.75964E-06 4.17896E-17
5.75916E-06 2.96129E-17
6.85388E-06 2.14932E-17
8.04378E-06 1.59302E-17
9.32888E-06 1.20331E-17
1.07092E-05 9.23894E-18
1.21846E-05 7.20338E-18
1.37553E-05 5.69321E-18
1.54212E-05 4.55589E-18
1.71822E-05 3.68674E-18
1.90385E-05 3.01974E-18
2.09899E-05 2.49112E-18
2.30365E-05 2.07153E-18
2.51783E-05 1.73589E-18
2.74153E-05 1.46554E-18
2.97475E-05 1.24615E-18
3.21749E-05 1.06667E-18
3.46974E-05 9.18576E-19
3.73152E-05 7.95317E-19
4.00281E-05 6.91927E-19
4.28362E-05 6.04594E-19
4.57395E-05 5.30453E-19
4.87380E-05 4.67224E-19
5.18317E-05 4.13098E-19
5.50205E-05 3.66584E-19
5.83045E-05 3.26488E-19
6.16838E-05 2.91780E-19
6.51582E-05 2.61593E-19
6.87277E-05 2.35211E-19
7.23925E-05 2.12053E-19
7.61524E-05 1.91649E-19
9.21439E-05 1.30862E-19
1.09658E-04 9.24552E-20
1.28695E-04 6.71228E-20
1.49255E-04 4.99088E-20
1.71338E-04 3.78807E-20
1.94942E-04 2.92577E-20
2.20070E-04 2.29625E-20
2.46720E-04 1.82672E-20
2.74892E-04 1.47156E-20
3.04586E-04 1.19859E-20
3.35803E-04 9.86005E-21
3.68542E-04 8.18639E-21
4.02802E-04 6.85206E-21
4.38585E-04 5.77964E-21
4.75889E-04 4.90856E-21
5.14715E-04 4.19566E-21
5.55063E-04 3.60772E-21
5.96931E-04 3.11898E-21
6.40321E-04 2.71051E-21
6.85233E-04 2.36657E-21
7.31665E-04 2.07559E-21
7.79618E-04 1.82795E-21
8.29092E-04 1.61612E-21
8.80086E-04 1.43417E-21
9.32601E-04 1.27703E-21
9.86636E-04 1.14090E-21
1.04219E-03 1.02239E-21
1.09927E-03 9.18881E-22
1.15786E-03 8.28156E-22
1.21797E-03 7.48329E-22
1.27961E-03 6.77915E-22
1.34276E-03 6.15569E-22
1.40743E-03 5.60238E-22
1.47362E-03 5.10981E-22
1.54133E-03 4.67014E-22
1.61056E-03 4.27684E-22
1.68131E-03 3.92396E-22
1.75357E-03 3.60681E-22
1.82735E-03 3.32100E-22
1.90265E-03 3.06295E-22
1.97947E-03 2.82950E-22
2.05780E-03 2.61781E-22
2.13765E-03 2.42560E-22
2.21902E-03 2.25066E-22
2.30190E-03 2.09123E-22
2.38630E-03 1.94566E-22
2.47222E-03 1.81252E-22
2.55965E-03 1.69059E-22
2.64859E-03 1.57871E-22
2.73905E-03 1.47596E-22
2.83103E-03 1.38141E-22
2.92452E-03 1.29431E-22
3.01952E-03 1.21397E-22
3.11604E-03 1.13976E-22
3.21407E-03 1.07114E-22
3.31362E-03 1.00759E-22
3.41468E-03 9.48690E-23
3.51725E-03 8.94028E-23
3.62133E-03 8.43241E-23
3.72692E-03 7.96013E-23
3.83403E-03 7.52037E-23
3.94265E-03 7.11060E-23
4.05278E-03 6.72831E-23
4.16442E-03 6.37135E-23
4.27757E-03 6.03776E-23
4.39223E-03 5.72567E-23
4.50840E-03 5.43351E-23
4.62608E-03 5.15970E-23
4.74527E-03 4.90293E-23
4.86597E-03 4.66192E-23
4.98817E-03 4.43551E-23
5.11188E-03 4.22270E-23
5.23711E-03 4.02246E-23
5.36383E-03 3.83396E-23
5.49207E-03 3.65635E-23
5.62181E-03 3.48890E-23
5.75306E-03 3.33093E-23
5.88581E-03 3.18177E-23
6.02007E-03 3.04088E-23
6.15583E-03 2.90768E-23
6.29310E-03 2.78170E-23
6.43187E-03 2.66246E-23
6.57214E-03 2.54952E-23
6.71392E-03 2.44252E-23
6.85720E-03 2.34105E-23
7.00198E-03 2.24481E-23
7.14827E-03 2.15344E-23
7.29605E-03 2.06668E-23
7.44534E-03 1.98424E-23
7.59612E-03 1.90586E-23
7.97965E-03 1.72618E-23
8.37255E-03 1.56716E-23
8.77480E-03 1.42601E-23
9.18641E-03 1.30039E-23
9.60736E-03 1.18828E-23
1.00376E-02 1.08798E-23
1.04773E-02 9.98035E-24
1.09262E-02 9.17179E-24
1.13844E-02 8.44336E-24
1.18520E-02 7.78572E-24
1.23288E-02 7.19079E-24
1.28150E-02 6.65152E-24
1.33104E-02 6.16178E-24
1.38150E-02 5.71622E-24
1.43290E-02 5.31015E-24
1.48521E-02 4.93943E-24
1.53845E-02 4.60045E-24
1.59262E-02 4.29000E-24
1.64770E-02 4.00525E-24
1.70371E-02 3.74369E-24
1.76063E-02 3.50309E-24
1.81848E-02 3.28146E-24
1.87724E-02 3.07706E-24
1.93692E-02 2.88828E-24
1.99751E-02 2.71373E-24
2.05901E-02 2.55214E-24
2.12143E-02 2.40236E-24
2.18476E-02 2.26339E-24
2.24900E-02 2.13430E-24
2.31415E-02 2.01425E-24
2.38021E-02 1.90250E-24
2.44717E-02 1.79838E-24
2.51504E-02 1.70125E-24
2.58382E-02 1.61058E-24
2.65349E-02 1.52585E-24
2.72407E-02 1.44661E-24
2.79555E-02 1.37242E-24
2.86793E-02 1.30291E-24
2.94120E-02 1.23774E-24
3.01537E-02 1.17657E-24
3.09043E-02 1.11912E-24
3.16639E-02 1.06513E-24
3.24324E-02 1.01434E-24
3.32098E-02 9.66527E-25
3.39961E-02 9.21489E-25
3.47912E-02 8.79034E-25
3.55952E-02 8.38986E-25
3.64081E-02 8.01184E-25
3.72297E-02 7.65477E-25
3.80602E-02 7.31729E-25
3.88995E-02 6.99813E-25
3.97476E-02 6.69609E-25
4.06044E-02 6.41011E-25
4.14700E-02 6.13915E-25
4.23443E-02 5.88230E-25
4.32273E-02 5.63867E-25
4.41190E-02 5.40746E-25
4.50194E-02 5.18792E-25
4.59284E-02 4.97935E-25
4.68461E-02 4.78110E-25
4.87074E-02 4.41318E-25
5.06030E-02 4.07980E-25
5.25328E-02 3.77713E-25
5.44967E-02 3.50186E-25
5.64946E-02 3.25106E-25
5.85262E-02 3.02218E-25
6.05914E-02 2.81296E-25
6.26901E-02 2.62142E-25
6.48222E-02 2.44579E-25
6.69873E-02 2.28453E-25
6.91854E-02 2.13624E-25
7.14163E-02 1.99969E-25
7.36799E-02 1.87380E-25
7.59760E-02 1.75758E-25
7.83043E-02 1.65015E-25
8.06647E-02 1.55074E-25
8.30571E-02 1.45864E-25
8.54812E-02 1.37320E-25
8.79369E-02 1.29388E-25
9.04240E-02 1.22014E-25
9.29422E-02 1.15153E-25
9.54915E-02 1.08762E-25
9.80716E-02 1.02803E-25
1.00682E-01 9.72431E-26
1.03323E-01 9.20493E-26
1.05995E-01 8.71935E-26
1.08696E-01 8.26499E-26
1.11427E-01 7.83947E-26
1.14188E-01 7.44063E-26
1.16978E-01 7.06650E-26
1.19797E-01 6.71527E-26
1.22645E-01 6.38529E-26
1.25522E-01 6.07504E-26
1.28428E-01 5.78313E-26
1.31361E-01 5.50828E-26
1.34323E-01 5.24931E-26
1.37313E-01 5.00514E-26
1.40330E-01 4.77477E-26
1.43375E-01 4.55728E-26
1.46447E-01 4.35181E-26
1.49545E-01 4.15760E-26
1.52671E-01 3.97390E-26
1.55823E-01 3.80005E-26
1.59001E-01 3.63542E-26
1.62205E-01 3.47943E-26
1.65435E-01 3.33156E-26
1.68690E-01 3.19129E-26
1.71970E-01 3.05818E-26
1.75276E-01 2.93179E-26
1.78606E-01 2.81171E-26
1.81961E-01 2.69758E-26
1.85340E-01 2.58905E-26
1.88743E-01 2.48579E-26
1.92169E-01 2.38751E-26
1.95619E-01 2.29392E-26
1.99092E-01 2.20475E-26
2.02589E-01 2.11976E-26
2.06107E-01 2.03872E-26
2.09649E-01 1.96141E-26
2.13212E-01 1.88763E-26
2.16797E-01 1.81718E-26
2.20404E-01 1.74990E-26
2.24032E-01 1.68561E-26
2.27680E-01 1.62416E-26
2.31350E-01 1.56540E-26
2.35040E-01 1.50918E-26
2.38751E-01 1.45539E-26
2.42481E-01 1.40389E-26
2.46231E-01 1.35458E-26
2.50000E-01 1.30733E-26
2.53788E-01 1.26206E-26
2.57595E-01 1.21866E-26
2.61421E-01 1.17704E-26
2.65264E-01 1.13711E-26
2.69126E-01 1.09880E-26
2.73005E-01 1.06203E-26
2.76901E-01 1.02672E-26
2.80814E-01 9.92812E-27
2.84744E-01 9.60231E-27
2.88691E-01 9.28920E-27
2.92653E-01 8.98820E-27
2.96632E-01 8.69876E-27
3.00625E-01 8.42035E-27
3.04634E-01 8.15249E-27
3.08658E-01 7.89471E-27
3.12697E-01 7.64655E-27
3.16749E-01 7.40760E-27
3.20816E-01 7.17744E-27
3.24896E-01 6.95572E-27
3.28990E-01 6.74205E-27
3.33097E-01 6.53609E-27
3.37216E-01 6.33753E-27
3.41348E-01 6.14604E-27
3.45492E-01 5.96133E-27
3.49647E-01 5.78312E-27
3.53814E-01 5.61114E-27
3.57992E-01 5.44514E-27
3.62181E-01 5.28486E-27
3.66381E-01 5.13008E-27
3.70590E-01 4.98058E-27
3.74810E-01 4.83615E-27
3.79039E-01 4.69658E-27
3.83277E-01 4.56168E-27
3.87524E-01 4.43127E-27
3.91780E-01 4.30518E-27
3.96044E-01 4.18323E-27
4.00316E-01 4.06527E-27
4.04596E-01 3.95114E-27
4.08882E-01 3.84070E-27
4.13176E-01 3.73381E-27
4.17476E-01 3.63034E-27
4.21783E-01 3.53015E-27
4.26095E-01 3.43313E-27
4.30413E-01 3.33915E-27
4.34737E-01 3.24812E-27
4.39065E-01 3.15991E-27
4.43398E-01 3.07442E-27
4.47736E-01 2.99157E-27
4.52077E-01 2.91125E-27
4.56422E-01 2.83337E-27
4.60770E-01 2.75785E-27
4.65122E-01 2.68460E-27
4.69476E-01 2.61354E-27
4.73832E-01 2.54460E-27
4.78190E-01 2.47770E-27
4.82550E-01 2.41278E-27
4.86912E-01 2.34976E-27
4.91274E-01 2.28858E-27
4.95637E-01 2.22917E-27
5.00000E-01 2.17149E-27
5.04363E-01 2.11546E-27
5.08726E-01 2.06103E-27
5.13088E-01 2.00816E-27
5.17450E-01 1.95679E-27
5.21810E-01 1.90686E-27
5.26168E-01 1.85834E-27
5.30524E-01 1.81117E-27
5.34878E-01 1.76532E-27
5.39230E-01 1.72073E-27
5.43578E-01 1.67738E-27
5.47923E-01 1.63521E-27
5.52264E-01 1.59420E-27
5.56602E-01 1.55430E-27
5.60935E-01 1.51548E-27
5.65263E-01 1.47771E-27
5.69587E-01 1.44096E-27
5.73905E-01 1.40518E-27
5.78217E-01 1.37036E-27
5.82524E-01 1.33646E-27
5.86824E-01 1.30346E-27
5.91118E-01 1.27132E-27
5.95404E-01 1.24002E-27
5.99684E-01 1.20954E-27
6.03956E-01 1.17985E-27
6.08220E-01 1.15093E-27
6.12476E-01 1.12276E-27
6.16723E-01 1.09530E-27
6.20961E-01 1.06855E-27
6.25190E-01 1.04248E-27
6.29410E-01 1.01707E-27
6.33619E-01 9.92303E-28
6.37819E-01 9.68159E-28
6.42008E-01 9.44619E-28
6.46186E-01 9.21668E-28
6.50353E-01 8.99289E-28
6.54508E-01 8.77464E-28
6.58652E-01 8.56179E-28
6.62784E-01 8.35417E-28
6.66903E-01 8.15165E-28
6.71010E-01 7.95409E-28
6.75104E-01 7.76133E-28
6.79184E-01 7.57326E-28
6.83251E-01 7.38975E-28
6.87303E-01 7.21066E-28
6.91342E-01 7.03588E-28
6.95366E-01 6.86529E-28
6.99375E-01 6.69878E-28
7.03368E-01 6.53623E-28
7.07347E-01 6.37755E-28
7.11309E-01 6.22262E-28
7.15256E-01 6.07135E-28
7.19186E-01 5.92364E-28
7.23099E-01 5.77940E-28
7.26995E-01 5.63854E-28
7.30874E-01 5.50096E-28
7.34736E-01 5.36659E-28
7.38579E-01 5.23533E-28
7.42405E-01 5.10712E-28
7.46212E-01 4.98186E-28
7.50000E-01 4.85950E-28
7.53769E-01 4.73994E-28
7.57519E-01 4.62313E-28
7.61249E-01 4.50899E-28
7.64960E-01 4.39745E-28
7.68650E-01 4.28845E-28
7.72320E-01 4.18193E-28
7.75968E-01 4.07783E-28
7.79596E-01 3.97607E-28
7.83203E-01 3.87662E-28
7.86788E-01 3.77941E-28
7.90351E-01 3.68438E-28
7.93893E-01 3.59150E-28
7.97411E-01 3.50069E-28
8.00908E-01 3.41191E-28
8.04381E-01 3.32512E-28
8.07831E-01 3.24027E-28
8.11257E-01 3.15730E-28
8.14660E-01 3.07619E-28
8.18039E-01 2.99688E-28
8.21394E-01 2.91932E-28
8.24724E-01 2.84349E-28
8.28030E-01 2.76934E-28
8.31310E-01 2.69683E-28
8.34565E-01 2.62593E-28
8.37795E-01 2.55659E-28
8.40999E-01 2.48879E-28
8.44177E-01 2.42248E-28
8.47329E-01 2.35764E-28
8.50455E-01 2.29423E-28
8.53553E-01 2.23222E-28
8.56625E-01 2.17158E-28
8.59670E-01 2.11227E-28
8.62687E-01 2.05428E-28
8.65677E-01 1.99757E-28
8.68639E-01 1.94211E-28
8.71572E-01 1.88788E-28
8.74478E-01 1.83485E-28
8.77355E-01 1.78299E-28
8.80203E-01 1.73228E-28
8.83022E-01 1.68271E-28
8.85812E-01 1.63423E-28
8.88573E-01 1.58683E-28
8.91304E-01 1.54049E-28
8.94005E-01 1.49519E-28
8.96677E-01 1.45091E-28
8.99318E-01 1.40761E-28
9.01928E-01 1.36530E-28
9.04508E-01 1.32394E-28
9.07058E-01 1.28351E-28
9.09576E-01 1.24401E-28
9.12063E-01 1.20540E-28
9.14519E-01 1.16768E-28
9.16943E-01 1.13083E-28
9.19335E-01 1.09482E-28
9.21696E-01 1.05965E-28
9.24024E-01 1.02530E-28
9.26320E-01 9.91750E-29
9.28584E-01 9.58991E-29
9.30815E-01 9.27004E-29
9.33013E-01 8.95782E-29
9.35178E-01 8.65304E-29
9.37310E-01 8.35560E-29
9.39409E-01 8.06539E-29
9.41474E-01 7.78226E-29
9.43505E-01 7.50609E-29
9.45503E-01 7.23676E-29
9.47467E-01 6.97418E-29
9.49397E-01 6.71825E-29
9.51293E-01 6.46883E-29
9.53154E-01 6.22579E-29
9.54981E-01 5.98910E-29
9.56773E-01 5.75861E-29
9.58530E-01 5.53423E-29
9.60252E-01 5.31588E-29
9.61940E-01 5.10347E-29
9.63592E-01 4.89690E-29
9.65209E-01 4.69612E-29
9.66790E-01 4.50099E-29
9.68336E-01 4.31150E-29
9.69846E-01 4.12749E-29
9.71321E-01 3.94896E-29
9.72759E-01 3.77580E-29
9.74162E-01 3.60794E-29
9.75528E-01 3.44534E-29
9.76858E-01 3.28791E-29
9.78152E-01 3.13559E-29
9.79410E-01 2.98833E-29
9.80631E-01 2.84604E-29
9.81815E-01 2.70871E-29
9.82963E-01 2.57626E-29
9.84074E-01 2.44865E-29
9.85148E-01 2.32580E-29
9.86185E-01 2.20770E-29
9.87185E-01 2.09427E-29
9.88148E-01 1.98549E-29
9.89074E-01 1.88131E-29
9.89962E-01 1.78168E-29
9.90814E-01 1.68657E-29
9.91627E-01 1.59594E-29
9.92404E-01 1.50976E-29
9.93143E-01 1.42798E-29
9.93844E-01 1.35061E-29
9.94508E-01 1.27757E-29
9.95134E-01 1.20886E-29
9.95722E-01 1.14444E-29
9.96273E-01 1.08429E-29
9.96786E-01 1.02841E-29
9.97261E-01 9.76735E-30
9.97698E-01 9.29249E-30
9.98097E-01 8.86000E-30
9.98459E-01 8.46880E-30
9.98782E-01 8.11927E-30
9.99067E-01 7.81123E-30
9.99315E-01 7.54451E-30
9.99524E-01 7.31878E-30
9.99695E-01 7.13448E-30
9.99829E-01 6.99113E-30
9.99924E-01 6.88896E-30
9.99981E-01 6.82751E-30
1.00000E+00 6.80813E-30
