 #
 # Subroutine ELSEPA. Elastic scattering of electrons and positrons
 #                    by neutral atoms and positive ions
 #
 # Projectile: positron
 # Kinetic energy = 9.00000E+06 eV = 3.30744E+05 a.u.
 #
 # WARNING: High-energy factorization with free-atom DF screening.
 #          Absorption, polarization and exchange corrections are
 #          switched off.
 #          Phase shifts are calculated for the bare nucleus.
 #          Scattering amplitudes are not evaluated.
 #
 # Element: Li,  Z =   3,  atomic weight = 6.94100E+00 g/mol
 #
 # Nuclear model: Fermi distribution
 #                Average radius = 2.04107E-13 cm
 #                Skin thickness = 5.46000E-14 cm
 #
 # Number of electrons =  3
 #
 # Total elastic cross section = 1.07677E-19 cm**2 = 3.84521E-03 a0**2
 # 1st transport cross section = 1.77729E-25 cm**2 = 6.34682E-09 a0**2
 # 2nd transport cross section = 5.14129E-25 cm**2 = 1.83599E-08 a0**2
 #
 #
 # Differential cross section:                       MU=(1-COS(THETA))/2
 #
 #  THETA        MU          DCS          DCS        Sherman      error
 #  (deg)                 (cm**2/sr)   (a0**2/sr)    function
 #----------------------------------------------------------------------
0.00000E+00 3.74028E-13
7.61557E-13 3.74005E-13
1.18994E-12 3.73993E-13
1.71346E-12 3.73977E-13
2.33225E-12 3.73959E-13
3.04617E-12 3.73938E-13
3.85530E-12 3.73914E-13
4.75964E-12 3.73887E-13
5.75917E-12 3.73858E-13
6.85391E-12 3.73825E-13
8.04379E-12 3.73790E-13
9.32893E-12 3.73752E-13
1.07092E-11 3.73711E-13
1.21847E-11 3.73668E-13
1.37554E-11 3.73621E-13
1.54213E-11 3.73572E-13
1.71823E-11 3.73520E-13
1.90386E-11 3.73466E-13
2.09900E-11 3.73408E-13
2.30367E-11 3.73348E-13
2.51785E-11 3.73285E-13
2.74156E-11 3.73219E-13
2.97478E-11 3.73150E-13
3.21752E-11 3.73078E-13
3.46979E-11 3.73004E-13
3.73157E-11 3.72927E-13
4.00286E-11 3.72847E-13
4.28368E-11 3.72765E-13
4.57402E-11 3.72679E-13
4.87388E-11 3.72591E-13
5.18325E-11 3.72500E-13
5.50215E-11 3.72407E-13
5.83057E-11 3.72310E-13
6.16850E-11 3.72211E-13
6.51595E-11 3.72109E-13
6.87293E-11 3.72004E-13
7.23943E-11 3.71897E-13
7.61544E-11 3.71787E-13
1.18991E-10 3.70534E-13
1.71347E-10 3.69010E-13
2.33223E-10 3.67221E-13
3.04617E-10 3.65170E-13
3.85531E-10 3.62862E-13
4.75965E-10 3.60307E-13
5.75917E-10 3.57510E-13
6.85389E-10 3.54478E-13
8.04380E-10 3.51222E-13
9.32891E-10 3.47748E-13
1.07092E-09 3.44065E-13
1.21847E-09 3.40186E-13
1.37554E-09 3.36119E-13
1.54213E-09 3.31873E-13
1.71823E-09 3.27463E-13
1.90386E-09 3.22896E-13
2.09900E-09 3.18181E-13
2.30367E-09 3.13337E-13
2.51785E-09 3.08369E-13
2.74156E-09 3.03286E-13
2.97478E-09 2.98109E-13
3.21752E-09 2.92841E-13
3.46978E-09 2.87491E-13
3.73156E-09 2.82081E-13
4.00286E-09 2.76612E-13
4.28368E-09 2.71092E-13
4.57402E-09 2.65544E-13
4.87388E-09 2.59967E-13
5.18326E-09 2.54369E-13
5.50215E-09 2.48772E-13
5.83057E-09 2.43175E-13
6.16850E-09 2.37582E-13
6.51596E-09 2.32016E-13
6.87293E-09 2.26474E-13
7.23942E-09 2.20959E-13
7.61544E-09 2.15494E-13
1.18991E-08 1.64246E-13
1.71347E-08 1.21649E-13
2.33223E-08 8.91315E-14
3.04617E-08 6.46427E-14
3.85531E-08 4.67611E-14
4.75965E-08 3.45727E-14
5.75917E-08 2.57805E-14
6.85389E-08 1.94723E-14
8.04380E-08 1.51169E-14
9.32891E-08 1.18978E-14
1.07092E-07 9.50710E-15
1.21847E-07 7.76448E-15
1.37554E-07 6.41978E-15
1.54213E-07 5.37390E-15
1.71823E-07 4.56493E-15
1.90386E-07 3.91411E-15
2.09900E-07 3.38636E-15
2.30367E-07 2.95709E-15
2.51785E-07 2.59972E-15
2.74156E-07 2.30019E-15
2.97478E-07 2.04702E-15
3.21752E-07 1.83063E-15
3.46978E-07 1.64471E-15
3.73156E-07 1.48312E-15
4.00286E-07 1.34166E-15
4.28368E-07 1.21751E-15
4.57402E-07 1.10850E-15
4.87388E-07 1.01218E-15
5.18325E-07 9.26808E-16
5.50215E-07 8.50103E-16
5.83057E-07 7.81407E-16
6.16850E-07 7.19765E-16
6.51596E-07 6.63671E-16
6.87293E-07 6.12970E-16
7.23942E-07 5.67095E-16
7.61543E-07 5.25090E-16
1.18991E-06 2.60275E-16
1.71347E-06 1.41067E-16
2.33223E-06 8.18513E-17
3.04617E-06 5.02942E-17
3.85531E-06 3.23895E-17
4.75964E-06 2.16867E-17
5.75916E-06 1.50238E-17
6.85388E-06 1.07142E-17
8.04378E-06 7.83331E-18
9.32888E-06 5.85396E-18
1.07092E-05 4.45921E-18
1.21846E-05 3.45433E-18
1.37553E-05 2.71639E-18
1.54212E-05 2.16485E-18
1.71822E-05 1.74605E-18
1.90385E-05 1.42634E-18
2.09899E-05 1.17410E-18
2.30365E-05 9.74554E-19
2.51783E-05 8.15341E-19
2.74153E-05 6.87372E-19
2.97475E-05 5.83785E-19
3.21749E-05 4.99221E-19
3.46974E-05 4.29566E-19
3.73152E-05 3.71679E-19
4.00281E-05 3.23178E-19
4.28362E-05 2.82257E-19
4.57395E-05 2.47541E-19
4.87380E-05 2.17958E-19
5.18317E-05 1.92658E-19
5.50205E-05 1.70942E-19
5.83045E-05 1.52231E-19
6.16838E-05 1.36037E-19
6.51582E-05 1.21954E-19
6.87277E-05 1.09648E-19
7.23925E-05 9.88468E-20
7.61524E-05 8.93299E-20
9.21439E-05 6.09831E-20
1.09658E-04 4.30791E-20
1.28695E-04 3.12718E-20
1.49255E-04 2.32498E-20
1.71338E-04 1.76452E-20
1.94942E-04 1.36276E-20
2.20070E-04 1.06950E-20
2.46720E-04 8.50767E-21
2.74892E-04 6.85331E-21
3.04586E-04 5.58187E-21
3.35803E-04 4.59173E-21
3.68542E-04 3.81225E-21
4.02802E-04 3.19080E-21
4.38585E-04 2.69136E-21
4.75889E-04 2.28569E-21
5.14715E-04 1.95370E-21
5.55063E-04 1.67990E-21
5.96931E-04 1.45231E-21
6.40321E-04 1.26210E-21
6.85233E-04 1.10194E-21
7.31665E-04 9.66439E-22
7.79618E-04 8.51126E-22
8.29092E-04 7.52489E-22
8.80086E-04 6.67765E-22
9.32601E-04 5.94598E-22
9.86636E-04 5.31209E-22
1.04219E-03 4.76029E-22
1.09927E-03 4.27832E-22
1.15786E-03 3.85588E-22
1.21797E-03 3.48419E-22
1.27961E-03 3.15634E-22
1.34276E-03 2.86604E-22
1.40743E-03 2.60842E-22
1.47362E-03 2.37907E-22
1.54133E-03 2.17436E-22
1.61056E-03 1.99124E-22
1.68131E-03 1.82693E-22
1.75357E-03 1.67927E-22
1.82735E-03 1.54620E-22
1.90265E-03 1.42605E-22
1.97947E-03 1.31735E-22
2.05780E-03 1.21879E-22
2.13765E-03 1.12930E-22
2.21902E-03 1.04785E-22
2.30190E-03 9.73621E-23
2.38630E-03 9.05845E-23
2.47222E-03 8.43856E-23
2.55965E-03 7.87087E-23
2.64859E-03 7.35000E-23
2.73905E-03 6.87158E-23
2.83103E-03 6.43138E-23
2.92452E-03 6.02586E-23
3.01952E-03 5.65183E-23
3.11604E-03 5.30629E-23
3.21407E-03 4.98681E-23
3.31362E-03 4.69095E-23
3.41468E-03 4.41672E-23
3.51725E-03 4.16223E-23
3.62133E-03 3.92577E-23
3.72692E-03 3.70590E-23
3.83403E-03 3.50115E-23
3.94265E-03 3.31037E-23
4.05278E-03 3.13239E-23
4.16442E-03 2.96620E-23
4.27757E-03 2.81089E-23
4.39223E-03 2.66559E-23
4.50840E-03 2.52957E-23
4.62608E-03 2.40209E-23
4.74527E-03 2.28255E-23
4.86597E-03 2.17034E-23
4.98817E-03 2.06493E-23
5.11188E-03 1.96585E-23
5.23711E-03 1.87263E-23
5.36383E-03 1.78487E-23
5.49207E-03 1.70218E-23
5.62181E-03 1.62422E-23
5.75306E-03 1.55068E-23
5.88581E-03 1.48124E-23
6.02007E-03 1.41564E-23
6.15583E-03 1.35363E-23
6.29310E-03 1.29498E-23
6.43187E-03 1.23947E-23
6.57214E-03 1.18689E-23
6.71392E-03 1.13707E-23
6.85720E-03 1.08983E-23
7.00198E-03 1.04503E-23
7.14827E-03 1.00249E-23
7.29605E-03 9.62097E-24
7.44534E-03 9.23716E-24
7.59612E-03 8.87225E-24
7.97965E-03 8.03575E-24
8.37255E-03 7.29543E-24
8.77480E-03 6.63834E-24
9.18641E-03 6.05350E-24
9.60736E-03 5.53159E-24
1.00376E-02 5.06466E-24
1.04773E-02 4.64591E-24
1.09262E-02 4.26949E-24
1.13844E-02 3.93038E-24
1.18520E-02 3.62422E-24
1.23288E-02 3.34726E-24
1.28150E-02 3.09621E-24
1.33104E-02 2.86822E-24
1.38150E-02 2.66080E-24
1.43290E-02 2.47176E-24
1.48521E-02 2.29919E-24
1.53845E-02 2.14138E-24
1.59262E-02 1.99686E-24
1.64770E-02 1.86430E-24
1.70371E-02 1.74254E-24
1.76063E-02 1.63054E-24
1.81848E-02 1.52737E-24
1.87724E-02 1.43221E-24
1.93692E-02 1.34434E-24
1.99751E-02 1.26308E-24
2.05901E-02 1.18786E-24
2.12143E-02 1.11814E-24
2.18476E-02 1.05345E-24
2.24900E-02 9.93354E-25
2.31415E-02 9.37473E-25
2.38021E-02 8.85455E-25
2.44717E-02 8.36985E-25
2.51504E-02 7.91776E-25
2.58382E-02 7.49570E-25
2.65349E-02 7.10130E-25
2.72407E-02 6.73241E-25
2.79555E-02 6.38709E-25
2.86793E-02 6.06356E-25
2.94120E-02 5.76017E-25
3.01537E-02 5.47546E-25
3.09043E-02 5.20806E-25
3.16639E-02 4.95673E-25
3.24324E-02 4.72032E-25
3.32098E-02 4.49777E-25
3.39961E-02 4.28814E-25
3.47912E-02 4.09053E-25
3.55952E-02 3.90413E-25
3.64081E-02 3.72817E-25
3.72297E-02 3.56198E-25
3.80602E-02 3.40490E-25
3.88995E-02 3.25635E-25
3.97476E-02 3.11577E-25
4.06044E-02 2.98266E-25
4.14700E-02 2.85655E-25
4.23443E-02 2.73700E-25
4.32273E-02 2.62361E-25
4.41190E-02 2.51599E-25
4.50194E-02 2.41382E-25
4.59284E-02 2.31674E-25
4.68461E-02 2.22448E-25
4.87074E-02 2.05324E-25
5.06030E-02 1.89808E-25
5.25328E-02 1.75722E-25
5.44967E-02 1.62911E-25
5.64946E-02 1.51240E-25
5.85262E-02 1.40588E-25
6.05914E-02 1.30852E-25
6.26901E-02 1.21938E-25
6.48222E-02 1.13765E-25
6.69873E-02 1.06260E-25
6.91854E-02 9.93598E-26
7.14163E-02 9.30060E-26
7.36799E-02 8.71479E-26
7.59760E-02 8.17399E-26
7.83043E-02 7.67413E-26
8.06647E-02 7.21156E-26
8.30571E-02 6.78300E-26
8.54812E-02 6.38550E-26
8.79369E-02 6.01641E-26
9.04240E-02 5.67333E-26
9.29422E-02 5.35410E-26
9.54915E-02 5.05677E-26
9.80716E-02 4.77956E-26
1.00682E-01 4.52088E-26
1.03323E-01 4.27925E-26
1.05995E-01 4.05336E-26
1.08696E-01 3.84198E-26
1.11427E-01 3.64403E-26
1.14188E-01 3.45850E-26
1.16978E-01 3.28447E-26
1.19797E-01 3.12109E-26
1.22645E-01 2.96760E-26
1.25522E-01 2.82329E-26
1.28428E-01 2.68751E-26
1.31361E-01 2.55967E-26
1.34323E-01 2.43922E-26
1.37313E-01 2.32566E-26
1.40330E-01 2.21851E-26
1.43375E-01 2.11736E-26
1.46447E-01 2.02181E-26
1.49545E-01 1.93149E-26
1.52671E-01 1.84606E-26
1.55823E-01 1.76522E-26
1.59001E-01 1.68866E-26
1.62205E-01 1.61613E-26
1.65435E-01 1.54736E-26
1.68690E-01 1.48214E-26
1.71970E-01 1.42025E-26
1.75276E-01 1.36148E-26
1.78606E-01 1.30565E-26
1.81961E-01 1.25259E-26
1.85340E-01 1.20213E-26
1.88743E-01 1.15413E-26
1.92169E-01 1.10844E-26
1.95619E-01 1.06493E-26
1.99092E-01 1.02348E-26
2.02589E-01 9.83972E-27
2.06107E-01 9.46301E-27
2.09649E-01 9.10365E-27
2.13212E-01 8.76071E-27
2.16797E-01 8.43330E-27
2.20404E-01 8.12058E-27
2.24032E-01 7.82179E-27
2.27680E-01 7.53619E-27
2.31350E-01 7.26310E-27
2.35040E-01 7.00186E-27
2.38751E-01 6.75188E-27
2.42481E-01 6.51258E-27
2.46231E-01 6.28342E-27
2.50000E-01 6.06390E-27
2.53788E-01 5.85354E-27
2.57595E-01 5.65188E-27
2.61421E-01 5.45852E-27
2.65264E-01 5.27303E-27
2.69126E-01 5.09506E-27
2.73005E-01 4.92423E-27
2.76901E-01 4.76021E-27
2.80814E-01 4.60268E-27
2.84744E-01 4.45133E-27
2.88691E-01 4.30590E-27
2.92653E-01 4.16609E-27
2.96632E-01 4.03165E-27
3.00625E-01 3.90235E-27
3.04634E-01 3.77795E-27
3.08658E-01 3.65824E-27
3.12697E-01 3.54300E-27
3.16749E-01 3.43203E-27
3.20816E-01 3.32516E-27
3.24896E-01 3.22221E-27
3.28990E-01 3.12300E-27
3.33097E-01 3.02737E-27
3.37216E-01 2.93519E-27
3.41348E-01 2.84629E-27
3.45492E-01 2.76054E-27
3.49647E-01 2.67781E-27
3.53814E-01 2.59798E-27
3.57992E-01 2.52092E-27
3.62181E-01 2.44653E-27
3.66381E-01 2.37469E-27
3.70590E-01 2.30530E-27
3.74810E-01 2.23827E-27
3.79039E-01 2.17350E-27
3.83277E-01 2.11090E-27
3.87524E-01 2.05039E-27
3.91780E-01 1.99188E-27
3.96044E-01 1.93529E-27
4.00316E-01 1.88056E-27
4.04596E-01 1.82761E-27
4.08882E-01 1.77638E-27
4.13176E-01 1.72679E-27
4.17476E-01 1.67879E-27
4.21783E-01 1.63232E-27
4.26095E-01 1.58732E-27
4.30413E-01 1.54373E-27
4.34737E-01 1.50150E-27
4.39065E-01 1.46060E-27
4.43398E-01 1.42095E-27
4.47736E-01 1.38253E-27
4.52077E-01 1.34528E-27
4.56422E-01 1.30917E-27
4.60770E-01 1.27416E-27
4.65122E-01 1.24020E-27
4.69476E-01 1.20725E-27
4.73832E-01 1.17529E-27
4.78190E-01 1.14428E-27
4.82550E-01 1.11419E-27
4.86912E-01 1.08498E-27
4.91274E-01 1.05662E-27
4.95637E-01 1.02909E-27
5.00000E-01 1.00235E-27
5.04363E-01 9.76389E-28
5.08726E-01 9.51169E-28
5.13088E-01 9.26670E-28
5.17450E-01 9.02866E-28
5.21810E-01 8.79734E-28
5.26168E-01 8.57254E-28
5.30524E-01 8.35403E-28
5.34878E-01 8.14162E-28
5.39230E-01 7.93510E-28
5.43578E-01 7.73428E-28
5.47923E-01 7.53898E-28
5.52264E-01 7.34904E-28
5.56602E-01 7.16426E-28
5.60935E-01 6.98451E-28
5.65263E-01 6.80961E-28
5.69587E-01 6.63941E-28
5.73905E-01 6.47378E-28
5.78217E-01 6.31256E-28
5.82524E-01 6.15562E-28
5.86824E-01 6.00284E-28
5.91118E-01 5.85408E-28
5.95404E-01 5.70922E-28
5.99684E-01 5.56815E-28
6.03956E-01 5.43075E-28
6.08220E-01 5.29690E-28
6.12476E-01 5.16652E-28
6.16723E-01 5.03948E-28
6.20961E-01 4.91570E-28
6.25190E-01 4.79508E-28
6.29410E-01 4.67753E-28
6.33619E-01 4.56295E-28
6.37819E-01 4.45126E-28
6.42008E-01 4.34238E-28
6.46186E-01 4.23622E-28
6.50353E-01 4.13272E-28
6.54508E-01 4.03179E-28
6.58652E-01 3.93336E-28
6.62784E-01 3.83735E-28
6.66903E-01 3.74371E-28
6.71010E-01 3.65237E-28
6.75104E-01 3.56325E-28
6.79184E-01 3.47631E-28
6.83251E-01 3.39148E-28
6.87303E-01 3.30870E-28
6.91342E-01 3.22791E-28
6.95366E-01 3.14907E-28
6.99375E-01 3.07212E-28
7.03368E-01 2.99700E-28
7.07347E-01 2.92368E-28
7.11309E-01 2.85210E-28
7.15256E-01 2.78221E-28
7.19186E-01 2.71397E-28
7.23099E-01 2.64733E-28
7.26995E-01 2.58226E-28
7.30874E-01 2.51872E-28
7.34736E-01 2.45666E-28
7.38579E-01 2.39604E-28
7.42405E-01 2.33683E-28
7.46212E-01 2.27899E-28
7.50000E-01 2.22248E-28
7.53769E-01 2.16729E-28
7.57519E-01 2.11335E-28
7.61249E-01 2.06066E-28
7.64960E-01 2.00917E-28
7.68650E-01 1.95886E-28
7.72320E-01 1.90969E-28
7.75968E-01 1.86165E-28
7.79596E-01 1.81469E-28
7.83203E-01 1.76879E-28
7.86788E-01 1.72394E-28
7.90351E-01 1.68009E-28
7.93893E-01 1.63724E-28
7.97411E-01 1.59534E-28
8.00908E-01 1.55439E-28
8.04381E-01 1.51435E-28
8.07831E-01 1.47521E-28
8.11257E-01 1.43695E-28
8.14660E-01 1.39954E-28
8.18039E-01 1.36296E-28
8.21394E-01 1.32720E-28
8.24724E-01 1.29224E-28
8.28030E-01 1.25805E-28
8.31310E-01 1.22462E-28
8.34565E-01 1.19193E-28
8.37795E-01 1.15997E-28
8.40999E-01 1.12871E-28
8.44177E-01 1.09815E-28
8.47329E-01 1.06827E-28
8.50455E-01 1.03904E-28
8.53553E-01 1.01047E-28
8.56625E-01 9.82525E-29
8.59670E-01 9.55199E-29
8.62687E-01 9.28481E-29
8.65677E-01 9.02354E-29
8.68639E-01 8.76804E-29
8.71572E-01 8.51822E-29
8.74478E-01 8.27396E-29
8.77355E-01 8.03512E-29
8.80203E-01 7.80157E-29
8.83022E-01 7.57325E-29
8.85812E-01 7.35001E-29
8.88573E-01 7.13177E-29
8.91304E-01 6.91840E-29
8.94005E-01 6.70982E-29
8.96677E-01 6.50592E-29
8.99318E-01 6.30662E-29
9.01928E-01 6.11183E-29
9.04508E-01 5.92144E-29
9.07058E-01 5.73538E-29
9.09576E-01 5.55355E-29
9.12063E-01 5.37588E-29
9.14519E-01 5.20227E-29
9.16943E-01 5.03268E-29
9.19335E-01 4.86700E-29
9.21696E-01 4.70518E-29
9.24024E-01 4.54713E-29
9.26320E-01 4.39278E-29
9.28584E-01 4.24207E-29
9.30815E-01 4.09493E-29
9.33013E-01 3.95130E-29
9.35178E-01 3.81111E-29
9.37310E-01 3.67431E-29
9.39409E-01 3.54083E-29
9.41474E-01 3.41062E-29
9.43505E-01 3.28361E-29
9.45503E-01 3.15976E-29
9.47467E-01 3.03902E-29
9.49397E-01 2.92133E-29
9.51293E-01 2.80665E-29
9.53154E-01 2.69491E-29
9.54981E-01 2.58609E-29
9.56773E-01 2.48014E-29
9.58530E-01 2.37698E-29
9.60252E-01 2.27661E-29
9.61940E-01 2.17897E-29
9.63592E-01 2.08403E-29
9.65209E-01 1.99174E-29
9.66790E-01 1.90206E-29
9.68336E-01 1.81497E-29
9.69846E-01 1.73041E-29
9.71321E-01 1.64836E-29
9.72759E-01 1.56879E-29
9.74162E-01 1.49165E-29
9.75528E-01 1.41694E-29
9.76858E-01 1.34460E-29
9.78152E-01 1.27461E-29
9.79410E-01 1.20695E-29
9.80631E-01 1.14158E-29
9.81815E-01 1.07849E-29
9.82963E-01 1.01764E-29
9.84074E-01 9.59014E-30
9.85148E-01 9.02582E-30
9.86185E-01 8.48329E-30
9.87185E-01 7.96224E-30
9.88148E-01 7.46256E-30
9.89074E-01 6.98401E-30
9.89962E-01 6.52642E-30
9.90814E-01 6.08955E-30
9.91627E-01 5.67330E-30
9.92404E-01 5.27749E-30
9.93143E-01 4.90190E-30
9.93844E-01 4.54652E-30
9.94508E-01 4.21109E-30
9.95134E-01 3.89555E-30
9.95722E-01 3.59969E-30
9.96273E-01 3.32347E-30
9.96786E-01 3.06682E-30
9.97261E-01 2.82953E-30
9.97698E-01 2.61146E-30
9.98097E-01 2.41283E-30
9.98459E-01 2.23322E-30
9.98782E-01 2.07270E-30
9.99067E-01 1.93125E-30
9.99315E-01 1.80877E-30
9.99524E-01 1.70514E-30
9.99695E-01 1.62049E-30
9.99829E-01 1.55467E-30
9.99924E-01 1.50773E-30
9.99981E-01 1.47952E-30
1.00000E+00 1.47048E-30
