 #
 # Subroutine ELSEPA. Elastic scattering of electrons and positrons
 #                    by neutral atoms and positive ions
 #
 # Projectile: positron
 # Kinetic energy = 7.00000E+07 eV = 2.57245E+06 a.u.
 #
 # WARNING: High-energy factorization with free-atom DF screening.
 #          Absorption, polarization and exchange corrections are
 #          switched off.
 #          Phase shifts are calculated for the bare nucleus.
 #          Scattering amplitudes are not evaluated.
 #
 # Element: Li,  Z =   3,  atomic weight = 6.94100E+00 g/mol
 #
 # Nuclear model: Fermi distribution
 #                Average radius = 2.04107E-13 cm
 #                Skin thickness = 5.46000E-14 cm
 #
 # Number of electrons =  3
 #
 # Total elastic cross section = 1.07417E-19 cm**2 = 3.83595E-03 a0**2
 # 1st transport cross section = 4.05729E-27 cm**2 = 1.44888E-10 a0**2
 # 2nd transport cross section = 1.19224E-26 cm**2 = 4.25755E-10 a0**2
 #
 #
 # Differential cross section:                       MU=(1-COS(THETA))/2
 #
 #  THETA        MU          DCS          DCS        Sherman      error
 #  (deg)                 (cm**2/sr)   (a0**2/sr)    function
 #----------------------------------------------------------------------
0.00000E+00 2.05573E-11
7.61557E-13 2.04892E-11
1.18994E-12 2.04511E-11
1.71346E-12 2.04047E-11
2.33225E-12 2.03499E-11
3.04617E-12 2.02870E-11
3.85530E-12 2.02160E-11
4.75964E-12 2.01371E-11
5.75917E-12 2.00503E-11
6.85391E-12 1.99557E-11
8.04379E-12 1.98537E-11
9.32893E-12 1.97442E-11
1.07092E-11 1.96275E-11
1.21847E-11 1.95037E-11
1.37554E-11 1.93731E-11
1.54213E-11 1.92357E-11
1.71823E-11 1.90920E-11
1.90386E-11 1.89419E-11
2.09900E-11 1.87859E-11
2.30367E-11 1.86239E-11
2.51785E-11 1.84565E-11
2.74156E-11 1.82836E-11
2.97478E-11 1.81057E-11
3.21752E-11 1.79228E-11
3.46979E-11 1.77355E-11
3.73157E-11 1.75436E-11
4.00286E-11 1.73477E-11
4.28368E-11 1.71478E-11
4.57402E-11 1.69445E-11
4.87388E-11 1.67376E-11
5.18325E-11 1.65278E-11
5.50215E-11 1.63149E-11
5.83057E-11 1.60997E-11
6.16850E-11 1.58818E-11
6.51595E-11 1.56621E-11
6.87293E-11 1.54402E-11
7.23943E-11 1.52170E-11
7.61544E-11 1.49921E-11
1.18991E-10 1.27152E-11
1.71347E-10 1.05150E-11
2.33223E-10 8.52475E-12
3.04617E-10 6.81222E-12
3.85531E-10 5.42654E-12
4.75965E-10 4.25473E-12
5.75917E-10 3.37044E-12
6.85389E-10 2.64756E-12
8.04380E-10 2.11363E-12
9.32891E-10 1.68244E-12
1.07092E-09 1.36397E-12
1.21847E-09 1.10689E-12
1.37554E-09 9.14414E-13
1.54213E-09 7.58032E-13
1.71823E-09 6.38432E-13
1.90386E-09 5.40262E-13
2.09900E-09 4.63322E-13
2.30367E-09 3.99411E-13
2.51785E-09 3.48059E-13
2.74156E-09 3.04872E-13
2.97478E-09 2.69347E-13
3.21752E-09 2.39108E-13
3.46978E-09 2.13698E-13
3.73156E-09 1.91822E-13
4.00286E-09 1.73094E-13
4.28368E-09 1.56799E-13
4.57402E-09 1.42624E-13
4.87388E-09 1.30172E-13
5.18326E-09 1.19193E-13
5.50215E-09 1.09464E-13
5.83057E-09 1.00789E-13
6.16850E-09 9.30417E-14
6.51596E-09 8.60683E-14
6.87293E-09 7.97976E-14
7.23942E-09 7.40789E-14
7.61544E-09 6.88925E-14
1.18991E-08 3.61296E-14
1.71347E-08 2.06907E-14
2.33223E-08 1.26049E-14
3.04617E-08 8.03047E-15
3.85531E-08 5.31649E-15
4.75965E-08 3.63636E-15
5.75917E-08 2.56116E-15
6.85389E-08 1.84969E-15
8.04380E-08 1.36557E-15
9.32891E-08 1.02778E-15
1.07092E-07 7.87389E-16
1.21847E-07 6.12736E-16
1.37554E-07 4.83569E-16
1.54213E-07 3.86428E-16
1.71823E-07 3.12386E-16
1.90386E-07 2.55168E-16
2.09900E-07 2.10414E-16
2.30367E-07 1.75008E-16
2.51785E-07 1.46724E-16
2.74156E-07 1.23913E-16
2.97478E-07 1.05356E-16
3.21752E-07 9.01367E-17
3.46978E-07 7.75636E-17
3.73156E-07 6.71046E-17
4.00286E-07 5.83470E-17
4.28368E-07 5.09702E-17
4.57402E-07 4.47172E-17
4.87388E-07 3.93915E-17
5.18325E-07 3.48354E-17
5.50215E-07 3.09192E-17
5.83057E-07 2.75380E-17
6.16850E-07 2.46066E-17
6.51596E-07 2.20549E-17
6.87293E-07 1.98256E-17
7.23942E-07 1.78709E-17
7.61543E-07 1.61512E-17
1.18991E-06 6.61982E-18
1.71347E-06 3.19353E-18
2.33223E-06 1.72413E-18
3.04617E-06 1.01078E-18
3.85531E-06 6.31079E-19
4.75964E-06 4.14073E-19
5.75916E-06 2.82828E-19
6.85388E-06 1.99700E-19
8.04378E-06 1.44990E-19
9.32888E-06 1.07796E-19
1.07092E-05 8.17998E-20
1.21846E-05 6.31885E-20
1.37553E-05 4.95818E-20
1.54212E-05 3.94481E-20
1.71822E-05 3.17761E-20
1.90385E-05 2.59334E-20
2.09899E-05 2.13293E-20
2.30365E-05 1.76922E-20
2.51783E-05 1.47949E-20
2.74153E-05 1.24694E-20
2.97475E-05 1.05878E-20
3.21749E-05 9.05249E-21
3.46974E-05 7.78828E-21
3.73152E-05 6.73791E-21
4.00281E-05 5.85798E-21
4.28362E-05 5.11564E-21
4.57395E-05 4.48589E-21
4.87380E-05 3.94933E-21
5.18317E-05 3.49051E-21
5.50205E-05 3.09677E-21
5.83045E-05 2.75758E-21
6.16838E-05 2.46408E-21
6.51582E-05 2.20889E-21
6.87277E-05 1.98590E-21
7.23925E-05 1.79018E-21
7.61524E-05 1.61761E-21
9.21439E-05 1.10406E-21
1.09658E-04 7.79818E-22
1.28695E-04 5.66006E-22
1.49255E-04 4.20768E-22
1.71338E-04 3.19312E-22
1.94942E-04 2.46587E-22
2.20070E-04 1.93510E-22
2.46720E-04 1.53923E-22
2.74892E-04 1.23985E-22
3.04586E-04 1.00977E-22
3.35803E-04 8.30603E-23
3.68542E-04 6.89566E-23
4.02802E-04 5.77124E-23
4.38585E-04 4.86765E-23
4.75889E-04 4.13373E-23
5.14715E-04 3.53313E-23
5.55063E-04 3.03783E-23
5.96931E-04 2.62612E-23
6.40321E-04 2.28205E-23
6.85233E-04 1.99234E-23
7.31665E-04 1.74726E-23
7.79618E-04 1.53870E-23
8.29092E-04 1.36030E-23
8.80086E-04 1.20707E-23
9.32601E-04 1.07474E-23
9.86636E-04 9.60109E-24
1.04219E-03 8.60321E-24
1.09927E-03 7.73167E-24
1.15786E-03 6.96780E-24
1.21797E-03 6.29571E-24
1.27961E-03 5.70291E-24
1.34276E-03 5.17804E-24
1.40743E-03 4.71225E-24
1.47362E-03 4.29763E-24
1.54133E-03 3.92753E-24
1.61056E-03 3.59649E-24
1.68131E-03 3.29948E-24
1.75357E-03 3.03256E-24
1.82735E-03 2.79202E-24
1.90265E-03 2.57485E-24
1.97947E-03 2.37840E-24
2.05780E-03 2.20027E-24
2.13765E-03 2.03854E-24
2.21902E-03 1.89134E-24
2.30190E-03 1.75720E-24
2.38630E-03 1.63473E-24
2.47222E-03 1.52272E-24
2.55965E-03 1.42015E-24
2.64859E-03 1.32604E-24
2.73905E-03 1.23961E-24
2.83103E-03 1.16009E-24
2.92452E-03 1.08683E-24
3.01952E-03 1.01927E-24
3.11604E-03 9.56853E-25
3.21407E-03 8.99149E-25
3.31362E-03 8.45714E-25
3.41468E-03 7.96189E-25
3.51725E-03 7.50231E-25
3.62133E-03 7.07532E-25
3.72692E-03 6.67829E-25
3.83403E-03 6.30861E-25
3.94265E-03 5.96416E-25
4.05278E-03 5.64283E-25
4.16442E-03 5.34282E-25
4.27757E-03 5.06246E-25
4.39223E-03 4.80018E-25
4.50840E-03 4.55468E-25
4.62608E-03 4.32460E-25
4.74527E-03 4.10886E-25
4.86597E-03 3.90638E-25
4.98817E-03 3.71617E-25
5.11188E-03 3.53740E-25
5.23711E-03 3.36920E-25
5.36383E-03 3.21087E-25
5.49207E-03 3.06170E-25
5.62181E-03 2.92108E-25
5.75306E-03 2.78842E-25
5.88581E-03 2.66318E-25
6.02007E-03 2.54488E-25
6.15583E-03 2.43305E-25
6.29310E-03 2.32729E-25
6.43187E-03 2.22719E-25
6.57214E-03 2.13240E-25
6.71392E-03 2.04259E-25
6.85720E-03 1.95744E-25
7.00198E-03 1.87667E-25
7.14827E-03 1.80000E-25
7.29605E-03 1.72720E-25
7.44534E-03 1.65804E-25
7.59612E-03 1.59228E-25
7.97965E-03 1.44157E-25
8.37255E-03 1.30822E-25
8.77480E-03 1.18988E-25
9.18641E-03 1.08458E-25
9.60736E-03 9.90624E-26
1.00376E-02 9.06590E-26
1.04773E-02 8.31243E-26
1.09262E-02 7.63531E-26
1.13844E-02 7.02544E-26
1.18520E-02 6.47498E-26
1.23288E-02 5.97713E-26
1.28150E-02 5.52598E-26
1.33104E-02 5.11639E-26
1.38150E-02 4.74384E-26
1.43290E-02 4.40441E-26
1.48521E-02 4.09462E-26
1.53845E-02 3.81143E-26
1.59262E-02 3.55215E-26
1.64770E-02 3.31440E-26
1.70371E-02 3.09609E-26
1.76063E-02 2.89533E-26
1.81848E-02 2.71047E-26
1.87724E-02 2.54002E-26
1.93692E-02 2.38266E-26
1.99751E-02 2.23721E-26
2.05901E-02 2.10260E-26
2.12143E-02 1.97787E-26
2.18476E-02 1.86218E-26
2.24900E-02 1.75476E-26
2.31415E-02 1.65490E-26
2.38021E-02 1.56197E-26
2.44717E-02 1.47542E-26
2.51504E-02 1.39472E-26
2.58382E-02 1.31941E-26
2.65349E-02 1.24906E-26
2.72407E-02 1.18329E-26
2.79555E-02 1.12174E-26
2.86793E-02 1.06410E-26
2.94120E-02 1.01007E-26
3.01537E-02 9.59387E-27
3.09043E-02 9.11806E-27
3.16639E-02 8.67102E-27
3.24324E-02 8.25070E-27
3.32098E-02 7.85522E-27
3.39961E-02 7.48284E-27
3.47912E-02 7.13197E-27
3.55952E-02 6.80115E-27
3.64081E-02 6.48901E-27
3.72297E-02 6.19432E-27
3.80602E-02 5.91593E-27
3.88995E-02 5.65277E-27
3.97476E-02 5.40386E-27
4.06044E-02 5.16828E-27
4.14700E-02 4.94520E-27
4.23443E-02 4.73383E-27
4.32273E-02 4.53345E-27
4.41190E-02 4.34338E-27
4.50194E-02 4.16299E-27
4.59284E-02 3.99171E-27
4.68461E-02 3.82899E-27
4.87074E-02 3.52726E-27
5.06030E-02 3.25413E-27
5.25328E-02 3.00645E-27
5.44967E-02 2.78145E-27
5.64946E-02 2.57668E-27
5.85262E-02 2.39003E-27
6.05914E-02 2.21962E-27
6.26901E-02 2.06380E-27
6.48222E-02 1.92111E-27
6.69873E-02 1.79025E-27
6.91854E-02 1.67008E-27
7.14163E-02 1.55957E-27
7.36799E-02 1.45782E-27
7.59760E-02 1.36401E-27
7.83043E-02 1.27743E-27
8.06647E-02 1.19741E-27
8.30571E-02 1.12339E-27
8.54812E-02 1.05483E-27
8.79369E-02 9.91260E-28
9.04240E-02 9.32262E-28
9.29422E-02 8.77448E-28
9.54915E-02 8.26473E-28
9.80716E-02 7.79023E-28
1.00682E-01 7.34813E-28
1.03323E-01 6.93586E-28
1.05995E-01 6.55105E-28
1.08696E-01 6.19159E-28
1.11427E-01 5.85552E-28
1.14188E-01 5.54108E-28
1.16978E-01 5.24663E-28
1.19797E-01 4.97070E-28
1.22645E-01 4.71193E-28
1.25522E-01 4.46908E-28
1.28428E-01 4.24101E-28
1.31361E-01 4.02667E-28
1.34323E-01 3.82510E-28
1.37313E-01 3.63542E-28
1.40330E-01 3.45681E-28
1.43375E-01 3.28852E-28
1.46447E-01 3.12986E-28
1.49545E-01 2.98019E-28
1.52671E-01 2.83891E-28
1.55823E-01 2.70549E-28
1.59001E-01 2.57941E-28
1.62205E-01 2.46021E-28
1.65435E-01 2.34745E-28
1.68690E-01 2.24073E-28
1.71970E-01 2.13967E-28
1.75276E-01 2.04393E-28
1.78606E-01 1.95318E-28
1.81961E-01 1.86712E-28
1.85340E-01 1.78547E-28
1.88743E-01 1.70798E-28
1.92169E-01 1.63439E-28
1.95619E-01 1.56448E-28
1.99092E-01 1.49803E-28
2.02589E-01 1.43486E-28
2.06107E-01 1.37477E-28
2.09649E-01 1.31759E-28
2.13212E-01 1.26315E-28
2.16797E-01 1.21132E-28
2.20404E-01 1.16193E-28
2.24032E-01 1.11487E-28
2.27680E-01 1.07000E-28
2.31350E-01 1.02721E-28
2.35040E-01 9.86380E-29
2.38751E-01 9.47417E-29
2.42481E-01 9.10220E-29
2.46231E-01 8.74696E-29
2.50000E-01 8.40760E-29
2.53788E-01 8.08330E-29
2.57595E-01 7.77329E-29
2.61421E-01 7.47687E-29
2.65264E-01 7.19334E-29
2.69126E-01 6.92206E-29
2.73005E-01 6.66244E-29
2.76901E-01 6.41389E-29
2.80814E-01 6.17589E-29
2.84744E-01 5.94791E-29
2.88691E-01 5.72949E-29
2.92653E-01 5.52015E-29
2.96632E-01 5.31948E-29
3.00625E-01 5.12707E-29
3.04634E-01 4.94252E-29
3.08658E-01 4.76547E-29
3.12697E-01 4.59558E-29
3.16749E-01 4.43252E-29
3.20816E-01 4.27598E-29
3.24896E-01 4.12565E-29
3.28990E-01 3.98127E-29
3.33097E-01 3.84256E-29
3.37216E-01 3.70928E-29
3.41348E-01 3.58118E-29
3.45492E-01 3.45803E-29
3.49647E-01 3.33962E-29
3.53814E-01 3.22575E-29
3.57992E-01 3.11621E-29
3.62181E-01 3.01082E-29
3.66381E-01 2.90940E-29
3.70590E-01 2.81179E-29
3.74810E-01 2.71782E-29
3.79039E-01 2.62734E-29
3.83277E-01 2.54021E-29
3.87524E-01 2.45628E-29
3.91780E-01 2.37542E-29
3.96044E-01 2.29752E-29
4.00316E-01 2.22243E-29
4.04596E-01 2.15006E-29
4.08882E-01 2.08029E-29
4.13176E-01 2.01302E-29
4.17476E-01 1.94815E-29
4.21783E-01 1.88557E-29
4.26095E-01 1.82521E-29
4.30413E-01 1.76696E-29
4.34737E-01 1.71076E-29
4.39065E-01 1.65651E-29
4.43398E-01 1.60415E-29
4.47736E-01 1.55360E-29
4.52077E-01 1.50479E-29
4.56422E-01 1.45766E-29
4.60770E-01 1.41213E-29
4.65122E-01 1.36815E-29
4.69476E-01 1.32566E-29
4.73832E-01 1.28461E-29
4.78190E-01 1.24493E-29
4.82550E-01 1.20659E-29
4.86912E-01 1.16952E-29
4.91274E-01 1.13369E-29
4.95637E-01 1.09904E-29
5.00000E-01 1.06554E-29
5.04363E-01 1.03313E-29
5.08726E-01 1.00179E-29
5.13088E-01 9.71472E-30
5.17450E-01 9.42138E-30
5.21810E-01 9.13755E-30
5.26168E-01 8.86288E-30
5.30524E-01 8.59705E-30
5.34878E-01 8.33974E-30
5.39230E-01 8.09066E-30
5.43578E-01 7.84951E-30
5.47923E-01 7.61601E-30
5.52264E-01 7.38990E-30
5.56602E-01 7.17092E-30
5.60935E-01 6.95882E-30
5.65263E-01 6.75337E-30
5.69587E-01 6.55434E-30
5.73905E-01 6.36150E-30
5.78217E-01 6.17464E-30
5.82524E-01 5.99357E-30
5.86824E-01 5.81808E-30
5.91118E-01 5.64799E-30
5.95404E-01 5.48312E-30
5.99684E-01 5.32328E-30
6.03956E-01 5.16832E-30
6.08220E-01 5.01805E-30
6.12476E-01 4.87235E-30
6.16723E-01 4.73104E-30
6.20961E-01 4.59400E-30
6.25190E-01 4.46108E-30
6.29410E-01 4.33213E-30
6.33619E-01 4.20704E-30
6.37819E-01 4.08567E-30
6.42008E-01 3.96791E-30
6.46186E-01 3.85364E-30
6.50353E-01 3.74275E-30
6.54508E-01 3.63512E-30
6.58652E-01 3.53066E-30
6.62784E-01 3.42926E-30
6.66903E-01 3.33083E-30
6.71010E-01 3.23527E-30
6.75104E-01 3.14249E-30
6.79184E-01 3.05241E-30
6.83251E-01 2.96493E-30
6.87303E-01 2.87998E-30
6.91342E-01 2.79748E-30
6.95366E-01 2.71735E-30
6.99375E-01 2.63952E-30
7.03368E-01 2.56392E-30
7.07347E-01 2.49048E-30
7.11309E-01 2.41912E-30
7.15256E-01 2.34980E-30
7.19186E-01 2.28244E-30
7.23099E-01 2.21699E-30
7.26995E-01 2.15339E-30
7.30874E-01 2.09158E-30
7.34736E-01 2.03151E-30
7.38579E-01 1.97312E-30
7.42405E-01 1.91637E-30
7.46212E-01 1.86120E-30
7.50000E-01 1.80758E-30
7.53769E-01 1.75545E-30
7.57519E-01 1.70476E-30
7.61249E-01 1.65548E-30
7.64960E-01 1.60757E-30
7.68650E-01 1.56098E-30
7.72320E-01 1.51568E-30
7.75968E-01 1.47162E-30
7.79596E-01 1.42877E-30
7.83203E-01 1.38710E-30
7.86788E-01 1.34657E-30
7.90351E-01 1.30715E-30
7.93893E-01 1.26881E-30
7.97411E-01 1.23151E-30
8.00908E-01 1.19523E-30
8.04381E-01 1.15994E-30
8.07831E-01 1.12560E-30
8.11257E-01 1.09219E-30
8.14660E-01 1.05969E-30
8.18039E-01 1.02807E-30
8.21394E-01 9.97300E-31
8.24724E-01 9.67363E-31
8.28030E-01 9.38232E-31
8.31310E-01 9.09885E-31
8.34565E-01 8.82302E-31
8.37795E-01 8.55459E-31
8.40999E-01 8.29336E-31
8.44177E-01 8.03914E-31
8.47329E-01 7.79176E-31
8.50455E-01 7.55097E-31
8.53553E-01 7.31665E-31
8.56625E-01 7.08859E-31
8.59670E-01 6.86663E-31
8.62687E-01 6.65061E-31
8.65677E-01 6.44037E-31
8.68639E-01 6.23572E-31
8.71572E-01 6.03655E-31
8.74478E-01 5.84271E-31
8.77355E-01 5.65406E-31
8.80203E-01 5.47040E-31
8.83022E-01 5.29169E-31
8.85812E-01 5.11773E-31
8.88573E-01 4.94845E-31
8.91304E-01 4.78368E-31
8.94005E-01 4.62333E-31
8.96677E-01 4.46727E-31
8.99318E-01 4.31540E-31
9.01928E-01 4.16762E-31
9.04508E-01 4.02380E-31
9.07058E-01 3.88387E-31
9.09576E-01 3.74769E-31
9.12063E-01 3.61520E-31
9.14519E-01 3.48628E-31
9.16943E-01 3.36088E-31
9.19335E-01 3.23887E-31
9.21696E-01 3.12020E-31
9.24024E-01 3.00476E-31
9.26320E-01 2.89249E-31
9.28584E-01 2.78330E-31
9.30815E-01 2.67712E-31
9.33013E-01 2.57389E-31
9.35178E-01 2.47351E-31
9.37310E-01 2.37594E-31
9.39409E-01 2.28110E-31
9.41474E-01 2.18893E-31
9.43505E-01 2.09936E-31
9.45503E-01 2.01233E-31
9.47467E-01 1.92780E-31
9.49397E-01 1.84572E-31
9.51293E-01 1.76600E-31
9.53154E-01 1.68860E-31
9.54981E-01 1.61348E-31
9.56773E-01 1.54059E-31
9.58530E-01 1.46986E-31
9.60252E-01 1.40126E-31
9.61940E-01 1.33475E-31
9.63592E-01 1.27027E-31
9.65209E-01 1.20780E-31
9.66790E-01 1.14727E-31
9.68336E-01 1.08868E-31
9.69846E-01 1.03194E-31
9.71321E-01 9.77062E-32
9.72759E-01 9.23984E-32
9.74162E-01 8.72669E-32
9.75528E-01 8.23106E-32
9.76858E-01 7.75243E-32
9.78152E-01 7.29059E-32
9.79410E-01 6.84521E-32
9.80631E-01 6.41595E-32
9.81815E-01 6.00258E-32
9.82963E-01 5.60490E-32
9.84074E-01 5.22262E-32
9.85148E-01 4.85543E-32
9.86185E-01 4.50317E-32
9.87185E-01 4.16553E-32
9.88148E-01 3.84241E-32
9.89074E-01 3.53353E-32
9.89962E-01 3.23874E-32
9.90814E-01 2.95777E-32
9.91627E-01 2.69051E-32
9.92404E-01 2.43681E-32
9.93143E-01 2.19642E-32
9.93844E-01 1.96930E-32
9.94508E-01 1.75524E-32
9.95134E-01 1.55415E-32
9.95722E-01 1.36582E-32
9.96273E-01 1.19019E-32
9.96786E-01 1.02719E-32
9.97261E-01 8.76697E-33
9.97698E-01 7.38445E-33
9.98097E-01 6.12621E-33
9.98459E-01 4.99021E-33
9.98782E-01 3.97501E-33
9.99067E-01 3.08109E-33
9.99315E-01 2.30765E-33
9.99524E-01 1.65356E-33
9.99695E-01 1.11926E-33
9.99829E-01 7.04071E-34
9.99924E-01 4.07650E-34
9.99981E-01 2.29963E-34
1.00000E+00 1.71236E-34
