 #
 # Subroutine ELSEPA. Elastic scattering of electrons and positrons
 #                    by neutral atoms and positive ions
 #
 # Projectile: positron
 # Kinetic energy = 4.00000E+08 eV = 1.46997E+07 a.u.
 #
 # WARNING: High-energy factorization with free-atom DF screening.
 #          Absorption, polarization and exchange corrections are
 #          switched off.
 #          Phase shifts are calculated for the bare nucleus.
 #          Scattering amplitudes are not evaluated.
 #
 # Element: Li,  Z =   3,  atomic weight = 6.94100E+00 g/mol
 #
 # Nuclear model: Fermi distribution
 #                Average radius = 2.04107E-13 cm
 #                Skin thickness = 5.46000E-14 cm
 #
 # Number of electrons =  3
 #
 # Total elastic cross section = 1.07263E-19 cm**2 = 3.83044E-03 a0**2
 # 1st transport cross section = 1.31566E-28 cm**2 = 4.69829E-12 a0**2
 # 2nd transport cross section = 3.94103E-28 cm**2 = 1.40737E-11 a0**2
 #
 #
 # Differential cross section:                       MU=(1-COS(THETA))/2
 #
 #  THETA        MU          DCS          DCS        Sherman      error
 #  (deg)                 (cm**2/sr)   (a0**2/sr)    function
 #----------------------------------------------------------------------
0.00000E+00 6.63255E-10
7.61557E-13 5.97000E-10
1.18994E-12 5.63498E-10
1.71346E-12 5.25818E-10
2.33225E-12 4.85433E-10
3.04617E-12 4.43759E-10
3.85530E-12 4.02053E-10
4.75964E-12 3.61373E-10
5.75917E-12 3.22551E-10
6.85391E-12 2.86200E-10
8.04379E-12 2.52687E-10
9.32893E-12 2.22205E-10
1.07092E-11 1.95599E-10
1.21847E-11 1.71468E-10
1.37554E-11 1.49512E-10
1.54213E-11 1.30182E-10
1.71823E-11 1.14180E-10
1.90386E-11 9.97984E-11
2.09900E-11 8.69362E-11
2.30367E-11 7.63324E-11
2.51785E-11 6.72072E-11
2.74156E-11 5.90657E-11
2.97478E-11 5.19296E-11
3.21752E-11 4.61725E-11
3.46979E-11 4.10270E-11
3.73157E-11 3.64331E-11
4.00286E-11 3.25772E-11
4.28368E-11 2.92772E-11
4.57402E-11 2.63168E-11
4.87388E-11 2.36716E-11
5.18325E-11 2.15022E-11
5.50215E-11 1.95452E-11
5.83057E-11 1.77789E-11
6.16850E-11 1.62437E-11
6.51595E-11 1.49105E-11
6.87293E-11 1.37002E-11
7.23943E-11 1.26005E-11
7.61544E-11 1.16596E-11
1.18991E-10 5.93448E-12
1.71347E-10 3.50772E-12
2.33223E-10 2.26104E-12
3.04617E-10 1.54170E-12
3.85531E-10 1.09098E-12
4.75965E-10 7.91830E-13
5.75917E-10 5.87442E-13
6.85389E-10 4.43833E-13
8.04380E-10 3.40296E-13
9.32891E-10 2.64468E-13
1.07092E-09 2.07869E-13
1.21847E-09 1.65605E-13
1.37554E-09 1.33304E-13
1.54213E-09 1.08197E-13
1.71823E-09 8.86794E-14
1.90386E-09 7.33115E-14
2.09900E-09 6.10302E-14
2.30367E-09 5.11856E-14
2.51785E-09 4.32300E-14
2.74156E-09 3.67319E-14
2.97478E-09 3.13922E-14
3.21752E-09 2.69815E-14
3.46978E-09 2.33116E-14
3.73156E-09 2.02342E-14
4.00286E-09 1.76459E-14
4.28368E-09 1.54561E-14
4.57402E-09 1.35913E-14
4.87388E-09 1.19980E-14
5.18326E-09 1.06305E-14
5.50215E-09 9.45076E-15
5.83057E-09 8.42918E-15
6.16850E-09 7.54153E-15
6.51596E-09 6.76724E-15
6.87293E-09 6.08903E-15
7.23942E-09 5.49354E-15
7.61544E-09 4.96892E-15
1.18991E-08 2.04578E-15
1.71347E-08 9.88103E-16
2.33223E-08 5.33710E-16
3.04617E-08 3.12987E-16
3.85531E-08 1.95454E-16
4.75965E-08 1.28265E-16
5.75917E-08 8.76202E-17
6.85389E-08 6.18731E-17
8.04380E-08 4.49255E-17
9.32891E-08 3.34030E-17
1.07092E-07 2.53489E-17
1.21847E-07 1.95823E-17
1.37554E-07 1.53662E-17
1.54213E-07 1.22260E-17
1.71823E-07 9.84856E-18
1.90386E-07 8.02190E-18
2.09900E-07 6.59977E-18
2.30367E-07 5.47927E-18
2.51785E-07 4.58678E-18
2.74156E-07 3.86883E-18
2.97478E-07 3.28601E-18
3.21752E-07 2.80893E-18
3.46978E-07 2.41536E-18
3.73156E-07 2.08837E-18
4.00286E-07 1.81489E-18
4.28368E-07 1.58475E-18
4.57402E-07 1.38996E-18
4.87388E-07 1.22419E-18
5.18325E-07 1.08242E-18
5.50215E-07 9.60588E-19
5.83057E-07 8.55425E-19
6.16850E-07 7.64267E-19
6.51596E-07 6.84935E-19
6.87293E-07 6.15634E-19
7.23942E-07 5.54880E-19
7.61543E-07 5.01439E-19
1.18991E-06 2.05391E-19
1.71347E-06 9.90500E-20
2.33223E-06 5.34643E-20
3.04617E-06 3.13395E-20
3.85531E-06 1.95649E-20
4.75964E-06 1.28363E-20
5.75916E-06 8.76728E-21
6.85388E-06 6.19021E-21
8.04378E-06 4.49419E-21
9.32888E-06 3.34123E-21
1.07092E-05 2.53541E-21
1.21846E-05 1.95852E-21
1.37553E-05 1.53676E-21
1.54212E-05 1.22266E-21
1.71822E-05 9.84861E-22
1.90385E-05 8.03777E-22
2.09899E-05 6.61073E-22
2.30365E-05 5.48339E-22
2.51783E-05 4.58540E-22
2.74153E-05 3.86460E-22
2.97475E-05 3.28144E-22
3.21749E-05 2.80559E-22
3.46974E-05 2.41378E-22
3.73152E-05 2.08825E-22
4.00281E-05 1.81553E-22
4.28362E-05 1.58546E-22
4.57395E-05 1.39028E-22
4.87380E-05 1.22399E-22
5.18317E-05 1.08178E-22
5.50205E-05 9.59753E-23
5.83045E-05 8.54630E-23
6.16838E-05 7.63668E-23
6.51582E-05 6.84577E-23
6.87277E-05 6.15470E-23
7.23925E-05 5.54812E-23
7.61524E-05 5.00017E-23
9.21439E-05 3.41083E-23
1.09658E-04 2.40768E-23
1.28695E-04 1.74638E-23
1.49255E-04 1.29733E-23
1.71338E-04 9.83768E-24
1.94942E-04 7.59087E-24
2.20070E-04 5.95179E-24
2.46720E-04 4.72983E-24
2.74892E-04 3.80616E-24
3.04586E-04 3.09667E-24
3.35803E-04 2.54446E-24
3.68542E-04 2.11002E-24
4.02802E-04 1.76386E-24
4.38585E-04 1.48585E-24
4.75889E-04 1.26019E-24
5.14715E-04 1.07564E-24
5.55063E-04 9.23561E-25
5.96931E-04 7.97234E-25
6.40321E-04 6.91743E-25
6.85233E-04 6.02984E-25
7.31665E-04 5.27960E-25
7.79618E-04 4.64166E-25
8.29092E-04 4.09646E-25
8.80086E-04 3.62860E-25
9.32601E-04 3.22494E-25
9.86636E-04 2.87557E-25
1.04219E-03 2.57174E-25
1.09927E-03 2.30664E-25
1.15786E-03 2.07453E-25
1.21797E-03 1.87052E-25
1.27961E-03 1.69078E-25
1.34276E-03 1.53180E-25
1.40743E-03 1.39089E-25
1.47362E-03 1.26560E-25
1.54133E-03 1.15389E-25
1.61056E-03 1.05410E-25
1.68131E-03 9.64679E-26
1.75357E-03 8.84420E-26
1.82735E-03 8.12188E-26
1.90265E-03 7.47061E-26
1.97947E-03 6.88227E-26
2.05780E-03 6.34954E-26
2.13765E-03 5.86655E-26
2.21902E-03 5.42761E-26
2.30190E-03 5.02820E-26
2.38630E-03 4.66407E-26
2.47222E-03 4.33157E-26
2.55965E-03 4.02758E-26
2.64859E-03 3.74910E-26
2.73905E-03 3.49375E-26
2.83103E-03 3.25921E-26
2.92452E-03 3.04352E-26
3.01952E-03 2.84493E-26
3.11604E-03 2.66180E-26
3.21407E-03 2.49279E-26
3.31362E-03 2.33657E-26
3.41468E-03 2.19205E-26
3.51725E-03 2.05819E-26
3.62133E-03 1.93406E-26
3.72692E-03 1.81887E-26
3.83403E-03 1.71182E-26
3.94265E-03 1.61227E-26
4.05278E-03 1.51960E-26
4.16442E-03 1.43325E-26
4.27757E-03 1.35273E-26
4.39223E-03 1.27757E-26
4.50840E-03 1.20736E-26
4.62608E-03 1.14171E-26
4.74527E-03 1.08028E-26
4.86597E-03 1.02276E-26
4.98817E-03 9.68855E-27
5.11188E-03 9.18305E-27
5.23711E-03 8.70857E-27
5.36383E-03 8.26302E-27
5.49207E-03 7.84425E-27
5.62181E-03 7.45043E-27
5.75306E-03 7.07986E-27
5.88581E-03 6.73087E-27
6.02007E-03 6.40209E-27
6.15583E-03 6.09209E-27
6.29310E-03 5.79966E-27
6.43187E-03 5.52365E-27
6.57214E-03 5.26296E-27
6.71392E-03 5.01665E-27
6.85720E-03 4.78375E-27
7.00198E-03 4.56347E-27
7.14827E-03 4.35497E-27
7.29605E-03 4.15754E-27
7.44534E-03 3.97052E-27
7.59612E-03 3.79324E-27
7.97965E-03 3.38900E-27
8.37255E-03 3.03404E-27
8.77480E-03 2.72153E-27
9.18641E-03 2.44568E-27
9.60736E-03 2.20162E-27
1.00376E-02 1.98517E-27
1.04773E-02 1.79280E-27
1.09262E-02 1.62147E-27
1.13844E-02 1.46858E-27
1.18520E-02 1.33189E-27
1.23288E-02 1.20945E-27
1.28150E-02 1.09961E-27
1.33104E-02 1.00089E-27
1.38150E-02 9.12040E-28
1.43290E-02 8.31946E-28
1.48521E-02 7.59643E-28
1.53845E-02 6.94284E-28
1.59262E-02 6.35124E-28
1.64770E-02 5.81509E-28
1.70371E-02 5.32861E-28
1.76063E-02 4.88667E-28
1.81848E-02 4.48477E-28
1.87724E-02 4.11889E-28
1.93692E-02 3.78546E-28
1.99751E-02 3.48130E-28
2.05901E-02 3.20360E-28
2.12143E-02 2.94981E-28
2.18476E-02 2.71769E-28
2.24900E-02 2.50520E-28
2.31415E-02 2.31054E-28
2.38021E-02 2.13206E-28
2.44717E-02 1.96831E-28
2.51504E-02 1.81796E-28
2.58382E-02 1.67983E-28
2.65349E-02 1.55284E-28
2.72407E-02 1.43602E-28
2.79555E-02 1.32849E-28
2.86793E-02 1.22945E-28
2.94120E-02 1.13819E-28
3.01537E-02 1.05404E-28
3.09043E-02 9.76424E-29
3.16639E-02 9.04790E-29
3.24324E-02 8.38648E-29
3.32098E-02 7.77549E-29
3.39961E-02 7.21085E-29
3.47912E-02 6.68883E-29
3.55952E-02 6.20602E-29
3.64081E-02 5.75930E-29
3.72297E-02 5.34584E-29
3.80602E-02 4.96302E-29
3.88995E-02 4.60845E-29
3.97476E-02 4.27994E-29
4.06044E-02 3.97549E-29
4.14700E-02 3.69326E-29
4.23443E-02 3.43155E-29
4.32273E-02 3.18879E-29
4.41190E-02 2.96358E-29
4.50194E-02 2.75458E-29
4.59284E-02 2.56058E-29
4.68461E-02 2.38048E-29
4.87074E-02 2.05790E-29
5.06030E-02 1.77954E-29
5.25328E-02 1.53917E-29
5.44967E-02 1.33148E-29
5.64946E-02 1.15194E-29
5.85262E-02 9.96649E-30
6.05914E-02 8.62290E-30
6.26901E-02 7.46001E-30
6.48222E-02 6.45325E-30
6.69873E-02 5.58146E-30
6.91854E-02 4.82644E-30
7.14163E-02 4.17249E-30
7.36799E-02 3.60604E-30
7.59760E-02 3.11539E-30
7.83043E-02 2.69042E-30
8.06647E-02 2.32239E-30
8.30571E-02 2.00370E-30
8.54812E-02 1.72780E-30
8.79369E-02 1.48900E-30
9.04240E-02 1.28238E-30
9.29422E-02 1.10366E-30
9.54915E-02 9.49138E-31
9.80716E-02 8.15591E-31
1.00682E-01 7.00228E-31
1.03323E-01 6.00629E-31
1.05995E-01 5.14688E-31
1.08696E-01 4.40581E-31
1.11427E-01 3.76723E-31
1.14188E-01 3.21736E-31
1.16978E-01 2.74427E-31
1.19797E-01 2.33758E-31
1.22645E-01 1.98829E-31
1.25522E-01 1.68861E-31
1.28428E-01 1.43176E-31
1.31361E-01 1.21186E-31
1.34323E-01 1.02383E-31
1.37313E-01 8.63248E-32
1.40330E-01 7.26309E-32
1.43375E-01 6.09697E-32
1.46447E-01 5.10556E-32
1.49545E-01 4.26408E-32
1.52671E-01 3.55118E-32
1.55823E-01 2.94837E-32
1.59001E-01 2.43975E-32
1.62205E-01 2.01156E-32
1.65435E-01 1.65199E-32
1.68690E-01 1.35082E-32
1.71970E-01 1.09933E-32
1.75276E-01 8.89982E-33
1.78606E-01 7.16321E-33
1.81961E-01 5.72821E-33
1.85340E-01 4.54751E-33
1.88743E-01 3.58071E-33
1.92169E-01 2.79328E-33
1.95619E-01 2.15583E-33
1.99092E-01 1.64341E-33
2.02589E-01 1.23479E-33
2.06107E-01 9.12025E-34
2.09649E-01 6.59945E-34
2.13212E-01 4.65747E-34
2.16797E-01 3.18680E-34
2.20404E-01 2.09729E-34
2.24032E-01 1.31379E-34
2.27680E-01 7.73476E-35
2.31350E-01 4.24425E-35
2.35040E-01 2.23746E-35
2.38751E-01 1.36222E-35
2.42481E-01 1.33090E-35
2.46231E-01 1.91044E-35
2.50000E-01 2.91296E-35
2.53788E-01 4.18925E-35
2.57595E-01 5.62121E-35
2.61421E-01 7.11747E-35
2.65264E-01 8.60816E-35
2.69126E-01 1.00406E-34
2.73005E-01 1.13779E-34
2.76901E-01 1.25929E-34
2.80814E-01 1.36701E-34
2.84744E-01 1.45994E-34
2.88691E-01 1.53779E-34
2.92653E-01 1.60066E-34
2.96632E-01 1.64902E-34
3.00625E-01 1.68356E-34
3.04634E-01 1.70512E-34
3.08658E-01 1.71471E-34
3.12697E-01 1.71346E-34
3.16749E-01 1.70239E-34
3.20816E-01 1.68263E-34
3.24896E-01 1.65518E-34
3.28990E-01 1.62109E-34
3.33097E-01 1.58149E-34
3.37216E-01 1.53709E-34
3.41348E-01 1.48887E-34
3.45492E-01 1.43757E-34
3.49647E-01 1.38401E-34
3.53814E-01 1.32864E-34
3.57992E-01 1.27223E-34
3.62181E-01 1.21522E-34
3.66381E-01 1.15808E-34
3.70590E-01 1.10127E-34
3.74810E-01 1.04506E-34
3.79039E-01 9.89749E-35
3.83277E-01 9.35621E-35
3.87524E-01 8.82864E-35
3.91780E-01 8.31692E-35
3.96044E-01 7.82190E-35
4.00316E-01 7.34433E-35
4.04596E-01 6.88595E-35
4.08882E-01 6.44646E-35
4.13176E-01 6.02677E-35
4.17476E-01 5.62642E-35
4.21783E-01 5.24586E-35
4.26095E-01 4.88464E-35
4.30413E-01 4.54294E-35
4.34737E-01 4.21992E-35
4.39065E-01 3.91506E-35
4.43398E-01 3.62807E-35
4.47736E-01 3.35819E-35
4.52077E-01 3.10510E-35
4.56422E-01 2.86779E-35
4.60770E-01 2.64578E-35
4.65122E-01 2.43832E-35
4.69476E-01 2.24483E-35
4.73832E-01 2.06460E-35
4.78190E-01 1.89680E-35
4.82550E-01 1.74078E-35
4.86912E-01 1.59604E-35
4.91274E-01 1.46188E-35
4.95637E-01 1.33766E-35
5.00000E-01 1.22261E-35
5.04363E-01 1.11650E-35
5.08726E-01 1.01843E-35
5.13088E-01 9.28038E-36
5.17450E-01 8.44822E-36
5.21810E-01 7.68380E-36
5.26168E-01 6.97946E-36
5.30524E-01 6.33453E-36
5.34878E-01 5.74208E-36
5.39230E-01 5.19949E-36
5.43578E-01 4.70346E-36
5.47923E-01 4.25011E-36
5.52264E-01 3.83518E-36
5.56602E-01 3.45789E-36
5.60935E-01 3.11293E-36
5.65263E-01 2.79914E-36
5.69587E-01 2.51383E-36
5.73905E-01 2.25506E-36
5.78217E-01 2.01978E-36
5.82524E-01 1.80672E-36
5.86824E-01 1.61362E-36
5.91118E-01 1.43899E-36
5.95404E-01 1.28132E-36
5.99684E-01 1.13910E-36
6.03956E-01 1.01064E-36
6.08220E-01 8.95735E-37
6.12476E-01 7.91908E-37
6.16723E-01 6.99274E-37
6.20961E-01 6.15508E-37
6.25190E-01 5.40791E-37
6.29410E-01 4.74149E-37
6.33619E-01 4.14735E-37
6.37819E-01 3.61606E-37
6.42008E-01 3.14711E-37
6.46186E-01 2.72864E-37
6.50353E-01 2.35760E-37
6.54508E-01 2.03034E-37
6.58652E-01 1.74196E-37
6.62784E-01 1.49012E-37
6.66903E-01 1.26701E-37
6.71010E-01 1.07286E-37
6.75104E-01 9.03983E-38
6.79184E-01 7.56535E-38
6.83251E-01 6.29404E-38
6.87303E-01 5.19561E-38
6.91342E-01 4.25206E-38
6.95366E-01 3.44730E-38
6.99375E-01 2.76132E-38
7.03368E-01 2.18952E-38
7.07347E-01 1.70631E-38
7.11309E-01 1.30650E-38
7.15256E-01 9.78097E-39
7.19186E-01 7.14080E-39
7.23099E-01 5.03667E-39
7.26995E-01 3.39602E-39
7.30874E-01 2.16004E-39
7.34736E-01 1.27389E-39
7.38579E-01 6.77716E-40
7.42405E-01 3.30163E-40
7.46212E-01 1.85931E-40
7.50000E-01 2.11421E-40
7.53769E-01 3.77714E-40
7.57519E-01 6.59081E-40
7.61249E-01 1.02294E-39
7.64960E-01 1.45171E-39
7.68650E-01 1.94106E-39
7.72320E-01 2.47031E-39
7.75968E-01 3.00216E-39
7.79596E-01 3.54898E-39
7.83203E-01 4.09892E-39
7.86788E-01 4.61924E-39
7.90351E-01 5.15152E-39
7.93893E-01 5.68156E-39
7.97411E-01 6.16435E-39
8.00908E-01 6.59185E-39
8.04381E-01 7.04821E-39
8.07831E-01 7.42444E-39
8.11257E-01 7.77587E-39
8.14660E-01 8.10889E-39
8.18039E-01 8.41778E-39
8.21394E-01 8.68126E-39
8.24724E-01 8.91931E-39
8.28030E-01 9.11839E-39
8.31310E-01 9.29449E-39
8.34565E-01 9.44164E-39
8.37795E-01 9.55612E-39
8.40999E-01 9.63274E-39
8.44177E-01 9.67795E-39
8.47329E-01 9.74128E-39
8.50455E-01 9.73233E-39
8.53553E-01 9.72373E-39
8.56625E-01 9.69709E-39
8.59670E-01 9.63845E-39
8.62687E-01 9.59045E-39
8.65677E-01 9.52595E-39
8.68639E-01 9.39915E-39
8.71572E-01 9.28562E-39
8.74478E-01 9.17934E-39
8.77355E-01 9.07316E-39
8.80203E-01 8.87202E-39
8.83022E-01 8.73796E-39
8.85812E-01 8.54430E-39
8.88573E-01 8.38768E-39
8.91304E-01 8.19615E-39
8.94005E-01 8.01059E-39
8.96677E-01 7.82528E-39
8.99318E-01 7.60946E-39
9.01928E-01 7.44765E-39
9.04508E-01 7.23700E-39
9.07058E-01 7.06556E-39
9.09576E-01 6.86350E-39
9.12063E-01 6.65849E-39
9.14519E-01 6.42553E-39
9.16943E-01 6.24823E-39
9.19335E-01 6.03274E-39
9.21696E-01 5.86691E-39
9.24024E-01 5.66553E-39
9.26320E-01 5.47582E-39
9.28584E-01 5.29308E-39
9.30815E-01 5.08881E-39
9.33013E-01 4.93623E-39
9.35178E-01 4.74308E-39
9.37310E-01 4.55272E-39
9.39409E-01 4.38470E-39
9.41474E-01 4.21925E-39
9.43505E-01 4.03790E-39
9.45503E-01 3.85466E-39
9.47467E-01 3.68589E-39
9.49397E-01 3.55301E-39
9.51293E-01 3.42060E-39
9.53154E-01 3.23741E-39
9.54981E-01 3.10948E-39
9.56773E-01 2.99298E-39
9.58530E-01 2.82716E-39
9.60252E-01 2.70292E-39
9.61940E-01 2.56645E-39
9.63592E-01 2.43342E-39
9.65209E-01 2.32983E-39
9.66790E-01 2.19139E-39
9.68336E-01 2.09954E-39
9.69846E-01 1.97188E-39
9.71321E-01 1.86847E-39
9.72759E-01 1.76360E-39
9.74162E-01 1.64225E-39
9.75528E-01 1.55749E-39
9.76858E-01 1.46086E-39
9.78152E-01 1.37366E-39
9.79410E-01 1.29275E-39
9.80631E-01 1.20190E-39
9.81815E-01 1.11129E-39
9.82963E-01 1.04005E-39
9.84074E-01 9.75838E-40
9.85148E-01 9.03906E-40
9.86185E-01 8.41281E-40
9.87185E-01 7.65882E-40
9.88148E-01 7.10059E-40
9.89074E-01 6.53223E-40
9.89962E-01 6.05888E-40
9.90814E-01 5.46228E-40
9.91627E-01 4.93138E-40
9.92404E-01 4.51752E-40
9.93143E-01 3.97886E-40
9.93844E-01 3.57690E-40
9.94508E-01 3.18317E-40
9.95134E-01 2.89307E-40
9.95722E-01 2.48808E-40
9.96273E-01 2.09676E-40
9.96786E-01 1.87080E-40
9.97261E-01 1.73266E-40
9.97698E-01 1.24632E-40
9.98097E-01 1.07245E-40
9.98459E-01 9.63837E-41
9.98782E-01 6.79098E-41
9.99067E-01 5.17083E-41
9.99315E-01 4.20155E-41
9.99524E-01 2.46357E-41
9.99695E-01 1.47775E-41
9.99829E-01 9.06834E-42
9.99924E-01 2.24962E-42
9.99981E-01 1.58220E-42
1.00000E+00 1.71896E-41
