 #
 # Subroutine ELSEPA. Elastic scattering of electrons and positrons
 #                    by neutral atoms and positive ions
 #
 # Projectile: positron
 # Kinetic energy = 9.00000E+05 eV = 3.30744E+04 a.u.
 #
 # Element: Li,  Z =   3,  atomic weight = 6.94100E+00 g/mol
 #
 # Nuclear model: Fermi distribution
 #                Average radius = 2.04107E-13 cm
 #                Skin thickness = 5.46000E-14 cm
 #
 # Number of electrons =  3
 #
 # Electron density: Read from file Data/z_003.d
 #                   Number of data points =  823
 #                   Volume integral = 3.00000E+00
 #
 # LDA absorption potential (only electron-hole excitations):
 #                           Delta = 0.00000E+00 eV
 #                            Aabs = 2.00000E+00
 #
 # Total elastic cross section = 1.23384E-19 cm**2 = 4.40613E-03 a0**2
 # 1st transport cross section = 7.65661E-24 cm**2 = 2.73423E-07 a0**2
 # 2nd transport cross section = 2.16720E-23 cm**2 = 7.73920E-07 a0**2
 #
 #    Absorption cross section = 4.03158E-19 cm**2 = 1.43970E-02 a0**2
 #   Grand total cross section = 5.26801E-19 cm**2 = 1.88124E-02 a0**2
 #
 #
 # Differential cross section:                       MU=(1-COS(THETA))/2
 #
 #  THETA        MU          DCS          DCS        Sherman      error
 #  (deg)                 (cm**2/sr)   (a0**2/sr)    function
 #----------------------------------------------------------------------
0.00000E+00 8.23649E-15
7.61557E-13 8.23648E-15
1.18994E-12 8.23648E-15
1.71346E-12 8.23647E-15
2.33225E-12 8.23646E-15
3.04617E-12 8.23645E-15
3.85530E-12 8.23644E-15
4.75964E-12 8.23643E-15
5.75917E-12 8.23642E-15
6.85391E-12 8.23641E-15
8.04379E-12 8.23639E-15
9.32893E-12 8.23638E-15
1.07092E-11 8.23636E-15
1.21847E-11 8.23634E-15
1.37554E-11 8.23632E-15
1.54213E-11 8.23630E-15
1.71823E-11 8.23628E-15
1.90386E-11 8.23626E-15
2.09900E-11 8.23623E-15
2.30367E-11 8.23621E-15
2.51785E-11 8.23618E-15
2.74156E-11 8.23615E-15
2.97478E-11 8.23612E-15
3.21752E-11 8.23609E-15
3.46979E-11 8.23606E-15
3.73157E-11 8.23603E-15
4.00286E-11 8.23599E-15
4.28368E-11 8.23596E-15
4.57402E-11 8.23592E-15
4.87388E-11 8.23588E-15
5.18325E-11 8.23585E-15
5.50215E-11 8.23581E-15
5.83057E-11 8.23576E-15
6.16850E-11 8.23572E-15
6.51595E-11 8.23568E-15
6.87293E-11 8.23563E-15
7.23943E-11 8.23559E-15
7.61544E-11 8.23554E-15
1.18991E-10 8.23501E-15
1.71347E-10 8.23435E-15
2.33223E-10 8.23358E-15
3.04617E-10 8.23269E-15
3.85531E-10 8.23168E-15
4.75965E-10 8.23055E-15
5.75917E-10 8.22930E-15
6.85389E-10 8.22794E-15
8.04380E-10 8.22645E-15
9.32891E-10 8.22485E-15
1.07092E-09 8.22313E-15
1.21847E-09 8.22129E-15
1.37554E-09 8.21934E-15
1.54213E-09 8.21726E-15
1.71823E-09 8.21507E-15
1.90386E-09 8.21276E-15
2.09900E-09 8.21033E-15
2.30367E-09 8.20779E-15
2.51785E-09 8.20512E-15
2.74156E-09 8.20234E-15
2.97478E-09 8.19945E-15
3.21752E-09 8.19643E-15
3.46978E-09 8.19330E-15
3.73156E-09 8.19006E-15
4.00286E-09 8.18669E-15
4.28368E-09 8.18322E-15
4.57402E-09 8.17962E-15
4.87388E-09 8.17591E-15
5.18326E-09 8.17208E-15
5.50215E-09 8.16814E-15
5.83057E-09 8.16409E-15
6.16850E-09 8.15991E-15
6.51596E-09 8.15563E-15
6.87293E-09 8.15123E-15
7.23942E-09 8.14671E-15
7.61544E-09 8.14209E-15
1.18991E-08 8.08960E-15
1.71347E-08 8.02605E-15
2.33223E-08 7.95178E-15
3.04617E-08 7.86719E-15
3.85531E-08 7.77274E-15
4.75965E-08 7.66891E-15
5.75917E-08 7.55626E-15
6.85389E-08 7.43534E-15
8.04380E-08 7.30675E-15
9.32891E-08 7.17113E-15
1.07092E-07 7.02910E-15
1.21847E-07 6.88132E-15
1.37554E-07 6.72845E-15
1.54213E-07 6.57115E-15
1.71823E-07 6.41006E-15
1.90386E-07 6.24584E-15
2.09900E-07 6.07911E-15
2.30367E-07 5.91049E-15
2.51785E-07 5.74057E-15
2.74156E-07 5.56991E-15
2.97478E-07 5.39906E-15
3.21752E-07 5.22852E-15
3.46978E-07 5.05878E-15
3.73156E-07 4.89028E-15
4.00286E-07 4.72344E-15
4.28368E-07 4.55863E-15
4.57402E-07 4.39620E-15
4.87388E-07 4.23646E-15
5.18325E-07 4.07968E-15
5.50215E-07 3.92612E-15
5.83057E-07 3.77598E-15
6.16850E-07 3.62944E-15
6.51596E-07 3.48666E-15
6.87293E-07 3.34775E-15
7.23942E-07 3.21283E-15
7.61543E-07 3.08196E-15
1.18991E-06 1.99798E-15
1.71347E-06 1.28025E-15
2.33223E-06 8.29582E-16
3.04617E-06 5.51634E-16
3.85531E-06 3.79240E-16
4.75964E-06 2.70121E-16
5.75916E-06 1.99065E-16
6.85388E-06 1.51299E-16
8.04378E-06 1.18138E-16
9.32888E-06 9.43975E-17
1.07092E-05 7.69082E-17
1.21846E-05 6.36885E-17
1.37553E-05 5.34652E-17
1.54212E-05 4.54000E-17
1.71822E-05 3.89256E-17
1.90385E-05 3.36488E-17
2.09899E-05 2.92915E-17
2.30365E-05 2.56525E-17
2.51783E-05 2.25838E-17
2.74153E-05 1.99740E-17
2.97475E-05 1.77378E-17
3.21749E-05 1.58093E-17
3.46974E-05 1.41369E-17
3.73152E-05 1.26792E-17
4.00281E-05 1.14030E-17
4.28362E-05 1.02811E-17
4.57395E-05 9.29135E-18
4.87380E-05 8.41538E-18
5.18317E-05 7.63778E-18
5.50205E-05 6.94559E-18
5.83045E-05 6.32782E-18
6.16838E-05 5.77520E-18
6.51582E-05 5.27977E-18
6.87277E-05 4.83468E-18
7.23925E-05 4.43403E-18
7.61524E-05 4.07267E-18
9.21439E-05 2.93975E-18
1.09658E-04 2.16597E-18
1.28695E-04 1.62538E-18
1.49255E-04 1.24005E-18
1.71338E-04 9.60357E-19
1.94942E-04 7.53947E-19
2.20070E-04 5.99297E-19
2.46720E-04 4.81805E-19
2.74892E-04 3.91395E-19
3.04586E-04 3.20998E-19
3.35803E-04 2.65584E-19
3.68542E-04 2.21522E-19
4.02802E-04 1.86158E-19
4.38585E-04 1.57526E-19
4.75889E-04 1.34157E-19
5.14715E-04 1.14940E-19
5.55063E-04 9.90260E-20
5.96931E-04 8.57597E-20
6.40321E-04 7.46327E-20
6.85233E-04 6.52459E-20
7.31665E-04 5.72841E-20
7.79618E-04 5.04966E-20
8.29092E-04 4.46821E-20
8.80086E-04 3.96786E-20
9.32601E-04 3.53544E-20
9.86636E-04 3.16022E-20
1.04219E-03 2.83337E-20
1.09927E-03 2.54762E-20
1.15786E-03 2.29693E-20
1.21797E-03 2.07627E-20
1.27961E-03 1.88145E-20
1.34276E-03 1.70891E-20
1.40743E-03 1.55567E-20
1.47362E-03 1.41921E-20
1.54133E-03 1.29737E-20
1.61056E-03 1.18831E-20
1.68131E-03 1.09046E-20
1.75357E-03 1.00247E-20
1.82735E-03 9.23166E-21
1.90265E-03 8.51543E-21
1.97947E-03 7.86727E-21
2.05780E-03 7.27956E-21
2.13765E-03 6.74567E-21
2.21902E-03 6.25979E-21
2.30190E-03 5.81685E-21
2.38630E-03 5.41236E-21
2.47222E-03 5.04241E-21
2.55965E-03 4.70350E-21
2.64859E-03 4.39257E-21
2.73905E-03 4.10690E-21
2.83103E-03 3.84406E-21
2.92452E-03 3.60189E-21
3.01952E-03 3.37849E-21
3.11604E-03 3.17213E-21
3.21407E-03 2.98127E-21
3.31362E-03 2.80455E-21
3.41468E-03 2.64072E-21
3.51725E-03 2.48867E-21
3.62133E-03 2.34740E-21
3.72692E-03 2.21600E-21
3.83403E-03 2.09367E-21
3.94265E-03 1.97966E-21
4.05278E-03 1.87330E-21
4.16442E-03 1.77398E-21
4.27757E-03 1.68115E-21
4.39223E-03 1.59431E-21
4.50840E-03 1.51300E-21
4.62608E-03 1.43681E-21
4.74527E-03 1.36535E-21
4.86597E-03 1.29827E-21
4.98817E-03 1.23526E-21
5.11188E-03 1.17603E-21
5.23711E-03 1.12030E-21
5.36383E-03 1.06783E-21
5.49207E-03 1.01839E-21
5.62181E-03 9.71779E-22
5.75306E-03 9.27804E-22
5.88581E-03 8.86285E-22
6.02007E-03 8.47062E-22
6.15583E-03 8.09983E-22
6.29310E-03 7.74909E-22
6.43187E-03 7.41712E-22
6.57214E-03 7.10272E-22
6.71392E-03 6.80479E-22
6.85720E-03 6.52230E-22
7.00198E-03 6.25432E-22
7.14827E-03 5.99994E-22
7.29605E-03 5.75835E-22
7.44534E-03 5.52879E-22
7.59612E-03 5.31055E-22
7.97965E-03 4.81022E-22
8.37255E-03 4.36739E-22
8.77480E-03 3.97433E-22
9.18641E-03 3.62447E-22
9.60736E-03 3.31223E-22
1.00376E-02 3.03288E-22
1.04773E-02 2.78234E-22
1.09262E-02 2.55711E-22
1.13844E-02 2.35420E-22
1.18520E-02 2.17100E-22
1.23288E-02 2.00526E-22
1.28150E-02 1.85502E-22
1.33104E-02 1.71857E-22
1.38150E-02 1.59443E-22
1.43290E-02 1.48128E-22
1.48521E-02 1.37798E-22
1.53845E-02 1.28352E-22
1.59262E-02 1.19701E-22
1.64770E-02 1.11765E-22
1.70371E-02 1.04475E-22
1.76063E-02 9.77696E-23
1.81848E-02 9.15924E-23
1.87724E-02 8.58948E-23
1.93692E-02 8.06326E-23
1.99751E-02 7.57667E-23
2.05901E-02 7.12618E-23
2.12143E-02 6.70861E-23
2.18476E-02 6.32114E-23
2.24900E-02 5.96119E-23
2.31415E-02 5.62646E-23
2.38021E-02 5.31484E-23
2.44717E-02 5.02447E-23
2.51504E-02 4.75361E-23
2.58382E-02 4.50073E-23
2.65349E-02 4.26441E-23
2.72407E-02 4.04337E-23
2.79555E-02 3.83644E-23
2.86793E-02 3.64254E-23
2.94120E-02 3.46072E-23
3.01537E-02 3.29007E-23
3.09043E-02 3.12978E-23
3.16639E-02 2.97912E-23
3.24324E-02 2.83739E-23
3.32098E-02 2.70397E-23
3.39961E-02 2.57828E-23
3.47912E-02 2.45980E-23
3.55952E-02 2.34802E-23
3.64081E-02 2.24250E-23
3.72297E-02 2.14283E-23
3.80602E-02 2.04862E-23
3.88995E-02 1.95951E-23
3.97476E-02 1.87519E-23
4.06044E-02 1.79534E-23
4.14700E-02 1.71968E-23
4.23443E-02 1.64795E-23
4.32273E-02 1.57991E-23
4.41190E-02 1.51533E-23
4.50194E-02 1.45401E-23
4.59284E-02 1.39575E-23
4.68461E-02 1.34037E-23
4.87074E-02 1.23758E-23
5.06030E-02 1.14443E-23
5.25328E-02 1.05985E-23
5.44967E-02 9.82907E-24
5.64946E-02 9.12797E-24
5.85262E-02 8.48805E-24
6.05914E-02 7.90300E-24
6.26901E-02 7.36730E-24
6.48222E-02 6.87603E-24
6.69873E-02 6.42486E-24
6.91854E-02 6.00993E-24
7.14163E-02 5.62778E-24
7.36799E-02 5.27539E-24
7.59760E-02 4.95001E-24
7.83043E-02 4.64921E-24
8.06647E-02 4.37080E-24
8.30571E-02 4.11280E-24
8.54812E-02 3.87345E-24
8.79369E-02 3.65115E-24
9.04240E-02 3.44449E-24
9.29422E-02 3.25214E-24
9.54915E-02 3.07296E-24
9.80716E-02 2.90585E-24
1.00682E-01 2.74990E-24
1.03323E-01 2.60418E-24
1.05995E-01 2.46792E-24
1.08696E-01 2.34039E-24
1.11427E-01 2.22093E-24
1.14188E-01 2.10894E-24
1.16978E-01 2.00387E-24
1.19797E-01 1.90520E-24
1.22645E-01 1.81248E-24
1.25522E-01 1.72529E-24
1.28428E-01 1.64323E-24
1.31361E-01 1.56594E-24
1.34323E-01 1.49311E-24
1.37313E-01 1.42442E-24
1.40330E-01 1.35960E-24
1.43375E-01 1.29839E-24
1.46447E-01 1.24055E-24
1.49545E-01 1.18585E-24
1.52671E-01 1.13411E-24
1.55823E-01 1.08514E-24
1.59001E-01 1.03874E-24
1.62205E-01 9.94774E-25
1.65435E-01 9.53079E-25
1.68690E-01 9.13521E-25
1.71970E-01 8.75968E-25
1.75276E-01 8.40300E-25
1.78606E-01 8.06408E-25
1.81961E-01 7.74186E-25
1.85340E-01 7.43536E-25
1.88743E-01 7.14365E-25
1.92169E-01 6.86591E-25
1.95619E-01 6.60134E-25
1.99092E-01 6.34922E-25
2.02589E-01 6.10885E-25
2.06107E-01 5.87957E-25
2.09649E-01 5.66078E-25
2.13212E-01 5.45192E-25
2.16797E-01 5.25244E-25
2.20404E-01 5.06184E-25
2.24032E-01 4.87967E-25
2.27680E-01 4.70549E-25
2.31350E-01 4.53888E-25
2.35040E-01 4.37945E-25
2.38751E-01 4.22682E-25
2.42481E-01 4.08066E-25
2.46231E-01 3.94064E-25
2.50000E-01 3.80647E-25
2.53788E-01 3.67785E-25
2.57595E-01 3.55450E-25
2.61421E-01 3.43618E-25
2.65264E-01 3.32265E-25
2.69126E-01 3.21366E-25
2.73005E-01 3.10900E-25
2.76901E-01 3.00847E-25
2.80814E-01 2.91189E-25
2.84744E-01 2.81907E-25
2.88691E-01 2.72984E-25
2.92653E-01 2.64402E-25
2.96632E-01 2.56146E-25
3.00625E-01 2.48202E-25
3.04634E-01 2.40557E-25
3.08658E-01 2.33196E-25
3.12697E-01 2.26107E-25
3.16749E-01 2.19279E-25
3.20816E-01 2.12700E-25
3.24896E-01 2.06359E-25
3.28990E-01 2.00245E-25
3.33097E-01 1.94350E-25
3.37216E-01 1.88665E-25
3.41348E-01 1.83180E-25
3.45492E-01 1.77888E-25
3.49647E-01 1.72778E-25
3.53814E-01 1.67845E-25
3.57992E-01 1.63082E-25
3.62181E-01 1.58482E-25
3.66381E-01 1.54038E-25
3.70590E-01 1.49743E-25
3.74810E-01 1.45592E-25
3.79039E-01 1.41579E-25
3.83277E-01 1.37698E-25
3.87524E-01 1.33945E-25
3.91780E-01 1.30315E-25
3.96044E-01 1.26802E-25
4.00316E-01 1.23403E-25
4.04596E-01 1.20113E-25
4.08882E-01 1.16928E-25
4.13176E-01 1.13843E-25
4.17476E-01 1.10856E-25
4.21783E-01 1.07962E-25
4.26095E-01 1.05159E-25
4.30413E-01 1.02442E-25
4.34737E-01 9.98091E-26
4.39065E-01 9.72566E-26
4.43398E-01 9.47817E-26
4.47736E-01 9.23816E-26
4.52077E-01 9.00541E-26
4.56422E-01 8.77964E-26
4.60770E-01 8.56058E-26
4.65122E-01 8.34799E-26
4.69476E-01 8.14167E-26
4.73832E-01 7.94141E-26
4.78190E-01 7.74698E-26
4.82550E-01 7.55818E-26
4.86912E-01 7.37482E-26
4.91274E-01 7.19675E-26
4.95637E-01 7.02376E-26
5.00000E-01 6.85567E-26
5.04363E-01 6.69232E-26
5.08726E-01 6.53357E-26
5.13088E-01 6.37927E-26
5.17450E-01 6.22927E-26
5.21810E-01 6.08341E-26
5.26168E-01 5.94157E-26
5.30524E-01 5.80364E-26
5.34878E-01 5.66947E-26
5.39230E-01 5.53894E-26
5.43578E-01 5.41193E-26
5.47923E-01 5.28834E-26
5.52264E-01 5.16809E-26
5.56602E-01 5.05103E-26
5.60935E-01 4.93707E-26
5.65263E-01 4.82612E-26
5.69587E-01 4.71809E-26
5.73905E-01 4.61290E-26
5.78217E-01 4.51045E-26
5.82524E-01 4.41065E-26
5.86824E-01 4.31343E-26
5.91118E-01 4.21873E-26
5.95404E-01 4.12644E-26
5.99684E-01 4.03650E-26
6.03956E-01 3.94885E-26
6.08220E-01 3.86341E-26
6.12476E-01 3.78014E-26
6.16723E-01 3.69896E-26
6.20961E-01 3.61979E-26
6.25190E-01 3.54260E-26
6.29410E-01 3.46732E-26
6.33619E-01 3.39391E-26
6.37819E-01 3.32229E-26
6.42008E-01 3.25242E-26
6.46186E-01 3.18427E-26
6.50353E-01 3.11778E-26
6.54508E-01 3.05290E-26
6.58652E-01 2.98956E-26
6.62784E-01 2.92776E-26
6.66903E-01 2.86744E-26
6.71010E-01 2.80857E-26
6.75104E-01 2.75109E-26
6.79184E-01 2.69497E-26
6.83251E-01 2.64017E-26
6.87303E-01 2.58668E-26
6.91342E-01 2.53443E-26
6.95366E-01 2.48340E-26
6.99375E-01 2.43355E-26
7.03368E-01 2.38488E-26
7.07347E-01 2.33733E-26
7.11309E-01 2.29088E-26
7.15256E-01 2.24548E-26
7.19186E-01 2.20114E-26
7.23099E-01 2.15781E-26
7.26995E-01 2.11547E-26
7.30874E-01 2.07408E-26
7.34736E-01 2.03364E-26
7.38579E-01 1.99412E-26
7.42405E-01 1.95548E-26
7.46212E-01 1.91771E-26
7.50000E-01 1.88079E-26
7.53769E-01 1.84469E-26
7.57519E-01 1.80941E-26
7.61249E-01 1.77491E-26
7.64960E-01 1.74117E-26
7.68650E-01 1.70818E-26
7.72320E-01 1.67592E-26
7.75968E-01 1.64437E-26
7.79596E-01 1.61352E-26
7.83203E-01 1.58334E-26
7.86788E-01 1.55382E-26
7.90351E-01 1.52496E-26
7.93893E-01 1.49673E-26
7.97411E-01 1.46910E-26
8.00908E-01 1.44208E-26
8.04381E-01 1.41565E-26
8.07831E-01 1.38979E-26
8.11257E-01 1.36450E-26
8.14660E-01 1.33974E-26
8.18039E-01 1.31553E-26
8.21394E-01 1.29184E-26
8.24724E-01 1.26866E-26
8.28030E-01 1.24598E-26
8.31310E-01 1.22378E-26
8.34565E-01 1.20207E-26
8.37795E-01 1.18083E-26
8.40999E-01 1.16004E-26
8.44177E-01 1.13970E-26
8.47329E-01 1.11979E-26
8.50455E-01 1.10031E-26
8.53553E-01 1.08126E-26
8.56625E-01 1.06261E-26
8.59670E-01 1.04436E-26
8.62687E-01 1.02650E-26
8.65677E-01 1.00904E-26
8.68639E-01 9.91940E-27
8.71572E-01 9.75208E-27
8.74478E-01 9.58840E-27
8.77355E-01 9.42831E-27
8.80203E-01 9.27169E-27
8.83022E-01 9.11842E-27
8.85812E-01 8.96844E-27
8.88573E-01 8.82175E-27
8.91304E-01 8.67829E-27
8.94005E-01 8.53792E-27
8.96677E-01 8.40059E-27
8.99318E-01 8.26631E-27
9.01928E-01 8.13504E-27
9.04508E-01 8.00665E-27
9.07058E-01 7.88101E-27
9.09576E-01 7.75815E-27
9.12063E-01 7.63809E-27
9.14519E-01 7.52077E-27
9.16943E-01 7.40605E-27
9.19335E-01 7.29387E-27
9.21696E-01 7.18423E-27
9.24024E-01 7.07714E-27
9.26320E-01 6.97250E-27
9.28584E-01 6.87023E-27
9.30815E-01 6.77032E-27
9.33013E-01 6.67278E-27
9.35178E-01 6.57757E-27
9.37310E-01 6.48457E-27
9.39409E-01 6.39373E-27
9.41474E-01 6.30507E-27
9.43505E-01 6.21861E-27
9.45503E-01 6.13427E-27
9.47467E-01 6.05197E-27
9.49397E-01 5.97168E-27
9.51293E-01 5.89344E-27
9.53154E-01 5.81720E-27
9.54981E-01 5.74289E-27
9.56773E-01 5.67045E-27
9.58530E-01 5.59992E-27
9.60252E-01 5.53132E-27
9.61940E-01 5.46457E-27
9.63592E-01 5.39958E-27
9.65209E-01 5.33634E-27
9.66790E-01 5.27490E-27
9.68336E-01 5.21524E-27
9.69846E-01 5.15730E-27
9.71321E-01 5.10100E-27
9.72759E-01 5.04639E-27
9.74162E-01 4.99348E-27
9.75528E-01 4.94222E-27
9.76858E-01 4.89252E-27
9.78152E-01 4.84438E-27
9.79410E-01 4.79787E-27
9.80631E-01 4.75298E-27
9.81815E-01 4.70962E-27
9.82963E-01 4.66774E-27
9.84074E-01 4.62735E-27
9.85148E-01 4.58852E-27
9.86185E-01 4.55120E-27
9.87185E-01 4.51530E-27
9.88148E-01 4.48083E-27
9.89074E-01 4.44786E-27
9.89962E-01 4.41638E-27
9.90814E-01 4.38630E-27
9.91627E-01 4.35754E-27
9.92404E-01 4.33018E-27
9.93143E-01 4.30429E-27
9.93844E-01 4.27983E-27
9.94508E-01 4.25669E-27
9.95134E-01 4.23486E-27
9.95722E-01 4.21442E-27
9.96273E-01 4.19540E-27
9.96786E-01 4.17770E-27
9.97261E-01 4.16125E-27
9.97698E-01 4.14613E-27
9.98097E-01 4.13245E-27
9.98459E-01 4.12014E-27
9.98782E-01 4.10907E-27
9.99067E-01 4.09919E-27
9.99315E-01 4.09066E-27
9.99524E-01 4.08357E-27
9.99695E-01 4.07780E-27
9.99829E-01 4.07320E-27
9.99924E-01 4.06985E-27
9.99981E-01 4.06795E-27
1.00000E+00 4.06917E-27
