 #
 # Subroutine ELSEPA. Elastic scattering of electrons and positrons
 #                    by neutral atoms and positive ions
 #
 # Projectile: positron
 # Kinetic energy = 4.50000E+08 eV = 1.65372E+07 a.u.
 #
 # WARNING: High-energy factorization with free-atom DF screening.
 #          Absorption, polarization and exchange corrections are
 #          switched off.
 #          Phase shifts are calculated for the bare nucleus.
 #          Scattering amplitudes are not evaluated.
 #
 # Element: Li,  Z =   3,  atomic weight = 6.94100E+00 g/mol
 #
 # Nuclear model: Fermi distribution
 #                Average radius = 2.04107E-13 cm
 #                Skin thickness = 5.46000E-14 cm
 #
 # Number of electrons =  3
 #
 # Total elastic cross section = 1.07071E-19 cm**2 = 3.82356E-03 a0**2
 # 1st transport cross section = 1.04021E-28 cm**2 = 3.71466E-12 a0**2
 # 2nd transport cross section = 3.11691E-28 cm**2 = 1.11307E-11 a0**2
 #
 #
 # Differential cross section:                       MU=(1-COS(THETA))/2
 #
 #  THETA        MU          DCS          DCS        Sherman      error
 #  (deg)                 (cm**2/sr)   (a0**2/sr)    function
 #----------------------------------------------------------------------
0.00000E+00 8.39194E-10
7.61557E-13 7.34977E-10
1.18994E-12 6.83716E-10
1.71346E-12 6.27241E-10
2.33225E-12 5.68150E-10
3.04617E-12 5.08770E-10
3.85530E-12 4.51026E-10
4.75964E-12 3.96386E-10
5.75917E-12 3.45850E-10
6.85391E-12 3.00004E-10
8.04379E-12 2.59713E-10
9.32893E-12 2.24393E-10
1.07092E-11 1.92560E-10
1.21847E-11 1.64769E-10
1.37554E-11 1.42134E-10
1.54213E-11 1.22076E-10
1.71823E-11 1.04520E-10
1.90386E-11 9.06818E-11
2.09900E-11 7.84921E-11
2.30367E-11 6.77879E-11
2.51785E-11 5.93126E-11
2.74156E-11 5.19337E-11
2.97478E-11 4.54380E-11
3.21752E-11 4.01499E-11
3.46979E-11 3.56073E-11
3.73157E-11 3.15869E-11
4.00286E-11 2.82147E-11
4.28368E-11 2.53367E-11
4.57402E-11 2.27727E-11
4.87388E-11 2.05616E-11
5.18325E-11 1.86746E-11
5.50215E-11 1.69817E-11
5.83057E-11 1.54875E-11
6.16850E-11 1.42051E-11
6.51595E-11 1.30472E-11
6.87293E-11 1.20063E-11
7.23943E-11 1.11042E-11
7.61544E-11 1.02846E-11
1.18991E-10 5.33933E-12
1.71347E-10 3.17731E-12
2.33223E-10 2.04247E-12
3.04617E-10 1.38097E-12
3.85531E-10 9.64355E-13
4.75965E-10 6.92099E-13
5.75917E-10 5.07776E-13
6.85389E-10 3.79166E-13
8.04380E-10 2.87498E-13
9.32891E-10 2.21863E-13
1.07092E-09 1.73249E-13
1.21847E-09 1.36969E-13
1.37554E-09 1.09564E-13
1.54213E-09 8.85693E-14
1.71823E-09 7.22889E-14
1.90386E-09 5.95087E-14
2.09900E-09 4.93877E-14
2.30367E-09 4.13092E-14
2.51785E-09 3.48017E-14
2.74156E-09 2.95116E-14
2.97478E-09 2.51757E-14
3.21752E-09 2.16024E-14
3.46978E-09 1.86365E-14
3.73156E-09 1.61588E-14
4.00286E-09 1.40777E-14
4.28368E-09 1.23174E-14
4.57402E-09 1.08229E-14
4.87388E-09 9.54739E-15
5.18326E-09 8.45350E-15
5.50215E-09 7.51101E-15
5.83057E-09 6.69589E-15
6.16850E-09 5.98790E-15
6.51596E-09 5.37078E-15
6.87293E-09 4.83104E-15
7.23942E-09 4.35710E-15
7.61544E-09 3.93973E-15
1.18991E-08 1.61880E-15
1.71347E-08 7.81358E-16
2.33223E-08 4.21981E-16
3.04617E-08 2.47442E-16
3.85531E-08 1.54513E-16
4.75965E-08 1.01393E-16
5.75917E-08 6.92613E-17
6.85389E-08 4.89077E-17
8.04380E-08 3.55108E-17
9.32891E-08 2.64026E-17
1.07092E-07 2.00361E-17
1.21847E-07 1.54780E-17
1.37554E-07 1.21454E-17
1.54213E-07 9.66337E-18
1.71823E-07 7.78419E-18
1.90386E-07 6.34039E-18
2.09900E-07 5.21633E-18
2.30367E-07 4.33069E-18
2.51785E-07 3.62528E-18
2.74156E-07 3.05782E-18
2.97478E-07 2.59717E-18
3.21752E-07 2.22009E-18
3.46978E-07 1.90902E-18
3.73156E-07 1.65058E-18
4.00286E-07 1.43443E-18
4.28368E-07 1.25253E-18
4.57402E-07 1.09857E-18
4.87388E-07 9.67555E-19
5.18325E-07 8.55502E-19
5.50215E-07 7.59210E-19
5.83057E-07 6.76093E-19
6.16850E-07 6.04045E-19
6.51596E-07 5.41344E-19
6.87293E-07 4.86571E-19
7.23942E-07 4.38554E-19
7.61543E-07 3.96316E-19
1.18991E-06 1.62331E-19
1.71347E-06 7.82843E-20
2.33223E-06 4.22555E-20
3.04617E-06 2.47691E-20
3.85531E-06 1.54631E-20
4.75964E-06 1.01452E-20
5.75916E-06 6.92921E-21
6.85388E-06 4.89242E-21
8.04378E-06 3.55197E-21
9.32888E-06 2.64073E-21
1.07092E-05 2.00385E-21
1.21846E-05 1.54791E-21
1.37553E-05 1.21457E-21
1.54212E-05 9.66325E-22
1.71822E-05 7.78382E-22
1.90385E-05 6.35263E-22
2.09899E-05 5.22478E-22
2.30365E-05 4.33378E-22
2.51783E-05 3.62406E-22
2.74153E-05 3.05437E-22
2.97475E-05 2.59348E-22
3.21749E-05 2.21739E-22
3.46974E-05 1.90773E-22
3.73152E-05 1.65044E-22
4.00281E-05 1.43490E-22
4.28362E-05 1.25307E-22
4.57395E-05 1.09881E-22
4.87380E-05 9.67375E-23
5.18317E-05 8.54984E-23
5.50205E-05 7.58538E-23
5.83045E-05 6.75454E-23
6.16838E-05 6.03563E-23
6.51582E-05 5.41054E-23
6.87277E-05 4.86435E-23
7.23925E-05 4.38494E-23
7.61524E-05 3.94901E-23
9.21439E-05 2.69338E-23
1.09658E-04 1.90092E-23
1.28695E-04 1.37856E-23
1.49255E-04 1.02389E-23
1.71338E-04 7.76251E-24
1.94942E-04 5.98829E-24
2.20070E-04 4.69413E-24
2.46720E-04 3.72943E-24
2.74892E-04 3.00032E-24
3.04586E-04 2.44035E-24
3.35803E-04 2.00458E-24
3.68542E-04 1.66180E-24
4.02802E-04 1.38871E-24
4.38585E-04 1.16944E-24
4.75889E-04 9.91478E-25
5.14715E-04 8.45969E-25
5.55063E-04 7.26079E-25
5.96931E-04 6.26514E-25
6.40321E-04 5.43387E-25
6.85233E-04 4.73462E-25
7.31665E-04 4.14369E-25
7.79618E-04 3.64133E-25
8.29092E-04 3.21211E-25
8.80086E-04 2.84387E-25
9.32601E-04 2.52624E-25
9.86636E-04 2.25140E-25
1.04219E-03 2.01245E-25
1.09927E-03 1.80402E-25
1.15786E-03 1.62158E-25
1.21797E-03 1.46127E-25
1.27961E-03 1.32008E-25
1.34276E-03 1.19524E-25
1.40743E-03 1.08462E-25
1.47362E-03 9.86293E-26
1.54133E-03 8.98662E-26
1.61056E-03 8.20401E-26
1.68131E-03 7.50297E-26
1.75357E-03 6.87400E-26
1.82735E-03 6.30815E-26
1.90265E-03 5.79816E-26
1.97947E-03 5.33762E-26
2.05780E-03 4.92078E-26
2.13765E-03 4.54301E-26
2.21902E-03 4.19984E-26
2.30190E-03 3.88771E-26
2.38630E-03 3.60328E-26
2.47222E-03 3.34367E-26
2.55965E-03 3.10642E-26
2.64859E-03 2.88918E-26
2.73905E-03 2.69009E-26
2.83103E-03 2.50730E-26
2.92452E-03 2.33929E-26
3.01952E-03 2.18467E-26
3.11604E-03 2.04217E-26
3.21407E-03 1.91072E-26
3.31362E-03 1.78929E-26
3.41468E-03 1.67701E-26
3.51725E-03 1.57306E-26
3.62133E-03 1.47673E-26
3.72692E-03 1.38738E-26
3.83403E-03 1.30440E-26
3.94265E-03 1.22728E-26
4.05278E-03 1.15553E-26
4.16442E-03 1.08871E-26
4.27757E-03 1.02645E-26
4.39223E-03 9.68355E-27
4.50840E-03 9.14131E-27
4.62608E-03 8.63460E-27
4.74527E-03 8.16083E-27
4.86597E-03 7.71747E-27
4.98817E-03 7.30224E-27
5.11188E-03 6.91314E-27
5.23711E-03 6.54817E-27
5.36383E-03 6.20569E-27
5.49207E-03 5.88404E-27
5.62181E-03 5.58177E-27
5.75306E-03 5.29755E-27
5.88581E-03 5.03010E-27
6.02007E-03 4.77832E-27
6.15583E-03 4.54111E-27
6.29310E-03 4.31752E-27
6.43187E-03 4.10665E-27
6.57214E-03 3.90766E-27
6.71392E-03 3.71979E-27
6.85720E-03 3.54230E-27
7.00198E-03 3.37456E-27
7.14827E-03 3.21594E-27
7.29605E-03 3.06587E-27
7.44534E-03 2.92383E-27
7.59612E-03 2.78931E-27
7.97965E-03 2.48305E-27
8.37255E-03 2.21477E-27
8.77480E-03 1.97913E-27
9.18641E-03 1.77165E-27
9.60736E-03 1.58854E-27
1.00376E-02 1.42658E-27
1.04773E-02 1.28303E-27
1.09262E-02 1.15553E-27
1.13844E-02 1.04208E-27
1.18520E-02 9.40947E-28
1.23288E-02 8.50640E-28
1.28150E-02 7.69866E-28
1.33104E-02 6.97508E-28
1.38150E-02 6.32591E-28
1.43290E-02 5.74268E-28
1.48521E-02 5.21799E-28
1.53845E-02 4.74535E-28
1.59262E-02 4.31908E-28
1.64770E-02 3.93418E-28
1.70371E-02 3.58624E-28
1.76063E-02 3.27138E-28
1.81848E-02 2.98616E-28
1.87724E-02 2.72754E-28
1.93692E-02 2.49283E-28
1.99751E-02 2.27961E-28
2.05901E-02 2.08577E-28
2.12143E-02 1.90939E-28
2.18476E-02 1.74878E-28
2.24900E-02 1.60243E-28
2.31415E-02 1.46896E-28
2.38021E-02 1.34717E-28
2.44717E-02 1.23596E-28
2.51504E-02 1.13436E-28
2.58382E-02 1.04147E-28
2.65349E-02 9.56497E-29
2.72407E-02 8.78733E-29
2.79555E-02 8.07527E-29
2.86793E-02 7.42294E-29
2.94120E-02 6.82506E-29
3.01537E-02 6.27684E-29
3.09043E-02 5.77395E-29
3.16639E-02 5.31247E-29
3.24324E-02 4.88881E-29
3.32098E-02 4.49974E-29
3.39961E-02 4.14232E-29
3.47912E-02 3.81387E-29
3.55952E-02 3.51194E-29
3.64081E-02 3.23433E-29
3.72297E-02 2.97899E-29
3.80602E-02 2.74409E-29
3.88995E-02 2.52793E-29
3.97476E-02 2.32898E-29
4.06044E-02 2.14583E-29
4.14700E-02 1.97719E-29
4.23443E-02 1.82188E-29
4.32273E-02 1.67883E-29
4.41190E-02 1.54704E-29
4.50194E-02 1.42562E-29
4.59284E-02 1.31373E-29
4.68461E-02 1.21061E-29
4.87074E-02 1.02796E-29
5.06030E-02 8.72743E-30
5.25328E-02 7.40798E-30
5.44967E-02 6.28618E-30
5.64946E-02 5.33231E-30
5.85262E-02 4.52121E-30
6.05914E-02 3.83154E-30
6.26901E-02 3.24520E-30
6.48222E-02 2.74679E-30
6.69873E-02 2.32325E-30
6.91854E-02 1.96345E-30
7.14163E-02 1.65792E-30
7.36799E-02 1.39860E-30
7.59760E-02 1.17862E-30
7.83043E-02 9.92125E-31
8.06647E-02 8.34134E-31
8.30571E-02 7.00392E-31
8.54812E-02 5.87272E-31
8.79369E-02 4.91683E-31
9.04240E-02 4.10990E-31
9.29422E-02 3.42946E-31
9.54915E-02 2.85636E-31
9.80716E-02 2.37429E-31
1.00682E-01 1.96935E-31
1.03323E-01 1.62971E-31
1.05995E-01 1.34529E-31
1.08696E-01 1.10753E-31
1.11427E-01 9.09158E-32
1.14188E-01 7.43973E-32
1.16978E-01 6.06727E-32
1.19797E-01 4.92964E-32
1.22645E-01 3.98910E-32
1.25522E-01 3.21368E-32
1.28428E-01 2.57635E-32
1.31361E-01 2.05428E-32
1.34323E-01 1.62819E-32
1.37313E-01 1.28184E-32
1.40330E-01 1.00160E-32
1.43375E-01 7.75985E-33
1.46447E-01 5.95384E-33
1.49545E-01 4.51737E-33
1.52671E-01 3.38334E-33
1.55823E-01 2.49567E-33
1.59001E-01 1.80780E-33
1.62205E-01 1.28115E-33
1.65435E-01 8.83800E-34
1.68690E-01 5.89432E-34
1.71970E-01 3.76474E-34
1.75276E-01 2.27266E-34
1.78606E-01 1.27428E-34
1.81961E-01 6.53171E-35
1.85340E-01 3.15544E-35
1.88743E-01 1.86334E-35
1.92169E-01 2.05921E-35
1.95619E-01 3.27411E-35
1.99092E-01 5.14241E-35
2.02589E-01 7.38371E-35
2.06107E-01 9.78578E-35
2.09649E-01 1.21910E-34
2.13212E-01 1.44871E-34
2.16797E-01 1.65960E-34
2.20404E-01 1.84676E-34
2.24032E-01 2.00715E-34
2.27680E-01 2.13962E-34
2.31350E-01 2.24407E-34
2.35040E-01 2.32135E-34
2.38751E-01 2.37294E-34
2.42481E-01 2.40068E-34
2.46231E-01 2.40686E-34
2.50000E-01 2.39365E-34
2.53788E-01 2.36351E-34
2.57595E-01 2.31871E-34
2.61421E-01 2.26151E-34
2.65264E-01 2.19404E-34
2.69126E-01 2.11821E-34
2.73005E-01 2.03589E-34
2.76901E-01 1.94863E-34
2.80814E-01 1.85802E-34
2.84744E-01 1.76523E-34
2.88691E-01 1.67148E-34
2.92653E-01 1.57772E-34
2.96632E-01 1.48482E-34
3.00625E-01 1.39349E-34
3.04634E-01 1.30426E-34
3.08658E-01 1.21765E-34
3.12697E-01 1.13408E-34
3.16749E-01 1.05378E-34
3.20816E-01 9.77018E-35
3.24896E-01 9.03868E-35
3.28990E-01 8.34453E-35
3.33097E-01 7.68893E-35
3.37216E-01 7.07049E-35
3.41348E-01 6.48971E-35
3.45492E-01 5.94549E-35
3.49647E-01 5.43753E-35
3.53814E-01 4.96349E-35
3.57992E-01 4.52319E-35
3.62181E-01 4.11473E-35
3.66381E-01 3.73680E-35
3.70590E-01 3.38807E-35
3.74810E-01 3.06667E-35
3.79039E-01 2.77102E-35
3.83277E-01 2.49975E-35
3.87524E-01 2.25124E-35
3.91780E-01 2.02418E-35
3.96044E-01 1.81692E-35
4.00316E-01 1.62792E-35
4.04596E-01 1.45627E-35
4.08882E-01 1.30032E-35
4.13176E-01 1.15912E-35
4.17476E-01 1.03128E-35
4.21783E-01 9.15893E-36
4.26095E-01 8.11834E-36
4.30413E-01 7.18318E-36
4.34737E-01 6.34278E-36
4.39065E-01 5.58866E-36
4.43398E-01 4.91388E-36
4.47736E-01 4.31064E-36
4.52077E-01 3.77329E-36
4.56422E-01 3.29451E-36
4.60770E-01 2.86925E-36
4.65122E-01 2.49212E-36
4.69476E-01 2.15864E-36
4.73832E-01 1.86436E-36
4.78190E-01 1.60493E-36
4.82550E-01 1.37673E-36
4.86912E-01 1.17690E-36
4.91274E-01 1.00220E-36
4.95637E-01 8.49915E-37
5.00000E-01 7.17184E-37
5.04363E-01 6.02508E-37
5.08726E-01 5.03175E-37
5.13088E-01 4.17707E-37
5.17450E-01 3.44484E-37
5.21810E-01 2.82170E-37
5.26168E-01 2.28931E-37
5.30524E-01 1.84198E-37
5.34878E-01 1.46478E-37
5.39230E-01 1.15037E-37
5.43578E-01 8.90785E-38
5.47923E-01 6.78014E-38
5.52264E-01 5.04516E-38
5.56602E-01 3.66761E-38
5.60935E-01 2.57362E-38
5.65263E-01 1.73224E-38
5.69587E-01 1.10200E-38
5.73905E-01 6.49994E-39
5.78217E-01 3.42243E-39
5.82524E-01 1.55775E-39
5.86824E-01 6.72327E-40
5.91118E-01 5.78727E-40
5.95404E-01 1.10869E-39
5.99684E-01 2.11937E-39
6.03956E-01 3.50741E-39
6.08220E-01 5.11248E-39
6.12476E-01 6.92950E-39
6.16723E-01 8.79574E-39
6.20961E-01 1.07880E-38
6.25190E-01 1.27505E-38
6.29410E-01 1.46541E-38
6.33619E-01 1.64780E-38
6.37819E-01 1.82494E-38
6.42008E-01 1.98332E-38
6.46186E-01 2.13476E-38
6.50353E-01 2.27424E-38
6.54508E-01 2.39808E-38
6.58652E-01 2.50733E-38
6.62784E-01 2.59561E-38
6.66903E-01 2.67890E-38
6.71010E-01 2.74420E-38
6.75104E-01 2.79423E-38
6.79184E-01 2.83551E-38
6.83251E-01 2.86171E-38
6.87303E-01 2.87824E-38
6.91342E-01 2.88495E-38
6.95366E-01 2.88128E-38
6.99375E-01 2.87148E-38
7.03368E-01 2.84668E-38
7.07347E-01 2.82013E-38
7.11309E-01 2.78605E-38
7.15256E-01 2.74715E-38
7.19186E-01 2.70033E-38
7.23099E-01 2.65006E-38
7.26995E-01 2.59726E-38
7.30874E-01 2.54115E-38
7.34736E-01 2.48039E-38
7.38579E-01 2.41843E-38
7.42405E-01 2.35203E-38
7.46212E-01 2.28449E-38
7.50000E-01 2.21792E-38
7.53769E-01 2.15145E-38
7.57519E-01 2.08542E-38
7.61249E-01 2.01619E-38
7.64960E-01 1.94666E-38
7.68650E-01 1.88088E-38
7.72320E-01 1.81652E-38
7.75968E-01 1.74845E-38
7.79596E-01 1.68257E-38
7.83203E-01 1.61828E-38
7.86788E-01 1.55160E-38
7.90351E-01 1.49053E-38
7.93893E-01 1.43307E-38
7.97411E-01 1.37360E-38
8.00908E-01 1.31217E-38
8.04381E-01 1.25952E-38
8.07831E-01 1.20270E-38
8.11257E-01 1.14855E-38
8.14660E-01 1.09767E-38
8.18039E-01 1.04935E-38
8.21394E-01 1.00148E-38
8.24724E-01 9.55956E-39
8.28030E-01 9.11459E-39
8.31310E-01 8.69313E-39
8.34565E-01 8.28851E-39
8.37795E-01 7.89645E-39
8.40999E-01 7.51188E-39
8.44177E-01 7.13897E-39
8.47329E-01 6.81309E-39
8.50455E-01 6.46539E-39
8.53553E-01 6.14803E-39
8.56625E-01 5.84586E-39
8.59670E-01 5.54806E-39
8.62687E-01 5.28178E-39
8.65677E-01 5.02714E-39
8.68639E-01 4.75416E-39
8.71572E-01 4.50997E-39
8.74478E-01 4.28881E-39
8.77355E-01 4.08470E-39
8.80203E-01 3.84089E-39
8.83022E-01 3.65169E-39
8.85812E-01 3.44272E-39
8.88573E-01 3.26788E-39
8.91304E-01 3.08607E-39
8.94005E-01 2.91901E-39
8.96677E-01 2.76270E-39
8.99318E-01 2.60030E-39
9.01928E-01 2.47487E-39
9.04508E-01 2.33278E-39
9.07058E-01 2.21801E-39
9.09576E-01 2.09500E-39
9.12063E-01 1.97711E-39
9.14519E-01 1.85191E-39
9.16943E-01 1.75871E-39
9.19335E-01 1.65247E-39
9.21696E-01 1.57368E-39
9.24024E-01 1.48248E-39
9.26320E-01 1.40027E-39
9.28584E-01 1.32437E-39
9.30815E-01 1.24194E-39
9.33013E-01 1.18471E-39
9.35178E-01 1.11215E-39
9.37310E-01 1.04300E-39
9.39409E-01 9.85259E-40
9.41474E-01 9.30134E-40
9.43505E-01 8.69937E-40
9.45503E-01 8.10429E-40
9.47467E-01 7.58106E-40
9.49397E-01 7.21215E-40
9.51293E-01 6.85312E-40
9.53154E-01 6.30182E-40
9.54981E-01 5.97500E-40
9.56773E-01 5.69907E-40
9.58530E-01 5.23720E-40
9.60252E-01 4.94080E-40
9.61940E-01 4.60190E-40
9.63592E-01 4.28027E-40
9.65209E-01 4.07069E-40
9.66790E-01 3.73481E-40
9.68336E-01 3.57175E-40
9.69846E-01 3.27899E-40
9.71321E-01 3.07491E-40
9.72759E-01 2.86544E-40
9.74162E-01 2.59713E-40
9.75528E-01 2.45790E-40
9.76858E-01 2.27420E-40
9.78152E-01 2.12188E-40
9.79410E-01 1.98839E-40
9.80631E-01 1.81744E-40
9.81815E-01 1.64490E-40
9.82963E-01 1.53550E-40
9.84074E-01 1.44500E-40
9.85148E-01 1.32449E-40
9.86185E-01 1.23163E-40
9.87185E-01 1.09119E-40
9.88148E-01 1.01227E-40
9.89074E-01 9.25735E-41
9.89962E-01 8.66911E-41
9.90814E-01 7.62445E-41
9.91627E-01 6.75666E-41
9.92404E-01 6.24293E-41
9.93143E-01 5.27981E-41
9.93844E-01 4.71207E-41
9.94508E-01 4.14337E-41
9.95134E-01 3.87448E-41
9.95722E-01 3.19984E-41
9.96273E-01 2.53784E-41
9.96786E-01 2.36942E-41
9.97261E-01 2.44214E-41
9.97698E-01 1.37596E-41
9.98097E-01 1.29294E-41
9.98459E-01 1.30402E-41
9.98782E-01 7.70836E-42
9.99067E-01 5.83869E-42
9.99315E-01 5.53795E-42
9.99524E-01 2.32891E-42
9.99695E-01 1.33765E-42
9.99829E-01 9.86506E-43
9.99924E-01 1.01012E-42
9.99981E-01 8.06833E-43
1.00000E+00 1.73846E-41
