 #
 # Subroutine ELSEPA. Elastic scattering of electrons and positrons
 #                    by neutral atoms and positive ions
 #
 # Projectile: positron
 # Kinetic energy = 2.50000E+07 eV = 9.18733E+05 a.u.
 #
 # WARNING: High-energy factorization with free-atom DF screening.
 #          Absorption, polarization and exchange corrections are
 #          switched off.
 #          Phase shifts are calculated for the bare nucleus.
 #          Scattering amplitudes are not evaluated.
 #
 # Element: Li,  Z =   3,  atomic weight = 6.94100E+00 g/mol
 #
 # Nuclear model: Fermi distribution
 #                Average radius = 2.04107E-13 cm
 #                Skin thickness = 5.46000E-14 cm
 #
 # Number of electrons =  3
 #
 # Total elastic cross section = 1.07614E-19 cm**2 = 3.84297E-03 a0**2
 # 1st transport cross section = 2.80394E-26 cm**2 = 1.00130E-09 a0**2
 # 2nd transport cross section = 8.15913E-26 cm**2 = 2.91368E-09 a0**2
 #
 #
 # Differential cross section:                       MU=(1-COS(THETA))/2
 #
 #  THETA        MU          DCS          DCS        Sherman      error
 #  (deg)                 (cm**2/sr)   (a0**2/sr)    function
 #----------------------------------------------------------------------
0.00000E+00 2.69096E-12
7.61557E-13 2.68979E-12
1.18994E-12 2.68913E-12
1.71346E-12 2.68833E-12
2.33225E-12 2.68738E-12
3.04617E-12 2.68629E-12
3.85530E-12 2.68505E-12
4.75964E-12 2.68367E-12
5.75917E-12 2.68214E-12
6.85391E-12 2.68047E-12
8.04379E-12 2.67866E-12
9.32893E-12 2.67670E-12
1.07092E-11 2.67460E-12
1.21847E-11 2.67236E-12
1.37554E-11 2.66998E-12
1.54213E-11 2.66745E-12
1.71823E-11 2.66478E-12
1.90386E-11 2.66198E-12
2.09900E-11 2.65903E-12
2.30367E-11 2.65594E-12
2.51785E-11 2.65272E-12
2.74156E-11 2.64936E-12
2.97478E-11 2.64586E-12
3.21752E-11 2.64222E-12
3.46979E-11 2.63845E-12
3.73157E-11 2.63454E-12
4.00286E-11 2.63051E-12
4.28368E-11 2.62633E-12
4.57402E-11 2.62203E-12
4.87388E-11 2.61759E-12
5.18325E-11 2.61302E-12
5.50215E-11 2.60832E-12
5.83057E-11 2.60350E-12
6.16850E-11 2.59854E-12
6.51595E-11 2.59346E-12
6.87293E-11 2.58825E-12
7.23943E-11 2.58292E-12
7.61544E-11 2.57747E-12
1.18991E-10 2.51636E-12
1.71347E-10 2.44423E-12
2.33223E-10 2.36241E-12
3.04617E-10 2.27240E-12
3.85531E-10 2.17572E-12
4.75965E-10 2.07394E-12
5.75917E-10 1.96863E-12
6.85389E-10 1.86121E-12
8.04380E-10 1.75304E-12
9.32891E-10 1.64534E-12
1.07092E-09 1.53924E-12
1.21847E-09 1.43569E-12
1.37554E-09 1.33541E-12
1.54213E-09 1.23904E-12
1.71823E-09 1.14704E-12
1.90386E-09 1.05980E-12
2.09900E-09 9.77538E-13
2.30367E-09 9.00313E-13
2.51785E-09 8.30231E-13
2.74156E-09 7.64876E-13
2.97478E-09 7.03102E-13
3.21752E-09 6.44917E-13
3.46978E-09 5.90287E-13
3.73156E-09 5.39795E-13
4.00286E-09 4.96931E-13
4.28368E-09 4.56817E-13
4.57402E-09 4.19355E-13
4.87388E-09 3.84438E-13
5.18326E-09 3.51952E-13
5.50215E-09 3.23567E-13
5.83057E-09 2.98555E-13
6.16850E-09 2.75269E-13
6.51596E-09 2.53612E-13
6.87293E-09 2.33490E-13
7.23942E-09 2.14810E-13
7.61544E-09 1.99305E-13
1.18991E-08 9.76247E-14
1.71347E-08 5.46112E-14
2.33223E-08 3.39194E-14
3.04617E-08 2.27971E-14
3.85531E-08 1.62175E-14
4.75965E-08 1.20141E-14
5.75917E-08 9.15395E-15
6.85389E-08 7.13599E-15
8.04380E-08 5.66320E-15
9.32891E-08 4.55327E-15
1.07092E-07 3.69790E-15
1.21847E-07 3.03076E-15
1.37554E-07 2.50612E-15
1.54213E-07 2.08875E-15
1.71823E-07 1.75261E-15
1.90386E-07 1.47881E-15
2.09900E-07 1.25457E-15
2.30367E-07 1.07024E-15
2.51785E-07 9.16523E-16
2.74156E-07 7.90001E-16
2.97478E-07 6.83955E-16
3.21752E-07 5.94195E-16
3.46978E-07 5.18868E-16
3.73156E-07 4.54285E-16
4.00286E-07 3.99806E-16
4.28368E-07 3.52492E-16
4.57402E-07 3.12184E-16
4.87388E-07 2.77160E-16
5.18325E-07 2.46915E-16
5.50215E-07 2.20597E-16
5.83057E-07 1.97631E-16
6.16850E-07 1.77562E-16
6.51596E-07 1.59875E-16
6.87293E-07 1.44364E-16
7.23942E-07 1.30615E-16
7.61543E-07 1.18489E-16
1.18991E-06 4.96327E-17
1.71347E-06 2.41691E-17
2.33223E-06 1.31064E-17
3.04617E-06 7.70135E-18
3.85531E-06 4.81282E-18
4.75964E-06 3.15931E-18
5.75916E-06 2.15866E-18
6.85388E-06 1.52459E-18
8.04378E-06 1.10713E-18
9.32888E-06 8.23251E-19
1.07092E-05 6.24795E-19
1.21846E-05 4.82691E-19
1.37553E-05 3.78783E-19
1.54212E-05 3.01388E-19
1.71822E-05 2.42788E-19
1.90385E-05 1.98152E-19
2.09899E-05 1.62981E-19
2.30365E-05 1.35196E-19
2.51783E-05 1.13062E-19
2.74153E-05 9.52937E-20
2.97475E-05 8.09170E-20
3.21749E-05 6.91846E-20
3.46974E-05 5.95236E-20
3.73152E-05 5.14965E-20
4.00281E-05 4.47719E-20
4.28362E-05 3.90988E-20
4.57395E-05 3.42862E-20
4.87380E-05 3.01857E-20
5.18317E-05 2.66793E-20
5.50205E-05 2.36701E-20
5.83045E-05 2.10777E-20
6.16838E-05 1.88345E-20
6.51582E-05 1.68839E-20
6.87277E-05 1.51796E-20
7.23925E-05 1.36836E-20
7.61524E-05 1.23655E-20
9.21439E-05 8.44012E-21
1.09658E-04 5.96158E-21
1.28695E-04 4.32717E-21
1.49255E-04 3.21690E-21
1.71338E-04 2.44131E-21
1.94942E-04 1.88534E-21
2.20070E-04 1.47957E-21
2.46720E-04 1.17692E-21
2.74892E-04 9.48038E-22
3.04586E-04 7.72135E-22
3.35803E-04 6.35153E-22
3.68542E-04 5.27321E-22
4.02802E-04 4.41350E-22
4.38585E-04 3.72262E-22
4.75889E-04 3.16146E-22
5.14715E-04 2.70222E-22
5.55063E-04 2.32349E-22
5.96931E-04 2.00868E-22
6.40321E-04 1.74558E-22
6.85233E-04 1.52404E-22
7.31665E-04 1.33662E-22
7.79618E-04 1.17713E-22
8.29092E-04 1.04070E-22
8.80086E-04 9.23515E-23
9.32601E-04 8.22317E-23
9.86636E-04 7.34644E-23
1.04219E-03 6.58324E-23
1.09927E-03 5.91665E-23
1.15786E-03 5.33239E-23
1.21797E-03 4.81831E-23
1.27961E-03 4.36488E-23
1.34276E-03 3.96339E-23
1.40743E-03 3.60709E-23
1.47362E-03 3.28991E-23
1.54133E-03 3.00678E-23
1.61056E-03 2.75353E-23
1.68131E-03 2.52630E-23
1.75357E-03 2.32208E-23
1.82735E-03 2.13805E-23
1.90265E-03 1.97189E-23
1.97947E-03 1.82157E-23
2.05780E-03 1.68527E-23
2.13765E-03 1.56151E-23
2.21902E-03 1.44887E-23
2.30190E-03 1.34621E-23
2.38630E-03 1.25249E-23
2.47222E-03 1.16676E-23
2.55965E-03 1.08826E-23
2.64859E-03 1.01623E-23
2.73905E-03 9.50069E-24
2.83103E-03 8.89197E-24
2.92452E-03 8.33120E-24
3.01952E-03 7.81397E-24
3.11604E-03 7.33616E-24
3.21407E-03 6.89437E-24
3.31362E-03 6.48526E-24
3.41468E-03 6.10606E-24
3.51725E-03 5.75415E-24
3.62133E-03 5.42719E-24
3.72692E-03 5.12315E-24
3.83403E-03 4.84004E-24
3.94265E-03 4.57624E-24
4.05278E-03 4.33013E-24
4.16442E-03 4.10034E-24
4.27757E-03 3.88559E-24
4.39223E-03 3.68468E-24
4.50840E-03 3.49661E-24
4.62608E-03 3.32035E-24
4.74527E-03 3.15506E-24
4.86597E-03 2.99992E-24
4.98817E-03 2.85417E-24
5.11188E-03 2.71718E-24
5.23711E-03 2.58829E-24
5.36383E-03 2.46695E-24
5.49207E-03 2.35263E-24
5.62181E-03 2.24484E-24
5.75306E-03 2.14316E-24
5.88581E-03 2.04715E-24
6.02007E-03 1.95647E-24
6.15583E-03 1.87073E-24
6.29310E-03 1.78964E-24
6.43187E-03 1.71289E-24
6.57214E-03 1.64021E-24
6.71392E-03 1.57133E-24
6.85720E-03 1.50603E-24
7.00198E-03 1.44408E-24
7.14827E-03 1.38528E-24
7.29605E-03 1.32944E-24
7.44534E-03 1.27638E-24
7.59612E-03 1.22593E-24
7.97965E-03 1.11030E-24
8.37255E-03 1.00796E-24
8.77480E-03 9.17127E-25
9.18641E-03 8.36285E-25
9.60736E-03 7.64144E-25
1.00376E-02 6.99604E-25
1.04773E-02 6.41725E-25
1.09262E-02 5.89699E-25
1.13844E-02 5.42830E-25
1.18520E-02 5.00518E-25
1.23288E-02 4.62241E-25
1.28150E-02 4.27547E-25
1.33104E-02 3.96040E-25
1.38150E-02 3.67377E-25
1.43290E-02 3.41255E-25
1.48521E-02 3.17408E-25
1.53845E-02 2.95603E-25
1.59262E-02 2.75635E-25
1.64770E-02 2.57320E-25
1.70371E-02 2.40497E-25
1.76063E-02 2.25023E-25
1.81848E-02 2.10770E-25
1.87724E-02 1.97625E-25
1.93692E-02 1.85486E-25
1.99751E-02 1.74262E-25
2.05901E-02 1.63871E-25
2.12143E-02 1.54241E-25
2.18476E-02 1.45306E-25
2.24900E-02 1.37006E-25
2.31415E-02 1.29288E-25
2.38021E-02 1.22104E-25
2.44717E-02 1.15411E-25
2.51504E-02 1.09168E-25
2.58382E-02 1.03340E-25
2.65349E-02 9.78940E-26
2.72407E-02 9.28007E-26
2.79555E-02 8.80330E-26
2.86793E-02 8.35662E-26
2.94120E-02 7.93779E-26
3.01537E-02 7.54476E-26
3.09043E-02 7.17564E-26
3.16639E-02 6.82871E-26
3.24324E-02 6.50240E-26
3.32098E-02 6.19524E-26
3.39961E-02 5.90592E-26
3.47912E-02 5.63321E-26
3.55952E-02 5.37597E-26
3.64081E-02 5.13317E-26
3.72297E-02 4.90384E-26
3.80602E-02 4.68711E-26
3.88995E-02 4.48215E-26
3.97476E-02 4.28820E-26
4.06044E-02 4.10457E-26
4.14700E-02 3.93060E-26
4.23443E-02 3.76570E-26
4.32273E-02 3.60929E-26
4.41190E-02 3.46087E-26
4.50194E-02 3.31995E-26
4.59284E-02 3.18608E-26
4.68461E-02 3.05884E-26
4.87074E-02 2.82274E-26
5.06030E-02 2.60882E-26
5.25328E-02 2.41463E-26
5.44967E-02 2.23805E-26
5.64946E-02 2.07720E-26
5.85262E-02 1.93042E-26
6.05914E-02 1.79627E-26
6.26901E-02 1.67347E-26
6.48222E-02 1.56089E-26
6.69873E-02 1.45754E-26
6.91854E-02 1.36251E-26
7.14163E-02 1.27503E-26
7.36799E-02 1.19439E-26
7.59760E-02 1.11995E-26
7.83043E-02 1.05116E-26
8.06647E-02 9.87510E-27
8.30571E-02 9.28550E-27
8.54812E-02 8.73872E-27
8.79369E-02 8.23110E-27
9.04240E-02 7.75934E-27
9.29422E-02 7.32045E-27
9.54915E-02 6.91174E-27
9.80716E-02 6.53075E-27
1.00682E-01 6.17528E-27
1.03323E-01 5.84332E-27
1.05995E-01 5.53302E-27
1.08696E-01 5.24273E-27
1.11427E-01 4.97093E-27
1.14188E-01 4.71622E-27
1.16978E-01 4.47734E-27
1.19797E-01 4.25314E-27
1.22645E-01 4.04254E-27
1.25522E-01 3.84458E-27
1.28428E-01 3.65837E-27
1.31361E-01 3.48307E-27
1.34323E-01 3.31795E-27
1.37313E-01 3.16229E-27
1.40330E-01 3.01547E-27
1.43375E-01 2.87690E-27
1.46447E-01 2.74602E-27
1.49545E-01 2.62233E-27
1.52671E-01 2.50537E-27
1.55823E-01 2.39471E-27
1.59001E-01 2.28994E-27
1.62205E-01 2.19071E-27
1.65435E-01 2.09666E-27
1.68690E-01 2.00747E-27
1.71970E-01 1.92285E-27
1.75276E-01 1.84252E-27
1.78606E-01 1.76624E-27
1.81961E-01 1.69375E-27
1.85340E-01 1.62483E-27
1.88743E-01 1.55928E-27
1.92169E-01 1.49691E-27
1.95619E-01 1.43753E-27
1.99092E-01 1.38098E-27
2.02589E-01 1.32709E-27
2.06107E-01 1.27572E-27
2.09649E-01 1.22673E-27
2.13212E-01 1.17999E-27
2.16797E-01 1.13538E-27
2.20404E-01 1.09279E-27
2.24032E-01 1.05210E-27
2.27680E-01 1.01322E-27
2.31350E-01 9.76054E-28
2.35040E-01 9.40511E-28
2.38751E-01 9.06510E-28
2.42481E-01 8.73972E-28
2.46231E-01 8.42822E-28
2.50000E-01 8.12991E-28
2.53788E-01 7.84414E-28
2.57595E-01 7.57028E-28
2.61421E-01 7.30776E-28
2.65264E-01 7.05602E-28
2.69126E-01 6.81455E-28
2.73005E-01 6.58285E-28
2.76901E-01 6.36045E-28
2.80814E-01 6.14693E-28
2.84744E-01 5.94187E-28
2.88691E-01 5.74486E-28
2.92653E-01 5.55555E-28
2.96632E-01 5.37358E-28
3.00625E-01 5.19861E-28
3.04634E-01 5.03034E-28
3.08658E-01 4.86846E-28
3.12697E-01 4.71268E-28
3.16749E-01 4.56274E-28
3.20816E-01 4.41838E-28
3.24896E-01 4.27936E-28
3.28990E-01 4.14545E-28
3.33097E-01 4.01642E-28
3.37216E-01 3.89208E-28
3.41348E-01 3.77221E-28
3.45492E-01 3.65664E-28
3.49647E-01 3.54518E-28
3.53814E-01 3.43767E-28
3.57992E-01 3.33393E-28
3.62181E-01 3.23382E-28
3.66381E-01 3.13718E-28
3.70590E-01 3.04388E-28
3.74810E-01 2.95378E-28
3.79039E-01 2.86675E-28
3.83277E-01 2.78267E-28
3.87524E-01 2.70143E-28
3.91780E-01 2.62291E-28
3.96044E-01 2.54701E-28
4.00316E-01 2.47362E-28
4.04596E-01 2.40265E-28
4.08882E-01 2.33401E-28
4.13176E-01 2.26760E-28
4.17476E-01 2.20335E-28
4.21783E-01 2.14117E-28
4.26095E-01 2.08098E-28
4.30413E-01 2.02270E-28
4.34737E-01 1.96628E-28
4.39065E-01 1.91164E-28
4.43398E-01 1.85871E-28
4.47736E-01 1.80743E-28
4.52077E-01 1.75775E-28
4.56422E-01 1.70960E-28
4.60770E-01 1.66293E-28
4.65122E-01 1.61769E-28
4.69476E-01 1.57383E-28
4.73832E-01 1.53130E-28
4.78190E-01 1.49004E-28
4.82550E-01 1.45003E-28
4.86912E-01 1.41120E-28
4.91274E-01 1.37354E-28
4.95637E-01 1.33698E-28
5.00000E-01 1.30150E-28
5.04363E-01 1.26706E-28
5.08726E-01 1.23362E-28
5.13088E-01 1.20116E-28
5.17450E-01 1.16963E-28
5.21810E-01 1.13900E-28
5.26168E-01 1.10926E-28
5.30524E-01 1.08036E-28
5.34878E-01 1.05228E-28
5.39230E-01 1.02499E-28
5.43578E-01 9.98470E-29
5.47923E-01 9.72693E-29
5.52264E-01 9.47634E-29
5.56602E-01 9.23271E-29
5.60935E-01 8.99581E-29
5.65263E-01 8.76544E-29
5.69587E-01 8.54137E-29
5.73905E-01 8.32342E-29
5.78217E-01 8.11140E-29
5.82524E-01 7.90512E-29
5.86824E-01 7.70440E-29
5.91118E-01 7.50907E-29
5.95404E-01 7.31897E-29
5.99684E-01 7.13393E-29
6.03956E-01 6.95381E-29
6.08220E-01 6.77845E-29
6.12476E-01 6.60771E-29
6.16723E-01 6.44144E-29
6.20961E-01 6.27953E-29
6.25190E-01 6.12184E-29
6.29410E-01 5.96824E-29
6.33619E-01 5.81861E-29
6.37819E-01 5.67284E-29
6.42008E-01 5.53080E-29
6.46186E-01 5.39241E-29
6.50353E-01 5.25754E-29
6.54508E-01 5.12611E-29
6.58652E-01 4.99800E-29
6.62784E-01 4.87312E-29
6.66903E-01 4.75138E-29
6.71010E-01 4.63270E-29
6.75104E-01 4.51698E-29
6.79184E-01 4.40415E-29
6.83251E-01 4.29412E-29
6.87303E-01 4.18681E-29
6.91342E-01 4.08215E-29
6.95366E-01 3.98006E-29
6.99375E-01 3.88049E-29
7.03368E-01 3.78334E-29
7.07347E-01 3.68856E-29
7.11309E-01 3.59609E-29
7.15256E-01 3.50587E-29
7.19186E-01 3.41782E-29
7.23099E-01 3.33189E-29
7.26995E-01 3.24804E-29
7.30874E-01 3.16619E-29
7.34736E-01 3.08630E-29
7.38579E-01 3.00832E-29
7.42405E-01 2.93219E-29
7.46212E-01 2.85788E-29
7.50000E-01 2.78532E-29
7.53769E-01 2.71447E-29
7.57519E-01 2.64530E-29
7.61249E-01 2.57775E-29
7.64960E-01 2.51179E-29
7.68650E-01 2.44738E-29
7.72320E-01 2.38447E-29
7.75968E-01 2.32302E-29
7.79596E-01 2.26301E-29
7.83203E-01 2.20439E-29
7.86788E-01 2.14712E-29
7.90351E-01 2.09119E-29
7.93893E-01 2.03655E-29
7.97411E-01 1.98317E-29
8.00908E-01 1.93101E-29
8.04381E-01 1.88006E-29
8.07831E-01 1.83028E-29
8.11257E-01 1.78164E-29
8.14660E-01 1.73411E-29
8.18039E-01 1.68767E-29
8.21394E-01 1.64229E-29
8.24724E-01 1.59795E-29
8.28030E-01 1.55462E-29
8.31310E-01 1.51227E-29
8.34565E-01 1.47089E-29
8.37795E-01 1.43045E-29
8.40999E-01 1.39093E-29
8.44177E-01 1.35231E-29
8.47329E-01 1.31457E-29
8.50455E-01 1.27768E-29
8.53553E-01 1.24163E-29
8.56625E-01 1.20640E-29
8.59670E-01 1.17197E-29
8.62687E-01 1.13832E-29
8.65677E-01 1.10544E-29
8.68639E-01 1.07330E-29
8.71572E-01 1.04189E-29
8.74478E-01 1.01120E-29
8.77355E-01 9.81211E-30
8.80203E-01 9.51898E-30
8.83022E-01 9.23259E-30
8.85812E-01 8.95271E-30
8.88573E-01 8.67925E-30
8.91304E-01 8.41205E-30
8.94005E-01 8.15099E-30
8.96677E-01 7.89593E-30
8.99318E-01 7.64674E-30
9.01928E-01 7.40333E-30
9.04508E-01 7.16554E-30
9.07058E-01 6.93329E-30
9.09576E-01 6.70644E-30
9.12063E-01 6.48488E-30
9.14519E-01 6.26850E-30
9.16943E-01 6.05725E-30
9.19335E-01 5.85096E-30
9.21696E-01 5.64958E-30
9.24024E-01 5.45299E-30
9.26320E-01 5.26110E-30
9.28584E-01 5.07383E-30
9.30815E-01 4.89107E-30
9.33013E-01 4.71277E-30
9.35178E-01 4.53882E-30
9.37310E-01 4.36914E-30
9.39409E-01 4.20367E-30
9.41474E-01 4.04232E-30
9.43505E-01 3.88501E-30
9.45503E-01 3.73168E-30
9.47467E-01 3.58227E-30
9.49397E-01 3.43670E-30
9.51293E-01 3.29491E-30
9.53154E-01 3.15681E-30
9.54981E-01 3.02238E-30
9.56773E-01 2.89154E-30
9.58530E-01 2.76421E-30
9.60252E-01 2.64037E-30
9.61940E-01 2.51994E-30
9.63592E-01 2.40287E-30
9.65209E-01 2.28914E-30
9.66790E-01 2.17864E-30
9.68336E-01 2.07139E-30
9.69846E-01 1.96728E-30
9.71321E-01 1.86631E-30
9.72759E-01 1.76841E-30
9.74162E-01 1.67354E-30
9.75528E-01 1.58168E-30
9.76858E-01 1.49277E-30
9.78152E-01 1.40678E-30
9.79410E-01 1.32367E-30
9.80631E-01 1.24340E-30
9.81815E-01 1.16594E-30
9.82963E-01 1.09126E-30
9.84074E-01 1.01933E-30
9.85148E-01 9.50112E-31
9.86185E-01 8.83580E-31
9.87185E-01 8.19697E-31
9.88148E-01 7.58451E-31
9.89074E-01 6.99808E-31
9.89962E-01 6.43746E-31
9.90814E-01 5.90233E-31
9.91627E-01 5.39255E-31
9.92404E-01 4.90791E-31
9.93143E-01 4.44812E-31
9.93844E-01 4.01311E-31
9.94508E-01 3.60262E-31
9.95134E-01 3.21653E-31
9.95722E-01 2.85457E-31
9.96273E-01 2.51667E-31
9.96786E-01 2.20275E-31
9.97261E-01 1.91260E-31
9.97698E-01 1.64595E-31
9.98097E-01 1.40303E-31
9.98459E-01 1.18350E-31
9.98782E-01 9.87268E-32
9.99067E-01 8.14356E-32
9.99315E-01 6.64661E-32
9.99524E-01 5.38030E-32
9.99695E-01 4.34556E-32
9.99829E-01 3.54116E-32
9.99924E-01 2.96700E-32
9.99981E-01 2.62249E-32
1.00000E+00 2.50942E-32
