 #
 # Subroutine ELSEPA. Elastic scattering of electrons and positrons
 #                    by neutral atoms and positive ions
 #
 # Projectile: electron
 # Kinetic energy = 2.50000E+07 eV = 9.18733E+05 a.u.
 #
 # WARNING: High-energy factorization with free-atom DF screening.
 #          Absorption, polarization and exchange corrections are
 #          switched off.
 #          Phase shifts are calculated for the bare nucleus.
 #          Scattering amplitudes are not evaluated.
 #
 # Element: Si,  Z =  14,  atomic weight = 2.80855E+01 g/mol
 #
 # Nuclear model: Fermi distribution
 #                Average radius = 3.25245E-13 cm
 #                Skin thickness = 5.46000E-14 cm
 #
 # Number of electrons = 14
 #
 # Total elastic cross section = 8.88904E-19 cm**2 = 3.17433E-02 a0**2
 # 1st transport cross section = 5.86765E-25 cm**2 = 2.09538E-08 a0**2
 # 2nd transport cross section = 1.69997E-24 cm**2 = 6.07072E-08 a0**2
 #
 #
 # Differential cross section:                       MU=(1-COS(THETA))/2
 #
 #  THETA        MU          DCS          DCS        Sherman      error
 #  (deg)                 (cm**2/sr)   (a0**2/sr)    function
 #----------------------------------------------------------------------
0.00000E+00 8.28181E-12
7.61557E-13 8.28022E-12
1.18994E-12 8.27933E-12
1.71346E-12 8.27825E-12
2.33225E-12 8.27697E-12
3.04617E-12 8.27550E-12
3.85530E-12 8.27383E-12
4.75964E-12 8.27197E-12
5.75917E-12 8.26992E-12
6.85391E-12 8.26767E-12
8.04379E-12 8.26523E-12
9.32893E-12 8.26259E-12
1.07092E-11 8.25976E-12
1.21847E-11 8.25674E-12
1.37554E-11 8.25353E-12
1.54213E-11 8.25012E-12
1.71823E-11 8.24652E-12
1.90386E-11 8.24273E-12
2.09900E-11 8.23874E-12
2.30367E-11 8.23457E-12
2.51785E-11 8.23021E-12
2.74156E-11 8.22565E-12
2.97478E-11 8.22091E-12
3.21752E-11 8.21597E-12
3.46979E-11 8.21085E-12
3.73157E-11 8.20555E-12
4.00286E-11 8.20005E-12
4.28368E-11 8.19436E-12
4.57402E-11 8.18849E-12
4.87388E-11 8.18243E-12
5.18325E-11 8.17619E-12
5.50215E-11 8.16977E-12
5.83057E-11 8.16315E-12
6.16850E-11 8.15635E-12
6.51595E-11 8.14938E-12
6.87293E-11 8.14222E-12
7.23943E-11 8.13489E-12
7.61544E-11 8.12736E-12
1.18991E-10 8.04239E-12
1.71347E-10 7.94023E-12
2.33223E-10 7.82188E-12
3.04617E-10 7.68844E-12
3.85531E-10 7.54113E-12
4.75965E-10 7.38120E-12
5.75917E-10 7.20994E-12
6.85389E-10 7.02883E-12
8.04380E-10 6.83927E-12
9.32891E-10 6.64268E-12
1.07092E-09 6.44036E-12
1.21847E-09 6.23362E-12
1.37554E-09 6.02386E-12
1.54213E-09 5.81229E-12
1.71823E-09 5.60007E-12
1.90386E-09 5.38812E-12
2.09900E-09 5.17745E-12
2.30367E-09 4.96904E-12
2.51785E-09 4.75846E-12
2.74156E-09 4.55211E-12
2.97478E-09 4.35327E-12
3.21752E-09 4.16215E-12
3.46978E-09 3.97885E-12
3.73156E-09 3.80169E-12
4.00286E-09 3.62072E-12
4.28368E-09 3.44840E-12
4.57402E-09 3.28454E-12
4.87388E-09 3.12892E-12
5.18326E-09 2.98126E-12
5.50215E-09 2.83624E-12
5.83057E-09 2.69503E-12
6.16850E-09 2.56158E-12
6.51596E-09 2.43553E-12
6.87293E-09 2.31652E-12
7.23942E-09 2.20420E-12
7.61544E-09 2.09296E-12
1.18991E-08 1.26549E-12
1.71347E-08 7.86864E-13
2.33223E-08 5.11484E-13
3.04617E-08 3.48771E-13
3.85531E-08 2.48786E-13
4.75965E-08 1.84556E-13
5.75917E-08 1.41369E-13
6.85389E-08 1.11090E-13
8.04380E-08 8.90717E-14
9.32891E-08 7.25473E-14
1.07092E-07 5.98031E-14
1.21847E-07 4.97655E-14
1.37554E-07 4.17426E-14
1.54213E-07 3.52460E-14
1.71823E-07 2.99293E-14
1.90386E-07 2.55344E-14
2.09900E-07 2.18798E-14
2.30367E-07 1.88263E-14
2.51785E-07 1.62287E-14
2.74156E-07 1.40748E-14
2.97478E-07 1.22506E-14
3.21752E-07 1.06896E-14
3.46978E-07 9.37229E-15
3.73156E-07 8.22811E-15
4.00286E-07 7.26152E-15
4.28368E-07 6.41366E-15
4.57402E-07 5.69070E-15
4.87388E-07 5.05920E-15
5.18325E-07 4.51282E-15
5.50215E-07 4.03601E-15
5.83057E-07 3.61894E-15
6.16850E-07 3.25427E-15
6.51596E-07 2.93264E-15
6.87293E-07 2.65041E-15
7.23942E-07 2.39991E-15
7.61543E-07 2.17888E-15
1.18991E-06 9.24096E-16
1.71347E-06 4.58479E-16
2.33223E-06 2.53882E-16
3.04617E-06 1.52195E-16
3.85531E-06 9.68246E-17
4.75964E-06 6.45211E-17
5.75916E-06 4.46255E-17
6.85388E-06 3.18284E-17
8.04378E-06 2.32958E-17
9.32888E-06 1.74324E-17
1.07092E-05 1.32976E-17
1.21846E-05 1.03156E-17
1.37553E-05 8.12211E-18
1.54212E-05 6.48030E-18
1.71822E-05 5.23210E-18
1.90385E-05 4.26997E-18
2.09899E-05 3.51860E-18
2.30365E-05 2.92506E-18
2.51783E-05 2.45127E-18
2.74153E-05 2.06949E-18
2.97475E-05 1.75913E-18
3.21749E-05 1.50478E-18
3.46974E-05 1.29475E-18
3.73152E-05 1.12010E-18
4.00281E-05 9.73898E-19
4.28362E-05 8.50767E-19
4.57395E-05 7.46471E-19
4.87380E-05 6.57662E-19
5.18317E-05 5.81665E-19
5.50205E-05 5.16330E-19
5.83045E-05 4.59915E-19
6.16838E-05 4.10998E-19
6.51582E-05 3.68415E-19
6.87277E-05 3.31207E-19
7.23925E-05 2.98579E-19
7.61524E-05 2.69865E-19
9.21439E-05 1.84426E-19
1.09658E-04 1.30281E-19
1.28695E-04 9.46265E-20
1.49255E-04 7.03774E-20
1.71338E-04 5.34236E-20
1.94942E-04 4.12812E-20
2.20070E-04 3.24007E-20
2.46720E-04 2.57854E-20
2.74892E-04 2.07761E-20
3.04586E-04 1.69267E-20
3.35803E-04 1.39292E-20
3.68542E-04 1.15672E-20
4.02802E-04 9.68538E-21
4.38585E-04 8.17137E-21
4.75889E-04 6.94209E-21
5.14715E-04 5.93563E-21
5.55063E-04 5.10523E-21
5.96931E-04 4.41516E-21
6.40321E-04 3.83791E-21
6.85233E-04 3.35204E-21
7.31665E-04 2.94073E-21
7.79618E-04 2.59065E-21
8.29092E-04 2.29118E-21
8.80086E-04 2.03379E-21
9.32601E-04 1.81156E-21
9.86636E-04 1.61890E-21
1.04219E-03 1.45120E-21
1.09927E-03 1.30468E-21
1.15786E-03 1.17621E-21
1.21797E-03 1.06317E-21
1.27961E-03 9.63411E-22
1.34276E-03 8.75087E-22
1.40743E-03 7.96665E-22
1.47362E-03 7.26841E-22
1.54133E-03 6.64508E-22
1.61056E-03 6.08722E-22
1.68131E-03 5.58673E-22
1.75357E-03 5.13668E-22
1.82735E-03 4.73109E-22
1.90265E-03 4.36478E-22
1.97947E-03 4.03329E-22
2.05780E-03 3.73270E-22
2.13765E-03 3.45962E-22
2.21902E-03 3.21109E-22
2.30190E-03 2.98450E-22
2.38630E-03 2.77757E-22
2.47222E-03 2.58828E-22
2.55965E-03 2.41486E-22
2.64859E-03 2.25574E-22
2.73905E-03 2.10952E-22
2.83103E-03 1.97497E-22
2.92452E-03 1.85099E-22
3.01952E-03 1.73660E-22
3.11604E-03 1.63092E-22
3.21407E-03 1.53316E-22
3.31362E-03 1.44263E-22
3.41468E-03 1.35869E-22
3.51725E-03 1.28077E-22
3.62133E-03 1.20836E-22
3.72692E-03 1.14101E-22
3.83403E-03 1.07828E-22
3.94265E-03 1.01982E-22
4.05278E-03 9.65263E-23
4.16442E-03 9.14313E-23
4.27757E-03 8.66684E-23
4.39223E-03 8.22119E-23
4.50840E-03 7.80386E-23
4.62608E-03 7.41269E-23
4.74527E-03 7.04576E-23
4.86597E-03 6.70128E-23
4.98817E-03 6.37761E-23
5.11188E-03 6.07328E-23
5.23711E-03 5.78690E-23
5.36383E-03 5.51722E-23
5.49207E-03 5.26308E-23
5.62181E-03 5.02342E-23
5.75306E-03 4.79727E-23
5.88581E-03 4.58371E-23
6.02007E-03 4.38192E-23
6.15583E-03 4.19112E-23
6.29310E-03 4.01060E-23
6.43187E-03 3.83971E-23
6.57214E-03 3.67783E-23
6.71392E-03 3.52441E-23
6.85720E-03 3.37890E-23
7.00198E-03 3.24084E-23
7.14827E-03 3.10976E-23
7.29605E-03 2.98526E-23
7.44534E-03 2.86692E-23
7.59612E-03 2.75440E-23
7.97965E-03 2.49634E-23
8.37255E-03 2.26784E-23
8.77480E-03 2.06491E-23
9.18641E-03 1.88420E-23
9.60736E-03 1.72285E-23
1.00376E-02 1.57841E-23
1.04773E-02 1.44881E-23
1.09262E-02 1.33226E-23
1.13844E-02 1.22719E-23
1.18520E-02 1.13229E-23
1.23288E-02 1.04640E-23
1.28150E-02 9.68496E-24
1.33104E-02 8.97716E-24
1.38150E-02 8.33287E-24
1.43290E-02 7.74538E-24
1.48521E-02 7.20878E-24
1.53845E-02 6.71787E-24
1.59262E-02 6.26804E-24
1.64770E-02 5.85525E-24
1.70371E-02 5.47590E-24
1.76063E-02 5.12677E-24
1.81848E-02 4.80502E-24
1.87724E-02 4.50812E-24
1.93692E-02 4.23380E-24
1.99751E-02 3.98002E-24
2.05901E-02 3.74497E-24
2.12143E-02 3.52701E-24
2.18476E-02 3.32467E-24
2.24900E-02 3.13662E-24
2.31415E-02 2.96168E-24
2.38021E-02 2.79875E-24
2.44717E-02 2.64686E-24
2.51504E-02 2.50513E-24
2.58382E-02 2.37275E-24
2.65349E-02 2.24899E-24
2.72407E-02 2.13319E-24
2.79555E-02 2.02473E-24
2.86793E-02 1.92307E-24
2.94120E-02 1.82770E-24
3.01537E-02 1.73816E-24
3.09043E-02 1.65402E-24
3.16639E-02 1.57491E-24
3.24324E-02 1.50046E-24
3.32098E-02 1.43035E-24
3.39961E-02 1.36427E-24
3.47912E-02 1.30196E-24
3.55952E-02 1.24316E-24
3.64081E-02 1.18763E-24
3.72297E-02 1.13516E-24
3.80602E-02 1.08555E-24
3.88995E-02 1.03861E-24
3.97476E-02 9.94168E-25
4.06044E-02 9.52073E-25
4.14700E-02 9.12174E-25
4.23443E-02 8.74337E-25
4.32273E-02 8.38434E-25
4.41190E-02 8.04348E-25
4.50194E-02 7.71969E-25
4.59284E-02 7.41197E-25
4.68461E-02 7.11936E-25
4.87074E-02 6.57602E-25
5.06030E-02 6.08331E-25
5.25328E-02 5.63566E-25
5.44967E-02 5.22823E-25
5.64946E-02 4.85676E-25
5.85262E-02 4.51751E-25
6.05914E-02 4.20719E-25
6.26901E-02 3.92289E-25
6.48222E-02 3.66204E-25
6.69873E-02 3.42235E-25
6.91854E-02 3.20181E-25
7.14163E-02 2.99861E-25
7.36799E-02 2.81114E-25
7.59760E-02 2.63796E-25
7.83043E-02 2.47780E-25
8.06647E-02 2.32949E-25
8.30571E-02 2.19200E-25
8.54812E-02 2.06440E-25
8.79369E-02 1.94585E-25
9.04240E-02 1.83559E-25
9.29422E-02 1.73294E-25
9.54915E-02 1.63727E-25
9.80716E-02 1.54804E-25
1.00682E-01 1.46471E-25
1.03323E-01 1.38685E-25
1.05995E-01 1.31401E-25
1.08696E-01 1.24583E-25
1.11427E-01 1.18194E-25
1.14188E-01 1.12203E-25
1.16978E-01 1.06581E-25
1.19797E-01 1.01301E-25
1.22645E-01 9.63376E-26
1.25522E-01 9.16693E-26
1.28428E-01 8.72751E-26
1.31361E-01 8.31361E-26
1.34323E-01 7.92347E-26
1.37313E-01 7.55549E-26
1.40330E-01 7.20818E-26
1.43375E-01 6.88017E-26
1.46447E-01 6.57020E-26
1.49545E-01 6.27710E-26
1.52671E-01 5.99978E-26
1.55823E-01 5.73723E-26
1.59001E-01 5.48855E-26
1.62205E-01 5.25285E-26
1.65435E-01 5.02934E-26
1.68690E-01 4.81728E-26
1.71970E-01 4.61598E-26
1.75276E-01 4.42479E-26
1.78606E-01 4.24312E-26
1.81961E-01 4.07040E-26
1.85340E-01 3.90612E-26
1.88743E-01 3.74979E-26
1.92169E-01 3.60096E-26
1.95619E-01 3.45921E-26
1.99092E-01 3.32413E-26
2.02589E-01 3.19536E-26
2.06107E-01 3.07255E-26
2.09649E-01 2.95538E-26
2.13212E-01 2.84355E-26
2.16797E-01 2.73676E-26
2.20404E-01 2.63475E-26
2.24032E-01 2.53727E-26
2.27680E-01 2.44408E-26
2.31350E-01 2.35496E-26
2.35040E-01 2.26970E-26
2.38751E-01 2.18810E-26
2.42481E-01 2.10999E-26
2.46231E-01 2.03518E-26
2.50000E-01 1.96351E-26
2.53788E-01 1.89483E-26
2.57595E-01 1.82898E-26
2.61421E-01 1.76584E-26
2.65264E-01 1.70528E-26
2.69126E-01 1.64716E-26
2.73005E-01 1.59138E-26
2.76901E-01 1.53782E-26
2.80814E-01 1.48638E-26
2.84744E-01 1.43696E-26
2.88691E-01 1.38947E-26
2.92653E-01 1.34382E-26
2.96632E-01 1.29992E-26
3.00625E-01 1.25771E-26
3.04634E-01 1.21710E-26
3.08658E-01 1.17802E-26
3.12697E-01 1.14040E-26
3.16749E-01 1.10419E-26
3.20816E-01 1.06931E-26
3.24896E-01 1.03572E-26
3.28990E-01 1.00335E-26
3.33097E-01 9.72155E-27
3.37216E-01 9.42086E-27
3.41348E-01 9.13094E-27
3.45492E-01 8.85134E-27
3.49647E-01 8.58163E-27
3.53814E-01 8.32141E-27
3.57992E-01 8.07029E-27
3.62181E-01 7.82790E-27
3.66381E-01 7.59388E-27
3.70590E-01 7.36790E-27
3.74810E-01 7.14963E-27
3.79039E-01 6.93878E-27
3.83277E-01 6.73504E-27
3.87524E-01 6.53814E-27
3.91780E-01 6.34782E-27
3.96044E-01 6.16381E-27
4.00316E-01 5.98588E-27
4.04596E-01 5.81378E-27
4.08882E-01 5.64731E-27
4.13176E-01 5.48624E-27
4.17476E-01 5.33038E-27
4.21783E-01 5.17953E-27
4.26095E-01 5.03349E-27
4.30413E-01 4.89210E-27
4.34737E-01 4.75519E-27
4.39065E-01 4.62258E-27
4.43398E-01 4.49412E-27
4.47736E-01 4.36967E-27
4.52077E-01 4.24908E-27
4.56422E-01 4.13220E-27
4.60770E-01 4.01891E-27
4.65122E-01 3.90909E-27
4.69476E-01 3.80260E-27
4.73832E-01 3.69934E-27
4.78190E-01 3.59918E-27
4.82550E-01 3.50203E-27
4.86912E-01 3.40777E-27
4.91274E-01 3.31631E-27
4.95637E-01 3.22756E-27
5.00000E-01 3.14142E-27
5.04363E-01 3.05780E-27
5.08726E-01 2.97662E-27
5.13088E-01 2.89780E-27
5.17450E-01 2.82125E-27
5.21810E-01 2.74691E-27
5.26168E-01 2.67470E-27
5.30524E-01 2.60454E-27
5.34878E-01 2.53638E-27
5.39230E-01 2.47015E-27
5.43578E-01 2.40579E-27
5.47923E-01 2.34323E-27
5.52264E-01 2.28242E-27
5.56602E-01 2.22330E-27
5.60935E-01 2.16582E-27
5.65263E-01 2.10993E-27
5.69587E-01 2.05557E-27
5.73905E-01 2.00270E-27
5.78217E-01 1.95128E-27
5.82524E-01 1.90125E-27
5.86824E-01 1.85258E-27
5.91118E-01 1.80522E-27
5.95404E-01 1.75913E-27
5.99684E-01 1.71427E-27
6.03956E-01 1.67062E-27
6.08220E-01 1.62812E-27
6.12476E-01 1.58675E-27
6.16723E-01 1.54647E-27
6.20961E-01 1.50724E-27
6.25190E-01 1.46905E-27
6.29410E-01 1.43185E-27
6.33619E-01 1.39563E-27
6.37819E-01 1.36034E-27
6.42008E-01 1.32596E-27
6.46186E-01 1.29247E-27
6.50353E-01 1.25984E-27
6.54508E-01 1.22804E-27
6.58652E-01 1.19705E-27
6.62784E-01 1.16686E-27
6.66903E-01 1.13743E-27
6.71010E-01 1.10874E-27
6.75104E-01 1.08077E-27
6.79184E-01 1.05351E-27
6.83251E-01 1.02693E-27
6.87303E-01 1.00101E-27
6.91342E-01 9.75741E-28
6.95366E-01 9.51097E-28
6.99375E-01 9.27063E-28
7.03368E-01 9.03622E-28
7.07347E-01 8.80758E-28
7.11309E-01 8.58456E-28
7.15256E-01 8.36700E-28
7.19186E-01 8.15475E-28
7.23099E-01 7.94767E-28
7.26995E-01 7.74563E-28
7.30874E-01 7.54848E-28
7.34736E-01 7.35609E-28
7.38579E-01 7.16835E-28
7.42405E-01 6.98512E-28
7.46212E-01 6.80629E-28
7.50000E-01 6.63175E-28
7.53769E-01 6.46137E-28
7.57519E-01 6.29506E-28
7.61249E-01 6.13271E-28
7.64960E-01 5.97421E-28
7.68650E-01 5.81947E-28
7.72320E-01 5.66839E-28
7.75968E-01 5.52088E-28
7.79596E-01 5.37684E-28
7.83203E-01 5.23619E-28
7.86788E-01 5.09884E-28
7.90351E-01 4.96471E-28
7.93893E-01 4.83373E-28
7.97411E-01 4.70580E-28
8.00908E-01 4.58086E-28
8.04381E-01 4.45883E-28
8.07831E-01 4.33963E-28
8.11257E-01 4.22321E-28
8.14660E-01 4.10949E-28
8.18039E-01 3.99841E-28
8.21394E-01 3.88990E-28
8.24724E-01 3.78391E-28
8.28030E-01 3.68036E-28
8.31310E-01 3.57920E-28
8.34565E-01 3.48038E-28
8.37795E-01 3.38384E-28
8.40999E-01 3.28953E-28
8.44177E-01 3.19738E-28
8.47329E-01 3.10737E-28
8.50455E-01 3.01942E-28
8.53553E-01 2.93350E-28
8.56625E-01 2.84956E-28
8.59670E-01 2.76755E-28
8.62687E-01 2.68743E-28
8.65677E-01 2.60916E-28
8.68639E-01 2.53269E-28
8.71572E-01 2.45798E-28
8.74478E-01 2.38500E-28
8.77355E-01 2.31370E-28
8.80203E-01 2.24405E-28
8.83022E-01 2.17602E-28
8.85812E-01 2.10956E-28
8.88573E-01 2.04464E-28
8.91304E-01 1.98123E-28
8.94005E-01 1.91930E-28
8.96677E-01 1.85881E-28
8.99318E-01 1.79973E-28
9.01928E-01 1.74204E-28
9.04508E-01 1.68570E-28
9.07058E-01 1.63069E-28
9.09576E-01 1.57698E-28
9.12063E-01 1.52454E-28
9.14519E-01 1.47334E-28
9.16943E-01 1.42337E-28
9.19335E-01 1.37459E-28
9.21696E-01 1.32698E-28
9.24024E-01 1.28052E-28
9.26320E-01 1.23519E-28
9.28584E-01 1.19096E-28
9.30815E-01 1.14781E-28
9.33013E-01 1.10573E-28
9.35178E-01 1.06468E-28
9.37310E-01 1.02466E-28
9.39409E-01 9.85638E-29
9.41474E-01 9.47600E-29
9.43505E-01 9.10528E-29
9.45503E-01 8.74404E-29
9.47467E-01 8.39211E-29
9.49397E-01 8.04932E-29
9.51293E-01 7.71552E-29
9.53154E-01 7.39054E-29
9.54981E-01 7.07423E-29
9.56773E-01 6.76645E-29
9.58530E-01 6.46705E-29
9.60252E-01 6.17590E-29
9.61940E-01 5.89286E-29
9.63592E-01 5.61780E-29
9.65209E-01 5.35060E-29
9.66790E-01 5.09112E-29
9.68336E-01 4.83926E-29
9.69846E-01 4.59489E-29
9.71321E-01 4.35791E-29
9.72759E-01 4.12821E-29
9.74162E-01 3.90569E-29
9.75528E-01 3.69024E-29
9.76858E-01 3.48176E-29
9.78152E-01 3.28017E-29
9.79410E-01 3.08537E-29
9.80631E-01 2.89728E-29
9.81815E-01 2.71580E-29
9.82963E-01 2.54087E-29
9.84074E-01 2.37240E-29
9.85148E-01 2.21031E-29
9.86185E-01 2.05454E-29
9.87185E-01 1.90501E-29
9.88148E-01 1.76166E-29
9.89074E-01 1.62443E-29
9.89962E-01 1.49325E-29
9.90814E-01 1.36807E-29
9.91627E-01 1.24883E-29
9.92404E-01 1.13548E-29
9.93143E-01 1.02797E-29
9.93844E-01 9.26258E-30
9.94508E-01 8.30288E-30
9.95134E-01 7.40024E-30
9.95722E-01 6.55426E-30
9.96273E-01 5.76457E-30
9.96786E-01 5.03083E-30
9.97261E-01 4.35272E-30
9.97698E-01 3.72993E-30
9.98097E-01 3.16221E-30
9.98459E-01 2.64929E-30
9.98782E-01 2.19097E-30
9.99067E-01 1.78703E-30
9.99315E-01 1.43730E-30
9.99524E-01 1.14164E-30
9.99695E-01 8.99907E-31
9.99829E-01 7.12002E-31
9.99924E-01 5.77842E-31
9.99981E-01 4.97370E-31
1.00000E+00 4.70550E-31
