 #
 # Subroutine ELSEPA. Elastic scattering of electrons and positrons
 #                    by neutral atoms and positive ions
 #
 # Projectile: electron
 # Kinetic energy = 6.00000E+08 eV = 2.20496E+07 a.u.
 #
 # WARNING: High-energy factorization with free-atom DF screening.
 #          Absorption, polarization and exchange corrections are
 #          switched off.
 #          Phase shifts are calculated for the bare nucleus.
 #          Scattering amplitudes are not evaluated.
 #
 # Element: Si,  Z =  14,  atomic weight = 2.80855E+01 g/mol
 #
 # Nuclear model: Fermi distribution
 #                Average radius = 3.25245E-13 cm
 #                Skin thickness = 5.46000E-14 cm
 #
 # Number of electrons = 14
 #
 # Total elastic cross section = 8.86990E-19 cm**2 = 3.16750E-02 a0**2
 # 1st transport cross section = 1.17729E-27 cm**2 = 4.20419E-11 a0**2
 # 2nd transport cross section = 3.53033E-27 cm**2 = 1.26070E-10 a0**2
 #
 #
 # Differential cross section:                       MU=(1-COS(THETA))/2
 #
 #  THETA        MU          DCS          DCS        Sherman      error
 #  (deg)                 (cm**2/sr)   (a0**2/sr)    function
 #----------------------------------------------------------------------
0.00000E+00 4.58894E-09
7.61557E-13 4.14230E-09
1.18994E-12 3.91797E-09
1.71346E-12 3.66663E-09
2.33225E-12 3.39828E-09
3.04617E-12 3.12231E-09
3.85530E-12 2.84684E-09
4.75964E-12 2.57391E-09
5.75917E-12 2.31676E-09
6.85391E-12 2.08066E-09
8.04379E-12 1.85504E-09
9.32893E-12 1.65494E-09
1.07092E-11 1.46946E-09
1.21847E-11 1.30486E-09
1.37554E-11 1.15819E-09
1.54213E-11 1.02681E-09
1.71823E-11 9.12458E-10
1.90386E-11 8.09698E-10
2.09900E-11 7.20526E-10
2.30367E-11 6.41769E-10
2.51785E-11 5.72770E-10
2.74156E-11 5.12419E-10
2.97478E-11 4.59253E-10
3.21752E-11 4.12796E-10
3.46979E-11 3.71833E-10
3.73157E-11 3.35869E-10
4.00286E-11 3.04192E-10
4.28368E-11 2.76231E-10
4.57402E-11 2.51516E-10
4.87388E-11 2.29631E-10
5.18325E-11 2.10183E-10
5.50215E-11 1.92899E-10
5.83057E-11 1.77469E-10
6.16850E-11 1.63675E-10
6.51595E-11 1.51315E-10
6.87293E-11 1.40199E-10
7.23943E-11 1.30193E-10
7.61544E-11 1.21152E-10
1.18991E-10 6.49073E-11
1.71347E-10 3.91952E-11
2.33223E-10 2.53143E-11
3.04617E-10 1.70273E-11
3.85531E-10 1.17798E-11
4.75965E-10 8.31295E-12
5.75917E-10 6.00296E-12
6.85389E-10 4.41449E-12
8.04380E-10 3.30247E-12
9.32891E-10 2.51083E-12
1.07092E-09 1.93822E-12
1.21847E-09 1.51763E-12
1.37554E-09 1.20415E-12
1.54213E-09 9.67199E-13
1.71823E-09 7.85681E-13
1.90386E-09 6.44921E-13
2.09900E-09 5.34468E-13
2.30367E-09 4.46839E-13
2.51785E-09 3.76599E-13
2.74156E-09 3.19757E-13
2.97478E-09 2.73347E-13
3.21752E-09 2.35141E-13
3.46978E-09 2.03447E-13
3.73156E-09 1.76968E-13
4.00286E-09 1.54697E-13
4.28368E-09 1.35852E-13
4.57402E-09 1.19812E-13
4.87388E-09 1.06087E-13
5.18326E-09 9.42845E-14
5.50215E-09 8.40870E-14
5.83057E-09 7.52378E-14
6.16850E-09 6.75266E-14
6.51596E-09 6.07806E-14
6.87293E-09 5.48583E-14
7.23942E-09 4.96411E-14
7.61544E-09 4.50301E-14
1.18991E-08 1.89879E-14
1.71347E-08 9.31635E-15
2.33223E-08 5.08086E-15
3.04617E-08 2.99716E-15
3.85531E-08 1.87860E-15
4.75965E-08 1.23575E-15
5.75917E-08 8.45515E-16
6.85389E-08 5.97714E-16
8.04380E-08 4.34328E-16
9.32891E-08 3.23109E-16
1.07092E-07 2.45300E-16
1.21847E-07 1.89554E-16
1.37554E-07 1.48777E-16
1.54213E-07 1.18395E-16
1.71823E-07 9.53849E-17
1.90386E-07 7.77021E-17
2.09900E-07 6.39328E-17
2.30367E-07 5.30823E-17
2.51785E-07 4.44388E-17
2.74156E-07 3.74849E-17
2.97478E-07 3.18395E-17
3.21752E-07 2.72178E-17
3.46978E-07 2.34049E-17
3.73156E-07 2.02365E-17
4.00286E-07 1.75866E-17
4.28368E-07 1.53565E-17
4.57402E-07 1.34690E-17
4.87388E-07 1.18627E-17
5.18325E-07 1.04890E-17
5.50215E-07 9.30845E-18
5.83057E-07 8.28943E-18
6.16850E-07 7.40612E-18
6.51596E-07 6.63739E-18
6.87293E-07 5.96587E-18
7.23942E-07 5.37716E-18
7.61543E-07 4.85931E-18
1.18991E-06 1.99053E-18
1.71347E-06 9.60008E-19
2.33223E-06 5.18225E-19
3.04617E-06 3.03795E-19
3.85531E-06 1.89671E-19
4.75964E-06 1.24452E-19
5.75916E-06 8.50080E-20
6.85388E-06 6.00254E-20
8.04378E-06 4.35829E-20
9.32888E-06 3.24047E-20
1.07092E-05 2.45915E-20
1.21846E-05 1.89976E-20
1.37553E-05 1.49078E-20
1.54212E-05 1.18617E-20
1.71822E-05 9.55551E-21
1.90385E-05 7.78395E-21
2.09899E-05 6.40442E-21
2.30365E-05 5.31728E-21
2.51783E-05 4.45126E-21
2.74153E-05 3.75460E-21
2.97475E-05 3.18909E-21
3.21749E-05 2.72621E-21
3.46974E-05 2.34440E-21
3.73152E-05 2.02719E-21
4.00281E-05 1.76187E-21
4.28362E-05 1.53856E-21
4.57395E-05 1.34953E-21
4.87380E-05 1.18865E-21
5.18317E-05 1.05105E-21
5.50205E-05 9.32795E-22
5.83045E-05 8.30722E-22
6.16838E-05 7.42246E-22
6.51582E-05 6.65248E-22
6.87277E-05 5.97984E-22
7.23925E-05 5.39012E-22
7.61524E-05 4.82853E-22
9.21439E-05 3.29229E-22
1.09658E-04 2.32018E-22
1.28695E-04 1.68096E-22
1.49255E-04 1.24685E-22
1.71338E-04 9.43781E-23
1.94942E-04 7.27060E-23
2.20070E-04 5.68834E-23
2.46720E-04 4.51157E-23
2.74892E-04 3.62204E-23
3.04586E-04 2.93973E-23
3.35803E-04 2.40945E-23
3.68542E-04 1.99244E-23
4.02802E-04 1.66093E-23
4.38585E-04 1.39482E-23
4.75889E-04 1.17927E-23
5.14715E-04 1.00322E-23
5.55063E-04 8.58353E-24
5.96931E-04 7.38289E-24
6.40321E-04 6.38140E-24
6.85233E-04 5.54090E-24
7.31665E-04 4.83155E-24
7.79618E-04 4.22971E-24
8.29092E-04 3.71656E-24
8.80086E-04 3.27702E-24
9.32601E-04 2.89886E-24
9.86636E-04 2.57220E-24
1.04219E-03 2.28893E-24
1.09927E-03 2.04239E-24
1.15786E-03 1.82709E-24
1.21797E-03 1.63844E-24
1.27961E-03 1.47264E-24
1.34276E-03 1.32650E-24
1.40743E-03 1.19732E-24
1.47362E-03 1.08283E-24
1.54133E-03 9.81114E-25
1.61056E-03 8.90523E-25
1.68131E-03 8.09656E-25
1.75357E-03 7.37312E-25
1.82735E-03 6.72457E-25
1.90265E-03 6.14200E-25
1.97947E-03 5.61770E-25
2.05780E-03 5.14498E-25
2.13765E-03 4.71802E-25
2.21902E-03 4.33174E-25
2.30190E-03 3.98170E-25
2.38630E-03 3.66402E-25
2.47222E-03 3.37526E-25
2.55965E-03 3.11244E-25
2.64859E-03 2.87288E-25
2.73905E-03 2.65424E-25
2.83103E-03 2.45445E-25
2.92452E-03 2.27164E-25
3.01952E-03 2.10420E-25
3.11604E-03 1.95064E-25
3.21407E-03 1.80966E-25
3.31362E-03 1.68010E-25
3.41468E-03 1.56092E-25
3.51725E-03 1.45117E-25
3.62133E-03 1.35000E-25
3.72692E-03 1.25668E-25
3.83403E-03 1.17051E-25
3.94265E-03 1.09087E-25
4.05278E-03 1.01721E-25
4.16442E-03 9.49034E-26
4.27757E-03 8.85878E-26
4.39223E-03 8.27330E-26
4.50840E-03 7.73017E-26
4.62608E-03 7.22597E-26
4.74527E-03 6.75760E-26
4.86597E-03 6.32224E-26
4.98817E-03 5.91730E-26
5.11188E-03 5.54043E-26
5.23711E-03 5.18949E-26
5.36383E-03 4.86251E-26
5.49207E-03 4.55769E-26
5.62181E-03 4.27338E-26
5.75306E-03 4.00805E-26
5.88581E-03 3.76033E-26
6.02007E-03 3.52894E-26
6.15583E-03 3.31270E-26
6.29310E-03 3.11053E-26
6.43187E-03 2.92144E-26
6.57214E-03 2.74449E-26
6.71392E-03 2.57886E-26
6.85720E-03 2.42376E-26
7.00198E-03 2.27846E-26
7.14827E-03 2.14230E-26
7.29605E-03 2.01465E-26
7.44534E-03 1.89495E-26
7.59612E-03 1.78266E-26
7.97965E-03 1.53124E-26
8.37255E-03 1.31641E-26
8.77480E-03 1.13256E-26
9.18641E-03 9.74981E-27
9.60736E-03 8.39739E-27
1.00376E-02 7.23530E-27
1.04773E-02 6.23572E-27
1.09262E-02 5.37511E-27
1.13844E-02 4.63357E-27
1.18520E-02 3.99418E-27
1.23288E-02 3.44255E-27
1.28150E-02 2.96642E-27
1.33104E-02 2.55532E-27
1.38150E-02 2.20026E-27
1.43290E-02 1.89356E-27
1.48521E-02 1.62863E-27
1.53845E-02 1.39978E-27
1.59262E-02 1.20212E-27
1.64770E-02 1.03146E-27
1.70371E-02 8.84137E-28
1.76063E-02 7.57028E-28
1.81848E-02 6.47412E-28
1.87724E-02 5.52942E-28
1.93692E-02 4.71583E-28
1.99751E-02 4.01573E-28
2.05901E-02 3.41385E-28
2.12143E-02 2.89694E-28
2.18476E-02 2.45352E-28
2.24900E-02 2.07362E-28
2.31415E-02 1.74859E-28
2.38021E-02 1.47093E-28
2.44717E-02 1.23413E-28
2.51504E-02 1.03254E-28
2.58382E-02 8.61266E-29
2.65349E-02 7.16062E-29
2.72407E-02 5.93247E-29
2.79555E-02 4.89633E-29
2.86793E-02 4.02462E-29
2.94120E-02 3.29347E-29
3.01537E-02 2.68226E-29
3.09043E-02 2.17320E-29
3.16639E-02 1.75092E-29
3.24324E-02 1.40220E-29
3.32098E-02 1.11566E-29
3.39961E-02 8.81526E-30
3.47912E-02 6.91421E-30
3.55952E-02 5.38168E-30
3.64081E-02 4.15639E-30
3.72297E-02 3.18610E-30
3.80602E-02 2.42637E-30
3.88995E-02 1.83954E-30
3.97476E-02 1.39373E-30
4.06044E-02 1.06208E-30
4.14700E-02 8.22058E-31
4.23443E-02 6.54784E-31
4.32273E-02 5.44557E-31
4.41190E-02 4.78369E-31
4.50194E-02 4.45509E-31
4.59284E-02 4.37218E-31
4.68461E-02 4.46389E-31
4.87074E-02 4.95441E-31
5.06030E-02 5.59915E-31
5.25328E-02 6.20327E-31
5.44967E-02 6.66243E-31
5.64946E-02 6.93223E-31
5.85262E-02 7.00636E-31
6.05914E-02 6.90112E-31
6.26901E-02 6.64479E-31
6.48222E-02 6.27054E-31
6.69873E-02 5.81183E-31
6.91854E-02 5.29958E-31
7.14163E-02 4.76076E-31
7.36799E-02 4.21765E-31
7.59760E-02 3.68781E-31
7.83043E-02 3.18438E-31
8.06647E-02 2.71649E-31
8.30571E-02 2.28990E-31
8.54812E-02 1.90754E-31
8.79369E-02 1.57014E-31
9.04240E-02 1.27672E-31
9.29422E-02 1.02508E-31
9.54915E-02 8.12187E-32
9.80716E-02 6.34472E-32
1.00682E-01 4.88134E-32
1.03323E-01 3.69319E-32
1.05995E-01 2.74270E-32
1.08696E-01 1.99439E-32
1.11427E-01 1.41556E-32
1.14188E-01 9.76662E-33
1.16978E-01 6.51541E-33
1.19797E-01 4.17411E-33
1.22645E-01 2.54749E-33
1.25522E-01 1.47090E-33
1.28428E-01 8.07680E-34
1.31361E-01 4.46260E-34
1.34323E-01 2.97128E-34
1.37313E-01 2.89847E-34
1.40330E-01 3.70187E-34
1.43375E-01 4.97475E-34
1.46447E-01 6.42175E-34
1.49545E-01 7.83743E-34
1.52671E-01 9.08750E-34
1.55823E-01 1.00928E-33
1.59001E-01 1.08156E-33
1.62205E-01 1.12484E-33
1.65435E-01 1.14049E-33
1.68690E-01 1.13125E-33
1.71970E-01 1.10068E-33
1.75276E-01 1.05267E-33
1.78606E-01 9.91217E-34
1.81961E-01 9.20101E-34
1.85340E-01 8.42795E-34
1.88743E-01 7.62350E-34
1.92169E-01 6.81359E-34
1.95619E-01 6.01946E-34
1.99092E-01 5.25781E-34
2.02589E-01 4.54111E-34
2.06107E-01 3.87807E-34
2.09649E-01 3.27411E-34
2.13212E-01 2.73186E-34
2.16797E-01 2.25168E-34
2.20404E-01 1.83211E-34
2.24032E-01 1.47035E-34
2.27680E-01 1.16256E-34
2.31350E-01 9.04288E-35
2.35040E-01 6.90675E-35
2.38751E-01 5.16722E-35
2.42481E-01 3.77465E-35
2.46231E-01 2.68107E-35
2.50000E-01 1.84134E-35
2.53788E-01 1.21372E-35
2.57595E-01 7.60438E-36
2.61421E-01 4.47815E-36
2.65264E-01 2.46339E-36
2.69126E-01 1.30558E-36
2.73005E-01 7.88749E-37
2.76901E-01 7.32793E-37
2.80814E-01 9.90111E-37
2.84744E-01 1.44237E-36
2.88691E-01 1.99687E-36
2.92653E-01 2.58294E-36
2.96632E-01 3.14868E-36
3.00625E-01 3.65802E-36
3.04634E-01 4.08758E-36
3.08658E-01 4.42430E-36
3.12697E-01 4.66313E-36
3.16749E-01 4.80523E-36
3.20816E-01 4.85596E-36
3.24896E-01 4.82386E-36
3.28990E-01 4.71938E-36
3.33097E-01 4.55382E-36
3.37216E-01 4.33893E-36
3.41348E-01 4.08609E-36
3.45492E-01 3.80605E-36
3.49647E-01 3.50857E-36
3.53814E-01 3.20240E-36
3.57992E-01 2.89503E-36
3.62181E-01 2.59278E-36
3.66381E-01 2.30077E-36
3.70590E-01 2.02296E-36
3.74810E-01 1.76239E-36
3.79039E-01 1.52105E-36
3.83277E-01 1.30022E-36
3.87524E-01 1.10044E-36
3.91780E-01 9.21693E-37
3.96044E-01 7.63500E-37
4.00316E-01 6.25026E-37
4.04596E-01 5.05129E-37
4.08882E-01 4.02513E-37
4.13176E-01 3.15735E-37
4.17476E-01 2.43293E-37
4.21783E-01 1.83683E-37
4.26095E-01 1.35389E-37
4.30413E-01 9.69830E-38
4.34737E-01 6.70926E-38
4.39065E-01 4.44463E-38
4.43398E-01 2.78724E-38
4.47736E-01 1.63092E-38
4.52077E-01 8.80966E-39
4.56422E-01 4.53597E-39
4.60770E-01 2.76091E-39
4.65122E-01 2.85973E-39
4.69476E-01 4.30306E-39
4.73832E-01 6.65344E-39
4.78190E-01 9.54719E-39
4.82550E-01 1.26978E-38
4.86912E-01 1.58846E-38
4.91274E-01 1.89312E-38
4.95637E-01 2.17153E-38
5.00000E-01 2.41536E-38
5.04363E-01 2.61907E-38
5.08726E-01 2.77966E-38
5.13088E-01 2.89680E-38
5.17450E-01 2.97190E-38
5.21810E-01 3.00619E-38
5.26168E-01 3.00381E-38
5.30524E-01 2.96790E-38
5.34878E-01 2.90278E-38
5.39230E-01 2.81252E-38
5.43578E-01 2.70160E-38
5.47923E-01 2.57416E-38
5.52264E-01 2.43409E-38
5.56602E-01 2.28508E-38
5.60935E-01 2.13082E-38
5.65263E-01 1.97402E-38
5.69587E-01 1.81732E-38
5.73905E-01 1.66291E-38
5.78217E-01 1.51268E-38
5.82524E-01 1.36789E-38
5.86824E-01 1.23008E-38
5.91118E-01 1.09983E-38
5.95404E-01 9.77422E-39
5.99684E-01 8.63974E-39
6.03956E-01 7.58841E-39
6.08220E-01 6.62493E-39
6.12476E-01 5.74613E-39
6.16723E-01 4.95122E-39
6.20961E-01 4.23476E-39
6.25190E-01 3.59544E-39
6.29410E-01 3.02809E-39
6.33619E-01 2.52907E-39
6.37819E-01 2.09209E-39
6.42008E-01 1.71342E-39
6.46186E-01 1.38774E-39
6.50353E-01 1.11029E-39
6.54508E-01 8.76446E-40
6.58652E-01 6.80792E-40
6.62784E-01 5.19680E-40
6.66903E-01 3.87862E-40
6.71010E-01 1.00000E-45
6.75104E-01 1.00000E-45
6.79184E-01 1.00000E-45
6.83251E-01 1.00000E-45
6.87303E-01 1.00000E-45
6.91342E-01 1.00000E-45
6.95366E-01 1.00000E-45
6.99375E-01 1.00000E-45
7.03368E-01 1.00000E-45
7.07347E-01 1.00000E-45
7.11309E-01 1.00000E-45
7.15256E-01 1.00000E-45
7.19186E-01 1.00000E-45
7.23099E-01 1.00000E-45
7.26995E-01 1.00000E-45
7.30874E-01 1.00000E-45
7.34736E-01 1.00000E-45
7.38579E-01 1.00000E-45
7.42405E-01 1.00000E-45
7.46212E-01 1.00000E-45
7.50000E-01 1.00000E-45
7.53769E-01 1.00000E-45
7.57519E-01 1.00000E-45
7.61249E-01 1.00000E-45
7.64960E-01 1.00000E-45
7.68650E-01 1.00000E-45
7.72320E-01 1.00000E-45
7.75968E-01 1.00000E-45
7.79596E-01 1.00000E-45
7.83203E-01 1.00000E-45
7.86788E-01 1.00000E-45
7.90351E-01 1.00000E-45
7.93893E-01 1.00000E-45
7.97411E-01 1.00000E-45
8.00908E-01 1.00000E-45
8.04381E-01 1.00000E-45
8.07831E-01 1.00000E-45
8.11257E-01 1.00000E-45
8.14660E-01 1.00000E-45
8.18039E-01 1.00000E-45
8.21394E-01 1.00000E-45
8.24724E-01 1.00000E-45
8.28030E-01 1.00000E-45
8.31310E-01 1.00000E-45
8.34565E-01 1.00000E-45
8.37795E-01 1.00000E-45
8.40999E-01 1.00000E-45
8.44177E-01 1.00000E-45
8.47329E-01 1.00000E-45
8.50455E-01 1.00000E-45
8.53553E-01 1.00000E-45
8.56625E-01 1.00000E-45
8.59670E-01 1.00000E-45
8.62687E-01 1.00000E-45
8.65677E-01 1.00000E-45
8.68639E-01 1.00000E-45
8.71572E-01 1.00000E-45
8.74478E-01 1.00000E-45
8.77355E-01 1.00000E-45
8.80203E-01 1.00000E-45
8.83022E-01 1.00000E-45
8.85812E-01 1.00000E-45
8.88573E-01 1.00000E-45
8.91304E-01 1.00000E-45
8.94005E-01 1.00000E-45
8.96677E-01 1.00000E-45
8.99318E-01 1.00000E-45
9.01928E-01 1.00000E-45
9.04508E-01 1.00000E-45
9.07058E-01 1.00000E-45
9.09576E-01 1.00000E-45
9.12063E-01 1.00000E-45
9.14519E-01 1.00000E-45
9.16943E-01 1.00000E-45
9.19335E-01 1.00000E-45
9.21696E-01 1.00000E-45
9.24024E-01 1.00000E-45
9.26320E-01 1.00000E-45
9.28584E-01 1.00000E-45
9.30815E-01 1.00000E-45
9.33013E-01 1.00000E-45
9.35178E-01 1.00000E-45
9.37310E-01 1.00000E-45
9.39409E-01 1.00000E-45
9.41474E-01 1.00000E-45
9.43505E-01 1.00000E-45
9.45503E-01 1.00000E-45
9.47467E-01 1.00000E-45
9.49397E-01 1.00000E-45
9.51293E-01 1.00000E-45
9.53154E-01 1.00000E-45
9.54981E-01 1.00000E-45
9.56773E-01 1.00000E-45
9.58530E-01 1.00000E-45
9.60252E-01 1.00000E-45
9.61940E-01 1.00000E-45
9.63592E-01 1.00000E-45
9.65209E-01 1.00000E-45
9.66790E-01 1.00000E-45
9.68336E-01 1.00000E-45
9.69846E-01 1.00000E-45
9.71321E-01 1.00000E-45
9.72759E-01 1.00000E-45
9.74162E-01 1.00000E-45
9.75528E-01 1.00000E-45
9.76858E-01 1.00000E-45
9.78152E-01 1.00000E-45
9.79410E-01 1.00000E-45
9.80631E-01 1.00000E-45
9.81815E-01 1.00000E-45
9.82963E-01 1.00000E-45
9.84074E-01 1.00000E-45
9.85148E-01 1.00000E-45
9.86185E-01 1.00000E-45
9.87185E-01 1.00000E-45
9.88148E-01 1.00000E-45
9.89074E-01 1.00000E-45
9.89962E-01 1.00000E-45
9.90814E-01 1.00000E-45
9.91627E-01 1.00000E-45
9.92404E-01 1.00000E-45
9.93143E-01 1.00000E-45
9.93844E-01 1.00000E-45
9.94508E-01 1.00000E-45
9.95134E-01 1.00000E-45
9.95722E-01 1.00000E-45
9.96273E-01 1.00000E-45
9.96786E-01 1.00000E-45
9.97261E-01 1.00000E-45
9.97698E-01 1.00000E-45
9.98097E-01 1.00000E-45
9.98459E-01 1.00000E-45
9.98782E-01 1.00000E-45
9.99067E-01 1.00000E-45
9.99315E-01 1.00000E-45
9.99524E-01 1.00000E-45
9.99695E-01 1.00000E-45
9.99829E-01 1.00000E-45
9.99924E-01 1.00000E-45
9.99981E-01 1.00000E-45
1.00000E+00 1.00000E-45
