 #
 # Subroutine ELSEPA. Elastic scattering of electrons and positrons
 #                    by neutral atoms and positive ions
 #
 # Projectile: electron
 # Kinetic energy = 1.50000E+07 eV = 5.51240E+05 a.u.
 #
 # WARNING: High-energy factorization with free-atom DF screening.
 #          Absorption, polarization and exchange corrections are
 #          switched off.
 #          Phase shifts are calculated for the bare nucleus.
 #          Scattering amplitudes are not evaluated.
 #
 # Element: Si,  Z =  14,  atomic weight = 2.80855E+01 g/mol
 #
 # Nuclear model: Fermi distribution
 #                Average radius = 3.25245E-13 cm
 #                Skin thickness = 5.46000E-14 cm
 #
 # Number of electrons = 14
 #
 # Total elastic cross section = 8.88831E-19 cm**2 = 3.17407E-02 a0**2
 # 1st transport cross section = 1.49350E-24 cm**2 = 5.33337E-08 a0**2
 # 2nd transport cross section = 4.30690E-24 cm**2 = 1.53802E-07 a0**2
 #
 #
 # Differential cross section:                       MU=(1-COS(THETA))/2
 #
 #  THETA        MU          DCS          DCS        Sherman      error
 #  (deg)                 (cm**2/sr)   (a0**2/sr)    function
 #----------------------------------------------------------------------
0.00000E+00 3.06161E-12
7.61557E-13 3.06139E-12
1.18994E-12 3.06127E-12
1.71346E-12 3.06112E-12
2.33225E-12 3.06095E-12
3.04617E-12 3.06074E-12
3.85530E-12 3.06052E-12
4.75964E-12 3.06026E-12
5.75917E-12 3.05998E-12
6.85391E-12 3.05967E-12
8.04379E-12 3.05934E-12
9.32893E-12 3.05897E-12
1.07092E-11 3.05859E-12
1.21847E-11 3.05817E-12
1.37554E-11 3.05773E-12
1.54213E-11 3.05726E-12
1.71823E-11 3.05677E-12
1.90386E-11 3.05625E-12
2.09900E-11 3.05570E-12
2.30367E-11 3.05513E-12
2.51785E-11 3.05453E-12
2.74156E-11 3.05390E-12
2.97478E-11 3.05325E-12
3.21752E-11 3.05257E-12
3.46979E-11 3.05186E-12
3.73157E-11 3.05113E-12
4.00286E-11 3.05038E-12
4.28368E-11 3.04959E-12
4.57402E-11 3.04878E-12
4.87388E-11 3.04794E-12
5.18325E-11 3.04708E-12
5.50215E-11 3.04619E-12
5.83057E-11 3.04528E-12
6.16850E-11 3.04434E-12
6.51595E-11 3.04337E-12
6.87293E-11 3.04238E-12
7.23943E-11 3.04136E-12
7.61544E-11 3.04031E-12
1.18991E-10 3.02845E-12
1.71347E-10 3.01404E-12
2.33223E-10 2.99714E-12
3.04617E-10 2.97781E-12
3.85531E-10 2.95612E-12
4.75965E-10 2.93214E-12
5.75917E-10 2.90597E-12
6.85389E-10 2.87768E-12
8.04380E-10 2.84737E-12
9.32891E-10 2.81514E-12
1.07092E-09 2.78111E-12
1.21847E-09 2.74537E-12
1.37554E-09 2.70805E-12
1.54213E-09 2.66925E-12
1.71823E-09 2.62909E-12
1.90386E-09 2.58769E-12
2.09900E-09 2.54517E-12
2.30367E-09 2.50164E-12
2.51785E-09 2.45719E-12
2.74156E-09 2.41196E-12
2.97478E-09 2.36607E-12
3.21752E-09 2.31961E-12
3.46978E-09 2.27271E-12
3.73156E-09 2.22547E-12
4.00286E-09 2.17797E-12
4.28368E-09 2.13033E-12
4.57402E-09 2.08263E-12
4.87388E-09 2.03496E-12
5.18326E-09 1.98741E-12
5.50215E-09 1.94002E-12
5.83057E-09 1.89289E-12
6.16850E-09 1.84610E-12
6.51596E-09 1.79915E-12
6.87293E-09 1.75163E-12
7.23942E-09 1.70510E-12
7.61544E-09 1.65959E-12
1.18991E-08 1.25081E-12
1.71347E-08 9.24824E-13
2.33223E-08 6.79329E-13
3.04617E-08 5.00469E-13
3.85531E-08 3.72274E-13
4.75965E-08 2.80831E-13
5.75917E-08 2.15390E-13
6.85389E-08 1.68146E-13
8.04380E-08 1.33614E-13
9.32891E-08 1.07984E-13
1.07092E-07 8.86478E-14
1.21847E-07 7.38112E-14
1.37554E-07 6.22358E-14
1.54213E-07 5.30571E-14
1.71823E-07 4.56671E-14
1.90386E-07 3.96337E-14
2.09900E-07 3.46437E-14
2.30367E-07 3.04679E-14
2.51785E-07 2.69314E-14
2.74156E-07 2.39119E-14
2.97478E-07 2.13140E-14
3.21752E-07 1.90633E-14
3.46978E-07 1.71018E-14
3.73156E-07 1.53834E-14
4.00286E-07 1.38711E-14
4.28368E-07 1.25350E-14
4.57402E-07 1.13502E-14
4.87388E-07 1.02964E-14
5.18325E-07 9.35657E-15
5.50215E-07 8.51528E-15
5.83057E-07 7.76142E-15
6.16850E-07 7.08489E-15
6.51596E-07 6.47249E-15
6.87293E-07 5.91612E-15
7.23942E-07 5.42318E-15
7.61543E-07 4.98499E-15
1.18991E-06 2.26199E-15
1.71347E-06 1.14557E-15
2.33223E-06 6.35883E-16
3.04617E-06 3.80437E-16
3.85531E-06 2.41801E-16
4.75964E-06 1.61330E-16
5.75916E-06 1.11946E-16
6.85388E-06 8.02083E-17
8.04378E-06 5.90209E-17
9.32888E-06 4.44166E-17
1.07092E-05 3.40724E-17
1.21846E-05 2.65738E-17
1.37553E-05 2.10289E-17
1.54212E-05 1.68560E-17
1.71822E-05 1.36664E-17
1.90385E-05 1.11954E-17
2.09899E-05 9.25668E-18
2.30365E-05 7.71848E-18
2.51783E-05 6.48561E-18
2.74153E-05 5.48852E-18
2.97475E-05 4.67529E-18
3.21749E-05 4.00681E-18
3.46974E-05 3.45329E-18
3.73152E-05 2.99187E-18
4.00281E-05 2.60479E-18
4.28362E-05 2.27812E-18
4.57395E-05 2.00093E-18
4.87380E-05 1.76452E-18
5.18317E-05 1.56192E-18
5.50205E-05 1.38751E-18
5.83045E-05 1.23674E-18
6.16838E-05 1.10586E-18
6.51582E-05 9.91818E-19
6.87277E-05 8.92086E-19
7.23925E-05 8.04558E-19
7.61524E-05 7.27484E-19
9.21439E-05 4.97793E-19
1.09658E-04 3.51954E-19
1.28695E-04 2.55792E-19
1.49255E-04 1.90328E-19
1.71338E-04 1.44526E-19
1.94942E-04 1.11706E-19
2.20070E-04 8.76964E-20
2.46720E-04 6.98040E-20
2.74892E-04 5.62513E-20
3.04586E-04 4.58344E-20
3.35803E-04 3.77214E-20
3.68542E-04 3.13272E-20
4.02802E-04 2.62325E-20
4.38585E-04 2.21331E-20
4.75889E-04 1.88044E-20
5.14715E-04 1.60787E-20
5.55063E-04 1.38295E-20
5.96931E-04 1.19603E-20
6.40321E-04 1.03967E-20
6.85233E-04 9.08056E-21
7.31665E-04 7.96640E-21
7.79618E-04 7.01811E-21
8.29092E-04 6.20689E-21
8.80086E-04 5.50966E-21
9.32601E-04 4.90769E-21
9.86636E-04 4.38580E-21
1.04219E-03 3.93152E-21
1.09927E-03 3.53461E-21
1.15786E-03 3.18658E-21
1.21797E-03 2.88039E-21
1.27961E-03 2.61013E-21
1.34276E-03 2.37087E-21
1.40743E-03 2.15843E-21
1.47362E-03 1.96927E-21
1.54133E-03 1.80041E-21
1.61056E-03 1.64928E-21
1.68131E-03 1.51370E-21
1.75357E-03 1.39178E-21
1.82735E-03 1.28190E-21
1.90265E-03 1.18267E-21
1.97947E-03 1.09286E-21
2.05780E-03 1.01143E-21
2.13765E-03 9.37446E-22
2.21902E-03 8.70114E-22
2.30190E-03 8.08727E-22
2.38630E-03 7.52664E-22
2.47222E-03 7.01382E-22
2.55965E-03 6.54398E-22
2.64859E-03 6.11287E-22
2.73905E-03 5.71673E-22
2.83103E-03 5.35219E-22
2.92452E-03 5.01629E-22
3.01952E-03 4.70636E-22
3.11604E-03 4.42003E-22
3.21407E-03 4.15517E-22
3.31362E-03 3.90987E-22
3.41468E-03 3.68244E-22
3.51725E-03 3.47132E-22
3.62133E-03 3.27514E-22
3.72692E-03 3.09264E-22
3.83403E-03 2.92269E-22
3.94265E-03 2.76426E-22
4.05278E-03 2.61645E-22
4.16442E-03 2.47839E-22
4.27757E-03 2.34933E-22
4.39223E-03 2.22858E-22
4.50840E-03 2.11549E-22
4.62608E-03 2.00949E-22
4.74527E-03 1.91006E-22
4.86597E-03 1.81672E-22
4.98817E-03 1.72901E-22
5.11188E-03 1.64654E-22
5.23711E-03 1.56893E-22
5.36383E-03 1.49585E-22
5.49207E-03 1.42698E-22
5.62181E-03 1.36204E-22
5.75306E-03 1.30075E-22
5.88581E-03 1.24287E-22
6.02007E-03 1.18818E-22
6.15583E-03 1.13648E-22
6.29310E-03 1.08755E-22
6.43187E-03 1.04124E-22
6.57214E-03 9.97368E-23
6.71392E-03 9.55785E-23
6.85720E-03 9.16350E-23
7.00198E-03 8.78931E-23
7.14827E-03 8.43405E-23
7.29605E-03 8.09658E-23
7.44534E-03 7.77585E-23
7.59612E-03 7.47086E-23
7.97965E-03 6.77140E-23
8.37255E-03 6.15201E-23
8.77480E-03 5.60194E-23
9.18641E-03 5.11207E-23
9.60736E-03 4.67466E-23
1.00376E-02 4.28310E-23
1.04773E-02 3.93174E-23
1.09262E-02 3.61573E-23
1.13844E-02 3.33087E-23
1.18520E-02 3.07355E-23
1.23288E-02 2.84064E-23
1.28150E-02 2.62940E-23
1.33104E-02 2.43745E-23
1.38150E-02 2.26273E-23
1.43290E-02 2.10340E-23
1.48521E-02 1.95786E-23
1.53845E-02 1.82471E-23
1.59262E-02 1.70270E-23
1.64770E-02 1.59073E-23
1.70371E-02 1.48782E-23
1.76063E-02 1.39311E-23
1.81848E-02 1.30582E-23
1.87724E-02 1.22526E-23
1.93692E-02 1.15083E-23
1.99751E-02 1.08197E-23
2.05901E-02 1.01819E-23
2.12143E-02 9.59039E-24
2.18476E-02 9.04126E-24
2.24900E-02 8.53089E-24
2.31415E-02 8.05605E-24
2.38021E-02 7.61380E-24
2.44717E-02 7.20149E-24
2.51504E-02 6.81673E-24
2.58382E-02 6.45733E-24
2.65349E-02 6.12131E-24
2.72407E-02 5.80687E-24
2.79555E-02 5.51236E-24
2.86793E-02 5.23628E-24
2.94120E-02 4.97728E-24
3.01537E-02 4.73408E-24
3.09043E-02 4.50556E-24
3.16639E-02 4.29065E-24
3.24324E-02 4.08841E-24
3.32098E-02 3.89793E-24
3.39961E-02 3.71841E-24
3.47912E-02 3.54910E-24
3.55952E-02 3.38931E-24
3.64081E-02 3.23840E-24
3.72297E-02 3.09580E-24
3.80602E-02 2.96095E-24
3.88995E-02 2.83335E-24
3.97476E-02 2.71255E-24
4.06044E-02 2.59810E-24
4.14700E-02 2.48962E-24
4.23443E-02 2.38674E-24
4.32273E-02 2.28910E-24
4.41190E-02 2.19640E-24
4.50194E-02 2.10834E-24
4.59284E-02 2.02464E-24
4.68461E-02 1.94504E-24
4.87074E-02 1.79721E-24
5.06030E-02 1.66314E-24
5.25328E-02 1.54131E-24
5.44967E-02 1.43040E-24
5.64946E-02 1.32926E-24
5.85262E-02 1.23687E-24
6.05914E-02 1.15234E-24
6.26901E-02 1.07489E-24
6.48222E-02 1.00381E-24
6.69873E-02 9.38486E-25
6.91854E-02 8.78364E-25
7.14163E-02 8.22958E-25
7.36799E-02 7.71829E-25
7.59760E-02 7.24589E-25
7.83043E-02 6.80887E-25
8.06647E-02 6.40410E-25
8.30571E-02 6.02878E-25
8.54812E-02 5.68037E-25
8.79369E-02 5.35659E-25
9.04240E-02 5.05537E-25
9.29422E-02 4.77487E-25
9.54915E-02 4.51340E-25
9.80716E-02 4.26943E-25
1.00682E-01 4.04158E-25
1.03323E-01 3.82858E-25
1.05995E-01 3.62929E-25
1.08696E-01 3.44267E-25
1.11427E-01 3.26777E-25
1.14188E-01 3.10371E-25
1.16978E-01 2.94970E-25
1.19797E-01 2.80501E-25
1.22645E-01 2.66898E-25
1.25522E-01 2.54098E-25
1.28428E-01 2.42047E-25
1.31361E-01 2.30692E-25
1.34323E-01 2.19986E-25
1.37313E-01 2.09884E-25
1.40330E-01 2.00347E-25
1.43375E-01 1.91337E-25
1.46447E-01 1.82819E-25
1.49545E-01 1.74762E-25
1.52671E-01 1.67137E-25
1.55823E-01 1.59915E-25
1.59001E-01 1.53073E-25
1.62205E-01 1.46585E-25
1.65435E-01 1.40431E-25
1.68690E-01 1.34589E-25
1.71970E-01 1.29043E-25
1.75276E-01 1.23772E-25
1.78606E-01 1.18763E-25
1.81961E-01 1.13998E-25
1.85340E-01 1.09465E-25
1.88743E-01 1.05149E-25
1.92169E-01 1.01039E-25
1.95619E-01 9.71224E-26
1.99092E-01 9.33890E-26
2.02589E-01 8.98286E-26
2.06107E-01 8.64316E-26
2.09649E-01 8.31893E-26
2.13212E-01 8.00932E-26
2.16797E-01 7.71357E-26
2.20404E-01 7.43093E-26
2.24032E-01 7.16073E-26
2.27680E-01 6.90231E-26
2.31350E-01 6.65506E-26
2.35040E-01 6.41843E-26
2.38751E-01 6.19187E-26
2.42481E-01 5.97487E-26
2.46231E-01 5.76696E-26
2.50000E-01 5.56769E-26
2.53788E-01 5.37664E-26
2.57595E-01 5.19340E-26
2.61421E-01 5.01760E-26
2.65264E-01 4.84889E-26
2.69126E-01 4.68692E-26
2.73005E-01 4.53138E-26
2.76901E-01 4.38197E-26
2.80814E-01 4.23840E-26
2.84744E-01 4.10041E-26
2.88691E-01 3.96774E-26
2.92653E-01 3.84014E-26
2.96632E-01 3.71740E-26
3.00625E-01 3.59928E-26
3.04634E-01 3.48560E-26
3.08658E-01 3.37614E-26
3.12697E-01 3.27073E-26
3.16749E-01 3.16919E-26
3.20816E-01 3.07136E-26
3.24896E-01 2.97707E-26
3.28990E-01 2.88617E-26
3.33097E-01 2.79852E-26
3.37216E-01 2.71399E-26
3.41348E-01 2.63244E-26
3.45492E-01 2.55375E-26
3.49647E-01 2.47780E-26
3.53814E-01 2.40448E-26
3.57992E-01 2.33369E-26
3.62181E-01 2.26531E-26
3.66381E-01 2.19926E-26
3.70590E-01 2.13545E-26
3.74810E-01 2.07377E-26
3.79039E-01 2.01416E-26
3.83277E-01 1.95652E-26
3.87524E-01 1.90078E-26
3.91780E-01 1.84687E-26
3.96044E-01 1.79472E-26
4.00316E-01 1.74426E-26
4.04596E-01 1.69543E-26
4.08882E-01 1.64816E-26
4.13176E-01 1.60240E-26
4.17476E-01 1.55809E-26
4.21783E-01 1.51518E-26
4.26095E-01 1.47361E-26
4.30413E-01 1.43334E-26
4.34737E-01 1.39431E-26
4.39065E-01 1.35650E-26
4.43398E-01 1.31984E-26
4.47736E-01 1.28430E-26
4.52077E-01 1.24984E-26
4.56422E-01 1.21642E-26
4.60770E-01 1.18400E-26
4.65122E-01 1.15255E-26
4.69476E-01 1.12204E-26
4.73832E-01 1.09243E-26
4.78190E-01 1.06370E-26
4.82550E-01 1.03580E-26
4.86912E-01 1.00872E-26
4.91274E-01 9.82429E-27
4.95637E-01 9.56894E-27
5.00000E-01 9.32092E-27
5.04363E-01 9.08001E-27
5.08726E-01 8.84595E-27
5.13088E-01 8.61852E-27
5.17450E-01 8.39751E-27
5.21810E-01 8.18271E-27
5.26168E-01 7.97390E-27
5.30524E-01 7.77091E-27
5.34878E-01 7.57354E-27
5.39230E-01 7.38162E-27
5.43578E-01 7.19496E-27
5.47923E-01 7.01341E-27
5.52264E-01 6.83679E-27
5.56602E-01 6.66496E-27
5.60935E-01 6.49777E-27
5.65263E-01 6.33507E-27
5.69587E-01 6.17673E-27
5.73905E-01 6.02260E-27
5.78217E-01 5.87257E-27
5.82524E-01 5.72650E-27
5.86824E-01 5.58427E-27
5.91118E-01 5.44577E-27
5.95404E-01 5.31089E-27
5.99684E-01 5.17952E-27
6.03956E-01 5.05155E-27
6.08220E-01 4.92688E-27
6.12476E-01 4.80542E-27
6.16723E-01 4.68707E-27
6.20961E-01 4.57174E-27
6.25190E-01 4.45934E-27
6.29410E-01 4.34979E-27
6.33619E-01 4.24300E-27
6.37819E-01 4.13890E-27
6.42008E-01 4.03740E-27
6.46186E-01 3.93844E-27
6.50353E-01 3.84194E-27
6.54508E-01 3.74784E-27
6.58652E-01 3.65606E-27
6.62784E-01 3.56654E-27
6.66903E-01 3.47921E-27
6.71010E-01 3.39403E-27
6.75104E-01 3.31092E-27
6.79184E-01 3.22982E-27
6.83251E-01 3.15070E-27
6.87303E-01 3.07348E-27
6.91342E-01 2.99813E-27
6.95366E-01 2.92458E-27
6.99375E-01 2.85280E-27
7.03368E-01 2.78272E-27
7.07347E-01 2.71431E-27
7.11309E-01 2.64753E-27
7.15256E-01 2.58233E-27
7.19186E-01 2.51866E-27
7.23099E-01 2.45649E-27
7.26995E-01 2.39578E-27
7.30874E-01 2.33649E-27
7.34736E-01 2.27859E-27
7.38579E-01 2.22203E-27
7.42405E-01 2.16679E-27
7.46212E-01 2.11282E-27
7.50000E-01 2.06011E-27
7.53769E-01 2.00861E-27
7.57519E-01 1.95829E-27
7.61249E-01 1.90913E-27
7.64960E-01 1.86109E-27
7.68650E-01 1.81416E-27
7.72320E-01 1.76829E-27
7.75968E-01 1.72347E-27
7.79596E-01 1.67966E-27
7.83203E-01 1.63685E-27
7.86788E-01 1.59501E-27
7.90351E-01 1.55411E-27
7.93893E-01 1.51414E-27
7.97411E-01 1.47507E-27
8.00908E-01 1.43687E-27
8.04381E-01 1.39954E-27
8.07831E-01 1.36304E-27
8.11257E-01 1.32736E-27
8.14660E-01 1.29247E-27
8.18039E-01 1.25837E-27
8.21394E-01 1.22503E-27
8.24724E-01 1.19243E-27
8.28030E-01 1.16056E-27
8.31310E-01 1.12939E-27
8.34565E-01 1.09893E-27
8.37795E-01 1.06913E-27
8.40999E-01 1.04001E-27
8.44177E-01 1.01152E-27
8.47329E-01 9.83675E-28
8.50455E-01 9.56445E-28
8.53553E-01 9.29819E-28
8.56625E-01 9.03785E-28
8.59670E-01 8.78329E-28
8.62687E-01 8.53439E-28
8.65677E-01 8.29102E-28
8.68639E-01 8.05307E-28
8.71572E-01 7.82041E-28
8.74478E-01 7.59294E-28
8.77355E-01 7.37054E-28
8.80203E-01 7.15311E-28
8.83022E-01 6.94054E-28
8.85812E-01 6.73273E-28
8.88573E-01 6.52957E-28
8.91304E-01 6.33099E-28
8.94005E-01 6.13687E-28
8.96677E-01 5.94713E-28
8.99318E-01 5.76168E-28
9.01928E-01 5.58044E-28
9.04508E-01 5.40331E-28
9.07058E-01 5.23023E-28
9.09576E-01 5.06110E-28
9.12063E-01 4.89585E-28
9.14519E-01 4.73441E-28
9.16943E-01 4.57670E-28
9.19335E-01 4.42265E-28
9.21696E-01 4.27219E-28
9.24024E-01 4.12526E-28
9.26320E-01 3.98178E-28
9.28584E-01 3.84170E-28
9.30815E-01 3.70496E-28
9.33013E-01 3.57148E-28
9.35178E-01 3.44121E-28
9.37310E-01 3.31411E-28
9.39409E-01 3.19010E-28
9.41474E-01 3.06914E-28
9.43505E-01 2.95117E-28
9.45503E-01 2.83614E-28
9.47467E-01 2.72401E-28
9.49397E-01 2.61472E-28
9.51293E-01 2.50823E-28
9.53154E-01 2.40449E-28
9.54981E-01 2.30346E-28
9.56773E-01 2.20510E-28
9.58530E-01 2.10936E-28
9.60252E-01 2.01620E-28
9.61940E-01 1.92559E-28
9.63592E-01 1.83748E-28
9.65209E-01 1.75184E-28
9.66790E-01 1.66863E-28
9.68336E-01 1.58783E-28
9.69846E-01 1.50939E-28
9.71321E-01 1.43328E-28
9.72759E-01 1.35947E-28
9.74162E-01 1.28794E-28
9.75528E-01 1.21864E-28
9.76858E-01 1.15156E-28
9.78152E-01 1.08666E-28
9.79410E-01 1.02393E-28
9.80631E-01 9.63324E-29
9.81815E-01 9.04829E-29
9.82963E-01 8.48420E-29
9.84074E-01 7.94073E-29
9.85148E-01 7.41767E-29
9.86185E-01 6.91480E-29
9.87185E-01 6.43191E-29
9.88148E-01 5.96883E-29
9.89074E-01 5.52535E-29
9.89962E-01 5.10130E-29
9.90814E-01 4.69652E-29
9.91627E-01 4.31084E-29
9.92404E-01 3.94410E-29
9.93143E-01 3.59617E-29
9.93844E-01 3.26689E-29
9.94508E-01 2.95615E-29
9.95134E-01 2.66382E-29
9.95722E-01 2.38977E-29
9.96273E-01 2.13391E-29
9.96786E-01 1.89613E-29
9.97261E-01 1.67634E-29
9.97698E-01 1.47445E-29
9.98097E-01 1.29038E-29
9.98459E-01 1.12406E-29
9.98782E-01 9.75424E-30
9.99067E-01 8.44410E-30
9.99315E-01 7.30969E-30
9.99524E-01 6.35055E-30
9.99695E-01 5.56632E-30
9.99829E-01 4.95669E-30
9.99924E-01 4.52140E-30
9.99981E-01 4.26030E-30
1.00000E+00 4.17328E-30
