 #
 # Subroutine ELSEPA. Elastic scattering of electrons and positrons
 #                    by neutral atoms and positive ions
 #
 # Projectile: electron
 # Kinetic energy = 1.75000E+08 eV = 6.43113E+06 a.u.
 #
 # WARNING: High-energy factorization with free-atom DF screening.
 #          Absorption, polarization and exchange corrections are
 #          switched off.
 #          Phase shifts are calculated for the bare nucleus.
 #          Scattering amplitudes are not evaluated.
 #
 # Element: Si,  Z =  14,  atomic weight = 2.80855E+01 g/mol
 #
 # Nuclear model: Fermi distribution
 #                Average radius = 3.25245E-13 cm
 #                Skin thickness = 5.46000E-14 cm
 #
 # Number of electrons = 14
 #
 # Total elastic cross section = 8.87976E-19 cm**2 = 3.17102E-02 a0**2
 # 1st transport cross section = 1.37441E-26 cm**2 = 4.90810E-10 a0**2
 # 2nd transport cross section = 4.10389E-26 cm**2 = 1.46553E-09 a0**2
 #
 #
 # Differential cross section:                       MU=(1-COS(THETA))/2
 #
 #  THETA        MU          DCS          DCS        Sherman      error
 #  (deg)                 (cm**2/sr)   (a0**2/sr)    function
 #----------------------------------------------------------------------
0.00000E+00 3.91994E-10
7.61557E-13 3.88504E-10
1.18994E-12 3.86563E-10
1.71346E-12 3.84211E-10
2.33225E-12 3.81458E-10
3.04617E-12 3.78318E-10
3.85530E-12 3.74802E-10
4.75964E-12 3.70927E-10
5.75917E-12 3.66711E-10
6.85391E-12 3.62173E-10
8.04379E-12 3.57331E-10
9.32893E-12 3.52201E-10
1.07092E-11 3.46809E-10
1.21847E-11 3.41176E-10
1.37554E-11 3.35324E-10
1.54213E-11 3.29266E-10
1.71823E-11 3.23032E-10
1.90386E-11 3.16645E-10
2.09900E-11 3.10124E-10
2.30367E-11 3.03486E-10
2.51785E-11 2.96753E-10
2.74156E-11 2.89949E-10
2.97478E-11 2.83094E-10
3.21752E-11 2.76201E-10
3.46979E-11 2.69285E-10
3.73157E-11 2.62370E-10
4.00286E-11 2.55472E-10
4.28368E-11 2.48604E-10
4.57402E-11 2.41772E-10
4.87388E-11 2.34998E-10
5.18325E-11 2.28142E-10
5.50215E-11 2.21315E-10
5.83057E-11 2.14652E-10
6.16850E-11 2.08157E-10
6.51595E-11 2.01836E-10
6.87293E-11 1.95688E-10
7.23943E-11 1.89716E-10
7.61544E-11 1.83921E-10
1.18991E-10 1.31484E-10
1.71347E-10 9.27224E-11
2.33223E-10 6.55374E-11
3.04617E-10 4.68856E-11
3.85531E-10 3.41492E-11
4.75965E-10 2.54165E-11
5.75917E-10 1.93546E-11
6.85389E-10 1.50702E-11
8.04380E-10 1.19806E-11
9.32891E-10 9.70473E-12
1.07092E-09 7.99117E-12
1.21847E-09 6.67421E-12
1.37554E-09 5.64245E-12
1.54213E-09 4.81799E-12
1.71823E-09 4.14970E-12
1.90386E-09 3.60039E-12
2.09900E-09 3.14325E-12
2.30367E-09 2.75765E-12
2.51785E-09 2.42987E-12
2.74156E-09 2.14955E-12
2.97478E-09 1.90821E-12
3.21752E-09 1.69887E-12
3.46978E-09 1.51627E-12
3.73156E-09 1.35675E-12
4.00286E-09 1.21686E-12
4.28368E-09 1.09373E-12
4.57402E-09 9.84734E-13
4.87388E-09 8.88366E-13
5.18326E-09 8.01829E-13
5.50215E-09 7.25267E-13
5.83057E-09 6.58387E-13
6.16850E-09 5.98589E-13
6.51596E-09 5.44070E-13
6.87293E-09 4.96017E-13
7.23942E-09 4.53318E-13
7.61544E-09 4.13969E-13
1.18991E-08 1.82648E-13
1.71347E-08 9.13158E-14
2.33223E-08 5.04836E-14
3.04617E-08 3.01989E-14
3.85531E-08 1.92105E-14
4.75965E-08 1.28266E-14
5.75917E-08 8.90227E-15
6.85389E-08 6.37667E-15
8.04380E-08 4.68880E-15
9.32891E-08 3.52486E-15
1.07092E-07 2.70063E-15
1.21847E-07 2.10354E-15
1.37554E-07 1.66237E-15
1.54213E-07 1.33073E-15
1.71823E-07 1.07756E-15
1.90386E-07 8.81644E-16
2.09900E-07 7.28144E-16
2.30367E-07 6.06528E-16
2.51785E-07 5.09189E-16
2.74156E-07 4.30550E-16
2.97478E-07 3.66475E-16
3.21752E-07 3.13851E-16
3.46978E-07 2.70316E-16
3.73156E-07 2.34053E-16
4.00286E-07 2.03657E-16
4.28368E-07 1.78026E-16
4.57402E-07 1.56294E-16
4.87388E-07 1.37773E-16
5.18325E-07 1.21909E-16
5.50215E-07 1.08261E-16
5.83057E-07 9.64658E-17
6.16850E-07 8.62321E-17
6.51596E-07 7.73182E-17
6.87293E-07 6.95254E-17
7.23942E-07 6.26884E-17
7.61543E-07 5.66706E-17
1.18991E-06 2.32624E-17
1.71347E-06 1.12290E-17
2.33223E-06 6.06414E-18
3.04617E-06 3.55575E-18
3.85531E-06 2.22029E-18
4.75964E-06 1.45687E-18
5.75916E-06 9.95140E-19
6.85388E-06 7.02687E-19
8.04378E-06 5.10206E-19
9.32888E-06 3.79348E-19
1.07092E-05 2.87883E-19
1.21846E-05 2.22399E-19
1.37553E-05 1.74521E-19
1.54212E-05 1.38862E-19
1.71822E-05 1.11864E-19
1.90385E-05 9.11245E-20
2.09899E-05 7.49748E-20
2.30365E-05 6.22480E-20
2.51783E-05 5.21099E-20
2.74153E-05 4.39542E-20
2.97475E-05 3.73339E-20
3.21749E-05 3.19152E-20
3.46974E-05 2.74454E-20
3.73152E-05 2.37319E-20
4.00281E-05 2.06258E-20
4.28362E-05 1.80116E-20
4.57395E-05 1.57987E-20
4.87380E-05 1.39153E-20
5.18317E-05 1.23044E-20
5.50205E-05 1.09201E-20
5.83045E-05 9.72511E-21
6.16838E-05 8.68933E-21
6.51582E-05 7.78793E-21
6.87277E-05 7.00049E-21
7.23925E-05 6.31012E-21
7.61524E-05 5.69884E-21
9.21439E-05 3.89273E-21
1.09658E-04 2.74881E-21
1.28695E-04 1.99585E-21
1.49255E-04 1.48392E-21
1.71338E-04 1.12610E-21
1.94942E-04 8.69895E-22
2.20070E-04 6.82580E-22
2.46720E-04 5.43062E-22
2.74892E-04 4.37431E-22
3.04586E-04 3.56271E-22
3.35803E-04 2.93082E-22
3.68542E-04 2.43297E-22
4.02802E-04 2.03641E-22
4.38585E-04 1.71742E-22
4.75889E-04 1.45846E-22
5.14715E-04 1.24649E-22
5.55063E-04 1.07163E-22
5.96931E-04 9.26353E-23
6.40321E-04 8.04857E-23
6.85233E-04 7.02617E-23
7.31665E-04 6.16086E-23
7.79618E-04 5.42457E-23
8.29092E-04 4.79487E-23
8.80086E-04 4.25380E-23
9.32601E-04 3.78679E-23
9.86636E-04 3.38203E-23
1.04219E-03 3.02980E-23
1.09927E-03 2.72216E-23
1.15786E-03 2.45249E-23
1.21797E-03 2.21531E-23
1.27961E-03 2.00604E-23
1.34276E-03 1.82083E-23
1.40743E-03 1.65645E-23
1.47362E-03 1.51014E-23
1.54133E-03 1.37957E-23
1.61056E-03 1.26276E-23
1.68131E-03 1.15801E-23
1.75357E-03 1.06385E-23
1.82735E-03 9.79027E-24
1.90265E-03 9.02452E-24
1.97947E-03 8.33182E-24
2.05780E-03 7.70398E-24
2.13765E-03 7.13386E-24
2.21902E-03 6.61522E-24
2.30190E-03 6.14259E-24
2.38630E-03 5.71116E-24
2.47222E-03 5.31671E-24
2.55965E-03 4.95550E-24
2.64859E-03 4.62424E-24
2.73905E-03 4.32000E-24
2.83103E-03 4.04019E-24
2.92452E-03 3.78249E-24
3.01952E-03 3.54485E-24
3.11604E-03 3.32542E-24
3.21407E-03 3.12256E-24
3.31362E-03 2.93480E-24
3.41468E-03 2.76081E-24
3.51725E-03 2.59940E-24
3.62133E-03 2.44950E-24
3.72692E-03 2.31013E-24
3.83403E-03 2.18044E-24
3.94265E-03 2.05961E-24
4.05278E-03 1.94695E-24
4.16442E-03 1.84180E-24
4.27757E-03 1.74356E-24
4.39223E-03 1.65171E-24
4.50840E-03 1.56575E-24
4.62608E-03 1.48523E-24
4.74527E-03 1.40976E-24
4.86597E-03 1.33895E-24
4.98817E-03 1.27247E-24
5.11188E-03 1.21000E-24
5.23711E-03 1.15127E-24
5.36383E-03 1.09600E-24
5.49207E-03 1.04395E-24
5.62181E-03 9.94908E-25
5.75306E-03 9.48664E-25
5.88581E-03 9.05030E-25
6.02007E-03 8.63832E-25
6.15583E-03 8.24910E-25
6.29310E-03 7.88116E-25
6.43187E-03 7.53312E-25
6.57214E-03 7.20371E-25
6.71392E-03 6.89176E-25
6.85720E-03 6.59618E-25
7.00198E-03 6.31595E-25
7.14827E-03 6.05014E-25
7.29605E-03 5.79786E-25
7.44534E-03 5.55832E-25
7.59612E-03 5.33074E-25
7.97965E-03 4.80965E-25
8.37255E-03 4.34931E-25
8.77480E-03 3.94149E-25
9.18641E-03 3.57921E-25
9.60736E-03 3.25657E-25
1.00376E-02 2.96851E-25
1.04773E-02 2.71073E-25
1.09262E-02 2.47952E-25
1.13844E-02 2.27170E-25
1.18520E-02 2.08452E-25
1.23288E-02 1.91560E-25
1.28150E-02 1.76286E-25
1.33104E-02 1.62451E-25
1.38150E-02 1.49897E-25
1.43290E-02 1.38487E-25
1.48521E-02 1.28099E-25
1.53845E-02 1.18627E-25
1.59262E-02 1.09978E-25
1.64770E-02 1.02069E-25
1.70371E-02 9.48259E-26
1.76063E-02 8.81844E-26
1.81848E-02 8.20864E-26
1.87724E-02 7.64806E-26
1.93692E-02 7.13210E-26
1.99751E-02 6.65665E-26
2.05901E-02 6.21805E-26
2.12143E-02 5.81298E-26
2.18476E-02 5.43851E-26
2.24900E-02 5.09195E-26
2.31415E-02 4.77092E-26
2.38021E-02 4.47325E-26
2.44717E-02 4.19698E-26
2.51504E-02 3.94035E-26
2.58382E-02 3.70175E-26
2.65349E-02 3.47972E-26
2.72407E-02 3.27295E-26
2.79555E-02 3.08024E-26
2.86793E-02 2.90048E-26
2.94120E-02 2.73269E-26
3.01537E-02 2.57595E-26
3.09043E-02 2.42943E-26
3.16639E-02 2.29237E-26
3.24324E-02 2.16408E-26
3.32098E-02 2.04391E-26
3.39961E-02 1.93128E-26
3.47912E-02 1.82565E-26
3.55952E-02 1.72652E-26
3.64081E-02 1.63345E-26
3.72297E-02 1.54602E-26
3.80602E-02 1.46382E-26
3.88995E-02 1.38652E-26
3.97476E-02 1.31378E-26
4.06044E-02 1.24530E-26
4.14700E-02 1.18079E-26
4.23443E-02 1.12000E-26
4.32273E-02 1.06269E-26
4.41190E-02 1.00862E-26
4.50194E-02 9.57604E-27
4.59284E-02 9.09436E-27
4.68461E-02 8.63942E-27
4.87074E-02 7.80320E-27
5.06030E-02 7.05543E-27
5.25328E-02 6.38573E-27
5.44967E-02 5.78510E-27
5.64946E-02 5.24567E-27
5.85262E-02 4.76058E-27
6.05914E-02 4.32380E-27
6.26901E-02 3.93007E-27
6.48222E-02 3.57474E-27
6.69873E-02 3.25373E-27
6.91854E-02 2.96342E-27
7.14163E-02 2.70062E-27
7.36799E-02 2.46251E-27
7.59760E-02 2.24659E-27
7.83043E-02 2.05061E-27
8.06647E-02 1.87260E-27
8.30571E-02 1.71079E-27
8.54812E-02 1.56360E-27
8.79369E-02 1.42961E-27
9.04240E-02 1.30757E-27
9.29422E-02 1.19634E-27
9.54915E-02 1.09491E-27
9.80716E-02 1.00236E-27
1.00682E-01 9.17864E-28
1.03323E-01 8.40693E-28
1.05995E-01 7.70176E-28
1.08696E-01 7.05711E-28
1.11427E-01 6.46756E-28
1.14188E-01 5.92817E-28
1.16978E-01 5.43451E-28
1.19797E-01 4.98255E-28
1.22645E-01 4.56864E-28
1.25522E-01 4.18945E-28
1.28428E-01 3.84199E-28
1.31361E-01 3.52352E-28
1.34323E-01 3.23156E-28
1.37313E-01 2.96383E-28
1.40330E-01 2.71829E-28
1.43375E-01 2.49305E-28
1.46447E-01 2.28641E-28
1.49545E-01 2.09680E-28
1.52671E-01 1.92280E-28
1.55823E-01 1.76310E-28
1.59001E-01 1.61653E-28
1.62205E-01 1.48198E-28
1.65435E-01 1.35847E-28
1.68690E-01 1.24509E-28
1.71970E-01 1.14100E-28
1.75276E-01 1.04545E-28
1.78606E-01 9.57724E-29
1.81961E-01 8.77194E-29
1.85340E-01 8.03270E-29
1.88743E-01 7.35414E-29
1.92169E-01 6.73132E-29
1.95619E-01 6.15970E-29
1.99092E-01 5.63513E-29
2.02589E-01 5.15378E-29
2.06107E-01 4.71216E-29
2.09649E-01 4.30704E-29
2.13212E-01 3.93545E-29
2.16797E-01 3.59469E-29
2.20404E-01 3.28225E-29
2.24032E-01 2.99584E-29
2.27680E-01 2.73334E-29
2.31350E-01 2.49281E-29
2.35040E-01 2.27247E-29
2.38751E-01 2.07067E-29
2.42481E-01 1.88591E-29
2.46231E-01 1.71679E-29
2.50000E-01 1.56205E-29
2.53788E-01 1.42049E-29
2.57595E-01 1.29106E-29
2.61421E-01 1.17274E-29
2.65264E-01 1.06463E-29
2.69126E-01 9.65878E-30
2.73005E-01 8.75721E-30
2.76901E-01 7.93444E-30
2.80814E-01 7.18393E-30
2.84744E-01 6.49965E-30
2.88691E-01 5.87609E-30
2.92653E-01 5.30814E-30
2.96632E-01 4.79115E-30
3.00625E-01 4.32079E-30
3.04634E-01 3.89314E-30
3.08658E-01 3.50456E-30
3.12697E-01 3.15170E-30
3.16749E-01 2.83152E-30
3.20816E-01 2.54120E-30
3.24896E-01 2.27815E-30
3.28990E-01 2.04000E-30
3.33097E-01 1.82458E-30
3.37216E-01 1.62989E-30
3.41348E-01 1.45410E-30
3.45492E-01 1.29553E-30
3.49647E-01 1.15264E-30
3.53814E-01 1.02402E-30
3.57992E-01 9.08381E-31
3.62181E-01 8.04537E-31
3.66381E-01 7.11405E-31
3.70590E-01 6.27994E-31
3.74810E-01 5.53399E-31
3.79039E-01 4.86790E-31
3.83277E-01 4.27412E-31
3.87524E-01 3.74571E-31
3.91780E-01 3.27638E-31
3.96044E-01 2.86037E-31
4.00316E-01 2.49243E-31
4.04596E-01 2.16776E-31
4.08882E-01 1.88203E-31
4.13176E-01 1.63127E-31
4.17476E-01 1.41186E-31
4.21783E-01 1.22054E-31
4.26095E-01 1.05433E-31
4.30413E-01 9.10534E-32
4.34737E-01 7.86706E-32
4.39065E-01 6.80630E-32
4.43398E-01 5.90303E-32
4.47736E-01 5.13913E-32
4.52077E-01 4.49826E-32
4.56422E-01 3.96568E-32
4.60770E-01 3.52810E-32
4.65122E-01 3.17358E-32
4.69476E-01 2.89140E-32
4.73832E-01 2.67193E-32
4.78190E-01 2.50656E-32
4.82550E-01 2.38760E-32
4.86912E-01 2.30817E-32
4.91274E-01 2.26217E-32
4.95637E-01 2.24416E-32
5.00000E-01 2.24933E-32
5.04363E-01 2.27343E-32
5.08726E-01 2.31272E-32
5.13088E-01 2.36390E-32
5.17450E-01 2.42409E-32
5.21810E-01 2.49079E-32
5.26168E-01 2.56183E-32
5.30524E-01 2.63532E-32
5.34878E-01 2.70965E-32
5.39230E-01 2.78346E-32
5.43578E-01 2.85559E-32
5.47923E-01 2.92507E-32
5.52264E-01 2.99110E-32
5.56602E-01 3.05305E-32
5.60935E-01 3.11039E-32
5.65263E-01 3.16272E-32
5.69587E-01 3.20976E-32
5.73905E-01 3.25130E-32
5.78217E-01 3.28720E-32
5.82524E-01 3.31741E-32
5.86824E-01 3.34193E-32
5.91118E-01 3.36080E-32
5.95404E-01 3.37412E-32
5.99684E-01 3.38202E-32
6.03956E-01 3.38465E-32
6.08220E-01 3.38219E-32
6.12476E-01 3.37485E-32
6.16723E-01 3.36284E-32
6.20961E-01 3.34639E-32
6.25190E-01 3.32573E-32
6.29410E-01 3.30111E-32
6.33619E-01 3.27278E-32
6.37819E-01 3.24098E-32
6.42008E-01 3.20596E-32
6.46186E-01 3.16796E-32
6.50353E-01 3.12722E-32
6.54508E-01 3.08397E-32
6.58652E-01 3.03845E-32
6.62784E-01 2.99088E-32
6.66903E-01 2.94147E-32
6.71010E-01 2.89043E-32
6.75104E-01 2.83796E-32
6.79184E-01 2.78425E-32
6.83251E-01 2.72947E-32
6.87303E-01 2.67381E-32
6.91342E-01 2.61742E-32
6.95366E-01 2.56046E-32
6.99375E-01 2.50308E-32
7.03368E-01 2.44541E-32
7.07347E-01 2.38759E-32
7.11309E-01 2.32972E-32
7.15256E-01 2.27193E-32
7.19186E-01 2.21432E-32
7.23099E-01 2.15698E-32
7.26995E-01 2.10001E-32
7.30874E-01 2.04348E-32
7.34736E-01 1.98748E-32
7.38579E-01 1.93207E-32
7.42405E-01 1.87730E-32
7.46212E-01 1.82325E-32
7.50000E-01 1.76996E-32
7.53769E-01 1.71747E-32
7.57519E-01 1.66582E-32
7.61249E-01 1.61506E-32
7.64960E-01 1.56521E-32
7.68650E-01 1.51630E-32
7.72320E-01 1.46835E-32
7.75968E-01 1.42138E-32
7.79596E-01 1.37540E-32
7.83203E-01 1.33043E-32
7.86788E-01 1.28648E-32
7.90351E-01 1.24355E-32
7.93893E-01 1.20165E-32
7.97411E-01 1.16078E-32
8.00908E-01 1.12093E-32
8.04381E-01 1.08210E-32
8.07831E-01 1.04430E-32
8.11257E-01 1.00750E-32
8.14660E-01 9.71708E-33
8.18039E-01 9.36908E-33
8.21394E-01 9.03090E-33
8.24724E-01 8.70242E-33
8.28030E-01 8.38350E-33
8.31310E-01 8.07400E-33
8.34565E-01 7.77377E-33
8.37795E-01 7.48266E-33
8.40999E-01 7.20049E-33
8.44177E-01 6.92710E-33
8.47329E-01 6.66231E-33
8.50455E-01 6.40595E-33
8.53553E-01 6.15784E-33
8.56625E-01 5.91779E-33
8.59670E-01 5.68562E-33
8.62687E-01 5.46114E-33
8.65677E-01 5.24417E-33
8.68639E-01 5.03451E-33
8.71572E-01 4.83199E-33
8.74478E-01 4.63641E-33
8.77355E-01 4.44759E-33
8.80203E-01 4.26535E-33
8.83022E-01 4.08950E-33
8.85812E-01 3.91987E-33
8.88573E-01 3.75627E-33
8.91304E-01 3.59853E-33
8.94005E-01 3.44648E-33
8.96677E-01 3.29995E-33
8.99318E-01 3.15876E-33
9.01928E-01 3.02276E-33
9.04508E-01 2.89178E-33
9.07058E-01 2.76567E-33
9.09576E-01 2.64427E-33
9.12063E-01 2.52742E-33
9.14519E-01 2.41499E-33
9.16943E-01 2.30682E-33
9.19335E-01 2.20278E-33
9.21696E-01 2.10272E-33
9.24024E-01 2.00652E-33
9.26320E-01 1.91404E-33
9.28584E-01 1.82515E-33
9.30815E-01 1.73973E-33
9.33013E-01 1.65767E-33
9.35178E-01 1.57884E-33
9.37310E-01 1.50313E-33
9.39409E-01 1.43043E-33
9.41474E-01 1.36064E-33
9.43505E-01 1.29365E-33
9.45503E-01 1.22935E-33
9.47467E-01 1.16766E-33
9.49397E-01 1.10848E-33
9.51293E-01 1.05172E-33
9.53154E-01 9.97293E-34
9.54981E-01 9.45108E-34
9.56773E-01 8.95088E-34
9.58530E-01 8.47152E-34
9.60252E-01 8.01225E-34
9.61940E-01 7.57231E-34
9.63592E-01 7.15102E-34
9.65209E-01 6.74766E-34
9.66790E-01 6.36160E-34
9.68336E-01 5.99219E-34
9.69846E-01 5.63882E-34
9.71321E-01 5.30090E-34
9.72759E-01 4.97785E-34
9.74162E-01 4.66916E-34
9.75528E-01 4.37429E-34
9.76858E-01 4.09273E-34
9.78152E-01 3.82400E-34
9.79410E-01 3.56765E-34
9.80631E-01 3.32324E-34
9.81815E-01 3.09032E-34
9.82963E-01 2.86852E-34
9.84074E-01 2.65742E-34
9.85148E-01 2.45669E-34
9.86185E-01 2.26594E-34
9.87185E-01 2.08485E-34
9.88148E-01 1.91310E-34
9.89074E-01 1.75038E-34
9.89962E-01 1.59639E-34
9.90814E-01 1.45088E-34
9.91627E-01 1.31358E-34
9.92404E-01 1.18423E-34
9.93143E-01 1.06261E-34
9.93844E-01 9.48493E-35
9.94508E-01 8.41679E-35
9.95134E-01 7.41972E-35
9.95722E-01 6.49190E-35
9.96273E-01 5.63164E-35
9.96786E-01 4.83735E-35
9.97261E-01 4.10767E-35
9.97698E-01 3.44110E-35
9.98097E-01 2.83660E-35
9.98459E-01 2.29293E-35
9.98782E-01 1.80916E-35
9.99067E-01 1.38439E-35
9.99315E-01 1.01780E-35
9.99524E-01 7.08770E-36
9.99695E-01 4.56678E-36
9.99829E-01 2.61106E-36
9.99924E-01 1.21660E-36
9.99981E-01 3.81033E-37
1.00000E+00 1.02655E-37
