 #
 # Subroutine ELSEPA. Elastic scattering of electrons and positrons
 #                    by neutral atoms and positive ions
 #
 # Projectile: electron
 # Kinetic energy = 7.00000E+06 eV = 2.57245E+05 a.u.
 #
 # WARNING: High-energy factorization with free-atom DF screening.
 #          Absorption, polarization and exchange corrections are
 #          switched off.
 #          Phase shifts are calculated for the bare nucleus.
 #          Scattering amplitudes are not evaluated.
 #
 # Element: Si,  Z =  14,  atomic weight = 2.80855E+01 g/mol
 #
 # Nuclear model: Fermi distribution
 #                Average radius = 3.25245E-13 cm
 #                Skin thickness = 5.46000E-14 cm
 #
 # Number of electrons = 14
 #
 # Total elastic cross section = 8.92909E-19 cm**2 = 3.18864E-02 a0**2
 # 1st transport cross section = 5.77279E-24 cm**2 = 2.06150E-07 a0**2
 # 2nd transport cross section = 1.65492E-23 cm**2 = 5.90984E-07 a0**2
 #
 #
 # Differential cross section:                       MU=(1-COS(THETA))/2
 #
 #  THETA        MU          DCS          DCS        Sherman      error
 #  (deg)                 (cm**2/sr)   (a0**2/sr)    function
 #----------------------------------------------------------------------
0.00000E+00 7.17903E-13
7.61557E-13 7.17891E-13
1.18994E-12 7.17884E-13
1.71346E-12 7.17876E-13
2.33225E-12 7.17866E-13
3.04617E-12 7.17855E-13
3.85530E-12 7.17842E-13
4.75964E-12 7.17828E-13
5.75917E-12 7.17813E-13
6.85391E-12 7.17796E-13
8.04379E-12 7.17777E-13
9.32893E-12 7.17758E-13
1.07092E-11 7.17736E-13
1.21847E-11 7.17713E-13
1.37554E-11 7.17689E-13
1.54213E-11 7.17663E-13
1.71823E-11 7.17636E-13
1.90386E-11 7.17607E-13
2.09900E-11 7.17577E-13
2.30367E-11 7.17546E-13
2.51785E-11 7.17513E-13
2.74156E-11 7.17478E-13
2.97478E-11 7.17442E-13
3.21752E-11 7.17405E-13
3.46979E-11 7.17366E-13
3.73157E-11 7.17326E-13
4.00286E-11 7.17284E-13
4.28368E-11 7.17241E-13
4.57402E-11 7.17196E-13
4.87388E-11 7.17150E-13
5.18325E-11 7.17102E-13
5.50215E-11 7.17053E-13
5.83057E-11 7.17003E-13
6.16850E-11 7.16951E-13
6.51595E-11 7.16897E-13
6.87293E-11 7.16843E-13
7.23943E-11 7.16786E-13
7.61544E-11 7.16729E-13
1.18991E-10 7.16071E-13
1.71347E-10 7.15270E-13
2.33223E-10 7.14324E-13
3.04617E-10 7.13235E-13
3.85531E-10 7.12005E-13
4.75965E-10 7.10633E-13
5.75917E-10 7.09122E-13
6.85389E-10 7.07472E-13
8.04380E-10 7.05685E-13
9.32891E-10 7.03762E-13
1.07092E-09 7.01706E-13
1.21847E-09 6.99516E-13
1.37554E-09 6.97199E-13
1.54213E-09 6.94749E-13
1.71823E-09 6.92177E-13
1.90386E-09 6.89476E-13
2.09900E-09 6.86657E-13
2.30367E-09 6.83713E-13
2.51785E-09 6.80657E-13
2.74156E-09 6.77481E-13
2.97478E-09 6.74196E-13
3.21752E-09 6.70799E-13
3.46978E-09 6.67296E-13
3.73156E-09 6.63688E-13
4.00286E-09 6.59977E-13
4.28368E-09 6.56169E-13
4.57402E-09 6.52261E-13
4.87388E-09 6.48265E-13
5.18326E-09 6.44173E-13
5.50215E-09 6.40000E-13
5.83057E-09 6.35734E-13
6.16850E-09 6.31398E-13
6.51596E-09 6.26970E-13
6.87293E-09 6.22481E-13
7.23942E-09 6.17905E-13
7.61544E-09 6.13273E-13
1.18991E-08 5.63770E-13
1.71347E-08 5.10684E-13
2.33223E-08 4.56730E-13
3.04617E-08 4.03405E-13
3.85531E-08 3.53703E-13
4.75965E-08 3.08112E-13
5.75917E-08 2.67100E-13
6.85389E-08 2.30608E-13
8.04380E-08 1.98887E-13
9.32891E-08 1.71182E-13
1.07092E-07 1.47579E-13
1.21847E-07 1.27195E-13
1.37554E-07 1.09997E-13
1.54213E-07 9.52403E-14
1.71823E-07 8.28111E-14
1.90386E-07 7.21878E-14
2.09900E-07 6.32040E-14
2.30367E-07 5.55386E-14
2.51785E-07 4.90135E-14
2.74156E-07 4.34317E-14
2.97478E-07 3.86477E-14
3.21752E-07 3.45331E-14
3.46978E-07 3.09815E-14
3.73156E-07 2.79054E-14
4.00286E-07 2.52305E-14
4.28368E-07 2.28955E-14
4.57402E-07 2.08494E-14
4.87388E-07 1.90493E-14
5.18325E-07 1.74589E-14
5.50215E-07 1.60496E-14
5.83057E-07 1.47938E-14
6.16850E-07 1.36737E-14
6.51596E-07 1.26666E-14
6.87293E-07 1.17631E-14
7.23942E-07 1.09442E-14
7.61543E-07 1.02052E-14
1.18991E-06 5.49814E-15
1.71347E-06 3.25237E-15
2.33223E-06 2.02792E-15
3.04617E-06 1.30863E-15
3.85531E-06 8.74572E-16
4.75964E-06 6.00413E-16
5.75916E-06 4.22951E-16
6.85388E-06 3.05412E-16
8.04378E-06 2.25462E-16
9.32888E-06 1.69823E-16
1.07092E-05 1.30311E-16
1.21846E-05 1.01667E-16
1.37553E-05 8.05053E-17
1.54212E-05 6.46130E-17
1.71822E-05 5.24881E-17
1.90385E-05 4.31035E-17
2.09899E-05 3.57450E-17
2.30365E-05 2.99062E-17
2.51783E-05 2.52210E-17
2.74153E-05 2.14262E-17
2.97475E-05 1.83249E-17
3.21749E-05 1.57681E-17
3.46974E-05 1.36450E-17
3.73152E-05 1.18695E-17
4.00281E-05 1.03744E-17
4.28362E-05 9.10812E-18
4.57395E-05 8.02972E-18
4.87380E-05 7.10630E-18
5.18317E-05 6.31183E-18
5.50205E-05 5.62545E-18
5.83045E-05 5.02980E-18
6.16838E-05 4.51079E-18
6.51582E-05 4.05702E-18
6.87277E-05 3.65879E-18
7.23925E-05 3.30805E-18
7.61524E-05 2.99826E-18
9.21439E-05 2.06851E-18
1.09658E-04 1.47194E-18
1.28695E-04 1.07518E-18
1.49255E-04 8.03200E-19
1.71338E-04 6.11826E-19
1.94942E-04 4.74065E-19
2.20070E-04 3.72911E-19
2.46720E-04 2.97302E-19
2.74892E-04 2.39890E-19
3.04586E-04 1.95672E-19
3.35803E-04 1.61177E-19
3.68542E-04 1.33952E-19
4.02802E-04 1.12235E-19
4.38585E-04 9.47429E-20
4.75889E-04 8.05279E-20
5.14715E-04 6.88805E-20
5.55063E-04 5.92643E-20
5.96931E-04 5.12686E-20
6.40321E-04 4.45770E-20
6.85233E-04 3.89423E-20
7.31665E-04 3.41705E-20
7.79618E-04 3.01078E-20
8.29092E-04 2.66315E-20
8.80086E-04 2.36428E-20
9.32601E-04 2.10620E-20
9.86636E-04 1.88241E-20
1.04219E-03 1.68758E-20
1.09927E-03 1.51733E-20
1.15786E-03 1.36803E-20
1.21797E-03 1.23665E-20
1.27961E-03 1.12069E-20
1.34276E-03 1.01801E-20
1.40743E-03 9.26836E-21
1.47362E-03 8.45651E-21
1.54133E-03 7.73170E-21
1.61056E-03 7.08296E-21
1.68131E-03 6.50091E-21
1.75357E-03 5.97750E-21
1.82735E-03 5.50576E-21
1.90265E-03 5.07969E-21
1.97947E-03 4.69409E-21
2.05780E-03 4.34442E-21
2.13765E-03 4.02674E-21
2.21902E-03 3.73760E-21
2.30190E-03 3.47394E-21
2.38630E-03 3.23315E-21
2.47222E-03 3.01288E-21
2.55965E-03 2.81108E-21
2.64859E-03 2.62591E-21
2.73905E-03 2.45576E-21
2.83103E-03 2.29919E-21
2.92452E-03 2.15491E-21
3.01952E-03 2.02179E-21
3.11604E-03 1.89880E-21
3.21407E-03 1.78503E-21
3.31362E-03 1.67967E-21
3.41468E-03 1.58198E-21
3.51725E-03 1.49130E-21
3.62133E-03 1.40703E-21
3.72692E-03 1.32864E-21
3.83403E-03 1.25564E-21
3.94265E-03 1.18759E-21
4.05278E-03 1.12409E-21
4.16442E-03 1.06479E-21
4.27757E-03 1.00935E-21
4.39223E-03 9.57481E-22
4.50840E-03 9.08904E-22
4.62608E-03 8.63373E-22
4.74527E-03 8.20661E-22
4.86597E-03 7.80563E-22
4.98817E-03 7.42886E-22
5.11188E-03 7.07460E-22
5.23711E-03 6.74122E-22
5.36383E-03 6.42729E-22
5.49207E-03 6.13144E-22
5.62181E-03 5.85245E-22
5.75306E-03 5.58916E-22
5.88581E-03 5.34054E-22
6.02007E-03 5.10561E-22
6.15583E-03 4.88348E-22
6.29310E-03 4.67331E-22
6.43187E-03 4.47435E-22
6.57214E-03 4.28588E-22
6.71392E-03 4.10724E-22
6.85720E-03 3.93783E-22
7.00198E-03 3.77707E-22
7.14827E-03 3.62445E-22
7.29605E-03 3.47947E-22
7.44534E-03 3.34168E-22
7.59612E-03 3.21065E-22
7.97965E-03 2.91015E-22
8.37255E-03 2.64405E-22
8.77480E-03 2.40772E-22
9.18641E-03 2.19725E-22
9.60736E-03 2.00931E-22
1.00376E-02 1.84108E-22
1.04773E-02 1.69011E-22
1.09262E-02 1.55433E-22
1.13844E-02 1.43193E-22
1.18520E-02 1.32137E-22
1.23288E-02 1.22128E-22
1.28150E-02 1.13051E-22
1.33104E-02 1.04803E-22
1.38150E-02 9.72947E-23
1.43290E-02 9.04477E-23
1.48521E-02 8.41934E-23
1.53845E-02 7.84712E-23
1.59262E-02 7.32276E-23
1.64770E-02 6.84153E-23
1.70371E-02 6.39924E-23
1.76063E-02 5.99217E-23
1.81848E-02 5.61700E-23
1.87724E-02 5.27077E-23
1.93692E-02 4.95084E-23
1.99751E-02 4.65485E-23
2.05901E-02 4.38067E-23
2.12143E-02 4.12641E-23
2.18476E-02 3.89036E-23
2.24900E-02 3.67096E-23
2.31415E-02 3.46682E-23
2.38021E-02 3.27670E-23
2.44717E-02 3.09944E-23
2.51504E-02 2.93402E-23
2.58382E-02 2.77949E-23
2.65349E-02 2.63502E-23
2.72407E-02 2.49981E-23
2.79555E-02 2.37318E-23
2.86793E-02 2.25447E-23
2.94120E-02 2.14309E-23
3.01537E-02 2.03851E-23
3.09043E-02 1.94023E-23
3.16639E-02 1.84781E-23
3.24324E-02 1.76083E-23
3.32098E-02 1.67891E-23
3.39961E-02 1.60170E-23
3.47912E-02 1.52887E-23
3.55952E-02 1.46014E-23
3.64081E-02 1.39523E-23
3.72297E-02 1.33389E-23
3.80602E-02 1.27588E-23
3.88995E-02 1.22099E-23
3.97476E-02 1.16901E-23
4.06044E-02 1.11978E-23
4.14700E-02 1.07310E-23
4.23443E-02 1.02884E-23
4.32273E-02 9.86827E-24
4.41190E-02 9.46938E-24
4.50194E-02 9.09043E-24
4.59284E-02 8.73023E-24
4.68461E-02 8.38768E-24
4.87074E-02 7.75148E-24
5.06030E-02 7.17440E-24
5.25328E-02 6.64997E-24
5.44967E-02 6.17251E-24
5.64946E-02 5.73708E-24
5.85262E-02 5.33930E-24
6.05914E-02 4.97532E-24
6.26901E-02 4.64177E-24
6.48222E-02 4.33564E-24
6.69873E-02 4.05426E-24
6.91854E-02 3.79527E-24
7.14163E-02 3.55656E-24
7.36799E-02 3.33627E-24
7.59760E-02 3.13270E-24
7.83043E-02 2.94436E-24
8.06647E-02 2.76991E-24
8.30571E-02 2.60812E-24
8.54812E-02 2.45792E-24
8.79369E-02 2.31832E-24
9.04240E-02 2.18843E-24
9.29422E-02 2.06746E-24
9.54915E-02 1.95469E-24
9.80716E-02 1.84945E-24
1.00682E-01 1.75115E-24
1.03323E-01 1.65924E-24
1.05995E-01 1.57324E-24
1.08696E-01 1.49270E-24
1.11427E-01 1.41721E-24
1.14188E-01 1.34638E-24
1.16978E-01 1.27989E-24
1.19797E-01 1.21741E-24
1.22645E-01 1.15866E-24
1.25522E-01 1.10337E-24
1.28428E-01 1.05131E-24
1.31361E-01 1.00225E-24
1.34323E-01 9.55984E-25
1.37313E-01 9.12326E-25
1.40330E-01 8.71100E-25
1.43375E-01 8.32147E-25
1.46447E-01 7.95318E-25
1.49545E-01 7.60476E-25
1.52671E-01 7.27494E-25
1.55823E-01 6.96254E-25
1.59001E-01 6.66648E-25
1.62205E-01 6.38573E-25
1.65435E-01 6.11937E-25
1.68690E-01 5.86652E-25
1.71970E-01 5.62636E-25
1.75276E-01 5.39815E-25
1.78606E-01 5.18118E-25
1.81961E-01 4.97479E-25
1.85340E-01 4.77837E-25
1.88743E-01 4.59136E-25
1.92169E-01 4.41321E-25
1.95619E-01 4.24344E-25
1.99092E-01 4.08157E-25
2.02589E-01 3.92717E-25
2.06107E-01 3.77983E-25
2.09649E-01 3.63917E-25
2.13212E-01 3.50483E-25
2.16797E-01 3.37647E-25
2.20404E-01 3.25379E-25
2.24032E-01 3.13648E-25
2.27680E-01 3.02426E-25
2.31350E-01 2.91687E-25
2.35040E-01 2.81407E-25
2.38751E-01 2.71563E-25
2.42481E-01 2.62132E-25
2.46231E-01 2.53094E-25
2.50000E-01 2.44430E-25
2.53788E-01 2.36122E-25
2.57595E-01 2.28151E-25
2.61421E-01 2.20503E-25
2.65264E-01 2.13161E-25
2.69126E-01 2.06111E-25
2.73005E-01 1.99339E-25
2.76901E-01 1.92833E-25
2.80814E-01 1.86580E-25
2.84744E-01 1.80568E-25
2.88691E-01 1.74787E-25
2.92653E-01 1.69225E-25
2.96632E-01 1.63874E-25
3.00625E-01 1.58724E-25
3.04634E-01 1.53765E-25
3.08658E-01 1.48990E-25
3.12697E-01 1.44390E-25
3.16749E-01 1.39958E-25
3.20816E-01 1.35686E-25
3.24896E-01 1.31568E-25
3.28990E-01 1.27598E-25
3.33097E-01 1.23768E-25
3.37216E-01 1.20074E-25
3.41348E-01 1.16509E-25
3.45492E-01 1.13068E-25
3.49647E-01 1.09746E-25
3.53814E-01 1.06538E-25
3.57992E-01 1.03440E-25
3.62181E-01 1.00447E-25
3.66381E-01 9.75550E-26
3.70590E-01 9.47600E-26
3.74810E-01 9.20581E-26
3.79039E-01 8.94456E-26
3.83277E-01 8.69192E-26
3.87524E-01 8.44754E-26
3.91780E-01 8.21111E-26
3.96044E-01 7.98232E-26
4.00316E-01 7.76089E-26
4.04596E-01 7.54653E-26
4.08882E-01 7.33899E-26
4.13176E-01 7.13800E-26
4.17476E-01 6.94332E-26
4.21783E-01 6.75473E-26
4.26095E-01 6.57200E-26
4.30413E-01 6.39491E-26
4.34737E-01 6.22326E-26
4.39065E-01 6.05685E-26
4.43398E-01 5.89550E-26
4.47736E-01 5.73903E-26
4.52077E-01 5.58726E-26
4.56422E-01 5.44003E-26
4.60770E-01 5.29718E-26
4.65122E-01 5.15856E-26
4.69476E-01 5.02402E-26
4.73832E-01 4.89342E-26
4.78190E-01 4.76662E-26
4.82550E-01 4.64350E-26
4.86912E-01 4.52393E-26
4.91274E-01 4.40780E-26
4.95637E-01 4.29498E-26
5.00000E-01 4.18537E-26
5.04363E-01 4.07885E-26
5.08726E-01 3.97534E-26
5.13088E-01 3.87473E-26
5.17450E-01 3.77692E-26
5.21810E-01 3.68182E-26
5.26168E-01 3.58935E-26
5.30524E-01 3.49943E-26
5.34878E-01 3.41196E-26
5.39230E-01 3.32688E-26
5.43578E-01 3.24410E-26
5.47923E-01 3.16356E-26
5.52264E-01 3.08518E-26
5.56602E-01 3.00890E-26
5.60935E-01 2.93465E-26
5.65263E-01 2.86237E-26
5.69587E-01 2.79200E-26
5.73905E-01 2.72348E-26
5.78217E-01 2.65676E-26
5.82524E-01 2.59177E-26
5.86824E-01 2.52847E-26
5.91118E-01 2.46681E-26
5.95404E-01 2.40674E-26
5.99684E-01 2.34821E-26
6.03956E-01 2.29117E-26
6.08220E-01 2.23558E-26
6.12476E-01 2.18141E-26
6.16723E-01 2.12860E-26
6.20961E-01 2.07712E-26
6.25190E-01 2.02693E-26
6.29410E-01 1.97799E-26
6.33619E-01 1.93026E-26
6.37819E-01 1.88373E-26
6.42008E-01 1.83833E-26
6.46186E-01 1.79406E-26
6.50353E-01 1.75087E-26
6.54508E-01 1.70873E-26
6.58652E-01 1.66762E-26
6.62784E-01 1.62751E-26
6.66903E-01 1.58837E-26
6.71010E-01 1.55016E-26
6.75104E-01 1.51288E-26
6.79184E-01 1.47649E-26
6.83251E-01 1.44096E-26
6.87303E-01 1.40628E-26
6.91342E-01 1.37242E-26
6.95366E-01 1.33936E-26
6.99375E-01 1.30708E-26
7.03368E-01 1.27555E-26
7.07347E-01 1.24477E-26
7.11309E-01 1.21470E-26
7.15256E-01 1.18533E-26
7.19186E-01 1.15665E-26
7.23099E-01 1.12862E-26
7.26995E-01 1.10125E-26
7.30874E-01 1.07450E-26
7.34736E-01 1.04836E-26
7.38579E-01 1.02283E-26
7.42405E-01 9.97876E-27
7.46212E-01 9.73492E-27
7.50000E-01 9.49661E-27
7.53769E-01 9.26371E-27
7.57519E-01 9.03607E-27
7.61249E-01 8.81356E-27
7.64960E-01 8.59607E-27
7.68650E-01 8.38345E-27
7.72320E-01 8.17561E-27
7.75968E-01 7.97241E-27
7.79596E-01 7.77374E-27
7.83203E-01 7.57951E-27
7.86788E-01 7.38959E-27
7.90351E-01 7.20389E-27
7.93893E-01 7.02230E-27
7.97411E-01 6.84473E-27
8.00908E-01 6.67109E-27
8.04381E-01 6.50128E-27
8.07831E-01 6.33521E-27
8.11257E-01 6.17279E-27
8.14660E-01 6.01394E-27
8.18039E-01 5.85858E-27
8.21394E-01 5.70663E-27
8.24724E-01 5.55800E-27
8.28030E-01 5.41263E-27
8.31310E-01 5.27044E-27
8.34565E-01 5.13136E-27
8.37795E-01 4.99531E-27
8.40999E-01 4.86224E-27
8.44177E-01 4.73207E-27
8.47329E-01 4.60475E-27
8.50455E-01 4.48020E-27
8.53553E-01 4.35837E-27
8.56625E-01 4.23920E-27
8.59670E-01 4.12264E-27
8.62687E-01 4.00862E-27
8.65677E-01 3.89709E-27
8.68639E-01 3.78800E-27
8.71572E-01 3.68129E-27
8.74478E-01 3.57693E-27
8.77355E-01 3.47485E-27
8.80203E-01 3.37502E-27
8.83022E-01 3.27738E-27
8.85812E-01 3.18189E-27
8.88573E-01 3.08850E-27
8.91304E-01 2.99718E-27
8.94005E-01 2.90789E-27
8.96677E-01 2.82057E-27
8.99318E-01 2.73520E-27
9.01928E-01 2.65174E-27
9.04508E-01 2.57014E-27
9.07058E-01 2.49038E-27
9.09576E-01 2.41241E-27
9.12063E-01 2.33620E-27
9.14519E-01 2.26172E-27
9.16943E-01 2.18894E-27
9.19335E-01 2.11782E-27
9.21696E-01 2.04834E-27
9.24024E-01 1.98047E-27
9.26320E-01 1.91416E-27
9.28584E-01 1.84941E-27
9.30815E-01 1.78618E-27
9.33013E-01 1.72443E-27
9.35178E-01 1.66416E-27
9.37310E-01 1.60533E-27
9.39409E-01 1.54791E-27
9.41474E-01 1.49189E-27
9.43505E-01 1.43723E-27
9.45503E-01 1.38393E-27
9.47467E-01 1.33195E-27
9.49397E-01 1.28127E-27
9.51293E-01 1.23188E-27
9.53154E-01 1.18375E-27
9.54981E-01 1.13686E-27
9.56773E-01 1.09120E-27
9.58530E-01 1.04674E-27
9.60252E-01 1.00347E-27
9.61940E-01 9.61372E-28
9.63592E-01 9.20427E-28
9.65209E-01 8.80619E-28
9.66790E-01 8.41934E-28
9.68336E-01 8.04354E-28
9.69846E-01 7.67865E-28
9.71321E-01 7.32454E-28
9.72759E-01 6.98105E-28
9.74162E-01 6.64806E-28
9.75528E-01 6.32543E-28
9.76858E-01 6.01303E-28
9.78152E-01 5.71075E-28
9.79410E-01 5.41847E-28
9.80631E-01 5.13608E-28
9.81815E-01 4.86346E-28
9.82963E-01 4.60050E-28
9.84074E-01 4.34712E-28
9.85148E-01 4.10320E-28
9.86185E-01 3.86866E-28
9.87185E-01 3.64341E-28
9.88148E-01 3.42736E-28
9.89074E-01 3.22042E-28
9.89962E-01 3.02252E-28
9.90814E-01 2.83359E-28
9.91627E-01 2.65354E-28
9.92404E-01 2.48232E-28
9.93143E-01 2.31986E-28
9.93844E-01 2.16609E-28
9.94508E-01 2.02096E-28
9.95134E-01 1.88441E-28
9.95722E-01 1.75639E-28
9.96273E-01 1.63686E-28
9.96786E-01 1.52576E-28
9.97261E-01 1.42306E-28
9.97698E-01 1.32872E-28
9.98097E-01 1.24269E-28
9.98459E-01 1.16496E-28
9.98782E-01 1.09549E-28
9.99067E-01 1.03425E-28
9.99315E-01 9.81226E-29
9.99524E-01 9.36391E-29
9.99695E-01 8.99731E-29
9.99829E-01 8.71232E-29
9.99924E-01 8.50883E-29
9.99981E-01 8.38676E-29
1.00000E+00 8.34608E-29
