 #
 # Subroutine ELSEPA. Elastic scattering of electrons and positrons
 #                    by neutral atoms and positive ions
 #
 # Projectile: electron
 # Kinetic energy = 1.00000E+07 eV = 3.67493E+05 a.u.
 #
 # WARNING: High-energy factorization with free-atom DF screening.
 #          Absorption, polarization and exchange corrections are
 #          switched off.
 #          Phase shifts are calculated for the bare nucleus.
 #          Scattering amplitudes are not evaluated.
 #
 # Element: Si,  Z =  14,  atomic weight = 2.80855E+01 g/mol
 #
 # Nuclear model: Fermi distribution
 #                Average radius = 3.25245E-13 cm
 #                Skin thickness = 5.46000E-14 cm
 #
 # Number of electrons = 14
 #
 # Total elastic cross section = 8.90394E-19 cm**2 = 3.17966E-02 a0**2
 # 1st transport cross section = 3.08726E-24 cm**2 = 1.10248E-07 a0**2
 # 2nd transport cross section = 8.87481E-24 cm**2 = 3.16925E-07 a0**2
 #
 #
 # Differential cross section:                       MU=(1-COS(THETA))/2
 #
 #  THETA        MU          DCS          DCS        Sherman      error
 #  (deg)                 (cm**2/sr)   (a0**2/sr)    function
 #----------------------------------------------------------------------
0.00000E+00 1.40591E-12
7.61557E-13 1.40587E-12
1.18994E-12 1.40584E-12
1.71346E-12 1.40581E-12
2.33225E-12 1.40577E-12
3.04617E-12 1.40573E-12
3.85530E-12 1.40568E-12
4.75964E-12 1.40563E-12
5.75917E-12 1.40557E-12
6.85391E-12 1.40550E-12
8.04379E-12 1.40543E-12
9.32893E-12 1.40536E-12
1.07092E-11 1.40527E-12
1.21847E-11 1.40519E-12
1.37554E-11 1.40509E-12
1.54213E-11 1.40499E-12
1.71823E-11 1.40489E-12
1.90386E-11 1.40478E-12
2.09900E-11 1.40466E-12
2.30367E-11 1.40454E-12
2.51785E-11 1.40442E-12
2.74156E-11 1.40428E-12
2.97478E-11 1.40415E-12
3.21752E-11 1.40400E-12
3.46979E-11 1.40385E-12
3.73157E-11 1.40370E-12
4.00286E-11 1.40354E-12
4.28368E-11 1.40337E-12
4.57402E-11 1.40320E-12
4.87388E-11 1.40302E-12
5.18325E-11 1.40284E-12
5.50215E-11 1.40265E-12
5.83057E-11 1.40246E-12
6.16850E-11 1.40226E-12
6.51595E-11 1.40206E-12
6.87293E-11 1.40185E-12
7.23943E-11 1.40163E-12
7.61544E-11 1.40141E-12
1.18991E-10 1.39889E-12
1.71347E-10 1.39582E-12
2.33223E-10 1.39221E-12
3.04617E-10 1.38806E-12
3.85531E-10 1.38338E-12
4.75965E-10 1.37818E-12
5.75917E-10 1.37246E-12
6.85389E-10 1.36623E-12
8.04380E-10 1.35951E-12
9.32891E-10 1.35231E-12
1.07092E-09 1.34463E-12
1.21847E-09 1.33649E-12
1.37554E-09 1.32790E-12
1.54213E-09 1.31888E-12
1.71823E-09 1.30944E-12
1.90386E-09 1.29959E-12
2.09900E-09 1.28934E-12
2.30367E-09 1.27873E-12
2.51785E-09 1.26776E-12
2.74156E-09 1.25643E-12
2.97478E-09 1.24478E-12
3.21752E-09 1.23282E-12
3.46978E-09 1.22056E-12
3.73156E-09 1.20801E-12
4.00286E-09 1.19521E-12
4.28368E-09 1.18217E-12
4.57402E-09 1.16889E-12
4.87388E-09 1.15539E-12
5.18326E-09 1.14170E-12
5.50215E-09 1.12785E-12
5.83057E-09 1.11381E-12
6.16850E-09 1.09962E-12
6.51596E-09 1.08531E-12
6.87293E-09 1.07090E-12
7.23942E-09 1.05636E-12
7.61544E-09 1.04174E-12
1.18991E-08 8.93904E-13
1.71347E-08 7.49121E-13
2.33223E-08 6.20301E-13
3.04617E-08 5.07846E-13
3.85531E-08 4.12529E-13
4.75965E-08 3.34720E-13
5.75917E-08 2.71894E-13
6.85389E-08 2.21293E-13
8.04380E-08 1.80966E-13
9.32891E-08 1.48977E-13
1.07092E-07 1.23526E-13
1.21847E-07 1.03197E-13
1.37554E-07 8.69257E-14
1.54213E-07 7.38219E-14
1.71823E-07 6.31975E-14
1.90386E-07 5.45331E-14
2.09900E-07 4.74079E-14
2.30367E-07 4.15033E-14
2.51785E-07 3.65747E-14
2.74156E-07 3.24278E-14
2.97478E-07 2.89113E-14
3.21752E-07 2.59093E-14
3.46978E-07 2.33277E-14
3.73156E-07 2.10882E-14
4.00286E-07 1.91378E-14
4.28368E-07 1.74300E-14
4.57402E-07 1.59229E-14
4.87388E-07 1.45841E-14
5.18325E-07 1.33934E-14
5.50215E-07 1.23299E-14
5.83057E-07 1.13717E-14
6.16850E-07 1.05065E-14
6.51596E-07 9.72519E-15
6.87293E-07 9.01741E-15
7.23942E-07 8.37015E-15
7.61543E-07 7.77977E-15
1.18991E-06 3.96191E-15
1.71347E-06 2.17070E-15
2.33223E-06 1.26177E-15
3.04617E-06 7.72473E-16
3.85531E-06 4.95717E-16
4.75964E-06 3.31571E-16
5.75916E-06 2.29929E-16
6.85388E-06 1.64500E-16
8.04378E-06 1.20898E-16
9.32888E-06 9.09318E-17
1.07092E-05 6.97764E-17
1.21846E-05 5.44810E-17
1.37553E-05 4.31886E-17
1.54212E-05 3.46963E-17
1.71822E-05 2.82044E-17
1.90385E-05 2.31699E-17
2.09899E-05 1.92132E-17
2.30365E-05 1.60677E-17
2.51783E-05 1.35409E-17
2.74153E-05 1.14919E-17
2.97475E-05 9.81607E-18
3.21749E-05 8.43467E-18
3.46974E-05 7.28744E-18
3.73152E-05 6.32843E-18
4.00281E-05 5.52170E-18
4.28362E-05 4.83911E-18
4.57395E-05 4.25843E-18
4.87380E-05 3.76196E-18
5.18317E-05 3.33549E-18
5.50205E-05 2.96753E-18
5.83045E-05 2.64878E-18
6.16838E-05 2.37157E-18
6.51582E-05 2.12957E-18
6.87277E-05 1.91757E-18
7.23925E-05 1.73121E-18
7.61524E-05 1.56686E-18
9.21439E-05 1.07552E-18
1.09658E-04 7.62195E-19
1.28695E-04 5.54902E-19
1.49255E-04 4.13421E-19
1.71338E-04 3.14244E-19
1.94942E-04 2.43068E-19
2.20070E-04 1.90937E-19
2.46720E-04 1.52051E-19
2.74892E-04 1.22576E-19
3.04586E-04 9.99062E-20
3.35803E-04 8.22419E-20
3.68542E-04 6.83145E-20
4.02802E-04 5.72140E-20
4.38585E-04 4.82795E-20
4.75889E-04 4.10231E-20
5.14715E-04 3.50804E-20
5.55063E-04 3.01762E-20
5.96931E-04 2.61000E-20
6.40321E-04 2.26897E-20
6.85233E-04 1.98188E-20
7.31665E-04 1.73881E-20
7.79618E-04 1.53191E-20
8.29092E-04 1.35490E-20
8.80086E-04 1.20275E-20
9.32601E-04 1.07139E-20
9.86636E-04 9.57485E-21
1.04219E-03 8.58335E-21
1.09927E-03 7.71701E-21
1.15786E-03 6.95728E-21
1.21797E-03 6.28879E-21
1.27961E-03 5.69877E-21
1.34276E-03 5.17640E-21
1.40743E-03 4.71259E-21
1.47362E-03 4.29962E-21
1.54133E-03 3.93096E-21
1.61056E-03 3.60101E-21
1.68131E-03 3.30499E-21
1.75357E-03 3.03881E-21
1.82735E-03 2.79892E-21
1.90265E-03 2.58226E-21
1.97947E-03 2.38618E-21
2.05780E-03 2.20839E-21
2.13765E-03 2.04687E-21
2.21902E-03 1.89986E-21
2.30190E-03 1.76583E-21
2.38630E-03 1.64343E-21
2.47222E-03 1.53146E-21
2.55965E-03 1.42888E-21
2.64859E-03 1.33476E-21
2.73905E-03 1.24827E-21
2.83103E-03 1.16868E-21
2.92452E-03 1.09534E-21
3.01952E-03 1.02767E-21
3.11604E-03 9.65150E-22
3.21407E-03 9.07321E-22
3.31362E-03 8.53764E-22
3.41468E-03 8.04106E-22
3.51725E-03 7.58010E-22
3.62133E-03 7.15175E-22
3.72692E-03 6.75327E-22
3.83403E-03 6.38220E-22
3.94265E-03 6.03630E-22
4.05278E-03 5.71355E-22
4.16442E-03 5.41211E-22
4.27757E-03 5.13032E-22
4.39223E-03 4.86665E-22
4.50840E-03 4.61973E-22
4.62608E-03 4.38829E-22
4.74527E-03 4.17119E-22
4.86597E-03 3.96737E-22
4.98817E-03 3.77586E-22
5.11188E-03 3.59578E-22
5.23711E-03 3.42633E-22
5.36383E-03 3.26675E-22
5.49207E-03 3.11638E-22
5.62181E-03 2.97456E-22
5.75306E-03 2.84074E-22
5.88581E-03 2.71436E-22
6.02007E-03 2.59495E-22
6.15583E-03 2.48204E-22
6.29310E-03 2.37522E-22
6.43187E-03 2.27408E-22
6.57214E-03 2.17828E-22
6.71392E-03 2.08749E-22
6.85720E-03 2.00137E-22
7.00198E-03 1.91966E-22
7.14827E-03 1.84209E-22
7.29605E-03 1.76840E-22
7.44534E-03 1.69836E-22
7.59612E-03 1.63176E-22
7.97965E-03 1.47902E-22
8.37255E-03 1.34377E-22
8.77480E-03 1.22364E-22
9.18641E-03 1.11667E-22
9.60736E-03 1.02115E-22
1.00376E-02 9.35637E-23
1.04773E-02 8.58906E-23
1.09262E-02 7.89893E-23
1.13844E-02 7.27683E-23
1.18520E-02 6.71487E-23
1.23288E-02 6.20619E-23
1.28150E-02 5.74484E-23
1.33104E-02 5.32564E-23
1.38150E-02 4.94403E-23
1.43290E-02 4.59604E-23
1.48521E-02 4.27817E-23
1.53845E-02 3.98735E-23
1.59262E-02 3.72085E-23
1.64770E-02 3.47628E-23
1.70371E-02 3.25150E-23
1.76063E-02 3.04461E-23
1.81848E-02 2.85395E-23
1.87724E-02 2.67799E-23
1.93692E-02 2.51540E-23
1.99751E-02 2.36497E-23
2.05901E-02 2.22564E-23
2.12143E-02 2.09642E-23
2.18476E-02 1.97646E-23
2.24900E-02 1.86497E-23
2.31415E-02 1.76123E-23
2.38021E-02 1.66461E-23
2.44717E-02 1.57453E-23
2.51504E-02 1.49047E-23
2.58382E-02 1.41195E-23
2.65349E-02 1.33853E-23
2.72407E-02 1.26983E-23
2.79555E-02 1.20548E-23
2.86793E-02 1.14515E-23
2.94120E-02 1.08856E-23
3.01537E-02 1.03542E-23
3.09043E-02 9.85479E-24
3.16639E-02 9.38517E-24
3.24324E-02 8.94320E-24
3.32098E-02 8.52695E-24
3.39961E-02 8.13463E-24
3.47912E-02 7.76461E-24
3.55952E-02 7.41539E-24
3.64081E-02 7.08558E-24
3.72297E-02 6.77390E-24
3.80602E-02 6.47916E-24
3.88995E-02 6.20027E-24
3.97476E-02 5.93621E-24
4.06044E-02 5.68606E-24
4.14700E-02 5.44894E-24
4.23443E-02 5.22403E-24
4.32273E-02 5.01061E-24
4.41190E-02 4.80796E-24
4.50194E-02 4.61544E-24
4.59284E-02 4.43245E-24
4.68461E-02 4.25842E-24
4.87074E-02 3.93523E-24
5.06030E-02 3.64207E-24
5.25328E-02 3.37567E-24
5.44967E-02 3.13313E-24
5.64946E-02 2.91195E-24
5.85262E-02 2.70990E-24
6.05914E-02 2.52503E-24
6.26901E-02 2.35561E-24
6.48222E-02 2.20013E-24
6.69873E-02 2.05722E-24
6.91854E-02 1.92569E-24
7.14163E-02 1.80446E-24
7.36799E-02 1.69259E-24
7.59760E-02 1.58921E-24
7.83043E-02 1.49358E-24
8.06647E-02 1.40499E-24
8.30571E-02 1.32284E-24
8.54812E-02 1.24657E-24
8.79369E-02 1.17569E-24
9.04240E-02 1.10975E-24
9.29422E-02 1.04834E-24
9.54915E-02 9.91083E-25
9.80716E-02 9.37657E-25
1.00682E-01 8.87756E-25
1.03323E-01 8.41104E-25
1.05995E-01 7.97452E-25
1.08696E-01 7.56571E-25
1.11427E-01 7.18252E-25
1.14188E-01 6.82306E-25
1.16978E-01 6.48559E-25
1.19797E-01 6.16852E-25
1.22645E-01 5.87038E-25
1.25522E-01 5.58983E-25
1.28428E-01 5.32566E-25
1.31361E-01 5.07672E-25
1.34323E-01 4.84198E-25
1.37313E-01 4.62047E-25
1.40330E-01 4.41132E-25
1.43375E-01 4.21371E-25
1.46447E-01 4.02688E-25
1.49545E-01 3.85014E-25
1.52671E-01 3.68284E-25
1.55823E-01 3.52439E-25
1.59001E-01 3.37423E-25
1.62205E-01 3.23184E-25
1.65435E-01 3.09676E-25
1.68690E-01 2.96854E-25
1.71970E-01 2.84676E-25
1.75276E-01 2.73104E-25
1.78606E-01 2.62103E-25
1.81961E-01 2.51639E-25
1.85340E-01 2.41681E-25
1.88743E-01 2.32201E-25
1.92169E-01 2.23170E-25
1.95619E-01 2.14564E-25
1.99092E-01 2.06360E-25
2.02589E-01 1.98534E-25
2.06107E-01 1.91067E-25
2.09649E-01 1.83939E-25
2.13212E-01 1.77131E-25
2.16797E-01 1.70627E-25
2.20404E-01 1.64411E-25
2.24032E-01 1.58467E-25
2.27680E-01 1.52782E-25
2.31350E-01 1.47342E-25
2.35040E-01 1.42135E-25
2.38751E-01 1.37148E-25
2.42481E-01 1.32372E-25
2.46231E-01 1.27794E-25
2.50000E-01 1.23407E-25
2.53788E-01 1.19199E-25
2.57595E-01 1.15163E-25
2.61421E-01 1.11291E-25
2.65264E-01 1.07574E-25
2.69126E-01 1.04005E-25
2.73005E-01 1.00577E-25
2.76901E-01 9.72832E-26
2.80814E-01 9.41181E-26
2.84744E-01 9.10755E-26
2.88691E-01 8.81496E-26
2.92653E-01 8.53353E-26
2.96632E-01 8.26275E-26
3.00625E-01 8.00215E-26
3.04634E-01 7.75127E-26
3.08658E-01 7.50969E-26
3.12697E-01 7.27700E-26
3.16749E-01 7.05282E-26
3.20816E-01 6.83677E-26
3.24896E-01 6.62852E-26
3.28990E-01 6.42772E-26
3.33097E-01 6.23407E-26
3.37216E-01 6.04727E-26
3.41348E-01 5.86702E-26
3.45492E-01 5.69307E-26
3.49647E-01 5.52515E-26
3.53814E-01 5.36301E-26
3.57992E-01 5.20643E-26
3.62181E-01 5.05517E-26
3.66381E-01 4.90902E-26
3.70590E-01 4.76779E-26
3.74810E-01 4.63128E-26
3.79039E-01 4.49929E-26
3.83277E-01 4.37166E-26
3.87524E-01 4.24822E-26
3.91780E-01 4.12881E-26
3.96044E-01 4.01326E-26
4.00316E-01 3.90144E-26
4.04596E-01 3.79320E-26
4.08882E-01 3.68841E-26
4.13176E-01 3.58694E-26
4.17476E-01 3.48866E-26
4.21783E-01 3.39347E-26
4.26095E-01 3.30124E-26
4.30413E-01 3.21187E-26
4.34737E-01 3.12525E-26
4.39065E-01 3.04128E-26
4.43398E-01 2.95988E-26
4.47736E-01 2.88094E-26
4.52077E-01 2.80438E-26
4.56422E-01 2.73012E-26
4.60770E-01 2.65807E-26
4.65122E-01 2.58817E-26
4.69476E-01 2.52033E-26
4.73832E-01 2.45448E-26
4.78190E-01 2.39055E-26
4.82550E-01 2.32849E-26
4.86912E-01 2.26822E-26
4.91274E-01 2.20969E-26
4.95637E-01 2.15284E-26
5.00000E-01 2.09760E-26
5.04363E-01 2.04394E-26
5.08726E-01 1.99179E-26
5.13088E-01 1.94111E-26
5.17450E-01 1.89184E-26
5.21810E-01 1.84395E-26
5.26168E-01 1.79738E-26
5.30524E-01 1.75210E-26
5.34878E-01 1.70807E-26
5.39230E-01 1.66523E-26
5.43578E-01 1.62357E-26
5.47923E-01 1.58303E-26
5.52264E-01 1.54358E-26
5.56602E-01 1.50520E-26
5.60935E-01 1.46784E-26
5.65263E-01 1.43148E-26
5.69587E-01 1.39608E-26
5.73905E-01 1.36162E-26
5.78217E-01 1.32806E-26
5.82524E-01 1.29538E-26
5.86824E-01 1.26355E-26
5.91118E-01 1.23255E-26
5.95404E-01 1.20235E-26
5.99684E-01 1.17293E-26
6.03956E-01 1.14426E-26
6.08220E-01 1.11633E-26
6.12476E-01 1.08911E-26
6.16723E-01 1.06258E-26
6.20961E-01 1.03671E-26
6.25190E-01 1.01150E-26
6.29410E-01 9.86924E-27
6.33619E-01 9.62959E-27
6.37819E-01 9.39590E-27
6.42008E-01 9.16801E-27
6.46186E-01 8.94575E-27
6.50353E-01 8.72896E-27
6.54508E-01 8.51749E-27
6.58652E-01 8.31119E-27
6.62784E-01 8.10991E-27
6.66903E-01 7.91352E-27
6.71010E-01 7.72189E-27
6.75104E-01 7.53487E-27
6.79184E-01 7.35235E-27
6.83251E-01 7.17421E-27
6.87303E-01 7.00031E-27
6.91342E-01 6.83056E-27
6.95366E-01 6.66484E-27
6.99375E-01 6.50304E-27
7.03368E-01 6.34506E-27
7.07347E-01 6.19079E-27
7.11309E-01 6.04014E-27
7.15256E-01 5.89301E-27
7.19186E-01 5.74932E-27
7.23099E-01 5.60896E-27
7.26995E-01 5.47186E-27
7.30874E-01 5.33794E-27
7.34736E-01 5.20710E-27
7.38579E-01 5.07927E-27
7.42405E-01 4.95437E-27
7.46212E-01 4.83233E-27
7.50000E-01 4.71308E-27
7.53769E-01 4.59655E-27
7.57519E-01 4.48266E-27
7.61249E-01 4.37136E-27
7.64960E-01 4.26258E-27
7.68650E-01 4.15625E-27
7.72320E-01 4.05232E-27
7.75968E-01 3.95073E-27
7.79596E-01 3.85141E-27
7.83203E-01 3.75432E-27
7.86788E-01 3.65941E-27
7.90351E-01 3.56661E-27
7.93893E-01 3.47588E-27
7.97411E-01 3.38716E-27
8.00908E-01 3.30042E-27
8.04381E-01 3.21561E-27
8.07831E-01 3.13267E-27
8.11257E-01 3.05156E-27
8.14660E-01 2.97225E-27
8.18039E-01 2.89469E-27
8.21394E-01 2.81885E-27
8.24724E-01 2.74467E-27
8.28030E-01 2.67212E-27
8.31310E-01 2.60117E-27
8.34565E-01 2.53178E-27
8.37795E-01 2.46392E-27
8.40999E-01 2.39754E-27
8.44177E-01 2.33262E-27
8.47329E-01 2.26913E-27
8.50455E-01 2.20703E-27
8.53553E-01 2.14629E-27
8.56625E-01 2.08689E-27
8.59670E-01 2.02879E-27
8.62687E-01 1.97196E-27
8.65677E-01 1.91638E-27
8.68639E-01 1.86203E-27
8.71572E-01 1.80887E-27
8.74478E-01 1.75688E-27
8.77355E-01 1.70604E-27
8.80203E-01 1.65632E-27
8.83022E-01 1.60770E-27
8.85812E-01 1.56016E-27
8.88573E-01 1.51367E-27
8.91304E-01 1.46821E-27
8.94005E-01 1.42376E-27
8.96677E-01 1.38031E-27
8.99318E-01 1.33783E-27
9.01928E-01 1.29630E-27
9.04508E-01 1.25570E-27
9.07058E-01 1.21602E-27
9.09576E-01 1.17724E-27
9.12063E-01 1.13934E-27
9.14519E-01 1.10230E-27
9.16943E-01 1.06611E-27
9.19335E-01 1.03075E-27
9.21696E-01 9.96209E-28
9.24024E-01 9.62468E-28
9.26320E-01 9.29514E-28
9.28584E-01 8.97332E-28
9.30815E-01 8.65908E-28
9.33013E-01 8.35229E-28
9.35178E-01 8.05282E-28
9.37310E-01 7.76055E-28
9.39409E-01 7.47533E-28
9.41474E-01 7.19707E-28
9.43505E-01 6.92563E-28
9.45503E-01 6.66091E-28
9.47467E-01 6.40280E-28
9.49397E-01 6.15118E-28
9.51293E-01 5.90596E-28
9.53154E-01 5.66702E-28
9.54981E-01 5.43428E-28
9.56773E-01 5.20763E-28
9.58530E-01 4.98699E-28
9.60252E-01 4.77226E-28
9.61940E-01 4.56336E-28
9.63592E-01 4.36020E-28
9.65209E-01 4.16270E-28
9.66790E-01 3.97078E-28
9.68336E-01 3.78435E-28
9.69846E-01 3.60336E-28
9.71321E-01 3.42772E-28
9.72759E-01 3.25736E-28
9.74162E-01 3.09222E-28
9.75528E-01 2.93223E-28
9.76858E-01 2.77732E-28
9.78152E-01 2.62744E-28
9.79410E-01 2.48253E-28
9.80631E-01 2.34253E-28
9.81815E-01 2.20738E-28
9.82963E-01 2.07703E-28
9.84074E-01 1.95143E-28
9.85148E-01 1.83053E-28
9.86185E-01 1.71428E-28
9.87185E-01 1.60265E-28
9.88148E-01 1.49558E-28
9.89074E-01 1.39303E-28
9.89962E-01 1.29496E-28
9.90814E-01 1.20134E-28
9.91627E-01 1.11213E-28
9.92404E-01 1.02729E-28
9.93143E-01 9.46797E-29
9.93844E-01 8.70614E-29
9.94508E-01 7.98712E-29
9.95134E-01 7.31065E-29
9.95722E-01 6.67647E-29
9.96273E-01 6.08432E-29
9.96786E-01 5.53399E-29
9.97261E-01 5.02526E-29
9.97698E-01 4.55793E-29
9.98097E-01 4.13184E-29
9.98459E-01 3.74682E-29
9.98782E-01 3.40272E-29
9.99067E-01 3.09941E-29
9.99315E-01 2.83677E-29
9.99524E-01 2.61471E-29
9.99695E-01 2.43313E-29
9.99829E-01 2.29198E-29
9.99924E-01 2.19120E-29
9.99981E-01 2.13074E-29
1.00000E+00 2.11060E-29
