 #
 # Subroutine ELSEPA. Elastic scattering of electrons and positrons
 #                    by neutral atoms and positive ions
 #
 # Projectile: electron
 # Kinetic energy = 8.00000E+08 eV = 2.93995E+07 a.u.
 #
 # WARNING: High-energy factorization with free-atom DF screening.
 #          Absorption, polarization and exchange corrections are
 #          switched off.
 #          Phase shifts are calculated for the bare nucleus.
 #          Scattering amplitudes are not evaluated.
 #
 # Element: Si,  Z =  14,  atomic weight = 2.80855E+01 g/mol
 #
 # Nuclear model: Fermi distribution
 #                Average radius = 3.25245E-13 cm
 #                Skin thickness = 5.46000E-14 cm
 #
 # Number of electrons = 14
 #
 # Total elastic cross section = 8.82654E-19 cm**2 = 3.15201E-02 a0**2
 # 1st transport cross section = 6.62674E-28 cm**2 = 2.36645E-11 a0**2
 # 2nd transport cross section = 1.98753E-27 cm**2 = 7.09760E-11 a0**2
 #
 #
 # Differential cross section:                       MU=(1-COS(THETA))/2
 #
 #  THETA        MU          DCS          DCS        Sherman      error
 #  (deg)                 (cm**2/sr)   (a0**2/sr)    function
 #----------------------------------------------------------------------
0.00000E+00 8.15465E-09
7.61557E-13 6.81833E-09
1.18994E-12 6.20077E-09
1.71346E-12 5.54926E-09
2.33225E-12 4.89883E-09
3.04617E-12 4.26561E-09
3.85530E-12 3.69847E-09
4.75964E-12 3.17405E-09
5.75917E-12 2.71882E-09
6.85391E-12 2.31970E-09
8.04379E-12 1.97752E-09
9.32893E-12 1.68710E-09
1.07092E-11 1.43957E-09
1.21847E-11 1.23292E-09
1.37554E-11 1.05739E-09
1.54213E-11 9.11094E-10
1.71823E-11 7.87803E-10
1.90386E-11 6.84375E-10
2.09900E-11 5.97202E-10
2.30367E-11 5.23618E-10
2.51785E-11 4.61271E-10
2.74156E-11 4.08308E-10
2.97478E-11 3.63080E-10
3.21752E-11 3.24367E-10
3.46979E-11 2.91031E-10
3.73157E-11 2.62231E-10
4.00286E-11 2.37225E-10
4.28368E-11 2.15419E-10
4.57402E-11 1.96315E-10
4.87388E-11 1.79515E-10
5.18325E-11 1.64652E-10
5.50215E-11 1.51475E-10
5.83057E-11 1.39721E-10
6.16850E-11 1.29207E-10
6.51595E-11 1.19771E-10
6.87293E-11 1.11250E-10
7.23943E-11 1.03570E-10
7.61544E-11 9.65624E-11
1.18991E-10 5.17986E-11
1.71347E-10 3.02774E-11
2.33223E-10 1.86181E-11
3.04617E-10 1.18802E-11
3.85531E-10 7.85058E-12
4.75965E-10 5.35344E-12
5.75917E-10 3.75087E-12
6.85389E-10 2.69903E-12
8.04380E-10 1.98786E-12
9.32891E-10 1.49564E-12
1.07092E-09 1.14697E-12
1.21847E-09 8.94600E-13
1.37554E-09 7.08467E-13
1.54213E-09 5.68677E-13
1.71823E-09 4.62036E-13
1.90386E-09 3.79487E-13
2.09900E-09 3.14730E-13
2.30367E-09 2.63341E-13
2.51785E-09 2.22092E-13
2.74156E-09 1.88672E-13
2.97478E-09 1.61343E-13
3.21752E-09 1.38808E-13
3.46978E-09 1.20094E-13
3.73156E-09 1.04432E-13
4.00286E-09 9.12498E-14
4.28368E-09 8.00845E-14
4.57402E-09 7.05760E-14
4.87388E-09 6.24386E-14
5.18326E-09 5.54375E-14
5.50215E-09 4.93906E-14
5.83057E-09 4.41436E-14
6.16850E-09 3.95737E-14
6.51596E-09 3.55789E-14
6.87293E-09 3.20733E-14
7.23942E-09 2.89883E-14
7.61544E-09 2.62636E-14
1.18991E-08 1.09520E-14
1.71347E-08 5.33044E-15
2.33223E-08 2.89160E-15
3.04617E-08 1.69984E-15
3.85531E-08 1.06303E-15
4.75965E-08 6.98211E-16
5.75917E-08 4.77229E-16
6.85389E-08 3.37119E-16
8.04380E-08 2.44841E-16
9.32891E-08 1.82076E-16
1.07092E-07 1.38191E-16
1.21847E-07 1.06764E-16
1.37554E-07 8.37833E-17
1.54213E-07 6.66655E-17
1.71823E-07 5.37041E-17
1.90386E-07 4.37448E-17
2.09900E-07 3.59897E-17
2.30367E-07 2.98792E-17
2.51785E-07 2.50123E-17
2.74156E-07 2.10972E-17
2.97478E-07 1.79190E-17
3.21752E-07 1.53174E-17
3.46978E-07 1.31712E-17
3.73156E-07 1.13881E-17
4.00286E-07 9.89685E-18
4.28368E-07 8.64187E-18
4.57402E-07 7.57966E-18
4.87388E-07 6.67575E-18
5.18325E-07 5.90266E-18
5.50215E-07 5.23831E-18
5.83057E-07 4.66485E-18
6.16850E-07 4.16777E-18
6.51596E-07 3.73517E-18
6.87293E-07 3.35727E-18
7.23942E-07 3.02597E-18
7.61543E-07 2.73456E-18
1.18991E-06 1.12016E-18
1.71347E-06 5.40237E-19
2.33223E-06 2.91626E-19
3.04617E-06 1.70958E-19
3.85531E-06 1.06735E-19
4.75964E-06 7.00339E-20
5.75916E-06 4.78374E-20
6.85388E-06 3.37787E-20
8.04378E-06 2.45259E-20
9.32888E-06 1.82354E-20
1.07092E-05 1.38386E-20
1.21846E-05 1.06907E-20
1.37553E-05 8.38920E-21
1.54212E-05 6.67507E-21
1.71822E-05 5.37726E-21
1.90385E-05 4.38033E-21
2.09899E-05 3.60402E-21
2.30365E-05 2.99224E-21
2.51783E-05 2.50490E-21
2.74153E-05 2.11286E-21
2.97475E-05 1.79463E-21
3.21749E-05 1.53415E-21
3.46974E-05 1.31929E-21
3.73152E-05 1.14078E-21
4.00281E-05 9.91472E-22
4.28362E-05 8.65810E-22
4.57395E-05 7.59435E-22
4.87380E-05 6.68903E-22
5.18317E-05 5.91466E-22
5.50205E-05 5.24920E-22
5.83045E-05 4.67480E-22
6.16838E-05 4.17691E-22
6.51582E-05 3.74361E-22
6.87277E-05 3.36509E-22
7.23925E-05 3.03323E-22
7.61524E-05 2.69775E-22
9.21439E-05 1.83654E-22
1.09658E-04 1.29203E-22
1.28695E-04 9.34303E-23
1.49255E-04 6.91597E-23
1.71338E-04 5.22339E-23
1.94942E-04 4.01443E-23
2.20070E-04 3.13288E-23
2.46720E-04 2.47811E-23
2.74892E-04 1.98386E-23
3.04586E-04 1.60532E-23
3.35803E-04 1.31160E-23
3.68542E-04 1.08100E-23
4.02802E-04 8.98013E-24
4.38585E-04 7.51396E-24
4.75889E-04 6.32869E-24
5.14715E-04 5.36267E-24
5.55063E-04 4.56941E-24
5.96931E-04 3.91349E-24
6.40321E-04 3.36764E-24
6.85233E-04 2.91067E-24
7.31665E-04 2.52600E-24
7.79618E-04 2.20050E-24
8.29092E-04 1.92373E-24
8.80086E-04 1.68735E-24
9.32601E-04 1.48459E-24
9.86636E-04 1.30998E-24
1.04219E-03 1.15906E-24
1.09927E-03 1.02814E-24
1.15786E-03 9.14198E-25
1.21797E-03 8.14721E-25
1.27961E-03 7.27616E-25
1.34276E-03 6.51127E-25
1.40743E-03 5.83783E-25
1.47362E-03 5.24341E-25
1.54133E-03 4.71748E-25
1.61056E-03 4.25110E-25
1.68131E-03 3.83661E-25
1.75357E-03 3.46751E-25
1.82735E-03 3.13817E-25
1.90265E-03 2.84376E-25
1.97947E-03 2.58011E-25
2.05780E-03 2.34361E-25
2.13765E-03 2.13112E-25
2.21902E-03 1.93991E-25
2.30190E-03 1.76760E-25
2.38630E-03 1.61210E-25
2.47222E-03 1.47159E-25
2.55965E-03 1.34445E-25
2.64859E-03 1.22928E-25
2.73905E-03 1.12482E-25
2.83103E-03 1.02998E-25
2.92452E-03 9.43772E-26
3.01952E-03 8.65338E-26
3.11604E-03 7.93905E-26
3.21407E-03 7.28789E-26
3.31362E-03 6.69377E-26
3.41468E-03 6.15125E-26
3.51725E-03 5.65543E-26
3.62133E-03 5.20196E-26
3.72692E-03 4.78690E-26
3.83403E-03 4.40674E-26
3.94265E-03 4.05831E-26
4.05278E-03 3.73875E-26
4.16442E-03 3.44549E-26
4.27757E-03 3.17622E-26
4.39223E-03 2.92883E-26
4.50840E-03 2.70142E-26
4.62608E-03 2.49228E-26
4.74527E-03 2.29985E-26
4.86597E-03 2.12272E-26
4.98817E-03 1.95959E-26
5.11188E-03 1.80930E-26
5.23711E-03 1.67079E-26
5.36383E-03 1.54309E-26
5.49207E-03 1.42531E-26
5.62181E-03 1.31665E-26
5.75306E-03 1.21637E-26
5.88581E-03 1.12381E-26
6.02007E-03 1.03834E-26
6.15583E-03 9.59401E-27
6.29310E-03 8.86482E-27
6.43187E-03 8.19108E-27
6.57214E-03 7.56846E-27
6.71392E-03 6.99297E-27
6.85720E-03 6.46098E-27
7.00198E-03 5.96913E-27
7.14827E-03 5.51433E-27
7.29605E-03 5.09376E-27
7.44534E-03 4.70479E-27
7.59612E-03 4.34504E-27
7.97965E-03 3.55935E-27
8.37255E-03 2.91276E-27
8.77480E-03 2.38066E-27
9.18641E-03 1.94290E-27
9.60736E-03 1.58294E-27
1.00376E-02 1.28715E-27
1.04773E-02 1.04433E-27
1.09262E-02 8.45237E-28
1.13844E-02 6.82220E-28
1.18520E-02 5.48967E-28
1.23288E-02 4.40254E-28
1.28150E-02 3.51758E-28
1.33104E-02 2.79899E-28
1.38150E-02 2.21713E-28
1.43290E-02 1.74748E-28
1.48521E-02 1.36975E-28
1.53845E-02 1.06715E-28
1.59262E-02 8.25810E-29
1.64770E-02 6.34300E-29
1.70371E-02 4.83184E-29
1.76063E-02 3.64705E-29
1.81848E-02 2.72488E-29
1.87724E-02 2.01311E-29
1.93692E-02 1.46905E-29
1.99751E-02 1.05789E-29
2.05901E-02 7.51366E-30
2.12143E-02 5.26578E-30
2.18476E-02 3.65078E-30
2.24900E-02 2.52065E-30
2.31415E-02 1.75728E-30
2.38021E-02 1.26707E-30
2.44717E-02 9.76325E-31
2.51504E-02 8.27567E-31
2.58382E-02 7.76401E-31
2.65349E-02 7.88962E-31
2.72407E-02 8.39810E-31
2.79555E-02 9.10198E-31
2.86793E-02 9.86658E-31
2.94120E-02 1.05984E-30
3.01537E-02 1.12359E-30
3.09043E-02 1.17418E-30
3.16639E-02 1.20969E-30
3.24324E-02 1.22956E-30
3.32098E-02 1.23416E-30
3.39961E-02 1.22453E-30
3.47912E-02 1.20212E-30
3.55952E-02 1.16861E-30
3.64081E-02 1.12580E-30
3.72297E-02 1.07549E-30
3.80602E-02 1.01940E-30
3.88995E-02 9.59152E-31
3.97476E-02 8.96217E-31
4.06044E-02 8.31901E-31
4.14700E-02 7.67344E-31
4.23443E-02 7.03514E-31
4.32273E-02 6.41216E-31
4.41190E-02 5.81102E-31
4.50194E-02 5.23680E-31
4.59284E-02 4.69333E-31
4.68461E-02 4.18327E-31
4.87074E-02 3.26928E-31
5.06030E-02 2.49888E-31
5.25328E-02 1.86645E-31
5.44967E-02 1.36023E-31
5.64946E-02 9.65057E-32
5.85262E-02 6.64377E-32
6.05914E-02 4.41766E-32
6.26901E-02 2.81870E-32
6.48222E-02 1.70983E-32
6.69873E-02 9.73128E-33
6.91854E-02 5.10427E-33
7.14163E-02 2.42432E-33
7.36799E-02 1.06975E-33
7.59760E-02 5.67890E-34
7.83043E-02 5.71351E-34
8.06647E-02 8.34627E-34
8.30571E-02 1.19257E-33
8.54812E-02 1.54138E-33
8.79369E-02 1.82247E-33
9.04240E-02 2.00918E-33
9.29422E-02 2.09630E-33
9.54915E-02 2.09190E-33
9.80716E-02 2.01139E-33
1.00682E-01 1.87321E-33
1.03323E-01 1.69595E-33
1.05995E-01 1.49660E-33
1.08696E-01 1.28952E-33
1.11427E-01 1.08606E-33
1.14188E-01 8.94568E-34
1.16978E-01 7.20626E-34
1.19797E-01 5.67439E-34
1.22645E-01 4.36284E-34
1.25522E-01 3.26963E-34
1.28428E-01 2.38221E-34
1.31361E-01 1.68111E-34
1.34323E-01 1.14301E-34
1.37313E-01 7.43079E-35
1.40330E-01 4.56807E-35
1.43375E-01 2.61229E-35
1.46447E-01 1.35719E-35
1.49545E-01 6.24150E-36
1.52671E-01 2.63563E-36
1.55823E-01 1.54197E-36
1.59001E-01 2.01117E-36
1.62205E-01 3.32729E-36
1.65435E-01 4.97425E-36
1.68690E-01 6.60130E-36
1.71970E-01 7.98919E-36
1.75276E-01 9.02009E-36
1.78606E-01 9.65026E-36
1.81961E-01 9.88792E-36
1.85340E-01 9.77423E-36
1.88743E-01 9.36954E-36
1.92169E-01 8.74168E-36
1.95619E-01 7.95874E-36
1.99092E-01 7.08357E-36
2.02589E-01 6.17084E-36
2.06107E-01 5.26524E-36
2.09649E-01 4.40127E-36
2.13212E-01 3.60367E-36
2.16797E-01 2.88825E-36
2.20404E-01 2.26333E-36
2.24032E-01 1.73112E-36
2.27680E-01 1.28902E-36
2.31350E-01 9.31093E-37
2.35040E-01 6.49090E-37
2.38751E-01 4.33532E-37
2.42481E-01 2.74443E-37
2.46231E-01 1.62019E-37
2.50000E-01 8.70216E-38
2.53788E-01 4.10927E-38
2.57595E-01 1.69044E-38
2.61421E-01 8.23489E-39
2.65264E-01 9.95964E-39
2.69126E-01 1.79898E-38
2.73005E-01 2.91826E-38
2.76901E-01 4.12167E-38
2.80814E-01 5.24922E-38
2.84744E-01 6.19727E-38
2.88691E-01 6.90895E-38
2.92653E-01 7.36368E-38
2.96632E-01 7.56721E-38
3.00625E-01 7.54114E-38
3.04634E-01 7.31935E-38
3.08658E-01 6.94060E-38
3.12697E-01 6.44472E-38
3.16749E-01 5.86882E-38
3.20816E-01 5.24810E-38
3.24896E-01 4.61167E-38
3.28990E-01 3.98334E-38
3.33097E-01 3.38271E-38
3.37216E-01 2.82314E-38
3.41348E-01 2.31428E-38
3.45492E-01 1.86159E-38
3.49647E-01 1.46765E-38
3.53814E-01 1.13184E-38
3.57992E-01 8.51821E-39
3.62181E-01 6.23446E-39
3.66381E-01 4.41735E-39
3.70590E-01 3.01108E-39
3.74810E-01 1.95493E-39
3.79039E-01 1.00000E-45
3.83277E-01 1.00000E-45
3.87524E-01 1.00000E-45
3.91780E-01 1.00000E-45
3.96044E-01 1.00000E-45
4.00316E-01 1.00000E-45
4.04596E-01 1.00000E-45
4.08882E-01 1.00000E-45
4.13176E-01 1.00000E-45
4.17476E-01 1.00000E-45
4.21783E-01 1.00000E-45
4.26095E-01 1.00000E-45
4.30413E-01 1.00000E-45
4.34737E-01 1.00000E-45
4.39065E-01 1.00000E-45
4.43398E-01 1.00000E-45
4.47736E-01 1.00000E-45
4.52077E-01 1.00000E-45
4.56422E-01 1.00000E-45
4.60770E-01 1.00000E-45
4.65122E-01 1.00000E-45
4.69476E-01 1.00000E-45
4.73832E-01 1.00000E-45
4.78190E-01 1.00000E-45
4.82550E-01 1.00000E-45
4.86912E-01 1.00000E-45
4.91274E-01 1.00000E-45
4.95637E-01 1.00000E-45
5.00000E-01 1.00000E-45
5.04363E-01 1.00000E-45
5.08726E-01 1.00000E-45
5.13088E-01 1.00000E-45
5.17450E-01 1.00000E-45
5.21810E-01 1.00000E-45
5.26168E-01 1.00000E-45
5.30524E-01 1.00000E-45
5.34878E-01 1.00000E-45
5.39230E-01 1.00000E-45
5.43578E-01 1.00000E-45
5.47923E-01 1.00000E-45
5.52264E-01 1.00000E-45
5.56602E-01 1.00000E-45
5.60935E-01 1.00000E-45
5.65263E-01 1.00000E-45
5.69587E-01 1.00000E-45
5.73905E-01 1.00000E-45
5.78217E-01 1.00000E-45
5.82524E-01 1.00000E-45
5.86824E-01 1.00000E-45
5.91118E-01 1.00000E-45
5.95404E-01 1.00000E-45
5.99684E-01 1.00000E-45
6.03956E-01 1.00000E-45
6.08220E-01 1.00000E-45
6.12476E-01 1.00000E-45
6.16723E-01 1.00000E-45
6.20961E-01 1.00000E-45
6.25190E-01 1.00000E-45
6.29410E-01 1.00000E-45
6.33619E-01 1.00000E-45
6.37819E-01 1.00000E-45
6.42008E-01 1.00000E-45
6.46186E-01 1.00000E-45
6.50353E-01 1.00000E-45
6.54508E-01 1.00000E-45
6.58652E-01 1.00000E-45
6.62784E-01 1.00000E-45
6.66903E-01 1.00000E-45
6.71010E-01 1.00000E-45
6.75104E-01 1.00000E-45
6.79184E-01 1.00000E-45
6.83251E-01 1.00000E-45
6.87303E-01 1.00000E-45
6.91342E-01 1.00000E-45
6.95366E-01 1.00000E-45
6.99375E-01 1.00000E-45
7.03368E-01 1.00000E-45
7.07347E-01 1.00000E-45
7.11309E-01 1.00000E-45
7.15256E-01 1.00000E-45
7.19186E-01 1.00000E-45
7.23099E-01 1.00000E-45
7.26995E-01 1.00000E-45
7.30874E-01 1.00000E-45
7.34736E-01 1.00000E-45
7.38579E-01 1.00000E-45
7.42405E-01 1.00000E-45
7.46212E-01 1.00000E-45
7.50000E-01 1.00000E-45
7.53769E-01 1.00000E-45
7.57519E-01 1.00000E-45
7.61249E-01 1.00000E-45
7.64960E-01 1.00000E-45
7.68650E-01 1.00000E-45
7.72320E-01 1.00000E-45
7.75968E-01 1.00000E-45
7.79596E-01 1.00000E-45
7.83203E-01 1.00000E-45
7.86788E-01 1.00000E-45
7.90351E-01 1.00000E-45
7.93893E-01 1.00000E-45
7.97411E-01 1.00000E-45
8.00908E-01 1.00000E-45
8.04381E-01 1.00000E-45
8.07831E-01 1.00000E-45
8.11257E-01 1.00000E-45
8.14660E-01 1.00000E-45
8.18039E-01 1.00000E-45
8.21394E-01 1.00000E-45
8.24724E-01 1.00000E-45
8.28030E-01 1.00000E-45
8.31310E-01 1.00000E-45
8.34565E-01 1.00000E-45
8.37795E-01 1.00000E-45
8.40999E-01 1.00000E-45
8.44177E-01 1.00000E-45
8.47329E-01 1.00000E-45
8.50455E-01 1.00000E-45
8.53553E-01 1.00000E-45
8.56625E-01 1.00000E-45
8.59670E-01 1.00000E-45
8.62687E-01 1.00000E-45
8.65677E-01 1.00000E-45
8.68639E-01 1.00000E-45
8.71572E-01 1.00000E-45
8.74478E-01 1.00000E-45
8.77355E-01 1.00000E-45
8.80203E-01 1.00000E-45
8.83022E-01 1.00000E-45
8.85812E-01 1.00000E-45
8.88573E-01 1.00000E-45
8.91304E-01 1.00000E-45
8.94005E-01 1.00000E-45
8.96677E-01 1.00000E-45
8.99318E-01 1.00000E-45
9.01928E-01 1.00000E-45
9.04508E-01 1.00000E-45
9.07058E-01 1.00000E-45
9.09576E-01 1.00000E-45
9.12063E-01 1.00000E-45
9.14519E-01 1.00000E-45
9.16943E-01 1.00000E-45
9.19335E-01 1.00000E-45
9.21696E-01 1.00000E-45
9.24024E-01 1.00000E-45
9.26320E-01 1.00000E-45
9.28584E-01 1.00000E-45
9.30815E-01 1.00000E-45
9.33013E-01 1.00000E-45
9.35178E-01 1.00000E-45
9.37310E-01 1.00000E-45
9.39409E-01 1.00000E-45
9.41474E-01 1.00000E-45
9.43505E-01 1.00000E-45
9.45503E-01 1.00000E-45
9.47467E-01 1.00000E-45
9.49397E-01 1.00000E-45
9.51293E-01 1.00000E-45
9.53154E-01 1.00000E-45
9.54981E-01 1.00000E-45
9.56773E-01 1.00000E-45
9.58530E-01 1.00000E-45
9.60252E-01 1.00000E-45
9.61940E-01 1.00000E-45
9.63592E-01 1.00000E-45
9.65209E-01 1.00000E-45
9.66790E-01 1.00000E-45
9.68336E-01 1.00000E-45
9.69846E-01 1.00000E-45
9.71321E-01 1.00000E-45
9.72759E-01 1.00000E-45
9.74162E-01 1.00000E-45
9.75528E-01 1.00000E-45
9.76858E-01 1.00000E-45
9.78152E-01 1.00000E-45
9.79410E-01 1.00000E-45
9.80631E-01 1.00000E-45
9.81815E-01 1.00000E-45
9.82963E-01 1.00000E-45
9.84074E-01 1.00000E-45
9.85148E-01 1.00000E-45
9.86185E-01 1.00000E-45
9.87185E-01 1.00000E-45
9.88148E-01 1.00000E-45
9.89074E-01 1.00000E-45
9.89962E-01 1.00000E-45
9.90814E-01 1.00000E-45
9.91627E-01 1.00000E-45
9.92404E-01 1.00000E-45
9.93143E-01 1.00000E-45
9.93844E-01 1.00000E-45
9.94508E-01 1.00000E-45
9.95134E-01 1.00000E-45
9.95722E-01 1.00000E-45
9.96273E-01 1.00000E-45
9.96786E-01 1.00000E-45
9.97261E-01 1.00000E-45
9.97698E-01 1.00000E-45
9.98097E-01 1.00000E-45
9.98459E-01 1.00000E-45
9.98782E-01 1.00000E-45
9.99067E-01 1.00000E-45
9.99315E-01 1.00000E-45
9.99524E-01 1.00000E-45
9.99695E-01 1.00000E-45
9.99829E-01 1.00000E-45
9.99924E-01 1.00000E-45
9.99981E-01 1.00000E-45
1.00000E+00 1.00000E-45
