 #
 # Subroutine ELSEPA. Elastic scattering of electrons and positrons
 #                    by neutral atoms and positive ions
 #
 # Projectile: electron
 # Kinetic energy = 1.25000E+07 eV = 4.59367E+05 a.u.
 #
 # WARNING: High-energy factorization with free-atom DF screening.
 #          Absorption, polarization and exchange corrections are
 #          switched off.
 #          Phase shifts are calculated for the bare nucleus.
 #          Scattering amplitudes are not evaluated.
 #
 # Element: Pr,  Z =  59,  atomic weight = 1.40908E+02 g/mol
 #
 # Nuclear model: Fermi distribution
 #                Average radius = 5.56795E-13 cm
 #                Skin thickness = 5.46000E-14 cm
 #
 # Number of electrons = 59
 #
 # Total elastic cross section = 7.29295E-18 cm**2 = 2.60436E-01 a0**2
 # 1st transport cross section = 3.72550E-23 cm**2 = 1.33040E-06 a0**2
 # 2nd transport cross section = 1.04699E-22 cm**2 = 3.73888E-06 a0**2
 #
 #
 # Differential cross section:                       MU=(1-COS(THETA))/2
 #
 #  THETA        MU          DCS          DCS        Sherman      error
 #  (deg)                 (cm**2/sr)   (a0**2/sr)    function
 #----------------------------------------------------------------------
0.00000E+00 1.80662E-11
7.61557E-13 1.80645E-11
1.18994E-12 1.80635E-11
1.71346E-12 1.80624E-11
2.33225E-12 1.80610E-11
3.04617E-12 1.80594E-11
3.85530E-12 1.80576E-11
4.75964E-12 1.80555E-11
5.75917E-12 1.80533E-11
6.85391E-12 1.80508E-11
8.04379E-12 1.80482E-11
9.32893E-12 1.80453E-11
1.07092E-11 1.80422E-11
1.21847E-11 1.80389E-11
1.37554E-11 1.80354E-11
1.54213E-11 1.80317E-11
1.71823E-11 1.80278E-11
1.90386E-11 1.80236E-11
2.09900E-11 1.80193E-11
2.30367E-11 1.80147E-11
2.51785E-11 1.80099E-11
2.74156E-11 1.80050E-11
2.97478E-11 1.79998E-11
3.21752E-11 1.79944E-11
3.46979E-11 1.79888E-11
3.73157E-11 1.79830E-11
4.00286E-11 1.79769E-11
4.28368E-11 1.79707E-11
4.57402E-11 1.79643E-11
4.87388E-11 1.79576E-11
5.18325E-11 1.79507E-11
5.50215E-11 1.79437E-11
5.83057E-11 1.79364E-11
6.16850E-11 1.79290E-11
6.51595E-11 1.79213E-11
6.87293E-11 1.79134E-11
7.23943E-11 1.79053E-11
7.61544E-11 1.78970E-11
1.18991E-10 1.78030E-11
1.71347E-10 1.76892E-11
2.33223E-10 1.75562E-11
3.04617E-10 1.74048E-11
3.85531E-10 1.72358E-11
4.75965E-10 1.70500E-11
5.75917E-10 1.68485E-11
6.85389E-10 1.66322E-11
8.04380E-10 1.64022E-11
9.32891E-10 1.61597E-11
1.07092E-09 1.59057E-11
1.21847E-09 1.56414E-11
1.37554E-09 1.53685E-11
1.54213E-09 1.50901E-11
1.71823E-09 1.48030E-11
1.90386E-09 1.45081E-11
2.09900E-09 1.42065E-11
2.30367E-09 1.39076E-11
2.51785E-09 1.36048E-11
2.74156E-09 1.32980E-11
2.97478E-09 1.29879E-11
3.21752E-09 1.26830E-11
3.46978E-09 1.23800E-11
3.73156E-09 1.20759E-11
4.00286E-09 1.17715E-11
4.28368E-09 1.14729E-11
4.57402E-09 1.11815E-11
4.87388E-09 1.08914E-11
5.18326E-09 1.06030E-11
5.50215E-09 1.03196E-11
5.83057E-09 1.00480E-11
6.16850E-09 9.77906E-12
6.51596E-09 9.51322E-12
6.87293E-09 9.25095E-12
7.23942E-09 9.00351E-12
7.61544E-09 8.75969E-12
1.18991E-08 6.65704E-12
1.71347E-08 5.13933E-12
2.33223E-08 4.05844E-12
3.04617E-08 3.27544E-12
3.85531E-08 2.69174E-12
4.75965E-08 2.24189E-12
5.75917E-08 1.88568E-12
6.85389E-08 1.59706E-12
8.04380E-08 1.36048E-12
9.32891E-08 1.16434E-12
1.07092E-07 1.00069E-12
1.21847E-07 8.63808E-13
1.37554E-07 7.47727E-13
1.54213E-07 6.45791E-13
1.71823E-07 5.63287E-13
1.90386E-07 4.95847E-13
2.09900E-07 4.40203E-13
2.30367E-07 3.88052E-13
2.51785E-07 3.44019E-13
2.74156E-07 3.07088E-13
2.97478E-07 2.75889E-13
3.21752E-07 2.47414E-13
3.46978E-07 2.22298E-13
3.73156E-07 2.00790E-13
4.00286E-07 1.82267E-13
4.28368E-07 1.65521E-13
4.57402E-07 1.50210E-13
4.87388E-07 1.36883E-13
5.18325E-07 1.25230E-13
5.50215E-07 1.14785E-13
5.83057E-07 1.04952E-13
6.16850E-07 9.62819E-14
6.51596E-07 8.86082E-14
6.87293E-07 8.17853E-14
7.23942E-07 7.52395E-14
7.61543E-07 6.94056E-14
1.18991E-06 3.34398E-14
1.71347E-06 1.79805E-14
2.33223E-06 1.06162E-14
3.04617E-06 6.73564E-15
3.85531E-06 4.49719E-15
4.75964E-06 3.11883E-15
5.75916E-06 2.22861E-15
6.85388E-06 1.62984E-15
8.04378E-06 1.21677E-15
9.32888E-06 9.25517E-16
1.07092E-05 7.16015E-16
1.21846E-05 5.62424E-16
1.37553E-05 4.47768E-16
1.54212E-05 3.60909E-16
1.71822E-05 2.94368E-16
1.90385E-05 2.42451E-16
2.09899E-05 2.01648E-16
2.30365E-05 1.69176E-16
2.51783E-05 1.42905E-16
2.74153E-05 1.21578E-16
2.97475E-05 1.04072E-16
3.21749E-05 8.96046E-17
3.46974E-05 7.75984E-17
3.73152E-05 6.75153E-17
4.00281E-05 5.90411E-17
4.28362E-05 5.18510E-17
4.57395E-05 4.57217E-17
4.87380E-05 4.04750E-17
5.18317E-05 3.59471E-17
5.50205E-05 3.20385E-17
5.83045E-05 2.86420E-17
6.16838E-05 2.56840E-17
6.51582E-05 2.30993E-17
6.87277E-05 2.08292E-17
7.23925E-05 1.88334E-17
7.61524E-05 1.70695E-17
9.21439E-05 1.17772E-17
1.09658E-04 8.38267E-18
1.28695E-04 6.12777E-18
1.49255E-04 4.58207E-18
1.71338E-04 3.49477E-18
1.94942E-04 2.71188E-18
2.20070E-04 2.13665E-18
2.46720E-04 1.70640E-18
2.74892E-04 1.37933E-18
3.04586E-04 1.12714E-18
3.35803E-04 9.30132E-19
3.68542E-04 7.74426E-19
4.02802E-04 6.50036E-19
4.38585E-04 5.49694E-19
4.75889E-04 4.68023E-19
5.14715E-04 4.00998E-19
5.55063E-04 3.45578E-19
5.96931E-04 2.99425E-19
6.40321E-04 2.60742E-19
6.85233E-04 2.28122E-19
7.31665E-04 2.00455E-19
7.79618E-04 1.76868E-19
8.29092E-04 1.56657E-19
8.80086E-04 1.39259E-19
9.32601E-04 1.24215E-19
9.86636E-04 1.11154E-19
1.04219E-03 9.97692E-20
1.09927E-03 8.98090E-20
1.15786E-03 8.10643E-20
1.21797E-03 7.33614E-20
1.27961E-03 6.65545E-20
1.34276E-03 6.05213E-20
1.40743E-03 5.51584E-20
1.47362E-03 5.03785E-20
1.54133E-03 4.61070E-20
1.61056E-03 4.22802E-20
1.68131E-03 3.88437E-20
1.75357E-03 3.57505E-20
1.82735E-03 3.29603E-20
1.90265E-03 3.04382E-20
1.97947E-03 2.81536E-20
2.05780E-03 2.60803E-20
2.13765E-03 2.41952E-20
2.21902E-03 2.24780E-20
2.30190E-03 2.09113E-20
2.38630E-03 1.94792E-20
2.47222E-03 1.81683E-20
2.55965E-03 1.69664E-20
2.64859E-03 1.58627E-20
2.73905E-03 1.48477E-20
2.83103E-03 1.39131E-20
2.92452E-03 1.30512E-20
3.01952E-03 1.22555E-20
3.11604E-03 1.15198E-20
3.21407E-03 1.08388E-20
3.31362E-03 1.02076E-20
3.41468E-03 9.62208E-21
3.51725E-03 9.07816E-21
3.62133E-03 8.57238E-21
3.72692E-03 8.10156E-21
3.83403E-03 7.66284E-21
3.94265E-03 7.25361E-21
4.05278E-03 6.87153E-21
4.16442E-03 6.51444E-21
4.27757E-03 6.18042E-21
4.39223E-03 5.86769E-21
4.50840E-03 5.57463E-21
4.62608E-03 5.29978E-21
4.74527E-03 5.04179E-21
4.86597E-03 4.79943E-21
4.98817E-03 4.57157E-21
5.11188E-03 4.35718E-21
5.23711E-03 4.15532E-21
5.36383E-03 3.96511E-21
5.49207E-03 3.78575E-21
5.62181E-03 3.61650E-21
5.75306E-03 3.45669E-21
5.88581E-03 3.30568E-21
6.02007E-03 3.16291E-21
6.15583E-03 3.02783E-21
6.29310E-03 2.89995E-21
6.43187E-03 2.77881E-21
6.57214E-03 2.66400E-21
6.71392E-03 2.55510E-21
6.85720E-03 2.45177E-21
7.00198E-03 2.35366E-21
7.14827E-03 2.26046E-21
7.29605E-03 2.17187E-21
7.44534E-03 2.08763E-21
7.59612E-03 2.00747E-21
7.97965E-03 1.82344E-21
8.37255E-03 1.66023E-21
8.77480E-03 1.51506E-21
9.18641E-03 1.38558E-21
9.60736E-03 1.26979E-21
1.00376E-02 1.16598E-21
1.04773E-02 1.07269E-21
1.09262E-02 9.88648E-22
1.13844E-02 9.12776E-22
1.18520E-02 8.44132E-22
1.23288E-02 7.81902E-22
1.28150E-02 7.25375E-22
1.33104E-02 6.73931E-22
1.38150E-02 6.27028E-22
1.43290E-02 5.84188E-22
1.48521E-02 5.44996E-22
1.53845E-02 5.09082E-22
1.59262E-02 4.76121E-22
1.64770E-02 4.45822E-22
1.70371E-02 4.17931E-22
1.76063E-02 3.92219E-22
1.81848E-02 3.68484E-22
1.87724E-02 3.46546E-22
1.93692E-02 3.26241E-22
1.99751E-02 3.07426E-22
2.05901E-02 2.89968E-22
2.12143E-02 2.73752E-22
2.18476E-02 2.58673E-22
2.24900E-02 2.44635E-22
2.31415E-02 2.31553E-22
2.38021E-02 2.19347E-22
2.44717E-02 2.07949E-22
2.51504E-02 1.97295E-22
2.58382E-02 1.87326E-22
2.65349E-02 1.77990E-22
2.72407E-02 1.69239E-22
2.79555E-02 1.61028E-22
2.86793E-02 1.53318E-22
2.94120E-02 1.46072E-22
3.01537E-02 1.39258E-22
3.09043E-02 1.32843E-22
3.16639E-02 1.26800E-22
3.24324E-02 1.21103E-22
3.32098E-02 1.15728E-22
3.39961E-02 1.10654E-22
3.47912E-02 1.05861E-22
3.55952E-02 1.01328E-22
3.64081E-02 9.70408E-23
3.72297E-02 9.29818E-23
3.80602E-02 8.91369E-23
3.88995E-02 8.54925E-23
3.97476E-02 8.20361E-23
4.06044E-02 7.87559E-23
4.14700E-02 7.56411E-23
4.23443E-02 7.26817E-23
4.32273E-02 6.98685E-23
4.41190E-02 6.71928E-23
4.50194E-02 6.46464E-23
4.59284E-02 6.22217E-23
4.68461E-02 5.99118E-23
4.87074E-02 5.56109E-23
5.06030E-02 5.16961E-23
5.25328E-02 4.81260E-23
5.44967E-02 4.48646E-23
5.64946E-02 4.18797E-23
5.85262E-02 3.91435E-23
6.05914E-02 3.66312E-23
6.26901E-02 3.43208E-23
6.48222E-02 3.21929E-23
6.69873E-02 3.02303E-23
6.91854E-02 2.84176E-23
7.14163E-02 2.67411E-23
7.36799E-02 2.51885E-23
7.59760E-02 2.37488E-23
7.83043E-02 2.24122E-23
8.06647E-02 2.11698E-23
8.30571E-02 2.00137E-23
8.54812E-02 1.89367E-23
8.79369E-02 1.79322E-23
9.04240E-02 1.69945E-23
9.29422E-02 1.61181E-23
9.54915E-02 1.52983E-23
9.80716E-02 1.45307E-23
1.00682E-01 1.38112E-23
1.03323E-01 1.31363E-23
1.05995E-01 1.25026E-23
1.08696E-01 1.19071E-23
1.11427E-01 1.13470E-23
1.14188E-01 1.08198E-23
1.16978E-01 1.03232E-23
1.19797E-01 9.85506E-24
1.22645E-01 9.41337E-24
1.25522E-01 8.99636E-24
1.28428E-01 8.60237E-24
1.31361E-01 8.22986E-24
1.34323E-01 7.87744E-24
1.37313E-01 7.54376E-24
1.40330E-01 7.22763E-24
1.43375E-01 6.92796E-24
1.46447E-01 6.64372E-24
1.49545E-01 6.37395E-24
1.52671E-01 6.11777E-24
1.55823E-01 5.87434E-24
1.59001E-01 5.64291E-24
1.62205E-01 5.42276E-24
1.65435E-01 5.21324E-24
1.68690E-01 5.01372E-24
1.71970E-01 4.82363E-24
1.75276E-01 4.64243E-24
1.78606E-01 4.46962E-24
1.81961E-01 4.30474E-24
1.85340E-01 4.14734E-24
1.88743E-01 3.99703E-24
1.92169E-01 3.85341E-24
1.95619E-01 3.71612E-24
1.99092E-01 3.58484E-24
2.02589E-01 3.45924E-24
2.06107E-01 3.33903E-24
2.09649E-01 3.22393E-24
2.13212E-01 3.11368E-24
2.16797E-01 3.00803E-24
2.20404E-01 2.90676E-24
2.24032E-01 2.80964E-24
2.27680E-01 2.71647E-24
2.31350E-01 2.62706E-24
2.35040E-01 2.54123E-24
2.38751E-01 2.45880E-24
2.42481E-01 2.37961E-24
2.46231E-01 2.30351E-24
2.50000E-01 2.23035E-24
2.53788E-01 2.16001E-24
2.57595E-01 2.09234E-24
2.61421E-01 2.02722E-24
2.65264E-01 1.96455E-24
2.69126E-01 1.90421E-24
2.73005E-01 1.84609E-24
2.76901E-01 1.79011E-24
2.80814E-01 1.73616E-24
2.84744E-01 1.68415E-24
2.88691E-01 1.63401E-24
2.92653E-01 1.58565E-24
2.96632E-01 1.53899E-24
3.00625E-01 1.49398E-24
3.04634E-01 1.45052E-24
3.08658E-01 1.40857E-24
3.12697E-01 1.36806E-24
3.16749E-01 1.32893E-24
3.20816E-01 1.29112E-24
3.24896E-01 1.25459E-24
3.28990E-01 1.21927E-24
3.33097E-01 1.18512E-24
3.37216E-01 1.15210E-24
3.41348E-01 1.12016E-24
3.45492E-01 1.08926E-24
3.49647E-01 1.05936E-24
3.53814E-01 1.03041E-24
3.57992E-01 1.00239E-24
3.62181E-01 9.75258E-25
3.66381E-01 9.48980E-25
3.70590E-01 9.23525E-25
3.74810E-01 8.98862E-25
3.79039E-01 8.74962E-25
3.83277E-01 8.51797E-25
3.87524E-01 8.29339E-25
3.91780E-01 8.07564E-25
3.96044E-01 7.86447E-25
4.00316E-01 7.65964E-25
4.04596E-01 7.46092E-25
4.08882E-01 7.26810E-25
4.13176E-01 7.08098E-25
4.17476E-01 6.89935E-25
4.21783E-01 6.72302E-25
4.26095E-01 6.55181E-25
4.30413E-01 6.38555E-25
4.34737E-01 6.22406E-25
4.39065E-01 6.06718E-25
4.43398E-01 5.91476E-25
4.47736E-01 5.76665E-25
4.52077E-01 5.62271E-25
4.56422E-01 5.48279E-25
4.60770E-01 5.34677E-25
4.65122E-01 5.21451E-25
4.69476E-01 5.08590E-25
4.73832E-01 4.96082E-25
4.78190E-01 4.83914E-25
4.82550E-01 4.72077E-25
4.86912E-01 4.60560E-25
4.91274E-01 4.49352E-25
4.95637E-01 4.38445E-25
5.00000E-01 4.27827E-25
5.04363E-01 4.17492E-25
5.08726E-01 4.07429E-25
5.13088E-01 3.97630E-25
5.17450E-01 3.88087E-25
5.21810E-01 3.78793E-25
5.26168E-01 3.69739E-25
5.30524E-01 3.60919E-25
5.34878E-01 3.52326E-25
5.39230E-01 3.43952E-25
5.43578E-01 3.35791E-25
5.47923E-01 3.27837E-25
5.52264E-01 3.20084E-25
5.56602E-01 3.12526E-25
5.60935E-01 3.05157E-25
5.65263E-01 2.97972E-25
5.69587E-01 2.90965E-25
5.73905E-01 2.84131E-25
5.78217E-01 2.77466E-25
5.82524E-01 2.70964E-25
5.86824E-01 2.64621E-25
5.91118E-01 2.58433E-25
5.95404E-01 2.52394E-25
5.99684E-01 2.46502E-25
6.03956E-01 2.40751E-25
6.08220E-01 2.35138E-25
6.12476E-01 2.29659E-25
6.16723E-01 2.24310E-25
6.20961E-01 2.19089E-25
6.25190E-01 2.13991E-25
6.29410E-01 2.09012E-25
6.33619E-01 2.04151E-25
6.37819E-01 1.99403E-25
6.42008E-01 1.94766E-25
6.46186E-01 1.90237E-25
6.50353E-01 1.85812E-25
6.54508E-01 1.81490E-25
6.58652E-01 1.77267E-25
6.62784E-01 1.73141E-25
6.66903E-01 1.69109E-25
6.71010E-01 1.65169E-25
6.75104E-01 1.61318E-25
6.79184E-01 1.57555E-25
6.83251E-01 1.53876E-25
6.87303E-01 1.50281E-25
6.91342E-01 1.46766E-25
6.95366E-01 1.43330E-25
6.99375E-01 1.39971E-25
7.03368E-01 1.36686E-25
7.07347E-01 1.33474E-25
7.11309E-01 1.30334E-25
7.15256E-01 1.27263E-25
7.19186E-01 1.24259E-25
7.23099E-01 1.21322E-25
7.26995E-01 1.18449E-25
7.30874E-01 1.15638E-25
7.34736E-01 1.12889E-25
7.38579E-01 1.10200E-25
7.42405E-01 1.07570E-25
7.46212E-01 1.04996E-25
7.50000E-01 1.02478E-25
7.53769E-01 1.00015E-25
7.57519E-01 9.76043E-26
7.61249E-01 9.52456E-26
7.64960E-01 9.29376E-26
7.68650E-01 9.06791E-26
7.72320E-01 8.84689E-26
7.75968E-01 8.63059E-26
7.79596E-01 8.41890E-26
7.83203E-01 8.21171E-26
7.86788E-01 8.00894E-26
7.90351E-01 7.81046E-26
7.93893E-01 7.61620E-26
7.97411E-01 7.42605E-26
8.00908E-01 7.23992E-26
8.04381E-01 7.05773E-26
8.07831E-01 6.87938E-26
8.11257E-01 6.70480E-26
8.14660E-01 6.53389E-26
8.18039E-01 6.36659E-26
8.21394E-01 6.20280E-26
8.24724E-01 6.04246E-26
8.28030E-01 5.88549E-26
8.31310E-01 5.73183E-26
8.34565E-01 5.58139E-26
8.37795E-01 5.43411E-26
8.40999E-01 5.28993E-26
8.44177E-01 5.14878E-26
8.47329E-01 5.01060E-26
8.50455E-01 4.87532E-26
8.53553E-01 4.74289E-26
8.56625E-01 4.61324E-26
8.59670E-01 4.48633E-26
8.62687E-01 4.36209E-26
8.65677E-01 4.24047E-26
8.68639E-01 4.12143E-26
8.71572E-01 4.00490E-26
8.74478E-01 3.89084E-26
8.77355E-01 3.77920E-26
8.80203E-01 3.66993E-26
8.83022E-01 3.56299E-26
8.85812E-01 3.45833E-26
8.88573E-01 3.35590E-26
8.91304E-01 3.25568E-26
8.94005E-01 3.15760E-26
8.96677E-01 3.06164E-26
8.99318E-01 2.96776E-26
9.01928E-01 2.87591E-26
9.04508E-01 2.78606E-26
9.07058E-01 2.69817E-26
9.09576E-01 2.61220E-26
9.12063E-01 2.52813E-26
9.14519E-01 2.44592E-26
9.16943E-01 2.36553E-26
9.19335E-01 2.28693E-26
9.21696E-01 2.21010E-26
9.24024E-01 2.13499E-26
9.26320E-01 2.06159E-26
9.28584E-01 1.98987E-26
9.30815E-01 1.91978E-26
9.33013E-01 1.85132E-26
9.35178E-01 1.78445E-26
9.37310E-01 1.71914E-26
9.39409E-01 1.65538E-26
9.41474E-01 1.59313E-26
9.43505E-01 1.53237E-26
9.45503E-01 1.47309E-26
9.47467E-01 1.41525E-26
9.49397E-01 1.35883E-26
9.51293E-01 1.30382E-26
9.53154E-01 1.25019E-26
9.54981E-01 1.19792E-26
9.56773E-01 1.14700E-26
9.58530E-01 1.09740E-26
9.60252E-01 1.04911E-26
9.61940E-01 1.00210E-26
9.63592E-01 9.56365E-27
9.65209E-01 9.11883E-27
9.66790E-01 8.68638E-27
9.68336E-01 8.26614E-27
9.69846E-01 7.85795E-27
9.71321E-01 7.46168E-27
9.72759E-01 7.07717E-27
9.74162E-01 6.70428E-27
9.75528E-01 6.34288E-27
9.76858E-01 5.99284E-27
9.78152E-01 5.65403E-27
9.79410E-01 5.32633E-27
9.80631E-01 5.00962E-27
9.81815E-01 4.70379E-27
9.82963E-01 4.40872E-27
9.84074E-01 4.12432E-27
9.85148E-01 3.85048E-27
9.86185E-01 3.58710E-27
9.87185E-01 3.33408E-27
9.88148E-01 3.09135E-27
9.89074E-01 2.85881E-27
9.89962E-01 2.63638E-27
9.90814E-01 2.42398E-27
9.91627E-01 2.22154E-27
9.92404E-01 2.02898E-27
9.93143E-01 1.84623E-27
9.93844E-01 1.67325E-27
9.94508E-01 1.50995E-27
9.95134E-01 1.35629E-27
9.95722E-01 1.21220E-27
9.96273E-01 1.07765E-27
9.96786E-01 9.52579E-28
9.97261E-01 8.36948E-28
9.97698E-01 7.30715E-28
9.98097E-01 6.33843E-28
9.98459E-01 5.46299E-28
9.98782E-01 4.68052E-28
9.99067E-01 3.99074E-28
9.99315E-01 3.39342E-28
9.99524E-01 2.88834E-28
9.99695E-01 2.47534E-28
9.99829E-01 2.15427E-28
9.99924E-01 1.92501E-28
9.99981E-01 1.78748E-28
1.00000E+00 1.74165E-28
