 #
 # Subroutine ELSEPA. Elastic scattering of electrons and positrons
 #                    by neutral atoms and positive ions
 #
 # Projectile: electron
 # Kinetic energy = 3.50000E+07 eV = 1.28623E+06 a.u.
 #
 # WARNING: High-energy factorization with free-atom DF screening.
 #          Absorption, polarization and exchange corrections are
 #          switched off.
 #          Phase shifts are calculated for the bare nucleus.
 #          Scattering amplitudes are not evaluated.
 #
 # Element: Pr,  Z =  59,  atomic weight = 1.40908E+02 g/mol
 #
 # Nuclear model: Fermi distribution
 #                Average radius = 5.56795E-13 cm
 #                Skin thickness = 5.46000E-14 cm
 #
 # Number of electrons = 59
 #
 # Total elastic cross section = 7.27903E-18 cm**2 = 2.59939E-01 a0**2
 # 1st transport cross section = 5.35769E-24 cm**2 = 1.91327E-07 a0**2
 # 2nd transport cross section = 1.55163E-23 cm**2 = 5.54098E-07 a0**2
 #
 #
 # Differential cross section:                       MU=(1-COS(THETA))/2
 #
 #  THETA        MU          DCS          DCS        Sherman      error
 #  (deg)                 (cm**2/sr)   (a0**2/sr)    function
 #----------------------------------------------------------------------
0.00000E+00 1.34577E-10
7.61557E-13 1.34482E-10
1.18994E-12 1.34429E-10
1.71346E-12 1.34364E-10
2.33225E-12 1.34287E-10
3.04617E-12 1.34199E-10
3.85530E-12 1.34098E-10
4.75964E-12 1.33987E-10
5.75917E-12 1.33863E-10
6.85391E-12 1.33728E-10
8.04379E-12 1.33582E-10
9.32893E-12 1.33424E-10
1.07092E-11 1.33255E-10
1.21847E-11 1.33075E-10
1.37554E-11 1.32883E-10
1.54213E-11 1.32680E-10
1.71823E-11 1.32467E-10
1.90386E-11 1.32242E-10
2.09900E-11 1.32007E-10
2.30367E-11 1.31760E-10
2.51785E-11 1.31503E-10
2.74156E-11 1.31236E-10
2.97478E-11 1.30958E-10
3.21752E-11 1.30670E-10
3.46979E-11 1.30371E-10
3.73157E-11 1.30063E-10
4.00286E-11 1.29744E-10
4.28368E-11 1.29416E-10
4.57402E-11 1.29078E-10
4.87388E-11 1.28730E-10
5.18325E-11 1.28373E-10
5.50215E-11 1.28007E-10
5.83057E-11 1.27632E-10
6.16850E-11 1.27247E-10
6.51595E-11 1.26854E-10
6.87293E-11 1.26452E-10
7.23943E-11 1.26041E-10
7.61544E-11 1.25622E-10
1.18991E-10 1.21006E-10
1.71347E-10 1.15733E-10
2.33223E-10 1.10011E-10
3.04617E-10 1.03934E-10
3.85531E-10 9.77179E-11
4.75965E-10 9.15125E-11
5.75917E-10 8.53676E-11
6.85389E-10 7.94651E-11
8.04380E-10 7.38319E-11
9.32891E-10 6.84714E-11
1.07092E-09 6.35198E-11
1.21847E-09 5.89031E-11
1.37554E-09 5.46107E-11
1.54213E-09 5.07325E-11
1.71823E-09 4.71521E-11
1.90386E-09 4.38737E-11
2.09900E-09 4.09162E-11
2.30367E-09 3.82012E-11
2.51785E-09 3.57297E-11
2.74156E-09 3.34870E-11
2.97478E-09 3.14287E-11
3.21752E-09 2.95521E-11
3.46978E-09 2.78341E-11
3.73156E-09 2.62523E-11
4.00286E-09 2.48005E-11
4.28368E-09 2.34598E-11
4.57402E-09 2.22194E-11
4.87388E-09 2.10699E-11
5.18326E-09 2.00009E-11
5.50215E-09 1.90068E-11
5.83057E-09 1.80756E-11
6.16850E-09 1.72058E-11
6.51596E-09 1.63918E-11
6.87293E-09 1.56238E-11
7.23942E-09 1.49036E-11
7.61544E-09 1.42253E-11
1.18991E-08 9.14440E-12
1.71347E-08 6.08389E-12
2.33223E-08 4.13057E-12
3.04617E-08 2.94481E-12
3.85531E-08 2.14747E-12
4.75965E-08 1.60291E-12
5.75917E-08 1.22740E-12
6.85389E-08 9.51169E-13
8.04380E-08 7.47908E-13
9.32891E-08 5.96955E-13
1.07092E-07 4.79159E-13
1.21847E-07 3.89074E-13
1.37554E-07 3.19265E-13
1.54213E-07 2.63414E-13
1.71823E-07 2.19556E-13
1.90386E-07 1.84526E-13
2.09900E-07 1.56138E-13
2.30367E-07 1.33201E-13
2.51785E-07 1.14421E-13
2.74156E-07 9.89013E-14
2.97478E-07 8.60424E-14
3.21752E-07 7.52636E-14
3.46978E-07 6.61655E-14
3.73156E-07 5.84625E-14
4.00286E-07 5.18625E-14
4.28368E-07 4.61967E-14
4.57402E-07 4.13144E-14
4.87388E-07 3.70327E-14
5.18325E-07 3.33030E-14
5.50215E-07 3.00439E-14
5.83057E-07 2.71601E-14
6.16850E-07 2.46219E-14
6.51596E-07 2.23758E-14
6.87293E-07 2.03700E-14
7.23942E-07 1.85866E-14
7.61543E-07 1.69913E-14
1.18991E-06 7.54837E-15
1.71347E-06 3.82313E-15
2.33223E-06 2.13747E-15
3.04617E-06 1.28986E-15
3.85531E-06 8.24421E-16
4.75964E-06 5.51669E-16
5.75916E-06 3.82904E-16
6.85388E-06 2.73947E-16
8.04378E-06 2.01097E-16
9.32888E-06 1.50854E-16
1.07092E-05 1.15346E-16
1.21846E-05 8.96775E-17
1.37553E-05 7.07526E-17
1.54212E-05 5.65630E-17
1.71822E-05 4.57537E-17
1.90385E-05 3.73916E-17
2.09899E-05 3.08803E-17
2.30365E-05 2.57229E-17
2.51783E-05 2.15950E-17
2.74153E-05 1.82598E-17
2.97475E-05 1.55429E-17
3.21749E-05 1.33133E-17
3.46974E-05 1.14706E-17
3.73152E-05 9.93734E-18
4.00281E-05 8.65299E-18
4.28362E-05 7.57010E-18
4.57395E-05 6.65162E-18
4.87380E-05 5.86816E-18
5.18317E-05 5.19651E-18
5.50205E-05 4.61813E-18
5.83045E-05 4.11797E-18
6.16838E-05 3.68382E-18
6.51582E-05 3.30556E-18
6.87277E-05 2.97475E-18
7.23925E-05 2.68443E-18
7.61524E-05 2.42908E-18
9.21439E-05 1.66591E-18
1.09658E-04 1.18032E-18
1.28695E-04 8.59592E-19
1.49255E-04 6.40756E-19
1.71338E-04 4.87391E-19
1.94942E-04 3.77292E-19
2.20070E-04 2.96619E-19
2.46720E-04 2.36415E-19
2.74892E-04 1.90747E-19
3.04586E-04 1.55604E-19
3.35803E-04 1.28200E-19
3.68542E-04 1.06579E-19
4.02802E-04 8.93349E-20
4.38585E-04 7.54457E-20
4.75889E-04 6.41579E-20
5.14715E-04 5.49073E-20
5.55063E-04 4.72684E-20
5.96931E-04 4.09152E-20
6.40321E-04 3.55964E-20
6.85233E-04 3.11163E-20
7.31665E-04 2.73208E-20
7.79618E-04 2.40881E-20
8.29092E-04 2.13208E-20
8.80086E-04 1.89408E-20
9.32601E-04 1.68846E-20
9.86636E-04 1.51008E-20
1.04219E-03 1.35472E-20
1.09927E-03 1.21889E-20
1.15786E-03 1.09972E-20
1.21797E-03 9.94812E-21
1.27961E-03 9.02162E-21
1.34276E-03 8.20089E-21
1.40743E-03 7.47175E-21
1.47362E-03 6.82216E-21
1.54133E-03 6.24193E-21
1.61056E-03 5.72233E-21
1.68131E-03 5.25592E-21
1.75357E-03 4.83627E-21
1.82735E-03 4.45786E-21
1.90265E-03 4.11591E-21
1.97947E-03 3.80627E-21
2.05780E-03 3.52535E-21
2.13765E-03 3.26999E-21
2.21902E-03 3.03746E-21
2.30190E-03 2.82533E-21
2.38630E-03 2.63149E-21
2.47222E-03 2.45408E-21
2.55965E-03 2.29146E-21
2.64859E-03 2.14216E-21
2.73905E-03 2.00488E-21
2.83103E-03 1.87849E-21
2.92452E-03 1.76196E-21
3.01952E-03 1.65438E-21
3.11604E-03 1.55494E-21
3.21407E-03 1.46289E-21
3.31362E-03 1.37760E-21
3.41468E-03 1.29848E-21
3.51725E-03 1.22499E-21
3.62133E-03 1.15666E-21
3.72692E-03 1.09306E-21
3.83403E-03 1.03380E-21
3.94265E-03 9.78526E-22
4.05278E-03 9.26924E-22
4.16442E-03 8.78702E-22
4.27757E-03 8.33596E-22
4.39223E-03 7.91366E-22
4.50840E-03 7.51797E-22
4.62608E-03 7.14688E-22
4.74527E-03 6.79857E-22
4.86597E-03 6.47137E-22
4.98817E-03 6.16375E-22
5.11188E-03 5.87434E-22
5.23711E-03 5.60185E-22
5.36383E-03 5.34509E-22
5.49207E-03 5.10298E-22
5.62181E-03 4.87452E-22
5.75306E-03 4.65881E-22
5.88581E-03 4.45500E-22
6.02007E-03 4.26230E-22
6.15583E-03 4.07997E-22
6.29310E-03 3.90738E-22
6.43187E-03 3.74388E-22
6.57214E-03 3.58893E-22
6.71392E-03 3.44196E-22
6.85720E-03 3.30250E-22
7.00198E-03 3.17009E-22
7.14827E-03 3.04431E-22
7.29605E-03 2.92476E-22
7.44534E-03 2.81106E-22
7.59612E-03 2.70287E-22
7.97965E-03 2.45453E-22
8.37255E-03 2.23426E-22
8.77480E-03 2.03836E-22
9.18641E-03 1.86363E-22
9.60736E-03 1.70737E-22
1.00376E-02 1.56729E-22
1.04773E-02 1.44139E-22
1.09262E-02 1.32798E-22
1.13844E-02 1.22560E-22
1.18520E-02 1.13298E-22
1.23288E-02 1.04901E-22
1.28150E-02 9.72746E-23
1.33104E-02 9.03339E-23
1.38150E-02 8.40062E-23
1.43290E-02 7.82272E-23
1.48521E-02 7.29406E-23
1.53845E-02 6.80965E-23
1.59262E-02 6.36510E-23
1.64770E-02 5.95651E-23
1.70371E-02 5.58042E-23
1.76063E-02 5.23377E-23
1.81848E-02 4.91382E-23
1.87724E-02 4.61807E-23
1.93692E-02 4.34439E-23
1.99751E-02 4.09082E-23
2.05901E-02 3.85560E-23
2.12143E-02 3.63714E-23
2.18476E-02 3.43403E-23
2.24900E-02 3.24499E-23
2.31415E-02 3.06884E-23
2.38021E-02 2.90455E-23
2.44717E-02 2.75116E-23
2.51504E-02 2.60781E-23
2.58382E-02 2.47372E-23
2.65349E-02 2.34817E-23
2.72407E-02 2.23052E-23
2.79555E-02 2.12017E-23
2.86793E-02 2.01658E-23
2.94120E-02 1.91926E-23
3.01537E-02 1.82776E-23
3.09043E-02 1.74166E-23
3.16639E-02 1.66057E-23
3.24324E-02 1.58416E-23
3.32098E-02 1.51210E-23
3.39961E-02 1.44409E-23
3.47912E-02 1.37987E-23
3.55952E-02 1.31918E-23
3.64081E-02 1.26178E-23
3.72297E-02 1.20747E-23
3.80602E-02 1.15605E-23
3.88995E-02 1.10733E-23
3.97476E-02 1.06115E-23
4.06044E-02 1.01734E-23
4.14700E-02 9.75766E-24
4.23443E-02 9.36285E-24
4.32273E-02 8.98773E-24
4.41190E-02 8.63113E-24
4.50194E-02 8.29196E-24
4.59284E-02 7.96920E-24
4.68461E-02 7.66190E-24
4.87074E-02 7.09021E-24
5.06030E-02 6.57050E-24
5.25328E-02 6.09717E-24
5.44967E-02 5.66533E-24
5.64946E-02 5.27069E-24
5.85262E-02 4.90944E-24
6.05914E-02 4.57825E-24
6.26901E-02 4.27416E-24
6.48222E-02 3.99455E-24
6.69873E-02 3.73708E-24
6.91854E-02 3.49969E-24
7.14163E-02 3.28052E-24
7.36799E-02 3.07793E-24
7.59760E-02 2.89042E-24
7.83043E-02 2.71668E-24
8.06647E-02 2.55551E-24
8.30571E-02 2.40584E-24
8.54812E-02 2.26669E-24
8.79369E-02 2.13720E-24
9.04240E-02 2.01658E-24
9.29422E-02 1.90410E-24
9.54915E-02 1.79913E-24
9.80716E-02 1.70106E-24
1.00682E-01 1.60938E-24
1.03323E-01 1.52358E-24
1.05995E-01 1.44322E-24
1.08696E-01 1.36790E-24
1.11427E-01 1.29725E-24
1.14188E-01 1.23093E-24
1.16978E-01 1.16862E-24
1.19797E-01 1.11004E-24
1.22645E-01 1.05493E-24
1.25522E-01 1.00305E-24
1.28428E-01 9.54171E-25
1.31361E-01 9.08098E-25
1.34323E-01 8.64639E-25
1.37313E-01 8.23622E-25
1.40330E-01 7.84886E-25
1.43375E-01 7.48283E-25
1.46447E-01 7.13676E-25
1.49545E-01 6.80938E-25
1.52671E-01 6.49952E-25
1.55823E-01 6.20608E-25
1.59001E-01 5.92805E-25
1.62205E-01 5.66449E-25
1.65435E-01 5.41453E-25
1.68690E-01 5.17735E-25
1.71970E-01 4.95219E-25
1.75276E-01 4.73835E-25
1.78606E-01 4.53517E-25
1.81961E-01 4.34204E-25
1.85340E-01 4.15837E-25
1.88743E-01 3.98364E-25
1.92169E-01 3.81734E-25
1.95619E-01 3.65900E-25
1.99092E-01 3.50819E-25
2.02589E-01 3.36449E-25
2.06107E-01 3.22751E-25
2.09649E-01 3.09690E-25
2.13212E-01 2.97231E-25
2.16797E-01 2.85343E-25
2.20404E-01 2.73995E-25
2.24032E-01 2.63160E-25
2.27680E-01 2.52811E-25
2.31350E-01 2.42923E-25
2.35040E-01 2.33473E-25
2.38751E-01 2.24438E-25
2.42481E-01 2.15797E-25
2.46231E-01 2.07532E-25
2.50000E-01 1.99623E-25
2.53788E-01 1.92053E-25
2.57595E-01 1.84806E-25
2.61421E-01 1.77865E-25
2.65264E-01 1.71217E-25
2.69126E-01 1.64847E-25
2.73005E-01 1.58742E-25
2.76901E-01 1.52889E-25
2.80814E-01 1.47277E-25
2.84744E-01 1.41895E-25
2.88691E-01 1.36731E-25
2.92653E-01 1.31777E-25
2.96632E-01 1.27022E-25
3.00625E-01 1.22457E-25
3.04634E-01 1.18074E-25
3.08658E-01 1.13865E-25
3.12697E-01 1.09822E-25
3.16749E-01 1.05937E-25
3.20816E-01 1.02204E-25
3.24896E-01 9.86164E-26
3.28990E-01 9.51672E-26
3.33097E-01 9.18506E-26
3.37216E-01 8.86611E-26
3.41348E-01 8.55932E-26
3.45492E-01 8.26417E-26
3.49647E-01 7.98017E-26
3.53814E-01 7.70685E-26
3.57992E-01 7.44377E-26
3.62181E-01 7.19050E-26
3.66381E-01 6.94664E-26
3.70590E-01 6.71179E-26
3.74810E-01 6.48559E-26
3.79039E-01 6.26769E-26
3.83277E-01 6.05774E-26
3.87524E-01 5.85543E-26
3.91780E-01 5.66045E-26
3.96044E-01 5.47251E-26
4.00316E-01 5.29133E-26
4.04596E-01 5.11664E-26
4.08882E-01 4.94818E-26
4.13176E-01 4.78572E-26
4.17476E-01 4.62900E-26
4.21783E-01 4.47783E-26
4.26095E-01 4.33196E-26
4.30413E-01 4.19121E-26
4.34737E-01 4.05538E-26
4.39065E-01 3.92428E-26
4.43398E-01 3.79772E-26
4.47736E-01 3.67554E-26
4.52077E-01 3.55757E-26
4.56422E-01 3.44365E-26
4.60770E-01 3.33363E-26
4.65122E-01 3.22737E-26
4.69476E-01 3.12472E-26
4.73832E-01 3.02556E-26
4.78190E-01 2.92974E-26
4.82550E-01 2.83716E-26
4.86912E-01 2.74769E-26
4.91274E-01 2.66122E-26
4.95637E-01 2.57763E-26
5.00000E-01 2.49683E-26
5.04363E-01 2.41872E-26
5.08726E-01 2.34319E-26
5.13088E-01 2.27015E-26
5.17450E-01 2.19952E-26
5.21810E-01 2.13122E-26
5.26168E-01 2.06514E-26
5.30524E-01 2.00123E-26
5.34878E-01 1.93940E-26
5.39230E-01 1.87958E-26
5.43578E-01 1.82170E-26
5.47923E-01 1.76569E-26
5.52264E-01 1.71149E-26
5.56602E-01 1.65903E-26
5.60935E-01 1.60825E-26
5.65263E-01 1.55910E-26
5.69587E-01 1.51151E-26
5.73905E-01 1.46544E-26
5.78217E-01 1.42084E-26
5.82524E-01 1.37765E-26
5.86824E-01 1.33583E-26
5.91118E-01 1.29532E-26
5.95404E-01 1.25609E-26
5.99684E-01 1.21809E-26
6.03956E-01 1.18128E-26
6.08220E-01 1.14563E-26
6.12476E-01 1.11108E-26
6.16723E-01 1.07761E-26
6.20961E-01 1.04518E-26
6.25190E-01 1.01376E-26
6.29410E-01 9.83301E-27
6.33619E-01 9.53787E-27
6.37819E-01 9.25181E-27
6.42008E-01 8.97454E-27
6.46186E-01 8.70577E-27
6.50353E-01 8.44523E-27
6.54508E-01 8.19264E-27
6.58652E-01 7.94774E-27
6.62784E-01 7.71030E-27
6.66903E-01 7.48006E-27
6.71010E-01 7.25679E-27
6.75104E-01 7.04027E-27
6.79184E-01 6.83029E-27
6.83251E-01 6.62662E-27
6.87303E-01 6.42908E-27
6.91342E-01 6.23746E-27
6.95366E-01 6.05158E-27
6.99375E-01 5.87126E-27
7.03368E-01 5.69631E-27
7.07347E-01 5.52657E-27
7.11309E-01 5.36188E-27
7.15256E-01 5.20207E-27
7.19186E-01 5.04699E-27
7.23099E-01 4.89650E-27
7.26995E-01 4.75045E-27
7.30874E-01 4.60870E-27
7.34736E-01 4.47111E-27
7.38579E-01 4.33757E-27
7.42405E-01 4.20794E-27
7.46212E-01 4.08210E-27
7.50000E-01 3.95993E-27
7.53769E-01 3.84133E-27
7.57519E-01 3.72618E-27
7.61249E-01 3.61438E-27
7.64960E-01 3.50581E-27
7.68650E-01 3.40040E-27
7.72320E-01 3.29803E-27
7.75968E-01 3.19862E-27
7.79596E-01 3.10208E-27
7.83203E-01 3.00831E-27
7.86788E-01 2.91724E-27
7.90351E-01 2.82879E-27
7.93893E-01 2.74287E-27
7.97411E-01 2.65941E-27
8.00908E-01 2.57833E-27
8.04381E-01 2.49957E-27
8.07831E-01 2.42306E-27
8.11257E-01 2.34872E-27
8.14660E-01 2.27650E-27
8.18039E-01 2.20632E-27
8.21394E-01 2.13814E-27
8.24724E-01 2.07189E-27
8.28030E-01 2.00752E-27
8.31310E-01 1.94496E-27
8.34565E-01 1.88417E-27
8.37795E-01 1.82510E-27
8.40999E-01 1.76769E-27
8.44177E-01 1.71189E-27
8.47329E-01 1.65767E-27
8.50455E-01 1.60497E-27
8.53553E-01 1.55375E-27
8.56625E-01 1.50397E-27
8.59670E-01 1.45558E-27
8.62687E-01 1.40855E-27
8.65677E-01 1.36284E-27
8.68639E-01 1.31840E-27
8.71572E-01 1.27521E-27
8.74478E-01 1.23323E-27
8.77355E-01 1.19243E-27
8.80203E-01 1.15276E-27
8.83022E-01 1.11420E-27
8.85812E-01 1.07672E-27
8.88573E-01 1.04029E-27
8.91304E-01 1.00488E-27
8.94005E-01 9.70459E-28
8.96677E-01 9.37001E-28
8.99318E-01 9.04481E-28
9.01928E-01 8.72871E-28
9.04508E-01 8.42148E-28
9.07058E-01 8.12288E-28
9.09576E-01 7.83266E-28
9.12063E-01 7.55061E-28
9.14519E-01 7.27651E-28
9.16943E-01 7.01014E-28
9.19335E-01 6.75129E-28
9.21696E-01 6.49978E-28
9.24024E-01 6.25541E-28
9.26320E-01 6.01798E-28
9.28584E-01 5.78732E-28
9.30815E-01 5.56326E-28
9.33013E-01 5.34562E-28
9.35178E-01 5.13424E-28
9.37310E-01 4.92897E-28
9.39409E-01 4.72964E-28
9.41474E-01 4.53611E-28
9.43505E-01 4.34823E-28
9.45503E-01 4.16587E-28
9.47467E-01 3.98888E-28
9.49397E-01 3.81715E-28
9.51293E-01 3.65053E-28
9.53154E-01 3.48892E-28
9.54981E-01 3.33219E-28
9.56773E-01 3.18022E-28
9.58530E-01 3.03291E-28
9.60252E-01 2.89015E-28
9.61940E-01 2.75183E-28
9.63592E-01 2.61786E-28
9.65209E-01 2.48813E-28
9.66790E-01 2.36256E-28
9.68336E-01 2.24106E-28
9.69846E-01 2.12353E-28
9.71321E-01 2.00990E-28
9.72759E-01 1.90009E-28
9.74162E-01 1.79400E-28
9.75528E-01 1.69158E-28
9.76858E-01 1.59275E-28
9.78152E-01 1.49743E-28
9.79410E-01 1.40557E-28
9.80631E-01 1.31709E-28
9.81815E-01 1.23193E-28
9.82963E-01 1.15004E-28
9.84074E-01 1.07136E-28
9.85148E-01 9.95832E-29
9.86185E-01 9.23403E-29
9.87185E-01 8.54025E-29
9.88148E-01 7.87649E-29
9.89074E-01 7.24229E-29
9.89962E-01 6.63721E-29
9.90814E-01 6.06084E-29
9.91627E-01 5.51278E-29
9.92404E-01 4.99265E-29
9.93143E-01 4.50010E-29
9.93844E-01 4.03479E-29
9.94508E-01 3.59639E-29
9.95134E-01 3.18462E-29
9.95722E-01 2.79919E-29
9.96273E-01 2.43984E-29
9.96786E-01 2.10631E-29
9.97261E-01 1.79840E-29
9.97698E-01 1.51587E-29
9.98097E-01 1.25856E-29
9.98459E-01 1.02627E-29
9.98782E-01 8.18852E-30
9.99067E-01 6.36166E-30
9.99315E-01 4.78088E-30
9.99524E-01 3.44510E-30
9.99695E-01 2.35342E-30
9.99829E-01 1.50510E-30
9.99924E-01 8.99563E-31
9.99981E-01 5.36406E-31
1.00000E+00 4.15380E-31
