 #
 # Subroutine ELSEPA. Elastic scattering of electrons and positrons
 #                    by neutral atoms and positive ions
 #
 # Projectile: electron
 # Kinetic energy = 2.00000E+06 eV = 7.34987E+04 a.u.
 #
 # WARNING: High-energy factorization with free-atom DF screening.
 #          Absorption, polarization and exchange corrections are
 #          switched off.
 #          Phase shifts are calculated for the bare nucleus.
 #          Scattering amplitudes are not evaluated.
 #
 # Element: Pr,  Z =  59,  atomic weight = 1.40908E+02 g/mol
 #
 # Nuclear model: Fermi distribution
 #                Average radius = 5.56795E-13 cm
 #                Skin thickness = 5.46000E-14 cm
 #
 # Number of electrons = 59
 #
 # Total elastic cross section = 7.60910E-18 cm**2 = 2.71726E-01 a0**2
 # 1st transport cross section = 8.46144E-22 cm**2 = 3.02163E-05 a0**2
 # 2nd transport cross section = 2.30017E-21 cm**2 = 8.21407E-05 a0**2
 #
 #
 # Differential cross section:                       MU=(1-COS(THETA))/2
 #
 #  THETA        MU          DCS          DCS        Sherman      error
 #  (deg)                 (cm**2/sr)   (a0**2/sr)    function
 #----------------------------------------------------------------------
0.00000E+00 6.72882E-13
7.61557E-13 6.72880E-13
1.18994E-12 6.72879E-13
1.71346E-12 6.72878E-13
2.33225E-12 6.72876E-13
3.04617E-12 6.72874E-13
3.85530E-12 6.72871E-13
4.75964E-12 6.72869E-13
5.75917E-12 6.72866E-13
6.85391E-12 6.72863E-13
8.04379E-12 6.72859E-13
9.32893E-12 6.72855E-13
1.07092E-11 6.72851E-13
1.21847E-11 6.72847E-13
1.37554E-11 6.72842E-13
1.54213E-11 6.72837E-13
1.71823E-11 6.72832E-13
1.90386E-11 6.72827E-13
2.09900E-11 6.72821E-13
2.30367E-11 6.72815E-13
2.51785E-11 6.72809E-13
2.74156E-11 6.72802E-13
2.97478E-11 6.72795E-13
3.21752E-11 6.72788E-13
3.46979E-11 6.72781E-13
3.73157E-11 6.72773E-13
4.00286E-11 6.72765E-13
4.28368E-11 6.72757E-13
4.57402E-11 6.72748E-13
4.87388E-11 6.72739E-13
5.18325E-11 6.72730E-13
5.50215E-11 6.72720E-13
5.83057E-11 6.72711E-13
6.16850E-11 6.72701E-13
6.51595E-11 6.72690E-13
6.87293E-11 6.72680E-13
7.23943E-11 6.72669E-13
7.61544E-11 6.72658E-13
1.18991E-10 6.72531E-13
1.71347E-10 6.72376E-13
2.33223E-10 6.72192E-13
3.04617E-10 6.71981E-13
3.85531E-10 6.71741E-13
4.75965E-10 6.71473E-13
5.75917E-10 6.71177E-13
6.85389E-10 6.70853E-13
8.04380E-10 6.70501E-13
9.32891E-10 6.70121E-13
1.07092E-09 6.69714E-13
1.21847E-09 6.69278E-13
1.37554E-09 6.68815E-13
1.54213E-09 6.68325E-13
1.71823E-09 6.67807E-13
1.90386E-09 6.67262E-13
2.09900E-09 6.66689E-13
2.30367E-09 6.66090E-13
2.51785E-09 6.65463E-13
2.74156E-09 6.64810E-13
2.97478E-09 6.64130E-13
3.21752E-09 6.63423E-13
3.46978E-09 6.62690E-13
3.73156E-09 6.61931E-13
4.00286E-09 6.61145E-13
4.28368E-09 6.60334E-13
4.57402E-09 6.59496E-13
4.87388E-09 6.58633E-13
5.18326E-09 6.57745E-13
5.50215E-09 6.56831E-13
5.83057E-09 6.55892E-13
6.16850E-09 6.54928E-13
6.51596E-09 6.53939E-13
6.87293E-09 6.52926E-13
7.23942E-09 6.51888E-13
7.61544E-09 6.50826E-13
1.18991E-08 6.38925E-13
1.71347E-08 6.24852E-13
2.33223E-08 6.08866E-13
3.04617E-08 5.91240E-13
3.85531E-08 5.72283E-13
4.75965E-08 5.52394E-13
5.75917E-08 5.31462E-13
6.85389E-08 5.10294E-13
8.04380E-08 4.88657E-13
9.32891E-08 4.67131E-13
1.07092E-07 4.45728E-13
1.21847E-07 4.24626E-13
1.37554E-07 4.04168E-13
1.54213E-07 3.84070E-13
1.71823E-07 3.65031E-13
1.90386E-07 3.46397E-13
2.09900E-07 3.28966E-13
2.30367E-07 3.12107E-13
2.51785E-07 2.96283E-13
2.74156E-07 2.81236E-13
2.97478E-07 2.67034E-13
3.21752E-07 2.53730E-13
3.46978E-07 2.41090E-13
3.73156E-07 2.29394E-13
4.00286E-07 2.18218E-13
4.28368E-07 2.07958E-13
4.57402E-07 1.98181E-13
4.87388E-07 1.89112E-13
5.18325E-07 1.80556E-13
5.50215E-07 1.72544E-13
5.83057E-07 1.65040E-13
6.16850E-07 1.57958E-13
6.51596E-07 1.51349E-13
6.87293E-07 1.45080E-13
7.23942E-07 1.39232E-13
7.61543E-07 1.33680E-13
1.18991E-06 9.21835E-14
1.71347E-06 6.63197E-14
2.33223E-06 4.88609E-14
3.04617E-06 3.66108E-14
3.85531E-06 2.78042E-14
4.75964E-06 2.12609E-14
5.75916E-06 1.68033E-14
6.85388E-06 1.33095E-14
8.04378E-06 1.07564E-14
9.32888E-06 8.77020E-15
1.07092E-05 7.22989E-15
1.21846E-05 6.02450E-15
1.37553E-05 5.04265E-15
1.54212E-05 4.27105E-15
1.71822E-05 3.61719E-15
1.90385E-05 3.09723E-15
2.09899E-05 2.65318E-15
2.30365E-05 2.29152E-15
2.51783E-05 1.98386E-15
2.74153E-05 1.72584E-15
2.97475E-05 1.50795E-15
3.21749E-05 1.32184E-15
3.46974E-05 1.16496E-15
3.73152E-05 1.02931E-15
4.00281E-05 9.14445E-16
4.28362E-05 8.14209E-16
4.57395E-05 7.28334E-16
4.87380E-05 6.53366E-16
5.18317E-05 5.88215E-16
5.50205E-05 5.31178E-16
5.83045E-05 4.81072E-16
6.16838E-05 4.37054E-16
6.51582E-05 3.98006E-16
6.87277E-05 3.63575E-16
7.23925E-05 3.32716E-16
7.61524E-05 3.05344E-16
9.21439E-05 2.20713E-16
1.09658E-04 1.63710E-16
1.28695E-04 1.24074E-16
1.49255E-04 9.57159E-17
1.71338E-04 7.49195E-17
1.94942E-04 5.93798E-17
2.20070E-04 4.76136E-17
2.46720E-04 3.85972E-17
2.74892E-04 3.16072E-17
3.04586E-04 2.61236E-17
3.35803E-04 2.17760E-17
3.68542E-04 1.82964E-17
4.02802E-04 1.54800E-17
4.38585E-04 1.31950E-17
4.75889E-04 1.13199E-17
5.14715E-04 9.76612E-18
5.55063E-04 8.47514E-18
5.96931E-04 7.38791E-18
6.40321E-04 6.47459E-18
6.85233E-04 5.69540E-18
7.31665E-04 5.03314E-18
7.79618E-04 4.46337E-18
8.29092E-04 3.97308E-18
8.80086E-04 3.54842E-18
9.32601E-04 3.17906E-18
9.86636E-04 2.85714E-18
1.04219E-03 2.57445E-18
1.09927E-03 2.32669E-18
1.15786E-03 2.10728E-18
1.21797E-03 1.91378E-18
1.27961E-03 1.74162E-18
1.34276E-03 1.58866E-18
1.40743E-03 1.45205E-18
1.47362E-03 1.32983E-18
1.54133E-03 1.22028E-18
1.61056E-03 1.12169E-18
1.68131E-03 1.03302E-18
1.75357E-03 9.52764E-19
1.82735E-03 8.80320E-19
1.90265E-03 8.14511E-19
1.97947E-03 7.54830E-19
2.05780E-03 7.00482E-19
2.13765E-03 6.50962E-19
2.21902E-03 6.05757E-19
2.30190E-03 5.64393E-19
2.38630E-03 5.26544E-19
2.47222E-03 4.91780E-19
2.55965E-03 4.59890E-19
2.64859E-03 4.30507E-19
2.73905E-03 4.03471E-19
2.83103E-03 3.78514E-19
2.92452E-03 3.55473E-19
3.01952E-03 3.34165E-19
3.11604E-03 3.14432E-19
3.21407E-03 2.96150E-19
3.31362E-03 2.79171E-19
3.41468E-03 2.63413E-19
3.51725E-03 2.48740E-19
3.62133E-03 2.35093E-19
3.72692E-03 2.22366E-19
3.83403E-03 2.10498E-19
3.94265E-03 1.99416E-19
4.05278E-03 1.89057E-19
4.16442E-03 1.79369E-19
4.27757E-03 1.70294E-19
4.39223E-03 1.61795E-19
4.50840E-03 1.53818E-19
4.62608E-03 1.46334E-19
4.74527E-03 1.39301E-19
4.86597E-03 1.32690E-19
4.98817E-03 1.26469E-19
5.11188E-03 1.20612E-19
5.23711E-03 1.15094E-19
5.36383E-03 1.09889E-19
5.49207E-03 1.04979E-19
5.62181E-03 1.00341E-19
5.75306E-03 9.59606E-20
5.88581E-03 9.18172E-20
6.02007E-03 8.78984E-20
6.15583E-03 8.41878E-20
6.29310E-03 8.06732E-20
6.43187E-03 7.73422E-20
6.57214E-03 7.41826E-20
6.71392E-03 7.11852E-20
6.85720E-03 6.83383E-20
7.00198E-03 6.56349E-20
7.14827E-03 6.30643E-20
7.29605E-03 6.06205E-20
7.44534E-03 5.82948E-20
7.59612E-03 5.60811E-20
7.97965E-03 5.09944E-20
8.37255E-03 4.64780E-20
8.77480E-03 4.24562E-20
9.18641E-03 3.88651E-20
9.60736E-03 3.56504E-20
1.00376E-02 3.27654E-20
1.04773E-02 3.01700E-20
1.09262E-02 2.78300E-20
1.13844E-02 2.57155E-20
1.18520E-02 2.38007E-20
1.23288E-02 2.20634E-20
1.28150E-02 2.04838E-20
1.33104E-02 1.90452E-20
1.38150E-02 1.77325E-20
1.43290E-02 1.65327E-20
1.48521E-02 1.54342E-20
1.53845E-02 1.44269E-20
1.59262E-02 1.35017E-20
1.64770E-02 1.26507E-20
1.70371E-02 1.18667E-20
1.76063E-02 1.11436E-20
1.81848E-02 1.04757E-20
1.87724E-02 9.85786E-21
1.93692E-02 9.28574E-21
1.99751E-02 8.75526E-21
2.05901E-02 8.26281E-21
2.12143E-02 7.80512E-21
2.18476E-02 7.37929E-21
2.24900E-02 6.98263E-21
2.31415E-02 6.61277E-21
2.38021E-02 6.26755E-21
2.44717E-02 5.94501E-21
2.51504E-02 5.64336E-21
2.58382E-02 5.36099E-21
2.65349E-02 5.09642E-21
2.72407E-02 4.84830E-21
2.79555E-02 4.61541E-21
2.86793E-02 4.39664E-21
2.94120E-02 4.19094E-21
3.01537E-02 3.99739E-21
3.09043E-02 3.81513E-21
3.16639E-02 3.64337E-21
3.24324E-02 3.48138E-21
3.32098E-02 3.32850E-21
3.39961E-02 3.18411E-21
3.47912E-02 3.04764E-21
3.55952E-02 2.91857E-21
3.64081E-02 2.79642E-21
3.72297E-02 2.68074E-21
3.80602E-02 2.57112E-21
3.88995E-02 2.46718E-21
3.97476E-02 2.36858E-21
4.06044E-02 2.27496E-21
4.14700E-02 2.18604E-21
4.23443E-02 2.10153E-21
4.32273E-02 2.02116E-21
4.41190E-02 1.94470E-21
4.50194E-02 1.87190E-21
4.59284E-02 1.80257E-21
4.68461E-02 1.73650E-21
4.87074E-02 1.61341E-21
5.06030E-02 1.50131E-21
5.25328E-02 1.39902E-21
5.44967E-02 1.30551E-21
5.64946E-02 1.21988E-21
5.85262E-02 1.14133E-21
6.05914E-02 1.06917E-21
6.26901E-02 1.00277E-21
6.48222E-02 9.41579E-22
6.69873E-02 8.85107E-22
6.91854E-02 8.32917E-22
7.14163E-02 7.84619E-22
7.36799E-02 7.39863E-22
7.59760E-02 6.98338E-22
7.83043E-02 6.59763E-22
8.06647E-02 6.23886E-22
8.30571E-02 5.90480E-22
8.54812E-02 5.59339E-22
8.79369E-02 5.30279E-22
9.04240E-02 5.03131E-22
9.29422E-02 4.77744E-22
9.54915E-02 4.53980E-22
9.80716E-02 4.31714E-22
1.00682E-01 4.10833E-22
1.03323E-01 3.91231E-22
1.05995E-01 3.72814E-22
1.08696E-01 3.55496E-22
1.11427E-01 3.39197E-22
1.14188E-01 3.23845E-22
1.16978E-01 3.09373E-22
1.19797E-01 2.95720E-22
1.22645E-01 2.82830E-22
1.25522E-01 2.70651E-22
1.28428E-01 2.59137E-22
1.31361E-01 2.48242E-22
1.34323E-01 2.37926E-22
1.37313E-01 2.28153E-22
1.40330E-01 2.18887E-22
1.43375E-01 2.10097E-22
1.46447E-01 2.01753E-22
1.49545E-01 1.93827E-22
1.52671E-01 1.86295E-22
1.55823E-01 1.79132E-22
1.59001E-01 1.72316E-22
1.62205E-01 1.65828E-22
1.65435E-01 1.59647E-22
1.68690E-01 1.53756E-22
1.71970E-01 1.48139E-22
1.75276E-01 1.42780E-22
1.78606E-01 1.37665E-22
1.81961E-01 1.32780E-22
1.85340E-01 1.28113E-22
1.88743E-01 1.23651E-22
1.92169E-01 1.19385E-22
1.95619E-01 1.15303E-22
1.99092E-01 1.11396E-22
2.02589E-01 1.07654E-22
2.06107E-01 1.04070E-22
2.09649E-01 1.00634E-22
2.13212E-01 9.73408E-23
2.16797E-01 9.41816E-23
2.20404E-01 9.11502E-23
2.24032E-01 8.82403E-23
2.27680E-01 8.54460E-23
2.31350E-01 8.27617E-23
2.35040E-01 8.01821E-23
2.38751E-01 7.77023E-23
2.42481E-01 7.53176E-23
2.46231E-01 7.30234E-23
2.50000E-01 7.08157E-23
2.53788E-01 6.86905E-23
2.57595E-01 6.66440E-23
2.61421E-01 6.46727E-23
2.65264E-01 6.27732E-23
2.69126E-01 6.09424E-23
2.73005E-01 5.91773E-23
2.76901E-01 5.74748E-23
2.80814E-01 5.58325E-23
2.84744E-01 5.42476E-23
2.88691E-01 5.27177E-23
2.92653E-01 5.12406E-23
2.96632E-01 4.98139E-23
3.00625E-01 4.84356E-23
3.04634E-01 4.71038E-23
3.08658E-01 4.58164E-23
3.12697E-01 4.45717E-23
3.16749E-01 4.33680E-23
3.20816E-01 4.22036E-23
3.24896E-01 4.10771E-23
3.28990E-01 3.99868E-23
3.33097E-01 3.89313E-23
3.37216E-01 3.79094E-23
3.41348E-01 3.69197E-23
3.45492E-01 3.59611E-23
3.49647E-01 3.50322E-23
3.53814E-01 3.41320E-23
3.57992E-01 3.32594E-23
3.62181E-01 3.24134E-23
3.66381E-01 3.15931E-23
3.70590E-01 3.07974E-23
3.74810E-01 3.00254E-23
3.79039E-01 2.92764E-23
3.83277E-01 2.85494E-23
3.87524E-01 2.78437E-23
3.91780E-01 2.71585E-23
3.96044E-01 2.64932E-23
4.00316E-01 2.58470E-23
4.04596E-01 2.52193E-23
4.08882E-01 2.46093E-23
4.13176E-01 2.40166E-23
4.17476E-01 2.34405E-23
4.21783E-01 2.28805E-23
4.26095E-01 2.23360E-23
4.30413E-01 2.18064E-23
4.34737E-01 2.12914E-23
4.39065E-01 2.07904E-23
4.43398E-01 2.03030E-23
4.47736E-01 1.98287E-23
4.52077E-01 1.93671E-23
4.56422E-01 1.89177E-23
4.60770E-01 1.84803E-23
4.65122E-01 1.80543E-23
4.69476E-01 1.76395E-23
4.73832E-01 1.72355E-23
4.78190E-01 1.68420E-23
4.82550E-01 1.64586E-23
4.86912E-01 1.60850E-23
4.91274E-01 1.57209E-23
4.95637E-01 1.53660E-23
5.00000E-01 1.50201E-23
5.04363E-01 1.46829E-23
5.08726E-01 1.43541E-23
5.13088E-01 1.40335E-23
5.17450E-01 1.37208E-23
5.21810E-01 1.34157E-23
5.26168E-01 1.31182E-23
5.30524E-01 1.28279E-23
5.34878E-01 1.25446E-23
5.39230E-01 1.22681E-23
5.43578E-01 1.19983E-23
5.47923E-01 1.17349E-23
5.52264E-01 1.14778E-23
5.56602E-01 1.12268E-23
5.60935E-01 1.09817E-23
5.65263E-01 1.07423E-23
5.69587E-01 1.05085E-23
5.73905E-01 1.02802E-23
5.78217E-01 1.00571E-23
5.82524E-01 9.83918E-24
5.86824E-01 9.62625E-24
5.91118E-01 9.41819E-24
5.95404E-01 9.21487E-24
5.99684E-01 9.01615E-24
6.03956E-01 8.82192E-24
6.08220E-01 8.63206E-24
6.12476E-01 8.44644E-24
6.16723E-01 8.26496E-24
6.20961E-01 8.08752E-24
6.25190E-01 7.91399E-24
6.29410E-01 7.74429E-24
6.33619E-01 7.57832E-24
6.37819E-01 7.41598E-24
6.42008E-01 7.25717E-24
6.46186E-01 7.10181E-24
6.50353E-01 6.94981E-24
6.54508E-01 6.80109E-24
6.58652E-01 6.65556E-24
6.62784E-01 6.51315E-24
6.66903E-01 6.37377E-24
6.71010E-01 6.23736E-24
6.75104E-01 6.10384E-24
6.79184E-01 5.97314E-24
6.83251E-01 5.84519E-24
6.87303E-01 5.71993E-24
6.91342E-01 5.59729E-24
6.95366E-01 5.47721E-24
6.99375E-01 5.35963E-24
7.03368E-01 5.24448E-24
7.07347E-01 5.13172E-24
7.11309E-01 5.02129E-24
7.15256E-01 4.91313E-24
7.19186E-01 4.80719E-24
7.23099E-01 4.70341E-24
7.26995E-01 4.60176E-24
7.30874E-01 4.50218E-24
7.34736E-01 4.40461E-24
7.38579E-01 4.30903E-24
7.42405E-01 4.21538E-24
7.46212E-01 4.12362E-24
7.50000E-01 4.03370E-24
7.53769E-01 3.94559E-24
7.57519E-01 3.85925E-24
7.61249E-01 3.77464E-24
7.64960E-01 3.69172E-24
7.68650E-01 3.61045E-24
7.72320E-01 3.53080E-24
7.75968E-01 3.45273E-24
7.79596E-01 3.37621E-24
7.83203E-01 3.30121E-24
7.86788E-01 3.22770E-24
7.90351E-01 3.15563E-24
7.93893E-01 3.08499E-24
7.97411E-01 3.01575E-24
8.00908E-01 2.94787E-24
8.04381E-01 2.88132E-24
8.07831E-01 2.81609E-24
8.11257E-01 2.75213E-24
8.14660E-01 2.68944E-24
8.18039E-01 2.62797E-24
8.21394E-01 2.56772E-24
8.24724E-01 2.50864E-24
8.28030E-01 2.45073E-24
8.31310E-01 2.39395E-24
8.34565E-01 2.33828E-24
8.37795E-01 2.28371E-24
8.40999E-01 2.23021E-24
8.44177E-01 2.17776E-24
8.47329E-01 2.12635E-24
8.50455E-01 2.07594E-24
8.53553E-01 2.02653E-24
8.56625E-01 1.97809E-24
8.59670E-01 1.93060E-24
8.62687E-01 1.88406E-24
8.65677E-01 1.83843E-24
8.68639E-01 1.79371E-24
8.71572E-01 1.74988E-24
8.74478E-01 1.70692E-24
8.77355E-01 1.66482E-24
8.80203E-01 1.62355E-24
8.83022E-01 1.58312E-24
8.85812E-01 1.54349E-24
8.88573E-01 1.50467E-24
8.91304E-01 1.46662E-24
8.94005E-01 1.42935E-24
8.96677E-01 1.39284E-24
8.99318E-01 1.35707E-24
9.01928E-01 1.32204E-24
9.04508E-01 1.28772E-24
9.07058E-01 1.25412E-24
9.09576E-01 1.22121E-24
9.12063E-01 1.18899E-24
9.14519E-01 1.15745E-24
9.16943E-01 1.12657E-24
9.19335E-01 1.09634E-24
9.21696E-01 1.06676E-24
9.24024E-01 1.03781E-24
9.26320E-01 1.00949E-24
9.28584E-01 9.81785E-25
9.30815E-01 9.54686E-25
9.33013E-01 9.28185E-25
9.35178E-01 9.02272E-25
9.37310E-01 8.76940E-25
9.39409E-01 8.52181E-25
9.41474E-01 8.27986E-25
9.43505E-01 8.04348E-25
9.45503E-01 7.81259E-25
9.47467E-01 7.58712E-25
9.49397E-01 7.36699E-25
9.51293E-01 7.15214E-25
9.53154E-01 6.94250E-25
9.54981E-01 6.73801E-25
9.56773E-01 6.53859E-25
9.58530E-01 6.34418E-25
9.60252E-01 6.15473E-25
9.61940E-01 5.97018E-25
9.63592E-01 5.79047E-25
9.65209E-01 5.61554E-25
9.66790E-01 5.44534E-25
9.68336E-01 5.27982E-25
9.69846E-01 5.11893E-25
9.71321E-01 4.96262E-25
9.72759E-01 4.81083E-25
9.74162E-01 4.66353E-25
9.75528E-01 4.52067E-25
9.76858E-01 4.38220E-25
9.78152E-01 4.24809E-25
9.79410E-01 4.11830E-25
9.80631E-01 3.99277E-25
9.81815E-01 3.87149E-25
9.82963E-01 3.75441E-25
9.84074E-01 3.64149E-25
9.85148E-01 3.53271E-25
9.86185E-01 3.42803E-25
9.87185E-01 3.32741E-25
9.88148E-01 3.23084E-25
9.89074E-01 3.13827E-25
9.89962E-01 3.04969E-25
9.90814E-01 2.96507E-25
9.91627E-01 2.88438E-25
9.92404E-01 2.80760E-25
9.93143E-01 2.73471E-25
9.93844E-01 2.66567E-25
9.94508E-01 2.60049E-25
9.95134E-01 2.53913E-25
9.95722E-01 2.48158E-25
9.96273E-01 2.42782E-25
9.96786E-01 2.37783E-25
9.97261E-01 2.33161E-25
9.97698E-01 2.28913E-25
9.98097E-01 2.25038E-25
9.98459E-01 2.21537E-25
9.98782E-01 2.18406E-25
9.99067E-01 2.15646E-25
9.99315E-01 2.13255E-25
9.99524E-01 2.11234E-25
9.99695E-01 2.09580E-25
9.99829E-01 2.08295E-25
9.99924E-01 2.07377E-25
9.99981E-01 2.06827E-25
1.00000E+00 2.06643E-25
