 #
 # Subroutine ELSEPA. Elastic scattering of electrons and positrons
 #                    by neutral atoms and positive ions
 #
 # Projectile: electron
 # Kinetic energy = 6.00000E+07 eV = 2.20496E+06 a.u.
 #
 # WARNING: High-energy factorization with free-atom DF screening.
 #          Absorption, polarization and exchange corrections are
 #          switched off.
 #          Phase shifts are calculated for the bare nucleus.
 #          Scattering amplitudes are not evaluated.
 #
 # Element: Pr,  Z =  59,  atomic weight = 1.40908E+02 g/mol
 #
 # Nuclear model: Fermi distribution
 #                Average radius = 5.56795E-13 cm
 #                Skin thickness = 5.46000E-14 cm
 #
 # Number of electrons = 59
 #
 # Total elastic cross section = 7.27716E-18 cm**2 = 2.59872E-01 a0**2
 # 1st transport cross section = 1.86080E-24 cm**2 = 6.64503E-08 a0**2
 # 2nd transport cross section = 5.48289E-24 cm**2 = 1.95797E-07 a0**2
 #
 #
 # Differential cross section:                       MU=(1-COS(THETA))/2
 #
 #  THETA        MU          DCS          DCS        Sherman      error
 #  (deg)                 (cm**2/sr)   (a0**2/sr)    function
 #----------------------------------------------------------------------
0.00000E+00 3.90764E-10
7.61557E-13 3.89965E-10
1.18994E-12 3.89517E-10
1.71346E-12 3.88971E-10
2.33225E-12 3.88328E-10
3.04617E-12 3.87588E-10
3.85530E-12 3.86752E-10
4.75964E-12 3.85821E-10
5.75917E-12 3.84796E-10
6.85391E-12 3.83679E-10
8.04379E-12 3.82471E-10
9.32893E-12 3.81173E-10
1.07092E-11 3.79788E-10
1.21847E-11 3.78315E-10
1.37554E-11 3.76758E-10
1.54213E-11 3.75118E-10
1.71823E-11 3.73397E-10
1.90386E-11 3.71596E-10
2.09900E-11 3.69719E-10
2.30367E-11 3.67767E-10
2.51785E-11 3.65742E-10
2.74156E-11 3.63646E-10
2.97478E-11 3.61482E-10
3.21752E-11 3.59252E-10
3.46979E-11 3.56959E-10
3.73157E-11 3.54604E-10
4.00286E-11 3.52190E-10
4.28368E-11 3.49721E-10
4.57402E-11 3.47198E-10
4.87388E-11 3.44623E-10
5.18325E-11 3.42000E-10
5.50215E-11 3.39330E-10
5.83057E-11 3.36617E-10
6.16850E-11 3.33862E-10
6.51595E-11 3.31095E-10
6.87293E-11 3.28296E-10
7.23943E-11 3.25455E-10
7.61544E-11 3.22574E-10
1.18991E-10 2.92467E-10
1.71347E-10 2.61680E-10
2.33223E-10 2.31947E-10
3.04617E-10 2.04424E-10
3.85531E-10 1.79732E-10
4.75965E-10 1.58091E-10
5.75917E-10 1.39436E-10
6.85389E-10 1.23442E-10
8.04380E-10 1.09785E-10
9.32891E-10 9.81253E-11
1.07092E-09 8.81445E-11
1.21847E-09 7.95603E-11
1.37554E-09 7.21318E-11
1.54213E-09 6.56592E-11
1.71823E-09 5.99789E-11
1.90386E-09 5.49568E-11
2.09900E-09 5.04853E-11
2.30367E-09 4.64817E-11
2.51785E-09 4.28786E-11
2.74156E-09 3.96217E-11
2.97478E-09 3.66664E-11
3.21752E-09 3.39763E-11
3.46978E-09 3.15212E-11
3.73156E-09 2.92755E-11
4.00286E-09 2.72177E-11
4.28368E-09 2.53259E-11
4.57402E-09 2.35873E-11
4.87388E-09 2.19885E-11
5.18326E-09 2.05170E-11
5.50215E-09 1.91615E-11
5.83057E-09 1.79120E-11
6.16850E-09 1.67592E-11
6.51596E-09 1.56412E-11
6.87293E-09 1.46066E-11
7.23942E-09 1.36704E-11
7.61544E-09 1.28213E-11
1.18991E-08 7.20845E-12
1.71347E-08 4.37377E-12
2.33223E-08 2.80941E-12
3.04617E-08 1.87961E-12
3.85531E-08 1.29735E-12
4.75965E-08 9.19343E-13
5.75917E-08 6.67483E-13
6.85389E-08 4.96451E-13
8.04380E-08 3.77574E-13
9.32891E-08 2.93021E-13
1.07092E-07 2.31507E-13
1.21847E-07 1.85775E-13
1.37554E-07 1.51087E-13
1.54213E-07 1.24336E-13
1.71823E-07 1.03260E-13
1.90386E-07 8.64805E-14
2.09900E-07 7.29795E-14
2.30367E-07 6.20087E-14
2.51785E-07 5.30069E-14
2.74156E-07 4.55575E-14
2.97478E-07 3.93481E-14
3.21752E-07 3.41412E-14
3.46978E-07 2.97527E-14
3.73156E-07 2.60373E-14
4.00286E-07 2.28784E-14
4.28368E-07 2.01798E-14
4.57402E-07 1.78654E-14
4.87388E-07 1.58722E-14
5.18325E-07 1.41482E-14
5.50215E-07 1.26512E-14
5.83057E-07 1.13467E-14
6.16850E-07 1.02061E-14
6.51596E-07 9.20243E-15
6.87293E-07 8.32081E-15
7.23942E-07 7.54549E-15
7.61543E-07 6.86050E-15
1.18991E-06 2.94610E-15
1.71347E-06 1.47008E-15
2.33223E-06 8.13199E-16
3.04617E-06 4.85163E-16
3.85531E-06 3.06792E-16
4.75964E-06 2.03249E-16
5.75916E-06 1.39885E-16
6.85388E-06 9.93828E-17
8.04378E-06 7.25299E-17
9.32888E-06 5.41652E-17
1.07092E-05 4.12646E-17
1.21846E-05 3.19882E-17
1.37553E-05 2.51796E-17
1.54212E-05 2.00910E-17
1.71822E-05 1.62263E-17
1.90385E-05 1.32431E-17
2.09899E-05 1.09242E-17
2.30365E-05 9.09054E-18
2.51783E-05 7.62463E-18
2.74153E-05 6.44153E-18
2.97475E-05 5.47871E-18
3.21749E-05 4.68921E-18
3.46974E-05 4.03724E-18
3.73152E-05 3.49513E-18
4.00281E-05 3.04133E-18
4.28362E-05 2.65897E-18
4.57395E-05 2.33485E-18
4.87380E-05 2.05856E-18
5.18317E-05 1.82184E-18
5.50205E-05 1.61810E-18
5.83045E-05 1.44204E-18
6.16838E-05 1.28929E-18
6.51582E-05 1.15627E-18
6.87277E-05 1.04002E-18
7.23925E-05 9.38040E-19
7.61524E-05 8.48593E-19
9.21439E-05 5.80973E-19
1.09658E-04 4.11016E-19
1.28695E-04 2.98953E-19
1.49255E-04 2.22608E-19
1.71338E-04 1.69174E-19
1.94942E-04 1.30861E-19
2.20070E-04 1.02814E-19
2.46720E-04 8.19024E-20
2.74892E-04 6.60517E-20
3.04586E-04 5.38620E-20
3.35803E-04 4.43621E-20
3.68542E-04 3.68706E-20
4.02802E-04 3.08981E-20
4.38585E-04 2.60894E-20
4.75889E-04 2.21827E-20
5.14715E-04 1.89819E-20
5.55063E-04 1.63393E-20
5.96931E-04 1.41420E-20
6.40321E-04 1.23028E-20
6.85233E-04 1.07538E-20
7.31665E-04 9.44173E-21
7.79618E-04 8.32431E-21
8.29092E-04 7.36784E-21
8.80086E-04 6.54530E-21
9.32601E-04 5.83473E-21
9.86636E-04 5.21830E-21
1.04219E-03 4.68144E-21
1.09927E-03 4.21210E-21
1.15786E-03 3.80032E-21
1.21797E-03 3.43783E-21
1.27961E-03 3.11770E-21
1.34276E-03 2.83411E-21
1.40743E-03 2.58216E-21
1.47362E-03 2.35771E-21
1.54133E-03 2.15721E-21
1.61056E-03 1.97767E-21
1.68131E-03 1.81650E-21
1.75357E-03 1.67148E-21
1.82735E-03 1.54071E-21
1.90265E-03 1.42254E-21
1.97947E-03 1.31553E-21
2.05780E-03 1.21844E-21
2.13765E-03 1.13018E-21
2.21902E-03 1.04981E-21
2.30190E-03 9.76487E-22
2.38630E-03 9.09484E-22
2.47222E-03 8.48160E-22
2.55965E-03 7.91941E-22
2.64859E-03 7.40324E-22
2.73905E-03 6.92869E-22
2.83103E-03 6.49169E-22
2.92452E-03 6.08881E-22
3.01952E-03 5.71683E-22
3.11604E-03 5.37297E-22
3.21407E-03 5.05471E-22
3.31362E-03 4.75978E-22
3.41468E-03 4.48616E-22
3.51725E-03 4.23201E-22
3.62133E-03 3.99570E-22
3.72692E-03 3.77573E-22
3.83403E-03 3.57077E-22
3.94265E-03 3.37960E-22
4.05278E-03 3.20111E-22
4.16442E-03 3.03431E-22
4.27757E-03 2.87828E-22
4.39223E-03 2.73221E-22
4.50840E-03 2.59533E-22
4.62608E-03 2.46695E-22
4.74527E-03 2.34646E-22
4.86597E-03 2.23326E-22
4.98817E-03 2.12685E-22
5.11188E-03 2.02672E-22
5.23711E-03 1.93245E-22
5.36383E-03 1.84361E-22
5.49207E-03 1.75985E-22
5.62181E-03 1.68081E-22
5.75306E-03 1.60619E-22
5.88581E-03 1.53567E-22
6.02007E-03 1.46900E-22
6.15583E-03 1.40592E-22
6.29310E-03 1.34621E-22
6.43187E-03 1.28964E-22
6.57214E-03 1.23602E-22
6.71392E-03 1.18517E-22
6.85720E-03 1.13691E-22
7.00198E-03 1.09110E-22
7.14827E-03 1.04758E-22
7.29605E-03 1.00622E-22
7.44534E-03 9.66879E-23
7.59612E-03 9.29452E-23
7.97965E-03 8.43533E-23
8.37255E-03 7.67341E-23
8.77480E-03 6.99579E-23
9.18641E-03 6.39150E-23
9.60736E-03 5.85117E-23
1.00376E-02 5.36682E-23
1.04773E-02 4.93161E-23
1.09262E-02 4.53966E-23
1.13844E-02 4.18588E-23
1.18520E-02 3.86590E-23
1.23288E-02 3.57589E-23
1.28150E-02 3.31253E-23
1.33104E-02 3.07294E-23
1.38150E-02 2.85457E-23
1.43290E-02 2.65521E-23
1.48521E-02 2.47289E-23
1.53845E-02 2.30589E-23
1.59262E-02 2.15270E-23
1.64770E-02 2.01195E-23
1.70371E-02 1.88245E-23
1.76063E-02 1.76314E-23
1.81848E-02 1.65307E-23
1.87724E-02 1.55139E-23
1.93692E-02 1.45734E-23
1.99751E-02 1.37025E-23
2.05901E-02 1.28951E-23
2.12143E-02 1.21456E-23
2.18476E-02 1.14492E-23
2.24900E-02 1.08015E-23
2.31415E-02 1.01983E-23
2.38021E-02 9.63603E-24
2.44717E-02 9.11147E-24
2.51504E-02 8.62158E-24
2.58382E-02 8.16366E-24
2.65349E-02 7.73524E-24
2.72407E-02 7.33406E-24
2.79555E-02 6.95809E-24
2.86793E-02 6.60544E-24
2.94120E-02 6.27440E-24
3.01537E-02 5.96342E-24
3.09043E-02 5.67104E-24
3.16639E-02 5.39596E-24
3.24324E-02 5.13697E-24
3.32098E-02 4.89295E-24
3.39961E-02 4.66288E-24
3.47912E-02 4.44582E-24
3.55952E-02 4.24090E-24
3.64081E-02 4.04733E-24
3.72297E-02 3.86435E-24
3.80602E-02 3.69128E-24
3.88995E-02 3.52750E-24
3.97476E-02 3.37241E-24
4.06044E-02 3.22547E-24
4.14700E-02 3.08618E-24
4.23443E-02 2.95406E-24
4.32273E-02 2.82868E-24
4.41190E-02 2.70965E-24
4.50194E-02 2.59657E-24
4.59284E-02 2.48910E-24
4.68461E-02 2.38691E-24
4.87074E-02 2.19717E-24
5.06030E-02 2.02516E-24
5.25328E-02 1.86895E-24
5.44967E-02 1.72684E-24
5.64946E-02 1.59736E-24
5.85262E-02 1.47921E-24
6.05914E-02 1.37123E-24
6.26901E-02 1.27242E-24
6.48222E-02 1.18186E-24
6.69873E-02 1.09876E-24
6.91854E-02 1.02242E-24
7.14163E-02 9.52188E-25
7.36799E-02 8.87510E-25
7.59760E-02 8.27879E-25
7.83043E-02 7.72841E-25
8.06647E-02 7.21988E-25
8.30571E-02 6.74956E-25
8.54812E-02 6.31415E-25
8.79369E-02 5.91067E-25
9.04240E-02 5.53646E-25
9.29422E-02 5.18908E-25
9.54915E-02 4.86633E-25
9.80716E-02 4.56623E-25
1.00682E-01 4.28697E-25
1.03323E-01 4.02689E-25
1.05995E-01 3.78450E-25
1.08696E-01 3.55845E-25
1.11427E-01 3.34747E-25
1.14188E-01 3.15044E-25
1.16978E-01 2.96631E-25
1.19797E-01 2.79412E-25
1.22645E-01 2.63302E-25
1.25522E-01 2.48218E-25
1.28428E-01 2.34089E-25
1.31361E-01 2.20846E-25
1.34323E-01 2.08427E-25
1.37313E-01 1.96774E-25
1.40330E-01 1.85835E-25
1.43375E-01 1.75562E-25
1.46447E-01 1.65908E-25
1.49545E-01 1.56833E-25
1.52671E-01 1.48298E-25
1.55823E-01 1.40267E-25
1.59001E-01 1.32707E-25
1.62205E-01 1.25589E-25
1.65435E-01 1.18883E-25
1.68690E-01 1.12563E-25
1.71970E-01 1.06604E-25
1.75276E-01 1.00985E-25
1.78606E-01 9.56837E-26
1.81961E-01 9.06804E-26
1.85340E-01 8.59569E-26
1.88743E-01 8.14962E-26
1.92169E-01 7.72823E-26
1.95619E-01 7.33004E-26
1.99092E-01 6.95366E-26
2.02589E-01 6.59779E-26
2.06107E-01 6.26123E-26
2.09649E-01 5.94283E-26
2.13212E-01 5.64155E-26
2.16797E-01 5.35639E-26
2.20404E-01 5.08642E-26
2.24032E-01 4.83077E-26
2.27680E-01 4.58863E-26
2.31350E-01 4.35923E-26
2.35040E-01 4.14185E-26
2.38751E-01 3.93583E-26
2.42481E-01 3.74052E-26
2.46231E-01 3.55534E-26
2.50000E-01 3.37972E-26
2.53788E-01 3.21314E-26
2.57595E-01 3.05511E-26
2.61421E-01 2.90515E-26
2.65264E-01 2.76285E-26
2.69126E-01 2.62778E-26
2.73005E-01 2.49955E-26
2.76901E-01 2.37780E-26
2.80814E-01 2.26218E-26
2.84744E-01 2.15238E-26
2.88691E-01 2.04808E-26
2.92653E-01 1.94899E-26
2.96632E-01 1.85484E-26
3.00625E-01 1.76538E-26
3.04634E-01 1.68035E-26
3.08658E-01 1.59954E-26
3.12697E-01 1.52272E-26
3.16749E-01 1.44968E-26
3.20816E-01 1.38024E-26
3.24896E-01 1.31421E-26
3.28990E-01 1.25141E-26
3.33097E-01 1.19169E-26
3.37216E-01 1.13488E-26
3.41348E-01 1.08084E-26
3.45492E-01 1.02944E-26
3.49647E-01 9.80524E-27
3.53814E-01 9.33985E-27
3.57992E-01 8.89700E-27
3.62181E-01 8.47556E-27
3.66381E-01 8.07448E-27
3.70590E-01 7.69274E-27
3.74810E-01 7.32938E-27
3.79039E-01 6.98351E-27
3.83277E-01 6.65425E-27
3.87524E-01 6.34079E-27
3.91780E-01 6.04236E-27
3.96044E-01 5.75822E-27
4.00316E-01 5.48767E-27
4.04596E-01 5.23005E-27
4.08882E-01 4.98473E-27
4.13176E-01 4.75111E-27
4.17476E-01 4.52862E-27
4.21783E-01 4.31673E-27
4.26095E-01 4.11492E-27
4.30413E-01 3.92270E-27
4.34737E-01 3.73962E-27
4.39065E-01 3.56522E-27
4.43398E-01 3.39910E-27
4.47736E-01 3.24086E-27
4.52077E-01 3.09011E-27
4.56422E-01 2.94650E-27
4.60770E-01 2.80969E-27
4.65122E-01 2.67935E-27
4.69476E-01 2.55517E-27
4.73832E-01 2.43686E-27
4.78190E-01 2.32413E-27
4.82550E-01 2.21673E-27
4.86912E-01 2.11439E-27
4.91274E-01 2.01688E-27
4.95637E-01 1.92397E-27
5.00000E-01 1.83543E-27
5.04363E-01 1.75107E-27
5.08726E-01 1.67068E-27
5.13088E-01 1.59407E-27
5.17450E-01 1.52107E-27
5.21810E-01 1.45150E-27
5.26168E-01 1.38520E-27
5.30524E-01 1.32202E-27
5.34878E-01 1.26180E-27
5.39230E-01 1.20442E-27
5.43578E-01 1.14972E-27
5.47923E-01 1.09760E-27
5.52264E-01 1.04792E-27
5.56602E-01 1.00057E-27
5.60935E-01 9.55435E-28
5.65263E-01 9.12417E-28
5.69587E-01 8.71414E-28
5.73905E-01 8.32330E-28
5.78217E-01 7.95075E-28
5.82524E-01 7.59562E-28
5.86824E-01 7.25709E-28
5.91118E-01 6.93437E-28
5.95404E-01 6.62671E-28
5.99684E-01 6.33341E-28
6.03956E-01 6.05379E-28
6.08220E-01 5.78719E-28
6.12476E-01 5.53301E-28
6.16723E-01 5.29065E-28
6.20961E-01 5.05955E-28
6.25190E-01 4.83919E-28
6.29410E-01 4.62906E-28
6.33619E-01 4.42867E-28
6.37819E-01 4.23756E-28
6.42008E-01 4.05528E-28
6.46186E-01 3.88144E-28
6.50353E-01 3.71561E-28
6.54508E-01 3.55743E-28
6.58652E-01 3.40653E-28
6.62784E-01 3.26257E-28
6.66903E-01 3.12521E-28
6.71010E-01 2.99415E-28
6.75104E-01 2.86909E-28
6.79184E-01 2.74974E-28
6.83251E-01 2.63583E-28
6.87303E-01 2.52710E-28
6.91342E-01 2.42330E-28
6.95366E-01 2.32422E-28
6.99375E-01 2.22960E-28
7.03368E-01 2.13926E-28
7.07347E-01 2.05298E-28
7.11309E-01 1.97057E-28
7.15256E-01 1.89185E-28
7.19186E-01 1.81665E-28
7.23099E-01 1.74478E-28
7.26995E-01 1.67611E-28
7.30874E-01 1.61047E-28
7.34736E-01 1.54772E-28
7.38579E-01 1.48773E-28
7.42405E-01 1.43036E-28
7.46212E-01 1.37549E-28
7.50000E-01 1.32300E-28
7.53769E-01 1.27277E-28
7.57519E-01 1.22471E-28
7.61249E-01 1.17871E-28
7.64960E-01 1.13467E-28
7.68650E-01 1.09250E-28
7.72320E-01 1.05210E-28
7.75968E-01 1.01341E-28
7.79596E-01 9.76325E-29
7.83203E-01 9.40783E-29
7.86788E-01 9.06709E-29
7.90351E-01 8.74034E-29
7.93893E-01 8.42692E-29
7.97411E-01 8.12620E-29
8.00908E-01 7.83759E-29
8.04381E-01 7.56053E-29
8.07831E-01 7.29447E-29
8.11257E-01 7.03891E-29
8.14660E-01 6.79336E-29
8.18039E-01 6.55735E-29
8.21394E-01 6.33044E-29
8.24724E-01 6.11222E-29
8.28030E-01 5.90228E-29
8.31310E-01 5.70025E-29
8.34565E-01 5.50576E-29
8.37795E-01 5.31848E-29
8.40999E-01 5.13808E-29
8.44177E-01 4.96423E-29
8.47329E-01 4.79666E-29
8.50455E-01 4.63509E-29
8.53553E-01 4.47923E-29
8.56625E-01 4.32885E-29
8.59670E-01 4.18369E-29
8.62687E-01 4.04354E-29
8.65677E-01 3.90816E-29
8.68639E-01 3.77737E-29
8.71572E-01 3.65095E-29
8.74478E-01 3.52873E-29
8.77355E-01 3.41052E-29
8.80203E-01 3.29616E-29
8.83022E-01 3.18548E-29
8.85812E-01 3.07834E-29
8.88573E-01 2.97458E-29
8.91304E-01 2.87408E-29
8.94005E-01 2.77670E-29
8.96677E-01 2.68231E-29
8.99318E-01 2.59081E-29
9.01928E-01 2.50207E-29
9.04508E-01 2.41600E-29
9.07058E-01 2.33248E-29
9.09576E-01 2.25143E-29
9.12063E-01 2.17276E-29
9.14519E-01 2.09637E-29
9.16943E-01 2.02219E-29
9.19335E-01 1.95013E-29
9.21696E-01 1.88013E-29
9.24024E-01 1.81212E-29
9.26320E-01 1.74602E-29
9.28584E-01 1.68177E-29
9.30815E-01 1.61932E-29
9.33013E-01 1.55861E-29
9.35178E-01 1.49958E-29
9.37310E-01 1.44218E-29
9.39409E-01 1.38637E-29
9.41474E-01 1.33210E-29
9.43505E-01 1.27932E-29
9.45503E-01 1.22799E-29
9.47467E-01 1.17807E-29
9.49397E-01 1.12954E-29
9.51293E-01 1.08234E-29
9.53154E-01 1.03645E-29
9.54981E-01 9.91831E-30
9.56773E-01 9.48460E-30
9.58530E-01 9.06307E-30
9.60252E-01 8.65342E-30
9.61940E-01 8.25541E-30
9.63592E-01 7.86880E-30
9.65209E-01 7.49335E-30
9.66790E-01 7.12885E-30
9.68336E-01 6.77508E-30
9.69846E-01 6.43185E-30
9.71321E-01 6.09898E-30
9.72759E-01 5.77629E-30
9.74162E-01 5.46361E-30
9.75528E-01 5.16078E-30
9.76858E-01 4.86766E-30
9.78152E-01 4.58410E-30
9.79410E-01 4.30997E-30
9.80631E-01 4.04515E-30
9.81815E-01 3.78951E-30
9.82963E-01 3.54294E-30
9.84074E-01 3.30533E-30
9.85148E-01 3.07659E-30
9.86185E-01 2.85662E-30
9.87185E-01 2.64533E-30
9.88148E-01 2.44263E-30
9.89074E-01 2.24845E-30
9.89962E-01 2.06271E-30
9.90814E-01 1.88533E-30
9.91627E-01 1.71627E-30
9.92404E-01 1.55544E-30
9.93143E-01 1.40280E-30
9.93844E-01 1.25829E-30
9.94508E-01 1.12187E-30
9.95134E-01 9.93469E-31
9.95722E-01 8.73062E-31
9.96273E-01 7.60603E-31
9.96786E-01 6.56056E-31
9.97261E-01 5.59386E-31
9.97698E-01 4.70561E-31
9.98097E-01 3.89554E-31
9.98459E-01 3.16337E-31
9.98782E-01 2.50889E-31
9.99067E-01 1.93188E-31
9.99315E-01 1.43217E-31
9.99524E-01 1.00959E-31
9.99695E-01 6.64022E-32
9.99829E-01 3.95357E-32
9.99924E-01 2.03512E-32
9.99981E-01 8.84288E-33
1.00000E+00 5.00733E-33
