 #
 # Subroutine ELSEPA. Elastic scattering of electrons and positrons
 #                    by neutral atoms and positive ions
 #
 # Projectile: electron
 # Kinetic energy = 9.00000E+07 eV = 3.30744E+06 a.u.
 #
 # WARNING: High-energy factorization with free-atom DF screening.
 #          Absorption, polarization and exchange corrections are
 #          switched off.
 #          Phase shifts are calculated for the bare nucleus.
 #          Scattering amplitudes are not evaluated.
 #
 # Element: Pr,  Z =  59,  atomic weight = 1.40908E+02 g/mol
 #
 # Nuclear model: Fermi distribution
 #                Average radius = 5.56795E-13 cm
 #                Skin thickness = 5.46000E-14 cm
 #
 # Number of electrons = 59
 #
 # Total elastic cross section = 7.27799E-18 cm**2 = 2.59902E-01 a0**2
 # 1st transport cross section = 8.31964E-25 cm**2 = 2.97100E-08 a0**2
 # 2nd transport cross section = 2.47231E-24 cm**2 = 8.82877E-08 a0**2
 #
 #
 # Differential cross section:                       MU=(1-COS(THETA))/2
 #
 #  THETA        MU          DCS          DCS        Sherman      error
 #  (deg)                 (cm**2/sr)   (a0**2/sr)    function
 #----------------------------------------------------------------------
0.00000E+00 8.74276E-10
7.61557E-13 8.70287E-10
1.18994E-12 8.68058E-10
1.71346E-12 8.65348E-10
2.33225E-12 8.62163E-10
3.04617E-12 8.58512E-10
3.85530E-12 8.54404E-10
4.75964E-12 8.49851E-10
5.75917E-12 8.44865E-10
6.85391E-12 8.39458E-10
8.04379E-12 8.33646E-10
9.32893E-12 8.27441E-10
1.07092E-11 8.20861E-10
1.21847E-11 8.13922E-10
1.37554E-11 8.06639E-10
1.54213E-11 7.99033E-10
1.71823E-11 7.91119E-10
1.90386E-11 7.82914E-10
2.09900E-11 7.74442E-10
2.30367E-11 7.65717E-10
2.51785E-11 7.56759E-10
2.74156E-11 7.47589E-10
2.97478E-11 7.38311E-10
3.21752E-11 7.28853E-10
3.46979E-11 7.19194E-10
3.73157E-11 7.09348E-10
4.00286E-11 6.99333E-10
4.28368E-11 6.89162E-10
4.57402E-11 6.79073E-10
4.87388E-11 6.68962E-10
5.18325E-11 6.58741E-10
5.50215E-11 6.48424E-10
5.83057E-11 6.38026E-10
6.16850E-11 6.27558E-10
6.51595E-11 6.17272E-10
6.87293E-11 6.07083E-10
7.23943E-11 5.96860E-10
7.61544E-11 5.86616E-10
1.18991E-10 4.88729E-10
1.71347E-10 4.03450E-10
2.33223E-10 3.33426E-10
3.04617E-10 2.77281E-10
3.85531E-10 2.33021E-10
4.75965E-10 1.98078E-10
5.75917E-10 1.70157E-10
6.85389E-10 1.47585E-10
8.04380E-10 1.29014E-10
9.32891E-10 1.13511E-10
1.07092E-09 1.00370E-10
1.21847E-09 8.91137E-11
1.37554E-09 7.93987E-11
1.54213E-09 7.09183E-11
1.71823E-09 6.35067E-11
1.90386E-09 5.70060E-11
2.09900E-09 5.12601E-11
2.30367E-09 4.61963E-11
2.51785E-09 4.17197E-11
2.74156E-09 3.77452E-11
2.97478E-09 3.40513E-11
3.21752E-09 3.08032E-11
3.46978E-09 2.79977E-11
3.73156E-09 2.55626E-11
4.00286E-09 2.34394E-11
4.28368E-09 2.15799E-11
4.57402E-09 1.97861E-11
4.87388E-09 1.81423E-11
5.18326E-09 1.66934E-11
5.50215E-09 1.54116E-11
5.83057E-09 1.42736E-11
6.16850E-09 1.32599E-11
6.51596E-09 1.22921E-11
6.87293E-09 1.13920E-11
7.23942E-09 1.05859E-11
7.61544E-09 9.86184E-12
1.18991E-08 5.16259E-12
1.71347E-08 2.92803E-12
2.33223E-08 1.76171E-12
3.04617E-08 1.12139E-12
3.85531E-08 7.49631E-13
4.75965E-08 5.22886E-13
5.75917E-08 3.77858E-13
6.85389E-08 2.80810E-13
8.04380E-08 2.13185E-13
9.32891E-08 1.64872E-13
1.07092E-07 1.29437E-13
1.21847E-07 1.02939E-13
1.37554E-07 8.27952E-14
1.54213E-07 6.72399E-14
1.71823E-07 5.51323E-14
1.90386E-07 4.56134E-14
2.09900E-07 3.80465E-14
2.30367E-07 3.19819E-14
2.51785E-07 2.70752E-14
2.74156E-07 2.30715E-14
2.97478E-07 1.97744E-14
3.21752E-07 1.70567E-14
3.46978E-07 1.47955E-14
3.73156E-07 1.28927E-14
4.00286E-07 1.12947E-14
4.28368E-07 9.93103E-15
4.57402E-07 8.77133E-15
4.87388E-07 7.77655E-15
5.18325E-07 6.91849E-15
5.50215E-07 6.17842E-15
5.83057E-07 5.53180E-15
6.16850E-07 4.96971E-15
6.51596E-07 4.47659E-15
6.87293E-07 4.04328E-15
7.23942E-07 3.66186E-15
7.61543E-07 3.32334E-15
1.18991E-06 1.40834E-15
1.71347E-06 6.93565E-16
2.33223E-06 3.79544E-16
3.04617E-06 2.24659E-16
3.85531E-06 1.41300E-16
4.75964E-06 9.32668E-17
5.75916E-06 6.40253E-17
6.85388E-06 4.54027E-17
8.04378E-06 3.30882E-17
9.32888E-06 2.46815E-17
1.07092E-05 1.87840E-17
1.21846E-05 1.45477E-17
1.37553E-05 1.14413E-17
1.54212E-05 9.12155E-18
1.71822E-05 7.36103E-18
1.90385E-05 6.00311E-18
2.09899E-05 4.94830E-18
2.30365E-05 4.11483E-18
2.51783E-05 3.44897E-18
2.74153E-05 2.91194E-18
2.97475E-05 2.47518E-18
3.21749E-05 2.11729E-18
3.46974E-05 1.82192E-18
3.73152E-05 1.57647E-18
4.00281E-05 1.37113E-18
4.28362E-05 1.19821E-18
4.57395E-05 1.05170E-18
4.87380E-05 9.26883E-19
5.18317E-05 8.19990E-19
5.50205E-05 7.28037E-19
5.83045E-05 6.48605E-19
6.16838E-05 5.79722E-19
6.51582E-05 5.19762E-19
6.87277E-05 4.67376E-19
7.23925E-05 4.21440E-19
7.61524E-05 3.81312E-19
9.21439E-05 2.60864E-19
1.09658E-04 1.84446E-19
1.28695E-04 1.34100E-19
1.49255E-04 9.98211E-20
1.71338E-04 7.58421E-20
1.94942E-04 5.86548E-20
2.20070E-04 4.60775E-20
2.46720E-04 3.67020E-20
2.74892E-04 2.95971E-20
3.04586E-04 2.41340E-20
3.35803E-04 1.98769E-20
3.68542E-04 1.65200E-20
4.02802E-04 1.38441E-20
4.38585E-04 1.16897E-20
4.75889E-04 9.93938E-21
5.14715E-04 8.50538E-21
5.55063E-04 7.32152E-21
5.96931E-04 6.33709E-21
6.40321E-04 5.51310E-21
6.85233E-04 4.81910E-21
7.31665E-04 4.23124E-21
7.79618E-04 3.73056E-21
8.29092E-04 3.30201E-21
8.80086E-04 2.93342E-21
9.32601E-04 2.61501E-21
9.86636E-04 2.33877E-21
1.04219E-03 2.09817E-21
1.09927E-03 1.88782E-21
1.15786E-03 1.70326E-21
1.21797E-03 1.54078E-21
1.27961E-03 1.39728E-21
1.34276E-03 1.27016E-21
1.40743E-03 1.15721E-21
1.47362E-03 1.05659E-21
1.54133E-03 9.66698E-22
1.61056E-03 8.86197E-22
1.68131E-03 8.13931E-22
1.75357E-03 7.48905E-22
1.82735E-03 6.90265E-22
1.90265E-03 6.37272E-22
1.97947E-03 5.89283E-22
2.05780E-03 5.45741E-22
2.13765E-03 5.06159E-22
2.21902E-03 4.70112E-22
2.30190E-03 4.37227E-22
2.38630E-03 4.07175E-22
2.47222E-03 3.79669E-22
2.55965E-03 3.54453E-22
2.64859E-03 3.31301E-22
2.73905E-03 3.10014E-22
2.83103E-03 2.90413E-22
2.92452E-03 2.72339E-22
3.01952E-03 2.55652E-22
3.11604E-03 2.40226E-22
3.21407E-03 2.25949E-22
3.31362E-03 2.12718E-22
3.41468E-03 2.00444E-22
3.51725E-03 1.89043E-22
3.62133E-03 1.78443E-22
3.72692E-03 1.68576E-22
3.83403E-03 1.59382E-22
3.94265E-03 1.50808E-22
4.05278E-03 1.42802E-22
4.16442E-03 1.35321E-22
4.27757E-03 1.28324E-22
4.39223E-03 1.21773E-22
4.50840E-03 1.15635E-22
4.62608E-03 1.09879E-22
4.74527E-03 1.04476E-22
4.86597E-03 9.94010E-23
4.98817E-03 9.46302E-23
5.11188E-03 9.01418E-23
5.23711E-03 8.59161E-23
5.36383E-03 8.19346E-23
5.49207E-03 7.81807E-23
5.62181E-03 7.46389E-23
5.75306E-03 7.12949E-23
5.88581E-03 6.81355E-23
6.02007E-03 6.51488E-23
6.15583E-03 6.23233E-23
6.29310E-03 5.96489E-23
6.43187E-03 5.71158E-23
6.57214E-03 5.47153E-23
6.71392E-03 5.24390E-23
6.85720E-03 5.02792E-23
7.00198E-03 4.82290E-23
7.14827E-03 4.62817E-23
7.29605E-03 4.44311E-23
7.44534E-03 4.26715E-23
7.59612E-03 4.09976E-23
7.97965E-03 3.71561E-23
8.37255E-03 3.37510E-23
8.77480E-03 3.07242E-23
9.18641E-03 2.80264E-23
9.60736E-03 2.56155E-23
1.00376E-02 2.34556E-23
1.04773E-02 2.15161E-23
1.09262E-02 1.97705E-23
1.13844E-02 1.81961E-23
1.18520E-02 1.67730E-23
1.23288E-02 1.54843E-23
1.28150E-02 1.43150E-23
1.33104E-02 1.32520E-23
1.38150E-02 1.22841E-23
1.43290E-02 1.14012E-23
1.48521E-02 1.05946E-23
1.53845E-02 9.85649E-24
1.59262E-02 9.18006E-24
1.64770E-02 8.55925E-24
1.70371E-02 7.98870E-24
1.76063E-02 7.46363E-24
1.81848E-02 6.97978E-24
1.87724E-02 6.53336E-24
1.93692E-02 6.12097E-24
1.99751E-02 5.73956E-24
2.05901E-02 5.38642E-24
2.12143E-02 5.05907E-24
2.18476E-02 4.75533E-24
2.24900E-02 4.47319E-24
2.31415E-02 4.21086E-24
2.38021E-02 3.96671E-24
2.44717E-02 3.73927E-24
2.51504E-02 3.52720E-24
2.58382E-02 3.32928E-24
2.65349E-02 3.14442E-24
2.72407E-02 2.97161E-24
2.79555E-02 2.80994E-24
2.86793E-02 2.65856E-24
2.94120E-02 2.51672E-24
3.01537E-02 2.38371E-24
3.09043E-02 2.25890E-24
3.16639E-02 2.14169E-24
3.24324E-02 2.03156E-24
3.32098E-02 1.92800E-24
3.39961E-02 1.83056E-24
3.47912E-02 1.73882E-24
3.55952E-02 1.65239E-24
3.64081E-02 1.57092E-24
3.72297E-02 1.49408E-24
3.80602E-02 1.42157E-24
3.88995E-02 1.35310E-24
3.97476E-02 1.28841E-24
4.06044E-02 1.22727E-24
4.14700E-02 1.16944E-24
4.23443E-02 1.11473E-24
4.32273E-02 1.06293E-24
4.41190E-02 1.01388E-24
4.50194E-02 9.67401E-25
4.59284E-02 9.23340E-25
4.68461E-02 8.81554E-25
4.87074E-02 8.04278E-25
5.06030E-02 7.34601E-25
5.25328E-02 6.71678E-25
5.44967E-02 6.14767E-25
5.64946E-02 5.63221E-25
5.85262E-02 5.16470E-25
6.05914E-02 4.74012E-25
6.26901E-02 4.35404E-25
6.48222E-02 4.00256E-25
6.69873E-02 3.68221E-25
6.91854E-02 3.38990E-25
7.14163E-02 3.12292E-25
7.36799E-02 2.87882E-25
7.59760E-02 2.65542E-25
7.83043E-02 2.45078E-25
8.06647E-02 2.26317E-25
8.30571E-02 2.09101E-25
8.54812E-02 1.93292E-25
8.79369E-02 1.78763E-25
9.04240E-02 1.65400E-25
9.29422E-02 1.53102E-25
9.54915E-02 1.41776E-25
9.80716E-02 1.31338E-25
1.00682E-01 1.21713E-25
1.03323E-01 1.12832E-25
1.05995E-01 1.04634E-25
1.08696E-01 9.70608E-26
1.11427E-01 9.00622E-26
1.14188E-01 8.35912E-26
1.16978E-01 7.76051E-26
1.19797E-01 7.20653E-26
1.22645E-01 6.69363E-26
1.25522E-01 6.21856E-26
1.28428E-01 5.77837E-26
1.31361E-01 5.37035E-26
1.34323E-01 4.99201E-26
1.37313E-01 4.64107E-26
1.40330E-01 4.31546E-26
1.43375E-01 4.01325E-26
1.46447E-01 3.73269E-26
1.49545E-01 3.47215E-26
1.52671E-01 3.23014E-26
1.55823E-01 3.00529E-26
1.59001E-01 2.79634E-26
1.62205E-01 2.60212E-26
1.65435E-01 2.42156E-26
1.68690E-01 2.25367E-26
1.71970E-01 2.09754E-26
1.75276E-01 1.95231E-26
1.78606E-01 1.81720E-26
1.81961E-01 1.69150E-26
1.85340E-01 1.57454E-26
1.88743E-01 1.46569E-26
1.92169E-01 1.36438E-26
1.95619E-01 1.27008E-26
1.99092E-01 1.18230E-26
2.02589E-01 1.10058E-26
2.06107E-01 1.02450E-26
2.09649E-01 9.53671E-27
2.13212E-01 8.87721E-27
2.16797E-01 8.26315E-27
2.20404E-01 7.69137E-27
2.24032E-01 7.15897E-27
2.27680E-01 6.66323E-27
2.31350E-01 6.20162E-27
2.35040E-01 5.77180E-27
2.38751E-01 5.37158E-27
2.42481E-01 4.99894E-27
2.46231E-01 4.65199E-27
2.50000E-01 4.32897E-27
2.53788E-01 4.02824E-27
2.57595E-01 3.74828E-27
2.61421E-01 3.48767E-27
2.65264E-01 3.24509E-27
2.69126E-01 3.01931E-27
2.73005E-01 2.80918E-27
2.76901E-01 2.61363E-27
2.80814E-01 2.43167E-27
2.84744E-01 2.26237E-27
2.88691E-01 2.10487E-27
2.92653E-01 1.95835E-27
2.96632E-01 1.82207E-27
3.00625E-01 1.69532E-27
3.04634E-01 1.57746E-27
3.08658E-01 1.46786E-27
3.12697E-01 1.36597E-27
3.16749E-01 1.27126E-27
3.20816E-01 1.18323E-27
3.24896E-01 1.10141E-27
3.28990E-01 1.02539E-27
3.33097E-01 9.54760E-28
3.37216E-01 8.89144E-28
3.41348E-01 8.28196E-28
3.45492E-01 7.71593E-28
3.49647E-01 7.19030E-28
3.53814E-01 6.70225E-28
3.57992E-01 6.24917E-28
3.62181E-01 5.82859E-28
3.66381E-01 5.43822E-28
3.70590E-01 5.07595E-28
3.74810E-01 4.73978E-28
3.79039E-01 4.42786E-28
3.83277E-01 4.13847E-28
3.87524E-01 3.87001E-28
3.91780E-01 3.62097E-28
3.96044E-01 3.38997E-28
4.00316E-01 3.17572E-28
4.04596E-01 2.97699E-28
4.08882E-01 2.79268E-28
4.13176E-01 2.62173E-28
4.17476E-01 2.46317E-28
4.21783E-01 2.31610E-28
4.26095E-01 2.17967E-28
4.30413E-01 2.05311E-28
4.34737E-01 1.93568E-28
4.39065E-01 1.82671E-28
4.43398E-01 1.72557E-28
4.47736E-01 1.63168E-28
4.52077E-01 1.54449E-28
4.56422E-01 1.46350E-28
4.60770E-01 1.38825E-28
4.65122E-01 1.31831E-28
4.69476E-01 1.25326E-28
4.73832E-01 1.19274E-28
4.78190E-01 1.13640E-28
4.82550E-01 1.08393E-28
4.86912E-01 1.03502E-28
4.91274E-01 9.89403E-29
4.95637E-01 9.46824E-29
5.00000E-01 9.07048E-29
5.04363E-01 8.69858E-29
5.08726E-01 8.35052E-29
5.13088E-01 8.02445E-29
5.17450E-01 7.71866E-29
5.21810E-01 7.43156E-29
5.26168E-01 7.16169E-29
5.30524E-01 6.90771E-29
5.34878E-01 6.66837E-29
5.39230E-01 6.44254E-29
5.43578E-01 6.22915E-29
5.47923E-01 6.02723E-29
5.52264E-01 5.83590E-29
5.56602E-01 5.65433E-29
5.60935E-01 5.48177E-29
5.65263E-01 5.31753E-29
5.69587E-01 5.16097E-29
5.73905E-01 5.01150E-29
5.78217E-01 4.86860E-29
5.82524E-01 4.73177E-29
5.86824E-01 4.60056E-29
5.91118E-01 4.47457E-29
5.95404E-01 4.35342E-29
5.99684E-01 4.23675E-29
6.03956E-01 4.12427E-29
6.08220E-01 4.01568E-29
6.12476E-01 3.91073E-29
6.16723E-01 3.80917E-29
6.20961E-01 3.71078E-29
6.25190E-01 3.61538E-29
6.29410E-01 3.52277E-29
6.33619E-01 3.43280E-29
6.37819E-01 3.34531E-29
6.42008E-01 3.26018E-29
6.46186E-01 3.17727E-29
6.50353E-01 3.09648E-29
6.54508E-01 3.01770E-29
6.58652E-01 2.94083E-29
6.62784E-01 2.86581E-29
6.66903E-01 2.79254E-29
6.71010E-01 2.72097E-29
6.75104E-01 2.65102E-29
6.79184E-01 2.58264E-29
6.83251E-01 2.51578E-29
6.87303E-01 2.45039E-29
6.91342E-01 2.38642E-29
6.95366E-01 2.32384E-29
6.99375E-01 2.26260E-29
7.03368E-01 2.20268E-29
7.07347E-01 2.14404E-29
7.11309E-01 2.08666E-29
7.15256E-01 2.03050E-29
7.19186E-01 1.97554E-29
7.23099E-01 1.92177E-29
7.26995E-01 1.86915E-29
7.30874E-01 1.81766E-29
7.34736E-01 1.76730E-29
7.38579E-01 1.71803E-29
7.42405E-01 1.66984E-29
7.46212E-01 1.62271E-29
7.50000E-01 1.57663E-29
7.53769E-01 1.53157E-29
7.57519E-01 1.48753E-29
7.61249E-01 1.44449E-29
7.64960E-01 1.40243E-29
7.68650E-01 1.36134E-29
7.72320E-01 1.32121E-29
7.75968E-01 1.28201E-29
7.79596E-01 1.24374E-29
7.83203E-01 1.20638E-29
7.86788E-01 1.16991E-29
7.90351E-01 1.13433E-29
7.93893E-01 1.09962E-29
7.97411E-01 1.06576E-29
8.00908E-01 1.03274E-29
8.04381E-01 1.00054E-29
8.07831E-01 9.69160E-30
8.11257E-01 9.38576E-30
8.14660E-01 9.08776E-30
8.18039E-01 8.79747E-30
8.21394E-01 8.51474E-30
8.24724E-01 8.23943E-30
8.28030E-01 7.97141E-30
8.31310E-01 7.71053E-30
8.34565E-01 7.45666E-30
8.37795E-01 7.20966E-30
8.40999E-01 6.96939E-30
8.44177E-01 6.73572E-30
8.47329E-01 6.50852E-30
8.50455E-01 6.28763E-30
8.53553E-01 6.07294E-30
8.56625E-01 5.86431E-30
8.59670E-01 5.66160E-30
8.62687E-01 5.46468E-30
8.65677E-01 5.27344E-30
8.68639E-01 5.08773E-30
8.71572E-01 4.90742E-30
8.74478E-01 4.73241E-30
8.77355E-01 4.56255E-30
8.80203E-01 4.39772E-30
8.83022E-01 4.23781E-30
8.85812E-01 4.08270E-30
8.88573E-01 3.93226E-30
8.91304E-01 3.78639E-30
8.94005E-01 3.64496E-30
8.96677E-01 3.50786E-30
8.99318E-01 3.37498E-30
9.01928E-01 3.24622E-30
9.04508E-01 3.12147E-30
9.07058E-01 3.00061E-30
9.09576E-01 2.88356E-30
9.12063E-01 2.77020E-30
9.14519E-01 2.66044E-30
9.16943E-01 2.55417E-30
9.19335E-01 2.45131E-30
9.21696E-01 2.35177E-30
9.24024E-01 2.25544E-30
9.26320E-01 2.16224E-30
9.28584E-01 2.07209E-30
9.30815E-01 1.98490E-30
9.33013E-01 1.90058E-30
9.35178E-01 1.81905E-30
9.37310E-01 1.74024E-30
9.39409E-01 1.66407E-30
9.41474E-01 1.59046E-30
9.43505E-01 1.51933E-30
9.45503E-01 1.45063E-30
9.47467E-01 1.38427E-30
9.49397E-01 1.32019E-30
9.51293E-01 1.25832E-30
9.53154E-01 1.19861E-30
9.54981E-01 1.14098E-30
9.56773E-01 1.08538E-30
9.58530E-01 1.03175E-30
9.60252E-01 9.80027E-31
9.61940E-01 9.30164E-31
9.63592E-01 8.82105E-31
9.65209E-01 8.35797E-31
9.66790E-01 7.91192E-31
9.68336E-01 7.48239E-31
9.69846E-01 7.06892E-31
9.71321E-01 6.67107E-31
9.72759E-01 6.28838E-31
9.74162E-01 5.92045E-31
9.75528E-01 5.56685E-31
9.76858E-01 5.22720E-31
9.78152E-01 4.90112E-31
9.79410E-01 4.58823E-31
9.80631E-01 4.28820E-31
9.81815E-01 4.00068E-31
9.82963E-01 3.72535E-31
9.84074E-01 3.46189E-31
9.85148E-01 3.21001E-31
9.86185E-01 2.96942E-31
9.87185E-01 2.73984E-31
9.88148E-01 2.52102E-31
9.89074E-01 2.31270E-31
9.89962E-01 2.11464E-31
9.90814E-01 1.92662E-31
9.91627E-01 1.74842E-31
9.92404E-01 1.57984E-31
9.93143E-01 1.42068E-31
9.93844E-01 1.27075E-31
9.94508E-01 1.12989E-31
9.95134E-01 9.97928E-32
9.95722E-01 8.74715E-32
9.96273E-01 7.60107E-32
9.96786E-01 6.53972E-32
9.97261E-01 5.56186E-32
9.97698E-01 4.66636E-32
9.98097E-01 3.85218E-32
9.98459E-01 3.11836E-32
9.98782E-01 2.46407E-32
9.99067E-01 1.88853E-32
9.99315E-01 1.39108E-32
9.99524E-01 9.71137E-33
9.99695E-01 6.28212E-33
9.99829E-01 3.61905E-33
9.99924E-01 1.71907E-33
9.99981E-01 5.79972E-34
1.00000E+00 2.00449E-34
