 #
 # Subroutine ELSEPA. Elastic scattering of electrons and positrons
 #                    by neutral atoms and positive ions
 #
 # Projectile: electron
 # Kinetic energy = 5.00000E+07 eV = 1.83747E+06 a.u.
 #
 # WARNING: High-energy factorization with free-atom DF screening.
 #          Absorption, polarization and exchange corrections are
 #          switched off.
 #          Phase shifts are calculated for the bare nucleus.
 #          Scattering amplitudes are not evaluated.
 #
 # Element: Pr,  Z =  59,  atomic weight = 1.40908E+02 g/mol
 #
 # Nuclear model: Fermi distribution
 #                Average radius = 5.56795E-13 cm
 #                Skin thickness = 5.46000E-14 cm
 #
 # Number of electrons = 59
 #
 # Total elastic cross section = 7.27664E-18 cm**2 = 2.59854E-01 a0**2
 # 1st transport cross section = 2.66683E-24 cm**2 = 9.52343E-08 a0**2
 # 2nd transport cross section = 7.81658E-24 cm**2 = 2.79135E-07 a0**2
 #
 #
 # Differential cross section:                       MU=(1-COS(THETA))/2
 #
 #  THETA        MU          DCS          DCS        Sherman      error
 #  (deg)                 (cm**2/sr)   (a0**2/sr)    function
 #----------------------------------------------------------------------
0.00000E+00 2.72281E-10
7.61557E-13 2.71893E-10
1.18994E-12 2.71675E-10
1.71346E-12 2.71410E-10
2.33225E-12 2.71096E-10
3.04617E-12 2.70736E-10
3.85530E-12 2.70328E-10
4.75964E-12 2.69873E-10
5.75917E-12 2.69372E-10
6.85391E-12 2.68826E-10
8.04379E-12 2.68233E-10
9.32893E-12 2.67596E-10
1.07092E-11 2.66914E-10
1.21847E-11 2.66189E-10
1.37554E-11 2.65420E-10
1.54213E-11 2.64608E-10
1.71823E-11 2.63755E-10
1.90386E-11 2.62860E-10
2.09900E-11 2.61924E-10
2.30367E-11 2.60949E-10
2.51785E-11 2.59935E-10
2.74156E-11 2.58883E-10
2.97478E-11 2.57793E-10
3.21752E-11 2.56667E-10
3.46979E-11 2.55505E-10
3.73157E-11 2.54308E-10
4.00286E-11 2.53078E-10
4.28368E-11 2.51814E-10
4.57402E-11 2.50519E-10
4.87388E-11 2.49192E-10
5.18325E-11 2.47836E-10
5.50215E-11 2.46450E-10
5.83057E-11 2.45036E-10
6.16850E-11 2.43596E-10
6.51595E-11 2.42129E-10
6.87293E-11 2.40637E-10
7.23943E-11 2.39121E-10
7.61544E-11 2.37583E-10
1.18991E-10 2.21220E-10
1.71347E-10 2.03609E-10
2.33223E-10 1.85684E-10
3.04617E-10 1.68163E-10
3.85531E-10 1.51573E-10
4.75965E-10 1.36245E-10
5.75917E-10 1.22348E-10
6.85389E-10 1.09927E-10
8.04380E-10 9.89511E-11
9.32891E-10 8.93146E-11
1.07092E-09 8.08628E-11
1.21847E-09 7.34578E-11
1.37554E-09 6.69645E-11
1.54213E-09 6.12574E-11
1.71823E-09 5.62239E-11
1.90386E-09 5.17659E-11
2.09900E-09 4.77988E-11
2.30367E-09 4.42511E-11
2.51785E-09 4.10626E-11
2.74156E-09 3.81832E-11
2.97478E-09 3.55710E-11
3.21752E-09 3.31884E-11
3.46978E-09 3.10085E-11
3.73156E-09 2.90077E-11
4.00286E-09 2.71663E-11
4.28368E-09 2.54673E-11
4.57402E-09 2.38963E-11
4.87388E-09 2.24410E-11
5.18326E-09 2.10908E-11
5.50215E-09 1.98364E-11
5.83057E-09 1.86696E-11
6.16850E-09 1.75833E-11
6.51596E-09 1.65710E-11
6.87293E-09 1.56265E-11
7.23942E-09 1.47441E-11
7.61544E-09 1.39204E-11
1.18991E-08 8.03102E-12
1.71347E-08 5.00045E-12
2.33223E-08 3.28206E-12
3.04617E-08 2.24589E-12
3.85531E-08 1.58595E-12
4.75965E-08 1.14747E-12
5.75917E-08 8.47193E-13
6.85389E-08 6.36998E-13
8.04380E-08 4.87131E-13
9.32891E-08 3.78714E-13
1.07092E-07 2.99191E-13
1.21847E-07 2.39901E-13
1.37554E-07 1.94978E-13
1.54213E-07 1.60403E-13
1.71823E-07 1.33392E-13
1.90386E-07 1.11991E-13
2.09900E-07 9.48267E-14
2.30367E-07 8.08880E-14
2.51785E-07 6.94097E-14
2.74156E-07 5.99124E-14
2.97478E-07 5.19916E-14
3.21752E-07 4.53290E-14
3.46978E-07 3.96919E-14
3.73156E-07 3.48937E-14
4.00286E-07 3.07869E-14
4.28368E-07 2.72552E-14
4.57402E-07 2.42058E-14
4.87388E-07 2.15633E-14
5.18325E-07 1.92662E-14
5.50215E-07 1.72634E-14
5.83057E-07 1.55118E-14
6.16850E-07 1.39754E-14
6.51596E-07 1.26237E-14
6.87293E-07 1.14305E-14
7.23942E-07 1.03741E-14
7.61543E-07 9.43646E-15
1.18991E-06 4.07025E-15
1.71347E-06 2.04021E-15
2.33223E-06 1.13400E-15
3.04617E-06 6.79516E-16
3.85531E-06 4.31393E-16
4.75964E-06 2.86703E-16
5.75916E-06 1.97768E-16
6.85388E-06 1.40748E-16
8.04378E-06 1.02853E-16
9.32888E-06 7.68832E-17
1.07092E-05 5.86137E-17
1.21846E-05 4.54631E-17
1.37553E-05 3.58031E-17
1.54212E-05 2.85788E-17
1.71822E-05 2.30895E-17
1.90385E-05 1.88507E-17
2.09899E-05 1.55545E-17
2.30365E-05 1.29475E-17
2.51783E-05 1.08628E-17
2.74153E-05 9.17971E-18
2.97475E-05 7.80971E-18
3.21749E-05 6.68609E-18
3.46974E-05 5.75796E-18
3.73152E-05 4.98603E-18
4.00281E-05 4.33969E-18
4.28362E-05 3.79501E-18
4.57395E-05 3.33316E-18
4.87380E-05 2.93936E-18
5.18317E-05 2.60191E-18
5.50205E-05 2.31140E-18
5.83045E-05 2.06029E-18
6.16838E-05 1.84239E-18
6.51582E-05 1.65260E-18
6.87277E-05 1.48669E-18
7.23925E-05 1.34113E-18
7.61524E-05 1.21331E-18
9.21439E-05 8.31096E-19
1.09658E-04 5.88216E-19
1.28695E-04 4.27987E-19
1.49255E-04 3.18777E-19
1.71338E-04 2.42314E-19
1.94942E-04 1.87470E-19
2.20070E-04 1.47312E-19
2.46720E-04 1.17364E-19
2.74892E-04 9.46592E-20
3.04586E-04 7.71961E-20
3.35803E-04 6.35844E-20
3.68542E-04 5.28493E-20
4.02802E-04 4.42903E-20
4.38585E-04 3.73984E-20
4.75889E-04 3.17988E-20
5.14715E-04 2.72109E-20
5.55063E-04 2.34230E-20
5.96931E-04 2.02732E-20
6.40321E-04 1.76366E-20
6.85233E-04 1.54161E-20
7.31665E-04 1.35351E-20
7.79618E-04 1.19331E-20
8.29092E-04 1.05620E-20
8.80086E-04 9.38274E-21
9.32601E-04 8.36406E-21
9.86636E-04 7.48035E-21
1.04219E-03 6.71070E-21
1.09927E-03 6.03786E-21
1.15786E-03 5.44754E-21
1.21797E-03 4.92788E-21
1.27961E-03 4.46896E-21
1.34276E-03 4.06243E-21
1.40743E-03 3.70125E-21
1.47362E-03 3.37950E-21
1.54133E-03 3.09210E-21
1.61056E-03 2.83473E-21
1.68131E-03 2.60370E-21
1.75357E-03 2.39584E-21
1.82735E-03 2.20840E-21
1.90265E-03 2.03901E-21
1.97947E-03 1.88564E-21
2.05780E-03 1.74648E-21
2.13765E-03 1.61998E-21
2.21902E-03 1.50479E-21
2.30190E-03 1.39971E-21
2.38630E-03 1.30368E-21
2.47222E-03 1.21579E-21
2.55965E-03 1.13522E-21
2.64859E-03 1.06125E-21
2.73905E-03 9.93238E-22
2.83103E-03 9.30616E-22
2.92452E-03 8.72881E-22
3.01952E-03 8.19576E-22
3.11604E-03 7.70300E-22
3.21407E-03 7.24695E-22
3.31362E-03 6.82433E-22
3.41468E-03 6.43223E-22
3.51725E-03 6.06806E-22
3.62133E-03 5.72945E-22
3.72692E-03 5.41425E-22
3.83403E-03 5.12056E-22
3.94265E-03 4.84665E-22
4.05278E-03 4.59089E-22
4.16442E-03 4.35190E-22
4.27757E-03 4.12834E-22
4.39223E-03 3.91903E-22
4.50840E-03 3.72291E-22
4.62608E-03 3.53898E-22
4.74527E-03 3.36632E-22
4.86597E-03 3.20414E-22
4.98817E-03 3.05166E-22
5.11188E-03 2.90820E-22
5.23711E-03 2.77312E-22
5.36383E-03 2.64584E-22
5.49207E-03 2.52582E-22
5.62181E-03 2.41258E-22
5.75306E-03 2.30564E-22
5.88581E-03 2.20460E-22
6.02007E-03 2.10907E-22
6.15583E-03 2.01869E-22
6.29310E-03 1.93312E-22
6.43187E-03 1.85207E-22
6.57214E-03 1.77524E-22
6.71392E-03 1.70239E-22
6.85720E-03 1.63325E-22
7.00198E-03 1.56761E-22
7.14827E-03 1.50525E-22
7.29605E-03 1.44598E-22
7.44534E-03 1.38961E-22
7.59612E-03 1.33598E-22
7.97965E-03 1.21286E-22
8.37255E-03 1.10367E-22
8.77480E-03 1.00655E-22
9.18641E-03 9.19934E-23
9.60736E-03 8.42473E-23
1.00376E-02 7.73030E-23
1.04773E-02 7.10627E-23
1.09262E-02 6.54419E-23
1.13844E-02 6.03681E-23
1.18520E-02 5.57782E-23
1.23288E-02 5.16177E-23
1.28150E-02 4.78392E-23
1.33104E-02 4.44010E-23
1.38150E-02 4.12668E-23
1.43290E-02 3.84049E-23
1.48521E-02 3.57873E-23
1.53845E-02 3.33892E-23
1.59262E-02 3.11887E-23
1.64770E-02 2.91667E-23
1.70371E-02 2.73059E-23
1.76063E-02 2.55911E-23
1.81848E-02 2.40087E-23
1.87724E-02 2.25465E-23
1.93692E-02 2.11938E-23
1.99751E-02 1.99409E-23
2.05901E-02 1.87788E-23
2.12143E-02 1.77000E-23
2.18476E-02 1.66972E-23
2.24900E-02 1.57641E-23
2.31415E-02 1.48950E-23
2.38021E-02 1.40847E-23
2.44717E-02 1.33283E-23
2.51504E-02 1.26218E-23
2.58382E-02 1.19611E-23
2.65349E-02 1.13427E-23
2.72407E-02 1.07635E-23
2.79555E-02 1.02204E-23
2.86793E-02 9.71081E-24
2.94120E-02 9.23227E-24
3.01537E-02 8.78252E-24
3.09043E-02 8.35951E-24
3.16639E-02 7.96135E-24
3.24324E-02 7.58631E-24
3.32098E-02 7.23279E-24
3.39961E-02 6.89933E-24
3.47912E-02 6.58458E-24
3.55952E-02 6.28729E-24
3.64081E-02 6.00631E-24
3.72297E-02 5.74059E-24
3.80602E-02 5.48913E-24
3.88995E-02 5.25103E-24
3.97476E-02 5.02546E-24
4.06044E-02 4.81162E-24
4.14700E-02 4.60879E-24
4.23443E-02 4.41631E-24
4.32273E-02 4.23354E-24
4.41190E-02 4.05991E-24
4.50194E-02 3.89488E-24
4.59284E-02 3.73793E-24
4.68461E-02 3.58861E-24
4.87074E-02 3.31111E-24
5.06030E-02 3.05921E-24
5.25328E-02 2.83014E-24
5.44967E-02 2.62147E-24
5.64946E-02 2.43107E-24
5.85262E-02 2.25708E-24
6.05914E-02 2.09784E-24
6.26901E-02 1.95188E-24
6.48222E-02 1.81792E-24
6.69873E-02 1.69479E-24
6.91854E-02 1.58149E-24
7.14163E-02 1.47708E-24
7.36799E-02 1.38076E-24
7.59760E-02 1.29180E-24
7.83043E-02 1.20955E-24
8.06647E-02 1.13340E-24
8.30571E-02 1.06285E-24
8.54812E-02 9.97406E-25
8.79369E-02 9.36645E-25
9.04240E-02 8.80176E-25
9.29422E-02 8.27648E-25
9.54915E-02 7.78744E-25
9.80716E-02 7.33175E-25
1.00682E-01 6.90676E-25
1.03323E-01 6.51011E-25
1.05995E-01 6.13960E-25
1.08696E-01 5.79326E-25
1.11427E-01 5.46926E-25
1.14188E-01 5.16596E-25
1.16978E-01 4.88184E-25
1.19797E-01 4.61549E-25
1.22645E-01 4.36566E-25
1.25522E-01 4.13117E-25
1.28428E-01 3.91093E-25
1.31361E-01 3.70397E-25
1.34323E-01 3.50937E-25
1.37313E-01 3.32628E-25
1.40330E-01 3.15394E-25
1.43375E-01 2.99162E-25
1.46447E-01 2.83866E-25
1.49545E-01 2.69446E-25
1.52671E-01 2.55844E-25
1.55823E-01 2.43008E-25
1.59001E-01 2.30889E-25
1.62205E-01 2.19442E-25
1.65435E-01 2.08625E-25
1.68690E-01 1.98399E-25
1.71970E-01 1.88727E-25
1.75276E-01 1.79576E-25
1.78606E-01 1.70915E-25
1.81961E-01 1.62714E-25
1.85340E-01 1.54945E-25
1.88743E-01 1.47584E-25
1.92169E-01 1.40607E-25
1.95619E-01 1.33990E-25
1.99092E-01 1.27714E-25
2.02589E-01 1.21758E-25
2.06107E-01 1.16106E-25
2.09649E-01 1.10739E-25
2.13212E-01 1.05642E-25
2.16797E-01 1.00799E-25
2.20404E-01 9.61969E-26
2.24032E-01 9.18224E-26
2.27680E-01 8.76629E-26
2.31350E-01 8.37068E-26
2.35040E-01 7.99433E-26
2.38751E-01 7.63619E-26
2.42481E-01 7.29531E-26
2.46231E-01 6.97078E-26
2.50000E-01 6.66174E-26
2.53788E-01 6.36737E-26
2.57595E-01 6.08693E-26
2.61421E-01 5.81969E-26
2.65264E-01 5.56499E-26
2.69126E-01 5.32217E-26
2.73005E-01 5.09064E-26
2.76901E-01 4.86982E-26
2.80814E-01 4.65919E-26
2.84744E-01 4.45824E-26
2.88691E-01 4.26648E-26
2.92653E-01 4.08346E-26
2.96632E-01 3.90875E-26
3.00625E-01 3.74194E-26
3.04634E-01 3.58266E-26
3.08658E-01 3.43054E-26
3.12697E-01 3.28523E-26
3.16749E-01 3.14640E-26
3.20816E-01 3.01375E-26
3.24896E-01 2.88698E-26
3.28990E-01 2.76581E-26
3.33097E-01 2.64999E-26
3.37216E-01 2.53925E-26
3.41348E-01 2.43337E-26
3.45492E-01 2.33210E-26
3.49647E-01 2.23525E-26
3.53814E-01 2.14261E-26
3.57992E-01 2.05398E-26
3.62181E-01 1.96918E-26
3.66381E-01 1.88803E-26
3.70590E-01 1.81038E-26
3.74810E-01 1.73605E-26
3.79039E-01 1.66490E-26
3.83277E-01 1.59678E-26
3.87524E-01 1.53157E-26
3.91780E-01 1.46912E-26
3.96044E-01 1.40932E-26
4.00316E-01 1.35205E-26
4.04596E-01 1.29720E-26
4.08882E-01 1.24465E-26
4.13176E-01 1.19431E-26
4.17476E-01 1.14609E-26
4.21783E-01 1.09988E-26
4.26095E-01 1.05560E-26
4.30413E-01 1.01316E-26
4.34737E-01 9.72494E-27
4.39065E-01 9.33515E-27
4.43398E-01 8.96151E-27
4.47736E-01 8.60334E-27
4.52077E-01 8.25996E-27
4.56422E-01 7.93074E-27
4.60770E-01 7.61507E-27
4.65122E-01 7.31238E-27
4.69476E-01 7.02211E-27
4.73832E-01 6.74374E-27
4.78190E-01 6.47675E-27
4.82550E-01 6.22066E-27
4.86912E-01 5.97503E-27
4.91274E-01 5.73939E-27
4.95637E-01 5.51334E-27
5.00000E-01 5.29647E-27
5.04363E-01 5.08839E-27
5.08726E-01 4.88874E-27
5.13088E-01 4.69717E-27
5.17450E-01 4.51333E-27
5.21810E-01 4.33691E-27
5.26168E-01 4.16759E-27
5.30524E-01 4.00509E-27
5.34878E-01 3.84911E-27
5.39230E-01 3.69940E-27
5.43578E-01 3.55568E-27
5.47923E-01 3.41772E-27
5.52264E-01 3.28528E-27
5.56602E-01 3.15812E-27
5.60935E-01 3.03604E-27
5.65263E-01 2.91882E-27
5.69587E-01 2.80627E-27
5.73905E-01 2.69819E-27
5.78217E-01 2.59440E-27
5.82524E-01 2.49473E-27
5.86824E-01 2.39901E-27
5.91118E-01 2.30707E-27
5.95404E-01 2.21877E-27
5.99684E-01 2.13396E-27
6.03956E-01 2.05249E-27
6.08220E-01 1.97423E-27
6.12476E-01 1.89905E-27
6.16723E-01 1.82682E-27
6.20961E-01 1.75743E-27
6.25190E-01 1.69076E-27
6.29410E-01 1.62670E-27
6.33619E-01 1.56515E-27
6.37819E-01 1.50601E-27
6.42008E-01 1.44917E-27
6.46186E-01 1.39455E-27
6.50353E-01 1.34205E-27
6.54508E-01 1.29160E-27
6.58652E-01 1.24311E-27
6.62784E-01 1.19650E-27
6.66903E-01 1.15170E-27
6.71010E-01 1.10863E-27
6.75104E-01 1.06722E-27
6.79184E-01 1.02742E-27
6.83251E-01 9.89149E-28
6.87303E-01 9.52353E-28
6.91342E-01 9.16971E-28
6.95366E-01 8.82949E-28
6.99375E-01 8.50232E-28
7.03368E-01 8.18768E-28
7.07347E-01 7.88507E-28
7.11309E-01 7.59402E-28
7.15256E-01 7.31408E-28
7.19186E-01 7.04479E-28
7.23099E-01 6.78574E-28
7.26995E-01 6.53653E-28
7.30874E-01 6.29676E-28
7.34736E-01 6.06607E-28
7.38579E-01 5.84409E-28
7.42405E-01 5.63049E-28
7.46212E-01 5.42493E-28
7.50000E-01 5.22709E-28
7.53769E-01 5.03668E-28
7.57519E-01 4.85340E-28
7.61249E-01 4.67698E-28
7.64960E-01 4.50714E-28
7.68650E-01 4.34362E-28
7.72320E-01 4.18618E-28
7.75968E-01 4.03458E-28
7.79596E-01 3.88860E-28
7.83203E-01 3.74801E-28
7.86788E-01 3.61260E-28
7.90351E-01 3.48218E-28
7.93893E-01 3.35654E-28
7.97411E-01 3.23551E-28
8.00908E-01 3.11890E-28
8.04381E-01 3.00654E-28
8.07831E-01 2.89827E-28
8.11257E-01 2.79393E-28
8.14660E-01 2.69337E-28
8.18039E-01 2.59643E-28
8.21394E-01 2.50300E-28
8.24724E-01 2.41291E-28
8.28030E-01 2.32606E-28
8.31310E-01 2.24232E-28
8.34565E-01 2.16156E-28
8.37795E-01 2.08367E-28
8.40999E-01 2.00854E-28
8.44177E-01 1.93608E-28
8.47329E-01 1.86617E-28
8.50455E-01 1.79871E-28
8.53553E-01 1.73363E-28
8.56625E-01 1.67082E-28
8.59670E-01 1.61021E-28
8.62687E-01 1.55170E-28
8.65677E-01 1.49522E-28
8.68639E-01 1.44070E-28
8.71572E-01 1.38806E-28
8.74478E-01 1.33723E-28
8.77355E-01 1.28814E-28
8.80203E-01 1.24073E-28
8.83022E-01 1.19494E-28
8.85812E-01 1.15071E-28
8.88573E-01 1.10797E-28
8.91304E-01 1.06669E-28
8.94005E-01 1.02680E-28
8.96677E-01 9.88245E-29
8.99318E-01 9.50988E-29
9.01928E-01 9.14980E-29
9.04508E-01 8.80175E-29
9.07058E-01 8.46529E-29
9.09576E-01 8.14003E-29
9.12063E-01 7.82556E-29
9.14519E-01 7.52151E-29
9.16943E-01 7.22751E-29
9.19335E-01 6.94321E-29
9.21696E-01 6.66828E-29
9.24024E-01 6.40240E-29
9.26320E-01 6.14525E-29
9.28584E-01 5.89654E-29
9.30815E-01 5.65598E-29
9.33013E-01 5.42331E-29
9.35178E-01 5.19826E-29
9.37310E-01 4.98058E-29
9.39409E-01 4.77003E-29
9.41474E-01 4.56638E-29
9.43505E-01 4.36940E-29
9.45503E-01 4.17889E-29
9.47467E-01 3.99464E-29
9.49397E-01 3.81645E-29
9.51293E-01 3.64413E-29
9.53154E-01 3.47752E-29
9.54981E-01 3.31642E-29
9.56773E-01 3.16069E-29
9.58530E-01 3.01016E-29
9.60252E-01 2.86467E-29
9.61940E-01 2.72409E-29
9.63592E-01 2.58828E-29
9.65209E-01 2.45709E-29
9.66790E-01 2.33041E-29
9.68336E-01 2.20811E-29
9.69846E-01 2.09007E-29
9.71321E-01 1.97618E-29
9.72759E-01 1.86633E-29
9.74162E-01 1.76043E-29
9.75528E-01 1.65837E-29
9.76858E-01 1.56006E-29
9.78152E-01 1.46541E-29
9.79410E-01 1.37434E-29
9.80631E-01 1.28676E-29
9.81815E-01 1.20259E-29
9.82963E-01 1.12176E-29
9.84074E-01 1.04420E-29
9.85148E-01 9.69849E-30
9.86185E-01 8.98631E-30
9.87185E-01 8.30491E-30
9.88148E-01 7.65369E-30
9.89074E-01 7.03211E-30
9.89962E-01 6.43964E-30
9.90814E-01 5.87580E-30
9.91627E-01 5.34011E-30
9.92404E-01 4.83213E-30
9.93143E-01 4.35145E-30
9.93844E-01 3.89766E-30
9.94508E-01 3.47042E-30
9.95134E-01 3.06936E-30
9.95722E-01 2.69417E-30
9.96273E-01 2.34455E-30
9.96786E-01 2.02022E-30
9.97261E-01 1.72092E-30
9.97698E-01 1.44642E-30
9.98097E-01 1.19649E-30
9.98459E-01 9.70958E-31
9.98782E-01 7.69629E-31
9.99067E-01 5.92353E-31
9.99315E-01 4.38989E-31
9.99524E-01 3.09421E-31
9.99695E-01 2.03546E-31
9.99829E-01 1.21284E-31
9.99924E-01 6.25707E-32
9.99981E-01 2.73607E-32
1.00000E+00 1.56272E-32
