 #
 # Subroutine ELSEPA. Elastic scattering of electrons and positrons
 #                    by neutral atoms and positive ions
 #
 # Projectile: electron
 # Kinetic energy = 1.75000E+07 eV = 6.43113E+05 a.u.
 #
 # WARNING: High-energy factorization with free-atom DF screening.
 #          Absorption, polarization and exchange corrections are
 #          switched off.
 #          Phase shifts are calculated for the bare nucleus.
 #          Scattering amplitudes are not evaluated.
 #
 # Element: Pr,  Z =  59,  atomic weight = 1.40908E+02 g/mol
 #
 # Nuclear model: Fermi distribution
 #                Average radius = 5.56795E-13 cm
 #                Skin thickness = 5.46000E-14 cm
 #
 # Number of electrons = 59
 #
 # Total elastic cross section = 7.28770E-18 cm**2 = 2.60249E-01 a0**2
 # 1st transport cross section = 2.00397E-23 cm**2 = 7.15629E-07 a0**2
 # 2nd transport cross section = 5.67800E-23 cm**2 = 2.02765E-06 a0**2
 #
 #
 # Differential cross section:                       MU=(1-COS(THETA))/2
 #
 #  THETA        MU          DCS          DCS        Sherman      error
 #  (deg)                 (cm**2/sr)   (a0**2/sr)    function
 #----------------------------------------------------------------------
0.00000E+00 3.46196E-11
7.61557E-13 3.46133E-11
1.18994E-12 3.46097E-11
1.71346E-12 3.46054E-11
2.33225E-12 3.46003E-11
3.04617E-12 3.45944E-11
3.85530E-12 3.45878E-11
4.75964E-12 3.45803E-11
5.75917E-12 3.45721E-11
6.85391E-12 3.45631E-11
8.04379E-12 3.45534E-11
9.32893E-12 3.45428E-11
1.07092E-11 3.45315E-11
1.21847E-11 3.45194E-11
1.37554E-11 3.45066E-11
1.54213E-11 3.44929E-11
1.71823E-11 3.44786E-11
1.90386E-11 3.44634E-11
2.09900E-11 3.44475E-11
2.30367E-11 3.44308E-11
2.51785E-11 3.44133E-11
2.74156E-11 3.43951E-11
2.97478E-11 3.43761E-11
3.21752E-11 3.43564E-11
3.46979E-11 3.43359E-11
3.73157E-11 3.43147E-11
4.00286E-11 3.42927E-11
4.28368E-11 3.42700E-11
4.57402E-11 3.42465E-11
4.87388E-11 3.42223E-11
5.18325E-11 3.41973E-11
5.50215E-11 3.41716E-11
5.83057E-11 3.41452E-11
6.16850E-11 3.41180E-11
6.51595E-11 3.40901E-11
6.87293E-11 3.40615E-11
7.23943E-11 3.40322E-11
7.61544E-11 3.40022E-11
1.18991E-10 3.36628E-11
1.71347E-10 3.32556E-11
2.33223E-10 3.27845E-11
3.04617E-10 3.22544E-11
3.85531E-10 3.16704E-11
4.75965E-10 3.10381E-11
5.75917E-10 3.03630E-11
6.85389E-10 2.96512E-11
8.04380E-10 2.89149E-11
9.32891E-10 2.81490E-11
1.07092E-09 2.73559E-11
1.21847E-09 2.65599E-11
1.37554E-09 2.57525E-11
1.54213E-09 2.49318E-11
1.71823E-09 2.41231E-11
1.90386E-09 2.33175E-11
2.09900E-09 2.25098E-11
2.30367E-09 2.17245E-11
2.51785E-09 2.09534E-11
2.74156E-09 2.01883E-11
2.97478E-09 1.94514E-11
3.21752E-09 1.87364E-11
3.46978E-09 1.80327E-11
3.73156E-09 1.73591E-11
4.00286E-09 1.67118E-11
4.28368E-09 1.60786E-11
4.57402E-09 1.54748E-11
4.87388E-09 1.48989E-11
5.18326E-09 1.43383E-11
5.50215E-09 1.38046E-11
5.83057E-09 1.32985E-11
6.16850E-09 1.28076E-11
6.51596E-09 1.23403E-11
6.87293E-09 1.18989E-11
7.23942E-09 1.14719E-11
7.61544E-09 1.10651E-11
1.18991E-08 7.91114E-12
1.71347E-08 5.89747E-12
2.33223E-08 4.53843E-12
3.04617E-08 3.56536E-12
3.85531E-08 2.83927E-12
4.75965E-08 2.28378E-12
5.75917E-08 1.85238E-12
6.85389E-08 1.51430E-12
8.04380E-08 1.23697E-12
9.32891E-08 1.02622E-12
1.07092E-07 8.66040E-13
1.21847E-07 7.29269E-13
1.37554E-07 6.19321E-13
1.54213E-07 5.32683E-13
1.71823E-07 4.58247E-13
1.90386E-07 3.96585E-13
2.09900E-07 3.46571E-13
2.30367E-07 3.02959E-13
2.51785E-07 2.65864E-13
2.74156E-07 2.35093E-13
2.97478E-07 2.07958E-13
3.21752E-07 1.84393E-13
3.46978E-07 1.64495E-13
3.73156E-07 1.46854E-13
4.00286E-07 1.31307E-13
4.28368E-07 1.17987E-13
4.57402E-07 1.06153E-13
4.87388E-07 9.56218E-14
5.18325E-07 8.64881E-14
5.50215E-07 7.83583E-14
5.83057E-07 7.10777E-14
6.16850E-07 6.46948E-14
6.51596E-07 5.89982E-14
6.87293E-07 5.38714E-14
7.23942E-07 4.93339E-14
7.61543E-07 4.52681E-14
1.18991E-06 2.11082E-14
1.71347E-06 1.13366E-14
2.33223E-06 6.66051E-15
3.04617E-06 4.16102E-15
3.85531E-06 2.71941E-15
4.75964E-06 1.84546E-15
5.75916E-06 1.29449E-15
6.85388E-06 9.34052E-16
8.04378E-06 6.90637E-16
9.32888E-06 5.22156E-16
1.07092E-05 4.02298E-16
1.21846E-05 3.15086E-16
1.37553E-05 2.50352E-16
1.54212E-05 2.01410E-16
1.71822E-05 1.63900E-16
1.90385E-05 1.34693E-16
2.09899E-05 1.11806E-16
2.30365E-05 9.35689E-17
2.51783E-05 7.88715E-17
2.74153E-05 6.69311E-17
2.97475E-05 5.71588E-17
3.21749E-05 4.91037E-17
3.46974E-05 4.24193E-17
3.73152E-05 3.68356E-17
4.00281E-05 3.21395E-17
4.28362E-05 2.81689E-17
4.57395E-05 2.47922E-17
4.87380E-05 2.19049E-17
5.18317E-05 1.94243E-17
5.50205E-05 1.72832E-17
5.83045E-05 1.54282E-17
6.16838E-05 1.38156E-17
6.51582E-05 1.24086E-17
6.87277E-05 1.11766E-17
7.23925E-05 1.00941E-17
7.61524E-05 9.13974E-18
9.21439E-05 6.28467E-18
1.09658E-04 4.46259E-18
1.28695E-04 3.25638E-18
1.49255E-04 2.43175E-18
1.71338E-04 1.85279E-18
1.94942E-04 1.43650E-18
2.20070E-04 1.13098E-18
2.46720E-04 9.02640E-19
2.74892E-04 7.29182E-19
3.04586E-04 5.95521E-19
3.35803E-04 4.91160E-19
3.68542E-04 4.08719E-19
4.02802E-04 3.42893E-19
4.38585E-04 2.89817E-19
4.75889E-04 2.46638E-19
5.14715E-04 2.11219E-19
5.55063E-04 1.81945E-19
5.96931E-04 1.57579E-19
6.40321E-04 1.37164E-19
6.85233E-04 1.19957E-19
7.31665E-04 1.05369E-19
7.79618E-04 9.29374E-20
8.29092E-04 8.22893E-20
8.80086E-04 7.31267E-20
9.32601E-04 6.52075E-20
9.86636E-04 5.83339E-20
1.04219E-03 5.23449E-20
1.09927E-03 4.71071E-20
1.15786E-03 4.25099E-20
1.21797E-03 3.84617E-20
1.27961E-03 3.48855E-20
1.34276E-03 3.17166E-20
1.40743E-03 2.89006E-20
1.47362E-03 2.63914E-20
1.54133E-03 2.41495E-20
1.61056E-03 2.21415E-20
1.68131E-03 2.03388E-20
1.75357E-03 1.87165E-20
1.82735E-03 1.72534E-20
1.90265E-03 1.59310E-20
1.97947E-03 1.47335E-20
2.05780E-03 1.36469E-20
2.13765E-03 1.26591E-20
2.21902E-03 1.17595E-20
2.30190E-03 1.09387E-20
2.38630E-03 1.01887E-20
2.47222E-03 9.50217E-21
2.55965E-03 8.87279E-21
2.64859E-03 8.29494E-21
2.73905E-03 7.76362E-21
2.83103E-03 7.27440E-21
2.92452E-03 6.82333E-21
3.01952E-03 6.40688E-21
3.11604E-03 6.02191E-21
3.21407E-03 5.66559E-21
3.31362E-03 5.33540E-21
3.41468E-03 5.02906E-21
3.51725E-03 4.74454E-21
3.62133E-03 4.47998E-21
3.72692E-03 4.23373E-21
3.83403E-03 4.00429E-21
3.94265E-03 3.79028E-21
4.05278E-03 3.59048E-21
4.16442E-03 3.40377E-21
4.27757E-03 3.22912E-21
4.39223E-03 3.06562E-21
4.50840E-03 2.91241E-21
4.62608E-03 2.76872E-21
4.74527E-03 2.63385E-21
4.86597E-03 2.50716E-21
4.98817E-03 2.38806E-21
5.11188E-03 2.27600E-21
5.23711E-03 2.17050E-21
5.36383E-03 2.07108E-21
5.49207E-03 1.97735E-21
5.62181E-03 1.88890E-21
5.75306E-03 1.80538E-21
5.88581E-03 1.72647E-21
6.02007E-03 1.65186E-21
6.15583E-03 1.58127E-21
6.29310E-03 1.51445E-21
6.43187E-03 1.45115E-21
6.57214E-03 1.39116E-21
6.71392E-03 1.33427E-21
6.85720E-03 1.28028E-21
7.00198E-03 1.22902E-21
7.14827E-03 1.18032E-21
7.29605E-03 1.13404E-21
7.44534E-03 1.09003E-21
7.59612E-03 1.04815E-21
7.97965E-03 9.52006E-22
8.37255E-03 8.66747E-22
8.77480E-03 7.90914E-22
9.18641E-03 7.23279E-22
9.60736E-03 6.62797E-22
1.00376E-02 6.08574E-22
1.04773E-02 5.59844E-22
1.09262E-02 5.15948E-22
1.13844E-02 4.76320E-22
1.18520E-02 4.40469E-22
1.23288E-02 4.07968E-22
1.28150E-02 3.78445E-22
1.33104E-02 3.51577E-22
1.38150E-02 3.27082E-22
1.43290E-02 3.04710E-22
1.48521E-02 2.84242E-22
1.53845E-02 2.65487E-22
1.59262E-02 2.48274E-22
1.64770E-02 2.32452E-22
1.70371E-02 2.17887E-22
1.76063E-02 2.04460E-22
1.81848E-02 1.92067E-22
1.87724E-02 1.80611E-22
1.93692E-02 1.70009E-22
1.99751E-02 1.60184E-22
2.05901E-02 1.51070E-22
2.12143E-02 1.42603E-22
2.18476E-02 1.34730E-22
2.24900E-02 1.27401E-22
2.31415E-02 1.20571E-22
2.38021E-02 1.14199E-22
2.44717E-02 1.08249E-22
2.51504E-02 1.02688E-22
2.58382E-02 9.74840E-23
2.65349E-02 9.26106E-23
2.72407E-02 8.80426E-23
2.79555E-02 8.37573E-23
2.86793E-02 7.97335E-23
2.94120E-02 7.59519E-23
3.01537E-02 7.23954E-23
3.09043E-02 6.90482E-23
3.16639E-02 6.58947E-23
3.24324E-02 6.29221E-23
3.32098E-02 6.01181E-23
3.39961E-02 5.74707E-23
3.47912E-02 5.49697E-23
3.55952E-02 5.26055E-23
3.64081E-02 5.03689E-23
3.72297E-02 4.82517E-23
3.80602E-02 4.62464E-23
3.88995E-02 4.43458E-23
3.97476E-02 4.25432E-23
4.06044E-02 4.08327E-23
4.14700E-02 3.92087E-23
4.23443E-02 3.76658E-23
4.32273E-02 3.61991E-23
4.41190E-02 3.48043E-23
4.50194E-02 3.34770E-23
4.59284E-02 3.22133E-23
4.68461E-02 3.10095E-23
4.87074E-02 2.87683E-23
5.06030E-02 2.67288E-23
5.25328E-02 2.48693E-23
5.44967E-02 2.31708E-23
5.64946E-02 2.16167E-23
5.85262E-02 2.01925E-23
6.05914E-02 1.88850E-23
6.26901E-02 1.76830E-23
6.48222E-02 1.65762E-23
6.69873E-02 1.55556E-23
6.91854E-02 1.46133E-23
7.14163E-02 1.37420E-23
7.36799E-02 1.29352E-23
7.59760E-02 1.21873E-23
7.83043E-02 1.14933E-23
8.06647E-02 1.08483E-23
8.30571E-02 1.02483E-23
8.54812E-02 9.68960E-24
8.79369E-02 9.16869E-24
9.04240E-02 8.68254E-24
9.29422E-02 8.22839E-24
9.54915E-02 7.80371E-24
9.80716E-02 7.40620E-24
1.00682E-01 7.03379E-24
1.03323E-01 6.68457E-24
1.05995E-01 6.35683E-24
1.08696E-01 6.04896E-24
1.11427E-01 5.75955E-24
1.14188E-01 5.48724E-24
1.16978E-01 5.23085E-24
1.19797E-01 4.98924E-24
1.22645E-01 4.76141E-24
1.25522E-01 4.54640E-24
1.28428E-01 4.34336E-24
1.31361E-01 4.15149E-24
1.34323E-01 3.97005E-24
1.37313E-01 3.79836E-24
1.40330E-01 3.63580E-24
1.43375E-01 3.48178E-24
1.46447E-01 3.33577E-24
1.49545E-01 3.19726E-24
1.52671E-01 3.06581E-24
1.55823E-01 2.94097E-24
1.59001E-01 2.82234E-24
1.62205E-01 2.70957E-24
1.65435E-01 2.60230E-24
1.68690E-01 2.50021E-24
1.71970E-01 2.40301E-24
1.75276E-01 2.31041E-24
1.78606E-01 2.22215E-24
1.81961E-01 2.13799E-24
1.85340E-01 2.05771E-24
1.88743E-01 1.98108E-24
1.92169E-01 1.90792E-24
1.95619E-01 1.83803E-24
1.99092E-01 1.77123E-24
2.02589E-01 1.70738E-24
2.06107E-01 1.64630E-24
2.09649E-01 1.58786E-24
2.13212E-01 1.53192E-24
2.16797E-01 1.47836E-24
2.20404E-01 1.42705E-24
2.24032E-01 1.37788E-24
2.27680E-01 1.33074E-24
2.31350E-01 1.28554E-24
2.35040E-01 1.24217E-24
2.38751E-01 1.20056E-24
2.42481E-01 1.16062E-24
2.46231E-01 1.12226E-24
2.50000E-01 1.08541E-24
2.53788E-01 1.05001E-24
2.57595E-01 1.01598E-24
2.61421E-01 9.83263E-25
2.65264E-01 9.51796E-25
2.69126E-01 9.21524E-25
2.73005E-01 8.92393E-25
2.76901E-01 8.64351E-25
2.80814E-01 8.37351E-25
2.84744E-01 8.11346E-25
2.88691E-01 7.86294E-25
2.92653E-01 7.62153E-25
2.96632E-01 7.38884E-25
3.00625E-01 7.16449E-25
3.04634E-01 6.94814E-25
3.08658E-01 6.73944E-25
3.12697E-01 6.53808E-25
3.16749E-01 6.34375E-25
3.20816E-01 6.15617E-25
3.24896E-01 5.97505E-25
3.28990E-01 5.80013E-25
3.33097E-01 5.63117E-25
3.37216E-01 5.46792E-25
3.41348E-01 5.31016E-25
3.45492E-01 5.15768E-25
3.49647E-01 5.01025E-25
3.53814E-01 4.86769E-25
3.57992E-01 4.72981E-25
3.62181E-01 4.59643E-25
3.66381E-01 4.46737E-25
3.70590E-01 4.34247E-25
3.74810E-01 4.22158E-25
3.79039E-01 4.10454E-25
3.83277E-01 3.99120E-25
3.87524E-01 3.88144E-25
3.91780E-01 3.77512E-25
3.96044E-01 3.67212E-25
4.00316E-01 3.57230E-25
4.04596E-01 3.47557E-25
4.08882E-01 3.38180E-25
4.13176E-01 3.29089E-25
4.17476E-01 3.20274E-25
4.21783E-01 3.11726E-25
4.26095E-01 3.03434E-25
4.30413E-01 2.95390E-25
4.34737E-01 2.87585E-25
4.39065E-01 2.80011E-25
4.43398E-01 2.72660E-25
4.47736E-01 2.65524E-25
4.52077E-01 2.58596E-25
4.56422E-01 2.51870E-25
4.60770E-01 2.45337E-25
4.65122E-01 2.38992E-25
4.69476E-01 2.32829E-25
4.73832E-01 2.26841E-25
4.78190E-01 2.21023E-25
4.82550E-01 2.15369E-25
4.86912E-01 2.09874E-25
4.91274E-01 2.04533E-25
4.95637E-01 1.99340E-25
5.00000E-01 1.94291E-25
5.04363E-01 1.89381E-25
5.08726E-01 1.84606E-25
5.13088E-01 1.79962E-25
5.17450E-01 1.75444E-25
5.21810E-01 1.71049E-25
5.26168E-01 1.66773E-25
5.30524E-01 1.62611E-25
5.34878E-01 1.58562E-25
5.39230E-01 1.54620E-25
5.43578E-01 1.50783E-25
5.47923E-01 1.47047E-25
5.52264E-01 1.43410E-25
5.56602E-01 1.39868E-25
5.60935E-01 1.36420E-25
5.65263E-01 1.33061E-25
5.69587E-01 1.29789E-25
5.73905E-01 1.26602E-25
5.78217E-01 1.23497E-25
5.82524E-01 1.20471E-25
5.86824E-01 1.17524E-25
5.91118E-01 1.14651E-25
5.95404E-01 1.11851E-25
5.99684E-01 1.09122E-25
6.03956E-01 1.06462E-25
6.08220E-01 1.03869E-25
6.12476E-01 1.01341E-25
6.16723E-01 9.88754E-26
6.20961E-01 9.64716E-26
6.25190E-01 9.41274E-26
6.29410E-01 9.18411E-26
6.33619E-01 8.96112E-26
6.37819E-01 8.74360E-26
6.42008E-01 8.53140E-26
6.46186E-01 8.32439E-26
6.50353E-01 8.12241E-26
6.54508E-01 7.92533E-26
6.58652E-01 7.73302E-26
6.62784E-01 7.54534E-26
6.66903E-01 7.36218E-26
6.71010E-01 7.18340E-26
6.75104E-01 7.00890E-26
6.79184E-01 6.83855E-26
6.83251E-01 6.67226E-26
6.87303E-01 6.50990E-26
6.91342E-01 6.35139E-26
6.95366E-01 6.19661E-26
6.99375E-01 6.04547E-26
7.03368E-01 5.89787E-26
7.07347E-01 5.75373E-26
7.11309E-01 5.61295E-26
7.15256E-01 5.47544E-26
7.19186E-01 5.34113E-26
7.23099E-01 5.20993E-26
7.26995E-01 5.08177E-26
7.30874E-01 4.95655E-26
7.34736E-01 4.83422E-26
7.38579E-01 4.71470E-26
7.42405E-01 4.59792E-26
7.46212E-01 4.48380E-26
7.50000E-01 4.37229E-26
7.53769E-01 4.26332E-26
7.57519E-01 4.15682E-26
7.61249E-01 4.05274E-26
7.64960E-01 3.95101E-26
7.68650E-01 3.85159E-26
7.72320E-01 3.75441E-26
7.75968E-01 3.65941E-26
7.79596E-01 3.56656E-26
7.83203E-01 3.47578E-26
7.86788E-01 3.38705E-26
7.90351E-01 3.30029E-26
7.93893E-01 3.21548E-26
7.97411E-01 3.13257E-26
8.00908E-01 3.05150E-26
8.04381E-01 2.97224E-26
8.07831E-01 2.89474E-26
8.11257E-01 2.81896E-26
8.14660E-01 2.74487E-26
8.18039E-01 2.67242E-26
8.21394E-01 2.60158E-26
8.24724E-01 2.53231E-26
8.28030E-01 2.46457E-26
8.31310E-01 2.39833E-26
8.34565E-01 2.33356E-26
8.37795E-01 2.27022E-26
8.40999E-01 2.20828E-26
8.44177E-01 2.14771E-26
8.47329E-01 2.08848E-26
8.50455E-01 2.03056E-26
8.53553E-01 1.97392E-26
8.56625E-01 1.91853E-26
8.59670E-01 1.86437E-26
8.62687E-01 1.81141E-26
8.65677E-01 1.75962E-26
8.68639E-01 1.70898E-26
8.71572E-01 1.65947E-26
8.74478E-01 1.61105E-26
8.77355E-01 1.56371E-26
8.80203E-01 1.51743E-26
8.83022E-01 1.47217E-26
8.85812E-01 1.42793E-26
8.88573E-01 1.38468E-26
8.91304E-01 1.34240E-26
8.94005E-01 1.30107E-26
8.96677E-01 1.26067E-26
8.99318E-01 1.22119E-26
9.01928E-01 1.18259E-26
9.04508E-01 1.14488E-26
9.07058E-01 1.10802E-26
9.09576E-01 1.07200E-26
9.12063E-01 1.03681E-26
9.14519E-01 1.00244E-26
9.16943E-01 9.68851E-27
9.19335E-01 9.36045E-27
9.21696E-01 9.04005E-27
9.24024E-01 8.72714E-27
9.26320E-01 8.42160E-27
9.28584E-01 8.12330E-27
9.30815E-01 7.83208E-27
9.33013E-01 7.54784E-27
9.35178E-01 7.27044E-27
9.37310E-01 6.99977E-27
9.39409E-01 6.73570E-27
9.41474E-01 6.47812E-27
9.43505E-01 6.22692E-27
9.45503E-01 5.98199E-27
9.47467E-01 5.74322E-27
9.49397E-01 5.51052E-27
9.51293E-01 5.28377E-27
9.53154E-01 5.06289E-27
9.54981E-01 4.84779E-27
9.56773E-01 4.63836E-27
9.58530E-01 4.43453E-27
9.60252E-01 4.23619E-27
9.61940E-01 4.04329E-27
9.63592E-01 3.85572E-27
9.65209E-01 3.67341E-27
9.66790E-01 3.49628E-27
9.68336E-01 3.32427E-27
9.69846E-01 3.15730E-27
9.71321E-01 2.99530E-27
9.72759E-01 2.83820E-27
9.74162E-01 2.68594E-27
9.75528E-01 2.53845E-27
9.76858E-01 2.39568E-27
9.78152E-01 2.25756E-27
9.79410E-01 2.12405E-27
9.80631E-01 1.99508E-27
9.81815E-01 1.87059E-27
9.82963E-01 1.75055E-27
9.84074E-01 1.63491E-27
9.85148E-01 1.52360E-27
9.86185E-01 1.41660E-27
9.87185E-01 1.31385E-27
9.88148E-01 1.21532E-27
9.89074E-01 1.12096E-27
9.89962E-01 1.03074E-27
9.90814E-01 9.44617E-28
9.91627E-01 8.62561E-28
9.92404E-01 7.84539E-28
9.93143E-01 7.10517E-28
9.93844E-01 6.40467E-28
9.94508E-01 5.74361E-28
9.95134E-01 5.12172E-28
9.95722E-01 4.53875E-28
9.96273E-01 3.99447E-28
9.96786E-01 3.48867E-28
9.97261E-01 3.02113E-28
9.97698E-01 2.59168E-28
9.98097E-01 2.20014E-28
9.98459E-01 1.84636E-28
9.98782E-01 1.53019E-28
9.99067E-01 1.25152E-28
9.99315E-01 1.01023E-28
9.99524E-01 8.06215E-29
9.99695E-01 6.39408E-29
9.99829E-01 5.09738E-29
9.99924E-01 4.17153E-29
9.99981E-01 3.61617E-29
1.00000E+00 3.43107E-29
