 #
 # Subroutine ELSEPA. Elastic scattering of electrons and positrons
 #                    by neutral atoms and positive ions
 #
 # Projectile: electron
 # Kinetic energy = 2.50000E+08 eV = 9.18733E+06 a.u.
 #
 # WARNING: High-energy factorization with free-atom DF screening.
 #          Absorption, polarization and exchange corrections are
 #          switched off.
 #          Phase shifts are calculated for the bare nucleus.
 #          Scattering amplitudes are not evaluated.
 #
 # Element: Pr,  Z =  59,  atomic weight = 1.40908E+02 g/mol
 #
 # Nuclear model: Fermi distribution
 #                Average radius = 5.56795E-13 cm
 #                Skin thickness = 5.46000E-14 cm
 #
 # Number of electrons = 59
 #
 # Total elastic cross section = 7.27757E-18 cm**2 = 2.59887E-01 a0**2
 # 1st transport cross section = 1.08115E-25 cm**2 = 3.86087E-09 a0**2
 # 2nd transport cross section = 3.23866E-25 cm**2 = 1.15654E-08 a0**2
 #
 #
 # Differential cross section:                       MU=(1-COS(THETA))/2
 #
 #  THETA        MU          DCS          DCS        Sherman      error
 #  (deg)                 (cm**2/sr)   (a0**2/sr)    function
 #----------------------------------------------------------------------
0.00000E+00 6.69730E-09
7.61557E-13 6.46914E-09
1.18994E-12 6.34636E-09
1.71346E-12 6.20141E-09
2.33225E-12 6.03697E-09
3.04617E-12 5.85603E-09
3.85530E-12 5.66218E-09
4.75964E-12 5.45832E-09
5.75917E-12 5.24449E-09
6.85391E-12 5.02939E-09
8.04379E-12 4.80884E-09
9.32893E-12 4.59184E-09
1.07092E-11 4.37454E-09
1.21847E-11 4.16323E-09
1.37554E-11 3.95635E-09
1.54213E-11 3.75642E-09
1.71823E-11 3.56467E-09
1.90386E-11 3.37974E-09
2.09900E-11 3.20560E-09
2.30367E-11 3.03755E-09
2.51785E-11 2.88178E-09
2.74156E-11 2.73171E-09
2.97478E-11 2.59322E-09
3.21752E-11 2.46100E-09
3.46979E-11 2.33824E-09
3.73157E-11 2.22238E-09
4.00286E-11 2.11409E-09
4.28368E-11 2.01283E-09
4.57402E-11 1.91755E-09
4.87388E-11 1.82904E-09
5.18325E-11 1.74528E-09
5.50215E-11 1.66776E-09
5.83057E-11 1.59416E-09
6.16850E-11 1.52594E-09
6.51595E-11 1.46128E-09
6.87293E-11 1.40082E-09
7.23943E-11 1.34373E-09
7.61544E-11 1.28999E-09
1.18991E-10 8.87301E-10
1.71347E-10 6.36173E-10
2.33223E-10 4.67119E-10
3.04617E-10 3.48721E-10
3.85531E-10 2.63266E-10
4.75965E-10 2.01543E-10
5.75917E-10 1.59282E-10
6.85389E-10 1.25677E-10
8.04380E-10 1.01710E-10
9.32891E-10 8.25768E-11
1.07092E-09 6.81585E-11
1.21847E-09 5.65657E-11
1.37554E-09 4.73973E-11
1.54213E-09 3.99873E-11
1.71823E-09 3.38950E-11
1.90386E-09 2.89611E-11
2.09900E-09 2.47886E-11
2.30367E-09 2.14001E-11
2.51785E-09 1.84831E-11
2.74156E-09 1.60904E-11
2.97478E-09 1.40283E-11
3.21752E-09 1.23054E-11
3.46978E-09 1.08277E-11
3.73156E-09 9.57072E-12
4.00286E-09 8.49225E-12
4.28368E-09 7.56265E-12
4.57402E-09 6.76194E-12
4.87388E-09 6.06439E-12
5.18326E-09 5.46022E-12
5.50215E-09 4.92877E-12
5.83057E-09 4.46555E-12
6.16850E-09 4.05468E-12
6.51596E-09 3.69360E-12
6.87293E-09 3.37187E-12
7.23942E-09 3.08640E-12
7.61544E-09 2.83099E-12
1.18991E-08 1.31465E-12
1.71347E-08 6.89907E-13
2.33223E-08 3.92935E-13
3.04617E-08 2.39094E-13
3.85531E-08 1.53515E-13
4.75965E-08 1.03148E-13
5.75917E-08 7.19161E-14
6.85389E-08 5.16994E-14
8.04380E-08 3.81304E-14
9.32891E-08 2.87413E-14
1.07092E-07 2.20683E-14
1.21847E-07 1.72227E-14
1.37554E-07 1.36355E-14
1.54213E-07 1.09337E-14
1.71823E-07 8.86782E-15
1.90386E-07 7.26645E-15
2.09900E-07 6.00993E-15
2.30367E-07 5.01269E-15
2.51785E-07 4.21353E-15
2.74156E-07 3.56718E-15
2.97478E-07 3.03997E-15
3.21752E-07 2.60653E-15
3.46978E-07 2.24758E-15
3.73156E-07 1.94829E-15
4.00286E-07 1.69714E-15
4.28368E-07 1.48516E-15
4.57402E-07 1.30527E-15
4.87388E-07 1.15181E-15
5.18325E-07 1.02026E-15
5.50215E-07 9.06973E-16
5.83057E-07 8.08988E-16
6.16850E-07 7.23886E-16
6.51596E-07 6.49689E-16
6.87293E-07 5.84767E-16
7.23942E-07 5.27760E-16
7.61543E-07 4.77539E-16
1.18991E-06 1.97621E-16
1.71347E-06 9.59839E-17
2.33223E-06 5.20730E-17
3.04617E-06 3.06370E-17
3.85531E-06 1.91790E-17
4.75964E-06 1.26097E-17
5.75916E-06 8.62661E-18
6.85388E-06 6.09889E-18
8.04378E-06 4.43263E-18
9.32888E-06 3.29841E-18
1.07092E-05 2.50481E-18
1.21846E-05 1.93614E-18
1.37553E-05 1.52007E-18
1.54212E-05 1.21000E-18
1.71822E-05 9.75114E-19
1.90385E-05 7.94247E-19
2.09899E-05 6.53967E-19
2.30365E-05 5.43278E-19
2.51783E-05 4.54960E-19
2.74153E-05 3.83812E-19
2.97475E-05 3.26011E-19
3.21749E-05 2.78691E-19
3.46974E-05 2.39673E-19
3.73152E-05 2.07274E-19
4.00281E-05 1.80188E-19
4.28362E-05 1.57394E-19
4.57395E-05 1.38095E-19
4.87380E-05 1.21660E-19
5.18317E-05 1.07594E-19
5.50205E-05 9.54991E-20
5.83045E-05 8.50556E-20
6.16838E-05 7.60029E-20
6.51582E-05 6.81257E-20
6.87277E-05 6.12457E-20
7.23925E-05 5.52150E-20
7.61524E-05 5.01019E-20
9.21439E-05 3.42683E-20
1.09658E-04 2.42275E-20
1.28695E-04 1.76140E-20
1.49255E-04 1.31118E-20
1.71338E-04 9.96243E-21
1.94942E-04 7.70493E-21
2.20070E-04 6.05277E-21
2.46720E-04 4.82105E-21
2.74892E-04 3.88746E-21
3.04586E-04 3.16950E-21
3.35803E-04 2.60994E-21
3.68542E-04 2.16864E-21
4.02802E-04 1.81675E-21
4.38585E-04 1.53341E-21
4.75889E-04 1.30319E-21
5.14715E-04 1.11455E-21
5.55063E-04 9.58802E-22
5.96931E-04 8.29288E-22
6.40321E-04 7.20877E-22
6.85233E-04 6.29572E-22
7.31665E-04 5.52230E-22
7.79618E-04 4.86367E-22
8.29092E-04 4.29996E-22
8.80086E-04 3.81522E-22
9.32601E-04 3.39653E-22
9.86636E-04 3.03339E-22
1.04219E-03 2.71719E-22
1.09927E-03 2.44083E-22
1.15786E-03 2.19844E-22
1.21797E-03 1.98514E-22
1.27961E-03 1.79683E-22
1.34276E-03 1.63010E-22
1.40743E-03 1.48205E-22
1.47362E-03 1.35023E-22
1.54133E-03 1.23254E-22
1.61056E-03 1.12723E-22
1.68131E-03 1.03275E-22
1.75357E-03 9.47810E-23
1.82735E-03 8.71276E-23
1.90265E-03 8.02174E-23
1.97947E-03 7.39658E-23
2.05780E-03 6.82991E-23
2.13765E-03 6.31534E-23
2.21902E-03 5.84724E-23
2.30190E-03 5.42070E-23
2.38630E-03 5.03139E-23
2.47222E-03 4.67551E-23
2.55965E-03 4.34969E-23
2.64859E-03 4.05097E-23
2.73905E-03 3.77670E-23
2.83103E-03 3.52454E-23
2.92452E-03 3.29241E-23
3.01952E-03 3.07845E-23
3.11604E-03 2.88099E-23
3.21407E-03 2.69855E-23
3.31362E-03 2.52978E-23
3.41468E-03 2.37350E-23
3.51725E-03 2.22863E-23
3.62133E-03 2.09419E-23
3.72692E-03 1.96930E-23
3.83403E-03 1.85319E-23
3.94265E-03 1.74512E-23
4.05278E-03 1.64444E-23
4.16442E-03 1.55058E-23
4.27757E-03 1.46299E-23
4.39223E-03 1.38119E-23
4.50840E-03 1.30473E-23
4.62608E-03 1.23320E-23
4.74527E-03 1.16624E-23
4.86597E-03 1.10351E-23
4.98817E-03 1.04469E-23
5.11188E-03 9.89514E-24
5.23711E-03 9.37710E-24
5.36383E-03 8.89042E-24
5.49207E-03 8.43291E-24
5.62181E-03 8.00255E-24
5.75306E-03 7.59747E-24
5.88581E-03 7.21596E-24
6.02007E-03 6.85644E-24
6.15583E-03 6.51746E-24
6.29310E-03 6.19765E-24
6.43187E-03 5.89578E-24
6.57214E-03 5.61069E-24
6.71392E-03 5.34130E-24
6.85720E-03 5.08663E-24
7.00198E-03 4.84575E-24
7.14827E-03 4.61780E-24
7.29605E-03 4.40200E-24
7.44534E-03 4.19761E-24
7.59612E-03 4.00392E-24
7.97965E-03 3.56249E-24
8.37255E-03 3.17526E-24
8.77480E-03 2.83473E-24
9.18641E-03 2.53458E-24
9.60736E-03 2.26946E-24
1.00376E-02 2.03479E-24
1.04773E-02 1.82667E-24
1.09262E-02 1.64177E-24
1.13844E-02 1.47720E-24
1.18520E-02 1.33050E-24
1.23288E-02 1.19952E-24
1.28150E-02 1.08241E-24
1.33104E-02 9.77546E-25
1.38150E-02 8.83536E-25
1.43290E-02 7.99150E-25
1.48521E-02 7.23314E-25
1.53845E-02 6.55087E-25
1.59262E-02 5.93643E-25
1.64770E-02 5.38253E-25
1.70371E-02 4.88275E-25
1.76063E-02 4.43140E-25
1.81848E-02 4.02347E-25
1.87724E-02 3.65450E-25
1.93692E-02 3.32052E-25
1.99751E-02 3.01802E-25
2.05901E-02 2.74385E-25
2.12143E-02 2.49522E-25
2.18476E-02 2.26962E-25
2.24900E-02 2.06482E-25
2.31415E-02 1.87881E-25
2.38021E-02 1.70980E-25
2.44717E-02 1.55617E-25
2.51504E-02 1.41647E-25
2.58382E-02 1.28940E-25
2.65349E-02 1.17378E-25
2.72407E-02 1.06855E-25
2.79555E-02 9.72758E-26
2.86793E-02 8.85534E-26
2.94120E-02 8.06101E-26
3.01537E-02 7.33751E-26
3.09043E-02 6.67845E-26
3.16639E-02 6.07804E-26
3.24324E-02 5.53101E-26
3.32098E-02 5.03261E-26
3.39961E-02 4.57850E-26
3.47912E-02 4.16476E-26
3.55952E-02 3.78779E-26
3.64081E-02 3.44437E-26
3.72297E-02 3.13152E-26
3.80602E-02 2.84655E-26
3.88995E-02 2.58701E-26
3.97476E-02 2.35067E-26
4.06044E-02 2.13549E-26
4.14700E-02 1.93962E-26
4.23443E-02 1.76135E-26
4.32273E-02 1.59915E-26
4.41190E-02 1.45160E-26
4.50194E-02 1.31741E-26
4.59284E-02 1.19542E-26
4.68461E-02 1.08455E-26
4.87074E-02 8.92317E-27
5.06030E-02 7.33854E-27
5.25328E-02 6.03430E-27
5.44967E-02 4.96259E-27
5.64946E-02 4.08350E-27
5.85262E-02 3.36372E-27
6.05914E-02 2.77546E-27
6.26901E-02 2.29558E-27
6.48222E-02 1.90480E-27
6.69873E-02 1.58712E-27
6.91854E-02 1.32923E-27
7.14163E-02 1.12010E-27
7.36799E-02 9.50636E-28
7.59760E-02 8.13303E-28
7.83043E-02 7.01917E-28
8.06647E-02 6.11402E-28
8.30571E-02 5.37606E-28
8.54812E-02 4.77148E-28
8.79369E-02 4.27285E-28
9.04240E-02 3.85804E-28
9.29422E-02 3.50926E-28
9.54915E-02 3.21233E-28
9.80716E-02 2.95601E-28
1.00682E-01 2.73143E-28
1.03323E-01 2.53170E-28
1.05995E-01 2.35149E-28
1.08696E-01 2.18673E-28
1.11427E-01 2.03436E-28
1.14188E-01 1.89209E-28
1.16978E-01 1.75828E-28
1.19797E-01 1.63174E-28
1.22645E-01 1.51166E-28
1.25522E-01 1.39749E-28
1.28428E-01 1.28888E-28
1.31361E-01 1.18560E-28
1.34323E-01 1.08754E-28
1.37313E-01 9.94625E-29
1.40330E-01 9.06817E-29
1.43375E-01 8.24088E-29
1.46447E-01 7.46406E-29
1.49545E-01 6.73725E-29
1.52671E-01 6.05980E-29
1.55823E-01 5.43083E-29
1.59001E-01 4.84925E-29
1.62205E-01 4.31370E-29
1.65435E-01 3.82263E-29
1.68690E-01 3.37428E-29
1.71970E-01 2.96673E-29
1.75276E-01 2.59794E-29
1.78606E-01 2.26574E-29
1.81961E-01 1.96791E-29
1.85340E-01 1.70218E-29
1.88743E-01 1.46626E-29
1.92169E-01 1.25788E-29
1.95619E-01 1.07481E-29
1.99092E-01 9.14867E-30
2.02589E-01 7.75944E-30
2.06107E-01 6.56019E-30
2.09649E-01 5.53165E-30
2.13212E-01 4.65563E-30
2.16797E-01 3.91506E-30
2.20404E-01 3.29401E-30
2.24032E-01 2.77772E-30
2.27680E-01 2.35263E-30
2.31350E-01 2.00633E-30
2.35040E-01 1.72753E-30
2.38751E-01 1.50606E-30
2.42481E-01 1.33279E-30
2.46231E-01 1.19960E-30
2.50000E-01 1.09928E-30
2.53788E-01 1.02555E-30
2.57595E-01 9.72913E-31
2.61421E-01 9.36632E-31
2.65264E-01 9.12664E-31
2.69126E-01 8.97590E-31
2.73005E-01 8.88556E-31
2.76901E-01 8.83212E-31
2.80814E-01 8.79658E-31
2.84744E-01 8.76390E-31
2.88691E-01 8.72249E-31
2.92653E-01 8.66373E-31
2.96632E-01 8.58160E-31
3.00625E-01 8.47221E-31
3.04634E-01 8.33349E-31
3.08658E-01 8.16487E-31
3.12697E-01 7.96694E-31
3.16749E-01 7.74127E-31
3.20816E-01 7.49014E-31
3.24896E-01 7.21635E-31
3.28990E-01 6.92305E-31
3.33097E-01 6.61359E-31
3.37216E-01 6.29145E-31
3.41348E-01 5.96005E-31
3.45492E-01 5.62276E-31
3.49647E-01 5.28277E-31
3.53814E-01 4.94309E-31
3.57992E-01 4.60646E-31
3.62181E-01 4.27538E-31
3.66381E-01 3.95206E-31
3.70590E-01 3.63842E-31
3.74810E-01 3.33610E-31
3.79039E-01 3.04645E-31
3.83277E-01 2.77057E-31
3.87524E-01 2.50928E-31
3.91780E-01 2.26317E-31
3.96044E-01 2.03261E-31
4.00316E-01 1.81777E-31
4.04596E-01 1.61862E-31
4.08882E-01 1.43501E-31
4.13176E-01 1.26661E-31
4.17476E-01 1.11299E-31
4.21783E-01 9.73623E-32
4.26095E-01 8.47896E-32
4.30413E-01 7.35132E-32
4.34737E-01 6.34603E-32
4.39065E-01 5.45550E-32
4.43398E-01 4.67193E-32
4.47736E-01 3.98741E-32
4.52077E-01 3.39404E-32
4.56422E-01 2.88404E-32
4.60770E-01 2.44979E-32
4.65122E-01 2.08391E-32
4.69476E-01 1.77931E-32
4.73832E-01 1.52925E-32
4.78190E-01 1.32734E-32
4.82550E-01 1.16760E-32
4.86912E-01 1.04442E-32
4.91274E-01 9.52653E-33
4.95637E-01 8.87536E-33
5.00000E-01 8.44730E-33
5.04363E-01 8.20303E-33
5.08726E-01 8.10717E-33
5.13088E-01 8.12813E-33
5.17450E-01 8.23795E-33
5.21810E-01 8.41210E-33
5.26168E-01 8.62926E-33
5.30524E-01 8.87114E-33
5.34878E-01 9.12219E-33
5.39230E-01 9.36947E-33
5.43578E-01 9.60231E-33
5.47923E-01 9.81219E-33
5.52264E-01 9.99247E-33
5.56602E-01 1.01382E-32
5.60935E-01 1.02459E-32
5.65263E-01 1.03135E-32
5.69587E-01 1.03399E-32
5.73905E-01 1.03250E-32
5.78217E-01 1.02695E-32
5.82524E-01 1.01750E-32
5.86824E-01 1.00433E-32
5.91118E-01 9.87690E-33
5.95404E-01 9.67843E-33
5.99684E-01 9.45089E-33
6.03956E-01 9.19736E-33
6.08220E-01 8.92105E-33
6.12476E-01 8.62517E-33
6.16723E-01 8.31289E-33
6.20961E-01 7.98733E-33
6.25190E-01 7.65148E-33
6.29410E-01 7.30820E-33
6.33619E-01 6.96019E-33
6.37819E-01 6.60997E-33
6.42008E-01 6.25986E-33
6.46186E-01 5.91199E-33
6.50353E-01 5.56829E-33
6.54508E-01 5.23046E-33
6.58652E-01 4.90002E-33
6.62784E-01 4.57831E-33
6.66903E-01 4.26644E-33
6.71010E-01 3.96535E-33
6.75104E-01 3.67584E-33
6.79184E-01 3.39850E-33
6.83251E-01 3.13380E-33
6.87303E-01 2.88206E-33
6.91342E-01 2.64346E-33
6.95366E-01 2.41810E-33
6.99375E-01 2.20593E-33
7.03368E-01 2.00685E-33
7.07347E-01 1.82064E-33
7.11309E-01 1.64703E-33
7.15256E-01 1.48569E-33
7.19186E-01 1.33624E-33
7.23099E-01 1.19823E-33
7.26995E-01 1.07122E-33
7.30874E-01 9.54716E-34
7.34736E-01 8.48202E-34
7.38579E-01 7.51159E-34
7.42405E-01 6.63059E-34
7.46212E-01 5.83370E-34
7.50000E-01 5.11562E-34
7.53769E-01 4.47114E-34
7.57519E-01 3.89511E-34
7.61249E-01 3.38255E-34
7.64960E-01 2.92858E-34
7.68650E-01 2.52854E-34
7.72320E-01 2.17793E-34
7.75968E-01 1.87246E-34
7.79596E-01 1.60804E-34
7.83203E-01 1.38082E-34
7.86788E-01 1.18715E-34
7.90351E-01 1.02360E-34
7.93893E-01 8.86977E-35
7.97411E-01 7.74298E-35
8.00908E-01 6.82792E-35
8.04381E-01 6.09902E-35
8.07831E-01 5.53270E-35
8.11257E-01 5.10735E-35
8.14660E-01 4.80321E-35
8.18039E-01 4.60234E-35
8.21394E-01 4.48848E-35
8.24724E-01 4.44693E-35
8.28030E-01 4.46458E-35
8.31310E-01 4.52963E-35
8.34565E-01 4.63170E-35
8.37795E-01 4.76155E-35
8.40999E-01 4.91113E-35
8.44177E-01 5.07340E-35
8.47329E-01 5.24230E-35
8.50455E-01 5.41264E-35
8.53553E-01 5.58003E-35
8.56625E-01 5.74079E-35
8.59670E-01 5.89192E-35
8.62687E-01 6.03098E-35
8.65677E-01 6.15608E-35
8.68639E-01 6.26576E-35
8.71572E-01 6.35901E-35
8.74478E-01 6.43514E-35
8.77355E-01 6.49382E-35
8.80203E-01 6.53494E-35
8.83022E-01 6.55867E-35
8.85812E-01 6.56534E-35
8.88573E-01 6.55546E-35
8.91304E-01 6.52967E-35
8.94005E-01 6.48872E-35
8.96677E-01 6.43345E-35
8.99318E-01 6.36476E-35
9.01928E-01 6.28358E-35
9.04508E-01 6.19089E-35
9.07058E-01 6.08767E-35
9.09576E-01 5.97493E-35
9.12063E-01 5.85363E-35
9.14519E-01 5.72475E-35
9.16943E-01 5.58923E-35
9.19335E-01 5.44798E-35
9.21696E-01 5.30186E-35
9.24024E-01 5.15173E-35
9.26320E-01 4.99837E-35
9.28584E-01 4.84253E-35
9.30815E-01 4.68492E-35
9.33013E-01 4.52620E-35
9.35178E-01 4.36697E-35
9.37310E-01 4.20781E-35
9.39409E-01 4.04922E-35
9.41474E-01 3.89168E-35
9.43505E-01 3.73562E-35
9.45503E-01 3.58143E-35
9.47467E-01 3.42946E-35
9.49397E-01 3.28000E-35
9.51293E-01 3.13334E-35
9.53154E-01 2.98971E-35
9.54981E-01 2.84931E-35
9.56773E-01 2.71232E-35
9.58530E-01 2.57888E-35
9.60252E-01 2.44911E-35
9.61940E-01 2.32310E-35
9.63592E-01 2.20093E-35
9.65209E-01 2.08264E-35
9.66790E-01 1.96826E-35
9.68336E-01 1.85782E-35
9.69846E-01 1.75130E-35
9.71321E-01 1.64870E-35
9.72759E-01 1.54999E-35
9.74162E-01 1.45512E-35
9.75528E-01 1.36406E-35
9.76858E-01 1.27674E-35
9.78152E-01 1.19311E-35
9.79410E-01 1.11310E-35
9.80631E-01 1.03662E-35
9.81815E-01 9.63615E-36
9.82963E-01 8.93991E-36
9.84074E-01 8.27669E-36
9.85148E-01 7.64566E-36
9.86185E-01 7.04593E-36
9.87185E-01 6.47667E-36
9.88148E-01 5.93702E-36
9.89074E-01 5.42612E-36
9.89962E-01 4.94316E-36
9.90814E-01 4.48729E-36
9.91627E-01 4.05773E-36
9.92404E-01 3.65367E-36
9.93143E-01 3.27437E-36
9.93844E-01 2.91909E-36
9.94508E-01 2.58714E-36
9.95134E-01 2.27786E-36
9.95722E-01 1.99059E-36
9.96273E-01 1.72473E-36
9.96786E-01 1.47973E-36
9.97261E-01 1.25503E-36
9.97698E-01 1.05016E-36
9.98097E-01 8.64655E-37
9.98459E-01 6.98083E-37
9.98782E-01 5.50069E-37
9.99067E-01 4.20281E-37
9.99315E-01 3.08403E-37
9.99524E-01 2.14187E-37
9.99695E-01 1.37403E-37
9.99829E-01 7.78757E-38
9.99924E-01 3.54509E-38
9.99981E-01 1.00398E-38
1.00000E+00 1.56597E-39
