 #
 # Subroutine ELSEPA. Elastic scattering of electrons and positrons
 #                    by neutral atoms and positive ions
 #
 # Projectile: electron
 # Kinetic energy = 2.00000E+07 eV = 7.34987E+05 a.u.
 #
 # WARNING: High-energy factorization with free-atom DF screening.
 #          Absorption, polarization and exchange corrections are
 #          switched off.
 #          Phase shifts are calculated for the bare nucleus.
 #          Scattering amplitudes are not evaluated.
 #
 # Element: Pr,  Z =  59,  atomic weight = 1.40908E+02 g/mol
 #
 # Nuclear model: Fermi distribution
 #                Average radius = 5.56795E-13 cm
 #                Skin thickness = 5.46000E-14 cm
 #
 # Number of electrons = 59
 #
 # Total elastic cross section = 7.28557E-18 cm**2 = 2.60172E-01 a0**2
 # 1st transport cross section = 1.56095E-23 cm**2 = 5.57426E-07 a0**2
 # 2nd transport cross section = 4.43917E-23 cm**2 = 1.58526E-06 a0**2
 #
 #
 # Differential cross section:                       MU=(1-COS(THETA))/2
 #
 #  THETA        MU          DCS          DCS        Sherman      error
 #  (deg)                 (cm**2/sr)   (a0**2/sr)    function
 #----------------------------------------------------------------------
0.00000E+00 4.48972E-11
7.61557E-13 4.48866E-11
1.18994E-12 4.48807E-11
1.71346E-12 4.48734E-11
2.33225E-12 4.48649E-11
3.04617E-12 4.48550E-11
3.85530E-12 4.48438E-11
4.75964E-12 4.48313E-11
5.75917E-12 4.48175E-11
6.85391E-12 4.48024E-11
8.04379E-12 4.47860E-11
9.32893E-12 4.47683E-11
1.07092E-11 4.47493E-11
1.21847E-11 4.47289E-11
1.37554E-11 4.47073E-11
1.54213E-11 4.46845E-11
1.71823E-11 4.46603E-11
1.90386E-11 4.46348E-11
2.09900E-11 4.46081E-11
2.30367E-11 4.45801E-11
2.51785E-11 4.45508E-11
2.74156E-11 4.45203E-11
2.97478E-11 4.44884E-11
3.21752E-11 4.44554E-11
3.46979E-11 4.44210E-11
3.73157E-11 4.43855E-11
4.00286E-11 4.43487E-11
4.28368E-11 4.43106E-11
4.57402E-11 4.42713E-11
4.87388E-11 4.42308E-11
5.18325E-11 4.41891E-11
5.50215E-11 4.41461E-11
5.83057E-11 4.41019E-11
6.16850E-11 4.40566E-11
6.51595E-11 4.40100E-11
6.87293E-11 4.39622E-11
7.23943E-11 4.39133E-11
7.61544E-11 4.38631E-11
1.18991E-10 4.32986E-11
1.71347E-10 4.26246E-11
2.33223E-10 4.18498E-11
3.04617E-10 4.09842E-11
3.85531E-10 4.00383E-11
4.75965E-10 3.90230E-11
5.75917E-10 3.79538E-11
6.85389E-10 3.68407E-11
8.04380E-10 3.56792E-11
9.32891E-10 3.45020E-11
1.07092E-09 3.33092E-11
1.21847E-09 3.20946E-11
1.37554E-09 3.09075E-11
1.54213E-09 2.97157E-11
1.71823E-09 2.85358E-11
1.90386E-09 2.73950E-11
2.09900E-09 2.62635E-11
2.30367E-09 2.51736E-11
2.51785E-09 2.41196E-11
2.74156E-09 2.30850E-11
2.97478E-09 2.21134E-11
3.21752E-09 2.11684E-11
3.46978E-09 2.02580E-11
3.73156E-09 1.94035E-11
4.00286E-09 1.85745E-11
4.28368E-09 1.77916E-11
4.57402E-09 1.70493E-11
4.87388E-09 1.63327E-11
5.18326E-09 1.56672E-11
5.50215E-09 1.50291E-11
5.83057E-09 1.44200E-11
6.16850E-09 1.38524E-11
6.51596E-09 1.33069E-11
6.87293E-09 1.27928E-11
7.23942E-09 1.23075E-11
7.61544E-09 1.18419E-11
1.18991E-08 8.33331E-12
1.71347E-08 6.13716E-12
2.33223E-08 4.65391E-12
3.04617E-08 3.59281E-12
3.85531E-08 2.80823E-12
4.75965E-08 2.21883E-12
5.75917E-08 1.76335E-12
6.85389E-08 1.41346E-12
8.04380E-08 1.15929E-12
9.32891E-08 9.54697E-13
1.07092E-07 7.92720E-13
1.21847E-07 6.69090E-13
1.37554E-07 5.63357E-13
1.54213E-07 4.80195E-13
1.71823E-07 4.12653E-13
1.90386E-07 3.54671E-13
2.09900E-07 3.07910E-13
2.30367E-07 2.67826E-13
2.51785E-07 2.33750E-13
2.74156E-07 2.05602E-13
2.97478E-07 1.80512E-13
3.21752E-07 1.59404E-13
3.46978E-07 1.41386E-13
3.73156E-07 1.25416E-13
4.00286E-07 1.11844E-13
4.28368E-07 9.99448E-14
4.57402E-07 8.95225E-14
4.87388E-07 8.05387E-14
5.18325E-07 7.25250E-14
5.50215E-07 6.55349E-14
5.83057E-07 5.94051E-14
6.16850E-07 5.39318E-14
6.51596E-07 4.91229E-14
6.87293E-07 4.48411E-14
7.23942E-07 4.10205E-14
7.61543E-07 3.76306E-14
1.18991E-06 1.75672E-14
1.71347E-06 9.38849E-15
2.33223E-06 5.46270E-15
3.04617E-06 3.37148E-15
3.85531E-06 2.18323E-15
4.75964E-06 1.47356E-15
5.75916E-06 1.02938E-15
6.85388E-06 7.41539E-16
8.04378E-06 5.48008E-16
9.32888E-06 4.13902E-16
1.07092E-05 3.18578E-16
1.21846E-05 2.49203E-16
1.37553E-05 1.97754E-16
1.54212E-05 1.58929E-16
1.71822E-05 1.29178E-16
1.90385E-05 1.06026E-16
2.09899E-05 8.78992E-17
2.30365E-05 7.34701E-17
2.51783E-05 6.18653E-17
2.74153E-05 5.24486E-17
2.97475E-05 4.47484E-17
3.21749E-05 3.84072E-17
3.46974E-05 3.31503E-17
3.73152E-05 2.87643E-17
4.00281E-05 2.50813E-17
4.28362E-05 2.19695E-17
4.57395E-05 1.93249E-17
4.87380E-05 1.70652E-17
5.18317E-05 1.51252E-17
5.50205E-05 1.34524E-17
5.83045E-05 1.20044E-17
6.16838E-05 1.07461E-17
6.51582E-05 9.64872E-18
6.87277E-05 8.68832E-18
7.23925E-05 7.84478E-18
7.61524E-05 7.10173E-18
9.21439E-05 4.87989E-18
1.09658E-04 3.46336E-18
1.28695E-04 2.52622E-18
1.49255E-04 1.88585E-18
1.71338E-04 1.43644E-18
1.94942E-04 1.11337E-18
2.20070E-04 8.76330E-19
2.46720E-04 6.99218E-19
2.74892E-04 5.64710E-19
3.04586E-04 4.61082E-19
3.35803E-04 3.80191E-19
3.68542E-04 3.16306E-19
4.02802E-04 2.65307E-19
4.38585E-04 2.24196E-19
4.75889E-04 1.90758E-19
5.14715E-04 1.63335E-19
5.55063E-04 1.40673E-19
5.96931E-04 1.21816E-19
6.40321E-04 1.06019E-19
6.85233E-04 9.27065E-20
7.31665E-04 8.14226E-20
7.79618E-04 7.18080E-20
8.29092E-04 6.35740E-20
8.80086E-04 5.64897E-20
9.32601E-04 5.03674E-20
9.86636E-04 4.50544E-20
1.04219E-03 4.04255E-20
1.09927E-03 3.63777E-20
1.15786E-03 3.28254E-20
1.21797E-03 2.96976E-20
1.27961E-03 2.69346E-20
1.34276E-03 2.44866E-20
1.40743E-03 2.23114E-20
1.47362E-03 2.03733E-20
1.54133E-03 1.86418E-20
1.61056E-03 1.70911E-20
1.68131E-03 1.56989E-20
1.75357E-03 1.44462E-20
1.82735E-03 1.33165E-20
1.90265E-03 1.22955E-20
1.97947E-03 1.13709E-20
2.05780E-03 1.05321E-20
2.13765E-03 9.76946E-21
2.21902E-03 9.07497E-21
2.30190E-03 8.44141E-21
2.38630E-03 7.86245E-21
2.47222E-03 7.33253E-21
2.55965E-03 6.84673E-21
2.64859E-03 6.40072E-21
2.73905E-03 5.99064E-21
2.83103E-03 5.61306E-21
2.92452E-03 5.26493E-21
3.01952E-03 4.94353E-21
3.11604E-03 4.64643E-21
3.21407E-03 4.37145E-21
3.31362E-03 4.11664E-21
3.41468E-03 3.88024E-21
3.51725E-03 3.66067E-21
3.62133E-03 3.45652E-21
3.72692E-03 3.26650E-21
3.83403E-03 3.08944E-21
3.94265E-03 2.92430E-21
4.05278E-03 2.77013E-21
4.16442E-03 2.62606E-21
4.27757E-03 2.49130E-21
4.39223E-03 2.36514E-21
4.50840E-03 2.24692E-21
4.62608E-03 2.13605E-21
4.74527E-03 2.03199E-21
4.86597E-03 1.93423E-21
4.98817E-03 1.84234E-21
5.11188E-03 1.75588E-21
5.23711E-03 1.67447E-21
5.36383E-03 1.59777E-21
5.49207E-03 1.52544E-21
5.62181E-03 1.45719E-21
5.75306E-03 1.39276E-21
5.88581E-03 1.33187E-21
6.02007E-03 1.27430E-21
6.15583E-03 1.21984E-21
6.29310E-03 1.16829E-21
6.43187E-03 1.11945E-21
6.57214E-03 1.07317E-21
6.71392E-03 1.02927E-21
6.85720E-03 9.87614E-22
7.00198E-03 9.48065E-22
7.14827E-03 9.10495E-22
7.29605E-03 8.74786E-22
7.44534E-03 8.40828E-22
7.59612E-03 8.08518E-22
7.97965E-03 7.34343E-22
8.37255E-03 6.68560E-22
8.77480E-03 6.10053E-22
9.18641E-03 5.57872E-22
9.60736E-03 5.11208E-22
1.00376E-02 4.69372E-22
1.04773E-02 4.31775E-22
1.09262E-02 3.97910E-22
1.13844E-02 3.67335E-22
1.18520E-02 3.39674E-22
1.23288E-02 3.14599E-22
1.28150E-02 2.91821E-22
1.33104E-02 2.71092E-22
1.38150E-02 2.52193E-22
1.43290E-02 2.34933E-22
1.48521E-02 2.19142E-22
1.53845E-02 2.04672E-22
1.59262E-02 1.91392E-22
1.64770E-02 1.79185E-22
1.70371E-02 1.67948E-22
1.76063E-02 1.57590E-22
1.81848E-02 1.48028E-22
1.87724E-02 1.39190E-22
1.93692E-02 1.31011E-22
1.99751E-02 1.23432E-22
2.05901E-02 1.16400E-22
2.12143E-02 1.09869E-22
2.18476E-02 1.03796E-22
2.24900E-02 9.81416E-23
2.31415E-02 9.28726E-23
2.38021E-02 8.79578E-23
2.44717E-02 8.33677E-23
2.51504E-02 7.90775E-23
2.58382E-02 7.50638E-23
2.65349E-02 7.13046E-23
2.72407E-02 6.77814E-23
2.79555E-02 6.44760E-23
2.86793E-02 6.13724E-23
2.94120E-02 5.84560E-23
3.01537E-02 5.57131E-23
3.09043E-02 5.31314E-23
3.16639E-02 5.06997E-23
3.24324E-02 4.84073E-23
3.32098E-02 4.62448E-23
3.39961E-02 4.42034E-23
3.47912E-02 4.22750E-23
3.55952E-02 4.04519E-23
3.64081E-02 3.87275E-23
3.72297E-02 3.70951E-23
3.80602E-02 3.55490E-23
3.88995E-02 3.40837E-23
3.97476E-02 3.26941E-23
4.06044E-02 3.13755E-23
4.14700E-02 3.01236E-23
4.23443E-02 2.89343E-23
4.32273E-02 2.78039E-23
4.41190E-02 2.67288E-23
4.50194E-02 2.57059E-23
4.59284E-02 2.47320E-23
4.68461E-02 2.38043E-23
4.87074E-02 2.20774E-23
5.06030E-02 2.05060E-23
5.25328E-02 1.90735E-23
5.44967E-02 1.77652E-23
5.64946E-02 1.65682E-23
5.85262E-02 1.54713E-23
6.05914E-02 1.44645E-23
6.26901E-02 1.35389E-23
6.48222E-02 1.26869E-23
6.69873E-02 1.19014E-23
6.91854E-02 1.11761E-23
7.14163E-02 1.05057E-23
7.36799E-02 9.88511E-24
7.59760E-02 9.30993E-24
7.83043E-02 8.77620E-24
8.06647E-02 8.28035E-24
8.30571E-02 7.81917E-24
8.54812E-02 7.38976E-24
8.79369E-02 6.98951E-24
9.04240E-02 6.61605E-24
9.29422E-02 6.26724E-24
9.54915E-02 5.94113E-24
9.80716E-02 5.63596E-24
1.00682E-01 5.35012E-24
1.03323E-01 5.08214E-24
1.05995E-01 4.83070E-24
1.08696E-01 4.59458E-24
1.11427E-01 4.37265E-24
1.14188E-01 4.16390E-24
1.16978E-01 3.96740E-24
1.19797E-01 3.78228E-24
1.22645E-01 3.60775E-24
1.25522E-01 3.44310E-24
1.28428E-01 3.28766E-24
1.31361E-01 3.14081E-24
1.34323E-01 3.00198E-24
1.37313E-01 2.87065E-24
1.40330E-01 2.74634E-24
1.43375E-01 2.62860E-24
1.46447E-01 2.51701E-24
1.49545E-01 2.41119E-24
1.52671E-01 2.31079E-24
1.55823E-01 2.21548E-24
1.59001E-01 2.12494E-24
1.62205E-01 2.03889E-24
1.65435E-01 1.95707E-24
1.68690E-01 1.87923E-24
1.71970E-01 1.80514E-24
1.75276E-01 1.73458E-24
1.78606E-01 1.66736E-24
1.81961E-01 1.60328E-24
1.85340E-01 1.54217E-24
1.88743E-01 1.48387E-24
1.92169E-01 1.42822E-24
1.95619E-01 1.37509E-24
1.99092E-01 1.32432E-24
2.02589E-01 1.27581E-24
2.06107E-01 1.22943E-24
2.09649E-01 1.18507E-24
2.13212E-01 1.14262E-24
2.16797E-01 1.10199E-24
2.20404E-01 1.06309E-24
2.24032E-01 1.02582E-24
2.27680E-01 9.90115E-25
2.31350E-01 9.55886E-25
2.35040E-01 9.23064E-25
2.38751E-01 8.91581E-25
2.42481E-01 8.61372E-25
2.46231E-01 8.32376E-25
2.50000E-01 8.04536E-25
2.53788E-01 7.77796E-25
2.57595E-01 7.52107E-25
2.61421E-01 7.27418E-25
2.65264E-01 7.03685E-25
2.69126E-01 6.80863E-25
2.73005E-01 6.58912E-25
2.76901E-01 6.37791E-25
2.80814E-01 6.17465E-25
2.84744E-01 5.97898E-25
2.88691E-01 5.79056E-25
2.92653E-01 5.60908E-25
2.96632E-01 5.43425E-25
3.00625E-01 5.26576E-25
3.04634E-01 5.10336E-25
3.08658E-01 4.94679E-25
3.12697E-01 4.79580E-25
3.16749E-01 4.65015E-25
3.20816E-01 4.50963E-25
3.24896E-01 4.37403E-25
3.28990E-01 4.24313E-25
3.33097E-01 4.11676E-25
3.37216E-01 3.99473E-25
3.41348E-01 3.87686E-25
3.45492E-01 3.76300E-25
3.49647E-01 3.65297E-25
3.53814E-01 3.54663E-25
3.57992E-01 3.44384E-25
3.62181E-01 3.34445E-25
3.66381E-01 3.24834E-25
3.70590E-01 3.15538E-25
3.74810E-01 3.06545E-25
3.79039E-01 2.97844E-25
3.83277E-01 2.89423E-25
3.87524E-01 2.81272E-25
3.91780E-01 2.73381E-25
3.96044E-01 2.65741E-25
4.00316E-01 2.58341E-25
4.04596E-01 2.51174E-25
4.08882E-01 2.44231E-25
4.13176E-01 2.37504E-25
4.17476E-01 2.30985E-25
4.21783E-01 2.24666E-25
4.26095E-01 2.18541E-25
4.30413E-01 2.12602E-25
4.34737E-01 2.06844E-25
4.39065E-01 2.01259E-25
4.43398E-01 1.95842E-25
4.47736E-01 1.90587E-25
4.52077E-01 1.85488E-25
4.56422E-01 1.80540E-25
4.60770E-01 1.75738E-25
4.65122E-01 1.71077E-25
4.69476E-01 1.66552E-25
4.73832E-01 1.62159E-25
4.78190E-01 1.57893E-25
4.82550E-01 1.53750E-25
4.86912E-01 1.49726E-25
4.91274E-01 1.45817E-25
4.95637E-01 1.42019E-25
5.00000E-01 1.38328E-25
5.04363E-01 1.34742E-25
5.08726E-01 1.31257E-25
5.13088E-01 1.27869E-25
5.17450E-01 1.24576E-25
5.21810E-01 1.21374E-25
5.26168E-01 1.18261E-25
5.30524E-01 1.15233E-25
5.34878E-01 1.12288E-25
5.39230E-01 1.09424E-25
5.43578E-01 1.06638E-25
5.47923E-01 1.03928E-25
5.52264E-01 1.01291E-25
5.56602E-01 9.87243E-26
5.60935E-01 9.62269E-26
5.65263E-01 9.37962E-26
5.69587E-01 9.14302E-26
5.73905E-01 8.91270E-26
5.78217E-01 8.68847E-26
5.82524E-01 8.47014E-26
5.86824E-01 8.25755E-26
5.91118E-01 8.05052E-26
5.95404E-01 7.84889E-26
5.99684E-01 7.65250E-26
6.03956E-01 7.46119E-26
6.08220E-01 7.27482E-26
6.12476E-01 7.09325E-26
6.16723E-01 6.91633E-26
6.20961E-01 6.74394E-26
6.25190E-01 6.57594E-26
6.29410E-01 6.41221E-26
6.33619E-01 6.25262E-26
6.37819E-01 6.09706E-26
6.42008E-01 5.94542E-26
6.46186E-01 5.79758E-26
6.50353E-01 5.65344E-26
6.54508E-01 5.51290E-26
6.58652E-01 5.37585E-26
6.62784E-01 5.24220E-26
6.66903E-01 5.11186E-26
6.71010E-01 4.98473E-26
6.75104E-01 4.86073E-26
6.79184E-01 4.73977E-26
6.83251E-01 4.62177E-26
6.87303E-01 4.50665E-26
6.91342E-01 4.39433E-26
6.95366E-01 4.28474E-26
6.99375E-01 4.17780E-26
7.03368E-01 4.07344E-26
7.07347E-01 3.97160E-26
7.11309E-01 3.87220E-26
7.15256E-01 3.77519E-26
7.19186E-01 3.68050E-26
7.23099E-01 3.58806E-26
7.26995E-01 3.49783E-26
7.30874E-01 3.40974E-26
7.34736E-01 3.32374E-26
7.38579E-01 3.23978E-26
7.42405E-01 3.15779E-26
7.46212E-01 3.07774E-26
7.50000E-01 2.99957E-26
7.53769E-01 2.92323E-26
7.57519E-01 2.84868E-26
7.61249E-01 2.77588E-26
7.64960E-01 2.70477E-26
7.68650E-01 2.63532E-26
7.72320E-01 2.56748E-26
7.75968E-01 2.50122E-26
7.79596E-01 2.43650E-26
7.83203E-01 2.37327E-26
7.86788E-01 2.31150E-26
7.90351E-01 2.25116E-26
7.93893E-01 2.19221E-26
7.97411E-01 2.13461E-26
8.00908E-01 2.07834E-26
8.04381E-01 2.02336E-26
8.07831E-01 1.96964E-26
8.11257E-01 1.91716E-26
8.14660E-01 1.86587E-26
8.18039E-01 1.81575E-26
8.21394E-01 1.76678E-26
8.24724E-01 1.71893E-26
8.28030E-01 1.67217E-26
8.31310E-01 1.62648E-26
8.34565E-01 1.58183E-26
8.37795E-01 1.53819E-26
8.40999E-01 1.49555E-26
8.44177E-01 1.45387E-26
8.47329E-01 1.41315E-26
8.50455E-01 1.37335E-26
8.53553E-01 1.33446E-26
8.56625E-01 1.29646E-26
8.59670E-01 1.25932E-26
8.62687E-01 1.22302E-26
8.65677E-01 1.18755E-26
8.68639E-01 1.15290E-26
8.71572E-01 1.11903E-26
8.74478E-01 1.08593E-26
8.77355E-01 1.05360E-26
8.80203E-01 1.02200E-26
8.83022E-01 9.91123E-27
8.85812E-01 9.60958E-27
8.88573E-01 9.31486E-27
8.91304E-01 9.02692E-27
8.94005E-01 8.74562E-27
8.96677E-01 8.47083E-27
8.99318E-01 8.20240E-27
9.01928E-01 7.94020E-27
9.04508E-01 7.68411E-27
9.07058E-01 7.43400E-27
9.09576E-01 7.18974E-27
9.12063E-01 6.95122E-27
9.14519E-01 6.71832E-27
9.16943E-01 6.49093E-27
9.19335E-01 6.26894E-27
9.21696E-01 6.05224E-27
9.24024E-01 5.84074E-27
9.26320E-01 5.63432E-27
9.28584E-01 5.43289E-27
9.30815E-01 5.23636E-27
9.33013E-01 5.04463E-27
9.35178E-01 4.85762E-27
9.37310E-01 4.67523E-27
9.39409E-01 4.49737E-27
9.41474E-01 4.32398E-27
9.43505E-01 4.15496E-27
9.45503E-01 3.99024E-27
9.47467E-01 3.82974E-27
9.49397E-01 3.67339E-27
9.51293E-01 3.52112E-27
9.53154E-01 3.37285E-27
9.54981E-01 3.22852E-27
9.56773E-01 3.08806E-27
9.58530E-01 2.95141E-27
9.60252E-01 2.81851E-27
9.61940E-01 2.68929E-27
9.63592E-01 2.56371E-27
9.65209E-01 2.44169E-27
9.66790E-01 2.32319E-27
9.68336E-01 2.20816E-27
9.69846E-01 2.09653E-27
9.71321E-01 1.98827E-27
9.72759E-01 1.88333E-27
9.74162E-01 1.78165E-27
9.75528E-01 1.68320E-27
9.76858E-01 1.58792E-27
9.78152E-01 1.49578E-27
9.79410E-01 1.40674E-27
9.80631E-01 1.32075E-27
9.81815E-01 1.23779E-27
9.82963E-01 1.15781E-27
9.84074E-01 1.08077E-27
9.85148E-01 1.00665E-27
9.86185E-01 9.35418E-28
9.87185E-01 8.67033E-28
9.88148E-01 8.01468E-28
9.89074E-01 7.38697E-28
9.89962E-01 6.78692E-28
9.90814E-01 6.21426E-28
9.91627E-01 5.66876E-28
9.92404E-01 5.15017E-28
9.93143E-01 4.65827E-28
9.93844E-01 4.19285E-28
9.94508E-01 3.75371E-28
9.95134E-01 3.34066E-28
9.95722E-01 2.95352E-28
9.96273E-01 2.59213E-28
9.96786E-01 2.25632E-28
9.97261E-01 1.94597E-28
9.97698E-01 1.66093E-28
9.98097E-01 1.40108E-28
9.98459E-01 1.16631E-28
9.98782E-01 9.56526E-29
9.99067E-01 7.71630E-29
9.99315E-01 6.11546E-29
9.99524E-01 4.76206E-29
9.99695E-01 3.65552E-29
9.99829E-01 2.79536E-29
9.99924E-01 2.18123E-29
9.99981E-01 1.81285E-29
1.00000E+00 1.69008E-29
