 #
 # Subroutine ELSEPA. Elastic scattering of electrons and positrons
 #                    by neutral atoms and positive ions
 #
 # Projectile: electron
 # Kinetic energy = 7.00000E+07 eV = 2.57245E+06 a.u.
 #
 # WARNING: High-energy factorization with free-atom DF screening.
 #          Absorption, polarization and exchange corrections are
 #          switched off.
 #          Phase shifts are calculated for the bare nucleus.
 #          Scattering amplitudes are not evaluated.
 #
 # Element: Pr,  Z =  59,  atomic weight = 1.40908E+02 g/mol
 #
 # Nuclear model: Fermi distribution
 #                Average radius = 5.56795E-13 cm
 #                Skin thickness = 5.46000E-14 cm
 #
 # Number of electrons = 59
 #
 # Total elastic cross section = 7.27908E-18 cm**2 = 2.59941E-01 a0**2
 # 1st transport cross section = 1.37107E-24 cm**2 = 4.89619E-08 a0**2
 # 2nd transport cross section = 4.05509E-24 cm**2 = 1.44810E-07 a0**2
 #
 #
 # Differential cross section:                       MU=(1-COS(THETA))/2
 #
 #  THETA        MU          DCS          DCS        Sherman      error
 #  (deg)                 (cm**2/sr)   (a0**2/sr)    function
 #----------------------------------------------------------------------
0.00000E+00 5.30591E-10
7.61557E-13 5.29118E-10
1.18994E-12 5.28294E-10
1.71346E-12 5.27290E-10
2.33225E-12 5.26108E-10
3.04617E-12 5.24749E-10
3.85530E-12 5.23216E-10
4.75964E-12 5.21511E-10
5.75917E-12 5.19638E-10
6.85391E-12 5.17599E-10
8.04379E-12 5.15397E-10
9.32893E-12 5.13036E-10
1.07092E-11 5.10520E-10
1.21847E-11 5.07852E-10
1.37554E-11 5.05038E-10
1.54213E-11 5.02080E-10
1.71823E-11 4.98985E-10
1.90386E-11 4.95755E-10
2.09900E-11 4.92397E-10
2.30367E-11 4.88915E-10
2.51785E-11 4.85315E-10
2.74156E-11 4.81600E-10
2.97478E-11 4.77777E-10
3.21752E-11 4.73851E-10
3.46979E-11 4.69827E-10
3.73157E-11 4.65710E-10
4.00286E-11 4.61507E-10
4.28368E-11 4.57223E-10
4.57402E-11 4.52861E-10
4.87388E-11 4.48479E-10
5.18325E-11 4.44026E-10
5.50215E-11 4.39496E-10
5.83057E-11 4.34895E-10
6.16850E-11 4.30227E-10
6.51595E-11 4.25497E-10
6.87293E-11 4.20709E-10
7.23943E-11 4.15880E-10
7.61544E-11 4.11141E-10
1.18991E-10 3.62533E-10
1.71347E-10 3.15274E-10
2.33223E-10 2.71952E-10
3.04617E-10 2.34216E-10
3.85531E-10 2.01926E-10
4.75965E-10 1.74764E-10
5.75917E-10 1.52201E-10
6.85389E-10 1.33482E-10
8.04380E-10 1.17839E-10
9.32891E-10 1.04696E-10
1.07092E-09 9.35841E-11
1.21847E-09 8.40714E-11
1.37554E-09 7.58568E-11
1.54213E-09 6.86951E-11
1.71823E-09 6.23956E-11
1.90386E-09 5.68254E-11
2.09900E-09 5.18724E-11
2.30367E-09 4.74260E-11
2.51785E-09 4.34368E-11
2.74156E-09 3.98479E-11
2.97478E-09 3.66032E-11
3.21752E-09 3.36621E-11
3.46978E-09 3.10003E-11
3.73156E-09 2.85875E-11
4.00286E-09 2.63879E-11
4.28368E-09 2.43894E-11
4.57402E-09 2.25723E-11
4.87388E-09 2.08177E-11
5.18326E-09 1.92405E-11
5.50215E-09 1.78349E-11
5.83057E-09 1.65785E-11
6.16850E-09 1.54523E-11
6.51596E-09 1.44399E-11
6.87293E-09 1.35275E-11
7.23942E-09 1.26927E-11
7.61544E-09 1.18388E-11
1.18991E-08 6.44728E-12
1.71347E-08 3.82785E-12
2.33223E-08 2.40774E-12
3.04617E-08 1.57027E-12
3.85531E-08 1.06349E-12
4.75965E-08 7.45119E-13
5.75917E-08 5.38125E-13
6.85389E-08 3.99493E-13
8.04380E-08 3.03961E-13
9.32891E-08 2.36154E-13
1.07092E-07 1.86591E-13
1.21847E-07 1.49593E-13
1.37554E-07 1.21364E-13
1.54213E-07 9.95057E-14
1.71823E-07 8.23291E-14
1.90386E-07 6.86814E-14
2.09900E-07 5.77129E-14
2.30367E-07 4.87900E-14
2.51785E-07 4.15007E-14
2.74156E-07 3.55073E-14
2.97478E-07 3.05455E-14
3.21752E-07 2.64135E-14
3.46978E-07 2.29553E-14
3.73156E-07 2.00435E-14
4.00286E-07 1.75752E-14
4.28368E-07 1.54750E-14
4.57402E-07 1.36798E-14
4.87388E-07 1.21325E-14
5.18325E-07 1.08028E-14
5.50215E-07 9.65586E-15
5.83057E-07 8.65309E-15
6.16850E-07 7.77836E-15
6.51596E-07 7.01465E-15
6.87293E-07 6.34066E-15
7.23942E-07 5.74570E-15
7.61543E-07 5.22087E-15
1.18991E-06 2.23348E-15
1.71347E-06 1.10911E-15
2.33223E-06 6.10747E-16
3.04617E-06 3.63053E-16
3.85531E-06 2.28982E-16
4.75964E-06 1.51415E-16
5.75916E-06 1.04071E-16
6.85388E-06 7.38691E-17
8.04378E-06 5.38742E-17
9.32888E-06 4.02130E-17
1.07092E-05 3.06225E-17
1.21846E-05 2.37298E-17
1.37553E-05 1.86730E-17
1.54212E-05 1.48949E-17
1.71822E-05 1.20262E-17
1.90385E-05 9.81241E-18
2.09899E-05 8.09202E-18
2.30365E-05 6.73200E-18
2.51783E-05 5.64498E-18
2.74153E-05 4.76787E-18
2.97475E-05 4.05424E-18
3.21749E-05 3.46922E-18
3.46974E-05 2.98622E-18
3.73152E-05 2.58470E-18
4.00281E-05 2.24865E-18
4.28362E-05 1.96558E-18
4.57395E-05 1.72567E-18
4.87380E-05 1.52120E-18
5.18317E-05 1.34606E-18
5.50205E-05 1.19535E-18
5.83045E-05 1.06513E-18
6.16838E-05 9.52174E-19
6.51582E-05 8.53830E-19
6.87277E-05 7.67891E-19
7.23925E-05 6.92516E-19
7.61524E-05 6.26488E-19
9.21439E-05 4.28764E-19
1.09658E-04 3.03251E-19
1.28695E-04 2.20523E-19
1.49255E-04 1.64180E-19
1.71338E-04 1.24755E-19
1.94942E-04 9.64911E-20
2.20070E-04 7.58049E-20
2.46720E-04 6.03830E-20
2.74892E-04 4.86948E-20
3.04586E-04 3.97070E-20
3.35803E-04 3.27028E-20
3.68542E-04 2.71798E-20
4.02802E-04 2.27769E-20
4.38585E-04 1.92320E-20
4.75889E-04 1.63521E-20
5.14715E-04 1.39926E-20
5.55063E-04 1.20447E-20
5.96931E-04 1.04250E-20
6.40321E-04 9.06930E-21
6.85233E-04 7.92752E-21
7.31665E-04 6.96032E-21
7.79618E-04 6.13665E-21
8.29092E-04 5.43160E-21
8.80086E-04 4.82526E-21
9.32601E-04 4.30147E-21
9.86636E-04 3.84706E-21
1.04219E-03 3.45131E-21
1.09927E-03 3.10531E-21
1.15786E-03 2.80175E-21
1.21797E-03 2.53453E-21
1.27961E-03 2.29851E-21
1.34276E-03 2.08945E-21
1.40743E-03 1.90370E-21
1.47362E-03 1.73822E-21
1.54133E-03 1.59040E-21
1.61056E-03 1.45802E-21
1.68131E-03 1.33919E-21
1.75357E-03 1.23227E-21
1.82735E-03 1.13585E-21
1.90265E-03 1.04872E-21
1.97947E-03 9.69815E-22
2.05780E-03 8.98225E-22
2.13765E-03 8.33146E-22
2.21902E-03 7.73880E-22
2.30190E-03 7.19814E-22
2.38630E-03 6.70406E-22
2.47222E-03 6.25184E-22
2.55965E-03 5.83727E-22
2.64859E-03 5.45663E-22
2.73905E-03 5.10666E-22
2.83103E-03 4.78441E-22
2.92452E-03 4.48729E-22
3.01952E-03 4.21297E-22
3.11604E-03 3.95939E-22
3.21407E-03 3.72468E-22
3.31362E-03 3.50717E-22
3.41468E-03 3.30538E-22
3.51725E-03 3.11795E-22
3.62133E-03 2.94367E-22
3.72692E-03 2.78145E-22
3.83403E-03 2.63029E-22
3.94265E-03 2.48930E-22
4.05278E-03 2.35767E-22
4.16442E-03 2.23466E-22
4.27757E-03 2.11960E-22
4.39223E-03 2.01187E-22
4.50840E-03 1.91093E-22
4.62608E-03 1.81626E-22
4.74527E-03 1.72738E-22
4.86597E-03 1.64390E-22
4.98817E-03 1.56541E-22
5.11188E-03 1.49157E-22
5.23711E-03 1.42204E-22
5.36383E-03 1.35653E-22
5.49207E-03 1.29476E-22
5.62181E-03 1.23647E-22
5.75306E-03 1.18143E-22
5.88581E-03 1.12943E-22
6.02007E-03 1.08026E-22
6.15583E-03 1.03375E-22
6.29310E-03 9.89719E-23
6.43187E-03 9.48010E-23
6.57214E-03 9.08478E-23
6.71392E-03 8.70989E-23
6.85720E-03 8.35416E-23
7.00198E-03 8.01643E-23
7.14827E-03 7.69561E-23
7.29605E-03 7.39069E-23
7.44534E-03 7.10073E-23
7.59612E-03 6.82486E-23
7.97965E-03 6.19159E-23
8.37255E-03 5.63007E-23
8.77480E-03 5.13075E-23
9.18641E-03 4.68551E-23
9.60736E-03 4.28745E-23
1.00376E-02 3.93069E-23
1.04773E-02 3.61017E-23
1.09262E-02 3.32155E-23
1.13844E-02 3.06109E-23
1.18520E-02 2.82556E-23
1.23288E-02 2.61212E-23
1.28150E-02 2.41835E-23
1.33104E-02 2.24210E-23
1.38150E-02 2.08150E-23
1.43290E-02 1.93491E-23
1.48521E-02 1.80088E-23
1.53845E-02 1.67815E-23
1.59262E-02 1.56560E-23
1.64770E-02 1.46222E-23
1.70371E-02 1.36713E-23
1.76063E-02 1.27954E-23
1.81848E-02 1.19877E-23
1.87724E-02 1.12417E-23
1.93692E-02 1.05520E-23
1.99751E-02 9.91358E-24
2.05901E-02 9.32186E-24
2.12143E-02 8.77283E-24
2.18476E-02 8.26286E-24
2.24900E-02 7.78867E-24
2.31415E-02 7.34730E-24
2.38021E-02 6.93608E-24
2.44717E-02 6.55256E-24
2.51504E-02 6.19456E-24
2.58382E-02 5.86006E-24
2.65349E-02 5.54726E-24
2.72407E-02 5.25448E-24
2.79555E-02 4.98023E-24
2.86793E-02 4.72312E-24
2.94120E-02 4.48189E-24
3.01537E-02 4.25538E-24
3.09043E-02 4.04254E-24
3.16639E-02 3.84240E-24
3.24324E-02 3.65407E-24
3.32098E-02 3.47672E-24
3.39961E-02 3.30961E-24
3.47912E-02 3.15203E-24
3.55952E-02 3.00337E-24
3.64081E-02 2.86301E-24
3.72297E-02 2.73042E-24
3.80602E-02 2.60509E-24
3.88995E-02 2.48655E-24
3.97476E-02 2.37439E-24
4.06044E-02 2.26818E-24
4.14700E-02 2.16757E-24
4.23443E-02 2.07221E-24
4.32273E-02 1.98178E-24
4.41190E-02 1.89598E-24
4.50194E-02 1.81453E-24
4.59284E-02 1.73718E-24
4.68461E-02 1.66368E-24
4.87074E-02 1.52737E-24
5.06030E-02 1.40399E-24
5.25328E-02 1.29212E-24
5.44967E-02 1.19051E-24
5.64946E-02 1.09809E-24
5.85262E-02 1.01390E-24
6.05914E-02 9.37097E-25
6.26901E-02 8.66937E-25
6.48222E-02 8.02761E-25
6.69873E-02 7.43986E-25
6.91854E-02 6.90091E-25
7.14163E-02 6.40614E-25
7.36799E-02 5.95142E-25
7.59760E-02 5.53305E-25
7.83043E-02 5.14774E-25
8.06647E-02 4.79251E-25
8.30571E-02 4.46470E-25
8.54812E-02 4.16192E-25
8.79369E-02 3.88201E-25
9.04240E-02 3.62301E-25
9.29422E-02 3.38318E-25
9.54915E-02 3.16090E-25
9.80716E-02 2.95474E-25
1.00682E-01 2.76339E-25
1.03323E-01 2.58565E-25
1.05995E-01 2.42045E-25
1.08696E-01 2.26680E-25
1.11427E-01 2.12379E-25
1.14188E-01 1.99061E-25
1.16978E-01 1.86651E-25
1.19797E-01 1.75081E-25
1.22645E-01 1.64286E-25
1.25522E-01 1.54211E-25
1.28428E-01 1.44802E-25
1.31361E-01 1.36010E-25
1.34323E-01 1.27792E-25
1.37313E-01 1.20106E-25
1.40330E-01 1.12914E-25
1.43375E-01 1.06182E-25
1.46447E-01 9.98776E-26
1.49545E-01 9.39712E-26
1.52671E-01 8.84357E-26
1.55823E-01 8.32456E-26
1.59001E-01 7.83777E-26
1.62205E-01 7.38103E-26
1.65435E-01 6.95234E-26
1.68690E-01 6.54985E-26
1.71970E-01 6.17184E-26
1.75276E-01 5.81670E-26
1.78606E-01 5.48296E-26
1.81961E-01 5.16923E-26
1.85340E-01 4.87423E-26
1.88743E-01 4.59677E-26
1.92169E-01 4.33575E-26
1.95619E-01 4.09012E-26
1.99092E-01 3.85892E-26
2.02589E-01 3.64127E-26
2.06107E-01 3.43631E-26
2.09649E-01 3.24326E-26
2.13212E-01 3.06141E-26
2.16797E-01 2.89005E-26
2.20404E-01 2.72857E-26
2.24032E-01 2.57635E-26
2.27680E-01 2.43286E-26
2.31350E-01 2.29755E-26
2.35040E-01 2.16995E-26
2.38751E-01 2.04960E-26
2.42481E-01 1.93606E-26
2.46231E-01 1.82895E-26
2.50000E-01 1.72787E-26
2.53788E-01 1.63249E-26
2.57595E-01 1.54246E-26
2.61421E-01 1.45748E-26
2.65264E-01 1.37725E-26
2.69126E-01 1.30151E-26
2.73005E-01 1.22999E-26
2.76901E-01 1.16245E-26
2.80814E-01 1.09866E-26
2.84744E-01 1.03842E-26
2.88691E-01 9.81515E-27
2.92653E-01 9.27761E-27
2.96632E-01 8.76979E-27
3.00625E-01 8.29002E-27
3.04634E-01 7.83672E-27
3.08658E-01 7.40841E-27
3.12697E-01 7.00368E-27
3.16749E-01 6.62123E-27
3.20816E-01 6.25980E-27
3.24896E-01 5.91823E-27
3.28990E-01 5.59541E-27
3.33097E-01 5.29031E-27
3.37216E-01 5.00194E-27
3.41348E-01 4.72938E-27
3.45492E-01 4.47176E-27
3.49647E-01 4.22824E-27
3.53814E-01 3.99806E-27
3.57992E-01 3.78048E-27
3.62181E-01 3.57481E-27
3.66381E-01 3.38040E-27
3.70590E-01 3.19662E-27
3.74810E-01 3.02290E-27
3.79039E-01 2.85868E-27
3.83277E-01 2.70345E-27
3.87524E-01 2.55671E-27
3.91780E-01 2.41800E-27
3.96044E-01 2.28688E-27
4.00316E-01 2.16294E-27
4.04596E-01 2.04578E-27
4.08882E-01 1.93504E-27
4.13176E-01 1.83036E-27
4.17476E-01 1.73142E-27
4.21783E-01 1.63790E-27
4.26095E-01 1.54951E-27
4.30413E-01 1.46596E-27
4.34737E-01 1.38700E-27
4.39065E-01 1.31237E-27
4.43398E-01 1.24184E-27
4.47736E-01 1.17518E-27
4.52077E-01 1.11218E-27
4.56422E-01 1.05265E-27
4.60770E-01 9.96387E-28
4.65122E-01 9.43221E-28
4.69476E-01 8.92981E-28
4.73832E-01 8.45506E-28
4.78190E-01 8.00645E-28
4.82550E-01 7.58256E-28
4.86912E-01 7.18203E-28
4.91274E-01 6.80358E-28
4.95637E-01 6.44600E-28
5.00000E-01 6.10814E-28
5.04363E-01 5.78893E-28
5.08726E-01 5.48733E-28
5.13088E-01 5.20238E-28
5.17450E-01 4.93315E-28
5.21810E-01 4.67880E-28
5.26168E-01 4.43848E-28
5.30524E-01 4.21143E-28
5.34878E-01 3.99692E-28
5.39230E-01 3.79424E-28
5.43578E-01 3.60275E-28
5.47923E-01 3.42183E-28
5.52264E-01 3.25087E-28
5.56602E-01 3.08935E-28
5.60935E-01 2.93672E-28
5.65263E-01 2.79249E-28
5.69587E-01 2.65619E-28
5.73905E-01 2.52738E-28
5.78217E-01 2.40565E-28
5.82524E-01 2.29058E-28
5.86824E-01 2.18182E-28
5.91118E-01 2.07901E-28
5.95404E-01 1.98180E-28
5.99684E-01 1.88990E-28
6.03956E-01 1.80299E-28
6.08220E-01 1.72080E-28
6.12476E-01 1.64305E-28
6.16723E-01 1.56951E-28
6.20961E-01 1.49992E-28
6.25190E-01 1.43407E-28
6.29410E-01 1.37174E-28
6.33619E-01 1.31274E-28
6.37819E-01 1.25687E-28
6.42008E-01 1.20395E-28
6.46186E-01 1.15383E-28
6.50353E-01 1.10633E-28
6.54508E-01 1.06131E-28
6.58652E-01 1.01862E-28
6.62784E-01 9.78141E-29
6.66903E-01 9.39737E-29
6.71010E-01 9.03291E-29
6.75104E-01 8.68691E-29
6.79184E-01 8.35831E-29
6.83251E-01 8.04611E-29
6.87303E-01 7.74938E-29
6.91342E-01 7.46723E-29
6.95366E-01 7.19881E-29
6.99375E-01 6.94336E-29
7.03368E-01 6.70011E-29
7.07347E-01 6.46838E-29
7.11309E-01 6.24751E-29
7.15256E-01 6.03686E-29
7.19186E-01 5.83587E-29
7.23099E-01 5.64398E-29
7.26995E-01 5.46067E-29
7.30874E-01 5.28546E-29
7.34736E-01 5.11788E-29
7.38579E-01 4.95750E-29
7.42405E-01 4.80392E-29
7.46212E-01 4.65676E-29
7.50000E-01 4.51565E-29
7.53769E-01 4.38026E-29
7.57519E-01 4.25026E-29
7.61249E-01 4.12537E-29
7.64960E-01 4.00529E-29
7.68650E-01 3.88977E-29
7.72320E-01 3.77855E-29
7.75968E-01 3.67140E-29
7.79596E-01 3.56811E-29
7.83203E-01 3.46846E-29
7.86788E-01 3.37227E-29
7.90351E-01 3.27934E-29
7.93893E-01 3.18952E-29
7.97411E-01 3.10263E-29
8.00908E-01 3.01854E-29
8.04381E-01 2.93709E-29
8.07831E-01 2.85816E-29
8.11257E-01 2.78162E-29
8.14660E-01 2.70735E-29
8.18039E-01 2.63525E-29
8.21394E-01 2.56520E-29
8.24724E-01 2.49713E-29
8.28030E-01 2.43092E-29
8.31310E-01 2.36651E-29
8.34565E-01 2.30381E-29
8.37795E-01 2.24274E-29
8.40999E-01 2.18323E-29
8.44177E-01 2.12522E-29
8.47329E-01 2.06866E-29
8.50455E-01 2.01347E-29
8.53553E-01 1.95960E-29
8.56625E-01 1.90701E-29
8.59670E-01 1.85564E-29
8.62687E-01 1.80546E-29
8.65677E-01 1.75642E-29
8.68639E-01 1.70847E-29
8.71572E-01 1.66159E-29
8.74478E-01 1.61573E-29
8.77355E-01 1.57087E-29
8.80203E-01 1.52698E-29
8.83022E-01 1.48401E-29
8.85812E-01 1.44196E-29
8.88573E-01 1.40079E-29
8.91304E-01 1.36048E-29
8.94005E-01 1.32100E-29
8.96677E-01 1.28234E-29
8.99318E-01 1.24447E-29
9.01928E-01 1.20738E-29
9.04508E-01 1.17105E-29
9.07058E-01 1.13545E-29
9.09576E-01 1.10058E-29
9.12063E-01 1.06643E-29
9.14519E-01 1.03296E-29
9.16943E-01 1.00018E-29
9.19335E-01 9.68073E-30
9.21696E-01 9.36620E-30
9.24024E-01 9.05814E-30
9.26320E-01 8.75644E-30
9.28584E-01 8.46099E-30
9.30815E-01 8.17169E-30
9.33013E-01 7.88846E-30
9.35178E-01 7.61120E-30
9.37310E-01 7.33983E-30
9.39409E-01 7.07427E-30
9.41474E-01 6.81445E-30
9.43505E-01 6.56028E-30
9.45503E-01 6.31171E-30
9.47467E-01 6.06865E-30
9.49397E-01 5.83106E-30
9.51293E-01 5.59887E-30
9.53154E-01 5.37201E-30
9.54981E-01 5.15044E-30
9.56773E-01 4.93410E-30
9.58530E-01 4.72293E-30
9.60252E-01 4.51689E-30
9.61940E-01 4.31592E-30
9.63592E-01 4.11999E-30
9.65209E-01 3.92904E-30
9.66790E-01 3.74304E-30
9.68336E-01 3.56194E-30
9.69846E-01 3.38570E-30
9.71321E-01 3.21428E-30
9.72759E-01 3.04765E-30
9.74162E-01 2.88576E-30
9.75528E-01 2.72859E-30
9.76858E-01 2.57610E-30
9.78152E-01 2.42826E-30
9.79410E-01 2.28504E-30
9.80631E-01 2.14640E-30
9.81815E-01 2.01232E-30
9.82963E-01 1.88278E-30
9.84074E-01 1.75773E-30
9.85148E-01 1.63716E-30
9.86185E-01 1.52104E-30
9.87185E-01 1.40935E-30
9.88148E-01 1.30207E-30
9.89074E-01 1.19916E-30
9.89962E-01 1.10062E-30
9.90814E-01 1.00642E-30
9.91627E-01 9.16541E-31
9.92404E-01 8.30965E-31
9.93143E-01 7.49674E-31
9.93844E-01 6.72652E-31
9.94508E-01 5.99883E-31
9.95134E-01 5.31352E-31
9.95722E-01 4.67045E-31
9.96273E-01 4.06948E-31
9.96786E-01 3.51049E-31
9.97261E-01 2.99337E-31
9.97698E-01 2.51801E-31
9.98097E-01 2.08432E-31
9.98459E-01 1.69220E-31
9.98782E-01 1.34157E-31
9.99067E-01 1.03236E-31
9.99315E-01 7.64506E-32
9.99524E-01 5.37956E-32
9.99695E-01 3.52660E-32
9.99829E-01 2.08580E-32
9.99924E-01 1.05688E-32
9.99981E-01 4.39606E-33
1.00000E+00 2.33876E-33
