 #
 # Subroutine ELSEPA. Elastic scattering of electrons and positrons
 #                    by neutral atoms and positive ions
 #
 # Projectile: electron
 # Kinetic energy = 4.00000E+07 eV = 1.46997E+06 a.u.
 #
 # WARNING: High-energy factorization with free-atom DF screening.
 #          Absorption, polarization and exchange corrections are
 #          switched off.
 #          Phase shifts are calculated for the bare nucleus.
 #          Scattering amplitudes are not evaluated.
 #
 # Element: Pr,  Z =  59,  atomic weight = 1.40908E+02 g/mol
 #
 # Nuclear model: Fermi distribution
 #                Average radius = 5.56795E-13 cm
 #                Skin thickness = 5.46000E-14 cm
 #
 # Number of electrons = 59
 #
 # Total elastic cross section = 7.27816E-18 cm**2 = 2.59908E-01 a0**2
 # 1st transport cross section = 4.13122E-24 cm**2 = 1.47528E-07 a0**2
 # 2nd transport cross section = 1.20199E-23 cm**2 = 4.29239E-07 a0**2
 #
 #
 # Differential cross section:                       MU=(1-COS(THETA))/2
 #
 #  THETA        MU          DCS          DCS        Sherman      error
 #  (deg)                 (cm**2/sr)   (a0**2/sr)    function
 #----------------------------------------------------------------------
0.00000E+00 1.75143E-10
7.61557E-13 1.74982E-10
1.18994E-12 1.74891E-10
1.71346E-12 1.74781E-10
2.33225E-12 1.74651E-10
3.04617E-12 1.74502E-10
3.85530E-12 1.74332E-10
4.75964E-12 1.74143E-10
5.75917E-12 1.73935E-10
6.85391E-12 1.73707E-10
8.04379E-12 1.73460E-10
9.32893E-12 1.73194E-10
1.07092E-11 1.72909E-10
1.21847E-11 1.72605E-10
1.37554E-11 1.72282E-10
1.54213E-11 1.71941E-10
1.71823E-11 1.71582E-10
1.90386E-11 1.71204E-10
2.09900E-11 1.70809E-10
2.30367E-11 1.70396E-10
2.51785E-11 1.69965E-10
2.74156E-11 1.69518E-10
2.97478E-11 1.69053E-10
3.21752E-11 1.68571E-10
3.46979E-11 1.68073E-10
3.73157E-11 1.67559E-10
4.00286E-11 1.67029E-10
4.28368E-11 1.66483E-10
4.57402E-11 1.65921E-10
4.87388E-11 1.65345E-10
5.18325E-11 1.64753E-10
5.50215E-11 1.64147E-10
5.83057E-11 1.63527E-10
6.16850E-11 1.62893E-10
6.51595E-11 1.62245E-10
6.87293E-11 1.61583E-10
7.23943E-11 1.60909E-10
7.61544E-11 1.60222E-10
1.18991E-10 1.52723E-10
1.71347E-10 1.44363E-10
2.33223E-10 1.35376E-10
3.04617E-10 1.26131E-10
3.85531E-10 1.16943E-10
4.75965E-10 1.07951E-10
5.75917E-10 9.93173E-11
6.85389E-10 9.12279E-11
8.04380E-10 8.37373E-11
9.32891E-10 7.68209E-11
1.07092E-09 7.04894E-11
1.21847E-09 6.47935E-11
1.37554E-09 5.96498E-11
1.54213E-09 5.50002E-11
1.71823E-09 5.08091E-11
1.90386E-09 4.70721E-11
2.09900E-09 4.37001E-11
2.30367E-09 4.06539E-11
2.51785E-09 3.79023E-11
2.74156E-09 3.54217E-11
2.97478E-09 3.31637E-11
3.21752E-09 3.11055E-11
3.46978E-09 2.92261E-11
3.73156E-09 2.75027E-11
4.00286E-09 2.59170E-11
4.28368E-09 2.44554E-11
4.57402E-09 2.31027E-11
4.87388E-09 2.18456E-11
5.18326E-09 2.06778E-11
5.50215E-09 1.95911E-11
5.83057E-09 1.85737E-11
6.16850E-09 1.76205E-11
6.51596E-09 1.67288E-11
6.87293E-09 1.58936E-11
7.23942E-09 1.51050E-11
7.61544E-09 1.43633E-11
1.18991E-08 8.90376E-12
1.71347E-08 5.68664E-12
2.33223E-08 3.85106E-12
3.04617E-08 2.69452E-12
3.85531E-08 1.93786E-12
4.75965E-08 1.43413E-12
5.75917E-08 1.08506E-12
6.85389E-08 8.32011E-13
8.04380E-08 6.46319E-13
9.32891E-08 5.09302E-13
1.07092E-07 4.06317E-13
1.21847E-07 3.27198E-13
1.37554E-07 2.66453E-13
1.54213E-07 2.19374E-13
1.71823E-07 1.82435E-13
1.90386E-07 1.53017E-13
2.09900E-07 1.29490E-13
2.30367E-07 1.10477E-13
2.51785E-07 9.49514E-14
2.74156E-07 8.21048E-14
2.97478E-07 7.14320E-14
3.21752E-07 6.24963E-14
3.46978E-07 5.49539E-14
3.73156E-07 4.84868E-14
4.00286E-07 4.29585E-14
4.28368E-07 3.82078E-14
4.57402E-07 3.40940E-14
4.87388E-07 3.05132E-14
5.18325E-07 2.73923E-14
5.50215E-07 2.46601E-14
5.83057E-07 2.22503E-14
6.16850E-07 2.01212E-14
6.51596E-07 1.82382E-14
6.87293E-07 1.65676E-14
7.23942E-07 1.50761E-14
7.61543E-07 1.37464E-14
1.18991E-06 6.01457E-15
1.71347E-06 3.02770E-15
2.33223E-06 1.68966E-15
3.04617E-06 1.01721E-15
3.85531E-06 6.48811E-16
4.75964E-06 4.33063E-16
5.75916E-06 2.99890E-16
6.85388E-06 2.14105E-16
8.04378E-06 1.56855E-16
9.32888E-06 1.17479E-16
1.07092E-05 8.97014E-17
1.21846E-05 6.96598E-17
1.37553E-05 5.49110E-17
1.54212E-05 4.38652E-17
1.71822E-05 3.54619E-17
1.90385E-05 2.89665E-17
2.09899E-05 2.39122E-17
2.30365E-05 1.99122E-17
2.51783E-05 1.67119E-17
2.74153E-05 1.41274E-17
2.97475E-05 1.20228E-17
3.21749E-05 1.02961E-17
3.46974E-05 8.86942E-18
3.73152E-05 7.68253E-18
4.00281E-05 6.68851E-18
4.28362E-05 5.85059E-18
4.57395E-05 5.13996E-18
4.87380E-05 4.53390E-18
5.18317E-05 4.01440E-18
5.50205E-05 3.56707E-18
5.83045E-05 3.18032E-18
6.16838E-05 2.84464E-18
6.51582E-05 2.55220E-18
6.87277E-05 2.29649E-18
7.23925E-05 2.07209E-18
7.61524E-05 1.87483E-18
9.21439E-05 1.28519E-18
1.09658E-04 9.10187E-19
1.28695E-04 6.62614E-19
1.49255E-04 4.93759E-19
1.71338E-04 3.75470E-19
1.94942E-04 2.90582E-19
2.20070E-04 2.28400E-19
2.46720E-04 1.82008E-19
2.74892E-04 1.46826E-19
3.04586E-04 1.19759E-19
3.35803E-04 9.86556E-20
3.68542E-04 8.20086E-20
4.02802E-04 6.87337E-20
4.38585E-04 5.80430E-20
4.75889E-04 4.93556E-20
5.14715E-04 4.22368E-20
5.55063E-04 3.63589E-20
5.96931E-04 3.14707E-20
6.40321E-04 2.73787E-20
6.85233E-04 2.39321E-20
7.31665E-04 2.10123E-20
7.79618E-04 1.85257E-20
8.29092E-04 1.63971E-20
8.80086E-04 1.45665E-20
9.32601E-04 1.29850E-20
9.86636E-04 1.16131E-20
1.04219E-03 1.04182E-20
1.09927E-03 9.37360E-21
1.15786E-03 8.45711E-21
1.21797E-03 7.65030E-21
1.27961E-03 6.93779E-21
1.34276E-03 6.30664E-21
1.40743E-03 5.74591E-21
1.47362E-03 5.24636E-21
1.54133E-03 4.80016E-21
1.61056E-03 4.40059E-21
1.68131E-03 4.04192E-21
1.75357E-03 3.71921E-21
1.82735E-03 3.42821E-21
1.90265E-03 3.16525E-21
1.97947E-03 2.92714E-21
2.05780E-03 2.71111E-21
2.13765E-03 2.51474E-21
2.21902E-03 2.33591E-21
2.30190E-03 2.17278E-21
2.38630E-03 2.02372E-21
2.47222E-03 1.88729E-21
2.55965E-03 1.76223E-21
2.64859E-03 1.64741E-21
2.73905E-03 1.54184E-21
2.83103E-03 1.44464E-21
2.92452E-03 1.35502E-21
3.01952E-03 1.27229E-21
3.11604E-03 1.19581E-21
3.21407E-03 1.12503E-21
3.31362E-03 1.05943E-21
3.41468E-03 9.98578E-22
3.51725E-03 9.42059E-22
3.62133E-03 8.89508E-22
3.72692E-03 8.40592E-22
3.83403E-03 7.95014E-22
3.94265E-03 7.52503E-22
4.05278E-03 7.12816E-22
4.16442E-03 6.75727E-22
4.27757E-03 6.41034E-22
4.39223E-03 6.08554E-22
4.50840E-03 5.78120E-22
4.62608E-03 5.49578E-22
4.74527E-03 5.22787E-22
4.86597E-03 4.97619E-22
4.98817E-03 4.73960E-22
5.11188E-03 4.51700E-22
5.23711E-03 4.30739E-22
5.36383E-03 4.10989E-22
5.49207E-03 3.92367E-22
5.62181E-03 3.74795E-22
5.75306E-03 3.58202E-22
5.88581E-03 3.42524E-22
6.02007E-03 3.27702E-22
6.15583E-03 3.13678E-22
6.29310E-03 3.00401E-22
6.43187E-03 2.87825E-22
6.57214E-03 2.75906E-22
6.71392E-03 2.64600E-22
6.85720E-03 2.53873E-22
7.00198E-03 2.43688E-22
7.14827E-03 2.34012E-22
7.29605E-03 2.24815E-22
7.44534E-03 2.16069E-22
7.59612E-03 2.07748E-22
7.97965E-03 1.88643E-22
8.37255E-03 1.71700E-22
8.77480E-03 1.56630E-22
9.18641E-03 1.43189E-22
9.60736E-03 1.31169E-22
1.00376E-02 1.20393E-22
1.04773E-02 1.10709E-22
1.09262E-02 1.01986E-22
1.13844E-02 9.41111E-23
1.18520E-02 8.69868E-23
1.23288E-02 8.05284E-23
1.28150E-02 7.46624E-23
1.33104E-02 6.93242E-23
1.38150E-02 6.44578E-23
1.43290E-02 6.00131E-23
1.48521E-02 5.59470E-23
1.53845E-02 5.22215E-23
1.59262E-02 4.88026E-23
1.64770E-02 4.56605E-23
1.70371E-02 4.27685E-23
1.76063E-02 4.01030E-23
1.81848E-02 3.76428E-23
1.87724E-02 3.53693E-23
1.93692E-02 3.32655E-23
1.99751E-02 3.13165E-23
2.05901E-02 2.95086E-23
2.12143E-02 2.78297E-23
2.18476E-02 2.62689E-23
2.24900E-02 2.48162E-23
2.31415E-02 2.34628E-23
2.38021E-02 2.22006E-23
2.44717E-02 2.10223E-23
2.51504E-02 1.99212E-23
2.58382E-02 1.88913E-23
2.65349E-02 1.79272E-23
2.72407E-02 1.70237E-23
2.79555E-02 1.61765E-23
2.86793E-02 1.53812E-23
2.94120E-02 1.46342E-23
3.01537E-02 1.39319E-23
3.09043E-02 1.32711E-23
3.16639E-02 1.26489E-23
3.24324E-02 1.20627E-23
3.32098E-02 1.15099E-23
3.39961E-02 1.09883E-23
3.47912E-02 1.04958E-23
3.55952E-02 1.00304E-23
3.64081E-02 9.59039E-24
3.72297E-02 9.17410E-24
3.80602E-02 8.78000E-24
3.88995E-02 8.40669E-24
3.97476E-02 8.05285E-24
4.06044E-02 7.71729E-24
4.14700E-02 7.39886E-24
4.23443E-02 7.09655E-24
4.32273E-02 6.80936E-24
4.41190E-02 6.53640E-24
4.50194E-02 6.27683E-24
4.59284E-02 6.02987E-24
4.68461E-02 5.79478E-24
4.87074E-02 5.35758E-24
5.06030E-02 4.96029E-24
5.25328E-02 4.59862E-24
5.44967E-02 4.26881E-24
5.64946E-02 3.96753E-24
5.85262E-02 3.69189E-24
6.05914E-02 3.43932E-24
6.26901E-02 3.20753E-24
6.48222E-02 2.99451E-24
6.69873E-02 2.79847E-24
6.91854E-02 2.61782E-24
7.14163E-02 2.45113E-24
7.36799E-02 2.29714E-24
7.59760E-02 2.15470E-24
7.83043E-02 2.02281E-24
8.06647E-02 1.90053E-24
8.30571E-02 1.78705E-24
8.54812E-02 1.68163E-24
8.79369E-02 1.58358E-24
9.04240E-02 1.49232E-24
9.29422E-02 1.40728E-24
9.54915E-02 1.32797E-24
9.80716E-02 1.25394E-24
1.00682E-01 1.18477E-24
1.03323E-01 1.12009E-24
1.05995E-01 1.05957E-24
1.08696E-01 1.00289E-24
1.11427E-01 9.49760E-25
1.14188E-01 8.99928E-25
1.16978E-01 8.53153E-25
1.19797E-01 8.09216E-25
1.22645E-01 7.67918E-25
1.25522E-01 7.29073E-25
1.28428E-01 6.92513E-25
1.31361E-01 6.58081E-25
1.34323E-01 6.25634E-25
1.37313E-01 5.95038E-25
1.40330E-01 5.66173E-25
1.43375E-01 5.38923E-25
1.46447E-01 5.13186E-25
1.49545E-01 4.88863E-25
1.52671E-01 4.65865E-25
1.55823E-01 4.44109E-25
1.59001E-01 4.23518E-25
1.62205E-01 4.04019E-25
1.65435E-01 3.85546E-25
1.68690E-01 3.68038E-25
1.71970E-01 3.51435E-25
1.75276E-01 3.35685E-25
1.78606E-01 3.20737E-25
1.81961E-01 3.06545E-25
1.85340E-01 2.93064E-25
1.88743E-01 2.80254E-25
1.92169E-01 2.68078E-25
1.95619E-01 2.56498E-25
1.99092E-01 2.45482E-25
2.02589E-01 2.34999E-25
2.06107E-01 2.25020E-25
2.09649E-01 2.15516E-25
2.13212E-01 2.06462E-25
2.16797E-01 1.97834E-25
2.20404E-01 1.89609E-25
2.24032E-01 1.81767E-25
2.27680E-01 1.74286E-25
2.31350E-01 1.67148E-25
2.35040E-01 1.60336E-25
2.38751E-01 1.53832E-25
2.42481E-01 1.47621E-25
2.46231E-01 1.41688E-25
2.50000E-01 1.36019E-25
2.53788E-01 1.30601E-25
2.57595E-01 1.25421E-25
2.61421E-01 1.20468E-25
2.65264E-01 1.15730E-25
2.69126E-01 1.11198E-25
2.73005E-01 1.06861E-25
2.76901E-01 1.02710E-25
2.80814E-01 9.87351E-26
2.84744E-01 9.49292E-26
2.88691E-01 9.12839E-26
2.92653E-01 8.77916E-26
2.96632E-01 8.44453E-26
3.00625E-01 8.12382E-26
3.04634E-01 7.81639E-26
3.08658E-01 7.52162E-26
3.12697E-01 7.23894E-26
3.16749E-01 6.96781E-26
3.20816E-01 6.70770E-26
3.24896E-01 6.45813E-26
3.28990E-01 6.21861E-26
3.33097E-01 5.98871E-26
3.37216E-01 5.76800E-26
3.41348E-01 5.55608E-26
3.45492E-01 5.35256E-26
3.49647E-01 5.15708E-26
3.53814E-01 4.96929E-26
3.57992E-01 4.78886E-26
3.62181E-01 4.61547E-26
3.66381E-01 4.44883E-26
3.70590E-01 4.28865E-26
3.74810E-01 4.13466E-26
3.79039E-01 3.98659E-26
3.83277E-01 3.84420E-26
3.87524E-01 3.70725E-26
3.91780E-01 3.57552E-26
3.96044E-01 3.44878E-26
4.00316E-01 3.32685E-26
4.04596E-01 3.20950E-26
4.08882E-01 3.09657E-26
4.13176E-01 2.98787E-26
4.17476E-01 2.88323E-26
4.21783E-01 2.78249E-26
4.26095E-01 2.68549E-26
4.30413E-01 2.59207E-26
4.34737E-01 2.50211E-26
4.39065E-01 2.41545E-26
4.43398E-01 2.33198E-26
4.47736E-01 2.25155E-26
4.52077E-01 2.17406E-26
4.56422E-01 2.09939E-26
4.60770E-01 2.02743E-26
4.65122E-01 1.95808E-26
4.69476E-01 1.89122E-26
4.73832E-01 1.82678E-26
4.78190E-01 1.76464E-26
4.82550E-01 1.70473E-26
4.86912E-01 1.64696E-26
4.91274E-01 1.59125E-26
4.95637E-01 1.53752E-26
5.00000E-01 1.48570E-26
5.04363E-01 1.43571E-26
5.08726E-01 1.38748E-26
5.13088E-01 1.34095E-26
5.17450E-01 1.29606E-26
5.21810E-01 1.25273E-26
5.26168E-01 1.21093E-26
5.30524E-01 1.17058E-26
5.34878E-01 1.13164E-26
5.39230E-01 1.09404E-26
5.43578E-01 1.05776E-26
5.47923E-01 1.02272E-26
5.52264E-01 9.88900E-27
5.56602E-01 9.56241E-27
5.60935E-01 9.24705E-27
5.65263E-01 8.94250E-27
5.69587E-01 8.64838E-27
5.73905E-01 8.36431E-27
5.78217E-01 8.08992E-27
5.82524E-01 7.82487E-27
5.86824E-01 7.56882E-27
5.91118E-01 7.32145E-27
5.95404E-01 7.08245E-27
5.99684E-01 6.85152E-27
6.03956E-01 6.62837E-27
6.08220E-01 6.41273E-27
6.12476E-01 6.20432E-27
6.16723E-01 6.00291E-27
6.20961E-01 5.80823E-27
6.25190E-01 5.62005E-27
6.29410E-01 5.43814E-27
6.33619E-01 5.26229E-27
6.37819E-01 5.09228E-27
6.42008E-01 4.92791E-27
6.46186E-01 4.76897E-27
6.50353E-01 4.61529E-27
6.54508E-01 4.46667E-27
6.58652E-01 4.32295E-27
6.62784E-01 4.18395E-27
6.66903E-01 4.04952E-27
6.71010E-01 3.91949E-27
6.75104E-01 3.79371E-27
6.79184E-01 3.67203E-27
6.83251E-01 3.55432E-27
6.87303E-01 3.44045E-27
6.91342E-01 3.33027E-27
6.95366E-01 3.22366E-27
6.99375E-01 3.12051E-27
7.03368E-01 3.02069E-27
7.07347E-01 2.92409E-27
7.11309E-01 2.83060E-27
7.15256E-01 2.74012E-27
7.19186E-01 2.65255E-27
7.23099E-01 2.56779E-27
7.26995E-01 2.48573E-27
7.30874E-01 2.40630E-27
7.34736E-01 2.32941E-27
7.38579E-01 2.25496E-27
7.42405E-01 2.18289E-27
7.46212E-01 2.11310E-27
7.50000E-01 2.04552E-27
7.53769E-01 1.98009E-27
7.57519E-01 1.91672E-27
7.61249E-01 1.85535E-27
7.64960E-01 1.79592E-27
7.68650E-01 1.73835E-27
7.72320E-01 1.68260E-27
7.75968E-01 1.62859E-27
7.79596E-01 1.57627E-27
7.83203E-01 1.52559E-27
7.86788E-01 1.47649E-27
7.90351E-01 1.42893E-27
7.93893E-01 1.38284E-27
7.97411E-01 1.33819E-27
8.00908E-01 1.29492E-27
8.04381E-01 1.25299E-27
8.07831E-01 1.21236E-27
8.11257E-01 1.17299E-27
8.14660E-01 1.13483E-27
8.18039E-01 1.09784E-27
8.21394E-01 1.06200E-27
8.24724E-01 1.02725E-27
8.28030E-01 9.93577E-28
8.31310E-01 9.60932E-28
8.34565E-01 9.29285E-28
8.37795E-01 8.98606E-28
8.40999E-01 8.68864E-28
8.44177E-01 8.40028E-28
8.47329E-01 8.12071E-28
8.50455E-01 7.84964E-28
8.53553E-01 7.58680E-28
8.56625E-01 7.33195E-28
8.59670E-01 7.08482E-28
8.62687E-01 6.84517E-28
8.65677E-01 6.61278E-28
8.68639E-01 6.38741E-28
8.71572E-01 6.16885E-28
8.74478E-01 5.95688E-28
8.77355E-01 5.75131E-28
8.80203E-01 5.55193E-28
8.83022E-01 5.35855E-28
8.85812E-01 5.17100E-28
8.88573E-01 4.98908E-28
8.91304E-01 4.81264E-28
8.94005E-01 4.64150E-28
8.96677E-01 4.47551E-28
8.99318E-01 4.31450E-28
9.01928E-01 4.15833E-28
9.04508E-01 4.00685E-28
9.07058E-01 3.85993E-28
9.09576E-01 3.71742E-28
9.12063E-01 3.57920E-28
9.14519E-01 3.44514E-28
9.16943E-01 3.31511E-28
9.19335E-01 3.18901E-28
9.21696E-01 3.06671E-28
9.24024E-01 2.94810E-28
9.26320E-01 2.83309E-28
9.28584E-01 2.72156E-28
9.30815E-01 2.61341E-28
9.33013E-01 2.50855E-28
9.35178E-01 2.40689E-28
9.37310E-01 2.30833E-28
9.39409E-01 2.21280E-28
9.41474E-01 2.12020E-28
9.43505E-01 2.03045E-28
9.45503E-01 1.94348E-28
9.47467E-01 1.85922E-28
9.49397E-01 1.77758E-28
9.51293E-01 1.69850E-28
9.53154E-01 1.62191E-28
9.54981E-01 1.54774E-28
9.56773E-01 1.47594E-28
9.58530E-01 1.40643E-28
9.60252E-01 1.33917E-28
9.61940E-01 1.27410E-28
9.63592E-01 1.21115E-28
9.65209E-01 1.15028E-28
9.66790E-01 1.09144E-28
9.68336E-01 1.03457E-28
9.69846E-01 9.79640E-29
9.71321E-01 9.26591E-29
9.72759E-01 8.75383E-29
9.74162E-01 8.25974E-29
9.75528E-01 7.78324E-29
9.76858E-01 7.32394E-29
9.78152E-01 6.88147E-29
9.79410E-01 6.45545E-29
9.80631E-01 6.04556E-29
9.81815E-01 5.65145E-29
9.82963E-01 5.27282E-29
9.84074E-01 4.90935E-29
9.85148E-01 4.56076E-29
9.86185E-01 4.22676E-29
9.87185E-01 3.90709E-29
9.88148E-01 3.60150E-29
9.89074E-01 3.30975E-29
9.89962E-01 3.03160E-29
9.90814E-01 2.76683E-29
9.91627E-01 2.51524E-29
9.92404E-01 2.27662E-29
9.93143E-01 2.05080E-29
9.93844E-01 1.83758E-29
9.94508E-01 1.63682E-29
9.95134E-01 1.44834E-29
9.95722E-01 1.27201E-29
9.96273E-01 1.10768E-29
9.96786E-01 9.55237E-30
9.97261E-01 8.14549E-30
9.97698E-01 6.85512E-30
9.98097E-01 5.68026E-30
9.98459E-01 4.62001E-30
9.98782E-01 3.67355E-30
9.99067E-01 2.84014E-30
9.99315E-01 2.11914E-30
9.99524E-01 1.51000E-30
9.99695E-01 1.01226E-30
9.99829E-01 6.25515E-31
9.99924E-01 3.49484E-31
9.99981E-01 1.83950E-31
1.00000E+00 1.28786E-31
