 #
 # Subroutine ELSEPA. Elastic scattering of electrons and positrons
 #                    by neutral atoms and positive ions
 #
 # Projectile: electron
 # Kinetic energy = 8.00000E+06 eV = 2.93995E+05 a.u.
 #
 # WARNING: High-energy factorization with free-atom DF screening.
 #          Absorption, polarization and exchange corrections are
 #          switched off.
 #          Phase shifts are calculated for the bare nucleus.
 #          Scattering amplitudes are not evaluated.
 #
 # Element: Pr,  Z =  59,  atomic weight = 1.40908E+02 g/mol
 #
 # Nuclear model: Fermi distribution
 #                Average radius = 5.56795E-13 cm
 #                Skin thickness = 5.46000E-14 cm
 #
 # Number of electrons = 59
 #
 # Total elastic cross section = 7.30857E-18 cm**2 = 2.60994E-01 a0**2
 # 1st transport cross section = 8.30377E-23 cm**2 = 2.96533E-06 a0**2
 # 2nd transport cross section = 2.31300E-22 cm**2 = 8.25986E-06 a0**2
 #
 #
 # Differential cross section:                       MU=(1-COS(THETA))/2
 #
 #  THETA        MU          DCS          DCS        Sherman      error
 #  (deg)                 (cm**2/sr)   (a0**2/sr)    function
 #----------------------------------------------------------------------
0.00000E+00 7.73049E-12
7.61557E-13 7.73018E-12
1.18994E-12 7.73000E-12
1.71346E-12 7.72979E-12
2.33225E-12 7.72953E-12
3.04617E-12 7.72924E-12
3.85530E-12 7.72891E-12
4.75964E-12 7.72854E-12
5.75917E-12 7.72813E-12
6.85391E-12 7.72768E-12
8.04379E-12 7.72720E-12
9.32893E-12 7.72667E-12
1.07092E-11 7.72611E-12
1.21847E-11 7.72550E-12
1.37554E-11 7.72486E-12
1.54213E-11 7.72418E-12
1.71823E-11 7.72346E-12
1.90386E-11 7.72270E-12
2.09900E-11 7.72191E-12
2.30367E-11 7.72107E-12
2.51785E-11 7.72020E-12
2.74156E-11 7.71928E-12
2.97478E-11 7.71833E-12
3.21752E-11 7.71734E-12
3.46979E-11 7.71631E-12
3.73157E-11 7.71525E-12
4.00286E-11 7.71414E-12
4.28368E-11 7.71300E-12
4.57402E-11 7.71181E-12
4.87388E-11 7.71059E-12
5.18325E-11 7.70933E-12
5.50215E-11 7.70803E-12
5.83057E-11 7.70670E-12
6.16850E-11 7.70532E-12
6.51595E-11 7.70391E-12
6.87293E-11 7.70246E-12
7.23943E-11 7.70097E-12
7.61544E-11 7.69944E-12
1.18991E-10 7.68207E-12
1.71347E-10 7.66093E-12
2.33223E-10 7.63607E-12
3.04617E-10 7.60755E-12
3.85531E-10 7.57543E-12
4.75965E-10 7.53980E-12
5.75917E-10 7.50073E-12
6.85389E-10 7.45832E-12
8.04380E-10 7.41266E-12
9.32891E-10 7.36386E-12
1.07092E-09 7.31203E-12
1.21847E-09 7.25728E-12
1.37554E-09 7.19973E-12
1.54213E-09 7.13950E-12
1.71823E-09 7.07673E-12
1.90386E-09 7.01153E-12
2.09900E-09 6.94407E-12
2.30367E-09 6.87444E-12
2.51785E-09 6.80282E-12
2.74156E-09 6.72931E-12
2.97478E-09 6.65408E-12
3.21752E-09 6.57741E-12
3.46978E-09 6.50003E-12
3.73156E-09 6.42100E-12
4.00286E-09 6.34044E-12
4.28368E-09 6.25845E-12
4.57402E-09 6.17516E-12
4.87388E-09 6.09066E-12
5.18326E-09 6.00698E-12
5.50215E-09 5.92312E-12
5.83057E-09 5.83839E-12
6.16850E-09 5.75291E-12
6.51596E-09 5.66676E-12
6.87293E-09 5.58005E-12
7.23942E-09 5.49364E-12
7.61544E-09 5.40922E-12
1.18991E-08 4.57738E-12
1.71347E-08 3.83091E-12
2.33223E-08 3.19801E-12
3.04617E-08 2.68150E-12
3.85531E-08 2.26493E-12
4.75965E-08 1.93295E-12
5.75917E-08 1.66515E-12
6.85389E-08 1.44824E-12
8.04380E-08 1.26944E-12
9.32891E-08 1.12020E-12
1.07092E-07 9.93916E-13
1.21847E-07 8.85761E-13
1.37554E-07 7.92168E-13
1.54213E-07 7.10639E-13
1.71823E-07 6.38969E-13
1.90386E-07 5.75948E-13
2.09900E-07 5.19989E-13
2.30367E-07 4.70500E-13
2.51785E-07 4.26367E-13
2.74156E-07 3.87143E-13
2.97478E-07 3.52109E-13
3.21752E-07 3.20486E-13
3.46978E-07 2.90862E-13
3.73156E-07 2.65121E-13
4.00286E-07 2.42657E-13
4.28368E-07 2.22970E-13
4.57402E-07 2.05648E-13
4.87388E-07 1.90346E-13
5.18325E-07 1.75427E-13
5.50215E-07 1.61683E-13
5.83057E-07 1.49479E-13
6.16850E-07 1.38606E-13
6.51596E-07 1.28888E-13
6.87293E-07 1.20178E-13
7.23942E-07 1.12137E-13
7.61543E-07 1.04301E-13
1.18991E-06 5.51603E-14
1.71347E-06 3.16640E-14
2.33223E-06 1.92649E-14
3.04617E-06 1.23110E-14
3.85531E-06 8.24489E-15
4.75964E-06 5.74875E-15
5.75916E-06 4.15397E-15
6.85388E-06 3.08706E-15
8.04378E-06 2.34986E-15
9.32888E-06 1.82008E-15
1.07092E-05 1.43251E-15
1.21846E-05 1.14251E-15
1.37553E-05 9.21513E-16
1.54212E-05 7.50672E-16
1.71822E-05 6.16840E-16
1.90385E-05 5.11038E-16
2.09899E-05 4.27029E-16
2.30365E-05 3.59525E-16
2.51783E-05 3.04690E-16
2.74153E-05 2.59858E-16
2.97475E-05 2.22920E-16
3.21749E-05 1.92303E-16
3.46974E-05 1.66743E-16
3.73152E-05 1.45429E-16
4.00281E-05 1.27410E-16
4.28362E-05 1.12107E-16
4.57395E-05 9.91004E-17
4.87380E-05 8.78606E-17
5.18317E-05 7.82083E-17
5.50205E-05 6.98492E-17
5.83045E-05 6.25677E-17
6.16838E-05 5.62371E-17
6.51582E-05 5.06693E-17
6.87277E-05 4.57857E-17
7.23925E-05 4.14848E-17
7.61524E-05 3.76676E-17
9.21439E-05 2.61843E-17
1.09658E-04 1.87537E-17
1.28695E-04 1.37836E-17
1.49255E-04 1.03516E-17
1.71338E-04 7.92375E-18
1.94942E-04 6.16634E-18
2.20070E-04 4.86966E-18
2.46720E-04 3.89642E-18
2.74892E-04 3.15433E-18
3.04586E-04 2.58094E-18
3.35803E-04 2.13202E-18
3.68542E-04 1.77676E-18
4.02802E-04 1.49254E-18
4.38585E-04 1.26305E-18
4.75889E-04 1.07609E-18
5.14715E-04 9.22539E-19
5.55063E-04 7.95490E-19
5.96931E-04 6.89624E-19
6.40321E-04 6.00845E-19
6.85233E-04 5.25936E-19
7.31665E-04 4.62381E-19
7.79618E-04 4.08165E-19
8.29092E-04 3.61693E-19
8.80086E-04 3.21668E-19
9.32601E-04 2.87047E-19
9.86636E-04 2.56975E-19
1.04219E-03 2.30752E-19
1.09927E-03 2.07801E-19
1.15786E-03 1.87642E-19
1.21797E-03 1.69878E-19
1.27961E-03 1.54173E-19
1.34276E-03 1.40249E-19
1.40743E-03 1.27867E-19
1.47362E-03 1.16827E-19
1.54133E-03 1.06956E-19
1.61056E-03 9.81110E-20
1.68131E-03 9.01644E-20
1.75357E-03 8.30095E-20
1.82735E-03 7.65532E-20
1.90265E-03 7.07149E-20
1.97947E-03 6.54251E-20
2.05780E-03 6.06226E-20
2.13765E-03 5.62548E-20
2.21902E-03 5.22750E-20
2.30190E-03 4.86426E-20
2.38630E-03 4.53216E-20
2.47222E-03 4.22807E-20
2.55965E-03 3.94917E-20
2.64859E-03 3.69301E-20
2.73905E-03 3.45739E-20
2.83103E-03 3.24035E-20
2.92452E-03 3.04017E-20
3.01952E-03 2.85529E-20
3.11604E-03 2.68434E-20
3.21407E-03 2.52605E-20
3.31362E-03 2.37933E-20
3.41468E-03 2.24317E-20
3.51725E-03 2.11668E-20
3.62133E-03 1.99902E-20
3.72692E-03 1.88948E-20
3.83403E-03 1.78739E-20
3.94265E-03 1.69214E-20
4.05278E-03 1.60320E-20
4.16442E-03 1.52007E-20
4.27757E-03 1.44229E-20
4.39223E-03 1.36946E-20
4.50840E-03 1.30120E-20
4.62608E-03 1.23717E-20
4.74527E-03 1.17706E-20
4.86597E-03 1.12058E-20
4.98817E-03 1.06748E-20
5.11188E-03 1.01751E-20
5.23711E-03 9.70451E-21
5.36383E-03 9.26107E-21
5.49207E-03 8.84285E-21
5.62181E-03 8.44818E-21
5.75306E-03 8.07548E-21
5.88581E-03 7.72327E-21
6.02007E-03 7.39023E-21
6.15583E-03 7.07511E-21
6.29310E-03 6.77675E-21
6.43187E-03 6.49411E-21
6.57214E-03 6.22618E-21
6.71392E-03 5.97205E-21
6.85720E-03 5.73089E-21
7.00198E-03 5.50189E-21
7.14827E-03 5.28434E-21
7.29605E-03 5.07753E-21
7.44534E-03 4.88085E-21
7.59612E-03 4.69370E-21
7.97965E-03 4.26397E-21
8.37255E-03 3.88280E-21
8.77480E-03 3.54372E-21
9.18641E-03 3.24125E-21
9.60736E-03 2.97072E-21
1.00376E-02 2.72815E-21
1.04773E-02 2.51012E-21
1.09262E-02 2.31370E-21
1.13844E-02 2.13635E-21
1.18520E-02 1.97589E-21
1.23288E-02 1.83040E-21
1.28150E-02 1.69824E-21
1.33104E-02 1.57795E-21
1.38150E-02 1.46827E-21
1.43290E-02 1.36809E-21
1.48521E-02 1.27643E-21
1.53845E-02 1.19243E-21
1.59262E-02 1.11533E-21
1.64770E-02 1.04446E-21
1.70371E-02 9.79211E-22
1.76063E-02 9.19061E-22
1.81848E-02 8.63533E-22
1.87724E-02 8.12204E-22
1.93692E-02 7.64695E-22
1.99751E-02 7.20667E-22
2.05901E-02 6.79817E-22
2.12143E-02 6.41870E-22
2.18476E-02 6.06581E-22
2.24900E-02 5.73726E-22
2.31415E-02 5.43107E-22
2.38021E-02 5.14540E-22
2.44717E-02 4.87862E-22
2.51504E-02 4.62922E-22
2.58382E-02 4.39586E-22
2.65349E-02 4.17730E-22
2.72407E-02 3.97242E-22
2.79555E-02 3.78019E-22
2.86793E-02 3.59967E-22
2.94120E-02 3.43002E-22
3.01537E-02 3.27045E-22
3.09043E-02 3.12024E-22
3.16639E-02 2.97873E-22
3.24324E-02 2.84532E-22
3.32098E-02 2.71944E-22
3.39961E-02 2.60060E-22
3.47912E-02 2.48831E-22
3.55952E-02 2.38215E-22
3.64081E-02 2.28172E-22
3.72297E-02 2.18663E-22
3.80602E-02 2.09655E-22
3.88995E-02 2.01117E-22
3.97476E-02 1.93018E-22
4.06044E-02 1.85332E-22
4.14700E-02 1.78033E-22
4.23443E-02 1.71098E-22
4.32273E-02 1.64505E-22
4.41190E-02 1.58233E-22
4.50194E-02 1.52265E-22
4.59284E-02 1.46581E-22
4.68461E-02 1.41166E-22
4.87074E-02 1.31083E-22
5.06030E-02 1.21903E-22
5.25328E-02 1.13531E-22
5.44967E-02 1.05881E-22
5.64946E-02 9.88784E-23
5.85262E-02 9.24582E-23
6.05914E-02 8.65625E-23
6.26901E-02 8.11397E-23
6.48222E-02 7.61443E-23
6.69873E-02 7.15359E-23
6.91854E-02 6.72787E-23
7.14163E-02 6.33407E-23
7.36799E-02 5.96928E-23
7.59760E-02 5.63095E-23
7.83043E-02 5.31677E-23
8.06647E-02 5.02469E-23
8.30571E-02 4.75282E-23
8.54812E-02 4.49948E-23
8.79369E-02 4.26314E-23
9.04240E-02 4.04246E-23
9.29422E-02 3.83616E-23
9.54915E-02 3.64312E-23
9.80716E-02 3.46231E-23
1.00682E-01 3.29281E-23
1.03323E-01 3.13376E-23
1.05995E-01 2.98437E-23
1.08696E-01 2.84395E-23
1.11427E-01 2.71184E-23
1.14188E-01 2.58746E-23
1.16978E-01 2.47025E-23
1.19797E-01 2.35971E-23
1.22645E-01 2.25539E-23
1.25522E-01 2.15686E-23
1.28428E-01 2.06375E-23
1.31361E-01 1.97567E-23
1.34323E-01 1.89231E-23
1.37313E-01 1.81337E-23
1.40330E-01 1.73856E-23
1.43375E-01 1.66761E-23
1.46447E-01 1.60029E-23
1.49545E-01 1.53638E-23
1.52671E-01 1.47565E-23
1.55823E-01 1.41793E-23
1.59001E-01 1.36303E-23
1.62205E-01 1.31079E-23
1.65435E-01 1.26104E-23
1.68690E-01 1.21365E-23
1.71970E-01 1.16849E-23
1.75276E-01 1.12541E-23
1.78606E-01 1.08431E-23
1.81961E-01 1.04508E-23
1.85340E-01 1.00762E-23
1.88743E-01 9.71820E-24
1.92169E-01 9.37600E-24
1.95619E-01 9.04876E-24
1.99092E-01 8.73567E-24
2.02589E-01 8.43600E-24
2.06107E-01 8.14903E-24
2.09649E-01 7.87414E-24
2.13212E-01 7.61070E-24
2.16797E-01 7.35814E-24
2.20404E-01 7.11590E-24
2.24032E-01 6.88349E-24
2.27680E-01 6.66042E-24
2.31350E-01 6.44622E-24
2.35040E-01 6.24049E-24
2.38751E-01 6.04282E-24
2.42481E-01 5.85281E-24
2.46231E-01 5.67012E-24
2.50000E-01 5.49440E-24
2.53788E-01 5.32533E-24
2.57595E-01 5.16260E-24
2.61421E-01 5.00594E-24
2.65264E-01 4.85506E-24
2.69126E-01 4.70971E-24
2.73005E-01 4.56964E-24
2.76901E-01 4.43463E-24
2.80814E-01 4.30445E-24
2.84744E-01 4.17889E-24
2.88691E-01 4.05775E-24
2.92653E-01 3.94085E-24
2.96632E-01 3.82801E-24
3.00625E-01 3.71906E-24
3.04634E-01 3.61384E-24
3.08658E-01 3.51218E-24
3.12697E-01 3.41396E-24
3.16749E-01 3.31902E-24
3.20816E-01 3.22722E-24
3.24896E-01 3.13846E-24
3.28990E-01 3.05260E-24
3.33097E-01 2.96954E-24
3.37216E-01 2.88916E-24
3.41348E-01 2.81136E-24
3.45492E-01 2.73604E-24
3.49647E-01 2.66310E-24
3.53814E-01 2.59246E-24
3.57992E-01 2.52403E-24
3.62181E-01 2.45772E-24
3.66381E-01 2.39346E-24
3.70590E-01 2.33117E-24
3.74810E-01 2.27077E-24
3.79039E-01 2.21220E-24
3.83277E-01 2.15540E-24
3.87524E-01 2.10029E-24
3.91780E-01 2.04681E-24
3.96044E-01 1.99492E-24
4.00316E-01 1.94455E-24
4.04596E-01 1.89565E-24
4.08882E-01 1.84817E-24
4.13176E-01 1.80206E-24
4.17476E-01 1.75726E-24
4.21783E-01 1.71375E-24
4.26095E-01 1.67146E-24
4.30413E-01 1.63037E-24
4.34737E-01 1.59043E-24
4.39065E-01 1.55160E-24
4.43398E-01 1.51385E-24
4.47736E-01 1.47714E-24
4.52077E-01 1.44143E-24
4.56422E-01 1.40670E-24
4.60770E-01 1.37290E-24
4.65122E-01 1.34002E-24
4.69476E-01 1.30802E-24
4.73832E-01 1.27687E-24
4.78190E-01 1.24655E-24
4.82550E-01 1.21704E-24
4.86912E-01 1.18829E-24
4.91274E-01 1.16030E-24
4.95637E-01 1.13303E-24
5.00000E-01 1.10647E-24
5.04363E-01 1.08060E-24
5.08726E-01 1.05539E-24
5.13088E-01 1.03082E-24
5.17450E-01 1.00687E-24
5.21810E-01 9.83529E-25
5.26168E-01 9.60774E-25
5.30524E-01 9.38589E-25
5.34878E-01 9.16956E-25
5.39230E-01 8.95859E-25
5.43578E-01 8.75283E-25
5.47923E-01 8.55213E-25
5.52264E-01 8.35633E-25
5.56602E-01 8.16530E-25
5.60935E-01 7.97890E-25
5.65263E-01 7.79700E-25
5.69587E-01 7.61948E-25
5.73905E-01 7.44620E-25
5.78217E-01 7.27705E-25
5.82524E-01 7.11191E-25
5.86824E-01 6.95068E-25
5.91118E-01 6.79325E-25
5.95404E-01 6.63950E-25
5.99684E-01 6.48935E-25
6.03956E-01 6.34269E-25
6.08220E-01 6.19942E-25
6.12476E-01 6.05946E-25
6.16723E-01 5.92272E-25
6.20961E-01 5.78912E-25
6.25190E-01 5.65856E-25
6.29410E-01 5.53097E-25
6.33619E-01 5.40626E-25
6.37819E-01 5.28438E-25
6.42008E-01 5.16523E-25
6.46186E-01 5.04876E-25
6.50353E-01 4.93489E-25
6.54508E-01 4.82355E-25
6.58652E-01 4.71468E-25
6.62784E-01 4.60822E-25
6.66903E-01 4.50410E-25
6.71010E-01 4.40227E-25
6.75104E-01 4.30267E-25
6.79184E-01 4.20525E-25
6.83251E-01 4.10995E-25
6.87303E-01 4.01671E-25
6.91342E-01 3.92549E-25
6.95366E-01 3.83624E-25
6.99375E-01 3.74890E-25
7.03368E-01 3.66344E-25
7.07347E-01 3.57981E-25
7.11309E-01 3.49796E-25
7.15256E-01 3.41786E-25
7.19186E-01 3.33945E-25
7.23099E-01 3.26270E-25
7.26995E-01 3.18757E-25
7.30874E-01 3.11403E-25
7.34736E-01 3.04203E-25
7.38579E-01 2.97153E-25
7.42405E-01 2.90252E-25
7.46212E-01 2.83494E-25
7.50000E-01 2.76877E-25
7.53769E-01 2.70398E-25
7.57519E-01 2.64052E-25
7.61249E-01 2.57839E-25
7.64960E-01 2.51753E-25
7.68650E-01 2.45794E-25
7.72320E-01 2.39957E-25
7.75968E-01 2.34240E-25
7.79596E-01 2.28640E-25
7.83203E-01 2.23155E-25
7.86788E-01 2.17782E-25
7.90351E-01 2.12519E-25
7.93893E-01 2.07364E-25
7.97411E-01 2.02314E-25
8.00908E-01 1.97366E-25
8.04381E-01 1.92520E-25
8.07831E-01 1.87771E-25
8.11257E-01 1.83120E-25
8.14660E-01 1.78563E-25
8.18039E-01 1.74098E-25
8.21394E-01 1.69724E-25
8.24724E-01 1.65438E-25
8.28030E-01 1.61239E-25
8.31310E-01 1.57126E-25
8.34565E-01 1.53096E-25
8.37795E-01 1.49147E-25
8.40999E-01 1.45279E-25
8.44177E-01 1.41488E-25
8.47329E-01 1.37775E-25
8.50455E-01 1.34137E-25
8.53553E-01 1.30573E-25
8.56625E-01 1.27082E-25
8.59670E-01 1.23661E-25
8.62687E-01 1.20310E-25
8.65677E-01 1.17028E-25
8.68639E-01 1.13812E-25
8.71572E-01 1.10662E-25
8.74478E-01 1.07577E-25
8.77355E-01 1.04555E-25
8.80203E-01 1.01595E-25
8.83022E-01 9.86965E-26
8.85812E-01 9.58575E-26
8.88573E-01 9.30773E-26
8.91304E-01 9.03549E-26
8.94005E-01 8.76891E-26
8.96677E-01 8.50790E-26
8.99318E-01 8.25236E-26
9.01928E-01 8.00220E-26
9.04508E-01 7.75732E-26
9.07058E-01 7.51763E-26
9.09576E-01 7.28304E-26
9.12063E-01 7.05347E-26
9.14519E-01 6.82882E-26
9.16943E-01 6.60903E-26
9.19335E-01 6.39401E-26
9.21696E-01 6.18368E-26
9.24024E-01 5.97797E-26
9.26320E-01 5.77679E-26
9.28584E-01 5.58009E-26
9.30815E-01 5.38779E-26
9.33013E-01 5.19982E-26
9.35178E-01 5.01612E-26
9.37310E-01 4.83661E-26
9.39409E-01 4.66125E-26
9.41474E-01 4.48996E-26
9.43505E-01 4.32268E-26
9.45503E-01 4.15937E-26
9.47467E-01 3.99995E-26
9.49397E-01 3.84439E-26
9.51293E-01 3.69261E-26
9.53154E-01 3.54458E-26
9.54981E-01 3.40023E-26
9.56773E-01 3.25953E-26
9.58530E-01 3.12242E-26
9.60252E-01 2.98886E-26
9.61940E-01 2.85880E-26
9.63592E-01 2.73220E-26
9.65209E-01 2.60901E-26
9.66790E-01 2.48920E-26
9.68336E-01 2.37272E-26
9.69846E-01 2.25954E-26
9.71321E-01 2.14961E-26
9.72759E-01 2.04290E-26
9.74162E-01 1.93938E-26
9.75528E-01 1.83901E-26
9.76858E-01 1.74176E-26
9.78152E-01 1.64760E-26
9.79410E-01 1.55649E-26
9.80631E-01 1.46841E-26
9.81815E-01 1.38332E-26
9.82963E-01 1.30121E-26
9.84074E-01 1.22203E-26
9.85148E-01 1.14578E-26
9.86185E-01 1.07241E-26
9.87185E-01 1.00191E-26
9.88148E-01 9.34262E-27
9.89074E-01 8.69435E-27
9.89962E-01 8.07410E-27
9.90814E-01 7.48168E-27
9.91627E-01 6.91690E-27
9.92404E-01 6.37957E-27
9.93143E-01 5.86954E-27
9.93844E-01 5.38662E-27
9.94508E-01 4.93067E-27
9.95134E-01 4.50155E-27
9.95722E-01 4.09911E-27
9.96273E-01 3.72323E-27
9.96786E-01 3.37379E-27
9.97261E-01 3.05067E-27
9.97698E-01 2.75378E-27
9.98097E-01 2.48302E-27
9.98459E-01 2.23831E-27
9.98782E-01 2.01956E-27
9.99067E-01 1.82671E-27
9.99315E-01 1.65969E-27
9.99524E-01 1.51846E-27
9.99695E-01 1.40297E-27
9.99829E-01 1.31318E-27
9.99924E-01 1.24907E-27
9.99981E-01 1.21061E-27
1.00000E+00 1.19779E-27
