 #
 # Subroutine ELSEPA. Elastic scattering of electrons and positrons
 #                    by neutral atoms and positive ions
 #
 # Projectile: electron
 # Kinetic energy = 3.00000E+08 eV = 1.10248E+07 a.u.
 #
 # WARNING: High-energy factorization with free-atom DF screening.
 #          Absorption, polarization and exchange corrections are
 #          switched off.
 #          Phase shifts are calculated for the bare nucleus.
 #          Scattering amplitudes are not evaluated.
 #
 # Element: Pr,  Z =  59,  atomic weight = 1.40908E+02 g/mol
 #
 # Nuclear model: Fermi distribution
 #                Average radius = 5.56795E-13 cm
 #                Skin thickness = 5.46000E-14 cm
 #
 # Number of electrons = 59
 #
 # Total elastic cross section = 7.27541E-18 cm**2 = 2.59810E-01 a0**2
 # 1st transport cross section = 7.50667E-26 cm**2 = 2.68068E-09 a0**2
 # 2nd transport cross section = 2.24965E-25 cm**2 = 8.03365E-09 a0**2
 #
 #
 # Differential cross section:                       MU=(1-COS(THETA))/2
 #
 #  THETA        MU          DCS          DCS        Sherman      error
 #  (deg)                 (cm**2/sr)   (a0**2/sr)    function
 #----------------------------------------------------------------------
0.00000E+00 9.63755E-09
7.61557E-13 9.17086E-09
1.18994E-12 8.92440E-09
1.71346E-12 8.63765E-09
2.33225E-12 8.31788E-09
3.04617E-12 7.97491E-09
3.85530E-12 7.61025E-09
4.75964E-12 7.23868E-09
5.75917E-12 6.85793E-09
6.85391E-12 6.48430E-09
8.04379E-12 6.11238E-09
9.32893E-12 5.75422E-09
1.07092E-11 5.40727E-09
1.21847E-11 5.07695E-09
1.37554E-11 4.76414E-09
1.54213E-11 4.46801E-09
1.71823E-11 4.19284E-09
1.90386E-11 3.93271E-09
2.09900E-11 3.69464E-09
2.30367E-11 3.47008E-09
2.51785E-11 3.26537E-09
2.74156E-11 3.07368E-09
2.97478E-11 2.89795E-09
3.21752E-11 2.73477E-09
3.46979E-11 2.58420E-09
3.73157E-11 2.44514E-09
4.00286E-11 2.31600E-09
4.28368E-11 2.19702E-09
4.57402E-11 2.08592E-09
4.87388E-11 1.98350E-09
5.18325E-11 1.88762E-09
5.50215E-11 1.79865E-09
5.83057E-11 1.71534E-09
6.16850E-11 1.63755E-09
6.51595E-11 1.56459E-09
6.87293E-11 1.49615E-09
7.23943E-11 1.43174E-09
7.61544E-11 1.37118E-09
1.18991E-10 9.16061E-10
1.71347E-10 6.33658E-10
2.33223E-10 4.48781E-10
3.04617E-10 3.21631E-10
3.85531E-10 2.40161E-10
4.75965E-10 1.81017E-10
5.75917E-10 1.40644E-10
6.85389E-10 1.09908E-10
8.04380E-10 8.78277E-11
9.32891E-10 7.06477E-11
1.07092E-09 5.76025E-11
1.21847E-09 4.73040E-11
1.37554E-09 3.91571E-11
1.54213E-09 3.26762E-11
1.71823E-09 2.74011E-11
1.90386E-09 2.31797E-11
2.09900E-09 1.96768E-11
2.30367E-09 1.68443E-11
2.51785E-09 1.44762E-11
2.74156E-09 1.25291E-11
2.97478E-09 1.08953E-11
3.21752E-09 9.52872E-12
3.46978E-09 8.37433E-12
3.73156E-09 7.39431E-12
4.00286E-09 6.55974E-12
4.28368E-09 5.84148E-12
4.57402E-09 5.22487E-12
4.87388E-09 4.68723E-12
5.18326E-09 4.22148E-12
5.50215E-09 3.81190E-12
5.83057E-09 3.45348E-12
6.16850E-09 3.13682E-12
6.51596E-09 2.85590E-12
6.87293E-09 2.60556E-12
7.23942E-09 2.38196E-12
7.61544E-09 2.18262E-12
1.18991E-08 9.93989E-13
1.71347E-08 5.10076E-13
2.33223E-08 2.86891E-13
3.04617E-08 1.73460E-13
3.85531E-08 1.11084E-13
4.75965E-08 7.44897E-14
5.75917E-08 5.18384E-14
6.85389E-08 3.71739E-14
8.04380E-08 2.73518E-14
9.32891E-08 2.05653E-14
1.07092E-07 1.57537E-14
1.21847E-07 1.22691E-14
1.37554E-07 9.69346E-15
1.54213E-07 7.75824E-15
1.71823E-07 6.28209E-15
1.90386E-07 5.13972E-15
2.09900E-07 4.24541E-15
2.30367E-07 3.53717E-15
2.51785E-07 2.97041E-15
2.74156E-07 2.51275E-15
2.97478E-07 2.13985E-15
3.21752E-07 1.83362E-15
3.46978E-07 1.58028E-15
3.73156E-07 1.36920E-15
4.00286E-07 1.19223E-15
4.28368E-07 1.04297E-15
4.57402E-07 9.16357E-16
4.87388E-07 8.08403E-16
5.18325E-07 7.15895E-16
5.50215E-07 6.36255E-16
5.83057E-07 5.67398E-16
6.16850E-07 5.07611E-16
6.51596E-07 4.55500E-16
6.87293E-07 4.09914E-16
7.23942E-07 3.69890E-16
7.61543E-07 3.34638E-16
1.18991E-06 1.38285E-16
1.71347E-06 6.70805E-17
2.33223E-06 3.63540E-17
3.04617E-06 2.13705E-17
3.85531E-06 1.33692E-17
4.75964E-06 8.78522E-18
5.75916E-06 6.00769E-18
6.85388E-06 4.24594E-18
8.04378E-06 3.08510E-18
9.32888E-06 2.29519E-18
1.07092E-05 1.74266E-18
1.21846E-05 1.34683E-18
1.37553E-05 1.05727E-18
1.54212E-05 8.41519E-19
1.71822E-05 6.78102E-19
1.90385E-05 5.52286E-19
2.09899E-05 4.54713E-19
2.30365E-05 3.77728E-19
2.51783E-05 3.16308E-19
2.74153E-05 2.66832E-19
2.97475E-05 2.26639E-19
3.21749E-05 1.93737E-19
3.46974E-05 1.66608E-19
3.73152E-05 1.44082E-19
4.00281E-05 1.25251E-19
4.28362E-05 1.09405E-19
4.57395E-05 9.59880E-20
4.87380E-05 8.45632E-20
5.18317E-05 7.47849E-20
5.50205E-05 6.63772E-20
5.83045E-05 5.91178E-20
6.16838E-05 5.28250E-20
6.51582E-05 4.73496E-20
6.87277E-05 4.25674E-20
7.23925E-05 3.83755E-20
7.61524E-05 3.48560E-20
9.21439E-05 2.38411E-20
1.09658E-04 1.68556E-20
1.28695E-04 1.22542E-20
1.49255E-04 9.12144E-21
1.71338E-04 6.92987E-21
1.94942E-04 5.35889E-21
2.20070E-04 4.20910E-21
2.46720E-04 3.35190E-21
2.74892E-04 2.70211E-21
3.04586E-04 2.20239E-21
3.35803E-04 1.81292E-21
3.68542E-04 1.50578E-21
4.02802E-04 1.26092E-21
4.38585E-04 1.06376E-21
4.75889E-04 9.03584E-22
5.14715E-04 7.72355E-22
5.55063E-04 6.64022E-22
5.96931E-04 5.73950E-22
6.40321E-04 4.98569E-22
6.85233E-04 4.35095E-22
7.31665E-04 3.81342E-22
7.79618E-04 3.35578E-22
8.29092E-04 2.96421E-22
8.80086E-04 2.62760E-22
9.32601E-04 2.33696E-22
9.86636E-04 2.08497E-22
1.04219E-03 1.86563E-22
1.09927E-03 1.67401E-22
1.15786E-03 1.50603E-22
1.21797E-03 1.35827E-22
1.27961E-03 1.22789E-22
1.34276E-03 1.11252E-22
1.40743E-03 1.01012E-22
1.47362E-03 9.19001E-23
1.54133E-03 8.37707E-23
1.61056E-03 7.65002E-23
1.68131E-03 6.99826E-23
1.75357E-03 6.41268E-23
1.82735E-03 5.88545E-23
1.90265E-03 5.40978E-23
1.97947E-03 4.97977E-23
2.05780E-03 4.59033E-23
2.13765E-03 4.23698E-23
2.21902E-03 3.91583E-23
2.30190E-03 3.62345E-23
2.38630E-03 3.35685E-23
2.47222E-03 3.11337E-23
2.55965E-03 2.89069E-23
2.64859E-03 2.68673E-23
2.73905E-03 2.49966E-23
2.83103E-03 2.32787E-23
2.92452E-03 2.16989E-23
3.01952E-03 2.02445E-23
3.11604E-03 1.89038E-23
3.21407E-03 1.76666E-23
3.31362E-03 1.65236E-23
3.41468E-03 1.54665E-23
3.51725E-03 1.44878E-23
3.62133E-03 1.35808E-23
3.72692E-03 1.27394E-23
3.83403E-03 1.19582E-23
3.94265E-03 1.12321E-23
4.05278E-03 1.05568E-23
4.16442E-03 9.92809E-24
4.27757E-03 9.34228E-24
4.39223E-03 8.79603E-24
4.50840E-03 8.28625E-24
4.62608E-03 7.81016E-24
4.74527E-03 7.36520E-24
4.86597E-03 6.94905E-24
4.98817E-03 6.55956E-24
5.11188E-03 6.19479E-24
5.23711E-03 5.85294E-24
5.36383E-03 5.53237E-24
5.49207E-03 5.23157E-24
5.62181E-03 4.94916E-24
5.75306E-03 4.68385E-24
5.88581E-03 4.43447E-24
6.02007E-03 4.19994E-24
6.15583E-03 3.97925E-24
6.29310E-03 3.77148E-24
6.43187E-03 3.57576E-24
6.57214E-03 3.39133E-24
6.71392E-03 3.21743E-24
6.85720E-03 3.05339E-24
7.00198E-03 2.89859E-24
7.14827E-03 2.75243E-24
7.29605E-03 2.61438E-24
7.44534E-03 2.48393E-24
7.59612E-03 2.36062E-24
7.97965E-03 2.08075E-24
8.37255E-03 1.83679E-24
8.77480E-03 1.62365E-24
9.18641E-03 1.43705E-24
9.60736E-03 1.27339E-24
1.00376E-02 1.12957E-24
1.04773E-02 1.00298E-24
1.09262E-02 8.91377E-25
1.13844E-02 7.92848E-25
1.18520E-02 7.05739E-25
1.23288E-02 6.28628E-25
1.28150E-02 5.60287E-25
1.33104E-02 4.99652E-25
1.38150E-02 4.45799E-25
1.43290E-02 3.97924E-25
1.48521E-02 3.55326E-25
1.53845E-02 3.17393E-25
1.59262E-02 2.83590E-25
1.64770E-02 2.53447E-25
1.70371E-02 2.26551E-25
1.76063E-02 2.02539E-25
1.81848E-02 1.81091E-25
1.87724E-02 1.61926E-25
1.93692E-02 1.44793E-25
1.99751E-02 1.29473E-25
2.05901E-02 1.15769E-25
2.12143E-02 1.03508E-25
2.18476E-02 9.25365E-26
2.24900E-02 8.27170E-26
2.31415E-02 7.39280E-26
2.38021E-02 6.60608E-26
2.44717E-02 5.90187E-26
2.51504E-02 5.27154E-26
2.58382E-02 4.70738E-26
2.65349E-02 4.20250E-26
2.72407E-02 3.75075E-26
2.79555E-02 3.34660E-26
2.86793E-02 2.98513E-26
2.94120E-02 2.66191E-26
3.01537E-02 2.37299E-26
3.09043E-02 2.11481E-26
3.16639E-02 1.88418E-26
3.24324E-02 1.67825E-26
3.32098E-02 1.49446E-26
3.39961E-02 1.33050E-26
3.47912E-02 1.18430E-26
3.55952E-02 1.05401E-26
3.64081E-02 9.37962E-27
3.72297E-02 8.34657E-27
3.80602E-02 7.42753E-27
3.88995E-02 6.61041E-27
3.97476E-02 5.88438E-27
4.06044E-02 5.23971E-27
4.14700E-02 4.66765E-27
4.23443E-02 4.16036E-27
4.32273E-02 3.71082E-27
4.41190E-02 3.31272E-27
4.50194E-02 2.96039E-27
4.59284E-02 2.64877E-27
4.68461E-02 2.37332E-27
4.87074E-02 1.91510E-27
5.06030E-02 1.55811E-27
5.25328E-02 1.28028E-27
5.44967E-02 1.06408E-27
5.64946E-02 8.95593E-28
5.85262E-02 7.63848E-28
6.05914E-02 6.60228E-28
6.26901E-02 5.78004E-28
6.48222E-02 5.11961E-28
6.69873E-02 4.58086E-28
6.91854E-02 4.13315E-28
7.14163E-02 3.75337E-28
7.36799E-02 3.42427E-28
7.59760E-02 3.13315E-28
7.83043E-02 2.87080E-28
8.06647E-02 2.63070E-28
8.30571E-02 2.40832E-28
8.54812E-02 2.20061E-28
8.79369E-02 2.00559E-28
9.04240E-02 1.82204E-28
9.29422E-02 1.64924E-28
9.54915E-02 1.48680E-28
9.80716E-02 1.33453E-28
1.00682E-01 1.19234E-28
1.03323E-01 1.06017E-28
1.05995E-01 9.37915E-29
1.08696E-01 8.25460E-29
1.11427E-01 7.22609E-29
1.14188E-01 6.29101E-29
1.16978E-01 5.44611E-29
1.19797E-01 4.68750E-29
1.22645E-01 4.01079E-29
1.25522E-01 3.41116E-29
1.28428E-01 2.88347E-29
1.31361E-01 2.42237E-29
1.34323E-01 2.02242E-29
1.37313E-01 1.67816E-29
1.40330E-01 1.38423E-29
1.43375E-01 1.13539E-29
1.46447E-01 9.26625E-30
1.49545E-01 7.53183E-30
1.52671E-01 6.10596E-30
1.55823E-01 4.94715E-30
1.59001E-01 4.01729E-30
1.62205E-01 3.28166E-30
1.65435E-01 2.70898E-30
1.68690E-01 2.27131E-30
1.71970E-01 1.94394E-30
1.75276E-01 1.70526E-30
1.78606E-01 1.53654E-30
1.81961E-01 1.42176E-30
1.85340E-01 1.34737E-30
1.88743E-01 1.30206E-30
1.92169E-01 1.27655E-30
1.95619E-01 1.26335E-30
1.99092E-01 1.25654E-30
2.02589E-01 1.25158E-30
2.06107E-01 1.24511E-30
2.09649E-01 1.23474E-30
2.13212E-01 1.21894E-30
2.16797E-01 1.19682E-30
2.20404E-01 1.16808E-30
2.24032E-01 1.13281E-30
2.27680E-01 1.09144E-30
2.31350E-01 1.04461E-30
2.35040E-01 9.93149E-31
2.38751E-01 9.37953E-31
2.42481E-01 8.79971E-31
2.46231E-01 8.20145E-31
2.50000E-01 7.59386E-31
2.53788E-01 6.98544E-31
2.57595E-01 6.38395E-31
2.61421E-01 5.79624E-31
2.65264E-01 5.22821E-31
2.69126E-01 4.68480E-31
2.73005E-01 4.16996E-31
2.76901E-01 3.68672E-31
2.80814E-01 3.23720E-31
2.84744E-01 2.82275E-31
2.88691E-01 2.44396E-31
2.92653E-01 2.10077E-31
2.96632E-01 1.79259E-31
3.00625E-01 1.51833E-31
3.04634E-01 1.27653E-31
3.08658E-01 1.06541E-31
3.12697E-01 8.82997E-32
3.16749E-01 7.27117E-32
3.20816E-01 5.95523E-32
3.24896E-01 4.85917E-32
3.28990E-01 3.96007E-32
3.33097E-01 3.23547E-32
3.37216E-01 2.66367E-32
3.41348E-01 2.22400E-32
3.45492E-01 1.89704E-32
3.49647E-01 1.66479E-32
3.53814E-01 1.51071E-32
3.57992E-01 1.41982E-32
3.62181E-01 1.37869E-32
3.66381E-01 1.37546E-32
3.70590E-01 1.39977E-32
3.74810E-01 1.44270E-32
3.79039E-01 1.49670E-32
3.83277E-01 1.55549E-32
3.87524E-01 1.61394E-32
3.91780E-01 1.66801E-32
3.96044E-01 1.71461E-32
4.00316E-01 1.75147E-32
4.04596E-01 1.77708E-32
4.08882E-01 1.79057E-32
4.13176E-01 1.79158E-32
4.17476E-01 1.78021E-32
4.21783E-01 1.75692E-32
4.26095E-01 1.72247E-32
4.30413E-01 1.67780E-32
4.34737E-01 1.62402E-32
4.39065E-01 1.56236E-32
4.43398E-01 1.49406E-32
4.47736E-01 1.42041E-32
4.52077E-01 1.34267E-32
4.56422E-01 1.26203E-32
4.60770E-01 1.17966E-32
4.65122E-01 1.09660E-32
4.69476E-01 1.01383E-32
4.73832E-01 9.32197E-33
4.78190E-01 8.52469E-33
4.82550E-01 7.75294E-33
4.86912E-01 7.01214E-33
4.91274E-01 6.30671E-33
4.95637E-01 5.64009E-33
5.00000E-01 5.01482E-33
5.04363E-01 4.43256E-33
5.08726E-01 3.89426E-33
5.13088E-01 3.40014E-33
5.17450E-01 2.94986E-33
5.21810E-01 2.54252E-33
5.26168E-01 2.17681E-33
5.30524E-01 1.85105E-33
5.34878E-01 1.56326E-33
5.39230E-01 1.31125E-33
5.43578E-01 1.09265E-33
5.47923E-01 9.05006E-34
5.52264E-01 7.45779E-34
5.56602E-01 6.12432E-34
5.60935E-01 5.02451E-34
5.65263E-01 4.13376E-34
5.69587E-01 3.42829E-34
5.73905E-01 2.88540E-34
5.78217E-01 2.48358E-34
5.82524E-01 2.20268E-34
5.86824E-01 2.02399E-34
5.91118E-01 1.93030E-34
5.95404E-01 1.90589E-34
5.99684E-01 1.93659E-34
6.03956E-01 2.00971E-34
6.08220E-01 2.11401E-34
6.12476E-01 2.23964E-34
6.16723E-01 2.37808E-34
6.20961E-01 2.52207E-34
6.25190E-01 2.66547E-34
6.29410E-01 2.80325E-34
6.33619E-01 2.93133E-34
6.37819E-01 3.04654E-34
6.42008E-01 3.14648E-34
6.46186E-01 3.22947E-34
6.50353E-01 3.29443E-34
6.54508E-01 3.34084E-34
6.58652E-01 3.36861E-34
6.62784E-01 3.37806E-34
6.66903E-01 3.36981E-34
6.71010E-01 3.34475E-34
6.75104E-01 3.30396E-34
6.79184E-01 3.24868E-34
6.83251E-01 3.18025E-34
6.87303E-01 3.10009E-34
6.91342E-01 3.00965E-34
6.95366E-01 2.91036E-34
6.99375E-01 2.80367E-34
7.03368E-01 2.69096E-34
7.07347E-01 2.57357E-34
7.11309E-01 2.45275E-34
7.15256E-01 2.32969E-34
7.19186E-01 2.20549E-34
7.23099E-01 2.08113E-34
7.26995E-01 1.95754E-34
7.30874E-01 1.83550E-34
7.34736E-01 1.71575E-34
7.38579E-01 1.59890E-34
7.42405E-01 1.48548E-34
7.46212E-01 1.37593E-34
7.50000E-01 1.27063E-34
7.53769E-01 1.16985E-34
7.57519E-01 1.07381E-34
7.61249E-01 9.82663E-35
7.64960E-01 8.96507E-35
7.68650E-01 8.15380E-35
7.72320E-01 7.39275E-35
7.75968E-01 6.68146E-35
7.79596E-01 6.01907E-35
7.83203E-01 5.40445E-35
7.86788E-01 4.83618E-35
7.90351E-01 4.31265E-35
7.93893E-01 3.83206E-35
7.97411E-01 3.39248E-35
8.00908E-01 2.99188E-35
8.04381E-01 2.62816E-35
8.07831E-01 2.29919E-35
8.11257E-01 2.00282E-35
8.14660E-01 1.73690E-35
8.18039E-01 1.49931E-35
8.21394E-01 1.28798E-35
8.24724E-01 1.10088E-35
8.28030E-01 9.36060E-36
8.31310E-01 7.91648E-36
8.34565E-01 6.65844E-36
8.37795E-01 5.56943E-36
8.40999E-01 4.63331E-36
8.44177E-01 3.83488E-36
8.47329E-01 3.15989E-36
8.50455E-01 2.59505E-36
8.53553E-01 2.12799E-36
8.56625E-01 1.74730E-36
8.59670E-01 1.44245E-36
8.62687E-01 1.20376E-36
8.65677E-01 1.02240E-36
8.68639E-01 8.90349E-37
8.71572E-01 8.00328E-37
8.74478E-01 7.45789E-37
8.77355E-01 7.20821E-37
8.80203E-01 7.20183E-37
8.83022E-01 7.39183E-37
8.85812E-01 7.73703E-37
8.88573E-01 8.20109E-37
8.91304E-01 8.75222E-37
8.94005E-01 9.36296E-37
8.96677E-01 1.00098E-36
8.99318E-01 1.06724E-36
9.01928E-01 1.13338E-36
9.04508E-01 1.19798E-36
9.07058E-01 1.25989E-36
9.09576E-01 1.31815E-36
9.12063E-01 1.37203E-36
9.14519E-01 1.42096E-36
9.16943E-01 1.46454E-36
9.19335E-01 1.50249E-36
9.21696E-01 1.53465E-36
9.24024E-01 1.56096E-36
9.26320E-01 1.58144E-36
9.28584E-01 1.59619E-36
9.30815E-01 1.60535E-36
9.33013E-01 1.60914E-36
9.35178E-01 1.60777E-36
9.37310E-01 1.60153E-36
9.39409E-01 1.59069E-36
9.41474E-01 1.57557E-36
9.43505E-01 1.55647E-36
9.45503E-01 1.53371E-36
9.47467E-01 1.50762E-36
9.49397E-01 1.47850E-36
9.51293E-01 1.44667E-36
9.53154E-01 1.41244E-36
9.54981E-01 1.37609E-36
9.56773E-01 1.33790E-36
9.58530E-01 1.29815E-36
9.60252E-01 1.25709E-36
9.61940E-01 1.21497E-36
9.63592E-01 1.17200E-36
9.65209E-01 1.12841E-36
9.66790E-01 1.08439E-36
9.68336E-01 1.04013E-36
9.69846E-01 9.95800E-37
9.71321E-01 9.51554E-37
9.72759E-01 9.07534E-37
9.74162E-01 8.63878E-37
9.75528E-01 8.20703E-37
9.76858E-01 7.78118E-37
9.78152E-01 7.36225E-37
9.79410E-01 6.95103E-37
9.80631E-01 6.54837E-37
9.81815E-01 6.15495E-37
9.82963E-01 5.77143E-37
9.84074E-01 5.39832E-37
9.85148E-01 5.03606E-37
9.86185E-01 4.68511E-37
9.87185E-01 4.34582E-37
9.88148E-01 4.01848E-37
9.89074E-01 3.70335E-37
9.89962E-01 3.40064E-37
9.90814E-01 3.11050E-37
9.91627E-01 2.83310E-37
9.92404E-01 2.56856E-37
9.93143E-01 2.31695E-37
9.93844E-01 2.07833E-37
9.94508E-01 1.85273E-37
9.95134E-01 1.64017E-37
9.95722E-01 1.44067E-37
9.96273E-01 1.25423E-37
9.96786E-01 1.08083E-37
9.97261E-01 9.20451E-38
9.97698E-01 7.73075E-38
9.98097E-01 6.38645E-38
9.98459E-01 5.17164E-38
9.98782E-01 4.08579E-38
9.99067E-01 3.12865E-38
9.99315E-01 2.29988E-38
9.99524E-01 1.59911E-38
9.99695E-01 1.02617E-38
9.99829E-01 5.80752E-39
9.99924E-01 2.62793E-39
9.99981E-01 7.20147E-40
1.00000E+00 8.52778E-41
