 #
 # Subroutine ELSEPA. Elastic scattering of electrons and positrons
 #                    by neutral atoms and positive ions
 #
 # Projectile: electron
 # Kinetic energy = 2.50000E+06 eV = 9.18733E+04 a.u.
 #
 # WARNING: High-energy factorization with free-atom DF screening.
 #          Absorption, polarization and exchange corrections are
 #          switched off.
 #          Phase shifts are calculated for the bare nucleus.
 #          Scattering amplitudes are not evaluated.
 #
 # Element: Pr,  Z =  59,  atomic weight = 1.40908E+02 g/mol
 #
 # Nuclear model: Fermi distribution
 #                Average radius = 5.56795E-13 cm
 #                Skin thickness = 5.46000E-14 cm
 #
 # Number of electrons = 59
 #
 # Total elastic cross section = 7.50624E-18 cm**2 = 2.68053E-01 a0**2
 # 1st transport cross section = 5.93055E-22 cm**2 = 2.11784E-05 a0**2
 # 2nd transport cross section = 1.61903E-21 cm**2 = 5.78166E-05 a0**2
 #
 #
 # Differential cross section:                       MU=(1-COS(THETA))/2
 #
 #  THETA        MU          DCS          DCS        Sherman      error
 #  (deg)                 (cm**2/sr)   (a0**2/sr)    function
 #----------------------------------------------------------------------
0.00000E+00 9.67536E-13
7.61557E-13 9.67532E-13
1.18994E-12 9.67529E-13
1.71346E-12 9.67526E-13
2.33225E-12 9.67522E-13
3.04617E-12 9.67518E-13
3.85530E-12 9.67513E-13
4.75964E-12 9.67507E-13
5.75917E-12 9.67501E-13
6.85391E-12 9.67494E-13
8.04379E-12 9.67487E-13
9.32893E-12 9.67479E-13
1.07092E-11 9.67470E-13
1.21847E-11 9.67461E-13
1.37554E-11 9.67452E-13
1.54213E-11 9.67441E-13
1.71823E-11 9.67430E-13
1.90386E-11 9.67419E-13
2.09900E-11 9.67407E-13
2.30367E-11 9.67394E-13
2.51785E-11 9.67381E-13
2.74156E-11 9.67367E-13
2.97478E-11 9.67352E-13
3.21752E-11 9.67337E-13
3.46979E-11 9.67322E-13
3.73157E-11 9.67305E-13
4.00286E-11 9.67289E-13
4.28368E-11 9.67271E-13
4.57402E-11 9.67253E-13
4.87388E-11 9.67235E-13
5.18325E-11 9.67215E-13
5.50215E-11 9.67195E-13
5.83057E-11 9.67175E-13
6.16850E-11 9.67154E-13
6.51595E-11 9.67132E-13
6.87293E-11 9.67110E-13
7.23943E-11 9.67088E-13
7.61544E-11 9.67064E-13
1.18991E-10 9.66798E-13
1.71347E-10 9.66472E-13
2.33223E-10 9.66088E-13
3.04617E-10 9.65644E-13
3.85531E-10 9.65142E-13
4.75965E-10 9.64581E-13
5.75917E-10 9.63962E-13
6.85389E-10 9.63284E-13
8.04380E-10 9.62548E-13
9.32891E-10 9.61754E-13
1.07092E-09 9.60902E-13
1.21847E-09 9.59993E-13
1.37554E-09 9.59027E-13
1.54213E-09 9.58004E-13
1.71823E-09 9.56924E-13
1.90386E-09 9.55788E-13
2.09900E-09 9.54597E-13
2.30367E-09 9.53349E-13
2.51785E-09 9.52046E-13
2.74156E-09 9.50689E-13
2.97478E-09 9.49277E-13
3.21752E-09 9.47811E-13
3.46978E-09 9.46291E-13
3.73156E-09 9.44718E-13
4.00286E-09 9.43093E-13
4.28368E-09 9.41415E-13
4.57402E-09 9.39685E-13
4.87388E-09 9.37905E-13
5.18326E-09 9.36073E-13
5.50215E-09 9.34191E-13
5.83057E-09 9.32259E-13
6.16850E-09 9.30278E-13
6.51596E-09 9.28248E-13
6.87293E-09 9.26170E-13
7.23942E-09 9.24044E-13
7.61544E-09 9.21873E-13
1.18991E-08 8.97700E-13
1.71347E-08 8.69540E-13
2.33223E-08 8.38090E-13
3.04617E-08 8.04292E-13
3.85531E-08 7.68369E-13
4.75965E-08 7.31576E-13
5.75917E-08 6.93894E-13
6.85389E-08 6.56789E-13
8.04380E-08 6.19678E-13
9.32891E-08 5.84118E-13
1.07092E-07 5.49334E-13
1.21847E-07 5.16427E-13
1.37554E-07 4.84919E-13
1.54213E-07 4.55323E-13
1.71823E-07 4.27482E-13
1.90386E-07 4.01403E-13
2.09900E-07 3.77220E-13
2.30367E-07 3.54560E-13
2.51785E-07 3.33777E-13
2.74156E-07 3.14258E-13
2.97478E-07 2.96493E-13
3.21752E-07 2.79816E-13
3.46978E-07 2.64584E-13
3.73156E-07 2.50352E-13
4.00286E-07 2.37260E-13
4.28368E-07 2.25072E-13
4.57402E-07 2.13787E-13
4.87388E-07 2.03294E-13
5.18325E-07 1.93521E-13
5.50215E-07 1.84426E-13
5.83057E-07 1.75917E-13
6.16850E-07 1.67974E-13
6.51596E-07 1.60521E-13
6.87293E-07 1.53529E-13
7.23942E-07 1.46957E-13
7.61543E-07 1.40762E-13
1.18991E-06 9.43066E-14
1.71347E-06 6.54112E-14
2.33223E-06 4.64595E-14
3.04617E-06 3.33865E-14
3.85531E-06 2.49018E-14
4.75964E-06 1.88341E-14
5.75916E-06 1.46345E-14
6.85388E-06 1.14546E-14
8.04378E-06 9.17651E-15
9.32888E-06 7.37550E-15
1.07092E-05 6.02890E-15
1.21846E-05 4.94768E-15
1.37553E-05 4.10533E-15
1.54212E-05 3.42401E-15
1.71822E-05 2.87711E-15
1.90385E-05 2.43185E-15
2.09899E-05 2.06862E-15
2.30365E-05 1.77158E-15
2.51783E-05 1.52373E-15
2.74153E-05 1.31946E-15
2.97475E-05 1.14702E-15
3.21749E-05 1.00350E-15
3.46974E-05 8.81606E-16
3.73152E-05 7.78768E-16
4.00281E-05 6.90780E-16
4.28362E-05 6.15474E-16
4.57395E-05 5.50459E-16
4.87380E-05 4.94061E-16
5.18317E-05 4.44977E-16
5.50205E-05 4.01894E-16
5.83045E-05 3.64171E-16
6.16838E-05 3.30769E-16
6.51582E-05 3.01381E-16
6.87277E-05 2.74930E-16
7.23925E-05 2.51499E-16
7.61524E-05 2.30438E-16
9.21439E-05 1.65529E-16
1.09658E-04 1.21850E-16
1.28695E-04 9.14768E-17
1.49255E-04 6.98592E-17
1.71338E-04 5.42117E-17
1.94942E-04 4.26896E-17
2.20070E-04 3.40637E-17
2.46720E-04 2.75068E-17
2.74892E-04 2.24457E-17
3.04586E-04 1.85136E-17
3.35803E-04 1.54077E-17
3.68542E-04 1.29349E-17
4.02802E-04 1.09365E-17
4.38585E-04 9.31674E-18
4.75889E-04 7.98304E-18
5.14715E-04 6.88459E-18
5.55063E-04 5.96657E-18
5.96931E-04 5.19902E-18
6.40321E-04 4.55033E-18
6.85233E-04 4.00061E-18
7.31665E-04 3.53135E-18
7.79618E-04 3.12902E-18
8.29092E-04 2.78264E-18
8.80086E-04 2.48264E-18
9.32601E-04 2.22242E-18
9.86636E-04 1.99498E-18
1.04219E-03 1.79635E-18
1.09927E-03 1.62142E-18
1.15786E-03 1.46759E-18
1.21797E-03 1.33137E-18
1.27961E-03 1.21073E-18
1.34276E-03 1.10338E-18
1.40743E-03 1.00771E-18
1.47362E-03 9.22189E-19
1.54133E-03 8.45542E-19
1.61056E-03 7.76734E-19
1.68131E-03 7.14753E-19
1.75357E-03 6.58892E-19
1.82735E-03 6.08337E-19
1.90265E-03 5.62598E-19
1.97947E-03 5.21043E-19
2.05780E-03 4.83298E-19
2.13765E-03 4.48897E-19
2.21902E-03 4.17526E-19
2.30190E-03 3.88850E-19
2.38630E-03 3.62606E-19
2.47222E-03 3.38549E-19
2.55965E-03 3.16458E-19
2.64859E-03 2.96154E-19
2.73905E-03 2.77453E-19
2.83103E-03 2.60221E-19
2.92452E-03 2.44303E-19
3.01952E-03 2.29599E-19
3.11604E-03 2.15984E-19
3.21407E-03 2.03375E-19
3.31362E-03 1.91674E-19
3.41468E-03 1.80811E-19
3.51725E-03 1.70710E-19
3.62133E-03 1.61310E-19
3.72692E-03 1.52553E-19
3.83403E-03 1.44385E-19
3.94265E-03 1.36762E-19
4.05278E-03 1.29638E-19
4.16442E-03 1.22977E-19
4.27757E-03 1.16740E-19
4.39223E-03 1.10898E-19
4.50840E-03 1.05419E-19
4.62608E-03 1.00277E-19
4.74527E-03 9.54477E-20
4.86597E-03 9.09083E-20
4.98817E-03 8.66378E-20
5.11188E-03 8.26173E-20
5.23711E-03 7.88298E-20
5.36383E-03 7.52583E-20
5.49207E-03 7.18894E-20
5.62181E-03 6.87080E-20
5.75306E-03 6.57031E-20
5.88581E-03 6.28615E-20
6.02007E-03 6.01740E-20
6.15583E-03 5.76296E-20
6.29310E-03 5.52200E-20
6.43187E-03 5.29361E-20
6.57214E-03 5.07704E-20
6.71392E-03 4.87155E-20
6.85720E-03 4.67645E-20
7.00198E-03 4.49115E-20
7.14827E-03 4.31501E-20
7.29605E-03 4.14755E-20
7.44534E-03 3.98818E-20
7.59612E-03 3.83652E-20
7.97965E-03 3.48803E-20
8.37255E-03 3.17866E-20
8.77480E-03 2.90322E-20
9.18641E-03 2.65731E-20
9.60736E-03 2.43720E-20
1.00376E-02 2.23968E-20
1.04773E-02 2.06201E-20
1.09262E-02 1.90184E-20
1.13844E-02 1.75712E-20
1.18520E-02 1.62609E-20
1.23288E-02 1.50721E-20
1.28150E-02 1.39914E-20
1.33104E-02 1.30072E-20
1.38150E-02 1.21093E-20
1.43290E-02 1.12887E-20
1.48521E-02 1.05374E-20
1.53845E-02 9.84854E-21
1.59262E-02 9.21591E-21
1.64770E-02 8.63407E-21
1.70371E-02 8.09818E-21
1.76063E-02 7.60388E-21
1.81848E-02 7.14734E-21
1.87724E-02 6.72515E-21
1.93692E-02 6.33419E-21
1.99751E-02 5.97173E-21
2.05901E-02 5.63529E-21
2.12143E-02 5.32262E-21
2.18476E-02 5.03174E-21
2.24900E-02 4.76083E-21
2.31415E-02 4.50825E-21
2.38021E-02 4.27251E-21
2.44717E-02 4.05228E-21
2.51504E-02 3.84634E-21
2.58382E-02 3.65357E-21
2.65349E-02 3.47295E-21
2.72407E-02 3.30362E-21
2.79555E-02 3.14466E-21
2.86793E-02 2.99538E-21
2.94120E-02 2.85501E-21
3.01537E-02 2.72296E-21
3.09043E-02 2.59861E-21
3.16639E-02 2.48144E-21
3.24324E-02 2.37094E-21
3.32098E-02 2.26666E-21
3.39961E-02 2.16818E-21
3.47912E-02 2.07511E-21
3.55952E-02 1.98710E-21
3.64081E-02 1.90381E-21
3.72297E-02 1.82495E-21
3.80602E-02 1.75021E-21
3.88995E-02 1.67936E-21
3.97476E-02 1.61214E-21
4.06044E-02 1.54833E-21
4.14700E-02 1.48772E-21
4.23443E-02 1.43013E-21
4.32273E-02 1.37536E-21
4.41190E-02 1.32325E-21
4.50194E-02 1.27365E-21
4.59284E-02 1.22641E-21
4.68461E-02 1.18139E-21
4.87074E-02 1.09754E-21
5.06030E-02 1.02118E-21
5.25328E-02 9.51509E-22
5.44967E-02 8.87826E-22
5.64946E-02 8.29515E-22
5.85262E-02 7.76035E-22
6.05914E-02 7.26905E-22
6.26901E-02 6.81702E-22
6.48222E-02 6.40049E-22
6.69873E-02 6.01612E-22
6.91854E-02 5.66093E-22
7.14163E-02 5.33225E-22
7.36799E-02 5.02770E-22
7.59760E-02 4.74516E-22
7.83043E-02 4.48271E-22
8.06647E-02 4.23863E-22
8.30571E-02 4.01138E-22
8.54812E-02 3.79955E-22
8.79369E-02 3.60189E-22
9.04240E-02 3.41724E-22
9.29422E-02 3.24459E-22
9.54915E-02 3.08299E-22
9.80716E-02 2.93158E-22
1.00682E-01 2.78959E-22
1.03323E-01 2.65631E-22
1.05995E-01 2.53109E-22
1.08696E-01 2.41336E-22
1.11427E-01 2.30255E-22
1.14188E-01 2.19819E-22
1.16978E-01 2.09982E-22
1.19797E-01 2.00702E-22
1.22645E-01 1.91941E-22
1.25522E-01 1.83664E-22
1.28428E-01 1.75838E-22
1.31361E-01 1.68434E-22
1.34323E-01 1.61424E-22
1.37313E-01 1.54783E-22
1.40330E-01 1.48487E-22
1.43375E-01 1.42515E-22
1.46447E-01 1.36846E-22
1.49545E-01 1.31461E-22
1.52671E-01 1.26344E-22
1.55823E-01 1.21478E-22
1.59001E-01 1.16848E-22
1.62205E-01 1.12440E-22
1.65435E-01 1.08242E-22
1.68690E-01 1.04241E-22
1.71970E-01 1.00426E-22
1.75276E-01 9.67863E-23
1.78606E-01 9.33124E-23
1.81961E-01 8.99951E-23
1.85340E-01 8.68257E-23
1.88743E-01 8.37963E-23
1.92169E-01 8.08993E-23
1.95619E-01 7.81277E-23
1.99092E-01 7.54749E-23
2.02589E-01 7.29347E-23
2.06107E-01 7.05012E-23
2.09649E-01 6.81691E-23
2.13212E-01 6.59332E-23
2.16797E-01 6.37886E-23
2.20404E-01 6.17309E-23
2.24032E-01 5.97558E-23
2.27680E-01 5.78591E-23
2.31350E-01 5.60373E-23
2.35040E-01 5.42865E-23
2.38751E-01 5.26036E-23
2.42481E-01 5.09853E-23
2.46231E-01 4.94285E-23
2.50000E-01 4.79304E-23
2.53788E-01 4.64884E-23
2.57595E-01 4.50999E-23
2.61421E-01 4.37624E-23
2.65264E-01 4.24736E-23
2.69126E-01 4.12315E-23
2.73005E-01 4.00340E-23
2.76901E-01 3.88791E-23
2.80814E-01 3.77650E-23
2.84744E-01 3.66899E-23
2.88691E-01 3.56522E-23
2.92653E-01 3.46502E-23
2.96632E-01 3.36826E-23
3.00625E-01 3.27479E-23
3.04634E-01 3.18446E-23
3.08658E-01 3.09716E-23
3.12697E-01 3.01276E-23
3.16749E-01 2.93114E-23
3.20816E-01 2.85218E-23
3.24896E-01 2.77580E-23
3.28990E-01 2.70187E-23
3.33097E-01 2.63031E-23
3.37216E-01 2.56103E-23
3.41348E-01 2.49394E-23
3.45492E-01 2.42895E-23
3.49647E-01 2.36598E-23
3.53814E-01 2.30496E-23
3.57992E-01 2.24582E-23
3.62181E-01 2.18848E-23
3.66381E-01 2.13288E-23
3.70590E-01 2.07895E-23
3.74810E-01 2.02664E-23
3.79039E-01 1.97588E-23
3.83277E-01 1.92661E-23
3.87524E-01 1.87880E-23
3.91780E-01 1.83237E-23
3.96044E-01 1.78729E-23
4.00316E-01 1.74351E-23
4.04596E-01 1.70098E-23
4.08882E-01 1.65966E-23
4.13176E-01 1.61951E-23
4.17476E-01 1.58048E-23
4.21783E-01 1.54255E-23
4.26095E-01 1.50566E-23
4.30413E-01 1.46980E-23
4.34737E-01 1.43492E-23
4.39065E-01 1.40099E-23
4.43398E-01 1.36798E-23
4.47736E-01 1.33586E-23
4.52077E-01 1.30460E-23
4.56422E-01 1.27417E-23
4.60770E-01 1.24455E-23
4.65122E-01 1.21571E-23
4.69476E-01 1.18763E-23
4.73832E-01 1.16028E-23
4.78190E-01 1.13363E-23
4.82550E-01 1.10768E-23
4.86912E-01 1.08239E-23
4.91274E-01 1.05775E-23
4.95637E-01 1.03373E-23
5.00000E-01 1.01032E-23
5.04363E-01 9.87498E-24
5.08726E-01 9.65246E-24
5.13088E-01 9.43548E-24
5.17450E-01 9.22387E-24
5.21810E-01 9.01747E-24
5.26168E-01 8.81612E-24
5.30524E-01 8.61969E-24
5.34878E-01 8.42802E-24
5.39230E-01 8.24099E-24
5.43578E-01 8.05845E-24
5.47923E-01 7.88028E-24
5.52264E-01 7.70635E-24
5.56602E-01 7.53655E-24
5.60935E-01 7.37076E-24
5.65263E-01 7.20886E-24
5.69587E-01 7.05076E-24
5.73905E-01 6.89633E-24
5.78217E-01 6.74549E-24
5.82524E-01 6.59813E-24
5.86824E-01 6.45416E-24
5.91118E-01 6.31348E-24
5.95404E-01 6.17601E-24
5.99684E-01 6.04166E-24
6.03956E-01 5.91035E-24
6.08220E-01 5.78199E-24
6.12476E-01 5.65651E-24
6.16723E-01 5.53384E-24
6.20961E-01 5.41389E-24
6.25190E-01 5.29661E-24
6.29410E-01 5.18191E-24
6.33619E-01 5.06974E-24
6.37819E-01 4.96002E-24
6.42008E-01 4.85271E-24
6.46186E-01 4.74772E-24
6.50353E-01 4.64502E-24
6.54508E-01 4.54453E-24
6.58652E-01 4.44621E-24
6.62784E-01 4.34999E-24
6.66903E-01 4.25584E-24
6.71010E-01 4.16368E-24
6.75104E-01 4.07349E-24
6.79184E-01 3.98521E-24
6.83251E-01 3.89878E-24
6.87303E-01 3.81418E-24
6.91342E-01 3.73135E-24
6.95366E-01 3.65025E-24
6.99375E-01 3.57085E-24
7.03368E-01 3.49309E-24
7.07347E-01 3.41695E-24
7.11309E-01 3.34238E-24
7.15256E-01 3.26935E-24
7.19186E-01 3.19782E-24
7.23099E-01 3.12776E-24
7.26995E-01 3.05913E-24
7.30874E-01 2.99191E-24
7.34736E-01 2.92605E-24
7.38579E-01 2.86153E-24
7.42405E-01 2.79832E-24
7.46212E-01 2.73638E-24
7.50000E-01 2.67570E-24
7.53769E-01 2.61624E-24
7.57519E-01 2.55797E-24
7.61249E-01 2.50087E-24
7.64960E-01 2.44492E-24
7.68650E-01 2.39008E-24
7.72320E-01 2.33634E-24
7.75968E-01 2.28367E-24
7.79596E-01 2.23204E-24
7.83203E-01 2.18144E-24
7.86788E-01 2.13185E-24
7.90351E-01 2.08324E-24
7.93893E-01 2.03559E-24
7.97411E-01 1.98888E-24
8.00908E-01 1.94309E-24
8.04381E-01 1.89821E-24
8.07831E-01 1.85422E-24
8.11257E-01 1.81109E-24
8.14660E-01 1.76881E-24
8.18039E-01 1.72736E-24
8.21394E-01 1.68673E-24
8.24724E-01 1.64689E-24
8.28030E-01 1.60784E-24
8.31310E-01 1.56956E-24
8.34565E-01 1.53204E-24
8.37795E-01 1.49525E-24
8.40999E-01 1.45918E-24
8.44177E-01 1.42382E-24
8.47329E-01 1.38916E-24
8.50455E-01 1.35519E-24
8.53553E-01 1.32188E-24
8.56625E-01 1.28923E-24
8.59670E-01 1.25723E-24
8.62687E-01 1.22586E-24
8.65677E-01 1.19511E-24
8.68639E-01 1.16498E-24
8.71572E-01 1.13544E-24
8.74478E-01 1.10649E-24
8.77355E-01 1.07812E-24
8.80203E-01 1.05032E-24
8.83022E-01 1.02307E-24
8.85812E-01 9.96376E-25
8.88573E-01 9.70218E-25
8.91304E-01 9.44590E-25
8.94005E-01 9.19482E-25
8.96677E-01 8.94885E-25
8.99318E-01 8.70792E-25
9.01928E-01 8.47193E-25
9.04508E-01 8.24081E-25
9.07058E-01 8.01446E-25
9.09576E-01 7.79283E-25
9.12063E-01 7.57583E-25
9.14519E-01 7.36338E-25
9.16943E-01 7.15542E-25
9.19335E-01 6.95188E-25
9.21696E-01 6.75268E-25
9.24024E-01 6.55776E-25
9.26320E-01 6.36705E-25
9.28584E-01 6.18050E-25
9.30815E-01 5.99804E-25
9.33013E-01 5.81961E-25
9.35178E-01 5.64515E-25
9.37310E-01 5.47460E-25
9.39409E-01 5.30791E-25
9.41474E-01 5.14503E-25
9.43505E-01 4.98590E-25
9.45503E-01 4.83047E-25
9.47467E-01 4.67869E-25
9.49397E-01 4.53051E-25
9.51293E-01 4.38589E-25
9.53154E-01 4.24478E-25
9.54981E-01 4.10714E-25
9.56773E-01 3.97291E-25
9.58530E-01 3.84207E-25
9.60252E-01 3.71457E-25
9.61940E-01 3.59036E-25
9.63592E-01 3.46941E-25
9.65209E-01 3.35169E-25
9.66790E-01 3.23715E-25
9.68336E-01 3.12576E-25
9.69846E-01 3.01749E-25
9.71321E-01 2.91230E-25
9.72759E-01 2.81016E-25
9.74162E-01 2.71104E-25
9.75528E-01 2.61491E-25
9.76858E-01 2.52174E-25
9.78152E-01 2.43151E-25
9.79410E-01 2.34417E-25
9.80631E-01 2.25972E-25
9.81815E-01 2.17812E-25
9.82963E-01 2.09934E-25
9.84074E-01 2.02337E-25
9.85148E-01 1.95019E-25
9.86185E-01 1.87976E-25
9.87185E-01 1.81207E-25
9.88148E-01 1.74710E-25
9.89074E-01 1.68483E-25
9.89962E-01 1.62523E-25
9.90814E-01 1.56831E-25
9.91627E-01 1.51402E-25
9.92404E-01 1.46237E-25
9.93143E-01 1.41334E-25
9.93844E-01 1.36690E-25
9.94508E-01 1.32305E-25
9.95134E-01 1.28177E-25
9.95722E-01 1.24306E-25
9.96273E-01 1.20690E-25
9.96786E-01 1.17327E-25
9.97261E-01 1.14218E-25
9.97698E-01 1.11361E-25
9.98097E-01 1.08755E-25
9.98459E-01 1.06399E-25
9.98782E-01 1.04293E-25
9.99067E-01 1.02437E-25
9.99315E-01 1.00829E-25
9.99524E-01 9.94689E-26
9.99695E-01 9.83569E-26
9.99829E-01 9.74923E-26
9.99924E-01 9.68750E-26
9.99981E-01 9.65046E-26
1.00000E+00 9.63812E-26
