 #
 # Subroutine ELSEPA. Elastic scattering of electrons and positrons
 #                    by neutral atoms and positive ions
 #
 # Projectile: positron
 # Kinetic energy = 6.00000E+08 eV = 2.20496E+07 a.u.
 #
 # WARNING: High-energy factorization with free-atom DF screening.
 #          Absorption, polarization and exchange corrections are
 #          switched off.
 #          Phase shifts are calculated for the bare nucleus.
 #          Scattering amplitudes are not evaluated.
 #
 # Element: Cd,  Z =  48,  atomic weight = 1.12411E+02 g/mol
 #
 # Nuclear model: Fermi distribution
 #                Average radius = 5.16401E-13 cm
 #                Skin thickness = 5.46000E-14 cm
 #
 # Number of electrons = 48
 #
 # Total elastic cross section = 4.49086E-18 cm**2 = 1.60371E-01 a0**2
 # 1st transport cross section = 1.25513E-26 cm**2 = 4.48215E-10 a0**2
 # 2nd transport cross section = 3.76431E-26 cm**2 = 1.34426E-09 a0**2
 #
 #
 # Differential cross section:                       MU=(1-COS(THETA))/2
 #
 #  THETA        MU          DCS          DCS        Sherman      error
 #  (deg)                 (cm**2/sr)   (a0**2/sr)    function
 #----------------------------------------------------------------------
0.00000E+00 1.13937E-08
7.61557E-13 1.05536E-08
1.18994E-12 1.01289E-08
1.71346E-12 9.65054E-09
2.33225E-12 9.13612E-09
3.04617E-12 8.60232E-09
3.85530E-12 8.06348E-09
4.75964E-12 7.53146E-09
5.75917E-12 7.01478E-09
6.85391E-12 6.51982E-09
8.04379E-12 6.05184E-09
9.32893E-12 5.61318E-09
1.07092E-11 5.20481E-09
1.21847E-11 4.82650E-09
1.37554E-11 4.47729E-09
1.54213E-11 4.15570E-09
1.71823E-11 3.85996E-09
1.90386E-11 3.58818E-09
2.09900E-11 3.33843E-09
2.30367E-11 3.10836E-09
2.51785E-11 2.89664E-09
2.74156E-11 2.70173E-09
2.97478E-11 2.52210E-09
3.21752E-11 2.35636E-09
3.46979E-11 2.20324E-09
3.73157E-11 2.06162E-09
4.00286E-11 1.93047E-09
4.28368E-11 1.80889E-09
4.57402E-11 1.69604E-09
4.87388E-11 1.59114E-09
5.18325E-11 1.49341E-09
5.50215E-11 1.40246E-09
5.83057E-11 1.31776E-09
6.16850E-11 1.23882E-09
6.51595E-11 1.16178E-09
6.87293E-11 1.08709E-09
7.23943E-11 1.01942E-09
7.61544E-11 9.57978E-10
1.18991E-10 5.42122E-10
1.71347E-10 3.21303E-10
2.33223E-10 1.99961E-10
3.04617E-10 1.30746E-10
3.85531E-10 8.95401E-11
4.75965E-10 6.38501E-11
5.75917E-10 4.70648E-11
6.85389E-10 3.56132E-11
8.04380E-10 2.75166E-11
9.32891E-10 2.16140E-11
1.07092E-09 1.72046E-11
1.21847E-09 1.38468E-11
1.37554E-09 1.12510E-11
1.54213E-09 9.22145E-12
1.71823E-09 7.61464E-12
1.90386E-09 6.33357E-12
2.09900E-09 5.30578E-12
2.30367E-09 4.47459E-12
2.51785E-09 3.79817E-12
2.74156E-09 3.24387E-12
2.97478E-09 2.78653E-12
3.21752E-09 2.40682E-12
3.46978E-09 2.08971E-12
3.73156E-09 1.82342E-12
4.00286E-09 1.59860E-12
4.28368E-09 1.40777E-12
4.57402E-09 1.24494E-12
4.87388E-09 1.10526E-12
5.18326E-09 9.84803E-13
5.50215E-09 8.80464E-13
5.83057E-09 7.89693E-13
6.16850E-09 7.10413E-13
6.51596E-09 6.40776E-13
6.87293E-09 5.79471E-13
7.23942E-09 5.25553E-13
7.61544E-09 4.77969E-13
1.18991E-08 2.05141E-13
1.71347E-08 1.01840E-13
2.33223E-08 5.59761E-14
3.04617E-08 3.32103E-14
3.85531E-08 2.09168E-14
4.75965E-08 1.38204E-14
5.75917E-08 9.49535E-15
6.85389E-08 6.73846E-15
8.04380E-08 4.91412E-15
9.32891E-08 3.66792E-15
1.07092E-07 2.79311E-15
1.21847E-07 2.16432E-15
1.37554E-07 1.70297E-15
1.54213E-07 1.35826E-15
1.71823E-07 1.09651E-15
1.90386E-07 8.94853E-16
2.09900E-07 7.37480E-16
2.30367E-07 6.13215E-16
2.51785E-07 5.14040E-16
2.74156E-07 4.34113E-16
2.97478E-07 3.69124E-16
3.21752E-07 3.15846E-16
3.46978E-07 2.71835E-16
3.73156E-07 2.35224E-16
4.00286E-07 2.04569E-16
4.28368E-07 1.78746E-16
4.57402E-07 1.56869E-16
4.87388E-07 1.38236E-16
5.18325E-07 1.22287E-16
5.50215E-07 1.08572E-16
5.83057E-07 9.67259E-17
6.16850E-07 8.64508E-17
6.51596E-07 7.75035E-17
6.87293E-07 6.96838E-17
7.23942E-07 6.28254E-17
7.61543E-07 5.67898E-17
1.18991E-06 2.33024E-17
1.71347E-06 1.12472E-17
2.33223E-06 6.07349E-18
3.04617E-06 3.56088E-18
3.85531E-06 2.22322E-18
4.75964E-06 1.45866E-18
5.75916E-06 9.96238E-19
6.85388E-06 7.03359E-19
8.04378E-06 5.10607E-19
9.32888E-06 3.79578E-19
1.07092E-05 2.88002E-19
1.21846E-05 2.22445E-19
1.37553E-05 1.74521E-19
1.54212E-05 1.38833E-19
1.71822E-05 1.11817E-19
1.90385E-05 9.10394E-20
2.09899E-05 7.49107E-20
2.30365E-05 6.21950E-20
2.51783E-05 5.20585E-20
2.74153E-05 4.38989E-20
2.97475E-05 3.72738E-20
3.21749E-05 3.18518E-20
3.46974E-05 2.73818E-20
3.73152E-05 2.36708E-20
4.00281E-05 2.05688E-20
4.28362E-05 1.79593E-20
4.57395E-05 1.57505E-20
4.87380E-05 1.38705E-20
5.18317E-05 1.22622E-20
5.50205E-05 1.08798E-20
5.83045E-05 9.68651E-21
6.16838E-05 8.65243E-21
6.51582E-05 7.75283E-21
6.87277E-05 6.96732E-21
7.23925E-05 6.27890E-21
7.61524E-05 5.67234E-21
9.21439E-05 3.86666E-21
1.09658E-04 2.72367E-21
1.28695E-04 1.97224E-21
1.49255E-04 1.46177E-21
1.71338E-04 1.10548E-21
1.94942E-04 8.50701E-22
2.20070E-04 6.64722E-22
2.46720E-04 5.26453E-22
2.74892E-04 4.21960E-22
3.04586E-04 3.41852E-22
3.35803E-04 2.79624E-22
3.68542E-04 2.30721E-22
4.02802E-04 1.91874E-22
4.38585E-04 1.60715E-22
4.75889E-04 1.35502E-22
5.14715E-04 1.14931E-22
5.55063E-04 9.80238E-23
5.96931E-04 8.40296E-23
6.40321E-04 7.23729E-23
6.85233E-04 6.26054E-23
7.31665E-04 5.43756E-23
7.79618E-04 4.74057E-23
8.29092E-04 4.14743E-23
8.80086E-04 3.64040E-23
9.32601E-04 3.20515E-23
9.86636E-04 2.83002E-23
1.04219E-03 2.50553E-23
1.09927E-03 2.22383E-23
1.15786E-03 1.97850E-23
1.21797E-03 1.76415E-23
1.27961E-03 1.57633E-23
1.34276E-03 1.41129E-23
1.40743E-03 1.26589E-23
1.47362E-03 1.13747E-23
1.54133E-03 1.02378E-23
1.61056E-03 9.22907E-24
1.68131E-03 8.33207E-24
1.75357E-03 7.53284E-24
1.82735E-03 6.81935E-24
1.90265E-03 6.18122E-24
1.97947E-03 5.60949E-24
2.05780E-03 5.09641E-24
2.13765E-03 4.63522E-24
2.21902E-03 4.22004E-24
2.30190E-03 3.84575E-24
2.38630E-03 3.50785E-24
2.47222E-03 3.20240E-24
2.55965E-03 2.92594E-24
2.64859E-03 2.67542E-24
2.73905E-03 2.44815E-24
2.83103E-03 2.24173E-24
2.92452E-03 2.05407E-24
3.01952E-03 1.88329E-24
3.11604E-03 1.72771E-24
3.21407E-03 1.58587E-24
3.31362E-03 1.45643E-24
3.41468E-03 1.33821E-24
3.51725E-03 1.23016E-24
3.62133E-03 1.13132E-24
3.72692E-03 1.04085E-24
3.83403E-03 9.57977E-25
3.94265E-03 8.82018E-25
4.05278E-03 8.12352E-25
4.16442E-03 7.48420E-25
4.27757E-03 6.89717E-25
4.39223E-03 6.35787E-25
4.50840E-03 5.86217E-25
4.62608E-03 5.40632E-25
4.74527E-03 4.98693E-25
4.86597E-03 4.60093E-25
4.98817E-03 4.24550E-25
5.11188E-03 3.91811E-25
5.23711E-03 3.61644E-25
5.36383E-03 3.33837E-25
5.49207E-03 3.08197E-25
5.62181E-03 2.84550E-25
5.75306E-03 2.62733E-25
5.88581E-03 2.42601E-25
6.02007E-03 2.24018E-25
6.15583E-03 2.06863E-25
6.29310E-03 1.91022E-25
6.43187E-03 1.76392E-25
6.57214E-03 1.62879E-25
6.71392E-03 1.50395E-25
6.85720E-03 1.38860E-25
7.00198E-03 1.28202E-25
7.14827E-03 1.18353E-25
7.29605E-03 1.09251E-25
7.44534E-03 1.00838E-25
7.59612E-03 9.30628E-26
7.97965E-03 7.61034E-26
8.37255E-03 6.21749E-26
8.77480E-03 5.07388E-26
9.18641E-03 4.13536E-26
9.60736E-03 3.36571E-26
1.00376E-02 2.73516E-26
1.04773E-02 2.21915E-26
1.09262E-02 1.79749E-26
1.13844E-02 1.45346E-26
1.18520E-02 1.17330E-26
1.23288E-02 9.45610E-27
1.28150E-02 7.60986E-27
1.33104E-02 6.11653E-27
1.38150E-02 4.91188E-27
1.43290E-02 3.94290E-27
1.48521E-02 3.16584E-27
1.53845E-02 2.54469E-27
1.59262E-02 2.04980E-27
1.64770E-02 1.65682E-27
1.70371E-02 1.34580E-27
1.76063E-02 1.10042E-27
1.81848E-02 9.07357E-28
1.87724E-02 7.55808E-28
1.93692E-02 6.37005E-28
1.99751E-02 5.43879E-28
2.05901E-02 4.70751E-28
2.12143E-02 4.13088E-28
2.18476E-02 3.67289E-28
2.24900E-02 3.30515E-28
2.31415E-02 3.00544E-28
2.38021E-02 2.75653E-28
2.44717E-02 2.54523E-28
2.51504E-02 2.36152E-28
2.58382E-02 2.19794E-28
2.65349E-02 2.04902E-28
2.72407E-02 1.91086E-28
2.79555E-02 1.78075E-28
2.86793E-02 1.65688E-28
2.94120E-02 1.53813E-28
3.01537E-02 1.42387E-28
3.09043E-02 1.31381E-28
3.16639E-02 1.20790E-28
3.24324E-02 1.10622E-28
3.32098E-02 1.00896E-28
3.39961E-02 9.16324E-29
3.47912E-02 8.28509E-29
3.55952E-02 7.45696E-29
3.64081E-02 6.68020E-29
3.72297E-02 5.95565E-29
3.80602E-02 5.28360E-29
3.88995E-02 4.66382E-29
3.97476E-02 4.09554E-29
4.06044E-02 3.57750E-29
4.14700E-02 3.10806E-29
4.23443E-02 2.68519E-29
4.32273E-02 2.30659E-29
4.41190E-02 1.96973E-29
4.50194E-02 1.67191E-29
4.59284E-02 1.41035E-29
4.68461E-02 1.18220E-29
4.87074E-02 8.14795E-30
5.06030E-02 5.47582E-30
5.25328E-02 3.60050E-30
5.44967E-02 2.33924E-30
5.64946E-02 1.53513E-30
5.85262E-02 1.05799E-30
6.05914E-02 8.03497E-31
6.26901E-02 6.90962E-31
6.48222E-02 6.60439E-31
6.69873E-02 6.69449E-31
6.91854E-02 6.89686E-31
7.14163E-02 7.03891E-31
7.36799E-02 7.03059E-31
7.59760E-02 6.84033E-31
7.83043E-02 6.47521E-31
8.06647E-02 5.96538E-31
8.30571E-02 5.35221E-31
8.54812E-02 4.67981E-31
8.79369E-02 3.98941E-31
9.04240E-02 3.31600E-31
9.29422E-02 2.68669E-31
9.54915E-02 2.12034E-31
9.80716E-02 1.62808E-31
1.00682E-01 1.21435E-31
1.03323E-01 8.78170E-32
1.05995E-01 6.14558E-32
1.08696E-01 4.15813E-32
1.11427E-01 2.72686E-32
1.14188E-01 1.75352E-32
1.16978E-01 1.14153E-32
1.19797E-01 8.01429E-33
1.22645E-01 6.54364E-33
1.25522E-01 6.33965E-33
1.28428E-01 6.86909E-33
1.31361E-01 7.72491E-33
1.34323E-01 8.61510E-33
1.37313E-01 9.34726E-33
1.40330E-01 9.81112E-33
1.43375E-01 9.96074E-33
1.46447E-01 9.79762E-33
1.49545E-01 9.35551E-33
1.52671E-01 8.68764E-33
1.55823E-01 7.85626E-33
1.59001E-01 6.92475E-33
1.62205E-01 5.95193E-33
1.65435E-01 4.98845E-33
1.68690E-01 4.07481E-33
1.71970E-01 3.24076E-33
1.75276E-01 2.50562E-33
1.78606E-01 1.87934E-33
1.81961E-01 1.36395E-33
1.85340E-01 9.55243E-34
1.88743E-01 6.44405E-34
1.92169E-01 4.19616E-34
1.95619E-01 2.67435E-34
1.99092E-01 1.73953E-34
2.02589E-01 1.25707E-34
2.06107E-01 1.10334E-34
2.09649E-01 1.17005E-34
2.13212E-01 1.36662E-34
2.16797E-01 1.62085E-34
2.20404E-01 1.87833E-34
2.24032E-01 2.10103E-34
2.27680E-01 2.26514E-34
2.31350E-01 2.35872E-34
2.35040E-01 2.37914E-34
2.38751E-01 2.33076E-34
2.42481E-01 2.22263E-34
2.46231E-01 2.06664E-34
2.50000E-01 1.87586E-34
2.53788E-01 1.66336E-34
2.57595E-01 1.44125E-34
2.61421E-01 1.22008E-34
2.65264E-01 1.00848E-34
2.69126E-01 8.13017E-35
2.73005E-01 6.38232E-35
2.76901E-01 4.86788E-35
2.80814E-01 3.59704E-35
2.84744E-01 2.56647E-35
2.88691E-01 1.76224E-35
2.92653E-01 1.16286E-35
2.96632E-01 7.41953E-36
3.00625E-01 4.70683E-36
3.04634E-01 3.19801E-36
3.08658E-01 2.61175E-36
3.12697E-01 2.69006E-36
3.16749E-01 3.20587E-36
3.20816E-01 3.96756E-36
3.24896E-01 4.82052E-36
3.28990E-01 5.64633E-36
3.33097E-01 6.36029E-36
3.37216E-01 6.90786E-36
3.41348E-01 7.25993E-36
3.45492E-01 7.40846E-36
3.49647E-01 7.36149E-36
3.53814E-01 7.13879E-36
3.57992E-01 6.76798E-36
3.62181E-01 6.28062E-36
3.66381E-01 5.70965E-36
3.70590E-01 5.08726E-36
3.74810E-01 4.44296E-36
3.79039E-01 3.80237E-36
3.83277E-01 3.18677E-36
3.87524E-01 2.61290E-36
3.91780E-01 2.09273E-36
3.96044E-01 1.63391E-36
4.00316E-01 1.24017E-36
4.04596E-01 9.11981E-37
4.08882E-01 6.47042E-37
4.13176E-01 4.40995E-37
4.17476E-01 2.87994E-37
4.21783E-01 1.81248E-37
4.26095E-01 1.13549E-37
4.30413E-01 7.75843E-38
4.34737E-01 6.63620E-38
4.39065E-01 7.33896E-38
4.43398E-01 9.28825E-38
4.47736E-01 1.19826E-37
4.52077E-01 1.50065E-37
4.56422E-01 1.80288E-37
4.60770E-01 2.07970E-37
4.65122E-01 2.31343E-37
4.69476E-01 2.49258E-37
4.73832E-01 2.61137E-37
4.78190E-01 2.66893E-37
4.82550E-01 2.66750E-37
4.86912E-01 2.61226E-37
4.91274E-01 2.51042E-37
4.95637E-01 2.37038E-37
5.00000E-01 2.20053E-37
5.04363E-01 2.00962E-37
5.08726E-01 1.80600E-37
5.13088E-01 1.59703E-37
5.17450E-01 1.38954E-37
5.21810E-01 1.18900E-37
5.26168E-01 9.99706E-38
5.30524E-01 8.25150E-38
5.34878E-01 6.67431E-38
5.39230E-01 5.28219E-38
5.43578E-01 4.07811E-38
5.47923E-01 3.06180E-38
5.52264E-01 2.22519E-38
5.56602E-01 1.55789E-38
5.60935E-01 1.04364E-38
5.65263E-01 6.66127E-39
5.69587E-01 1.00000E-45
5.73905E-01 1.00000E-45
5.78217E-01 1.00000E-45
5.82524E-01 1.00000E-45
5.86824E-01 1.00000E-45
5.91118E-01 1.00000E-45
5.95404E-01 1.00000E-45
5.99684E-01 1.00000E-45
6.03956E-01 1.00000E-45
6.08220E-01 1.00000E-45
6.12476E-01 1.00000E-45
6.16723E-01 1.00000E-45
6.20961E-01 1.00000E-45
6.25190E-01 1.00000E-45
6.29410E-01 1.00000E-45
6.33619E-01 1.00000E-45
6.37819E-01 1.00000E-45
6.42008E-01 1.00000E-45
6.46186E-01 1.00000E-45
6.50353E-01 1.00000E-45
6.54508E-01 1.00000E-45
6.58652E-01 1.00000E-45
6.62784E-01 1.00000E-45
6.66903E-01 1.00000E-45
6.71010E-01 1.00000E-45
6.75104E-01 1.00000E-45
6.79184E-01 1.00000E-45
6.83251E-01 1.00000E-45
6.87303E-01 1.00000E-45
6.91342E-01 1.00000E-45
6.95366E-01 1.00000E-45
6.99375E-01 1.00000E-45
7.03368E-01 1.00000E-45
7.07347E-01 1.00000E-45
7.11309E-01 1.00000E-45
7.15256E-01 1.00000E-45
7.19186E-01 1.00000E-45
7.23099E-01 1.00000E-45
7.26995E-01 1.00000E-45
7.30874E-01 1.00000E-45
7.34736E-01 1.00000E-45
7.38579E-01 1.00000E-45
7.42405E-01 1.00000E-45
7.46212E-01 1.00000E-45
7.50000E-01 1.00000E-45
7.53769E-01 1.00000E-45
7.57519E-01 1.00000E-45
7.61249E-01 1.00000E-45
7.64960E-01 1.00000E-45
7.68650E-01 1.00000E-45
7.72320E-01 1.00000E-45
7.75968E-01 1.00000E-45
7.79596E-01 1.00000E-45
7.83203E-01 1.00000E-45
7.86788E-01 1.00000E-45
7.90351E-01 1.00000E-45
7.93893E-01 1.00000E-45
7.97411E-01 1.00000E-45
8.00908E-01 1.00000E-45
8.04381E-01 1.00000E-45
8.07831E-01 1.00000E-45
8.11257E-01 1.00000E-45
8.14660E-01 1.00000E-45
8.18039E-01 1.00000E-45
8.21394E-01 1.00000E-45
8.24724E-01 1.00000E-45
8.28030E-01 1.00000E-45
8.31310E-01 1.00000E-45
8.34565E-01 1.00000E-45
8.37795E-01 1.00000E-45
8.40999E-01 1.00000E-45
8.44177E-01 1.00000E-45
8.47329E-01 1.00000E-45
8.50455E-01 1.00000E-45
8.53553E-01 1.00000E-45
8.56625E-01 1.00000E-45
8.59670E-01 1.00000E-45
8.62687E-01 1.00000E-45
8.65677E-01 1.00000E-45
8.68639E-01 1.00000E-45
8.71572E-01 1.00000E-45
8.74478E-01 1.00000E-45
8.77355E-01 1.00000E-45
8.80203E-01 1.00000E-45
8.83022E-01 1.00000E-45
8.85812E-01 1.00000E-45
8.88573E-01 1.00000E-45
8.91304E-01 1.00000E-45
8.94005E-01 1.00000E-45
8.96677E-01 1.00000E-45
8.99318E-01 1.00000E-45
9.01928E-01 1.00000E-45
9.04508E-01 1.00000E-45
9.07058E-01 1.00000E-45
9.09576E-01 1.00000E-45
9.12063E-01 1.00000E-45
9.14519E-01 1.00000E-45
9.16943E-01 1.00000E-45
9.19335E-01 1.00000E-45
9.21696E-01 1.00000E-45
9.24024E-01 1.00000E-45
9.26320E-01 1.00000E-45
9.28584E-01 1.00000E-45
9.30815E-01 1.00000E-45
9.33013E-01 1.00000E-45
9.35178E-01 1.00000E-45
9.37310E-01 1.00000E-45
9.39409E-01 1.00000E-45
9.41474E-01 1.00000E-45
9.43505E-01 1.00000E-45
9.45503E-01 1.00000E-45
9.47467E-01 1.00000E-45
9.49397E-01 1.00000E-45
9.51293E-01 1.00000E-45
9.53154E-01 1.00000E-45
9.54981E-01 1.00000E-45
9.56773E-01 1.00000E-45
9.58530E-01 1.00000E-45
9.60252E-01 1.00000E-45
9.61940E-01 1.00000E-45
9.63592E-01 1.00000E-45
9.65209E-01 1.00000E-45
9.66790E-01 1.00000E-45
9.68336E-01 1.00000E-45
9.69846E-01 1.00000E-45
9.71321E-01 1.00000E-45
9.72759E-01 1.00000E-45
9.74162E-01 1.00000E-45
9.75528E-01 1.00000E-45
9.76858E-01 1.00000E-45
9.78152E-01 1.00000E-45
9.79410E-01 1.00000E-45
9.80631E-01 1.00000E-45
9.81815E-01 1.00000E-45
9.82963E-01 1.00000E-45
9.84074E-01 1.00000E-45
9.85148E-01 1.00000E-45
9.86185E-01 1.00000E-45
9.87185E-01 1.00000E-45
9.88148E-01 1.00000E-45
9.89074E-01 1.00000E-45
9.89962E-01 1.00000E-45
9.90814E-01 1.00000E-45
9.91627E-01 1.00000E-45
9.92404E-01 1.00000E-45
9.93143E-01 1.00000E-45
9.93844E-01 1.00000E-45
9.94508E-01 1.00000E-45
9.95134E-01 1.00000E-45
9.95722E-01 1.00000E-45
9.96273E-01 1.00000E-45
9.96786E-01 1.00000E-45
9.97261E-01 1.00000E-45
9.97698E-01 1.00000E-45
9.98097E-01 1.00000E-45
9.98459E-01 1.00000E-45
9.98782E-01 1.00000E-45
9.99067E-01 1.00000E-45
9.99315E-01 1.00000E-45
9.99524E-01 1.00000E-45
9.99695E-01 1.00000E-45
9.99829E-01 1.00000E-45
9.99924E-01 1.00000E-45
9.99981E-01 1.00000E-45
1.00000E+00 1.00000E-45
