 #
 # Subroutine ELSEPA. Elastic scattering of electrons and positrons
 #                    by neutral atoms and positive ions
 #
 # Projectile: positron
 # Kinetic energy = 1.25000E+06 eV = 4.59367E+04 a.u.
 #
 # WARNING: High-energy factorization with free-atom DF screening.
 #          Absorption, polarization and exchange corrections are
 #          switched off.
 #          Phase shifts are calculated for the bare nucleus.
 #          Scattering amplitudes are not evaluated.
 #
 # Element: Cd,  Z =  48,  atomic weight = 1.12411E+02 g/mol
 #
 # Nuclear model: Fermi distribution
 #                Average radius = 5.16401E-13 cm
 #                Skin thickness = 5.46000E-14 cm
 #
 # Number of electrons = 48
 #
 # Total elastic cross section = 4.89637E-18 cm**2 = 1.74852E-01 a0**2
 # 1st transport cross section = 8.94370E-22 cm**2 = 3.19385E-05 a0**2
 # 2nd transport cross section = 2.52854E-21 cm**2 = 9.02958E-05 a0**2
 #
 #
 # Differential cross section:                       MU=(1-COS(THETA))/2
 #
 #  THETA        MU          DCS          DCS        Sherman      error
 #  (deg)                 (cm**2/sr)   (a0**2/sr)    function
 #----------------------------------------------------------------------
0.00000E+00 9.79808E-14
7.61557E-13 9.79807E-14
1.18994E-12 9.79806E-14
1.71346E-12 9.79805E-14
2.33225E-12 9.79805E-14
3.04617E-12 9.79804E-14
3.85530E-12 9.79803E-14
4.75964E-12 9.79802E-14
5.75917E-12 9.79801E-14
6.85391E-12 9.79800E-14
8.04379E-12 9.79799E-14
9.32893E-12 9.79798E-14
1.07092E-11 9.79796E-14
1.21847E-11 9.79795E-14
1.37554E-11 9.79793E-14
1.54213E-11 9.79792E-14
1.71823E-11 9.79790E-14
1.90386E-11 9.79789E-14
2.09900E-11 9.79787E-14
2.30367E-11 9.79785E-14
2.51785E-11 9.79783E-14
2.74156E-11 9.79781E-14
2.97478E-11 9.79779E-14
3.21752E-11 9.79777E-14
3.46979E-11 9.79775E-14
3.73157E-11 9.79772E-14
4.00286E-11 9.79770E-14
4.28368E-11 9.79768E-14
4.57402E-11 9.79765E-14
4.87388E-11 9.79763E-14
5.18325E-11 9.79760E-14
5.50215E-11 9.79757E-14
5.83057E-11 9.79754E-14
6.16850E-11 9.79751E-14
6.51595E-11 9.79748E-14
6.87293E-11 9.79745E-14
7.23943E-11 9.79742E-14
7.61544E-11 9.79739E-14
1.18991E-10 9.79703E-14
1.71347E-10 9.79659E-14
2.33223E-10 9.79608E-14
3.04617E-10 9.79549E-14
3.85531E-10 9.79482E-14
4.75965E-10 9.79408E-14
5.75917E-10 9.79326E-14
6.85389E-10 9.79237E-14
8.04380E-10 9.79140E-14
9.32891E-10 9.79036E-14
1.07092E-09 9.78924E-14
1.21847E-09 9.78804E-14
1.37554E-09 9.78677E-14
1.54213E-09 9.78542E-14
1.71823E-09 9.78400E-14
1.90386E-09 9.78250E-14
2.09900E-09 9.78093E-14
2.30367E-09 9.77928E-14
2.51785E-09 9.77756E-14
2.74156E-09 9.77576E-14
2.97478E-09 9.77388E-14
3.21752E-09 9.77193E-14
3.46978E-09 9.76991E-14
3.73156E-09 9.76781E-14
4.00286E-09 9.76564E-14
4.28368E-09 9.76339E-14
4.57402E-09 9.76107E-14
4.87388E-09 9.75867E-14
5.18326E-09 9.75620E-14
5.50215E-09 9.75365E-14
5.83057E-09 9.75103E-14
6.16850E-09 9.74834E-14
6.51596E-09 9.74557E-14
6.87293E-09 9.74273E-14
7.23942E-09 9.73981E-14
7.61544E-09 9.73682E-14
1.18991E-08 9.70291E-14
1.71347E-08 9.66179E-14
2.33223E-08 9.61362E-14
3.04617E-08 9.55861E-14
3.85531E-08 9.49697E-14
4.75965E-08 9.42893E-14
5.75917E-08 9.35477E-14
6.85389E-08 9.27475E-14
8.04380E-08 9.18918E-14
9.32891E-08 9.09762E-14
1.07092E-07 9.00173E-14
1.21847E-07 8.90195E-14
1.37554E-07 8.79685E-14
1.54213E-07 8.68792E-14
1.71823E-07 8.57632E-14
1.90386E-07 8.46095E-14
2.09900E-07 8.34197E-14
2.30367E-07 8.22149E-14
2.51785E-07 8.09912E-14
2.74156E-07 7.97303E-14
2.97478E-07 7.84654E-14
3.21752E-07 7.71997E-14
3.46978E-07 7.58977E-14
3.73156E-07 7.45992E-14
4.00286E-07 7.33089E-14
4.28368E-07 7.19999E-14
4.57402E-07 7.06914E-14
4.87388E-07 6.93987E-14
5.18325E-07 6.81045E-14
5.50215E-07 6.68062E-14
5.83057E-07 6.55294E-14
6.16850E-07 6.42675E-14
6.51596E-07 6.29956E-14
6.87293E-07 6.17496E-14
7.23942E-07 6.05301E-14
7.61543E-07 5.93004E-14
1.18991E-06 4.81184E-14
1.71347E-06 3.89370E-14
2.33223E-06 3.16275E-14
3.04617E-06 2.58559E-14
3.85531E-06 2.12825E-14
4.75964E-06 1.76285E-14
5.75916E-06 1.46818E-14
6.85388E-06 1.22855E-14
8.04378E-06 1.03232E-14
9.32888E-06 8.59045E-15
1.07092E-05 7.26268E-15
1.21846E-05 6.23190E-15
1.37553E-05 5.29812E-15
1.54212E-05 4.51999E-15
1.71822E-05 3.89998E-15
1.90385E-05 3.36790E-15
2.09899E-05 2.90656E-15
2.30365E-05 2.53007E-15
2.51783E-05 2.21444E-15
2.74153E-05 1.93433E-15
2.97475E-05 1.70114E-15
3.21749E-05 1.50568E-15
3.46974E-05 1.33237E-15
3.73152E-05 1.18527E-15
4.00281E-05 1.05999E-15
4.28362E-05 9.50073E-16
4.57395E-05 8.54442E-16
4.87380E-05 7.71723E-16
5.18317E-05 6.99006E-16
5.50205E-05 6.34601E-16
5.83045E-05 5.78217E-16
6.16838E-05 5.28446E-16
6.51582E-05 4.83650E-16
6.87277E-05 4.44038E-16
7.23925E-05 4.08885E-16
7.61524E-05 3.76786E-16
9.21439E-05 2.77403E-16
1.09658E-04 2.09301E-16
1.28695E-04 1.60962E-16
1.49255E-04 1.25499E-16
1.71338E-04 9.90970E-17
1.94942E-04 7.91381E-17
2.20070E-04 6.38153E-17
2.46720E-04 5.19192E-17
2.74892E-04 4.26127E-17
3.04586E-04 3.52779E-17
3.35803E-04 2.94407E-17
3.68542E-04 2.47536E-17
4.02802E-04 2.09552E-17
4.38585E-04 1.78585E-17
4.75889E-04 1.53158E-17
5.14715E-04 1.32135E-17
5.55063E-04 1.14629E-17
5.96931E-04 9.99585E-18
6.40321E-04 8.75848E-18
6.85233E-04 7.70840E-18
7.31665E-04 6.81198E-18
7.79618E-04 6.04272E-18
8.29092E-04 5.37847E-18
8.80086E-04 4.80318E-18
9.32601E-04 4.30499E-18
9.86636E-04 3.87074E-18
1.04219E-03 3.48739E-18
1.09927E-03 3.15162E-18
1.15786E-03 2.85646E-18
1.21797E-03 2.59289E-18
1.27961E-03 2.35953E-18
1.34276E-03 2.15252E-18
1.40743E-03 1.96688E-18
1.47362E-03 1.80063E-18
1.54133E-03 1.65198E-18
1.61056E-03 1.51813E-18
1.68131E-03 1.39706E-18
1.75357E-03 1.28806E-18
1.82735E-03 1.18957E-18
1.90265E-03 1.09979E-18
1.97947E-03 1.01846E-18
2.05780E-03 9.44653E-19
2.13765E-03 8.77041E-19
2.21902E-03 8.15403E-19
2.30190E-03 7.59169E-19
2.38630E-03 7.07552E-19
2.47222E-03 6.60183E-19
2.55965E-03 6.16764E-19
2.64859E-03 5.76822E-19
2.73905E-03 5.39966E-19
2.83103E-03 5.06040E-19
2.92452E-03 4.74752E-19
3.01952E-03 4.45743E-19
3.11604E-03 4.18937E-19
3.21407E-03 3.94137E-19
3.31362E-03 3.71084E-19
3.41468E-03 3.49694E-19
3.51725E-03 3.29836E-19
3.62133E-03 3.11343E-19
3.72692E-03 2.94112E-19
3.83403E-03 2.78066E-19
3.94265E-03 2.63095E-19
4.05278E-03 2.49096E-19
4.16442E-03 2.36023E-19
4.27757E-03 2.23800E-19
4.39223E-03 2.12336E-19
4.50840E-03 2.01602E-19
4.62608E-03 1.91541E-19
4.74527E-03 1.82088E-19
4.86597E-03 1.73209E-19
4.98817E-03 1.64869E-19
5.11188E-03 1.57019E-19
5.23711E-03 1.49626E-19
5.36383E-03 1.42666E-19
5.49207E-03 1.36105E-19
5.62181E-03 1.29911E-19
5.75306E-03 1.24066E-19
5.88581E-03 1.18548E-19
6.02007E-03 1.13327E-19
6.15583E-03 1.08391E-19
6.29310E-03 1.03723E-19
6.43187E-03 9.92993E-20
6.57214E-03 9.51084E-20
6.71392E-03 9.11372E-20
6.85720E-03 8.73695E-20
7.00198E-03 8.37928E-20
7.14827E-03 8.03979E-20
7.29605E-03 7.71731E-20
7.44534E-03 7.41060E-20
7.59612E-03 7.11902E-20
7.97965E-03 6.45018E-20
8.37255E-03 5.85785E-20
8.77480E-03 5.33177E-20
9.18641E-03 4.86313E-20
9.60736E-03 4.44471E-20
1.00376E-02 4.07019E-20
1.04773E-02 3.73416E-20
1.09262E-02 3.43190E-20
1.13844E-02 3.15950E-20
1.18520E-02 2.91349E-20
1.23288E-02 2.69087E-20
1.28150E-02 2.48899E-20
1.33104E-02 2.30559E-20
1.38150E-02 2.13870E-20
1.43290E-02 1.98657E-20
1.48521E-02 1.84765E-20
1.53845E-02 1.72058E-20
1.59262E-02 1.60420E-20
1.64770E-02 1.49744E-20
1.70371E-02 1.39936E-20
1.76063E-02 1.30912E-20
1.81848E-02 1.22599E-20
1.87724E-02 1.14932E-20
1.93692E-02 1.07852E-20
1.99751E-02 1.01303E-20
2.05901E-02 9.52415E-21
2.12143E-02 8.96233E-21
2.18476E-02 8.44105E-21
2.24900E-02 7.95680E-21
2.31415E-02 7.50652E-21
2.38021E-02 7.08743E-21
2.44717E-02 6.69696E-21
2.51504E-02 6.33278E-21
2.58382E-02 5.99282E-21
2.65349E-02 5.67520E-21
2.72407E-02 5.37818E-21
2.79555E-02 5.10017E-21
2.86793E-02 4.83973E-21
2.94120E-02 4.59557E-21
3.01537E-02 4.36648E-21
3.09043E-02 4.15137E-21
3.16639E-02 3.94921E-21
3.24324E-02 3.75911E-21
3.32098E-02 3.58021E-21
3.39961E-02 3.41173E-21
3.47912E-02 3.25294E-21
3.55952E-02 3.10321E-21
3.64081E-02 2.96191E-21
3.72297E-02 2.82849E-21
3.80602E-02 2.70241E-21
3.88995E-02 2.58322E-21
3.97476E-02 2.47047E-21
4.06044E-02 2.36374E-21
4.14700E-02 2.26265E-21
4.23443E-02 2.16685E-21
4.32273E-02 2.07602E-21
4.41190E-02 1.98986E-21
4.50194E-02 1.90806E-21
4.59284E-02 1.83039E-21
4.68461E-02 1.75658E-21
4.87074E-02 1.61969E-21
5.06030E-02 1.49575E-21
5.25328E-02 1.38331E-21
5.44967E-02 1.28113E-21
5.64946E-02 1.18812E-21
5.85262E-02 1.10330E-21
6.05914E-02 1.02584E-21
6.26901E-02 9.54982E-22
6.48222E-02 8.90068E-22
6.69873E-02 8.30515E-22
6.91854E-02 7.75802E-22
7.14163E-02 7.25469E-22
7.36799E-02 6.79104E-22
7.59760E-02 6.36339E-22
7.83043E-02 5.96847E-22
8.06647E-02 5.60334E-22
8.30571E-02 5.26534E-22
8.54812E-02 4.95215E-22
8.79369E-02 4.66159E-22
9.04240E-02 4.39175E-22
9.29422E-02 4.14092E-22
9.54915E-02 3.90747E-22
9.80716E-02 3.69004E-22
1.00682E-01 3.48732E-22
1.03323E-01 3.29813E-22
1.05995E-01 3.12142E-22
1.08696E-01 2.95621E-22
1.11427E-01 2.80164E-22
1.14188E-01 2.65689E-22
1.16978E-01 2.52123E-22
1.19797E-01 2.39399E-22
1.22645E-01 2.27455E-22
1.25522E-01 2.16236E-22
1.28428E-01 2.05688E-22
1.31361E-01 1.95767E-22
1.34323E-01 1.86426E-22
1.37313E-01 1.77628E-22
1.40330E-01 1.69333E-22
1.43375E-01 1.61509E-22
1.46447E-01 1.54125E-22
1.49545E-01 1.47150E-22
1.52671E-01 1.40559E-22
1.55823E-01 1.34326E-22
1.59001E-01 1.28429E-22
1.62205E-01 1.22846E-22
1.65435E-01 1.17558E-22
1.68690E-01 1.12546E-22
1.71970E-01 1.07793E-22
1.75276E-01 1.03284E-22
1.78606E-01 9.90034E-23
1.81961E-01 9.49383E-23
1.85340E-01 9.10756E-23
1.88743E-01 8.74035E-23
1.92169E-01 8.39110E-23
1.95619E-01 8.05876E-23
1.99092E-01 7.74237E-23
2.02589E-01 7.44104E-23
2.06107E-01 7.15392E-23
2.09649E-01 6.88021E-23
2.13212E-01 6.61920E-23
2.16797E-01 6.37017E-23
2.20404E-01 6.13248E-23
2.24032E-01 5.90554E-23
2.27680E-01 5.68875E-23
2.31350E-01 5.48159E-23
2.35040E-01 5.28356E-23
2.38751E-01 5.09418E-23
2.42481E-01 4.91300E-23
2.46231E-01 4.73961E-23
2.50000E-01 4.57363E-23
2.53788E-01 4.41466E-23
2.57595E-01 4.26236E-23
2.61421E-01 4.11641E-23
2.65264E-01 3.97650E-23
2.69126E-01 3.84232E-23
2.73005E-01 3.71360E-23
2.76901E-01 3.59009E-23
2.80814E-01 3.47153E-23
2.84744E-01 3.35769E-23
2.88691E-01 3.24835E-23
2.92653E-01 3.14330E-23
2.96632E-01 3.04234E-23
3.00625E-01 2.94528E-23
3.04634E-01 2.85195E-23
3.08658E-01 2.76218E-23
3.12697E-01 2.67581E-23
3.16749E-01 2.59268E-23
3.20816E-01 2.51266E-23
3.24896E-01 2.43561E-23
3.28990E-01 2.36140E-23
3.33097E-01 2.28990E-23
3.37216E-01 2.22100E-23
3.41348E-01 2.15458E-23
3.45492E-01 2.09055E-23
3.49647E-01 2.02880E-23
3.53814E-01 1.96924E-23
3.57992E-01 1.91177E-23
3.62181E-01 1.85631E-23
3.66381E-01 1.80277E-23
3.70590E-01 1.75109E-23
3.74810E-01 1.70117E-23
3.79039E-01 1.65296E-23
3.83277E-01 1.60638E-23
3.87524E-01 1.56136E-23
3.91780E-01 1.51786E-23
3.96044E-01 1.47580E-23
4.00316E-01 1.43513E-23
4.04596E-01 1.39580E-23
4.08882E-01 1.35775E-23
4.13176E-01 1.32094E-23
4.17476E-01 1.28531E-23
4.21783E-01 1.25083E-23
4.26095E-01 1.21745E-23
4.30413E-01 1.18513E-23
4.34737E-01 1.15383E-23
4.39065E-01 1.12351E-23
4.43398E-01 1.09414E-23
4.47736E-01 1.06568E-23
4.52077E-01 1.03810E-23
4.56422E-01 1.01136E-23
4.60770E-01 9.85440E-24
4.65122E-01 9.60307E-24
4.69476E-01 9.35933E-24
4.73832E-01 9.12291E-24
4.78190E-01 8.89355E-24
4.82550E-01 8.67101E-24
4.86912E-01 8.45505E-24
4.91274E-01 8.24543E-24
4.95637E-01 8.04196E-24
5.00000E-01 7.84440E-24
5.04363E-01 7.65257E-24
5.08726E-01 7.46626E-24
5.13088E-01 7.28530E-24
5.17450E-01 7.10950E-24
5.21810E-01 6.93869E-24
5.26168E-01 6.77271E-24
5.30524E-01 6.61140E-24
5.34878E-01 6.45460E-24
5.39230E-01 6.30216E-24
5.43578E-01 6.15395E-24
5.47923E-01 6.00983E-24
5.52264E-01 5.86967E-24
5.56602E-01 5.73333E-24
5.60935E-01 5.60071E-24
5.65263E-01 5.47167E-24
5.69587E-01 5.34611E-24
5.73905E-01 5.22393E-24
5.78217E-01 5.10500E-24
5.82524E-01 4.98924E-24
5.86824E-01 4.87655E-24
5.91118E-01 4.76682E-24
5.95404E-01 4.65998E-24
5.99684E-01 4.55593E-24
6.03956E-01 4.45458E-24
6.08220E-01 4.35586E-24
6.12476E-01 4.25969E-24
6.16723E-01 4.16599E-24
6.20961E-01 4.07469E-24
6.25190E-01 3.98572E-24
6.29410E-01 3.89900E-24
6.33619E-01 3.81448E-24
6.37819E-01 3.73208E-24
6.42008E-01 3.65175E-24
6.46186E-01 3.57343E-24
6.50353E-01 3.49706E-24
6.54508E-01 3.42258E-24
6.58652E-01 3.34994E-24
6.62784E-01 3.27909E-24
6.66903E-01 3.20998E-24
6.71010E-01 3.14255E-24
6.75104E-01 3.07676E-24
6.79184E-01 3.01258E-24
6.83251E-01 2.94994E-24
6.87303E-01 2.88881E-24
6.91342E-01 2.82915E-24
6.95366E-01 2.77091E-24
6.99375E-01 2.71406E-24
7.03368E-01 2.65857E-24
7.07347E-01 2.60439E-24
7.11309E-01 2.55148E-24
7.15256E-01 2.49983E-24
7.19186E-01 2.44938E-24
7.23099E-01 2.40011E-24
7.26995E-01 2.35200E-24
7.30874E-01 2.30500E-24
7.34736E-01 2.25909E-24
7.38579E-01 2.21424E-24
7.42405E-01 2.17043E-24
7.46212E-01 2.12762E-24
7.50000E-01 2.08579E-24
7.53769E-01 2.04492E-24
7.57519E-01 2.00499E-24
7.61249E-01 1.96596E-24
7.64960E-01 1.92781E-24
7.68650E-01 1.89053E-24
7.72320E-01 1.85409E-24
7.75968E-01 1.81847E-24
7.79596E-01 1.78366E-24
7.83203E-01 1.74962E-24
7.86788E-01 1.71635E-24
7.90351E-01 1.68382E-24
7.93893E-01 1.65201E-24
7.97411E-01 1.62091E-24
8.00908E-01 1.59051E-24
8.04381E-01 1.56078E-24
8.07831E-01 1.53170E-24
8.11257E-01 1.50327E-24
8.14660E-01 1.47547E-24
8.18039E-01 1.44828E-24
8.21394E-01 1.42169E-24
8.24724E-01 1.39568E-24
8.28030E-01 1.37025E-24
8.31310E-01 1.34537E-24
8.34565E-01 1.32104E-24
8.37795E-01 1.29724E-24
8.40999E-01 1.27397E-24
8.44177E-01 1.25120E-24
8.47329E-01 1.22894E-24
8.50455E-01 1.20715E-24
8.53553E-01 1.18585E-24
8.56625E-01 1.16501E-24
8.59670E-01 1.14463E-24
8.62687E-01 1.12469E-24
8.65677E-01 1.10519E-24
8.68639E-01 1.08612E-24
8.71572E-01 1.06747E-24
8.74478E-01 1.04922E-24
8.77355E-01 1.03137E-24
8.80203E-01 1.01392E-24
8.83022E-01 9.96852E-25
8.85812E-01 9.80159E-25
8.88573E-01 9.63834E-25
8.91304E-01 9.47871E-25
8.94005E-01 9.32260E-25
8.96677E-01 9.16997E-25
8.99318E-01 9.02073E-25
9.01928E-01 8.87481E-25
9.04508E-01 8.73217E-25
9.07058E-01 8.59272E-25
9.09576E-01 8.45641E-25
9.12063E-01 8.32318E-25
9.14519E-01 8.19298E-25
9.16943E-01 8.06573E-25
9.19335E-01 7.94140E-25
9.21696E-01 7.81991E-25
9.24024E-01 7.70123E-25
9.26320E-01 7.58530E-25
9.28584E-01 7.47208E-25
9.30815E-01 7.36150E-25
9.33013E-01 7.25354E-25
9.35178E-01 7.14813E-25
9.37310E-01 7.04524E-25
9.39409E-01 6.94483E-25
9.41474E-01 6.84685E-25
9.43505E-01 6.75126E-25
9.45503E-01 6.65802E-25
9.47467E-01 6.56709E-25
9.49397E-01 6.47845E-25
9.51293E-01 6.39204E-25
9.53154E-01 6.30784E-25
9.54981E-01 6.22581E-25
9.56773E-01 6.14592E-25
9.58530E-01 6.06814E-25
9.60252E-01 5.99243E-25
9.61940E-01 5.91876E-25
9.63592E-01 5.84711E-25
9.65209E-01 5.77745E-25
9.66790E-01 5.70975E-25
9.68336E-01 5.64397E-25
9.69846E-01 5.58011E-25
9.71321E-01 5.51813E-25
9.72759E-01 5.45800E-25
9.74162E-01 5.39971E-25
9.75528E-01 5.34324E-25
9.76858E-01 5.28855E-25
9.78152E-01 5.23562E-25
9.79410E-01 5.18445E-25
9.80631E-01 5.13501E-25
9.81815E-01 5.08727E-25
9.82963E-01 5.04123E-25
9.84074E-01 4.99686E-25
9.85148E-01 4.95414E-25
9.86185E-01 4.91307E-25
9.87185E-01 4.87362E-25
9.88148E-01 4.83578E-25
9.89074E-01 4.79953E-25
9.89962E-01 4.76487E-25
9.90814E-01 4.73177E-25
9.91627E-01 4.70024E-25
9.92404E-01 4.67024E-25
9.93143E-01 4.64178E-25
9.93844E-01 4.61484E-25
9.94508E-01 4.58942E-25
9.95134E-01 4.56550E-25
9.95722E-01 4.54307E-25
9.96273E-01 4.52212E-25
9.96786E-01 4.50266E-25
9.97261E-01 4.48467E-25
9.97698E-01 4.46813E-25
9.98097E-01 4.45306E-25
9.98459E-01 4.43944E-25
9.98782E-01 4.42727E-25
9.99067E-01 4.41654E-25
9.99315E-01 4.40725E-25
9.99524E-01 4.39939E-25
9.99695E-01 4.39297E-25
9.99829E-01 4.38797E-25
9.99924E-01 4.38441E-25
9.99981E-01 4.38227E-25
1.00000E+00 4.38155E-25
