 #
 # Subroutine ELSEPA. Elastic scattering of electrons and positrons
 #                    by neutral atoms and positive ions
 #
 # Projectile: positron
 # Kinetic energy = 1.00000E+09 eV = 3.67493E+07 a.u.
 #
 # WARNING: High-energy factorization with free-atom DF screening.
 #          Absorption, polarization and exchange corrections are
 #          switched off.
 #          Phase shifts are calculated for the bare nucleus.
 #          Scattering amplitudes are not evaluated.
 #
 # Element: Cd,  Z =  48,  atomic weight = 1.12411E+02 g/mol
 #
 # Nuclear model: Fermi distribution
 #                Average radius = 5.16401E-13 cm
 #                Skin thickness = 5.46000E-14 cm
 #
 # Number of electrons = 48
 #
 # Total elastic cross section = 4.47422E-18 cm**2 = 1.59777E-01 a0**2
 # 1st transport cross section = 4.52867E-27 cm**2 = 1.61722E-10 a0**2
 # 2nd transport cross section = 1.35846E-26 cm**2 = 4.85115E-10 a0**2
 #
 #
 # Differential cross section:                       MU=(1-COS(THETA))/2
 #
 #  THETA        MU          DCS          DCS        Sherman      error
 #  (deg)                 (cm**2/sr)   (a0**2/sr)    function
 #----------------------------------------------------------------------
0.00000E+00 3.16276E-08
7.61557E-13 2.58486E-08
1.18994E-12 2.33858E-08
1.71346E-12 2.09114E-08
2.33225E-12 1.85519E-08
3.04617E-12 1.63887E-08
3.85530E-12 1.44536E-08
4.75964E-12 1.27492E-08
5.75917E-12 1.12613E-08
6.85391E-12 9.96525E-09
8.04379E-12 8.83866E-09
9.32893E-12 7.85906E-09
1.07092E-11 7.00515E-09
1.21847E-11 6.25840E-09
1.37554E-11 5.60308E-09
1.54213E-11 5.02456E-09
1.71823E-11 4.51390E-09
1.90386E-11 4.06184E-09
2.09900E-11 3.66068E-09
2.30367E-11 3.30165E-09
2.51785E-11 2.95547E-09
2.74156E-11 2.66146E-09
2.97478E-11 2.41024E-09
3.21752E-11 2.19437E-09
3.46979E-11 2.00783E-09
3.73157E-11 1.82597E-09
4.00286E-11 1.65491E-09
4.28368E-11 1.50629E-09
4.57402E-11 1.37658E-09
4.87388E-11 1.26288E-09
5.18325E-11 1.16153E-09
5.50215E-11 1.06058E-09
5.83057E-11 9.71568E-10
6.16850E-11 8.92812E-10
6.51595E-11 8.22890E-10
6.87293E-11 7.60608E-10
7.23943E-11 7.01985E-10
7.61544E-11 6.47791E-10
1.18991E-10 3.18868E-10
1.71347E-10 1.77433E-10
2.33223E-10 1.08290E-10
3.04617E-10 7.04243E-11
3.85531E-10 4.78129E-11
4.75965E-10 3.34825E-11
5.75917E-10 2.40346E-11
6.85389E-10 1.76030E-11
8.04380E-10 1.31515E-11
9.32891E-10 1.00086E-11
1.07092E-09 7.74505E-12
1.21847E-09 6.08518E-12
1.37554E-09 4.84843E-12
1.54213E-09 3.91288E-12
1.71823E-09 3.19492E-12
1.90386E-09 2.63592E-12
2.09900E-09 2.19495E-12
2.30367E-09 1.84300E-12
2.51785E-09 1.55857E-12
2.74156E-09 1.32851E-12
2.97478E-09 1.13857E-12
3.21752E-09 9.82055E-13
3.46978E-09 8.51186E-13
3.73156E-09 7.41513E-13
4.00286E-09 6.48911E-13
4.28368E-09 5.70205E-13
4.57402E-09 5.03162E-13
4.87388E-09 4.45468E-13
5.18326E-09 3.95947E-13
5.50215E-09 3.52908E-13
5.83057E-09 3.15673E-13
6.16850E-09 2.83081E-13
6.51596E-09 2.54637E-13
6.87293E-09 2.29620E-13
7.23942E-09 2.07604E-13
7.61544E-09 1.88149E-13
1.18991E-08 7.86598E-14
1.71347E-08 3.84178E-14
2.33223E-08 2.09322E-14
3.04617E-08 1.23618E-14
3.85531E-08 7.76457E-15
4.75965E-08 5.11984E-15
5.75917E-08 3.51136E-15
6.85389E-08 2.48769E-15
8.04380E-08 1.81121E-15
9.32891E-08 1.34972E-15
1.07092E-07 1.02620E-15
1.21847E-07 7.94009E-16
1.37554E-07 6.23884E-16
1.54213E-07 4.96950E-16
1.71823E-07 4.00697E-16
1.90386E-07 3.26645E-16
2.09900E-07 2.68927E-16
2.30367E-07 2.23404E-16
2.51785E-07 1.87114E-16
2.74156E-07 1.57898E-16
2.97478E-07 1.34165E-16
3.21752E-07 1.14726E-16
3.46978E-07 9.86824E-17
3.73156E-07 8.53464E-17
4.00286E-07 7.41880E-17
4.28368E-07 6.47942E-17
4.57402E-07 5.68408E-17
4.87388E-07 5.00707E-17
5.18325E-07 4.42788E-17
5.50215E-07 3.93004E-17
5.83057E-07 3.50023E-17
6.16850E-07 3.12757E-17
6.51596E-07 2.80321E-17
6.87293E-07 2.51981E-17
7.23942E-07 2.27133E-17
7.61543E-07 2.05273E-17
1.18991E-06 8.41181E-18
1.71347E-06 4.05725E-18
2.33223E-06 2.19005E-18
3.04617E-06 1.28370E-18
3.85531E-06 8.01340E-19
4.75964E-06 5.25700E-19
5.75916E-06 3.59015E-19
6.85388E-06 2.53455E-19
8.04378E-06 1.83988E-19
9.32888E-06 1.36769E-19
1.07092E-05 1.03770E-19
1.21846E-05 8.01474E-20
1.37553E-05 6.28793E-20
1.54212E-05 5.00203E-20
1.71822E-05 4.02861E-20
1.90385E-05 3.28001E-20
2.09899E-05 2.69888E-20
2.30365E-05 2.24073E-20
2.51783E-05 1.87552E-20
2.74153E-05 1.58154E-20
2.97475E-05 1.34284E-20
3.21749E-05 1.14750E-20
3.46974E-05 9.86456E-21
3.73152E-05 8.52755E-21
4.00281E-05 7.41001E-21
4.28362E-05 6.46986E-21
4.57395E-05 5.67412E-21
4.87380E-05 4.99683E-21
5.18317E-05 4.41740E-21
5.50205E-05 3.91938E-21
5.83045E-05 3.48952E-21
6.16838E-05 3.11699E-21
6.51582E-05 2.79292E-21
6.87277E-05 2.50994E-21
7.23925E-05 2.26194E-21
7.61524E-05 2.01145E-21
9.21439E-05 1.36381E-21
1.09658E-04 9.54790E-22
1.28695E-04 6.86612E-22
1.49255E-04 5.05002E-22
1.71338E-04 3.78696E-22
1.94942E-04 2.88744E-22
2.20070E-04 2.23378E-22
2.46720E-04 1.75022E-22
2.74892E-04 1.38678E-22
3.04586E-04 1.10982E-22
3.35803E-04 8.96058E-23
3.68542E-04 7.29240E-23
4.02802E-04 5.97719E-23
4.38585E-04 4.93072E-23
4.75889E-04 4.09115E-23
5.14715E-04 3.41239E-23
5.55063E-04 2.85987E-23
5.96931E-04 2.40721E-23
6.40321E-04 2.03422E-23
6.85233E-04 1.72522E-23
7.31665E-04 1.46796E-23
7.79618E-04 1.25282E-23
8.29092E-04 1.07214E-23
8.80086E-04 9.19810E-24
9.32601E-04 7.90923E-24
9.86636E-04 6.81510E-24
1.04219E-03 5.88346E-24
1.09927E-03 5.08790E-24
1.15786E-03 4.40680E-24
1.21797E-03 3.82226E-24
1.27961E-03 3.31947E-24
1.34276E-03 2.88612E-24
1.40743E-03 2.51189E-24
1.47362E-03 2.18817E-24
1.54133E-03 1.90768E-24
1.61056E-03 1.66430E-24
1.68131E-03 1.45283E-24
1.75357E-03 1.26887E-24
1.82735E-03 1.10865E-24
1.90265E-03 9.68989E-25
1.97947E-03 8.47129E-25
2.05780E-03 7.40718E-25
2.13765E-03 6.47736E-25
2.21902E-03 5.66439E-25
2.30190E-03 4.95322E-25
2.38630E-03 4.33086E-25
2.47222E-03 3.78602E-25
2.55965E-03 3.30893E-25
2.64859E-03 2.89110E-25
2.73905E-03 2.52513E-25
2.83103E-03 2.20459E-25
2.92452E-03 1.92383E-25
3.01952E-03 1.67797E-25
3.11604E-03 1.46271E-25
3.21407E-03 1.27429E-25
3.31362E-03 1.10942E-25
3.41468E-03 9.65224E-26
3.51725E-03 8.39164E-26
3.62133E-03 7.29023E-26
3.72692E-03 6.32851E-26
3.83403E-03 5.48935E-26
3.94265E-03 4.75770E-26
4.05278E-03 4.12030E-26
4.16442E-03 3.56553E-26
4.27757E-03 3.08314E-26
4.39223E-03 2.66412E-26
4.50840E-03 2.30056E-26
4.62608E-03 1.98547E-26
4.74527E-03 1.71275E-26
4.86597E-03 1.47699E-26
4.98817E-03 1.27347E-26
5.11188E-03 1.09803E-26
5.23711E-03 9.47015E-27
5.36383E-03 8.17221E-27
5.49207E-03 7.05839E-27
5.62181E-03 6.10408E-27
5.75306E-03 5.28772E-27
5.88581E-03 4.59046E-27
6.02007E-03 3.99583E-27
6.15583E-03 3.48947E-27
6.29310E-03 3.05884E-27
6.43187E-03 2.69307E-27
6.57214E-03 2.38267E-27
6.71392E-03 2.11944E-27
6.85720E-03 1.89627E-27
7.00198E-03 1.70702E-27
7.14827E-03 1.54641E-27
7.29605E-03 1.40989E-27
7.44534E-03 1.29355E-27
7.59612E-03 1.19407E-27
7.97965E-03 1.00148E-27
8.37255E-03 8.63857E-28
8.77480E-03 7.59333E-28
9.18641E-03 6.74222E-28
9.60736E-03 6.00369E-28
1.00376E-02 5.33249E-28
1.04773E-02 4.70631E-28
1.09262E-02 4.11662E-28
1.13844E-02 3.56247E-28
1.18520E-02 3.04643E-28
1.23288E-02 2.57211E-28
1.28150E-02 2.14265E-28
1.33104E-02 1.76002E-28
1.38150E-02 1.42473E-28
1.43290E-02 1.13586E-28
1.48521E-02 8.91241E-29
1.53845E-02 6.87723E-29
1.59262E-02 5.21479E-29
1.64770E-02 3.88278E-29
1.70371E-02 2.83735E-29
1.76063E-02 2.03518E-29
1.81848E-02 1.43505E-29
1.87724E-02 9.98969E-30
1.93692E-02 6.92890E-30
1.99751E-02 4.87118E-30
2.05901E-02 3.56385E-30
2.12143E-02 2.79733E-30
2.18476E-02 2.40237E-30
2.24900E-02 2.24617E-30
2.31415E-02 2.22795E-30
2.38021E-02 2.27424E-30
2.44717E-02 2.33421E-30
2.51504E-02 2.37528E-30
2.58382E-02 2.37905E-30
2.65349E-02 2.33775E-30
2.72407E-02 2.25120E-30
2.79555E-02 2.12424E-30
2.86793E-02 1.96471E-30
2.94120E-02 1.78187E-30
3.01537E-02 1.58521E-30
3.09043E-02 1.38361E-30
3.16639E-02 1.18486E-30
3.24324E-02 9.95304E-31
3.32098E-02 8.19771E-31
3.39961E-02 6.61580E-31
3.47912E-02 5.22666E-31
3.55952E-02 4.03758E-31
3.64081E-02 3.04588E-31
3.72297E-02 2.24117E-31
3.80602E-02 1.60747E-31
3.88995E-02 1.12520E-31
3.97476E-02 7.72859E-32
4.06044E-02 5.28528E-32
4.14700E-02 3.70937E-32
4.23443E-02 2.80335E-32
4.32273E-02 2.39049E-32
4.41190E-02 2.31827E-32
4.50194E-02 2.45969E-32
4.59284E-02 2.71309E-32
4.68461E-02 3.00071E-32
4.87074E-02 3.47310E-32
5.06030E-02 3.63598E-32
5.25328E-02 3.45267E-32
5.44967E-02 3.00081E-32
5.64946E-02 2.40172E-32
5.85262E-02 1.77315E-32
6.05914E-02 1.20393E-32
6.26901E-02 7.45754E-33
6.48222E-02 4.16048E-33
6.69873E-02 2.06752E-33
6.91854E-02 9.47274E-34
7.14163E-02 5.10944E-34
7.36799E-02 4.81387E-34
7.59760E-02 6.34226E-34
7.83043E-02 8.14253E-34
8.06647E-02 9.33626E-34
8.30571E-02 9.59169E-34
8.54812E-02 8.95208E-34
8.79369E-02 7.66695E-34
9.04240E-02 6.05448E-34
9.29422E-02 4.40734E-34
9.54915E-02 2.94136E-34
9.80716E-02 1.77940E-34
1.00682E-01 9.59556E-35
1.03323E-01 4.56444E-35
1.05995E-01 2.06787E-35
1.08696E-01 1.32735E-35
1.11427E-01 1.59588E-35
1.14188E-01 2.26707E-35
1.16978E-01 2.92164E-35
1.19797E-01 3.32567E-35
1.22645E-01 3.39844E-35
1.25522E-01 3.16624E-35
1.28428E-01 2.71529E-35
1.31361E-01 2.15194E-35
1.34323E-01 1.57446E-35
1.37313E-01 1.05669E-35
1.40330E-01 6.42422E-36
1.43375E-01 3.47089E-36
1.46447E-01 1.64155E-36
1.49545E-01 7.31513E-37
1.52671E-01 4.74569E-37
1.55823E-01 6.05016E-37
1.59001E-01 8.98832E-37
1.62205E-01 1.19410E-36
1.65435E-01 1.39441E-36
1.68690E-01 1.46062E-36
1.71970E-01 1.39618E-36
1.75276E-01 1.23080E-36
1.78606E-01 1.00556E-36
1.81961E-01 7.61408E-37
1.85340E-01 5.31736E-37
1.88743E-01 3.38837E-37
1.92169E-01 1.93528E-37
1.95619E-01 9.68176E-38
1.99092E-01 4.27660E-38
2.02589E-01 2.15048E-38
2.06107E-01 2.19660E-38
2.09649E-01 3.39064E-38
2.13212E-01 4.91378E-38
2.16797E-01 6.20555E-38
2.20404E-01 6.95952E-38
2.24032E-01 7.08172E-38
2.27680E-01 6.63405E-38
2.31350E-01 5.76702E-38
2.35040E-01 4.66777E-38
2.38751E-01 3.51283E-38
2.42481E-01 2.44381E-38
2.46231E-01 1.00000E-45
2.50000E-01 1.00000E-45
2.53788E-01 1.00000E-45
2.57595E-01 1.00000E-45
2.61421E-01 1.00000E-45
2.65264E-01 1.00000E-45
2.69126E-01 1.00000E-45
2.73005E-01 1.00000E-45
2.76901E-01 1.00000E-45
2.80814E-01 1.00000E-45
2.84744E-01 1.00000E-45
2.88691E-01 1.00000E-45
2.92653E-01 1.00000E-45
2.96632E-01 1.00000E-45
3.00625E-01 1.00000E-45
3.04634E-01 1.00000E-45
3.08658E-01 1.00000E-45
3.12697E-01 1.00000E-45
3.16749E-01 1.00000E-45
3.20816E-01 1.00000E-45
3.24896E-01 1.00000E-45
3.28990E-01 1.00000E-45
3.33097E-01 1.00000E-45
3.37216E-01 1.00000E-45
3.41348E-01 1.00000E-45
3.45492E-01 1.00000E-45
3.49647E-01 1.00000E-45
3.53814E-01 1.00000E-45
3.57992E-01 1.00000E-45
3.62181E-01 1.00000E-45
3.66381E-01 1.00000E-45
3.70590E-01 1.00000E-45
3.74810E-01 1.00000E-45
3.79039E-01 1.00000E-45
3.83277E-01 1.00000E-45
3.87524E-01 1.00000E-45
3.91780E-01 1.00000E-45
3.96044E-01 1.00000E-45
4.00316E-01 1.00000E-45
4.04596E-01 1.00000E-45
4.08882E-01 1.00000E-45
4.13176E-01 1.00000E-45
4.17476E-01 1.00000E-45
4.21783E-01 1.00000E-45
4.26095E-01 1.00000E-45
4.30413E-01 1.00000E-45
4.34737E-01 1.00000E-45
4.39065E-01 1.00000E-45
4.43398E-01 1.00000E-45
4.47736E-01 1.00000E-45
4.52077E-01 1.00000E-45
4.56422E-01 1.00000E-45
4.60770E-01 1.00000E-45
4.65122E-01 1.00000E-45
4.69476E-01 1.00000E-45
4.73832E-01 1.00000E-45
4.78190E-01 1.00000E-45
4.82550E-01 1.00000E-45
4.86912E-01 1.00000E-45
4.91274E-01 1.00000E-45
4.95637E-01 1.00000E-45
5.00000E-01 1.00000E-45
5.04363E-01 1.00000E-45
5.08726E-01 1.00000E-45
5.13088E-01 1.00000E-45
5.17450E-01 1.00000E-45
5.21810E-01 1.00000E-45
5.26168E-01 1.00000E-45
5.30524E-01 1.00000E-45
5.34878E-01 1.00000E-45
5.39230E-01 1.00000E-45
5.43578E-01 1.00000E-45
5.47923E-01 1.00000E-45
5.52264E-01 1.00000E-45
5.56602E-01 1.00000E-45
5.60935E-01 1.00000E-45
5.65263E-01 1.00000E-45
5.69587E-01 1.00000E-45
5.73905E-01 1.00000E-45
5.78217E-01 1.00000E-45
5.82524E-01 1.00000E-45
5.86824E-01 1.00000E-45
5.91118E-01 1.00000E-45
5.95404E-01 1.00000E-45
5.99684E-01 1.00000E-45
6.03956E-01 1.00000E-45
6.08220E-01 1.00000E-45
6.12476E-01 1.00000E-45
6.16723E-01 1.00000E-45
6.20961E-01 1.00000E-45
6.25190E-01 1.00000E-45
6.29410E-01 1.00000E-45
6.33619E-01 1.00000E-45
6.37819E-01 1.00000E-45
6.42008E-01 1.00000E-45
6.46186E-01 1.00000E-45
6.50353E-01 1.00000E-45
6.54508E-01 1.00000E-45
6.58652E-01 1.00000E-45
6.62784E-01 1.00000E-45
6.66903E-01 1.00000E-45
6.71010E-01 1.00000E-45
6.75104E-01 1.00000E-45
6.79184E-01 1.00000E-45
6.83251E-01 1.00000E-45
6.87303E-01 1.00000E-45
6.91342E-01 1.00000E-45
6.95366E-01 1.00000E-45
6.99375E-01 1.00000E-45
7.03368E-01 1.00000E-45
7.07347E-01 1.00000E-45
7.11309E-01 1.00000E-45
7.15256E-01 1.00000E-45
7.19186E-01 1.00000E-45
7.23099E-01 1.00000E-45
7.26995E-01 1.00000E-45
7.30874E-01 1.00000E-45
7.34736E-01 1.00000E-45
7.38579E-01 1.00000E-45
7.42405E-01 1.00000E-45
7.46212E-01 1.00000E-45
7.50000E-01 1.00000E-45
7.53769E-01 1.00000E-45
7.57519E-01 1.00000E-45
7.61249E-01 1.00000E-45
7.64960E-01 1.00000E-45
7.68650E-01 1.00000E-45
7.72320E-01 1.00000E-45
7.75968E-01 1.00000E-45
7.79596E-01 1.00000E-45
7.83203E-01 1.00000E-45
7.86788E-01 1.00000E-45
7.90351E-01 1.00000E-45
7.93893E-01 1.00000E-45
7.97411E-01 1.00000E-45
8.00908E-01 1.00000E-45
8.04381E-01 1.00000E-45
8.07831E-01 1.00000E-45
8.11257E-01 1.00000E-45
8.14660E-01 1.00000E-45
8.18039E-01 1.00000E-45
8.21394E-01 1.00000E-45
8.24724E-01 1.00000E-45
8.28030E-01 1.00000E-45
8.31310E-01 1.00000E-45
8.34565E-01 1.00000E-45
8.37795E-01 1.00000E-45
8.40999E-01 1.00000E-45
8.44177E-01 1.00000E-45
8.47329E-01 1.00000E-45
8.50455E-01 1.00000E-45
8.53553E-01 1.00000E-45
8.56625E-01 1.00000E-45
8.59670E-01 1.00000E-45
8.62687E-01 1.00000E-45
8.65677E-01 1.00000E-45
8.68639E-01 1.00000E-45
8.71572E-01 1.00000E-45
8.74478E-01 1.00000E-45
8.77355E-01 1.00000E-45
8.80203E-01 1.00000E-45
8.83022E-01 1.00000E-45
8.85812E-01 1.00000E-45
8.88573E-01 1.00000E-45
8.91304E-01 1.00000E-45
8.94005E-01 1.00000E-45
8.96677E-01 1.00000E-45
8.99318E-01 1.00000E-45
9.01928E-01 1.00000E-45
9.04508E-01 1.00000E-45
9.07058E-01 1.00000E-45
9.09576E-01 1.00000E-45
9.12063E-01 1.00000E-45
9.14519E-01 1.00000E-45
9.16943E-01 1.00000E-45
9.19335E-01 1.00000E-45
9.21696E-01 1.00000E-45
9.24024E-01 1.00000E-45
9.26320E-01 1.00000E-45
9.28584E-01 1.00000E-45
9.30815E-01 1.00000E-45
9.33013E-01 1.00000E-45
9.35178E-01 1.00000E-45
9.37310E-01 1.00000E-45
9.39409E-01 1.00000E-45
9.41474E-01 1.00000E-45
9.43505E-01 1.00000E-45
9.45503E-01 1.00000E-45
9.47467E-01 1.00000E-45
9.49397E-01 1.00000E-45
9.51293E-01 1.00000E-45
9.53154E-01 1.00000E-45
9.54981E-01 1.00000E-45
9.56773E-01 1.00000E-45
9.58530E-01 1.00000E-45
9.60252E-01 1.00000E-45
9.61940E-01 1.00000E-45
9.63592E-01 1.00000E-45
9.65209E-01 1.00000E-45
9.66790E-01 1.00000E-45
9.68336E-01 1.00000E-45
9.69846E-01 1.00000E-45
9.71321E-01 1.00000E-45
9.72759E-01 1.00000E-45
9.74162E-01 1.00000E-45
9.75528E-01 1.00000E-45
9.76858E-01 1.00000E-45
9.78152E-01 1.00000E-45
9.79410E-01 1.00000E-45
9.80631E-01 1.00000E-45
9.81815E-01 1.00000E-45
9.82963E-01 1.00000E-45
9.84074E-01 1.00000E-45
9.85148E-01 1.00000E-45
9.86185E-01 1.00000E-45
9.87185E-01 1.00000E-45
9.88148E-01 1.00000E-45
9.89074E-01 1.00000E-45
9.89962E-01 1.00000E-45
9.90814E-01 1.00000E-45
9.91627E-01 1.00000E-45
9.92404E-01 1.00000E-45
9.93143E-01 1.00000E-45
9.93844E-01 1.00000E-45
9.94508E-01 1.00000E-45
9.95134E-01 1.00000E-45
9.95722E-01 1.00000E-45
9.96273E-01 1.00000E-45
9.96786E-01 1.00000E-45
9.97261E-01 1.00000E-45
9.97698E-01 1.00000E-45
9.98097E-01 1.00000E-45
9.98459E-01 1.00000E-45
9.98782E-01 1.00000E-45
9.99067E-01 1.00000E-45
9.99315E-01 1.00000E-45
9.99524E-01 1.00000E-45
9.99695E-01 1.00000E-45
9.99829E-01 1.00000E-45
9.99924E-01 1.00000E-45
9.99981E-01 1.00000E-45
1.00000E+00 1.00000E-45
