 #
 # Subroutine ELSEPA. Elastic scattering of electrons and positrons
 #                    by neutral atoms and positive ions
 #
 # Projectile: positron
 # Kinetic energy = 8.00000E+06 eV = 2.93995E+05 a.u.
 #
 # WARNING: High-energy factorization with free-atom DF screening.
 #          Absorption, polarization and exchange corrections are
 #          switched off.
 #          Phase shifts are calculated for the bare nucleus.
 #          Scattering amplitudes are not evaluated.
 #
 # Element: Cd,  Z =  48,  atomic weight = 1.12411E+02 g/mol
 #
 # Nuclear model: Fermi distribution
 #                Average radius = 5.16401E-13 cm
 #                Skin thickness = 5.46000E-14 cm
 #
 # Number of electrons = 48
 #
 # Total elastic cross section = 4.51216E-18 cm**2 = 1.61132E-01 a0**2
 # 1st transport cross section = 4.51656E-23 cm**2 = 1.61289E-06 a0**2
 # 2nd transport cross section = 1.30556E-22 cm**2 = 4.66223E-06 a0**2
 #
 #
 # Differential cross section:                       MU=(1-COS(THETA))/2
 #
 #  THETA        MU          DCS          DCS        Sherman      error
 #  (deg)                 (cm**2/sr)   (a0**2/sr)    function
 #----------------------------------------------------------------------
0.00000E+00 2.28867E-12
7.61557E-13 2.28863E-12
1.18994E-12 2.28861E-12
1.71346E-12 2.28859E-12
2.33225E-12 2.28856E-12
3.04617E-12 2.28852E-12
3.85530E-12 2.28848E-12
4.75964E-12 2.28844E-12
5.75917E-12 2.28839E-12
6.85391E-12 2.28834E-12
8.04379E-12 2.28828E-12
9.32893E-12 2.28822E-12
1.07092E-11 2.28815E-12
1.21847E-11 2.28808E-12
1.37554E-11 2.28801E-12
1.54213E-11 2.28793E-12
1.71823E-11 2.28784E-12
1.90386E-11 2.28775E-12
2.09900E-11 2.28766E-12
2.30367E-11 2.28756E-12
2.51785E-11 2.28746E-12
2.74156E-11 2.28735E-12
2.97478E-11 2.28724E-12
3.21752E-11 2.28712E-12
3.46979E-11 2.28700E-12
3.73157E-11 2.28688E-12
4.00286E-11 2.28675E-12
4.28368E-11 2.28662E-12
4.57402E-11 2.28648E-12
4.87388E-11 2.28633E-12
5.18325E-11 2.28619E-12
5.50215E-11 2.28604E-12
5.83057E-11 2.28588E-12
6.16850E-11 2.28572E-12
6.51595E-11 2.28555E-12
6.87293E-11 2.28538E-12
7.23943E-11 2.28521E-12
7.61544E-11 2.28503E-12
1.18991E-10 2.28300E-12
1.71347E-10 2.28052E-12
2.33223E-10 2.27760E-12
3.04617E-10 2.27424E-12
3.85531E-10 2.27045E-12
4.75965E-10 2.26622E-12
5.75917E-10 2.26156E-12
6.85389E-10 2.25648E-12
8.04380E-10 2.25099E-12
9.32891E-10 2.24508E-12
1.07092E-09 2.23877E-12
1.21847E-09 2.23205E-12
1.37554E-09 2.22495E-12
1.54213E-09 2.21745E-12
1.71823E-09 2.20958E-12
1.90386E-09 2.20134E-12
2.09900E-09 2.19274E-12
2.30367E-09 2.18378E-12
2.51785E-09 2.17447E-12
2.74156E-09 2.16483E-12
2.97478E-09 2.15486E-12
3.21752E-09 2.14455E-12
3.46978E-09 2.13385E-12
3.73156E-09 2.12288E-12
4.00286E-09 2.11167E-12
4.28368E-09 2.10021E-12
4.57402E-09 2.08852E-12
4.87388E-09 2.07662E-12
5.18326E-09 2.06430E-12
5.50215E-09 2.05170E-12
5.83057E-09 2.03892E-12
6.16850E-09 2.02597E-12
6.51596E-09 2.01287E-12
6.87293E-09 1.99962E-12
7.23942E-09 1.98614E-12
7.61544E-09 1.97227E-12
1.18991E-08 1.82729E-12
1.71347E-08 1.67482E-12
2.33223E-08 1.52280E-12
3.04617E-08 1.37648E-12
3.85531E-08 1.24017E-12
4.75965E-08 1.11485E-12
5.75917E-08 1.00212E-12
6.85389E-08 9.00743E-13
8.04380E-08 8.10805E-13
9.32891E-08 7.30734E-13
1.07092E-07 6.59786E-13
1.21847E-07 5.96744E-13
1.37554E-07 5.40646E-13
1.54213E-07 4.90715E-13
1.71823E-07 4.45999E-13
1.90386E-07 4.06087E-13
2.09900E-07 3.70106E-13
2.30367E-07 3.37866E-13
2.51785E-07 3.08698E-13
2.74156E-07 2.82430E-13
2.97478E-07 2.58627E-13
3.21752E-07 2.36725E-13
3.46978E-07 2.15475E-13
3.73156E-07 1.96983E-13
4.00286E-07 1.80822E-13
4.28368E-07 1.66638E-13
4.57402E-07 1.54139E-13
4.87388E-07 1.43082E-13
5.18325E-07 1.31779E-13
5.50215E-07 1.21193E-13
5.83057E-07 1.11804E-13
6.16850E-07 1.03448E-13
6.51596E-07 9.59876E-14
6.87293E-07 8.93074E-14
7.23942E-07 8.31021E-14
7.61543E-07 7.69352E-14
1.18991E-06 3.88444E-14
1.71347E-06 2.16873E-14
2.33223E-06 1.32131E-14
3.04617E-06 8.61304E-15
3.85531E-06 5.90509E-15
4.75964E-06 4.18762E-15
5.75916E-06 3.05181E-15
6.85388E-06 2.26624E-15
8.04378E-06 1.71390E-15
9.32888E-06 1.31451E-15
1.07092E-05 1.02315E-15
1.21846E-05 8.07143E-16
1.37553E-05 6.44744E-16
1.54212E-05 5.21018E-16
1.71822E-05 4.25518E-16
1.90385E-05 3.50962E-16
2.09899E-05 2.92310E-16
2.30365E-05 2.45547E-16
2.51783E-05 2.07825E-16
2.74153E-05 1.77123E-16
2.97475E-05 1.51909E-16
3.21749E-05 1.31042E-16
3.46974E-05 1.13630E-16
3.73152E-05 9.91069E-17
4.00281E-05 8.68184E-17
4.28362E-05 7.63768E-17
4.57395E-05 6.75039E-17
4.87380E-05 5.98194E-17
5.18317E-05 5.32232E-17
5.50205E-05 4.75071E-17
5.83045E-05 4.25226E-17
6.16838E-05 3.81909E-17
6.51582E-05 3.43768E-17
6.87277E-05 3.10320E-17
7.23925E-05 2.80872E-17
7.61524E-05 2.54727E-17
9.21439E-05 1.76204E-17
1.09658E-04 1.25568E-17
1.28695E-04 9.18456E-18
1.49255E-04 6.86781E-18
1.71338E-04 5.23670E-18
1.94942E-04 4.06148E-18
2.20070E-04 3.19796E-18
2.46720E-04 2.55216E-18
2.74892E-04 2.06134E-18
3.04586E-04 1.68311E-18
3.35803E-04 1.38772E-18
3.68542E-04 1.15442E-18
4.02802E-04 9.68116E-19
4.38585E-04 8.17926E-19
4.75889E-04 6.95750E-19
5.14715E-04 5.95543E-19
5.55063E-04 5.12734E-19
5.96931E-04 4.43813E-19
6.40321E-04 3.86083E-19
6.85233E-04 3.37427E-19
7.31665E-04 2.96191E-19
7.79618E-04 2.61053E-19
8.29092E-04 2.30966E-19
8.80086E-04 2.05083E-19
9.32601E-04 1.82719E-19
9.86636E-04 1.63314E-19
1.04219E-03 1.46413E-19
1.09927E-03 1.31637E-19
1.15786E-03 1.18674E-19
1.21797E-03 1.07264E-19
1.27961E-03 9.71890E-20
1.34276E-03 8.82666E-20
1.40743E-03 8.03415E-20
1.47362E-03 7.32839E-20
1.54133E-03 6.69820E-20
1.61056E-03 6.13410E-20
1.68131E-03 5.62798E-20
1.75357E-03 5.17281E-20
1.82735E-03 4.76260E-20
1.90265E-03 4.39212E-20
1.97947E-03 4.05685E-20
2.05780E-03 3.75285E-20
2.13765E-03 3.47671E-20
2.21902E-03 3.22541E-20
2.30190E-03 2.99633E-20
2.38630E-03 2.78716E-20
2.47222E-03 2.59586E-20
2.55965E-03 2.42063E-20
2.64859E-03 2.25989E-20
2.73905E-03 2.11222E-20
2.83103E-03 1.97636E-20
2.92452E-03 1.85122E-20
3.01952E-03 1.73579E-20
3.11604E-03 1.62918E-20
3.21407E-03 1.53059E-20
3.31362E-03 1.43932E-20
3.41468E-03 1.35473E-20
3.51725E-03 1.27623E-20
3.62133E-03 1.20332E-20
3.72692E-03 1.13551E-20
3.83403E-03 1.07240E-20
3.94265E-03 1.01359E-20
4.05278E-03 9.58743E-21
4.16442E-03 9.07538E-21
4.27757E-03 8.59690E-21
4.39223E-03 8.14942E-21
4.50840E-03 7.73054E-21
4.62608E-03 7.33810E-21
4.74527E-03 6.97015E-21
4.86597E-03 6.62486E-21
4.98817E-03 6.30059E-21
5.11188E-03 5.99583E-21
5.23711E-03 5.70918E-21
5.36383E-03 5.43939E-21
5.49207E-03 5.18526E-21
5.62181E-03 4.94573E-21
5.75306E-03 4.71981E-21
5.88581E-03 4.50657E-21
6.02007E-03 4.30519E-21
6.15583E-03 4.11487E-21
6.29310E-03 3.93490E-21
6.43187E-03 3.76462E-21
6.57214E-03 3.60339E-21
6.71392E-03 3.45066E-21
6.85720E-03 3.30590E-21
7.00198E-03 3.16860E-21
7.14827E-03 3.03833E-21
7.29605E-03 2.91464E-21
7.44534E-03 2.79715E-21
7.59612E-03 2.68549E-21
7.97965E-03 2.42965E-21
8.37255E-03 2.20340E-21
8.77480E-03 2.00275E-21
9.18641E-03 1.82431E-21
9.60736E-03 1.66519E-21
1.00376E-02 1.52296E-21
1.04773E-02 1.39550E-21
1.09262E-02 1.28103E-21
1.13844E-02 1.17799E-21
1.18520E-02 1.08504E-21
1.23288E-02 1.00102E-21
1.28150E-02 9.24931E-22
1.33104E-02 8.55890E-22
1.38150E-02 7.93130E-22
1.43290E-02 7.35981E-22
1.48521E-02 6.83853E-22
1.53845E-02 6.36228E-22
1.59262E-02 5.92649E-22
1.64770E-02 5.52712E-22
1.70371E-02 5.16059E-22
1.76063E-02 4.82372E-22
1.81848E-02 4.51370E-22
1.87724E-02 4.22800E-22
1.93692E-02 3.96438E-22
1.99751E-02 3.72083E-22
2.05901E-02 3.49555E-22
2.12143E-02 3.28694E-22
2.18476E-02 3.09352E-22
2.24900E-02 2.91402E-22
2.31415E-02 2.74723E-22
2.38021E-02 2.59212E-22
2.44717E-02 2.44770E-22
2.51504E-02 2.31311E-22
2.58382E-02 2.18757E-22
2.65349E-02 2.07036E-22
2.72407E-02 1.96082E-22
2.79555E-02 1.85836E-22
2.86793E-02 1.76245E-22
2.94120E-02 1.67259E-22
3.01537E-02 1.58833E-22
3.09043E-02 1.50926E-22
3.16639E-02 1.43500E-22
3.24324E-02 1.36521E-22
3.32098E-02 1.29956E-22
3.39961E-02 1.23778E-22
3.47912E-02 1.17959E-22
3.55952E-02 1.12474E-22
3.64081E-02 1.07301E-22
3.72297E-02 1.02419E-22
3.80602E-02 9.78082E-23
3.88995E-02 9.34514E-23
3.97476E-02 8.93318E-23
4.06044E-02 8.54343E-23
4.14700E-02 8.17446E-23
4.23443E-02 7.82498E-23
4.32273E-02 7.49376E-23
4.41190E-02 7.17969E-23
4.50194E-02 6.88171E-23
4.59284E-02 6.59885E-23
4.68461E-02 6.33020E-23
4.87074E-02 5.83221E-23
5.06030E-02 5.38168E-23
5.25328E-02 4.97332E-23
5.44967E-02 4.60250E-23
5.64946E-02 4.26518E-23
5.85262E-02 3.95781E-23
6.05914E-02 3.67729E-23
6.26901E-02 3.42086E-23
6.48222E-02 3.18610E-23
6.69873E-02 2.97086E-23
6.91854E-02 2.77324E-23
7.14163E-02 2.59156E-23
7.36799E-02 2.42430E-23
7.59760E-02 2.27011E-23
7.83043E-02 2.12780E-23
8.06647E-02 1.99631E-23
8.30571E-02 1.87466E-23
8.54812E-02 1.76199E-23
8.79369E-02 1.65752E-23
9.04240E-02 1.56055E-23
9.29422E-02 1.47045E-23
9.54915E-02 1.38665E-23
9.80716E-02 1.30863E-23
1.00682E-01 1.23593E-23
1.03323E-01 1.16811E-23
1.05995E-01 1.10480E-23
1.08696E-01 1.04564E-23
1.11427E-01 9.90307E-24
1.14188E-01 9.38521E-24
1.16978E-01 8.90008E-24
1.19797E-01 8.44524E-24
1.22645E-01 8.01850E-24
1.25522E-01 7.61785E-24
1.28428E-01 7.24137E-24
1.31361E-01 6.88734E-24
1.34323E-01 6.55421E-24
1.37313E-01 6.24057E-24
1.40330E-01 5.94504E-24
1.43375E-01 5.66634E-24
1.46447E-01 5.40345E-24
1.49545E-01 5.15527E-24
1.52671E-01 4.92080E-24
1.55823E-01 4.69918E-24
1.59001E-01 4.48961E-24
1.62205E-01 4.29129E-24
1.65435E-01 4.10350E-24
1.68690E-01 3.92561E-24
1.71970E-01 3.75700E-24
1.75276E-01 3.59710E-24
1.78606E-01 3.44537E-24
1.81961E-01 3.30134E-24
1.85340E-01 3.16454E-24
1.88743E-01 3.03455E-24
1.92169E-01 2.91096E-24
1.95619E-01 2.79341E-24
1.99092E-01 2.68155E-24
2.02589E-01 2.57506E-24
2.06107E-01 2.47364E-24
2.09649E-01 2.37700E-24
2.13212E-01 2.28488E-24
2.16797E-01 2.19703E-24
2.20404E-01 2.11322E-24
2.24032E-01 2.03323E-24
2.27680E-01 1.95686E-24
2.31350E-01 1.88390E-24
2.35040E-01 1.81420E-24
2.38751E-01 1.74757E-24
2.42481E-01 1.68386E-24
2.46231E-01 1.62291E-24
2.50000E-01 1.56459E-24
2.53788E-01 1.50876E-24
2.57595E-01 1.45530E-24
2.61421E-01 1.40409E-24
2.65264E-01 1.35502E-24
2.69126E-01 1.30798E-24
2.73005E-01 1.26288E-24
2.76901E-01 1.21962E-24
2.80814E-01 1.17812E-24
2.84744E-01 1.13829E-24
2.88691E-01 1.10005E-24
2.92653E-01 1.06332E-24
2.96632E-01 1.02805E-24
3.00625E-01 9.94153E-25
3.04634E-01 9.61575E-25
3.08658E-01 9.30255E-25
3.12697E-01 9.00135E-25
3.16749E-01 8.71161E-25
3.20816E-01 8.43284E-25
3.24896E-01 8.16453E-25
3.28990E-01 7.90624E-25
3.33097E-01 7.65752E-25
3.37216E-01 7.41796E-25
3.41348E-01 7.18717E-25
3.45492E-01 6.96476E-25
3.49647E-01 6.75039E-25
3.53814E-01 6.54372E-25
3.57992E-01 6.34442E-25
3.62181E-01 6.15218E-25
3.66381E-01 5.96672E-25
3.70590E-01 5.78774E-25
3.74810E-01 5.61500E-25
3.79039E-01 5.44823E-25
3.83277E-01 5.28720E-25
3.87524E-01 5.13167E-25
3.91780E-01 4.98143E-25
3.96044E-01 4.83626E-25
4.00316E-01 4.69596E-25
4.04596E-01 4.56035E-25
4.08882E-01 4.42924E-25
4.13176E-01 4.30246E-25
4.17476E-01 4.17984E-25
4.21783E-01 4.06122E-25
4.26095E-01 3.94646E-25
4.30413E-01 3.83539E-25
4.34737E-01 3.72790E-25
4.39065E-01 3.62383E-25
4.43398E-01 3.52307E-25
4.47736E-01 3.42549E-25
4.52077E-01 3.33098E-25
4.56422E-01 3.23942E-25
4.60770E-01 3.15071E-25
4.65122E-01 3.06474E-25
4.69476E-01 2.98141E-25
4.73832E-01 2.90064E-25
4.78190E-01 2.82232E-25
4.82550E-01 2.74638E-25
4.86912E-01 2.67273E-25
4.91274E-01 2.60129E-25
4.95637E-01 2.53198E-25
5.00000E-01 2.46472E-25
5.04363E-01 2.39946E-25
5.08726E-01 2.33611E-25
5.13088E-01 2.27462E-25
5.17450E-01 2.21492E-25
5.21810E-01 2.15696E-25
5.26168E-01 2.10066E-25
5.30524E-01 2.04598E-25
5.34878E-01 1.99287E-25
5.39230E-01 1.94126E-25
5.43578E-01 1.89112E-25
5.47923E-01 1.84239E-25
5.52264E-01 1.79503E-25
5.56602E-01 1.74900E-25
5.60935E-01 1.70424E-25
5.65263E-01 1.66073E-25
5.69587E-01 1.61841E-25
5.73905E-01 1.57726E-25
5.78217E-01 1.53723E-25
5.82524E-01 1.49830E-25
5.86824E-01 1.46042E-25
5.91118E-01 1.42356E-25
5.95404E-01 1.38769E-25
5.99684E-01 1.35279E-25
6.03956E-01 1.31881E-25
6.08220E-01 1.28574E-25
6.12476E-01 1.25354E-25
6.16723E-01 1.22219E-25
6.20961E-01 1.19167E-25
6.25190E-01 1.16194E-25
6.29410E-01 1.13299E-25
6.33619E-01 1.10478E-25
6.37819E-01 1.07731E-25
6.42008E-01 1.05055E-25
6.46186E-01 1.02447E-25
6.50353E-01 9.99055E-26
6.54508E-01 9.74290E-26
6.58652E-01 9.50154E-26
6.62784E-01 9.26628E-26
6.66903E-01 9.03695E-26
6.71010E-01 8.81338E-26
6.75104E-01 8.59541E-26
6.79184E-01 8.38286E-26
6.83251E-01 8.17561E-26
6.87303E-01 7.97348E-26
6.91342E-01 7.77635E-26
6.95366E-01 7.58407E-26
6.99375E-01 7.39650E-26
7.03368E-01 7.21353E-26
7.07347E-01 7.03501E-26
7.11309E-01 6.86083E-26
7.15256E-01 6.69087E-26
7.19186E-01 6.52502E-26
7.23099E-01 6.36316E-26
7.26995E-01 6.20519E-26
7.30874E-01 6.05100E-26
7.34736E-01 5.90050E-26
7.38579E-01 5.75358E-26
7.42405E-01 5.61015E-26
7.46212E-01 5.47011E-26
7.50000E-01 5.33338E-26
7.53769E-01 5.19988E-26
7.57519E-01 5.06952E-26
7.61249E-01 4.94221E-26
7.64960E-01 4.81788E-26
7.68650E-01 4.69645E-26
7.72320E-01 4.57785E-26
7.75968E-01 4.46200E-26
7.79596E-01 4.34884E-26
7.83203E-01 4.23830E-26
7.86788E-01 4.13031E-26
7.90351E-01 4.02482E-26
7.93893E-01 3.92174E-26
7.97411E-01 3.82104E-26
8.00908E-01 3.72264E-26
8.04381E-01 3.62649E-26
8.07831E-01 3.53254E-26
8.11257E-01 3.44074E-26
8.14660E-01 3.35102E-26
8.18039E-01 3.26335E-26
8.21394E-01 3.17767E-26
8.24724E-01 3.09393E-26
8.28030E-01 3.01209E-26
8.31310E-01 2.93210E-26
8.34565E-01 2.85393E-26
8.37795E-01 2.77752E-26
8.40999E-01 2.70284E-26
8.44177E-01 2.62984E-26
8.47329E-01 2.55849E-26
8.50455E-01 2.48875E-26
8.53553E-01 2.42059E-26
8.56625E-01 2.35396E-26
8.59670E-01 2.28883E-26
8.62687E-01 2.22517E-26
8.65677E-01 2.16295E-26
8.68639E-01 2.10213E-26
8.71572E-01 2.04268E-26
8.74478E-01 1.98458E-26
8.77355E-01 1.92779E-26
8.80203E-01 1.87228E-26
8.83022E-01 1.81803E-26
8.85812E-01 1.76501E-26
8.88573E-01 1.71320E-26
8.91304E-01 1.66256E-26
8.94005E-01 1.61308E-26
8.96677E-01 1.56473E-26
8.99318E-01 1.51748E-26
9.01928E-01 1.47132E-26
9.04508E-01 1.42621E-26
9.07058E-01 1.38215E-26
9.09576E-01 1.33910E-26
9.12063E-01 1.29706E-26
9.14519E-01 1.25599E-26
9.16943E-01 1.21588E-26
9.19335E-01 1.17671E-26
9.21696E-01 1.13846E-26
9.24024E-01 1.10112E-26
9.26320E-01 1.06466E-26
9.28584E-01 1.02907E-26
9.30815E-01 9.94339E-27
9.33013E-01 9.60444E-27
9.35178E-01 9.27371E-27
9.37310E-01 8.95106E-27
9.39409E-01 8.63634E-27
9.41474E-01 8.32941E-27
9.43505E-01 8.03013E-27
9.45503E-01 7.73836E-27
9.47467E-01 7.45399E-27
9.49397E-01 7.17688E-27
9.51293E-01 6.90690E-27
9.53154E-01 6.64395E-27
9.54981E-01 6.38791E-27
9.56773E-01 6.13866E-27
9.58530E-01 5.89609E-27
9.60252E-01 5.66011E-27
9.61940E-01 5.43060E-27
9.63592E-01 5.20747E-27
9.65209E-01 4.99063E-27
9.66790E-01 4.77997E-27
9.68336E-01 4.57542E-27
9.69846E-01 4.37688E-27
9.71321E-01 4.18426E-27
9.72759E-01 3.99750E-27
9.74162E-01 3.81650E-27
9.75528E-01 3.64119E-27
9.76858E-01 3.47150E-27
9.78152E-01 3.30735E-27
9.79410E-01 3.14869E-27
9.80631E-01 2.99543E-27
9.81815E-01 2.84753E-27
9.82963E-01 2.70490E-27
9.84074E-01 2.56751E-27
9.85148E-01 2.43529E-27
9.86185E-01 2.30818E-27
9.87185E-01 2.18613E-27
9.88148E-01 2.06909E-27
9.89074E-01 1.95702E-27
9.89962E-01 1.84987E-27
9.90814E-01 1.74759E-27
9.91627E-01 1.65015E-27
9.92404E-01 1.55750E-27
9.93143E-01 1.46960E-27
9.93844E-01 1.38642E-27
9.94508E-01 1.30793E-27
9.95134E-01 1.23409E-27
9.95722E-01 1.16487E-27
9.96273E-01 1.10025E-27
9.96786E-01 1.04020E-27
9.97261E-01 9.84691E-28
9.97698E-01 9.33707E-28
9.98097E-01 8.87225E-28
9.98459E-01 8.45225E-28
9.98782E-01 8.07693E-28
9.99067E-01 7.74611E-28
9.99315E-01 7.45967E-28
9.99524E-01 7.21749E-28
9.99695E-01 7.01948E-28
9.99829E-01 6.86555E-28
9.99924E-01 6.75565E-28
9.99981E-01 6.68972E-28
1.00000E+00 6.66775E-28
