 #
 # Subroutine ELSEPA. Elastic scattering of electrons and positrons
 #                    by neutral atoms and positive ions
 #
 # Projectile: positron
 # Kinetic energy = 4.50000E+07 eV = 1.65372E+06 a.u.
 #
 # WARNING: High-energy factorization with free-atom DF screening.
 #          Absorption, polarization and exchange corrections are
 #          switched off.
 #          Phase shifts are calculated for the bare nucleus.
 #          Scattering amplitudes are not evaluated.
 #
 # Element: Cd,  Z =  48,  atomic weight = 1.12411E+02 g/mol
 #
 # Nuclear model: Fermi distribution
 #                Average radius = 5.16401E-13 cm
 #                Skin thickness = 5.46000E-14 cm
 #
 # Number of electrons = 48
 #
 # Total elastic cross section = 4.49715E-18 cm**2 = 1.60596E-01 a0**2
 # 1st transport cross section = 2.01751E-24 cm**2 = 7.20466E-08 a0**2
 # 2nd transport cross section = 5.91660E-24 cm**2 = 2.11286E-07 a0**2
 #
 #
 # Differential cross section:                       MU=(1-COS(THETA))/2
 #
 #  THETA        MU          DCS          DCS        Sherman      error
 #  (deg)                 (cm**2/sr)   (a0**2/sr)    function
 #----------------------------------------------------------------------
0.00000E+00 6.54418E-11
7.61557E-13 6.54118E-11
1.18994E-12 6.53951E-11
1.71346E-12 6.53747E-11
2.33225E-12 6.53506E-11
3.04617E-12 6.53228E-11
3.85530E-12 6.52913E-11
4.75964E-12 6.52562E-11
5.75917E-12 6.52175E-11
6.85391E-12 6.51751E-11
8.04379E-12 6.51291E-11
9.32893E-12 6.50795E-11
1.07092E-11 6.50263E-11
1.21847E-11 6.49695E-11
1.37554E-11 6.49092E-11
1.54213E-11 6.48453E-11
1.71823E-11 6.47779E-11
1.90386E-11 6.47070E-11
2.09900E-11 6.46326E-11
2.30367E-11 6.45548E-11
2.51785E-11 6.44735E-11
2.74156E-11 6.43888E-11
2.97478E-11 6.43007E-11
3.21752E-11 6.42092E-11
3.46979E-11 6.41145E-11
3.73157E-11 6.40164E-11
4.00286E-11 6.39150E-11
4.28368E-11 6.38104E-11
4.57402E-11 6.37025E-11
4.87388E-11 6.35915E-11
5.18325E-11 6.34773E-11
5.50215E-11 6.33600E-11
5.83057E-11 6.32396E-11
6.16850E-11 6.31161E-11
6.51595E-11 6.29896E-11
6.87293E-11 6.28601E-11
7.23943E-11 6.27277E-11
7.61544E-11 6.25924E-11
1.18991E-10 6.10840E-11
1.71347E-10 5.93329E-11
2.33223E-10 5.73707E-11
3.04617E-10 5.52496E-11
3.85531E-10 5.30149E-11
4.75965E-10 5.07090E-11
5.75917E-10 4.83703E-11
6.85389E-10 4.60273E-11
8.04380E-10 4.37010E-11
9.32891E-10 4.14262E-11
1.07092E-09 3.92210E-11
1.21847E-09 3.70986E-11
1.37554E-09 3.50680E-11
1.54213E-09 3.31296E-11
1.71823E-09 3.12851E-11
1.90386E-09 2.95427E-11
2.09900E-09 2.79008E-11
2.30367E-09 2.63567E-11
2.51785E-09 2.49066E-11
2.74156E-09 2.35412E-11
2.97478E-09 2.22577E-11
3.21752E-09 2.10551E-11
3.46978E-09 1.99282E-11
3.73156E-09 1.88723E-11
4.00286E-09 1.78823E-11
4.28368E-09 1.69497E-11
4.57402E-09 1.60731E-11
4.87388E-09 1.52502E-11
5.18326E-09 1.44773E-11
5.50215E-09 1.37506E-11
5.83057E-09 1.30670E-11
6.16850E-09 1.24200E-11
6.51596E-09 1.18099E-11
6.87293E-09 1.12350E-11
7.23942E-09 1.06927E-11
7.61544E-09 1.01808E-11
1.18991E-08 6.28806E-12
1.71347E-08 4.05173E-12
2.33223E-08 2.64854E-12
3.04617E-08 1.78898E-12
3.85531E-08 1.24583E-12
4.75965E-08 8.93155E-13
5.75917E-08 6.58235E-13
6.85389E-08 4.97498E-13
8.04380E-08 3.84485E-13
9.32891E-08 3.03167E-13
1.07092E-07 2.43118E-13
1.21847E-07 1.97742E-13
1.37554E-07 1.62746E-13
1.54213E-07 1.35197E-13
1.71823E-07 1.13171E-13
1.90386E-07 9.54227E-14
2.09900E-07 8.09702E-14
2.30367E-07 6.90960E-14
2.51785E-07 5.92666E-14
2.74156E-07 5.10641E-14
2.97478E-07 4.41669E-14
3.21752E-07 3.83694E-14
3.46978E-07 3.34751E-14
3.73156E-07 2.93245E-14
4.00286E-07 2.57892E-14
4.28368E-07 2.27607E-14
4.57402E-07 2.01594E-14
4.87388E-07 1.79174E-14
5.18325E-07 1.59774E-14
5.50215E-07 1.42924E-14
5.83057E-07 1.28239E-14
6.16850E-07 1.15389E-14
6.51596E-07 1.04121E-14
6.87293E-07 9.42101E-15
7.23942E-07 8.54650E-15
7.61543E-07 7.77250E-15
1.18991E-06 3.36188E-15
1.71347E-06 1.68938E-15
2.33223E-06 9.38640E-16
3.04617E-06 5.61246E-16
3.85531E-06 3.55266E-16
4.75964E-06 2.35444E-16
5.75916E-06 1.62052E-16
6.85388E-06 1.15130E-16
8.04378E-06 8.40231E-17
9.32888E-06 6.27502E-17
1.07092E-05 4.78068E-17
1.21846E-05 3.70614E-17
1.37553E-05 2.91746E-17
1.54212E-05 2.32798E-17
1.71822E-05 1.88021E-17
1.90385E-05 1.53476E-17
2.09899E-05 1.26583E-17
2.30365E-05 1.05322E-17
2.51783E-05 8.83301E-18
2.74153E-05 7.46198E-18
2.97475E-05 6.34630E-18
3.21749E-05 5.43137E-18
3.46974E-05 4.67565E-18
3.73152E-05 4.04711E-18
4.00281E-05 3.52088E-18
4.28362E-05 3.07749E-18
4.57395E-05 2.70167E-18
4.87380E-05 2.38137E-18
5.18317E-05 2.10701E-18
5.50205E-05 1.87093E-18
5.83045E-05 1.66694E-18
6.16838E-05 1.48998E-18
6.51582E-05 1.33589E-18
6.87277E-05 1.20123E-18
7.23925E-05 1.08312E-18
7.61524E-05 9.79211E-19
9.21439E-05 6.69503E-19
1.09658E-04 4.72993E-19
1.28695E-04 3.43538E-19
1.49255E-04 2.55434E-19
1.71338E-04 1.93833E-19
1.94942E-04 1.49709E-19
2.20070E-04 1.17445E-19
2.46720E-04 9.34145E-20
2.74892E-04 7.52198E-20
3.04586E-04 6.12433E-20
3.35803E-04 5.03629E-20
3.68542E-04 4.17926E-20
4.02802E-04 3.49678E-20
4.38585E-04 2.94792E-20
4.75889E-04 2.50252E-20
5.14715E-04 2.13802E-20
5.55063E-04 1.83745E-20
5.96931E-04 1.58780E-20
6.40321E-04 1.37909E-20
6.85233E-04 1.20352E-20
7.31665E-04 1.05497E-20
7.79618E-04 9.28616E-21
8.29092E-04 8.20589E-21
8.80086E-04 7.27798E-21
9.32601E-04 6.47734E-21
9.86636E-04 5.78361E-21
1.04219E-03 5.18016E-21
1.09927E-03 4.65323E-21
1.15786E-03 4.19148E-21
1.21797E-03 3.78549E-21
1.27961E-03 3.42739E-21
1.34276E-03 3.11055E-21
1.40743E-03 2.82940E-21
1.47362E-03 2.57923E-21
1.54133E-03 2.35605E-21
1.61056E-03 2.15643E-21
1.68131E-03 1.97746E-21
1.75357E-03 1.81662E-21
1.82735E-03 1.67177E-21
1.90265E-03 1.54103E-21
1.97947E-03 1.42279E-21
2.05780E-03 1.31564E-21
2.13765E-03 1.21836E-21
2.21902E-03 1.12989E-21
2.30190E-03 1.04927E-21
2.38630E-03 9.75692E-22
2.47222E-03 9.08434E-22
2.55965E-03 8.46854E-22
2.64859E-03 7.90385E-22
2.73905E-03 7.38530E-22
2.83103E-03 6.90845E-22
2.92452E-03 6.46933E-22
3.01952E-03 6.06441E-22
3.11604E-03 5.69057E-22
3.21407E-03 5.34500E-22
3.31362E-03 5.02516E-22
3.41468E-03 4.72878E-22
3.51725E-03 4.45387E-22
3.62133E-03 4.19856E-22
3.72692E-03 3.96121E-22
3.83403E-03 3.74032E-22
3.94265E-03 3.53456E-22
4.05278E-03 3.34269E-22
4.16442E-03 3.16360E-22
4.27757E-03 2.99629E-22
4.39223E-03 2.83986E-22
4.50840E-03 2.69346E-22
4.62608E-03 2.55631E-22
4.74527E-03 2.42775E-22
4.86597E-03 2.30714E-22
4.98817E-03 2.19387E-22
5.11188E-03 2.08745E-22
5.23711E-03 1.98737E-22
5.36383E-03 1.89317E-22
5.49207E-03 1.80447E-22
5.62181E-03 1.72088E-22
5.75306E-03 1.64204E-22
5.88581E-03 1.56764E-22
6.02007E-03 1.49739E-22
6.15583E-03 1.43100E-22
6.29310E-03 1.36823E-22
6.43187E-03 1.30885E-22
6.57214E-03 1.25264E-22
6.71392E-03 1.19939E-22
6.85720E-03 1.14893E-22
7.00198E-03 1.10107E-22
7.14827E-03 1.05567E-22
7.29605E-03 1.01257E-22
7.44534E-03 9.71629E-23
7.59612E-03 9.32725E-23
7.97965E-03 8.43604E-23
8.37255E-03 7.64812E-23
8.77480E-03 6.94949E-23
9.18641E-03 6.32833E-23
9.60736E-03 5.77456E-23
1.00376E-02 5.27963E-23
1.04773E-02 4.83624E-23
1.09262E-02 4.43808E-23
1.13844E-02 4.07976E-23
1.18520E-02 3.75660E-23
1.23288E-02 3.46455E-23
1.28150E-02 3.20011E-23
1.33104E-02 2.96022E-23
1.38150E-02 2.74219E-23
1.43290E-02 2.54369E-23
1.48521E-02 2.36267E-23
1.53845E-02 2.19732E-23
1.59262E-02 2.04604E-23
1.64770E-02 1.90744E-23
1.70371E-02 1.78026E-23
1.76063E-02 1.66339E-23
1.81848E-02 1.55586E-23
1.87724E-02 1.45678E-23
1.93692E-02 1.36538E-23
1.99751E-02 1.28096E-23
2.05901E-02 1.20289E-23
2.12143E-02 1.13060E-23
2.18476E-02 1.06360E-23
2.24900E-02 1.00143E-23
2.31415E-02 9.43683E-24
2.38021E-02 8.89983E-24
2.44717E-02 8.40000E-24
2.51504E-02 7.93430E-24
2.58382E-02 7.50000E-24
2.65349E-02 7.09460E-24
2.72407E-02 6.71584E-24
2.79555E-02 6.36167E-24
2.86793E-02 6.03019E-24
2.94120E-02 5.71971E-24
3.01537E-02 5.42865E-24
3.09043E-02 5.15559E-24
3.16639E-02 4.89922E-24
3.24324E-02 4.65833E-24
3.32098E-02 4.43183E-24
3.39961E-02 4.21870E-24
3.47912E-02 4.01801E-24
3.55952E-02 3.82892E-24
3.64081E-02 3.65062E-24
3.72297E-02 3.48241E-24
3.80602E-02 3.32359E-24
3.88995E-02 3.17357E-24
3.97476E-02 3.03175E-24
4.06044E-02 2.89763E-24
4.14700E-02 2.77069E-24
4.23443E-02 2.65050E-24
4.32273E-02 2.53663E-24
4.41190E-02 2.42869E-24
4.50194E-02 2.32631E-24
4.59284E-02 2.22916E-24
4.68461E-02 2.13692E-24
4.87074E-02 1.96603E-24
5.06030E-02 1.81154E-24
5.25328E-02 1.67162E-24
5.44967E-02 1.54465E-24
5.64946E-02 1.42924E-24
5.85262E-02 1.32417E-24
6.05914E-02 1.22835E-24
6.26901E-02 1.14083E-24
6.48222E-02 1.06078E-24
6.69873E-02 9.87452E-25
6.91854E-02 9.20185E-25
7.14163E-02 8.58397E-25
7.36799E-02 8.01568E-25
7.59760E-02 7.49232E-25
7.83043E-02 7.00978E-25
8.06647E-02 6.56432E-25
8.30571E-02 6.15263E-25
8.54812E-02 5.77173E-25
8.79369E-02 5.41893E-25
9.04240E-02 5.09182E-25
9.29422E-02 4.78821E-25
9.54915E-02 4.50615E-25
9.80716E-02 4.24385E-25
1.00682E-01 3.99969E-25
1.03323E-01 3.77222E-25
1.05995E-01 3.56011E-25
1.08696E-01 3.36216E-25
1.11427E-01 3.17725E-25
1.14188E-01 3.00440E-25
1.16978E-01 2.84269E-25
1.19797E-01 2.69128E-25
1.22645E-01 2.54941E-25
1.25522E-01 2.41638E-25
1.28428E-01 2.29156E-25
1.31361E-01 2.17435E-25
1.34323E-01 2.06421E-25
1.37313E-01 1.96066E-25
1.40330E-01 1.86323E-25
1.43375E-01 1.77150E-25
1.46447E-01 1.68508E-25
1.49545E-01 1.60362E-25
1.52671E-01 1.52680E-25
1.55823E-01 1.45429E-25
1.59001E-01 1.38583E-25
1.62205E-01 1.32115E-25
1.65435E-01 1.26001E-25
1.68690E-01 1.20218E-25
1.71970E-01 1.14746E-25
1.75276E-01 1.09565E-25
1.78606E-01 1.04658E-25
1.81961E-01 1.00007E-25
1.85340E-01 9.55980E-26
1.88743E-01 9.14155E-26
1.92169E-01 8.74463E-26
1.95619E-01 8.36778E-26
1.99092E-01 8.00984E-26
2.02589E-01 7.66970E-26
2.06107E-01 7.34635E-26
2.09649E-01 7.03884E-26
2.13212E-01 6.74626E-26
2.16797E-01 6.46778E-26
2.20404E-01 6.20263E-26
2.24032E-01 5.95006E-26
2.27680E-01 5.70939E-26
2.31350E-01 5.47998E-26
2.35040E-01 5.26121E-26
2.38751E-01 5.05253E-26
2.42481E-01 4.85339E-26
2.46231E-01 4.66330E-26
2.50000E-01 4.48179E-26
2.53788E-01 4.30840E-26
2.57595E-01 4.14273E-26
2.61421E-01 3.98438E-26
2.65264E-01 3.83297E-26
2.69126E-01 3.68817E-26
2.73005E-01 3.54963E-26
2.76901E-01 3.41706E-26
2.80814E-01 3.29015E-26
2.84744E-01 3.16863E-26
2.88691E-01 3.05224E-26
2.92653E-01 2.94073E-26
2.96632E-01 2.83386E-26
3.00625E-01 2.73142E-26
3.04634E-01 2.63320E-26
3.08658E-01 2.53900E-26
3.12697E-01 2.44863E-26
3.16749E-01 2.36191E-26
3.20816E-01 2.27867E-26
3.24896E-01 2.19877E-26
3.28990E-01 2.12203E-26
3.33097E-01 2.04833E-26
3.37216E-01 1.97752E-26
3.41348E-01 1.90948E-26
3.45492E-01 1.84408E-26
3.49647E-01 1.78121E-26
3.53814E-01 1.72076E-26
3.57992E-01 1.66261E-26
3.62181E-01 1.60667E-26
3.66381E-01 1.55285E-26
3.70590E-01 1.50106E-26
3.74810E-01 1.45120E-26
3.79039E-01 1.40320E-26
3.83277E-01 1.35697E-26
3.87524E-01 1.31245E-26
3.91780E-01 1.26956E-26
3.96044E-01 1.22824E-26
4.00316E-01 1.18842E-26
4.04596E-01 1.15003E-26
4.08882E-01 1.11303E-26
4.13176E-01 1.07735E-26
4.17476E-01 1.04294E-26
4.21783E-01 1.00975E-26
4.26095E-01 9.77736E-27
4.30413E-01 9.46843E-27
4.34737E-01 9.17030E-27
4.39065E-01 8.88255E-27
4.43398E-01 8.60477E-27
4.47736E-01 8.33657E-27
4.52077E-01 8.07758E-27
4.56422E-01 7.82745E-27
4.60770E-01 7.58584E-27
4.65122E-01 7.35241E-27
4.69476E-01 7.12687E-27
4.73832E-01 6.90891E-27
4.78190E-01 6.69824E-27
4.82550E-01 6.49460E-27
4.86912E-01 6.29772E-27
4.91274E-01 6.10735E-27
4.95637E-01 5.92325E-27
5.00000E-01 5.74519E-27
5.04363E-01 5.57295E-27
5.08726E-01 5.40631E-27
5.13088E-01 5.24507E-27
5.17450E-01 5.08904E-27
5.21810E-01 4.93803E-27
5.26168E-01 4.79186E-27
5.30524E-01 4.65035E-27
5.34878E-01 4.51335E-27
5.39230E-01 4.38069E-27
5.43578E-01 4.25221E-27
5.47923E-01 4.12778E-27
5.52264E-01 4.00725E-27
5.56602E-01 3.89048E-27
5.60935E-01 3.77735E-27
5.65263E-01 3.66772E-27
5.69587E-01 3.56149E-27
5.73905E-01 3.45852E-27
5.78217E-01 3.35872E-27
5.82524E-01 3.26197E-27
5.86824E-01 3.16816E-27
5.91118E-01 3.07721E-27
5.95404E-01 2.98901E-27
5.99684E-01 2.90348E-27
6.03956E-01 2.82052E-27
6.08220E-01 2.74004E-27
6.12476E-01 2.66198E-27
6.16723E-01 2.58623E-27
6.20961E-01 2.51274E-27
6.25190E-01 2.44143E-27
6.29410E-01 2.37222E-27
6.33619E-01 2.30505E-27
6.37819E-01 2.23985E-27
6.42008E-01 2.17655E-27
6.46186E-01 2.11510E-27
6.50353E-01 2.05544E-27
6.54508E-01 1.99751E-27
6.58652E-01 1.94126E-27
6.62784E-01 1.88663E-27
6.66903E-01 1.83356E-27
6.71010E-01 1.78202E-27
6.75104E-01 1.73196E-27
6.79184E-01 1.68332E-27
6.83251E-01 1.63606E-27
6.87303E-01 1.59014E-27
6.91342E-01 1.54553E-27
6.95366E-01 1.50217E-27
6.99375E-01 1.46003E-27
7.03368E-01 1.41907E-27
7.07347E-01 1.37926E-27
7.11309E-01 1.34057E-27
7.15256E-01 1.30295E-27
7.19186E-01 1.26637E-27
7.23099E-01 1.23081E-27
7.26995E-01 1.19623E-27
7.30874E-01 1.16261E-27
7.34736E-01 1.12991E-27
7.38579E-01 1.09811E-27
7.42405E-01 1.06718E-27
7.46212E-01 1.03710E-27
7.50000E-01 1.00783E-27
7.53769E-01 9.79366E-28
7.57519E-01 9.51673E-28
7.61249E-01 9.24730E-28
7.64960E-01 8.98515E-28
7.68650E-01 8.73009E-28
7.72320E-01 8.48189E-28
7.75968E-01 8.24037E-28
7.79596E-01 8.00532E-28
7.83203E-01 7.77658E-28
7.86788E-01 7.55395E-28
7.90351E-01 7.33726E-28
7.93893E-01 7.12634E-28
7.97411E-01 6.92103E-28
8.00908E-01 6.72118E-28
8.04381E-01 6.52662E-28
8.07831E-01 6.33722E-28
8.11257E-01 6.15282E-28
8.14660E-01 5.97328E-28
8.18039E-01 5.79848E-28
8.21394E-01 5.62828E-28
8.24724E-01 5.46255E-28
8.28030E-01 5.30117E-28
8.31310E-01 5.14403E-28
8.34565E-01 4.99100E-28
8.37795E-01 4.84198E-28
8.40999E-01 4.69685E-28
8.44177E-01 4.55551E-28
8.47329E-01 4.41786E-28
8.50455E-01 4.28380E-28
8.53553E-01 4.15323E-28
8.56625E-01 4.02606E-28
8.59670E-01 3.90221E-28
8.62687E-01 3.78157E-28
8.65677E-01 3.66408E-28
8.68639E-01 3.54963E-28
8.71572E-01 3.43817E-28
8.74478E-01 3.32960E-28
8.77355E-01 3.22385E-28
8.80203E-01 3.12085E-28
8.83022E-01 3.02053E-28
8.85812E-01 2.92283E-28
8.88573E-01 2.82766E-28
8.91304E-01 2.73497E-28
8.94005E-01 2.64470E-28
8.96677E-01 2.55679E-28
8.99318E-01 2.47117E-28
9.01928E-01 2.38779E-28
9.04508E-01 2.30659E-28
9.07058E-01 2.22752E-28
9.09576E-01 2.15053E-28
9.12063E-01 2.07557E-28
9.14519E-01 2.00258E-28
9.16943E-01 1.93152E-28
9.19335E-01 1.86234E-28
9.21696E-01 1.79500E-28
9.24024E-01 1.72946E-28
9.26320E-01 1.66566E-28
9.28584E-01 1.60358E-28
9.30815E-01 1.54317E-28
9.33013E-01 1.48439E-28
9.35178E-01 1.42720E-28
9.37310E-01 1.37157E-28
9.39409E-01 1.31746E-28
9.41474E-01 1.26484E-28
9.43505E-01 1.21368E-28
9.45503E-01 1.16393E-28
9.47467E-01 1.11558E-28
9.49397E-01 1.06859E-28
9.51293E-01 1.02294E-28
9.53154E-01 9.78584E-29
9.54981E-01 9.35507E-29
9.56773E-01 8.93679E-29
9.58530E-01 8.53075E-29
9.60252E-01 8.13669E-29
9.61940E-01 7.75438E-29
9.63592E-01 7.38357E-29
9.65209E-01 7.02405E-29
9.66790E-01 6.67559E-29
9.68336E-01 6.33798E-29
9.69846E-01 6.01102E-29
9.71321E-01 5.69450E-29
9.72759E-01 5.38824E-29
9.74162E-01 5.09206E-29
9.75528E-01 4.80576E-29
9.76858E-01 4.52919E-29
9.78152E-01 4.26218E-29
9.79410E-01 4.00456E-29
9.80631E-01 3.75618E-29
9.81815E-01 3.51689E-29
9.82963E-01 3.28656E-29
9.84074E-01 3.06504E-29
9.85148E-01 2.85221E-29
9.86185E-01 2.64793E-29
9.87185E-01 2.45208E-29
9.88148E-01 2.26456E-29
9.89074E-01 2.08525E-29
9.89962E-01 1.91404E-29
9.90814E-01 1.75084E-29
9.91627E-01 1.59554E-29
9.92404E-01 1.44806E-29
9.93143E-01 1.30831E-29
9.93844E-01 1.17621E-29
9.94508E-01 1.05168E-29
9.95134E-01 9.34645E-30
9.95722E-01 8.25042E-30
9.96273E-01 7.22806E-30
9.96786E-01 6.27876E-30
9.97261E-01 5.40198E-30
9.97698E-01 4.59719E-30
9.98097E-01 3.86395E-30
9.98459E-01 3.20181E-30
9.98782E-01 2.61040E-30
9.99067E-01 2.08937E-30
9.99315E-01 1.63842E-30
9.99524E-01 1.25729E-30
9.99695E-01 9.45755E-31
9.99829E-01 7.03637E-31
9.99924E-01 5.30797E-31
9.99981E-01 4.27132E-31
1.00000E+00 3.92582E-31
