 #
 # Subroutine ELSEPA. Elastic scattering of electrons and positrons
 #                    by neutral atoms and positive ions
 #
 # Projectile: positron
 # Kinetic energy = 7.00000E+08 eV = 2.57245E+07 a.u.
 #
 # WARNING: High-energy factorization with free-atom DF screening.
 #          Absorption, polarization and exchange corrections are
 #          switched off.
 #          Phase shifts are calculated for the bare nucleus.
 #          Scattering amplitudes are not evaluated.
 #
 # Element: Cd,  Z =  48,  atomic weight = 1.12411E+02 g/mol
 #
 # Nuclear model: Fermi distribution
 #                Average radius = 5.16401E-13 cm
 #                Skin thickness = 5.46000E-14 cm
 #
 # Number of electrons = 48
 #
 # Total elastic cross section = 4.49121E-18 cm**2 = 1.60384E-01 a0**2
 # 1st transport cross section = 9.22810E-27 cm**2 = 3.29541E-10 a0**2
 # 2nd transport cross section = 2.76784E-26 cm**2 = 9.88415E-10 a0**2
 #
 #
 # Differential cross section:                       MU=(1-COS(THETA))/2
 #
 #  THETA        MU          DCS          DCS        Sherman      error
 #  (deg)                 (cm**2/sr)   (a0**2/sr)    function
 #----------------------------------------------------------------------
0.00000E+00 1.55043E-08
7.61557E-13 1.39866E-08
1.18994E-12 1.32453E-08
1.71346E-12 1.24329E-08
2.33225E-12 1.15856E-08
3.04617E-12 1.07297E-08
3.85530E-12 9.89248E-09
4.75964E-12 9.09278E-09
5.75917E-12 8.34078E-09
6.85391E-12 7.63929E-09
8.04379E-12 6.99501E-09
9.32893E-12 6.40701E-09
1.07092E-11 5.87081E-09
1.21847E-11 5.38349E-09
1.37554E-11 4.94257E-09
1.54213E-11 4.54369E-09
1.71823E-11 4.18043E-09
1.90386E-11 3.85126E-09
2.09900E-11 3.55270E-09
2.30367E-11 3.28090E-09
2.51785E-11 3.03245E-09
2.74156E-11 2.80604E-09
2.97478E-11 2.59937E-09
3.21752E-11 2.40954E-09
3.46979E-11 2.23541E-09
3.73157E-11 2.07579E-09
4.00286E-11 1.92917E-09
4.28368E-11 1.79366E-09
4.57402E-11 1.66902E-09
4.87388E-11 1.54638E-09
5.18325E-11 1.43256E-09
5.50215E-11 1.33098E-09
5.83057E-11 1.24008E-09
6.16850E-11 1.15848E-09
6.51595E-11 1.08504E-09
6.87293E-11 1.01876E-09
7.23943E-11 9.58787E-10
7.61544E-11 8.94564E-10
1.18991E-10 4.75962E-10
1.71347E-10 2.72206E-10
2.33223E-10 1.66720E-10
3.04617E-10 1.08426E-10
3.85531E-10 7.42924E-11
4.75965E-10 5.30481E-11
5.75917E-10 3.90744E-11
6.85389E-10 2.94238E-11
8.04380E-10 2.25728E-11
9.32891E-10 1.75795E-11
1.07092E-09 1.38555E-11
1.21847E-09 1.10397E-11
1.37554E-09 8.88548E-12
1.54213E-09 7.22322E-12
1.71823E-09 5.92436E-12
1.90386E-09 4.90236E-12
2.09900E-09 4.09032E-12
2.30367E-09 3.43885E-12
2.51785E-09 2.91173E-12
2.74156E-09 2.48242E-12
2.97478E-09 2.13012E-12
3.21752E-09 1.83877E-12
3.46978E-09 1.59615E-12
3.73156E-09 1.39272E-12
4.00286E-09 1.22101E-12
4.28368E-09 1.07510E-12
4.57402E-09 9.50528E-13
4.87388E-09 8.43325E-13
5.18326E-09 7.51036E-13
5.50215E-09 6.71427E-13
5.83057E-09 6.01956E-13
6.16850E-09 5.41139E-13
6.51596E-09 4.88039E-13
6.87293E-09 4.41254E-13
7.23942E-09 3.99777E-13
7.61544E-09 3.63193E-13
1.18991E-08 1.54614E-13
1.71347E-08 7.62086E-14
2.33223E-08 4.17022E-14
3.04617E-08 2.46837E-14
3.85531E-08 1.55275E-14
4.75965E-08 1.02519E-14
5.75917E-08 7.03992E-15
6.85389E-08 4.99379E-15
8.04380E-08 3.64031E-15
9.32891E-08 2.71601E-15
1.07092E-07 2.06736E-15
1.21847E-07 1.60129E-15
1.37554E-07 1.25942E-15
1.54213E-07 1.00408E-15
1.71823E-07 8.10265E-16
1.90386E-07 6.61011E-16
2.09900E-07 5.44572E-16
2.30367E-07 4.52662E-16
2.51785E-07 3.79336E-16
2.74156E-07 3.20264E-16
2.97478E-07 2.72247E-16
3.21752E-07 2.32895E-16
3.46978E-07 2.00398E-16
3.73156E-07 1.73372E-16
4.00286E-07 1.50750E-16
4.28368E-07 1.31697E-16
4.57402E-07 1.15560E-16
4.87388E-07 1.01818E-16
5.18325E-07 9.00589E-17
5.50215E-07 7.99481E-17
5.83057E-07 7.12166E-17
6.16850E-07 6.36445E-17
6.51596E-07 5.70519E-17
6.87293E-07 5.12909E-17
7.23942E-07 4.62388E-17
7.61543E-07 4.17932E-17
1.18991E-06 1.71394E-17
1.71347E-06 8.27007E-18
2.33223E-06 4.46508E-18
3.04617E-06 2.61759E-18
3.85531E-06 1.63416E-18
4.75964E-06 1.07212E-18
5.75916E-06 7.32218E-19
6.85388E-06 5.16943E-19
8.04378E-06 3.75270E-19
9.32888E-06 2.78966E-19
1.07092E-05 2.11661E-19
1.21846E-05 1.63480E-19
1.37553E-05 1.28259E-19
1.54212E-05 1.02030E-19
1.71822E-05 8.21748E-20
1.90385E-05 6.69052E-20
2.09899E-05 5.50517E-20
2.30365E-05 4.57068E-20
2.51783E-05 3.82575E-20
2.74153E-05 3.22611E-20
2.97475E-05 2.73922E-20
3.21749E-05 2.34076E-20
3.46974E-05 2.01227E-20
3.73152E-05 1.73955E-20
4.00281E-05 1.51159E-20
4.28362E-05 1.31980E-20
4.57395E-05 1.15748E-20
4.87380E-05 1.01932E-20
5.18317E-05 9.01115E-21
5.50205E-05 7.99524E-21
5.83045E-05 7.11835E-21
6.16838E-05 6.35843E-21
6.51582E-05 5.69734E-21
6.87277E-05 5.12009E-21
7.23925E-05 4.61419E-21
7.61524E-05 4.15865E-21
9.21439E-05 2.83213E-21
1.09658E-04 1.99275E-21
1.28695E-04 1.44115E-21
1.49255E-04 1.06663E-21
1.71338E-04 8.05373E-22
1.94942E-04 6.18688E-22
2.20070E-04 4.82519E-22
2.46720E-04 3.81370E-22
2.74892E-04 3.05001E-22
3.04586E-04 2.46517E-22
3.35803E-04 2.01137E-22
3.68542E-04 1.65519E-22
4.02802E-04 1.37263E-22
4.38585E-04 1.14632E-22
4.75889E-04 9.63473E-23
5.14715E-04 8.14537E-23
5.55063E-04 6.92336E-23
5.96931E-04 5.91377E-23
6.40321E-04 5.07447E-23
6.85233E-04 4.37264E-23
7.31665E-04 3.78256E-23
7.79618E-04 3.28396E-23
8.29092E-04 2.86066E-23
8.80086E-04 2.49972E-23
9.32601E-04 2.19068E-23
9.86636E-04 1.92506E-23
1.04219E-03 1.69594E-23
1.09927E-03 1.49763E-23
1.15786E-03 1.32545E-23
1.21797E-03 1.17549E-23
1.27961E-03 1.04453E-23
1.34276E-03 9.29855E-24
1.40743E-03 8.29185E-24
1.47362E-03 7.40601E-24
1.54133E-03 6.62477E-24
1.61056E-03 5.93433E-24
1.68131E-03 5.32290E-24
1.75357E-03 4.78042E-24
1.82735E-03 4.29824E-24
1.90265E-03 3.86895E-24
1.97947E-03 3.48611E-24
2.05780E-03 3.14419E-24
2.13765E-03 2.83837E-24
2.21902E-03 2.56446E-24
2.30190E-03 2.31882E-24
2.38630E-03 2.09826E-24
2.47222E-03 1.89998E-24
2.55965E-03 1.72155E-24
2.64859E-03 1.56080E-24
2.73905E-03 1.41585E-24
2.83103E-03 1.28502E-24
2.92452E-03 1.16683E-24
3.01952E-03 1.05997E-24
3.11604E-03 9.63274E-25
3.21407E-03 8.75720E-25
3.31362E-03 7.96386E-25
3.41468E-03 7.24454E-25
3.51725E-03 6.59193E-25
3.62133E-03 5.99951E-25
3.72692E-03 5.46145E-25
3.83403E-03 4.97252E-25
3.94265E-03 4.52803E-25
4.05278E-03 4.12377E-25
4.16442E-03 3.75597E-25
4.27757E-03 3.42120E-25
4.39223E-03 3.11642E-25
4.50840E-03 2.83885E-25
4.62608E-03 2.58599E-25
4.74527E-03 2.35560E-25
4.86597E-03 2.14563E-25
4.98817E-03 1.95425E-25
5.11188E-03 1.77977E-25
5.23711E-03 1.62069E-25
5.36383E-03 1.47564E-25
5.49207E-03 1.34337E-25
5.62181E-03 1.22275E-25
5.75306E-03 1.11275E-25
5.88581E-03 1.01244E-25
6.02007E-03 9.20966E-26
6.15583E-03 8.37556E-26
6.29310E-03 7.61506E-26
6.43187E-03 6.92173E-26
6.57214E-03 6.28973E-26
6.71392E-03 5.71372E-26
6.85720E-03 5.18883E-26
7.00198E-03 4.71063E-26
7.14827E-03 4.27505E-26
7.29605E-03 3.87841E-26
7.44534E-03 3.51731E-26
7.59612E-03 3.18867E-26
7.97965E-03 2.49115E-26
8.37255E-03 1.94163E-26
8.77480E-03 1.50982E-26
9.18641E-03 1.17151E-26
9.60736E-03 9.07327E-27
1.00376E-02 7.01768E-27
1.04773E-02 5.42455E-27
1.09262E-02 4.19507E-27
1.13844E-02 3.25044E-27
1.18520E-02 2.52802E-27
1.23288E-02 1.97809E-27
1.28150E-02 1.56133E-27
1.33104E-02 1.24674E-27
1.38150E-02 1.01001E-27
1.43290E-02 8.32134E-28
1.48521E-02 6.98373E-28
1.53845E-02 5.97356E-28
1.59262E-02 5.20384E-28
1.64770E-02 4.60861E-28
1.70371E-02 4.13843E-28
1.76063E-02 3.75667E-28
1.81848E-02 3.43665E-28
1.87724E-02 3.15928E-28
1.93692E-02 2.91124E-28
1.99751E-02 2.68353E-28
2.05901E-02 2.47029E-28
2.12143E-02 2.26799E-28
2.18476E-02 2.07468E-28
2.24900E-02 1.88949E-28
2.31415E-02 1.71228E-28
2.38021E-02 1.54330E-28
2.44717E-02 1.38299E-28
2.51504E-02 1.23186E-28
2.58382E-02 1.09038E-28
2.65349E-02 9.58910E-29
2.72407E-02 8.37684E-29
2.79555E-02 7.26777E-29
2.86793E-02 6.26116E-29
2.94120E-02 5.35490E-29
3.01537E-02 4.54563E-29
3.09043E-02 3.82894E-29
3.16639E-02 3.19959E-29
3.24324E-02 2.65174E-29
3.32098E-02 2.17909E-29
3.39961E-02 1.77512E-29
3.47912E-02 1.43323E-29
3.55952E-02 1.14688E-29
3.64081E-02 9.09732E-30
3.72297E-02 7.15699E-30
3.80602E-02 5.59057E-30
3.88995E-02 4.34477E-30
3.97476E-02 3.37069E-30
4.06044E-02 2.62395E-30
4.14700E-02 2.06479E-30
4.23443E-02 1.65798E-30
4.32273E-02 1.37272E-30
4.41190E-02 1.18236E-30
4.50194E-02 1.06419E-30
4.59284E-02 9.99120E-31
4.68461E-02 9.71352E-31
4.87074E-02 9.78961E-31
5.06030E-02 1.01375E-30
5.25328E-02 1.03422E-30
5.44967E-02 1.02145E-30
5.64946E-02 9.71529E-31
5.85262E-02 8.89409E-31
6.05914E-02 7.84454E-31
6.26901E-02 6.67273E-31
6.48222E-02 5.47725E-31
6.69873E-02 4.33812E-31
6.91854E-02 3.31232E-31
7.14163E-02 2.43389E-31
7.36799E-02 1.71666E-31
7.59760E-02 1.15850E-31
7.83043E-02 7.45965E-32
8.06647E-02 4.58623E-32
8.30571E-02 2.72846E-32
8.54812E-02 1.64720E-32
8.79369E-02 1.12121E-32
9.04240E-02 9.59913E-33
9.29422E-02 1.00964E-32
9.54915E-02 1.15461E-32
9.80716E-02 1.31435E-32
1.00682E-01 1.43880E-32
1.03323E-01 1.50235E-32
1.05995E-01 1.49761E-32
1.08696E-01 1.42959E-32
1.11427E-01 1.31074E-32
1.14188E-01 1.15688E-32
1.16978E-01 9.84249E-33
1.19797E-01 8.07475E-33
1.22645E-01 6.38413E-33
1.25522E-01 4.85648E-33
1.28428E-01 3.54499E-33
1.31361E-01 2.47363E-33
1.34323E-01 1.64251E-33
1.37313E-01 1.03408E-33
1.40330E-01 6.19224E-34
1.43375E-01 3.62739E-34
1.46447E-01 2.27859E-34
1.49545E-01 1.79641E-34
1.52671E-01 1.87255E-34
1.55823E-01 2.25293E-34
1.59001E-01 2.74237E-34
1.62205E-01 3.20305E-34
1.65435E-01 3.54860E-34
1.68690E-01 3.73555E-34
1.71970E-01 3.75365E-34
1.75276E-01 3.61630E-34
1.78606E-01 3.35174E-34
1.81961E-01 2.99559E-34
1.85340E-01 2.58505E-34
1.88743E-01 2.15464E-34
1.92169E-01 1.73351E-34
1.95619E-01 1.34403E-34
1.99092E-01 1.00143E-34
2.02589E-01 7.14190E-35
2.06107E-01 4.84980E-35
2.09649E-01 3.11818E-35
2.13212E-01 1.89370E-35
2.16797E-01 1.10184E-35
2.20404E-01 6.57819E-36
2.24032E-01 4.75631E-36
2.27680E-01 4.74721E-36
2.31350E-01 5.84611E-36
2.35040E-01 7.47483E-36
2.38751E-01 9.19084E-36
2.42481E-01 1.06838E-35
2.46231E-01 1.17627E-35
2.50000E-01 1.23367E-35
2.53788E-01 1.23939E-35
2.57595E-01 1.19798E-35
2.61421E-01 1.11767E-35
2.65264E-01 1.00860E-35
2.69126E-01 8.81387E-36
2.73005E-01 7.46086E-36
2.76901E-01 6.11413E-36
2.80814E-01 4.84357E-36
2.84744E-01 3.69983E-36
2.88691E-01 2.71499E-36
2.92653E-01 1.90408E-36
2.96632E-01 1.26793E-36
3.00625E-01 7.96446E-37
3.04634E-01 4.71502E-37
3.08658E-01 2.70334E-37
3.12697E-01 1.67983E-37
3.16749E-01 1.39590E-37
3.20816E-01 1.62001E-37
3.24896E-01 2.14920E-37
3.28990E-01 2.81559E-37
3.33097E-01 3.48906E-37
3.37216E-01 4.07623E-37
3.41348E-01 4.51797E-37
3.45492E-01 4.78401E-37
3.49647E-01 4.86788E-37
3.53814E-01 4.78102E-37
3.57992E-01 4.54674E-37
3.62181E-01 4.19620E-37
3.66381E-01 3.76350E-37
3.70590E-01 3.28207E-37
3.74810E-01 2.78266E-37
3.79039E-01 2.29191E-37
3.83277E-01 1.83095E-37
3.87524E-01 1.41497E-37
3.91780E-01 1.05392E-37
3.96044E-01 7.52686E-38
4.00316E-01 5.11939E-38
4.04596E-01 3.28835E-38
4.08882E-01 1.98079E-38
4.13176E-01 1.12677E-38
4.17476E-01 1.00000E-45
4.21783E-01 1.00000E-45
4.26095E-01 1.00000E-45
4.30413E-01 1.00000E-45
4.34737E-01 1.00000E-45
4.39065E-01 1.00000E-45
4.43398E-01 1.00000E-45
4.47736E-01 1.00000E-45
4.52077E-01 1.00000E-45
4.56422E-01 1.00000E-45
4.60770E-01 1.00000E-45
4.65122E-01 1.00000E-45
4.69476E-01 1.00000E-45
4.73832E-01 1.00000E-45
4.78190E-01 1.00000E-45
4.82550E-01 1.00000E-45
4.86912E-01 1.00000E-45
4.91274E-01 1.00000E-45
4.95637E-01 1.00000E-45
5.00000E-01 1.00000E-45
5.04363E-01 1.00000E-45
5.08726E-01 1.00000E-45
5.13088E-01 1.00000E-45
5.17450E-01 1.00000E-45
5.21810E-01 1.00000E-45
5.26168E-01 1.00000E-45
5.30524E-01 1.00000E-45
5.34878E-01 1.00000E-45
5.39230E-01 1.00000E-45
5.43578E-01 1.00000E-45
5.47923E-01 1.00000E-45
5.52264E-01 1.00000E-45
5.56602E-01 1.00000E-45
5.60935E-01 1.00000E-45
5.65263E-01 1.00000E-45
5.69587E-01 1.00000E-45
5.73905E-01 1.00000E-45
5.78217E-01 1.00000E-45
5.82524E-01 1.00000E-45
5.86824E-01 1.00000E-45
5.91118E-01 1.00000E-45
5.95404E-01 1.00000E-45
5.99684E-01 1.00000E-45
6.03956E-01 1.00000E-45
6.08220E-01 1.00000E-45
6.12476E-01 1.00000E-45
6.16723E-01 1.00000E-45
6.20961E-01 1.00000E-45
6.25190E-01 1.00000E-45
6.29410E-01 1.00000E-45
6.33619E-01 1.00000E-45
6.37819E-01 1.00000E-45
6.42008E-01 1.00000E-45
6.46186E-01 1.00000E-45
6.50353E-01 1.00000E-45
6.54508E-01 1.00000E-45
6.58652E-01 1.00000E-45
6.62784E-01 1.00000E-45
6.66903E-01 1.00000E-45
6.71010E-01 1.00000E-45
6.75104E-01 1.00000E-45
6.79184E-01 1.00000E-45
6.83251E-01 1.00000E-45
6.87303E-01 1.00000E-45
6.91342E-01 1.00000E-45
6.95366E-01 1.00000E-45
6.99375E-01 1.00000E-45
7.03368E-01 1.00000E-45
7.07347E-01 1.00000E-45
7.11309E-01 1.00000E-45
7.15256E-01 1.00000E-45
7.19186E-01 1.00000E-45
7.23099E-01 1.00000E-45
7.26995E-01 1.00000E-45
7.30874E-01 1.00000E-45
7.34736E-01 1.00000E-45
7.38579E-01 1.00000E-45
7.42405E-01 1.00000E-45
7.46212E-01 1.00000E-45
7.50000E-01 1.00000E-45
7.53769E-01 1.00000E-45
7.57519E-01 1.00000E-45
7.61249E-01 1.00000E-45
7.64960E-01 1.00000E-45
7.68650E-01 1.00000E-45
7.72320E-01 1.00000E-45
7.75968E-01 1.00000E-45
7.79596E-01 1.00000E-45
7.83203E-01 1.00000E-45
7.86788E-01 1.00000E-45
7.90351E-01 1.00000E-45
7.93893E-01 1.00000E-45
7.97411E-01 1.00000E-45
8.00908E-01 1.00000E-45
8.04381E-01 1.00000E-45
8.07831E-01 1.00000E-45
8.11257E-01 1.00000E-45
8.14660E-01 1.00000E-45
8.18039E-01 1.00000E-45
8.21394E-01 1.00000E-45
8.24724E-01 1.00000E-45
8.28030E-01 1.00000E-45
8.31310E-01 1.00000E-45
8.34565E-01 1.00000E-45
8.37795E-01 1.00000E-45
8.40999E-01 1.00000E-45
8.44177E-01 1.00000E-45
8.47329E-01 1.00000E-45
8.50455E-01 1.00000E-45
8.53553E-01 1.00000E-45
8.56625E-01 1.00000E-45
8.59670E-01 1.00000E-45
8.62687E-01 1.00000E-45
8.65677E-01 1.00000E-45
8.68639E-01 1.00000E-45
8.71572E-01 1.00000E-45
8.74478E-01 1.00000E-45
8.77355E-01 1.00000E-45
8.80203E-01 1.00000E-45
8.83022E-01 1.00000E-45
8.85812E-01 1.00000E-45
8.88573E-01 1.00000E-45
8.91304E-01 1.00000E-45
8.94005E-01 1.00000E-45
8.96677E-01 1.00000E-45
8.99318E-01 1.00000E-45
9.01928E-01 1.00000E-45
9.04508E-01 1.00000E-45
9.07058E-01 1.00000E-45
9.09576E-01 1.00000E-45
9.12063E-01 1.00000E-45
9.14519E-01 1.00000E-45
9.16943E-01 1.00000E-45
9.19335E-01 1.00000E-45
9.21696E-01 1.00000E-45
9.24024E-01 1.00000E-45
9.26320E-01 1.00000E-45
9.28584E-01 1.00000E-45
9.30815E-01 1.00000E-45
9.33013E-01 1.00000E-45
9.35178E-01 1.00000E-45
9.37310E-01 1.00000E-45
9.39409E-01 1.00000E-45
9.41474E-01 1.00000E-45
9.43505E-01 1.00000E-45
9.45503E-01 1.00000E-45
9.47467E-01 1.00000E-45
9.49397E-01 1.00000E-45
9.51293E-01 1.00000E-45
9.53154E-01 1.00000E-45
9.54981E-01 1.00000E-45
9.56773E-01 1.00000E-45
9.58530E-01 1.00000E-45
9.60252E-01 1.00000E-45
9.61940E-01 1.00000E-45
9.63592E-01 1.00000E-45
9.65209E-01 1.00000E-45
9.66790E-01 1.00000E-45
9.68336E-01 1.00000E-45
9.69846E-01 1.00000E-45
9.71321E-01 1.00000E-45
9.72759E-01 1.00000E-45
9.74162E-01 1.00000E-45
9.75528E-01 1.00000E-45
9.76858E-01 1.00000E-45
9.78152E-01 1.00000E-45
9.79410E-01 1.00000E-45
9.80631E-01 1.00000E-45
9.81815E-01 1.00000E-45
9.82963E-01 1.00000E-45
9.84074E-01 1.00000E-45
9.85148E-01 1.00000E-45
9.86185E-01 1.00000E-45
9.87185E-01 1.00000E-45
9.88148E-01 1.00000E-45
9.89074E-01 1.00000E-45
9.89962E-01 1.00000E-45
9.90814E-01 1.00000E-45
9.91627E-01 1.00000E-45
9.92404E-01 1.00000E-45
9.93143E-01 1.00000E-45
9.93844E-01 1.00000E-45
9.94508E-01 1.00000E-45
9.95134E-01 1.00000E-45
9.95722E-01 1.00000E-45
9.96273E-01 1.00000E-45
9.96786E-01 1.00000E-45
9.97261E-01 1.00000E-45
9.97698E-01 1.00000E-45
9.98097E-01 1.00000E-45
9.98459E-01 1.00000E-45
9.98782E-01 1.00000E-45
9.99067E-01 1.00000E-45
9.99315E-01 1.00000E-45
9.99524E-01 1.00000E-45
9.99695E-01 1.00000E-45
9.99829E-01 1.00000E-45
9.99924E-01 1.00000E-45
9.99981E-01 1.00000E-45
1.00000E+00 1.00000E-45
