 #
 # Subroutine ELSEPA. Elastic scattering of electrons and positrons
 #                    by neutral atoms and positive ions
 #
 # Projectile: positron
 # Kinetic energy = 2.50000E+07 eV = 9.18733E+05 a.u.
 #
 # WARNING: High-energy factorization with free-atom DF screening.
 #          Absorption, polarization and exchange corrections are
 #          switched off.
 #          Phase shifts are calculated for the bare nucleus.
 #          Scattering amplitudes are not evaluated.
 #
 # Element: Cd,  Z =  48,  atomic weight = 1.12411E+02 g/mol
 #
 # Nuclear model: Fermi distribution
 #                Average radius = 5.16401E-13 cm
 #                Skin thickness = 5.46000E-14 cm
 #
 # Number of electrons = 48
 #
 # Total elastic cross section = 4.49697E-18 cm**2 = 1.60590E-01 a0**2
 # 1st transport cross section = 5.97143E-24 cm**2 = 2.13244E-07 a0**2
 # 2nd transport cross section = 1.74044E-23 cm**2 = 6.21524E-07 a0**2
 #
 #
 # Differential cross section:                       MU=(1-COS(THETA))/2
 #
 #  THETA        MU          DCS          DCS        Sherman      error
 #  (deg)                 (cm**2/sr)   (a0**2/sr)    function
 #----------------------------------------------------------------------
0.00000E+00 2.05626E-11
7.61557E-13 2.05596E-11
1.18994E-12 2.05579E-11
1.71346E-12 2.05559E-11
2.33225E-12 2.05535E-11
3.04617E-12 2.05507E-11
3.85530E-12 2.05476E-11
4.75964E-12 2.05441E-11
5.75917E-12 2.05403E-11
6.85391E-12 2.05361E-11
8.04379E-12 2.05315E-11
9.32893E-12 2.05266E-11
1.07092E-11 2.05213E-11
1.21847E-11 2.05156E-11
1.37554E-11 2.05096E-11
1.54213E-11 2.05032E-11
1.71823E-11 2.04965E-11
1.90386E-11 2.04894E-11
2.09900E-11 2.04819E-11
2.30367E-11 2.04741E-11
2.51785E-11 2.04659E-11
2.74156E-11 2.04574E-11
2.97478E-11 2.04485E-11
3.21752E-11 2.04393E-11
3.46979E-11 2.04297E-11
3.73157E-11 2.04197E-11
4.00286E-11 2.04094E-11
4.28368E-11 2.03988E-11
4.57402E-11 2.03878E-11
4.87388E-11 2.03764E-11
5.18325E-11 2.03647E-11
5.50215E-11 2.03527E-11
5.83057E-11 2.03403E-11
6.16850E-11 2.03276E-11
6.51595E-11 2.03145E-11
6.87293E-11 2.03011E-11
7.23943E-11 2.02873E-11
7.61544E-11 2.02732E-11
1.18991E-10 2.01139E-11
1.71347E-10 1.99222E-11
2.33223E-10 1.96998E-11
3.04617E-10 1.94488E-11
3.85531E-10 1.91702E-11
4.75965E-10 1.88676E-11
5.75917E-10 1.85446E-11
6.85389E-10 1.81999E-11
8.04380E-10 1.78417E-11
9.32891E-10 1.74645E-11
1.07092E-09 1.70804E-11
1.21847E-09 1.66810E-11
1.37554E-09 1.62792E-11
1.54213E-09 1.58680E-11
1.71823E-09 1.54570E-11
1.90386E-09 1.50422E-11
2.09900E-09 1.46293E-11
2.30367E-09 1.42181E-11
2.51785E-09 1.38095E-11
2.74156E-09 1.34073E-11
2.97478E-09 1.30082E-11
3.21752E-09 1.26193E-11
3.46978E-09 1.22334E-11
3.73156E-09 1.18609E-11
4.00286E-09 1.14910E-11
4.28368E-09 1.11357E-11
4.57402E-09 1.07849E-11
4.87388E-09 1.04476E-11
5.18326E-09 1.01173E-11
5.50215E-09 9.79878E-12
5.83057E-09 9.48899E-12
6.16850E-09 9.18941E-12
6.51596E-09 8.89989E-12
6.87293E-09 8.61895E-12
7.23942E-09 8.34906E-12
7.61544E-09 8.08617E-12
1.18991E-08 5.92207E-12
1.71347E-08 4.40410E-12
2.33223E-08 3.32121E-12
3.04617E-08 2.53412E-12
3.85531E-08 1.93294E-12
4.75965E-08 1.49499E-12
5.75917E-08 1.18192E-12
6.85389E-08 9.27897E-13
8.04380E-08 7.45257E-13
9.32891E-08 5.95544E-13
1.07092E-07 4.85362E-13
1.21847E-07 3.95890E-13
1.37554E-07 3.27607E-13
1.54213E-07 2.72750E-13
1.71823E-07 2.29453E-13
1.90386E-07 1.94509E-13
2.09900E-07 1.66243E-13
2.30367E-07 1.43153E-13
2.51785E-07 1.24084E-13
2.74156E-07 1.08291E-13
2.97478E-07 9.49875E-14
3.21752E-07 8.38353E-14
3.46978E-07 7.42536E-14
3.73156E-07 6.61476E-14
4.00286E-07 5.90481E-14
4.28368E-07 5.29813E-14
4.57402E-07 4.76156E-14
4.87388E-07 4.29677E-14
5.18325E-07 3.88378E-14
5.50215E-07 3.52109E-14
5.83057E-07 3.19809E-14
6.16850E-07 2.91089E-14
6.51596E-07 2.65489E-14
6.87293E-07 2.42480E-14
7.23942E-07 2.21962E-14
7.61543E-07 2.03356E-14
1.18991E-06 9.18254E-15
1.71347E-06 4.67734E-15
2.33223E-06 2.62479E-15
3.04617E-06 1.59070E-15
3.85531E-06 1.02123E-15
4.75964E-06 6.86547E-16
5.75916E-06 4.78509E-16
6.85388E-06 3.43517E-16
8.04378E-06 2.52704E-16
9.32888E-06 1.89880E-16
1.07092E-05 1.45342E-16
1.21846E-05 1.13081E-16
1.37553E-05 8.92642E-17
1.54212E-05 7.13833E-17
1.71822E-05 5.77512E-17
1.90385E-05 4.72055E-17
2.09899E-05 3.89799E-17
2.30365E-05 3.24673E-17
2.51783E-05 2.72560E-17
2.74153E-05 2.30467E-17
2.97475E-05 1.96182E-17
3.21749E-05 1.68041E-17
3.46974E-05 1.44780E-17
3.73152E-05 1.25422E-17
4.00281E-05 1.09203E-17
4.28362E-05 9.55288E-18
4.57395E-05 8.39305E-18
4.87380E-05 7.40377E-18
5.18317E-05 6.55582E-18
5.50205E-05 5.82568E-18
5.83045E-05 5.19436E-18
6.16838E-05 4.64632E-18
6.51582E-05 4.16879E-18
6.87277E-05 3.75112E-18
7.23925E-05 3.38454E-18
7.61524E-05 3.06172E-18
9.21439E-05 2.09835E-18
1.09658E-04 1.48551E-18
1.28695E-04 1.08083E-18
1.49255E-04 8.04851E-19
1.71338E-04 6.11530E-19
1.94942E-04 4.72834E-19
2.20070E-04 3.71275E-19
2.46720E-04 2.95541E-19
2.74892E-04 2.38138E-19
3.04586E-04 1.94003E-19
3.35803E-04 1.59617E-19
3.68542E-04 1.32513E-19
4.02802E-04 1.10916E-19
4.38585E-04 9.35371E-20
4.75889E-04 7.94278E-20
5.14715E-04 6.78764E-20
5.55063E-04 5.83475E-20
5.96931E-04 5.04305E-20
6.40321E-04 4.38095E-20
6.85233E-04 3.82384E-20
7.31665E-04 3.35237E-20
7.79618E-04 2.95124E-20
8.29092E-04 2.60823E-20
8.80086E-04 2.31355E-20
9.32601E-04 2.05924E-20
9.86636E-04 1.83887E-20
1.04219E-03 1.64714E-20
1.09927E-03 1.47971E-20
1.15786E-03 1.33297E-20
1.21797E-03 1.20394E-20
1.27961E-03 1.09012E-20
1.34276E-03 9.89400E-21
1.40743E-03 9.00024E-21
1.47362E-03 8.20491E-21
1.54133E-03 7.49530E-21
1.61056E-03 6.86059E-21
1.68131E-03 6.29148E-21
1.75357E-03 5.78002E-21
1.82735E-03 5.31936E-21
1.90265E-03 4.90356E-21
1.97947E-03 4.52750E-21
2.05780E-03 4.18670E-21
2.13765E-03 3.87728E-21
2.21902E-03 3.59584E-21
2.30190E-03 3.33940E-21
2.38630E-03 3.10535E-21
2.47222E-03 2.89139E-21
2.55965E-03 2.69548E-21
2.64859E-03 2.51583E-21
2.73905E-03 2.35086E-21
2.83103E-03 2.19915E-21
2.92452E-03 2.05943E-21
3.01952E-03 1.93060E-21
3.11604E-03 1.81165E-21
3.21407E-03 1.70169E-21
3.31362E-03 1.59992E-21
3.41468E-03 1.50562E-21
3.51725E-03 1.41814E-21
3.62133E-03 1.33689E-21
3.72692E-03 1.26136E-21
3.83403E-03 1.19107E-21
3.94265E-03 1.12558E-21
4.05278E-03 1.06452E-21
4.16442E-03 1.00753E-21
4.27757E-03 9.54287E-22
4.39223E-03 9.04498E-22
4.50840E-03 8.57901E-22
4.62608E-03 8.14253E-22
4.74527E-03 7.73334E-22
4.86597E-03 7.34943E-22
4.98817E-03 6.98895E-22
5.11188E-03 6.65020E-22
5.23711E-03 6.33162E-22
5.36383E-03 6.03181E-22
5.49207E-03 5.74945E-22
5.62181E-03 5.48335E-22
5.75306E-03 5.23239E-22
5.88581E-03 4.99557E-22
6.02007E-03 4.77192E-22
6.15583E-03 4.56059E-22
6.29310E-03 4.36076E-22
6.43187E-03 4.17170E-22
6.57214E-03 3.99273E-22
6.71392E-03 3.82321E-22
6.85720E-03 3.66255E-22
7.00198E-03 3.51019E-22
7.14827E-03 3.36563E-22
7.29605E-03 3.22839E-22
7.44534E-03 3.09803E-22
7.59612E-03 2.97416E-22
7.97965E-03 2.69038E-22
8.37255E-03 2.43946E-22
8.77480E-03 2.21697E-22
9.18641E-03 2.01915E-22
9.60736E-03 1.84277E-22
1.00376E-02 1.68513E-22
1.04773E-02 1.54389E-22
1.09262E-02 1.41705E-22
1.13844E-02 1.30290E-22
1.18520E-02 1.19994E-22
1.23288E-02 1.10688E-22
1.28150E-02 1.02261E-22
1.33104E-02 9.46156E-23
1.38150E-02 8.76666E-23
1.43290E-02 8.13397E-23
1.48521E-02 7.55686E-23
1.53845E-02 7.02975E-23
1.59262E-02 6.54736E-23
1.64770E-02 6.10542E-23
1.70371E-02 5.69979E-23
1.76063E-02 5.32705E-23
1.81848E-02 4.98404E-23
1.87724E-02 4.66796E-23
1.93692E-02 4.37634E-23
1.99751E-02 4.10694E-23
2.05901E-02 3.85778E-23
2.12143E-02 3.62705E-23
2.18476E-02 3.41317E-23
2.24900E-02 3.21468E-23
2.31415E-02 3.03027E-23
2.38021E-02 2.85877E-23
2.44717E-02 2.69912E-23
2.51504E-02 2.55035E-23
2.58382E-02 2.41158E-23
2.65349E-02 2.28203E-23
2.72407E-02 2.16098E-23
2.79555E-02 2.04776E-23
2.86793E-02 1.94178E-23
2.94120E-02 1.84250E-23
3.01537E-02 1.74941E-23
3.09043E-02 1.66206E-23
3.16639E-02 1.58003E-23
3.24324E-02 1.50294E-23
3.32098E-02 1.43044E-23
3.39961E-02 1.36221E-23
3.47912E-02 1.29795E-23
3.55952E-02 1.23739E-23
3.64081E-02 1.18028E-23
3.72297E-02 1.12638E-23
3.80602E-02 1.07549E-23
3.88995E-02 1.02740E-23
3.97476E-02 9.81936E-24
4.06044E-02 9.38925E-24
4.14700E-02 8.98213E-24
4.23443E-02 8.59653E-24
4.32273E-02 8.23113E-24
4.41190E-02 7.88467E-24
4.50194E-02 7.55599E-24
4.59284E-02 7.24402E-24
4.68461E-02 6.94775E-24
4.87074E-02 6.39866E-24
5.06030E-02 5.90201E-24
5.25328E-02 5.45192E-24
5.44967E-02 5.04330E-24
5.64946E-02 4.67168E-24
5.85262E-02 4.33314E-24
6.05914E-02 4.02423E-24
6.26901E-02 3.74192E-24
6.48222E-02 3.48353E-24
6.69873E-02 3.24669E-24
6.91854E-02 3.02928E-24
7.14163E-02 2.82945E-24
7.36799E-02 2.64553E-24
7.59760E-02 2.47604E-24
7.83043E-02 2.31966E-24
8.06647E-02 2.17518E-24
8.30571E-02 2.04156E-24
8.54812E-02 1.91784E-24
8.79369E-02 1.80316E-24
9.04240E-02 1.69675E-24
9.29422E-02 1.59790E-24
9.54915E-02 1.50599E-24
9.80716E-02 1.42045E-24
1.00682E-01 1.34076E-24
1.03323E-01 1.26645E-24
1.05995E-01 1.19710E-24
1.08696E-01 1.13232E-24
1.11427E-01 1.07175E-24
1.14188E-01 1.01508E-24
1.16978E-01 9.62010E-25
1.19797E-01 9.12275E-25
1.22645E-01 8.65628E-25
1.25522E-01 8.21846E-25
1.28428E-01 7.80722E-25
1.31361E-01 7.42067E-25
1.34323E-01 7.05707E-25
1.37313E-01 6.71484E-25
1.40330E-01 6.39250E-25
1.43375E-01 6.08869E-25
1.46447E-01 5.80218E-25
1.49545E-01 5.53181E-25
1.52671E-01 5.27651E-25
1.55823E-01 5.03531E-25
1.59001E-01 4.80728E-25
1.62205E-01 4.59160E-25
1.65435E-01 4.38748E-25
1.68690E-01 4.19419E-25
1.71970E-01 4.01106E-25
1.75276E-01 3.83746E-25
1.78606E-01 3.67283E-25
1.81961E-01 3.51661E-25
1.85340E-01 3.36830E-25
1.88743E-01 3.22744E-25
1.92169E-01 3.09359E-25
1.95619E-01 2.96634E-25
1.99092E-01 2.84531E-25
2.02589E-01 2.73014E-25
2.06107E-01 2.62051E-25
2.09649E-01 2.51610E-25
2.13212E-01 2.41662E-25
2.16797E-01 2.32181E-25
2.20404E-01 2.23140E-25
2.24032E-01 2.14516E-25
2.27680E-01 2.06286E-25
2.31350E-01 1.98429E-25
2.35040E-01 1.90926E-25
2.38751E-01 1.83757E-25
2.42481E-01 1.76907E-25
2.46231E-01 1.70357E-25
2.50000E-01 1.64093E-25
2.53788E-01 1.58101E-25
2.57595E-01 1.52365E-25
2.61421E-01 1.46875E-25
2.65264E-01 1.41617E-25
2.69126E-01 1.36580E-25
2.73005E-01 1.31753E-25
2.76901E-01 1.27126E-25
2.80814E-01 1.22690E-25
2.84744E-01 1.18434E-25
2.88691E-01 1.14352E-25
2.92653E-01 1.10434E-25
2.96632E-01 1.06672E-25
3.00625E-01 1.03061E-25
3.04634E-01 9.95913E-26
3.08658E-01 9.62580E-26
3.12697E-01 9.30547E-26
3.16749E-01 8.99753E-26
3.20816E-01 8.70143E-26
3.24896E-01 8.41665E-26
3.28990E-01 8.14267E-26
3.33097E-01 7.87903E-26
3.37216E-01 7.62528E-26
3.41348E-01 7.38097E-26
3.45492E-01 7.14571E-26
3.49647E-01 6.91911E-26
3.53814E-01 6.70080E-26
3.57992E-01 6.49042E-26
3.62181E-01 6.28765E-26
3.66381E-01 6.09215E-26
3.70590E-01 5.90365E-26
3.74810E-01 5.72183E-26
3.79039E-01 5.54643E-26
3.83277E-01 5.37719E-26
3.87524E-01 5.21386E-26
3.91780E-01 5.05619E-26
3.96044E-01 4.90396E-26
4.00316E-01 4.75696E-26
4.04596E-01 4.61498E-26
4.08882E-01 4.47781E-26
4.13176E-01 4.34528E-26
4.17476E-01 4.21719E-26
4.21783E-01 4.09339E-26
4.26095E-01 3.97370E-26
4.30413E-01 3.85796E-26
4.34737E-01 3.74603E-26
4.39065E-01 3.63776E-26
4.43398E-01 3.53301E-26
4.47736E-01 3.43165E-26
4.52077E-01 3.33356E-26
4.56422E-01 3.23861E-26
4.60770E-01 3.14669E-26
4.65122E-01 3.05769E-26
4.69476E-01 2.97150E-26
4.73832E-01 2.88801E-26
4.78190E-01 2.80714E-26
4.82550E-01 2.72879E-26
4.86912E-01 2.65286E-26
4.91274E-01 2.57927E-26
4.95637E-01 2.50794E-26
5.00000E-01 2.43879E-26
5.04363E-01 2.37175E-26
5.08726E-01 2.30673E-26
5.13088E-01 2.24367E-26
5.17450E-01 2.18250E-26
5.21810E-01 2.12316E-26
5.26168E-01 2.06559E-26
5.30524E-01 2.00971E-26
5.34878E-01 1.95549E-26
5.39230E-01 1.90286E-26
5.43578E-01 1.85176E-26
5.47923E-01 1.80215E-26
5.52264E-01 1.75398E-26
5.56602E-01 1.70720E-26
5.60935E-01 1.66176E-26
5.65263E-01 1.61762E-26
5.69587E-01 1.57474E-26
5.73905E-01 1.53308E-26
5.78217E-01 1.49260E-26
5.82524E-01 1.45325E-26
5.86824E-01 1.41501E-26
5.91118E-01 1.37784E-26
5.95404E-01 1.34170E-26
5.99684E-01 1.30656E-26
6.03956E-01 1.27240E-26
6.08220E-01 1.23917E-26
6.12476E-01 1.20686E-26
6.16723E-01 1.17543E-26
6.20961E-01 1.14485E-26
6.25190E-01 1.11510E-26
6.29410E-01 1.08616E-26
6.33619E-01 1.05799E-26
6.37819E-01 1.03058E-26
6.42008E-01 1.00390E-26
6.46186E-01 9.77936E-27
6.50353E-01 9.52658E-27
6.54508E-01 9.28049E-27
6.58652E-01 9.04089E-27
6.62784E-01 8.80758E-27
6.66903E-01 8.58039E-27
6.71010E-01 8.35912E-27
6.75104E-01 8.14361E-27
6.79184E-01 7.93369E-27
6.83251E-01 7.72920E-27
6.87303E-01 7.52998E-27
6.91342E-01 7.33588E-27
6.95366E-01 7.14676E-27
6.99375E-01 6.96246E-27
7.03368E-01 6.78285E-27
7.07347E-01 6.60781E-27
7.11309E-01 6.43720E-27
7.15256E-01 6.27089E-27
7.19186E-01 6.10878E-27
7.23099E-01 5.95073E-27
7.26995E-01 5.79664E-27
7.30874E-01 5.64639E-27
7.34736E-01 5.49989E-27
7.38579E-01 5.35703E-27
7.42405E-01 5.21770E-27
7.46212E-01 5.08182E-27
7.50000E-01 4.94929E-27
7.53769E-01 4.82002E-27
7.57519E-01 4.69392E-27
7.61249E-01 4.57091E-27
7.64960E-01 4.45090E-27
7.68650E-01 4.33382E-27
7.72320E-01 4.21958E-27
7.75968E-01 4.10811E-27
7.79596E-01 3.99935E-27
7.83203E-01 3.89321E-27
7.86788E-01 3.78963E-27
7.90351E-01 3.68855E-27
7.93893E-01 3.58989E-27
7.97411E-01 3.49361E-27
8.00908E-01 3.39962E-27
8.04381E-01 3.30789E-27
8.07831E-01 3.21834E-27
8.11257E-01 3.13093E-27
8.14660E-01 3.04560E-27
8.18039E-01 2.96230E-27
8.21394E-01 2.88097E-27
8.24724E-01 2.80158E-27
8.28030E-01 2.72406E-27
8.31310E-01 2.64838E-27
8.34565E-01 2.57448E-27
8.37795E-01 2.50233E-27
8.40999E-01 2.43189E-27
8.44177E-01 2.36310E-27
8.47329E-01 2.29593E-27
8.50455E-01 2.23035E-27
8.53553E-01 2.16631E-27
8.56625E-01 2.10378E-27
8.59670E-01 2.04272E-27
8.62687E-01 1.98310E-27
8.65677E-01 1.92488E-27
8.68639E-01 1.86803E-27
8.71572E-01 1.81252E-27
8.74478E-01 1.75831E-27
8.77355E-01 1.70538E-27
8.80203E-01 1.65370E-27
8.83022E-01 1.60324E-27
8.85812E-01 1.55398E-27
8.88573E-01 1.50587E-27
8.91304E-01 1.45891E-27
8.94005E-01 1.41306E-27
8.96677E-01 1.36830E-27
8.99318E-01 1.32460E-27
9.01928E-01 1.28195E-27
9.04508E-01 1.24031E-27
9.07058E-01 1.19967E-27
9.09576E-01 1.16001E-27
9.12063E-01 1.12130E-27
9.14519E-01 1.08352E-27
9.16943E-01 1.04666E-27
9.19335E-01 1.01070E-27
9.21696E-01 9.75612E-28
9.24024E-01 9.41384E-28
9.26320E-01 9.07997E-28
9.28584E-01 8.75435E-28
9.30815E-01 8.43682E-28
9.33013E-01 8.12720E-28
9.35178E-01 7.82534E-28
9.37310E-01 7.53109E-28
9.39409E-01 7.24431E-28
9.41474E-01 6.96485E-28
9.43505E-01 6.69256E-28
9.45503E-01 6.42732E-28
9.47467E-01 6.16900E-28
9.49397E-01 5.91747E-28
9.51293E-01 5.67259E-28
9.53154E-01 5.43427E-28
9.54981E-01 5.20236E-28
9.56773E-01 4.97678E-28
9.58530E-01 4.75740E-28
9.60252E-01 4.54411E-28
9.61940E-01 4.33682E-28
9.63592E-01 4.13543E-28
9.65209E-01 3.93984E-28
9.66790E-01 3.74995E-28
9.68336E-01 3.56568E-28
9.69846E-01 3.38693E-28
9.71321E-01 3.21363E-28
9.72759E-01 3.04569E-28
9.74162E-01 2.88302E-28
9.75528E-01 2.72556E-28
9.76858E-01 2.57324E-28
9.78152E-01 2.42597E-28
9.79410E-01 2.28369E-28
9.80631E-01 2.14633E-28
9.81815E-01 2.01383E-28
9.82963E-01 1.88613E-28
9.84074E-01 1.76316E-28
9.85148E-01 1.64488E-28
9.86185E-01 1.53122E-28
9.87185E-01 1.42214E-28
9.88148E-01 1.31758E-28
9.89074E-01 1.21749E-28
9.89962E-01 1.12184E-28
9.90814E-01 1.03056E-28
9.91627E-01 9.43635E-29
9.92404E-01 8.61010E-29
9.93143E-01 7.82650E-29
9.93844E-01 7.08520E-29
9.94508E-01 6.38586E-29
9.95134E-01 5.72816E-29
9.95722E-01 5.11180E-29
9.96273E-01 4.53651E-29
9.96786E-01 4.00201E-29
9.97261E-01 3.50807E-29
9.97698E-01 3.05447E-29
9.98097E-01 2.64099E-29
9.98459E-01 2.26745E-29
9.98782E-01 1.93368E-29
9.99067E-01 1.63954E-29
9.99315E-01 1.38488E-29
9.99524E-01 1.16960E-29
9.99695E-01 9.93586E-30
9.99829E-01 8.56771E-30
9.99924E-01 7.59091E-30
9.99981E-01 7.00500E-30
1.00000E+00 6.80971E-30
