 #
 # Subroutine ELSEPA. Elastic scattering of electrons and positrons
 #                    by neutral atoms and positive ions
 #
 # Projectile: positron
 # Kinetic energy = 9.00000E+07 eV = 3.30744E+06 a.u.
 #
 # WARNING: High-energy factorization with free-atom DF screening.
 #          Absorption, polarization and exchange corrections are
 #          switched off.
 #          Phase shifts are calculated for the bare nucleus.
 #          Scattering amplitudes are not evaluated.
 #
 # Element: Cd,  Z =  48,  atomic weight = 1.12411E+02 g/mol
 #
 # Nuclear model: Fermi distribution
 #                Average radius = 5.16401E-13 cm
 #                Skin thickness = 5.46000E-14 cm
 #
 # Number of electrons = 48
 #
 # Total elastic cross section = 4.49849E-18 cm**2 = 1.60644E-01 a0**2
 # 1st transport cross section = 5.37830E-25 cm**2 = 1.92062E-08 a0**2
 # 2nd transport cross section = 1.59549E-24 cm**2 = 5.69759E-08 a0**2
 #
 #
 # Differential cross section:                       MU=(1-COS(THETA))/2
 #
 #  THETA        MU          DCS          DCS        Sherman      error
 #  (deg)                 (cm**2/sr)   (a0**2/sr)    function
 #----------------------------------------------------------------------
0.00000E+00 2.58836E-10
7.61557E-13 2.58371E-10
1.18994E-12 2.58111E-10
1.71346E-12 2.57793E-10
2.33225E-12 2.57419E-10
3.04617E-12 2.56989E-10
3.85530E-12 2.56503E-10
4.75964E-12 2.55962E-10
5.75917E-12 2.55367E-10
6.85391E-12 2.54717E-10
8.04379E-12 2.54015E-10
9.32893E-12 2.53260E-10
1.07092E-11 2.52454E-10
1.21847E-11 2.51598E-10
1.37554E-11 2.50692E-10
1.54213E-11 2.49737E-10
1.71823E-11 2.48735E-10
1.90386E-11 2.47687E-10
2.09900E-11 2.46594E-10
2.30367E-11 2.45456E-10
2.51785E-11 2.44276E-10
2.74156E-11 2.43054E-10
2.97478E-11 2.41782E-10
3.21752E-11 2.40472E-10
3.46979E-11 2.39129E-10
3.73157E-11 2.37754E-10
4.00286E-11 2.36350E-10
4.28368E-11 2.34919E-10
4.57402E-11 2.33436E-10
4.87388E-11 2.31916E-10
5.18325E-11 2.30374E-10
5.50215E-11 2.28810E-10
5.83057E-11 2.27227E-10
6.16850E-11 2.25626E-10
6.51595E-11 2.23980E-10
6.87293E-11 2.22302E-10
7.23943E-11 2.20611E-10
7.61544E-11 2.18908E-10
1.18991E-10 2.01084E-10
1.71347E-10 1.82659E-10
2.33223E-10 1.64541E-10
3.04617E-10 1.47476E-10
3.85531E-10 1.31778E-10
4.75965E-10 1.17596E-10
5.75917E-10 1.04984E-10
6.85389E-10 9.38061E-11
8.04380E-10 8.39481E-11
9.32891E-10 7.52870E-11
1.07092E-09 6.76349E-11
1.21847E-09 6.08850E-11
1.37554E-09 5.49262E-11
1.54213E-09 4.96207E-11
1.71823E-09 4.49092E-11
1.90386E-09 4.07152E-11
2.09900E-09 3.69505E-11
2.30367E-09 3.35852E-11
2.51785E-09 3.05666E-11
2.74156E-09 2.78441E-11
2.97478E-09 2.52194E-11
3.21752E-09 2.28860E-11
3.46978E-09 2.08673E-11
3.73156E-09 1.91124E-11
4.00286E-09 1.75799E-11
4.28368E-09 1.62356E-11
4.57402E-09 1.48774E-11
4.87388E-09 1.36106E-11
5.18326E-09 1.24952E-11
5.50215E-09 1.15097E-11
5.83057E-09 1.06357E-11
6.16850E-09 9.85796E-12
6.51596E-09 9.10265E-12
6.87293E-09 8.39454E-12
7.23942E-09 7.76189E-12
7.61544E-09 7.19503E-12
1.18991E-08 3.59718E-12
1.71347E-08 2.00314E-12
2.33223E-08 1.22080E-12
3.04617E-08 7.96476E-13
3.85531E-08 5.44503E-13
4.75965E-08 3.84578E-13
5.75917E-08 2.78678E-13
6.85389E-08 2.05978E-13
8.04380E-08 1.54874E-13
9.32891E-08 1.18412E-13
1.07092E-07 9.19132E-14
1.21847E-07 7.23730E-14
1.37554E-07 5.77406E-14
1.54213E-07 4.66164E-14
1.71823E-07 3.80626E-14
1.90386E-07 3.14033E-14
2.09900E-07 2.61525E-14
2.30367E-07 2.19664E-14
2.51785E-07 1.85923E-14
2.74156E-07 1.58454E-14
2.97478E-07 1.35852E-14
3.21752E-07 1.17221E-14
3.46978E-07 1.01710E-14
3.73156E-07 8.86438E-15
4.00286E-07 7.76697E-15
4.28368E-07 6.82836E-15
4.57402E-07 6.02998E-15
4.87388E-07 5.34438E-15
5.18325E-07 4.75233E-15
5.50215E-07 4.24176E-15
5.83057E-07 3.79502E-15
6.16850E-07 3.40682E-15
6.51596E-07 3.06617E-15
6.87293E-07 2.76684E-15
7.23942E-07 2.50347E-15
7.61543E-07 2.26978E-15
1.18991E-06 9.52557E-16
1.71347E-06 4.65919E-16
2.33223E-06 2.53998E-16
3.04617E-06 1.50047E-16
3.85531E-06 9.42678E-17
4.75964E-06 6.21745E-17
5.75916E-06 4.26522E-17
6.85388E-06 3.02253E-17
8.04378E-06 2.20111E-17
9.32888E-06 1.64060E-17
1.07092E-05 1.24758E-17
1.21846E-05 9.65432E-18
1.37553E-05 7.58661E-18
1.54212E-05 6.04354E-18
1.71822E-05 4.87325E-18
1.90385E-05 3.97179E-18
2.09899E-05 3.27103E-18
2.30365E-05 2.71788E-18
2.51783E-05 2.27646E-18
2.74153E-05 1.92078E-18
2.97475E-05 1.63174E-18
3.21749E-05 1.39503E-18
3.46974E-05 1.19974E-18
3.73152E-05 1.03752E-18
4.00281E-05 9.01849E-19
4.28362E-05 7.87658E-19
4.57395E-05 6.90967E-19
4.87380E-05 6.08636E-19
5.18317E-05 5.38175E-19
5.50205E-05 4.77596E-19
5.83045E-05 4.25291E-19
6.16838E-05 3.79951E-19
6.51582E-05 3.40498E-19
6.87277E-05 3.06041E-19
7.23925E-05 2.75837E-19
7.61524E-05 2.49324E-19
9.21439E-05 1.70253E-19
1.09658E-04 1.20166E-19
1.28695E-04 8.72124E-20
1.49255E-04 6.48081E-20
1.71338E-04 4.91563E-20
1.94942E-04 3.79524E-20
2.20070E-04 2.97643E-20
2.46720E-04 2.36684E-20
2.74892E-04 1.90546E-20
3.04586E-04 1.55114E-20
3.35803E-04 1.27539E-20
3.68542E-04 1.05822E-20
4.02802E-04 8.85323E-21
4.38585E-04 7.46290E-21
4.75889E-04 6.33481E-21
5.14715E-04 5.41171E-21
5.55063E-04 4.65061E-21
5.96931E-04 4.01850E-21
6.40321E-04 3.49008E-21
6.85233E-04 3.04558E-21
7.31665E-04 2.66953E-21
7.79618E-04 2.34967E-21
8.29092E-04 2.07622E-21
8.80086E-04 1.84134E-21
9.32601E-04 1.63869E-21
9.86636E-04 1.46311E-21
1.04219E-03 1.31037E-21
1.09927E-03 1.17701E-21
1.15786E-03 1.06015E-21
1.21797E-03 9.57408E-22
1.27961E-03 8.66774E-22
1.34276E-03 7.86596E-22
1.40743E-03 7.15449E-22
1.47362E-03 6.52143E-22
1.54133E-03 5.95668E-22
1.61056E-03 5.45155E-22
1.68131E-03 4.99868E-22
1.75357E-03 4.59172E-22
1.82735E-03 4.22520E-22
1.90265E-03 3.89441E-22
1.97947E-03 3.59524E-22
2.05780E-03 3.32415E-22
2.13765E-03 3.07803E-22
2.21902E-03 2.85419E-22
2.30190E-03 2.65024E-22
2.38630E-03 2.46411E-22
2.47222E-03 2.29396E-22
2.55965E-03 2.13818E-22
2.64859E-03 1.99534E-22
2.73905E-03 1.86417E-22
2.83103E-03 1.74355E-22
2.92452E-03 1.63249E-22
3.01952E-03 1.53008E-22
3.11604E-03 1.43553E-22
3.21407E-03 1.34814E-22
3.31362E-03 1.26726E-22
3.41468E-03 1.19231E-22
3.51725E-03 1.12280E-22
3.62133E-03 1.05825E-22
3.72692E-03 9.98237E-23
3.83403E-03 9.42395E-23
3.94265E-03 8.90378E-23
4.05278E-03 8.41878E-23
4.16442E-03 7.96612E-23
4.27757E-03 7.54327E-23
4.39223E-03 7.14790E-23
4.50840E-03 6.77791E-23
4.62608E-03 6.43138E-23
4.74527E-03 6.10654E-23
4.86597E-03 5.80179E-23
4.98817E-03 5.51567E-23
5.11188E-03 5.24682E-23
5.23711E-03 4.99402E-23
5.36383E-03 4.75613E-23
5.49207E-03 4.53212E-23
5.62181E-03 4.32103E-23
5.75306E-03 4.12197E-23
5.88581E-03 3.93414E-23
6.02007E-03 3.75678E-23
6.15583E-03 3.58921E-23
6.29310E-03 3.43079E-23
6.43187E-03 3.28093E-23
6.57214E-03 3.13908E-23
6.71392E-03 3.00473E-23
6.85720E-03 2.87742E-23
7.00198E-03 2.75671E-23
7.14827E-03 2.64219E-23
7.29605E-03 2.53349E-23
7.44534E-03 2.43026E-23
7.59612E-03 2.33218E-23
7.97965E-03 2.10753E-23
8.37255E-03 1.90899E-23
8.77480E-03 1.73301E-23
9.18641E-03 1.57660E-23
9.60736E-03 1.43723E-23
1.00376E-02 1.31271E-23
1.04773E-02 1.20121E-23
1.09262E-02 1.10113E-23
1.13844E-02 1.01110E-23
1.18520E-02 9.29945E-24
1.23288E-02 8.56641E-24
1.28150E-02 7.90301E-24
1.33104E-02 7.30149E-24
1.38150E-02 6.75511E-24
1.43290E-02 6.25796E-24
1.48521E-02 5.80485E-24
1.53845E-02 5.39121E-24
1.59262E-02 5.01302E-24
1.64770E-02 4.66673E-24
1.70371E-02 4.34919E-24
1.76063E-02 4.05760E-24
1.81848E-02 3.78949E-24
1.87724E-02 3.54265E-24
1.93692E-02 3.31510E-24
1.99751E-02 3.10507E-24
2.05901E-02 2.91100E-24
2.12143E-02 2.73145E-24
2.18476E-02 2.56517E-24
2.24900E-02 2.41101E-24
2.31415E-02 2.26792E-24
2.38021E-02 2.13499E-24
2.44717E-02 2.01137E-24
2.51504E-02 1.89630E-24
2.58382E-02 1.78909E-24
2.65349E-02 1.68910E-24
2.72407E-02 1.59578E-24
2.79555E-02 1.50860E-24
2.86793E-02 1.42709E-24
2.94120E-02 1.35083E-24
3.01537E-02 1.27941E-24
3.09043E-02 1.21247E-24
3.16639E-02 1.14970E-24
3.24324E-02 1.09079E-24
3.32098E-02 1.03545E-24
3.39961E-02 9.83444E-25
3.47912E-02 9.34531E-25
3.55952E-02 8.88498E-25
3.64081E-02 8.45148E-25
3.72297E-02 8.04298E-25
3.80602E-02 7.65780E-25
3.88995E-02 7.29440E-25
3.97476E-02 6.95134E-25
4.06044E-02 6.62731E-25
4.14700E-02 6.32106E-25
4.23443E-02 6.03148E-25
4.32273E-02 5.75750E-25
4.41190E-02 5.49814E-25
4.50194E-02 5.25251E-25
4.59284E-02 5.01976E-25
4.68461E-02 4.79911E-25
4.87074E-02 4.39122E-25
5.06030E-02 4.02359E-25
5.25328E-02 3.69166E-25
5.44967E-02 3.39145E-25
5.64946E-02 3.11948E-25
5.85262E-02 2.87271E-25
6.05914E-02 2.64845E-25
6.26901E-02 2.44436E-25
6.48222E-02 2.25835E-25
6.69873E-02 2.08861E-25
6.91854E-02 1.93350E-25
7.14163E-02 1.79158E-25
7.36799E-02 1.66157E-25
7.59760E-02 1.54233E-25
7.83043E-02 1.43286E-25
8.06647E-02 1.33223E-25
8.30571E-02 1.23963E-25
8.54812E-02 1.15434E-25
8.79369E-02 1.07570E-25
9.04240E-02 1.00313E-25
9.29422E-02 9.36084E-26
9.54915E-02 8.74098E-26
9.80716E-02 8.16738E-26
1.00682E-01 7.63613E-26
1.03323E-01 7.14370E-26
1.05995E-01 6.68690E-26
1.08696E-01 6.26282E-26
1.11427E-01 5.86882E-26
1.14188E-01 5.50251E-26
1.16978E-01 5.16170E-26
1.19797E-01 4.84441E-26
1.22645E-01 4.54880E-26
1.25522E-01 4.27323E-26
1.28428E-01 4.01618E-26
1.31361E-01 3.77625E-26
1.34323E-01 3.55218E-26
1.37313E-01 3.34279E-26
1.40330E-01 3.14701E-26
1.43375E-01 2.96387E-26
1.46447E-01 2.79245E-26
1.49545E-01 2.63192E-26
1.52671E-01 2.48152E-26
1.55823E-01 2.34053E-26
1.59001E-01 2.20831E-26
1.62205E-01 2.08426E-26
1.65435E-01 1.96781E-26
1.68690E-01 1.85845E-26
1.71970E-01 1.75571E-26
1.75276E-01 1.65915E-26
1.78606E-01 1.56836E-26
1.81961E-01 1.48296E-26
1.85340E-01 1.40260E-26
1.88743E-01 1.32695E-26
1.92169E-01 1.25571E-26
1.95619E-01 1.18861E-26
1.99092E-01 1.12537E-26
2.02589E-01 1.06576E-26
2.06107E-01 1.00955E-26
2.09649E-01 9.56524E-27
2.13212E-01 9.06492E-27
2.16797E-01 8.59268E-27
2.20404E-01 8.14682E-27
2.24032E-01 7.72574E-27
2.27680E-01 7.32795E-27
2.31350E-01 6.95205E-27
2.35040E-01 6.59674E-27
2.38751E-01 6.26080E-27
2.42481E-01 5.94310E-27
2.46231E-01 5.64258E-27
2.50000E-01 5.35822E-27
2.53788E-01 5.08909E-27
2.57595E-01 4.83433E-27
2.61421E-01 4.59310E-27
2.65264E-01 4.36463E-27
2.69126E-01 4.14821E-27
2.73005E-01 3.94315E-27
2.76901E-01 3.74881E-27
2.80814E-01 3.56460E-27
2.84744E-01 3.38995E-27
2.88691E-01 3.22433E-27
2.92653E-01 3.06725E-27
2.96632E-01 2.91824E-27
3.00625E-01 2.77685E-27
3.04634E-01 2.64267E-27
3.08658E-01 2.51531E-27
3.12697E-01 2.39440E-27
3.16749E-01 2.27960E-27
3.20816E-01 2.17058E-27
3.24896E-01 2.06703E-27
3.28990E-01 1.96866E-27
3.33097E-01 1.87520E-27
3.37216E-01 1.78638E-27
3.41348E-01 1.70197E-27
3.45492E-01 1.62173E-27
3.49647E-01 1.54545E-27
3.53814E-01 1.47292E-27
3.57992E-01 1.40394E-27
3.62181E-01 1.33834E-27
3.66381E-01 1.27593E-27
3.70590E-01 1.21657E-27
3.74810E-01 1.16008E-27
3.79039E-01 1.10632E-27
3.83277E-01 1.05516E-27
3.87524E-01 1.00647E-27
3.91780E-01 9.60110E-28
3.96044E-01 9.15974E-28
4.00316E-01 8.73949E-28
4.04596E-01 8.33928E-28
4.08882E-01 7.95812E-28
4.13176E-01 7.59505E-28
4.17476E-01 7.24918E-28
4.21783E-01 6.91967E-28
4.26095E-01 6.60570E-28
4.30413E-01 6.30650E-28
4.34737E-01 6.02136E-28
4.39065E-01 5.74958E-28
4.43398E-01 5.49052E-28
4.47736E-01 5.24355E-28
4.52077E-01 5.00808E-28
4.56422E-01 4.78357E-28
4.60770E-01 4.56947E-28
4.65122E-01 4.36528E-28
4.69476E-01 4.17054E-28
4.73832E-01 3.98478E-28
4.78190E-01 3.80758E-28
4.82550E-01 3.63852E-28
4.86912E-01 3.47722E-28
4.91274E-01 3.32330E-28
4.95637E-01 3.17643E-28
5.00000E-01 3.03625E-28
5.04363E-01 2.90247E-28
5.08726E-01 2.77476E-28
5.13088E-01 2.65286E-28
5.17450E-01 2.53648E-28
5.21810E-01 2.42536E-28
5.26168E-01 2.31927E-28
5.30524E-01 2.21796E-28
5.34878E-01 2.12121E-28
5.39230E-01 2.02881E-28
5.43578E-01 1.94056E-28
5.47923E-01 1.85626E-28
5.52264E-01 1.77573E-28
5.56602E-01 1.69880E-28
5.60935E-01 1.62530E-28
5.65263E-01 1.55508E-28
5.69587E-01 1.48797E-28
5.73905E-01 1.42385E-28
5.78217E-01 1.36256E-28
5.82524E-01 1.30399E-28
5.86824E-01 1.24801E-28
5.91118E-01 1.19450E-28
5.95404E-01 1.14334E-28
5.99684E-01 1.09444E-28
6.03956E-01 1.04768E-28
6.08220E-01 1.00298E-28
6.12476E-01 9.60233E-29
6.16723E-01 9.19356E-29
6.20961E-01 8.80265E-29
6.25190E-01 8.42879E-29
6.29410E-01 8.07121E-29
6.33619E-01 7.72919E-29
6.37819E-01 7.40202E-29
6.42008E-01 7.08905E-29
6.46186E-01 6.78963E-29
6.50353E-01 6.50316E-29
6.54508E-01 6.22906E-29
6.58652E-01 5.96679E-29
6.62784E-01 5.71582E-29
6.66903E-01 5.47564E-29
6.71010E-01 5.24578E-29
6.75104E-01 5.02578E-29
6.79184E-01 4.81521E-29
6.83251E-01 4.61365E-29
6.87303E-01 4.42070E-29
6.91342E-01 4.23599E-29
6.95366E-01 4.05914E-29
6.99375E-01 3.88983E-29
7.03368E-01 3.72771E-29
7.07347E-01 3.57247E-29
7.11309E-01 3.42382E-29
7.15256E-01 3.28146E-29
7.19186E-01 3.14512E-29
7.23099E-01 3.01454E-29
7.26995E-01 2.88946E-29
7.30874E-01 2.76965E-29
7.34736E-01 2.65489E-29
7.38579E-01 2.54494E-29
7.42405E-01 2.43961E-29
7.46212E-01 2.33869E-29
7.50000E-01 2.24200E-29
7.53769E-01 2.14935E-29
7.57519E-01 2.06056E-29
7.61249E-01 1.97548E-29
7.64960E-01 1.89395E-29
7.68650E-01 1.81580E-29
7.72320E-01 1.74090E-29
7.75968E-01 1.66911E-29
7.79596E-01 1.60029E-29
7.83203E-01 1.53432E-29
7.86788E-01 1.47108E-29
7.90351E-01 1.41045E-29
7.93893E-01 1.35231E-29
7.97411E-01 1.29658E-29
8.00908E-01 1.24313E-29
8.04381E-01 1.19188E-29
8.07831E-01 1.14274E-29
8.11257E-01 1.09561E-29
8.14660E-01 1.05041E-29
8.18039E-01 1.00706E-29
8.21394E-01 9.65474E-30
8.24724E-01 9.25588E-30
8.28030E-01 8.87328E-30
8.31310E-01 8.50626E-30
8.34565E-01 8.15415E-30
8.37795E-01 7.81635E-30
8.40999E-01 7.49225E-30
8.44177E-01 7.18128E-30
8.47329E-01 6.88290E-30
8.50455E-01 6.59659E-30
8.53553E-01 6.32184E-30
8.56625E-01 6.05817E-30
8.59670E-01 5.80514E-30
8.62687E-01 5.56229E-30
8.65677E-01 5.32921E-30
8.68639E-01 5.10549E-30
8.71572E-01 4.89076E-30
8.74478E-01 4.68464E-30
8.77355E-01 4.48678E-30
8.80203E-01 4.29684E-30
8.83022E-01 4.11449E-30
8.85812E-01 3.93944E-30
8.88573E-01 3.77137E-30
8.91304E-01 3.61001E-30
8.94005E-01 3.45508E-30
8.96677E-01 3.30633E-30
8.99318E-01 3.16350E-30
9.01928E-01 3.02635E-30
9.04508E-01 2.89465E-30
9.07058E-01 2.76819E-30
9.09576E-01 2.64675E-30
9.12063E-01 2.53014E-30
9.14519E-01 2.41815E-30
9.16943E-01 2.31060E-30
9.19335E-01 2.20732E-30
9.21696E-01 2.10814E-30
9.24024E-01 2.01289E-30
9.26320E-01 1.92142E-30
9.28584E-01 1.83357E-30
9.30815E-01 1.74921E-30
9.33013E-01 1.66820E-30
9.35178E-01 1.59040E-30
9.37310E-01 1.51569E-30
9.39409E-01 1.44395E-30
9.41474E-01 1.37507E-30
9.43505E-01 1.30892E-30
9.45503E-01 1.24542E-30
9.47467E-01 1.18444E-30
9.49397E-01 1.12591E-30
9.51293E-01 1.06971E-30
9.53154E-01 1.01578E-30
9.54981E-01 9.64006E-31
9.56773E-01 9.14323E-31
9.58530E-01 8.66647E-31
9.60252E-01 8.20904E-31
9.61940E-01 7.77021E-31
9.63592E-01 7.34930E-31
9.65209E-01 6.94563E-31
9.66790E-01 6.55859E-31
9.68336E-01 6.18757E-31
9.69846E-01 5.83197E-31
9.71321E-01 5.49127E-31
9.72759E-01 5.16491E-31
9.74162E-01 4.85240E-31
9.75528E-01 4.55325E-31
9.76858E-01 4.26699E-31
9.78152E-01 3.99320E-31
9.79410E-01 3.73144E-31
9.80631E-01 3.48131E-31
9.81815E-01 3.24242E-31
9.82963E-01 3.01442E-31
9.84074E-01 2.79695E-31
9.85148E-01 2.58967E-31
9.86185E-01 2.39228E-31
9.87185E-01 2.20447E-31
9.88148E-01 2.02595E-31
9.89074E-01 1.85645E-31
9.89962E-01 1.69572E-31
9.90814E-01 1.54352E-31
9.91627E-01 1.39960E-31
9.92404E-01 1.26375E-31
9.93143E-01 1.13578E-31
9.93844E-01 1.01548E-31
9.94508E-01 9.02665E-32
9.95134E-01 7.97178E-32
9.95722E-01 6.98854E-32
9.96273E-01 6.07547E-32
9.96786E-01 5.23118E-32
9.97261E-01 4.45440E-32
9.97698E-01 3.74398E-32
9.98097E-01 3.09884E-32
9.98459E-01 2.51803E-32
9.98782E-01 2.00066E-32
9.99067E-01 1.54596E-32
9.99315E-01 1.15325E-32
9.99524E-01 8.21961E-33
9.99695E-01 5.51569E-33
9.99829E-01 3.41682E-33
9.99924E-01 1.91990E-33
9.99981E-01 1.02263E-33
1.00000E+00 7.23627E-34
