 #
 # Subroutine ELSEPA. Elastic scattering of electrons and positrons
 #                    by neutral atoms and positive ions
 #
 # Projectile: positron
 # Kinetic energy = 3.00000E+06 eV = 1.10248E+05 a.u.
 #
 # WARNING: High-energy factorization with free-atom DF screening.
 #          Absorption, polarization and exchange corrections are
 #          switched off.
 #          Phase shifts are calculated for the bare nucleus.
 #          Scattering amplitudes are not evaluated.
 #
 # Element: Cd,  Z =  48,  atomic weight = 1.12411E+02 g/mol
 #
 # Nuclear model: Fermi distribution
 #                Average radius = 5.16401E-13 cm
 #                Skin thickness = 5.46000E-14 cm
 #
 # Number of electrons = 48
 #
 # Total elastic cross section = 4.58632E-18 cm**2 = 1.63780E-01 a0**2
 # 1st transport cross section = 2.30715E-22 cm**2 = 8.23900E-06 a0**2
 # 2nd transport cross section = 6.61050E-22 cm**2 = 2.36065E-05 a0**2
 #
 #
 # Differential cross section:                       MU=(1-COS(THETA))/2
 #
 #  THETA        MU          DCS          DCS        Sherman      error
 #  (deg)                 (cm**2/sr)   (a0**2/sr)    function
 #----------------------------------------------------------------------
0.00000E+00 3.89479E-13
7.61557E-13 3.89478E-13
1.18994E-12 3.89477E-13
1.71346E-12 3.89476E-13
2.33225E-12 3.89475E-13
3.04617E-12 3.89474E-13
3.85530E-12 3.89473E-13
4.75964E-12 3.89472E-13
5.75917E-12 3.89470E-13
6.85391E-12 3.89469E-13
8.04379E-12 3.89467E-13
9.32893E-12 3.89465E-13
1.07092E-11 3.89463E-13
1.21847E-11 3.89461E-13
1.37554E-11 3.89459E-13
1.54213E-11 3.89456E-13
1.71823E-11 3.89454E-13
1.90386E-11 3.89451E-13
2.09900E-11 3.89449E-13
2.30367E-11 3.89446E-13
2.51785E-11 3.89443E-13
2.74156E-11 3.89440E-13
2.97478E-11 3.89436E-13
3.21752E-11 3.89433E-13
3.46979E-11 3.89429E-13
3.73157E-11 3.89426E-13
4.00286E-11 3.89422E-13
4.28368E-11 3.89418E-13
4.57402E-11 3.89414E-13
4.87388E-11 3.89410E-13
5.18325E-11 3.89406E-13
5.50215E-11 3.89401E-13
5.83057E-11 3.89397E-13
6.16850E-11 3.89392E-13
6.51595E-11 3.89387E-13
6.87293E-11 3.89383E-13
7.23943E-11 3.89377E-13
7.61544E-11 3.89372E-13
1.18991E-10 3.89314E-13
1.71347E-10 3.89242E-13
2.33223E-10 3.89158E-13
3.04617E-10 3.89060E-13
3.85531E-10 3.88951E-13
4.75965E-10 3.88828E-13
5.75917E-10 3.88693E-13
6.85389E-10 3.88545E-13
8.04380E-10 3.88384E-13
9.32891E-10 3.88210E-13
1.07092E-09 3.88024E-13
1.21847E-09 3.87826E-13
1.37554E-09 3.87615E-13
1.54213E-09 3.87391E-13
1.71823E-09 3.87155E-13
1.90386E-09 3.86907E-13
2.09900E-09 3.86646E-13
2.30367E-09 3.86372E-13
2.51785E-09 3.86087E-13
2.74156E-09 3.85789E-13
2.97478E-09 3.85479E-13
3.21752E-09 3.85157E-13
3.46978E-09 3.84823E-13
3.73156E-09 3.84477E-13
4.00286E-09 3.84118E-13
4.28368E-09 3.83749E-13
4.57402E-09 3.83367E-13
4.87388E-09 3.82973E-13
5.18326E-09 3.82567E-13
5.50215E-09 3.82150E-13
5.83057E-09 3.81722E-13
6.16850E-09 3.81282E-13
6.51596E-09 3.80830E-13
6.87293E-09 3.80367E-13
7.23942E-09 3.79893E-13
7.61544E-09 3.79408E-13
1.18991E-08 3.73957E-13
1.71347E-08 3.67486E-13
2.33223E-08 3.60061E-13
3.04617E-08 3.51886E-13
3.85531E-08 3.42966E-13
4.75965E-08 3.33492E-13
5.75917E-08 3.23613E-13
6.85389E-08 3.13298E-13
8.04380E-08 3.02816E-13
9.32891E-08 2.92202E-13
1.07092E-07 2.81491E-13
1.21847E-07 2.70894E-13
1.37554E-07 2.60347E-13
1.54213E-07 2.49972E-13
1.71823E-07 2.39886E-13
1.90386E-07 2.29950E-13
2.09900E-07 2.20360E-13
2.30367E-07 2.11111E-13
2.51785E-07 2.02117E-13
2.74156E-07 1.93524E-13
2.97478E-07 1.85258E-13
3.21752E-07 1.77314E-13
3.46978E-07 1.69766E-13
3.73156E-07 1.62502E-13
4.00286E-07 1.55583E-13
4.28368E-07 1.49025E-13
4.57402E-07 1.42704E-13
4.87388E-07 1.36722E-13
5.18325E-07 1.31031E-13
5.50215E-07 1.25578E-13
5.83057E-07 1.20420E-13
6.16850E-07 1.15488E-13
6.51596E-07 1.10786E-13
6.87293E-07 1.06337E-13
7.23942E-07 1.02058E-13
7.61543E-07 9.79973E-14
1.18991E-06 6.62724E-14
1.71347E-06 4.58366E-14
2.33223E-06 3.17507E-14
3.04617E-06 2.29742E-14
3.85531E-06 1.65655E-14
4.75964E-06 1.22397E-14
5.75916E-06 9.21382E-15
6.85388E-06 7.00419E-15
8.04378E-06 5.43976E-15
9.32888E-06 4.28989E-15
1.07092E-05 3.43322E-15
1.21846E-05 2.79079E-15
1.37553E-05 2.29594E-15
1.54212E-05 1.91103E-15
1.71822E-05 1.60847E-15
1.90385E-05 1.36350E-15
2.09899E-05 1.16637E-15
2.30365E-05 1.00483E-15
2.51783E-05 8.69509E-16
2.74153E-05 7.56950E-16
2.97475E-05 6.61668E-16
3.21749E-05 5.80491E-16
3.46974E-05 5.11627E-16
3.73152E-05 4.52042E-16
4.00281E-05 4.00792E-16
4.28362E-05 3.56615E-16
4.57395E-05 3.17866E-16
4.87380E-05 2.84215E-16
5.18317E-05 2.54707E-16
5.50205E-05 2.28732E-16
5.83045E-05 2.05989E-16
6.16838E-05 1.85903E-16
6.51582E-05 1.68167E-16
6.87277E-05 1.52509E-16
7.23925E-05 1.38565E-16
7.61524E-05 1.26182E-16
9.21439E-05 8.84781E-17
1.09658E-04 6.38358E-17
1.28695E-04 4.72570E-17
1.49255E-04 3.57685E-17
1.71338E-04 2.75965E-17
1.94942E-04 2.16362E-17
2.20070E-04 1.72114E-17
2.46720E-04 1.38662E-17
2.74892E-04 1.13023E-17
3.04586E-04 9.29558E-18
3.35803E-04 7.71716E-18
3.68542E-04 6.45973E-18
4.02802E-04 5.44429E-18
4.38585E-04 4.62128E-18
4.75889E-04 3.94664E-18
5.14715E-04 3.38963E-18
5.55063E-04 2.92756E-18
5.96931E-04 2.54050E-18
6.40321E-04 2.21517E-18
6.85233E-04 1.94024E-18
7.31665E-04 1.70605E-18
7.79618E-04 1.50619E-18
8.29092E-04 1.33464E-18
8.80086E-04 1.18664E-18
9.32601E-04 1.05861E-18
9.86636E-04 9.47288E-19
1.04219E-03 8.50180E-19
1.09927E-03 7.65207E-19
1.15786E-03 6.90517E-19
1.21797E-03 6.24721E-19
1.27961E-03 5.66577E-19
1.34276E-03 5.15004E-19
1.40743E-03 4.69173E-19
1.47362E-03 4.28320E-19
1.54133E-03 3.91804E-19
1.61056E-03 3.59102E-19
1.68131E-03 3.29729E-19
1.75357E-03 3.03296E-19
1.82735E-03 2.79462E-19
1.90265E-03 2.57911E-19
1.97947E-03 2.38399E-19
2.05780E-03 2.20697E-19
2.13765E-03 2.04601E-19
2.21902E-03 1.89947E-19
2.30190E-03 1.76578E-19
2.38630E-03 1.64362E-19
2.47222E-03 1.53184E-19
2.55965E-03 1.42937E-19
2.64859E-03 1.33531E-19
2.73905E-03 1.24886E-19
2.83103E-03 1.16925E-19
2.92452E-03 1.09589E-19
3.01952E-03 1.02817E-19
3.11604E-03 9.65585E-20
3.21407E-03 9.07686E-20
3.31362E-03 8.54043E-20
3.41468E-03 8.04293E-20
3.51725E-03 7.58110E-20
3.62133E-03 7.15174E-20
3.72692E-03 6.75229E-20
3.83403E-03 6.38028E-20
3.94265E-03 6.03339E-20
4.05278E-03 5.70971E-20
4.16442E-03 5.40736E-20
4.27757E-03 5.12467E-20
4.39223E-03 4.86017E-20
4.50840E-03 4.61242E-20
4.62608E-03 4.38020E-20
4.74527E-03 4.16237E-20
4.86597E-03 3.95782E-20
4.98817E-03 3.76565E-20
5.11188E-03 3.58495E-20
5.23711E-03 3.41490E-20
5.36383E-03 3.25478E-20
5.49207E-03 3.10388E-20
5.62181E-03 2.96158E-20
5.75306E-03 2.82732E-20
5.88581E-03 2.70053E-20
6.02007E-03 2.58073E-20
6.15583E-03 2.46748E-20
6.29310E-03 2.36033E-20
6.43187E-03 2.25891E-20
6.57214E-03 2.16285E-20
6.71392E-03 2.07181E-20
6.85720E-03 1.98549E-20
7.00198E-03 1.90359E-20
7.14827E-03 1.82584E-20
7.29605E-03 1.75201E-20
7.44534E-03 1.68184E-20
7.59612E-03 1.61514E-20
7.97965E-03 1.46220E-20
8.37255E-03 1.32685E-20
8.77480E-03 1.20672E-20
9.18641E-03 1.09980E-20
9.60736E-03 1.00439E-20
1.00376E-02 9.19052E-21
1.04773E-02 8.42529E-21
1.09262E-02 7.73759E-21
1.13844E-02 7.11818E-21
1.18520E-02 6.55915E-21
1.23288E-02 6.05356E-21
1.28150E-02 5.59545E-21
1.33104E-02 5.17956E-21
1.38150E-02 4.80134E-21
1.43290E-02 4.45679E-21
1.48521E-02 4.14237E-21
1.53845E-02 3.85500E-21
1.59262E-02 3.59194E-21
1.64770E-02 3.35078E-21
1.70371E-02 3.12937E-21
1.76063E-02 2.92581E-21
1.81848E-02 2.73841E-21
1.87724E-02 2.56565E-21
1.93692E-02 2.40620E-21
1.99751E-02 2.25886E-21
2.05901E-02 2.12252E-21
2.12143E-02 1.99624E-21
2.18476E-02 1.87913E-21
2.24900E-02 1.77041E-21
2.31415E-02 1.66938E-21
2.38021E-02 1.57539E-21
2.44717E-02 1.48787E-21
2.51504E-02 1.40629E-21
2.58382E-02 1.33017E-21
2.65349E-02 1.25909E-21
2.72407E-02 1.19265E-21
2.79555E-02 1.13050E-21
2.86793E-02 1.07230E-21
2.94120E-02 1.01777E-21
3.01537E-02 9.66630E-22
3.09043E-02 9.18631E-22
3.16639E-02 8.73544E-22
3.24324E-02 8.31164E-22
3.32098E-02 7.91298E-22
3.39961E-02 7.53769E-22
3.47912E-02 7.18417E-22
3.55952E-02 6.85093E-22
3.64081E-02 6.53659E-22
3.72297E-02 6.23989E-22
3.80602E-02 5.95965E-22
3.88995E-02 5.69481E-22
3.97476E-02 5.44436E-22
4.06044E-02 5.20738E-22
4.14700E-02 4.98302E-22
4.23443E-02 4.77048E-22
4.32273E-02 4.56902E-22
4.41190E-02 4.37797E-22
4.50194E-02 4.19669E-22
4.59284E-02 4.02459E-22
4.68461E-02 3.86112E-22
4.87074E-02 3.55806E-22
5.06030E-02 3.28384E-22
5.25328E-02 3.03523E-22
5.44967E-02 2.80944E-22
5.64946E-02 2.60401E-22
5.85262E-02 2.41680E-22
6.05914E-02 2.24590E-22
6.26901E-02 2.08966E-22
6.48222E-02 1.94660E-22
6.69873E-02 1.81542E-22
6.91854E-02 1.69496E-22
7.14163E-02 1.58420E-22
7.36799E-02 1.48221E-22
7.59760E-02 1.38818E-22
7.83043E-02 1.30139E-22
8.06647E-02 1.22118E-22
8.30571E-02 1.14697E-22
8.54812E-02 1.07822E-22
8.79369E-02 1.01448E-22
9.04240E-02 9.55296E-23
9.29422E-02 9.00302E-23
9.54915E-02 8.49147E-23
9.80716E-02 8.01514E-23
1.00682E-01 7.57121E-23
1.03323E-01 7.15707E-23
1.05995E-01 6.77039E-23
1.08696E-01 6.40902E-23
1.11427E-01 6.07102E-23
1.14188E-01 5.75461E-23
1.16978E-01 5.45817E-23
1.19797E-01 5.18022E-23
1.22645E-01 4.91941E-23
1.25522E-01 4.67449E-23
1.28428E-01 4.44433E-23
1.31361E-01 4.22789E-23
1.34323E-01 4.02419E-23
1.37313E-01 3.83237E-23
1.40330E-01 3.65161E-23
1.43375E-01 3.48115E-23
1.46447E-01 3.32032E-23
1.49545E-01 3.16846E-23
1.52671E-01 3.02499E-23
1.55823E-01 2.88937E-23
1.59001E-01 2.76109E-23
1.62205E-01 2.63968E-23
1.65435E-01 2.52472E-23
1.68690E-01 2.41580E-23
1.71970E-01 2.31254E-23
1.75276E-01 2.21461E-23
1.78606E-01 2.12168E-23
1.81961E-01 2.03344E-23
1.85340E-01 1.94963E-23
1.88743E-01 1.86997E-23
1.92169E-01 1.79423E-23
1.95619E-01 1.72219E-23
1.99092E-01 1.65362E-23
2.02589E-01 1.58833E-23
2.06107E-01 1.52615E-23
2.09649E-01 1.46688E-23
2.13212E-01 1.41038E-23
2.16797E-01 1.35650E-23
2.20404E-01 1.30508E-23
2.24032E-01 1.25600E-23
2.27680E-01 1.20914E-23
2.31350E-01 1.16437E-23
2.35040E-01 1.12158E-23
2.38751E-01 1.08068E-23
2.42481E-01 1.04156E-23
2.46231E-01 1.00413E-23
2.50000E-01 9.68315E-24
2.53788E-01 9.34023E-24
2.57595E-01 9.01182E-24
2.61421E-01 8.69719E-24
2.65264E-01 8.39566E-24
2.69126E-01 8.10659E-24
2.73005E-01 7.82938E-24
2.76901E-01 7.56346E-24
2.80814E-01 7.30827E-24
2.84744E-01 7.06333E-24
2.88691E-01 6.82814E-24
2.92653E-01 6.60225E-24
2.96632E-01 6.38523E-24
3.00625E-01 6.17667E-24
3.04634E-01 5.97619E-24
3.08658E-01 5.78342E-24
3.12697E-01 5.59801E-24
3.16749E-01 5.41963E-24
3.20816E-01 5.24797E-24
3.24896E-01 5.08273E-24
3.28990E-01 4.92363E-24
3.33097E-01 4.77039E-24
3.37216E-01 4.62278E-24
3.41348E-01 4.48055E-24
3.45492E-01 4.34346E-24
3.49647E-01 4.21131E-24
3.53814E-01 4.08388E-24
3.57992E-01 3.96097E-24
3.62181E-01 3.84240E-24
3.66381E-01 3.72799E-24
3.70590E-01 3.61757E-24
3.74810E-01 3.51097E-24
3.79039E-01 3.40804E-24
3.83277E-01 3.30864E-24
3.87524E-01 3.21261E-24
3.91780E-01 3.11983E-24
3.96044E-01 3.03016E-24
4.00316E-01 2.94349E-24
4.04596E-01 2.85970E-24
4.08882E-01 2.77868E-24
4.13176E-01 2.70032E-24
4.17476E-01 2.62452E-24
4.21783E-01 2.55118E-24
4.26095E-01 2.48021E-24
4.30413E-01 2.41151E-24
4.34737E-01 2.34501E-24
4.39065E-01 2.28062E-24
4.43398E-01 2.21826E-24
4.47736E-01 2.15786E-24
4.52077E-01 2.09934E-24
4.56422E-01 2.04265E-24
4.60770E-01 1.98770E-24
4.65122E-01 1.93444E-24
4.69476E-01 1.88282E-24
4.73832E-01 1.83276E-24
4.78190E-01 1.78422E-24
4.82550E-01 1.73714E-24
4.86912E-01 1.69147E-24
4.91274E-01 1.64716E-24
4.95637E-01 1.60417E-24
5.00000E-01 1.56244E-24
5.04363E-01 1.52194E-24
5.08726E-01 1.48262E-24
5.13088E-01 1.44444E-24
5.17450E-01 1.40737E-24
5.21810E-01 1.37136E-24
5.26168E-01 1.33639E-24
5.30524E-01 1.30242E-24
5.34878E-01 1.26941E-24
5.39230E-01 1.23733E-24
5.43578E-01 1.20616E-24
5.47923E-01 1.17585E-24
5.52264E-01 1.14640E-24
5.56602E-01 1.11776E-24
5.60935E-01 1.08991E-24
5.65263E-01 1.06282E-24
5.69587E-01 1.03648E-24
5.73905E-01 1.01085E-24
5.78217E-01 9.85924E-25
5.82524E-01 9.61668E-25
5.86824E-01 9.38064E-25
5.91118E-01 9.15093E-25
5.95404E-01 8.92735E-25
5.99684E-01 8.70971E-25
6.03956E-01 8.49783E-25
6.08220E-01 8.29153E-25
6.12476E-01 8.09065E-25
6.16723E-01 7.89501E-25
6.20961E-01 7.70447E-25
6.25190E-01 7.51886E-25
6.29410E-01 7.33805E-25
6.33619E-01 7.16188E-25
6.37819E-01 6.99023E-25
6.42008E-01 6.82296E-25
6.46186E-01 6.65994E-25
6.50353E-01 6.50106E-25
6.54508E-01 6.34618E-25
6.58652E-01 6.19521E-25
6.62784E-01 6.04801E-25
6.66903E-01 5.90450E-25
6.71010E-01 5.76455E-25
6.75104E-01 5.62807E-25
6.79184E-01 5.49497E-25
6.83251E-01 5.36515E-25
6.87303E-01 5.23851E-25
6.91342E-01 5.11496E-25
6.95366E-01 4.99443E-25
6.99375E-01 4.87682E-25
7.03368E-01 4.76206E-25
7.07347E-01 4.65007E-25
7.11309E-01 4.54078E-25
7.15256E-01 4.43411E-25
7.19186E-01 4.32999E-25
7.23099E-01 4.22835E-25
7.26995E-01 4.12913E-25
7.30874E-01 4.03226E-25
7.34736E-01 3.93769E-25
7.38579E-01 3.84534E-25
7.42405E-01 3.75517E-25
7.46212E-01 3.66711E-25
7.50000E-01 3.58111E-25
7.53769E-01 3.49712E-25
7.57519E-01 3.41508E-25
7.61249E-01 3.33494E-25
7.64960E-01 3.25666E-25
7.68650E-01 3.18019E-25
7.72320E-01 3.10548E-25
7.75968E-01 3.03248E-25
7.79596E-01 2.96116E-25
7.83203E-01 2.89147E-25
7.86788E-01 2.82338E-25
7.90351E-01 2.75684E-25
7.93893E-01 2.69181E-25
7.97411E-01 2.62826E-25
8.00908E-01 2.56615E-25
8.04381E-01 2.50545E-25
8.07831E-01 2.44613E-25
8.11257E-01 2.38814E-25
8.14660E-01 2.33146E-25
8.18039E-01 2.27606E-25
8.21394E-01 2.22190E-25
8.24724E-01 2.16895E-25
8.28030E-01 2.11720E-25
8.31310E-01 2.06660E-25
8.34565E-01 2.01714E-25
8.37795E-01 1.96878E-25
8.40999E-01 1.92151E-25
8.44177E-01 1.87528E-25
8.47329E-01 1.83009E-25
8.50455E-01 1.78591E-25
8.53553E-01 1.74271E-25
8.56625E-01 1.70048E-25
8.59670E-01 1.65919E-25
8.62687E-01 1.61883E-25
8.65677E-01 1.57936E-25
8.68639E-01 1.54078E-25
8.71572E-01 1.50306E-25
8.74478E-01 1.46619E-25
8.77355E-01 1.43014E-25
8.80203E-01 1.39489E-25
8.83022E-01 1.36044E-25
8.85812E-01 1.32676E-25
8.88573E-01 1.29384E-25
8.91304E-01 1.26166E-25
8.94005E-01 1.23020E-25
8.96677E-01 1.19945E-25
8.99318E-01 1.16941E-25
9.01928E-01 1.14004E-25
9.04508E-01 1.11134E-25
9.07058E-01 1.08330E-25
9.09576E-01 1.05590E-25
9.12063E-01 1.02913E-25
9.14519E-01 1.00297E-25
9.16943E-01 9.77427E-26
9.19335E-01 9.52472E-26
9.21696E-01 9.28101E-26
9.24024E-01 9.04300E-26
9.26320E-01 8.81060E-26
9.28584E-01 8.58371E-26
9.30815E-01 8.36221E-26
9.33013E-01 8.14602E-26
9.35178E-01 7.93503E-26
9.37310E-01 7.72915E-26
9.39409E-01 7.52830E-26
9.41474E-01 7.33238E-26
9.43505E-01 7.14131E-26
9.45503E-01 6.95501E-26
9.47467E-01 6.77339E-26
9.49397E-01 6.59637E-26
9.51293E-01 6.42389E-26
9.53154E-01 6.25586E-26
9.54981E-01 6.09222E-26
9.56773E-01 5.93290E-26
9.58530E-01 5.77782E-26
9.60252E-01 5.62692E-26
9.61940E-01 5.48014E-26
9.63592E-01 5.33742E-26
9.65209E-01 5.19870E-26
9.66790E-01 5.06392E-26
9.68336E-01 4.93302E-26
9.69846E-01 4.80595E-26
9.71321E-01 4.68265E-26
9.72759E-01 4.56308E-26
9.74162E-01 4.44719E-26
9.75528E-01 4.33493E-26
9.76858E-01 4.22625E-26
9.78152E-01 4.12111E-26
9.79410E-01 4.01946E-26
9.80631E-01 3.92127E-26
9.81815E-01 3.82650E-26
9.82963E-01 3.73510E-26
9.84074E-01 3.64704E-26
9.85148E-01 3.56229E-26
9.86185E-01 3.48081E-26
9.87185E-01 3.40256E-26
9.88148E-01 3.32752E-26
9.89074E-01 3.25566E-26
9.89962E-01 3.18694E-26
9.90814E-01 3.12134E-26
9.91627E-01 3.05884E-26
9.92404E-01 2.99941E-26
9.93143E-01 2.94302E-26
9.93844E-01 2.88966E-26
9.94508E-01 2.83930E-26
9.95134E-01 2.79192E-26
9.95722E-01 2.74751E-26
9.96273E-01 2.70604E-26
9.96786E-01 2.66750E-26
9.97261E-01 2.63188E-26
9.97698E-01 2.59916E-26
9.98097E-01 2.56933E-26
9.98459E-01 2.54237E-26
9.98782E-01 2.51828E-26
9.99067E-01 2.49704E-26
9.99315E-01 2.47866E-26
9.99524E-01 2.46311E-26
9.99695E-01 2.45040E-26
9.99829E-01 2.44052E-26
9.99924E-01 2.43346E-26
9.99981E-01 2.42923E-26
1.00000E+00 2.42782E-26
