 #
 # Subroutine ELSEPA. Elastic scattering of electrons and positrons
 #                    by neutral atoms and positive ions
 #
 # Projectile: positron
 # Kinetic energy = 1.75000E+07 eV = 6.43113E+05 a.u.
 #
 # WARNING: High-energy factorization with free-atom DF screening.
 #          Absorption, polarization and exchange corrections are
 #          switched off.
 #          Phase shifts are calculated for the bare nucleus.
 #          Scattering amplitudes are not evaluated.
 #
 # Element: Cd,  Z =  48,  atomic weight = 1.12411E+02 g/mol
 #
 # Nuclear model: Fermi distribution
 #                Average radius = 5.16401E-13 cm
 #                Skin thickness = 5.46000E-14 cm
 #
 # Number of electrons = 48
 #
 # Total elastic cross section = 4.49918E-18 cm**2 = 1.60669E-01 a0**2
 # 1st transport cross section = 1.13835E-23 cm**2 = 4.06511E-07 a0**2
 # 2nd transport cross section = 3.30879E-23 cm**2 = 1.18159E-06 a0**2
 #
 #
 # Differential cross section:                       MU=(1-COS(THETA))/2
 #
 #  THETA        MU          DCS          DCS        Sherman      error
 #  (deg)                 (cm**2/sr)   (a0**2/sr)    function
 #----------------------------------------------------------------------
0.00000E+00 1.02494E-11
7.61557E-13 1.02486E-11
1.18994E-12 1.02482E-11
1.71346E-12 1.02477E-11
2.33225E-12 1.02471E-11
3.04617E-12 1.02464E-11
3.85530E-12 1.02457E-11
4.75964E-12 1.02448E-11
5.75917E-12 1.02438E-11
6.85391E-12 1.02428E-11
8.04379E-12 1.02416E-11
9.32893E-12 1.02404E-11
1.07092E-11 1.02391E-11
1.21847E-11 1.02377E-11
1.37554E-11 1.02362E-11
1.54213E-11 1.02346E-11
1.71823E-11 1.02329E-11
1.90386E-11 1.02311E-11
2.09900E-11 1.02293E-11
2.30367E-11 1.02273E-11
2.51785E-11 1.02253E-11
2.74156E-11 1.02232E-11
2.97478E-11 1.02209E-11
3.21752E-11 1.02186E-11
3.46979E-11 1.02162E-11
3.73157E-11 1.02137E-11
4.00286E-11 1.02112E-11
4.28368E-11 1.02085E-11
4.57402E-11 1.02057E-11
4.87388E-11 1.02029E-11
5.18325E-11 1.02000E-11
5.50215E-11 1.01969E-11
5.83057E-11 1.01938E-11
6.16850E-11 1.01906E-11
6.51595E-11 1.01874E-11
6.87293E-11 1.01840E-11
7.23943E-11 1.01805E-11
7.61544E-11 1.01770E-11
1.18991E-10 1.01367E-11
1.71347E-10 1.00879E-11
2.33223E-10 1.00308E-11
3.04617E-10 9.96568E-12
3.85531E-10 9.89274E-12
4.75965E-10 9.81237E-12
5.75917E-10 9.72489E-12
6.85389E-10 9.63068E-12
8.04380E-10 9.52944E-12
9.32891E-10 9.42276E-12
1.07092E-09 9.31141E-12
1.21847E-09 9.19373E-12
1.37554E-09 9.07170E-12
1.54213E-09 8.94655E-12
1.71823E-09 8.81623E-12
1.90386E-09 8.68275E-12
2.09900E-09 8.54765E-12
2.30367E-09 8.40862E-12
2.51785E-09 8.26750E-12
2.74156E-09 8.12612E-12
2.97478E-09 7.98207E-12
3.21752E-09 7.83684E-12
3.46978E-09 7.69252E-12
3.73156E-09 7.54671E-12
4.00286E-09 7.40045E-12
4.28368E-09 7.25606E-12
4.57402E-09 7.11126E-12
4.87388E-09 6.96656E-12
5.18326E-09 6.82445E-12
5.50215E-09 6.68286E-12
5.83057E-09 6.54177E-12
6.16850E-09 6.40380E-12
6.51596E-09 6.26709E-12
6.87293E-09 6.13115E-12
7.23942E-09 5.99866E-12
7.61544E-09 5.86803E-12
1.18991E-08 4.68512E-12
1.71347E-08 3.74116E-12
2.33223E-08 3.00568E-12
3.04617E-08 2.43269E-12
3.85531E-08 1.98397E-12
4.75965E-08 1.62897E-12
5.75917E-08 1.34500E-12
6.85389E-08 1.11578E-12
8.04380E-08 9.18302E-13
9.32891E-08 7.66619E-13
1.07092E-07 6.50970E-13
1.21847E-07 5.47084E-13
1.37554E-07 4.62500E-13
1.54213E-07 3.95999E-13
1.71823E-07 3.37842E-13
1.90386E-07 2.89497E-13
2.09900E-07 2.50479E-13
2.30367E-07 2.16848E-13
2.51785E-07 1.88474E-13
2.74156E-07 1.65050E-13
2.97478E-07 1.44920E-13
3.21752E-07 1.27724E-13
3.46978E-07 1.13248E-13
3.73156E-07 1.00743E-13
4.00286E-07 8.99299E-14
4.28368E-07 8.06738E-14
4.57402E-07 7.25991E-14
4.87388E-07 6.55283E-14
5.18325E-07 5.93894E-14
5.50215E-07 5.39726E-14
5.83057E-07 4.91666E-14
6.16850E-07 4.49443E-14
6.51596E-07 4.11777E-14
6.87293E-07 3.77921E-14
7.23942E-07 3.47879E-14
7.61543E-07 3.20828E-14
1.18991E-06 1.54976E-14
1.71347E-06 8.30598E-15
2.33223E-06 4.77868E-15
3.04617E-06 2.92133E-15
3.85531E-06 1.88166E-15
4.75964E-06 1.26741E-15
5.75916E-06 8.86479E-16
6.85388E-06 6.39383E-16
8.04378E-06 4.72929E-16
9.32888E-06 3.57630E-16
1.07092E-05 2.75488E-16
1.21846E-05 2.15615E-16
1.37553E-05 1.71100E-16
1.54212E-05 1.37414E-16
1.71822E-05 1.11599E-16
1.90385E-05 9.15249E-17
2.09899E-05 7.57894E-17
2.30365E-05 6.32746E-17
2.51783E-05 5.32145E-17
2.74153E-05 4.50624E-17
2.97475E-05 3.84067E-17
3.21749E-05 3.29326E-17
3.46974E-05 2.83995E-17
3.73152E-05 2.46205E-17
4.00281E-05 2.14494E-17
4.28362E-05 1.87732E-17
4.57395E-05 1.65017E-17
4.87380E-05 1.45630E-17
5.18317E-05 1.29004E-17
5.50205E-05 1.14678E-17
5.83045E-05 1.02284E-17
6.16838E-05 9.15221E-18
6.51582E-05 8.21422E-18
6.87277E-05 7.39369E-18
7.23925E-05 6.67332E-18
7.61524E-05 6.03862E-18
9.21439E-05 4.14375E-18
1.09658E-04 2.93717E-18
1.28695E-04 2.13967E-18
1.49255E-04 1.59521E-18
1.71338E-04 1.21339E-18
1.94942E-04 9.39157E-19
2.20070E-04 7.38135E-19
2.46720E-04 5.88076E-19
2.74892E-04 4.74223E-19
3.04586E-04 3.86605E-19
3.35803E-04 3.18284E-19
3.68542E-04 2.64387E-19
4.02802E-04 2.21410E-19
4.38585E-04 1.86806E-19
4.75889E-04 1.58694E-19
5.14715E-04 1.35665E-19
5.55063E-04 1.16659E-19
5.96931E-04 1.00860E-19
6.40321E-04 8.76428E-20
6.85233E-04 7.65167E-20
7.31665E-04 6.70975E-20
7.79618E-04 5.90813E-20
8.29092E-04 5.22244E-20
8.80086E-04 4.63320E-20
9.32601E-04 4.12458E-20
9.86636E-04 3.68371E-20
1.04219E-03 3.30007E-20
1.09927E-03 2.96498E-20
1.15786E-03 2.67126E-20
1.21797E-03 2.41293E-20
1.27961E-03 2.18502E-20
1.34276E-03 1.98332E-20
1.40743E-03 1.80431E-20
1.47362E-03 1.64500E-20
1.54133E-03 1.50284E-20
1.61056E-03 1.37567E-20
1.68131E-03 1.26163E-20
1.75357E-03 1.15914E-20
1.82735E-03 1.06682E-20
1.90265E-03 9.83478E-21
1.97947E-03 9.08098E-21
2.05780E-03 8.39782E-21
2.13765E-03 7.77752E-21
2.21902E-03 7.21329E-21
2.30190E-03 6.69912E-21
2.38630E-03 6.22983E-21
2.47222E-03 5.80080E-21
2.55965E-03 5.40795E-21
2.64859E-03 5.04769E-21
2.73905E-03 4.71683E-21
2.83103E-03 4.41256E-21
2.92452E-03 4.13234E-21
3.01952E-03 3.87395E-21
3.11604E-03 3.63536E-21
3.21407E-03 3.41480E-21
3.31362E-03 3.21065E-21
3.41468E-03 3.02148E-21
3.51725E-03 2.84598E-21
3.62133E-03 2.68300E-21
3.72692E-03 2.53147E-21
3.83403E-03 2.39045E-21
3.94265E-03 2.25908E-21
4.05278E-03 2.13657E-21
4.16442E-03 2.02222E-21
4.27757E-03 1.91539E-21
4.39223E-03 1.81549E-21
4.50840E-03 1.72200E-21
4.62608E-03 1.63441E-21
4.74527E-03 1.55231E-21
4.86597E-03 1.47527E-21
4.98817E-03 1.40293E-21
5.11188E-03 1.33496E-21
5.23711E-03 1.27103E-21
5.36383E-03 1.21087E-21
5.49207E-03 1.15420E-21
5.62181E-03 1.10080E-21
5.75306E-03 1.05044E-21
5.88581E-03 1.00291E-21
6.02007E-03 9.58025E-22
6.15583E-03 9.15611E-22
6.29310E-03 8.75508E-22
6.43187E-03 8.37565E-22
6.57214E-03 8.01646E-22
6.71392E-03 7.67623E-22
6.85720E-03 7.35376E-22
7.00198E-03 7.04796E-22
7.14827E-03 6.75781E-22
7.29605E-03 6.48235E-22
7.44534E-03 6.22071E-22
7.59612E-03 5.97207E-22
7.97965E-03 5.40245E-22
8.37255E-03 4.89881E-22
8.77480E-03 4.45220E-22
9.18641E-03 4.05508E-22
9.60736E-03 3.70102E-22
1.00376E-02 3.38456E-22
1.04773E-02 3.10102E-22
1.09262E-02 2.84638E-22
1.13844E-02 2.61720E-22
1.18520E-02 2.41048E-22
1.23288E-02 2.22365E-22
1.28150E-02 2.05446E-22
1.33104E-02 1.90095E-22
1.38150E-02 1.76143E-22
1.43290E-02 1.63438E-22
1.48521E-02 1.51851E-22
1.53845E-02 1.41265E-22
1.59262E-02 1.31580E-22
1.64770E-02 1.22704E-22
1.70371E-02 1.14559E-22
1.76063E-02 1.07073E-22
1.81848E-02 1.00185E-22
1.87724E-02 9.38367E-23
1.93692E-02 8.79796E-23
1.99751E-02 8.25688E-23
2.05901E-02 7.75645E-23
2.12143E-02 7.29302E-23
2.18476E-02 6.86339E-23
2.24900E-02 6.46468E-23
2.31415E-02 6.09426E-23
2.38021E-02 5.74975E-23
2.44717E-02 5.42902E-23
2.51504E-02 5.13015E-23
2.58382E-02 4.85138E-23
2.65349E-02 4.59109E-23
2.72407E-02 4.34786E-23
2.79555E-02 4.12039E-23
2.86793E-02 3.90746E-23
2.94120E-02 3.70794E-23
3.01537E-02 3.52089E-23
3.09043E-02 3.34538E-23
3.16639E-02 3.18052E-23
3.24324E-02 3.02560E-23
3.32098E-02 2.87992E-23
3.39961E-02 2.74278E-23
3.47912E-02 2.61363E-23
3.55952E-02 2.49191E-23
3.64081E-02 2.37711E-23
3.72297E-02 2.26877E-23
3.80602E-02 2.16647E-23
3.88995E-02 2.06980E-23
3.97476E-02 1.97839E-23
4.06044E-02 1.89192E-23
4.14700E-02 1.81006E-23
4.23443E-02 1.73253E-23
4.32273E-02 1.65906E-23
4.41190E-02 1.58939E-23
4.50194E-02 1.52329E-23
4.59284E-02 1.46055E-23
4.68461E-02 1.40097E-23
4.87074E-02 1.29053E-23
5.06030E-02 1.19062E-23
5.25328E-02 1.10007E-23
5.44967E-02 1.01786E-23
5.64946E-02 9.43080E-24
5.85262E-02 8.74949E-24
6.05914E-02 8.12772E-24
6.26901E-02 7.55941E-24
6.48222E-02 7.03918E-24
6.69873E-02 6.56227E-24
6.91854E-02 6.12445E-24
7.14163E-02 5.72197E-24
7.36799E-02 5.35148E-24
7.59760E-02 5.01001E-24
7.83043E-02 4.69489E-24
8.06647E-02 4.40374E-24
8.30571E-02 4.13442E-24
8.54812E-02 3.88501E-24
8.79369E-02 3.65379E-24
9.04240E-02 3.43920E-24
9.29422E-02 3.23983E-24
9.54915E-02 3.05443E-24
9.80716E-02 2.88185E-24
1.00682E-01 2.72104E-24
1.03323E-01 2.57107E-24
1.05995E-01 2.43107E-24
1.08696E-01 2.30028E-24
1.11427E-01 2.17797E-24
1.14188E-01 2.06351E-24
1.16978E-01 1.95630E-24
1.19797E-01 1.85581E-24
1.22645E-01 1.76154E-24
1.25522E-01 1.67305E-24
1.28428E-01 1.58990E-24
1.31361E-01 1.51173E-24
1.34323E-01 1.43819E-24
1.37313E-01 1.36896E-24
1.40330E-01 1.30373E-24
1.43375E-01 1.24225E-24
1.46447E-01 1.18425E-24
1.49545E-01 1.12950E-24
1.52671E-01 1.07780E-24
1.55823E-01 1.02893E-24
1.59001E-01 9.82729E-25
1.62205E-01 9.39016E-25
1.65435E-01 8.97635E-25
1.68690E-01 8.58441E-25
1.71970E-01 8.21298E-25
1.75276E-01 7.86081E-25
1.78606E-01 7.52672E-25
1.81961E-01 7.20962E-25
1.85340E-01 6.90852E-25
1.88743E-01 6.62245E-25
1.92169E-01 6.35054E-25
1.95619E-01 6.09197E-25
1.99092E-01 5.84597E-25
2.02589E-01 5.61183E-25
2.06107E-01 5.38888E-25
2.09649E-01 5.17649E-25
2.13212E-01 4.97407E-25
2.16797E-01 4.78108E-25
2.20404E-01 4.59701E-25
2.24032E-01 4.42137E-25
2.27680E-01 4.25371E-25
2.31350E-01 4.09360E-25
2.35040E-01 3.94065E-25
2.38751E-01 3.79448E-25
2.42481E-01 3.65475E-25
2.46231E-01 3.52111E-25
2.50000E-01 3.39327E-25
2.53788E-01 3.27092E-25
2.57595E-01 3.15379E-25
2.61421E-01 3.04161E-25
2.65264E-01 2.93416E-25
2.69126E-01 2.83118E-25
2.73005E-01 2.73247E-25
2.76901E-01 2.63782E-25
2.80814E-01 2.54703E-25
2.84744E-01 2.45992E-25
2.88691E-01 2.37631E-25
2.92653E-01 2.29605E-25
2.96632E-01 2.21896E-25
3.00625E-01 2.14492E-25
3.04634E-01 2.07377E-25
3.08658E-01 2.00539E-25
3.12697E-01 1.93965E-25
3.16749E-01 1.87643E-25
3.20816E-01 1.81561E-25
3.24896E-01 1.75710E-25
3.28990E-01 1.70079E-25
3.33097E-01 1.64658E-25
3.37216E-01 1.59438E-25
3.41348E-01 1.54411E-25
3.45492E-01 1.49568E-25
3.49647E-01 1.44902E-25
3.53814E-01 1.40404E-25
3.57992E-01 1.36068E-25
3.62181E-01 1.31887E-25
3.66381E-01 1.27855E-25
3.70590E-01 1.23965E-25
3.74810E-01 1.20212E-25
3.79039E-01 1.16589E-25
3.83277E-01 1.13093E-25
3.87524E-01 1.09717E-25
3.91780E-01 1.06456E-25
3.96044E-01 1.03307E-25
4.00316E-01 1.00265E-25
4.04596E-01 9.73251E-26
4.08882E-01 9.44839E-26
4.13176E-01 9.17373E-26
4.17476E-01 8.90819E-26
4.21783E-01 8.65140E-26
4.26095E-01 8.40303E-26
4.30413E-01 8.16276E-26
4.34737E-01 7.93029E-26
4.39065E-01 7.70531E-26
4.43398E-01 7.48756E-26
4.47736E-01 7.27676E-26
4.52077E-01 7.07266E-26
4.56422E-01 6.87501E-26
4.60770E-01 6.68357E-26
4.65122E-01 6.49812E-26
4.69476E-01 6.31844E-26
4.73832E-01 6.14432E-26
4.78190E-01 5.97557E-26
4.82550E-01 5.81199E-26
4.86912E-01 5.65341E-26
4.91274E-01 5.49963E-26
4.95637E-01 5.35051E-26
5.00000E-01 5.20587E-26
5.04363E-01 5.06556E-26
5.08726E-01 4.92943E-26
5.13088E-01 4.79733E-26
5.17450E-01 4.66913E-26
5.21810E-01 4.54470E-26
5.26168E-01 4.42391E-26
5.30524E-01 4.30663E-26
5.34878E-01 4.19275E-26
5.39230E-01 4.08216E-26
5.43578E-01 3.97474E-26
5.47923E-01 3.87039E-26
5.52264E-01 3.76902E-26
5.56602E-01 3.67052E-26
5.60935E-01 3.57480E-26
5.65263E-01 3.48177E-26
5.69587E-01 3.39134E-26
5.73905E-01 3.30343E-26
5.78217E-01 3.21797E-26
5.82524E-01 3.13486E-26
5.86824E-01 3.05404E-26
5.91118E-01 2.97544E-26
5.95404E-01 2.89899E-26
5.99684E-01 2.82461E-26
6.03956E-01 2.75225E-26
6.08220E-01 2.68184E-26
6.12476E-01 2.61333E-26
6.16723E-01 2.54664E-26
6.20961E-01 2.48174E-26
6.25190E-01 2.41856E-26
6.29410E-01 2.35706E-26
6.33619E-01 2.29717E-26
6.37819E-01 2.23886E-26
6.42008E-01 2.18208E-26
6.46186E-01 2.12678E-26
6.50353E-01 2.07291E-26
6.54508E-01 2.02044E-26
6.58652E-01 1.96933E-26
6.62784E-01 1.91953E-26
6.66903E-01 1.87100E-26
6.71010E-01 1.82372E-26
6.75104E-01 1.77764E-26
6.79184E-01 1.73273E-26
6.83251E-01 1.68896E-26
6.87303E-01 1.64629E-26
6.91342E-01 1.60469E-26
6.95366E-01 1.56413E-26
6.99375E-01 1.52459E-26
7.03368E-01 1.48603E-26
7.07347E-01 1.44843E-26
7.11309E-01 1.41176E-26
7.15256E-01 1.37600E-26
7.19186E-01 1.34111E-26
7.23099E-01 1.30708E-26
7.26995E-01 1.27389E-26
7.30874E-01 1.24150E-26
7.34736E-01 1.20990E-26
7.38579E-01 1.17907E-26
7.42405E-01 1.14898E-26
7.46212E-01 1.11962E-26
7.50000E-01 1.09097E-26
7.53769E-01 1.06301E-26
7.57519E-01 1.03571E-26
7.61249E-01 1.00907E-26
7.64960E-01 9.83067E-27
7.68650E-01 9.57679E-27
7.72320E-01 9.32895E-27
7.75968E-01 9.08697E-27
7.79596E-01 8.85072E-27
7.83203E-01 8.62004E-27
7.86788E-01 8.39479E-27
7.90351E-01 8.17484E-27
7.93893E-01 7.96004E-27
7.97411E-01 7.75028E-27
8.00908E-01 7.54542E-27
8.04381E-01 7.34534E-27
8.07831E-01 7.14992E-27
8.11257E-01 6.95904E-27
8.14660E-01 6.77261E-27
8.18039E-01 6.59049E-27
8.21394E-01 6.41260E-27
8.24724E-01 6.23882E-27
8.28030E-01 6.06907E-27
8.31310E-01 5.90323E-27
8.34565E-01 5.74122E-27
8.37795E-01 5.58294E-27
8.40999E-01 5.42831E-27
8.44177E-01 5.27724E-27
8.47329E-01 5.12964E-27
8.50455E-01 4.98544E-27
8.53553E-01 4.84456E-27
8.56625E-01 4.70691E-27
8.59670E-01 4.57243E-27
8.62687E-01 4.44103E-27
8.65677E-01 4.31266E-27
8.68639E-01 4.18724E-27
8.71572E-01 4.06470E-27
8.74478E-01 3.94499E-27
8.77355E-01 3.82803E-27
8.80203E-01 3.71377E-27
8.83022E-01 3.60214E-27
8.85812E-01 3.49309E-27
8.88573E-01 3.38656E-27
8.91304E-01 3.28250E-27
8.94005E-01 3.18085E-27
8.96677E-01 3.08157E-27
8.99318E-01 2.98459E-27
9.01928E-01 2.88988E-27
9.04508E-01 2.79738E-27
9.07058E-01 2.70705E-27
9.09576E-01 2.61885E-27
9.12063E-01 2.53272E-27
9.14519E-01 2.44863E-27
9.16943E-01 2.36654E-27
9.19335E-01 2.28640E-27
9.21696E-01 2.20818E-27
9.24024E-01 2.13184E-27
9.26320E-01 2.05734E-27
9.28584E-01 1.98464E-27
9.30815E-01 1.91371E-27
9.33013E-01 1.84453E-27
9.35178E-01 1.77704E-27
9.37310E-01 1.71123E-27
9.39409E-01 1.64705E-27
9.41474E-01 1.58449E-27
9.43505E-01 1.52351E-27
9.45503E-01 1.46408E-27
9.47467E-01 1.40617E-27
9.49397E-01 1.34977E-27
9.51293E-01 1.29483E-27
9.53154E-01 1.24134E-27
9.54981E-01 1.18927E-27
9.56773E-01 1.13860E-27
9.58530E-01 1.08931E-27
9.60252E-01 1.04136E-27
9.61940E-01 9.94746E-28
9.63592E-01 9.49441E-28
9.65209E-01 9.05424E-28
9.66790E-01 8.62676E-28
9.68336E-01 8.21177E-28
9.69846E-01 7.80910E-28
9.71321E-01 7.41855E-28
9.72759E-01 7.03995E-28
9.74162E-01 6.67314E-28
9.75528E-01 6.31796E-28
9.76858E-01 5.97424E-28
9.78152E-01 5.64183E-28
9.79410E-01 5.32059E-28
9.80631E-01 5.01038E-28
9.81815E-01 4.71105E-28
9.82963E-01 4.42249E-28
9.84074E-01 4.14456E-28
9.85148E-01 3.87714E-28
9.86185E-01 3.62012E-28
9.87185E-01 3.37338E-28
9.88148E-01 3.13681E-28
9.89074E-01 2.91033E-28
9.89962E-01 2.69381E-28
9.90814E-01 2.48718E-28
9.91627E-01 2.29035E-28
9.92404E-01 2.10322E-28
9.93143E-01 1.92572E-28
9.93844E-01 1.75777E-28
9.94508E-01 1.59931E-28
9.95134E-01 1.45026E-28
9.95722E-01 1.31055E-28
9.96273E-01 1.18014E-28
9.96786E-01 1.05896E-28
9.97261E-01 9.46956E-29
9.97698E-01 8.44091E-29
9.98097E-01 7.50317E-29
9.98459E-01 6.65593E-29
9.98782E-01 5.89884E-29
9.99067E-01 5.23156E-29
9.99315E-01 4.65384E-29
9.99524E-01 4.16540E-29
9.99695E-01 3.76606E-29
9.99829E-01 3.45563E-29
9.99924E-01 3.23399E-29
9.99981E-01 3.10104E-29
1.00000E+00 3.05673E-29
