 #
 # Subroutine ELSEPA. Elastic scattering of electrons and positrons
 #                    by neutral atoms and positive ions
 #
 # Projectile: positron
 # Kinetic energy = 1.50000E+08 eV = 5.51240E+06 a.u.
 #
 # WARNING: High-energy factorization with free-atom DF screening.
 #          Absorption, polarization and exchange corrections are
 #          switched off.
 #          Phase shifts are calculated for the bare nucleus.
 #          Scattering amplitudes are not evaluated.
 #
 # Element: Cd,  Z =  48,  atomic weight = 1.12411E+02 g/mol
 #
 # Nuclear model: Fermi distribution
 #                Average radius = 5.16401E-13 cm
 #                Skin thickness = 5.46000E-14 cm
 #
 # Number of electrons = 48
 #
 # Total elastic cross section = 4.49757E-18 cm**2 = 1.60611E-01 a0**2
 # 1st transport cross section = 1.97544E-25 cm**2 = 7.05442E-09 a0**2
 # 2nd transport cross section = 5.89959E-25 cm**2 = 2.10678E-08 a0**2
 #
 #
 # Differential cross section:                       MU=(1-COS(THETA))/2
 #
 #  THETA        MU          DCS          DCS        Sherman      error
 #  (deg)                 (cm**2/sr)   (a0**2/sr)    function
 #----------------------------------------------------------------------
0.00000E+00 7.15746E-10
7.61557E-13 7.12206E-10
1.18994E-12 7.10232E-10
1.71346E-12 7.07834E-10
2.33225E-12 7.05019E-10
3.04617E-12 7.01797E-10
3.85530E-12 6.98176E-10
4.75964E-12 6.94170E-10
5.75917E-12 6.89790E-10
6.85391E-12 6.85050E-10
8.04379E-12 6.79964E-10
9.32893E-12 6.74546E-10
1.07092E-11 6.68790E-10
1.21847E-11 6.62723E-10
1.37554E-11 6.56412E-10
1.54213E-11 6.49878E-10
1.71823E-11 6.43015E-10
1.90386E-11 6.35930E-10
2.09900E-11 6.28687E-10
2.30367E-11 6.21279E-10
2.51785E-11 6.13569E-10
2.74156E-11 6.05761E-10
2.97478E-11 5.97875E-10
3.21752E-11 5.89814E-10
3.46979E-11 5.81587E-10
3.73157E-11 5.73338E-10
4.00286E-11 5.65085E-10
4.28368E-11 5.56622E-10
4.57402E-11 5.48143E-10
4.87388E-11 5.39707E-10
5.18325E-11 5.31275E-10
5.50215E-11 5.22688E-10
5.83057E-11 5.14185E-10
6.16850E-11 5.05776E-10
6.51595E-11 4.97319E-10
6.87293E-11 4.88849E-10
7.23943E-11 4.80505E-10
7.61544E-11 4.72291E-10
1.18991E-10 3.93687E-10
1.71347E-10 3.26017E-10
2.33223E-10 2.70068E-10
3.04617E-10 2.24584E-10
3.85531E-10 1.87695E-10
4.75965E-10 1.57745E-10
5.75917E-10 1.33261E-10
6.85389E-10 1.13077E-10
8.04380E-10 9.63084E-11
9.32891E-10 8.23215E-11
1.07092E-09 7.01307E-11
1.21847E-09 5.98054E-11
1.37554E-09 5.16526E-11
1.54213E-09 4.51324E-11
1.71823E-09 3.90003E-11
1.90386E-09 3.38168E-11
2.09900E-09 2.95909E-11
2.30367E-09 2.60545E-11
2.51785E-09 2.27628E-11
2.74156E-09 2.00307E-11
2.97478E-09 1.77453E-11
3.21752E-09 1.57405E-11
3.46978E-09 1.39675E-11
3.73156E-09 1.24616E-11
4.00286E-09 1.11750E-11
4.28368E-09 1.00201E-11
4.57402E-09 9.01599E-12
4.87388E-09 8.14692E-12
5.18326E-09 7.38634E-12
5.50215E-09 6.70329E-12
5.83057E-09 6.10514E-12
6.16850E-09 5.57922E-12
6.51596E-09 5.10848E-12
6.87293E-09 4.68666E-12
7.23942E-09 4.31218E-12
7.61544E-09 3.97864E-12
1.18991E-08 1.94544E-12
1.71347E-08 1.07155E-12
2.33223E-08 6.33614E-13
3.04617E-08 3.94218E-13
3.85531E-08 2.56301E-13
4.75965E-08 1.73372E-13
5.75917E-08 1.21375E-13
6.85389E-08 8.75841E-14
8.04380E-08 6.48760E-14
9.32891E-08 4.91278E-14
1.07092E-07 3.78927E-14
1.21847E-07 2.97354E-14
1.37554E-07 2.36464E-14
1.54213E-07 1.90480E-14
1.71823E-07 1.55183E-14
1.90386E-07 1.27595E-14
2.09900E-07 1.05876E-14
2.30367E-07 8.85856E-15
2.51785E-07 7.46441E-15
2.74156E-07 6.33303E-15
2.97478E-07 5.40790E-15
3.21752E-07 4.64423E-15
3.46978E-07 4.01002E-15
3.73156E-07 3.48042E-15
4.00286E-07 3.03499E-15
4.28368E-07 2.65821E-15
4.57402E-07 2.33815E-15
4.87388E-07 2.06477E-15
5.18325E-07 1.82998E-15
5.50215E-07 1.62768E-15
5.83057E-07 1.45261E-15
6.16850E-07 1.30034E-15
6.51596E-07 1.16755E-15
6.87293E-07 1.05131E-15
7.23942E-07 9.49146E-16
7.61543E-07 8.59114E-16
1.18991E-06 3.56542E-16
1.71347E-06 1.73578E-16
2.33223E-06 9.43518E-17
3.04617E-06 5.55954E-17
3.85531E-06 3.48426E-17
4.75964E-06 2.29266E-17
5.75916E-06 1.56935E-17
6.85388E-06 1.10991E-17
8.04378E-06 8.06854E-18
9.32888E-06 6.00458E-18
1.07092E-05 4.55993E-18
1.21846E-05 3.52452E-18
1.37553E-05 2.76682E-18
1.54212E-05 2.20211E-18
1.71822E-05 1.77431E-18
1.90385E-05 1.44512E-18
2.09899E-05 1.18945E-18
2.30365E-05 9.87799E-19
2.51783E-05 8.26988E-19
2.74153E-05 6.97500E-19
2.97475E-05 5.92332E-19
3.21749E-05 5.06243E-19
3.46974E-05 4.35254E-19
3.73152E-05 3.76307E-19
4.00281E-05 3.27026E-19
4.28362E-05 2.85562E-19
4.57395E-05 2.50461E-19
4.87380E-05 2.20582E-19
5.18317E-05 1.95016E-19
5.50205E-05 1.73041E-19
5.83045E-05 1.54072E-19
6.16838E-05 1.37631E-19
6.51582E-05 1.23327E-19
6.87277E-05 1.10836E-19
7.23925E-05 9.98889E-20
7.61524E-05 9.03156E-20
9.21439E-05 6.16597E-20
1.09658E-04 4.35133E-20
1.28695E-04 3.15771E-20
1.49255E-04 2.34633E-20
1.71338E-04 1.77955E-20
1.94942E-04 1.37388E-20
2.20070E-04 1.07742E-20
2.46720E-04 8.56718E-21
2.74892E-04 6.89682E-21
3.04586E-04 5.61412E-21
3.35803E-04 4.61584E-21
3.68542E-04 3.82967E-21
4.02802E-04 3.20374E-21
4.38585E-04 2.70044E-21
4.75889E-04 2.29206E-21
5.14715E-04 1.95790E-21
5.55063E-04 1.68237E-21
5.96931E-04 1.45355E-21
6.40321E-04 1.26227E-21
6.85233E-04 1.10137E-21
7.31665E-04 9.65242E-22
7.79618E-04 8.49462E-22
8.29092E-04 7.50483E-22
8.80086E-04 6.65467E-22
9.32601E-04 5.92117E-22
9.86636E-04 5.28566E-22
1.04219E-03 4.73288E-22
1.09927E-03 4.25024E-22
1.15786E-03 3.82734E-22
1.21797E-03 3.45554E-22
1.27961E-03 3.12762E-22
1.34276E-03 2.83751E-22
1.40743E-03 2.58011E-22
1.47362E-03 2.35111E-22
1.54133E-03 2.14682E-22
1.61056E-03 1.96412E-22
1.68131E-03 1.80034E-22
1.75357E-03 1.65318E-22
1.82735E-03 1.52065E-22
1.90265E-03 1.40106E-22
1.97947E-03 1.29292E-22
2.05780E-03 1.19494E-22
2.13765E-03 1.10599E-22
2.21902E-03 1.02511E-22
2.30190E-03 9.51428E-23
2.38630E-03 8.84195E-23
2.47222E-03 8.22745E-23
2.55965E-03 7.66495E-23
2.64859E-03 7.14926E-23
2.73905E-03 6.67581E-23
2.83103E-03 6.24052E-23
2.92452E-03 5.83977E-23
3.01952E-03 5.47034E-23
3.11604E-03 5.12935E-23
3.21407E-03 4.81422E-23
3.31362E-03 4.52265E-23
3.41468E-03 4.25255E-23
3.51725E-03 4.00206E-23
3.62133E-03 3.76952E-23
3.72692E-03 3.55340E-23
3.83403E-03 3.35235E-23
3.94265E-03 3.16511E-23
4.05278E-03 2.99058E-23
4.16442E-03 2.82774E-23
4.27757E-03 2.67567E-23
4.39223E-03 2.53353E-23
4.50840E-03 2.40055E-23
4.62608E-03 2.27604E-23
4.74527E-03 2.15936E-23
4.86597E-03 2.04994E-23
4.98817E-03 1.94724E-23
5.11188E-03 1.85078E-23
5.23711E-03 1.76010E-23
5.36383E-03 1.67481E-23
5.49207E-03 1.59452E-23
5.62181E-03 1.51889E-23
5.75306E-03 1.44760E-23
5.88581E-03 1.38036E-23
6.02007E-03 1.31690E-23
6.15583E-03 1.25696E-23
6.29310E-03 1.20032E-23
6.43187E-03 1.14676E-23
6.57214E-03 1.09609E-23
6.71392E-03 1.04812E-23
6.85720E-03 1.00268E-23
7.00198E-03 9.59622E-24
7.14827E-03 9.18789E-24
7.29605E-03 8.80051E-24
7.44534E-03 8.43280E-24
7.59612E-03 8.08359E-24
7.97965E-03 7.28449E-24
8.37255E-03 6.57920E-24
8.77480E-03 5.95493E-24
9.18641E-03 5.40089E-24
9.60736E-03 4.90790E-24
1.00376E-02 4.46818E-24
1.04773E-02 4.07503E-24
1.09262E-02 3.72274E-24
1.13844E-02 3.40639E-24
1.18520E-02 3.12172E-24
1.23288E-02 2.86507E-24
1.28150E-02 2.63323E-24
1.33104E-02 2.42343E-24
1.38150E-02 2.23324E-24
1.43290E-02 2.06055E-24
1.48521E-02 1.90349E-24
1.53845E-02 1.76042E-24
1.59262E-02 1.62991E-24
1.64770E-02 1.51068E-24
1.70371E-02 1.40160E-24
1.76063E-02 1.30169E-24
1.81848E-02 1.21005E-24
1.87724E-02 1.12589E-24
1.93692E-02 1.04851E-24
1.99751E-02 9.77275E-25
2.05901E-02 9.11634E-25
2.12143E-02 8.51077E-25
2.18476E-02 7.95152E-25
2.24900E-02 7.43453E-25
2.31415E-02 6.95614E-25
2.38021E-02 6.51304E-25
2.44717E-02 6.10225E-25
2.51504E-02 5.72107E-25
2.58382E-02 5.36707E-25
2.65349E-02 5.03803E-25
2.72407E-02 4.73195E-25
2.79555E-02 4.44699E-25
2.86793E-02 4.18150E-25
2.94120E-02 3.93396E-25
3.01537E-02 3.70300E-25
3.09043E-02 3.48734E-25
3.16639E-02 3.28585E-25
3.24324E-02 3.09745E-25
3.32098E-02 2.92120E-25
3.39961E-02 2.75620E-25
3.47912E-02 2.60164E-25
3.55952E-02 2.45678E-25
3.64081E-02 2.32093E-25
3.72297E-02 2.19345E-25
3.80602E-02 2.07377E-25
3.88995E-02 1.96134E-25
3.97476E-02 1.85568E-25
4.06044E-02 1.75633E-25
4.14700E-02 1.66287E-25
4.23443E-02 1.57489E-25
4.32273E-02 1.49206E-25
4.41190E-02 1.41402E-25
4.50194E-02 1.34046E-25
4.59284E-02 1.27111E-25
4.68461E-02 1.20569E-25
4.87074E-02 1.08568E-25
5.06030E-02 9.78642E-26
5.25328E-02 8.83031E-26
5.44967E-02 7.97509E-26
5.64946E-02 7.20907E-26
5.85262E-02 6.52207E-26
6.05914E-02 5.90520E-26
6.26901E-02 5.35064E-26
6.48222E-02 4.85157E-26
6.69873E-02 4.40196E-26
6.91854E-02 3.99651E-26
7.14163E-02 3.63052E-26
7.36799E-02 3.29988E-26
7.59760E-02 3.00090E-26
7.83043E-02 2.73035E-26
8.06647E-02 2.48532E-26
8.30571E-02 2.26324E-26
8.54812E-02 2.06184E-26
8.79369E-02 1.87906E-26
9.04240E-02 1.71308E-26
9.29422E-02 1.56227E-26
9.54915E-02 1.42516E-26
9.80716E-02 1.30044E-26
1.00682E-01 1.18695E-26
1.03323E-01 1.08361E-26
1.05995E-01 9.89480E-27
1.08696E-01 9.03705E-27
1.11427E-01 8.25511E-27
1.14188E-01 7.54203E-27
1.16978E-01 6.89152E-27
1.19797E-01 6.29790E-27
1.22645E-01 5.75604E-27
1.25522E-01 5.26128E-27
1.28428E-01 4.80943E-27
1.31361E-01 4.39666E-27
1.34323E-01 4.01951E-27
1.37313E-01 3.67484E-27
1.40330E-01 3.35980E-27
1.43375E-01 3.07180E-27
1.46447E-01 2.80847E-27
1.49545E-01 2.56768E-27
1.52671E-01 2.34748E-27
1.55823E-01 2.14607E-27
1.59001E-01 1.96185E-27
1.62205E-01 1.79334E-27
1.65435E-01 1.63919E-27
1.68690E-01 1.49818E-27
1.71970E-01 1.36917E-27
1.75276E-01 1.25116E-27
1.78606E-01 1.14319E-27
1.81961E-01 1.04443E-27
1.85340E-01 9.54086E-28
1.88743E-01 8.71446E-28
1.92169E-01 7.95859E-28
1.95619E-01 7.26726E-28
1.99092E-01 6.63504E-28
2.02589E-01 6.05691E-28
2.06107E-01 5.52831E-28
2.09649E-01 5.04504E-28
2.13212E-01 4.60329E-28
2.16797E-01 4.19953E-28
2.20404E-01 3.83055E-28
2.24032E-01 3.49342E-28
2.27680E-01 3.18544E-28
2.31350E-01 2.90413E-28
2.35040E-01 2.64723E-28
2.38751E-01 2.41268E-28
2.42481E-01 2.19857E-28
2.46231E-01 2.00316E-28
2.50000E-01 1.82486E-28
2.53788E-01 1.66221E-28
2.57595E-01 1.51387E-28
2.61421E-01 1.37861E-28
2.65264E-01 1.25531E-28
2.69126E-01 1.14295E-28
2.73005E-01 1.04057E-28
2.76901E-01 9.47323E-29
2.80814E-01 8.62411E-29
2.84744E-01 7.85112E-29
2.88691E-01 7.14763E-29
2.92653E-01 6.50757E-29
2.96632E-01 5.92539E-29
3.00625E-01 5.39601E-29
3.04634E-01 4.91478E-29
3.08658E-01 4.47743E-29
3.12697E-01 4.08009E-29
3.16749E-01 3.71919E-29
3.20816E-01 3.39148E-29
3.24896E-01 3.09399E-29
3.28990E-01 2.82401E-29
3.33097E-01 2.57904E-29
3.37216E-01 2.35682E-29
3.41348E-01 2.15528E-29
3.45492E-01 1.97254E-29
3.49647E-01 1.80688E-29
3.53814E-01 1.65671E-29
3.57992E-01 1.52060E-29
3.62181E-01 1.39726E-29
3.66381E-01 1.28549E-29
3.70590E-01 1.18420E-29
3.74810E-01 1.09241E-29
3.79039E-01 1.00922E-29
3.83277E-01 9.33819E-30
3.87524E-01 8.65459E-30
3.91780E-01 8.03466E-30
3.96044E-01 7.47228E-30
4.00316E-01 6.96188E-30
4.04596E-01 6.49842E-30
4.08882E-01 6.07731E-30
4.13176E-01 5.69442E-30
4.17476E-01 5.34597E-30
4.21783E-01 5.02857E-30
4.26095E-01 4.73915E-30
4.30413E-01 4.47491E-30
4.34737E-01 4.23334E-30
4.39065E-01 4.01218E-30
4.43398E-01 3.80937E-30
4.47736E-01 3.62307E-30
4.52077E-01 3.45161E-30
4.56422E-01 3.29349E-30
4.60770E-01 3.14738E-30
4.65122E-01 3.01204E-30
4.69476E-01 2.88641E-30
4.73832E-01 2.76949E-30
4.78190E-01 2.66041E-30
4.82550E-01 2.55840E-30
4.86912E-01 2.46274E-30
4.91274E-01 2.37282E-30
4.95637E-01 2.28806E-30
5.00000E-01 2.20797E-30
5.04363E-01 2.13210E-30
5.08726E-01 2.06005E-30
5.13088E-01 1.99148E-30
5.17450E-01 1.92606E-30
5.21810E-01 1.86351E-30
5.26168E-01 1.80360E-30
5.30524E-01 1.74609E-30
5.34878E-01 1.69079E-30
5.39230E-01 1.63754E-30
5.43578E-01 1.58617E-30
5.47923E-01 1.53656E-30
5.52264E-01 1.48857E-30
5.56602E-01 1.44212E-30
5.60935E-01 1.39711E-30
5.65263E-01 1.35344E-30
5.69587E-01 1.31106E-30
5.73905E-01 1.26990E-30
5.78217E-01 1.22989E-30
5.82524E-01 1.19100E-30
5.86824E-01 1.15317E-30
5.91118E-01 1.11636E-30
5.95404E-01 1.08055E-30
5.99684E-01 1.04569E-30
6.03956E-01 1.01176E-30
6.08220E-01 9.78732E-31
6.12476E-01 9.46584E-31
6.16723E-01 9.15294E-31
6.20961E-01 8.84840E-31
6.25190E-01 8.55205E-31
6.29410E-01 8.26371E-31
6.33619E-01 7.98322E-31
6.37819E-01 7.71041E-31
6.42008E-01 7.44514E-31
6.46186E-01 7.18726E-31
6.50353E-01 6.93664E-31
6.54508E-01 6.69313E-31
6.58652E-01 6.45659E-31
6.62784E-01 6.22691E-31
6.66903E-01 6.00394E-31
6.71010E-01 5.78755E-31
6.75104E-01 5.57762E-31
6.79184E-01 5.37402E-31
6.83251E-01 5.17663E-31
6.87303E-01 4.98530E-31
6.91342E-01 4.79992E-31
6.95366E-01 4.62037E-31
6.99375E-01 4.44650E-31
7.03368E-01 4.27820E-31
7.07347E-01 4.11533E-31
7.11309E-01 3.95778E-31
7.15256E-01 3.80542E-31
7.19186E-01 3.65812E-31
7.23099E-01 3.51576E-31
7.26995E-01 3.37822E-31
7.30874E-01 3.24536E-31
7.34736E-01 3.11708E-31
7.38579E-01 2.99324E-31
7.42405E-01 2.87374E-31
7.46212E-01 2.75845E-31
7.50000E-01 2.64725E-31
7.53769E-01 2.54002E-31
7.57519E-01 2.43667E-31
7.61249E-01 2.33706E-31
7.64960E-01 2.24110E-31
7.68650E-01 2.14866E-31
7.72320E-01 2.05966E-31
7.75968E-01 1.97397E-31
7.79596E-01 1.89150E-31
7.83203E-01 1.81214E-31
7.86788E-01 1.73580E-31
7.90351E-01 1.66238E-31
7.93893E-01 1.59178E-31
7.97411E-01 1.52391E-31
8.00908E-01 1.45868E-31
8.04381E-01 1.39600E-31
8.07831E-01 1.33578E-31
8.11257E-01 1.27794E-31
8.14660E-01 1.22240E-31
8.18039E-01 1.16907E-31
8.21394E-01 1.11788E-31
8.24724E-01 1.06876E-31
8.28030E-01 1.02162E-31
8.31310E-01 9.76394E-32
8.34565E-01 9.33018E-32
8.37795E-01 8.91419E-32
8.40999E-01 8.51534E-32
8.44177E-01 8.13298E-32
8.47329E-01 7.76648E-32
8.50455E-01 7.41526E-32
8.53553E-01 7.07874E-32
8.56625E-01 6.75634E-32
8.59670E-01 6.44753E-32
8.62687E-01 6.15179E-32
8.65677E-01 5.86859E-32
8.68639E-01 5.59746E-32
8.71572E-01 5.33792E-32
8.74478E-01 5.08951E-32
8.77355E-01 4.85178E-32
8.80203E-01 4.62432E-32
8.83022E-01 4.40670E-32
8.85812E-01 4.19853E-32
8.88573E-01 3.99943E-32
8.91304E-01 3.80903E-32
8.94005E-01 3.62697E-32
8.96677E-01 3.45291E-32
8.99318E-01 3.28652E-32
9.01928E-01 3.12748E-32
9.04508E-01 2.97549E-32
9.07058E-01 2.83025E-32
9.09576E-01 2.69148E-32
9.12063E-01 2.55891E-32
9.14519E-01 2.43227E-32
9.16943E-01 2.31131E-32
9.19335E-01 2.19580E-32
9.21696E-01 2.08550E-32
9.24024E-01 1.98019E-32
9.26320E-01 1.87965E-32
9.28584E-01 1.78369E-32
9.30815E-01 1.69209E-32
9.33013E-01 1.60468E-32
9.35178E-01 1.52127E-32
9.37310E-01 1.44168E-32
9.39409E-01 1.36576E-32
9.41474E-01 1.29334E-32
9.43505E-01 1.22427E-32
9.45503E-01 1.15840E-32
9.47467E-01 1.09559E-32
9.49397E-01 1.03571E-32
9.51293E-01 9.78630E-33
9.53154E-01 9.24222E-33
9.54981E-01 8.72371E-33
9.56773E-01 8.22964E-33
9.58530E-01 7.75894E-33
9.60252E-01 7.31056E-33
9.61940E-01 6.88353E-33
9.63592E-01 6.47689E-33
9.65209E-01 6.08976E-33
9.66790E-01 5.72125E-33
9.68336E-01 5.37056E-33
9.69846E-01 5.03690E-33
9.71321E-01 4.71952E-33
9.72759E-01 4.41770E-33
9.74162E-01 4.13076E-33
9.75528E-01 3.85806E-33
9.76858E-01 3.59897E-33
9.78152E-01 3.35289E-33
9.79410E-01 3.11929E-33
9.80631E-01 2.89760E-33
9.81815E-01 2.68733E-33
9.82963E-01 2.48799E-33
9.84074E-01 2.29913E-33
9.85148E-01 2.12030E-33
9.86185E-01 1.95110E-33
9.87185E-01 1.79112E-33
9.88148E-01 1.64000E-33
9.89074E-01 1.49738E-33
9.89962E-01 1.36293E-33
9.90814E-01 1.23635E-33
9.91627E-01 1.11732E-33
9.92404E-01 1.00557E-33
9.93143E-01 9.00841E-34
9.93844E-01 8.02884E-34
9.94508E-01 7.11468E-34
9.95134E-01 6.26378E-34
9.95722E-01 5.47412E-34
9.96273E-01 4.74381E-34
9.96786E-01 4.07117E-34
9.97261E-01 3.45456E-34
9.97698E-01 2.89253E-34
9.98097E-01 2.38376E-34
9.98459E-01 1.92702E-34
9.98782E-01 1.52124E-34
9.99067E-01 1.16544E-34
9.99315E-01 8.58773E-35
9.99524E-01 6.00507E-35
9.99695E-01 3.90044E-35
9.99829E-01 2.26866E-35
9.99924E-01 1.10586E-35
9.99981E-01 4.09296E-36
1.00000E+00 1.77316E-36
