 #
 # Subroutine ELSEPA. Elastic scattering of electrons and positrons
 #                    by neutral atoms and positive ions
 #
 # Projectile: positron
 # Kinetic energy = 7.00000E+08 eV = 2.57245E+07 a.u.
 #
 # WARNING: High-energy factorization with free-atom DF screening.
 #          Absorption, polarization and exchange corrections are
 #          switched off.
 #          Phase shifts are calculated for the bare nucleus.
 #          Scattering amplitudes are not evaluated.
 #
 # Element:  U,  Z =  92,  atomic weight = 2.38029E+02 g/mol
 #
 # Nuclear model: Fermi distribution
 #                Average radius = 6.63122E-13 cm
 #                Skin thickness = 5.46000E-14 cm
 #
 # Number of electrons = 92
 #
 # Total elastic cross section = 1.16795E-17 cm**2 = 4.17083E-01 a0**2
 # 1st transport cross section = 3.17306E-26 cm**2 = 1.13312E-09 a0**2
 # 2nd transport cross section = 9.51722E-26 cm**2 = 3.39866E-09 a0**2
 #
 #
 # Differential cross section:                       MU=(1-COS(THETA))/2
 #
 #  THETA        MU          DCS          DCS        Sherman      error
 #  (deg)                 (cm**2/sr)   (a0**2/sr)    function
 #----------------------------------------------------------------------
0.00000E+00 6.48849E-08
7.61557E-13 5.38788E-08
1.18994E-12 4.90164E-08
1.71346E-12 4.40328E-08
2.33225E-12 3.92001E-08
3.04617E-12 3.47098E-08
3.85530E-12 3.06524E-08
4.75964E-12 2.70588E-08
5.75917E-12 2.39204E-08
6.85391E-12 2.12043E-08
8.04379E-12 1.88584E-08
9.32893E-12 1.68338E-08
1.07092E-11 1.50831E-08
1.21847E-11 1.35634E-08
1.37554E-11 1.22390E-08
1.54213E-11 1.10798E-08
1.71823E-11 1.00570E-08
1.90386E-11 9.15282E-09
2.09900E-11 8.35023E-09
2.30367E-11 7.63404E-09
2.51785E-11 6.99153E-09
2.74156E-11 6.41521E-09
2.97478E-11 5.89681E-09
3.21752E-11 5.42784E-09
3.46979E-11 5.00353E-09
3.73157E-11 4.61948E-09
4.00286E-11 4.27109E-09
4.28368E-11 3.95342E-09
4.57402E-11 3.66459E-09
4.87388E-11 3.38928E-09
5.18325E-11 3.13703E-09
5.50215E-11 2.91203E-09
5.83057E-11 2.71073E-09
6.16850E-11 2.53014E-09
6.51595E-11 2.36766E-09
6.87293E-11 2.22110E-09
7.23943E-11 2.08855E-09
7.61544E-11 1.95346E-09
1.18991E-10 1.07888E-09
1.71347E-10 6.49965E-10
2.33223E-10 4.16718E-10
3.04617E-10 2.79072E-10
3.85531E-10 1.94384E-10
4.75965E-10 1.40021E-10
5.75917E-10 1.03662E-10
6.85389E-10 7.83839E-11
8.04380E-10 6.04179E-11
9.32891E-10 4.73228E-11
1.07092E-09 3.75564E-11
1.21847E-09 3.01621E-11
1.37554E-09 2.44683E-11
1.54213E-09 2.00645E-11
1.71823E-09 1.66096E-11
1.90386E-09 1.38737E-11
2.09900E-09 1.16821E-11
2.30367E-09 9.90753E-12
2.51785E-09 8.45752E-12
2.74156E-09 7.26584E-12
2.97478E-09 6.27926E-12
3.21752E-09 5.45567E-12
3.46978E-09 4.76375E-12
3.73156E-09 4.17882E-12
4.00286E-09 3.68124E-12
4.28368E-09 3.25516E-12
4.57402E-09 2.88916E-12
4.87388E-09 2.57175E-12
5.18326E-09 2.29746E-12
5.50215E-09 2.06049E-12
5.83057E-09 1.85262E-12
6.16850E-09 1.66979E-12
6.51596E-09 1.50995E-12
6.87293E-09 1.36874E-12
7.23942E-09 1.24315E-12
7.61544E-09 1.13223E-12
1.18991E-08 4.94082E-13
1.71347E-08 2.48979E-13
2.33223E-08 1.38539E-13
3.04617E-08 8.30069E-14
3.85531E-08 5.27075E-14
4.75965E-08 3.50679E-14
5.75917E-08 2.42372E-14
6.85389E-08 1.72879E-14
8.04380E-08 1.26617E-14
9.32891E-08 9.48451E-15
1.07092E-07 7.24372E-15
1.21847E-07 5.62664E-15
1.37554E-07 4.43609E-15
1.54213E-07 3.54405E-15
1.71823E-07 2.86511E-15
1.90386E-07 2.34107E-15
2.09900E-07 1.93143E-15
2.30367E-07 1.60752E-15
2.51785E-07 1.34871E-15
2.74156E-07 1.13993E-15
2.97478E-07 9.70021E-16
3.21752E-07 8.30615E-16
3.46978E-07 7.15373E-16
3.73156E-07 6.19443E-16
4.00286E-07 5.39070E-16
4.28368E-07 4.71321E-16
4.57402E-07 4.13892E-16
4.87388E-07 3.64949E-16
5.18325E-07 3.23034E-16
5.50215E-07 2.86969E-16
5.83057E-07 2.55801E-16
6.16850E-07 2.28754E-16
6.51596E-07 2.05188E-16
6.87293E-07 1.84582E-16
7.23942E-07 1.66499E-16
7.61543E-07 1.50578E-16
1.18991E-06 6.20466E-17
1.71347E-06 3.00398E-17
2.33223E-06 1.62580E-17
3.04617E-06 9.54785E-18
3.85531E-06 5.96856E-18
4.75964E-06 3.91969E-18
5.75916E-06 2.67904E-18
6.85388E-06 1.89251E-18
8.04378E-06 1.37450E-18
9.32888E-06 1.02215E-18
1.07092E-05 7.75767E-19
1.21846E-05 5.99323E-19
1.37553E-05 4.70292E-19
1.54212E-05 3.74179E-19
1.71822E-05 3.01402E-19
1.90385E-05 2.45298E-19
2.09899E-05 2.01966E-19
2.30365E-05 1.67751E-19
2.51783E-05 1.40431E-19
2.74153E-05 1.18413E-19
2.97475E-05 1.00527E-19
3.21749E-05 8.58921E-20
3.46974E-05 7.38334E-20
3.73152E-05 6.38274E-20
4.00281E-05 5.54668E-20
4.28362E-05 4.84338E-20
4.57395E-05 4.24802E-20
4.87380E-05 3.74117E-20
5.18317E-05 3.30751E-20
5.50205E-05 2.93485E-20
5.83045E-05 2.61330E-20
6.16838E-05 2.33425E-20
6.51582E-05 2.09152E-20
6.87277E-05 1.87956E-20
7.23925E-05 1.69381E-20
7.61524E-05 1.56833E-20
9.21439E-05 1.07328E-20
1.09658E-04 7.58806E-21
1.28695E-04 5.51265E-21
1.49255E-04 4.09797E-21
1.71338E-04 3.10671E-21
1.94942E-04 2.39555E-21
2.20070E-04 1.87465E-21
2.46720E-04 1.48613E-21
2.74892E-04 1.19170E-21
3.04586E-04 9.65325E-22
3.35803E-04 7.89090E-22
3.68542E-04 6.50283E-22
4.02802E-04 5.39830E-22
4.38585E-04 4.51114E-22
4.75889E-04 3.79241E-22
5.14715E-04 3.20567E-22
5.55063E-04 2.72319E-22
5.96931E-04 2.32390E-22
6.40321E-04 1.99145E-22
6.85233E-04 1.71310E-22
7.31665E-04 1.47887E-22
7.79618E-04 1.28082E-22
8.29092E-04 1.11263E-22
8.80086E-04 9.69209E-23
9.32601E-04 8.46447E-23
9.86636E-04 7.40999E-23
1.04219E-03 6.50118E-23
1.09927E-03 5.71556E-23
1.15786E-03 5.03443E-23
1.21797E-03 4.44234E-23
1.27961E-03 3.92633E-23
1.34276E-03 3.47557E-23
1.40743E-03 3.08095E-23
1.47362E-03 2.73474E-23
1.54133E-03 2.43044E-23
1.61056E-03 2.16247E-23
1.68131E-03 1.92609E-23
1.75357E-03 1.71726E-23
1.82735E-03 1.53247E-23
1.90265E-03 1.36874E-23
1.97947E-03 1.22347E-23
2.05780E-03 1.09442E-23
2.13765E-03 9.79650E-24
2.21902E-03 8.77466E-24
2.30190E-03 7.86398E-24
2.38630E-03 7.05159E-24
2.47222E-03 6.32626E-24
2.55965E-03 5.67811E-24
2.64859E-03 5.09849E-24
2.73905E-03 4.57980E-24
2.83103E-03 4.11532E-24
2.92452E-03 3.69913E-24
3.01952E-03 3.32601E-24
3.11604E-03 2.99133E-24
3.21407E-03 2.69098E-24
3.31362E-03 2.42132E-24
3.41468E-03 2.17914E-24
3.51725E-03 1.96154E-24
3.62133E-03 1.76597E-24
3.72692E-03 1.59016E-24
3.83403E-03 1.43206E-24
3.94265E-03 1.28986E-24
4.05278E-03 1.16193E-24
4.16442E-03 1.04683E-24
4.27757E-03 9.43254E-25
4.39223E-03 8.50035E-25
4.50840E-03 7.66131E-25
4.62608E-03 6.90605E-25
4.74527E-03 6.22617E-25
4.86597E-03 5.61413E-25
4.98817E-03 5.06314E-25
5.11188E-03 4.56711E-25
5.23711E-03 4.12056E-25
5.36383E-03 3.71856E-25
5.49207E-03 3.35667E-25
5.62181E-03 3.03090E-25
5.75306E-03 2.73765E-25
5.88581E-03 2.47368E-25
6.02007E-03 2.23607E-25
6.15583E-03 2.02220E-25
6.29310E-03 1.82970E-25
6.43187E-03 1.65642E-25
6.57214E-03 1.50046E-25
6.71392E-03 1.36006E-25
6.85720E-03 1.23368E-25
7.00198E-03 1.11990E-25
7.14827E-03 1.01746E-25
7.29605E-03 9.25205E-26
7.44534E-03 8.42112E-26
7.59612E-03 7.67251E-26
7.97965E-03 6.10837E-26
8.37255E-03 4.89945E-26
8.77480E-03 3.96174E-26
9.18641E-03 3.23089E-26
9.60736E-03 2.65772E-26
1.00376E-02 2.20473E-26
1.04773E-02 1.84347E-26
1.09262E-02 1.55238E-26
1.13844E-02 1.31520E-26
1.18520E-02 1.11970E-26
1.23288E-02 9.56696E-27
1.28150E-02 8.19323E-27
1.33104E-02 7.02437E-27
1.38150E-02 6.02183E-27
1.43290E-02 5.15653E-27
1.48521E-02 4.40641E-27
1.53845E-02 3.75445E-27
1.59262E-02 3.18733E-27
1.64770E-02 2.69435E-27
1.70371E-02 2.26672E-27
1.76063E-02 1.89700E-27
1.81848E-02 1.57874E-27
1.87724E-02 1.30622E-27
1.93692E-02 1.07428E-27
1.99751E-02 8.78223E-28
2.05901E-02 7.13743E-28
2.12143E-02 5.76872E-28
2.18476E-02 4.63969E-28
2.24900E-02 3.71703E-28
2.31415E-02 2.97047E-28
2.38021E-02 2.37271E-28
2.44717E-02 1.89930E-28
2.51504E-02 1.52863E-28
2.58382E-02 1.24174E-28
2.65349E-02 1.02220E-28
2.72407E-02 8.55964E-29
2.79555E-02 7.31159E-29
2.86793E-02 6.37905E-29
2.94120E-02 5.68106E-29
3.01537E-02 5.15250E-29
3.09043E-02 4.74202E-29
3.16639E-02 4.41011E-29
3.24324E-02 4.12730E-29
3.32098E-02 3.87239E-29
3.39961E-02 3.63093E-29
3.47912E-02 3.39383E-29
3.55952E-02 3.15616E-29
3.64081E-02 2.91603E-29
3.72297E-02 2.67376E-29
3.80602E-02 2.43112E-29
3.88995E-02 2.19072E-29
3.97476E-02 1.95557E-29
4.06044E-02 1.72868E-29
4.14700E-02 1.51286E-29
4.23443E-02 1.31048E-29
4.32273E-02 1.12343E-29
4.41190E-02 9.53052E-30
4.50194E-02 8.00102E-30
4.59284E-02 6.64831E-30
4.68461E-02 5.47009E-30
4.87074E-02 3.60832E-30
5.06030E-02 2.32976E-30
5.25328E-02 1.51982E-30
5.44967E-02 1.05653E-30
5.64946E-02 8.26533E-31
5.85262E-02 7.35011E-31
6.05914E-02 7.10159E-31
6.26901E-02 7.03342E-31
6.48222E-02 6.86331E-31
6.69873E-02 6.46950E-31
6.91854E-02 5.84229E-31
7.14163E-02 5.03876E-31
7.36799E-02 4.14532E-31
7.59760E-02 3.25038E-31
7.83043E-02 2.42718E-31
8.06647E-02 1.72539E-31
8.30571E-02 1.16961E-31
8.54812E-02 7.62386E-32
8.79369E-02 4.89751E-32
9.04240E-02 3.27519E-32
9.29422E-02 2.47203E-32
9.54915E-02 2.20758E-32
9.80716E-02 2.23847E-32
1.00682E-01 2.37644E-32
1.03323E-01 2.49362E-32
1.05995E-01 2.51837E-32
1.08696E-01 2.42520E-32
1.11427E-01 2.22189E-32
1.14188E-01 1.93643E-32
1.16978E-01 1.60557E-32
1.19797E-01 1.26598E-32
1.22645E-01 9.48334E-33
1.25522E-01 6.74254E-33
1.28428E-01 4.55517E-33
1.31361E-01 2.94971E-33
1.34323E-01 1.88457E-33
1.37313E-01 1.27171E-33
1.40330E-01 9.99923E-34
1.43375E-01 9.54634E-34
1.46447E-01 1.03264E-33
1.49545E-01 1.15119E-33
1.52671E-01 1.25188E-33
1.55823E-01 1.30039E-33
1.59001E-01 1.28323E-33
1.62205E-01 1.20284E-33
1.65435E-01 1.07216E-33
1.68690E-01 9.09449E-34
1.71970E-01 7.34004E-34
1.75276E-01 5.63045E-34
1.78606E-01 4.09798E-34
1.81961E-01 2.82702E-34
1.85340E-01 1.85480E-34
1.88743E-01 1.17827E-34
1.92169E-01 7.64453E-35
1.95619E-01 5.61849E-35
1.99092E-01 5.11189E-35
2.02589E-01 5.54280E-35
2.06107E-01 6.40391E-35
2.09649E-01 7.30020E-35
2.13212E-01 7.96318E-35
2.16797E-01 8.24605E-35
2.20404E-01 8.10589E-35
2.24032E-01 7.57830E-35
2.27680E-01 6.74979E-35
2.31350E-01 5.73182E-35
2.35040E-01 4.63896E-35
2.38751E-01 3.57296E-35
2.42481E-01 2.61278E-35
2.46231E-01 1.81012E-35
2.50000E-01 1.18961E-35
2.53788E-01 7.52288E-36
2.57595E-01 4.80971E-36
2.61421E-01 3.46529E-36
2.65264E-01 3.13918E-36
2.69126E-01 3.47407E-36
2.73005E-01 4.14569E-36
2.76901E-01 4.88897E-36
2.80814E-01 5.51096E-36
2.84744E-01 5.89254E-36
2.88691E-01 5.98161E-36
2.92653E-01 5.78066E-36
2.96632E-01 5.33158E-36
3.00625E-01 4.70008E-36
3.04634E-01 3.96167E-36
3.08658E-01 3.19001E-36
3.12697E-01 2.44873E-36
3.16749E-01 1.78644E-36
3.20816E-01 1.23458E-36
3.24896E-01 8.07854E-37
3.28990E-01 5.06429E-37
3.33097E-01 3.19141E-37
3.37216E-01 2.27143E-37
3.41348E-01 2.07596E-37
3.45492E-01 2.36769E-37
3.49647E-01 2.92592E-37
3.53814E-01 3.56391E-37
3.57992E-01 4.13880E-37
3.62181E-01 4.55469E-37
3.66381E-01 4.76022E-37
3.70590E-01 4.74263E-37
3.74810E-01 4.51938E-37
3.79039E-01 4.12819E-37
3.83277E-01 3.61869E-37
3.87524E-01 3.04381E-37
3.91780E-01 2.45371E-37
3.96044E-01 1.89082E-37
4.00316E-01 1.38790E-37
4.04596E-01 9.65788E-38
4.08882E-01 6.34941E-38
4.13176E-01 3.96213E-38
4.17476E-01 1.00000E-45
4.21783E-01 1.00000E-45
4.26095E-01 1.00000E-45
4.30413E-01 1.00000E-45
4.34737E-01 1.00000E-45
4.39065E-01 1.00000E-45
4.43398E-01 1.00000E-45
4.47736E-01 1.00000E-45
4.52077E-01 1.00000E-45
4.56422E-01 1.00000E-45
4.60770E-01 1.00000E-45
4.65122E-01 1.00000E-45
4.69476E-01 1.00000E-45
4.73832E-01 1.00000E-45
4.78190E-01 1.00000E-45
4.82550E-01 1.00000E-45
4.86912E-01 1.00000E-45
4.91274E-01 1.00000E-45
4.95637E-01 1.00000E-45
5.00000E-01 1.00000E-45
5.04363E-01 1.00000E-45
5.08726E-01 1.00000E-45
5.13088E-01 1.00000E-45
5.17450E-01 1.00000E-45
5.21810E-01 1.00000E-45
5.26168E-01 1.00000E-45
5.30524E-01 1.00000E-45
5.34878E-01 1.00000E-45
5.39230E-01 1.00000E-45
5.43578E-01 1.00000E-45
5.47923E-01 1.00000E-45
5.52264E-01 1.00000E-45
5.56602E-01 1.00000E-45
5.60935E-01 1.00000E-45
5.65263E-01 1.00000E-45
5.69587E-01 1.00000E-45
5.73905E-01 1.00000E-45
5.78217E-01 1.00000E-45
5.82524E-01 1.00000E-45
5.86824E-01 1.00000E-45
5.91118E-01 1.00000E-45
5.95404E-01 1.00000E-45
5.99684E-01 1.00000E-45
6.03956E-01 1.00000E-45
6.08220E-01 1.00000E-45
6.12476E-01 1.00000E-45
6.16723E-01 1.00000E-45
6.20961E-01 1.00000E-45
6.25190E-01 1.00000E-45
6.29410E-01 1.00000E-45
6.33619E-01 1.00000E-45
6.37819E-01 1.00000E-45
6.42008E-01 1.00000E-45
6.46186E-01 1.00000E-45
6.50353E-01 1.00000E-45
6.54508E-01 1.00000E-45
6.58652E-01 1.00000E-45
6.62784E-01 1.00000E-45
6.66903E-01 1.00000E-45
6.71010E-01 1.00000E-45
6.75104E-01 1.00000E-45
6.79184E-01 1.00000E-45
6.83251E-01 1.00000E-45
6.87303E-01 1.00000E-45
6.91342E-01 1.00000E-45
6.95366E-01 1.00000E-45
6.99375E-01 1.00000E-45
7.03368E-01 1.00000E-45
7.07347E-01 1.00000E-45
7.11309E-01 1.00000E-45
7.15256E-01 1.00000E-45
7.19186E-01 1.00000E-45
7.23099E-01 1.00000E-45
7.26995E-01 1.00000E-45
7.30874E-01 1.00000E-45
7.34736E-01 1.00000E-45
7.38579E-01 1.00000E-45
7.42405E-01 1.00000E-45
7.46212E-01 1.00000E-45
7.50000E-01 1.00000E-45
7.53769E-01 1.00000E-45
7.57519E-01 1.00000E-45
7.61249E-01 1.00000E-45
7.64960E-01 1.00000E-45
7.68650E-01 1.00000E-45
7.72320E-01 1.00000E-45
7.75968E-01 1.00000E-45
7.79596E-01 1.00000E-45
7.83203E-01 1.00000E-45
7.86788E-01 1.00000E-45
7.90351E-01 1.00000E-45
7.93893E-01 1.00000E-45
7.97411E-01 1.00000E-45
8.00908E-01 1.00000E-45
8.04381E-01 1.00000E-45
8.07831E-01 1.00000E-45
8.11257E-01 1.00000E-45
8.14660E-01 1.00000E-45
8.18039E-01 1.00000E-45
8.21394E-01 1.00000E-45
8.24724E-01 1.00000E-45
8.28030E-01 1.00000E-45
8.31310E-01 1.00000E-45
8.34565E-01 1.00000E-45
8.37795E-01 1.00000E-45
8.40999E-01 1.00000E-45
8.44177E-01 1.00000E-45
8.47329E-01 1.00000E-45
8.50455E-01 1.00000E-45
8.53553E-01 1.00000E-45
8.56625E-01 1.00000E-45
8.59670E-01 1.00000E-45
8.62687E-01 1.00000E-45
8.65677E-01 1.00000E-45
8.68639E-01 1.00000E-45
8.71572E-01 1.00000E-45
8.74478E-01 1.00000E-45
8.77355E-01 1.00000E-45
8.80203E-01 1.00000E-45
8.83022E-01 1.00000E-45
8.85812E-01 1.00000E-45
8.88573E-01 1.00000E-45
8.91304E-01 1.00000E-45
8.94005E-01 1.00000E-45
8.96677E-01 1.00000E-45
8.99318E-01 1.00000E-45
9.01928E-01 1.00000E-45
9.04508E-01 1.00000E-45
9.07058E-01 1.00000E-45
9.09576E-01 1.00000E-45
9.12063E-01 1.00000E-45
9.14519E-01 1.00000E-45
9.16943E-01 1.00000E-45
9.19335E-01 1.00000E-45
9.21696E-01 1.00000E-45
9.24024E-01 1.00000E-45
9.26320E-01 1.00000E-45
9.28584E-01 1.00000E-45
9.30815E-01 1.00000E-45
9.33013E-01 1.00000E-45
9.35178E-01 1.00000E-45
9.37310E-01 1.00000E-45
9.39409E-01 1.00000E-45
9.41474E-01 1.00000E-45
9.43505E-01 1.00000E-45
9.45503E-01 1.00000E-45
9.47467E-01 1.00000E-45
9.49397E-01 1.00000E-45
9.51293E-01 1.00000E-45
9.53154E-01 1.00000E-45
9.54981E-01 1.00000E-45
9.56773E-01 1.00000E-45
9.58530E-01 1.00000E-45
9.60252E-01 1.00000E-45
9.61940E-01 1.00000E-45
9.63592E-01 1.00000E-45
9.65209E-01 1.00000E-45
9.66790E-01 1.00000E-45
9.68336E-01 1.00000E-45
9.69846E-01 1.00000E-45
9.71321E-01 1.00000E-45
9.72759E-01 1.00000E-45
9.74162E-01 1.00000E-45
9.75528E-01 1.00000E-45
9.76858E-01 1.00000E-45
9.78152E-01 1.00000E-45
9.79410E-01 1.00000E-45
9.80631E-01 1.00000E-45
9.81815E-01 1.00000E-45
9.82963E-01 1.00000E-45
9.84074E-01 1.00000E-45
9.85148E-01 1.00000E-45
9.86185E-01 1.00000E-45
9.87185E-01 1.00000E-45
9.88148E-01 1.00000E-45
9.89074E-01 1.00000E-45
9.89962E-01 1.00000E-45
9.90814E-01 1.00000E-45
9.91627E-01 1.00000E-45
9.92404E-01 1.00000E-45
9.93143E-01 1.00000E-45
9.93844E-01 1.00000E-45
9.94508E-01 1.00000E-45
9.95134E-01 1.00000E-45
9.95722E-01 1.00000E-45
9.96273E-01 1.00000E-45
9.96786E-01 1.00000E-45
9.97261E-01 1.00000E-45
9.97698E-01 1.00000E-45
9.98097E-01 1.00000E-45
9.98459E-01 1.00000E-45
9.98782E-01 1.00000E-45
9.99067E-01 1.00000E-45
9.99315E-01 1.00000E-45
9.99524E-01 1.00000E-45
9.99695E-01 1.00000E-45
9.99829E-01 1.00000E-45
9.99924E-01 1.00000E-45
9.99981E-01 1.00000E-45
1.00000E+00 1.00000E-45
