 #
 # Subroutine ELSEPA. Elastic scattering of electrons and positrons
 #                    by neutral atoms and positive ions
 #
 # Projectile: positron
 # Kinetic energy = 2.00000E+08 eV = 7.34987E+06 a.u.
 #
 # WARNING: High-energy factorization with free-atom DF screening.
 #          Absorption, polarization and exchange corrections are
 #          switched off.
 #          Phase shifts are calculated for the bare nucleus.
 #          Scattering amplitudes are not evaluated.
 #
 # Element:  U,  Z =  92,  atomic weight = 2.38029E+02 g/mol
 #
 # Nuclear model: Fermi distribution
 #                Average radius = 6.63122E-13 cm
 #                Skin thickness = 5.46000E-14 cm
 #
 # Number of electrons = 92
 #
 # Total elastic cross section = 1.17257E-17 cm**2 = 4.18731E-01 a0**2
 # 1st transport cross section = 3.83769E-25 cm**2 = 1.37046E-08 a0**2
 # 2nd transport cross section = 1.14837E-24 cm**2 = 4.10090E-08 a0**2
 #
 #
 # Differential cross section:                       MU=(1-COS(THETA))/2
 #
 #  THETA        MU          DCS          DCS        Sherman      error
 #  (deg)                 (cm**2/sr)   (a0**2/sr)    function
 #----------------------------------------------------------------------
0.00000E+00 5.31606E-09
7.61557E-13 5.23075E-09
1.18994E-12 5.18381E-09
1.71346E-12 5.12740E-09
2.33225E-12 5.06205E-09
3.04617E-12 4.98838E-09
3.85530E-12 4.90705E-09
4.75964E-12 4.81879E-09
5.75917E-12 4.72433E-09
6.85391E-12 4.62463E-09
8.04379E-12 4.52004E-09
9.32893E-12 4.41154E-09
1.07092E-11 4.30015E-09
1.21847E-11 4.18602E-09
1.37554E-11 4.07042E-09
1.54213E-11 3.95380E-09
1.71823E-11 3.83634E-09
1.90386E-11 3.71957E-09
2.09900E-11 3.60319E-09
2.30367E-11 3.48759E-09
2.51785E-11 3.37418E-09
2.74156E-11 3.26216E-09
2.97478E-11 3.15233E-09
3.21752E-11 3.04527E-09
3.46979E-11 2.94040E-09
3.73157E-11 2.83869E-09
4.00286E-11 2.73993E-09
4.28368E-11 2.64379E-09
4.57402E-11 2.55136E-09
4.87388E-11 2.46179E-09
5.18325E-11 2.37517E-09
5.50215E-11 2.29215E-09
5.83057E-11 2.21191E-09
6.16850E-11 2.13478E-09
6.51595E-11 2.06083E-09
6.87293E-11 1.98957E-09
7.23943E-11 1.92134E-09
7.61544E-11 1.85587E-09
1.18991E-10 1.33224E-09
1.71347E-10 9.85358E-10
2.33223E-10 7.47360E-10
3.04617E-10 5.77904E-10
3.85531E-10 4.53542E-10
4.75965E-10 3.60320E-10
5.75917E-10 2.89287E-10
6.85389E-10 2.32632E-10
8.04380E-10 1.91351E-10
9.32891E-10 1.59264E-10
1.07092E-09 1.32582E-10
1.21847E-09 1.12175E-10
1.37554E-09 9.52998E-11
1.54213E-09 8.14214E-11
1.71823E-09 7.04036E-11
1.90386E-09 6.08345E-11
2.09900E-09 5.29795E-11
2.30367E-09 4.65096E-11
2.51785E-09 4.07787E-11
2.74156E-09 3.60329E-11
2.97478E-09 3.19694E-11
3.21752E-09 2.84026E-11
3.46978E-09 2.53906E-11
3.73156E-09 2.27359E-11
4.00286E-09 2.04200E-11
4.28368E-09 1.84329E-11
4.57402E-09 1.66424E-11
4.87388E-09 1.50848E-11
5.18326E-09 1.37213E-11
5.50215E-09 1.24875E-11
5.83057E-09 1.14069E-11
6.16850E-09 1.04413E-11
6.51596E-09 9.57034E-12
6.87293E-09 8.79974E-12
7.23942E-09 8.09869E-12
7.61544E-09 7.46765E-12
1.18991E-08 3.60168E-12
1.71347E-08 1.93532E-12
2.33223E-08 1.12933E-12
3.04617E-08 7.03856E-13
3.85531E-08 4.61990E-13
4.75965E-08 3.16144E-13
5.75917E-08 2.23611E-13
6.85389E-08 1.62656E-13
8.04380E-08 1.21147E-13
9.32891E-08 9.21276E-14
1.07092E-07 7.13413E-14
1.21847E-07 5.61291E-14
1.37554E-07 4.47800E-14
1.54213E-07 3.61672E-14
1.71823E-07 2.95314E-14
1.90386E-07 2.43492E-14
2.09900E-07 2.02531E-14
2.30367E-07 1.69812E-14
2.51785E-07 1.43417E-14
2.74156E-07 1.21930E-14
2.97478E-07 1.04308E-14
3.21752E-07 8.97510E-15
3.46978E-07 7.76439E-15
3.73156E-07 6.75090E-15
4.00286E-07 5.89748E-15
4.28368E-07 5.17481E-15
4.57402E-07 4.55961E-15
4.87388E-07 4.03330E-15
5.18325E-07 3.58093E-15
5.50215E-07 3.19033E-15
5.83057E-07 2.85168E-15
6.16850E-07 2.55683E-15
6.51596E-07 2.29921E-15
6.87293E-07 2.07330E-15
7.23942E-07 1.87452E-15
7.61543E-07 1.69904E-15
1.18991E-06 7.12589E-16
1.71347E-06 3.48931E-16
2.33223E-06 1.90261E-16
3.04617E-06 1.12326E-16
3.85531E-06 7.05009E-17
4.75964E-06 4.64519E-17
5.75916E-06 3.18375E-17
6.85388E-06 2.25452E-17
8.04378E-06 1.64090E-17
9.32888E-06 1.22257E-17
1.07092E-05 9.29452E-18
1.21846E-05 7.19137E-18
1.37553E-05 5.65077E-18
1.54212E-05 4.50142E-18
1.71822E-05 3.62989E-18
1.90385E-05 2.95714E-18
2.09899E-05 2.43694E-18
2.30365E-05 2.02574E-18
2.51783E-05 1.69708E-18
2.74153E-05 1.43196E-18
2.97475E-05 1.21641E-18
3.21749E-05 1.03991E-18
3.46974E-05 8.94365E-19
3.73152E-05 7.73520E-19
4.00281E-05 6.72485E-19
4.28362E-05 5.87444E-19
4.57395E-05 5.15416E-19
4.87380E-05 4.54064E-19
5.18317E-05 4.01540E-19
5.50205E-05 3.56372E-19
5.83045E-05 3.17369E-19
6.16838E-05 2.83558E-19
6.51582E-05 2.54135E-19
6.87277E-05 2.28434E-19
7.23925E-05 2.05903E-19
7.61524E-05 1.86262E-19
9.21439E-05 1.27272E-19
1.09658E-04 8.98876E-20
1.28695E-04 6.52764E-20
1.49255E-04 4.85411E-20
1.71338E-04 3.68410E-20
1.94942E-04 2.84639E-20
2.20070E-04 2.23384E-20
2.46720E-04 1.77756E-20
2.74892E-04 1.43212E-20
3.04586E-04 1.16664E-20
3.35803E-04 9.59960E-21
3.68542E-04 7.97086E-21
4.02802E-04 6.67342E-21
4.38585E-04 5.62962E-21
4.75889E-04 4.78209E-21
5.14715E-04 4.08827E-21
5.55063E-04 3.51579E-21
5.96931E-04 3.04011E-21
6.40321E-04 2.64225E-21
6.85233E-04 2.30751E-21
7.31665E-04 2.02402E-21
7.79618E-04 1.78252E-21
8.29092E-04 1.57595E-21
8.80086E-04 1.39840E-21
9.32601E-04 1.24511E-21
9.86636E-04 1.11222E-21
1.04219E-03 9.96536E-22
1.09927E-03 8.95468E-22
1.15786E-03 8.06845E-22
1.21797E-03 7.28878E-22
1.27961E-03 6.60064E-22
1.34276E-03 5.99141E-22
1.40743E-03 5.45052E-22
1.47362E-03 4.96894E-22
1.54133E-03 4.53907E-22
1.61056E-03 4.15436E-22
1.68131E-03 3.80925E-22
1.75357E-03 3.49896E-22
1.82735E-03 3.21935E-22
1.90265E-03 2.96687E-22
1.97947E-03 2.73840E-22
2.05780E-03 2.53128E-22
2.13765E-03 2.34316E-22
2.21902E-03 2.17198E-22
2.30190E-03 2.01595E-22
2.38630E-03 1.87350E-22
2.47222E-03 1.74323E-22
2.55965E-03 1.62392E-22
2.64859E-03 1.51448E-22
2.73905E-03 1.41396E-22
2.83103E-03 1.32150E-22
2.92452E-03 1.23634E-22
3.01952E-03 1.15779E-22
3.11604E-03 1.08527E-22
3.21407E-03 1.01821E-22
3.31362E-03 9.56149E-23
3.41468E-03 8.98637E-23
3.51725E-03 8.45284E-23
3.62133E-03 7.95737E-23
3.72692E-03 7.49677E-23
3.83403E-03 7.06815E-23
3.94265E-03 6.66892E-23
4.05278E-03 6.29669E-23
4.16442E-03 5.94933E-23
4.27757E-03 5.62488E-23
4.39223E-03 5.32158E-23
4.50840E-03 5.03780E-23
4.62608E-03 4.77207E-23
4.74527E-03 4.52305E-23
4.86597E-03 4.28950E-23
4.98817E-03 4.07030E-23
5.11188E-03 3.86441E-23
5.23711E-03 3.67089E-23
5.36383E-03 3.48887E-23
5.49207E-03 3.31754E-23
5.62181E-03 3.15618E-23
5.75306E-03 3.00411E-23
5.88581E-03 2.86069E-23
6.02007E-03 2.72536E-23
6.15583E-03 2.59758E-23
6.29310E-03 2.47687E-23
6.43187E-03 2.36275E-23
6.57214E-03 2.25482E-23
6.71392E-03 2.15269E-23
6.85720E-03 2.05598E-23
7.00198E-03 1.96437E-23
7.14827E-03 1.87754E-23
7.29605E-03 1.79520E-23
7.44534E-03 1.71709E-23
7.59612E-03 1.64294E-23
7.97965E-03 1.47344E-23
8.37255E-03 1.32408E-23
8.77480E-03 1.19211E-23
9.18641E-03 1.07522E-23
9.60736E-03 9.71438E-24
1.00376E-02 8.79085E-24
1.04773E-02 7.96727E-24
1.09262E-02 7.23130E-24
1.13844E-02 6.57236E-24
1.18520E-02 5.98127E-24
1.23288E-02 5.45012E-24
1.28150E-02 4.97202E-24
1.33104E-02 4.54098E-24
1.38150E-02 4.15176E-24
1.43290E-02 3.79979E-24
1.48521E-02 3.48106E-24
1.53845E-02 3.19203E-24
1.59262E-02 2.92961E-24
1.64770E-02 2.69104E-24
1.70371E-02 2.47391E-24
1.76063E-02 2.27606E-24
1.81848E-02 2.09559E-24
1.87724E-02 1.93079E-24
1.93692E-02 1.78015E-24
1.99751E-02 1.64233E-24
2.05901E-02 1.51612E-24
2.12143E-02 1.40043E-24
2.18476E-02 1.29431E-24
2.24900E-02 1.19687E-24
2.31415E-02 1.10735E-24
2.38021E-02 1.02503E-24
2.44717E-02 9.49274E-25
2.51504E-02 8.79521E-25
2.58382E-02 8.15247E-25
2.65349E-02 7.55984E-25
2.72407E-02 7.01309E-25
2.79555E-02 6.50835E-25
2.86793E-02 6.04213E-25
2.94120E-02 5.61127E-25
3.01537E-02 5.21286E-25
3.09043E-02 4.84429E-25
3.16639E-02 4.50314E-25
3.24324E-02 4.18724E-25
3.32098E-02 3.89458E-25
3.39961E-02 3.62333E-25
3.47912E-02 3.37183E-25
3.55952E-02 3.13855E-25
3.64081E-02 2.92208E-25
3.72297E-02 2.72115E-25
3.80602E-02 2.53456E-25
3.88995E-02 2.36124E-25
3.97476E-02 2.20020E-25
4.06044E-02 2.05051E-25
4.14700E-02 1.91134E-25
4.23443E-02 1.78191E-25
4.32273E-02 1.66151E-25
4.41190E-02 1.54948E-25
4.50194E-02 1.44521E-25
4.59284E-02 1.34814E-25
4.68461E-02 1.25776E-25
4.87074E-02 1.09516E-25
5.06030E-02 9.54022E-26
5.25328E-02 8.31413E-26
5.44967E-02 7.24837E-26
5.64946E-02 6.32144E-26
5.85262E-02 5.51483E-26
6.05914E-02 4.81261E-26
6.26901E-02 4.20102E-26
6.48222E-02 3.66818E-26
6.69873E-02 3.20381E-26
6.91854E-02 2.79900E-26
7.14163E-02 2.44603E-26
7.36799E-02 2.13820E-26
7.59760E-02 1.86970E-26
7.83043E-02 1.63546E-26
8.06647E-02 1.43109E-26
8.30571E-02 1.25276E-26
8.54812E-02 1.09715E-26
8.79369E-02 9.61332E-27
9.04240E-02 8.42790E-27
9.29422E-02 7.39315E-27
9.54915E-02 6.48982E-27
9.80716E-02 5.70111E-27
1.00682E-01 5.01239E-27
1.03323E-01 4.41086E-27
1.05995E-01 3.88538E-27
1.08696E-01 3.42621E-27
1.11427E-01 3.02485E-27
1.14188E-01 2.67390E-27
1.16978E-01 2.36688E-27
1.19797E-01 2.09815E-27
1.22645E-01 1.86279E-27
1.25522E-01 1.65652E-27
1.28428E-01 1.47558E-27
1.31361E-01 1.31673E-27
1.34323E-01 1.17711E-27
1.37313E-01 1.05427E-27
1.40330E-01 9.46038E-28
1.43375E-01 8.50547E-28
1.46447E-01 7.66166E-28
1.49545E-01 6.91477E-28
1.52671E-01 6.25247E-28
1.55823E-01 5.66406E-28
1.59001E-01 5.14022E-28
1.62205E-01 4.67288E-28
1.65435E-01 4.25503E-28
1.68690E-01 3.88056E-28
1.71970E-01 3.54420E-28
1.75276E-01 3.24135E-28
1.78606E-01 2.96803E-28
1.81961E-01 2.72079E-28
1.85340E-01 2.49662E-28
1.88743E-01 2.29291E-28
1.92169E-01 2.10740E-28
1.95619E-01 1.93810E-28
1.99092E-01 1.78331E-28
2.02589E-01 1.64151E-28
2.06107E-01 1.51141E-28
2.09649E-01 1.39185E-28
2.13212E-01 1.28183E-28
2.16797E-01 1.18046E-28
2.20404E-01 1.08697E-28
2.24032E-01 1.00066E-28
2.27680E-01 9.20929E-29
2.31350E-01 8.47229E-29
2.35040E-01 7.79076E-29
2.38751E-01 7.16033E-29
2.42481E-01 6.57708E-29
2.46231E-01 6.03747E-29
2.50000E-01 5.53828E-29
2.53788E-01 5.07659E-29
2.57595E-01 4.64971E-29
2.61421E-01 4.25519E-29
2.65264E-01 3.89076E-29
2.69126E-01 3.55433E-29
2.73005E-01 3.24396E-29
2.76901E-01 2.95785E-29
2.80814E-01 2.69432E-29
2.84744E-01 2.45181E-29
2.88691E-01 2.22886E-29
2.92653E-01 2.02410E-29
2.96632E-01 1.83624E-29
3.00625E-01 1.66408E-29
3.04634E-01 1.50650E-29
3.08658E-01 1.36243E-29
3.12697E-01 1.23089E-29
3.16749E-01 1.11094E-29
3.20816E-01 1.00170E-29
3.24896E-01 9.02367E-30
3.28990E-01 8.12160E-30
3.33097E-01 7.30363E-30
3.37216E-01 6.56303E-30
3.41348E-01 5.89352E-30
3.45492E-01 5.28921E-30
3.49647E-01 4.74464E-30
3.53814E-01 4.25470E-30
3.57992E-01 3.81464E-30
3.62181E-01 3.42007E-30
3.66381E-01 3.06688E-30
3.70590E-01 2.75129E-30
3.74810E-01 2.46980E-30
3.79039E-01 2.21917E-30
3.83277E-01 1.99643E-30
3.87524E-01 1.79881E-30
3.91780E-01 1.62381E-30
3.96044E-01 1.46911E-30
4.00316E-01 1.33259E-30
4.04596E-01 1.21231E-30
4.08882E-01 1.10652E-30
4.13176E-01 1.01360E-30
4.17476E-01 9.32100E-31
4.21783E-01 8.60695E-31
4.26095E-01 7.98190E-31
4.30413E-01 7.43507E-31
4.34737E-01 6.95675E-31
4.39065E-01 6.53822E-31
4.43398E-01 6.17169E-31
4.47736E-01 5.85019E-31
4.52077E-01 5.56752E-31
4.56422E-01 5.31819E-31
4.60770E-01 5.09732E-31
4.65122E-01 4.90064E-31
4.69476E-01 4.72438E-31
4.73832E-01 4.56524E-31
4.78190E-01 4.42037E-31
4.82550E-01 4.28729E-31
4.86912E-01 4.16387E-31
4.91274E-01 4.04828E-31
4.95637E-01 3.93896E-31
5.00000E-01 3.83462E-31
5.04363E-01 3.73416E-31
5.08726E-01 3.63668E-31
5.13088E-01 3.54144E-31
5.17450E-01 3.44787E-31
5.21810E-01 3.35549E-31
5.26168E-01 3.26395E-31
5.30524E-01 3.17299E-31
5.34878E-01 3.08245E-31
5.39230E-01 2.99219E-31
5.43578E-01 2.90219E-31
5.47923E-01 2.81241E-31
5.52264E-01 2.72290E-31
5.56602E-01 2.63372E-31
5.60935E-01 2.54494E-31
5.65263E-01 2.45668E-31
5.69587E-01 2.36905E-31
5.73905E-01 2.28216E-31
5.78217E-01 2.19616E-31
5.82524E-01 2.11116E-31
5.86824E-01 2.02730E-31
5.91118E-01 1.94470E-31
5.95404E-01 1.86348E-31
5.99684E-01 1.78376E-31
6.03956E-01 1.70563E-31
6.08220E-01 1.62920E-31
6.12476E-01 1.55455E-31
6.16723E-01 1.48177E-31
6.20961E-01 1.41092E-31
6.25190E-01 1.34206E-31
6.29410E-01 1.27524E-31
6.33619E-01 1.21049E-31
6.37819E-01 1.14786E-31
6.42008E-01 1.08735E-31
6.46186E-01 1.02899E-31
6.50353E-01 9.72775E-32
6.54508E-01 9.18706E-32
6.58652E-01 8.66773E-32
6.62784E-01 8.16959E-32
6.66903E-01 7.69243E-32
6.71010E-01 7.23595E-32
6.75104E-01 6.79984E-32
6.79184E-01 6.38371E-32
6.83251E-01 5.98716E-32
6.87303E-01 5.60975E-32
6.91342E-01 5.25098E-32
6.95366E-01 4.91037E-32
6.99375E-01 4.58738E-32
7.03368E-01 4.28147E-32
7.07347E-01 3.99208E-32
7.11309E-01 3.71866E-32
7.15256E-01 3.46062E-32
7.19186E-01 3.21738E-32
7.23099E-01 2.98837E-32
7.26995E-01 2.77301E-32
7.30874E-01 2.57072E-32
7.34736E-01 2.38092E-32
7.38579E-01 2.20307E-32
7.42405E-01 2.03659E-32
7.46212E-01 1.88096E-32
7.50000E-01 1.73563E-32
7.53769E-01 1.60008E-32
7.57519E-01 1.47382E-32
7.61249E-01 1.35634E-32
7.64960E-01 1.24716E-32
7.68650E-01 1.14583E-32
7.72320E-01 1.05191E-32
7.75968E-01 9.64947E-33
7.79596E-01 8.84544E-33
7.83203E-01 8.10300E-33
7.86788E-01 7.41833E-33
7.90351E-01 6.78779E-33
7.93893E-01 6.20789E-33
7.97411E-01 5.67531E-33
8.00908E-01 5.18689E-33
8.04381E-01 4.73962E-33
8.07831E-01 4.33064E-33
8.11257E-01 3.95723E-33
8.14660E-01 3.61683E-33
8.18039E-01 3.30702E-33
8.21394E-01 3.02551E-33
8.24724E-01 2.77013E-33
8.28030E-01 2.53885E-33
8.31310E-01 2.32976E-33
8.34565E-01 2.14108E-33
8.37795E-01 1.97111E-33
8.40999E-01 1.81829E-33
8.44177E-01 1.68113E-33
8.47329E-01 1.55829E-33
8.50455E-01 1.44846E-33
8.53553E-01 1.35047E-33
8.56625E-01 1.26320E-33
8.59670E-01 1.18563E-33
8.62687E-01 1.11681E-33
8.65677E-01 1.05586E-33
8.68639E-01 1.00197E-33
8.71572E-01 9.54389E-34
8.74478E-01 9.12438E-34
8.77355E-01 8.75480E-34
8.80203E-01 8.42942E-34
8.83022E-01 8.14289E-34
8.85812E-01 7.89043E-34
8.88573E-01 7.66767E-34
8.91304E-01 7.47056E-34
8.94005E-01 7.29552E-34
8.96677E-01 7.13930E-34
8.99318E-01 6.99899E-34
9.01928E-01 6.87187E-34
9.04508E-01 6.75571E-34
9.07058E-01 6.64828E-34
9.09576E-01 6.54778E-34
9.12063E-01 6.45259E-34
9.14519E-01 6.36123E-34
9.16943E-01 6.27245E-34
9.19335E-01 6.18515E-34
9.21696E-01 6.09843E-34
9.24024E-01 6.01146E-34
9.26320E-01 5.92360E-34
9.28584E-01 5.83425E-34
9.30815E-01 5.74299E-34
9.33013E-01 5.64948E-34
9.35178E-01 5.55343E-34
9.37310E-01 5.45460E-34
9.39409E-01 5.35297E-34
9.41474E-01 5.24837E-34
9.43505E-01 5.14084E-34
9.45503E-01 5.03039E-34
9.47467E-01 4.91709E-34
9.49397E-01 4.80108E-34
9.51293E-01 4.68243E-34
9.53154E-01 4.56136E-34
9.54981E-01 4.43805E-34
9.56773E-01 4.31270E-34
9.58530E-01 4.18551E-34
9.60252E-01 4.05672E-34
9.61940E-01 3.92657E-34
9.63592E-01 3.79531E-34
9.65209E-01 3.66317E-34
9.66790E-01 3.53043E-34
9.68336E-01 3.39733E-34
9.69846E-01 3.26412E-34
9.71321E-01 3.13105E-34
9.72759E-01 2.99837E-34
9.74162E-01 2.86632E-34
9.75528E-01 2.73514E-34
9.76858E-01 2.60507E-34
9.78152E-01 2.47631E-34
9.79410E-01 2.34911E-34
9.80631E-01 2.22365E-34
9.81815E-01 2.10017E-34
9.82963E-01 1.97883E-34
9.84074E-01 1.85985E-34
9.85148E-01 1.74338E-34
9.86185E-01 1.62962E-34
9.87185E-01 1.51871E-34
9.88148E-01 1.41082E-34
9.89074E-01 1.30608E-34
9.89962E-01 1.20466E-34
9.90814E-01 1.10667E-34
9.91627E-01 1.01223E-34
9.92404E-01 9.21478E-35
9.93143E-01 8.34510E-35
9.93844E-01 7.51422E-35
9.94508E-01 6.72326E-35
9.95134E-01 5.97303E-35
9.95722E-01 5.26435E-35
9.96273E-01 4.59804E-35
9.96786E-01 3.97471E-35
9.97261E-01 3.39515E-35
9.97698E-01 2.85982E-35
9.98097E-01 2.36928E-35
9.98459E-01 1.92405E-35
9.98782E-01 1.52456E-35
9.99067E-01 1.17121E-35
9.99315E-01 8.64299E-36
9.99524E-01 6.04130E-36
9.99695E-01 3.90922E-36
9.99829E-01 2.24887E-36
9.99924E-01 1.06194E-36
9.99981E-01 3.49195E-37
1.00000E+00 1.11683E-37
