 #
 # Subroutine ELSEPA. Elastic scattering of electrons and positrons
 #                    by neutral atoms and positive ions
 #
 # Projectile: positron
 # Kinetic energy = 5.00000E+07 eV = 1.83747E+06 a.u.
 #
 # WARNING: High-energy factorization with free-atom DF screening.
 #          Absorption, polarization and exchange corrections are
 #          switched off.
 #          Phase shifts are calculated for the bare nucleus.
 #          Scattering amplitudes are not evaluated.
 #
 # Element:  U,  Z =  92,  atomic weight = 2.38029E+02 g/mol
 #
 # Nuclear model: Fermi distribution
 #                Average radius = 6.63122E-13 cm
 #                Skin thickness = 5.46000E-14 cm
 #
 # Number of electrons = 92
 #
 # Total elastic cross section = 1.17225E-17 cm**2 = 4.18617E-01 a0**2
 # 1st transport cross section = 5.61185E-24 cm**2 = 2.00403E-07 a0**2
 # 2nd transport cross section = 1.64658E-23 cm**2 = 5.88005E-07 a0**2
 #
 #
 # Differential cross section:                       MU=(1-COS(THETA))/2
 #
 #  THETA        MU          DCS          DCS        Sherman      error
 #  (deg)                 (cm**2/sr)   (a0**2/sr)    function
 #----------------------------------------------------------------------
0.00000E+00 3.37354E-10
7.61557E-13 3.37004E-10
1.18994E-12 3.36808E-10
1.71346E-12 3.36569E-10
2.33225E-12 3.36288E-10
3.04617E-12 3.35963E-10
3.85530E-12 3.35596E-10
4.75964E-12 3.35187E-10
5.75917E-12 3.34735E-10
6.85391E-12 3.34242E-10
8.04379E-12 3.33707E-10
9.32893E-12 3.33131E-10
1.07092E-11 3.32515E-10
1.21847E-11 3.31858E-10
1.37554E-11 3.31161E-10
1.54213E-11 3.30425E-10
1.71823E-11 3.29649E-10
1.90386E-11 3.28835E-10
2.09900E-11 3.27983E-10
2.30367E-11 3.27093E-10
2.51785E-11 3.26166E-10
2.74156E-11 3.25203E-10
2.97478E-11 3.24204E-10
3.21752E-11 3.23170E-10
3.46979E-11 3.22100E-10
3.73157E-11 3.20997E-10
4.00286E-11 3.19861E-10
4.28368E-11 3.18692E-10
4.57402E-11 3.17490E-10
4.87388E-11 3.16258E-10
5.18325E-11 3.14994E-10
5.50215E-11 3.13701E-10
5.83057E-11 3.12378E-10
6.16850E-11 3.11027E-10
6.51595E-11 3.09648E-10
6.87293E-11 3.08243E-10
7.23943E-11 3.06810E-10
7.61544E-11 3.05353E-10
1.18991E-10 2.89560E-10
1.71347E-10 2.72065E-10
2.33223E-10 2.53627E-10
3.04617E-10 2.34915E-10
3.85531E-10 2.16480E-10
4.75965E-10 1.98742E-10
5.75917E-10 1.81993E-10
6.85389E-10 1.66413E-10
8.04380E-10 1.52091E-10
9.32891E-10 1.39040E-10
1.07092E-09 1.27212E-10
1.21847E-09 1.16539E-10
1.37554E-09 1.06931E-10
1.54213E-09 9.82917E-11
1.71823E-09 9.05234E-11
1.90386E-09 8.35323E-11
2.09900E-09 7.72311E-11
2.30367E-09 7.15403E-11
2.51785E-09 6.63889E-11
2.74156E-09 6.17139E-11
2.97478E-09 5.74603E-11
3.21752E-09 5.35754E-11
3.46978E-09 5.00213E-11
3.73156E-09 4.67629E-11
4.00286E-09 4.37689E-11
4.28368E-09 4.10122E-11
4.57402E-09 3.84694E-11
4.87388E-09 3.61196E-11
5.18326E-09 3.39448E-11
5.50215E-09 3.19291E-11
5.83057E-09 3.00583E-11
6.16850E-09 2.83200E-11
6.51596E-09 2.67031E-11
6.87293E-09 2.51967E-11
7.23942E-09 2.37911E-11
7.61544E-09 2.24803E-11
1.18991E-08 1.31084E-11
1.71347E-08 8.24768E-12
2.33223E-08 5.46574E-12
3.04617E-08 3.77750E-12
3.85531E-08 2.69949E-12
4.75965E-08 1.98242E-12
5.75917E-08 1.48989E-12
6.85389E-08 1.14262E-12
8.04380E-08 8.91810E-13
9.32891E-08 7.06949E-13
1.07092E-07 5.68337E-13
1.21847E-07 4.62502E-13
1.37554E-07 3.80379E-13
1.54213E-07 3.15743E-13
1.71823E-07 2.64239E-13
1.90386E-07 2.22759E-13
2.09900E-07 1.89086E-13
2.30367E-07 1.61495E-13
2.51785E-07 1.38580E-13
2.74156E-07 1.19589E-13
2.97478E-07 1.03763E-13
3.21752E-07 9.04812E-14
3.46978E-07 7.92742E-14
3.73156E-07 6.97604E-14
4.00286E-07 6.16374E-14
4.28368E-07 5.46667E-14
4.57402E-07 4.86577E-14
4.87388E-07 4.34567E-14
5.18325E-07 3.89379E-14
5.50215E-07 3.49973E-14
5.83057E-07 3.15482E-14
6.16850E-07 2.85181E-14
6.51596E-07 2.58462E-14
6.87293E-07 2.34815E-14
7.23942E-07 2.13809E-14
7.61543E-07 1.95104E-14
1.18991E-06 8.62908E-15
1.71347E-06 4.39866E-15
2.33223E-06 2.47715E-15
3.04617E-06 1.49999E-15
3.85531E-06 9.60091E-16
4.75964E-06 6.42188E-16
5.75916E-06 4.45318E-16
6.85388E-06 3.18413E-16
8.04378E-06 2.33696E-16
9.32888E-06 1.75397E-16
1.07092E-05 1.34222E-16
1.21846E-05 1.04469E-16
1.37553E-05 8.25274E-17
1.54212E-05 6.60563E-17
1.71822E-05 5.34967E-17
1.90385E-05 4.37503E-17
2.09899E-05 3.61778E-17
2.30365E-05 3.01662E-17
2.51783E-05 2.53421E-17
2.74153E-05 2.14362E-17
2.97475E-05 1.82503E-17
3.21749E-05 1.56339E-17
3.46974E-05 1.34707E-17
3.73152E-05 1.16702E-17
4.00281E-05 1.01617E-17
4.28362E-05 8.88944E-18
4.57395E-05 7.80986E-18
4.87380E-05 6.88877E-18
5.18317E-05 6.09903E-18
5.50205E-05 5.41889E-18
5.83045E-05 4.83082E-18
6.16838E-05 4.32039E-18
6.51582E-05 3.87570E-18
6.87277E-05 3.48685E-18
7.23925E-05 3.14560E-18
7.61524E-05 2.84501E-18
9.21439E-05 1.94885E-18
1.09658E-04 1.37924E-18
1.28695E-04 1.00331E-18
1.49255E-04 7.47116E-19
1.71338E-04 5.67673E-19
1.94942E-04 4.38988E-19
2.20070E-04 3.44758E-19
2.46720E-04 2.74485E-19
2.74892E-04 2.21228E-19
3.04586E-04 1.80265E-19
3.35803E-04 1.48351E-19
3.68542E-04 1.23188E-19
4.02802E-04 1.03134E-19
4.38585E-04 8.69949E-20
4.75889E-04 7.38871E-20
5.14715E-04 6.31550E-20
5.55063E-04 5.42987E-20
5.96931E-04 4.69397E-20
6.40321E-04 4.07840E-20
6.85233E-04 3.56031E-20
7.31665E-04 3.12181E-20
7.79618E-04 2.74864E-20
8.29092E-04 2.42951E-20
8.80086E-04 2.15527E-20
9.32601E-04 1.91858E-20
9.86636E-04 1.71345E-20
1.04219E-03 1.53494E-20
1.09927E-03 1.37904E-20
1.15786E-03 1.24239E-20
1.21797E-03 1.12222E-20
1.27961E-03 1.01619E-20
1.34276E-03 9.22365E-21
1.40743E-03 8.39098E-21
1.47362E-03 7.64990E-21
1.54133E-03 6.98865E-21
1.61056E-03 6.39714E-21
1.68131E-03 5.86674E-21
1.75357E-03 5.39002E-21
1.82735E-03 4.96061E-21
1.90265E-03 4.57301E-21
1.97947E-03 4.22241E-21
2.05780E-03 3.90467E-21
2.13765E-03 3.61618E-21
2.21902E-03 3.35375E-21
2.30190E-03 3.11463E-21
2.38630E-03 2.89637E-21
2.47222E-03 2.69684E-21
2.55965E-03 2.51413E-21
2.64859E-03 2.34658E-21
2.73905E-03 2.19272E-21
2.83103E-03 2.05121E-21
2.92452E-03 1.92089E-21
3.01952E-03 1.80072E-21
3.11604E-03 1.68977E-21
3.21407E-03 1.58719E-21
3.31362E-03 1.49225E-21
3.41468E-03 1.40428E-21
3.51725E-03 1.32267E-21
3.62133E-03 1.24687E-21
3.72692E-03 1.17641E-21
3.83403E-03 1.11083E-21
3.94265E-03 1.04973E-21
4.05278E-03 9.92770E-22
4.16442E-03 9.39593E-22
4.27757E-03 8.89914E-22
4.39223E-03 8.43463E-22
4.50840E-03 7.99985E-22
4.62608E-03 7.59260E-22
4.74527E-03 7.21082E-22
4.86597E-03 6.85259E-22
4.98817E-03 6.51623E-22
5.11188E-03 6.20016E-22
5.23711E-03 5.90290E-22
5.36383E-03 5.62316E-22
5.49207E-03 5.35970E-22
5.62181E-03 5.11140E-22
5.75306E-03 4.87724E-22
5.88581E-03 4.65625E-22
6.02007E-03 4.44757E-22
6.15583E-03 4.25038E-22
6.29310E-03 4.06393E-22
6.43187E-03 3.88753E-22
6.57214E-03 3.72054E-22
6.71392E-03 3.56236E-22
6.85720E-03 3.41245E-22
7.00198E-03 3.27029E-22
7.14827E-03 3.13540E-22
7.29605E-03 3.00736E-22
7.44534E-03 2.88574E-22
7.59612E-03 2.77016E-22
7.97965E-03 2.50539E-22
8.37255E-03 2.27130E-22
8.77480E-03 2.06375E-22
9.18641E-03 1.87921E-22
9.60736E-03 1.71470E-22
1.00376E-02 1.56768E-22
1.04773E-02 1.43601E-22
1.09262E-02 1.31783E-22
1.13844E-02 1.21138E-22
1.18520E-02 1.11531E-22
1.23288E-02 1.02849E-22
1.28150E-02 9.49879E-23
1.33104E-02 8.78565E-23
1.38150E-02 8.13755E-23
1.43290E-02 7.54751E-23
1.48521E-02 7.00944E-23
1.53845E-02 6.51796E-23
1.59262E-02 6.06834E-23
1.64770E-02 5.65638E-23
1.70371E-02 5.27839E-23
1.76063E-02 4.93108E-23
1.81848E-02 4.61152E-23
1.87724E-02 4.31710E-23
1.93692E-02 4.04551E-23
1.99751E-02 3.79465E-23
2.05901E-02 3.56269E-23
2.12143E-02 3.34793E-23
2.18476E-02 3.14888E-23
2.24900E-02 2.96420E-23
2.31415E-02 2.79265E-23
2.38021E-02 2.63315E-23
2.44717E-02 2.48470E-23
2.51504E-02 2.34640E-23
2.58382E-02 2.21743E-23
2.65349E-02 2.09706E-23
2.72407E-02 1.98460E-23
2.79555E-02 1.87946E-23
2.86793E-02 1.78106E-23
2.94120E-02 1.68890E-23
3.01537E-02 1.60252E-23
3.09043E-02 1.52149E-23
3.16639E-02 1.44542E-23
3.24324E-02 1.37395E-23
3.32098E-02 1.30676E-23
3.39961E-02 1.24354E-23
3.47912E-02 1.18402E-23
3.55952E-02 1.12795E-23
3.64081E-02 1.07508E-23
3.72297E-02 1.02521E-23
3.80602E-02 9.78139E-24
3.88995E-02 9.33675E-24
3.97476E-02 8.91652E-24
4.06044E-02 8.51912E-24
4.14700E-02 8.14310E-24
4.23443E-02 7.78711E-24
4.32273E-02 7.44989E-24
4.41190E-02 7.13028E-24
4.50194E-02 6.82720E-24
4.59284E-02 6.53965E-24
4.68461E-02 6.26669E-24
4.87074E-02 5.76112E-24
5.06030E-02 5.30425E-24
5.25328E-02 4.89060E-24
5.44967E-02 4.51542E-24
5.64946E-02 4.17456E-24
5.85262E-02 3.86435E-24
6.05914E-02 3.58159E-24
6.26901E-02 3.32346E-24
6.48222E-02 3.08746E-24
6.69873E-02 2.87139E-24
6.91854E-02 2.67329E-24
7.14163E-02 2.49142E-24
7.36799E-02 2.32424E-24
7.59760E-02 2.17037E-24
7.83043E-02 2.02858E-24
8.06647E-02 1.89777E-24
8.30571E-02 1.77694E-24
8.54812E-02 1.66522E-24
8.79369E-02 1.56181E-24
9.04240E-02 1.46600E-24
9.29422E-02 1.37712E-24
9.54915E-02 1.29461E-24
9.80716E-02 1.21794E-24
1.00682E-01 1.14661E-24
1.03323E-01 1.08021E-24
1.05995E-01 1.01834E-24
1.08696E-01 9.60644E-25
1.11427E-01 9.06789E-25
1.14188E-01 8.56484E-25
1.16978E-01 8.09456E-25
1.19797E-01 7.65460E-25
1.22645E-01 7.24270E-25
1.25522E-01 6.85678E-25
1.28428E-01 6.49495E-25
1.31361E-01 6.15548E-25
1.34323E-01 5.83676E-25
1.37313E-01 5.53735E-25
1.40330E-01 5.25588E-25
1.43375E-01 4.99111E-25
1.46447E-01 4.74191E-25
1.49545E-01 4.50722E-25
1.52671E-01 4.28606E-25
1.55823E-01 4.07754E-25
1.59001E-01 3.88083E-25
1.62205E-01 3.69515E-25
1.65435E-01 3.51979E-25
1.68690E-01 3.35410E-25
1.71970E-01 3.19746E-25
1.75276E-01 3.04931E-25
1.78606E-01 2.90911E-25
1.81961E-01 2.77637E-25
1.85340E-01 2.65065E-25
1.88743E-01 2.53151E-25
1.92169E-01 2.41855E-25
1.95619E-01 2.31142E-25
1.99092E-01 2.20977E-25
2.02589E-01 2.11327E-25
2.06107E-01 2.02163E-25
2.09649E-01 1.93456E-25
2.13212E-01 1.85181E-25
2.16797E-01 1.77313E-25
2.20404E-01 1.69830E-25
2.24032E-01 1.62709E-25
2.27680E-01 1.55930E-25
2.31350E-01 1.49476E-25
2.35040E-01 1.43328E-25
2.38751E-01 1.37469E-25
2.42481E-01 1.31885E-25
2.46231E-01 1.26560E-25
2.50000E-01 1.21481E-25
2.53788E-01 1.16634E-25
2.57595E-01 1.12008E-25
2.61421E-01 1.07592E-25
2.65264E-01 1.03373E-25
2.69126E-01 9.93436E-26
2.73005E-01 9.54926E-26
2.76901E-01 9.18113E-26
2.80814E-01 8.82913E-26
2.84744E-01 8.49246E-26
2.88691E-01 8.17035E-26
2.92653E-01 7.86210E-26
2.96632E-01 7.56702E-26
3.00625E-01 7.28449E-26
3.04634E-01 7.01389E-26
3.08658E-01 6.75465E-26
3.12697E-01 6.50624E-26
3.16749E-01 6.26815E-26
3.20816E-01 6.03988E-26
3.24896E-01 5.82098E-26
3.28990E-01 5.61103E-26
3.33097E-01 5.40959E-26
3.37216E-01 5.21629E-26
3.41348E-01 5.03075E-26
3.45492E-01 4.85263E-26
3.49647E-01 4.68158E-26
3.53814E-01 4.51729E-26
3.57992E-01 4.35946E-26
3.62181E-01 4.20780E-26
3.66381E-01 4.06205E-26
3.70590E-01 3.92194E-26
3.74810E-01 3.78723E-26
3.79039E-01 3.65768E-26
3.83277E-01 3.53308E-26
3.87524E-01 3.41320E-26
3.91780E-01 3.29785E-26
3.96044E-01 3.18684E-26
4.00316E-01 3.07998E-26
4.04596E-01 2.97710E-26
4.08882E-01 2.87804E-26
4.13176E-01 2.78263E-26
4.17476E-01 2.69072E-26
4.21783E-01 2.60217E-26
4.26095E-01 2.51684E-26
4.30413E-01 2.43461E-26
4.34737E-01 2.35534E-26
4.39065E-01 2.27892E-26
4.43398E-01 2.20523E-26
4.47736E-01 2.13416E-26
4.52077E-01 2.06561E-26
4.56422E-01 1.99948E-26
4.60770E-01 1.93567E-26
4.65122E-01 1.87410E-26
4.69476E-01 1.81467E-26
4.73832E-01 1.75731E-26
4.78190E-01 1.70192E-26
4.82550E-01 1.64845E-26
4.86912E-01 1.59681E-26
4.91274E-01 1.54693E-26
4.95637E-01 1.49874E-26
5.00000E-01 1.45219E-26
5.04363E-01 1.40721E-26
5.08726E-01 1.36375E-26
5.13088E-01 1.32173E-26
5.17450E-01 1.28112E-26
5.21810E-01 1.24186E-26
5.26168E-01 1.20390E-26
5.30524E-01 1.16719E-26
5.34878E-01 1.13169E-26
5.39230E-01 1.09735E-26
5.43578E-01 1.06413E-26
5.47923E-01 1.03199E-26
5.52264E-01 1.00089E-26
5.56602E-01 9.70800E-27
5.60935E-01 9.41673E-27
5.65263E-01 9.13480E-27
5.69587E-01 8.86188E-27
5.73905E-01 8.59764E-27
5.78217E-01 8.34179E-27
5.82524E-01 8.09402E-27
5.86824E-01 7.85406E-27
5.91118E-01 7.62164E-27
5.95404E-01 7.39649E-27
5.99684E-01 7.17837E-27
6.03956E-01 6.96703E-27
6.08220E-01 6.76225E-27
6.12476E-01 6.56379E-27
6.16723E-01 6.37144E-27
6.20961E-01 6.18500E-27
6.25190E-01 6.00427E-27
6.29410E-01 5.82905E-27
6.33619E-01 5.65916E-27
6.37819E-01 5.49443E-27
6.42008E-01 5.33468E-27
6.46186E-01 5.17974E-27
6.50353E-01 5.02946E-27
6.54508E-01 4.88369E-27
6.58652E-01 4.74227E-27
6.62784E-01 4.60506E-27
6.66903E-01 4.47193E-27
6.71010E-01 4.34275E-27
6.75104E-01 4.21738E-27
6.79184E-01 4.09571E-27
6.83251E-01 3.97761E-27
6.87303E-01 3.86298E-27
6.91342E-01 3.75169E-27
6.95366E-01 3.64365E-27
6.99375E-01 3.53875E-27
7.03368E-01 3.43689E-27
7.07347E-01 3.33797E-27
7.11309E-01 3.24191E-27
7.15256E-01 3.14861E-27
7.19186E-01 3.05799E-27
7.23099E-01 2.96996E-27
7.26995E-01 2.88445E-27
7.30874E-01 2.80137E-27
7.34736E-01 2.72066E-27
7.38579E-01 2.64223E-27
7.42405E-01 2.56602E-27
7.46212E-01 2.49197E-27
7.50000E-01 2.41999E-27
7.53769E-01 2.35004E-27
7.57519E-01 2.28205E-27
7.61249E-01 2.21597E-27
7.64960E-01 2.15172E-27
7.68650E-01 2.08927E-27
7.72320E-01 2.02855E-27
7.75968E-01 1.96952E-27
7.79596E-01 1.91212E-27
7.83203E-01 1.85631E-27
7.86788E-01 1.80203E-27
7.90351E-01 1.74925E-27
7.93893E-01 1.69792E-27
7.97411E-01 1.64800E-27
8.00908E-01 1.59945E-27
8.04381E-01 1.55222E-27
8.07831E-01 1.50628E-27
8.11257E-01 1.46159E-27
8.14660E-01 1.41812E-27
8.18039E-01 1.37583E-27
8.21394E-01 1.33468E-27
8.24724E-01 1.29465E-27
8.28030E-01 1.25570E-27
8.31310E-01 1.21781E-27
8.34565E-01 1.18093E-27
8.37795E-01 1.14505E-27
8.40999E-01 1.11014E-27
8.44177E-01 1.07616E-27
8.47329E-01 1.04310E-27
8.50455E-01 1.01092E-27
8.53553E-01 9.79605E-28
8.56625E-01 9.49130E-28
8.59670E-01 9.19470E-28
8.62687E-01 8.90604E-28
8.65677E-01 8.62510E-28
8.68639E-01 8.35167E-28
8.71572E-01 8.08555E-28
8.74478E-01 7.82653E-28
8.77355E-01 7.57443E-28
8.80203E-01 7.32906E-28
8.83022E-01 7.09025E-28
8.85812E-01 6.85781E-28
8.88573E-01 6.63159E-28
8.91304E-01 6.41141E-28
8.94005E-01 6.19712E-28
8.96677E-01 5.98857E-28
8.99318E-01 5.78560E-28
9.01928E-01 5.58807E-28
9.04508E-01 5.39585E-28
9.07058E-01 5.20879E-28
9.09576E-01 5.02676E-28
9.12063E-01 4.84964E-28
9.14519E-01 4.67730E-28
9.16943E-01 4.50963E-28
9.19335E-01 4.34650E-28
9.21696E-01 4.18780E-28
9.24024E-01 4.03343E-28
9.26320E-01 3.88327E-28
9.28584E-01 3.73723E-28
9.30815E-01 3.59520E-28
9.33013E-01 3.45709E-28
9.35178E-01 3.32280E-28
9.37310E-01 3.19225E-28
9.39409E-01 3.06534E-28
9.41474E-01 2.94200E-28
9.43505E-01 2.82213E-28
9.45503E-01 2.70566E-28
9.47467E-01 2.59250E-28
9.49397E-01 2.48260E-28
9.51293E-01 2.37586E-28
9.53154E-01 2.27223E-28
9.54981E-01 2.17163E-28
9.56773E-01 2.07399E-28
9.58530E-01 1.97926E-28
9.60252E-01 1.88737E-28
9.61940E-01 1.79826E-28
9.63592E-01 1.71187E-28
9.65209E-01 1.62815E-28
9.66790E-01 1.54705E-28
9.68336E-01 1.46850E-28
9.69846E-01 1.39246E-28
9.71321E-01 1.31889E-28
9.72759E-01 1.24773E-28
9.74162E-01 1.17893E-28
9.75528E-01 1.11247E-28
9.76858E-01 1.04828E-28
9.78152E-01 9.86333E-29
9.79410E-01 9.26589E-29
9.80631E-01 8.69008E-29
9.81815E-01 8.13556E-29
9.82963E-01 7.60196E-29
9.84074E-01 7.08895E-29
9.85148E-01 6.59620E-29
9.86185E-01 6.12341E-29
9.87185E-01 5.67029E-29
9.88148E-01 5.23653E-29
9.89074E-01 4.82189E-29
9.89962E-01 4.42609E-29
9.90814E-01 4.04889E-29
9.91627E-01 3.69005E-29
9.92404E-01 3.34936E-29
9.93143E-01 3.02659E-29
9.93844E-01 2.72156E-29
9.94508E-01 2.43407E-29
9.95134E-01 2.16393E-29
9.95722E-01 1.91100E-29
9.96273E-01 1.67510E-29
9.96786E-01 1.45610E-29
9.97261E-01 1.25386E-29
9.97698E-01 1.06825E-29
9.98097E-01 8.99160E-30
9.98459E-01 7.46487E-30
9.98782E-01 6.10134E-30
9.99067E-01 4.90020E-30
9.99315E-01 3.86070E-30
9.99524E-01 2.98220E-30
9.99695E-01 2.26416E-30
9.99829E-01 1.70614E-30
9.99924E-01 1.30780E-30
9.99981E-01 1.06889E-30
1.00000E+00 9.89269E-31
