 #
 # Subroutine ELSEPA. Elastic scattering of electrons and positrons
 #                    by neutral atoms and positive ions
 #
 # Projectile: positron
 # Kinetic energy = 5.00000E+06 eV = 1.83747E+05 a.u.
 #
 # WARNING: High-energy factorization with free-atom DF screening.
 #          Absorption, polarization and exchange corrections are
 #          switched off.
 #          Phase shifts are calculated for the bare nucleus.
 #          Scattering amplitudes are not evaluated.
 #
 # Element:  U,  Z =  92,  atomic weight = 2.38029E+02 g/mol
 #
 # Nuclear model: Fermi distribution
 #                Average radius = 6.63122E-13 cm
 #                Skin thickness = 5.46000E-14 cm
 #
 # Number of electrons = 92
 #
 # Total elastic cross section = 1.18302E-17 cm**2 = 4.22464E-01 a0**2
 # 1st transport cross section = 3.26202E-22 cm**2 = 1.16489E-05 a0**2
 # 2nd transport cross section = 9.36802E-22 cm**2 = 3.34538E-05 a0**2
 #
 #
 # Differential cross section:                       MU=(1-COS(THETA))/2
 #
 #  THETA        MU          DCS          DCS        Sherman      error
 #  (deg)                 (cm**2/sr)   (a0**2/sr)    function
 #----------------------------------------------------------------------
0.00000E+00 4.01582E-12
7.61557E-13 4.01577E-12
1.18994E-12 4.01574E-12
1.71346E-12 4.01570E-12
2.33225E-12 4.01566E-12
3.04617E-12 4.01561E-12
3.85530E-12 4.01556E-12
4.75964E-12 4.01550E-12
5.75917E-12 4.01543E-12
6.85391E-12 4.01536E-12
8.04379E-12 4.01529E-12
9.32893E-12 4.01520E-12
1.07092E-11 4.01511E-12
1.21847E-11 4.01502E-12
1.37554E-11 4.01491E-12
1.54213E-11 4.01481E-12
1.71823E-11 4.01469E-12
1.90386E-11 4.01457E-12
2.09900E-11 4.01444E-12
2.30367E-11 4.01431E-12
2.51785E-11 4.01417E-12
2.74156E-11 4.01403E-12
2.97478E-11 4.01388E-12
3.21752E-11 4.01372E-12
3.46979E-11 4.01356E-12
3.73157E-11 4.01339E-12
4.00286E-11 4.01321E-12
4.28368E-11 4.01303E-12
4.57402E-11 4.01284E-12
4.87388E-11 4.01265E-12
5.18325E-11 4.01245E-12
5.50215E-11 4.01224E-12
5.83057E-11 4.01203E-12
6.16850E-11 4.01182E-12
6.51595E-11 4.01159E-12
6.87293E-11 4.01136E-12
7.23943E-11 4.01113E-12
7.61544E-11 4.01088E-12
1.18991E-10 4.00813E-12
1.71347E-10 4.00477E-12
2.33223E-10 4.00081E-12
3.04617E-10 3.99625E-12
3.85531E-10 3.99109E-12
4.75965E-10 3.98534E-12
5.75917E-10 3.97901E-12
6.85389E-10 3.97209E-12
8.04380E-10 3.96460E-12
9.32891E-10 3.95653E-12
1.07092E-09 3.94790E-12
1.21847E-09 3.93870E-12
1.37554E-09 3.92896E-12
1.54213E-09 3.91867E-12
1.71823E-09 3.90784E-12
1.90386E-09 3.89648E-12
2.09900E-09 3.88459E-12
2.30367E-09 3.87220E-12
2.51785E-09 3.85930E-12
2.74156E-09 3.84590E-12
2.97478E-09 3.83202E-12
3.21752E-09 3.81766E-12
3.46978E-09 3.80283E-12
3.73156E-09 3.78755E-12
4.00286E-09 3.77182E-12
4.28368E-09 3.75565E-12
4.57402E-09 3.73906E-12
4.87388E-09 3.72205E-12
5.18326E-09 3.70465E-12
5.50215E-09 3.68685E-12
5.83057E-09 3.66867E-12
6.16850E-09 3.65012E-12
6.51596E-09 3.63121E-12
6.87293E-09 3.61196E-12
7.23942E-09 3.59238E-12
7.61544E-09 3.57248E-12
1.18991E-08 3.35838E-12
1.71347E-08 3.12515E-12
2.33223E-08 2.88375E-12
3.04617E-08 2.64340E-12
3.85531E-08 2.41125E-12
4.75965E-08 2.19224E-12
5.75917E-08 1.98939E-12
6.85389E-08 1.80409E-12
8.04380E-08 1.63655E-12
9.32891E-08 1.48614E-12
1.07092E-07 1.35172E-12
1.21847E-07 1.23189E-12
1.37554E-07 1.12515E-12
1.54213E-07 1.03001E-12
1.71823E-07 9.45095E-13
1.90386E-07 8.69130E-13
2.09900E-07 8.00989E-13
2.30367E-07 7.39685E-13
2.51785E-07 6.84364E-13
2.74156E-07 6.34287E-13
2.97478E-07 5.88825E-13
3.21752E-07 5.47435E-13
3.46978E-07 5.09655E-13
3.73156E-07 4.75088E-13
4.00286E-07 4.43391E-13
4.28368E-07 4.14269E-13
4.57402E-07 3.87466E-13
4.87388E-07 3.62758E-13
5.18325E-07 3.39949E-13
5.50215E-07 3.18866E-13
5.83057E-07 2.99355E-13
6.16850E-07 2.81282E-13
6.51596E-07 2.64522E-13
6.87293E-07 2.48968E-13
7.23942E-07 2.34519E-13
7.61543E-07 2.21086E-13
1.18991E-06 1.27862E-13
1.71347E-06 7.92618E-14
2.33223E-06 5.19753E-14
3.04617E-06 3.55978E-14
3.85531E-06 2.52329E-14
4.75964E-06 1.84028E-14
5.75916E-06 1.37552E-14
6.85388E-06 1.05044E-14
8.04378E-06 8.17327E-15
9.32888E-06 6.46303E-15
1.07092E-05 5.18204E-15
1.21846E-05 4.20477E-15
1.37553E-05 3.44724E-15
1.54212E-05 2.85199E-15
1.71822E-05 2.37881E-15
1.90385E-05 1.99882E-15
2.09899E-05 1.69117E-15
2.30365E-05 1.44009E-15
2.51783E-05 1.23374E-15
2.74153E-05 1.06301E-15
2.97475E-05 9.20875E-16
3.21749E-05 8.01829E-16
3.46974E-05 7.01540E-16
3.73152E-05 6.16576E-16
4.00281E-05 5.44204E-16
4.28362E-05 4.82237E-16
4.57395E-05 4.28914E-16
4.87380E-05 3.82814E-16
5.18317E-05 3.42782E-16
5.50205E-05 3.07873E-16
5.83045E-05 2.77313E-16
6.16838E-05 2.50464E-16
6.51582E-05 2.26793E-16
6.87277E-05 2.05858E-16
7.23925E-05 1.87286E-16
7.61524E-05 1.70764E-16
9.21439E-05 1.20414E-16
1.09658E-04 8.73558E-17
1.28695E-04 6.49366E-17
1.49255E-04 4.92966E-17
1.71338E-04 3.81111E-17
1.94942E-04 2.99332E-17
2.20070E-04 2.38374E-17
2.46720E-04 1.92156E-17
2.74892E-04 1.56587E-17
3.04586E-04 1.28850E-17
3.35803E-04 1.06965E-17
3.68542E-04 8.95150E-18
4.02802E-04 7.54681E-18
4.38585E-04 6.40617E-18
4.75889E-04 5.47249E-18
5.14715E-04 4.70250E-18
5.55063E-04 4.06308E-18
5.96931E-04 3.52863E-18
6.40321E-04 3.07919E-18
6.85233E-04 2.69908E-18
7.31665E-04 2.37585E-18
7.79618E-04 2.09959E-18
8.29092E-04 1.86235E-18
8.80086E-04 1.65770E-18
9.32601E-04 1.48039E-18
9.86636E-04 1.32616E-18
1.04219E-03 1.19148E-18
1.09927E-03 1.07345E-18
1.15786E-03 9.69668E-19
1.21797E-03 8.78105E-19
1.27961E-03 7.97075E-19
1.34276E-03 7.25157E-19
1.40743E-03 6.61148E-19
1.47362E-03 6.04026E-19
1.54133E-03 5.52922E-19
1.61056E-03 5.07090E-19
1.68131E-03 4.65892E-19
1.75357E-03 4.28777E-19
1.82735E-03 3.95269E-19
1.90265E-03 3.64958E-19
1.97947E-03 3.37484E-19
2.05780E-03 3.12535E-19
2.13765E-03 2.89839E-19
2.21902E-03 2.69156E-19
2.30190E-03 2.50276E-19
2.38630E-03 2.33015E-19
2.47222E-03 2.17209E-19
2.55965E-03 2.02714E-19
2.64859E-03 1.89403E-19
2.73905E-03 1.77160E-19
2.83103E-03 1.65886E-19
2.92452E-03 1.55490E-19
3.01952E-03 1.45892E-19
3.11604E-03 1.37019E-19
3.21407E-03 1.28807E-19
3.31362E-03 1.21198E-19
3.41468E-03 1.14140E-19
3.51725E-03 1.07586E-19
3.62133E-03 1.01493E-19
3.72692E-03 9.58228E-20
3.83403E-03 9.05414E-20
3.94265E-03 8.56170E-20
4.05278E-03 8.10212E-20
4.16442E-03 7.67280E-20
4.27757E-03 7.27141E-20
4.39223E-03 6.89579E-20
4.50840E-03 6.54399E-20
4.62608E-03 6.21422E-20
4.74527E-03 5.90487E-20
4.86597E-03 5.61442E-20
4.98817E-03 5.34153E-20
5.11188E-03 5.08492E-20
5.23711E-03 4.84347E-20
5.36383E-03 4.61610E-20
5.49207E-03 4.40185E-20
5.62181E-03 4.19982E-20
5.75306E-03 4.00919E-20
5.88581E-03 3.82919E-20
6.02007E-03 3.65913E-20
6.15583E-03 3.49835E-20
6.29310E-03 3.34626E-20
6.43187E-03 3.20230E-20
6.57214E-03 3.06596E-20
6.71392E-03 2.93676E-20
6.85720E-03 2.81425E-20
7.00198E-03 2.69803E-20
7.14827E-03 2.58771E-20
7.29605E-03 2.48294E-20
7.44534E-03 2.38339E-20
7.59612E-03 2.28875E-20
7.97965E-03 2.07180E-20
8.37255E-03 1.87981E-20
8.77480E-03 1.70942E-20
9.18641E-03 1.55780E-20
9.60736E-03 1.42252E-20
1.00376E-02 1.30153E-20
1.04773E-02 1.19304E-20
1.09262E-02 1.09556E-20
1.13844E-02 1.00777E-20
1.18520E-02 9.28533E-21
1.23288E-02 8.56882E-21
1.28150E-02 7.91962E-21
1.33104E-02 7.33031E-21
1.38150E-02 6.79441E-21
1.43290E-02 6.30622E-21
1.48521E-02 5.86077E-21
1.53845E-02 5.45365E-21
1.59262E-02 5.08099E-21
1.64770E-02 4.73936E-21
1.70371E-02 4.42573E-21
1.76063E-02 4.13740E-21
1.81848E-02 3.87197E-21
1.87724E-02 3.62730E-21
1.93692E-02 3.40148E-21
1.99751E-02 3.19280E-21
2.05901E-02 2.99973E-21
2.12143E-02 2.82090E-21
2.18476E-02 2.65508E-21
2.24900E-02 2.50114E-21
2.31415E-02 2.35809E-21
2.38021E-02 2.22502E-21
2.44717E-02 2.10111E-21
2.51504E-02 1.98562E-21
2.58382E-02 1.87787E-21
2.65349E-02 1.77726E-21
2.72407E-02 1.68322E-21
2.79555E-02 1.59525E-21
2.86793E-02 1.51289E-21
2.94120E-02 1.43572E-21
3.01537E-02 1.36335E-21
3.09043E-02 1.29544E-21
3.16639E-02 1.23165E-21
3.24324E-02 1.17169E-21
3.32098E-02 1.11530E-21
3.39961E-02 1.06221E-21
3.47912E-02 1.01221E-21
3.55952E-02 9.65084E-22
3.64081E-02 9.20632E-22
3.72297E-02 8.78678E-22
3.80602E-02 8.39057E-22
3.88995E-02 8.01615E-22
3.97476E-02 7.66212E-22
4.06044E-02 7.32717E-22
4.14700E-02 7.01008E-22
4.23443E-02 6.70972E-22
4.32273E-02 6.42507E-22
4.41190E-02 6.15515E-22
4.50194E-02 5.89906E-22
4.59284E-02 5.65597E-22
4.68461E-02 5.42509E-22
4.87074E-02 4.99715E-22
5.06030E-02 4.61002E-22
5.25328E-02 4.25914E-22
5.44967E-02 3.94054E-22
5.64946E-02 3.65076E-22
5.85262E-02 3.38675E-22
6.05914E-02 3.14582E-22
6.26901E-02 2.92561E-22
6.48222E-02 2.72404E-22
6.69873E-02 2.53927E-22
6.91854E-02 2.36965E-22
7.14163E-02 2.21372E-22
7.36799E-02 2.07021E-22
7.59760E-02 1.93794E-22
7.83043E-02 1.81589E-22
8.06647E-02 1.70313E-22
8.30571E-02 1.59883E-22
8.54812E-02 1.50226E-22
8.79369E-02 1.41273E-22
9.04240E-02 1.32965E-22
9.29422E-02 1.25248E-22
9.54915E-02 1.18072E-22
9.80716E-02 1.11392E-22
1.00682E-01 1.05169E-22
1.03323E-01 9.93663E-23
1.05995E-01 9.39498E-23
1.08696E-01 8.88898E-23
1.11427E-01 8.41588E-23
1.14188E-01 7.97319E-23
1.16978E-01 7.55859E-23
1.19797E-01 7.17002E-23
1.22645E-01 6.80553E-23
1.25522E-01 6.46340E-23
1.28428E-01 6.14200E-23
1.31361E-01 5.83988E-23
1.34323E-01 5.55567E-23
1.37313E-01 5.28814E-23
1.40330E-01 5.03612E-23
1.43375E-01 4.79858E-23
1.46447E-01 4.57452E-23
1.49545E-01 4.36306E-23
1.52671E-01 4.16336E-23
1.55823E-01 3.97467E-23
1.59001E-01 3.79627E-23
1.62205E-01 3.62750E-23
1.65435E-01 3.46774E-23
1.68690E-01 3.31644E-23
1.71970E-01 3.17307E-23
1.75276E-01 3.03715E-23
1.78606E-01 2.90823E-23
1.81961E-01 2.78587E-23
1.85340E-01 2.66969E-23
1.88743E-01 2.55932E-23
1.92169E-01 2.45442E-23
1.95619E-01 2.35467E-23
1.99092E-01 2.25978E-23
2.02589E-01 2.16948E-23
2.06107E-01 2.08349E-23
2.09649E-01 2.00158E-23
2.13212E-01 1.92353E-23
2.16797E-01 1.84911E-23
2.20404E-01 1.77813E-23
2.24032E-01 1.71041E-23
2.27680E-01 1.64577E-23
2.31350E-01 1.58405E-23
2.35040E-01 1.52509E-23
2.38751E-01 1.46874E-23
2.42481E-01 1.41488E-23
2.46231E-01 1.36336E-23
2.50000E-01 1.31408E-23
2.53788E-01 1.26693E-23
2.57595E-01 1.22178E-23
2.61421E-01 1.17855E-23
2.65264E-01 1.13713E-23
2.69126E-01 1.09744E-23
2.73005E-01 1.05940E-23
2.76901E-01 1.02291E-23
2.80814E-01 9.87922E-24
2.84744E-01 9.54349E-24
2.88691E-01 9.22126E-24
2.92653E-01 8.91190E-24
2.96632E-01 8.61479E-24
3.00625E-01 8.32938E-24
3.04634E-01 8.05513E-24
3.08658E-01 7.79154E-24
3.12697E-01 7.53813E-24
3.16749E-01 7.29444E-24
3.20816E-01 7.06000E-24
3.24896E-01 6.83442E-24
3.28990E-01 6.61730E-24
3.33097E-01 6.40828E-24
3.37216E-01 6.20702E-24
3.41348E-01 6.01319E-24
3.45492E-01 5.82644E-24
3.49647E-01 5.64646E-24
3.53814E-01 5.47297E-24
3.57992E-01 5.30572E-24
3.62181E-01 5.14444E-24
3.66381E-01 4.98889E-24
3.70590E-01 4.83881E-24
3.74810E-01 4.69399E-24
3.79039E-01 4.55419E-24
3.83277E-01 4.41924E-24
3.87524E-01 4.28893E-24
3.91780E-01 4.16308E-24
3.96044E-01 4.04150E-24
4.00316E-01 3.92403E-24
4.04596E-01 3.81051E-24
4.08882E-01 3.70078E-24
4.13176E-01 3.59468E-24
4.17476E-01 3.49210E-24
4.21783E-01 3.39288E-24
4.26095E-01 3.29690E-24
4.30413E-01 3.20404E-24
4.34737E-01 3.11418E-24
4.39065E-01 3.02720E-24
4.43398E-01 2.94300E-24
4.47736E-01 2.86148E-24
4.52077E-01 2.78253E-24
4.56422E-01 2.70606E-24
4.60770E-01 2.63198E-24
4.65122E-01 2.56021E-24
4.69476E-01 2.49066E-24
4.73832E-01 2.42324E-24
4.78190E-01 2.35789E-24
4.82550E-01 2.29454E-24
4.86912E-01 2.23310E-24
4.91274E-01 2.17352E-24
4.95637E-01 2.11572E-24
5.00000E-01 2.05965E-24
5.04363E-01 2.00524E-24
5.08726E-01 1.95245E-24
5.13088E-01 1.90120E-24
5.17450E-01 1.85146E-24
5.21810E-01 1.80317E-24
5.26168E-01 1.75628E-24
5.30524E-01 1.71074E-24
5.34878E-01 1.66651E-24
5.39230E-01 1.62354E-24
5.43578E-01 1.58180E-24
5.47923E-01 1.54124E-24
5.52264E-01 1.50183E-24
5.56602E-01 1.46352E-24
5.60935E-01 1.42628E-24
5.65263E-01 1.39008E-24
5.69587E-01 1.35488E-24
5.73905E-01 1.32066E-24
5.78217E-01 1.28737E-24
5.82524E-01 1.25499E-24
5.86824E-01 1.22350E-24
5.91118E-01 1.19286E-24
5.95404E-01 1.16304E-24
5.99684E-01 1.13403E-24
6.03956E-01 1.10580E-24
6.08220E-01 1.07832E-24
6.12476E-01 1.05157E-24
6.16723E-01 1.02552E-24
6.20961E-01 1.00017E-24
6.25190E-01 9.75475E-25
6.29410E-01 9.51428E-25
6.33619E-01 9.28008E-25
6.37819E-01 9.05196E-25
6.42008E-01 8.82973E-25
6.46186E-01 8.61323E-25
6.50353E-01 8.40228E-25
6.54508E-01 8.19671E-25
6.58652E-01 7.99638E-25
6.62784E-01 7.80114E-25
6.66903E-01 7.61082E-25
6.71010E-01 7.42531E-25
6.75104E-01 7.24445E-25
6.79184E-01 7.06811E-25
6.83251E-01 6.89617E-25
6.87303E-01 6.72850E-25
6.91342E-01 6.56498E-25
6.95366E-01 6.40549E-25
6.99375E-01 6.24993E-25
7.03368E-01 6.09818E-25
7.07347E-01 5.95014E-25
7.11309E-01 5.80571E-25
7.15256E-01 5.66478E-25
7.19186E-01 5.52726E-25
7.23099E-01 5.39307E-25
7.26995E-01 5.26210E-25
7.30874E-01 5.13428E-25
7.34736E-01 5.00952E-25
7.38579E-01 4.88773E-25
7.42405E-01 4.76884E-25
7.46212E-01 4.65277E-25
7.50000E-01 4.53945E-25
7.53769E-01 4.42880E-25
7.57519E-01 4.32076E-25
7.61249E-01 4.21526E-25
7.64960E-01 4.11223E-25
7.68650E-01 4.01160E-25
7.72320E-01 3.91332E-25
7.75968E-01 3.81733E-25
7.79596E-01 3.72357E-25
7.83203E-01 3.63198E-25
7.86788E-01 3.54250E-25
7.90351E-01 3.45510E-25
7.93893E-01 3.36970E-25
7.97411E-01 3.28626E-25
8.00908E-01 3.20474E-25
8.04381E-01 3.12509E-25
8.07831E-01 3.04726E-25
8.11257E-01 2.97120E-25
8.14660E-01 2.89688E-25
8.18039E-01 2.82425E-25
8.21394E-01 2.75327E-25
8.24724E-01 2.68390E-25
8.28030E-01 2.61610E-25
8.31310E-01 2.54984E-25
8.34565E-01 2.48508E-25
8.37795E-01 2.42179E-25
8.40999E-01 2.35993E-25
8.44177E-01 2.29946E-25
8.47329E-01 2.24035E-25
8.50455E-01 2.18258E-25
8.53553E-01 2.12611E-25
8.56625E-01 2.07092E-25
8.59670E-01 2.01697E-25
8.62687E-01 1.96424E-25
8.65677E-01 1.91269E-25
8.68639E-01 1.86231E-25
8.71572E-01 1.81307E-25
8.74478E-01 1.76493E-25
8.77355E-01 1.71789E-25
8.80203E-01 1.67190E-25
8.83022E-01 1.62696E-25
8.85812E-01 1.58304E-25
8.88573E-01 1.54012E-25
8.91304E-01 1.49817E-25
8.94005E-01 1.45717E-25
8.96677E-01 1.41711E-25
8.99318E-01 1.37797E-25
9.01928E-01 1.33972E-25
9.04508E-01 1.30236E-25
9.07058E-01 1.26585E-25
9.09576E-01 1.23018E-25
9.12063E-01 1.19534E-25
9.14519E-01 1.16132E-25
9.16943E-01 1.12808E-25
9.19335E-01 1.09563E-25
9.21696E-01 1.06393E-25
9.24024E-01 1.03299E-25
9.26320E-01 1.00278E-25
9.28584E-01 9.73291E-26
9.30815E-01 9.44509E-26
9.33013E-01 9.16421E-26
9.35178E-01 8.89013E-26
9.37310E-01 8.62263E-26
9.39409E-01 8.36170E-26
9.41474E-01 8.10722E-26
9.43505E-01 7.85907E-26
9.45503E-01 7.61716E-26
9.47467E-01 7.38137E-26
9.49397E-01 7.15159E-26
9.51293E-01 6.92773E-26
9.53154E-01 6.70968E-26
9.54981E-01 6.49736E-26
9.56773E-01 6.29066E-26
9.58530E-01 6.08951E-26
9.60252E-01 5.89381E-26
9.61940E-01 5.70347E-26
9.63592E-01 5.51843E-26
9.65209E-01 5.33859E-26
9.66790E-01 5.16387E-26
9.68336E-01 4.99422E-26
9.69846E-01 4.82955E-26
9.71321E-01 4.66979E-26
9.72759E-01 4.51488E-26
9.74162E-01 4.36474E-26
9.75528E-01 4.21933E-26
9.76858E-01 4.07857E-26
9.78152E-01 3.94241E-26
9.79410E-01 3.81080E-26
9.80631E-01 3.68366E-26
9.81815E-01 3.56097E-26
9.82963E-01 3.44265E-26
9.84074E-01 3.32867E-26
9.85148E-01 3.21897E-26
9.86185E-01 3.11352E-26
9.87185E-01 3.01227E-26
9.88148E-01 2.91517E-26
9.89074E-01 2.82219E-26
9.89962E-01 2.73329E-26
9.90814E-01 2.64843E-26
9.91627E-01 2.56758E-26
9.92404E-01 2.49070E-26
9.93143E-01 2.41777E-26
9.93844E-01 2.34876E-26
9.94508E-01 2.28363E-26
9.95134E-01 2.22236E-26
9.95722E-01 2.16493E-26
9.96273E-01 2.11131E-26
9.96786E-01 2.06148E-26
9.97261E-01 2.01542E-26
9.97698E-01 1.97311E-26
9.98097E-01 1.93454E-26
9.98459E-01 1.89969E-26
9.98782E-01 1.86854E-26
9.99067E-01 1.84109E-26
9.99315E-01 1.81732E-26
9.99524E-01 1.79723E-26
9.99695E-01 1.78080E-26
9.99829E-01 1.76802E-26
9.99924E-01 1.75890E-26
9.99981E-01 1.75343E-26
1.00000E+00 1.75161E-26
