 #
 # Subroutine ELSEPA. Elastic scattering of electrons and positrons
 #                    by neutral atoms and positive ions
 #
 # Projectile: positron
 # Kinetic energy = 4.00000E+08 eV = 1.46997E+07 a.u.
 #
 # WARNING: High-energy factorization with free-atom DF screening.
 #          Absorption, polarization and exchange corrections are
 #          switched off.
 #          Phase shifts are calculated for the bare nucleus.
 #          Scattering amplitudes are not evaluated.
 #
 # Element:  U,  Z =  92,  atomic weight = 2.38029E+02 g/mol
 #
 # Nuclear model: Fermi distribution
 #                Average radius = 6.63122E-13 cm
 #                Skin thickness = 5.46000E-14 cm
 #
 # Number of electrons = 92
 #
 # Total elastic cross section = 1.17188E-17 cm**2 = 4.18487E-01 a0**2
 # 1st transport cross section = 9.69078E-26 cm**2 = 3.46064E-09 a0**2
 # 2nd transport cross section = 2.90538E-25 cm**2 = 1.03753E-08 a0**2
 #
 #
 # Differential cross section:                       MU=(1-COS(THETA))/2
 #
 #  THETA        MU          DCS          DCS        Sherman      error
 #  (deg)                 (cm**2/sr)   (a0**2/sr)    function
 #----------------------------------------------------------------------
0.00000E+00 2.12101E-08
7.61557E-13 1.99058E-08
1.18994E-12 1.92307E-08
1.71346E-12 1.84577E-08
2.33225E-12 1.76090E-08
3.04617E-12 1.67108E-08
3.85530E-12 1.57856E-08
4.75964E-12 1.48523E-08
5.75917E-12 1.39276E-08
6.85391E-12 1.30290E-08
8.04379E-12 1.21641E-08
9.32893E-12 1.13401E-08
1.07092E-11 1.05627E-08
1.21847E-11 9.83642E-09
1.37554E-11 9.15935E-09
1.54213E-11 8.53118E-09
1.71823E-11 7.95153E-09
1.90386E-11 7.41766E-09
2.09900E-11 6.92603E-09
2.30367E-11 6.47400E-09
2.51785E-11 6.05895E-09
2.74156E-11 5.67723E-09
2.97478E-11 5.32611E-09
3.21752E-11 5.00301E-09
3.46979E-11 4.70484E-09
3.73157E-11 4.42964E-09
4.00286E-11 4.17545E-09
4.28368E-11 3.94002E-09
4.57402E-11 3.72126E-09
4.87388E-11 3.51826E-09
5.18325E-11 3.32967E-09
5.50215E-11 3.15346E-09
5.83057E-11 2.98891E-09
6.16850E-11 2.83537E-09
6.51595E-11 2.69196E-09
6.87293E-11 2.55682E-09
7.23943E-11 2.43026E-09
7.61544E-11 2.31164E-09
1.18991E-10 1.44173E-09
1.71347E-10 9.31097E-10
2.33223E-10 6.37621E-10
3.04617E-10 4.49021E-10
3.85531E-10 3.25989E-10
4.75965E-10 2.43609E-10
5.75917E-10 1.86274E-10
6.85389E-10 1.44296E-10
8.04380E-10 1.13756E-10
9.32891E-10 9.10708E-11
1.07092E-09 7.38271E-11
1.21847E-09 6.04234E-11
1.37554E-09 5.00237E-11
1.54213E-09 4.18301E-11
1.71823E-09 3.52508E-11
1.90386E-09 2.99169E-11
2.09900E-09 2.55769E-11
2.30367E-09 2.20089E-11
2.51785E-09 1.90242E-11
2.74156E-09 1.65288E-11
2.97478E-09 1.44323E-11
3.21752E-09 1.26574E-11
3.46978E-09 1.11414E-11
3.73156E-09 9.84088E-12
4.00286E-09 8.72156E-12
4.28368E-09 7.75593E-12
4.57402E-09 6.91967E-12
4.87388E-09 6.19514E-12
5.18326E-09 5.56457E-12
5.50215E-09 5.01179E-12
5.83057E-09 4.52630E-12
6.16850E-09 4.09896E-12
6.51596E-09 3.72142E-12
6.87293E-09 3.38548E-12
7.23942E-09 3.08707E-12
7.61544E-09 2.82126E-12
1.18991E-08 1.26729E-12
1.71347E-08 6.52046E-13
2.33223E-08 3.69347E-13
3.04617E-08 2.25039E-13
3.85531E-08 1.45014E-13
4.75965E-08 9.76349E-14
5.75917E-08 6.80948E-14
6.85389E-08 4.88946E-14
8.04380E-08 3.59925E-14
9.32891E-08 2.70740E-14
1.07092E-07 2.07539E-14
1.21847E-07 1.61763E-14
1.37554E-07 1.27957E-14
1.54213E-07 1.02550E-14
1.71823E-07 8.31591E-15
1.90386E-07 6.81494E-15
2.09900E-07 5.63827E-15
2.30367E-07 4.70515E-15
2.51785E-07 3.95738E-15
2.74156E-07 3.35233E-15
2.97478E-07 2.85857E-15
3.21752E-07 2.45240E-15
3.46978E-07 2.11579E-15
3.73156E-07 1.83494E-15
4.00286E-07 1.59911E-15
4.28368E-07 1.39991E-15
4.57402E-07 1.23075E-15
4.87388E-07 1.08634E-15
5.18325E-07 9.62485E-16
5.50215E-07 8.55763E-16
5.83057E-07 7.63412E-16
6.16850E-07 6.83173E-16
6.51596E-07 6.13196E-16
6.87293E-07 5.51946E-16
7.23942E-07 4.98150E-16
7.61543E-07 4.50748E-16
1.18991E-06 1.86442E-16
1.71347E-06 9.05056E-17
2.33223E-06 4.90884E-17
3.04617E-06 2.88800E-17
3.85531E-06 1.80807E-17
4.75964E-06 1.18891E-17
5.75916E-06 8.13463E-18
6.85388E-06 5.75162E-18
8.04378E-06 4.18050E-18
9.32888E-06 3.11086E-18
1.07092E-05 2.36235E-18
1.21846E-05 1.82594E-18
1.37553E-05 1.43343E-18
1.54212E-05 1.14090E-18
1.71822E-05 9.19292E-19
1.90385E-05 7.48384E-19
2.09899E-05 6.16331E-19
2.30365E-05 5.12032E-19
2.51783E-05 4.28724E-19
2.74153E-05 3.61567E-19
2.97475E-05 3.07000E-19
3.21749E-05 2.62341E-19
3.46974E-05 2.25537E-19
3.73152E-05 1.94992E-19
4.00281E-05 1.69466E-19
4.28362E-05 1.47990E-19
4.57395E-05 1.29807E-19
4.87380E-05 1.14325E-19
5.18317E-05 1.01075E-19
5.50205E-05 8.96853E-20
5.83045E-05 7.98524E-20
6.16838E-05 7.13309E-20
6.51582E-05 6.39176E-20
6.87277E-05 5.74435E-20
7.23925E-05 5.17692E-20
7.61524E-05 4.71822E-20
9.21439E-05 3.22714E-20
1.09658E-04 2.28171E-20
1.28695E-04 1.65885E-20
1.49255E-04 1.23496E-20
1.71338E-04 9.38404E-21
1.94942E-04 7.25738E-21
2.20070E-04 5.69988E-21
2.46720E-04 4.53842E-21
2.74892E-04 3.65805E-21
3.04586E-04 2.98072E-21
3.35803E-04 2.45281E-21
3.68542E-04 2.03634E-21
4.02802E-04 1.70424E-21
4.38585E-04 1.43681E-21
4.75889E-04 1.21947E-21
5.14715E-04 1.04141E-21
5.55063E-04 8.94385E-22
5.96931E-04 7.72144E-22
6.40321E-04 6.69837E-22
6.85233E-04 5.83693E-22
7.31665E-04 5.10754E-22
7.79618E-04 4.48663E-22
8.29092E-04 3.95553E-22
8.80086E-04 3.49911E-22
9.32601E-04 3.10519E-22
9.86636E-04 2.76383E-22
1.04219E-03 2.46688E-22
1.09927E-03 2.20764E-22
1.15786E-03 1.98053E-22
1.21797E-03 1.78095E-22
1.27961E-03 1.60502E-22
1.34276E-03 1.44949E-22
1.40743E-03 1.31162E-22
1.47362E-03 1.18909E-22
1.54133E-03 1.07992E-22
1.61056E-03 9.82433E-23
1.68131E-03 8.95175E-23
1.75357E-03 8.16912E-23
1.82735E-03 7.46571E-23
1.90265E-03 6.83231E-23
1.97947E-03 6.26087E-23
2.05780E-03 5.74442E-23
2.13765E-03 5.27689E-23
2.21902E-03 4.85296E-23
2.30190E-03 4.46796E-23
2.38630E-03 4.11780E-23
2.47222E-03 3.79887E-23
2.55965E-03 3.50799E-23
2.64859E-03 3.24234E-23
2.73905E-03 2.99944E-23
2.83103E-03 2.77706E-23
2.92452E-03 2.57324E-23
3.01952E-03 2.38621E-23
3.11604E-03 2.21441E-23
3.21407E-03 2.05644E-23
3.31362E-03 1.91103E-23
3.41468E-03 1.77707E-23
3.51725E-03 1.65353E-23
3.62133E-03 1.53951E-23
3.72692E-03 1.43417E-23
3.83403E-03 1.33679E-23
3.94265E-03 1.24668E-23
4.05278E-03 1.16324E-23
4.16442E-03 1.08592E-23
4.27757E-03 1.01422E-23
4.39223E-03 9.47684E-24
4.50840E-03 8.85899E-24
4.62608E-03 8.28489E-24
4.74527E-03 7.75113E-24
4.86597E-03 7.25456E-24
4.98817E-03 6.79233E-24
5.11188E-03 6.36183E-24
5.23711E-03 5.96067E-24
5.36383E-03 5.58665E-24
5.49207E-03 5.23776E-24
5.62181E-03 4.91216E-24
5.75306E-03 4.60815E-24
5.88581E-03 4.32417E-24
6.02007E-03 4.05878E-24
6.15583E-03 3.81067E-24
6.29310E-03 3.57862E-24
6.43187E-03 3.36151E-24
6.57214E-03 3.15829E-24
6.71392E-03 2.96800E-24
6.85720E-03 2.78977E-24
7.00198E-03 2.62277E-24
7.14827E-03 2.46625E-24
7.29605E-03 2.31949E-24
7.44534E-03 2.18186E-24
7.59612E-03 2.05274E-24
7.97965E-03 1.76362E-24
8.37255E-03 1.51660E-24
8.77480E-03 1.30524E-24
9.18641E-03 1.12414E-24
9.60736E-03 9.68790E-25
1.00376E-02 8.35383E-25
1.04773E-02 7.20708E-25
1.09262E-02 6.22052E-25
1.13844E-02 5.37113E-25
1.18520E-02 4.63936E-25
1.23288E-02 4.00857E-25
1.28150E-02 3.46456E-25
1.33104E-02 2.99519E-25
1.38150E-02 2.59010E-25
1.43290E-02 2.24039E-25
1.48521E-02 1.93842E-25
1.53845E-02 1.67763E-25
1.59262E-02 1.45239E-25
1.64770E-02 1.25783E-25
1.70371E-02 1.08977E-25
1.76063E-02 9.44596E-26
1.81848E-02 8.19196E-26
1.87724E-02 7.10876E-26
1.93692E-02 6.17313E-26
1.99751E-02 5.36497E-26
2.05901E-02 4.66690E-26
2.12143E-02 4.06391E-26
2.18476E-02 3.54300E-26
2.24900E-02 3.09294E-26
2.31415E-02 2.70401E-26
2.38021E-02 2.36781E-26
2.44717E-02 2.07708E-26
2.51504E-02 1.82553E-26
2.58382E-02 1.60774E-26
2.65349E-02 1.41903E-26
2.72407E-02 1.25536E-26
2.79555E-02 1.11324E-26
2.86793E-02 9.89662E-27
2.94120E-02 8.82038E-27
3.01537E-02 7.88138E-27
3.09043E-02 7.06045E-27
3.16639E-02 6.34111E-27
3.24324E-02 5.70922E-27
3.32098E-02 5.15263E-27
3.39961E-02 4.66094E-27
3.47912E-02 4.22525E-27
3.55952E-02 3.83792E-27
3.64081E-02 3.49245E-27
3.72297E-02 3.18326E-27
3.80602E-02 2.90561E-27
3.88995E-02 2.65543E-27
3.97476E-02 2.42927E-27
4.06044E-02 2.22418E-27
4.14700E-02 2.03764E-27
4.23443E-02 1.86751E-27
4.32273E-02 1.71195E-27
4.41190E-02 1.56938E-27
4.50194E-02 1.43847E-27
4.59284E-02 1.31806E-27
4.68461E-02 1.20716E-27
4.87074E-02 1.01052E-27
5.06030E-02 8.42912E-28
5.25328E-02 6.99969E-28
5.44967E-02 5.78229E-28
5.64946E-02 4.74862E-28
5.85262E-02 3.87489E-28
6.05914E-02 3.14059E-28
6.26901E-02 2.52768E-28
6.48222E-02 2.02006E-28
6.69873E-02 1.60327E-28
6.91854E-02 1.26429E-28
7.14163E-02 9.91412E-29
7.36799E-02 7.74136E-29
7.59760E-02 6.03150E-29
7.83043E-02 4.70245E-29
8.06647E-02 3.68266E-29
8.30571E-02 2.91050E-29
8.54812E-02 2.33350E-29
8.79369E-02 1.90764E-29
9.04240E-02 1.59651E-29
9.29422E-02 1.37051E-29
9.54915E-02 1.20596E-29
9.80716E-02 1.08437E-29
1.00682E-01 9.91577E-30
1.03323E-01 9.17096E-30
1.05995E-01 8.53410E-30
1.08696E-01 7.95394E-30
1.11427E-01 7.39791E-30
1.14188E-01 6.84756E-30
1.16978E-01 6.29481E-30
1.19797E-01 5.73877E-30
1.22645E-01 5.18319E-30
1.25522E-01 4.63447E-30
1.28428E-01 4.10018E-30
1.31361E-01 3.58787E-30
1.34323E-01 3.10440E-30
1.37313E-01 2.65541E-30
1.40330E-01 2.24508E-30
1.43375E-01 1.87608E-30
1.46447E-01 1.54955E-30
1.49545E-01 1.26532E-30
1.52671E-01 1.02204E-30
1.55823E-01 8.17435E-31
1.59001E-01 6.48499E-31
1.62205E-01 5.11758E-31
1.65435E-01 4.03451E-31
1.68690E-01 3.19713E-31
1.71970E-01 2.56733E-31
1.75276E-01 2.10870E-31
1.78606E-01 1.78747E-31
1.81961E-01 1.57313E-31
1.85340E-01 1.43885E-31
1.88743E-01 1.36162E-31
1.92169E-01 1.32225E-31
1.95619E-01 1.30522E-31
1.99092E-01 1.29842E-31
2.02589E-01 1.29281E-31
2.06107E-01 1.28206E-31
2.09649E-01 1.26213E-31
2.13212E-01 1.23085E-31
2.16797E-01 1.18759E-31
2.20404E-01 1.13284E-31
2.24032E-01 1.06794E-31
2.27680E-01 9.94740E-32
2.31350E-01 9.15427E-32
2.35040E-01 8.32280E-32
2.38751E-01 7.47538E-32
2.42481E-01 6.63276E-32
2.46231E-01 5.81332E-32
2.50000E-01 5.03252E-32
2.53788E-01 4.30265E-32
2.57595E-01 3.63280E-32
2.61421E-01 3.02899E-32
2.65264E-01 2.49438E-32
2.69126E-01 2.02963E-32
2.73005E-01 1.63325E-32
2.76901E-01 1.30200E-32
2.80814E-01 1.03131E-32
2.84744E-01 8.15617E-33
2.88691E-01 6.48771E-33
2.92653E-01 5.24300E-33
2.96632E-01 4.35698E-33
3.00625E-01 3.76644E-33
3.04634E-01 3.41174E-33
3.08658E-01 3.23813E-33
3.12697E-01 3.19662E-33
3.16749E-01 3.24449E-33
3.20816E-01 3.34554E-33
3.24896E-01 3.46999E-33
3.28990E-01 3.59423E-33
3.33097E-01 3.70036E-33
3.37216E-01 3.77569E-33
3.41348E-01 3.81206E-33
3.45492E-01 3.80522E-33
3.49647E-01 3.75416E-33
3.53814E-01 3.66045E-33
3.57992E-01 3.52762E-33
3.62181E-01 3.36063E-33
3.66381E-01 3.16534E-33
3.70590E-01 2.94811E-33
3.74810E-01 2.71543E-33
3.79039E-01 2.47359E-33
3.83277E-01 2.22850E-33
3.87524E-01 1.98550E-33
3.91780E-01 1.74924E-33
3.96044E-01 1.52363E-33
4.00316E-01 1.31181E-33
4.04596E-01 1.11613E-33
4.08882E-01 9.38234E-34
4.13176E-01 7.79076E-34
4.17476E-01 6.39010E-34
4.21783E-01 5.17859E-34
4.26095E-01 4.15006E-34
4.30413E-01 3.29473E-34
4.34737E-01 2.60007E-34
4.39065E-01 2.05155E-34
4.43398E-01 1.63337E-34
4.47736E-01 1.32910E-34
4.52077E-01 1.12223E-34
4.56422E-01 9.96600E-35
4.60770E-01 9.36833E-35
4.65122E-01 9.28583E-35
4.69476E-01 9.58771E-35
4.73832E-01 1.01572E-34
4.78190E-01 1.08923E-34
4.82550E-01 1.17061E-34
4.86912E-01 1.25265E-34
4.91274E-01 1.32956E-34
4.95637E-01 1.39688E-34
5.00000E-01 1.45136E-34
5.04363E-01 1.49087E-34
5.08726E-01 1.51419E-34
5.13088E-01 1.52097E-34
5.17450E-01 1.51148E-34
5.21810E-01 1.48661E-34
5.26168E-01 1.44760E-34
5.30524E-01 1.39606E-34
5.34878E-01 1.33377E-34
5.39230E-01 1.26264E-34
5.43578E-01 1.18460E-34
5.47923E-01 1.10158E-34
5.52264E-01 1.01541E-34
5.56602E-01 9.27798E-35
5.60935E-01 8.40291E-35
5.65263E-01 7.54279E-35
5.69587E-01 6.70949E-35
5.73905E-01 5.91303E-35
5.78217E-01 5.16140E-35
5.82524E-01 4.46084E-35
5.86824E-01 3.81577E-35
5.91118E-01 3.22896E-35
5.95404E-01 2.70180E-35
5.99684E-01 2.23425E-35
6.03956E-01 1.82522E-35
6.08220E-01 1.47267E-35
6.12476E-01 1.17377E-35
6.16723E-01 9.25080E-36
6.20961E-01 7.22724E-36
6.25190E-01 5.62521E-36
6.29410E-01 4.40104E-36
6.33619E-01 3.51056E-36
6.37819E-01 2.90994E-36
6.42008E-01 2.55660E-36
6.46186E-01 2.40979E-36
6.50353E-01 2.43121E-36
6.54508E-01 2.58546E-36
6.58652E-01 2.84013E-36
6.62784E-01 3.16621E-36
6.66903E-01 3.53796E-36
6.71010E-01 3.93305E-36
6.75104E-01 4.33239E-36
6.79184E-01 4.72020E-36
6.83251E-01 5.08336E-36
6.87303E-01 5.41176E-36
6.91342E-01 5.69779E-36
6.95366E-01 5.93607E-36
6.99375E-01 6.12324E-36
7.03368E-01 6.25784E-36
7.07347E-01 6.33969E-36
7.11309E-01 6.37012E-36
7.15256E-01 6.35125E-36
7.19186E-01 6.28648E-36
7.23099E-01 6.17918E-36
7.26995E-01 6.03387E-36
7.30874E-01 5.85486E-36
7.34736E-01 5.64672E-36
7.38579E-01 5.41438E-36
7.42405E-01 5.16219E-36
7.46212E-01 4.89481E-36
7.50000E-01 4.61641E-36
7.53769E-01 4.33095E-36
7.57519E-01 4.04211E-36
7.61249E-01 3.75317E-36
7.64960E-01 3.46721E-36
7.68650E-01 3.18666E-36
7.72320E-01 2.91392E-36
7.75968E-01 2.65073E-36
7.79596E-01 2.39886E-36
7.83203E-01 2.15939E-36
7.86788E-01 1.93330E-36
7.90351E-01 1.72127E-36
7.93893E-01 1.52372E-36
7.97411E-01 1.34084E-36
8.00908E-01 1.17258E-36
8.04381E-01 1.01881E-36
8.07831E-01 8.79188E-37
8.11257E-01 7.53266E-37
8.14660E-01 6.40482E-37
8.18039E-01 5.40197E-37
8.21394E-01 4.51719E-37
8.24724E-01 3.74307E-37
8.28030E-01 3.07189E-37
8.31310E-01 2.49616E-37
8.34565E-01 2.00723E-37
8.37795E-01 1.59796E-37
8.40999E-01 1.26031E-37
8.44177E-01 9.87278E-38
8.47329E-01 7.71357E-38
8.50455E-01 6.06147E-38
8.53553E-01 4.85116E-38
8.56625E-01 4.02353E-38
8.59670E-01 3.52355E-38
8.62687E-01 3.30047E-38
8.65677E-01 3.30748E-38
8.68639E-01 3.50282E-38
8.71572E-01 3.84774E-38
8.74478E-01 4.30910E-38
8.77355E-01 4.85568E-38
8.80203E-01 5.46273E-38
8.83022E-01 6.10494E-38
8.85812E-01 6.76403E-38
8.88573E-01 7.42400E-38
8.91304E-01 8.06728E-38
8.94005E-01 8.68438E-38
8.96677E-01 9.26520E-38
8.99318E-01 9.80460E-38
9.01928E-01 1.02920E-37
9.04508E-01 1.07307E-37
9.07058E-01 1.11100E-37
9.09576E-01 1.14317E-37
9.12063E-01 1.16984E-37
9.14519E-01 1.19066E-37
9.16943E-01 1.20591E-37
9.19335E-01 1.21567E-37
9.21696E-01 1.22046E-37
9.24024E-01 1.22026E-37
9.26320E-01 1.21565E-37
9.28584E-01 1.20655E-37
9.30815E-01 1.19355E-37
9.33013E-01 1.17716E-37
9.35178E-01 1.15754E-37
9.37310E-01 1.13468E-37
9.39409E-01 1.10976E-37
9.41474E-01 1.08234E-37
9.43505E-01 1.05309E-37
9.45503E-01 1.02211E-37
9.47467E-01 9.89813E-38
9.49397E-01 9.56625E-38
9.51293E-01 9.22213E-38
9.53154E-01 8.87438E-38
9.54981E-01 8.52305E-38
9.56773E-01 8.17049E-38
9.58530E-01 7.81763E-38
9.60252E-01 7.46514E-38
9.61940E-01 7.11642E-38
9.63592E-01 6.77203E-38
9.65209E-01 6.43203E-38
9.66790E-01 6.09977E-38
9.68336E-01 5.77397E-38
9.69846E-01 5.45650E-38
9.71321E-01 5.14829E-38
9.72759E-01 4.84794E-38
9.74162E-01 4.55783E-38
9.75528E-01 4.27613E-38
9.76858E-01 4.00604E-38
9.78152E-01 3.74492E-38
9.79410E-01 3.49520E-38
9.80631E-01 3.25428E-38
9.81815E-01 3.02453E-38
9.82963E-01 2.80426E-38
9.84074E-01 2.59497E-38
9.85148E-01 2.39512E-38
9.86185E-01 2.20526E-38
9.87185E-01 2.02476E-38
9.88148E-01 1.85400E-38
9.89074E-01 1.69166E-38
9.89962E-01 1.53998E-38
9.90814E-01 1.39557E-38
9.91627E-01 1.26003E-38
9.92404E-01 1.13288E-38
9.93143E-01 1.01417E-38
9.93844E-01 9.02307E-39
9.94508E-01 7.98701E-39
9.95134E-01 7.02154E-39
9.95722E-01 6.12681E-39
9.96273E-01 5.30405E-39
9.96786E-01 4.54253E-39
9.97261E-01 3.85287E-39
9.97698E-01 3.22161E-39
9.98097E-01 2.64663E-39
9.98459E-01 2.13564E-39
9.98782E-01 1.68249E-39
9.99067E-01 1.28336E-39
9.99315E-01 9.41429E-40
9.99524E-01 6.55824E-40
9.99695E-01 4.18982E-40
9.99829E-01 2.35798E-40
9.99924E-01 1.06765E-40
9.99981E-01 2.76065E-41
1.00000E+00 2.16500E-42
