 #
 # Subroutine ELSEPA. Elastic scattering of electrons and positrons
 #                    by neutral atoms and positive ions
 #
 # Projectile: positron
 # Kinetic energy = 3.50000E+08 eV = 1.28623E+07 a.u.
 #
 # WARNING: High-energy factorization with free-atom DF screening.
 #          Absorption, polarization and exchange corrections are
 #          switched off.
 #          Phase shifts are calculated for the bare nucleus.
 #          Scattering amplitudes are not evaluated.
 #
 # Element:  U,  Z =  92,  atomic weight = 2.38029E+02 g/mol
 #
 # Nuclear model: Fermi distribution
 #                Average radius = 6.63122E-13 cm
 #                Skin thickness = 5.46000E-14 cm
 #
 # Number of electrons = 92
 #
 # Total elastic cross section = 1.17219E-17 cm**2 = 4.18597E-01 a0**2
 # 1st transport cross section = 1.26413E-25 cm**2 = 4.51429E-09 a0**2
 # 2nd transport cross section = 3.78923E-25 cm**2 = 1.35316E-08 a0**2
 #
 #
 # Differential cross section:                       MU=(1-COS(THETA))/2
 #
 #  THETA        MU          DCS          DCS        Sherman      error
 #  (deg)                 (cm**2/sr)   (a0**2/sr)    function
 #----------------------------------------------------------------------
0.00000E+00 1.62449E-08
7.61557E-13 1.54703E-08
1.18994E-12 1.50617E-08
1.71346E-12 1.45865E-08
2.33225E-12 1.40576E-08
3.04617E-12 1.34860E-08
3.85530E-12 1.28856E-08
4.75964E-12 1.22675E-08
5.75917E-12 1.16410E-08
6.85391E-12 1.10188E-08
8.04379E-12 1.04057E-08
9.32893E-12 9.80832E-09
1.07092E-11 9.23426E-09
1.21847E-11 8.68386E-09
1.37554E-11 8.16108E-09
1.54213E-11 7.66797E-09
1.71823E-11 7.20314E-09
1.90386E-11 6.76840E-09
2.09900E-11 6.36223E-09
2.30367E-11 5.98299E-09
2.51785E-11 5.63095E-09
2.74156E-11 5.30330E-09
2.97478E-11 4.99879E-09
3.21752E-11 4.71632E-09
3.46979E-11 4.45371E-09
3.73157E-11 4.20979E-09
4.00286E-11 3.98288E-09
4.28368E-11 3.77182E-09
4.57402E-11 3.57517E-09
4.87388E-11 3.39165E-09
5.18325E-11 3.22063E-09
5.50215E-11 3.06039E-09
5.83057E-11 2.91050E-09
6.16850E-11 2.77044E-09
6.51595E-11 2.63833E-09
6.87293E-11 2.51458E-09
7.23943E-11 2.39835E-09
7.61544E-11 2.28844E-09
1.18991E-10 1.47412E-09
1.71347E-10 9.88133E-10
2.33223E-10 6.77453E-10
3.04617E-10 4.88117E-10
3.85531E-10 3.57911E-10
4.75965E-10 2.69569E-10
5.75917E-10 2.08217E-10
6.85389E-10 1.62394E-10
8.04380E-10 1.29096E-10
9.32891E-10 1.04113E-10
1.07092E-09 8.46234E-11
1.21847E-09 6.97121E-11
1.37554E-09 5.79528E-11
1.54213E-09 4.85565E-11
1.71823E-09 4.10815E-11
1.90386E-09 3.49766E-11
2.09900E-09 2.99844E-11
2.30367E-09 2.58917E-11
2.51785E-09 2.24497E-11
2.74156E-09 1.95778E-11
2.97478E-09 1.71632E-11
3.21752E-09 1.50902E-11
3.46978E-09 1.33308E-11
3.73156E-09 1.18193E-11
4.00286E-09 1.05082E-11
4.28368E-09 9.37933E-12
4.57402E-09 8.39659E-12
4.87388E-09 7.53239E-12
5.18326E-09 6.77664E-12
5.50215E-09 6.11042E-12
5.83057E-09 5.52545E-12
6.16850E-09 5.01064E-12
6.51596E-09 4.55284E-12
6.87293E-09 4.14770E-12
7.23942E-09 3.78725E-12
7.61544E-09 3.46447E-12
1.18991E-08 1.56795E-12
1.71347E-08 8.12776E-13
2.33223E-08 4.62554E-13
3.04617E-08 2.82689E-13
3.85531E-08 1.82630E-13
4.75965E-08 1.23355E-13
5.75917E-08 8.62810E-14
6.85389E-08 6.21567E-14
8.04380E-08 4.58792E-14
9.32891E-08 3.45844E-14
1.07092E-07 2.65556E-14
1.21847E-07 2.07208E-14
1.37554E-07 1.64053E-14
1.54213E-07 1.31569E-14
1.71823E-07 1.06753E-14
1.90386E-07 8.75346E-15
2.09900E-07 7.24563E-15
2.30367E-07 6.04978E-15
2.51785E-07 5.09099E-15
2.74156E-07 4.31508E-15
2.97478E-07 3.68169E-15
3.21752E-07 3.16031E-15
3.46978E-07 2.72810E-15
3.73156E-07 2.36724E-15
4.00286E-07 2.06409E-15
4.28368E-07 1.80792E-15
4.57402E-07 1.59021E-15
4.87388E-07 1.40428E-15
5.18325E-07 1.24470E-15
5.50215E-07 1.10712E-15
5.83057E-07 9.88020E-16
6.16850E-07 8.84476E-16
6.51596E-07 7.94137E-16
6.87293E-07 7.15020E-16
7.23942E-07 6.45505E-16
7.61543E-07 5.84227E-16
1.18991E-06 2.42050E-16
1.71347E-06 1.17597E-16
2.33223E-06 6.38179E-17
3.04617E-06 3.75629E-17
3.85531E-06 2.35261E-17
4.75964E-06 1.54752E-17
5.75916E-06 1.05916E-17
6.85388E-06 7.49089E-18
8.04378E-06 5.44599E-18
9.32888E-06 4.05343E-18
1.07092E-05 3.07871E-18
1.21846E-05 2.38002E-18
1.37553E-05 1.86868E-18
1.54212E-05 1.48752E-18
1.71822E-05 1.19873E-18
1.90385E-05 9.75974E-19
2.09899E-05 8.03842E-19
2.30365E-05 6.67865E-19
2.51783E-05 5.59248E-19
2.74153E-05 4.71677E-19
2.97475E-05 4.00518E-19
3.21749E-05 3.42275E-19
3.46974E-05 2.94272E-19
3.73152E-05 2.54430E-19
4.00281E-05 2.21133E-19
4.28362E-05 1.93117E-19
4.57395E-05 1.69396E-19
4.87380E-05 1.49196E-19
5.18317E-05 1.31910E-19
5.50205E-05 1.17048E-19
5.83045E-05 1.04218E-19
6.16838E-05 9.30982E-20
6.51582E-05 8.34243E-20
6.87277E-05 7.49759E-20
7.23925E-05 6.75712E-20
7.61524E-05 6.14345E-20
9.21439E-05 4.20058E-20
1.09658E-04 2.96903E-20
1.28695E-04 2.15793E-20
1.49255E-04 1.60608E-20
1.71338E-04 1.22002E-20
1.94942E-04 9.43404E-21
2.20070E-04 7.41028E-21
2.46720E-04 5.90131E-21
2.74892E-04 4.75702E-21
3.04586E-04 3.87688E-21
3.35803E-04 3.19107E-21
3.68542E-04 2.65015E-21
4.02802E-04 2.21889E-21
4.38585E-04 1.87165E-21
4.75889E-04 1.58948E-21
5.14715E-04 1.35832E-21
5.55063E-04 1.16745E-21
5.96931E-04 1.00874E-21
6.40321E-04 8.75904E-22
6.85233E-04 7.64037E-22
7.31665E-04 6.69300E-22
7.79618E-04 5.88632E-22
8.29092E-04 5.19611E-22
8.80086E-04 4.60274E-22
9.32601E-04 4.09041E-22
9.86636E-04 3.64624E-22
1.04219E-03 3.25963E-22
1.09927E-03 2.92193E-22
1.15786E-03 2.62590E-22
1.21797E-03 2.36557E-22
1.27961E-03 2.13592E-22
1.34276E-03 1.93273E-22
1.40743E-03 1.75246E-22
1.47362E-03 1.59209E-22
1.54133E-03 1.44908E-22
1.61056E-03 1.32122E-22
1.68131E-03 1.20667E-22
1.75357E-03 1.10380E-22
1.82735E-03 1.01123E-22
1.90265E-03 9.27775E-23
1.97947E-03 8.52380E-23
2.05780E-03 7.84147E-23
2.13765E-03 7.22288E-23
2.21902E-03 6.66112E-23
2.30190E-03 6.15017E-23
2.38630E-03 5.68469E-23
2.47222E-03 5.26003E-23
2.55965E-03 4.87205E-23
2.64859E-03 4.51710E-23
2.73905E-03 4.19193E-23
2.83103E-03 3.89367E-23
2.92452E-03 3.61977E-23
3.01952E-03 3.36793E-23
3.11604E-03 3.13612E-23
3.21407E-03 2.92251E-23
3.31362E-03 2.72546E-23
3.41468E-03 2.54351E-23
3.51725E-03 2.37534E-23
3.62133E-03 2.21975E-23
3.72692E-03 2.07567E-23
3.83403E-03 1.94214E-23
3.94265E-03 1.81827E-23
4.05278E-03 1.70327E-23
4.16442E-03 1.59642E-23
4.27757E-03 1.49707E-23
4.39223E-03 1.40462E-23
4.50840E-03 1.31854E-23
4.62608E-03 1.23831E-23
4.74527E-03 1.16351E-23
4.86597E-03 1.09371E-23
4.98817E-03 1.02854E-23
5.11188E-03 9.67648E-24
5.23711E-03 9.10730E-24
5.36383E-03 8.57491E-24
5.49207E-03 8.07666E-24
5.62181E-03 7.61012E-24
5.75306E-03 7.17302E-24
5.88581E-03 6.76331E-24
6.02007E-03 6.37908E-24
6.15583E-03 6.01857E-24
6.29310E-03 5.68016E-24
6.43187E-03 5.36236E-24
6.57214E-03 5.06377E-24
6.71392E-03 4.78312E-24
6.85720E-03 4.51923E-24
7.00198E-03 4.27099E-24
7.14827E-03 4.03738E-24
7.29605E-03 3.81747E-24
7.44534E-03 3.61037E-24
7.59612E-03 3.41526E-24
7.97965E-03 2.97515E-24
8.37255E-03 2.59495E-24
8.77480E-03 2.26590E-24
9.18641E-03 1.98062E-24
9.60736E-03 1.73289E-24
1.00376E-02 1.51746E-24
1.04773E-02 1.32984E-24
1.09262E-02 1.16626E-24
1.13844E-02 1.02345E-24
1.18520E-02 8.98664E-25
1.23288E-02 7.89507E-25
1.28150E-02 6.93941E-25
1.33104E-02 6.10206E-25
1.38150E-02 5.36783E-25
1.43290E-02 4.72360E-25
1.48521E-02 4.15801E-25
1.53845E-02 3.66119E-25
1.59262E-02 3.22458E-25
1.64770E-02 2.84072E-25
1.70371E-02 2.50312E-25
1.76063E-02 2.20610E-25
1.81848E-02 1.94473E-25
1.87724E-02 1.71466E-25
1.93692E-02 1.51213E-25
1.99751E-02 1.33379E-25
2.05901E-02 1.17676E-25
2.12143E-02 1.03846E-25
2.18476E-02 9.16655E-26
2.24900E-02 8.09377E-26
2.31415E-02 7.14889E-26
2.38021E-02 6.31666E-26
2.44717E-02 5.58365E-26
2.51504E-02 4.93803E-26
2.58382E-02 4.36938E-26
2.65349E-02 3.86854E-26
2.72407E-02 3.42740E-26
2.79555E-02 3.03884E-26
2.86793E-02 2.69656E-26
2.94120E-02 2.39504E-26
3.01537E-02 2.12937E-26
3.09043E-02 1.89527E-26
3.16639E-02 1.68891E-26
3.24324E-02 1.50698E-26
3.32098E-02 1.34650E-26
3.39961E-02 1.20489E-26
3.47912E-02 1.07987E-26
3.55952E-02 9.69404E-27
3.64081E-02 8.71736E-27
3.72297E-02 7.85303E-27
3.80602E-02 7.08736E-27
3.88995E-02 6.40830E-27
3.97476E-02 5.80528E-27
4.06044E-02 5.26900E-27
4.14700E-02 4.79133E-27
4.23443E-02 4.36513E-27
4.32273E-02 3.98414E-27
4.41190E-02 3.64288E-27
4.50194E-02 3.33656E-27
4.59284E-02 3.06098E-27
4.68461E-02 2.81248E-27
4.87074E-02 2.38432E-27
5.06030E-02 2.03105E-27
5.25328E-02 1.73667E-27
5.44967E-02 1.48901E-27
5.64946E-02 1.27883E-27
5.85262E-02 1.09907E-27
6.05914E-02 9.44355E-28
6.26901E-02 8.10538E-28
6.48222E-02 6.94397E-28
6.69873E-02 5.93398E-28
6.91854E-02 5.05511E-28
7.14163E-02 4.29080E-28
7.36799E-02 3.62725E-28
7.59760E-02 3.05274E-28
7.83043E-02 2.55708E-28
8.06647E-02 2.13129E-28
8.30571E-02 1.76734E-28
8.54812E-02 1.45799E-28
8.79369E-02 1.19665E-28
9.04240E-02 9.77341E-29
9.29422E-02 7.94614E-29
9.54915E-02 6.43522E-29
9.80716E-02 5.19593E-29
1.00682E-01 4.18807E-29
1.03323E-01 3.37570E-29
1.05995E-01 2.72696E-29
1.08696E-01 2.21382E-29
1.11427E-01 1.81184E-29
1.14188E-01 1.49991E-29
1.16978E-01 1.25998E-29
1.19797E-01 1.07679E-29
1.22645E-01 9.37584E-30
1.25522E-01 8.31833E-30
1.28428E-01 7.50981E-30
1.31361E-01 6.88181E-30
1.34323E-01 6.38054E-30
1.37313E-01 5.96473E-30
1.40330E-01 5.60349E-30
1.43375E-01 5.27453E-30
1.46447E-01 4.96250E-30
1.49545E-01 4.65753E-30
1.52671E-01 4.35402E-30
1.55823E-01 4.04952E-30
1.59001E-01 3.74388E-30
1.62205E-01 3.43853E-30
1.65435E-01 3.13583E-30
1.68690E-01 2.83863E-30
1.71970E-01 2.54994E-30
1.75276E-01 2.27264E-30
1.78606E-01 2.00929E-30
1.81961E-01 1.76203E-30
1.85340E-01 1.53251E-30
1.88743E-01 1.32186E-30
1.92169E-01 1.13073E-30
1.95619E-01 9.59271E-31
1.99092E-01 8.07240E-31
2.02589E-01 6.74019E-31
2.06107E-01 5.58694E-31
2.09649E-01 4.60122E-31
2.13212E-01 3.76989E-31
2.16797E-01 3.07869E-31
2.20404E-01 2.51280E-31
2.24032E-01 2.05728E-31
2.27680E-01 1.69745E-31
2.31350E-01 1.41925E-31
2.35040E-01 1.20944E-31
2.38751E-01 1.05580E-31
2.42481E-01 9.47254E-32
2.46231E-01 8.73957E-32
2.50000E-01 8.27286E-32
2.53788E-01 7.99846E-32
2.57595E-01 7.85418E-32
2.61421E-01 7.78893E-32
2.65264E-01 7.76182E-32
2.69126E-01 7.74123E-32
2.73005E-01 7.70370E-32
2.76901E-01 7.63288E-32
2.80814E-01 7.51851E-32
2.84744E-01 7.35531E-32
2.88691E-01 7.14211E-32
2.92653E-01 6.88089E-32
2.96632E-01 6.57604E-32
3.00625E-01 6.23360E-32
3.04634E-01 5.86070E-32
3.08658E-01 5.46504E-32
3.12697E-01 5.05443E-32
3.16749E-01 4.63648E-32
3.20816E-01 4.21832E-32
3.24896E-01 3.80645E-32
3.28990E-01 3.40656E-32
3.33097E-01 3.02347E-32
3.37216E-01 2.66111E-32
3.41348E-01 2.32254E-32
3.45492E-01 2.00992E-32
3.49647E-01 1.72464E-32
3.53814E-01 1.46736E-32
3.57992E-01 1.23808E-32
3.62181E-01 1.03626E-32
3.66381E-01 8.60878E-33
3.70590E-01 7.10554E-33
3.74810E-01 5.83611E-33
3.79039E-01 4.78167E-33
3.83277E-01 3.92206E-33
3.87524E-01 3.23640E-33
3.91780E-01 2.70374E-33
3.96044E-01 2.30346E-33
4.00316E-01 2.01573E-33
4.04596E-01 1.82179E-33
4.08882E-01 1.70420E-33
4.13176E-01 1.64703E-33
4.17476E-01 1.63594E-33
4.21783E-01 1.65823E-33
4.26095E-01 1.70287E-33
4.30413E-01 1.76046E-33
4.34737E-01 1.82315E-33
4.39065E-01 1.88454E-33
4.43398E-01 1.93962E-33
4.47736E-01 1.98458E-33
4.52077E-01 2.01672E-33
4.56422E-01 2.03431E-33
4.60770E-01 2.03645E-33
4.65122E-01 2.02296E-33
4.69476E-01 1.99420E-33
4.73832E-01 1.95104E-33
4.78190E-01 1.89466E-33
4.82550E-01 1.82655E-33
4.86912E-01 1.74832E-33
4.91274E-01 1.66171E-33
4.95637E-01 1.56850E-33
5.00000E-01 1.47042E-33
5.04363E-01 1.36917E-33
5.08726E-01 1.26633E-33
5.13088E-01 1.16336E-33
5.17450E-01 1.06157E-33
5.21810E-01 9.62140E-34
5.26168E-01 8.66056E-34
5.30524E-01 7.74156E-34
5.34878E-01 6.87119E-34
5.39230E-01 6.05464E-34
5.43578E-01 5.29569E-34
5.47923E-01 4.59677E-34
5.52264E-01 3.95907E-34
5.56602E-01 3.38272E-34
5.60935E-01 2.86690E-34
5.65263E-01 2.40994E-34
5.69587E-01 2.00953E-34
5.73905E-01 1.66280E-34
5.78217E-01 1.36645E-34
5.82524E-01 1.11685E-34
5.86824E-01 9.10194E-35
5.91118E-01 7.42526E-35
5.95404E-01 6.09864E-35
5.99684E-01 5.08268E-35
6.03956E-01 4.33887E-35
6.08220E-01 3.83015E-35
6.12476E-01 3.52135E-35
6.16723E-01 3.37943E-35
6.20961E-01 3.37377E-35
6.25190E-01 3.47634E-35
6.29410E-01 3.66169E-35
6.33619E-01 3.90708E-35
6.37819E-01 4.19240E-35
6.42008E-01 4.50013E-35
6.46186E-01 4.81526E-35
6.50353E-01 5.12518E-35
6.54508E-01 5.41934E-35
6.58652E-01 5.68944E-35
6.62784E-01 5.92890E-35
6.66903E-01 6.13296E-35
6.71010E-01 6.29829E-35
6.75104E-01 6.42297E-35
6.79184E-01 6.50613E-35
6.83251E-01 6.54807E-35
6.87303E-01 6.54982E-35
6.91342E-01 6.51308E-35
6.95366E-01 6.44016E-35
6.99375E-01 6.33380E-35
7.03368E-01 6.19697E-35
7.07347E-01 6.03297E-35
7.11309E-01 5.84513E-35
7.15256E-01 5.63690E-35
7.19186E-01 5.41157E-35
7.23099E-01 5.17257E-35
7.26995E-01 4.92297E-35
7.30874E-01 4.66584E-35
7.34736E-01 4.40403E-35
7.38579E-01 4.14008E-35
7.42405E-01 3.87644E-35
7.46212E-01 3.61520E-35
7.50000E-01 3.35831E-35
7.53769E-01 3.10742E-35
7.57519E-01 2.86397E-35
7.61249E-01 2.62917E-35
7.64960E-01 2.40400E-35
7.68650E-01 2.18929E-35
7.72320E-01 1.98560E-35
7.75968E-01 1.79340E-35
7.79596E-01 1.61289E-35
7.83203E-01 1.44425E-35
7.86788E-01 1.28745E-35
7.90351E-01 1.14237E-35
7.93893E-01 1.00879E-35
7.97411E-01 8.86415E-36
8.00908E-01 7.74874E-36
8.04381E-01 6.73724E-36
8.07831E-01 5.82498E-36
8.11257E-01 5.00677E-36
8.14660E-01 4.27727E-36
8.18039E-01 3.63094E-36
8.21394E-01 3.06214E-36
8.24724E-01 2.56525E-36
8.28030E-01 2.13465E-36
8.31310E-01 1.76478E-36
8.34565E-01 1.45043E-36
8.37795E-01 1.18631E-36
8.40999E-01 9.67534E-37
8.44177E-01 7.89299E-37
8.47329E-01 6.47192E-37
8.50455E-01 5.36967E-37
8.53553E-01 4.54694E-37
8.56625E-01 3.96713E-37
8.59670E-01 3.59641E-37
8.62687E-01 3.40352E-37
8.65677E-01 3.36017E-37
8.68639E-01 3.44032E-37
8.71572E-01 3.62089E-37
8.74478E-01 3.88060E-37
8.77355E-01 4.20115E-37
8.80203E-01 4.56540E-37
8.83022E-01 4.95958E-37
8.85812E-01 5.37050E-37
8.88573E-01 5.78695E-37
8.91304E-01 6.20071E-37
8.94005E-01 6.60322E-37
8.96677E-01 6.98817E-37
8.99318E-01 7.34955E-37
9.01928E-01 7.68468E-37
9.04508E-01 7.98811E-37
9.07058E-01 8.25992E-37
9.09576E-01 8.49757E-37
9.12063E-01 8.69920E-37
9.14519E-01 8.86575E-37
9.16943E-01 8.99683E-37
9.19335E-01 9.09341E-37
9.21696E-01 9.15556E-37
9.24024E-01 9.18537E-37
9.26320E-01 9.18351E-37
9.28584E-01 9.15283E-37
9.30815E-01 9.09435E-37
9.33013E-01 9.00947E-37
9.35178E-01 8.90068E-37
9.37310E-01 8.77104E-37
9.39409E-01 8.61998E-37
9.41474E-01 8.45178E-37
9.43505E-01 8.26729E-37
9.45503E-01 8.06901E-37
9.47467E-01 7.85835E-37
9.49397E-01 7.63661E-37
9.51293E-01 7.40724E-37
9.53154E-01 7.16990E-37
9.54981E-01 6.92671E-37
9.56773E-01 6.67895E-37
9.58530E-01 6.42821E-37
9.60252E-01 6.17599E-37
9.61940E-01 5.92281E-37
9.63592E-01 5.66992E-37
9.65209E-01 5.41857E-37
9.66790E-01 5.16891E-37
9.68336E-01 4.92232E-37
9.69846E-01 4.67918E-37
9.71321E-01 4.43998E-37
9.72759E-01 4.20581E-37
9.74162E-01 3.97656E-37
9.75528E-01 3.75326E-37
9.76858E-01 3.53536E-37
9.78152E-01 3.32402E-37
9.79410E-01 3.11870E-37
9.80631E-01 2.92046E-37
9.81815E-01 2.72867E-37
9.82963E-01 2.54394E-37
9.84074E-01 2.36589E-37
9.85148E-01 2.19498E-37
9.86185E-01 2.03100E-37
9.87185E-01 1.87409E-37
9.88148E-01 1.72408E-37
9.89074E-01 1.58124E-37
9.89962E-01 1.44473E-37
9.90814E-01 1.31550E-37
9.91627E-01 1.19288E-37
9.92404E-01 1.07685E-37
9.93143E-01 9.67234E-38
9.93844E-01 8.64360E-38
9.94508E-01 7.67579E-38
9.95134E-01 6.77104E-38
9.95722E-01 5.92759E-38
9.96273E-01 5.14319E-38
9.96786E-01 4.41969E-38
9.97261E-01 3.75182E-38
9.97698E-01 3.14251E-38
9.98097E-01 2.59095E-38
9.98459E-01 2.09335E-38
9.98782E-01 1.65027E-38
9.99067E-01 1.26175E-38
9.99315E-01 9.25897E-39
9.99524E-01 6.42110E-39
9.99695E-01 4.11939E-39
9.99829E-01 2.33261E-39
9.99924E-01 1.05407E-39
9.99981E-01 2.94086E-40
1.00000E+00 3.75810E-41
