 #
 # Subroutine ELSEPA. Elastic scattering of electrons and positrons
 #                    by neutral atoms and positive ions
 #
 # Projectile: positron
 # Kinetic energy = 4.50000E+06 eV = 1.65372E+05 a.u.
 #
 # WARNING: High-energy factorization with free-atom DF screening.
 #          Absorption, polarization and exchange corrections are
 #          switched off.
 #          Phase shifts are calculated for the bare nucleus.
 #          Scattering amplitudes are not evaluated.
 #
 # Element: Yb,  Z =  70,  atomic weight = 1.73040E+02 g/mol
 #
 # Nuclear model: Fermi distribution
 #                Average radius = 5.96256E-13 cm
 #                Skin thickness = 5.46000E-14 cm
 #
 # Number of electrons = 70
 #
 # Total elastic cross section = 7.04857E-18 cm**2 = 2.51709E-01 a0**2
 # 1st transport cross section = 2.37665E-22 cm**2 = 8.48717E-06 a0**2
 # 2nd transport cross section = 6.83006E-22 cm**2 = 2.43906E-05 a0**2
 #
 #
 # Differential cross section:                       MU=(1-COS(THETA))/2
 #
 #  THETA        MU          DCS          DCS        Sherman      error
 #  (deg)                 (cm**2/sr)   (a0**2/sr)    function
 #----------------------------------------------------------------------
0.00000E+00 1.67629E-12
7.61557E-13 1.67627E-12
1.18994E-12 1.67626E-12
1.71346E-12 1.67624E-12
2.33225E-12 1.67623E-12
3.04617E-12 1.67621E-12
3.85530E-12 1.67619E-12
4.75964E-12 1.67617E-12
5.75917E-12 1.67615E-12
6.85391E-12 1.67612E-12
8.04379E-12 1.67609E-12
9.32893E-12 1.67606E-12
1.07092E-11 1.67603E-12
1.21847E-11 1.67599E-12
1.37554E-11 1.67596E-12
1.54213E-11 1.67592E-12
1.71823E-11 1.67587E-12
1.90386E-11 1.67583E-12
2.09900E-11 1.67578E-12
2.30367E-11 1.67573E-12
2.51785E-11 1.67568E-12
2.74156E-11 1.67563E-12
2.97478E-11 1.67557E-12
3.21752E-11 1.67552E-12
3.46979E-11 1.67546E-12
3.73157E-11 1.67539E-12
4.00286E-11 1.67533E-12
4.28368E-11 1.67526E-12
4.57402E-11 1.67520E-12
4.87388E-11 1.67512E-12
5.18325E-11 1.67505E-12
5.50215E-11 1.67498E-12
5.83057E-11 1.67490E-12
6.16850E-11 1.67482E-12
6.51595E-11 1.67474E-12
6.87293E-11 1.67465E-12
7.23943E-11 1.67456E-12
7.61544E-11 1.67448E-12
1.18991E-10 1.67346E-12
1.71347E-10 1.67223E-12
2.33223E-10 1.67078E-12
3.04617E-10 1.66910E-12
3.85531E-10 1.66721E-12
4.75965E-10 1.66510E-12
5.75917E-10 1.66277E-12
6.85389E-10 1.66023E-12
8.04380E-10 1.65747E-12
9.32891E-10 1.65450E-12
1.07092E-09 1.65133E-12
1.21847E-09 1.64794E-12
1.37554E-09 1.64435E-12
1.54213E-09 1.64056E-12
1.71823E-09 1.63657E-12
1.90386E-09 1.63238E-12
2.09900E-09 1.62799E-12
2.30367E-09 1.62342E-12
2.51785E-09 1.61865E-12
2.74156E-09 1.61370E-12
2.97478E-09 1.60856E-12
3.21752E-09 1.60325E-12
3.46978E-09 1.59776E-12
3.73156E-09 1.59209E-12
4.00286E-09 1.58626E-12
4.28368E-09 1.58026E-12
4.57402E-09 1.57409E-12
4.87388E-09 1.56777E-12
5.18326E-09 1.56130E-12
5.50215E-09 1.55467E-12
5.83057E-09 1.54789E-12
6.16850E-09 1.54097E-12
6.51596E-09 1.53392E-12
6.87293E-09 1.52672E-12
7.23942E-09 1.51940E-12
7.61544E-09 1.51194E-12
1.18991E-08 1.43148E-12
1.71347E-08 1.34273E-12
2.33223E-08 1.24974E-12
3.04617E-08 1.15597E-12
3.85531E-08 1.06424E-12
4.75965E-08 9.76654E-13
5.75917E-08 8.94626E-13
6.85389E-08 8.19114E-13
8.04380E-08 7.50241E-13
9.32891E-08 6.87954E-13
1.07092E-07 6.31959E-13
1.21847E-07 5.81814E-13
1.37554E-07 5.36996E-13
1.54213E-07 4.96958E-13
1.71823E-07 4.61160E-13
1.90386E-07 4.29094E-13
2.09900E-07 4.00296E-13
2.30367E-07 3.74349E-13
2.51785E-07 3.50872E-13
2.74156E-07 3.29543E-13
2.97478E-07 3.10091E-13
3.21752E-07 2.92283E-13
3.46978E-07 2.75917E-13
3.73156E-07 2.60825E-13
4.00286E-07 2.46859E-13
4.28368E-07 2.33896E-13
4.57402E-07 2.21829E-13
4.87388E-07 2.10568E-13
5.18325E-07 2.00027E-13
5.50215E-07 1.90124E-13
5.83057E-07 1.80825E-13
6.16850E-07 1.72081E-13
6.51596E-07 1.63847E-13
6.87293E-07 1.56083E-13
7.23942E-07 1.48757E-13
7.61543E-07 1.41836E-13
1.18991E-06 8.86160E-14
1.71347E-06 5.84572E-14
2.33223E-06 3.98717E-14
3.04617E-06 2.80462E-14
3.85531E-06 2.02618E-14
4.75964E-06 1.49662E-14
5.75916E-06 1.12569E-14
6.85388E-06 8.58592E-15
8.04378E-06 6.64320E-15
9.32888E-06 5.20737E-15
1.07092E-05 4.13170E-15
1.21846E-05 3.31608E-15
1.37553E-05 2.69070E-15
1.54212E-05 2.20603E-15
1.71822E-05 1.82648E-15
1.90385E-05 1.52542E-15
2.09899E-05 1.28638E-15
2.30365E-05 1.09361E-15
2.51783E-05 9.35135E-16
2.74153E-05 8.04864E-16
2.97475E-05 6.97006E-16
3.21749E-05 6.07068E-16
3.46974E-05 5.31528E-16
3.73152E-05 4.67617E-16
4.00281E-05 4.13158E-16
4.28362E-05 3.66442E-16
4.57395E-05 3.26134E-16
4.87380E-05 2.91181E-16
5.18317E-05 2.60743E-16
5.50205E-05 2.34137E-16
5.83045E-05 2.10831E-16
6.16838E-05 1.90352E-16
6.51582E-05 1.72301E-16
6.87277E-05 1.56338E-16
7.23925E-05 1.42175E-16
7.61524E-05 1.29570E-16
9.21439E-05 9.10976E-17
1.09658E-04 6.58291E-17
1.28695E-04 4.87426E-17
1.49255E-04 3.68490E-17
1.71338E-04 2.83737E-17
1.94942E-04 2.22006E-17
2.20070E-04 1.76190E-17
2.46720E-04 1.41612E-17
2.74892E-04 1.15116E-17
3.04586E-04 9.45385E-18
3.35803E-04 7.83603E-18
3.68542E-04 6.54974E-18
4.02802E-04 5.51640E-18
4.38585E-04 4.67894E-18
4.75889E-04 3.99441E-18
5.14715E-04 3.43046E-18
5.55063E-04 2.96246E-18
5.96931E-04 2.57145E-18
6.40321E-04 2.24273E-18
6.85233E-04 1.96475E-18
7.31665E-04 1.72841E-18
7.79618E-04 1.52645E-18
8.29092E-04 1.35303E-18
8.80086E-04 1.20344E-18
9.32601E-04 1.07389E-18
9.86636E-04 9.61244E-19
1.04219E-03 8.62936E-19
1.09927E-03 7.76833E-19
1.15786E-03 7.01164E-19
1.21797E-03 6.34454E-19
1.27961E-03 5.75461E-19
1.34276E-03 5.23141E-19
1.40743E-03 4.76613E-19
1.47362E-03 4.35122E-19
1.54133E-03 3.98030E-19
1.61056E-03 3.64794E-19
1.68131E-03 3.34943E-19
1.75357E-03 3.08074E-19
1.82735E-03 2.83836E-19
1.90265E-03 2.61927E-19
1.97947E-03 2.42085E-19
2.05780E-03 2.24081E-19
2.13765E-03 2.07713E-19
2.21902E-03 1.92809E-19
2.30190E-03 1.79212E-19
2.38630E-03 1.66789E-19
2.47222E-03 1.55420E-19
2.55965E-03 1.45001E-19
2.64859E-03 1.35437E-19
2.73905E-03 1.26646E-19
2.83103E-03 1.18555E-19
2.92452E-03 1.11097E-19
3.01952E-03 1.04215E-19
3.11604E-03 9.78556E-20
3.21407E-03 9.19723E-20
3.31362E-03 8.65228E-20
3.41468E-03 8.14695E-20
3.51725E-03 7.67784E-20
3.62133E-03 7.24189E-20
3.72692E-03 6.83633E-20
3.83403E-03 6.45866E-20
3.94265E-03 6.10662E-20
4.05278E-03 5.77814E-20
4.16442E-03 5.47136E-20
4.27757E-03 5.18460E-20
4.39223E-03 4.91629E-20
4.50840E-03 4.66504E-20
4.62608E-03 4.42957E-20
4.74527E-03 4.20870E-20
4.86597E-03 4.00137E-20
4.98817E-03 3.80660E-20
5.11188E-03 3.62347E-20
5.23711E-03 3.45118E-20
5.36383E-03 3.28896E-20
5.49207E-03 3.13611E-20
5.62181E-03 2.99199E-20
5.75306E-03 2.85602E-20
5.88581E-03 2.72764E-20
6.02007E-03 2.60636E-20
6.15583E-03 2.49171E-20
6.29310E-03 2.38326E-20
6.43187E-03 2.28062E-20
6.57214E-03 2.18341E-20
6.71392E-03 2.09130E-20
6.85720E-03 2.00397E-20
7.00198E-03 1.92113E-20
7.14827E-03 1.84249E-20
7.29605E-03 1.76782E-20
7.44534E-03 1.69687E-20
7.59612E-03 1.62942E-20
7.97965E-03 1.47481E-20
8.37255E-03 1.33800E-20
8.77480E-03 1.21661E-20
9.18641E-03 1.10859E-20
9.60736E-03 1.01222E-20
1.00376E-02 9.26037E-21
1.04773E-02 8.48772E-21
1.09262E-02 7.79346E-21
1.13844E-02 7.16828E-21
1.18520E-02 6.60411E-21
1.23288E-02 6.09398E-21
1.28150E-02 5.63180E-21
1.33104E-02 5.21230E-21
1.38150E-02 4.83085E-21
1.43290E-02 4.48339E-21
1.48521E-02 4.16636E-21
1.53845E-02 3.87665E-21
1.59262E-02 3.61148E-21
1.64770E-02 3.36842E-21
1.70371E-02 3.14529E-21
1.76063E-02 2.94018E-21
1.81848E-02 2.75138E-21
1.87724E-02 2.57736E-21
1.93692E-02 2.41676E-21
1.99751E-02 2.26837E-21
2.05901E-02 2.13108E-21
2.12143E-02 2.00393E-21
2.18476E-02 1.88603E-21
2.24900E-02 1.77660E-21
2.31415E-02 1.67491E-21
2.38021E-02 1.58033E-21
2.44717E-02 1.49226E-21
2.51504E-02 1.41018E-21
2.58382E-02 1.33361E-21
2.65349E-02 1.26212E-21
2.72407E-02 1.19530E-21
2.79555E-02 1.13280E-21
2.86793E-02 1.07429E-21
2.94120E-02 1.01947E-21
3.01537E-02 9.68062E-22
3.09043E-02 9.19819E-22
3.16639E-02 8.74511E-22
3.24324E-02 8.31928E-22
3.32098E-02 7.91876E-22
3.39961E-02 7.54178E-22
3.47912E-02 7.18672E-22
3.55952E-02 6.85206E-22
3.64081E-02 6.53642E-22
3.72297E-02 6.23854E-22
3.80602E-02 5.95723E-22
3.88995E-02 5.69141E-22
3.97476E-02 5.44007E-22
4.06044E-02 5.20228E-22
4.14700E-02 4.97718E-22
4.23443E-02 4.76397E-22
4.32273E-02 4.56192E-22
4.41190E-02 4.37032E-22
4.50194E-02 4.18855E-22
4.59284E-02 4.01600E-22
4.68461E-02 3.85214E-22
4.87074E-02 3.54841E-22
5.06030E-02 3.27366E-22
5.25328E-02 3.02464E-22
5.44967E-02 2.79855E-22
5.64946E-02 2.59291E-22
5.85262E-02 2.40555E-22
6.05914E-02 2.23458E-22
6.26901E-02 2.07831E-22
6.48222E-02 1.93527E-22
6.69873E-02 1.80415E-22
6.91854E-02 1.68378E-22
7.14163E-02 1.57313E-22
7.36799E-02 1.47129E-22
7.59760E-02 1.37742E-22
7.83043E-02 1.29080E-22
8.06647E-02 1.21077E-22
8.30571E-02 1.13675E-22
8.54812E-02 1.06820E-22
8.79369E-02 1.00465E-22
9.04240E-02 9.45682E-23
9.29422E-02 8.90898E-23
9.54915E-02 8.39953E-23
9.80716E-02 7.92531E-23
1.00682E-01 7.48347E-23
1.03323E-01 7.07142E-23
1.05995E-01 6.68681E-23
1.08696E-01 6.32748E-23
1.11427E-01 5.99150E-23
1.14188E-01 5.67707E-23
1.16978E-01 5.38258E-23
1.19797E-01 5.10655E-23
1.22645E-01 4.84762E-23
1.25522E-01 4.60454E-23
1.28428E-01 4.37618E-23
1.31361E-01 4.16150E-23
1.34323E-01 3.95952E-23
1.37313E-01 3.76937E-23
1.40330E-01 3.59024E-23
1.43375E-01 3.42137E-23
1.46447E-01 3.26209E-23
1.49545E-01 3.11174E-23
1.52671E-01 2.96975E-23
1.55823E-01 2.83556E-23
1.59001E-01 2.70867E-23
1.62205E-01 2.58862E-23
1.65435E-01 2.47498E-23
1.68690E-01 2.36734E-23
1.71970E-01 2.26533E-23
1.75276E-01 2.16861E-23
1.78606E-01 2.07685E-23
1.81961E-01 1.98976E-23
1.85340E-01 1.90706E-23
1.88743E-01 1.82849E-23
1.92169E-01 1.75380E-23
1.95619E-01 1.68277E-23
1.99092E-01 1.61520E-23
2.02589E-01 1.55087E-23
2.06107E-01 1.48962E-23
2.09649E-01 1.43127E-23
2.13212E-01 1.37566E-23
2.16797E-01 1.32263E-23
2.20404E-01 1.27205E-23
2.24032E-01 1.22378E-23
2.27680E-01 1.17770E-23
2.31350E-01 1.13369E-23
2.35040E-01 1.09165E-23
2.38751E-01 1.05147E-23
2.42481E-01 1.01305E-23
2.46231E-01 9.76311E-24
2.50000E-01 9.41156E-24
2.53788E-01 9.07510E-24
2.57595E-01 8.75295E-24
2.61421E-01 8.44442E-24
2.65264E-01 8.14881E-24
2.69126E-01 7.86551E-24
2.73005E-01 7.59390E-24
2.76901E-01 7.33343E-24
2.80814E-01 7.08355E-24
2.84744E-01 6.84377E-24
2.88691E-01 6.61360E-24
2.92653E-01 6.39260E-24
2.96632E-01 6.18034E-24
3.00625E-01 5.97641E-24
3.04634E-01 5.78043E-24
3.08658E-01 5.59204E-24
3.12697E-01 5.41089E-24
3.16749E-01 5.23665E-24
3.20816E-01 5.06903E-24
3.24896E-01 4.90772E-24
3.28990E-01 4.75246E-24
3.33097E-01 4.60296E-24
3.37216E-01 4.45898E-24
3.41348E-01 4.32029E-24
3.45492E-01 4.18666E-24
3.49647E-01 4.05786E-24
3.53814E-01 3.93371E-24
3.57992E-01 3.81399E-24
3.62181E-01 3.69853E-24
3.66381E-01 3.58715E-24
3.70590E-01 3.47968E-24
3.74810E-01 3.37596E-24
3.79039E-01 3.27584E-24
3.83277E-01 3.17917E-24
3.87524E-01 3.08581E-24
3.91780E-01 2.99563E-24
3.96044E-01 2.90851E-24
4.00316E-01 2.82431E-24
4.04596E-01 2.74294E-24
4.08882E-01 2.66427E-24
4.13176E-01 2.58821E-24
4.17476E-01 2.51466E-24
4.21783E-01 2.44350E-24
4.26095E-01 2.37466E-24
4.30413E-01 2.30805E-24
4.34737E-01 2.24358E-24
4.39065E-01 2.18118E-24
4.43398E-01 2.12076E-24
4.47736E-01 2.06225E-24
4.52077E-01 2.00559E-24
4.56422E-01 1.95070E-24
4.60770E-01 1.89751E-24
4.65122E-01 1.84598E-24
4.69476E-01 1.79603E-24
4.73832E-01 1.74762E-24
4.78190E-01 1.70068E-24
4.82550E-01 1.65517E-24
4.86912E-01 1.61103E-24
4.91274E-01 1.56822E-24
4.95637E-01 1.52669E-24
5.00000E-01 1.48639E-24
5.04363E-01 1.44729E-24
5.08726E-01 1.40934E-24
5.13088E-01 1.37250E-24
5.17450E-01 1.33673E-24
5.21810E-01 1.30201E-24
5.26168E-01 1.26828E-24
5.30524E-01 1.23553E-24
5.34878E-01 1.20371E-24
5.39230E-01 1.17280E-24
5.43578E-01 1.14277E-24
5.47923E-01 1.11359E-24
5.52264E-01 1.08522E-24
5.56602E-01 1.05765E-24
5.60935E-01 1.03085E-24
5.65263E-01 1.00479E-24
5.69587E-01 9.79446E-25
5.73905E-01 9.54801E-25
5.78217E-01 9.30831E-25
5.82524E-01 9.07514E-25
5.86824E-01 8.84830E-25
5.91118E-01 8.62758E-25
5.95404E-01 8.41281E-25
5.99684E-01 8.20378E-25
6.03956E-01 8.00034E-25
6.08220E-01 7.80230E-25
6.12476E-01 7.60950E-25
6.16723E-01 7.42178E-25
6.20961E-01 7.23899E-25
6.25190E-01 7.06098E-25
6.29410E-01 6.88761E-25
6.33619E-01 6.71874E-25
6.37819E-01 6.55423E-25
6.42008E-01 6.39395E-25
6.46186E-01 6.23779E-25
6.50353E-01 6.08562E-25
6.54508E-01 5.93732E-25
6.58652E-01 5.79278E-25
6.62784E-01 5.65190E-25
6.66903E-01 5.51457E-25
6.71010E-01 5.38068E-25
6.75104E-01 5.25014E-25
6.79184E-01 5.12285E-25
6.83251E-01 4.99872E-25
6.87303E-01 4.87767E-25
6.91342E-01 4.75960E-25
6.95366E-01 4.64444E-25
6.99375E-01 4.53209E-25
7.03368E-01 4.42250E-25
7.07347E-01 4.31557E-25
7.11309E-01 4.21123E-25
7.15256E-01 4.10942E-25
7.19186E-01 4.01007E-25
7.23099E-01 3.91311E-25
7.26995E-01 3.81847E-25
7.30874E-01 3.72609E-25
7.34736E-01 3.63592E-25
7.38579E-01 3.54789E-25
7.42405E-01 3.46195E-25
7.46212E-01 3.37805E-25
7.50000E-01 3.29612E-25
7.53769E-01 3.21611E-25
7.57519E-01 3.13799E-25
7.61249E-01 3.06169E-25
7.64960E-01 2.98718E-25
7.68650E-01 2.91440E-25
7.72320E-01 2.84331E-25
7.75968E-01 2.77387E-25
7.79596E-01 2.70604E-25
7.83203E-01 2.63977E-25
7.86788E-01 2.57503E-25
7.90351E-01 2.51178E-25
7.93893E-01 2.44998E-25
7.97411E-01 2.38960E-25
8.00908E-01 2.33059E-25
8.04381E-01 2.27294E-25
8.07831E-01 2.21660E-25
8.11257E-01 2.16154E-25
8.14660E-01 2.10773E-25
8.18039E-01 2.05514E-25
8.21394E-01 2.00374E-25
8.24724E-01 1.95351E-25
8.28030E-01 1.90442E-25
8.31310E-01 1.85643E-25
8.34565E-01 1.80952E-25
8.37795E-01 1.76367E-25
8.40999E-01 1.71886E-25
8.44177E-01 1.67505E-25
8.47329E-01 1.63223E-25
8.50455E-01 1.59038E-25
8.53553E-01 1.54946E-25
8.56625E-01 1.50947E-25
8.59670E-01 1.47037E-25
8.62687E-01 1.43215E-25
8.65677E-01 1.39480E-25
8.68639E-01 1.35828E-25
8.71572E-01 1.32258E-25
8.74478E-01 1.28769E-25
8.77355E-01 1.25358E-25
8.80203E-01 1.22025E-25
8.83022E-01 1.18766E-25
8.85812E-01 1.15582E-25
8.88573E-01 1.12469E-25
8.91304E-01 1.09427E-25
8.94005E-01 1.06454E-25
8.96677E-01 1.03549E-25
8.99318E-01 1.00710E-25
9.01928E-01 9.79360E-26
9.04508E-01 9.52255E-26
9.07058E-01 9.25772E-26
9.09576E-01 8.99900E-26
9.12063E-01 8.74626E-26
9.14519E-01 8.49938E-26
9.16943E-01 8.25825E-26
9.19335E-01 8.02276E-26
9.21696E-01 7.79279E-26
9.24024E-01 7.56825E-26
9.26320E-01 7.34902E-26
9.28584E-01 7.13501E-26
9.30815E-01 6.92611E-26
9.33013E-01 6.72225E-26
9.35178E-01 6.52332E-26
9.37310E-01 6.32923E-26
9.39409E-01 6.13990E-26
9.41474E-01 5.95525E-26
9.43505E-01 5.77518E-26
9.45503E-01 5.59963E-26
9.47467E-01 5.42852E-26
9.49397E-01 5.26176E-26
9.51293E-01 5.09929E-26
9.53154E-01 4.94103E-26
9.54981E-01 4.78693E-26
9.56773E-01 4.63690E-26
9.58530E-01 4.49088E-26
9.60252E-01 4.34882E-26
9.61940E-01 4.21066E-26
9.63592E-01 4.07632E-26
9.65209E-01 3.94576E-26
9.66790E-01 3.81892E-26
9.68336E-01 3.69574E-26
9.69846E-01 3.57618E-26
9.71321E-01 3.46019E-26
9.72759E-01 3.34771E-26
9.74162E-01 3.23869E-26
9.75528E-01 3.13310E-26
9.76858E-01 3.03089E-26
9.78152E-01 2.93202E-26
9.79410E-01 2.83644E-26
9.80631E-01 2.74411E-26
9.81815E-01 2.65501E-26
9.82963E-01 2.56908E-26
9.84074E-01 2.48630E-26
9.85148E-01 2.40663E-26
9.86185E-01 2.33004E-26
9.87185E-01 2.25650E-26
9.88148E-01 2.18597E-26
9.89074E-01 2.11844E-26
9.89962E-01 2.05386E-26
9.90814E-01 1.99222E-26
9.91627E-01 1.93350E-26
9.92404E-01 1.87765E-26
9.93143E-01 1.82468E-26
9.93844E-01 1.77454E-26
9.94508E-01 1.72723E-26
9.95134E-01 1.68272E-26
9.95722E-01 1.64100E-26
9.96273E-01 1.60205E-26
9.96786E-01 1.56585E-26
9.97261E-01 1.53239E-26
9.97698E-01 1.50165E-26
9.98097E-01 1.47363E-26
9.98459E-01 1.44831E-26
9.98782E-01 1.42569E-26
9.99067E-01 1.40574E-26
9.99315E-01 1.38847E-26
9.99524E-01 1.37387E-26
9.99695E-01 1.36194E-26
9.99829E-01 1.35266E-26
9.99924E-01 1.34603E-26
9.99981E-01 1.34206E-26
1.00000E+00 1.34073E-26
