 #
 # Subroutine ELSEPA. Elastic scattering of electrons and positrons
 #                    by neutral atoms and positive ions
 #
 # Projectile: positron
 # Kinetic energy = 3.00000E+06 eV = 1.10248E+05 a.u.
 #
 # WARNING: High-energy factorization with free-atom DF screening.
 #          Absorption, polarization and exchange corrections are
 #          switched off.
 #          Phase shifts are calculated for the bare nucleus.
 #          Scattering amplitudes are not evaluated.
 #
 # Element: Yb,  Z =  70,  atomic weight = 1.73040E+02 g/mol
 #
 # Nuclear model: Fermi distribution
 #                Average radius = 5.96256E-13 cm
 #                Skin thickness = 5.46000E-14 cm
 #
 # Number of electrons = 70
 #
 # Total elastic cross section = 7.12690E-18 cm**2 = 2.54506E-01 a0**2
 # 1st transport cross section = 4.57424E-22 cm**2 = 1.63349E-05 a0**2
 # 2nd transport cross section = 1.30862E-21 cm**2 = 4.67316E-05 a0**2
 #
 #
 # Differential cross section:                       MU=(1-COS(THETA))/2
 #
 #  THETA        MU          DCS          DCS        Sherman      error
 #  (deg)                 (cm**2/sr)   (a0**2/sr)    function
 #----------------------------------------------------------------------
0.00000E+00 8.22927E-13
7.61557E-13 8.22922E-13
1.18994E-12 8.22920E-13
1.71346E-12 8.22916E-13
2.33225E-12 8.22913E-13
3.04617E-12 8.22908E-13
3.85530E-12 8.22904E-13
4.75964E-12 8.22898E-13
5.75917E-12 8.22893E-13
6.85391E-12 8.22886E-13
8.04379E-12 8.22879E-13
9.32893E-12 8.22872E-13
1.07092E-11 8.22864E-13
1.21847E-11 8.22855E-13
1.37554E-11 8.22846E-13
1.54213E-11 8.22837E-13
1.71823E-11 8.22827E-13
1.90386E-11 8.22816E-13
2.09900E-11 8.22805E-13
2.30367E-11 8.22793E-13
2.51785E-11 8.22781E-13
2.74156E-11 8.22768E-13
2.97478E-11 8.22755E-13
3.21752E-11 8.22741E-13
3.46979E-11 8.22726E-13
3.73157E-11 8.22711E-13
4.00286E-11 8.22696E-13
4.28368E-11 8.22680E-13
4.57402E-11 8.22664E-13
4.87388E-11 8.22646E-13
5.18325E-11 8.22629E-13
5.50215E-11 8.22611E-13
5.83057E-11 8.22592E-13
6.16850E-11 8.22573E-13
6.51595E-11 8.22553E-13
6.87293E-11 8.22533E-13
7.23943E-11 8.22512E-13
7.61544E-11 8.22491E-13
1.18991E-10 8.22249E-13
1.71347E-10 8.21953E-13
2.33223E-10 8.21605E-13
3.04617E-10 8.21203E-13
3.85531E-10 8.20749E-13
4.75965E-10 8.20242E-13
5.75917E-10 8.19682E-13
6.85389E-10 8.19070E-13
8.04380E-10 8.18406E-13
9.32891E-10 8.17690E-13
1.07092E-09 8.16923E-13
1.21847E-09 8.16104E-13
1.37554E-09 8.15233E-13
1.54213E-09 8.14312E-13
1.71823E-09 8.13341E-13
1.90386E-09 8.12319E-13
2.09900E-09 8.11247E-13
2.30367E-09 8.10126E-13
2.51785E-09 8.08955E-13
2.74156E-09 8.07736E-13
2.97478E-09 8.06468E-13
3.21752E-09 8.05152E-13
3.46978E-09 8.03788E-13
3.73156E-09 8.02377E-13
4.00286E-09 8.00919E-13
4.28368E-09 7.99415E-13
4.57402E-09 7.97865E-13
4.87388E-09 7.96270E-13
5.18326E-09 7.94629E-13
5.50215E-09 7.92945E-13
5.83057E-09 7.91216E-13
6.16850E-09 7.89444E-13
6.51596E-09 7.87630E-13
6.87293E-09 7.85773E-13
7.23942E-09 7.83874E-13
7.61544E-09 7.81935E-13
1.18991E-08 7.60407E-13
1.71347E-08 7.35450E-13
2.33223E-08 7.07809E-13
3.04617E-08 6.77979E-13
3.85531E-08 6.46867E-13
4.75965E-08 6.14951E-13
5.75917E-08 5.82737E-13
6.85389E-08 5.51011E-13
8.04380E-08 5.19852E-13
9.32891E-08 4.89714E-13
1.07092E-07 4.60944E-13
1.21847E-07 4.33464E-13
1.37554E-07 4.07629E-13
1.54213E-07 3.83371E-13
1.71823E-07 3.60591E-13
1.90386E-07 3.39550E-13
2.09900E-07 3.19930E-13
2.30367E-07 3.01721E-13
2.51785E-07 2.84961E-13
2.74156E-07 2.69396E-13
2.97478E-07 2.55034E-13
3.21752E-07 2.41769E-13
3.46978E-07 2.29464E-13
3.73156E-07 2.18104E-13
4.00286E-07 2.07559E-13
4.28368E-07 1.97763E-13
4.57402E-07 1.88665E-13
4.87388E-07 1.80183E-13
5.18325E-07 1.72271E-13
5.50215E-07 1.64864E-13
5.83057E-07 1.57934E-13
6.16850E-07 1.51423E-13
6.51596E-07 1.45294E-13
6.87293E-07 1.39538E-13
7.23942E-07 1.34079E-13
7.61543E-07 1.28927E-13
1.18991E-06 8.94469E-14
1.71347E-06 6.39308E-14
2.33223E-06 4.58883E-14
3.04617E-06 3.44069E-14
3.85531E-06 2.57878E-14
4.75964E-06 1.97987E-14
5.75916E-06 1.54898E-14
6.85388E-06 1.21803E-14
8.04378E-06 9.75332E-15
9.32888E-06 7.88757E-15
1.07092E-05 6.42338E-15
1.21846E-05 5.29259E-15
1.37553E-05 4.38163E-15
1.54212E-05 3.65428E-15
1.71822E-05 3.07305E-15
1.90385E-05 2.59084E-15
2.09899E-05 2.20304E-15
2.30365E-05 1.88402E-15
2.51783E-05 1.61754E-15
2.74153E-05 1.39716E-15
2.97475E-05 1.21237E-15
3.21749E-05 1.05706E-15
3.46974E-05 9.26570E-16
3.73152E-05 8.15578E-16
4.00281E-05 7.21200E-16
4.28362E-05 6.40557E-16
4.57395E-05 5.71022E-16
4.87380E-05 5.10868E-16
5.18317E-05 4.58400E-16
5.50205E-05 4.12573E-16
5.83045E-05 3.72552E-16
6.16838E-05 3.37369E-16
6.51582E-05 3.06350E-16
6.87277E-05 2.78965E-16
7.23925E-05 2.54572E-16
7.61524E-05 2.32852E-16
9.21439E-05 1.66121E-16
1.09658E-04 1.21599E-16
1.28695E-04 9.10295E-17
1.49255E-04 6.94475E-17
1.71338E-04 5.38698E-17
1.94942E-04 4.23750E-17
2.20070E-04 3.37847E-17
2.46720E-04 2.72655E-17
2.74892E-04 2.22555E-17
3.04586E-04 1.83259E-17
3.35803E-04 1.52333E-17
3.68542E-04 1.27681E-17
4.02802E-04 1.07770E-17
4.38585E-04 9.16233E-18
4.75889E-04 7.83815E-18
5.14715E-04 6.74414E-18
5.55063E-04 5.83576E-18
5.96931E-04 5.07404E-18
6.40321E-04 4.43297E-18
6.85233E-04 3.89053E-18
7.31665E-04 3.42761E-18
7.79618E-04 3.03195E-18
8.29092E-04 2.69174E-18
8.80086E-04 2.39762E-18
9.32601E-04 2.14278E-18
9.86636E-04 1.92072E-18
1.04219E-03 1.72661E-18
1.09927E-03 1.55650E-18
1.15786E-03 1.40661E-18
1.21797E-03 1.27435E-18
1.27961E-03 1.15728E-18
1.34276E-03 1.05319E-18
1.40743E-03 9.60579E-19
1.47362E-03 8.77873E-19
1.54133E-03 8.03816E-19
1.61056E-03 7.37414E-19
1.68131E-03 6.77665E-19
1.75357E-03 6.23826E-19
1.82735E-03 5.75229E-19
1.90265E-03 5.31213E-19
1.97947E-03 4.91326E-19
2.05780E-03 4.55101E-19
2.13765E-03 4.22120E-19
2.21902E-03 3.92073E-19
2.30190E-03 3.64633E-19
2.38630E-03 3.39537E-19
2.47222E-03 3.16562E-19
2.55965E-03 2.95478E-19
2.64859E-03 2.76115E-19
2.73905E-03 2.58309E-19
2.83103E-03 2.41901E-19
2.92452E-03 2.26773E-19
3.01952E-03 2.12803E-19
3.11604E-03 1.99885E-19
3.21407E-03 1.87931E-19
3.31362E-03 1.76851E-19
3.41468E-03 1.66571E-19
3.51725E-03 1.57026E-19
3.62133E-03 1.48149E-19
3.72692E-03 1.39889E-19
3.83403E-03 1.32195E-19
3.94265E-03 1.25018E-19
4.05278E-03 1.18320E-19
4.16442E-03 1.12063E-19
4.27757E-03 1.06212E-19
4.39223E-03 1.00736E-19
4.50840E-03 9.56066E-20
4.62608E-03 9.07980E-20
4.74527E-03 8.62873E-20
4.86597E-03 8.20507E-20
4.98817E-03 7.80704E-20
5.11188E-03 7.43274E-20
5.23711E-03 7.08047E-20
5.36383E-03 6.74876E-20
5.49207E-03 6.43613E-20
5.62181E-03 6.14130E-20
5.75306E-03 5.86311E-20
5.88581E-03 5.60038E-20
6.02007E-03 5.35215E-20
6.15583E-03 5.11747E-20
6.29310E-03 4.89541E-20
6.43187E-03 4.68523E-20
6.57214E-03 4.48614E-20
6.71392E-03 4.29746E-20
6.85720E-03 4.11856E-20
7.00198E-03 3.94880E-20
7.14827E-03 3.78766E-20
7.29605E-03 3.63463E-20
7.44534E-03 3.48918E-20
7.59612E-03 3.35091E-20
7.97965E-03 3.03389E-20
8.37255E-03 2.75329E-20
8.77480E-03 2.50424E-20
9.18641E-03 2.28255E-20
9.60736E-03 2.08473E-20
1.00376E-02 1.90775E-20
1.04773E-02 1.74905E-20
1.09262E-02 1.60642E-20
1.13844E-02 1.47794E-20
1.18520E-02 1.36197E-20
1.23288E-02 1.25708E-20
1.28150E-02 1.16203E-20
1.33104E-02 1.07573E-20
1.38150E-02 9.97243E-21
1.43290E-02 9.25733E-21
1.48521E-02 8.60471E-21
1.53845E-02 8.00818E-21
1.59262E-02 7.46205E-21
1.64770E-02 6.96134E-21
1.70371E-02 6.50159E-21
1.76063E-02 6.07887E-21
1.81848E-02 5.68967E-21
1.87724E-02 5.33086E-21
1.93692E-02 4.99963E-21
1.99751E-02 4.69356E-21
2.05901E-02 4.41031E-21
2.12143E-02 4.14793E-21
2.18476E-02 3.90461E-21
2.24900E-02 3.67868E-21
2.31415E-02 3.46873E-21
2.38021E-02 3.27340E-21
2.44717E-02 3.09148E-21
2.51504E-02 2.92192E-21
2.58382E-02 2.76370E-21
2.65349E-02 2.61594E-21
2.72407E-02 2.47784E-21
2.79555E-02 2.34862E-21
2.86793E-02 2.22764E-21
2.94120E-02 2.11426E-21
3.01537E-02 2.00793E-21
3.09043E-02 1.90813E-21
3.16639E-02 1.81438E-21
3.24324E-02 1.72626E-21
3.32098E-02 1.64337E-21
3.39961E-02 1.56534E-21
3.47912E-02 1.49183E-21
3.55952E-02 1.42253E-21
3.64081E-02 1.35717E-21
3.72297E-02 1.29547E-21
3.80602E-02 1.23720E-21
3.88995E-02 1.18213E-21
3.97476E-02 1.13006E-21
4.06044E-02 1.08078E-21
4.14700E-02 1.03413E-21
4.23443E-02 9.89935E-22
4.32273E-02 9.48048E-22
4.41190E-02 9.08326E-22
4.50194E-02 8.70635E-22
4.59284E-02 8.34854E-22
4.68461E-02 8.00871E-22
4.87074E-02 7.37868E-22
5.06030E-02 6.80864E-22
5.25328E-02 6.29190E-22
5.44967E-02 5.82263E-22
5.64946E-02 5.39571E-22
5.85262E-02 5.00669E-22
6.05914E-02 4.65163E-22
6.26901E-02 4.32706E-22
6.48222E-02 4.02990E-22
6.69873E-02 3.75745E-22
6.91854E-02 3.50731E-22
7.14163E-02 3.27733E-22
7.36799E-02 3.06560E-22
7.59760E-02 2.87044E-22
7.83043E-02 2.69033E-22
8.06647E-02 2.52390E-22
8.30571E-02 2.36993E-22
8.54812E-02 2.22734E-22
8.79369E-02 2.09513E-22
9.04240E-02 1.97242E-22
9.29422E-02 1.85841E-22
9.54915E-02 1.75238E-22
9.80716E-02 1.65367E-22
1.00682E-01 1.56168E-22
1.03323E-01 1.47589E-22
1.05995E-01 1.39581E-22
1.08696E-01 1.32097E-22
1.11427E-01 1.25100E-22
1.14188E-01 1.18550E-22
1.16978E-01 1.12415E-22
1.19797E-01 1.06664E-22
1.22645E-01 1.01269E-22
1.25522E-01 9.62038E-23
1.28428E-01 9.14445E-23
1.31361E-01 8.69699E-23
1.34323E-01 8.27596E-23
1.37313E-01 7.87956E-23
1.40330E-01 7.50610E-23
1.43375E-01 7.15400E-23
1.46447E-01 6.82184E-23
1.49545E-01 6.50829E-23
1.52671E-01 6.21213E-23
1.55823E-01 5.93223E-23
1.59001E-01 5.66753E-23
1.62205E-01 5.41708E-23
1.65435E-01 5.17996E-23
1.68690E-01 4.95535E-23
1.71970E-01 4.74248E-23
1.75276E-01 4.54062E-23
1.78606E-01 4.34910E-23
1.81961E-01 4.16731E-23
1.85340E-01 3.99466E-23
1.88743E-01 3.83062E-23
1.92169E-01 3.67467E-23
1.95619E-01 3.52636E-23
1.99092E-01 3.38524E-23
2.02589E-01 3.25090E-23
2.06107E-01 3.12296E-23
2.09649E-01 3.00107E-23
2.13212E-01 2.88489E-23
2.16797E-01 2.77410E-23
2.20404E-01 2.66842E-23
2.24032E-01 2.56756E-23
2.27680E-01 2.47126E-23
2.31350E-01 2.37929E-23
2.35040E-01 2.29142E-23
2.38751E-01 2.20743E-23
2.42481E-01 2.12712E-23
2.46231E-01 2.05030E-23
2.50000E-01 1.97680E-23
2.53788E-01 1.90644E-23
2.57595E-01 1.83907E-23
2.61421E-01 1.77455E-23
2.65264E-01 1.71272E-23
2.69126E-01 1.65346E-23
2.73005E-01 1.59664E-23
2.76901E-01 1.54215E-23
2.80814E-01 1.48987E-23
2.84744E-01 1.43969E-23
2.88691E-01 1.39153E-23
2.92653E-01 1.34527E-23
2.96632E-01 1.30085E-23
3.00625E-01 1.25816E-23
3.04634E-01 1.21713E-23
3.08658E-01 1.17769E-23
3.12697E-01 1.13976E-23
3.16749E-01 1.10328E-23
3.20816E-01 1.06818E-23
3.24896E-01 1.03439E-23
3.28990E-01 1.00187E-23
3.33097E-01 9.70556E-24
3.37216E-01 9.40395E-24
3.41348E-01 9.11337E-24
3.45492E-01 8.83337E-24
3.49647E-01 8.56349E-24
3.53814E-01 8.30329E-24
3.57992E-01 8.05239E-24
3.62181E-01 7.81038E-24
3.66381E-01 7.57690E-24
3.70590E-01 7.35159E-24
3.74810E-01 7.13413E-24
3.79039E-01 6.92419E-24
3.83277E-01 6.72147E-24
3.87524E-01 6.52568E-24
3.91780E-01 6.33653E-24
3.96044E-01 6.15378E-24
4.00316E-01 5.97716E-24
4.04596E-01 5.80644E-24
4.08882E-01 5.64138E-24
4.13176E-01 5.48177E-24
4.17476E-01 5.32740E-24
4.21783E-01 5.17806E-24
4.26095E-01 5.03357E-24
4.30413E-01 4.89373E-24
4.34737E-01 4.75839E-24
4.39065E-01 4.62736E-24
4.43398E-01 4.50048E-24
4.47736E-01 4.37761E-24
4.52077E-01 4.25860E-24
4.56422E-01 4.14330E-24
4.60770E-01 4.03158E-24
4.65122E-01 3.92331E-24
4.69476E-01 3.81837E-24
4.73832E-01 3.71664E-24
4.78190E-01 3.61800E-24
4.82550E-01 3.52234E-24
4.86912E-01 3.42956E-24
4.91274E-01 3.33956E-24
4.95637E-01 3.25225E-24
5.00000E-01 3.16752E-24
5.04363E-01 3.08529E-24
5.08726E-01 3.00547E-24
5.13088E-01 2.92798E-24
5.17450E-01 2.85275E-24
5.21810E-01 2.77969E-24
5.26168E-01 2.70874E-24
5.30524E-01 2.63982E-24
5.34878E-01 2.57287E-24
5.39230E-01 2.50781E-24
5.43578E-01 2.44460E-24
5.47923E-01 2.38316E-24
5.52264E-01 2.32344E-24
5.56602E-01 2.26539E-24
5.60935E-01 2.20894E-24
5.65263E-01 2.15406E-24
5.69587E-01 2.10068E-24
5.73905E-01 2.04877E-24
5.78217E-01 1.99827E-24
5.82524E-01 1.94914E-24
5.86824E-01 1.90134E-24
5.91118E-01 1.85483E-24
5.95404E-01 1.80956E-24
5.99684E-01 1.76550E-24
6.03956E-01 1.72261E-24
6.08220E-01 1.68085E-24
6.12476E-01 1.64020E-24
6.16723E-01 1.60061E-24
6.20961E-01 1.56206E-24
6.25190E-01 1.52451E-24
6.29410E-01 1.48793E-24
6.33619E-01 1.45230E-24
6.37819E-01 1.41759E-24
6.42008E-01 1.38376E-24
6.46186E-01 1.35080E-24
6.50353E-01 1.31868E-24
6.54508E-01 1.28738E-24
6.58652E-01 1.25686E-24
6.62784E-01 1.22711E-24
6.66903E-01 1.19811E-24
6.71010E-01 1.16983E-24
6.75104E-01 1.14225E-24
6.79184E-01 1.11536E-24
6.83251E-01 1.08913E-24
6.87303E-01 1.06355E-24
6.91342E-01 1.03860E-24
6.95366E-01 1.01426E-24
6.99375E-01 9.90513E-25
7.03368E-01 9.67342E-25
7.07347E-01 9.44733E-25
7.11309E-01 9.22670E-25
7.15256E-01 9.01138E-25
7.19186E-01 8.80123E-25
7.23099E-01 8.59611E-25
7.26995E-01 8.39589E-25
7.30874E-01 8.20043E-25
7.34736E-01 8.00960E-25
7.38579E-01 7.82329E-25
7.42405E-01 7.64138E-25
7.46212E-01 7.46375E-25
7.50000E-01 7.29028E-25
7.53769E-01 7.12088E-25
7.57519E-01 6.95543E-25
7.61249E-01 6.79383E-25
7.64960E-01 6.63599E-25
7.68650E-01 6.48180E-25
7.72320E-01 6.33118E-25
7.75968E-01 6.18403E-25
7.79596E-01 6.04027E-25
7.83203E-01 5.89982E-25
7.86788E-01 5.76258E-25
7.90351E-01 5.62848E-25
7.93893E-01 5.49744E-25
7.97411E-01 5.36939E-25
8.00908E-01 5.24426E-25
8.04381E-01 5.12196E-25
8.07831E-01 5.00244E-25
8.11257E-01 4.88562E-25
8.14660E-01 4.77144E-25
8.18039E-01 4.65984E-25
8.21394E-01 4.55076E-25
8.24724E-01 4.44413E-25
8.28030E-01 4.33990E-25
8.31310E-01 4.23801E-25
8.34565E-01 4.13841E-25
8.37795E-01 4.04104E-25
8.40999E-01 3.94586E-25
8.44177E-01 3.85281E-25
8.47329E-01 3.76184E-25
8.50455E-01 3.67291E-25
8.53553E-01 3.58596E-25
8.56625E-01 3.50097E-25
8.59670E-01 3.41787E-25
8.62687E-01 3.33663E-25
8.65677E-01 3.25721E-25
8.68639E-01 3.17957E-25
8.71572E-01 3.10366E-25
8.74478E-01 3.02946E-25
8.77355E-01 2.95692E-25
8.80203E-01 2.88600E-25
8.83022E-01 2.81669E-25
8.85812E-01 2.74893E-25
8.88573E-01 2.68269E-25
8.91304E-01 2.61796E-25
8.94005E-01 2.55468E-25
8.96677E-01 2.49284E-25
8.99318E-01 2.43241E-25
9.01928E-01 2.37335E-25
9.04508E-01 2.31563E-25
9.07058E-01 2.25924E-25
9.09576E-01 2.20414E-25
9.12063E-01 2.15031E-25
9.14519E-01 2.09772E-25
9.16943E-01 2.04635E-25
9.19335E-01 1.99617E-25
9.21696E-01 1.94717E-25
9.24024E-01 1.89932E-25
9.26320E-01 1.85260E-25
9.28584E-01 1.80698E-25
9.30815E-01 1.76245E-25
9.33013E-01 1.71899E-25
9.35178E-01 1.67658E-25
9.37310E-01 1.63520E-25
9.39409E-01 1.59482E-25
9.41474E-01 1.55544E-25
9.43505E-01 1.51704E-25
9.45503E-01 1.47959E-25
9.47467E-01 1.44309E-25
9.49397E-01 1.40751E-25
9.51293E-01 1.37285E-25
9.53154E-01 1.33908E-25
9.54981E-01 1.30619E-25
9.56773E-01 1.27418E-25
9.58530E-01 1.24301E-25
9.60252E-01 1.21269E-25
9.61940E-01 1.18320E-25
9.63592E-01 1.15452E-25
9.65209E-01 1.12665E-25
9.66790E-01 1.09956E-25
9.68336E-01 1.07326E-25
9.69846E-01 1.04773E-25
9.71321E-01 1.02296E-25
9.72759E-01 9.98939E-26
9.74162E-01 9.75656E-26
9.75528E-01 9.53102E-26
9.76858E-01 9.31269E-26
9.78152E-01 9.10146E-26
9.79410E-01 8.89727E-26
9.80631E-01 8.70002E-26
9.81815E-01 8.50963E-26
9.82963E-01 8.32603E-26
9.84074E-01 8.14914E-26
9.85148E-01 7.97889E-26
9.86185E-01 7.81521E-26
9.87185E-01 7.65804E-26
9.88148E-01 7.50731E-26
9.89074E-01 7.36296E-26
9.89962E-01 7.22493E-26
9.90814E-01 7.09318E-26
9.91627E-01 6.96764E-26
9.92404E-01 6.84827E-26
9.93143E-01 6.73501E-26
9.93844E-01 6.62783E-26
9.94508E-01 6.52668E-26
9.95134E-01 6.43152E-26
9.95722E-01 6.34232E-26
9.96273E-01 6.25903E-26
9.96786E-01 6.18163E-26
9.97261E-01 6.11009E-26
9.97698E-01 6.04437E-26
9.98097E-01 5.98445E-26
9.98459E-01 5.93031E-26
9.98782E-01 5.88192E-26
9.99067E-01 5.83928E-26
9.99315E-01 5.80235E-26
9.99524E-01 5.77113E-26
9.99695E-01 5.74560E-26
9.99829E-01 5.72575E-26
9.99924E-01 5.71158E-26
9.99981E-01 5.70308E-26
1.00000E+00 5.70025E-26
