 #
 # Subroutine ELSEPA. Elastic scattering of electrons and positrons
 #                    by neutral atoms and positive ions
 #
 # Projectile: positron
 # Kinetic energy = 9.00000E+07 eV = 3.30744E+06 a.u.
 #
 # WARNING: High-energy factorization with free-atom DF screening.
 #          Absorption, polarization and exchange corrections are
 #          switched off.
 #          Phase shifts are calculated for the bare nucleus.
 #          Scattering amplitudes are not evaluated.
 #
 # Element: Yb,  Z =  70,  atomic weight = 1.73040E+02 g/mol
 #
 # Nuclear model: Fermi distribution
 #                Average radius = 5.96256E-13 cm
 #                Skin thickness = 5.46000E-14 cm
 #
 # Number of electrons = 70
 #
 # Total elastic cross section = 6.98863E-18 cm**2 = 2.49568E-01 a0**2
 # 1st transport cross section = 1.09891E-24 cm**2 = 3.92429E-08 a0**2
 # 2nd transport cross section = 3.26045E-24 cm**2 = 1.16433E-07 a0**2
 #
 #
 # Differential cross section:                       MU=(1-COS(THETA))/2
 #
 #  THETA        MU          DCS          DCS        Sherman      error
 #  (deg)                 (cm**2/sr)   (a0**2/sr)    function
 #----------------------------------------------------------------------
0.00000E+00 5.46894E-10
7.61557E-13 5.44965E-10
1.18994E-12 5.43888E-10
1.71346E-12 5.42577E-10
2.33225E-12 5.41034E-10
3.04617E-12 5.39263E-10
3.85530E-12 5.37268E-10
4.75964E-12 5.35054E-10
5.75917E-12 5.32625E-10
6.85391E-12 5.29985E-10
8.04379E-12 5.27142E-10
9.32893E-12 5.24101E-10
1.07092E-11 5.20867E-10
1.21847E-11 5.17448E-10
1.37554E-11 5.13851E-10
1.54213E-11 5.10082E-10
1.71823E-11 5.06150E-10
1.90386E-11 5.02060E-10
2.09900E-11 4.97823E-10
2.30367E-11 4.93444E-10
2.51785E-11 4.88933E-10
2.74156E-11 4.84297E-10
2.97478E-11 4.79564E-10
3.21752E-11 4.74722E-10
3.46979E-11 4.69770E-10
3.73157E-11 4.64715E-10
4.00286E-11 4.59565E-10
4.28368E-11 4.54327E-10
4.57402E-11 4.49060E-10
4.87388E-11 4.43744E-10
5.18325E-11 4.38361E-10
5.50215E-11 4.32919E-10
5.83057E-11 4.27425E-10
6.16850E-11 4.21885E-10
6.51595E-11 4.16364E-10
6.87293E-11 4.10845E-10
7.23943E-11 4.05298E-10
7.61544E-11 3.99730E-10
1.18991E-10 3.44985E-10
1.71347E-10 2.94694E-10
2.33223E-10 2.51152E-10
3.04617E-10 2.14637E-10
3.85531E-10 1.84677E-10
4.75965E-10 1.60268E-10
5.75917E-10 1.40313E-10
6.85389E-10 1.23901E-10
8.04380E-10 1.10234E-10
9.32891E-10 9.87170E-11
1.07092E-09 8.88693E-11
1.21847E-09 8.03544E-11
1.37554E-09 7.29258E-11
1.54213E-09 6.63549E-11
1.71823E-09 6.05250E-11
1.90386E-09 5.53256E-11
2.09900E-09 5.06393E-11
2.30367E-09 4.64275E-11
2.51785E-09 4.26266E-11
2.74156E-09 3.91762E-11
2.97478E-09 3.58168E-11
3.21752E-09 3.28121E-11
3.46978E-09 3.02003E-11
3.73156E-09 2.79192E-11
4.00286E-09 2.59179E-11
4.28368E-09 2.41543E-11
4.57402E-09 2.23508E-11
4.87388E-09 2.06554E-11
5.18326E-09 1.91552E-11
5.50215E-09 1.78229E-11
5.83057E-09 1.66354E-11
6.16850E-09 1.55734E-11
6.51596E-09 1.45244E-11
6.87293E-09 1.35294E-11
7.23942E-09 1.26361E-11
7.61544E-09 1.18316E-11
1.18991E-08 6.45548E-12
1.71347E-08 3.78540E-12
2.33223E-08 2.33470E-12
3.04617E-08 1.50655E-12
3.85531E-08 1.00937E-12
4.75965E-08 7.00395E-13
5.75917E-08 5.02038E-13
6.85389E-08 3.70204E-13
8.04380E-08 2.79403E-13
9.32891E-08 2.15389E-13
1.07092E-07 1.69032E-13
1.21847E-07 1.34648E-13
1.37554E-07 1.08617E-13
1.54213E-07 8.85422E-14
1.71823E-07 7.28954E-14
1.90386E-07 6.05584E-14
2.09900E-07 5.07082E-14
2.30367E-07 4.27756E-14
2.51785E-07 3.63250E-14
2.74156E-07 3.10343E-14
2.97478E-07 2.66516E-14
3.21752E-07 2.30314E-14
3.46978E-07 2.00109E-14
3.73156E-07 1.74568E-14
4.00286E-07 1.53106E-14
4.28368E-07 1.34716E-14
4.57402E-07 1.19064E-14
4.87388E-07 1.05618E-14
5.18325E-07 9.40021E-15
5.50215E-07 8.39807E-15
5.83057E-07 7.52124E-15
6.16850E-07 6.75895E-15
6.51596E-07 6.08985E-15
6.87293E-07 5.50173E-15
7.23942E-07 4.98396E-15
7.61543E-07 4.52435E-15
1.18991E-06 1.92382E-15
1.71347E-06 9.51781E-16
2.33223E-06 5.23064E-16
3.04617E-06 3.10579E-16
3.85531E-06 1.95728E-16
4.75964E-06 1.29339E-16
5.75916E-06 8.88400E-17
6.85388E-06 6.30161E-17
8.04378E-06 4.59279E-17
9.32888E-06 3.42588E-17
1.07092E-05 2.60715E-17
1.21846E-05 2.01905E-17
1.37553E-05 1.58782E-17
1.54212E-05 1.26581E-17
1.71822E-05 1.02145E-17
1.90385E-05 8.32885E-18
2.09899E-05 6.86604E-18
2.30365E-05 5.70977E-18
2.51783E-05 4.78564E-18
2.74153E-05 4.04005E-18
2.97475E-05 3.43360E-18
3.21749E-05 2.93670E-18
3.46974E-05 2.52667E-18
3.73152E-05 2.18602E-18
4.00281E-05 1.90107E-18
4.28362E-05 1.66113E-18
4.57395E-05 1.45784E-18
4.87380E-05 1.28463E-18
5.18317E-05 1.13629E-18
5.50205E-05 1.00868E-18
5.83045E-05 8.98444E-19
6.16838E-05 8.02859E-19
6.51582E-05 7.19668E-19
6.87277E-05 6.46994E-19
7.23925E-05 5.83275E-19
7.61524E-05 5.27323E-19
9.21439E-05 3.60354E-19
1.09658E-04 2.54483E-19
1.28695E-04 1.84782E-19
1.49255E-04 1.37364E-19
1.71338E-04 1.04221E-19
1.94942E-04 8.04870E-20
2.20070E-04 6.31356E-20
2.46720E-04 5.02142E-20
2.74892E-04 4.04322E-20
3.04586E-04 3.29184E-20
3.35803E-04 2.70698E-20
3.68542E-04 2.24630E-20
4.02802E-04 1.87948E-20
4.38585E-04 1.58447E-20
4.75889E-04 1.34508E-20
5.14715E-04 1.14918E-20
5.55063E-04 9.87633E-21
5.96931E-04 8.53462E-21
6.40321E-04 7.41288E-21
6.85233E-04 6.46925E-21
7.31665E-04 5.67087E-21
7.79618E-04 4.99173E-21
8.29092E-04 4.41111E-21
8.80086E-04 3.91236E-21
9.32601E-04 3.48201E-21
9.86636E-04 3.10913E-21
1.04219E-03 2.78475E-21
1.09927E-03 2.50151E-21
1.15786E-03 2.25329E-21
1.21797E-03 2.03505E-21
1.27961E-03 1.84254E-21
1.34276E-03 1.67220E-21
1.40743E-03 1.52105E-21
1.47362E-03 1.38656E-21
1.54133E-03 1.26656E-21
1.61056E-03 1.15924E-21
1.68131E-03 1.06301E-21
1.75357E-03 9.76531E-22
1.82735E-03 8.98643E-22
1.90265E-03 8.28342E-22
1.97947E-03 7.64760E-22
2.05780E-03 7.07142E-22
2.13765E-03 6.54830E-22
2.21902E-03 6.07249E-22
2.30190E-03 5.63895E-22
2.38630E-03 5.24327E-22
2.47222E-03 4.88156E-22
2.55965E-03 4.55037E-22
2.64859E-03 4.24668E-22
2.73905E-03 3.96780E-22
2.83103E-03 3.71134E-22
2.92452E-03 3.47518E-22
3.01952E-03 3.25742E-22
3.11604E-03 3.05637E-22
3.21407E-03 2.87046E-22
3.31362E-03 2.69840E-22
3.41468E-03 2.53897E-22
3.51725E-03 2.39107E-22
3.62133E-03 2.25373E-22
3.72692E-03 2.12604E-22
3.83403E-03 2.00722E-22
3.94265E-03 1.89653E-22
4.05278E-03 1.79331E-22
4.16442E-03 1.69698E-22
4.27757E-03 1.60698E-22
4.39223E-03 1.52283E-22
4.50840E-03 1.44407E-22
4.62608E-03 1.37031E-22
4.74527E-03 1.30115E-22
4.86597E-03 1.23628E-22
4.98817E-03 1.17536E-22
5.11188E-03 1.11812E-22
5.23711E-03 1.06429E-22
5.36383E-03 1.01364E-22
5.49207E-03 9.65933E-23
5.62181E-03 9.20978E-23
5.75306E-03 8.78585E-23
5.88581E-03 8.38580E-23
6.02007E-03 8.00805E-23
6.15583E-03 7.65112E-23
6.29310E-03 7.31366E-23
6.43187E-03 6.99441E-23
6.57214E-03 6.69221E-23
6.71392E-03 6.40599E-23
6.85720E-03 6.13474E-23
7.00198E-03 5.87754E-23
7.14827E-03 5.63352E-23
7.29605E-03 5.40190E-23
7.44534E-03 5.18191E-23
7.59612E-03 4.97288E-23
7.97965E-03 4.49409E-23
8.37255E-03 4.07089E-23
8.77480E-03 3.69574E-23
9.18641E-03 3.36228E-23
9.60736E-03 3.06509E-23
1.00376E-02 2.79957E-23
1.04773E-02 2.56176E-23
1.09262E-02 2.34830E-23
1.13844E-02 2.15626E-23
1.18520E-02 1.98314E-23
1.23288E-02 1.82675E-23
1.28150E-02 1.68520E-23
1.33104E-02 1.55685E-23
1.38150E-02 1.44026E-23
1.43290E-02 1.33417E-23
1.48521E-02 1.23747E-23
1.53845E-02 1.14918E-23
1.59262E-02 1.06846E-23
1.64770E-02 9.94550E-24
1.70371E-02 9.26769E-24
1.76063E-02 8.64528E-24
1.81848E-02 8.07296E-24
1.87724E-02 7.54603E-24
1.93692E-02 7.06027E-24
1.99751E-02 6.61193E-24
2.05901E-02 6.19764E-24
2.12143E-02 5.81437E-24
2.18476E-02 5.45941E-24
2.24900E-02 5.13032E-24
2.31415E-02 4.82490E-24
2.38021E-02 4.54115E-24
2.44717E-02 4.27729E-24
2.51504E-02 4.03168E-24
2.58382E-02 3.80286E-24
2.65349E-02 3.58948E-24
2.72407E-02 3.39033E-24
2.79555E-02 3.20430E-24
2.86793E-02 3.03039E-24
2.94120E-02 2.86767E-24
3.01537E-02 2.71531E-24
3.09043E-02 2.57253E-24
3.16639E-02 2.43863E-24
3.24324E-02 2.31298E-24
3.32098E-02 2.19498E-24
3.39961E-02 2.08409E-24
3.47912E-02 1.97981E-24
3.55952E-02 1.88168E-24
3.64081E-02 1.78928E-24
3.72297E-02 1.70222E-24
3.80602E-02 1.62015E-24
3.88995E-02 1.54272E-24
3.97476E-02 1.46964E-24
4.06044E-02 1.40063E-24
4.14700E-02 1.33542E-24
4.23443E-02 1.27376E-24
4.32273E-02 1.21544E-24
4.41190E-02 1.16024E-24
4.50194E-02 1.10797E-24
4.59284E-02 1.05846E-24
4.68461E-02 1.01152E-24
4.87074E-02 9.24789E-25
5.06030E-02 8.46652E-25
5.25328E-02 7.76136E-25
5.44967E-02 7.12390E-25
5.64946E-02 6.54669E-25
5.85262E-02 6.02323E-25
6.05914E-02 5.54780E-25
6.26901E-02 5.11537E-25
6.48222E-02 4.72150E-25
6.69873E-02 4.36228E-25
6.91854E-02 4.03423E-25
7.14163E-02 3.73428E-25
7.36799E-02 3.45969E-25
7.59760E-02 3.20804E-25
7.83043E-02 2.97713E-25
8.06647E-02 2.76505E-25
8.30571E-02 2.57004E-25
8.54812E-02 2.39056E-25
8.79369E-02 2.22520E-25
9.04240E-02 2.07272E-25
9.29422E-02 1.93198E-25
9.54915E-02 1.80196E-25
9.80716E-02 1.68175E-25
1.00682E-01 1.57050E-25
1.03323E-01 1.46748E-25
1.05995E-01 1.37200E-25
1.08696E-01 1.28344E-25
1.11427E-01 1.20124E-25
1.14188E-01 1.12489E-25
1.16978E-01 1.05392E-25
1.19797E-01 9.87905E-26
1.22645E-01 9.26469E-26
1.25522E-01 8.69253E-26
1.28428E-01 8.15936E-26
1.31361E-01 7.66222E-26
1.34323E-01 7.19840E-26
1.37313E-01 6.76544E-26
1.40330E-01 6.36106E-26
1.43375E-01 5.98317E-26
1.46447E-01 5.62985E-26
1.49545E-01 5.29934E-26
1.52671E-01 4.99002E-26
1.55823E-01 4.70039E-26
1.59001E-01 4.42907E-26
1.62205E-01 4.17480E-26
1.65435E-01 3.93638E-26
1.68690E-01 3.71275E-26
1.71970E-01 3.50289E-26
1.75276E-01 3.30588E-26
1.78606E-01 3.12085E-26
1.81961E-01 2.94702E-26
1.85340E-01 2.78363E-26
1.88743E-01 2.63002E-26
1.92169E-01 2.48554E-26
1.95619E-01 2.34959E-26
1.99092E-01 2.22164E-26
2.02589E-01 2.10118E-26
2.06107E-01 1.98772E-26
2.09649E-01 1.88083E-26
2.13212E-01 1.78010E-26
2.16797E-01 1.68513E-26
2.20404E-01 1.59558E-26
2.24032E-01 1.51112E-26
2.27680E-01 1.43142E-26
2.31350E-01 1.35621E-26
2.35040E-01 1.28520E-26
2.38751E-01 1.21816E-26
2.42481E-01 1.15483E-26
2.46231E-01 1.09500E-26
2.50000E-01 1.03846E-26
2.53788E-01 9.85017E-27
2.57595E-01 9.34491E-27
2.61421E-01 8.86710E-27
2.65264E-01 8.41516E-27
2.69126E-01 7.98758E-27
2.73005E-01 7.58296E-27
2.76901E-01 7.20000E-27
2.80814E-01 6.83746E-27
2.84744E-01 6.49417E-27
2.88691E-01 6.16905E-27
2.92653E-01 5.86109E-27
2.96632E-01 5.56931E-27
3.00625E-01 5.29281E-27
3.04634E-01 5.03076E-27
3.08658E-01 4.78234E-27
3.12697E-01 4.54681E-27
3.16749E-01 4.32345E-27
3.20816E-01 4.11161E-27
3.24896E-01 3.91066E-27
3.28990E-01 3.72000E-27
3.33097E-01 3.53909E-27
3.37216E-01 3.36738E-27
3.41348E-01 3.20440E-27
3.45492E-01 3.04967E-27
3.49647E-01 2.90275E-27
3.53814E-01 2.76323E-27
3.57992E-01 2.63072E-27
3.62181E-01 2.50484E-27
3.66381E-01 2.38525E-27
3.70590E-01 2.27162E-27
3.74810E-01 2.16364E-27
3.79039E-01 2.06100E-27
3.83277E-01 1.96344E-27
3.87524E-01 1.87070E-27
3.91780E-01 1.78251E-27
3.96044E-01 1.69866E-27
4.00316E-01 1.61891E-27
4.04596E-01 1.54305E-27
4.08882E-01 1.47089E-27
4.13176E-01 1.40224E-27
4.17476E-01 1.33692E-27
4.21783E-01 1.27476E-27
4.26095E-01 1.21561E-27
4.30413E-01 1.15930E-27
4.34737E-01 1.10570E-27
4.39065E-01 1.05467E-27
4.43398E-01 1.00609E-27
4.47736E-01 9.59828E-28
4.52077E-01 9.15771E-28
4.56422E-01 8.73810E-28
4.60770E-01 8.33842E-28
4.65122E-01 7.95768E-28
4.69476E-01 7.59494E-28
4.73832E-01 7.24933E-28
4.78190E-01 6.92000E-28
4.82550E-01 6.60616E-28
4.86912E-01 6.30704E-28
4.91274E-01 6.02194E-28
4.95637E-01 5.75017E-28
5.00000E-01 5.49107E-28
5.04363E-01 5.24405E-28
5.08726E-01 5.00851E-28
5.13088E-01 4.78391E-28
5.17450E-01 4.56971E-28
5.21810E-01 4.36542E-28
5.26168E-01 4.17055E-28
5.30524E-01 3.98467E-28
5.34878E-01 3.80734E-28
5.39230E-01 3.63815E-28
5.43578E-01 3.47672E-28
5.47923E-01 3.32268E-28
5.52264E-01 3.17568E-28
5.56602E-01 3.03538E-28
5.60935E-01 2.90147E-28
5.65263E-01 2.77365E-28
5.69587E-01 2.65164E-28
5.73905E-01 2.53515E-28
5.78217E-01 2.42393E-28
5.82524E-01 2.31773E-28
5.86824E-01 2.21633E-28
5.91118E-01 2.11949E-28
5.95404E-01 2.02700E-28
5.99684E-01 1.93867E-28
6.03956E-01 1.85429E-28
6.08220E-01 1.77369E-28
6.12476E-01 1.69670E-28
6.16723E-01 1.62313E-28
6.20961E-01 1.55285E-28
6.25190E-01 1.48569E-28
6.29410E-01 1.42151E-28
6.33619E-01 1.36018E-28
6.37819E-01 1.30156E-28
6.42008E-01 1.24553E-28
6.46186E-01 1.19198E-28
6.50353E-01 1.14079E-28
6.54508E-01 1.09185E-28
6.58652E-01 1.04507E-28
6.62784E-01 1.00033E-28
6.66903E-01 9.57561E-29
6.71010E-01 9.16660E-29
6.75104E-01 8.77547E-29
6.79184E-01 8.40141E-29
6.83251E-01 8.04365E-29
6.87303E-01 7.70146E-29
6.91342E-01 7.37414E-29
6.95366E-01 7.06102E-29
6.99375E-01 6.76148E-29
7.03368E-01 6.47490E-29
7.07347E-01 6.20070E-29
7.11309E-01 5.93834E-29
7.15256E-01 5.68729E-29
7.19186E-01 5.44704E-29
7.23099E-01 5.21712E-29
7.26995E-01 4.99707E-29
7.30874E-01 4.78645E-29
7.34736E-01 4.58486E-29
7.38579E-01 4.39188E-29
7.42405E-01 4.20714E-29
7.46212E-01 4.03027E-29
7.50000E-01 3.86095E-29
7.53769E-01 3.69882E-29
7.57519E-01 3.54358E-29
7.61249E-01 3.39492E-29
7.64960E-01 3.25257E-29
7.68650E-01 3.11623E-29
7.72320E-01 2.98566E-29
7.75968E-01 2.86060E-29
7.79596E-01 2.74081E-29
7.83203E-01 2.62606E-29
7.86788E-01 2.51614E-29
7.90351E-01 2.41084E-29
7.93893E-01 2.30995E-29
7.97411E-01 2.21328E-29
8.00908E-01 2.12066E-29
8.04381E-01 2.03192E-29
8.07831E-01 1.94687E-29
8.11257E-01 1.86537E-29
8.14660E-01 1.78727E-29
8.18039E-01 1.71241E-29
8.21394E-01 1.64066E-29
8.24724E-01 1.57189E-29
8.28030E-01 1.50597E-29
8.31310E-01 1.44278E-29
8.34565E-01 1.38219E-29
8.37795E-01 1.32412E-29
8.40999E-01 1.26843E-29
8.44177E-01 1.21505E-29
8.47329E-01 1.16385E-29
8.50455E-01 1.11477E-29
8.53553E-01 1.06770E-29
8.56625E-01 1.02256E-29
8.59670E-01 9.79268E-30
8.62687E-01 9.37751E-30
8.65677E-01 8.97932E-30
8.68639E-01 8.59739E-30
8.71572E-01 8.23105E-30
8.74478E-01 7.87966E-30
8.77355E-01 7.54257E-30
8.80203E-01 7.21921E-30
8.83022E-01 6.90899E-30
8.85812E-01 6.61138E-30
8.88573E-01 6.32584E-30
8.91304E-01 6.05189E-30
8.94005E-01 5.78904E-30
8.96677E-01 5.53684E-30
8.99318E-01 5.29484E-30
9.01928E-01 5.06263E-30
9.04508E-01 4.83980E-30
9.07058E-01 4.62598E-30
9.09576E-01 4.42078E-30
9.12063E-01 4.22386E-30
9.14519E-01 4.03489E-30
9.16943E-01 3.85353E-30
9.19335E-01 3.67949E-30
9.21696E-01 3.51246E-30
9.24024E-01 3.35215E-30
9.26320E-01 3.19830E-30
9.28584E-01 3.05066E-30
9.30815E-01 2.90896E-30
9.33013E-01 2.77297E-30
9.35178E-01 2.64246E-30
9.37310E-01 2.51721E-30
9.39409E-01 2.39702E-30
9.41474E-01 2.28168E-30
9.43505E-01 2.17100E-30
9.45503E-01 2.06480E-30
9.47467E-01 1.96290E-30
9.49397E-01 1.86513E-30
9.51293E-01 1.77134E-30
9.53154E-01 1.68136E-30
9.54981E-01 1.59505E-30
9.56773E-01 1.51227E-30
9.58530E-01 1.43288E-30
9.60252E-01 1.35675E-30
9.61940E-01 1.28376E-30
9.63592E-01 1.21378E-30
9.65209E-01 1.14672E-30
9.66790E-01 1.08245E-30
9.68336E-01 1.02087E-30
9.69846E-01 9.61888E-31
9.71321E-01 9.05403E-31
9.72759E-01 8.51326E-31
9.74162E-01 7.99569E-31
9.75528E-01 7.50051E-31
9.76858E-01 7.02691E-31
9.78152E-01 6.57413E-31
9.79410E-01 6.14147E-31
9.80631E-01 5.72822E-31
9.81815E-01 5.33373E-31
9.82963E-01 4.95738E-31
9.84074E-01 4.59857E-31
9.85148E-01 4.25672E-31
9.86185E-01 3.93131E-31
9.87185E-01 3.62182E-31
9.88148E-01 3.32776E-31
9.89074E-01 3.04866E-31
9.89962E-01 2.78410E-31
9.90814E-01 2.53365E-31
9.91627E-01 2.29692E-31
9.92404E-01 2.07355E-31
9.93143E-01 1.86318E-31
9.93844E-01 1.66548E-31
9.94508E-01 1.48014E-31
9.95134E-01 1.30689E-31
9.95722E-01 1.14544E-31
9.96273E-01 9.95546E-32
9.96786E-01 8.56977E-32
9.97261E-01 7.29515E-32
9.97698E-01 6.12964E-32
9.98097E-01 5.07143E-32
9.98459E-01 4.11887E-32
9.98782E-01 3.27050E-32
9.99067E-01 2.52499E-32
9.99315E-01 1.88120E-32
9.99524E-01 1.33813E-32
9.99695E-01 8.94935E-33
9.99829E-01 5.50939E-33
9.99924E-01 3.05606E-33
9.99981E-01 1.58557E-33
1.00000E+00 1.09567E-33
