 #
 # Subroutine ELSEPA. Elastic scattering of electrons and positrons
 #                    by neutral atoms and positive ions
 #
 # Projectile: positron
 # Kinetic energy = 6.00000E+08 eV = 2.20496E+07 a.u.
 #
 # WARNING: High-energy factorization with free-atom DF screening.
 #          Absorption, polarization and exchange corrections are
 #          switched off.
 #          Phase shifts are calculated for the bare nucleus.
 #          Scattering amplitudes are not evaluated.
 #
 # Element: Yb,  Z =  70,  atomic weight = 1.73040E+02 g/mol
 #
 # Nuclear model: Fermi distribution
 #                Average radius = 5.96256E-13 cm
 #                Skin thickness = 5.46000E-14 cm
 #
 # Number of electrons = 70
 #
 # Total elastic cross section = 6.97063E-18 cm**2 = 2.48926E-01 a0**2
 # 1st transport cross section = 2.57256E-26 cm**2 = 9.18678E-10 a0**2
 # 2nd transport cross section = 7.71556E-26 cm**2 = 2.75528E-09 a0**2
 #
 #
 # Differential cross section:                       MU=(1-COS(THETA))/2
 #
 #  THETA        MU          DCS          DCS        Sherman      error
 #  (deg)                 (cm**2/sr)   (a0**2/sr)    function
 #----------------------------------------------------------------------
0.00000E+00 2.40737E-08
7.61557E-13 2.07798E-08
1.18994E-12 1.92547E-08
1.71346E-12 1.76428E-08
2.33225E-12 1.60287E-08
3.04617E-12 1.44776E-08
3.85530E-12 1.30324E-08
4.75964E-12 1.17172E-08
5.75917E-12 1.05417E-08
6.85391E-12 9.50368E-09
8.04379E-12 8.59281E-09
9.32893E-12 7.79660E-09
1.07092E-11 7.10145E-09
1.21847E-11 6.49378E-09
1.37554E-11 5.96103E-09
1.54213E-11 5.49198E-09
1.71823E-11 5.07694E-09
1.90386E-11 4.70762E-09
2.09900E-11 4.37710E-09
2.30367E-11 4.07928E-09
2.51785E-11 3.80958E-09
2.74156E-11 3.56419E-09
2.97478E-11 3.33988E-09
3.21752E-11 3.13402E-09
3.46979E-11 2.94439E-09
3.73157E-11 2.76917E-09
4.00286E-11 2.60683E-09
4.28368E-11 2.45606E-09
4.57402E-11 2.31576E-09
4.87388E-11 2.18492E-09
5.18325E-11 2.06256E-09
5.50215E-11 1.94823E-09
5.83057E-11 1.84131E-09
6.16850E-11 1.74122E-09
6.51595E-11 1.64291E-09
6.87293E-11 1.54701E-09
7.23943E-11 1.45986E-09
7.61544E-11 1.38047E-09
1.18991E-10 8.32536E-10
1.71347E-10 5.27343E-10
2.33223E-10 3.48991E-10
3.04617E-10 2.39419E-10
3.85531E-10 1.69013E-10
4.75965E-10 1.22110E-10
5.75917E-10 8.99388E-11
6.85389E-10 6.74139E-11
8.04380E-10 5.14085E-11
9.32891E-10 3.98440E-11
1.07092E-09 3.13555E-11
1.21847E-09 2.50288E-11
1.37554E-09 2.02422E-11
1.54213E-09 1.65737E-11
1.71823E-09 1.37081E-11
1.90386E-09 1.14466E-11
2.09900E-09 9.64467E-12
2.30367E-09 8.19126E-12
2.51785E-09 7.00619E-12
2.74156E-09 6.02999E-12
2.97478E-09 5.21856E-12
3.21752E-09 4.53894E-12
3.46978E-09 3.96611E-12
3.73156E-09 3.48063E-12
4.00286E-09 3.06709E-12
4.28368E-09 2.71313E-12
4.57402E-09 2.40868E-12
4.87388E-09 2.14556E-12
5.18326E-09 1.91706E-12
5.50215E-09 1.71795E-12
5.83057E-09 1.54384E-12
6.16850E-09 1.39109E-12
6.51596E-09 1.25629E-12
6.87293E-09 1.13722E-12
7.23942E-09 1.03244E-12
7.61544E-09 9.39928E-13
1.18991E-08 4.05857E-13
1.71347E-08 2.02961E-13
2.33223E-08 1.12534E-13
3.04617E-08 6.73365E-14
3.85531E-08 4.27203E-14
4.75965E-08 2.83904E-14
5.75917E-08 1.95911E-14
6.85389E-08 1.39471E-14
8.04380E-08 1.01943E-14
9.32891E-08 7.62156E-15
1.07092E-07 5.81082E-15
1.21847E-07 4.50678E-15
1.37554E-07 3.54870E-15
1.54213E-07 2.83215E-15
1.71823E-07 2.28765E-15
1.90386E-07 1.86793E-15
2.09900E-07 1.54022E-15
2.30367E-07 1.28135E-15
2.51785E-07 1.07467E-15
2.74156E-07 9.08032E-16
2.97478E-07 7.72490E-16
3.21752E-07 6.61328E-16
3.46978E-07 5.69465E-16
3.73156E-07 4.93015E-16
4.00286E-07 4.28976E-16
4.28368E-07 3.75006E-16
4.57402E-07 3.29263E-16
4.87388E-07 2.90287E-16
5.18325E-07 2.56910E-16
5.50215E-07 2.28195E-16
5.83057E-07 2.03381E-16
6.16850E-07 1.81849E-16
6.51596E-07 1.63092E-16
6.87293E-07 1.46691E-16
7.23942E-07 1.32301E-16
7.61543E-07 1.19632E-16
1.18991E-06 4.92239E-17
1.71347E-06 2.38012E-17
2.33223E-06 1.28680E-17
3.04617E-06 7.55068E-18
3.85531E-06 4.71693E-18
4.75964E-06 3.09607E-18
5.75916E-06 2.11522E-18
6.85388E-06 1.49372E-18
8.04378E-06 1.08457E-18
9.32888E-06 8.06360E-19
1.07092E-05 6.11885E-19
1.21846E-05 4.72644E-19
1.37553E-05 3.70841E-19
1.54212E-05 2.95023E-19
1.71822E-05 2.37622E-19
1.90385E-05 1.93426E-19
2.09899E-05 1.59208E-19
2.30365E-05 1.32210E-19
2.51783E-05 1.10669E-19
2.74153E-05 9.33176E-20
2.97475E-05 7.92248E-20
3.21749E-05 6.76929E-20
3.46974E-05 5.81892E-20
3.73152E-05 5.03022E-20
4.00281E-05 4.37119E-20
4.28362E-05 3.81682E-20
4.57395E-05 3.34756E-20
4.87380E-05 2.94806E-20
5.18317E-05 2.60620E-20
5.50205E-05 2.31233E-20
5.83045E-05 2.05866E-20
6.16838E-05 1.83885E-20
6.51582E-05 1.64765E-20
6.87277E-05 1.48073E-20
7.23925E-05 1.33444E-20
7.61524E-05 1.21901E-20
9.21439E-05 8.32383E-21
1.09658E-04 5.87299E-21
1.28695E-04 4.25952E-21
1.49255E-04 3.16184E-21
1.71338E-04 2.39456E-21
1.94942E-04 1.84512E-21
2.20070E-04 1.44348E-21
2.46720E-04 1.14445E-21
2.74892E-04 9.18166E-22
3.04586E-04 7.44459E-22
3.35803E-04 6.09360E-22
3.68542E-04 5.03059E-22
4.02802E-04 4.18526E-22
4.38585E-04 3.50653E-22
4.75889E-04 2.95676E-22
5.14715E-04 2.50784E-22
5.55063E-04 2.13855E-22
5.96931E-04 1.83269E-22
6.40321E-04 1.57775E-22
6.85233E-04 1.36402E-22
7.31665E-04 1.18386E-22
7.79618E-04 1.03122E-22
8.29092E-04 9.01303E-23
8.80086E-04 7.90227E-23
9.32601E-04 6.94871E-23
9.86636E-04 6.12694E-23
1.04219E-03 5.41619E-23
1.09927E-03 4.79936E-23
1.15786E-03 4.26232E-23
1.21797E-03 3.79335E-23
1.27961E-03 3.38266E-23
1.34276E-03 3.02203E-23
1.40743E-03 2.70457E-23
1.47362E-03 2.42443E-23
1.54133E-03 2.17667E-23
1.61056E-03 1.95708E-23
1.68131E-03 1.76205E-23
1.75357E-03 1.58852E-23
1.82735E-03 1.43382E-23
1.90265E-03 1.29567E-23
1.97947E-03 1.17210E-23
2.05780E-03 1.06141E-23
2.13765E-03 9.62089E-24
2.21902E-03 8.72857E-24
2.30190E-03 7.92580E-24
2.38630E-03 7.20267E-24
2.47222E-03 6.55049E-24
2.55965E-03 5.96162E-24
2.64859E-03 5.42935E-24
2.73905E-03 4.94773E-24
2.83103E-03 4.51151E-24
2.92452E-03 4.11604E-24
3.01952E-03 3.75721E-24
3.11604E-03 3.43133E-24
3.21407E-03 3.13516E-24
3.31362E-03 2.86577E-24
3.41468E-03 2.62057E-24
3.51725E-03 2.39724E-24
3.62133E-03 2.19370E-24
3.72692E-03 2.00807E-24
3.83403E-03 1.83869E-24
3.94265E-03 1.68405E-24
4.05278E-03 1.54280E-24
4.16442E-03 1.41371E-24
4.27757E-03 1.29569E-24
4.39223E-03 1.18774E-24
4.50840E-03 1.08897E-24
4.62608E-03 9.98550E-25
4.74527E-03 9.15759E-25
4.86597E-03 8.39927E-25
4.98817E-03 7.70448E-25
5.11188E-03 7.06773E-25
5.23711E-03 6.48403E-25
5.36383E-03 5.94884E-25
5.49207E-03 5.45804E-25
5.62181E-03 5.00786E-25
5.75306E-03 4.59487E-25
5.88581E-03 4.21595E-25
6.02007E-03 3.86825E-25
6.15583E-03 3.54916E-25
6.29310E-03 3.25631E-25
6.43187E-03 2.98752E-25
6.57214E-03 2.74081E-25
6.71392E-03 2.51434E-25
6.85720E-03 2.30647E-25
7.00198E-03 2.11565E-25
7.14827E-03 1.94051E-25
7.29605E-03 1.77974E-25
7.44534E-03 1.63219E-25
7.59612E-03 1.49678E-25
7.97965E-03 1.20503E-25
8.37255E-03 9.69805E-26
8.77480E-03 7.80302E-26
9.18641E-03 6.27783E-26
9.60736E-03 5.05164E-26
1.00376E-02 4.06702E-26
1.04773E-02 3.27739E-26
1.09262E-02 2.64496E-26
1.13844E-02 2.13907E-26
1.18520E-02 1.73488E-26
1.23288E-02 1.41224E-26
1.28150E-02 1.15489E-26
1.33104E-02 9.49658E-27
1.38150E-02 7.85940E-27
1.43290E-02 6.55197E-27
1.48521E-02 5.50578E-27
1.53845E-02 4.66600E-27
1.59262E-02 3.98886E-27
1.64770E-02 3.43960E-27
1.70371E-02 2.99068E-27
1.76063E-02 2.62039E-27
1.81848E-02 2.31172E-27
1.87724E-02 2.05138E-27
1.93692E-02 1.82907E-27
1.99751E-02 1.63682E-27
2.05901E-02 1.46855E-27
2.12143E-02 1.31961E-27
2.18476E-02 1.18647E-27
2.24900E-02 1.06649E-27
2.31415E-02 9.57679E-28
2.38021E-02 8.58535E-28
2.44717E-02 7.67935E-28
2.51504E-02 6.85024E-28
2.58382E-02 6.09142E-28
2.65349E-02 5.39762E-28
2.72407E-02 4.76452E-28
2.79555E-02 4.18840E-28
2.86793E-02 3.66590E-28
2.94120E-02 3.19390E-28
3.01537E-02 2.76941E-28
3.09043E-02 2.38947E-28
3.16639E-02 2.05116E-28
3.24324E-02 1.75156E-28
3.32098E-02 1.48778E-28
3.39961E-02 1.25696E-28
3.47912E-02 1.05625E-28
3.55952E-02 8.82909E-29
3.64081E-02 7.34259E-29
3.72297E-02 6.07734E-29
3.80602E-02 5.00890E-29
3.88995E-02 4.11421E-29
3.97476E-02 3.37171E-29
4.06044E-02 2.76141E-29
4.14700E-02 2.26491E-29
4.23443E-02 1.86549E-29
4.32273E-02 1.54800E-29
4.41190E-02 1.29891E-29
4.50194E-02 1.10623E-29
4.59284E-02 9.59418E-30
4.68461E-02 8.49304E-30
4.87074E-02 7.08857E-30
5.06030E-02 6.35439E-30
5.25328E-02 5.95169E-30
5.44967E-02 5.66448E-30
5.64946E-02 5.36928E-30
5.85262E-02 5.00856E-30
6.05914E-02 4.56870E-30
6.26901E-02 4.06253E-30
6.48222E-02 3.51619E-30
6.69873E-02 2.95990E-30
6.91854E-02 2.42188E-30
7.14163E-02 1.92498E-30
7.36799E-02 1.48515E-30
7.59760E-02 1.11130E-30
7.83043E-02 8.06057E-31
8.06647E-02 5.66993E-31
8.30571E-02 3.88012E-31
8.54812E-02 2.60744E-31
8.79369E-02 1.75756E-31
9.04240E-02 1.23542E-31
9.29422E-02 9.52408E-32
9.54915E-02 8.31151E-32
9.80716E-02 8.08014E-32
1.00682E-01 8.33812E-32
1.03323E-01 8.73175E-32
1.05995E-01 9.02994E-32
1.08696E-01 9.10347E-32
1.11427E-01 8.90225E-32
1.14188E-01 8.43304E-32
1.16978E-01 7.73930E-32
1.19797E-01 6.88425E-32
1.22645E-01 5.93751E-32
1.25522E-01 4.96546E-32
1.28428E-01 4.02490E-32
1.31361E-01 3.15969E-32
1.34323E-01 2.39959E-32
1.37313E-01 1.76086E-32
1.40330E-01 1.24799E-32
1.43375E-01 8.56070E-33
1.46447E-01 5.73356E-33
1.49545E-01 3.83827E-33
1.52671E-01 2.69423E-33
1.55823E-01 2.11895E-33
1.59001E-01 1.94204E-33
1.62205E-01 2.01459E-33
1.65435E-01 2.21456E-33
1.68690E-01 2.44855E-33
1.71970E-01 2.65098E-33
1.75276E-01 2.78126E-33
1.78606E-01 2.81982E-33
1.81961E-01 2.76357E-33
1.85340E-01 2.62126E-33
1.88743E-01 2.40923E-33
1.92169E-01 2.14771E-33
1.95619E-01 1.85779E-33
1.99092E-01 1.55928E-33
2.02589E-01 1.26911E-33
2.06107E-01 1.00057E-33
2.09649E-01 7.62947E-34
2.13212E-01 5.61675E-34
2.16797E-01 3.98744E-34
2.20404E-01 2.73299E-34
2.24032E-01 1.82332E-34
2.27680E-01 1.21370E-34
2.31350E-01 8.51269E-35
2.35040E-01 6.80519E-35
2.38751E-01 6.47790E-35
2.42481E-01 7.04493E-35
2.46231E-01 8.09238E-35
2.50000E-01 9.28915E-35
2.53788E-01 1.03893E-34
2.57595E-01 1.12275E-34
2.61421E-01 1.17105E-34
2.65264E-01 1.18044E-34
2.69126E-01 1.15221E-34
2.73005E-01 1.09097E-34
2.76901E-01 1.00340E-34
2.80814E-01 8.97208E-35
2.84744E-01 7.80217E-35
2.88691E-01 6.59720E-35
2.92653E-01 5.42016E-35
2.96632E-01 4.32131E-35
3.00625E-01 3.33720E-35
3.04634E-01 2.49079E-35
3.08658E-01 1.79266E-35
3.12697E-01 1.24282E-35
3.16749E-01 8.32875E-36
3.20816E-01 5.48261E-36
3.24896E-01 3.70518E-36
3.28990E-01 2.79230E-36
3.33097E-01 2.53730E-36
3.37216E-01 2.74403E-36
3.41348E-01 3.23689E-36
3.45492E-01 3.86686E-36
3.49647E-01 4.51448E-36
3.53814E-01 5.09079E-36
3.57992E-01 5.53533E-36
3.62181E-01 5.81362E-36
3.66381E-01 5.91297E-36
3.70590E-01 5.83814E-36
3.74810E-01 5.60674E-36
3.79039E-01 5.24524E-36
3.83277E-01 4.78475E-36
3.87524E-01 4.25806E-36
3.91780E-01 3.69690E-36
3.96044E-01 3.12996E-36
4.00316E-01 2.58172E-36
4.04596E-01 2.07158E-36
4.08882E-01 1.61368E-36
4.13176E-01 1.21702E-36
4.17476E-01 8.85925E-37
4.21783E-01 6.20679E-37
4.26095E-01 4.18256E-37
4.30413E-01 2.73149E-37
4.34737E-01 1.78158E-37
4.39065E-01 1.25079E-37
4.43398E-01 1.05364E-37
4.47736E-01 1.10660E-37
4.52077E-01 1.33149E-37
4.56422E-01 1.65916E-37
4.60770E-01 2.03078E-37
4.65122E-01 2.39884E-37
4.69476E-01 2.72744E-37
4.73832E-01 2.99149E-37
4.78190E-01 3.17578E-37
4.82550E-01 3.27371E-37
4.86912E-01 3.28581E-37
4.91274E-01 3.21788E-37
4.95637E-01 3.08001E-37
5.00000E-01 2.88459E-37
5.04363E-01 2.64551E-37
5.08726E-01 2.37673E-37
5.13088E-01 2.09174E-37
5.17450E-01 1.80280E-37
5.21810E-01 1.52047E-37
5.26168E-01 1.25337E-37
5.30524E-01 1.00813E-37
5.34878E-01 7.89414E-38
5.39230E-01 5.99971E-38
5.43578E-01 4.40924E-38
5.47923E-01 3.11983E-38
5.52264E-01 2.11708E-38
5.56602E-01 1.37727E-38
5.60935E-01 1.00000E-45
5.65263E-01 1.00000E-45
5.69587E-01 1.00000E-45
5.73905E-01 1.00000E-45
5.78217E-01 1.00000E-45
5.82524E-01 1.00000E-45
5.86824E-01 1.00000E-45
5.91118E-01 1.00000E-45
5.95404E-01 1.00000E-45
5.99684E-01 1.00000E-45
6.03956E-01 1.00000E-45
6.08220E-01 1.00000E-45
6.12476E-01 1.00000E-45
6.16723E-01 1.00000E-45
6.20961E-01 1.00000E-45
6.25190E-01 1.00000E-45
6.29410E-01 1.00000E-45
6.33619E-01 1.00000E-45
6.37819E-01 1.00000E-45
6.42008E-01 1.00000E-45
6.46186E-01 1.00000E-45
6.50353E-01 1.00000E-45
6.54508E-01 1.00000E-45
6.58652E-01 1.00000E-45
6.62784E-01 1.00000E-45
6.66903E-01 1.00000E-45
6.71010E-01 1.00000E-45
6.75104E-01 1.00000E-45
6.79184E-01 1.00000E-45
6.83251E-01 1.00000E-45
6.87303E-01 1.00000E-45
6.91342E-01 1.00000E-45
6.95366E-01 1.00000E-45
6.99375E-01 1.00000E-45
7.03368E-01 1.00000E-45
7.07347E-01 1.00000E-45
7.11309E-01 1.00000E-45
7.15256E-01 1.00000E-45
7.19186E-01 1.00000E-45
7.23099E-01 1.00000E-45
7.26995E-01 1.00000E-45
7.30874E-01 1.00000E-45
7.34736E-01 1.00000E-45
7.38579E-01 1.00000E-45
7.42405E-01 1.00000E-45
7.46212E-01 1.00000E-45
7.50000E-01 1.00000E-45
7.53769E-01 1.00000E-45
7.57519E-01 1.00000E-45
7.61249E-01 1.00000E-45
7.64960E-01 1.00000E-45
7.68650E-01 1.00000E-45
7.72320E-01 1.00000E-45
7.75968E-01 1.00000E-45
7.79596E-01 1.00000E-45
7.83203E-01 1.00000E-45
7.86788E-01 1.00000E-45
7.90351E-01 1.00000E-45
7.93893E-01 1.00000E-45
7.97411E-01 1.00000E-45
8.00908E-01 1.00000E-45
8.04381E-01 1.00000E-45
8.07831E-01 1.00000E-45
8.11257E-01 1.00000E-45
8.14660E-01 1.00000E-45
8.18039E-01 1.00000E-45
8.21394E-01 1.00000E-45
8.24724E-01 1.00000E-45
8.28030E-01 1.00000E-45
8.31310E-01 1.00000E-45
8.34565E-01 1.00000E-45
8.37795E-01 1.00000E-45
8.40999E-01 1.00000E-45
8.44177E-01 1.00000E-45
8.47329E-01 1.00000E-45
8.50455E-01 1.00000E-45
8.53553E-01 1.00000E-45
8.56625E-01 1.00000E-45
8.59670E-01 1.00000E-45
8.62687E-01 1.00000E-45
8.65677E-01 1.00000E-45
8.68639E-01 1.00000E-45
8.71572E-01 1.00000E-45
8.74478E-01 1.00000E-45
8.77355E-01 1.00000E-45
8.80203E-01 1.00000E-45
8.83022E-01 1.00000E-45
8.85812E-01 1.00000E-45
8.88573E-01 1.00000E-45
8.91304E-01 1.00000E-45
8.94005E-01 1.00000E-45
8.96677E-01 1.00000E-45
8.99318E-01 1.00000E-45
9.01928E-01 1.00000E-45
9.04508E-01 1.00000E-45
9.07058E-01 1.00000E-45
9.09576E-01 1.00000E-45
9.12063E-01 1.00000E-45
9.14519E-01 1.00000E-45
9.16943E-01 1.00000E-45
9.19335E-01 1.00000E-45
9.21696E-01 1.00000E-45
9.24024E-01 1.00000E-45
9.26320E-01 1.00000E-45
9.28584E-01 1.00000E-45
9.30815E-01 1.00000E-45
9.33013E-01 1.00000E-45
9.35178E-01 1.00000E-45
9.37310E-01 1.00000E-45
9.39409E-01 1.00000E-45
9.41474E-01 1.00000E-45
9.43505E-01 1.00000E-45
9.45503E-01 1.00000E-45
9.47467E-01 1.00000E-45
9.49397E-01 1.00000E-45
9.51293E-01 1.00000E-45
9.53154E-01 1.00000E-45
9.54981E-01 1.00000E-45
9.56773E-01 1.00000E-45
9.58530E-01 1.00000E-45
9.60252E-01 1.00000E-45
9.61940E-01 1.00000E-45
9.63592E-01 1.00000E-45
9.65209E-01 1.00000E-45
9.66790E-01 1.00000E-45
9.68336E-01 1.00000E-45
9.69846E-01 1.00000E-45
9.71321E-01 1.00000E-45
9.72759E-01 1.00000E-45
9.74162E-01 1.00000E-45
9.75528E-01 1.00000E-45
9.76858E-01 1.00000E-45
9.78152E-01 1.00000E-45
9.79410E-01 1.00000E-45
9.80631E-01 1.00000E-45
9.81815E-01 1.00000E-45
9.82963E-01 1.00000E-45
9.84074E-01 1.00000E-45
9.85148E-01 1.00000E-45
9.86185E-01 1.00000E-45
9.87185E-01 1.00000E-45
9.88148E-01 1.00000E-45
9.89074E-01 1.00000E-45
9.89962E-01 1.00000E-45
9.90814E-01 1.00000E-45
9.91627E-01 1.00000E-45
9.92404E-01 1.00000E-45
9.93143E-01 1.00000E-45
9.93844E-01 1.00000E-45
9.94508E-01 1.00000E-45
9.95134E-01 1.00000E-45
9.95722E-01 1.00000E-45
9.96273E-01 1.00000E-45
9.96786E-01 1.00000E-45
9.97261E-01 1.00000E-45
9.97698E-01 1.00000E-45
9.98097E-01 1.00000E-45
9.98459E-01 1.00000E-45
9.98782E-01 1.00000E-45
9.99067E-01 1.00000E-45
9.99315E-01 1.00000E-45
9.99524E-01 1.00000E-45
9.99695E-01 1.00000E-45
9.99829E-01 1.00000E-45
9.99924E-01 1.00000E-45
9.99981E-01 1.00000E-45
1.00000E+00 1.00000E-45
