 #
 # Subroutine ELSEPA. Elastic scattering of electrons and positrons
 #                    by neutral atoms and positive ions
 #
 # Projectile: positron
 # Kinetic energy = 8.00000E+06 eV = 2.93995E+05 a.u.
 #
 # WARNING: High-energy factorization with free-atom DF screening.
 #          Absorption, polarization and exchange corrections are
 #          switched off.
 #          Phase shifts are calculated for the bare nucleus.
 #          Scattering amplitudes are not evaluated.
 #
 # Element: Yb,  Z =  70,  atomic weight = 1.73040E+02 g/mol
 #
 # Nuclear model: Fermi distribution
 #                Average radius = 5.96256E-13 cm
 #                Skin thickness = 5.46000E-14 cm
 #
 # Number of electrons = 70
 #
 # Total elastic cross section = 7.00906E-18 cm**2 = 2.50298E-01 a0**2
 # 1st transport cross section = 9.05004E-23 cm**2 = 3.23183E-06 a0**2
 # 2nd transport cross section = 2.61414E-22 cm**2 = 9.33526E-06 a0**2
 #
 #
 # Differential cross section:                       MU=(1-COS(THETA))/2
 #
 #  THETA        MU          DCS          DCS        Sherman      error
 #  (deg)                 (cm**2/sr)   (a0**2/sr)    function
 #----------------------------------------------------------------------
0.00000E+00 4.83572E-12
7.61557E-13 4.83556E-12
1.18994E-12 4.83548E-12
1.71346E-12 4.83537E-12
2.33225E-12 4.83525E-12
3.04617E-12 4.83510E-12
3.85530E-12 4.83494E-12
4.75964E-12 4.83476E-12
5.75917E-12 4.83456E-12
6.85391E-12 4.83434E-12
8.04379E-12 4.83411E-12
9.32893E-12 4.83385E-12
1.07092E-11 4.83358E-12
1.21847E-11 4.83328E-12
1.37554E-11 4.83297E-12
1.54213E-11 4.83264E-12
1.71823E-11 4.83229E-12
1.90386E-11 4.83193E-12
2.09900E-11 4.83154E-12
2.30367E-11 4.83113E-12
2.51785E-11 4.83071E-12
2.74156E-11 4.83027E-12
2.97478E-11 4.82981E-12
3.21752E-11 4.82933E-12
3.46979E-11 4.82883E-12
3.73157E-11 4.82831E-12
4.00286E-11 4.82778E-12
4.28368E-11 4.82722E-12
4.57402E-11 4.82665E-12
4.87388E-11 4.82606E-12
5.18325E-11 4.82545E-12
5.50215E-11 4.82482E-12
5.83057E-11 4.82417E-12
6.16850E-11 4.82351E-12
6.51595E-11 4.82282E-12
6.87293E-11 4.82212E-12
7.23943E-11 4.82140E-12
7.61544E-11 4.82066E-12
1.18991E-10 4.81225E-12
1.71347E-10 4.80201E-12
2.33223E-10 4.78996E-12
3.04617E-10 4.77612E-12
3.85531E-10 4.76052E-12
4.75965E-10 4.74320E-12
5.75917E-10 4.72417E-12
6.85389E-10 4.70348E-12
8.04380E-10 4.68117E-12
9.32891E-10 4.65728E-12
1.07092E-09 4.63185E-12
1.21847E-09 4.60493E-12
1.37554E-09 4.57657E-12
1.54213E-09 4.54681E-12
1.71823E-09 4.51571E-12
1.90386E-09 4.48333E-12
2.09900E-09 4.44971E-12
2.30367E-09 4.41492E-12
2.51785E-09 4.37901E-12
2.74156E-09 4.34204E-12
2.97478E-09 4.30407E-12
3.21752E-09 4.26520E-12
3.46978E-09 4.22561E-12
3.73156E-09 4.18512E-12
4.00286E-09 4.14380E-12
4.28368E-09 4.10168E-12
4.57402E-09 4.05884E-12
4.87388E-09 4.01531E-12
5.18326E-09 3.97160E-12
5.50215E-09 3.92750E-12
5.83057E-09 3.88288E-12
6.16850E-09 3.83780E-12
6.51596E-09 3.79229E-12
6.87293E-09 3.74642E-12
7.23942E-09 3.70041E-12
7.61544E-09 3.65471E-12
1.18991E-08 3.19583E-12
1.71347E-08 2.76317E-12
2.33223E-08 2.37795E-12
3.04617E-08 2.04846E-12
3.85531E-08 1.77216E-12
4.75965E-08 1.54409E-12
5.75917E-08 1.35546E-12
6.85389E-08 1.19947E-12
8.04380E-08 1.06909E-12
9.32891E-08 9.59083E-13
1.07092E-07 8.65190E-13
1.21847E-07 7.84120E-13
1.37554E-07 7.13345E-13
1.54213E-07 6.51071E-13
1.71823E-07 5.95657E-13
1.90386E-07 5.46270E-13
2.09900E-07 5.01699E-13
2.30367E-07 4.61627E-13
2.51785E-07 4.25200E-13
2.74156E-07 3.92215E-13
2.97478E-07 3.62148E-13
3.21752E-07 3.34289E-13
3.46978E-07 3.07006E-13
3.73156E-07 2.83159E-13
4.00286E-07 2.62224E-13
4.28368E-07 2.43770E-13
4.57402E-07 2.27438E-13
4.87388E-07 2.12928E-13
5.18325E-07 1.97917E-13
5.50215E-07 1.83754E-13
5.83057E-07 1.71132E-13
6.16850E-07 1.59845E-13
6.51596E-07 1.49722E-13
6.87293E-07 1.40614E-13
7.23942E-07 1.32071E-13
7.61543E-07 1.23425E-13
1.18991E-06 6.80817E-14
1.71347E-06 4.03800E-14
2.33223E-06 2.52394E-14
3.04617E-06 1.64103E-14
3.85531E-06 1.10707E-14
4.75964E-06 7.70425E-15
5.75916E-06 5.53089E-15
6.85388E-06 4.07679E-15
8.04378E-06 3.08066E-15
9.32888E-06 2.37315E-15
1.07092E-05 1.86223E-15
1.21846E-05 1.48433E-15
1.37553E-05 1.19863E-15
1.54212E-05 9.78735E-16
1.71822E-05 8.06759E-16
1.90385E-05 6.70637E-16
2.09899E-05 5.62465E-16
2.30365E-05 4.75221E-16
2.51783E-05 4.04005E-16
2.74153E-05 3.45501E-16
2.97475E-05 2.97067E-16
3.21749E-05 2.56742E-16
3.46974E-05 2.22918E-16
3.73152E-05 1.94702E-16
4.00281E-05 1.70756E-16
4.28362E-05 1.50361E-16
4.57395E-05 1.33020E-16
4.87380E-05 1.17969E-16
5.18317E-05 1.05041E-16
5.50205E-05 9.38328E-17
5.83045E-05 8.40546E-17
6.16838E-05 7.55541E-17
6.51582E-05 6.80708E-17
6.87277E-05 6.15066E-17
7.23925E-05 5.57257E-17
7.61524E-05 5.05928E-17
9.21439E-05 3.51572E-17
1.09658E-04 2.51766E-17
1.28695E-04 1.85062E-17
1.49255E-04 1.39028E-17
1.71338E-04 1.06466E-17
1.94942E-04 8.28900E-18
2.20070E-04 6.54843E-18
2.46720E-04 5.24104E-18
2.74892E-04 4.24328E-18
3.04586E-04 3.47170E-18
3.35803E-04 2.86712E-18
3.68542E-04 2.38838E-18
4.02802E-04 2.00516E-18
4.38585E-04 1.69565E-18
4.75889E-04 1.44343E-18
5.14715E-04 1.23630E-18
5.55063E-04 1.06494E-18
5.96931E-04 9.22193E-19
6.40321E-04 8.02535E-19
6.85233E-04 7.01619E-19
7.31665E-04 6.16055E-19
7.79618E-04 5.43111E-19
8.29092E-04 4.80636E-19
8.80086E-04 4.26870E-19
9.32601E-04 3.80404E-19
9.86636E-04 3.40080E-19
1.04219E-03 3.04949E-19
1.09927E-03 2.74233E-19
1.15786E-03 2.47279E-19
1.21797E-03 2.23552E-19
1.27961E-03 2.02596E-19
1.34276E-03 1.84036E-19
1.40743E-03 1.67547E-19
1.47362E-03 1.52861E-19
1.54133E-03 1.39745E-19
1.61056E-03 1.28003E-19
1.68131E-03 1.17465E-19
1.75357E-03 1.07988E-19
1.82735E-03 9.94441E-20
1.90265E-03 9.17266E-20
1.97947E-03 8.47415E-20
2.05780E-03 7.84066E-20
2.13765E-03 7.26511E-20
2.21902E-03 6.74124E-20
2.30190E-03 6.26360E-20
2.38630E-03 5.82738E-20
2.47222E-03 5.42836E-20
2.55965E-03 5.06279E-20
2.64859E-03 4.72737E-20
2.73905E-03 4.41918E-20
2.83103E-03 4.13559E-20
2.92452E-03 3.87431E-20
3.01952E-03 3.63326E-20
3.11604E-03 3.41059E-20
3.21407E-03 3.20464E-20
3.31362E-03 3.01395E-20
3.41468E-03 2.83717E-20
3.51725E-03 2.67311E-20
3.62133E-03 2.52069E-20
3.72692E-03 2.37892E-20
3.83403E-03 2.24695E-20
3.94265E-03 2.12394E-20
4.05278E-03 2.00921E-20
4.16442E-03 1.90209E-20
4.27757E-03 1.80197E-20
4.39223E-03 1.70832E-20
4.50840E-03 1.62065E-20
4.62608E-03 1.53850E-20
4.74527E-03 1.46147E-20
4.86597E-03 1.38916E-20
4.98817E-03 1.32126E-20
5.11188E-03 1.25743E-20
5.23711E-03 1.19739E-20
5.36383E-03 1.14087E-20
5.49207E-03 1.08762E-20
5.62181E-03 1.03743E-20
5.75306E-03 9.90091E-21
5.88581E-03 9.45400E-21
6.02007E-03 9.03190E-21
6.15583E-03 8.63295E-21
6.29310E-03 8.25565E-21
6.43187E-03 7.89864E-21
6.57214E-03 7.56058E-21
6.71392E-03 7.24032E-21
6.85720E-03 6.93674E-21
7.00198E-03 6.64879E-21
7.14827E-03 6.37555E-21
7.29605E-03 6.11611E-21
7.44534E-03 5.86964E-21
7.59612E-03 5.63540E-21
7.97965E-03 5.09861E-21
8.37255E-03 4.62387E-21
8.77480E-03 4.20277E-21
9.18641E-03 3.82824E-21
9.60736E-03 3.49424E-21
1.00376E-02 3.19565E-21
1.04773E-02 2.92807E-21
1.09262E-02 2.68773E-21
1.13844E-02 2.47138E-21
1.18520E-02 2.27621E-21
1.23288E-02 2.09979E-21
1.28150E-02 1.94002E-21
1.33104E-02 1.79504E-21
1.38150E-02 1.66325E-21
1.43290E-02 1.54325E-21
1.48521E-02 1.43379E-21
1.53845E-02 1.33379E-21
1.59262E-02 1.24228E-21
1.64770E-02 1.15843E-21
1.70371E-02 1.08147E-21
1.76063E-02 1.01075E-21
1.81848E-02 9.45662E-22
1.87724E-02 8.85686E-22
1.93692E-02 8.30348E-22
1.99751E-02 7.79226E-22
2.05901E-02 7.31942E-22
2.12143E-02 6.88159E-22
2.18476E-02 6.47570E-22
2.24900E-02 6.09902E-22
2.31415E-02 5.74907E-22
2.38021E-02 5.42362E-22
2.44717E-02 5.12066E-22
2.51504E-02 4.83834E-22
2.58382E-02 4.57501E-22
2.65349E-02 4.32918E-22
2.72407E-02 4.09946E-22
2.79555E-02 3.88463E-22
2.86793E-02 3.68353E-22
2.94120E-02 3.49514E-22
3.01537E-02 3.31852E-22
3.09043E-02 3.15279E-22
3.16639E-02 2.99716E-22
3.24324E-02 2.85091E-22
3.32098E-02 2.71336E-22
3.39961E-02 2.58392E-22
3.47912E-02 2.46202E-22
3.55952E-02 2.34714E-22
3.64081E-02 2.23880E-22
3.72297E-02 2.13657E-22
3.80602E-02 2.04004E-22
3.88995E-02 1.94883E-22
3.97476E-02 1.86260E-22
4.06044E-02 1.78102E-22
4.14700E-02 1.70380E-22
4.23443E-02 1.63068E-22
4.32273E-02 1.56138E-22
4.41190E-02 1.49568E-22
4.50194E-02 1.43335E-22
4.59284E-02 1.37419E-22
4.68461E-02 1.31802E-22
4.87074E-02 1.21390E-22
5.06030E-02 1.11974E-22
5.25328E-02 1.03441E-22
5.44967E-02 9.56945E-23
5.64946E-02 8.86498E-23
5.85262E-02 8.22326E-23
6.05914E-02 7.63773E-23
6.26901E-02 7.10265E-23
6.48222E-02 6.61292E-23
6.69873E-02 6.16404E-23
6.91854E-02 5.75203E-23
7.14163E-02 5.37333E-23
7.36799E-02 5.02480E-23
7.59760E-02 4.70361E-23
7.83043E-02 4.40725E-23
8.06647E-02 4.13349E-23
8.30571E-02 3.88029E-23
8.54812E-02 3.64584E-23
8.79369E-02 3.42853E-23
9.04240E-02 3.22687E-23
9.29422E-02 3.03956E-23
9.54915E-02 2.86539E-23
9.80716E-02 2.70328E-23
1.00682E-01 2.55226E-23
1.03323E-01 2.41143E-23
1.05995E-01 2.27999E-23
1.08696E-01 2.15720E-23
1.11427E-01 2.04240E-23
1.14188E-01 1.93498E-23
1.16978E-01 1.83437E-23
1.19797E-01 1.74009E-23
1.22645E-01 1.65164E-23
1.25522E-01 1.56863E-23
1.28428E-01 1.49064E-23
1.31361E-01 1.41734E-23
1.34323E-01 1.34837E-23
1.37313E-01 1.28346E-23
1.40330E-01 1.22230E-23
1.43375E-01 1.16467E-23
1.46447E-01 1.11030E-23
1.49545E-01 1.05899E-23
1.52671E-01 1.01053E-23
1.55823E-01 9.64740E-24
1.59001E-01 9.21447E-24
1.62205E-01 8.80490E-24
1.65435E-01 8.41722E-24
1.68690E-01 8.05006E-24
1.71970E-01 7.70213E-24
1.75276E-01 7.37226E-24
1.78606E-01 7.05936E-24
1.81961E-01 6.76239E-24
1.85340E-01 6.48040E-24
1.88743E-01 6.21252E-24
1.92169E-01 5.95791E-24
1.95619E-01 5.71580E-24
1.99092E-01 5.48548E-24
2.02589E-01 5.26626E-24
2.06107E-01 5.05753E-24
2.09649E-01 4.85869E-24
2.13212E-01 4.66920E-24
2.16797E-01 4.48854E-24
2.20404E-01 4.31623E-24
2.24032E-01 4.15182E-24
2.27680E-01 3.99487E-24
2.31350E-01 3.84501E-24
2.35040E-01 3.70184E-24
2.38751E-01 3.56502E-24
2.42481E-01 3.43423E-24
2.46231E-01 3.30914E-24
2.50000E-01 3.18947E-24
2.53788E-01 3.07495E-24
2.57595E-01 2.96531E-24
2.61421E-01 2.86031E-24
2.65264E-01 2.75972E-24
2.69126E-01 2.66333E-24
2.73005E-01 2.57093E-24
2.76901E-01 2.48232E-24
2.80814E-01 2.39733E-24
2.84744E-01 2.31577E-24
2.88691E-01 2.23750E-24
2.92653E-01 2.16235E-24
2.96632E-01 2.09018E-24
3.00625E-01 2.02085E-24
3.04634E-01 1.95422E-24
3.08658E-01 1.89019E-24
3.12697E-01 1.82862E-24
3.16749E-01 1.76941E-24
3.20816E-01 1.71245E-24
3.24896E-01 1.65765E-24
3.28990E-01 1.60490E-24
3.33097E-01 1.55412E-24
3.37216E-01 1.50522E-24
3.41348E-01 1.45812E-24
3.45492E-01 1.41274E-24
3.49647E-01 1.36901E-24
3.53814E-01 1.32686E-24
3.57992E-01 1.28621E-24
3.62181E-01 1.24701E-24
3.66381E-01 1.20920E-24
3.70590E-01 1.17272E-24
3.74810E-01 1.13752E-24
3.79039E-01 1.10354E-24
3.83277E-01 1.07074E-24
3.87524E-01 1.03906E-24
3.91780E-01 1.00847E-24
3.96044E-01 9.78919E-25
4.00316E-01 9.50364E-25
4.04596E-01 9.22769E-25
4.08882E-01 8.96095E-25
4.13176E-01 8.70306E-25
4.17476E-01 8.45369E-25
4.21783E-01 8.21250E-25
4.26095E-01 7.97919E-25
4.30413E-01 7.75346E-25
4.34737E-01 7.53501E-25
4.39065E-01 7.32357E-25
4.43398E-01 7.11889E-25
4.47736E-01 6.92071E-25
4.52077E-01 6.72880E-25
4.56422E-01 6.54291E-25
4.60770E-01 6.36284E-25
4.65122E-01 6.18837E-25
4.69476E-01 6.01929E-25
4.73832E-01 5.85543E-25
4.78190E-01 5.69658E-25
4.82550E-01 5.54257E-25
4.86912E-01 5.39322E-25
4.91274E-01 5.24839E-25
4.95637E-01 5.10790E-25
5.00000E-01 4.97161E-25
5.04363E-01 4.83937E-25
5.08726E-01 4.71104E-25
5.13088E-01 4.58649E-25
5.17450E-01 4.46559E-25
5.21810E-01 4.34821E-25
5.26168E-01 4.23424E-25
5.30524E-01 4.12356E-25
5.34878E-01 4.01606E-25
5.39230E-01 3.91164E-25
5.43578E-01 3.81020E-25
5.47923E-01 3.71163E-25
5.52264E-01 3.61584E-25
5.56602E-01 3.52275E-25
5.60935E-01 3.43226E-25
5.65263E-01 3.34429E-25
5.69587E-01 3.25877E-25
5.73905E-01 3.17560E-25
5.78217E-01 3.09472E-25
5.82524E-01 3.01606E-25
5.86824E-01 2.93954E-25
5.91118E-01 2.86509E-25
5.95404E-01 2.79266E-25
5.99684E-01 2.72219E-25
6.03956E-01 2.65360E-25
6.08220E-01 2.58684E-25
6.12476E-01 2.52186E-25
6.16723E-01 2.45860E-25
6.20961E-01 2.39701E-25
6.25190E-01 2.33704E-25
6.29410E-01 2.27863E-25
6.33619E-01 2.22176E-25
6.37819E-01 2.16636E-25
6.42008E-01 2.11239E-25
6.46186E-01 2.05982E-25
6.50353E-01 2.00859E-25
6.54508E-01 1.95868E-25
6.58652E-01 1.91004E-25
6.62784E-01 1.86264E-25
6.66903E-01 1.81644E-25
6.71010E-01 1.77140E-25
6.75104E-01 1.72750E-25
6.79184E-01 1.68470E-25
6.83251E-01 1.64296E-25
6.87303E-01 1.60227E-25
6.91342E-01 1.56258E-25
6.95366E-01 1.52388E-25
6.99375E-01 1.48613E-25
7.03368E-01 1.44931E-25
7.07347E-01 1.41339E-25
7.11309E-01 1.37835E-25
7.15256E-01 1.34416E-25
7.19186E-01 1.31080E-25
7.23099E-01 1.27824E-25
7.26995E-01 1.24648E-25
7.30874E-01 1.21547E-25
7.34736E-01 1.18521E-25
7.38579E-01 1.15568E-25
7.42405E-01 1.12685E-25
7.46212E-01 1.09870E-25
7.50000E-01 1.07123E-25
7.53769E-01 1.04440E-25
7.57519E-01 1.01821E-25
7.61249E-01 9.92630E-26
7.64960E-01 9.67655E-26
7.68650E-01 9.43265E-26
7.72320E-01 9.19446E-26
7.75968E-01 8.96183E-26
7.79596E-01 8.73461E-26
7.83203E-01 8.51267E-26
7.86788E-01 8.29587E-26
7.90351E-01 8.08410E-26
7.93893E-01 7.87721E-26
7.97411E-01 7.67510E-26
8.00908E-01 7.47763E-26
8.04381E-01 7.28471E-26
8.07831E-01 7.09621E-26
8.11257E-01 6.91202E-26
8.14660E-01 6.73205E-26
8.18039E-01 6.55618E-26
8.21394E-01 6.38433E-26
8.24724E-01 6.21639E-26
8.28030E-01 6.05228E-26
8.31310E-01 5.89189E-26
8.34565E-01 5.73515E-26
8.37795E-01 5.58196E-26
8.40999E-01 5.43225E-26
8.44177E-01 5.28593E-26
8.47329E-01 5.14292E-26
8.50455E-01 5.00315E-26
8.53553E-01 4.86654E-26
8.56625E-01 4.73302E-26
8.59670E-01 4.60252E-26
8.62687E-01 4.47498E-26
8.65677E-01 4.35032E-26
8.68639E-01 4.22848E-26
8.71572E-01 4.10940E-26
8.74478E-01 3.99302E-26
8.77355E-01 3.87928E-26
8.80203E-01 3.76812E-26
8.83022E-01 3.65948E-26
8.85812E-01 3.55332E-26
8.88573E-01 3.44957E-26
8.91304E-01 3.34819E-26
8.94005E-01 3.24912E-26
8.96677E-01 3.15232E-26
8.99318E-01 3.05775E-26
9.01928E-01 2.96534E-26
9.04508E-01 2.87507E-26
9.07058E-01 2.78688E-26
9.09576E-01 2.70074E-26
9.12063E-01 2.61659E-26
9.14519E-01 2.53441E-26
9.16943E-01 2.45416E-26
9.19335E-01 2.37579E-26
9.21696E-01 2.29926E-26
9.24024E-01 2.22455E-26
9.26320E-01 2.15162E-26
9.28584E-01 2.08044E-26
9.30815E-01 2.01096E-26
9.33013E-01 1.94317E-26
9.35178E-01 1.87702E-26
9.37310E-01 1.81249E-26
9.39409E-01 1.74955E-26
9.41474E-01 1.68817E-26
9.43505E-01 1.62833E-26
9.45503E-01 1.56999E-26
9.47467E-01 1.51313E-26
9.49397E-01 1.45772E-26
9.51293E-01 1.40375E-26
9.53154E-01 1.35118E-26
9.54981E-01 1.29999E-26
9.56773E-01 1.25016E-26
9.58530E-01 1.20167E-26
9.60252E-01 1.15450E-26
9.61940E-01 1.10863E-26
9.63592E-01 1.06403E-26
9.65209E-01 1.02069E-26
9.66790E-01 9.78589E-27
9.68336E-01 9.37709E-27
9.69846E-01 8.98031E-27
9.71321E-01 8.59539E-27
9.72759E-01 8.22217E-27
9.74162E-01 7.86048E-27
9.75528E-01 7.51018E-27
9.76858E-01 7.17112E-27
9.78152E-01 6.84315E-27
9.79410E-01 6.52613E-27
9.80631E-01 6.21993E-27
9.81815E-01 5.92442E-27
9.82963E-01 5.63948E-27
9.84074E-01 5.36499E-27
9.85148E-01 5.10084E-27
9.86185E-01 4.84691E-27
9.87185E-01 4.60310E-27
9.88148E-01 4.36930E-27
9.89074E-01 4.14543E-27
9.89962E-01 3.93139E-27
9.90814E-01 3.72709E-27
9.91627E-01 3.53244E-27
9.92404E-01 3.34737E-27
9.93143E-01 3.17181E-27
9.93844E-01 3.00567E-27
9.94508E-01 2.84889E-27
9.95134E-01 2.70141E-27
9.95722E-01 2.56316E-27
9.96273E-01 2.43410E-27
9.96786E-01 2.31416E-27
9.97261E-01 2.20330E-27
9.97698E-01 2.10147E-27
9.98097E-01 2.00864E-27
9.98459E-01 1.92476E-27
9.98782E-01 1.84980E-27
9.99067E-01 1.78373E-27
9.99315E-01 1.72652E-27
9.99524E-01 1.67816E-27
9.99695E-01 1.63861E-27
9.99829E-01 1.60787E-27
9.99924E-01 1.58592E-27
9.99981E-01 1.57276E-27
1.00000E+00 1.56837E-27
