 #
 # Subroutine ELSEPA. Elastic scattering of electrons and positrons
 #                    by neutral atoms and positive ions
 #
 # Projectile: positron
 # Kinetic energy = 8.00000E+08 eV = 2.93995E+07 a.u.
 #
 # WARNING: High-energy factorization with free-atom DF screening.
 #          Absorption, polarization and exchange corrections are
 #          switched off.
 #          Phase shifts are calculated for the bare nucleus.
 #          Scattering amplitudes are not evaluated.
 #
 # Element: Yb,  Z =  70,  atomic weight = 1.73040E+02 g/mol
 #
 # Nuclear model: Fermi distribution
 #                Average radius = 5.96256E-13 cm
 #                Skin thickness = 5.46000E-14 cm
 #
 # Number of electrons = 70
 #
 # Total elastic cross section = 6.94804E-18 cm**2 = 2.48119E-01 a0**2
 # 1st transport cross section = 1.44830E-26 cm**2 = 5.17199E-10 a0**2
 # 2nd transport cross section = 4.34424E-26 cm**2 = 1.55136E-09 a0**2
 #
 #
 # Differential cross section:                       MU=(1-COS(THETA))/2
 #
 #  THETA        MU          DCS          DCS        Sherman      error
 #  (deg)                 (cm**2/sr)   (a0**2/sr)    function
 #----------------------------------------------------------------------
0.00000E+00 4.27794E-08
7.61557E-13 3.32709E-08
1.18994E-12 2.94353E-08
1.71346E-12 2.57316E-08
2.33225E-12 2.23592E-08
3.04617E-12 1.94104E-08
3.85530E-12 1.68927E-08
4.75964E-12 1.47814E-08
5.75917E-12 1.30149E-08
6.85391E-12 1.15430E-08
8.04379E-12 1.03062E-08
9.32893E-12 9.26073E-09
1.07092E-11 8.36818E-09
1.21847E-11 7.59752E-09
1.37554E-11 6.92650E-09
1.54213E-11 6.33577E-09
1.71823E-11 5.81184E-09
1.90386E-11 5.34390E-09
2.09900E-11 4.92266E-09
2.30367E-11 4.54294E-09
2.51785E-11 4.19739E-09
2.74156E-11 3.88421E-09
2.97478E-11 3.59706E-09
3.21752E-11 3.33570E-09
3.46979E-11 3.09551E-09
3.73157E-11 2.86222E-09
4.00286E-11 2.64547E-09
4.28368E-11 2.45427E-09
4.57402E-11 2.28498E-09
4.87388E-11 2.13453E-09
5.18325E-11 2.00036E-09
5.50215E-11 1.88030E-09
5.83057E-11 1.75469E-09
6.16850E-11 1.63591E-09
6.51595E-11 1.52937E-09
6.87293E-11 1.43353E-09
7.23943E-11 1.34707E-09
7.61544E-11 1.26886E-09
1.18991E-10 7.09504E-10
1.71347E-10 4.25711E-10
2.33223E-10 2.68892E-10
3.04617E-10 1.76471E-10
3.85531E-10 1.19883E-10
4.75965E-10 8.38106E-11
5.75917E-10 6.03232E-11
6.85389E-10 4.45101E-11
8.04380E-10 3.36375E-11
9.32891E-10 2.59426E-11
1.07092E-09 2.03562E-11
1.21847E-09 1.62269E-11
1.37554E-09 1.31158E-11
1.54213E-09 1.07236E-11
1.71823E-09 8.85435E-12
1.90386E-09 7.37463E-12
2.09900E-09 6.18995E-12
2.30367E-09 5.23416E-12
2.51785E-09 4.45499E-12
2.74156E-09 3.81574E-12
2.97478E-09 3.28578E-12
3.21752E-09 2.84445E-12
3.46978E-09 2.47399E-12
3.73156E-09 2.16059E-12
4.00286E-09 1.89568E-12
4.28368E-09 1.67162E-12
4.57402E-09 1.47813E-12
4.87388E-09 1.31229E-12
5.18326E-09 1.16965E-12
5.50215E-09 1.04490E-12
5.83057E-09 9.36836E-13
6.16850E-09 8.42448E-13
6.51596E-09 7.59387E-13
6.87293E-09 6.86609E-13
7.23942E-09 6.22198E-13
7.61544E-09 5.65143E-13
1.18991E-08 2.41304E-13
1.71347E-08 1.19761E-13
2.33223E-08 6.59968E-14
3.04617E-08 3.92834E-14
3.85531E-08 2.48063E-14
4.75965E-08 1.64177E-14
5.75917E-08 1.12906E-14
6.85389E-08 8.01594E-15
8.04380E-08 5.84645E-15
9.32891E-08 4.36361E-15
1.07092E-07 3.32244E-15
1.21847E-07 2.57415E-15
1.37554E-07 2.02521E-15
1.54213E-07 1.61513E-15
1.71823E-07 1.30382E-15
1.90386E-07 1.06404E-15
2.09900E-07 8.76948E-16
2.30367E-07 7.29232E-16
2.51785E-07 6.11352E-16
2.74156E-07 5.16356E-16
2.97478E-07 4.39114E-16
3.21752E-07 3.75789E-16
3.46978E-07 3.23476E-16
3.73156E-07 2.79955E-16
4.00286E-07 2.43511E-16
4.28368E-07 2.12808E-16
4.57402E-07 1.86792E-16
4.87388E-07 1.64633E-16
5.18325E-07 1.45662E-16
5.50215E-07 1.29346E-16
5.83057E-07 1.15251E-16
6.16850E-07 1.03023E-16
6.51596E-07 9.23745E-17
6.87293E-07 8.30660E-17
7.23942E-07 7.49007E-17
7.61543E-07 6.77137E-17
1.18991E-06 2.78140E-17
1.71347E-06 1.34340E-17
2.33223E-06 7.25767E-18
3.04617E-06 4.25648E-18
3.85531E-06 2.65807E-18
4.75964E-06 1.74423E-18
5.75916E-06 1.19142E-18
6.85388E-06 8.41223E-19
8.04378E-06 6.10727E-19
9.32888E-06 4.54024E-19
1.07092E-05 3.44498E-19
1.21846E-05 2.66087E-19
1.37553E-05 2.08764E-19
1.54212E-05 1.66075E-19
1.71822E-05 1.33758E-19
1.90385E-05 1.08877E-19
2.09899E-05 8.96137E-20
2.30365E-05 7.44158E-20
2.51783E-05 6.22903E-20
2.74153E-05 5.25233E-20
2.97475E-05 4.45908E-20
3.21749E-05 3.81000E-20
3.46974E-05 3.27509E-20
3.73152E-05 2.83121E-20
4.00281E-05 2.46032E-20
4.28362E-05 2.14825E-20
4.57395E-05 1.88410E-20
4.87380E-05 1.65922E-20
5.18317E-05 1.46679E-20
5.50205E-05 1.30138E-20
5.83045E-05 1.15859E-20
6.16838E-05 1.03486E-20
6.51582E-05 9.27242E-21
6.87277E-05 8.33281E-21
7.23925E-05 7.50942E-21
7.61524E-05 6.86272E-21
9.21439E-05 4.67759E-21
1.09658E-04 3.29274E-21
1.28695E-04 2.38148E-21
1.49255E-04 1.76198E-21
1.71338E-04 1.32939E-21
1.94942E-04 1.02002E-21
2.20070E-04 7.94227E-22
2.46720E-04 6.26438E-22
2.74892E-04 4.99743E-22
3.04586E-04 4.02728E-22
3.35803E-04 3.27487E-22
3.68542E-04 2.68468E-22
4.02802E-04 2.21696E-22
4.38585E-04 1.84283E-22
4.75889E-04 1.54101E-22
5.14715E-04 1.29565E-22
5.55063E-04 1.09476E-22
5.96931E-04 9.29216E-23
6.40321E-04 7.91979E-23
6.85233E-04 6.77582E-23
7.31665E-04 5.81737E-23
7.79618E-04 5.01056E-23
8.29092E-04 4.32843E-23
8.80086E-04 3.74939E-23
9.32601E-04 3.25599E-23
9.86636E-04 2.83410E-23
1.04219E-03 2.47217E-23
1.09927E-03 2.16075E-23
1.15786E-03 1.89201E-23
1.21797E-03 1.65951E-23
1.27961E-03 1.45785E-23
1.34276E-03 1.28255E-23
1.40743E-03 1.12983E-23
1.47362E-03 9.96508E-24
1.54133E-03 8.79913E-24
1.61056E-03 7.77764E-24
1.68131E-03 6.88126E-24
1.75357E-03 6.09347E-24
1.82735E-03 5.40014E-24
1.90265E-03 4.78915E-24
1.97947E-03 4.25005E-24
2.05780E-03 3.77386E-24
2.13765E-03 3.35278E-24
2.21902E-03 2.98009E-24
2.30190E-03 2.64992E-24
2.38630E-03 2.35720E-24
2.47222E-03 2.09747E-24
2.55965E-03 1.86686E-24
2.64859E-03 1.66199E-24
2.73905E-03 1.47987E-24
2.83103E-03 1.31790E-24
2.92452E-03 1.17380E-24
3.01952E-03 1.04552E-24
3.11604E-03 9.31314E-25
3.21407E-03 8.29594E-25
3.31362E-03 7.38977E-25
3.41468E-03 6.58235E-25
3.51725E-03 5.86283E-25
3.62133E-03 5.22157E-25
3.72692E-03 4.65003E-25
3.83403E-03 4.14062E-25
3.94265E-03 3.68660E-25
4.05278E-03 3.28196E-25
4.16442E-03 2.92137E-25
4.27757E-03 2.60009E-25
4.39223E-03 2.31386E-25
4.50840E-03 2.05892E-25
4.62608E-03 1.83189E-25
4.74527E-03 1.62978E-25
4.86597E-03 1.44989E-25
4.98817E-03 1.28984E-25
5.11188E-03 1.14748E-25
5.23711E-03 1.02089E-25
5.36383E-03 9.08379E-26
5.49207E-03 8.08410E-26
5.62181E-03 7.19621E-26
5.75306E-03 6.40791E-26
5.88581E-03 5.70830E-26
6.02007E-03 5.08765E-26
6.15583E-03 4.53725E-26
6.29310E-03 4.04933E-26
6.43187E-03 3.61693E-26
6.57214E-03 3.23386E-26
6.71392E-03 2.89458E-26
6.85720E-03 2.59415E-26
7.00198E-03 2.32817E-26
7.14827E-03 2.09270E-26
7.29605E-03 1.88425E-26
7.44534E-03 1.69970E-26
7.59612E-03 1.53627E-26
7.97965E-03 1.20461E-26
8.37255E-03 9.58708E-27
8.77480E-03 7.75160E-27
9.18641E-03 6.36735E-27
9.60736E-03 5.30843E-27
1.00376E-02 4.48360E-27
1.04773E-02 3.82736E-27
1.09262E-02 3.29314E-27
1.13844E-02 2.84825E-27
1.18520E-02 2.46997E-27
1.23288E-02 2.14269E-27
1.28150E-02 1.85581E-27
1.33104E-02 1.60216E-27
1.38150E-02 1.37686E-27
1.43290E-02 1.17655E-27
1.48521E-02 9.98779E-28
1.53845E-02 8.41672E-28
1.59262E-02 7.03647E-28
1.64770E-02 5.83272E-28
1.70371E-02 4.79172E-28
1.76063E-02 3.89985E-28
1.81848E-02 3.14347E-28
1.87724E-02 2.50898E-28
1.93692E-02 1.98291E-28
1.99751E-02 1.55216E-28
2.05901E-02 1.20417E-28
2.12143E-02 9.27078E-29
2.18476E-02 7.09880E-29
2.24900E-02 5.42534E-29
2.31415E-02 4.16020E-29
2.38021E-02 3.22366E-29
2.44717E-02 2.54643E-29
2.51504E-02 2.06931E-29
2.58382E-02 1.74259E-29
2.65349E-02 1.52535E-29
2.72407E-02 1.38460E-29
2.79555E-02 1.29436E-29
2.86793E-02 1.23476E-29
2.94120E-02 1.19112E-29
3.01537E-02 1.15307E-29
3.09043E-02 1.11377E-29
3.16639E-02 1.06914E-29
3.24324E-02 1.01726E-29
3.32098E-02 9.57752E-30
3.39961E-02 8.91349E-30
3.47912E-02 8.19485E-30
3.55952E-02 7.43978E-30
3.64081E-02 6.66791E-30
3.72297E-02 5.89847E-30
3.80602E-02 5.14900E-30
3.88995E-02 4.43453E-30
3.97476E-02 3.76712E-30
4.06044E-02 3.15566E-30
4.14700E-02 2.60601E-30
4.23443E-02 2.12111E-30
4.32273E-02 1.70142E-30
4.41190E-02 1.34524E-30
4.50194E-02 1.04918E-30
4.59284E-02 8.08550E-31
4.68461E-02 6.17789E-31
4.87074E-02 3.61377E-31
5.06030E-02 2.30523E-31
5.25328E-02 1.79912E-31
5.44967E-02 1.72754E-31
5.64946E-02 1.82439E-31
5.85262E-02 1.92170E-31
6.05914E-02 1.93368E-31
6.26901E-02 1.83513E-31
6.48222E-02 1.63951E-31
6.69873E-02 1.37992E-31
6.91854E-02 1.09467E-31
7.14163E-02 8.17770E-32
7.36799E-02 5.74000E-32
7.59760E-02 3.77403E-32
7.83043E-02 2.32243E-32
8.06647E-02 1.35261E-32
8.30571E-02 7.84260E-33
8.54812E-02 5.15206E-33
8.79369E-02 4.42301E-33
9.04240E-02 4.75627E-33
9.29422E-02 5.46152E-33
9.54915E-02 6.07864E-33
9.80716E-02 6.35921E-33
1.00682E-01 6.22427E-33
1.03323E-01 5.71246E-33
1.05995E-01 4.92925E-33
1.08696E-01 4.00443E-33
1.11427E-01 3.06093E-33
1.14188E-01 2.19592E-33
1.16978E-01 1.47247E-33
1.19797E-01 9.19586E-34
1.22645E-01 5.37551E-34
1.25522E-01 3.06105E-34
1.28428E-01 1.93164E-34
1.31361E-01 1.62630E-34
1.34323E-01 1.80392E-34
1.37313E-01 2.18215E-34
1.40330E-01 2.55607E-34
1.43375E-01 2.80038E-34
1.46447E-01 2.85990E-34
1.49545E-01 2.73342E-34
1.52671E-01 2.45526E-34
1.55823E-01 2.07786E-34
1.59001E-01 1.65749E-34
1.62205E-01 1.24403E-34
1.65435E-01 8.75102E-35
1.68690E-01 5.73799E-35
1.71970E-01 3.49338E-35
1.75276E-01 1.99539E-35
1.78606E-01 1.14207E-35
1.81961E-01 7.86707E-36
1.85340E-01 7.69206E-36
1.88743E-01 9.40175E-36
1.92169E-01 1.17667E-35
1.95619E-01 1.38981E-35
1.99092E-01 1.52578E-35
2.02589E-01 1.56181E-35
2.06107E-01 1.49939E-35
2.09649E-01 1.35632E-35
2.13212E-01 1.15898E-35
2.16797E-01 9.35904E-36
2.20404E-01 7.12892E-36
2.24032E-01 5.10117E-36
2.27680E-01 3.40791E-36
2.31350E-01 2.11195E-36
2.35040E-01 1.21661E-36
2.38751E-01 6.80554E-37
2.42481E-01 4.34552E-37
2.46231E-01 3.97185E-37
2.50000E-01 4.87812E-37
2.53788E-01 6.35919E-37
2.57595E-01 7.86665E-37
2.61421E-01 9.02869E-37
2.65264E-01 9.64416E-37
2.69126E-01 9.65697E-37
2.73005E-01 9.11923E-37
2.76901E-01 8.15289E-37
2.80814E-01 6.91296E-37
2.84744E-01 5.55727E-37
2.88691E-01 4.22499E-37
2.92653E-01 3.02319E-37
2.96632E-01 2.02149E-37
3.00625E-01 1.25284E-37
3.04634E-01 7.18625E-38
3.08658E-01 3.96159E-38
3.12697E-01 2.47289E-38
3.16749E-01 2.26348E-38
3.20816E-01 2.87161E-38
3.24896E-01 3.88195E-38
3.28990E-01 4.95840E-38
3.33097E-01 5.86074E-38
3.37216E-01 6.44246E-38
3.41348E-01 6.64456E-38
3.45492E-01 6.47578E-38
3.49647E-01 5.99218E-38
3.53814E-01 5.27931E-38
3.57992E-01 4.43138E-38
3.62181E-01 3.53998E-38
3.66381E-01 2.68274E-38
3.70590E-01 1.00000E-45
3.74810E-01 1.00000E-45
3.79039E-01 1.00000E-45
3.83277E-01 1.00000E-45
3.87524E-01 1.00000E-45
3.91780E-01 1.00000E-45
3.96044E-01 1.00000E-45
4.00316E-01 1.00000E-45
4.04596E-01 1.00000E-45
4.08882E-01 1.00000E-45
4.13176E-01 1.00000E-45
4.17476E-01 1.00000E-45
4.21783E-01 1.00000E-45
4.26095E-01 1.00000E-45
4.30413E-01 1.00000E-45
4.34737E-01 1.00000E-45
4.39065E-01 1.00000E-45
4.43398E-01 1.00000E-45
4.47736E-01 1.00000E-45
4.52077E-01 1.00000E-45
4.56422E-01 1.00000E-45
4.60770E-01 1.00000E-45
4.65122E-01 1.00000E-45
4.69476E-01 1.00000E-45
4.73832E-01 1.00000E-45
4.78190E-01 1.00000E-45
4.82550E-01 1.00000E-45
4.86912E-01 1.00000E-45
4.91274E-01 1.00000E-45
4.95637E-01 1.00000E-45
5.00000E-01 1.00000E-45
5.04363E-01 1.00000E-45
5.08726E-01 1.00000E-45
5.13088E-01 1.00000E-45
5.17450E-01 1.00000E-45
5.21810E-01 1.00000E-45
5.26168E-01 1.00000E-45
5.30524E-01 1.00000E-45
5.34878E-01 1.00000E-45
5.39230E-01 1.00000E-45
5.43578E-01 1.00000E-45
5.47923E-01 1.00000E-45
5.52264E-01 1.00000E-45
5.56602E-01 1.00000E-45
5.60935E-01 1.00000E-45
5.65263E-01 1.00000E-45
5.69587E-01 1.00000E-45
5.73905E-01 1.00000E-45
5.78217E-01 1.00000E-45
5.82524E-01 1.00000E-45
5.86824E-01 1.00000E-45
5.91118E-01 1.00000E-45
5.95404E-01 1.00000E-45
5.99684E-01 1.00000E-45
6.03956E-01 1.00000E-45
6.08220E-01 1.00000E-45
6.12476E-01 1.00000E-45
6.16723E-01 1.00000E-45
6.20961E-01 1.00000E-45
6.25190E-01 1.00000E-45
6.29410E-01 1.00000E-45
6.33619E-01 1.00000E-45
6.37819E-01 1.00000E-45
6.42008E-01 1.00000E-45
6.46186E-01 1.00000E-45
6.50353E-01 1.00000E-45
6.54508E-01 1.00000E-45
6.58652E-01 1.00000E-45
6.62784E-01 1.00000E-45
6.66903E-01 1.00000E-45
6.71010E-01 1.00000E-45
6.75104E-01 1.00000E-45
6.79184E-01 1.00000E-45
6.83251E-01 1.00000E-45
6.87303E-01 1.00000E-45
6.91342E-01 1.00000E-45
6.95366E-01 1.00000E-45
6.99375E-01 1.00000E-45
7.03368E-01 1.00000E-45
7.07347E-01 1.00000E-45
7.11309E-01 1.00000E-45
7.15256E-01 1.00000E-45
7.19186E-01 1.00000E-45
7.23099E-01 1.00000E-45
7.26995E-01 1.00000E-45
7.30874E-01 1.00000E-45
7.34736E-01 1.00000E-45
7.38579E-01 1.00000E-45
7.42405E-01 1.00000E-45
7.46212E-01 1.00000E-45
7.50000E-01 1.00000E-45
7.53769E-01 1.00000E-45
7.57519E-01 1.00000E-45
7.61249E-01 1.00000E-45
7.64960E-01 1.00000E-45
7.68650E-01 1.00000E-45
7.72320E-01 1.00000E-45
7.75968E-01 1.00000E-45
7.79596E-01 1.00000E-45
7.83203E-01 1.00000E-45
7.86788E-01 1.00000E-45
7.90351E-01 1.00000E-45
7.93893E-01 1.00000E-45
7.97411E-01 1.00000E-45
8.00908E-01 1.00000E-45
8.04381E-01 1.00000E-45
8.07831E-01 1.00000E-45
8.11257E-01 1.00000E-45
8.14660E-01 1.00000E-45
8.18039E-01 1.00000E-45
8.21394E-01 1.00000E-45
8.24724E-01 1.00000E-45
8.28030E-01 1.00000E-45
8.31310E-01 1.00000E-45
8.34565E-01 1.00000E-45
8.37795E-01 1.00000E-45
8.40999E-01 1.00000E-45
8.44177E-01 1.00000E-45
8.47329E-01 1.00000E-45
8.50455E-01 1.00000E-45
8.53553E-01 1.00000E-45
8.56625E-01 1.00000E-45
8.59670E-01 1.00000E-45
8.62687E-01 1.00000E-45
8.65677E-01 1.00000E-45
8.68639E-01 1.00000E-45
8.71572E-01 1.00000E-45
8.74478E-01 1.00000E-45
8.77355E-01 1.00000E-45
8.80203E-01 1.00000E-45
8.83022E-01 1.00000E-45
8.85812E-01 1.00000E-45
8.88573E-01 1.00000E-45
8.91304E-01 1.00000E-45
8.94005E-01 1.00000E-45
8.96677E-01 1.00000E-45
8.99318E-01 1.00000E-45
9.01928E-01 1.00000E-45
9.04508E-01 1.00000E-45
9.07058E-01 1.00000E-45
9.09576E-01 1.00000E-45
9.12063E-01 1.00000E-45
9.14519E-01 1.00000E-45
9.16943E-01 1.00000E-45
9.19335E-01 1.00000E-45
9.21696E-01 1.00000E-45
9.24024E-01 1.00000E-45
9.26320E-01 1.00000E-45
9.28584E-01 1.00000E-45
9.30815E-01 1.00000E-45
9.33013E-01 1.00000E-45
9.35178E-01 1.00000E-45
9.37310E-01 1.00000E-45
9.39409E-01 1.00000E-45
9.41474E-01 1.00000E-45
9.43505E-01 1.00000E-45
9.45503E-01 1.00000E-45
9.47467E-01 1.00000E-45
9.49397E-01 1.00000E-45
9.51293E-01 1.00000E-45
9.53154E-01 1.00000E-45
9.54981E-01 1.00000E-45
9.56773E-01 1.00000E-45
9.58530E-01 1.00000E-45
9.60252E-01 1.00000E-45
9.61940E-01 1.00000E-45
9.63592E-01 1.00000E-45
9.65209E-01 1.00000E-45
9.66790E-01 1.00000E-45
9.68336E-01 1.00000E-45
9.69846E-01 1.00000E-45
9.71321E-01 1.00000E-45
9.72759E-01 1.00000E-45
9.74162E-01 1.00000E-45
9.75528E-01 1.00000E-45
9.76858E-01 1.00000E-45
9.78152E-01 1.00000E-45
9.79410E-01 1.00000E-45
9.80631E-01 1.00000E-45
9.81815E-01 1.00000E-45
9.82963E-01 1.00000E-45
9.84074E-01 1.00000E-45
9.85148E-01 1.00000E-45
9.86185E-01 1.00000E-45
9.87185E-01 1.00000E-45
9.88148E-01 1.00000E-45
9.89074E-01 1.00000E-45
9.89962E-01 1.00000E-45
9.90814E-01 1.00000E-45
9.91627E-01 1.00000E-45
9.92404E-01 1.00000E-45
9.93143E-01 1.00000E-45
9.93844E-01 1.00000E-45
9.94508E-01 1.00000E-45
9.95134E-01 1.00000E-45
9.95722E-01 1.00000E-45
9.96273E-01 1.00000E-45
9.96786E-01 1.00000E-45
9.97261E-01 1.00000E-45
9.97698E-01 1.00000E-45
9.98097E-01 1.00000E-45
9.98459E-01 1.00000E-45
9.98782E-01 1.00000E-45
9.99067E-01 1.00000E-45
9.99315E-01 1.00000E-45
9.99524E-01 1.00000E-45
9.99695E-01 1.00000E-45
9.99829E-01 1.00000E-45
9.99924E-01 1.00000E-45
9.99981E-01 1.00000E-45
1.00000E+00 1.00000E-45
