 #
 # Subroutine ELSEPA. Elastic scattering of electrons and positrons
 #                    by neutral atoms and positive ions
 #
 # Projectile: positron
 # Kinetic energy = 8.00000E+07 eV = 2.93995E+06 a.u.
 #
 # WARNING: High-energy factorization with free-atom DF screening.
 #          Absorption, polarization and exchange corrections are
 #          switched off.
 #          Phase shifts are calculated for the bare nucleus.
 #          Scattering amplitudes are not evaluated.
 #
 # Element: Yb,  Z =  70,  atomic weight = 1.73040E+02 g/mol
 #
 # Nuclear model: Fermi distribution
 #                Average radius = 5.96256E-13 cm
 #                Skin thickness = 5.46000E-14 cm
 #
 # Number of electrons = 70
 #
 # Total elastic cross section = 6.98866E-18 cm**2 = 2.49570E-01 a0**2
 # 1st transport cross section = 1.37991E-24 cm**2 = 4.92774E-08 a0**2
 # 2nd transport cross section = 4.08536E-24 cm**2 = 1.45891E-07 a0**2
 #
 #
 # Differential cross section:                       MU=(1-COS(THETA))/2
 #
 #  THETA        MU          DCS          DCS        Sherman      error
 #  (deg)                 (cm**2/sr)   (a0**2/sr)    function
 #----------------------------------------------------------------------
0.00000E+00 4.32724E-10
7.61557E-13 4.31515E-10
1.18994E-12 4.30839E-10
1.71346E-12 4.30016E-10
2.33225E-12 4.29047E-10
3.04617E-12 4.27933E-10
3.85530E-12 4.26678E-10
4.75964E-12 4.25281E-10
5.75917E-12 4.23747E-10
6.85391E-12 4.22078E-10
8.04379E-12 4.20276E-10
9.32893E-12 4.18345E-10
1.07092E-11 4.16288E-10
1.21847E-11 4.14108E-10
1.37554E-11 4.11809E-10
1.54213E-11 4.09394E-10
1.71823E-11 4.06867E-10
1.90386E-11 4.04233E-10
2.09900E-11 4.01495E-10
2.30367E-11 3.98658E-10
2.51785E-11 3.95726E-10
2.74156E-11 3.92702E-10
2.97478E-11 3.89593E-10
3.21752E-11 3.86401E-10
3.46979E-11 3.83132E-10
3.73157E-11 3.79804E-10
4.00286E-11 3.76408E-10
4.28368E-11 3.72942E-10
4.57402E-11 3.69411E-10
4.87388E-11 3.65817E-10
5.18325E-11 3.62167E-10
5.50215E-11 3.58463E-10
5.83057E-11 3.54758E-10
6.16850E-11 3.51012E-10
6.51595E-11 3.47225E-10
6.87293E-11 3.43401E-10
7.23943E-11 3.39543E-10
7.61544E-11 3.35654E-10
1.18991E-10 2.96645E-10
1.71347E-10 2.59035E-10
2.33223E-10 2.24894E-10
3.04617E-10 1.95072E-10
3.85531E-10 1.69683E-10
4.75965E-10 1.48400E-10
5.75917E-10 1.30633E-10
6.85389E-10 1.15828E-10
8.04380E-10 1.03399E-10
9.32891E-10 9.28962E-11
1.07092E-09 8.39322E-11
1.21847E-09 7.61875E-11
1.37554E-09 6.94508E-11
1.54213E-09 6.35087E-11
1.71823E-09 5.82497E-11
1.90386E-09 5.35393E-11
2.09900E-09 4.93123E-11
2.30367E-09 4.54887E-11
2.51785E-09 4.20228E-11
2.74156E-09 3.88694E-11
2.97478E-09 3.59909E-11
3.21752E-09 3.33638E-11
3.46978E-09 3.09541E-11
3.73156E-09 2.85801E-11
4.00286E-09 2.64203E-11
4.28368E-09 2.45154E-11
4.57402E-09 2.28287E-11
4.87388E-09 2.13299E-11
5.18326E-09 1.99933E-11
5.50215E-09 1.87973E-11
5.83057E-09 1.74966E-11
6.16850E-09 1.63150E-11
6.51596E-09 1.52551E-11
6.87293E-09 1.43017E-11
7.23942E-09 1.34415E-11
7.61544E-09 1.26635E-11
1.18991E-08 7.06349E-12
1.71347E-08 4.23679E-12
2.33223E-08 2.67137E-12
3.04617E-08 1.75256E-12
3.85531E-08 1.18919E-12
4.75965E-08 8.31234E-13
5.75917E-08 5.97986E-13
6.85389E-08 4.41246E-13
8.04380E-08 3.33441E-13
9.32891E-08 2.57137E-13
1.07092E-07 2.01783E-13
1.21847E-07 1.60838E-13
1.37554E-07 1.30008E-13
1.54213E-07 1.06271E-13
1.71823E-07 8.77434E-14
1.90386E-07 7.30596E-14
2.09900E-07 6.13211E-14
2.30367E-07 5.18412E-14
2.51785E-07 4.41225E-14
2.74156E-07 3.77833E-14
2.97478E-07 3.25342E-14
3.21752E-07 2.81602E-14
3.46978E-07 2.44905E-14
3.73156E-07 2.13841E-14
4.00286E-07 1.87637E-14
4.28368E-07 1.65469E-14
4.57402E-07 1.46272E-14
4.87388E-07 1.29869E-14
5.18325E-07 1.15723E-14
5.50215E-07 1.03385E-14
5.83057E-07 9.26986E-15
6.16850E-07 8.33413E-15
6.51596E-07 7.51276E-15
6.87293E-07 6.79307E-15
7.23942E-07 6.15461E-15
7.61543E-07 5.59044E-15
1.18991E-06 2.38602E-15
1.71347E-06 1.18392E-15
2.33223E-06 6.52221E-16
3.04617E-06 3.88108E-16
3.85531E-06 2.45025E-16
4.75964E-06 1.62126E-16
5.75916E-06 1.11470E-16
6.85388E-06 7.91249E-17
8.04378E-06 5.76985E-17
9.32888E-06 4.30561E-17
1.07092E-05 3.27771E-17
1.21846E-05 2.53903E-17
1.37553E-05 1.99722E-17
1.54212E-05 1.59254E-17
1.71822E-05 1.28536E-17
1.90385E-05 1.04828E-17
2.09899E-05 8.64326E-18
2.30365E-05 7.18895E-18
2.51783E-05 6.02642E-18
2.74153E-05 5.08836E-18
2.97475E-05 4.32524E-18
3.21749E-05 3.69984E-18
3.46974E-05 3.18373E-18
3.73152E-05 2.75485E-18
4.00281E-05 2.39606E-18
4.28362E-05 2.09391E-18
4.57395E-05 1.83787E-18
4.87380E-05 1.61969E-18
5.18317E-05 1.43280E-18
5.50205E-05 1.27202E-18
5.83045E-05 1.13312E-18
6.16838E-05 1.01266E-18
6.51582E-05 9.07804E-19
6.87277E-05 8.16199E-19
7.23925E-05 7.35872E-19
7.61524E-05 6.65290E-19
9.21439E-05 4.54743E-19
1.09658E-04 3.21203E-19
1.28695E-04 2.33262E-19
1.49255E-04 1.73424E-19
1.71338E-04 1.31593E-19
1.94942E-04 1.01633E-19
2.20070E-04 7.97279E-20
2.46720E-04 6.34136E-20
2.74892E-04 5.10622E-20
3.04586E-04 4.15741E-20
3.35803E-04 3.41884E-20
3.68542E-04 2.83705E-20
4.02802E-04 2.37378E-20
4.38585E-04 2.00121E-20
4.75889E-04 1.69885E-20
5.14715E-04 1.45143E-20
5.55063E-04 1.24739E-20
5.96931E-04 1.07793E-20
6.40321E-04 9.36248E-21
6.85233E-04 8.17062E-21
7.31665E-04 7.16223E-21
7.79618E-04 6.30444E-21
8.29092E-04 5.57109E-21
8.80086E-04 4.94114E-21
9.32601E-04 4.39761E-21
9.86636E-04 3.92664E-21
1.04219E-03 3.51695E-21
1.09927E-03 3.15921E-21
1.15786E-03 2.84572E-21
1.21797E-03 2.57008E-21
1.27961E-03 2.32694E-21
1.34276E-03 2.11181E-21
1.40743E-03 1.92093E-21
1.47362E-03 1.75107E-21
1.54133E-03 1.59953E-21
1.61056E-03 1.46399E-21
1.68131E-03 1.34246E-21
1.75357E-03 1.23325E-21
1.82735E-03 1.13489E-21
1.90265E-03 1.04611E-21
1.97947E-03 9.65820E-22
2.05780E-03 8.93059E-22
2.13765E-03 8.27000E-22
2.21902E-03 7.66915E-22
2.30190E-03 7.12170E-22
2.38630E-03 6.62205E-22
2.47222E-03 6.16530E-22
2.55965E-03 5.74709E-22
2.64859E-03 5.36361E-22
2.73905E-03 5.01146E-22
2.83103E-03 4.68761E-22
2.92452E-03 4.38939E-22
3.01952E-03 4.11441E-22
3.11604E-03 3.86053E-22
3.21407E-03 3.62584E-22
3.31362E-03 3.40863E-22
3.41468E-03 3.20736E-22
3.51725E-03 3.02066E-22
3.62133E-03 2.84728E-22
3.72692E-03 2.68611E-22
3.83403E-03 2.53612E-22
3.94265E-03 2.39639E-22
4.05278E-03 2.26606E-22
4.16442E-03 2.14442E-22
4.27757E-03 2.03079E-22
4.39223E-03 1.92453E-22
4.50840E-03 1.82509E-22
4.62608E-03 1.73195E-22
4.74527E-03 1.64464E-22
4.86597E-03 1.56272E-22
4.98817E-03 1.48580E-22
5.11188E-03 1.41352E-22
5.23711E-03 1.34555E-22
5.36383E-03 1.28159E-22
5.49207E-03 1.22136E-22
5.62181E-03 1.16459E-22
5.75306E-03 1.11106E-22
5.88581E-03 1.06055E-22
6.02007E-03 1.01284E-22
6.15583E-03 9.67772E-23
6.29310E-03 9.25158E-23
6.43187E-03 8.84843E-23
6.57214E-03 8.46680E-23
6.71392E-03 8.10534E-23
6.85720E-03 7.76279E-23
7.00198E-03 7.43797E-23
7.14827E-03 7.12979E-23
7.29605E-03 6.83726E-23
7.44534E-03 6.55942E-23
7.59612E-03 6.29541E-23
7.97965E-03 5.69067E-23
8.37255E-03 5.15610E-23
8.77480E-03 4.68220E-23
9.18641E-03 4.26093E-23
9.60736E-03 3.88544E-23
1.00376E-02 3.54993E-23
1.04773E-02 3.24942E-23
1.09262E-02 2.97964E-23
1.13844E-02 2.73690E-23
1.18520E-02 2.51805E-23
1.23288E-02 2.32033E-23
1.28150E-02 2.14135E-23
1.33104E-02 1.97903E-23
1.38150E-02 1.83156E-23
1.43290E-02 1.69734E-23
1.48521E-02 1.57499E-23
1.53845E-02 1.46327E-23
1.59262E-02 1.36110E-23
1.64770E-02 1.26753E-23
1.70371E-02 1.18171E-23
1.76063E-02 1.10288E-23
1.81848E-02 1.03038E-23
1.87724E-02 9.63619E-24
1.93692E-02 9.02059E-24
1.99751E-02 8.45227E-24
2.05901E-02 7.92698E-24
2.12143E-02 7.44091E-24
2.18476E-02 6.99063E-24
2.24900E-02 6.57304E-24
2.31415E-02 6.18539E-24
2.38021E-02 5.82514E-24
2.44717E-02 5.49005E-24
2.51504E-02 5.17804E-24
2.58382E-02 4.88727E-24
2.65349E-02 4.61603E-24
2.72407E-02 4.36280E-24
2.79555E-02 4.12618E-24
2.86793E-02 3.90489E-24
2.94120E-02 3.69777E-24
3.01537E-02 3.50376E-24
3.09043E-02 3.32190E-24
3.16639E-02 3.15129E-24
3.24324E-02 2.99112E-24
3.32098E-02 2.84064E-24
3.39961E-02 2.69917E-24
3.47912E-02 2.56608E-24
3.55952E-02 2.44080E-24
3.64081E-02 2.32278E-24
3.72297E-02 2.21153E-24
3.80602E-02 2.10661E-24
3.88995E-02 2.00759E-24
3.97476E-02 1.91408E-24
4.06044E-02 1.82573E-24
4.14700E-02 1.74221E-24
4.23443E-02 1.66321E-24
4.32273E-02 1.58844E-24
4.41190E-02 1.51765E-24
4.50194E-02 1.45057E-24
4.59284E-02 1.38700E-24
4.68461E-02 1.32671E-24
4.87074E-02 1.21521E-24
5.06030E-02 1.11465E-24
5.25328E-02 1.02380E-24
5.44967E-02 9.41574E-25
5.64946E-02 8.67033E-25
5.85262E-02 7.99351E-25
6.05914E-02 7.37802E-25
6.26901E-02 6.81747E-25
6.48222E-02 6.30625E-25
6.69873E-02 5.83936E-25
6.91854E-02 5.41240E-25
7.14163E-02 5.02146E-25
7.36799E-02 4.66306E-25
7.59760E-02 4.33410E-25
7.83043E-02 4.03181E-25
8.06647E-02 3.75372E-25
8.30571E-02 3.49762E-25
8.54812E-02 3.26153E-25
8.79369E-02 3.04367E-25
9.04240E-02 2.84242E-25
9.29422E-02 2.65636E-25
9.54915E-02 2.48416E-25
9.80716E-02 2.32467E-25
1.00682E-01 2.17682E-25
1.03323E-01 2.03964E-25
1.05995E-01 1.91225E-25
1.08696E-01 1.79388E-25
1.11427E-01 1.68379E-25
1.14188E-01 1.58133E-25
1.16978E-01 1.48590E-25
1.19797E-01 1.39696E-25
1.22645E-01 1.31401E-25
1.25522E-01 1.23659E-25
1.28428E-01 1.16429E-25
1.31361E-01 1.09674E-25
1.34323E-01 1.03357E-25
1.37313E-01 9.74469E-26
1.40330E-01 9.19144E-26
1.43375E-01 8.67325E-26
1.46447E-01 8.18761E-26
1.49545E-01 7.73225E-26
1.52671E-01 7.30505E-26
1.55823E-01 6.90407E-26
1.59001E-01 6.52750E-26
1.62205E-01 6.17370E-26
1.65435E-01 5.84113E-26
1.68690E-01 5.52837E-26
1.71970E-01 5.23412E-26
1.75276E-01 4.95714E-26
1.78606E-01 4.69633E-26
1.81961E-01 4.45062E-26
1.85340E-01 4.21906E-26
1.88743E-01 4.00074E-26
1.92169E-01 3.79482E-26
1.95619E-01 3.60053E-26
1.99092E-01 3.41713E-26
2.02589E-01 3.24397E-26
2.06107E-01 3.08040E-26
2.09649E-01 2.92584E-26
2.13212E-01 2.77975E-26
2.16797E-01 2.64161E-26
2.20404E-01 2.51095E-26
2.24032E-01 2.38733E-26
2.27680E-01 2.27033E-26
2.31350E-01 2.15956E-26
2.35040E-01 2.05466E-26
2.38751E-01 1.95529E-26
2.42481E-01 1.86113E-26
2.46231E-01 1.77188E-26
2.50000E-01 1.68726E-26
2.53788E-01 1.60701E-26
2.57595E-01 1.53089E-26
2.61421E-01 1.45866E-26
2.65264E-01 1.39011E-26
2.69126E-01 1.32503E-26
2.73005E-01 1.26323E-26
2.76901E-01 1.20453E-26
2.80814E-01 1.14877E-26
2.84744E-01 1.09579E-26
2.88691E-01 1.04543E-26
2.92653E-01 9.97554E-27
2.96632E-01 9.52031E-27
3.00625E-01 9.08736E-27
3.04634E-01 8.67550E-27
3.08658E-01 8.28363E-27
3.12697E-01 7.91070E-27
3.16749E-01 7.55572E-27
3.20816E-01 7.21777E-27
3.24896E-01 6.89597E-27
3.28990E-01 6.58948E-27
3.33097E-01 6.29753E-27
3.37216E-01 6.01937E-27
3.41348E-01 5.75430E-27
3.45492E-01 5.50167E-27
3.49647E-01 5.26084E-27
3.53814E-01 5.03123E-27
3.57992E-01 4.81228E-27
3.62181E-01 4.60345E-27
3.66381E-01 4.40425E-27
3.70590E-01 4.21420E-27
3.74810E-01 4.03286E-27
3.79039E-01 3.85979E-27
3.83277E-01 3.69460E-27
3.87524E-01 3.53690E-27
3.91780E-01 3.38633E-27
3.96044E-01 3.24255E-27
4.00316E-01 3.10522E-27
4.04596E-01 2.97405E-27
4.08882E-01 2.84874E-27
4.13176E-01 2.72901E-27
4.17476E-01 2.61459E-27
4.21783E-01 2.50524E-27
4.26095E-01 2.40071E-27
4.30413E-01 2.30079E-27
4.34737E-01 2.20525E-27
4.39065E-01 2.11390E-27
4.43398E-01 2.02653E-27
4.47736E-01 1.94297E-27
4.52077E-01 1.86303E-27
4.56422E-01 1.78656E-27
4.60770E-01 1.71338E-27
4.65122E-01 1.64336E-27
4.69476E-01 1.57635E-27
4.73832E-01 1.51221E-27
4.78190E-01 1.45081E-27
4.82550E-01 1.39202E-27
4.86912E-01 1.33574E-27
4.91274E-01 1.28185E-27
4.95637E-01 1.23023E-27
5.00000E-01 1.18080E-27
5.04363E-01 1.13344E-27
5.08726E-01 1.08808E-27
5.13088E-01 1.04461E-27
5.17450E-01 1.00297E-27
5.21810E-01 9.63057E-28
5.26168E-01 9.24809E-28
5.30524E-01 8.88149E-28
5.34878E-01 8.53008E-28
5.39230E-01 8.19319E-28
5.43578E-01 7.87019E-28
5.47923E-01 7.56049E-28
5.52264E-01 7.26350E-28
5.56602E-01 6.97868E-28
5.60935E-01 6.70550E-28
5.65263E-01 6.44346E-28
5.69587E-01 6.19209E-28
5.73905E-01 5.95093E-28
5.78217E-01 5.71955E-28
5.82524E-01 5.49752E-28
5.86824E-01 5.28446E-28
5.91118E-01 5.07997E-28
5.95404E-01 4.88371E-28
5.99684E-01 4.69532E-28
6.03956E-01 4.51447E-28
6.08220E-01 4.34084E-28
6.12476E-01 4.17414E-28
6.16723E-01 4.01407E-28
6.20961E-01 3.86036E-28
6.25190E-01 3.71274E-28
6.29410E-01 3.57096E-28
6.33619E-01 3.43478E-28
6.37819E-01 3.30397E-28
6.42008E-01 3.17830E-28
6.46186E-01 3.05756E-28
6.50353E-01 2.94156E-28
6.54508E-01 2.83009E-28
6.58652E-01 2.72297E-28
6.62784E-01 2.62003E-28
6.66903E-01 2.52109E-28
6.71010E-01 2.42599E-28
6.75104E-01 2.33458E-28
6.79184E-01 2.24670E-28
6.83251E-01 2.16222E-28
6.87303E-01 2.08099E-28
6.91342E-01 2.00288E-28
6.95366E-01 1.92778E-28
6.99375E-01 1.85556E-28
7.03368E-01 1.78610E-28
7.07347E-01 1.71929E-28
7.11309E-01 1.65503E-28
7.15256E-01 1.59322E-28
7.19186E-01 1.53376E-28
7.23099E-01 1.47655E-28
7.26995E-01 1.42152E-28
7.30874E-01 1.36856E-28
7.34736E-01 1.31760E-28
7.38579E-01 1.26856E-28
7.42405E-01 1.22137E-28
7.46212E-01 1.17595E-28
7.50000E-01 1.13224E-28
7.53769E-01 1.09016E-28
7.57519E-01 1.04966E-28
7.61249E-01 1.01067E-28
7.64960E-01 9.73127E-29
7.68650E-01 9.36985E-29
7.72320E-01 9.02187E-29
7.75968E-01 8.68679E-29
7.79596E-01 8.36413E-29
7.83203E-01 8.05340E-29
7.86788E-01 7.75415E-29
7.90351E-01 7.46593E-29
7.93893E-01 7.18833E-29
7.97411E-01 6.92094E-29
8.00908E-01 6.66336E-29
8.04381E-01 6.41523E-29
8.07831E-01 6.17618E-29
8.11257E-01 5.94588E-29
8.14660E-01 5.72398E-29
8.18039E-01 5.51018E-29
8.21394E-01 5.30416E-29
8.24724E-01 5.10563E-29
8.28030E-01 4.91431E-29
8.31310E-01 4.72994E-29
8.34565E-01 4.55224E-29
8.37795E-01 4.38097E-29
8.40999E-01 4.21589E-29
8.44177E-01 4.05677E-29
8.47329E-01 3.90339E-29
8.50455E-01 3.75552E-29
8.53553E-01 3.61298E-29
8.56625E-01 3.47556E-29
8.59670E-01 3.34307E-29
8.62687E-01 3.21533E-29
8.65677E-01 3.09217E-29
8.68639E-01 2.97341E-29
8.71572E-01 2.85890E-29
8.74478E-01 2.74848E-29
8.77355E-01 2.64200E-29
8.80203E-01 2.53931E-29
8.83022E-01 2.44029E-29
8.85812E-01 2.34479E-29
8.88573E-01 2.25269E-29
8.91304E-01 2.16386E-29
8.94005E-01 2.07819E-29
8.96677E-01 1.99556E-29
8.99318E-01 1.91586E-29
9.01928E-01 1.83900E-29
9.04508E-01 1.76486E-29
9.07058E-01 1.69335E-29
9.09576E-01 1.62437E-29
9.12063E-01 1.55785E-29
9.14519E-01 1.49368E-29
9.16943E-01 1.43178E-29
9.19335E-01 1.37208E-29
9.21696E-01 1.31450E-29
9.24024E-01 1.25897E-29
9.26320E-01 1.20540E-29
9.28584E-01 1.15374E-29
9.30815E-01 1.10392E-29
9.33013E-01 1.05587E-29
9.35178E-01 1.00954E-29
9.37310E-01 9.64853E-30
9.39409E-01 9.21768E-30
9.41474E-01 8.80225E-30
9.43505E-01 8.40172E-30
9.45503E-01 8.01559E-30
9.47467E-01 7.64336E-30
9.49397E-01 7.28459E-30
9.51293E-01 6.93880E-30
9.53154E-01 6.60558E-30
9.54981E-01 6.28451E-30
9.56773E-01 5.97519E-30
9.58530E-01 5.67723E-30
9.60252E-01 5.39027E-30
9.61940E-01 5.11395E-30
9.63592E-01 4.84793E-30
9.65209E-01 4.59188E-30
9.66790E-01 4.34549E-30
9.68336E-01 4.10846E-30
9.69846E-01 3.88049E-30
9.71321E-01 3.66132E-30
9.72759E-01 3.45066E-30
9.74162E-01 3.24827E-30
9.75528E-01 3.05389E-30
9.76858E-01 2.86730E-30
9.78152E-01 2.68826E-30
9.79410E-01 2.51657E-30
9.80631E-01 2.35200E-30
9.81815E-01 2.19437E-30
9.82963E-01 2.04349E-30
9.84074E-01 1.89917E-30
9.85148E-01 1.76124E-30
9.86185E-01 1.62953E-30
9.87185E-01 1.50389E-30
9.88148E-01 1.38417E-30
9.89074E-01 1.27022E-30
9.89962E-01 1.16191E-30
9.90814E-01 1.05911E-30
9.91627E-01 9.61693E-31
9.92404E-01 8.69550E-31
9.93143E-01 7.82569E-31
9.93844E-01 7.00646E-31
9.94508E-01 6.23685E-31
9.95134E-01 5.51595E-31
9.95722E-01 4.84290E-31
9.96273E-01 4.21690E-31
9.96786E-01 3.63723E-31
9.97261E-01 3.10319E-31
9.97698E-01 2.61415E-31
9.98097E-01 2.16955E-31
9.98459E-01 1.76885E-31
9.98782E-01 1.41158E-31
9.99067E-01 1.09732E-31
9.99315E-01 8.25712E-32
9.99524E-01 5.96425E-32
9.99695E-01 4.09192E-32
9.99829E-01 2.63795E-32
9.99924E-01 1.60061E-32
9.99981E-01 9.78696E-33
1.00000E+00 7.71477E-33
