 #
 # Subroutine ELSEPA. Elastic scattering of electrons and positrons
 #                    by neutral atoms and positive ions
 #
 # Projectile: positron
 # Kinetic energy = 9.00000E+06 eV = 3.30744E+05 a.u.
 #
 # WARNING: High-energy factorization with free-atom DF screening.
 #          Absorption, polarization and exchange corrections are
 #          switched off.
 #          Phase shifts are calculated for the bare nucleus.
 #          Scattering amplitudes are not evaluated.
 #
 # Element: Yb,  Z =  70,  atomic weight = 1.73040E+02 g/mol
 #
 # Nuclear model: Fermi distribution
 #                Average radius = 5.96256E-13 cm
 #                Skin thickness = 5.46000E-14 cm
 #
 # Number of electrons = 70
 #
 # Total elastic cross section = 7.00482E-18 cm**2 = 2.50147E-01 a0**2
 # 1st transport cross section = 7.39150E-23 cm**2 = 2.63955E-06 a0**2
 # 2nd transport cross section = 2.13705E-22 cm**2 = 7.63153E-06 a0**2
 #
 #
 # Differential cross section:                       MU=(1-COS(THETA))/2
 #
 #  THETA        MU          DCS          DCS        Sherman      error
 #  (deg)                 (cm**2/sr)   (a0**2/sr)    function
 #----------------------------------------------------------------------
0.00000E+00 6.03883E-12
7.61557E-13 6.03858E-12
1.18994E-12 6.03844E-12
1.71346E-12 6.03828E-12
2.33225E-12 6.03809E-12
3.04617E-12 6.03786E-12
3.85530E-12 6.03761E-12
4.75964E-12 6.03733E-12
5.75917E-12 6.03702E-12
6.85391E-12 6.03668E-12
8.04379E-12 6.03631E-12
9.32893E-12 6.03591E-12
1.07092E-11 6.03549E-12
1.21847E-11 6.03503E-12
1.37554E-11 6.03455E-12
1.54213E-11 6.03403E-12
1.71823E-11 6.03349E-12
1.90386E-11 6.03291E-12
2.09900E-11 6.03231E-12
2.30367E-11 6.03168E-12
2.51785E-11 6.03102E-12
2.74156E-11 6.03033E-12
2.97478E-11 6.02961E-12
3.21752E-11 6.02886E-12
3.46979E-11 6.02809E-12
3.73157E-11 6.02728E-12
4.00286E-11 6.02645E-12
4.28368E-11 6.02558E-12
4.57402E-11 6.02469E-12
4.87388E-11 6.02377E-12
5.18325E-11 6.02282E-12
5.50215E-11 6.02184E-12
5.83057E-11 6.02083E-12
6.16850E-11 6.01979E-12
6.51595E-11 6.01873E-12
6.87293E-11 6.01763E-12
7.23943E-11 6.01651E-12
7.61544E-11 6.01535E-12
1.18991E-10 6.00226E-12
1.71347E-10 5.98632E-12
2.33223E-10 5.96758E-12
3.04617E-10 5.94609E-12
3.85531E-10 5.92190E-12
4.75965E-10 5.89506E-12
5.75917E-10 5.86564E-12
6.85389E-10 5.83370E-12
8.04380E-10 5.79932E-12
9.32891E-10 5.76259E-12
1.07092E-09 5.72357E-12
1.21847E-09 5.68236E-12
1.37554E-09 5.63905E-12
1.54213E-09 5.59373E-12
1.71823E-09 5.54650E-12
1.90386E-09 5.49746E-12
2.09900E-09 5.44670E-12
2.30367E-09 5.39434E-12
2.51785E-09 5.34046E-12
2.74156E-09 5.28545E-12
2.97478E-09 5.22907E-12
3.21752E-09 5.17137E-12
3.46978E-09 5.11245E-12
3.73156E-09 5.05240E-12
4.00286E-09 4.99142E-12
4.28368E-09 4.93026E-12
4.57402E-09 4.86826E-12
4.87388E-09 4.80550E-12
5.18326E-09 4.74207E-12
5.50215E-09 4.67805E-12
5.83057E-09 4.61389E-12
6.16850E-09 4.55003E-12
6.51596E-09 4.48582E-12
6.87293E-09 4.42134E-12
7.23942E-09 4.35666E-12
7.61544E-09 4.29185E-12
1.18991E-08 3.66644E-12
1.71347E-08 3.10367E-12
2.33223E-08 2.62469E-12
3.04617E-08 2.23115E-12
3.85531E-08 1.91259E-12
4.75965E-08 1.65527E-12
5.75917E-08 1.44652E-12
6.85389E-08 1.27539E-12
8.04380E-08 1.13303E-12
9.32891E-08 1.01300E-12
1.07092E-07 9.10407E-13
1.21847E-07 8.21398E-13
1.37554E-07 7.43602E-13
1.54213E-07 6.75049E-13
1.71823E-07 6.14120E-13
1.90386E-07 5.59653E-13
2.09900E-07 5.10905E-13
2.30367E-07 4.67139E-13
2.51785E-07 4.27630E-13
2.74156E-07 3.88892E-13
2.97478E-07 3.55096E-13
3.21752E-07 3.25887E-13
3.46978E-07 3.00513E-13
3.73156E-07 2.78359E-13
4.00286E-07 2.58449E-13
4.28368E-07 2.37420E-13
4.57402E-07 2.18963E-13
4.87388E-07 2.02696E-13
5.18325E-07 1.88303E-13
5.50215E-07 1.75519E-13
5.83057E-07 1.63514E-13
6.16850E-07 1.51671E-13
6.51596E-07 1.41100E-13
6.87293E-07 1.31635E-13
7.23942E-07 1.23135E-13
7.61543E-07 1.15477E-13
1.18991E-06 6.20149E-14
1.71347E-06 3.59784E-14
2.33223E-06 2.20565E-14
3.04617E-06 1.41239E-14
3.85531E-06 9.42199E-15
4.75964E-06 6.52737E-15
5.75916E-06 4.67524E-15
6.85388E-06 3.44503E-15
8.04378E-06 2.59964E-15
9.32888E-06 2.00387E-15
1.07092E-05 1.57188E-15
1.21846E-05 1.25042E-15
1.37553E-05 1.00703E-15
1.54212E-05 8.19971E-16
1.71822E-05 6.74287E-16
1.90385E-05 5.59171E-16
2.09899E-05 4.67993E-16
2.30365E-05 3.94479E-16
2.51783E-05 3.34635E-16
2.74153E-05 2.85387E-16
2.97475E-05 2.45087E-16
3.21749E-05 2.11577E-16
3.46974E-05 1.83597E-16
3.73152E-05 1.60174E-16
4.00281E-05 1.40293E-16
4.28362E-05 1.23501E-16
4.57395E-05 1.09064E-16
4.87380E-05 9.67230E-17
5.18317E-05 8.60520E-17
5.50205E-05 7.68129E-17
5.83045E-05 6.87891E-17
6.16838E-05 6.17727E-17
6.51582E-05 5.56516E-17
6.87277E-05 5.02502E-17
7.23925E-05 4.55053E-17
7.61524E-05 4.13005E-17
9.21439E-05 2.86537E-17
1.09658E-04 2.04940E-17
1.28695E-04 1.50447E-17
1.49255E-04 1.12908E-17
1.71338E-04 8.63728E-18
1.94942E-04 6.71755E-18
2.20070E-04 5.30192E-18
2.46720E-04 4.23959E-18
2.74892E-04 3.42975E-18
3.04586E-04 2.80385E-18
3.35803E-04 2.31409E-18
3.68542E-04 1.92651E-18
4.02802E-04 1.61656E-18
4.38585E-04 1.36636E-18
4.75889E-04 1.16266E-18
5.14715E-04 9.95467E-19
5.55063E-04 8.57206E-19
5.96931E-04 7.42098E-19
6.40321E-04 6.45647E-19
6.85233E-04 5.64342E-19
7.31665E-04 4.95418E-19
7.79618E-04 4.36686E-19
8.29092E-04 3.86392E-19
8.80086E-04 3.43122E-19
9.32601E-04 3.05731E-19
9.86636E-04 2.73290E-19
1.04219E-03 2.45033E-19
1.09927E-03 2.20327E-19
1.15786E-03 1.98653E-19
1.21797E-03 1.79574E-19
1.27961E-03 1.62727E-19
1.34276E-03 1.47805E-19
1.40743E-03 1.34552E-19
1.47362E-03 1.22747E-19
1.54133E-03 1.12206E-19
1.61056E-03 1.02770E-19
1.68131E-03 9.43027E-20
1.75357E-03 8.66873E-20
1.82735E-03 7.98231E-20
1.90265E-03 7.36230E-20
1.97947E-03 6.80115E-20
2.05780E-03 6.29230E-20
2.13765E-03 5.83001E-20
2.21902E-03 5.40925E-20
2.30190E-03 5.02565E-20
2.38630E-03 4.67535E-20
2.47222E-03 4.35492E-20
2.55965E-03 4.06137E-20
2.64859E-03 3.79207E-20
2.73905E-03 3.54462E-20
2.83103E-03 3.31696E-20
2.92452E-03 3.10723E-20
3.01952E-03 2.91372E-20
3.11604E-03 2.73500E-20
3.21407E-03 2.56972E-20
3.31362E-03 2.41667E-20
3.41468E-03 2.27480E-20
3.51725E-03 2.14315E-20
3.62133E-03 2.02084E-20
3.72692E-03 1.90709E-20
3.83403E-03 1.80120E-20
3.94265E-03 1.70252E-20
4.05278E-03 1.61047E-20
4.16442E-03 1.52453E-20
4.27757E-03 1.44423E-20
4.39223E-03 1.36911E-20
4.50840E-03 1.29879E-20
4.62608E-03 1.23290E-20
4.74527E-03 1.17112E-20
4.86597E-03 1.11314E-20
4.98817E-03 1.05868E-20
5.11188E-03 1.00750E-20
5.23711E-03 9.59354E-21
5.36383E-03 9.14036E-21
5.49207E-03 8.71348E-21
5.62181E-03 8.31108E-21
5.75306E-03 7.93151E-21
5.88581E-03 7.57326E-21
6.02007E-03 7.23488E-21
6.15583E-03 6.91508E-21
6.29310E-03 6.61266E-21
6.43187E-03 6.32649E-21
6.57214E-03 6.05553E-21
6.71392E-03 5.79885E-21
6.85720E-03 5.55555E-21
7.00198E-03 5.32478E-21
7.14827E-03 5.10581E-21
7.29605E-03 4.89791E-21
7.44534E-03 4.70041E-21
7.59612E-03 4.51270E-21
7.97965E-03 4.08260E-21
8.37255E-03 3.70223E-21
8.77480E-03 3.36488E-21
9.18641E-03 3.06485E-21
9.60736E-03 2.79731E-21
1.00376E-02 2.55815E-21
1.04773E-02 2.34384E-21
1.09262E-02 2.15135E-21
1.13844E-02 1.97810E-21
1.18520E-02 1.82181E-21
1.23288E-02 1.68054E-21
1.28150E-02 1.55261E-21
1.33104E-02 1.43653E-21
1.38150E-02 1.33102E-21
1.43290E-02 1.23495E-21
1.48521E-02 1.14732E-21
1.53845E-02 1.06727E-21
1.59262E-02 9.94017E-22
1.64770E-02 9.26895E-22
1.70371E-02 8.65297E-22
1.76063E-02 8.08688E-22
1.81848E-02 7.56595E-22
1.87724E-02 7.08593E-22
1.93692E-02 6.64304E-22
1.99751E-02 6.23391E-22
2.05901E-02 5.85551E-22
2.12143E-02 5.50513E-22
2.18476E-02 5.18032E-22
2.24900E-02 4.87889E-22
2.31415E-02 4.59886E-22
2.38021E-02 4.33844E-22
2.44717E-02 4.09601E-22
2.51504E-02 3.87011E-22
2.58382E-02 3.65942E-22
2.65349E-02 3.46272E-22
2.72407E-02 3.27893E-22
2.79555E-02 3.10704E-22
2.86793E-02 2.94615E-22
2.94120E-02 2.79543E-22
3.01537E-02 2.65413E-22
3.09043E-02 2.52153E-22
3.16639E-02 2.39703E-22
3.24324E-02 2.28003E-22
3.32098E-02 2.17000E-22
3.39961E-02 2.06645E-22
3.47912E-02 1.96893E-22
3.55952E-02 1.87703E-22
3.64081E-02 1.79037E-22
3.72297E-02 1.70859E-22
3.80602E-02 1.63137E-22
3.88995E-02 1.55841E-22
3.97476E-02 1.48943E-22
4.06044E-02 1.42418E-22
4.14700E-02 1.36242E-22
4.23443E-02 1.30393E-22
4.32273E-02 1.24850E-22
4.41190E-02 1.19595E-22
4.50194E-02 1.14610E-22
4.59284E-02 1.09878E-22
4.68461E-02 1.05385E-22
4.87074E-02 9.70582E-23
5.06030E-02 8.95271E-23
5.25328E-02 8.27026E-23
5.44967E-02 7.65073E-23
5.64946E-02 7.08735E-23
5.85262E-02 6.57415E-23
6.05914E-02 6.10590E-23
6.26901E-02 5.67800E-23
6.48222E-02 5.28637E-23
6.69873E-02 4.92742E-23
6.91854E-02 4.59796E-23
7.14163E-02 4.29514E-23
7.36799E-02 4.01644E-23
7.59760E-02 3.75962E-23
7.83043E-02 3.52266E-23
8.06647E-02 3.30376E-23
8.30571E-02 3.10131E-23
8.54812E-02 2.91386E-23
8.79369E-02 2.74011E-23
9.04240E-02 2.57888E-23
9.29422E-02 2.42912E-23
9.54915E-02 2.28987E-23
9.80716E-02 2.16027E-23
1.00682E-01 2.03953E-23
1.03323E-01 1.92694E-23
1.05995E-01 1.82186E-23
1.08696E-01 1.72371E-23
1.11427E-01 1.63193E-23
1.14188E-01 1.54606E-23
1.16978E-01 1.46564E-23
1.19797E-01 1.39026E-23
1.22645E-01 1.31957E-23
1.25522E-01 1.25321E-23
1.28428E-01 1.19087E-23
1.31361E-01 1.13227E-23
1.34323E-01 1.07715E-23
1.37313E-01 1.02526E-23
1.40330E-01 9.76388E-24
1.43375E-01 9.30318E-24
1.46447E-01 8.86865E-24
1.49545E-01 8.45854E-24
1.52671E-01 8.07127E-24
1.55823E-01 7.70532E-24
1.59001E-01 7.35932E-24
1.62205E-01 7.03200E-24
1.65435E-01 6.72219E-24
1.68690E-01 6.42876E-24
1.71970E-01 6.15072E-24
1.75276E-01 5.88712E-24
1.78606E-01 5.63708E-24
1.81961E-01 5.39977E-24
1.85340E-01 5.17445E-24
1.88743E-01 4.96039E-24
1.92169E-01 4.75695E-24
1.95619E-01 4.56350E-24
1.99092E-01 4.37947E-24
2.02589E-01 4.20432E-24
2.06107E-01 4.03755E-24
2.09649E-01 3.87868E-24
2.13212E-01 3.72729E-24
2.16797E-01 3.58296E-24
2.20404E-01 3.44530E-24
2.24032E-01 3.31395E-24
2.27680E-01 3.18857E-24
2.31350E-01 3.06885E-24
2.35040E-01 2.95448E-24
2.38751E-01 2.84519E-24
2.42481E-01 2.74071E-24
2.46231E-01 2.64080E-24
2.50000E-01 2.54522E-24
2.53788E-01 2.45374E-24
2.57595E-01 2.36617E-24
2.61421E-01 2.28231E-24
2.65264E-01 2.20198E-24
2.69126E-01 2.12500E-24
2.73005E-01 2.05121E-24
2.76901E-01 1.98045E-24
2.80814E-01 1.91258E-24
2.84744E-01 1.84744E-24
2.88691E-01 1.78492E-24
2.92653E-01 1.72490E-24
2.96632E-01 1.66726E-24
3.00625E-01 1.61188E-24
3.04634E-01 1.55868E-24
3.08658E-01 1.50754E-24
3.12697E-01 1.45837E-24
3.16749E-01 1.41108E-24
3.20816E-01 1.36560E-24
3.24896E-01 1.32183E-24
3.28990E-01 1.27971E-24
3.33097E-01 1.23916E-24
3.37216E-01 1.20011E-24
3.41348E-01 1.16250E-24
3.45492E-01 1.12627E-24
3.49647E-01 1.09136E-24
3.53814E-01 1.05770E-24
3.57992E-01 1.02525E-24
3.62181E-01 9.93965E-25
3.66381E-01 9.63786E-25
3.70590E-01 9.34671E-25
3.74810E-01 9.06575E-25
3.79039E-01 8.79458E-25
3.83277E-01 8.53279E-25
3.87524E-01 8.28000E-25
3.91780E-01 8.03587E-25
3.96044E-01 7.80003E-25
4.00316E-01 7.57217E-25
4.04596E-01 7.35196E-25
4.08882E-01 7.13912E-25
4.13176E-01 6.93335E-25
4.17476E-01 6.73437E-25
4.21783E-01 6.54193E-25
4.26095E-01 6.35578E-25
4.30413E-01 6.17568E-25
4.34737E-01 6.00140E-25
4.39065E-01 5.83273E-25
4.43398E-01 5.66944E-25
4.47736E-01 5.51134E-25
4.52077E-01 5.35825E-25
4.56422E-01 5.20997E-25
4.60770E-01 5.06633E-25
4.65122E-01 4.92717E-25
4.69476E-01 4.79231E-25
4.73832E-01 4.66161E-25
4.78190E-01 4.53492E-25
4.82550E-01 4.41209E-25
4.86912E-01 4.29299E-25
4.91274E-01 4.17748E-25
4.95637E-01 4.06545E-25
5.00000E-01 3.95676E-25
5.04363E-01 3.85131E-25
5.08726E-01 3.74899E-25
5.13088E-01 3.64967E-25
5.17450E-01 3.55328E-25
5.21810E-01 3.45969E-25
5.26168E-01 3.36882E-25
5.30524E-01 3.28058E-25
5.34878E-01 3.19488E-25
5.39230E-01 3.11164E-25
5.43578E-01 3.03077E-25
5.47923E-01 2.95220E-25
5.52264E-01 2.87584E-25
5.56602E-01 2.80164E-25
5.60935E-01 2.72951E-25
5.65263E-01 2.65940E-25
5.69587E-01 2.59123E-25
5.73905E-01 2.52495E-25
5.78217E-01 2.46050E-25
5.82524E-01 2.39781E-25
5.86824E-01 2.33683E-25
5.91118E-01 2.27751E-25
5.95404E-01 2.21979E-25
5.99684E-01 2.16363E-25
6.03956E-01 2.10898E-25
6.08220E-01 2.05579E-25
6.12476E-01 2.00402E-25
6.16723E-01 1.95362E-25
6.20961E-01 1.90455E-25
6.25190E-01 1.85678E-25
6.29410E-01 1.81025E-25
6.33619E-01 1.76495E-25
6.37819E-01 1.72082E-25
6.42008E-01 1.67783E-25
6.46186E-01 1.63596E-25
6.50353E-01 1.59516E-25
6.54508E-01 1.55541E-25
6.58652E-01 1.51667E-25
6.62784E-01 1.47892E-25
6.66903E-01 1.44213E-25
6.71010E-01 1.40626E-25
6.75104E-01 1.37131E-25
6.79184E-01 1.33722E-25
6.83251E-01 1.30399E-25
6.87303E-01 1.27159E-25
6.91342E-01 1.24000E-25
6.95366E-01 1.20918E-25
6.99375E-01 1.17913E-25
7.03368E-01 1.14982E-25
7.07347E-01 1.12122E-25
7.11309E-01 1.09333E-25
7.15256E-01 1.06611E-25
7.19186E-01 1.03956E-25
7.23099E-01 1.01365E-25
7.26995E-01 9.88366E-26
7.30874E-01 9.63692E-26
7.34736E-01 9.39611E-26
7.38579E-01 9.16106E-26
7.42405E-01 8.93163E-26
7.46212E-01 8.70767E-26
7.50000E-01 8.48904E-26
7.53769E-01 8.27558E-26
7.57519E-01 8.06718E-26
7.61249E-01 7.86369E-26
7.64960E-01 7.66499E-26
7.68650E-01 7.47095E-26
7.72320E-01 7.28146E-26
7.75968E-01 7.09640E-26
7.79596E-01 6.91565E-26
7.83203E-01 6.73912E-26
7.86788E-01 6.56668E-26
7.90351E-01 6.39823E-26
7.93893E-01 6.23369E-26
7.97411E-01 6.07294E-26
8.00908E-01 5.91590E-26
8.04381E-01 5.76248E-26
8.07831E-01 5.61258E-26
8.11257E-01 5.46611E-26
8.14660E-01 5.32301E-26
8.18039E-01 5.18317E-26
8.21394E-01 5.04653E-26
8.24724E-01 4.91301E-26
8.28030E-01 4.78253E-26
8.31310E-01 4.65502E-26
8.34565E-01 4.53041E-26
8.37795E-01 4.40863E-26
8.40999E-01 4.28962E-26
8.44177E-01 4.17331E-26
8.47329E-01 4.05964E-26
8.50455E-01 3.94854E-26
8.53553E-01 3.83997E-26
8.56625E-01 3.73385E-26
8.59670E-01 3.63014E-26
8.62687E-01 3.52878E-26
8.65677E-01 3.42971E-26
8.68639E-01 3.33289E-26
8.71572E-01 3.23827E-26
8.74478E-01 3.14579E-26
8.77355E-01 3.05541E-26
8.80203E-01 2.96709E-26
8.83022E-01 2.88078E-26
8.85812E-01 2.79643E-26
8.88573E-01 2.71401E-26
8.91304E-01 2.63347E-26
8.94005E-01 2.55477E-26
8.96677E-01 2.47787E-26
8.99318E-01 2.40275E-26
9.01928E-01 2.32935E-26
9.04508E-01 2.25764E-26
9.07058E-01 2.18760E-26
9.09576E-01 2.11918E-26
9.12063E-01 2.05235E-26
9.14519E-01 1.98708E-26
9.16943E-01 1.92335E-26
9.19335E-01 1.86111E-26
9.21696E-01 1.80034E-26
9.24024E-01 1.74101E-26
9.26320E-01 1.68310E-26
9.28584E-01 1.62658E-26
9.30815E-01 1.57141E-26
9.33013E-01 1.51758E-26
9.35178E-01 1.46506E-26
9.37310E-01 1.41383E-26
9.39409E-01 1.36386E-26
9.41474E-01 1.31513E-26
9.43505E-01 1.26762E-26
9.45503E-01 1.22131E-26
9.47467E-01 1.17617E-26
9.49397E-01 1.13219E-26
9.51293E-01 1.08934E-26
9.53154E-01 1.04761E-26
9.54981E-01 1.00698E-26
9.56773E-01 9.67435E-27
9.58530E-01 9.28949E-27
9.60252E-01 8.91510E-27
9.61940E-01 8.55101E-27
9.63592E-01 8.19706E-27
9.65209E-01 7.85310E-27
9.66790E-01 7.51898E-27
9.68336E-01 7.19455E-27
9.69846E-01 6.87967E-27
9.71321E-01 6.57421E-27
9.72759E-01 6.27805E-27
9.74162E-01 5.99104E-27
9.75528E-01 5.71307E-27
9.76858E-01 5.44402E-27
9.78152E-01 5.18378E-27
9.79410E-01 4.93224E-27
9.80631E-01 4.68929E-27
9.81815E-01 4.45482E-27
9.82963E-01 4.22874E-27
9.84074E-01 4.01096E-27
9.85148E-01 3.80138E-27
9.86185E-01 3.59991E-27
9.87185E-01 3.40648E-27
9.88148E-01 3.22100E-27
9.89074E-01 3.04339E-27
9.89962E-01 2.87358E-27
9.90814E-01 2.71150E-27
9.91627E-01 2.55709E-27
9.92404E-01 2.41027E-27
9.93143E-01 2.27099E-27
9.93844E-01 2.13920E-27
9.94508E-01 2.01483E-27
9.95134E-01 1.89783E-27
9.95722E-01 1.78817E-27
9.96273E-01 1.68579E-27
9.96786E-01 1.59064E-27
9.97261E-01 1.50271E-27
9.97698E-01 1.42193E-27
9.98097E-01 1.34829E-27
9.98459E-01 1.28176E-27
9.98782E-01 1.22230E-27
9.99067E-01 1.16989E-27
9.99315E-01 1.12451E-27
9.99524E-01 1.08615E-27
9.99695E-01 1.05478E-27
9.99829E-01 1.03040E-27
9.99924E-01 1.01299E-27
9.99981E-01 1.00254E-27
1.00000E+00 9.99062E-28
