 #
 # Subroutine ELSEPA. Elastic scattering of electrons and positrons
 #                    by neutral atoms and positive ions
 #
 # Projectile: positron
 # Kinetic energy = 7.00000E+05 eV = 2.57245E+04 a.u.
 #
 # Element: Yb,  Z =  70,  atomic weight = 1.73040E+02 g/mol
 #
 # Nuclear model: Fermi distribution
 #                Average radius = 5.96256E-13 cm
 #                Skin thickness = 5.46000E-14 cm
 #
 # Number of electrons = 70
 #
 # Electron density: Read from file Data/z_070.d
 #                   Number of data points =  835
 #                   Volume integral = 7.00000E+01
 #
 # LDA absorption potential (only electron-hole excitations):
 #                           Delta = 0.00000E+00 eV
 #                            Aabs = 2.00000E+00
 #
 # Total elastic cross section = 8.29014E-18 cm**2 = 2.96046E-01 a0**2
 # 1st transport cross section = 4.08660E-21 cm**2 = 1.45935E-04 a0**2
 # 2nd transport cross section = 1.13257E-20 cm**2 = 4.04446E-04 a0**2
 #
 #    Absorption cross section = 9.47181E-19 cm**2 = 3.38245E-02 a0**2
 #   Grand total cross section = 9.24206E-18 cm**2 = 3.30040E-01 a0**2
 #
 #
 # Differential cross section:                       MU=(1-COS(THETA))/2
 #
 #  THETA        MU          DCS          DCS        Sherman      error
 #  (deg)                 (cm**2/sr)   (a0**2/sr)    function
 #----------------------------------------------------------------------
0.00000E+00 9.70403E-14
7.61557E-13 9.70402E-14
1.18994E-12 9.70402E-14
1.71346E-12 9.70402E-14
2.33225E-12 9.70401E-14
3.04617E-12 9.70401E-14
3.85530E-12 9.70400E-14
4.75964E-12 9.70400E-14
5.75917E-12 9.70399E-14
6.85391E-12 9.70398E-14
8.04379E-12 9.70398E-14
9.32893E-12 9.70397E-14
1.07092E-11 9.70396E-14
1.21847E-11 9.70395E-14
1.37554E-11 9.70394E-14
1.54213E-11 9.70393E-14
1.71823E-11 9.70392E-14
1.90386E-11 9.70390E-14
2.09900E-11 9.70389E-14
2.30367E-11 9.70388E-14
2.51785E-11 9.70386E-14
2.74156E-11 9.70385E-14
2.97478E-11 9.70383E-14
3.21752E-11 9.70382E-14
3.46979E-11 9.70380E-14
3.73157E-11 9.70378E-14
4.00286E-11 9.70376E-14
4.28368E-11 9.70374E-14
4.57402E-11 9.70372E-14
4.87388E-11 9.70370E-14
5.18325E-11 9.70368E-14
5.50215E-11 9.70366E-14
5.83057E-11 9.70364E-14
6.16850E-11 9.70362E-14
6.51595E-11 9.70360E-14
6.87293E-11 9.70357E-14
7.23943E-11 9.70355E-14
7.61544E-11 9.70352E-14
1.18991E-10 9.70324E-14
1.71347E-10 9.70289E-14
2.33223E-10 9.70248E-14
3.04617E-10 9.70200E-14
3.85531E-10 9.70146E-14
4.75965E-10 9.70086E-14
5.75917E-10 9.70019E-14
6.85389E-10 9.69946E-14
8.04380E-10 9.69867E-14
9.32891E-10 9.69781E-14
1.07092E-09 9.69689E-14
1.21847E-09 9.69591E-14
1.37554E-09 9.69487E-14
1.54213E-09 9.69376E-14
1.71823E-09 9.69259E-14
1.90386E-09 9.69135E-14
2.09900E-09 9.69005E-14
2.30367E-09 9.68869E-14
2.51785E-09 9.68727E-14
2.74156E-09 9.68578E-14
2.97478E-09 9.68423E-14
3.21752E-09 9.68262E-14
3.46978E-09 9.68094E-14
3.73156E-09 9.67921E-14
4.00286E-09 9.67740E-14
4.28368E-09 9.67554E-14
4.57402E-09 9.67362E-14
4.87388E-09 9.67163E-14
5.18326E-09 9.66958E-14
5.50215E-09 9.66746E-14
5.83057E-09 9.66529E-14
6.16850E-09 9.66305E-14
6.51596E-09 9.66075E-14
6.87293E-09 9.65839E-14
7.23942E-09 9.65597E-14
7.61544E-09 9.65348E-14
1.18991E-08 9.62524E-14
1.71347E-08 9.59092E-14
2.33223E-08 9.55062E-14
3.04617E-08 9.50448E-14
3.85531E-08 9.45265E-14
4.75965E-08 9.39528E-14
5.75917E-08 9.33256E-14
6.85389E-08 9.26468E-14
8.04380E-08 9.19185E-14
9.32891E-08 9.11428E-14
1.07092E-07 9.03222E-14
1.21847E-07 8.94588E-14
1.37554E-07 8.85552E-14
1.54213E-07 8.76140E-14
1.71823E-07 8.66375E-14
1.90386E-07 8.56285E-14
2.09900E-07 8.45896E-14
2.30367E-07 8.35233E-14
2.51785E-07 8.24323E-14
2.74156E-07 8.13192E-14
2.97478E-07 8.01865E-14
3.21752E-07 7.90367E-14
3.46978E-07 7.78723E-14
3.73156E-07 7.66958E-14
4.00286E-07 7.55094E-14
4.28368E-07 7.43154E-14
4.57402E-07 7.31160E-14
4.87388E-07 7.19133E-14
5.18325E-07 7.07093E-14
5.50215E-07 6.95060E-14
5.83057E-07 6.83050E-14
6.16850E-07 6.71082E-14
6.51596E-07 6.59171E-14
6.87293E-07 6.47333E-14
7.23942E-07 6.35581E-14
7.61543E-07 6.23929E-14
1.18991E-06 5.15059E-14
1.71347E-06 4.23827E-14
2.33223E-06 3.50947E-14
3.04617E-06 2.93933E-14
3.85531E-06 2.49430E-14
4.75964E-06 2.14350E-14
5.75916E-06 1.86230E-14
6.85388E-06 1.63253E-14
8.04378E-06 1.44123E-14
9.32888E-06 1.27931E-14
1.07092E-05 1.14040E-14
1.21846E-05 1.01998E-14
1.37553E-05 9.14742E-15
1.54212E-05 8.22227E-15
1.71822E-05 7.40556E-15
1.90385E-05 6.68237E-15
2.09899E-05 6.04051E-15
2.30365E-05 5.46976E-15
2.51783E-05 4.96144E-15
2.74153E-05 4.50811E-15
2.97475E-05 4.10329E-15
3.21749E-05 3.74131E-15
3.46974E-05 3.41717E-15
3.73152E-05 3.12648E-15
4.00281E-05 2.86539E-15
4.28362E-05 2.63053E-15
4.57395E-05 2.41890E-15
4.87380E-05 2.22787E-15
5.18317E-05 2.05513E-15
5.50205E-05 1.89866E-15
5.83045E-05 1.75666E-15
6.16838E-05 1.62758E-15
6.51582E-05 1.51003E-15
6.87277E-05 1.40278E-15
7.23925E-05 1.30477E-15
7.61524E-05 1.21505E-15
9.21439E-05 9.23799E-16
1.09658E-04 7.13245E-16
1.28695E-04 5.57982E-16
1.49255E-04 4.41623E-16
1.71338E-04 3.53252E-16
1.94942E-04 2.85379E-16
2.20070E-04 2.32728E-16
2.46720E-04 1.91513E-16
2.74892E-04 1.58968E-16
3.04586E-04 1.33050E-16
3.35803E-04 1.12237E-16
3.68542E-04 9.53838E-17
4.02802E-04 8.16257E-17
4.38585E-04 7.03048E-17
4.75889E-04 6.09177E-17
5.14715E-04 5.30764E-17
5.55063E-04 4.64806E-17
5.96931E-04 4.08958E-17
6.40321E-04 3.61378E-17
6.85233E-04 3.20611E-17
7.31665E-04 2.85493E-17
7.79618E-04 2.55092E-17
8.29092E-04 2.28655E-17
8.80086E-04 2.05568E-17
9.32601E-04 1.85326E-17
9.86636E-04 1.67515E-17
1.04219E-03 1.51790E-17
1.09927E-03 1.37862E-17
1.15786E-03 1.25490E-17
1.21797E-03 1.14469E-17
1.27961E-03 1.04627E-17
1.34276E-03 9.58147E-18
1.40743E-03 8.79065E-18
1.47362E-03 8.07937E-18
1.54133E-03 7.43824E-18
1.61056E-03 6.85918E-18
1.68131E-03 6.33513E-18
1.75357E-03 5.85999E-18
1.82735E-03 5.42839E-18
1.90265E-03 5.03565E-18
1.97947E-03 4.67767E-18
2.05780E-03 4.35083E-18
2.13765E-03 4.05194E-18
2.21902E-03 3.77821E-18
2.30190E-03 3.52712E-18
2.38630E-03 3.29648E-18
2.47222E-03 3.08433E-18
2.55965E-03 2.88891E-18
2.64859E-03 2.70867E-18
2.73905E-03 2.54222E-18
2.83103E-03 2.38831E-18
2.92452E-03 2.24583E-18
3.01952E-03 2.11377E-18
3.11604E-03 1.99124E-18
3.21407E-03 1.87742E-18
3.31362E-03 1.77158E-18
3.41468E-03 1.67307E-18
3.51725E-03 1.58127E-18
3.62133E-03 1.49566E-18
3.72692E-03 1.41573E-18
3.83403E-03 1.34105E-18
3.94265E-03 1.27120E-18
4.05278E-03 1.20582E-18
4.16442E-03 1.14457E-18
4.27757E-03 1.08715E-18
4.39223E-03 1.03326E-18
4.50840E-03 9.82654E-19
4.62608E-03 9.35096E-19
4.74527E-03 8.90367E-19
4.86597E-03 8.48270E-19
4.98817E-03 8.08621E-19
5.11188E-03 7.71252E-19
5.23711E-03 7.36009E-19
5.36383E-03 7.02747E-19
5.49207E-03 6.71337E-19
5.62181E-03 6.41655E-19
5.75306E-03 6.13590E-19
5.88581E-03 5.87036E-19
6.02007E-03 5.61899E-19
6.15583E-03 5.38088E-19
6.29310E-03 5.15521E-19
6.43187E-03 4.94121E-19
6.57214E-03 4.73815E-19
6.71392E-03 4.54539E-19
6.85720E-03 4.36230E-19
7.00198E-03 4.18830E-19
7.14827E-03 4.02287E-19
7.29605E-03 3.86549E-19
7.44534E-03 3.71571E-19
7.59612E-03 3.57309E-19
7.97965E-03 3.24526E-19
8.37255E-03 2.95406E-19
8.77480E-03 2.69468E-19
9.18641E-03 2.46306E-19
9.60736E-03 2.25570E-19
1.00376E-02 2.06962E-19
1.04773E-02 1.90227E-19
1.09262E-02 1.75141E-19
1.13844E-02 1.61515E-19
1.18520E-02 1.49182E-19
1.23288E-02 1.37999E-19
1.28150E-02 1.27838E-19
1.33104E-02 1.18590E-19
1.38150E-02 1.10158E-19
1.43290E-02 1.02459E-19
1.48521E-02 9.54156E-20
1.53845E-02 8.89635E-20
1.59262E-02 8.30440E-20
1.64770E-02 7.76052E-20
1.70371E-02 7.26012E-20
1.76063E-02 6.79911E-20
1.81848E-02 6.37384E-20
1.87724E-02 5.98104E-20
1.93692E-02 5.61779E-20
1.99751E-02 5.28148E-20
2.05901E-02 4.96975E-20
2.12143E-02 4.68050E-20
2.18476E-02 4.41180E-20
2.24900E-02 4.16195E-20
2.31415E-02 3.92937E-20
2.38021E-02 3.71268E-20
2.44717E-02 3.51058E-20
2.51504E-02 3.32193E-20
2.58382E-02 3.14566E-20
2.65349E-02 2.98083E-20
2.72407E-02 2.82655E-20
2.79555E-02 2.68203E-20
2.86793E-02 2.54655E-20
2.94120E-02 2.41944E-20
3.01537E-02 2.30008E-20
3.09043E-02 2.18793E-20
3.16639E-02 2.08247E-20
3.24324E-02 1.98323E-20
3.32098E-02 1.88977E-20
3.39961E-02 1.80170E-20
3.47912E-02 1.71866E-20
3.55952E-02 1.64030E-20
3.64081E-02 1.56632E-20
3.72297E-02 1.49642E-20
3.80602E-02 1.43034E-20
3.88995E-02 1.36784E-20
3.97476E-02 1.30868E-20
4.06044E-02 1.25265E-20
4.14700E-02 1.19957E-20
4.23443E-02 1.14924E-20
4.32273E-02 1.10150E-20
4.41190E-02 1.05618E-20
4.50194E-02 1.01316E-20
4.59284E-02 9.72282E-21
4.68461E-02 9.33427E-21
4.87074E-02 8.61318E-21
5.06030E-02 7.95979E-21
5.25328E-02 7.36667E-21
5.44967E-02 6.82730E-21
5.64946E-02 6.33597E-21
5.85262E-02 5.88768E-21
6.05914E-02 5.47799E-21
6.26901E-02 5.10301E-21
6.48222E-02 4.75930E-21
6.69873E-02 4.44378E-21
6.91854E-02 4.15375E-21
7.14163E-02 3.88680E-21
7.36799E-02 3.64075E-21
7.59760E-02 3.41370E-21
7.83043E-02 3.20391E-21
8.06647E-02 3.00985E-21
8.30571E-02 2.83012E-21
8.54812E-02 2.66349E-21
8.79369E-02 2.50884E-21
9.04240E-02 2.36514E-21
9.29422E-02 2.23149E-21
9.54915E-02 2.10706E-21
9.80716E-02 1.99110E-21
1.00682E-01 1.88294E-21
1.03323E-01 1.78195E-21
1.05995E-01 1.68758E-21
1.08696E-01 1.59932E-21
1.11427E-01 1.51670E-21
1.14188E-01 1.43929E-21
1.16978E-01 1.36671E-21
1.19797E-01 1.29861E-21
1.22645E-01 1.23465E-21
1.25522E-01 1.17455E-21
1.28428E-01 1.11802E-21
1.31361E-01 1.06482E-21
1.34323E-01 1.01472E-21
1.37313E-01 9.67503E-22
1.40330E-01 9.22972E-22
1.43375E-01 8.80950E-22
1.46447E-01 8.41269E-22
1.49545E-01 8.03776E-22
1.52671E-01 7.68328E-22
1.55823E-01 7.34794E-22
1.59001E-01 7.03052E-22
1.62205E-01 6.72988E-22
1.65435E-01 6.44500E-22
1.68690E-01 6.17488E-22
1.71970E-01 5.91864E-22
1.75276E-01 5.67542E-22
1.78606E-01 5.44444E-22
1.81961E-01 5.22498E-22
1.85340E-01 5.01637E-22
1.88743E-01 4.81796E-22
1.92169E-01 4.62918E-22
1.95619E-01 4.44947E-22
1.99092E-01 4.27831E-22
2.02589E-01 4.11522E-22
2.06107E-01 3.95976E-22
2.09649E-01 3.81150E-22
2.13212E-01 3.67006E-22
2.16797E-01 3.53505E-22
2.20404E-01 3.40614E-22
2.24032E-01 3.28301E-22
2.27680E-01 3.16533E-22
2.31350E-01 3.05283E-22
2.35040E-01 2.94524E-22
2.38751E-01 2.84231E-22
2.42481E-01 2.74380E-22
2.46231E-01 2.64949E-22
2.50000E-01 2.55916E-22
2.53788E-01 2.47261E-22
2.57595E-01 2.38966E-22
2.61421E-01 2.31013E-22
2.65264E-01 2.23386E-22
2.69126E-01 2.16068E-22
2.73005E-01 2.09045E-22
2.76901E-01 2.02303E-22
2.80814E-01 1.95829E-22
2.84744E-01 1.89610E-22
2.88691E-01 1.83633E-22
2.92653E-01 1.77889E-22
2.96632E-01 1.72366E-22
3.00625E-01 1.67055E-22
3.04634E-01 1.61945E-22
3.08658E-01 1.57027E-22
3.12697E-01 1.52294E-22
3.16749E-01 1.47736E-22
3.20816E-01 1.43347E-22
3.24896E-01 1.39119E-22
3.28990E-01 1.35045E-22
3.33097E-01 1.31118E-22
3.37216E-01 1.27331E-22
3.41348E-01 1.23680E-22
3.45492E-01 1.20159E-22
3.49647E-01 1.16761E-22
3.53814E-01 1.13482E-22
3.57992E-01 1.10316E-22
3.62181E-01 1.07260E-22
3.66381E-01 1.04309E-22
3.70590E-01 1.01458E-22
3.74810E-01 9.87039E-23
3.79039E-01 9.60422E-23
3.83277E-01 9.34695E-23
3.87524E-01 9.09822E-23
3.91780E-01 8.85769E-23
3.96044E-01 8.62504E-23
4.00316E-01 8.39998E-23
4.04596E-01 8.18220E-23
4.08882E-01 7.97144E-23
4.13176E-01 7.76743E-23
4.17476E-01 7.56991E-23
4.21783E-01 7.37863E-23
4.26095E-01 7.19336E-23
4.30413E-01 7.01388E-23
4.34737E-01 6.83998E-23
4.39065E-01 6.67145E-23
4.43398E-01 6.50810E-23
4.47736E-01 6.34974E-23
4.52077E-01 6.19618E-23
4.56422E-01 6.04726E-23
4.60770E-01 5.90281E-23
4.65122E-01 5.76267E-23
4.69476E-01 5.62670E-23
4.73832E-01 5.49474E-23
4.78190E-01 5.36666E-23
4.82550E-01 5.24232E-23
4.86912E-01 5.12159E-23
4.91274E-01 5.00434E-23
4.95637E-01 4.89047E-23
5.00000E-01 4.77986E-23
5.04363E-01 4.67239E-23
5.08726E-01 4.56796E-23
5.13088E-01 4.46647E-23
5.17450E-01 4.36783E-23
5.21810E-01 4.27193E-23
5.26168E-01 4.17869E-23
5.30524E-01 4.08802E-23
5.34878E-01 3.99984E-23
5.39230E-01 3.91407E-23
5.43578E-01 3.83063E-23
5.47923E-01 3.74945E-23
5.52264E-01 3.67045E-23
5.56602E-01 3.59356E-23
5.60935E-01 3.51873E-23
5.65263E-01 3.44588E-23
5.69587E-01 3.37495E-23
5.73905E-01 3.30589E-23
5.78217E-01 3.23864E-23
5.82524E-01 3.17313E-23
5.86824E-01 3.10932E-23
5.91118E-01 3.04716E-23
5.95404E-01 2.98660E-23
5.99684E-01 2.92758E-23
6.03956E-01 2.87007E-23
6.08220E-01 2.81401E-23
6.12476E-01 2.75937E-23
6.16723E-01 2.70610E-23
6.20961E-01 2.65417E-23
6.25190E-01 2.60352E-23
6.29410E-01 2.55414E-23
6.33619E-01 2.50597E-23
6.37819E-01 2.45899E-23
6.42008E-01 2.41316E-23
6.46186E-01 2.36845E-23
6.50353E-01 2.32482E-23
6.54508E-01 2.28225E-23
6.58652E-01 2.24071E-23
6.62784E-01 2.20017E-23
6.66903E-01 2.16060E-23
6.71010E-01 2.12196E-23
6.75104E-01 2.08425E-23
6.79184E-01 2.04743E-23
6.83251E-01 2.01148E-23
6.87303E-01 1.97637E-23
6.91342E-01 1.94208E-23
6.95366E-01 1.90859E-23
6.99375E-01 1.87588E-23
7.03368E-01 1.84393E-23
7.07347E-01 1.81272E-23
7.11309E-01 1.78222E-23
7.15256E-01 1.75242E-23
7.19186E-01 1.72331E-23
7.23099E-01 1.69486E-23
7.26995E-01 1.66705E-23
7.30874E-01 1.63987E-23
7.34736E-01 1.61331E-23
7.38579E-01 1.58734E-23
7.42405E-01 1.56196E-23
7.46212E-01 1.53715E-23
7.50000E-01 1.51289E-23
7.53769E-01 1.48917E-23
7.57519E-01 1.46597E-23
7.61249E-01 1.44329E-23
7.64960E-01 1.42111E-23
7.68650E-01 1.39942E-23
7.72320E-01 1.37821E-23
7.75968E-01 1.35746E-23
7.79596E-01 1.33716E-23
7.83203E-01 1.31731E-23
7.86788E-01 1.29789E-23
7.90351E-01 1.27889E-23
7.93893E-01 1.26031E-23
7.97411E-01 1.24213E-23
8.00908E-01 1.22434E-23
8.04381E-01 1.20693E-23
8.07831E-01 1.18990E-23
8.11257E-01 1.17324E-23
8.14660E-01 1.15693E-23
8.18039E-01 1.14098E-23
8.21394E-01 1.12536E-23
8.24724E-01 1.11008E-23
8.28030E-01 1.09513E-23
8.31310E-01 1.08050E-23
8.34565E-01 1.06618E-23
8.37795E-01 1.05216E-23
8.40999E-01 1.03845E-23
8.44177E-01 1.02502E-23
8.47329E-01 1.01189E-23
8.50455E-01 9.99028E-24
8.53553E-01 9.86445E-24
8.56625E-01 9.74129E-24
8.59670E-01 9.62076E-24
8.62687E-01 9.50279E-24
8.65677E-01 9.38735E-24
8.68639E-01 9.27438E-24
8.71572E-01 9.16381E-24
8.74478E-01 9.05560E-24
8.77355E-01 8.94971E-24
8.80203E-01 8.84609E-24
8.83022E-01 8.74470E-24
8.85812E-01 8.64548E-24
8.88573E-01 8.54840E-24
8.91304E-01 8.45341E-24
8.94005E-01 8.36049E-24
8.96677E-01 8.26957E-24
8.99318E-01 8.18063E-24
9.01928E-01 8.09362E-24
9.04508E-01 8.00852E-24
9.07058E-01 7.92529E-24
9.09576E-01 7.84389E-24
9.12063E-01 7.76429E-24
9.14519E-01 7.68645E-24
9.16943E-01 7.61034E-24
9.19335E-01 7.53594E-24
9.21696E-01 7.46321E-24
9.24024E-01 7.39213E-24
9.26320E-01 7.32265E-24
9.28584E-01 7.25476E-24
9.30815E-01 7.18844E-24
9.33013E-01 7.12365E-24
9.35178E-01 7.06037E-24
9.37310E-01 6.99856E-24
9.39409E-01 6.93822E-24
9.41474E-01 6.87931E-24
9.43505E-01 6.82183E-24
9.45503E-01 6.76573E-24
9.47467E-01 6.71099E-24
9.49397E-01 6.65760E-24
9.51293E-01 6.60554E-24
9.53154E-01 6.55480E-24
9.54981E-01 6.50535E-24
9.56773E-01 6.45716E-24
9.58530E-01 6.41021E-24
9.60252E-01 6.36451E-24
9.61940E-01 6.32003E-24
9.63592E-01 6.27675E-24
9.65209E-01 6.23465E-24
9.66790E-01 6.19372E-24
9.68336E-01 6.15394E-24
9.69846E-01 6.11531E-24
9.71321E-01 6.07781E-24
9.72759E-01 6.04141E-24
9.74162E-01 6.00611E-24
9.75528E-01 5.97190E-24
9.76858E-01 5.93876E-24
9.78152E-01 5.90670E-24
9.79410E-01 5.87568E-24
9.80631E-01 5.84569E-24
9.81815E-01 5.81673E-24
9.82963E-01 5.78879E-24
9.84074E-01 5.76186E-24
9.85148E-01 5.73594E-24
9.86185E-01 5.71100E-24
9.87185E-01 5.68703E-24
9.88148E-01 5.66404E-24
9.89074E-01 5.64203E-24
9.89962E-01 5.62097E-24
9.90814E-01 5.60085E-24
9.91627E-01 5.58167E-24
9.92404E-01 5.56343E-24
9.93143E-01 5.54613E-24
9.93844E-01 5.52975E-24
9.94508E-01 5.51428E-24
9.95134E-01 5.49971E-24
9.95722E-01 5.48606E-24
9.96273E-01 5.47332E-24
9.96786E-01 5.46148E-24
9.97261E-01 5.45053E-24
9.97698E-01 5.44046E-24
9.98097E-01 5.43127E-24
9.98459E-01 5.42298E-24
9.98782E-01 5.41557E-24
9.99067E-01 5.40905E-24
9.99315E-01 5.40338E-24
9.99524E-01 5.39858E-24
9.99695E-01 5.39467E-24
9.99829E-01 5.39164E-24
9.99924E-01 5.38948E-24
9.99981E-01 5.38817E-24
1.00000E+00 5.38747E-24
