 #
 # Subroutine ELSEPA. Elastic scattering of electrons and positrons
 #                    by neutral atoms and positive ions
 #
 # Projectile: positron
 # Kinetic energy = 7.00000E+07 eV = 2.57245E+06 a.u.
 #
 # WARNING: High-energy factorization with free-atom DF screening.
 #          Absorption, polarization and exchange corrections are
 #          switched off.
 #          Phase shifts are calculated for the bare nucleus.
 #          Scattering amplitudes are not evaluated.
 #
 # Element: Yb,  Z =  70,  atomic weight = 1.73040E+02 g/mol
 #
 # Nuclear model: Fermi distribution
 #                Average radius = 5.96256E-13 cm
 #                Skin thickness = 5.46000E-14 cm
 #
 # Number of electrons = 70
 #
 # Total elastic cross section = 6.98890E-18 cm**2 = 2.49578E-01 a0**2
 # 1st transport cross section = 1.78310E-24 cm**2 = 6.36757E-08 a0**2
 # 2nd transport cross section = 5.26592E-24 cm**2 = 1.88049E-07 a0**2
 #
 #
 # Differential cross section:                       MU=(1-COS(THETA))/2
 #
 #  THETA        MU          DCS          DCS        Sherman      error
 #  (deg)                 (cm**2/sr)   (a0**2/sr)    function
 #----------------------------------------------------------------------
0.00000E+00 3.31905E-10
7.61557E-13 3.31193E-10
1.18994E-12 3.30795E-10
1.71346E-12 3.30310E-10
2.33225E-12 3.29738E-10
3.04617E-12 3.29080E-10
3.85530E-12 3.28337E-10
4.75964E-12 3.27511E-10
5.75917E-12 3.26601E-10
6.85391E-12 3.25610E-10
8.04379E-12 3.24539E-10
9.32893E-12 3.23389E-10
1.07092E-11 3.22161E-10
1.21847E-11 3.20857E-10
1.37554E-11 3.19479E-10
1.54213E-11 3.18029E-10
1.71823E-11 3.16508E-10
1.90386E-11 3.14919E-10
2.09900E-11 3.13262E-10
2.30367E-11 3.11541E-10
2.51785E-11 3.09757E-10
2.74156E-11 3.07912E-10
2.97478E-11 3.06009E-10
3.21752E-11 3.04049E-10
3.46979E-11 3.02036E-10
3.73157E-11 2.99971E-10
4.00286E-11 2.97856E-10
4.28368E-11 2.95694E-10
4.57402E-11 2.93488E-10
4.87388E-11 2.91250E-10
5.18325E-11 2.88970E-10
5.50215E-11 2.86649E-10
5.83057E-11 2.84289E-10
6.16850E-11 2.81892E-10
6.51595E-11 2.79460E-10
6.87293E-11 2.76995E-10
7.23943E-11 2.74503E-10
7.61544E-11 2.72014E-10
1.18991E-10 2.46136E-10
1.71347E-10 2.19999E-10
2.33223E-10 1.95060E-10
3.04617E-10 1.72342E-10
3.85531E-10 1.52149E-10
4.75965E-10 1.34556E-10
5.75917E-10 1.19456E-10
6.85389E-10 1.06577E-10
8.04380E-10 9.55834E-11
9.32891E-10 8.61860E-11
1.07092E-09 7.81275E-11
1.21847E-09 7.11590E-11
1.37554E-09 6.50919E-11
1.54213E-09 5.97650E-11
1.71823E-09 5.50478E-11
1.90386E-09 5.08470E-11
2.09900E-09 4.70823E-11
2.30367E-09 4.36711E-11
2.51785E-09 4.05792E-11
2.74156E-09 3.77654E-11
2.97478E-09 3.51882E-11
3.21752E-09 3.28184E-11
3.46978E-09 3.06422E-11
3.73156E-09 2.86394E-11
4.00286E-09 2.67818E-11
4.28368E-09 2.50666E-11
4.57402E-09 2.34814E-11
4.87388E-09 2.18768E-11
5.18326E-09 2.04194E-11
5.50215E-09 1.91142E-11
5.83057E-09 1.79418E-11
6.16850E-09 1.68857E-11
6.51596E-09 1.59319E-11
6.87293E-09 1.50680E-11
7.23942E-09 1.42680E-11
7.61544E-09 1.33899E-11
1.18991E-08 7.69372E-12
1.71347E-08 4.72840E-12
2.33223E-08 3.05897E-12
3.04617E-08 2.04317E-12
3.85531E-08 1.40960E-12
4.75965E-08 9.99210E-13
5.75917E-08 7.24717E-13
6.85389E-08 5.37168E-13
8.04380E-08 4.06723E-13
9.32891E-08 3.13972E-13
1.07092E-07 2.46519E-13
1.21847E-07 1.96597E-13
1.37554E-07 1.58865E-13
1.54213E-07 1.29973E-13
1.71823E-07 1.07489E-13
1.90386E-07 8.97438E-14
2.09900E-07 7.55456E-14
2.30367E-07 6.40272E-14
2.51785E-07 5.46209E-14
2.74156E-07 4.68799E-14
2.97478E-07 4.04586E-14
3.21752E-07 3.50957E-14
3.46978E-07 3.05921E-14
3.73156E-07 2.67858E-14
4.00286E-07 2.35455E-14
4.28368E-07 2.07778E-14
4.57402E-07 1.84034E-14
4.87388E-07 1.63457E-14
5.18325E-07 1.45750E-14
5.50215E-07 1.30467E-14
5.83057E-07 1.17035E-14
6.16850E-07 1.05295E-14
6.51596E-07 9.50405E-15
6.87293E-07 8.59636E-15
7.23942E-07 7.79369E-15
7.61543E-07 7.08546E-15
1.18991E-06 3.03863E-15
1.71347E-06 1.51238E-15
2.33223E-06 8.35525E-16
3.04617E-06 4.98431E-16
3.85531E-06 3.15358E-16
4.75964E-06 2.09042E-16
5.75916E-06 1.43927E-16
6.85388E-06 1.02274E-16
8.04378E-06 7.46415E-17
9.32888E-06 5.57348E-17
1.07092E-05 4.24492E-17
1.21846E-05 3.28955E-17
1.37553E-05 2.58842E-17
1.54212E-05 2.06451E-17
1.71822E-05 1.66670E-17
1.90385E-05 1.35958E-17
2.09899E-05 1.12124E-17
2.30365E-05 9.32762E-18
2.51783E-05 7.82073E-18
2.74153E-05 6.60455E-18
2.97475E-05 5.61501E-18
3.21749E-05 4.80394E-18
3.46974E-05 4.13448E-18
3.73152E-05 3.57810E-18
4.00281E-05 3.11256E-18
4.28362E-05 2.72045E-18
4.57395E-05 2.38814E-18
4.87380E-05 2.10490E-18
5.18317E-05 1.86227E-18
5.50205E-05 1.65350E-18
5.83045E-05 1.47311E-18
6.16838E-05 1.31665E-18
6.51582E-05 1.18045E-18
6.87277E-05 1.06144E-18
7.23925E-05 9.57073E-19
7.61524E-05 8.65313E-19
9.21439E-05 5.91654E-19
1.09658E-04 4.18016E-19
1.28695E-04 3.03634E-19
1.49255E-04 2.25783E-19
1.71338E-04 1.71346E-19
1.94942E-04 1.32351E-19
2.20070E-04 1.03835E-19
2.46720E-04 8.25942E-20
2.74892E-04 6.65111E-20
3.04586E-04 5.41552E-20
3.35803E-04 4.45362E-20
3.68542E-04 3.69588E-20
4.02802E-04 3.09244E-20
4.38585E-04 2.60713E-20
4.75889E-04 2.21327E-20
5.14715E-04 1.89095E-20
5.55063E-04 1.62514E-20
5.96931E-04 1.40437E-20
6.40321E-04 1.21979E-20
6.85233E-04 1.06451E-20
7.31665E-04 9.33128E-21
7.79618E-04 8.21372E-21
8.29092E-04 7.25826E-21
8.80086E-04 6.43751E-21
9.32601E-04 5.72935E-21
9.86636E-04 5.11574E-21
1.04219E-03 4.58196E-21
1.09927E-03 4.11587E-21
1.15786E-03 3.70743E-21
1.21797E-03 3.34831E-21
1.27961E-03 3.03153E-21
1.34276E-03 2.75126E-21
1.40743E-03 2.50256E-21
1.47362E-03 2.28126E-21
1.54133E-03 2.08383E-21
1.61056E-03 1.90725E-21
1.68131E-03 1.74892E-21
1.75357E-03 1.60665E-21
1.82735E-03 1.47850E-21
1.90265E-03 1.36285E-21
1.97947E-03 1.25825E-21
2.05780E-03 1.16346E-21
2.13765E-03 1.07740E-21
2.21902E-03 9.99129E-22
2.30190E-03 9.27812E-22
2.38630E-03 8.62723E-22
2.47222E-03 8.03223E-22
2.55965E-03 7.48745E-22
2.64859E-03 6.98791E-22
2.73905E-03 6.52917E-22
2.83103E-03 6.10732E-22
2.92452E-03 5.71885E-22
3.01952E-03 5.36065E-22
3.11604E-03 5.02994E-22
3.21407E-03 4.72423E-22
3.31362E-03 4.44129E-22
3.41468E-03 4.17912E-22
3.51725E-03 3.93592E-22
3.62133E-03 3.71007E-22
3.72692E-03 3.50011E-22
3.83403E-03 3.30472E-22
3.94265E-03 3.12271E-22
4.05278E-03 2.95299E-22
4.16442E-03 2.79458E-22
4.27757E-03 2.64659E-22
4.39223E-03 2.50822E-22
4.50840E-03 2.37873E-22
4.62608E-03 2.25743E-22
4.74527E-03 2.14373E-22
4.86597E-03 2.03705E-22
4.98817E-03 1.93689E-22
5.11188E-03 1.84278E-22
5.23711E-03 1.75425E-22
5.36383E-03 1.67093E-22
5.49207E-03 1.59247E-22
5.62181E-03 1.51853E-22
5.75306E-03 1.44880E-22
5.88581E-03 1.38300E-22
6.02007E-03 1.32087E-22
6.15583E-03 1.26215E-22
6.29310E-03 1.20664E-22
6.43187E-03 1.15413E-22
6.57214E-03 1.10442E-22
6.71392E-03 1.05733E-22
6.85720E-03 1.01271E-22
7.00198E-03 9.70397E-23
7.14827E-03 9.30252E-23
7.29605E-03 8.92144E-23
7.44534E-03 8.55950E-23
7.59612E-03 8.21557E-23
7.97965E-03 7.42773E-23
8.37255E-03 6.73129E-23
8.77480E-03 6.11386E-23
9.18641E-03 5.56496E-23
9.60736E-03 5.07570E-23
1.00376E-02 4.63850E-23
1.04773E-02 4.24688E-23
1.09262E-02 3.89527E-23
1.13844E-02 3.57890E-23
1.18520E-02 3.29363E-23
1.23288E-02 3.03587E-23
1.28150E-02 2.80253E-23
1.33104E-02 2.59088E-23
1.38150E-02 2.39858E-23
1.43290E-02 2.22354E-23
1.48521E-02 2.06395E-23
1.53845E-02 1.91821E-23
1.59262E-02 1.78492E-23
1.64770E-02 1.66282E-23
1.70371E-02 1.55082E-23
1.76063E-02 1.44793E-23
1.81848E-02 1.35329E-23
1.87724E-02 1.26612E-23
1.93692E-02 1.18573E-23
1.99751E-02 1.11150E-23
2.05901E-02 1.04288E-23
2.12143E-02 9.79373E-24
2.18476E-02 9.20527E-24
2.24900E-02 8.65945E-24
2.31415E-02 8.15263E-24
2.38021E-02 7.68155E-24
2.44717E-02 7.24325E-24
2.51504E-02 6.83507E-24
2.58382E-02 6.45457E-24
2.65349E-02 6.09956E-24
2.72407E-02 5.76803E-24
2.79555E-02 5.45816E-24
2.86793E-02 5.16829E-24
2.94120E-02 4.89692E-24
3.01537E-02 4.64266E-24
3.09043E-02 4.40424E-24
3.16639E-02 4.18051E-24
3.24324E-02 3.97041E-24
3.32098E-02 3.77297E-24
3.39961E-02 3.58729E-24
3.47912E-02 3.41256E-24
3.55952E-02 3.24801E-24
3.64081E-02 3.09296E-24
3.72297E-02 2.94676E-24
3.80602E-02 2.80882E-24
3.88995E-02 2.67859E-24
3.97476E-02 2.55558E-24
4.06044E-02 2.43931E-24
4.14700E-02 2.32935E-24
4.23443E-02 2.22530E-24
4.32273E-02 2.12679E-24
4.41190E-02 2.03348E-24
4.50194E-02 1.94504E-24
4.59284E-02 1.86118E-24
4.68461E-02 1.78162E-24
4.87074E-02 1.63439E-24
5.06030E-02 1.50149E-24
5.25328E-02 1.38132E-24
5.44967E-02 1.27245E-24
5.64946E-02 1.17367E-24
5.85262E-02 1.08390E-24
6.05914E-02 1.00217E-24
6.26901E-02 9.27668E-25
6.48222E-02 8.59649E-25
6.69873E-02 7.97462E-25
6.91854E-02 7.40531E-25
7.14163E-02 6.88345E-25
7.36799E-02 6.40446E-25
7.59760E-02 5.96430E-25
7.83043E-02 5.55934E-25
8.06647E-02 5.18635E-25
8.30571E-02 4.84242E-25
8.54812E-02 4.52494E-25
8.79369E-02 4.23159E-25
9.04240E-02 3.96026E-25
9.29422E-02 3.70904E-25
9.54915E-02 3.47624E-25
9.80716E-02 3.26030E-25
1.00682E-01 3.05982E-25
1.03323E-01 2.87354E-25
1.05995E-01 2.70031E-25
1.08696E-01 2.53908E-25
1.11427E-01 2.38890E-25
1.14188E-01 2.24891E-25
1.16978E-01 2.11831E-25
1.19797E-01 1.99640E-25
1.22645E-01 1.88250E-25
1.25522E-01 1.77603E-25
1.28428E-01 1.67643E-25
1.31361E-01 1.58319E-25
1.34323E-01 1.49586E-25
1.37313E-01 1.41400E-25
1.40330E-01 1.33724E-25
1.43375E-01 1.26520E-25
1.46447E-01 1.19757E-25
1.49545E-01 1.13403E-25
1.52671E-01 1.07430E-25
1.55823E-01 1.01813E-25
1.59001E-01 9.65281E-26
1.62205E-01 9.15523E-26
1.65435E-01 8.68657E-26
1.68690E-01 8.24492E-26
1.71970E-01 7.82852E-26
1.75276E-01 7.43577E-26
1.78606E-01 7.06513E-26
1.81961E-01 6.71521E-26
1.85340E-01 6.38472E-26
1.88743E-01 6.07244E-26
1.92169E-01 5.77724E-26
1.95619E-01 5.49808E-26
1.99092E-01 5.23397E-26
2.02589E-01 4.98402E-26
2.06107E-01 4.74738E-26
2.09649E-01 4.52324E-26
2.13212E-01 4.31088E-26
2.16797E-01 4.10959E-26
2.20404E-01 3.91875E-26
2.24032E-01 3.73774E-26
2.27680E-01 3.56600E-26
2.31350E-01 3.40300E-26
2.35040E-01 3.24824E-26
2.38751E-01 3.10127E-26
2.42481E-01 2.96165E-26
2.46231E-01 2.82897E-26
2.50000E-01 2.70284E-26
2.53788E-01 2.58292E-26
2.57595E-01 2.46885E-26
2.61421E-01 2.36033E-26
2.65264E-01 2.25705E-26
2.69126E-01 2.15874E-26
2.73005E-01 2.06513E-26
2.76901E-01 1.97598E-26
2.80814E-01 1.89105E-26
2.84744E-01 1.81011E-26
2.88691E-01 1.73297E-26
2.92653E-01 1.65942E-26
2.96632E-01 1.58929E-26
3.00625E-01 1.52240E-26
3.04634E-01 1.45858E-26
3.08658E-01 1.39767E-26
3.12697E-01 1.33954E-26
3.16749E-01 1.28405E-26
3.20816E-01 1.23105E-26
3.24896E-01 1.18044E-26
3.28990E-01 1.13209E-26
3.33097E-01 1.08589E-26
3.37216E-01 1.04174E-26
3.41348E-01 9.99538E-27
3.45492E-01 9.59189E-27
3.49647E-01 9.20605E-27
3.53814E-01 8.83702E-27
3.57992E-01 8.48401E-27
3.62181E-01 8.14625E-27
3.66381E-01 7.82302E-27
3.70590E-01 7.51366E-27
3.74810E-01 7.21751E-27
3.79039E-01 6.93395E-27
3.83277E-01 6.66241E-27
3.87524E-01 6.40233E-27
3.91780E-01 6.15318E-27
3.96044E-01 5.91448E-27
4.00316E-01 5.68574E-27
4.04596E-01 5.46651E-27
4.08882E-01 5.25637E-27
4.13176E-01 5.05491E-27
4.17476E-01 4.86173E-27
4.21783E-01 4.67648E-27
4.26095E-01 4.49879E-27
4.30413E-01 4.32835E-27
4.34737E-01 4.16481E-27
4.39065E-01 4.00790E-27
4.43398E-01 3.85730E-27
4.47736E-01 3.71276E-27
4.52077E-01 3.57401E-27
4.56422E-01 3.44079E-27
4.60770E-01 3.31288E-27
4.65122E-01 3.19004E-27
4.69476E-01 3.07205E-27
4.73832E-01 2.95872E-27
4.78190E-01 2.84984E-27
4.82550E-01 2.74522E-27
4.86912E-01 2.64469E-27
4.91274E-01 2.54808E-27
4.95637E-01 2.45521E-27
5.00000E-01 2.36594E-27
5.04363E-01 2.28012E-27
5.08726E-01 2.19759E-27
5.13088E-01 2.11824E-27
5.17450E-01 2.04192E-27
5.21810E-01 1.96851E-27
5.26168E-01 1.89789E-27
5.30524E-01 1.82995E-27
5.34878E-01 1.76458E-27
5.39230E-01 1.70168E-27
5.43578E-01 1.64115E-27
5.47923E-01 1.58289E-27
5.52264E-01 1.52680E-27
5.56602E-01 1.47281E-27
5.60935E-01 1.42084E-27
5.65263E-01 1.37079E-27
5.69587E-01 1.32259E-27
5.73905E-01 1.27617E-27
5.78217E-01 1.23147E-27
5.82524E-01 1.18841E-27
5.86824E-01 1.14692E-27
5.91118E-01 1.10695E-27
5.95404E-01 1.06844E-27
5.99684E-01 1.03134E-27
6.03956E-01 9.95574E-28
6.08220E-01 9.61107E-28
6.12476E-01 9.27885E-28
6.16723E-01 8.95861E-28
6.20961E-01 8.64987E-28
6.25190E-01 8.35221E-28
6.29410E-01 8.06520E-28
6.33619E-01 7.78843E-28
6.37819E-01 7.52152E-28
6.42008E-01 7.26410E-28
6.46186E-01 7.01580E-28
6.50353E-01 6.77628E-28
6.54508E-01 6.54522E-28
6.58652E-01 6.32230E-28
6.62784E-01 6.10720E-28
6.66903E-01 5.89965E-28
6.71010E-01 5.69936E-28
6.75104E-01 5.50606E-28
6.79184E-01 5.31950E-28
6.83251E-01 5.13942E-28
6.87303E-01 4.96558E-28
6.91342E-01 4.79776E-28
6.95366E-01 4.63574E-28
6.99375E-01 4.47931E-28
7.03368E-01 4.32825E-28
7.07347E-01 4.18238E-28
7.11309E-01 4.04151E-28
7.15256E-01 3.90545E-28
7.19186E-01 3.77404E-28
7.23099E-01 3.64710E-28
7.26995E-01 3.52448E-28
7.30874E-01 3.40601E-28
7.34736E-01 3.29156E-28
7.38579E-01 3.18097E-28
7.42405E-01 3.07412E-28
7.46212E-01 2.97086E-28
7.50000E-01 2.87107E-28
7.53769E-01 2.77462E-28
7.57519E-01 2.68141E-28
7.61249E-01 2.59131E-28
7.64960E-01 2.50422E-28
7.68650E-01 2.42003E-28
7.72320E-01 2.33863E-28
7.75968E-01 2.25994E-28
7.79596E-01 2.18385E-28
7.83203E-01 2.11028E-28
7.86788E-01 2.03914E-28
7.90351E-01 1.97034E-28
7.93893E-01 1.90381E-28
7.97411E-01 1.83946E-28
8.00908E-01 1.77722E-28
8.04381E-01 1.71703E-28
8.07831E-01 1.65880E-28
8.11257E-01 1.60247E-28
8.14660E-01 1.54797E-28
8.18039E-01 1.49525E-28
8.21394E-01 1.44425E-28
8.24724E-01 1.39490E-28
8.28030E-01 1.34715E-28
8.31310E-01 1.30094E-28
8.34565E-01 1.25623E-28
8.37795E-01 1.21297E-28
8.40999E-01 1.17109E-28
8.44177E-01 1.13057E-28
8.47329E-01 1.09135E-28
8.50455E-01 1.05339E-28
8.53553E-01 1.01665E-28
8.56625E-01 9.81083E-29
8.59670E-01 9.46658E-29
8.62687E-01 9.13335E-29
8.65677E-01 8.81077E-29
8.68639E-01 8.49849E-29
8.71572E-01 8.19618E-29
8.74478E-01 7.90351E-29
8.77355E-01 7.62017E-29
8.80203E-01 7.34585E-29
8.83022E-01 7.08026E-29
8.85812E-01 6.82312E-29
8.88573E-01 6.57415E-29
8.91304E-01 6.33310E-29
8.94005E-01 6.09971E-29
8.96677E-01 5.87374E-29
8.99318E-01 5.65494E-29
9.01928E-01 5.44310E-29
9.04508E-01 5.23798E-29
9.07058E-01 5.03938E-29
9.09576E-01 4.84710E-29
9.12063E-01 4.66093E-29
9.14519E-01 4.48068E-29
9.16943E-01 4.30617E-29
9.19335E-01 4.13722E-29
9.21696E-01 3.97366E-29
9.24024E-01 3.81532E-29
9.26320E-01 3.66204E-29
9.28584E-01 3.51367E-29
9.30815E-01 3.37006E-29
9.33013E-01 3.23106E-29
9.35178E-01 3.09653E-29
9.37310E-01 2.96634E-29
9.39409E-01 2.84036E-29
9.41474E-01 2.71847E-29
9.43505E-01 2.60054E-29
9.45503E-01 2.48645E-29
9.47467E-01 2.37610E-29
9.49397E-01 2.26938E-29
9.51293E-01 2.16617E-29
9.53154E-01 2.06639E-29
9.54981E-01 1.96992E-29
9.56773E-01 1.87669E-29
9.58530E-01 1.78659E-29
9.60252E-01 1.69954E-29
9.61940E-01 1.61546E-29
9.63592E-01 1.53426E-29
9.65209E-01 1.45587E-29
9.66790E-01 1.38021E-29
9.68336E-01 1.30721E-29
9.69846E-01 1.23679E-29
9.71321E-01 1.16890E-29
9.72759E-01 1.10346E-29
9.74162E-01 1.04041E-29
9.75528E-01 9.79698E-30
9.76858E-01 9.21262E-30
9.78152E-01 8.65045E-30
9.79410E-01 8.10996E-30
9.80631E-01 7.59063E-30
9.81815E-01 7.09197E-30
9.82963E-01 6.61352E-30
9.84074E-01 6.15481E-30
9.85148E-01 5.71543E-30
9.86185E-01 5.29497E-30
9.87185E-01 4.89302E-30
9.88148E-01 4.50921E-30
9.89074E-01 4.14318E-30
9.89962E-01 3.79460E-30
9.90814E-01 3.46314E-30
9.91627E-01 3.14849E-30
9.92404E-01 2.85035E-30
9.93143E-01 2.56846E-30
9.93844E-01 2.30255E-30
9.94508E-01 2.05237E-30
9.95134E-01 1.81770E-30
9.95722E-01 1.59831E-30
9.96273E-01 1.39401E-30
9.96786E-01 1.20460E-30
9.97261E-01 1.02991E-30
9.97698E-01 8.69780E-31
9.98097E-01 7.24063E-31
9.98459E-01 5.92626E-31
9.98782E-01 4.75345E-31
9.99067E-01 3.72115E-31
9.99315E-01 2.82839E-31
9.99524E-01 2.07436E-31
9.99695E-01 1.45837E-31
9.99829E-01 9.79851E-32
9.99924E-01 6.38365E-32
9.99981E-01 4.33598E-32
1.00000E+00 3.65365E-32
