 #
 # Subroutine ELSEPA. Elastic scattering of electrons and positrons
 #                    by neutral atoms and positive ions
 #
 # Projectile: positron
 # Kinetic energy = 5.00000E+07 eV = 1.83747E+06 a.u.
 #
 # WARNING: High-energy factorization with free-atom DF screening.
 #          Absorption, polarization and exchange corrections are
 #          switched off.
 #          Phase shifts are calculated for the bare nucleus.
 #          Scattering amplitudes are not evaluated.
 #
 # Element: Yb,  Z =  70,  atomic weight = 1.73040E+02 g/mol
 #
 # Nuclear model: Fermi distribution
 #                Average radius = 5.96256E-13 cm
 #                Skin thickness = 5.46000E-14 cm
 #
 # Number of electrons = 70
 #
 # Total elastic cross section = 6.98426E-18 cm**2 = 2.49412E-01 a0**2
 # 1st transport cross section = 3.37096E-24 cm**2 = 1.20379E-07 a0**2
 # 2nd transport cross section = 9.89861E-24 cm**2 = 3.53486E-07 a0**2
 #
 #
 # Differential cross section:                       MU=(1-COS(THETA))/2
 #
 #  THETA        MU          DCS          DCS        Sherman      error
 #  (deg)                 (cm**2/sr)   (a0**2/sr)    function
 #----------------------------------------------------------------------
0.00000E+00 1.70323E-10
7.61557E-13 1.70135E-10
1.18994E-12 1.70029E-10
1.71346E-12 1.69901E-10
2.33225E-12 1.69750E-10
3.04617E-12 1.69575E-10
3.85530E-12 1.69378E-10
4.75964E-12 1.69158E-10
5.75917E-12 1.68916E-10
6.85391E-12 1.68651E-10
8.04379E-12 1.68364E-10
9.32893E-12 1.68055E-10
1.07092E-11 1.67724E-10
1.21847E-11 1.67371E-10
1.37554E-11 1.66997E-10
1.54213E-11 1.66602E-10
1.71823E-11 1.66187E-10
1.90386E-11 1.65750E-10
2.09900E-11 1.65294E-10
2.30367E-11 1.64817E-10
2.51785E-11 1.64321E-10
2.74156E-11 1.63806E-10
2.97478E-11 1.63271E-10
3.21752E-11 1.62718E-10
3.46979E-11 1.62147E-10
3.73157E-11 1.61557E-10
4.00286E-11 1.60951E-10
4.28368E-11 1.60326E-10
4.57402E-11 1.59686E-10
4.87388E-11 1.59028E-10
5.18325E-11 1.58355E-10
5.50215E-11 1.57666E-10
5.83057E-11 1.56962E-10
6.16850E-11 1.56243E-10
6.51595E-11 1.55510E-10
6.87293E-11 1.54762E-10
7.23943E-11 1.54002E-10
7.61544E-11 1.53228E-10
1.18991E-10 1.44884E-10
1.71347E-10 1.35705E-10
2.33223E-10 1.26115E-10
3.04617E-10 1.16474E-10
3.85531E-10 1.07072E-10
4.75965E-10 9.81236E-11
5.75917E-10 8.97677E-11
6.85389E-10 8.20816E-11
8.04380E-10 7.50983E-11
9.32891E-10 6.88074E-11
1.07092E-09 6.31649E-11
1.21847E-09 5.81218E-11
1.37554E-09 5.36217E-11
1.54213E-09 4.96065E-11
1.71823E-09 4.60200E-11
1.90386E-09 4.28094E-11
2.09900E-09 3.99271E-11
2.30367E-09 3.73306E-11
2.51785E-09 3.49824E-11
2.74156E-09 3.28504E-11
2.97478E-09 3.09066E-11
3.21752E-09 2.91253E-11
3.46978E-09 2.74874E-11
3.73156E-09 2.59763E-11
4.00286E-09 2.45775E-11
4.28368E-09 2.32787E-11
4.57402E-09 2.20694E-11
4.87388E-09 2.09406E-11
5.18326E-09 1.98847E-11
5.50215E-09 1.88948E-11
5.83057E-09 1.79654E-11
6.16850E-09 1.70914E-11
6.51596E-09 1.62684E-11
6.87293E-09 1.54920E-11
7.23942E-09 1.47580E-11
7.61544E-09 1.40649E-11
1.18991E-08 8.76007E-12
1.71347E-08 5.75901E-12
2.33223E-08 3.91851E-12
3.04617E-08 2.75122E-12
3.85531E-08 1.98440E-12
4.75965E-08 1.46356E-12
5.75917E-08 1.09947E-12
6.85389E-08 8.38959E-13
8.04380E-08 6.48747E-13
9.32891E-08 5.07929E-13
1.07092E-07 4.02643E-13
1.21847E-07 3.22956E-13
1.37554E-07 2.61949E-13
1.54213E-07 2.14724E-13
1.71823E-07 1.77772E-13
1.90386E-07 1.48551E-13
2.09900E-07 1.25226E-13
2.30367E-07 1.06405E-13
2.51785E-07 9.10033E-14
2.74156E-07 7.83610E-14
2.97478E-07 6.78985E-14
3.21752E-07 5.91625E-14
3.46978E-07 5.18133E-14
3.73156E-07 4.55847E-14
4.00286E-07 4.02701E-14
4.28368E-07 3.57086E-14
4.57402E-07 3.17737E-14
4.87388E-07 2.83645E-14
5.18325E-07 2.53991E-14
5.50215E-07 2.28107E-14
5.83057E-07 2.05433E-14
6.16850E-07 1.85504E-14
6.51596E-07 1.67928E-14
6.87293E-07 1.52373E-14
7.23942E-07 1.38559E-14
7.61543E-07 1.26264E-14
1.18991E-06 5.50618E-15
1.71347E-06 2.76997E-15
2.33223E-06 1.54174E-15
3.04617E-06 9.25170E-16
3.85531E-06 5.88511E-16
4.75964E-06 3.92052E-16
5.75916E-06 2.71097E-16
6.85388E-06 1.93372E-16
8.04378E-06 1.41584E-16
9.32888E-06 1.05999E-16
1.07092E-05 8.09066E-17
1.21846E-05 6.28088E-17
1.37553E-05 4.94925E-17
1.54212E-05 3.95208E-17
1.71822E-05 3.19365E-17
1.90385E-05 2.60730E-17
2.09899E-05 2.15170E-17
2.30365E-05 1.79110E-17
2.51783E-05 1.50257E-17
2.74153E-05 1.26953E-17
2.97475E-05 1.07982E-17
3.21749E-05 9.24242E-18
3.46974E-05 7.95768E-18
3.73152E-05 6.88949E-18
4.00281E-05 5.99537E-18
4.28362E-05 5.24201E-18
4.57395E-05 4.60329E-18
4.87380E-05 4.05873E-18
5.18317E-05 3.59209E-18
5.50205E-05 3.19040E-18
5.83045E-05 2.84324E-18
6.16838E-05 2.54204E-18
6.51582E-05 2.27974E-18
6.87277E-05 2.05049E-18
7.23925E-05 1.84938E-18
7.61524E-05 1.67241E-18
9.21439E-05 1.14460E-18
1.09658E-04 8.09356E-19
1.28695E-04 5.88312E-19
1.49255E-04 4.37735E-19
1.71338E-04 3.32369E-19
1.94942E-04 2.56844E-19
2.20070E-04 2.01580E-19
2.46720E-04 1.60397E-19
2.74892E-04 1.29199E-19
3.04586E-04 1.05223E-19
3.35803E-04 8.65512E-20
3.68542E-04 7.18380E-20
4.02802E-04 6.01181E-20
4.38585E-04 5.06901E-20
4.75889E-04 4.30371E-20
5.14715E-04 3.67732E-20
5.55063E-04 3.16067E-20
5.96931E-04 2.73149E-20
6.40321E-04 2.37263E-20
6.85233E-04 2.07070E-20
7.31665E-04 1.81523E-20
7.79618E-04 1.59788E-20
8.29092E-04 1.41206E-20
8.80086E-04 1.25242E-20
9.32601E-04 1.11468E-20
9.86636E-04 9.95315E-21
1.04219E-03 8.91477E-21
1.09927E-03 8.00805E-21
1.15786E-03 7.21345E-21
1.21797E-03 6.51478E-21
1.27961E-03 5.89848E-21
1.34276E-03 5.35319E-21
1.40743E-03 4.86931E-21
1.47362E-03 4.43875E-21
1.54133E-03 4.05462E-21
1.61056E-03 3.71104E-21
1.68131E-03 3.40299E-21
1.75357E-03 3.12616E-21
1.82735E-03 2.87683E-21
1.90265E-03 2.65180E-21
1.97947E-03 2.44828E-21
2.05780E-03 2.26385E-21
2.13765E-03 2.09641E-21
2.21902E-03 1.94412E-21
2.30190E-03 1.80536E-21
2.38630E-03 1.67872E-21
2.47222E-03 1.56295E-21
2.55965E-03 1.45696E-21
2.64859E-03 1.35977E-21
2.73905E-03 1.27052E-21
2.83103E-03 1.18844E-21
2.92452E-03 1.11286E-21
3.01952E-03 1.04317E-21
3.11604E-03 9.78834E-22
3.21407E-03 9.19358E-22
3.31362E-03 8.64312E-22
3.41468E-03 8.13308E-22
3.51725E-03 7.65995E-22
3.62133E-03 7.22057E-22
3.72692E-03 6.81211E-22
3.83403E-03 6.43200E-22
3.94265E-03 6.07790E-22
4.05278E-03 5.74773E-22
4.16442E-03 5.43956E-22
4.27757E-03 5.15168E-22
4.39223E-03 4.88250E-22
4.50840E-03 4.63057E-22
4.62608E-03 4.39461E-22
4.74527E-03 4.17341E-22
4.86597E-03 3.96587E-22
4.98817E-03 3.77101E-22
5.11188E-03 3.58791E-22
5.23711E-03 3.41572E-22
5.36383E-03 3.25368E-22
5.49207E-03 3.10108E-22
5.62181E-03 2.95727E-22
5.75306E-03 2.82165E-22
5.88581E-03 2.69367E-22
6.02007E-03 2.57282E-22
6.15583E-03 2.45863E-22
6.29310E-03 2.35067E-22
6.43187E-03 2.24853E-22
6.57214E-03 2.15184E-22
6.71392E-03 2.06026E-22
6.85720E-03 1.97346E-22
7.00198E-03 1.89116E-22
7.14827E-03 1.81308E-22
7.29605E-03 1.73895E-22
7.44534E-03 1.66855E-22
7.59612E-03 1.60165E-22
7.97965E-03 1.44841E-22
8.37255E-03 1.31293E-22
8.77480E-03 1.19282E-22
9.18641E-03 1.08604E-22
9.60736E-03 9.90863E-23
1.00376E-02 9.05804E-23
1.04773E-02 8.29586E-23
1.09262E-02 7.61152E-23
1.13844E-02 6.99570E-23
1.18520E-02 6.44037E-23
1.23288E-02 5.93856E-23
1.28150E-02 5.48423E-23
1.33104E-02 5.07210E-23
1.38150E-02 4.69758E-23
1.43290E-02 4.35665E-23
1.48521E-02 4.04577E-23
1.53845E-02 3.76183E-23
1.59262E-02 3.50209E-23
1.64770E-02 3.26413E-23
1.70371E-02 3.04581E-23
1.76063E-02 2.84522E-23
1.81848E-02 2.66067E-23
1.87724E-02 2.49066E-23
1.93692E-02 2.33384E-23
1.99751E-02 2.18901E-23
2.05901E-02 2.05508E-23
2.12143E-02 1.93111E-23
2.18476E-02 1.81621E-23
2.24900E-02 1.70961E-23
2.31415E-02 1.61060E-23
2.38021E-02 1.51855E-23
2.44717E-02 1.43288E-23
2.51504E-02 1.35307E-23
2.58382E-02 1.27866E-23
2.65349E-02 1.20921E-23
2.72407E-02 1.14433E-23
2.79555E-02 1.08367E-23
2.86793E-02 1.02691E-23
2.94120E-02 9.73748E-24
3.01537E-02 9.23924E-24
3.09043E-02 8.77187E-24
3.16639E-02 8.33314E-24
3.24324E-02 7.92098E-24
3.32098E-02 7.53349E-24
3.39961E-02 7.16895E-24
3.47912E-02 6.82576E-24
3.55952E-02 6.50244E-24
3.64081E-02 6.19765E-24
3.72297E-02 5.91013E-24
3.80602E-02 5.63874E-24
3.88995E-02 5.38241E-24
3.97476E-02 5.14016E-24
4.06044E-02 4.91108E-24
4.14700E-02 4.69433E-24
4.23443E-02 4.48914E-24
4.32273E-02 4.29477E-24
4.41190E-02 4.11056E-24
4.50194E-02 3.93588E-24
4.59284E-02 3.77015E-24
4.68461E-02 3.61284E-24
4.87074E-02 3.32149E-24
5.06030E-02 3.05821E-24
5.25328E-02 2.81984E-24
5.44967E-02 2.60366E-24
5.64946E-02 2.40725E-24
5.85262E-02 2.22851E-24
6.05914E-02 2.06559E-24
6.26901E-02 1.91686E-24
6.48222E-02 1.78088E-24
6.69873E-02 1.65639E-24
6.91854E-02 1.54225E-24
7.14163E-02 1.43746E-24
7.36799E-02 1.34113E-24
7.59760E-02 1.25247E-24
7.83043E-02 1.17077E-24
8.06647E-02 1.09539E-24
8.30571E-02 1.02576E-24
8.54812E-02 9.61380E-25
8.79369E-02 9.01784E-25
9.04240E-02 8.46560E-25
9.29422E-02 7.95337E-25
9.54915E-02 7.47777E-25
9.80716E-02 7.03577E-25
1.00682E-01 6.62461E-25
1.03323E-01 6.24180E-25
1.05995E-01 5.88507E-25
1.08696E-01 5.55236E-25
1.11427E-01 5.24180E-25
1.14188E-01 4.95168E-25
1.16978E-01 4.68045E-25
1.19797E-01 4.42667E-25
1.22645E-01 4.18905E-25
1.25522E-01 3.96640E-25
1.28428E-01 3.75762E-25
1.31361E-01 3.56173E-25
1.34323E-01 3.37779E-25
1.37313E-01 3.20497E-25
1.40330E-01 3.04249E-25
1.43375E-01 2.88964E-25
1.46447E-01 2.74575E-25
1.49545E-01 2.61022E-25
1.52671E-01 2.48250E-25
1.55823E-01 2.36206E-25
1.59001E-01 2.24842E-25
1.62205E-01 2.14114E-25
1.65435E-01 2.03982E-25
1.68690E-01 1.94406E-25
1.71970E-01 1.85353E-25
1.75276E-01 1.76789E-25
1.78606E-01 1.68683E-25
1.81961E-01 1.61008E-25
1.85340E-01 1.53737E-25
1.88743E-01 1.46846E-25
1.92169E-01 1.40312E-25
1.95619E-01 1.34114E-25
1.99092E-01 1.28232E-25
2.02589E-01 1.22648E-25
2.06107E-01 1.17344E-25
2.09649E-01 1.12304E-25
2.13212E-01 1.07513E-25
2.16797E-01 1.02957E-25
2.20404E-01 9.86228E-26
2.24032E-01 9.44983E-26
2.27680E-01 9.05717E-26
2.31350E-01 8.68321E-26
2.35040E-01 8.32695E-26
2.38751E-01 7.98742E-26
2.42481E-01 7.66372E-26
2.46231E-01 7.35503E-26
2.50000E-01 7.06053E-26
2.53788E-01 6.77949E-26
2.57595E-01 6.51122E-26
2.61421E-01 6.25504E-26
2.65264E-01 6.01033E-26
2.69126E-01 5.77653E-26
2.73005E-01 5.55306E-26
2.76901E-01 5.33941E-26
2.80814E-01 5.13510E-26
2.84744E-01 4.93966E-26
2.88691E-01 4.75265E-26
2.92653E-01 4.57366E-26
2.96632E-01 4.40229E-26
3.00625E-01 4.23819E-26
3.04634E-01 4.08101E-26
3.08658E-01 3.93040E-26
3.12697E-01 3.78607E-26
3.16749E-01 3.64771E-26
3.20816E-01 3.51505E-26
3.24896E-01 3.38782E-26
3.28990E-01 3.26577E-26
3.33097E-01 3.14866E-26
3.37216E-01 3.03627E-26
3.41348E-01 2.92838E-26
3.45492E-01 2.82479E-26
3.49647E-01 2.72530E-26
3.53814E-01 2.62974E-26
3.57992E-01 2.53792E-26
3.62181E-01 2.44969E-26
3.66381E-01 2.36488E-26
3.70590E-01 2.28335E-26
3.74810E-01 2.20495E-26
3.79039E-01 2.12955E-26
3.83277E-01 2.05702E-26
3.87524E-01 1.98724E-26
3.91780E-01 1.92009E-26
3.96044E-01 1.85546E-26
4.00316E-01 1.79324E-26
4.04596E-01 1.73333E-26
4.08882E-01 1.67564E-26
4.13176E-01 1.62007E-26
4.17476E-01 1.56654E-26
4.21783E-01 1.51497E-26
4.26095E-01 1.46527E-26
4.30413E-01 1.41736E-26
4.34737E-01 1.37118E-26
4.39065E-01 1.32666E-26
4.43398E-01 1.28372E-26
4.47736E-01 1.24231E-26
4.52077E-01 1.20237E-26
4.56422E-01 1.16384E-26
4.60770E-01 1.12665E-26
4.65122E-01 1.09077E-26
4.69476E-01 1.05614E-26
4.73832E-01 1.02271E-26
4.78190E-01 9.90428E-27
4.82550E-01 9.59260E-27
4.86912E-01 9.29161E-27
4.91274E-01 9.00088E-27
4.95637E-01 8.72004E-27
5.00000E-01 8.44871E-27
5.04363E-01 8.18653E-27
5.08726E-01 7.93316E-27
5.13088E-01 7.68827E-27
5.17450E-01 7.45155E-27
5.21810E-01 7.22270E-27
5.26168E-01 7.00142E-27
5.30524E-01 6.78745E-27
5.34878E-01 6.58051E-27
5.39230E-01 6.38034E-27
5.43578E-01 6.18671E-27
5.47923E-01 5.99938E-27
5.52264E-01 5.81812E-27
5.56602E-01 5.64271E-27
5.60935E-01 5.47295E-27
5.65263E-01 5.30863E-27
5.69587E-01 5.14957E-27
5.73905E-01 4.99557E-27
5.78217E-01 4.84647E-27
5.82524E-01 4.70208E-27
5.86824E-01 4.56225E-27
5.91118E-01 4.42682E-27
5.95404E-01 4.29563E-27
5.99684E-01 4.16854E-27
6.03956E-01 4.04541E-27
6.08220E-01 3.92610E-27
6.12476E-01 3.81048E-27
6.16723E-01 3.69844E-27
6.20961E-01 3.58984E-27
6.25190E-01 3.48457E-27
6.29410E-01 3.38252E-27
6.33619E-01 3.28358E-27
6.37819E-01 3.18764E-27
6.42008E-01 3.09462E-27
6.46186E-01 3.00440E-27
6.50353E-01 2.91691E-27
6.54508E-01 2.83204E-27
6.58652E-01 2.74972E-27
6.62784E-01 2.66986E-27
6.66903E-01 2.59237E-27
6.71010E-01 2.51719E-27
6.75104E-01 2.44424E-27
6.79184E-01 2.37344E-27
6.83251E-01 2.30473E-27
6.87303E-01 2.23803E-27
6.91342E-01 2.17330E-27
6.95366E-01 2.11045E-27
6.99375E-01 2.04944E-27
7.03368E-01 1.99021E-27
7.07347E-01 1.93269E-27
7.11309E-01 1.87684E-27
7.15256E-01 1.82260E-27
7.19186E-01 1.76993E-27
7.23099E-01 1.71876E-27
7.26995E-01 1.66907E-27
7.30874E-01 1.62079E-27
7.34736E-01 1.57390E-27
7.38579E-01 1.52834E-27
7.42405E-01 1.48407E-27
7.46212E-01 1.44105E-27
7.50000E-01 1.39926E-27
7.53769E-01 1.35864E-27
7.57519E-01 1.31917E-27
7.61249E-01 1.28080E-27
7.64960E-01 1.24351E-27
7.68650E-01 1.20727E-27
7.72320E-01 1.17203E-27
7.75968E-01 1.13778E-27
7.79596E-01 1.10448E-27
7.83203E-01 1.07211E-27
7.86788E-01 1.04063E-27
7.90351E-01 1.01003E-27
7.93893E-01 9.80266E-28
7.97411E-01 9.51325E-28
8.00908E-01 9.23180E-28
8.04381E-01 8.95809E-28
8.07831E-01 8.69188E-28
8.11257E-01 8.43296E-28
8.14660E-01 8.18112E-28
8.18039E-01 7.93615E-28
8.21394E-01 7.69786E-28
8.24724E-01 7.46606E-28
8.28030E-01 7.24057E-28
8.31310E-01 7.02119E-28
8.34565E-01 6.80776E-28
8.37795E-01 6.60012E-28
8.40999E-01 6.39809E-28
8.44177E-01 6.20153E-28
8.47329E-01 6.01027E-28
8.50455E-01 5.82417E-28
8.53553E-01 5.64309E-28
8.56625E-01 5.46689E-28
8.59670E-01 5.29543E-28
8.62687E-01 5.12858E-28
8.65677E-01 4.96622E-28
8.68639E-01 4.80822E-28
8.71572E-01 4.65447E-28
8.74478E-01 4.50485E-28
8.77355E-01 4.35924E-28
8.80203E-01 4.21755E-28
8.83022E-01 4.07966E-28
8.85812E-01 3.94548E-28
8.88573E-01 3.81490E-28
8.91304E-01 3.68783E-28
8.94005E-01 3.56418E-28
8.96677E-01 3.44386E-28
8.99318E-01 3.32678E-28
9.01928E-01 3.21285E-28
9.04508E-01 3.10200E-28
9.07058E-01 2.99414E-28
9.09576E-01 2.88920E-28
9.12063E-01 2.78710E-28
9.14519E-01 2.68778E-28
9.16943E-01 2.59116E-28
9.19335E-01 2.49717E-28
9.21696E-01 2.40574E-28
9.24024E-01 2.31682E-28
9.26320E-01 2.23035E-28
9.28584E-01 2.14625E-28
9.30815E-01 2.06448E-28
9.33013E-01 1.98497E-28
9.35178E-01 1.90768E-28
9.37310E-01 1.83255E-28
9.39409E-01 1.75952E-28
9.41474E-01 1.68855E-28
9.43505E-01 1.61960E-28
9.45503E-01 1.55260E-28
9.47467E-01 1.48753E-28
9.49397E-01 1.42433E-28
9.51293E-01 1.36296E-28
9.53154E-01 1.30338E-28
9.54981E-01 1.24555E-28
9.56773E-01 1.18944E-28
9.58530E-01 1.13500E-28
9.60252E-01 1.08220E-28
9.61940E-01 1.03100E-28
9.63592E-01 9.81376E-29
9.65209E-01 9.33288E-29
9.66790E-01 8.86705E-29
9.68336E-01 8.41599E-29
9.69846E-01 7.97939E-29
9.71321E-01 7.55696E-29
9.72759E-01 7.14844E-29
9.74162E-01 6.75355E-29
9.75528E-01 6.37204E-29
9.76858E-01 6.00367E-29
9.78152E-01 5.64820E-29
9.79410E-01 5.30539E-29
9.80631E-01 4.97503E-29
9.81815E-01 4.65691E-29
9.82963E-01 4.35082E-29
9.84074E-01 4.05656E-29
9.85148E-01 3.77395E-29
9.86185E-01 3.50281E-29
9.87185E-01 3.24297E-29
9.88148E-01 2.99425E-29
9.89074E-01 2.75651E-29
9.89962E-01 2.52959E-29
9.90814E-01 2.31335E-29
9.91627E-01 2.10765E-29
9.92404E-01 1.91236E-29
9.93143E-01 1.72736E-29
9.93844E-01 1.55253E-29
9.94508E-01 1.38776E-29
9.95134E-01 1.23296E-29
9.95722E-01 1.08801E-29
9.96273E-01 9.52838E-30
9.96786E-01 8.27349E-30
9.97261E-01 7.11468E-30
9.97698E-01 6.05121E-30
9.98097E-01 5.08243E-30
9.98459E-01 4.20773E-30
9.98782E-01 3.42656E-30
9.99067E-01 2.73843E-30
9.99315E-01 2.14292E-30
9.99524E-01 1.63965E-30
9.99695E-01 1.22832E-30
9.99829E-01 9.08653E-31
9.99924E-01 6.80464E-31
9.99981E-01 5.43607E-31
1.00000E+00 4.97998E-31
