 #
 # Subroutine ELSEPA. Elastic scattering of electrons and positrons
 #                    by neutral atoms and positive ions
 #
 # Projectile: positron
 # Kinetic energy = 5.00000E+06 eV = 1.83747E+05 a.u.
 #
 # WARNING: High-energy factorization with free-atom DF screening.
 #          Absorption, polarization and exchange corrections are
 #          switched off.
 #          Phase shifts are calculated for the bare nucleus.
 #          Scattering amplitudes are not evaluated.
 #
 # Element: Yb,  Z =  70,  atomic weight = 1.73040E+02 g/mol
 #
 # Nuclear model: Fermi distribution
 #                Average radius = 5.96256E-13 cm
 #                Skin thickness = 5.46000E-14 cm
 #
 # Number of electrons = 70
 #
 # Total elastic cross section = 7.05318E-18 cm**2 = 2.51874E-01 a0**2
 # 1st transport cross section = 1.99830E-22 cm**2 = 7.13605E-06 a0**2
 # 2nd transport cross section = 5.74873E-22 cm**2 = 2.05291E-05 a0**2
 #
 #
 # Differential cross section:                       MU=(1-COS(THETA))/2
 #
 #  THETA        MU          DCS          DCS        Sherman      error
 #  (deg)                 (cm**2/sr)   (a0**2/sr)    function
 #----------------------------------------------------------------------
0.00000E+00 2.02750E-12
7.61557E-13 2.02747E-12
1.18994E-12 2.02746E-12
1.71346E-12 2.02744E-12
2.33225E-12 2.02741E-12
3.04617E-12 2.02739E-12
3.85530E-12 2.02736E-12
4.75964E-12 2.02733E-12
5.75917E-12 2.02729E-12
6.85391E-12 2.02725E-12
8.04379E-12 2.02721E-12
9.32893E-12 2.02717E-12
1.07092E-11 2.02712E-12
1.21847E-11 2.02707E-12
1.37554E-11 2.02701E-12
1.54213E-11 2.02695E-12
1.71823E-11 2.02689E-12
1.90386E-11 2.02683E-12
2.09900E-11 2.02676E-12
2.30367E-11 2.02669E-12
2.51785E-11 2.02662E-12
2.74156E-11 2.02654E-12
2.97478E-11 2.02646E-12
3.21752E-11 2.02637E-12
3.46979E-11 2.02628E-12
3.73157E-11 2.02619E-12
4.00286E-11 2.02610E-12
4.28368E-11 2.02600E-12
4.57402E-11 2.02590E-12
4.87388E-11 2.02580E-12
5.18325E-11 2.02569E-12
5.50215E-11 2.02558E-12
5.83057E-11 2.02547E-12
6.16850E-11 2.02535E-12
6.51595E-11 2.02523E-12
6.87293E-11 2.02510E-12
7.23943E-11 2.02498E-12
7.61544E-11 2.02485E-12
1.18991E-10 2.02337E-12
1.71347E-10 2.02156E-12
2.33223E-10 2.01943E-12
3.04617E-10 2.01698E-12
3.85531E-10 2.01421E-12
4.75965E-10 2.01113E-12
5.75917E-10 2.00773E-12
6.85389E-10 2.00401E-12
8.04380E-10 1.99999E-12
9.32891E-10 1.99566E-12
1.07092E-09 1.99103E-12
1.21847E-09 1.98610E-12
1.37554E-09 1.98087E-12
1.54213E-09 1.97536E-12
1.71823E-09 1.96955E-12
1.90386E-09 1.96347E-12
2.09900E-09 1.95711E-12
2.30367E-09 1.95047E-12
2.51785E-09 1.94357E-12
2.74156E-09 1.93641E-12
2.97478E-09 1.92899E-12
3.21752E-09 1.92132E-12
3.46978E-09 1.91340E-12
3.73156E-09 1.90525E-12
4.00286E-09 1.89686E-12
4.28368E-09 1.88824E-12
4.57402E-09 1.87940E-12
4.87388E-09 1.87034E-12
5.18326E-09 1.86108E-12
5.50215E-09 1.85162E-12
5.83057E-09 1.84195E-12
6.16850E-09 1.83210E-12
6.51596E-09 1.82207E-12
6.87293E-09 1.81186E-12
7.23942E-09 1.80148E-12
7.61544E-09 1.79094E-12
1.18991E-08 1.67804E-12
1.71347E-08 1.55614E-12
2.33223E-08 1.43122E-12
3.04617E-08 1.30821E-12
3.85531E-08 1.19077E-12
4.75965E-08 1.08133E-12
5.75917E-08 9.81201E-13
6.85389E-08 8.90850E-13
8.04380E-08 8.10123E-13
9.32891E-08 7.38464E-13
1.07092E-07 6.75091E-13
1.21847E-07 6.19123E-13
1.37554E-07 5.69671E-13
1.54213E-07 5.25888E-13
1.71823E-07 4.87003E-13
1.90386E-07 4.52332E-13
2.09900E-07 4.21277E-13
2.30367E-07 3.93330E-13
2.51785E-07 3.68056E-13
2.74156E-07 3.45090E-13
2.97478E-07 3.24126E-13
3.21752E-07 3.04906E-13
3.46978E-07 2.87216E-13
3.73156E-07 2.70876E-13
4.00286E-07 2.55734E-13
4.28368E-07 2.41663E-13
4.57402E-07 2.28556E-13
4.87388E-07 2.16319E-13
5.18325E-07 2.04874E-13
5.50215E-07 1.94154E-13
5.83057E-07 1.84098E-13
6.16850E-07 1.74654E-13
6.51596E-07 1.65778E-13
6.87293E-07 1.57427E-13
7.23942E-07 1.49565E-13
7.61543E-07 1.42159E-13
1.18991E-06 8.75860E-14
1.71347E-06 5.63064E-14
2.33223E-06 3.76908E-14
3.04617E-06 2.61244E-14
3.85531E-06 1.86278E-14
4.75964E-06 1.35896E-14
5.75916E-06 1.01044E-14
6.85388E-06 7.63892E-15
8.04378E-06 5.86330E-15
9.32888E-06 4.56509E-15
1.07092E-05 3.60293E-15
1.21846E-05 2.88055E-15
1.37553E-05 2.33127E-15
1.54212E-05 1.90834E-15
1.71822E-05 1.57867E-15
1.90385E-05 1.31862E-15
2.09899E-05 1.11108E-15
2.30365E-05 9.43655E-16
2.51783E-05 8.07209E-16
2.74153E-05 6.94964E-16
2.97475E-05 6.01830E-16
3.21749E-05 5.23945E-16
3.46974E-05 4.58348E-16
3.73152E-05 4.02741E-16
4.00281E-05 3.55324E-16
4.28362E-05 3.14676E-16
4.57395E-05 2.79659E-16
4.87380E-05 2.49357E-16
5.18317E-05 2.23026E-16
5.50205E-05 2.00059E-16
5.83045E-05 1.79954E-16
6.16838E-05 1.62295E-16
6.51582E-05 1.46735E-16
6.87277E-05 1.32985E-16
7.23925E-05 1.20800E-16
7.61524E-05 1.09971E-16
9.21439E-05 7.70685E-17
1.09658E-04 5.55789E-17
1.28695E-04 4.10781E-17
1.49255E-04 3.10119E-17
1.71338E-04 2.38491E-17
1.94942E-04 1.86404E-17
2.20070E-04 1.47796E-17
2.46720E-04 1.18688E-17
2.74892E-04 9.64059E-18
3.04586E-04 7.91158E-18
3.35803E-04 6.55324E-18
3.68542E-04 5.47411E-18
4.02802E-04 4.60802E-18
4.38585E-04 3.90641E-18
4.75889E-04 3.33315E-18
5.14715E-04 2.86107E-18
5.55063E-04 2.46948E-18
5.96931E-04 2.14246E-18
6.40321E-04 1.86766E-18
6.85233E-04 1.63540E-18
7.31665E-04 1.43802E-18
7.79618E-04 1.26943E-18
8.29092E-04 1.12476E-18
8.80086E-04 1.00004E-18
9.32601E-04 8.92073E-19
9.86636E-04 7.98239E-19
1.04219E-03 7.16379E-19
1.09927E-03 6.44711E-19
1.15786E-03 5.81753E-19
1.21797E-03 5.26268E-19
1.27961E-03 4.77220E-19
1.34276E-03 4.33736E-19
1.40743E-03 3.95077E-19
1.47362E-03 3.60617E-19
1.54133E-03 3.29821E-19
1.61056E-03 3.02233E-19
1.68131E-03 2.77461E-19
1.75357E-03 2.55167E-19
1.82735E-03 2.35062E-19
1.90265E-03 2.16892E-19
1.97947E-03 2.00439E-19
2.05780E-03 1.85512E-19
2.13765E-03 1.71945E-19
2.21902E-03 1.59592E-19
2.30190E-03 1.48325E-19
2.38630E-03 1.38032E-19
2.47222E-03 1.28614E-19
2.55965E-03 1.19983E-19
2.64859E-03 1.12062E-19
2.73905E-03 1.04781E-19
2.83103E-03 9.80809E-20
2.92452E-03 9.19057E-20
3.01952E-03 8.62073E-20
3.11604E-03 8.09421E-20
3.21407E-03 7.60716E-20
3.31362E-03 7.15606E-20
3.41468E-03 6.73777E-20
3.51725E-03 6.34951E-20
3.62133E-03 5.98870E-20
3.72692E-03 5.65306E-20
3.83403E-03 5.34052E-20
3.94265E-03 5.04919E-20
4.05278E-03 4.77738E-20
4.16442E-03 4.52354E-20
4.27757E-03 4.28626E-20
4.39223E-03 4.06428E-20
4.50840E-03 3.85641E-20
4.62608E-03 3.66161E-20
4.74527E-03 3.47890E-20
4.86597E-03 3.30739E-20
4.98817E-03 3.14627E-20
5.11188E-03 2.99479E-20
5.23711E-03 2.85228E-20
5.36383E-03 2.71811E-20
5.49207E-03 2.59169E-20
5.62181E-03 2.47250E-20
5.75306E-03 2.36005E-20
5.88581E-03 2.25388E-20
6.02007E-03 2.15359E-20
6.15583E-03 2.05878E-20
6.29310E-03 1.96911E-20
6.43187E-03 1.88423E-20
6.57214E-03 1.80386E-20
6.71392E-03 1.72770E-20
6.85720E-03 1.65549E-20
7.00198E-03 1.58700E-20
7.14827E-03 1.52199E-20
7.29605E-03 1.46026E-20
7.44534E-03 1.40160E-20
7.59612E-03 1.34585E-20
7.97965E-03 1.21805E-20
8.37255E-03 1.10497E-20
8.77480E-03 1.00464E-20
9.18641E-03 9.15377E-21
9.60736E-03 8.35746E-21
1.00376E-02 7.64532E-21
1.04773E-02 7.00695E-21
1.09262E-02 6.43338E-21
1.13844E-02 5.91692E-21
1.18520E-02 5.45089E-21
1.23288E-02 5.02952E-21
1.28150E-02 4.64779E-21
1.33104E-02 4.30134E-21
1.38150E-02 3.98632E-21
1.43290E-02 3.69940E-21
1.48521E-02 3.43763E-21
1.53845E-02 3.19843E-21
1.59262E-02 2.97951E-21
1.64770E-02 2.77884E-21
1.70371E-02 2.59465E-21
1.76063E-02 2.42533E-21
1.81848E-02 2.26949E-21
1.87724E-02 2.12585E-21
1.93692E-02 1.99330E-21
1.99751E-02 1.87083E-21
2.05901E-02 1.75754E-21
2.12143E-02 1.65261E-21
2.18476E-02 1.55533E-21
2.24900E-02 1.46503E-21
2.31415E-02 1.38113E-21
2.38021E-02 1.30309E-21
2.44717E-02 1.23043E-21
2.51504E-02 1.16271E-21
2.58382E-02 1.09954E-21
2.65349E-02 1.04056E-21
2.72407E-02 9.85446E-22
2.79555E-02 9.33891E-22
2.86793E-02 8.85628E-22
2.94120E-02 8.40410E-22
3.01537E-02 7.98010E-22
3.09043E-02 7.58222E-22
3.16639E-02 7.20855E-22
3.24324E-02 6.85736E-22
3.32098E-02 6.52706E-22
3.39961E-02 6.21618E-22
3.47912E-02 5.92338E-22
3.55952E-02 5.64741E-22
3.64081E-02 5.38714E-22
3.72297E-02 5.14152E-22
3.80602E-02 4.90957E-22
3.88995E-02 4.69039E-22
3.97476E-02 4.48316E-22
4.06044E-02 4.28710E-22
4.14700E-02 4.10152E-22
4.23443E-02 3.92574E-22
4.32273E-02 3.75916E-22
4.41190E-02 3.60121E-22
4.50194E-02 3.45136E-22
4.59284E-02 3.30912E-22
4.68461E-02 3.17404E-22
4.87074E-02 2.92367E-22
5.06030E-02 2.69719E-22
5.25328E-02 2.49194E-22
5.44967E-02 2.30559E-22
5.64946E-02 2.13610E-22
5.85262E-02 1.98169E-22
6.05914E-02 1.84078E-22
6.26901E-02 1.71200E-22
6.48222E-02 1.59413E-22
6.69873E-02 1.48607E-22
6.91854E-02 1.38689E-22
7.14163E-02 1.29571E-22
7.36799E-02 1.21179E-22
7.59760E-02 1.13445E-22
7.83043E-02 1.06307E-22
8.06647E-02 9.97138E-23
8.30571E-02 9.36149E-23
8.54812E-02 8.79675E-23
8.79369E-02 8.27323E-23
9.04240E-02 7.78740E-23
9.29422E-02 7.33607E-23
9.54915E-02 6.91639E-23
9.80716E-02 6.52573E-23
1.00682E-01 6.16177E-23
1.03323E-01 5.82234E-23
1.05995E-01 5.50552E-23
1.08696E-01 5.20954E-23
1.11427E-01 4.93279E-23
1.14188E-01 4.67381E-23
1.16978E-01 4.43125E-23
1.19797E-01 4.20389E-23
1.22645E-01 3.99063E-23
1.25522E-01 3.79043E-23
1.28428E-01 3.60235E-23
1.31361E-01 3.42554E-23
1.34323E-01 3.25920E-23
1.37313E-01 3.10260E-23
1.40330E-01 2.95508E-23
1.43375E-01 2.81602E-23
1.46447E-01 2.68485E-23
1.49545E-01 2.56104E-23
1.52671E-01 2.44411E-23
1.55823E-01 2.33361E-23
1.59001E-01 2.22912E-23
1.62205E-01 2.13027E-23
1.65435E-01 2.03670E-23
1.68690E-01 1.94807E-23
1.71970E-01 1.86407E-23
1.75276E-01 1.78444E-23
1.78606E-01 1.70889E-23
1.81961E-01 1.63718E-23
1.85340E-01 1.56909E-23
1.88743E-01 1.50440E-23
1.92169E-01 1.44291E-23
1.95619E-01 1.38443E-23
1.99092E-01 1.32880E-23
2.02589E-01 1.27585E-23
2.06107E-01 1.22542E-23
2.09649E-01 1.17738E-23
2.13212E-01 1.13160E-23
2.16797E-01 1.08795E-23
2.20404E-01 1.04631E-23
2.24032E-01 1.00658E-23
2.27680E-01 9.68646E-24
2.31350E-01 9.32423E-24
2.35040E-01 8.97817E-24
2.38751E-01 8.64743E-24
2.42481E-01 8.33123E-24
2.46231E-01 8.02881E-24
2.50000E-01 7.73946E-24
2.53788E-01 7.46253E-24
2.57595E-01 7.19739E-24
2.61421E-01 6.94346E-24
2.65264E-01 6.70017E-24
2.69126E-01 6.46701E-24
2.73005E-01 6.24348E-24
2.76901E-01 6.02912E-24
2.80814E-01 5.82349E-24
2.84744E-01 5.62616E-24
2.88691E-01 5.43675E-24
2.92653E-01 5.25489E-24
2.96632E-01 5.08022E-24
3.00625E-01 4.91241E-24
3.04634E-01 4.75114E-24
3.08658E-01 4.59612E-24
3.12697E-01 4.44706E-24
3.16749E-01 4.30370E-24
3.20816E-01 4.16579E-24
3.24896E-01 4.03306E-24
3.28990E-01 3.90531E-24
3.33097E-01 3.78231E-24
3.37216E-01 3.66385E-24
3.41348E-01 3.54975E-24
3.45492E-01 3.43982E-24
3.49647E-01 3.33385E-24
3.53814E-01 3.23171E-24
3.57992E-01 3.13322E-24
3.62181E-01 3.03824E-24
3.66381E-01 2.94662E-24
3.70590E-01 2.85821E-24
3.74810E-01 2.77289E-24
3.79039E-01 2.69053E-24
3.83277E-01 2.61101E-24
3.87524E-01 2.53422E-24
3.91780E-01 2.46005E-24
3.96044E-01 2.38838E-24
4.00316E-01 2.31914E-24
4.04596E-01 2.25221E-24
4.08882E-01 2.18751E-24
4.13176E-01 2.12495E-24
4.17476E-01 2.06445E-24
4.21783E-01 2.00594E-24
4.26095E-01 1.94933E-24
4.30413E-01 1.89455E-24
4.34737E-01 1.84153E-24
4.39065E-01 1.79021E-24
4.43398E-01 1.74052E-24
4.47736E-01 1.69241E-24
4.52077E-01 1.64582E-24
4.56422E-01 1.60068E-24
4.60770E-01 1.55695E-24
4.65122E-01 1.51458E-24
4.69476E-01 1.47351E-24
4.73832E-01 1.43371E-24
4.78190E-01 1.39512E-24
4.82550E-01 1.35770E-24
4.86912E-01 1.32141E-24
4.91274E-01 1.28621E-24
4.95637E-01 1.25207E-24
5.00000E-01 1.21894E-24
5.04363E-01 1.18679E-24
5.08726E-01 1.15560E-24
5.13088E-01 1.12531E-24
5.17450E-01 1.09591E-24
5.21810E-01 1.06737E-24
5.26168E-01 1.03965E-24
5.30524E-01 1.01273E-24
5.34878E-01 9.86574E-25
5.39230E-01 9.61169E-25
5.43578E-01 9.36484E-25
5.47923E-01 9.12498E-25
5.52264E-01 8.89186E-25
5.56602E-01 8.66526E-25
5.60935E-01 8.44498E-25
5.65263E-01 8.23082E-25
5.69587E-01 8.02257E-25
5.73905E-01 7.82004E-25
5.78217E-01 7.62307E-25
5.82524E-01 7.43147E-25
5.86824E-01 7.24507E-25
5.91118E-01 7.06371E-25
5.95404E-01 6.88723E-25
5.99684E-01 6.71549E-25
6.03956E-01 6.54833E-25
6.08220E-01 6.38562E-25
6.12476E-01 6.22722E-25
6.16723E-01 6.07300E-25
6.20961E-01 5.92283E-25
6.25190E-01 5.77659E-25
6.29410E-01 5.63416E-25
6.33619E-01 5.49543E-25
6.37819E-01 5.36029E-25
6.42008E-01 5.22864E-25
6.46186E-01 5.10036E-25
6.50353E-01 4.97537E-25
6.54508E-01 4.85356E-25
6.58652E-01 4.73484E-25
6.62784E-01 4.61913E-25
6.66903E-01 4.50633E-25
6.71010E-01 4.39637E-25
6.75104E-01 4.28916E-25
6.79184E-01 4.18462E-25
6.83251E-01 4.08269E-25
6.87303E-01 3.98327E-25
6.91342E-01 3.88632E-25
6.95366E-01 3.79175E-25
6.99375E-01 3.69950E-25
7.03368E-01 3.60950E-25
7.07347E-01 3.52170E-25
7.11309E-01 3.43604E-25
7.15256E-01 3.35244E-25
7.19186E-01 3.27087E-25
7.23099E-01 3.19126E-25
7.26995E-01 3.11356E-25
7.30874E-01 3.03773E-25
7.34736E-01 2.96370E-25
7.38579E-01 2.89144E-25
7.42405E-01 2.82089E-25
7.46212E-01 2.75201E-25
7.50000E-01 2.68475E-25
7.53769E-01 2.61908E-25
7.57519E-01 2.55496E-25
7.61249E-01 2.49233E-25
7.64960E-01 2.43117E-25
7.68650E-01 2.37144E-25
7.72320E-01 2.31309E-25
7.75968E-01 2.25610E-25
7.79596E-01 2.20043E-25
7.83203E-01 2.14605E-25
7.86788E-01 2.09292E-25
7.90351E-01 2.04102E-25
7.93893E-01 1.99031E-25
7.97411E-01 1.94076E-25
8.00908E-01 1.89234E-25
8.04381E-01 1.84503E-25
8.07831E-01 1.79880E-25
8.11257E-01 1.75363E-25
8.14660E-01 1.70948E-25
8.18039E-01 1.66633E-25
8.21394E-01 1.62417E-25
8.24724E-01 1.58295E-25
8.28030E-01 1.54268E-25
8.31310E-01 1.50331E-25
8.34565E-01 1.46483E-25
8.37795E-01 1.42722E-25
8.40999E-01 1.39046E-25
8.44177E-01 1.35453E-25
8.47329E-01 1.31940E-25
8.50455E-01 1.28506E-25
8.53553E-01 1.25150E-25
8.56625E-01 1.21869E-25
8.59670E-01 1.18662E-25
8.62687E-01 1.15528E-25
8.65677E-01 1.12463E-25
8.68639E-01 1.09468E-25
8.71572E-01 1.06541E-25
8.74478E-01 1.03679E-25
8.77355E-01 1.00882E-25
8.80203E-01 9.81479E-26
8.83022E-01 9.54758E-26
8.85812E-01 9.28642E-26
8.88573E-01 9.03117E-26
8.91304E-01 8.78172E-26
8.94005E-01 8.53794E-26
8.96677E-01 8.29972E-26
8.99318E-01 8.06693E-26
9.01928E-01 7.83947E-26
9.04508E-01 7.61723E-26
9.07058E-01 7.40010E-26
9.09576E-01 7.18798E-26
9.12063E-01 6.98077E-26
9.14519E-01 6.77837E-26
9.16943E-01 6.58068E-26
9.19335E-01 6.38762E-26
9.21696E-01 6.19910E-26
9.24024E-01 6.01502E-26
9.26320E-01 5.83531E-26
9.28584E-01 5.65988E-26
9.30815E-01 5.48865E-26
9.33013E-01 5.32154E-26
9.35178E-01 5.15848E-26
9.37310E-01 4.99940E-26
9.39409E-01 4.84422E-26
9.41474E-01 4.69287E-26
9.43505E-01 4.54529E-26
9.45503E-01 4.40141E-26
9.47467E-01 4.26117E-26
9.49397E-01 4.12450E-26
9.51293E-01 3.99135E-26
9.53154E-01 3.86166E-26
9.54981E-01 3.73537E-26
9.56773E-01 3.61242E-26
9.58530E-01 3.49277E-26
9.60252E-01 3.37635E-26
9.61940E-01 3.26313E-26
9.63592E-01 3.15306E-26
9.65209E-01 3.04607E-26
9.66790E-01 2.94214E-26
9.68336E-01 2.84121E-26
9.69846E-01 2.74325E-26
9.71321E-01 2.64821E-26
9.72759E-01 2.55605E-26
9.74162E-01 2.46673E-26
9.75528E-01 2.38022E-26
9.76858E-01 2.29647E-26
9.78152E-01 2.21546E-26
9.79410E-01 2.13716E-26
9.80631E-01 2.06152E-26
9.81815E-01 1.98852E-26
9.82963E-01 1.91812E-26
9.84074E-01 1.85030E-26
9.85148E-01 1.78504E-26
9.86185E-01 1.72229E-26
9.87185E-01 1.66204E-26
9.88148E-01 1.60427E-26
9.89074E-01 1.54895E-26
9.89962E-01 1.49605E-26
9.90814E-01 1.44555E-26
9.91627E-01 1.39745E-26
9.92404E-01 1.35170E-26
9.93143E-01 1.30831E-26
9.93844E-01 1.26724E-26
9.94508E-01 1.22848E-26
9.95134E-01 1.19203E-26
9.95722E-01 1.15785E-26
9.96273E-01 1.12594E-26
9.96786E-01 1.09629E-26
9.97261E-01 1.06888E-26
9.97698E-01 1.04371E-26
9.98097E-01 1.02076E-26
9.98459E-01 1.00002E-26
9.98782E-01 9.81485E-27
9.99067E-01 9.65149E-27
9.99315E-01 9.51004E-27
9.99524E-01 9.39045E-27
9.99695E-01 9.29267E-27
9.99829E-01 9.21666E-27
9.99924E-01 9.16239E-27
9.99981E-01 9.12984E-27
1.00000E+00 9.11899E-27
