 #
 # Subroutine ELSEPA. Elastic scattering of electrons and positrons
 #                    by neutral atoms and positive ions
 #
 # Projectile: positron
 # Kinetic energy = 2.50000E+08 eV = 9.18733E+06 a.u.
 #
 # WARNING: High-energy factorization with free-atom DF screening.
 #          Absorption, polarization and exchange corrections are
 #          switched off.
 #          Phase shifts are calculated for the bare nucleus.
 #          Scattering amplitudes are not evaluated.
 #
 # Element: Yb,  Z =  70,  atomic weight = 1.73040E+02 g/mol
 #
 # Nuclear model: Fermi distribution
 #                Average radius = 5.96256E-13 cm
 #                Skin thickness = 5.46000E-14 cm
 #
 # Number of electrons = 70
 #
 # Total elastic cross section = 6.99105E-18 cm**2 = 2.49655E-01 a0**2
 # 1st transport cross section = 1.47105E-25 cm**2 = 5.25322E-09 a0**2
 # 2nd transport cross section = 4.40613E-25 cm**2 = 1.57346E-08 a0**2
 #
 #
 # Differential cross section:                       MU=(1-COS(THETA))/2
 #
 #  THETA        MU          DCS          DCS        Sherman      error
 #  (deg)                 (cm**2/sr)   (a0**2/sr)    function
 #----------------------------------------------------------------------
0.00000E+00 4.18942E-09
7.61557E-13 4.07873E-09
1.18994E-12 4.01867E-09
1.71346E-12 3.94731E-09
2.33225E-12 3.86572E-09
3.04617E-12 3.77513E-09
3.85530E-12 3.67696E-09
4.75964E-12 3.57247E-09
5.75917E-12 3.46233E-09
6.85391E-12 3.34917E-09
8.04379E-12 3.23262E-09
9.32893E-12 3.11544E-09
1.07092E-11 2.99720E-09
1.21847E-11 2.88003E-09
1.37554E-11 2.76393E-09
1.54213E-11 2.65001E-09
1.71823E-11 2.53894E-09
1.90386E-11 2.43064E-09
2.09900E-11 2.32653E-09
2.30367E-11 2.22540E-09
2.51785E-11 2.12938E-09
2.74156E-11 2.03648E-09
2.97478E-11 1.94879E-09
3.21752E-11 1.86456E-09
3.46979E-11 1.78501E-09
3.73157E-11 1.70924E-09
4.00286E-11 1.63755E-09
4.28368E-11 1.56974E-09
4.57402E-11 1.50541E-09
4.87388E-11 1.44489E-09
5.18325E-11 1.38735E-09
5.50215E-11 1.33338E-09
5.83057E-11 1.28200E-09
6.16850E-11 1.23381E-09
6.51595E-11 1.18800E-09
6.87293E-11 1.14482E-09
7.23943E-11 1.10388E-09
7.61544E-11 1.06513E-09
1.18991E-10 7.69478E-10
1.71347E-10 5.80106E-10
2.33223E-10 4.48264E-10
3.04617E-10 3.51321E-10
3.85531E-10 2.76617E-10
4.75965E-10 2.19258E-10
5.75917E-10 1.79158E-10
6.85389E-10 1.44463E-10
8.04380E-10 1.19449E-10
9.32891E-10 9.84526E-11
1.07092E-09 8.24090E-11
1.21847E-09 6.92111E-11
1.37554E-09 5.86288E-11
1.54213E-09 4.99756E-11
1.71823E-09 4.27760E-11
1.90386E-09 3.68969E-11
2.09900E-09 3.18598E-11
2.30367E-09 2.77452E-11
2.51785E-09 2.41404E-11
2.74156E-09 2.11725E-11
2.97478E-09 1.85641E-11
3.21752E-09 1.63747E-11
3.46978E-09 1.44665E-11
3.73156E-09 1.28312E-11
4.00286E-09 1.14128E-11
4.28368E-09 1.01783E-11
4.57402E-09 9.10911E-12
4.87388E-09 8.16803E-12
5.18326E-09 7.35179E-12
5.50215E-09 6.62739E-12
5.83057E-09 5.99641E-12
6.16850E-09 5.43384E-12
6.51596E-09 4.93978E-12
6.87293E-09 4.49937E-12
7.23942E-09 4.10882E-12
7.61544E-09 3.76011E-12
1.18991E-08 1.71859E-12
1.71347E-08 9.04273E-13
2.33223E-08 5.20575E-13
3.04617E-08 3.20096E-13
3.85531E-08 2.06988E-13
4.75965E-08 1.39701E-13
5.75917E-08 9.76520E-14
6.85389E-08 7.03039E-14
8.04380E-08 5.19008E-14
9.32891E-08 3.91505E-14
1.07092E-07 3.00842E-14
1.21847E-07 2.34996E-14
1.37554E-07 1.86244E-14
1.54213E-07 1.49517E-14
1.71823E-07 1.21420E-14
1.90386E-07 9.96272E-15
2.09900E-07 8.25121E-15
2.30367E-07 6.89137E-15
2.51785E-07 5.80025E-15
2.74156E-07 4.91661E-15
2.97478E-07 4.19483E-15
3.21752E-07 3.60060E-15
3.46978E-07 3.10781E-15
3.73156E-07 2.69639E-15
4.00286E-07 2.35066E-15
4.28368E-07 2.05851E-15
4.57402E-07 1.81030E-15
4.87388E-07 1.59835E-15
5.18325E-07 1.41648E-15
5.50215E-07 1.25973E-15
5.83057E-07 1.12405E-15
6.16850E-07 1.00612E-15
6.51596E-07 9.03243E-16
6.87293E-07 8.13176E-16
7.23942E-07 7.34053E-16
7.61543E-07 6.64320E-16
1.18991E-06 2.75175E-16
1.71347E-06 1.33716E-16
2.33223E-06 7.25782E-17
3.04617E-06 4.27215E-17
3.85531E-06 2.67555E-17
4.75964E-06 1.75971E-17
5.75916E-06 1.20418E-17
6.85388E-06 8.51491E-18
8.04378E-06 6.18920E-18
9.32888E-06 4.60567E-18
1.07092E-05 3.49747E-18
1.21846E-05 2.70326E-18
1.37553E-05 2.12211E-18
1.54212E-05 1.68900E-18
1.71822E-05 1.36089E-18
1.90385E-05 1.10814E-18
2.09899E-05 9.12362E-19
2.30365E-05 7.57834E-19
2.51783E-05 6.34498E-19
2.74153E-05 5.35120E-19
2.97475E-05 4.54383E-19
3.21749E-05 3.88301E-19
3.46974E-05 3.33830E-19
3.73152E-05 2.88617E-19
4.00281E-05 2.50830E-19
4.28362E-05 2.19040E-19
4.57395E-05 1.92127E-19
4.87380E-05 1.69211E-19
5.18317E-05 1.49599E-19
5.50205E-05 1.32739E-19
5.83045E-05 1.18183E-19
6.16838E-05 1.05569E-19
6.51582E-05 9.45961E-20
6.87277E-05 8.50149E-20
7.23925E-05 7.66182E-20
7.61524E-05 6.94320E-20
9.21439E-05 4.74226E-20
1.09658E-04 3.34800E-20
1.28695E-04 2.43066E-20
1.49255E-04 1.80685E-20
1.71338E-04 1.37094E-20
1.94942E-04 1.05884E-20
2.20070E-04 8.30669E-21
2.46720E-04 6.60747E-21
2.74892E-04 5.32096E-21
3.04586E-04 4.33262E-21
3.35803E-04 3.56318E-21
3.68542E-04 2.95701E-21
4.02802E-04 2.47426E-21
4.38585E-04 2.08584E-21
4.75889E-04 1.77056E-21
5.14715E-04 1.51250E-21
5.55063E-04 1.29964E-21
5.96931E-04 1.12282E-21
6.40321E-04 9.74964E-22
6.85233E-04 8.50555E-22
7.31665E-04 7.45279E-22
7.79618E-04 6.55711E-22
8.29092E-04 5.79126E-22
8.80086E-04 5.13332E-22
9.32601E-04 4.56556E-22
9.86636E-04 4.07359E-22
1.04219E-03 3.64559E-22
1.09927E-03 3.27186E-22
1.15786E-03 2.94436E-22
1.21797E-03 2.65641E-22
1.27961E-03 2.40244E-22
1.34276E-03 2.17775E-22
1.40743E-03 1.97841E-22
1.47362E-03 1.80105E-22
1.54133E-03 1.64286E-22
1.61056E-03 1.50140E-22
1.68131E-03 1.37461E-22
1.75357E-03 1.26071E-22
1.82735E-03 1.15815E-22
1.90265E-03 1.06563E-22
1.97947E-03 9.81983E-23
2.05780E-03 9.06223E-23
2.13765E-03 8.37477E-23
2.21902E-03 7.74984E-23
2.30190E-03 7.18080E-23
2.38630E-03 6.66179E-23
2.47222E-03 6.18766E-23
2.55965E-03 5.75388E-23
2.64859E-03 5.35643E-23
2.73905E-03 4.99176E-23
2.83103E-03 4.65669E-23
2.92452E-03 4.34843E-23
3.01952E-03 4.06446E-23
3.11604E-03 3.80255E-23
3.21407E-03 3.56069E-23
3.31362E-03 3.33710E-23
3.41468E-03 3.13017E-23
3.51725E-03 2.93843E-23
3.62133E-03 2.76061E-23
3.72692E-03 2.59550E-23
3.83403E-03 2.44207E-23
3.94265E-03 2.29933E-23
4.05278E-03 2.16644E-23
4.16442E-03 2.04258E-23
4.27757E-03 1.92706E-23
4.39223E-03 1.81921E-23
4.50840E-03 1.71845E-23
4.62608E-03 1.62423E-23
4.74527E-03 1.53606E-23
4.86597E-03 1.45349E-23
4.98817E-03 1.37610E-23
5.11188E-03 1.30353E-23
5.23711E-03 1.23541E-23
5.36383E-03 1.17144E-23
5.49207E-03 1.11132E-23
5.62181E-03 1.05478E-23
5.75306E-03 1.00158E-23
5.88581E-03 9.51494E-24
6.02007E-03 9.04302E-24
6.15583E-03 8.59816E-24
6.29310E-03 8.17856E-24
6.43187E-03 7.78256E-24
6.57214E-03 7.40865E-24
6.71392E-03 7.05540E-24
6.85720E-03 6.72149E-24
7.00198E-03 6.40571E-24
7.14827E-03 6.10693E-24
7.29605E-03 5.82409E-24
7.44534E-03 5.55622E-24
7.59612E-03 5.30242E-24
7.97965E-03 4.72401E-24
8.37255E-03 4.21664E-24
8.77480E-03 3.77044E-24
9.18641E-03 3.37709E-24
9.60736E-03 3.02954E-24
1.00376E-02 2.72180E-24
1.04773E-02 2.44875E-24
1.09262E-02 2.20600E-24
1.13844E-02 1.98980E-24
1.18520E-02 1.79691E-24
1.23288E-02 1.62452E-24
1.28150E-02 1.47022E-24
1.33104E-02 1.33190E-24
1.38150E-02 1.20773E-24
1.43290E-02 1.09610E-24
1.48521E-02 9.95630E-25
1.53845E-02 9.05083E-25
1.59262E-02 8.23387E-25
1.64770E-02 7.49594E-25
1.70371E-02 6.82869E-25
1.76063E-02 6.22475E-25
1.81848E-02 5.67758E-25
1.87724E-02 5.18140E-25
1.93692E-02 4.73106E-25
1.99751E-02 4.32200E-25
2.05901E-02 3.95013E-25
2.12143E-02 3.61183E-25
2.18476E-02 3.30384E-25
2.24900E-02 3.02328E-25
2.31415E-02 2.76752E-25
2.38021E-02 2.53423E-25
2.44717E-02 2.32133E-25
2.51504E-02 2.12693E-25
2.58382E-02 1.94932E-25
2.65349E-02 1.78697E-25
2.72407E-02 1.63852E-25
2.79555E-02 1.50271E-25
2.86793E-02 1.37842E-25
2.94120E-02 1.26462E-25
3.01537E-02 1.16040E-25
3.09043E-02 1.06491E-25
3.16639E-02 9.77405E-26
3.24324E-02 8.97185E-26
3.32098E-02 8.23628E-26
3.39961E-02 7.56163E-26
3.47912E-02 6.94272E-26
3.55952E-02 6.37483E-26
3.64081E-02 5.85367E-26
3.72297E-02 5.37529E-26
3.80602E-02 4.93614E-26
3.88995E-02 4.53293E-26
3.97476E-02 4.16269E-26
4.06044E-02 3.82269E-26
4.14700E-02 3.51042E-26
4.23443E-02 3.22362E-26
4.32273E-02 2.96018E-26
4.41190E-02 2.71819E-26
4.50194E-02 2.49592E-26
4.59284E-02 2.29173E-26
4.68461E-02 2.10417E-26
4.87074E-02 1.77363E-26
5.06030E-02 1.49477E-26
5.25328E-02 1.25956E-26
5.44967E-02 1.06122E-26
5.64946E-02 8.94048E-27
5.85262E-02 7.53201E-27
6.05914E-02 6.34594E-27
6.26901E-02 5.34770E-27
6.48222E-02 4.50804E-27
6.69873E-02 3.80220E-27
6.91854E-02 3.20921E-27
7.14163E-02 2.71132E-27
7.36799E-02 2.29351E-27
7.59760E-02 1.94309E-27
7.83043E-02 1.64931E-27
8.06647E-02 1.40308E-27
8.30571E-02 1.19674E-27
8.54812E-02 1.02383E-27
8.79369E-02 8.78879E-28
9.04240E-02 7.57301E-28
9.29422E-02 6.55233E-28
9.54915E-02 5.69432E-28
9.80716E-02 4.97175E-28
1.00682E-01 4.36186E-28
1.03323E-01 3.84561E-28
1.05995E-01 3.40710E-28
1.08696E-01 3.03313E-28
1.11427E-01 2.71270E-28
1.14188E-01 2.43669E-28
1.16978E-01 2.19758E-28
1.19797E-01 1.98915E-28
1.22645E-01 1.80627E-28
1.25522E-01 1.64474E-28
1.28428E-01 1.50112E-28
1.31361E-01 1.37258E-28
1.34323E-01 1.25682E-28
1.37313E-01 1.15199E-28
1.40330E-01 1.05654E-28
1.43375E-01 9.69234E-29
1.46447E-01 8.89073E-29
1.49545E-01 8.15229E-29
1.52671E-01 7.47030E-29
1.55823E-01 6.83924E-29
1.59001E-01 6.25453E-29
1.62205E-01 5.71237E-29
1.65435E-01 5.20953E-29
1.68690E-01 4.74324E-29
1.71970E-01 4.31109E-29
1.75276E-01 3.91096E-29
1.78606E-01 3.54093E-29
1.81961E-01 3.19923E-29
1.85340E-01 2.88424E-29
1.88743E-01 2.59442E-29
1.92169E-01 2.32832E-29
1.95619E-01 2.08453E-29
1.99092E-01 1.86172E-29
2.02589E-01 1.65857E-29
2.06107E-01 1.47385E-29
2.09649E-01 1.30632E-29
2.13212E-01 1.15482E-29
2.16797E-01 1.01820E-29
2.20404E-01 8.95370E-30
2.24032E-01 7.85284E-30
2.27680E-01 6.86932E-30
2.31350E-01 5.99352E-30
2.35040E-01 5.21630E-30
2.38751E-01 4.52901E-30
2.42481E-01 3.92346E-30
2.46231E-01 3.39196E-30
2.50000E-01 2.92730E-30
2.53788E-01 2.52274E-30
2.57595E-01 2.17204E-30
2.61421E-01 1.86939E-30
2.65264E-01 1.60945E-30
2.69126E-01 1.38729E-30
2.73005E-01 1.19842E-30
2.76901E-01 1.03873E-30
2.80814E-01 9.04502E-31
2.84744E-01 7.92360E-31
2.88691E-01 6.99271E-31
2.92653E-01 6.22516E-31
2.96632E-01 5.59668E-31
3.00625E-01 5.08572E-31
3.04634E-01 4.67324E-31
3.08658E-01 4.34250E-31
3.12697E-01 4.07887E-31
3.16749E-01 3.86966E-31
3.20816E-01 3.70390E-31
3.24896E-01 3.57221E-31
3.28990E-01 3.46661E-31
3.33097E-01 3.38038E-31
3.37216E-01 3.30794E-31
3.41348E-01 3.24466E-31
3.45492E-01 3.18683E-31
3.49647E-01 3.13146E-31
3.53814E-01 3.07623E-31
3.57992E-01 3.01941E-31
3.62181E-01 2.95970E-31
3.66381E-01 2.89627E-31
3.70590E-01 2.82858E-31
3.74810E-01 2.75640E-31
3.79039E-01 2.67973E-31
3.83277E-01 2.59874E-31
3.87524E-01 2.51374E-31
3.91780E-01 2.42515E-31
3.96044E-01 2.33349E-31
4.00316E-01 2.23929E-31
4.04596E-01 2.14314E-31
4.08882E-01 2.04563E-31
4.13176E-01 1.94734E-31
4.17476E-01 1.84885E-31
4.21783E-01 1.75069E-31
4.26095E-01 1.65339E-31
4.30413E-01 1.55741E-31
4.34737E-01 1.46318E-31
4.39065E-01 1.37109E-31
4.43398E-01 1.28148E-31
4.47736E-01 1.19465E-31
4.52077E-01 1.11084E-31
4.56422E-01 1.03026E-31
4.60770E-01 9.53069E-32
4.65122E-01 8.79398E-32
4.69476E-01 8.09330E-32
4.73832E-01 7.42918E-32
4.78190E-01 6.80181E-32
4.82550E-01 6.21114E-32
4.86912E-01 5.65681E-32
4.91274E-01 5.13828E-32
4.95637E-01 4.65479E-32
5.00000E-01 4.20542E-32
5.04363E-01 3.78909E-32
5.08726E-01 3.40462E-32
5.13088E-01 3.05072E-32
5.17450E-01 2.72603E-32
5.21810E-01 2.42915E-32
5.26168E-01 2.15862E-32
5.30524E-01 1.91296E-32
5.34878E-01 1.69071E-32
5.39230E-01 1.49039E-32
5.43578E-01 1.31054E-32
5.47923E-01 1.14974E-32
5.52264E-01 1.00658E-32
5.56602E-01 8.79732E-33
5.60935E-01 7.67877E-33
5.65263E-01 6.69767E-33
5.69587E-01 5.84208E-33
5.73905E-01 5.10063E-33
5.78217E-01 4.46255E-33
5.82524E-01 3.91770E-33
5.86824E-01 3.45653E-33
5.91118E-01 3.07013E-33
5.95404E-01 2.75019E-33
5.99684E-01 2.48900E-33
6.03956E-01 2.27943E-33
6.08220E-01 2.11490E-33
6.12476E-01 1.98941E-33
6.16723E-01 1.89743E-33
6.20961E-01 1.83398E-33
6.25190E-01 1.79451E-33
6.29410E-01 1.77494E-33
6.33619E-01 1.77161E-33
6.37819E-01 1.78124E-33
6.42008E-01 1.80092E-33
6.46186E-01 1.82810E-33
6.50353E-01 1.86053E-33
6.54508E-01 1.89626E-33
6.58652E-01 1.93359E-33
6.62784E-01 1.97110E-33
6.66903E-01 2.00757E-33
6.71010E-01 2.04198E-33
6.75104E-01 2.07350E-33
6.79184E-01 2.10148E-33
6.83251E-01 2.12539E-33
6.87303E-01 2.14485E-33
6.91342E-01 2.15959E-33
6.95366E-01 2.16944E-33
6.99375E-01 2.17432E-33
7.03368E-01 2.17422E-33
7.07347E-01 2.16921E-33
7.11309E-01 2.15940E-33
7.15256E-01 2.14497E-33
7.19186E-01 2.12610E-33
7.23099E-01 2.10303E-33
7.26995E-01 2.07602E-33
7.30874E-01 2.04534E-33
7.34736E-01 2.01128E-33
7.38579E-01 1.97412E-33
7.42405E-01 1.93417E-33
7.46212E-01 1.89173E-33
7.50000E-01 1.84709E-33
7.53769E-01 1.80053E-33
7.57519E-01 1.75234E-33
7.61249E-01 1.70280E-33
7.64960E-01 1.65216E-33
7.68650E-01 1.60067E-33
7.72320E-01 1.54857E-33
7.75968E-01 1.49609E-33
7.79596E-01 1.44342E-33
7.83203E-01 1.39076E-33
7.86788E-01 1.33829E-33
7.90351E-01 1.28619E-33
7.93893E-01 1.23459E-33
7.97411E-01 1.18363E-33
8.00908E-01 1.13345E-33
8.04381E-01 1.08414E-33
8.07831E-01 1.03581E-33
8.11257E-01 9.88534E-34
8.14660E-01 9.42398E-34
8.18039E-01 8.97456E-34
8.21394E-01 8.53766E-34
8.24724E-01 8.11369E-34
8.28030E-01 7.70297E-34
8.31310E-01 7.30580E-34
8.34565E-01 6.92230E-34
8.37795E-01 6.55262E-34
8.40999E-01 6.19679E-34
8.44177E-01 5.85479E-34
8.47329E-01 5.52655E-34
8.50455E-01 5.21194E-34
8.53553E-01 4.91081E-34
8.56625E-01 4.62294E-34
8.59670E-01 4.34811E-34
8.62687E-01 4.08603E-34
8.65677E-01 3.83643E-34
8.68639E-01 3.59899E-34
8.71572E-01 3.37337E-34
8.74478E-01 3.15921E-34
8.77355E-01 2.95618E-34
8.80203E-01 2.76389E-34
8.83022E-01 2.58199E-34
8.85812E-01 2.41008E-34
8.88573E-01 2.24778E-34
8.91304E-01 2.09470E-34
8.94005E-01 1.95047E-34
8.96677E-01 1.81470E-34
8.99318E-01 1.68704E-34
9.01928E-01 1.56710E-34
9.04508E-01 1.45454E-34
9.07058E-01 1.34898E-34
9.09576E-01 1.25011E-34
9.12063E-01 1.15756E-34
9.14519E-01 1.07102E-34
9.16943E-01 9.90168E-35
9.19335E-01 9.14702E-35
9.21696E-01 8.44327E-35
9.24024E-01 7.78764E-35
9.26320E-01 7.17718E-35
9.28584E-01 6.60949E-35
9.30815E-01 6.08190E-35
9.33013E-01 5.59205E-35
9.35178E-01 5.13766E-35
9.37310E-01 4.71650E-35
9.39409E-01 4.32650E-35
9.41474E-01 3.96564E-35
9.43505E-01 3.63205E-35
9.45503E-01 3.32385E-35
9.47467E-01 3.03956E-35
9.49397E-01 2.77730E-35
9.51293E-01 2.53568E-35
9.53154E-01 2.31325E-35
9.54981E-01 2.10870E-35
9.56773E-01 1.92068E-35
9.58530E-01 1.74808E-35
9.60252E-01 1.58970E-35
9.61940E-01 1.44446E-35
9.63592E-01 1.31147E-35
9.65209E-01 1.18970E-35
9.66790E-01 1.07840E-35
9.68336E-01 9.76668E-36
9.69846E-01 8.83779E-36
9.71321E-01 7.98996E-36
9.72759E-01 7.21735E-36
9.74162E-01 6.51356E-36
9.75528E-01 5.87263E-36
9.76858E-01 5.28976E-36
9.78152E-01 4.75986E-36
9.79410E-01 4.27875E-36
9.80631E-01 3.84172E-36
9.81815E-01 3.44542E-36
9.82963E-01 3.08603E-36
9.84074E-01 2.76062E-36
9.85148E-01 2.46575E-36
9.86185E-01 2.19925E-36
9.87185E-01 1.95797E-36
9.88148E-01 1.74001E-36
9.89074E-01 1.54321E-36
9.89962E-01 1.36539E-36
9.90814E-01 1.20520E-36
9.91627E-01 1.06075E-36
9.92404E-01 9.30671E-37
9.93143E-01 8.13528E-37
9.93844E-01 7.08247E-37
9.94508E-01 6.13731E-37
9.95134E-01 5.28955E-37
9.95722E-01 4.52974E-37
9.96273E-01 3.85126E-37
9.96786E-01 3.24579E-37
9.97261E-01 2.70874E-37
9.97698E-01 2.23160E-37
9.98097E-01 1.81198E-37
9.98459E-01 1.44405E-37
9.98782E-01 1.12506E-37
9.99067E-01 8.50632E-38
9.99315E-01 6.18791E-38
9.99524E-01 4.26176E-38
9.99695E-01 2.71426E-38
9.99829E-01 1.52676E-38
9.99924E-01 6.87801E-39
9.99981E-01 1.88906E-39
1.00000E+00 2.27046E-40
