 #
 # Subroutine ELSEPA. Elastic scattering of electrons and positrons
 #                    by neutral atoms and positive ions
 #
 # Projectile: electron
 # Kinetic energy = 4.50000E+06 eV = 1.65372E+05 a.u.
 #
 # WARNING: High-energy factorization with free-atom DF screening.
 #          Absorption, polarization and exchange corrections are
 #          switched off.
 #          Phase shifts are calculated for the bare nucleus.
 #          Scattering amplitudes are not evaluated.
 #
 # Element: As,  Z =  33,  atomic weight = 7.49216E+01 g/mol
 #
 # Nuclear model: Fermi distribution
 #                Average radius = 4.51079E-13 cm
 #                Skin thickness = 5.46000E-14 cm
 #
 # Number of electrons = 33
 #
 # Total elastic cross section = 2.51508E-18 cm**2 = 8.98153E-02 a0**2
 # 1st transport cross section = 6.78863E-23 cm**2 = 2.42427E-06 a0**2
 # 2nd transport cross section = 1.91666E-22 cm**2 = 6.84453E-06 a0**2
 #
 #
 # Differential cross section:                       MU=(1-COS(THETA))/2
 #
 #  THETA        MU          DCS          DCS        Sherman      error
 #  (deg)                 (cm**2/sr)   (a0**2/sr)    function
 #----------------------------------------------------------------------
0.00000E+00 5.10513E-13
7.61557E-13 5.10510E-13
1.18994E-12 5.10508E-13
1.71346E-12 5.10507E-13
2.33225E-12 5.10504E-13
3.04617E-12 5.10502E-13
3.85530E-12 5.10499E-13
4.75964E-12 5.10496E-13
5.75917E-12 5.10492E-13
6.85391E-12 5.10488E-13
8.04379E-12 5.10484E-13
9.32893E-12 5.10480E-13
1.07092E-11 5.10475E-13
1.21847E-11 5.10469E-13
1.37554E-11 5.10464E-13
1.54213E-11 5.10458E-13
1.71823E-11 5.10452E-13
1.90386E-11 5.10445E-13
2.09900E-11 5.10438E-13
2.30367E-11 5.10431E-13
2.51785E-11 5.10423E-13
2.74156E-11 5.10416E-13
2.97478E-11 5.10407E-13
3.21752E-11 5.10399E-13
3.46979E-11 5.10390E-13
3.73157E-11 5.10380E-13
4.00286E-11 5.10371E-13
4.28368E-11 5.10361E-13
4.57402E-11 5.10351E-13
4.87388E-11 5.10340E-13
5.18325E-11 5.10329E-13
5.50215E-11 5.10318E-13
5.83057E-11 5.10306E-13
6.16850E-11 5.10294E-13
6.51595E-11 5.10282E-13
6.87293E-11 5.10269E-13
7.23943E-11 5.10256E-13
7.61544E-11 5.10243E-13
1.18991E-10 5.10091E-13
1.71347E-10 5.09906E-13
2.33223E-10 5.09687E-13
3.04617E-10 5.09435E-13
3.85531E-10 5.09149E-13
4.75965E-10 5.08830E-13
5.75917E-10 5.08477E-13
6.85389E-10 5.08092E-13
8.04380E-10 5.07673E-13
9.32891E-10 5.07221E-13
1.07092E-09 5.06737E-13
1.21847E-09 5.06220E-13
1.37554E-09 5.05671E-13
1.54213E-09 5.05089E-13
1.71823E-09 5.04476E-13
1.90386E-09 5.03830E-13
2.09900E-09 5.03152E-13
2.30367E-09 5.02444E-13
2.51785E-09 5.01703E-13
2.74156E-09 5.00932E-13
2.97478E-09 5.00129E-13
3.21752E-09 4.99296E-13
3.46978E-09 4.98433E-13
3.73156E-09 4.97539E-13
4.00286E-09 4.96615E-13
4.28368E-09 4.95662E-13
4.57402E-09 4.94680E-13
4.87388E-09 4.93668E-13
5.18326E-09 4.92628E-13
5.50215E-09 4.91559E-13
5.83057E-09 4.90461E-13
6.16850E-09 4.89336E-13
6.51596E-09 4.88184E-13
6.87293E-09 4.87004E-13
7.23942E-09 4.85797E-13
7.61544E-09 4.84564E-13
1.18991E-08 4.70780E-13
1.71347E-08 4.54787E-13
2.33223E-08 4.36952E-13
3.04617E-08 4.17694E-13
3.85531E-08 3.97429E-13
4.75965E-08 3.76547E-13
5.75917E-08 3.55398E-13
6.85389E-08 3.34212E-13
8.04380E-08 3.13357E-13
9.32891E-08 2.93056E-13
1.07092E-07 2.73486E-13
1.21847E-07 2.54778E-13
1.37554E-07 2.37023E-13
1.54213E-07 2.20275E-13
1.71823E-07 2.04561E-13
1.90386E-07 1.89883E-13
2.09900E-07 1.76224E-13
2.30367E-07 1.63549E-13
2.51785E-07 1.51797E-13
2.74156E-07 1.40955E-13
2.97478E-07 1.30969E-13
3.21752E-07 1.21781E-13
3.46978E-07 1.13337E-13
3.73156E-07 1.05580E-13
4.00286E-07 9.84569E-14
4.28368E-07 9.19162E-14
4.57402E-07 8.59094E-14
4.87388E-07 8.03912E-14
5.18325E-07 7.53176E-14
5.50215E-07 7.06466E-14
5.83057E-07 6.63484E-14
6.16850E-07 6.23896E-14
6.51596E-07 5.87397E-14
6.87293E-07 5.53709E-14
7.23942E-07 5.22580E-14
7.61543E-07 4.93781E-14
1.18991E-06 2.94211E-14
1.71347E-06 1.91258E-14
2.33223E-06 1.30681E-14
3.04617E-06 9.21073E-15
3.85531E-06 6.62818E-15
4.75964E-06 4.84612E-15
5.75916E-06 3.59222E-15
6.85388E-06 2.69471E-15
8.04378E-06 2.05051E-15
9.32888E-06 1.58218E-15
1.07092E-05 1.23741E-15
1.21846E-05 9.80464E-16
1.37553E-05 7.86583E-16
1.54212E-05 6.38489E-16
1.71822E-05 5.23996E-16
1.90385E-05 4.34390E-16
2.09899E-05 3.63588E-16
2.30365E-05 3.06950E-16
2.51783E-05 2.61068E-16
2.74153E-05 2.23621E-16
2.97475E-05 1.92791E-16
3.21749E-05 1.67199E-16
3.46974E-05 1.45792E-16
3.73152E-05 1.27755E-16
4.00281E-05 1.12454E-16
4.28362E-05 9.93909E-17
4.57395E-05 8.81746E-17
4.87380E-05 7.84942E-17
5.18317E-05 7.00995E-17
5.50205E-05 6.27873E-17
5.83045E-05 5.63986E-17
6.16838E-05 5.07970E-17
6.51582E-05 4.58689E-17
6.87277E-05 4.15193E-17
7.23925E-05 3.76681E-17
7.61524E-05 3.42480E-17
9.21439E-05 2.38663E-17
1.09658E-04 1.70994E-17
1.28695E-04 1.25563E-17
1.49255E-04 9.41901E-18
1.71338E-04 7.20068E-18
1.94942E-04 5.59764E-18
2.20070E-04 4.41694E-18
2.46720E-04 3.53222E-18
2.74892E-04 2.85877E-18
3.04586E-04 2.33892E-18
3.35803E-04 1.93242E-18
3.68542E-04 1.61081E-18
4.02802E-04 1.35362E-18
4.38585E-04 1.14594E-18
4.75889E-04 9.76753E-19
5.14715E-04 8.37763E-19
5.55063E-04 7.22716E-19
5.96931E-04 6.26810E-19
6.40321E-04 5.46341E-19
6.85233E-04 4.78410E-19
7.31665E-04 4.20739E-19
7.79618E-04 3.71519E-19
8.29092E-04 3.29301E-19
8.80086E-04 2.92921E-19
9.32601E-04 2.61435E-19
9.86636E-04 2.34075E-19
1.04219E-03 2.10207E-19
1.09927E-03 1.89309E-19
1.15786E-03 1.70947E-19
1.21797E-03 1.54761E-19
1.27961E-03 1.40449E-19
1.34276E-03 1.27755E-19
1.40743E-03 1.16465E-19
1.47362E-03 1.06396E-19
1.54133E-03 9.73924E-20
1.61056E-03 8.93227E-20
1.68131E-03 8.20728E-20
1.75357E-03 7.55447E-20
1.82735E-03 6.96537E-20
1.90265E-03 6.43267E-20
1.97947E-03 5.95001E-20
2.05780E-03 5.51184E-20
2.13765E-03 5.11334E-20
2.21902E-03 4.75026E-20
2.30190E-03 4.41889E-20
2.38630E-03 4.11596E-20
2.47222E-03 3.83860E-20
2.55965E-03 3.58426E-20
2.64859E-03 3.35068E-20
2.73905E-03 3.13586E-20
2.83103E-03 2.93802E-20
2.92452E-03 2.75557E-20
3.01952E-03 2.58710E-20
3.11604E-03 2.43134E-20
3.21407E-03 2.28716E-20
3.31362E-03 2.15353E-20
3.41468E-03 2.02955E-20
3.51725E-03 1.91438E-20
3.62133E-03 1.80729E-20
3.72692E-03 1.70761E-20
3.83403E-03 1.61472E-20
3.94265E-03 1.52809E-20
4.05278E-03 1.44721E-20
4.16442E-03 1.37162E-20
4.27757E-03 1.30092E-20
4.39223E-03 1.23473E-20
4.50840E-03 1.17272E-20
4.62608E-03 1.11456E-20
4.74527E-03 1.05997E-20
4.86597E-03 1.00870E-20
4.98817E-03 9.60503E-21
5.11188E-03 9.15160E-21
5.23711E-03 8.72472E-21
5.36383E-03 8.32254E-21
5.49207E-03 7.94336E-21
5.62181E-03 7.58561E-21
5.75306E-03 7.24787E-21
5.88581E-03 6.92878E-21
6.02007E-03 6.62714E-21
6.15583E-03 6.34180E-21
6.29310E-03 6.07173E-21
6.43187E-03 5.81594E-21
6.57214E-03 5.57354E-21
6.71392E-03 5.34370E-21
6.85720E-03 5.12563E-21
7.00198E-03 4.91863E-21
7.14827E-03 4.72202E-21
7.29605E-03 4.53519E-21
7.44534E-03 4.35754E-21
7.59612E-03 4.18855E-21
7.97965E-03 3.80074E-21
8.37255E-03 3.45699E-21
8.77480E-03 3.15143E-21
9.18641E-03 2.87906E-21
9.60736E-03 2.63563E-21
1.00376E-02 2.41752E-21
1.04773E-02 2.22164E-21
1.09262E-02 2.04530E-21
1.13844E-02 1.88622E-21
1.18520E-02 1.74239E-21
1.23288E-02 1.61209E-21
1.28150E-02 1.49381E-21
1.33104E-02 1.38625E-21
1.38150E-02 1.28825E-21
1.43290E-02 1.19882E-21
1.48521E-02 1.11706E-21
1.53845E-02 1.04220E-21
1.59262E-02 9.73540E-22
1.64770E-02 9.10481E-22
1.70371E-02 8.52478E-22
1.76063E-02 7.99052E-22
1.81848E-02 7.49773E-22
1.87724E-02 7.04261E-22
1.93692E-02 6.62173E-22
1.99751E-02 6.23204E-22
2.05901E-02 5.87079E-22
2.12143E-02 5.53552E-22
2.18476E-02 5.22401E-22
2.24900E-02 4.93426E-22
2.31415E-02 4.66447E-22
2.38021E-02 4.41299E-22
2.44717E-02 4.17835E-22
2.51504E-02 3.95922E-22
2.58382E-02 3.75436E-22
2.65349E-02 3.56268E-22
2.72407E-02 3.38317E-22
2.79555E-02 3.21490E-22
2.86793E-02 3.05704E-22
2.94120E-02 2.90882E-22
3.01537E-02 2.76954E-22
3.09043E-02 2.63856E-22
3.16639E-02 2.51529E-22
3.24324E-02 2.39918E-22
3.32098E-02 2.28975E-22
3.39961E-02 2.18653E-22
3.47912E-02 2.08911E-22
3.55952E-02 1.99709E-22
3.64081E-02 1.91012E-22
3.72297E-02 1.82786E-22
3.80602E-02 1.75002E-22
3.88995E-02 1.67631E-22
3.97476E-02 1.60646E-22
4.06044E-02 1.54025E-22
4.14700E-02 1.47743E-22
4.23443E-02 1.41781E-22
4.32273E-02 1.36118E-22
4.41190E-02 1.30738E-22
4.50194E-02 1.25622E-22
4.59284E-02 1.20757E-22
4.68461E-02 1.16126E-22
4.87074E-02 1.07515E-22
5.06030E-02 9.96936E-23
5.25328E-02 9.25749E-23
5.44967E-02 8.60844E-23
5.64946E-02 8.01564E-23
5.85262E-02 7.47330E-23
6.05914E-02 6.97634E-23
6.26901E-02 6.52024E-23
6.48222E-02 6.10102E-23
6.69873E-02 5.71514E-23
6.91854E-02 5.35945E-23
7.14163E-02 5.03115E-23
7.36799E-02 4.72773E-23
7.59760E-02 4.44694E-23
7.83043E-02 4.18679E-23
8.06647E-02 3.94546E-23
8.30571E-02 3.72134E-23
8.54812E-02 3.51297E-23
8.79369E-02 3.31904E-23
9.04240E-02 3.13834E-23
9.29422E-02 2.96982E-23
9.54915E-02 2.81248E-23
9.80716E-02 2.66545E-23
1.00682E-01 2.52792E-23
1.03323E-01 2.39916E-23
1.05995E-01 2.27851E-23
1.08696E-01 2.16535E-23
1.11427E-01 2.05914E-23
1.14188E-01 1.95936E-23
1.16978E-01 1.86555E-23
1.19797E-01 1.77729E-23
1.22645E-01 1.69417E-23
1.25522E-01 1.61586E-23
1.28428E-01 1.54201E-23
1.31361E-01 1.47232E-23
1.34323E-01 1.40651E-23
1.37313E-01 1.34433E-23
1.40330E-01 1.28553E-23
1.43375E-01 1.22990E-23
1.46447E-01 1.17724E-23
1.49545E-01 1.12735E-23
1.52671E-01 1.08005E-23
1.55823E-01 1.03520E-23
1.59001E-01 9.92638E-24
1.62205E-01 9.52223E-24
1.65435E-01 9.13828E-24
1.68690E-01 8.77333E-24
1.71970E-01 8.42625E-24
1.75276E-01 8.09601E-24
1.78606E-01 7.78163E-24
1.81961E-01 7.48219E-24
1.85340E-01 7.19686E-24
1.88743E-01 6.92483E-24
1.92169E-01 6.66536E-24
1.95619E-01 6.41778E-24
1.99092E-01 6.18142E-24
2.02589E-01 5.95569E-24
2.06107E-01 5.74001E-24
2.09649E-01 5.53385E-24
2.13212E-01 5.33670E-24
2.16797E-01 5.14810E-24
2.20404E-01 4.96761E-24
2.24032E-01 4.79480E-24
2.27680E-01 4.62929E-24
2.31350E-01 4.47072E-24
2.35040E-01 4.31873E-24
2.38751E-01 4.17301E-24
2.42481E-01 4.03323E-24
2.46231E-01 3.89912E-24
2.50000E-01 3.77039E-24
2.53788E-01 3.64680E-24
2.57595E-01 3.52810E-24
2.61421E-01 3.41405E-24
2.65264E-01 3.30445E-24
2.69126E-01 3.19908E-24
2.73005E-01 3.09775E-24
2.76901E-01 3.00027E-24
2.80814E-01 2.90647E-24
2.84744E-01 2.81619E-24
2.88691E-01 2.72927E-24
2.92653E-01 2.64555E-24
2.96632E-01 2.56491E-24
3.00625E-01 2.48720E-24
3.04634E-01 2.41230E-24
3.08658E-01 2.34009E-24
3.12697E-01 2.27044E-24
3.16749E-01 2.20326E-24
3.20816E-01 2.13844E-24
3.24896E-01 2.07589E-24
3.28990E-01 2.01550E-24
3.33097E-01 1.95719E-24
3.37216E-01 1.90088E-24
3.41348E-01 1.84647E-24
3.45492E-01 1.79390E-24
3.49647E-01 1.74309E-24
3.53814E-01 1.69398E-24
3.57992E-01 1.64649E-24
3.62181E-01 1.60056E-24
3.66381E-01 1.55614E-24
3.70590E-01 1.51315E-24
3.74810E-01 1.47155E-24
3.79039E-01 1.43129E-24
3.83277E-01 1.39231E-24
3.87524E-01 1.35456E-24
3.91780E-01 1.31800E-24
3.96044E-01 1.28259E-24
4.00316E-01 1.24828E-24
4.04596E-01 1.21503E-24
4.08882E-01 1.18280E-24
4.13176E-01 1.15155E-24
4.17476E-01 1.12125E-24
4.21783E-01 1.09188E-24
4.26095E-01 1.06338E-24
4.30413E-01 1.03574E-24
4.34737E-01 1.00892E-24
4.39065E-01 9.82886E-25
4.43398E-01 9.57619E-25
4.47736E-01 9.33090E-25
4.52077E-01 9.09276E-25
4.56422E-01 8.86151E-25
4.60770E-01 8.63692E-25
4.65122E-01 8.41874E-25
4.69476E-01 8.20677E-25
4.73832E-01 8.00080E-25
4.78190E-01 7.80062E-25
4.82550E-01 7.60605E-25
4.86912E-01 7.41691E-25
4.91274E-01 7.23302E-25
4.95637E-01 7.05421E-25
5.00000E-01 6.88031E-25
5.04363E-01 6.71115E-25
5.08726E-01 6.54660E-25
5.13088E-01 6.38650E-25
5.17450E-01 6.23071E-25
5.21810E-01 6.07910E-25
5.26168E-01 5.93153E-25
5.30524E-01 5.78788E-25
5.34878E-01 5.64803E-25
5.39230E-01 5.51186E-25
5.43578E-01 5.37925E-25
5.47923E-01 5.25010E-25
5.52264E-01 5.12430E-25
5.56602E-01 5.00176E-25
5.60935E-01 4.88236E-25
5.65263E-01 4.76603E-25
5.69587E-01 4.65266E-25
5.73905E-01 4.54216E-25
5.78217E-01 4.43447E-25
5.82524E-01 4.32948E-25
5.86824E-01 4.22713E-25
5.91118E-01 4.12733E-25
5.95404E-01 4.03002E-25
5.99684E-01 3.93511E-25
6.03956E-01 3.84254E-25
6.08220E-01 3.75225E-25
6.12476E-01 3.66417E-25
6.16723E-01 3.57824E-25
6.20961E-01 3.49439E-25
6.25190E-01 3.41257E-25
6.29410E-01 3.33272E-25
6.33619E-01 3.25479E-25
6.37819E-01 3.17872E-25
6.42008E-01 3.10447E-25
6.46186E-01 3.03197E-25
6.50353E-01 2.96120E-25
6.54508E-01 2.89209E-25
6.58652E-01 2.82460E-25
6.62784E-01 2.75870E-25
6.66903E-01 2.69433E-25
6.71010E-01 2.63146E-25
6.75104E-01 2.57005E-25
6.79184E-01 2.51005E-25
6.83251E-01 2.45144E-25
6.87303E-01 2.39417E-25
6.91342E-01 2.33821E-25
6.95366E-01 2.28353E-25
6.99375E-01 2.23009E-25
7.03368E-01 2.17787E-25
7.07347E-01 2.12682E-25
7.11309E-01 2.07693E-25
7.15256E-01 2.02815E-25
7.19186E-01 1.98047E-25
7.23099E-01 1.93385E-25
7.26995E-01 1.88828E-25
7.30874E-01 1.84372E-25
7.34736E-01 1.80014E-25
7.38579E-01 1.75753E-25
7.42405E-01 1.71586E-25
7.46212E-01 1.67510E-25
7.50000E-01 1.63525E-25
7.53769E-01 1.59626E-25
7.57519E-01 1.55813E-25
7.61249E-01 1.52082E-25
7.64960E-01 1.48433E-25
7.68650E-01 1.44864E-25
7.72320E-01 1.41371E-25
7.75968E-01 1.37955E-25
7.79596E-01 1.34612E-25
7.83203E-01 1.31341E-25
7.86788E-01 1.28140E-25
7.90351E-01 1.25009E-25
7.93893E-01 1.21944E-25
7.97411E-01 1.18945E-25
8.00908E-01 1.16010E-25
8.04381E-01 1.13138E-25
8.07831E-01 1.10328E-25
8.11257E-01 1.07577E-25
8.14660E-01 1.04885E-25
8.18039E-01 1.02250E-25
8.21394E-01 9.96709E-26
8.24724E-01 9.71467E-26
8.28030E-01 9.46762E-26
8.31310E-01 9.22580E-26
8.34565E-01 8.98912E-26
8.37795E-01 8.75745E-26
8.40999E-01 8.53069E-26
8.44177E-01 8.30874E-26
8.47329E-01 8.09149E-26
8.50455E-01 7.87884E-26
8.53553E-01 7.67071E-26
8.56625E-01 7.46698E-26
8.59670E-01 7.26758E-26
8.62687E-01 7.07242E-26
8.65677E-01 6.88140E-26
8.68639E-01 6.69444E-26
8.71572E-01 6.51146E-26
8.74478E-01 6.33238E-26
8.77355E-01 6.15713E-26
8.80203E-01 5.98562E-26
8.83022E-01 5.81779E-26
8.85812E-01 5.65355E-26
8.88573E-01 5.49285E-26
8.91304E-01 5.33561E-26
8.94005E-01 5.18176E-26
8.96677E-01 5.03125E-26
8.99318E-01 4.88400E-26
9.01928E-01 4.73996E-26
9.04508E-01 4.59907E-26
9.07058E-01 4.46127E-26
9.09576E-01 4.32649E-26
9.12063E-01 4.19470E-26
9.14519E-01 4.06583E-26
9.16943E-01 3.93983E-26
9.19335E-01 3.81665E-26
9.21696E-01 3.69625E-26
9.24024E-01 3.57856E-26
9.26320E-01 3.46355E-26
9.28584E-01 3.35117E-26
9.30815E-01 3.24138E-26
9.33013E-01 3.13412E-26
9.35178E-01 3.02937E-26
9.37310E-01 2.92708E-26
9.39409E-01 2.82720E-26
9.41474E-01 2.72971E-26
9.43505E-01 2.63456E-26
9.45503E-01 2.54171E-26
9.47467E-01 2.45113E-26
9.49397E-01 2.36279E-26
9.51293E-01 2.27665E-26
9.53154E-01 2.19268E-26
9.54981E-01 2.11085E-26
9.56773E-01 2.03112E-26
9.58530E-01 1.95347E-26
9.60252E-01 1.87786E-26
9.61940E-01 1.80427E-26
9.63592E-01 1.73268E-26
9.65209E-01 1.66305E-26
9.66790E-01 1.59535E-26
9.68336E-01 1.52958E-26
9.69846E-01 1.46568E-26
9.71321E-01 1.40366E-26
9.72759E-01 1.34348E-26
9.74162E-01 1.28512E-26
9.75528E-01 1.22855E-26
9.76858E-01 1.17377E-26
9.78152E-01 1.12075E-26
9.79410E-01 1.06946E-26
9.80631E-01 1.01990E-26
9.81815E-01 9.72035E-27
9.82963E-01 9.25860E-27
9.84074E-01 8.81354E-27
9.85148E-01 8.38501E-27
9.86185E-01 7.97286E-27
9.87185E-01 7.57693E-27
9.88148E-01 7.19710E-27
9.89074E-01 6.83322E-27
9.89962E-01 6.48517E-27
9.90814E-01 6.15281E-27
9.91627E-01 5.83604E-27
9.92404E-01 5.53473E-27
9.93143E-01 5.24879E-27
9.93844E-01 4.97811E-27
9.94508E-01 4.72260E-27
9.95134E-01 4.48217E-27
9.95722E-01 4.25672E-27
9.96273E-01 4.04619E-27
9.96786E-01 3.85050E-27
9.97261E-01 3.66957E-27
9.97698E-01 3.50336E-27
9.98097E-01 3.35179E-27
9.98459E-01 3.21481E-27
9.98782E-01 3.09238E-27
9.99067E-01 2.98446E-27
9.99315E-01 2.89100E-27
9.99524E-01 2.81197E-27
9.99695E-01 2.74735E-27
9.99829E-01 2.69712E-27
9.99924E-01 2.66125E-27
9.99981E-01 2.63973E-27
1.00000E+00 2.63256E-27
