 #
 # Subroutine ELSEPA. Elastic scattering of electrons and positrons
 #                    by neutral atoms and positive ions
 #
 # Projectile: electron
 # Kinetic energy = 4.50000E+07 eV = 1.65372E+06 a.u.
 #
 # WARNING: High-energy factorization with free-atom DF screening.
 #          Absorption, polarization and exchange corrections are
 #          switched off.
 #          Phase shifts are calculated for the bare nucleus.
 #          Scattering amplitudes are not evaluated.
 #
 # Element: As,  Z =  33,  atomic weight = 7.49216E+01 g/mol
 #
 # Nuclear model: Fermi distribution
 #                Average radius = 4.51079E-13 cm
 #                Skin thickness = 5.46000E-14 cm
 #
 # Number of electrons = 33
 #
 # Total elastic cross section = 2.48843E-18 cm**2 = 8.88636E-02 a0**2
 # 1st transport cross section = 1.04866E-24 cm**2 = 3.74484E-08 a0**2
 # 2nd transport cross section = 3.06337E-24 cm**2 = 1.09395E-07 a0**2
 #
 #
 # Differential cross section:                       MU=(1-COS(THETA))/2
 #
 #  THETA        MU          DCS          DCS        Sherman      error
 #  (deg)                 (cm**2/sr)   (a0**2/sr)    function
 #----------------------------------------------------------------------
0.00000E+00 4.21105E-11
7.61557E-13 4.20918E-11
1.18994E-12 4.20813E-11
1.71346E-12 4.20685E-11
2.33225E-12 4.20534E-11
3.04617E-12 4.20360E-11
3.85530E-12 4.20163E-11
4.75964E-12 4.19943E-11
5.75917E-12 4.19700E-11
6.85391E-12 4.19434E-11
8.04379E-12 4.19146E-11
9.32893E-12 4.18834E-11
1.07092E-11 4.18500E-11
1.21847E-11 4.18144E-11
1.37554E-11 4.17765E-11
1.54213E-11 4.17364E-11
1.71823E-11 4.16940E-11
1.90386E-11 4.16494E-11
2.09900E-11 4.16026E-11
2.30367E-11 4.15537E-11
2.51785E-11 4.15025E-11
2.74156E-11 4.14492E-11
2.97478E-11 4.13937E-11
3.21752E-11 4.13361E-11
3.46979E-11 4.12763E-11
3.73157E-11 4.12145E-11
4.00286E-11 4.11505E-11
4.28368E-11 4.10845E-11
4.57402E-11 4.10163E-11
4.87388E-11 4.09462E-11
5.18325E-11 4.08740E-11
5.50215E-11 4.07998E-11
5.83057E-11 4.07236E-11
6.16850E-11 4.06453E-11
6.51595E-11 4.05652E-11
6.87293E-11 4.04831E-11
7.23943E-11 4.03991E-11
7.61544E-11 4.03131E-11
1.18991E-10 3.93512E-11
1.71347E-10 3.82275E-11
2.33223E-10 3.69558E-11
3.04617E-10 3.55684E-11
3.85531E-10 3.40928E-11
4.75965E-10 3.25557E-11
5.75917E-10 3.09816E-11
6.85389E-10 2.93886E-11
8.04380E-10 2.77896E-11
9.32891E-10 2.62131E-11
1.07092E-09 2.46737E-11
1.21847E-09 2.31828E-11
1.37554E-09 2.17492E-11
1.54213E-09 2.03743E-11
1.71823E-09 1.90621E-11
1.90386E-09 1.78220E-11
2.09900E-09 1.66547E-11
2.30367E-09 1.55598E-11
2.51785E-09 1.45355E-11
2.74156E-09 1.35766E-11
2.97478E-09 1.26820E-11
3.21752E-09 1.18513E-11
3.46978E-09 1.10808E-11
3.73156E-09 1.03669E-11
4.00286E-09 9.70588E-12
4.28368E-09 9.09231E-12
4.57402E-09 8.52433E-12
4.87388E-09 7.99929E-12
5.18326E-09 7.51388E-12
5.50215E-09 7.06497E-12
5.83057E-09 6.64966E-12
6.16850E-09 6.26427E-12
6.51596E-09 5.90733E-12
6.87293E-09 5.57668E-12
7.23942E-09 5.27012E-12
7.61544E-09 4.98565E-12
1.18991E-08 3.00460E-12
1.71347E-08 1.97330E-12
2.33223E-08 1.35577E-12
3.04617E-08 9.65538E-13
3.85531E-08 7.04625E-13
4.75965E-08 5.23290E-13
5.75917E-08 3.93943E-13
6.85389E-08 2.99691E-13
8.04380E-08 2.30143E-13
9.32891E-08 1.78965E-13
1.07092E-07 1.40824E-13
1.21847E-07 1.12074E-13
1.37554E-07 9.01706E-14
1.54213E-07 7.32928E-14
1.71823E-07 6.01706E-14
1.90386E-07 4.98820E-14
2.09900E-07 4.17286E-14
2.30367E-07 3.52021E-14
2.51785E-07 2.99280E-14
2.74156E-07 2.56262E-14
2.97478E-07 2.20821E-14
3.21752E-07 1.91437E-14
3.46978E-07 1.66892E-14
3.73156E-07 1.46243E-14
4.00286E-07 1.28754E-14
4.28368E-07 1.13832E-14
4.57402E-07 1.01031E-14
4.87388E-07 8.99966E-15
5.18325E-07 8.04370E-15
5.50215E-07 7.21171E-15
5.83057E-07 6.48459E-15
6.16850E-07 5.84580E-15
6.51596E-07 5.28341E-15
6.87293E-07 4.78679E-15
7.23942E-07 4.34687E-15
7.61543E-07 3.95601E-15
1.18991E-06 1.70012E-15
1.71347E-06 8.40845E-16
2.33223E-06 4.60732E-16
3.04617E-06 2.73035E-16
3.85531E-06 1.72007E-16
4.75964E-06 1.13756E-16
5.75916E-06 7.82487E-17
6.85388E-06 5.55970E-17
8.04378E-06 4.05891E-17
9.32888E-06 3.03235E-17
1.07092E-05 2.31081E-17
1.21846E-05 1.79164E-17
1.37553E-05 1.41036E-17
1.54212E-05 1.12526E-17
1.71822E-05 9.08637E-18
1.90385E-05 7.41610E-18
2.09899E-05 6.11369E-18
2.30365E-05 5.08458E-18
2.51783E-05 4.26268E-18
2.74153E-05 3.59995E-18
2.97475E-05 3.06091E-18
3.21749E-05 2.61900E-18
3.46974E-05 2.25402E-18
3.73152E-05 1.95049E-18
4.00281E-05 1.69641E-18
4.28362E-05 1.48239E-18
4.57395E-05 1.30106E-18
4.87380E-05 1.14659E-18
5.18317E-05 1.01435E-18
5.50205E-05 9.00611E-19
5.83045E-05 8.02362E-19
6.16838E-05 7.17152E-19
6.51582E-05 6.42965E-19
6.87277E-05 5.78134E-19
7.23925E-05 5.21279E-19
7.61524E-05 4.71279E-19
9.21439E-05 3.22289E-19
1.09658E-04 2.27792E-19
1.28695E-04 1.65541E-19
1.49255E-04 1.23176E-19
1.71338E-04 9.35453E-20
1.94942E-04 7.23149E-20
2.20070E-04 5.67833E-20
2.46720E-04 4.52093E-20
2.74892E-04 3.64410E-20
3.04586E-04 2.97010E-20
3.35803E-04 2.44507E-20
3.68542E-04 2.03120E-20
4.02802E-04 1.70139E-20
4.38585E-04 1.43594E-20
4.75889E-04 1.22036E-20
5.14715E-04 1.04380E-20
5.55063E-04 8.98086E-21
5.96931E-04 7.76962E-21
6.40321E-04 6.75613E-21
6.85233E-04 5.90285E-21
7.31665E-04 5.18029E-21
7.79618E-04 4.56514E-21
8.29092E-04 4.03878E-21
8.80086E-04 3.58626E-21
9.32601E-04 3.19547E-21
9.86636E-04 2.85657E-21
1.04219E-03 2.56151E-21
1.09927E-03 2.30364E-21
1.15786E-03 2.07747E-21
1.21797E-03 1.87844E-21
1.27961E-03 1.70273E-21
1.34276E-03 1.54712E-21
1.40743E-03 1.40893E-21
1.47362E-03 1.28585E-21
1.54133E-03 1.17595E-21
1.61056E-03 1.07757E-21
1.68131E-03 9.89282E-22
1.75357E-03 9.09873E-22
1.82735E-03 8.38292E-22
1.90265E-03 7.73627E-22
1.97947E-03 7.15092E-22
2.05780E-03 6.62001E-22
2.13765E-03 6.13758E-22
2.21902E-03 5.69840E-22
2.30190E-03 5.29789E-22
2.38630E-03 4.93203E-22
2.47222E-03 4.59729E-22
2.55965E-03 4.29054E-22
2.64859E-03 4.00900E-22
2.73905E-03 3.75023E-22
2.83103E-03 3.51207E-22
2.92452E-03 3.29255E-22
3.01952E-03 3.08995E-22
3.11604E-03 2.90274E-22
3.21407E-03 2.72953E-22
3.31362E-03 2.56908E-22
3.41468E-03 2.42026E-22
3.51725E-03 2.28210E-22
3.62133E-03 2.15369E-22
3.72692E-03 2.03419E-22
3.83403E-03 1.92289E-22
3.94265E-03 1.81912E-22
4.05278E-03 1.72227E-22
4.16442E-03 1.63180E-22
4.27757E-03 1.54720E-22
4.39223E-03 1.46803E-22
4.50840E-03 1.39387E-22
4.62608E-03 1.32434E-22
4.74527E-03 1.25911E-22
4.86597E-03 1.19786E-22
4.98817E-03 1.14028E-22
5.11188E-03 1.08614E-22
5.23711E-03 1.03518E-22
5.36383E-03 9.87181E-23
5.49207E-03 9.41939E-23
5.62181E-03 8.99265E-23
5.75306E-03 8.58983E-23
5.88581E-03 8.20938E-23
6.02007E-03 7.84981E-23
6.15583E-03 7.50974E-23
6.29310E-03 7.18793E-23
6.43187E-03 6.88321E-23
6.57214E-03 6.59450E-23
6.71392E-03 6.32080E-23
6.85720E-03 6.06118E-23
7.00198E-03 5.81478E-23
7.14827E-03 5.58080E-23
7.29605E-03 5.35849E-23
7.44534E-03 5.14717E-23
7.59612E-03 4.94617E-23
7.97965E-03 4.48506E-23
8.37255E-03 4.07653E-23
8.77480E-03 3.71354E-23
9.18641E-03 3.39012E-23
9.60736E-03 3.10120E-23
1.00376E-02 2.84244E-23
1.04773E-02 2.61015E-23
1.09262E-02 2.40112E-23
1.13844E-02 2.21262E-23
1.18520E-02 2.04228E-23
1.23288E-02 1.88802E-23
1.28150E-02 1.74805E-23
1.33104E-02 1.62082E-23
1.38150E-02 1.50496E-23
1.43290E-02 1.39926E-23
1.48521E-02 1.30268E-23
1.53845E-02 1.21428E-23
1.59262E-02 1.13325E-23
1.64770E-02 1.05886E-23
1.70371E-02 9.90466E-24
1.76063E-02 9.27496E-24
1.81848E-02 8.69443E-24
1.87724E-02 8.15853E-24
1.93692E-02 7.66319E-24
1.99751E-02 7.20478E-24
2.05901E-02 6.78004E-24
2.12143E-02 6.38605E-24
2.18476E-02 6.02017E-24
2.24900E-02 5.68003E-24
2.31415E-02 5.36348E-24
2.38021E-02 5.06858E-24
2.44717E-02 4.79358E-24
2.51504E-02 4.53690E-24
2.58382E-02 4.29707E-24
2.65349E-02 4.07280E-24
2.72407E-02 3.86289E-24
2.79555E-02 3.66624E-24
2.86793E-02 3.48187E-24
2.94120E-02 3.30887E-24
3.01537E-02 3.14640E-24
3.09043E-02 2.99370E-24
3.16639E-02 2.85009E-24
3.24324E-02 2.71491E-24
3.32098E-02 2.58758E-24
3.39961E-02 2.46757E-24
3.47912E-02 2.35437E-24
3.55952E-02 2.24752E-24
3.64081E-02 2.14660E-24
3.72297E-02 2.05123E-24
3.80602E-02 1.96103E-24
3.88995E-02 1.87568E-24
3.97476E-02 1.79487E-24
4.06044E-02 1.71832E-24
4.14700E-02 1.64575E-24
4.23443E-02 1.57692E-24
4.32273E-02 1.51160E-24
4.41190E-02 1.44959E-24
4.50194E-02 1.39067E-24
4.59284E-02 1.33468E-24
4.68461E-02 1.28143E-24
4.87074E-02 1.18255E-24
5.06030E-02 1.09287E-24
5.25328E-02 1.01140E-24
5.44967E-02 9.37243E-25
5.64946E-02 8.69637E-25
5.85262E-02 8.07901E-25
6.05914E-02 7.51436E-25
6.26901E-02 6.99715E-25
6.48222E-02 6.52268E-25
6.69873E-02 6.08683E-25
6.91854E-02 5.68590E-25
7.14163E-02 5.31661E-25
7.36799E-02 4.97603E-25
7.59760E-02 4.66155E-25
7.83043E-02 4.37082E-25
8.06647E-02 4.10174E-25
8.30571E-02 3.85241E-25
8.54812E-02 3.62115E-25
8.79369E-02 3.40642E-25
9.04240E-02 3.20684E-25
9.29422E-02 3.02115E-25
9.54915E-02 2.84822E-25
9.80716E-02 2.68704E-25
1.00682E-01 2.53666E-25
1.03323E-01 2.39624E-25
1.05995E-01 2.26501E-25
1.08696E-01 2.14227E-25
1.11427E-01 2.02738E-25
1.14188E-01 1.91975E-25
1.16978E-01 1.81885E-25
1.19797E-01 1.72418E-25
1.22645E-01 1.63530E-25
1.25522E-01 1.55180E-25
1.28428E-01 1.47330E-25
1.31361E-01 1.39945E-25
1.34323E-01 1.32992E-25
1.37313E-01 1.26443E-25
1.40330E-01 1.20271E-25
1.43375E-01 1.14449E-25
1.46447E-01 1.08956E-25
1.49545E-01 1.03769E-25
1.52671E-01 9.88695E-26
1.55823E-01 9.42381E-26
1.59001E-01 8.98582E-26
1.62205E-01 8.57138E-26
1.65435E-01 8.17905E-26
1.68690E-01 7.80746E-26
1.71970E-01 7.45535E-26
1.75276E-01 7.12153E-26
1.78606E-01 6.80491E-26
1.81961E-01 6.50448E-26
1.85340E-01 6.21927E-26
1.88743E-01 5.94841E-26
1.92169E-01 5.69107E-26
1.95619E-01 5.44646E-26
1.99092E-01 5.21386E-26
2.02589E-01 4.99261E-26
2.06107E-01 4.78206E-26
2.09649E-01 4.58163E-26
2.13212E-01 4.39075E-26
2.16797E-01 4.20891E-26
2.20404E-01 4.03562E-26
2.24032E-01 3.87041E-26
2.27680E-01 3.71287E-26
2.31350E-01 3.56257E-26
2.35040E-01 3.41915E-26
2.38751E-01 3.28225E-26
2.42481E-01 3.15152E-26
2.46231E-01 3.02666E-26
2.50000E-01 2.90736E-26
2.53788E-01 2.79334E-26
2.57595E-01 2.68435E-26
2.61421E-01 2.58011E-26
2.65264E-01 2.48041E-26
2.69126E-01 2.38502E-26
2.73005E-01 2.29373E-26
2.76901E-01 2.20633E-26
2.80814E-01 2.12265E-26
2.84744E-01 2.04250E-26
2.88691E-01 1.96572E-26
2.92653E-01 1.89215E-26
2.96632E-01 1.82163E-26
3.00625E-01 1.75402E-26
3.04634E-01 1.68920E-26
3.08658E-01 1.62702E-26
3.12697E-01 1.56737E-26
3.16749E-01 1.51014E-26
3.20816E-01 1.45521E-26
3.24896E-01 1.40248E-26
3.28990E-01 1.35186E-26
3.33097E-01 1.30324E-26
3.37216E-01 1.25654E-26
3.41348E-01 1.21168E-26
3.45492E-01 1.16858E-26
3.49647E-01 1.12715E-26
3.53814E-01 1.08733E-26
3.57992E-01 1.04904E-26
3.62181E-01 1.01223E-26
3.66381E-01 9.76827E-27
3.70590E-01 9.42771E-27
3.74810E-01 9.10007E-27
3.79039E-01 8.78481E-27
3.83277E-01 8.48140E-27
3.87524E-01 8.18937E-27
3.91780E-01 7.90823E-27
3.96044E-01 7.63754E-27
4.00316E-01 7.37688E-27
4.04596E-01 7.12583E-27
4.08882E-01 6.88400E-27
4.13176E-01 6.65102E-27
4.17476E-01 6.42653E-27
4.21783E-01 6.21020E-27
4.26095E-01 6.00171E-27
4.30413E-01 5.80073E-27
4.34737E-01 5.60697E-27
4.39065E-01 5.42016E-27
4.43398E-01 5.24001E-27
4.47736E-01 5.06627E-27
4.52077E-01 4.89868E-27
4.56422E-01 4.73702E-27
4.60770E-01 4.58105E-27
4.65122E-01 4.43056E-27
4.69476E-01 4.28533E-27
4.73832E-01 4.14516E-27
4.78190E-01 4.00987E-27
4.82550E-01 3.87927E-27
4.86912E-01 3.75318E-27
4.91274E-01 3.63143E-27
4.95637E-01 3.51387E-27
5.00000E-01 3.40033E-27
5.04363E-01 3.29067E-27
5.08726E-01 3.18474E-27
5.13088E-01 3.08241E-27
5.17450E-01 2.98355E-27
5.21810E-01 2.88802E-27
5.26168E-01 2.79571E-27
5.30524E-01 2.70650E-27
5.34878E-01 2.62027E-27
5.39230E-01 2.53693E-27
5.43578E-01 2.45636E-27
5.47923E-01 2.37847E-27
5.52264E-01 2.30316E-27
5.56602E-01 2.23034E-27
5.60935E-01 2.15993E-27
5.65263E-01 2.09183E-27
5.69587E-01 2.02596E-27
5.73905E-01 1.96225E-27
5.78217E-01 1.90063E-27
5.82524E-01 1.84101E-27
5.86824E-01 1.78333E-27
5.91118E-01 1.72752E-27
5.95404E-01 1.67351E-27
5.99684E-01 1.62125E-27
6.03956E-01 1.57068E-27
6.08220E-01 1.52173E-27
6.12476E-01 1.47435E-27
6.16723E-01 1.42848E-27
6.20961E-01 1.38408E-27
6.25190E-01 1.34110E-27
6.29410E-01 1.29949E-27
6.33619E-01 1.25919E-27
6.37819E-01 1.22018E-27
6.42008E-01 1.18239E-27
6.46186E-01 1.14580E-27
6.50353E-01 1.11037E-27
6.54508E-01 1.07604E-27
6.58652E-01 1.04279E-27
6.62784E-01 1.01059E-27
6.66903E-01 9.79391E-28
6.71010E-01 9.49166E-28
6.75104E-01 9.19883E-28
6.79184E-01 8.91510E-28
6.83251E-01 8.64018E-28
6.87303E-01 8.37378E-28
6.91342E-01 8.11562E-28
6.95366E-01 7.86543E-28
6.99375E-01 7.62295E-28
7.03368E-01 7.38794E-28
7.07347E-01 7.16015E-28
7.11309E-01 6.93935E-28
7.15256E-01 6.72531E-28
7.19186E-01 6.51782E-28
7.23099E-01 6.31666E-28
7.26995E-01 6.12163E-28
7.30874E-01 5.93255E-28
7.34736E-01 5.74921E-28
7.38579E-01 5.57143E-28
7.42405E-01 5.39904E-28
7.46212E-01 5.23188E-28
7.50000E-01 5.06976E-28
7.53769E-01 4.91253E-28
7.57519E-01 4.76005E-28
7.61249E-01 4.61215E-28
7.64960E-01 4.46870E-28
7.68650E-01 4.32956E-28
7.72320E-01 4.19459E-28
7.75968E-01 4.06366E-28
7.79596E-01 3.93665E-28
7.83203E-01 3.81343E-28
7.86788E-01 3.69389E-28
7.90351E-01 3.57791E-28
7.93893E-01 3.46538E-28
7.97411E-01 3.35621E-28
8.00908E-01 3.25027E-28
8.04381E-01 3.14748E-28
8.07831E-01 3.04773E-28
8.11257E-01 2.95094E-28
8.14660E-01 2.85702E-28
8.18039E-01 2.76587E-28
8.21394E-01 2.67741E-28
8.24724E-01 2.59157E-28
8.28030E-01 2.50825E-28
8.31310E-01 2.42739E-28
8.34565E-01 2.34891E-28
8.37795E-01 2.27274E-28
8.40999E-01 2.19881E-28
8.44177E-01 2.12705E-28
8.47329E-01 2.05740E-28
8.50455E-01 1.98979E-28
8.53553E-01 1.92417E-28
8.56625E-01 1.86047E-28
8.59670E-01 1.79864E-28
8.62687E-01 1.73862E-28
8.65677E-01 1.68035E-28
8.68639E-01 1.62380E-28
8.71572E-01 1.56890E-28
8.74478E-01 1.51561E-28
8.77355E-01 1.46387E-28
8.80203E-01 1.41366E-28
8.83022E-01 1.36491E-28
8.85812E-01 1.31759E-28
8.88573E-01 1.27166E-28
8.91304E-01 1.22707E-28
8.94005E-01 1.18380E-28
8.96677E-01 1.14179E-28
8.99318E-01 1.10101E-28
9.01928E-01 1.06143E-28
9.04508E-01 1.02302E-28
9.07058E-01 9.85737E-29
9.09576E-01 9.49553E-29
9.12063E-01 9.14436E-29
9.14519E-01 8.80357E-29
9.16943E-01 8.47285E-29
9.19335E-01 8.15194E-29
9.21696E-01 7.84056E-29
9.24024E-01 7.53845E-29
9.26320E-01 7.24534E-29
9.28584E-01 6.96098E-29
9.30815E-01 6.68515E-29
9.33013E-01 6.41761E-29
9.35178E-01 6.15813E-29
9.37310E-01 5.90649E-29
9.39409E-01 5.66248E-29
9.41474E-01 5.42590E-29
9.43505E-01 5.19656E-29
9.45503E-01 4.97425E-29
9.47467E-01 4.75880E-29
9.49397E-01 4.55003E-29
9.51293E-01 4.34775E-29
9.53154E-01 4.15182E-29
9.54981E-01 3.96206E-29
9.56773E-01 3.77831E-29
9.58530E-01 3.60043E-29
9.60252E-01 3.42827E-29
9.61940E-01 3.26169E-29
9.63592E-01 3.10055E-29
9.65209E-01 2.94471E-29
9.66790E-01 2.79406E-29
9.68336E-01 2.64847E-29
9.69846E-01 2.50782E-29
9.71321E-01 2.37200E-29
9.72759E-01 2.24089E-29
9.74162E-01 2.11439E-29
9.75528E-01 1.99239E-29
9.76858E-01 1.87481E-29
9.78152E-01 1.76153E-29
9.79410E-01 1.65248E-29
9.80631E-01 1.54756E-29
9.81815E-01 1.44669E-29
9.82963E-01 1.34978E-29
9.84074E-01 1.25677E-29
9.85148E-01 1.16757E-29
9.86185E-01 1.08211E-29
9.87185E-01 1.00033E-29
9.88148E-01 9.22152E-30
9.89074E-01 8.47525E-30
9.89962E-01 7.76385E-30
9.90814E-01 7.08674E-30
9.91627E-01 6.44340E-30
9.92404E-01 5.83331E-30
9.93143E-01 5.25598E-30
9.93844E-01 4.71095E-30
9.94508E-01 4.19778E-30
9.95134E-01 3.71608E-30
9.95722E-01 3.26546E-30
9.96273E-01 2.84556E-30
9.96786E-01 2.45604E-30
9.97261E-01 2.09660E-30
9.97698E-01 1.76695E-30
9.98097E-01 1.46684E-30
9.98459E-01 1.19602E-30
9.98782E-01 9.54277E-31
9.99067E-01 7.41423E-31
9.99315E-01 5.57290E-31
9.99524E-01 4.01730E-31
9.99695E-01 2.74621E-31
9.99829E-01 1.75863E-31
9.99924E-01 1.05377E-31
9.99981E-01 6.31076E-32
1.00000E+00 4.90213E-32
