 #
 # Subroutine ELSEPA. Elastic scattering of electrons and positrons
 #                    by neutral atoms and positive ions
 #
 # Projectile: electron
 # Kinetic energy = 1.75000E+07 eV = 6.43113E+05 a.u.
 #
 # WARNING: High-energy factorization with free-atom DF screening.
 #          Absorption, polarization and exchange corrections are
 #          switched off.
 #          Phase shifts are calculated for the bare nucleus.
 #          Scattering amplitudes are not evaluated.
 #
 # Element: As,  Z =  33,  atomic weight = 7.49216E+01 g/mol
 #
 # Nuclear model: Fermi distribution
 #                Average radius = 4.51079E-13 cm
 #                Skin thickness = 5.46000E-14 cm
 #
 # Number of electrons = 33
 #
 # Total elastic cross section = 2.48889E-18 cm**2 = 8.88797E-02 a0**2
 # 1st transport cross section = 6.19892E-24 cm**2 = 2.21367E-07 a0**2
 # 2nd transport cross section = 1.77770E-23 cm**2 = 6.34827E-07 a0**2
 #
 #
 # Differential cross section:                       MU=(1-COS(THETA))/2
 #
 #  THETA        MU          DCS          DCS        Sherman      error
 #  (deg)                 (cm**2/sr)   (a0**2/sr)    function
 #----------------------------------------------------------------------
0.00000E+00 6.59528E-12
7.61557E-13 6.59482E-12
1.18994E-12 6.59456E-12
1.71346E-12 6.59425E-12
2.33225E-12 6.59388E-12
3.04617E-12 6.59345E-12
3.85530E-12 6.59296E-12
4.75964E-12 6.59242E-12
5.75917E-12 6.59182E-12
6.85391E-12 6.59117E-12
8.04379E-12 6.59045E-12
9.32893E-12 6.58968E-12
1.07092E-11 6.58886E-12
1.21847E-11 6.58798E-12
1.37554E-11 6.58704E-12
1.54213E-11 6.58604E-12
1.71823E-11 6.58499E-12
1.90386E-11 6.58388E-12
2.09900E-11 6.58272E-12
2.30367E-11 6.58149E-12
2.51785E-11 6.58022E-12
2.74156E-11 6.57888E-12
2.97478E-11 6.57749E-12
3.21752E-11 6.57605E-12
3.46979E-11 6.57454E-12
3.73157E-11 6.57298E-12
4.00286E-11 6.57137E-12
4.28368E-11 6.56970E-12
4.57402E-11 6.56797E-12
4.87388E-11 6.56619E-12
5.18325E-11 6.56435E-12
5.50215E-11 6.56246E-12
5.83057E-11 6.56051E-12
6.16850E-11 6.55850E-12
6.51595E-11 6.55644E-12
6.87293E-11 6.55433E-12
7.23943E-11 6.55216E-12
7.61544E-11 6.54993E-12
1.18991E-10 6.52465E-12
1.71347E-10 6.49397E-12
2.33223E-10 6.45799E-12
3.04617E-10 6.41686E-12
3.85531E-10 6.37072E-12
4.75965E-10 6.31977E-12
5.75917E-10 6.26417E-12
6.85389E-10 6.20414E-12
8.04380E-10 6.13925E-12
9.32891E-10 6.07080E-12
1.07092E-09 5.99935E-12
1.21847E-09 5.92324E-12
1.37554E-09 5.84414E-12
1.54213E-09 5.76301E-12
1.71823E-09 5.67783E-12
1.90386E-09 5.59031E-12
2.09900E-09 5.50173E-12
2.30367E-09 5.40982E-12
2.51785E-09 5.31616E-12
2.74156E-09 5.22235E-12
2.97478E-09 5.12601E-12
3.21752E-09 5.02842E-12
3.46978E-09 4.93149E-12
3.73156E-09 4.83284E-12
4.00286E-09 4.73337E-12
4.28368E-09 4.63522E-12
4.57402E-09 4.53616E-12
4.87388E-09 4.43662E-12
5.18326E-09 4.33893E-12
5.50215E-09 4.24108E-12
5.83057E-09 4.14300E-12
6.16850E-09 4.04719E-12
6.51596E-09 3.95186E-12
6.87293E-09 3.85652E-12
7.23942E-09 3.76371E-12
7.61544E-09 3.67192E-12
1.18991E-08 2.83294E-12
1.71347E-08 2.16457E-12
2.33223E-08 1.65741E-12
3.04617E-08 1.28108E-12
3.85531E-08 1.00434E-12
4.75965E-08 8.00045E-13
5.75917E-08 6.47522E-13
6.85389E-08 5.31926E-13
8.04380E-08 4.40109E-13
9.32891E-08 3.70223E-13
1.07092E-07 3.16737E-13
1.21847E-07 2.70782E-13
1.37554E-07 2.33566E-13
1.54213E-07 2.04011E-13
1.71823E-07 1.77715E-13
1.90386E-07 1.55566E-13
2.09900E-07 1.37498E-13
2.30367E-07 1.21197E-13
2.51785E-07 1.07084E-13
2.74156E-07 9.53363E-14
2.97478E-07 8.47261E-14
3.21752E-07 7.53771E-14
3.46978E-07 6.74696E-14
3.73156E-07 6.03535E-14
4.00286E-07 5.40150E-14
4.28368E-07 4.85820E-14
4.57402E-07 4.37108E-14
4.87388E-07 3.93429E-14
5.18325E-07 3.55560E-14
5.50215E-07 3.21673E-14
5.83057E-07 2.91155E-14
6.16850E-07 2.64430E-14
6.51596E-07 2.40512E-14
6.87293E-07 2.18903E-14
7.23942E-07 1.99809E-14
7.61543E-07 1.82687E-14
1.18991E-06 8.13715E-15
1.71347E-06 4.17974E-15
2.33223E-06 2.38551E-15
3.04617E-06 1.46829E-15
3.85531E-06 9.54121E-16
4.75964E-06 6.46080E-16
5.75916E-06 4.52157E-16
6.85388E-06 3.25150E-16
8.04378E-06 2.39225E-16
9.32888E-06 1.79805E-16
1.07092E-05 1.37634E-16
1.21846E-05 1.07073E-16
1.37553E-05 8.45121E-17
1.54212E-05 6.75757E-17
1.71822E-05 5.46808E-17
1.90385E-05 4.47204E-17
2.09899E-05 3.69412E-17
2.30365E-05 3.07852E-17
2.51783E-05 2.58603E-17
2.74153E-05 2.18830E-17
2.97475E-05 1.86435E-17
3.21749E-05 1.59836E-17
3.46974E-05 1.37833E-17
3.73152E-05 1.19503E-17
4.00281E-05 1.04128E-17
4.28362E-05 9.11561E-18
4.57395E-05 8.01467E-18
4.87380E-05 7.07522E-18
5.18317E-05 6.26953E-18
5.50205E-05 5.57524E-18
5.83045E-05 4.97443E-18
6.16838E-05 4.45251E-18
6.51582E-05 3.99738E-18
6.87277E-05 3.59904E-18
7.23925E-05 3.24916E-18
7.61524E-05 2.94077E-18
9.21439E-05 2.01942E-18
1.09658E-04 1.43209E-18
1.28695E-04 1.04354E-18
1.49255E-04 7.78176E-19
1.71338E-04 5.92026E-19
1.94942E-04 4.58326E-19
2.20070E-04 3.60317E-19
2.46720E-04 2.87158E-19
2.74892E-04 2.31654E-19
3.04586E-04 1.88938E-19
3.35803E-04 1.55630E-19
3.68542E-04 1.29351E-19
4.02802E-04 1.08395E-19
4.38585E-04 9.15170E-20
4.75889E-04 7.78024E-20
5.14715E-04 6.65647E-20
5.55063E-04 5.72866E-20
5.96931E-04 4.95714E-20
6.40321E-04 4.31137E-20
6.85233E-04 3.76753E-20
7.31665E-04 3.30689E-20
7.79618E-04 2.91465E-20
8.29092E-04 2.57894E-20
8.80086E-04 2.29028E-20
9.32601E-04 2.04096E-20
9.86636E-04 1.82471E-20
1.04219E-03 1.63641E-20
1.09927E-03 1.47182E-20
1.15786E-03 1.32745E-20
1.21797E-03 1.20039E-20
1.27961E-03 1.08820E-20
1.34276E-03 9.88847E-21
1.40743E-03 9.00598E-21
1.47362E-03 8.22000E-21
1.54133E-03 7.51810E-21
1.61056E-03 6.88971E-21
1.68131E-03 6.32578E-21
1.75357E-03 5.81852E-21
1.82735E-03 5.36122E-21
1.90265E-03 4.94809E-21
1.97947E-03 4.57410E-21
2.05780E-03 4.23487E-21
2.13765E-03 3.92661E-21
2.21902E-03 3.64596E-21
2.30190E-03 3.39001E-21
2.38630E-03 3.15620E-21
2.47222E-03 2.94226E-21
2.55965E-03 2.74620E-21
2.64859E-03 2.56625E-21
2.73905E-03 2.40084E-21
2.83103E-03 2.24859E-21
2.92452E-03 2.10826E-21
3.01952E-03 1.97874E-21
3.11604E-03 1.85905E-21
3.21407E-03 1.74830E-21
3.31362E-03 1.64570E-21
3.41468E-03 1.55055E-21
3.51725E-03 1.46220E-21
3.62133E-03 1.38008E-21
3.72692E-03 1.30366E-21
3.83403E-03 1.23247E-21
3.94265E-03 1.16610E-21
4.05278E-03 1.10415E-21
4.16442E-03 1.04628E-21
4.27757E-03 9.92166E-22
4.39223E-03 9.41517E-22
4.50840E-03 8.94071E-22
4.62608E-03 8.49589E-22
4.74527E-03 8.07850E-22
4.86597E-03 7.68653E-22
4.98817E-03 7.31814E-22
5.11188E-03 6.97165E-22
5.23711E-03 6.64551E-22
5.36383E-03 6.33830E-22
5.49207E-03 6.04871E-22
5.62181E-03 5.77554E-22
5.75306E-03 5.51769E-22
5.88581E-03 5.27413E-22
6.02007E-03 5.04391E-22
6.15583E-03 4.82618E-22
6.29310E-03 4.62012E-22
6.43187E-03 4.42500E-22
6.57214E-03 4.24011E-22
6.71392E-03 4.06482E-22
6.85720E-03 3.89854E-22
7.00198E-03 3.74071E-22
7.14827E-03 3.59083E-22
7.29605E-03 3.44841E-22
7.44534E-03 3.31302E-22
7.59612E-03 3.18423E-22
7.97965E-03 2.88874E-22
8.37255E-03 2.62690E-22
8.77480E-03 2.39419E-22
9.18641E-03 2.18681E-22
9.60736E-03 2.00151E-22
1.00376E-02 1.83551E-22
1.04773E-02 1.68646E-22
1.09262E-02 1.55230E-22
1.13844E-02 1.43129E-22
1.18520E-02 1.32190E-22
1.23288E-02 1.22282E-22
1.28150E-02 1.13289E-22
1.33104E-02 1.05112E-22
1.38150E-02 9.76637E-23
1.43290E-02 9.08668E-23
1.48521E-02 8.46539E-23
1.53845E-02 7.89658E-23
1.59262E-02 7.37501E-23
1.64770E-02 6.89602E-23
1.70371E-02 6.45548E-23
1.76063E-02 6.04976E-23
1.81848E-02 5.67558E-23
1.87724E-02 5.33004E-23
1.93692E-02 5.01052E-23
1.99751E-02 4.71473E-23
2.05901E-02 4.44056E-23
2.12143E-02 4.18613E-23
2.18476E-02 3.94976E-23
2.24900E-02 3.72992E-23
2.31415E-02 3.52525E-23
2.38021E-02 3.33450E-23
2.44717E-02 3.15654E-23
2.51504E-02 2.99036E-23
2.58382E-02 2.83502E-23
2.65349E-02 2.68969E-23
2.72407E-02 2.55360E-23
2.79555E-02 2.42606E-23
2.86793E-02 2.30641E-23
2.94120E-02 2.19408E-23
3.01537E-02 2.08855E-23
3.09043E-02 1.98932E-23
3.16639E-02 1.89592E-23
3.24324E-02 1.80798E-23
3.32098E-02 1.72510E-23
3.39961E-02 1.64693E-23
3.47912E-02 1.57316E-23
3.55952E-02 1.50350E-23
3.64081E-02 1.43766E-23
3.72297E-02 1.37540E-23
3.80602E-02 1.31649E-23
3.88995E-02 1.26071E-23
3.97476E-02 1.20787E-23
4.06044E-02 1.15778E-23
4.14700E-02 1.11026E-23
4.23443E-02 1.06517E-23
4.32273E-02 1.02235E-23
4.41190E-02 9.81665E-24
4.50194E-02 9.42993E-24
4.59284E-02 9.06212E-24
4.68461E-02 8.71212E-24
4.87074E-02 8.06151E-24
5.06030E-02 7.47066E-24
5.25328E-02 6.93308E-24
5.44967E-02 6.44309E-24
5.64946E-02 5.99569E-24
5.85262E-02 5.58652E-24
6.05914E-02 5.21169E-24
6.26901E-02 4.86781E-24
6.48222E-02 4.55183E-24
6.69873E-02 4.26109E-24
6.91854E-02 3.99318E-24
7.14163E-02 3.74599E-24
7.36799E-02 3.51761E-24
7.59760E-02 3.30635E-24
7.83043E-02 3.11069E-24
8.06647E-02 2.92925E-24
8.30571E-02 2.76082E-24
8.54812E-02 2.60429E-24
8.79369E-02 2.45865E-24
9.04240E-02 2.32302E-24
9.29422E-02 2.19657E-24
9.54915E-02 2.07857E-24
9.80716E-02 1.96834E-24
1.00682E-01 1.86528E-24
1.03323E-01 1.76884E-24
1.05995E-01 1.67850E-24
1.08696E-01 1.59382E-24
1.11427E-01 1.51437E-24
1.14188E-01 1.43977E-24
1.16978E-01 1.36967E-24
1.19797E-01 1.30374E-24
1.22645E-01 1.24169E-24
1.25522E-01 1.18324E-24
1.28428E-01 1.12816E-24
1.31361E-01 1.07621E-24
1.34323E-01 1.02718E-24
1.37313E-01 9.80871E-25
1.40330E-01 9.37108E-25
1.43375E-01 8.95724E-25
1.46447E-01 8.56565E-25
1.49545E-01 8.19490E-25
1.52671E-01 7.84366E-25
1.55823E-01 7.51073E-25
1.59001E-01 7.19496E-25
1.62205E-01 6.89531E-25
1.65435E-01 6.61080E-25
1.68690E-01 6.34052E-25
1.71970E-01 6.08364E-25
1.75276E-01 5.83936E-25
1.78606E-01 5.60695E-25
1.81961E-01 5.38573E-25
1.85340E-01 5.17505E-25
1.88743E-01 4.97433E-25
1.92169E-01 4.78301E-25
1.95619E-01 4.60055E-25
1.99092E-01 4.42649E-25
2.02589E-01 4.26036E-25
2.06107E-01 4.10172E-25
2.09649E-01 3.95019E-25
2.13212E-01 3.80539E-25
2.16797E-01 3.66695E-25
2.20404E-01 3.53456E-25
2.24032E-01 3.40789E-25
2.27680E-01 3.28666E-25
2.31350E-01 3.17059E-25
2.35040E-01 3.05942E-25
2.38751E-01 2.95291E-25
2.42481E-01 2.85082E-25
2.46231E-01 2.75294E-25
2.50000E-01 2.65906E-25
2.53788E-01 2.56899E-25
2.57595E-01 2.48255E-25
2.61421E-01 2.39956E-25
2.65264E-01 2.31987E-25
2.69126E-01 2.24331E-25
2.73005E-01 2.16975E-25
2.76901E-01 2.09904E-25
2.80814E-01 2.03105E-25
2.84744E-01 1.96566E-25
2.88691E-01 1.90276E-25
2.92653E-01 1.84223E-25
2.96632E-01 1.78397E-25
3.00625E-01 1.72787E-25
3.04634E-01 1.67384E-25
3.08658E-01 1.62180E-25
3.12697E-01 1.57165E-25
3.16749E-01 1.52332E-25
3.20816E-01 1.47673E-25
3.24896E-01 1.43180E-25
3.28990E-01 1.38846E-25
3.33097E-01 1.34666E-25
3.37216E-01 1.30631E-25
3.41348E-01 1.26738E-25
3.45492E-01 1.22979E-25
3.49647E-01 1.19349E-25
3.53814E-01 1.15844E-25
3.57992E-01 1.12457E-25
3.62181E-01 1.09185E-25
3.66381E-01 1.06023E-25
3.70590E-01 1.02966E-25
3.74810E-01 1.00011E-25
3.79039E-01 9.71531E-26
3.83277E-01 9.43889E-26
3.87524E-01 9.17149E-26
3.91780E-01 8.91276E-26
3.96044E-01 8.66237E-26
4.00316E-01 8.42001E-26
4.04596E-01 8.18537E-26
4.08882E-01 7.95818E-26
4.13176E-01 7.73814E-26
4.17476E-01 7.52501E-26
4.21783E-01 7.31853E-26
4.26095E-01 7.11846E-26
4.30413E-01 6.92456E-26
4.34737E-01 6.73662E-26
4.39065E-01 6.55442E-26
4.43398E-01 6.37776E-26
4.47736E-01 6.20644E-26
4.52077E-01 6.04028E-26
4.56422E-01 5.87909E-26
4.60770E-01 5.72270E-26
4.65122E-01 5.57095E-26
4.69476E-01 5.42368E-26
4.73832E-01 5.28073E-26
4.78190E-01 5.14195E-26
4.82550E-01 5.00722E-26
4.86912E-01 4.87638E-26
4.91274E-01 4.74931E-26
4.95637E-01 4.62589E-26
5.00000E-01 4.50599E-26
5.04363E-01 4.38950E-26
5.08726E-01 4.27630E-26
5.13088E-01 4.16629E-26
5.17450E-01 4.05937E-26
5.21810E-01 3.95543E-26
5.26168E-01 3.85438E-26
5.30524E-01 3.75613E-26
5.34878E-01 3.66058E-26
5.39230E-01 3.56766E-26
5.43578E-01 3.47727E-26
5.47923E-01 3.38935E-26
5.52264E-01 3.30381E-26
5.56602E-01 3.22057E-26
5.60935E-01 3.13958E-26
5.65263E-01 3.06075E-26
5.69587E-01 2.98403E-26
5.73905E-01 2.90934E-26
5.78217E-01 2.83663E-26
5.82524E-01 2.76583E-26
5.86824E-01 2.69690E-26
5.91118E-01 2.62977E-26
5.95404E-01 2.56438E-26
5.99684E-01 2.50070E-26
6.03956E-01 2.43866E-26
6.08220E-01 2.37822E-26
6.12476E-01 2.31933E-26
6.16723E-01 2.26195E-26
6.20961E-01 2.20604E-26
6.25190E-01 2.15154E-26
6.29410E-01 2.09843E-26
6.33619E-01 2.04665E-26
6.37819E-01 1.99618E-26
6.42008E-01 1.94697E-26
6.46186E-01 1.89899E-26
6.50353E-01 1.85221E-26
6.54508E-01 1.80658E-26
6.58652E-01 1.76209E-26
6.62784E-01 1.71869E-26
6.66903E-01 1.67636E-26
6.71010E-01 1.63507E-26
6.75104E-01 1.59479E-26
6.79184E-01 1.55548E-26
6.83251E-01 1.51714E-26
6.87303E-01 1.47972E-26
6.91342E-01 1.44320E-26
6.95366E-01 1.40757E-26
6.99375E-01 1.37279E-26
7.03368E-01 1.33884E-26
7.07347E-01 1.30571E-26
7.11309E-01 1.27336E-26
7.15256E-01 1.24178E-26
7.19186E-01 1.21095E-26
7.23099E-01 1.18085E-26
7.26995E-01 1.15146E-26
7.30874E-01 1.12276E-26
7.34736E-01 1.09473E-26
7.38579E-01 1.06736E-26
7.42405E-01 1.04063E-26
7.46212E-01 1.01452E-26
7.50000E-01 9.89021E-27
7.53769E-01 9.64111E-27
7.57519E-01 9.39778E-27
7.61249E-01 9.16007E-27
7.64960E-01 8.92784E-27
7.68650E-01 8.70096E-27
7.72320E-01 8.47929E-27
7.75968E-01 8.26270E-27
7.79596E-01 8.05107E-27
7.83203E-01 7.84428E-27
7.86788E-01 7.64220E-27
7.90351E-01 7.44473E-27
7.93893E-01 7.25174E-27
7.97411E-01 7.06314E-27
8.00908E-01 6.87882E-27
8.04381E-01 6.69867E-27
8.07831E-01 6.52260E-27
8.11257E-01 6.35051E-27
8.14660E-01 6.18230E-27
8.18039E-01 6.01788E-27
8.21394E-01 5.85717E-27
8.24724E-01 5.70007E-27
8.28030E-01 5.54651E-27
8.31310E-01 5.39640E-27
8.34565E-01 5.24966E-27
8.37795E-01 5.10622E-27
8.40999E-01 4.96600E-27
8.44177E-01 4.82892E-27
8.47329E-01 4.69492E-27
8.50455E-01 4.56392E-27
8.53553E-01 4.43587E-27
8.56625E-01 4.31068E-27
8.59670E-01 4.18831E-27
8.62687E-01 4.06868E-27
8.65677E-01 3.95174E-27
8.68639E-01 3.83743E-27
8.71572E-01 3.72569E-27
8.74478E-01 3.61646E-27
8.77355E-01 3.50970E-27
8.80203E-01 3.40534E-27
8.83022E-01 3.30334E-27
8.85812E-01 3.20365E-27
8.88573E-01 3.10622E-27
8.91304E-01 3.01100E-27
8.94005E-01 2.91795E-27
8.96677E-01 2.82702E-27
8.99318E-01 2.73816E-27
9.01928E-01 2.65134E-27
9.04508E-01 2.56651E-27
9.07058E-01 2.48364E-27
9.09576E-01 2.40268E-27
9.12063E-01 2.32360E-27
9.14519E-01 2.24636E-27
9.16943E-01 2.17092E-27
9.19335E-01 2.09725E-27
9.21696E-01 2.02532E-27
9.24024E-01 1.95508E-27
9.26320E-01 1.88652E-27
9.28584E-01 1.81959E-27
9.30815E-01 1.75427E-27
9.33013E-01 1.69053E-27
9.35178E-01 1.62834E-27
9.37310E-01 1.56766E-27
9.39409E-01 1.50848E-27
9.41474E-01 1.45077E-27
9.43505E-01 1.39450E-27
9.45503E-01 1.33964E-27
9.47467E-01 1.28617E-27
9.49397E-01 1.23408E-27
9.51293E-01 1.18332E-27
9.53154E-01 1.13389E-27
9.54981E-01 1.08576E-27
9.56773E-01 1.03891E-27
9.58530E-01 9.93319E-28
9.60252E-01 9.48966E-28
9.61940E-01 9.05833E-28
9.63592E-01 8.63901E-28
9.65209E-01 8.23152E-28
9.66790E-01 7.83568E-28
9.68336E-01 7.45133E-28
9.69846E-01 7.07830E-28
9.71321E-01 6.71643E-28
9.72759E-01 6.36556E-28
9.74162E-01 6.02554E-28
9.75528E-01 5.69624E-28
9.76858E-01 5.37750E-28
9.78152E-01 5.06920E-28
9.79410E-01 4.77121E-28
9.80631E-01 4.48339E-28
9.81815E-01 4.20563E-28
9.82963E-01 3.93781E-28
9.84074E-01 3.67982E-28
9.85148E-01 3.43156E-28
9.86185E-01 3.19290E-28
9.87185E-01 2.96377E-28
9.88148E-01 2.74405E-28
9.89074E-01 2.53367E-28
9.89962E-01 2.33253E-28
9.90814E-01 2.14054E-28
9.91627E-01 1.95764E-28
9.92404E-01 1.78374E-28
9.93143E-01 1.61877E-28
9.93844E-01 1.46266E-28
9.94508E-01 1.31535E-28
9.95134E-01 1.17678E-28
9.95722E-01 1.04689E-28
9.96273E-01 9.25629E-29
9.96786E-01 8.12945E-29
9.97261E-01 7.08792E-29
9.97698E-01 6.13127E-29
9.98097E-01 5.25912E-29
9.98459E-01 4.47111E-29
9.98782E-01 3.76690E-29
9.99067E-01 3.14622E-29
9.99315E-01 2.60881E-29
9.99524E-01 2.15445E-29
9.99695E-01 1.78295E-29
9.99829E-01 1.49417E-29
9.99924E-01 1.28798E-29
9.99981E-01 1.16430E-29
1.00000E+00 1.12308E-29
