 #
 # Subroutine ELSEPA. Elastic scattering of electrons and positrons
 #                    by neutral atoms and positive ions
 #
 # Projectile: electron
 # Kinetic energy = 3.50000E+08 eV = 1.28623E+07 a.u.
 #
 # WARNING: High-energy factorization with free-atom DF screening.
 #          Absorption, polarization and exchange corrections are
 #          switched off.
 #          Phase shifts are calculated for the bare nucleus.
 #          Scattering amplitudes are not evaluated.
 #
 # Element: As,  Z =  33,  atomic weight = 7.49216E+01 g/mol
 #
 # Nuclear model: Fermi distribution
 #                Average radius = 4.51079E-13 cm
 #                Skin thickness = 5.46000E-14 cm
 #
 # Number of electrons = 33
 #
 # Total elastic cross section = 2.48717E-18 cm**2 = 8.88184E-02 a0**2
 # 1st transport cross section = 1.80323E-26 cm**2 = 6.43945E-10 a0**2
 # 2nd transport cross section = 5.40487E-26 cm**2 = 1.93011E-09 a0**2
 #
 #
 # Differential cross section:                       MU=(1-COS(THETA))/2
 #
 #  THETA        MU          DCS          DCS        Sherman      error
 #  (deg)                 (cm**2/sr)   (a0**2/sr)    function
 #----------------------------------------------------------------------
0.00000E+00 2.49782E-09
7.61557E-13 2.43369E-09
1.18994E-12 2.39874E-09
1.71346E-12 2.35707E-09
2.33225E-12 2.30892E-09
3.04617E-12 2.25572E-09
3.85530E-12 2.19734E-09
4.75964E-12 2.13482E-09
5.75917E-12 2.06945E-09
6.85391E-12 2.00044E-09
8.04379E-12 1.92985E-09
9.32893E-12 1.85827E-09
1.07092E-11 1.78500E-09
1.21847E-11 1.71220E-09
1.37554E-11 1.63966E-09
1.54213E-11 1.56740E-09
1.71823E-11 1.49695E-09
1.90386E-11 1.42752E-09
2.09900E-11 1.35984E-09
2.30367E-11 1.29475E-09
2.51785E-11 1.23106E-09
2.74156E-11 1.17003E-09
2.97478E-11 1.11176E-09
3.21752E-11 1.05528E-09
3.46979E-11 1.00174E-09
3.73157E-11 9.50731E-10
4.00286E-11 9.01904E-10
4.28368E-11 8.55846E-10
4.57402E-11 8.12008E-10
4.87388E-11 7.70443E-10
5.18325E-11 7.31349E-10
5.50215E-11 6.94156E-10
5.83057E-11 6.59127E-10
6.16850E-11 6.26225E-10
6.51595E-11 5.94935E-10
6.87293E-11 5.65589E-10
7.23943E-11 5.37969E-10
7.61544E-11 5.11832E-10
1.18991E-10 3.21340E-10
1.71347E-10 2.14123E-10
2.33223E-10 1.49190E-10
3.04617E-10 1.09634E-10
3.85531E-10 8.22867E-11
4.75965E-10 6.31392E-11
5.75917E-10 4.95172E-11
6.85389E-10 3.88382E-11
8.04380E-10 3.09172E-11
9.32891E-10 2.48516E-11
1.07092E-09 2.00059E-11
1.21847E-09 1.62842E-11
1.37554E-09 1.33318E-11
1.54213E-09 1.09748E-11
1.71823E-09 9.11269E-12
1.90386E-09 7.60617E-12
2.09900E-09 6.39250E-12
2.30367E-09 5.41125E-12
2.51785E-09 4.60471E-12
2.74156E-09 3.94433E-12
2.97478E-09 3.39913E-12
3.21752E-09 2.94430E-12
3.46978E-09 2.56474E-12
3.73156E-09 2.24536E-12
4.00286E-09 1.97484E-12
4.28368E-09 1.74501E-12
4.57402E-09 1.54834E-12
4.87388E-09 1.37906E-12
5.18326E-09 1.23293E-12
5.50215E-09 1.10594E-12
5.83057E-09 9.95300E-13
6.16850E-09 8.98573E-13
6.51596E-09 8.13362E-13
6.87293E-09 7.38288E-13
7.23942E-09 6.71842E-13
7.61544E-09 6.12693E-13
1.18991E-08 2.70114E-13
1.71347E-08 1.36217E-13
2.33223E-08 7.54436E-14
3.04617E-08 4.49414E-14
3.85531E-08 2.83710E-14
4.75965E-08 1.87775E-14
5.75917E-08 1.29189E-14
6.85389E-08 9.18174E-15
8.04380E-08 6.70580E-15
9.32891E-08 5.01261E-15
1.07092E-07 3.82269E-15
1.21847E-07 2.96613E-15
1.37554E-07 2.33692E-15
1.54213E-07 1.86610E-15
1.71823E-07 1.50812E-15
1.90386E-07 1.23202E-15
2.09900E-07 1.01625E-15
2.30367E-07 8.45702E-16
2.51785E-07 7.09437E-16
2.74156E-07 5.99521E-16
2.97478E-07 5.10071E-16
3.21752E-07 4.36674E-16
3.46978E-07 3.76005E-16
3.73156E-07 3.25500E-16
4.00286E-07 2.83188E-16
4.28368E-07 2.47526E-16
4.57402E-07 2.17296E-16
4.87388E-07 1.91539E-16
5.18325E-07 1.69483E-16
5.50215E-07 1.50508E-16
5.83057E-07 1.34114E-16
6.16850E-07 1.19890E-16
6.51596E-07 1.07500E-16
6.87293E-07 9.66692E-17
7.23942E-07 8.71672E-17
7.61543E-07 7.88036E-17
1.18991E-06 3.23647E-17
1.71347E-06 1.56296E-17
2.33223E-06 8.44335E-18
3.04617E-06 4.95202E-18
3.85531E-06 3.09275E-18
4.75964E-06 2.02978E-18
5.75916E-06 1.38673E-18
6.85388E-06 9.79343E-19
8.04378E-06 7.11172E-19
9.32888E-06 5.28832E-19
1.07092E-05 4.01367E-19
1.21846E-05 3.10099E-19
1.37553E-05 2.43363E-19
1.54212E-05 1.93655E-19
1.71822E-05 1.56017E-19
1.90385E-05 1.27085E-19
2.09899E-05 1.04585E-19
2.30365E-05 8.68492E-20
2.51783E-05 7.27145E-20
2.74153E-05 6.13386E-20
2.97475E-05 5.21012E-20
3.21749E-05 4.45393E-20
3.46974E-05 3.83022E-20
3.73152E-05 3.31213E-20
4.00281E-05 2.87888E-20
4.28362E-05 2.51429E-20
4.57395E-05 2.20564E-20
4.87380E-05 1.94292E-20
5.18317E-05 1.71815E-20
5.50205E-05 1.52495E-20
5.83045E-05 1.35815E-20
6.16838E-05 1.21356E-20
6.51582E-05 1.08773E-20
6.87277E-05 9.77818E-21
7.23925E-05 8.81460E-21
7.61524E-05 7.95860E-21
9.21439E-05 5.43611E-21
1.09658E-04 3.83796E-21
1.28695E-04 2.78607E-21
1.49255E-04 2.07075E-21
1.71338E-04 1.57078E-21
1.94942E-04 1.21279E-21
2.20070E-04 9.51063E-22
2.46720E-04 7.56149E-22
2.74892E-04 6.08583E-22
3.04586E-04 4.95229E-22
3.35803E-04 4.06992E-22
3.68542E-04 3.37489E-22
4.02802E-04 2.82147E-22
4.38585E-04 2.37643E-22
4.75889E-04 2.01531E-22
5.14715E-04 1.71983E-22
5.55063E-04 1.47622E-22
5.96931E-04 1.27393E-22
6.40321E-04 1.10486E-22
6.85233E-04 9.62678E-23
7.31665E-04 8.42427E-23
7.79618E-04 7.40184E-23
8.29092E-04 6.52815E-23
8.80086E-04 5.77808E-23
9.32601E-04 5.13128E-23
9.86636E-04 4.57123E-23
1.04219E-03 4.08440E-23
1.09927E-03 3.65964E-23
1.15786E-03 3.28775E-23
1.21797E-03 2.96105E-23
1.27961E-03 2.67317E-23
1.34276E-03 2.41873E-23
1.40743E-03 2.19320E-23
1.47362E-03 1.99276E-23
1.54133E-03 1.81416E-23
1.61056E-03 1.65462E-23
1.68131E-03 1.51179E-23
1.75357E-03 1.38361E-23
1.82735E-03 1.26835E-23
1.90265E-03 1.16448E-23
1.97947E-03 1.07069E-23
2.05780E-03 9.85855E-24
2.13765E-03 9.08970E-24
2.21902E-03 8.39171E-24
2.30190E-03 7.75698E-24
2.38630E-03 7.17886E-24
2.47222E-03 6.65147E-24
2.55965E-03 6.16965E-24
2.64859E-03 5.72883E-24
2.73905E-03 5.32496E-24
2.83103E-03 4.95444E-24
2.92452E-03 4.61408E-24
3.01952E-03 4.30105E-24
3.11604E-03 4.01279E-24
3.21407E-03 3.74704E-24
3.31362E-03 3.50177E-24
3.41468E-03 3.27515E-24
3.51725E-03 3.06554E-24
3.62133E-03 2.87147E-24
3.72692E-03 2.69161E-24
3.83403E-03 2.52476E-24
3.94265E-03 2.36984E-24
4.05278E-03 2.22586E-24
4.16442E-03 2.09193E-24
4.27757E-03 1.96726E-24
4.39223E-03 1.85109E-24
4.50840E-03 1.74277E-24
4.62608E-03 1.64170E-24
4.74527E-03 1.54730E-24
4.86597E-03 1.45908E-24
4.98817E-03 1.37658E-24
5.11188E-03 1.29938E-24
5.23711E-03 1.22707E-24
5.36383E-03 1.15932E-24
5.49207E-03 1.09579E-24
5.62181E-03 1.03618E-24
5.75306E-03 9.80223E-25
5.88581E-03 9.27657E-25
6.02007E-03 8.78253E-25
6.15583E-03 8.31793E-25
6.29310E-03 7.88079E-25
6.43187E-03 7.46927E-25
6.57214E-03 7.08168E-25
6.71392E-03 6.71645E-25
6.85720E-03 6.37212E-25
7.00198E-03 6.04734E-25
7.14827E-03 5.74086E-25
7.29605E-03 5.45153E-25
7.44534E-03 5.17827E-25
7.59612E-03 4.92007E-25
7.97965E-03 4.33454E-25
8.37255E-03 3.82467E-25
8.77480E-03 3.37965E-25
9.18641E-03 2.99041E-25
9.60736E-03 2.64927E-25
1.00376E-02 2.34972E-25
1.04773E-02 2.08623E-25
1.09262E-02 1.85407E-25
1.13844E-02 1.64919E-25
1.18520E-02 1.46814E-25
1.23288E-02 1.30792E-25
1.28150E-02 1.16595E-25
1.33104E-02 1.04001E-25
1.38150E-02 9.28174E-26
1.43290E-02 8.28751E-26
1.48521E-02 7.40283E-26
1.53845E-02 6.61495E-26
1.59262E-02 5.91271E-26
1.64770E-02 5.28633E-26
1.70371E-02 4.72726E-26
1.76063E-02 4.22794E-26
1.81848E-02 3.78174E-26
1.87724E-02 3.38282E-26
1.93692E-02 3.02601E-26
1.99751E-02 2.70674E-26
2.05901E-02 2.42096E-26
2.12143E-02 2.16508E-26
2.18476E-02 1.93593E-26
2.24900E-02 1.73068E-26
2.31415E-02 1.54680E-26
2.38021E-02 1.38206E-26
2.44717E-02 1.23445E-26
2.51504E-02 1.10220E-26
2.58382E-02 9.83715E-27
2.65349E-02 8.77569E-27
2.72407E-02 7.82492E-27
2.79555E-02 6.97344E-27
2.86793E-02 6.21106E-27
2.94120E-02 5.52865E-27
3.01537E-02 4.91801E-27
3.09043E-02 4.37178E-27
3.16639E-02 3.88339E-27
3.24324E-02 3.44689E-27
3.32098E-02 3.05697E-27
3.39961E-02 2.70886E-27
3.47912E-02 2.39826E-27
3.55952E-02 2.12131E-27
3.64081E-02 1.87453E-27
3.72297E-02 1.65480E-27
3.80602E-02 1.45933E-27
3.88995E-02 1.28557E-27
3.97476E-02 1.13127E-27
4.06044E-02 9.94381E-28
4.14700E-02 8.73064E-28
4.23443E-02 7.65668E-28
4.32273E-02 6.70710E-28
4.41190E-02 5.86854E-28
4.50194E-02 5.12903E-28
4.59284E-02 4.47778E-28
4.68461E-02 3.90513E-28
4.87074E-02 2.96178E-28
5.06030E-02 2.23969E-28
5.25328E-02 1.69126E-28
5.44967E-02 1.27836E-28
5.64946E-02 9.70530E-29
5.85262E-02 7.43534E-29
6.05914E-02 5.78185E-29
6.26901E-02 4.59358E-29
6.48222E-02 3.75207E-29
6.69873E-02 3.16520E-29
6.91854E-02 2.76188E-29
7.14163E-02 2.48785E-29
7.36799E-02 2.30213E-29
7.59760E-02 2.17425E-29
7.83043E-02 2.08196E-29
8.06647E-02 2.00940E-29
8.30571E-02 1.94559E-29
8.54812E-02 1.88330E-29
8.79369E-02 1.81807E-29
9.04240E-02 1.74750E-29
9.29422E-02 1.67065E-29
9.54915E-02 1.58759E-29
9.80716E-02 1.49907E-29
1.00682E-01 1.40624E-29
1.03323E-01 1.31046E-29
1.05995E-01 1.21316E-29
1.08696E-01 1.11573E-29
1.11427E-01 1.01945E-29
1.14188E-01 9.25491E-30
1.16978E-01 8.34815E-30
1.19797E-01 7.48230E-30
1.22645E-01 6.66361E-30
1.25522E-01 5.89665E-30
1.28428E-01 5.18446E-30
1.31361E-01 4.52865E-30
1.34323E-01 3.92966E-30
1.37313E-01 3.38687E-30
1.40330E-01 2.89881E-30
1.43375E-01 2.46332E-30
1.46447E-01 2.07772E-30
1.49545E-01 1.73892E-30
1.52671E-01 1.44360E-30
1.55823E-01 1.18827E-30
1.59001E-01 9.69372E-31
1.62205E-01 7.83374E-31
1.65435E-01 6.26826E-31
1.68690E-01 4.96408E-31
1.71970E-01 3.88969E-31
1.75276E-01 3.01557E-31
1.78606E-01 2.31433E-31
1.81961E-01 1.76089E-31
1.85340E-01 1.33243E-31
1.88743E-01 1.00848E-31
1.92169E-01 7.70791E-32
1.95619E-01 6.03266E-32
1.99092E-01 4.91862E-32
2.02589E-01 4.24438E-32
2.06107E-01 3.90616E-32
2.09649E-01 3.81633E-32
2.13212E-01 3.90177E-32
2.16797E-01 4.10246E-32
2.20404E-01 4.36986E-32
2.24032E-01 4.66560E-32
2.27680E-01 4.96005E-32
2.31350E-01 5.23113E-32
2.35040E-01 5.46310E-32
2.38751E-01 5.64555E-32
2.42481E-01 5.77244E-32
2.46231E-01 5.84126E-32
2.50000E-01 5.85227E-32
2.53788E-01 5.80788E-32
2.57595E-01 5.71209E-32
2.61421E-01 5.57000E-32
2.65264E-01 5.38739E-32
2.69126E-01 5.17048E-32
2.73005E-01 4.92554E-32
2.76901E-01 4.65878E-32
2.80814E-01 4.37613E-32
2.84744E-01 4.08315E-32
2.88691E-01 3.78492E-32
2.92653E-01 3.48600E-32
2.96632E-01 3.19039E-32
3.00625E-01 2.90153E-32
3.04634E-01 2.62232E-32
3.08658E-01 2.35509E-32
3.12697E-01 2.10169E-32
3.16749E-01 1.86350E-32
3.20816E-01 1.64145E-32
3.24896E-01 1.43613E-32
3.28990E-01 1.24775E-32
3.33097E-01 1.07626E-32
3.37216E-01 9.21345E-33
3.41348E-01 7.82498E-33
3.45492E-01 6.59039E-33
3.49647E-01 5.50165E-33
3.53814E-01 4.54975E-33
3.57992E-01 3.72503E-33
3.62181E-01 3.01746E-33
3.66381E-01 2.41681E-33
3.70590E-01 1.91292E-33
3.74810E-01 1.49578E-33
3.79039E-01 1.15572E-33
3.83277E-01 8.83514E-34
3.87524E-01 6.70425E-34
3.91780E-01 5.08294E-34
3.96044E-01 3.89569E-34
4.00316E-01 3.07330E-34
4.04596E-01 2.55292E-34
4.08882E-01 2.27808E-34
4.13176E-01 2.19849E-34
4.17476E-01 2.26984E-34
4.21783E-01 2.45348E-34
4.26095E-01 2.71614E-34
4.30413E-01 3.02949E-34
4.34737E-01 3.36979E-34
4.39065E-01 3.71748E-34
4.43398E-01 4.05676E-34
4.47736E-01 4.37519E-34
4.52077E-01 4.66332E-34
4.56422E-01 4.91429E-34
4.60770E-01 5.12351E-34
4.65122E-01 5.28830E-34
4.69476E-01 5.40758E-34
4.73832E-01 5.48164E-34
4.78190E-01 5.51183E-34
4.82550E-01 5.50034E-34
4.86912E-01 5.45004E-34
4.91274E-01 5.36425E-34
4.95637E-01 5.24662E-34
5.00000E-01 5.10098E-34
5.04363E-01 4.93124E-34
5.08726E-01 4.74128E-34
5.13088E-01 4.53488E-34
5.17450E-01 4.31568E-34
5.21810E-01 4.08709E-34
5.26168E-01 3.85230E-34
5.30524E-01 3.61423E-34
5.34878E-01 3.37553E-34
5.39230E-01 3.13853E-34
5.43578E-01 2.90530E-34
5.47923E-01 2.67764E-34
5.52264E-01 2.45704E-34
5.56602E-01 2.24477E-34
5.60935E-01 2.04182E-34
5.65263E-01 1.84898E-34
5.69587E-01 1.66681E-34
5.73905E-01 1.49569E-34
5.78217E-01 1.33583E-34
5.82524E-01 1.18730E-34
5.86824E-01 1.05002E-34
5.91118E-01 9.23809E-35
5.95404E-01 8.08380E-35
5.99684E-01 7.03376E-35
6.03956E-01 6.08372E-35
6.08220E-01 5.22891E-35
6.12476E-01 4.46419E-35
6.16723E-01 3.78416E-35
6.20961E-01 3.18326E-35
6.25190E-01 2.65582E-35
6.29410E-01 2.19622E-35
6.33619E-01 1.79887E-35
6.37819E-01 1.45832E-35
6.42008E-01 1.16929E-35
6.46186E-01 9.26689E-36
6.50353E-01 7.25694E-36
6.54508E-01 5.61714E-36
6.58652E-01 4.30450E-36
6.62784E-01 3.27878E-36
6.66903E-01 2.50270E-36
6.71010E-01 1.94183E-36
6.75104E-01 1.56466E-36
6.79184E-01 1.34245E-36
6.83251E-01 1.24921E-36
6.87303E-01 1.26158E-36
6.91342E-01 1.35868E-36
6.95366E-01 1.52198E-36
6.99375E-01 1.73520E-36
7.03368E-01 1.98410E-36
7.07347E-01 2.25636E-36
7.11309E-01 2.54145E-36
7.15256E-01 2.83043E-36
7.19186E-01 3.11583E-36
7.23099E-01 3.39151E-36
7.26995E-01 3.65255E-36
7.30874E-01 3.89504E-36
7.34736E-01 4.11607E-36
7.38579E-01 4.31347E-36
7.42405E-01 4.48587E-36
7.46212E-01 4.63252E-36
7.50000E-01 4.75311E-36
7.53769E-01 4.84789E-36
7.57519E-01 4.91738E-36
7.61249E-01 4.96247E-36
7.64960E-01 4.98428E-36
7.68650E-01 4.98410E-36
7.72320E-01 4.96335E-36
7.75968E-01 4.92363E-36
7.79596E-01 4.86649E-36
7.83203E-01 4.79357E-36
7.86788E-01 4.70655E-36
7.90351E-01 4.60700E-36
7.93893E-01 4.49653E-36
7.97411E-01 4.37666E-36
8.00908E-01 4.24887E-36
8.04381E-01 4.11454E-36
8.07831E-01 3.97501E-36
8.11257E-01 3.83147E-36
8.14660E-01 3.68510E-36
8.18039E-01 3.53690E-36
8.21394E-01 3.38788E-36
8.24724E-01 3.23885E-36
8.28030E-01 3.09064E-36
8.31310E-01 2.94391E-36
8.34565E-01 2.79931E-36
8.37795E-01 2.65734E-36
8.40999E-01 2.51849E-36
8.44177E-01 2.38314E-36
8.47329E-01 2.25163E-36
8.50455E-01 2.12422E-36
8.53553E-01 2.00112E-36
8.56625E-01 1.88253E-36
8.59670E-01 1.76853E-36
8.62687E-01 1.65922E-36
8.65677E-01 1.55464E-36
8.68639E-01 1.45479E-36
8.71572E-01 1.35966E-36
8.74478E-01 1.26919E-36
8.77355E-01 1.18332E-36
8.80203E-01 1.10196E-36
8.83022E-01 1.02500E-36
8.85812E-01 9.52348E-37
8.88573E-01 8.83845E-37
8.91304E-01 8.19377E-37
8.94005E-01 7.58782E-37
8.96677E-01 7.01917E-37
8.99318E-01 6.48633E-37
9.01928E-01 5.98766E-37
9.04508E-01 5.52166E-37
9.07058E-01 5.08675E-37
9.09576E-01 4.68138E-37
9.12063E-01 4.30403E-37
9.14519E-01 3.95319E-37
9.16943E-01 3.62736E-37
9.19335E-01 3.32522E-37
9.21696E-01 3.04526E-37
9.24024E-01 2.78614E-37
9.26320E-01 2.54665E-37
9.28584E-01 2.32552E-37
9.30815E-01 2.12156E-37
9.33013E-01 1.93362E-37
9.35178E-01 1.76065E-37
9.37310E-01 1.60164E-37
9.39409E-01 1.45560E-37
9.41474E-01 1.32156E-37
9.43505E-01 1.19875E-37
9.45503E-01 1.08631E-37
9.47467E-01 9.83439E-38
9.49397E-01 8.89412E-38
9.51293E-01 8.03622E-38
9.53154E-01 7.25378E-38
9.54981E-01 6.54094E-38
9.56773E-01 5.89240E-38
9.58530E-01 5.30245E-38
9.60252E-01 4.76722E-38
9.61940E-01 4.28116E-38
9.63592E-01 3.84110E-38
9.65209E-01 3.44221E-38
9.66790E-01 3.08165E-38
9.68336E-01 2.75584E-38
9.69846E-01 2.46185E-38
9.71321E-01 2.19688E-38
9.72759E-01 1.95815E-38
9.74162E-01 1.74339E-38
9.75528E-01 1.55029E-38
9.76858E-01 1.37688E-38
9.78152E-01 1.22152E-38
9.79410E-01 1.08227E-38
9.80631E-01 9.57555E-39
9.81815E-01 8.46009E-39
9.82963E-01 7.46550E-39
9.84074E-01 6.57700E-39
9.85148E-01 5.78363E-39
9.86185E-01 5.07811E-39
9.87185E-01 4.45059E-39
9.88148E-01 3.89341E-39
9.89074E-01 3.39823E-39
9.89962E-01 2.95876E-39
9.90814E-01 2.56920E-39
9.91627E-01 2.22513E-39
9.92404E-01 1.92176E-39
9.93143E-01 1.65296E-39
9.93844E-01 1.41625E-39
9.94508E-01 1.20767E-39
9.95134E-01 1.02525E-39
9.95722E-01 8.64889E-40
9.96273E-01 7.24568E-40
9.96786E-01 6.02402E-40
9.97261E-01 4.95804E-40
9.97698E-01 4.03225E-40
9.98097E-01 3.23559E-40
9.98459E-01 2.54886E-40
9.98782E-01 1.96722E-40
9.99067E-01 1.47193E-40
9.99315E-01 1.06279E-40
9.99524E-01 7.26320E-41
9.99695E-01 4.60789E-41
9.99829E-01 2.59536E-41
9.99924E-01 1.18130E-41
9.99981E-01 3.27306E-42
1.00000E+00 4.20816E-43
