 #
 # Subroutine ELSEPA. Elastic scattering of electrons and positrons
 #                    by neutral atoms and positive ions
 #
 # Projectile: electron
 # Kinetic energy = 6.00000E+08 eV = 2.20496E+07 a.u.
 #
 # WARNING: High-energy factorization with free-atom DF screening.
 #          Absorption, polarization and exchange corrections are
 #          switched off.
 #          Phase shifts are calculated for the bare nucleus.
 #          Scattering amplitudes are not evaluated.
 #
 # Element: As,  Z =  33,  atomic weight = 7.49216E+01 g/mol
 #
 # Nuclear model: Fermi distribution
 #                Average radius = 4.51079E-13 cm
 #                Skin thickness = 5.46000E-14 cm
 #
 # Number of electrons = 33
 #
 # Total elastic cross section = 2.48377E-18 cm**2 = 8.86971E-02 a0**2
 # 1st transport cross section = 6.13981E-27 cm**2 = 2.19257E-10 a0**2
 # 2nd transport cross section = 1.84137E-26 cm**2 = 6.57567E-10 a0**2
 #
 #
 # Differential cross section:                       MU=(1-COS(THETA))/2
 #
 #  THETA        MU          DCS          DCS        Sherman      error
 #  (deg)                 (cm**2/sr)   (a0**2/sr)    function
 #----------------------------------------------------------------------
0.00000E+00 7.33162E-09
7.61557E-13 6.79892E-09
1.18994E-12 6.52509E-09
1.71346E-12 6.21302E-09
2.33225E-12 5.87318E-09
3.04617E-12 5.51585E-09
3.85530E-12 5.15044E-09
4.75964E-12 4.78515E-09
5.75917E-12 4.42626E-09
6.85391E-12 4.07900E-09
8.04379E-12 3.74830E-09
9.32893E-12 3.43686E-09
1.07092E-11 3.14631E-09
1.21847E-11 2.87735E-09
1.37554E-11 2.62995E-09
1.54213E-11 2.40356E-09
1.71823E-11 2.19727E-09
1.90386E-11 2.00990E-09
2.09900E-11 1.84013E-09
2.30367E-11 1.68636E-09
2.51785E-11 1.54746E-09
2.74156E-11 1.42211E-09
2.97478E-11 1.30902E-09
3.21752E-11 1.20697E-09
3.46979E-11 1.11482E-09
3.73157E-11 1.03155E-09
4.00286E-11 9.56228E-10
4.28368E-11 8.88001E-10
4.57402E-11 8.26116E-10
4.87388E-11 7.69882E-10
5.18325E-11 7.18670E-10
5.50215E-11 6.71988E-10
5.83057E-11 6.29359E-10
6.16850E-11 5.90355E-10
6.51595E-11 5.53789E-10
6.87293E-11 5.19513E-10
7.23943E-11 4.88418E-10
7.61544E-11 4.60148E-10
1.18991E-10 2.71877E-10
1.71347E-10 1.72605E-10
2.33223E-10 1.14187E-10
3.04617E-10 7.76008E-11
3.85531E-10 5.38770E-11
4.75965E-10 3.81507E-11
5.75917E-10 2.75309E-11
6.85389E-10 2.02508E-11
8.04380E-10 1.51879E-11
9.32891E-10 1.16030E-11
1.07092E-09 9.01844E-12
1.21847E-09 7.12185E-12
1.37554E-09 5.70599E-12
1.54213E-09 4.63188E-12
1.71823E-09 3.80351E-12
1.90386E-09 3.15591E-12
2.09900E-09 2.64325E-12
2.30367E-09 2.23228E-12
2.51785E-09 1.89926E-12
2.74156E-09 1.62668E-12
2.97478E-09 1.40154E-12
3.21752E-09 1.21408E-12
3.46978E-09 1.05689E-12
3.73156E-09 9.24232E-13
4.00286E-09 8.11637E-13
4.28368E-09 7.15558E-13
4.57402E-09 6.33162E-13
4.87388E-09 5.62161E-13
5.18326E-09 5.00694E-13
5.50215E-09 4.47295E-13
5.83057E-09 4.00734E-13
6.16850E-09 3.59998E-13
6.51596E-09 3.24153E-13
6.87293E-09 2.92573E-13
7.23942E-09 2.64826E-13
7.61544E-09 2.40362E-13
1.18991E-08 1.01013E-13
1.71347E-08 4.94621E-14
2.33223E-08 2.70128E-14
3.04617E-08 1.59912E-14
3.85531E-08 1.00673E-14
4.75965E-08 6.65230E-15
5.75917E-08 4.57076E-15
6.85389E-08 3.24321E-15
8.04380E-08 2.36427E-15
9.32891E-08 1.76371E-15
1.07092E-07 1.34213E-15
1.21847E-07 1.03917E-15
1.37554E-07 8.16990E-16
1.54213E-07 6.51076E-16
1.71823E-07 5.25178E-16
1.90386E-07 4.28259E-16
2.09900E-07 3.52680E-16
2.30367E-07 2.93048E-16
2.51785E-07 2.45492E-16
2.74156E-07 2.07195E-16
2.97478E-07 1.76077E-16
3.21752E-07 1.50585E-16
3.46978E-07 1.29540E-16
3.73156E-07 1.12044E-16
4.00286E-07 9.74031E-17
4.28368E-07 8.50763E-17
4.57402E-07 7.46382E-17
4.87388E-07 6.57523E-17
5.18325E-07 5.81498E-17
5.50215E-07 5.16145E-17
5.83057E-07 4.59718E-17
6.16850E-07 4.10793E-17
6.51596E-07 3.68204E-17
6.87293E-07 3.30993E-17
7.23942E-07 2.98365E-17
7.61543E-07 2.69660E-17
1.18991E-06 1.10539E-17
1.71347E-06 5.33317E-18
2.33223E-06 2.87960E-18
3.04617E-06 1.68838E-18
3.85531E-06 1.05426E-18
4.75964E-06 6.91829E-19
5.75916E-06 4.72608E-19
6.85388E-06 3.33747E-19
8.04378E-06 2.42346E-19
9.32888E-06 1.80204E-19
1.07092E-05 1.36765E-19
1.21846E-05 1.05663E-19
1.37553E-05 8.29220E-20
1.54212E-05 6.59838E-20
1.71822E-05 5.31587E-20
1.90385E-05 4.33004E-20
2.09899E-05 3.56340E-20
2.30365E-05 2.95909E-20
2.51783E-05 2.47748E-20
2.74153E-05 2.08988E-20
2.97475E-05 1.77514E-20
3.21749E-05 1.51749E-20
3.46974E-05 1.30499E-20
3.73152E-05 1.12846E-20
4.00281E-05 9.80847E-21
4.28362E-05 8.56624E-21
4.57395E-05 7.51465E-21
4.87380E-05 6.61954E-21
5.18317E-05 5.85373E-21
5.50205E-05 5.19547E-21
5.83045E-05 4.62718E-21
6.16838E-05 4.13455E-21
6.51582E-05 3.70585E-21
6.87277E-05 3.33138E-21
7.23925E-05 3.00309E-21
7.61524E-05 2.69607E-21
9.21439E-05 1.83847E-21
1.09658E-04 1.29553E-21
1.28695E-04 9.38468E-22
1.49255E-04 6.95882E-22
1.71338E-04 5.26510E-22
1.94942E-04 4.05376E-22
2.20070E-04 3.16929E-22
2.46720E-04 2.51155E-22
2.74892E-04 2.01435E-22
3.04586E-04 1.63306E-22
3.35803E-04 1.33678E-22
3.68542E-04 1.10386E-22
4.02802E-04 9.18775E-23
4.38585E-04 7.70260E-23
4.75889E-04 6.50031E-23
5.14715E-04 5.51896E-23
5.55063E-04 4.71196E-23
5.96931E-04 4.04368E-23
6.40321E-04 3.48672E-23
6.85233E-04 3.01975E-23
7.31665E-04 2.62605E-23
7.79618E-04 2.29240E-23
8.29092E-04 2.00827E-23
8.80086E-04 1.76521E-23
9.32601E-04 1.55640E-23
9.86636E-04 1.37629E-23
1.04219E-03 1.22036E-23
1.09927E-03 1.08487E-23
1.15786E-03 9.66767E-24
1.21797E-03 8.63480E-24
1.27961E-03 7.72884E-24
1.34276E-03 6.93196E-24
1.40743E-03 6.22914E-24
1.47362E-03 5.60771E-24
1.54133E-03 5.05690E-24
1.61056E-03 4.56759E-24
1.68131E-03 4.13194E-24
1.75357E-03 3.74328E-24
1.82735E-03 3.39585E-24
1.90265E-03 3.08469E-24
1.97947E-03 2.80552E-24
2.05780E-03 2.55461E-24
2.13765E-03 2.32874E-24
2.21902E-03 2.12510E-24
2.30190E-03 1.94121E-24
2.38630E-03 1.77494E-24
2.47222E-03 1.62438E-24
2.55965E-03 1.48787E-24
2.64859E-03 1.36395E-24
2.73905E-03 1.25133E-24
2.83103E-03 1.14885E-24
2.92452E-03 1.05550E-24
3.01952E-03 9.70389E-25
3.11604E-03 8.92700E-25
3.21407E-03 8.21721E-25
3.31362E-03 7.56815E-25
3.41468E-03 6.97408E-25
3.51725E-03 6.42991E-25
3.62133E-03 5.93104E-25
3.72692E-03 5.47334E-25
3.83403E-03 5.05312E-25
3.94265E-03 4.66703E-25
4.05278E-03 4.31207E-25
4.16442E-03 3.98551E-25
4.27757E-03 3.68491E-25
4.39223E-03 3.40803E-25
4.50840E-03 3.15286E-25
4.62608E-03 2.91758E-25
4.74527E-03 2.70053E-25
4.86597E-03 2.50020E-25
4.98817E-03 2.31521E-25
5.11188E-03 2.14432E-25
5.23711E-03 1.98639E-25
5.36383E-03 1.84038E-25
5.49207E-03 1.70534E-25
5.62181E-03 1.58040E-25
5.75306E-03 1.46477E-25
5.88581E-03 1.35772E-25
6.02007E-03 1.25860E-25
6.15583E-03 1.16677E-25
6.29310E-03 1.08170E-25
6.43187E-03 1.00286E-25
6.57214E-03 9.29777E-26
6.71392E-03 8.62022E-26
6.85720E-03 7.99194E-26
7.00198E-03 7.40925E-26
7.14827E-03 6.86877E-26
7.29605E-03 6.36736E-26
7.44534E-03 5.90216E-26
7.59612E-03 5.47049E-26
7.97965E-03 4.52244E-26
8.37255E-03 3.73572E-26
8.77480E-03 3.08277E-26
9.18641E-03 2.54090E-26
9.60736E-03 2.09135E-26
1.00376E-02 1.71860E-26
1.04773E-02 1.40975E-26
1.09262E-02 1.15410E-26
1.13844E-02 9.42741E-27
1.18520E-02 7.68255E-27
1.23288E-02 6.24449E-27
1.28150E-02 5.06157E-27
1.33104E-02 4.09067E-27
1.38150E-02 3.29574E-27
1.43290E-02 2.64669E-27
1.48521E-02 2.11836E-27
1.53845E-02 1.68978E-27
1.59262E-02 1.34341E-27
1.64770E-02 1.06465E-27
1.70371E-02 8.41326E-28
1.76063E-02 6.63324E-28
1.81848E-02 5.22234E-28
1.87724E-02 4.11088E-28
1.93692E-02 3.24123E-28
1.99751E-02 2.56584E-28
2.05901E-02 2.04559E-28
2.12143E-02 1.64843E-28
2.18476E-02 1.34817E-28
2.24900E-02 1.12353E-28
2.31415E-02 9.57272E-29
2.38021E-02 8.35556E-29
2.44717E-02 7.47309E-29
2.51504E-02 6.83759E-29
2.58382E-02 6.38012E-29
2.65349E-02 6.04716E-29
2.72407E-02 5.79762E-29
2.79555E-02 5.60055E-29
2.86793E-02 5.43307E-29
2.94120E-02 5.27874E-29
3.01537E-02 5.12622E-29
3.09043E-02 4.96809E-29
3.16639E-02 4.79999E-29
3.24324E-02 4.61983E-29
3.32098E-02 4.42721E-29
3.39961E-02 4.22292E-29
3.47912E-02 4.00858E-29
3.55952E-02 3.78629E-29
3.64081E-02 3.55846E-29
3.72297E-02 3.32757E-29
3.80602E-02 3.09609E-29
3.88995E-02 2.86633E-29
3.97476E-02 2.64042E-29
4.06044E-02 2.42027E-29
4.14700E-02 2.20749E-29
4.23443E-02 2.00345E-29
4.32273E-02 1.80923E-29
4.41190E-02 1.62567E-29
4.50194E-02 1.45337E-29
4.59284E-02 1.29268E-29
4.68461E-02 1.14377E-29
4.87074E-02 8.81153E-30
5.06030E-02 6.63759E-30
5.25328E-02 4.88138E-30
5.44967E-02 3.49770E-30
5.64946E-02 2.43601E-30
5.85262E-02 1.64470E-30
6.05914E-02 1.07406E-30
6.26901E-02 6.78414E-31
6.48222E-02 4.17373E-31
6.69873E-02 2.56375E-31
6.91854E-02 1.66790E-31
7.14163E-02 1.25640E-31
7.36799E-02 1.15088E-31
7.59760E-02 1.21792E-31
7.83043E-02 1.36212E-31
8.06647E-02 1.51908E-31
8.30571E-02 1.64884E-31
8.54812E-02 1.73000E-31
8.79369E-02 1.75456E-31
9.04240E-02 1.72375E-31
9.29422E-02 1.64453E-31
9.54915E-02 1.52700E-31
9.80716E-02 1.38241E-31
1.00682E-01 1.22176E-31
1.03323E-01 1.05500E-31
1.05995E-01 8.90406E-32
1.08696E-01 7.34453E-32
1.11427E-01 5.91766E-32
1.14188E-01 4.65267E-32
1.16978E-01 3.56404E-32
1.19797E-01 2.65408E-32
1.22645E-01 1.91582E-32
1.25522E-01 1.33560E-32
1.28428E-01 8.95503E-33
1.31361E-01 5.75376E-33
1.34323E-01 3.54479E-33
1.37313E-01 2.12741E-33
1.40330E-01 1.31655E-33
1.43375E-01 9.48451E-34
1.46447E-01 8.83728E-34
1.49545E-01 1.00820E-33
1.52671E-01 1.23214E-33
1.55823E-01 1.48834E-33
1.59001E-01 1.72947E-33
1.62205E-01 1.92501E-33
1.65435E-01 2.05813E-33
1.68690E-01 2.12260E-33
1.71970E-01 2.12003E-33
1.75276E-01 2.05736E-33
1.78606E-01 1.94479E-33
1.81961E-01 1.79411E-33
1.85340E-01 1.61738E-33
1.88743E-01 1.42601E-33
1.92169E-01 1.23013E-33
1.95619E-01 1.03819E-33
1.99092E-01 8.56823E-34
2.02589E-01 6.90854E-34
2.06107E-01 5.43406E-34
2.09649E-01 4.16099E-34
2.13212E-01 3.09292E-34
2.16797E-01 2.22344E-34
2.20404E-01 1.53862E-34
2.24032E-01 1.01945E-34
2.27680E-01 6.43907E-35
2.31350E-01 3.88735E-35
2.35040E-01 2.30874E-35
2.38751E-01 1.48532E-35
2.42481E-01 1.21950E-35
2.46231E-01 1.33874E-35
2.50000E-01 1.69787E-35
2.53788E-01 2.17950E-35
2.57595E-01 2.69288E-35
2.61421E-01 3.17168E-35
2.65264E-01 3.57112E-35
2.69126E-01 3.86465E-35
2.73005E-01 4.04057E-35
2.76901E-01 4.09872E-35
2.80814E-01 4.04741E-35
2.84744E-01 3.90063E-35
2.88691E-01 3.67581E-35
2.92653E-01 3.39180E-35
2.96632E-01 3.06743E-35
3.00625E-01 2.72033E-35
3.04634E-01 2.36621E-35
3.08658E-01 2.01838E-35
3.12697E-01 1.68750E-35
3.16749E-01 1.38159E-35
3.20816E-01 1.10614E-35
3.24896E-01 8.64393E-36
3.28990E-01 6.57585E-36
3.33097E-01 4.85332E-36
3.37216E-01 3.45965E-36
3.41348E-01 2.36865E-36
3.45492E-01 1.54777E-36
3.49647E-01 9.60815E-37
3.53814E-01 5.70324E-37
3.57992E-01 3.39383E-37
3.62181E-01 2.33130E-37
3.66381E-01 2.19759E-37
3.70590E-01 2.71214E-37
3.74810E-01 3.63541E-37
3.79039E-01 4.76981E-37
3.83277E-01 5.95855E-37
3.87524E-01 7.08308E-37
3.91780E-01 8.05917E-37
3.96044E-01 8.83264E-37
4.00316E-01 9.37458E-37
4.04596E-01 9.67660E-37
4.08882E-01 9.74629E-37
4.13176E-01 9.60302E-37
4.17476E-01 9.27411E-37
4.21783E-01 8.79164E-37
4.26095E-01 8.18988E-37
4.30413E-01 7.50282E-37
4.34737E-01 6.76272E-37
4.39065E-01 5.99889E-37
4.43398E-01 5.23682E-37
4.47736E-01 4.49776E-37
4.52077E-01 3.79870E-37
4.56422E-01 3.15225E-37
4.60770E-01 2.56712E-37
4.65122E-01 2.04840E-37
4.69476E-01 1.59806E-37
4.73832E-01 1.21548E-37
4.78190E-01 8.97951E-38
4.82550E-01 6.41171E-38
4.86912E-01 4.39709E-38
4.91274E-01 2.87436E-38
4.95637E-01 1.77850E-38
5.00000E-01 1.04393E-38
5.04363E-01 1.00000E-45
5.08726E-01 1.00000E-45
5.13088E-01 1.00000E-45
5.17450E-01 1.00000E-45
5.21810E-01 1.00000E-45
5.26168E-01 1.00000E-45
5.30524E-01 1.00000E-45
5.34878E-01 1.00000E-45
5.39230E-01 1.00000E-45
5.43578E-01 1.00000E-45
5.47923E-01 1.00000E-45
5.52264E-01 1.00000E-45
5.56602E-01 1.00000E-45
5.60935E-01 1.00000E-45
5.65263E-01 1.00000E-45
5.69587E-01 1.00000E-45
5.73905E-01 1.00000E-45
5.78217E-01 1.00000E-45
5.82524E-01 1.00000E-45
5.86824E-01 1.00000E-45
5.91118E-01 1.00000E-45
5.95404E-01 1.00000E-45
5.99684E-01 1.00000E-45
6.03956E-01 1.00000E-45
6.08220E-01 1.00000E-45
6.12476E-01 1.00000E-45
6.16723E-01 1.00000E-45
6.20961E-01 1.00000E-45
6.25190E-01 1.00000E-45
6.29410E-01 1.00000E-45
6.33619E-01 1.00000E-45
6.37819E-01 1.00000E-45
6.42008E-01 1.00000E-45
6.46186E-01 1.00000E-45
6.50353E-01 1.00000E-45
6.54508E-01 1.00000E-45
6.58652E-01 1.00000E-45
6.62784E-01 1.00000E-45
6.66903E-01 1.00000E-45
6.71010E-01 1.00000E-45
6.75104E-01 1.00000E-45
6.79184E-01 1.00000E-45
6.83251E-01 1.00000E-45
6.87303E-01 1.00000E-45
6.91342E-01 1.00000E-45
6.95366E-01 1.00000E-45
6.99375E-01 1.00000E-45
7.03368E-01 1.00000E-45
7.07347E-01 1.00000E-45
7.11309E-01 1.00000E-45
7.15256E-01 1.00000E-45
7.19186E-01 1.00000E-45
7.23099E-01 1.00000E-45
7.26995E-01 1.00000E-45
7.30874E-01 1.00000E-45
7.34736E-01 1.00000E-45
7.38579E-01 1.00000E-45
7.42405E-01 1.00000E-45
7.46212E-01 1.00000E-45
7.50000E-01 1.00000E-45
7.53769E-01 1.00000E-45
7.57519E-01 1.00000E-45
7.61249E-01 1.00000E-45
7.64960E-01 1.00000E-45
7.68650E-01 1.00000E-45
7.72320E-01 1.00000E-45
7.75968E-01 1.00000E-45
7.79596E-01 1.00000E-45
7.83203E-01 1.00000E-45
7.86788E-01 1.00000E-45
7.90351E-01 1.00000E-45
7.93893E-01 1.00000E-45
7.97411E-01 1.00000E-45
8.00908E-01 1.00000E-45
8.04381E-01 1.00000E-45
8.07831E-01 1.00000E-45
8.11257E-01 1.00000E-45
8.14660E-01 1.00000E-45
8.18039E-01 1.00000E-45
8.21394E-01 1.00000E-45
8.24724E-01 1.00000E-45
8.28030E-01 1.00000E-45
8.31310E-01 1.00000E-45
8.34565E-01 1.00000E-45
8.37795E-01 1.00000E-45
8.40999E-01 1.00000E-45
8.44177E-01 1.00000E-45
8.47329E-01 1.00000E-45
8.50455E-01 1.00000E-45
8.53553E-01 1.00000E-45
8.56625E-01 1.00000E-45
8.59670E-01 1.00000E-45
8.62687E-01 1.00000E-45
8.65677E-01 1.00000E-45
8.68639E-01 1.00000E-45
8.71572E-01 1.00000E-45
8.74478E-01 1.00000E-45
8.77355E-01 1.00000E-45
8.80203E-01 1.00000E-45
8.83022E-01 1.00000E-45
8.85812E-01 1.00000E-45
8.88573E-01 1.00000E-45
8.91304E-01 1.00000E-45
8.94005E-01 1.00000E-45
8.96677E-01 1.00000E-45
8.99318E-01 1.00000E-45
9.01928E-01 1.00000E-45
9.04508E-01 1.00000E-45
9.07058E-01 1.00000E-45
9.09576E-01 1.00000E-45
9.12063E-01 1.00000E-45
9.14519E-01 1.00000E-45
9.16943E-01 1.00000E-45
9.19335E-01 1.00000E-45
9.21696E-01 1.00000E-45
9.24024E-01 1.00000E-45
9.26320E-01 1.00000E-45
9.28584E-01 1.00000E-45
9.30815E-01 1.00000E-45
9.33013E-01 1.00000E-45
9.35178E-01 1.00000E-45
9.37310E-01 1.00000E-45
9.39409E-01 1.00000E-45
9.41474E-01 1.00000E-45
9.43505E-01 1.00000E-45
9.45503E-01 1.00000E-45
9.47467E-01 1.00000E-45
9.49397E-01 1.00000E-45
9.51293E-01 1.00000E-45
9.53154E-01 1.00000E-45
9.54981E-01 1.00000E-45
9.56773E-01 1.00000E-45
9.58530E-01 1.00000E-45
9.60252E-01 1.00000E-45
9.61940E-01 1.00000E-45
9.63592E-01 1.00000E-45
9.65209E-01 1.00000E-45
9.66790E-01 1.00000E-45
9.68336E-01 1.00000E-45
9.69846E-01 1.00000E-45
9.71321E-01 1.00000E-45
9.72759E-01 1.00000E-45
9.74162E-01 1.00000E-45
9.75528E-01 1.00000E-45
9.76858E-01 1.00000E-45
9.78152E-01 1.00000E-45
9.79410E-01 1.00000E-45
9.80631E-01 1.00000E-45
9.81815E-01 1.00000E-45
9.82963E-01 1.00000E-45
9.84074E-01 1.00000E-45
9.85148E-01 1.00000E-45
9.86185E-01 1.00000E-45
9.87185E-01 1.00000E-45
9.88148E-01 1.00000E-45
9.89074E-01 1.00000E-45
9.89962E-01 1.00000E-45
9.90814E-01 1.00000E-45
9.91627E-01 1.00000E-45
9.92404E-01 1.00000E-45
9.93143E-01 1.00000E-45
9.93844E-01 1.00000E-45
9.94508E-01 1.00000E-45
9.95134E-01 1.00000E-45
9.95722E-01 1.00000E-45
9.96273E-01 1.00000E-45
9.96786E-01 1.00000E-45
9.97261E-01 1.00000E-45
9.97698E-01 1.00000E-45
9.98097E-01 1.00000E-45
9.98459E-01 1.00000E-45
9.98782E-01 1.00000E-45
9.99067E-01 1.00000E-45
9.99315E-01 1.00000E-45
9.99524E-01 1.00000E-45
9.99695E-01 1.00000E-45
9.99829E-01 1.00000E-45
9.99924E-01 1.00000E-45
9.99981E-01 1.00000E-45
1.00000E+00 1.00000E-45
