 #
 # Subroutine ELSEPA. Elastic scattering of electrons and positrons
 #                    by neutral atoms and positive ions
 #
 # Projectile: electron
 # Kinetic energy = 3.50000E+06 eV = 1.28623E+05 a.u.
 #
 # WARNING: High-energy factorization with free-atom DF screening.
 #          Absorption, polarization and exchange corrections are
 #          switched off.
 #          Phase shifts are calculated for the bare nucleus.
 #          Scattering amplitudes are not evaluated.
 #
 # Element: As,  Z =  33,  atomic weight = 7.49216E+01 g/mol
 #
 # Nuclear model: Fermi distribution
 #                Average radius = 4.51079E-13 cm
 #                Skin thickness = 5.46000E-14 cm
 #
 # Number of electrons = 33
 #
 # Total elastic cross section = 2.53135E-18 cm**2 = 9.03961E-02 a0**2
 # 1st transport cross section = 1.03185E-22 cm**2 = 3.68480E-06 a0**2
 # 2nd transport cross section = 2.90479E-22 cm**2 = 1.03732E-05 a0**2
 #
 #
 # Differential cross section:                       MU=(1-COS(THETA))/2
 #
 #  THETA        MU          DCS          DCS        Sherman      error
 #  (deg)                 (cm**2/sr)   (a0**2/sr)    function
 #----------------------------------------------------------------------
0.00000E+00 3.27087E-13
7.61557E-13 3.27086E-13
1.18994E-12 3.27085E-13
1.71346E-12 3.27084E-13
2.33225E-12 3.27083E-13
3.04617E-12 3.27082E-13
3.85530E-12 3.27081E-13
4.75964E-12 3.27080E-13
5.75917E-12 3.27079E-13
6.85391E-12 3.27077E-13
8.04379E-12 3.27075E-13
9.32893E-12 3.27073E-13
1.07092E-11 3.27071E-13
1.21847E-11 3.27069E-13
1.37554E-11 3.27067E-13
1.54213E-11 3.27065E-13
1.71823E-11 3.27062E-13
1.90386E-11 3.27059E-13
2.09900E-11 3.27057E-13
2.30367E-11 3.27054E-13
2.51785E-11 3.27051E-13
2.74156E-11 3.27047E-13
2.97478E-11 3.27044E-13
3.21752E-11 3.27040E-13
3.46979E-11 3.27037E-13
3.73157E-11 3.27033E-13
4.00286E-11 3.27029E-13
4.28368E-11 3.27025E-13
4.57402E-11 3.27021E-13
4.87388E-11 3.27017E-13
5.18325E-11 3.27012E-13
5.50215E-11 3.27008E-13
5.83057E-11 3.27003E-13
6.16850E-11 3.26998E-13
6.51595E-11 3.26993E-13
6.87293E-11 3.26988E-13
7.23943E-11 3.26982E-13
7.61544E-11 3.26977E-13
1.18991E-10 3.26915E-13
1.71347E-10 3.26840E-13
2.33223E-10 3.26750E-13
3.04617E-10 3.26647E-13
3.85531E-10 3.26531E-13
4.75965E-10 3.26400E-13
5.75917E-10 3.26256E-13
6.85389E-10 3.26099E-13
8.04380E-10 3.25927E-13
9.32891E-10 3.25743E-13
1.07092E-09 3.25544E-13
1.21847E-09 3.25333E-13
1.37554E-09 3.25107E-13
1.54213E-09 3.24869E-13
1.71823E-09 3.24617E-13
1.90386E-09 3.24352E-13
2.09900E-09 3.24073E-13
2.30367E-09 3.23781E-13
2.51785E-09 3.23476E-13
2.74156E-09 3.23159E-13
2.97478E-09 3.22828E-13
3.21752E-09 3.22484E-13
3.46978E-09 3.22127E-13
3.73156E-09 3.21757E-13
4.00286E-09 3.21375E-13
4.28368E-09 3.20980E-13
4.57402E-09 3.20572E-13
4.87388E-09 3.20152E-13
5.18326E-09 3.19719E-13
5.50215E-09 3.19274E-13
5.83057E-09 3.18817E-13
6.16850E-09 3.18347E-13
6.51596E-09 3.17865E-13
6.87293E-09 3.17371E-13
7.23942E-09 3.16866E-13
7.61544E-09 3.16348E-13
1.18991E-08 3.10542E-13
1.71347E-08 3.03627E-13
2.33223E-08 2.95819E-13
3.04617E-08 2.87141E-13
3.85531E-08 2.77763E-13
4.75965E-08 2.67872E-13
5.75917E-08 2.57600E-13
6.85389E-08 2.46922E-13
8.04380E-08 2.36123E-13
9.32891E-08 2.25318E-13
1.07092E-07 2.14521E-13
1.21847E-07 2.03800E-13
1.37554E-07 1.93335E-13
1.54213E-07 1.83182E-13
1.71823E-07 1.73251E-13
1.90386E-07 1.63696E-13
2.09900E-07 1.54565E-13
2.30367E-07 1.45848E-13
2.51785E-07 1.37480E-13
2.74156E-07 1.29571E-13
2.97478E-07 1.22109E-13
3.21752E-07 1.15036E-13
3.46978E-07 1.08359E-13
3.73156E-07 1.02100E-13
4.00286E-07 9.62363E-14
4.28368E-07 9.07000E-14
4.57402E-07 8.55249E-14
4.87388E-07 8.06930E-14
5.18325E-07 7.61717E-14
5.50215E-07 7.19291E-14
5.83057E-07 6.79738E-14
6.16850E-07 6.42852E-14
6.51596E-07 6.08294E-14
6.87293E-07 5.75995E-14
7.23942E-07 5.45871E-14
7.61543E-07 5.17759E-14
1.18991E-06 3.18127E-14
1.71347E-06 2.08504E-14
2.33223E-06 1.46201E-14
3.04617E-06 1.05637E-14
3.85531E-06 7.83506E-15
4.75964E-06 5.94289E-15
5.75916E-06 4.57428E-15
6.85388E-06 3.53207E-15
8.04378E-06 2.76377E-15
9.32888E-06 2.18595E-15
1.07092E-05 1.74084E-15
1.21846E-05 1.39718E-15
1.37553E-05 1.13259E-15
1.54212E-05 9.26363E-16
1.71822E-05 7.63069E-16
1.90385E-05 6.33968E-16
2.09899E-05 5.31203E-16
2.30365E-05 4.48437E-16
2.51783E-05 3.81150E-16
2.74153E-05 3.26221E-16
2.97475E-05 2.81017E-16
3.21749E-05 2.43502E-16
3.46974E-05 2.12185E-16
3.73152E-05 1.85870E-16
4.00281E-05 1.63604E-16
4.28362E-05 1.44631E-16
4.57395E-05 1.28397E-16
4.87380E-05 1.14434E-16
5.18317E-05 1.02353E-16
5.50205E-05 9.18370E-17
5.83045E-05 8.26606E-17
6.16838E-05 7.46204E-17
6.51582E-05 6.75338E-17
6.87277E-05 6.12708E-17
7.23925E-05 5.57233E-17
7.61524E-05 5.07933E-17
9.21439E-05 3.57420E-17
1.09658E-04 2.58465E-17
1.28695E-04 1.91232E-17
1.49255E-04 1.44238E-17
1.71338E-04 1.10758E-17
1.94942E-04 8.63585E-18
2.20070E-04 6.83055E-18
2.46720E-04 5.47175E-18
2.74892E-04 4.43241E-18
3.04586E-04 3.62863E-18
3.35803E-04 2.99931E-18
3.68542E-04 2.50089E-18
4.02802E-04 2.10185E-18
4.38585E-04 1.77964E-18
4.75889E-04 1.51713E-18
5.14715E-04 1.30142E-18
5.55063E-04 1.12285E-18
5.96931E-04 9.74031E-19
6.40321E-04 8.49192E-19
6.85233E-04 7.43761E-19
7.31665E-04 6.54269E-19
7.79618E-04 5.77905E-19
8.29092E-04 5.12403E-19
8.80086E-04 4.55939E-19
9.32601E-04 4.07077E-19
9.86636E-04 3.64615E-19
1.04219E-03 3.27554E-19
1.09927E-03 2.95097E-19
1.15786E-03 2.66577E-19
1.21797E-03 2.41432E-19
1.27961E-03 2.19180E-19
1.34276E-03 1.99443E-19
1.40743E-03 1.81886E-19
1.47362E-03 1.66221E-19
1.54133E-03 1.52208E-19
1.61056E-03 1.39645E-19
1.68131E-03 1.28355E-19
1.75357E-03 1.18184E-19
1.82735E-03 1.09002E-19
1.90265E-03 1.00697E-19
1.97947E-03 9.31701E-20
2.05780E-03 8.63329E-20
2.13765E-03 8.01133E-20
2.21902E-03 7.44452E-20
2.30190E-03 6.92701E-20
2.38630E-03 6.45374E-20
2.47222E-03 6.02031E-20
2.55965E-03 5.62276E-20
2.64859E-03 5.25748E-20
2.73905E-03 4.92146E-20
2.83103E-03 4.61194E-20
2.92452E-03 4.32642E-20
3.01952E-03 4.06267E-20
3.11604E-03 3.81878E-20
3.21407E-03 3.59296E-20
3.31362E-03 3.38362E-20
3.41468E-03 3.18933E-20
3.51725E-03 3.00883E-20
3.62133E-03 2.84096E-20
3.72692E-03 2.68465E-20
3.83403E-03 2.53897E-20
3.94265E-03 2.40308E-20
4.05278E-03 2.27618E-20
4.16442E-03 2.15756E-20
4.27757E-03 2.04659E-20
4.39223E-03 1.94270E-20
4.50840E-03 1.84532E-20
4.62608E-03 1.75399E-20
4.74527E-03 1.66826E-20
4.86597E-03 1.58773E-20
4.98817E-03 1.51200E-20
5.11188E-03 1.44076E-20
5.23711E-03 1.37368E-20
5.36383E-03 1.31047E-20
5.49207E-03 1.25086E-20
5.62181E-03 1.19462E-20
5.75306E-03 1.14152E-20
5.88581E-03 1.09134E-20
6.02007E-03 1.04391E-20
6.15583E-03 9.99029E-21
6.29310E-03 9.56547E-21
6.43187E-03 9.16307E-21
6.57214E-03 8.78171E-21
6.71392E-03 8.42007E-21
6.85720E-03 8.07693E-21
7.00198E-03 7.75116E-21
7.14827E-03 7.44173E-21
7.29605E-03 7.14766E-21
7.44534E-03 6.86803E-21
7.59612E-03 6.60200E-21
7.97965E-03 5.99141E-21
8.37255E-03 5.45012E-21
8.77480E-03 4.96886E-21
9.18641E-03 4.53982E-21
9.60736E-03 4.15633E-21
1.00376E-02 3.81268E-21
1.04773E-02 3.50401E-21
1.09262E-02 3.22611E-21
1.13844E-02 2.97536E-21
1.18520E-02 2.74864E-21
1.23288E-02 2.54323E-21
1.28150E-02 2.35676E-21
1.33104E-02 2.18717E-21
1.38150E-02 2.03265E-21
1.43290E-02 1.89162E-21
1.48521E-02 1.76268E-21
1.53845E-02 1.64462E-21
1.59262E-02 1.53633E-21
1.64770E-02 1.43687E-21
1.70371E-02 1.34538E-21
1.76063E-02 1.26110E-21
1.81848E-02 1.18337E-21
1.87724E-02 1.11157E-21
1.93692E-02 1.04517E-21
1.99751E-02 9.83685E-22
2.05901E-02 9.26688E-22
2.12143E-02 8.73789E-22
2.18476E-02 8.24637E-22
2.24900E-02 7.78917E-22
2.31415E-02 7.36344E-22
2.38021E-02 6.96661E-22
2.44717E-02 6.59634E-22
2.51504E-02 6.25052E-22
2.58382E-02 5.92723E-22
2.65349E-02 5.62473E-22
2.72407E-02 5.34142E-22
2.79555E-02 5.07585E-22
2.86793E-02 4.82670E-22
2.94120E-02 4.59277E-22
3.01537E-02 4.37294E-22
3.09043E-02 4.16620E-22
3.16639E-02 3.97163E-22
3.24324E-02 3.78837E-22
3.32098E-02 3.61563E-22
3.39961E-02 3.45270E-22
3.47912E-02 3.29892E-22
3.55952E-02 3.15366E-22
3.64081E-02 3.01637E-22
3.72297E-02 2.88653E-22
3.80602E-02 2.76364E-22
3.88995E-02 2.64728E-22
3.97476E-02 2.53702E-22
4.06044E-02 2.43249E-22
4.14700E-02 2.33332E-22
4.23443E-02 2.23919E-22
4.32273E-02 2.14980E-22
4.41190E-02 2.06485E-22
4.50194E-02 1.98409E-22
4.59284E-02 1.90727E-22
4.68461E-02 1.83416E-22
4.87074E-02 1.69821E-22
5.06030E-02 1.57472E-22
5.25328E-02 1.46232E-22
5.44967E-02 1.35984E-22
5.64946E-02 1.26624E-22
5.85262E-02 1.18060E-22
6.05914E-02 1.10213E-22
6.26901E-02 1.03011E-22
6.48222E-02 9.63911E-23
6.69873E-02 9.02975E-23
6.91854E-02 8.46806E-23
7.14163E-02 7.94960E-23
7.36799E-02 7.47042E-23
7.59760E-02 7.02699E-23
7.83043E-02 6.61613E-23
8.06647E-02 6.23500E-23
8.30571E-02 5.88104E-23
8.54812E-02 5.55194E-23
8.79369E-02 5.24563E-23
9.04240E-02 4.96024E-23
9.29422E-02 4.69405E-23
9.54915E-02 4.44553E-23
9.80716E-02 4.21329E-23
1.00682E-01 3.99605E-23
1.03323E-01 3.79266E-23
1.05995E-01 3.60208E-23
1.08696E-01 3.42333E-23
1.11427E-01 3.25554E-23
1.14188E-01 3.09792E-23
1.16978E-01 2.94972E-23
1.19797E-01 2.81028E-23
1.22645E-01 2.67897E-23
1.25522E-01 2.55524E-23
1.28428E-01 2.43857E-23
1.31361E-01 2.32846E-23
1.34323E-01 2.22449E-23
1.37313E-01 2.12624E-23
1.40330E-01 2.03334E-23
1.43375E-01 1.94544E-23
1.46447E-01 1.86222E-23
1.49545E-01 1.78338E-23
1.52671E-01 1.70865E-23
1.55823E-01 1.63777E-23
1.59001E-01 1.57050E-23
1.62205E-01 1.50663E-23
1.65435E-01 1.44596E-23
1.68690E-01 1.38828E-23
1.71970E-01 1.33343E-23
1.75276E-01 1.28123E-23
1.78606E-01 1.23154E-23
1.81961E-01 1.18421E-23
1.85340E-01 1.13911E-23
1.88743E-01 1.09611E-23
1.92169E-01 1.05510E-23
1.95619E-01 1.01596E-23
1.99092E-01 9.78601E-24
2.02589E-01 9.42916E-24
2.06107E-01 9.08819E-24
2.09649E-01 8.76226E-24
2.13212E-01 8.45058E-24
2.16797E-01 8.15239E-24
2.20404E-01 7.86702E-24
2.24032E-01 7.59379E-24
2.27680E-01 7.33209E-24
2.31350E-01 7.08136E-24
2.35040E-01 6.84102E-24
2.38751E-01 6.61058E-24
2.42481E-01 6.38955E-24
2.46231E-01 6.17746E-24
2.50000E-01 5.97389E-24
2.53788E-01 5.77843E-24
2.57595E-01 5.59069E-24
2.61421E-01 5.41031E-24
2.65264E-01 5.23695E-24
2.69126E-01 5.07028E-24
2.73005E-01 4.91000E-24
2.76901E-01 4.75581E-24
2.80814E-01 4.60743E-24
2.84744E-01 4.46461E-24
2.88691E-01 4.32710E-24
2.92653E-01 4.19466E-24
2.96632E-01 4.06707E-24
3.00625E-01 3.94412E-24
3.04634E-01 3.82561E-24
3.08658E-01 3.71134E-24
3.12697E-01 3.60115E-24
3.16749E-01 3.49485E-24
3.20816E-01 3.39227E-24
3.24896E-01 3.29328E-24
3.28990E-01 3.19771E-24
3.33097E-01 3.10543E-24
3.37216E-01 3.01629E-24
3.41348E-01 2.93018E-24
3.45492E-01 2.84698E-24
3.49647E-01 2.76656E-24
3.53814E-01 2.68881E-24
3.57992E-01 2.61363E-24
3.62181E-01 2.54093E-24
3.66381E-01 2.47059E-24
3.70590E-01 2.40254E-24
3.74810E-01 2.33668E-24
3.79039E-01 2.27293E-24
3.83277E-01 2.21121E-24
3.87524E-01 2.15143E-24
3.91780E-01 2.09354E-24
3.96044E-01 2.03746E-24
4.00316E-01 1.98312E-24
4.04596E-01 1.93046E-24
4.08882E-01 1.87942E-24
4.13176E-01 1.82993E-24
4.17476E-01 1.78195E-24
4.21783E-01 1.73541E-24
4.26095E-01 1.69027E-24
4.30413E-01 1.64648E-24
4.34737E-01 1.60399E-24
4.39065E-01 1.56274E-24
4.43398E-01 1.52271E-24
4.47736E-01 1.48385E-24
4.52077E-01 1.44612E-24
4.56422E-01 1.40947E-24
4.60770E-01 1.37388E-24
4.65122E-01 1.33931E-24
4.69476E-01 1.30571E-24
4.73832E-01 1.27307E-24
4.78190E-01 1.24134E-24
4.82550E-01 1.21051E-24
4.86912E-01 1.18052E-24
4.91274E-01 1.15137E-24
4.95637E-01 1.12303E-24
5.00000E-01 1.09546E-24
5.04363E-01 1.06864E-24
5.08726E-01 1.04255E-24
5.13088E-01 1.01717E-24
5.17450E-01 9.92464E-25
5.21810E-01 9.68423E-25
5.26168E-01 9.45022E-25
5.30524E-01 9.22241E-25
5.34878E-01 9.00061E-25
5.39230E-01 8.78463E-25
5.43578E-01 8.57430E-25
5.47923E-01 8.36944E-25
5.52264E-01 8.16989E-25
5.56602E-01 7.97548E-25
5.60935E-01 7.78607E-25
5.65263E-01 7.60150E-25
5.69587E-01 7.42164E-25
5.73905E-01 7.24633E-25
5.78217E-01 7.07544E-25
5.82524E-01 6.90884E-25
5.86824E-01 6.74641E-25
5.91118E-01 6.58803E-25
5.95404E-01 6.43357E-25
5.99684E-01 6.28293E-25
6.03956E-01 6.13600E-25
6.08220E-01 5.99267E-25
6.12476E-01 5.85284E-25
6.16723E-01 5.71642E-25
6.20961E-01 5.58331E-25
6.25190E-01 5.45341E-25
6.29410E-01 5.32663E-25
6.33619E-01 5.20289E-25
6.37819E-01 5.08209E-25
6.42008E-01 4.96417E-25
6.46186E-01 4.84903E-25
6.50353E-01 4.73661E-25
6.54508E-01 4.62683E-25
6.58652E-01 4.51964E-25
6.62784E-01 4.41495E-25
6.66903E-01 4.31271E-25
6.71010E-01 4.21283E-25
6.75104E-01 4.11526E-25
6.79184E-01 4.01994E-25
6.83251E-01 3.92681E-25
6.87303E-01 3.83580E-25
6.91342E-01 3.74687E-25
6.95366E-01 3.65997E-25
6.99375E-01 3.57503E-25
7.03368E-01 3.49202E-25
7.07347E-01 3.41088E-25
7.11309E-01 3.33157E-25
7.15256E-01 3.25403E-25
7.19186E-01 3.17823E-25
7.23099E-01 3.10412E-25
7.26995E-01 3.03166E-25
7.30874E-01 2.96080E-25
7.34736E-01 2.89151E-25
7.38579E-01 2.82375E-25
7.42405E-01 2.75748E-25
7.46212E-01 2.69266E-25
7.50000E-01 2.62926E-25
7.53769E-01 2.56725E-25
7.57519E-01 2.50659E-25
7.61249E-01 2.44725E-25
7.64960E-01 2.38920E-25
7.68650E-01 2.33240E-25
7.72320E-01 2.27684E-25
7.75968E-01 2.22247E-25
7.79596E-01 2.16928E-25
7.83203E-01 2.11723E-25
7.86788E-01 2.06629E-25
7.90351E-01 2.01645E-25
7.93893E-01 1.96768E-25
7.97411E-01 1.91994E-25
8.00908E-01 1.87323E-25
8.04381E-01 1.82751E-25
8.07831E-01 1.78276E-25
8.11257E-01 1.73897E-25
8.14660E-01 1.69610E-25
8.18039E-01 1.65415E-25
8.21394E-01 1.61308E-25
8.24724E-01 1.57288E-25
8.28030E-01 1.53354E-25
8.31310E-01 1.49503E-25
8.34565E-01 1.45733E-25
8.37795E-01 1.42043E-25
8.40999E-01 1.38431E-25
8.44177E-01 1.34895E-25
8.47329E-01 1.31435E-25
8.50455E-01 1.28047E-25
8.53553E-01 1.24731E-25
8.56625E-01 1.21485E-25
8.59670E-01 1.18307E-25
8.62687E-01 1.15197E-25
8.65677E-01 1.12153E-25
8.68639E-01 1.09174E-25
8.71572E-01 1.06258E-25
8.74478E-01 1.03403E-25
8.77355E-01 1.00610E-25
8.80203E-01 9.78762E-26
8.83022E-01 9.52008E-26
8.85812E-01 9.25826E-26
8.88573E-01 9.00206E-26
8.91304E-01 8.75136E-26
8.94005E-01 8.50607E-26
8.96677E-01 8.26608E-26
8.99318E-01 8.03128E-26
9.01928E-01 7.80159E-26
9.04508E-01 7.57690E-26
9.07058E-01 7.35713E-26
9.09576E-01 7.14219E-26
9.12063E-01 6.93198E-26
9.14519E-01 6.72643E-26
9.16943E-01 6.52545E-26
9.19335E-01 6.32896E-26
9.21696E-01 6.13687E-26
9.24024E-01 5.94913E-26
9.26320E-01 5.76564E-26
9.28584E-01 5.58634E-26
9.30815E-01 5.41116E-26
9.33013E-01 5.24002E-26
9.35178E-01 5.07287E-26
9.37310E-01 4.90963E-26
9.39409E-01 4.75025E-26
9.41474E-01 4.59466E-26
9.43505E-01 4.44280E-26
9.45503E-01 4.29461E-26
9.47467E-01 4.15005E-26
9.49397E-01 4.00904E-26
9.51293E-01 3.87154E-26
9.53154E-01 3.73750E-26
9.54981E-01 3.60687E-26
9.56773E-01 3.47959E-26
9.58530E-01 3.35562E-26
9.60252E-01 3.23492E-26
9.61940E-01 3.11743E-26
9.63592E-01 3.00312E-26
9.65209E-01 2.89194E-26
9.66790E-01 2.78386E-26
9.68336E-01 2.67882E-26
9.69846E-01 2.57680E-26
9.71321E-01 2.47775E-26
9.72759E-01 2.38165E-26
9.74162E-01 2.28844E-26
9.75528E-01 2.19811E-26
9.76858E-01 2.11062E-26
9.78152E-01 2.02593E-26
9.79410E-01 1.94402E-26
9.80631E-01 1.86486E-26
9.81815E-01 1.78841E-26
9.82963E-01 1.71466E-26
9.84074E-01 1.64357E-26
9.85148E-01 1.57512E-26
9.86185E-01 1.50928E-26
9.87185E-01 1.44603E-26
9.88148E-01 1.38536E-26
9.89074E-01 1.32723E-26
9.89962E-01 1.27162E-26
9.90814E-01 1.21853E-26
9.91627E-01 1.16792E-26
9.92404E-01 1.11978E-26
9.93143E-01 1.07410E-26
9.93844E-01 1.03085E-26
9.94508E-01 9.90031E-27
9.95134E-01 9.51616E-27
9.95722E-01 9.15596E-27
9.96273E-01 8.81959E-27
9.96786E-01 8.50691E-27
9.97261E-01 8.21783E-27
9.97698E-01 7.95225E-27
9.98097E-01 7.71007E-27
9.98459E-01 7.49120E-27
9.98782E-01 7.29558E-27
9.99067E-01 7.12313E-27
9.99315E-01 6.97380E-27
9.99524E-01 6.84752E-27
9.99695E-01 6.74427E-27
9.99829E-01 6.66400E-27
9.99924E-01 6.60668E-27
9.99981E-01 6.57230E-27
1.00000E+00 6.56084E-27
