 #
 # Subroutine ELSEPA. Elastic scattering of electrons and positrons
 #                    by neutral atoms and positive ions
 #
 # Projectile: electron
 # Kinetic energy = 4.00000E+07 eV = 1.46997E+06 a.u.
 #
 # WARNING: High-energy factorization with free-atom DF screening.
 #          Absorption, polarization and exchange corrections are
 #          switched off.
 #          Phase shifts are calculated for the bare nucleus.
 #          Scattering amplitudes are not evaluated.
 #
 # Element: As,  Z =  33,  atomic weight = 7.49216E+01 g/mol
 #
 # Nuclear model: Fermi distribution
 #                Average radius = 4.51079E-13 cm
 #                Skin thickness = 5.46000E-14 cm
 #
 # Number of electrons = 33
 #
 # Total elastic cross section = 2.48810E-18 cm**2 = 8.88518E-02 a0**2
 # 1st transport cross section = 1.31540E-24 cm**2 = 4.69739E-08 a0**2
 # 2nd transport cross section = 3.83155E-24 cm**2 = 1.36827E-07 a0**2
 #
 #
 # Differential cross section:                       MU=(1-COS(THETA))/2
 #
 #  THETA        MU          DCS          DCS        Sherman      error
 #  (deg)                 (cm**2/sr)   (a0**2/sr)    function
 #----------------------------------------------------------------------
0.00000E+00 3.33660E-11
7.61557E-13 3.33542E-11
1.18994E-12 3.33476E-11
1.71346E-12 3.33396E-11
2.33225E-12 3.33301E-11
3.04617E-12 3.33192E-11
3.85530E-12 3.33068E-11
4.75964E-12 3.32930E-11
5.75917E-12 3.32777E-11
6.85391E-12 3.32610E-11
8.04379E-12 3.32428E-11
9.32893E-12 3.32233E-11
1.07092E-11 3.32022E-11
1.21847E-11 3.31798E-11
1.37554E-11 3.31560E-11
1.54213E-11 3.31307E-11
1.71823E-11 3.31040E-11
1.90386E-11 3.30759E-11
2.09900E-11 3.30465E-11
2.30367E-11 3.30156E-11
2.51785E-11 3.29833E-11
2.74156E-11 3.29497E-11
2.97478E-11 3.29147E-11
3.21752E-11 3.28783E-11
3.46979E-11 3.28406E-11
3.73157E-11 3.28015E-11
4.00286E-11 3.27610E-11
4.28368E-11 3.27192E-11
4.57402E-11 3.26761E-11
4.87388E-11 3.26317E-11
5.18325E-11 3.25859E-11
5.50215E-11 3.25389E-11
5.83057E-11 3.24906E-11
6.16850E-11 3.24409E-11
6.51595E-11 3.23900E-11
6.87293E-11 3.23379E-11
7.23943E-11 3.22844E-11
7.61544E-11 3.22297E-11
1.18991E-10 3.16168E-11
1.71347E-10 3.08875E-11
2.33223E-10 3.00641E-11
3.04617E-10 2.91552E-11
3.85531E-10 2.81698E-11
4.75965E-10 2.71316E-11
5.75917E-10 2.60563E-11
6.85389E-10 2.49484E-11
8.04380E-10 2.38213E-11
9.32891E-10 2.26955E-11
1.07092E-09 2.15814E-11
1.21847E-09 2.04747E-11
1.37554E-09 1.93915E-11
1.54213E-09 1.83427E-11
1.71823E-09 1.73326E-11
1.90386E-09 1.63517E-11
2.09900E-09 1.54150E-11
2.30367E-09 1.45252E-11
2.51785E-09 1.36814E-11
2.74156E-09 1.28753E-11
2.97478E-09 1.21167E-11
3.21752E-09 1.14039E-11
3.46978E-09 1.07333E-11
3.73156E-09 1.01006E-11
4.00286E-09 9.50939E-12
4.28368E-09 8.95712E-12
4.57402E-09 8.43959E-12
4.87388E-09 7.95483E-12
5.18326E-09 7.50314E-12
5.50215E-09 7.08223E-12
5.83057E-09 6.68830E-12
6.16850E-09 6.32052E-12
6.51596E-09 5.97797E-12
6.87293E-09 5.65875E-12
7.23942E-09 5.35981E-12
7.61544E-09 5.08087E-12
1.18991E-08 3.11439E-12
1.71347E-08 2.03745E-12
2.33223E-08 1.42439E-12
3.04617E-08 1.03200E-12
3.85531E-08 7.62351E-13
4.75965E-08 5.75698E-13
5.75917E-08 4.41731E-13
6.85389E-08 3.41280E-13
8.04380E-08 2.65953E-13
9.32891E-08 2.09648E-13
1.07092E-07 1.66902E-13
1.21847E-07 1.33748E-13
1.37554E-07 1.08193E-13
1.54213E-07 8.83621E-14
1.71823E-07 7.28062E-14
1.90386E-07 6.04378E-14
2.09900E-07 5.05979E-14
2.30367E-07 4.26967E-14
2.51785E-07 3.62945E-14
2.74156E-07 3.10565E-14
2.97478E-07 2.67503E-14
3.21752E-07 2.31822E-14
3.46978E-07 2.02035E-14
3.73156E-07 1.76938E-14
4.00286E-07 1.55715E-14
4.28368E-07 1.37662E-14
4.57402E-07 1.22202E-14
4.87388E-07 1.08886E-14
5.18325E-07 9.73728E-15
5.50215E-07 8.73705E-15
5.83057E-07 7.86255E-15
6.16850E-07 7.09527E-15
6.51596E-07 6.42022E-15
6.87293E-07 5.82411E-15
7.23942E-07 5.29468E-15
7.61543E-07 4.82398E-15
1.18991E-06 2.09985E-15
1.71347E-06 1.04618E-15
2.33223E-06 5.75340E-16
3.04617E-06 3.41428E-16
3.85531E-06 2.15194E-16
4.75964E-06 1.42341E-16
5.75916E-06 9.79264E-17
6.85388E-06 6.95951E-17
8.04378E-06 5.08257E-17
9.32888E-06 3.79855E-17
1.07092E-05 2.89598E-17
1.21846E-05 2.24641E-17
1.37553E-05 1.76920E-17
1.54212E-05 1.41223E-17
1.71822E-05 1.14088E-17
1.90385E-05 9.31547E-18
2.09899E-05 7.68243E-18
2.30365E-05 6.39154E-18
2.51783E-05 5.36014E-18
2.74153E-05 4.52815E-18
2.97475E-05 3.85120E-18
3.21749E-05 3.29602E-18
3.46974E-05 2.83733E-18
3.73152E-05 2.45576E-18
4.00281E-05 2.13626E-18
4.28362E-05 1.86706E-18
4.57395E-05 1.63893E-18
4.87380E-05 1.44456E-18
5.18317E-05 1.27812E-18
5.50205E-05 1.13493E-18
5.83045E-05 1.01123E-18
6.16838E-05 9.03927E-19
6.51582E-05 8.10491E-19
6.87277E-05 7.28829E-19
7.23925E-05 6.57203E-19
7.61524E-05 5.94200E-19
9.21439E-05 4.06441E-19
1.09658E-04 2.87318E-19
1.28695E-04 2.08825E-19
1.49255E-04 1.55397E-19
1.71338E-04 1.18024E-19
1.94942E-04 9.12432E-20
2.20070E-04 7.16495E-20
2.46720E-04 5.70474E-20
2.74892E-04 4.59846E-20
3.04586E-04 3.74805E-20
3.35803E-04 3.08556E-20
3.68542E-04 2.56333E-20
4.02802E-04 2.14715E-20
4.38585E-04 1.81219E-20
4.75889E-04 1.54014E-20
5.14715E-04 1.31733E-20
5.55063E-04 1.13344E-20
5.96931E-04 9.80590E-21
6.40321E-04 8.52688E-21
6.85233E-04 7.45004E-21
7.31665E-04 6.53816E-21
7.79618E-04 5.76184E-21
8.29092E-04 5.09755E-21
8.80086E-04 4.52645E-21
9.32601E-04 4.03325E-21
9.86636E-04 3.60554E-21
1.04219E-03 3.23315E-21
1.09927E-03 2.90770E-21
1.15786E-03 2.62226E-21
1.21797E-03 2.37106E-21
1.27961E-03 2.14929E-21
1.34276E-03 1.95291E-21
1.40743E-03 1.77849E-21
1.47362E-03 1.62315E-21
1.54133E-03 1.48444E-21
1.61056E-03 1.36027E-21
1.68131E-03 1.24884E-21
1.75357E-03 1.14861E-21
1.82735E-03 1.05827E-21
1.90265E-03 9.76650E-22
1.97947E-03 9.02769E-22
2.05780E-03 8.35759E-22
2.13765E-03 7.74866E-22
2.21902E-03 7.19432E-22
2.30190E-03 6.68880E-22
2.38630E-03 6.22702E-22
2.47222E-03 5.80450E-22
2.55965E-03 5.41729E-22
2.64859E-03 5.06193E-22
2.73905E-03 4.73531E-22
2.83103E-03 4.43467E-22
2.92452E-03 4.15757E-22
3.01952E-03 3.90184E-22
3.11604E-03 3.66553E-22
3.21407E-03 3.44688E-22
3.31362E-03 3.24434E-22
3.41468E-03 3.05649E-22
3.51725E-03 2.88208E-22
3.62133E-03 2.71997E-22
3.72692E-03 2.56913E-22
3.83403E-03 2.42862E-22
3.94265E-03 2.29762E-22
4.05278E-03 2.17536E-22
4.16442E-03 2.06115E-22
4.27757E-03 1.95435E-22
4.39223E-03 1.85439E-22
4.50840E-03 1.76077E-22
4.62608E-03 1.67300E-22
4.74527E-03 1.59064E-22
4.86597E-03 1.51330E-22
4.98817E-03 1.44062E-22
5.11188E-03 1.37226E-22
5.23711E-03 1.30792E-22
5.36383E-03 1.24731E-22
5.49207E-03 1.19019E-22
5.62181E-03 1.13631E-22
5.75306E-03 1.08545E-22
5.88581E-03 1.03741E-22
6.02007E-03 9.92010E-23
6.15583E-03 9.49074E-23
6.29310E-03 9.08434E-23
6.43187E-03 8.69958E-23
6.57214E-03 8.33505E-23
6.71392E-03 7.98940E-23
6.85720E-03 7.66156E-23
7.00198E-03 7.35042E-23
7.14827E-03 7.05495E-23
7.29605E-03 6.77420E-23
7.44534E-03 6.50732E-23
7.59612E-03 6.25349E-23
7.97965E-03 5.67112E-23
8.37255E-03 5.15514E-23
8.77480E-03 4.69666E-23
9.18641E-03 4.28814E-23
9.60736E-03 3.92317E-23
1.00376E-02 3.59629E-23
1.04773E-02 3.30282E-23
1.09262E-02 3.03874E-23
1.13844E-02 2.80058E-23
1.18520E-02 2.58533E-23
1.23288E-02 2.39040E-23
1.28150E-02 2.21352E-23
1.33104E-02 2.05273E-23
1.38150E-02 1.90629E-23
1.43290E-02 1.77269E-23
1.48521E-02 1.65060E-23
1.53845E-02 1.53885E-23
1.59262E-02 1.43640E-23
1.64770E-02 1.34234E-23
1.70371E-02 1.25586E-23
1.76063E-02 1.17623E-23
1.81848E-02 1.10281E-23
1.87724E-02 1.03503E-23
1.93692E-02 9.72374E-24
1.99751E-02 9.14384E-24
2.05901E-02 8.60650E-24
2.12143E-02 8.10800E-24
2.18476E-02 7.64502E-24
2.24900E-02 7.21457E-24
2.31415E-02 6.81393E-24
2.38021E-02 6.44067E-24
2.44717E-02 6.09255E-24
2.51504E-02 5.76758E-24
2.58382E-02 5.46392E-24
2.65349E-02 5.17993E-24
2.72407E-02 4.91409E-24
2.79555E-02 4.66502E-24
2.86793E-02 4.43147E-24
2.94120E-02 4.21230E-24
3.01537E-02 4.00645E-24
3.09043E-02 3.81296E-24
3.16639E-02 3.63095E-24
3.24324E-02 3.45961E-24
3.32098E-02 3.29821E-24
3.39961E-02 3.14605E-24
3.47912E-02 3.00251E-24
3.55952E-02 2.86701E-24
3.64081E-02 2.73902E-24
3.72297E-02 2.61803E-24
3.80602E-02 2.50361E-24
3.88995E-02 2.39531E-24
3.97476E-02 2.29276E-24
4.06044E-02 2.19559E-24
4.14700E-02 2.10347E-24
4.23443E-02 2.01609E-24
4.32273E-02 1.93315E-24
4.41190E-02 1.85439E-24
4.50194E-02 1.77956E-24
4.59284E-02 1.70843E-24
4.68461E-02 1.64077E-24
4.87074E-02 1.51510E-24
5.06030E-02 1.40110E-24
5.25328E-02 1.29748E-24
5.44967E-02 1.20315E-24
5.64946E-02 1.11711E-24
5.85262E-02 1.03852E-24
6.05914E-02 9.66604E-25
6.26901E-02 9.00708E-25
6.48222E-02 8.40236E-25
6.69873E-02 7.84662E-25
6.91854E-02 7.33521E-25
7.14163E-02 6.86396E-25
7.36799E-02 6.42917E-25
7.59760E-02 6.02752E-25
7.83043E-02 5.65605E-25
8.06647E-02 5.31208E-25
8.30571E-02 4.99322E-25
8.54812E-02 4.69733E-25
8.79369E-02 4.42245E-25
9.04240E-02 4.16684E-25
9.29422E-02 3.92891E-25
9.54915E-02 3.70723E-25
9.80716E-02 3.50049E-25
1.00682E-01 3.30751E-25
1.03323E-01 3.12722E-25
1.05995E-01 2.95864E-25
1.08696E-01 2.80088E-25
1.11427E-01 2.65313E-25
1.14188E-01 2.51463E-25
1.16978E-01 2.38472E-25
1.19797E-01 2.26277E-25
1.22645E-01 2.14821E-25
1.25522E-01 2.04051E-25
1.28428E-01 1.93920E-25
1.31361E-01 1.84383E-25
1.34323E-01 1.75400E-25
1.37313E-01 1.66932E-25
1.40330E-01 1.58947E-25
1.43375E-01 1.51410E-25
1.46447E-01 1.44294E-25
1.49545E-01 1.37571E-25
1.52671E-01 1.31215E-25
1.55823E-01 1.25203E-25
1.59001E-01 1.19513E-25
1.62205E-01 1.14126E-25
1.65435E-01 1.09023E-25
1.68690E-01 1.04186E-25
1.71970E-01 9.95986E-26
1.75276E-01 9.52468E-26
1.78606E-01 9.11162E-26
1.81961E-01 8.71937E-26
1.85340E-01 8.34672E-26
1.88743E-01 7.99254E-26
1.92169E-01 7.65576E-26
1.95619E-01 7.33541E-26
1.99092E-01 7.03054E-26
2.02589E-01 6.74030E-26
2.06107E-01 6.46388E-26
2.09649E-01 6.20052E-26
2.13212E-01 5.94951E-26
2.16797E-01 5.71018E-26
2.20404E-01 5.48190E-26
2.24032E-01 5.26409E-26
2.27680E-01 5.05619E-26
2.31350E-01 4.85769E-26
2.35040E-01 4.66810E-26
2.38751E-01 4.48696E-26
2.42481E-01 4.31383E-26
2.46231E-01 4.14832E-26
2.50000E-01 3.99004E-26
2.53788E-01 3.83862E-26
2.57595E-01 3.69373E-26
2.61421E-01 3.55505E-26
2.65264E-01 3.42226E-26
2.69126E-01 3.29509E-26
2.73005E-01 3.17326E-26
2.76901E-01 3.05652E-26
2.80814E-01 2.94463E-26
2.84744E-01 2.83736E-26
2.88691E-01 2.73448E-26
2.92653E-01 2.63580E-26
2.96632E-01 2.54112E-26
3.00625E-01 2.45026E-26
3.04634E-01 2.36304E-26
3.08658E-01 2.27929E-26
3.12697E-01 2.19887E-26
3.16749E-01 2.12162E-26
3.20816E-01 2.04739E-26
3.24896E-01 1.97607E-26
3.28990E-01 1.90751E-26
3.33097E-01 1.84159E-26
3.37216E-01 1.77821E-26
3.41348E-01 1.71725E-26
3.45492E-01 1.65861E-26
3.49647E-01 1.60219E-26
3.53814E-01 1.54789E-26
3.57992E-01 1.49563E-26
3.62181E-01 1.44531E-26
3.66381E-01 1.39686E-26
3.70590E-01 1.35021E-26
3.74810E-01 1.30526E-26
3.79039E-01 1.26197E-26
3.83277E-01 1.22025E-26
3.87524E-01 1.18004E-26
3.91780E-01 1.14129E-26
3.96044E-01 1.10393E-26
4.00316E-01 1.06790E-26
4.04596E-01 1.03317E-26
4.08882E-01 9.99662E-27
4.13176E-01 9.67343E-27
4.17476E-01 9.36161E-27
4.21783E-01 9.06073E-27
4.26095E-01 8.77037E-27
4.30413E-01 8.49010E-27
4.34737E-01 8.21955E-27
4.39065E-01 7.95834E-27
4.43398E-01 7.70611E-27
4.47736E-01 7.46253E-27
4.52077E-01 7.22726E-27
4.56422E-01 6.99999E-27
4.60770E-01 6.78042E-27
4.65122E-01 6.56827E-27
4.69476E-01 6.36325E-27
4.73832E-01 6.16511E-27
4.78190E-01 5.97358E-27
4.82550E-01 5.78843E-27
4.86912E-01 5.60943E-27
4.91274E-01 5.43634E-27
4.95637E-01 5.26896E-27
5.00000E-01 5.10707E-27
5.04363E-01 4.95049E-27
5.08726E-01 4.79901E-27
5.13088E-01 4.65247E-27
5.17450E-01 4.51067E-27
5.21810E-01 4.37346E-27
5.26168E-01 4.24068E-27
5.30524E-01 4.11215E-27
5.34878E-01 3.98775E-27
5.39230E-01 3.86732E-27
5.43578E-01 3.75072E-27
5.47923E-01 3.63782E-27
5.52264E-01 3.52850E-27
5.56602E-01 3.42263E-27
5.60935E-01 3.32010E-27
5.65263E-01 3.22078E-27
5.69587E-01 3.12457E-27
5.73905E-01 3.03137E-27
5.78217E-01 2.94106E-27
5.82524E-01 2.85356E-27
5.86824E-01 2.76878E-27
5.91118E-01 2.68661E-27
5.95404E-01 2.60697E-27
5.99684E-01 2.52978E-27
6.03956E-01 2.45495E-27
6.08220E-01 2.38242E-27
6.12476E-01 2.31209E-27
6.16723E-01 2.24391E-27
6.20961E-01 2.17780E-27
6.25190E-01 2.11368E-27
6.29410E-01 2.05151E-27
6.33619E-01 1.99121E-27
6.37819E-01 1.93272E-27
6.42008E-01 1.87599E-27
6.46186E-01 1.82095E-27
6.50353E-01 1.76756E-27
6.54508E-01 1.71576E-27
6.58652E-01 1.66551E-27
6.62784E-01 1.61674E-27
6.66903E-01 1.56942E-27
6.71010E-01 1.52349E-27
6.75104E-01 1.47892E-27
6.79184E-01 1.43566E-27
6.83251E-01 1.39367E-27
6.87303E-01 1.35292E-27
6.91342E-01 1.31335E-27
6.95366E-01 1.27494E-27
6.99375E-01 1.23765E-27
7.03368E-01 1.20144E-27
7.07347E-01 1.16629E-27
7.11309E-01 1.13215E-27
7.15256E-01 1.09900E-27
7.19186E-01 1.06681E-27
7.23099E-01 1.03555E-27
7.26995E-01 1.00518E-27
7.30874E-01 9.75690E-28
7.34736E-01 9.47043E-28
7.38579E-01 9.19216E-28
7.42405E-01 8.92184E-28
7.46212E-01 8.65923E-28
7.50000E-01 8.40411E-28
7.53769E-01 8.15624E-28
7.57519E-01 7.91541E-28
7.61249E-01 7.68140E-28
7.64960E-01 7.45402E-28
7.68650E-01 7.23308E-28
7.72320E-01 7.01836E-28
7.75968E-01 6.80970E-28
7.79596E-01 6.60692E-28
7.83203E-01 6.40984E-28
7.86788E-01 6.21829E-28
7.90351E-01 6.03211E-28
7.93893E-01 5.85115E-28
7.97411E-01 5.67525E-28
8.00908E-01 5.50426E-28
8.04381E-01 5.33805E-28
8.07831E-01 5.17647E-28
8.11257E-01 5.01939E-28
8.14660E-01 4.86668E-28
8.18039E-01 4.71822E-28
8.21394E-01 4.57388E-28
8.24724E-01 4.43354E-28
8.28030E-01 4.29710E-28
8.31310E-01 4.16443E-28
8.34565E-01 4.03543E-28
8.37795E-01 3.91001E-28
8.40999E-01 3.78805E-28
8.44177E-01 3.66945E-28
8.47329E-01 3.55414E-28
8.50455E-01 3.44200E-28
8.53553E-01 3.33296E-28
8.56625E-01 3.22692E-28
8.59670E-01 3.12381E-28
8.62687E-01 3.02354E-28
8.65677E-01 2.92603E-28
8.68639E-01 2.83120E-28
8.71572E-01 2.73899E-28
8.74478E-01 2.64932E-28
8.77355E-01 2.56212E-28
8.80203E-01 2.47733E-28
8.83022E-01 2.39487E-28
8.85812E-01 2.31468E-28
8.88573E-01 2.23671E-28
8.91304E-01 2.16089E-28
8.94005E-01 2.08717E-28
8.96677E-01 2.01548E-28
8.99318E-01 1.94578E-28
9.01928E-01 1.87801E-28
9.04508E-01 1.81212E-28
9.07058E-01 1.74806E-28
9.09576E-01 1.68578E-28
9.12063E-01 1.62524E-28
9.14519E-01 1.56638E-28
9.16943E-01 1.50918E-28
9.19335E-01 1.45357E-28
9.21696E-01 1.39953E-28
9.24024E-01 1.34701E-28
9.26320E-01 1.29597E-28
9.28584E-01 1.24638E-28
9.30815E-01 1.19820E-28
9.33013E-01 1.15139E-28
9.35178E-01 1.10592E-28
9.37310E-01 1.06175E-28
9.39409E-01 1.01886E-28
9.41474E-01 9.77207E-29
9.43505E-01 9.36768E-29
9.45503E-01 8.97512E-29
9.47467E-01 8.59409E-29
9.49397E-01 8.22432E-29
9.51293E-01 7.86555E-29
9.53154E-01 7.51752E-29
9.54981E-01 7.17997E-29
9.56773E-01 6.85267E-29
9.58530E-01 6.53537E-29
9.60252E-01 6.22786E-29
9.61940E-01 5.92991E-29
9.63592E-01 5.64131E-29
9.65209E-01 5.36185E-29
9.66790E-01 5.09134E-29
9.68336E-01 4.82958E-29
9.69846E-01 4.57639E-29
9.71321E-01 4.33159E-29
9.72759E-01 4.09500E-29
9.74162E-01 3.86646E-29
9.75528E-01 3.64581E-29
9.76858E-01 3.43290E-29
9.78152E-01 3.22756E-29
9.79410E-01 3.02967E-29
9.80631E-01 2.83907E-29
9.81815E-01 2.65564E-29
9.82963E-01 2.47925E-29
9.84074E-01 2.30978E-29
9.85148E-01 2.14710E-29
9.86185E-01 1.99111E-29
9.87185E-01 1.84169E-29
9.88148E-01 1.69874E-29
9.89074E-01 1.56217E-29
9.89962E-01 1.43187E-29
9.90814E-01 1.30776E-29
9.91627E-01 1.18976E-29
9.92404E-01 1.07777E-29
9.93143E-01 9.71722E-30
9.93844E-01 8.71544E-30
9.94508E-01 7.77167E-30
9.95134E-01 6.88524E-30
9.95722E-01 6.05555E-30
9.96273E-01 5.28202E-30
9.96786E-01 4.56412E-30
9.97261E-01 3.90137E-30
9.97698E-01 3.29329E-30
9.98097E-01 2.73948E-30
9.98459E-01 2.23955E-30
9.98782E-01 1.79316E-30
9.99067E-01 1.40001E-30
9.99315E-01 1.05982E-30
9.99524E-01 7.72360E-31
9.99695E-01 5.37435E-31
9.99829E-01 3.54883E-31
9.99924E-01 2.24577E-31
9.99981E-01 1.46429E-31
1.00000E+00 1.20386E-31
