 #
 # Subroutine ELSEPA. Elastic scattering of electrons and positrons
 #                    by neutral atoms and positive ions
 #
 # Projectile: positron
 # Kinetic energy = 4.50000E+08 eV = 1.65372E+07 a.u.
 #
 # WARNING: High-energy factorization with free-atom DF screening.
 #          Absorption, polarization and exchange corrections are
 #          switched off.
 #          Phase shifts are calculated for the bare nucleus.
 #          Scattering amplitudes are not evaluated.
 #
 # Element: Al,  Z =  13,  atomic weight = 2.69815E+01 g/mol
 #
 # Nuclear model: Fermi distribution
 #                Average radius = 3.20927E-13 cm
 #                Skin thickness = 5.46000E-14 cm
 #
 # Number of electrons = 13
 #
 # Total elastic cross section = 7.71889E-19 cm**2 = 2.75646E-02 a0**2
 # 1st transport cross section = 1.80434E-27 cm**2 = 6.44342E-11 a0**2
 # 2nd transport cross section = 5.40869E-27 cm**2 = 1.93148E-10 a0**2
 #
 #
 # Differential cross section:                       MU=(1-COS(THETA))/2
 #
 #  THETA        MU          DCS          DCS        Sherman      error
 #  (deg)                 (cm**2/sr)   (a0**2/sr)    function
 #----------------------------------------------------------------------
0.00000E+00 2.69570E-09
7.61557E-13 2.49744E-09
1.18994E-12 2.39519E-09
1.71346E-12 2.27833E-09
2.33225E-12 2.15064E-09
3.04617E-12 2.01593E-09
3.85530E-12 1.87770E-09
4.75964E-12 1.73908E-09
5.75917E-12 1.60272E-09
6.85391E-12 1.47072E-09
8.04379E-12 1.34419E-09
9.32893E-12 1.22470E-09
1.07092E-11 1.11396E-09
1.21847E-11 1.01166E-09
1.37554E-11 9.16650E-10
1.54213E-11 8.30276E-10
1.71823E-11 7.52002E-10
1.90386E-11 6.80565E-10
2.09900E-11 6.16250E-10
2.30367E-11 5.58443E-10
2.51785E-11 5.06399E-10
2.74156E-11 4.59698E-10
2.97478E-11 4.17818E-10
3.21752E-11 3.80374E-10
3.46979E-11 3.46813E-10
3.73157E-11 3.16688E-10
4.00286E-11 2.89770E-10
4.28368E-11 2.65655E-10
4.57402E-11 2.43942E-10
4.87388E-11 2.24473E-10
5.18325E-11 2.07021E-10
5.50215E-11 1.91244E-10
5.83057E-11 1.77012E-10
6.16850E-11 1.64230E-10
6.51595E-11 1.52622E-10
6.87293E-11 1.42078E-10
7.23943E-11 1.32574E-10
7.61544E-11 1.23902E-10
1.18991E-10 6.87570E-11
1.71347E-10 4.29616E-11
2.33223E-10 2.88076E-11
3.04617E-10 2.01487E-11
3.85531E-10 1.44760E-11
4.75965E-10 1.06014E-11
5.75917E-10 7.88504E-12
6.85389E-10 5.94497E-12
8.04380E-10 4.53019E-12
9.32891E-10 3.50596E-12
1.07092E-09 2.74105E-12
1.21847E-09 2.16681E-12
1.37554E-09 1.73231E-12
1.54213E-09 1.39944E-12
1.71823E-09 1.14157E-12
1.90386E-09 9.39424E-13
2.09900E-09 7.79845E-13
2.30367E-09 6.52705E-13
2.51785E-09 5.50465E-13
2.74156E-09 4.67539E-13
2.97478E-09 3.99694E-13
3.21752E-09 3.43819E-13
3.46978E-09 2.97462E-13
3.73156E-09 2.58740E-13
4.00286E-09 2.26184E-13
4.28368E-09 1.98638E-13
4.57402E-09 1.75209E-13
4.87388E-09 1.55176E-13
5.18326E-09 1.37959E-13
5.50215E-09 1.23089E-13
5.83057E-09 1.10187E-13
6.16850E-09 9.89490E-14
6.51596E-09 8.91223E-14
6.87293E-09 8.04972E-14
7.23942E-09 7.28971E-14
7.61544E-09 6.61779E-14
1.18991E-08 2.81621E-14
1.71347E-08 1.39360E-14
2.33223E-08 7.65025E-15
3.04617E-08 4.53418E-15
3.85531E-08 2.85144E-15
4.75965E-08 1.88009E-15
5.75917E-08 1.28851E-15
6.85389E-08 9.11955E-16
8.04380E-08 6.63239E-16
9.32891E-08 4.93715E-16
1.07092E-07 3.74999E-16
1.21847E-07 2.89882E-16
1.37554E-07 2.27584E-16
1.54213E-07 1.81146E-16
1.71823E-07 1.45964E-16
1.90386E-07 1.18920E-16
2.09900E-07 9.78559E-17
2.30367E-07 8.12544E-17
2.51785E-07 6.80277E-17
2.74156E-07 5.73854E-17
2.97478E-07 4.87446E-17
3.21752E-07 4.16703E-17
3.46978E-07 3.58338E-17
3.73156E-07 3.09841E-17
4.00286E-07 2.69277E-17
4.28368E-07 2.35138E-17
4.57402E-07 2.06241E-17
4.87388E-07 1.81650E-17
5.18325E-07 1.60616E-17
5.50215E-07 1.42540E-17
5.83057E-07 1.26934E-17
6.16850E-07 1.13407E-17
6.51596E-07 1.01634E-17
6.87293E-07 9.13506E-18
7.23942E-07 8.23352E-18
7.61543E-07 7.44051E-18
1.18991E-06 3.04749E-18
1.71347E-06 1.46958E-18
2.33223E-06 7.93199E-19
3.04617E-06 4.64931E-19
3.85531E-06 2.90237E-19
4.75964E-06 1.90413E-19
5.75916E-06 1.30047E-19
6.85388E-06 9.18160E-20
8.04378E-06 6.66566E-20
9.32888E-06 4.95539E-20
1.07092E-05 3.76009E-20
1.21846E-05 2.90440E-20
1.37553E-05 2.27884E-20
1.54212E-05 1.81298E-20
1.71822E-05 1.46030E-20
1.90385E-05 1.18932E-20
2.09899E-05 9.78419E-21
2.30365E-05 8.12254E-21
2.51783E-05 6.79903E-21
2.74153E-05 5.73435E-21
2.97475E-05 4.87008E-21
3.21749E-05 4.16265E-21
3.46974E-05 3.57913E-21
3.73152E-05 3.09438E-21
4.00281E-05 2.68898E-21
4.28362E-05 2.34786E-21
4.57395E-05 2.05914E-21
4.87380E-05 1.81346E-21
5.18317E-05 1.60334E-21
5.50205E-05 1.42278E-21
5.83045E-05 1.26693E-21
6.16838E-05 1.13184E-21
6.51582E-05 1.01429E-21
6.87277E-05 9.11603E-22
7.23925E-05 8.21591E-22
7.61524E-05 7.39101E-22
9.21439E-05 5.04189E-22
1.09658E-04 3.55510E-22
1.28695E-04 2.57736E-22
1.49255E-04 1.91319E-22
1.71338E-04 1.44939E-22
1.94942E-04 1.11765E-22
2.20070E-04 8.75342E-23
2.46720E-04 6.95067E-23
2.74892E-04 5.58726E-23
3.04586E-04 4.54094E-23
3.35803E-04 3.72729E-23
3.68542E-04 3.08702E-23
4.02802E-04 2.57770E-23
4.38585E-04 2.16854E-23
4.75889E-04 1.83685E-23
5.14715E-04 1.56573E-23
5.55063E-04 1.34241E-23
5.96931E-04 1.15715E-23
6.40321E-04 1.00246E-23
6.85233E-04 8.72502E-24
7.31665E-04 7.62692E-24
7.79618E-04 6.69414E-24
8.29092E-04 5.89782E-24
8.80086E-04 5.21480E-24
9.32601E-04 4.62637E-24
9.86636E-04 4.11733E-24
1.04219E-03 3.67524E-24
1.09927E-03 3.28987E-24
1.15786E-03 2.95276E-24
1.21797E-03 2.65689E-24
1.27961E-03 2.39640E-24
1.34276E-03 2.16637E-24
1.40743E-03 1.96265E-24
1.47362E-03 1.78175E-24
1.54133E-03 1.62070E-24
1.61056E-03 1.47696E-24
1.68131E-03 1.34837E-24
1.75357E-03 1.23308E-24
1.82735E-03 1.12948E-24
1.90265E-03 1.03620E-24
1.97947E-03 9.52045E-25
2.05780E-03 8.75975E-25
2.13765E-03 8.07091E-25
2.21902E-03 7.44602E-25
2.30190E-03 6.87821E-25
2.38630E-03 6.36142E-25
2.47222E-03 5.89033E-25
2.55965E-03 5.46025E-25
2.64859E-03 5.06706E-25
2.73905E-03 4.70707E-25
2.83103E-03 4.37705E-25
2.92452E-03 4.07410E-25
3.01952E-03 3.79566E-25
3.11604E-03 3.53942E-25
3.21407E-03 3.30335E-25
3.31362E-03 3.08562E-25
3.41468E-03 2.88456E-25
3.51725E-03 2.69872E-25
3.62133E-03 2.52676E-25
3.72692E-03 2.36749E-25
3.83403E-03 2.21983E-25
3.94265E-03 2.08280E-25
4.05278E-03 1.95553E-25
4.16442E-03 1.83721E-25
4.27757E-03 1.72712E-25
4.39223E-03 1.62461E-25
4.50840E-03 1.52907E-25
4.62608E-03 1.43996E-25
4.74527E-03 1.35679E-25
4.86597E-03 1.27910E-25
4.98817E-03 1.20648E-25
5.11188E-03 1.13855E-25
5.23711E-03 1.07497E-25
5.36383E-03 1.01542E-25
5.49207E-03 9.59598E-26
5.62181E-03 9.07251E-26
5.75306E-03 8.58128E-26
5.88581E-03 8.12004E-26
6.02007E-03 7.68670E-26
6.15583E-03 7.27936E-26
6.29310E-03 6.89624E-26
6.43187E-03 6.53571E-26
6.57214E-03 6.19627E-26
6.71392E-03 5.87652E-26
6.85720E-03 5.57516E-26
7.00198E-03 5.29101E-26
7.14827E-03 5.02296E-26
7.29605E-03 4.76999E-26
7.44534E-03 4.53113E-26
7.59612E-03 4.30550E-26
7.97965E-03 3.79406E-26
8.37255E-03 3.34897E-26
8.77480E-03 2.96071E-26
9.18641E-03 2.62125E-26
9.60736E-03 2.32385E-26
1.00376E-02 2.06277E-26
1.04773E-02 1.83317E-26
1.09262E-02 1.63089E-26
1.13844E-02 1.45239E-26
1.18520E-02 1.29463E-26
1.23288E-02 1.15500E-26
1.28150E-02 1.03124E-26
1.33104E-02 9.21425E-27
1.38150E-02 8.23853E-27
1.43290E-02 7.37066E-27
1.48521E-02 6.59789E-27
1.53845E-02 5.90914E-27
1.59262E-02 5.29470E-27
1.64770E-02 4.74608E-27
1.70371E-02 4.25585E-27
1.76063E-02 3.81747E-27
1.81848E-02 3.42518E-27
1.87724E-02 3.07391E-27
1.93692E-02 2.75919E-27
1.99751E-02 2.47708E-27
2.05901E-02 2.22406E-27
2.12143E-02 1.99703E-27
2.18476E-02 1.79325E-27
2.24900E-02 1.61027E-27
2.31415E-02 1.44592E-27
2.38021E-02 1.29825E-27
2.44717E-02 1.16554E-27
2.51504E-02 1.04626E-27
2.58382E-02 9.39031E-28
2.65349E-02 8.42618E-28
2.72407E-02 7.55926E-28
2.79555E-02 6.77970E-28
2.86793E-02 6.07870E-28
2.94120E-02 5.44835E-28
3.01537E-02 4.88155E-28
3.09043E-02 4.37195E-28
3.16639E-02 3.91383E-28
3.24324E-02 3.50205E-28
3.32098E-02 3.13200E-28
3.39961E-02 2.79952E-28
3.47912E-02 2.50088E-28
3.55952E-02 2.23270E-28
3.64081E-02 1.99197E-28
3.72297E-02 1.77594E-28
3.80602E-02 1.58217E-28
3.88995E-02 1.40843E-28
3.97476E-02 1.25272E-28
4.06044E-02 1.11326E-28
4.14700E-02 9.88400E-29
4.23443E-02 8.76689E-29
4.32273E-02 7.76803E-29
4.41190E-02 6.87550E-29
4.50194E-02 6.07857E-29
4.59284E-02 5.36753E-29
4.68461E-02 4.73364E-29
4.87074E-02 3.66658E-29
5.06030E-02 2.82318E-29
5.25328E-02 2.15940E-29
5.44967E-02 1.63951E-29
5.64946E-02 1.23453E-29
5.85262E-02 9.21004E-30
6.05914E-02 6.79991E-30
6.26901E-02 4.96214E-30
6.48222E-02 3.57388E-30
6.69873E-02 2.53664E-30
6.91854E-02 1.77170E-30
7.14163E-02 1.21639E-30
7.36799E-02 8.21025E-31
7.59760E-02 5.46424E-31
7.83043E-02 3.61856E-31
8.06647E-02 2.43378E-31
8.30571E-02 1.72480E-31
8.54812E-02 1.34981E-31
8.79369E-02 1.20135E-31
9.04240E-02 1.19903E-31
9.29422E-02 1.28368E-31
9.54915E-02 1.41267E-31
9.80716E-02 1.55610E-31
1.00682E-01 1.69378E-31
1.03323E-01 1.81289E-31
1.05995E-01 1.90600E-31
1.08696E-01 1.96969E-31
1.11427E-01 2.00331E-31
1.14188E-01 2.00813E-31
1.16978E-01 1.98667E-31
1.19797E-01 1.94218E-31
1.22645E-01 1.87824E-31
1.25522E-01 1.79854E-31
1.28428E-01 1.70665E-31
1.31361E-01 1.60590E-31
1.34323E-01 1.49933E-31
1.37313E-01 1.38960E-31
1.40330E-01 1.27902E-31
1.43375E-01 1.16952E-31
1.46447E-01 1.06269E-31
1.49545E-01 9.59774E-32
1.52671E-01 8.61745E-32
1.55823E-01 7.69300E-32
1.59001E-01 6.82910E-32
1.62205E-01 6.02849E-32
1.65435E-01 5.29227E-32
1.68690E-01 4.62018E-32
1.71970E-01 4.01086E-32
1.75276E-01 3.46212E-32
1.78606E-01 2.97111E-32
1.81961E-01 2.53450E-32
1.85340E-01 2.14869E-32
1.88743E-01 1.80986E-32
1.92169E-01 1.51415E-32
1.95619E-01 1.25768E-32
1.99092E-01 1.03669E-32
2.02589E-01 8.47546E-33
2.06107E-01 6.86780E-33
2.09649E-01 5.51141E-33
2.13212E-01 4.37602E-33
2.16797E-01 3.43368E-33
2.20404E-01 2.65884E-33
2.24032E-01 2.02830E-33
2.27680E-01 1.52116E-33
2.31350E-01 1.11875E-33
2.35040E-01 8.04481E-34
2.38751E-01 5.63725E-34
2.42481E-01 3.83686E-34
2.46231E-01 2.53239E-34
2.50000E-01 1.62789E-34
2.53788E-01 1.04122E-34
2.57595E-01 7.02647E-35
2.61421E-01 5.53475E-35
2.65264E-01 5.44791E-35
2.69126E-01 6.36272E-35
2.73005E-01 7.95029E-35
2.76901E-01 9.94707E-35
2.80814E-01 1.21444E-34
2.84744E-01 1.43812E-34
2.88691E-01 1.65358E-34
2.92653E-01 1.85204E-34
2.96632E-01 2.02741E-34
3.00625E-01 2.17586E-34
3.04634E-01 2.29536E-34
3.08658E-01 2.38529E-34
3.12697E-01 2.44614E-34
3.16749E-01 2.47923E-34
3.20816E-01 2.48644E-34
3.24896E-01 2.47010E-34
3.28990E-01 2.43275E-34
3.33097E-01 2.37707E-34
3.37216E-01 2.30580E-34
3.41348E-01 2.22155E-34
3.45492E-01 2.12687E-34
3.49647E-01 2.02415E-34
3.53814E-01 1.91560E-34
3.57992E-01 1.80320E-34
3.62181E-01 1.68876E-34
3.66381E-01 1.57384E-34
3.70590E-01 1.45982E-34
3.74810E-01 1.34784E-34
3.79039E-01 1.23890E-34
3.83277E-01 1.13377E-34
3.87524E-01 1.03309E-34
3.91780E-01 9.37328E-35
3.96044E-01 8.46834E-35
4.00316E-01 7.61836E-35
4.04596E-01 6.82449E-35
4.08882E-01 6.08714E-35
4.13176E-01 5.40578E-35
4.17476E-01 4.77940E-35
4.21783E-01 4.20642E-35
4.26095E-01 3.68483E-35
4.30413E-01 3.21230E-35
4.34737E-01 2.78623E-35
4.39065E-01 2.40394E-35
4.43398E-01 2.06260E-35
4.47736E-01 1.75933E-35
4.52077E-01 1.49128E-35
4.56422E-01 1.25556E-35
4.60770E-01 1.04946E-35
4.65122E-01 8.70264E-36
4.69476E-01 7.15441E-36
4.73832E-01 5.82559E-36
4.78190E-01 4.69335E-36
4.82550E-01 3.73598E-36
4.86912E-01 2.93376E-36
4.91274E-01 2.26818E-36
4.95637E-01 1.72224E-36
5.00000E-01 1.28048E-36
5.04363E-01 9.28738E-37
5.08726E-01 6.54291E-37
5.13088E-01 4.45635E-37
5.17450E-01 2.92518E-37
5.21810E-01 1.85794E-37
5.26168E-01 1.17394E-37
5.30524E-01 8.01972E-38
5.34878E-01 6.80253E-38
5.39230E-01 7.54681E-38
5.43578E-01 9.78893E-38
5.47923E-01 1.31326E-37
5.52264E-01 1.72459E-37
5.56602E-01 2.18431E-37
5.60935E-01 2.66942E-37
5.65263E-01 3.16027E-37
5.69587E-01 3.64242E-37
5.73905E-01 4.10268E-37
5.78217E-01 4.53267E-37
5.82524E-01 4.92512E-37
5.86824E-01 5.27606E-37
5.91118E-01 5.58163E-37
5.95404E-01 5.84020E-37
5.99684E-01 6.05218E-37
6.03956E-01 6.21739E-37
6.08220E-01 6.33765E-37
6.12476E-01 6.41483E-37
6.16723E-01 6.45176E-37
6.20961E-01 6.45050E-37
6.25190E-01 6.41481E-37
6.29410E-01 6.34793E-37
6.33619E-01 6.25248E-37
6.37819E-01 6.13255E-37
6.42008E-01 5.99012E-37
6.46186E-01 5.82925E-37
6.50353E-01 5.65238E-37
6.54508E-01 5.46277E-37
6.58652E-01 5.26277E-37
6.62784E-01 5.05448E-37
6.66903E-01 4.84076E-37
6.71010E-01 4.62323E-37
6.75104E-01 4.40397E-37
6.79184E-01 4.18416E-37
6.83251E-01 3.96616E-37
6.87303E-01 3.75048E-37
6.91342E-01 3.53836E-37
6.95366E-01 3.33090E-37
6.99375E-01 3.12889E-37
7.03368E-01 2.93317E-37
7.07347E-01 2.74389E-37
7.11309E-01 2.56168E-37
7.15256E-01 2.38685E-37
7.19186E-01 2.21992E-37
7.23099E-01 2.06044E-37
7.26995E-01 1.90906E-37
7.30874E-01 1.76523E-37
7.34736E-01 1.62924E-37
7.38579E-01 1.50118E-37
7.42405E-01 1.38042E-37
7.46212E-01 1.26695E-37
7.50000E-01 1.16072E-37
7.53769E-01 1.06159E-37
7.57519E-01 9.68967E-38
7.61249E-01 8.82815E-38
7.64960E-01 8.02762E-38
7.68650E-01 7.28647E-38
7.72320E-01 6.60099E-38
7.75968E-01 5.96795E-38
7.79596E-01 5.38502E-38
7.83203E-01 4.84823E-38
7.86788E-01 4.35723E-38
7.90351E-01 3.90629E-38
7.93893E-01 3.49460E-38
7.97411E-01 3.11980E-38
8.00908E-01 2.77777E-38
8.04381E-01 2.46785E-38
8.07831E-01 2.18559E-38
8.11257E-01 1.93147E-38
8.14660E-01 1.70094E-38
8.18039E-01 1.49448E-38
8.21394E-01 1.30842E-38
8.24724E-01 1.14182E-38
8.28030E-01 9.92378E-39
8.31310E-01 8.59388E-39
8.34565E-01 7.41118E-39
8.37795E-01 6.36147E-39
8.40999E-01 5.43524E-39
8.44177E-01 4.61743E-39
8.47329E-01 3.90068E-39
8.50455E-01 3.27595E-39
8.53553E-01 2.72919E-39
8.56625E-01 2.25797E-39
8.59670E-01 1.85154E-39
8.62687E-01 1.50371E-39
8.65677E-01 1.20806E-39
8.68639E-01 9.58029E-40
8.71572E-01 7.48092E-40
8.74478E-01 5.74523E-40
8.77355E-01 4.32633E-40
8.80203E-01 3.17396E-40
8.83022E-01 2.26311E-40
8.85812E-01 1.55718E-40
8.88573E-01 1.02900E-40
8.91304E-01 1.00000E-45
8.94005E-01 1.00000E-45
8.96677E-01 1.00000E-45
8.99318E-01 1.00000E-45
9.01928E-01 1.00000E-45
9.04508E-01 1.00000E-45
9.07058E-01 1.00000E-45
9.09576E-01 1.00000E-45
9.12063E-01 1.00000E-45
9.14519E-01 1.00000E-45
9.16943E-01 1.00000E-45
9.19335E-01 1.00000E-45
9.21696E-01 1.00000E-45
9.24024E-01 1.00000E-45
9.26320E-01 1.00000E-45
9.28584E-01 1.00000E-45
9.30815E-01 1.00000E-45
9.33013E-01 1.00000E-45
9.35178E-01 1.00000E-45
9.37310E-01 1.00000E-45
9.39409E-01 1.00000E-45
9.41474E-01 1.00000E-45
9.43505E-01 1.00000E-45
9.45503E-01 1.00000E-45
9.47467E-01 1.00000E-45
9.49397E-01 1.00000E-45
9.51293E-01 1.00000E-45
9.53154E-01 1.00000E-45
9.54981E-01 1.00000E-45
9.56773E-01 1.00000E-45
9.58530E-01 1.00000E-45
9.60252E-01 1.00000E-45
9.61940E-01 1.00000E-45
9.63592E-01 1.00000E-45
9.65209E-01 1.00000E-45
9.66790E-01 1.00000E-45
9.68336E-01 1.00000E-45
9.69846E-01 1.00000E-45
9.71321E-01 1.00000E-45
9.72759E-01 1.00000E-45
9.74162E-01 1.00000E-45
9.75528E-01 1.00000E-45
9.76858E-01 1.00000E-45
9.78152E-01 1.00000E-45
9.79410E-01 1.00000E-45
9.80631E-01 1.00000E-45
9.81815E-01 1.00000E-45
9.82963E-01 1.00000E-45
9.84074E-01 1.00000E-45
9.85148E-01 1.00000E-45
9.86185E-01 1.00000E-45
9.87185E-01 1.00000E-45
9.88148E-01 1.00000E-45
9.89074E-01 1.00000E-45
9.89962E-01 1.00000E-45
9.90814E-01 1.00000E-45
9.91627E-01 1.00000E-45
9.92404E-01 1.00000E-45
9.93143E-01 1.00000E-45
9.93844E-01 1.00000E-45
9.94508E-01 1.00000E-45
9.95134E-01 1.00000E-45
9.95722E-01 1.00000E-45
9.96273E-01 1.00000E-45
9.96786E-01 1.00000E-45
9.97261E-01 1.00000E-45
9.97698E-01 1.00000E-45
9.98097E-01 1.00000E-45
9.98459E-01 1.00000E-45
9.98782E-01 1.00000E-45
9.99067E-01 1.00000E-45
9.99315E-01 1.00000E-45
9.99524E-01 1.00000E-45
9.99695E-01 1.00000E-45
9.99829E-01 1.00000E-45
9.99924E-01 1.00000E-45
9.99981E-01 1.00000E-45
1.00000E+00 1.00000E-45
