 #
 # Subroutine ELSEPA. Elastic scattering of electrons and positrons
 #                    by neutral atoms and positive ions
 #
 # Projectile: positron
 # Kinetic energy = 3.00000E+07 eV = 1.10248E+06 a.u.
 #
 # WARNING: High-energy factorization with free-atom DF screening.
 #          Absorption, polarization and exchange corrections are
 #          switched off.
 #          Phase shifts are calculated for the bare nucleus.
 #          Scattering amplitudes are not evaluated.
 #
 # Element: Al,  Z =  13,  atomic weight = 2.69815E+01 g/mol
 #
 # Nuclear model: Fermi distribution
 #                Average radius = 3.20927E-13 cm
 #                Skin thickness = 5.46000E-14 cm
 #
 # Number of electrons = 13
 #
 # Total elastic cross section = 7.72921E-19 cm**2 = 2.76015E-02 a0**2
 # 1st transport cross section = 3.49087E-25 cm**2 = 1.24661E-08 a0**2
 # 2nd transport cross section = 1.01747E-24 cm**2 = 3.63345E-08 a0**2
 #
 #
 # Differential cross section:                       MU=(1-COS(THETA))/2
 #
 #  THETA        MU          DCS          DCS        Sherman      error
 #  (deg)                 (cm**2/sr)   (a0**2/sr)    function
 #----------------------------------------------------------------------
0.00000E+00 1.23644E-11
7.61557E-13 1.23600E-11
1.18994E-12 1.23575E-11
1.71346E-12 1.23544E-11
2.33225E-12 1.23508E-11
3.04617E-12 1.23467E-11
3.85530E-12 1.23420E-11
4.75964E-12 1.23368E-11
5.75917E-12 1.23310E-11
6.85391E-12 1.23247E-11
8.04379E-12 1.23178E-11
9.32893E-12 1.23104E-11
1.07092E-11 1.23025E-11
1.21847E-11 1.22940E-11
1.37554E-11 1.22850E-11
1.54213E-11 1.22754E-11
1.71823E-11 1.22654E-11
1.90386E-11 1.22547E-11
2.09900E-11 1.22436E-11
2.30367E-11 1.22319E-11
2.51785E-11 1.22197E-11
2.74156E-11 1.22070E-11
2.97478E-11 1.21938E-11
3.21752E-11 1.21800E-11
3.46979E-11 1.21657E-11
3.73157E-11 1.21510E-11
4.00286E-11 1.21357E-11
4.28368E-11 1.21198E-11
4.57402E-11 1.21035E-11
4.87388E-11 1.20867E-11
5.18325E-11 1.20694E-11
5.50215E-11 1.20516E-11
5.83057E-11 1.20333E-11
6.16850E-11 1.20146E-11
6.51595E-11 1.19953E-11
6.87293E-11 1.19756E-11
7.23943E-11 1.19554E-11
7.61544E-11 1.19347E-11
1.18991E-10 1.17026E-11
1.71347E-10 1.14278E-11
2.33223E-10 1.11151E-11
3.04617E-10 1.07695E-11
3.85531E-10 1.03965E-11
4.75965E-10 1.00015E-11
5.75917E-10 9.59002E-12
6.85389E-10 9.16718E-12
8.04380E-10 8.73788E-12
9.32891E-10 8.30657E-12
1.07092E-09 7.87723E-12
1.21847E-09 7.45346E-12
1.37554E-09 7.03828E-12
1.54213E-09 6.63422E-12
1.71823E-09 6.24176E-12
1.90386E-09 5.86275E-12
2.09900E-09 5.50188E-12
2.30367E-09 5.15957E-12
2.51785E-09 4.83594E-12
2.74156E-09 4.52656E-12
2.97478E-09 4.23398E-12
3.21752E-09 3.95963E-12
3.46978E-09 3.70286E-12
3.73156E-09 3.46283E-12
4.00286E-09 3.23633E-12
4.28368E-09 3.02527E-12
4.57402E-09 2.82878E-12
4.87388E-09 2.64598E-12
5.18326E-09 2.47583E-12
5.50215E-09 2.31738E-12
5.83057E-09 2.17017E-12
6.16850E-09 2.03344E-12
6.51596E-09 1.90643E-12
6.87293E-09 1.78879E-12
7.23942E-09 1.67962E-12
7.61544E-09 1.57817E-12
1.18991E-08 8.87000E-13
1.71347E-08 5.45023E-13
2.33223E-08 3.62494E-13
3.04617E-08 2.56246E-13
3.85531E-08 1.89231E-13
4.75965E-08 1.44076E-13
5.75917E-08 1.12073E-13
6.85389E-08 8.85365E-14
8.04380E-08 7.07572E-14
9.32891E-08 5.70640E-14
1.07092E-07 4.63671E-14
1.21847E-07 3.79386E-14
1.37554E-07 3.12412E-14
1.54213E-07 2.58813E-14
1.71823E-07 2.15365E-14
1.90386E-07 1.80389E-14
2.09900E-07 1.52044E-14
2.30367E-07 1.28806E-14
2.51785E-07 1.09656E-14
2.74156E-07 9.38729E-15
2.97478E-07 8.06923E-15
3.21752E-07 6.97495E-15
3.46978E-07 6.05098E-15
3.73156E-07 5.27690E-15
4.00286E-07 4.61778E-15
4.28368E-07 4.05965E-15
4.57402E-07 3.58154E-15
4.87388E-07 3.17230E-15
5.18325E-07 2.81939E-15
5.50215E-07 2.51449E-15
5.83057E-07 2.24975E-15
6.16850E-07 2.01913E-15
6.51596E-07 1.81754E-15
6.87293E-07 1.64062E-15
7.23942E-07 1.48497E-15
7.61543E-07 1.34745E-15
1.18991E-06 5.73502E-16
1.71347E-06 2.85868E-16
2.33223E-06 1.58480E-16
3.04617E-06 9.48366E-17
3.85531E-06 6.01340E-17
4.75964E-06 3.99160E-17
5.75916E-06 2.75019E-17
6.85388E-06 1.95454E-17
8.04378E-06 1.42608E-17
9.32888E-06 1.06425E-17
1.07092E-05 8.09926E-18
1.21846E-05 6.27055E-18
1.37553E-05 4.92890E-18
1.54212E-05 3.92695E-18
1.71822E-05 3.16668E-18
1.90385E-05 2.58147E-18
2.09899E-05 2.12532E-18
2.30365E-05 1.76547E-18
2.51783E-05 1.47857E-18
2.74153E-05 1.24757E-18
2.97475E-05 1.05992E-18
3.21749E-05 9.06234E-19
3.46974E-05 7.79399E-19
3.73152E-05 6.73985E-19
4.00281E-05 5.85797E-19
4.28362E-05 5.11566E-19
4.57395E-05 4.48722E-19
4.87380E-05 3.95232E-19
5.18317E-05 3.49475E-19
5.50205E-05 3.10147E-19
5.83045E-05 2.76197E-19
6.16838E-05 2.46765E-19
6.51582E-05 2.21150E-19
6.87277E-05 1.98773E-19
7.23925E-05 1.79155E-19
7.61524E-05 1.61896E-19
9.21439E-05 1.10566E-19
1.09658E-04 7.80543E-20
1.28695E-04 5.66577E-20
1.49255E-04 4.21127E-20
1.71338E-04 3.19488E-20
1.94942E-04 2.46736E-20
2.20070E-04 1.93557E-20
2.46720E-04 1.53960E-20
2.74892E-04 1.23986E-20
3.04586E-04 1.00962E-20
3.35803E-04 8.30411E-21
3.68542E-04 6.89240E-21
4.02802E-04 5.76820E-21
4.38585E-04 4.86404E-21
4.75889E-04 4.13021E-21
5.14715E-04 3.52962E-21
5.55063E-04 3.03429E-21
5.96931E-04 2.62282E-21
6.40321E-04 2.27876E-21
6.85233E-04 1.98927E-21
7.31665E-04 1.74430E-21
7.79618E-04 1.53588E-21
8.29092E-04 1.35766E-21
8.80086E-04 1.20453E-21
9.32601E-04 1.07238E-21
9.86636E-04 9.57856E-22
1.04219E-03 8.58205E-22
1.09927E-03 7.71172E-22
1.15786E-03 6.94888E-22
1.21797E-03 6.27798E-22
1.27961E-03 5.68606E-22
1.34276E-03 5.16223E-22
1.40743E-03 4.69729E-22
1.47362E-03 4.28348E-22
1.54133E-03 3.91420E-22
1.61056E-03 3.58384E-22
1.68131E-03 3.28756E-22
1.75357E-03 3.02125E-22
1.82735E-03 2.78133E-22
1.90265E-03 2.56473E-22
1.97947E-03 2.36879E-22
2.05780E-03 2.19119E-22
2.13765E-03 2.02990E-22
2.21902E-03 1.88316E-22
2.30190E-03 1.74943E-22
2.38630E-03 1.62734E-22
2.47222E-03 1.51571E-22
2.55965E-03 1.41347E-22
2.64859E-03 1.31970E-22
2.73905E-03 1.23356E-22
2.83103E-03 1.15433E-22
2.92452E-03 1.08135E-22
3.01952E-03 1.01403E-22
3.11604E-03 9.51868E-23
3.21407E-03 8.94387E-23
3.31362E-03 8.41173E-23
3.41468E-03 7.91852E-23
3.51725E-03 7.46086E-23
3.62133E-03 7.03574E-23
3.72692E-03 6.64042E-23
3.83403E-03 6.27242E-23
3.94265E-03 5.92952E-23
4.05278E-03 5.60969E-23
4.16442E-03 5.31109E-23
4.27757E-03 5.03206E-23
4.39223E-03 4.77108E-23
4.50840E-03 4.52676E-23
4.62608E-03 4.29785E-23
4.74527E-03 4.08320E-23
4.86597E-03 3.88176E-23
4.98817E-03 3.69256E-23
5.11188E-03 3.51472E-23
5.23711E-03 3.34744E-23
5.36383E-03 3.18996E-23
5.49207E-03 3.04162E-23
5.62181E-03 2.90178E-23
5.75306E-03 2.76987E-23
5.88581E-03 2.64535E-23
6.02007E-03 2.52773E-23
6.15583E-03 2.41656E-23
6.29310E-03 2.31142E-23
6.43187E-03 2.21192E-23
6.57214E-03 2.11770E-23
6.71392E-03 2.02844E-23
6.85720E-03 1.94381E-23
7.00198E-03 1.86354E-23
7.14827E-03 1.78736E-23
7.29605E-03 1.71502E-23
7.44534E-03 1.64630E-23
7.59612E-03 1.58097E-23
7.97965E-03 1.43124E-23
8.37255E-03 1.29878E-23
8.77480E-03 1.18125E-23
9.18641E-03 1.07668E-23
9.60736E-03 9.83390E-24
1.00376E-02 8.99958E-24
1.04773E-02 8.25161E-24
1.09262E-02 7.57949E-24
1.13844E-02 6.97419E-24
1.18520E-02 6.42791E-24
1.23288E-02 5.93389E-24
1.28150E-02 5.48625E-24
1.33104E-02 5.07986E-24
1.38150E-02 4.71027E-24
1.43290E-02 4.37355E-24
1.48521E-02 4.06626E-24
1.53845E-02 3.78537E-24
1.59262E-02 3.52821E-24
1.64770E-02 3.29243E-24
1.70371E-02 3.07592E-24
1.76063E-02 2.87683E-24
1.81848E-02 2.69351E-24
1.87724E-02 2.52450E-24
1.93692E-02 2.36846E-24
1.99751E-02 2.22423E-24
2.05901E-02 2.09076E-24
2.12143E-02 1.96709E-24
2.18476E-02 1.85238E-24
2.24900E-02 1.74586E-24
2.31415E-02 1.64685E-24
2.38021E-02 1.55471E-24
2.44717E-02 1.46889E-24
2.51504E-02 1.38887E-24
2.58382E-02 1.31419E-24
2.65349E-02 1.24443E-24
2.72407E-02 1.17920E-24
2.79555E-02 1.11817E-24
2.86793E-02 1.06100E-24
2.94120E-02 1.00742E-24
3.01537E-02 9.57149E-25
3.09043E-02 9.09953E-25
3.16639E-02 8.65609E-25
3.24324E-02 8.23912E-25
3.32098E-02 7.84676E-25
3.39961E-02 7.47729E-25
3.47912E-02 7.12914E-25
3.55952E-02 6.80085E-25
3.64081E-02 6.49107E-25
3.72297E-02 6.19858E-25
3.80602E-02 5.92224E-25
3.88995E-02 5.66098E-25
3.97476E-02 5.41385E-25
4.06044E-02 5.17992E-25
4.14700E-02 4.95838E-25
4.23443E-02 4.74844E-25
4.32273E-02 4.54939E-25
4.41190E-02 4.36055E-25
4.50194E-02 4.18131E-25
4.59284E-02 4.01110E-25
4.68461E-02 3.84936E-25
4.87074E-02 3.54937E-25
5.06030E-02 3.27775E-25
5.25328E-02 3.03134E-25
5.44967E-02 2.80740E-25
5.64946E-02 2.60352E-25
5.85262E-02 2.41760E-25
6.05914E-02 2.24779E-25
6.26901E-02 2.09244E-25
6.48222E-02 1.95011E-25
6.69873E-02 1.81951E-25
6.91854E-02 1.69952E-25
7.14163E-02 1.58912E-25
7.36799E-02 1.48741E-25
7.59760E-02 1.39359E-25
7.83043E-02 1.30694E-25
8.06647E-02 1.22681E-25
8.30571E-02 1.15263E-25
8.54812E-02 1.08388E-25
8.79369E-02 1.02010E-25
9.04240E-02 9.60855E-26
9.29422E-02 9.05774E-26
9.54915E-02 8.54511E-26
9.80716E-02 8.06757E-26
1.00682E-01 7.62228E-26
1.03323E-01 7.20668E-26
1.05995E-01 6.81846E-26
1.08696E-01 6.45549E-26
1.11427E-01 6.11585E-26
1.14188E-01 5.79777E-26
1.16978E-01 5.49964E-26
1.19797E-01 5.22000E-26
1.22645E-01 4.95750E-26
1.25522E-01 4.71090E-26
1.28428E-01 4.47907E-26
1.31361E-01 4.26098E-26
1.34323E-01 4.05567E-26
1.37313E-01 3.86226E-26
1.40330E-01 3.67993E-26
1.43375E-01 3.50796E-26
1.46447E-01 3.34563E-26
1.49545E-01 3.19232E-26
1.52671E-01 3.04745E-26
1.55823E-01 2.91046E-26
1.59001E-01 2.78085E-26
1.62205E-01 2.65816E-26
1.65435E-01 2.54195E-26
1.68690E-01 2.43183E-26
1.71970E-01 2.32741E-26
1.75276E-01 2.22835E-26
1.78606E-01 2.13433E-26
1.81961E-01 2.04505E-26
1.85340E-01 1.96023E-26
1.88743E-01 1.87961E-26
1.92169E-01 1.80294E-26
1.95619E-01 1.72999E-26
1.99092E-01 1.66056E-26
2.02589E-01 1.59445E-26
2.06107E-01 1.53146E-26
2.09649E-01 1.47144E-26
2.13212E-01 1.41421E-26
2.16797E-01 1.35962E-26
2.20404E-01 1.30753E-26
2.24032E-01 1.25781E-26
2.27680E-01 1.21032E-26
2.31350E-01 1.16496E-26
2.35040E-01 1.12161E-26
2.38751E-01 1.08017E-26
2.42481E-01 1.04053E-26
2.46231E-01 1.00262E-26
2.50000E-01 9.66330E-27
2.53788E-01 9.31590E-27
2.57595E-01 8.98321E-27
2.61421E-01 8.66450E-27
2.65264E-01 8.35909E-27
2.69126E-01 8.06633E-27
2.73005E-01 7.78561E-27
2.76901E-01 7.51634E-27
2.80814E-01 7.25800E-27
2.84744E-01 7.01005E-27
2.88691E-01 6.77201E-27
2.92653E-01 6.54342E-27
2.96632E-01 6.32384E-27
3.00625E-01 6.11286E-27
3.04634E-01 5.91009E-27
3.08658E-01 5.71516E-27
3.12697E-01 5.52770E-27
3.16749E-01 5.34740E-27
3.20816E-01 5.17393E-27
3.24896E-01 5.00699E-27
3.28990E-01 4.84629E-27
3.33097E-01 4.69157E-27
3.37216E-01 4.54256E-27
3.41348E-01 4.39902E-27
3.45492E-01 4.26072E-27
3.49647E-01 4.12744E-27
3.53814E-01 3.99896E-27
3.57992E-01 3.87508E-27
3.62181E-01 3.75562E-27
3.66381E-01 3.64039E-27
3.70590E-01 3.52921E-27
3.74810E-01 3.42193E-27
3.79039E-01 3.31837E-27
3.83277E-01 3.21841E-27
3.87524E-01 3.12188E-27
3.91780E-01 3.02865E-27
3.96044E-01 2.93860E-27
4.00316E-01 2.85159E-27
4.04596E-01 2.76751E-27
4.08882E-01 2.68624E-27
4.13176E-01 2.60769E-27
4.17476E-01 2.53173E-27
4.21783E-01 2.45827E-27
4.26095E-01 2.38722E-27
4.30413E-01 2.31849E-27
4.34737E-01 2.25199E-27
4.39065E-01 2.18763E-27
4.43398E-01 2.12534E-27
4.47736E-01 2.06503E-27
4.52077E-01 2.00665E-27
4.56422E-01 1.95011E-27
4.60770E-01 1.89535E-27
4.65122E-01 1.84230E-27
4.69476E-01 1.79091E-27
4.73832E-01 1.74111E-27
4.78190E-01 1.69285E-27
4.82550E-01 1.64607E-27
4.86912E-01 1.60073E-27
4.91274E-01 1.55676E-27
4.95637E-01 1.51412E-27
5.00000E-01 1.47277E-27
5.04363E-01 1.43267E-27
5.08726E-01 1.39376E-27
5.13088E-01 1.35601E-27
5.17450E-01 1.31937E-27
5.21810E-01 1.28382E-27
5.26168E-01 1.24931E-27
5.30524E-01 1.21581E-27
5.34878E-01 1.18329E-27
5.39230E-01 1.15171E-27
5.43578E-01 1.12104E-27
5.47923E-01 1.09126E-27
5.52264E-01 1.06232E-27
5.56602E-01 1.03421E-27
5.60935E-01 1.00690E-27
5.65263E-01 9.80366E-28
5.69587E-01 9.54576E-28
5.73905E-01 9.29510E-28
5.78217E-01 9.05144E-28
5.82524E-01 8.81457E-28
5.86824E-01 8.58427E-28
5.91118E-01 8.36034E-28
5.95404E-01 8.14257E-28
5.99684E-01 7.93077E-28
6.03956E-01 7.72476E-28
6.08220E-01 7.52436E-28
6.12476E-01 7.32940E-28
6.16723E-01 7.13970E-28
6.20961E-01 6.95511E-28
6.25190E-01 6.77548E-28
6.29410E-01 6.60065E-28
6.33619E-01 6.43048E-28
6.37819E-01 6.26483E-28
6.42008E-01 6.10356E-28
6.46186E-01 5.94655E-28
6.50353E-01 5.79366E-28
6.54508E-01 5.64478E-28
6.58652E-01 5.49979E-28
6.62784E-01 5.35857E-28
6.66903E-01 5.22102E-28
6.71010E-01 5.08703E-28
6.75104E-01 4.95649E-28
6.79184E-01 4.82931E-28
6.83251E-01 4.70538E-28
6.87303E-01 4.58463E-28
6.91342E-01 4.46695E-28
6.95366E-01 4.35226E-28
6.99375E-01 4.24047E-28
7.03368E-01 4.13151E-28
7.07347E-01 4.02529E-28
7.11309E-01 3.92174E-28
7.15256E-01 3.82079E-28
7.19186E-01 3.72235E-28
7.23099E-01 3.62637E-28
7.26995E-01 3.53277E-28
7.30874E-01 3.44149E-28
7.34736E-01 3.35247E-28
7.38579E-01 3.26565E-28
7.42405E-01 3.18096E-28
7.46212E-01 3.09834E-28
7.50000E-01 3.01776E-28
7.53769E-01 2.93913E-28
7.57519E-01 2.86243E-28
7.61249E-01 2.78759E-28
7.64960E-01 2.71457E-28
7.68650E-01 2.64331E-28
7.72320E-01 2.57378E-28
7.75968E-01 2.50592E-28
7.79596E-01 2.43970E-28
7.83203E-01 2.37507E-28
7.86788E-01 2.31198E-28
7.90351E-01 2.25041E-28
7.93893E-01 2.19031E-28
7.97411E-01 2.13164E-28
8.00908E-01 2.07437E-28
8.04381E-01 2.01846E-28
8.07831E-01 1.96388E-28
8.11257E-01 1.91060E-28
8.14660E-01 1.85857E-28
8.18039E-01 1.80778E-28
8.21394E-01 1.75818E-28
8.24724E-01 1.70976E-28
8.28030E-01 1.66248E-28
8.31310E-01 1.61631E-28
8.34565E-01 1.57123E-28
8.37795E-01 1.52721E-28
8.40999E-01 1.48422E-28
8.44177E-01 1.44224E-28
8.47329E-01 1.40125E-28
8.50455E-01 1.36122E-28
8.53553E-01 1.32212E-28
8.56625E-01 1.28395E-28
8.59670E-01 1.24667E-28
8.62687E-01 1.21026E-28
8.65677E-01 1.17471E-28
8.68639E-01 1.13999E-28
8.71572E-01 1.10609E-28
8.74478E-01 1.07298E-28
8.77355E-01 1.04065E-28
8.80203E-01 1.00908E-28
8.83022E-01 9.78256E-29
8.85812E-01 9.48155E-29
8.88573E-01 9.18765E-29
8.91304E-01 8.90068E-29
8.94005E-01 8.62050E-29
8.96677E-01 8.34696E-29
8.99318E-01 8.07991E-29
9.01928E-01 7.81922E-29
9.04508E-01 7.56473E-29
9.07058E-01 7.31633E-29
9.09576E-01 7.07388E-29
9.12063E-01 6.83725E-29
9.14519E-01 6.60632E-29
9.16943E-01 6.38098E-29
9.19335E-01 6.16111E-29
9.21696E-01 5.94658E-29
9.24024E-01 5.73730E-29
9.26320E-01 5.53316E-29
9.28584E-01 5.33406E-29
9.30815E-01 5.13989E-29
9.33013E-01 4.95055E-29
9.35178E-01 4.76595E-29
9.37310E-01 4.58601E-29
9.39409E-01 4.41062E-29
9.41474E-01 4.23970E-29
9.43505E-01 4.07318E-29
9.45503E-01 3.91095E-29
9.47467E-01 3.75295E-29
9.49397E-01 3.59910E-29
9.51293E-01 3.44932E-29
9.53154E-01 3.30355E-29
9.54981E-01 3.16169E-29
9.56773E-01 3.02370E-29
9.58530E-01 2.88951E-29
9.60252E-01 2.75904E-29
9.61940E-01 2.63223E-29
9.63592E-01 2.50903E-29
9.65209E-01 2.38938E-29
9.66790E-01 2.27322E-29
9.68336E-01 2.16048E-29
9.69846E-01 2.05113E-29
9.71321E-01 1.94511E-29
9.72759E-01 1.84237E-29
9.74162E-01 1.74285E-29
9.75528E-01 1.64652E-29
9.76858E-01 1.55332E-29
9.78152E-01 1.46322E-29
9.79410E-01 1.37617E-29
9.80631E-01 1.29214E-29
9.81815E-01 1.21107E-29
9.82963E-01 1.13294E-29
9.84074E-01 1.05771E-29
9.85148E-01 9.85340E-30
9.86185E-01 9.15801E-30
9.87185E-01 8.49060E-30
9.88148E-01 7.85086E-30
9.89074E-01 7.23850E-30
9.89962E-01 6.65323E-30
9.90814E-01 6.09479E-30
9.91627E-01 5.56292E-30
9.92404E-01 5.05738E-30
9.93143E-01 4.57794E-30
9.93844E-01 4.12438E-30
9.94508E-01 3.69649E-30
9.95134E-01 3.29408E-30
9.95722E-01 2.91696E-30
9.96273E-01 2.56496E-30
9.96786E-01 2.23793E-30
9.97261E-01 1.93571E-30
9.97698E-01 1.65817E-30
9.98097E-01 1.40519E-30
9.98459E-01 1.17664E-30
9.98782E-01 9.72419E-31
9.99067E-01 7.92444E-31
9.99315E-01 6.36631E-31
9.99524E-01 5.04907E-31
9.99695E-01 3.97215E-31
9.99829E-01 3.13504E-31
9.99924E-01 2.53737E-31
9.99981E-01 2.17888E-31
1.00000E+00 2.05940E-31
