 #
 # Subroutine ELSEPA. Elastic scattering of electrons and positrons
 #                    by neutral atoms and positive ions
 #
 # Projectile: positron
 # Kinetic energy = 6.00000E+06 eV = 2.20496E+05 a.u.
 #
 # WARNING: High-energy factorization with free-atom DF screening.
 #          Absorption, polarization and exchange corrections are
 #          switched off.
 #          Phase shifts are calculated for the bare nucleus.
 #          Scattering amplitudes are not evaluated.
 #
 # Element: Al,  Z =  13,  atomic weight = 2.69815E+01 g/mol
 #
 # Nuclear model: Fermi distribution
 #                Average radius = 3.20927E-13 cm
 #                Skin thickness = 5.46000E-14 cm
 #
 # Number of electrons = 13
 #
 # Total elastic cross section = 7.76914E-19 cm**2 = 2.77441E-02 a0**2
 # 1st transport cross section = 6.19141E-24 cm**2 = 2.21099E-07 a0**2
 # 2nd transport cross section = 1.78500E-23 cm**2 = 6.37435E-07 a0**2
 #
 #
 # Differential cross section:                       MU=(1-COS(THETA))/2
 #
 #  THETA        MU          DCS          DCS        Sherman      error
 #  (deg)                 (cm**2/sr)   (a0**2/sr)    function
 #----------------------------------------------------------------------
0.00000E+00 5.63062E-13
7.61557E-13 5.63052E-13
1.18994E-12 5.63047E-13
1.71346E-12 5.63041E-13
2.33225E-12 5.63033E-13
3.04617E-12 5.63024E-13
3.85530E-12 5.63015E-13
4.75964E-12 5.63004E-13
5.75917E-12 5.62992E-13
6.85391E-12 5.62978E-13
8.04379E-12 5.62964E-13
9.32893E-12 5.62948E-13
1.07092E-11 5.62932E-13
1.21847E-11 5.62914E-13
1.37554E-11 5.62895E-13
1.54213E-11 5.62875E-13
1.71823E-11 5.62854E-13
1.90386E-11 5.62832E-13
2.09900E-11 5.62808E-13
2.30367E-11 5.62784E-13
2.51785E-11 5.62758E-13
2.74156E-11 5.62731E-13
2.97478E-11 5.62703E-13
3.21752E-11 5.62674E-13
3.46979E-11 5.62644E-13
3.73157E-11 5.62613E-13
4.00286E-11 5.62580E-13
4.28368E-11 5.62546E-13
4.57402E-11 5.62512E-13
4.87388E-11 5.62476E-13
5.18325E-11 5.62439E-13
5.50215E-11 5.62401E-13
5.83057E-11 5.62361E-13
6.16850E-11 5.62321E-13
6.51595E-11 5.62279E-13
6.87293E-11 5.62237E-13
7.23943E-11 5.62193E-13
7.61544E-11 5.62148E-13
1.18991E-10 5.61637E-13
1.71347E-10 5.61014E-13
2.33223E-10 5.60279E-13
3.04617E-10 5.59434E-13
3.85531E-10 5.58478E-13
4.75965E-10 5.57412E-13
5.75917E-10 5.56238E-13
6.85389E-10 5.54956E-13
8.04380E-10 5.53569E-13
9.32891E-10 5.52075E-13
1.07092E-09 5.50478E-13
1.21847E-09 5.48778E-13
1.37554E-09 5.46977E-13
1.54213E-09 5.45077E-13
1.71823E-09 5.43078E-13
1.90386E-09 5.40983E-13
2.09900E-09 5.38793E-13
2.30367E-09 5.36511E-13
2.51785E-09 5.34136E-13
2.74156E-09 5.31675E-13
2.97478E-09 5.29123E-13
3.21752E-09 5.26489E-13
3.46978E-09 5.23770E-13
3.73156E-09 5.20971E-13
4.00286E-09 5.18093E-13
4.28368E-09 5.15138E-13
4.57402E-09 5.12110E-13
4.87388E-09 5.09008E-13
5.18326E-09 5.05839E-13
5.50215E-09 5.02599E-13
5.83057E-09 4.99297E-13
6.16850E-09 4.95929E-13
6.51596E-09 4.92504E-13
6.87293E-09 4.89018E-13
7.23942E-09 4.85479E-13
7.61544E-09 4.81885E-13
1.18991E-08 4.43555E-13
1.71347E-08 4.02486E-13
2.33223E-08 3.60774E-13
3.04617E-08 3.20100E-13
3.85531E-08 2.81602E-13
4.75965E-08 2.46134E-13
5.75917E-08 2.14459E-13
6.85389E-08 1.86046E-13
8.04380E-08 1.61317E-13
9.32891E-08 1.39740E-13
1.07092E-07 1.21166E-13
1.21847E-07 1.05223E-13
1.37554E-07 9.15738E-14
1.54213E-07 7.99295E-14
1.71823E-07 6.99926E-14
1.90386E-07 6.15051E-14
2.09900E-07 5.42720E-14
2.30367E-07 4.80583E-14
2.51785E-07 4.27599E-14
2.74156E-07 3.81771E-14
2.97478E-07 3.42479E-14
3.21752E-07 3.08322E-14
3.46978E-07 2.78745E-14
3.73156E-07 2.52924E-14
4.00286E-07 2.30334E-14
4.28368E-07 2.10504E-14
4.57402E-07 1.92992E-14
4.87388E-07 1.77509E-14
5.18325E-07 1.63733E-14
5.50215E-07 1.51442E-14
5.83057E-07 1.40446E-14
6.16850E-07 1.30533E-14
6.51596E-07 1.21616E-14
6.87293E-07 1.13515E-14
7.23942E-07 1.06178E-14
7.61543E-07 9.94772E-15
1.18991E-06 5.57703E-15
1.71347E-06 3.39094E-15
2.33223E-06 2.15729E-15
3.04617E-06 1.41627E-15
3.85531E-06 9.54055E-16
4.75964E-06 6.60384E-16
5.75916E-06 4.68250E-16
6.85388E-06 3.39567E-16
8.04378E-06 2.51448E-16
9.32888E-06 1.89822E-16
1.07092E-05 1.45829E-16
1.21846E-05 1.13861E-16
1.37553E-05 9.02163E-17
1.54212E-05 7.24364E-17
1.71822E-05 5.88616E-17
1.90385E-05 4.83501E-17
2.09899E-05 4.01087E-17
2.30365E-05 3.35675E-17
2.51783E-05 2.83199E-17
2.74153E-05 2.40687E-17
2.97475E-05 2.05932E-17
3.21749E-05 1.77282E-17
3.46974E-05 1.53485E-17
3.73152E-05 1.33577E-17
4.00281E-05 1.16809E-17
4.28362E-05 1.02603E-17
4.57395E-05 9.05007E-18
4.87380E-05 8.01358E-18
5.18317E-05 7.12156E-18
5.50205E-05 6.35039E-18
5.83045E-05 5.68085E-18
6.16838E-05 5.09712E-18
6.51582E-05 4.58635E-18
6.87277E-05 4.13791E-18
7.23925E-05 3.74286E-18
7.61524E-05 3.39373E-18
9.21439E-05 2.34473E-18
1.09658E-04 1.67035E-18
1.28695E-04 1.22114E-18
1.49255E-04 9.12777E-19
1.71338E-04 6.95559E-19
1.94942E-04 5.39073E-19
2.20070E-04 4.24083E-19
2.46720E-04 3.38096E-19
2.74892E-04 2.72779E-19
3.04586E-04 2.22461E-19
3.35803E-04 1.83201E-19
3.68542E-04 1.52213E-19
4.02802E-04 1.27496E-19
4.38585E-04 1.07589E-19
4.75889E-04 9.14130E-20
5.14715E-04 7.81609E-20
5.55063E-04 6.72219E-20
5.96931E-04 5.81285E-20
6.40321E-04 5.05199E-20
6.85233E-04 4.41146E-20
7.31665E-04 3.86917E-20
7.79618E-04 3.40761E-20
8.29092E-04 3.01277E-20
8.80086E-04 2.67344E-20
9.32601E-04 2.38050E-20
9.86636E-04 2.12656E-20
1.04219E-03 1.90556E-20
1.09927E-03 1.71250E-20
1.15786E-03 1.54326E-20
1.21797E-03 1.39439E-20
1.27961E-03 1.26303E-20
1.34276E-03 1.14676E-20
1.40743E-03 1.04355E-20
1.47362E-03 9.51687E-21
1.54133E-03 8.69698E-21
1.61056E-03 7.96341E-21
1.68131E-03 7.30549E-21
1.75357E-03 6.71405E-21
1.82735E-03 6.18120E-21
1.90265E-03 5.70011E-21
1.97947E-03 5.26487E-21
2.05780E-03 4.87034E-21
2.13765E-03 4.51204E-21
2.21902E-03 4.18604E-21
2.30190E-03 3.88893E-21
2.38630E-03 3.61768E-21
2.47222E-03 3.36964E-21
2.55965E-03 3.14247E-21
2.64859E-03 2.93408E-21
2.73905E-03 2.74264E-21
2.83103E-03 2.56655E-21
2.92452E-03 2.40434E-21
3.01952E-03 2.25473E-21
3.11604E-03 2.11656E-21
3.21407E-03 1.98879E-21
3.31362E-03 1.87052E-21
3.41468E-03 1.76089E-21
3.51725E-03 1.65916E-21
3.62133E-03 1.56466E-21
3.72692E-03 1.47679E-21
3.83403E-03 1.39499E-21
3.94265E-03 1.31876E-21
4.05278E-03 1.24767E-21
4.16442E-03 1.18129E-21
4.27757E-03 1.11926E-21
4.39223E-03 1.06124E-21
4.50840E-03 1.00693E-21
4.62608E-03 9.56041E-22
4.74527E-03 9.08321E-22
4.86597E-03 8.63536E-22
4.98817E-03 8.21473E-22
5.11188E-03 7.81934E-22
5.23711E-03 7.44742E-22
5.36383E-03 7.09731E-22
5.49207E-03 6.76749E-22
5.62181E-03 6.45657E-22
5.75306E-03 6.16326E-22
5.88581E-03 5.88639E-22
6.02007E-03 5.62486E-22
6.15583E-03 5.37767E-22
6.29310E-03 5.14388E-22
6.43187E-03 4.92263E-22
6.57214E-03 4.71312E-22
6.71392E-03 4.51461E-22
6.85720E-03 4.32642E-22
7.00198E-03 4.14792E-22
7.14827E-03 3.97850E-22
7.29605E-03 3.81763E-22
7.44534E-03 3.66479E-22
7.59612E-03 3.51950E-22
7.97965E-03 3.18650E-22
8.37255E-03 2.89188E-22
8.77480E-03 2.63045E-22
9.18641E-03 2.39784E-22
9.60736E-03 2.19032E-22
1.00376E-02 2.00472E-22
1.04773E-02 1.83831E-22
1.09262E-02 1.68877E-22
1.13844E-02 1.55409E-22
1.18520E-02 1.43253E-22
1.23288E-02 1.32259E-22
1.28150E-02 1.22297E-22
1.33104E-02 1.13253E-22
1.38150E-02 1.05027E-22
1.43290E-02 9.75316E-23
1.48521E-02 9.06911E-23
1.53845E-02 8.44380E-23
1.59262E-02 7.87128E-23
1.64770E-02 7.34630E-23
1.70371E-02 6.86421E-23
1.76063E-02 6.42087E-23
1.81848E-02 6.01263E-23
1.87724E-02 5.63619E-23
1.93692E-02 5.28865E-23
1.99751E-02 4.96737E-23
2.05901E-02 4.67003E-23
2.12143E-02 4.39451E-23
2.18476E-02 4.13893E-23
2.24900E-02 3.90158E-23
2.31415E-02 3.68093E-23
2.38021E-02 3.47559E-23
2.44717E-02 3.28430E-23
2.51504E-02 3.10593E-23
2.58382E-02 2.93946E-23
2.65349E-02 2.78393E-23
2.72407E-02 2.63850E-23
2.79555E-02 2.50240E-23
2.86793E-02 2.37492E-23
2.94120E-02 2.25541E-23
3.01537E-02 2.14328E-23
3.09043E-02 2.03800E-23
3.16639E-02 1.93907E-23
3.24324E-02 1.84604E-23
3.32098E-02 1.75848E-23
3.39961E-02 1.67603E-23
3.47912E-02 1.59832E-23
3.55952E-02 1.52504E-23
3.64081E-02 1.45589E-23
3.72297E-02 1.39059E-23
3.80602E-02 1.32888E-23
3.88995E-02 1.27054E-23
3.97476E-02 1.21534E-23
4.06044E-02 1.16309E-23
4.14700E-02 1.11360E-23
4.23443E-02 1.06670E-23
4.32273E-02 1.02222E-23
4.41190E-02 9.80020E-24
4.50194E-02 9.39959E-24
4.59284E-02 9.01910E-24
4.68461E-02 8.65753E-24
4.87074E-02 7.98676E-24
5.06030E-02 7.37925E-24
5.25328E-02 6.82798E-24
5.44967E-02 6.32685E-24
5.64946E-02 5.87049E-24
5.85262E-02 5.45421E-24
6.05914E-02 5.07388E-24
6.26901E-02 4.72584E-24
6.48222E-02 4.40687E-24
6.69873E-02 4.11412E-24
6.91854E-02 3.84505E-24
7.14163E-02 3.59741E-24
7.36799E-02 3.36919E-24
7.59760E-02 3.15861E-24
7.83043E-02 2.96404E-24
8.06647E-02 2.78407E-24
8.30571E-02 2.61740E-24
8.54812E-02 2.46288E-24
8.79369E-02 2.31947E-24
9.04240E-02 2.18621E-24
9.29422E-02 2.06228E-24
9.54915E-02 1.94689E-24
9.80716E-02 1.83936E-24
1.00682E-01 1.73905E-24
1.03323E-01 1.64539E-24
1.05995E-01 1.55787E-24
1.08696E-01 1.47601E-24
1.11427E-01 1.39938E-24
1.14188E-01 1.32758E-24
1.16978E-01 1.26026E-24
1.19797E-01 1.19709E-24
1.22645E-01 1.13776E-24
1.25522E-01 1.08200E-24
1.28428E-01 1.02956E-24
1.31361E-01 9.80204E-25
1.34323E-01 9.33719E-25
1.37313E-01 8.89908E-25
1.40330E-01 8.48589E-25
1.43375E-01 8.09596E-25
1.46447E-01 7.72774E-25
1.49545E-01 7.37981E-25
1.52671E-01 7.05085E-25
1.55823E-01 6.73965E-25
1.59001E-01 6.44506E-25
1.62205E-01 6.16606E-25
1.65435E-01 5.90166E-25
1.68690E-01 5.65096E-25
1.71970E-01 5.41313E-25
1.75276E-01 5.18740E-25
1.78606E-01 4.97302E-25
1.81961E-01 4.76934E-25
1.85340E-01 4.57573E-25
1.88743E-01 4.39159E-25
1.92169E-01 4.21638E-25
1.95619E-01 4.04959E-25
1.99092E-01 3.89075E-25
2.02589E-01 3.73940E-25
2.06107E-01 3.59514E-25
2.09649E-01 3.45757E-25
2.13212E-01 3.32632E-25
2.16797E-01 3.20106E-25
2.20404E-01 3.08145E-25
2.24032E-01 2.96721E-25
2.27680E-01 2.85805E-25
2.31350E-01 2.75370E-25
2.35040E-01 2.65391E-25
2.38751E-01 2.55845E-25
2.42481E-01 2.46710E-25
2.46231E-01 2.37964E-25
2.50000E-01 2.29589E-25
2.53788E-01 2.21566E-25
2.57595E-01 2.13877E-25
2.61421E-01 2.06506E-25
2.65264E-01 1.99438E-25
2.69126E-01 1.92658E-25
2.73005E-01 1.86152E-25
2.76901E-01 1.79907E-25
2.80814E-01 1.73911E-25
2.84744E-01 1.68152E-25
2.88691E-01 1.62620E-25
2.92653E-01 1.57303E-25
2.96632E-01 1.52192E-25
3.00625E-01 1.47277E-25
3.04634E-01 1.42550E-25
3.08658E-01 1.38002E-25
3.12697E-01 1.33625E-25
3.16749E-01 1.29412E-25
3.20816E-01 1.25355E-25
3.24896E-01 1.21448E-25
3.28990E-01 1.17685E-25
3.33097E-01 1.14058E-25
3.37216E-01 1.10562E-25
3.41348E-01 1.07192E-25
3.45492E-01 1.03942E-25
3.49647E-01 1.00808E-25
3.53814E-01 9.77836E-26
3.57992E-01 9.48654E-26
3.62181E-01 9.20488E-26
3.66381E-01 8.93296E-26
3.70590E-01 8.67039E-26
3.74810E-01 8.41678E-26
3.79039E-01 8.17179E-26
3.83277E-01 7.93507E-26
3.87524E-01 7.70629E-26
3.91780E-01 7.48513E-26
3.96044E-01 7.27131E-26
4.00316E-01 7.06454E-26
4.04596E-01 6.86455E-26
4.08882E-01 6.67107E-26
4.13176E-01 6.48386E-26
4.17476E-01 6.30268E-26
4.21783E-01 6.12730E-26
4.26095E-01 5.95751E-26
4.30413E-01 5.79310E-26
4.34737E-01 5.63387E-26
4.39065E-01 5.47962E-26
4.43398E-01 5.33019E-26
4.47736E-01 5.18538E-26
4.52077E-01 5.04504E-26
4.56422E-01 4.90901E-26
4.60770E-01 4.77712E-26
4.65122E-01 4.64924E-26
4.69476E-01 4.52522E-26
4.73832E-01 4.40492E-26
4.78190E-01 4.28821E-26
4.82550E-01 4.17498E-26
4.86912E-01 4.06510E-26
4.91274E-01 3.95845E-26
4.95637E-01 3.85492E-26
5.00000E-01 3.75441E-26
5.04363E-01 3.65682E-26
5.08726E-01 3.56204E-26
5.13088E-01 3.46998E-26
5.17450E-01 3.38056E-26
5.21810E-01 3.29368E-26
5.26168E-01 3.20926E-26
5.30524E-01 3.12722E-26
5.34878E-01 3.04748E-26
5.39230E-01 2.96997E-26
5.43578E-01 2.89461E-26
5.47923E-01 2.82134E-26
5.52264E-01 2.75009E-26
5.56602E-01 2.68079E-26
5.60935E-01 2.61338E-26
5.65263E-01 2.54781E-26
5.69587E-01 2.48401E-26
5.73905E-01 2.42193E-26
5.78217E-01 2.36152E-26
5.82524E-01 2.30272E-26
5.86824E-01 2.24549E-26
5.91118E-01 2.18977E-26
5.95404E-01 2.13552E-26
5.99684E-01 2.08270E-26
6.03956E-01 2.03126E-26
6.08220E-01 1.98117E-26
6.12476E-01 1.93237E-26
6.16723E-01 1.88484E-26
6.20961E-01 1.83853E-26
6.25190E-01 1.79341E-26
6.29410E-01 1.74944E-26
6.33619E-01 1.70659E-26
6.37819E-01 1.66483E-26
6.42008E-01 1.62413E-26
6.46186E-01 1.58445E-26
6.50353E-01 1.54577E-26
6.54508E-01 1.50805E-26
6.58652E-01 1.47127E-26
6.62784E-01 1.43541E-26
6.66903E-01 1.40044E-26
6.71010E-01 1.36632E-26
6.75104E-01 1.33305E-26
6.79184E-01 1.30058E-26
6.83251E-01 1.26892E-26
6.87303E-01 1.23802E-26
6.91342E-01 1.20787E-26
6.95366E-01 1.17845E-26
6.99375E-01 1.14973E-26
7.03368E-01 1.12171E-26
7.07347E-01 1.09436E-26
7.11309E-01 1.06766E-26
7.15256E-01 1.04160E-26
7.19186E-01 1.01615E-26
7.23099E-01 9.91311E-27
7.26995E-01 9.67055E-27
7.30874E-01 9.43369E-27
7.34736E-01 9.20238E-27
7.38579E-01 8.97649E-27
7.42405E-01 8.75587E-27
7.46212E-01 8.54038E-27
7.50000E-01 8.32990E-27
7.53769E-01 8.12429E-27
7.57519E-01 7.92344E-27
7.61249E-01 7.72721E-27
7.64960E-01 7.53549E-27
7.68650E-01 7.34817E-27
7.72320E-01 7.16514E-27
7.75968E-01 6.98629E-27
7.79596E-01 6.81152E-27
7.83203E-01 6.64073E-27
7.86788E-01 6.47381E-27
7.90351E-01 6.31067E-27
7.93893E-01 6.15123E-27
7.97411E-01 5.99539E-27
8.00908E-01 5.84306E-27
8.04381E-01 5.69416E-27
8.07831E-01 5.54860E-27
8.11257E-01 5.40632E-27
8.14660E-01 5.26722E-27
8.18039E-01 5.13124E-27
8.21394E-01 4.99830E-27
8.24724E-01 4.86832E-27
8.28030E-01 4.74125E-27
8.31310E-01 4.61701E-27
8.34565E-01 4.49554E-27
8.37795E-01 4.37678E-27
8.40999E-01 4.26065E-27
8.44177E-01 4.14711E-27
8.47329E-01 4.03609E-27
8.50455E-01 3.92754E-27
8.53553E-01 3.82140E-27
8.56625E-01 3.71762E-27
8.59670E-01 3.61615E-27
8.62687E-01 3.51693E-27
8.65677E-01 3.41991E-27
8.68639E-01 3.32506E-27
8.71572E-01 3.23231E-27
8.74478E-01 3.14164E-27
8.77355E-01 3.05298E-27
8.80203E-01 2.96630E-27
8.83022E-01 2.88156E-27
8.85812E-01 2.79871E-27
8.88573E-01 2.71773E-27
8.91304E-01 2.63855E-27
8.94005E-01 2.56116E-27
8.96677E-01 2.48552E-27
8.99318E-01 2.41158E-27
9.01928E-01 2.33932E-27
9.04508E-01 2.26870E-27
9.07058E-01 2.19968E-27
9.09576E-01 2.13224E-27
9.12063E-01 2.06635E-27
9.14519E-01 2.00198E-27
9.16943E-01 1.93908E-27
9.19335E-01 1.87765E-27
9.21696E-01 1.81765E-27
9.24024E-01 1.75905E-27
9.26320E-01 1.70183E-27
9.28584E-01 1.64596E-27
9.30815E-01 1.59141E-27
9.33013E-01 1.53817E-27
9.35178E-01 1.48621E-27
9.37310E-01 1.43550E-27
9.39409E-01 1.38603E-27
9.41474E-01 1.33778E-27
9.43505E-01 1.29071E-27
9.45503E-01 1.24482E-27
9.47467E-01 1.20008E-27
9.49397E-01 1.15647E-27
9.51293E-01 1.11398E-27
9.53154E-01 1.07258E-27
9.54981E-01 1.03226E-27
9.56773E-01 9.93005E-28
9.58530E-01 9.54795E-28
9.60252E-01 9.17614E-28
9.61940E-01 8.81446E-28
9.63592E-01 8.46277E-28
9.65209E-01 8.12093E-28
9.66790E-01 7.78878E-28
9.68336E-01 7.46619E-28
9.69846E-01 7.15303E-28
9.71321E-01 6.84917E-28
9.72759E-01 6.55449E-28
9.74162E-01 6.26886E-28
9.75528E-01 5.99217E-28
9.76858E-01 5.72431E-28
9.78152E-01 5.46516E-28
9.79410E-01 5.21462E-28
9.80631E-01 4.97260E-28
9.81815E-01 4.73899E-28
9.82963E-01 4.51369E-28
9.84074E-01 4.29663E-28
9.85148E-01 4.08771E-28
9.86185E-01 3.88684E-28
9.87185E-01 3.69396E-28
9.88148E-01 3.50897E-28
9.89074E-01 3.33181E-28
9.89962E-01 3.16241E-28
9.90814E-01 3.00070E-28
9.91627E-01 2.84662E-28
9.92404E-01 2.70010E-28
9.93143E-01 2.56109E-28
9.93844E-01 2.42953E-28
9.94508E-01 2.30537E-28
9.95134E-01 2.18856E-28
9.95722E-01 2.07906E-28
9.96273E-01 1.97683E-28
9.96786E-01 1.88181E-28
9.97261E-01 1.79398E-28
9.97698E-01 1.71331E-28
9.98097E-01 1.63975E-28
9.98459E-01 1.57329E-28
9.98782E-01 1.51389E-28
9.99067E-01 1.46153E-28
9.99315E-01 1.41620E-28
9.99524E-01 1.37787E-28
9.99695E-01 1.34653E-28
9.99829E-01 1.32217E-28
9.99924E-01 1.30477E-28
9.99981E-01 1.29434E-28
1.00000E+00 1.29086E-28
