 #
 # Subroutine ELSEPA. Elastic scattering of electrons and positrons
 #                    by neutral atoms and positive ions
 #
 # Projectile: positron
 # Kinetic energy = 8.00000E+06 eV = 2.93995E+05 a.u.
 #
 # WARNING: High-energy factorization with free-atom DF screening.
 #          Absorption, polarization and exchange corrections are
 #          switched off.
 #          Phase shifts are calculated for the bare nucleus.
 #          Scattering amplitudes are not evaluated.
 #
 # Element: Al,  Z =  13,  atomic weight = 2.69815E+01 g/mol
 #
 # Nuclear model: Fermi distribution
 #                Average radius = 3.20927E-13 cm
 #                Skin thickness = 5.46000E-14 cm
 #
 # Number of electrons = 13
 #
 # Total elastic cross section = 7.74642E-19 cm**2 = 2.76630E-02 a0**2
 # 1st transport cross section = 3.76723E-24 cm**2 = 1.34530E-07 a0**2
 # 2nd transport cross section = 1.08824E-23 cm**2 = 3.88619E-07 a0**2
 #
 #
 # Differential cross section:                       MU=(1-COS(THETA))/2
 #
 #  THETA        MU          DCS          DCS        Sherman      error
 #  (deg)                 (cm**2/sr)   (a0**2/sr)    function
 #----------------------------------------------------------------------
0.00000E+00 9.62104E-13
7.61557E-13 9.62076E-13
1.18994E-12 9.62061E-13
1.71346E-12 9.62042E-13
2.33225E-12 9.62020E-13
3.04617E-12 9.61995E-13
3.85530E-12 9.61966E-13
4.75964E-12 9.61934E-13
5.75917E-12 9.61899E-13
6.85391E-12 9.61861E-13
8.04379E-12 9.61819E-13
9.32893E-12 9.61773E-13
1.07092E-11 9.61725E-13
1.21847E-11 9.61673E-13
1.37554E-11 9.61618E-13
1.54213E-11 9.61559E-13
1.71823E-11 9.61498E-13
1.90386E-11 9.61433E-13
2.09900E-11 9.61364E-13
2.30367E-11 9.61292E-13
2.51785E-11 9.61217E-13
2.74156E-11 9.61139E-13
2.97478E-11 9.61057E-13
3.21752E-11 9.60973E-13
3.46979E-11 9.60884E-13
3.73157E-11 9.60793E-13
4.00286E-11 9.60698E-13
4.28368E-11 9.60600E-13
4.57402E-11 9.60498E-13
4.87388E-11 9.60393E-13
5.18325E-11 9.60285E-13
5.50215E-11 9.60174E-13
5.83057E-11 9.60059E-13
6.16850E-11 9.59942E-13
6.51595E-11 9.59820E-13
6.87293E-11 9.59696E-13
7.23943E-11 9.59568E-13
7.61544E-11 9.59437E-13
1.18991E-10 9.57946E-13
1.71347E-10 9.56130E-13
2.33223E-10 9.53990E-13
3.04617E-10 9.51530E-13
3.85531E-10 9.48754E-13
4.75965E-10 9.45666E-13
5.75917E-10 9.42270E-13
6.85389E-10 9.38571E-13
8.04380E-10 9.34575E-13
9.32891E-10 9.30287E-13
1.07092E-09 9.25715E-13
1.21847E-09 9.20861E-13
1.37554E-09 9.15737E-13
1.54213E-09 9.10347E-13
1.71823E-09 9.04699E-13
1.90386E-09 8.98804E-13
2.09900E-09 8.92662E-13
2.30367E-09 8.86290E-13
2.51785E-09 8.79691E-13
2.74156E-09 8.72874E-13
2.97478E-09 8.65852E-13
3.21752E-09 8.58626E-13
3.46978E-09 8.51214E-13
3.73156E-09 8.43618E-13
4.00286E-09 8.35850E-13
4.28368E-09 8.27922E-13
4.57402E-09 8.19835E-13
4.87388E-09 8.11608E-13
5.18326E-09 8.03242E-13
5.50215E-09 7.94752E-13
5.83057E-09 7.86147E-13
6.16850E-09 7.77428E-13
6.51596E-09 7.68618E-13
6.87293E-09 7.59711E-13
7.23942E-09 7.50725E-13
7.61544E-09 7.41670E-13
1.18991E-08 6.48878E-13
1.71347E-08 5.56970E-13
2.33223E-08 4.70932E-13
3.04617E-08 3.94298E-13
3.85531E-08 3.28043E-13
4.75965E-08 2.72194E-13
5.75917E-08 2.25582E-13
6.85389E-08 1.87374E-13
8.04380E-08 1.56152E-13
9.32891E-08 1.30787E-13
1.07092E-07 1.10141E-13
1.21847E-07 9.34086E-14
1.37554E-07 7.97261E-14
1.54213E-07 6.85482E-14
1.71823E-07 5.93527E-14
1.90386E-07 5.17322E-14
2.09900E-07 4.54153E-14
2.30367E-07 4.01083E-14
2.51785E-07 3.56427E-14
2.74156E-07 3.18489E-14
2.97478E-07 2.86075E-14
3.21752E-07 2.58185E-14
3.46978E-07 2.34047E-14
3.73156E-07 2.13001E-14
4.00286E-07 1.94546E-14
4.28368E-07 1.78313E-14
4.57402E-07 1.63857E-14
4.87388E-07 1.51037E-14
5.18325E-07 1.39517E-14
5.50215E-07 1.29168E-14
5.83057E-07 1.19851E-14
6.16850E-07 1.11350E-14
6.51596E-07 1.03677E-14
6.87293E-07 9.66316E-15
7.23942E-07 9.02035E-15
7.61543E-07 8.43250E-15
1.18991E-06 4.51048E-15
1.71347E-06 2.57022E-15
2.33223E-06 1.53280E-15
3.04617E-06 9.58128E-16
3.85531E-06 6.21724E-16
4.75964E-06 4.18905E-16
5.75916E-06 2.91502E-16
6.85388E-06 2.08948E-16
8.04378E-06 1.53667E-16
9.32888E-06 1.15615E-16
1.07092E-05 8.87250E-17
1.21846E-05 6.92887E-17
1.37553E-05 5.49416E-17
1.54212E-05 4.41592E-17
1.71822E-05 3.59183E-17
1.90385E-05 2.95286E-17
2.09899E-05 2.45084E-17
2.30365E-05 2.05179E-17
2.51783E-05 1.73101E-17
2.74153E-05 1.47078E-17
2.97475E-05 1.25771E-17
3.21749E-05 1.08193E-17
3.46974E-05 9.35799E-18
3.73152E-05 8.13529E-18
4.00281E-05 7.10553E-18
4.28362E-05 6.23344E-18
4.57395E-05 5.49070E-18
4.87380E-05 4.85507E-18
5.18317E-05 4.30842E-18
5.50205E-05 3.83632E-18
5.83045E-05 3.42686E-18
6.16838E-05 3.07038E-18
6.51582E-05 2.75887E-18
6.87277E-05 2.48572E-18
7.23925E-05 2.24540E-18
7.61524E-05 2.03331E-18
9.21439E-05 1.39814E-18
1.09658E-04 9.92009E-19
1.28695E-04 7.22805E-19
1.49255E-04 5.38796E-19
1.71338E-04 4.09656E-19
1.94942E-04 3.16907E-19
2.20070E-04 2.48932E-19
2.46720E-04 1.98214E-19
2.74892E-04 1.59758E-19
3.04586E-04 1.30179E-19
3.35803E-04 1.07130E-19
3.68542E-04 8.89574E-20
4.02802E-04 7.44755E-20
4.38585E-04 6.28208E-20
4.75889E-04 5.33571E-20
5.14715E-04 4.56084E-20
5.55063E-04 3.92152E-20
5.96931E-04 3.39030E-20
6.40321E-04 2.94597E-20
6.85233E-04 2.57204E-20
7.31665E-04 2.25554E-20
7.79618E-04 1.98623E-20
8.29092E-04 1.75590E-20
8.80086E-04 1.55797E-20
9.32601E-04 1.38715E-20
9.86636E-04 1.23908E-20
1.04219E-03 1.11024E-20
1.09927E-03 9.97697E-21
1.15786E-03 8.99049E-21
1.21797E-03 8.12286E-21
1.27961E-03 7.35731E-21
1.34276E-03 6.67977E-21
1.40743E-03 6.07839E-21
1.47362E-03 5.54312E-21
1.54133E-03 5.06542E-21
1.61056E-03 4.63797E-21
1.68131E-03 4.25463E-21
1.75357E-03 3.91005E-21
1.82735E-03 3.59962E-21
1.90265E-03 3.31937E-21
1.97947E-03 3.06583E-21
2.05780E-03 2.83602E-21
2.13765E-03 2.62732E-21
2.21902E-03 2.43744E-21
2.30190E-03 2.26440E-21
2.38630E-03 2.10642E-21
2.47222E-03 1.96196E-21
2.55965E-03 1.82966E-21
2.64859E-03 1.70832E-21
2.73905E-03 1.59685E-21
2.83103E-03 1.49432E-21
2.92452E-03 1.39987E-21
3.01952E-03 1.31276E-21
3.11604E-03 1.23231E-21
3.21407E-03 1.15792E-21
3.31362E-03 1.08906E-21
3.41468E-03 1.02523E-21
3.51725E-03 9.65998E-22
3.62133E-03 9.10978E-22
3.72692E-03 8.59814E-22
3.83403E-03 8.12187E-22
3.94265E-03 7.67806E-22
4.05278E-03 7.26411E-22
4.16442E-03 6.87764E-22
4.27757E-03 6.51648E-22
4.39223E-03 6.17869E-22
4.50840E-03 5.86246E-22
4.62608E-03 5.56617E-22
4.74527E-03 5.28832E-22
4.86597E-03 5.02757E-22
4.98817E-03 4.78267E-22
5.11188E-03 4.55246E-22
5.23711E-03 4.33592E-22
5.36383E-03 4.13207E-22
5.49207E-03 3.94004E-22
5.62181E-03 3.75902E-22
5.75306E-03 3.58825E-22
5.88581E-03 3.42705E-22
6.02007E-03 3.27478E-22
6.15583E-03 3.13086E-22
6.29310E-03 2.99474E-22
6.43187E-03 2.86592E-22
6.57214E-03 2.74394E-22
6.71392E-03 2.62837E-22
6.85720E-03 2.51880E-22
7.00198E-03 2.41487E-22
7.14827E-03 2.31624E-22
7.29605E-03 2.22257E-22
7.44534E-03 2.13359E-22
7.59612E-03 2.04900E-22
7.97965E-03 1.85512E-22
8.37255E-03 1.68359E-22
8.77480E-03 1.53138E-22
9.18641E-03 1.39596E-22
9.60736E-03 1.27514E-22
1.00376E-02 1.16708E-22
1.04773E-02 1.07019E-22
1.09262E-02 9.83130E-23
1.13844E-02 9.04718E-23
1.18520E-02 8.33948E-23
1.23288E-02 7.69945E-23
1.28150E-02 7.11946E-23
1.33104E-02 6.59291E-23
1.38150E-02 6.11399E-23
1.43290E-02 5.67764E-23
1.48521E-02 5.27940E-23
1.53845E-02 4.91535E-23
1.59262E-02 4.58204E-23
1.64770E-02 4.27641E-23
1.70371E-02 3.99575E-23
1.76063E-02 3.73765E-23
1.81848E-02 3.49998E-23
1.87724E-02 3.28083E-23
1.93692E-02 3.07850E-23
1.99751E-02 2.89147E-23
2.05901E-02 2.71837E-23
2.12143E-02 2.55797E-23
2.18476E-02 2.40918E-23
2.24900E-02 2.27101E-23
2.31415E-02 2.14256E-23
2.38021E-02 2.02302E-23
2.44717E-02 1.91166E-23
2.51504E-02 1.80783E-23
2.58382E-02 1.71091E-23
2.65349E-02 1.62037E-23
2.72407E-02 1.53572E-23
2.79555E-02 1.45649E-23
2.86793E-02 1.38227E-23
2.94120E-02 1.31270E-23
3.01537E-02 1.24743E-23
3.09043E-02 1.18615E-23
3.16639E-02 1.12856E-23
3.24324E-02 1.07440E-23
3.32098E-02 1.02343E-23
3.39961E-02 9.75438E-24
3.47912E-02 9.30205E-24
3.55952E-02 8.87548E-24
3.64081E-02 8.47293E-24
3.72297E-02 8.09280E-24
3.80602E-02 7.73362E-24
3.88995E-02 7.39402E-24
3.97476E-02 7.07273E-24
4.06044E-02 6.76858E-24
4.14700E-02 6.48050E-24
4.23443E-02 6.20748E-24
4.32273E-02 5.94858E-24
4.41190E-02 5.70295E-24
4.50194E-02 5.46977E-24
4.59284E-02 5.24830E-24
4.68461E-02 5.03784E-24
4.87074E-02 4.64741E-24
5.06030E-02 4.29381E-24
5.25328E-02 3.97295E-24
5.44967E-02 3.68127E-24
5.64946E-02 3.41566E-24
5.85262E-02 3.17337E-24
6.05914E-02 2.95201E-24
6.26901E-02 2.74945E-24
6.48222E-02 2.56381E-24
6.69873E-02 2.39343E-24
6.91854E-02 2.23684E-24
7.14163E-02 2.09272E-24
7.36799E-02 1.95990E-24
7.59760E-02 1.83735E-24
7.83043E-02 1.72413E-24
8.06647E-02 1.61939E-24
8.30571E-02 1.52240E-24
8.54812E-02 1.43248E-24
8.79369E-02 1.34903E-24
9.04240E-02 1.27149E-24
9.29422E-02 1.19937E-24
9.54915E-02 1.13223E-24
9.80716E-02 1.06966E-24
1.00682E-01 1.01129E-24
1.03323E-01 9.56798E-25
1.05995E-01 9.05874E-25
1.08696E-01 8.58245E-25
1.11427E-01 8.13658E-25
1.14188E-01 7.71886E-25
1.16978E-01 7.32718E-25
1.19797E-01 6.95964E-25
1.22645E-01 6.61448E-25
1.25522E-01 6.29010E-25
1.28428E-01 5.98503E-25
1.31361E-01 5.69790E-25
1.34323E-01 5.42748E-25
1.37313E-01 5.17262E-25
1.40330E-01 4.93227E-25
1.43375E-01 4.70544E-25
1.46447E-01 4.49126E-25
1.49545E-01 4.28887E-25
1.52671E-01 4.09753E-25
1.55823E-01 3.91652E-25
1.59001E-01 3.74518E-25
1.62205E-01 3.58290E-25
1.65435E-01 3.42912E-25
1.68690E-01 3.28332E-25
1.71970E-01 3.14500E-25
1.75276E-01 3.01372E-25
1.78606E-01 2.88905E-25
1.81961E-01 2.77060E-25
1.85340E-01 2.65801E-25
1.88743E-01 2.55093E-25
1.92169E-01 2.44905E-25
1.95619E-01 2.35206E-25
1.99092E-01 2.25970E-25
2.02589E-01 2.17170E-25
2.06107E-01 2.08782E-25
2.09649E-01 2.00783E-25
2.13212E-01 1.93152E-25
2.16797E-01 1.85869E-25
2.20404E-01 1.78916E-25
2.24032E-01 1.72274E-25
2.27680E-01 1.65928E-25
2.31350E-01 1.59862E-25
2.35040E-01 1.54061E-25
2.38751E-01 1.48512E-25
2.42481E-01 1.43202E-25
2.46231E-01 1.38118E-25
2.50000E-01 1.33250E-25
2.53788E-01 1.28587E-25
2.57595E-01 1.24118E-25
2.61421E-01 1.19834E-25
2.65264E-01 1.15726E-25
2.69126E-01 1.11786E-25
2.73005E-01 1.08005E-25
2.76901E-01 1.04376E-25
2.80814E-01 1.00891E-25
2.84744E-01 9.75450E-26
2.88691E-01 9.43301E-26
2.92653E-01 9.12407E-26
2.96632E-01 8.82709E-26
3.00625E-01 8.54154E-26
3.04634E-01 8.26689E-26
3.08658E-01 8.00267E-26
3.12697E-01 7.74840E-26
3.16749E-01 7.50364E-26
3.20816E-01 7.26798E-26
3.24896E-01 7.04102E-26
3.28990E-01 6.82239E-26
3.33097E-01 6.61172E-26
3.37216E-01 6.40868E-26
3.41348E-01 6.21294E-26
3.45492E-01 6.02419E-26
3.49647E-01 5.84214E-26
3.53814E-01 5.66651E-26
3.57992E-01 5.49704E-26
3.62181E-01 5.33348E-26
3.66381E-01 5.17557E-26
3.70590E-01 5.02310E-26
3.74810E-01 4.87585E-26
3.79039E-01 4.73360E-26
3.83277E-01 4.59615E-26
3.87524E-01 4.46333E-26
3.91780E-01 4.33493E-26
3.96044E-01 4.21080E-26
4.00316E-01 4.09077E-26
4.04596E-01 3.97467E-26
4.08882E-01 3.86236E-26
4.13176E-01 3.75369E-26
4.17476E-01 3.64853E-26
4.21783E-01 3.54674E-26
4.26095E-01 3.44820E-26
4.30413E-01 3.35278E-26
4.34737E-01 3.26037E-26
4.39065E-01 3.17087E-26
4.43398E-01 3.08415E-26
4.47736E-01 3.00013E-26
4.52077E-01 2.91870E-26
4.56422E-01 2.83977E-26
4.60770E-01 2.76325E-26
4.65122E-01 2.68906E-26
4.69476E-01 2.61711E-26
4.73832E-01 2.54732E-26
4.78190E-01 2.47962E-26
4.82550E-01 2.41394E-26
4.86912E-01 2.35020E-26
4.91274E-01 2.28834E-26
4.95637E-01 2.22830E-26
5.00000E-01 2.17001E-26
5.04363E-01 2.11341E-26
5.08726E-01 2.05845E-26
5.13088E-01 2.00507E-26
5.17450E-01 1.95322E-26
5.21810E-01 1.90284E-26
5.26168E-01 1.85390E-26
5.30524E-01 1.80633E-26
5.34878E-01 1.76010E-26
5.39230E-01 1.71517E-26
5.43578E-01 1.67149E-26
5.47923E-01 1.62901E-26
5.52264E-01 1.58771E-26
5.56602E-01 1.54755E-26
5.60935E-01 1.50848E-26
5.65263E-01 1.47048E-26
5.69587E-01 1.43351E-26
5.73905E-01 1.39753E-26
5.78217E-01 1.36253E-26
5.82524E-01 1.32846E-26
5.86824E-01 1.29530E-26
5.91118E-01 1.26302E-26
5.95404E-01 1.23159E-26
5.99684E-01 1.20099E-26
6.03956E-01 1.17119E-26
6.08220E-01 1.14217E-26
6.12476E-01 1.11391E-26
6.16723E-01 1.08638E-26
6.20961E-01 1.05956E-26
6.25190E-01 1.03343E-26
6.29410E-01 1.00797E-26
6.33619E-01 9.83154E-27
6.37819E-01 9.58974E-27
6.42008E-01 9.35406E-27
6.46186E-01 9.12432E-27
6.50353E-01 8.90037E-27
6.54508E-01 8.68202E-27
6.58652E-01 8.46913E-27
6.62784E-01 8.26153E-27
6.66903E-01 8.05908E-27
6.71010E-01 7.86163E-27
6.75104E-01 7.66905E-27
6.79184E-01 7.48119E-27
6.83251E-01 7.29792E-27
6.87303E-01 7.11912E-27
6.91342E-01 6.94467E-27
6.95366E-01 6.77444E-27
6.99375E-01 6.60832E-27
7.03368E-01 6.44620E-27
7.07347E-01 6.28797E-27
7.11309E-01 6.13353E-27
7.15256E-01 5.98277E-27
7.19186E-01 5.83559E-27
7.23099E-01 5.69191E-27
7.26995E-01 5.55162E-27
7.30874E-01 5.41464E-27
7.34736E-01 5.28089E-27
7.38579E-01 5.15027E-27
7.42405E-01 5.02270E-27
7.46212E-01 4.89811E-27
7.50000E-01 4.77642E-27
7.53769E-01 4.65756E-27
7.57519E-01 4.54145E-27
7.61249E-01 4.42802E-27
7.64960E-01 4.31720E-27
7.68650E-01 4.20894E-27
7.72320E-01 4.10315E-27
7.75968E-01 3.99979E-27
7.79596E-01 3.89880E-27
7.83203E-01 3.80010E-27
7.86788E-01 3.70366E-27
7.90351E-01 3.60940E-27
7.93893E-01 3.51728E-27
7.97411E-01 3.42725E-27
8.00908E-01 3.33925E-27
8.04381E-01 3.25324E-27
8.07831E-01 3.16916E-27
8.11257E-01 3.08698E-27
8.14660E-01 3.00665E-27
8.18039E-01 2.92811E-27
8.21394E-01 2.85134E-27
8.24724E-01 2.77629E-27
8.28030E-01 2.70291E-27
8.31310E-01 2.63118E-27
8.34565E-01 2.56105E-27
8.37795E-01 2.49248E-27
8.40999E-01 2.42544E-27
8.44177E-01 2.35990E-27
8.47329E-01 2.29582E-27
8.50455E-01 2.23316E-27
8.53553E-01 2.17190E-27
8.56625E-01 2.11201E-27
8.59670E-01 2.05345E-27
8.62687E-01 1.99619E-27
8.65677E-01 1.94021E-27
8.68639E-01 1.88548E-27
8.71572E-01 1.83197E-27
8.74478E-01 1.77965E-27
8.77355E-01 1.72851E-27
8.80203E-01 1.67850E-27
8.83022E-01 1.62962E-27
8.85812E-01 1.58183E-27
8.88573E-01 1.53512E-27
8.91304E-01 1.48946E-27
8.94005E-01 1.44482E-27
8.96677E-01 1.40120E-27
8.99318E-01 1.35856E-27
9.01928E-01 1.31689E-27
9.04508E-01 1.27617E-27
9.07058E-01 1.23638E-27
9.09576E-01 1.19750E-27
9.12063E-01 1.15951E-27
9.14519E-01 1.12240E-27
9.16943E-01 1.08614E-27
9.19335E-01 1.05073E-27
9.21696E-01 1.01614E-27
9.24024E-01 9.82367E-28
9.26320E-01 9.49386E-28
9.28584E-01 9.17186E-28
9.30815E-01 8.85752E-28
9.33013E-01 8.55071E-28
9.35178E-01 8.25128E-28
9.37310E-01 7.95910E-28
9.39409E-01 7.67405E-28
9.41474E-01 7.39601E-28
9.43505E-01 7.12484E-28
9.45503E-01 6.86044E-28
9.47467E-01 6.60269E-28
9.49397E-01 6.35148E-28
9.51293E-01 6.10669E-28
9.53154E-01 5.86824E-28
9.54981E-01 5.63600E-28
9.56773E-01 5.40990E-28
9.58530E-01 5.18982E-28
9.60252E-01 4.97568E-28
9.61940E-01 4.76738E-28
9.63592E-01 4.56484E-28
9.65209E-01 4.36798E-28
9.66790E-01 4.17671E-28
9.68336E-01 3.99095E-28
9.69846E-01 3.81063E-28
9.71321E-01 3.63567E-28
9.72759E-01 3.46600E-28
9.74162E-01 3.30155E-28
9.75528E-01 3.14224E-28
9.76858E-01 2.98803E-28
9.78152E-01 2.83883E-28
9.79410E-01 2.69460E-28
9.80631E-01 2.55527E-28
9.81815E-01 2.42079E-28
9.82963E-01 2.29110E-28
9.84074E-01 2.16615E-28
9.85148E-01 2.04590E-28
9.86185E-01 1.93028E-28
9.87185E-01 1.81925E-28
9.88148E-01 1.71278E-28
9.89074E-01 1.61082E-28
9.89962E-01 1.51332E-28
9.90814E-01 1.42025E-28
9.91627E-01 1.33157E-28
9.92404E-01 1.24724E-28
9.93143E-01 1.16724E-28
9.93844E-01 1.09153E-28
9.94508E-01 1.02008E-28
9.95134E-01 9.52858E-29
9.95722E-01 8.89844E-29
9.96273E-01 8.31011E-29
9.96786E-01 7.76334E-29
9.97261E-01 7.25794E-29
9.97698E-01 6.79370E-29
9.98097E-01 6.37043E-29
9.98459E-01 5.98798E-29
9.98782E-01 5.64618E-29
9.99067E-01 5.34491E-29
9.99315E-01 5.08405E-29
9.99524E-01 4.86349E-29
9.99695E-01 4.68316E-29
9.99829E-01 4.54297E-29
9.99924E-01 4.44287E-29
9.99981E-01 4.38283E-29
1.00000E+00 4.36282E-29
