 #
 # Subroutine ELSEPA. Elastic scattering of electrons and positrons
 #                    by neutral atoms and positive ions
 #
 # Projectile: positron
 # Kinetic energy = 4.50000E+06 eV = 1.65372E+05 a.u.
 #
 # WARNING: High-energy factorization with free-atom DF screening.
 #          Absorption, polarization and exchange corrections are
 #          switched off.
 #          Phase shifts are calculated for the bare nucleus.
 #          Scattering amplitudes are not evaluated.
 #
 # Element: Al,  Z =  13,  atomic weight = 2.69815E+01 g/mol
 #
 # Nuclear model: Fermi distribution
 #                Average radius = 3.20927E-13 cm
 #                Skin thickness = 5.46000E-14 cm
 #
 # Number of electrons = 13
 #
 # Total elastic cross section = 7.80570E-19 cm**2 = 2.78747E-02 a0**2
 # 1st transport cross section = 1.00777E-23 cm**2 = 3.59883E-07 a0**2
 # 2nd transport cross section = 2.89920E-23 cm**2 = 1.03532E-06 a0**2
 #
 #
 # Differential cross section:                       MU=(1-COS(THETA))/2
 #
 #  THETA        MU          DCS          DCS        Sherman      error
 #  (deg)                 (cm**2/sr)   (a0**2/sr)    function
 #----------------------------------------------------------------------
0.00000E+00 3.33511E-13
7.61557E-13 3.33507E-13
1.18994E-12 3.33505E-13
1.71346E-12 3.33503E-13
2.33225E-12 3.33500E-13
3.04617E-12 3.33497E-13
3.85530E-12 3.33494E-13
4.75964E-12 3.33490E-13
5.75917E-12 3.33486E-13
6.85391E-12 3.33481E-13
8.04379E-12 3.33476E-13
9.32893E-12 3.33471E-13
1.07092E-11 3.33465E-13
1.21847E-11 3.33459E-13
1.37554E-11 3.33452E-13
1.54213E-11 3.33445E-13
1.71823E-11 3.33437E-13
1.90386E-11 3.33430E-13
2.09900E-11 3.33421E-13
2.30367E-11 3.33413E-13
2.51785E-11 3.33404E-13
2.74156E-11 3.33394E-13
2.97478E-11 3.33385E-13
3.21752E-11 3.33374E-13
3.46979E-11 3.33364E-13
3.73157E-11 3.33353E-13
4.00286E-11 3.33341E-13
4.28368E-11 3.33330E-13
4.57402E-11 3.33318E-13
4.87388E-11 3.33305E-13
5.18325E-11 3.33292E-13
5.50215E-11 3.33279E-13
5.83057E-11 3.33265E-13
6.16850E-11 3.33251E-13
6.51595E-11 3.33236E-13
6.87293E-11 3.33221E-13
7.23943E-11 3.33206E-13
7.61544E-11 3.33190E-13
1.18991E-10 3.33011E-13
1.71347E-10 3.32793E-13
2.33223E-10 3.32535E-13
3.04617E-10 3.32239E-13
3.85531E-10 3.31903E-13
4.75965E-10 3.31529E-13
5.75917E-10 3.31115E-13
6.85389E-10 3.30664E-13
8.04380E-10 3.30174E-13
9.32891E-10 3.29647E-13
1.07092E-09 3.29081E-13
1.21847E-09 3.28479E-13
1.37554E-09 3.27839E-13
1.54213E-09 3.27163E-13
1.71823E-09 3.26450E-13
1.90386E-09 3.25701E-13
2.09900E-09 3.24916E-13
2.30367E-09 3.24097E-13
2.51785E-09 3.23242E-13
2.74156E-09 3.22353E-13
2.97478E-09 3.21430E-13
3.21752E-09 3.20473E-13
3.46978E-09 3.19483E-13
3.73156E-09 3.18461E-13
4.00286E-09 3.17406E-13
4.28368E-09 3.16320E-13
4.57402E-09 3.15203E-13
4.87388E-09 3.14055E-13
5.18326E-09 3.12877E-13
5.50215E-09 3.11670E-13
5.83057E-09 3.10433E-13
6.16850E-09 3.09168E-13
6.51596E-09 3.07876E-13
6.87293E-09 3.06556E-13
7.23942E-09 3.05209E-13
7.61544E-09 3.03838E-13
1.18991E-08 2.88818E-13
1.71347E-08 2.71894E-13
2.33223E-08 2.53698E-13
3.04617E-08 2.34841E-13
3.85531E-08 2.15855E-13
4.75965E-08 1.97196E-13
5.75917E-08 1.79213E-13
6.85389E-08 1.62075E-13
8.04380E-08 1.46111E-13
9.32891E-08 1.31484E-13
1.07092E-07 1.17997E-13
1.21847E-07 1.05767E-13
1.37554E-07 9.47943E-14
1.54213E-07 8.48895E-14
1.71823E-07 7.60570E-14
1.90386E-07 6.82072E-14
2.09900E-07 6.12203E-14
2.30367E-07 5.50256E-14
2.51785E-07 4.95384E-14
2.74156E-07 4.46896E-14
2.97478E-07 4.03880E-14
3.21752E-07 3.65800E-14
3.46978E-07 3.32161E-14
3.73156E-07 3.02215E-14
4.00286E-07 2.75670E-14
4.28368E-07 2.52120E-14
4.57402E-07 2.31051E-14
4.87388E-07 2.12321E-14
5.18325E-07 1.95587E-14
5.50215E-07 1.80531E-14
5.83057E-07 1.67084E-14
6.16850E-07 1.54973E-14
6.51596E-07 1.44014E-14
6.87293E-07 1.34161E-14
7.23942E-07 1.25219E-14
7.61543E-07 1.17084E-14
1.18991E-06 6.54462E-15
1.71347E-06 4.09166E-15
2.33223E-06 2.72076E-15
3.04617E-06 1.87799E-15
3.85531E-06 1.32747E-15
4.75964E-06 9.56899E-16
5.75916E-06 7.01039E-16
6.85388E-06 5.20551E-16
8.04378E-06 3.93368E-16
9.32888E-06 3.01455E-16
1.07092E-05 2.34117E-16
1.21846E-05 1.84140E-16
1.37553E-05 1.46529E-16
1.54212E-05 1.17945E-16
1.71822E-05 9.59610E-17
1.90385E-05 7.88524E-17
2.09899E-05 6.53969E-17
2.30365E-05 5.47015E-17
2.51783E-05 4.61173E-17
2.74153E-05 3.91648E-17
2.97475E-05 3.34846E-17
3.21749E-05 2.88078E-17
3.46974E-05 2.49284E-17
3.73152E-05 2.16878E-17
4.00281E-05 1.89629E-17
4.28362E-05 1.66575E-17
4.57395E-05 1.46957E-17
4.87380E-05 1.30172E-17
5.18317E-05 1.15736E-17
5.50205E-05 1.03261E-17
5.83045E-05 9.24361E-18
6.16838E-05 8.30031E-18
6.51582E-05 7.47509E-18
6.87277E-05 6.75050E-18
7.23925E-05 6.11205E-18
7.61524E-05 5.54762E-18
9.21439E-05 3.84912E-18
1.09658E-04 2.75390E-18
1.28695E-04 2.02140E-18
1.49255E-04 1.51651E-18
1.71338E-04 1.15936E-18
1.94942E-04 9.01083E-19
2.20070E-04 7.10607E-19
2.46720E-04 5.67720E-19
2.74892E-04 4.58867E-19
3.04586E-04 3.74803E-19
3.35803E-04 3.09067E-19
3.68542E-04 2.57083E-19
4.02802E-04 2.15547E-19
4.38585E-04 1.82045E-19
4.75889E-04 1.54787E-19
5.14715E-04 1.32431E-19
5.55063E-04 1.13958E-19
5.96931E-04 9.85894E-20
6.40321E-04 8.57197E-20
6.85233E-04 7.48790E-20
7.31665E-04 6.56951E-20
7.79618E-04 5.78745E-20
8.29092E-04 5.11812E-20
8.80086E-04 4.54265E-20
9.32601E-04 4.04569E-20
9.86636E-04 3.61474E-20
1.04219E-03 3.23958E-20
1.09927E-03 2.91177E-20
1.15786E-03 2.62433E-20
1.21797E-03 2.37144E-20
1.27961E-03 2.14825E-20
1.34276E-03 1.95067E-20
1.40743E-03 1.77525E-20
1.47362E-03 1.61909E-20
1.54133E-03 1.47970E-20
1.61056E-03 1.35498E-20
1.68131E-03 1.24310E-20
1.75357E-03 1.14252E-20
1.82735E-03 1.05189E-20
1.90265E-03 9.70066E-21
1.97947E-03 8.96031E-21
2.05780E-03 8.28915E-21
2.13765E-03 7.67959E-21
2.21902E-03 7.12496E-21
2.30190E-03 6.61943E-21
2.38630E-03 6.15790E-21
2.47222E-03 5.73583E-21
2.55965E-03 5.34926E-21
2.64859E-03 4.99466E-21
2.73905E-03 4.66892E-21
2.83103E-03 4.36927E-21
2.92452E-03 4.09324E-21
3.01952E-03 3.83864E-21
3.11604E-03 3.60349E-21
3.21407E-03 3.38605E-21
3.31362E-03 3.18474E-21
3.41468E-03 2.99814E-21
3.51725E-03 2.82500E-21
3.62133E-03 2.66415E-21
3.72692E-03 2.51456E-21
3.83403E-03 2.37532E-21
3.94265E-03 2.24556E-21
4.05278E-03 2.12453E-21
4.16442E-03 2.01153E-21
4.27757E-03 1.90593E-21
4.39223E-03 1.80716E-21
4.50840E-03 1.71468E-21
4.62608E-03 1.62802E-21
4.74527E-03 1.54677E-21
4.86597E-03 1.47051E-21
4.98817E-03 1.39888E-21
5.11188E-03 1.33155E-21
5.23711E-03 1.26822E-21
5.36383E-03 1.20860E-21
5.49207E-03 1.15244E-21
5.62181E-03 1.09950E-21
5.75306E-03 1.04955E-21
5.88581E-03 1.00240E-21
6.02007E-03 9.57870E-22
6.15583E-03 9.15777E-22
6.29310E-03 8.75966E-22
6.43187E-03 8.38290E-22
6.57214E-03 8.02614E-22
6.71392E-03 7.68811E-22
6.85720E-03 7.36766E-22
7.00198E-03 7.06369E-22
7.14827E-03 6.77520E-22
7.29605E-03 6.50125E-22
7.44534E-03 6.24098E-22
7.59612E-03 5.99358E-22
7.97965E-03 5.42652E-22
8.37255E-03 4.92481E-22
8.77480E-03 4.47964E-22
9.18641E-03 4.08352E-22
9.60736E-03 3.73014E-22
1.00376E-02 3.41407E-22
1.04773E-02 3.13069E-22
1.09262E-02 2.87603E-22
1.13844E-02 2.64668E-22
1.18520E-02 2.43968E-22
1.23288E-02 2.25246E-22
1.28150E-02 2.08282E-22
1.33104E-02 1.92879E-22
1.38150E-02 1.78871E-22
1.43290E-02 1.66107E-22
1.48521E-02 1.54458E-22
1.53845E-02 1.43809E-22
1.59262E-02 1.34059E-22
1.64770E-02 1.25119E-22
1.70371E-02 1.16909E-22
1.76063E-02 1.09359E-22
1.81848E-02 1.02406E-22
1.87724E-02 9.59955E-23
1.93692E-02 9.00767E-23
1.99751E-02 8.46053E-23
2.05901E-02 7.95415E-23
2.12143E-02 7.48493E-23
2.18476E-02 7.04966E-23
2.24900E-02 6.64545E-23
2.31415E-02 6.26966E-23
2.38021E-02 5.91995E-23
2.44717E-02 5.59418E-23
2.51504E-02 5.29040E-23
2.58382E-02 5.00687E-23
2.65349E-02 4.74200E-23
2.72407E-02 4.49432E-23
2.79555E-02 4.26252E-23
2.86793E-02 4.04540E-23
2.94120E-02 3.84187E-23
3.01537E-02 3.65090E-23
3.09043E-02 3.47159E-23
3.16639E-02 3.30310E-23
3.24324E-02 3.14464E-23
3.32098E-02 2.99553E-23
3.39961E-02 2.85510E-23
3.47912E-02 2.72275E-23
3.55952E-02 2.59794E-23
3.64081E-02 2.48016E-23
3.72297E-02 2.36893E-23
3.80602E-02 2.26384E-23
3.88995E-02 2.16447E-23
3.97476E-02 2.07045E-23
4.06044E-02 1.98146E-23
4.14700E-02 1.89716E-23
4.23443E-02 1.81727E-23
4.32273E-02 1.74151E-23
4.41190E-02 1.66964E-23
4.50194E-02 1.60140E-23
4.59284E-02 1.53659E-23
4.68461E-02 1.47501E-23
4.87074E-02 1.36075E-23
5.06030E-02 1.25727E-23
5.25328E-02 1.16337E-23
5.44967E-02 1.07801E-23
5.64946E-02 1.00028E-23
5.85262E-02 9.29368E-24
6.05914E-02 8.64581E-24
6.26901E-02 8.05294E-24
6.48222E-02 7.50959E-24
6.69873E-02 7.01089E-24
6.91854E-02 6.55252E-24
7.14163E-02 6.13066E-24
7.36799E-02 5.74187E-24
7.59760E-02 5.38312E-24
7.83043E-02 5.05166E-24
8.06647E-02 4.74506E-24
8.30571E-02 4.46112E-24
8.54812E-02 4.19786E-24
8.79369E-02 3.95352E-24
9.04240E-02 3.72650E-24
9.29422E-02 3.51534E-24
9.54915E-02 3.31875E-24
9.80716E-02 3.13553E-24
1.00682E-01 2.96462E-24
1.03323E-01 2.80505E-24
1.05995E-01 2.65592E-24
1.08696E-01 2.51644E-24
1.11427E-01 2.38586E-24
1.14188E-01 2.26353E-24
1.16978E-01 2.14881E-24
1.19797E-01 2.04116E-24
1.22645E-01 1.94007E-24
1.25522E-01 1.84505E-24
1.28428E-01 1.75569E-24
1.31361E-01 1.67158E-24
1.34323E-01 1.59236E-24
1.37313E-01 1.51770E-24
1.40330E-01 1.44728E-24
1.43375E-01 1.38083E-24
1.46447E-01 1.31807E-24
1.49545E-01 1.25878E-24
1.52671E-01 1.20271E-24
1.55823E-01 1.14967E-24
1.59001E-01 1.09946E-24
1.62205E-01 1.05190E-24
1.65435E-01 1.00684E-24
1.68690E-01 9.64107E-25
1.71970E-01 9.23568E-25
1.75276E-01 8.85090E-25
1.78606E-01 8.48548E-25
1.81961E-01 8.13827E-25
1.85340E-01 7.80822E-25
1.88743E-01 7.49431E-25
1.92169E-01 7.19562E-25
1.95619E-01 6.91129E-25
1.99092E-01 6.64049E-25
2.02589E-01 6.38246E-25
2.06107E-01 6.13651E-25
2.09649E-01 5.90195E-25
2.13212E-01 5.67818E-25
2.16797E-01 5.46460E-25
2.20404E-01 5.26068E-25
2.24032E-01 5.06589E-25
2.27680E-01 4.87975E-25
2.31350E-01 4.70181E-25
2.35040E-01 4.53165E-25
2.38751E-01 4.36887E-25
2.42481E-01 4.21308E-25
2.46231E-01 4.06394E-25
2.50000E-01 3.92111E-25
2.53788E-01 3.78428E-25
2.57595E-01 3.65315E-25
2.61421E-01 3.52744E-25
2.65264E-01 3.40689E-25
2.69126E-01 3.29125E-25
2.73005E-01 3.18028E-25
2.76901E-01 3.07376E-25
2.80814E-01 2.97149E-25
2.84744E-01 2.87325E-25
2.88691E-01 2.77888E-25
2.92653E-01 2.68817E-25
2.96632E-01 2.60098E-25
3.00625E-01 2.51714E-25
3.04634E-01 2.43649E-25
3.08658E-01 2.35890E-25
3.12697E-01 2.28423E-25
3.16749E-01 2.21235E-25
3.20816E-01 2.14314E-25
3.24896E-01 2.07647E-25
3.28990E-01 2.01225E-25
3.33097E-01 1.95036E-25
3.37216E-01 1.89071E-25
3.41348E-01 1.83320E-25
3.45492E-01 1.77774E-25
3.49647E-01 1.72425E-25
3.53814E-01 1.67264E-25
3.57992E-01 1.62284E-25
3.62181E-01 1.57477E-25
3.66381E-01 1.52836E-25
3.70590E-01 1.48354E-25
3.74810E-01 1.44025E-25
3.79039E-01 1.39843E-25
3.83277E-01 1.35802E-25
3.87524E-01 1.31897E-25
3.91780E-01 1.28122E-25
3.96044E-01 1.24471E-25
4.00316E-01 1.20941E-25
4.04596E-01 1.17527E-25
4.08882E-01 1.14224E-25
4.13176E-01 1.11027E-25
4.17476E-01 1.07934E-25
4.21783E-01 1.04939E-25
4.26095E-01 1.02040E-25
4.30413E-01 9.92322E-26
4.34737E-01 9.65130E-26
4.39065E-01 9.38789E-26
4.43398E-01 9.13268E-26
4.47736E-01 8.88537E-26
4.52077E-01 8.64568E-26
4.56422E-01 8.41333E-26
4.60770E-01 8.18806E-26
4.65122E-01 7.96962E-26
4.69476E-01 7.75776E-26
4.73832E-01 7.55226E-26
4.78190E-01 7.35290E-26
4.82550E-01 7.15945E-26
4.86912E-01 6.97172E-26
4.91274E-01 6.78951E-26
4.95637E-01 6.61262E-26
5.00000E-01 6.44089E-26
5.04363E-01 6.27413E-26
5.08726E-01 6.11218E-26
5.13088E-01 5.95487E-26
5.17450E-01 5.80205E-26
5.21810E-01 5.65357E-26
5.26168E-01 5.50930E-26
5.30524E-01 5.36908E-26
5.34878E-01 5.23279E-26
5.39230E-01 5.10031E-26
5.43578E-01 4.97150E-26
5.47923E-01 4.84625E-26
5.52264E-01 4.72444E-26
5.56602E-01 4.60598E-26
5.60935E-01 4.49074E-26
5.65263E-01 4.37863E-26
5.69587E-01 4.26955E-26
5.73905E-01 4.16340E-26
5.78217E-01 4.06010E-26
5.82524E-01 3.95956E-26
5.86824E-01 3.86169E-26
5.91118E-01 3.76641E-26
5.95404E-01 3.67363E-26
5.99684E-01 3.58330E-26
6.03956E-01 3.49532E-26
6.08220E-01 3.40964E-26
6.12476E-01 3.32617E-26
6.16723E-01 3.24486E-26
6.20961E-01 3.16564E-26
6.25190E-01 3.08845E-26
6.29410E-01 3.01324E-26
6.33619E-01 2.93993E-26
6.37819E-01 2.86848E-26
6.42008E-01 2.79884E-26
6.46186E-01 2.73094E-26
6.50353E-01 2.66475E-26
6.54508E-01 2.60020E-26
6.58652E-01 2.53727E-26
6.62784E-01 2.47589E-26
6.66903E-01 2.41603E-26
6.71010E-01 2.35764E-26
6.75104E-01 2.30068E-26
6.79184E-01 2.24512E-26
6.83251E-01 2.19091E-26
6.87303E-01 2.13801E-26
6.91342E-01 2.08640E-26
6.95366E-01 2.03603E-26
6.99375E-01 1.98687E-26
7.03368E-01 1.93889E-26
7.07347E-01 1.89206E-26
7.11309E-01 1.84634E-26
7.15256E-01 1.80170E-26
7.19186E-01 1.75813E-26
7.23099E-01 1.71558E-26
7.26995E-01 1.67404E-26
7.30874E-01 1.63347E-26
7.34736E-01 1.59385E-26
7.38579E-01 1.55516E-26
7.42405E-01 1.51736E-26
7.46212E-01 1.48045E-26
7.50000E-01 1.44439E-26
7.53769E-01 1.40916E-26
7.57519E-01 1.37475E-26
7.61249E-01 1.34112E-26
7.64960E-01 1.30827E-26
7.68650E-01 1.27617E-26
7.72320E-01 1.24481E-26
7.75968E-01 1.21416E-26
7.79596E-01 1.18420E-26
7.83203E-01 1.15493E-26
7.86788E-01 1.12632E-26
7.90351E-01 1.09836E-26
7.93893E-01 1.07102E-26
7.97411E-01 1.04431E-26
8.00908E-01 1.01819E-26
8.04381E-01 9.92666E-27
8.07831E-01 9.67710E-27
8.11257E-01 9.43314E-27
8.14660E-01 9.19463E-27
8.18039E-01 8.96145E-27
8.21394E-01 8.73347E-27
8.24724E-01 8.51058E-27
8.28030E-01 8.29264E-27
8.31310E-01 8.07956E-27
8.34565E-01 7.87121E-27
8.37795E-01 7.66750E-27
8.40999E-01 7.46830E-27
8.44177E-01 7.27353E-27
8.47329E-01 7.08307E-27
8.50455E-01 6.89684E-27
8.53553E-01 6.71474E-27
8.56625E-01 6.53668E-27
8.59670E-01 6.36256E-27
8.62687E-01 6.19231E-27
8.65677E-01 6.02584E-27
8.68639E-01 5.86306E-27
8.71572E-01 5.70389E-27
8.74478E-01 5.54827E-27
8.77355E-01 5.39610E-27
8.80203E-01 5.24733E-27
8.83022E-01 5.10187E-27
8.85812E-01 4.95967E-27
8.88573E-01 4.82064E-27
8.91304E-01 4.68472E-27
8.94005E-01 4.55186E-27
8.96677E-01 4.42199E-27
8.99318E-01 4.29504E-27
9.01928E-01 4.17097E-27
9.04508E-01 4.04970E-27
9.07058E-01 3.93120E-27
9.09576E-01 3.81539E-27
9.12063E-01 3.70223E-27
9.14519E-01 3.59167E-27
9.16943E-01 3.48366E-27
9.19335E-01 3.37815E-27
9.21696E-01 3.27509E-27
9.24024E-01 3.17444E-27
9.26320E-01 3.07614E-27
9.28584E-01 2.98017E-27
9.30815E-01 2.88647E-27
9.33013E-01 2.79501E-27
9.35178E-01 2.70574E-27
9.37310E-01 2.61862E-27
9.39409E-01 2.53363E-27
9.41474E-01 2.45071E-27
9.43505E-01 2.36984E-27
9.45503E-01 2.29098E-27
9.47467E-01 2.21410E-27
9.49397E-01 2.13917E-27
9.51293E-01 2.06614E-27
9.53154E-01 1.99500E-27
9.54981E-01 1.92571E-27
9.56773E-01 1.85824E-27
9.58530E-01 1.79257E-27
9.60252E-01 1.72866E-27
9.61940E-01 1.66650E-27
9.63592E-01 1.60604E-27
9.65209E-01 1.54728E-27
9.66790E-01 1.49019E-27
9.68336E-01 1.43473E-27
9.69846E-01 1.38090E-27
9.71321E-01 1.32866E-27
9.72759E-01 1.27800E-27
9.74162E-01 1.22889E-27
9.75528E-01 1.18132E-27
9.76858E-01 1.13527E-27
9.78152E-01 1.09071E-27
9.79410E-01 1.04763E-27
9.80631E-01 1.00602E-27
9.81815E-01 9.65849E-28
9.82963E-01 9.27109E-28
9.84074E-01 8.89784E-28
9.85148E-01 8.53857E-28
9.86185E-01 8.19316E-28
9.87185E-01 7.86146E-28
9.88148E-01 7.54334E-28
9.89074E-01 7.23867E-28
9.89962E-01 6.94734E-28
9.90814E-01 6.66924E-28
9.91627E-01 6.40424E-28
9.92404E-01 6.15225E-28
9.93143E-01 5.91316E-28
9.93844E-01 5.68689E-28
9.94508E-01 5.47335E-28
9.95134E-01 5.27245E-28
9.95722E-01 5.08411E-28
9.96273E-01 4.90827E-28
9.96786E-01 4.74484E-28
9.97261E-01 4.59378E-28
9.97698E-01 4.45501E-28
9.98097E-01 4.32849E-28
9.98459E-01 4.21417E-28
9.98782E-01 4.11200E-28
9.99067E-01 4.02194E-28
9.99315E-01 3.94397E-28
9.99524E-01 3.87803E-28
9.99695E-01 3.82413E-28
9.99829E-01 3.78222E-28
9.99924E-01 3.75229E-28
9.99981E-01 3.73435E-28
1.00000E+00 3.72836E-28
