 #
 # Subroutine ELSEPA. Elastic scattering of electrons and positrons
 #                    by neutral atoms and positive ions
 #
 # Projectile: positron
 # Kinetic energy = 2.50000E+08 eV = 9.18733E+06 a.u.
 #
 # WARNING: High-energy factorization with free-atom DF screening.
 #          Absorption, polarization and exchange corrections are
 #          switched off.
 #          Phase shifts are calculated for the bare nucleus.
 #          Scattering amplitudes are not evaluated.
 #
 # Element: Al,  Z =  13,  atomic weight = 2.69815E+01 g/mol
 #
 # Nuclear model: Fermi distribution
 #                Average radius = 3.20927E-13 cm
 #                Skin thickness = 5.46000E-14 cm
 #
 # Number of electrons = 13
 #
 # Total elastic cross section = 7.72389E-19 cm**2 = 2.75825E-02 a0**2
 # 1st transport cross section = 5.81880E-27 cm**2 = 2.07793E-10 a0**2
 # 2nd transport cross section = 1.74121E-26 cm**2 = 6.21799E-10 a0**2
 #
 #
 # Differential cross section:                       MU=(1-COS(THETA))/2
 #
 #  THETA        MU          DCS          DCS        Sherman      error
 #  (deg)                 (cm**2/sr)   (a0**2/sr)    function
 #----------------------------------------------------------------------
0.00000E+00 8.33518E-10
7.61557E-13 8.13814E-10
1.18994E-12 8.03037E-10
1.71346E-12 7.90148E-10
2.33225E-12 7.75300E-10
3.04617E-12 7.58671E-10
3.85530E-12 7.40446E-10
4.75964E-12 7.20822E-10
5.75917E-12 7.00005E-10
6.85391E-12 6.78200E-10
8.04379E-12 6.55607E-10
9.32893E-12 6.32419E-10
1.07092E-11 6.08830E-10
1.21847E-11 5.85016E-10
1.37554E-11 5.61139E-10
1.54213E-11 5.37341E-10
1.71823E-11 5.13767E-10
1.90386E-11 4.90533E-10
2.09900E-11 4.67744E-10
2.30367E-11 4.45477E-10
2.51785E-11 4.23745E-10
2.74156E-11 4.02565E-10
2.97478E-11 3.82201E-10
3.21752E-11 3.62674E-10
3.46979E-11 3.43994E-10
3.73157E-11 3.26164E-10
4.00286E-11 3.08963E-10
4.28368E-11 2.92483E-10
4.57402E-11 2.76842E-10
4.87388E-11 2.62016E-10
5.18325E-11 2.47981E-10
5.50215E-11 2.34708E-10
5.83057E-11 2.22028E-10
6.16850E-11 2.10053E-10
6.51595E-11 1.98757E-10
6.87293E-11 1.88108E-10
7.23943E-11 1.78074E-10
7.61544E-11 1.68614E-10
1.18991E-10 9.96776E-11
1.71347E-10 6.21810E-11
2.33223E-10 4.12059E-11
3.04617E-10 2.88802E-11
3.85531E-10 2.12098E-11
4.75965E-10 1.61495E-11
5.75917E-10 1.26379E-11
6.85389E-10 1.00944E-11
8.04380E-10 8.18440E-12
9.32891E-10 6.71027E-12
1.07092E-09 5.55195E-12
1.21847E-09 4.62735E-12
1.37554E-09 3.87986E-12
1.54213E-09 3.26902E-12
1.71823E-09 2.76792E-12
1.90386E-09 2.35425E-12
2.09900E-09 2.01087E-12
2.30367E-09 1.72390E-12
2.51785E-09 1.48244E-12
2.74156E-09 1.27936E-12
2.97478E-09 1.11185E-12
3.21752E-09 9.66247E-13
3.46978E-09 8.44815E-13
3.73156E-09 7.40179E-13
4.00286E-09 6.51125E-13
4.28368E-09 5.74682E-13
4.57402E-09 5.08661E-13
4.87388E-09 4.51924E-13
5.18326E-09 4.02418E-13
5.50215E-09 3.59670E-13
5.83057E-09 3.22150E-13
6.16850E-09 2.89473E-13
6.51596E-09 2.60754E-13
6.87293E-09 2.35504E-13
7.23942E-09 2.13240E-13
7.61544E-09 1.93520E-13
1.18991E-08 8.21997E-14
1.71347E-08 4.09067E-14
2.33223E-08 2.27076E-14
3.04617E-08 1.36312E-14
3.85531E-08 8.67732E-15
4.75965E-08 5.78294E-15
5.75917E-08 3.99892E-15
6.85389E-08 2.85122E-15
8.04380E-08 2.08602E-15
9.32891E-08 1.56035E-15
1.07092E-07 1.18978E-15
1.21847E-07 9.22619E-16
1.37554E-07 7.26193E-16
1.54213E-07 5.79219E-16
1.71823E-07 4.67522E-16
1.90386E-07 3.81434E-16
2.09900E-07 3.14237E-16
2.30367E-07 2.61179E-16
2.51785E-07 2.18839E-16
2.74156E-07 1.84729E-16
2.97478E-07 1.57005E-16
3.21752E-07 1.34284E-16
3.46978E-07 1.15524E-16
3.73156E-07 9.99248E-17
4.00286E-07 8.68695E-17
4.28368E-07 7.58764E-17
4.57402E-07 6.65670E-17
4.87388E-07 5.86415E-17
5.18325E-07 5.18604E-17
5.50215E-07 4.60311E-17
5.83057E-07 4.09979E-17
6.16850E-07 3.66338E-17
6.51596E-07 3.28349E-17
6.87293E-07 2.95158E-17
7.23942E-07 2.66054E-17
7.61543E-07 2.40450E-17
1.18991E-06 9.85341E-18
1.71347E-06 4.75259E-18
2.33223E-06 2.56524E-18
3.04617E-06 1.50362E-18
3.85531E-06 9.38650E-19
4.75964E-06 6.15813E-19
5.75916E-06 4.20584E-19
6.85388E-06 2.96943E-19
8.04378E-06 2.15575E-19
9.32888E-06 1.60263E-19
1.07092E-05 1.21606E-19
1.21846E-05 9.39320E-20
1.37553E-05 7.37006E-20
1.54212E-05 5.86341E-20
1.71822E-05 4.72280E-20
1.90385E-05 3.84641E-20
2.09899E-05 3.16434E-20
2.30365E-05 2.62694E-20
2.51783E-05 2.19890E-20
2.74153E-05 1.85457E-20
2.97475E-05 1.57505E-20
3.21749E-05 1.34626E-20
3.46974E-05 1.15754E-20
3.73152E-05 1.00076E-20
4.00281E-05 8.69655E-21
4.28362E-05 7.59330E-21
4.57395E-05 6.65955E-21
4.87380E-05 5.86499E-21
5.18317E-05 5.18543E-21
5.50205E-05 4.60147E-21
5.83045E-05 4.09742E-21
6.16838E-05 3.66053E-21
6.51582E-05 3.28034E-21
6.87277E-05 2.94825E-21
7.23925E-05 2.65714E-21
7.61524E-05 2.39806E-21
9.21439E-05 1.63704E-21
1.09658E-04 1.15521E-21
1.28695E-04 8.38217E-22
1.49255E-04 6.22796E-22
1.71338E-04 4.72292E-22
1.94942E-04 3.64585E-22
2.20070E-04 2.85872E-22
2.46720E-04 2.27277E-22
2.74892E-04 1.82933E-22
3.04586E-04 1.48880E-22
3.35803E-04 1.22382E-22
3.68542E-04 1.01514E-22
4.02802E-04 8.49012E-23
4.38585E-04 7.15443E-23
4.75889E-04 6.07075E-23
5.14715E-04 5.18414E-23
5.55063E-04 4.45318E-23
5.96931E-04 3.84622E-23
6.40321E-04 3.33888E-23
6.85233E-04 2.91220E-23
7.31665E-04 2.55129E-23
7.79618E-04 2.24436E-23
8.29092E-04 1.98202E-23
8.80086E-04 1.75674E-23
9.32601E-04 1.56241E-23
9.86636E-04 1.39408E-23
1.04219E-03 1.24770E-23
1.09927E-03 1.11992E-23
1.15786E-03 1.00798E-23
1.21797E-03 9.09588E-24
1.27961E-03 8.22832E-24
1.34276E-03 7.46101E-24
1.40743E-03 6.78039E-24
1.47362E-03 6.17502E-24
1.54133E-03 5.63515E-24
1.61056E-03 5.15248E-24
1.68131E-03 4.71993E-24
1.75357E-03 4.33138E-24
1.82735E-03 3.98160E-24
1.90265E-03 3.66606E-24
1.97947E-03 3.38082E-24
2.05780E-03 3.12247E-24
2.13765E-03 2.88804E-24
2.21902E-03 2.67493E-24
2.30190E-03 2.48087E-24
2.38630E-03 2.30386E-24
2.47222E-03 2.14214E-24
2.55965E-03 1.99417E-24
2.64859E-03 1.85856E-24
2.73905E-03 1.73411E-24
2.83103E-03 1.61974E-24
2.92452E-03 1.51450E-24
3.01952E-03 1.41752E-24
3.11604E-03 1.32804E-24
3.21407E-03 1.24539E-24
3.31362E-03 1.16896E-24
3.41468E-03 1.09818E-24
3.51725E-03 1.03258E-24
3.62133E-03 9.71706E-25
3.72692E-03 9.15159E-25
3.83403E-03 8.62579E-25
3.94265E-03 8.13640E-25
4.05278E-03 7.68045E-25
4.16442E-03 7.25526E-25
4.27757E-03 6.85839E-25
4.39223E-03 6.48764E-25
4.50840E-03 6.14098E-25
4.62608E-03 5.81658E-25
4.74527E-03 5.51276E-25
4.86597E-03 5.22800E-25
4.98817E-03 4.96088E-25
5.11188E-03 4.71013E-25
5.23711E-03 4.47457E-25
5.36383E-03 4.25313E-25
5.49207E-03 4.04480E-25
5.62181E-03 3.84868E-25
5.75306E-03 3.66394E-25
5.88581E-03 3.48980E-25
6.02007E-03 3.32554E-25
6.15583E-03 3.17051E-25
6.29310E-03 3.02410E-25
6.43187E-03 2.88576E-25
6.57214E-03 2.75495E-25
6.71392E-03 2.63121E-25
6.85720E-03 2.51408E-25
7.00198E-03 2.40316E-25
7.14827E-03 2.29804E-25
7.29605E-03 2.19840E-25
7.44534E-03 2.10387E-25
7.59612E-03 2.01417E-25
7.97965E-03 1.80918E-25
8.37255E-03 1.62859E-25
8.77480E-03 1.46906E-25
9.18641E-03 1.32775E-25
9.60736E-03 1.20228E-25
1.00376E-02 1.09059E-25
1.04773E-02 9.90954E-26
1.09262E-02 9.01867E-26
1.13844E-02 8.22049E-26
1.18520E-02 7.50392E-26
1.23288E-02 6.85938E-26
1.28150E-02 6.27858E-26
1.33104E-02 5.75429E-26
1.38150E-02 5.28023E-26
1.43290E-02 4.85088E-26
1.48521E-02 4.46143E-26
1.53845E-02 4.10765E-26
1.59262E-02 3.78581E-26
1.64770E-02 3.49262E-26
1.70371E-02 3.22518E-26
1.76063E-02 2.98092E-26
1.81848E-02 2.75756E-26
1.87724E-02 2.55307E-26
1.93692E-02 2.36565E-26
1.99751E-02 2.19367E-26
2.05901E-02 2.03570E-26
2.12143E-02 1.89046E-26
2.18476E-02 1.75678E-26
2.24900E-02 1.63363E-26
2.31415E-02 1.52008E-26
2.38021E-02 1.41528E-26
2.44717E-02 1.31849E-26
2.51504E-02 1.22900E-26
2.58382E-02 1.14622E-26
2.65349E-02 1.06957E-26
2.72407E-02 9.98544E-27
2.79555E-02 9.32690E-27
2.86793E-02 8.71587E-27
2.94120E-02 8.14852E-27
3.01537E-02 7.62140E-27
3.09043E-02 7.13135E-27
3.16639E-02 6.67548E-27
3.24324E-02 6.25116E-27
3.32098E-02 5.85599E-27
3.39961E-02 5.48776E-27
3.47912E-02 5.14445E-27
3.55952E-02 4.82421E-27
3.64081E-02 4.52534E-27
3.72297E-02 4.24629E-27
3.80602E-02 3.98561E-27
3.88995E-02 3.74199E-27
3.97476E-02 3.51421E-27
4.06044E-02 3.30116E-27
4.14700E-02 3.10179E-27
4.23443E-02 2.91516E-27
4.32273E-02 2.74039E-27
4.41190E-02 2.57667E-27
4.50194E-02 2.42323E-27
4.59284E-02 2.27939E-27
4.68461E-02 2.14450E-27
4.87074E-02 1.89923E-27
5.06030E-02 1.68313E-27
5.25328E-02 1.49253E-27
5.44967E-02 1.32423E-27
5.64946E-02 1.17548E-27
5.85262E-02 1.04389E-27
6.05914E-02 9.27385E-28
6.26901E-02 8.24153E-28
6.48222E-02 7.32619E-28
6.69873E-02 6.51403E-28
6.91854E-02 5.79299E-28
7.14163E-02 5.15252E-28
7.36799E-02 4.58332E-28
7.59760E-02 4.07724E-28
7.83043E-02 3.62711E-28
8.06647E-02 3.22662E-28
8.30571E-02 2.87017E-28
8.54812E-02 2.55286E-28
8.79369E-02 2.27032E-28
9.04240E-02 2.01870E-28
9.29422E-02 1.79459E-28
9.54915E-02 1.59497E-28
9.80716E-02 1.41715E-28
1.00682E-01 1.25875E-28
1.03323E-01 1.11766E-28
1.05995E-01 9.91990E-29
1.08696E-01 8.80071E-29
1.11427E-01 7.80413E-29
1.14188E-01 6.91688E-29
1.16978E-01 6.12714E-29
1.19797E-01 5.42438E-29
1.22645E-01 4.79921E-29
1.25522E-01 4.24324E-29
1.28428E-01 3.74900E-29
1.31361E-01 3.30982E-29
1.34323E-01 2.91973E-29
1.37313E-01 2.57341E-29
1.40330E-01 2.26613E-29
1.43375E-01 1.99362E-29
1.46447E-01 1.75212E-29
1.49545E-01 1.53822E-29
1.52671E-01 1.34892E-29
1.55823E-01 1.18150E-29
1.59001E-01 1.03356E-29
1.62205E-01 9.02941E-30
1.65435E-01 7.87722E-30
1.68690E-01 6.86186E-30
1.71970E-01 5.96800E-30
1.75276E-01 5.18198E-30
1.78606E-01 4.49159E-30
1.81961E-01 3.88595E-30
1.85340E-01 3.35536E-30
1.88743E-01 2.89119E-30
1.92169E-01 2.48572E-30
1.95619E-01 2.13212E-30
1.99092E-01 1.82426E-30
2.02589E-01 1.55674E-30
2.06107E-01 1.32473E-30
2.09649E-01 1.12393E-30
2.13212E-01 9.50567E-31
2.16797E-01 8.01248E-31
2.20404E-01 6.72989E-31
2.24032E-01 5.63144E-31
2.27680E-01 4.69370E-31
2.31350E-01 3.89598E-31
2.35040E-01 3.22000E-31
2.38751E-01 2.64964E-31
2.42481E-01 2.17072E-31
2.46231E-01 1.77073E-31
2.50000E-01 1.43872E-31
2.53788E-01 1.16504E-31
2.57595E-01 9.41281E-32
2.61421E-01 7.60064E-32
2.65264E-01 6.14958E-32
2.69126E-01 5.00362E-32
2.73005E-01 4.11406E-32
2.76901E-01 3.43871E-32
2.80814E-01 2.94105E-32
2.84744E-01 2.58962E-32
2.88691E-01 2.35735E-32
2.92653E-01 2.22108E-32
2.96632E-01 2.16101E-32
3.00625E-01 2.16035E-32
3.04634E-01 2.20488E-32
3.08658E-01 2.28267E-32
3.12697E-01 2.38374E-32
3.16749E-01 2.49980E-32
3.20816E-01 2.62406E-32
3.24896E-01 2.75099E-32
3.28990E-01 2.87616E-32
3.33097E-01 2.99607E-32
3.37216E-01 3.10801E-32
3.41348E-01 3.20996E-32
3.45492E-01 3.30046E-32
3.49647E-01 3.37854E-32
3.53814E-01 3.44362E-32
3.57992E-01 3.49545E-32
3.62181E-01 3.53404E-32
3.66381E-01 3.55965E-32
3.70590E-01 3.57266E-32
3.74810E-01 3.57363E-32
3.79039E-01 3.56320E-32
3.83277E-01 3.54209E-32
3.87524E-01 3.51107E-32
3.91780E-01 3.47092E-32
3.96044E-01 3.42248E-32
4.00316E-01 3.36654E-32
4.04596E-01 3.30392E-32
4.08882E-01 3.23540E-32
4.13176E-01 3.16173E-32
4.17476E-01 3.08365E-32
4.21783E-01 3.00185E-32
4.26095E-01 2.91697E-32
4.30413E-01 2.82964E-32
4.34737E-01 2.74043E-32
4.39065E-01 2.64987E-32
4.43398E-01 2.55844E-32
4.47736E-01 2.46660E-32
4.52077E-01 2.37475E-32
4.56422E-01 2.28327E-32
4.60770E-01 2.19249E-32
4.65122E-01 2.10270E-32
4.69476E-01 2.01417E-32
4.73832E-01 1.92713E-32
4.78190E-01 1.84178E-32
4.82550E-01 1.75830E-32
4.86912E-01 1.67683E-32
4.91274E-01 1.59750E-32
4.95637E-01 1.52040E-32
5.00000E-01 1.44562E-32
5.04363E-01 1.37322E-32
5.08726E-01 1.30325E-32
5.13088E-01 1.23573E-32
5.17450E-01 1.17068E-32
5.21810E-01 1.10810E-32
5.26168E-01 1.04798E-32
5.30524E-01 9.90304E-33
5.34878E-01 9.35046E-33
5.39230E-01 8.82169E-33
5.43578E-01 8.31632E-33
5.47923E-01 7.83386E-33
5.52264E-01 7.37380E-33
5.56602E-01 6.93556E-33
5.60935E-01 6.51856E-33
5.65263E-01 6.12216E-33
5.69587E-01 5.74571E-33
5.73905E-01 5.38856E-33
5.78217E-01 5.05003E-33
5.82524E-01 4.72944E-33
5.86824E-01 4.42611E-33
5.91118E-01 4.13936E-33
5.95404E-01 3.86852E-33
5.99684E-01 3.61291E-33
6.03956E-01 3.37188E-33
6.08220E-01 3.14477E-33
6.12476E-01 2.93094E-33
6.16723E-01 2.72979E-33
6.20961E-01 2.54070E-33
6.25190E-01 2.36309E-33
6.29410E-01 2.19637E-33
6.33619E-01 2.04001E-33
6.37819E-01 1.89346E-33
6.42008E-01 1.75620E-33
6.46186E-01 1.62774E-33
6.50353E-01 1.50760E-33
6.54508E-01 1.39533E-33
6.58652E-01 1.29048E-33
6.62784E-01 1.19263E-33
6.66903E-01 1.10138E-33
6.71010E-01 1.01634E-33
6.75104E-01 9.37152E-34
6.79184E-01 8.63457E-34
6.83251E-01 7.94929E-34
6.87303E-01 7.31249E-34
6.91342E-01 6.72116E-34
6.95366E-01 6.17247E-34
6.99375E-01 5.66371E-34
7.03368E-01 5.19234E-34
7.07347E-01 4.75592E-34
7.11309E-01 4.35218E-34
7.15256E-01 3.97896E-34
7.19186E-01 3.63423E-34
7.23099E-01 3.31605E-34
7.26995E-01 3.02264E-34
7.30874E-01 2.75227E-34
7.34736E-01 2.50336E-34
7.38579E-01 2.27441E-34
7.42405E-01 2.06399E-34
7.46212E-01 1.87078E-34
7.50000E-01 1.69355E-34
7.53769E-01 1.53114E-34
7.57519E-01 1.38244E-34
7.61249E-01 1.24644E-34
7.64960E-01 1.12220E-34
7.68650E-01 1.00881E-34
7.72320E-01 9.05457E-35
7.75968E-01 8.11355E-35
7.79596E-01 7.25786E-35
7.83203E-01 6.48075E-35
7.86788E-01 5.77601E-35
7.90351E-01 5.13775E-35
7.93893E-01 4.56061E-35
7.97411E-01 4.03955E-35
8.00908E-01 3.56988E-35
8.04381E-01 3.14731E-35
8.07831E-01 2.76780E-35
8.11257E-01 2.42766E-35
8.14660E-01 2.12344E-35
8.18039E-01 1.85198E-35
8.21394E-01 1.61034E-35
8.24724E-01 1.39581E-35
8.28030E-01 1.20589E-35
8.31310E-01 1.03829E-35
8.34565E-01 8.90889E-36
8.37795E-01 7.61742E-36
8.40999E-01 6.49053E-36
8.44177E-01 5.51193E-36
8.47329E-01 4.66645E-36
8.50455E-01 3.94027E-36
8.53553E-01 3.32101E-36
8.56625E-01 2.79682E-36
8.59670E-01 2.35739E-36
8.62687E-01 1.99300E-36
8.65677E-01 1.69495E-36
8.68639E-01 1.45536E-36
8.71572E-01 1.26709E-36
8.74478E-01 1.12337E-36
8.77355E-01 1.01835E-36
8.80203E-01 9.46988E-37
8.83022E-01 9.04066E-37
8.85812E-01 8.85555E-37
8.88573E-01 8.87407E-37
8.91304E-01 9.06223E-37
8.94005E-01 9.38724E-37
8.96677E-01 9.82339E-37
8.99318E-01 1.03431E-36
9.01928E-01 1.09307E-36
9.04508E-01 1.15623E-36
9.07058E-01 1.22220E-36
9.09576E-01 1.28937E-36
9.12063E-01 1.35686E-36
9.14519E-01 1.42337E-36
9.16943E-01 1.48786E-36
9.19335E-01 1.54959E-36
9.21696E-01 1.60793E-36
9.24024E-01 1.66261E-36
9.26320E-01 1.71285E-36
9.28584E-01 1.75828E-36
9.30815E-01 1.79882E-36
9.33013E-01 1.83421E-36
9.35178E-01 1.86408E-36
9.37310E-01 1.88894E-36
9.39409E-01 1.90820E-36
9.41474E-01 1.92232E-36
9.43505E-01 1.93115E-36
9.45503E-01 1.93495E-36
9.47467E-01 1.93349E-36
9.49397E-01 1.92739E-36
9.51293E-01 1.91650E-36
9.53154E-01 1.90117E-36
9.54981E-01 1.88175E-36
9.56773E-01 1.85796E-36
9.58530E-01 1.83065E-36
9.60252E-01 1.79955E-36
9.61940E-01 1.76535E-36
9.63592E-01 1.72776E-36
9.65209E-01 1.68744E-36
9.66790E-01 1.64462E-36
9.68336E-01 1.59954E-36
9.69846E-01 1.55230E-36
9.71321E-01 1.50313E-36
9.72759E-01 1.45242E-36
9.74162E-01 1.40028E-36
9.75528E-01 1.34694E-36
9.76858E-01 1.29252E-36
9.78152E-01 1.23760E-36
9.79410E-01 1.18201E-36
9.80631E-01 1.12615E-36
9.81815E-01 1.07016E-36
9.82963E-01 1.01408E-36
9.84074E-01 9.58354E-37
9.85148E-01 9.02858E-37
9.86185E-01 8.48283E-37
9.87185E-01 7.94194E-37
9.88148E-01 7.41173E-37
9.89074E-01 6.88881E-37
9.89962E-01 6.37822E-37
9.90814E-01 5.88067E-37
9.91627E-01 5.39883E-37
9.92404E-01 4.92965E-37
9.93143E-01 4.47812E-37
9.93844E-01 4.04365E-37
9.94508E-01 3.62782E-37
9.95134E-01 3.23028E-37
9.95722E-01 2.85336E-37
9.96273E-01 2.49778E-37
9.96786E-01 2.16315E-37
9.97261E-01 1.85097E-37
9.97698E-01 1.56176E-37
9.98097E-01 1.29461E-37
9.98459E-01 1.05282E-37
9.98782E-01 8.34185E-38
9.99067E-01 6.40847E-38
9.99315E-01 4.72453E-38
9.99524E-01 3.29474E-38
9.99695E-01 2.13119E-38
9.99829E-01 1.21228E-38
9.99924E-01 5.56737E-39
9.99981E-01 1.63478E-39
1.00000E+00 3.24411E-40
