 #
 # Subroutine ELSEPA. Elastic scattering of electrons and positrons
 #                    by neutral atoms and positive ions
 #
 # Projectile: positron
 # Kinetic energy = 8.00000E+08 eV = 2.93995E+07 a.u.
 #
 # WARNING: High-energy factorization with free-atom DF screening.
 #          Absorption, polarization and exchange corrections are
 #          switched off.
 #          Phase shifts are calculated for the bare nucleus.
 #          Scattering amplitudes are not evaluated.
 #
 # Element:  V,  Z =  23,  atomic weight = 5.09415E+01 g/mol
 #
 # Nuclear model: Fermi distribution
 #                Average radius = 3.96650E-13 cm
 #                Skin thickness = 5.46000E-14 cm
 #
 # Number of electrons = 23
 #
 # Total elastic cross section = 1.90796E-18 cm**2 = 6.81346E-02 a0**2
 # 1st transport cross section = 1.72859E-27 cm**2 = 6.17291E-11 a0**2
 # 2nd transport cross section = 5.18472E-27 cm**2 = 1.85150E-10 a0**2
 #
 #
 # Differential cross section:                       MU=(1-COS(THETA))/2
 #
 #  THETA        MU          DCS          DCS        Sherman      error
 #  (deg)                 (cm**2/sr)   (a0**2/sr)    function
 #----------------------------------------------------------------------
0.00000E+00 1.68050E-08
7.61557E-13 1.33696E-08
1.18994E-12 1.18985E-08
1.71346E-12 1.04257E-08
2.33225E-12 9.03462E-09
3.04617E-12 7.77588E-09
3.85530E-12 6.67156E-09
4.75964E-12 5.72362E-09
5.75917E-12 4.92105E-09
6.85391E-12 4.24761E-09
8.04379E-12 3.68416E-09
9.32893E-12 3.21294E-09
1.07092E-11 2.81776E-09
1.21847E-11 2.48474E-09
1.37554E-11 2.20262E-09
1.54213E-11 1.96192E-09
1.71823E-11 1.75524E-09
1.90386E-11 1.57655E-09
2.09900E-11 1.42093E-09
2.30367E-11 1.28479E-09
2.51785E-11 1.16466E-09
2.74156E-11 1.05854E-09
2.97478E-11 9.63841E-10
3.21752E-11 8.79491E-10
3.46979E-11 8.03675E-10
3.73157E-11 7.32374E-10
4.00286E-11 6.67403E-10
4.28368E-11 6.10496E-10
4.57402E-11 5.60463E-10
4.87388E-11 5.16308E-10
5.18325E-11 4.77205E-10
5.50215E-11 4.42455E-10
5.83057E-11 4.07305E-10
6.16850E-11 3.74579E-10
6.51595E-11 3.45426E-10
6.87293E-11 3.19379E-10
7.23943E-11 2.96041E-10
7.61544E-11 2.75074E-10
1.18991E-10 1.34622E-10
1.71347E-10 7.20528E-11
2.33223E-10 4.20247E-11
3.04617E-10 2.63904E-11
3.85531E-10 1.75895E-11
4.75965E-10 1.22624E-11
5.75917E-10 8.85206E-12
6.85389E-10 6.55402E-12
8.04380E-10 4.95821E-12
9.32891E-10 3.81154E-12
1.07092E-09 2.97418E-12
1.21847E-09 2.34956E-12
1.37554E-09 1.87777E-12
1.54213E-09 1.51622E-12
1.71823E-09 1.23604E-12
1.90386E-09 1.01667E-12
2.09900E-09 8.43174E-13
2.30367E-09 7.04834E-13
2.51785E-09 5.93473E-13
2.74156E-09 5.03178E-13
2.97478E-09 4.29322E-13
3.21752E-09 3.68522E-13
3.46978E-09 3.18098E-13
3.73156E-09 2.75990E-13
4.00286E-09 2.40659E-13
4.28368E-09 2.10870E-13
4.57402E-09 1.85525E-13
4.87388E-09 1.63905E-13
5.18326E-09 1.45376E-13
5.50215E-09 1.29379E-13
5.83057E-09 1.15548E-13
6.16850E-09 1.03528E-13
6.51596E-09 9.30300E-14
6.87293E-09 8.38462E-14
7.23942E-09 7.57670E-14
7.61544E-09 6.86412E-14
1.18991E-08 2.87302E-14
1.71347E-08 1.40678E-14
2.33223E-08 7.67191E-15
3.04617E-08 4.52855E-15
3.85531E-08 2.84055E-15
4.75965E-08 1.86979E-15
5.75917E-08 1.28005E-15
6.85389E-08 9.05305E-16
8.04380E-08 6.58076E-16
9.32891E-08 4.89704E-16
1.07092E-07 3.71861E-16
1.21847E-07 2.87407E-16
1.37554E-07 2.25612E-16
1.54213E-07 1.79560E-16
1.71823E-07 1.44677E-16
1.90386E-07 1.17865E-16
2.09900E-07 9.69845E-17
2.30367E-07 8.05285E-17
2.51785E-07 6.74186E-17
2.74156E-07 5.68706E-17
2.97478E-07 4.83067E-17
3.21752E-07 4.12956E-17
3.46978E-07 3.55113E-17
3.73156E-07 3.07051E-17
4.00286E-07 2.66850E-17
4.28368E-07 2.33018E-17
4.57402E-07 2.04381E-17
4.87388E-07 1.80010E-17
5.18325E-07 1.59166E-17
5.50215E-07 1.41253E-17
5.83057E-07 1.25791E-17
6.16850E-07 1.12387E-17
6.51596E-07 1.00722E-17
6.87293E-07 9.05312E-18
7.23942E-07 8.15975E-18
7.61543E-07 7.37390E-18
1.18991E-06 3.02033E-18
1.71347E-06 1.45648E-18
2.33223E-06 7.86112E-19
3.04617E-06 4.60764E-19
3.85531E-06 2.87626E-19
4.75964E-06 1.88693E-19
5.75916E-06 1.28868E-19
6.85388E-06 9.09801E-20
8.04378E-06 6.60472E-20
9.32888E-06 4.90989E-20
1.07092E-05 3.72542E-20
1.21846E-05 2.87751E-20
1.37553E-05 2.25765E-20
1.54212E-05 1.79604E-20
1.71822E-05 1.44660E-20
1.90385E-05 1.17817E-20
2.09899E-05 9.69247E-21
2.30365E-05 8.04608E-21
2.51783E-05 6.73455E-21
2.74153E-05 5.67949E-21
2.97475E-05 4.82313E-21
3.21749E-05 4.12228E-21
3.46974E-05 3.54429E-21
3.73152E-05 3.06419E-21
4.00281E-05 2.66271E-21
4.28362E-05 2.32487E-21
4.57395E-05 2.03892E-21
4.87380E-05 1.79557E-21
5.18317E-05 1.58744E-21
5.50205E-05 1.40859E-21
5.83045E-05 1.25423E-21
6.16838E-05 1.12045E-21
6.51582E-05 1.00404E-21
6.87277E-05 9.02369E-22
7.23925E-05 8.13245E-22
7.61524E-05 7.23021E-22
9.21439E-05 4.91689E-22
1.09658E-04 3.45509E-22
1.28695E-04 2.49541E-22
1.49255E-04 1.84472E-22
1.71338E-04 1.39129E-22
1.94942E-04 1.06767E-22
2.20070E-04 8.31884E-23
2.46720E-04 6.56917E-23
2.74892E-04 5.24962E-23
3.04586E-04 4.24002E-23
3.35803E-04 3.45744E-23
3.68542E-04 2.84372E-23
4.02802E-04 2.35728E-23
4.38585E-04 1.96799E-23
4.75889E-04 1.65368E-23
5.14715E-04 1.39785E-23
5.55063E-04 1.18807E-23
5.96931E-04 1.01486E-23
6.40321E-04 8.70933E-24
6.85233E-04 7.50634E-24
7.31665E-04 6.49531E-24
7.79618E-04 5.64128E-24
8.29092E-04 4.91642E-24
8.80086E-04 4.29845E-24
9.32601E-04 3.76942E-24
9.86636E-04 3.31475E-24
1.04219E-03 2.92255E-24
1.09927E-03 2.58307E-24
1.15786E-03 2.28827E-24
1.21797E-03 2.03149E-24
1.27961E-03 1.80717E-24
1.34276E-03 1.61068E-24
1.40743E-03 1.43812E-24
1.47362E-03 1.28621E-24
1.54133E-03 1.15216E-24
1.61056E-03 1.03363E-24
1.68131E-03 9.28584E-25
1.75357E-03 8.35319E-25
1.82735E-03 7.52355E-25
1.90265E-03 6.78425E-25
1.97947E-03 6.12435E-25
2.05780E-03 5.53438E-25
2.13765E-03 5.00612E-25
2.21902E-03 4.53245E-25
2.30190E-03 4.10714E-25
2.38630E-03 3.72477E-25
2.47222E-03 3.38057E-25
2.55965E-03 3.07036E-25
2.64859E-03 2.79049E-25
2.73905E-03 2.53771E-25
2.83103E-03 2.30918E-25
2.92452E-03 2.10238E-25
3.01952E-03 1.91507E-25
3.11604E-03 1.74526E-25
3.21407E-03 1.59120E-25
3.31362E-03 1.45132E-25
3.41468E-03 1.32423E-25
3.51725E-03 1.20867E-25
3.62133E-03 1.10353E-25
3.72692E-03 1.00782E-25
3.83403E-03 9.20636E-26
3.94265E-03 8.41178E-26
4.05278E-03 7.68725E-26
4.16442E-03 7.02628E-26
4.27757E-03 6.42304E-26
4.39223E-03 5.87227E-26
4.50840E-03 5.36920E-26
4.62608E-03 4.90955E-26
4.74527E-03 4.48943E-26
4.86597E-03 4.10534E-26
4.98817E-03 3.75408E-26
5.11188E-03 3.43279E-26
5.23711E-03 3.13883E-26
5.36383E-03 2.86984E-26
5.49207E-03 2.62365E-26
5.62181E-03 2.39830E-26
5.75306E-03 2.19200E-26
5.88581E-03 2.00313E-26
6.02007E-03 1.83019E-26
6.15583E-03 1.67185E-26
6.29310E-03 1.52686E-26
6.43187E-03 1.39411E-26
6.57214E-03 1.27255E-26
6.71392E-03 1.16125E-26
6.85720E-03 1.05936E-26
7.00198E-03 9.66089E-27
7.14827E-03 8.80713E-27
7.29605E-03 8.02578E-27
7.44534E-03 7.31080E-27
7.59612E-03 6.65669E-27
7.97965E-03 5.25552E-27
8.37255E-03 4.13608E-27
8.77480E-03 3.24344E-27
9.18641E-03 2.53330E-27
9.60736E-03 1.96986E-27
1.00376E-02 1.52424E-27
1.04773E-02 1.17306E-27
1.09262E-02 8.97462E-28
1.13844E-02 6.82188E-28
1.18520E-02 5.14933E-28
1.23288E-02 3.85774E-28
1.28150E-02 2.86723E-28
1.33104E-02 2.11359E-28
1.38150E-02 1.54538E-28
1.43290E-02 1.12144E-28
1.48521E-02 8.08991E-29
1.53845E-02 5.82020E-29
1.59262E-02 4.19964E-29
1.64770E-02 3.06665E-29
1.70371E-02 2.29500E-29
1.76063E-02 1.78678E-29
1.81848E-02 1.46671E-29
1.87724E-02 1.27748E-29
1.93692E-02 1.17599E-29
1.99751E-02 1.13030E-29
2.05901E-02 1.11720E-29
2.12143E-02 1.12020E-29
2.18476E-02 1.12802E-29
2.24900E-02 1.13325E-29
2.31415E-02 1.13143E-29
2.38021E-02 1.12021E-29
2.44717E-02 1.09878E-29
2.51504E-02 1.06735E-29
2.58382E-02 1.02685E-29
2.65349E-02 9.78591E-30
2.72407E-02 9.24115E-30
2.79555E-02 8.65020E-30
2.86793E-02 8.02865E-30
2.94120E-02 7.39101E-30
3.01537E-02 6.75027E-30
3.09043E-02 6.11770E-30
3.16639E-02 5.50270E-30
3.24324E-02 4.91288E-30
3.32098E-02 4.35412E-30
3.39961E-02 3.83069E-30
3.47912E-02 3.34546E-30
3.55952E-02 2.90001E-30
3.64081E-02 2.49490E-30
3.72297E-02 2.12977E-30
3.80602E-02 1.80355E-30
3.88995E-02 1.51461E-30
3.97476E-02 1.26090E-30
4.06044E-02 1.04005E-30
4.14700E-02 8.49520E-31
4.23443E-02 6.86657E-31
4.32273E-02 5.48785E-31
4.41190E-02 4.33262E-31
4.50194E-02 3.37530E-31
4.59284E-02 2.59155E-31
4.68461E-02 1.95850E-31
4.87074E-02 1.06150E-31
5.06030E-02 5.36437E-32
5.25328E-02 2.64417E-32
5.44967E-02 1.53900E-32
5.64946E-02 1.37470E-32
5.85262E-02 1.67917E-32
6.05914E-02 2.14182E-32
6.26901E-02 2.57536E-32
6.48222E-02 2.88207E-32
6.69873E-02 3.02575E-32
6.91854E-02 3.00934E-32
7.14163E-02 2.85800E-32
7.36799E-02 2.60690E-32
7.59760E-02 2.29303E-32
7.83043E-02 1.95009E-32
8.06647E-02 1.60582E-32
8.30571E-02 1.28092E-32
8.54812E-02 9.89242E-33
8.79369E-02 7.38489E-33
9.04240E-02 5.31407E-33
9.29422E-02 3.66994E-33
9.54915E-02 2.41682E-33
9.80716E-02 1.50372E-33
1.00682E-01 8.72696E-34
1.03323E-01 4.65225E-34
1.05995E-01 2.26610E-34
1.08696E-01 1.08725E-34
1.11427E-01 7.13870E-35
1.14188E-01 8.27021E-35
1.16978E-01 1.18663E-34
1.19797E-01 1.62288E-34
1.22645E-01 2.02510E-34
1.25522E-01 2.32976E-34
1.28428E-01 2.50894E-34
1.31361E-01 2.55983E-34
1.34323E-01 2.49582E-34
1.37313E-01 2.33942E-34
1.40330E-01 2.11679E-34
1.43375E-01 1.85387E-34
1.46447E-01 1.57393E-34
1.49545E-01 1.29612E-34
1.52671E-01 1.03496E-34
1.55823E-01 8.00313E-35
1.59001E-01 5.97902E-35
1.62205E-01 4.29941E-35
1.65435E-01 2.95915E-35
1.68690E-01 1.93349E-35
1.71970E-01 1.18511E-35
1.75276E-01 6.70130E-36
1.78606E-01 3.42875E-36
1.81961E-01 1.59455E-36
1.85340E-01 8.01783E-37
1.88743E-01 7.09749E-37
1.92169E-01 1.04018E-36
1.95619E-01 1.57742E-36
1.99092E-01 2.16394E-36
2.02589E-01 2.69341E-36
2.06107E-01 3.10214E-36
2.09649E-01 3.36015E-36
2.13212E-01 3.46252E-36
2.16797E-01 3.42163E-36
2.20404E-01 3.26052E-36
2.24032E-01 3.00749E-36
2.27680E-01 2.69212E-36
2.31350E-01 2.34221E-36
2.35040E-01 1.98203E-36
2.38751E-01 1.63127E-36
2.42481E-01 1.30471E-36
2.46231E-01 1.01237E-36
2.50000E-01 7.59988E-37
2.53788E-01 5.49697E-37
2.57595E-01 3.80768E-37
2.61421E-01 2.50379E-37
2.65264E-01 1.54284E-37
2.69126E-01 8.74545E-38
2.73005E-01 4.45650E-38
2.76901E-01 2.04011E-38
2.80814E-01 1.01352E-38
2.84744E-01 9.51424E-39
2.88691E-01 1.49622E-38
2.92653E-01 2.36141E-38
2.96632E-01 3.32869E-38
3.00625E-01 4.24320E-38
3.04634E-01 5.00330E-38
3.08658E-01 5.55296E-38
3.12697E-01 5.87099E-38
3.16749E-01 5.96218E-38
3.20816E-01 5.84899E-38
3.24896E-01 5.56530E-38
3.28990E-01 5.15009E-38
3.33097E-01 4.64364E-38
3.37216E-01 4.08402E-38
3.41348E-01 3.50512E-38
3.45492E-01 2.93548E-38
3.49647E-01 2.39728E-38
3.53814E-01 1.90666E-38
3.57992E-01 1.47374E-38
3.62181E-01 1.10362E-38
3.66381E-01 7.97046E-39
3.70590E-01 5.51551E-39
3.74810E-01 3.62130E-39
3.79039E-01 1.00000E-45
3.83277E-01 1.00000E-45
3.87524E-01 1.00000E-45
3.91780E-01 1.00000E-45
3.96044E-01 1.00000E-45
4.00316E-01 1.00000E-45
4.04596E-01 1.00000E-45
4.08882E-01 1.00000E-45
4.13176E-01 1.00000E-45
4.17476E-01 1.00000E-45
4.21783E-01 1.00000E-45
4.26095E-01 1.00000E-45
4.30413E-01 1.00000E-45
4.34737E-01 1.00000E-45
4.39065E-01 1.00000E-45
4.43398E-01 1.00000E-45
4.47736E-01 1.00000E-45
4.52077E-01 1.00000E-45
4.56422E-01 1.00000E-45
4.60770E-01 1.00000E-45
4.65122E-01 1.00000E-45
4.69476E-01 1.00000E-45
4.73832E-01 1.00000E-45
4.78190E-01 1.00000E-45
4.82550E-01 1.00000E-45
4.86912E-01 1.00000E-45
4.91274E-01 1.00000E-45
4.95637E-01 1.00000E-45
5.00000E-01 1.00000E-45
5.04363E-01 1.00000E-45
5.08726E-01 1.00000E-45
5.13088E-01 1.00000E-45
5.17450E-01 1.00000E-45
5.21810E-01 1.00000E-45
5.26168E-01 1.00000E-45
5.30524E-01 1.00000E-45
5.34878E-01 1.00000E-45
5.39230E-01 1.00000E-45
5.43578E-01 1.00000E-45
5.47923E-01 1.00000E-45
5.52264E-01 1.00000E-45
5.56602E-01 1.00000E-45
5.60935E-01 1.00000E-45
5.65263E-01 1.00000E-45
5.69587E-01 1.00000E-45
5.73905E-01 1.00000E-45
5.78217E-01 1.00000E-45
5.82524E-01 1.00000E-45
5.86824E-01 1.00000E-45
5.91118E-01 1.00000E-45
5.95404E-01 1.00000E-45
5.99684E-01 1.00000E-45
6.03956E-01 1.00000E-45
6.08220E-01 1.00000E-45
6.12476E-01 1.00000E-45
6.16723E-01 1.00000E-45
6.20961E-01 1.00000E-45
6.25190E-01 1.00000E-45
6.29410E-01 1.00000E-45
6.33619E-01 1.00000E-45
6.37819E-01 1.00000E-45
6.42008E-01 1.00000E-45
6.46186E-01 1.00000E-45
6.50353E-01 1.00000E-45
6.54508E-01 1.00000E-45
6.58652E-01 1.00000E-45
6.62784E-01 1.00000E-45
6.66903E-01 1.00000E-45
6.71010E-01 1.00000E-45
6.75104E-01 1.00000E-45
6.79184E-01 1.00000E-45
6.83251E-01 1.00000E-45
6.87303E-01 1.00000E-45
6.91342E-01 1.00000E-45
6.95366E-01 1.00000E-45
6.99375E-01 1.00000E-45
7.03368E-01 1.00000E-45
7.07347E-01 1.00000E-45
7.11309E-01 1.00000E-45
7.15256E-01 1.00000E-45
7.19186E-01 1.00000E-45
7.23099E-01 1.00000E-45
7.26995E-01 1.00000E-45
7.30874E-01 1.00000E-45
7.34736E-01 1.00000E-45
7.38579E-01 1.00000E-45
7.42405E-01 1.00000E-45
7.46212E-01 1.00000E-45
7.50000E-01 1.00000E-45
7.53769E-01 1.00000E-45
7.57519E-01 1.00000E-45
7.61249E-01 1.00000E-45
7.64960E-01 1.00000E-45
7.68650E-01 1.00000E-45
7.72320E-01 1.00000E-45
7.75968E-01 1.00000E-45
7.79596E-01 1.00000E-45
7.83203E-01 1.00000E-45
7.86788E-01 1.00000E-45
7.90351E-01 1.00000E-45
7.93893E-01 1.00000E-45
7.97411E-01 1.00000E-45
8.00908E-01 1.00000E-45
8.04381E-01 1.00000E-45
8.07831E-01 1.00000E-45
8.11257E-01 1.00000E-45
8.14660E-01 1.00000E-45
8.18039E-01 1.00000E-45
8.21394E-01 1.00000E-45
8.24724E-01 1.00000E-45
8.28030E-01 1.00000E-45
8.31310E-01 1.00000E-45
8.34565E-01 1.00000E-45
8.37795E-01 1.00000E-45
8.40999E-01 1.00000E-45
8.44177E-01 1.00000E-45
8.47329E-01 1.00000E-45
8.50455E-01 1.00000E-45
8.53553E-01 1.00000E-45
8.56625E-01 1.00000E-45
8.59670E-01 1.00000E-45
8.62687E-01 1.00000E-45
8.65677E-01 1.00000E-45
8.68639E-01 1.00000E-45
8.71572E-01 1.00000E-45
8.74478E-01 1.00000E-45
8.77355E-01 1.00000E-45
8.80203E-01 1.00000E-45
8.83022E-01 1.00000E-45
8.85812E-01 1.00000E-45
8.88573E-01 1.00000E-45
8.91304E-01 1.00000E-45
8.94005E-01 1.00000E-45
8.96677E-01 1.00000E-45
8.99318E-01 1.00000E-45
9.01928E-01 1.00000E-45
9.04508E-01 1.00000E-45
9.07058E-01 1.00000E-45
9.09576E-01 1.00000E-45
9.12063E-01 1.00000E-45
9.14519E-01 1.00000E-45
9.16943E-01 1.00000E-45
9.19335E-01 1.00000E-45
9.21696E-01 1.00000E-45
9.24024E-01 1.00000E-45
9.26320E-01 1.00000E-45
9.28584E-01 1.00000E-45
9.30815E-01 1.00000E-45
9.33013E-01 1.00000E-45
9.35178E-01 1.00000E-45
9.37310E-01 1.00000E-45
9.39409E-01 1.00000E-45
9.41474E-01 1.00000E-45
9.43505E-01 1.00000E-45
9.45503E-01 1.00000E-45
9.47467E-01 1.00000E-45
9.49397E-01 1.00000E-45
9.51293E-01 1.00000E-45
9.53154E-01 1.00000E-45
9.54981E-01 1.00000E-45
9.56773E-01 1.00000E-45
9.58530E-01 1.00000E-45
9.60252E-01 1.00000E-45
9.61940E-01 1.00000E-45
9.63592E-01 1.00000E-45
9.65209E-01 1.00000E-45
9.66790E-01 1.00000E-45
9.68336E-01 1.00000E-45
9.69846E-01 1.00000E-45
9.71321E-01 1.00000E-45
9.72759E-01 1.00000E-45
9.74162E-01 1.00000E-45
9.75528E-01 1.00000E-45
9.76858E-01 1.00000E-45
9.78152E-01 1.00000E-45
9.79410E-01 1.00000E-45
9.80631E-01 1.00000E-45
9.81815E-01 1.00000E-45
9.82963E-01 1.00000E-45
9.84074E-01 1.00000E-45
9.85148E-01 1.00000E-45
9.86185E-01 1.00000E-45
9.87185E-01 1.00000E-45
9.88148E-01 1.00000E-45
9.89074E-01 1.00000E-45
9.89962E-01 1.00000E-45
9.90814E-01 1.00000E-45
9.91627E-01 1.00000E-45
9.92404E-01 1.00000E-45
9.93143E-01 1.00000E-45
9.93844E-01 1.00000E-45
9.94508E-01 1.00000E-45
9.95134E-01 1.00000E-45
9.95722E-01 1.00000E-45
9.96273E-01 1.00000E-45
9.96786E-01 1.00000E-45
9.97261E-01 1.00000E-45
9.97698E-01 1.00000E-45
9.98097E-01 1.00000E-45
9.98459E-01 1.00000E-45
9.98782E-01 1.00000E-45
9.99067E-01 1.00000E-45
9.99315E-01 1.00000E-45
9.99524E-01 1.00000E-45
9.99695E-01 1.00000E-45
9.99829E-01 1.00000E-45
9.99924E-01 1.00000E-45
9.99981E-01 1.00000E-45
1.00000E+00 1.00000E-45
