 #
 # Subroutine ELSEPA. Elastic scattering of electrons and positrons
 #                    by neutral atoms and positive ions
 #
 # Projectile: positron
 # Kinetic energy = 4.00000E+07 eV = 1.46997E+06 a.u.
 #
 # WARNING: High-energy factorization with free-atom DF screening.
 #          Absorption, polarization and exchange corrections are
 #          switched off.
 #          Phase shifts are calculated for the bare nucleus.
 #          Scattering amplitudes are not evaluated.
 #
 # Element:  V,  Z =  23,  atomic weight = 5.09415E+01 g/mol
 #
 # Nuclear model: Fermi distribution
 #                Average radius = 3.96650E-13 cm
 #                Skin thickness = 5.46000E-14 cm
 #
 # Number of electrons = 23
 #
 # Total elastic cross section = 1.92275E-18 cm**2 = 6.86628E-02 a0**2
 # 1st transport cross section = 6.18474E-25 cm**2 = 2.20861E-08 a0**2
 # 2nd transport cross section = 1.80951E-24 cm**2 = 6.46186E-08 a0**2
 #
 #
 # Differential cross section:                       MU=(1-COS(THETA))/2
 #
 #  THETA        MU          DCS          DCS        Sherman      error
 #  (deg)                 (cm**2/sr)   (a0**2/sr)    function
 #----------------------------------------------------------------------
0.00000E+00 4.30377E-11
7.61557E-13 4.30107E-11
1.18994E-12 4.29956E-11
1.71346E-12 4.29771E-11
2.33225E-12 4.29553E-11
3.04617E-12 4.29302E-11
3.85530E-12 4.29017E-11
4.75964E-12 4.28700E-11
5.75917E-12 4.28349E-11
6.85391E-12 4.27966E-11
8.04379E-12 4.27550E-11
9.32893E-12 4.27101E-11
1.07092E-11 4.26620E-11
1.21847E-11 4.26107E-11
1.37554E-11 4.25562E-11
1.54213E-11 4.24985E-11
1.71823E-11 4.24376E-11
1.90386E-11 4.23736E-11
2.09900E-11 4.23065E-11
2.30367E-11 4.22363E-11
2.51785E-11 4.21629E-11
2.74156E-11 4.20866E-11
2.97478E-11 4.20072E-11
3.21752E-11 4.19249E-11
3.46979E-11 4.18395E-11
3.73157E-11 4.17513E-11
4.00286E-11 4.16601E-11
4.28368E-11 4.15660E-11
4.57402E-11 4.14692E-11
4.87388E-11 4.13695E-11
5.18325E-11 4.12670E-11
5.50215E-11 4.11618E-11
5.83057E-11 4.10538E-11
6.16850E-11 4.09433E-11
6.51595E-11 4.08300E-11
6.87293E-11 4.07142E-11
7.23943E-11 4.05958E-11
7.61544E-11 4.04749E-11
1.18991E-10 3.91361E-11
1.71347E-10 3.75898E-11
2.33223E-10 3.58841E-11
3.04617E-10 3.40625E-11
3.85531E-10 3.21677E-11
4.75965E-10 3.02422E-11
5.75917E-10 2.83213E-11
6.85389E-10 2.64336E-11
8.04380E-10 2.46039E-11
9.32891E-10 2.28513E-11
1.07092E-09 2.11883E-11
1.21847E-09 1.96235E-11
1.37554E-09 1.81616E-11
1.54213E-09 1.68034E-11
1.71823E-09 1.55474E-11
1.90386E-09 1.43912E-11
2.09900E-09 1.33294E-11
2.30367E-09 1.23563E-11
2.51785E-09 1.14660E-11
2.74156E-09 1.06530E-11
2.97478E-09 9.91009E-12
3.21752E-09 9.23149E-12
3.46978E-09 8.61158E-12
3.73156E-09 8.04484E-12
4.00286E-09 7.52616E-12
4.28368E-09 7.05108E-12
4.57402E-09 6.61526E-12
4.87388E-09 6.21464E-12
5.18326E-09 5.84610E-12
5.50215E-09 5.50665E-12
5.83057E-09 5.19296E-12
6.16850E-09 4.90265E-12
6.51596E-09 4.63388E-12
6.87293E-09 4.38469E-12
7.23942E-09 4.15247E-12
7.61544E-09 3.93620E-12
1.18991E-08 2.40085E-12
1.71347E-08 1.51519E-12
2.33223E-08 1.00650E-12
3.04617E-08 6.80481E-13
3.85531E-08 4.68181E-13
4.75965E-08 3.31000E-13
5.75917E-08 2.39565E-13
6.85389E-08 1.77018E-13
8.04380E-08 1.33735E-13
9.32891E-08 1.03184E-13
1.07092E-07 8.11235E-14
1.21847E-07 6.48369E-14
1.37554E-07 5.25911E-14
1.54213E-07 4.32204E-14
1.71823E-07 3.59303E-14
1.90386E-07 3.01423E-14
2.09900E-07 2.55040E-14
2.30367E-07 2.17452E-14
2.51785E-07 1.86642E-14
2.74156E-07 1.60991E-14
2.97478E-07 1.39620E-14
3.21752E-07 1.21677E-14
3.46978E-07 1.06482E-14
3.73156E-07 9.34983E-15
4.00286E-07 8.24154E-15
4.28368E-07 7.29055E-15
4.57402E-07 6.46877E-15
4.87388E-07 5.75590E-15
5.18325E-07 5.13715E-15
5.50215E-07 4.59796E-15
5.83057E-07 4.12529E-15
6.16850E-07 3.71037E-15
6.51596E-07 3.34558E-15
6.87293E-07 3.02386E-15
7.23942E-07 2.73874E-15
7.61543E-07 2.48599E-15
1.18991E-06 1.04893E-15
1.71347E-06 5.15078E-16
2.33223E-06 2.82234E-16
3.04617E-06 1.67641E-16
3.85531E-06 1.05868E-16
4.75964E-06 7.01420E-17
5.75916E-06 4.82998E-17
6.85388E-06 3.43325E-17
8.04378E-06 2.50634E-17
9.32888E-06 1.87164E-17
1.07092E-05 1.42542E-17
1.21846E-05 1.10436E-17
1.37553E-05 8.68661E-18
1.54212E-05 6.92502E-18
1.71822E-05 5.58740E-18
1.90385E-05 4.55722E-18
2.09899E-05 3.75366E-18
2.30365E-05 3.11926E-18
2.51783E-05 2.61310E-18
2.74153E-05 2.20538E-18
2.97475E-05 1.87405E-18
3.21749E-05 1.60262E-18
3.46974E-05 1.37857E-18
3.73152E-05 1.19232E-18
4.00281E-05 1.03647E-18
4.28362E-05 9.05255E-19
4.57395E-05 7.94133E-19
4.87380E-05 6.99524E-19
5.18317E-05 6.18574E-19
5.50205E-05 5.48988E-19
5.83045E-05 4.88911E-19
6.16838E-05 4.36829E-19
6.51582E-05 3.91499E-19
6.87277E-05 3.51899E-19
7.23925E-05 3.17179E-19
7.61524E-05 2.86631E-19
9.21439E-05 1.95753E-19
1.09658E-04 1.38190E-19
1.28695E-04 1.00305E-19
1.49255E-04 7.45513E-20
1.71338E-04 5.65549E-20
1.94942E-04 4.36723E-20
2.20070E-04 3.42562E-20
2.46720E-04 2.72450E-20
2.74892E-04 2.19382E-20
3.04586E-04 1.78621E-20
3.35803E-04 1.46895E-20
3.68542E-04 1.21906E-20
4.02802E-04 1.02008E-20
4.38585E-04 8.60065E-21
4.75889E-04 7.30206E-21
5.14715E-04 6.23934E-21
5.55063E-04 5.36295E-21
5.96931E-04 4.63503E-21
6.40321E-04 4.02641E-21
6.85233E-04 3.51439E-21
7.31665E-04 3.08115E-21
7.79618E-04 2.71259E-21
8.29092E-04 2.39746E-21
8.80086E-04 2.12674E-21
9.32601E-04 1.89313E-21
9.86636E-04 1.69070E-21
1.04219E-03 1.51458E-21
1.09927E-03 1.36077E-21
1.15786E-03 1.22598E-21
1.21797E-03 1.10745E-21
1.27961E-03 1.00288E-21
1.34276E-03 9.10348E-22
1.40743E-03 8.28231E-22
1.47362E-03 7.55153E-22
1.54133E-03 6.89947E-22
1.61056E-03 6.31618E-22
1.68131E-03 5.79314E-22
1.75357E-03 5.32304E-22
1.82735E-03 4.89959E-22
1.90265E-03 4.51734E-22
1.97947E-03 4.17158E-22
2.05780E-03 3.85821E-22
2.13765E-03 3.57367E-22
2.21902E-03 3.31482E-22
2.30190E-03 3.07895E-22
2.38630E-03 2.86364E-22
2.47222E-03 2.66678E-22
2.55965E-03 2.48652E-22
2.64859E-03 2.32120E-22
2.73905E-03 2.16936E-22
2.83103E-03 2.02971E-22
2.92452E-03 1.90109E-22
3.01952E-03 1.78247E-22
3.11604E-03 1.67294E-22
3.21407E-03 1.57167E-22
3.31362E-03 1.47793E-22
3.41468E-03 1.39105E-22
3.51725E-03 1.31045E-22
3.62133E-03 1.23559E-22
3.72692E-03 1.16598E-22
3.83403E-03 1.10120E-22
3.94265E-03 1.04083E-22
4.05278E-03 9.84538E-23
4.16442E-03 9.31986E-23
4.27757E-03 8.82884E-23
4.39223E-03 8.36963E-23
4.50840E-03 7.93979E-23
4.62608E-03 7.53711E-23
4.74527E-03 7.15955E-23
4.86597E-03 6.80526E-23
4.98817E-03 6.47255E-23
5.11188E-03 6.15985E-23
5.23711E-03 5.86574E-23
5.36383E-03 5.58891E-23
5.49207E-03 5.32817E-23
5.62181E-03 5.08240E-23
5.75306E-03 4.85058E-23
5.88581E-03 4.63179E-23
6.02007E-03 4.42514E-23
6.15583E-03 4.22985E-23
6.29310E-03 4.04517E-23
6.43187E-03 3.87042E-23
6.57214E-03 3.70497E-23
6.71392E-03 3.54823E-23
6.85720E-03 3.39965E-23
7.00198E-03 3.25874E-23
7.14827E-03 3.12502E-23
7.29605E-03 2.99807E-23
7.44534E-03 2.87746E-23
7.59612E-03 2.76284E-23
7.97965E-03 2.50017E-23
8.37255E-03 2.26786E-23
8.77480E-03 2.06179E-23
9.18641E-03 1.87851E-23
9.60736E-03 1.71504E-23
1.00376E-02 1.56889E-23
1.04773E-02 1.43791E-23
1.09262E-02 1.32024E-23
1.13844E-02 1.21430E-23
1.18520E-02 1.11873E-23
1.23288E-02 1.03231E-23
1.28150E-02 9.54040E-24
1.33104E-02 8.83001E-24
1.38150E-02 8.18413E-24
1.43290E-02 7.59587E-24
1.48521E-02 7.05918E-24
1.53845E-02 6.56875E-24
1.59262E-02 6.11990E-24
1.64770E-02 5.70847E-24
1.70371E-02 5.33079E-24
1.76063E-02 4.98361E-24
1.81848E-02 4.66403E-24
1.87724E-02 4.36947E-24
1.93692E-02 4.09761E-24
1.99751E-02 3.84640E-24
2.05901E-02 3.61400E-24
2.12143E-02 3.39874E-24
2.18476E-02 3.19913E-24
2.24900E-02 3.01383E-24
2.31415E-02 2.84164E-24
2.38021E-02 2.68146E-24
2.44717E-02 2.53230E-24
2.51504E-02 2.39328E-24
2.58382E-02 2.26357E-24
2.65349E-02 2.14244E-24
2.72407E-02 2.02923E-24
2.79555E-02 1.92332E-24
2.86793E-02 1.82416E-24
2.94120E-02 1.73124E-24
3.01537E-02 1.64409E-24
3.09043E-02 1.56230E-24
3.16639E-02 1.48548E-24
3.24324E-02 1.41326E-24
3.32098E-02 1.34533E-24
3.39961E-02 1.28138E-24
3.47912E-02 1.22115E-24
3.55952E-02 1.16436E-24
3.64081E-02 1.11080E-24
3.72297E-02 1.06024E-24
3.80602E-02 1.01249E-24
3.88995E-02 9.67363E-25
3.97476E-02 9.24687E-25
4.06044E-02 8.84307E-25
4.14700E-02 8.46075E-25
4.23443E-02 8.09859E-25
4.32273E-02 7.75532E-25
4.41190E-02 7.42977E-25
4.50194E-02 7.12088E-25
4.59284E-02 6.82763E-25
4.68461E-02 6.54909E-25
4.87074E-02 6.03271E-25
5.06030E-02 5.56547E-25
5.25328E-02 5.14189E-25
5.44967E-02 4.75721E-25
5.64946E-02 4.40724E-25
5.85262E-02 4.08831E-25
6.05914E-02 3.79722E-25
6.26901E-02 3.53110E-25
6.48222E-02 3.28746E-25
6.69873E-02 3.06408E-25
6.91854E-02 2.85897E-25
7.14163E-02 2.67040E-25
7.36799E-02 2.49680E-25
7.59760E-02 2.33678E-25
7.83043E-02 2.18910E-25
8.06647E-02 2.05264E-25
8.30571E-02 1.92640E-25
8.54812E-02 1.80950E-25
8.79369E-02 1.70111E-25
9.04240E-02 1.60052E-25
9.29422E-02 1.50707E-25
9.54915E-02 1.42017E-25
9.80716E-02 1.33927E-25
1.00682E-01 1.26390E-25
1.03323E-01 1.19361E-25
1.05995E-01 1.12800E-25
1.08696E-01 1.06671E-25
1.11427E-01 1.00940E-25
1.14188E-01 9.55772E-26
1.16978E-01 9.05551E-26
1.19797E-01 8.58482E-26
1.22645E-01 8.14334E-26
1.25522E-01 7.72896E-26
1.28428E-01 7.33973E-26
1.31361E-01 6.97386E-26
1.34323E-01 6.62972E-26
1.37313E-01 6.30580E-26
1.40330E-01 6.00071E-26
1.43375E-01 5.71318E-26
1.46447E-01 5.44203E-26
1.49545E-01 5.18616E-26
1.52671E-01 4.94458E-26
1.55823E-01 4.71635E-26
1.59001E-01 4.50061E-26
1.62205E-01 4.29656E-26
1.65435E-01 4.10347E-26
1.68690E-01 3.92065E-26
1.71970E-01 3.74746E-26
1.75276E-01 3.58332E-26
1.78606E-01 3.42767E-26
1.81961E-01 3.28000E-26
1.85340E-01 3.13983E-26
1.88743E-01 3.00672E-26
1.92169E-01 2.88027E-26
1.95619E-01 2.76007E-26
1.99092E-01 2.64577E-26
2.02589E-01 2.53704E-26
2.06107E-01 2.43355E-26
2.09649E-01 2.33502E-26
2.13212E-01 2.24117E-26
2.16797E-01 2.15174E-26
2.20404E-01 2.06650E-26
2.24032E-01 1.98520E-26
2.27680E-01 1.90764E-26
2.31350E-01 1.83363E-26
2.35040E-01 1.76296E-26
2.38751E-01 1.69548E-26
2.42481E-01 1.63101E-26
2.46231E-01 1.56939E-26
2.50000E-01 1.51048E-26
2.53788E-01 1.45414E-26
2.57595E-01 1.40025E-26
2.61421E-01 1.34868E-26
2.65264E-01 1.29930E-26
2.69126E-01 1.25203E-26
2.73005E-01 1.20675E-26
2.76901E-01 1.16336E-26
2.80814E-01 1.12177E-26
2.84744E-01 1.08191E-26
2.88691E-01 1.04368E-26
2.92653E-01 1.00700E-26
2.96632E-01 9.71816E-27
3.00625E-01 9.38043E-27
3.04634E-01 9.05621E-27
3.08658E-01 8.74487E-27
3.12697E-01 8.44582E-27
3.16749E-01 8.15849E-27
3.20816E-01 7.88238E-27
3.24896E-01 7.61696E-27
3.28990E-01 7.36176E-27
3.33097E-01 7.11634E-27
3.37216E-01 6.88026E-27
3.41348E-01 6.65311E-27
3.45492E-01 6.43451E-27
3.49647E-01 6.22409E-27
3.53814E-01 6.02149E-27
3.57992E-01 5.82639E-27
3.62181E-01 5.63846E-27
3.66381E-01 5.45740E-27
3.70590E-01 5.28293E-27
3.74810E-01 5.11478E-27
3.79039E-01 4.95267E-27
3.83277E-01 4.79636E-27
3.87524E-01 4.64562E-27
3.91780E-01 4.50022E-27
3.96044E-01 4.35994E-27
4.00316E-01 4.22457E-27
4.04596E-01 4.09393E-27
4.08882E-01 3.96782E-27
4.13176E-01 3.84606E-27
4.17476E-01 3.72848E-27
4.21783E-01 3.61493E-27
4.26095E-01 3.50523E-27
4.30413E-01 3.39925E-27
4.34737E-01 3.29684E-27
4.39065E-01 3.19786E-27
4.43398E-01 3.10218E-27
4.47736E-01 3.00968E-27
4.52077E-01 2.92024E-27
4.56422E-01 2.83374E-27
4.60770E-01 2.75008E-27
4.65122E-01 2.66914E-27
4.69476E-01 2.59083E-27
4.73832E-01 2.51506E-27
4.78190E-01 2.44172E-27
4.82550E-01 2.37073E-27
4.86912E-01 2.30200E-27
4.91274E-01 2.23546E-27
4.95637E-01 2.17102E-27
5.00000E-01 2.10861E-27
5.04363E-01 2.04816E-27
5.08726E-01 1.98959E-27
5.13088E-01 1.93285E-27
5.17450E-01 1.87787E-27
5.21810E-01 1.82458E-27
5.26168E-01 1.77293E-27
5.30524E-01 1.72286E-27
5.34878E-01 1.67432E-27
5.39230E-01 1.62725E-27
5.43578E-01 1.58160E-27
5.47923E-01 1.53733E-27
5.52264E-01 1.49439E-27
5.56602E-01 1.45274E-27
5.60935E-01 1.41232E-27
5.65263E-01 1.37311E-27
5.69587E-01 1.33506E-27
5.73905E-01 1.29812E-27
5.78217E-01 1.26228E-27
5.82524E-01 1.22748E-27
5.86824E-01 1.19369E-27
5.91118E-01 1.16089E-27
5.95404E-01 1.12904E-27
5.99684E-01 1.09810E-27
6.03956E-01 1.06806E-27
6.08220E-01 1.03888E-27
6.12476E-01 1.01053E-27
6.16723E-01 9.82988E-28
6.20961E-01 9.56228E-28
6.25190E-01 9.30225E-28
6.29410E-01 9.04955E-28
6.33619E-01 8.80396E-28
6.37819E-01 8.56524E-28
6.42008E-01 8.33320E-28
6.46186E-01 8.10762E-28
6.50353E-01 7.88829E-28
6.54508E-01 7.67504E-28
6.58652E-01 7.46768E-28
6.62784E-01 7.26602E-28
6.66903E-01 7.06989E-28
6.71010E-01 6.87912E-28
6.75104E-01 6.69356E-28
6.79184E-01 6.51304E-28
6.83251E-01 6.33742E-28
6.87303E-01 6.16655E-28
6.91342E-01 6.00029E-28
6.95366E-01 5.83850E-28
6.99375E-01 5.68105E-28
7.03368E-01 5.52782E-28
7.07347E-01 5.37867E-28
7.11309E-01 5.23349E-28
7.15256E-01 5.09217E-28
7.19186E-01 4.95459E-28
7.23099E-01 4.82065E-28
7.26995E-01 4.69023E-28
7.30874E-01 4.56324E-28
7.34736E-01 4.43959E-28
7.38579E-01 4.31917E-28
7.42405E-01 4.20189E-28
7.46212E-01 4.08767E-28
7.50000E-01 3.97642E-28
7.53769E-01 3.86805E-28
7.57519E-01 3.76249E-28
7.61249E-01 3.65965E-28
7.64960E-01 3.55946E-28
7.68650E-01 3.46185E-28
7.72320E-01 3.36675E-28
7.75968E-01 3.27408E-28
7.79596E-01 3.18379E-28
7.83203E-01 3.09579E-28
7.86788E-01 3.01005E-28
7.90351E-01 2.92648E-28
7.93893E-01 2.84503E-28
7.97411E-01 2.76565E-28
8.00908E-01 2.68828E-28
8.04381E-01 2.61286E-28
8.07831E-01 2.53935E-28
8.11257E-01 2.46769E-28
8.14660E-01 2.39783E-28
8.18039E-01 2.32973E-28
8.21394E-01 2.26334E-28
8.24724E-01 2.19861E-28
8.28030E-01 2.13551E-28
8.31310E-01 2.07398E-28
8.34565E-01 2.01399E-28
8.37795E-01 1.95551E-28
8.40999E-01 1.89848E-28
8.44177E-01 1.84287E-28
8.47329E-01 1.78865E-28
8.50455E-01 1.73577E-28
8.53553E-01 1.68422E-28
8.56625E-01 1.63395E-28
8.59670E-01 1.58493E-28
8.62687E-01 1.53712E-28
8.65677E-01 1.49051E-28
8.68639E-01 1.44506E-28
8.71572E-01 1.40073E-28
8.74478E-01 1.35751E-28
8.77355E-01 1.31537E-28
8.80203E-01 1.27427E-28
8.83022E-01 1.23420E-28
8.85812E-01 1.19512E-28
8.88573E-01 1.15702E-28
8.91304E-01 1.11988E-28
8.94005E-01 1.08366E-28
8.96677E-01 1.04834E-28
8.99318E-01 1.01392E-28
9.01928E-01 9.80354E-29
9.04508E-01 9.47635E-29
9.07058E-01 9.15740E-29
9.09576E-01 8.84651E-29
9.12063E-01 8.54348E-29
9.14519E-01 8.24814E-29
9.16943E-01 7.96031E-29
9.19335E-01 7.67982E-29
9.21696E-01 7.40652E-29
9.24024E-01 7.14022E-29
9.26320E-01 6.88080E-29
9.28584E-01 6.62808E-29
9.30815E-01 6.38192E-29
9.33013E-01 6.14219E-29
9.35178E-01 5.90873E-29
9.37310E-01 5.68143E-29
9.39409E-01 5.46015E-29
9.41474E-01 5.24475E-29
9.43505E-01 5.03513E-29
9.45503E-01 4.83115E-29
9.47467E-01 4.63271E-29
9.49397E-01 4.43969E-29
9.51293E-01 4.25199E-29
9.53154E-01 4.06949E-29
9.54981E-01 3.89210E-29
9.56773E-01 3.71971E-29
9.58530E-01 3.55223E-29
9.60252E-01 3.38957E-29
9.61940E-01 3.23164E-29
9.63592E-01 3.07835E-29
9.65209E-01 2.92960E-29
9.66790E-01 2.78534E-29
9.68336E-01 2.64546E-29
9.69846E-01 2.50990E-29
9.71321E-01 2.37858E-29
9.72759E-01 2.25144E-29
9.74162E-01 2.12839E-29
9.75528E-01 2.00938E-29
9.76858E-01 1.89434E-29
9.78152E-01 1.78320E-29
9.79410E-01 1.67591E-29
9.80631E-01 1.57241E-29
9.81815E-01 1.47265E-29
9.82963E-01 1.37656E-29
9.84074E-01 1.28410E-29
9.85148E-01 1.19522E-29
9.86185E-01 1.10988E-29
9.87185E-01 1.02801E-29
9.88148E-01 9.49589E-30
9.89074E-01 8.74567E-30
9.89962E-01 8.02904E-30
9.90814E-01 7.34564E-30
9.91627E-01 6.69508E-30
9.92404E-01 6.07703E-30
9.93143E-01 5.49117E-30
9.93844E-01 4.93718E-30
9.94508E-01 4.41477E-30
9.95134E-01 3.92366E-30
9.95722E-01 3.46360E-30
9.96273E-01 3.03434E-30
9.96786E-01 2.63565E-30
9.97261E-01 2.26733E-30
9.97698E-01 1.92918E-30
9.98097E-01 1.62103E-30
9.98459E-01 1.34271E-30
9.98782E-01 1.09408E-30
9.99067E-01 8.75005E-31
9.99315E-01 6.85371E-31
9.99524E-01 5.25080E-31
9.99695E-01 3.94045E-31
9.99829E-01 2.92203E-31
9.99924E-01 2.19495E-31
9.99981E-01 1.75886E-31
1.00000E+00 1.61352E-31
