 #
 # Subroutine ELSEPA. Elastic scattering of electrons and positrons
 #                    by neutral atoms and positive ions
 #
 # Projectile: positron
 # Kinetic energy = 9.00000E+06 eV = 3.30744E+05 a.u.
 #
 # WARNING: High-energy factorization with free-atom DF screening.
 #          Absorption, polarization and exchange corrections are
 #          switched off.
 #          Phase shifts are calculated for the bare nucleus.
 #          Scattering amplitudes are not evaluated.
 #
 # Element:  V,  Z =  23,  atomic weight = 5.09415E+01 g/mol
 #
 # Nuclear model: Fermi distribution
 #                Average radius = 3.96650E-13 cm
 #                Skin thickness = 5.46000E-14 cm
 #
 # Number of electrons = 23
 #
 # Total elastic cross section = 1.92819E-18 cm**2 = 6.88570E-02 a0**2
 # 1st transport cross section = 9.22119E-24 cm**2 = 3.29295E-07 a0**2
 # 2nd transport cross section = 2.66727E-23 cm**2 = 9.52498E-07 a0**2
 #
 #
 # Differential cross section:                       MU=(1-COS(THETA))/2
 #
 #  THETA        MU          DCS          DCS        Sherman      error
 #  (deg)                 (cm**2/sr)   (a0**2/sr)    function
 #----------------------------------------------------------------------
0.00000E+00 2.37222E-12
7.61557E-13 2.37214E-12
1.18994E-12 2.37209E-12
1.71346E-12 2.37203E-12
2.33225E-12 2.37197E-12
3.04617E-12 2.37189E-12
3.85530E-12 2.37180E-12
4.75964E-12 2.37171E-12
5.75917E-12 2.37160E-12
6.85391E-12 2.37148E-12
8.04379E-12 2.37135E-12
9.32893E-12 2.37121E-12
1.07092E-11 2.37107E-12
1.21847E-11 2.37091E-12
1.37554E-11 2.37074E-12
1.54213E-11 2.37056E-12
1.71823E-11 2.37037E-12
1.90386E-11 2.37017E-12
2.09900E-11 2.36997E-12
2.30367E-11 2.36975E-12
2.51785E-11 2.36952E-12
2.74156E-11 2.36928E-12
2.97478E-11 2.36903E-12
3.21752E-11 2.36877E-12
3.46979E-11 2.36850E-12
3.73157E-11 2.36822E-12
4.00286E-11 2.36793E-12
4.28368E-11 2.36763E-12
4.57402E-11 2.36732E-12
4.87388E-11 2.36700E-12
5.18325E-11 2.36667E-12
5.50215E-11 2.36633E-12
5.83057E-11 2.36598E-12
6.16850E-11 2.36562E-12
6.51595E-11 2.36525E-12
6.87293E-11 2.36487E-12
7.23943E-11 2.36448E-12
7.61544E-11 2.36408E-12
1.18991E-10 2.35953E-12
1.71347E-10 2.35398E-12
2.33223E-10 2.34746E-12
3.04617E-10 2.33997E-12
3.85531E-10 2.33152E-12
4.75965E-10 2.32213E-12
5.75917E-10 2.31183E-12
6.85389E-10 2.30063E-12
8.04380E-10 2.28854E-12
9.32891E-10 2.27560E-12
1.07092E-09 2.26183E-12
1.21847E-09 2.24725E-12
1.37554E-09 2.23189E-12
1.54213E-09 2.21578E-12
1.71823E-09 2.19894E-12
1.90386E-09 2.18140E-12
2.09900E-09 2.16320E-12
2.30367E-09 2.14437E-12
2.51785E-09 2.12493E-12
2.74156E-09 2.10487E-12
2.97478E-09 2.08429E-12
3.21752E-09 2.06322E-12
3.46978E-09 2.04170E-12
3.73156E-09 2.01975E-12
4.00286E-09 1.99739E-12
4.28368E-09 1.97458E-12
4.57402E-09 1.95144E-12
4.87388E-09 1.92801E-12
5.18326E-09 1.90431E-12
5.50215E-09 1.88039E-12
5.83057E-09 1.85622E-12
6.16850E-09 1.83181E-12
6.51596E-09 1.80725E-12
6.87293E-09 1.78259E-12
7.23942E-09 1.75783E-12
7.61544E-09 1.73302E-12
1.18991E-08 1.48551E-12
1.71347E-08 1.25316E-12
2.33223E-08 1.04770E-12
3.04617E-08 8.73268E-13
3.85531E-08 7.29027E-13
4.75965E-08 6.11495E-13
5.75917E-08 5.16360E-13
6.85389E-08 4.39390E-13
8.04380E-08 3.76840E-13
9.32891E-08 3.25663E-13
1.07092E-07 2.83431E-13
1.21847E-07 2.48208E-13
1.37554E-07 2.18581E-13
1.54213E-07 1.93437E-13
1.71823E-07 1.71892E-13
1.90386E-07 1.53279E-13
2.09900E-07 1.37114E-13
2.30367E-07 1.22992E-13
2.51785E-07 1.10563E-13
2.74156E-07 9.88616E-14
2.97478E-07 8.87707E-14
3.21752E-07 8.01223E-14
3.46978E-07 7.26712E-14
3.73156E-07 6.62194E-14
4.00286E-07 6.04940E-14
4.28368E-07 5.46794E-14
4.57402E-07 4.96173E-14
4.87388E-07 4.51920E-14
5.18325E-07 4.13079E-14
5.50215E-07 3.78858E-14
5.83057E-07 3.47327E-14
6.16850E-07 3.17065E-14
6.51596E-07 2.90271E-14
6.87293E-07 2.66472E-14
7.23942E-07 2.45268E-14
7.61543E-07 2.26323E-14
1.18991E-06 1.05755E-14
1.71347E-06 5.59007E-15
2.33223E-06 3.27165E-15
3.04617E-06 2.06812E-15
3.85531E-06 1.38190E-15
4.75964E-06 9.61552E-16
5.75916E-06 6.89668E-16
6.85388E-06 5.06132E-16
8.04378E-06 3.78866E-16
9.32888E-06 2.88531E-16
1.07092E-05 2.23083E-16
1.21846E-05 1.74809E-16
1.37553E-05 1.38728E-16
1.54212E-05 1.11384E-16
1.71822E-05 9.03935E-17
1.90385E-05 7.40910E-17
2.09899E-05 6.12922E-17
2.30365E-05 5.11334E-17
2.51783E-05 4.29910E-17
2.74153E-05 3.64015E-17
2.97475E-05 3.10389E-17
3.21749E-05 2.66303E-17
3.46974E-05 2.29805E-17
3.73152E-05 1.99401E-17
4.00281E-05 1.73862E-17
4.28362E-05 1.52331E-17
4.57395E-05 1.34019E-17
4.87380E-05 1.18406E-17
5.18317E-05 1.05002E-17
5.50205E-05 9.34502E-18
5.83045E-05 8.34537E-18
6.16838E-05 7.47572E-18
6.51582E-05 6.71786E-18
6.87277E-05 6.05273E-18
7.23925E-05 5.46891E-18
7.61524E-05 4.95346E-18
9.21439E-05 3.41166E-18
1.09658E-04 2.42544E-18
1.28695E-04 1.77096E-18
1.49255E-04 1.32280E-18
1.71338E-04 1.00763E-18
1.94942E-04 7.80739E-19
2.20070E-04 6.14146E-19
2.46720E-04 4.89615E-19
2.74892E-04 3.95031E-19
3.04586E-04 3.22171E-19
3.35803E-04 2.65324E-19
3.68542E-04 2.20456E-19
4.02802E-04 1.84661E-19
4.38585E-04 1.55830E-19
4.75889E-04 1.32402E-19
5.14715E-04 1.13208E-19
5.55063E-04 9.73619E-20
5.96931E-04 8.41889E-20
6.40321E-04 7.31665E-20
6.85233E-04 6.38871E-20
7.31665E-04 5.60305E-20
7.79618E-04 4.93434E-20
8.29092E-04 4.36231E-20
8.80086E-04 3.87068E-20
9.32601E-04 3.44628E-20
9.86636E-04 3.07838E-20
1.04219E-03 2.75822E-20
1.09927E-03 2.47854E-20
1.15786E-03 2.23337E-20
1.21797E-03 2.01773E-20
1.27961E-03 1.82745E-20
1.34276E-03 1.65905E-20
1.40743E-03 1.50957E-20
1.47362E-03 1.37652E-20
1.54133E-03 1.25779E-20
1.61056E-03 1.15157E-20
1.68131E-03 1.05630E-20
1.75357E-03 9.70671E-21
1.82735E-03 8.93528E-21
1.90265E-03 8.23884E-21
1.97947E-03 7.60883E-21
2.05780E-03 7.03778E-21
2.13765E-03 6.51921E-21
2.21902E-03 6.04745E-21
2.30190E-03 5.61751E-21
2.38630E-03 5.22503E-21
2.47222E-03 4.86617E-21
2.55965E-03 4.53753E-21
2.64859E-03 4.23611E-21
2.73905E-03 3.95926E-21
2.83103E-03 3.70461E-21
2.92452E-03 3.47007E-21
3.01952E-03 3.25375E-21
3.11604E-03 3.05400E-21
3.21407E-03 2.86930E-21
3.31362E-03 2.69833E-21
3.41468E-03 2.53987E-21
3.51725E-03 2.39285E-21
3.62133E-03 2.25629E-21
3.72692E-03 2.12931E-21
3.83403E-03 2.01112E-21
3.94265E-03 1.90099E-21
4.05278E-03 1.79828E-21
4.16442E-03 1.70240E-21
4.27757E-03 1.61280E-21
4.39223E-03 1.52901E-21
4.50840E-03 1.45057E-21
4.62608E-03 1.37709E-21
4.74527E-03 1.30819E-21
4.86597E-03 1.24353E-21
4.98817E-03 1.18281E-21
5.11188E-03 1.12574E-21
5.23711E-03 1.07206E-21
5.36383E-03 1.02153E-21
5.49207E-03 9.73937E-22
5.62181E-03 9.29074E-22
5.75306E-03 8.86757E-22
5.88581E-03 8.46815E-22
6.02007E-03 8.09089E-22
6.15583E-03 7.73435E-22
6.29310E-03 7.39717E-22
6.43187E-03 7.07811E-22
6.57214E-03 6.77601E-22
6.71392E-03 6.48980E-22
6.85720E-03 6.21850E-22
7.00198E-03 5.96118E-22
7.14827E-03 5.71699E-22
7.29605E-03 5.48514E-22
7.44534E-03 5.26487E-22
7.59612E-03 5.05552E-22
7.97965E-03 4.57576E-22
8.37255E-03 4.15139E-22
8.77480E-03 3.77494E-22
9.18641E-03 3.44006E-22
9.60736E-03 3.14137E-22
1.00376E-02 2.87428E-22
1.04773E-02 2.63489E-22
1.09262E-02 2.41981E-22
1.13844E-02 2.22614E-22
1.18520E-02 2.05140E-22
1.23288E-02 1.89340E-22
1.28150E-02 1.75025E-22
1.33104E-02 1.62033E-22
1.38150E-02 1.50219E-22
1.43290E-02 1.39457E-22
1.48521E-02 1.29637E-22
1.53845E-02 1.20663E-22
1.59262E-02 1.12449E-22
1.64770E-02 1.04918E-22
1.70371E-02 9.80042E-23
1.76063E-02 9.16478E-23
1.81848E-02 8.57958E-23
1.87724E-02 8.04011E-23
1.93692E-02 7.54215E-23
1.99751E-02 7.08195E-23
2.05901E-02 6.65612E-23
2.12143E-02 6.26165E-23
2.18476E-02 5.89580E-23
2.24900E-02 5.55613E-23
2.31415E-02 5.24043E-23
2.38021E-02 4.94670E-23
2.44717E-02 4.67314E-23
2.51504E-02 4.41811E-23
2.58382E-02 4.18014E-23
2.65349E-02 3.95787E-23
2.72407E-02 3.75008E-23
2.79555E-02 3.55567E-23
2.86793E-02 3.37360E-23
2.94120E-02 3.20296E-23
3.01537E-02 3.04290E-23
3.09043E-02 2.89264E-23
3.16639E-02 2.75148E-23
3.24324E-02 2.61877E-23
3.32098E-02 2.49390E-23
3.39961E-02 2.37633E-23
3.47912E-02 2.26555E-23
3.55952E-02 2.16110E-23
3.64081E-02 2.06256E-23
3.72297E-02 1.96953E-23
3.80602E-02 1.88164E-23
3.88995E-02 1.79856E-23
3.97476E-02 1.71998E-23
4.06044E-02 1.64560E-23
4.14700E-02 1.57517E-23
4.23443E-02 1.50844E-23
4.32273E-02 1.44517E-23
4.41190E-02 1.38515E-23
4.50194E-02 1.32819E-23
4.59284E-02 1.27410E-23
4.68461E-02 1.22272E-23
4.87074E-02 1.12741E-23
5.06030E-02 1.04113E-23
5.25328E-02 9.62875E-24
5.44967E-02 8.91765E-24
5.64946E-02 8.27035E-24
5.85262E-02 7.68015E-24
6.05914E-02 7.14113E-24
6.26901E-02 6.64808E-24
6.48222E-02 6.19640E-24
6.69873E-02 5.78202E-24
6.91854E-02 5.40131E-24
7.14163E-02 5.05107E-24
7.36799E-02 4.72842E-24
7.59760E-02 4.43081E-24
7.83043E-02 4.15597E-24
8.06647E-02 3.90183E-24
8.30571E-02 3.66658E-24
8.54812E-02 3.44855E-24
8.79369E-02 3.24627E-24
9.04240E-02 3.05841E-24
9.29422E-02 2.88374E-24
9.54915E-02 2.72118E-24
9.80716E-02 2.56975E-24
1.00682E-01 2.42855E-24
1.03323E-01 2.29676E-24
1.05995E-01 2.17365E-24
1.08696E-01 2.05855E-24
1.11427E-01 1.95083E-24
1.14188E-01 1.84996E-24
1.16978E-01 1.75540E-24
1.19797E-01 1.66671E-24
1.22645E-01 1.58344E-24
1.25522E-01 1.50522E-24
1.28428E-01 1.43167E-24
1.31361E-01 1.36248E-24
1.34323E-01 1.29733E-24
1.37313E-01 1.23595E-24
1.40330E-01 1.17809E-24
1.43375E-01 1.12350E-24
1.46447E-01 1.07198E-24
1.49545E-01 1.02330E-24
1.52671E-01 9.77300E-25
1.55823E-01 9.33796E-25
1.59001E-01 8.92630E-25
1.62205E-01 8.53654E-25
1.65435E-01 8.16732E-25
1.68690E-01 7.81735E-25
1.71970E-01 7.48546E-25
1.75276E-01 7.17056E-25
1.78606E-01 6.87161E-25
1.81961E-01 6.58767E-25
1.85340E-01 6.31785E-25
1.88743E-01 6.06132E-25
1.92169E-01 5.81732E-25
1.95619E-01 5.58512E-25
1.99092E-01 5.36406E-25
2.02589E-01 5.15350E-25
2.06107E-01 4.95286E-25
2.09649E-01 4.76159E-25
2.13212E-01 4.57918E-25
2.16797E-01 4.40514E-25
2.20404E-01 4.23902E-25
2.24032E-01 4.08040E-25
2.27680E-01 3.92888E-25
2.31350E-01 3.78408E-25
2.35040E-01 3.64567E-25
2.38751E-01 3.51329E-25
2.42481E-01 3.38665E-25
2.46231E-01 3.26546E-25
2.50000E-01 3.14944E-25
2.53788E-01 3.03832E-25
2.57595E-01 2.93187E-25
2.61421E-01 2.82986E-25
2.65264E-01 2.73206E-25
2.69126E-01 2.63828E-25
2.73005E-01 2.54832E-25
2.76901E-01 2.46200E-25
2.80814E-01 2.37914E-25
2.84744E-01 2.29959E-25
2.88691E-01 2.22318E-25
2.92653E-01 2.14978E-25
2.96632E-01 2.07923E-25
3.00625E-01 2.01142E-25
3.04634E-01 1.94622E-25
3.08658E-01 1.88351E-25
3.12697E-01 1.82318E-25
3.16749E-01 1.76512E-25
3.20816E-01 1.70924E-25
3.24896E-01 1.65543E-25
3.28990E-01 1.60361E-25
3.33097E-01 1.55369E-25
3.37216E-01 1.50559E-25
3.41348E-01 1.45923E-25
3.45492E-01 1.41454E-25
3.49647E-01 1.37145E-25
3.53814E-01 1.32989E-25
3.57992E-01 1.28979E-25
3.62181E-01 1.25110E-25
3.66381E-01 1.21376E-25
3.70590E-01 1.17772E-25
3.74810E-01 1.14292E-25
3.79039E-01 1.10930E-25
3.83277E-01 1.07684E-25
3.87524E-01 1.04547E-25
3.91780E-01 1.01515E-25
3.96044E-01 9.85851E-26
4.00316E-01 9.57524E-26
4.04596E-01 9.30133E-26
4.08882E-01 9.03642E-26
4.13176E-01 8.78017E-26
4.17476E-01 8.53224E-26
4.21783E-01 8.29232E-26
4.26095E-01 8.06011E-26
4.30413E-01 7.83532E-26
4.34737E-01 7.61767E-26
4.39065E-01 7.40690E-26
4.43398E-01 7.20275E-26
4.47736E-01 7.00499E-26
4.52077E-01 6.81338E-26
4.56422E-01 6.62769E-26
4.60770E-01 6.44772E-26
4.65122E-01 6.27326E-26
4.69476E-01 6.10412E-26
4.73832E-01 5.94010E-26
4.78190E-01 5.78102E-26
4.82550E-01 5.62672E-26
4.86912E-01 5.47702E-26
4.91274E-01 5.33176E-26
4.95637E-01 5.19080E-26
5.00000E-01 5.05399E-26
5.04363E-01 4.92118E-26
5.08726E-01 4.79223E-26
5.13088E-01 4.66703E-26
5.17450E-01 4.54543E-26
5.21810E-01 4.42733E-26
5.26168E-01 4.31260E-26
5.30524E-01 4.20114E-26
5.34878E-01 4.09283E-26
5.39230E-01 3.98757E-26
5.43578E-01 3.88527E-26
5.47923E-01 3.78582E-26
5.52264E-01 3.68914E-26
5.56602E-01 3.59514E-26
5.60935E-01 3.50373E-26
5.65263E-01 3.41482E-26
5.69587E-01 3.32835E-26
5.73905E-01 3.24423E-26
5.78217E-01 3.16239E-26
5.82524E-01 3.08275E-26
5.86824E-01 3.00525E-26
5.91118E-01 2.92983E-26
5.95404E-01 2.85642E-26
5.99684E-01 2.78496E-26
6.03956E-01 2.71538E-26
6.08220E-01 2.64764E-26
6.12476E-01 2.58167E-26
6.16723E-01 2.51742E-26
6.20961E-01 2.45485E-26
6.25190E-01 2.39389E-26
6.29410E-01 2.33452E-26
6.33619E-01 2.27666E-26
6.37819E-01 2.22029E-26
6.42008E-01 2.16536E-26
6.46186E-01 2.11183E-26
6.50353E-01 2.05965E-26
6.54508E-01 2.00879E-26
6.58652E-01 1.95921E-26
6.62784E-01 1.91087E-26
6.66903E-01 1.86374E-26
6.71010E-01 1.81778E-26
6.75104E-01 1.77297E-26
6.79184E-01 1.72926E-26
6.83251E-01 1.68663E-26
6.87303E-01 1.64504E-26
6.91342E-01 1.60448E-26
6.95366E-01 1.56490E-26
6.99375E-01 1.52629E-26
7.03368E-01 1.48861E-26
7.07347E-01 1.45184E-26
7.11309E-01 1.41596E-26
7.15256E-01 1.38095E-26
7.19186E-01 1.34677E-26
7.23099E-01 1.31341E-26
7.26995E-01 1.28084E-26
7.30874E-01 1.24905E-26
7.34736E-01 1.21801E-26
7.38579E-01 1.18770E-26
7.42405E-01 1.15811E-26
7.46212E-01 1.12921E-26
7.50000E-01 1.10099E-26
7.53769E-01 1.07343E-26
7.57519E-01 1.04652E-26
7.61249E-01 1.02023E-26
7.64960E-01 9.94549E-27
7.68650E-01 9.69465E-27
7.72320E-01 9.44960E-27
7.75968E-01 9.21021E-27
7.79596E-01 8.97632E-27
7.83203E-01 8.74781E-27
7.86788E-01 8.52454E-27
7.90351E-01 8.30638E-27
7.93893E-01 8.09320E-27
7.97411E-01 7.88488E-27
8.00908E-01 7.68130E-27
8.04381E-01 7.48235E-27
8.07831E-01 7.28792E-27
8.11257E-01 7.09789E-27
8.14660E-01 6.91216E-27
8.18039E-01 6.73063E-27
8.21394E-01 6.55319E-27
8.24724E-01 6.37976E-27
8.28030E-01 6.21023E-27
8.31310E-01 6.04452E-27
8.34565E-01 5.88253E-27
8.37795E-01 5.72419E-27
8.40999E-01 5.56939E-27
8.44177E-01 5.41808E-27
8.47329E-01 5.27015E-27
8.50455E-01 5.12554E-27
8.53553E-01 4.98418E-27
8.56625E-01 4.84598E-27
8.59670E-01 4.71088E-27
8.62687E-01 4.57881E-27
8.65677E-01 4.44971E-27
8.68639E-01 4.32350E-27
8.71572E-01 4.20012E-27
8.74478E-01 4.07951E-27
8.77355E-01 3.96162E-27
8.80203E-01 3.84638E-27
8.83022E-01 3.73373E-27
8.85812E-01 3.62363E-27
8.88573E-01 3.51601E-27
8.91304E-01 3.41083E-27
8.94005E-01 3.30803E-27
8.96677E-01 3.20757E-27
8.99318E-01 3.10940E-27
9.01928E-01 3.01346E-27
9.04508E-01 2.91972E-27
9.07058E-01 2.82814E-27
9.09576E-01 2.73865E-27
9.12063E-01 2.65124E-27
9.14519E-01 2.56585E-27
9.16943E-01 2.48244E-27
9.19335E-01 2.40098E-27
9.21696E-01 2.32144E-27
9.24024E-01 2.24376E-27
9.26320E-01 2.16792E-27
9.28584E-01 2.09389E-27
9.30815E-01 2.02162E-27
9.33013E-01 1.95109E-27
9.35178E-01 1.88227E-27
9.37310E-01 1.81512E-27
9.39409E-01 1.74962E-27
9.41474E-01 1.68573E-27
9.43505E-01 1.62343E-27
9.45503E-01 1.56269E-27
9.47467E-01 1.50348E-27
9.49397E-01 1.44578E-27
9.51293E-01 1.38957E-27
9.53154E-01 1.33481E-27
9.54981E-01 1.28148E-27
9.56773E-01 1.22957E-27
9.58530E-01 1.17905E-27
9.60252E-01 1.12989E-27
9.61940E-01 1.08208E-27
9.63592E-01 1.03559E-27
9.65209E-01 9.90414E-28
9.66790E-01 9.46521E-28
9.68336E-01 9.03898E-28
9.69846E-01 8.62524E-28
9.71321E-01 8.22384E-28
9.72759E-01 7.83460E-28
9.74162E-01 7.45736E-28
9.75528E-01 7.09196E-28
9.76858E-01 6.73825E-28
9.78152E-01 6.39609E-28
9.79410E-01 6.06532E-28
9.80631E-01 5.74583E-28
9.81815E-01 5.43746E-28
9.82963E-01 5.14011E-28
9.84074E-01 4.85363E-28
9.85148E-01 4.57793E-28
9.86185E-01 4.31288E-28
9.87185E-01 4.05838E-28
9.88148E-01 3.81432E-28
9.89074E-01 3.58060E-28
9.89962E-01 3.35713E-28
9.90814E-01 3.14382E-28
9.91627E-01 2.94059E-28
9.92404E-01 2.74734E-28
9.93143E-01 2.56401E-28
9.93844E-01 2.39051E-28
9.94508E-01 2.22678E-28
9.95134E-01 2.07276E-28
9.95722E-01 1.92837E-28
9.96273E-01 1.79357E-28
9.96786E-01 1.66830E-28
9.97261E-01 1.55251E-28
9.97698E-01 1.44615E-28
9.98097E-01 1.34918E-28
9.98459E-01 1.26156E-28
9.98782E-01 1.18326E-28
9.99067E-01 1.11424E-28
9.99315E-01 1.05448E-28
9.99524E-01 1.00395E-28
9.99695E-01 9.62642E-29
9.99829E-01 9.30528E-29
9.99924E-01 9.07598E-29
9.99981E-01 8.93844E-29
1.00000E+00 8.89260E-29
