 #
 # Subroutine ELSEPA. Elastic scattering of electrons and positrons
 #                    by neutral atoms and positive ions
 #
 # Projectile: positron
 # Kinetic energy = 1.25000E+06 eV = 4.59367E+04 a.u.
 #
 # WARNING: High-energy factorization with free-atom DF screening.
 #          Absorption, polarization and exchange corrections are
 #          switched off.
 #          Phase shifts are calculated for the bare nucleus.
 #          Scattering amplitudes are not evaluated.
 #
 # Element:  V,  Z =  23,  atomic weight = 5.09415E+01 g/mol
 #
 # Nuclear model: Fermi distribution
 #                Average radius = 3.96650E-13 cm
 #                Skin thickness = 5.46000E-14 cm
 #
 # Number of electrons = 23
 #
 # Total elastic cross section = 2.09680E-18 cm**2 = 7.48781E-02 a0**2
 # 1st transport cross section = 2.30584E-22 cm**2 = 8.23431E-06 a0**2
 # 2nd transport cross section = 6.53630E-22 cm**2 = 2.33416E-05 a0**2
 #
 #
 # Differential cross section:                       MU=(1-COS(THETA))/2
 #
 #  THETA        MU          DCS          DCS        Sherman      error
 #  (deg)                 (cm**2/sr)   (a0**2/sr)    function
 #----------------------------------------------------------------------
0.00000E+00 8.13244E-14
7.61557E-13 8.13243E-14
1.18994E-12 8.13242E-14
1.71346E-12 8.13242E-14
2.33225E-12 8.13241E-14
3.04617E-12 8.13240E-14
3.85530E-12 8.13239E-14
4.75964E-12 8.13238E-14
5.75917E-12 8.13236E-14
6.85391E-12 8.13235E-14
8.04379E-12 8.13233E-14
9.32893E-12 8.13232E-14
1.07092E-11 8.13230E-14
1.21847E-11 8.13228E-14
1.37554E-11 8.13226E-14
1.54213E-11 8.13224E-14
1.71823E-11 8.13222E-14
1.90386E-11 8.13220E-14
2.09900E-11 8.13218E-14
2.30367E-11 8.13215E-14
2.51785E-11 8.13213E-14
2.74156E-11 8.13210E-14
2.97478E-11 8.13207E-14
3.21752E-11 8.13204E-14
3.46979E-11 8.13201E-14
3.73157E-11 8.13198E-14
4.00286E-11 8.13195E-14
4.28368E-11 8.13192E-14
4.57402E-11 8.13188E-14
4.87388E-11 8.13185E-14
5.18325E-11 8.13181E-14
5.50215E-11 8.13177E-14
5.83057E-11 8.13173E-14
6.16850E-11 8.13169E-14
6.51595E-11 8.13165E-14
6.87293E-11 8.13161E-14
7.23943E-11 8.13157E-14
7.61544E-11 8.13152E-14
1.18991E-10 8.13102E-14
1.71347E-10 8.13040E-14
2.33223E-10 8.12968E-14
3.04617E-10 8.12885E-14
3.85531E-10 8.12790E-14
4.75965E-10 8.12685E-14
5.75917E-10 8.12569E-14
6.85389E-10 8.12442E-14
8.04380E-10 8.12304E-14
9.32891E-10 8.12155E-14
1.07092E-09 8.11995E-14
1.21847E-09 8.11824E-14
1.37554E-09 8.11642E-14
1.54213E-09 8.11450E-14
1.71823E-09 8.11246E-14
1.90386E-09 8.11032E-14
2.09900E-09 8.10807E-14
2.30367E-09 8.10571E-14
2.51785E-09 8.10324E-14
2.74156E-09 8.10067E-14
2.97478E-09 8.09799E-14
3.21752E-09 8.09519E-14
3.46978E-09 8.09230E-14
3.73156E-09 8.08929E-14
4.00286E-09 8.08618E-14
4.28368E-09 8.08296E-14
4.57402E-09 8.07963E-14
4.87388E-09 8.07620E-14
5.18326E-09 8.07266E-14
5.50215E-09 8.06902E-14
5.83057E-09 8.06526E-14
6.16850E-09 8.06141E-14
6.51596E-09 8.05745E-14
6.87293E-09 8.05338E-14
7.23942E-09 8.04921E-14
7.61544E-09 8.04493E-14
1.18991E-08 7.99647E-14
1.71347E-08 7.93787E-14
2.33223E-08 7.86948E-14
3.04617E-08 7.79171E-14
3.85531E-08 7.70501E-14
4.75965E-08 7.60987E-14
5.75917E-08 7.50684E-14
6.85389E-08 7.39646E-14
8.04380E-08 7.27933E-14
9.32891E-08 7.15583E-14
1.07092E-07 7.02697E-14
1.21847E-07 6.89341E-14
1.37554E-07 6.75528E-14
1.54213E-07 6.61349E-14
1.71823E-07 6.46886E-14
1.90386E-07 6.32165E-14
2.09900E-07 6.17236E-14
2.30367E-07 6.02194E-14
2.51785E-07 5.87076E-14
2.74156E-07 5.71892E-14
2.97478E-07 5.56740E-14
3.21752E-07 5.41661E-14
3.46978E-07 5.26645E-14
3.73156E-07 5.11774E-14
4.00286E-07 4.97082E-14
4.28368E-07 4.82573E-14
4.57402E-07 4.68286E-14
4.87388E-07 4.54254E-14
5.18325E-07 4.40487E-14
5.50215E-07 4.27000E-14
5.83057E-07 4.13816E-14
6.16850E-07 4.00945E-14
6.51596E-07 3.88396E-14
6.87293E-07 3.76174E-14
7.23942E-07 3.64285E-14
7.61543E-07 3.52742E-14
1.18991E-06 2.55602E-14
1.71347E-06 1.87672E-14
2.33223E-06 1.40986E-14
3.04617E-06 1.08523E-14
3.85531E-06 8.53611E-15
4.75964E-06 6.83331E-15
5.75916E-06 5.54547E-15
6.85388E-06 4.54769E-15
8.04378E-06 3.75968E-15
9.32888E-06 3.09086E-15
1.07092E-05 2.58177E-15
1.21846E-05 2.18894E-15
1.37553E-05 1.84164E-15
1.54212E-05 1.55560E-15
1.71822E-05 1.32882E-15
1.90385E-05 1.13659E-15
2.09899E-05 9.71142E-16
2.30365E-05 8.36871E-16
2.51783E-05 7.25191E-16
2.74153E-05 6.27355E-16
2.97475E-05 5.46349E-16
3.21749E-05 4.78786E-16
3.46974E-05 4.19691E-16
3.73152E-05 3.69771E-16
4.00281E-05 3.27439E-16
4.28362E-05 2.90764E-16
4.57395E-05 2.59118E-16
4.87380E-05 2.31878E-16
5.18317E-05 2.08195E-16
5.50205E-05 1.87482E-16
5.83045E-05 1.69426E-16
6.16838E-05 1.53599E-16
6.51582E-05 1.39596E-16
6.87277E-05 1.27254E-16
7.23925E-05 1.16338E-16
7.61524E-05 1.06567E-16
9.21439E-05 7.67794E-17
1.09658E-04 5.70016E-17
1.28695E-04 4.33372E-17
1.49255E-04 3.35509E-17
1.71338E-04 2.63787E-17
1.94942E-04 2.10115E-17
2.20070E-04 1.69241E-17
2.46720E-04 1.37625E-17
2.74892E-04 1.12889E-17
3.04586E-04 9.33634E-18
3.35803E-04 7.77991E-18
3.68542E-04 6.52822E-18
4.02802E-04 5.51255E-18
4.38585E-04 4.68400E-18
4.75889E-04 4.00346E-18
5.14715E-04 3.44083E-18
5.55063E-04 2.97260E-18
5.96931E-04 2.58080E-18
6.40321E-04 2.25117E-18
6.85233E-04 1.97233E-18
7.31665E-04 1.73522E-18
7.79618E-04 1.53262E-18
8.29092E-04 1.35865E-18
8.80086E-04 1.20869E-18
9.32601E-04 1.07908E-18
9.86636E-04 9.66499E-19
1.04219E-03 8.68070E-19
1.09927E-03 7.81989E-19
1.15786E-03 7.06437E-19
1.21797E-03 6.39696E-19
1.27961E-03 5.80722E-19
1.34276E-03 5.28466E-19
1.40743E-03 4.81934E-19
1.47362E-03 4.40426E-19
1.54133E-03 4.03343E-19
1.61056E-03 3.70086E-19
1.68131E-03 3.40167E-19
1.75357E-03 3.13246E-19
1.82735E-03 2.88956E-19
1.90265E-03 2.66943E-19
1.97947E-03 2.47009E-19
2.05780E-03 2.28924E-19
2.13765E-03 2.12434E-19
2.21902E-03 1.97413E-19
2.30190E-03 1.83711E-19
2.38630E-03 1.71165E-19
2.47222E-03 1.59669E-19
2.55965E-03 1.49132E-19
2.64859E-03 1.39448E-19
2.73905E-03 1.30528E-19
2.83103E-03 1.22316E-19
2.92452E-03 1.14744E-19
3.01952E-03 1.07735E-19
3.11604E-03 1.01258E-19
3.21407E-03 9.52657E-20
3.31362E-03 8.96998E-20
3.41468E-03 8.45357E-20
3.51725E-03 7.97412E-20
3.62133E-03 7.52774E-20
3.72692E-03 7.11190E-20
3.83403E-03 6.72463E-20
3.94265E-03 6.36326E-20
4.05278E-03 6.02542E-20
4.16442E-03 5.70986E-20
4.27757E-03 5.41481E-20
4.39223E-03 5.13805E-20
4.50840E-03 4.87887E-20
4.62608E-03 4.63594E-20
4.74527E-03 4.40761E-20
4.86597E-03 4.19316E-20
4.98817E-03 3.99167E-20
5.11188E-03 3.80199E-20
5.23711E-03 3.62333E-20
5.36383E-03 3.45510E-20
5.49207E-03 3.29648E-20
5.62181E-03 3.14670E-20
5.75306E-03 3.00536E-20
5.88581E-03 2.87191E-20
6.02007E-03 2.74558E-20
6.15583E-03 2.62616E-20
6.29310E-03 2.51319E-20
6.43187E-03 2.40612E-20
6.57214E-03 2.30466E-20
6.71392E-03 2.20852E-20
6.85720E-03 2.11729E-20
7.00198E-03 2.03067E-20
7.14827E-03 1.94844E-20
7.29605E-03 1.87033E-20
7.44534E-03 1.79601E-20
7.59612E-03 1.72537E-20
7.97965E-03 1.56328E-20
8.37255E-03 1.41971E-20
8.77480E-03 1.29217E-20
9.18641E-03 1.17853E-20
9.60736E-03 1.07707E-20
1.00376E-02 9.86241E-21
1.04773E-02 9.04744E-21
1.09262E-02 8.31437E-21
1.13844E-02 7.65372E-21
1.18520E-02 7.05709E-21
1.23288E-02 6.51720E-21
1.28150E-02 6.02766E-21
1.33104E-02 5.58298E-21
1.38150E-02 5.17836E-21
1.43290E-02 4.80956E-21
1.48521E-02 4.47283E-21
1.53845E-02 4.16489E-21
1.59262E-02 3.88286E-21
1.64770E-02 3.62419E-21
1.70371E-02 3.38658E-21
1.76063E-02 3.16802E-21
1.81848E-02 2.96671E-21
1.87724E-02 2.78106E-21
1.93692E-02 2.60962E-21
1.99751E-02 2.45111E-21
2.05901E-02 2.30439E-21
2.12143E-02 2.16843E-21
2.18476E-02 2.04229E-21
2.24900E-02 1.92514E-21
2.31415E-02 1.81621E-21
2.38021E-02 1.71484E-21
2.44717E-02 1.62041E-21
2.51504E-02 1.53234E-21
2.58382E-02 1.45014E-21
2.65349E-02 1.37335E-21
2.72407E-02 1.30154E-21
2.79555E-02 1.23434E-21
2.86793E-02 1.17139E-21
2.94120E-02 1.11237E-21
3.01537E-02 1.05701E-21
3.09043E-02 1.00502E-21
3.16639E-02 9.56173E-22
3.24324E-02 9.10236E-22
3.32098E-02 8.67007E-22
3.39961E-02 8.26298E-22
3.47912E-02 7.87933E-22
3.55952E-02 7.51755E-22
3.64081E-02 7.17615E-22
3.72297E-02 6.85379E-22
3.80602E-02 6.54919E-22
3.88995E-02 6.26121E-22
3.97476E-02 5.98878E-22
4.06044E-02 5.73090E-22
4.14700E-02 5.48664E-22
4.23443E-02 5.25517E-22
4.32273E-02 5.03569E-22
4.41190E-02 4.82747E-22
4.50194E-02 4.62981E-22
4.59284E-02 4.44209E-22
4.68461E-02 4.26372E-22
4.87074E-02 3.93284E-22
5.06030E-02 3.63321E-22
5.25328E-02 3.36136E-22
5.44967E-02 3.11428E-22
5.64946E-02 2.88930E-22
5.85262E-02 2.68412E-22
6.05914E-02 2.49668E-22
6.26901E-02 2.32518E-22
6.48222E-02 2.16803E-22
6.69873E-02 2.02383E-22
6.91854E-02 1.89131E-22
7.14163E-02 1.76936E-22
7.36799E-02 1.65699E-22
7.59760E-02 1.55332E-22
7.83043E-02 1.45756E-22
8.06647E-02 1.36898E-22
8.30571E-02 1.28697E-22
8.54812E-02 1.21095E-22
8.79369E-02 1.14040E-22
9.04240E-02 1.07486E-22
9.29422E-02 1.01391E-22
9.54915E-02 9.57174E-23
9.80716E-02 9.04307E-23
1.00682E-01 8.54998E-23
1.03323E-01 8.08965E-23
1.05995E-01 7.65953E-23
1.08696E-01 7.25727E-23
1.11427E-01 6.88076E-23
1.14188E-01 6.52804E-23
1.16978E-01 6.19735E-23
1.19797E-01 5.88707E-23
1.22645E-01 5.59571E-23
1.25522E-01 5.32191E-23
1.28428E-01 5.06443E-23
1.31361E-01 4.82211E-23
1.34323E-01 4.59391E-23
1.37313E-01 4.37886E-23
1.40330E-01 4.17606E-23
1.43375E-01 3.98470E-23
1.46447E-01 3.80400E-23
1.49545E-01 3.63327E-23
1.52671E-01 3.47187E-23
1.55823E-01 3.31918E-23
1.59001E-01 3.17466E-23
1.62205E-01 3.03780E-23
1.65435E-01 2.90810E-23
1.68690E-01 2.78513E-23
1.71970E-01 2.66849E-23
1.75276E-01 2.55778E-23
1.78606E-01 2.45264E-23
1.81961E-01 2.35276E-23
1.85340E-01 2.25781E-23
1.88743E-01 2.16752E-23
1.92169E-01 2.08160E-23
1.95619E-01 1.99982E-23
1.99092E-01 1.92194E-23
2.02589E-01 1.84773E-23
2.06107E-01 1.77700E-23
2.09649E-01 1.70955E-23
2.13212E-01 1.64520E-23
2.16797E-01 1.58378E-23
2.20404E-01 1.52514E-23
2.24032E-01 1.46913E-23
2.27680E-01 1.41561E-23
2.31350E-01 1.36445E-23
2.35040E-01 1.31552E-23
2.38751E-01 1.26872E-23
2.42481E-01 1.22392E-23
2.46231E-01 1.18104E-23
2.50000E-01 1.13997E-23
2.53788E-01 1.10063E-23
2.57595E-01 1.06293E-23
2.61421E-01 1.02678E-23
2.65264E-01 9.92118E-24
2.69126E-01 9.58866E-24
2.73005E-01 9.26956E-24
2.76901E-01 8.96326E-24
2.80814E-01 8.66915E-24
2.84744E-01 8.38665E-24
2.88691E-01 8.11523E-24
2.92653E-01 7.85437E-24
2.96632E-01 7.60359E-24
3.00625E-01 7.36243E-24
3.04634E-01 7.13046E-24
3.08658E-01 6.90727E-24
3.12697E-01 6.69246E-24
3.16749E-01 6.48566E-24
3.20816E-01 6.28652E-24
3.24896E-01 6.09470E-24
3.28990E-01 5.90990E-24
3.33097E-01 5.73181E-24
3.37216E-01 5.56013E-24
3.41348E-01 5.39461E-24
3.45492E-01 5.23497E-24
3.49647E-01 5.08098E-24
3.53814E-01 4.93240E-24
3.57992E-01 4.78900E-24
3.62181E-01 4.65057E-24
3.66381E-01 4.51691E-24
3.70590E-01 4.38783E-24
3.74810E-01 4.26314E-24
3.79039E-01 4.14267E-24
3.83277E-01 4.02625E-24
3.87524E-01 3.91371E-24
3.91780E-01 3.80491E-24
3.96044E-01 3.69970E-24
4.00316E-01 3.59795E-24
4.04596E-01 3.49951E-24
4.08882E-01 3.40426E-24
4.13176E-01 3.31208E-24
4.17476E-01 3.22286E-24
4.21783E-01 3.13647E-24
4.26095E-01 3.05283E-24
4.30413E-01 2.97181E-24
4.34737E-01 2.89334E-24
4.39065E-01 2.81731E-24
4.43398E-01 2.74363E-24
4.47736E-01 2.67222E-24
4.52077E-01 2.60300E-24
4.56422E-01 2.53589E-24
4.60770E-01 2.47081E-24
4.65122E-01 2.40769E-24
4.69476E-01 2.34647E-24
4.73832E-01 2.28707E-24
4.78190E-01 2.22943E-24
4.82550E-01 2.17349E-24
4.86912E-01 2.11920E-24
4.91274E-01 2.06649E-24
4.95637E-01 2.01531E-24
5.00000E-01 1.96561E-24
5.04363E-01 1.91734E-24
5.08726E-01 1.87045E-24
5.13088E-01 1.82490E-24
5.17450E-01 1.78064E-24
5.21810E-01 1.73762E-24
5.26168E-01 1.69582E-24
5.30524E-01 1.65518E-24
5.34878E-01 1.61567E-24
5.39230E-01 1.57725E-24
5.43578E-01 1.53989E-24
5.47923E-01 1.50355E-24
5.52264E-01 1.46821E-24
5.56602E-01 1.43382E-24
5.60935E-01 1.40037E-24
5.65263E-01 1.36781E-24
5.69587E-01 1.33613E-24
5.73905E-01 1.30529E-24
5.78217E-01 1.27527E-24
5.82524E-01 1.24604E-24
5.86824E-01 1.21758E-24
5.91118E-01 1.18987E-24
5.95404E-01 1.16288E-24
5.99684E-01 1.13659E-24
6.03956E-01 1.11098E-24
6.08220E-01 1.08603E-24
6.12476E-01 1.06172E-24
6.16723E-01 1.03803E-24
6.20961E-01 1.01495E-24
6.25190E-01 9.92447E-25
6.29410E-01 9.70515E-25
6.33619E-01 9.49134E-25
6.37819E-01 9.28288E-25
6.42008E-01 9.07962E-25
6.46186E-01 8.88141E-25
6.50353E-01 8.68811E-25
6.54508E-01 8.49958E-25
6.58652E-01 8.31568E-25
6.62784E-01 8.13628E-25
6.66903E-01 7.96125E-25
6.71010E-01 7.79048E-25
6.75104E-01 7.62385E-25
6.79184E-01 7.46123E-25
6.83251E-01 7.30253E-25
6.87303E-01 7.14763E-25
6.91342E-01 6.99643E-25
6.95366E-01 6.84883E-25
6.99375E-01 6.70473E-25
7.03368E-01 6.56403E-25
7.07347E-01 6.42666E-25
7.11309E-01 6.29251E-25
7.15256E-01 6.16150E-25
7.19186E-01 6.03356E-25
7.23099E-01 5.90859E-25
7.26995E-01 5.78652E-25
7.30874E-01 5.66728E-25
7.34736E-01 5.55079E-25
7.38579E-01 5.43698E-25
7.42405E-01 5.32578E-25
7.46212E-01 5.21713E-25
7.50000E-01 5.11096E-25
7.53769E-01 5.00721E-25
7.57519E-01 4.90581E-25
7.61249E-01 4.80671E-25
7.64960E-01 4.70985E-25
7.68650E-01 4.61518E-25
7.72320E-01 4.52263E-25
7.75968E-01 4.43216E-25
7.79596E-01 4.34372E-25
7.83203E-01 4.25726E-25
7.86788E-01 4.17272E-25
7.90351E-01 4.09007E-25
7.93893E-01 4.00925E-25
7.97411E-01 3.93023E-25
8.00908E-01 3.85296E-25
8.04381E-01 3.77739E-25
8.07831E-01 3.70350E-25
8.11257E-01 3.63123E-25
8.14660E-01 3.56055E-25
8.18039E-01 3.49143E-25
8.21394E-01 3.42383E-25
8.24724E-01 3.35771E-25
8.28030E-01 3.29304E-25
8.31310E-01 3.22978E-25
8.34565E-01 3.16791E-25
8.37795E-01 3.10739E-25
8.40999E-01 3.04819E-25
8.44177E-01 2.99029E-25
8.47329E-01 2.93365E-25
8.50455E-01 2.87824E-25
8.53553E-01 2.82405E-25
8.56625E-01 2.77104E-25
8.59670E-01 2.71918E-25
8.62687E-01 2.66846E-25
8.65677E-01 2.61885E-25
8.68639E-01 2.57032E-25
8.71572E-01 2.52285E-25
8.74478E-01 2.47642E-25
8.77355E-01 2.43100E-25
8.80203E-01 2.38658E-25
8.83022E-01 2.34314E-25
8.85812E-01 2.30066E-25
8.88573E-01 2.25911E-25
8.91304E-01 2.21847E-25
8.94005E-01 2.17874E-25
8.96677E-01 2.13988E-25
8.99318E-01 2.10189E-25
9.01928E-01 2.06475E-25
9.04508E-01 2.02843E-25
9.07058E-01 1.99293E-25
9.09576E-01 1.95822E-25
9.12063E-01 1.92430E-25
9.14519E-01 1.89115E-25
9.16943E-01 1.85875E-25
9.19335E-01 1.82709E-25
9.21696E-01 1.79616E-25
9.24024E-01 1.76594E-25
9.26320E-01 1.73642E-25
9.28584E-01 1.70758E-25
9.30815E-01 1.67942E-25
9.33013E-01 1.65193E-25
9.35178E-01 1.62508E-25
9.37310E-01 1.59888E-25
9.39409E-01 1.57330E-25
9.41474E-01 1.54835E-25
9.43505E-01 1.52400E-25
9.45503E-01 1.50025E-25
9.47467E-01 1.47710E-25
9.49397E-01 1.45452E-25
9.51293E-01 1.43251E-25
9.53154E-01 1.41106E-25
9.54981E-01 1.39017E-25
9.56773E-01 1.36981E-25
9.58530E-01 1.35000E-25
9.60252E-01 1.33071E-25
9.61940E-01 1.31195E-25
9.63592E-01 1.29370E-25
9.65209E-01 1.27595E-25
9.66790E-01 1.25870E-25
9.68336E-01 1.24195E-25
9.69846E-01 1.22568E-25
9.71321E-01 1.20989E-25
9.72759E-01 1.19457E-25
9.74162E-01 1.17972E-25
9.75528E-01 1.16533E-25
9.76858E-01 1.15140E-25
9.78152E-01 1.13791E-25
9.79410E-01 1.12488E-25
9.80631E-01 1.11228E-25
9.81815E-01 1.10012E-25
9.82963E-01 1.08839E-25
9.84074E-01 1.07708E-25
9.85148E-01 1.06620E-25
9.86185E-01 1.05573E-25
9.87185E-01 1.04568E-25
9.88148E-01 1.03604E-25
9.89074E-01 1.02681E-25
9.89962E-01 1.01797E-25
9.90814E-01 1.00954E-25
9.91627E-01 1.00151E-25
9.92404E-01 9.93864E-26
9.93143E-01 9.86612E-26
9.93844E-01 9.79749E-26
9.94508E-01 9.73270E-26
9.95134E-01 9.67175E-26
9.95722E-01 9.61460E-26
9.96273E-01 9.56124E-26
9.96786E-01 9.51164E-26
9.97261E-01 9.46579E-26
9.97698E-01 9.42367E-26
9.98097E-01 9.38527E-26
9.98459E-01 9.35056E-26
9.98782E-01 9.31954E-26
9.99067E-01 9.29220E-26
9.99315E-01 9.26853E-26
9.99524E-01 9.24851E-26
9.99695E-01 9.23214E-26
9.99829E-01 9.21941E-26
9.99924E-01 9.21033E-26
9.99981E-01 9.20488E-26
1.00000E+00 9.20306E-26
