 #
 # Subroutine ELSEPA. Elastic scattering of electrons and positrons
 #                    by neutral atoms and positive ions
 #
 # Projectile: positron
 # Kinetic energy = 6.00000E+06 eV = 2.20496E+05 a.u.
 #
 # WARNING: High-energy factorization with free-atom DF screening.
 #          Absorption, polarization and exchange corrections are
 #          switched off.
 #          Phase shifts are calculated for the bare nucleus.
 #          Scattering amplitudes are not evaluated.
 #
 # Element:  V,  Z =  23,  atomic weight = 5.09415E+01 g/mol
 #
 # Nuclear model: Fermi distribution
 #                Average radius = 3.96650E-13 cm
 #                Skin thickness = 5.46000E-14 cm
 #
 # Number of electrons = 23
 #
 # Total elastic cross section = 1.93395E-18 cm**2 = 6.90628E-02 a0**2
 # 1st transport cross section = 1.85715E-23 cm**2 = 6.63201E-07 a0**2
 # 2nd transport cross section = 5.35666E-23 cm**2 = 1.91290E-06 a0**2
 #
 #
 # Differential cross section:                       MU=(1-COS(THETA))/2
 #
 #  THETA        MU          DCS          DCS        Sherman      error
 #  (deg)                 (cm**2/sr)   (a0**2/sr)    function
 #----------------------------------------------------------------------
0.00000E+00 1.11173E-12
7.61557E-13 1.11171E-12
1.18994E-12 1.11170E-12
1.71346E-12 1.11169E-12
2.33225E-12 1.11167E-12
3.04617E-12 1.11165E-12
3.85530E-12 1.11163E-12
4.75964E-12 1.11161E-12
5.75917E-12 1.11159E-12
6.85391E-12 1.11156E-12
8.04379E-12 1.11154E-12
9.32893E-12 1.11151E-12
1.07092E-11 1.11147E-12
1.21847E-11 1.11144E-12
1.37554E-11 1.11140E-12
1.54213E-11 1.11136E-12
1.71823E-11 1.11132E-12
1.90386E-11 1.11128E-12
2.09900E-11 1.11123E-12
2.30367E-11 1.11118E-12
2.51785E-11 1.11113E-12
2.74156E-11 1.11108E-12
2.97478E-11 1.11103E-12
3.21752E-11 1.11097E-12
3.46979E-11 1.11091E-12
3.73157E-11 1.11085E-12
4.00286E-11 1.11078E-12
4.28368E-11 1.11072E-12
4.57402E-11 1.11065E-12
4.87388E-11 1.11058E-12
5.18325E-11 1.11051E-12
5.50215E-11 1.11043E-12
5.83057E-11 1.11036E-12
6.16850E-11 1.11028E-12
6.51595E-11 1.11020E-12
6.87293E-11 1.11011E-12
7.23943E-11 1.11003E-12
7.61544E-11 1.10994E-12
1.18991E-10 1.10894E-12
1.71347E-10 1.10772E-12
2.33223E-10 1.10628E-12
3.04617E-10 1.10462E-12
3.85531E-10 1.10274E-12
4.75965E-10 1.10066E-12
5.75917E-10 1.09836E-12
6.85389E-10 1.09584E-12
8.04380E-10 1.09313E-12
9.32891E-10 1.09020E-12
1.07092E-09 1.08707E-12
1.21847E-09 1.08374E-12
1.37554E-09 1.08022E-12
1.54213E-09 1.07650E-12
1.71823E-09 1.07259E-12
1.90386E-09 1.06849E-12
2.09900E-09 1.06421E-12
2.30367E-09 1.05975E-12
2.51785E-09 1.05511E-12
2.74156E-09 1.05030E-12
2.97478E-09 1.04532E-12
3.21752E-09 1.04017E-12
3.46978E-09 1.03487E-12
3.73156E-09 1.02941E-12
4.00286E-09 1.02379E-12
4.28368E-09 1.01803E-12
4.57402E-09 1.01213E-12
4.87388E-09 1.00609E-12
5.18326E-09 9.99921E-13
5.50215E-09 9.93617E-13
5.83057E-09 9.87179E-13
6.16850E-09 9.80626E-13
6.51596E-09 9.73962E-13
6.87293E-09 9.67193E-13
7.23942E-09 9.60324E-13
7.61544E-09 9.53360E-13
1.18991E-08 8.79273E-13
1.71347E-08 8.00399E-13
2.33223E-08 7.20863E-13
3.04617E-08 6.43924E-13
3.85531E-08 5.71833E-13
4.75965E-08 5.05928E-13
5.75917E-08 4.46805E-13
6.85389E-08 3.94525E-13
8.04380E-08 3.48748E-13
9.32891E-08 3.08928E-13
1.07092E-07 2.74428E-13
1.21847E-07 2.44587E-13
1.37554E-07 2.18775E-13
1.54213E-07 1.96408E-13
1.71823E-07 1.76975E-13
1.90386E-07 1.60033E-13
2.09900E-07 1.45207E-13
2.30367E-07 1.32174E-13
2.51785E-07 1.20654E-13
2.74156E-07 1.10436E-13
2.97478E-07 1.01335E-13
3.21752E-07 9.31944E-14
3.46978E-07 8.58837E-14
3.73156E-07 7.92821E-14
4.00286E-07 7.33052E-14
4.28368E-07 6.78814E-14
4.57402E-07 6.29455E-14
4.87388E-07 5.84414E-14
5.18325E-07 5.43191E-14
5.50215E-07 5.04736E-14
5.83057E-07 4.67330E-14
6.16850E-07 4.33802E-14
6.51596E-07 4.03672E-14
6.87293E-07 3.76527E-14
7.23942E-07 3.52013E-14
7.61543E-07 3.29822E-14
1.18991E-06 1.74949E-14
1.71347E-06 9.76877E-15
2.33223E-06 5.77723E-15
3.04617E-06 3.62590E-15
3.85531E-06 2.40102E-15
4.75964E-06 1.66480E-15
5.75916E-06 1.19899E-15
6.85388E-06 8.89784E-16
8.04378E-06 6.76546E-16
9.32888E-06 5.24536E-16
1.07092E-05 4.13189E-16
1.21846E-05 3.29803E-16
1.37553E-05 2.66108E-16
1.54212E-05 2.16775E-16
1.71822E-05 1.78165E-16
1.90385E-05 1.47618E-16
2.09899E-05 1.23220E-16
2.30365E-05 1.03550E-16
2.51783E-05 8.75528E-17
2.74153E-05 7.44748E-17
2.97475E-05 6.37131E-17
3.21749E-05 5.48031E-17
3.46974E-05 4.73826E-17
3.73152E-05 4.11649E-17
4.00281E-05 3.59278E-17
4.28362E-05 3.14939E-17
4.57395E-05 2.77208E-17
4.87380E-05 2.44947E-17
5.18317E-05 2.17238E-17
5.50205E-05 1.93329E-17
5.83045E-05 1.72610E-17
6.16838E-05 1.54625E-17
6.51582E-05 1.38952E-17
6.87277E-05 1.25197E-17
7.23925E-05 1.13113E-17
7.61524E-05 1.02470E-17
9.21439E-05 7.06252E-18
1.09658E-04 5.02789E-18
1.28695E-04 3.67810E-18
1.49255E-04 2.75338E-18
1.71338E-04 2.10232E-18
1.94942E-04 1.63294E-18
2.20070E-04 1.28746E-18
2.46720E-04 1.02861E-18
2.74892E-04 8.31582E-19
3.04586E-04 6.79486E-19
3.35803E-04 5.60556E-19
3.68542E-04 4.66488E-19
4.02802E-04 3.91283E-19
4.38585E-04 3.30606E-19
4.75889E-04 2.81218E-19
5.14715E-04 2.40694E-19
5.55063E-04 2.07194E-19
5.96931E-04 1.79306E-19
6.40321E-04 1.55943E-19
6.85233E-04 1.36254E-19
7.31665E-04 1.19569E-19
7.79618E-04 1.05355E-19
8.29092E-04 9.31863E-20
8.80086E-04 8.27196E-20
9.32601E-04 7.36785E-20
9.86636E-04 6.58365E-20
1.04219E-03 5.90082E-20
1.09927E-03 5.30405E-20
1.15786E-03 4.78066E-20
1.21797E-03 4.32010E-20
1.27961E-03 3.91357E-20
1.34276E-03 3.55364E-20
1.40743E-03 3.23406E-20
1.47362E-03 2.94953E-20
1.54133E-03 2.69553E-20
1.61056E-03 2.46824E-20
1.68131E-03 2.26435E-20
1.75357E-03 2.08104E-20
1.82735E-03 1.91587E-20
1.90265E-03 1.76673E-20
1.97947E-03 1.63178E-20
2.05780E-03 1.50945E-20
2.13765E-03 1.39835E-20
2.21902E-03 1.29726E-20
2.30190E-03 1.20512E-20
2.38630E-03 1.12099E-20
2.47222E-03 1.04407E-20
2.55965E-03 9.73615E-21
2.64859E-03 9.08990E-21
2.73905E-03 8.49628E-21
2.83103E-03 7.95021E-21
2.92452E-03 7.44720E-21
3.01952E-03 6.98327E-21
3.11604E-03 6.55481E-21
3.21407E-03 6.15864E-21
3.31362E-03 5.79187E-21
3.41468E-03 5.45194E-21
3.51725E-03 5.13652E-21
3.62133E-03 4.84352E-21
3.72692E-03 4.57107E-21
3.83403E-03 4.31746E-21
3.94265E-03 4.08115E-21
4.05278E-03 3.86074E-21
4.16442E-03 3.65498E-21
4.27757E-03 3.46270E-21
4.39223E-03 3.28287E-21
4.50840E-03 3.11453E-21
4.62608E-03 2.95682E-21
4.74527E-03 2.80893E-21
4.86597E-03 2.67015E-21
4.98817E-03 2.53981E-21
5.11188E-03 2.41730E-21
5.23711E-03 2.30207E-21
5.36383E-03 2.19360E-21
5.49207E-03 2.09143E-21
5.62181E-03 1.99512E-21
5.75306E-03 1.90428E-21
5.88581E-03 1.81853E-21
6.02007E-03 1.73754E-21
6.15583E-03 1.66099E-21
6.29310E-03 1.58860E-21
6.43187E-03 1.52009E-21
6.57214E-03 1.45523E-21
6.71392E-03 1.39378E-21
6.85720E-03 1.33553E-21
7.00198E-03 1.28028E-21
7.14827E-03 1.22785E-21
7.29605E-03 1.17807E-21
7.44534E-03 1.13077E-21
7.59612E-03 1.08582E-21
7.97965E-03 9.82797E-22
8.37255E-03 8.91671E-22
8.77480E-03 8.10830E-22
9.18641E-03 7.38914E-22
9.60736E-03 6.74769E-22
1.00376E-02 6.17411E-22
1.04773E-02 5.65998E-22
1.09262E-02 5.19806E-22
1.13844E-02 4.78213E-22
1.18520E-02 4.40682E-22
1.23288E-02 4.06747E-22
1.28150E-02 3.76003E-22
1.33104E-02 3.48097E-22
1.38150E-02 3.22721E-22
1.43290E-02 2.99606E-22
1.48521E-02 2.78514E-22
1.53845E-02 2.59238E-22
1.59262E-02 2.41593E-22
1.64770E-02 2.25417E-22
1.70371E-02 2.10566E-22
1.76063E-02 1.96912E-22
1.81848E-02 1.84341E-22
1.87724E-02 1.72753E-22
1.93692E-02 1.62056E-22
1.99751E-02 1.52170E-22
2.05901E-02 1.43023E-22
2.12143E-02 1.34548E-22
2.18476E-02 1.26689E-22
2.24900E-02 1.19392E-22
2.31415E-02 1.12610E-22
2.38021E-02 1.06300E-22
2.44717E-02 1.00423E-22
2.51504E-02 9.49438E-23
2.58382E-02 8.98312E-23
2.65349E-02 8.50561E-23
2.72407E-02 8.05920E-23
2.79555E-02 7.64150E-23
2.86793E-02 7.25035E-23
2.94120E-02 6.88373E-23
3.01537E-02 6.53984E-23
3.09043E-02 6.21701E-23
3.16639E-02 5.91372E-23
3.24324E-02 5.62856E-23
3.32098E-02 5.36027E-23
3.39961E-02 5.10766E-23
3.47912E-02 4.86964E-23
3.55952E-02 4.64523E-23
3.64081E-02 4.43349E-23
3.72297E-02 4.23359E-23
3.80602E-02 4.04474E-23
3.88995E-02 3.86623E-23
3.97476E-02 3.69737E-23
4.06044E-02 3.53756E-23
4.14700E-02 3.38621E-23
4.23443E-02 3.24281E-23
4.32273E-02 3.10685E-23
4.41190E-02 2.97789E-23
4.50194E-02 2.85549E-23
4.59284E-02 2.73925E-23
4.68461E-02 2.62882E-23
4.87074E-02 2.42402E-23
5.06030E-02 2.23860E-23
5.25328E-02 2.07042E-23
5.44967E-02 1.91759E-23
5.64946E-02 1.77848E-23
5.85262E-02 1.65163E-23
6.05914E-02 1.53578E-23
6.26901E-02 1.42981E-23
6.48222E-02 1.33273E-23
6.69873E-02 1.24366E-23
6.91854E-02 1.16182E-23
7.14163E-02 1.08654E-23
7.36799E-02 1.01718E-23
7.59760E-02 9.53205E-24
7.83043E-02 8.94121E-24
8.06647E-02 8.39489E-24
8.30571E-02 7.88913E-24
8.54812E-02 7.42041E-24
8.79369E-02 6.98552E-24
9.04240E-02 6.58160E-24
9.29422E-02 6.20605E-24
9.54915E-02 5.85654E-24
9.80716E-02 5.53093E-24
1.00682E-01 5.22731E-24
1.03323E-01 4.94393E-24
1.05995E-01 4.67919E-24
1.08696E-01 4.43166E-24
1.11427E-01 4.20002E-24
1.14188E-01 3.98308E-24
1.16978E-01 3.77973E-24
1.19797E-01 3.58896E-24
1.22645E-01 3.40988E-24
1.25522E-01 3.24162E-24
1.28428E-01 3.08343E-24
1.31361E-01 2.93459E-24
1.34323E-01 2.79446E-24
1.37313E-01 2.66242E-24
1.40330E-01 2.53794E-24
1.43375E-01 2.42051E-24
1.46447E-01 2.30965E-24
1.49545E-01 2.20493E-24
1.52671E-01 2.10595E-24
1.55823E-01 2.01235E-24
1.59001E-01 1.92377E-24
1.62205E-01 1.83990E-24
1.65435E-01 1.76044E-24
1.68690E-01 1.68513E-24
1.71970E-01 1.61371E-24
1.75276E-01 1.54593E-24
1.78606E-01 1.48159E-24
1.81961E-01 1.42047E-24
1.85340E-01 1.36240E-24
1.88743E-01 1.30718E-24
1.92169E-01 1.25465E-24
1.95619E-01 1.20467E-24
1.99092E-01 1.15708E-24
2.02589E-01 1.11175E-24
2.06107E-01 1.06855E-24
2.09649E-01 1.02737E-24
2.13212E-01 9.88088E-25
2.16797E-01 9.50611E-25
2.20404E-01 9.14839E-25
2.24032E-01 8.80680E-25
2.27680E-01 8.48048E-25
2.31350E-01 8.16863E-25
2.35040E-01 7.87050E-25
2.38751E-01 7.58538E-25
2.42481E-01 7.31260E-25
2.46231E-01 7.05153E-25
2.50000E-01 6.80158E-25
2.53788E-01 6.56220E-25
2.57595E-01 6.33286E-25
2.61421E-01 6.11306E-25
2.65264E-01 5.90235E-25
2.69126E-01 5.70027E-25
2.73005E-01 5.50641E-25
2.76901E-01 5.32038E-25
2.80814E-01 5.14182E-25
2.84744E-01 4.97035E-25
2.88691E-01 4.80567E-25
2.92653E-01 4.64744E-25
2.96632E-01 4.49538E-25
3.00625E-01 4.34920E-25
3.04634E-01 4.20863E-25
3.08658E-01 4.07343E-25
3.12697E-01 3.94335E-25
3.16749E-01 3.81816E-25
3.20816E-01 3.69765E-25
3.24896E-01 3.58161E-25
3.28990E-01 3.46985E-25
3.33097E-01 3.36219E-25
3.37216E-01 3.25844E-25
3.41348E-01 3.15845E-25
3.45492E-01 3.06204E-25
3.49647E-01 2.96908E-25
3.53814E-01 2.87941E-25
3.57992E-01 2.79291E-25
3.62181E-01 2.70943E-25
3.66381E-01 2.62886E-25
3.70590E-01 2.55108E-25
3.74810E-01 2.47597E-25
3.79039E-01 2.40343E-25
3.83277E-01 2.33335E-25
3.87524E-01 2.26563E-25
3.91780E-01 2.20019E-25
3.96044E-01 2.13694E-25
4.00316E-01 2.07578E-25
4.04596E-01 2.01664E-25
4.08882E-01 1.95944E-25
4.13176E-01 1.90410E-25
4.17476E-01 1.85056E-25
4.21783E-01 1.79874E-25
4.26095E-01 1.74859E-25
4.30413E-01 1.70003E-25
4.34737E-01 1.65302E-25
4.39065E-01 1.60748E-25
4.43398E-01 1.56338E-25
4.47736E-01 1.52065E-25
4.52077E-01 1.47925E-25
4.56422E-01 1.43912E-25
4.60770E-01 1.40023E-25
4.65122E-01 1.36252E-25
4.69476E-01 1.32596E-25
4.73832E-01 1.29050E-25
4.78190E-01 1.25612E-25
4.82550E-01 1.22276E-25
4.86912E-01 1.19039E-25
4.91274E-01 1.15898E-25
4.95637E-01 1.12850E-25
5.00000E-01 1.09891E-25
5.04363E-01 1.07019E-25
5.08726E-01 1.04230E-25
5.13088E-01 1.01521E-25
5.17450E-01 9.88907E-26
5.21810E-01 9.63355E-26
5.26168E-01 9.38531E-26
5.30524E-01 9.14412E-26
5.34878E-01 8.90974E-26
5.39230E-01 8.68194E-26
5.43578E-01 8.46052E-26
5.47923E-01 8.24526E-26
5.52264E-01 8.03598E-26
5.56602E-01 7.83247E-26
5.60935E-01 7.63455E-26
5.65263E-01 7.44204E-26
5.69587E-01 7.25478E-26
5.73905E-01 7.07260E-26
5.78217E-01 6.89534E-26
5.82524E-01 6.72285E-26
5.86824E-01 6.55498E-26
5.91118E-01 6.39158E-26
5.95404E-01 6.23252E-26
5.99684E-01 6.07767E-26
6.03956E-01 5.92690E-26
6.08220E-01 5.78008E-26
6.12476E-01 5.63710E-26
6.16723E-01 5.49785E-26
6.20961E-01 5.36220E-26
6.25190E-01 5.23005E-26
6.29410E-01 5.10131E-26
6.33619E-01 4.97586E-26
6.37819E-01 4.85362E-26
6.42008E-01 4.73449E-26
6.46186E-01 4.61837E-26
6.50353E-01 4.50519E-26
6.54508E-01 4.39485E-26
6.58652E-01 4.28728E-26
6.62784E-01 4.18240E-26
6.66903E-01 4.08013E-26
6.71010E-01 3.98039E-26
6.75104E-01 3.88312E-26
6.79184E-01 3.78825E-26
6.83251E-01 3.69570E-26
6.87303E-01 3.60542E-26
6.91342E-01 3.51734E-26
6.95366E-01 3.43141E-26
6.99375E-01 3.34755E-26
7.03368E-01 3.26572E-26
7.07347E-01 3.18587E-26
7.11309E-01 3.10793E-26
7.15256E-01 3.03185E-26
7.19186E-01 2.95759E-26
7.23099E-01 2.88510E-26
7.26995E-01 2.81433E-26
7.30874E-01 2.74523E-26
7.34736E-01 2.67777E-26
7.38579E-01 2.61189E-26
7.42405E-01 2.54755E-26
7.46212E-01 2.48473E-26
7.50000E-01 2.42337E-26
7.53769E-01 2.36344E-26
7.57519E-01 2.30490E-26
7.61249E-01 2.24772E-26
7.64960E-01 2.19186E-26
7.68650E-01 2.13729E-26
7.72320E-01 2.08397E-26
7.75968E-01 2.03188E-26
7.79596E-01 1.98099E-26
7.83203E-01 1.93126E-26
7.86788E-01 1.88266E-26
7.90351E-01 1.83517E-26
7.93893E-01 1.78876E-26
7.97411E-01 1.74341E-26
8.00908E-01 1.69908E-26
8.04381E-01 1.65576E-26
8.07831E-01 1.61341E-26
8.11257E-01 1.57202E-26
8.14660E-01 1.53156E-26
8.18039E-01 1.49202E-26
8.21394E-01 1.45336E-26
8.24724E-01 1.41557E-26
8.28030E-01 1.37863E-26
8.31310E-01 1.34251E-26
8.34565E-01 1.30721E-26
8.37795E-01 1.27269E-26
8.40999E-01 1.23895E-26
8.44177E-01 1.20596E-26
8.47329E-01 1.17370E-26
8.50455E-01 1.14217E-26
8.53553E-01 1.11134E-26
8.56625E-01 1.08120E-26
8.59670E-01 1.05173E-26
8.62687E-01 1.02292E-26
8.65677E-01 9.94754E-27
8.68639E-01 9.67217E-27
8.71572E-01 9.40295E-27
8.74478E-01 9.13976E-27
8.77355E-01 8.88246E-27
8.80203E-01 8.63092E-27
8.83022E-01 8.38503E-27
8.85812E-01 8.14467E-27
8.88573E-01 7.90971E-27
8.91304E-01 7.68005E-27
8.94005E-01 7.45558E-27
8.96677E-01 7.23618E-27
8.99318E-01 7.02176E-27
9.01928E-01 6.81222E-27
9.04508E-01 6.60745E-27
9.07058E-01 6.40736E-27
9.09576E-01 6.21186E-27
9.12063E-01 6.02086E-27
9.14519E-01 5.83426E-27
9.16943E-01 5.65199E-27
9.19335E-01 5.47395E-27
9.21696E-01 5.30008E-27
9.24024E-01 5.13029E-27
9.26320E-01 4.96449E-27
9.28584E-01 4.80263E-27
9.30815E-01 4.64463E-27
9.33013E-01 4.49041E-27
9.35178E-01 4.33990E-27
9.37310E-01 4.19305E-27
9.39409E-01 4.04979E-27
9.41474E-01 3.91004E-27
9.43505E-01 3.77376E-27
9.45503E-01 3.64089E-27
9.47467E-01 3.51135E-27
9.49397E-01 3.38511E-27
9.51293E-01 3.26210E-27
9.53154E-01 3.14228E-27
9.54981E-01 3.02558E-27
9.56773E-01 2.91196E-27
9.58530E-01 2.80138E-27
9.60252E-01 2.69378E-27
9.61940E-01 2.58912E-27
9.63592E-01 2.48736E-27
9.65209E-01 2.38845E-27
9.66790E-01 2.29236E-27
9.68336E-01 2.19903E-27
9.69846E-01 2.10843E-27
9.71321E-01 2.02054E-27
9.72759E-01 1.93530E-27
9.74162E-01 1.85268E-27
9.75528E-01 1.77265E-27
9.76858E-01 1.69518E-27
9.78152E-01 1.62023E-27
9.79410E-01 1.54778E-27
9.80631E-01 1.47779E-27
9.81815E-01 1.41024E-27
9.82963E-01 1.34509E-27
9.84074E-01 1.28233E-27
9.85148E-01 1.22192E-27
9.86185E-01 1.16385E-27
9.87185E-01 1.10808E-27
9.88148E-01 1.05460E-27
9.89074E-01 1.00339E-27
9.89962E-01 9.54415E-28
9.90814E-01 9.07668E-28
9.91627E-01 8.63127E-28
9.92404E-01 8.20774E-28
9.93143E-01 7.80593E-28
9.93844E-01 7.42566E-28
9.94508E-01 7.06680E-28
9.95134E-01 6.72919E-28
9.95722E-01 6.41271E-28
9.96273E-01 6.11722E-28
9.96786E-01 5.84262E-28
9.97261E-01 5.58879E-28
9.97698E-01 5.35564E-28
9.98097E-01 5.14306E-28
9.98459E-01 4.95098E-28
9.98782E-01 4.77932E-28
9.99067E-01 4.62802E-28
9.99315E-01 4.49701E-28
9.99524E-01 4.38624E-28
9.99695E-01 4.29567E-28
9.99829E-01 4.22527E-28
9.99924E-01 4.17500E-28
9.99981E-01 4.14485E-28
1.00000E+00 4.13480E-28
