 #
 # Subroutine ELSEPA. Elastic scattering of electrons and positrons
 #                    by neutral atoms and positive ions
 #
 # Projectile: positron
 # Kinetic energy = 4.00000E+06 eV = 1.46997E+05 a.u.
 #
 # WARNING: High-energy factorization with free-atom DF screening.
 #          Absorption, polarization and exchange corrections are
 #          switched off.
 #          Phase shifts are calculated for the bare nucleus.
 #          Scattering amplitudes are not evaluated.
 #
 # Element:  V,  Z =  23,  atomic weight = 5.09415E+01 g/mol
 #
 # Nuclear model: Fermi distribution
 #                Average radius = 3.96650E-13 cm
 #                Skin thickness = 5.46000E-14 cm
 #
 # Number of electrons = 23
 #
 # Total elastic cross section = 1.94675E-18 cm**2 = 6.95197E-02 a0**2
 # 1st transport cross section = 3.66860E-23 cm**2 = 1.31008E-06 a0**2
 # 2nd transport cross section = 1.05474E-22 cm**2 = 3.76654E-06 a0**2
 #
 #
 # Differential cross section:                       MU=(1-COS(THETA))/2
 #
 #  THETA        MU          DCS          DCS        Sherman      error
 #  (deg)                 (cm**2/sr)   (a0**2/sr)    function
 #----------------------------------------------------------------------
0.00000E+00 5.33640E-13
7.61557E-13 5.33635E-13
1.18994E-12 5.33633E-13
1.71346E-12 5.33630E-13
2.33225E-12 5.33627E-13
3.04617E-12 5.33623E-13
3.85530E-12 5.33618E-13
4.75964E-12 5.33613E-13
5.75917E-12 5.33608E-13
6.85391E-12 5.33602E-13
8.04379E-12 5.33595E-13
9.32893E-12 5.33588E-13
1.07092E-11 5.33581E-13
1.21847E-11 5.33573E-13
1.37554E-11 5.33565E-13
1.54213E-11 5.33555E-13
1.71823E-11 5.33546E-13
1.90386E-11 5.33536E-13
2.09900E-11 5.33525E-13
2.30367E-11 5.33514E-13
2.51785E-11 5.33503E-13
2.74156E-11 5.33491E-13
2.97478E-11 5.33478E-13
3.21752E-11 5.33465E-13
3.46979E-11 5.33451E-13
3.73157E-11 5.33437E-13
4.00286E-11 5.33423E-13
4.28368E-11 5.33408E-13
4.57402E-11 5.33392E-13
4.87388E-11 5.33376E-13
5.18325E-11 5.33359E-13
5.50215E-11 5.33342E-13
5.83057E-11 5.33324E-13
6.16850E-11 5.33306E-13
6.51595E-11 5.33288E-13
6.87293E-11 5.33268E-13
7.23943E-11 5.33249E-13
7.61544E-11 5.33228E-13
1.18991E-10 5.32999E-13
1.71347E-10 5.32718E-13
2.33223E-10 5.32387E-13
3.04617E-10 5.32005E-13
3.85531E-10 5.31574E-13
4.75965E-10 5.31092E-13
5.75917E-10 5.30560E-13
6.85389E-10 5.29979E-13
8.04380E-10 5.29348E-13
9.32891E-10 5.28669E-13
1.07092E-09 5.27940E-13
1.21847E-09 5.27163E-13
1.37554E-09 5.26338E-13
1.54213E-09 5.25466E-13
1.71823E-09 5.24545E-13
1.90386E-09 5.23578E-13
2.09900E-09 5.22564E-13
2.30367E-09 5.21505E-13
2.51785E-09 5.20399E-13
2.74156E-09 5.19248E-13
2.97478E-09 5.18052E-13
3.21752E-09 5.16812E-13
3.46978E-09 5.15529E-13
3.73156E-09 5.14202E-13
4.00286E-09 5.12832E-13
4.28368E-09 5.11421E-13
4.57402E-09 5.09968E-13
4.87388E-09 5.08474E-13
5.18326E-09 5.06939E-13
5.50215E-09 5.05365E-13
5.83057E-09 5.03752E-13
6.16850E-09 5.02101E-13
6.51596E-09 5.00411E-13
6.87293E-09 4.98685E-13
7.23942E-09 4.96922E-13
7.61544E-09 4.95124E-13
1.18991E-08 4.75324E-13
1.71347E-08 4.52759E-13
2.33223E-08 4.28181E-13
3.04617E-08 4.02351E-13
3.85531E-08 3.75959E-13
4.75965E-08 3.49608E-13
5.75917E-08 3.23797E-13
6.85389E-08 2.98911E-13
8.04380E-08 2.75256E-13
9.32891E-08 2.53022E-13
1.07092E-07 2.32317E-13
1.21847E-07 2.13183E-13
1.37554E-07 1.95618E-13
1.54213E-07 1.79571E-13
1.71823E-07 1.64965E-13
1.90386E-07 1.51705E-13
2.09900E-07 1.39690E-13
2.30367E-07 1.28819E-13
2.51785E-07 1.18988E-13
2.74156E-07 1.10092E-13
2.97478E-07 1.02039E-13
3.21752E-07 9.47420E-14
3.46978E-07 8.81223E-14
3.73156E-07 8.21051E-14
4.00286E-07 7.66253E-14
4.28368E-07 7.16269E-14
4.57402E-07 6.70590E-14
4.87388E-07 6.28763E-14
5.18325E-07 5.90364E-14
5.50215E-07 5.54988E-14
5.83057E-07 5.22383E-14
6.16850E-07 4.92274E-14
6.51596E-07 4.64417E-14
6.87293E-07 4.38594E-14
7.23942E-07 4.14544E-14
7.61543E-07 3.92150E-14
1.18991E-06 2.32570E-14
1.71347E-06 1.44746E-14
2.33223E-06 9.26065E-15
3.04617E-06 6.11784E-15
3.85531E-06 4.15980E-15
4.75964E-06 2.90777E-15
5.75916E-06 2.08821E-15
6.85388E-06 1.53863E-15
8.04378E-06 1.16261E-15
9.32888E-06 8.98141E-16
1.07092E-05 7.07417E-16
1.21846E-05 5.66662E-16
1.37553E-05 4.60351E-16
1.54212E-05 3.78517E-16
1.71822E-05 3.14533E-16
1.90385E-05 2.63765E-16
2.09899E-05 2.22961E-16
2.30365E-05 1.89746E-16
2.51783E-05 1.62365E-16
2.74153E-05 1.39706E-16
2.97475E-05 1.20813E-16
3.21749E-05 1.04956E-16
3.46974E-05 9.15710E-17
3.73152E-05 8.01858E-17
4.00281E-05 7.04750E-17
4.28362E-05 6.21622E-17
4.57395E-05 5.50144E-17
4.87380E-05 4.88432E-17
5.18317E-05 4.34925E-17
5.50205E-05 3.88345E-17
5.83045E-05 3.47740E-17
6.16838E-05 3.12231E-17
6.51582E-05 2.81083E-17
6.87277E-05 2.53680E-17
7.23925E-05 2.29484E-17
7.61524E-05 2.08079E-17
9.21439E-05 1.43720E-17
1.09658E-04 1.02365E-17
1.28695E-04 7.48659E-18
1.49255E-04 5.60431E-18
1.71338E-04 4.28013E-18
1.94942E-04 3.32635E-18
2.20070E-04 2.62488E-18
2.46720E-04 2.09946E-18
2.74892E-04 1.69959E-18
3.04586E-04 1.39080E-18
3.35803E-04 1.14918E-18
3.68542E-04 9.57880E-19
4.02802E-04 8.04720E-19
4.38585E-04 6.80990E-19
4.75889E-04 5.80146E-19
5.14715E-04 4.97280E-19
5.55063E-04 4.28676E-19
5.96931E-04 3.71463E-19
6.40321E-04 3.23460E-19
6.85233E-04 2.82951E-19
7.31665E-04 2.48576E-19
7.79618E-04 2.19252E-19
8.29092E-04 1.94113E-19
8.80086E-04 1.72461E-19
9.32601E-04 1.53737E-19
9.86636E-04 1.37479E-19
1.04219E-03 1.23308E-19
1.09927E-03 1.10912E-19
1.15786E-03 1.00027E-19
1.21797E-03 9.04417E-20
1.27961E-03 8.19740E-20
1.34276E-03 7.44715E-20
1.40743E-03 6.78053E-20
1.47362E-03 6.18660E-20
1.54133E-03 5.65604E-20
1.61056E-03 5.18099E-20
1.68131E-03 4.75463E-20
1.75357E-03 4.37112E-20
1.82735E-03 4.02539E-20
1.90265E-03 3.71303E-20
1.97947E-03 3.43031E-20
2.05780E-03 3.17391E-20
2.13765E-03 2.94095E-20
2.21902E-03 2.72892E-20
2.30190E-03 2.53560E-20
2.38630E-03 2.35903E-20
2.47222E-03 2.19753E-20
2.55965E-03 2.04957E-20
2.64859E-03 1.91383E-20
2.73905E-03 1.78910E-20
2.83103E-03 1.67434E-20
2.92452E-03 1.56860E-20
3.01952E-03 1.47106E-20
3.11604E-03 1.38096E-20
3.21407E-03 1.29764E-20
3.31362E-03 1.22048E-20
3.41468E-03 1.14896E-20
3.51725E-03 1.08258E-20
3.62133E-03 1.02092E-20
3.72692E-03 9.63570E-21
3.83403E-03 9.10180E-21
3.94265E-03 8.60424E-21
4.05278E-03 8.14013E-21
4.16442E-03 7.70679E-21
4.27757E-03 7.30183E-21
4.39223E-03 6.92304E-21
4.50840E-03 6.56841E-21
4.62608E-03 6.23613E-21
4.74527E-03 5.92453E-21
4.86597E-03 5.63210E-21
4.98817E-03 5.35743E-21
5.11188E-03 5.09925E-21
5.23711E-03 4.85638E-21
5.36383E-03 4.62775E-21
5.49207E-03 4.41238E-21
5.62181E-03 4.20935E-21
5.75306E-03 4.01783E-21
5.88581E-03 3.83704E-21
6.02007E-03 3.66628E-21
6.15583E-03 3.50487E-21
6.29310E-03 3.35222E-21
6.43187E-03 3.20777E-21
6.57214E-03 3.07098E-21
6.71392E-03 2.94138E-21
6.85720E-03 2.81853E-21
7.00198E-03 2.70200E-21
7.14827E-03 2.59141E-21
7.29605E-03 2.48639E-21
7.44534E-03 2.38663E-21
7.59612E-03 2.29180E-21
7.97965E-03 2.07447E-21
8.37255E-03 1.88222E-21
8.77480E-03 1.71165E-21
9.18641E-03 1.55990E-21
9.60736E-03 1.42454E-21
1.00376E-02 1.30350E-21
1.04773E-02 1.19500E-21
1.09262E-02 1.09751E-21
1.13844E-02 1.00972E-21
1.18520E-02 9.30504E-22
1.23288E-02 8.58874E-22
1.28150E-02 7.93976E-22
1.33104E-02 7.35069E-22
1.38150E-02 6.81501E-22
1.43290E-02 6.32703E-22
1.48521E-02 5.88176E-22
1.53845E-02 5.47480E-22
1.59262E-02 5.10228E-22
1.64770E-02 4.76075E-22
1.70371E-02 4.44719E-22
1.76063E-02 4.15890E-22
1.81848E-02 3.89348E-22
1.87724E-02 3.64879E-22
1.93692E-02 3.42292E-22
1.99751E-02 3.21417E-22
2.05901E-02 3.02101E-22
2.12143E-02 2.84207E-22
2.18476E-02 2.67610E-22
2.24900E-02 2.52201E-22
2.31415E-02 2.37879E-22
2.38021E-02 2.24553E-22
2.44717E-02 2.12142E-22
2.51504E-02 2.00571E-22
2.58382E-02 1.89774E-22
2.65349E-02 1.79689E-22
2.72407E-02 1.70261E-22
2.79555E-02 1.61440E-22
2.86793E-02 1.53179E-22
2.94120E-02 1.45436E-22
3.01537E-02 1.38172E-22
3.09043E-02 1.31354E-22
3.16639E-02 1.24948E-22
3.24324E-02 1.18925E-22
3.32098E-02 1.13258E-22
3.39961E-02 1.07923E-22
3.47912E-02 1.02895E-22
3.55952E-02 9.81551E-23
3.64081E-02 9.36827E-23
3.72297E-02 8.94602E-23
3.80602E-02 8.54711E-23
3.88995E-02 8.17002E-23
3.97476E-02 7.81333E-23
4.06044E-02 7.47574E-23
4.14700E-02 7.15605E-23
4.23443E-02 6.85312E-23
4.32273E-02 6.56591E-23
4.41190E-02 6.29347E-23
4.50194E-02 6.03490E-23
4.59284E-02 5.78935E-23
4.68461E-02 5.55606E-23
4.87074E-02 5.12339E-23
5.06030E-02 4.73166E-23
5.25328E-02 4.37635E-23
5.44967E-02 4.05346E-23
5.64946E-02 3.75954E-23
5.85262E-02 3.49153E-23
6.05914E-02 3.24675E-23
6.26901E-02 3.02284E-23
6.48222E-02 2.81770E-23
6.69873E-02 2.62950E-23
6.91854E-02 2.45658E-23
7.14163E-02 2.29748E-23
7.36799E-02 2.15092E-23
7.59760E-02 2.01573E-23
7.83043E-02 1.89087E-23
8.06647E-02 1.77541E-23
8.30571E-02 1.66852E-23
8.54812E-02 1.56946E-23
8.79369E-02 1.47755E-23
9.04240E-02 1.39218E-23
9.29422E-02 1.31280E-23
9.54915E-02 1.23892E-23
9.80716E-02 1.17010E-23
1.00682E-01 1.10592E-23
1.03323E-01 1.04602E-23
1.05995E-01 9.90056E-24
1.08696E-01 9.37730E-24
1.11427E-01 8.88761E-24
1.14188E-01 8.42897E-24
1.16978E-01 7.99906E-24
1.19797E-01 7.59576E-24
1.22645E-01 7.21713E-24
1.25522E-01 6.86139E-24
1.28428E-01 6.52691E-24
1.31361E-01 6.21220E-24
1.34323E-01 5.91589E-24
1.37313E-01 5.63670E-24
1.40330E-01 5.37347E-24
1.43375E-01 5.12513E-24
1.46447E-01 4.89069E-24
1.49545E-01 4.66924E-24
1.52671E-01 4.45991E-24
1.55823E-01 4.26194E-24
1.59001E-01 4.07459E-24
1.62205E-01 3.89720E-24
1.65435E-01 3.72914E-24
1.68690E-01 3.56984E-24
1.71970E-01 3.41875E-24
1.75276E-01 3.27539E-24
1.78606E-01 3.13928E-24
1.81961E-01 3.00999E-24
1.85340E-01 2.88712E-24
1.88743E-01 2.77030E-24
1.92169E-01 2.65917E-24
1.95619E-01 2.55341E-24
1.99092E-01 2.45272E-24
2.02589E-01 2.35680E-24
2.06107E-01 2.26539E-24
2.09649E-01 2.17825E-24
2.13212E-01 2.09513E-24
2.16797E-01 2.01582E-24
2.20404E-01 1.94011E-24
2.24032E-01 1.86782E-24
2.27680E-01 1.79875E-24
2.31350E-01 1.73275E-24
2.35040E-01 1.66964E-24
2.38751E-01 1.60929E-24
2.42481E-01 1.55154E-24
2.46231E-01 1.49628E-24
2.50000E-01 1.44336E-24
2.53788E-01 1.39268E-24
2.57595E-01 1.34413E-24
2.61421E-01 1.29759E-24
2.65264E-01 1.25297E-24
2.69126E-01 1.21019E-24
2.73005E-01 1.16914E-24
2.76901E-01 1.12974E-24
2.80814E-01 1.09193E-24
2.84744E-01 1.05561E-24
2.88691E-01 1.02073E-24
2.92653E-01 9.87221E-25
2.96632E-01 9.55013E-25
3.00625E-01 9.24049E-25
3.04634E-01 8.94273E-25
3.08658E-01 8.65631E-25
3.12697E-01 8.38073E-25
3.16749E-01 8.11551E-25
3.20816E-01 7.86018E-25
3.24896E-01 7.61432E-25
3.28990E-01 7.37752E-25
3.33097E-01 7.14938E-25
3.37216E-01 6.92953E-25
3.41348E-01 6.71762E-25
3.45492E-01 6.51331E-25
3.49647E-01 6.31628E-25
3.53814E-01 6.12623E-25
3.57992E-01 5.94287E-25
3.62181E-01 5.76592E-25
3.66381E-01 5.59512E-25
3.70590E-01 5.43022E-25
3.74810E-01 5.27099E-25
3.79039E-01 5.11718E-25
3.83277E-01 4.96859E-25
3.87524E-01 4.82502E-25
3.91780E-01 4.68625E-25
3.96044E-01 4.55211E-25
4.00316E-01 4.42241E-25
4.04596E-01 4.29698E-25
4.08882E-01 4.17565E-25
4.13176E-01 4.05828E-25
4.17476E-01 3.94471E-25
4.21783E-01 3.83479E-25
4.26095E-01 3.72838E-25
4.30413E-01 3.62537E-25
4.34737E-01 3.52562E-25
4.39065E-01 3.42900E-25
4.43398E-01 3.33541E-25
4.47736E-01 3.24474E-25
4.52077E-01 3.15687E-25
4.56422E-01 3.07171E-25
4.60770E-01 2.98916E-25
4.65122E-01 2.90913E-25
4.69476E-01 2.83152E-25
4.73832E-01 2.75625E-25
4.78190E-01 2.68325E-25
4.82550E-01 2.61242E-25
4.86912E-01 2.54370E-25
4.91274E-01 2.47701E-25
4.95637E-01 2.41228E-25
5.00000E-01 2.34945E-25
5.04363E-01 2.28845E-25
5.08726E-01 2.22921E-25
5.13088E-01 2.17168E-25
5.17450E-01 2.11581E-25
5.21810E-01 2.06153E-25
5.26168E-01 2.00879E-25
5.30524E-01 1.95755E-25
5.34878E-01 1.90775E-25
5.39230E-01 1.85935E-25
5.43578E-01 1.81230E-25
5.47923E-01 1.76655E-25
5.52264E-01 1.72207E-25
5.56602E-01 1.67882E-25
5.60935E-01 1.63675E-25
5.65263E-01 1.59583E-25
5.69587E-01 1.55602E-25
5.73905E-01 1.51729E-25
5.78217E-01 1.47960E-25
5.82524E-01 1.44293E-25
5.86824E-01 1.40723E-25
5.91118E-01 1.37248E-25
5.95404E-01 1.33866E-25
5.99684E-01 1.30572E-25
6.03956E-01 1.27365E-25
6.08220E-01 1.24242E-25
6.12476E-01 1.21201E-25
6.16723E-01 1.18238E-25
6.20961E-01 1.15352E-25
6.25190E-01 1.12540E-25
6.29410E-01 1.09801E-25
6.33619E-01 1.07131E-25
6.37819E-01 1.04529E-25
6.42008E-01 1.01994E-25
6.46186E-01 9.95222E-26
6.50353E-01 9.71128E-26
6.54508E-01 9.47640E-26
6.58652E-01 9.24738E-26
6.62784E-01 9.02406E-26
6.66903E-01 8.80629E-26
6.71010E-01 8.59391E-26
6.75104E-01 8.38675E-26
6.79184E-01 8.18469E-26
6.83251E-01 7.98757E-26
6.87303E-01 7.79526E-26
6.91342E-01 7.60763E-26
6.95366E-01 7.42455E-26
6.99375E-01 7.24588E-26
7.03368E-01 7.07153E-26
7.07347E-01 6.90135E-26
7.11309E-01 6.73525E-26
7.15256E-01 6.57312E-26
7.19186E-01 6.41484E-26
7.23099E-01 6.26032E-26
7.26995E-01 6.10945E-26
7.30874E-01 5.96214E-26
7.34736E-01 5.81830E-26
7.38579E-01 5.67783E-26
7.42405E-01 5.54064E-26
7.46212E-01 5.40666E-26
7.50000E-01 5.27579E-26
7.53769E-01 5.14797E-26
7.57519E-01 5.02310E-26
7.61249E-01 4.90112E-26
7.64960E-01 4.78195E-26
7.68650E-01 4.66551E-26
7.72320E-01 4.55175E-26
7.75968E-01 4.44060E-26
7.79596E-01 4.33198E-26
7.83203E-01 4.22584E-26
7.86788E-01 4.12212E-26
7.90351E-01 4.02075E-26
7.93893E-01 3.92168E-26
7.97411E-01 3.82485E-26
8.00908E-01 3.73021E-26
8.04381E-01 3.63770E-26
8.07831E-01 3.54727E-26
8.11257E-01 3.45888E-26
8.14660E-01 3.37248E-26
8.18039E-01 3.28801E-26
8.21394E-01 3.20543E-26
8.24724E-01 3.12470E-26
8.28030E-01 3.04578E-26
8.31310E-01 2.96862E-26
8.34565E-01 2.89318E-26
8.37795E-01 2.81942E-26
8.40999E-01 2.74730E-26
8.44177E-01 2.67680E-26
8.47329E-01 2.60786E-26
8.50455E-01 2.54045E-26
8.53553E-01 2.47455E-26
8.56625E-01 2.41011E-26
8.59670E-01 2.34710E-26
8.62687E-01 2.28550E-26
8.65677E-01 2.22527E-26
8.68639E-01 2.16638E-26
8.71572E-01 2.10880E-26
8.74478E-01 2.05251E-26
8.77355E-01 1.99747E-26
8.80203E-01 1.94367E-26
8.83022E-01 1.89106E-26
8.85812E-01 1.83964E-26
8.88573E-01 1.78936E-26
8.91304E-01 1.74022E-26
8.94005E-01 1.69219E-26
8.96677E-01 1.64523E-26
8.99318E-01 1.59934E-26
9.01928E-01 1.55449E-26
9.04508E-01 1.51066E-26
9.07058E-01 1.46783E-26
9.09576E-01 1.42597E-26
9.12063E-01 1.38508E-26
9.14519E-01 1.34513E-26
9.16943E-01 1.30610E-26
9.19335E-01 1.26797E-26
9.21696E-01 1.23074E-26
9.24024E-01 1.19437E-26
9.26320E-01 1.15886E-26
9.28584E-01 1.12419E-26
9.30815E-01 1.09035E-26
9.33013E-01 1.05731E-26
9.35178E-01 1.02507E-26
9.37310E-01 9.93602E-27
9.39409E-01 9.62906E-27
9.41474E-01 9.32963E-27
9.43505E-01 9.03759E-27
9.45503E-01 8.75284E-27
9.47467E-01 8.47523E-27
9.49397E-01 8.20466E-27
9.51293E-01 7.94101E-27
9.53154E-01 7.68416E-27
9.54981E-01 7.43401E-27
9.56773E-01 7.19044E-27
9.58530E-01 6.95337E-27
9.60252E-01 6.72269E-27
9.61940E-01 6.49829E-27
9.63592E-01 6.28010E-27
9.65209E-01 6.06801E-27
9.66790E-01 5.86194E-27
9.68336E-01 5.66180E-27
9.69846E-01 5.46752E-27
9.71321E-01 5.27901E-27
9.72759E-01 5.09618E-27
9.74162E-01 4.91898E-27
9.75528E-01 4.74733E-27
9.76858E-01 4.58115E-27
9.78152E-01 4.42037E-27
9.79410E-01 4.26495E-27
9.80631E-01 4.11480E-27
9.81815E-01 3.96987E-27
9.82963E-01 3.83011E-27
9.84074E-01 3.69544E-27
9.85148E-01 3.56584E-27
9.86185E-01 3.44123E-27
9.87185E-01 3.32157E-27
9.88148E-01 3.20681E-27
9.89074E-01 3.09691E-27
9.89962E-01 2.99182E-27
9.90814E-01 2.89150E-27
9.91627E-01 2.79591E-27
9.92404E-01 2.70502E-27
9.93143E-01 2.61878E-27
9.93844E-01 2.53717E-27
9.94508E-01 2.46015E-27
9.95134E-01 2.38769E-27
9.95722E-01 2.31976E-27
9.96273E-01 2.25634E-27
9.96786E-01 2.19740E-27
9.97261E-01 2.14291E-27
9.97698E-01 2.09287E-27
9.98097E-01 2.04724E-27
9.98459E-01 2.00601E-27
9.98782E-01 1.96916E-27
9.99067E-01 1.93668E-27
9.99315E-01 1.90856E-27
9.99524E-01 1.88478E-27
9.99695E-01 1.86534E-27
9.99829E-01 1.85022E-27
9.99924E-01 1.83943E-27
9.99981E-01 1.83296E-27
1.00000E+00 1.83080E-27
