 #
 # Subroutine ELSEPA. Elastic scattering of electrons and positrons
 #                    by neutral atoms and positive ions
 #
 # Projectile: positron
 # Kinetic energy = 9.00000E+08 eV = 3.30744E+07 a.u.
 #
 # WARNING: High-energy factorization with free-atom DF screening.
 #          Absorption, polarization and exchange corrections are
 #          switched off.
 #          Phase shifts are calculated for the bare nucleus.
 #          Scattering amplitudes are not evaluated.
 #
 # Element:  V,  Z =  23,  atomic weight = 5.09415E+01 g/mol
 #
 # Nuclear model: Fermi distribution
 #                Average radius = 3.96650E-13 cm
 #                Skin thickness = 5.46000E-14 cm
 #
 # Number of electrons = 23
 #
 # Total elastic cross section = 1.90045E-18 cm**2 = 6.78665E-02 a0**2
 # 1st transport cross section = 1.36654E-27 cm**2 = 4.88001E-11 a0**2
 # 2nd transport cross section = 4.09897E-27 cm**2 = 1.46377E-10 a0**2
 #
 #
 # Differential cross section:                       MU=(1-COS(THETA))/2
 #
 #  THETA        MU          DCS          DCS        Sherman      error
 #  (deg)                 (cm**2/sr)   (a0**2/sr)    function
 #----------------------------------------------------------------------
0.00000E+00 2.12658E-08
7.61557E-13 1.59967E-08
1.18994E-12 1.38854E-08
1.71346E-12 1.18599E-08
2.33225E-12 1.00295E-08
3.04617E-12 8.44331E-09
3.85530E-12 7.10702E-09
4.75964E-12 6.00076E-09
5.75917E-12 5.09322E-09
6.85391E-12 4.35132E-09
8.04379E-12 3.74363E-09
9.32893E-12 3.24366E-09
1.07092E-11 2.82918E-09
1.21847E-11 2.48307E-09
1.37554E-11 2.19152E-09
1.54213E-11 1.94348E-09
1.71823E-11 1.73116E-09
1.90386E-11 1.54772E-09
2.09900E-11 1.38811E-09
2.30367E-11 1.24865E-09
2.51785E-11 1.12577E-09
2.74156E-11 1.01718E-09
2.97478E-11 9.16058E-10
3.21752E-11 8.25821E-10
3.46979E-11 7.47998E-10
3.73157E-11 6.80561E-10
4.00286E-11 6.21855E-10
4.28368E-11 5.70524E-10
4.57402E-11 5.21060E-10
4.87388E-11 4.74110E-10
5.18325E-11 4.32885E-10
5.50215E-11 3.96552E-10
5.83057E-11 3.64419E-10
6.16850E-11 3.35902E-10
6.51595E-11 3.09102E-10
6.87293E-11 2.83554E-10
7.23943E-11 2.60787E-10
7.61544E-11 2.40443E-10
1.18991E-10 1.14152E-10
1.71347E-10 6.04168E-11
2.33223E-10 3.52768E-11
3.04617E-10 2.22640E-11
3.85531E-10 1.48778E-11
4.75965E-10 1.03673E-11
5.75917E-10 7.45730E-12
6.85389E-10 5.49117E-12
8.04380E-10 4.12481E-12
9.32891E-10 3.15169E-12
1.07092E-09 2.44280E-12
1.21847E-09 1.91921E-12
1.37554E-09 1.52618E-12
1.54213E-09 1.22710E-12
1.71823E-09 9.97043E-13
1.90386E-09 8.17944E-13
2.09900E-09 6.77048E-13
2.30367E-09 5.65116E-13
2.51785E-09 4.75310E-13
2.74156E-09 4.02648E-13
2.97478E-09 3.43323E-13
3.21752E-09 2.94597E-13
3.46978E-09 2.54288E-13
3.73156E-09 2.20617E-13
4.00286E-09 1.92402E-13
4.28368E-09 1.68554E-13
4.57402E-09 1.48315E-13
4.87388E-09 1.31046E-13
5.18326E-09 1.16219E-13
5.50215E-09 1.03457E-13
5.83057E-09 9.23904E-14
6.16850E-09 8.27794E-14
6.51596E-09 7.43907E-14
6.87293E-09 6.70384E-14
7.23942E-09 6.05840E-14
7.61544E-09 5.48789E-14
1.18991E-08 2.29352E-14
1.71347E-08 1.12070E-14
2.33223E-08 6.10052E-15
3.04617E-08 3.59561E-15
3.85531E-08 2.25284E-15
4.75965E-08 1.48171E-15
5.75917E-08 1.01375E-15
6.85389E-08 7.16638E-16
8.04380E-08 5.20754E-16
9.32891E-08 3.87415E-16
1.07092E-07 2.94128E-16
1.21847E-07 2.27292E-16
1.37554E-07 1.78400E-16
1.54213E-07 1.41972E-16
1.71823E-07 1.14382E-16
1.90386E-07 9.31783E-17
2.09900E-07 7.66671E-17
2.30367E-07 6.36558E-17
2.51785E-07 5.32907E-17
2.74156E-07 4.49517E-17
2.97478E-07 3.81817E-17
3.21752E-07 3.26393E-17
3.46978E-07 2.80670E-17
3.73156E-07 2.42679E-17
4.00286E-07 2.10904E-17
4.28368E-07 1.84162E-17
4.57402E-07 1.61528E-17
4.87388E-07 1.42266E-17
5.18325E-07 1.25791E-17
5.50215E-07 1.11633E-17
5.83057E-07 9.94123E-18
6.16850E-07 8.88188E-18
6.51596E-07 7.95994E-18
6.87293E-07 7.15457E-18
7.23942E-07 6.44852E-18
7.61543E-07 5.82746E-18
1.18991E-06 2.38685E-18
1.71347E-06 1.15099E-18
2.33223E-06 6.21222E-19
3.04617E-06 3.64116E-19
3.85531E-06 2.27294E-19
4.75964E-06 1.49113E-19
5.75916E-06 1.01836E-19
6.85388E-06 7.18960E-20
8.04378E-06 5.21931E-20
9.32888E-06 3.87998E-20
1.07092E-05 2.94396E-20
1.21846E-05 2.27391E-20
1.37553E-05 1.78407E-20
1.54212E-05 1.41930E-20
1.71822E-05 1.14315E-20
1.90385E-05 9.31033E-21
2.09899E-05 7.65934E-21
2.30365E-05 6.35830E-21
2.51783E-05 5.32188E-21
2.74153E-05 4.48814E-21
2.97475E-05 3.81141E-21
3.21749E-05 3.25757E-21
3.46974E-05 2.80083E-21
3.73152E-05 2.42143E-21
4.00281E-05 2.10417E-21
4.28362E-05 1.83720E-21
4.57395E-05 1.61123E-21
4.87380E-05 1.41893E-21
5.18317E-05 1.25445E-21
5.50205E-05 1.11312E-21
5.83045E-05 9.91137E-22
6.16838E-05 8.85417E-22
6.51582E-05 7.93428E-22
6.87277E-05 7.13084E-22
7.23925E-05 6.42655E-22
7.61524E-05 5.68480E-22
9.21439E-05 3.86142E-22
1.09658E-04 2.70990E-22
1.28695E-04 1.95443E-22
1.49255E-04 1.44257E-22
1.71338E-04 1.08617E-22
1.94942E-04 8.32030E-23
2.20070E-04 6.47040E-23
2.46720E-04 5.09906E-23
2.74892E-04 4.06597E-23
3.04586E-04 3.27647E-23
3.35803E-04 2.66526E-23
3.68542E-04 2.18657E-23
4.02802E-04 1.80770E-23
4.38585E-04 1.50494E-23
4.75889E-04 1.26088E-23
5.14715E-04 1.06256E-23
5.55063E-04 9.00224E-24
5.96931E-04 7.66430E-24
6.40321E-04 6.55472E-24
6.85233E-04 5.62916E-24
7.31665E-04 4.85293E-24
7.79618E-04 4.19869E-24
8.29092E-04 3.64468E-24
8.80086E-04 3.17351E-24
9.32601E-04 2.77115E-24
9.86636E-04 2.42625E-24
1.04219E-03 2.12955E-24
1.09927E-03 1.87346E-24
1.15786E-03 1.65172E-24
1.21797E-03 1.45917E-24
1.27961E-03 1.29149E-24
1.34276E-03 1.14509E-24
1.40743E-03 1.01695E-24
1.47362E-03 9.04544E-25
1.54133E-03 8.05717E-25
1.61056E-03 7.18650E-25
1.68131E-03 6.41795E-25
1.75357E-03 5.73830E-25
1.82735E-03 5.13622E-25
1.90265E-03 4.60198E-25
1.97947E-03 4.12722E-25
2.05780E-03 3.70469E-25
2.13765E-03 3.32813E-25
2.21902E-03 2.99211E-25
2.30190E-03 2.69189E-25
2.38630E-03 2.42335E-25
2.47222E-03 2.18290E-25
2.55965E-03 1.96736E-25
2.64859E-03 1.77399E-25
2.73905E-03 1.60033E-25
2.83103E-03 1.44426E-25
2.92452E-03 1.30387E-25
3.01952E-03 1.17750E-25
3.11604E-03 1.06368E-25
3.21407E-03 9.61090E-26
3.31362E-03 8.68568E-26
3.41468E-03 7.85082E-26
3.51725E-03 7.09711E-26
3.62133E-03 6.41636E-26
3.72692E-03 5.80124E-26
3.83403E-03 5.24523E-26
3.94265E-03 4.74246E-26
4.05278E-03 4.28772E-26
4.16442E-03 3.87629E-26
4.27757E-03 3.50397E-26
4.39223E-03 3.16699E-26
4.50840E-03 2.86193E-26
4.62608E-03 2.58574E-26
4.74527E-03 2.33567E-26
4.86597E-03 2.10924E-26
4.98817E-03 1.90420E-26
5.11188E-03 1.71854E-26
5.23711E-03 1.55043E-26
5.36383E-03 1.39822E-26
5.49207E-03 1.26044E-26
5.62181E-03 1.13572E-26
5.75306E-03 1.02284E-26
5.88581E-03 9.20716E-27
6.02007E-03 8.28331E-27
6.15583E-03 7.44782E-27
6.29310E-03 6.69248E-27
6.43187E-03 6.00983E-27
6.57214E-03 5.39310E-27
6.71392E-03 4.83615E-27
6.85720E-03 4.33341E-27
7.00198E-03 3.87982E-27
7.14827E-03 3.47080E-27
7.29605E-03 3.10215E-27
7.44534E-03 2.77011E-27
7.59612E-03 2.47122E-27
7.97965E-03 1.84919E-27
8.37255E-03 1.37404E-27
8.77480E-03 1.01306E-27
9.18641E-03 7.40542E-28
9.60736E-03 5.36309E-28
1.00376E-02 3.84538E-28
1.04773E-02 2.72854E-28
1.09262E-02 1.91605E-28
1.13844E-02 1.33290E-28
1.18520E-02 9.21027E-29
1.23288E-02 6.35731E-29
1.28150E-02 4.42792E-29
1.33104E-02 3.16205E-29
1.38150E-02 2.36377E-29
1.43290E-02 1.88695E-29
1.48521E-02 1.62396E-29
1.53845E-02 1.49671E-29
1.59262E-02 1.44966E-29
1.64770E-02 1.44427E-29
1.70371E-02 1.45471E-29
1.76063E-02 1.46451E-29
1.81848E-02 1.46397E-29
1.87724E-02 1.44818E-29
1.93692E-02 1.41555E-29
1.99751E-02 1.36662E-29
2.05901E-02 1.30330E-29
2.12143E-02 1.22823E-29
2.18476E-02 1.14433E-29
2.24900E-02 1.05454E-29
2.31415E-02 9.61635E-30
2.38021E-02 8.68063E-30
2.44717E-02 7.75923E-30
2.51504E-02 6.86928E-30
2.58382E-02 6.02411E-30
2.65349E-02 5.23353E-30
2.72407E-02 4.50414E-30
2.79555E-02 3.83977E-30
2.86793E-02 3.24187E-30
2.94120E-02 2.70998E-30
3.01537E-02 2.24208E-30
3.09043E-02 1.83502E-30
3.16639E-02 1.48481E-30
3.24324E-02 1.18687E-30
3.32098E-02 9.36356E-31
3.39961E-02 7.28269E-31
3.47912E-02 5.57668E-31
3.55952E-02 4.19769E-31
3.64081E-02 3.10042E-31
3.72297E-02 2.24276E-31
3.80602E-02 1.58619E-31
3.88995E-02 1.09598E-31
3.97476E-02 7.41280E-32
4.06044E-02 4.95073E-32
4.14700E-02 3.33993E-32
4.23443E-02 2.38135E-32
4.32273E-02 1.90778E-32
4.41190E-02 1.78104E-32
4.50194E-02 1.88884E-32
4.59284E-02 2.14175E-32
4.68461E-02 2.47022E-32
4.87074E-02 3.15789E-32
5.06030E-02 3.68875E-32
5.25328E-02 3.95621E-32
5.44967E-02 3.95116E-32
5.64946E-02 3.71794E-32
5.85262E-02 3.32352E-32
6.05914E-02 2.83772E-32
6.26901E-02 2.32170E-32
6.48222E-02 1.82268E-32
6.69873E-02 1.37266E-32
6.91854E-02 9.89712E-33
7.14163E-02 6.80496E-33
7.36799E-02 4.43271E-33
7.59760E-02 2.70791E-33
7.83043E-02 1.52805E-33
8.06647E-02 7.80027E-34
8.30571E-02 3.54155E-34
8.54812E-02 1.52911E-34
8.79369E-02 9.55390E-35
9.04240E-02 1.19435E-34
9.29422E-02 1.79315E-34
9.54915E-02 2.45042E-34
9.80716E-02 2.98783E-34
1.00682E-01 3.32031E-34
1.03323E-01 3.42815E-34
1.05995E-01 3.33298E-34
1.08696E-01 3.07875E-34
1.11427E-01 2.71754E-34
1.14188E-01 2.29999E-34
1.16978E-01 1.86948E-34
1.19797E-01 1.45937E-34
1.22645E-01 1.09235E-34
1.25522E-01 7.81303E-35
1.28428E-01 5.30892E-35
1.31361E-01 3.39574E-35
1.34323E-01 2.01584E-35
1.37313E-01 1.08718E-35
1.40330E-01 5.18020E-36
1.43375E-01 2.17804E-36
1.46447E-01 1.04578E-36
1.49545E-01 1.09230E-36
1.52671E-01 1.77240E-36
1.55823E-01 2.68534E-36
1.59001E-01 3.56113E-36
1.62205E-01 4.23958E-36
1.65435E-01 4.64649E-36
1.68690E-01 4.77011E-36
1.71970E-01 4.63970E-36
1.75276E-01 4.30780E-36
1.78606E-01 3.83617E-36
1.81961E-01 3.28581E-36
1.85340E-01 2.71040E-36
1.88743E-01 2.15288E-36
1.92169E-01 1.64406E-36
1.95619E-01 1.20320E-36
1.99092E-01 8.39354E-37
2.02589E-01 5.53449E-37
2.06107E-01 3.40461E-37
2.09649E-01 1.91497E-37
2.13212E-01 9.56036E-38
2.16797E-01 4.12299E-38
2.20404E-01 1.73028E-38
2.24032E-01 1.39644E-38
2.27680E-01 2.29539E-38
2.31350E-01 3.78141E-38
2.35040E-01 5.38281E-38
2.38751E-01 6.78696E-38
2.42481E-01 7.81426E-38
2.46231E-01 8.39116E-38
2.50000E-01 8.52004E-38
2.53788E-01 8.25506E-38
2.57595E-01 7.67702E-38
2.61421E-01 6.87934E-38
2.65264E-01 5.95245E-38
2.69126E-01 4.97757E-38
2.73005E-01 4.02118E-38
2.76901E-01 3.13350E-38
2.80814E-01 2.34823E-38
2.84744E-01 1.68422E-38
2.88691E-01 1.14771E-38
2.92653E-01 7.34818E-39
2.96632E-01 4.34488E-39
3.00625E-01 1.00000E-45
3.04634E-01 1.00000E-45
3.08658E-01 1.00000E-45
3.12697E-01 1.00000E-45
3.16749E-01 1.00000E-45
3.20816E-01 1.00000E-45
3.24896E-01 1.00000E-45
3.28990E-01 1.00000E-45
3.33097E-01 1.00000E-45
3.37216E-01 1.00000E-45
3.41348E-01 1.00000E-45
3.45492E-01 1.00000E-45
3.49647E-01 1.00000E-45
3.53814E-01 1.00000E-45
3.57992E-01 1.00000E-45
3.62181E-01 1.00000E-45
3.66381E-01 1.00000E-45
3.70590E-01 1.00000E-45
3.74810E-01 1.00000E-45
3.79039E-01 1.00000E-45
3.83277E-01 1.00000E-45
3.87524E-01 1.00000E-45
3.91780E-01 1.00000E-45
3.96044E-01 1.00000E-45
4.00316E-01 1.00000E-45
4.04596E-01 1.00000E-45
4.08882E-01 1.00000E-45
4.13176E-01 1.00000E-45
4.17476E-01 1.00000E-45
4.21783E-01 1.00000E-45
4.26095E-01 1.00000E-45
4.30413E-01 1.00000E-45
4.34737E-01 1.00000E-45
4.39065E-01 1.00000E-45
4.43398E-01 1.00000E-45
4.47736E-01 1.00000E-45
4.52077E-01 1.00000E-45
4.56422E-01 1.00000E-45
4.60770E-01 1.00000E-45
4.65122E-01 1.00000E-45
4.69476E-01 1.00000E-45
4.73832E-01 1.00000E-45
4.78190E-01 1.00000E-45
4.82550E-01 1.00000E-45
4.86912E-01 1.00000E-45
4.91274E-01 1.00000E-45
4.95637E-01 1.00000E-45
5.00000E-01 1.00000E-45
5.04363E-01 1.00000E-45
5.08726E-01 1.00000E-45
5.13088E-01 1.00000E-45
5.17450E-01 1.00000E-45
5.21810E-01 1.00000E-45
5.26168E-01 1.00000E-45
5.30524E-01 1.00000E-45
5.34878E-01 1.00000E-45
5.39230E-01 1.00000E-45
5.43578E-01 1.00000E-45
5.47923E-01 1.00000E-45
5.52264E-01 1.00000E-45
5.56602E-01 1.00000E-45
5.60935E-01 1.00000E-45
5.65263E-01 1.00000E-45
5.69587E-01 1.00000E-45
5.73905E-01 1.00000E-45
5.78217E-01 1.00000E-45
5.82524E-01 1.00000E-45
5.86824E-01 1.00000E-45
5.91118E-01 1.00000E-45
5.95404E-01 1.00000E-45
5.99684E-01 1.00000E-45
6.03956E-01 1.00000E-45
6.08220E-01 1.00000E-45
6.12476E-01 1.00000E-45
6.16723E-01 1.00000E-45
6.20961E-01 1.00000E-45
6.25190E-01 1.00000E-45
6.29410E-01 1.00000E-45
6.33619E-01 1.00000E-45
6.37819E-01 1.00000E-45
6.42008E-01 1.00000E-45
6.46186E-01 1.00000E-45
6.50353E-01 1.00000E-45
6.54508E-01 1.00000E-45
6.58652E-01 1.00000E-45
6.62784E-01 1.00000E-45
6.66903E-01 1.00000E-45
6.71010E-01 1.00000E-45
6.75104E-01 1.00000E-45
6.79184E-01 1.00000E-45
6.83251E-01 1.00000E-45
6.87303E-01 1.00000E-45
6.91342E-01 1.00000E-45
6.95366E-01 1.00000E-45
6.99375E-01 1.00000E-45
7.03368E-01 1.00000E-45
7.07347E-01 1.00000E-45
7.11309E-01 1.00000E-45
7.15256E-01 1.00000E-45
7.19186E-01 1.00000E-45
7.23099E-01 1.00000E-45
7.26995E-01 1.00000E-45
7.30874E-01 1.00000E-45
7.34736E-01 1.00000E-45
7.38579E-01 1.00000E-45
7.42405E-01 1.00000E-45
7.46212E-01 1.00000E-45
7.50000E-01 1.00000E-45
7.53769E-01 1.00000E-45
7.57519E-01 1.00000E-45
7.61249E-01 1.00000E-45
7.64960E-01 1.00000E-45
7.68650E-01 1.00000E-45
7.72320E-01 1.00000E-45
7.75968E-01 1.00000E-45
7.79596E-01 1.00000E-45
7.83203E-01 1.00000E-45
7.86788E-01 1.00000E-45
7.90351E-01 1.00000E-45
7.93893E-01 1.00000E-45
7.97411E-01 1.00000E-45
8.00908E-01 1.00000E-45
8.04381E-01 1.00000E-45
8.07831E-01 1.00000E-45
8.11257E-01 1.00000E-45
8.14660E-01 1.00000E-45
8.18039E-01 1.00000E-45
8.21394E-01 1.00000E-45
8.24724E-01 1.00000E-45
8.28030E-01 1.00000E-45
8.31310E-01 1.00000E-45
8.34565E-01 1.00000E-45
8.37795E-01 1.00000E-45
8.40999E-01 1.00000E-45
8.44177E-01 1.00000E-45
8.47329E-01 1.00000E-45
8.50455E-01 1.00000E-45
8.53553E-01 1.00000E-45
8.56625E-01 1.00000E-45
8.59670E-01 1.00000E-45
8.62687E-01 1.00000E-45
8.65677E-01 1.00000E-45
8.68639E-01 1.00000E-45
8.71572E-01 1.00000E-45
8.74478E-01 1.00000E-45
8.77355E-01 1.00000E-45
8.80203E-01 1.00000E-45
8.83022E-01 1.00000E-45
8.85812E-01 1.00000E-45
8.88573E-01 1.00000E-45
8.91304E-01 1.00000E-45
8.94005E-01 1.00000E-45
8.96677E-01 1.00000E-45
8.99318E-01 1.00000E-45
9.01928E-01 1.00000E-45
9.04508E-01 1.00000E-45
9.07058E-01 1.00000E-45
9.09576E-01 1.00000E-45
9.12063E-01 1.00000E-45
9.14519E-01 1.00000E-45
9.16943E-01 1.00000E-45
9.19335E-01 1.00000E-45
9.21696E-01 1.00000E-45
9.24024E-01 1.00000E-45
9.26320E-01 1.00000E-45
9.28584E-01 1.00000E-45
9.30815E-01 1.00000E-45
9.33013E-01 1.00000E-45
9.35178E-01 1.00000E-45
9.37310E-01 1.00000E-45
9.39409E-01 1.00000E-45
9.41474E-01 1.00000E-45
9.43505E-01 1.00000E-45
9.45503E-01 1.00000E-45
9.47467E-01 1.00000E-45
9.49397E-01 1.00000E-45
9.51293E-01 1.00000E-45
9.53154E-01 1.00000E-45
9.54981E-01 1.00000E-45
9.56773E-01 1.00000E-45
9.58530E-01 1.00000E-45
9.60252E-01 1.00000E-45
9.61940E-01 1.00000E-45
9.63592E-01 1.00000E-45
9.65209E-01 1.00000E-45
9.66790E-01 1.00000E-45
9.68336E-01 1.00000E-45
9.69846E-01 1.00000E-45
9.71321E-01 1.00000E-45
9.72759E-01 1.00000E-45
9.74162E-01 1.00000E-45
9.75528E-01 1.00000E-45
9.76858E-01 1.00000E-45
9.78152E-01 1.00000E-45
9.79410E-01 1.00000E-45
9.80631E-01 1.00000E-45
9.81815E-01 1.00000E-45
9.82963E-01 1.00000E-45
9.84074E-01 1.00000E-45
9.85148E-01 1.00000E-45
9.86185E-01 1.00000E-45
9.87185E-01 1.00000E-45
9.88148E-01 1.00000E-45
9.89074E-01 1.00000E-45
9.89962E-01 1.00000E-45
9.90814E-01 1.00000E-45
9.91627E-01 1.00000E-45
9.92404E-01 1.00000E-45
9.93143E-01 1.00000E-45
9.93844E-01 1.00000E-45
9.94508E-01 1.00000E-45
9.95134E-01 1.00000E-45
9.95722E-01 1.00000E-45
9.96273E-01 1.00000E-45
9.96786E-01 1.00000E-45
9.97261E-01 1.00000E-45
9.97698E-01 1.00000E-45
9.98097E-01 1.00000E-45
9.98459E-01 1.00000E-45
9.98782E-01 1.00000E-45
9.99067E-01 1.00000E-45
9.99315E-01 1.00000E-45
9.99524E-01 1.00000E-45
9.99695E-01 1.00000E-45
9.99829E-01 1.00000E-45
9.99924E-01 1.00000E-45
9.99981E-01 1.00000E-45
1.00000E+00 1.00000E-45
