 #
 # Subroutine ELSEPA. Elastic scattering of electrons and positrons
 #                    by neutral atoms and positive ions
 #
 # Projectile: positron
 # Kinetic energy = 7.00000E+08 eV = 2.57245E+07 a.u.
 #
 # WARNING: High-energy factorization with free-atom DF screening.
 #          Absorption, polarization and exchange corrections are
 #          switched off.
 #          Phase shifts are calculated for the bare nucleus.
 #          Scattering amplitudes are not evaluated.
 #
 # Element:  V,  Z =  23,  atomic weight = 5.09415E+01 g/mol
 #
 # Nuclear model: Fermi distribution
 #                Average radius = 3.96650E-13 cm
 #                Skin thickness = 5.46000E-14 cm
 #
 # Number of electrons = 23
 #
 # Total elastic cross section = 1.91363E-18 cm**2 = 6.83371E-02 a0**2
 # 1st transport cross section = 2.25641E-27 cm**2 = 8.05780E-11 a0**2
 # 2nd transport cross section = 6.76745E-27 cm**2 = 2.41670E-10 a0**2
 #
 #
 # Differential cross section:                       MU=(1-COS(THETA))/2
 #
 #  THETA        MU          DCS          DCS        Sherman      error
 #  (deg)                 (cm**2/sr)   (a0**2/sr)    function
 #----------------------------------------------------------------------
0.00000E+00 1.28686E-08
7.61557E-13 1.07735E-08
1.18994E-12 9.82024E-09
1.71346E-12 8.82615E-09
2.33225E-12 7.84549E-09
3.04617E-12 6.91777E-09
3.85530E-12 6.06805E-09
4.75964E-12 5.30825E-09
5.75917E-12 4.64077E-09
6.85391E-12 4.06190E-09
8.04379E-12 3.56371E-09
9.32893E-12 3.13691E-09
1.07092E-11 2.77205E-09
1.21847E-11 2.45994E-09
1.37554E-11 2.19236E-09
1.54213E-11 1.96223E-09
1.71823E-11 1.76330E-09
1.90386E-11 1.59062E-09
2.09900E-11 1.44000E-09
2.30367E-11 1.30785E-09
2.51785E-11 1.19120E-09
2.74156E-11 1.08788E-09
2.97478E-11 9.95972E-10
3.21752E-11 9.13639E-10
3.46979E-11 8.39687E-10
3.73157E-11 7.73102E-10
4.00286E-11 7.12929E-10
4.28368E-11 6.58192E-10
4.57402E-11 6.08468E-10
4.87388E-11 5.60691E-10
5.18325E-11 5.16810E-10
5.50215E-11 4.77750E-10
5.83057E-11 4.42879E-10
6.16850E-11 4.11659E-10
6.51595E-11 3.83629E-10
6.87293E-11 3.58397E-10
7.23943E-11 3.35624E-10
7.61544E-11 3.11815E-10
1.18991E-10 1.59183E-10
1.71347E-10 8.73628E-11
2.33223E-10 5.13628E-11
3.04617E-10 3.21707E-11
3.85531E-10 2.13352E-11
4.75965E-10 1.48311E-11
5.75917E-10 1.07016E-11
6.85389E-10 7.94483E-12
8.04380E-10 6.03606E-12
9.32891E-10 4.67179E-12
1.07092E-09 3.66921E-12
1.21847E-09 2.91779E-12
1.37554E-09 2.34647E-12
1.54213E-09 1.90607E-12
1.71823E-09 1.56152E-12
1.90386E-09 1.28998E-12
2.09900E-09 1.07392E-12
2.30367E-09 9.00408E-13
2.51785E-09 7.59901E-13
2.74156E-09 6.45445E-13
2.97478E-09 5.51546E-13
3.21752E-09 4.73948E-13
3.46978E-09 4.09445E-13
3.73156E-09 3.55510E-13
4.00286E-09 3.10146E-13
4.28368E-09 2.71769E-13
4.57402E-09 2.39153E-13
4.87388E-09 2.11268E-13
5.18326E-09 1.87353E-13
5.50215E-09 1.66768E-13
5.83057E-09 1.48932E-13
6.16850E-09 1.33417E-13
6.51596E-09 1.19896E-13
6.87293E-09 1.08050E-13
7.23942E-09 9.76297E-14
7.61544E-09 8.84509E-14
1.18991E-08 3.70474E-14
1.71347E-08 1.81726E-14
2.33223E-08 9.93097E-15
3.04617E-08 5.87271E-15
3.85531E-08 3.68920E-15
4.75965E-08 2.43126E-15
5.75917E-08 1.66590E-15
6.85389E-08 1.17899E-15
8.04380E-08 8.57472E-16
9.32891E-08 6.38342E-16
1.07092E-07 4.84884E-16
1.21847E-07 3.74854E-16
1.37554E-07 2.94315E-16
1.54213E-07 2.34277E-16
1.71823E-07 1.88788E-16
1.90386E-07 1.53818E-16
2.09900E-07 1.26579E-16
2.30367E-07 1.05109E-16
2.51785E-07 8.80026E-17
2.74156E-07 7.42379E-17
2.97478E-07 6.30615E-17
3.21752E-07 5.39108E-17
3.46978E-07 4.63610E-17
3.73156E-07 4.00874E-17
4.00286E-07 3.48398E-17
4.28368E-07 3.04233E-17
4.57402E-07 2.66849E-17
4.87388E-07 2.35033E-17
5.18325E-07 2.07820E-17
5.50215E-07 1.84434E-17
5.83057E-07 1.64246E-17
6.16850E-07 1.46746E-17
6.51596E-07 1.31516E-17
6.87293E-07 1.18211E-17
7.23942E-07 1.06547E-17
7.61543E-07 9.62859E-18
1.18991E-06 3.94400E-18
1.71347E-06 1.90194E-18
2.33223E-06 1.02655E-18
3.04617E-06 6.01695E-19
3.85531E-06 3.75602E-19
4.75964E-06 2.46409E-19
5.75916E-06 1.68285E-19
6.85388E-06 1.18809E-19
8.04378E-06 8.62495E-20
9.32888E-06 6.41172E-20
1.07092E-05 4.86495E-20
1.21846E-05 3.75768E-20
1.37553E-05 2.94822E-20
1.54212E-05 2.34542E-20
1.71822E-05 1.88909E-20
1.90385E-05 1.53856E-20
2.09899E-05 1.26572E-20
2.30365E-05 1.05072E-20
2.51783E-05 8.79454E-21
2.74153E-05 7.41676E-21
2.97475E-05 6.29845E-21
3.21749E-05 5.38322E-21
3.46974E-05 4.62844E-21
3.73152E-05 4.00148E-21
4.00281E-05 3.47720E-21
4.28362E-05 3.03602E-21
4.57395E-05 2.66259E-21
4.87380E-05 2.34481E-21
5.18317E-05 2.07301E-21
5.50205E-05 1.83946E-21
5.83045E-05 1.63788E-21
6.16838E-05 1.46317E-21
6.51582E-05 1.31116E-21
6.87277E-05 1.17839E-21
7.23925E-05 1.06200E-21
7.61524E-05 9.48282E-22
9.21439E-05 6.45531E-22
1.09658E-04 4.54123E-22
1.28695E-04 3.28391E-22
1.49255E-04 2.43088E-22
1.71338E-04 1.83603E-22
1.94942E-04 1.41117E-22
2.20070E-04 1.10137E-22
2.46720E-04 8.71272E-23
2.74892E-04 6.97580E-23
3.04586E-04 5.64553E-23
3.35803E-04 4.61328E-23
3.68542E-04 3.80285E-23
4.02802E-04 3.15972E-23
4.38585E-04 2.64438E-23
4.75889E-04 2.22774E-23
5.14715E-04 1.88814E-23
5.55063E-04 1.60926E-23
5.96931E-04 1.37863E-23
6.40321E-04 1.18668E-23
6.85233E-04 1.02596E-23
7.31665E-04 8.90653E-24
7.79618E-04 7.76142E-24
8.29092E-04 6.78760E-24
8.80086E-04 5.95571E-24
9.32601E-04 5.24204E-24
9.86636E-04 4.62733E-24
1.04219E-03 4.09588E-24
1.09927E-03 3.63477E-24
1.15786E-03 3.23337E-24
1.21797E-03 2.88284E-24
1.27961E-03 2.57582E-24
1.34276E-03 2.30615E-24
1.40743E-03 2.06865E-24
1.47362E-03 1.85896E-24
1.54133E-03 1.67338E-24
1.61056E-03 1.50875E-24
1.68131E-03 1.36239E-24
1.75357E-03 1.23201E-24
1.82735E-03 1.11564E-24
1.90265E-03 1.01156E-24
1.97947E-03 9.18332E-25
2.05780E-03 8.34666E-25
2.13765E-03 7.59464E-25
2.21902E-03 6.91763E-25
2.30190E-03 6.30727E-25
2.38630E-03 5.75620E-25
2.47222E-03 5.25800E-25
2.55965E-03 4.80702E-25
2.64859E-03 4.39827E-25
2.73905E-03 4.02737E-25
2.83103E-03 3.69043E-25
2.92452E-03 3.38401E-25
3.01952E-03 3.10506E-25
3.11604E-03 2.85086E-25
3.21407E-03 2.61901E-25
3.31362E-03 2.40735E-25
3.41468E-03 2.21395E-25
3.51725E-03 2.03709E-25
3.62133E-03 1.87524E-25
3.72692E-03 1.72700E-25
3.83403E-03 1.59113E-25
3.94265E-03 1.46652E-25
4.05278E-03 1.35216E-25
4.16442E-03 1.24714E-25
4.27757E-03 1.15064E-25
4.39223E-03 1.06192E-25
4.50840E-03 9.80302E-26
4.62608E-03 9.05188E-26
4.74527E-03 8.36023E-26
4.86597E-03 7.72306E-26
4.98817E-03 7.13582E-26
5.11188E-03 6.59437E-26
5.23711E-03 6.09496E-26
5.36383E-03 5.63414E-26
5.49207E-03 5.20879E-26
5.62181E-03 4.81605E-26
5.75306E-03 4.45330E-26
5.88581E-03 4.11816E-26
6.02007E-03 3.80845E-26
6.15583E-03 3.52216E-26
6.29310E-03 3.25747E-26
6.43187E-03 3.01268E-26
6.57214E-03 2.78627E-26
6.71392E-03 2.57681E-26
6.85720E-03 2.38301E-26
7.00198E-03 2.20366E-26
7.14827E-03 2.03767E-26
7.29605E-03 1.88403E-26
7.44534E-03 1.74181E-26
7.59612E-03 1.61014E-26
7.97965E-03 1.32212E-26
8.37255E-03 1.08452E-26
8.77480E-03 8.88525E-27
9.18641E-03 7.26887E-27
9.60736E-03 5.93650E-27
1.00376E-02 4.83902E-27
1.04773E-02 3.93588E-27
1.09262E-02 3.19356E-27
1.13844E-02 2.58430E-27
1.18520E-02 2.08510E-27
1.23288E-02 1.67688E-27
1.28150E-02 1.34381E-27
1.33104E-02 1.07274E-27
1.38150E-02 8.52760E-28
1.43290E-02 6.74819E-28
1.48521E-02 5.31399E-28
1.53845E-02 4.16266E-28
1.59262E-02 3.24257E-28
1.64770E-02 2.51096E-28
1.70371E-02 1.93249E-28
1.76063E-02 1.47800E-28
1.81848E-02 1.12348E-28
1.87724E-02 8.49184E-29
1.93692E-02 6.38923E-29
1.99751E-02 4.79476E-29
2.05901E-02 3.60068E-29
2.12143E-02 2.71961E-29
2.18476E-02 2.08091E-29
2.24900E-02 1.62786E-29
2.31415E-02 1.31509E-29
2.38021E-02 1.10662E-29
2.44717E-02 9.74118E-30
2.51504E-02 8.95466E-30
2.58382E-02 8.53608E-30
2.65349E-02 8.35555E-30
2.72407E-02 8.31588E-30
2.79555E-02 8.34583E-30
2.86793E-02 8.39468E-30
2.94120E-02 8.42776E-30
3.01537E-02 8.42276E-30
3.09043E-02 8.36683E-30
3.16639E-02 8.25411E-30
3.24324E-02 8.08391E-30
3.32098E-02 7.85913E-30
3.39961E-02 7.58509E-30
3.47912E-02 7.26862E-30
3.55952E-02 6.91732E-30
3.64081E-02 6.53906E-30
3.72297E-02 6.14157E-30
3.80602E-02 5.73216E-30
3.88995E-02 5.31757E-30
3.97476E-02 4.90379E-30
4.06044E-02 4.49607E-30
4.14700E-02 4.09887E-30
4.23443E-02 3.71585E-30
4.32273E-02 3.34995E-30
4.41190E-02 3.00341E-30
4.50194E-02 2.67786E-30
4.59284E-02 2.37433E-30
4.68461E-02 2.09338E-30
4.87074E-02 1.59937E-30
5.06030E-02 1.19285E-30
5.25328E-02 8.66936E-31
5.44967E-02 6.12437E-31
5.64946E-02 4.19098E-31
5.85262E-02 2.76546E-31
6.05914E-02 1.74944E-31
6.26901E-02 1.05391E-31
6.48222E-02 6.01484E-32
6.69873E-02 3.27152E-32
6.91854E-02 1.78045E-32
7.14163E-02 1.12536E-32
7.36799E-02 9.89485E-33
7.59760E-02 1.14082E-32
7.83043E-02 1.41706E-32
8.06647E-02 1.71131E-32
8.30571E-02 1.95919E-32
8.54812E-02 2.12761E-32
8.79369E-02 2.20552E-32
9.04240E-02 2.19631E-32
9.29422E-02 2.11207E-32
9.54915E-02 1.96919E-32
9.80716E-02 1.78529E-32
1.00682E-01 1.57717E-32
1.03323E-01 1.35955E-32
1.05995E-01 1.14444E-32
1.08696E-01 9.40964E-33
1.11427E-01 7.55424E-33
1.14188E-01 5.91646E-33
1.16978E-01 4.51360E-33
1.19797E-01 3.34638E-33
1.22645E-01 2.40321E-33
1.25522E-01 1.66419E-33
1.28428E-01 1.10436E-33
1.31361E-01 6.96525E-34
1.34323E-01 4.13377E-34
1.37313E-01 2.29010E-34
1.40330E-01 1.19967E-34
1.43375E-01 6.58400E-35
1.46447E-01 4.95168E-35
1.49545E-01 5.71745E-35
1.52671E-01 7.80817E-35
1.55823E-01 1.04282E-34
1.59001E-01 1.30210E-34
1.62205E-01 1.52278E-34
1.65435E-01 1.68476E-34
1.68690E-01 1.77991E-34
1.71970E-01 1.80876E-34
1.75276E-01 1.77766E-34
1.78606E-01 1.69642E-34
1.81961E-01 1.57650E-34
1.85340E-01 1.42963E-34
1.88743E-01 1.26685E-34
1.92169E-01 1.09789E-34
1.95619E-01 9.30829E-35
1.99092E-01 7.71971E-35
2.02589E-01 6.25866E-35
2.06107E-01 4.95458E-35
2.09649E-01 3.82295E-35
2.13212E-01 2.86768E-35
2.16797E-01 2.08366E-35
2.20404E-01 1.45914E-35
2.24032E-01 9.77955E-36
2.27680E-01 6.21410E-36
2.31350E-01 3.69814E-36
2.35040E-01 2.03721E-36
2.38751E-01 1.04827E-36
2.42481E-01 5.65838E-37
2.46231E-01 4.45565E-37
2.50000E-01 5.66002E-37
2.53788E-01 8.28437E-37
2.57595E-01 1.15602E-36
2.61421E-01 1.49145E-36
2.65264E-01 1.79488E-36
2.69126E-01 2.04094E-36
2.73005E-01 2.21611E-36
2.76901E-01 2.31604E-36
2.80814E-01 2.34322E-36
2.84744E-01 2.30482E-36
2.88691E-01 2.21090E-36
2.92653E-01 2.07300E-36
2.96632E-01 1.90300E-36
3.00625E-01 1.71227E-36
3.04634E-01 1.51114E-36
3.08658E-01 1.30846E-36
3.12697E-01 1.11153E-36
3.16749E-01 9.25969E-37
3.20816E-01 7.55846E-37
3.24896E-01 6.03770E-37
3.28990E-01 4.71096E-37
3.33097E-01 3.58118E-37
3.37216E-01 2.64295E-37
3.41348E-01 1.88440E-37
3.45492E-01 1.28930E-37
3.49647E-01 8.38585E-38
3.53814E-01 5.11930E-38
3.57992E-01 2.88805E-38
3.62181E-01 1.49524E-38
3.66381E-01 7.57832E-39
3.70590E-01 5.11511E-39
3.74810E-01 6.13493E-39
3.79039E-01 9.43233E-39
3.83277E-01 1.40197E-38
3.87524E-01 1.91138E-38
3.91780E-01 2.41297E-38
3.96044E-01 2.86399E-38
4.00316E-01 3.23724E-38
4.04596E-01 3.51632E-38
4.08882E-01 3.69574E-38
4.13176E-01 3.77645E-38
4.17476E-01 3.76580E-38
4.21783E-01 3.67434E-38
4.26095E-01 3.51545E-38
4.30413E-01 3.30299E-38
4.34737E-01 3.05110E-38
4.39065E-01 2.77331E-38
4.43398E-01 2.48171E-38
4.47736E-01 2.18697E-38
4.52077E-01 1.89791E-38
4.56422E-01 1.62165E-38
4.60770E-01 1.36345E-38
4.65122E-01 1.12709E-38
4.69476E-01 9.14969E-39
4.73832E-01 7.28197E-39
4.78190E-01 5.66889E-39
4.82550E-01 4.30385E-39
4.86912E-01 3.17359E-39
4.91274E-01 2.26039E-39
4.95637E-01 1.54322E-39
5.00000E-01 1.00000E-45
5.04363E-01 1.00000E-45
5.08726E-01 1.00000E-45
5.13088E-01 1.00000E-45
5.17450E-01 1.00000E-45
5.21810E-01 1.00000E-45
5.26168E-01 1.00000E-45
5.30524E-01 1.00000E-45
5.34878E-01 1.00000E-45
5.39230E-01 1.00000E-45
5.43578E-01 1.00000E-45
5.47923E-01 1.00000E-45
5.52264E-01 1.00000E-45
5.56602E-01 1.00000E-45
5.60935E-01 1.00000E-45
5.65263E-01 1.00000E-45
5.69587E-01 1.00000E-45
5.73905E-01 1.00000E-45
5.78217E-01 1.00000E-45
5.82524E-01 1.00000E-45
5.86824E-01 1.00000E-45
5.91118E-01 1.00000E-45
5.95404E-01 1.00000E-45
5.99684E-01 1.00000E-45
6.03956E-01 1.00000E-45
6.08220E-01 1.00000E-45
6.12476E-01 1.00000E-45
6.16723E-01 1.00000E-45
6.20961E-01 1.00000E-45
6.25190E-01 1.00000E-45
6.29410E-01 1.00000E-45
6.33619E-01 1.00000E-45
6.37819E-01 1.00000E-45
6.42008E-01 1.00000E-45
6.46186E-01 1.00000E-45
6.50353E-01 1.00000E-45
6.54508E-01 1.00000E-45
6.58652E-01 1.00000E-45
6.62784E-01 1.00000E-45
6.66903E-01 1.00000E-45
6.71010E-01 1.00000E-45
6.75104E-01 1.00000E-45
6.79184E-01 1.00000E-45
6.83251E-01 1.00000E-45
6.87303E-01 1.00000E-45
6.91342E-01 1.00000E-45
6.95366E-01 1.00000E-45
6.99375E-01 1.00000E-45
7.03368E-01 1.00000E-45
7.07347E-01 1.00000E-45
7.11309E-01 1.00000E-45
7.15256E-01 1.00000E-45
7.19186E-01 1.00000E-45
7.23099E-01 1.00000E-45
7.26995E-01 1.00000E-45
7.30874E-01 1.00000E-45
7.34736E-01 1.00000E-45
7.38579E-01 1.00000E-45
7.42405E-01 1.00000E-45
7.46212E-01 1.00000E-45
7.50000E-01 1.00000E-45
7.53769E-01 1.00000E-45
7.57519E-01 1.00000E-45
7.61249E-01 1.00000E-45
7.64960E-01 1.00000E-45
7.68650E-01 1.00000E-45
7.72320E-01 1.00000E-45
7.75968E-01 1.00000E-45
7.79596E-01 1.00000E-45
7.83203E-01 1.00000E-45
7.86788E-01 1.00000E-45
7.90351E-01 1.00000E-45
7.93893E-01 1.00000E-45
7.97411E-01 1.00000E-45
8.00908E-01 1.00000E-45
8.04381E-01 1.00000E-45
8.07831E-01 1.00000E-45
8.11257E-01 1.00000E-45
8.14660E-01 1.00000E-45
8.18039E-01 1.00000E-45
8.21394E-01 1.00000E-45
8.24724E-01 1.00000E-45
8.28030E-01 1.00000E-45
8.31310E-01 1.00000E-45
8.34565E-01 1.00000E-45
8.37795E-01 1.00000E-45
8.40999E-01 1.00000E-45
8.44177E-01 1.00000E-45
8.47329E-01 1.00000E-45
8.50455E-01 1.00000E-45
8.53553E-01 1.00000E-45
8.56625E-01 1.00000E-45
8.59670E-01 1.00000E-45
8.62687E-01 1.00000E-45
8.65677E-01 1.00000E-45
8.68639E-01 1.00000E-45
8.71572E-01 1.00000E-45
8.74478E-01 1.00000E-45
8.77355E-01 1.00000E-45
8.80203E-01 1.00000E-45
8.83022E-01 1.00000E-45
8.85812E-01 1.00000E-45
8.88573E-01 1.00000E-45
8.91304E-01 1.00000E-45
8.94005E-01 1.00000E-45
8.96677E-01 1.00000E-45
8.99318E-01 1.00000E-45
9.01928E-01 1.00000E-45
9.04508E-01 1.00000E-45
9.07058E-01 1.00000E-45
9.09576E-01 1.00000E-45
9.12063E-01 1.00000E-45
9.14519E-01 1.00000E-45
9.16943E-01 1.00000E-45
9.19335E-01 1.00000E-45
9.21696E-01 1.00000E-45
9.24024E-01 1.00000E-45
9.26320E-01 1.00000E-45
9.28584E-01 1.00000E-45
9.30815E-01 1.00000E-45
9.33013E-01 1.00000E-45
9.35178E-01 1.00000E-45
9.37310E-01 1.00000E-45
9.39409E-01 1.00000E-45
9.41474E-01 1.00000E-45
9.43505E-01 1.00000E-45
9.45503E-01 1.00000E-45
9.47467E-01 1.00000E-45
9.49397E-01 1.00000E-45
9.51293E-01 1.00000E-45
9.53154E-01 1.00000E-45
9.54981E-01 1.00000E-45
9.56773E-01 1.00000E-45
9.58530E-01 1.00000E-45
9.60252E-01 1.00000E-45
9.61940E-01 1.00000E-45
9.63592E-01 1.00000E-45
9.65209E-01 1.00000E-45
9.66790E-01 1.00000E-45
9.68336E-01 1.00000E-45
9.69846E-01 1.00000E-45
9.71321E-01 1.00000E-45
9.72759E-01 1.00000E-45
9.74162E-01 1.00000E-45
9.75528E-01 1.00000E-45
9.76858E-01 1.00000E-45
9.78152E-01 1.00000E-45
9.79410E-01 1.00000E-45
9.80631E-01 1.00000E-45
9.81815E-01 1.00000E-45
9.82963E-01 1.00000E-45
9.84074E-01 1.00000E-45
9.85148E-01 1.00000E-45
9.86185E-01 1.00000E-45
9.87185E-01 1.00000E-45
9.88148E-01 1.00000E-45
9.89074E-01 1.00000E-45
9.89962E-01 1.00000E-45
9.90814E-01 1.00000E-45
9.91627E-01 1.00000E-45
9.92404E-01 1.00000E-45
9.93143E-01 1.00000E-45
9.93844E-01 1.00000E-45
9.94508E-01 1.00000E-45
9.95134E-01 1.00000E-45
9.95722E-01 1.00000E-45
9.96273E-01 1.00000E-45
9.96786E-01 1.00000E-45
9.97261E-01 1.00000E-45
9.97698E-01 1.00000E-45
9.98097E-01 1.00000E-45
9.98459E-01 1.00000E-45
9.98782E-01 1.00000E-45
9.99067E-01 1.00000E-45
9.99315E-01 1.00000E-45
9.99524E-01 1.00000E-45
9.99695E-01 1.00000E-45
9.99829E-01 1.00000E-45
9.99924E-01 1.00000E-45
9.99981E-01 1.00000E-45
1.00000E+00 1.00000E-45
