 #
 # Subroutine ELSEPA. Elastic scattering of electrons and positrons
 #                    by neutral atoms and positive ions
 #
 # Projectile: positron
 # Kinetic energy = 1.50000E+08 eV = 5.51240E+06 a.u.
 #
 # WARNING: High-energy factorization with free-atom DF screening.
 #          Absorption, polarization and exchange corrections are
 #          switched off.
 #          Phase shifts are calculated for the bare nucleus.
 #          Scattering amplitudes are not evaluated.
 #
 # Element:  V,  Z =  23,  atomic weight = 5.09415E+01 g/mol
 #
 # Nuclear model: Fermi distribution
 #                Average radius = 3.96650E-13 cm
 #                Skin thickness = 5.46000E-14 cm
 #
 # Number of electrons = 23
 #
 # Total elastic cross section = 1.92293E-18 cm**2 = 6.86689E-02 a0**2
 # 1st transport cross section = 4.83721E-26 cm**2 = 1.72740E-09 a0**2
 # 2nd transport cross section = 1.44330E-25 cm**2 = 5.15413E-09 a0**2
 #
 #
 # Differential cross section:                       MU=(1-COS(THETA))/2
 #
 #  THETA        MU          DCS          DCS        Sherman      error
 #  (deg)                 (cm**2/sr)   (a0**2/sr)    function
 #----------------------------------------------------------------------
0.00000E+00 5.94072E-10
7.61557E-13 5.88982E-10
1.18994E-12 5.86150E-10
1.71346E-12 5.82718E-10
2.33225E-12 5.78702E-10
3.04617E-12 5.74121E-10
3.85530E-12 5.68997E-10
4.75964E-12 5.63354E-10
5.75917E-12 5.57217E-10
6.85391E-12 5.50613E-10
8.04379E-12 5.43572E-10
9.32893E-12 5.36124E-10
1.07092E-11 5.28292E-10
1.21847E-11 5.20113E-10
1.37554E-11 5.11633E-10
1.54213E-11 5.02885E-10
1.71823E-11 4.93868E-10
1.90386E-11 4.84637E-10
2.09900E-11 4.75236E-10
2.30367E-11 4.65690E-10
2.51785E-11 4.55992E-10
2.74156E-11 4.46213E-10
2.97478E-11 4.36381E-10
3.21752E-11 4.26502E-10
3.46979E-11 4.16599E-10
3.73157E-11 4.06716E-10
4.00286E-11 3.96877E-10
4.28368E-11 3.87072E-10
4.57402E-11 3.77343E-10
4.87388E-11 3.67713E-10
5.18325E-11 3.58193E-10
5.50215E-11 3.48782E-10
5.83057E-11 3.39512E-10
6.16850E-11 3.30392E-10
6.51595E-11 3.21428E-10
6.87293E-11 3.12627E-10
7.23943E-11 3.04002E-10
7.61544E-11 2.95558E-10
1.18991E-10 2.21763E-10
1.71347E-10 1.66844E-10
2.33223E-10 1.27348E-10
3.04617E-10 9.90823E-11
3.85531E-10 7.85884E-11
4.75965E-10 6.34114E-11
5.75917E-10 5.19023E-11
6.85389E-10 4.29689E-11
8.04380E-10 3.58894E-11
9.32891E-10 3.01923E-11
1.07092E-09 2.53991E-11
1.21847E-09 2.14262E-11
1.37554E-09 1.83062E-11
1.54213E-09 1.58243E-11
1.71823E-09 1.35482E-11
1.90386E-09 1.16431E-11
2.09900E-09 1.00969E-11
2.30367E-09 8.81074E-12
2.51785E-09 7.63112E-12
2.74156E-09 6.65628E-12
2.97478E-09 5.84444E-12
3.21752E-09 5.13860E-12
3.46978E-09 4.51996E-12
3.73156E-09 3.99685E-12
4.00286E-09 3.55191E-12
4.28368E-09 3.15750E-12
4.57402E-09 2.81663E-12
4.87388E-09 2.52288E-12
5.18326E-09 2.26748E-12
5.50215E-09 2.04125E-12
5.83057E-09 1.84394E-12
6.16850E-09 1.67118E-12
6.51596E-09 1.51833E-12
6.87293E-09 1.38279E-12
7.23942E-09 1.26290E-12
7.61544E-09 1.15651E-12
1.18991E-08 5.35482E-13
1.71347E-08 2.86793E-13
2.33223E-08 1.67782E-13
3.04617E-08 1.04095E-13
3.85531E-08 6.75237E-14
4.75965E-08 4.54632E-14
5.75917E-08 3.16051E-14
6.85389E-08 2.25992E-14
8.04380E-08 1.65671E-14
9.32891E-08 1.24149E-14
1.07092E-07 9.48437E-15
1.21847E-07 7.37389E-15
1.37554E-07 5.81957E-15
1.54213E-07 4.65624E-15
1.71823E-07 3.77116E-15
1.90386E-07 3.08715E-15
2.09900E-07 2.55220E-15
2.30367E-07 2.12886E-15
2.51785E-07 1.78987E-15
2.74156E-07 1.51593E-15
2.97478E-07 1.29266E-15
3.21752E-07 1.10903E-15
3.46978E-07 9.56881E-16
3.73156E-07 8.30023E-16
4.00286E-07 7.23497E-16
4.28368E-07 6.33486E-16
4.57402E-07 5.57070E-16
4.87388E-07 4.91833E-16
5.18325E-07 4.35827E-16
5.50215E-07 3.87578E-16
5.83057E-07 3.45827E-16
6.16850E-07 3.09513E-16
6.51596E-07 2.77845E-16
6.87293E-07 2.50125E-16
7.23942E-07 2.25758E-16
7.61543E-07 2.04285E-16
1.18991E-06 8.44399E-17
1.71347E-06 4.09080E-17
2.33223E-06 2.21352E-17
3.04617E-06 1.29931E-17
3.85531E-06 8.11808E-18
4.75964E-06 5.32887E-18
5.75916E-06 3.64077E-18
6.85388E-06 2.57108E-18
8.04378E-06 1.86685E-18
9.32888E-06 1.38800E-18
1.07092E-05 1.05327E-18
1.21846E-05 8.13617E-19
1.37553E-05 6.38395E-19
1.54212E-05 5.07896E-19
1.71822E-05 4.09096E-19
1.90385E-05 3.33198E-19
2.09899E-05 2.74120E-19
2.30365E-05 2.27563E-19
2.51783E-05 1.90474E-19
2.74153E-05 1.60637E-19
2.97475E-05 1.36418E-19
3.21749E-05 1.16597E-19
3.46974E-05 1.00250E-19
3.73152E-05 8.66712E-20
4.00281E-05 7.53161E-20
4.28362E-05 6.57606E-20
4.57395E-05 5.76727E-20
4.87380E-05 5.07897E-20
5.18317E-05 4.49027E-20
5.50205E-05 3.98440E-20
5.83045E-05 3.54778E-20
6.16838E-05 3.16937E-20
6.51582E-05 2.84011E-20
6.87277E-05 2.55252E-20
7.23925E-05 2.30043E-20
7.61524E-05 2.07819E-20
9.21439E-05 1.41875E-20
1.09658E-04 1.00125E-20
1.28695E-04 7.26578E-21
1.49255E-04 5.39906E-21
1.71338E-04 4.09492E-21
1.94942E-04 3.16153E-21
2.20070E-04 2.47941E-21
2.46720E-04 1.97158E-21
2.74892E-04 1.58724E-21
3.04586E-04 1.29207E-21
3.35803E-04 1.06236E-21
3.68542E-04 8.81451E-22
4.02802E-04 7.37411E-22
4.38585E-04 6.21589E-22
4.75889E-04 5.27608E-22
5.14715E-04 4.50706E-22
5.55063E-04 3.87297E-22
5.96931E-04 3.34635E-22
6.40321E-04 2.90611E-22
6.85233E-04 2.53579E-22
7.31665E-04 2.22250E-22
7.79618E-04 1.95601E-22
8.29092E-04 1.72820E-22
8.80086E-04 1.53252E-22
9.32601E-04 1.36369E-22
9.86636E-04 1.21741E-22
1.04219E-03 1.09018E-22
1.09927E-03 9.79079E-23
1.15786E-03 8.81734E-23
1.21797E-03 7.96147E-23
1.27961E-03 7.20659E-23
1.34276E-03 6.53874E-23
1.40743E-03 5.94618E-23
1.47362E-03 5.41895E-23
1.54133E-03 4.94862E-23
1.61056E-03 4.52799E-23
1.68131E-03 4.15090E-23
1.75357E-03 3.81206E-23
1.82735E-03 3.50692E-23
1.90265E-03 3.23153E-23
1.97947E-03 2.98250E-23
2.05780E-03 2.75686E-23
2.13765E-03 2.55203E-23
2.21902E-03 2.36576E-23
2.30190E-03 2.19606E-23
2.38630E-03 2.04120E-23
2.47222E-03 1.89966E-23
2.55965E-03 1.77009E-23
2.64859E-03 1.65129E-23
2.73905E-03 1.54222E-23
2.83103E-03 1.44193E-23
2.92452E-03 1.34960E-23
3.01952E-03 1.26448E-23
3.11604E-03 1.18590E-23
3.21407E-03 1.11328E-23
3.31362E-03 1.04608E-23
3.41468E-03 9.83825E-24
3.51725E-03 9.26089E-24
3.62133E-03 8.72483E-24
3.72692E-03 8.22659E-24
3.83403E-03 7.76303E-24
3.94265E-03 7.33131E-24
4.05278E-03 6.92884E-24
4.16442E-03 6.55330E-24
4.27757E-03 6.20255E-24
4.39223E-03 5.87467E-24
4.50840E-03 5.56789E-24
4.62608E-03 5.28063E-24
4.74527E-03 5.01141E-24
4.86597E-03 4.75889E-24
4.98817E-03 4.52187E-24
5.11188E-03 4.29920E-24
5.23711E-03 4.08988E-24
5.36383E-03 3.89296E-24
5.49207E-03 3.70756E-24
5.62181E-03 3.53290E-24
5.75306E-03 3.36824E-24
5.88581E-03 3.21291E-24
6.02007E-03 3.06628E-24
6.15583E-03 2.92778E-24
6.29310E-03 2.79688E-24
6.43187E-03 2.67308E-24
6.57214E-03 2.55594E-24
6.71392E-03 2.44502E-24
6.85720E-03 2.33995E-24
7.00198E-03 2.24035E-24
7.14827E-03 2.14589E-24
7.29605E-03 2.05626E-24
7.44534E-03 1.97116E-24
7.59612E-03 1.89033E-24
7.97965E-03 1.70531E-24
8.37255E-03 1.54193E-24
8.77480E-03 1.39724E-24
9.18641E-03 1.26876E-24
9.60736E-03 1.15438E-24
1.00376E-02 1.05229E-24
1.04773E-02 9.60961E-25
1.09262E-02 8.79070E-25
1.13844E-02 8.05484E-25
1.18520E-02 7.39222E-25
1.23288E-02 6.79438E-25
1.28150E-02 6.25394E-25
1.33104E-02 5.76450E-25
1.38150E-02 5.32047E-25
1.43290E-02 4.91694E-25
1.48521E-02 4.54963E-25
1.53845E-02 4.21475E-25
1.59262E-02 3.90899E-25
1.64770E-02 3.62940E-25
1.70371E-02 3.37338E-25
1.76063E-02 3.13863E-25
1.81848E-02 2.92310E-25
1.87724E-02 2.72495E-25
1.93692E-02 2.54258E-25
1.99751E-02 2.37452E-25
2.05901E-02 2.21947E-25
2.12143E-02 2.07626E-25
2.18476E-02 1.94386E-25
2.24900E-02 1.82131E-25
2.31415E-02 1.70777E-25
2.38021E-02 1.60247E-25
2.44717E-02 1.50472E-25
2.51504E-02 1.41391E-25
2.58382E-02 1.32945E-25
2.65349E-02 1.25084E-25
2.72407E-02 1.17761E-25
2.79555E-02 1.10934E-25
2.86793E-02 1.04563E-25
2.94120E-02 9.86150E-26
3.01537E-02 9.30564E-26
3.09043E-02 8.78582E-26
3.16639E-02 8.29936E-26
3.24324E-02 7.84381E-26
3.32098E-02 7.41690E-26
3.39961E-02 7.01659E-26
3.47912E-02 6.64096E-26
3.55952E-02 6.28829E-26
3.64081E-02 5.95697E-26
3.72297E-02 5.64551E-26
3.80602E-02 5.35257E-26
3.88995E-02 5.07689E-26
3.97476E-02 4.81730E-26
4.06044E-02 4.57274E-26
4.14700E-02 4.34222E-26
4.23443E-02 4.12482E-26
4.32273E-02 3.91970E-26
4.41190E-02 3.72606E-26
4.50194E-02 3.54318E-26
4.59284E-02 3.37038E-26
4.68461E-02 3.20704E-26
4.87074E-02 2.90640E-26
5.06030E-02 2.63706E-26
5.25328E-02 2.39538E-26
5.44967E-02 2.17818E-26
5.64946E-02 1.98269E-26
5.85262E-02 1.80649E-26
6.05914E-02 1.64747E-26
6.26901E-02 1.50376E-26
6.48222E-02 1.37374E-26
6.69873E-02 1.25596E-26
6.91854E-02 1.14914E-26
7.14163E-02 1.05217E-26
7.36799E-02 9.64042E-27
7.59760E-02 8.83874E-27
7.83043E-02 8.10877E-27
8.06647E-02 7.44350E-27
8.30571E-02 6.83666E-27
8.54812E-02 6.28267E-27
8.79369E-02 5.77652E-27
9.04240E-02 5.31372E-27
9.29422E-02 4.89026E-27
9.54915E-02 4.50252E-27
9.80716E-02 4.14725E-27
1.00682E-01 3.82153E-27
1.03323E-01 3.52270E-27
1.05995E-01 3.24840E-27
1.08696E-01 2.99647E-27
1.11427E-01 2.76496E-27
1.14188E-01 2.55210E-27
1.16978E-01 2.35629E-27
1.19797E-01 2.17610E-27
1.22645E-01 2.01019E-27
1.25522E-01 1.85737E-27
1.28428E-01 1.71654E-27
1.31361E-01 1.58673E-27
1.34323E-01 1.46702E-27
1.37313E-01 1.35658E-27
1.40330E-01 1.25467E-27
1.43375E-01 1.16060E-27
1.46447E-01 1.07373E-27
1.49545E-01 9.93497E-28
1.52671E-01 9.19368E-28
1.55823E-01 8.50863E-28
1.59001E-01 7.87539E-28
1.62205E-01 7.28992E-28
1.65435E-01 6.74849E-28
1.68690E-01 6.24769E-28
1.71970E-01 5.78438E-28
1.75276E-01 5.35569E-28
1.78606E-01 4.95895E-28
1.81961E-01 4.59173E-28
1.85340E-01 4.25179E-28
1.88743E-01 3.93705E-28
1.92169E-01 3.64562E-28
1.95619E-01 3.37574E-28
1.99092E-01 3.12579E-28
2.02589E-01 2.89428E-28
2.06107E-01 2.67983E-28
2.09649E-01 2.48117E-28
2.13212E-01 2.29713E-28
2.16797E-01 2.12662E-28
2.20404E-01 1.96864E-28
2.24032E-01 1.82227E-28
2.27680E-01 1.68665E-28
2.31350E-01 1.56098E-28
2.35040E-01 1.44455E-28
2.38751E-01 1.33666E-28
2.42481E-01 1.23669E-28
2.46231E-01 1.14407E-28
2.50000E-01 1.05826E-28
2.53788E-01 9.78751E-29
2.57595E-01 9.05092E-29
2.61421E-01 8.36855E-29
2.65264E-01 7.73644E-29
2.69126E-01 7.15093E-29
2.73005E-01 6.60863E-29
2.76901E-01 6.10638E-29
2.80814E-01 5.64128E-29
2.84744E-01 5.21061E-29
2.88691E-01 4.81187E-29
2.92653E-01 4.44274E-29
2.96632E-01 4.10105E-29
3.00625E-01 3.78482E-29
3.04634E-01 3.49217E-29
3.08658E-01 3.22140E-29
3.12697E-01 2.97090E-29
3.16749E-01 2.73919E-29
3.20816E-01 2.52490E-29
3.24896E-01 2.32676E-29
3.28990E-01 2.14358E-29
3.33097E-01 1.97427E-29
3.37216E-01 1.81780E-29
3.41348E-01 1.67323E-29
3.45492E-01 1.53969E-29
3.49647E-01 1.41637E-29
3.53814E-01 1.30250E-29
3.57992E-01 1.19739E-29
3.62181E-01 1.10038E-29
3.66381E-01 1.01089E-29
3.70590E-01 9.28343E-30
3.74810E-01 8.52227E-30
3.79039E-01 7.82061E-30
3.83277E-01 7.17398E-30
3.87524E-01 6.57826E-30
3.91780E-01 6.02962E-30
3.96044E-01 5.52450E-30
4.00316E-01 5.05962E-30
4.04596E-01 4.63191E-30
4.08882E-01 4.23855E-30
4.13176E-01 3.87692E-30
4.17476E-01 3.54459E-30
4.21783E-01 3.23931E-30
4.26095E-01 2.95899E-30
4.30413E-01 2.70171E-30
4.34737E-01 2.46568E-30
4.39065E-01 2.24924E-30
4.43398E-01 2.05086E-30
4.47736E-01 1.86912E-30
4.52077E-01 1.70272E-30
4.56422E-01 1.55044E-30
4.60770E-01 1.41115E-30
4.65122E-01 1.28383E-30
4.69476E-01 1.16751E-30
4.73832E-01 1.06130E-30
4.78190E-01 9.64386E-31
4.82550E-01 8.76014E-31
4.86912E-01 7.95485E-31
4.91274E-01 7.22152E-31
4.95637E-01 6.55422E-31
5.00000E-01 5.94745E-31
5.04363E-01 5.39615E-31
5.08726E-01 4.89565E-31
5.13088E-01 4.44166E-31
5.17450E-01 4.03020E-31
5.21810E-01 3.65762E-31
5.26168E-01 3.32057E-31
5.30524E-01 3.01596E-31
5.34878E-01 2.74094E-31
5.39230E-01 2.49290E-31
5.43578E-01 2.26942E-31
5.47923E-01 2.06831E-31
5.52264E-01 1.88754E-31
5.56602E-01 1.72525E-31
5.60935E-01 1.57973E-31
5.65263E-01 1.44942E-31
5.69587E-01 1.33288E-31
5.73905E-01 1.22881E-31
5.78217E-01 1.13600E-31
5.82524E-01 1.05337E-31
5.86824E-01 9.79896E-32
5.91118E-01 9.14676E-32
5.95404E-01 8.56872E-32
5.99684E-01 8.05723E-32
6.03956E-01 7.60535E-32
6.08220E-01 7.20679E-32
6.12476E-01 6.85579E-32
6.16723E-01 6.54717E-32
6.20961E-01 6.27619E-32
6.25190E-01 6.03856E-32
6.29410E-01 5.83042E-32
6.33619E-01 5.64825E-32
6.37819E-01 5.48890E-32
6.42008E-01 5.34952E-32
6.46186E-01 5.22753E-32
6.50353E-01 5.12062E-32
6.54508E-01 5.02674E-32
6.58652E-01 4.94402E-32
6.62784E-01 4.87081E-32
6.66903E-01 4.80564E-32
6.71010E-01 4.74719E-32
6.75104E-01 4.69430E-32
6.79184E-01 4.64594E-32
6.83251E-01 4.60121E-32
6.87303E-01 4.55930E-32
6.91342E-01 4.51953E-32
6.95366E-01 4.48128E-32
6.99375E-01 4.44404E-32
7.03368E-01 4.40735E-32
7.07347E-01 4.37083E-32
7.11309E-01 4.33416E-32
7.15256E-01 4.29706E-32
7.19186E-01 4.25930E-32
7.23099E-01 4.22071E-32
7.26995E-01 4.18115E-32
7.30874E-01 4.14048E-32
7.34736E-01 4.09865E-32
7.38579E-01 4.05558E-32
7.42405E-01 4.01125E-32
7.46212E-01 3.96564E-32
7.50000E-01 3.91875E-32
7.53769E-01 3.87060E-32
7.57519E-01 3.82122E-32
7.61249E-01 3.77065E-32
7.64960E-01 3.71894E-32
7.68650E-01 3.66615E-32
7.72320E-01 3.61234E-32
7.75968E-01 3.55757E-32
7.79596E-01 3.50193E-32
7.83203E-01 3.44549E-32
7.86788E-01 3.38832E-32
7.90351E-01 3.33049E-32
7.93893E-01 3.27210E-32
7.97411E-01 3.21321E-32
8.00908E-01 3.15391E-32
8.04381E-01 3.09426E-32
8.07831E-01 3.03435E-32
8.11257E-01 2.97425E-32
8.14660E-01 2.91404E-32
8.18039E-01 2.85377E-32
8.21394E-01 2.79352E-32
8.24724E-01 2.73334E-32
8.28030E-01 2.67332E-32
8.31310E-01 2.61349E-32
8.34565E-01 2.55393E-32
8.37795E-01 2.49467E-32
8.40999E-01 2.43578E-32
8.44177E-01 2.37730E-32
8.47329E-01 2.31927E-32
8.50455E-01 2.26174E-32
8.53553E-01 2.20475E-32
8.56625E-01 2.14833E-32
8.59670E-01 2.09252E-32
8.62687E-01 2.03734E-32
8.65677E-01 1.98284E-32
8.68639E-01 1.92903E-32
8.71572E-01 1.87594E-32
8.74478E-01 1.82359E-32
8.77355E-01 1.77200E-32
8.80203E-01 1.72118E-32
8.83022E-01 1.67117E-32
8.85812E-01 1.62196E-32
8.88573E-01 1.57356E-32
8.91304E-01 1.52600E-32
8.94005E-01 1.47928E-32
8.96677E-01 1.43340E-32
8.99318E-01 1.38838E-32
9.01928E-01 1.34421E-32
9.04508E-01 1.30090E-32
9.07058E-01 1.25845E-32
9.09576E-01 1.21685E-32
9.12063E-01 1.17612E-32
9.14519E-01 1.13625E-32
9.16943E-01 1.09723E-32
9.19335E-01 1.05907E-32
9.21696E-01 1.02175E-32
9.24024E-01 9.85272E-33
9.26320E-01 9.49633E-33
9.28584E-01 9.14826E-33
9.30815E-01 8.80842E-33
9.33013E-01 8.47675E-33
9.35178E-01 8.15315E-33
9.37310E-01 7.83756E-33
9.39409E-01 7.52988E-33
9.41474E-01 7.23001E-33
9.43505E-01 6.93788E-33
9.45503E-01 6.65339E-33
9.47467E-01 6.37641E-33
9.49397E-01 6.10687E-33
9.51293E-01 5.84467E-33
9.53154E-01 5.58967E-33
9.54981E-01 5.34182E-33
9.56773E-01 5.10098E-33
9.58530E-01 4.86703E-33
9.60252E-01 4.63990E-33
9.61940E-01 4.41948E-33
9.63592E-01 4.20563E-33
9.65209E-01 3.99828E-33
9.66790E-01 3.79731E-33
9.68336E-01 3.60263E-33
9.69846E-01 3.41413E-33
9.71321E-01 3.23169E-33
9.72759E-01 3.05524E-33
9.74162E-01 2.88467E-33
9.75528E-01 2.71989E-33
9.76858E-01 2.56078E-33
9.78152E-01 2.40727E-33
9.79410E-01 2.25926E-33
9.80631E-01 2.11666E-33
9.81815E-01 1.97939E-33
9.82963E-01 1.84736E-33
9.84074E-01 1.72048E-33
9.85148E-01 1.59868E-33
9.86185E-01 1.48188E-33
9.87185E-01 1.36999E-33
9.88148E-01 1.26295E-33
9.89074E-01 1.16070E-33
9.89962E-01 1.06315E-33
9.90814E-01 9.70228E-34
9.91627E-01 8.81907E-34
9.92404E-01 7.98088E-34
9.93143E-01 7.18734E-34
9.93844E-01 6.43781E-34
9.94508E-01 5.73189E-34
9.95134E-01 5.06889E-34
9.95722E-01 4.44849E-34
9.96273E-01 3.87020E-34
9.96786E-01 3.33361E-34
9.97261E-01 2.83827E-34
9.97698E-01 2.38390E-34
9.98097E-01 1.97016E-34
9.98459E-01 1.59674E-34
9.98782E-01 1.26337E-34
9.99067E-01 9.69783E-35
9.99315E-01 7.15770E-35
9.99524E-01 5.01156E-35
9.99695E-01 3.25806E-35
9.99829E-01 1.89507E-35
9.99924E-01 9.22472E-36
9.99981E-01 3.39111E-36
1.00000E+00 1.44806E-36
