 #
 # Subroutine ELSEPA. Elastic scattering of electrons and positrons
 #                    by neutral atoms and positive ions
 #
 # Projectile: positron
 # Kinetic energy = 1.75000E+07 eV = 6.43113E+05 a.u.
 #
 # WARNING: High-energy factorization with free-atom DF screening.
 #          Absorption, polarization and exchange corrections are
 #          switched off.
 #          Phase shifts are calculated for the bare nucleus.
 #          Scattering amplitudes are not evaluated.
 #
 # Element:  V,  Z =  23,  atomic weight = 5.09415E+01 g/mol
 #
 # Nuclear model: Fermi distribution
 #                Average radius = 3.96650E-13 cm
 #                Skin thickness = 5.46000E-14 cm
 #
 # Number of electrons = 23
 #
 # Total elastic cross section = 1.92425E-18 cm**2 = 6.87163E-02 a0**2
 # 1st transport cross section = 2.82515E-24 cm**2 = 1.00888E-07 a0**2
 # 2nd transport cross section = 8.20770E-24 cm**2 = 2.93102E-07 a0**2
 #
 #
 # Differential cross section:                       MU=(1-COS(THETA))/2
 #
 #  THETA        MU          DCS          DCS        Sherman      error
 #  (deg)                 (cm**2/sr)   (a0**2/sr)    function
 #----------------------------------------------------------------------
0.00000E+00 8.50704E-12
7.61557E-13 8.50597E-12
1.18994E-12 8.50538E-12
1.71346E-12 8.50466E-12
2.33225E-12 8.50380E-12
3.04617E-12 8.50282E-12
3.85530E-12 8.50170E-12
4.75964E-12 8.50045E-12
5.75917E-12 8.49907E-12
6.85391E-12 8.49757E-12
8.04379E-12 8.49593E-12
9.32893E-12 8.49416E-12
1.07092E-11 8.49226E-12
1.21847E-11 8.49023E-12
1.37554E-11 8.48807E-12
1.54213E-11 8.48578E-12
1.71823E-11 8.48336E-12
1.90386E-11 8.48081E-12
2.09900E-11 8.47814E-12
2.30367E-11 8.47533E-12
2.51785E-11 8.47240E-12
2.74156E-11 8.46933E-12
2.97478E-11 8.46614E-12
3.21752E-11 8.46282E-12
3.46979E-11 8.45937E-12
3.73157E-11 8.45580E-12
4.00286E-11 8.45209E-12
4.28368E-11 8.44826E-12
4.57402E-11 8.44431E-12
4.87388E-11 8.44022E-12
5.18325E-11 8.43601E-12
5.50215E-11 8.43168E-12
5.83057E-11 8.42722E-12
6.16850E-11 8.42263E-12
6.51595E-11 8.41792E-12
6.87293E-11 8.41308E-12
7.23943E-11 8.40812E-12
7.61544E-11 8.40303E-12
1.18991E-10 8.34543E-12
1.71347E-10 8.27586E-12
2.33223E-10 8.19480E-12
3.04617E-10 8.10278E-12
3.85531E-10 8.00041E-12
4.75965E-10 7.88836E-12
5.75917E-10 7.76733E-12
6.85389E-10 7.63805E-12
8.04380E-10 7.50109E-12
9.32891E-10 7.35759E-12
1.07092E-09 7.20843E-12
1.21847E-09 7.05383E-12
1.37554E-09 6.89498E-12
1.54213E-09 6.73285E-12
1.71823E-09 6.56761E-12
1.90386E-09 6.40032E-12
2.09900E-09 6.23191E-12
2.30367E-09 6.06251E-12
2.51785E-09 5.89298E-12
2.74156E-09 5.72411E-12
2.97478E-09 5.55606E-12
3.21752E-09 5.38942E-12
3.46978E-09 5.22484E-12
3.73156E-09 5.06246E-12
4.00286E-09 4.90266E-12
4.28368E-09 4.74589E-12
4.57402E-09 4.59229E-12
4.87388E-09 4.44208E-12
5.18326E-09 4.29550E-12
5.50215E-09 4.15269E-12
5.83057E-09 4.01374E-12
6.16850E-09 3.87873E-12
6.51596E-09 3.74775E-12
6.87293E-09 3.62086E-12
7.23942E-09 3.49797E-12
7.61544E-09 3.37915E-12
1.18991E-08 2.40182E-12
1.71347E-08 1.74173E-12
2.33223E-08 1.29840E-12
3.04617E-08 9.93964E-13
3.85531E-08 7.77982E-13
4.75965E-08 6.19569E-13
5.75917E-08 4.99866E-13
6.85389E-08 4.07212E-13
8.04380E-08 3.30626E-13
9.32891E-08 2.72462E-13
1.07092E-07 2.28402E-13
1.21847E-07 1.89832E-13
1.37554E-07 1.58774E-13
1.54213E-07 1.34487E-13
1.71823E-07 1.13541E-13
1.90386E-07 9.62765E-14
2.09900E-07 8.24165E-14
2.30367E-07 7.06050E-14
2.51785E-07 6.07219E-14
2.74156E-07 5.26063E-14
2.97478E-07 4.57104E-14
3.21752E-07 3.98721E-14
3.46978E-07 3.49828E-14
3.73156E-07 3.08085E-14
4.00286E-07 2.72354E-14
4.28368E-07 2.41917E-14
4.57402E-07 2.15685E-14
4.87388E-07 1.92976E-14
5.18325E-07 1.73348E-14
5.50215E-07 1.56235E-14
5.83057E-07 1.41245E-14
6.16850E-07 1.28126E-14
6.51596E-07 1.16555E-14
6.87293E-07 1.06298E-14
7.23942E-07 9.72252E-15
7.61543E-07 8.91378E-15
1.18991E-06 4.15029E-15
1.71347E-06 2.19810E-15
2.33223E-06 1.26154E-15
3.04617E-06 7.68168E-16
3.85531E-06 4.91109E-16
4.75964E-06 3.27328E-16
5.75916E-06 2.26130E-16
6.85388E-06 1.61103E-16
8.04378E-06 1.17859E-16
9.32888E-06 8.82528E-17
1.07092E-05 6.74194E-17
1.21846E-05 5.24115E-17
1.37553E-05 4.13728E-17
1.54212E-05 3.31006E-17
1.71822E-05 2.68037E-17
1.90385E-05 2.19403E-17
2.09899E-05 1.81349E-17
2.30365E-05 1.51207E-17
2.51783E-05 1.27066E-17
2.74153E-05 1.07552E-17
2.97475E-05 9.16450E-18
3.21749E-05 7.85734E-18
3.46974E-05 6.77511E-18
3.73152E-05 5.87281E-18
4.00281E-05 5.11540E-18
4.28362E-05 4.47608E-18
4.57395E-05 3.93340E-18
4.87380E-05 3.47033E-18
5.18317E-05 3.07326E-18
5.50205E-05 2.73118E-18
5.83045E-05 2.43527E-18
6.16838E-05 2.17831E-18
6.51582E-05 1.95431E-18
6.87277E-05 1.75834E-18
7.23925E-05 1.58627E-18
7.61524E-05 1.43466E-18
9.21439E-05 9.82437E-19
1.09658E-04 6.94906E-19
1.28695E-04 5.05144E-19
1.49255E-04 3.75865E-19
1.71338E-04 2.85376E-19
1.94942E-04 2.20517E-19
2.20070E-04 1.73063E-19
2.46720E-04 1.37700E-19
2.74892E-04 1.10916E-19
3.04586E-04 9.03334E-20
3.35803E-04 7.43059E-20
3.68542E-04 6.16775E-20
4.02802E-04 5.16186E-20
4.38585E-04 4.35274E-20
4.75889E-04 3.69597E-20
5.14715E-04 3.15840E-20
5.55063E-04 2.71502E-20
5.96931E-04 2.34670E-20
6.40321E-04 2.03870E-20
6.85233E-04 1.77957E-20
7.31665E-04 1.56028E-20
7.79618E-04 1.37372E-20
8.29092E-04 1.21419E-20
8.80086E-04 1.07714E-20
9.32601E-04 9.58867E-21
9.86636E-04 8.56370E-21
1.04219E-03 7.67194E-21
1.09927E-03 6.89313E-21
1.15786E-03 6.21056E-21
1.21797E-03 5.61030E-21
1.27961E-03 5.08074E-21
1.34276E-03 4.61213E-21
1.40743E-03 4.19624E-21
1.47362E-03 3.82612E-21
1.54133E-03 3.49586E-21
1.61056E-03 3.20042E-21
1.68131E-03 2.93550E-21
1.75357E-03 2.69738E-21
1.82735E-03 2.48288E-21
1.90265E-03 2.28925E-21
1.97947E-03 2.11410E-21
2.05780E-03 1.95536E-21
2.13765E-03 1.81121E-21
2.21902E-03 1.68008E-21
2.30190E-03 1.56058E-21
2.38630E-03 1.45150E-21
2.47222E-03 1.35177E-21
2.55965E-03 1.26044E-21
2.64859E-03 1.17668E-21
2.73905E-03 1.09975E-21
2.83103E-03 1.02899E-21
2.92452E-03 9.63821E-22
3.01952E-03 9.03718E-22
3.11604E-03 8.48217E-22
3.21407E-03 7.96903E-22
3.31362E-03 7.49402E-22
3.41468E-03 7.05380E-22
3.51725E-03 6.64536E-22
3.62133E-03 6.26599E-22
3.72692E-03 5.91324E-22
3.83403E-03 5.58491E-22
3.94265E-03 5.27899E-22
4.05278E-03 4.99369E-22
4.16442E-03 4.72735E-22
4.27757E-03 4.47848E-22
4.39223E-03 4.24574E-22
4.50840E-03 4.02788E-22
4.62608E-03 3.82377E-22
4.74527E-03 3.63240E-22
4.86597E-03 3.45282E-22
4.98817E-03 3.28417E-22
5.11188E-03 3.12566E-22
5.23711E-03 2.97657E-22
5.36383E-03 2.83624E-22
5.49207E-03 2.70405E-22
5.62181E-03 2.57946E-22
5.75306E-03 2.46194E-22
5.88581E-03 2.35101E-22
6.02007E-03 2.24624E-22
6.15583E-03 2.14723E-22
6.29310E-03 2.05359E-22
6.43187E-03 1.96499E-22
6.57214E-03 1.88109E-22
6.71392E-03 1.80161E-22
6.85720E-03 1.72627E-22
7.00198E-03 1.65482E-22
7.14827E-03 1.58701E-22
7.29605E-03 1.52263E-22
7.44534E-03 1.46147E-22
7.59612E-03 1.40333E-22
7.97965E-03 1.27011E-22
8.37255E-03 1.15228E-22
8.77480E-03 1.04775E-22
9.18641E-03 9.54772E-23
9.60736E-03 8.71842E-23
1.00376E-02 7.97688E-23
1.04773E-02 7.31223E-23
1.09262E-02 6.71510E-23
1.13844E-02 6.17745E-23
1.18520E-02 5.69232E-23
1.23288E-02 5.25369E-23
1.28150E-02 4.85632E-23
1.33104E-02 4.49565E-23
1.38150E-02 4.16769E-23
1.43290E-02 3.86896E-23
1.48521E-02 3.59639E-23
1.53845E-02 3.34729E-23
1.59262E-02 3.11928E-23
1.64770E-02 2.91026E-23
1.70371E-02 2.71836E-23
1.76063E-02 2.54194E-23
1.81848E-02 2.37952E-23
1.87724E-02 2.22980E-23
1.93692E-02 2.09160E-23
1.99751E-02 1.96388E-23
2.05901E-02 1.84571E-23
2.12143E-02 1.73624E-23
2.18476E-02 1.63472E-23
2.24900E-02 1.54046E-23
2.31415E-02 1.45286E-23
2.38021E-02 1.37135E-23
2.44717E-02 1.29545E-23
2.51504E-02 1.22469E-23
2.58382E-02 1.15866E-23
2.65349E-02 1.09699E-23
2.72407E-02 1.03934E-23
2.79555E-02 9.85404E-24
2.86793E-02 9.34894E-24
2.94120E-02 8.87556E-24
3.01537E-02 8.43153E-24
3.09043E-02 8.01472E-24
3.16639E-02 7.62315E-24
3.24324E-02 7.25501E-24
3.32098E-02 6.90865E-24
3.39961E-02 6.58255E-24
3.47912E-02 6.27530E-24
3.55952E-02 5.98563E-24
3.64081E-02 5.71233E-24
3.72297E-02 5.45432E-24
3.80602E-02 5.21059E-24
3.88995E-02 4.98019E-24
3.97476E-02 4.76228E-24
4.06044E-02 4.55605E-24
4.14700E-02 4.36076E-24
4.23443E-02 4.17572E-24
4.32273E-02 4.00030E-24
4.41190E-02 3.83390E-24
4.50194E-02 3.67598E-24
4.59284E-02 3.52603E-24
4.68461E-02 3.38357E-24
4.87074E-02 3.11939E-24
5.06030E-02 2.88023E-24
5.25328E-02 2.66333E-24
5.44967E-02 2.46625E-24
5.64946E-02 2.28688E-24
5.85262E-02 2.12333E-24
6.05914E-02 1.97399E-24
6.26901E-02 1.83739E-24
6.48222E-02 1.71226E-24
6.69873E-02 1.59748E-24
6.91854E-02 1.49204E-24
7.14163E-02 1.39504E-24
7.36799E-02 1.30569E-24
7.59760E-02 1.22329E-24
7.83043E-02 1.14719E-24
8.06647E-02 1.07684E-24
8.30571E-02 1.01172E-24
8.54812E-02 9.51373E-25
8.79369E-02 8.95392E-25
9.04240E-02 8.43405E-25
9.29422E-02 7.95077E-25
9.54915E-02 7.50105E-25
9.80716E-02 7.08215E-25
1.00682E-01 6.69159E-25
1.03323E-01 6.32712E-25
1.05995E-01 5.98668E-25
1.08696E-01 5.66842E-25
1.11427E-01 5.37064E-25
1.14188E-01 5.09178E-25
1.16978E-01 4.83044E-25
1.19797E-01 4.58532E-25
1.22645E-01 4.35524E-25
1.25522E-01 4.13912E-25
1.28428E-01 3.93595E-25
1.31361E-01 3.74483E-25
1.34323E-01 3.56491E-25
1.37313E-01 3.39543E-25
1.40330E-01 3.23567E-25
1.43375E-01 3.08498E-25
1.46447E-01 2.94275E-25
1.49545E-01 2.80842E-25
1.52671E-01 2.68148E-25
1.55823E-01 2.56146E-25
1.59001E-01 2.44790E-25
1.62205E-01 2.34040E-25
1.65435E-01 2.23858E-25
1.68690E-01 2.14208E-25
1.71970E-01 2.05059E-25
1.75276E-01 1.96379E-25
1.78606E-01 1.88140E-25
1.81961E-01 1.80316E-25
1.85340E-01 1.72882E-25
1.88743E-01 1.65816E-25
1.92169E-01 1.59096E-25
1.95619E-01 1.52702E-25
1.99092E-01 1.46616E-25
2.02589E-01 1.40820E-25
2.06107E-01 1.35298E-25
2.09649E-01 1.30035E-25
2.13212E-01 1.25017E-25
2.16797E-01 1.20229E-25
2.20404E-01 1.15661E-25
2.24032E-01 1.11299E-25
2.27680E-01 1.07134E-25
2.31350E-01 1.03154E-25
2.35040E-01 9.93501E-26
2.38751E-01 9.57131E-26
2.42481E-01 9.22344E-26
2.46231E-01 8.89059E-26
2.50000E-01 8.57199E-26
2.53788E-01 8.26695E-26
2.57595E-01 7.97477E-26
2.61421E-01 7.69482E-26
2.65264E-01 7.42651E-26
2.69126E-01 7.16926E-26
2.73005E-01 6.92255E-26
2.76901E-01 6.68587E-26
2.80814E-01 6.45873E-26
2.84744E-01 6.24070E-26
2.88691E-01 6.03134E-26
2.92653E-01 5.83024E-26
2.96632E-01 5.63704E-26
3.00625E-01 5.45136E-26
3.04634E-01 5.27286E-26
3.08658E-01 5.10122E-26
3.12697E-01 4.93613E-26
3.16749E-01 4.77730E-26
3.20816E-01 4.62445E-26
3.24896E-01 4.47732E-26
3.28990E-01 4.33565E-26
3.33097E-01 4.19922E-26
3.37216E-01 4.06779E-26
3.41348E-01 3.94115E-26
3.45492E-01 3.81910E-26
3.49647E-01 3.70144E-26
3.53814E-01 3.58798E-26
3.57992E-01 3.47857E-26
3.62181E-01 3.37301E-26
3.66381E-01 3.27117E-26
3.70590E-01 3.17288E-26
3.74810E-01 3.07800E-26
3.79039E-01 2.98639E-26
3.83277E-01 2.89792E-26
3.87524E-01 2.81247E-26
3.91780E-01 2.72991E-26
3.96044E-01 2.65014E-26
4.00316E-01 2.57304E-26
4.04596E-01 2.49851E-26
4.08882E-01 2.42644E-26
4.13176E-01 2.35675E-26
4.17476E-01 2.28935E-26
4.21783E-01 2.22414E-26
4.26095E-01 2.16104E-26
4.30413E-01 2.09998E-26
4.34737E-01 2.04087E-26
4.39065E-01 1.98365E-26
4.43398E-01 1.92824E-26
4.47736E-01 1.87458E-26
4.52077E-01 1.82261E-26
4.56422E-01 1.77226E-26
4.60770E-01 1.72347E-26
4.65122E-01 1.67619E-26
4.69476E-01 1.63036E-26
4.73832E-01 1.58594E-26
4.78190E-01 1.54287E-26
4.82550E-01 1.50110E-26
4.86912E-01 1.46060E-26
4.91274E-01 1.42131E-26
4.95637E-01 1.38319E-26
5.00000E-01 1.34620E-26
5.04363E-01 1.31031E-26
5.08726E-01 1.27547E-26
5.13088E-01 1.24166E-26
5.17450E-01 1.20883E-26
5.21810E-01 1.17695E-26
5.26168E-01 1.14600E-26
5.30524E-01 1.11594E-26
5.34878E-01 1.08673E-26
5.39230E-01 1.05836E-26
5.43578E-01 1.03080E-26
5.47923E-01 1.00401E-26
5.52264E-01 9.77977E-27
5.56602E-01 9.52673E-27
5.60935E-01 9.28075E-27
5.65263E-01 9.04161E-27
5.69587E-01 8.80908E-27
5.73905E-01 8.58295E-27
5.78217E-01 8.36303E-27
5.82524E-01 8.14911E-27
5.86824E-01 7.94102E-27
5.91118E-01 7.73856E-27
5.95404E-01 7.54157E-27
5.99684E-01 7.34987E-27
6.03956E-01 7.16330E-27
6.08220E-01 6.98172E-27
6.12476E-01 6.80495E-27
6.16723E-01 6.63287E-27
6.20961E-01 6.46532E-27
6.25190E-01 6.30217E-27
6.29410E-01 6.14329E-27
6.33619E-01 5.98856E-27
6.37819E-01 5.83784E-27
6.42008E-01 5.69103E-27
6.46186E-01 5.54800E-27
6.50353E-01 5.40865E-27
6.54508E-01 5.27287E-27
6.58652E-01 5.14055E-27
6.62784E-01 5.01160E-27
6.66903E-01 4.88592E-27
6.71010E-01 4.76341E-27
6.75104E-01 4.64399E-27
6.79184E-01 4.52756E-27
6.83251E-01 4.41405E-27
6.87303E-01 4.30337E-27
6.91342E-01 4.19544E-27
6.95366E-01 4.09018E-27
6.99375E-01 3.98753E-27
7.03368E-01 3.88740E-27
7.07347E-01 3.78973E-27
7.11309E-01 3.69445E-27
7.15256E-01 3.60150E-27
7.19186E-01 3.51081E-27
7.23099E-01 3.42233E-27
7.26995E-01 3.33598E-27
7.30874E-01 3.25172E-27
7.34736E-01 3.16949E-27
7.38579E-01 3.08923E-27
7.42405E-01 3.01089E-27
7.46212E-01 2.93443E-27
7.50000E-01 2.85979E-27
7.53769E-01 2.78692E-27
7.57519E-01 2.71578E-27
7.61249E-01 2.64632E-27
7.64960E-01 2.57850E-27
7.68650E-01 2.51228E-27
7.72320E-01 2.44762E-27
7.75968E-01 2.38447E-27
7.79596E-01 2.32280E-27
7.83203E-01 2.26257E-27
7.86788E-01 2.20375E-27
7.90351E-01 2.14629E-27
7.93893E-01 2.09017E-27
7.97411E-01 2.03535E-27
8.00908E-01 1.98180E-27
8.04381E-01 1.92949E-27
8.07831E-01 1.87838E-27
8.11257E-01 1.82846E-27
8.14660E-01 1.77968E-27
8.18039E-01 1.73202E-27
8.21394E-01 1.68546E-27
8.24724E-01 1.63996E-27
8.28030E-01 1.59551E-27
8.31310E-01 1.55207E-27
8.34565E-01 1.50962E-27
8.37795E-01 1.46815E-27
8.40999E-01 1.42762E-27
8.44177E-01 1.38802E-27
8.47329E-01 1.34932E-27
8.50455E-01 1.31151E-27
8.53553E-01 1.27455E-27
8.56625E-01 1.23844E-27
8.59670E-01 1.20315E-27
8.62687E-01 1.16867E-27
8.65677E-01 1.13497E-27
8.68639E-01 1.10204E-27
8.71572E-01 1.06986E-27
8.74478E-01 1.03841E-27
8.77355E-01 1.00769E-27
8.80203E-01 9.77665E-28
8.83022E-01 9.48329E-28
8.85812E-01 9.19665E-28
8.88573E-01 8.91660E-28
8.91304E-01 8.64297E-28
8.94005E-01 8.37565E-28
8.96677E-01 8.11450E-28
8.99318E-01 7.85938E-28
9.01928E-01 7.61017E-28
9.04508E-01 7.36674E-28
9.07058E-01 7.12899E-28
9.09576E-01 6.89678E-28
9.12063E-01 6.67002E-28
9.14519E-01 6.44858E-28
9.16943E-01 6.23236E-28
9.19335E-01 6.02127E-28
9.21696E-01 5.81519E-28
9.24024E-01 5.61402E-28
9.26320E-01 5.41768E-28
9.28584E-01 5.22607E-28
9.30815E-01 5.03911E-28
9.33013E-01 4.85669E-28
9.35178E-01 4.67874E-28
9.37310E-01 4.50517E-28
9.39409E-01 4.33591E-28
9.41474E-01 4.17087E-28
9.43505E-01 4.00998E-28
9.45503E-01 3.85317E-28
9.47467E-01 3.70036E-28
9.49397E-01 3.55149E-28
9.51293E-01 3.40648E-28
9.53154E-01 3.26527E-28
9.54981E-01 3.12779E-28
9.56773E-01 2.99399E-28
9.58530E-01 2.86381E-28
9.60252E-01 2.73718E-28
9.61940E-01 2.61405E-28
9.63592E-01 2.49437E-28
9.65209E-01 2.37808E-28
9.66790E-01 2.26512E-28
9.68336E-01 2.15546E-28
9.69846E-01 2.04904E-28
9.71321E-01 1.94582E-28
9.72759E-01 1.84575E-28
9.74162E-01 1.74878E-28
9.75528E-01 1.65488E-28
9.76858E-01 1.56400E-28
9.78152E-01 1.47610E-28
9.79410E-01 1.39115E-28
9.80631E-01 1.30911E-28
9.81815E-01 1.22995E-28
9.82963E-01 1.15362E-28
9.84074E-01 1.08010E-28
9.85148E-01 1.00936E-28
9.86185E-01 9.41361E-29
9.87185E-01 8.76080E-29
9.88148E-01 8.13487E-29
9.89074E-01 7.53555E-29
9.89962E-01 6.96261E-29
9.90814E-01 6.41578E-29
9.91627E-01 5.89485E-29
9.92404E-01 5.39958E-29
9.93143E-01 4.92978E-29
9.93844E-01 4.48524E-29
9.94508E-01 4.06577E-29
9.95134E-01 3.67121E-29
9.95722E-01 3.30138E-29
9.96273E-01 2.95612E-29
9.96786E-01 2.63530E-29
9.97261E-01 2.33878E-29
9.97698E-01 2.06644E-29
9.98097E-01 1.81815E-29
9.98459E-01 1.59383E-29
9.98782E-01 1.39336E-29
9.99067E-01 1.21668E-29
9.99315E-01 1.06370E-29
9.99524E-01 9.34370E-30
9.99695E-01 8.28624E-30
9.99829E-01 7.46424E-30
9.99924E-01 6.87734E-30
9.99981E-01 6.52530E-30
1.00000E+00 6.40797E-30
