 #
 # Subroutine ELSEPA. Elastic scattering of electrons and positrons
 #                    by neutral atoms and positive ions
 #
 # Projectile: electron
 # Kinetic energy = 6.00000E+06 eV = 2.20496E+05 a.u.
 #
 # WARNING: High-energy factorization with free-atom DF screening.
 #          Absorption, polarization and exchange corrections are
 #          switched off.
 #          Phase shifts are calculated for the bare nucleus.
 #          Scattering amplitudes are not evaluated.
 #
 # Element: Cl,  Z =  17,  atomic weight = 3.54527E+01 g/mol
 #
 # Nuclear model: Fermi distribution
 #                Average radius = 3.51507E-13 cm
 #                Skin thickness = 5.46000E-14 cm
 #
 # Number of electrons = 17
 #
 # Total elastic cross section = 1.10883E-18 cm**2 = 3.95970E-02 a0**2
 # 1st transport cross section = 1.10850E-23 cm**2 = 3.95851E-07 a0**2
 # 2nd transport cross section = 3.16925E-23 cm**2 = 1.13176E-06 a0**2
 #
 #
 # Differential cross section:                       MU=(1-COS(THETA))/2
 #
 #  THETA        MU          DCS          DCS        Sherman      error
 #  (deg)                 (cm**2/sr)   (a0**2/sr)    function
 #----------------------------------------------------------------------
0.00000E+00 3.82054E-13
7.61557E-13 3.82051E-13
1.18994E-12 3.82050E-13
1.71346E-12 3.82048E-13
2.33225E-12 3.82046E-13
3.04617E-12 3.82044E-13
3.85530E-12 3.82041E-13
4.75964E-12 3.82038E-13
5.75917E-12 3.82035E-13
6.85391E-12 3.82032E-13
8.04379E-12 3.82028E-13
9.32893E-12 3.82024E-13
1.07092E-11 3.82020E-13
1.21847E-11 3.82015E-13
1.37554E-11 3.82010E-13
1.54213E-11 3.82005E-13
1.71823E-11 3.81999E-13
1.90386E-11 3.81993E-13
2.09900E-11 3.81987E-13
2.30367E-11 3.81981E-13
2.51785E-11 3.81974E-13
2.74156E-11 3.81967E-13
2.97478E-11 3.81960E-13
3.21752E-11 3.81952E-13
3.46979E-11 3.81944E-13
3.73157E-11 3.81936E-13
4.00286E-11 3.81927E-13
4.28368E-11 3.81919E-13
4.57402E-11 3.81910E-13
4.87388E-11 3.81900E-13
5.18325E-11 3.81891E-13
5.50215E-11 3.81881E-13
5.83057E-11 3.81870E-13
6.16850E-11 3.81860E-13
6.51595E-11 3.81849E-13
6.87293E-11 3.81838E-13
7.23943E-11 3.81826E-13
7.61544E-11 3.81815E-13
1.18991E-10 3.81681E-13
1.71347E-10 3.81519E-13
2.33223E-10 3.81327E-13
3.04617E-10 3.81105E-13
3.85531E-10 3.80855E-13
4.75965E-10 3.80575E-13
5.75917E-10 3.80267E-13
6.85389E-10 3.79929E-13
8.04380E-10 3.79564E-13
9.32891E-10 3.79169E-13
1.07092E-09 3.78746E-13
1.21847E-09 3.78294E-13
1.37554E-09 3.77814E-13
1.54213E-09 3.77306E-13
1.71823E-09 3.76769E-13
1.90386E-09 3.76206E-13
2.09900E-09 3.75614E-13
2.30367E-09 3.74996E-13
2.51785E-09 3.74349E-13
2.74156E-09 3.73677E-13
2.97478E-09 3.72976E-13
3.21752E-09 3.72251E-13
3.46978E-09 3.71497E-13
3.73156E-09 3.70719E-13
4.00286E-09 3.69914E-13
4.28368E-09 3.69083E-13
4.57402E-09 3.68228E-13
4.87388E-09 3.67346E-13
5.18326E-09 3.66442E-13
5.50215E-09 3.65509E-13
5.83057E-09 3.64557E-13
6.16850E-09 3.63576E-13
6.51596E-09 3.62575E-13
6.87293E-09 3.61547E-13
7.23942E-09 3.60499E-13
7.61544E-09 3.59427E-13
1.18991E-08 3.47524E-13
1.71347E-08 3.33707E-13
2.33223E-08 3.18354E-13
3.04617E-08 3.01824E-13
3.85531E-08 2.84154E-13
4.75965E-08 2.65865E-13
5.75917E-08 2.48813E-13
6.85389E-08 2.30308E-13
8.04380E-08 2.13660E-13
9.32891E-08 1.96418E-13
1.07092E-07 1.80781E-13
1.21847E-07 1.65477E-13
1.37554E-07 1.51345E-13
1.54213E-07 1.38138E-13
1.71823E-07 1.25754E-13
1.90386E-07 1.14580E-13
2.09900E-07 1.03989E-13
2.30367E-07 9.46662E-14
2.51785E-07 8.57745E-14
2.74156E-07 7.80125E-14
2.97478E-07 7.07109E-14
3.21752E-07 6.42718E-14
3.46978E-07 5.83555E-14
3.73156E-07 5.30619E-14
4.00286E-07 4.82763E-14
4.28368E-07 4.39506E-14
4.57402E-07 4.00796E-14
4.87388E-07 3.65571E-14
5.18325E-07 3.34219E-14
5.50215E-07 3.05574E-14
5.83057E-07 2.80094E-14
6.16850E-07 2.56823E-14
6.51596E-07 2.36012E-14
6.87293E-07 2.17113E-14
7.23942E-07 2.00084E-14
7.61543E-07 1.84660E-14
1.18991E-06 9.00661E-15
1.71347E-06 5.03282E-15
2.33223E-06 3.10820E-15
3.04617E-06 2.05337E-15
3.85531E-06 1.41681E-15
4.75964E-06 1.00985E-15
5.75916E-06 7.37035E-16
6.85388E-06 5.48257E-16
8.04378E-06 4.14520E-16
9.32888E-06 3.17995E-16
1.07092E-05 2.47083E-16
1.21846E-05 1.94416E-16
1.37553E-05 1.54798E-16
1.54212E-05 1.24622E-16
1.71822E-05 1.01368E-16
1.90385E-05 8.32458E-17
2.09899E-05 6.89835E-17
2.30365E-05 5.76385E-17
2.51783E-05 4.85331E-17
2.74153E-05 4.11611E-17
2.97475E-05 3.51430E-17
3.21749E-05 3.01917E-17
3.46974E-05 2.60885E-17
3.73152E-05 2.26646E-17
4.00281E-05 1.97886E-17
4.28362E-05 1.73583E-17
4.57395E-05 1.52928E-17
4.87380E-05 1.35280E-17
5.18317E-05 1.20123E-17
5.50205E-05 1.07046E-17
5.83045E-05 9.57129E-18
6.16838E-05 8.58489E-18
6.51582E-05 7.72305E-18
6.87277E-05 6.96729E-18
7.23925E-05 6.30221E-18
7.61524E-05 5.71497E-18
9.21439E-05 3.95294E-18
1.09658E-04 2.82124E-18
1.28695E-04 2.06706E-18
1.49255E-04 1.54863E-18
1.71338E-04 1.18276E-18
1.94942E-04 9.18631E-19
2.20070E-04 7.24126E-19
2.46720E-04 5.78372E-19
2.74892E-04 4.67432E-19
3.04586E-04 3.81806E-19
3.35803E-04 3.14880E-19
3.68542E-04 2.61967E-19
4.02802E-04 2.19700E-19
4.38585E-04 1.85609E-19
4.75889E-04 1.57873E-19
5.14715E-04 1.35123E-19
5.55063E-04 1.16324E-19
5.96931E-04 1.00680E-19
6.40321E-04 8.75776E-20
6.85233E-04 7.65376E-20
7.31665E-04 6.71828E-20
7.79618E-04 5.92141E-20
8.29092E-04 5.23924E-20
8.80086E-04 4.65251E-20
9.32601E-04 4.14567E-20
9.86636E-04 3.70600E-20
1.04219E-03 3.32311E-20
1.09927E-03 2.98843E-20
1.15786E-03 2.69485E-20
1.21797E-03 2.43647E-20
1.27961E-03 2.20834E-20
1.34276E-03 2.00631E-20
1.40743E-03 1.82688E-20
1.47362E-03 1.66707E-20
1.54133E-03 1.52438E-20
1.61056E-03 1.39664E-20
1.68131E-03 1.28202E-20
1.75357E-03 1.17893E-20
1.82735E-03 1.08600E-20
1.90265E-03 1.00206E-20
1.97947E-03 9.26088E-21
2.05780E-03 8.57185E-21
2.13765E-03 7.94580E-21
2.21902E-03 7.37593E-21
2.30190E-03 6.85631E-21
2.38630E-03 6.38170E-21
2.47222E-03 5.94751E-21
2.55965E-03 5.54967E-21
2.64859E-03 5.18458E-21
2.73905E-03 4.84907E-21
2.83103E-03 4.54030E-21
2.92452E-03 4.25575E-21
3.01952E-03 3.99318E-21
3.11604E-03 3.75058E-21
3.21407E-03 3.52615E-21
3.31362E-03 3.31829E-21
3.41468E-03 3.12554E-21
3.51725E-03 2.94660E-21
3.62133E-03 2.78031E-21
3.72692E-03 2.62561E-21
3.83403E-03 2.48153E-21
3.94265E-03 2.34721E-21
4.05278E-03 2.22186E-21
4.16442E-03 2.10477E-21
4.27757E-03 1.99531E-21
4.39223E-03 1.89288E-21
4.50840E-03 1.79696E-21
4.62608E-03 1.70704E-21
4.74527E-03 1.62269E-21
4.86597E-03 1.54350E-21
4.98817E-03 1.46909E-21
5.11188E-03 1.39911E-21
5.23711E-03 1.33326E-21
5.36383E-03 1.27125E-21
5.49207E-03 1.21281E-21
5.62181E-03 1.15769E-21
5.75306E-03 1.10568E-21
5.88581E-03 1.05656E-21
6.02007E-03 1.01014E-21
6.15583E-03 9.66249E-22
6.29310E-03 9.24721E-22
6.43187E-03 8.85405E-22
6.57214E-03 8.48160E-22
6.71392E-03 8.12857E-22
6.85720E-03 7.79375E-22
7.00198E-03 7.47604E-22
7.14827E-03 7.17438E-22
7.29605E-03 6.88781E-22
7.44534E-03 6.61544E-22
7.59612E-03 6.35643E-22
7.97965E-03 5.76236E-22
8.37255E-03 5.23623E-22
8.77480E-03 4.76892E-22
9.18641E-03 4.35269E-22
9.60736E-03 3.98099E-22
1.00376E-02 3.64822E-22
1.04773E-02 3.34956E-22
1.09262E-02 3.08092E-22
1.13844E-02 2.83873E-22
1.18520E-02 2.61992E-22
1.23288E-02 2.42184E-22
1.28150E-02 2.24217E-22
1.33104E-02 2.07889E-22
1.38150E-02 1.93023E-22
1.43290E-02 1.79466E-22
1.48521E-02 1.67080E-22
1.53845E-02 1.55747E-22
1.59262E-02 1.45361E-22
1.64770E-02 1.35828E-22
1.70371E-02 1.27066E-22
1.76063E-02 1.19000E-22
1.81848E-02 1.11566E-22
1.87724E-02 1.04704E-22
1.93692E-02 9.83625E-23
1.99751E-02 9.24951E-23
2.05901E-02 8.70596E-23
2.12143E-02 8.20183E-23
2.18476E-02 7.73373E-23
2.24900E-02 7.29862E-23
2.31415E-02 6.89374E-23
2.38021E-02 6.51660E-23
2.44717E-02 6.16494E-23
2.51504E-02 5.83673E-23
2.58382E-02 5.53011E-23
2.65349E-02 5.24340E-23
2.72407E-02 4.97506E-23
2.79555E-02 4.72369E-23
2.86793E-02 4.48803E-23
2.94120E-02 4.26690E-23
3.01537E-02 4.05925E-23
3.09043E-02 3.86409E-23
3.16639E-02 3.68053E-23
3.24324E-02 3.50777E-23
3.32098E-02 3.34503E-23
3.39961E-02 3.19163E-23
3.47912E-02 3.04694E-23
3.55952E-02 2.91036E-23
3.64081E-02 2.78136E-23
3.72297E-02 2.65943E-23
3.80602E-02 2.54412E-23
3.88995E-02 2.43499E-23
3.97476E-02 2.33166E-23
4.06044E-02 2.23376E-23
4.14700E-02 2.14094E-23
4.23443E-02 2.05290E-23
4.32273E-02 1.96934E-23
4.41190E-02 1.88999E-23
4.50194E-02 1.81459E-23
4.59284E-02 1.74292E-23
4.68461E-02 1.67476E-23
4.87074E-02 1.54814E-23
5.06030E-02 1.43326E-23
5.25328E-02 1.32884E-23
5.44967E-02 1.23375E-23
5.64946E-02 1.14701E-23
5.85262E-02 1.06776E-23
6.05914E-02 9.95224E-24
6.26901E-02 9.28738E-24
6.48222E-02 8.67705E-24
6.69873E-02 8.11596E-24
6.91854E-02 7.59941E-24
7.14163E-02 7.12321E-24
7.36799E-02 6.68365E-24
7.59760E-02 6.27738E-24
7.83043E-02 5.90143E-24
8.06647E-02 5.55312E-24
8.30571E-02 5.23004E-24
8.54812E-02 4.93002E-24
8.79369E-02 4.65113E-24
9.04240E-02 4.39160E-24
9.29422E-02 4.14983E-24
9.54915E-02 3.92439E-24
9.80716E-02 3.71397E-24
1.00682E-01 3.51739E-24
1.03323E-01 3.33357E-24
1.05995E-01 3.16152E-24
1.08696E-01 3.00035E-24
1.11427E-01 2.84926E-24
1.14188E-01 2.70748E-24
1.16978E-01 2.57434E-24
1.19797E-01 2.44923E-24
1.22645E-01 2.33155E-24
1.25522E-01 2.22080E-24
1.28428E-01 2.11648E-24
1.31361E-01 2.01815E-24
1.34323E-01 1.92541E-24
1.37313E-01 1.83788E-24
1.40330E-01 1.75521E-24
1.43375E-01 1.67708E-24
1.46447E-01 1.60320E-24
1.49545E-01 1.53330E-24
1.52671E-01 1.46711E-24
1.55823E-01 1.40440E-24
1.59001E-01 1.34497E-24
1.62205E-01 1.28859E-24
1.65435E-01 1.23510E-24
1.68690E-01 1.18431E-24
1.71970E-01 1.13606E-24
1.75276E-01 1.09020E-24
1.78606E-01 1.04660E-24
1.81961E-01 1.00511E-24
1.85340E-01 9.65619E-25
1.88743E-01 9.28012E-25
1.92169E-01 8.92182E-25
1.95619E-01 8.58030E-25
1.99092E-01 8.25462E-25
2.02589E-01 7.94392E-25
2.06107E-01 7.64737E-25
2.09649E-01 7.36421E-25
2.13212E-01 7.09373E-25
2.16797E-01 6.83525E-25
2.20404E-01 6.58815E-25
2.24032E-01 6.35182E-25
2.27680E-01 6.12572E-25
2.31350E-01 5.90932E-25
2.35040E-01 5.70212E-25
2.38751E-01 5.50366E-25
2.42481E-01 5.31352E-25
2.46231E-01 5.13126E-25
2.50000E-01 4.95651E-25
2.53788E-01 4.78891E-25
2.57595E-01 4.62809E-25
2.61421E-01 4.47375E-25
2.65264E-01 4.32557E-25
2.69126E-01 4.18325E-25
2.73005E-01 4.04654E-25
2.76901E-01 3.91515E-25
2.80814E-01 3.78886E-25
2.84744E-01 3.66742E-25
2.88691E-01 3.55062E-25
2.92653E-01 3.43824E-25
2.96632E-01 3.33009E-25
3.00625E-01 3.22598E-25
3.04634E-01 3.12573E-25
3.08658E-01 3.02917E-25
3.12697E-01 2.93615E-25
3.16749E-01 2.84650E-25
3.20816E-01 2.76009E-25
3.24896E-01 2.67677E-25
3.28990E-01 2.59642E-25
3.33097E-01 2.51891E-25
3.37216E-01 2.44412E-25
3.41348E-01 2.37195E-25
3.45492E-01 2.30227E-25
3.49647E-01 2.23499E-25
3.53814E-01 2.17002E-25
3.57992E-01 2.10725E-25
3.62181E-01 2.04661E-25
3.66381E-01 1.98800E-25
3.70590E-01 1.93135E-25
3.74810E-01 1.87658E-25
3.79039E-01 1.82361E-25
3.83277E-01 1.77238E-25
3.87524E-01 1.72282E-25
3.91780E-01 1.67486E-25
3.96044E-01 1.62844E-25
4.00316E-01 1.58351E-25
4.04596E-01 1.54001E-25
4.08882E-01 1.49789E-25
4.13176E-01 1.45709E-25
4.17476E-01 1.41756E-25
4.21783E-01 1.37927E-25
4.26095E-01 1.34216E-25
4.30413E-01 1.30618E-25
4.34737E-01 1.27131E-25
4.39065E-01 1.23750E-25
4.43398E-01 1.20472E-25
4.47736E-01 1.17291E-25
4.52077E-01 1.14206E-25
4.56422E-01 1.11213E-25
4.60770E-01 1.08309E-25
4.65122E-01 1.05490E-25
4.69476E-01 1.02753E-25
4.73832E-01 1.00096E-25
4.78190E-01 9.75168E-26
4.82550E-01 9.50115E-26
4.86912E-01 9.25782E-26
4.91274E-01 9.02144E-26
4.95637E-01 8.79178E-26
5.00000E-01 8.56861E-26
5.04363E-01 8.35173E-26
5.08726E-01 8.14092E-26
5.13088E-01 7.93598E-26
5.17450E-01 7.73673E-26
5.21810E-01 7.54298E-26
5.26168E-01 7.35456E-26
5.30524E-01 7.17129E-26
5.34878E-01 6.99301E-26
5.39230E-01 6.81957E-26
5.43578E-01 6.65080E-26
5.47923E-01 6.48656E-26
5.52264E-01 6.32672E-26
5.56602E-01 6.17113E-26
5.60935E-01 6.01967E-26
5.65263E-01 5.87220E-26
5.69587E-01 5.72861E-26
5.73905E-01 5.58878E-26
5.78217E-01 5.45259E-26
5.82524E-01 5.31993E-26
5.86824E-01 5.19070E-26
5.91118E-01 5.06479E-26
5.95404E-01 4.94211E-26
5.99684E-01 4.82256E-26
6.03956E-01 4.70605E-26
6.08220E-01 4.59249E-26
6.12476E-01 4.48179E-26
6.16723E-01 4.37387E-26
6.20961E-01 4.26866E-26
6.25190E-01 4.16606E-26
6.29410E-01 4.06601E-26
6.33619E-01 3.96844E-26
6.37819E-01 3.87327E-26
6.42008E-01 3.78044E-26
6.46186E-01 3.68988E-26
6.50353E-01 3.60153E-26
6.54508E-01 3.51533E-26
6.58652E-01 3.43121E-26
6.62784E-01 3.34912E-26
6.66903E-01 3.26900E-26
6.71010E-01 3.19080E-26
6.75104E-01 3.11447E-26
6.79184E-01 3.03996E-26
6.83251E-01 2.96721E-26
6.87303E-01 2.89618E-26
6.91342E-01 2.82683E-26
6.95366E-01 2.75911E-26
6.99375E-01 2.69297E-26
7.03368E-01 2.62838E-26
7.07347E-01 2.56529E-26
7.11309E-01 2.50367E-26
7.15256E-01 2.44347E-26
7.19186E-01 2.38466E-26
7.23099E-01 2.32721E-26
7.26995E-01 2.27107E-26
7.30874E-01 2.21622E-26
7.34736E-01 2.16262E-26
7.38579E-01 2.11024E-26
7.42405E-01 2.05905E-26
7.46212E-01 2.00902E-26
7.50000E-01 1.96012E-26
7.53769E-01 1.91232E-26
7.57519E-01 1.86560E-26
7.61249E-01 1.81993E-26
7.64960E-01 1.77528E-26
7.68650E-01 1.73163E-26
7.72320E-01 1.68895E-26
7.75968E-01 1.64722E-26
7.79596E-01 1.60642E-26
7.83203E-01 1.56652E-26
7.86788E-01 1.52750E-26
7.90351E-01 1.48935E-26
7.93893E-01 1.45204E-26
7.97411E-01 1.41555E-26
8.00908E-01 1.37986E-26
8.04381E-01 1.34496E-26
8.07831E-01 1.31082E-26
8.11257E-01 1.27743E-26
8.14660E-01 1.24477E-26
8.18039E-01 1.21282E-26
8.21394E-01 1.18157E-26
8.24724E-01 1.15100E-26
8.28030E-01 1.12110E-26
8.31310E-01 1.09185E-26
8.34565E-01 1.06324E-26
8.37795E-01 1.03524E-26
8.40999E-01 1.00786E-26
8.44177E-01 9.81071E-27
8.47329E-01 9.54864E-27
8.50455E-01 9.29227E-27
8.53553E-01 9.04147E-27
8.56625E-01 8.79612E-27
8.59670E-01 8.55611E-27
8.62687E-01 8.32131E-27
8.65677E-01 8.09162E-27
8.68639E-01 7.86693E-27
8.71572E-01 7.64715E-27
8.74478E-01 7.43215E-27
8.77355E-01 7.22185E-27
8.80203E-01 7.01615E-27
8.83022E-01 6.81495E-27
8.85812E-01 6.61817E-27
8.88573E-01 6.42571E-27
8.91304E-01 6.23749E-27
8.94005E-01 6.05342E-27
8.96677E-01 5.87342E-27
8.99318E-01 5.69741E-27
9.01928E-01 5.52532E-27
9.04508E-01 5.35706E-27
9.07058E-01 5.19256E-27
9.09576E-01 5.03176E-27
9.12063E-01 4.87458E-27
9.14519E-01 4.72095E-27
9.16943E-01 4.57081E-27
9.19335E-01 4.42409E-27
9.21696E-01 4.28074E-27
9.24024E-01 4.14068E-27
9.26320E-01 4.00387E-27
9.28584E-01 3.87023E-27
9.30815E-01 3.73973E-27
9.33013E-01 3.61229E-27
9.35178E-01 3.48787E-27
9.37310E-01 3.36642E-27
9.39409E-01 3.24789E-27
9.41474E-01 3.13223E-27
9.43505E-01 3.01938E-27
9.45503E-01 2.90931E-27
9.47467E-01 2.80197E-27
9.49397E-01 2.69732E-27
9.51293E-01 2.59530E-27
9.53154E-01 2.49589E-27
9.54981E-01 2.39905E-27
9.56773E-01 2.30472E-27
9.58530E-01 2.21288E-27
9.60252E-01 2.12349E-27
9.61940E-01 2.03651E-27
9.63592E-01 1.95191E-27
9.65209E-01 1.86966E-27
9.66790E-01 1.78972E-27
9.68336E-01 1.71206E-27
9.69846E-01 1.63665E-27
9.71321E-01 1.56347E-27
9.72759E-01 1.49248E-27
9.74162E-01 1.42365E-27
9.75528E-01 1.35696E-27
9.76858E-01 1.29239E-27
9.78152E-01 1.22990E-27
9.79410E-01 1.16947E-27
9.80631E-01 1.11109E-27
9.81815E-01 1.05473E-27
9.82963E-01 1.00036E-27
9.84074E-01 9.47970E-28
9.85148E-01 8.97535E-28
9.86185E-01 8.49037E-28
9.87185E-01 8.02457E-28
9.88148E-01 7.57779E-28
9.89074E-01 7.14984E-28
9.89962E-01 6.74057E-28
9.90814E-01 6.34983E-28
9.91627E-01 5.97746E-28
9.92404E-01 5.62332E-28
9.93143E-01 5.28730E-28
9.93844E-01 4.96925E-28
9.94508E-01 4.66905E-28
9.95134E-01 4.38661E-28
9.95722E-01 4.12180E-28
9.96273E-01 3.87454E-28
9.96786E-01 3.64473E-28
9.97261E-01 3.43228E-28
9.97698E-01 3.23711E-28
9.98097E-01 3.05916E-28
9.98459E-01 2.89835E-28
9.98782E-01 2.75463E-28
9.99067E-01 2.62795E-28
9.99315E-01 2.51825E-28
9.99524E-01 2.42549E-28
9.99695E-01 2.34965E-28
9.99829E-01 2.29069E-28
9.99924E-01 2.24859E-28
9.99981E-01 2.22334E-28
1.00000E+00 2.21492E-28
