 #
 # Subroutine ELSEPA. Elastic scattering of electrons and positrons
 #                    by neutral atoms and positive ions
 #
 # Projectile: electron
 # Kinetic energy = 3.50000E+07 eV = 1.28623E+06 a.u.
 #
 # WARNING: High-energy factorization with free-atom DF screening.
 #          Absorption, polarization and exchange corrections are
 #          switched off.
 #          Phase shifts are calculated for the bare nucleus.
 #          Scattering amplitudes are not evaluated.
 #
 # Element: Cl,  Z =  17,  atomic weight = 3.54527E+01 g/mol
 #
 # Nuclear model: Fermi distribution
 #                Average radius = 3.51507E-13 cm
 #                Skin thickness = 5.46000E-14 cm
 #
 # Number of electrons = 17
 #
 # Total elastic cross section = 1.10073E-18 cm**2 = 3.93078E-02 a0**2
 # 1st transport cross section = 4.60074E-25 cm**2 = 1.64295E-08 a0**2
 # 2nd transport cross section = 1.33795E-24 cm**2 = 4.77792E-08 a0**2
 #
 #
 # Differential cross section:                       MU=(1-COS(THETA))/2
 #
 #  THETA        MU          DCS          DCS        Sherman      error
 #  (deg)                 (cm**2/sr)   (a0**2/sr)    function
 #----------------------------------------------------------------------
0.00000E+00 1.13646E-11
7.61557E-13 1.13625E-11
1.18994E-12 1.13613E-11
1.71346E-12 1.13598E-11
2.33225E-12 1.13581E-11
3.04617E-12 1.13561E-11
3.85530E-12 1.13538E-11
4.75964E-12 1.13513E-11
5.75917E-12 1.13486E-11
6.85391E-12 1.13455E-11
8.04379E-12 1.13422E-11
9.32893E-12 1.13387E-11
1.07092E-11 1.13349E-11
1.21847E-11 1.13308E-11
1.37554E-11 1.13265E-11
1.54213E-11 1.13219E-11
1.71823E-11 1.13171E-11
1.90386E-11 1.13120E-11
2.09900E-11 1.13066E-11
2.30367E-11 1.13010E-11
2.51785E-11 1.12951E-11
2.74156E-11 1.12890E-11
2.97478E-11 1.12826E-11
3.21752E-11 1.12760E-11
3.46979E-11 1.12691E-11
3.73157E-11 1.12619E-11
4.00286E-11 1.12545E-11
4.28368E-11 1.12469E-11
4.57402E-11 1.12390E-11
4.87388E-11 1.12309E-11
5.18325E-11 1.12224E-11
5.50215E-11 1.12138E-11
5.83057E-11 1.12049E-11
6.16850E-11 1.11958E-11
6.51595E-11 1.11864E-11
6.87293E-11 1.11767E-11
7.23943E-11 1.11669E-11
7.61544E-11 1.11568E-11
1.18991E-10 1.10423E-11
1.71347E-10 1.09049E-11
2.33223E-10 1.07453E-11
3.04617E-10 1.05654E-11
3.85531E-10 1.03664E-11
4.75965E-10 1.01504E-11
5.75917E-10 9.91852E-12
6.85389E-10 9.67333E-12
8.04380E-10 9.41593E-12
9.32891E-10 9.14894E-12
1.07092E-09 8.87337E-12
1.21847E-09 8.59187E-12
1.37554E-09 8.28497E-12
1.54213E-09 7.98884E-12
1.71823E-09 7.70496E-12
1.90386E-09 7.43388E-12
2.09900E-09 7.12523E-12
2.30367E-09 6.83214E-12
2.51785E-09 6.55559E-12
2.74156E-09 6.29514E-12
2.97478E-09 6.00564E-12
3.21752E-09 5.73347E-12
3.46978E-09 5.47902E-12
3.73156E-09 5.24128E-12
4.00286E-09 4.98340E-12
4.28368E-09 4.74230E-12
4.57402E-09 4.51801E-12
4.87388E-09 4.30933E-12
5.18326E-09 4.08815E-12
5.50215E-09 3.88192E-12
5.83057E-09 3.69050E-12
6.16850E-09 3.51274E-12
6.51596E-09 3.32820E-12
6.87293E-09 3.15630E-12
7.23942E-09 2.99682E-12
7.61544E-09 2.84875E-12
1.18991E-08 1.67785E-12
1.71347E-08 1.01011E-12
2.33223E-08 6.30299E-13
3.04617E-08 4.11823E-13
3.85531E-08 2.81514E-13
4.75965E-08 2.00691E-13
5.75917E-08 1.48291E-13
6.85389E-08 1.12876E-13
8.04380E-08 8.79865E-14
9.32891E-08 6.99219E-14
1.07092E-07 5.64077E-14
1.21847E-07 4.60754E-14
1.37554E-07 3.79395E-14
1.54213E-07 3.15816E-14
1.71823E-07 2.64759E-14
1.90386E-07 2.23091E-14
2.09900E-07 1.89384E-14
2.30367E-07 1.61354E-14
2.51785E-07 1.38206E-14
2.74156E-07 1.19022E-14
2.97478E-07 1.02773E-14
3.21752E-07 8.92024E-15
3.46978E-07 7.77176E-15
3.73156E-07 6.79453E-15
4.00286E-07 5.96534E-15
4.28368E-07 5.25321E-15
4.57402E-07 4.64279E-15
4.87388E-07 4.11777E-15
5.18325E-07 3.66215E-15
5.50215E-07 3.26788E-15
5.83057E-07 2.92453E-15
6.16850E-07 2.62451E-15
6.51596E-07 2.36204E-15
6.87293E-07 2.13116E-15
7.23942E-07 1.92781E-15
7.61543E-07 1.74821E-15
1.18991E-06 7.36830E-16
1.71347E-06 3.64071E-16
2.33223E-06 2.00703E-16
3.04617E-06 1.19729E-16
3.85531E-06 7.58054E-17
4.75964E-06 5.02913E-17
5.75916E-06 3.46496E-17
6.85388E-06 2.46318E-17
8.04378E-06 1.79787E-17
9.32888E-06 1.34227E-17
1.07092E-05 1.02196E-17
1.21846E-05 7.91547E-18
1.37553E-05 6.22429E-18
1.54212E-05 4.96089E-18
1.71822E-05 4.00181E-18
1.90385E-05 3.26330E-18
2.09899E-05 2.68751E-18
2.30365E-05 2.23313E-18
2.51783E-05 1.87072E-18
2.74153E-05 1.57884E-18
2.97475E-05 1.34166E-18
3.21749E-05 1.14737E-18
3.46974E-05 9.86989E-19
3.73152E-05 8.53674E-19
4.00281E-05 7.42125E-19
4.28362E-05 6.48211E-19
4.57395E-05 5.68690E-19
4.87380E-05 5.00992E-19
5.18317E-05 4.43069E-19
5.50205E-05 3.93277E-19
5.83045E-05 3.50285E-19
6.16838E-05 3.13010E-19
6.51582E-05 2.80565E-19
6.87277E-05 2.52218E-19
7.23925E-05 2.27363E-19
7.61524E-05 2.05490E-19
9.21439E-05 1.40425E-19
1.09658E-04 9.91941E-20
1.28695E-04 7.20478E-20
1.49255E-04 5.35826E-20
1.71338E-04 4.06735E-20
1.94942E-04 3.14292E-20
2.20070E-04 2.46692E-20
2.46720E-04 1.96335E-20
2.74892E-04 1.58200E-20
3.04586E-04 1.28895E-20
3.35803E-04 1.06075E-20
3.68542E-04 8.80911E-21
4.02802E-04 7.37639E-21
4.38585E-04 6.22360E-21
4.75889E-04 5.28760E-21
5.14715E-04 4.52121E-21
5.55063E-04 3.88887E-21
5.96931E-04 3.36337E-21
6.40321E-04 2.92377E-21
6.85233E-04 2.55375E-21
7.31665E-04 2.24049E-21
7.79618E-04 1.97386E-21
8.29092E-04 1.74577E-21
8.80086E-04 1.54971E-21
9.32601E-04 1.38045E-21
9.86636E-04 1.23369E-21
1.04219E-03 1.10594E-21
1.09927E-03 9.94318E-22
1.15786E-03 8.96443E-22
1.21797E-03 8.10330E-22
1.27961E-03 7.34321E-22
1.34276E-03 6.67027E-22
1.40743E-03 6.07275E-22
1.47362E-03 5.54072E-22
1.54133E-03 5.06575E-22
1.61056E-03 4.64065E-22
1.68131E-03 4.25926E-22
1.75357E-03 3.91630E-22
1.82735E-03 3.60720E-22
1.90265E-03 3.32804E-22
1.97947E-03 3.07539E-22
2.05780E-03 2.84629E-22
2.13765E-03 2.63815E-22
2.21902E-03 2.44872E-22
2.30190E-03 2.27600E-22
2.38630E-03 2.11826E-22
2.47222E-03 1.97397E-22
2.55965E-03 1.84177E-22
2.64859E-03 1.72046E-22
2.73905E-03 1.60899E-22
2.83103E-03 1.50642E-22
2.92452E-03 1.41189E-22
3.01952E-03 1.32468E-22
3.11604E-03 1.24410E-22
3.21407E-03 1.16956E-22
3.31362E-03 1.10053E-22
3.41468E-03 1.03652E-22
3.51725E-03 9.77105E-23
3.62133E-03 9.21890E-23
3.72692E-03 8.70525E-23
3.83403E-03 8.22692E-23
3.94265E-03 7.78103E-23
4.05278E-03 7.36497E-23
4.16442E-03 6.97638E-23
4.27757E-03 6.61311E-23
4.39223E-03 6.27321E-23
4.50840E-03 5.95489E-23
4.62608E-03 5.65652E-23
4.74527E-03 5.37663E-23
4.86597E-03 5.11386E-23
4.98817E-03 4.86696E-23
5.11188E-03 4.63480E-23
5.23711E-03 4.41633E-23
5.36383E-03 4.21060E-23
5.49207E-03 4.01671E-23
5.62181E-03 3.83388E-23
5.75306E-03 3.66133E-23
5.88581E-03 3.49840E-23
6.02007E-03 3.34443E-23
6.15583E-03 3.19885E-23
6.29310E-03 3.06112E-23
6.43187E-03 2.93072E-23
6.57214E-03 2.80720E-23
6.71392E-03 2.69013E-23
6.85720E-03 2.57910E-23
7.00198E-03 2.47374E-23
7.14827E-03 2.37371E-23
7.29605E-03 2.27870E-23
7.44534E-03 2.18839E-23
7.59612E-03 2.10252E-23
7.97965E-03 1.90557E-23
8.37255E-03 1.73117E-23
8.77480E-03 1.57628E-23
9.18641E-03 1.43834E-23
9.60736E-03 1.31518E-23
1.00376E-02 1.20492E-23
1.04773E-02 1.10598E-23
1.09262E-02 1.01700E-23
1.13844E-02 9.36788E-24
1.18520E-02 8.64332E-24
1.23288E-02 7.98749E-24
1.28150E-02 7.39269E-24
1.33104E-02 6.85223E-24
1.38150E-02 6.36027E-24
1.43290E-02 5.91166E-24
1.48521E-02 5.50189E-24
1.53845E-02 5.12701E-24
1.59262E-02 4.78350E-24
1.64770E-02 4.46827E-24
1.70371E-02 4.17856E-24
1.76063E-02 3.91193E-24
1.81848E-02 3.66621E-24
1.87724E-02 3.43946E-24
1.93692E-02 3.22995E-24
1.99751E-02 3.03614E-24
2.05901E-02 2.85662E-24
2.12143E-02 2.69015E-24
2.18476E-02 2.53562E-24
2.24900E-02 2.39200E-24
2.31415E-02 2.25839E-24
2.38021E-02 2.13395E-24
2.44717E-02 2.01795E-24
2.51504E-02 1.90971E-24
2.58382E-02 1.80861E-24
2.65349E-02 1.71409E-24
2.72407E-02 1.62565E-24
2.79555E-02 1.54282E-24
2.86793E-02 1.46519E-24
2.94120E-02 1.39236E-24
3.01537E-02 1.32398E-24
3.09043E-02 1.25973E-24
3.16639E-02 1.19932E-24
3.24324E-02 1.14247E-24
3.32098E-02 1.08894E-24
3.39961E-02 1.03849E-24
3.47912E-02 9.90913E-25
3.55952E-02 9.46018E-25
3.64081E-02 9.03624E-25
3.72297E-02 8.63565E-25
3.80602E-02 8.25691E-25
3.88995E-02 7.89858E-25
3.97476E-02 7.55936E-25
4.06044E-02 7.23805E-25
4.14700E-02 6.93353E-25
4.23443E-02 6.64474E-25
4.32273E-02 6.37074E-25
4.41190E-02 6.11062E-25
4.50194E-02 5.86354E-25
4.59284E-02 5.62873E-25
4.68461E-02 5.40547E-25
4.87074E-02 4.99095E-25
5.06030E-02 4.61509E-25
5.25328E-02 4.27366E-25
5.44967E-02 3.96296E-25
5.64946E-02 3.67972E-25
5.85262E-02 3.42109E-25
6.05914E-02 3.18456E-25
6.26901E-02 2.96790E-25
6.48222E-02 2.76915E-25
6.69873E-02 2.58656E-25
6.91854E-02 2.41860E-25
7.14163E-02 2.26387E-25
7.36799E-02 2.12115E-25
7.59760E-02 1.98935E-25
7.83043E-02 1.86747E-25
8.06647E-02 1.75465E-25
8.30571E-02 1.65008E-25
8.54812E-02 1.55306E-25
8.79369E-02 1.46295E-25
9.04240E-02 1.37916E-25
9.29422E-02 1.30118E-25
9.54915E-02 1.22853E-25
9.80716E-02 1.16078E-25
1.00682E-01 1.09754E-25
1.03323E-01 1.03846E-25
1.05995E-01 9.83219E-26
1.08696E-01 9.31520E-26
1.11427E-01 8.83097E-26
1.14188E-01 8.37706E-26
1.16978E-01 7.95124E-26
1.19797E-01 7.55145E-26
1.22645E-01 7.17584E-26
1.25522E-01 6.82267E-26
1.28428E-01 6.49038E-26
1.31361E-01 6.17752E-26
1.34323E-01 5.88274E-26
1.37313E-01 5.60482E-26
1.40330E-01 5.34263E-26
1.43375E-01 5.09512E-26
1.46447E-01 4.86133E-26
1.49545E-01 4.64036E-26
1.52671E-01 4.43139E-26
1.55823E-01 4.23365E-26
1.59001E-01 4.04644E-26
1.62205E-01 3.86909E-26
1.65435E-01 3.70101E-26
1.68690E-01 3.54161E-26
1.71970E-01 3.39038E-26
1.75276E-01 3.24683E-26
1.78606E-01 3.11049E-26
1.81961E-01 2.98095E-26
1.85340E-01 2.85780E-26
1.88743E-01 2.74068E-26
1.92169E-01 2.62925E-26
1.95619E-01 2.52317E-26
1.99092E-01 2.42215E-26
2.02589E-01 2.32591E-26
2.06107E-01 2.23418E-26
2.09649E-01 2.14672E-26
2.13212E-01 2.06329E-26
2.16797E-01 1.98367E-26
2.20404E-01 1.90767E-26
2.24032E-01 1.83509E-26
2.27680E-01 1.76575E-26
2.31350E-01 1.69948E-26
2.35040E-01 1.63613E-26
2.38751E-01 1.57555E-26
2.42481E-01 1.51758E-26
2.46231E-01 1.46211E-26
2.50000E-01 1.40901E-26
2.53788E-01 1.35816E-26
2.57595E-01 1.30945E-26
2.61421E-01 1.26277E-26
2.65264E-01 1.21802E-26
2.69126E-01 1.17512E-26
2.73005E-01 1.13398E-26
2.76901E-01 1.09450E-26
2.80814E-01 1.05662E-26
2.84744E-01 1.02026E-26
2.88691E-01 9.85339E-27
2.92653E-01 9.51802E-27
2.96632E-01 9.19584E-27
3.00625E-01 8.88622E-27
3.04634E-01 8.58862E-27
3.08658E-01 8.30249E-27
3.12697E-01 8.02731E-27
3.16749E-01 7.76261E-27
3.20816E-01 7.50792E-27
3.24896E-01 7.26281E-27
3.28990E-01 7.02686E-27
3.33097E-01 6.79968E-27
3.37216E-01 6.58088E-27
3.41348E-01 6.37012E-27
3.45492E-01 6.16705E-27
3.49647E-01 5.97136E-27
3.53814E-01 5.78272E-27
3.57992E-01 5.60086E-27
3.62181E-01 5.42549E-27
3.66381E-01 5.25634E-27
3.70590E-01 5.09316E-27
3.74810E-01 4.93571E-27
3.79039E-01 4.78376E-27
3.83277E-01 4.63708E-27
3.87524E-01 4.49548E-27
3.91780E-01 4.35874E-27
3.96044E-01 4.22668E-27
4.00316E-01 4.09911E-27
4.04596E-01 3.97586E-27
4.08882E-01 3.85676E-27
4.13176E-01 3.74165E-27
4.17476E-01 3.63038E-27
4.21783E-01 3.52280E-27
4.26095E-01 3.41877E-27
4.30413E-01 3.31817E-27
4.34737E-01 3.22085E-27
4.39065E-01 3.12670E-27
4.43398E-01 3.03561E-27
4.47736E-01 2.94745E-27
4.52077E-01 2.86212E-27
4.56422E-01 2.77952E-27
4.60770E-01 2.69955E-27
4.65122E-01 2.62212E-27
4.69476E-01 2.54712E-27
4.73832E-01 2.47448E-27
4.78190E-01 2.40412E-27
4.82550E-01 2.33594E-27
4.86912E-01 2.26987E-27
4.91274E-01 2.20585E-27
4.95637E-01 2.14380E-27
5.00000E-01 2.08364E-27
5.04363E-01 2.02532E-27
5.08726E-01 1.96877E-27
5.13088E-01 1.91393E-27
5.17450E-01 1.86074E-27
5.21810E-01 1.80915E-27
5.26168E-01 1.75910E-27
5.30524E-01 1.71054E-27
5.34878E-01 1.66343E-27
5.39230E-01 1.61770E-27
5.43578E-01 1.57332E-27
5.47923E-01 1.53024E-27
5.52264E-01 1.48842E-27
5.56602E-01 1.44782E-27
5.60935E-01 1.40840E-27
5.65263E-01 1.37012E-27
5.69587E-01 1.33294E-27
5.73905E-01 1.29682E-27
5.78217E-01 1.26174E-27
5.82524E-01 1.22766E-27
5.86824E-01 1.19455E-27
5.91118E-01 1.16237E-27
5.95404E-01 1.13111E-27
5.99684E-01 1.10072E-27
6.03956E-01 1.07118E-27
6.08220E-01 1.04247E-27
6.12476E-01 1.01456E-27
6.16723E-01 9.87426E-28
6.20961E-01 9.61041E-28
6.25190E-01 9.35385E-28
6.29410E-01 9.10433E-28
6.33619E-01 8.86167E-28
6.37819E-01 8.62563E-28
6.42008E-01 8.39603E-28
6.46186E-01 8.17267E-28
6.50353E-01 7.95536E-28
6.54508E-01 7.74392E-28
6.58652E-01 7.53818E-28
6.62784E-01 7.33797E-28
6.66903E-01 7.14312E-28
6.71010E-01 6.95348E-28
6.75104E-01 6.76889E-28
6.79184E-01 6.58921E-28
6.83251E-01 6.41428E-28
6.87303E-01 6.24399E-28
6.91342E-01 6.07818E-28
6.95366E-01 5.91673E-28
6.99375E-01 5.75952E-28
7.03368E-01 5.60642E-28
7.07347E-01 5.45732E-28
7.11309E-01 5.31210E-28
7.15256E-01 5.17065E-28
7.19186E-01 5.03287E-28
7.23099E-01 4.89865E-28
7.26995E-01 4.76789E-28
7.30874E-01 4.64050E-28
7.34736E-01 4.51638E-28
7.38579E-01 4.39544E-28
7.42405E-01 4.27760E-28
7.46212E-01 4.16276E-28
7.50000E-01 4.05085E-28
7.53769E-01 3.94178E-28
7.57519E-01 3.83548E-28
7.61249E-01 3.73187E-28
7.64960E-01 3.63088E-28
7.68650E-01 3.53243E-28
7.72320E-01 3.43647E-28
7.75968E-01 3.34291E-28
7.79596E-01 3.25171E-28
7.83203E-01 3.16279E-28
7.86788E-01 3.07609E-28
7.90351E-01 2.99156E-28
7.93893E-01 2.90913E-28
7.97411E-01 2.82876E-28
8.00908E-01 2.75039E-28
8.04381E-01 2.67396E-28
8.07831E-01 2.59943E-28
8.11257E-01 2.52674E-28
8.14660E-01 2.45586E-28
8.18039E-01 2.38672E-28
8.21394E-01 2.31929E-28
8.24724E-01 2.25352E-28
8.28030E-01 2.18938E-28
8.31310E-01 2.12681E-28
8.34565E-01 2.06579E-28
8.37795E-01 2.00626E-28
8.40999E-01 1.94819E-28
8.44177E-01 1.89155E-28
8.47329E-01 1.83631E-28
8.50455E-01 1.78241E-28
8.53553E-01 1.72984E-28
8.56625E-01 1.67856E-28
8.59670E-01 1.62853E-28
8.62687E-01 1.57973E-28
8.65677E-01 1.53213E-28
8.68639E-01 1.48570E-28
8.71572E-01 1.44040E-28
8.74478E-01 1.39622E-28
8.77355E-01 1.35312E-28
8.80203E-01 1.31108E-28
8.83022E-01 1.27007E-28
8.85812E-01 1.23007E-28
8.88573E-01 1.19106E-28
8.91304E-01 1.15301E-28
8.94005E-01 1.11590E-28
8.96677E-01 1.07971E-28
8.99318E-01 1.04441E-28
9.01928E-01 1.00999E-28
9.04508E-01 9.76425E-29
9.07058E-01 9.43697E-29
9.09576E-01 9.11786E-29
9.12063E-01 8.80674E-29
9.14519E-01 8.50343E-29
9.16943E-01 8.20776E-29
9.19335E-01 7.91955E-29
9.21696E-01 7.63864E-29
9.24024E-01 7.36488E-29
9.26320E-01 7.09810E-29
9.28584E-01 6.83816E-29
9.30815E-01 6.58491E-29
9.33013E-01 6.33821E-29
9.35178E-01 6.09791E-29
9.37310E-01 5.86389E-29
9.39409E-01 5.63602E-29
9.41474E-01 5.41417E-29
9.43505E-01 5.19821E-29
9.45503E-01 4.98802E-29
9.47467E-01 4.78350E-29
9.49397E-01 4.58452E-29
9.51293E-01 4.39098E-29
9.53154E-01 4.20278E-29
9.54981E-01 4.01980E-29
9.56773E-01 3.84196E-29
9.58530E-01 3.66915E-29
9.60252E-01 3.50128E-29
9.61940E-01 3.33826E-29
9.63592E-01 3.18000E-29
9.65209E-01 3.02641E-29
9.66790E-01 2.87742E-29
9.68336E-01 2.73295E-29
9.69846E-01 2.59291E-29
9.71321E-01 2.45723E-29
9.72759E-01 2.32584E-29
9.74162E-01 2.19868E-29
9.75528E-01 2.07566E-29
9.76858E-01 1.95673E-29
9.78152E-01 1.84183E-29
9.79410E-01 1.73089E-29
9.80631E-01 1.62385E-29
9.81815E-01 1.52066E-29
9.82963E-01 1.42127E-29
9.84074E-01 1.32562E-29
9.85148E-01 1.23366E-29
9.86185E-01 1.14535E-29
9.87185E-01 1.06063E-29
9.88148E-01 9.79471E-30
9.89074E-01 9.01820E-30
9.89962E-01 8.27640E-30
9.90814E-01 7.56892E-30
9.91627E-01 6.89540E-30
9.92404E-01 6.25549E-30
9.93143E-01 5.64886E-30
9.93844E-01 5.07519E-30
9.94508E-01 4.53418E-30
9.95134E-01 4.02556E-30
9.95722E-01 3.54906E-30
9.96273E-01 3.10445E-30
9.96786E-01 2.69148E-30
9.97261E-01 2.30994E-30
9.97698E-01 1.95965E-30
9.98097E-01 1.64042E-30
9.98459E-01 1.35208E-30
9.98782E-01 1.09449E-30
9.99067E-01 8.67513E-31
9.99315E-01 6.71035E-31
9.99524E-01 5.04955E-31
9.99695E-01 3.69188E-31
9.99829E-01 2.63663E-31
9.99924E-01 1.88327E-31
9.99981E-01 1.43140E-31
1.00000E+00 1.28081E-31
