 #
 # Subroutine ELSEPA. Elastic scattering of electrons and positrons
 #                    by neutral atoms and positive ions
 #
 # Projectile: electron
 # Kinetic energy = 1.25000E+07 eV = 4.59367E+05 a.u.
 #
 # WARNING: High-energy factorization with free-atom DF screening.
 #          Absorption, polarization and exchange corrections are
 #          switched off.
 #          Phase shifts are calculated for the bare nucleus.
 #          Scattering amplitudes are not evaluated.
 #
 # Element: Cl,  Z =  17,  atomic weight = 3.54527E+01 g/mol
 #
 # Nuclear model: Fermi distribution
 #                Average radius = 3.51507E-13 cm
 #                Skin thickness = 5.46000E-14 cm
 #
 # Number of electrons = 17
 #
 # Total elastic cross section = 1.10227E-18 cm**2 = 3.93626E-02 a0**2
 # 1st transport cross section = 3.05065E-24 cm**2 = 1.08941E-07 a0**2
 # 2nd transport cross section = 8.77446E-24 cm**2 = 3.13342E-07 a0**2
 #
 #
 # Differential cross section:                       MU=(1-COS(THETA))/2
 #
 #  THETA        MU          DCS          DCS        Sherman      error
 #  (deg)                 (cm**2/sr)   (a0**2/sr)    function
 #----------------------------------------------------------------------
0.00000E+00 1.52564E-12
7.61557E-13 1.52559E-12
1.18994E-12 1.52557E-12
1.71346E-12 1.52555E-12
2.33225E-12 1.52551E-12
3.04617E-12 1.52548E-12
3.85530E-12 1.52544E-12
4.75964E-12 1.52539E-12
5.75917E-12 1.52534E-12
6.85391E-12 1.52529E-12
8.04379E-12 1.52523E-12
9.32893E-12 1.52516E-12
1.07092E-11 1.52509E-12
1.21847E-11 1.52502E-12
1.37554E-11 1.52494E-12
1.54213E-11 1.52486E-12
1.71823E-11 1.52477E-12
1.90386E-11 1.52467E-12
2.09900E-11 1.52458E-12
2.30367E-11 1.52447E-12
2.51785E-11 1.52437E-12
2.74156E-11 1.52426E-12
2.97478E-11 1.52414E-12
3.21752E-11 1.52402E-12
3.46979E-11 1.52389E-12
3.73157E-11 1.52376E-12
4.00286E-11 1.52363E-12
4.28368E-11 1.52349E-12
4.57402E-11 1.52334E-12
4.87388E-11 1.52319E-12
5.18325E-11 1.52304E-12
5.50215E-11 1.52288E-12
5.83057E-11 1.52272E-12
6.16850E-11 1.52255E-12
6.51595E-11 1.52238E-12
6.87293E-11 1.52220E-12
7.23943E-11 1.52202E-12
7.61544E-11 1.52183E-12
1.18991E-10 1.51971E-12
1.71347E-10 1.51712E-12
2.33223E-10 1.51407E-12
3.04617E-10 1.51057E-12
3.85531E-10 1.50661E-12
4.75965E-10 1.50220E-12
5.75917E-10 1.49736E-12
6.85389E-10 1.49207E-12
8.04380E-10 1.48636E-12
9.32891E-10 1.48022E-12
1.07092E-09 1.47367E-12
1.21847E-09 1.46672E-12
1.37554E-09 1.45936E-12
1.54213E-09 1.45162E-12
1.71823E-09 1.44349E-12
1.90386E-09 1.43500E-12
2.09900E-09 1.42615E-12
2.30367E-09 1.41695E-12
2.51785E-09 1.40741E-12
2.74156E-09 1.39754E-12
2.97478E-09 1.38734E-12
3.21752E-09 1.37684E-12
3.46978E-09 1.36605E-12
3.73156E-09 1.35497E-12
4.00286E-09 1.34363E-12
4.28368E-09 1.33202E-12
4.57402E-09 1.32017E-12
4.87388E-09 1.30809E-12
5.18326E-09 1.29579E-12
5.50215E-09 1.28328E-12
5.83057E-09 1.27058E-12
6.16850E-09 1.25767E-12
6.51596E-09 1.24458E-12
6.87293E-09 1.23134E-12
7.23942E-09 1.21795E-12
7.61544E-09 1.20442E-12
1.18991E-08 1.06059E-12
1.71347E-08 9.18392E-13
2.33223E-08 7.82932E-13
3.04617E-08 6.59329E-13
3.85531E-08 5.50178E-13
4.75965E-08 4.56179E-13
5.75917E-08 3.76763E-13
6.85389E-08 3.10471E-13
8.04380E-08 2.55707E-13
9.32891E-08 2.11051E-13
1.07092E-07 1.74770E-13
1.21847E-07 1.45341E-13
1.37554E-07 1.21468E-13
1.54213E-07 1.02076E-13
1.71823E-07 8.62848E-14
1.90386E-07 7.33823E-14
2.09900E-07 6.27979E-14
2.30367E-07 5.40755E-14
2.51785E-07 4.68475E-14
2.74156E-07 4.08280E-14
2.97478E-07 3.57883E-14
3.21752E-07 3.15448E-14
3.46978E-07 2.79502E-14
3.73156E-07 2.48873E-14
4.00286E-07 2.22621E-14
4.28368E-07 1.99993E-14
4.57402E-07 1.80381E-14
4.87388E-07 1.63293E-14
5.18325E-07 1.48328E-14
5.50215E-07 1.35160E-14
5.83057E-07 1.23519E-14
6.16850E-07 1.13176E-14
6.51596E-07 1.03953E-14
6.87293E-07 9.56975E-15
7.23942E-07 8.82809E-15
7.61543E-07 8.15953E-15
1.18991E-06 4.01160E-15
1.71347E-06 2.17726E-15
2.33223E-06 1.26245E-15
3.04617E-06 7.71576E-16
3.85531E-06 4.94503E-16
4.75964E-06 3.30290E-16
5.75916E-06 2.28644E-16
6.85388E-06 1.63267E-16
8.04378E-06 1.19753E-16
9.32888E-06 8.98919E-17
1.07092E-05 6.88390E-17
1.21846E-05 5.36437E-17
1.37553E-05 4.24451E-17
1.54212E-05 3.40377E-17
1.71822E-05 2.76220E-17
1.90385E-05 2.26543E-17
2.09899E-05 1.87595E-17
2.30365E-05 1.56679E-17
2.51783E-05 1.31883E-17
2.74153E-05 1.11805E-17
2.97475E-05 9.54024E-18
3.21749E-05 8.18975E-18
3.46974E-05 7.06975E-18
3.73152E-05 6.13459E-18
4.00281E-05 5.34872E-18
4.28362E-05 4.68452E-18
4.57395E-05 4.12005E-18
4.87380E-05 3.63784E-18
5.18317E-05 3.22393E-18
5.50205E-05 2.86708E-18
5.83045E-05 2.55812E-18
6.16838E-05 2.28955E-18
6.51582E-05 2.05524E-18
6.87277E-05 1.85007E-18
7.23925E-05 1.66981E-18
7.61524E-05 1.51092E-18
9.21439E-05 1.03634E-18
1.09658E-04 7.34029E-19
1.28695E-04 5.34203E-19
1.49255E-04 3.97903E-19
1.71338E-04 3.02396E-19
1.94942E-04 2.33878E-19
2.20070E-04 1.83703E-19
2.46720E-04 1.46286E-19
2.74892E-04 1.17925E-19
3.04586E-04 9.61158E-20
3.35803E-04 7.91227E-20
3.68542E-04 6.57247E-20
4.02802E-04 5.50467E-20
4.38585E-04 4.64522E-20
4.75889E-04 3.94721E-20
5.14715E-04 3.37555E-20
5.55063E-04 2.90377E-20
5.96931E-04 2.51165E-20
6.40321E-04 2.18358E-20
6.85233E-04 1.90739E-20
7.31665E-04 1.67355E-20
7.79618E-04 1.47449E-20
8.29092E-04 1.30419E-20
8.80086E-04 1.15780E-20
9.32601E-04 1.03140E-20
9.86636E-04 9.21795E-21
1.04219E-03 8.26369E-21
1.09927E-03 7.42987E-21
1.15786E-03 6.69871E-21
1.21797E-03 6.05541E-21
1.27961E-03 5.48759E-21
1.34276E-03 4.98486E-21
1.40743E-03 4.53847E-21
1.47362E-03 4.14099E-21
1.54133E-03 3.78614E-21
1.61056E-03 3.46855E-21
1.68131E-03 3.18360E-21
1.75357E-03 2.92736E-21
1.82735E-03 2.69642E-21
1.90265E-03 2.48783E-21
1.97947E-03 2.29906E-21
2.05780E-03 2.12788E-21
2.13765E-03 1.97235E-21
2.21902E-03 1.83080E-21
2.30190E-03 1.70174E-21
2.38630E-03 1.58387E-21
2.47222E-03 1.47605E-21
2.55965E-03 1.37726E-21
2.64859E-03 1.28660E-21
2.73905E-03 1.20330E-21
2.83103E-03 1.12664E-21
2.92452E-03 1.05600E-21
3.01952E-03 9.90814E-22
3.11604E-03 9.30591E-22
3.21407E-03 8.74882E-22
3.31362E-03 8.23286E-22
3.41468E-03 7.75444E-22
3.51725E-03 7.31032E-22
3.62133E-03 6.89760E-22
3.72692E-03 6.51365E-22
3.83403E-03 6.15609E-22
3.94265E-03 5.82276E-22
4.05278E-03 5.51174E-22
4.16442E-03 5.22123E-22
4.27757E-03 4.94965E-22
4.39223E-03 4.69553E-22
4.50840E-03 4.45754E-22
4.62608E-03 4.23446E-22
4.74527E-03 4.02519E-22
4.86597E-03 3.82871E-22
4.98817E-03 3.64410E-22
5.11188E-03 3.47050E-22
5.23711E-03 3.30713E-22
5.36383E-03 3.15328E-22
5.49207E-03 3.00829E-22
5.62181E-03 2.87155E-22
5.75306E-03 2.74251E-22
5.88581E-03 2.62065E-22
6.02007E-03 2.50549E-22
6.15583E-03 2.39661E-22
6.29310E-03 2.29358E-22
6.43187E-03 2.19605E-22
6.57214E-03 2.10365E-22
6.71392E-03 2.01607E-22
6.85720E-03 1.93301E-22
7.00198E-03 1.85419E-22
7.14827E-03 1.77935E-22
7.29605E-03 1.70826E-22
7.44534E-03 1.64070E-22
7.59612E-03 1.57644E-22
7.97965E-03 1.42907E-22
8.37255E-03 1.29855E-22
8.77480E-03 1.18263E-22
9.18641E-03 1.07938E-22
9.60736E-03 9.87179E-23
1.00376E-02 9.04632E-23
1.04773E-02 8.30551E-23
1.09262E-02 7.63914E-23
1.13844E-02 7.03840E-23
1.18520E-02 6.49568E-23
1.23288E-02 6.00437E-23
1.28150E-02 5.55872E-23
1.33104E-02 5.15374E-23
1.38150E-02 4.78505E-23
1.43290E-02 4.44880E-23
1.48521E-02 4.14162E-23
1.53845E-02 3.86056E-23
1.59262E-02 3.60297E-23
1.64770E-02 3.36656E-23
1.70371E-02 3.14925E-23
1.76063E-02 2.94923E-23
1.81848E-02 2.76486E-23
1.87724E-02 2.59470E-23
1.93692E-02 2.43745E-23
1.99751E-02 2.29196E-23
2.05901E-02 2.15718E-23
2.12143E-02 2.03217E-23
2.18476E-02 1.91611E-23
2.24900E-02 1.80822E-23
2.31415E-02 1.70783E-23
2.38021E-02 1.61432E-23
2.44717E-02 1.52714E-23
2.51504E-02 1.44577E-23
2.58382E-02 1.36975E-23
2.65349E-02 1.29867E-23
2.72407E-02 1.23214E-23
2.79555E-02 1.16983E-23
2.86793E-02 1.11141E-23
2.94120E-02 1.05659E-23
3.01537E-02 1.00512E-23
3.09043E-02 9.56745E-24
3.16639E-02 9.11248E-24
3.24324E-02 8.68425E-24
3.32098E-02 8.28090E-24
3.39961E-02 7.90070E-24
3.47912E-02 7.54209E-24
3.55952E-02 7.20360E-24
3.64081E-02 6.88390E-24
3.72297E-02 6.58174E-24
3.80602E-02 6.29598E-24
3.88995E-02 6.02556E-24
3.97476E-02 5.76951E-24
4.06044E-02 5.52691E-24
4.14700E-02 5.29693E-24
4.23443E-02 5.07878E-24
4.32273E-02 4.87174E-24
4.41190E-02 4.67515E-24
4.50194E-02 4.48836E-24
4.59284E-02 4.31080E-24
4.68461E-02 4.14193E-24
4.87074E-02 3.82826E-24
5.06030E-02 3.54370E-24
5.25328E-02 3.28506E-24
5.44967E-02 3.04956E-24
5.64946E-02 2.83475E-24
5.85262E-02 2.63850E-24
6.05914E-02 2.45889E-24
6.26901E-02 2.29428E-24
6.48222E-02 2.14318E-24
6.69873E-02 2.00428E-24
6.91854E-02 1.87641E-24
7.14163E-02 1.75855E-24
7.36799E-02 1.64976E-24
7.59760E-02 1.54922E-24
7.83043E-02 1.45619E-24
8.06647E-02 1.37001E-24
8.30571E-02 1.29008E-24
8.54812E-02 1.21586E-24
8.79369E-02 1.14688E-24
9.04240E-02 1.08269E-24
9.29422E-02 1.02290E-24
9.54915E-02 9.67148E-25
9.80716E-02 9.15120E-25
1.00682E-01 8.66518E-25
1.03323E-01 8.21075E-25
1.05995E-01 7.78548E-25
1.08696E-01 7.38715E-25
1.11427E-01 7.01374E-25
1.14188E-01 6.66341E-25
1.16978E-01 6.33447E-25
1.19797E-01 6.02537E-25
1.22645E-01 5.73469E-25
1.25522E-01 5.46113E-25
1.28428E-01 5.20351E-25
1.31361E-01 4.96071E-25
1.34323E-01 4.73173E-25
1.37313E-01 4.51564E-25
1.40330E-01 4.31158E-25
1.43375E-01 4.11876E-25
1.46447E-01 3.93643E-25
1.49545E-01 3.76394E-25
1.52671E-01 3.60064E-25
1.55823E-01 3.44596E-25
1.59001E-01 3.29935E-25
1.62205E-01 3.16033E-25
1.65435E-01 3.02842E-25
1.68690E-01 2.90320E-25
1.71970E-01 2.78426E-25
1.75276E-01 2.67123E-25
1.78606E-01 2.56376E-25
1.81961E-01 2.46153E-25
1.85340E-01 2.36424E-25
1.88743E-01 2.27160E-25
1.92169E-01 2.18335E-25
1.95619E-01 2.09924E-25
1.99092E-01 2.01905E-25
2.02589E-01 1.94256E-25
2.06107E-01 1.86956E-25
2.09649E-01 1.79987E-25
2.13212E-01 1.73332E-25
2.16797E-01 1.66972E-25
2.20404E-01 1.60893E-25
2.24032E-01 1.55081E-25
2.27680E-01 1.49521E-25
2.31350E-01 1.44200E-25
2.35040E-01 1.39106E-25
2.38751E-01 1.34228E-25
2.42481E-01 1.29555E-25
2.46231E-01 1.25077E-25
2.50000E-01 1.20784E-25
2.53788E-01 1.16668E-25
2.57595E-01 1.12718E-25
2.61421E-01 1.08929E-25
2.65264E-01 1.05291E-25
2.69126E-01 1.01798E-25
2.73005E-01 9.84428E-26
2.76901E-01 9.52193E-26
2.80814E-01 9.21212E-26
2.84744E-01 8.91427E-26
2.88691E-01 8.62785E-26
2.92653E-01 8.35234E-26
2.96632E-01 8.08724E-26
3.00625E-01 7.83209E-26
3.04634E-01 7.58645E-26
3.08658E-01 7.34991E-26
3.12697E-01 7.12206E-26
3.16749E-01 6.90253E-26
3.20816E-01 6.69097E-26
3.24896E-01 6.48703E-26
3.28990E-01 6.29038E-26
3.33097E-01 6.10073E-26
3.37216E-01 5.91778E-26
3.41348E-01 5.74125E-26
3.45492E-01 5.57087E-26
3.49647E-01 5.40640E-26
3.53814E-01 5.24759E-26
3.57992E-01 5.09422E-26
3.62181E-01 4.94606E-26
3.66381E-01 4.80290E-26
3.70590E-01 4.66456E-26
3.74810E-01 4.53083E-26
3.79039E-01 4.40154E-26
3.83277E-01 4.27651E-26
3.87524E-01 4.15559E-26
3.91780E-01 4.03860E-26
3.96044E-01 3.92541E-26
4.00316E-01 3.81587E-26
4.04596E-01 3.70983E-26
4.08882E-01 3.60718E-26
4.13176E-01 3.50777E-26
4.17476E-01 3.41150E-26
4.21783E-01 3.31824E-26
4.26095E-01 3.22788E-26
4.30413E-01 3.14033E-26
4.34737E-01 3.05547E-26
4.39065E-01 2.97322E-26
4.43398E-01 2.89347E-26
4.47736E-01 2.81614E-26
4.52077E-01 2.74114E-26
4.56422E-01 2.66840E-26
4.60770E-01 2.59782E-26
4.65122E-01 2.52934E-26
4.69476E-01 2.46289E-26
4.73832E-01 2.39839E-26
4.78190E-01 2.33577E-26
4.82550E-01 2.27498E-26
4.86912E-01 2.21595E-26
4.91274E-01 2.15862E-26
4.95637E-01 2.10293E-26
5.00000E-01 2.04884E-26
5.04363E-01 1.99628E-26
5.08726E-01 1.94521E-26
5.13088E-01 1.89557E-26
5.17450E-01 1.84732E-26
5.21810E-01 1.80042E-26
5.26168E-01 1.75482E-26
5.30524E-01 1.71049E-26
5.34878E-01 1.66737E-26
5.39230E-01 1.62543E-26
5.43578E-01 1.58463E-26
5.47923E-01 1.54494E-26
5.52264E-01 1.50632E-26
5.56602E-01 1.46875E-26
5.60935E-01 1.43217E-26
5.65263E-01 1.39658E-26
5.69587E-01 1.36193E-26
5.73905E-01 1.32819E-26
5.78217E-01 1.29535E-26
5.82524E-01 1.26337E-26
5.86824E-01 1.23222E-26
5.91118E-01 1.20188E-26
5.95404E-01 1.17233E-26
5.99684E-01 1.14354E-26
6.03956E-01 1.11549E-26
6.08220E-01 1.08816E-26
6.12476E-01 1.06153E-26
6.16723E-01 1.03557E-26
6.20961E-01 1.01027E-26
6.25190E-01 9.85611E-27
6.29410E-01 9.61570E-27
6.33619E-01 9.38131E-27
6.37819E-01 9.15277E-27
6.42008E-01 8.92991E-27
6.46186E-01 8.71256E-27
6.50353E-01 8.50059E-27
6.54508E-01 8.29383E-27
6.58652E-01 8.09213E-27
6.62784E-01 7.89537E-27
6.66903E-01 7.70339E-27
6.71010E-01 7.51608E-27
6.75104E-01 7.33329E-27
6.79184E-01 7.15491E-27
6.83251E-01 6.98082E-27
6.87303E-01 6.81090E-27
6.91342E-01 6.64504E-27
6.95366E-01 6.48313E-27
6.99375E-01 6.32506E-27
7.03368E-01 6.17073E-27
7.07347E-01 6.02004E-27
7.11309E-01 5.87290E-27
7.15256E-01 5.72921E-27
7.19186E-01 5.58889E-27
7.23099E-01 5.45184E-27
7.26995E-01 5.31798E-27
7.30874E-01 5.18722E-27
7.34736E-01 5.05949E-27
7.38579E-01 4.93471E-27
7.42405E-01 4.81281E-27
7.46212E-01 4.69371E-27
7.50000E-01 4.57733E-27
7.53769E-01 4.46362E-27
7.57519E-01 4.35250E-27
7.61249E-01 4.24392E-27
7.64960E-01 4.13780E-27
7.68650E-01 4.03408E-27
7.72320E-01 3.93271E-27
7.75968E-01 3.83363E-27
7.79596E-01 3.73678E-27
7.83203E-01 3.64212E-27
7.86788E-01 3.54957E-27
7.90351E-01 3.45910E-27
7.93893E-01 3.37066E-27
7.97411E-01 3.28419E-27
8.00908E-01 3.19965E-27
8.04381E-01 3.11700E-27
8.07831E-01 3.03618E-27
8.11257E-01 2.95716E-27
8.14660E-01 2.87989E-27
8.18039E-01 2.80434E-27
8.21394E-01 2.73046E-27
8.24724E-01 2.65821E-27
8.28030E-01 2.58757E-27
8.31310E-01 2.51848E-27
8.34565E-01 2.45091E-27
8.37795E-01 2.38484E-27
8.40999E-01 2.32023E-27
8.44177E-01 2.25704E-27
8.47329E-01 2.19524E-27
8.50455E-01 2.13481E-27
8.53553E-01 2.07571E-27
8.56625E-01 2.01791E-27
8.59670E-01 1.96138E-27
8.62687E-01 1.90610E-27
8.65677E-01 1.85204E-27
8.68639E-01 1.79918E-27
8.71572E-01 1.74748E-27
8.74478E-01 1.69693E-27
8.77355E-01 1.64749E-27
8.80203E-01 1.59915E-27
8.83022E-01 1.55189E-27
8.85812E-01 1.50567E-27
8.88573E-01 1.46049E-27
8.91304E-01 1.41631E-27
8.94005E-01 1.37312E-27
8.96677E-01 1.33090E-27
8.99318E-01 1.28963E-27
9.01928E-01 1.24928E-27
9.04508E-01 1.20985E-27
9.07058E-01 1.17131E-27
9.09576E-01 1.13364E-27
9.12063E-01 1.09684E-27
9.14519E-01 1.06087E-27
9.16943E-01 1.02574E-27
9.19335E-01 9.91409E-28
9.21696E-01 9.57878E-28
9.24024E-01 9.25128E-28
9.26320E-01 8.93144E-28
9.28584E-01 8.61912E-28
9.30815E-01 8.31419E-28
9.33013E-01 8.01651E-28
9.35178E-01 7.72596E-28
9.37310E-01 7.44241E-28
9.39409E-01 7.16575E-28
9.41474E-01 6.89584E-28
9.43505E-01 6.63258E-28
9.45503E-01 6.37585E-28
9.47467E-01 6.12555E-28
9.49397E-01 5.88157E-28
9.51293E-01 5.64381E-28
9.53154E-01 5.41216E-28
9.54981E-01 5.18654E-28
9.56773E-01 4.96684E-28
9.58530E-01 4.75298E-28
9.60252E-01 4.54487E-28
9.61940E-01 4.34241E-28
9.63592E-01 4.14554E-28
9.65209E-01 3.95416E-28
9.66790E-01 3.76820E-28
9.68336E-01 3.58759E-28
9.69846E-01 3.41224E-28
9.71321E-01 3.24209E-28
9.72759E-01 3.07708E-28
9.74162E-01 2.91712E-28
9.75528E-01 2.76216E-28
9.76858E-01 2.61214E-28
9.78152E-01 2.46699E-28
9.79410E-01 2.32666E-28
9.80631E-01 2.19110E-28
9.81815E-01 2.06023E-28
9.82963E-01 1.93403E-28
9.84074E-01 1.81243E-28
9.85148E-01 1.69538E-28
9.86185E-01 1.58285E-28
9.87185E-01 1.47478E-28
9.88148E-01 1.37114E-28
9.89074E-01 1.27188E-28
9.89962E-01 1.17696E-28
9.90814E-01 1.08635E-28
9.91627E-01 1.00001E-28
9.92404E-01 9.17908E-29
9.93143E-01 8.40010E-29
9.93844E-01 7.66287E-29
9.94508E-01 6.96709E-29
9.95134E-01 6.31250E-29
9.95722E-01 5.69885E-29
9.96273E-01 5.12589E-29
9.96786E-01 4.59340E-29
9.97261E-01 4.10117E-29
9.97698E-01 3.64903E-29
9.98097E-01 3.23678E-29
9.98459E-01 2.86427E-29
9.98782E-01 2.53136E-29
9.99067E-01 2.23792E-29
9.99315E-01 1.98383E-29
9.99524E-01 1.76899E-29
9.99695E-01 1.59334E-29
9.99829E-01 1.45678E-29
9.99924E-01 1.35928E-29
9.99981E-01 1.30079E-29
1.00000E+00 1.28131E-29
