 #
 # Subroutine ELSEPA. Elastic scattering of electrons and positrons
 #                    by neutral atoms and positive ions
 #
 # Projectile: electron
 # Kinetic energy = 2.50000E+06 eV = 9.18733E+04 a.u.
 #
 # WARNING: High-energy factorization with free-atom DF screening.
 #          Absorption, polarization and exchange corrections are
 #          switched off.
 #          Phase shifts are calculated for the bare nucleus.
 #          Scattering amplitudes are not evaluated.
 #
 # Element: Cl,  Z =  17,  atomic weight = 3.54527E+01 g/mol
 #
 # Nuclear model: Fermi distribution
 #                Average radius = 3.51507E-13 cm
 #                Skin thickness = 5.46000E-14 cm
 #
 # Number of electrons = 17
 #
 # Total elastic cross section = 1.13310E-18 cm**2 = 4.04637E-02 a0**2
 # 1st transport cross section = 4.74979E-23 cm**2 = 1.69618E-06 a0**2
 # 2nd transport cross section = 1.34656E-22 cm**2 = 4.80864E-06 a0**2
 #
 #
 # Differential cross section:                       MU=(1-COS(THETA))/2
 #
 #  THETA        MU          DCS          DCS        Sherman      error
 #  (deg)                 (cm**2/sr)   (a0**2/sr)    function
 #----------------------------------------------------------------------
0.00000E+00 8.17054E-14
7.61557E-13 8.17053E-14
1.18994E-12 8.17052E-14
1.71346E-12 8.17052E-14
2.33225E-12 8.17051E-14
3.04617E-12 8.17050E-14
3.85530E-12 8.17048E-14
4.75964E-12 8.17047E-14
5.75917E-12 8.17046E-14
6.85391E-12 8.17044E-14
8.04379E-12 8.17042E-14
9.32893E-12 8.17041E-14
1.07092E-11 8.17039E-14
1.21847E-11 8.17036E-14
1.37554E-11 8.17034E-14
1.54213E-11 8.17032E-14
1.71823E-11 8.17029E-14
1.90386E-11 8.17027E-14
2.09900E-11 8.17024E-14
2.30367E-11 8.17021E-14
2.51785E-11 8.17018E-14
2.74156E-11 8.17015E-14
2.97478E-11 8.17012E-14
3.21752E-11 8.17008E-14
3.46979E-11 8.17005E-14
3.73157E-11 8.17001E-14
4.00286E-11 8.16997E-14
4.28368E-11 8.16993E-14
4.57402E-11 8.16989E-14
4.87388E-11 8.16985E-14
5.18325E-11 8.16981E-14
5.50215E-11 8.16976E-14
5.83057E-11 8.16971E-14
6.16850E-11 8.16967E-14
6.51595E-11 8.16962E-14
6.87293E-11 8.16957E-14
7.23943E-11 8.16952E-14
7.61544E-11 8.16946E-14
1.18991E-10 8.16887E-14
1.71347E-10 8.16814E-14
2.33223E-10 8.16727E-14
3.04617E-10 8.16628E-14
3.85531E-10 8.16516E-14
4.75965E-10 8.16390E-14
5.75917E-10 8.16252E-14
6.85389E-10 8.16100E-14
8.04380E-10 8.15935E-14
9.32891E-10 8.15757E-14
1.07092E-09 8.15566E-14
1.21847E-09 8.15362E-14
1.37554E-09 8.15145E-14
1.54213E-09 8.14914E-14
1.71823E-09 8.14671E-14
1.90386E-09 8.14415E-14
2.09900E-09 8.14145E-14
2.30367E-09 8.13863E-14
2.51785E-09 8.13568E-14
2.74156E-09 8.13260E-14
2.97478E-09 8.12939E-14
3.21752E-09 8.12605E-14
3.46978E-09 8.12258E-14
3.73156E-09 8.11899E-14
4.00286E-09 8.11527E-14
4.28368E-09 8.11141E-14
4.57402E-09 8.10743E-14
4.87388E-09 8.10332E-14
5.18326E-09 8.09909E-14
5.50215E-09 8.09473E-14
5.83057E-09 8.09024E-14
6.16850E-09 8.08562E-14
6.51596E-09 8.08088E-14
6.87293E-09 8.07603E-14
7.23942E-09 8.07103E-14
7.61544E-09 8.06591E-14
1.18991E-08 8.00794E-14
1.71347E-08 7.93789E-14
2.33223E-08 7.85622E-14
3.04617E-08 7.76343E-14
3.85531E-08 7.66013E-14
4.75965E-08 7.54694E-14
5.75917E-08 7.42454E-14
6.85389E-08 7.29361E-14
8.04380E-08 7.15488E-14
9.32891E-08 7.00914E-14
1.07092E-07 6.85719E-14
1.21847E-07 6.69980E-14
1.37554E-07 6.53774E-14
1.54213E-07 6.37178E-14
1.71823E-07 6.20267E-14
1.90386E-07 6.01976E-14
2.09900E-07 5.83926E-14
2.30367E-07 5.66474E-14
2.51785E-07 5.49649E-14
2.74156E-07 5.33344E-14
2.97478E-07 5.14699E-14
3.21752E-07 4.96899E-14
3.46978E-07 4.79935E-14
3.73156E-07 4.63789E-14
4.00286E-07 4.47737E-14
4.28368E-07 4.30437E-14
4.57402E-07 4.14073E-14
4.87388E-07 3.98602E-14
5.18325E-07 3.83984E-14
5.50215E-07 3.69133E-14
5.83057E-07 3.53930E-14
6.16850E-07 3.39618E-14
6.51596E-07 3.26145E-14
6.87293E-07 3.13460E-14
7.23942E-07 3.00376E-14
7.61543E-07 2.87521E-14
1.18991E-06 1.86029E-14
1.71347E-06 1.19792E-14
2.33223E-06 7.82001E-15
3.04617E-06 5.23351E-15
3.85531E-06 3.61125E-15
4.75964E-06 2.57348E-15
5.75916E-06 1.89192E-15
6.85388E-06 1.43113E-15
8.04378E-06 1.10991E-15
9.32888E-06 8.79266E-16
1.07092E-05 7.09069E-16
1.21846E-05 5.80359E-16
1.37553E-05 4.80872E-16
1.54212E-05 4.02503E-16
1.71822E-05 3.39770E-16
1.90385E-05 2.88325E-16
2.09899E-05 2.47067E-16
2.30365E-05 2.12177E-16
2.51783E-05 1.83690E-16
2.74153E-05 1.59161E-16
2.97475E-05 1.38857E-16
3.21749E-05 1.21289E-16
3.46974E-05 1.06524E-16
3.73152E-05 9.37081E-17
4.00281E-05 8.27976E-17
4.28362E-05 7.33026E-17
4.57395E-05 6.51314E-17
4.87380E-05 5.79995E-17
5.18317E-05 5.18060E-17
5.50205E-05 4.63831E-17
5.83045E-05 4.16377E-17
6.16838E-05 3.74682E-17
6.51582E-05 3.37954E-17
6.87277E-05 3.05558E-17
7.23925E-05 2.76853E-17
7.61524E-05 2.51429E-17
9.21439E-05 1.74501E-17
1.09658E-04 1.24756E-17
1.28695E-04 9.15464E-18
1.49255E-04 6.87234E-18
1.71338E-04 5.26277E-18
1.94942E-04 4.10100E-18
2.20070E-04 3.24502E-18
2.46720E-04 2.60269E-18
2.74892E-04 2.11272E-18
3.04586E-04 1.73348E-18
3.35803E-04 1.43605E-18
3.68542E-04 1.20003E-18
4.02802E-04 1.01072E-18
4.38585E-04 8.57386E-19
4.75889E-04 7.32110E-19
5.14715E-04 6.28922E-19
5.55063E-04 5.43297E-19
5.96931E-04 4.71757E-19
6.40321E-04 4.11606E-19
6.85233E-04 3.60734E-19
7.31665E-04 3.17474E-19
7.79618E-04 2.80498E-19
8.29092E-04 2.48742E-19
8.80086E-04 2.21347E-19
9.32601E-04 1.97613E-19
9.86636E-04 1.76970E-19
1.04219E-03 1.58948E-19
1.09927E-03 1.43157E-19
1.15786E-03 1.29276E-19
1.21797E-03 1.17033E-19
1.27961E-03 1.06203E-19
1.34276E-03 9.65951E-20
1.40743E-03 8.80472E-20
1.47362E-03 8.04225E-20
1.54133E-03 7.36042E-20
1.61056E-03 6.74921E-20
1.68131E-03 6.20005E-20
1.75357E-03 5.70552E-20
1.82735E-03 5.25929E-20
1.90265E-03 4.85576E-20
1.97947E-03 4.49017E-20
2.05780E-03 4.15831E-20
2.13765E-03 3.85654E-20
2.21902E-03 3.58163E-20
2.30190E-03 3.33076E-20
2.38630E-03 3.10145E-20
2.47222E-03 2.89153E-20
2.55965E-03 2.69907E-20
2.64859E-03 2.52235E-20
2.73905E-03 2.35987E-20
2.83103E-03 2.21025E-20
2.92452E-03 2.07230E-20
3.01952E-03 1.94494E-20
3.11604E-03 1.82722E-20
3.21407E-03 1.71828E-20
3.31362E-03 1.61734E-20
3.41468E-03 1.52370E-20
3.51725E-03 1.43675E-20
3.62133E-03 1.35591E-20
3.72692E-03 1.28068E-20
3.83403E-03 1.21060E-20
3.94265E-03 1.14525E-20
4.05278E-03 1.08426E-20
4.16442E-03 1.02727E-20
4.27757E-03 9.73982E-21
4.39223E-03 9.24107E-21
4.50840E-03 8.77388E-21
4.62608E-03 8.33587E-21
4.74527E-03 7.92488E-21
4.86597E-03 7.53893E-21
4.98817E-03 7.17621E-21
5.11188E-03 6.83508E-21
5.23711E-03 6.51400E-21
5.36383E-03 6.21157E-21
5.49207E-03 5.92652E-21
5.62181E-03 5.65765E-21
5.75306E-03 5.40388E-21
5.88581E-03 5.16419E-21
6.02007E-03 4.93767E-21
6.15583E-03 4.72345E-21
6.29310E-03 4.52073E-21
6.43187E-03 4.32880E-21
6.57214E-03 4.14695E-21
6.71392E-03 3.97457E-21
6.85720E-03 3.81107E-21
7.00198E-03 3.65590E-21
7.14827E-03 3.50857E-21
7.29605E-03 3.36859E-21
7.44534E-03 3.23554E-21
7.59612E-03 3.10900E-21
7.97965E-03 2.81873E-21
8.37255E-03 2.56162E-21
8.77480E-03 2.33321E-21
9.18641E-03 2.12975E-21
9.60736E-03 1.94802E-21
1.00376E-02 1.78531E-21
1.04773E-02 1.63927E-21
1.09262E-02 1.50788E-21
1.13844E-02 1.38943E-21
1.18520E-02 1.28240E-21
1.23288E-02 1.18551E-21
1.28150E-02 1.09761E-21
1.33104E-02 1.01773E-21
1.38150E-02 9.44993E-22
1.43290E-02 8.78657E-22
1.48521E-02 8.18052E-22
1.53845E-02 7.62595E-22
1.59262E-02 7.11767E-22
1.64770E-02 6.65113E-22
1.70371E-02 6.22228E-22
1.76063E-02 5.82751E-22
1.81848E-02 5.46362E-22
1.87724E-02 5.12775E-22
1.93692E-02 4.81731E-22
1.99751E-02 4.53003E-22
2.05901E-02 4.26390E-22
2.12143E-02 4.01707E-22
2.18476E-02 3.78788E-22
2.24900E-02 3.57484E-22
2.31415E-02 3.37660E-22
2.38021E-02 3.19194E-22
2.44717E-02 3.01976E-22
2.51504E-02 2.85905E-22
2.58382E-02 2.70892E-22
2.65349E-02 2.56853E-22
2.72407E-02 2.43713E-22
2.79555E-02 2.31405E-22
2.86793E-02 2.19865E-22
2.94120E-02 2.09037E-22
3.01537E-02 1.98869E-22
3.09043E-02 1.89313E-22
3.16639E-02 1.80324E-22
3.24324E-02 1.71864E-22
3.32098E-02 1.63895E-22
3.39961E-02 1.56383E-22
3.47912E-02 1.49297E-22
3.55952E-02 1.42609E-22
3.64081E-02 1.36291E-22
3.72297E-02 1.30320E-22
3.80602E-02 1.24673E-22
3.88995E-02 1.19329E-22
3.97476E-02 1.14268E-22
4.06044E-02 1.09474E-22
4.14700E-02 1.04928E-22
4.23443E-02 1.00616E-22
4.32273E-02 9.65233E-23
4.41190E-02 9.26370E-23
4.50194E-02 8.89444E-23
4.59284E-02 8.54341E-23
4.68461E-02 8.20954E-23
4.87074E-02 7.58934E-23
5.06030E-02 7.02664E-23
5.25328E-02 6.51516E-23
5.44967E-02 6.04937E-23
5.64946E-02 5.62448E-23
5.85262E-02 5.23623E-23
6.05914E-02 4.88090E-23
6.26901E-02 4.55518E-23
6.48222E-02 4.25616E-23
6.69873E-02 3.98126E-23
6.91854E-02 3.72817E-23
7.14163E-02 3.49484E-23
7.36799E-02 3.27946E-23
7.59760E-02 3.08038E-23
7.83043E-02 2.89615E-23
8.06647E-02 2.72546E-23
8.30571E-02 2.56712E-23
8.54812E-02 2.42009E-23
8.79369E-02 2.28340E-23
9.04240E-02 2.15619E-23
9.29422E-02 2.03768E-23
9.54915E-02 1.92718E-23
9.80716E-02 1.82403E-23
1.00682E-01 1.72766E-23
1.03323E-01 1.63754E-23
1.05995E-01 1.55319E-23
1.08696E-01 1.47417E-23
1.11427E-01 1.40008E-23
1.14188E-01 1.33056E-23
1.16978E-01 1.26528E-23
1.19797E-01 1.20392E-23
1.22645E-01 1.14621E-23
1.25522E-01 1.09189E-23
1.28428E-01 1.04072E-23
1.31361E-01 9.92494E-24
1.34323E-01 9.47002E-24
1.37313E-01 9.04063E-24
1.40330E-01 8.63506E-24
1.43375E-01 8.25176E-24
1.46447E-01 7.88927E-24
1.49545E-01 7.54624E-24
1.52671E-01 7.22145E-24
1.55823E-01 6.91373E-24
1.59001E-01 6.62204E-24
1.62205E-01 6.34536E-24
1.65435E-01 6.08280E-24
1.68690E-01 5.83349E-24
1.71970E-01 5.59664E-24
1.75276E-01 5.37151E-24
1.78606E-01 5.15741E-24
1.81961E-01 4.95371E-24
1.85340E-01 4.75980E-24
1.88743E-01 4.57513E-24
1.92169E-01 4.39917E-24
1.95619E-01 4.23144E-24
1.99092E-01 4.07147E-24
2.02589E-01 3.91885E-24
2.06107E-01 3.77317E-24
2.09649E-01 3.63406E-24
2.13212E-01 3.50117E-24
2.16797E-01 3.37417E-24
2.20404E-01 3.25274E-24
2.24032E-01 3.13660E-24
2.27680E-01 3.02548E-24
2.31350E-01 2.91911E-24
2.35040E-01 2.81727E-24
2.38751E-01 2.71971E-24
2.42481E-01 2.62623E-24
2.46231E-01 2.53662E-24
2.50000E-01 2.45069E-24
2.53788E-01 2.36827E-24
2.57595E-01 2.28918E-24
2.61421E-01 2.21327E-24
2.65264E-01 2.14038E-24
2.69126E-01 2.07037E-24
2.73005E-01 2.00311E-24
2.76901E-01 1.93847E-24
2.80814E-01 1.87632E-24
2.84744E-01 1.81656E-24
2.88691E-01 1.75908E-24
2.92653E-01 1.70376E-24
2.96632E-01 1.65053E-24
3.00625E-01 1.59927E-24
3.04634E-01 1.54992E-24
3.08658E-01 1.50237E-24
3.12697E-01 1.45656E-24
3.16749E-01 1.41241E-24
3.20816E-01 1.36985E-24
3.24896E-01 1.32881E-24
3.28990E-01 1.28923E-24
3.33097E-01 1.25104E-24
3.37216E-01 1.21419E-24
3.41348E-01 1.17862E-24
3.45492E-01 1.14428E-24
3.49647E-01 1.11112E-24
3.53814E-01 1.07909E-24
3.57992E-01 1.04815E-24
3.62181E-01 1.01825E-24
3.66381E-01 9.89350E-25
3.70590E-01 9.61412E-25
3.74810E-01 9.34398E-25
3.79039E-01 9.08271E-25
3.83277E-01 8.82997E-25
3.87524E-01 8.58544E-25
3.91780E-01 8.34879E-25
3.96044E-01 8.11974E-25
4.00316E-01 7.89799E-25
4.04596E-01 7.68327E-25
4.08882E-01 7.47532E-25
4.13176E-01 7.27388E-25
4.17476E-01 7.07871E-25
4.21783E-01 6.88959E-25
4.26095E-01 6.70630E-25
4.30413E-01 6.52862E-25
4.34737E-01 6.35635E-25
4.39065E-01 6.18930E-25
4.43398E-01 6.02728E-25
4.47736E-01 5.87012E-25
4.52077E-01 5.71764E-25
4.56422E-01 5.56968E-25
4.60770E-01 5.42608E-25
4.65122E-01 5.28669E-25
4.69476E-01 5.15137E-25
4.73832E-01 5.01997E-25
4.78190E-01 4.89237E-25
4.82550E-01 4.76843E-25
4.86912E-01 4.64804E-25
4.91274E-01 4.53107E-25
4.95637E-01 4.41741E-25
5.00000E-01 4.30695E-25
5.04363E-01 4.19958E-25
5.08726E-01 4.09521E-25
5.13088E-01 3.99373E-25
5.17450E-01 3.89505E-25
5.21810E-01 3.79909E-25
5.26168E-01 3.70575E-25
5.30524E-01 3.61495E-25
5.34878E-01 3.52661E-25
5.39230E-01 3.44065E-25
5.43578E-01 3.35700E-25
5.47923E-01 3.27558E-25
5.52264E-01 3.19633E-25
5.56602E-01 3.11918E-25
5.60935E-01 3.04406E-25
5.65263E-01 2.97092E-25
5.69587E-01 2.89969E-25
5.73905E-01 2.83031E-25
5.78217E-01 2.76272E-25
5.82524E-01 2.69688E-25
5.86824E-01 2.63274E-25
5.91118E-01 2.57023E-25
5.95404E-01 2.50932E-25
5.99684E-01 2.44995E-25
6.03956E-01 2.39208E-25
6.08220E-01 2.33567E-25
6.12476E-01 2.28067E-25
6.16723E-01 2.22705E-25
6.20961E-01 2.17476E-25
6.25190E-01 2.12376E-25
6.29410E-01 2.07403E-25
6.33619E-01 2.02551E-25
6.37819E-01 1.97819E-25
6.42008E-01 1.93202E-25
6.46186E-01 1.88697E-25
6.50353E-01 1.84301E-25
6.54508E-01 1.80012E-25
6.58652E-01 1.75825E-25
6.62784E-01 1.71739E-25
6.66903E-01 1.67751E-25
6.71010E-01 1.63857E-25
6.75104E-01 1.60056E-25
6.79184E-01 1.56345E-25
6.83251E-01 1.52721E-25
6.87303E-01 1.49182E-25
6.91342E-01 1.45726E-25
6.95366E-01 1.42351E-25
6.99375E-01 1.39054E-25
7.03368E-01 1.35834E-25
7.07347E-01 1.32688E-25
7.11309E-01 1.29615E-25
7.15256E-01 1.26612E-25
7.19186E-01 1.23678E-25
7.23099E-01 1.20812E-25
7.26995E-01 1.18010E-25
7.30874E-01 1.15272E-25
7.34736E-01 1.12597E-25
7.38579E-01 1.09981E-25
7.42405E-01 1.07425E-25
7.46212E-01 1.04926E-25
7.50000E-01 1.02484E-25
7.53769E-01 1.00096E-25
7.57519E-01 9.77610E-26
7.61249E-01 9.54784E-26
7.64960E-01 9.32465E-26
7.68650E-01 9.10641E-26
7.72320E-01 8.89300E-26
7.75968E-01 8.68431E-26
7.79596E-01 8.48021E-26
7.83203E-01 8.28061E-26
7.86788E-01 8.08540E-26
7.90351E-01 7.89446E-26
7.93893E-01 7.70771E-26
7.97411E-01 7.52504E-26
8.00908E-01 7.34635E-26
8.04381E-01 7.17156E-26
8.07831E-01 7.00058E-26
8.11257E-01 6.83331E-26
8.14660E-01 6.66967E-26
8.18039E-01 6.50958E-26
8.21394E-01 6.35296E-26
8.24724E-01 6.19973E-26
8.28030E-01 6.04982E-26
8.31310E-01 5.90314E-26
8.34565E-01 5.75964E-26
8.37795E-01 5.61923E-26
8.40999E-01 5.48185E-26
8.44177E-01 5.34744E-26
8.47329E-01 5.21593E-26
8.50455E-01 5.08725E-26
8.53553E-01 4.96135E-26
8.56625E-01 4.83816E-26
8.59670E-01 4.71764E-26
8.62687E-01 4.59971E-26
8.65677E-01 4.48434E-26
8.68639E-01 4.37146E-26
8.71572E-01 4.26102E-26
8.74478E-01 4.15298E-26
8.77355E-01 4.04727E-26
8.80203E-01 3.94387E-26
8.83022E-01 3.84271E-26
8.85812E-01 3.74376E-26
8.88573E-01 3.64696E-26
8.91304E-01 3.55228E-26
8.94005E-01 3.45968E-26
8.96677E-01 3.36911E-26
8.99318E-01 3.28054E-26
9.01928E-01 3.19393E-26
9.04508E-01 3.10923E-26
9.07058E-01 3.02641E-26
9.09576E-01 2.94545E-26
9.12063E-01 2.86629E-26
9.14519E-01 2.78892E-26
9.16943E-01 2.71329E-26
9.19335E-01 2.63937E-26
9.21696E-01 2.56714E-26
9.24024E-01 2.49656E-26
9.26320E-01 2.42760E-26
9.28584E-01 2.36024E-26
9.30815E-01 2.29445E-26
9.33013E-01 2.23019E-26
9.35178E-01 2.16745E-26
9.37310E-01 2.10620E-26
9.39409E-01 2.04642E-26
9.41474E-01 1.98807E-26
9.43505E-01 1.93113E-26
9.45503E-01 1.87560E-26
9.47467E-01 1.82143E-26
9.49397E-01 1.76861E-26
9.51293E-01 1.71712E-26
9.53154E-01 1.66693E-26
9.54981E-01 1.61804E-26
9.56773E-01 1.57041E-26
9.58530E-01 1.52403E-26
9.60252E-01 1.47888E-26
9.61940E-01 1.43495E-26
9.63592E-01 1.39222E-26
9.65209E-01 1.35066E-26
9.66790E-01 1.31027E-26
9.68336E-01 1.27103E-26
9.69846E-01 1.23293E-26
9.71321E-01 1.19594E-26
9.72759E-01 1.16006E-26
9.74162E-01 1.12527E-26
9.75528E-01 1.09155E-26
9.76858E-01 1.05891E-26
9.78152E-01 1.02731E-26
9.79410E-01 9.96759E-27
9.80631E-01 9.67235E-27
9.81815E-01 9.38730E-27
9.82963E-01 9.11233E-27
9.84074E-01 8.84733E-27
9.85148E-01 8.59221E-27
9.86185E-01 8.34686E-27
9.87185E-01 8.11121E-27
9.88148E-01 7.88517E-27
9.89074E-01 7.66864E-27
9.89962E-01 7.46154E-27
9.90814E-01 7.26381E-27
9.91627E-01 7.07537E-27
9.92404E-01 6.89615E-27
9.93143E-01 6.72608E-27
9.93844E-01 6.56511E-27
9.94508E-01 6.41316E-27
9.95134E-01 6.27019E-27
9.95722E-01 6.13615E-27
9.96273E-01 6.01098E-27
9.96786E-01 5.89464E-27
9.97261E-01 5.78709E-27
9.97698E-01 5.68828E-27
9.98097E-01 5.59819E-27
9.98459E-01 5.51677E-27
9.98782E-01 5.44401E-27
9.99067E-01 5.37986E-27
9.99315E-01 5.32432E-27
9.99524E-01 5.27735E-27
9.99695E-01 5.23895E-27
9.99829E-01 5.20910E-27
9.99924E-01 5.18778E-27
9.99981E-01 5.17499E-27
1.00000E+00 5.17073E-27
