 #
 # Subroutine ELSEPA. Elastic scattering of electrons and positrons
 #                    by neutral atoms and positive ions
 #
 # Projectile: electron
 # Kinetic energy = 5.00000E+06 eV = 1.83747E+05 a.u.
 #
 # WARNING: High-energy factorization with free-atom DF screening.
 #          Absorption, polarization and exchange corrections are
 #          switched off.
 #          Phase shifts are calculated for the bare nucleus.
 #          Scattering amplitudes are not evaluated.
 #
 # Element: Cl,  Z =  17,  atomic weight = 3.54527E+01 g/mol
 #
 # Nuclear model: Fermi distribution
 #                Average radius = 3.51507E-13 cm
 #                Skin thickness = 5.46000E-14 cm
 #
 # Number of electrons = 17
 #
 # Total elastic cross section = 1.11144E-18 cm**2 = 3.96901E-02 a0**2
 # 1st transport cross section = 1.51315E-23 cm**2 = 5.40356E-07 a0**2
 # 2nd transport cross section = 4.31938E-23 cm**2 = 1.54248E-06 a0**2
 #
 #
 # Differential cross section:                       MU=(1-COS(THETA))/2
 #
 #  THETA        MU          DCS          DCS        Sherman      error
 #  (deg)                 (cm**2/sr)   (a0**2/sr)    function
 #----------------------------------------------------------------------
0.00000E+00 2.73710E-13
7.61557E-13 2.73708E-13
1.18994E-12 2.73708E-13
1.71346E-12 2.73707E-13
2.33225E-12 2.73706E-13
3.04617E-12 2.73705E-13
3.85530E-12 2.73703E-13
4.75964E-12 2.73702E-13
5.75917E-12 2.73700E-13
6.85391E-12 2.73698E-13
8.04379E-12 2.73696E-13
9.32893E-12 2.73694E-13
1.07092E-11 2.73692E-13
1.21847E-11 2.73690E-13
1.37554E-11 2.73687E-13
1.54213E-11 2.73684E-13
1.71823E-11 2.73682E-13
1.90386E-11 2.73679E-13
2.09900E-11 2.73675E-13
2.30367E-11 2.73672E-13
2.51785E-11 2.73669E-13
2.74156E-11 2.73665E-13
2.97478E-11 2.73661E-13
3.21752E-11 2.73657E-13
3.46979E-11 2.73653E-13
3.73157E-11 2.73649E-13
4.00286E-11 2.73645E-13
4.28368E-11 2.73640E-13
4.57402E-11 2.73636E-13
4.87388E-11 2.73631E-13
5.18325E-11 2.73626E-13
5.50215E-11 2.73621E-13
5.83057E-11 2.73615E-13
6.16850E-11 2.73610E-13
6.51595E-11 2.73605E-13
6.87293E-11 2.73599E-13
7.23943E-11 2.73593E-13
7.61544E-11 2.73587E-13
1.18991E-10 2.73519E-13
1.71347E-10 2.73435E-13
2.33223E-10 2.73337E-13
3.04617E-10 2.73223E-13
3.85531E-10 2.73095E-13
4.75965E-10 2.72952E-13
5.75917E-10 2.72793E-13
6.85389E-10 2.72620E-13
8.04380E-10 2.72432E-13
9.32891E-10 2.72229E-13
1.07092E-09 2.72012E-13
1.21847E-09 2.71780E-13
1.37554E-09 2.71533E-13
1.54213E-09 2.71272E-13
1.71823E-09 2.70995E-13
1.90386E-09 2.70705E-13
2.09900E-09 2.70401E-13
2.30367E-09 2.70081E-13
2.51785E-09 2.69748E-13
2.74156E-09 2.69400E-13
2.97478E-09 2.69039E-13
3.21752E-09 2.68664E-13
3.46978E-09 2.68273E-13
3.73156E-09 2.67870E-13
4.00286E-09 2.67453E-13
4.28368E-09 2.67021E-13
4.57402E-09 2.66578E-13
4.87388E-09 2.66119E-13
5.18326E-09 2.65648E-13
5.50215E-09 2.65164E-13
5.83057E-09 2.64665E-13
6.16850E-09 2.64155E-13
6.51596E-09 2.63631E-13
6.87293E-09 2.63094E-13
7.23942E-09 2.62546E-13
7.61544E-09 2.61983E-13
1.18991E-08 2.55699E-13
1.71347E-08 2.48301E-13
2.33223E-08 2.39940E-13
3.04617E-08 2.30768E-13
3.85531E-08 2.20954E-13
4.75965E-08 2.10661E-13
5.75917E-08 1.99558E-13
6.85389E-08 1.88660E-13
8.04380E-08 1.78398E-13
9.32891E-08 1.67090E-13
1.07092E-07 1.56740E-13
1.21847E-07 1.46530E-13
1.37554E-07 1.36397E-13
1.54213E-07 1.27267E-13
1.71823E-07 1.17884E-13
1.90386E-07 1.09310E-13
2.09900E-07 1.01353E-13
2.30367E-07 9.35145E-14
2.51785E-07 8.65290E-14
2.74156E-07 7.97880E-14
2.97478E-07 7.35589E-14
3.21752E-07 6.79609E-14
3.46978E-07 6.25043E-14
3.73156E-07 5.76419E-14
4.00286E-07 5.31246E-14
4.28368E-07 4.89228E-14
4.57402E-07 4.51673E-14
4.87388E-07 4.15989E-14
5.18325E-07 3.83830E-14
5.50215E-07 3.54502E-14
5.83057E-07 3.27176E-14
6.16850E-07 3.02608E-14
6.51596E-07 2.79798E-14
6.87293E-07 2.58987E-14
7.23942E-07 2.40114E-14
7.61543E-07 2.22545E-14
1.18991E-06 1.10927E-14
1.71347E-06 6.16155E-15
2.33223E-06 3.76698E-15
3.04617E-06 2.47860E-15
3.85531E-06 1.71957E-15
4.75964E-06 1.23843E-15
5.75916E-06 9.14556E-16
6.85388E-06 6.90468E-16
8.04378E-06 5.29740E-16
9.32888E-06 4.11935E-16
1.07092E-05 3.24131E-16
1.21846E-05 2.57784E-16
1.37553E-05 2.07062E-16
1.54212E-05 1.67874E-16
1.71822E-05 1.37305E-16
1.90385E-05 1.13237E-16
2.09899E-05 9.41344E-17
2.30365E-05 7.88390E-17
2.51783E-05 6.64943E-17
2.74153E-05 5.64557E-17
2.97475E-05 4.82333E-17
3.21749E-05 4.14520E-17
3.46974E-05 3.58225E-17
3.73152E-05 3.11196E-17
4.00281E-05 2.71669E-17
4.28362E-05 2.38257E-17
4.57395E-05 2.09859E-17
4.87380E-05 1.85598E-17
5.18317E-05 1.64769E-17
5.50205E-05 1.46803E-17
5.83045E-05 1.31240E-17
6.16838E-05 1.17703E-17
6.51582E-05 1.05882E-17
6.87277E-05 9.55197E-18
7.23925E-05 8.64049E-18
7.61524E-05 7.83599E-18
9.21439E-05 5.42391E-18
1.09658E-04 3.87575E-18
1.28695E-04 2.84391E-18
1.49255E-04 2.13407E-18
1.71338E-04 1.63253E-18
1.94942E-04 1.26994E-18
2.20070E-04 1.00252E-18
2.46720E-04 8.01810E-19
2.74892E-04 6.48804E-19
3.04586E-04 5.30539E-19
3.35803E-04 4.37972E-19
3.68542E-04 3.64697E-19
4.02802E-04 3.06090E-19
4.38585E-04 2.58773E-19
4.75889E-04 2.20238E-19
5.14715E-04 1.88603E-19
5.55063E-04 1.62440E-19
5.96931E-04 1.40654E-19
6.40321E-04 1.22396E-19
6.85233E-04 1.07002E-19
7.31665E-04 9.39527E-20
7.79618E-04 8.28306E-20
8.29092E-04 7.33058E-20
8.80086E-04 6.51103E-20
9.32601E-04 5.80283E-20
9.86636E-04 5.18830E-20
1.04219E-03 4.65299E-20
1.09927E-03 4.18496E-20
1.15786E-03 3.77432E-20
1.21797E-03 3.41283E-20
1.27961E-03 3.09360E-20
1.34276E-03 2.81085E-20
1.40743E-03 2.55967E-20
1.47362E-03 2.33595E-20
1.54133E-03 2.13616E-20
1.61056E-03 1.95728E-20
1.68131E-03 1.79676E-20
1.75357E-03 1.65236E-20
1.82735E-03 1.52220E-20
1.90265E-03 1.40461E-20
1.97947E-03 1.29817E-20
2.05780E-03 1.20163E-20
2.13765E-03 1.11391E-20
2.21902E-03 1.03405E-20
2.30190E-03 9.61236E-21
2.38630E-03 8.94724E-21
2.47222E-03 8.33871E-21
2.55965E-03 7.78111E-21
2.64859E-03 7.26940E-21
2.73905E-03 6.79912E-21
2.83103E-03 6.36631E-21
2.92452E-03 5.96744E-21
3.01952E-03 5.59936E-21
3.11604E-03 5.25926E-21
3.21407E-03 4.94463E-21
3.31362E-03 4.65322E-21
3.41468E-03 4.38299E-21
3.51725E-03 4.13212E-21
3.62133E-03 3.89897E-21
3.72692E-03 3.68206E-21
3.83403E-03 3.48005E-21
3.94265E-03 3.29173E-21
4.05278E-03 3.11599E-21
4.16442E-03 2.95185E-21
4.27757E-03 2.79839E-21
4.39223E-03 2.65479E-21
4.50840E-03 2.52030E-21
4.62608E-03 2.39424E-21
4.74527E-03 2.27597E-21
4.86597E-03 2.16492E-21
4.98817E-03 2.06058E-21
5.11188E-03 1.96246E-21
5.23711E-03 1.87013E-21
5.36383E-03 1.78317E-21
5.49207E-03 1.70121E-21
5.62181E-03 1.62391E-21
5.75306E-03 1.55095E-21
5.88581E-03 1.48205E-21
6.02007E-03 1.41694E-21
6.15583E-03 1.35538E-21
6.29310E-03 1.29712E-21
6.43187E-03 1.24198E-21
6.57214E-03 1.18973E-21
6.71392E-03 1.14021E-21
6.85720E-03 1.09325E-21
7.00198E-03 1.04868E-21
7.14827E-03 1.00637E-21
7.29605E-03 9.66175E-22
7.44534E-03 9.27970E-22
7.59612E-03 8.91638E-22
7.97965E-03 8.08308E-22
8.37255E-03 7.34508E-22
8.77480E-03 6.68958E-22
9.18641E-03 6.10575E-22
9.60736E-03 5.58436E-22
1.00376E-02 5.11757E-22
1.04773E-02 4.69865E-22
1.09262E-02 4.32182E-22
1.13844E-02 3.98209E-22
1.18520E-02 3.67517E-22
1.23288E-02 3.39732E-22
1.28150E-02 3.14529E-22
1.33104E-02 2.91625E-22
1.38150E-02 2.70773E-22
1.43290E-02 2.51756E-22
1.48521E-02 2.34382E-22
1.53845E-02 2.18485E-22
1.59262E-02 2.03916E-22
1.64770E-02 1.90544E-22
1.70371E-02 1.78252E-22
1.76063E-02 1.66938E-22
1.81848E-02 1.56509E-22
1.87724E-02 1.46884E-22
1.93692E-02 1.37989E-22
1.99751E-02 1.29758E-22
2.05901E-02 1.22134E-22
2.12143E-02 1.15062E-22
2.18476E-02 1.08496E-22
2.24900E-02 1.02392E-22
2.31415E-02 9.67125E-23
2.38021E-02 9.14221E-23
2.44717E-02 8.64891E-23
2.51504E-02 8.18851E-23
2.58382E-02 7.75839E-23
2.65349E-02 7.35619E-23
2.72407E-02 6.97976E-23
2.79555E-02 6.62715E-23
2.86793E-02 6.29655E-23
2.94120E-02 5.98636E-23
3.01537E-02 5.69505E-23
3.09043E-02 5.42128E-23
3.16639E-02 5.16379E-23
3.24324E-02 4.92143E-23
3.32098E-02 4.69314E-23
3.39961E-02 4.47795E-23
3.47912E-02 4.27497E-23
3.55952E-02 4.08337E-23
3.64081E-02 3.90240E-23
3.72297E-02 3.73135E-23
3.80602E-02 3.56959E-23
3.88995E-02 3.41650E-23
3.97476E-02 3.27154E-23
4.06044E-02 3.13419E-23
4.14700E-02 3.00399E-23
4.23443E-02 2.88047E-23
4.32273E-02 2.76325E-23
4.41190E-02 2.65193E-23
4.50194E-02 2.54616E-23
4.59284E-02 2.44561E-23
4.68461E-02 2.34998E-23
4.87074E-02 2.17234E-23
5.06030E-02 2.01118E-23
5.25328E-02 1.86468E-23
5.44967E-02 1.73128E-23
5.64946E-02 1.60959E-23
5.85262E-02 1.49840E-23
6.05914E-02 1.39664E-23
6.26901E-02 1.30336E-23
6.48222E-02 1.21773E-23
6.69873E-02 1.13901E-23
6.91854E-02 1.06654E-23
7.14163E-02 9.99723E-24
7.36799E-02 9.38050E-24
7.59760E-02 8.81048E-24
7.83043E-02 8.28299E-24
8.06647E-02 7.79427E-24
8.30571E-02 7.34096E-24
8.54812E-02 6.92000E-24
8.79369E-02 6.52867E-24
9.04240E-02 6.16451E-24
9.29422E-02 5.82527E-24
9.54915E-02 5.50893E-24
9.80716E-02 5.21367E-24
1.00682E-01 4.93783E-24
1.03323E-01 4.67988E-24
1.05995E-01 4.43845E-24
1.08696E-01 4.21229E-24
1.11427E-01 4.00026E-24
1.14188E-01 3.80130E-24
1.16978E-01 3.61447E-24
1.19797E-01 3.43889E-24
1.22645E-01 3.27375E-24
1.25522E-01 3.11832E-24
1.28428E-01 2.97192E-24
1.31361E-01 2.83392E-24
1.34323E-01 2.70377E-24
1.37313E-01 2.58092E-24
1.40330E-01 2.46490E-24
1.43375E-01 2.35525E-24
1.46447E-01 2.25156E-24
1.49545E-01 2.15344E-24
1.52671E-01 2.06054E-24
1.55823E-01 1.97253E-24
1.59001E-01 1.88910E-24
1.62205E-01 1.80998E-24
1.65435E-01 1.73489E-24
1.68690E-01 1.66360E-24
1.71970E-01 1.59587E-24
1.75276E-01 1.53150E-24
1.78606E-01 1.47029E-24
1.81961E-01 1.41205E-24
1.85340E-01 1.35661E-24
1.88743E-01 1.30382E-24
1.92169E-01 1.25352E-24
1.95619E-01 1.20558E-24
1.99092E-01 1.15986E-24
2.02589E-01 1.11624E-24
2.06107E-01 1.07460E-24
2.09649E-01 1.03485E-24
2.13212E-01 9.96874E-25
2.16797E-01 9.60583E-25
2.20404E-01 9.25889E-25
2.24032E-01 8.92707E-25
2.27680E-01 8.60961E-25
2.31350E-01 8.30575E-25
2.35040E-01 8.01482E-25
2.38751E-01 7.73615E-25
2.42481E-01 7.46915E-25
2.46231E-01 7.21322E-25
2.50000E-01 6.96783E-25
2.53788E-01 6.73246E-25
2.57595E-01 6.50663E-25
2.61421E-01 6.28988E-25
2.65264E-01 6.08178E-25
2.69126E-01 5.88191E-25
2.73005E-01 5.68990E-25
2.76901E-01 5.50538E-25
2.80814E-01 5.32800E-25
2.84744E-01 5.15744E-25
2.88691E-01 4.99338E-25
2.92653E-01 4.83554E-25
2.96632E-01 4.68363E-25
3.00625E-01 4.53739E-25
3.04634E-01 4.39657E-25
3.08658E-01 4.26094E-25
3.12697E-01 4.13026E-25
3.16749E-01 4.00433E-25
3.20816E-01 3.88293E-25
3.24896E-01 3.76589E-25
3.28990E-01 3.65300E-25
3.33097E-01 3.54411E-25
3.37216E-01 3.43903E-25
3.41348E-01 3.33762E-25
3.45492E-01 3.23973E-25
3.49647E-01 3.14520E-25
3.53814E-01 3.05391E-25
3.57992E-01 2.96571E-25
3.62181E-01 2.88050E-25
3.66381E-01 2.79814E-25
3.70590E-01 2.71853E-25
3.74810E-01 2.64156E-25
3.79039E-01 2.56713E-25
3.83277E-01 2.49513E-25
3.87524E-01 2.42547E-25
3.91780E-01 2.35807E-25
3.96044E-01 2.29284E-25
4.00316E-01 2.22969E-25
4.04596E-01 2.16855E-25
4.08882E-01 2.10934E-25
4.13176E-01 2.05199E-25
4.17476E-01 1.99643E-25
4.21783E-01 1.94260E-25
4.26095E-01 1.89043E-25
4.30413E-01 1.83986E-25
4.34737E-01 1.79084E-25
4.39065E-01 1.74331E-25
4.43398E-01 1.69721E-25
4.47736E-01 1.65250E-25
4.52077E-01 1.60913E-25
4.56422E-01 1.56704E-25
4.60770E-01 1.52620E-25
4.65122E-01 1.48656E-25
4.69476E-01 1.44808E-25
4.73832E-01 1.41072E-25
4.78190E-01 1.37445E-25
4.82550E-01 1.33922E-25
4.86912E-01 1.30500E-25
4.91274E-01 1.27175E-25
4.95637E-01 1.23945E-25
5.00000E-01 1.20807E-25
5.04363E-01 1.17756E-25
5.08726E-01 1.14791E-25
5.13088E-01 1.11908E-25
5.17450E-01 1.09106E-25
5.21810E-01 1.06380E-25
5.26168E-01 1.03729E-25
5.30524E-01 1.01151E-25
5.34878E-01 9.86432E-26
5.39230E-01 9.62030E-26
5.43578E-01 9.38286E-26
5.47923E-01 9.15179E-26
5.52264E-01 8.92689E-26
5.56602E-01 8.70797E-26
5.60935E-01 8.49484E-26
5.65263E-01 8.28733E-26
5.69587E-01 8.08527E-26
5.73905E-01 7.88848E-26
5.78217E-01 7.69682E-26
5.82524E-01 7.51012E-26
5.86824E-01 7.32824E-26
5.91118E-01 7.15104E-26
5.95404E-01 6.97836E-26
5.99684E-01 6.81009E-26
6.03956E-01 6.64609E-26
6.08220E-01 6.48623E-26
6.12476E-01 6.33040E-26
6.16723E-01 6.17848E-26
6.20961E-01 6.03036E-26
6.25190E-01 5.88592E-26
6.29410E-01 5.74506E-26
6.33619E-01 5.60768E-26
6.37819E-01 5.47369E-26
6.42008E-01 5.34298E-26
6.46186E-01 5.21546E-26
6.50353E-01 5.09104E-26
6.54508E-01 4.96965E-26
6.58652E-01 4.85118E-26
6.62784E-01 4.73557E-26
6.66903E-01 4.62274E-26
6.71010E-01 4.51260E-26
6.75104E-01 4.40509E-26
6.79184E-01 4.30014E-26
6.83251E-01 4.19767E-26
6.87303E-01 4.09762E-26
6.91342E-01 3.99992E-26
6.95366E-01 3.90451E-26
6.99375E-01 3.81134E-26
7.03368E-01 3.72034E-26
7.07347E-01 3.63145E-26
7.11309E-01 3.54462E-26
7.15256E-01 3.45980E-26
7.19186E-01 3.37694E-26
7.23099E-01 3.29598E-26
7.26995E-01 3.21687E-26
7.30874E-01 3.13957E-26
7.34736E-01 3.06403E-26
7.38579E-01 2.99021E-26
7.42405E-01 2.91807E-26
7.46212E-01 2.84755E-26
7.50000E-01 2.77863E-26
7.53769E-01 2.71125E-26
7.57519E-01 2.64539E-26
7.61249E-01 2.58101E-26
7.64960E-01 2.51806E-26
7.68650E-01 2.45652E-26
7.72320E-01 2.39635E-26
7.75968E-01 2.33752E-26
7.79596E-01 2.27999E-26
7.83203E-01 2.22373E-26
7.86788E-01 2.16872E-26
7.90351E-01 2.11492E-26
7.93893E-01 2.06230E-26
7.97411E-01 2.01085E-26
8.00908E-01 1.96052E-26
8.04381E-01 1.91129E-26
8.07831E-01 1.86314E-26
8.11257E-01 1.81604E-26
8.14660E-01 1.76998E-26
8.18039E-01 1.72491E-26
8.21394E-01 1.68083E-26
8.24724E-01 1.63771E-26
8.28030E-01 1.59553E-26
8.31310E-01 1.55426E-26
8.34565E-01 1.51389E-26
8.37795E-01 1.47439E-26
8.40999E-01 1.43576E-26
8.44177E-01 1.39796E-26
8.47329E-01 1.36098E-26
8.50455E-01 1.32480E-26
8.53553E-01 1.28941E-26
8.56625E-01 1.25479E-26
8.59670E-01 1.22092E-26
8.62687E-01 1.18778E-26
8.65677E-01 1.15536E-26
8.68639E-01 1.12365E-26
8.71572E-01 1.09263E-26
8.74478E-01 1.06228E-26
8.77355E-01 1.03259E-26
8.80203E-01 1.00356E-26
8.83022E-01 9.75153E-27
8.85812E-01 9.47373E-27
8.88573E-01 9.20202E-27
8.91304E-01 8.93628E-27
8.94005E-01 8.67640E-27
8.96677E-01 8.42225E-27
8.99318E-01 8.17373E-27
9.01928E-01 7.93073E-27
9.04508E-01 7.69314E-27
9.07058E-01 7.46085E-27
9.09576E-01 7.23377E-27
9.12063E-01 7.01180E-27
9.14519E-01 6.79484E-27
9.16943E-01 6.58279E-27
9.19335E-01 6.37558E-27
9.21696E-01 6.17310E-27
9.24024E-01 5.97528E-27
9.26320E-01 5.78203E-27
9.28584E-01 5.59327E-27
9.30815E-01 5.40892E-27
9.33013E-01 5.22890E-27
9.35178E-01 5.05314E-27
9.37310E-01 4.88157E-27
9.39409E-01 4.71411E-27
9.41474E-01 4.55070E-27
9.43505E-01 4.39127E-27
9.45503E-01 4.23576E-27
9.47467E-01 4.08409E-27
9.49397E-01 3.93622E-27
9.51293E-01 3.79208E-27
9.53154E-01 3.65161E-27
9.54981E-01 3.51476E-27
9.56773E-01 3.38146E-27
9.58530E-01 3.25168E-27
9.60252E-01 3.12536E-27
9.61940E-01 3.00244E-27
9.63592E-01 2.88288E-27
9.65209E-01 2.76664E-27
9.66790E-01 2.65366E-27
9.68336E-01 2.54390E-27
9.69846E-01 2.43732E-27
9.71321E-01 2.33388E-27
9.72759E-01 2.23353E-27
9.74162E-01 2.13625E-27
9.75528E-01 2.04198E-27
9.76858E-01 1.95070E-27
9.78152E-01 1.86237E-27
9.79410E-01 1.77696E-27
9.80631E-01 1.69443E-27
9.81815E-01 1.61475E-27
9.82963E-01 1.53790E-27
9.84074E-01 1.46383E-27
9.85148E-01 1.39253E-27
9.86185E-01 1.32397E-27
9.87185E-01 1.25812E-27
9.88148E-01 1.19495E-27
9.89074E-01 1.13445E-27
9.89962E-01 1.07659E-27
9.90814E-01 1.02134E-27
9.91627E-01 9.68693E-28
9.92404E-01 9.18624E-28
9.93143E-01 8.71113E-28
9.93844E-01 8.26144E-28
9.94508E-01 7.83699E-28
9.95134E-01 7.43763E-28
9.95722E-01 7.06321E-28
9.96273E-01 6.71359E-28
9.96786E-01 6.38864E-28
9.97261E-01 6.08825E-28
9.97698E-01 5.81228E-28
9.98097E-01 5.56066E-28
9.98459E-01 5.33328E-28
9.98782E-01 5.13006E-28
9.99067E-01 4.95092E-28
9.99315E-01 4.79580E-28
9.99524E-01 4.66465E-28
9.99695E-01 4.55740E-28
9.99829E-01 4.47403E-28
9.99924E-01 4.41450E-28
9.99981E-01 4.37879E-28
1.00000E+00 4.36689E-28
