 #
 # Subroutine ELSEPA. Elastic scattering of electrons and positrons
 #                    by neutral atoms and positive ions
 #
 # Projectile: electron
 # Kinetic energy = 4.00000E+07 eV = 1.46997E+06 a.u.
 #
 # WARNING: High-energy factorization with free-atom DF screening.
 #          Absorption, polarization and exchange corrections are
 #          switched off.
 #          Phase shifts are calculated for the bare nucleus.
 #          Scattering amplitudes are not evaluated.
 #
 # Element: Cl,  Z =  17,  atomic weight = 3.54527E+01 g/mol
 #
 # Nuclear model: Fermi distribution
 #                Average radius = 3.51507E-13 cm
 #                Skin thickness = 5.46000E-14 cm
 #
 # Number of electrons = 17
 #
 # Total elastic cross section = 1.10093E-18 cm**2 = 3.93148E-02 a0**2
 # 1st transport cross section = 3.57587E-25 cm**2 = 1.27696E-08 a0**2
 # 2nd transport cross section = 1.04208E-24 cm**2 = 3.72134E-08 a0**2
 #
 #
 # Differential cross section:                       MU=(1-COS(THETA))/2
 #
 #  THETA        MU          DCS          DCS        Sherman      error
 #  (deg)                 (cm**2/sr)   (a0**2/sr)    function
 #----------------------------------------------------------------------
0.00000E+00 1.47903E-11
7.61557E-13 1.47866E-11
1.18994E-12 1.47846E-11
1.71346E-12 1.47821E-11
2.33225E-12 1.47792E-11
3.04617E-12 1.47758E-11
3.85530E-12 1.47720E-11
4.75964E-12 1.47678E-11
5.75917E-12 1.47631E-11
6.85391E-12 1.47580E-11
8.04379E-12 1.47524E-11
9.32893E-12 1.47464E-11
1.07092E-11 1.47400E-11
1.21847E-11 1.47331E-11
1.37554E-11 1.47258E-11
1.54213E-11 1.47180E-11
1.71823E-11 1.47098E-11
1.90386E-11 1.47012E-11
2.09900E-11 1.46922E-11
2.30367E-11 1.46827E-11
2.51785E-11 1.46727E-11
2.74156E-11 1.46624E-11
2.97478E-11 1.46516E-11
3.21752E-11 1.46404E-11
3.46979E-11 1.46288E-11
3.73157E-11 1.46168E-11
4.00286E-11 1.46043E-11
4.28368E-11 1.45914E-11
4.57402E-11 1.45781E-11
4.87388E-11 1.45643E-11
5.18325E-11 1.45502E-11
5.50215E-11 1.45356E-11
5.83057E-11 1.45207E-11
6.16850E-11 1.45052E-11
6.51595E-11 1.44894E-11
6.87293E-11 1.44733E-11
7.23943E-11 1.44567E-11
7.61544E-11 1.44396E-11
1.18991E-10 1.42478E-11
1.71347E-10 1.40183E-11
2.33223E-10 1.37536E-11
3.04617E-10 1.34568E-11
3.85531E-10 1.31310E-11
4.75965E-10 1.27799E-11
5.75917E-10 1.24069E-11
6.85389E-10 1.20156E-11
8.04380E-10 1.16096E-11
9.32891E-10 1.11921E-11
1.07092E-09 1.07382E-11
1.21847E-09 1.03018E-11
1.37554E-09 9.88638E-12
1.54213E-09 9.45780E-12
1.71823E-09 9.01282E-12
1.90386E-09 8.59604E-12
2.09900E-09 8.20667E-12
2.30367E-09 7.78003E-12
2.51785E-09 7.38047E-12
2.74156E-09 7.01050E-12
2.97478E-09 6.64414E-12
3.21752E-09 6.27541E-12
3.46978E-09 5.93587E-12
3.73156E-09 5.62318E-12
4.00286E-09 5.29708E-12
4.28368E-09 4.99438E-12
4.57402E-09 4.71632E-12
4.87388E-09 4.44820E-12
5.18326E-09 4.18466E-12
5.50215E-09 3.94281E-12
5.83057E-09 3.72065E-12
6.16850E-09 3.49777E-12
6.51596E-09 3.29112E-12
6.87293E-09 3.10124E-12
7.23942E-09 2.92103E-12
7.61544E-09 2.74687E-12
1.18991E-08 1.52215E-12
1.71347E-08 8.80140E-13
2.33223E-08 5.39018E-13
3.04617E-08 3.50229E-13
3.85531E-08 2.40091E-13
4.75965E-08 1.72078E-13
5.75917E-08 1.27778E-13
6.85389E-08 9.75399E-14
8.04380E-08 7.60629E-14
9.32891E-08 6.02978E-14
1.07092E-07 4.83530E-14
1.21847E-07 3.92587E-14
1.37554E-07 3.22017E-14
1.54213E-07 2.65822E-14
1.71823E-07 2.20960E-14
1.90386E-07 1.85015E-14
2.09900E-07 1.55860E-14
2.30367E-07 1.31881E-14
2.51785E-07 1.12264E-14
2.74156E-07 9.60859E-15
2.97478E-07 8.25929E-15
3.21752E-07 7.13327E-15
3.46978E-07 6.19015E-15
3.73156E-07 5.39486E-15
4.00286E-07 4.71994E-15
4.28368E-07 4.14668E-15
4.57402E-07 3.65727E-15
4.87388E-07 3.23689E-15
5.18325E-07 2.87495E-15
5.50215E-07 2.56219E-15
5.83057E-07 2.29073E-15
6.16850E-07 2.05417E-15
6.51596E-07 1.84749E-15
6.87293E-07 1.66628E-15
7.23942E-07 1.50678E-15
7.61543E-07 1.36602E-15
1.18991E-06 5.76025E-16
1.71347E-06 2.84794E-16
2.33223E-06 1.56881E-16
3.04617E-06 9.34307E-17
3.85531E-06 5.90366E-17
4.75964E-06 3.90886E-17
5.75916E-06 2.68825E-17
6.85388E-06 1.90804E-17
8.04378E-06 1.39084E-17
9.32888E-06 1.03725E-17
1.07092E-05 7.89004E-18
1.21846E-05 6.10654E-18
1.37553E-05 4.79893E-18
1.54212E-05 3.82287E-18
1.71822E-05 3.08252E-18
1.90385E-05 2.51276E-18
2.09899E-05 2.06879E-18
2.30365E-05 1.71860E-18
2.51783E-05 1.43939E-18
2.74153E-05 1.21459E-18
2.97475E-05 1.03198E-18
3.21749E-05 8.82416E-19
3.46974E-05 7.58989E-19
3.73152E-05 6.56408E-19
4.00281E-05 5.70588E-19
4.28362E-05 4.98347E-19
4.57395E-05 4.37183E-19
4.87380E-05 3.85119E-19
5.18317E-05 3.40577E-19
5.50205E-05 3.02290E-19
5.83045E-05 2.69234E-19
6.16838E-05 2.40576E-19
6.51582E-05 2.15633E-19
6.87277E-05 1.93841E-19
7.23925E-05 1.74735E-19
7.61524E-05 1.57921E-19
9.21439E-05 1.07911E-19
1.09658E-04 7.62200E-20
1.28695E-04 5.53558E-20
1.49255E-04 4.11679E-20
1.71338E-04 3.12496E-20
1.94942E-04 2.41471E-20
2.20070E-04 1.89532E-20
2.46720E-04 1.50843E-20
2.74892E-04 1.21544E-20
3.04586E-04 9.90284E-21
3.35803E-04 8.14955E-21
3.68542E-04 6.76786E-21
4.02802E-04 5.66710E-21
4.38585E-04 4.78141E-21
4.75889E-04 4.06228E-21
5.14715E-04 3.47347E-21
5.55063E-04 2.98765E-21
5.96931E-04 2.58392E-21
6.40321E-04 2.24618E-21
6.85233E-04 1.96190E-21
7.31665E-04 1.72123E-21
7.79618E-04 1.51638E-21
8.29092E-04 1.34114E-21
8.80086E-04 1.19052E-21
9.32601E-04 1.06047E-21
9.86636E-04 9.47723E-22
1.04219E-03 8.49578E-22
1.09927E-03 7.63825E-22
1.15786E-03 6.88632E-22
1.21797E-03 6.22475E-22
1.27961E-03 5.64082E-22
1.34276E-03 5.12383E-22
1.40743E-03 4.66479E-22
1.47362E-03 4.25606E-22
1.54133E-03 3.89118E-22
1.61056E-03 3.56460E-22
1.68131E-03 3.27161E-22
1.75357E-03 3.00813E-22
1.82735E-03 2.77068E-22
1.90265E-03 2.55622E-22
1.97947E-03 2.36214E-22
2.05780E-03 2.18614E-22
2.13765E-03 2.02625E-22
2.21902E-03 1.88073E-22
2.30190E-03 1.74805E-22
2.38630E-03 1.62688E-22
2.47222E-03 1.51603E-22
2.55965E-03 1.41448E-22
2.64859E-03 1.32130E-22
2.73905E-03 1.23567E-22
2.83103E-03 1.15688E-22
2.92452E-03 1.08427E-22
3.01952E-03 1.01727E-22
3.11604E-03 9.55377E-23
3.21407E-03 8.98122E-23
3.31362E-03 8.45097E-23
3.41468E-03 7.95932E-23
3.51725E-03 7.50293E-23
3.62133E-03 7.07882E-23
3.72692E-03 6.68429E-23
3.83403E-03 6.31688E-23
3.94265E-03 5.97440E-23
4.05278E-03 5.65483E-23
4.16442E-03 5.35637E-23
4.27757E-03 5.07736E-23
4.39223E-03 4.81629E-23
4.50840E-03 4.57181E-23
4.62608E-03 4.34265E-23
4.74527E-03 4.12768E-23
4.86597E-03 3.92587E-23
4.98817E-03 3.73624E-23
5.11188E-03 3.55794E-23
5.23711E-03 3.39015E-23
5.36383E-03 3.23215E-23
5.49207E-03 3.08325E-23
5.62181E-03 2.94284E-23
5.75306E-03 2.81033E-23
5.88581E-03 2.68520E-23
6.02007E-03 2.56696E-23
6.15583E-03 2.45517E-23
6.29310E-03 2.34939E-23
6.43187E-03 2.24926E-23
6.57214E-03 2.15441E-23
6.71392E-03 2.06450E-23
6.85720E-03 1.97925E-23
7.00198E-03 1.89834E-23
7.14827E-03 1.82154E-23
7.29605E-03 1.74857E-23
7.44534E-03 1.67923E-23
7.59612E-03 1.61329E-23
7.97965E-03 1.46207E-23
8.37255E-03 1.32817E-23
8.77480E-03 1.20925E-23
9.18641E-03 1.10335E-23
9.60736E-03 1.00879E-23
1.00376E-02 9.24145E-24
1.04773E-02 8.48195E-24
1.09262E-02 7.79887E-24
1.13844E-02 7.18318E-24
1.18520E-02 6.62703E-24
1.23288E-02 6.12365E-24
1.28150E-02 5.66714E-24
1.33104E-02 5.25236E-24
1.38150E-02 4.87480E-24
1.43290E-02 4.53054E-24
1.48521E-02 4.21611E-24
1.53845E-02 3.92845E-24
1.59262E-02 3.66488E-24
1.64770E-02 3.42301E-24
1.70371E-02 3.20074E-24
1.76063E-02 2.99619E-24
1.81848E-02 2.80769E-24
1.87724E-02 2.63376E-24
1.93692E-02 2.47306E-24
1.99751E-02 2.32440E-24
2.05901E-02 2.18671E-24
2.12143E-02 2.05905E-24
2.18476E-02 1.94054E-24
2.24900E-02 1.83041E-24
2.31415E-02 1.72796E-24
2.38021E-02 1.63255E-24
2.44717E-02 1.54362E-24
2.51504E-02 1.46063E-24
2.58382E-02 1.38313E-24
2.65349E-02 1.31068E-24
2.72407E-02 1.24289E-24
2.79555E-02 1.17941E-24
2.86793E-02 1.11991E-24
2.94120E-02 1.06410E-24
3.01537E-02 1.01170E-24
3.09043E-02 9.62472E-25
3.16639E-02 9.16187E-25
3.24324E-02 8.72634E-25
3.32098E-02 8.31624E-25
3.39961E-02 7.92980E-25
3.47912E-02 7.56540E-25
3.55952E-02 7.22156E-25
3.64081E-02 6.89690E-25
3.72297E-02 6.59015E-25
3.80602E-02 6.30014E-25
3.88995E-02 6.02579E-25
3.97476E-02 5.76610E-25
4.06044E-02 5.52013E-25
4.14700E-02 5.28703E-25
4.23443E-02 5.06600E-25
4.32273E-02 4.85630E-25
4.41190E-02 4.65724E-25
4.50194E-02 4.46818E-25
4.59284E-02 4.28853E-25
4.68461E-02 4.11773E-25
4.87074E-02 3.80064E-25
5.06030E-02 3.51318E-25
5.25328E-02 3.25211E-25
5.44967E-02 3.01457E-25
5.64946E-02 2.79808E-25
5.85262E-02 2.60043E-25
6.05914E-02 2.41971E-25
6.26901E-02 2.25421E-25
6.48222E-02 2.10242E-25
6.69873E-02 1.96300E-25
6.91854E-02 1.83478E-25
7.14163E-02 1.71669E-25
7.36799E-02 1.60779E-25
7.59760E-02 1.50724E-25
7.83043E-02 1.41429E-25
8.06647E-02 1.32826E-25
8.30571E-02 1.24855E-25
8.54812E-02 1.17461E-25
8.79369E-02 1.10595E-25
9.04240E-02 1.04213E-25
9.29422E-02 9.82745E-26
9.54915E-02 9.27434E-26
9.80716E-02 8.75868E-26
1.00682E-01 8.27750E-26
1.03323E-01 7.82809E-26
1.05995E-01 7.40799E-26
1.08696E-01 7.01495E-26
1.11427E-01 6.64692E-26
1.14188E-01 6.30204E-26
1.16978E-01 5.97859E-26
1.19797E-01 5.67502E-26
1.22645E-01 5.38989E-26
1.25522E-01 5.12189E-26
1.28428E-01 4.86981E-26
1.31361E-01 4.63253E-26
1.34323E-01 4.40906E-26
1.37313E-01 4.19843E-26
1.40330E-01 3.99979E-26
1.43375E-01 3.81233E-26
1.46447E-01 3.63533E-26
1.49545E-01 3.46809E-26
1.52671E-01 3.30999E-26
1.55823E-01 3.16044E-26
1.59001E-01 3.01890E-26
1.62205E-01 2.88488E-26
1.65435E-01 2.75790E-26
1.68690E-01 2.63752E-26
1.71970E-01 2.52336E-26
1.75276E-01 2.41504E-26
1.78606E-01 2.31220E-26
1.81961E-01 2.21452E-26
1.85340E-01 2.12171E-26
1.88743E-01 2.03347E-26
1.92169E-01 1.94955E-26
1.95619E-01 1.86969E-26
1.99092E-01 1.79368E-26
2.02589E-01 1.72129E-26
2.06107E-01 1.65233E-26
2.09649E-01 1.58660E-26
2.13212E-01 1.52392E-26
2.16797E-01 1.46415E-26
2.20404E-01 1.40710E-26
2.24032E-01 1.35266E-26
2.27680E-01 1.30066E-26
2.31350E-01 1.25100E-26
2.35040E-01 1.20354E-26
2.38751E-01 1.15817E-26
2.42481E-01 1.11479E-26
2.46231E-01 1.07329E-26
2.50000E-01 1.03359E-26
2.53788E-01 9.95582E-27
2.57595E-01 9.59193E-27
2.61421E-01 9.24341E-27
2.65264E-01 8.90951E-27
2.69126E-01 8.58952E-27
2.73005E-01 8.28278E-27
2.76901E-01 7.98864E-27
2.80814E-01 7.70652E-27
2.84744E-01 7.43584E-27
2.88691E-01 7.17607E-27
2.92653E-01 6.92671E-27
2.96632E-01 6.68727E-27
3.00625E-01 6.45730E-27
3.04634E-01 6.23637E-27
3.08658E-01 6.02408E-27
3.12697E-01 5.82002E-27
3.16749E-01 5.62385E-27
3.20816E-01 5.43520E-27
3.24896E-01 5.25375E-27
3.28990E-01 5.07917E-27
3.33097E-01 4.91118E-27
3.37216E-01 4.74949E-27
3.41348E-01 4.59383E-27
3.45492E-01 4.44394E-27
3.49647E-01 4.29957E-27
3.53814E-01 4.16050E-27
3.57992E-01 4.02650E-27
3.62181E-01 3.89736E-27
3.66381E-01 3.77288E-27
3.70590E-01 3.65286E-27
3.74810E-01 3.53713E-27
3.79039E-01 3.42552E-27
3.83277E-01 3.31785E-27
3.87524E-01 3.21396E-27
3.91780E-01 3.11371E-27
3.96044E-01 3.01695E-27
4.00316E-01 2.92354E-27
4.04596E-01 2.83335E-27
4.08882E-01 2.74626E-27
4.13176E-01 2.66214E-27
4.17476E-01 2.58088E-27
4.21783E-01 2.50237E-27
4.26095E-01 2.42650E-27
4.30413E-01 2.35318E-27
4.34737E-01 2.28230E-27
4.39065E-01 2.21377E-27
4.43398E-01 2.14752E-27
4.47736E-01 2.08344E-27
4.52077E-01 2.02147E-27
4.56422E-01 1.96152E-27
4.60770E-01 1.90351E-27
4.65122E-01 1.84739E-27
4.69476E-01 1.79307E-27
4.73832E-01 1.74050E-27
4.78190E-01 1.68961E-27
4.82550E-01 1.64034E-27
4.86912E-01 1.59263E-27
4.91274E-01 1.54642E-27
4.95637E-01 1.50167E-27
5.00000E-01 1.45833E-27
5.04363E-01 1.41633E-27
5.08726E-01 1.37564E-27
5.13088E-01 1.33622E-27
5.17450E-01 1.29800E-27
5.21810E-01 1.26097E-27
5.26168E-01 1.22507E-27
5.30524E-01 1.19026E-27
5.34878E-01 1.15651E-27
5.39230E-01 1.12379E-27
5.43578E-01 1.09205E-27
5.47923E-01 1.06127E-27
5.52264E-01 1.03141E-27
5.56602E-01 1.00244E-27
5.60935E-01 9.74338E-28
5.65263E-01 9.47068E-28
5.69587E-01 9.20604E-28
5.73905E-01 8.94921E-28
5.78217E-01 8.69992E-28
5.82524E-01 8.45794E-28
5.86824E-01 8.22302E-28
5.91118E-01 7.99494E-28
5.95404E-01 7.77347E-28
5.99684E-01 7.55841E-28
6.03956E-01 7.34955E-28
6.08220E-01 7.14670E-28
6.12476E-01 6.94965E-28
6.16723E-01 6.75824E-28
6.20961E-01 6.57228E-28
6.25190E-01 6.39160E-28
6.29410E-01 6.21604E-28
6.33619E-01 6.04544E-28
6.37819E-01 5.87965E-28
6.42008E-01 5.71850E-28
6.46186E-01 5.56188E-28
6.50353E-01 5.40962E-28
6.54508E-01 5.26161E-28
6.58652E-01 5.11771E-28
6.62784E-01 4.97779E-28
6.66903E-01 4.84174E-28
6.71010E-01 4.70944E-28
6.75104E-01 4.58078E-28
6.79184E-01 4.45564E-28
6.83251E-01 4.33393E-28
6.87303E-01 4.21554E-28
6.91342E-01 4.10037E-28
6.95366E-01 3.98833E-28
6.99375E-01 3.87933E-28
7.03368E-01 3.77327E-28
7.07347E-01 3.67007E-28
7.11309E-01 3.56964E-28
7.15256E-01 3.47191E-28
7.19186E-01 3.37680E-28
7.23099E-01 3.28423E-28
7.26995E-01 3.19413E-28
7.30874E-01 3.10643E-28
7.34736E-01 3.02105E-28
7.38579E-01 2.93794E-28
7.42405E-01 2.85703E-28
7.46212E-01 2.77825E-28
7.50000E-01 2.70155E-28
7.53769E-01 2.62686E-28
7.57519E-01 2.55414E-28
7.61249E-01 2.48332E-28
7.64960E-01 2.41435E-28
7.68650E-01 2.34718E-28
7.72320E-01 2.28176E-28
7.75968E-01 2.21805E-28
7.79596E-01 2.15599E-28
7.83203E-01 2.09554E-28
7.86788E-01 2.03665E-28
7.90351E-01 1.97929E-28
7.93893E-01 1.92340E-28
7.97411E-01 1.86896E-28
8.00908E-01 1.81592E-28
8.04381E-01 1.76425E-28
8.07831E-01 1.71390E-28
8.11257E-01 1.66484E-28
8.14660E-01 1.61704E-28
8.18039E-01 1.57046E-28
8.21394E-01 1.52507E-28
8.24724E-01 1.48085E-28
8.28030E-01 1.43775E-28
8.31310E-01 1.39575E-28
8.34565E-01 1.35482E-28
8.37795E-01 1.31493E-28
8.40999E-01 1.27605E-28
8.44177E-01 1.23817E-28
8.47329E-01 1.20125E-28
8.50455E-01 1.16526E-28
8.53553E-01 1.13019E-28
8.56625E-01 1.09601E-28
8.59670E-01 1.06269E-28
8.62687E-01 1.03023E-28
8.65677E-01 9.98580E-29
8.68639E-01 9.67739E-29
8.71572E-01 9.37680E-29
8.74478E-01 9.08384E-29
8.77355E-01 8.79832E-29
8.80203E-01 8.52005E-29
8.83022E-01 8.24886E-29
8.85812E-01 7.98457E-29
8.88573E-01 7.72701E-29
8.91304E-01 7.47601E-29
8.94005E-01 7.23142E-29
8.96677E-01 6.99307E-29
8.99318E-01 6.76083E-29
9.01928E-01 6.53453E-29
9.04508E-01 6.31404E-29
9.07058E-01 6.09922E-29
9.09576E-01 5.88994E-29
9.12063E-01 5.68605E-29
9.14519E-01 5.48745E-29
9.16943E-01 5.29400E-29
9.19335E-01 5.10558E-29
9.21696E-01 4.92208E-29
9.24024E-01 4.74339E-29
9.26320E-01 4.56939E-29
9.28584E-01 4.39998E-29
9.30815E-01 4.23505E-29
9.33013E-01 4.07451E-29
9.35178E-01 3.91825E-29
9.37310E-01 3.76619E-29
9.39409E-01 3.61823E-29
9.41474E-01 3.47427E-29
9.43505E-01 3.33425E-29
9.45503E-01 3.19806E-29
9.47467E-01 3.06564E-29
9.49397E-01 2.93689E-29
9.51293E-01 2.81175E-29
9.53154E-01 2.69014E-29
9.54981E-01 2.57199E-29
9.56773E-01 2.45722E-29
9.58530E-01 2.34577E-29
9.60252E-01 2.23758E-29
9.61940E-01 2.13258E-29
9.63592E-01 2.03071E-29
9.65209E-01 1.93190E-29
9.66790E-01 1.83611E-29
9.68336E-01 1.74328E-29
9.69846E-01 1.65334E-29
9.71321E-01 1.56626E-29
9.72759E-01 1.48198E-29
9.74162E-01 1.40044E-29
9.75528E-01 1.32161E-29
9.76858E-01 1.24544E-29
9.78152E-01 1.17188E-29
9.79410E-01 1.10090E-29
9.80631E-01 1.03244E-29
9.81815E-01 9.66479E-30
9.82963E-01 9.02971E-30
9.84074E-01 8.41880E-30
9.85148E-01 7.83173E-30
9.86185E-01 7.26815E-30
9.87185E-01 6.72774E-30
9.88148E-01 6.21021E-30
9.89074E-01 5.71525E-30
9.89962E-01 5.24258E-30
9.90814E-01 4.79194E-30
9.91627E-01 4.36307E-30
9.92404E-01 3.95573E-30
9.93143E-01 3.56969E-30
9.93844E-01 3.20473E-30
9.94508E-01 2.86064E-30
9.95134E-01 2.53723E-30
9.95722E-01 2.23433E-30
9.96273E-01 1.95175E-30
9.96786E-01 1.68935E-30
9.97261E-01 1.44697E-30
9.97698E-01 1.22447E-30
9.98097E-01 1.02174E-30
9.98459E-01 8.38656E-31
9.98782E-01 6.75118E-31
9.99067E-01 5.31034E-31
9.99315E-01 4.06325E-31
9.99524E-01 3.00919E-31
9.99695E-01 2.14758E-31
9.99829E-01 1.47794E-31
9.99924E-01 9.99892E-32
9.99981E-01 7.13164E-32
1.00000E+00 6.17617E-32
