 #
 # Subroutine ELSEPA. Elastic scattering of electrons and positrons
 #                    by neutral atoms and positive ions
 #
 # Projectile: electron
 # Kinetic energy = 7.00000E+07 eV = 2.57245E+06 a.u.
 #
 # WARNING: High-energy factorization with free-atom DF screening.
 #          Absorption, polarization and exchange corrections are
 #          switched off.
 #          Phase shifts are calculated for the bare nucleus.
 #          Scattering amplitudes are not evaluated.
 #
 # Element: Cl,  Z =  17,  atomic weight = 3.54527E+01 g/mol
 #
 # Nuclear model: Fermi distribution
 #                Average radius = 3.51507E-13 cm
 #                Skin thickness = 5.46000E-14 cm
 #
 # Number of electrons = 17
 #
 # Total elastic cross section = 1.10184E-18 cm**2 = 3.93476E-02 a0**2
 # 1st transport cross section = 1.22125E-25 cm**2 = 4.36115E-09 a0**2
 # 2nd transport cross section = 3.59741E-25 cm**2 = 1.28466E-08 a0**2
 #
 #
 # Differential cross section:                       MU=(1-COS(THETA))/2
 #
 #  THETA        MU          DCS          DCS        Sherman      error
 #  (deg)                 (cm**2/sr)   (a0**2/sr)    function
 #----------------------------------------------------------------------
0.00000E+00 4.48068E-11
7.61557E-13 4.47735E-11
1.18994E-12 4.47550E-11
1.71346E-12 4.47325E-11
2.33225E-12 4.47059E-11
3.04617E-12 4.46753E-11
3.85530E-12 4.46406E-11
4.75964E-12 4.46020E-11
5.75917E-12 4.45593E-11
6.85391E-12 4.45127E-11
8.04379E-12 4.44620E-11
9.32893E-12 4.44075E-11
1.07092E-11 4.43490E-11
1.21847E-11 4.42866E-11
1.37554E-11 4.42203E-11
1.54213E-11 4.41502E-11
1.71823E-11 4.40762E-11
1.90386E-11 4.39985E-11
2.09900E-11 4.39169E-11
2.30367E-11 4.38317E-11
2.51785E-11 4.37426E-11
2.74156E-11 4.36501E-11
2.97478E-11 4.35536E-11
3.21752E-11 4.34538E-11
3.46979E-11 4.33502E-11
3.73157E-11 4.32433E-11
4.00286E-11 4.31326E-11
4.28368E-11 4.30188E-11
4.57402E-11 4.29012E-11
4.87388E-11 4.27806E-11
5.18325E-11 4.26563E-11
5.50215E-11 4.25290E-11
5.83057E-11 4.23982E-11
6.16850E-11 4.22645E-11
6.51595E-11 4.21273E-11
6.87293E-11 4.19873E-11
7.23943E-11 4.18439E-11
7.61544E-11 4.16979E-11
1.18991E-10 4.00816E-11
1.71347E-10 3.82224E-11
2.33223E-10 3.61767E-11
3.04617E-10 3.40013E-11
3.85531E-10 3.16439E-11
4.75965E-10 2.94580E-11
5.75917E-10 2.71131E-11
6.85389E-10 2.49903E-11
8.04380E-10 2.27980E-11
9.32891E-10 2.08461E-11
1.07092E-09 1.88942E-11
1.21847E-09 1.71722E-11
1.37554E-09 1.54961E-11
1.54213E-09 1.40240E-11
1.71823E-09 1.26223E-11
1.90386E-09 1.13933E-11
2.09900E-09 1.02433E-11
2.30367E-09 9.23493E-12
2.51785E-09 8.30403E-12
2.74156E-09 7.48665E-12
2.97478E-09 6.73972E-12
3.21752E-09 6.08253E-12
3.46978E-09 5.48636E-12
3.73156E-09 4.96047E-12
4.00286E-09 4.48576E-12
4.28368E-09 4.06580E-12
4.57402E-09 3.68785E-12
4.87388E-09 3.35243E-12
5.18326E-09 3.05099E-12
5.50215E-09 2.78260E-12
5.83057E-09 2.54144E-12
6.16850E-09 2.32598E-12
6.51596E-09 2.13221E-12
6.87293E-09 1.95850E-12
7.23942E-09 1.80203E-12
7.61544E-09 1.66128E-12
1.18991E-08 8.09476E-13
1.71347E-08 4.55025E-13
2.33223E-08 2.81820E-13
3.04617E-08 1.85766E-13
3.85531E-08 1.27468E-13
4.75965E-08 9.00845E-14
5.75917E-08 6.51873E-14
6.85389E-08 4.81092E-14
8.04380E-08 3.60982E-14
9.32891E-08 2.75044E-14
1.07092E-07 2.12706E-14
1.21847E-07 1.66767E-14
1.37554E-07 1.32401E-14
1.54213E-07 1.06342E-14
1.71823E-07 8.63571E-15
1.90386E-07 7.08419E-15
2.09900E-07 5.86588E-15
2.30367E-07 4.89881E-15
2.51785E-07 4.12394E-15
2.74156E-07 3.49724E-15
2.97478E-07 2.98597E-15
3.21752E-07 2.56538E-15
3.46978E-07 2.21686E-15
3.73156E-07 1.92603E-15
4.00286E-07 1.68174E-15
4.28368E-07 1.47523E-15
4.57402E-07 1.29969E-15
4.87388E-07 1.14967E-15
5.18325E-07 1.02083E-15
5.50215E-07 9.09622E-16
5.83057E-07 8.13224E-16
6.16850E-07 7.29323E-16
6.51596E-07 6.56012E-16
6.87293E-07 5.91709E-16
7.23942E-07 5.35109E-16
7.61543E-07 4.85133E-16
1.18991E-06 2.03806E-16
1.71347E-06 9.98296E-17
2.33223E-06 5.44044E-17
3.04617E-06 3.20832E-17
3.85531E-06 2.01073E-17
4.75964E-06 1.32267E-17
5.75916E-06 9.05023E-18
6.85388E-06 6.39822E-18
8.04378E-06 4.64961E-18
9.32888E-06 3.45926E-18
1.07092E-05 2.62644E-18
1.21846E-05 2.02975E-18
1.37553E-05 1.59323E-18
1.54212E-05 1.26798E-18
1.71822E-05 1.02164E-18
1.90385E-05 8.32285E-19
2.09899E-05 6.84884E-19
2.30365E-05 5.68710E-19
2.51783E-05 4.76148E-19
2.74153E-05 4.01668E-19
2.97475E-05 3.41193E-19
3.21749E-05 2.91684E-19
3.46974E-05 2.50836E-19
3.73152E-05 2.16895E-19
4.00281E-05 1.88508E-19
4.28362E-05 1.64618E-19
4.57395E-05 1.44397E-19
4.87380E-05 1.27187E-19
5.18317E-05 1.12467E-19
5.50205E-05 9.98155E-20
5.83045E-05 8.88942E-20
6.16838E-05 7.94270E-20
6.51582E-05 7.11878E-20
6.87277E-05 6.39903E-20
7.23925E-05 5.76804E-20
7.61524E-05 5.21245E-20
9.21439E-05 3.56126E-20
1.09658E-04 2.51522E-20
1.28695E-04 1.82666E-20
1.49255E-04 1.35845E-20
1.71338E-04 1.03114E-20
1.94942E-04 7.96754E-21
2.20070E-04 6.25359E-21
2.46720E-04 4.97686E-21
2.74892E-04 4.01004E-21
3.04586E-04 3.26708E-21
3.35803E-04 2.68854E-21
3.68542E-04 2.23263E-21
4.02802E-04 1.86942E-21
4.38585E-04 1.57718E-21
4.75889E-04 1.33991E-21
5.14715E-04 1.14564E-21
5.55063E-04 9.85347E-22
5.96931E-04 8.52146E-22
6.40321E-04 7.40721E-22
6.85233E-04 6.46935E-22
7.31665E-04 5.67538E-22
7.79618E-04 4.99962E-22
8.29092E-04 4.42155E-22
8.80086E-04 3.92469E-22
9.32601E-04 3.49574E-22
9.86636E-04 3.12384E-22
1.04219E-03 2.80013E-22
1.09927E-03 2.51729E-22
1.15786E-03 2.26930E-22
1.21797E-03 2.05112E-22
1.27961E-03 1.85854E-22
1.34276E-03 1.68806E-22
1.40743E-03 1.53669E-22
1.47362E-03 1.40191E-22
1.54133E-03 1.28160E-22
1.61056E-03 1.17392E-22
1.68131E-03 1.07732E-22
1.75357E-03 9.90462E-23
1.82735E-03 9.12182E-23
1.90265E-03 8.41486E-23
1.97947E-03 7.77509E-23
2.05780E-03 7.19499E-23
2.13765E-03 6.66799E-23
2.21902E-03 6.18838E-23
2.30190E-03 5.75112E-23
2.38630E-03 5.35181E-23
2.47222E-03 4.98656E-23
2.55965E-03 4.65194E-23
2.64859E-03 4.34492E-23
2.73905E-03 4.06281E-23
2.83103E-03 3.80322E-23
2.92452E-03 3.56404E-23
3.01952E-03 3.34335E-23
3.11604E-03 3.13949E-23
3.21407E-03 2.95092E-23
3.31362E-03 2.77629E-23
3.41468E-03 2.61438E-23
3.51725E-03 2.46410E-23
3.62133E-03 2.32446E-23
3.72692E-03 2.19456E-23
3.83403E-03 2.07361E-23
3.94265E-03 1.96087E-23
4.05278E-03 1.85568E-23
4.16442E-03 1.75745E-23
4.27757E-03 1.66562E-23
4.39223E-03 1.57971E-23
4.50840E-03 1.49926E-23
4.62608E-03 1.42386E-23
4.74527E-03 1.35314E-23
4.86597E-03 1.28675E-23
4.98817E-03 1.22437E-23
5.11188E-03 1.16572E-23
5.23711E-03 1.11054E-23
5.36383E-03 1.05858E-23
5.49207E-03 1.00962E-23
5.62181E-03 9.63454E-24
5.75306E-03 9.19891E-24
5.88581E-03 8.78757E-24
6.02007E-03 8.39893E-24
6.15583E-03 8.03150E-24
6.29310E-03 7.68390E-24
6.43187E-03 7.35486E-24
6.57214E-03 7.04321E-24
6.71392E-03 6.74785E-24
6.85720E-03 6.46778E-24
7.00198E-03 6.20205E-24
7.14827E-03 5.94979E-24
7.29605E-03 5.71019E-24
7.44534E-03 5.48250E-24
7.59612E-03 5.26602E-24
7.97965E-03 4.76963E-24
8.37255E-03 4.33021E-24
8.77480E-03 3.94008E-24
9.18641E-03 3.59277E-24
9.60736E-03 3.28275E-24
1.00376E-02 3.00533E-24
1.04773E-02 2.75649E-24
1.09262E-02 2.53276E-24
1.13844E-02 2.33117E-24
1.18520E-02 2.14914E-24
1.23288E-02 1.98444E-24
1.28150E-02 1.83513E-24
1.33104E-02 1.69952E-24
1.38150E-02 1.57613E-24
1.43290E-02 1.46366E-24
1.48521E-02 1.36098E-24
1.53845E-02 1.26708E-24
1.59262E-02 1.18108E-24
1.64770E-02 1.10220E-24
1.70371E-02 1.02974E-24
1.76063E-02 9.63081E-25
1.81848E-02 9.01684E-25
1.87724E-02 8.45057E-25
1.93692E-02 7.92762E-25
1.99751E-02 7.44409E-25
2.05901E-02 6.99648E-25
2.12143E-02 6.58164E-25
2.18476E-02 6.19674E-25
2.24900E-02 5.83924E-25
2.31415E-02 5.50684E-25
2.38021E-02 5.19746E-25
2.44717E-02 4.90921E-25
2.51504E-02 4.64040E-25
2.58382E-02 4.38949E-25
2.65349E-02 4.15506E-25
2.72407E-02 3.93584E-25
2.79555E-02 3.73066E-25
2.86793E-02 3.53847E-25
2.94120E-02 3.35830E-25
3.01537E-02 3.18926E-25
3.09043E-02 3.03053E-25
3.16639E-02 2.88138E-25
3.24324E-02 2.74113E-25
3.32098E-02 2.60915E-25
3.39961E-02 2.48486E-25
3.47912E-02 2.36774E-25
3.55952E-02 2.25730E-25
3.64081E-02 2.15309E-25
3.72297E-02 2.05470E-25
3.80602E-02 1.96174E-25
3.88995E-02 1.87386E-25
3.97476E-02 1.79073E-25
4.06044E-02 1.71206E-25
4.14700E-02 1.63755E-25
4.23443E-02 1.56696E-25
4.32273E-02 1.50003E-25
4.41190E-02 1.43654E-25
4.50194E-02 1.37629E-25
4.59284E-02 1.31908E-25
4.68461E-02 1.26473E-25
4.87074E-02 1.16396E-25
5.06030E-02 1.07274E-25
5.25328E-02 9.90039E-26
5.44967E-02 9.14916E-26
5.64946E-02 8.46565E-26
5.85262E-02 7.84275E-26
6.05914E-02 7.27419E-26
6.26901E-02 6.75447E-26
6.48222E-02 6.27868E-26
6.69873E-02 5.84252E-26
6.91854E-02 5.44215E-26
7.14163E-02 5.07414E-26
7.36799E-02 4.73546E-26
7.59760E-02 4.42339E-26
7.83043E-02 4.13550E-26
8.06647E-02 3.86963E-26
8.30571E-02 3.62380E-26
8.54812E-02 3.39628E-26
8.79369E-02 3.18548E-26
9.04240E-02 2.98998E-26
9.29422E-02 2.80848E-26
9.54915E-02 2.63984E-26
9.80716E-02 2.48300E-26
1.00682E-01 2.33699E-26
1.03323E-01 2.20097E-26
1.05995E-01 2.07413E-26
1.08696E-01 1.95577E-26
1.11427E-01 1.84523E-26
1.14188E-01 1.74191E-26
1.16978E-01 1.64527E-26
1.19797E-01 1.55482E-26
1.22645E-01 1.47010E-26
1.25522E-01 1.39069E-26
1.28428E-01 1.31620E-26
1.31361E-01 1.24630E-26
1.34323E-01 1.18065E-26
1.37313E-01 1.11896E-26
1.40330E-01 1.06095E-26
1.43375E-01 1.00638E-26
1.46447E-01 9.55011E-27
1.49545E-01 9.06626E-27
1.52671E-01 8.61030E-27
1.55823E-01 8.18038E-27
1.59001E-01 7.77482E-27
1.62205E-01 7.39204E-27
1.65435E-01 7.03059E-27
1.68690E-01 6.68911E-27
1.71970E-01 6.36635E-27
1.75276E-01 6.06116E-27
1.78606E-01 5.77243E-27
1.81961E-01 5.49917E-27
1.85340E-01 5.24045E-27
1.88743E-01 4.99537E-27
1.92169E-01 4.76314E-27
1.95619E-01 4.54299E-27
1.99092E-01 4.33421E-27
2.02589E-01 4.13614E-27
2.06107E-01 3.94816E-27
2.09649E-01 3.76970E-27
2.13212E-01 3.60021E-27
2.16797E-01 3.43918E-27
2.20404E-01 3.28615E-27
2.24032E-01 3.14066E-27
2.27680E-01 3.00230E-27
2.31350E-01 2.87069E-27
2.35040E-01 2.74544E-27
2.38751E-01 2.62623E-27
2.42481E-01 2.51271E-27
2.46231E-01 2.40460E-27
2.50000E-01 2.30160E-27
2.53788E-01 2.20345E-27
2.57595E-01 2.10989E-27
2.61421E-01 2.02068E-27
2.65264E-01 1.93560E-27
2.69126E-01 1.85444E-27
2.73005E-01 1.77699E-27
2.76901E-01 1.70307E-27
2.80814E-01 1.63251E-27
2.84744E-01 1.56513E-27
2.88691E-01 1.50077E-27
2.92653E-01 1.43929E-27
2.96632E-01 1.38054E-27
3.00625E-01 1.32439E-27
3.04634E-01 1.27071E-27
3.08658E-01 1.21939E-27
3.12697E-01 1.17031E-27
3.16749E-01 1.12337E-27
3.20816E-01 1.07845E-27
3.24896E-01 1.03547E-27
3.28990E-01 9.94339E-28
3.33097E-01 9.54963E-28
3.37216E-01 9.17263E-28
3.41348E-01 8.81161E-28
3.45492E-01 8.46584E-28
3.49647E-01 8.13461E-28
3.53814E-01 7.81726E-28
3.57992E-01 7.51316E-28
3.62181E-01 7.22171E-28
3.66381E-01 6.94233E-28
3.70590E-01 6.67449E-28
3.74810E-01 6.41767E-28
3.79039E-01 6.17138E-28
3.83277E-01 5.93514E-28
3.87524E-01 5.70853E-28
3.91780E-01 5.49111E-28
3.96044E-01 5.28249E-28
4.00316E-01 5.08227E-28
4.04596E-01 4.89010E-28
4.08882E-01 4.70563E-28
4.13176E-01 4.52852E-28
4.17476E-01 4.35847E-28
4.21783E-01 4.19516E-28
4.26095E-01 4.03832E-28
4.30413E-01 3.88766E-28
4.34737E-01 3.74293E-28
4.39065E-01 3.60388E-28
4.43398E-01 3.47026E-28
4.47736E-01 3.34186E-28
4.52077E-01 3.21845E-28
4.56422E-01 3.09983E-28
4.60770E-01 2.98580E-28
4.65122E-01 2.87617E-28
4.69476E-01 2.77076E-28
4.73832E-01 2.66940E-28
4.78190E-01 2.57192E-28
4.82550E-01 2.47816E-28
4.86912E-01 2.38797E-28
4.91274E-01 2.30122E-28
4.95637E-01 2.21775E-28
5.00000E-01 2.13744E-28
5.04363E-01 2.06017E-28
5.08726E-01 1.98580E-28
5.13088E-01 1.91423E-28
5.17450E-01 1.84534E-28
5.21810E-01 1.77903E-28
5.26168E-01 1.71519E-28
5.30524E-01 1.65374E-28
5.34878E-01 1.59456E-28
5.39230E-01 1.53759E-28
5.43578E-01 1.48272E-28
5.47923E-01 1.42988E-28
5.52264E-01 1.37898E-28
5.56602E-01 1.32996E-28
5.60935E-01 1.28274E-28
5.65263E-01 1.23726E-28
5.69587E-01 1.19343E-28
5.73905E-01 1.15121E-28
5.78217E-01 1.11053E-28
5.82524E-01 1.07132E-28
5.86824E-01 1.03354E-28
5.91118E-01 9.97132E-29
5.95404E-01 9.62040E-29
5.99684E-01 9.28216E-29
6.03956E-01 8.95612E-29
6.08220E-01 8.64182E-29
6.12476E-01 8.33882E-29
6.16723E-01 8.04670E-29
6.20961E-01 7.76505E-29
6.25190E-01 7.49347E-29
6.29410E-01 7.23159E-29
6.33619E-01 6.97905E-29
6.37819E-01 6.73551E-29
6.42008E-01 6.50062E-29
6.46186E-01 6.27407E-29
6.50353E-01 6.05556E-29
6.54508E-01 5.84478E-29
6.58652E-01 5.64145E-29
6.62784E-01 5.44530E-29
6.66903E-01 5.25606E-29
6.71010E-01 5.07348E-29
6.75104E-01 4.89731E-29
6.79184E-01 4.72733E-29
6.83251E-01 4.56331E-29
6.87303E-01 4.40504E-29
6.91342E-01 4.25229E-29
6.95366E-01 4.10488E-29
6.99375E-01 3.96260E-29
7.03368E-01 3.82529E-29
7.07347E-01 3.69275E-29
7.11309E-01 3.56481E-29
7.15256E-01 3.44131E-29
7.19186E-01 3.32209E-29
7.23099E-01 3.20700E-29
7.26995E-01 3.09588E-29
7.30874E-01 2.98861E-29
7.34736E-01 2.88503E-29
7.38579E-01 2.78502E-29
7.42405E-01 2.68846E-29
7.46212E-01 2.59521E-29
7.50000E-01 2.50516E-29
7.53769E-01 2.41821E-29
7.57519E-01 2.33423E-29
7.61249E-01 2.25313E-29
7.64960E-01 2.17480E-29
7.68650E-01 2.09914E-29
7.72320E-01 2.02607E-29
7.75968E-01 1.95549E-29
7.79596E-01 1.88731E-29
7.83203E-01 1.82145E-29
7.86788E-01 1.75783E-29
7.90351E-01 1.69637E-29
7.93893E-01 1.63700E-29
7.97411E-01 1.57963E-29
8.00908E-01 1.52421E-29
8.04381E-01 1.47067E-29
8.07831E-01 1.41893E-29
8.11257E-01 1.36895E-29
8.14660E-01 1.32065E-29
8.18039E-01 1.27398E-29
8.21394E-01 1.22888E-29
8.24724E-01 1.18530E-29
8.28030E-01 1.14319E-29
8.31310E-01 1.10249E-29
8.34565E-01 1.06316E-29
8.37795E-01 1.02515E-29
8.40999E-01 9.88419E-30
8.44177E-01 9.52917E-30
8.47329E-01 9.18605E-30
8.50455E-01 8.85443E-30
8.53553E-01 8.53391E-30
8.56625E-01 8.22411E-30
8.59670E-01 7.92467E-30
8.62687E-01 7.63525E-30
8.65677E-01 7.35549E-30
8.68639E-01 7.08508E-30
8.71572E-01 6.82370E-30
8.74478E-01 6.57105E-30
8.77355E-01 6.32682E-30
8.80203E-01 6.09075E-30
8.83022E-01 5.86255E-30
8.85812E-01 5.64197E-30
8.88573E-01 5.42874E-30
8.91304E-01 5.22263E-30
8.94005E-01 5.02339E-30
8.96677E-01 4.83079E-30
8.99318E-01 4.64463E-30
9.01928E-01 4.46468E-30
9.04508E-01 4.29073E-30
9.07058E-01 4.12260E-30
9.09576E-01 3.96008E-30
9.12063E-01 3.80300E-30
9.14519E-01 3.65118E-30
9.16943E-01 3.50444E-30
9.19335E-01 3.36262E-30
9.21696E-01 3.22555E-30
9.24024E-01 3.09310E-30
9.26320E-01 2.96509E-30
9.28584E-01 2.84140E-30
9.30815E-01 2.72188E-30
9.33013E-01 2.60640E-30
9.35178E-01 2.49483E-30
9.37310E-01 2.38704E-30
9.39409E-01 2.28292E-30
9.41474E-01 2.18234E-30
9.43505E-01 2.08521E-30
9.45503E-01 1.99140E-30
9.47467E-01 1.90082E-30
9.49397E-01 1.81336E-30
9.51293E-01 1.72893E-30
9.53154E-01 1.64744E-30
9.54981E-01 1.56879E-30
9.56773E-01 1.49289E-30
9.58530E-01 1.41968E-30
9.60252E-01 1.34906E-30
9.61940E-01 1.28095E-30
9.63592E-01 1.21529E-30
9.65209E-01 1.15199E-30
9.66790E-01 1.09100E-30
9.68336E-01 1.03225E-30
9.69846E-01 9.75659E-31
9.71321E-01 9.21181E-31
9.72759E-01 8.68753E-31
9.74162E-01 8.18316E-31
9.75528E-01 7.69818E-31
9.76858E-01 7.23204E-31
9.78152E-01 6.78425E-31
9.79410E-01 6.35432E-31
9.80631E-01 5.94178E-31
9.81815E-01 5.54619E-31
9.82963E-01 5.16712E-31
9.84074E-01 4.80416E-31
9.85148E-01 4.45693E-31
9.86185E-01 4.12504E-31
9.87185E-01 3.80814E-31
9.88148E-01 3.50589E-31
9.89074E-01 3.21796E-31
9.89962E-01 2.94405E-31
9.90814E-01 2.68386E-31
9.91627E-01 2.43711E-31
9.92404E-01 2.20354E-31
9.93143E-01 1.98289E-31
9.93844E-01 1.77494E-31
9.94508E-01 1.57945E-31
9.95134E-01 1.39622E-31
9.95722E-01 1.22506E-31
9.96273E-01 1.06578E-31
9.96786E-01 9.18209E-32
9.97261E-01 7.82191E-32
9.97698E-01 6.57581E-32
9.98097E-01 5.44247E-32
9.98459E-01 4.42067E-32
9.98782E-01 3.50934E-32
9.99067E-01 2.70749E-32
9.99315E-01 2.01426E-32
9.99524E-01 1.42893E-32
9.99695E-01 9.50874E-33
9.99829E-01 5.79580E-33
9.99924E-01 3.14653E-33
9.99981E-01 1.55803E-33
1.00000E+00 1.02879E-33
