 #
 # Subroutine ELSEPA. Elastic scattering of electrons and positrons
 #                    by neutral atoms and positive ions
 #
 # Projectile: electron
 # Kinetic energy = 4.00000E+08 eV = 1.46997E+07 a.u.
 #
 # WARNING: High-energy factorization with free-atom DF screening.
 #          Absorption, polarization and exchange corrections are
 #          switched off.
 #          Phase shifts are calculated for the bare nucleus.
 #          Scattering amplitudes are not evaluated.
 #
 # Element:  F,  Z =   9,  atomic weight = 1.89984E+01 g/mol
 #
 # Nuclear model: Fermi distribution
 #                Average radius = 2.85511E-13 cm
 #                Skin thickness = 5.46000E-14 cm
 #
 # Number of electrons =  9
 #
 # Total elastic cross section = 2.84559E-19 cm**2 = 1.01618E-02 a0**2
 # 1st transport cross section = 1.12271E-27 cm**2 = 4.00927E-11 a0**2
 # 2nd transport cross section = 3.36439E-27 cm**2 = 1.20145E-10 a0**2
 #
 #
 # Differential cross section:                       MU=(1-COS(THETA))/2
 #
 #  THETA        MU          DCS          DCS        Sherman      error
 #  (deg)                 (cm**2/sr)   (a0**2/sr)    function
 #----------------------------------------------------------------------
0.00000E+00 1.99527E-10
7.61557E-13 1.97063E-10
1.18994E-12 1.95699E-10
1.71346E-12 1.94052E-10
2.33225E-12 1.92131E-10
3.04617E-12 1.89949E-10
3.85530E-12 1.87521E-10
4.75964E-12 1.84863E-10
5.75917E-12 1.81989E-10
6.85391E-12 1.78913E-10
8.04379E-12 1.75657E-10
9.32893E-12 1.72238E-10
1.07092E-11 1.68399E-10
1.21847E-11 1.64589E-10
1.37554E-11 1.60922E-10
1.54213E-11 1.57181E-10
1.71823E-11 1.52936E-10
1.90386E-11 1.48913E-10
2.09900E-11 1.45112E-10
2.30367E-11 1.40877E-10
2.51785E-11 1.36629E-10
2.74156E-11 1.32648E-10
2.97478E-11 1.28789E-10
3.21752E-11 1.24450E-10
3.46979E-11 1.20405E-10
3.73157E-11 1.16635E-10
4.00286E-11 1.12657E-10
4.28368E-11 1.08656E-10
4.57402E-11 1.04937E-10
4.87388E-11 1.01446E-10
5.18325E-11 9.75799E-11
5.50215E-11 9.39907E-11
5.83057E-11 9.06554E-11
6.16850E-11 8.72821E-11
6.51595E-11 8.38838E-11
6.87293E-11 8.07266E-11
7.23943E-11 7.77904E-11
7.61544E-11 7.46490E-11
1.18991E-10 4.97929E-11
1.71347E-10 3.29023E-11
2.33223E-10 2.18572E-11
3.04617E-10 1.47259E-11
3.85531E-10 1.01047E-11
4.75965E-10 7.07581E-12
5.75917E-10 5.05922E-12
6.85389E-10 3.69224E-12
8.04380E-10 2.74874E-12
9.32891E-10 2.08482E-12
1.07092E-09 1.60821E-12
1.21847E-09 1.26114E-12
1.37554E-09 1.00332E-12
1.54213E-09 8.08612E-13
1.71823E-09 6.59580E-13
1.90386E-09 5.43887E-13
2.09900E-09 4.52861E-13
2.30367E-09 3.80427E-13
2.51785E-09 3.22186E-13
2.74156E-09 2.74865E-13
2.97478E-09 2.36039E-13
3.21752E-09 2.03953E-13
3.46978E-09 1.77235E-13
3.73156E-09 1.54775E-13
4.00286E-09 1.35813E-13
4.28368E-09 1.19709E-13
4.57402E-09 1.05932E-13
4.87388E-09 9.40915E-14
5.18326E-09 8.38768E-14
5.50215E-09 7.50192E-14
5.83057E-09 6.72935E-14
6.16850E-09 6.05441E-14
6.51596E-09 5.46249E-14
6.87293E-09 4.94044E-14
7.23942E-09 4.47934E-14
7.61544E-09 4.07098E-14
1.18991E-08 1.73863E-14
1.71347E-08 8.58543E-15
2.33223E-08 4.69800E-15
3.04617E-08 2.77645E-15
3.85531E-08 1.74210E-15
4.75965E-08 1.14669E-15
5.75917E-08 7.84883E-16
6.85389E-08 5.54986E-16
8.04380E-08 4.03343E-16
9.32891E-08 3.00089E-16
1.07092E-07 2.27838E-16
1.21847E-07 1.76069E-16
1.37554E-07 1.38197E-16
1.54213E-07 1.09978E-16
1.71823E-07 8.86049E-17
1.90386E-07 7.21796E-17
2.09900E-07 5.93891E-17
2.30367E-07 4.93099E-17
2.51785E-07 4.12807E-17
2.74156E-07 3.48210E-17
2.97478E-07 2.95767E-17
3.21752E-07 2.52834E-17
3.46978E-07 2.17416E-17
3.73156E-07 1.87985E-17
4.00286E-07 1.63369E-17
4.28368E-07 1.42653E-17
4.57402E-07 1.25119E-17
4.87388E-07 1.10198E-17
5.18325E-07 9.74368E-18
5.50215E-07 8.64703E-18
5.83057E-07 7.70042E-18
6.16850E-07 6.87987E-18
6.51596E-07 6.16577E-18
6.87293E-07 5.54196E-18
7.23942E-07 4.99508E-18
7.61543E-07 4.51403E-18
1.18991E-06 1.84907E-18
1.71347E-06 8.91767E-19
2.33223E-06 4.81378E-19
3.04617E-06 2.82189E-19
3.85531E-06 1.76178E-19
4.75964E-06 1.15596E-19
5.75916E-06 7.89570E-20
6.85388E-06 5.57515E-20
8.04378E-06 4.04788E-20
9.32888E-06 3.00960E-20
1.07092E-05 2.28390E-20
1.21846E-05 1.76434E-20
1.37553E-05 1.38448E-20
1.54212E-05 1.10157E-20
1.71822E-05 8.87373E-21
1.90385E-05 7.22785E-21
2.09899E-05 5.94670E-21
2.30365E-05 4.93726E-21
2.51783E-05 4.13319E-21
2.74153E-05 3.48634E-21
2.97475E-05 2.96122E-21
3.21749E-05 2.53136E-21
3.46974E-05 2.17676E-21
3.73152E-05 1.88214E-21
4.00281E-05 1.63573E-21
4.28362E-05 1.42836E-21
4.57395E-05 1.25285E-21
4.87380E-05 1.10348E-21
5.18317E-05 9.75725E-22
5.50205E-05 8.65936E-22
5.83045E-05 7.71165E-22
6.16838E-05 6.89013E-22
6.51582E-05 6.17516E-22
6.87277E-05 5.55060E-22
7.23925E-05 5.00305E-22
7.61524E-05 4.50510E-22
9.21439E-05 3.07518E-22
1.09658E-04 2.16979E-22
1.28695E-04 1.57412E-22
1.49255E-04 1.16932E-22
1.71338E-04 8.86507E-23
1.94942E-04 6.84122E-23
2.20070E-04 5.36228E-23
2.46720E-04 4.26141E-23
2.74892E-04 3.42841E-23
3.04586E-04 2.78880E-23
3.35803E-04 2.29116E-23
3.68542E-04 1.89934E-23
4.02802E-04 1.58748E-23
4.38585E-04 1.33681E-23
4.75889E-04 1.13348E-23
5.14715E-04 9.67170E-24
5.55063E-04 8.30101E-24
5.96931E-04 7.16324E-24
6.40321E-04 6.21257E-24
6.85233E-04 5.41334E-24
7.31665E-04 4.73758E-24
7.79618E-04 4.16315E-24
8.29092E-04 3.67240E-24
8.80086E-04 3.25117E-24
9.32601E-04 2.88801E-24
9.86636E-04 2.57361E-24
1.04219E-03 2.30034E-24
1.09927E-03 2.06195E-24
1.15786E-03 1.85324E-24
1.21797E-03 1.66992E-24
1.27961E-03 1.50837E-24
1.34276E-03 1.36560E-24
1.40743E-03 1.23904E-24
1.47362E-03 1.12657E-24
1.54133E-03 1.02634E-24
1.61056E-03 9.36800E-25
1.68131E-03 8.56625E-25
1.75357E-03 7.84669E-25
1.82735E-03 7.19950E-25
1.90265E-03 6.61619E-25
1.97947E-03 6.08939E-25
2.05780E-03 5.61272E-25
2.13765E-03 5.18061E-25
2.21902E-03 4.78821E-25
2.30190E-03 4.43125E-25
2.38630E-03 4.10601E-25
2.47222E-03 3.80920E-25
2.55965E-03 3.53791E-25
2.64859E-03 3.28960E-25
2.73905E-03 3.06199E-25
2.83103E-03 2.85307E-25
2.92452E-03 2.66106E-25
3.01952E-03 2.48436E-25
3.11604E-03 2.32154E-25
3.21407E-03 2.17134E-25
3.31362E-03 2.03263E-25
3.41468E-03 1.90437E-25
3.51725E-03 1.78566E-25
3.62133E-03 1.67566E-25
3.72692E-03 1.57364E-25
3.83403E-03 1.47891E-25
3.94265E-03 1.39089E-25
4.05278E-03 1.30901E-25
4.16442E-03 1.23277E-25
4.27757E-03 1.16173E-25
4.39223E-03 1.09548E-25
4.50840E-03 1.03364E-25
4.62608E-03 9.75874E-26
4.74527E-03 9.21867E-26
4.86597E-03 8.71338E-26
4.98817E-03 8.24029E-26
5.11188E-03 7.79701E-26
5.23711E-03 7.38139E-26
5.36383E-03 6.99142E-26
5.49207E-03 6.62529E-26
5.62181E-03 6.28131E-26
5.75306E-03 5.95794E-26
5.88581E-03 5.65375E-26
6.02007E-03 5.36744E-26
6.15583E-03 5.09779E-26
6.29310E-03 4.84370E-26
6.43187E-03 4.60413E-26
6.57214E-03 4.37813E-26
6.71392E-03 4.16482E-26
6.85720E-03 3.96338E-26
7.00198E-03 3.77305E-26
7.14827E-03 3.59314E-26
7.29605E-03 3.42298E-26
7.44534E-03 3.26199E-26
7.59612E-03 3.10958E-26
7.97965E-03 2.76282E-26
8.37255E-03 2.45934E-26
8.77480E-03 2.19308E-26
9.18641E-03 1.95889E-26
9.60736E-03 1.75245E-26
1.00376E-02 1.57008E-26
1.04773E-02 1.40864E-26
1.09262E-02 1.26545E-26
1.13844E-02 1.13821E-26
1.18520E-02 1.02496E-26
1.23288E-02 9.23979E-27
1.28150E-02 8.33807E-27
1.33104E-02 7.53164E-27
1.38150E-02 6.80941E-27
1.43290E-02 6.16173E-27
1.48521E-02 5.58016E-27
1.53845E-02 5.05731E-27
1.59262E-02 4.58672E-27
1.64770E-02 4.16271E-27
1.70371E-02 3.78026E-27
1.76063E-02 3.43497E-27
1.81848E-02 3.12293E-27
1.87724E-02 2.84069E-27
1.93692E-02 2.58519E-27
1.99751E-02 2.35372E-27
2.05901E-02 2.14386E-27
2.12143E-02 1.95345E-27
2.18476E-02 1.78058E-27
2.24900E-02 1.62353E-27
2.31415E-02 1.48077E-27
2.38021E-02 1.35092E-27
2.44717E-02 1.23275E-27
2.51504E-02 1.12516E-27
2.58382E-02 1.02716E-27
2.65349E-02 9.37856E-28
2.72407E-02 8.56436E-28
2.79555E-02 7.82180E-28
2.86793E-02 7.14434E-28
2.94120E-02 6.52605E-28
3.01537E-02 5.96162E-28
3.09043E-02 5.44620E-28
3.16639E-02 4.97541E-28
3.24324E-02 4.54530E-28
3.32098E-02 4.15228E-28
3.39961E-02 3.79307E-28
3.47912E-02 3.46472E-28
3.55952E-02 3.16453E-28
3.64081E-02 2.89006E-28
3.72297E-02 2.63907E-28
3.80602E-02 2.40955E-28
3.88995E-02 2.19965E-28
3.97476E-02 2.00768E-28
4.06044E-02 1.83210E-28
4.14700E-02 1.67152E-28
4.23443E-02 1.52466E-28
4.32273E-02 1.39036E-28
4.41190E-02 1.26754E-28
4.50194E-02 1.15524E-28
4.59284E-02 1.05256E-28
4.68461E-02 9.58688E-29
4.87074E-02 7.94468E-29
5.06030E-02 6.57349E-29
5.25328E-02 5.42952E-29
5.44967E-02 4.47603E-29
5.64946E-02 3.68220E-29
5.85262E-02 3.02214E-29
6.05914E-02 2.47412E-29
6.26901E-02 2.01986E-29
6.48222E-02 1.64400E-29
6.69873E-02 1.33365E-29
6.91854E-02 1.07797E-29
7.14163E-02 8.67839E-30
7.36799E-02 6.95628E-30
7.59760E-02 5.54919E-30
7.83043E-02 4.40334E-30
8.06647E-02 3.47369E-30
8.30571E-02 2.72256E-30
8.54812E-02 2.11846E-30
8.79369E-02 1.63510E-30
9.04240E-02 1.25059E-30
9.29422E-02 9.46724E-31
9.54915E-02 7.08390E-31
9.80716E-02 5.23072E-31
1.00682E-01 3.80437E-31
1.03323E-01 2.71970E-31
1.05995E-01 1.90681E-31
1.08696E-01 1.30853E-31
1.11427E-01 8.78235E-32
1.14188E-01 5.78120E-32
1.16978E-01 3.77656E-32
1.19797E-01 2.52341E-32
1.22645E-01 1.82638E-32
1.25522E-01 1.53085E-32
1.28428E-01 1.51556E-32
1.31361E-01 1.68646E-32
1.34323E-01 1.97149E-32
1.37313E-01 2.31636E-32
1.40330E-01 2.68104E-32
1.43375E-01 3.03676E-32
1.46447E-01 3.36370E-32
1.49545E-01 3.64899E-32
1.52671E-01 3.88510E-32
1.55823E-01 4.06857E-32
1.59001E-01 4.19895E-32
1.62205E-01 4.27795E-32
1.65435E-01 4.30883E-32
1.68690E-01 4.29580E-32
1.71970E-01 4.24367E-32
1.75276E-01 4.15755E-32
1.78606E-01 4.04255E-32
1.81961E-01 3.90368E-32
1.85340E-01 3.74569E-32
1.88743E-01 3.57299E-32
1.92169E-01 3.38960E-32
1.95619E-01 3.19916E-32
1.99092E-01 3.00485E-32
2.02589E-01 2.80947E-32
2.06107E-01 2.61539E-32
2.09649E-01 2.42463E-32
2.13212E-01 2.23883E-32
2.16797E-01 2.05933E-32
2.20404E-01 1.88718E-32
2.24032E-01 1.72316E-32
2.27680E-01 1.56784E-32
2.31350E-01 1.42156E-32
2.35040E-01 1.28451E-32
2.38751E-01 1.15675E-32
2.42481E-01 1.03818E-32
2.46231E-01 9.28636E-33
2.50000E-01 8.27846E-33
2.53788E-01 7.35488E-33
2.57595E-01 6.51189E-33
2.61421E-01 5.74541E-33
2.65264E-01 5.05111E-33
2.69126E-01 4.42453E-33
2.73005E-01 3.86114E-33
2.76901E-01 3.35643E-33
2.80814E-01 2.90595E-33
2.84744E-01 2.50538E-33
2.88691E-01 2.15053E-33
2.92653E-01 1.83738E-33
2.96632E-01 1.56214E-33
3.00625E-01 1.32121E-33
3.04634E-01 1.11120E-33
3.08658E-01 9.28962E-34
3.12697E-01 7.71569E-34
3.16749E-01 6.36311E-34
3.20816E-01 5.20697E-34
3.24896E-01 4.22442E-34
3.28990E-01 3.39466E-34
3.33097E-01 2.69878E-34
3.37216E-01 2.11968E-34
3.41348E-01 1.64195E-34
3.45492E-01 1.25179E-34
3.49647E-01 9.36834E-35
3.53814E-01 6.86100E-35
3.57992E-01 4.89858E-35
3.62181E-01 3.39520E-35
3.66381E-01 2.27537E-35
3.70590E-01 1.47317E-35
3.74810E-01 9.31229E-36
3.79039E-01 5.99890E-36
3.83277E-01 4.36441E-36
3.87524E-01 4.04325E-36
3.91780E-01 4.72483E-36
3.96044E-01 6.14730E-36
4.00316E-01 8.09191E-36
4.04596E-01 1.03765E-35
4.08882E-01 1.28533E-35
4.13176E-01 1.54016E-35
4.17476E-01 1.79259E-35
4.21783E-01 2.03516E-35
4.26095E-01 2.26226E-35
4.30413E-01 2.46972E-35
4.34737E-01 2.65475E-35
4.39065E-01 2.81557E-35
4.43398E-01 2.95120E-35
4.47736E-01 3.06157E-35
4.52077E-01 3.14700E-35
4.56422E-01 3.20833E-35
4.60770E-01 3.24675E-35
4.65122E-01 3.26370E-35
4.69476E-01 3.26072E-35
4.73832E-01 3.23955E-35
4.78190E-01 3.20199E-35
4.82550E-01 3.14983E-35
4.86912E-01 3.08487E-35
4.91274E-01 3.00880E-35
4.95637E-01 2.92328E-35
5.00000E-01 2.82985E-35
5.04363E-01 2.73013E-35
5.08726E-01 2.62535E-35
5.13088E-01 2.51691E-35
5.17450E-01 2.40585E-35
5.21810E-01 2.29331E-35
5.26168E-01 2.18025E-35
5.30524E-01 2.06740E-35
5.34878E-01 1.95560E-35
5.39230E-01 1.84543E-35
5.43578E-01 1.73747E-35
5.47923E-01 1.63221E-35
5.52264E-01 1.52998E-35
5.56602E-01 1.43113E-35
5.60935E-01 1.33595E-35
5.65263E-01 1.24454E-35
5.69587E-01 1.15709E-35
5.73905E-01 1.07372E-35
5.78217E-01 9.94423E-36
5.82524E-01 9.19265E-36
5.86824E-01 8.48169E-36
5.91118E-01 7.81130E-36
5.95404E-01 7.18056E-36
5.99684E-01 6.58844E-36
6.03956E-01 6.03393E-36
6.08220E-01 5.51617E-36
6.12476E-01 5.03331E-36
6.16723E-01 4.58417E-36
6.20961E-01 4.16728E-36
6.25190E-01 3.78110E-36
6.29410E-01 3.42408E-36
6.33619E-01 3.09468E-36
6.37819E-01 2.79148E-36
6.42008E-01 2.51275E-36
6.46186E-01 2.25723E-36
6.50353E-01 2.02331E-36
6.54508E-01 1.80965E-36
6.58652E-01 1.61484E-36
6.62784E-01 1.43769E-36
6.66903E-01 1.27687E-36
6.71010E-01 1.13105E-36
6.75104E-01 9.99325E-37
6.79184E-01 8.80428E-37
6.83251E-01 7.73445E-37
6.87303E-01 6.77393E-37
6.91342E-01 5.91300E-37
6.95366E-01 5.14308E-37
6.99375E-01 4.45769E-37
7.03368E-01 3.84819E-37
7.07347E-01 3.30760E-37
7.11309E-01 2.82981E-37
7.15256E-01 2.40910E-37
7.19186E-01 2.03985E-37
7.23099E-01 1.71681E-37
7.26995E-01 1.43541E-37
7.30874E-01 1.19155E-37
7.34736E-01 9.80986E-38
7.38579E-01 8.00172E-38
7.42405E-01 6.46032E-38
7.46212E-01 5.15421E-38
7.50000E-01 4.05575E-38
7.53769E-01 3.14262E-38
7.57519E-01 2.38882E-38
7.61249E-01 1.77661E-38
7.64960E-01 1.28738E-38
7.68650E-01 9.03891E-39
7.72320E-01 6.11995E-39
7.75968E-01 3.98784E-39
7.79596E-01 2.52241E-39
7.83203E-01 1.61958E-39
7.86788E-01 1.18646E-39
7.90351E-01 1.14503E-39
7.93893E-01 1.41649E-39
7.97411E-01 1.94619E-39
8.00908E-01 2.67100E-39
8.04381E-01 3.55059E-39
8.07831E-01 4.53861E-39
8.11257E-01 5.61235E-39
8.14660E-01 6.72051E-39
8.18039E-01 7.85099E-39
8.21394E-01 8.97961E-39
8.24724E-01 1.00955E-38
8.28030E-01 1.11698E-38
8.31310E-01 1.22000E-38
8.34565E-01 1.31799E-38
8.37795E-01 1.40979E-38
8.40999E-01 1.49395E-38
8.44177E-01 1.57167E-38
8.47329E-01 1.64131E-38
8.50455E-01 1.70444E-38
8.53553E-01 1.75908E-38
8.56625E-01 1.80617E-38
8.59670E-01 1.84574E-38
8.62687E-01 1.87847E-38
8.65677E-01 1.90533E-38
8.68639E-01 1.92350E-38
8.71572E-01 1.93683E-38
8.74478E-01 1.94347E-38
8.77355E-01 1.94490E-38
8.80203E-01 1.94067E-38
8.83022E-01 1.93155E-38
8.85812E-01 1.91816E-38
8.88573E-01 1.90032E-38
8.91304E-01 1.87817E-38
8.94005E-01 1.85325E-38
8.96677E-01 1.82587E-38
8.99318E-01 1.79501E-38
9.01928E-01 1.76126E-38
9.04508E-01 1.72537E-38
9.07058E-01 1.68853E-38
9.09576E-01 1.65019E-38
9.12063E-01 1.60936E-38
9.14519E-01 1.56829E-38
9.16943E-01 1.52548E-38
9.19335E-01 1.48292E-38
9.21696E-01 1.43955E-38
9.24024E-01 1.39629E-38
9.26320E-01 1.35174E-38
9.28584E-01 1.30741E-38
9.30815E-01 1.26269E-38
9.33013E-01 1.21964E-38
9.35178E-01 1.17560E-38
9.37310E-01 1.13190E-38
9.39409E-01 1.08904E-38
9.41474E-01 1.04637E-38
9.43505E-01 1.00456E-38
9.45503E-01 9.63339E-39
9.47467E-01 9.23118E-39
9.49397E-01 8.83365E-39
9.51293E-01 8.44584E-39
9.53154E-01 8.07506E-39
9.54981E-01 7.69338E-39
9.56773E-01 7.33531E-39
9.58530E-01 6.98327E-39
9.60252E-01 6.64555E-39
9.61940E-01 6.30893E-39
9.63592E-01 5.98520E-39
9.65209E-01 5.67678E-39
9.66790E-01 5.37838E-39
9.68336E-01 5.08776E-39
9.69846E-01 4.80694E-39
9.71321E-01 4.53764E-39
9.72759E-01 4.27506E-39
9.74162E-01 4.02370E-39
9.75528E-01 3.77548E-39
9.76858E-01 3.55144E-39
9.78152E-01 3.32742E-39
9.79410E-01 3.12062E-39
9.80631E-01 2.91258E-39
9.81815E-01 2.71826E-39
9.82963E-01 2.52558E-39
9.84074E-01 2.34891E-39
9.85148E-01 2.17632E-39
9.86185E-01 2.01110E-39
9.87185E-01 1.85536E-39
9.88148E-01 1.70304E-39
9.89074E-01 1.56189E-39
9.89962E-01 1.42755E-39
9.90814E-01 1.29736E-39
9.91627E-01 1.17184E-39
9.92404E-01 1.06241E-39
9.93143E-01 9.53617E-40
9.93844E-01 8.47624E-40
9.94508E-01 7.51691E-40
9.95134E-01 6.62332E-40
9.95722E-01 5.77371E-40
9.96273E-01 5.03215E-40
9.96786E-01 4.28653E-40
9.97261E-01 3.63352E-40
9.97698E-01 3.02925E-40
9.98097E-01 2.49024E-40
9.98459E-01 2.01846E-40
9.98782E-01 1.58030E-40
9.99067E-01 1.21850E-40
9.99315E-01 8.83326E-41
9.99524E-01 6.22917E-41
9.99695E-01 3.94168E-41
9.99829E-01 2.44293E-41
9.99924E-01 9.98943E-42
9.99981E-01 3.11105E-42
1.00000E+00 7.26541E-42
