 #
 # Subroutine ELSEPA. Elastic scattering of electrons and positrons
 #                    by neutral atoms and positive ions
 #
 # Projectile: electron
 # Kinetic energy = 6.00000E+07 eV = 2.20496E+06 a.u.
 #
 # WARNING: High-energy factorization with free-atom DF screening.
 #          Absorption, polarization and exchange corrections are
 #          switched off.
 #          Phase shifts are calculated for the bare nucleus.
 #          Scattering amplitudes are not evaluated.
 #
 # Element:  F,  Z =   9,  atomic weight = 1.89984E+01 g/mol
 #
 # Nuclear model: Fermi distribution
 #                Average radius = 2.85511E-13 cm
 #                Skin thickness = 5.46000E-14 cm
 #
 # Number of electrons =  9
 #
 # Total elastic cross section = 2.84777E-19 cm**2 = 1.01696E-02 a0**2
 # 1st transport cross section = 4.73697E-26 cm**2 = 1.69160E-09 a0**2
 # 2nd transport cross section = 1.38951E-25 cm**2 = 4.96204E-09 a0**2
 #
 #
 # Differential cross section:                       MU=(1-COS(THETA))/2
 #
 #  THETA        MU          DCS          DCS        Sherman      error
 #  (deg)                 (cm**2/sr)   (a0**2/sr)    function
 #----------------------------------------------------------------------
0.00000E+00 4.55452E-12
7.61557E-13 4.55319E-12
1.18994E-12 4.55246E-12
1.71346E-12 4.55157E-12
2.33225E-12 4.55051E-12
3.04617E-12 4.54929E-12
3.85530E-12 4.54792E-12
4.75964E-12 4.54638E-12
5.75917E-12 4.54468E-12
6.85391E-12 4.54283E-12
8.04379E-12 4.54081E-12
9.32893E-12 4.53863E-12
1.07092E-11 4.53630E-12
1.21847E-11 4.53380E-12
1.37554E-11 4.53115E-12
1.54213E-11 4.52834E-12
1.71823E-11 4.52538E-12
1.90386E-11 4.52225E-12
2.09900E-11 4.51898E-12
2.30367E-11 4.51554E-12
2.51785E-11 4.51195E-12
2.74156E-11 4.50820E-12
2.97478E-11 4.50430E-12
3.21752E-11 4.50025E-12
3.46979E-11 4.49604E-12
3.73157E-11 4.49169E-12
4.00286E-11 4.48717E-12
4.28368E-11 4.48251E-12
4.57402E-11 4.47770E-12
4.87388E-11 4.47273E-12
5.18325E-11 4.46764E-12
5.50215E-11 4.46236E-12
5.83057E-11 4.45697E-12
6.16850E-11 4.45141E-12
6.51595E-11 4.44571E-12
6.87293E-11 4.43988E-12
7.23943E-11 4.43388E-12
7.61544E-11 4.42777E-12
1.18991E-10 4.35882E-12
1.71347E-10 4.27669E-12
2.33223E-10 4.18258E-12
3.04617E-10 4.07776E-12
3.85531E-10 3.96349E-12
4.75965E-10 3.83445E-12
5.75917E-10 3.70481E-12
6.85389E-10 3.57508E-12
8.04380E-10 3.43163E-12
9.32891E-10 3.29974E-12
1.07092E-09 3.15086E-12
1.21847E-09 3.01281E-12
1.37554E-09 2.87137E-12
1.54213E-09 2.73125E-12
1.71823E-09 2.59982E-12
1.90386E-09 2.46141E-12
2.09900E-09 2.33742E-12
2.30367E-09 2.20742E-12
2.51785E-09 2.08802E-12
2.74156E-09 1.97172E-12
2.97478E-09 1.85885E-12
3.21752E-09 1.75544E-12
3.46978E-09 1.65044E-12
3.73156E-09 1.55633E-12
4.00286E-09 1.46244E-12
4.28368E-09 1.37594E-12
4.57402E-09 1.29393E-12
4.87388E-09 1.21529E-12
5.18326E-09 1.14368E-12
5.50215E-09 1.07281E-12
5.83057E-09 1.00882E-12
6.16850E-09 9.46858E-13
6.51596E-09 8.89499E-13
6.87293E-09 8.35803E-13
7.23942E-09 7.84676E-13
7.61544E-09 7.38068E-13
1.18991E-08 4.00116E-13
1.71347E-08 2.25247E-13
2.33223E-08 1.32810E-13
3.04617E-08 8.21050E-14
3.85531E-08 5.30837E-14
4.75965E-08 3.57343E-14
5.75917E-08 2.49475E-14
6.85389E-08 1.79666E-14
8.04380E-08 1.32918E-14
9.32891E-08 1.00639E-14
1.07092E-07 7.77370E-15
1.21847E-07 6.10922E-15
1.37554E-07 4.87353E-15
1.54213E-07 3.93911E-15
1.71823E-07 3.22081E-15
1.90386E-07 2.66055E-15
2.09900E-07 2.21789E-15
2.30367E-07 1.86407E-15
2.51785E-07 1.57833E-15
2.74156E-07 1.34541E-15
2.97478E-07 1.15392E-15
3.21752E-07 9.95284E-16
3.46978E-07 8.62936E-16
3.73156E-07 7.51803E-16
4.00286E-07 6.57926E-16
4.28368E-07 5.78186E-16
4.57402E-07 5.10105E-16
4.87388E-07 4.51688E-16
5.18325E-07 4.01347E-16
5.50215E-07 3.57784E-16
5.83057E-07 3.19938E-16
6.16850E-07 2.86934E-16
6.51596E-07 2.58051E-16
6.87293E-07 2.32688E-16
7.23942E-07 2.10347E-16
7.61543E-07 1.90607E-16
1.18991E-06 7.94890E-17
1.71347E-06 3.86606E-17
2.33223E-06 2.09590E-17
3.04617E-06 1.23153E-17
3.85531E-06 7.69922E-18
4.75964E-06 5.05590E-18
5.75916E-06 3.45525E-18
6.85388E-06 2.44061E-18
8.04378E-06 1.77246E-18
9.32888E-06 1.31805E-18
1.07092E-05 1.00035E-18
1.21846E-05 7.72851E-19
1.37553E-05 6.06498E-19
1.54212E-05 4.82590E-19
1.71822E-05 3.88759E-19
1.90385E-05 3.16656E-19
2.09899E-05 2.60531E-19
2.30365E-05 2.16307E-19
2.51783E-05 1.81082E-19
2.74153E-05 1.52743E-19
2.97475E-05 1.29737E-19
3.21749E-05 1.10905E-19
3.46974E-05 9.53690E-20
3.73152E-05 8.24613E-20
4.00281E-05 7.16658E-20
4.28362E-05 6.25807E-20
4.57395E-05 5.48909E-20
4.87380E-05 4.83469E-20
5.18317E-05 4.27496E-20
5.50205E-05 3.79395E-20
5.83045E-05 3.37873E-20
6.16838E-05 3.01880E-20
6.51582E-05 2.70556E-20
6.87277E-05 2.43192E-20
7.23925E-05 2.19202E-20
7.61524E-05 1.98083E-20
9.21439E-05 1.35315E-20
1.09658E-04 9.55558E-21
1.28695E-04 6.93866E-21
1.49255E-04 5.15941E-21
1.71338E-04 3.91572E-21
1.94942E-04 3.02523E-21
2.20070E-04 2.37412E-21
2.46720E-04 1.88916E-21
2.74892E-04 1.52196E-21
3.04586E-04 1.23981E-21
3.35803E-04 1.02013E-21
3.68542E-04 8.47022E-22
4.02802E-04 7.09134E-22
4.38585E-04 5.98201E-22
4.75889E-04 5.08140E-22
5.14715E-04 4.34411E-22
5.55063E-04 3.73584E-22
5.96931E-04 3.23042E-22
6.40321E-04 2.80767E-22
6.85233E-04 2.45188E-22
7.31665E-04 2.15071E-22
7.79618E-04 1.89440E-22
8.29092E-04 1.67517E-22
8.80086E-04 1.48676E-22
9.32601E-04 1.32411E-22
9.86636E-04 1.18311E-22
1.04219E-03 1.06039E-22
1.09927E-03 9.53179E-23
1.15786E-03 8.59184E-23
1.21797E-03 7.76495E-23
1.27961E-03 7.03520E-23
1.34276E-03 6.38920E-23
1.40743E-03 5.81568E-23
1.47362E-03 5.30510E-23
1.54133E-03 4.84934E-23
1.61056E-03 4.44149E-23
1.68131E-03 4.07563E-23
1.75357E-03 3.74668E-23
1.82735E-03 3.45025E-23
1.90265E-03 3.18257E-23
1.97947E-03 2.94034E-23
2.05780E-03 2.72073E-23
2.13765E-03 2.52124E-23
2.21902E-03 2.33971E-23
2.30190E-03 2.17422E-23
2.38630E-03 2.02310E-23
2.47222E-03 1.88488E-23
2.55965E-03 1.75827E-23
2.64859E-03 1.64211E-23
2.73905E-03 1.53538E-23
2.83103E-03 1.43718E-23
2.92452E-03 1.34670E-23
3.01952E-03 1.26323E-23
3.11604E-03 1.18613E-23
3.21407E-03 1.11482E-23
3.31362E-03 1.04878E-23
3.41468E-03 9.87564E-24
3.51725E-03 9.30745E-24
3.62133E-03 8.77951E-24
3.72692E-03 8.28846E-24
3.83403E-03 7.83125E-24
3.94265E-03 7.40511E-24
4.05278E-03 7.00754E-24
4.16442E-03 6.63629E-24
4.27757E-03 6.28927E-24
4.39223E-03 5.96463E-24
4.50840E-03 5.66065E-24
4.62608E-03 5.37577E-24
4.74527E-03 5.10857E-24
4.86597E-03 4.85776E-24
4.98817E-03 4.62213E-24
5.11188E-03 4.40060E-24
5.23711E-03 4.19218E-24
5.36383E-03 3.99593E-24
5.49207E-03 3.81102E-24
5.62181E-03 3.63667E-24
5.75306E-03 3.47216E-24
5.88581E-03 3.31684E-24
6.02007E-03 3.17010E-24
6.15583E-03 3.03137E-24
6.29310E-03 2.90013E-24
6.43187E-03 2.77591E-24
6.57214E-03 2.65826E-24
6.71392E-03 2.54677E-24
6.85720E-03 2.44105E-24
7.00198E-03 2.34075E-24
7.14827E-03 2.24555E-24
7.29605E-03 2.15512E-24
7.44534E-03 2.06919E-24
7.59612E-03 1.98749E-24
7.97965E-03 1.80018E-24
8.37255E-03 1.63438E-24
8.77480E-03 1.48720E-24
9.18641E-03 1.35617E-24
9.60736E-03 1.23923E-24
1.00376E-02 1.13460E-24
1.04773E-02 1.04074E-24
1.09262E-02 9.56370E-25
1.13844E-02 8.80349E-25
1.18520E-02 8.11708E-25
1.23288E-02 7.49606E-25
1.28150E-02 6.93309E-25
1.33104E-02 6.42179E-25
1.38150E-02 5.95658E-25
1.43290E-02 5.53256E-25
1.48521E-02 5.14544E-25
1.53845E-02 4.79144E-25
1.59262E-02 4.46721E-25
1.64770E-02 4.16982E-25
1.70371E-02 3.89663E-25
1.76063E-02 3.64533E-25
1.81848E-02 3.41385E-25
1.87724E-02 3.20034E-25
1.93692E-02 3.00317E-25
1.99751E-02 2.82085E-25
2.05901E-02 2.65206E-25
2.12143E-02 2.49563E-25
2.18476E-02 2.35047E-25
2.24900E-02 2.21564E-25
2.31415E-02 2.09027E-25
2.38021E-02 1.97357E-25
2.44717E-02 1.86483E-25
2.51504E-02 1.76342E-25
2.58382E-02 1.66874E-25
2.65349E-02 1.58028E-25
2.72407E-02 1.49755E-25
2.79555E-02 1.42011E-25
2.86793E-02 1.34756E-25
2.94120E-02 1.27953E-25
3.01537E-02 1.21570E-25
3.09043E-02 1.15576E-25
3.16639E-02 1.09943E-25
3.24324E-02 1.04645E-25
3.32098E-02 9.96579E-26
3.39961E-02 9.49612E-26
3.47912E-02 9.05345E-26
3.55952E-02 8.63594E-26
3.64081E-02 8.24192E-26
3.72297E-02 7.86981E-26
3.80602E-02 7.51817E-26
3.88995E-02 7.18569E-26
3.97476E-02 6.87111E-26
4.06044E-02 6.57331E-26
4.14700E-02 6.29122E-26
4.23443E-02 6.02387E-26
4.32273E-02 5.77035E-26
4.41190E-02 5.52981E-26
4.50194E-02 5.30147E-26
4.59284E-02 5.08459E-26
4.68461E-02 4.87850E-26
4.87074E-02 4.49619E-26
5.06030E-02 4.14996E-26
5.25328E-02 3.83582E-26
5.44967E-02 3.55029E-26
5.64946E-02 3.29032E-26
5.85262E-02 3.05324E-26
6.05914E-02 2.83668E-26
6.26901E-02 2.63856E-26
6.48222E-02 2.45705E-26
6.69873E-02 2.29052E-26
6.91854E-02 2.13752E-26
7.14163E-02 1.99676E-26
7.36799E-02 1.86710E-26
7.59760E-02 1.74751E-26
7.83043E-02 1.63708E-26
8.06647E-02 1.53500E-26
8.30571E-02 1.44051E-26
8.54812E-02 1.35296E-26
8.79369E-02 1.27176E-26
9.04240E-02 1.19636E-26
9.29422E-02 1.12629E-26
9.54915E-02 1.06110E-26
9.80716E-02 1.00040E-26
1.00682E-01 9.43818E-27
1.03323E-01 8.91037E-27
1.05995E-01 8.41757E-27
1.08696E-01 7.95708E-27
1.11427E-01 7.52641E-27
1.14188E-01 7.12332E-27
1.16978E-01 6.74575E-27
1.19797E-01 6.39182E-27
1.22645E-01 6.05980E-27
1.25522E-01 5.74812E-27
1.28428E-01 5.45532E-27
1.31361E-01 5.18008E-27
1.34323E-01 4.92117E-27
1.37313E-01 4.67747E-27
1.40330E-01 4.44793E-27
1.43375E-01 4.23161E-27
1.46447E-01 4.02761E-27
1.49545E-01 3.83512E-27
1.52671E-01 3.65340E-27
1.55823E-01 3.48174E-27
1.59001E-01 3.31949E-27
1.62205E-01 3.16606E-27
1.65435E-01 3.02090E-27
1.68690E-01 2.88348E-27
1.71970E-01 2.75334E-27
1.75276E-01 2.63002E-27
1.78606E-01 2.51311E-27
1.81961E-01 2.40223E-27
1.85340E-01 2.29701E-27
1.88743E-01 2.19713E-27
1.92169E-01 2.10228E-27
1.95619E-01 2.01215E-27
1.99092E-01 1.92649E-27
2.02589E-01 1.84502E-27
2.06107E-01 1.76753E-27
2.09649E-01 1.69378E-27
2.13212E-01 1.62357E-27
2.16797E-01 1.55671E-27
2.20404E-01 1.49300E-27
2.24032E-01 1.43228E-27
2.27680E-01 1.37439E-27
2.31350E-01 1.31918E-27
2.35040E-01 1.26650E-27
2.38751E-01 1.21622E-27
2.42481E-01 1.16822E-27
2.46231E-01 1.12238E-27
2.50000E-01 1.07859E-27
2.53788E-01 1.03674E-27
2.57595E-01 9.96735E-28
2.61421E-01 9.58483E-28
2.65264E-01 9.21895E-28
2.69126E-01 8.86890E-28
2.73005E-01 8.53389E-28
2.76901E-01 8.21319E-28
2.80814E-01 7.90610E-28
2.84744E-01 7.61196E-28
2.88691E-01 7.33017E-28
2.92653E-01 7.06012E-28
2.96632E-01 6.80127E-28
3.00625E-01 6.55308E-28
3.04634E-01 6.31506E-28
3.08658E-01 6.08674E-28
3.12697E-01 5.86768E-28
3.16749E-01 5.65744E-28
3.20816E-01 5.45562E-28
3.24896E-01 5.26185E-28
3.28990E-01 5.07577E-28
3.33097E-01 4.89702E-28
3.37216E-01 4.72528E-28
3.41348E-01 4.56025E-28
3.45492E-01 4.40163E-28
3.49647E-01 4.24914E-28
3.53814E-01 4.10251E-28
3.57992E-01 3.96149E-28
3.62181E-01 3.82584E-28
3.66381E-01 3.69532E-28
3.70590E-01 3.56973E-28
3.74810E-01 3.44886E-28
3.79039E-01 3.33250E-28
3.83277E-01 3.22046E-28
3.87524E-01 3.11257E-28
3.91780E-01 3.00866E-28
3.96044E-01 2.90856E-28
4.00316E-01 2.81212E-28
4.04596E-01 2.71918E-28
4.08882E-01 2.62961E-28
4.13176E-01 2.54327E-28
4.17476E-01 2.46002E-28
4.21783E-01 2.37976E-28
4.26095E-01 2.30235E-28
4.30413E-01 2.22768E-28
4.34737E-01 2.15566E-28
4.39065E-01 2.08616E-28
4.43398E-01 2.01910E-28
4.47736E-01 1.95439E-28
4.52077E-01 1.89192E-28
4.56422E-01 1.83161E-28
4.60770E-01 1.77338E-28
4.65122E-01 1.71716E-28
4.69476E-01 1.66286E-28
4.73832E-01 1.61041E-28
4.78190E-01 1.55975E-28
4.82550E-01 1.51080E-28
4.86912E-01 1.46350E-28
4.91274E-01 1.41780E-28
4.95637E-01 1.37362E-28
5.00000E-01 1.33092E-28
5.04363E-01 1.28965E-28
5.08726E-01 1.24974E-28
5.13088E-01 1.21115E-28
5.17450E-01 1.17383E-28
5.21810E-01 1.13774E-28
5.26168E-01 1.10283E-28
5.30524E-01 1.06906E-28
5.34878E-01 1.03638E-28
5.39230E-01 1.00477E-28
5.43578E-01 9.74178E-29
5.47923E-01 9.44572E-29
5.52264E-01 9.15918E-29
5.56602E-01 8.88180E-29
5.60935E-01 8.61329E-29
5.65263E-01 8.35333E-29
5.69587E-01 8.10161E-29
5.73905E-01 7.85787E-29
5.78217E-01 7.62182E-29
5.82524E-01 7.39320E-29
5.86824E-01 7.17175E-29
5.91118E-01 6.95723E-29
5.95404E-01 6.74941E-29
5.99684E-01 6.54806E-29
6.03956E-01 6.35296E-29
6.08220E-01 6.16390E-29
6.12476E-01 5.98068E-29
6.16723E-01 5.80310E-29
6.20961E-01 5.63097E-29
6.25190E-01 5.46412E-29
6.29410E-01 5.30237E-29
6.33619E-01 5.14554E-29
6.37819E-01 4.99349E-29
6.42008E-01 4.84605E-29
6.46186E-01 4.70307E-29
6.50353E-01 4.56441E-29
6.54508E-01 4.42992E-29
6.58652E-01 4.29948E-29
6.62784E-01 4.17294E-29
6.66903E-01 4.05019E-29
6.71010E-01 3.93110E-29
6.75104E-01 3.81556E-29
6.79184E-01 3.70345E-29
6.83251E-01 3.59466E-29
6.87303E-01 3.48909E-29
6.91342E-01 3.38664E-29
6.95366E-01 3.28720E-29
6.99375E-01 3.19068E-29
7.03368E-01 3.09700E-29
7.07347E-01 3.00605E-29
7.11309E-01 2.91777E-29
7.15256E-01 2.83205E-29
7.19186E-01 2.74883E-29
7.23099E-01 2.66803E-29
7.26995E-01 2.58957E-29
7.30874E-01 2.51337E-29
7.34736E-01 2.43938E-29
7.38579E-01 2.36752E-29
7.42405E-01 2.29772E-29
7.46212E-01 2.22993E-29
7.50000E-01 2.16409E-29
7.53769E-01 2.10012E-29
7.57519E-01 2.03799E-29
7.61249E-01 1.97762E-29
7.64960E-01 1.91897E-29
7.68650E-01 1.86199E-29
7.72320E-01 1.80663E-29
7.75968E-01 1.75284E-29
7.79596E-01 1.70057E-29
7.83203E-01 1.64977E-29
7.86788E-01 1.60041E-29
7.90351E-01 1.55243E-29
7.93893E-01 1.50581E-29
7.97411E-01 1.46050E-29
8.00908E-01 1.41645E-29
8.04381E-01 1.37365E-29
8.07831E-01 1.33203E-29
8.11257E-01 1.29159E-29
8.14660E-01 1.25227E-29
8.18039E-01 1.21404E-29
8.21394E-01 1.17689E-29
8.24724E-01 1.14076E-29
8.28030E-01 1.10564E-29
8.31310E-01 1.07150E-29
8.34565E-01 1.03830E-29
8.37795E-01 1.00602E-29
8.40999E-01 9.74636E-30
8.44177E-01 9.44121E-30
8.47329E-01 9.14450E-30
8.50455E-01 8.85599E-30
8.53553E-01 8.57545E-30
8.56625E-01 8.30265E-30
8.59670E-01 8.03739E-30
8.62687E-01 7.77944E-30
8.65677E-01 7.52861E-30
8.68639E-01 7.28470E-30
8.71572E-01 7.04751E-30
8.74478E-01 6.81686E-30
8.77355E-01 6.59257E-30
8.80203E-01 6.37446E-30
8.83022E-01 6.16237E-30
8.85812E-01 5.95613E-30
8.88573E-01 5.75558E-30
8.91304E-01 5.56057E-30
8.94005E-01 5.37094E-30
8.96677E-01 5.18656E-30
8.99318E-01 5.00728E-30
9.01928E-01 4.83297E-30
9.04508E-01 4.66349E-30
9.07058E-01 4.49872E-30
9.09576E-01 4.33853E-30
9.12063E-01 4.18280E-30
9.14519E-01 4.03141E-30
9.16943E-01 3.88426E-30
9.19335E-01 3.74122E-30
9.21696E-01 3.60220E-30
9.24024E-01 3.46709E-30
9.26320E-01 3.33579E-30
9.28584E-01 3.20821E-30
9.30815E-01 3.08424E-30
9.33013E-01 2.96381E-30
9.35178E-01 2.84681E-30
9.37310E-01 2.73317E-30
9.39409E-01 2.62281E-30
9.41474E-01 2.51563E-30
9.43505E-01 2.41157E-30
9.45503E-01 2.31054E-30
9.47467E-01 2.21248E-30
9.49397E-01 2.11732E-30
9.51293E-01 2.02498E-30
9.53154E-01 1.93540E-30
9.54981E-01 1.84851E-30
9.56773E-01 1.76426E-30
9.58530E-01 1.68258E-30
9.60252E-01 1.60342E-30
9.61940E-01 1.52671E-30
9.63592E-01 1.45241E-30
9.65209E-01 1.38045E-30
9.66790E-01 1.31080E-30
9.68336E-01 1.24340E-30
9.69846E-01 1.17820E-30
9.71321E-01 1.11516E-30
9.72759E-01 1.05423E-30
9.74162E-01 9.95370E-31
9.75528E-01 9.38540E-31
9.76858E-01 8.83699E-31
9.78152E-01 8.30808E-31
9.79410E-01 7.79831E-31
9.80631E-01 7.30733E-31
9.81815E-01 6.83478E-31
9.82963E-01 6.38036E-31
9.84074E-01 5.94372E-31
9.85148E-01 5.52458E-31
9.86185E-01 5.12265E-31
9.87185E-01 4.73764E-31
9.88148E-01 4.36930E-31
9.89074E-01 4.01736E-31
9.89962E-01 3.68158E-31
9.90814E-01 3.36174E-31
9.91627E-01 3.05761E-31
9.92404E-01 2.76898E-31
9.93143E-01 2.49566E-31
9.93844E-01 2.23746E-31
9.94508E-01 1.99420E-31
9.95134E-01 1.76571E-31
9.95722E-01 1.55185E-31
9.96273E-01 1.35245E-31
9.96786E-01 1.16739E-31
9.97261E-01 9.96544E-32
9.97698E-01 8.39788E-32
9.98097E-01 6.97018E-32
9.98459E-01 5.68136E-32
9.98782E-01 4.53056E-32
9.99067E-01 3.51697E-32
9.99315E-01 2.63993E-32
9.99524E-01 1.89881E-32
9.99695E-01 1.29315E-32
9.99829E-01 8.22473E-33
9.99924E-01 4.86551E-33
9.99981E-01 2.85063E-33
1.00000E+00 2.17849E-33
