 #
 # Subroutine ELSEPA. Elastic scattering of electrons and positrons
 #                    by neutral atoms and positive ions
 #
 # Projectile: electron
 # Kinetic energy = 7.00000E+06 eV = 2.57245E+05 a.u.
 #
 # WARNING: High-energy factorization with free-atom DF screening.
 #          Absorption, polarization and exchange corrections are
 #          switched off.
 #          Phase shifts are calculated for the bare nucleus.
 #          Scattering amplitudes are not evaluated.
 #
 # Element:  F,  Z =   9,  atomic weight = 1.89984E+01 g/mol
 #
 # Nuclear model: Fermi distribution
 #                Average radius = 2.85511E-13 cm
 #                Skin thickness = 5.46000E-14 cm
 #
 # Number of electrons =  9
 #
 # Total elastic cross section = 2.86259E-19 cm**2 = 1.02225E-02 a0**2
 # 1st transport cross section = 2.41917E-24 cm**2 = 8.63900E-08 a0**2
 # 2nd transport cross section = 6.95331E-24 cm**2 = 2.48307E-07 a0**2
 #
 #
 # Differential cross section:                       MU=(1-COS(THETA))/2
 #
 #  THETA        MU          DCS          DCS        Sherman      error
 #  (deg)                 (cm**2/sr)   (a0**2/sr)    function
 #----------------------------------------------------------------------
0.00000E+00 7.01728E-14
7.61557E-13 7.01725E-14
1.18994E-12 7.01723E-14
1.71346E-12 7.01721E-14
2.33225E-12 7.01718E-14
3.04617E-12 7.01715E-14
3.85530E-12 7.01712E-14
4.75964E-12 7.01708E-14
5.75917E-12 7.01704E-14
6.85391E-12 7.01699E-14
8.04379E-12 7.01695E-14
9.32893E-12 7.01689E-14
1.07092E-11 7.01684E-14
1.21847E-11 7.01678E-14
1.37554E-11 7.01671E-14
1.54213E-11 7.01664E-14
1.71823E-11 7.01657E-14
1.90386E-11 7.01650E-14
2.09900E-11 7.01642E-14
2.30367E-11 7.01633E-14
2.51785E-11 7.01625E-14
2.74156E-11 7.01616E-14
2.97478E-11 7.01606E-14
3.21752E-11 7.01596E-14
3.46979E-11 7.01586E-14
3.73157E-11 7.01575E-14
4.00286E-11 7.01564E-14
4.28368E-11 7.01553E-14
4.57402E-11 7.01541E-14
4.87388E-11 7.01529E-14
5.18325E-11 7.01517E-14
5.50215E-11 7.01504E-14
5.83057E-11 7.01491E-14
6.16850E-11 7.01477E-14
6.51595E-11 7.01463E-14
6.87293E-11 7.01448E-14
7.23943E-11 7.01434E-14
7.61544E-11 7.01418E-14
1.18991E-10 7.01246E-14
1.71347E-10 7.01035E-14
2.33223E-10 7.00787E-14
3.04617E-10 7.00500E-14
3.85531E-10 7.00175E-14
4.75965E-10 6.99813E-14
5.75917E-10 6.99413E-14
6.85389E-10 6.98976E-14
8.04380E-10 6.98501E-14
9.32891E-10 6.97989E-14
1.07092E-09 6.97440E-14
1.21847E-09 6.96852E-14
1.37554E-09 6.96230E-14
1.54213E-09 6.95568E-14
1.71823E-09 6.94873E-14
1.90386E-09 6.94137E-14
2.09900E-09 6.93369E-14
2.30367E-09 6.92561E-14
2.51785E-09 6.91721E-14
2.74156E-09 6.90842E-14
2.97478E-09 6.89929E-14
3.21752E-09 6.88980E-14
3.46978E-09 6.87996E-14
3.73156E-09 6.86978E-14
4.00286E-09 6.85924E-14
4.28368E-09 6.84837E-14
4.57402E-09 6.83714E-14
4.87388E-09 6.82560E-14
5.18326E-09 6.81368E-14
5.50215E-09 6.80148E-14
5.83057E-09 6.78889E-14
6.16850E-09 6.77605E-14
6.51596E-09 6.76279E-14
6.87293E-09 6.74930E-14
7.23942E-09 6.73540E-14
7.61544E-09 6.72127E-14
1.18991E-08 6.56287E-14
1.71347E-08 6.37669E-14
2.33223E-08 6.16660E-14
3.04617E-08 5.92709E-14
3.85531E-08 5.68017E-14
4.75965E-08 5.42139E-14
5.75917E-08 5.15882E-14
6.85389E-08 4.88608E-14
8.04380E-08 4.62210E-14
9.32891E-08 4.34869E-14
1.07092E-07 4.09394E-14
1.21847E-07 3.83033E-14
1.37554E-07 3.59196E-14
1.54213E-07 3.34548E-14
1.71823E-07 3.12679E-14
1.90386E-07 2.90276E-14
2.09900E-07 2.70368E-14
2.30367E-07 2.50604E-14
2.51785E-07 2.32804E-14
2.74156E-07 2.15575E-14
2.97478E-07 1.99882E-14
3.21752E-07 1.84996E-14
3.46978E-07 1.71311E-14
3.73156E-07 1.58535E-14
4.00286E-07 1.46699E-14
4.28368E-07 1.35788E-14
4.57402E-07 1.25616E-14
4.87388E-07 1.16327E-14
5.18325E-07 1.07624E-14
5.50215E-07 9.97337E-15
5.83057E-07 9.23124E-15
6.16850E-07 8.56173E-15
6.51596E-07 7.93022E-15
6.87293E-07 7.36114E-15
7.23942E-07 6.82546E-15
7.61543E-07 6.34060E-15
1.18991E-06 3.12460E-15
1.71347E-06 1.65429E-15
2.33223E-06 9.40692E-16
3.04617E-06 5.70350E-16
3.85531E-06 3.65878E-16
4.75964E-06 2.45913E-16
5.75916E-06 1.71850E-16
6.85388E-06 1.24061E-16
8.04378E-06 9.20160E-17
9.32888E-06 6.98109E-17
1.07092E-05 5.40006E-17
1.21846E-05 4.24671E-17
1.37553E-05 3.38721E-17
1.54212E-05 2.73593E-17
1.71822E-05 2.23452E-17
1.90385E-05 1.84264E-17
2.09899E-05 1.53314E-17
2.30365E-05 1.28595E-17
2.51783E-05 1.08629E-17
2.74153E-05 9.23816E-18
2.97475E-05 7.90507E-18
3.21749E-05 6.80214E-18
3.46974E-05 5.88404E-18
3.73152E-05 5.11505E-18
4.00281E-05 4.46672E-18
4.28362E-05 3.91730E-18
4.57395E-05 3.44940E-18
4.87380E-05 3.04883E-18
5.18317E-05 2.70437E-18
5.50205E-05 2.40697E-18
5.83045E-05 2.14910E-18
6.16838E-05 1.92464E-18
6.51582E-05 1.72860E-18
6.87277E-05 1.55677E-18
7.23925E-05 1.40565E-18
7.61524E-05 1.27235E-18
9.21439E-05 8.73629E-19
1.09658E-04 6.19153E-19
1.28695E-04 4.50751E-19
1.49255E-04 3.35802E-19
1.71338E-04 2.55215E-19
1.94942E-04 1.97386E-19
2.20070E-04 1.55031E-19
2.46720E-04 1.23442E-19
2.74892E-04 9.94995E-20
3.04586E-04 8.10873E-20
3.35803E-04 6.67421E-20
3.68542E-04 5.54326E-20
4.02802E-04 4.64198E-20
4.38585E-04 3.91663E-20
4.75889E-04 3.32757E-20
5.14715E-04 2.84521E-20
5.55063E-04 2.44717E-20
5.96931E-04 2.11637E-20
6.40321E-04 1.83964E-20
6.85233E-04 1.60670E-20
7.31665E-04 1.40949E-20
7.79618E-04 1.24164E-20
8.29092E-04 1.09806E-20
8.80086E-04 9.74650E-21
9.32601E-04 8.68105E-21
9.86636E-04 7.75734E-21
1.04219E-03 6.95328E-21
1.09927E-03 6.25075E-21
1.15786E-03 5.63478E-21
1.21797E-03 5.09288E-21
1.27961E-03 4.61462E-21
1.34276E-03 4.19123E-21
1.40743E-03 3.81533E-21
1.47362E-03 3.48066E-21
1.54133E-03 3.18191E-21
1.61056E-03 2.91456E-21
1.68131E-03 2.67472E-21
1.75357E-03 2.45906E-21
1.82735E-03 2.26472E-21
1.90265E-03 2.08921E-21
1.97947E-03 1.93039E-21
2.05780E-03 1.78639E-21
2.13765E-03 1.65557E-21
2.21902E-03 1.53653E-21
2.30190E-03 1.42799E-21
2.38630E-03 1.32888E-21
2.47222E-03 1.23823E-21
2.55965E-03 1.15518E-21
2.64859E-03 1.07898E-21
2.73905E-03 1.00897E-21
2.83103E-03 9.44545E-22
2.92452E-03 8.85186E-22
3.01952E-03 8.30421E-22
3.11604E-03 7.79830E-22
3.21407E-03 7.33035E-22
3.31362E-03 6.89701E-22
3.41468E-03 6.49524E-22
3.51725E-03 6.12232E-22
3.62133E-03 5.77580E-22
3.72692E-03 5.45348E-22
3.83403E-03 5.15334E-22
3.94265E-03 4.87358E-22
4.05278E-03 4.61256E-22
4.16442E-03 4.36880E-22
4.27757E-03 4.14094E-22
4.39223E-03 3.92776E-22
4.50840E-03 3.72812E-22
4.62608E-03 3.54102E-22
4.74527E-03 3.36552E-22
4.86597E-03 3.20077E-22
4.98817E-03 3.04598E-22
5.11188E-03 2.90044E-22
5.23711E-03 2.76350E-22
5.36383E-03 2.63455E-22
5.49207E-03 2.51304E-22
5.62181E-03 2.39847E-22
5.75306E-03 2.29035E-22
5.88581E-03 2.18826E-22
6.02007E-03 2.09179E-22
6.15583E-03 2.00059E-22
6.29310E-03 1.91431E-22
6.43187E-03 1.83264E-22
6.57214E-03 1.75527E-22
6.71392E-03 1.68195E-22
6.85720E-03 1.61242E-22
7.00198E-03 1.54645E-22
7.14827E-03 1.48382E-22
7.29605E-03 1.42433E-22
7.44534E-03 1.36780E-22
7.59612E-03 1.31404E-22
7.97965E-03 1.19077E-22
8.37255E-03 1.08163E-22
8.77480E-03 9.84724E-23
9.18641E-03 8.98434E-23
9.60736E-03 8.21397E-23
1.00376E-02 7.52448E-23
1.04773E-02 6.90587E-23
1.09262E-02 6.34958E-23
1.13844E-02 5.84822E-23
1.18520E-02 5.39541E-23
1.23288E-02 4.98560E-23
1.28150E-02 4.61399E-23
1.33104E-02 4.27638E-23
1.38150E-02 3.96910E-23
1.43290E-02 3.68894E-23
1.48521E-02 3.43308E-23
1.53845E-02 3.19903E-23
1.59262E-02 2.98459E-23
1.64770E-02 2.78783E-23
1.70371E-02 2.60702E-23
1.76063E-02 2.44063E-23
1.81848E-02 2.28731E-23
1.87724E-02 2.14585E-23
1.93692E-02 2.01515E-23
1.99751E-02 1.89426E-23
2.05901E-02 1.78229E-23
2.12143E-02 1.67848E-23
2.18476E-02 1.58211E-23
2.24900E-02 1.49256E-23
2.31415E-02 1.40926E-23
2.38021E-02 1.33168E-23
2.44717E-02 1.25937E-23
2.51504E-02 1.19190E-23
2.58382E-02 1.12889E-23
2.65349E-02 1.06998E-23
2.72407E-02 1.01486E-23
2.79555E-02 9.63249E-24
2.86793E-02 9.14872E-24
2.94120E-02 8.69492E-24
3.01537E-02 8.26888E-24
3.09043E-02 7.86860E-24
3.16639E-02 7.49222E-24
3.24324E-02 7.13806E-24
3.32098E-02 6.80456E-24
3.39961E-02 6.49028E-24
3.47912E-02 6.19392E-24
3.55952E-02 5.91427E-24
3.64081E-02 5.65019E-24
3.72297E-02 5.40067E-24
3.80602E-02 5.16475E-24
3.88995E-02 4.94155E-24
3.97476E-02 4.73026E-24
4.06044E-02 4.53013E-24
4.14700E-02 4.34044E-24
4.23443E-02 4.16056E-24
4.32273E-02 3.98989E-24
4.41190E-02 3.82786E-24
4.50194E-02 3.67395E-24
4.59284E-02 3.52768E-24
4.68461E-02 3.38860E-24
4.87074E-02 3.13036E-24
5.06030E-02 2.89620E-24
5.25328E-02 2.68346E-24
5.44967E-02 2.48985E-24
5.64946E-02 2.31333E-24
5.85262E-02 2.15213E-24
6.05914E-02 2.00468E-24
6.26901E-02 1.86959E-24
6.48222E-02 1.74565E-24
6.69873E-02 1.63176E-24
6.91854E-02 1.52697E-24
7.14163E-02 1.43042E-24
7.36799E-02 1.34134E-24
7.59760E-02 1.25905E-24
7.83043E-02 1.18294E-24
8.06647E-02 1.11247E-24
8.30571E-02 1.04713E-24
8.54812E-02 9.86486E-25
8.79369E-02 9.30141E-25
9.04240E-02 8.77733E-25
9.29422E-02 8.28938E-25
9.54915E-02 7.83461E-25
9.80716E-02 7.41035E-25
1.00682E-01 7.01419E-25
1.03323E-01 6.64391E-25
1.05995E-01 6.29753E-25
1.08696E-01 5.97322E-25
1.11427E-01 5.66932E-25
1.14188E-01 5.38430E-25
1.16978E-01 5.11679E-25
1.19797E-01 4.86550E-25
1.22645E-01 4.62927E-25
1.25522E-01 4.40704E-25
1.28428E-01 4.19783E-25
1.31361E-01 4.00073E-25
1.34323E-01 3.81491E-25
1.37313E-01 3.63961E-25
1.40330E-01 3.47413E-25
1.43375E-01 3.31781E-25
1.46447E-01 3.17006E-25
1.49545E-01 3.03031E-25
1.52671E-01 2.89806E-25
1.55823E-01 2.77283E-25
1.59001E-01 2.65418E-25
1.62205E-01 2.54170E-25
1.65435E-01 2.43501E-25
1.68690E-01 2.33375E-25
1.71970E-01 2.23761E-25
1.75276E-01 2.14627E-25
1.78606E-01 2.05946E-25
1.81961E-01 1.97690E-25
1.85340E-01 1.89834E-25
1.88743E-01 1.82357E-25
1.92169E-01 1.75236E-25
1.95619E-01 1.68452E-25
1.99092E-01 1.61985E-25
2.02589E-01 1.55818E-25
2.06107E-01 1.49934E-25
2.09649E-01 1.44319E-25
2.13212E-01 1.38957E-25
2.16797E-01 1.33835E-25
2.20404E-01 1.28941E-25
2.24032E-01 1.24262E-25
2.27680E-01 1.19788E-25
2.31350E-01 1.15507E-25
2.35040E-01 1.11410E-25
2.38751E-01 1.07488E-25
2.42481E-01 1.03731E-25
2.46231E-01 1.00131E-25
2.50000E-01 9.66816E-26
2.53788E-01 9.33742E-26
2.57595E-01 9.02021E-26
2.61421E-01 8.71588E-26
2.65264E-01 8.42382E-26
2.69126E-01 8.14344E-26
2.73005E-01 7.87419E-26
2.76901E-01 7.61555E-26
2.80814E-01 7.36702E-26
2.84744E-01 7.12814E-26
2.88691E-01 6.89847E-26
2.92653E-01 6.67759E-26
2.96632E-01 6.46509E-26
3.00625E-01 6.26062E-26
3.04634E-01 6.06380E-26
3.08658E-01 5.87430E-26
3.12697E-01 5.69180E-26
3.16749E-01 5.51600E-26
3.20816E-01 5.34660E-26
3.24896E-01 5.18333E-26
3.28990E-01 5.02593E-26
3.33097E-01 4.87416E-26
3.37216E-01 4.72777E-26
3.41348E-01 4.58653E-26
3.45492E-01 4.45025E-26
3.49647E-01 4.31870E-26
3.53814E-01 4.19170E-26
3.57992E-01 4.06907E-26
3.62181E-01 3.95062E-26
3.66381E-01 3.83619E-26
3.70590E-01 3.72562E-26
3.74810E-01 3.61875E-26
3.79039E-01 3.51545E-26
3.83277E-01 3.41556E-26
3.87524E-01 3.31896E-26
3.91780E-01 3.22552E-26
3.96044E-01 3.13512E-26
4.00316E-01 3.04764E-26
4.04596E-01 2.96298E-26
4.08882E-01 2.88102E-26
4.13176E-01 2.80166E-26
4.17476E-01 2.72481E-26
4.21783E-01 2.65038E-26
4.26095E-01 2.57827E-26
4.30413E-01 2.50840E-26
4.34737E-01 2.44069E-26
4.39065E-01 2.37506E-26
4.43398E-01 2.31144E-26
4.47736E-01 2.24975E-26
4.52077E-01 2.18993E-26
4.56422E-01 2.13190E-26
4.60770E-01 2.07562E-26
4.65122E-01 2.02100E-26
4.69476E-01 1.96801E-26
4.73832E-01 1.91658E-26
4.78190E-01 1.86665E-26
4.82550E-01 1.81818E-26
4.86912E-01 1.77111E-26
4.91274E-01 1.72541E-26
4.95637E-01 1.68102E-26
5.00000E-01 1.63789E-26
5.04363E-01 1.59600E-26
5.08726E-01 1.55529E-26
5.13088E-01 1.51572E-26
5.17450E-01 1.47727E-26
5.21810E-01 1.43989E-26
5.26168E-01 1.40355E-26
5.30524E-01 1.36821E-26
5.34878E-01 1.33384E-26
5.39230E-01 1.30042E-26
5.43578E-01 1.26791E-26
5.47923E-01 1.23628E-26
5.52264E-01 1.20550E-26
5.56602E-01 1.17556E-26
5.60935E-01 1.14641E-26
5.65263E-01 1.11805E-26
5.69587E-01 1.09043E-26
5.73905E-01 1.06355E-26
5.78217E-01 1.03738E-26
5.82524E-01 1.01189E-26
5.86824E-01 9.87065E-27
5.91118E-01 9.62888E-27
5.95404E-01 9.39337E-27
5.99684E-01 9.16393E-27
6.03956E-01 8.94039E-27
6.08220E-01 8.72257E-27
6.12476E-01 8.51030E-27
6.16723E-01 8.30342E-27
6.20961E-01 8.10177E-27
6.25190E-01 7.90521E-27
6.29410E-01 7.71357E-27
6.33619E-01 7.52673E-27
6.37819E-01 7.34454E-27
6.42008E-01 7.16687E-27
6.46186E-01 6.99360E-27
6.50353E-01 6.82460E-27
6.54508E-01 6.65974E-27
6.58652E-01 6.49892E-27
6.62784E-01 6.34202E-27
6.66903E-01 6.18893E-27
6.71010E-01 6.03955E-27
6.75104E-01 5.89377E-27
6.79184E-01 5.75150E-27
6.83251E-01 5.61264E-27
6.87303E-01 5.47709E-27
6.91342E-01 5.34478E-27
6.95366E-01 5.21561E-27
6.99375E-01 5.08949E-27
7.03368E-01 4.96635E-27
7.07347E-01 4.84611E-27
7.11309E-01 4.72868E-27
7.15256E-01 4.61401E-27
7.19186E-01 4.50200E-27
7.23099E-01 4.39261E-27
7.26995E-01 4.28574E-27
7.30874E-01 4.18135E-27
7.34736E-01 4.07937E-27
7.38579E-01 3.97973E-27
7.42405E-01 3.88238E-27
7.46212E-01 3.78726E-27
7.50000E-01 3.69431E-27
7.53769E-01 3.60348E-27
7.57519E-01 3.51471E-27
7.61249E-01 3.42795E-27
7.64960E-01 3.34315E-27
7.68650E-01 3.26027E-27
7.72320E-01 3.17925E-27
7.75968E-01 3.10006E-27
7.79596E-01 3.02264E-27
7.83203E-01 2.94696E-27
7.86788E-01 2.87296E-27
7.90351E-01 2.80062E-27
7.93893E-01 2.72989E-27
7.97411E-01 2.66073E-27
8.00908E-01 2.59311E-27
8.04381E-01 2.52698E-27
8.07831E-01 2.46232E-27
8.11257E-01 2.39909E-27
8.14660E-01 2.33725E-27
8.18039E-01 2.27678E-27
8.21394E-01 2.21764E-27
8.24724E-01 2.15980E-27
8.28030E-01 2.10324E-27
8.31310E-01 2.04791E-27
8.34565E-01 1.99380E-27
8.37795E-01 1.94088E-27
8.40999E-01 1.88912E-27
8.44177E-01 1.83849E-27
8.47329E-01 1.78898E-27
8.50455E-01 1.74055E-27
8.53553E-01 1.69318E-27
8.56625E-01 1.64685E-27
8.59670E-01 1.60153E-27
8.62687E-01 1.55721E-27
8.65677E-01 1.51386E-27
8.68639E-01 1.47146E-27
8.71572E-01 1.43000E-27
8.74478E-01 1.38944E-27
8.77355E-01 1.34978E-27
8.80203E-01 1.31099E-27
8.83022E-01 1.27306E-27
8.85812E-01 1.23597E-27
8.88573E-01 1.19970E-27
8.91304E-01 1.16423E-27
8.94005E-01 1.12955E-27
8.96677E-01 1.09565E-27
8.99318E-01 1.06250E-27
9.01928E-01 1.03009E-27
9.04508E-01 9.98412E-28
9.07058E-01 9.67447E-28
9.09576E-01 9.37181E-28
9.12063E-01 9.07602E-28
9.14519E-01 8.78696E-28
9.16943E-01 8.50450E-28
9.19335E-01 8.22853E-28
9.21696E-01 7.95891E-28
9.24024E-01 7.69554E-28
9.26320E-01 7.43831E-28
9.28584E-01 7.18709E-28
9.30815E-01 6.94178E-28
9.33013E-01 6.70228E-28
9.35178E-01 6.46849E-28
9.37310E-01 6.24030E-28
9.39409E-01 6.01763E-28
9.41474E-01 5.80037E-28
9.43505E-01 5.58843E-28
9.45503E-01 5.38173E-28
9.47467E-01 5.18018E-28
9.49397E-01 4.98370E-28
9.51293E-01 4.79220E-28
9.53154E-01 4.60561E-28
9.54981E-01 4.42385E-28
9.56773E-01 4.24685E-28
9.58530E-01 4.07453E-28
9.60252E-01 3.90682E-28
9.61940E-01 3.74366E-28
9.63592E-01 3.58497E-28
9.65209E-01 3.43071E-28
9.66790E-01 3.28079E-28
9.68336E-01 3.13517E-28
9.69846E-01 2.99378E-28
9.71321E-01 2.85658E-28
9.72759E-01 2.72349E-28
9.74162E-01 2.59448E-28
9.75528E-01 2.46949E-28
9.76858E-01 2.34847E-28
9.78152E-01 2.23137E-28
9.79410E-01 2.11815E-28
9.80631E-01 2.00876E-28
9.81815E-01 1.90316E-28
9.82963E-01 1.80131E-28
9.84074E-01 1.70317E-28
9.85148E-01 1.60870E-28
9.86185E-01 1.51786E-28
9.87185E-01 1.43063E-28
9.88148E-01 1.34696E-28
9.89074E-01 1.26682E-28
9.89962E-01 1.19018E-28
9.90814E-01 1.11702E-28
9.91627E-01 1.04730E-28
9.92404E-01 9.81000E-29
9.93143E-01 9.18092E-29
9.93844E-01 8.58553E-29
9.94508E-01 8.02358E-29
9.95134E-01 7.49488E-29
9.95722E-01 6.99922E-29
9.96273E-01 6.53641E-29
9.96786E-01 6.10628E-29
9.97261E-01 5.70866E-29
9.97698E-01 5.34340E-29
9.98097E-01 5.01037E-29
9.98459E-01 4.70943E-29
9.98782E-01 4.44047E-29
9.99067E-01 4.20339E-29
9.99315E-01 3.99811E-29
9.99524E-01 3.82453E-29
9.99695E-01 3.68262E-29
9.99829E-01 3.57228E-29
9.99924E-01 3.49352E-29
9.99981E-01 3.44626E-29
1.00000E+00 3.43044E-29
