 #
 # Subroutine ELSEPA. Elastic scattering of electrons and positrons
 #                    by neutral atoms and positive ions
 #
 # Projectile: electron
 # Kinetic energy = 1.75000E+08 eV = 6.43113E+06 a.u.
 #
 # WARNING: High-energy factorization with free-atom DF screening.
 #          Absorption, polarization and exchange corrections are
 #          switched off.
 #          Phase shifts are calculated for the bare nucleus.
 #          Scattering amplitudes are not evaluated.
 #
 # Element:  F,  Z =   9,  atomic weight = 1.89984E+01 g/mol
 #
 # Nuclear model: Fermi distribution
 #                Average radius = 2.85511E-13 cm
 #                Skin thickness = 5.46000E-14 cm
 #
 # Number of electrons =  9
 #
 # Total elastic cross section = 2.84846E-19 cm**2 = 1.01720E-02 a0**2
 # 1st transport cross section = 5.82641E-27 cm**2 = 2.08065E-10 a0**2
 # 2nd transport cross section = 1.73865E-26 cm**2 = 6.20884E-10 a0**2
 #
 #
 # Differential cross section:                       MU=(1-COS(THETA))/2
 #
 #  THETA        MU          DCS          DCS        Sherman      error
 #  (deg)                 (cm**2/sr)   (a0**2/sr)    function
 #----------------------------------------------------------------------
0.00000E+00 3.83162E-11
7.61557E-13 3.82242E-11
1.18994E-12 3.81728E-11
1.71346E-12 3.81102E-11
2.33225E-12 3.80365E-11
3.04617E-12 3.79517E-11
3.85530E-12 3.78560E-11
4.75964E-12 3.77493E-11
5.75917E-12 3.76321E-11
6.85391E-12 3.75043E-11
8.04379E-12 3.73663E-11
9.32893E-12 3.72178E-11
1.07092E-11 3.70594E-11
1.21847E-11 3.68913E-11
1.37554E-11 3.67137E-11
1.54213E-11 3.65263E-11
1.71823E-11 3.63299E-11
1.90386E-11 3.61247E-11
2.09900E-11 3.59110E-11
2.30367E-11 3.56885E-11
2.51785E-11 3.54577E-11
2.74156E-11 3.52193E-11
2.97478E-11 3.49735E-11
3.21752E-11 3.47201E-11
3.46979E-11 3.44593E-11
3.73157E-11 3.41919E-11
4.00286E-11 3.39183E-11
4.28368E-11 3.36386E-11
4.57402E-11 3.33522E-11
4.87388E-11 3.30604E-11
5.18325E-11 3.27433E-11
5.50215E-11 3.24136E-11
5.83057E-11 3.20886E-11
6.16850E-11 3.17685E-11
6.51595E-11 3.14537E-11
6.87293E-11 3.11443E-11
7.23943E-11 3.08405E-11
7.61544E-11 3.05426E-11
1.18991E-10 2.71286E-11
1.71347E-10 2.36654E-11
2.33223E-10 2.03779E-11
3.04617E-10 1.73737E-11
3.85531E-10 1.46705E-11
4.75965E-10 1.22987E-11
5.75917E-10 1.02830E-11
6.85389E-10 8.58672E-12
8.04380E-10 7.16536E-12
9.32891E-10 5.97279E-12
1.07092E-09 4.98910E-12
1.21847E-09 4.17826E-12
1.37554E-09 3.50951E-12
1.54213E-09 2.95401E-12
1.71823E-09 2.49572E-12
1.90386E-09 2.11685E-12
2.09900E-09 1.80270E-12
2.30367E-09 1.54077E-12
2.51785E-09 1.32213E-12
2.74156E-09 1.13925E-12
2.97478E-09 9.85688E-13
3.21752E-09 8.56173E-13
3.46978E-09 7.46527E-13
3.73156E-09 6.53469E-13
4.00286E-09 5.74182E-13
4.28368E-09 5.06361E-13
4.57402E-09 4.48100E-13
4.87388E-09 3.97915E-13
5.18326E-09 3.54446E-13
5.50215E-09 3.16759E-13
5.83057E-09 2.84038E-13
6.16850E-09 2.55451E-13
6.51596E-09 2.30333E-13
6.87293E-09 2.08283E-13
7.23942E-09 1.88854E-13
7.61544E-09 1.71630E-13
1.18991E-08 7.41755E-14
1.71347E-08 3.75653E-14
2.33223E-08 2.11569E-14
3.04617E-08 1.28440E-14
3.85531E-08 8.24600E-15
4.75965E-08 5.53038E-15
5.75917E-08 3.84257E-15
6.85389E-08 2.74947E-15
8.04380E-08 2.01700E-15
9.32891E-08 1.51181E-15
1.07092E-07 1.15459E-15
1.21847E-07 8.96436E-16
1.37554E-07 7.06263E-16
1.54213E-07 5.63753E-16
1.71823E-07 4.55315E-16
1.90386E-07 3.71656E-16
2.09900E-07 3.06303E-16
2.30367E-07 2.54666E-16
2.51785E-07 2.13440E-16
2.74156E-07 1.80211E-16
2.97478E-07 1.53192E-16
3.21752E-07 1.31043E-16
3.46978E-07 1.12750E-16
3.73156E-07 9.75362E-17
4.00286E-07 8.48008E-17
4.28368E-07 7.40754E-17
4.57402E-07 6.49916E-17
4.87388E-07 5.72572E-17
5.18325E-07 5.06388E-17
5.50215E-07 4.49490E-17
5.83057E-07 4.00357E-17
6.16850E-07 3.57754E-17
6.51596E-07 3.20667E-17
6.87293E-07 2.88261E-17
7.23942E-07 2.59845E-17
7.61543E-07 2.34844E-17
1.18991E-06 9.62547E-18
1.71347E-06 4.64323E-18
2.33223E-06 2.50656E-18
3.04617E-06 1.46940E-18
3.85531E-06 9.17395E-19
4.75964E-06 6.01937E-19
5.75916E-06 4.11153E-19
6.85388E-06 2.90316E-19
8.04378E-06 2.10787E-19
9.32888E-06 1.56721E-19
1.07092E-05 1.18931E-19
1.21846E-05 9.18757E-20
1.37553E-05 7.20951E-20
1.54212E-05 5.73630E-20
1.71822E-05 4.62091E-20
1.90385E-05 3.76384E-20
2.09899E-05 3.09670E-20
2.30365E-05 2.57104E-20
2.51783E-05 2.15233E-20
2.74153E-05 1.81549E-20
2.97475E-05 1.54204E-20
3.21749E-05 1.31819E-20
3.46974E-05 1.13353E-20
3.73152E-05 9.80111E-21
4.00281E-05 8.51795E-21
4.28362E-05 7.43812E-21
4.57395E-05 6.52412E-21
4.87380E-05 5.74631E-21
5.18317E-05 5.08103E-21
5.50205E-05 4.50931E-21
5.83045E-05 4.01580E-21
6.16838E-05 3.58800E-21
6.51582E-05 3.21568E-21
6.87277E-05 2.89045E-21
7.23925E-05 2.60531E-21
7.61524E-05 2.35287E-21
9.21439E-05 1.60708E-21
1.09658E-04 1.13471E-21
1.28695E-04 8.23823E-22
1.49255E-04 6.12468E-22
1.71338E-04 4.64743E-22
1.94942E-04 3.58983E-22
2.20070E-04 2.81661E-22
2.46720E-04 2.24075E-22
2.74892E-04 1.80478E-22
3.04586E-04 1.46982E-22
3.35803E-04 1.20906E-22
3.68542E-04 1.00362E-22
4.02802E-04 8.39991E-23
4.38585E-04 7.08370E-23
4.75889E-04 6.01531E-23
5.14715E-04 5.14079E-23
5.55063E-04 4.41944E-23
5.96931E-04 3.82016E-23
6.40321E-04 3.31899E-23
6.85233E-04 2.89728E-23
7.31665E-04 2.54039E-23
7.79618E-04 2.23671E-23
8.29092E-04 1.97702E-23
8.80086E-04 1.75388E-23
9.32601E-04 1.56130E-23
9.86636E-04 1.39439E-23
1.04219E-03 1.24915E-23
1.09927E-03 1.12230E-23
1.15786E-03 1.01111E-23
1.21797E-03 9.13324E-24
1.27961E-03 8.27046E-24
1.34276E-03 7.50691E-24
1.40743E-03 6.82921E-24
1.47362E-03 6.22605E-24
1.54133E-03 5.68782E-24
1.61056E-03 5.20630E-24
1.68131E-03 4.77449E-24
1.75357E-03 4.38636E-24
1.82735E-03 4.03672E-24
1.90265E-03 3.72109E-24
1.97947E-03 3.43557E-24
2.05780E-03 3.17680E-24
2.13765E-03 2.94181E-24
2.21902E-03 2.72805E-24
2.30190E-03 2.53325E-24
2.38630E-03 2.35544E-24
2.47222E-03 2.19286E-24
2.55965E-03 2.04399E-24
2.64859E-03 1.90747E-24
2.73905E-03 1.78208E-24
2.83103E-03 1.66676E-24
2.92452E-03 1.56055E-24
3.01952E-03 1.46260E-24
3.11604E-03 1.37217E-24
3.21407E-03 1.28856E-24
3.31362E-03 1.21118E-24
3.41468E-03 1.13947E-24
3.51725E-03 1.07294E-24
3.62133E-03 1.01115E-24
3.72692E-03 9.53714E-25
3.83403E-03 9.00256E-25
3.94265E-03 8.50455E-25
4.05278E-03 8.04017E-25
4.16442E-03 7.60673E-25
4.27757E-03 7.20180E-25
4.39223E-03 6.82316E-25
4.50840E-03 6.46881E-25
4.62608E-03 6.13690E-25
4.74527E-03 5.82575E-25
4.86597E-03 5.53384E-25
4.98817E-03 5.25976E-25
5.11188E-03 5.00222E-25
5.23711E-03 4.76004E-25
5.36383E-03 4.53215E-25
5.49207E-03 4.31754E-25
5.62181E-03 4.11531E-25
5.75306E-03 3.92461E-25
5.88581E-03 3.74466E-25
6.02007E-03 3.57476E-25
6.15583E-03 3.41423E-25
6.29310E-03 3.26247E-25
6.43187E-03 3.11891E-25
6.57214E-03 2.98303E-25
6.71392E-03 2.85434E-25
6.85720E-03 2.73240E-25
7.00198E-03 2.61679E-25
7.14827E-03 2.50711E-25
7.29605E-03 2.40301E-25
7.44534E-03 2.30416E-25
7.59612E-03 2.21025E-25
7.97965E-03 1.99517E-25
8.37255E-03 1.80514E-25
8.77480E-03 1.63675E-25
9.18641E-03 1.48714E-25
9.60736E-03 1.35386E-25
1.00376E-02 1.23484E-25
1.04773E-02 1.12830E-25
1.09262E-02 1.03272E-25
1.13844E-02 9.46788E-26
1.18520E-02 8.69365E-26
1.23288E-02 7.99473E-26
1.28150E-02 7.36257E-26
1.33104E-02 6.78977E-26
1.38150E-02 6.26984E-26
1.43290E-02 5.79709E-26
1.48521E-02 5.36655E-26
1.53845E-02 4.97384E-26
1.59262E-02 4.61509E-26
1.64770E-02 4.28688E-26
1.70371E-02 3.98620E-26
1.76063E-02 3.71037E-26
1.81848E-02 3.45699E-26
1.87724E-02 3.22396E-26
1.93692E-02 3.00937E-26
1.99751E-02 2.81153E-26
2.05901E-02 2.62893E-26
2.12143E-02 2.46020E-26
2.18476E-02 2.30413E-26
2.24900E-02 2.15962E-26
2.31415E-02 2.02567E-26
2.38021E-02 1.90140E-26
2.44717E-02 1.78599E-26
2.51504E-02 1.67872E-26
2.58382E-02 1.57892E-26
2.65349E-02 1.48600E-26
2.72407E-02 1.39940E-26
2.79555E-02 1.31863E-26
2.86793E-02 1.24325E-26
2.94120E-02 1.17283E-26
3.01537E-02 1.10700E-26
3.09043E-02 1.04541E-26
3.16639E-02 9.87764E-27
3.24324E-02 9.33758E-27
3.32098E-02 8.83131E-27
3.39961E-02 8.35643E-27
3.47912E-02 7.91069E-27
3.55952E-02 7.49205E-27
3.64081E-02 7.09864E-27
3.72297E-02 6.72871E-27
3.80602E-02 6.38066E-27
3.88995E-02 6.05303E-27
3.97476E-02 5.74443E-27
4.06044E-02 5.45363E-27
4.14700E-02 5.17944E-27
4.23443E-02 4.92079E-27
4.32273E-02 4.67668E-27
4.41190E-02 4.44619E-27
4.50194E-02 4.22845E-27
4.59284E-02 4.02266E-27
4.68461E-02 3.82808E-27
4.87074E-02 3.46984E-27
5.06030E-02 3.14877E-27
5.25328E-02 2.86054E-27
5.44967E-02 2.60142E-27
5.64946E-02 2.36811E-27
5.85262E-02 2.15776E-27
6.05914E-02 1.96785E-27
6.26901E-02 1.79619E-27
6.48222E-02 1.64083E-27
6.69873E-02 1.50007E-27
6.91854E-02 1.37239E-27
7.14163E-02 1.25645E-27
7.36799E-02 1.15107E-27
7.59760E-02 1.05520E-27
7.83043E-02 9.67889E-28
8.06647E-02 8.88311E-28
8.30571E-02 8.15719E-28
8.54812E-02 7.49444E-28
8.79369E-02 6.88892E-28
9.04240E-02 6.33527E-28
9.29422E-02 5.82868E-28
9.54915E-02 5.36485E-28
9.80716E-02 4.93989E-28
1.00682E-01 4.55031E-28
1.03323E-01 4.19294E-28
1.05995E-01 3.86494E-28
1.08696E-01 3.56373E-28
1.11427E-01 3.28698E-28
1.14188E-01 3.03258E-28
1.16978E-01 2.79862E-28
1.19797E-01 2.58335E-28
1.22645E-01 2.38520E-28
1.25522E-01 2.20273E-28
1.28428E-01 2.03464E-28
1.31361E-01 1.87974E-28
1.34323E-01 1.73693E-28
1.37313E-01 1.60524E-28
1.40330E-01 1.48376E-28
1.43375E-01 1.37166E-28
1.46447E-01 1.26819E-28
1.49545E-01 1.17266E-28
1.52671E-01 1.08444E-28
1.55823E-01 1.00295E-28
1.59001E-01 9.27661E-29
1.62205E-01 8.58082E-29
1.65435E-01 7.93769E-29
1.68690E-01 7.34314E-29
1.71970E-01 6.79339E-29
1.75276E-01 6.28498E-29
1.78606E-01 5.81475E-29
1.81961E-01 5.37976E-29
1.85340E-01 4.97732E-29
1.88743E-01 4.60495E-29
1.92169E-01 4.26037E-29
1.95619E-01 3.94147E-29
1.99092E-01 3.64632E-29
2.02589E-01 3.37313E-29
2.06107E-01 3.12024E-29
2.09649E-01 2.88615E-29
2.13212E-01 2.66943E-29
2.16797E-01 2.46880E-29
2.20404E-01 2.28305E-29
2.24032E-01 2.11108E-29
2.27680E-01 1.95186E-29
2.31350E-01 1.80446E-29
2.35040E-01 1.66799E-29
2.38751E-01 1.54164E-29
2.42481E-01 1.42467E-29
2.46231E-01 1.31639E-29
2.50000E-01 1.21615E-29
2.53788E-01 1.12337E-29
2.57595E-01 1.03749E-29
2.61421E-01 9.58000E-30
2.65264E-01 8.84439E-30
2.69126E-01 8.16366E-30
2.73005E-01 7.53379E-30
2.76901E-01 6.95104E-30
2.80814E-01 6.41194E-30
2.84744E-01 5.91327E-30
2.88691E-01 5.45207E-30
2.92653E-01 5.02558E-30
2.96632E-01 4.63123E-30
3.00625E-01 4.26668E-30
3.04634E-01 3.92971E-30
3.08658E-01 3.61829E-30
3.12697E-01 3.33055E-30
3.16749E-01 3.06472E-30
3.20816E-01 2.81919E-30
3.24896E-01 2.59245E-30
3.28990E-01 2.38311E-30
3.33097E-01 2.18988E-30
3.37216E-01 2.01156E-30
3.41348E-01 1.84704E-30
3.45492E-01 1.69530E-30
3.49647E-01 1.55537E-30
3.53814E-01 1.42637E-30
3.57992E-01 1.30748E-30
3.62181E-01 1.19795E-30
3.66381E-01 1.09706E-30
3.70590E-01 1.00417E-30
3.74810E-01 9.18671E-31
3.79039E-01 8.40000E-31
3.83277E-01 7.67639E-31
3.87524E-01 7.01108E-31
3.91780E-01 6.39960E-31
3.96044E-01 5.83783E-31
4.00316E-01 5.32195E-31
4.04596E-01 4.84841E-31
4.08882E-01 4.41394E-31
4.13176E-01 4.01550E-31
4.17476E-01 3.65028E-31
4.21783E-01 3.31570E-31
4.26095E-01 3.00934E-31
4.30413E-01 2.72897E-31
4.34737E-01 2.47255E-31
4.39065E-01 2.23817E-31
4.43398E-01 2.02407E-31
4.47736E-01 1.82862E-31
4.52077E-01 1.65033E-31
4.56422E-01 1.48780E-31
4.60770E-01 1.33976E-31
4.65122E-01 1.20502E-31
4.69476E-01 1.08248E-31
4.73832E-01 9.71144E-32
4.78190E-01 8.70074E-32
4.82550E-01 7.78414E-32
4.86912E-01 6.95372E-32
4.91274E-01 6.20220E-32
4.95637E-01 5.52285E-32
5.00000E-01 4.90947E-32
5.04363E-01 4.35637E-32
5.08726E-01 3.85831E-32
5.13088E-01 3.41045E-32
5.17450E-01 3.00835E-32
5.21810E-01 2.64794E-32
5.26168E-01 2.32547E-32
5.30524E-01 2.03749E-32
5.34878E-01 1.78083E-32
5.39230E-01 1.55261E-32
5.43578E-01 1.35016E-32
5.47923E-01 1.17104E-32
5.52264E-01 1.01302E-32
5.56602E-01 8.74063E-33
5.60935E-01 7.52294E-33
5.65263E-01 6.46004E-33
5.69587E-01 5.53635E-33
5.73905E-01 4.73761E-33
5.78217E-01 4.05082E-33
5.82524E-01 3.46416E-33
5.86824E-01 2.96684E-33
5.91118E-01 2.54904E-33
5.95404E-01 2.20187E-33
5.99684E-01 1.91722E-33
6.03956E-01 1.68777E-33
6.08220E-01 1.50685E-33
6.12476E-01 1.36846E-33
6.16723E-01 1.26718E-33
6.20961E-01 1.19810E-33
6.25190E-01 1.15680E-33
6.29410E-01 1.13933E-33
6.33619E-01 1.14211E-33
6.37819E-01 1.16195E-33
6.42008E-01 1.19601E-33
6.46186E-01 1.24173E-33
6.50353E-01 1.29685E-33
6.54508E-01 1.35937E-33
6.58652E-01 1.42750E-33
6.62784E-01 1.49968E-33
6.66903E-01 1.57453E-33
6.71010E-01 1.65086E-33
6.75104E-01 1.72761E-33
6.79184E-01 1.80388E-33
6.83251E-01 1.87889E-33
6.87303E-01 1.95198E-33
6.91342E-01 2.02259E-33
6.95366E-01 2.09026E-33
6.99375E-01 2.15459E-33
7.03368E-01 2.21527E-33
7.07347E-01 2.27208E-33
7.11309E-01 2.32482E-33
7.15256E-01 2.37334E-33
7.19186E-01 2.41756E-33
7.23099E-01 2.45744E-33
7.26995E-01 2.49295E-33
7.30874E-01 2.52412E-33
7.34736E-01 2.55100E-33
7.38579E-01 2.57365E-33
7.42405E-01 2.59215E-33
7.46212E-01 2.60661E-33
7.50000E-01 2.61714E-33
7.53769E-01 2.62386E-33
7.57519E-01 2.62694E-33
7.61249E-01 2.62649E-33
7.64960E-01 2.62267E-33
7.68650E-01 2.61565E-33
7.72320E-01 2.60558E-33
7.75968E-01 2.59260E-33
7.79596E-01 2.57688E-33
7.83203E-01 2.55858E-33
7.86788E-01 2.53785E-33
7.90351E-01 2.51487E-33
7.93893E-01 2.48975E-33
7.97411E-01 2.46268E-33
8.00908E-01 2.43378E-33
8.04381E-01 2.40320E-33
8.07831E-01 2.37108E-33
8.11257E-01 2.33756E-33
8.14660E-01 2.30274E-33
8.18039E-01 2.26678E-33
8.21394E-01 2.22977E-33
8.24724E-01 2.19185E-33
8.28030E-01 2.15311E-33
8.31310E-01 2.11366E-33
8.34565E-01 2.07361E-33
8.37795E-01 2.03304E-33
8.40999E-01 1.99205E-33
8.44177E-01 1.95071E-33
8.47329E-01 1.90912E-33
8.50455E-01 1.86735E-33
8.53553E-01 1.82546E-33
8.56625E-01 1.78353E-33
8.59670E-01 1.74162E-33
8.62687E-01 1.69978E-33
8.65677E-01 1.65810E-33
8.68639E-01 1.61658E-33
8.71572E-01 1.57531E-33
8.74478E-01 1.53431E-33
8.77355E-01 1.49364E-33
8.80203E-01 1.45332E-33
8.83022E-01 1.41340E-33
8.85812E-01 1.37390E-33
8.88573E-01 1.33486E-33
8.91304E-01 1.29630E-33
8.94005E-01 1.25825E-33
8.96677E-01 1.22073E-33
8.99318E-01 1.18375E-33
9.01928E-01 1.14734E-33
9.04508E-01 1.11151E-33
9.07058E-01 1.07628E-33
9.09576E-01 1.04165E-33
9.12063E-01 1.00764E-33
9.14519E-01 9.74255E-34
9.16943E-01 9.41500E-34
9.19335E-01 9.09388E-34
9.21696E-01 8.77917E-34
9.24024E-01 8.47095E-34
9.26320E-01 8.16915E-34
9.28584E-01 7.87387E-34
9.30815E-01 7.58505E-34
9.33013E-01 7.30279E-34
9.35178E-01 7.02694E-34
9.37310E-01 6.75754E-34
9.39409E-01 6.49457E-34
9.41474E-01 6.23795E-34
9.43505E-01 5.98769E-34
9.45503E-01 5.74370E-34
9.47467E-01 5.50597E-34
9.49397E-01 5.27439E-34
9.51293E-01 5.04893E-34
9.53154E-01 4.82956E-34
9.54981E-01 4.61607E-34
9.56773E-01 4.40857E-34
9.58530E-01 4.20689E-34
9.60252E-01 4.01099E-34
9.61940E-01 3.82074E-34
9.63592E-01 3.63612E-34
9.65209E-01 3.45705E-34
9.66790E-01 3.28344E-34
9.68336E-01 3.11520E-34
9.69846E-01 2.95224E-34
9.71321E-01 2.79452E-34
9.72759E-01 2.64192E-34
9.74162E-01 2.49438E-34
9.75528E-01 2.35179E-34
9.76858E-01 2.21419E-34
9.78152E-01 2.08136E-34
9.79410E-01 1.95333E-34
9.80631E-01 1.82993E-34
9.81815E-01 1.71116E-34
9.82963E-01 1.59689E-34
9.84074E-01 1.48712E-34
9.85148E-01 1.38173E-34
9.86185E-01 1.28066E-34
9.87185E-01 1.18387E-34
9.88148E-01 1.09125E-34
9.89074E-01 1.00280E-34
9.89962E-01 9.18422E-35
9.90814E-01 8.38052E-35
9.91627E-01 7.61638E-35
9.92404E-01 6.89188E-35
9.93143E-01 6.20568E-35
9.93844E-01 5.55744E-35
9.94508E-01 4.94709E-35
9.95134E-01 4.37399E-35
9.95722E-01 3.83764E-35
9.96273E-01 3.33797E-35
9.96786E-01 2.87404E-35
9.97261E-01 2.44603E-35
9.97698E-01 2.05339E-35
9.98097E-01 1.69591E-35
9.98459E-01 1.37336E-35
9.98782E-01 1.08530E-35
9.99067E-01 8.31775E-36
9.99315E-01 6.12307E-36
9.99524E-01 4.27004E-36
9.99695E-01 2.75488E-36
9.99829E-01 1.57916E-36
9.99924E-01 7.37878E-37
9.99981E-01 2.34418E-37
1.00000E+00 6.81463E-38
