 #
 # Subroutine ELSEPA. Elastic scattering of electrons and positrons
 #                    by neutral atoms and positive ions
 #
 # Projectile: electron
 # Kinetic energy = 8.00000E+08 eV = 2.93995E+07 a.u.
 #
 # WARNING: High-energy factorization with free-atom DF screening.
 #          Absorption, polarization and exchange corrections are
 #          switched off.
 #          Phase shifts are calculated for the bare nucleus.
 #          Scattering amplitudes are not evaluated.
 #
 # Element:  F,  Z =   9,  atomic weight = 1.89984E+01 g/mol
 #
 # Nuclear model: Fermi distribution
 #                Average radius = 2.85511E-13 cm
 #                Skin thickness = 5.46000E-14 cm
 #
 # Number of electrons =  9
 #
 # Total elastic cross section = 2.84747E-19 cm**2 = 1.01685E-02 a0**2
 # 1st transport cross section = 2.81322E-28 cm**2 = 1.00462E-11 a0**2
 # 2nd transport cross section = 8.43727E-28 cm**2 = 3.01300E-11 a0**2
 #
 #
 # Differential cross section:                       MU=(1-COS(THETA))/2
 #
 #  THETA        MU          DCS          DCS        Sherman      error
 #  (deg)                 (cm**2/sr)   (a0**2/sr)    function
 #----------------------------------------------------------------------
0.00000E+00 7.97092E-10
7.61557E-13 7.58874E-10
1.18994E-12 7.38577E-10
1.71346E-12 7.14837E-10
2.33225E-12 6.88199E-10
3.04617E-12 6.57667E-10
3.85530E-12 6.28122E-10
4.75964E-12 5.95092E-10
5.75917E-12 5.63034E-10
6.85391E-12 5.30148E-10
8.04379E-12 4.97441E-10
9.32893E-12 4.66204E-10
1.07092E-11 4.34365E-10
1.21847E-11 4.05593E-10
1.37554E-11 3.75782E-10
1.54213E-11 3.49006E-10
1.71823E-11 3.22789E-10
1.90386E-11 2.98526E-10
2.09900E-11 2.75808E-10
2.30367E-11 2.54270E-10
2.51785E-11 2.34796E-10
2.74156E-11 2.15977E-10
2.97478E-11 1.99190E-10
3.21752E-11 1.83168E-10
3.46979E-11 1.68703E-10
3.73157E-11 1.55260E-10
4.00286E-11 1.42896E-10
4.28368E-11 1.31643E-10
4.57402E-11 1.21139E-10
4.87388E-11 1.11712E-10
5.18325E-11 1.02840E-10
5.50215E-11 9.48633E-11
5.83057E-11 8.74723E-11
6.16850E-11 8.07373E-11
6.51595E-11 7.45696E-11
6.87293E-11 6.88886E-11
7.23943E-11 6.37339E-11
7.61544E-11 5.89441E-11
1.18991E-10 2.83299E-11
1.71347E-10 1.47844E-11
2.33223E-10 8.34854E-12
3.04617E-10 5.05026E-12
3.85531E-10 3.23808E-12
4.75965E-10 2.17798E-12
5.75917E-10 1.52339E-12
6.85389E-10 1.10066E-12
8.04380E-10 8.16707E-13
9.32891E-10 6.19773E-13
1.07092E-09 4.79361E-13
1.21847E-09 3.76779E-13
1.37554E-09 3.00406E-13
1.54213E-09 2.42446E-13
1.71823E-09 1.97838E-13
1.90386E-09 1.63023E-13
2.09900E-09 1.35511E-13
2.30367E-09 1.13558E-13
2.51785E-09 9.58424E-14
2.74156E-09 8.14391E-14
2.97478E-09 6.96266E-14
3.21752E-09 5.98661E-14
3.46978E-09 5.17501E-14
3.73156E-09 4.49519E-14
4.00286E-09 3.92293E-14
4.28368E-09 3.43828E-14
4.57402E-09 3.02575E-14
4.87388E-09 2.67298E-14
5.18326E-09 2.36977E-14
5.50215E-09 2.10818E-14
5.83057E-09 1.88148E-14
6.16850E-09 1.68430E-14
6.51596E-09 1.51218E-14
6.87293E-09 1.36136E-14
7.23942E-09 1.22882E-14
7.61544E-09 1.11194E-14
1.18991E-08 4.59245E-15
1.71347E-08 2.22269E-15
2.33223E-08 1.20184E-15
3.04617E-08 7.05148E-16
3.85531E-08 4.40452E-16
4.75965E-08 2.89073E-16
5.75917E-08 1.97481E-16
6.85389E-08 1.39454E-16
8.04380E-08 1.01257E-16
9.32891E-08 7.52851E-17
1.07092E-07 5.71300E-17
1.21847E-07 4.41323E-17
1.37554E-07 3.46296E-17
1.54213E-07 2.75524E-17
1.71823E-07 2.21942E-17
1.90386E-07 1.80775E-17
2.09900E-07 1.48726E-17
2.30367E-07 1.23474E-17
2.51785E-07 1.03362E-17
2.74156E-07 8.71824E-18
2.97478E-07 7.40486E-18
3.21752E-07 6.32975E-18
3.46978E-07 5.44287E-18
3.73156E-07 4.70602E-18
4.00286E-07 4.08975E-18
4.28368E-07 3.57114E-18
4.57402E-07 3.13219E-18
4.87388E-07 2.75865E-18
5.18325E-07 2.43918E-18
5.50215E-07 2.16464E-18
5.83057E-07 1.92767E-18
6.16850E-07 1.72225E-18
6.51596E-07 1.54348E-18
6.87293E-07 1.38732E-18
7.23942E-07 1.25042E-18
7.61543E-07 1.12999E-18
1.18991E-06 4.62868E-19
1.71347E-06 2.23230E-19
2.33223E-06 1.20500E-19
3.04617E-06 7.06379E-20
3.85531E-06 4.41009E-20
4.75964E-06 2.89359E-20
5.75916E-06 1.97645E-20
6.85388E-06 1.39557E-20
8.04378E-06 1.01326E-20
9.32888E-06 7.53362E-21
1.07092E-05 5.71703E-21
1.21846E-05 4.41647E-21
1.37553E-05 3.46561E-21
1.54212E-05 2.75743E-21
1.71822E-05 2.22126E-21
1.90385E-05 1.80927E-21
2.09899E-05 1.48857E-21
2.30365E-05 1.23589E-21
2.51783E-05 1.03462E-21
2.74153E-05 8.72697E-22
2.97475E-05 7.41251E-22
3.21749E-05 6.33648E-22
3.46974E-05 5.44883E-22
3.73152E-05 4.71134E-22
4.00281E-05 4.09454E-22
4.28362E-05 3.57546E-22
4.57395E-05 3.13611E-22
4.87380E-05 2.76222E-22
5.18317E-05 2.44242E-22
5.50205E-05 2.16760E-22
5.83045E-05 1.93037E-22
6.16838E-05 1.72473E-22
6.51582E-05 1.54576E-22
6.87277E-05 1.38942E-22
7.23925E-05 1.25236E-22
7.61524E-05 1.11538E-22
9.21439E-05 7.59568E-23
1.09658E-04 5.34554E-23
1.28695E-04 3.86715E-23
1.49255E-04 2.86394E-23
1.71338E-04 2.16416E-23
1.94942E-04 1.66425E-23
2.20070E-04 1.29961E-23
2.46720E-04 1.02872E-23
2.74892E-04 8.24162E-24
3.04586E-04 6.67444E-24
3.35803E-04 5.45796E-24
3.68542E-04 4.50252E-24
4.02802E-04 3.74403E-24
4.38585E-04 3.13599E-24
4.75889E-04 2.64420E-24
5.14715E-04 2.24317E-24
5.55063E-04 1.91367E-24
5.96931E-04 1.64104E-24
6.40321E-04 1.41402E-24
6.85233E-04 1.22384E-24
7.31665E-04 1.06363E-24
7.79618E-04 9.27957E-25
8.29092E-04 8.12510E-25
8.80086E-04 7.13822E-25
9.32601E-04 6.29100E-25
9.86636E-04 5.56074E-25
1.04219E-03 4.92891E-25
1.09927E-03 4.38030E-25
1.15786E-03 3.90233E-25
1.21797E-03 3.48458E-25
1.27961E-03 3.11837E-25
1.34276E-03 2.79642E-25
1.40743E-03 2.51262E-25
1.47362E-03 2.26180E-25
1.54133E-03 2.03959E-25
1.61056E-03 1.84227E-25
1.68131E-03 1.66666E-25
1.75357E-03 1.51005E-25
1.82735E-03 1.37010E-25
1.90265E-03 1.24481E-25
1.97947E-03 1.13242E-25
2.05780E-03 1.03144E-25
2.13765E-03 9.40554E-26
2.21902E-03 8.58627E-26
2.30190E-03 7.84663E-26
2.38630E-03 7.17790E-26
2.47222E-03 6.57245E-26
2.55965E-03 6.02355E-26
2.64859E-03 5.52529E-26
2.73905E-03 5.07244E-26
2.83103E-03 4.66038E-26
2.92452E-03 4.28502E-26
3.01952E-03 3.94272E-26
3.11604E-03 3.63024E-26
3.21407E-03 3.34470E-26
3.31362E-03 3.08354E-26
3.41468E-03 2.84445E-26
3.51725E-03 2.62538E-26
3.62133E-03 2.42448E-26
3.72692E-03 2.24010E-26
3.83403E-03 2.07075E-26
3.94265E-03 1.91508E-26
4.05278E-03 1.77189E-26
4.16442E-03 1.64010E-26
4.27757E-03 1.51870E-26
4.39223E-03 1.40682E-26
4.50840E-03 1.30365E-26
4.62608E-03 1.20844E-26
4.74527E-03 1.12055E-26
4.86597E-03 1.03936E-26
4.98817E-03 9.64324E-27
5.11188E-03 8.94944E-27
5.23711E-03 8.30762E-27
5.36383E-03 7.71363E-27
5.49207E-03 7.16367E-27
5.62181E-03 6.65428E-27
5.75306E-03 6.18227E-27
5.88581E-03 5.74475E-27
6.02007E-03 5.33904E-27
6.15583E-03 4.96272E-27
6.29310E-03 4.61355E-27
6.43187E-03 4.28946E-27
6.57214E-03 3.98857E-27
6.71392E-03 3.70914E-27
6.85720E-03 3.44958E-27
7.00198E-03 3.20842E-27
7.14827E-03 2.98430E-27
7.29605E-03 2.77597E-27
7.44534E-03 2.58229E-27
7.59612E-03 2.40218E-27
7.97965E-03 2.00507E-27
8.37255E-03 1.67350E-27
8.77480E-03 1.39644E-27
9.18641E-03 1.16481E-27
9.60736E-03 9.71069E-28
1.00376E-02 8.08989E-28
1.04773E-02 6.73387E-28
1.09262E-02 5.59948E-28
1.13844E-02 4.65074E-28
1.18520E-02 3.85760E-28
1.23288E-02 3.19492E-28
1.28150E-02 2.64164E-28
1.33104E-02 2.18011E-28
1.38150E-02 1.79552E-28
1.43290E-02 1.47544E-28
1.48521E-02 1.20942E-28
1.53845E-02 9.88674E-29
1.59262E-02 8.05822E-29
1.64770E-02 6.54658E-29
1.70371E-02 5.29963E-29
1.76063E-02 4.27352E-29
1.81848E-02 3.43141E-29
1.87724E-02 2.74234E-29
1.93692E-02 2.18035E-29
1.99751E-02 1.72367E-29
2.05901E-02 1.35405E-29
2.12143E-02 1.05624E-29
2.18476E-02 8.17484E-30
2.24900E-02 6.27151E-30
2.31415E-02 4.76383E-30
2.38021E-02 3.57817E-30
2.44717E-02 2.65349E-30
2.51504E-02 1.93930E-30
2.58382E-02 1.39395E-30
2.65349E-02 9.83175E-31
2.72407E-02 6.78913E-31
2.79555E-02 4.58247E-31
2.86793E-02 3.02552E-31
2.94120E-02 1.96767E-31
3.01537E-02 1.28782E-31
3.09043E-02 8.89183E-32
3.16639E-02 6.95031E-32
3.24324E-02 6.45048E-32
3.32098E-02 6.92315E-32
3.39961E-02 8.00799E-32
3.47912E-02 9.43254E-32
3.55952E-02 1.09949E-31
3.64081E-02 1.25493E-31
3.72297E-02 1.39944E-31
3.80602E-02 1.52635E-31
3.88995E-02 1.63168E-31
3.97476E-02 1.71345E-31
4.06044E-02 1.77124E-31
4.14700E-02 1.80568E-31
4.23443E-02 1.81821E-31
4.32273E-02 1.81075E-31
4.41190E-02 1.78553E-31
4.50194E-02 1.74492E-31
4.59284E-02 1.69134E-31
4.68461E-02 1.62712E-31
4.87074E-02 1.47556E-31
5.06030E-02 1.30604E-31
5.25328E-02 1.13123E-31
5.44967E-02 9.60630E-32
5.64946E-02 8.00830E-32
5.85262E-02 6.55951E-32
6.05914E-02 5.28139E-32
6.26901E-02 4.18038E-32
6.48222E-02 3.25214E-32
6.69873E-02 2.48511E-32
6.91854E-02 1.86342E-32
7.14163E-02 1.36904E-32
7.36799E-02 9.83468E-33
7.59760E-02 6.88787E-33
7.83043E-02 4.68443E-33
8.06647E-02 3.07644E-33
8.30571E-02 1.93546E-33
8.54812E-02 1.15280E-33
8.79369E-02 6.38569E-34
9.04240E-02 3.20050E-34
9.29422E-02 1.39729E-34
9.54915E-02 5.31516E-35
9.80716E-02 2.68077E-35
1.00682E-01 3.61451E-35
1.03323E-01 6.37762E-35
1.05995E-01 9.79073E-35
1.08696E-01 1.31004E-34
1.11427E-01 1.58682E-34
1.14188E-01 1.78813E-34
1.16978E-01 1.90807E-34
1.19797E-01 1.95074E-34
1.22645E-01 1.92605E-34
1.25522E-01 1.84683E-34
1.28428E-01 1.72668E-34
1.31361E-01 1.57863E-34
1.34323E-01 1.41436E-34
1.37313E-01 1.24370E-34
1.40330E-01 1.07451E-34
1.43375E-01 9.12760E-35
1.46447E-01 7.62622E-35
1.49545E-01 6.26763E-35
1.52671E-01 5.06580E-35
1.55823E-01 4.02447E-35
1.59001E-01 3.13984E-35
1.62205E-01 2.40263E-35
1.65435E-01 1.79997E-35
1.68690E-01 1.31693E-35
1.71970E-01 9.37788E-36
1.75276E-01 6.46884E-36
1.78606E-01 4.29363E-36
1.81961E-01 2.71546E-36
1.85340E-01 1.61235E-36
1.88743E-01 8.78022E-37
1.92169E-01 4.22423E-37
1.95619E-01 1.70631E-37
1.99092E-01 6.20004E-38
2.02589E-01 4.84949E-38
2.06107E-01 9.31101E-38
2.09649E-01 1.68280E-37
2.13212E-01 2.54146E-37
2.16797E-01 3.37256E-37
2.20404E-01 4.09086E-37
2.24032E-01 4.64882E-37
2.27680E-01 5.02762E-37
2.31350E-01 5.22845E-37
2.35040E-01 5.26603E-37
2.38751E-01 5.16192E-37
2.42481E-01 4.94305E-37
2.46231E-01 4.63631E-37
2.50000E-01 4.26805E-37
2.53788E-01 3.86179E-37
2.57595E-01 3.43787E-37
2.61421E-01 3.01364E-37
2.65264E-01 2.60224E-37
2.69126E-01 2.21375E-37
2.73005E-01 1.85541E-37
2.76901E-01 1.53139E-37
2.80814E-01 1.24412E-37
2.84744E-01 9.94012E-38
2.88691E-01 7.80103E-38
2.92653E-01 6.00334E-38
2.96632E-01 4.52063E-38
3.00625E-01 3.32136E-38
3.04634E-01 2.37063E-38
3.08658E-01 1.63422E-38
3.12697E-01 1.07899E-38
3.16749E-01 6.73805E-39
3.20816E-01 3.90149E-39
3.24896E-01 2.02451E-39
3.28990E-01 1.00000E-45
3.33097E-01 1.00000E-45
3.37216E-01 1.00000E-45
3.41348E-01 1.00000E-45
3.45492E-01 1.00000E-45
3.49647E-01 1.00000E-45
3.53814E-01 1.00000E-45
3.57992E-01 1.00000E-45
3.62181E-01 1.00000E-45
3.66381E-01 1.00000E-45
3.70590E-01 1.00000E-45
3.74810E-01 1.00000E-45
3.79039E-01 1.00000E-45
3.83277E-01 1.00000E-45
3.87524E-01 1.00000E-45
3.91780E-01 1.00000E-45
3.96044E-01 1.00000E-45
4.00316E-01 1.00000E-45
4.04596E-01 1.00000E-45
4.08882E-01 1.00000E-45
4.13176E-01 1.00000E-45
4.17476E-01 1.00000E-45
4.21783E-01 1.00000E-45
4.26095E-01 1.00000E-45
4.30413E-01 1.00000E-45
4.34737E-01 1.00000E-45
4.39065E-01 1.00000E-45
4.43398E-01 1.00000E-45
4.47736E-01 1.00000E-45
4.52077E-01 1.00000E-45
4.56422E-01 1.00000E-45
4.60770E-01 1.00000E-45
4.65122E-01 1.00000E-45
4.69476E-01 1.00000E-45
4.73832E-01 1.00000E-45
4.78190E-01 1.00000E-45
4.82550E-01 1.00000E-45
4.86912E-01 1.00000E-45
4.91274E-01 1.00000E-45
4.95637E-01 1.00000E-45
5.00000E-01 1.00000E-45
5.04363E-01 1.00000E-45
5.08726E-01 1.00000E-45
5.13088E-01 1.00000E-45
5.17450E-01 1.00000E-45
5.21810E-01 1.00000E-45
5.26168E-01 1.00000E-45
5.30524E-01 1.00000E-45
5.34878E-01 1.00000E-45
5.39230E-01 1.00000E-45
5.43578E-01 1.00000E-45
5.47923E-01 1.00000E-45
5.52264E-01 1.00000E-45
5.56602E-01 1.00000E-45
5.60935E-01 1.00000E-45
5.65263E-01 1.00000E-45
5.69587E-01 1.00000E-45
5.73905E-01 1.00000E-45
5.78217E-01 1.00000E-45
5.82524E-01 1.00000E-45
5.86824E-01 1.00000E-45
5.91118E-01 1.00000E-45
5.95404E-01 1.00000E-45
5.99684E-01 1.00000E-45
6.03956E-01 1.00000E-45
6.08220E-01 1.00000E-45
6.12476E-01 1.00000E-45
6.16723E-01 1.00000E-45
6.20961E-01 1.00000E-45
6.25190E-01 1.00000E-45
6.29410E-01 1.00000E-45
6.33619E-01 1.00000E-45
6.37819E-01 1.00000E-45
6.42008E-01 1.00000E-45
6.46186E-01 1.00000E-45
6.50353E-01 1.00000E-45
6.54508E-01 1.00000E-45
6.58652E-01 1.00000E-45
6.62784E-01 1.00000E-45
6.66903E-01 1.00000E-45
6.71010E-01 1.00000E-45
6.75104E-01 1.00000E-45
6.79184E-01 1.00000E-45
6.83251E-01 1.00000E-45
6.87303E-01 1.00000E-45
6.91342E-01 1.00000E-45
6.95366E-01 1.00000E-45
6.99375E-01 1.00000E-45
7.03368E-01 1.00000E-45
7.07347E-01 1.00000E-45
7.11309E-01 1.00000E-45
7.15256E-01 1.00000E-45
7.19186E-01 1.00000E-45
7.23099E-01 1.00000E-45
7.26995E-01 1.00000E-45
7.30874E-01 1.00000E-45
7.34736E-01 1.00000E-45
7.38579E-01 1.00000E-45
7.42405E-01 1.00000E-45
7.46212E-01 1.00000E-45
7.50000E-01 1.00000E-45
7.53769E-01 1.00000E-45
7.57519E-01 1.00000E-45
7.61249E-01 1.00000E-45
7.64960E-01 1.00000E-45
7.68650E-01 1.00000E-45
7.72320E-01 1.00000E-45
7.75968E-01 1.00000E-45
7.79596E-01 1.00000E-45
7.83203E-01 1.00000E-45
7.86788E-01 1.00000E-45
7.90351E-01 1.00000E-45
7.93893E-01 1.00000E-45
7.97411E-01 1.00000E-45
8.00908E-01 1.00000E-45
8.04381E-01 1.00000E-45
8.07831E-01 1.00000E-45
8.11257E-01 1.00000E-45
8.14660E-01 1.00000E-45
8.18039E-01 1.00000E-45
8.21394E-01 1.00000E-45
8.24724E-01 1.00000E-45
8.28030E-01 1.00000E-45
8.31310E-01 1.00000E-45
8.34565E-01 1.00000E-45
8.37795E-01 1.00000E-45
8.40999E-01 1.00000E-45
8.44177E-01 1.00000E-45
8.47329E-01 1.00000E-45
8.50455E-01 1.00000E-45
8.53553E-01 1.00000E-45
8.56625E-01 1.00000E-45
8.59670E-01 1.00000E-45
8.62687E-01 1.00000E-45
8.65677E-01 1.00000E-45
8.68639E-01 1.00000E-45
8.71572E-01 1.00000E-45
8.74478E-01 1.00000E-45
8.77355E-01 1.00000E-45
8.80203E-01 1.00000E-45
8.83022E-01 1.00000E-45
8.85812E-01 1.00000E-45
8.88573E-01 1.00000E-45
8.91304E-01 1.00000E-45
8.94005E-01 1.00000E-45
8.96677E-01 1.00000E-45
8.99318E-01 1.00000E-45
9.01928E-01 1.00000E-45
9.04508E-01 1.00000E-45
9.07058E-01 1.00000E-45
9.09576E-01 1.00000E-45
9.12063E-01 1.00000E-45
9.14519E-01 1.00000E-45
9.16943E-01 1.00000E-45
9.19335E-01 1.00000E-45
9.21696E-01 1.00000E-45
9.24024E-01 1.00000E-45
9.26320E-01 1.00000E-45
9.28584E-01 1.00000E-45
9.30815E-01 1.00000E-45
9.33013E-01 1.00000E-45
9.35178E-01 1.00000E-45
9.37310E-01 1.00000E-45
9.39409E-01 1.00000E-45
9.41474E-01 1.00000E-45
9.43505E-01 1.00000E-45
9.45503E-01 1.00000E-45
9.47467E-01 1.00000E-45
9.49397E-01 1.00000E-45
9.51293E-01 1.00000E-45
9.53154E-01 1.00000E-45
9.54981E-01 1.00000E-45
9.56773E-01 1.00000E-45
9.58530E-01 1.00000E-45
9.60252E-01 1.00000E-45
9.61940E-01 1.00000E-45
9.63592E-01 1.00000E-45
9.65209E-01 1.00000E-45
9.66790E-01 1.00000E-45
9.68336E-01 1.00000E-45
9.69846E-01 1.00000E-45
9.71321E-01 1.00000E-45
9.72759E-01 1.00000E-45
9.74162E-01 1.00000E-45
9.75528E-01 1.00000E-45
9.76858E-01 1.00000E-45
9.78152E-01 1.00000E-45
9.79410E-01 1.00000E-45
9.80631E-01 1.00000E-45
9.81815E-01 1.00000E-45
9.82963E-01 1.00000E-45
9.84074E-01 1.00000E-45
9.85148E-01 1.00000E-45
9.86185E-01 1.00000E-45
9.87185E-01 1.00000E-45
9.88148E-01 1.00000E-45
9.89074E-01 1.00000E-45
9.89962E-01 1.00000E-45
9.90814E-01 1.00000E-45
9.91627E-01 1.00000E-45
9.92404E-01 1.00000E-45
9.93143E-01 1.00000E-45
9.93844E-01 1.00000E-45
9.94508E-01 1.00000E-45
9.95134E-01 1.00000E-45
9.95722E-01 1.00000E-45
9.96273E-01 1.00000E-45
9.96786E-01 1.00000E-45
9.97261E-01 1.00000E-45
9.97698E-01 1.00000E-45
9.98097E-01 1.00000E-45
9.98459E-01 1.00000E-45
9.98782E-01 1.00000E-45
9.99067E-01 1.00000E-45
9.99315E-01 1.00000E-45
9.99524E-01 1.00000E-45
9.99695E-01 1.00000E-45
9.99829E-01 1.00000E-45
9.99924E-01 1.00000E-45
9.99981E-01 1.00000E-45
1.00000E+00 1.00000E-45
