 #
 # Subroutine ELSEPA. Elastic scattering of electrons and positrons
 #                    by neutral atoms and positive ions
 #
 # Projectile: electron
 # Kinetic energy = 1.00000E+09 eV = 3.67493E+07 a.u.
 #
 # WARNING: High-energy factorization with free-atom DF screening.
 #          Absorption, polarization and exchange corrections are
 #          switched off.
 #          Phase shifts are calculated for the bare nucleus.
 #          Scattering amplitudes are not evaluated.
 #
 # Element:  F,  Z =   9,  atomic weight = 1.89984E+01 g/mol
 #
 # Nuclear model: Fermi distribution
 #                Average radius = 2.85511E-13 cm
 #                Skin thickness = 5.46000E-14 cm
 #
 # Number of electrons =  9
 #
 # Total elastic cross section = 2.84580E-19 cm**2 = 1.01625E-02 a0**2
 # 1st transport cross section = 1.80183E-28 cm**2 = 6.43446E-12 a0**2
 # 2nd transport cross section = 5.40452E-28 cm**2 = 1.92999E-11 a0**2
 #
 #
 # Differential cross section:                       MU=(1-COS(THETA))/2
 #
 #  THETA        MU          DCS          DCS        Sherman      error
 #  (deg)                 (cm**2/sr)   (a0**2/sr)    function
 #----------------------------------------------------------------------
0.00000E+00 1.24514E-09
7.61557E-13 1.15375E-09
1.18994E-12 1.10667E-09
1.71346E-12 1.05116E-09
2.33225E-12 9.93441E-10
3.04617E-12 9.29655E-10
3.85530E-12 8.66120E-10
4.75964E-12 8.04235E-10
5.75917E-12 7.39904E-10
6.85391E-12 6.78613E-10
8.04379E-12 6.21379E-10
9.32893E-12 5.66266E-10
1.07092E-11 5.14005E-10
1.21847E-11 4.66425E-10
1.37554E-11 4.22820E-10
1.54213E-11 3.81538E-10
1.71823E-11 3.44509E-10
1.90386E-11 3.11241E-10
2.09900E-11 2.80457E-10
2.30367E-11 2.52760E-10
2.51785E-11 2.28048E-10
2.74156E-11 2.05703E-10
2.97478E-11 1.85445E-10
3.21752E-11 1.67423E-10
3.46979E-11 1.51343E-10
3.73157E-11 1.36689E-10
4.00286E-11 1.23653E-10
4.28368E-11 1.12026E-10
4.57402E-11 1.01529E-10
4.87388E-11 9.21129E-11
5.18325E-11 8.37026E-11
5.50215E-11 7.61487E-11
5.83057E-11 6.93268E-11
6.16850E-11 6.32176E-11
6.51595E-11 5.77339E-11
6.87293E-11 5.27660E-11
7.23943E-11 4.82974E-11
7.61544E-11 4.42738E-11
1.18991E-10 1.98890E-11
1.71347E-10 1.00648E-11
2.33223E-10 5.62806E-12
3.04617E-10 3.40385E-12
3.85531E-10 2.18897E-12
4.75965E-10 1.47718E-12
5.75917E-10 1.03580E-12
6.85389E-10 7.49167E-13
8.04380E-10 5.55761E-13
9.32891E-10 4.21142E-13
1.07092E-09 3.24997E-13
1.21847E-09 2.54781E-13
1.37554E-09 2.02493E-13
1.54213E-09 1.62898E-13
1.71823E-09 1.32486E-13
1.90386E-09 1.08817E-13
2.09900E-09 9.01753E-14
2.30367E-09 7.53333E-14
2.51785E-09 6.34063E-14
2.74156E-09 5.37359E-14
2.97478E-09 4.58305E-14
3.21752E-09 3.93172E-14
3.46978E-09 3.39152E-14
3.73156E-09 2.94053E-14
4.00286E-09 2.56171E-14
4.28368E-09 2.24165E-14
4.57402E-09 1.96984E-14
4.87388E-09 1.73783E-14
5.18326E-09 1.53887E-14
5.50215E-09 1.36747E-14
5.83057E-09 1.21920E-14
6.16850E-09 1.09042E-14
6.51596E-09 9.78159E-15
6.87293E-09 8.79934E-15
7.23942E-09 7.93698E-15
7.61544E-09 7.17747E-15
1.18991E-08 2.95211E-15
1.71347E-08 1.42611E-15
2.33223E-08 7.70402E-16
3.04617E-08 4.51788E-16
3.85531E-08 2.82117E-16
4.75965E-08 1.85124E-16
5.75917E-08 1.26454E-16
6.85389E-08 8.92873E-17
8.04380E-08 6.48261E-17
9.32891E-08 4.81968E-17
1.07092E-07 3.65739E-17
1.21847E-07 2.82528E-17
1.37554E-07 2.21692E-17
1.54213E-07 1.76385E-17
1.71823E-07 1.42082E-17
1.90386E-07 1.15728E-17
2.09900E-07 9.52104E-18
2.30367E-07 7.90449E-18
2.51785E-07 6.61693E-18
2.74156E-07 5.58118E-18
2.97478E-07 4.74038E-18
3.21752E-07 4.05212E-18
3.46978E-07 3.48437E-18
3.73156E-07 3.01265E-18
4.00286E-07 2.61813E-18
4.28368E-07 2.28613E-18
4.57402E-07 2.00513E-18
4.87388E-07 1.76600E-18
5.18325E-07 1.56148E-18
5.50215E-07 1.38573E-18
5.83057E-07 1.23403E-18
6.16850E-07 1.10253E-18
6.51596E-07 9.88087E-19
6.87293E-07 8.88117E-19
7.23942E-07 8.00476E-19
7.61543E-07 7.23384E-19
1.18991E-06 2.96312E-19
1.71347E-06 1.42904E-19
2.33223E-06 7.71396E-20
3.04617E-06 4.52199E-20
3.85531E-06 2.82318E-20
4.75964E-06 1.85237E-20
5.75916E-06 1.26525E-20
6.85388E-06 8.93393E-21
8.04378E-06 6.48655E-21
9.32888E-06 4.82275E-21
1.07092E-05 3.65984E-21
1.21846E-05 2.82726E-21
1.37553E-05 2.21856E-21
1.54212E-05 1.76521E-21
1.71822E-05 1.42197E-21
1.90385E-05 1.15823E-21
2.09899E-05 9.52930E-22
2.30365E-05 7.91171E-22
2.51783E-05 6.62323E-22
2.74153E-05 5.58669E-22
2.97475E-05 4.74521E-22
3.21749E-05 4.05638E-22
3.46974E-05 3.48814E-22
3.73152E-05 3.01603E-22
4.00281E-05 2.62117E-22
4.28362E-05 2.28888E-22
4.57395E-05 2.00762E-22
4.87380E-05 1.76827E-22
5.18317E-05 1.56355E-22
5.50205E-05 1.38762E-22
5.83045E-05 1.23575E-22
6.16838E-05 1.10411E-22
6.51582E-05 9.89539E-23
6.87277E-05 8.89455E-23
7.23925E-05 8.01714E-23
7.61524E-05 7.08113E-23
9.21439E-05 4.81367E-23
1.09658E-04 3.38109E-23
1.28695E-04 2.44082E-23
1.49255E-04 1.80350E-23
1.71338E-04 1.35948E-23
1.94942E-04 1.04269E-23
2.20070E-04 8.11956E-24
2.46720E-04 6.40796E-24
2.74892E-04 5.11762E-24
3.04586E-04 4.13072E-24
3.35803E-04 3.36606E-24
3.68542E-04 2.76664E-24
4.02802E-04 2.29174E-24
4.38585E-04 1.91186E-24
4.75889E-04 1.60530E-24
5.14715E-04 1.35590E-24
5.55063E-04 1.15148E-24
5.96931E-04 9.82798E-25
6.40321E-04 8.42707E-25
6.85233E-04 7.25680E-25
7.31665E-04 6.27384E-25
7.79618E-04 5.44402E-25
8.29092E-04 4.74014E-25
8.80086E-04 4.14044E-25
9.32601E-04 3.62738E-25
9.86636E-04 3.18674E-25
1.04219E-03 2.80690E-25
1.09927E-03 2.47836E-25
1.15786E-03 2.19327E-25
1.21797E-03 1.94513E-25
1.27961E-03 1.72853E-25
1.34276E-03 1.53895E-25
1.40743E-03 1.37259E-25
1.47362E-03 1.22626E-25
1.54133E-03 1.09725E-25
1.61056E-03 9.83265E-26
1.68131E-03 8.82347E-26
1.75357E-03 7.92825E-26
1.82735E-03 7.13265E-26
1.90265E-03 6.42435E-26
1.97947E-03 5.79273E-26
2.05780E-03 5.22860E-26
2.13765E-03 4.72399E-26
2.21902E-03 4.27199E-26
2.30190E-03 3.86655E-26
2.38630E-03 3.50243E-26
2.47222E-03 3.17501E-26
2.55965E-03 2.88025E-26
2.64859E-03 2.61460E-26
2.73905E-03 2.37494E-26
2.83103E-03 2.15852E-26
2.92452E-03 1.96290E-26
3.01952E-03 1.78591E-26
3.11604E-03 1.62566E-26
3.21407E-03 1.48044E-26
3.31362E-03 1.34874E-26
3.41468E-03 1.22923E-26
3.51725E-03 1.12069E-26
3.62133E-03 1.02206E-26
3.72692E-03 9.32383E-27
3.83403E-03 8.50796E-27
3.94265E-03 7.76531E-27
4.05278E-03 7.08897E-27
4.16442E-03 6.47273E-27
4.27757E-03 5.91101E-27
4.39223E-03 5.39877E-27
4.50840E-03 4.93149E-27
4.62608E-03 4.50505E-27
4.74527E-03 4.11578E-27
4.86597E-03 3.76031E-27
4.98817E-03 3.43564E-27
5.11188E-03 3.13901E-27
5.23711E-03 2.86795E-27
5.36383E-03 2.62019E-27
5.49207E-03 2.39370E-27
5.62181E-03 2.18663E-27
5.75306E-03 1.99727E-27
5.88581E-03 1.82410E-27
6.02007E-03 1.66572E-27
6.15583E-03 1.52085E-27
6.29310E-03 1.38834E-27
6.43187E-03 1.26713E-27
6.57214E-03 1.15625E-27
6.71392E-03 1.05483E-27
6.85720E-03 9.62062E-28
7.00198E-03 8.77212E-28
7.14827E-03 7.99610E-28
7.29605E-03 7.28645E-28
7.44534E-03 6.63756E-28
7.59612E-03 6.04431E-28
7.97965E-03 4.77481E-28
8.37255E-03 3.76176E-28
8.77480E-03 2.95458E-28
9.18641E-03 2.31258E-28
9.60736E-03 1.80307E-28
1.00376E-02 1.39970E-28
1.04773E-02 1.08130E-28
1.09262E-02 8.30789E-29
1.13844E-02 6.34432E-29
1.18520E-02 4.81177E-29
1.23288E-02 3.62139E-29
1.28150E-02 2.70183E-29
1.33104E-02 1.99589E-29
1.38150E-02 1.45780E-29
1.43290E-02 1.05100E-29
1.48521E-02 7.46365E-30
1.53845E-02 5.20779E-30
1.59262E-02 3.55935E-30
1.64770E-02 2.37405E-30
1.70371E-02 1.53863E-30
1.76063E-02 9.64702E-31
1.81848E-02 5.83660E-31
1.87724E-02 3.42639E-31
1.93692E-02 2.01230E-31
1.99751E-02 1.28844E-31
2.05901E-02 1.02591E-31
2.12143E-02 1.05582E-31
2.18476E-02 1.25574E-31
2.24900E-02 1.53890E-31
2.31415E-02 1.84567E-31
2.38021E-02 2.13680E-31
2.44717E-02 2.38814E-31
2.51504E-02 2.58655E-31
2.58382E-02 2.72670E-31
2.65349E-02 2.80865E-31
2.72407E-02 2.83602E-31
2.79555E-02 2.81458E-31
2.86793E-02 2.75126E-31
2.94120E-02 2.65345E-31
3.01537E-02 2.52845E-31
3.09043E-02 2.38316E-31
3.16639E-02 2.22386E-31
3.24324E-02 2.05610E-31
3.32098E-02 1.88465E-31
3.39961E-02 1.71349E-31
3.47912E-02 1.54588E-31
3.55952E-02 1.38435E-31
3.64081E-02 1.23083E-31
3.72297E-02 1.08671E-31
3.80602E-02 9.52880E-32
3.88995E-02 8.29851E-32
3.97476E-02 7.17795E-32
4.06044E-02 6.16621E-32
4.14700E-02 5.26027E-32
4.23443E-02 4.45553E-32
4.32273E-02 3.74622E-32
4.41190E-02 3.12580E-32
4.50194E-02 2.58727E-32
4.59284E-02 2.12339E-32
4.68461E-02 1.72696E-32
4.87074E-02 1.10836E-32
5.06030E-02 6.78687E-33
5.25328E-02 3.91833E-33
5.44967E-02 2.09314E-33
5.64946E-02 1.00268E-33
5.85262E-02 4.08307E-34
6.05914E-02 1.31994E-34
6.26901E-02 4.58239E-35
6.48222E-02 6.16948E-35
6.69873E-02 1.21960E-34
6.91854E-02 1.91397E-34
7.14163E-02 2.50627E-34
7.36799E-02 2.90938E-34
7.59760E-02 3.10357E-34
7.83043E-02 3.10804E-34
8.06647E-02 2.96105E-34
8.30571E-02 2.70696E-34
8.54812E-02 2.38823E-34
8.79369E-02 2.04116E-34
9.04240E-02 1.69411E-34
9.29422E-02 1.36735E-34
9.54915E-02 1.07380E-34
9.80716E-02 8.20245E-35
1.00682E-01 6.08771E-35
1.03323E-01 4.38075E-35
1.05995E-01 3.04637E-35
1.08696E-01 2.03690E-35
1.11427E-01 1.29963E-35
1.14188E-01 7.82140E-36
1.16978E-01 4.35807E-36
1.19797E-01 2.17884E-36
1.22645E-01 9.23983E-37
1.25522E-01 3.03003E-37
1.28428E-01 9.01903E-38
1.31361E-01 1.17243E-37
1.34323E-01 2.64310E-37
1.37313E-01 4.50760E-37
1.40330E-01 6.26482E-37
1.43375E-01 7.63923E-37
1.46447E-01 8.51650E-37
1.49545E-01 8.88841E-37
1.52671E-01 8.81059E-37
1.55823E-01 8.37333E-37
1.59001E-01 7.67705E-37
1.62205E-01 6.81885E-37
1.65435E-01 5.88361E-37
1.68690E-01 4.94015E-37
1.71970E-01 4.03983E-37
1.75276E-01 3.21778E-37
1.78606E-01 2.49440E-37
1.81961E-01 1.87896E-37
1.85340E-01 1.37168E-37
1.88743E-01 9.66839E-38
1.92169E-01 6.53980E-38
1.95619E-01 4.20985E-38
1.99092E-01 2.54297E-38
2.02589E-01 1.41060E-38
2.06107E-01 6.90418E-39
2.09649E-01 2.76960E-39
2.13212E-01 1.00000E-45
2.16797E-01 1.00000E-45
2.20404E-01 1.00000E-45
2.24032E-01 1.00000E-45
2.27680E-01 1.00000E-45
2.31350E-01 1.00000E-45
2.35040E-01 1.00000E-45
2.38751E-01 1.00000E-45
2.42481E-01 1.00000E-45
2.46231E-01 1.00000E-45
2.50000E-01 1.00000E-45
2.53788E-01 1.00000E-45
2.57595E-01 1.00000E-45
2.61421E-01 1.00000E-45
2.65264E-01 1.00000E-45
2.69126E-01 1.00000E-45
2.73005E-01 1.00000E-45
2.76901E-01 1.00000E-45
2.80814E-01 1.00000E-45
2.84744E-01 1.00000E-45
2.88691E-01 1.00000E-45
2.92653E-01 1.00000E-45
2.96632E-01 1.00000E-45
3.00625E-01 1.00000E-45
3.04634E-01 1.00000E-45
3.08658E-01 1.00000E-45
3.12697E-01 1.00000E-45
3.16749E-01 1.00000E-45
3.20816E-01 1.00000E-45
3.24896E-01 1.00000E-45
3.28990E-01 1.00000E-45
3.33097E-01 1.00000E-45
3.37216E-01 1.00000E-45
3.41348E-01 1.00000E-45
3.45492E-01 1.00000E-45
3.49647E-01 1.00000E-45
3.53814E-01 1.00000E-45
3.57992E-01 1.00000E-45
3.62181E-01 1.00000E-45
3.66381E-01 1.00000E-45
3.70590E-01 1.00000E-45
3.74810E-01 1.00000E-45
3.79039E-01 1.00000E-45
3.83277E-01 1.00000E-45
3.87524E-01 1.00000E-45
3.91780E-01 1.00000E-45
3.96044E-01 1.00000E-45
4.00316E-01 1.00000E-45
4.04596E-01 1.00000E-45
4.08882E-01 1.00000E-45
4.13176E-01 1.00000E-45
4.17476E-01 1.00000E-45
4.21783E-01 1.00000E-45
4.26095E-01 1.00000E-45
4.30413E-01 1.00000E-45
4.34737E-01 1.00000E-45
4.39065E-01 1.00000E-45
4.43398E-01 1.00000E-45
4.47736E-01 1.00000E-45
4.52077E-01 1.00000E-45
4.56422E-01 1.00000E-45
4.60770E-01 1.00000E-45
4.65122E-01 1.00000E-45
4.69476E-01 1.00000E-45
4.73832E-01 1.00000E-45
4.78190E-01 1.00000E-45
4.82550E-01 1.00000E-45
4.86912E-01 1.00000E-45
4.91274E-01 1.00000E-45
4.95637E-01 1.00000E-45
5.00000E-01 1.00000E-45
5.04363E-01 1.00000E-45
5.08726E-01 1.00000E-45
5.13088E-01 1.00000E-45
5.17450E-01 1.00000E-45
5.21810E-01 1.00000E-45
5.26168E-01 1.00000E-45
5.30524E-01 1.00000E-45
5.34878E-01 1.00000E-45
5.39230E-01 1.00000E-45
5.43578E-01 1.00000E-45
5.47923E-01 1.00000E-45
5.52264E-01 1.00000E-45
5.56602E-01 1.00000E-45
5.60935E-01 1.00000E-45
5.65263E-01 1.00000E-45
5.69587E-01 1.00000E-45
5.73905E-01 1.00000E-45
5.78217E-01 1.00000E-45
5.82524E-01 1.00000E-45
5.86824E-01 1.00000E-45
5.91118E-01 1.00000E-45
5.95404E-01 1.00000E-45
5.99684E-01 1.00000E-45
6.03956E-01 1.00000E-45
6.08220E-01 1.00000E-45
6.12476E-01 1.00000E-45
6.16723E-01 1.00000E-45
6.20961E-01 1.00000E-45
6.25190E-01 1.00000E-45
6.29410E-01 1.00000E-45
6.33619E-01 1.00000E-45
6.37819E-01 1.00000E-45
6.42008E-01 1.00000E-45
6.46186E-01 1.00000E-45
6.50353E-01 1.00000E-45
6.54508E-01 1.00000E-45
6.58652E-01 1.00000E-45
6.62784E-01 1.00000E-45
6.66903E-01 1.00000E-45
6.71010E-01 1.00000E-45
6.75104E-01 1.00000E-45
6.79184E-01 1.00000E-45
6.83251E-01 1.00000E-45
6.87303E-01 1.00000E-45
6.91342E-01 1.00000E-45
6.95366E-01 1.00000E-45
6.99375E-01 1.00000E-45
7.03368E-01 1.00000E-45
7.07347E-01 1.00000E-45
7.11309E-01 1.00000E-45
7.15256E-01 1.00000E-45
7.19186E-01 1.00000E-45
7.23099E-01 1.00000E-45
7.26995E-01 1.00000E-45
7.30874E-01 1.00000E-45
7.34736E-01 1.00000E-45
7.38579E-01 1.00000E-45
7.42405E-01 1.00000E-45
7.46212E-01 1.00000E-45
7.50000E-01 1.00000E-45
7.53769E-01 1.00000E-45
7.57519E-01 1.00000E-45
7.61249E-01 1.00000E-45
7.64960E-01 1.00000E-45
7.68650E-01 1.00000E-45
7.72320E-01 1.00000E-45
7.75968E-01 1.00000E-45
7.79596E-01 1.00000E-45
7.83203E-01 1.00000E-45
7.86788E-01 1.00000E-45
7.90351E-01 1.00000E-45
7.93893E-01 1.00000E-45
7.97411E-01 1.00000E-45
8.00908E-01 1.00000E-45
8.04381E-01 1.00000E-45
8.07831E-01 1.00000E-45
8.11257E-01 1.00000E-45
8.14660E-01 1.00000E-45
8.18039E-01 1.00000E-45
8.21394E-01 1.00000E-45
8.24724E-01 1.00000E-45
8.28030E-01 1.00000E-45
8.31310E-01 1.00000E-45
8.34565E-01 1.00000E-45
8.37795E-01 1.00000E-45
8.40999E-01 1.00000E-45
8.44177E-01 1.00000E-45
8.47329E-01 1.00000E-45
8.50455E-01 1.00000E-45
8.53553E-01 1.00000E-45
8.56625E-01 1.00000E-45
8.59670E-01 1.00000E-45
8.62687E-01 1.00000E-45
8.65677E-01 1.00000E-45
8.68639E-01 1.00000E-45
8.71572E-01 1.00000E-45
8.74478E-01 1.00000E-45
8.77355E-01 1.00000E-45
8.80203E-01 1.00000E-45
8.83022E-01 1.00000E-45
8.85812E-01 1.00000E-45
8.88573E-01 1.00000E-45
8.91304E-01 1.00000E-45
8.94005E-01 1.00000E-45
8.96677E-01 1.00000E-45
8.99318E-01 1.00000E-45
9.01928E-01 1.00000E-45
9.04508E-01 1.00000E-45
9.07058E-01 1.00000E-45
9.09576E-01 1.00000E-45
9.12063E-01 1.00000E-45
9.14519E-01 1.00000E-45
9.16943E-01 1.00000E-45
9.19335E-01 1.00000E-45
9.21696E-01 1.00000E-45
9.24024E-01 1.00000E-45
9.26320E-01 1.00000E-45
9.28584E-01 1.00000E-45
9.30815E-01 1.00000E-45
9.33013E-01 1.00000E-45
9.35178E-01 1.00000E-45
9.37310E-01 1.00000E-45
9.39409E-01 1.00000E-45
9.41474E-01 1.00000E-45
9.43505E-01 1.00000E-45
9.45503E-01 1.00000E-45
9.47467E-01 1.00000E-45
9.49397E-01 1.00000E-45
9.51293E-01 1.00000E-45
9.53154E-01 1.00000E-45
9.54981E-01 1.00000E-45
9.56773E-01 1.00000E-45
9.58530E-01 1.00000E-45
9.60252E-01 1.00000E-45
9.61940E-01 1.00000E-45
9.63592E-01 1.00000E-45
9.65209E-01 1.00000E-45
9.66790E-01 1.00000E-45
9.68336E-01 1.00000E-45
9.69846E-01 1.00000E-45
9.71321E-01 1.00000E-45
9.72759E-01 1.00000E-45
9.74162E-01 1.00000E-45
9.75528E-01 1.00000E-45
9.76858E-01 1.00000E-45
9.78152E-01 1.00000E-45
9.79410E-01 1.00000E-45
9.80631E-01 1.00000E-45
9.81815E-01 1.00000E-45
9.82963E-01 1.00000E-45
9.84074E-01 1.00000E-45
9.85148E-01 1.00000E-45
9.86185E-01 1.00000E-45
9.87185E-01 1.00000E-45
9.88148E-01 1.00000E-45
9.89074E-01 1.00000E-45
9.89962E-01 1.00000E-45
9.90814E-01 1.00000E-45
9.91627E-01 1.00000E-45
9.92404E-01 1.00000E-45
9.93143E-01 1.00000E-45
9.93844E-01 1.00000E-45
9.94508E-01 1.00000E-45
9.95134E-01 1.00000E-45
9.95722E-01 1.00000E-45
9.96273E-01 1.00000E-45
9.96786E-01 1.00000E-45
9.97261E-01 1.00000E-45
9.97698E-01 1.00000E-45
9.98097E-01 1.00000E-45
9.98459E-01 1.00000E-45
9.98782E-01 1.00000E-45
9.99067E-01 1.00000E-45
9.99315E-01 1.00000E-45
9.99524E-01 1.00000E-45
9.99695E-01 1.00000E-45
9.99829E-01 1.00000E-45
9.99924E-01 1.00000E-45
9.99981E-01 1.00000E-45
1.00000E+00 1.00000E-45
