 #
 # Subroutine ELSEPA. Elastic scattering of electrons and positrons
 #                    by neutral atoms and positive ions
 #
 # Projectile: electron
 # Kinetic energy = 3.50000E+07 eV = 1.28623E+06 a.u.
 #
 # WARNING: High-energy factorization with free-atom DF screening.
 #          Absorption, polarization and exchange corrections are
 #          switched off.
 #          Phase shifts are calculated for the bare nucleus.
 #          Scattering amplitudes are not evaluated.
 #
 # Element:  F,  Z =   9,  atomic weight = 1.89984E+01 g/mol
 #
 # Nuclear model: Fermi distribution
 #                Average radius = 2.85511E-13 cm
 #                Skin thickness = 5.46000E-14 cm
 #
 # Number of electrons =  9
 #
 # Total elastic cross section = 2.84646E-19 cm**2 = 1.01649E-02 a0**2
 # 1st transport cross section = 1.31511E-25 cm**2 = 4.69633E-09 a0**2
 # 2nd transport cross section = 3.82832E-25 cm**2 = 1.36712E-08 a0**2
 #
 #
 # Differential cross section:                       MU=(1-COS(THETA))/2
 #
 #  THETA        MU          DCS          DCS        Sherman      error
 #  (deg)                 (cm**2/sr)   (a0**2/sr)    function
 #----------------------------------------------------------------------
0.00000E+00 1.56855E-12
7.61557E-13 1.56839E-12
1.18994E-12 1.56831E-12
1.71346E-12 1.56820E-12
2.33225E-12 1.56807E-12
3.04617E-12 1.56793E-12
3.85530E-12 1.56777E-12
4.75964E-12 1.56758E-12
5.75917E-12 1.56738E-12
6.85391E-12 1.56716E-12
8.04379E-12 1.56692E-12
9.32893E-12 1.56666E-12
1.07092E-11 1.56638E-12
1.21847E-11 1.56608E-12
1.37554E-11 1.56577E-12
1.54213E-11 1.56543E-12
1.71823E-11 1.56508E-12
1.90386E-11 1.56470E-12
2.09900E-11 1.56431E-12
2.30367E-11 1.56390E-12
2.51785E-11 1.56347E-12
2.74156E-11 1.56302E-12
2.97478E-11 1.56255E-12
3.21752E-11 1.56206E-12
3.46979E-11 1.56156E-12
3.73157E-11 1.56104E-12
4.00286E-11 1.56049E-12
4.28368E-11 1.55993E-12
4.57402E-11 1.55935E-12
4.87388E-11 1.55875E-12
5.18325E-11 1.55813E-12
5.50215E-11 1.55750E-12
5.83057E-11 1.55684E-12
6.16850E-11 1.55617E-12
6.51595E-11 1.55548E-12
6.87293E-11 1.55477E-12
7.23943E-11 1.55404E-12
7.61544E-11 1.55329E-12
1.18991E-10 1.54482E-12
1.71347E-10 1.53457E-12
2.33223E-10 1.52257E-12
3.04617E-10 1.50892E-12
3.85531E-10 1.49364E-12
4.75965E-10 1.47687E-12
5.75917E-10 1.45861E-12
6.85389E-10 1.43904E-12
8.04380E-10 1.41816E-12
9.32891E-10 1.39615E-12
1.07092E-09 1.37302E-12
1.21847E-09 1.34896E-12
1.37554E-09 1.32168E-12
1.54213E-09 1.29514E-12
1.71823E-09 1.26948E-12
1.90386E-09 1.24478E-12
2.09900E-09 1.21485E-12
2.30367E-09 1.18613E-12
2.51785E-09 1.15879E-12
2.74156E-09 1.13281E-12
2.97478E-09 1.10187E-12
3.21752E-09 1.07247E-12
3.46978E-09 1.04471E-12
3.73156E-09 1.01853E-12
4.00286E-09 9.88001E-13
4.28368E-09 9.59117E-13
4.57402E-09 9.31979E-13
4.87388E-09 9.06481E-13
5.18326E-09 8.77368E-13
5.50215E-09 8.49891E-13
5.83057E-09 8.24132E-13
6.16850E-09 7.99974E-13
6.51596E-09 7.72948E-13
6.87293E-09 7.47459E-13
7.23942E-09 7.23582E-13
7.61544E-09 7.01199E-13
1.18991E-08 4.93156E-13
1.71347E-08 3.43111E-13
2.33223E-08 2.37426E-13
3.04617E-08 1.65675E-13
3.85531E-08 1.16715E-13
4.75965E-08 8.34994E-14
5.75917E-08 6.06419E-14
6.85389E-08 4.47937E-14
8.04380E-08 3.36221E-14
9.32891E-08 2.56481E-14
1.07092E-07 1.98621E-14
1.21847E-07 1.56047E-14
1.37554E-07 1.24198E-14
1.54213E-07 1.00141E-14
1.71823E-07 8.16596E-15
1.90386E-07 6.72865E-15
2.09900E-07 5.59857E-15
2.30367E-07 4.69909E-15
2.51785E-07 3.97621E-15
2.74156E-07 3.38982E-15
2.97478E-07 2.90912E-15
3.21752E-07 2.51246E-15
3.46978E-07 2.18235E-15
3.73156E-07 1.90546E-15
4.00286E-07 1.67206E-15
4.28368E-07 1.47366E-15
4.57402E-07 1.30429E-15
4.87388E-07 1.15902E-15
5.18325E-07 1.03340E-15
5.50215E-07 9.24663E-16
5.83057E-07 8.29966E-16
6.16850E-07 7.47103E-16
6.51596E-07 6.74489E-16
6.87293E-07 6.10437E-16
7.23942E-07 5.53861E-16
7.61543E-07 5.03760E-16
1.18991E-06 2.16749E-16
1.71347E-06 1.07694E-16
2.33223E-06 5.91935E-17
3.04617E-06 3.50897E-17
3.85531E-06 2.20629E-17
4.75964E-06 1.45433E-17
5.75916E-06 9.96457E-18
6.85388E-06 7.05101E-18
8.04378E-06 5.12713E-18
9.32888E-06 3.81614E-18
1.07092E-05 2.89824E-18
1.21846E-05 2.24025E-18
1.37553E-05 1.75871E-18
1.54212E-05 1.39981E-18
1.71822E-05 1.12793E-18
1.90385E-05 9.18916E-19
2.09899E-05 7.56164E-19
2.30365E-05 6.27891E-19
2.51783E-05 5.25693E-19
2.74153E-05 4.43461E-19
2.97475E-05 3.76695E-19
3.21749E-05 3.22033E-19
3.46974E-05 2.76935E-19
3.73152E-05 2.39463E-19
4.00281E-05 2.08121E-19
4.28362E-05 1.81743E-19
4.57395E-05 1.59414E-19
4.87380E-05 1.40410E-19
5.18317E-05 1.24155E-19
5.50205E-05 1.10185E-19
5.83045E-05 9.81268E-20
6.16838E-05 8.76739E-20
6.51582E-05 7.85767E-20
6.87277E-05 7.06296E-20
7.23925E-05 6.36625E-20
7.61524E-05 5.75321E-20
9.21439E-05 3.93023E-20
1.09658E-04 2.77548E-20
1.28695E-04 2.01542E-20
1.49255E-04 1.49864E-20
1.71338E-04 1.13741E-20
1.94942E-04 8.78768E-21
2.20070E-04 6.89650E-21
2.46720E-04 5.48787E-21
2.74892E-04 4.42128E-21
3.04586E-04 3.60172E-21
3.35803E-04 2.96361E-21
3.68542E-04 2.46078E-21
4.02802E-04 2.06024E-21
4.38585E-04 1.73800E-21
4.75889E-04 1.47639E-21
5.14715E-04 1.26221E-21
5.55063E-04 1.08551E-21
5.96931E-04 9.38680E-22
6.40321E-04 8.15868E-22
6.85233E-04 7.12506E-22
7.31665E-04 6.25011E-22
7.79618E-04 5.50547E-22
8.29092E-04 4.86853E-22
8.80086E-04 4.32113E-22
9.32601E-04 3.84857E-22
9.86636E-04 3.43890E-22
1.04219E-03 3.08233E-22
1.09927E-03 2.77082E-22
1.15786E-03 2.49770E-22
1.21797E-03 2.25743E-22
1.27961E-03 2.04538E-22
1.34276E-03 1.85766E-22
1.40743E-03 1.69100E-22
1.47362E-03 1.54262E-22
1.54133E-03 1.41017E-22
1.61056E-03 1.29164E-22
1.68131E-03 1.18531E-22
1.75357E-03 1.08971E-22
1.82735E-03 1.00355E-22
1.90265E-03 9.25750E-23
1.97947E-03 8.55345E-23
2.05780E-03 7.91510E-23
2.13765E-03 7.33523E-23
2.21902E-03 6.80752E-23
2.30190E-03 6.32644E-23
2.38630E-03 5.88713E-23
2.47222E-03 5.48531E-23
2.55965E-03 5.11721E-23
2.64859E-03 4.77948E-23
2.73905E-03 4.46917E-23
2.83103E-03 4.18364E-23
2.92452E-03 3.92057E-23
3.01952E-03 3.67786E-23
3.11604E-03 3.45364E-23
3.21407E-03 3.24626E-23
3.31362E-03 3.05422E-23
3.41468E-03 2.87618E-23
3.51725E-03 2.71093E-23
3.62133E-03 2.55738E-23
3.72692E-03 2.41455E-23
3.83403E-03 2.28155E-23
3.94265E-03 2.15759E-23
4.05278E-03 2.04194E-23
4.16442E-03 1.93394E-23
4.27757E-03 1.83298E-23
4.39223E-03 1.73853E-23
4.50840E-03 1.65008E-23
4.62608E-03 1.56719E-23
4.74527E-03 1.48944E-23
4.86597E-03 1.41645E-23
4.98817E-03 1.34788E-23
5.11188E-03 1.28341E-23
5.23711E-03 1.22275E-23
5.36383E-03 1.16563E-23
5.49207E-03 1.11181E-23
5.62181E-03 1.06106E-23
5.75306E-03 1.01317E-23
5.88581E-03 9.67954E-24
6.02007E-03 9.25231E-24
6.15583E-03 8.84840E-24
6.29310E-03 8.46629E-24
6.43187E-03 8.10458E-24
6.57214E-03 7.76198E-24
6.71392E-03 7.43730E-24
6.85720E-03 7.12941E-24
7.00198E-03 6.83729E-24
7.14827E-03 6.55997E-24
7.29605E-03 6.29657E-24
7.44534E-03 6.04625E-24
7.59612E-03 5.80825E-24
7.97965E-03 5.26251E-24
8.37255E-03 4.77937E-24
8.77480E-03 4.35040E-24
9.18641E-03 3.96847E-24
9.60736E-03 3.62754E-24
1.00376E-02 3.32242E-24
1.04773E-02 3.04869E-24
1.09262E-02 2.80257E-24
1.13844E-02 2.58077E-24
1.18520E-02 2.38046E-24
1.23288E-02 2.19920E-24
1.28150E-02 2.03485E-24
1.33104E-02 1.88556E-24
1.38150E-02 1.74969E-24
1.43290E-02 1.62583E-24
1.48521E-02 1.51272E-24
1.53845E-02 1.40926E-24
1.59262E-02 1.31449E-24
1.64770E-02 1.22754E-24
1.70371E-02 1.14764E-24
1.76063E-02 1.07413E-24
1.81848E-02 1.00641E-24
1.87724E-02 9.43923E-25
1.93692E-02 8.86203E-25
1.99751E-02 8.32818E-25
2.05901E-02 7.83384E-25
2.12143E-02 7.37555E-25
2.18476E-02 6.95019E-25
2.24900E-02 6.55498E-25
2.31415E-02 6.18739E-25
2.38021E-02 5.84512E-25
2.44717E-02 5.52613E-25
2.51504E-02 5.22853E-25
2.58382E-02 4.95063E-25
2.65349E-02 4.69089E-25
2.72407E-02 4.44789E-25
2.79555E-02 4.22037E-25
2.86793E-02 4.00716E-25
2.94120E-02 3.80718E-25
3.01537E-02 3.61947E-25
3.09043E-02 3.44314E-25
3.16639E-02 3.27737E-25
3.24324E-02 3.12141E-25
3.32098E-02 2.97457E-25
3.39961E-02 2.83622E-25
3.47912E-02 2.70579E-25
3.55952E-02 2.58272E-25
3.64081E-02 2.46653E-25
3.72297E-02 2.35677E-25
3.80602E-02 2.25301E-25
3.88995E-02 2.15486E-25
3.97476E-02 2.06197E-25
4.06044E-02 1.97399E-25
4.14700E-02 1.89063E-25
4.23443E-02 1.81159E-25
4.32273E-02 1.73661E-25
4.41190E-02 1.66545E-25
4.50194E-02 1.59786E-25
4.59284E-02 1.53364E-25
4.68461E-02 1.47260E-25
4.87074E-02 1.35928E-25
5.06030E-02 1.25657E-25
5.25328E-02 1.16330E-25
5.44967E-02 1.07845E-25
5.64946E-02 1.00113E-25
5.85262E-02 9.30549E-26
6.05914E-02 8.66020E-26
6.26901E-02 8.06931E-26
6.48222E-02 7.52742E-26
6.69873E-02 7.02976E-26
6.91854E-02 6.57208E-26
7.14163E-02 6.15060E-26
7.36799E-02 5.76194E-26
7.59760E-02 5.40311E-26
7.83043E-02 5.07139E-26
8.06647E-02 4.76440E-26
8.30571E-02 4.47994E-26
8.54812E-02 4.21608E-26
8.79369E-02 3.97107E-26
9.04240E-02 3.74331E-26
9.29422E-02 3.53137E-26
9.54915E-02 3.33397E-26
9.80716E-02 3.14992E-26
1.00682E-01 2.97817E-26
1.03323E-01 2.81775E-26
1.05995E-01 2.66777E-26
1.08696E-01 2.52744E-26
1.11427E-01 2.39603E-26
1.14188E-01 2.27287E-26
1.16978E-01 2.15735E-26
1.19797E-01 2.04891E-26
1.22645E-01 1.94704E-26
1.25522E-01 1.85128E-26
1.28428E-01 1.76119E-26
1.31361E-01 1.67638E-26
1.34323E-01 1.59648E-26
1.37313E-01 1.52116E-26
1.40330E-01 1.45012E-26
1.43375E-01 1.38306E-26
1.46447E-01 1.31972E-26
1.49545E-01 1.25986E-26
1.52671E-01 1.20326E-26
1.55823E-01 1.14970E-26
1.59001E-01 1.09900E-26
1.62205E-01 1.05098E-26
1.65435E-01 1.00546E-26
1.68690E-01 9.62306E-27
1.71970E-01 9.21361E-27
1.75276E-01 8.82496E-27
1.78606E-01 8.45587E-27
1.81961E-01 8.10518E-27
1.85340E-01 7.77182E-27
1.88743E-01 7.45479E-27
1.92169E-01 7.15314E-27
1.95619E-01 6.86600E-27
1.99092E-01 6.59256E-27
2.02589E-01 6.33204E-27
2.06107E-01 6.08374E-27
2.09649E-01 5.84697E-27
2.13212E-01 5.62113E-27
2.16797E-01 5.40560E-27
2.20404E-01 5.19985E-27
2.24032E-01 5.00336E-27
2.27680E-01 4.81563E-27
2.31350E-01 4.63621E-27
2.35040E-01 4.46468E-27
2.38751E-01 4.30062E-27
2.42481E-01 4.14365E-27
2.46231E-01 3.99342E-27
2.50000E-01 3.84959E-27
2.53788E-01 3.71185E-27
2.57595E-01 3.57988E-27
2.61421E-01 3.45341E-27
2.65264E-01 3.33218E-27
2.69126E-01 3.21592E-27
2.73005E-01 3.10440E-27
2.76901E-01 2.99740E-27
2.80814E-01 2.89470E-27
2.84744E-01 2.79611E-27
2.88691E-01 2.70142E-27
2.92653E-01 2.61047E-27
2.96632E-01 2.52307E-27
3.00625E-01 2.43907E-27
3.04634E-01 2.35831E-27
3.08658E-01 2.28066E-27
3.12697E-01 2.20596E-27
3.16749E-01 2.13410E-27
3.20816E-01 2.06493E-27
3.24896E-01 1.99836E-27
3.28990E-01 1.93426E-27
3.33097E-01 1.87253E-27
3.37216E-01 1.81306E-27
3.41348E-01 1.75577E-27
3.45492E-01 1.70055E-27
3.49647E-01 1.64733E-27
3.53814E-01 1.59601E-27
3.57992E-01 1.54653E-27
3.62181E-01 1.49879E-27
3.66381E-01 1.45274E-27
3.70590E-01 1.40831E-27
3.74810E-01 1.36542E-27
3.79039E-01 1.32402E-27
3.83277E-01 1.28404E-27
3.87524E-01 1.24543E-27
3.91780E-01 1.20814E-27
3.96044E-01 1.17212E-27
4.00316E-01 1.13731E-27
4.04596E-01 1.10366E-27
4.08882E-01 1.07114E-27
4.13176E-01 1.03970E-27
4.17476E-01 1.00930E-27
4.21783E-01 9.79895E-28
4.26095E-01 9.51453E-28
4.30413E-01 9.23936E-28
4.34737E-01 8.97310E-28
4.39065E-01 8.71541E-28
4.43398E-01 8.46599E-28
4.47736E-01 8.22451E-28
4.52077E-01 7.99071E-28
4.56422E-01 7.76429E-28
4.60770E-01 7.54500E-28
4.65122E-01 7.33256E-28
4.69476E-01 7.12675E-28
4.73832E-01 6.92732E-28
4.78190E-01 6.73404E-28
4.82550E-01 6.54671E-28
4.86912E-01 6.36511E-28
4.91274E-01 6.18904E-28
4.95637E-01 6.01831E-28
5.00000E-01 5.85273E-28
5.04363E-01 5.69214E-28
5.08726E-01 5.53635E-28
5.13088E-01 5.38520E-28
5.17450E-01 5.23855E-28
5.21810E-01 5.09622E-28
5.26168E-01 4.95809E-28
5.30524E-01 4.82401E-28
5.34878E-01 4.69385E-28
5.39230E-01 4.56747E-28
5.43578E-01 4.44475E-28
5.47923E-01 4.32557E-28
5.52264E-01 4.20982E-28
5.56602E-01 4.09738E-28
5.60935E-01 3.98815E-28
5.65263E-01 3.88203E-28
5.69587E-01 3.77890E-28
5.73905E-01 3.67869E-28
5.78217E-01 3.58129E-28
5.82524E-01 3.48662E-28
5.86824E-01 3.39459E-28
5.91118E-01 3.30511E-28
5.95404E-01 3.21812E-28
5.99684E-01 3.13352E-28
6.03956E-01 3.05125E-28
6.08220E-01 2.97124E-28
6.12476E-01 2.89341E-28
6.16723E-01 2.81770E-28
6.20961E-01 2.74404E-28
6.25190E-01 2.67237E-28
6.29410E-01 2.60264E-28
6.33619E-01 2.53478E-28
6.37819E-01 2.46873E-28
6.42008E-01 2.40445E-28
6.46186E-01 2.34188E-28
6.50353E-01 2.28097E-28
6.54508E-01 2.22167E-28
6.58652E-01 2.16393E-28
6.62784E-01 2.10771E-28
6.66903E-01 2.05296E-28
6.71010E-01 1.99964E-28
6.75104E-01 1.94771E-28
6.79184E-01 1.89713E-28
6.83251E-01 1.84786E-28
6.87303E-01 1.79986E-28
6.91342E-01 1.75310E-28
6.95366E-01 1.70754E-28
6.99375E-01 1.66314E-28
7.03368E-01 1.61988E-28
7.07347E-01 1.57772E-28
7.11309E-01 1.53664E-28
7.15256E-01 1.49659E-28
7.19186E-01 1.45756E-28
7.23099E-01 1.41951E-28
7.26995E-01 1.38242E-28
7.30874E-01 1.34626E-28
7.34736E-01 1.31100E-28
7.38579E-01 1.27663E-28
7.42405E-01 1.24311E-28
7.46212E-01 1.21043E-28
7.50000E-01 1.17856E-28
7.53769E-01 1.14747E-28
7.57519E-01 1.11716E-28
7.61249E-01 1.08759E-28
7.64960E-01 1.05875E-28
7.68650E-01 1.03062E-28
7.72320E-01 1.00318E-28
7.75968E-01 9.76407E-29
7.79596E-01 9.50291E-29
7.83203E-01 9.24812E-29
7.86788E-01 8.99952E-29
7.90351E-01 8.75697E-29
7.93893E-01 8.52031E-29
7.97411E-01 8.28938E-29
8.00908E-01 8.06403E-29
8.04381E-01 7.84413E-29
8.07831E-01 7.62953E-29
8.11257E-01 7.42010E-29
8.14660E-01 7.21572E-29
8.18039E-01 7.01624E-29
8.21394E-01 6.82156E-29
8.24724E-01 6.63154E-29
8.28030E-01 6.44608E-29
8.31310E-01 6.26506E-29
8.34565E-01 6.08837E-29
8.37795E-01 5.91590E-29
8.40999E-01 5.74755E-29
8.44177E-01 5.58322E-29
8.47329E-01 5.42282E-29
8.50455E-01 5.26624E-29
8.53553E-01 5.11339E-29
8.56625E-01 4.96420E-29
8.59670E-01 4.81855E-29
8.62687E-01 4.67639E-29
8.65677E-01 4.53761E-29
8.68639E-01 4.40214E-29
8.71572E-01 4.26991E-29
8.74478E-01 4.14083E-29
8.77355E-01 4.01484E-29
8.80203E-01 3.89186E-29
8.83022E-01 3.77182E-29
8.85812E-01 3.65466E-29
8.88573E-01 3.54031E-29
8.91304E-01 3.42870E-29
8.94005E-01 3.31978E-29
8.96677E-01 3.21348E-29
8.99318E-01 3.10975E-29
9.01928E-01 3.00852E-29
9.04508E-01 2.90975E-29
9.07058E-01 2.81337E-29
9.09576E-01 2.71934E-29
9.12063E-01 2.62761E-29
9.14519E-01 2.53812E-29
9.16943E-01 2.45083E-29
9.19335E-01 2.36569E-29
9.21696E-01 2.28266E-29
9.24024E-01 2.20168E-29
9.26320E-01 2.12273E-29
9.28584E-01 2.04575E-29
9.30815E-01 1.97071E-29
9.33013E-01 1.89756E-29
9.35178E-01 1.82627E-29
9.37310E-01 1.75681E-29
9.39409E-01 1.68912E-29
9.41474E-01 1.62319E-29
9.43505E-01 1.55898E-29
9.45503E-01 1.49644E-29
9.47467E-01 1.43556E-29
9.49397E-01 1.37629E-29
9.51293E-01 1.31861E-29
9.53154E-01 1.26250E-29
9.54981E-01 1.20791E-29
9.56773E-01 1.15482E-29
9.58530E-01 1.10322E-29
9.60252E-01 1.05306E-29
9.61940E-01 1.00432E-29
9.63592E-01 9.56991E-30
9.65209E-01 9.11034E-30
9.66790E-01 8.66431E-30
9.68336E-01 8.23159E-30
9.69846E-01 7.81196E-30
9.71321E-01 7.40523E-30
9.72759E-01 7.01118E-30
9.74162E-01 6.62962E-30
9.75528E-01 6.26037E-30
9.76858E-01 5.90324E-30
9.78152E-01 5.55805E-30
9.79410E-01 5.22464E-30
9.80631E-01 4.90285E-30
9.81815E-01 4.59250E-30
9.82963E-01 4.29347E-30
9.84074E-01 4.00559E-30
9.85148E-01 3.72873E-30
9.86185E-01 3.46275E-30
9.87185E-01 3.20752E-30
9.88148E-01 2.96293E-30
9.89074E-01 2.72885E-30
9.89962E-01 2.50517E-30
9.90814E-01 2.29178E-30
9.91627E-01 2.08858E-30
9.92404E-01 1.89547E-30
9.93143E-01 1.71235E-30
9.93844E-01 1.53915E-30
9.94508E-01 1.37578E-30
9.95134E-01 1.22215E-30
9.95722E-01 1.07819E-30
9.96273E-01 9.43846E-31
9.96786E-01 8.19042E-31
9.97261E-01 7.03718E-31
9.97698E-01 5.97821E-31
9.98097E-01 5.01301E-31
9.98459E-01 4.14111E-31
9.98782E-01 3.36211E-31
9.99067E-01 2.67561E-31
9.99315E-01 2.08131E-31
9.99524E-01 1.57891E-31
9.99695E-01 1.16820E-31
9.99829E-01 8.48938E-32
9.99924E-01 6.21031E-32
9.99981E-01 4.84314E-32
1.00000E+00 4.38696E-32
