 #
 # Subroutine ELSEPA. Elastic scattering of electrons and positrons
 #                    by neutral atoms and positive ions
 #
 # Projectile: electron
 # Kinetic energy = 1.25000E+07 eV = 4.59367E+05 a.u.
 #
 # WARNING: High-energy factorization with free-atom DF screening.
 #          Absorption, polarization and exchange corrections are
 #          switched off.
 #          Phase shifts are calculated for the bare nucleus.
 #          Scattering amplitudes are not evaluated.
 #
 # Element: Cd,  Z =  48,  atomic weight = 1.12411E+02 g/mol
 #
 # Nuclear model: Fermi distribution
 #                Average radius = 5.16401E-13 cm
 #                Skin thickness = 5.46000E-14 cm
 #
 # Number of electrons = 48
 #
 # Total elastic cross section = 4.50746E-18 cm**2 = 1.60964E-01 a0**2
 # 1st transport cross section = 2.43990E-23 cm**2 = 8.71303E-07 a0**2
 # 2nd transport cross section = 6.90819E-23 cm**2 = 2.46696E-06 a0**2
 #
 #
 # Differential cross section:                       MU=(1-COS(THETA))/2
 #
 #  THETA        MU          DCS          DCS        Sherman      error
 #  (deg)                 (cm**2/sr)   (a0**2/sr)    function
 #----------------------------------------------------------------------
0.00000E+00 5.34865E-12
7.61557E-13 5.34845E-12
1.18994E-12 5.34833E-12
1.71346E-12 5.34820E-12
2.33225E-12 5.34803E-12
3.04617E-12 5.34785E-12
3.85530E-12 5.34764E-12
4.75964E-12 5.34740E-12
5.75917E-12 5.34714E-12
6.85391E-12 5.34686E-12
8.04379E-12 5.34655E-12
9.32893E-12 5.34621E-12
1.07092E-11 5.34585E-12
1.21847E-11 5.34547E-12
1.37554E-11 5.34506E-12
1.54213E-11 5.34463E-12
1.71823E-11 5.34417E-12
1.90386E-11 5.34369E-12
2.09900E-11 5.34318E-12
2.30367E-11 5.34265E-12
2.51785E-11 5.34210E-12
2.74156E-11 5.34152E-12
2.97478E-11 5.34091E-12
3.21752E-11 5.34028E-12
3.46979E-11 5.33963E-12
3.73157E-11 5.33895E-12
4.00286E-11 5.33825E-12
4.28368E-11 5.33752E-12
4.57402E-11 5.33677E-12
4.87388E-11 5.33599E-12
5.18325E-11 5.33519E-12
5.50215E-11 5.33437E-12
5.83057E-11 5.33352E-12
6.16850E-11 5.33265E-12
6.51595E-11 5.33175E-12
6.87293E-11 5.33083E-12
7.23943E-11 5.32988E-12
7.61544E-11 5.32891E-12
1.18991E-10 5.31788E-12
1.71347E-10 5.30446E-12
2.33223E-10 5.28868E-12
3.04617E-10 5.27057E-12
3.85531E-10 5.25019E-12
4.75965E-10 5.22758E-12
5.75917E-10 5.20279E-12
6.85389E-10 5.17588E-12
8.04380E-10 5.14691E-12
9.32891E-10 5.11595E-12
1.07092E-09 5.08308E-12
1.21847E-09 5.04835E-12
1.37554E-09 5.01180E-12
1.54213E-09 4.97329E-12
1.71823E-09 4.93336E-12
1.90386E-09 4.89212E-12
2.09900E-09 4.84967E-12
2.30367E-09 4.80514E-12
2.51785E-09 4.75949E-12
2.74156E-09 4.71294E-12
2.97478E-09 4.66558E-12
3.21752E-09 4.61660E-12
3.46978E-09 4.56658E-12
3.73156E-09 4.51604E-12
4.00286E-09 4.46509E-12
4.28368E-09 4.41311E-12
4.57402E-09 4.36004E-12
4.87388E-09 4.30682E-12
5.18326E-09 4.25355E-12
5.50215E-09 4.19989E-12
5.83057E-09 4.14502E-12
6.16850E-09 4.09034E-12
6.51596E-09 4.03590E-12
6.87293E-09 3.98174E-12
7.23942E-09 3.92619E-12
7.61544E-09 3.87110E-12
1.18991E-08 3.33474E-12
1.71347E-08 2.84342E-12
2.33223E-08 2.41521E-12
3.04617E-08 2.05285E-12
3.85531E-08 1.74892E-12
4.75965E-08 1.49598E-12
5.75917E-08 1.28508E-12
6.85389E-08 1.10790E-12
8.04380E-08 9.58868E-13
9.32891E-08 8.32512E-13
1.07092E-07 7.24815E-13
1.21847E-07 6.32837E-13
1.37554E-07 5.52809E-13
1.54213E-07 4.79619E-13
1.71823E-07 4.20247E-13
1.90386E-07 3.71605E-13
2.09900E-07 3.31381E-13
2.30367E-07 2.91409E-13
2.51785E-07 2.57504E-13
2.74156E-07 2.29114E-13
2.97478E-07 2.05169E-13
3.21752E-07 1.82922E-13
3.46978E-07 1.63187E-13
3.73156E-07 1.46348E-13
4.00286E-07 1.31897E-13
4.28368E-07 1.18940E-13
4.57402E-07 1.07196E-13
4.87388E-07 9.70094E-14
5.18325E-07 8.81330E-14
5.50215E-07 8.02693E-14
5.83057E-07 7.30776E-14
6.16850E-07 6.67498E-14
6.51596E-07 6.11615E-14
6.87293E-07 5.62066E-14
7.23942E-07 5.16485E-14
7.61543E-07 4.75885E-14
1.18991E-06 2.32690E-14
1.71347E-06 1.29633E-14
2.33223E-06 7.81334E-15
3.04617E-06 4.96046E-15
3.85531E-06 3.27080E-15
4.75964E-06 2.23138E-15
5.75916E-06 1.57028E-15
6.85388E-06 1.13544E-15
8.04378E-06 8.41444E-16
9.32888E-06 6.37397E-16
1.07092E-05 4.92202E-16
1.21846E-05 3.86445E-16
1.37553E-05 3.07760E-16
1.54212E-05 2.48188E-16
1.71822E-05 2.02515E-16
1.90385E-05 1.66868E-16
2.09899E-05 1.38756E-16
2.30365E-05 1.16376E-16
2.51783E-05 9.82361E-17
2.74153E-05 8.35108E-17
2.97475E-05 7.14165E-17
3.21749E-05 6.14189E-17
3.46974E-05 5.31227E-17
3.73152E-05 4.61562E-17
4.00281E-05 4.03050E-17
4.28362E-05 3.53450E-17
4.57395E-05 3.11222E-17
4.87380E-05 2.75119E-17
5.18317E-05 2.44023E-17
5.50205E-05 2.17212E-17
5.83045E-05 1.93955E-17
6.16838E-05 1.73729E-17
6.51582E-05 1.56078E-17
6.87277E-05 1.40603E-17
7.23925E-05 1.27011E-17
7.61524E-05 1.15019E-17
9.21439E-05 7.91404E-18
1.09658E-04 5.62274E-18
1.28695E-04 4.10521E-18
1.49255E-04 3.06729E-18
1.71338E-04 2.33823E-18
1.94942E-04 1.81377E-18
2.20070E-04 1.42867E-18
2.46720E-04 1.14071E-18
2.74892E-04 9.21873E-19
3.04586E-04 7.53153E-19
3.35803E-04 6.21365E-19
3.68542E-04 5.17217E-19
4.02802E-04 4.34024E-19
4.38585E-04 3.66923E-19
4.75889E-04 3.12316E-19
5.14715E-04 2.67509E-19
5.55063E-04 2.30467E-19
5.96931E-04 1.99626E-19
6.40321E-04 1.73782E-19
6.85233E-04 1.51993E-19
7.31665E-04 1.33519E-19
7.79618E-04 1.17772E-19
8.29092E-04 1.04283E-19
8.80086E-04 9.26739E-20
9.32601E-04 8.26391E-20
9.86636E-04 7.39286E-20
1.04219E-03 6.63384E-20
1.09927E-03 5.96996E-20
1.15786E-03 5.38726E-20
1.21797E-03 4.87410E-20
1.27961E-03 4.42076E-20
1.34276E-03 4.01904E-20
1.40743E-03 3.66204E-20
1.47362E-03 3.34392E-20
1.54133E-03 3.05970E-20
1.61056E-03 2.80513E-20
1.68131E-03 2.57658E-20
1.75357E-03 2.37090E-20
1.82735E-03 2.18541E-20
1.90265E-03 2.01777E-20
1.97947E-03 1.86595E-20
2.05780E-03 1.72820E-20
2.13765E-03 1.60297E-20
2.21902E-03 1.48893E-20
2.30190E-03 1.38489E-20
2.38630E-03 1.28981E-20
2.47222E-03 1.20279E-20
2.55965E-03 1.12302E-20
2.64859E-03 1.04977E-20
2.73905E-03 9.82433E-21
2.83103E-03 9.20430E-21
2.92452E-03 8.63265E-21
3.01952E-03 8.10490E-21
3.11604E-03 7.61706E-21
3.21407E-03 7.16556E-21
3.31362E-03 6.74719E-21
3.41468E-03 6.35907E-21
3.51725E-03 5.99860E-21
3.62133E-03 5.66345E-21
3.72692E-03 5.35151E-21
3.83403E-03 5.06087E-21
3.94265E-03 4.78980E-21
4.05278E-03 4.53675E-21
4.16442E-03 4.30029E-21
4.27757E-03 4.07912E-21
4.39223E-03 3.87207E-21
4.50840E-03 3.67808E-21
4.62608E-03 3.49616E-21
4.74527E-03 3.32542E-21
4.86597E-03 3.16504E-21
4.98817E-03 3.01427E-21
5.11188E-03 2.87244E-21
5.23711E-03 2.73890E-21
5.36383E-03 2.61309E-21
5.49207E-03 2.49447E-21
5.62181E-03 2.38255E-21
5.75306E-03 2.27689E-21
5.88581E-03 2.17705E-21
6.02007E-03 2.08267E-21
6.15583E-03 1.99339E-21
6.29310E-03 1.90887E-21
6.43187E-03 1.82882E-21
6.57214E-03 1.75295E-21
6.71392E-03 1.68101E-21
6.85720E-03 1.61274E-21
7.00198E-03 1.54794E-21
7.14827E-03 1.48638E-21
7.29605E-03 1.42788E-21
7.44534E-03 1.37225E-21
7.59612E-03 1.31932E-21
7.97965E-03 1.19784E-21
8.37255E-03 1.09013E-21
8.77480E-03 9.94359E-22
9.18641E-03 9.08959E-22
9.60736E-03 8.32610E-22
1.00376E-02 7.64180E-22
1.04773E-02 7.02698E-22
1.09262E-02 6.47332E-22
1.13844E-02 5.97361E-22
1.18520E-02 5.52164E-22
1.23288E-02 5.11202E-22
1.28150E-02 4.74006E-22
1.33104E-02 4.40165E-22
1.38150E-02 4.09320E-22
1.43290E-02 3.81157E-22
1.48521E-02 3.55399E-22
1.53845E-02 3.31804E-22
1.59262E-02 3.10155E-22
1.64770E-02 2.90262E-22
1.70371E-02 2.71955E-22
1.76063E-02 2.55084E-22
1.81848E-02 2.39516E-22
1.87724E-02 2.25131E-22
1.93692E-02 2.11822E-22
1.99751E-02 1.99494E-22
2.05901E-02 1.88059E-22
2.12143E-02 1.77441E-22
2.18476E-02 1.67571E-22
2.24900E-02 1.58386E-22
2.31415E-02 1.49829E-22
2.38021E-02 1.41849E-22
2.44717E-02 1.34399E-22
2.51504E-02 1.27438E-22
2.58382E-02 1.20927E-22
2.65349E-02 1.14832E-22
2.72407E-02 1.09121E-22
2.79555E-02 1.03765E-22
2.86793E-02 9.87373E-23
2.94120E-02 9.40144E-23
3.01537E-02 8.95741E-23
3.09043E-02 8.53962E-23
3.16639E-02 8.14619E-23
3.24324E-02 7.77544E-23
3.32098E-02 7.42581E-23
3.39961E-02 7.09586E-23
3.47912E-02 6.78428E-23
3.55952E-02 6.48982E-23
3.64081E-02 6.21135E-23
3.72297E-02 5.94785E-23
3.80602E-02 5.69836E-23
3.88995E-02 5.46198E-23
3.97476E-02 5.23789E-23
4.06044E-02 5.02531E-23
4.14700E-02 4.82353E-23
4.23443E-02 4.63191E-23
4.32273E-02 4.44984E-23
4.41190E-02 4.27674E-23
4.50194E-02 4.11208E-23
4.59284E-02 3.95535E-23
4.68461E-02 3.80612E-23
4.87074E-02 3.52844E-23
5.06030E-02 3.27591E-23
5.25328E-02 3.04583E-23
5.44967E-02 2.83584E-23
5.64946E-02 2.64381E-23
5.85262E-02 2.46797E-23
6.05914E-02 2.30665E-23
6.26901E-02 2.15845E-23
6.48222E-02 2.02208E-23
6.69873E-02 1.89642E-23
6.91854E-02 1.78047E-23
7.14163E-02 1.67333E-23
7.36799E-02 1.57421E-23
7.59760E-02 1.48239E-23
7.83043E-02 1.39722E-23
8.06647E-02 1.31814E-23
8.30571E-02 1.24461E-23
8.54812E-02 1.17619E-23
8.79369E-02 1.11244E-23
9.04240E-02 1.05298E-23
9.29422E-02 9.97464E-24
9.54915E-02 9.45584E-24
9.80716E-02 8.97055E-24
1.00682E-01 8.51615E-24
1.03323E-01 8.09032E-24
1.05995E-01 7.69088E-24
1.08696E-01 7.31591E-24
1.11427E-01 6.96359E-24
1.14188E-01 6.63229E-24
1.16978E-01 6.32050E-24
1.19797E-01 6.02685E-24
1.22645E-01 5.75009E-24
1.25522E-01 5.48905E-24
1.28428E-01 5.24266E-24
1.31361E-01 5.00994E-24
1.34323E-01 4.78998E-24
1.37313E-01 4.58194E-24
1.40330E-01 4.38505E-24
1.43375E-01 4.19860E-24
1.46447E-01 4.02192E-24
1.49545E-01 3.85440E-24
1.52671E-01 3.69547E-24
1.55823E-01 3.54460E-24
1.59001E-01 3.40131E-24
1.62205E-01 3.26514E-24
1.65435E-01 3.13567E-24
1.68690E-01 3.01249E-24
1.71970E-01 2.89526E-24
1.75276E-01 2.78361E-24
1.78606E-01 2.67724E-24
1.81961E-01 2.57584E-24
1.85340E-01 2.47915E-24
1.88743E-01 2.38688E-24
1.92169E-01 2.29882E-24
1.95619E-01 2.21471E-24
1.99092E-01 2.13436E-24
2.02589E-01 2.05757E-24
2.06107E-01 1.98413E-24
2.09649E-01 1.91389E-24
2.13212E-01 1.84666E-24
2.16797E-01 1.78231E-24
2.20404E-01 1.72068E-24
2.24032E-01 1.66163E-24
2.27680E-01 1.60503E-24
2.31350E-01 1.55077E-24
2.35040E-01 1.49872E-24
2.38751E-01 1.44879E-24
2.42481E-01 1.40086E-24
2.46231E-01 1.35484E-24
2.50000E-01 1.31065E-24
2.53788E-01 1.26818E-24
2.57595E-01 1.22737E-24
2.61421E-01 1.18814E-24
2.65264E-01 1.15042E-24
2.69126E-01 1.11412E-24
2.73005E-01 1.07920E-24
2.76901E-01 1.04559E-24
2.80814E-01 1.01322E-24
2.84744E-01 9.82054E-25
2.88691E-01 9.52028E-25
2.92653E-01 9.23094E-25
2.96632E-01 8.95205E-25
3.00625E-01 8.68317E-25
3.04634E-01 8.42386E-25
3.08658E-01 8.17373E-25
3.12697E-01 7.93238E-25
3.16749E-01 7.69945E-25
3.20816E-01 7.47459E-25
3.24896E-01 7.25747E-25
3.28990E-01 7.04777E-25
3.33097E-01 6.84519E-25
3.37216E-01 6.64945E-25
3.41348E-01 6.46027E-25
3.45492E-01 6.27739E-25
3.49647E-01 6.10056E-25
3.53814E-01 5.92954E-25
3.57992E-01 5.76411E-25
3.62181E-01 5.60406E-25
3.66381E-01 5.44917E-25
3.70590E-01 5.29924E-25
3.74810E-01 5.15410E-25
3.79039E-01 5.01356E-25
3.83277E-01 4.87744E-25
3.87524E-01 4.74559E-25
3.91780E-01 4.61784E-25
3.96044E-01 4.49405E-25
4.00316E-01 4.37406E-25
4.04596E-01 4.25775E-25
4.08882E-01 4.14497E-25
4.13176E-01 4.03561E-25
4.17476E-01 3.92954E-25
4.21783E-01 3.82664E-25
4.26095E-01 3.72681E-25
4.30413E-01 3.62993E-25
4.34737E-01 3.53590E-25
4.39065E-01 3.44462E-25
4.43398E-01 3.35600E-25
4.47736E-01 3.26995E-25
4.52077E-01 3.18639E-25
4.56422E-01 3.10521E-25
4.60770E-01 3.02636E-25
4.65122E-01 2.94974E-25
4.69476E-01 2.87528E-25
4.73832E-01 2.80292E-25
4.78190E-01 2.73258E-25
4.82550E-01 2.66420E-25
4.86912E-01 2.59771E-25
4.91274E-01 2.53306E-25
4.95637E-01 2.47017E-25
5.00000E-01 2.40901E-25
5.04363E-01 2.34950E-25
5.08726E-01 2.29161E-25
5.13088E-01 2.23527E-25
5.17450E-01 2.18044E-25
5.21810E-01 2.12708E-25
5.26168E-01 2.07513E-25
5.30524E-01 2.02456E-25
5.34878E-01 1.97532E-25
5.39230E-01 1.92736E-25
5.43578E-01 1.88066E-25
5.47923E-01 1.83518E-25
5.52264E-01 1.79086E-25
5.56602E-01 1.74770E-25
5.60935E-01 1.70563E-25
5.65263E-01 1.66465E-25
5.69587E-01 1.62470E-25
5.73905E-01 1.58577E-25
5.78217E-01 1.54782E-25
5.82524E-01 1.51082E-25
5.86824E-01 1.47475E-25
5.91118E-01 1.43959E-25
5.95404E-01 1.40529E-25
5.99684E-01 1.37184E-25
6.03956E-01 1.33922E-25
6.08220E-01 1.30740E-25
6.12476E-01 1.27636E-25
6.16723E-01 1.24607E-25
6.20961E-01 1.21652E-25
6.25190E-01 1.18769E-25
6.29410E-01 1.15955E-25
6.33619E-01 1.13209E-25
6.37819E-01 1.10528E-25
6.42008E-01 1.07912E-25
6.46186E-01 1.05358E-25
6.50353E-01 1.02864E-25
6.54508E-01 1.00429E-25
6.58652E-01 9.80519E-26
6.62784E-01 9.57304E-26
6.66903E-01 9.34632E-26
6.71010E-01 9.12489E-26
6.75104E-01 8.90862E-26
6.79184E-01 8.69735E-26
6.83251E-01 8.49097E-26
6.87303E-01 8.28935E-26
6.91342E-01 8.09237E-26
6.95366E-01 7.89989E-26
6.99375E-01 7.71182E-26
7.03368E-01 7.52803E-26
7.07347E-01 7.34842E-26
7.11309E-01 7.17288E-26
7.15256E-01 7.00131E-26
7.19186E-01 6.83360E-26
7.23099E-01 6.66967E-26
7.26995E-01 6.50942E-26
7.30874E-01 6.35275E-26
7.34736E-01 6.19958E-26
7.38579E-01 6.04982E-26
7.42405E-01 5.90340E-26
7.46212E-01 5.76021E-26
7.50000E-01 5.62020E-26
7.53769E-01 5.48328E-26
7.57519E-01 5.34937E-26
7.61249E-01 5.21841E-26
7.64960E-01 5.09032E-26
7.68650E-01 4.96504E-26
7.72320E-01 4.84250E-26
7.75968E-01 4.72263E-26
7.79596E-01 4.60538E-26
7.83203E-01 4.49067E-26
7.86788E-01 4.37846E-26
7.90351E-01 4.26869E-26
7.93893E-01 4.16129E-26
7.97411E-01 4.05621E-26
8.00908E-01 3.95341E-26
8.04381E-01 3.85282E-26
8.07831E-01 3.75440E-26
8.11257E-01 3.65810E-26
8.14660E-01 3.56388E-26
8.18039E-01 3.47168E-26
8.21394E-01 3.38146E-26
8.24724E-01 3.29318E-26
8.28030E-01 3.20679E-26
8.31310E-01 3.12225E-26
8.34565E-01 3.03953E-26
8.37795E-01 2.95858E-26
8.40999E-01 2.87936E-26
8.44177E-01 2.80185E-26
8.47329E-01 2.72599E-26
8.50455E-01 2.65176E-26
8.53553E-01 2.57912E-26
8.56625E-01 2.50804E-26
8.59670E-01 2.43848E-26
8.62687E-01 2.37042E-26
8.65677E-01 2.30382E-26
8.68639E-01 2.23866E-26
8.71572E-01 2.17490E-26
8.74478E-01 2.11251E-26
8.77355E-01 2.05147E-26
8.80203E-01 1.99175E-26
8.83022E-01 1.93332E-26
8.85812E-01 1.87616E-26
8.88573E-01 1.82025E-26
8.91304E-01 1.76555E-26
8.94005E-01 1.71205E-26
8.96677E-01 1.65972E-26
8.99318E-01 1.60854E-26
9.01928E-01 1.55848E-26
9.04508E-01 1.50953E-26
9.07058E-01 1.46167E-26
9.09576E-01 1.41487E-26
9.12063E-01 1.36912E-26
9.14519E-01 1.32440E-26
9.16943E-01 1.28068E-26
9.19335E-01 1.23795E-26
9.21696E-01 1.19619E-26
9.24024E-01 1.15538E-26
9.26320E-01 1.11552E-26
9.28584E-01 1.07657E-26
9.30815E-01 1.03853E-26
9.33013E-01 1.00138E-26
9.35178E-01 9.65103E-27
9.37310E-01 9.29687E-27
9.39409E-01 8.95115E-27
9.41474E-01 8.61376E-27
9.43505E-01 8.28455E-27
9.45503E-01 7.96338E-27
9.47467E-01 7.65014E-27
9.49397E-01 7.34470E-27
9.51293E-01 7.04694E-27
9.53154E-01 6.75673E-27
9.54981E-01 6.47398E-27
9.56773E-01 6.19855E-27
9.58530E-01 5.93036E-27
9.60252E-01 5.66929E-27
9.61940E-01 5.41524E-27
9.63592E-01 5.16811E-27
9.65209E-01 4.92781E-27
9.66790E-01 4.69424E-27
9.68336E-01 4.46732E-27
9.69846E-01 4.24696E-27
9.71321E-01 4.03307E-27
9.72759E-01 3.82557E-27
9.74162E-01 3.62439E-27
9.75528E-01 3.42944E-27
9.76858E-01 3.24066E-27
9.78152E-01 3.05796E-27
9.79410E-01 2.88129E-27
9.80631E-01 2.71057E-27
9.81815E-01 2.54574E-27
9.82963E-01 2.38675E-27
9.84074E-01 2.23352E-27
9.85148E-01 2.08601E-27
9.86185E-01 1.94415E-27
9.87185E-01 1.80789E-27
9.88148E-01 1.67719E-27
9.89074E-01 1.55200E-27
9.89962E-01 1.43226E-27
9.90814E-01 1.31794E-27
9.91627E-01 1.20899E-27
9.92404E-01 1.10537E-27
9.93143E-01 1.00704E-27
9.93844E-01 9.13973E-28
9.94508E-01 8.26127E-28
9.95134E-01 7.43471E-28
9.95722E-01 6.65975E-28
9.96273E-01 5.93611E-28
9.96786E-01 5.26352E-28
9.97261E-01 4.64173E-28
9.97698E-01 4.07051E-28
9.98097E-01 3.54967E-28
9.98459E-01 3.07899E-28
9.98782E-01 2.65833E-28
9.99067E-01 2.28751E-28
9.99315E-01 1.96641E-28
9.99524E-01 1.69491E-28
9.99695E-01 1.47291E-28
9.99829E-01 1.30032E-28
9.99924E-01 1.17709E-28
9.99981E-01 1.10317E-28
1.00000E+00 1.07853E-28
