 #
 # Subroutine ELSEPA. Elastic scattering of electrons and positrons
 #                    by neutral atoms and positive ions
 #
 # Projectile: electron
 # Kinetic energy = 3.00000E+08 eV = 1.10248E+07 a.u.
 #
 # WARNING: High-energy factorization with free-atom DF screening.
 #          Absorption, polarization and exchange corrections are
 #          switched off.
 #          Phase shifts are calculated for the bare nucleus.
 #          Scattering amplitudes are not evaluated.
 #
 # Element: Cd,  Z =  48,  atomic weight = 1.12411E+02 g/mol
 #
 # Nuclear model: Fermi distribution
 #                Average radius = 5.16401E-13 cm
 #                Skin thickness = 5.46000E-14 cm
 #
 # Number of electrons = 48
 #
 # Total elastic cross section = 4.49643E-18 cm**2 = 1.60571E-01 a0**2
 # 1st transport cross section = 5.04640E-26 cm**2 = 1.80210E-09 a0**2
 # 2nd transport cross section = 1.51228E-25 cm**2 = 5.40047E-09 a0**2
 #
 #
 # Differential cross section:                       MU=(1-COS(THETA))/2
 #
 #  THETA        MU          DCS          DCS        Sherman      error
 #  (deg)                 (cm**2/sr)   (a0**2/sr)    function
 #----------------------------------------------------------------------
0.00000E+00 2.85327E-09
7.61557E-13 2.79785E-09
1.18994E-12 2.76755E-09
1.71346E-12 2.73131E-09
2.33225E-12 2.68957E-09
3.04617E-12 2.64258E-09
3.85530E-12 2.59151E-09
4.75964E-12 2.53607E-09
5.75917E-12 2.47783E-09
6.85391E-12 2.41611E-09
8.04379E-12 2.35271E-09
9.32893E-12 2.28715E-09
1.07092E-11 2.22067E-09
1.21847E-11 2.15334E-09
1.37554E-11 2.08564E-09
1.54213E-11 2.01829E-09
1.71823E-11 1.95094E-09
1.90386E-11 1.88498E-09
2.09900E-11 1.81921E-09
2.30367E-11 1.75549E-09
2.51785E-11 1.69241E-09
2.74156E-11 1.63150E-09
2.97478E-11 1.57189E-09
3.21752E-11 1.51428E-09
3.46979E-11 1.45847E-09
3.73157E-11 1.40443E-09
4.00286E-11 1.35255E-09
4.28368E-11 1.30217E-09
4.57402E-11 1.25420E-09
4.87388E-11 1.20745E-09
5.18325E-11 1.16308E-09
5.50215E-11 1.12003E-09
5.83057E-11 1.07904E-09
6.16850E-11 1.03953E-09
6.51595E-11 1.00172E-09
6.87293E-11 9.65507E-10
7.23943E-11 9.30670E-10
7.61544E-11 8.97486E-10
1.18991E-10 6.30685E-10
1.71347E-10 4.52259E-10
2.33223E-10 3.29396E-10
3.04617E-10 2.39409E-10
3.85531E-10 1.80637E-10
4.75965E-10 1.35447E-10
5.75917E-10 1.04409E-10
6.85389E-10 8.02610E-11
8.04380E-10 6.30918E-11
9.32891E-10 4.99444E-11
1.07092E-09 4.01668E-11
1.21847E-09 3.26552E-11
1.37554E-09 2.68715E-11
1.54213E-09 2.23635E-11
1.71823E-09 1.87870E-11
1.90386E-09 1.59475E-11
2.09900E-09 1.36303E-11
2.30367E-09 1.17545E-11
2.51785E-09 1.01891E-11
2.74156E-09 8.89445E-12
2.97478E-09 7.79846E-12
3.21752E-09 6.87221E-12
3.46978E-09 6.08026E-12
3.73156E-09 5.39793E-12
4.00286E-09 4.81089E-12
4.28368E-09 4.29657E-12
4.57402E-09 3.85246E-12
4.87388E-09 3.45789E-12
5.18326E-09 3.11506E-12
5.50215E-09 2.80954E-12
5.83057E-09 2.54138E-12
6.16850E-09 2.30266E-12
6.51596E-09 2.09059E-12
6.87293E-09 1.90134E-12
7.23942E-09 1.73217E-12
7.61544E-09 1.58142E-12
1.18991E-08 6.95695E-13
1.71347E-08 3.51475E-13
2.33223E-08 1.97164E-13
3.04617E-08 1.19339E-13
3.85531E-08 7.64579E-14
4.75965E-08 5.12194E-14
5.75917E-08 3.55650E-14
6.85389E-08 2.54273E-14
8.04380E-08 1.86479E-14
9.32891E-08 1.39763E-14
1.07092E-07 1.06751E-14
1.21847E-07 8.29238E-15
1.37554E-07 6.53747E-15
1.54213E-07 5.22298E-15
1.71823E-07 4.22299E-15
1.90386E-07 3.45114E-15
2.09900E-07 2.84804E-15
2.30367E-07 2.37122E-15
2.51785E-07 1.99020E-15
2.74156E-07 1.68284E-15
2.97478E-07 1.43263E-15
3.21752E-07 1.22729E-15
3.46978E-07 1.05751E-15
3.73156E-07 9.16099E-16
4.00286E-07 7.97582E-16
4.28368E-07 6.97641E-16
4.57402E-07 6.12876E-16
4.87388E-07 5.40614E-16
5.18325E-07 4.78696E-16
5.50215E-07 4.25394E-16
5.83057E-07 3.79313E-16
6.16850E-07 3.39303E-16
6.51596E-07 3.04432E-16
6.87293E-07 2.73928E-16
7.23942E-07 2.47148E-16
7.61543E-07 2.23562E-16
1.18991E-06 9.22407E-17
1.71347E-06 4.46778E-17
2.33223E-06 2.41827E-17
3.04617E-06 1.42016E-17
3.85531E-06 8.87756E-18
4.75964E-06 5.83019E-18
5.75916E-06 3.98506E-18
6.85388E-06 2.81539E-18
8.04378E-06 2.04506E-18
9.32888E-06 1.52107E-18
1.07092E-05 1.15466E-18
1.21846E-05 8.92243E-19
1.37553E-05 7.00320E-19
1.54212E-05 5.57342E-19
1.71822E-05 4.49064E-19
1.90385E-05 3.65764E-19
2.09899E-05 3.01080E-19
2.30365E-05 2.50066E-19
2.51783E-05 2.09388E-19
2.74153E-05 1.76633E-19
2.97475E-05 1.50030E-19
3.21749E-05 1.28252E-19
3.46974E-05 1.10292E-19
3.73152E-05 9.53781E-20
4.00281E-05 8.29079E-20
4.28362E-05 7.24146E-20
4.57395E-05 6.35304E-20
4.87380E-05 5.59666E-20
5.18317E-05 4.94940E-20
5.50205E-05 4.39292E-20
5.83045E-05 3.91249E-20
6.16838E-05 3.49600E-20
6.51582E-05 3.13361E-20
6.87277E-05 2.81707E-20
7.23925E-05 2.53960E-20
7.61524E-05 2.30141E-20
9.21439E-05 1.57328E-20
1.09658E-04 1.11169E-20
1.28695E-04 8.07736E-21
1.49255E-04 6.00892E-21
1.71338E-04 4.56246E-21
1.94942E-04 3.52605E-21
2.20070E-04 2.76783E-21
2.46720E-04 2.20278E-21
2.74892E-04 1.77470E-21
3.04586E-04 1.44564E-21
3.35803E-04 1.18930E-21
3.68542E-04 9.87249E-22
4.02802E-04 8.26241E-22
4.38585E-04 6.96666E-22
4.75889E-04 5.91446E-22
5.14715E-04 5.05285E-22
5.55063E-04 4.34192E-22
5.96931E-04 3.75111E-22
6.40321E-04 3.25691E-22
6.85233E-04 2.84098E-22
7.31665E-04 2.48891E-22
7.79618E-04 2.18931E-22
8.29092E-04 1.93309E-22
8.80086E-04 1.71293E-22
9.32601E-04 1.52292E-22
9.86636E-04 1.35826E-22
1.04219E-03 1.21500E-22
1.09927E-03 1.08990E-22
1.15786E-03 9.80268E-23
1.21797E-03 8.83880E-23
1.27961E-03 7.98868E-23
1.34276E-03 7.23664E-23
1.40743E-03 6.56947E-23
1.47362E-03 5.97599E-23
1.54133E-03 5.44669E-23
1.61056E-03 4.97348E-23
1.68131E-03 4.54942E-23
1.75357E-03 4.16854E-23
1.82735E-03 3.82571E-23
1.90265E-03 3.51650E-23
1.97947E-03 3.23706E-23
2.05780E-03 2.98404E-23
2.13765E-03 2.75452E-23
2.21902E-03 2.54597E-23
2.30190E-03 2.35615E-23
2.38630E-03 2.18310E-23
2.47222E-03 2.02509E-23
2.55965E-03 1.88059E-23
2.64859E-03 1.74827E-23
2.73905E-03 1.62693E-23
2.83103E-03 1.51550E-23
2.92452E-03 1.41306E-23
3.01952E-03 1.31874E-23
3.11604E-03 1.23181E-23
3.21407E-03 1.15159E-23
3.31362E-03 1.07749E-23
3.41468E-03 1.00895E-23
3.51725E-03 9.45499E-24
3.62133E-03 8.86696E-24
3.72692E-03 8.32147E-24
3.83403E-03 7.81496E-24
3.94265E-03 7.34420E-24
4.05278E-03 6.90627E-24
4.16442E-03 6.49854E-24
4.27757E-03 6.11860E-24
4.39223E-03 5.76426E-24
4.50840E-03 5.43354E-24
4.62608E-03 5.12461E-24
4.74527E-03 4.83584E-24
4.86597E-03 4.56571E-24
4.98817E-03 4.31283E-24
5.11188E-03 4.07594E-24
5.23711E-03 3.85389E-24
5.36383E-03 3.64560E-24
5.49207E-03 3.45010E-24
5.62181E-03 3.26649E-24
5.75306E-03 3.09394E-24
5.88581E-03 2.93170E-24
6.02007E-03 2.77906E-24
6.15583E-03 2.63538E-24
6.29310E-03 2.50005E-24
6.43187E-03 2.37253E-24
6.57214E-03 2.25229E-24
6.71392E-03 2.13888E-24
6.85720E-03 2.03185E-24
7.00198E-03 1.93079E-24
7.14827E-03 1.83532E-24
7.29605E-03 1.74511E-24
7.44534E-03 1.65981E-24
7.59612E-03 1.57914E-24
7.97965E-03 1.39585E-24
8.37255E-03 1.23582E-24
8.77480E-03 1.09577E-24
9.18641E-03 9.72934E-25
9.60736E-03 8.64981E-25
1.00376E-02 7.69924E-25
1.04773E-02 6.86070E-25
1.09262E-02 6.11973E-25
1.13844E-02 5.46394E-25
1.18520E-02 4.88266E-25
1.23288E-02 4.36670E-25
1.28150E-02 3.90813E-25
1.33104E-02 3.50005E-25
1.38150E-02 3.13650E-25
1.43290E-02 2.81226E-25
1.48521E-02 2.52279E-25
1.53845E-02 2.26412E-25
1.59262E-02 2.03277E-25
1.64770E-02 1.82570E-25
1.70371E-02 1.64021E-25
1.76063E-02 1.47394E-25
1.81848E-02 1.32481E-25
1.87724E-02 1.19097E-25
1.93692E-02 1.07079E-25
1.99751E-02 9.62827E-26
2.05901E-02 8.65796E-26
2.12143E-02 7.78558E-26
2.18476E-02 7.00098E-26
2.24900E-02 6.29512E-26
2.31415E-02 5.65995E-26
2.38021E-02 5.08827E-26
2.44717E-02 4.57366E-26
2.51504E-02 4.11036E-26
2.58382E-02 3.69322E-26
2.65349E-02 3.31763E-26
2.72407E-02 2.97945E-26
2.79555E-02 2.67496E-26
2.86793E-02 2.40083E-26
2.94120E-02 2.15406E-26
3.01537E-02 1.93196E-26
3.09043E-02 1.73208E-26
3.16639E-02 1.55225E-26
3.24324E-02 1.39050E-26
3.32098E-02 1.24506E-26
3.39961E-02 1.11432E-26
3.47912E-02 9.96835E-27
3.55952E-02 8.91310E-27
3.64081E-02 7.96566E-27
3.72297E-02 7.11542E-27
3.80602E-02 6.35280E-27
3.88995E-02 5.66914E-27
3.97476E-02 5.05661E-27
4.06044E-02 4.50816E-27
4.14700E-02 4.01740E-27
4.23443E-02 3.57855E-27
4.32273E-02 3.18642E-27
4.41190E-02 2.83629E-27
4.50194E-02 2.52392E-27
4.59284E-02 2.24545E-27
4.68461E-02 1.99743E-27
4.87074E-02 1.58049E-27
5.06030E-02 1.25153E-27
5.25328E-02 9.93014E-28
5.44967E-02 7.90685E-28
5.64946E-02 6.32990E-28
5.85262E-02 5.10588E-28
6.05914E-02 4.15947E-28
6.26901E-02 3.43014E-28
6.48222E-02 2.86944E-28
6.69873E-02 2.43879E-28
6.91854E-02 2.10760E-28
7.14163E-02 1.85176E-28
7.36799E-02 1.65243E-28
7.59760E-02 1.49498E-28
7.83043E-02 1.36818E-28
8.06647E-02 1.26348E-28
8.30571E-02 1.17449E-28
8.54812E-02 1.09647E-28
8.79369E-02 1.02603E-28
9.04240E-02 9.60780E-29
9.29422E-02 8.99085E-29
9.54915E-02 8.39908E-29
9.80716E-02 7.82635E-29
1.00682E-01 7.26956E-29
1.03323E-01 6.72776E-29
1.05995E-01 6.20139E-29
1.08696E-01 5.69172E-29
1.11427E-01 5.20048E-29
1.14188E-01 4.72953E-29
1.16978E-01 4.28066E-29
1.19797E-01 3.85543E-29
1.22645E-01 3.45512E-29
1.25522E-01 3.08063E-29
1.28428E-01 2.73252E-29
1.31361E-01 2.41096E-29
1.34323E-01 2.11581E-29
1.37313E-01 1.84661E-29
1.40330E-01 1.60261E-29
1.43375E-01 1.38287E-29
1.46447E-01 1.18623E-29
1.49545E-01 1.01142E-29
1.52671E-01 8.57043E-30
1.55823E-01 7.21636E-30
1.59001E-01 6.03707E-30
1.62205E-01 5.01752E-30
1.65435E-01 4.14287E-30
1.68690E-01 3.39865E-30
1.71970E-01 2.77091E-30
1.75276E-01 2.24641E-30
1.78606E-01 1.81267E-30
1.81961E-01 1.45804E-30
1.85340E-01 1.17178E-30
1.88743E-01 9.44048E-31
1.92169E-01 7.65914E-31
1.95619E-01 6.29346E-31
1.99092E-01 5.27183E-31
2.02589E-01 4.53095E-31
2.06107E-01 4.01543E-31
2.09649E-01 3.67722E-31
2.13212E-01 3.47511E-31
2.16797E-01 3.37414E-31
2.20404E-01 3.34503E-31
2.24032E-01 3.36360E-31
2.27680E-01 3.41021E-31
2.31350E-01 3.46923E-31
2.35040E-01 3.52854E-31
2.38751E-01 3.57902E-31
2.42481E-01 3.61414E-31
2.46231E-01 3.62954E-31
2.50000E-01 3.62265E-31
2.53788E-01 3.59237E-31
2.57595E-01 3.53879E-31
2.61421E-01 3.46287E-31
2.65264E-01 3.36630E-31
2.69126E-01 3.25123E-31
2.73005E-01 3.12014E-31
2.76901E-01 2.97568E-31
2.80814E-01 2.82058E-31
2.84744E-01 2.65755E-31
2.88691E-01 2.48920E-31
2.92653E-01 2.31797E-31
2.96632E-01 2.14612E-31
3.00625E-01 1.97569E-31
3.04634E-01 1.80847E-31
3.08658E-01 1.64602E-31
3.12697E-01 1.48964E-31
3.16749E-01 1.34038E-31
3.20816E-01 1.19910E-31
3.24896E-01 1.06639E-31
3.28990E-01 9.42695E-32
3.33097E-01 8.28245E-32
3.37216E-01 7.23126E-32
3.41348E-01 6.27278E-32
3.45492E-01 5.40525E-32
3.49647E-01 4.62589E-32
3.53814E-01 3.93108E-32
3.57992E-01 3.31655E-32
3.62181E-01 2.77755E-32
3.66381E-01 2.30896E-32
3.70590E-01 1.90544E-32
3.74810E-01 1.56154E-32
3.79039E-01 1.27181E-32
3.83277E-01 1.03086E-32
3.87524E-01 8.33440E-33
3.91780E-01 6.74519E-33
3.96044E-01 5.49300E-33
4.00316E-01 4.53274E-33
4.04596E-01 3.82239E-33
4.08882E-01 3.32316E-33
4.13176E-01 2.99960E-33
4.17476E-01 2.81959E-33
4.21783E-01 2.75433E-33
4.26095E-01 2.77825E-33
4.30413E-01 2.86887E-33
4.34737E-01 3.00665E-33
4.39065E-01 3.17484E-33
4.43398E-01 3.35929E-33
4.47736E-01 3.54819E-33
4.52077E-01 3.73192E-33
4.56422E-01 3.90284E-33
4.60770E-01 4.05504E-33
4.65122E-01 4.18417E-33
4.69476E-01 4.28724E-33
4.73832E-01 4.36245E-33
4.78190E-01 4.40897E-33
4.82550E-01 4.42684E-33
4.86912E-01 4.41678E-33
4.91274E-01 4.38007E-33
4.95637E-01 4.31841E-33
5.00000E-01 4.23386E-33
5.04363E-01 4.12867E-33
5.08726E-01 4.00528E-33
5.13088E-01 3.86617E-33
5.17450E-01 3.71384E-33
5.21810E-01 3.55078E-33
5.26168E-01 3.37936E-33
5.30524E-01 3.20186E-33
5.34878E-01 3.02042E-33
5.39230E-01 2.83702E-33
5.43578E-01 2.65345E-33
5.47923E-01 2.47136E-33
5.52264E-01 2.29217E-33
5.56602E-01 2.11716E-33
5.60935E-01 1.94739E-33
5.65263E-01 1.78379E-33
5.69587E-01 1.62708E-33
5.73905E-01 1.47786E-33
5.78217E-01 1.33656E-33
5.82524E-01 1.20350E-33
5.86824E-01 1.07886E-33
5.91118E-01 9.62711E-34
5.95404E-01 8.55041E-34
5.99684E-01 7.55745E-34
6.03956E-01 6.64646E-34
6.08220E-01 5.81506E-34
6.12476E-01 5.06035E-34
6.16723E-01 4.37902E-34
6.20961E-01 3.76743E-34
6.25190E-01 3.22171E-34
6.29410E-01 2.73783E-34
6.33619E-01 2.31162E-34
6.37819E-01 1.93892E-34
6.42008E-01 1.61556E-34
6.46186E-01 1.33743E-34
6.50353E-01 1.10050E-34
6.54508E-01 9.00904E-35
6.58652E-01 7.34896E-35
6.62784E-01 5.98918E-35
6.66903E-01 4.89600E-35
6.71010E-01 4.03772E-35
6.75104E-01 3.38472E-35
6.79184E-01 2.90952E-35
6.83251E-01 2.58674E-35
6.87303E-01 2.39312E-35
6.91342E-01 2.30747E-35
6.95366E-01 2.31061E-35
6.99375E-01 2.38530E-35
7.03368E-01 2.51613E-35
7.07347E-01 2.68947E-35
7.11309E-01 2.89332E-35
7.15256E-01 3.11723E-35
7.19186E-01 3.35219E-35
7.23099E-01 3.59051E-35
7.26995E-01 3.82572E-35
7.30874E-01 4.05245E-35
7.34736E-01 4.26635E-35
7.38579E-01 4.46394E-35
7.42405E-01 4.64258E-35
7.46212E-01 4.80033E-35
7.50000E-01 4.93587E-35
7.53769E-01 5.04844E-35
7.57519E-01 5.13773E-35
7.61249E-01 5.20386E-35
7.64960E-01 5.24725E-35
7.68650E-01 5.26865E-35
7.72320E-01 5.26899E-35
7.75968E-01 5.24941E-35
7.79596E-01 5.21117E-35
7.83203E-01 5.15564E-35
7.86788E-01 5.08425E-35
7.90351E-01 4.99848E-35
7.93893E-01 4.89980E-35
7.97411E-01 4.78969E-35
8.00908E-01 4.66961E-35
8.04381E-01 4.54096E-35
8.07831E-01 4.40511E-35
8.11257E-01 4.26334E-35
8.14660E-01 4.11689E-35
8.18039E-01 3.96691E-35
8.21394E-01 3.81446E-35
8.24724E-01 3.66054E-35
8.28030E-01 3.50605E-35
8.31310E-01 3.35184E-35
8.34565E-01 3.19863E-35
8.37795E-01 3.04711E-35
8.40999E-01 2.89786E-35
8.44177E-01 2.75140E-35
8.47329E-01 2.60819E-35
8.50455E-01 2.46862E-35
8.53553E-01 2.33300E-35
8.56625E-01 2.20160E-35
8.59670E-01 2.07465E-35
8.62687E-01 1.95229E-35
8.65677E-01 1.83466E-35
8.68639E-01 1.72182E-35
8.71572E-01 1.61384E-35
8.74478E-01 1.51071E-35
8.77355E-01 1.41241E-35
8.80203E-01 1.31891E-35
8.83022E-01 1.23013E-35
8.85812E-01 1.14598E-35
8.88573E-01 1.06637E-35
8.91304E-01 9.91163E-36
8.94005E-01 9.20242E-36
8.96677E-01 8.53464E-36
8.99318E-01 7.90682E-36
9.01928E-01 7.31745E-36
9.04508E-01 6.76494E-36
9.07058E-01 6.24772E-36
9.09576E-01 5.76420E-36
9.12063E-01 5.31277E-36
9.14519E-01 4.89184E-36
9.16943E-01 4.49985E-36
9.19335E-01 4.13526E-36
9.21696E-01 3.79656E-36
9.24024E-01 3.48230E-36
9.26320E-01 3.19103E-36
9.28584E-01 2.92139E-36
9.30815E-01 2.67205E-36
9.33013E-01 2.44173E-36
9.35178E-01 2.22922E-36
9.37310E-01 2.03335E-36
9.39409E-01 1.85299E-36
9.41474E-01 1.68711E-36
9.43505E-01 1.53470E-36
9.45503E-01 1.39479E-36
9.47467E-01 1.26650E-36
9.49397E-01 1.14897E-36
9.51293E-01 1.04141E-36
9.53154E-01 9.43076E-37
9.54981E-01 8.53252E-37
9.56773E-01 7.71286E-37
9.58530E-01 6.96560E-37
9.60252E-01 6.28500E-37
9.61940E-01 5.66568E-37
9.63592E-01 5.10264E-37
9.65209E-01 4.59126E-37
9.66790E-01 4.12722E-37
9.68336E-01 3.70652E-37
9.69846E-01 3.32544E-37
9.71321E-01 2.98059E-37
9.72759E-01 2.66878E-37
9.74162E-01 2.38712E-37
9.75528E-01 2.13290E-37
9.76858E-01 1.90367E-37
9.78152E-01 1.69715E-37
9.79410E-01 1.51124E-37
9.80631E-01 1.34404E-37
9.81815E-01 1.19379E-37
9.82963E-01 1.05892E-37
9.84074E-01 9.37922E-38
9.85148E-01 8.29488E-38
9.86185E-01 7.32384E-38
9.87185E-01 6.45518E-38
9.88148E-01 5.67866E-38
9.89074E-01 4.98527E-38
9.89962E-01 4.36652E-38
9.90814E-01 3.81502E-38
9.91627E-01 3.32390E-38
9.92404E-01 2.88703E-38
9.93143E-01 2.49873E-38
9.93844E-01 2.15418E-38
9.94508E-01 1.84873E-38
9.95134E-01 1.57838E-38
9.95722E-01 1.33943E-38
9.96273E-01 1.12879E-38
9.96786E-01 9.43408E-39
9.97261E-01 7.80748E-39
9.97698E-01 6.38553E-39
9.98097E-01 5.14774E-39
9.98459E-01 4.07713E-39
9.98782E-01 3.15691E-39
9.99067E-01 2.37497E-39
9.99315E-01 1.71877E-39
9.99524E-01 1.17967E-39
9.99695E-01 7.49072E-40
9.99829E-01 4.20599E-40
9.99924E-01 1.89078E-40
9.99981E-01 5.22222E-41
1.00000E+00 8.61509E-42
