 #
 # Subroutine ELSEPA. Elastic scattering of electrons and positrons
 #                    by neutral atoms and positive ions
 #
 # Projectile: electron
 # Kinetic energy = 1.00000E+08 eV = 3.67493E+06 a.u.
 #
 # WARNING: High-energy factorization with free-atom DF screening.
 #          Absorption, polarization and exchange corrections are
 #          switched off.
 #          Phase shifts are calculated for the bare nucleus.
 #          Scattering amplitudes are not evaluated.
 #
 # Element: Cd,  Z =  48,  atomic weight = 1.12411E+02 g/mol
 #
 # Nuclear model: Fermi distribution
 #                Average radius = 5.16401E-13 cm
 #                Skin thickness = 5.46000E-14 cm
 #
 # Number of electrons = 48
 #
 # Total elastic cross section = 4.49955E-18 cm**2 = 1.60682E-01 a0**2
 # 1st transport cross section = 4.52358E-25 cm**2 = 1.61540E-08 a0**2
 # 2nd transport cross section = 1.34600E-24 cm**2 = 4.80665E-08 a0**2
 #
 #
 # Differential cross section:                       MU=(1-COS(THETA))/2
 #
 #  THETA        MU          DCS          DCS        Sherman      error
 #  (deg)                 (cm**2/sr)   (a0**2/sr)    function
 #----------------------------------------------------------------------
0.00000E+00 3.19190E-10
7.61557E-13 3.18484E-10
1.18994E-12 3.18088E-10
1.71346E-12 3.17607E-10
2.33225E-12 3.17039E-10
3.04617E-12 3.16387E-10
3.85530E-12 3.15651E-10
4.75964E-12 3.14832E-10
5.75917E-12 3.13931E-10
6.85391E-12 3.12950E-10
8.04379E-12 3.11890E-10
9.32893E-12 3.10752E-10
1.07092E-11 3.09538E-10
1.21847E-11 3.08250E-10
1.37554E-11 3.06889E-10
1.54213E-11 3.05458E-10
1.71823E-11 3.03958E-10
1.90386E-11 3.02391E-10
2.09900E-11 3.00760E-10
2.30367E-11 2.99063E-10
2.51785E-11 2.97293E-10
2.74156E-11 2.95472E-10
2.97478E-11 2.93602E-10
3.21752E-11 2.91686E-10
3.46979E-11 2.89728E-10
3.73157E-11 2.87695E-10
4.00286E-11 2.85610E-10
4.28368E-11 2.83490E-10
4.57402E-11 2.81339E-10
4.87388E-11 2.79159E-10
5.18325E-11 2.76938E-10
5.50215E-11 2.74646E-10
5.83057E-11 2.72333E-10
6.16850E-11 2.70003E-10
6.51595E-11 2.67657E-10
6.87293E-11 2.65298E-10
7.23943E-11 2.62872E-10
7.61544E-11 2.60423E-10
1.18991E-10 2.35432E-10
1.71347E-10 2.10378E-10
2.33223E-10 1.86506E-10
3.04617E-10 1.64645E-10
3.85531E-10 1.45113E-10
4.75965E-10 1.27929E-10
5.75917E-10 1.12940E-10
6.85389E-10 9.99149E-11
8.04380E-10 8.85801E-11
9.32891E-10 7.87296E-11
1.07092E-09 7.01463E-11
1.21847E-09 6.26431E-11
1.37554E-09 5.60615E-11
1.54213E-09 5.02663E-11
1.71823E-09 4.51397E-11
1.90386E-09 4.06032E-11
2.09900E-09 3.65789E-11
2.30367E-09 3.29426E-11
2.51785E-09 2.94925E-11
2.74156E-09 2.65624E-11
2.97478E-09 2.40591E-11
3.21752E-09 2.19080E-11
3.46978E-09 2.00494E-11
3.73156E-09 1.81932E-11
4.00286E-09 1.64909E-11
4.28368E-09 1.50119E-11
4.57402E-09 1.37211E-11
4.87388E-09 1.25897E-11
5.18326E-09 1.15604E-11
5.50215E-09 1.05567E-11
5.83057E-09 9.67174E-12
6.16850E-09 8.88873E-12
6.51596E-09 8.19354E-12
6.87293E-09 7.57430E-12
7.23942E-09 6.98272E-12
7.61544E-09 6.44421E-12
1.18991E-08 3.17080E-12
1.71347E-08 1.76512E-12
2.33223E-08 1.07726E-12
3.04617E-08 7.00392E-13
3.85531E-08 4.75291E-13
4.75965E-08 3.32664E-13
5.75917E-08 2.38677E-13
6.85389E-08 1.74799E-13
8.04380E-08 1.30558E-13
9.32891E-08 9.93386E-14
1.07092E-07 7.68621E-14
1.21847E-07 6.03857E-14
1.37554E-07 4.81126E-14
1.54213E-07 3.88316E-14
1.71823E-07 3.17069E-14
1.90386E-07 2.61593E-14
2.09900E-07 2.17828E-14
2.30367E-07 1.82885E-14
2.51785E-07 1.54675E-14
2.74156E-07 1.31858E-14
2.97478E-07 1.12989E-14
3.21752E-07 9.74662E-15
3.46978E-07 8.44648E-15
3.73156E-07 7.35878E-15
4.00286E-07 6.43891E-15
4.28368E-07 5.65835E-15
4.57402E-07 4.99239E-15
4.87388E-07 4.42023E-15
5.18325E-07 3.92842E-15
5.50215E-07 3.50160E-15
5.83057E-07 3.13214E-15
6.16850E-07 2.80864E-15
6.51596E-07 2.52656E-15
6.87293E-07 2.27814E-15
7.23942E-07 2.05981E-15
7.61543E-07 1.86666E-15
1.18991E-06 7.80451E-16
1.71347E-06 3.81216E-16
2.33223E-06 2.07741E-16
3.04617E-06 1.22704E-16
3.85531E-06 7.70837E-17
4.75964E-06 5.08365E-17
5.75916E-06 3.48709E-17
6.85388E-06 2.47091E-17
8.04378E-06 1.79928E-17
9.32888E-06 1.34105E-17
1.07092E-05 1.01979E-17
1.21846E-05 7.89176E-18
1.37553E-05 6.20194E-18
1.54212E-05 4.94096E-18
1.71822E-05 3.98465E-18
1.90385E-05 3.24802E-18
2.09899E-05 2.67540E-18
2.30365E-05 2.22338E-18
2.51783E-05 1.86264E-18
2.74153E-05 1.57196E-18
2.97475E-05 1.33572E-18
3.21749E-05 1.14222E-18
3.46974E-05 9.82569E-19
3.73152E-05 8.49928E-19
4.00281E-05 7.38984E-19
4.28362E-05 6.45592E-19
4.57395E-05 5.66498E-19
4.87380E-05 4.99138E-19
5.18317E-05 4.41481E-19
5.50205E-05 3.91901E-19
5.83045E-05 3.49084E-19
6.16838E-05 3.11962E-19
6.51582E-05 2.79654E-19
6.87277E-05 2.51430E-19
7.23925E-05 2.26685E-19
7.61524E-05 2.05067E-19
9.21439E-05 1.40221E-19
1.09658E-04 9.91053E-20
1.28695E-04 7.20280E-20
1.49255E-04 5.36001E-20
1.71338E-04 4.07129E-20
1.94942E-04 3.14785E-20
2.20070E-04 2.47225E-20
2.46720E-04 1.96875E-20
2.74892E-04 1.58726E-20
3.04586E-04 1.29398E-20
3.35803E-04 1.06548E-20
3.68542E-04 8.85338E-21
4.02802E-04 7.41755E-21
4.38585E-04 6.26173E-21
4.75889E-04 5.32287E-21
5.14715E-04 4.55380E-21
5.55063E-04 3.91896E-21
5.96931E-04 3.39117E-21
6.40321E-04 2.94945E-21
6.85233E-04 2.57748E-21
7.31665E-04 2.26244E-21
7.79618E-04 1.99418E-21
8.29092E-04 1.76459E-21
8.80086E-04 1.56717E-21
9.32601E-04 1.39665E-21
9.86636E-04 1.24874E-21
1.04219E-03 1.11993E-21
1.09927E-03 1.00734E-21
1.15786E-03 9.08581E-22
1.21797E-03 8.21646E-22
1.27961E-03 7.44882E-22
1.34276E-03 6.76892E-22
1.40743E-03 6.16496E-22
1.47362E-03 5.62699E-22
1.54133E-03 5.14653E-22
1.61056E-03 4.71633E-22
1.68131E-03 4.33022E-22
1.75357E-03 3.98288E-22
1.82735E-03 3.66972E-22
1.90265E-03 3.38677E-22
1.97947E-03 3.13058E-22
2.05780E-03 2.89819E-22
2.13765E-03 2.68699E-22
2.21902E-03 2.49469E-22
2.30190E-03 2.31930E-22
2.38630E-03 2.15907E-22
2.47222E-03 2.01244E-22
2.55965E-03 1.87805E-22
2.64859E-03 1.75469E-22
2.73905E-03 1.64130E-22
2.83103E-03 1.53692E-22
2.92452E-03 1.44070E-22
3.01952E-03 1.35189E-22
3.11604E-03 1.26982E-22
3.21407E-03 1.19387E-22
3.31362E-03 1.12352E-22
3.41468E-03 1.05826E-22
3.51725E-03 9.97668E-23
3.62133E-03 9.41343E-23
3.72692E-03 8.88930E-23
3.83403E-03 8.40107E-23
3.94265E-03 7.94584E-23
4.05278E-03 7.52094E-23
4.16442E-03 7.12400E-23
4.27757E-03 6.75283E-23
4.39223E-03 6.40544E-23
4.50840E-03 6.08003E-23
4.62608E-03 5.77495E-23
4.74527E-03 5.48870E-23
4.86597E-03 5.21989E-23
4.98817E-03 4.96726E-23
5.11188E-03 4.72967E-23
5.23711E-03 4.50604E-23
5.36383E-03 4.29541E-23
5.49207E-03 4.09687E-23
5.62181E-03 3.90961E-23
5.75306E-03 3.73286E-23
5.88581E-03 3.56592E-23
6.02007E-03 3.40815E-23
6.15583E-03 3.25896E-23
6.29310E-03 3.11777E-23
6.43187E-03 2.98410E-23
6.57214E-03 2.85745E-23
6.71392E-03 2.73740E-23
6.85720E-03 2.62353E-23
7.00198E-03 2.51547E-23
7.14827E-03 2.41287E-23
7.29605E-03 2.31539E-23
7.44534E-03 2.22274E-23
7.59612E-03 2.13464E-23
7.97965E-03 1.93254E-23
8.37255E-03 1.75355E-23
8.77480E-03 1.59458E-23
9.18641E-03 1.45300E-23
9.60736E-03 1.32658E-23
1.00376E-02 1.21343E-23
1.04773E-02 1.11190E-23
1.09262E-02 1.02060E-23
1.13844E-02 9.38323E-24
1.18520E-02 8.64021E-24
1.23288E-02 7.96789E-24
1.28150E-02 7.35838E-24
1.33104E-02 6.80481E-24
1.38150E-02 6.30115E-24
1.43290E-02 5.84214E-24
1.48521E-02 5.42313E-24
1.53845E-02 5.04004E-24
1.59262E-02 4.68927E-24
1.64770E-02 4.36763E-24
1.70371E-02 4.07228E-24
1.76063E-02 3.80070E-24
1.81848E-02 3.55066E-24
1.87724E-02 3.32017E-24
1.93692E-02 3.10743E-24
1.99751E-02 2.91084E-24
2.05901E-02 2.72898E-24
2.12143E-02 2.56055E-24
2.18476E-02 2.40440E-24
2.24900E-02 2.25948E-24
2.31415E-02 2.12485E-24
2.38021E-02 1.99966E-24
2.44717E-02 1.88313E-24
2.51504E-02 1.77458E-24
2.58382E-02 1.67336E-24
2.65349E-02 1.57889E-24
2.72407E-02 1.49066E-24
2.79555E-02 1.40819E-24
2.86793E-02 1.33103E-24
2.94120E-02 1.25880E-24
3.01537E-02 1.19112E-24
3.09043E-02 1.12766E-24
3.16639E-02 1.06813E-24
3.24324E-02 1.01223E-24
3.32098E-02 9.59718E-25
3.39961E-02 9.10347E-25
3.47912E-02 8.63904E-25
3.55952E-02 8.20188E-25
3.64081E-02 7.79014E-25
3.72297E-02 7.40212E-25
3.80602E-02 7.03625E-25
3.88995E-02 6.69107E-25
3.97476E-02 6.36524E-25
4.06044E-02 6.05751E-25
4.14700E-02 5.76672E-25
4.23443E-02 5.49182E-25
4.32273E-02 5.23179E-25
4.41190E-02 4.98573E-25
4.50194E-02 4.75277E-25
4.59284E-02 4.53212E-25
4.68461E-02 4.32303E-25
4.87074E-02 3.93683E-25
5.06030E-02 3.58918E-25
5.25328E-02 3.27574E-25
5.44967E-02 2.99272E-25
5.64946E-02 2.73679E-25
5.85262E-02 2.50505E-25
6.05914E-02 2.29492E-25
6.26901E-02 2.10417E-25
6.48222E-02 1.93078E-25
6.69873E-02 1.77301E-25
6.91854E-02 1.62929E-25
7.14163E-02 1.49822E-25
7.36799E-02 1.37858E-25
7.59760E-02 1.26927E-25
7.83043E-02 1.16930E-25
8.06647E-02 1.07779E-25
8.30571E-02 9.93961E-26
8.54812E-02 9.17103E-26
8.79369E-02 8.46582E-26
9.04240E-02 7.81829E-26
9.29422E-02 7.22331E-26
9.54915E-02 6.67624E-26
9.80716E-02 6.17291E-26
1.00682E-01 5.70954E-26
1.03323E-01 5.28270E-26
1.05995E-01 4.88930E-26
1.08696E-01 4.52653E-26
1.11427E-01 4.19182E-26
1.14188E-01 3.88287E-26
1.16978E-01 3.59756E-26
1.19797E-01 3.33396E-26
1.22645E-01 3.09032E-26
1.25522E-01 2.86504E-26
1.28428E-01 2.65666E-26
1.31361E-01 2.46384E-26
1.34323E-01 2.28536E-26
1.37313E-01 2.12011E-26
1.40330E-01 1.96704E-26
1.43375E-01 1.82524E-26
1.46447E-01 1.69382E-26
1.49545E-01 1.57201E-26
1.52671E-01 1.45907E-26
1.55823E-01 1.35433E-26
1.59001E-01 1.25718E-26
1.62205E-01 1.16706E-26
1.65435E-01 1.08343E-26
1.68690E-01 1.00581E-26
1.71970E-01 9.33773E-27
1.75276E-01 8.66898E-27
1.78606E-01 8.04810E-27
1.81961E-01 7.47160E-27
1.85340E-01 6.93625E-27
1.88743E-01 6.43907E-27
1.92169E-01 5.97730E-27
1.95619E-01 5.54841E-27
1.99092E-01 5.15002E-27
2.02589E-01 4.77995E-27
2.06107E-01 4.43618E-27
2.09649E-01 4.11684E-27
2.13212E-01 3.82018E-27
2.16797E-01 3.54460E-27
2.20404E-01 3.28860E-27
2.24032E-01 3.05080E-27
2.27680E-01 2.82990E-27
2.31350E-01 2.62472E-27
2.35040E-01 2.43415E-27
2.38751E-01 2.25716E-27
2.42481E-01 2.09279E-27
2.46231E-01 1.94016E-27
2.50000E-01 1.79843E-27
2.53788E-01 1.66685E-27
2.57595E-01 1.54470E-27
2.61421E-01 1.43132E-27
2.65264E-01 1.32608E-27
2.69126E-01 1.22843E-27
2.73005E-01 1.13782E-27
2.76901E-01 1.05376E-27
2.80814E-01 9.75783E-28
2.84744E-01 9.03469E-28
2.88691E-01 8.36415E-28
2.92653E-01 7.74250E-28
2.96632E-01 7.16628E-28
3.00625E-01 6.63227E-28
3.04634E-01 6.13748E-28
3.08658E-01 5.67914E-28
3.12697E-01 5.25464E-28
3.16749E-01 4.86157E-28
3.20816E-01 4.49769E-28
3.24896E-01 4.16092E-28
3.28990E-01 3.84930E-28
3.33097E-01 3.56104E-28
3.37216E-01 3.29444E-28
3.41348E-01 3.04795E-28
3.45492E-01 2.82010E-28
3.49647E-01 2.60955E-28
3.53814E-01 2.41502E-28
3.57992E-01 2.23536E-28
3.62181E-01 2.06947E-28
3.66381E-01 1.91634E-28
3.70590E-01 1.77503E-28
3.74810E-01 1.64465E-28
3.79039E-01 1.52440E-28
3.83277E-01 1.41353E-28
3.87524E-01 1.31132E-28
3.91780E-01 1.21713E-28
3.96044E-01 1.13035E-28
4.00316E-01 1.05041E-28
4.04596E-01 9.76808E-29
4.08882E-01 9.09043E-29
4.13176E-01 8.46670E-29
4.17476E-01 7.89272E-29
4.21783E-01 7.36463E-29
4.26095E-01 6.87884E-29
4.30413E-01 6.43203E-29
4.34737E-01 6.02112E-29
4.39065E-01 5.64327E-29
4.43398E-01 5.29584E-29
4.47736E-01 4.97638E-29
4.52077E-01 4.68264E-29
4.56422E-01 4.41253E-29
4.60770E-01 4.16413E-29
4.65122E-01 3.93564E-29
4.69476E-01 3.72542E-29
4.73832E-01 3.53196E-29
4.78190E-01 3.35384E-29
4.82550E-01 3.18978E-29
4.86912E-01 3.03859E-29
4.91274E-01 2.89916E-29
4.95637E-01 2.77049E-29
5.00000E-01 2.65165E-29
5.04363E-01 2.54177E-29
5.08726E-01 2.44009E-29
5.13088E-01 2.34586E-29
5.17450E-01 2.25844E-29
5.21810E-01 2.17720E-29
5.26168E-01 2.10161E-29
5.30524E-01 2.03114E-29
5.34878E-01 1.96534E-29
5.39230E-01 1.90377E-29
5.43578E-01 1.84604E-29
5.47923E-01 1.79181E-29
5.52264E-01 1.74074E-29
5.56602E-01 1.69255E-29
5.60935E-01 1.64695E-29
5.65263E-01 1.60372E-29
5.69587E-01 1.56263E-29
5.73905E-01 1.52347E-29
5.78217E-01 1.48607E-29
5.82524E-01 1.45026E-29
5.86824E-01 1.41590E-29
5.91118E-01 1.38284E-29
5.95404E-01 1.35098E-29
5.99684E-01 1.32020E-29
6.03956E-01 1.29040E-29
6.08220E-01 1.26150E-29
6.12476E-01 1.23342E-29
6.16723E-01 1.20610E-29
6.20961E-01 1.17946E-29
6.25190E-01 1.15346E-29
6.29410E-01 1.12805E-29
6.33619E-01 1.10318E-29
6.37819E-01 1.07882E-29
6.42008E-01 1.05494E-29
6.46186E-01 1.03150E-29
6.50353E-01 1.00848E-29
6.54508E-01 9.85862E-30
6.58652E-01 9.63623E-30
6.62784E-01 9.41748E-30
6.66903E-01 9.20225E-30
6.71010E-01 8.99040E-30
6.75104E-01 8.78185E-30
6.79184E-01 8.57651E-30
6.83251E-01 8.37431E-30
6.87303E-01 8.17520E-30
6.91342E-01 7.97913E-30
6.95366E-01 7.78606E-30
6.99375E-01 7.59598E-30
7.03368E-01 7.40885E-30
7.07347E-01 7.22465E-30
7.11309E-01 7.04338E-30
7.15256E-01 6.86503E-30
7.19186E-01 6.68958E-30
7.23099E-01 6.51704E-30
7.26995E-01 6.34740E-30
7.30874E-01 6.18066E-30
7.34736E-01 6.01681E-30
7.38579E-01 5.85587E-30
7.42405E-01 5.69781E-30
7.46212E-01 5.54265E-30
7.50000E-01 5.39037E-30
7.53769E-01 5.24098E-30
7.57519E-01 5.09446E-30
7.61249E-01 4.95081E-30
7.64960E-01 4.81002E-30
7.68650E-01 4.67208E-30
7.72320E-01 4.53698E-30
7.75968E-01 4.40470E-30
7.79596E-01 4.27522E-30
7.83203E-01 4.14854E-30
7.86788E-01 4.02463E-30
7.90351E-01 3.90347E-30
7.93893E-01 3.78504E-30
7.97411E-01 3.66931E-30
8.00908E-01 3.55627E-30
8.04381E-01 3.44587E-30
8.07831E-01 3.33810E-30
8.11257E-01 3.23293E-30
8.14660E-01 3.13032E-30
8.18039E-01 3.03024E-30
8.21394E-01 2.93266E-30
8.24724E-01 2.83754E-30
8.28030E-01 2.74485E-30
8.31310E-01 2.65456E-30
8.34565E-01 2.56662E-30
8.37795E-01 2.48100E-30
8.40999E-01 2.39766E-30
8.44177E-01 2.31657E-30
8.47329E-01 2.23767E-30
8.50455E-01 2.16095E-30
8.53553E-01 2.08634E-30
8.56625E-01 2.01382E-30
8.59670E-01 1.94334E-30
8.62687E-01 1.87486E-30
8.65677E-01 1.80834E-30
8.68639E-01 1.74375E-30
8.71572E-01 1.68104E-30
8.74478E-01 1.62016E-30
8.77355E-01 1.56109E-30
8.80203E-01 1.50377E-30
8.83022E-01 1.44818E-30
8.85812E-01 1.39426E-30
8.88573E-01 1.34199E-30
8.91304E-01 1.29131E-30
8.94005E-01 1.24220E-30
8.96677E-01 1.19462E-30
8.99318E-01 1.14852E-30
9.01928E-01 1.10386E-30
9.04508E-01 1.06063E-30
9.07058E-01 1.01876E-30
9.09576E-01 9.78242E-31
9.12063E-01 9.39025E-31
9.14519E-01 9.01079E-31
9.16943E-01 8.64370E-31
9.19335E-01 8.28863E-31
9.21696E-01 7.94527E-31
9.24024E-01 7.61329E-31
9.26320E-01 7.29237E-31
9.28584E-01 6.98221E-31
9.30815E-01 6.68250E-31
9.33013E-01 6.39295E-31
9.35178E-01 6.11326E-31
9.37310E-01 5.84315E-31
9.39409E-01 5.58235E-31
9.41474E-01 5.33059E-31
9.43505E-01 5.08760E-31
9.45503E-01 4.85312E-31
9.47467E-01 4.62691E-31
9.49397E-01 4.40871E-31
9.51293E-01 4.19830E-31
9.53154E-01 3.99544E-31
9.54981E-01 3.79991E-31
9.56773E-01 3.61148E-31
9.58530E-01 3.42995E-31
9.60252E-01 3.25511E-31
9.61940E-01 3.08675E-31
9.63592E-01 2.92469E-31
9.65209E-01 2.76873E-31
9.66790E-01 2.61869E-31
9.68336E-01 2.47440E-31
9.69846E-01 2.33568E-31
9.71321E-01 2.20238E-31
9.72759E-01 2.07432E-31
9.74162E-01 1.95135E-31
9.75528E-01 1.83333E-31
9.76858E-01 1.72011E-31
9.78152E-01 1.61154E-31
9.79410E-01 1.50751E-31
9.80631E-01 1.40787E-31
9.81815E-01 1.31251E-31
9.82963E-01 1.22130E-31
9.84074E-01 1.13414E-31
9.85148E-01 1.05090E-31
9.86185E-01 9.71485E-32
9.87185E-01 8.95796E-32
9.88148E-01 8.23734E-32
9.89074E-01 7.55206E-32
9.89962E-01 6.90126E-32
9.90814E-01 6.28409E-32
9.91627E-01 5.69976E-32
9.92404E-01 5.14750E-32
9.93143E-01 4.62660E-32
9.93844E-01 4.13639E-32
9.94508E-01 3.67622E-32
9.95134E-01 3.24550E-32
9.95722E-01 2.84365E-32
9.96273E-01 2.47015E-32
9.96786E-01 2.12451E-32
9.97261E-01 1.80628E-32
9.97698E-01 1.51504E-32
9.98097E-01 1.25039E-32
9.98459E-01 1.01200E-32
9.98782E-01 7.99538E-33
9.99067E-01 6.12732E-33
9.99315E-01 4.51333E-33
9.99524E-01 3.15126E-33
9.99695E-01 2.03930E-33
9.99829E-01 1.17597E-33
9.99924E-01 5.60118E-34
9.99981E-01 1.90940E-34
1.00000E+00 6.79416E-35
