 #
 # Subroutine ELSEPA. Elastic scattering of electrons and positrons
 #                    by neutral atoms and positive ions
 #
 # Projectile: electron
 # Kinetic energy = 3.50000E+08 eV = 1.28623E+07 a.u.
 #
 # WARNING: High-energy factorization with free-atom DF screening.
 #          Absorption, polarization and exchange corrections are
 #          switched off.
 #          Phase shifts are calculated for the bare nucleus.
 #          Scattering amplitudes are not evaluated.
 #
 # Element: Cd,  Z =  48,  atomic weight = 1.12411E+02 g/mol
 #
 # Nuclear model: Fermi distribution
 #                Average radius = 5.16401E-13 cm
 #                Skin thickness = 5.46000E-14 cm
 #
 # Number of electrons = 48
 #
 # Total elastic cross section = 4.49560E-18 cm**2 = 1.60541E-01 a0**2
 # 1st transport cross section = 3.70756E-26 cm**2 = 1.32399E-09 a0**2
 # 2nd transport cross section = 1.11138E-25 cm**2 = 3.96880E-09 a0**2
 #
 #
 # Differential cross section:                       MU=(1-COS(THETA))/2
 #
 #  THETA        MU          DCS          DCS        Sherman      error
 #  (deg)                 (cm**2/sr)   (a0**2/sr)    function
 #----------------------------------------------------------------------
0.00000E+00 3.88174E-09
7.61557E-13 3.77983E-09
1.18994E-12 3.72463E-09
1.71346E-12 3.65913E-09
2.33225E-12 3.58399E-09
3.04617E-12 3.50125E-09
3.85530E-12 3.41121E-09
4.75964E-12 3.31546E-09
5.75917E-12 3.21582E-09
6.85391E-12 3.11185E-09
8.04379E-12 3.00612E-09
9.32893E-12 2.89957E-09
1.07092E-11 2.79173E-09
1.21847E-11 2.68510E-09
1.37554E-11 2.57960E-09
1.54213E-11 2.47539E-09
1.71823E-11 2.37417E-09
1.90386E-11 2.27511E-09
2.09900E-11 2.17903E-09
2.30367E-11 2.08677E-09
2.51785E-11 1.99704E-09
2.74156E-11 1.91115E-09
2.97478E-11 1.82915E-09
3.21752E-11 1.74986E-09
3.46979E-11 1.67455E-09
3.73157E-11 1.60269E-09
4.00286E-11 1.53374E-09
4.28368E-11 1.46844E-09
4.57402E-11 1.40603E-09
4.87388E-11 1.34649E-09
5.18325E-11 1.29018E-09
5.50215E-11 1.23616E-09
5.83057E-11 1.18488E-09
6.16850E-11 1.13636E-09
6.51595E-11 1.08964E-09
6.87293E-11 1.04544E-09
7.23943E-11 1.00342E-09
7.61544E-11 9.63089E-10
1.18991E-10 6.49908E-10
1.71347E-10 4.48363E-10
2.33223E-10 3.09928E-10
3.04617E-10 2.23513E-10
3.85531E-10 1.61336E-10
4.75965E-10 1.18906E-10
5.75917E-10 8.95050E-11
6.85389E-10 6.79981E-11
8.04380E-10 5.27698E-11
9.32891E-10 4.16463E-11
1.07092E-09 3.33196E-11
1.21847E-09 2.70832E-11
1.37554E-09 2.22966E-11
1.54213E-09 1.85577E-11
1.71823E-09 1.56179E-11
1.90386E-09 1.32513E-11
2.09900E-09 1.13291E-11
2.30367E-09 9.76006E-12
2.51785E-09 8.44541E-12
2.74156E-09 7.34944E-12
2.97478E-09 6.42889E-12
3.21752E-09 5.63809E-12
3.46978E-09 4.96717E-12
3.73156E-09 4.39078E-12
4.00286E-09 3.89076E-12
4.28368E-09 3.46033E-12
4.57402E-09 3.08516E-12
4.87388E-09 2.75702E-12
5.18326E-09 2.47100E-12
5.50215E-09 2.21898E-12
5.83057E-09 1.99801E-12
6.16850E-09 1.80384E-12
6.51596E-09 1.63150E-12
6.87293E-09 1.47941E-12
7.23942E-09 1.34449E-12
7.61544E-09 1.22419E-12
1.18991E-08 5.31921E-13
1.71347E-08 2.68471E-13
2.33223E-08 1.50320E-13
3.04617E-08 9.06982E-14
3.85531E-08 5.78768E-14
4.75965E-08 3.86112E-14
5.75917E-08 2.66957E-14
6.85389E-08 1.90314E-14
8.04380E-08 1.39218E-14
9.32891E-08 1.04146E-14
1.07092E-07 7.94466E-15
1.21847E-07 6.16470E-15
1.37554E-07 4.85677E-15
1.54213E-07 3.87812E-15
1.71823E-07 3.13422E-15
1.90386E-07 2.56064E-15
2.09900E-07 2.11254E-15
2.30367E-07 1.75845E-15
2.51785E-07 1.47558E-15
2.74156E-07 1.24742E-15
2.97478E-07 1.06174E-15
3.21752E-07 9.09371E-16
3.46978E-07 7.83401E-16
3.73156E-07 6.78509E-16
4.00286E-07 5.90604E-16
4.28368E-07 5.16489E-16
4.57402E-07 4.53639E-16
4.87388E-07 4.00068E-16
5.18325E-07 3.54172E-16
5.50215E-07 3.14671E-16
5.83057E-07 2.80526E-16
6.16850E-07 2.50885E-16
6.51596E-07 2.25057E-16
6.87293E-07 2.02467E-16
7.23942E-07 1.82639E-16
7.61543E-07 1.65180E-16
1.18991E-06 6.80481E-17
1.71347E-06 3.29257E-17
2.33223E-06 1.78092E-17
3.04617E-06 1.04539E-17
3.85531E-06 6.53269E-18
4.75964E-06 4.28924E-18
5.75916E-06 2.93129E-18
6.85388E-06 2.07066E-18
8.04378E-06 1.50395E-18
9.32888E-06 1.11852E-18
1.07092E-05 8.49034E-19
1.21846E-05 6.56042E-19
1.37553E-05 5.14907E-19
1.54212E-05 4.09770E-19
1.71822E-05 3.30153E-19
1.90385E-05 2.68905E-19
2.09899E-05 2.21345E-19
2.30365E-05 1.83839E-19
2.51783E-05 1.53931E-19
2.74153E-05 1.29850E-19
2.97475E-05 1.10292E-19
3.21749E-05 9.42813E-20
3.46974E-05 8.10781E-20
3.73152E-05 7.01138E-20
4.00281E-05 6.09464E-20
4.28362E-05 5.32323E-20
4.57395E-05 4.67012E-20
4.87380E-05 4.11410E-20
5.18317E-05 3.63827E-20
5.50205E-05 3.22921E-20
5.83045E-05 2.87602E-20
6.16838E-05 2.56987E-20
6.51582E-05 2.30346E-20
6.87277E-05 2.07079E-20
7.23925E-05 1.86681E-20
7.61524E-05 1.69200E-20
9.21439E-05 1.15654E-20
1.09658E-04 8.17092E-21
1.28695E-04 5.93574E-21
1.49255E-04 4.41472E-21
1.71338E-04 3.35109E-21
1.94942E-04 2.58902E-21
2.20070E-04 2.03156E-21
2.46720E-04 1.61618E-21
2.74892E-04 1.30152E-21
3.04586E-04 1.05969E-21
3.35803E-04 8.71329E-22
3.68542E-04 7.22886E-22
4.02802E-04 6.04621E-22
4.38585E-04 5.09467E-22
4.75889E-04 4.32217E-22
5.14715E-04 3.68977E-22
5.55063E-04 3.16813E-22
5.96931E-04 2.73476E-22
6.40321E-04 2.37238E-22
6.85233E-04 2.06751E-22
7.31665E-04 1.80955E-22
7.79618E-04 1.59013E-22
8.29092E-04 1.40255E-22
8.80086E-04 1.24146E-22
9.32601E-04 1.10250E-22
9.86636E-04 9.82133E-23
1.04219E-03 8.77471E-23
1.09927E-03 7.86126E-23
1.15786E-03 7.06130E-23
1.21797E-03 6.35839E-23
1.27961E-03 5.73884E-23
1.34276E-03 5.19114E-23
1.40743E-03 4.70560E-23
1.47362E-03 4.27401E-23
1.54133E-03 3.88938E-23
1.61056E-03 3.54579E-23
1.68131E-03 3.23813E-23
1.75357E-03 2.96204E-23
1.82735E-03 2.71375E-23
1.90265E-03 2.49000E-23
1.97947E-03 2.28799E-23
2.05780E-03 2.10525E-23
2.13765E-03 1.93966E-23
2.21902E-03 1.78934E-23
2.30190E-03 1.65267E-23
2.38630E-03 1.52820E-23
2.47222E-03 1.41468E-23
2.55965E-03 1.31099E-23
2.64859E-03 1.21614E-23
2.73905E-03 1.12927E-23
2.83103E-03 1.04960E-23
2.92452E-03 9.76432E-24
3.01952E-03 9.09165E-24
3.11604E-03 8.47247E-24
3.21407E-03 7.90187E-24
3.31362E-03 7.37547E-24
3.41468E-03 6.88933E-24
3.51725E-03 6.43991E-24
3.62133E-03 6.02403E-24
3.72692E-03 5.63882E-24
3.83403E-03 5.28168E-24
3.94265E-03 4.95028E-24
4.05278E-03 4.64249E-24
4.16442E-03 4.35639E-24
4.27757E-03 4.09024E-24
4.39223E-03 3.84245E-24
4.50840E-03 3.61158E-24
4.62608E-03 3.39631E-24
4.74527E-03 3.19545E-24
4.86597E-03 3.00790E-24
4.98817E-03 2.83266E-24
5.11188E-03 2.66881E-24
5.23711E-03 2.51553E-24
5.36383E-03 2.37203E-24
5.49207E-03 2.23762E-24
5.62181E-03 2.11164E-24
5.75306E-03 1.99351E-24
5.88581E-03 1.88266E-24
6.02007E-03 1.77860E-24
6.15583E-03 1.68087E-24
6.29310E-03 1.58902E-24
6.43187E-03 1.50267E-24
6.57214E-03 1.42144E-24
6.71392E-03 1.34501E-24
6.85720E-03 1.27304E-24
7.00198E-03 1.20526E-24
7.14827E-03 1.14139E-24
7.29605E-03 1.08118E-24
7.44534E-03 1.02441E-24
7.59612E-03 9.70843E-25
7.97965E-03 8.49711E-25
8.37255E-03 7.44672E-25
8.77480E-03 6.53400E-25
9.18641E-03 5.73939E-25
9.60736E-03 5.04638E-25
1.00376E-02 4.44097E-25
1.04773E-02 3.91129E-25
1.09262E-02 3.44721E-25
1.13844E-02 3.04008E-25
1.18520E-02 2.68249E-25
1.23288E-02 2.36806E-25
1.28150E-02 2.09131E-25
1.33104E-02 1.84750E-25
1.38150E-02 1.63254E-25
1.43290E-02 1.44286E-25
1.48521E-02 1.27540E-25
1.53845E-02 1.12745E-25
1.59262E-02 9.96679E-26
1.64770E-02 8.81043E-26
1.70371E-02 7.78751E-26
1.76063E-02 6.88238E-26
1.81848E-02 6.08127E-26
1.87724E-02 5.37212E-26
1.93692E-02 4.74430E-26
1.99751E-02 4.18846E-26
2.05901E-02 3.69636E-26
2.12143E-02 3.26071E-26
2.18476E-02 2.87511E-26
2.24900E-02 2.53385E-26
2.31415E-02 2.23193E-26
2.38021E-02 1.96488E-26
2.44717E-02 1.72877E-26
2.51504E-02 1.52010E-26
2.58382E-02 1.33576E-26
2.65349E-02 1.17301E-26
2.72407E-02 1.02941E-26
2.79555E-02 9.02772E-27
2.86793E-02 7.91185E-27
2.94120E-02 6.92929E-27
3.01537E-02 6.06483E-27
3.09043E-02 5.30494E-27
3.16639E-02 4.63758E-27
3.24324E-02 4.05206E-27
3.32098E-02 3.53888E-27
3.39961E-02 3.08958E-27
3.47912E-02 2.69668E-27
3.55952E-02 2.35349E-27
3.64081E-02 2.05411E-27
3.72297E-02 1.79327E-27
3.80602E-02 1.56632E-27
3.88995E-02 1.36913E-27
3.97476E-02 1.19803E-27
4.06044E-02 1.04978E-27
4.14700E-02 9.21504E-28
4.23443E-02 8.10678E-28
4.32273E-02 7.15056E-28
4.41190E-02 6.32662E-28
4.50194E-02 5.61754E-28
4.59284E-02 5.00800E-28
4.68461E-02 4.48451E-28
4.87074E-02 3.64989E-28
5.06030E-02 3.03564E-28
5.25328E-02 2.58231E-28
5.44967E-02 2.24493E-28
5.64946E-02 1.98987E-28
5.85262E-02 1.79226E-28
6.05914E-02 1.63400E-28
6.26901E-02 1.50214E-28
6.48222E-02 1.38763E-28
6.69873E-02 1.28434E-28
6.91854E-02 1.18828E-28
7.14163E-02 1.09702E-28
7.36799E-02 1.00922E-28
7.59760E-02 9.24262E-29
7.83043E-02 8.42043E-29
8.06647E-02 7.62735E-29
8.30571E-02 6.86668E-29
8.54812E-02 6.14226E-29
8.79369E-02 5.45782E-29
9.04240E-02 4.81659E-29
9.29422E-02 4.22099E-29
9.54915E-02 3.67260E-29
9.80716E-02 3.17207E-29
1.00682E-01 2.71921E-29
1.03323E-01 2.31308E-29
1.05995E-01 1.95204E-29
1.08696E-01 1.63393E-29
1.11427E-01 1.35618E-29
1.14188E-01 1.11592E-29
1.16978E-01 9.10055E-30
1.19797E-01 7.35428E-30
1.22645E-01 5.88851E-30
1.25522E-01 4.67193E-30
1.28428E-01 3.67435E-30
1.31361E-01 2.86713E-30
1.34323E-01 2.22352E-30
1.37313E-01 1.71885E-30
1.40330E-01 1.33068E-30
1.43375E-01 1.03886E-30
1.46447E-01 8.25497E-31
1.49545E-01 6.74920E-31
1.52671E-01 5.73565E-31
1.55823E-01 5.09850E-31
1.59001E-01 4.74024E-31
1.62205E-01 4.58004E-31
1.65435E-01 4.55205E-31
1.68690E-01 4.60371E-31
1.71970E-01 4.69406E-31
1.75276E-01 4.79214E-31
1.78606E-01 4.87550E-31
1.81961E-01 4.92879E-31
1.85340E-01 4.94248E-31
1.88743E-01 4.91171E-31
1.92169E-01 4.83533E-31
1.95619E-01 4.71492E-31
1.99092E-01 4.55413E-31
2.02589E-01 4.35797E-31
2.06107E-01 4.13231E-31
2.09649E-01 3.88340E-31
2.13212E-01 3.61760E-31
2.16797E-01 3.34104E-31
2.20404E-01 3.05945E-31
2.24032E-01 2.77804E-31
2.27680E-01 2.50138E-31
2.31350E-01 2.23337E-31
2.35040E-01 1.97721E-31
2.38751E-01 1.73544E-31
2.42481E-01 1.50995E-31
2.46231E-01 1.30202E-31
2.50000E-01 1.11242E-31
2.53788E-01 9.41404E-32
2.57595E-01 7.88856E-32
2.61421E-01 6.54294E-32
2.65264E-01 5.36963E-32
2.69126E-01 4.35891E-32
2.73005E-01 3.49946E-32
2.76901E-01 2.77885E-32
2.80814E-01 2.18401E-32
2.84744E-01 1.70162E-32
2.88691E-01 1.31845E-32
2.92653E-01 1.02160E-32
2.96632E-01 7.98765E-33
3.00625E-01 6.38372E-33
3.04634E-01 5.29713E-33
3.08658E-01 4.63022E-33
3.12697E-01 4.29523E-33
3.16749E-01 4.21443E-33
3.20816E-01 4.32000E-33
3.24896E-01 4.55374E-33
3.28990E-01 4.86657E-33
3.33097E-01 5.21794E-33
3.37216E-01 5.57514E-33
3.41348E-01 5.91254E-33
3.45492E-01 6.21084E-33
3.49647E-01 6.45631E-33
3.53814E-01 6.63997E-33
3.57992E-01 6.75695E-33
3.62181E-01 6.80571E-33
3.66381E-01 6.78748E-33
3.70590E-01 6.70562E-33
3.74810E-01 6.56512E-33
3.79039E-01 6.37213E-33
3.83277E-01 6.13357E-33
3.87524E-01 5.85678E-33
3.91780E-01 5.54920E-33
3.96044E-01 5.21818E-33
4.00316E-01 4.87077E-33
4.04596E-01 4.51357E-33
4.08882E-01 4.15262E-33
4.13176E-01 3.79334E-33
4.17476E-01 3.44048E-33
4.21783E-01 3.09813E-33
4.26095E-01 2.76966E-33
4.30413E-01 2.45780E-33
4.34737E-01 2.16464E-33
4.39065E-01 1.89172E-33
4.43398E-01 1.63999E-33
4.47736E-01 1.40996E-33
4.52077E-01 1.20170E-33
4.56422E-01 1.01494E-33
4.60770E-01 8.49066E-34
4.65122E-01 7.03239E-34
4.69476E-01 5.76408E-34
4.73832E-01 4.67375E-34
4.78190E-01 3.74829E-34
4.82550E-01 2.97395E-34
4.86912E-01 2.33660E-34
4.91274E-01 1.82208E-34
4.95637E-01 1.41646E-34
5.00000E-01 1.10622E-34
5.04363E-01 8.78459E-35
5.08726E-01 7.20994E-35
5.13088E-01 6.22481E-35
5.17450E-01 5.72476E-35
5.21810E-01 5.61477E-35
5.26168E-01 5.80938E-35
5.30524E-01 6.23267E-35
5.34878E-01 6.81808E-35
5.39230E-01 7.50798E-35
5.43578E-01 8.25333E-35
5.47923E-01 9.01304E-35
5.52264E-01 9.75346E-35
5.56602E-01 1.04477E-34
5.60935E-01 1.10748E-34
5.65263E-01 1.16197E-34
5.69587E-01 1.20716E-34
5.73905E-01 1.24242E-34
5.78217E-01 1.26747E-34
5.82524E-01 1.28232E-34
5.86824E-01 1.28725E-34
5.91118E-01 1.28272E-34
5.95404E-01 1.26935E-34
5.99684E-01 1.24787E-34
6.03956E-01 1.21910E-34
6.08220E-01 1.18391E-34
6.12476E-01 1.14318E-34
6.16723E-01 1.09781E-34
6.20961E-01 1.04867E-34
6.25190E-01 9.96601E-35
6.29410E-01 9.42403E-35
6.33619E-01 8.86820E-35
6.37819E-01 8.30538E-35
6.42008E-01 7.74177E-35
6.46186E-01 7.18295E-35
6.50353E-01 6.63378E-35
6.54508E-01 6.09848E-35
6.58652E-01 5.58063E-35
6.62784E-01 5.08318E-35
6.66903E-01 4.60849E-35
6.71010E-01 4.15839E-35
6.75104E-01 3.73420E-35
6.79184E-01 3.33678E-35
6.83251E-01 2.96658E-35
6.87303E-01 2.62369E-35
6.91342E-01 2.30789E-35
6.95366E-01 2.01866E-35
6.99375E-01 1.75528E-35
7.03368E-01 1.51681E-35
7.07347E-01 1.30218E-35
7.11309E-01 1.11019E-35
7.15256E-01 9.39546E-36
7.19186E-01 7.88904E-36
7.23099E-01 6.56876E-36
7.26995E-01 5.42065E-36
7.30874E-01 4.43077E-36
7.34736E-01 3.58540E-36
7.38579E-01 2.87118E-36
7.42405E-01 2.27520E-36
7.46212E-01 1.78513E-36
7.50000E-01 1.38922E-36
7.53769E-01 1.07643E-36
7.57519E-01 8.36409E-37
7.61249E-01 6.59550E-37
7.64960E-01 5.36973E-37
7.68650E-01 4.60533E-37
7.72320E-01 4.22815E-37
7.75968E-01 4.17098E-37
7.79596E-01 4.37353E-37
7.83203E-01 4.78187E-37
7.86788E-01 5.34836E-37
7.90351E-01 6.03099E-37
7.93893E-01 6.79332E-37
7.97411E-01 7.60380E-37
8.00908E-01 8.43558E-37
8.04381E-01 9.26601E-37
8.07831E-01 1.00763E-36
8.11257E-01 1.08511E-36
8.14660E-01 1.15781E-36
8.18039E-01 1.22480E-36
8.21394E-01 1.28537E-36
8.24724E-01 1.33904E-36
8.28030E-01 1.38549E-36
8.31310E-01 1.42459E-36
8.34565E-01 1.45634E-36
8.37795E-01 1.48083E-36
8.40999E-01 1.49827E-36
8.44177E-01 1.50892E-36
8.47329E-01 1.51314E-36
8.50455E-01 1.51129E-36
8.53553E-01 1.50378E-36
8.56625E-01 1.49107E-36
8.59670E-01 1.47358E-36
8.62687E-01 1.45178E-36
8.65677E-01 1.42612E-36
8.68639E-01 1.39705E-36
8.71572E-01 1.36499E-36
8.74478E-01 1.33036E-36
8.77355E-01 1.29356E-36
8.80203E-01 1.25496E-36
8.83022E-01 1.21493E-36
8.85812E-01 1.17379E-36
8.88573E-01 1.13185E-36
8.91304E-01 1.08938E-36
8.94005E-01 1.04666E-36
8.96677E-01 1.00391E-36
8.99318E-01 9.61339E-37
9.01928E-01 9.19134E-37
9.04508E-01 8.77471E-37
9.07058E-01 8.36490E-37
9.09576E-01 7.96316E-37
9.12063E-01 7.57057E-37
9.14519E-01 7.18810E-37
9.16943E-01 6.81643E-37
9.19335E-01 6.45619E-37
9.21696E-01 6.10789E-37
9.24024E-01 5.77179E-37
9.26320E-01 5.44825E-37
9.28584E-01 5.13735E-37
9.30815E-01 4.83917E-37
9.33013E-01 4.55368E-37
9.35178E-01 4.28080E-37
9.37310E-01 4.02039E-37
9.39409E-01 3.77224E-37
9.41474E-01 3.53610E-37
9.43505E-01 3.31171E-37
9.45503E-01 3.09875E-37
9.47467E-01 2.89691E-37
9.49397E-01 2.70581E-37
9.51293E-01 2.52511E-37
9.53154E-01 2.35441E-37
9.54981E-01 2.19335E-37
9.56773E-01 2.04152E-37
9.58530E-01 1.89855E-37
9.60252E-01 1.76403E-37
9.61940E-01 1.63761E-37
9.63592E-01 1.51889E-37
9.65209E-01 1.40749E-37
9.66790E-01 1.30306E-37
9.68336E-01 1.20523E-37
9.69846E-01 1.11369E-37
9.71321E-01 1.02806E-37
9.72759E-01 9.48042E-38
9.74162E-01 8.73316E-38
9.75528E-01 8.03588E-38
9.76858E-01 7.38556E-38
9.78152E-01 6.77955E-38
9.79410E-01 6.21525E-38
9.80631E-01 5.69007E-38
9.81815E-01 5.20165E-38
9.82963E-01 4.74761E-38
9.84074E-01 4.32601E-38
9.85148E-01 3.93464E-38
9.86185E-01 3.57172E-38
9.87185E-01 3.23531E-38
9.88148E-01 2.92381E-38
9.89074E-01 2.63550E-38
9.89962E-01 2.36908E-38
9.90814E-01 2.12299E-38
9.91627E-01 1.89598E-38
9.92404E-01 1.68681E-38
9.93143E-01 1.49444E-38
9.93844E-01 1.31762E-38
9.94508E-01 1.15553E-38
9.95134E-01 1.00722E-38
9.95722E-01 8.71894E-39
9.96273E-01 7.48622E-39
9.96786E-01 6.36863E-39
9.97261E-01 5.35900E-39
9.97698E-01 4.45118E-39
9.98097E-01 3.64010E-39
9.98459E-01 2.92007E-39
9.98782E-01 2.28804E-39
9.99067E-01 1.73885E-39
9.99315E-01 1.27029E-39
9.99524E-01 8.78129E-40
9.99695E-01 5.60810E-40
9.99829E-01 3.16133E-40
9.99924E-01 1.42785E-40
9.99981E-01 3.85611E-41
1.00000E+00 2.72724E-42
