 #
 # Subroutine ELSEPA. Elastic scattering of electrons and positrons
 #                    by neutral atoms and positive ions
 #
 # Projectile: electron
 # Kinetic energy = 2.00000E+07 eV = 7.34987E+05 a.u.
 #
 # WARNING: High-energy factorization with free-atom DF screening.
 #          Absorption, polarization and exchange corrections are
 #          switched off.
 #          Phase shifts are calculated for the bare nucleus.
 #          Scattering amplitudes are not evaluated.
 #
 # Element: Cd,  Z =  48,  atomic weight = 1.12411E+02 g/mol
 #
 # Nuclear model: Fermi distribution
 #                Average radius = 5.16401E-13 cm
 #                Skin thickness = 5.46000E-14 cm
 #
 # Number of electrons = 48
 #
 # Total elastic cross section = 4.50045E-18 cm**2 = 1.60714E-01 a0**2
 # 1st transport cross section = 1.02849E-23 cm**2 = 3.67281E-07 a0**2
 # 2nd transport cross section = 2.93867E-23 cm**2 = 1.04942E-06 a0**2
 #
 #
 # Differential cross section:                       MU=(1-COS(THETA))/2
 #
 #  THETA        MU          DCS          DCS        Sherman      error
 #  (deg)                 (cm**2/sr)   (a0**2/sr)    function
 #----------------------------------------------------------------------
0.00000E+00 1.32922E-11
7.61557E-13 1.32909E-11
1.18994E-12 1.32902E-11
1.71346E-12 1.32894E-11
2.33225E-12 1.32884E-11
3.04617E-12 1.32873E-11
3.85530E-12 1.32860E-11
4.75964E-12 1.32845E-11
5.75917E-12 1.32829E-11
6.85391E-12 1.32811E-11
8.04379E-12 1.32792E-11
9.32893E-12 1.32772E-11
1.07092E-11 1.32749E-11
1.21847E-11 1.32726E-11
1.37554E-11 1.32701E-11
1.54213E-11 1.32674E-11
1.71823E-11 1.32646E-11
1.90386E-11 1.32616E-11
2.09900E-11 1.32585E-11
2.30367E-11 1.32552E-11
2.51785E-11 1.32518E-11
2.74156E-11 1.32482E-11
2.97478E-11 1.32445E-11
3.21752E-11 1.32406E-11
3.46979E-11 1.32366E-11
3.73157E-11 1.32324E-11
4.00286E-11 1.32281E-11
4.28368E-11 1.32236E-11
4.57402E-11 1.32190E-11
4.87388E-11 1.32143E-11
5.18325E-11 1.32093E-11
5.50215E-11 1.32043E-11
5.83057E-11 1.31991E-11
6.16850E-11 1.31937E-11
6.51595E-11 1.31882E-11
6.87293E-11 1.31826E-11
7.23943E-11 1.31768E-11
7.61544E-11 1.31708E-11
1.18991E-10 1.31035E-11
1.71347E-10 1.30221E-11
2.33223E-10 1.29270E-11
3.04617E-10 1.28189E-11
3.85531E-10 1.26983E-11
4.75965E-10 1.25659E-11
5.75917E-10 1.24220E-11
6.85389E-10 1.22675E-11
8.04380E-10 1.21048E-11
9.32891E-10 1.19323E-11
1.07092E-09 1.17521E-11
1.21847E-09 1.15666E-11
1.37554E-09 1.13719E-11
1.54213E-09 1.11737E-11
1.71823E-09 1.09715E-11
1.90386E-09 1.07633E-11
2.09900E-09 1.05545E-11
2.30367E-09 1.03420E-11
2.51785E-09 1.01276E-11
2.74156E-09 9.91492E-12
2.97478E-09 9.69805E-12
3.21752E-09 9.48349E-12
3.46978E-09 9.27060E-12
3.73156E-09 9.05623E-12
4.00286E-09 8.84619E-12
4.28368E-09 8.63686E-12
4.57402E-09 8.42956E-12
4.87388E-09 8.22754E-12
5.18326E-09 8.02507E-12
5.50215E-09 7.82761E-12
5.83057E-09 7.63466E-12
6.16850E-09 7.44270E-12
6.51596E-09 7.25686E-12
6.87293E-09 7.07392E-12
7.23942E-09 6.89442E-12
7.61544E-09 6.72111E-12
1.18991E-08 5.19557E-12
1.71347E-08 4.04069E-12
2.33223E-08 3.17400E-12
3.04617E-08 2.51742E-12
3.85531E-08 2.01319E-12
4.75965E-08 1.62155E-12
5.75917E-08 1.30575E-12
6.85389E-08 1.05419E-12
8.04380E-08 8.70778E-13
9.32891E-08 7.16753E-13
1.07092E-07 5.92101E-13
1.21847E-07 4.97204E-13
1.37554E-07 4.14117E-13
1.54213E-07 3.49024E-13
1.71823E-07 2.96595E-13
1.90386E-07 2.52159E-13
2.09900E-07 2.16519E-13
2.30367E-07 1.86733E-13
2.51785E-07 1.61861E-13
2.74156E-07 1.41387E-13
2.97478E-07 1.23854E-13
3.21752E-07 1.09170E-13
3.46978E-07 9.67461E-14
3.73156E-07 8.60173E-14
4.00286E-07 7.68890E-14
4.28368E-07 6.89680E-14
4.57402E-07 6.20793E-14
4.87388E-07 5.61268E-14
5.18325E-07 5.08329E-14
5.50215E-07 4.62050E-14
5.83057E-07 4.21296E-14
6.16850E-07 3.84622E-14
6.51596E-07 3.52309E-14
6.87293E-07 3.23232E-14
7.23942E-07 2.97042E-14
7.61543E-07 2.73751E-14
1.18991E-06 1.29453E-14
1.71347E-06 6.77773E-15
2.33223E-06 3.84724E-15
3.04617E-06 2.33711E-15
3.85531E-06 1.50292E-15
4.75964E-06 1.01258E-15
5.75916E-06 7.07690E-16
6.85388E-06 5.10182E-16
8.04378E-06 3.77156E-16
9.32888E-06 2.84754E-16
1.07092E-05 2.18938E-16
1.21846E-05 1.70981E-16
1.37553E-05 1.35411E-16
1.54212E-05 1.08589E-16
1.71822E-05 8.80636E-17
1.90385E-05 7.21315E-17
2.09899E-05 5.96651E-17
2.30365E-05 4.97684E-17
2.51783E-05 4.18313E-17
2.74153E-05 3.54082E-17
2.97475E-05 3.01684E-17
3.21749E-05 2.58624E-17
3.46974E-05 2.22990E-17
3.73152E-05 1.93305E-17
4.00281E-05 1.68415E-17
4.28362E-05 1.47414E-17
4.57395E-05 1.29590E-17
4.87380E-05 1.14380E-17
5.18317E-05 1.01336E-17
5.50205E-05 9.00986E-18
5.83045E-05 8.03779E-18
6.16838E-05 7.19361E-18
6.51582E-05 6.45773E-18
6.87277E-05 5.81390E-18
7.23925E-05 5.24859E-18
7.61524E-05 4.75079E-18
9.21439E-05 3.26311E-18
1.09658E-04 2.31514E-18
1.28695E-04 1.68810E-18
1.49255E-04 1.25972E-18
1.71338E-04 9.59122E-19
1.94942E-04 7.43079E-19
2.20070E-04 5.84608E-19
2.46720E-04 4.66239E-19
2.74892E-04 3.76373E-19
3.04586E-04 3.07168E-19
3.35803E-04 2.53167E-19
3.68542E-04 2.10537E-19
4.02802E-04 1.76520E-19
4.38585E-04 1.49108E-19
4.75889E-04 1.26822E-19
5.14715E-04 1.08552E-19
5.55063E-04 9.34608E-20
5.96931E-04 8.09064E-20
6.40321E-04 7.03936E-20
6.85233E-04 6.15368E-20
7.31665E-04 5.40320E-20
7.79618E-04 4.76394E-20
8.29092E-04 4.21662E-20
8.80086E-04 3.74586E-20
9.32601E-04 3.33912E-20
9.86636E-04 2.98624E-20
1.04219E-03 2.67887E-20
1.09927E-03 2.41014E-20
1.15786E-03 2.17436E-20
1.21797E-03 1.96679E-20
1.27961E-03 1.78347E-20
1.34276E-03 1.62108E-20
1.40743E-03 1.47682E-20
1.47362E-03 1.34829E-20
1.54133E-03 1.23349E-20
1.61056E-03 1.13070E-20
1.68131E-03 1.03842E-20
1.75357E-03 9.55402E-21
1.82735E-03 8.80546E-21
1.90265E-03 8.12905E-21
1.97947E-03 7.51658E-21
2.05780E-03 6.96095E-21
2.13765E-03 6.45592E-21
2.21902E-03 5.99605E-21
2.30190E-03 5.57657E-21
2.38630E-03 5.19329E-21
2.47222E-03 4.84252E-21
2.55965E-03 4.52100E-21
2.64859E-03 4.22584E-21
2.73905E-03 3.95449E-21
2.83103E-03 3.70468E-21
2.92452E-03 3.47437E-21
3.01952E-03 3.26177E-21
3.11604E-03 3.06527E-21
3.21407E-03 2.88342E-21
3.31362E-03 2.71492E-21
3.41468E-03 2.55861E-21
3.51725E-03 2.41345E-21
3.62133E-03 2.27850E-21
3.72692E-03 2.15290E-21
3.83403E-03 2.03588E-21
3.94265E-03 1.92675E-21
4.05278E-03 1.82488E-21
4.16442E-03 1.72969E-21
4.27757E-03 1.64066E-21
4.39223E-03 1.55732E-21
4.50840E-03 1.47924E-21
4.62608E-03 1.40602E-21
4.74527E-03 1.33730E-21
4.86597E-03 1.27275E-21
4.98817E-03 1.21208E-21
5.11188E-03 1.15500E-21
5.23711E-03 1.10127E-21
5.36383E-03 1.05064E-21
5.49207E-03 1.00291E-21
5.62181E-03 9.57878E-22
5.75306E-03 9.15361E-22
5.88581E-03 8.75193E-22
6.02007E-03 8.37219E-22
6.15583E-03 8.01298E-22
6.29310E-03 7.67297E-22
6.43187E-03 7.35092E-22
6.57214E-03 7.04571E-22
6.71392E-03 6.75630E-22
6.85720E-03 6.48169E-22
7.00198E-03 6.22100E-22
7.14827E-03 5.97338E-22
7.29605E-03 5.73806E-22
7.44534E-03 5.51430E-22
7.59612E-03 5.30142E-22
7.97965E-03 4.81281E-22
8.37255E-03 4.37960E-22
8.77480E-03 3.99442E-22
9.18641E-03 3.65099E-22
9.60736E-03 3.34396E-22
1.00376E-02 3.06879E-22
1.04773E-02 2.82157E-22
1.09262E-02 2.59896E-22
1.13844E-02 2.39804E-22
1.18520E-02 2.21633E-22
1.23288E-02 2.05166E-22
1.28150E-02 1.90213E-22
1.33104E-02 1.76609E-22
1.38150E-02 1.64210E-22
1.43290E-02 1.52890E-22
1.48521E-02 1.42538E-22
1.53845E-02 1.33054E-22
1.59262E-02 1.24354E-22
1.64770E-02 1.16360E-22
1.70371E-02 1.09003E-22
1.76063E-02 1.02224E-22
1.81848E-02 9.59694E-23
1.87724E-02 9.01897E-23
1.93692E-02 8.48429E-23
1.99751E-02 7.98903E-23
2.05901E-02 7.52969E-23
2.12143E-02 7.10321E-23
2.18476E-02 6.70681E-23
2.24900E-02 6.33791E-23
2.31415E-02 5.99426E-23
2.38021E-02 5.67385E-23
2.44717E-02 5.37472E-23
2.51504E-02 5.09525E-23
2.58382E-02 4.83389E-23
2.65349E-02 4.58920E-23
2.72407E-02 4.35997E-23
2.79555E-02 4.14500E-23
2.86793E-02 3.94323E-23
2.94120E-02 3.75371E-23
3.01537E-02 3.57555E-23
3.09043E-02 3.40792E-23
3.16639E-02 3.25010E-23
3.24324E-02 3.10139E-23
3.32098E-02 2.96115E-23
3.39961E-02 2.82883E-23
3.47912E-02 2.70389E-23
3.55952E-02 2.58582E-23
3.64081E-02 2.47418E-23
3.72297E-02 2.36856E-23
3.80602E-02 2.26856E-23
3.88995E-02 2.17382E-23
3.97476E-02 2.08402E-23
4.06044E-02 1.99885E-23
4.14700E-02 1.91802E-23
4.23443E-02 1.84126E-23
4.32273E-02 1.76834E-23
4.41190E-02 1.69902E-23
4.50194E-02 1.63308E-23
4.59284E-02 1.57034E-23
4.68461E-02 1.51060E-23
4.87074E-02 1.39946E-23
5.06030E-02 1.29842E-23
5.25328E-02 1.20639E-23
5.44967E-02 1.12242E-23
5.64946E-02 1.04567E-23
5.85262E-02 9.75398E-24
6.05914E-02 9.10959E-24
6.26901E-02 8.51776E-24
6.48222E-02 7.97341E-24
6.69873E-02 7.47199E-24
6.91854E-02 7.00949E-24
7.14163E-02 6.58232E-24
7.36799E-02 6.18725E-24
7.59760E-02 5.82143E-24
7.83043E-02 5.48228E-24
8.06647E-02 5.16747E-24
8.30571E-02 4.87494E-24
8.54812E-02 4.60280E-24
8.79369E-02 4.34937E-24
9.04240E-02 4.11311E-24
9.29422E-02 3.89264E-24
9.54915E-02 3.68670E-24
9.80716E-02 3.49415E-24
1.00682E-01 3.31395E-24
1.03323E-01 3.14516E-24
1.05995E-01 2.98693E-24
1.08696E-01 2.83846E-24
1.11427E-01 2.69904E-24
1.14188E-01 2.56800E-24
1.16978E-01 2.44476E-24
1.19797E-01 2.32876E-24
1.22645E-01 2.21949E-24
1.25522E-01 2.11648E-24
1.28428E-01 2.01932E-24
1.31361E-01 1.92760E-24
1.34323E-01 1.84096E-24
1.37313E-01 1.75907E-24
1.40330E-01 1.68162E-24
1.43375E-01 1.60832E-24
1.46447E-01 1.53891E-24
1.49545E-01 1.47314E-24
1.52671E-01 1.41078E-24
1.55823E-01 1.35163E-24
1.59001E-01 1.29549E-24
1.62205E-01 1.24217E-24
1.65435E-01 1.19151E-24
1.68690E-01 1.14335E-24
1.71970E-01 1.09755E-24
1.75276E-01 1.05396E-24
1.78606E-01 1.01246E-24
1.81961E-01 9.72933E-25
1.85340E-01 9.35265E-25
1.88743E-01 8.99353E-25
1.92169E-01 8.65099E-25
1.95619E-01 8.32414E-25
1.99092E-01 8.01212E-25
2.02589E-01 7.71413E-25
2.06107E-01 7.42942E-25
2.09649E-01 7.15730E-25
2.13212E-01 6.89710E-25
2.16797E-01 6.64821E-25
2.20404E-01 6.41005E-25
2.24032E-01 6.18206E-25
2.27680E-01 5.96374E-25
2.31350E-01 5.75460E-25
2.35040E-01 5.55418E-25
2.38751E-01 5.36206E-25
2.42481E-01 5.17783E-25
2.46231E-01 5.00110E-25
2.50000E-01 4.83152E-25
2.53788E-01 4.66874E-25
2.57595E-01 4.51245E-25
2.61421E-01 4.36234E-25
2.65264E-01 4.21812E-25
2.69126E-01 4.07951E-25
2.73005E-01 3.94627E-25
2.76901E-01 3.81814E-25
2.80814E-01 3.69490E-25
2.84744E-01 3.57633E-25
2.88691E-01 3.46222E-25
2.92653E-01 3.35236E-25
2.96632E-01 3.24659E-25
3.00625E-01 3.14471E-25
3.04634E-01 3.04656E-25
3.08658E-01 2.95198E-25
3.12697E-01 2.86082E-25
3.16749E-01 2.77292E-25
3.20816E-01 2.68817E-25
3.24896E-01 2.60642E-25
3.28990E-01 2.52754E-25
3.33097E-01 2.45143E-25
3.37216E-01 2.37797E-25
3.41348E-01 2.30704E-25
3.45492E-01 2.23855E-25
3.49647E-01 2.17241E-25
3.53814E-01 2.10851E-25
3.57992E-01 2.04676E-25
3.62181E-01 1.98709E-25
3.66381E-01 1.92941E-25
3.70590E-01 1.87365E-25
3.74810E-01 1.81972E-25
3.79039E-01 1.76757E-25
3.83277E-01 1.71711E-25
3.87524E-01 1.66830E-25
3.91780E-01 1.62106E-25
3.96044E-01 1.57533E-25
4.00316E-01 1.53107E-25
4.04596E-01 1.48821E-25
4.08882E-01 1.44671E-25
4.13176E-01 1.40651E-25
4.17476E-01 1.36757E-25
4.21783E-01 1.32984E-25
4.26095E-01 1.29328E-25
4.30413E-01 1.25784E-25
4.34737E-01 1.22349E-25
4.39065E-01 1.19019E-25
4.43398E-01 1.15790E-25
4.47736E-01 1.12659E-25
4.52077E-01 1.09621E-25
4.56422E-01 1.06675E-25
4.60770E-01 1.03816E-25
4.65122E-01 1.01042E-25
4.69476E-01 9.83498E-26
4.73832E-01 9.57367E-26
4.78190E-01 9.32001E-26
4.82550E-01 9.07373E-26
4.86912E-01 8.83458E-26
4.91274E-01 8.60234E-26
4.95637E-01 8.37677E-26
5.00000E-01 8.15765E-26
5.04363E-01 7.94477E-26
5.08726E-01 7.73793E-26
5.13088E-01 7.53694E-26
5.17450E-01 7.34159E-26
5.21810E-01 7.15172E-26
5.26168E-01 6.96714E-26
5.30524E-01 6.78770E-26
5.34878E-01 6.61322E-26
5.39230E-01 6.44354E-26
5.43578E-01 6.27853E-26
5.47923E-01 6.11803E-26
5.52264E-01 5.96190E-26
5.56602E-01 5.81001E-26
5.60935E-01 5.66222E-26
5.65263E-01 5.51842E-26
5.69587E-01 5.37847E-26
5.73905E-01 5.24227E-26
5.78217E-01 5.10970E-26
5.82524E-01 4.98064E-26
5.86824E-01 4.85500E-26
5.91118E-01 4.73267E-26
5.95404E-01 4.61355E-26
5.99684E-01 4.49755E-26
6.03956E-01 4.38457E-26
6.08220E-01 4.27454E-26
6.12476E-01 4.16735E-26
6.16723E-01 4.06293E-26
6.20961E-01 3.96120E-26
6.25190E-01 3.86208E-26
6.29410E-01 3.76549E-26
6.33619E-01 3.67136E-26
6.37819E-01 3.57963E-26
6.42008E-01 3.49022E-26
6.46186E-01 3.40307E-26
6.50353E-01 3.31811E-26
6.54508E-01 3.23529E-26
6.58652E-01 3.15453E-26
6.62784E-01 3.07580E-26
6.66903E-01 2.99902E-26
6.71010E-01 2.92415E-26
6.75104E-01 2.85112E-26
6.79184E-01 2.77990E-26
6.83251E-01 2.71044E-26
6.87303E-01 2.64268E-26
6.91342E-01 2.57657E-26
6.95366E-01 2.51208E-26
6.99375E-01 2.44916E-26
7.03368E-01 2.38777E-26
7.07347E-01 2.32786E-26
7.11309E-01 2.26940E-26
7.15256E-01 2.21235E-26
7.19186E-01 2.15667E-26
7.23099E-01 2.10233E-26
7.26995E-01 2.04929E-26
7.30874E-01 1.99752E-26
7.34736E-01 1.94697E-26
7.38579E-01 1.89763E-26
7.42405E-01 1.84947E-26
7.46212E-01 1.80244E-26
7.50000E-01 1.75652E-26
7.53769E-01 1.71168E-26
7.57519E-01 1.66790E-26
7.61249E-01 1.62515E-26
7.64960E-01 1.58340E-26
7.68650E-01 1.54263E-26
7.72320E-01 1.50281E-26
7.75968E-01 1.46392E-26
7.79596E-01 1.42593E-26
7.83203E-01 1.38883E-26
7.86788E-01 1.35259E-26
7.90351E-01 1.31718E-26
7.93893E-01 1.28260E-26
7.97411E-01 1.24882E-26
8.00908E-01 1.21582E-26
8.04381E-01 1.18357E-26
8.07831E-01 1.15208E-26
8.11257E-01 1.12130E-26
8.14660E-01 1.09123E-26
8.18039E-01 1.06186E-26
8.21394E-01 1.03315E-26
8.24724E-01 1.00511E-26
8.28030E-01 9.77705E-27
8.31310E-01 9.50930E-27
8.34565E-01 9.24767E-27
8.37795E-01 8.99203E-27
8.40999E-01 8.74223E-27
8.44177E-01 8.49814E-27
8.47329E-01 8.25962E-27
8.50455E-01 8.02656E-27
8.53553E-01 7.79883E-27
8.56625E-01 7.57629E-27
8.59670E-01 7.35885E-27
8.62687E-01 7.14638E-27
8.65677E-01 6.93876E-27
8.68639E-01 6.73591E-27
8.71572E-01 6.53769E-27
8.74478E-01 6.34402E-27
8.77355E-01 6.15480E-27
8.80203E-01 5.96992E-27
8.83022E-01 5.78930E-27
8.85812E-01 5.61283E-27
8.88573E-01 5.44044E-27
8.91304E-01 5.27203E-27
8.94005E-01 5.10752E-27
8.96677E-01 4.94682E-27
8.99318E-01 4.78987E-27
9.01928E-01 4.63656E-27
9.04508E-01 4.48684E-27
9.07058E-01 4.34063E-27
9.09576E-01 4.19785E-27
9.12063E-01 4.05844E-27
9.14519E-01 3.92233E-27
9.16943E-01 3.78945E-27
9.19335E-01 3.65973E-27
9.21696E-01 3.53311E-27
9.24024E-01 3.40954E-27
9.26320E-01 3.28895E-27
9.28584E-01 3.17129E-27
9.30815E-01 3.05650E-27
9.33013E-01 2.94452E-27
9.35178E-01 2.83530E-27
9.37310E-01 2.72879E-27
9.39409E-01 2.62494E-27
9.41474E-01 2.52369E-27
9.43505E-01 2.42502E-27
9.45503E-01 2.32885E-27
9.47467E-01 2.23516E-27
9.49397E-01 2.14390E-27
9.51293E-01 2.05502E-27
9.53154E-01 1.96849E-27
9.54981E-01 1.88426E-27
9.56773E-01 1.80230E-27
9.58530E-01 1.72256E-27
9.60252E-01 1.64502E-27
9.61940E-01 1.56963E-27
9.63592E-01 1.49637E-27
9.65209E-01 1.42519E-27
9.66790E-01 1.35607E-27
9.68336E-01 1.28897E-27
9.69846E-01 1.22387E-27
9.71321E-01 1.16073E-27
9.72759E-01 1.09953E-27
9.74162E-01 1.04024E-27
9.75528E-01 9.82826E-28
9.76858E-01 9.27273E-28
9.78152E-01 8.73553E-28
9.79410E-01 8.21640E-28
9.80631E-01 7.71513E-28
9.81815E-01 7.23149E-28
9.82963E-01 6.76526E-28
9.84074E-01 6.31623E-28
9.85148E-01 5.88422E-28
9.86185E-01 5.46902E-28
9.87185E-01 5.07046E-28
9.88148E-01 4.68836E-28
9.89074E-01 4.32255E-28
9.89962E-01 3.97287E-28
9.90814E-01 3.63917E-28
9.91627E-01 3.32131E-28
9.92404E-01 3.01914E-28
9.93143E-01 2.73253E-28
9.93844E-01 2.46135E-28
9.94508E-01 2.20550E-28
9.95134E-01 1.96485E-28
9.95722E-01 1.73931E-28
9.96273E-01 1.52877E-28
9.96786E-01 1.33314E-28
9.97261E-01 1.15234E-28
9.97698E-01 9.86295E-29
9.98097E-01 8.34926E-29
9.98459E-01 6.98170E-29
9.98782E-01 5.75967E-29
9.99067E-01 4.68265E-29
9.99315E-01 3.75017E-29
9.99524E-01 2.96183E-29
9.99695E-01 2.31729E-29
9.99829E-01 1.81627E-29
9.99924E-01 1.45855E-29
9.99981E-01 1.24398E-29
1.00000E+00 1.17246E-29
