 #
 # Subroutine ELSEPA. Elastic scattering of electrons and positrons
 #                    by neutral atoms and positive ions
 #
 # Projectile: electron
 # Kinetic energy = 7.00000E+06 eV = 2.57245E+05 a.u.
 #
 # WARNING: High-energy factorization with free-atom DF screening.
 #          Absorption, polarization and exchange corrections are
 #          switched off.
 #          Phase shifts are calculated for the bare nucleus.
 #          Scattering amplitudes are not evaluated.
 #
 # Element: Cd,  Z =  48,  atomic weight = 1.12411E+02 g/mol
 #
 # Nuclear model: Fermi distribution
 #                Average radius = 5.16401E-13 cm
 #                Skin thickness = 5.46000E-14 cm
 #
 # Number of electrons = 48
 #
 # Total elastic cross section = 4.52192E-18 cm**2 = 1.61481E-01 a0**2
 # 1st transport cross section = 6.84292E-23 cm**2 = 2.44365E-06 a0**2
 # 2nd transport cross section = 1.92051E-22 cm**2 = 6.85826E-06 a0**2
 #
 #
 # Differential cross section:                       MU=(1-COS(THETA))/2
 #
 #  THETA        MU          DCS          DCS        Sherman      error
 #  (deg)                 (cm**2/sr)   (a0**2/sr)    function
 #----------------------------------------------------------------------
0.00000E+00 1.78245E-12
7.61557E-13 1.78243E-12
1.18994E-12 1.78242E-12
1.71346E-12 1.78240E-12
2.33225E-12 1.78239E-12
3.04617E-12 1.78236E-12
3.85530E-12 1.78234E-12
4.75964E-12 1.78232E-12
5.75917E-12 1.78229E-12
6.85391E-12 1.78226E-12
8.04379E-12 1.78222E-12
9.32893E-12 1.78218E-12
1.07092E-11 1.78214E-12
1.21847E-11 1.78210E-12
1.37554E-11 1.78206E-12
1.54213E-11 1.78201E-12
1.71823E-11 1.78196E-12
1.90386E-11 1.78190E-12
2.09900E-11 1.78185E-12
2.30367E-11 1.78179E-12
2.51785E-11 1.78173E-12
2.74156E-11 1.78166E-12
2.97478E-11 1.78160E-12
3.21752E-11 1.78153E-12
3.46979E-11 1.78145E-12
3.73157E-11 1.78138E-12
4.00286E-11 1.78130E-12
4.28368E-11 1.78122E-12
4.57402E-11 1.78114E-12
4.87388E-11 1.78105E-12
5.18325E-11 1.78096E-12
5.50215E-11 1.78087E-12
5.83057E-11 1.78078E-12
6.16850E-11 1.78068E-12
6.51595E-11 1.78058E-12
6.87293E-11 1.78048E-12
7.23943E-11 1.78037E-12
7.61544E-11 1.78026E-12
1.18991E-10 1.77904E-12
1.71347E-10 1.77754E-12
2.33223E-10 1.77577E-12
3.04617E-10 1.77374E-12
3.85531E-10 1.77143E-12
4.75965E-10 1.76887E-12
5.75917E-10 1.76604E-12
6.85389E-10 1.76295E-12
8.04380E-10 1.75961E-12
9.32891E-10 1.75600E-12
1.07092E-09 1.75215E-12
1.21847E-09 1.74805E-12
1.37554E-09 1.74370E-12
1.54213E-09 1.73911E-12
1.71823E-09 1.73429E-12
1.90386E-09 1.72922E-12
2.09900E-09 1.72393E-12
2.30367E-09 1.71841E-12
2.51785E-09 1.71266E-12
2.74156E-09 1.70670E-12
2.97478E-09 1.70052E-12
3.21752E-09 1.69414E-12
3.46978E-09 1.68755E-12
3.73156E-09 1.68076E-12
4.00286E-09 1.67377E-12
4.28368E-09 1.66654E-12
4.57402E-09 1.65912E-12
4.87388E-09 1.65154E-12
5.18326E-09 1.64381E-12
5.50215E-09 1.63594E-12
5.83057E-09 1.62792E-12
6.16850E-09 1.61978E-12
6.51596E-09 1.61143E-12
6.87293E-09 1.60283E-12
7.23942E-09 1.59412E-12
7.61544E-09 1.58531E-12
1.18991E-08 1.49113E-12
1.71347E-08 1.38901E-12
2.33223E-08 1.28378E-12
3.04617E-08 1.17978E-12
3.85531E-08 1.07917E-12
4.75965E-08 9.84448E-13
5.75917E-08 8.96785E-13
6.85389E-08 8.15993E-13
8.04380E-08 7.42748E-13
9.32891E-08 6.76507E-13
1.07092E-07 6.16620E-13
1.21847E-07 5.62868E-13
1.37554E-07 5.14391E-13
1.54213E-07 4.70718E-13
1.71823E-07 4.31457E-13
1.90386E-07 3.95850E-13
2.09900E-07 3.63699E-13
2.30367E-07 3.34614E-13
2.51785E-07 3.08087E-13
2.74156E-07 2.84030E-13
2.97478E-07 2.62103E-13
3.21752E-07 2.42051E-13
3.46978E-07 2.23778E-13
3.73156E-07 2.07018E-13
4.00286E-07 1.91666E-13
4.28368E-07 1.76600E-13
4.57402E-07 1.62799E-13
4.87388E-07 1.50575E-13
5.18325E-07 1.39710E-13
5.50215E-07 1.30023E-13
5.83057E-07 1.21358E-13
6.16850E-07 1.13585E-13
6.51596E-07 1.06015E-13
6.87293E-07 9.83520E-14
7.23942E-07 9.14682E-14
7.61543E-07 8.52678E-14
1.18991E-06 4.47880E-14
1.71347E-06 2.53250E-14
2.33223E-06 1.54315E-14
3.04617E-06 1.00564E-14
3.85531E-06 6.89575E-15
4.75964E-06 4.91961E-15
5.75916E-06 3.61609E-15
6.85388E-06 2.71234E-15
8.04378E-06 2.07176E-15
9.32888E-06 1.60553E-15
1.07092E-05 1.25941E-15
1.21846E-05 9.99582E-16
1.37553E-05 8.02056E-16
1.54212E-05 6.50360E-16
1.71822E-05 5.32675E-16
1.90385E-05 4.40071E-16
2.09899E-05 3.66923E-16
2.30365E-05 3.08385E-16
2.51783E-05 2.61083E-16
2.74153E-05 2.22591E-16
2.97475E-05 1.91008E-16
3.21749E-05 1.64888E-16
3.46974E-05 1.43141E-16
3.73152E-05 1.24897E-16
4.00281E-05 1.09500E-16
4.28362E-05 9.63887E-17
4.57395E-05 8.52166E-17
4.87380E-05 7.56662E-17
5.18317E-05 6.73740E-17
5.50205E-05 6.01976E-17
5.83045E-05 5.39800E-17
6.16838E-05 4.85094E-17
6.51582E-05 4.37252E-17
6.87277E-05 3.95344E-17
7.23925E-05 3.58090E-17
7.61524E-05 3.25209E-17
9.21439E-05 2.25997E-17
1.09658E-04 1.61684E-17
1.28695E-04 1.18664E-17
1.49255E-04 8.90006E-18
1.71338E-04 6.80280E-18
1.94942E-04 5.28802E-18
2.20070E-04 4.17196E-18
2.46720E-04 3.33546E-18
2.74892E-04 2.69874E-18
3.04586E-04 2.20708E-18
3.35803E-04 1.82266E-18
3.68542E-04 1.51862E-18
4.02802E-04 1.27551E-18
4.38585E-04 1.07930E-18
4.75889E-04 9.19500E-19
5.14715E-04 7.88275E-19
5.55063E-04 6.79719E-19
5.96931E-04 5.89264E-19
6.40321E-04 5.13407E-19
6.85233E-04 4.49409E-19
7.31665E-04 3.95098E-19
7.79618E-04 3.48772E-19
8.29092E-04 3.09059E-19
8.80086E-04 2.74853E-19
9.32601E-04 2.45263E-19
9.86636E-04 2.19560E-19
1.04219E-03 1.97145E-19
1.09927E-03 1.77527E-19
1.15786E-03 1.60294E-19
1.21797E-03 1.45108E-19
1.27961E-03 1.31684E-19
1.34276E-03 1.19779E-19
1.40743E-03 1.09194E-19
1.47362E-03 9.97561E-20
1.54133E-03 9.13184E-20
1.61056E-03 8.37570E-20
1.68131E-03 7.69644E-20
1.75357E-03 7.08485E-20
1.82735E-03 6.53302E-20
1.90265E-03 6.03402E-20
1.97947E-03 5.58193E-20
2.05780E-03 5.17153E-20
2.13765E-03 4.79828E-20
2.21902E-03 4.45823E-20
2.30190E-03 4.14788E-20
2.38630E-03 3.86416E-20
2.47222E-03 3.60438E-20
2.55965E-03 3.36615E-20
2.64859E-03 3.14736E-20
2.73905E-03 2.94613E-20
2.83103E-03 2.76079E-20
2.92452E-03 2.58986E-20
3.01952E-03 2.43201E-20
3.11604E-03 2.28606E-20
3.21407E-03 2.15095E-20
3.31362E-03 2.02572E-20
3.41468E-03 1.90951E-20
3.51725E-03 1.80156E-20
3.62133E-03 1.70116E-20
3.72692E-03 1.60770E-20
3.83403E-03 1.52061E-20
3.94265E-03 1.43936E-20
4.05278E-03 1.36349E-20
4.16442E-03 1.29259E-20
4.27757E-03 1.22626E-20
4.39223E-03 1.16415E-20
4.50840E-03 1.10596E-20
4.62608E-03 1.05137E-20
4.74527E-03 1.00013E-20
4.86597E-03 9.51995E-21
4.98817E-03 9.06738E-21
5.11188E-03 8.64156E-21
5.23711E-03 8.24060E-21
5.36383E-03 7.86279E-21
5.49207E-03 7.50650E-21
5.62181E-03 7.17034E-21
5.75306E-03 6.85288E-21
5.88581E-03 6.55294E-21
6.02007E-03 6.26933E-21
6.15583E-03 6.00102E-21
6.29310E-03 5.74701E-21
6.43187E-03 5.50640E-21
6.57214E-03 5.27835E-21
6.71392E-03 5.06206E-21
6.85720E-03 4.85683E-21
7.00198E-03 4.66197E-21
7.14827E-03 4.47687E-21
7.29605E-03 4.30093E-21
7.44534E-03 4.13362E-21
7.59612E-03 3.97444E-21
7.97965E-03 3.60900E-21
8.37255E-03 3.28494E-21
8.77480E-03 2.99674E-21
9.18641E-03 2.73972E-21
9.60736E-03 2.50991E-21
1.00376E-02 2.30390E-21
1.04773E-02 2.11879E-21
1.09262E-02 1.95208E-21
1.13844E-02 1.80159E-21
1.18520E-02 1.66547E-21
1.23288E-02 1.54209E-21
1.28150E-02 1.43004E-21
1.33104E-02 1.32808E-21
1.38150E-02 1.23515E-21
1.43290E-02 1.15029E-21
1.48521E-02 1.07267E-21
1.53845E-02 1.00156E-21
1.59262E-02 9.36316E-22
1.64770E-02 8.76355E-22
1.70371E-02 8.21173E-22
1.76063E-02 7.70317E-22
1.81848E-02 7.23384E-22
1.87724E-02 6.80014E-22
1.93692E-02 6.39885E-22
1.99751E-02 6.02709E-22
2.05901E-02 5.68227E-22
2.12143E-02 5.36207E-22
2.18476E-02 5.06440E-22
2.24900E-02 4.78736E-22
2.31415E-02 4.52926E-22
2.38021E-02 4.28854E-22
2.44717E-02 4.06382E-22
2.51504E-02 3.85382E-22
2.58382E-02 3.65739E-22
2.65349E-02 3.47349E-22
2.72407E-02 3.30116E-22
2.79555E-02 3.13953E-22
2.86793E-02 2.98781E-22
2.94120E-02 2.84528E-22
3.01537E-02 2.71126E-22
3.09043E-02 2.58515E-22
3.16639E-02 2.46640E-22
3.24324E-02 2.35448E-22
3.32098E-02 2.24893E-22
3.39961E-02 2.14932E-22
3.47912E-02 2.05524E-22
3.55952E-02 1.96632E-22
3.64081E-02 1.88224E-22
3.72297E-02 1.80266E-22
3.80602E-02 1.72731E-22
3.88995E-02 1.65592E-22
3.97476E-02 1.58823E-22
4.06044E-02 1.52401E-22
4.14700E-02 1.46306E-22
4.23443E-02 1.40517E-22
4.32273E-02 1.35015E-22
4.41190E-02 1.29785E-22
4.50194E-02 1.24809E-22
4.59284E-02 1.20072E-22
4.68461E-02 1.15562E-22
4.87074E-02 1.07169E-22
5.06030E-02 9.95344E-23
5.25328E-02 9.25775E-23
5.44967E-02 8.62265E-23
5.64946E-02 8.04189E-23
5.85262E-02 7.50990E-23
6.05914E-02 7.02179E-23
6.26901E-02 6.57326E-23
6.48222E-02 6.16047E-23
6.69873E-02 5.78004E-23
6.91854E-02 5.42893E-23
7.14163E-02 5.10444E-23
7.36799E-02 4.80416E-23
7.59760E-02 4.52593E-23
7.83043E-02 4.26782E-23
8.06647E-02 4.02809E-23
8.30571E-02 3.80517E-23
8.54812E-02 3.59765E-23
8.79369E-02 3.40425E-23
9.04240E-02 3.22384E-23
9.29422E-02 3.05537E-23
9.54915E-02 2.89787E-23
9.80716E-02 2.75051E-23
1.00682E-01 2.61250E-23
1.03323E-01 2.48313E-23
1.05995E-01 2.36175E-23
1.08696E-01 2.24776E-23
1.11427E-01 2.14063E-23
1.14188E-01 2.03987E-23
1.16978E-01 1.94502E-23
1.19797E-01 1.85567E-23
1.22645E-01 1.77142E-23
1.25522E-01 1.69193E-23
1.28428E-01 1.61689E-23
1.31361E-01 1.54598E-23
1.34323E-01 1.47895E-23
1.37313E-01 1.41552E-23
1.40330E-01 1.35548E-23
1.43375E-01 1.29859E-23
1.46447E-01 1.24468E-23
1.49545E-01 1.19354E-23
1.52671E-01 1.14500E-23
1.55823E-01 1.09892E-23
1.59001E-01 1.05513E-23
1.62205E-01 1.01350E-23
1.65435E-01 9.73907E-24
1.68690E-01 9.36223E-24
1.71970E-01 9.00341E-24
1.75276E-01 8.66163E-24
1.78606E-01 8.33589E-24
1.81961E-01 8.02520E-24
1.85340E-01 7.72876E-24
1.88743E-01 7.44591E-24
1.92169E-01 7.17579E-24
1.95619E-01 6.91768E-24
1.99092E-01 6.67100E-24
2.02589E-01 6.43515E-24
2.06107E-01 6.20954E-24
2.09649E-01 5.99362E-24
2.13212E-01 5.78690E-24
2.16797E-01 5.58892E-24
2.20404E-01 5.39924E-24
2.24032E-01 5.21743E-24
2.27680E-01 5.04309E-24
2.31350E-01 4.87586E-24
2.35040E-01 4.71540E-24
2.38751E-01 4.56138E-24
2.42481E-01 4.41348E-24
2.46231E-01 4.27141E-24
2.50000E-01 4.13490E-24
2.53788E-01 4.00369E-24
2.57595E-01 3.87752E-24
2.61421E-01 3.75617E-24
2.65264E-01 3.63942E-24
2.69126E-01 3.52705E-24
2.73005E-01 3.41888E-24
2.76901E-01 3.31471E-24
2.80814E-01 3.21436E-24
2.84744E-01 3.11767E-24
2.88691E-01 3.02447E-24
2.92653E-01 2.93463E-24
2.96632E-01 2.84798E-24
3.00625E-01 2.76439E-24
3.04634E-01 2.68375E-24
3.08658E-01 2.60591E-24
3.12697E-01 2.53077E-24
3.16749E-01 2.45821E-24
3.20816E-01 2.38813E-24
3.24896E-01 2.32042E-24
3.28990E-01 2.25499E-24
3.33097E-01 2.19175E-24
3.37216E-01 2.13061E-24
3.41348E-01 2.07149E-24
3.45492E-01 2.01430E-24
3.49647E-01 1.95897E-24
3.53814E-01 1.90543E-24
3.57992E-01 1.85361E-24
3.62181E-01 1.80345E-24
3.66381E-01 1.75488E-24
3.70590E-01 1.70783E-24
3.74810E-01 1.66226E-24
3.79039E-01 1.61811E-24
3.83277E-01 1.57533E-24
3.87524E-01 1.53386E-24
3.91780E-01 1.49366E-24
3.96044E-01 1.45467E-24
4.00316E-01 1.41687E-24
4.04596E-01 1.38020E-24
4.08882E-01 1.34462E-24
4.13176E-01 1.31010E-24
4.17476E-01 1.27660E-24
4.21783E-01 1.24408E-24
4.26095E-01 1.21251E-24
4.30413E-01 1.18185E-24
4.34737E-01 1.15208E-24
4.39065E-01 1.12316E-24
4.43398E-01 1.09506E-24
4.47736E-01 1.06776E-24
4.52077E-01 1.04123E-24
4.56422E-01 1.01545E-24
4.60770E-01 9.90383E-25
4.65122E-01 9.66013E-25
4.69476E-01 9.42316E-25
4.73832E-01 9.19270E-25
4.78190E-01 8.96854E-25
4.82550E-01 8.75047E-25
4.86912E-01 8.53830E-25
4.91274E-01 8.33183E-25
4.95637E-01 8.13090E-25
5.00000E-01 7.93532E-25
5.04363E-01 7.74492E-25
5.08726E-01 7.55955E-25
5.13088E-01 7.37904E-25
5.17450E-01 7.20325E-25
5.21810E-01 7.03203E-25
5.26168E-01 6.86525E-25
5.30524E-01 6.70276E-25
5.34878E-01 6.54443E-25
5.39230E-01 6.39015E-25
5.43578E-01 6.23979E-25
5.47923E-01 6.09324E-25
5.52264E-01 5.95037E-25
5.56602E-01 5.81109E-25
5.60935E-01 5.67528E-25
5.65263E-01 5.54285E-25
5.69587E-01 5.41370E-25
5.73905E-01 5.28773E-25
5.78217E-01 5.16485E-25
5.82524E-01 5.04497E-25
5.86824E-01 4.92802E-25
5.91118E-01 4.81389E-25
5.95404E-01 4.70252E-25
5.99684E-01 4.59383E-25
6.03956E-01 4.48774E-25
6.08220E-01 4.38418E-25
6.12476E-01 4.28309E-25
6.16723E-01 4.18438E-25
6.20961E-01 4.08800E-25
6.25190E-01 3.99389E-25
6.29410E-01 3.90198E-25
6.33619E-01 3.81221E-25
6.37819E-01 3.72452E-25
6.42008E-01 3.63887E-25
6.46186E-01 3.55519E-25
6.50353E-01 3.47344E-25
6.54508E-01 3.39356E-25
6.58652E-01 3.31550E-25
6.62784E-01 3.23921E-25
6.66903E-01 3.16466E-25
6.71010E-01 3.09179E-25
6.75104E-01 3.02057E-25
6.79184E-01 2.95094E-25
6.83251E-01 2.88287E-25
6.87303E-01 2.81632E-25
6.91342E-01 2.75125E-25
6.95366E-01 2.68762E-25
6.99375E-01 2.62541E-25
7.03368E-01 2.56456E-25
7.07347E-01 2.50505E-25
7.11309E-01 2.44685E-25
7.15256E-01 2.38991E-25
7.19186E-01 2.33422E-25
7.23099E-01 2.27975E-25
7.26995E-01 2.22645E-25
7.30874E-01 2.17431E-25
7.34736E-01 2.12329E-25
7.38579E-01 2.07337E-25
7.42405E-01 2.02452E-25
7.46212E-01 1.97672E-25
7.50000E-01 1.92995E-25
7.53769E-01 1.88417E-25
7.57519E-01 1.83937E-25
7.61249E-01 1.79551E-25
7.64960E-01 1.75259E-25
7.68650E-01 1.71058E-25
7.72320E-01 1.66946E-25
7.75968E-01 1.62920E-25
7.79596E-01 1.58979E-25
7.83203E-01 1.55121E-25
7.86788E-01 1.51344E-25
7.90351E-01 1.47646E-25
7.93893E-01 1.44026E-25
7.97411E-01 1.40481E-25
8.00908E-01 1.37010E-25
8.04381E-01 1.33612E-25
8.07831E-01 1.30284E-25
8.11257E-01 1.27026E-25
8.14660E-01 1.23836E-25
8.18039E-01 1.20712E-25
8.21394E-01 1.17652E-25
8.24724E-01 1.14657E-25
8.28030E-01 1.11723E-25
8.31310E-01 1.08850E-25
8.34565E-01 1.06037E-25
8.37795E-01 1.03282E-25
8.40999E-01 1.00585E-25
8.44177E-01 9.79429E-26
8.47329E-01 9.53559E-26
8.50455E-01 9.28226E-26
8.53553E-01 9.03419E-26
8.56625E-01 8.79127E-26
8.59670E-01 8.55340E-26
8.62687E-01 8.32048E-26
8.65677E-01 8.09241E-26
8.68639E-01 7.86909E-26
8.71572E-01 7.65043E-26
8.74478E-01 7.43635E-26
8.77355E-01 7.22675E-26
8.80203E-01 7.02154E-26
8.83022E-01 6.82065E-26
8.85812E-01 6.62398E-26
8.88573E-01 6.43147E-26
8.91304E-01 6.24303E-26
8.94005E-01 6.05859E-26
8.96677E-01 5.87807E-26
8.99318E-01 5.70141E-26
9.01928E-01 5.52853E-26
9.04508E-01 5.35936E-26
9.07058E-01 5.19384E-26
9.09576E-01 5.03191E-26
9.12063E-01 4.87349E-26
9.14519E-01 4.71854E-26
9.16943E-01 4.56699E-26
9.19335E-01 4.41877E-26
9.21696E-01 4.27385E-26
9.24024E-01 4.13215E-26
9.26320E-01 3.99362E-26
9.28584E-01 3.85823E-26
9.30815E-01 3.72590E-26
9.33013E-01 3.59660E-26
9.35178E-01 3.47027E-26
9.37310E-01 3.34687E-26
9.39409E-01 3.22635E-26
9.41474E-01 3.10867E-26
9.43505E-01 2.99378E-26
9.45503E-01 2.88165E-26
9.47467E-01 2.77223E-26
9.49397E-01 2.66547E-26
9.51293E-01 2.56135E-26
9.53154E-01 2.45983E-26
9.54981E-01 2.36086E-26
9.56773E-01 2.26442E-26
9.58530E-01 2.17046E-26
9.60252E-01 2.07896E-26
9.61940E-01 1.98987E-26
9.63592E-01 1.90318E-26
9.65209E-01 1.81885E-26
9.66790E-01 1.73685E-26
9.68336E-01 1.65714E-26
9.69846E-01 1.57971E-26
9.71321E-01 1.50453E-26
9.72759E-01 1.43156E-26
9.74162E-01 1.36078E-26
9.75528E-01 1.29218E-26
9.76858E-01 1.22572E-26
9.78152E-01 1.16138E-26
9.79410E-01 1.09914E-26
9.80631E-01 1.03898E-26
9.81815E-01 9.80878E-27
9.82963E-01 9.24812E-27
9.84074E-01 8.70764E-27
9.85148E-01 8.18716E-27
9.86185E-01 7.68649E-27
9.87185E-01 7.20547E-27
9.88148E-01 6.74394E-27
9.89074E-01 6.30173E-27
9.89962E-01 5.87870E-27
9.90814E-01 5.47470E-27
9.91627E-01 5.08959E-27
9.92404E-01 4.72325E-27
9.93143E-01 4.37556E-27
9.93844E-01 4.04639E-27
9.94508E-01 3.73563E-27
9.95134E-01 3.44318E-27
9.95722E-01 3.16895E-27
9.96273E-01 2.91283E-27
9.96786E-01 2.67475E-27
9.97261E-01 2.45462E-27
9.97698E-01 2.25237E-27
9.98097E-01 2.06793E-27
9.98459E-01 1.90124E-27
9.98782E-01 1.75225E-27
9.99067E-01 1.62091E-27
9.99315E-01 1.50716E-27
9.99524E-01 1.41098E-27
9.99695E-01 1.33233E-27
9.99829E-01 1.27118E-27
9.99924E-01 1.22752E-27
9.99981E-01 1.20133E-27
1.00000E+00 1.19260E-27
