 #
 # Subroutine ELSEPA. Elastic scattering of electrons and positrons
 #                    by neutral atoms and positive ions
 #
 # Projectile: electron
 # Kinetic energy = 3.00000E+06 eV = 1.10248E+05 a.u.
 #
 # WARNING: High-energy factorization with free-atom DF screening.
 #          Absorption, polarization and exchange corrections are
 #          switched off.
 #          Phase shifts are calculated for the bare nucleus.
 #          Scattering amplitudes are not evaluated.
 #
 # Element: Cd,  Z =  48,  atomic weight = 1.12411E+02 g/mol
 #
 # Nuclear model: Fermi distribution
 #                Average radius = 5.16401E-13 cm
 #                Skin thickness = 5.46000E-14 cm
 #
 # Number of electrons = 48
 #
 # Total elastic cross section = 4.60073E-18 cm**2 = 1.64295E-01 a0**2
 # 1st transport cross section = 2.86224E-22 cm**2 = 1.02213E-05 a0**2
 # 2nd transport cross section = 7.93724E-22 cm**2 = 2.83444E-05 a0**2
 #
 #
 # Differential cross section:                       MU=(1-COS(THETA))/2
 #
 #  THETA        MU          DCS          DCS        Sherman      error
 #  (deg)                 (cm**2/sr)   (a0**2/sr)    function
 #----------------------------------------------------------------------
0.00000E+00 3.89479E-13
7.61557E-13 3.89478E-13
1.18994E-12 3.89478E-13
1.71346E-12 3.89477E-13
2.33225E-12 3.89476E-13
3.04617E-12 3.89475E-13
3.85530E-12 3.89474E-13
4.75964E-12 3.89473E-13
5.75917E-12 3.89472E-13
6.85391E-12 3.89470E-13
8.04379E-12 3.89469E-13
9.32893E-12 3.89467E-13
1.07092E-11 3.89465E-13
1.21847E-11 3.89463E-13
1.37554E-11 3.89461E-13
1.54213E-11 3.89459E-13
1.71823E-11 3.89456E-13
1.90386E-11 3.89454E-13
2.09900E-11 3.89451E-13
2.30367E-11 3.89449E-13
2.51785E-11 3.89446E-13
2.74156E-11 3.89443E-13
2.97478E-11 3.89440E-13
3.21752E-11 3.89436E-13
3.46979E-11 3.89433E-13
3.73157E-11 3.89429E-13
4.00286E-11 3.89426E-13
4.28368E-11 3.89422E-13
4.57402E-11 3.89418E-13
4.87388E-11 3.89414E-13
5.18325E-11 3.89410E-13
5.50215E-11 3.89406E-13
5.83057E-11 3.89401E-13
6.16850E-11 3.89397E-13
6.51595E-11 3.89392E-13
6.87293E-11 3.89387E-13
7.23943E-11 3.89382E-13
7.61544E-11 3.89377E-13
1.18991E-10 3.89320E-13
1.71347E-10 3.89250E-13
2.33223E-10 3.89166E-13
3.04617E-10 3.89071E-13
3.85531E-10 3.88962E-13
4.75965E-10 3.88841E-13
5.75917E-10 3.88706E-13
6.85389E-10 3.88560E-13
8.04380E-10 3.88400E-13
9.32891E-10 3.88228E-13
1.07092E-09 3.88043E-13
1.21847E-09 3.87846E-13
1.37554E-09 3.87636E-13
1.54213E-09 3.87414E-13
1.71823E-09 3.87179E-13
1.90386E-09 3.86932E-13
2.09900E-09 3.86672E-13
2.30367E-09 3.86400E-13
2.51785E-09 3.86116E-13
2.74156E-09 3.85819E-13
2.97478E-09 3.85510E-13
3.21752E-09 3.85190E-13
3.46978E-09 3.84857E-13
3.73156E-09 3.84512E-13
4.00286E-09 3.84155E-13
4.28368E-09 3.83786E-13
4.57402E-09 3.83405E-13
4.87388E-09 3.83013E-13
5.18326E-09 3.82608E-13
5.50215E-09 3.82192E-13
5.83057E-09 3.81765E-13
6.16850E-09 3.81326E-13
6.51596E-09 3.80876E-13
6.87293E-09 3.80414E-13
7.23942E-09 3.79941E-13
7.61544E-09 3.79457E-13
1.18991E-08 3.74018E-13
1.71347E-08 3.67558E-13
2.33223E-08 3.60143E-13
3.04617E-08 3.51978E-13
3.85531E-08 3.43066E-13
4.75965E-08 3.33600E-13
5.75917E-08 3.23729E-13
6.85389E-08 3.13420E-13
8.04380E-08 3.02943E-13
9.32891E-08 2.92334E-13
1.07092E-07 2.81628E-13
1.21847E-07 2.71034E-13
1.37554E-07 2.60491E-13
1.54213E-07 2.50118E-13
1.71823E-07 2.40034E-13
1.90386E-07 2.30100E-13
2.09900E-07 2.20510E-13
2.30367E-07 2.11262E-13
2.51785E-07 2.02267E-13
2.74156E-07 1.93675E-13
2.97478E-07 1.85408E-13
3.21752E-07 1.77464E-13
3.46978E-07 1.69915E-13
3.73156E-07 1.62649E-13
4.00286E-07 1.55730E-13
4.28368E-07 1.49171E-13
4.57402E-07 1.42848E-13
4.87388E-07 1.36864E-13
5.18325E-07 1.31172E-13
5.50215E-07 1.25717E-13
5.83057E-07 1.20557E-13
6.16850E-07 1.15623E-13
6.51596E-07 1.10919E-13
6.87293E-07 1.06468E-13
7.23942E-07 1.02188E-13
7.61543E-07 9.81245E-14
1.18991E-06 6.63800E-14
1.71347E-06 4.59259E-14
2.33223E-06 3.18228E-14
3.04617E-06 2.30338E-14
3.85531E-06 1.66139E-14
4.75964E-06 1.22794E-14
5.75916E-06 9.24675E-15
6.85388E-06 7.03151E-15
8.04378E-06 5.46274E-15
9.32888E-06 4.30941E-15
1.07092E-05 3.44997E-15
1.21846E-05 2.80531E-15
1.37553E-05 2.30863E-15
1.54212E-05 1.92222E-15
1.71822E-05 1.61841E-15
1.90385E-05 1.37237E-15
2.09899E-05 1.17434E-15
2.30365E-05 1.01202E-15
2.51783E-05 8.76022E-16
2.74153E-05 7.62869E-16
2.97475E-05 6.67060E-16
3.21749E-05 5.85413E-16
3.46974E-05 5.16132E-16
3.73152E-05 4.56171E-16
4.00281E-05 4.04586E-16
4.28362E-05 3.60108E-16
4.57395E-05 3.21084E-16
4.87380E-05 2.87186E-16
5.18317E-05 2.57454E-16
5.50205E-05 2.31275E-16
5.83045E-05 2.08347E-16
6.16838E-05 1.88093E-16
6.51582E-05 1.70204E-16
6.87277E-05 1.54406E-16
7.23925E-05 1.40335E-16
7.61524E-05 1.27836E-16
9.21439E-05 8.97562E-17
1.09658E-04 6.48434E-17
1.28695E-04 4.80664E-17
1.49255E-04 3.64294E-17
1.71338E-04 2.81437E-17
1.94942E-04 2.20946E-17
2.20070E-04 1.75995E-17
2.46720E-04 1.41978E-17
2.74892E-04 1.15881E-17
3.04586E-04 9.54343E-18
3.35803E-04 7.93358E-18
3.68542E-04 6.64983E-18
4.02802E-04 5.61207E-18
4.38585E-04 4.77014E-18
4.75889E-04 4.07929E-18
5.14715E-04 3.50831E-18
5.55063E-04 3.03418E-18
5.96931E-04 2.63661E-18
6.40321E-04 2.30211E-18
6.85233E-04 2.01915E-18
7.31665E-04 1.77786E-18
7.79618E-04 1.57174E-18
8.29092E-04 1.39463E-18
8.80086E-04 1.24169E-18
9.32601E-04 1.10925E-18
9.86636E-04 9.93969E-19
1.04219E-03 8.93308E-19
1.09927E-03 8.05137E-19
1.15786E-03 7.27556E-19
1.21797E-03 6.59144E-19
1.27961E-03 5.98626E-19
1.34276E-03 5.44892E-19
1.40743E-03 4.97093E-19
1.47362E-03 4.54441E-19
1.54133E-03 4.16279E-19
1.61056E-03 3.82067E-19
1.68131E-03 3.51306E-19
1.75357E-03 3.23596E-19
1.82735E-03 2.98584E-19
1.90265E-03 2.75945E-19
1.97947E-03 2.55428E-19
2.05780E-03 2.36793E-19
2.13765E-03 2.19833E-19
2.21902E-03 2.04375E-19
2.30190E-03 1.90258E-19
2.38630E-03 1.77346E-19
2.47222E-03 1.65519E-19
2.55965E-03 1.54665E-19
2.64859E-03 1.44691E-19
2.73905E-03 1.35515E-19
2.83103E-03 1.27057E-19
2.92452E-03 1.19254E-19
3.01952E-03 1.12044E-19
3.11604E-03 1.05373E-19
3.21407E-03 9.91953E-20
3.31362E-03 9.34657E-20
3.41468E-03 8.81464E-20
3.51725E-03 8.32033E-20
3.62133E-03 7.86028E-20
3.72692E-03 7.43184E-20
3.83403E-03 7.03240E-20
3.94265E-03 6.65954E-20
4.05278E-03 6.31128E-20
4.16442E-03 5.98561E-20
4.27757E-03 5.68079E-20
4.39223E-03 5.39530E-20
4.50840E-03 5.12759E-20
4.62608E-03 4.87640E-20
4.74527E-03 4.64053E-20
4.86597E-03 4.41880E-20
4.98817E-03 4.21027E-20
5.11188E-03 4.01398E-20
5.23711E-03 3.82905E-20
5.36383E-03 3.65475E-20
5.49207E-03 3.49031E-20
5.62181E-03 3.33507E-20
5.75306E-03 3.18845E-20
5.88581E-03 3.04983E-20
6.02007E-03 2.91873E-20
6.15583E-03 2.79465E-20
6.29310E-03 2.67713E-20
6.43187E-03 2.56578E-20
6.57214E-03 2.46020E-20
6.71392E-03 2.36003E-20
6.85720E-03 2.26495E-20
7.00198E-03 2.17464E-20
7.14827E-03 2.08883E-20
7.29605E-03 2.00724E-20
7.44534E-03 1.92962E-20
7.59612E-03 1.85575E-20
7.97965E-03 1.68609E-20
8.37255E-03 1.53552E-20
8.77480E-03 1.40152E-20
9.18641E-03 1.28194E-20
9.60736E-03 1.17494E-20
1.00376E-02 1.07898E-20
1.04773E-02 9.92696E-21
1.09262E-02 9.14945E-21
1.13844E-02 8.44726E-21
1.18520E-02 7.81180E-21
1.23288E-02 7.23553E-21
1.28150E-02 6.71195E-21
1.33104E-02 6.23534E-21
1.38150E-02 5.80072E-21
1.43290E-02 5.40371E-21
1.48521E-02 5.04044E-21
1.53845E-02 4.70752E-21
1.59262E-02 4.40193E-21
1.64770E-02 4.12102E-21
1.70371E-02 3.86241E-21
1.76063E-02 3.62401E-21
1.81848E-02 3.40393E-21
1.87724E-02 3.20051E-21
1.93692E-02 3.01223E-21
1.99751E-02 2.83777E-21
2.05901E-02 2.67591E-21
2.12143E-02 2.52558E-21
2.18476E-02 2.38580E-21
2.24900E-02 2.25567E-21
2.31415E-02 2.13441E-21
2.38021E-02 2.02130E-21
2.44717E-02 1.91568E-21
2.51504E-02 1.81697E-21
2.58382E-02 1.72462E-21
2.65349E-02 1.63814E-21
2.72407E-02 1.55710E-21
2.79555E-02 1.48107E-21
2.86793E-02 1.40969E-21
2.94120E-02 1.34263E-21
3.01537E-02 1.27956E-21
3.09043E-02 1.22021E-21
3.16639E-02 1.16430E-21
3.24324E-02 1.11161E-21
3.32098E-02 1.06192E-21
3.39961E-02 1.01501E-21
3.47912E-02 9.70701E-22
3.55952E-02 9.28822E-22
3.64081E-02 8.89211E-22
3.72297E-02 8.51723E-22
3.80602E-02 8.16220E-22
3.88995E-02 7.82576E-22
3.97476E-02 7.50676E-22
4.06044E-02 7.20409E-22
4.14700E-02 6.91677E-22
4.23443E-02 6.64387E-22
4.32273E-02 6.38450E-22
4.41190E-02 6.13787E-22
4.50194E-02 5.90323E-22
4.59284E-02 5.67987E-22
4.68461E-02 5.46715E-22
4.87074E-02 5.07122E-22
5.06030E-02 4.71105E-22
5.25328E-02 4.38278E-22
5.44967E-02 4.08306E-22
5.64946E-02 3.80893E-22
5.85262E-02 3.55778E-22
6.05914E-02 3.32731E-22
6.26901E-02 3.11551E-22
6.48222E-02 2.92054E-22
6.69873E-02 2.74083E-22
6.91854E-02 2.57495E-22
7.14163E-02 2.42162E-22
7.36799E-02 2.27971E-22
7.59760E-02 2.14821E-22
7.83043E-02 2.02620E-22
8.06647E-02 1.91285E-22
8.30571E-02 1.80744E-22
8.54812E-02 1.70930E-22
8.79369E-02 1.61782E-22
9.04240E-02 1.53248E-22
9.29422E-02 1.45276E-22
9.54915E-02 1.37823E-22
9.80716E-02 1.30849E-22
1.00682E-01 1.24316E-22
1.03323E-01 1.18192E-22
1.05995E-01 1.12444E-22
1.08696E-01 1.07046E-22
1.11427E-01 1.01973E-22
1.14188E-01 9.71995E-23
1.16978E-01 9.27056E-23
1.19797E-01 8.84713E-23
1.22645E-01 8.44786E-23
1.25522E-01 8.07110E-23
1.28428E-01 7.71532E-23
1.31361E-01 7.37911E-23
1.34323E-01 7.06119E-23
1.37313E-01 6.76036E-23
1.40330E-01 6.47552E-23
1.43375E-01 6.20563E-23
1.46447E-01 5.94976E-23
1.49545E-01 5.70703E-23
1.52671E-01 5.47663E-23
1.55823E-01 5.25781E-23
1.59001E-01 5.04986E-23
1.62205E-01 4.85213E-23
1.65435E-01 4.66403E-23
1.68690E-01 4.48499E-23
1.71970E-01 4.31448E-23
1.75276E-01 4.15201E-23
1.78606E-01 3.99713E-23
1.81961E-01 3.84941E-23
1.85340E-01 3.70846E-23
1.88743E-01 3.57389E-23
1.92169E-01 3.44536E-23
1.95619E-01 3.32255E-23
1.99092E-01 3.20514E-23
2.02589E-01 3.09286E-23
2.06107E-01 2.98542E-23
2.09649E-01 2.88259E-23
2.13212E-01 2.78413E-23
2.16797E-01 2.68980E-23
2.20404E-01 2.59941E-23
2.24032E-01 2.51275E-23
2.27680E-01 2.42963E-23
2.31350E-01 2.34990E-23
2.35040E-01 2.27336E-23
2.38751E-01 2.19988E-23
2.42481E-01 2.12931E-23
2.46231E-01 2.06150E-23
2.50000E-01 1.99634E-23
2.53788E-01 1.93368E-23
2.57595E-01 1.87343E-23
2.61421E-01 1.81546E-23
2.65264E-01 1.75968E-23
2.69126E-01 1.70598E-23
2.73005E-01 1.65427E-23
2.76901E-01 1.60446E-23
2.80814E-01 1.55646E-23
2.84744E-01 1.51021E-23
2.88691E-01 1.46561E-23
2.92653E-01 1.42261E-23
2.96632E-01 1.38113E-23
3.00625E-01 1.34111E-23
3.04634E-01 1.30248E-23
3.08658E-01 1.26519E-23
3.12697E-01 1.22918E-23
3.16749E-01 1.19441E-23
3.20816E-01 1.16081E-23
3.24896E-01 1.12834E-23
3.28990E-01 1.09695E-23
3.33097E-01 1.06661E-23
3.37216E-01 1.03726E-23
3.41348E-01 1.00888E-23
3.45492E-01 9.81416E-24
3.49647E-01 9.54841E-24
3.53814E-01 9.29119E-24
3.57992E-01 9.04217E-24
3.62181E-01 8.80104E-24
3.66381E-01 8.56749E-24
3.70590E-01 8.34123E-24
3.74810E-01 8.12201E-24
3.79039E-01 7.90954E-24
3.83277E-01 7.70359E-24
3.87524E-01 7.50390E-24
3.91780E-01 7.31027E-24
3.96044E-01 7.12246E-24
4.00316E-01 6.94027E-24
4.04596E-01 6.76350E-24
4.08882E-01 6.59195E-24
4.13176E-01 6.42545E-24
4.17476E-01 6.26381E-24
4.21783E-01 6.10686E-24
4.26095E-01 5.95444E-24
4.30413E-01 5.80640E-24
4.34737E-01 5.66258E-24
4.39065E-01 5.52284E-24
4.43398E-01 5.38705E-24
4.47736E-01 5.25506E-24
4.52077E-01 5.12675E-24
4.56422E-01 5.00201E-24
4.60770E-01 4.88071E-24
4.65122E-01 4.76274E-24
4.69476E-01 4.64799E-24
4.73832E-01 4.53636E-24
4.78190E-01 4.42775E-24
4.82550E-01 4.32206E-24
4.86912E-01 4.21919E-24
4.91274E-01 4.11906E-24
4.95637E-01 4.02157E-24
5.00000E-01 3.92666E-24
5.04363E-01 3.83423E-24
5.08726E-01 3.74421E-24
5.13088E-01 3.65652E-24
5.17450E-01 3.57110E-24
5.21810E-01 3.48787E-24
5.26168E-01 3.40677E-24
5.30524E-01 3.32773E-24
5.34878E-01 3.25070E-24
5.39230E-01 3.17561E-24
5.43578E-01 3.10240E-24
5.47923E-01 3.03102E-24
5.52264E-01 2.96142E-24
5.56602E-01 2.89354E-24
5.60935E-01 2.82733E-24
5.65263E-01 2.76274E-24
5.69587E-01 2.69973E-24
5.73905E-01 2.63825E-24
5.78217E-01 2.57826E-24
5.82524E-01 2.51972E-24
5.86824E-01 2.46258E-24
5.91118E-01 2.40681E-24
5.95404E-01 2.35236E-24
5.99684E-01 2.29921E-24
6.03956E-01 2.24731E-24
6.08220E-01 2.19663E-24
6.12476E-01 2.14714E-24
6.16723E-01 2.09881E-24
6.20961E-01 2.05159E-24
6.25190E-01 2.00547E-24
6.29410E-01 1.96042E-24
6.33619E-01 1.91640E-24
6.37819E-01 1.87338E-24
6.42008E-01 1.83135E-24
6.46186E-01 1.79027E-24
6.50353E-01 1.75012E-24
6.54508E-01 1.71088E-24
6.58652E-01 1.67252E-24
6.62784E-01 1.63502E-24
6.66903E-01 1.59835E-24
6.71010E-01 1.56251E-24
6.75104E-01 1.52746E-24
6.79184E-01 1.49318E-24
6.83251E-01 1.45966E-24
6.87303E-01 1.42687E-24
6.91342E-01 1.39481E-24
6.95366E-01 1.36344E-24
6.99375E-01 1.33276E-24
7.03368E-01 1.30274E-24
7.07347E-01 1.27337E-24
7.11309E-01 1.24463E-24
7.15256E-01 1.21652E-24
7.19186E-01 1.18900E-24
7.23099E-01 1.16208E-24
7.26995E-01 1.13573E-24
7.30874E-01 1.10994E-24
7.34736E-01 1.08470E-24
7.38579E-01 1.05999E-24
7.42405E-01 1.03581E-24
7.46212E-01 1.01214E-24
7.50000E-01 9.88962E-25
7.53769E-01 9.66273E-25
7.57519E-01 9.44060E-25
7.61249E-01 9.22312E-25
7.64960E-01 9.01016E-25
7.68650E-01 8.80165E-25
7.72320E-01 8.59746E-25
7.75968E-01 8.39751E-25
7.79596E-01 8.20170E-25
7.83203E-01 8.00995E-25
7.86788E-01 7.82215E-25
7.90351E-01 7.63822E-25
7.93893E-01 7.45809E-25
7.97411E-01 7.28166E-25
8.00908E-01 7.10886E-25
8.04381E-01 6.93961E-25
8.07831E-01 6.77383E-25
8.11257E-01 6.61144E-25
8.14660E-01 6.45238E-25
8.18039E-01 6.29658E-25
8.21394E-01 6.14396E-25
8.24724E-01 5.99445E-25
8.28030E-01 5.84800E-25
8.31310E-01 5.70454E-25
8.34565E-01 5.56400E-25
8.37795E-01 5.42633E-25
8.40999E-01 5.29147E-25
8.44177E-01 5.15935E-25
8.47329E-01 5.02994E-25
8.50455E-01 4.90316E-25
8.53553E-01 4.77898E-25
8.56625E-01 4.65734E-25
8.59670E-01 4.53818E-25
8.62687E-01 4.42147E-25
8.65677E-01 4.30717E-25
8.68639E-01 4.19520E-25
8.71572E-01 4.08555E-25
8.74478E-01 3.97815E-25
8.77355E-01 3.87297E-25
8.80203E-01 3.76996E-25
8.83022E-01 3.66908E-25
8.85812E-01 3.57030E-25
8.88573E-01 3.47357E-25
8.91304E-01 3.37886E-25
8.94005E-01 3.28613E-25
8.96677E-01 3.19535E-25
8.99318E-01 3.10648E-25
9.01928E-01 3.01948E-25
9.04508E-01 2.93433E-25
9.07058E-01 2.85099E-25
9.09576E-01 2.76943E-25
9.12063E-01 2.68963E-25
9.14519E-01 2.61154E-25
9.16943E-01 2.53515E-25
9.19335E-01 2.46042E-25
9.21696E-01 2.38733E-25
9.24024E-01 2.31585E-25
9.26320E-01 2.24595E-25
9.28584E-01 2.17761E-25
9.30815E-01 2.11080E-25
9.33013E-01 2.04551E-25
9.35178E-01 1.98170E-25
9.37310E-01 1.91935E-25
9.39409E-01 1.85845E-25
9.41474E-01 1.79896E-25
9.43505E-01 1.74087E-25
9.45503E-01 1.68416E-25
9.47467E-01 1.62881E-25
9.49397E-01 1.57480E-25
9.51293E-01 1.52211E-25
9.53154E-01 1.47072E-25
9.54981E-01 1.42061E-25
9.56773E-01 1.37177E-25
9.58530E-01 1.32418E-25
9.60252E-01 1.27782E-25
9.61940E-01 1.23268E-25
9.63592E-01 1.18875E-25
9.65209E-01 1.14600E-25
9.66790E-01 1.10442E-25
9.68336E-01 1.06400E-25
9.69846E-01 1.02472E-25
9.71321E-01 9.86582E-26
9.72759E-01 9.49558E-26
9.74162E-01 9.13642E-26
9.75528E-01 8.78820E-26
9.76858E-01 8.45081E-26
9.78152E-01 8.12415E-26
9.79410E-01 7.80809E-26
9.80631E-01 7.50254E-26
9.81815E-01 7.20739E-26
9.82963E-01 6.92255E-26
9.84074E-01 6.64793E-26
9.85148E-01 6.38343E-26
9.86185E-01 6.12897E-26
9.87185E-01 5.88446E-26
9.88148E-01 5.64983E-26
9.89074E-01 5.42500E-26
9.89962E-01 5.20989E-26
9.90814E-01 5.00444E-26
9.91627E-01 4.80858E-26
9.92404E-01 4.62224E-26
9.93143E-01 4.44537E-26
9.93844E-01 4.27791E-26
9.94508E-01 4.11980E-26
9.95134E-01 3.97100E-26
9.95722E-01 3.83145E-26
9.96273E-01 3.70111E-26
9.96786E-01 3.57994E-26
9.97261E-01 3.46791E-26
9.97698E-01 3.36496E-26
9.98097E-01 3.27108E-26
9.98459E-01 3.18623E-26
9.98782E-01 3.11038E-26
9.99067E-01 3.04352E-26
9.99315E-01 2.98561E-26
9.99524E-01 2.93664E-26
9.99695E-01 2.89660E-26
9.99829E-01 2.86546E-26
9.99924E-01 2.84324E-26
9.99981E-01 2.82990E-26
1.00000E+00 2.82545E-26
