 #
 # Subroutine ELSEPA. Elastic scattering of electrons and positrons
 #                    by neutral atoms and positive ions
 #
 # Projectile: electron
 # Kinetic energy = 7.00000E+08 eV = 2.57245E+07 a.u.
 #
 # WARNING: High-energy factorization with free-atom DF screening.
 #          Absorption, polarization and exchange corrections are
 #          switched off.
 #          Phase shifts are calculated for the bare nucleus.
 #          Scattering amplitudes are not evaluated.
 #
 # Element: Cd,  Z =  48,  atomic weight = 1.12411E+02 g/mol
 #
 # Nuclear model: Fermi distribution
 #                Average radius = 5.16401E-13 cm
 #                Skin thickness = 5.46000E-14 cm
 #
 # Number of electrons = 48
 #
 # Total elastic cross section = 4.49128E-18 cm**2 = 1.60387E-01 a0**2
 # 1st transport cross section = 9.26640E-27 cm**2 = 3.30909E-10 a0**2
 # 2nd transport cross section = 2.77935E-26 cm**2 = 9.92524E-10 a0**2
 #
 #
 # Differential cross section:                       MU=(1-COS(THETA))/2
 #
 #  THETA        MU          DCS          DCS        Sherman      error
 #  (deg)                 (cm**2/sr)   (a0**2/sr)    function
 #----------------------------------------------------------------------
0.00000E+00 1.55043E-08
7.61557E-13 1.39866E-08
1.18994E-12 1.32453E-08
1.71346E-12 1.24329E-08
2.33225E-12 1.15857E-08
3.04617E-12 1.07297E-08
3.85530E-12 9.89251E-09
4.75964E-12 9.09281E-09
5.75917E-12 8.34081E-09
6.85391E-12 7.63932E-09
8.04379E-12 6.99504E-09
9.32893E-12 6.40704E-09
1.07092E-11 5.87084E-09
1.21847E-11 5.38352E-09
1.37554E-11 4.94260E-09
1.54213E-11 4.54372E-09
1.71823E-11 4.18046E-09
1.90386E-11 3.85128E-09
2.09900E-11 3.55273E-09
2.30367E-11 3.28093E-09
2.51785E-11 3.03247E-09
2.74156E-11 2.80607E-09
2.97478E-11 2.59939E-09
3.21752E-11 2.40956E-09
3.46979E-11 2.23543E-09
3.73157E-11 2.07581E-09
4.00286E-11 1.92918E-09
4.28368E-11 1.79368E-09
4.57402E-11 1.66904E-09
4.87388E-11 1.54640E-09
5.18325E-11 1.43257E-09
5.50215E-11 1.33100E-09
5.83057E-11 1.24009E-09
6.16850E-11 1.15849E-09
6.51595E-11 1.08505E-09
6.87293E-11 1.01877E-09
7.23943E-11 9.58800E-10
7.61544E-11 8.94576E-10
1.18991E-10 4.75970E-10
1.71347E-10 2.72212E-10
2.33223E-10 1.66724E-10
3.04617E-10 1.08429E-10
3.85531E-10 7.42946E-11
4.75965E-10 5.30498E-11
5.75917E-10 3.90758E-11
6.85389E-10 2.94250E-11
8.04380E-10 2.25738E-11
9.32891E-10 1.75803E-11
1.07092E-09 1.38562E-11
1.21847E-09 1.10403E-11
1.37554E-09 8.88598E-12
1.54213E-09 7.22364E-12
1.71823E-09 5.92473E-12
1.90386E-09 4.90268E-12
2.09900E-09 4.09060E-12
2.30367E-09 3.43910E-12
2.51785E-09 2.91195E-12
2.74156E-09 2.48261E-12
2.97478E-09 2.13030E-12
3.21752E-09 1.83893E-12
3.46978E-09 1.59629E-12
3.73156E-09 1.39285E-12
4.00286E-09 1.22113E-12
4.28368E-09 1.07521E-12
4.57402E-09 9.50625E-13
4.87388E-09 8.43414E-13
5.18326E-09 7.51118E-13
5.50215E-09 6.71502E-13
5.83057E-09 6.02026E-13
6.16850E-09 5.41203E-13
6.51596E-09 4.88098E-13
6.87293E-09 4.41309E-13
7.23942E-09 3.99828E-13
7.61544E-09 3.63241E-13
1.18991E-08 1.54639E-13
1.71347E-08 7.62237E-14
2.33223E-08 4.17118E-14
3.04617E-08 2.46902E-14
3.85531E-08 1.55321E-14
4.75965E-08 1.02553E-14
5.75917E-08 7.04247E-15
6.85389E-08 4.99576E-15
8.04380E-08 3.64187E-15
9.32891E-08 2.71727E-15
1.07092E-07 2.06839E-15
1.21847E-07 1.60213E-15
1.37554E-07 1.26013E-15
1.54213E-07 1.00468E-15
1.71823E-07 8.10773E-16
1.90386E-07 6.61447E-16
2.09900E-07 5.44950E-16
2.30367E-07 4.52991E-16
2.51785E-07 3.79624E-16
2.74156E-07 3.20518E-16
2.97478E-07 2.72472E-16
3.21752E-07 2.33095E-16
3.46978E-07 2.00577E-16
3.73156E-07 1.73533E-16
4.00286E-07 1.50894E-16
4.28368E-07 1.31828E-16
4.57402E-07 1.15678E-16
4.87388E-07 1.01926E-16
5.18325E-07 9.01570E-17
5.50215E-07 8.00379E-17
5.83057E-07 7.12989E-17
6.16850E-07 6.37202E-17
6.51596E-07 5.71216E-17
6.87293E-07 5.13553E-17
7.23942E-07 4.62983E-17
7.61543E-07 4.18484E-17
1.18991E-06 1.71677E-17
1.71347E-06 8.28646E-18
2.33223E-06 4.47541E-18
3.04617E-06 2.62451E-18
3.85531E-06 1.63902E-18
4.75964E-06 1.07567E-18
5.75916E-06 7.34881E-19
6.85388E-06 5.18994E-19
8.04378E-06 3.76884E-19
9.32888E-06 2.80257E-19
1.07092E-05 2.12711E-19
1.21846E-05 1.64345E-19
1.37553E-05 1.28980E-19
1.54212E-05 1.02638E-19
1.71822E-05 8.26916E-20
1.90385E-05 6.73482E-20
2.09899E-05 5.54346E-20
2.30365E-05 4.60400E-20
2.51783E-05 3.85492E-20
2.74153E-05 3.25178E-20
2.97475E-05 2.76193E-20
3.21749E-05 2.36096E-20
3.46974E-05 2.03030E-20
3.73152E-05 1.75572E-20
4.00281E-05 1.52615E-20
4.28362E-05 1.33296E-20
4.57395E-05 1.16940E-20
4.87380E-05 1.03016E-20
5.18317E-05 9.11007E-21
5.50205E-05 8.08570E-21
5.83045E-05 7.20129E-21
6.16838E-05 6.43466E-21
6.51582E-05 5.76757E-21
6.87277E-05 5.18493E-21
7.23925E-05 4.67418E-21
7.61524E-05 4.21592E-21
9.21439E-05 2.87441E-21
1.09658E-04 2.02467E-21
1.28695E-04 1.46572E-21
1.49255E-04 1.08583E-21
1.71338E-04 8.20587E-22
1.94942E-04 6.30881E-22
2.20070E-04 4.92387E-22
2.46720E-04 3.89425E-22
2.74892E-04 3.11626E-22
3.04586E-04 2.52001E-22
3.35803E-04 2.05704E-22
3.68542E-04 1.69340E-22
4.02802E-04 1.40474E-22
4.38585E-04 1.17341E-22
4.75889E-04 9.86397E-23
5.14715E-04 8.33993E-23
5.55063E-04 7.08886E-23
5.96931E-04 6.05485E-23
6.40321E-04 5.19490E-23
6.85233E-04 4.47556E-23
7.31665E-04 3.87060E-23
7.79618E-04 3.35930E-23
8.29092E-04 2.92512E-23
8.80086E-04 2.55486E-23
9.32601E-04 2.23780E-23
9.86636E-04 1.96529E-23
1.04219E-03 1.73022E-23
1.09927E-03 1.52677E-23
1.15786E-03 1.35014E-23
1.21797E-03 1.19634E-23
1.27961E-03 1.06205E-23
1.34276E-03 9.44487E-24
1.40743E-03 8.41317E-24
1.47362E-03 7.50569E-24
1.54133E-03 6.70570E-24
1.61056E-03 5.99903E-24
1.68131E-03 5.37357E-24
1.75357E-03 4.81898E-24
1.82735E-03 4.32637E-24
1.90265E-03 3.88810E-24
1.97947E-03 3.49757E-24
2.05780E-03 3.14907E-24
2.13765E-03 2.83765E-24
2.21902E-03 2.55899E-24
2.30190E-03 2.30936E-24
2.38630E-03 2.08545E-24
2.47222E-03 1.88441E-24
2.55965E-03 1.70371E-24
2.64859E-03 1.54114E-24
2.73905E-03 1.39474E-24
2.83103E-03 1.26279E-24
2.92452E-03 1.14377E-24
3.01952E-03 1.03633E-24
3.11604E-03 9.39280E-25
3.21407E-03 8.51554E-25
3.31362E-03 7.72208E-25
3.41468E-03 7.00402E-25
3.51725E-03 6.35385E-25
3.62133E-03 5.76486E-25
3.72692E-03 5.23105E-25
3.83403E-03 4.74708E-25
3.94265E-03 4.30811E-25
4.05278E-03 3.90984E-25
4.16442E-03 3.54838E-25
4.27757E-03 3.22024E-25
4.39223E-03 2.92229E-25
4.50840E-03 2.65170E-25
4.62608E-03 2.40591E-25
4.74527E-03 2.18263E-25
4.86597E-03 1.97976E-25
4.98817E-03 1.79544E-25
5.11188E-03 1.62795E-25
5.23711E-03 1.47577E-25
5.36383E-03 1.33750E-25
5.49207E-03 1.21186E-25
5.62181E-03 1.09772E-25
5.75306E-03 9.94037E-26
5.88581E-03 8.99861E-26
6.02007E-03 8.14336E-26
6.15583E-03 7.36683E-26
6.29310E-03 6.66193E-26
6.43187E-03 6.02220E-26
6.57214E-03 5.44178E-26
6.71392E-03 4.91533E-26
6.85720E-03 4.43799E-26
7.00198E-03 4.00534E-26
7.14827E-03 3.61333E-26
7.29605E-03 3.25831E-26
7.44534E-03 2.93691E-26
7.59612E-03 2.64610E-26
7.97965E-03 2.03522E-26
8.37255E-03 1.56163E-26
8.77480E-03 1.19588E-26
9.18641E-03 9.14604E-27
9.60736E-03 6.99291E-27
1.00376E-02 5.35293E-27
1.04773E-02 4.11038E-27
1.09262E-02 3.17408E-27
1.13844E-02 2.47240E-27
1.18520E-02 1.94926E-27
1.23288E-02 1.56095E-27
1.28150E-02 1.27358E-27
1.33104E-02 1.06104E-27
1.38150E-02 9.03356E-28
1.43290E-02 7.85370E-28
1.48521E-02 6.95701E-28
1.53845E-02 6.25905E-28
1.59262E-02 5.69808E-28
1.64770E-02 5.22976E-28
1.70371E-02 4.82297E-28
1.76063E-02 4.45648E-28
1.81848E-02 4.11639E-28
1.87724E-02 3.79415E-28
1.93692E-02 3.48492E-28
1.99751E-02 3.18649E-28
2.05901E-02 2.89833E-28
2.12143E-02 2.62093E-28
2.18476E-02 2.35535E-28
2.24900E-02 2.10284E-28
2.31415E-02 1.86465E-28
2.38021E-02 1.64183E-28
2.44717E-02 1.43521E-28
2.51504E-02 1.24528E-28
2.58382E-02 1.07225E-28
2.65349E-02 9.16028E-29
2.72407E-02 7.76246E-29
2.79555E-02 6.52314E-29
2.86793E-02 5.43451E-29
2.94120E-02 4.48731E-29
3.01537E-02 3.67121E-29
3.09043E-02 2.97520E-29
3.16639E-02 2.38794E-29
3.24324E-02 1.89807E-29
3.32098E-02 1.49441E-29
3.39961E-02 1.16620E-29
3.47912E-02 9.03268E-30
3.55952E-02 6.96099E-30
3.64081E-02 5.35961E-30
3.72297E-02 4.14930E-30
3.80602E-02 3.25912E-30
3.88995E-02 2.62642E-30
3.97476E-02 2.19657E-30
4.06044E-02 1.92262E-30
4.14700E-02 1.76480E-30
4.23443E-02 1.68998E-30
4.32273E-02 1.67100E-30
4.41190E-02 1.68611E-30
4.50194E-02 1.71830E-30
4.59284E-02 1.75466E-30
4.68461E-02 1.78581E-30
4.87074E-02 1.80919E-30
5.06030E-02 1.76351E-30
5.25328E-02 1.64894E-30
5.44967E-02 1.47964E-30
5.64946E-02 1.27571E-30
5.85262E-02 1.05774E-30
6.05914E-02 8.43563E-31
6.26901E-02 6.46617E-31
6.48222E-02 4.75583E-31
6.69873E-02 3.34713E-31
6.91854E-02 2.24627E-31
7.14163E-02 1.43269E-31
7.36799E-02 8.68718E-32
7.59760E-02 5.08042E-32
7.83043E-02 3.02490E-32
8.06647E-02 2.06918E-32
8.30571E-02 1.82300E-32
8.54812E-02 1.97273E-32
8.79369E-02 2.28472E-32
9.04240E-02 2.60002E-32
9.29422E-02 2.82377E-32
9.54915E-02 2.91191E-32
9.80716E-02 2.85745E-32
1.00682E-01 2.67774E-32
1.03323E-01 2.40354E-32
1.05995E-01 2.07058E-32
1.08696E-01 1.71342E-32
1.11427E-01 1.36155E-32
1.14188E-01 1.03741E-32
1.16978E-01 7.55779E-33
1.19797E-01 5.24306E-33
1.22645E-01 3.44601E-33
1.25522E-01 2.13683E-33
1.28428E-01 1.25475E-33
1.31361E-01 7.21989E-34
1.34323E-01 4.55326E-34
1.37313E-01 3.74990E-34
1.40330E-01 4.10690E-34
1.43375E-01 5.05039E-34
1.46447E-01 6.14798E-34
1.49545E-01 7.10464E-34
1.52671E-01 7.74712E-34
1.55823E-01 8.00170E-34
1.59001E-01 7.86946E-34
1.62205E-01 7.40198E-34
1.65435E-01 6.67965E-34
1.68690E-01 5.79386E-34
1.71970E-01 4.83359E-34
1.75276E-01 3.87634E-34
1.78606E-01 2.98296E-34
1.81961E-01 2.19573E-34
1.85340E-01 1.53886E-34
1.88743E-01 1.02070E-34
1.92169E-01 6.36907E-35
1.95619E-01 3.73981E-35
1.99092E-01 2.12731E-35
2.02589E-01 1.31357E-35
2.06107E-01 1.07953E-35
2.09649E-01 1.22359E-35
2.13212E-01 1.57369E-35
2.16797E-01 1.99357E-35
2.20404E-01 2.38427E-35
2.24032E-01 2.68196E-35
2.27680E-01 2.85334E-35
2.31350E-01 2.88969E-35
2.35040E-01 2.80040E-35
2.38751E-01 2.60676E-35
2.42481E-01 2.33643E-35
2.46231E-01 2.01890E-35
2.50000E-01 1.68209E-35
2.53788E-01 1.35001E-35
2.57595E-01 1.04146E-35
2.61421E-01 7.69553E-36
2.65264E-01 5.41894E-36
2.69126E-01 3.61209E-36
2.73005E-01 2.26260E-36
2.76901E-01 1.32876E-36
2.80814E-01 7.49760E-37
2.84744E-01 4.55030E-37
2.88691E-01 3.72075E-37
2.92653E-01 4.32502E-37
2.96632E-01 5.76210E-37
3.00625E-01 7.53871E-37
3.04634E-01 9.27908E-37
3.08658E-01 1.07232E-36
3.12697E-01 1.17161E-36
3.16749E-01 1.21921E-36
3.20816E-01 1.21554E-36
3.24896E-01 1.16610E-36
3.28990E-01 1.07962E-36
3.33097E-01 9.66429E-37
3.37216E-01 8.37131E-37
3.41348E-01 7.01616E-37
3.45492E-01 5.68377E-37
3.49647E-01 4.44118E-37
3.53814E-01 3.33611E-37
3.57992E-01 2.39750E-37
3.62181E-01 1.63747E-37
3.66381E-01 1.05411E-37
3.70590E-01 6.34787E-38
3.74810E-01 3.59417E-38
3.79039E-01 1.00000E-45
3.83277E-01 1.00000E-45
3.87524E-01 1.00000E-45
3.91780E-01 1.00000E-45
3.96044E-01 1.00000E-45
4.00316E-01 1.00000E-45
4.04596E-01 1.00000E-45
4.08882E-01 1.00000E-45
4.13176E-01 1.00000E-45
4.17476E-01 1.00000E-45
4.21783E-01 1.00000E-45
4.26095E-01 1.00000E-45
4.30413E-01 1.00000E-45
4.34737E-01 1.00000E-45
4.39065E-01 1.00000E-45
4.43398E-01 1.00000E-45
4.47736E-01 1.00000E-45
4.52077E-01 1.00000E-45
4.56422E-01 1.00000E-45
4.60770E-01 1.00000E-45
4.65122E-01 1.00000E-45
4.69476E-01 1.00000E-45
4.73832E-01 1.00000E-45
4.78190E-01 1.00000E-45
4.82550E-01 1.00000E-45
4.86912E-01 1.00000E-45
4.91274E-01 1.00000E-45
4.95637E-01 1.00000E-45
5.00000E-01 1.00000E-45
5.04363E-01 1.00000E-45
5.08726E-01 1.00000E-45
5.13088E-01 1.00000E-45
5.17450E-01 1.00000E-45
5.21810E-01 1.00000E-45
5.26168E-01 1.00000E-45
5.30524E-01 1.00000E-45
5.34878E-01 1.00000E-45
5.39230E-01 1.00000E-45
5.43578E-01 1.00000E-45
5.47923E-01 1.00000E-45
5.52264E-01 1.00000E-45
5.56602E-01 1.00000E-45
5.60935E-01 1.00000E-45
5.65263E-01 1.00000E-45
5.69587E-01 1.00000E-45
5.73905E-01 1.00000E-45
5.78217E-01 1.00000E-45
5.82524E-01 1.00000E-45
5.86824E-01 1.00000E-45
5.91118E-01 1.00000E-45
5.95404E-01 1.00000E-45
5.99684E-01 1.00000E-45
6.03956E-01 1.00000E-45
6.08220E-01 1.00000E-45
6.12476E-01 1.00000E-45
6.16723E-01 1.00000E-45
6.20961E-01 1.00000E-45
6.25190E-01 1.00000E-45
6.29410E-01 1.00000E-45
6.33619E-01 1.00000E-45
6.37819E-01 1.00000E-45
6.42008E-01 1.00000E-45
6.46186E-01 1.00000E-45
6.50353E-01 1.00000E-45
6.54508E-01 1.00000E-45
6.58652E-01 1.00000E-45
6.62784E-01 1.00000E-45
6.66903E-01 1.00000E-45
6.71010E-01 1.00000E-45
6.75104E-01 1.00000E-45
6.79184E-01 1.00000E-45
6.83251E-01 1.00000E-45
6.87303E-01 1.00000E-45
6.91342E-01 1.00000E-45
6.95366E-01 1.00000E-45
6.99375E-01 1.00000E-45
7.03368E-01 1.00000E-45
7.07347E-01 1.00000E-45
7.11309E-01 1.00000E-45
7.15256E-01 1.00000E-45
7.19186E-01 1.00000E-45
7.23099E-01 1.00000E-45
7.26995E-01 1.00000E-45
7.30874E-01 1.00000E-45
7.34736E-01 1.00000E-45
7.38579E-01 1.00000E-45
7.42405E-01 1.00000E-45
7.46212E-01 1.00000E-45
7.50000E-01 1.00000E-45
7.53769E-01 1.00000E-45
7.57519E-01 1.00000E-45
7.61249E-01 1.00000E-45
7.64960E-01 1.00000E-45
7.68650E-01 1.00000E-45
7.72320E-01 1.00000E-45
7.75968E-01 1.00000E-45
7.79596E-01 1.00000E-45
7.83203E-01 1.00000E-45
7.86788E-01 1.00000E-45
7.90351E-01 1.00000E-45
7.93893E-01 1.00000E-45
7.97411E-01 1.00000E-45
8.00908E-01 1.00000E-45
8.04381E-01 1.00000E-45
8.07831E-01 1.00000E-45
8.11257E-01 1.00000E-45
8.14660E-01 1.00000E-45
8.18039E-01 1.00000E-45
8.21394E-01 1.00000E-45
8.24724E-01 1.00000E-45
8.28030E-01 1.00000E-45
8.31310E-01 1.00000E-45
8.34565E-01 1.00000E-45
8.37795E-01 1.00000E-45
8.40999E-01 1.00000E-45
8.44177E-01 1.00000E-45
8.47329E-01 1.00000E-45
8.50455E-01 1.00000E-45
8.53553E-01 1.00000E-45
8.56625E-01 1.00000E-45
8.59670E-01 1.00000E-45
8.62687E-01 1.00000E-45
8.65677E-01 1.00000E-45
8.68639E-01 1.00000E-45
8.71572E-01 1.00000E-45
8.74478E-01 1.00000E-45
8.77355E-01 1.00000E-45
8.80203E-01 1.00000E-45
8.83022E-01 1.00000E-45
8.85812E-01 1.00000E-45
8.88573E-01 1.00000E-45
8.91304E-01 1.00000E-45
8.94005E-01 1.00000E-45
8.96677E-01 1.00000E-45
8.99318E-01 1.00000E-45
9.01928E-01 1.00000E-45
9.04508E-01 1.00000E-45
9.07058E-01 1.00000E-45
9.09576E-01 1.00000E-45
9.12063E-01 1.00000E-45
9.14519E-01 1.00000E-45
9.16943E-01 1.00000E-45
9.19335E-01 1.00000E-45
9.21696E-01 1.00000E-45
9.24024E-01 1.00000E-45
9.26320E-01 1.00000E-45
9.28584E-01 1.00000E-45
9.30815E-01 1.00000E-45
9.33013E-01 1.00000E-45
9.35178E-01 1.00000E-45
9.37310E-01 1.00000E-45
9.39409E-01 1.00000E-45
9.41474E-01 1.00000E-45
9.43505E-01 1.00000E-45
9.45503E-01 1.00000E-45
9.47467E-01 1.00000E-45
9.49397E-01 1.00000E-45
9.51293E-01 1.00000E-45
9.53154E-01 1.00000E-45
9.54981E-01 1.00000E-45
9.56773E-01 1.00000E-45
9.58530E-01 1.00000E-45
9.60252E-01 1.00000E-45
9.61940E-01 1.00000E-45
9.63592E-01 1.00000E-45
9.65209E-01 1.00000E-45
9.66790E-01 1.00000E-45
9.68336E-01 1.00000E-45
9.69846E-01 1.00000E-45
9.71321E-01 1.00000E-45
9.72759E-01 1.00000E-45
9.74162E-01 1.00000E-45
9.75528E-01 1.00000E-45
9.76858E-01 1.00000E-45
9.78152E-01 1.00000E-45
9.79410E-01 1.00000E-45
9.80631E-01 1.00000E-45
9.81815E-01 1.00000E-45
9.82963E-01 1.00000E-45
9.84074E-01 1.00000E-45
9.85148E-01 1.00000E-45
9.86185E-01 1.00000E-45
9.87185E-01 1.00000E-45
9.88148E-01 1.00000E-45
9.89074E-01 1.00000E-45
9.89962E-01 1.00000E-45
9.90814E-01 1.00000E-45
9.91627E-01 1.00000E-45
9.92404E-01 1.00000E-45
9.93143E-01 1.00000E-45
9.93844E-01 1.00000E-45
9.94508E-01 1.00000E-45
9.95134E-01 1.00000E-45
9.95722E-01 1.00000E-45
9.96273E-01 1.00000E-45
9.96786E-01 1.00000E-45
9.97261E-01 1.00000E-45
9.97698E-01 1.00000E-45
9.98097E-01 1.00000E-45
9.98459E-01 1.00000E-45
9.98782E-01 1.00000E-45
9.99067E-01 1.00000E-45
9.99315E-01 1.00000E-45
9.99524E-01 1.00000E-45
9.99695E-01 1.00000E-45
9.99829E-01 1.00000E-45
9.99924E-01 1.00000E-45
9.99981E-01 1.00000E-45
1.00000E+00 1.00000E-45
