 #
 # Subroutine ELSEPA. Elastic scattering of electrons and positrons
 #                    by neutral atoms and positive ions
 #
 # Projectile: electron
 # Kinetic energy = 8.00000E+07 eV = 2.93995E+06 a.u.
 #
 # WARNING: High-energy factorization with free-atom DF screening.
 #          Absorption, polarization and exchange corrections are
 #          switched off.
 #          Phase shifts are calculated for the bare nucleus.
 #          Scattering amplitudes are not evaluated.
 #
 # Element: Cd,  Z =  48,  atomic weight = 1.12411E+02 g/mol
 #
 # Nuclear model: Fermi distribution
 #                Average radius = 5.16401E-13 cm
 #                Skin thickness = 5.46000E-14 cm
 #
 # Number of electrons = 48
 #
 # Total elastic cross section = 4.49888E-18 cm**2 = 1.60658E-01 a0**2
 # 1st transport cross section = 7.04617E-25 cm**2 = 2.51623E-08 a0**2
 # 2nd transport cross section = 2.08897E-24 cm**2 = 7.45986E-08 a0**2
 #
 #
 # Differential cross section:                       MU=(1-COS(THETA))/2
 #
 #  THETA        MU          DCS          DCS        Sherman      error
 #  (deg)                 (cm**2/sr)   (a0**2/sr)    function
 #----------------------------------------------------------------------
0.00000E+00 2.04802E-10
7.61557E-13 2.04510E-10
1.18994E-12 2.04347E-10
1.71346E-12 2.04148E-10
2.33225E-12 2.03913E-10
3.04617E-12 2.03644E-10
3.85530E-12 2.03338E-10
4.75964E-12 2.02998E-10
5.75917E-12 2.02624E-10
6.85391E-12 2.02215E-10
8.04379E-12 2.01773E-10
9.32893E-12 2.01297E-10
1.07092E-11 2.00788E-10
1.21847E-11 2.00246E-10
1.37554E-11 1.99672E-10
1.54213E-11 1.99067E-10
1.71823E-11 1.98431E-10
1.90386E-11 1.97765E-10
2.09900E-11 1.97068E-10
2.30367E-11 1.96343E-10
2.51785E-11 1.95589E-10
2.74156E-11 1.94806E-10
2.97478E-11 1.93997E-10
3.21752E-11 1.93161E-10
3.46979E-11 1.92299E-10
3.73157E-11 1.91405E-10
4.00286E-11 1.90487E-10
4.28368E-11 1.89547E-10
4.57402E-11 1.88588E-10
4.87388E-11 1.87609E-10
5.18325E-11 1.86613E-10
5.50215E-11 1.85600E-10
5.83057E-11 1.84547E-10
6.16850E-11 1.83476E-10
6.51595E-11 1.82391E-10
6.87293E-11 1.81293E-10
7.23943E-11 1.80182E-10
7.61544E-11 1.79059E-10
1.18991E-10 1.67016E-10
1.71347E-10 1.54205E-10
2.33223E-10 1.41224E-10
3.04617E-10 1.28585E-10
3.85531E-10 1.16618E-10
4.75965E-10 1.05508E-10
5.75917E-10 9.53730E-11
6.85389E-10 8.61851E-11
8.04380E-10 7.79566E-11
9.32891E-10 7.05648E-11
1.07092E-09 6.39913E-11
1.21847E-09 5.80898E-11
1.37554E-09 5.28399E-11
1.54213E-09 4.81208E-11
1.71823E-09 4.39033E-11
1.90386E-09 4.01023E-11
2.09900E-09 3.66859E-11
2.30367E-09 3.35983E-11
2.51785E-09 3.08078E-11
2.74156E-09 2.82797E-11
2.97478E-09 2.59836E-11
3.21752E-09 2.38995E-11
3.46978E-09 2.19990E-11
3.73156E-09 2.01436E-11
4.00286E-09 1.84651E-11
4.28368E-09 1.69909E-11
4.57402E-09 1.56910E-11
4.87388E-09 1.45407E-11
5.18326E-09 1.35191E-11
5.50215E-09 1.26086E-11
5.83057E-09 1.16320E-11
6.16850E-09 1.07494E-11
6.51596E-09 9.96122E-12
6.87293E-09 9.25537E-12
7.23942E-09 8.62145E-12
7.61544E-09 8.05057E-12
1.18991E-08 4.11838E-12
1.71347E-08 2.30973E-12
2.33223E-08 1.40662E-12
3.04617E-08 9.16830E-13
3.85531E-08 6.28950E-13
4.75965E-08 4.47575E-13
5.75917E-08 3.27433E-13
6.85389E-08 2.44354E-13
8.04380E-08 1.85627E-13
9.32891E-08 1.42977E-13
1.07092E-07 1.11652E-13
1.21847E-07 8.82529E-14
1.37554E-07 7.06338E-14
1.54213E-07 5.71472E-14
1.71823E-07 4.67233E-14
1.90386E-07 3.85647E-14
2.09900E-07 3.21205E-14
2.30367E-07 2.69788E-14
2.51785E-07 2.28375E-14
2.74156E-07 1.94700E-14
2.97478E-07 1.67066E-14
3.21752E-07 1.44207E-14
3.46978E-07 1.25150E-14
3.73156E-07 1.09118E-14
4.00286E-07 9.56216E-15
4.28368E-07 8.42118E-15
4.57402E-07 7.43823E-15
4.87388E-07 6.59865E-15
5.18325E-07 5.87519E-15
5.50215E-07 5.24517E-15
5.83057E-07 4.69963E-15
6.16850E-07 4.22211E-15
6.51596E-07 3.80309E-15
6.87293E-07 3.43608E-15
7.23942E-07 3.11046E-15
7.61543E-07 2.82283E-15
1.18991E-06 1.19202E-15
1.71347E-06 5.84905E-16
2.33223E-06 3.19344E-16
3.04617E-06 1.88830E-16
3.85531E-06 1.18728E-16
4.75964E-06 7.83646E-17
5.75916E-06 5.37989E-17
6.85388E-06 3.81534E-17
8.04378E-06 2.78052E-17
9.32888E-06 2.07399E-17
1.07092E-05 1.57827E-17
1.21846E-05 1.22217E-17
1.37553E-05 9.61037E-18
1.54212E-05 7.66049E-18
1.71822E-05 6.18077E-18
1.90385E-05 5.04030E-18
2.09899E-05 4.15330E-18
2.30365E-05 3.45277E-18
2.51783E-05 2.89344E-18
2.74153E-05 2.44256E-18
2.97475E-05 2.07599E-18
3.21749E-05 1.77564E-18
3.46974E-05 1.52776E-18
3.73152E-05 1.32175E-18
4.00281E-05 1.14940E-18
4.28362E-05 1.00429E-18
4.57395E-05 8.81363E-19
4.87380E-05 7.76659E-19
5.18317E-05 6.87018E-19
5.50205E-05 6.09924E-19
5.83045E-05 5.43336E-19
6.16838E-05 4.85598E-19
6.51582E-05 4.35339E-19
6.87277E-05 3.91431E-19
7.23925E-05 3.52930E-19
7.61524E-05 3.19225E-19
9.21439E-05 2.18317E-19
1.09658E-04 1.54320E-19
1.28695E-04 1.12166E-19
1.49255E-04 8.34740E-20
1.71338E-04 6.34067E-20
1.94942E-04 4.90265E-20
2.20070E-04 3.85052E-20
2.46720E-04 3.06638E-20
2.74892E-04 2.47223E-20
3.04586E-04 2.01546E-20
3.35803E-04 1.65958E-20
3.68542E-04 1.37900E-20
4.02802E-04 1.15537E-20
4.38585E-04 9.75354E-21
4.75889E-04 8.29125E-21
5.14715E-04 7.09343E-21
5.55063E-04 6.10468E-21
5.96931E-04 5.28265E-21
6.40321E-04 4.59468E-21
6.85233E-04 4.01536E-21
7.31665E-04 3.52469E-21
7.79618E-04 3.10689E-21
8.29092E-04 2.74931E-21
8.80086E-04 2.44184E-21
9.32601E-04 2.17626E-21
9.86636E-04 1.94589E-21
1.04219E-03 1.74529E-21
1.09927E-03 1.56993E-21
1.15786E-03 1.41611E-21
1.21797E-03 1.28071E-21
1.27961E-03 1.16116E-21
1.34276E-03 1.05526E-21
1.40743E-03 9.61195E-22
1.47362E-03 8.77400E-22
1.54133E-03 8.02567E-22
1.61056E-03 7.35555E-22
1.68131E-03 6.75418E-22
1.75357E-03 6.21311E-22
1.82735E-03 5.72530E-22
1.90265E-03 5.28453E-22
1.97947E-03 4.88547E-22
2.05780E-03 4.52346E-22
2.13765E-03 4.19443E-22
2.21902E-03 3.89486E-22
2.30190E-03 3.62160E-22
2.38630E-03 3.37196E-22
2.47222E-03 3.14349E-22
2.55965E-03 2.93409E-22
2.64859E-03 2.74187E-22
2.73905E-03 2.56517E-22
2.83103E-03 2.40250E-22
2.92452E-03 2.25254E-22
3.01952E-03 2.11412E-22
3.11604E-03 1.98619E-22
3.21407E-03 1.86780E-22
3.31362E-03 1.75811E-22
3.41468E-03 1.65637E-22
3.51725E-03 1.56189E-22
3.62133E-03 1.47406E-22
3.72692E-03 1.39232E-22
3.83403E-03 1.31618E-22
3.94265E-03 1.24518E-22
4.05278E-03 1.17890E-22
4.16442E-03 1.11697E-22
4.27757E-03 1.05907E-22
4.39223E-03 1.00486E-22
4.50840E-03 9.54084E-23
4.62608E-03 9.06473E-23
4.74527E-03 8.61795E-23
4.86597E-03 8.19835E-23
4.98817E-03 7.80396E-23
5.11188E-03 7.43300E-23
5.23711E-03 7.08381E-23
5.36383E-03 6.75486E-23
5.49207E-03 6.44477E-23
5.62181E-03 6.15225E-23
5.75306E-03 5.87611E-23
5.88581E-03 5.61528E-23
6.02007E-03 5.36873E-23
6.15583E-03 5.13554E-23
6.29310E-03 4.91485E-23
6.43187E-03 4.70586E-23
6.57214E-03 4.50783E-23
6.71392E-03 4.32008E-23
6.85720E-03 4.14198E-23
7.00198E-03 3.97294E-23
7.14827E-03 3.81240E-23
7.29605E-03 3.65986E-23
7.44534E-03 3.51485E-23
7.59612E-03 3.37692E-23
7.97965E-03 3.06045E-23
8.37255E-03 2.78005E-23
8.77480E-03 2.53087E-23
9.18641E-03 2.30885E-23
9.60736E-03 2.11050E-23
1.00376E-02 1.93286E-23
1.04773E-02 1.77338E-23
1.09262E-02 1.62989E-23
1.13844E-02 1.50050E-23
1.18520E-02 1.38357E-23
1.23288E-02 1.27771E-23
1.28150E-02 1.18166E-23
1.33104E-02 1.09437E-23
1.38150E-02 1.01490E-23
1.43290E-02 9.42412E-24
1.48521E-02 8.76195E-24
1.53845E-02 8.15607E-24
1.59262E-02 7.60085E-24
1.64770E-02 7.09130E-24
1.70371E-02 6.62301E-24
1.76063E-02 6.19204E-24
1.81848E-02 5.79490E-24
1.87724E-02 5.42846E-24
1.93692E-02 5.08992E-24
1.99751E-02 4.77679E-24
2.05901E-02 4.48682E-24
2.12143E-02 4.21801E-24
2.18476E-02 3.96853E-24
2.24900E-02 3.73675E-24
2.31415E-02 3.52120E-24
2.38021E-02 3.32053E-24
2.44717E-02 3.13355E-24
2.51504E-02 2.95915E-24
2.58382E-02 2.79635E-24
2.65349E-02 2.64423E-24
2.72407E-02 2.50198E-24
2.79555E-02 2.36884E-24
2.86793E-02 2.24413E-24
2.94120E-02 2.12722E-24
3.01537E-02 2.01755E-24
3.09043E-02 1.91458E-24
3.16639E-02 1.81784E-24
3.24324E-02 1.72688E-24
3.32098E-02 1.64130E-24
3.39961E-02 1.56074E-24
3.47912E-02 1.48484E-24
3.55952E-02 1.41329E-24
3.64081E-02 1.34580E-24
3.72297E-02 1.28210E-24
3.80602E-02 1.22194E-24
3.88995E-02 1.16510E-24
3.97476E-02 1.11135E-24
4.06044E-02 1.06051E-24
4.14700E-02 1.01238E-24
4.23443E-02 9.66809E-25
4.32273E-02 9.23630E-25
4.41190E-02 8.82698E-25
4.50194E-02 8.43877E-25
4.59284E-02 8.07042E-25
4.68461E-02 7.72073E-25
4.87074E-02 7.07306E-25
5.06030E-02 6.48782E-25
5.25328E-02 5.95812E-25
5.44967E-02 5.47790E-25
5.64946E-02 5.04187E-25
5.85262E-02 4.64538E-25
6.05914E-02 4.28432E-25
6.26901E-02 3.95508E-25
6.48222E-02 3.65446E-25
6.69873E-02 3.37964E-25
6.91854E-02 3.12809E-25
7.14163E-02 2.89758E-25
7.36799E-02 2.68610E-25
7.59760E-02 2.49189E-25
7.83043E-02 2.31335E-25
8.06647E-02 2.14904E-25
8.30571E-02 1.99770E-25
8.54812E-02 1.85817E-25
8.79369E-02 1.72941E-25
9.04240E-02 1.61049E-25
9.29422E-02 1.50057E-25
9.54915E-02 1.39889E-25
9.80716E-02 1.30476E-25
1.00682E-01 1.21755E-25
1.03323E-01 1.13670E-25
1.05995E-01 1.06169E-25
1.08696E-01 9.92053E-26
1.11427E-01 9.27367E-26
1.14188E-01 8.67241E-26
1.16978E-01 8.11320E-26
1.19797E-01 7.59280E-26
1.22645E-01 7.10827E-26
1.25522E-01 6.65687E-26
1.28428E-01 6.23615E-26
1.31361E-01 5.84380E-26
1.34323E-01 5.47776E-26
1.37313E-01 5.13609E-26
1.40330E-01 4.81704E-26
1.43375E-01 4.51897E-26
1.46447E-01 4.24040E-26
1.49545E-01 3.97995E-26
1.52671E-01 3.73634E-26
1.55823E-01 3.50840E-26
1.59001E-01 3.29505E-26
1.62205E-01 3.09528E-26
1.65435E-01 2.90818E-26
1.68690E-01 2.73287E-26
1.71970E-01 2.56857E-26
1.75276E-01 2.41454E-26
1.78606E-01 2.27010E-26
1.81961E-01 2.13461E-26
1.85340E-01 2.00749E-26
1.88743E-01 1.88819E-26
1.92169E-01 1.77620E-26
1.95619E-01 1.67105E-26
1.99092E-01 1.57230E-26
2.02589E-01 1.47954E-26
2.06107E-01 1.39239E-26
2.09649E-01 1.31049E-26
2.13212E-01 1.23352E-26
2.16797E-01 1.16116E-26
2.20404E-01 1.09313E-26
2.24032E-01 1.02915E-26
2.27680E-01 9.68982E-27
2.31350E-01 9.12384E-27
2.35040E-01 8.59139E-27
2.38751E-01 8.09040E-27
2.42481E-01 7.61896E-27
2.46231E-01 7.17527E-27
2.50000E-01 6.75766E-27
2.53788E-01 6.36455E-27
2.57595E-01 5.99447E-27
2.61421E-01 5.64603E-27
2.65264E-01 5.31795E-27
2.69126E-01 5.00900E-27
2.73005E-01 4.71806E-27
2.76901E-01 4.44404E-27
2.80814E-01 4.18596E-27
2.84744E-01 3.94287E-27
2.88691E-01 3.71389E-27
2.92653E-01 3.49819E-27
2.96632E-01 3.29499E-27
3.00625E-01 3.10355E-27
3.04634E-01 2.92320E-27
3.08658E-01 2.75329E-27
3.12697E-01 2.59320E-27
3.16749E-01 2.44237E-27
3.20816E-01 2.30026E-27
3.24896E-01 2.16637E-27
3.28990E-01 2.04021E-27
3.33097E-01 1.92135E-27
3.37216E-01 1.80935E-27
3.41348E-01 1.70384E-27
3.45492E-01 1.60442E-27
3.49647E-01 1.51075E-27
3.53814E-01 1.42251E-27
3.57992E-01 1.33937E-27
3.62181E-01 1.26104E-27
3.66381E-01 1.18726E-27
3.70590E-01 1.11775E-27
3.74810E-01 1.05227E-27
3.79039E-01 9.90591E-28
3.83277E-01 9.32496E-28
3.87524E-01 8.77778E-28
3.91780E-01 8.26244E-28
3.96044E-01 7.77711E-28
4.00316E-01 7.32006E-28
4.04596E-01 6.88968E-28
4.08882E-01 6.48443E-28
4.13176E-01 6.10287E-28
4.17476E-01 5.74364E-28
4.21783E-01 5.40545E-28
4.26095E-01 5.08711E-28
4.30413E-01 4.78746E-28
4.34737E-01 4.50543E-28
4.39065E-01 4.24000E-28
4.43398E-01 3.99023E-28
4.47736E-01 3.75519E-28
4.52077E-01 3.53405E-28
4.56422E-01 3.32600E-28
4.60770E-01 3.13027E-28
4.65122E-01 2.94617E-28
4.69476E-01 2.77301E-28
4.73832E-01 2.61015E-28
4.78190E-01 2.45700E-28
4.82550E-01 2.31300E-28
4.86912E-01 2.17760E-28
4.91274E-01 2.05031E-28
4.95637E-01 1.93065E-28
5.00000E-01 1.81818E-28
5.04363E-01 1.71246E-28
5.08726E-01 1.61312E-28
5.13088E-01 1.51976E-28
5.17450E-01 1.43204E-28
5.21810E-01 1.34962E-28
5.26168E-01 1.27219E-28
5.30524E-01 1.19945E-28
5.34878E-01 1.13113E-28
5.39230E-01 1.06696E-28
5.43578E-01 1.00669E-28
5.47923E-01 9.50090E-29
5.52264E-01 8.96939E-29
5.56602E-01 8.47030E-29
5.60935E-01 8.00167E-29
5.65263E-01 7.56166E-29
5.69587E-01 7.14855E-29
5.73905E-01 6.76069E-29
5.78217E-01 6.39656E-29
5.82524E-01 6.05470E-29
5.86824E-01 5.73376E-29
5.91118E-01 5.43244E-29
5.95404E-01 5.14956E-29
5.99684E-01 4.88396E-29
6.03956E-01 4.63459E-29
6.08220E-01 4.40043E-29
6.12476E-01 4.18055E-29
6.16723E-01 3.97405E-29
6.20961E-01 3.78011E-29
6.25190E-01 3.59792E-29
6.29410E-01 3.42676E-29
6.33619E-01 3.26593E-29
6.37819E-01 3.11479E-29
6.42008E-01 2.97271E-29
6.46186E-01 2.83912E-29
6.50353E-01 2.71348E-29
6.54508E-01 2.59530E-29
6.58652E-01 2.48408E-29
6.62784E-01 2.37938E-29
6.66903E-01 2.28079E-29
6.71010E-01 2.18790E-29
6.75104E-01 2.10036E-29
6.79184E-01 2.01782E-29
6.83251E-01 1.93995E-29
6.87303E-01 1.86645E-29
6.91342E-01 1.79704E-29
6.95366E-01 1.73144E-29
6.99375E-01 1.66941E-29
7.03368E-01 1.61072E-29
7.07347E-01 1.55514E-29
7.11309E-01 1.50248E-29
7.15256E-01 1.45254E-29
7.19186E-01 1.40514E-29
7.23099E-01 1.36012E-29
7.26995E-01 1.31731E-29
7.30874E-01 1.27658E-29
7.34736E-01 1.23779E-29
7.38579E-01 1.20080E-29
7.42405E-01 1.16551E-29
7.46212E-01 1.13180E-29
7.50000E-01 1.09956E-29
7.53769E-01 1.06870E-29
7.57519E-01 1.03913E-29
7.61249E-01 1.01077E-29
7.64960E-01 9.83542E-30
7.68650E-01 9.57367E-30
7.72320E-01 9.32180E-30
7.75968E-01 9.07920E-30
7.79596E-01 8.84527E-30
7.83203E-01 8.61947E-30
7.86788E-01 8.40130E-30
7.90351E-01 8.19029E-30
7.93893E-01 7.98600E-30
7.97411E-01 7.78803E-30
8.00908E-01 7.59601E-30
8.04381E-01 7.40959E-30
8.07831E-01 7.22844E-30
8.11257E-01 7.05227E-30
8.14660E-01 6.88081E-30
8.18039E-01 6.71379E-30
8.21394E-01 6.55098E-30
8.24724E-01 6.39217E-30
8.28030E-01 6.23714E-30
8.31310E-01 6.08572E-30
8.34565E-01 5.93773E-30
8.37795E-01 5.79300E-30
8.40999E-01 5.65141E-30
8.44177E-01 5.51280E-30
8.47329E-01 5.37705E-30
8.50455E-01 5.24405E-30
8.53553E-01 5.11369E-30
8.56625E-01 4.98588E-30
8.59670E-01 4.86052E-30
8.62687E-01 4.73752E-30
8.65677E-01 4.61682E-30
8.68639E-01 4.49834E-30
8.71572E-01 4.38202E-30
8.74478E-01 4.26780E-30
8.77355E-01 4.15562E-30
8.80203E-01 4.04543E-30
8.83022E-01 3.93718E-30
8.85812E-01 3.83084E-30
8.88573E-01 3.72635E-30
8.91304E-01 3.62369E-30
8.94005E-01 3.52282E-30
8.96677E-01 3.42372E-30
8.99318E-01 3.32634E-30
9.01928E-01 3.23066E-30
9.04508E-01 3.13666E-30
9.07058E-01 3.04432E-30
9.09576E-01 2.95360E-30
9.12063E-01 2.86451E-30
9.14519E-01 2.77700E-30
9.16943E-01 2.69107E-30
9.19335E-01 2.60670E-30
9.21696E-01 2.52388E-30
9.24024E-01 2.44258E-30
9.26320E-01 2.36280E-30
9.28584E-01 2.28452E-30
9.30815E-01 2.20773E-30
9.33013E-01 2.13242E-30
9.35178E-01 2.05857E-30
9.37310E-01 1.98617E-30
9.39409E-01 1.91522E-30
9.41474E-01 1.84570E-30
9.43505E-01 1.77761E-30
9.45503E-01 1.71092E-30
9.47467E-01 1.64565E-30
9.49397E-01 1.58176E-30
9.51293E-01 1.51926E-30
9.53154E-01 1.45814E-30
9.54981E-01 1.39839E-30
9.56773E-01 1.33999E-30
9.58530E-01 1.28295E-30
9.60252E-01 1.22725E-30
9.61940E-01 1.17288E-30
9.63592E-01 1.11984E-30
9.65209E-01 1.06812E-30
9.66790E-01 1.01771E-30
9.68336E-01 9.68601E-31
9.69846E-01 9.20790E-31
9.71321E-01 8.74268E-31
9.72759E-01 8.29026E-31
9.74162E-01 7.85059E-31
9.75528E-01 7.42359E-31
9.76858E-01 7.00918E-31
9.78152E-01 6.60730E-31
9.79410E-01 6.21789E-31
9.80631E-01 5.84087E-31
9.81815E-01 5.47618E-31
9.82963E-01 5.12375E-31
9.84074E-01 4.78353E-31
9.85148E-01 4.45545E-31
9.86185E-01 4.13946E-31
9.87185E-01 3.83549E-31
9.88148E-01 3.54349E-31
9.89074E-01 3.26340E-31
9.89962E-01 2.99518E-31
9.90814E-01 2.73876E-31
9.91627E-01 2.49410E-31
9.92404E-01 2.26115E-31
9.93143E-01 2.03987E-31
9.93844E-01 1.83021E-31
9.94508E-01 1.63213E-31
9.95134E-01 1.44559E-31
9.95722E-01 1.27054E-31
9.96273E-01 1.10697E-31
9.96786E-01 9.54820E-32
9.97261E-01 8.14073E-32
9.97698E-01 6.84696E-32
9.98097E-01 5.66661E-32
9.98459E-01 4.59943E-32
9.98782E-01 3.64521E-32
9.99067E-01 2.80373E-32
9.99315E-01 2.07481E-32
9.99524E-01 1.45830E-32
9.99695E-01 9.54060E-33
9.99829E-01 5.61990E-33
9.99924E-01 2.82000E-33
9.99981E-01 1.14030E-33
1.00000E+00 5.80450E-34
