 #
 # Subroutine ELSEPA. Elastic scattering of electrons and positrons
 #                    by neutral atoms and positive ions
 #
 # Projectile: electron
 # Kinetic energy = 2.50000E+07 eV = 9.18733E+05 a.u.
 #
 # WARNING: High-energy factorization with free-atom DF screening.
 #          Absorption, polarization and exchange corrections are
 #          switched off.
 #          Phase shifts are calculated for the bare nucleus.
 #          Scattering amplitudes are not evaluated.
 #
 # Element: Cd,  Z =  48,  atomic weight = 1.12411E+02 g/mol
 #
 # Nuclear model: Fermi distribution
 #                Average radius = 5.16401E-13 cm
 #                Skin thickness = 5.46000E-14 cm
 #
 # Number of electrons = 48
 #
 # Total elastic cross section = 4.49892E-18 cm**2 = 1.60659E-01 a0**2
 # 1st transport cross section = 6.76635E-24 cm**2 = 2.41631E-07 a0**2
 # 2nd transport cross section = 1.94369E-23 cm**2 = 6.94105E-07 a0**2
 #
 #
 # Differential cross section:                       MU=(1-COS(THETA))/2
 #
 #  THETA        MU          DCS          DCS        Sherman      error
 #  (deg)                 (cm**2/sr)   (a0**2/sr)    function
 #----------------------------------------------------------------------
0.00000E+00 2.05626E-11
7.61557E-13 2.05596E-11
1.18994E-12 2.05580E-11
1.71346E-12 2.05559E-11
2.33225E-12 2.05536E-11
3.04617E-12 2.05508E-11
3.85530E-12 2.05477E-11
4.75964E-12 2.05442E-11
5.75917E-12 2.05404E-11
6.85391E-12 2.05362E-11
8.04379E-12 2.05316E-11
9.32893E-12 2.05267E-11
1.07092E-11 2.05214E-11
1.21847E-11 2.05157E-11
1.37554E-11 2.05097E-11
1.54213E-11 2.05033E-11
1.71823E-11 2.04966E-11
1.90386E-11 2.04895E-11
2.09900E-11 2.04820E-11
2.30367E-11 2.04742E-11
2.51785E-11 2.04661E-11
2.74156E-11 2.04575E-11
2.97478E-11 2.04487E-11
3.21752E-11 2.04394E-11
3.46979E-11 2.04299E-11
3.73157E-11 2.04199E-11
4.00286E-11 2.04096E-11
4.28368E-11 2.03990E-11
4.57402E-11 2.03880E-11
4.87388E-11 2.03766E-11
5.18325E-11 2.03650E-11
5.50215E-11 2.03529E-11
5.83057E-11 2.03405E-11
6.16850E-11 2.03278E-11
6.51595E-11 2.03147E-11
6.87293E-11 2.03013E-11
7.23943E-11 2.02876E-11
7.61544E-11 2.02735E-11
1.18991E-10 2.01142E-11
1.71347E-10 1.99226E-11
2.33223E-10 1.97003E-11
3.04617E-10 1.94493E-11
3.85531E-10 1.91707E-11
4.75965E-10 1.88682E-11
5.75917E-10 1.85453E-11
6.85389E-10 1.82006E-11
8.04380E-10 1.78424E-11
9.32891E-10 1.74653E-11
1.07092E-09 1.70812E-11
1.21847E-09 1.66819E-11
1.37554E-09 1.62801E-11
1.54213E-09 1.58689E-11
1.71823E-09 1.54579E-11
1.90386E-09 1.50432E-11
2.09900E-09 1.46304E-11
2.30367E-09 1.42191E-11
2.51785E-09 1.38106E-11
2.74156E-09 1.34084E-11
2.97478E-09 1.30092E-11
3.21752E-09 1.26204E-11
3.46978E-09 1.22344E-11
3.73156E-09 1.18620E-11
4.00286E-09 1.14921E-11
4.28368E-09 1.11368E-11
4.57402E-09 1.07860E-11
4.87388E-09 1.04487E-11
5.18326E-09 1.01184E-11
5.50215E-09 9.79988E-12
5.83057E-09 9.49008E-12
6.16850E-09 9.19050E-12
6.51596E-09 8.90098E-12
6.87293E-09 8.62003E-12
7.23942E-09 8.35013E-12
7.61544E-09 8.08723E-12
1.18991E-08 5.92305E-12
1.71347E-08 4.40497E-12
2.33223E-08 3.32198E-12
3.04617E-08 2.53478E-12
3.85531E-08 1.93352E-12
4.75965E-08 1.49548E-12
5.75917E-08 1.18235E-12
6.85389E-08 9.28265E-13
8.04380E-08 7.45577E-13
9.32891E-08 5.95819E-13
1.07092E-07 4.85602E-13
1.21847E-07 3.96099E-13
1.37554E-07 3.27791E-13
1.54213E-07 2.72912E-13
1.71823E-07 2.29597E-13
1.90386E-07 1.94637E-13
2.09900E-07 1.66358E-13
2.30367E-07 1.43257E-13
2.51785E-07 1.24178E-13
2.74156E-07 1.08377E-13
2.97478E-07 9.50659E-14
3.21752E-07 8.39072E-14
3.46978E-07 7.43198E-14
3.73156E-07 6.62088E-14
4.00286E-07 5.91046E-14
4.28368E-07 5.30338E-14
4.57402E-07 4.76643E-14
4.87388E-07 4.30131E-14
5.18325E-07 3.88801E-14
5.50215E-07 3.52504E-14
5.83057E-07 3.20179E-14
6.16850E-07 2.91435E-14
6.51596E-07 2.65813E-14
6.87293E-07 2.42784E-14
7.23942E-07 2.22248E-14
7.61543E-07 2.03625E-14
1.18991E-06 9.19770E-15
1.71347E-06 4.68660E-15
2.33223E-06 2.63086E-15
3.04617E-06 1.59490E-15
3.85531E-06 1.02426E-15
4.75964E-06 6.88816E-16
5.75916E-06 4.80249E-16
6.85388E-06 3.44880E-16
8.04378E-06 2.53790E-16
9.32888E-06 1.90759E-16
1.07092E-05 1.46063E-16
1.21846E-05 1.13679E-16
1.37553E-05 8.97662E-17
1.54212E-05 7.18085E-17
1.71822E-05 5.81143E-17
1.90385E-05 4.75179E-17
2.09899E-05 3.92509E-17
2.30365E-05 3.27039E-17
2.51783E-05 2.74637E-17
2.74153E-05 2.32301E-17
2.97475E-05 1.97808E-17
3.21749E-05 1.69490E-17
3.46974E-05 1.46077E-17
3.73152E-05 1.26587E-17
4.00281E-05 1.10254E-17
4.28362E-05 9.64806E-18
4.57395E-05 8.47950E-18
4.87380E-05 7.48251E-18
5.18317E-05 6.62776E-18
5.50205E-05 5.89157E-18
5.83045E-05 5.25486E-18
6.16838E-05 4.70201E-18
6.51582E-05 4.22016E-18
6.87277E-05 3.79861E-18
7.23925E-05 3.42853E-18
7.61524E-05 3.10279E-18
9.21439E-05 2.12938E-18
1.09658E-04 1.50952E-18
1.28695E-04 1.09980E-18
1.49255E-04 8.20096E-19
1.71338E-04 6.23966E-19
1.94942E-04 4.83113E-19
2.20070E-04 3.79868E-19
2.46720E-04 3.02799E-19
2.74892E-04 2.44325E-19
3.04586E-04 1.99319E-19
3.35803E-04 1.64219E-19
3.68542E-04 1.36523E-19
4.02802E-04 1.14432E-19
4.38585E-04 9.66372E-20
4.75889E-04 8.21752E-20
5.14715E-04 7.03229E-20
5.55063E-04 6.05355E-20
5.96931E-04 5.23953E-20
6.40321E-04 4.55806E-20
6.85233E-04 3.98404E-20
7.31665E-04 3.49776E-20
7.79618E-04 3.08360E-20
8.29092E-04 2.72907E-20
8.80086E-04 2.42417E-20
9.32601E-04 2.16078E-20
9.86636E-04 1.93228E-20
1.04219E-03 1.73328E-20
1.09927E-03 1.55932E-20
1.15786E-03 1.40669E-20
1.21797E-03 1.27234E-20
1.27961E-03 1.15369E-20
1.34276E-03 1.04860E-20
1.40743E-03 9.55245E-21
1.47362E-03 8.72081E-21
1.54133E-03 7.97801E-21
1.61056E-03 7.31290E-21
1.68131E-03 6.71590E-21
1.75357E-03 6.17881E-21
1.82735E-03 5.69453E-21
1.90265E-03 5.25696E-21
1.97947E-03 4.86078E-21
2.05780E-03 4.50136E-21
2.13765E-03 4.17469E-21
2.21902E-03 3.87724E-21
2.30190E-03 3.60591E-21
2.38630E-03 3.35801E-21
2.47222E-03 3.13115E-21
2.55965E-03 2.92320E-21
2.64859E-03 2.73231E-21
2.73905E-03 2.55682E-21
2.83103E-03 2.39526E-21
2.92452E-03 2.24632E-21
3.01952E-03 2.10883E-21
3.11604E-03 1.98175E-21
3.21407E-03 1.86415E-21
3.31362E-03 1.75519E-21
3.41468E-03 1.65411E-21
3.51725E-03 1.56025E-21
3.62133E-03 1.47298E-21
3.72692E-03 1.39176E-21
3.83403E-03 1.31609E-21
3.94265E-03 1.24552E-21
4.05278E-03 1.17965E-21
4.16442E-03 1.11810E-21
4.27757E-03 1.06053E-21
4.39223E-03 1.00664E-21
4.50840E-03 9.56154E-22
4.62608E-03 9.08809E-22
4.74527E-03 8.64376E-22
4.86597E-03 8.22643E-22
4.98817E-03 7.83414E-22
5.11188E-03 7.46509E-22
5.23711E-03 7.11765E-22
5.36383E-03 6.79031E-22
5.49207E-03 6.48169E-22
5.62181E-03 6.19053E-22
5.75306E-03 5.91564E-22
5.88581E-03 5.65594E-22
6.02007E-03 5.41043E-22
6.15583E-03 5.17817E-22
6.29310E-03 4.95833E-22
6.43187E-03 4.75011E-22
6.57214E-03 4.55278E-22
6.71392E-03 4.36567E-22
6.85720E-03 4.18814E-22
7.00198E-03 4.01960E-22
7.14827E-03 3.85952E-22
7.29605E-03 3.70737E-22
7.44534E-03 3.56270E-22
7.59612E-03 3.42508E-22
7.97965E-03 3.10919E-22
8.37255E-03 2.82914E-22
8.77480E-03 2.58013E-22
9.18641E-03 2.35811E-22
9.60736E-03 2.15963E-22
1.00376E-02 1.98176E-22
1.04773E-02 1.82195E-22
1.09262E-02 1.67805E-22
1.13844E-02 1.54819E-22
1.18520E-02 1.43074E-22
1.23288E-02 1.32430E-22
1.28150E-02 1.22765E-22
1.33104E-02 1.13973E-22
1.38150E-02 1.05960E-22
1.43290E-02 9.86441E-23
1.48521E-02 9.19534E-23
1.53845E-02 8.58257E-23
1.59262E-02 8.02029E-23
1.64770E-02 7.50377E-23
1.70371E-02 7.02842E-23
1.76063E-02 6.59044E-23
1.81848E-02 6.18632E-23
1.87724E-02 5.81292E-23
1.93692E-02 5.46751E-23
1.99751E-02 5.14756E-23
2.05901E-02 4.85087E-23
2.12143E-02 4.57540E-23
2.18476E-02 4.31936E-23
2.24900E-02 4.08111E-23
2.31415E-02 3.85919E-23
2.38021E-02 3.65226E-23
2.44717E-02 3.45912E-23
2.51504E-02 3.27867E-23
2.58382E-02 3.10992E-23
2.65349E-02 2.95196E-23
2.72407E-02 2.80397E-23
2.79555E-02 2.66521E-23
2.86793E-02 2.53499E-23
2.94120E-02 2.41267E-23
3.01537E-02 2.29769E-23
3.09043E-02 2.18951E-23
3.16639E-02 2.08767E-23
3.24324E-02 1.99172E-23
3.32098E-02 1.90125E-23
3.39961E-02 1.81589E-23
3.47912E-02 1.73529E-23
3.55952E-02 1.65914E-23
3.64081E-02 1.58714E-23
3.72297E-02 1.51903E-23
3.80602E-02 1.45455E-23
3.88995E-02 1.39347E-23
3.97476E-02 1.33558E-23
4.06044E-02 1.28068E-23
4.14700E-02 1.22858E-23
4.23443E-02 1.17912E-23
4.32273E-02 1.13212E-23
4.41190E-02 1.08746E-23
4.50194E-02 1.04498E-23
4.59284E-02 1.00457E-23
4.68461E-02 9.66091E-24
4.87074E-02 8.94525E-24
5.06030E-02 8.29478E-24
5.25328E-02 7.70248E-24
5.44967E-02 7.16217E-24
5.64946E-02 6.66844E-24
5.85262E-02 6.21654E-24
6.05914E-02 5.80226E-24
6.26901E-02 5.42189E-24
6.48222E-02 5.07214E-24
6.69873E-02 4.75007E-24
6.91854E-02 4.45310E-24
7.14163E-02 4.17890E-24
7.36799E-02 3.92539E-24
7.59760E-02 3.69074E-24
7.83043E-02 3.47326E-24
8.06647E-02 3.27147E-24
8.30571E-02 3.08403E-24
8.54812E-02 2.90972E-24
8.79369E-02 2.74745E-24
9.04240E-02 2.59624E-24
9.29422E-02 2.45519E-24
9.54915E-02 2.32349E-24
9.80716E-02 2.20040E-24
1.00682E-01 2.08526E-24
1.03323E-01 1.97746E-24
1.05995E-01 1.87644E-24
1.08696E-01 1.78170E-24
1.11427E-01 1.69277E-24
1.14188E-01 1.60924E-24
1.16978E-01 1.53070E-24
1.19797E-01 1.45682E-24
1.22645E-01 1.38725E-24
1.25522E-01 1.32171E-24
1.28428E-01 1.25992E-24
1.31361E-01 1.20162E-24
1.34323E-01 1.14657E-24
1.37313E-01 1.09457E-24
1.40330E-01 1.04542E-24
1.43375E-01 9.98925E-25
1.46447E-01 9.54921E-25
1.49545E-01 9.13248E-25
1.52671E-01 8.73762E-25
1.55823E-01 8.36326E-25
1.59001E-01 8.00814E-25
1.62205E-01 7.67110E-25
1.65435E-01 7.35105E-25
1.68690E-01 7.04698E-25
1.71970E-01 6.75795E-25
1.75276E-01 6.48308E-25
1.78606E-01 6.22155E-25
1.81961E-01 5.97259E-25
1.85340E-01 5.73551E-25
1.88743E-01 5.50962E-25
1.92169E-01 5.29430E-25
1.95619E-01 5.08898E-25
1.99092E-01 4.89311E-25
2.02589E-01 4.70617E-25
2.06107E-01 4.52769E-25
2.09649E-01 4.35722E-25
2.13212E-01 4.19433E-25
2.16797E-01 4.03863E-25
2.20404E-01 3.88975E-25
2.24032E-01 3.74733E-25
2.27680E-01 3.61105E-25
2.31350E-01 3.48060E-25
2.35040E-01 3.35568E-25
2.38751E-01 3.23602E-25
2.42481E-01 3.12136E-25
2.46231E-01 3.01146E-25
2.50000E-01 2.90608E-25
2.53788E-01 2.80501E-25
2.57595E-01 2.70805E-25
2.61421E-01 2.61499E-25
2.65264E-01 2.52565E-25
2.69126E-01 2.43986E-25
2.73005E-01 2.35746E-25
2.76901E-01 2.27829E-25
2.80814E-01 2.20220E-25
2.84744E-01 2.12906E-25
2.88691E-01 2.05872E-25
2.92653E-01 1.99107E-25
2.96632E-01 1.92599E-25
3.00625E-01 1.86336E-25
3.04634E-01 1.80307E-25
3.08658E-01 1.74502E-25
3.12697E-01 1.68913E-25
3.16749E-01 1.63528E-25
3.20816E-01 1.58341E-25
3.24896E-01 1.53342E-25
3.28990E-01 1.48523E-25
3.33097E-01 1.43877E-25
3.37216E-01 1.39397E-25
3.41348E-01 1.35076E-25
3.45492E-01 1.30908E-25
3.49647E-01 1.26885E-25
3.53814E-01 1.23003E-25
3.57992E-01 1.19256E-25
3.62181E-01 1.15638E-25
3.66381E-01 1.12144E-25
3.70590E-01 1.08769E-25
3.74810E-01 1.05509E-25
3.79039E-01 1.02359E-25
3.83277E-01 9.93147E-26
3.87524E-01 9.63723E-26
3.91780E-01 9.35278E-26
3.96044E-01 9.07773E-26
4.00316E-01 8.81174E-26
4.04596E-01 8.55447E-26
4.08882E-01 8.30558E-26
4.13176E-01 8.06477E-26
4.17476E-01 7.83174E-26
4.21783E-01 7.60619E-26
4.26095E-01 7.38786E-26
4.30413E-01 7.17648E-26
4.34737E-01 6.97180E-26
4.39065E-01 6.77357E-26
4.43398E-01 6.58157E-26
4.47736E-01 6.39558E-26
4.52077E-01 6.21537E-26
4.56422E-01 6.04075E-26
4.60770E-01 5.87152E-26
4.65122E-01 5.70748E-26
4.69476E-01 5.54847E-26
4.73832E-01 5.39429E-26
4.78190E-01 5.24480E-26
4.82550E-01 5.09982E-26
4.86912E-01 4.95921E-26
4.91274E-01 4.82281E-26
4.95637E-01 4.69048E-26
5.00000E-01 4.56208E-26
5.04363E-01 4.43748E-26
5.08726E-01 4.31656E-26
5.13088E-01 4.19920E-26
5.17450E-01 4.08527E-26
5.21810E-01 3.97466E-26
5.26168E-01 3.86726E-26
5.30524E-01 3.76297E-26
5.34878E-01 3.66169E-26
5.39230E-01 3.56332E-26
5.43578E-01 3.46777E-26
5.47923E-01 3.37494E-26
5.52264E-01 3.28475E-26
5.56602E-01 3.19711E-26
5.60935E-01 3.11195E-26
5.65263E-01 3.02919E-26
5.69587E-01 2.94874E-26
5.73905E-01 2.87054E-26
5.78217E-01 2.79452E-26
5.82524E-01 2.72061E-26
5.86824E-01 2.64875E-26
5.91118E-01 2.57886E-26
5.95404E-01 2.51090E-26
5.99684E-01 2.44480E-26
6.03956E-01 2.38051E-26
6.08220E-01 2.31796E-26
6.12476E-01 2.25712E-26
6.16723E-01 2.19792E-26
6.20961E-01 2.14032E-26
6.25190E-01 2.08426E-26
6.29410E-01 2.02971E-26
6.33619E-01 1.97662E-26
6.37819E-01 1.92495E-26
6.42008E-01 1.87465E-26
6.46186E-01 1.82569E-26
6.50353E-01 1.77802E-26
6.54508E-01 1.73160E-26
6.58652E-01 1.68641E-26
6.62784E-01 1.64240E-26
6.66903E-01 1.59955E-26
6.71010E-01 1.55781E-26
6.75104E-01 1.51716E-26
6.79184E-01 1.47756E-26
6.83251E-01 1.43899E-26
6.87303E-01 1.40141E-26
6.91342E-01 1.36481E-26
6.95366E-01 1.32914E-26
6.99375E-01 1.29439E-26
7.03368E-01 1.26053E-26
7.07347E-01 1.22753E-26
7.11309E-01 1.19537E-26
7.15256E-01 1.16403E-26
7.19186E-01 1.13348E-26
7.23099E-01 1.10371E-26
7.26995E-01 1.07469E-26
7.30874E-01 1.04640E-26
7.34736E-01 1.01882E-26
7.38579E-01 9.91927E-27
7.42405E-01 9.65711E-27
7.46212E-01 9.40150E-27
7.50000E-01 9.15227E-27
7.53769E-01 8.90924E-27
7.57519E-01 8.67225E-27
7.61249E-01 8.44113E-27
7.64960E-01 8.21574E-27
7.68650E-01 7.99591E-27
7.72320E-01 7.78151E-27
7.75968E-01 7.57239E-27
7.79596E-01 7.36841E-27
7.83203E-01 7.16944E-27
7.86788E-01 6.97534E-27
7.90351E-01 6.78600E-27
7.93893E-01 6.60129E-27
7.97411E-01 6.42109E-27
8.00908E-01 6.24528E-27
8.04381E-01 6.07375E-27
8.07831E-01 5.90640E-27
8.11257E-01 5.74311E-27
8.14660E-01 5.58379E-27
8.18039E-01 5.42833E-27
8.21394E-01 5.27663E-27
8.24724E-01 5.12861E-27
8.28030E-01 4.98417E-27
8.31310E-01 4.84322E-27
8.34565E-01 4.70567E-27
8.37795E-01 4.57145E-27
8.40999E-01 4.44046E-27
8.44177E-01 4.31263E-27
8.47329E-01 4.18788E-27
8.50455E-01 4.06614E-27
8.53553E-01 3.94734E-27
8.56625E-01 3.83140E-27
8.59670E-01 3.71825E-27
8.62687E-01 3.60782E-27
8.65677E-01 3.50006E-27
8.68639E-01 3.39490E-27
8.71572E-01 3.29228E-27
8.74478E-01 3.19213E-27
8.77355E-01 3.09440E-27
8.80203E-01 2.99904E-27
8.83022E-01 2.90598E-27
8.85812E-01 2.81517E-27
8.88573E-01 2.72657E-27
8.91304E-01 2.64012E-27
8.94005E-01 2.55577E-27
8.96677E-01 2.47347E-27
8.99318E-01 2.39319E-27
9.01928E-01 2.31486E-27
9.04508E-01 2.23846E-27
9.07058E-01 2.16393E-27
9.09576E-01 2.09123E-27
9.12063E-01 2.02033E-27
9.14519E-01 1.95118E-27
9.16943E-01 1.88375E-27
9.19335E-01 1.81800E-27
9.21696E-01 1.75389E-27
9.24024E-01 1.69139E-27
9.26320E-01 1.63047E-27
9.28584E-01 1.57109E-27
9.30815E-01 1.51321E-27
9.33013E-01 1.45682E-27
9.35178E-01 1.40187E-27
9.37310E-01 1.34833E-27
9.39409E-01 1.29619E-27
9.41474E-01 1.24541E-27
9.43505E-01 1.19596E-27
9.45503E-01 1.14782E-27
9.47467E-01 1.10096E-27
9.49397E-01 1.05536E-27
9.51293E-01 1.01100E-27
9.53154E-01 9.67840E-28
9.54981E-01 9.25871E-28
9.56773E-01 8.85067E-28
9.58530E-01 8.45407E-28
9.60252E-01 8.06870E-28
9.61940E-01 7.69437E-28
9.63592E-01 7.33087E-28
9.65209E-01 6.97802E-28
9.66790E-01 6.63565E-28
9.68336E-01 6.30356E-28
9.69846E-01 5.98159E-28
9.71321E-01 5.66958E-28
9.72759E-01 5.36736E-28
9.74162E-01 5.07479E-28
9.75528E-01 4.79170E-28
9.76858E-01 4.51796E-28
9.78152E-01 4.25342E-28
9.79410E-01 3.99796E-28
9.80631E-01 3.75144E-28
9.81815E-01 3.51374E-28
9.82963E-01 3.28474E-28
9.84074E-01 3.06431E-28
9.85148E-01 2.85236E-28
9.86185E-01 2.64877E-28
9.87185E-01 2.45345E-28
9.88148E-01 2.26629E-28
9.89074E-01 2.08719E-28
9.89962E-01 1.91608E-28
9.90814E-01 1.75286E-28
9.91627E-01 1.59746E-28
9.92404E-01 1.44978E-28
9.93143E-01 1.30977E-28
9.93844E-01 1.17736E-28
9.94508E-01 1.05247E-28
9.95134E-01 9.35038E-29
9.95722E-01 8.25015E-29
9.96273E-01 7.22343E-29
9.96786E-01 6.26972E-29
9.97261E-01 5.38852E-29
9.97698E-01 4.57942E-29
9.98097E-01 3.84201E-29
9.98459E-01 3.17592E-29
9.98782E-01 2.58083E-29
9.99067E-01 2.05643E-29
9.99315E-01 1.60248E-29
9.99524E-01 1.21875E-29
9.99695E-01 9.05040E-30
9.99829E-01 6.61206E-30
9.99924E-01 4.87125E-30
9.99981E-01 3.82711E-30
1.00000E+00 3.47910E-30
