 #
 # Subroutine ELSEPA. Elastic scattering of electrons and positrons
 #                    by neutral atoms and positive ions
 #
 # Projectile: electron
 # Kinetic energy = 2.00000E+08 eV = 7.34987E+06 a.u.
 #
 # WARNING: High-energy factorization with free-atom DF screening.
 #          Absorption, polarization and exchange corrections are
 #          switched off.
 #          Phase shifts are calculated for the bare nucleus.
 #          Scattering amplitudes are not evaluated.
 #
 # Element: Cd,  Z =  48,  atomic weight = 1.12411E+02 g/mol
 #
 # Nuclear model: Fermi distribution
 #                Average radius = 5.16401E-13 cm
 #                Skin thickness = 5.46000E-14 cm
 #
 # Number of electrons = 48
 #
 # Total elastic cross section = 4.49681E-18 cm**2 = 1.60584E-01 a0**2
 # 1st transport cross section = 1.13498E-25 cm**2 = 4.05310E-09 a0**2
 # 2nd transport cross section = 3.39696E-25 cm**2 = 1.21308E-08 a0**2
 #
 #
 # Differential cross section:                       MU=(1-COS(THETA))/2
 #
 #  THETA        MU          DCS          DCS        Sherman      error
 #  (deg)                 (cm**2/sr)   (a0**2/sr)    function
 #----------------------------------------------------------------------
0.00000E+00 1.27028E-09
7.61557E-13 1.25918E-09
1.18994E-12 1.25302E-09
1.71346E-12 1.24557E-09
2.33225E-12 1.23686E-09
3.04617E-12 1.22695E-09
3.85530E-12 1.21589E-09
4.75964E-12 1.20374E-09
5.75917E-12 1.19056E-09
6.85391E-12 1.17633E-09
8.04379E-12 1.16133E-09
9.32893E-12 1.14552E-09
1.07092E-11 1.12885E-09
1.21847E-11 1.11167E-09
1.37554E-11 1.09379E-09
1.54213E-11 1.07537E-09
1.71823E-11 1.05671E-09
1.90386E-11 1.03739E-09
2.09900E-11 1.01789E-09
2.30367E-11 9.98316E-10
2.51785E-11 9.78230E-10
2.74156E-11 9.58264E-10
2.97478E-11 9.38231E-10
3.21752E-11 9.18020E-10
3.46979E-11 8.98093E-10
3.73157E-11 8.78074E-10
4.00286E-11 8.58185E-10
4.28368E-11 8.38703E-10
4.57402E-11 8.19074E-10
4.87388E-11 7.99848E-10
5.18325E-11 7.81010E-10
5.50215E-11 7.62156E-10
5.83057E-11 7.43832E-10
6.16850E-11 7.25792E-10
6.51595E-11 7.07964E-10
6.87293E-11 6.90693E-10
7.23943E-11 6.73597E-10
7.61544E-11 6.56897E-10
1.18991E-10 5.10744E-10
1.71347E-10 3.99077E-10
2.33223E-10 3.14609E-10
3.04617E-10 2.50440E-10
3.85531E-10 2.01019E-10
4.75965E-10 1.62446E-10
5.75917E-10 1.31934E-10
6.85389E-10 1.06365E-10
8.04380E-10 8.77108E-11
9.32891E-10 7.29200E-11
1.07092E-09 6.01605E-11
1.21847E-09 5.04454E-11
1.37554E-09 4.23354E-11
1.54213E-09 3.56422E-11
1.71823E-09 3.03676E-11
1.90386E-09 2.58515E-11
2.09900E-09 2.21767E-11
2.30367E-09 1.91817E-11
2.51785E-09 1.66131E-11
2.74156E-09 1.44991E-11
2.97478E-09 1.27228E-11
3.21752E-09 1.12054E-11
3.46978E-09 9.92955E-12
3.73156E-09 8.83178E-12
4.00286E-09 7.88826E-12
4.28368E-09 7.08090E-12
4.57402E-09 6.37061E-12
4.87388E-09 5.75529E-12
5.18326E-09 5.21885E-12
5.50215E-09 4.74027E-12
5.83057E-09 4.32155E-12
6.16850E-09 3.94902E-12
6.51596E-09 3.61478E-12
6.87293E-09 3.31927E-12
7.23942E-09 3.05112E-12
7.61544E-09 2.81012E-12
1.18991E-08 1.33546E-12
1.71347E-08 7.01932E-13
2.33223E-08 3.99018E-13
3.04617E-08 2.42580E-13
3.85531E-08 1.55988E-13
4.75965E-08 1.05083E-13
5.75917E-08 7.34698E-14
6.85389E-08 5.29651E-14
8.04380E-08 3.91518E-14
9.32891E-08 2.95612E-14
1.07092E-07 2.27312E-14
1.21847E-07 1.77581E-14
1.37554E-07 1.40680E-14
1.54213E-07 1.12843E-14
1.71823E-07 9.15312E-15
1.90386E-07 7.49998E-15
2.09900E-07 6.20238E-15
2.30367E-07 5.17267E-15
2.51785E-07 4.34753E-15
2.74156E-07 3.68002E-15
2.97478E-07 3.13568E-15
3.21752E-07 2.68829E-15
3.46978E-07 2.31788E-15
3.73156E-07 2.00913E-15
4.00286E-07 1.75014E-15
4.28368E-07 1.53158E-15
4.57402E-07 1.34613E-15
4.87388E-07 1.18794E-15
5.18325E-07 1.05234E-15
5.50215E-07 9.35569E-16
5.83057E-07 8.34570E-16
6.16850E-07 7.46851E-16
6.51596E-07 6.70373E-16
6.87293E-07 6.03450E-16
7.23942E-07 5.44683E-16
7.61543E-07 4.92907E-16
1.18991E-06 2.04183E-16
1.71347E-06 9.92290E-17
2.33223E-06 5.38474E-17
3.04617E-06 3.16831E-17
3.85531E-06 1.98334E-17
4.75964E-06 1.30390E-17
5.75916E-06 8.91951E-18
6.85388E-06 6.30539E-18
8.04378E-06 4.58230E-18
9.32888E-06 3.40949E-18
1.07092E-05 2.58897E-18
1.21846E-05 2.00105E-18
1.37553E-05 1.57094E-18
1.54212E-05 1.25042E-18
1.71822E-05 1.00763E-18
1.90385E-05 8.20811E-19
2.09899E-05 6.75718E-19
2.30365E-05 5.61276E-19
2.51783E-05 4.70006E-19
2.74153E-05 3.96507E-19
2.97475E-05 3.36806E-19
3.21749E-05 2.87930E-19
3.46974E-05 2.47621E-19
3.73152E-05 2.14144E-19
4.00281E-05 1.86152E-19
4.28362E-05 1.62596E-19
4.57395E-05 1.42652E-19
4.87380E-05 1.25671E-19
5.18317E-05 1.11139E-19
5.50205E-05 9.86457E-20
5.83045E-05 8.78585E-20
6.16838E-05 7.85074E-20
6.51582E-05 7.03702E-20
6.87277E-05 6.32629E-20
7.23925E-05 5.70323E-20
7.61524E-05 5.16442E-20
9.21439E-05 3.53085E-20
1.09658E-04 2.49528E-20
1.28695E-04 1.81338E-20
1.49255E-04 1.34934E-20
1.71338E-04 1.02484E-20
1.94942E-04 7.92311E-21
2.20070E-04 6.22195E-21
2.46720E-04 4.95417E-21
2.74892E-04 3.99355E-21
3.04586E-04 3.25506E-21
3.35803E-04 2.67970E-21
3.68542E-04 2.22608E-21
4.02802E-04 1.86454E-21
4.38585E-04 1.57351E-21
4.75889E-04 1.33712E-21
5.14715E-04 1.14348E-21
5.55063E-04 9.83645E-22
5.96931E-04 8.50770E-22
6.40321E-04 7.39576E-22
6.85233E-04 6.45952E-22
7.31665E-04 5.66665E-22
7.79618E-04 4.99161E-22
8.29092E-04 4.41397E-22
8.80086E-04 3.91734E-22
9.32601E-04 3.48847E-22
9.86636E-04 3.11655E-22
1.04219E-03 2.79274E-22
1.09927E-03 2.50977E-22
1.15786E-03 2.26161E-22
1.21797E-03 2.04324E-22
1.27961E-03 1.85048E-22
1.34276E-03 1.67980E-22
1.40743E-03 1.52824E-22
1.47362E-03 1.39330E-22
1.54133E-03 1.27282E-22
1.61056E-03 1.16500E-22
1.68131E-03 1.06826E-22
1.75357E-03 9.81282E-23
1.82735E-03 9.02898E-23
1.90265E-03 8.32113E-23
1.97947E-03 7.68062E-23
2.05780E-03 7.09992E-23
2.13765E-03 6.57246E-23
2.21902E-03 6.09250E-23
2.30190E-03 5.65502E-23
2.38630E-03 5.25559E-23
2.47222E-03 4.89033E-23
2.55965E-03 4.55579E-23
2.64859E-03 4.24894E-23
2.73905E-03 3.96708E-23
2.83103E-03 3.70782E-23
2.92452E-03 3.46903E-23
3.01952E-03 3.24881E-23
3.11604E-03 3.04545E-23
3.21407E-03 2.85745E-23
3.31362E-03 2.68344E-23
3.41468E-03 2.52219E-23
3.51725E-03 2.37260E-23
3.62133E-03 2.23369E-23
3.72692E-03 2.10455E-23
3.83403E-03 1.98438E-23
3.94265E-03 1.87245E-23
4.05278E-03 1.76809E-23
4.16442E-03 1.67070E-23
4.27757E-03 1.57974E-23
4.39223E-03 1.49471E-23
4.50840E-03 1.41515E-23
4.62608E-03 1.34065E-23
4.74527E-03 1.27083E-23
4.86597E-03 1.20535E-23
4.98817E-03 1.14389E-23
5.11188E-03 1.08617E-23
5.23711E-03 1.03191E-23
5.36383E-03 9.80871E-24
5.49207E-03 9.32832E-24
5.62181E-03 8.87585E-24
5.75306E-03 8.44941E-24
5.88581E-03 8.04723E-24
6.02007E-03 7.66771E-24
6.15583E-03 7.30935E-24
6.29310E-03 6.97077E-24
6.43187E-03 6.65070E-24
6.57214E-03 6.34795E-24
6.71392E-03 6.06144E-24
6.85720E-03 5.79014E-24
7.00198E-03 5.53311E-24
7.14827E-03 5.28948E-24
7.29605E-03 5.05844E-24
7.44534E-03 4.83922E-24
7.59612E-03 4.63112E-24
7.97965E-03 4.15532E-24
8.37255E-03 3.73594E-24
8.77480E-03 3.36529E-24
9.18641E-03 3.03688E-24
9.60736E-03 2.74520E-24
1.00376E-02 2.48554E-24
1.04773E-02 2.25389E-24
1.09262E-02 2.04679E-24
1.13844E-02 1.86129E-24
1.18520E-02 1.69480E-24
1.23288E-02 1.54513E-24
1.28150E-02 1.41033E-24
1.33104E-02 1.28874E-24
1.38150E-02 1.17888E-24
1.43290E-02 1.07948E-24
1.48521E-02 9.89410E-25
1.53845E-02 9.07688E-25
1.59262E-02 8.33442E-25
1.64770E-02 7.65903E-25
1.70371E-02 7.04393E-25
1.76063E-02 6.48309E-25
1.81848E-02 5.97116E-25
1.87724E-02 5.50339E-25
1.93692E-02 5.07554E-25
1.99751E-02 4.68383E-25
2.05901E-02 4.32486E-25
2.12143E-02 3.99563E-25
2.18476E-02 3.69340E-25
2.24900E-02 3.41574E-25
2.31415E-02 3.16044E-25
2.38021E-02 2.92555E-25
2.44717E-02 2.70926E-25
2.51504E-02 2.50997E-25
2.58382E-02 2.32623E-25
2.65349E-02 2.15671E-25
2.72407E-02 2.00023E-25
2.79555E-02 1.85569E-25
2.86793E-02 1.72211E-25
2.94120E-02 1.59860E-25
3.01537E-02 1.48433E-25
3.09043E-02 1.37858E-25
3.16639E-02 1.28065E-25
3.24324E-02 1.18993E-25
3.32098E-02 1.10586E-25
3.39961E-02 1.02791E-25
3.47912E-02 9.55623E-26
3.55952E-02 8.88551E-26
3.64081E-02 8.26301E-26
3.72297E-02 7.68509E-26
3.80602E-02 7.14838E-26
3.88995E-02 6.64981E-26
3.97476E-02 6.18654E-26
4.06044E-02 5.75597E-26
4.14700E-02 5.35570E-26
4.23443E-02 4.98350E-26
4.32273E-02 4.63735E-26
4.41190E-02 4.31536E-26
4.50194E-02 4.01578E-26
4.59284E-02 3.73702E-26
4.68461E-02 3.47759E-26
4.87074E-02 3.01133E-26
5.06030E-02 2.60721E-26
5.25328E-02 2.25681E-26
5.44967E-02 1.95293E-26
5.64946E-02 1.68935E-26
5.85262E-02 1.46070E-26
6.05914E-02 1.26238E-26
6.26901E-02 1.09037E-26
6.48222E-02 9.41217E-27
6.69873E-02 8.11927E-27
6.91854E-02 6.99896E-27
7.14163E-02 6.02868E-27
7.36799E-02 5.18880E-27
7.59760E-02 4.46227E-27
7.83043E-02 3.83426E-27
8.06647E-02 3.29185E-27
8.30571E-02 2.82379E-27
8.54812E-02 2.42030E-27
8.79369E-02 2.07285E-27
9.04240E-02 1.77398E-27
9.29422E-02 1.51724E-27
9.54915E-02 1.29696E-27
9.80716E-02 1.10825E-27
1.00682E-01 9.46810E-28
1.03323E-01 8.08919E-28
1.05995E-01 6.91333E-28
1.08696E-01 5.91230E-28
1.11427E-01 5.06160E-28
1.14188E-01 4.33994E-28
1.16978E-01 3.72885E-28
1.19797E-01 3.21233E-28
1.22645E-01 2.77652E-28
1.25522E-01 2.40943E-28
1.28428E-01 2.10074E-28
1.31361E-01 1.84151E-28
1.34323E-01 1.62408E-28
1.37313E-01 1.44186E-28
1.40330E-01 1.28921E-28
1.43375E-01 1.16128E-28
1.46447E-01 1.05397E-28
1.49545E-01 9.63774E-29
1.52671E-01 8.87714E-29
1.55823E-01 8.23283E-29
1.59001E-01 7.68367E-29
1.62205E-01 7.21194E-29
1.65435E-01 6.80286E-29
1.68690E-01 6.44413E-29
1.71970E-01 6.12564E-29
1.75276E-01 5.83906E-29
1.78606E-01 5.57765E-29
1.81961E-01 5.33596E-29
1.85340E-01 5.10963E-29
1.88743E-01 4.89525E-29
1.92169E-01 4.69017E-29
1.95619E-01 4.49235E-29
1.99092E-01 4.30031E-29
2.02589E-01 4.11297E-29
2.06107E-01 3.92960E-29
2.09649E-01 3.74975E-29
2.13212E-01 3.57317E-29
2.16797E-01 3.39977E-29
2.20404E-01 3.22960E-29
2.24032E-01 3.06279E-29
2.27680E-01 2.89952E-29
2.31350E-01 2.74002E-29
2.35040E-01 2.58452E-29
2.38751E-01 2.43329E-29
2.42481E-01 2.28654E-29
2.46231E-01 2.14451E-29
2.50000E-01 2.00739E-29
2.53788E-01 1.87535E-29
2.57595E-01 1.74854E-29
2.61421E-01 1.62705E-29
2.65264E-01 1.51097E-29
2.69126E-01 1.40034E-29
2.73005E-01 1.29517E-29
2.76901E-01 1.19544E-29
2.80814E-01 1.10112E-29
2.84744E-01 1.01213E-29
2.88691E-01 9.28380E-30
2.92653E-01 8.49753E-30
2.96632E-01 7.76120E-30
3.00625E-01 7.07333E-30
3.04634E-01 6.43231E-30
3.08658E-01 5.83643E-30
3.12697E-01 5.28388E-30
3.16749E-01 4.77278E-30
3.20816E-01 4.30121E-30
3.24896E-01 3.86723E-30
3.28990E-01 3.46886E-30
3.33097E-01 3.10414E-30
3.37216E-01 2.77112E-30
3.41348E-01 2.46787E-30
3.45492E-01 2.19250E-30
3.49647E-01 1.94317E-30
3.53814E-01 1.71809E-30
3.57992E-01 1.51552E-30
3.62181E-01 1.33380E-30
3.66381E-01 1.17131E-30
3.70590E-01 1.02653E-30
3.74810E-01 8.98008E-31
3.79039E-01 7.84352E-31
3.83277E-01 6.84257E-31
3.87524E-01 5.96491E-31
3.91780E-01 5.19896E-31
3.96044E-01 4.53388E-31
4.00316E-01 3.95956E-31
4.04596E-01 3.46658E-31
4.08882E-01 3.04623E-31
4.13176E-01 2.69042E-31
4.17476E-01 2.39174E-31
4.21783E-01 2.14335E-31
4.26095E-01 1.93901E-31
4.30413E-01 1.77301E-31
4.34737E-01 1.64017E-31
4.39065E-01 1.53580E-31
4.43398E-01 1.45567E-31
4.47736E-01 1.39598E-31
4.52077E-01 1.35331E-31
4.56422E-01 1.32465E-31
4.60770E-01 1.30731E-31
4.65122E-01 1.29891E-31
4.69476E-01 1.29740E-31
4.73832E-01 1.30095E-31
4.78190E-01 1.30802E-31
4.82550E-01 1.31727E-31
4.86912E-01 1.32755E-31
4.91274E-01 1.33793E-31
4.95637E-01 1.34760E-31
5.00000E-01 1.35594E-31
5.04363E-01 1.36243E-31
5.08726E-01 1.36668E-31
5.13088E-01 1.36840E-31
5.17450E-01 1.36738E-31
5.21810E-01 1.36350E-31
5.26168E-01 1.35669E-31
5.30524E-01 1.34697E-31
5.34878E-01 1.33437E-31
5.39230E-01 1.31898E-31
5.43578E-01 1.30092E-31
5.47923E-01 1.28034E-31
5.52264E-01 1.25740E-31
5.56602E-01 1.23230E-31
5.60935E-01 1.20521E-31
5.65263E-01 1.17634E-31
5.69587E-01 1.14590E-31
5.73905E-01 1.11409E-31
5.78217E-01 1.08111E-31
5.82524E-01 1.04716E-31
5.86824E-01 1.01244E-31
5.91118E-01 9.77132E-32
5.95404E-01 9.41408E-32
5.99684E-01 9.05440E-32
6.03956E-01 8.69386E-32
6.08220E-01 8.33391E-32
6.12476E-01 7.97594E-32
6.16723E-01 7.62119E-32
6.20961E-01 7.27080E-32
6.25190E-01 6.92581E-32
6.29410E-01 6.58714E-32
6.33619E-01 6.25561E-32
6.37819E-01 5.93195E-32
6.42008E-01 5.61676E-32
6.46186E-01 5.31058E-32
6.50353E-01 5.01386E-32
6.54508E-01 4.72695E-32
6.58652E-01 4.45012E-32
6.62784E-01 4.18360E-32
6.66903E-01 3.92752E-32
6.71010E-01 3.68195E-32
6.75104E-01 3.44692E-32
6.79184E-01 3.22241E-32
6.83251E-01 3.00833E-32
6.87303E-01 2.80457E-32
6.91342E-01 2.61098E-32
6.95366E-01 2.42736E-32
6.99375E-01 2.25350E-32
7.03368E-01 2.08916E-32
7.07347E-01 1.93408E-32
7.11309E-01 1.78797E-32
7.15256E-01 1.65055E-32
7.19186E-01 1.52151E-32
7.23099E-01 1.40054E-32
7.26995E-01 1.28731E-32
7.30874E-01 1.18150E-32
7.34736E-01 1.08279E-32
7.38579E-01 9.90846E-33
7.42405E-01 9.05350E-33
7.46212E-01 8.25981E-33
7.50000E-01 7.52422E-33
7.53769E-01 6.84363E-33
7.57519E-01 6.21502E-33
7.61249E-01 5.63541E-33
7.64960E-01 5.10194E-33
7.68650E-01 4.61183E-33
7.72320E-01 4.16237E-33
7.75968E-01 3.75099E-33
7.79596E-01 3.37519E-33
7.83203E-01 3.03258E-33
7.86788E-01 2.72088E-33
7.90351E-01 2.43790E-33
7.93893E-01 2.18157E-33
7.97411E-01 1.94992E-33
8.00908E-01 1.74107E-33
8.04381E-01 1.55326E-33
8.07831E-01 1.38482E-33
8.11257E-01 1.23416E-33
8.14660E-01 1.09982E-33
8.18039E-01 9.80391E-34
8.21394E-01 8.74579E-34
8.24724E-01 7.81163E-34
8.28030E-01 6.99006E-34
8.31310E-01 6.27050E-34
8.34565E-01 5.64309E-34
8.37795E-01 5.09869E-34
8.40999E-01 4.62885E-34
8.44177E-01 4.22575E-34
8.47329E-01 3.88218E-34
8.50455E-01 3.59151E-34
8.53553E-01 3.34765E-34
8.56625E-01 3.14502E-34
8.59670E-01 2.97853E-34
8.62687E-01 2.84354E-34
8.65677E-01 2.73581E-34
8.68639E-01 2.65151E-34
8.71572E-01 2.58720E-34
8.74478E-01 2.53973E-34
8.77355E-01 2.50633E-34
8.80203E-01 2.48446E-34
8.83022E-01 2.47190E-34
8.85812E-01 2.46667E-34
8.88573E-01 2.46699E-34
8.91304E-01 2.47134E-34
8.94005E-01 2.47835E-34
8.96677E-01 2.48686E-34
8.99318E-01 2.49586E-34
9.01928E-01 2.50447E-34
9.04508E-01 2.51198E-34
9.07058E-01 2.51777E-34
9.09576E-01 2.52133E-34
9.12063E-01 2.52227E-34
9.14519E-01 2.52027E-34
9.16943E-01 2.51508E-34
9.19335E-01 2.50654E-34
9.21696E-01 2.49454E-34
9.24024E-01 2.47902E-34
9.26320E-01 2.45997E-34
9.28584E-01 2.43743E-34
9.30815E-01 2.41145E-34
9.33013E-01 2.38214E-34
9.35178E-01 2.34961E-34
9.37310E-01 2.31401E-34
9.39409E-01 2.27549E-34
9.41474E-01 2.23423E-34
9.43505E-01 2.19040E-34
9.45503E-01 2.14420E-34
9.47467E-01 2.09582E-34
9.49397E-01 2.04547E-34
9.51293E-01 1.99333E-34
9.53154E-01 1.93961E-34
9.54981E-01 1.88450E-34
9.56773E-01 1.82821E-34
9.58530E-01 1.77092E-34
9.60252E-01 1.71281E-34
9.61940E-01 1.65406E-34
9.63592E-01 1.59486E-34
9.65209E-01 1.53536E-34
9.66790E-01 1.47572E-34
9.68336E-01 1.41610E-34
9.69846E-01 1.35665E-34
9.71321E-01 1.29749E-34
9.72759E-01 1.23877E-34
9.74162E-01 1.18059E-34
9.75528E-01 1.12308E-34
9.76858E-01 1.06635E-34
9.78152E-01 1.01049E-34
9.79410E-01 9.55595E-35
9.80631E-01 9.01755E-35
9.81815E-01 8.49048E-35
9.82963E-01 7.97548E-35
9.84074E-01 7.47324E-35
9.85148E-01 6.98435E-35
9.86185E-01 6.50940E-35
9.87185E-01 6.04888E-35
9.88148E-01 5.60328E-35
9.89074E-01 5.17301E-35
9.89962E-01 4.75844E-35
9.90814E-01 4.35992E-35
9.91627E-01 3.97774E-35
9.92404E-01 3.61217E-35
9.93143E-01 3.26346E-35
9.93844E-01 2.93180E-35
9.94508E-01 2.61738E-35
9.95134E-01 2.32036E-35
9.95722E-01 2.04088E-35
9.96273E-01 1.77905E-35
9.96786E-01 1.53497E-35
9.97261E-01 1.30872E-35
9.97698E-01 1.10039E-35
9.98097E-01 9.10019E-36
9.98459E-01 7.37665E-36
9.98782E-01 5.83374E-36
9.99067E-01 4.47170E-36
9.99315E-01 3.29086E-36
9.99524E-01 2.29135E-36
9.99695E-01 1.47339E-36
9.99829E-01 8.37086E-37
9.99924E-01 3.82548E-37
9.99981E-01 1.09756E-37
1.00000E+00 1.87350E-38
