 #
 # Subroutine ELSEPA. Elastic scattering of electrons and positrons
 #                    by neutral atoms and positive ions
 #
 # Projectile: electron
 # Kinetic energy = 1.50000E+07 eV = 5.51240E+05 a.u.
 #
 # WARNING: High-energy factorization with free-atom DF screening.
 #          Absorption, polarization and exchange corrections are
 #          switched off.
 #          Phase shifts are calculated for the bare nucleus.
 #          Scattering amplitudes are not evaluated.
 #
 # Element: Ho,  Z =  67,  atomic weight = 1.64930E+02 g/mol
 #
 # Nuclear model: Fermi distribution
 #                Average radius = 5.86792E-13 cm
 #                Skin thickness = 5.46000E-14 cm
 #
 # Number of electrons = 67
 #
 # Total elastic cross section = 7.09895E-18 cm**2 = 2.53508E-01 a0**2
 # 1st transport cross section = 3.44874E-23 cm**2 = 1.23157E-06 a0**2
 # 2nd transport cross section = 9.68089E-23 cm**2 = 3.45711E-06 a0**2
 #
 #
 # Differential cross section:                       MU=(1-COS(THETA))/2
 #
 #  THETA        MU          DCS          DCS        Sherman      error
 #  (deg)                 (cm**2/sr)   (a0**2/sr)    function
 #----------------------------------------------------------------------
0.00000E+00 1.81006E-11
7.61557E-13 1.80986E-11
1.18994E-12 1.80975E-11
1.71346E-12 1.80961E-11
2.33225E-12 1.80945E-11
3.04617E-12 1.80926E-11
3.85530E-12 1.80905E-11
4.75964E-12 1.80881E-11
5.75917E-12 1.80855E-11
6.85391E-12 1.80826E-11
8.04379E-12 1.80795E-11
9.32893E-12 1.80761E-11
1.07092E-11 1.80725E-11
1.21847E-11 1.80686E-11
1.37554E-11 1.80645E-11
1.54213E-11 1.80602E-11
1.71823E-11 1.80556E-11
1.90386E-11 1.80507E-11
2.09900E-11 1.80456E-11
2.30367E-11 1.80403E-11
2.51785E-11 1.80347E-11
2.74156E-11 1.80289E-11
2.97478E-11 1.80228E-11
3.21752E-11 1.80165E-11
3.46979E-11 1.80099E-11
3.73157E-11 1.80031E-11
4.00286E-11 1.79961E-11
4.28368E-11 1.79888E-11
4.57402E-11 1.79812E-11
4.87388E-11 1.79735E-11
5.18325E-11 1.79654E-11
5.50215E-11 1.79572E-11
5.83057E-11 1.79487E-11
6.16850E-11 1.79400E-11
6.51595E-11 1.79310E-11
6.87293E-11 1.79218E-11
7.23943E-11 1.79123E-11
7.61544E-11 1.79026E-11
1.18991E-10 1.77929E-11
1.71347E-10 1.76604E-11
2.33223E-10 1.75059E-11
3.04617E-10 1.73304E-11
3.85531E-10 1.71351E-11
4.75965E-10 1.69212E-11
5.75917E-10 1.66900E-11
6.85389E-10 1.64429E-11
8.04380E-10 1.61814E-11
9.32891E-10 1.59068E-11
1.07092E-09 1.56222E-11
1.21847E-09 1.53267E-11
1.37554E-09 1.50213E-11
1.54213E-09 1.47088E-11
1.71823E-09 1.43930E-11
1.90386E-09 1.40711E-11
2.09900E-09 1.37442E-11
2.30367E-09 1.34190E-11
2.51785E-09 1.30927E-11
2.74156E-09 1.27647E-11
2.97478E-09 1.24377E-11
3.21752E-09 1.21170E-11
3.46978E-09 1.17971E-11
3.73156E-09 1.14789E-11
4.00286E-09 1.11687E-11
4.28368E-09 1.08639E-11
4.57402E-09 1.05625E-11
4.87388E-09 1.02662E-11
5.18326E-09 9.98111E-12
5.50215E-09 9.70052E-12
5.83057E-09 9.42474E-12
6.16850E-09 9.15879E-12
6.51596E-09 8.90107E-12
6.87293E-09 8.64868E-12
7.23942E-09 8.40224E-12
7.61544E-09 8.16793E-12
1.18991E-08 6.19234E-12
1.71347E-08 4.81284E-12
2.33223E-08 3.84333E-12
3.04617E-08 3.13868E-12
3.85531E-08 2.60598E-12
4.75965E-08 2.18887E-12
5.75917E-08 1.85341E-12
6.85389E-08 1.57840E-12
8.04380E-08 1.35039E-12
9.32891E-08 1.16014E-12
1.07092E-07 9.90124E-13
1.21847E-07 8.54376E-13
1.37554E-07 7.46709E-13
1.54213E-07 6.55095E-13
1.71823E-07 5.70618E-13
1.90386E-07 5.02023E-13
2.09900E-07 4.45739E-13
2.30367E-07 3.93965E-13
2.51785E-07 3.49544E-13
2.74156E-07 3.12407E-13
2.97478E-07 2.80341E-13
3.21752E-07 2.50740E-13
3.46978E-07 2.25596E-13
3.73156E-07 2.04099E-13
4.00286E-07 1.84378E-13
4.28368E-07 1.66858E-13
4.57402E-07 1.51696E-13
4.87388E-07 1.38349E-13
5.18325E-07 1.25834E-13
5.50215E-07 1.14891E-13
5.83057E-07 1.05279E-13
6.16850E-07 9.64323E-14
6.51596E-07 8.83921E-14
6.87293E-07 8.12721E-14
7.23942E-07 7.49208E-14
7.61543E-07 6.89357E-14
1.18991E-06 3.26958E-14
1.71347E-06 1.73795E-14
2.33223E-06 1.01548E-14
3.04617E-06 6.36798E-15
3.85531E-06 4.21613E-15
4.75964E-06 2.90405E-15
5.75916E-06 2.06243E-15
6.85388E-06 1.50338E-15
8.04378E-06 1.12060E-15
9.32888E-06 8.51508E-16
1.07092E-05 6.57829E-16
1.21846E-05 5.16657E-16
1.37553E-05 4.11523E-16
1.54212E-05 3.31557E-16
1.71822E-05 2.70238E-16
1.90385E-05 2.22434E-16
2.09899E-05 1.84906E-16
2.30365E-05 1.54957E-16
2.51783E-05 1.30837E-16
2.74153E-05 1.11220E-16
2.97475E-05 9.51158E-17
3.21749E-05 8.18383E-17
3.46974E-05 7.08148E-17
3.73152E-05 6.15851E-17
4.00281E-05 5.38201E-17
4.28362E-05 4.72484E-17
4.57395E-05 4.16486E-17
4.87380E-05 3.68494E-17
5.18317E-05 3.27218E-17
5.50205E-05 2.91558E-17
5.83045E-05 2.60582E-17
6.16838E-05 2.33622E-17
6.51582E-05 2.10074E-17
6.87277E-05 1.89415E-17
7.23925E-05 1.71233E-17
7.61524E-05 1.55186E-17
9.21439E-05 1.07043E-17
1.09658E-04 7.61817E-18
1.28695E-04 5.56815E-18
1.49255E-04 4.16312E-18
1.71338E-04 3.17485E-18
1.94942E-04 2.46326E-18
2.20070E-04 1.94049E-18
2.46720E-04 1.54948E-18
2.74892E-04 1.25229E-18
3.04586E-04 1.02317E-18
3.35803E-04 8.44203E-19
3.68542E-04 7.02780E-19
4.02802E-04 5.89820E-19
4.38585E-04 4.98709E-19
4.75889E-04 4.24564E-19
5.14715E-04 3.63725E-19
5.55063E-04 3.13425E-19
5.96931E-04 2.71544E-19
6.40321E-04 2.36444E-19
6.85233E-04 2.06848E-19
7.31665E-04 1.81751E-19
7.79618E-04 1.60356E-19
8.29092E-04 1.42025E-19
8.80086E-04 1.26247E-19
9.32601E-04 1.12605E-19
9.86636E-04 1.00761E-19
1.04219E-03 9.04384E-20
1.09927E-03 8.14082E-20
1.15786E-03 7.34801E-20
1.21797E-03 6.64969E-20
1.27961E-03 6.03264E-20
1.34276E-03 5.48575E-20
1.40743E-03 4.99966E-20
1.47362E-03 4.56641E-20
1.54133E-03 4.17925E-20
1.61056E-03 3.83241E-20
1.68131E-03 3.52094E-20
1.75357E-03 3.24060E-20
1.82735E-03 2.98773E-20
1.90265E-03 2.75915E-20
1.97947E-03 2.55211E-20
2.05780E-03 2.36421E-20
2.13765E-03 2.19337E-20
2.21902E-03 2.03776E-20
2.30190E-03 1.89577E-20
2.38630E-03 1.76599E-20
2.47222E-03 1.64719E-20
2.55965E-03 1.53827E-20
2.64859E-03 1.43825E-20
2.73905E-03 1.34627E-20
2.83103E-03 1.26157E-20
2.92452E-03 1.18347E-20
3.01952E-03 1.11135E-20
3.11604E-03 1.04468E-20
3.21407E-03 9.82963E-21
3.31362E-03 9.25768E-21
3.41468E-03 8.72700E-21
3.51725E-03 8.23405E-21
3.62133E-03 7.77566E-21
3.72692E-03 7.34896E-21
3.83403E-03 6.95134E-21
3.94265E-03 6.58045E-21
4.05278E-03 6.23415E-21
4.16442E-03 5.91051E-21
4.27757E-03 5.60776E-21
4.39223E-03 5.32431E-21
4.50840E-03 5.05868E-21
4.62608E-03 4.80955E-21
4.74527E-03 4.57569E-21
4.86597E-03 4.35600E-21
4.98817E-03 4.14946E-21
5.11188E-03 3.95512E-21
5.23711E-03 3.77212E-21
5.36383E-03 3.59969E-21
5.49207E-03 3.43709E-21
5.62181E-03 3.28366E-21
5.75306E-03 3.13877E-21
5.88581E-03 3.00186E-21
6.02007E-03 2.87241E-21
6.15583E-03 2.74994E-21
6.29310E-03 2.63399E-21
6.43187E-03 2.52415E-21
6.57214E-03 2.42004E-21
6.71392E-03 2.32129E-21
6.85720E-03 2.22759E-21
7.00198E-03 2.13862E-21
7.14827E-03 2.05410E-21
7.29605E-03 1.97376E-21
7.44534E-03 1.89735E-21
7.59612E-03 1.82465E-21
7.97965E-03 1.65773E-21
8.37255E-03 1.50968E-21
8.77480E-03 1.37798E-21
9.18641E-03 1.26050E-21
9.60736E-03 1.15544E-21
1.00376E-02 1.06123E-21
1.04773E-02 9.76552E-22
1.09262E-02 9.00267E-22
1.13844E-02 8.31389E-22
1.18520E-02 7.69065E-22
1.23288E-02 7.12554E-22
1.28150E-02 6.61216E-22
1.33104E-02 6.14489E-22
1.38150E-02 5.71879E-22
1.43290E-02 5.32956E-22
1.48521E-02 4.97341E-22
1.53845E-02 4.64700E-22
1.59262E-02 4.34737E-22
1.64770E-02 4.07191E-22
1.70371E-02 3.81829E-22
1.76063E-02 3.58445E-22
1.81848E-02 3.36856E-22
1.87724E-02 3.16896E-22
1.93692E-02 2.98420E-22
1.99751E-02 2.81295E-22
2.05901E-02 2.65404E-22
2.12143E-02 2.50640E-22
2.18476E-02 2.36909E-22
2.24900E-02 2.24122E-22
2.31415E-02 2.12204E-22
2.38021E-02 2.01083E-22
2.44717E-02 1.90695E-22
2.51504E-02 1.80983E-22
2.58382E-02 1.71894E-22
2.65349E-02 1.63380E-22
2.72407E-02 1.55398E-22
2.79555E-02 1.47907E-22
2.86793E-02 1.40871E-22
2.94120E-02 1.34258E-22
3.01537E-02 1.28036E-22
3.09043E-02 1.22179E-22
3.16639E-02 1.16659E-22
3.24324E-02 1.11455E-22
3.32098E-02 1.06544E-22
3.39961E-02 1.01906E-22
3.47912E-02 9.75233E-23
3.55952E-02 9.33789E-23
3.64081E-02 8.94572E-23
3.72297E-02 8.57437E-23
3.80602E-02 8.22253E-23
3.88995E-02 7.88894E-23
3.97476E-02 7.57248E-23
4.06044E-02 7.27208E-23
4.14700E-02 6.98677E-23
4.23443E-02 6.71562E-23
4.32273E-02 6.45780E-23
4.41190E-02 6.21250E-23
4.50194E-02 5.97901E-23
4.59284E-02 5.75662E-23
4.68461E-02 5.54471E-23
4.87074E-02 5.14998E-23
5.06030E-02 4.79050E-23
5.25328E-02 4.46251E-23
5.44967E-02 4.16270E-23
5.64946E-02 3.88818E-23
5.85262E-02 3.63639E-23
6.05914E-02 3.40507E-23
6.26901E-02 3.19224E-23
6.48222E-02 2.99611E-23
6.69873E-02 2.81512E-23
6.91854E-02 2.64786E-23
7.14163E-02 2.49308E-23
7.36799E-02 2.34966E-23
7.59760E-02 2.21661E-23
7.83043E-02 2.09301E-23
8.06647E-02 1.97807E-23
8.30571E-02 1.87104E-23
8.54812E-02 1.77129E-23
8.79369E-02 1.67820E-23
9.04240E-02 1.59126E-23
9.29422E-02 1.50996E-23
9.54915E-02 1.43387E-23
9.80716E-02 1.36258E-23
1.00682E-01 1.29573E-23
1.03323E-01 1.23299E-23
1.05995E-01 1.17404E-23
1.08696E-01 1.11861E-23
1.11427E-01 1.06645E-23
1.14188E-01 1.01733E-23
1.16978E-01 9.71040E-24
1.19797E-01 9.27374E-24
1.22645E-01 8.86158E-24
1.25522E-01 8.47225E-24
1.28428E-01 8.10423E-24
1.31361E-01 7.75611E-24
1.34323E-01 7.42660E-24
1.37313E-01 7.11449E-24
1.40330E-01 6.81867E-24
1.43375E-01 6.53813E-24
1.46447E-01 6.27190E-24
1.49545E-01 6.01912E-24
1.52671E-01 5.77895E-24
1.55823E-01 5.55064E-24
1.59001E-01 5.33349E-24
1.62205E-01 5.12684E-24
1.65435E-01 4.93007E-24
1.68690E-01 4.74262E-24
1.71970E-01 4.56395E-24
1.75276E-01 4.39358E-24
1.78606E-01 4.23102E-24
1.81961E-01 4.07586E-24
1.85340E-01 3.92769E-24
1.88743E-01 3.78613E-24
1.92169E-01 3.65082E-24
1.95619E-01 3.52143E-24
1.99092E-01 3.39765E-24
2.02589E-01 3.27919E-24
2.06107E-01 3.16577E-24
2.09649E-01 3.05713E-24
2.13212E-01 2.95304E-24
2.16797E-01 2.85326E-24
2.20404E-01 2.75758E-24
2.24032E-01 2.66579E-24
2.27680E-01 2.57771E-24
2.31350E-01 2.49316E-24
2.35040E-01 2.41196E-24
2.38751E-01 2.33396E-24
2.42481E-01 2.25901E-24
2.46231E-01 2.18696E-24
2.50000E-01 2.11768E-24
2.53788E-01 2.05104E-24
2.57595E-01 1.98692E-24
2.61421E-01 1.92520E-24
2.65264E-01 1.86579E-24
2.69126E-01 1.80857E-24
2.73005E-01 1.75345E-24
2.76901E-01 1.70033E-24
2.80814E-01 1.64914E-24
2.84744E-01 1.59978E-24
2.88691E-01 1.55218E-24
2.92653E-01 1.50626E-24
2.96632E-01 1.46195E-24
3.00625E-01 1.41919E-24
3.04634E-01 1.37791E-24
3.08658E-01 1.33804E-24
3.12697E-01 1.29954E-24
3.16749E-01 1.26235E-24
3.20816E-01 1.22640E-24
3.24896E-01 1.19166E-24
3.28990E-01 1.15808E-24
3.33097E-01 1.12560E-24
3.37216E-01 1.09419E-24
3.41348E-01 1.06380E-24
3.45492E-01 1.03440E-24
3.49647E-01 1.00594E-24
3.53814E-01 9.78399E-25
3.57992E-01 9.51730E-25
3.62181E-01 9.25903E-25
3.66381E-01 9.00888E-25
3.70590E-01 8.76654E-25
3.74810E-01 8.53172E-25
3.79039E-01 8.30414E-25
3.83277E-01 8.08355E-25
3.87524E-01 7.86969E-25
3.91780E-01 7.66231E-25
3.96044E-01 7.46119E-25
4.00316E-01 7.26610E-25
4.04596E-01 7.07683E-25
4.08882E-01 6.89317E-25
4.13176E-01 6.71492E-25
4.17476E-01 6.54191E-25
4.21783E-01 6.37394E-25
4.26095E-01 6.21085E-25
4.30413E-01 6.05247E-25
4.34737E-01 5.89864E-25
4.39065E-01 5.74921E-25
4.43398E-01 5.60402E-25
4.47736E-01 5.46293E-25
4.52077E-01 5.32582E-25
4.56422E-01 5.19255E-25
4.60770E-01 5.06299E-25
4.65122E-01 4.93702E-25
4.69476E-01 4.81453E-25
4.73832E-01 4.69540E-25
4.78190E-01 4.57953E-25
4.82550E-01 4.46681E-25
4.86912E-01 4.35714E-25
4.91274E-01 4.25043E-25
4.95637E-01 4.14658E-25
5.00000E-01 4.04550E-25
5.04363E-01 3.94711E-25
5.08726E-01 3.85132E-25
5.13088E-01 3.75806E-25
5.17450E-01 3.66724E-25
5.21810E-01 3.57879E-25
5.26168E-01 3.49265E-25
5.30524E-01 3.40873E-25
5.34878E-01 3.32698E-25
5.39230E-01 3.24733E-25
5.43578E-01 3.16971E-25
5.47923E-01 3.09407E-25
5.52264E-01 3.02035E-25
5.56602E-01 2.94849E-25
5.60935E-01 2.87844E-25
5.65263E-01 2.81014E-25
5.69587E-01 2.74355E-25
5.73905E-01 2.67861E-25
5.78217E-01 2.61529E-25
5.82524E-01 2.55352E-25
5.86824E-01 2.49327E-25
5.91118E-01 2.43450E-25
5.95404E-01 2.37716E-25
5.99684E-01 2.32122E-25
6.03956E-01 2.26663E-25
6.08220E-01 2.21336E-25
6.12476E-01 2.16137E-25
6.16723E-01 2.11062E-25
6.20961E-01 2.06109E-25
6.25190E-01 2.01274E-25
6.29410E-01 1.96553E-25
6.33619E-01 1.91944E-25
6.37819E-01 1.87443E-25
6.42008E-01 1.83049E-25
6.46186E-01 1.78757E-25
6.50353E-01 1.74565E-25
6.54508E-01 1.70471E-25
6.58652E-01 1.66472E-25
6.62784E-01 1.62565E-25
6.66903E-01 1.58748E-25
6.71010E-01 1.55019E-25
6.75104E-01 1.51375E-25
6.79184E-01 1.47815E-25
6.83251E-01 1.44336E-25
6.87303E-01 1.40936E-25
6.91342E-01 1.37612E-25
6.95366E-01 1.34364E-25
6.99375E-01 1.31189E-25
7.03368E-01 1.28086E-25
7.07347E-01 1.25052E-25
7.11309E-01 1.22086E-25
7.15256E-01 1.19186E-25
7.19186E-01 1.16350E-25
7.23099E-01 1.13578E-25
7.26995E-01 1.10867E-25
7.30874E-01 1.08215E-25
7.34736E-01 1.05622E-25
7.38579E-01 1.03087E-25
7.42405E-01 1.00607E-25
7.46212E-01 9.81807E-26
7.50000E-01 9.58079E-26
7.53769E-01 9.34869E-26
7.57519E-01 9.12164E-26
7.61249E-01 8.89952E-26
7.64960E-01 8.68222E-26
7.68650E-01 8.46963E-26
7.72320E-01 8.26163E-26
7.75968E-01 8.05812E-26
7.79596E-01 7.85900E-26
7.83203E-01 7.66416E-26
7.86788E-01 7.47351E-26
7.90351E-01 7.28695E-26
7.93893E-01 7.10438E-26
7.97411E-01 6.92573E-26
8.00908E-01 6.75089E-26
8.04381E-01 6.57979E-26
8.07831E-01 6.41234E-26
8.11257E-01 6.24846E-26
8.14660E-01 6.08807E-26
8.18039E-01 5.93110E-26
8.21394E-01 5.77746E-26
8.24724E-01 5.62709E-26
8.28030E-01 5.47992E-26
8.31310E-01 5.33588E-26
8.34565E-01 5.19489E-26
8.37795E-01 5.05690E-26
8.40999E-01 4.92183E-26
8.44177E-01 4.78964E-26
8.47329E-01 4.66025E-26
8.50455E-01 4.53362E-26
8.53553E-01 4.40967E-26
8.56625E-01 4.28836E-26
8.59670E-01 4.16964E-26
8.62687E-01 4.05344E-26
8.65677E-01 3.93972E-26
8.68639E-01 3.82842E-26
8.71572E-01 3.71950E-26
8.74478E-01 3.61292E-26
8.77355E-01 3.50861E-26
8.80203E-01 3.40655E-26
8.83022E-01 3.30668E-26
8.85812E-01 3.20896E-26
8.88573E-01 3.11335E-26
8.91304E-01 3.01981E-26
8.94005E-01 2.92829E-26
8.96677E-01 2.83877E-26
8.99318E-01 2.75120E-26
9.01928E-01 2.66555E-26
9.04508E-01 2.58177E-26
9.07058E-01 2.49984E-26
9.09576E-01 2.41973E-26
9.12063E-01 2.34139E-26
9.14519E-01 2.26479E-26
9.16943E-01 2.18991E-26
9.19335E-01 2.11672E-26
9.21696E-01 2.04518E-26
9.24024E-01 1.97526E-26
9.26320E-01 1.90694E-26
9.28584E-01 1.84020E-26
9.30815E-01 1.77499E-26
9.33013E-01 1.71130E-26
9.35178E-01 1.64910E-26
9.37310E-01 1.58837E-26
9.39409E-01 1.52908E-26
9.41474E-01 1.47121E-26
9.43505E-01 1.41474E-26
9.45503E-01 1.35964E-26
9.47467E-01 1.30590E-26
9.49397E-01 1.25349E-26
9.51293E-01 1.20238E-26
9.53154E-01 1.15258E-26
9.54981E-01 1.10404E-26
9.56773E-01 1.05676E-26
9.58530E-01 1.01071E-26
9.60252E-01 9.65885E-27
9.61940E-01 9.22259E-27
9.63592E-01 8.79818E-27
9.65209E-01 8.38545E-27
9.66790E-01 7.98426E-27
9.68336E-01 7.59444E-27
9.69846E-01 7.21586E-27
9.71321E-01 6.84836E-27
9.72759E-01 6.49182E-27
9.74162E-01 6.14610E-27
9.75528E-01 5.81106E-27
9.76858E-01 5.48659E-27
9.78152E-01 5.17257E-27
9.79410E-01 4.86888E-27
9.80631E-01 4.57540E-27
9.81815E-01 4.29203E-27
9.82963E-01 4.01866E-27
9.84074E-01 3.75519E-27
9.85148E-01 3.50153E-27
9.86185E-01 3.25758E-27
9.87185E-01 3.02326E-27
9.88148E-01 2.79847E-27
9.89074E-01 2.58314E-27
9.89962E-01 2.37719E-27
9.90814E-01 2.18054E-27
9.91627E-01 1.99312E-27
9.92404E-01 1.81487E-27
9.93143E-01 1.64571E-27
9.93844E-01 1.48559E-27
9.94508E-01 1.33445E-27
9.95134E-01 1.19223E-27
9.95722E-01 1.05889E-27
9.96273E-01 9.34371E-28
9.96786E-01 8.18634E-28
9.97261E-01 7.11636E-28
9.97698E-01 6.13339E-28
9.98097E-01 5.23707E-28
9.98459E-01 4.42708E-28
9.98782E-01 3.70313E-28
9.99067E-01 3.06495E-28
9.99315E-01 2.51233E-28
9.99524E-01 2.04507E-28
9.99695E-01 1.66298E-28
9.99829E-01 1.36595E-28
9.99924E-01 1.15386E-28
9.99981E-01 1.02664E-28
1.00000E+00 9.84233E-29
