 #
 # Subroutine ELSEPA. Elastic scattering of electrons and positrons
 #                    by neutral atoms and positive ions
 #
 # Projectile: electron
 # Kinetic energy = 4.50000E+07 eV = 1.65372E+06 a.u.
 #
 # WARNING: High-energy factorization with free-atom DF screening.
 #          Absorption, polarization and exchange corrections are
 #          switched off.
 #          Phase shifts are calculated for the bare nucleus.
 #          Scattering amplitudes are not evaluated.
 #
 # Element: Ho,  Z =  67,  atomic weight = 1.64930E+02 g/mol
 #
 # Nuclear model: Fermi distribution
 #                Average radius = 5.86792E-13 cm
 #                Skin thickness = 5.46000E-14 cm
 #
 # Number of electrons = 67
 #
 # Total elastic cross section = 7.08833E-18 cm**2 = 2.53129E-01 a0**2
 # 1st transport cross section = 4.19406E-24 cm**2 = 1.49773E-07 a0**2
 # 2nd transport cross section = 1.22488E-23 cm**2 = 4.37412E-07 a0**2
 #
 #
 # Differential cross section:                       MU=(1-COS(THETA))/2
 #
 #  THETA        MU          DCS          DCS        Sherman      error
 #  (deg)                 (cm**2/sr)   (a0**2/sr)    function
 #----------------------------------------------------------------------
0.00000E+00 1.55829E-10
7.61557E-13 1.55680E-10
1.18994E-12 1.55596E-10
1.71346E-12 1.55495E-10
2.33225E-12 1.55375E-10
3.04617E-12 1.55236E-10
3.85530E-12 1.55080E-10
4.75964E-12 1.54906E-10
5.75917E-12 1.54713E-10
6.85391E-12 1.54503E-10
8.04379E-12 1.54275E-10
9.32893E-12 1.54029E-10
1.07092E-11 1.53766E-10
1.21847E-11 1.53486E-10
1.37554E-11 1.53189E-10
1.54213E-11 1.52874E-10
1.71823E-11 1.52543E-10
1.90386E-11 1.52195E-10
2.09900E-11 1.51831E-10
2.30367E-11 1.51451E-10
2.51785E-11 1.51054E-10
2.74156E-11 1.50642E-10
2.97478E-11 1.50215E-10
3.21752E-11 1.49772E-10
3.46979E-11 1.49314E-10
3.73157E-11 1.48841E-10
4.00286E-11 1.48354E-10
4.28368E-11 1.47853E-10
4.57402E-11 1.47337E-10
4.87388E-11 1.46808E-10
5.18325E-11 1.46266E-10
5.50215E-11 1.45710E-10
5.83057E-11 1.45141E-10
6.16850E-11 1.44560E-10
6.51595E-11 1.43967E-10
6.87293E-11 1.43362E-10
7.23943E-11 1.42745E-10
7.61544E-11 1.42116E-10
1.18991E-10 1.35289E-10
1.71347E-10 1.27665E-10
2.33223E-10 1.19596E-10
3.04617E-10 1.11346E-10
3.85531E-10 1.03155E-10
4.75965E-10 9.52131E-11
5.75917E-10 8.76610E-11
6.85389E-10 8.06032E-11
8.04380E-10 7.41061E-11
9.32891E-10 6.81554E-11
1.07092E-09 6.27447E-11
1.21847E-09 5.78513E-11
1.37554E-09 5.34419E-11
1.54213E-09 4.94846E-11
1.71823E-09 4.59342E-11
1.90386E-09 4.27379E-11
2.09900E-09 3.98573E-11
2.30367E-09 3.72567E-11
2.51785E-09 3.49035E-11
2.74156E-09 3.27682E-11
2.97478E-09 3.08220E-11
3.21752E-09 2.90421E-11
3.46978E-09 2.74093E-11
3.73156E-09 2.59068E-11
4.00286E-09 2.45199E-11
4.28368E-09 2.32324E-11
4.57402E-09 2.20348E-11
4.87388E-09 2.09194E-11
5.18326E-09 1.98781E-11
5.50215E-09 1.89039E-11
5.83057E-09 1.79908E-11
6.16850E-09 1.71291E-11
6.51596E-09 1.63180E-11
6.87293E-09 1.55540E-11
7.23942E-09 1.48337E-11
7.61544E-09 1.41537E-11
1.18991E-08 8.96370E-12
1.71347E-08 5.95198E-12
2.33223E-08 4.04358E-12
3.04617E-08 2.84665E-12
3.85531E-08 2.06289E-12
4.75965E-08 1.53064E-12
5.75917E-08 1.15775E-12
6.85389E-08 8.88670E-13
8.04380E-08 6.90111E-13
9.32891E-08 5.43032E-13
1.07092E-07 4.32411E-13
1.21847E-07 3.48132E-13
1.37554E-07 2.83195E-13
1.54213E-07 2.32564E-13
1.71823E-07 1.92751E-13
1.90386E-07 1.61227E-13
2.09900E-07 1.36012E-13
2.30367E-07 1.15647E-13
2.51785E-07 9.90518E-14
2.74156E-07 8.54221E-14
2.97478E-07 7.40538E-14
3.21752E-07 6.45598E-14
3.46978E-07 5.65806E-14
3.73156E-07 4.98285E-14
4.00286E-07 4.40769E-14
4.28368E-07 3.91379E-14
4.57402E-07 3.48751E-14
4.87388E-07 3.11794E-14
5.18325E-07 2.79601E-14
5.50215E-07 2.51439E-14
5.83057E-07 2.26712E-14
6.16850E-07 2.04891E-14
6.51596E-07 1.85617E-14
6.87293E-07 1.68550E-14
7.23942E-07 1.53396E-14
7.61543E-07 1.39901E-14
1.18991E-06 6.13154E-15
1.71347E-06 3.09174E-15
2.33223E-06 1.72428E-15
3.04617E-06 1.03683E-15
3.85531E-06 6.60651E-16
4.75964E-06 4.40726E-16
5.75916E-06 3.05164E-16
6.85388E-06 2.17915E-16
8.04378E-06 1.59704E-16
9.32888E-06 1.19671E-16
1.07092E-05 9.14131E-17
1.21846E-05 7.10145E-17
1.37553E-05 5.59950E-17
1.54212E-05 4.47409E-17
1.71822E-05 3.61756E-17
1.90385E-05 2.95501E-17
2.09899E-05 2.43984E-17
2.30365E-05 2.03192E-17
2.51783E-05 1.70541E-17
2.74153E-05 1.44162E-17
2.97475E-05 1.22678E-17
3.21749E-05 1.05052E-17
3.46974E-05 9.04907E-18
3.73152E-05 7.83786E-18
4.00281E-05 6.82360E-18
4.28362E-05 5.96870E-18
4.57395E-05 5.24367E-18
4.87380E-05 4.62531E-18
5.18317E-05 4.09526E-18
5.50205E-05 3.63885E-18
5.83045E-05 3.24425E-18
6.16838E-05 2.90178E-18
6.51582E-05 2.60344E-18
6.87277E-05 2.34260E-18
7.23925E-05 2.11370E-18
7.61524E-05 1.91236E-18
9.21439E-05 1.31099E-18
1.09658E-04 9.28528E-19
1.28695E-04 6.76029E-19
1.49255E-04 5.03811E-19
1.71338E-04 3.83155E-19
1.94942E-04 2.96563E-19
2.20070E-04 2.33126E-19
2.46720E-04 1.85794E-19
2.74892E-04 1.49896E-19
3.04586E-04 1.22274E-19
3.35803E-04 1.00739E-19
3.68542E-04 8.37482E-20
4.02802E-04 7.01984E-20
4.38585E-04 5.92855E-20
4.75889E-04 5.04169E-20
5.14715E-04 4.31492E-20
5.55063E-04 3.71477E-20
5.96931E-04 3.21564E-20
6.40321E-04 2.79779E-20
6.85233E-04 2.44581E-20
7.31665E-04 2.14763E-20
7.79618E-04 1.89365E-20
8.29092E-04 1.67624E-20
8.80086E-04 1.48925E-20
9.32601E-04 1.32769E-20
9.86636E-04 1.18754E-20
1.04219E-03 1.06546E-20
1.09927E-03 9.58728E-21
1.15786E-03 8.65080E-21
1.21797E-03 7.82636E-21
1.27961E-03 7.09823E-21
1.34276E-03 6.45319E-21
1.40743E-03 5.88008E-21
1.47362E-03 5.36948E-21
1.54133E-03 4.91337E-21
1.61056E-03 4.50491E-21
1.68131E-03 4.13821E-21
1.75357E-03 3.80827E-21
1.82735E-03 3.51072E-21
1.90265E-03 3.24183E-21
1.97947E-03 2.99833E-21
2.05780E-03 2.77739E-21
2.13765E-03 2.57654E-21
2.21902E-03 2.39363E-21
2.30190E-03 2.22676E-21
2.38630E-03 2.07426E-21
2.47222E-03 1.93467E-21
2.55965E-03 1.80671E-21
2.64859E-03 1.68921E-21
2.73905E-03 1.58118E-21
2.83103E-03 1.48170E-21
2.92452E-03 1.38997E-21
3.01952E-03 1.30528E-21
3.11604E-03 1.22698E-21
3.21407E-03 1.15451E-21
3.31362E-03 1.08735E-21
3.41468E-03 1.02504E-21
3.51725E-03 9.67155E-22
3.62133E-03 9.13332E-22
3.72692E-03 8.63227E-22
3.83403E-03 8.16537E-22
3.94265E-03 7.72985E-22
4.05278E-03 7.32320E-22
4.16442E-03 6.94315E-22
4.27757E-03 6.58762E-22
4.39223E-03 6.25473E-22
4.50840E-03 5.94278E-22
4.62608E-03 5.65017E-22
4.74527E-03 5.37551E-22
4.86597E-03 5.11746E-22
4.98817E-03 4.87484E-22
5.11188E-03 4.64654E-22
5.23711E-03 4.43157E-22
5.36383E-03 4.22898E-22
5.49207E-03 4.03793E-22
5.62181E-03 3.85764E-22
5.75306E-03 3.68738E-22
5.88581E-03 3.52649E-22
6.02007E-03 3.37436E-22
6.15583E-03 3.23041E-22
6.29310E-03 3.09412E-22
6.43187E-03 2.96500E-22
6.57214E-03 2.84260E-22
6.71392E-03 2.72651E-22
6.85720E-03 2.61633E-22
7.00198E-03 2.51171E-22
7.14827E-03 2.41232E-22
7.29605E-03 2.31783E-22
7.44534E-03 2.22796E-22
7.59612E-03 2.14245E-22
7.97965E-03 1.94608E-22
8.37255E-03 1.77187E-22
8.77480E-03 1.61688E-22
9.18641E-03 1.47861E-22
9.60736E-03 1.35491E-22
1.00376E-02 1.24399E-22
1.04773E-02 1.14427E-22
1.09262E-02 1.05442E-22
1.13844E-02 9.73282E-23
1.18520E-02 8.99861E-23
1.23288E-02 8.33270E-23
1.28150E-02 7.72763E-23
1.33104E-02 7.17684E-23
1.38150E-02 6.67456E-23
1.43290E-02 6.21572E-23
1.48521E-02 5.79586E-23
1.53845E-02 5.41105E-23
1.59262E-02 5.05781E-23
1.64770E-02 4.73306E-23
1.70371E-02 4.43408E-23
1.76063E-02 4.15843E-23
1.81848E-02 3.90395E-23
1.87724E-02 3.66870E-23
1.93692E-02 3.45096E-23
1.99751E-02 3.24917E-23
2.05901E-02 3.06195E-23
2.12143E-02 2.88804E-23
2.18476E-02 2.72632E-23
2.24900E-02 2.57576E-23
2.31415E-02 2.43546E-23
2.38021E-02 2.30457E-23
2.44717E-02 2.18236E-23
2.51504E-02 2.06812E-23
2.58382E-02 1.96125E-23
2.65349E-02 1.86117E-23
2.72407E-02 1.76738E-23
2.79555E-02 1.67940E-23
2.86793E-02 1.59680E-23
2.94120E-02 1.51919E-23
3.01537E-02 1.44621E-23
3.09043E-02 1.37754E-23
3.16639E-02 1.31287E-23
3.24324E-02 1.25191E-23
3.32098E-02 1.19443E-23
3.39961E-02 1.14018E-23
3.47912E-02 1.08894E-23
3.55952E-02 1.04052E-23
3.64081E-02 9.94732E-24
3.72297E-02 9.51405E-24
3.80602E-02 9.10383E-24
3.88995E-02 8.71518E-24
3.97476E-02 8.34676E-24
4.06044E-02 7.99732E-24
4.14700E-02 7.66570E-24
4.23443E-02 7.35081E-24
4.32273E-02 7.05164E-24
4.41190E-02 6.76727E-24
4.50194E-02 6.49683E-24
4.59284E-02 6.23950E-24
4.68461E-02 5.99453E-24
4.87074E-02 5.53889E-24
5.06030E-02 5.12480E-24
5.25328E-02 4.74781E-24
5.44967E-02 4.40400E-24
5.64946E-02 4.08995E-24
5.85262E-02 3.80262E-24
6.05914E-02 3.53934E-24
6.26901E-02 3.29774E-24
6.48222E-02 3.07574E-24
6.69873E-02 2.87146E-24
6.91854E-02 2.68325E-24
7.14163E-02 2.50963E-24
7.36799E-02 2.34926E-24
7.59760E-02 2.20098E-24
7.83043E-02 2.06370E-24
8.06647E-02 1.93648E-24
8.30571E-02 1.81846E-24
8.54812E-02 1.70886E-24
8.79369E-02 1.60698E-24
9.04240E-02 1.51219E-24
9.29422E-02 1.42391E-24
9.54915E-02 1.34162E-24
9.80716E-02 1.26485E-24
1.00682E-01 1.19317E-24
1.03323E-01 1.12619E-24
1.05995E-01 1.06356E-24
1.08696E-01 1.00493E-24
1.11427E-01 9.50030E-25
1.14188E-01 8.98573E-25
1.16978E-01 8.50312E-25
1.19797E-01 8.05018E-25
1.22645E-01 7.62482E-25
1.25522E-01 7.22510E-25
1.28428E-01 6.84925E-25
1.31361E-01 6.49563E-25
1.34323E-01 6.16273E-25
1.37313E-01 5.84917E-25
1.40330E-01 5.55366E-25
1.43375E-01 5.27501E-25
1.46447E-01 5.01212E-25
1.49545E-01 4.76398E-25
1.52671E-01 4.52965E-25
1.55823E-01 4.30825E-25
1.59001E-01 4.09898E-25
1.62205E-01 3.90107E-25
1.65435E-01 3.71383E-25
1.68690E-01 3.53661E-25
1.71970E-01 3.36881E-25
1.75276E-01 3.20985E-25
1.78606E-01 3.05922E-25
1.81961E-01 2.91642E-25
1.85340E-01 2.78100E-25
1.88743E-01 2.65252E-25
1.92169E-01 2.53059E-25
1.95619E-01 2.41483E-25
1.99092E-01 2.30490E-25
2.02589E-01 2.20046E-25
2.06107E-01 2.10121E-25
2.09649E-01 2.00687E-25
2.13212E-01 1.91716E-25
2.16797E-01 1.83182E-25
2.20404E-01 1.75064E-25
2.24032E-01 1.67337E-25
2.27680E-01 1.59981E-25
2.31350E-01 1.52976E-25
2.35040E-01 1.46304E-25
2.38751E-01 1.39948E-25
2.42481E-01 1.33890E-25
2.46231E-01 1.28116E-25
2.50000E-01 1.22611E-25
2.53788E-01 1.17361E-25
2.57595E-01 1.12353E-25
2.61421E-01 1.07575E-25
2.65264E-01 1.03016E-25
2.69126E-01 9.86635E-26
2.73005E-01 9.45085E-26
2.76901E-01 9.05411E-26
2.80814E-01 8.67519E-26
2.84744E-01 8.31322E-26
2.88691E-01 7.96738E-26
2.92653E-01 7.63690E-26
2.96632E-01 7.32103E-26
3.00625E-01 7.01907E-26
3.04634E-01 6.73036E-26
3.08658E-01 6.45427E-26
3.12697E-01 6.19021E-26
3.16749E-01 5.93762E-26
3.20816E-01 5.69595E-26
3.24896E-01 5.46471E-26
3.28990E-01 5.24340E-26
3.33097E-01 5.03157E-26
3.37216E-01 4.82878E-26
3.41348E-01 4.63463E-26
3.45492E-01 4.44871E-26
3.49647E-01 4.27066E-26
3.53814E-01 4.10012E-26
3.57992E-01 3.93675E-26
3.62181E-01 3.78023E-26
3.66381E-01 3.63026E-26
3.70590E-01 3.48654E-26
3.74810E-01 3.34880E-26
3.79039E-01 3.21677E-26
3.83277E-01 3.09020E-26
3.87524E-01 2.96885E-26
3.91780E-01 2.85250E-26
3.96044E-01 2.74093E-26
4.00316E-01 2.63393E-26
4.04596E-01 2.53130E-26
4.08882E-01 2.43285E-26
4.13176E-01 2.33841E-26
4.17476E-01 2.24780E-26
4.21783E-01 2.16086E-26
4.26095E-01 2.07744E-26
4.30413E-01 1.99737E-26
4.34737E-01 1.92053E-26
4.39065E-01 1.84677E-26
4.43398E-01 1.77597E-26
4.47736E-01 1.70800E-26
4.52077E-01 1.64274E-26
4.56422E-01 1.58008E-26
4.60770E-01 1.51991E-26
4.65122E-01 1.46213E-26
4.69476E-01 1.40664E-26
4.73832E-01 1.35334E-26
4.78190E-01 1.30215E-26
4.82550E-01 1.25297E-26
4.86912E-01 1.20573E-26
4.91274E-01 1.16034E-26
4.95637E-01 1.11672E-26
5.00000E-01 1.07482E-26
5.04363E-01 1.03455E-26
5.08726E-01 9.95854E-27
5.13088E-01 9.58662E-27
5.17450E-01 9.22916E-27
5.21810E-01 8.88557E-27
5.26168E-01 8.55530E-27
5.30524E-01 8.23779E-27
5.34878E-01 7.93256E-27
5.39230E-01 7.63909E-27
5.43578E-01 7.35692E-27
5.47923E-01 7.08560E-27
5.52264E-01 6.82469E-27
5.56602E-01 6.57379E-27
5.60935E-01 6.33248E-27
5.65263E-01 6.10040E-27
5.69587E-01 5.87718E-27
5.73905E-01 5.66245E-27
5.78217E-01 5.45590E-27
5.82524E-01 5.25720E-27
5.86824E-01 5.06603E-27
5.91118E-01 4.88210E-27
5.95404E-01 4.70513E-27
5.99684E-01 4.53484E-27
6.03956E-01 4.37098E-27
6.08220E-01 4.21328E-27
6.12476E-01 4.06151E-27
6.16723E-01 3.91544E-27
6.20961E-01 3.77485E-27
6.25190E-01 3.63952E-27
6.29410E-01 3.50924E-27
6.33619E-01 3.38383E-27
6.37819E-01 3.26309E-27
6.42008E-01 3.14684E-27
6.46186E-01 3.03491E-27
6.50353E-01 2.92713E-27
6.54508E-01 2.82334E-27
6.58652E-01 2.72339E-27
6.62784E-01 2.62712E-27
6.66903E-01 2.53440E-27
6.71010E-01 2.44510E-27
6.75104E-01 2.35907E-27
6.79184E-01 2.27619E-27
6.83251E-01 2.19635E-27
6.87303E-01 2.11943E-27
6.91342E-01 2.04531E-27
6.95366E-01 1.97389E-27
6.99375E-01 1.90506E-27
7.03368E-01 1.83874E-27
7.07347E-01 1.77481E-27
7.11309E-01 1.71319E-27
7.15256E-01 1.65379E-27
7.19186E-01 1.59654E-27
7.23099E-01 1.54134E-27
7.26995E-01 1.48812E-27
7.30874E-01 1.43680E-27
7.34736E-01 1.38731E-27
7.38579E-01 1.33959E-27
7.42405E-01 1.29357E-27
7.46212E-01 1.24917E-27
7.50000E-01 1.20635E-27
7.53769E-01 1.16504E-27
7.57519E-01 1.12519E-27
7.61249E-01 1.08674E-27
7.64960E-01 1.04964E-27
7.68650E-01 1.01383E-27
7.72320E-01 9.79278E-28
7.75968E-01 9.45927E-28
7.79596E-01 9.13734E-28
7.83203E-01 8.82656E-28
7.86788E-01 8.52653E-28
7.90351E-01 8.23684E-28
7.93893E-01 7.95710E-28
7.97411E-01 7.68696E-28
8.00908E-01 7.42606E-28
8.04381E-01 7.17406E-28
8.07831E-01 6.93063E-28
8.11257E-01 6.69545E-28
8.14660E-01 6.46823E-28
8.18039E-01 6.24867E-28
8.21394E-01 6.03649E-28
8.24724E-01 5.83143E-28
8.28030E-01 5.63322E-28
8.31310E-01 5.44163E-28
8.34565E-01 5.25640E-28
8.37795E-01 5.07730E-28
8.40999E-01 4.90413E-28
8.44177E-01 4.73666E-28
8.47329E-01 4.57469E-28
8.50455E-01 4.41803E-28
8.53553E-01 4.26647E-28
8.56625E-01 4.11985E-28
8.59670E-01 3.97799E-28
8.62687E-01 3.84072E-28
8.65677E-01 3.70788E-28
8.68639E-01 3.57931E-28
8.71572E-01 3.45486E-28
8.74478E-01 3.33439E-28
8.77355E-01 3.21776E-28
8.80203E-01 3.10484E-28
8.83022E-01 2.99550E-28
8.85812E-01 2.88961E-28
8.88573E-01 2.78707E-28
8.91304E-01 2.68775E-28
8.94005E-01 2.59155E-28
8.96677E-01 2.49835E-28
8.99318E-01 2.40807E-28
9.01928E-01 2.32059E-28
9.04508E-01 2.23584E-28
9.07058E-01 2.15372E-28
9.09576E-01 2.07414E-28
9.12063E-01 1.99701E-28
9.14519E-01 1.92227E-28
9.16943E-01 1.84983E-28
9.19335E-01 1.77962E-28
9.21696E-01 1.71157E-28
9.24024E-01 1.64561E-28
9.26320E-01 1.58167E-28
9.28584E-01 1.51969E-28
9.30815E-01 1.45961E-28
9.33013E-01 1.40138E-28
9.35178E-01 1.34493E-28
9.37310E-01 1.29022E-28
9.39409E-01 1.23719E-28
9.41474E-01 1.18578E-28
9.43505E-01 1.13597E-28
9.45503E-01 1.08768E-28
9.47467E-01 1.04090E-28
9.49397E-01 9.95564E-29
9.51293E-01 9.51640E-29
9.53154E-01 9.09088E-29
9.54981E-01 8.67870E-29
9.56773E-01 8.27951E-29
9.58530E-01 7.89297E-29
9.60252E-01 7.51872E-29
9.61940E-01 7.15647E-29
9.63592E-01 6.80591E-29
9.65209E-01 6.46673E-29
9.66790E-01 6.13867E-29
9.68336E-01 5.82145E-29
9.69846E-01 5.51482E-29
9.71321E-01 5.21852E-29
9.72759E-01 4.93232E-29
9.74162E-01 4.65599E-29
9.75528E-01 4.38932E-29
9.76858E-01 4.13209E-29
9.78152E-01 3.88411E-29
9.79410E-01 3.64519E-29
9.80631E-01 3.41514E-29
9.81815E-01 3.19380E-29
9.82963E-01 2.98099E-29
9.84074E-01 2.77655E-29
9.85148E-01 2.58034E-29
9.86185E-01 2.39221E-29
9.87185E-01 2.21202E-29
9.88148E-01 2.03965E-29
9.89074E-01 1.87496E-29
9.89962E-01 1.71785E-29
9.90814E-01 1.56819E-29
9.91627E-01 1.42589E-29
9.92404E-01 1.29085E-29
9.93143E-01 1.16296E-29
9.93844E-01 1.04214E-29
9.94508E-01 9.28314E-30
9.95134E-01 8.21394E-30
9.95722E-01 7.21309E-30
9.96273E-01 6.27992E-30
9.96786E-01 5.41380E-30
9.97261E-01 4.61413E-30
9.97698E-01 3.88038E-30
9.98097E-01 3.21206E-30
9.98459E-01 2.60872E-30
9.98782E-01 2.06996E-30
9.99067E-01 1.59542E-30
9.99315E-01 1.18478E-30
9.99524E-01 8.37775E-31
9.99695E-01 5.54173E-31
9.99829E-01 3.33788E-31
9.99924E-01 1.76473E-31
9.99981E-01 8.21259E-32
1.00000E+00 5.06847E-32
