 #
 # Subroutine ELSEPA. Elastic scattering of electrons and positrons
 #                    by neutral atoms and positive ions
 #
 # Projectile: electron
 # Kinetic energy = 4.00000E+08 eV = 1.46997E+07 a.u.
 #
 # WARNING: High-energy factorization with free-atom DF screening.
 #          Absorption, polarization and exchange corrections are
 #          switched off.
 #          Phase shifts are calculated for the bare nucleus.
 #          Scattering amplitudes are not evaluated.
 #
 # Element: Ho,  Z =  67,  atomic weight = 1.64930E+02 g/mol
 #
 # Nuclear model: Fermi distribution
 #                Average radius = 5.86792E-13 cm
 #                Skin thickness = 5.46000E-14 cm
 #
 # Number of electrons = 67
 #
 # Total elastic cross section = 7.08082E-18 cm**2 = 2.52861E-01 a0**2
 # 1st transport cross section = 5.36901E-26 cm**2 = 1.91731E-09 a0**2
 # 2nd transport cross section = 1.60976E-25 cm**2 = 5.74855E-09 a0**2
 #
 #
 # Differential cross section:                       MU=(1-COS(THETA))/2
 #
 #  THETA        MU          DCS          DCS        Sherman      error
 #  (deg)                 (cm**2/sr)   (a0**2/sr)    function
 #----------------------------------------------------------------------
0.00000E+00 1.20682E-08
7.61557E-13 1.12314E-08
1.18994E-12 1.08030E-08
1.71346E-12 1.03177E-08
2.33225E-12 9.78884E-09
3.04617E-12 9.23601E-09
3.85530E-12 8.67398E-09
4.75964E-12 8.11360E-09
5.75917E-12 7.56514E-09
6.85391E-12 7.04154E-09
8.04379E-12 6.54438E-09
9.32893E-12 6.07674E-09
1.07092E-11 5.64170E-09
1.21847E-11 5.24240E-09
1.37554E-11 4.87453E-09
1.54213E-11 4.53715E-09
1.71823E-11 4.23018E-09
1.90386E-11 3.95110E-09
2.09900E-11 3.69642E-09
2.30367E-11 3.46424E-09
2.51785E-11 3.25349E-09
2.74156E-11 3.06100E-09
2.97478E-11 2.88485E-09
3.21752E-11 2.72354E-09
3.46979E-11 2.57557E-09
3.73157E-11 2.43923E-09
4.00286E-11 2.31342E-09
4.28368E-11 2.19700E-09
4.57402E-11 2.08878E-09
4.87388E-11 1.98814E-09
5.18325E-11 1.89441E-09
5.50215E-11 1.80653E-09
5.83057E-11 1.72409E-09
6.16850E-11 1.64680E-09
6.51595E-11 1.57423E-09
6.87293E-11 1.50535E-09
7.23943E-11 1.44043E-09
7.61544E-11 1.37919E-09
1.18991E-10 9.11608E-10
1.71347E-10 6.11937E-10
2.33223E-10 4.31389E-10
3.04617E-10 3.08742E-10
3.85531E-10 2.26315E-10
4.75965E-10 1.70133E-10
5.75917E-10 1.30501E-10
6.85389E-10 1.01066E-10
8.04380E-10 7.94618E-11
9.32891E-10 6.33006E-11
1.07092E-09 5.09320E-11
1.21847E-09 4.12617E-11
1.37554E-09 3.37699E-11
1.54213E-09 2.78885E-11
1.71823E-09 2.31990E-11
1.90386E-09 1.94432E-11
2.09900E-09 1.64260E-11
2.30367E-09 1.39792E-11
2.51785E-09 1.19713E-11
2.74156E-09 1.03191E-11
2.97478E-09 8.95011E-12
3.21752E-09 7.80693E-12
3.46978E-09 6.84507E-12
3.73156E-09 6.02894E-12
4.00286E-09 5.33299E-12
4.28368E-09 4.73695E-12
4.57402E-09 4.22343E-12
4.87388E-09 3.77970E-12
5.18326E-09 3.39430E-12
5.50215E-09 3.05694E-12
5.83057E-09 2.76073E-12
6.16850E-09 2.49994E-12
6.51596E-09 2.26944E-12
6.87293E-09 2.06406E-12
7.23942E-09 1.88142E-12
7.61544E-09 1.71856E-12
1.18991E-08 7.63148E-13
1.71347E-08 3.87038E-13
2.33223E-08 2.16507E-13
3.04617E-08 1.30482E-13
3.85531E-08 8.33018E-14
4.75965E-08 5.56694E-14
5.75917E-08 3.86101E-14
6.85389E-08 2.76115E-14
8.04380E-08 2.02628E-14
9.32891E-08 1.52023E-14
1.07092E-07 1.16257E-14
1.21847E-07 9.04017E-15
1.37554E-07 7.13400E-15
1.54213E-07 5.70381E-15
1.71823E-07 4.61423E-15
1.90386E-07 3.77254E-15
2.09900E-07 3.11414E-15
2.30367E-07 2.59320E-15
2.51785E-07 2.17671E-15
2.74156E-07 1.84052E-15
2.97478E-07 1.56680E-15
3.21752E-07 1.34213E-15
3.46978E-07 1.15633E-15
3.73156E-07 1.00160E-15
4.00286E-07 8.71916E-16
4.28368E-07 7.62562E-16
4.57402E-07 6.69835E-16
4.87388E-07 5.90789E-16
5.18325E-07 5.23073E-16
5.50215E-07 4.64791E-16
5.83057E-07 4.14407E-16
6.16850E-07 3.70671E-16
6.51596E-07 3.32558E-16
6.87293E-07 2.99221E-16
7.23942E-07 2.69961E-16
7.61543E-07 2.44192E-16
1.18991E-06 1.00769E-16
1.71347E-06 4.88339E-17
2.33223E-06 2.64471E-17
3.04617E-06 1.55393E-17
3.85531E-06 9.71794E-18
4.75964E-06 6.38434E-18
5.75916E-06 4.36509E-18
6.85388E-06 3.08462E-18
8.04378E-06 2.24106E-18
9.32888E-06 1.66713E-18
1.07092E-05 1.26572E-18
1.21846E-05 9.78179E-19
1.37553E-05 7.67852E-19
1.54212E-05 6.11142E-19
1.71822E-05 4.92452E-19
1.90385E-05 4.01035E-19
2.09899E-05 3.30214E-19
2.30365E-05 2.74322E-19
2.51783E-05 2.29718E-19
2.74153E-05 1.93780E-19
2.97475E-05 1.64582E-19
3.21749E-05 1.40682E-19
3.46974E-05 1.20979E-19
3.73152E-05 1.04621E-19
4.00281E-05 9.09480E-20
4.28362E-05 7.94429E-20
4.57395E-05 6.97013E-20
4.87380E-05 6.14056E-20
5.18317E-05 5.43049E-20
5.50205E-05 4.81993E-20
5.83045E-05 4.29274E-20
6.16838E-05 3.83577E-20
6.51582E-05 3.43816E-20
6.87277E-05 3.09091E-20
7.23925E-05 2.78653E-20
7.61524E-05 2.54121E-20
9.21439E-05 1.73902E-20
1.09658E-04 1.23000E-20
1.28695E-04 8.94535E-21
1.49255E-04 6.66036E-21
1.71338E-04 5.06083E-21
1.94942E-04 3.91363E-21
2.20070E-04 3.07363E-21
2.46720E-04 2.44712E-21
2.74892E-04 1.97208E-21
3.04586E-04 1.60663E-21
3.35803E-04 1.32174E-21
3.68542E-04 1.09701E-21
4.02802E-04 9.17826E-22
4.38585E-04 7.73537E-22
4.75889E-04 6.56306E-22
5.14715E-04 5.60266E-22
5.55063E-04 4.80991E-22
5.96931E-04 4.15091E-22
6.40321E-04 3.59953E-22
6.85233E-04 3.13541E-22
7.31665E-04 2.74253E-22
7.79618E-04 2.40821E-22
8.29092E-04 2.12232E-22
8.80086E-04 1.87673E-22
9.32601E-04 1.66483E-22
9.86636E-04 1.48127E-22
1.04219E-03 1.32164E-22
1.09927E-03 1.18233E-22
1.15786E-03 1.06034E-22
1.21797E-03 9.53161E-23
1.27961E-03 8.58719E-23
1.34276E-03 7.75258E-23
1.40743E-03 7.01298E-23
1.47362E-03 6.35586E-23
1.54133E-03 5.77060E-23
1.61056E-03 5.24810E-23
1.68131E-03 4.78059E-23
1.75357E-03 4.36139E-23
1.82735E-03 3.98474E-23
1.90265E-03 3.64566E-23
1.97947E-03 3.33984E-23
2.05780E-03 3.06352E-23
2.13765E-03 2.81344E-23
2.21902E-03 2.58673E-23
2.30190E-03 2.38089E-23
2.38630E-03 2.19372E-23
2.47222E-03 2.02328E-23
2.55965E-03 1.86787E-23
2.64859E-03 1.72596E-23
2.73905E-03 1.59623E-23
2.83103E-03 1.47748E-23
2.92452E-03 1.36867E-23
3.01952E-03 1.26883E-23
3.11604E-03 1.17714E-23
3.21407E-03 1.09285E-23
3.31362E-03 1.01527E-23
3.41468E-03 9.43806E-24
3.51725E-03 8.77915E-24
3.62133E-03 8.17108E-24
3.72692E-03 7.60944E-24
3.83403E-03 7.09025E-24
3.94265E-03 6.60992E-24
4.05278E-03 6.16521E-24
4.16442E-03 5.75317E-24
4.27757E-03 5.37112E-24
4.39223E-03 5.01664E-24
4.50840E-03 4.68753E-24
4.62608E-03 4.38176E-24
4.74527E-03 4.09752E-24
4.86597E-03 3.83313E-24
4.98817E-03 3.58706E-24
5.11188E-03 3.35792E-24
5.23711E-03 3.14442E-24
5.36383E-03 2.94541E-24
5.49207E-03 2.75980E-24
5.62181E-03 2.58661E-24
5.75306E-03 2.42494E-24
5.88581E-03 2.27395E-24
6.02007E-03 2.13288E-24
6.15583E-03 2.00103E-24
6.29310E-03 1.87773E-24
6.43187E-03 1.76240E-24
6.57214E-03 1.65448E-24
6.71392E-03 1.55346E-24
6.85720E-03 1.45886E-24
7.00198E-03 1.37026E-24
7.14827E-03 1.28723E-24
7.29605E-03 1.20942E-24
7.44534E-03 1.13647E-24
7.59612E-03 1.06806E-24
7.97965E-03 9.14978E-25
8.37255E-03 7.84338E-25
8.77480E-03 6.72699E-25
9.18641E-03 5.77186E-25
9.60736E-03 4.95387E-25
1.00376E-02 4.25271E-25
1.04773E-02 3.65125E-25
1.09262E-02 3.13500E-25
1.13844E-02 2.69166E-25
1.18520E-02 2.31081E-25
1.23288E-02 1.98354E-25
1.28150E-02 1.70228E-25
1.33104E-02 1.46055E-25
1.38150E-02 1.25279E-25
1.43290E-02 1.07428E-25
1.48521E-02 9.20913E-26
1.53845E-02 7.89204E-26
1.59262E-02 6.76136E-26
1.64770E-02 5.79118E-26
1.70371E-02 4.95920E-26
1.76063E-02 4.24615E-26
1.81848E-02 3.63548E-26
1.87724E-02 3.11285E-26
1.93692E-02 2.66593E-26
1.99751E-02 2.28407E-26
2.05901E-02 1.95808E-26
2.12143E-02 1.68001E-26
2.18476E-02 1.44303E-26
2.24900E-02 1.24123E-26
2.31415E-02 1.06953E-26
2.38021E-02 9.23542E-27
2.44717E-02 7.99489E-27
2.51504E-02 6.94127E-27
2.58382E-02 6.04665E-27
2.65349E-02 5.28709E-27
2.72407E-02 4.64203E-27
2.79555E-02 4.09391E-27
2.86793E-02 3.62768E-27
2.94120E-02 3.23052E-27
3.01537E-02 2.89149E-27
3.09043E-02 2.60132E-27
3.16639E-02 2.35211E-27
3.24324E-02 2.13720E-27
3.32098E-02 1.95096E-27
3.39961E-02 1.78867E-27
3.47912E-02 1.64634E-27
3.55952E-02 1.52066E-27
3.64081E-02 1.40885E-27
3.72297E-02 1.30864E-27
3.80602E-02 1.21811E-27
3.88995E-02 1.13570E-27
3.97476E-02 1.06015E-27
4.06044E-02 9.90413E-28
4.14700E-02 9.25641E-28
4.23443E-02 8.65158E-28
4.32273E-02 8.08421E-28
4.41190E-02 7.54998E-28
4.50194E-02 7.04547E-28
4.59284E-02 6.56796E-28
4.68461E-02 6.11536E-28
4.87074E-02 5.27854E-28
5.06030E-02 4.52552E-28
5.25328E-02 3.85013E-28
5.44967E-02 3.24791E-28
5.64946E-02 2.71507E-28
5.85262E-02 2.24791E-28
6.05914E-02 1.84246E-28
6.26901E-02 1.49442E-28
6.48222E-02 1.19913E-28
6.69873E-02 9.51703E-29
6.91854E-02 7.47081E-29
7.14163E-02 5.80215E-29
7.36799E-02 4.46165E-29
7.59760E-02 3.40208E-29
7.83043E-02 2.57923E-29
8.06647E-02 1.95257E-29
8.30571E-02 1.48560E-29
8.54812E-02 1.14612E-29
8.79369E-02 9.06169E-30
9.04240E-02 7.41998E-30
9.29422E-02 6.33784E-30
9.54915E-02 5.65344E-30
9.80716E-02 5.23772E-30
1.00682E-01 4.99048E-30
1.03323E-01 4.83640E-30
1.05995E-01 4.72117E-30
1.08696E-01 4.60773E-30
1.11427E-01 4.47290E-30
1.14188E-01 4.30427E-30
1.16978E-01 4.09756E-30
1.19797E-01 3.85427E-30
1.22645E-01 3.57976E-30
1.25522E-01 3.28172E-30
1.28428E-01 2.96889E-30
1.31361E-01 2.65018E-30
1.34323E-01 2.33398E-30
1.37313E-01 2.02766E-30
1.40330E-01 1.73737E-30
1.43375E-01 1.46789E-30
1.46447E-01 1.22260E-30
1.49545E-01 1.00356E-30
1.52671E-01 8.11655E-31
1.55823E-01 6.46742E-31
1.59001E-01 5.07840E-31
1.62205E-01 3.93312E-31
1.65435E-01 3.01052E-31
1.68690E-01 2.28647E-31
1.71970E-01 1.73524E-31
1.75276E-01 1.33078E-31
1.78606E-01 1.04769E-31
1.81961E-01 8.62085E-32
1.85340E-01 7.52086E-32
1.88743E-01 6.98253E-32
1.92169E-01 6.83769E-32
1.95619E-01 6.94505E-32
1.99092E-01 7.18962E-32
2.02589E-01 7.48120E-32
2.06107E-01 7.75231E-32
2.09649E-01 7.95558E-32
2.13212E-01 8.06095E-32
2.16797E-01 8.05278E-32
2.20404E-01 7.92706E-32
2.24032E-01 7.68871E-32
2.27680E-01 7.34918E-32
2.31350E-01 6.92423E-32
2.35040E-01 6.43218E-32
2.38751E-01 5.89228E-32
2.42481E-01 5.32356E-32
2.46231E-01 4.74384E-32
2.50000E-01 4.16911E-32
2.53788E-01 3.61307E-32
2.57595E-01 3.08688E-32
2.61421E-01 2.59915E-32
2.65264E-01 2.15597E-32
2.69126E-01 1.76108E-32
2.73005E-01 1.41611E-32
2.76901E-01 1.12089E-32
2.80814E-01 8.73748E-33
2.84744E-01 6.71802E-33
2.88691E-01 5.11296E-33
2.92653E-01 3.87875E-33
2.96632E-01 2.96835E-33
3.00625E-01 2.33355E-33
3.04634E-01 1.92680E-33
3.08658E-01 1.70270E-33
3.12697E-01 1.61919E-33
3.16749E-01 1.63831E-33
3.20816E-01 1.72675E-33
3.24896E-01 1.85609E-33
3.28990E-01 2.00284E-33
3.33097E-01 2.14827E-33
3.37216E-01 2.27811E-33
3.41348E-01 2.38216E-33
3.45492E-01 2.45384E-33
3.49647E-01 2.48966E-33
3.53814E-01 2.48872E-33
3.57992E-01 2.45219E-33
3.62181E-01 2.38283E-33
3.66381E-01 2.28454E-33
3.70590E-01 2.16200E-33
3.74810E-01 2.02024E-33
3.79039E-01 1.86443E-33
3.83277E-01 1.69962E-33
3.87524E-01 1.53052E-33
3.91780E-01 1.36141E-33
3.96044E-01 1.19602E-33
4.00316E-01 1.03749E-33
4.04596E-01 8.88324E-34
4.08882E-01 7.50447E-34
4.13176E-01 6.25183E-34
4.17476E-01 5.13328E-34
4.21783E-01 4.15196E-34
4.26095E-01 3.30690E-34
4.30413E-01 2.59364E-34
4.34737E-01 2.00496E-34
4.39065E-01 1.53149E-34
4.43398E-01 1.16237E-34
4.47736E-01 8.85815E-35
4.52077E-01 6.89580E-35
4.56422E-01 5.61421E-35
4.60770E-01 4.89438E-35
4.65122E-01 4.62367E-35
4.69476E-01 4.69792E-35
4.73832E-01 5.02300E-35
4.78190E-01 5.51578E-35
4.82550E-01 6.10459E-35
4.86912E-01 6.72926E-35
4.91274E-01 7.34082E-35
4.95637E-01 7.90085E-35
5.00000E-01 8.38073E-35
5.04363E-01 8.76067E-35
5.08726E-01 9.02863E-35
5.13088E-01 9.17927E-35
5.17450E-01 9.21283E-35
5.21810E-01 9.13406E-35
5.26168E-01 8.95125E-35
5.30524E-01 8.67526E-35
5.34878E-01 8.31871E-35
5.39230E-01 7.89523E-35
5.43578E-01 7.41883E-35
5.47923E-01 6.90339E-35
5.52264E-01 6.36221E-35
5.56602E-01 5.80770E-35
5.60935E-01 5.25110E-35
5.65263E-01 4.70235E-35
5.69587E-01 4.17001E-35
5.73905E-01 3.66117E-35
5.78217E-01 3.18150E-35
5.82524E-01 2.73529E-35
5.86824E-01 2.32557E-35
5.91118E-01 1.95417E-35
5.95404E-01 1.62188E-35
5.99684E-01 1.32856E-35
6.03956E-01 1.07330E-35
6.08220E-01 8.54549E-36
6.12476E-01 6.70237E-36
6.16723E-01 5.17910E-36
6.20961E-01 3.94844E-36
6.25190E-01 2.98147E-36
6.29410E-01 2.24845E-36
6.33619E-01 1.71969E-36
6.37819E-01 1.36613E-36
6.42008E-01 1.15995E-36
6.46186E-01 1.07492E-36
6.50353E-01 1.08674E-36
6.54508E-01 1.17330E-36
6.58652E-01 1.31475E-36
6.62784E-01 1.49358E-36
6.66903E-01 1.69462E-36
6.71010E-01 1.90498E-36
6.75104E-01 2.11394E-36
6.79184E-01 2.31282E-36
6.83251E-01 2.49482E-36
6.87303E-01 2.65485E-36
6.91342E-01 2.78935E-36
6.95366E-01 2.89610E-36
6.99375E-01 2.97403E-36
7.03368E-01 3.02304E-36
7.07347E-01 3.04384E-36
7.11309E-01 3.03779E-36
7.15256E-01 3.00673E-36
7.19186E-01 2.95290E-36
7.23099E-01 2.87877E-36
7.26995E-01 2.78696E-36
7.30874E-01 2.68016E-36
7.34736E-01 2.56105E-36
7.38579E-01 2.43223E-36
7.42405E-01 2.29619E-36
7.46212E-01 2.15525E-36
7.50000E-01 2.01155E-36
7.53769E-01 1.86704E-36
7.57519E-01 1.72344E-36
7.61249E-01 1.58226E-36
7.64960E-01 1.44480E-36
7.68650E-01 1.31215E-36
7.72320E-01 1.18518E-36
7.75968E-01 1.06458E-36
7.79596E-01 9.50887E-37
7.83203E-01 8.44452E-37
7.86788E-01 7.45496E-37
7.90351E-01 6.54101E-37
7.93893E-01 5.70254E-37
7.97411E-01 4.93833E-37
8.00908E-01 4.24644E-37
8.04381E-01 3.62423E-37
8.07831E-01 3.06858E-37
8.11257E-01 2.57595E-37
8.14660E-01 2.14250E-37
8.18039E-01 1.76423E-37
8.21394E-01 1.43696E-37
8.24724E-01 1.15657E-37
8.28030E-01 9.18893E-38
8.31310E-01 7.19895E-38
8.34565E-01 5.55647E-38
8.37795E-01 4.22411E-38
8.40999E-01 3.16625E-38
8.44177E-01 2.34884E-38
8.47329E-01 1.74109E-38
8.50455E-01 1.00000E-45
8.53553E-01 1.00000E-45
8.56625E-01 1.00000E-45
8.59670E-01 1.00000E-45
8.62687E-01 1.00000E-45
8.65677E-01 1.00000E-45
8.68639E-01 1.00000E-45
8.71572E-01 1.00000E-45
8.74478E-01 1.00000E-45
8.77355E-01 1.00000E-45
8.80203E-01 1.00000E-45
8.83022E-01 1.00000E-45
8.85812E-01 1.00000E-45
8.88573E-01 1.00000E-45
8.91304E-01 1.00000E-45
8.94005E-01 1.00000E-45
8.96677E-01 1.00000E-45
8.99318E-01 1.00000E-45
9.01928E-01 1.00000E-45
9.04508E-01 1.00000E-45
9.07058E-01 1.00000E-45
9.09576E-01 1.00000E-45
9.12063E-01 1.00000E-45
9.14519E-01 1.00000E-45
9.16943E-01 1.00000E-45
9.19335E-01 1.00000E-45
9.21696E-01 1.00000E-45
9.24024E-01 1.00000E-45
9.26320E-01 1.00000E-45
9.28584E-01 1.00000E-45
9.30815E-01 1.00000E-45
9.33013E-01 1.00000E-45
9.35178E-01 1.00000E-45
9.37310E-01 1.00000E-45
9.39409E-01 1.00000E-45
9.41474E-01 1.00000E-45
9.43505E-01 1.00000E-45
9.45503E-01 1.00000E-45
9.47467E-01 1.00000E-45
9.49397E-01 1.00000E-45
9.51293E-01 1.00000E-45
9.53154E-01 1.00000E-45
9.54981E-01 1.00000E-45
9.56773E-01 1.00000E-45
9.58530E-01 1.00000E-45
9.60252E-01 1.00000E-45
9.61940E-01 1.00000E-45
9.63592E-01 1.00000E-45
9.65209E-01 1.00000E-45
9.66790E-01 1.00000E-45
9.68336E-01 1.00000E-45
9.69846E-01 1.00000E-45
9.71321E-01 1.00000E-45
9.72759E-01 1.00000E-45
9.74162E-01 1.00000E-45
9.75528E-01 1.00000E-45
9.76858E-01 1.00000E-45
9.78152E-01 1.00000E-45
9.79410E-01 1.00000E-45
9.80631E-01 1.00000E-45
9.81815E-01 1.00000E-45
9.82963E-01 1.00000E-45
9.84074E-01 1.00000E-45
9.85148E-01 1.00000E-45
9.86185E-01 1.00000E-45
9.87185E-01 1.00000E-45
9.88148E-01 1.00000E-45
9.89074E-01 1.00000E-45
9.89962E-01 1.00000E-45
9.90814E-01 1.00000E-45
9.91627E-01 1.00000E-45
9.92404E-01 1.00000E-45
9.93143E-01 1.00000E-45
9.93844E-01 1.00000E-45
9.94508E-01 1.00000E-45
9.95134E-01 1.00000E-45
9.95722E-01 1.00000E-45
9.96273E-01 1.00000E-45
9.96786E-01 1.00000E-45
9.97261E-01 1.00000E-45
9.97698E-01 1.00000E-45
9.98097E-01 1.00000E-45
9.98459E-01 1.00000E-45
9.98782E-01 1.00000E-45
9.99067E-01 1.00000E-45
9.99315E-01 1.00000E-45
9.99524E-01 1.00000E-45
9.99695E-01 1.00000E-45
9.99829E-01 1.00000E-45
9.99924E-01 1.00000E-45
9.99981E-01 1.00000E-45
1.00000E+00 1.00000E-45
