 #
 # Subroutine ELSEPA. Elastic scattering of electrons and positrons
 #                    by neutral atoms and positive ions
 #
 # Projectile: electron
 # Kinetic energy = 1.75000E+07 eV = 6.43113E+05 a.u.
 #
 # WARNING: High-energy factorization with free-atom DF screening.
 #          Absorption, polarization and exchange corrections are
 #          switched off.
 #          Phase shifts are calculated for the bare nucleus.
 #          Scattering amplitudes are not evaluated.
 #
 # Element: Ho,  Z =  67,  atomic weight = 1.64930E+02 g/mol
 #
 # Nuclear model: Fermi distribution
 #                Average radius = 5.86792E-13 cm
 #                Skin thickness = 5.46000E-14 cm
 #
 # Number of electrons = 67
 #
 # Total elastic cross section = 7.09705E-18 cm**2 = 2.53440E-01 a0**2
 # 1st transport cross section = 2.58732E-23 cm**2 = 9.23950E-07 a0**2
 # 2nd transport cross section = 7.29763E-23 cm**2 = 2.60603E-06 a0**2
 #
 #
 # Differential cross section:                       MU=(1-COS(THETA))/2
 #
 #  THETA        MU          DCS          DCS        Sherman      error
 #  (deg)                 (cm**2/sr)   (a0**2/sr)    function
 #----------------------------------------------------------------------
0.00000E+00 2.44056E-11
7.61557E-13 2.44019E-11
1.18994E-12 2.43999E-11
1.71346E-12 2.43974E-11
2.33225E-12 2.43944E-11
3.04617E-12 2.43910E-11
3.85530E-12 2.43872E-11
4.75964E-12 2.43828E-11
5.75917E-12 2.43781E-11
6.85391E-12 2.43729E-11
8.04379E-12 2.43672E-11
9.32893E-12 2.43611E-11
1.07092E-11 2.43545E-11
1.21847E-11 2.43475E-11
1.37554E-11 2.43400E-11
1.54213E-11 2.43321E-11
1.71823E-11 2.43238E-11
1.90386E-11 2.43150E-11
2.09900E-11 2.43057E-11
2.30367E-11 2.42960E-11
2.51785E-11 2.42859E-11
2.74156E-11 2.42753E-11
2.97478E-11 2.42643E-11
3.21752E-11 2.42528E-11
3.46979E-11 2.42409E-11
3.73157E-11 2.42286E-11
4.00286E-11 2.42158E-11
4.28368E-11 2.42026E-11
4.57402E-11 2.41889E-11
4.87388E-11 2.41748E-11
5.18325E-11 2.41603E-11
5.50215E-11 2.41454E-11
5.83057E-11 2.41300E-11
6.16850E-11 2.41142E-11
6.51595E-11 2.40980E-11
6.87293E-11 2.40813E-11
7.23943E-11 2.40642E-11
7.61544E-11 2.40467E-11
1.18991E-10 2.38489E-11
1.71347E-10 2.36107E-11
2.33223E-10 2.33344E-11
3.04617E-10 2.30224E-11
3.85531E-10 2.26772E-11
4.75965E-10 2.23017E-11
5.75917E-10 2.18988E-11
6.85389E-10 2.14717E-11
8.04380E-10 2.10257E-11
9.32891E-10 2.05601E-11
1.07092E-09 2.00769E-11
1.21847E-09 1.95858E-11
1.37554E-09 1.90847E-11
1.54213E-09 1.85742E-11
1.71823E-09 1.80644E-11
1.90386E-09 1.75530E-11
2.09900E-09 1.70389E-11
2.30367E-09 1.65323E-11
2.51785E-09 1.60308E-11
2.74156E-09 1.55319E-11
2.97478E-09 1.50452E-11
3.21752E-09 1.45685E-11
3.46978E-09 1.40982E-11
3.73156E-09 1.36425E-11
4.00286E-09 1.32002E-11
4.28368E-09 1.27665E-11
4.57402E-09 1.23484E-11
4.87388E-09 1.19456E-11
5.18326E-09 1.15524E-11
5.50215E-09 1.11746E-11
5.83057E-09 1.08125E-11
6.16850E-09 1.04605E-11
6.51596E-09 1.01228E-11
6.87293E-09 9.80055E-12
7.23942E-09 9.48811E-12
7.61544E-09 9.18851E-12
1.18991E-08 6.79919E-12
1.71347E-08 5.21742E-12
2.33223E-08 4.12830E-12
3.04617E-08 3.33666E-12
3.85531E-08 2.73489E-12
4.75965E-08 2.26298E-12
5.75917E-08 1.88528E-12
6.85389E-08 1.57928E-12
8.04380E-08 1.31514E-12
9.32891E-08 1.11117E-12
1.07092E-07 9.54730E-13
1.21847E-07 8.14084E-13
1.37554E-07 6.98896E-13
1.54213E-07 6.07635E-13
1.71823E-07 5.26899E-13
1.90386E-07 4.59135E-13
2.09900E-07 4.03983E-13
2.30367E-07 3.55220E-13
2.51785E-07 3.13413E-13
2.74156E-07 2.78637E-13
2.97478E-07 2.47735E-13
3.21752E-07 2.20749E-13
3.46978E-07 1.97905E-13
3.73156E-07 1.77507E-13
4.00286E-07 1.59426E-13
4.28368E-07 1.43901E-13
4.57402E-07 1.29993E-13
4.87388E-07 1.17528E-13
5.18325E-07 1.06696E-13
5.50215E-07 9.69736E-14
5.83057E-07 8.81901E-14
6.16850E-07 8.04797E-14
6.51596E-07 7.35468E-14
6.87293E-07 6.72491E-14
7.23942E-07 6.16713E-14
7.61543E-07 5.66450E-14
1.18991E-06 2.62540E-14
1.71347E-06 1.39086E-14
2.33223E-06 8.11775E-15
3.04617E-06 5.08181E-15
3.85531E-06 3.34163E-15
4.75964E-06 2.28331E-15
5.75916E-06 1.61104E-15
6.85388E-06 1.16742E-15
8.04378E-06 8.65483E-16
9.32888E-06 6.55557E-16
1.07092E-05 5.05658E-16
1.21846E-05 3.96314E-16
1.37553E-05 3.15026E-16
1.54212E-05 2.53527E-16
1.71822E-05 2.06381E-16
1.90385E-05 1.69653E-16
2.09899E-05 1.40904E-16
2.30365E-05 1.17991E-16
2.51783E-05 9.95199E-17
2.74153E-05 8.45088E-17
2.97475E-05 7.22195E-17
3.21749E-05 6.20870E-17
3.46974E-05 5.36764E-17
3.73152E-05 4.66482E-17
4.00281E-05 4.07340E-17
4.28362E-05 3.57303E-17
4.57395E-05 3.14717E-17
4.87380E-05 2.78273E-17
5.18317E-05 2.46935E-17
5.50205E-05 2.19859E-17
5.83045E-05 1.96381E-17
6.16838E-05 1.75955E-17
6.51582E-05 1.58121E-17
6.87277E-05 1.42493E-17
7.23925E-05 1.28752E-17
7.61524E-05 1.16623E-17
9.21439E-05 8.03004E-18
1.09658E-04 5.70707E-18
1.28695E-04 4.16700E-18
1.49255E-04 3.11306E-18
1.71338E-04 2.37258E-18
1.94942E-04 1.83990E-18
2.20070E-04 1.44885E-18
2.46720E-04 1.15653E-18
2.74892E-04 9.34436E-19
3.04586E-04 7.63274E-19
3.35803E-04 6.29622E-19
3.68542E-04 5.24030E-19
4.02802E-04 4.39709E-19
4.38585E-04 3.71712E-19
4.75889E-04 3.16388E-19
5.14715E-04 2.71000E-19
5.55063E-04 2.33481E-19
5.96931E-04 2.02248E-19
6.40321E-04 1.76076E-19
6.85233E-04 1.54012E-19
7.31665E-04 1.35305E-19
7.79618E-04 1.19360E-19
8.29092E-04 1.05700E-19
8.80086E-04 9.39449E-20
9.32601E-04 8.37831E-20
9.86636E-04 7.49616E-20
1.04219E-03 6.72743E-20
1.09927E-03 6.05504E-20
1.15786E-03 5.46480E-20
1.21797E-03 4.94497E-20
1.27961E-03 4.48570E-20
1.34276E-03 4.07869E-20
1.40743E-03 3.71696E-20
1.47362E-03 3.39460E-20
1.54133E-03 3.10656E-20
1.61056E-03 2.84854E-20
1.68131E-03 2.61686E-20
1.75357E-03 2.40836E-20
1.82735E-03 2.22030E-20
1.90265E-03 2.05032E-20
1.97947E-03 1.89637E-20
2.05780E-03 1.75666E-20
2.13765E-03 1.62965E-20
2.21902E-03 1.51396E-20
2.30190E-03 1.40842E-20
2.38630E-03 1.31195E-20
2.47222E-03 1.22365E-20
2.55965E-03 1.14270E-20
2.64859E-03 1.06836E-20
2.73905E-03 1.00001E-20
2.83103E-03 9.37069E-21
2.92452E-03 8.79033E-21
3.01952E-03 8.25448E-21
3.11604E-03 7.75910E-21
3.21407E-03 7.30057E-21
3.31362E-03 6.87564E-21
3.41468E-03 6.48138E-21
3.51725E-03 6.11518E-21
3.62133E-03 5.77465E-21
3.72692E-03 5.45767E-21
3.83403E-03 5.16231E-21
3.94265E-03 4.88681E-21
4.05278E-03 4.62958E-21
4.16442E-03 4.38919E-21
4.27757E-03 4.16432E-21
4.39223E-03 3.95379E-21
4.50840E-03 3.75650E-21
4.62608E-03 3.57147E-21
4.74527E-03 3.39778E-21
4.86597E-03 3.23462E-21
4.98817E-03 3.08123E-21
5.11188E-03 2.93690E-21
5.23711E-03 2.80100E-21
5.36383E-03 2.67294E-21
5.49207E-03 2.55219E-21
5.62181E-03 2.43825E-21
5.75306E-03 2.33065E-21
5.88581E-03 2.22898E-21
6.02007E-03 2.13285E-21
6.15583E-03 2.04190E-21
6.29310E-03 1.95580E-21
6.43187E-03 1.87423E-21
6.57214E-03 1.79692E-21
6.71392E-03 1.72360E-21
6.85720E-03 1.65402E-21
7.00198E-03 1.58795E-21
7.14827E-03 1.52519E-21
7.29605E-03 1.46553E-21
7.44534E-03 1.40879E-21
7.59612E-03 1.35480E-21
7.97965E-03 1.23085E-21
8.37255E-03 1.12092E-21
8.77480E-03 1.02312E-21
9.18641E-03 9.35889E-22
9.60736E-03 8.57870E-22
1.00376E-02 7.87915E-22
1.04773E-02 7.25037E-22
1.09262E-02 6.68388E-22
1.13844E-02 6.17240E-22
1.18520E-02 5.70959E-22
1.23288E-02 5.28995E-22
1.28150E-02 4.90870E-22
1.33104E-02 4.56169E-22
1.38150E-02 4.24527E-22
1.43290E-02 3.95621E-22
1.48521E-02 3.69172E-22
1.53845E-02 3.44931E-22
1.59262E-02 3.22680E-22
1.64770E-02 3.02222E-22
1.70371E-02 2.83386E-22
1.76063E-02 2.66020E-22
1.81848E-02 2.49986E-22
1.87724E-02 2.35162E-22
1.93692E-02 2.21440E-22
1.99751E-02 2.08721E-22
2.05901E-02 1.96919E-22
2.12143E-02 1.85954E-22
2.18476E-02 1.75755E-22
2.24900E-02 1.66259E-22
2.31415E-02 1.57407E-22
2.38021E-02 1.49147E-22
2.44717E-02 1.41432E-22
2.51504E-02 1.34219E-22
2.58382E-02 1.27469E-22
2.65349E-02 1.21145E-22
2.72407E-02 1.15216E-22
2.79555E-02 1.09653E-22
2.86793E-02 1.04428E-22
2.94120E-02 9.95159E-23
3.01537E-02 9.48953E-23
3.09043E-02 9.05449E-23
3.16639E-02 8.64459E-23
3.24324E-02 8.25808E-23
3.32098E-02 7.89335E-23
3.39961E-02 7.54894E-23
3.47912E-02 7.22347E-23
3.55952E-02 6.91570E-23
3.64081E-02 6.62448E-23
3.72297E-02 6.34873E-23
3.80602E-02 6.08746E-23
3.88995E-02 5.83976E-23
3.97476E-02 5.60478E-23
4.06044E-02 5.38174E-23
4.14700E-02 5.16990E-23
4.23443E-02 4.96858E-23
4.32273E-02 4.77716E-23
4.41190E-02 4.59505E-23
4.50194E-02 4.42171E-23
4.59284E-02 4.25662E-23
4.68461E-02 4.09932E-23
4.87074E-02 3.80632E-23
5.06030E-02 3.53951E-23
5.25328E-02 3.29609E-23
5.44967E-02 3.07361E-23
5.64946E-02 2.86992E-23
5.85262E-02 2.68311E-23
6.05914E-02 2.51152E-23
6.26901E-02 2.35366E-23
6.48222E-02 2.20821E-23
6.69873E-02 2.07400E-23
6.91854E-02 1.94999E-23
7.14163E-02 1.83526E-23
7.36799E-02 1.72897E-23
7.59760E-02 1.63038E-23
7.83043E-02 1.53879E-23
8.06647E-02 1.45363E-23
8.30571E-02 1.37435E-23
8.54812E-02 1.30047E-23
8.79369E-02 1.23154E-23
9.04240E-02 1.16717E-23
9.29422E-02 1.10699E-23
9.54915E-02 1.05068E-23
9.80716E-02 9.97932E-24
1.00682E-01 9.48484E-24
1.03323E-01 9.02084E-24
1.05995E-01 8.58506E-24
1.08696E-01 8.17544E-24
1.11427E-01 7.79009E-24
1.14188E-01 7.42729E-24
1.16978E-01 7.08544E-24
1.19797E-01 6.76310E-24
1.22645E-01 6.45892E-24
1.25522E-01 6.17167E-24
1.28428E-01 5.90023E-24
1.31361E-01 5.64354E-24
1.34323E-01 5.40064E-24
1.37313E-01 5.17065E-24
1.40330E-01 4.95273E-24
1.43375E-01 4.74613E-24
1.46447E-01 4.55014E-24
1.49545E-01 4.36410E-24
1.52671E-01 4.18741E-24
1.55823E-01 4.01951E-24
1.59001E-01 3.85986E-24
1.62205E-01 3.70799E-24
1.65435E-01 3.56344E-24
1.68690E-01 3.42578E-24
1.71970E-01 3.29462E-24
1.75276E-01 3.16960E-24
1.78606E-01 3.05036E-24
1.81961E-01 2.93659E-24
1.85340E-01 2.82799E-24
1.88743E-01 2.72427E-24
1.92169E-01 2.62518E-24
1.95619E-01 2.53046E-24
1.99092E-01 2.43988E-24
2.02589E-01 2.35324E-24
2.06107E-01 2.27032E-24
2.09649E-01 2.19093E-24
2.13212E-01 2.11489E-24
2.16797E-01 2.04204E-24
2.20404E-01 1.97221E-24
2.24032E-01 1.90525E-24
2.27680E-01 1.84103E-24
2.31350E-01 1.77941E-24
2.35040E-01 1.72026E-24
2.38751E-01 1.66347E-24
2.42481E-01 1.60892E-24
2.46231E-01 1.55651E-24
2.50000E-01 1.50614E-24
2.53788E-01 1.45771E-24
2.57595E-01 1.41114E-24
2.61421E-01 1.36634E-24
2.65264E-01 1.32323E-24
2.69126E-01 1.28173E-24
2.73005E-01 1.24177E-24
2.76901E-01 1.20330E-24
2.80814E-01 1.16623E-24
2.84744E-01 1.13051E-24
2.88691E-01 1.09608E-24
2.92653E-01 1.06288E-24
2.96632E-01 1.03087E-24
3.00625E-01 9.99989E-25
3.04634E-01 9.70196E-25
3.08658E-01 9.41442E-25
3.12697E-01 9.13686E-25
3.16749E-01 8.86886E-25
3.20816E-01 8.61004E-25
3.24896E-01 8.36003E-25
3.28990E-01 8.11846E-25
3.33097E-01 7.88501E-25
3.37216E-01 7.65935E-25
3.41348E-01 7.44118E-25
3.45492E-01 7.23020E-25
3.49647E-01 7.02614E-25
3.53814E-01 6.82872E-25
3.57992E-01 6.63770E-25
3.62181E-01 6.45283E-25
3.66381E-01 6.27387E-25
3.70590E-01 6.10061E-25
3.74810E-01 5.93283E-25
3.79039E-01 5.77033E-25
3.83277E-01 5.61292E-25
3.87524E-01 5.46040E-25
3.91780E-01 5.31261E-25
3.96044E-01 5.16936E-25
4.00316E-01 5.03050E-25
4.04596E-01 4.89586E-25
4.08882E-01 4.76530E-25
4.13176E-01 4.63868E-25
4.17476E-01 4.51585E-25
4.21783E-01 4.39669E-25
4.26095E-01 4.28106E-25
4.30413E-01 4.16884E-25
4.34737E-01 4.05992E-25
4.39065E-01 3.95418E-25
4.43398E-01 3.85152E-25
4.47736E-01 3.75182E-25
4.52077E-01 3.65500E-25
4.56422E-01 3.56096E-25
4.60770E-01 3.46960E-25
4.65122E-01 3.38083E-25
4.69476E-01 3.29457E-25
4.73832E-01 3.21074E-25
4.78190E-01 3.12925E-25
4.82550E-01 3.05004E-25
4.86912E-01 2.97302E-25
4.91274E-01 2.89814E-25
4.95637E-01 2.82531E-25
5.00000E-01 2.75448E-25
5.04363E-01 2.68558E-25
5.08726E-01 2.61855E-25
5.13088E-01 2.55333E-25
5.17450E-01 2.48987E-25
5.21810E-01 2.42811E-25
5.26168E-01 2.36800E-25
5.30524E-01 2.30949E-25
5.34878E-01 2.25253E-25
5.39230E-01 2.19707E-25
5.43578E-01 2.14307E-25
5.47923E-01 2.09049E-25
5.52264E-01 2.03927E-25
5.56602E-01 1.98938E-25
5.60935E-01 1.94079E-25
5.65263E-01 1.89344E-25
5.69587E-01 1.84732E-25
5.73905E-01 1.80237E-25
5.78217E-01 1.75857E-25
5.82524E-01 1.71588E-25
5.86824E-01 1.67427E-25
5.91118E-01 1.63371E-25
5.95404E-01 1.59417E-25
5.99684E-01 1.55562E-25
6.03956E-01 1.51803E-25
6.08220E-01 1.48138E-25
6.12476E-01 1.44563E-25
6.16723E-01 1.41077E-25
6.20961E-01 1.37677E-25
6.25190E-01 1.34360E-25
6.29410E-01 1.31124E-25
6.33619E-01 1.27967E-25
6.37819E-01 1.24887E-25
6.42008E-01 1.21881E-25
6.46186E-01 1.18948E-25
6.50353E-01 1.16085E-25
6.54508E-01 1.13292E-25
6.58652E-01 1.10565E-25
6.62784E-01 1.07903E-25
6.66903E-01 1.05304E-25
6.71010E-01 1.02767E-25
6.75104E-01 1.00291E-25
6.79184E-01 9.78721E-26
6.83251E-01 9.55105E-26
6.87303E-01 9.32043E-26
6.91342E-01 9.09521E-26
6.95366E-01 8.87524E-26
6.99375E-01 8.66040E-26
7.03368E-01 8.45053E-26
7.07347E-01 8.24553E-26
7.11309E-01 8.04526E-26
7.15256E-01 7.84961E-26
7.19186E-01 7.65845E-26
7.23099E-01 7.47168E-26
7.26995E-01 7.28918E-26
7.30874E-01 7.11085E-26
7.34736E-01 6.93657E-26
7.38579E-01 6.76626E-26
7.42405E-01 6.59981E-26
7.46212E-01 6.43712E-26
7.50000E-01 6.27811E-26
7.53769E-01 6.12269E-26
7.57519E-01 5.97076E-26
7.61249E-01 5.82224E-26
7.64960E-01 5.67705E-26
7.68650E-01 5.53511E-26
7.72320E-01 5.39634E-26
7.75968E-01 5.26067E-26
7.79596E-01 5.12801E-26
7.83203E-01 4.99831E-26
7.86788E-01 4.87148E-26
7.90351E-01 4.74746E-26
7.93893E-01 4.62619E-26
7.97411E-01 4.50761E-26
8.00908E-01 4.39164E-26
8.04381E-01 4.27822E-26
8.07831E-01 4.16731E-26
8.11257E-01 4.05884E-26
8.14660E-01 3.95275E-26
8.18039E-01 3.84900E-26
8.21394E-01 3.74752E-26
8.24724E-01 3.64827E-26
8.28030E-01 3.55120E-26
8.31310E-01 3.45626E-26
8.34565E-01 3.36339E-26
8.37795E-01 3.27257E-26
8.40999E-01 3.18373E-26
8.44177E-01 3.09683E-26
8.47329E-01 3.01184E-26
8.50455E-01 2.92871E-26
8.53553E-01 2.84740E-26
8.56625E-01 2.76787E-26
8.59670E-01 2.69009E-26
8.62687E-01 2.61402E-26
8.65677E-01 2.53961E-26
8.68639E-01 2.46684E-26
8.71572E-01 2.39567E-26
8.74478E-01 2.32606E-26
8.77355E-01 2.25799E-26
8.80203E-01 2.19142E-26
8.83022E-01 2.12633E-26
8.85812E-01 2.06267E-26
8.88573E-01 2.00043E-26
8.91304E-01 1.93958E-26
8.94005E-01 1.88007E-26
8.96677E-01 1.82190E-26
8.99318E-01 1.76503E-26
9.01928E-01 1.70944E-26
9.04508E-01 1.65509E-26
9.07058E-01 1.60198E-26
9.09576E-01 1.55007E-26
9.12063E-01 1.49934E-26
9.14519E-01 1.44977E-26
9.16943E-01 1.40133E-26
9.19335E-01 1.35401E-26
9.21696E-01 1.30779E-26
9.24024E-01 1.26264E-26
9.26320E-01 1.21854E-26
9.28584E-01 1.17548E-26
9.30815E-01 1.13344E-26
9.33013E-01 1.09239E-26
9.35178E-01 1.05233E-26
9.37310E-01 1.01323E-26
9.39409E-01 9.75080E-27
9.41474E-01 9.37860E-27
9.43505E-01 9.01556E-27
9.45503E-01 8.66152E-27
9.47467E-01 8.31634E-27
9.49397E-01 7.97986E-27
9.51293E-01 7.65196E-27
9.53154E-01 7.33248E-27
9.54981E-01 7.02131E-27
9.56773E-01 6.71830E-27
9.58530E-01 6.42335E-27
9.60252E-01 6.13631E-27
9.61940E-01 5.85708E-27
9.63592E-01 5.58554E-27
9.65209E-01 5.32158E-27
9.66790E-01 5.06509E-27
9.68336E-01 4.81597E-27
9.69846E-01 4.57412E-27
9.71321E-01 4.33944E-27
9.72759E-01 4.11183E-27
9.74162E-01 3.89120E-27
9.75528E-01 3.67746E-27
9.76858E-01 3.47054E-27
9.78152E-01 3.27033E-27
9.79410E-01 3.07677E-27
9.80631E-01 2.88978E-27
9.81815E-01 2.70928E-27
9.82963E-01 2.53521E-27
9.84074E-01 2.36748E-27
9.85148E-01 2.20604E-27
9.86185E-01 2.05082E-27
9.87185E-01 1.90176E-27
9.88148E-01 1.75880E-27
9.89074E-01 1.62189E-27
9.89962E-01 1.49097E-27
9.90814E-01 1.36599E-27
9.91627E-01 1.24690E-27
9.92404E-01 1.13365E-27
9.93143E-01 1.02621E-27
9.93844E-01 9.24523E-28
9.94508E-01 8.28555E-28
9.95134E-01 7.38268E-28
9.95722E-01 6.53627E-28
9.96273E-01 5.74599E-28
9.96786E-01 5.01154E-28
9.97261E-01 4.33262E-28
9.97698E-01 3.70899E-28
9.98097E-01 3.14038E-28
9.98459E-01 2.62659E-28
9.98782E-01 2.16742E-28
9.99067E-01 1.76268E-28
9.99315E-01 1.41222E-28
9.99524E-01 1.11591E-28
9.99695E-01 8.73629E-29
9.99829E-01 6.85285E-29
9.99924E-01 5.50805E-29
9.99981E-01 4.70138E-29
1.00000E+00 4.43253E-29
