 #
 # Subroutine ELSEPA. Elastic scattering of electrons and positrons
 #                    by neutral atoms and positive ions
 #
 # Projectile: electron
 # Kinetic energy = 6.00000E+08 eV = 2.20496E+07 a.u.
 #
 # WARNING: High-energy factorization with free-atom DF screening.
 #          Absorption, polarization and exchange corrections are
 #          switched off.
 #          Phase shifts are calculated for the bare nucleus.
 #          Scattering amplitudes are not evaluated.
 #
 # Element: Ho,  Z =  67,  atomic weight = 1.64930E+02 g/mol
 #
 # Nuclear model: Fermi distribution
 #                Average radius = 5.86792E-13 cm
 #                Skin thickness = 5.46000E-14 cm
 #
 # Number of electrons = 67
 #
 # Total elastic cross section = 7.06560E-18 cm**2 = 2.52317E-01 a0**2
 # 1st transport cross section = 2.38375E-26 cm**2 = 8.51254E-10 a0**2
 # 2nd transport cross section = 7.14937E-26 cm**2 = 2.55309E-09 a0**2
 #
 #
 # Differential cross section:                       MU=(1-COS(THETA))/2
 #
 #  THETA        MU          DCS          DCS        Sherman      error
 #  (deg)                 (cm**2/sr)   (a0**2/sr)    function
 #----------------------------------------------------------------------
0.00000E+00 2.71304E-08
7.61557E-13 2.31979E-08
1.18994E-12 2.13957E-08
1.71346E-12 1.95047E-08
2.33225E-12 1.76262E-08
3.04617E-12 1.58359E-08
3.85530E-12 1.41819E-08
4.75964E-12 1.26891E-08
5.75917E-12 1.13655E-08
6.85391E-12 1.02054E-08
8.04379E-12 9.19389E-09
9.32893E-12 8.31470E-09
1.07092E-11 7.55077E-09
1.21847E-11 6.88561E-09
1.37554E-11 6.30429E-09
1.54213E-11 5.79376E-09
1.71823E-11 5.34287E-09
1.90386E-11 4.94223E-09
2.09900E-11 4.58409E-09
2.30367E-11 4.26167E-09
2.51785E-11 3.96994E-09
2.74156E-11 3.70474E-09
2.97478E-11 3.46257E-09
3.21752E-11 3.24057E-09
3.46979E-11 3.03635E-09
3.73157E-11 2.84795E-09
4.00286E-11 2.67371E-09
4.28368E-11 2.51222E-09
4.57402E-11 2.36228E-09
4.87388E-11 2.22278E-09
5.18325E-11 2.09267E-09
5.50215E-11 1.97143E-09
5.83057E-11 1.85838E-09
6.16850E-11 1.75287E-09
6.51595E-11 1.64991E-09
6.87293E-11 1.55009E-09
7.23943E-11 1.45947E-09
7.61544E-11 1.37702E-09
1.18991E-10 8.14707E-10
1.71347E-10 5.09348E-10
2.33223E-10 3.34004E-10
3.04617E-10 2.27481E-10
3.85531E-10 1.59574E-10
4.75965E-10 1.14650E-10
5.75917E-10 8.40546E-11
6.85389E-10 6.27865E-11
8.04380E-10 4.77712E-11
9.32891E-10 3.69812E-11
1.07092E-09 2.90943E-11
1.21847E-09 2.32323E-11
1.37554E-09 1.88038E-11
1.54213E-09 1.54108E-11
1.71823E-09 1.27594E-11
1.90386E-09 1.06646E-11
2.09900E-09 8.99286E-12
2.30367E-09 7.64194E-12
2.51785E-09 6.53861E-12
2.74156E-09 5.62843E-12
2.97478E-09 4.87096E-12
3.21752E-09 4.23593E-12
3.46978E-09 3.70030E-12
3.73156E-09 3.24612E-12
4.00286E-09 2.85914E-12
4.28368E-09 2.52788E-12
4.57402E-09 2.24301E-12
4.87388E-09 1.99687E-12
5.18326E-09 1.78322E-12
5.50215E-09 1.59714E-12
5.83057E-09 1.43451E-12
6.16850E-09 1.29194E-12
6.51596E-09 1.16621E-12
6.87293E-09 1.05524E-12
7.23942E-09 9.57620E-13
7.61544E-09 8.71438E-13
1.18991E-08 3.75390E-13
1.71347E-08 1.87564E-13
2.33223E-08 1.03952E-13
3.04617E-08 6.21703E-14
3.85531E-08 3.94171E-14
4.75965E-08 2.61764E-14
5.75917E-08 1.80507E-14
6.85389E-08 1.28426E-14
8.04380E-08 9.38224E-15
9.32891E-08 7.01168E-15
1.07092E-07 5.34423E-15
1.21847E-07 4.14400E-15
1.37554E-07 3.26252E-15
1.54213E-07 2.60346E-15
1.71823E-07 2.10277E-15
1.90386E-07 1.71688E-15
2.09900E-07 1.41562E-15
2.30367E-07 1.17766E-15
2.51785E-07 9.87681E-16
2.74156E-07 8.34523E-16
2.97478E-07 7.09945E-16
3.21752E-07 6.07776E-16
3.46978E-07 5.23346E-16
3.73156E-07 4.53082E-16
4.00286E-07 3.94226E-16
4.28368E-07 3.44625E-16
4.57402E-07 3.02584E-16
4.87388E-07 2.66762E-16
5.18325E-07 2.36088E-16
5.50215E-07 2.09698E-16
5.83057E-07 1.86893E-16
6.16850E-07 1.67105E-16
6.51596E-07 1.49867E-16
6.87293E-07 1.34795E-16
7.23942E-07 1.21571E-16
7.61543E-07 1.09929E-16
1.18991E-06 4.52303E-17
1.71347E-06 2.18719E-17
2.33223E-06 1.18269E-17
3.04617E-06 6.94125E-18
3.85531E-06 4.33732E-18
4.75964E-06 2.84771E-18
5.75916E-06 1.94612E-18
6.85388E-06 1.37474E-18
8.04378E-06 9.98501E-19
9.32888E-06 7.42618E-19
1.07092E-05 5.63706E-19
1.21846E-05 4.35578E-19
1.37553E-05 3.41877E-19
1.54212E-05 2.72075E-19
1.71822E-05 2.19216E-19
1.90385E-05 1.78508E-19
2.09899E-05 1.46974E-19
2.30365E-05 1.22091E-19
2.51783E-05 1.02234E-19
2.74153E-05 8.62363E-20
2.97475E-05 7.32401E-20
3.21749E-05 6.26024E-20
3.46974E-05 5.38329E-20
3.73152E-05 4.65529E-20
4.00281E-05 4.04680E-20
4.28362E-05 3.53480E-20
4.57395E-05 3.10130E-20
4.87380E-05 2.73215E-20
5.18317E-05 2.41619E-20
5.50205E-05 2.14451E-20
5.83045E-05 1.90994E-20
6.16838E-05 1.70661E-20
6.51582E-05 1.52971E-20
6.87277E-05 1.37523E-20
7.23925E-05 1.23978E-20
7.61524E-05 1.13465E-20
9.21439E-05 7.75880E-21
1.09658E-04 5.48175E-21
1.28695E-04 3.98091E-21
1.49255E-04 2.95863E-21
1.71338E-04 2.24325E-21
1.94942E-04 1.73039E-21
2.20070E-04 1.35508E-21
2.46720E-04 1.07537E-21
2.74892E-04 8.63482E-22
3.04586E-04 7.00669E-22
3.35803E-04 5.73921E-22
3.68542E-04 4.74102E-22
4.02802E-04 3.94654E-22
4.38585E-04 3.30811E-22
4.75889E-04 2.79058E-22
5.14715E-04 2.36767E-22
5.55063E-04 2.01954E-22
5.96931E-04 1.73100E-22
6.40321E-04 1.49037E-22
6.85233E-04 1.28852E-22
7.31665E-04 1.11828E-22
7.79618E-04 9.73986E-23
8.29092E-04 8.51113E-23
8.80086E-04 7.46024E-23
9.32601E-04 6.55780E-23
9.86636E-04 5.77988E-23
1.04219E-03 5.10690E-23
1.09927E-03 4.52277E-23
1.15786E-03 4.01414E-23
1.21797E-03 3.56996E-23
1.27961E-03 3.18097E-23
1.34276E-03 2.83942E-23
1.40743E-03 2.53878E-23
1.47362E-03 2.27354E-23
1.54133E-03 2.03901E-23
1.61056E-03 1.83120E-23
1.68131E-03 1.64670E-23
1.75357E-03 1.48260E-23
1.82735E-03 1.33638E-23
1.90265E-03 1.20587E-23
1.97947E-03 1.08921E-23
2.05780E-03 9.84762E-24
2.13765E-03 8.91121E-24
2.21902E-03 8.07055E-24
2.30190E-03 7.31489E-24
2.38630E-03 6.63482E-24
2.47222E-03 6.02208E-24
2.55965E-03 5.46940E-24
2.64859E-03 4.97040E-24
2.73905E-03 4.51942E-24
2.83103E-03 4.11147E-24
2.92452E-03 3.74213E-24
3.01952E-03 3.40747E-24
3.11604E-03 3.10400E-24
3.21407E-03 2.82862E-24
3.31362E-03 2.57856E-24
3.41468E-03 2.35134E-24
3.51725E-03 2.14475E-24
3.62133E-03 1.95682E-24
3.72692E-03 1.78577E-24
3.83403E-03 1.63001E-24
3.94265E-03 1.48811E-24
4.05278E-03 1.35877E-24
4.16442E-03 1.24085E-24
4.27757E-03 1.13329E-24
4.39223E-03 1.03516E-24
4.50840E-03 9.45592E-25
4.62608E-03 8.63826E-25
4.74527E-03 7.89162E-25
4.86597E-03 7.20967E-25
4.98817E-03 6.58670E-25
5.11188E-03 6.01751E-25
5.23711E-03 5.49739E-25
5.36383E-03 5.02204E-25
5.49207E-03 4.58758E-25
5.62181E-03 4.19045E-25
5.75306E-03 3.82743E-25
5.88581E-03 3.49558E-25
6.02007E-03 3.19223E-25
6.15583E-03 2.91493E-25
6.29310E-03 2.66144E-25
6.43187E-03 2.42975E-25
6.57214E-03 2.21798E-25
6.71392E-03 2.02445E-25
6.85720E-03 1.84759E-25
7.00198E-03 1.68601E-25
7.14827E-03 1.53839E-25
7.29605E-03 1.40355E-25
7.44534E-03 1.28041E-25
7.59612E-03 1.16798E-25
7.97965E-03 9.27935E-26
8.37255E-03 7.37074E-26
8.77480E-03 5.85563E-26
9.18641E-03 4.65499E-26
9.60736E-03 3.70531E-26
1.00376E-02 2.95556E-26
1.04773E-02 2.36473E-26
1.09262E-02 1.89993E-26
1.13844E-02 1.53479E-26
1.18520E-02 1.24820E-26
1.23288E-02 1.02334E-26
1.28150E-02 8.46798E-27
1.33104E-02 7.07925E-27
1.38150E-02 5.98307E-27
1.43290E-02 5.11318E-27
1.48521E-02 4.41762E-27
1.53845E-02 3.85588E-27
1.59262E-02 3.39658E-27
1.64770E-02 3.01557E-27
1.70371E-02 2.69440E-27
1.76063E-02 2.41910E-27
1.81848E-02 2.17920E-27
1.87724E-02 1.96692E-27
1.93692E-02 1.77656E-27
1.99751E-02 1.60398E-27
2.05901E-02 1.44621E-27
2.12143E-02 1.30117E-27
2.18476E-02 1.16737E-27
2.24900E-02 1.04378E-27
2.31415E-02 9.29683E-28
2.38021E-02 8.24529E-28
2.44717E-02 7.27905E-28
2.51504E-02 6.39458E-28
2.58382E-02 5.58863E-28
2.65349E-02 4.85796E-28
2.72407E-02 4.19920E-28
2.79555E-02 3.60882E-28
2.86793E-02 3.08302E-28
2.94120E-02 2.61783E-28
3.01537E-02 2.20910E-28
3.09043E-02 1.85257E-28
3.16639E-02 1.54393E-28
3.24324E-02 1.27887E-28
3.32098E-02 1.05313E-28
3.39961E-02 8.62592E-29
3.47912E-02 7.03272E-29
3.55952E-02 5.71399E-29
3.64081E-02 4.63431E-29
3.72297E-02 3.76076E-29
3.80602E-02 3.06305E-29
3.88995E-02 2.51368E-29
3.97476E-02 2.08786E-29
4.06044E-02 1.76354E-29
4.14700E-02 1.52130E-29
4.23443E-02 1.34423E-29
4.32273E-02 1.21779E-29
4.41190E-02 1.12966E-29
4.50194E-02 1.06951E-29
4.59284E-02 1.02886E-29
4.68461E-02 1.00086E-29
4.87074E-02 9.62456E-30
5.06030E-02 9.25128E-30
5.25328E-02 8.74477E-30
5.44967E-02 8.06153E-30
5.64946E-02 7.22025E-30
5.85262E-02 6.27242E-30
6.05914E-02 5.28111E-30
6.26901E-02 4.30697E-30
6.48222E-02 3.39993E-30
6.69873E-02 2.59549E-30
6.91854E-02 1.91407E-30
7.14163E-02 1.36251E-30
7.36799E-02 9.36708E-31
7.59760E-02 6.24662E-31
7.83043E-02 4.09532E-31
8.06647E-02 2.72308E-31
8.30571E-02 1.93959E-31
8.54812E-02 1.56981E-31
8.79369E-02 1.46378E-31
9.04240E-02 1.50146E-31
9.29422E-02 1.59354E-31
9.54915E-02 1.67935E-31
9.80716E-02 1.72291E-31
1.00682E-01 1.70800E-31
1.03323E-01 1.63298E-31
1.05995E-01 1.50597E-31
1.08696E-01 1.34052E-31
1.11427E-01 1.15232E-31
1.14188E-01 9.56598E-32
1.16978E-01 7.66512E-32
1.19797E-01 5.92204E-32
1.22645E-01 4.40480E-32
1.25522E-01 3.14940E-32
1.28428E-01 2.16400E-32
1.31361E-01 1.43484E-32
1.34323E-01 9.32726E-33
1.37313E-01 6.19289E-33
1.40330E-01 4.52504E-33
1.43375E-01 3.91074E-33
1.46447E-01 3.97637E-33
1.49545E-01 4.40774E-33
1.52671E-01 4.95981E-33
1.55823E-01 5.45780E-33
1.59001E-01 5.79196E-33
1.62205E-01 5.90814E-33
1.65435E-01 5.79617E-33
1.68690E-01 5.47760E-33
1.71970E-01 4.99407E-33
1.75276E-01 4.39719E-33
1.78606E-01 3.74037E-33
1.81961E-01 3.07279E-33
1.85340E-01 2.43548E-33
1.88743E-01 1.85924E-33
1.92169E-01 1.36411E-33
1.95619E-01 9.60018E-34
1.99092E-01 6.48161E-34
2.02589E-01 4.22907E-34
2.06107E-01 2.73795E-34
2.09649E-01 1.87502E-34
2.13212E-01 1.49563E-34
2.16797E-01 1.45783E-34
2.20404E-01 1.63282E-34
2.24032E-01 1.91170E-34
2.27680E-01 2.20904E-34
2.31350E-01 2.46355E-34
2.35040E-01 2.63669E-34
2.38751E-01 2.70975E-34
2.42481E-01 2.68004E-34
2.46231E-01 2.55682E-34
2.50000E-01 2.35719E-34
2.53788E-01 2.10246E-34
2.57595E-01 1.81511E-34
2.61421E-01 1.51641E-34
2.65264E-01 1.22474E-34
2.69126E-01 9.54682E-35
2.73005E-01 7.16525E-35
2.76901E-01 5.16385E-35
2.80814E-01 3.56585E-35
2.84744E-01 2.36282E-35
2.88691E-01 1.52213E-35
2.92653E-01 9.94541E-36
2.96632E-01 7.21527E-36
3.00625E-01 6.41545E-36
3.04634E-01 6.95162E-36
3.08658E-01 8.28845E-36
3.12697E-01 9.97424E-36
3.16749E-01 1.16537E-35
3.20816E-01 1.30704E-35
3.24896E-01 1.40618E-35
3.28990E-01 1.45476E-35
3.33097E-01 1.45157E-35
3.37216E-01 1.40060E-35
3.41348E-01 1.30939E-35
3.45492E-01 1.18758E-35
3.49647E-01 1.04562E-35
3.53814E-01 8.93691E-36
3.57992E-01 7.40998E-36
3.62181E-01 5.95212E-36
3.66381E-01 4.62221E-36
3.70590E-01 3.46048E-36
3.74810E-01 2.48946E-36
3.79039E-01 1.71587E-36
3.83277E-01 1.13342E-36
3.87524E-01 7.25813E-37
3.91780E-01 4.69922E-37
3.96044E-01 3.38684E-37
4.00316E-01 3.03660E-37
4.04596E-01 3.37181E-37
4.08882E-01 4.13914E-37
4.13176E-01 5.11992E-37
4.17476E-01 6.13604E-37
4.21783E-01 7.05257E-37
4.26095E-01 7.77640E-37
4.30413E-01 8.25261E-37
4.34737E-01 8.45932E-37
4.39065E-01 8.40136E-37
4.43398E-01 8.10364E-37
4.47736E-01 7.60484E-37
4.52077E-01 6.95146E-37
4.56422E-01 6.19292E-37
4.60770E-01 5.37732E-37
4.65122E-01 4.54863E-37
4.69476E-01 3.74435E-37
4.73832E-01 2.99450E-37
4.78190E-01 2.32100E-37
4.82550E-01 1.73801E-37
4.86912E-01 1.25243E-37
4.91274E-01 8.64952E-38
4.95637E-01 1.00000E-45
5.00000E-01 1.00000E-45
5.04363E-01 1.00000E-45
5.08726E-01 1.00000E-45
5.13088E-01 1.00000E-45
5.17450E-01 1.00000E-45
5.21810E-01 1.00000E-45
5.26168E-01 1.00000E-45
5.30524E-01 1.00000E-45
5.34878E-01 1.00000E-45
5.39230E-01 1.00000E-45
5.43578E-01 1.00000E-45
5.47923E-01 1.00000E-45
5.52264E-01 1.00000E-45
5.56602E-01 1.00000E-45
5.60935E-01 1.00000E-45
5.65263E-01 1.00000E-45
5.69587E-01 1.00000E-45
5.73905E-01 1.00000E-45
5.78217E-01 1.00000E-45
5.82524E-01 1.00000E-45
5.86824E-01 1.00000E-45
5.91118E-01 1.00000E-45
5.95404E-01 1.00000E-45
5.99684E-01 1.00000E-45
6.03956E-01 1.00000E-45
6.08220E-01 1.00000E-45
6.12476E-01 1.00000E-45
6.16723E-01 1.00000E-45
6.20961E-01 1.00000E-45
6.25190E-01 1.00000E-45
6.29410E-01 1.00000E-45
6.33619E-01 1.00000E-45
6.37819E-01 1.00000E-45
6.42008E-01 1.00000E-45
6.46186E-01 1.00000E-45
6.50353E-01 1.00000E-45
6.54508E-01 1.00000E-45
6.58652E-01 1.00000E-45
6.62784E-01 1.00000E-45
6.66903E-01 1.00000E-45
6.71010E-01 1.00000E-45
6.75104E-01 1.00000E-45
6.79184E-01 1.00000E-45
6.83251E-01 1.00000E-45
6.87303E-01 1.00000E-45
6.91342E-01 1.00000E-45
6.95366E-01 1.00000E-45
6.99375E-01 1.00000E-45
7.03368E-01 1.00000E-45
7.07347E-01 1.00000E-45
7.11309E-01 1.00000E-45
7.15256E-01 1.00000E-45
7.19186E-01 1.00000E-45
7.23099E-01 1.00000E-45
7.26995E-01 1.00000E-45
7.30874E-01 1.00000E-45
7.34736E-01 1.00000E-45
7.38579E-01 1.00000E-45
7.42405E-01 1.00000E-45
7.46212E-01 1.00000E-45
7.50000E-01 1.00000E-45
7.53769E-01 1.00000E-45
7.57519E-01 1.00000E-45
7.61249E-01 1.00000E-45
7.64960E-01 1.00000E-45
7.68650E-01 1.00000E-45
7.72320E-01 1.00000E-45
7.75968E-01 1.00000E-45
7.79596E-01 1.00000E-45
7.83203E-01 1.00000E-45
7.86788E-01 1.00000E-45
7.90351E-01 1.00000E-45
7.93893E-01 1.00000E-45
7.97411E-01 1.00000E-45
8.00908E-01 1.00000E-45
8.04381E-01 1.00000E-45
8.07831E-01 1.00000E-45
8.11257E-01 1.00000E-45
8.14660E-01 1.00000E-45
8.18039E-01 1.00000E-45
8.21394E-01 1.00000E-45
8.24724E-01 1.00000E-45
8.28030E-01 1.00000E-45
8.31310E-01 1.00000E-45
8.34565E-01 1.00000E-45
8.37795E-01 1.00000E-45
8.40999E-01 1.00000E-45
8.44177E-01 1.00000E-45
8.47329E-01 1.00000E-45
8.50455E-01 1.00000E-45
8.53553E-01 1.00000E-45
8.56625E-01 1.00000E-45
8.59670E-01 1.00000E-45
8.62687E-01 1.00000E-45
8.65677E-01 1.00000E-45
8.68639E-01 1.00000E-45
8.71572E-01 1.00000E-45
8.74478E-01 1.00000E-45
8.77355E-01 1.00000E-45
8.80203E-01 1.00000E-45
8.83022E-01 1.00000E-45
8.85812E-01 1.00000E-45
8.88573E-01 1.00000E-45
8.91304E-01 1.00000E-45
8.94005E-01 1.00000E-45
8.96677E-01 1.00000E-45
8.99318E-01 1.00000E-45
9.01928E-01 1.00000E-45
9.04508E-01 1.00000E-45
9.07058E-01 1.00000E-45
9.09576E-01 1.00000E-45
9.12063E-01 1.00000E-45
9.14519E-01 1.00000E-45
9.16943E-01 1.00000E-45
9.19335E-01 1.00000E-45
9.21696E-01 1.00000E-45
9.24024E-01 1.00000E-45
9.26320E-01 1.00000E-45
9.28584E-01 1.00000E-45
9.30815E-01 1.00000E-45
9.33013E-01 1.00000E-45
9.35178E-01 1.00000E-45
9.37310E-01 1.00000E-45
9.39409E-01 1.00000E-45
9.41474E-01 1.00000E-45
9.43505E-01 1.00000E-45
9.45503E-01 1.00000E-45
9.47467E-01 1.00000E-45
9.49397E-01 1.00000E-45
9.51293E-01 1.00000E-45
9.53154E-01 1.00000E-45
9.54981E-01 1.00000E-45
9.56773E-01 1.00000E-45
9.58530E-01 1.00000E-45
9.60252E-01 1.00000E-45
9.61940E-01 1.00000E-45
9.63592E-01 1.00000E-45
9.65209E-01 1.00000E-45
9.66790E-01 1.00000E-45
9.68336E-01 1.00000E-45
9.69846E-01 1.00000E-45
9.71321E-01 1.00000E-45
9.72759E-01 1.00000E-45
9.74162E-01 1.00000E-45
9.75528E-01 1.00000E-45
9.76858E-01 1.00000E-45
9.78152E-01 1.00000E-45
9.79410E-01 1.00000E-45
9.80631E-01 1.00000E-45
9.81815E-01 1.00000E-45
9.82963E-01 1.00000E-45
9.84074E-01 1.00000E-45
9.85148E-01 1.00000E-45
9.86185E-01 1.00000E-45
9.87185E-01 1.00000E-45
9.88148E-01 1.00000E-45
9.89074E-01 1.00000E-45
9.89962E-01 1.00000E-45
9.90814E-01 1.00000E-45
9.91627E-01 1.00000E-45
9.92404E-01 1.00000E-45
9.93143E-01 1.00000E-45
9.93844E-01 1.00000E-45
9.94508E-01 1.00000E-45
9.95134E-01 1.00000E-45
9.95722E-01 1.00000E-45
9.96273E-01 1.00000E-45
9.96786E-01 1.00000E-45
9.97261E-01 1.00000E-45
9.97698E-01 1.00000E-45
9.98097E-01 1.00000E-45
9.98459E-01 1.00000E-45
9.98782E-01 1.00000E-45
9.99067E-01 1.00000E-45
9.99315E-01 1.00000E-45
9.99524E-01 1.00000E-45
9.99695E-01 1.00000E-45
9.99829E-01 1.00000E-45
9.99924E-01 1.00000E-45
9.99981E-01 1.00000E-45
1.00000E+00 1.00000E-45
