 #
 # Subroutine ELSEPA. Elastic scattering of electrons and positrons
 #                    by neutral atoms and positive ions
 #
 # Projectile: electron
 # Kinetic energy = 2.50000E+08 eV = 9.18733E+06 a.u.
 #
 # WARNING: High-energy factorization with free-atom DF screening.
 #          Absorption, polarization and exchange corrections are
 #          switched off.
 #          Phase shifts are calculated for the bare nucleus.
 #          Scattering amplitudes are not evaluated.
 #
 # Element: Ho,  Z =  67,  atomic weight = 1.64930E+02 g/mol
 #
 # Nuclear model: Fermi distribution
 #                Average radius = 5.86792E-13 cm
 #                Skin thickness = 5.46000E-14 cm
 #
 # Number of electrons = 67
 #
 # Total elastic cross section = 7.08800E-18 cm**2 = 2.53117E-01 a0**2
 # 1st transport cross section = 1.37582E-25 cm**2 = 4.91316E-09 a0**2
 # 2nd transport cross section = 4.12145E-25 cm**2 = 1.47180E-08 a0**2
 #
 #
 # Differential cross section:                       MU=(1-COS(THETA))/2
 #
 #  THETA        MU          DCS          DCS        Sherman      error
 #  (deg)                 (cm**2/sr)   (a0**2/sr)    function
 #----------------------------------------------------------------------
0.00000E+00 4.72137E-09
7.61557E-13 4.58848E-09
1.18994E-12 4.51652E-09
1.71346E-12 4.43113E-09
2.33225E-12 4.33369E-09
3.04617E-12 4.22573E-09
3.85530E-12 4.10903E-09
4.75964E-12 3.98519E-09
5.75917E-12 3.85479E-09
6.85391E-12 3.72148E-09
8.04379E-12 3.58432E-09
9.32893E-12 3.44711E-09
1.07092E-11 3.30892E-09
1.21847E-11 3.17258E-09
1.37554E-11 3.03787E-09
1.54213E-11 2.90617E-09
1.71823E-11 2.77827E-09
1.90386E-11 2.65388E-09
2.09900E-11 2.53489E-09
2.30367E-11 2.41949E-09
2.51785E-11 2.31056E-09
2.74156E-11 2.20527E-09
2.97478E-11 2.10644E-09
3.21752E-11 2.01164E-09
3.46979E-11 1.92249E-09
3.73157E-11 1.83776E-09
4.00286E-11 1.75784E-09
4.28368E-11 1.68245E-09
4.57402E-11 1.61109E-09
4.87388E-11 1.54417E-09
5.18325E-11 1.48060E-09
5.50215E-11 1.42120E-09
5.83057E-11 1.36467E-09
6.16850E-11 1.31182E-09
6.51595E-11 1.26161E-09
6.87293E-11 1.21439E-09
7.23943E-11 1.16965E-09
7.61544E-11 1.12737E-09
1.18991E-10 8.06151E-10
1.71347E-10 6.01377E-10
2.33223E-10 4.59521E-10
3.04617E-10 3.56102E-10
3.85531E-10 2.77458E-10
4.75965E-10 2.17886E-10
5.75917E-10 1.76467E-10
6.85389E-10 1.41360E-10
8.04380E-10 1.16131E-10
9.32891E-10 9.52602E-11
1.07092E-09 7.93792E-11
1.21847E-09 6.64169E-11
1.37554E-09 5.60712E-11
1.54213E-09 4.76461E-11
1.71823E-09 4.06654E-11
1.90386E-09 3.49792E-11
2.09900E-09 3.01265E-11
2.30367E-09 2.61690E-11
2.51785E-09 2.27173E-11
2.74156E-09 1.98788E-11
2.97478E-09 1.73958E-11
3.21752E-09 1.53146E-11
3.46978E-09 1.35082E-11
3.73156E-09 1.19633E-11
4.00286E-09 1.06275E-11
4.28368E-09 9.46818E-12
4.57402E-09 8.46599E-12
4.87388E-09 7.58682E-12
5.18326E-09 6.82490E-12
5.50215E-09 6.15104E-12
5.83057E-09 5.56413E-12
6.16850E-09 5.04237E-12
6.51596E-09 4.58419E-12
6.87293E-09 4.17636E-12
7.23942E-09 3.81486E-12
7.61544E-09 3.49224E-12
1.18991E-08 1.60244E-12
1.71347E-08 8.44145E-13
2.33223E-08 4.85304E-13
3.04617E-08 2.97737E-13
3.85531E-08 1.92141E-13
4.75965E-08 1.29478E-13
5.75917E-08 9.04076E-14
6.85389E-08 6.50421E-14
8.04380E-08 4.79948E-14
9.32891E-08 3.61940E-14
1.07092E-07 2.78072E-14
1.21847E-07 2.17177E-14
1.37554E-07 1.72095E-14
1.54213E-07 1.38134E-14
1.71823E-07 1.12154E-14
1.90386E-07 9.20032E-15
2.09900E-07 7.61787E-15
2.30367E-07 6.36068E-15
2.51785E-07 5.35209E-15
2.74156E-07 4.53545E-15
2.97478E-07 3.86856E-15
3.21752E-07 3.31966E-15
3.46978E-07 2.86460E-15
3.73156E-07 2.48478E-15
4.00286E-07 2.16572E-15
4.28368E-07 1.89617E-15
4.57402E-07 1.66724E-15
4.87388E-07 1.47180E-15
5.18325E-07 1.30415E-15
5.50215E-07 1.15969E-15
5.83057E-07 1.03467E-15
6.16850E-07 9.26034E-16
6.51596E-07 8.31280E-16
6.87293E-07 7.48339E-16
7.23942E-07 6.75488E-16
7.61543E-07 6.11291E-16
1.18991E-06 2.53182E-16
1.71347E-06 1.23045E-16
2.33223E-06 6.67974E-17
3.04617E-06 3.93252E-17
3.85531E-06 2.46326E-17
4.75964E-06 1.62038E-17
5.75916E-06 1.10906E-17
6.85388E-06 7.84395E-18
8.04378E-06 5.70284E-18
9.32888E-06 4.24481E-18
1.07092E-05 3.22429E-18
1.21846E-05 2.49281E-18
1.37553E-05 1.95747E-18
1.54212E-05 1.55842E-18
1.71822E-05 1.25606E-18
1.90385E-05 1.02311E-18
2.09899E-05 8.42584E-19
2.30365E-05 7.00081E-19
2.51783E-05 5.86331E-19
2.74153E-05 4.94663E-19
2.97475E-05 4.20176E-19
3.21749E-05 3.59194E-19
3.46974E-05 3.08912E-19
3.73152E-05 2.67165E-19
4.00281E-05 2.32264E-19
4.28362E-05 2.02895E-19
4.57395E-05 1.78025E-19
4.87380E-05 1.56845E-19
5.18317E-05 1.38715E-19
5.50205E-05 1.23124E-19
5.83045E-05 1.09661E-19
6.16838E-05 9.79907E-20
6.51582E-05 8.78359E-20
6.87277E-05 7.89669E-20
7.23925E-05 7.11925E-20
7.61524E-05 6.46483E-20
9.21439E-05 4.42320E-20
1.09658E-04 3.12822E-20
1.28695E-04 2.27510E-20
1.49255E-04 1.69420E-20
1.71338E-04 1.28774E-20
1.94942E-04 9.96335E-21
2.20070E-04 7.83007E-21
2.46720E-04 6.23924E-21
2.74892E-04 5.03314E-21
3.04586E-04 4.10533E-21
3.35803E-04 3.38201E-21
3.68542E-04 2.81139E-21
4.02802E-04 2.35630E-21
4.38585E-04 1.98966E-21
4.75889E-04 1.69166E-21
5.14715E-04 1.44741E-21
5.55063E-04 1.24568E-21
5.96931E-04 1.07786E-21
6.40321E-04 9.37344E-22
6.85233E-04 8.18954E-22
7.31665E-04 7.18636E-22
7.79618E-04 6.33174E-22
8.29092E-04 5.60003E-22
8.80086E-04 4.97059E-22
9.32601E-04 4.42673E-22
9.86636E-04 3.95485E-22
1.04219E-03 3.54381E-22
1.09927E-03 3.18444E-22
1.15786E-03 2.86913E-22
1.21797E-03 2.59156E-22
1.27961E-03 2.34644E-22
1.34276E-03 2.12932E-22
1.40743E-03 1.93645E-22
1.47362E-03 1.76467E-22
1.54133E-03 1.61126E-22
1.61056E-03 1.47393E-22
1.68131E-03 1.35070E-22
1.75357E-03 1.23986E-22
1.82735E-03 1.13997E-22
1.90265E-03 1.04974E-22
1.97947E-03 9.68094E-23
2.05780E-03 8.94063E-23
2.13765E-03 8.26818E-23
2.21902E-03 7.65628E-23
2.30190E-03 7.09856E-23
2.38630E-03 6.58938E-23
2.47222E-03 6.12380E-23
2.55965E-03 5.69745E-23
2.64859E-03 5.30645E-23
2.73905E-03 4.94738E-23
2.83103E-03 4.61718E-23
2.92452E-03 4.31314E-23
3.01952E-03 4.03283E-23
3.11604E-03 3.77409E-23
3.21407E-03 3.53498E-23
3.31362E-03 3.31376E-23
3.41468E-03 3.10887E-23
3.51725E-03 2.91890E-23
3.62133E-03 2.74259E-23
3.72692E-03 2.57878E-23
3.83403E-03 2.42645E-23
3.94265E-03 2.28466E-23
4.05278E-03 2.15256E-23
4.16442E-03 2.02938E-23
4.27757E-03 1.91442E-23
4.39223E-03 1.80705E-23
4.50840E-03 1.70668E-23
4.62608E-03 1.61278E-23
4.74527E-03 1.52487E-23
4.86597E-03 1.44251E-23
4.98817E-03 1.36529E-23
5.11188E-03 1.29285E-23
5.23711E-03 1.22483E-23
5.36383E-03 1.16093E-23
5.49207E-03 1.10085E-23
5.62181E-03 1.04435E-23
5.75306E-03 9.91162E-24
5.88581E-03 9.41073E-24
6.02007E-03 8.93874E-24
6.15583E-03 8.49373E-24
6.29310E-03 8.07393E-24
6.43187E-03 7.67770E-24
6.57214E-03 7.30352E-24
6.71392E-03 6.94999E-24
6.85720E-03 6.61581E-24
7.00198E-03 6.29977E-24
7.14827E-03 6.00074E-24
7.29605E-03 5.71768E-24
7.44534E-03 5.44962E-24
7.59612E-03 5.19565E-24
7.97965E-03 4.61701E-24
8.37255E-03 4.10966E-24
8.77480E-03 3.66376E-24
9.18641E-03 3.27100E-24
9.60736E-03 2.92431E-24
1.00376E-02 2.61769E-24
1.04773E-02 2.34599E-24
1.09262E-02 2.10482E-24
1.13844E-02 1.89039E-24
1.18520E-02 1.69944E-24
1.23288E-02 1.52915E-24
1.28150E-02 1.37707E-24
1.33104E-02 1.24107E-24
1.38150E-02 1.11931E-24
1.43290E-02 1.01017E-24
1.48521E-02 9.12231E-25
1.53845E-02 8.24258E-25
1.59262E-02 7.45159E-25
1.64770E-02 6.73975E-25
1.70371E-02 6.09859E-25
1.76063E-02 5.52064E-25
1.81848E-02 4.99928E-25
1.87724E-02 4.52865E-25
1.93692E-02 4.10353E-25
1.99751E-02 3.71929E-25
2.05901E-02 3.37181E-25
2.12143E-02 3.05741E-25
2.18476E-02 2.77281E-25
2.24900E-02 2.51508E-25
2.31415E-02 2.28157E-25
2.38021E-02 2.06995E-25
2.44717E-02 1.87810E-25
2.51504E-02 1.70411E-25
2.58382E-02 1.54629E-25
2.65349E-02 1.40311E-25
2.72407E-02 1.27318E-25
2.79555E-02 1.15525E-25
2.86793E-02 1.04820E-25
2.94120E-02 9.51023E-26
3.01537E-02 8.62796E-26
3.09043E-02 7.82692E-26
3.16639E-02 7.09963E-26
3.24324E-02 6.43928E-26
3.32098E-02 5.83975E-26
3.39961E-02 5.29545E-26
3.47912E-02 4.80133E-26
3.55952E-02 4.35282E-26
3.64081E-02 3.94575E-26
3.72297E-02 3.57635E-26
3.80602E-02 3.24118E-26
3.88995E-02 2.93714E-26
3.97476E-02 2.66138E-26
4.06044E-02 2.41133E-26
4.14700E-02 2.18465E-26
4.23443E-02 1.97921E-26
4.32273E-02 1.79306E-26
4.41190E-02 1.62444E-26
4.50194E-02 1.47176E-26
4.59284E-02 1.33353E-26
4.68461E-02 1.20844E-26
4.87074E-02 9.92935E-27
5.06030E-02 8.16788E-27
5.25328E-02 6.73007E-27
5.44967E-02 5.55802E-27
5.64946E-02 4.60379E-27
5.85262E-02 3.82775E-27
6.05914E-02 3.19715E-27
6.26901E-02 2.68499E-27
6.48222E-02 2.26906E-27
6.69873E-02 1.93107E-27
6.91854E-02 1.65605E-27
7.14163E-02 1.43175E-27
7.36799E-02 1.24818E-27
7.59760E-02 1.09723E-27
7.83043E-02 9.72320E-28
8.06647E-02 8.68154E-28
8.30571E-02 7.80474E-28
8.54812E-02 7.05880E-28
8.79369E-02 6.41671E-28
9.04240E-02 5.85712E-28
9.29422E-02 5.36331E-28
9.54915E-02 4.92224E-28
9.80716E-02 4.52384E-28
1.00682E-01 4.16038E-28
1.03323E-01 3.82602E-28
1.05995E-01 3.51634E-28
1.08696E-01 3.22806E-28
1.11427E-01 2.95874E-28
1.14188E-01 2.70661E-28
1.16978E-01 2.47034E-28
1.19797E-01 2.24897E-28
1.22645E-01 2.04176E-28
1.25522E-01 1.84814E-28
1.28428E-01 1.66763E-28
1.31361E-01 1.49979E-28
1.34323E-01 1.34423E-28
1.37313E-01 1.20054E-28
1.40330E-01 1.06831E-28
1.43375E-01 9.47086E-29
1.46447E-01 8.36408E-29
1.49545E-01 7.35786E-29
1.52671E-01 6.44703E-29
1.55823E-01 5.62629E-29
1.59001E-01 4.89015E-29
1.62205E-01 4.23306E-29
1.65435E-01 3.64945E-29
1.68690E-01 3.13376E-29
1.71970E-01 2.68050E-29
1.75276E-01 2.28433E-29
1.78606E-01 1.94006E-29
1.81961E-01 1.64270E-29
1.85340E-01 1.38749E-29
1.88743E-01 1.16994E-29
1.92169E-01 9.85822E-30
1.95619E-01 8.31177E-30
1.99092E-01 7.02350E-30
2.02589E-01 5.95974E-30
2.06107E-01 5.08969E-30
2.09649E-01 4.38539E-30
2.13212E-01 3.82164E-30
2.16797E-01 3.37586E-30
2.20404E-01 3.02800E-30
2.24032E-01 2.76037E-30
2.27680E-01 2.55749E-30
2.31350E-01 2.40595E-30
2.35040E-01 2.29422E-30
2.38751E-01 2.21251E-30
2.42481E-01 2.15258E-30
2.46231E-01 2.10760E-30
2.50000E-01 2.07201E-30
2.53788E-01 2.04134E-30
2.57595E-01 2.01210E-30
2.61421E-01 1.98164E-30
2.65264E-01 1.94804E-30
2.69126E-01 1.90999E-30
2.73005E-01 1.86668E-30
2.76901E-01 1.81775E-30
2.80814E-01 1.76314E-30
2.84744E-01 1.70311E-30
2.88691E-01 1.63809E-30
2.92653E-01 1.56868E-30
2.96632E-01 1.49556E-30
3.00625E-01 1.41951E-30
3.04634E-01 1.34131E-30
3.08658E-01 1.26175E-30
3.12697E-01 1.18160E-30
3.16749E-01 1.10160E-30
3.20816E-01 1.02243E-30
3.24896E-01 9.44708E-31
3.28990E-01 8.68984E-31
3.33097E-01 7.95742E-31
3.37216E-01 7.25388E-31
3.41348E-01 6.58258E-31
3.45492E-01 5.94617E-31
3.49647E-01 5.34661E-31
3.53814E-01 4.78525E-31
3.57992E-01 4.26285E-31
3.62181E-01 3.77965E-31
3.66381E-01 3.33539E-31
3.70590E-01 2.92943E-31
3.74810E-01 2.56074E-31
3.79039E-01 2.22803E-31
3.83277E-01 1.92972E-31
3.87524E-01 1.66405E-31
3.91780E-01 1.42912E-31
3.96044E-01 1.22292E-31
4.00316E-01 1.04336E-31
4.04596E-01 8.88340E-32
4.08882E-01 7.55741E-32
4.13176E-01 6.43484E-32
4.17476E-01 5.49538E-32
4.21783E-01 4.71942E-32
4.26095E-01 4.08821E-32
4.30413E-01 3.58398E-32
4.34737E-01 3.19005E-32
4.39065E-01 2.89087E-32
4.43398E-01 2.67209E-32
4.47736E-01 2.52054E-32
4.52077E-01 2.42429E-32
4.56422E-01 2.37255E-32
4.60770E-01 2.35574E-32
4.65122E-01 2.36534E-32
4.69476E-01 2.39393E-32
4.73832E-01 2.43508E-32
4.78190E-01 2.48329E-32
4.82550E-01 2.53395E-32
4.86912E-01 2.58324E-32
4.91274E-01 2.62806E-32
4.95637E-01 2.66598E-32
5.00000E-01 2.69517E-32
5.04363E-01 2.71431E-32
5.08726E-01 2.72253E-32
5.13088E-01 2.71938E-32
5.17450E-01 2.70473E-32
5.21810E-01 2.67874E-32
5.26168E-01 2.64183E-32
5.30524E-01 2.59456E-32
5.34878E-01 2.53770E-32
5.39230E-01 2.47207E-32
5.43578E-01 2.39863E-32
5.47923E-01 2.31835E-32
5.52264E-01 2.23223E-32
5.56602E-01 2.14129E-32
5.60935E-01 2.04652E-32
5.65263E-01 1.94890E-32
5.69587E-01 1.84933E-32
5.73905E-01 1.74870E-32
5.78217E-01 1.64781E-32
5.82524E-01 1.54741E-32
5.86824E-01 1.44818E-32
5.91118E-01 1.35072E-32
5.95404E-01 1.25556E-32
5.99684E-01 1.16318E-32
6.03956E-01 1.07395E-32
6.08220E-01 9.88221E-33
6.12476E-01 9.06244E-33
6.16723E-01 8.28227E-33
6.20961E-01 7.54318E-33
6.25190E-01 6.84615E-33
6.29410E-01 6.19167E-33
6.33619E-01 5.57982E-33
6.37819E-01 5.01031E-33
6.42008E-01 4.48249E-33
6.46186E-01 3.99545E-33
6.50353E-01 3.54800E-33
6.54508E-01 3.13876E-33
6.58652E-01 2.76619E-33
6.62784E-01 2.42859E-33
6.66903E-01 2.12417E-33
6.71010E-01 1.85106E-33
6.75104E-01 1.60736E-33
6.79184E-01 1.39113E-33
6.83251E-01 1.20042E-33
6.87303E-01 1.03332E-33
6.91342E-01 8.87946E-34
6.95366E-01 7.62457E-34
6.99375E-01 6.55073E-34
7.03368E-01 5.64088E-34
7.07347E-01 4.87866E-34
7.11309E-01 4.24859E-34
7.15256E-01 3.73604E-34
7.19186E-01 3.32727E-34
7.23099E-01 3.00946E-34
7.26995E-01 2.77072E-34
7.30874E-01 2.60007E-34
7.34736E-01 2.48741E-34
7.38579E-01 2.42354E-34
7.42405E-01 2.40010E-34
7.46212E-01 2.40954E-34
7.50000E-01 2.44511E-34
7.53769E-01 2.50077E-34
7.57519E-01 2.57121E-34
7.61249E-01 2.65174E-34
7.64960E-01 2.73832E-34
7.68650E-01 2.82744E-34
7.72320E-01 2.91613E-34
7.75968E-01 3.00189E-34
7.79596E-01 3.08266E-34
7.83203E-01 3.15678E-34
7.86788E-01 3.22293E-34
7.90351E-01 3.28011E-34
7.93893E-01 3.32761E-34
7.97411E-01 3.36498E-34
8.00908E-01 3.39195E-34
8.04381E-01 3.40846E-34
8.07831E-01 3.41462E-34
8.11257E-01 3.41066E-34
8.14660E-01 3.39692E-34
8.18039E-01 3.37386E-34
8.21394E-01 3.34196E-34
8.24724E-01 3.30182E-34
8.28030E-01 3.25402E-34
8.31310E-01 3.19923E-34
8.34565E-01 3.13807E-34
8.37795E-01 3.07124E-34
8.40999E-01 2.99937E-34
8.44177E-01 2.92311E-34
8.47329E-01 2.84312E-34
8.50455E-01 2.75998E-34
8.53553E-01 2.67429E-34
8.56625E-01 2.58662E-34
8.59670E-01 2.49747E-34
8.62687E-01 2.40736E-34
8.65677E-01 2.31674E-34
8.68639E-01 2.22602E-34
8.71572E-01 2.13561E-34
8.74478E-01 2.04585E-34
8.77355E-01 1.95706E-34
8.80203E-01 1.86954E-34
8.83022E-01 1.78353E-34
8.85812E-01 1.69926E-34
8.88573E-01 1.61692E-34
8.91304E-01 1.53668E-34
8.94005E-01 1.45866E-34
8.96677E-01 1.38300E-34
8.99318E-01 1.30978E-34
9.01928E-01 1.23906E-34
9.04508E-01 1.17090E-34
9.07058E-01 1.10534E-34
9.09576E-01 1.04237E-34
9.12063E-01 9.82020E-35
9.14519E-01 9.24261E-35
9.16943E-01 8.69074E-35
9.19335E-01 8.16424E-35
9.21696E-01 7.66267E-35
9.24024E-01 7.18555E-35
9.26320E-01 6.73226E-35
9.28584E-01 6.30221E-35
9.30815E-01 5.89471E-35
9.33013E-01 5.50905E-35
9.35178E-01 5.14446E-35
9.37310E-01 4.80021E-35
9.39409E-01 4.47550E-35
9.41474E-01 4.16955E-35
9.43505E-01 3.88157E-35
9.45503E-01 3.61078E-35
9.47467E-01 3.35636E-35
9.49397E-01 3.11757E-35
9.51293E-01 2.89365E-35
9.53154E-01 2.68384E-35
9.54981E-01 2.48740E-35
9.56773E-01 2.30367E-35
9.58530E-01 2.13193E-35
9.60252E-01 1.97152E-35
9.61940E-01 1.82180E-35
9.63592E-01 1.68217E-35
9.65209E-01 1.55203E-35
9.66790E-01 1.43082E-35
9.68336E-01 1.31798E-35
9.69846E-01 1.21302E-35
9.71321E-01 1.11543E-35
9.72759E-01 1.02477E-35
9.74162E-01 9.40574E-36
9.75528E-01 8.62436E-36
9.76858E-01 7.89956E-36
9.78152E-01 7.22759E-36
9.79410E-01 6.60503E-36
9.80631E-01 6.02841E-36
9.81815E-01 5.49478E-36
9.82963E-01 5.00109E-36
9.84074E-01 4.54465E-36
9.85148E-01 4.12289E-36
9.86185E-01 3.73335E-36
9.87185E-01 3.37389E-36
9.88148E-01 3.04227E-36
9.89074E-01 2.73665E-36
9.89962E-01 2.45513E-36
9.90814E-01 2.19613E-36
9.91627E-01 1.95798E-36
9.92404E-01 1.73926E-36
9.93143E-01 1.53864E-36
9.93844E-01 1.35491E-36
9.94508E-01 1.18685E-36
9.95134E-01 1.03346E-36
9.95722E-01 8.93757E-37
9.96273E-01 7.66840E-37
9.96786E-01 6.51905E-37
9.97261E-01 5.48247E-37
9.97698E-01 4.55173E-37
9.98097E-01 3.72105E-37
9.98459E-01 2.98468E-37
9.98782E-01 2.33835E-37
9.99067E-01 1.77763E-37
9.99315E-01 1.29866E-37
9.99524E-01 8.98768E-38
9.99695E-01 5.75071E-38
9.99829E-01 3.25371E-38
9.99924E-01 1.48250E-38
9.99981E-01 4.23502E-39
1.00000E+00 6.97739E-40
