 #
 # Subroutine ELSEPA. Elastic scattering of electrons and positrons
 #                    by neutral atoms and positive ions
 #
 # Projectile: electron
 # Kinetic energy = 4.50000E+06 eV = 1.65372E+05 a.u.
 #
 # WARNING: High-energy factorization with free-atom DF screening.
 #          Absorption, polarization and exchange corrections are
 #          switched off.
 #          Phase shifts are calculated for the bare nucleus.
 #          Scattering amplitudes are not evaluated.
 #
 # Element: Ho,  Z =  67,  atomic weight = 1.64930E+02 g/mol
 #
 # Nuclear model: Fermi distribution
 #                Average radius = 5.86792E-13 cm
 #                Skin thickness = 5.46000E-14 cm
 #
 # Number of electrons = 67
 #
 # Total elastic cross section = 7.16560E-18 cm**2 = 2.55888E-01 a0**2
 # 1st transport cross section = 2.93211E-22 cm**2 = 1.04708E-05 a0**2
 # 2nd transport cross section = 8.00470E-22 cm**2 = 2.85853E-05 a0**2
 #
 #
 # Differential cross section:                       MU=(1-COS(THETA))/2
 #
 #  THETA        MU          DCS          DCS        Sherman      error
 #  (deg)                 (cm**2/sr)   (a0**2/sr)    function
 #----------------------------------------------------------------------
0.00000E+00 1.88913E-12
7.61557E-13 1.88911E-12
1.18994E-12 1.88910E-12
1.71346E-12 1.88909E-12
2.33225E-12 1.88907E-12
3.04617E-12 1.88905E-12
3.85530E-12 1.88903E-12
4.75964E-12 1.88900E-12
5.75917E-12 1.88897E-12
6.85391E-12 1.88894E-12
8.04379E-12 1.88891E-12
9.32893E-12 1.88887E-12
1.07092E-11 1.88883E-12
1.21847E-11 1.88879E-12
1.37554E-11 1.88875E-12
1.54213E-11 1.88870E-12
1.71823E-11 1.88865E-12
1.90386E-11 1.88860E-12
2.09900E-11 1.88854E-12
2.30367E-11 1.88848E-12
2.51785E-11 1.88842E-12
2.74156E-11 1.88836E-12
2.97478E-11 1.88829E-12
3.21752E-11 1.88823E-12
3.46979E-11 1.88815E-12
3.73157E-11 1.88808E-12
4.00286E-11 1.88800E-12
4.28368E-11 1.88792E-12
4.57402E-11 1.88784E-12
4.87388E-11 1.88776E-12
5.18325E-11 1.88767E-12
5.50215E-11 1.88758E-12
5.83057E-11 1.88749E-12
6.16850E-11 1.88739E-12
6.51595E-11 1.88729E-12
6.87293E-11 1.88719E-12
7.23943E-11 1.88709E-12
7.61544E-11 1.88698E-12
1.18991E-10 1.88578E-12
1.71347E-10 1.88430E-12
2.33223E-10 1.88256E-12
3.04617E-10 1.88055E-12
3.85531E-10 1.87829E-12
4.75965E-10 1.87576E-12
5.75917E-10 1.87297E-12
6.85389E-10 1.86992E-12
8.04380E-10 1.86662E-12
9.32891E-10 1.86306E-12
1.07092E-09 1.85925E-12
1.21847E-09 1.85520E-12
1.37554E-09 1.85090E-12
1.54213E-09 1.84635E-12
1.71823E-09 1.84157E-12
1.90386E-09 1.83655E-12
2.09900E-09 1.83130E-12
2.30367E-09 1.82582E-12
2.51785E-09 1.82012E-12
2.74156E-09 1.81419E-12
2.97478E-09 1.80805E-12
3.21752E-09 1.80169E-12
3.46978E-09 1.79512E-12
3.73156E-09 1.78835E-12
4.00286E-09 1.78138E-12
4.28368E-09 1.77421E-12
4.57402E-09 1.76685E-12
4.87388E-09 1.75930E-12
5.18326E-09 1.75157E-12
5.50215E-09 1.74366E-12
5.83057E-09 1.73558E-12
6.16850E-09 1.72733E-12
6.51596E-09 1.71892E-12
6.87293E-09 1.71035E-12
7.23942E-09 1.70163E-12
7.61544E-09 1.69276E-12
1.18991E-08 1.59729E-12
1.71347E-08 1.49250E-12
2.33223E-08 1.38334E-12
3.04617E-08 1.27398E-12
3.85531E-08 1.16772E-12
4.75965E-08 1.06695E-12
5.75917E-08 9.73241E-13
6.85389E-08 8.87602E-13
8.04380E-08 8.09992E-13
9.32891E-08 7.40226E-13
1.07092E-07 6.77856E-13
1.21847E-07 6.22281E-13
1.37554E-07 5.72831E-13
1.54213E-07 5.28827E-13
1.71823E-07 4.89614E-13
1.90386E-07 4.54586E-13
2.09900E-07 4.23200E-13
2.30367E-07 3.94973E-13
2.51785E-07 3.69470E-13
2.74156E-07 3.46327E-13
2.97478E-07 3.25239E-13
3.21752E-07 3.05948E-13
3.46978E-07 2.88233E-13
3.73156E-07 2.71906E-13
4.00286E-07 2.56810E-13
4.28368E-07 2.42809E-13
4.57402E-07 2.29788E-13
4.87388E-07 2.17648E-13
5.18325E-07 2.06299E-13
5.50215E-07 1.95651E-13
5.83057E-07 1.85669E-13
6.16850E-07 1.76297E-13
6.51596E-07 1.67488E-13
6.87293E-07 1.59199E-13
7.23942E-07 1.51392E-13
7.61543E-07 1.44033E-13
1.18991E-06 8.82576E-14
1.71347E-06 5.73450E-14
2.33223E-06 3.86864E-14
3.04617E-06 2.69972E-14
3.85531E-06 1.93836E-14
4.75964E-06 1.42420E-14
5.75916E-06 1.06613E-14
6.85388E-06 8.09763E-15
8.04378E-06 6.24320E-15
9.32888E-06 4.88016E-15
1.07092E-05 3.86438E-15
1.21846E-05 3.09781E-15
1.37553E-05 2.51238E-15
1.54212E-05 2.06008E-15
1.71822E-05 1.70664E-15
1.90385E-05 1.42666E-15
2.09899E-05 1.20438E-15
2.30365E-05 1.02507E-15
2.51783E-05 8.77597E-16
2.74153E-05 7.56210E-16
2.97475E-05 6.55550E-16
3.21749E-05 5.71469E-16
3.46974E-05 5.00729E-16
3.73152E-05 4.40782E-16
4.00281E-05 3.89626E-16
4.28362E-05 3.45688E-16
4.57395E-05 3.07735E-16
4.87380E-05 2.74795E-16
5.18317E-05 2.46089E-16
5.50205E-05 2.20981E-16
5.83045E-05 1.98977E-16
6.16838E-05 1.79636E-16
6.51582E-05 1.62586E-16
6.87277E-05 1.47507E-16
7.23925E-05 1.34129E-16
7.61524E-05 1.22224E-16
9.21439E-05 8.59059E-17
1.09658E-04 6.20784E-17
1.28695E-04 4.59810E-17
1.49255E-04 3.47827E-17
1.71338E-04 2.68053E-17
1.94942E-04 2.09946E-17
2.20070E-04 1.66807E-17
2.46720E-04 1.34233E-17
2.74892E-04 1.09255E-17
3.04586E-04 8.98397E-18
3.35803E-04 7.45611E-18
3.68542E-04 6.24012E-18
4.02802E-04 5.26226E-18
4.38585E-04 4.46894E-18
4.75889E-04 3.81983E-18
5.14715E-04 3.28452E-18
5.55063E-04 2.83985E-18
5.96931E-04 2.46799E-18
6.40321E-04 2.15508E-18
6.85233E-04 1.89024E-18
7.31665E-04 1.66488E-18
7.79618E-04 1.47213E-18
8.29092E-04 1.30649E-18
8.80086E-04 1.16349E-18
9.32601E-04 1.03954E-18
9.86636E-04 9.31687E-19
1.04219E-03 8.37480E-19
1.09927E-03 7.54901E-19
1.15786E-03 6.82269E-19
1.21797E-03 6.18182E-19
1.27961E-03 5.61460E-19
1.34276E-03 5.11112E-19
1.40743E-03 4.66297E-19
1.47362E-03 4.26299E-19
1.54133E-03 3.90510E-19
1.61056E-03 3.58411E-19
1.68131E-03 3.29555E-19
1.75357E-03 3.03556E-19
1.82735E-03 2.80082E-19
1.90265E-03 2.58843E-19
1.97947E-03 2.39588E-19
2.05780E-03 2.22099E-19
2.13765E-03 2.06184E-19
2.21902E-03 1.91677E-19
2.30190E-03 1.78430E-19
2.38630E-03 1.66313E-19
2.47222E-03 1.55213E-19
2.55965E-03 1.45030E-19
2.64859E-03 1.35673E-19
2.73905E-03 1.27063E-19
2.83103E-03 1.19129E-19
2.92452E-03 1.11809E-19
3.01952E-03 1.05047E-19
3.11604E-03 9.87913E-20
3.21407E-03 9.29978E-20
3.31362E-03 8.76255E-20
3.41468E-03 8.26383E-20
3.51725E-03 7.80035E-20
3.62133E-03 7.36915E-20
3.72692E-03 6.96756E-20
3.83403E-03 6.59317E-20
3.94265E-03 6.24378E-20
4.05278E-03 5.91742E-20
4.16442E-03 5.61228E-20
4.27757E-03 5.32672E-20
4.39223E-03 5.05923E-20
4.50840E-03 4.80847E-20
4.62608E-03 4.57319E-20
4.74527E-03 4.35224E-20
4.86597E-03 4.14460E-20
4.98817E-03 3.94930E-20
5.11188E-03 3.76548E-20
5.23711E-03 3.59233E-20
5.36383E-03 3.42911E-20
5.49207E-03 3.27515E-20
5.62181E-03 3.12981E-20
5.75306E-03 2.99253E-20
5.88581E-03 2.86277E-20
6.02007E-03 2.74003E-20
6.15583E-03 2.62387E-20
6.29310E-03 2.51386E-20
6.43187E-03 2.40962E-20
6.57214E-03 2.31078E-20
6.71392E-03 2.21702E-20
6.85720E-03 2.12801E-20
7.00198E-03 2.04348E-20
7.14827E-03 1.96315E-20
7.29605E-03 1.88677E-20
7.44534E-03 1.81412E-20
7.59612E-03 1.74497E-20
7.97965E-03 1.58613E-20
8.37255E-03 1.44517E-20
8.77480E-03 1.31970E-20
9.18641E-03 1.20773E-20
9.60736E-03 1.10752E-20
1.00376E-02 1.01764E-20
1.04773E-02 9.36804E-21
1.09262E-02 8.63952E-21
1.13844E-02 7.98145E-21
1.18520E-02 7.38576E-21
1.23288E-02 6.84545E-21
1.28150E-02 6.35442E-21
1.33104E-02 5.90733E-21
1.38150E-02 5.49950E-21
1.43290E-02 5.12685E-21
1.48521E-02 4.78576E-21
1.53845E-02 4.47307E-21
1.59262E-02 4.18596E-21
1.64770E-02 3.92194E-21
1.70371E-02 3.67879E-21
1.76063E-02 3.45456E-21
1.81848E-02 3.24749E-21
1.87724E-02 3.05601E-21
1.93692E-02 2.87873E-21
1.99751E-02 2.71438E-21
2.05901E-02 2.56184E-21
2.12143E-02 2.42009E-21
2.18476E-02 2.28823E-21
2.24900E-02 2.16543E-21
2.31415E-02 2.05094E-21
2.38021E-02 1.94409E-21
2.44717E-02 1.84428E-21
2.51504E-02 1.75094E-21
2.58382E-02 1.66358E-21
2.65349E-02 1.58173E-21
2.72407E-02 1.50498E-21
2.79555E-02 1.43295E-21
2.86793E-02 1.36528E-21
2.94120E-02 1.30167E-21
3.01537E-02 1.24182E-21
3.09043E-02 1.18545E-21
3.16639E-02 1.13234E-21
3.24324E-02 1.08225E-21
3.32098E-02 1.03498E-21
3.39961E-02 9.90330E-22
3.47912E-02 9.48133E-22
3.55952E-02 9.08223E-22
3.64081E-02 8.70452E-22
3.72297E-02 8.34682E-22
3.80602E-02 8.00785E-22
3.88995E-02 7.68643E-22
3.97476E-02 7.38147E-22
4.06044E-02 7.09194E-22
4.14700E-02 6.81690E-22
4.23443E-02 6.55548E-22
4.32273E-02 6.30687E-22
4.41190E-02 6.07030E-22
4.50194E-02 5.84507E-22
4.59284E-02 5.63053E-22
4.68461E-02 5.42605E-22
4.87074E-02 5.04507E-22
5.06030E-02 4.69800E-22
5.25328E-02 4.38121E-22
5.44967E-02 4.09153E-22
5.64946E-02 3.82618E-22
5.85262E-02 3.58269E-22
6.05914E-02 3.35892E-22
6.26901E-02 3.15292E-22
6.48222E-02 2.96302E-22
6.69873E-02 2.78768E-22
6.91854E-02 2.62557E-22
7.14163E-02 2.47547E-22
7.36799E-02 2.33633E-22
7.59760E-02 2.20716E-22
7.83043E-02 2.08710E-22
8.06647E-02 1.97538E-22
8.30571E-02 1.87130E-22
8.54812E-02 1.77423E-22
8.79369E-02 1.68359E-22
9.04240E-02 1.59887E-22
9.29422E-02 1.51959E-22
9.54915E-02 1.44534E-22
9.80716E-02 1.37573E-22
1.00682E-01 1.31040E-22
1.03323E-01 1.24904E-22
1.05995E-01 1.19135E-22
1.08696E-01 1.13707E-22
1.11427E-01 1.08595E-22
1.14188E-01 1.03777E-22
1.16978E-01 9.92315E-23
1.19797E-01 9.49406E-23
1.22645E-01 9.08867E-23
1.25522E-01 8.70539E-23
1.28428E-01 8.34275E-23
1.31361E-01 7.99939E-23
1.34323E-01 7.67406E-23
1.37313E-01 7.36560E-23
1.40330E-01 7.07295E-23
1.43375E-01 6.79512E-23
1.46447E-01 6.53119E-23
1.49545E-01 6.28032E-23
1.52671E-01 6.04171E-23
1.55823E-01 5.81464E-23
1.59001E-01 5.59841E-23
1.62205E-01 5.39240E-23
1.65435E-01 5.19601E-23
1.68690E-01 5.00870E-23
1.71970E-01 4.82996E-23
1.75276E-01 4.65930E-23
1.78606E-01 4.49628E-23
1.81961E-01 4.34048E-23
1.85340E-01 4.19151E-23
1.88743E-01 4.04899E-23
1.92169E-01 3.91259E-23
1.95619E-01 3.78199E-23
1.99092E-01 3.65688E-23
2.02589E-01 3.53699E-23
2.06107E-01 3.42204E-23
2.09649E-01 3.31179E-23
2.13212E-01 3.20600E-23
2.16797E-01 3.10445E-23
2.20404E-01 3.00693E-23
2.24032E-01 2.91324E-23
2.27680E-01 2.82321E-23
2.31350E-01 2.73665E-23
2.35040E-01 2.65341E-23
2.38751E-01 2.57332E-23
2.42481E-01 2.49624E-23
2.46231E-01 2.42203E-23
2.50000E-01 2.35056E-23
2.53788E-01 2.28171E-23
2.57595E-01 2.21535E-23
2.61421E-01 2.15139E-23
2.65264E-01 2.08971E-23
2.69126E-01 2.03021E-23
2.73005E-01 1.97279E-23
2.76901E-01 1.91738E-23
2.80814E-01 1.86387E-23
2.84744E-01 1.81220E-23
2.88691E-01 1.76229E-23
2.92653E-01 1.71406E-23
2.96632E-01 1.66744E-23
3.00625E-01 1.62237E-23
3.04634E-01 1.57878E-23
3.08658E-01 1.53661E-23
3.12697E-01 1.49582E-23
3.16749E-01 1.45633E-23
3.20816E-01 1.41811E-23
3.24896E-01 1.38110E-23
3.28990E-01 1.34525E-23
3.33097E-01 1.31053E-23
3.37216E-01 1.27688E-23
3.41348E-01 1.24427E-23
3.45492E-01 1.21265E-23
3.49647E-01 1.18200E-23
3.53814E-01 1.15227E-23
3.57992E-01 1.12343E-23
3.62181E-01 1.09544E-23
3.66381E-01 1.06829E-23
3.70590E-01 1.04193E-23
3.74810E-01 1.01634E-23
3.79039E-01 9.91493E-24
3.83277E-01 9.67359E-24
3.87524E-01 9.43915E-24
3.91780E-01 9.21138E-24
3.96044E-01 8.99003E-24
4.00316E-01 8.77488E-24
4.04596E-01 8.56573E-24
4.08882E-01 8.36237E-24
4.13176E-01 8.16461E-24
4.17476E-01 7.97226E-24
4.21783E-01 7.78513E-24
4.26095E-01 7.60307E-24
4.30413E-01 7.42589E-24
4.34737E-01 7.25345E-24
4.39065E-01 7.08558E-24
4.43398E-01 6.92215E-24
4.47736E-01 6.76300E-24
4.52077E-01 6.60800E-24
4.56422E-01 6.45702E-24
4.60770E-01 6.30994E-24
4.65122E-01 6.16664E-24
4.69476E-01 6.02699E-24
4.73832E-01 5.89088E-24
4.78190E-01 5.75820E-24
4.82550E-01 5.62886E-24
4.86912E-01 5.50274E-24
4.91274E-01 5.37976E-24
4.95637E-01 5.25982E-24
5.00000E-01 5.14282E-24
5.04363E-01 5.02868E-24
5.08726E-01 4.91732E-24
5.13088E-01 4.80865E-24
5.17450E-01 4.70260E-24
5.21810E-01 4.59910E-24
5.26168E-01 4.49806E-24
5.30524E-01 4.39941E-24
5.34878E-01 4.30310E-24
5.39230E-01 4.20905E-24
5.43578E-01 4.11720E-24
5.47923E-01 4.02748E-24
5.52264E-01 3.93985E-24
5.56602E-01 3.85424E-24
5.60935E-01 3.77059E-24
5.65263E-01 3.68886E-24
5.69587E-01 3.60898E-24
5.73905E-01 3.53092E-24
5.78217E-01 3.45461E-24
5.82524E-01 3.38002E-24
5.86824E-01 3.30710E-24
5.91118E-01 3.23580E-24
5.95404E-01 3.16608E-24
5.99684E-01 3.09790E-24
6.03956E-01 3.03123E-24
6.08220E-01 2.96601E-24
6.12476E-01 2.90221E-24
6.16723E-01 2.83981E-24
6.20961E-01 2.77875E-24
6.25190E-01 2.71901E-24
6.29410E-01 2.66055E-24
6.33619E-01 2.60335E-24
6.37819E-01 2.54736E-24
6.42008E-01 2.49257E-24
6.46186E-01 2.43893E-24
6.50353E-01 2.38643E-24
6.54508E-01 2.33503E-24
6.58652E-01 2.28470E-24
6.62784E-01 2.23543E-24
6.66903E-01 2.18719E-24
6.71010E-01 2.13994E-24
6.75104E-01 2.09367E-24
6.79184E-01 2.04836E-24
6.83251E-01 2.00397E-24
6.87303E-01 1.96050E-24
6.91342E-01 1.91791E-24
6.95366E-01 1.87620E-24
6.99375E-01 1.83532E-24
7.03368E-01 1.79528E-24
7.07347E-01 1.75605E-24
7.11309E-01 1.71760E-24
7.15256E-01 1.67993E-24
7.19186E-01 1.64301E-24
7.23099E-01 1.60683E-24
7.26995E-01 1.57138E-24
7.30874E-01 1.53662E-24
7.34736E-01 1.50256E-24
7.38579E-01 1.46917E-24
7.42405E-01 1.43644E-24
7.46212E-01 1.40436E-24
7.50000E-01 1.37291E-24
7.53769E-01 1.34208E-24
7.57519E-01 1.31185E-24
7.61249E-01 1.28221E-24
7.64960E-01 1.25315E-24
7.68650E-01 1.22466E-24
7.72320E-01 1.19672E-24
7.75968E-01 1.16933E-24
7.79596E-01 1.14247E-24
7.83203E-01 1.11613E-24
7.86788E-01 1.09030E-24
7.90351E-01 1.06497E-24
7.93893E-01 1.04013E-24
7.97411E-01 1.01577E-24
8.00908E-01 9.91878E-25
8.04381E-01 9.68448E-25
8.07831E-01 9.45470E-25
8.11257E-01 9.22935E-25
8.14660E-01 9.00834E-25
8.18039E-01 8.79158E-25
8.21394E-01 8.57899E-25
8.24724E-01 8.37050E-25
8.28030E-01 8.16601E-25
8.31310E-01 7.96547E-25
8.34565E-01 7.76878E-25
8.37795E-01 7.57588E-25
8.40999E-01 7.38670E-25
8.44177E-01 7.20117E-25
8.47329E-01 7.01922E-25
8.50455E-01 6.84078E-25
8.53553E-01 6.66580E-25
8.56625E-01 6.49420E-25
8.59670E-01 6.32593E-25
8.62687E-01 6.16092E-25
8.65677E-01 5.99913E-25
8.68639E-01 5.84048E-25
8.71572E-01 5.68494E-25
8.74478E-01 5.53244E-25
8.77355E-01 5.38292E-25
8.80203E-01 5.23635E-25
8.83022E-01 5.09267E-25
8.85812E-01 4.95183E-25
8.88573E-01 4.81378E-25
8.91304E-01 4.67848E-25
8.94005E-01 4.54588E-25
8.96677E-01 4.41593E-25
8.99318E-01 4.28860E-25
9.01928E-01 4.16384E-25
9.04508E-01 4.04162E-25
9.07058E-01 3.92188E-25
9.09576E-01 3.80460E-25
9.12063E-01 3.68973E-25
9.14519E-01 3.57723E-25
9.16943E-01 3.46708E-25
9.19335E-01 3.35923E-25
9.21696E-01 3.25366E-25
9.24024E-01 3.15032E-25
9.26320E-01 3.04919E-25
9.28584E-01 2.95023E-25
9.30815E-01 2.85341E-25
9.33013E-01 2.75870E-25
9.35178E-01 2.66608E-25
9.37310E-01 2.57551E-25
9.39409E-01 2.48697E-25
9.41474E-01 2.40042E-25
9.43505E-01 2.31585E-25
9.45503E-01 2.23322E-25
9.47467E-01 2.15251E-25
9.49397E-01 2.07370E-25
9.51293E-01 1.99676E-25
9.53154E-01 1.92167E-25
9.54981E-01 1.84841E-25
9.56773E-01 1.77696E-25
9.58530E-01 1.70728E-25
9.60252E-01 1.63937E-25
9.61940E-01 1.57321E-25
9.63592E-01 1.50876E-25
9.65209E-01 1.44602E-25
9.66790E-01 1.38497E-25
9.68336E-01 1.32558E-25
9.69846E-01 1.26784E-25
9.71321E-01 1.21174E-25
9.72759E-01 1.15725E-25
9.74162E-01 1.10437E-25
9.75528E-01 1.05307E-25
9.76858E-01 1.00334E-25
9.78152E-01 9.55170E-26
9.79410E-01 9.08543E-26
9.80631E-01 8.63444E-26
9.81815E-01 8.19863E-26
9.82963E-01 7.77785E-26
9.84074E-01 7.37200E-26
9.85148E-01 6.98096E-26
9.86185E-01 6.60461E-26
9.87185E-01 6.24285E-26
9.88148E-01 5.89557E-26
9.89074E-01 5.56268E-26
9.89962E-01 5.24409E-26
9.90814E-01 4.93970E-26
9.91627E-01 4.64943E-26
9.92404E-01 4.37320E-26
9.93143E-01 4.11092E-26
9.93844E-01 3.86253E-26
9.94508E-01 3.62796E-26
9.95134E-01 3.40714E-26
9.95722E-01 3.20001E-26
9.96273E-01 3.00651E-26
9.96786E-01 2.82658E-26
9.97261E-01 2.66019E-26
9.97698E-01 2.50727E-26
9.98097E-01 2.36780E-26
9.98459E-01 2.24172E-26
9.98782E-01 2.12901E-26
9.99067E-01 2.02963E-26
9.99315E-01 1.94356E-26
9.99524E-01 1.87077E-26
9.99695E-01 1.81124E-26
9.99829E-01 1.76496E-26
9.99924E-01 1.73191E-26
9.99981E-01 1.71208E-26
1.00000E+00 1.70548E-26
