 #
 # Subroutine ELSEPA. Elastic scattering of electrons and positrons
 #                    by neutral atoms and positive ions
 #
 # Projectile: electron
 # Kinetic energy = 3.00000E+08 eV = 1.10248E+07 a.u.
 #
 # WARNING: High-energy factorization with free-atom DF screening.
 #          Absorption, polarization and exchange corrections are
 #          switched off.
 #          Phase shifts are calculated for the bare nucleus.
 #          Scattering amplitudes are not evaluated.
 #
 # Element: Ho,  Z =  67,  atomic weight = 1.64930E+02 g/mol
 #
 # Nuclear model: Fermi distribution
 #                Average radius = 5.86792E-13 cm
 #                Skin thickness = 5.46000E-14 cm
 #
 # Number of electrons = 67
 #
 # Total elastic cross section = 7.08609E-18 cm**2 = 2.53049E-01 a0**2
 # 1st transport cross section = 9.55110E-26 cm**2 = 3.41076E-09 a0**2
 # 2nd transport cross section = 2.86238E-25 cm**2 = 1.02218E-08 a0**2
 #
 #
 # Differential cross section:                       MU=(1-COS(THETA))/2
 #
 #  THETA        MU          DCS          DCS        Sherman      error
 #  (deg)                 (cm**2/sr)   (a0**2/sr)    function
 #----------------------------------------------------------------------
0.00000E+00 6.79415E-09
7.61557E-13 6.52186E-09
1.18994E-12 6.37675E-09
1.71346E-12 6.20671E-09
2.33225E-12 6.01550E-09
3.04617E-12 5.80791E-09
3.85530E-12 5.58589E-09
4.75964E-12 5.35608E-09
5.75917E-12 5.11905E-09
6.85391E-12 4.88205E-09
8.04379E-12 4.64426E-09
9.32893E-12 4.41131E-09
1.07092E-11 4.18318E-09
1.21847E-11 3.96276E-09
1.37554E-11 3.75115E-09
1.54213E-11 3.54847E-09
1.71823E-11 3.35709E-09
1.90386E-11 3.17464E-09
2.09900E-11 3.00467E-09
2.30367E-11 2.84334E-09
2.51785E-11 2.69385E-09
2.74156E-11 2.55295E-09
2.97478E-11 2.42216E-09
3.21752E-11 2.29980E-09
3.46979E-11 2.18586E-09
3.73157E-11 2.07979E-09
4.00286E-11 1.98068E-09
4.28368E-11 1.88864E-09
4.57402E-11 1.80235E-09
4.87388E-11 1.72223E-09
5.18325E-11 1.64699E-09
5.50215E-11 1.57679E-09
5.83057E-11 1.51087E-09
6.16850E-11 1.44908E-09
6.51595E-11 1.39096E-09
6.87293E-11 1.33628E-09
7.23943E-11 1.28469E-09
7.61544E-11 1.23606E-09
1.18991E-10 8.65885E-10
1.71347E-10 6.28144E-10
2.33223E-10 4.64572E-10
3.04617E-10 3.44175E-10
3.85531E-10 2.64860E-10
4.75965E-10 2.03592E-10
5.75917E-10 1.61006E-10
6.85389E-10 1.27268E-10
8.04380E-10 1.02810E-10
9.32891E-10 8.34474E-11
1.07092E-09 6.86323E-11
1.21847E-09 5.68285E-11
1.37554E-09 4.74093E-11
1.54213E-09 3.98604E-11
1.71823E-09 3.36425E-11
1.90386E-09 2.86360E-11
2.09900E-09 2.44171E-11
2.30367E-09 2.09896E-11
2.51785E-09 1.80806E-11
2.74156E-09 1.56780E-11
2.97478E-09 1.36405E-11
3.21752E-09 1.19283E-11
3.46978E-09 1.04735E-11
3.73156E-09 9.23393E-12
4.00286E-09 8.17628E-12
4.28368E-09 7.26459E-12
4.57402E-09 6.48225E-12
4.87388E-09 5.80091E-12
5.18326E-09 5.21162E-12
5.50215E-09 4.69519E-12
5.83057E-09 4.24445E-12
6.16850E-09 3.84802E-12
6.51596E-09 3.49740E-12
6.87293E-09 3.18594E-12
7.23942E-09 2.90907E-12
7.61544E-09 2.66291E-12
1.18991E-08 1.21619E-12
1.71347E-08 6.31133E-13
2.33223E-08 3.58130E-13
3.04617E-08 2.17558E-13
3.85531E-08 1.39618E-13
4.75965E-08 9.37139E-14
5.75917E-08 6.52550E-14
6.85389E-08 4.68237E-14
8.04380E-08 3.44794E-14
9.32891E-08 2.59506E-14
1.07092E-07 1.99027E-14
1.21847E-07 1.55204E-14
1.37554E-07 1.22786E-14
1.54213E-07 9.84022E-15
1.71823E-07 7.97799E-15
1.90386E-07 6.53477E-15
2.09900E-07 5.40343E-15
2.30367E-07 4.50626E-15
2.51785E-07 3.78735E-15
2.74156E-07 3.20614E-15
2.97478E-07 2.73203E-15
3.21752E-07 2.34228E-15
3.46978E-07 2.01959E-15
3.73156E-07 1.75049E-15
4.00286E-07 1.52474E-15
4.28368E-07 1.33422E-15
4.57402E-07 1.17252E-15
4.87388E-07 1.03459E-15
5.18325E-07 9.16356E-16
5.50215E-07 8.14535E-16
5.83057E-07 7.26479E-16
6.16850E-07 6.50002E-16
6.51596E-07 5.83333E-16
6.87293E-07 5.25002E-16
7.23942E-07 4.73782E-16
7.61543E-07 4.28664E-16
1.18991E-06 1.77271E-16
1.71347E-06 8.60591E-17
2.33223E-06 4.66747E-17
3.04617E-06 2.74560E-17
3.85531E-06 1.71860E-17
4.75964E-06 1.12988E-17
5.75916E-06 7.72963E-18
6.85388E-06 5.46470E-18
8.04378E-06 3.97173E-18
9.32888E-06 2.95547E-18
1.07092E-05 2.24441E-18
1.21846E-05 1.73489E-18
1.37553E-05 1.36209E-18
1.54212E-05 1.08426E-18
1.71822E-05 8.73796E-19
1.90385E-05 7.11665E-19
2.09899E-05 5.86041E-19
2.30365E-05 4.86887E-19
2.51783E-05 4.07749E-19
2.74153E-05 3.43979E-19
2.97475E-05 2.92167E-19
3.21749E-05 2.49751E-19
3.46974E-05 2.14781E-19
3.73152E-05 1.85747E-19
4.00281E-05 1.61477E-19
4.28362E-05 1.41055E-19
4.57395E-05 1.23761E-19
4.87380E-05 1.09034E-19
5.18317E-05 9.64281E-20
5.50205E-05 8.55882E-20
5.83045E-05 7.62283E-20
6.16838E-05 6.81147E-20
6.51582E-05 6.10551E-20
6.87277E-05 5.48894E-20
7.23925E-05 4.94847E-20
7.61524E-05 4.50021E-20
9.21439E-05 3.07936E-20
1.09658E-04 2.17802E-20
1.28695E-04 1.58414E-20
1.49255E-04 1.17971E-20
1.71338E-04 8.96687E-21
1.94942E-04 6.93747E-21
2.20070E-04 5.45166E-21
2.46720E-04 4.34356E-21
2.74892E-04 3.50340E-21
3.04586E-04 2.85690E-21
3.35803E-04 2.35285E-21
3.68542E-04 1.95519E-21
4.02802E-04 1.63804E-21
4.38585E-04 1.38258E-21
4.75889E-04 1.17494E-21
5.14715E-04 1.00477E-21
5.55063E-04 8.64222E-22
5.96931E-04 7.47321E-22
6.40321E-04 6.49445E-22
6.85233E-04 5.66996E-22
7.31665E-04 4.97144E-22
7.79618E-04 4.37650E-22
8.29092E-04 3.86724E-22
8.80086E-04 3.42927E-22
9.32601E-04 3.05097E-22
9.86636E-04 2.72284E-22
1.04219E-03 2.43712E-22
1.09927E-03 2.18742E-22
1.15786E-03 1.96842E-22
1.21797E-03 1.77572E-22
1.27961E-03 1.60564E-22
1.34276E-03 1.45506E-22
1.40743E-03 1.32138E-22
1.47362E-03 1.20238E-22
1.54133E-03 1.09618E-22
1.61056E-03 1.00117E-22
1.68131E-03 9.15969E-23
1.75357E-03 8.39399E-23
1.82735E-03 7.70438E-23
1.90265E-03 7.08204E-23
1.97947E-03 6.51930E-23
2.05780E-03 6.00951E-23
2.13765E-03 5.54686E-23
2.21902E-03 5.12627E-23
2.30190E-03 4.74329E-23
2.38630E-03 4.39399E-23
2.47222E-03 4.07493E-23
2.55965E-03 3.78307E-23
2.64859E-03 3.51571E-23
2.73905E-03 3.27045E-23
2.83103E-03 3.04519E-23
2.92452E-03 2.83802E-23
3.01952E-03 2.64726E-23
3.11604E-03 2.47140E-23
3.21407E-03 2.30911E-23
3.31362E-03 2.15916E-23
3.41468E-03 2.02047E-23
3.51725E-03 1.89206E-23
3.62133E-03 1.77306E-23
3.72692E-03 1.66267E-23
3.83403E-03 1.56017E-23
3.94265E-03 1.46491E-23
4.05278E-03 1.37631E-23
4.16442E-03 1.29382E-23
4.27757E-03 1.21697E-23
4.39223E-03 1.14532E-23
4.50840E-03 1.07846E-23
4.62608E-03 1.01602E-23
4.74527E-03 9.57668E-24
4.86597E-03 9.03104E-24
4.98817E-03 8.52044E-24
5.11188E-03 8.04232E-24
5.23711E-03 7.59433E-24
5.36383E-03 7.17430E-24
5.49207E-03 6.78027E-24
5.62181E-03 6.41040E-24
5.75306E-03 6.06302E-24
5.88581E-03 5.73658E-24
6.02007E-03 5.42966E-24
6.15583E-03 5.14093E-24
6.29310E-03 4.86918E-24
6.43187E-03 4.61329E-24
6.57214E-03 4.37223E-24
6.71392E-03 4.14501E-24
6.85720E-03 3.93076E-24
7.00198E-03 3.72864E-24
7.14827E-03 3.53790E-24
7.29605E-03 3.35780E-24
7.44534E-03 3.18769E-24
7.59612E-03 3.02696E-24
7.97965E-03 2.66246E-24
8.37255E-03 2.34511E-24
8.77480E-03 2.06823E-24
9.18641E-03 1.82618E-24
9.60736E-03 1.61419E-24
1.00376E-02 1.42821E-24
1.04773E-02 1.26480E-24
1.09262E-02 1.12100E-24
1.13844E-02 9.94278E-25
1.18520E-02 8.82475E-25
1.23288E-02 7.83713E-25
1.28150E-02 6.96377E-25
1.33104E-02 6.19069E-25
1.38150E-02 5.50572E-25
1.43290E-02 4.89833E-25
1.48521E-02 4.35930E-25
1.53845E-02 3.88061E-25
1.59262E-02 3.45523E-25
1.64770E-02 3.07702E-25
1.70371E-02 2.74056E-25
1.76063E-02 2.44113E-25
1.81848E-02 2.17453E-25
1.87724E-02 1.93710E-25
1.93692E-02 1.72557E-25
1.99751E-02 1.53709E-25
2.05901E-02 1.36910E-25
2.12143E-02 1.21937E-25
2.18476E-02 1.08589E-25
2.24900E-02 9.66903E-26
2.31415E-02 8.60828E-26
2.38021E-02 7.66270E-26
2.44717E-02 6.81986E-26
2.51504E-02 6.06870E-26
2.58382E-02 5.39936E-26
2.65349E-02 4.80304E-26
2.72407E-02 4.27190E-26
2.79555E-02 3.79895E-26
2.86793E-02 3.37793E-26
2.94120E-02 3.00328E-26
3.01537E-02 2.67000E-26
3.09043E-02 2.37364E-26
3.16639E-02 2.11023E-26
3.24324E-02 1.87619E-26
3.32098E-02 1.66835E-26
3.39961E-02 1.48386E-26
3.47912E-02 1.32018E-26
3.55952E-02 1.17503E-26
3.64081E-02 1.04637E-26
3.72297E-02 9.32393E-27
3.80602E-02 8.31464E-27
3.88995E-02 7.42133E-27
3.97476E-02 6.63102E-27
4.06044E-02 5.93210E-27
4.14700E-02 5.31425E-27
4.23443E-02 4.76821E-27
4.32273E-02 4.28576E-27
4.41190E-02 3.85956E-27
4.50194E-02 3.48307E-27
4.59284E-02 3.15047E-27
4.68461E-02 2.85658E-27
4.87074E-02 2.36706E-27
5.06030E-02 1.98358E-27
5.25328E-02 1.68184E-27
5.44967E-02 1.44285E-27
5.64946E-02 1.25183E-27
5.85262E-02 1.09735E-27
6.05914E-02 9.70641E-28
6.26901E-02 8.65012E-28
6.48222E-02 7.75406E-28
6.69873E-02 6.98034E-28
6.91854E-02 6.30089E-28
7.14163E-02 5.69517E-28
7.36799E-02 5.14828E-28
7.59760E-02 4.64961E-28
7.83043E-02 4.19168E-28
8.06647E-02 3.76928E-28
8.30571E-02 3.37880E-28
8.54812E-02 3.01775E-28
8.79369E-02 2.68433E-28
9.04240E-02 2.37722E-28
9.29422E-02 2.09534E-28
9.54915E-02 1.83773E-28
9.80716E-02 1.60344E-28
1.00682E-01 1.39149E-28
1.03323E-01 1.20086E-28
1.05995E-01 1.03043E-28
1.08696E-01 8.79034E-29
1.11427E-01 7.45427E-29
1.14188E-01 6.28331E-29
1.16978E-01 5.26440E-29
1.19797E-01 4.38441E-29
1.22645E-01 3.63034E-29
1.25522E-01 2.98948E-29
1.28428E-01 2.44956E-29
1.31361E-01 1.99887E-29
1.34323E-01 1.62636E-29
1.37313E-01 1.32173E-29
1.40330E-01 1.07545E-29
1.43375E-01 8.78843E-30
1.46447E-01 7.24033E-30
1.49545E-01 6.03976E-30
1.52671E-01 5.12430E-30
1.55823E-01 4.43921E-30
1.59001E-01 3.93701E-30
1.62205E-01 3.57701E-30
1.65435E-01 3.32478E-30
1.68690E-01 3.15157E-30
1.71970E-01 3.03377E-30
1.75276E-01 2.95231E-30
1.78606E-01 2.89216E-30
1.81961E-01 2.84173E-30
1.85340E-01 2.79242E-30
1.88743E-01 2.73816E-30
1.92169E-01 2.67494E-30
1.95619E-01 2.60047E-30
1.99092E-01 2.51379E-30
2.02589E-01 2.41502E-30
2.06107E-01 2.30504E-30
2.09649E-01 2.18530E-30
2.13212E-01 2.05761E-30
2.16797E-01 1.92400E-30
2.20404E-01 1.78655E-30
2.24032E-01 1.64736E-30
2.27680E-01 1.50838E-30
2.31350E-01 1.37142E-30
2.35040E-01 1.23810E-30
2.38751E-01 1.10980E-30
2.42481E-01 9.87675E-31
2.46231E-01 8.72627E-31
2.50000E-01 7.65340E-31
2.53788E-01 6.66272E-31
2.57595E-01 5.75682E-31
2.61421E-01 4.93647E-31
2.65264E-01 4.20087E-31
2.69126E-01 3.54784E-31
2.73005E-01 2.97409E-31
2.76901E-01 2.47542E-31
2.80814E-01 2.04696E-31
2.84744E-01 1.68334E-31
2.88691E-01 1.37888E-31
2.92653E-01 1.12775E-31
2.96632E-01 9.24121E-32
3.00625E-01 7.62245E-32
3.04634E-01 6.36587E-32
3.08658E-01 5.41889E-32
3.12697E-01 4.73230E-32
3.16749E-01 4.26070E-32
3.20816E-01 3.96274E-32
3.24896E-01 3.80133E-32
3.28990E-01 3.74362E-32
3.33097E-01 3.76096E-32
3.37216E-01 3.82877E-32
3.41348E-01 3.92633E-32
3.45492E-01 4.03654E-32
3.49647E-01 4.14560E-32
3.53814E-01 4.24277E-32
3.57992E-01 4.31998E-32
3.62181E-01 4.37156E-32
3.66381E-01 4.39392E-32
3.70590E-01 4.38520E-32
3.74810E-01 4.34504E-32
3.79039E-01 4.27425E-32
3.83277E-01 4.17461E-32
3.87524E-01 4.04861E-32
3.91780E-01 3.89926E-32
3.96044E-01 3.72990E-32
4.00316E-01 3.54408E-32
4.04596E-01 3.34538E-32
4.08882E-01 3.13733E-32
4.13176E-01 2.92335E-32
4.17476E-01 2.70661E-32
4.21783E-01 2.49005E-32
4.26095E-01 2.27630E-32
4.30413E-01 2.06767E-32
4.34737E-01 1.86616E-32
4.39065E-01 1.67341E-32
4.43398E-01 1.49076E-32
4.47736E-01 1.31922E-32
4.52077E-01 1.15955E-32
4.56422E-01 1.01219E-32
4.60770E-01 8.77368E-33
4.65122E-01 7.55094E-33
4.69476E-01 6.45185E-33
4.73832E-01 5.47298E-33
4.78190E-01 4.60957E-33
4.82550E-01 3.85578E-33
4.86912E-01 3.20495E-33
4.91274E-01 2.64978E-33
4.95637E-01 2.18261E-33
5.00000E-01 1.79553E-33
5.04363E-01 1.48056E-33
5.08726E-01 1.22983E-33
5.13088E-01 1.03565E-33
5.17450E-01 8.90635E-34
5.21810E-01 7.87768E-34
5.26168E-01 7.20471E-34
5.30524E-01 6.82644E-34
5.34878E-01 6.68697E-34
5.39230E-01 6.73562E-34
5.43578E-01 6.92702E-34
5.47923E-01 7.22103E-34
5.52264E-01 7.58261E-34
5.56602E-01 7.98160E-34
5.60935E-01 8.39250E-34
5.65263E-01 8.79416E-34
5.69587E-01 9.16942E-34
5.73905E-01 9.50480E-34
5.78217E-01 9.79015E-34
5.82524E-01 1.00182E-33
5.86824E-01 1.01845E-33
5.91118E-01 1.02865E-33
5.95404E-01 1.03239E-33
5.99684E-01 1.02978E-33
6.03956E-01 1.02108E-33
6.08220E-01 1.00665E-33
6.12476E-01 9.86928E-34
6.16723E-01 9.62414E-34
6.20961E-01 9.33649E-34
6.25190E-01 9.01199E-34
6.29410E-01 8.65635E-34
6.33619E-01 8.27528E-34
6.37819E-01 7.87433E-34
6.42008E-01 7.45880E-34
6.46186E-01 7.03373E-34
6.50353E-01 6.60378E-34
6.54508E-01 6.17324E-34
6.58652E-01 5.74599E-34
6.62784E-01 5.32547E-34
6.66903E-01 4.91471E-34
6.71010E-01 4.51631E-34
6.75104E-01 4.13246E-34
6.79184E-01 3.76494E-34
6.83251E-01 3.41518E-34
6.87303E-01 3.08425E-34
6.91342E-01 2.77290E-34
6.95366E-01 2.48157E-34
6.99375E-01 2.21046E-34
7.03368E-01 1.95951E-34
7.07347E-01 1.72849E-34
7.11309E-01 1.51695E-34
7.15256E-01 1.32431E-34
7.19186E-01 1.14987E-34
7.23099E-01 9.92829E-35
7.26995E-01 8.52290E-35
7.30874E-01 7.27315E-35
7.34736E-01 6.16920E-35
7.38579E-01 5.20098E-35
7.42405E-01 4.35837E-35
7.46212E-01 3.63127E-35
7.50000E-01 3.00973E-35
7.53769E-01 2.48408E-35
7.57519E-01 2.04496E-35
7.61249E-01 1.68339E-35
7.64960E-01 1.39085E-35
7.68650E-01 1.15928E-35
7.72320E-01 9.81152E-36
7.75968E-01 8.49422E-36
7.79596E-01 7.57600E-36
7.83203E-01 6.99699E-36
7.86788E-01 6.70277E-36
7.90351E-01 6.64376E-36
7.93893E-01 6.77549E-36
7.97411E-01 7.05807E-36
8.00908E-01 7.45614E-36
8.04381E-01 7.93858E-36
8.07831E-01 8.47823E-36
8.11257E-01 9.05162E-36
8.14660E-01 9.63866E-36
8.18039E-01 1.02225E-35
8.21394E-01 1.07889E-35
8.24724E-01 1.13265E-35
8.28030E-01 1.18262E-35
8.31310E-01 1.22808E-35
8.34565E-01 1.26851E-35
8.37795E-01 1.30354E-35
8.40999E-01 1.33296E-35
8.44177E-01 1.35667E-35
8.47329E-01 1.37466E-35
8.50455E-01 1.38703E-35
8.53553E-01 1.39394E-35
8.56625E-01 1.39561E-35
8.59670E-01 1.39230E-35
8.62687E-01 1.38433E-35
8.65677E-01 1.37201E-35
8.68639E-01 1.35569E-35
8.71572E-01 1.33573E-35
8.74478E-01 1.31248E-35
8.77355E-01 1.28632E-35
8.80203E-01 1.25758E-35
8.83022E-01 1.22661E-35
8.85812E-01 1.19375E-35
8.88573E-01 1.15931E-35
8.91304E-01 1.12358E-35
8.94005E-01 1.08685E-35
8.96677E-01 1.04938E-35
8.99318E-01 1.01141E-35
9.01928E-01 9.73169E-36
9.04508E-01 9.34852E-36
9.07058E-01 8.96647E-36
9.09576E-01 8.58720E-36
9.12063E-01 8.21217E-36
9.14519E-01 7.84266E-36
9.16943E-01 7.47981E-36
9.19335E-01 7.12461E-36
9.21696E-01 6.77790E-36
9.24024E-01 6.44033E-36
9.26320E-01 6.11255E-36
9.28584E-01 5.79497E-36
9.30815E-01 5.48791E-36
9.33013E-01 5.19165E-36
9.35178E-01 4.90639E-36
9.37310E-01 4.63219E-36
9.39409E-01 4.36905E-36
9.41474E-01 4.11695E-36
9.43505E-01 3.87578E-36
9.45503E-01 3.64541E-36
9.47467E-01 3.42567E-36
9.49397E-01 3.21632E-36
9.51293E-01 3.01712E-36
9.53154E-01 2.82778E-36
9.54981E-01 2.64808E-36
9.56773E-01 2.47761E-36
9.58530E-01 2.31613E-36
9.60252E-01 2.16329E-36
9.61940E-01 2.01876E-36
9.63592E-01 1.88221E-36
9.65209E-01 1.75330E-36
9.66790E-01 1.63171E-36
9.68336E-01 1.51712E-36
9.69846E-01 1.40921E-36
9.71321E-01 1.30765E-36
9.72759E-01 1.21213E-36
9.74162E-01 1.12237E-36
9.75528E-01 1.03807E-36
9.76858E-01 9.58954E-37
9.78152E-01 8.84750E-37
9.79410E-01 8.15184E-37
9.80631E-01 7.50035E-37
9.81815E-01 6.89029E-37
9.82963E-01 6.31966E-37
9.84074E-01 5.78615E-37
9.85148E-01 5.28768E-37
9.86185E-01 4.82244E-37
9.87185E-01 4.38827E-37
9.88148E-01 3.98374E-37
9.89074E-01 3.60695E-37
9.89962E-01 3.25651E-37
9.90814E-01 2.93067E-37
9.91627E-01 2.62826E-37
9.92404E-01 2.34790E-37
9.93143E-01 2.08835E-37
9.93844E-01 1.84837E-37
9.94508E-01 1.62704E-37
9.95134E-01 1.42331E-37
9.95722E-01 1.23622E-37
9.96273E-01 1.06502E-37
9.96786E-01 9.08887E-38
9.97261E-01 7.67039E-38
9.97698E-01 6.38886E-38
9.98097E-01 5.23774E-38
9.98459E-01 4.21264E-38
9.98782E-01 3.30757E-38
9.99067E-01 2.51875E-38
9.99315E-01 1.84303E-38
9.99524E-01 1.27607E-38
9.99695E-01 8.15892E-39
9.99829E-01 4.60495E-39
9.99924E-01 2.07681E-39
9.99981E-01 5.66671E-40
1.00000E+00 6.69238E-41
