 #
 # Subroutine ELSEPA. Elastic scattering of electrons and positrons
 #                    by neutral atoms and positive ions
 #
 # Projectile: electron
 # Kinetic energy = 9.00000E+07 eV = 3.30744E+06 a.u.
 #
 # WARNING: High-energy factorization with free-atom DF screening.
 #          Absorption, polarization and exchange corrections are
 #          switched off.
 #          Phase shifts are calculated for the bare nucleus.
 #          Scattering amplitudes are not evaluated.
 #
 # Element: Ho,  Z =  67,  atomic weight = 1.64930E+02 g/mol
 #
 # Nuclear model: Fermi distribution
 #                Average radius = 5.86792E-13 cm
 #                Skin thickness = 5.46000E-14 cm
 #
 # Number of electrons = 67
 #
 # Total elastic cross section = 7.08685E-18 cm**2 = 2.53076E-01 a0**2
 # 1st transport cross section = 1.06039E-24 cm**2 = 3.78671E-08 a0**2
 # 2nd transport cross section = 3.15139E-24 cm**2 = 1.12538E-07 a0**2
 #
 #
 # Differential cross section:                       MU=(1-COS(THETA))/2
 #
 #  THETA        MU          DCS          DCS        Sherman      error
 #  (deg)                 (cm**2/sr)   (a0**2/sr)    function
 #----------------------------------------------------------------------
0.00000E+00 6.16335E-10
7.61557E-13 6.14019E-10
1.18994E-12 6.12725E-10
1.71346E-12 6.11149E-10
2.33225E-12 6.09296E-10
3.04617E-12 6.07171E-10
3.85530E-12 6.04777E-10
4.75964E-12 6.02120E-10
5.75917E-12 5.99206E-10
6.85391E-12 5.96042E-10
8.04379E-12 5.92636E-10
9.32893E-12 5.88993E-10
1.07092E-11 5.85123E-10
1.21847E-11 5.81033E-10
1.37554E-11 5.76732E-10
1.54213E-11 5.72230E-10
1.71823E-11 5.67535E-10
1.90386E-11 5.62656E-10
2.09900E-11 5.57605E-10
2.30367E-11 5.52389E-10
2.51785E-11 5.47020E-10
2.74156E-11 5.41507E-10
2.97478E-11 5.35892E-10
3.21752E-11 5.30151E-10
3.46979E-11 5.24282E-10
3.73157E-11 5.18293E-10
4.00286E-11 5.12193E-10
4.28368E-11 5.05991E-10
4.57402E-11 4.99775E-10
4.87388E-11 4.93511E-10
5.18325E-11 4.87172E-10
5.50215E-11 4.80765E-10
5.83057E-11 4.74299E-10
6.16850E-11 4.67781E-10
6.51595E-11 4.61307E-10
6.87293E-11 4.54850E-10
7.23943E-11 4.48363E-10
7.61544E-11 4.41854E-10
1.18991E-10 3.78285E-10
1.71347E-10 3.20620E-10
2.33223E-10 2.71328E-10
3.04617E-10 2.30441E-10
3.85531E-10 1.97226E-10
4.75965E-10 1.70378E-10
5.75917E-10 1.48556E-10
6.85389E-10 1.30686E-10
8.04380E-10 1.15846E-10
9.32891E-10 1.03364E-10
1.07092E-09 9.27058E-11
1.21847E-09 8.35023E-11
1.37554E-09 7.54852E-11
1.54213E-09 6.84073E-11
1.71823E-09 6.21430E-11
1.90386E-09 5.65720E-11
2.09900E-09 5.15685E-11
2.30367E-09 4.70885E-11
2.51785E-09 4.30622E-11
2.74156E-09 3.94239E-11
2.97478E-09 3.59168E-11
3.21752E-09 3.27923E-11
3.46978E-09 3.00809E-11
3.73156E-09 2.77168E-11
4.00286E-09 2.56461E-11
4.28368E-09 2.38243E-11
4.57402E-09 2.19875E-11
4.87388E-09 2.02713E-11
5.18326E-09 1.87546E-11
5.50215E-09 1.74091E-11
5.83057E-09 1.62114E-11
6.16850E-09 1.51415E-11
6.51596E-09 1.40949E-11
6.87293E-09 1.31079E-11
7.23942E-09 1.22225E-11
7.61544E-09 1.14257E-11
1.18991E-08 6.15413E-12
1.71347E-08 3.57371E-12
2.33223E-08 2.18691E-12
3.04617E-08 1.40329E-12
3.85531E-08 9.37447E-13
4.75965E-08 6.50091E-13
5.75917E-08 4.66346E-13
6.85389E-08 3.44384E-13
8.04380E-08 2.60321E-13
9.32891E-08 2.00931E-13
1.07092E-07 1.57806E-13
1.21847E-07 1.25743E-13
1.37554E-07 1.01428E-13
1.54213E-07 8.26503E-14
1.71823E-07 6.80045E-14
1.90386E-07 5.64542E-14
2.09900E-07 4.72338E-14
2.30367E-07 3.98126E-14
2.51785E-07 3.37824E-14
2.74156E-07 2.88410E-14
2.97478E-07 2.47529E-14
3.21752E-07 2.13777E-14
3.46978E-07 1.85638E-14
3.73156E-07 1.61874E-14
4.00286E-07 1.41910E-14
4.28368E-07 1.24826E-14
4.57402E-07 1.10291E-14
4.87388E-07 9.78111E-15
5.18325E-07 8.70372E-15
5.50215E-07 7.77434E-15
5.83057E-07 6.96182E-15
6.16850E-07 6.25548E-15
6.51596E-07 5.63572E-15
6.87293E-07 5.09110E-15
7.23942E-07 4.61167E-15
7.61543E-07 4.18621E-15
1.18991E-06 1.77940E-15
1.71347E-06 8.79786E-16
2.33223E-06 4.83124E-16
3.04617E-06 2.86679E-16
3.85531E-06 1.80594E-16
4.75964E-06 1.19318E-16
5.75916E-06 8.19577E-17
6.85388E-06 5.81418E-17
8.04378E-06 4.23841E-17
9.32888E-06 3.16231E-17
1.07092E-05 2.40723E-17
1.21846E-05 1.86476E-17
1.37553E-05 1.46690E-17
1.54212E-05 1.16976E-17
1.71822E-05 9.44214E-18
1.90385E-05 7.70140E-18
2.09899E-05 6.35036E-18
2.30365E-05 5.28231E-18
2.51783E-05 4.42861E-18
2.74153E-05 3.73976E-18
2.97475E-05 3.17935E-18
3.21749E-05 2.72008E-18
3.46974E-05 2.34100E-18
3.73152E-05 2.02598E-18
4.00281E-05 1.76241E-18
4.28362E-05 1.54042E-18
4.57395E-05 1.35231E-18
4.87380E-05 1.19199E-18
5.18317E-05 1.05467E-18
5.50205E-05 9.36513E-19
5.83045E-05 8.34429E-19
6.16838E-05 7.45890E-19
6.51582E-05 6.68813E-19
6.87277E-05 6.01465E-19
7.23925E-05 5.42402E-19
7.61524E-05 4.90737E-19
9.21439E-05 3.35836E-19
1.09658E-04 2.37521E-19
1.28695E-04 1.72728E-19
1.49255E-04 1.28602E-19
1.71338E-04 9.77272E-20
1.94942E-04 7.55934E-20
2.20070E-04 5.93935E-20
2.46720E-04 4.73158E-20
2.74892E-04 3.81620E-20
3.04586E-04 3.11224E-20
3.35803E-04 2.56364E-20
3.68542E-04 2.13100E-20
4.02802E-04 1.78608E-20
4.38585E-04 1.50836E-20
4.75889E-04 1.28271E-20
5.14715E-04 1.09782E-20
5.55063E-04 9.45160E-21
5.96931E-04 8.18209E-21
6.40321E-04 7.11938E-21
6.85233E-04 6.22423E-21
7.31665E-04 5.46589E-21
7.79618E-04 4.81997E-21
8.29092E-04 4.26703E-21
8.80086E-04 3.79142E-21
9.32601E-04 3.38050E-21
9.86636E-04 3.02397E-21
1.04219E-03 2.71340E-21
1.09927E-03 2.44185E-21
1.15786E-03 2.20356E-21
1.21797E-03 1.99376E-21
1.27961E-03 1.80844E-21
1.34276E-03 1.64425E-21
1.40743E-03 1.49835E-21
1.47362E-03 1.36834E-21
1.54133E-03 1.25220E-21
1.61056E-03 1.14817E-21
1.68131E-03 1.05477E-21
1.75357E-03 9.70713E-22
1.82735E-03 8.94902E-22
1.90265E-03 8.26381E-22
1.97947E-03 7.64321E-22
2.05780E-03 7.08004E-22
2.13765E-03 6.56800E-22
2.21902E-03 6.10163E-22
2.30190E-03 5.67609E-22
2.38630E-03 5.28716E-22
2.47222E-03 4.93111E-22
2.55965E-03 4.60466E-22
2.64859E-03 4.30488E-22
2.73905E-03 4.02921E-22
2.83103E-03 3.77533E-22
2.92452E-03 3.54122E-22
3.01952E-03 3.32506E-22
3.11604E-03 3.12514E-22
3.21407E-03 2.94007E-22
3.31362E-03 2.76854E-22
3.41468E-03 2.60938E-22
3.51725E-03 2.46152E-22
3.62133E-03 2.32402E-22
3.72692E-03 2.19601E-22
3.83403E-03 2.07671E-22
3.94265E-03 1.96542E-22
4.05278E-03 1.86150E-22
4.16442E-03 1.76438E-22
4.27757E-03 1.67351E-22
4.39223E-03 1.58843E-22
4.50840E-03 1.50869E-22
4.62608E-03 1.43390E-22
4.74527E-03 1.36369E-22
4.86597E-03 1.29773E-22
4.98817E-03 1.23570E-22
5.11188E-03 1.17734E-22
5.23711E-03 1.12239E-22
5.36383E-03 1.07060E-22
5.49207E-03 1.02176E-22
5.62181E-03 9.75670E-23
5.75306E-03 9.32148E-23
5.88581E-03 8.91022E-23
6.02007E-03 8.52134E-23
6.15583E-03 8.15340E-23
6.29310E-03 7.80506E-23
6.43187E-03 7.47506E-23
6.57214E-03 7.16227E-23
6.71392E-03 6.86561E-23
6.85720E-03 6.58410E-23
7.00198E-03 6.31680E-23
7.14827E-03 6.06287E-23
7.29605E-03 5.82151E-23
7.44534E-03 5.59198E-23
7.59612E-03 5.37358E-23
7.97965E-03 4.87220E-23
8.37255E-03 4.42758E-23
8.77480E-03 4.03217E-23
9.18641E-03 3.67956E-23
9.60736E-03 3.36431E-23
1.00376E-02 3.08177E-23
1.04773E-02 2.82793E-23
1.09262E-02 2.59937E-23
1.13844E-02 2.39313E-23
1.18520E-02 2.20664E-23
1.23288E-02 2.03768E-23
1.28150E-02 1.88431E-23
1.33104E-02 1.74484E-23
1.38150E-02 1.61778E-23
1.43290E-02 1.50184E-23
1.48521E-02 1.39588E-23
1.53845E-02 1.29887E-23
1.59262E-02 1.20994E-23
1.64770E-02 1.12830E-23
1.70371E-02 1.05323E-23
1.76063E-02 9.84129E-24
1.81848E-02 9.20429E-24
1.87724E-02 8.61637E-24
1.93692E-02 8.07309E-24
1.99751E-02 7.57049E-24
2.05901E-02 7.10498E-24
2.12143E-02 6.67337E-24
2.18476E-02 6.27277E-24
2.24900E-02 5.90056E-24
2.31415E-02 5.55439E-24
2.38021E-02 5.23214E-24
2.44717E-02 4.93186E-24
2.51504E-02 4.65183E-24
2.58382E-02 4.39043E-24
2.65349E-02 4.14622E-24
2.72407E-02 3.91790E-24
2.79555E-02 3.70424E-24
2.86793E-02 3.50416E-24
2.94120E-02 3.31666E-24
3.01537E-02 3.14081E-24
3.09043E-02 2.97578E-24
3.16639E-02 2.82079E-24
3.24324E-02 2.67513E-24
3.32098E-02 2.53815E-24
3.39961E-02 2.40926E-24
3.47912E-02 2.28790E-24
3.55952E-02 2.17357E-24
3.64081E-02 2.06578E-24
3.72297E-02 1.96412E-24
3.80602E-02 1.86818E-24
3.88995E-02 1.77759E-24
3.97476E-02 1.69201E-24
4.06044E-02 1.61111E-24
4.14700E-02 1.53461E-24
4.23443E-02 1.46223E-24
4.32273E-02 1.39371E-24
4.41190E-02 1.32883E-24
4.50194E-02 1.26735E-24
4.59284E-02 1.20908E-24
4.68461E-02 1.15382E-24
4.87074E-02 1.05165E-24
5.06030E-02 9.59555E-25
5.25328E-02 8.76413E-25
5.44967E-02 8.01246E-25
5.64946E-02 7.33194E-25
5.85262E-02 6.71502E-25
6.05914E-02 6.15505E-25
6.26901E-02 5.64617E-25
6.48222E-02 5.18318E-25
6.69873E-02 4.76149E-25
6.91854E-02 4.37700E-25
7.14163E-02 4.02610E-25
7.36799E-02 3.70554E-25
7.59760E-02 3.41242E-25
7.83043E-02 3.14418E-25
8.06647E-02 2.89850E-25
8.30571E-02 2.67329E-25
8.54812E-02 2.46671E-25
8.79369E-02 2.27707E-25
9.04240E-02 2.10286E-25
9.29422E-02 1.94273E-25
9.54915E-02 1.79545E-25
9.80716E-02 1.65990E-25
1.00682E-01 1.53507E-25
1.03323E-01 1.42007E-25
1.05995E-01 1.31406E-25
1.08696E-01 1.21628E-25
1.11427E-01 1.12607E-25
1.14188E-01 1.04279E-25
1.16978E-01 9.65889E-26
1.19797E-01 8.94840E-26
1.22645E-01 8.29176E-26
1.25522E-01 7.68468E-26
1.28428E-01 7.12323E-26
1.31361E-01 6.60381E-26
1.34323E-01 6.12314E-26
1.37313E-01 5.67819E-26
1.40330E-01 5.26620E-26
1.43375E-01 4.88463E-26
1.46447E-01 4.53117E-26
1.49545E-01 4.20365E-26
1.52671E-01 3.90013E-26
1.55823E-01 3.61878E-26
1.59001E-01 3.35795E-26
1.62205E-01 3.11610E-26
1.65435E-01 2.89180E-26
1.68690E-01 2.68377E-26
1.71970E-01 2.49080E-26
1.75276E-01 2.31178E-26
1.78606E-01 2.14568E-26
1.81961E-01 1.99155E-26
1.85340E-01 1.84853E-26
1.88743E-01 1.71581E-26
1.92169E-01 1.59263E-26
1.95619E-01 1.47830E-26
1.99092E-01 1.37219E-26
2.02589E-01 1.27371E-26
2.06107E-01 1.18229E-26
2.09649E-01 1.09744E-26
2.13212E-01 1.01868E-26
2.16797E-01 9.45581E-27
2.20404E-01 8.77730E-27
2.24032E-01 8.14755E-27
2.27680E-01 7.56306E-27
2.31350E-01 7.02061E-27
2.35040E-01 6.51719E-27
2.38751E-01 6.05003E-27
2.42481E-01 5.61653E-27
2.46231E-01 5.21429E-27
2.50000E-01 4.84109E-27
2.53788E-01 4.49486E-27
2.57595E-01 4.17366E-27
2.61421E-01 3.87572E-27
2.65264E-01 3.59938E-27
2.69126E-01 3.34308E-27
2.73005E-01 3.10540E-27
2.76901E-01 2.88501E-27
2.80814E-01 2.68067E-27
2.84744E-01 2.49123E-27
2.88691E-01 2.31561E-27
2.92653E-01 2.15283E-27
2.96632E-01 2.00196E-27
3.00625E-01 1.86215E-27
3.04634E-01 1.73258E-27
3.08658E-01 1.61253E-27
3.12697E-01 1.50131E-27
3.16749E-01 1.39826E-27
3.20816E-01 1.30281E-27
3.24896E-01 1.21439E-27
3.28990E-01 1.13249E-27
3.33097E-01 1.05663E-27
3.37216E-01 9.86378E-28
3.41348E-01 9.21311E-28
3.45492E-01 8.61050E-28
3.49647E-01 8.05240E-28
3.53814E-01 7.53550E-28
3.57992E-01 7.05675E-28
3.62181E-01 6.61331E-28
3.66381E-01 6.20254E-28
3.70590E-01 5.82199E-28
3.74810E-01 5.46939E-28
3.79039E-01 5.14263E-28
3.83277E-01 4.83977E-28
3.87524E-01 4.55900E-28
3.91780E-01 4.29864E-28
3.96044E-01 4.05713E-28
4.00316E-01 3.83304E-28
4.04596E-01 3.62503E-28
4.08882E-01 3.43187E-28
4.13176E-01 3.25241E-28
4.17476E-01 3.08560E-28
4.21783E-01 2.93047E-28
4.26095E-01 2.78610E-28
4.30413E-01 2.65166E-28
4.34737E-01 2.52638E-28
4.39065E-01 2.40955E-28
4.43398E-01 2.30050E-28
4.47736E-01 2.19863E-28
4.52077E-01 2.10338E-28
4.56422E-01 2.01423E-28
4.60770E-01 1.93070E-28
4.65122E-01 1.85235E-28
4.69476E-01 1.77877E-28
4.73832E-01 1.70960E-28
4.78190E-01 1.64449E-28
4.82550E-01 1.58313E-28
4.86912E-01 1.52522E-28
4.91274E-01 1.47049E-28
4.95637E-01 1.41870E-28
5.00000E-01 1.36963E-28
5.04363E-01 1.32306E-28
5.08726E-01 1.27881E-28
5.13088E-01 1.23671E-28
5.17450E-01 1.19659E-28
5.21810E-01 1.15830E-28
5.26168E-01 1.12172E-28
5.30524E-01 1.08672E-28
5.34878E-01 1.05319E-28
5.39230E-01 1.02102E-28
5.43578E-01 9.90124E-29
5.47923E-01 9.60412E-29
5.52264E-01 9.31807E-29
5.56602E-01 9.04238E-29
5.60935E-01 8.77638E-29
5.65263E-01 8.51948E-29
5.69587E-01 8.27113E-29
5.73905E-01 8.03084E-29
5.78217E-01 7.79816E-29
5.82524E-01 7.57265E-29
5.86824E-01 7.35396E-29
5.91118E-01 7.14173E-29
5.95404E-01 6.93564E-29
5.99684E-01 6.73542E-29
6.03956E-01 6.54079E-29
6.08220E-01 6.35151E-29
6.12476E-01 6.16736E-29
6.16723E-01 5.98815E-29
6.20961E-01 5.81368E-29
6.25190E-01 5.64378E-29
6.29410E-01 5.47830E-29
6.33619E-01 5.31709E-29
6.37819E-01 5.16001E-29
6.42008E-01 5.00695E-29
6.46186E-01 4.85779E-29
6.50353E-01 4.71241E-29
6.54508E-01 4.57072E-29
6.58652E-01 4.43263E-29
6.62784E-01 4.29804E-29
6.66903E-01 4.16688E-29
6.71010E-01 4.03905E-29
6.75104E-01 3.91450E-29
6.79184E-01 3.79314E-29
6.83251E-01 3.67490E-29
6.87303E-01 3.55973E-29
6.91342E-01 3.44755E-29
6.95366E-01 3.33831E-29
6.99375E-01 3.23195E-29
7.03368E-01 3.12840E-29
7.07347E-01 3.02762E-29
7.11309E-01 2.92954E-29
7.15256E-01 2.83412E-29
7.19186E-01 2.74129E-29
7.23099E-01 2.65101E-29
7.26995E-01 2.56323E-29
7.30874E-01 2.47790E-29
7.34736E-01 2.39496E-29
7.38579E-01 2.31436E-29
7.42405E-01 2.23607E-29
7.46212E-01 2.16002E-29
7.50000E-01 2.08618E-29
7.53769E-01 2.01449E-29
7.57519E-01 1.94490E-29
7.61249E-01 1.87738E-29
7.64960E-01 1.81187E-29
7.68650E-01 1.74834E-29
7.72320E-01 1.68673E-29
7.75968E-01 1.62700E-29
7.79596E-01 1.56910E-29
7.83203E-01 1.51300E-29
7.86788E-01 1.45864E-29
7.90351E-01 1.40600E-29
7.93893E-01 1.35501E-29
7.97411E-01 1.30565E-29
8.00908E-01 1.25788E-29
8.04381E-01 1.21164E-29
8.07831E-01 1.16690E-29
8.11257E-01 1.12362E-29
8.14660E-01 1.08177E-29
8.18039E-01 1.04130E-29
8.21394E-01 1.00217E-29
8.24724E-01 9.64355E-30
8.28030E-01 9.27811E-30
8.31310E-01 8.92502E-30
8.34565E-01 8.58394E-30
8.37795E-01 8.25452E-30
8.40999E-01 7.93642E-30
8.44177E-01 7.62931E-30
8.47329E-01 7.33286E-30
8.50455E-01 7.04674E-30
8.53553E-01 6.77065E-30
8.56625E-01 6.50429E-30
8.59670E-01 6.24733E-30
8.62687E-01 5.99951E-30
8.65677E-01 5.76052E-30
8.68639E-01 5.53008E-30
8.71572E-01 5.30793E-30
8.74478E-01 5.09380E-30
8.77355E-01 4.88742E-30
8.80203E-01 4.68855E-30
8.83022E-01 4.49693E-30
8.85812E-01 4.31232E-30
8.88573E-01 4.13449E-30
8.91304E-01 3.96322E-30
8.94005E-01 3.79827E-30
8.96677E-01 3.63944E-30
8.99318E-01 3.48651E-30
9.01928E-01 3.33929E-30
9.04508E-01 3.19756E-30
9.07058E-01 3.06115E-30
9.09576E-01 2.92987E-30
9.12063E-01 2.80352E-30
9.14519E-01 2.68195E-30
9.16943E-01 2.56498E-30
9.19335E-01 2.45245E-30
9.21696E-01 2.34419E-30
9.24024E-01 2.24006E-30
9.26320E-01 2.13990E-30
9.28584E-01 2.04357E-30
9.30815E-01 1.95094E-30
9.33013E-01 1.86186E-30
9.35178E-01 1.77622E-30
9.37310E-01 1.69387E-30
9.39409E-01 1.61472E-30
9.41474E-01 1.53862E-30
9.43505E-01 1.46548E-30
9.45503E-01 1.39519E-30
9.47467E-01 1.32764E-30
9.49397E-01 1.26273E-30
9.51293E-01 1.20036E-30
9.53154E-01 1.14044E-30
9.54981E-01 1.08289E-30
9.56773E-01 1.02761E-30
9.58530E-01 9.74521E-31
9.60252E-01 9.23546E-31
9.61940E-01 8.74608E-31
9.63592E-01 8.27632E-31
9.65209E-01 7.82549E-31
9.66790E-01 7.39290E-31
9.68336E-01 6.97792E-31
9.69846E-01 6.57991E-31
9.71321E-01 6.19828E-31
9.72759E-01 5.83247E-31
9.74162E-01 5.48192E-31
9.75528E-01 5.14612E-31
9.76858E-01 4.82457E-31
9.78152E-01 4.51678E-31
9.79410E-01 4.22231E-31
9.80631E-01 3.94072E-31
9.81815E-01 3.67160E-31
9.82963E-01 3.41454E-31
9.84074E-01 3.16918E-31
9.85148E-01 2.93515E-31
9.86185E-01 2.71211E-31
9.87185E-01 2.49975E-31
9.88148E-01 2.29775E-31
9.89074E-01 2.10582E-31
9.89962E-01 1.92369E-31
9.90814E-01 1.75109E-31
9.91627E-01 1.58778E-31
9.92404E-01 1.43353E-31
9.93143E-01 1.28812E-31
9.93844E-01 1.15133E-31
9.94508E-01 1.02299E-31
9.95134E-01 9.02898E-32
9.95722E-01 7.90900E-32
9.96273E-01 6.86835E-32
9.96786E-01 5.90559E-32
9.97261E-01 5.01937E-32
9.97698E-01 4.20847E-32
9.98097E-01 3.47176E-32
9.98459E-01 2.80823E-32
9.98782E-01 2.21697E-32
9.99067E-01 1.69715E-32
9.99315E-01 1.24808E-32
9.99524E-01 8.69121E-33
9.99695E-01 5.59770E-33
9.99829E-01 3.19602E-33
9.99924E-01 1.48286E-33
9.99981E-01 4.55904E-34
1.00000E+00 1.13746E-34
