 #
 # Subroutine ELSEPA. Elastic scattering of electrons and positrons
 #                    by neutral atoms and positive ions
 #
 # Projectile: electron
 # Kinetic energy = 2.00000E+07 eV = 7.34987E+05 a.u.
 #
 # WARNING: High-energy factorization with free-atom DF screening.
 #          Absorption, polarization and exchange corrections are
 #          switched off.
 #          Phase shifts are calculated for the bare nucleus.
 #          Scattering amplitudes are not evaluated.
 #
 # Element: Ho,  Z =  67,  atomic weight = 1.64930E+02 g/mol
 #
 # Nuclear model: Fermi distribution
 #                Average radius = 5.86792E-13 cm
 #                Skin thickness = 5.46000E-14 cm
 #
 # Number of electrons = 67
 #
 # Total elastic cross section = 7.09527E-18 cm**2 = 2.53377E-01 a0**2
 # 1st transport cross section = 2.01239E-23 cm**2 = 7.18639E-07 a0**2
 # 2nd transport cross section = 5.70137E-23 cm**2 = 2.03600E-06 a0**2
 #
 #
 # Differential cross section:                       MU=(1-COS(THETA))/2
 #
 #  THETA        MU          DCS          DCS        Sherman      error
 #  (deg)                 (cm**2/sr)   (a0**2/sr)    function
 #----------------------------------------------------------------------
0.00000E+00 3.16510E-11
7.61557E-13 3.16449E-11
1.18994E-12 3.16414E-11
1.71346E-12 3.16372E-11
2.33225E-12 3.16322E-11
3.04617E-12 3.16265E-11
3.85530E-12 3.16200E-11
4.75964E-12 3.16127E-11
5.75917E-12 3.16047E-11
6.85391E-12 3.15960E-11
8.04379E-12 3.15864E-11
9.32893E-12 3.15762E-11
1.07092E-11 3.15651E-11
1.21847E-11 3.15533E-11
1.37554E-11 3.15408E-11
1.54213E-11 3.15275E-11
1.71823E-11 3.15135E-11
1.90386E-11 3.14987E-11
2.09900E-11 3.14832E-11
2.30367E-11 3.14669E-11
2.51785E-11 3.14499E-11
2.74156E-11 3.14321E-11
2.97478E-11 3.14136E-11
3.21752E-11 3.13944E-11
3.46979E-11 3.13745E-11
3.73157E-11 3.13538E-11
4.00286E-11 3.13324E-11
4.28368E-11 3.13102E-11
4.57402E-11 3.12874E-11
4.87388E-11 3.12638E-11
5.18325E-11 3.12395E-11
5.50215E-11 3.12145E-11
5.83057E-11 3.11887E-11
6.16850E-11 3.11623E-11
6.51595E-11 3.11352E-11
6.87293E-11 3.11073E-11
7.23943E-11 3.10788E-11
7.61544E-11 3.10496E-11
1.18991E-10 3.07198E-11
1.71347E-10 3.03248E-11
2.33223E-10 2.98688E-11
3.04617E-10 2.93571E-11
3.85531E-10 2.87949E-11
4.75965E-10 2.81879E-11
5.75917E-10 2.75436E-11
6.85389E-10 2.68676E-11
8.04380E-10 2.61604E-11
9.32891E-10 2.54357E-11
1.07092E-09 2.46955E-11
1.21847E-09 2.39396E-11
1.37554E-09 2.31880E-11
1.54213E-09 2.24306E-11
1.71823E-09 2.16752E-11
1.90386E-09 2.09339E-11
2.09900E-09 2.01963E-11
2.30367E-09 1.94768E-11
2.51785E-09 1.87738E-11
2.74156E-09 1.80819E-11
2.97478E-09 1.74200E-11
3.21752E-09 1.67735E-11
3.46978E-09 1.61465E-11
3.73156E-09 1.55489E-11
4.00286E-09 1.49677E-11
4.28368E-09 1.44125E-11
4.57402E-09 1.38812E-11
4.87388E-09 1.33670E-11
5.18326E-09 1.28823E-11
5.50215E-09 1.24158E-11
5.83057E-09 1.19683E-11
6.16850E-09 1.15462E-11
6.51596E-09 1.11397E-11
6.87293E-09 1.07536E-11
7.23942E-09 1.03867E-11
7.61544E-09 1.00339E-11
1.18991E-08 7.30948E-12
1.71347E-08 5.55667E-12
2.33223E-08 4.35191E-12
3.04617E-08 3.47180E-12
3.85531E-08 2.80184E-12
4.75965E-08 2.28048E-12
5.75917E-08 1.85859E-12
6.85389E-08 1.52123E-12
8.04380E-08 1.27359E-12
9.32891E-08 1.06509E-12
1.07092E-07 8.95384E-13
1.21847E-07 7.65054E-13
1.37554E-07 6.49363E-13
1.54213E-07 5.57837E-13
1.71823E-07 4.82897E-13
1.90386E-07 4.17601E-13
2.09900E-07 3.64779E-13
2.30367E-07 3.19142E-13
2.51785E-07 2.80106E-13
2.74156E-07 2.47771E-13
2.97478E-07 2.18652E-13
3.21752E-07 1.94073E-13
3.46978E-07 1.72983E-13
3.73156E-07 1.54084E-13
4.00286E-07 1.37990E-13
4.28368E-07 1.23741E-13
4.57402E-07 1.11164E-13
4.87388E-07 1.00306E-13
5.18325E-07 9.04822E-14
5.50215E-07 8.18916E-14
5.83057E-07 7.43317E-14
6.16850E-07 6.75064E-14
6.51596E-07 6.15086E-14
6.87293E-07 5.61377E-14
7.23942E-07 5.13224E-14
7.61543E-07 4.70512E-14
1.18991E-06 2.16324E-14
1.71347E-06 1.14483E-14
2.33223E-06 6.67056E-15
3.04617E-06 4.14607E-15
3.85531E-06 2.70551E-15
4.75964E-06 1.83726E-15
5.75916E-06 1.28846E-15
6.85388E-06 9.30558E-16
8.04378E-06 6.88702E-16
9.32888E-06 5.20588E-16
1.07092E-05 4.00888E-16
1.21846E-05 3.13707E-16
1.37553E-05 2.49038E-16
1.54212E-05 2.00239E-16
1.71822E-05 1.62847E-16
1.90385E-05 1.33738E-16
2.09899E-05 1.10969E-16
2.30365E-05 9.28363E-17
2.51783E-05 7.82427E-17
2.74153E-05 6.63918E-17
2.97475E-05 5.66937E-17
3.21749E-05 4.87017E-17
3.46974E-05 4.20718E-17
3.73152E-05 3.65361E-17
4.00281E-05 3.18839E-17
4.28362E-05 2.79497E-17
4.57395E-05 2.46027E-17
4.87380E-05 2.17401E-17
5.18317E-05 1.92800E-17
5.50205E-05 1.71569E-17
5.83045E-05 1.53173E-17
6.16838E-05 1.37177E-17
6.51582E-05 1.23218E-17
6.87277E-05 1.10993E-17
7.23925E-05 1.00249E-17
7.61524E-05 9.07754E-18
9.21439E-05 6.24297E-18
1.09658E-04 4.43318E-18
1.28695E-04 3.23479E-18
1.49255E-04 2.41545E-18
1.71338E-04 1.84021E-18
1.94942E-04 1.42661E-18
2.20070E-04 1.12309E-18
2.46720E-04 8.96277E-19
2.74892E-04 7.24004E-19
3.04586E-04 5.91261E-19
3.35803E-04 4.87631E-19
3.68542E-04 4.05775E-19
4.02802E-04 3.40420E-19
4.38585E-04 2.87726E-19
4.75889E-04 2.44861E-19
5.14715E-04 2.09700E-19
5.55063E-04 1.80640E-19
5.96931E-04 1.56453E-19
6.40321E-04 1.36188E-19
6.85233E-04 1.19107E-19
7.31665E-04 1.04626E-19
7.79618E-04 9.22857E-20
8.29092E-04 8.17156E-20
8.80086E-04 7.26201E-20
9.32601E-04 6.47582E-20
9.86636E-04 5.79349E-20
1.04219E-03 5.19891E-20
1.09927E-03 4.67891E-20
1.15786E-03 4.22250E-20
1.21797E-03 3.82058E-20
1.27961E-03 3.46550E-20
1.34276E-03 3.15086E-20
1.40743E-03 2.87126E-20
1.47362E-03 2.62210E-20
1.54133E-03 2.39948E-20
1.61056E-03 2.20009E-20
1.68131E-03 2.02107E-20
1.75357E-03 1.85996E-20
1.82735E-03 1.71466E-20
1.90265E-03 1.58333E-20
1.97947E-03 1.46440E-20
2.05780E-03 1.35648E-20
2.13765E-03 1.25836E-20
2.21902E-03 1.16900E-20
2.30190E-03 1.08748E-20
2.38630E-03 1.01298E-20
2.47222E-03 9.44780E-21
2.55965E-03 8.82258E-21
2.64859E-03 8.24852E-21
2.73905E-03 7.72067E-21
2.83103E-03 7.23462E-21
2.92452E-03 6.78647E-21
3.01952E-03 6.37270E-21
3.11604E-03 5.99019E-21
3.21407E-03 5.63614E-21
3.31362E-03 5.30804E-21
3.41468E-03 5.00363E-21
3.51725E-03 4.72089E-21
3.62133E-03 4.45798E-21
3.72692E-03 4.21325E-21
3.83403E-03 3.98521E-21
3.94265E-03 3.77251E-21
4.05278E-03 3.57392E-21
4.16442E-03 3.38834E-21
4.27757E-03 3.21473E-21
4.39223E-03 3.05220E-21
4.50840E-03 2.89990E-21
4.62608E-03 2.75705E-21
4.74527E-03 2.62297E-21
4.86597E-03 2.49701E-21
4.98817E-03 2.37859E-21
5.11188E-03 2.26718E-21
5.23711E-03 2.16227E-21
5.36383E-03 2.06341E-21
5.49207E-03 1.97019E-21
5.62181E-03 1.88223E-21
5.75306E-03 1.79917E-21
5.88581E-03 1.72069E-21
6.02007E-03 1.64648E-21
6.15583E-03 1.57627E-21
6.29310E-03 1.50980E-21
6.43187E-03 1.44684E-21
6.57214E-03 1.38716E-21
6.71392E-03 1.33055E-21
6.85720E-03 1.27684E-21
7.00198E-03 1.22583E-21
7.14827E-03 1.17738E-21
7.29605E-03 1.13133E-21
7.44534E-03 1.08753E-21
7.59612E-03 1.04585E-21
7.97965E-03 9.50166E-22
8.37255E-03 8.65295E-22
8.77480E-03 7.89798E-22
9.18641E-03 7.22454E-22
9.60736E-03 6.62222E-22
1.00376E-02 6.08213E-22
1.04773E-02 5.59669E-22
1.09262E-02 5.15935E-22
1.13844E-02 4.76444E-22
1.18520E-02 4.40711E-22
1.23288E-02 4.08312E-22
1.28150E-02 3.78876E-22
1.33104E-02 3.52083E-22
1.38150E-02 3.27651E-22
1.43290E-02 3.05333E-22
1.48521E-02 2.84910E-22
1.53845E-02 2.66192E-22
1.59262E-02 2.49010E-22
1.64770E-02 2.33213E-22
1.70371E-02 2.18669E-22
1.76063E-02 2.05259E-22
1.81848E-02 1.92877E-22
1.87724E-02 1.81430E-22
1.93692E-02 1.70834E-22
1.99751E-02 1.61012E-22
2.05901E-02 1.51898E-22
2.12143E-02 1.43431E-22
2.18476E-02 1.35555E-22
2.24900E-02 1.28221E-22
2.31415E-02 1.21386E-22
2.38021E-02 1.15007E-22
2.44717E-02 1.09050E-22
2.51504E-02 1.03479E-22
2.58382E-02 9.82663E-23
2.65349E-02 9.33832E-23
2.72407E-02 8.88049E-23
2.79555E-02 8.45088E-23
2.86793E-02 8.04738E-23
2.94120E-02 7.66810E-23
3.01537E-02 7.31130E-23
3.09043E-02 6.97537E-23
3.16639E-02 6.65886E-23
3.24324E-02 6.36041E-23
3.32098E-02 6.07879E-23
3.39961E-02 5.81286E-23
3.47912E-02 5.56157E-23
3.55952E-02 5.32395E-23
3.64081E-02 5.09910E-23
3.72297E-02 4.88621E-23
3.80602E-02 4.68451E-23
3.88995E-02 4.49328E-23
3.97476E-02 4.31188E-23
4.06044E-02 4.13970E-23
4.14700E-02 3.97617E-23
4.23443E-02 3.82078E-23
4.32273E-02 3.67303E-23
4.41190E-02 3.53247E-23
4.50194E-02 3.39869E-23
4.59284E-02 3.27128E-23
4.68461E-02 3.14988E-23
4.87074E-02 2.92378E-23
5.06030E-02 2.71791E-23
5.25328E-02 2.53011E-23
5.44967E-02 2.35849E-23
5.64946E-02 2.20138E-23
5.85262E-02 2.05732E-23
6.05914E-02 1.92499E-23
6.26901E-02 1.80325E-23
6.48222E-02 1.69110E-23
6.69873E-02 1.58764E-23
6.91854E-02 1.49205E-23
7.14163E-02 1.40363E-23
7.36799E-02 1.32172E-23
7.59760E-02 1.24576E-23
7.83043E-02 1.17523E-23
8.06647E-02 1.10966E-23
8.30571E-02 1.04863E-23
8.54812E-02 9.91765E-24
8.79369E-02 9.38728E-24
9.04240E-02 8.89208E-24
9.29422E-02 8.42926E-24
9.54915E-02 7.99627E-24
9.80716E-02 7.59081E-24
1.00682E-01 7.21078E-24
1.03323E-01 6.85427E-24
1.05995E-01 6.51953E-24
1.08696E-01 6.20498E-24
1.11427E-01 5.90915E-24
1.14188E-01 5.63070E-24
1.16978E-01 5.36842E-24
1.19797E-01 5.12117E-24
1.22645E-01 4.88793E-24
1.25522E-01 4.66774E-24
1.28428E-01 4.45972E-24
1.31361E-01 4.26309E-24
1.34323E-01 4.07707E-24
1.37313E-01 3.90100E-24
1.40330E-01 3.73424E-24
1.43375E-01 3.57618E-24
1.46447E-01 3.42630E-24
1.49545E-01 3.28409E-24
1.52671E-01 3.14907E-24
1.55823E-01 3.02081E-24
1.59001E-01 2.89891E-24
1.62205E-01 2.78298E-24
1.65435E-01 2.67269E-24
1.68690E-01 2.56770E-24
1.71970E-01 2.46771E-24
1.75276E-01 2.37243E-24
1.78606E-01 2.28161E-24
1.81961E-01 2.19498E-24
1.85340E-01 2.11233E-24
1.88743E-01 2.03342E-24
1.92169E-01 1.95807E-24
1.95619E-01 1.88608E-24
1.99092E-01 1.81727E-24
2.02589E-01 1.75147E-24
2.06107E-01 1.68853E-24
2.09649E-01 1.62830E-24
2.13212E-01 1.57064E-24
2.16797E-01 1.51543E-24
2.20404E-01 1.46253E-24
2.24032E-01 1.41183E-24
2.27680E-01 1.36322E-24
2.31350E-01 1.31661E-24
2.35040E-01 1.27189E-24
2.38751E-01 1.22898E-24
2.42481E-01 1.18778E-24
2.46231E-01 1.14822E-24
2.50000E-01 1.11022E-24
2.53788E-01 1.07370E-24
2.57595E-01 1.03860E-24
2.61421E-01 1.00486E-24
2.65264E-01 9.72401E-25
2.69126E-01 9.41179E-25
2.73005E-01 9.11134E-25
2.76901E-01 8.82215E-25
2.80814E-01 8.54372E-25
2.84744E-01 8.27557E-25
2.88691E-01 8.01726E-25
2.92653E-01 7.76836E-25
2.96632E-01 7.52848E-25
3.00625E-01 7.29722E-25
3.04634E-01 7.07422E-25
3.08658E-01 6.85914E-25
3.12697E-01 6.65165E-25
3.16749E-01 6.45143E-25
3.20816E-01 6.25818E-25
3.24896E-01 6.07163E-25
3.28990E-01 5.89149E-25
3.33097E-01 5.71751E-25
3.37216E-01 5.54945E-25
3.41348E-01 5.38707E-25
3.45492E-01 5.23015E-25
3.49647E-01 5.07846E-25
3.53814E-01 4.93181E-25
3.57992E-01 4.79001E-25
3.62181E-01 4.65286E-25
3.66381E-01 4.52019E-25
3.70590E-01 4.39183E-25
3.74810E-01 4.26761E-25
3.79039E-01 4.14739E-25
3.83277E-01 4.03100E-25
3.87524E-01 3.91832E-25
3.91780E-01 3.80919E-25
3.96044E-01 3.70350E-25
4.00316E-01 3.60111E-25
4.04596E-01 3.50192E-25
4.08882E-01 3.40579E-25
4.13176E-01 3.31263E-25
4.17476E-01 3.22232E-25
4.21783E-01 3.13477E-25
4.26095E-01 3.04987E-25
4.30413E-01 2.96755E-25
4.34737E-01 2.88769E-25
4.39065E-01 2.81023E-25
4.43398E-01 2.73508E-25
4.47736E-01 2.66215E-25
4.52077E-01 2.59138E-25
4.56422E-01 2.52269E-25
4.60770E-01 2.45601E-25
4.65122E-01 2.39126E-25
4.69476E-01 2.32840E-25
4.73832E-01 2.26735E-25
4.78190E-01 2.20805E-25
4.82550E-01 2.15046E-25
4.86912E-01 2.09450E-25
4.91274E-01 2.04013E-25
4.95637E-01 1.98730E-25
5.00000E-01 1.93595E-25
5.04363E-01 1.88605E-25
5.08726E-01 1.83753E-25
5.13088E-01 1.79037E-25
5.17450E-01 1.74451E-25
5.21810E-01 1.69991E-25
5.26168E-01 1.65654E-25
5.30524E-01 1.61436E-25
5.34878E-01 1.57333E-25
5.39230E-01 1.53341E-25
5.43578E-01 1.49457E-25
5.47923E-01 1.45678E-25
5.52264E-01 1.42000E-25
5.56602E-01 1.38421E-25
5.60935E-01 1.34937E-25
5.65263E-01 1.31546E-25
5.69587E-01 1.28244E-25
5.73905E-01 1.25029E-25
5.78217E-01 1.21899E-25
5.82524E-01 1.18851E-25
5.86824E-01 1.15883E-25
5.91118E-01 1.12991E-25
5.95404E-01 1.10175E-25
5.99684E-01 1.07431E-25
6.03956E-01 1.04759E-25
6.08220E-01 1.02154E-25
6.12476E-01 9.96165E-26
6.16723E-01 9.71435E-26
6.20961E-01 9.47334E-26
6.25190E-01 9.23843E-26
6.29410E-01 9.00946E-26
6.33619E-01 8.78626E-26
6.37819E-01 8.56866E-26
6.42008E-01 8.35651E-26
6.46186E-01 8.14965E-26
6.50353E-01 7.94794E-26
6.54508E-01 7.75124E-26
6.58652E-01 7.55940E-26
6.62784E-01 7.37229E-26
6.66903E-01 7.18979E-26
6.71010E-01 7.01177E-26
6.75104E-01 6.83810E-26
6.79184E-01 6.66867E-26
6.83251E-01 6.50337E-26
6.87303E-01 6.34207E-26
6.91342E-01 6.18468E-26
6.95366E-01 6.03109E-26
6.99375E-01 5.88120E-26
7.03368E-01 5.73491E-26
7.07347E-01 5.59213E-26
7.11309E-01 5.45276E-26
7.15256E-01 5.31672E-26
7.19186E-01 5.18391E-26
7.23099E-01 5.05425E-26
7.26995E-01 4.92767E-26
7.30874E-01 4.80408E-26
7.34736E-01 4.68340E-26
7.38579E-01 4.56556E-26
7.42405E-01 4.45049E-26
7.46212E-01 4.33812E-26
7.50000E-01 4.22837E-26
7.53769E-01 4.12119E-26
7.57519E-01 4.01650E-26
7.61249E-01 3.91425E-26
7.64960E-01 3.81437E-26
7.68650E-01 3.71681E-26
7.72320E-01 3.62150E-26
7.75968E-01 3.52839E-26
7.79596E-01 3.43743E-26
7.83203E-01 3.34856E-26
7.86788E-01 3.26174E-26
7.90351E-01 3.17691E-26
7.93893E-01 3.09402E-26
7.97411E-01 3.01303E-26
8.00908E-01 2.93389E-26
8.04381E-01 2.85656E-26
8.07831E-01 2.78099E-26
8.11257E-01 2.70715E-26
8.14660E-01 2.63498E-26
8.18039E-01 2.56446E-26
8.21394E-01 2.49554E-26
8.24724E-01 2.42818E-26
8.28030E-01 2.36235E-26
8.31310E-01 2.29801E-26
8.34565E-01 2.23513E-26
8.37795E-01 2.17368E-26
8.40999E-01 2.11361E-26
8.44177E-01 2.05491E-26
8.47329E-01 1.99753E-26
8.50455E-01 1.94146E-26
8.53553E-01 1.88665E-26
8.56625E-01 1.83308E-26
8.59670E-01 1.78073E-26
8.62687E-01 1.72956E-26
8.65677E-01 1.67955E-26
8.68639E-01 1.63068E-26
8.71572E-01 1.58291E-26
8.74478E-01 1.53623E-26
8.77355E-01 1.49061E-26
8.80203E-01 1.44603E-26
8.83022E-01 1.40246E-26
8.85812E-01 1.35989E-26
8.88573E-01 1.31829E-26
8.91304E-01 1.27764E-26
8.94005E-01 1.23793E-26
8.96677E-01 1.19913E-26
8.99318E-01 1.16122E-26
9.01928E-01 1.12419E-26
9.04508E-01 1.08801E-26
9.07058E-01 1.05268E-26
9.09576E-01 1.01816E-26
9.12063E-01 9.84459E-27
9.14519E-01 9.51543E-27
9.16943E-01 9.19402E-27
9.19335E-01 8.88020E-27
9.21696E-01 8.57383E-27
9.24024E-01 8.27475E-27
9.26320E-01 7.98284E-27
9.28584E-01 7.69795E-27
9.30815E-01 7.41994E-27
9.33013E-01 7.14870E-27
9.35178E-01 6.88409E-27
9.37310E-01 6.62599E-27
9.39409E-01 6.37428E-27
9.41474E-01 6.12886E-27
9.43505E-01 5.88960E-27
9.45503E-01 5.65639E-27
9.47467E-01 5.42914E-27
9.49397E-01 5.20773E-27
9.51293E-01 4.99206E-27
9.53154E-01 4.78205E-27
9.54981E-01 4.57760E-27
9.56773E-01 4.37860E-27
9.58530E-01 4.18498E-27
9.60252E-01 3.99665E-27
9.61940E-01 3.81352E-27
9.63592E-01 3.63552E-27
9.65209E-01 3.46256E-27
9.66790E-01 3.29457E-27
9.68336E-01 3.13147E-27
9.69846E-01 2.97319E-27
9.71321E-01 2.81967E-27
9.72759E-01 2.67083E-27
9.74162E-01 2.52662E-27
9.75528E-01 2.38696E-27
9.76858E-01 2.25180E-27
9.78152E-01 2.12107E-27
9.79410E-01 1.99473E-27
9.80631E-01 1.87272E-27
9.81815E-01 1.75498E-27
9.82963E-01 1.64147E-27
9.84074E-01 1.53213E-27
9.85148E-01 1.42692E-27
9.86185E-01 1.32579E-27
9.87185E-01 1.22871E-27
9.88148E-01 1.13562E-27
9.89074E-01 1.04649E-27
9.89962E-01 9.61286E-28
9.90814E-01 8.79966E-28
9.91627E-01 8.02496E-28
9.92404E-01 7.28844E-28
9.93143E-01 6.58980E-28
9.93844E-01 5.92872E-28
9.94508E-01 5.30494E-28
9.95134E-01 4.71819E-28
9.95722E-01 4.16822E-28
9.96273E-01 3.65481E-28
9.96786E-01 3.17773E-28
9.97261E-01 2.73679E-28
9.97698E-01 2.33181E-28
9.98097E-01 1.96260E-28
9.98459E-01 1.62902E-28
9.98782E-01 1.33093E-28
9.99067E-01 1.06820E-28
9.99315E-01 8.40719E-29
9.99524E-01 6.48398E-29
9.99695E-01 4.91155E-29
9.99829E-01 3.68922E-29
9.99924E-01 2.81649E-29
9.99981E-01 2.29300E-29
1.00000E+00 2.11853E-29
