 #
 # Subroutine ELSEPA. Elastic scattering of electrons and positrons
 #                    by neutral atoms and positive ions
 #
 # Projectile: electron
 # Kinetic energy = 5.00000E+06 eV = 1.83747E+05 a.u.
 #
 # WARNING: High-energy factorization with free-atom DF screening.
 #          Absorption, polarization and exchange corrections are
 #          switched off.
 #          Phase shifts are calculated for the bare nucleus.
 #          Scattering amplitudes are not evaluated.
 #
 # Element: Rh,  Z =  45,  atomic weight = 1.02906E+02 g/mol
 #
 # Nuclear model: Fermi distribution
 #                Average radius = 5.01414E-13 cm
 #                Skin thickness = 5.46000E-14 cm
 #
 # Number of electrons = 45
 #
 # Total elastic cross section = 4.25938E-18 cm**2 = 1.52105E-01 a0**2
 # 1st transport cross section = 1.07027E-22 cm**2 = 3.82199E-06 a0**2
 # 2nd transport cross section = 2.99777E-22 cm**2 = 1.07052E-05 a0**2
 #
 #
 # Differential cross section:                       MU=(1-COS(THETA))/2
 #
 #  THETA        MU          DCS          DCS        Sherman      error
 #  (deg)                 (cm**2/sr)   (a0**2/sr)    function
 #----------------------------------------------------------------------
0.00000E+00 9.64319E-13
7.61557E-13 9.64312E-13
1.18994E-12 9.64309E-13
1.71346E-12 9.64304E-13
2.33225E-12 9.64298E-13
3.04617E-12 9.64292E-13
3.85530E-12 9.64284E-13
4.75964E-12 9.64276E-13
5.75917E-12 9.64267E-13
6.85391E-12 9.64257E-13
8.04379E-12 9.64246E-13
9.32893E-12 9.64234E-13
1.07092E-11 9.64221E-13
1.21847E-11 9.64208E-13
1.37554E-11 9.64193E-13
1.54213E-11 9.64178E-13
1.71823E-11 9.64162E-13
1.90386E-11 9.64145E-13
2.09900E-11 9.64127E-13
2.30367E-11 9.64108E-13
2.51785E-11 9.64089E-13
2.74156E-11 9.64068E-13
2.97478E-11 9.64047E-13
3.21752E-11 9.64025E-13
3.46979E-11 9.64002E-13
3.73157E-11 9.63978E-13
4.00286E-11 9.63953E-13
4.28368E-11 9.63927E-13
4.57402E-11 9.63900E-13
4.87388E-11 9.63873E-13
5.18325E-11 9.63845E-13
5.50215E-11 9.63815E-13
5.83057E-11 9.63785E-13
6.16850E-11 9.63754E-13
6.51595E-11 9.63723E-13
6.87293E-11 9.63690E-13
7.23943E-11 9.63656E-13
7.61544E-11 9.63622E-13
1.18991E-10 9.63230E-13
1.71347E-10 9.62751E-13
2.33223E-10 9.62187E-13
3.04617E-10 9.61535E-13
3.85531E-10 9.60798E-13
4.75965E-10 9.59976E-13
5.75917E-10 9.59069E-13
6.85389E-10 9.58077E-13
8.04380E-10 9.57001E-13
9.32891E-10 9.55841E-13
1.07092E-09 9.54599E-13
1.21847E-09 9.53274E-13
1.37554E-09 9.51868E-13
1.54213E-09 9.50381E-13
1.71823E-09 9.48814E-13
1.90386E-09 9.47167E-13
2.09900E-09 9.45442E-13
2.30367E-09 9.43639E-13
2.51785E-09 9.41760E-13
2.74156E-09 9.39804E-13
2.97478E-09 9.37773E-13
3.21752E-09 9.35669E-13
3.46978E-09 9.33491E-13
3.73156E-09 9.31242E-13
4.00286E-09 9.28921E-13
4.28368E-09 9.26531E-13
4.57402E-09 9.24072E-13
4.87388E-09 9.21546E-13
5.18326E-09 9.18953E-13
5.50215E-09 9.16296E-13
5.83057E-09 9.13574E-13
6.16850E-09 9.10789E-13
6.51596E-09 9.07943E-13
6.87293E-09 9.05037E-13
7.23942E-09 9.02072E-13
7.61544E-09 8.99049E-13
1.18991E-08 8.65937E-13
1.71347E-08 8.28532E-13
2.33223E-08 7.88170E-13
3.04617E-08 7.46098E-13
3.85531E-08 7.03408E-13
4.75965E-08 6.60999E-13
5.75917E-08 6.19574E-13
6.85389E-08 5.79645E-13
8.04380E-08 5.41558E-13
9.32891E-08 5.05521E-13
1.07092E-07 4.71635E-13
1.21847E-07 4.39917E-13
1.37554E-07 4.10329E-13
1.54213E-07 3.82791E-13
1.71823E-07 3.57201E-13
1.90386E-07 3.33444E-13
2.09900E-07 3.11398E-13
2.30367E-07 2.90944E-13
2.51785E-07 2.71965E-13
2.74156E-07 2.54348E-13
2.97478E-07 2.37991E-13
3.21752E-07 2.22795E-13
3.46978E-07 2.08672E-13
3.73156E-07 1.95538E-13
4.00286E-07 1.83318E-13
4.28368E-07 1.71942E-13
4.57402E-07 1.61347E-13
4.87388E-07 1.51474E-13
5.18325E-07 1.42270E-13
5.50215E-07 1.33685E-13
5.83057E-07 1.25675E-13
6.16850E-07 1.18198E-13
6.51596E-07 1.11216E-13
6.87293E-07 1.04694E-13
7.23942E-07 9.85984E-14
7.61543E-07 9.29001E-14
1.18991E-06 5.25692E-14
1.71347E-06 3.12796E-14
2.33223E-06 1.96253E-14
3.04617E-06 1.29678E-14
3.85531E-06 8.97877E-15
4.75964E-06 6.46695E-15
5.75916E-06 4.80794E-15
6.85388E-06 3.66426E-15
8.04378E-06 2.84681E-15
9.32888E-06 2.24530E-15
1.07092E-05 1.79251E-15
1.21846E-05 1.44565E-15
1.37553E-05 1.17632E-15
1.54212E-05 9.64912E-16
1.71822E-05 7.97471E-16
1.90385E-05 6.63815E-16
2.09899E-05 5.56365E-16
2.30365E-05 4.69402E-16
2.51783E-05 3.98563E-16
2.74153E-05 3.40491E-16
2.97475E-05 2.92587E-16
3.21749E-05 2.52830E-16
3.46974E-05 2.19633E-16
3.73152E-05 1.91753E-16
4.00281E-05 1.68204E-16
4.28362E-05 1.48203E-16
4.57395E-05 1.31126E-16
4.87380E-05 1.16472E-16
5.18317E-05 1.03835E-16
5.50205E-05 9.28880E-17
5.83045E-05 8.33637E-17
6.16838E-05 7.50428E-17
6.51582E-05 6.77449E-17
6.87277E-05 6.13205E-17
7.23925E-05 5.56455E-17
7.61524E-05 5.06162E-17
9.21439E-05 3.53985E-17
1.09658E-04 2.54933E-17
1.28695E-04 1.88143E-17
1.49255E-04 1.41776E-17
1.71338E-04 1.08788E-17
1.94942E-04 8.48183E-18
2.20070E-04 6.70753E-18
2.46720E-04 5.37239E-18
2.74892E-04 4.35278E-18
3.04586E-04 3.56365E-18
3.35803E-04 2.94542E-18
3.68542E-04 2.45567E-18
4.02802E-04 2.06370E-18
4.38585E-04 1.74702E-18
4.75889E-04 1.48894E-18
5.14715E-04 1.27692E-18
5.55063E-04 1.10143E-18
5.96931E-04 9.55157E-19
6.40321E-04 8.32457E-19
6.85233E-04 7.28903E-19
7.31665E-04 6.41014E-19
7.79618E-04 5.66025E-19
8.29092E-04 5.01724E-19
8.80086E-04 4.46330E-19
9.32601E-04 3.98400E-19
9.86636E-04 3.56755E-19
1.04219E-03 3.20430E-19
1.09927E-03 2.88627E-19
1.15786E-03 2.60687E-19
1.21797E-03 2.36057E-19
1.27961E-03 2.14279E-19
1.34276E-03 1.94962E-19
1.40743E-03 1.77781E-19
1.47362E-03 1.62457E-19
1.54133E-03 1.48755E-19
1.61056E-03 1.36471E-19
1.68131E-03 1.25434E-19
1.75357E-03 1.15494E-19
1.82735E-03 1.06522E-19
1.90265E-03 9.84073E-20
1.97947E-03 9.10534E-20
2.05780E-03 8.43759E-20
2.13765E-03 7.83016E-20
2.21902E-03 7.27659E-20
2.30190E-03 6.77125E-20
2.38630E-03 6.30918E-20
2.47222E-03 5.88600E-20
2.55965E-03 5.49783E-20
2.64859E-03 5.14126E-20
2.73905E-03 4.81324E-20
2.83103E-03 4.51106E-20
2.92452E-03 4.23232E-20
3.01952E-03 3.97486E-20
3.11604E-03 3.73676E-20
3.21407E-03 3.51630E-20
3.31362E-03 3.31193E-20
3.41468E-03 3.12225E-20
3.51725E-03 2.94602E-20
3.62133E-03 2.78210E-20
3.72692E-03 2.62948E-20
3.83403E-03 2.48723E-20
3.94265E-03 2.35452E-20
4.05278E-03 2.23058E-20
4.16442E-03 2.11473E-20
4.27757E-03 2.00634E-20
4.39223E-03 1.90484E-20
4.50840E-03 1.80972E-20
4.62608E-03 1.72048E-20
4.74527E-03 1.63671E-20
4.86597E-03 1.55801E-20
4.98817E-03 1.48401E-20
5.11188E-03 1.41437E-20
5.23711E-03 1.34879E-20
5.36383E-03 1.28699E-20
5.49207E-03 1.22871E-20
5.62181E-03 1.17372E-20
5.75306E-03 1.12178E-20
5.88581E-03 1.07271E-20
6.02007E-03 1.02630E-20
6.15583E-03 9.82393E-21
6.29310E-03 9.40825E-21
6.43187E-03 9.01446E-21
6.57214E-03 8.64120E-21
6.71392E-03 8.28720E-21
6.85720E-03 7.95126E-21
7.00198E-03 7.63228E-21
7.14827E-03 7.32926E-21
7.29605E-03 7.04123E-21
7.44534E-03 6.76732E-21
7.59612E-03 6.50669E-21
7.97965E-03 5.90834E-21
8.37255E-03 5.37770E-21
8.77480E-03 4.90574E-21
9.18641E-03 4.48482E-21
9.60736E-03 4.10844E-21
1.00376E-02 3.77103E-21
1.04773E-02 3.46784E-21
1.09262E-02 3.19477E-21
1.13844E-02 2.94828E-21
1.18520E-02 2.72531E-21
1.23288E-02 2.52322E-21
1.28150E-02 2.33968E-21
1.33104E-02 2.17269E-21
1.38150E-02 2.02047E-21
1.43290E-02 1.88148E-21
1.48521E-02 1.75435E-21
1.53845E-02 1.63789E-21
1.59262E-02 1.53103E-21
1.64770E-02 1.43284E-21
1.70371E-02 1.34247E-21
1.76063E-02 1.25919E-21
1.81848E-02 1.18234E-21
1.87724E-02 1.11133E-21
1.93692E-02 1.04562E-21
1.99751E-02 9.84761E-22
2.05901E-02 9.28312E-22
2.12143E-02 8.75896E-22
2.18476E-02 8.27171E-22
2.24900E-02 7.81827E-22
2.31415E-02 7.39584E-22
2.38021E-02 7.00191E-22
2.44717E-02 6.63415E-22
2.51504E-02 6.29055E-22
2.58382E-02 5.96915E-22
2.65349E-02 5.66829E-22
2.72407E-02 5.38637E-22
2.79555E-02 5.12199E-22
2.86793E-02 4.87383E-22
2.94120E-02 4.64072E-22
3.01537E-02 4.42156E-22
3.09043E-02 4.21534E-22
3.16639E-02 4.02117E-22
3.24324E-02 3.83820E-22
3.32098E-02 3.66565E-22
3.39961E-02 3.50282E-22
3.47912E-02 3.34905E-22
3.55952E-02 3.20373E-22
3.64081E-02 3.06632E-22
3.72297E-02 2.93630E-22
3.80602E-02 2.81319E-22
3.88995E-02 2.69655E-22
3.97476E-02 2.58597E-22
4.06044E-02 2.48108E-22
4.14700E-02 2.38153E-22
4.23443E-02 2.28699E-22
4.32273E-02 2.19716E-22
4.41190E-02 2.11176E-22
4.50194E-02 2.03053E-22
4.59284E-02 1.95321E-22
4.68461E-02 1.87959E-22
4.87074E-02 1.74261E-22
5.06030E-02 1.61804E-22
5.25328E-02 1.50455E-22
5.44967E-02 1.40097E-22
5.64946E-02 1.30627E-22
5.85262E-02 1.21954E-22
6.05914E-02 1.13998E-22
6.26901E-02 1.06689E-22
6.48222E-02 9.99636E-23
6.69873E-02 9.37666E-23
6.91854E-02 8.80485E-23
7.14163E-02 8.27652E-23
7.36799E-02 7.78771E-23
7.59760E-02 7.33490E-23
7.83043E-02 6.91491E-23
8.06647E-02 6.52490E-23
8.30571E-02 6.16233E-23
8.54812E-02 5.82487E-23
8.79369E-02 5.51047E-23
9.04240E-02 5.21722E-23
9.29422E-02 4.94344E-23
9.54915E-02 4.68755E-23
9.80716E-02 4.44818E-23
1.00682E-01 4.22404E-23
1.03323E-01 4.01398E-23
1.05995E-01 3.81694E-23
1.08696E-01 3.63195E-23
1.11427E-01 3.45812E-23
1.14188E-01 3.29465E-23
1.16978E-01 3.14080E-23
1.19797E-01 2.99589E-23
1.22645E-01 2.85930E-23
1.25522E-01 2.73046E-23
1.28428E-01 2.60884E-23
1.31361E-01 2.49395E-23
1.34323E-01 2.38535E-23
1.37313E-01 2.28262E-23
1.40330E-01 2.18538E-23
1.43375E-01 2.09329E-23
1.46447E-01 2.00602E-23
1.49545E-01 1.92325E-23
1.52671E-01 1.84472E-23
1.55823E-01 1.77017E-23
1.59001E-01 1.69934E-23
1.62205E-01 1.63202E-23
1.65435E-01 1.56800E-23
1.68690E-01 1.50709E-23
1.71970E-01 1.44910E-23
1.75276E-01 1.39387E-23
1.78606E-01 1.34124E-23
1.81961E-01 1.29105E-23
1.85340E-01 1.24318E-23
1.88743E-01 1.19750E-23
1.92169E-01 1.15389E-23
1.95619E-01 1.11224E-23
1.99092E-01 1.07243E-23
2.02589E-01 1.03437E-23
2.06107E-01 9.97967E-24
2.09649E-01 9.63139E-24
2.13212E-01 9.29801E-24
2.16797E-01 8.97879E-24
2.20404E-01 8.67298E-24
2.24032E-01 8.37991E-24
2.27680E-01 8.09893E-24
2.31350E-01 7.82946E-24
2.35040E-01 7.57093E-24
2.38751E-01 7.32281E-24
2.42481E-01 7.08460E-24
2.46231E-01 6.85583E-24
2.50000E-01 6.63603E-24
2.53788E-01 6.42479E-24
2.57595E-01 6.22170E-24
2.61421E-01 6.02640E-24
2.65264E-01 5.83852E-24
2.69126E-01 5.65774E-24
2.73005E-01 5.48373E-24
2.76901E-01 5.31618E-24
2.80814E-01 5.15479E-24
2.84744E-01 4.99931E-24
2.88691E-01 4.84946E-24
2.92653E-01 4.70502E-24
2.96632E-01 4.56575E-24
3.00625E-01 4.43143E-24
3.04634E-01 4.30184E-24
3.08658E-01 4.17678E-24
3.12697E-01 4.05606E-24
3.16749E-01 3.93950E-24
3.20816E-01 3.82694E-24
3.24896E-01 3.71821E-24
3.28990E-01 3.61317E-24
3.33097E-01 3.51164E-24
3.37216E-01 3.41349E-24
3.41348E-01 3.31858E-24
3.45492E-01 3.22678E-24
3.49647E-01 3.13801E-24
3.53814E-01 3.05212E-24
3.57992E-01 2.96899E-24
3.62181E-01 2.88851E-24
3.66381E-01 2.81059E-24
3.70590E-01 2.73514E-24
3.74810E-01 2.66207E-24
3.79039E-01 2.59128E-24
3.83277E-01 2.52268E-24
3.87524E-01 2.45620E-24
3.91780E-01 2.39175E-24
3.96044E-01 2.32927E-24
4.00316E-01 2.26868E-24
4.04596E-01 2.20991E-24
4.08882E-01 2.15290E-24
4.13176E-01 2.09759E-24
4.17476E-01 2.04392E-24
4.21783E-01 1.99182E-24
4.26095E-01 1.94125E-24
4.30413E-01 1.89214E-24
4.34737E-01 1.84446E-24
4.39065E-01 1.79814E-24
4.43398E-01 1.75315E-24
4.47736E-01 1.70944E-24
4.52077E-01 1.66697E-24
4.56422E-01 1.62569E-24
4.60770E-01 1.58556E-24
4.65122E-01 1.54655E-24
4.69476E-01 1.50862E-24
4.73832E-01 1.47174E-24
4.78190E-01 1.43586E-24
4.82550E-01 1.40096E-24
4.86912E-01 1.36701E-24
4.91274E-01 1.33397E-24
4.95637E-01 1.30182E-24
5.00000E-01 1.27053E-24
5.04363E-01 1.24007E-24
5.08726E-01 1.21042E-24
5.13088E-01 1.18154E-24
5.17450E-01 1.15343E-24
5.21810E-01 1.12604E-24
5.26168E-01 1.09936E-24
5.30524E-01 1.07337E-24
5.34878E-01 1.04806E-24
5.39230E-01 1.02338E-24
5.43578E-01 9.99340E-25
5.47923E-01 9.75905E-25
5.52264E-01 9.53061E-25
5.56602E-01 9.30790E-25
5.60935E-01 9.09076E-25
5.65263E-01 8.87904E-25
5.69587E-01 8.67256E-25
5.73905E-01 8.47118E-25
5.78217E-01 8.27474E-25
5.82524E-01 8.08311E-25
5.86824E-01 7.89615E-25
5.91118E-01 7.71372E-25
5.95404E-01 7.53570E-25
5.99684E-01 7.36197E-25
6.03956E-01 7.19240E-25
6.08220E-01 7.02688E-25
6.12476E-01 6.86529E-25
6.16723E-01 6.70754E-25
6.20961E-01 6.55350E-25
6.25190E-01 6.40309E-25
6.29410E-01 6.25620E-25
6.33619E-01 6.11273E-25
6.37819E-01 5.97261E-25
6.42008E-01 5.83572E-25
6.46186E-01 5.70200E-25
6.50353E-01 5.57135E-25
6.54508E-01 5.44370E-25
6.58652E-01 5.31896E-25
6.62784E-01 5.19706E-25
6.66903E-01 5.07792E-25
6.71010E-01 4.96148E-25
6.75104E-01 4.84766E-25
6.79184E-01 4.73640E-25
6.83251E-01 4.62763E-25
6.87303E-01 4.52129E-25
6.91342E-01 4.41731E-25
6.95366E-01 4.31564E-25
6.99375E-01 4.21622E-25
7.03368E-01 4.11898E-25
7.07347E-01 4.02389E-25
7.11309E-01 3.93088E-25
7.15256E-01 3.83991E-25
7.19186E-01 3.75092E-25
7.23099E-01 3.66386E-25
7.26995E-01 3.57870E-25
7.30874E-01 3.49537E-25
7.34736E-01 3.41385E-25
7.38579E-01 3.33407E-25
7.42405E-01 3.25601E-25
7.46212E-01 3.17963E-25
7.50000E-01 3.10487E-25
7.53769E-01 3.03172E-25
7.57519E-01 2.96011E-25
7.61249E-01 2.89003E-25
7.64960E-01 2.82144E-25
7.68650E-01 2.75429E-25
7.72320E-01 2.68857E-25
7.75968E-01 2.62422E-25
7.79596E-01 2.56124E-25
7.83203E-01 2.49957E-25
7.86788E-01 2.43920E-25
7.90351E-01 2.38010E-25
7.93893E-01 2.32223E-25
7.97411E-01 2.26557E-25
8.00908E-01 2.21009E-25
8.04381E-01 2.15576E-25
8.07831E-01 2.10257E-25
8.11257E-01 2.05049E-25
8.14660E-01 1.99948E-25
8.18039E-01 1.94954E-25
8.21394E-01 1.90063E-25
8.24724E-01 1.85274E-25
8.28030E-01 1.80583E-25
8.31310E-01 1.75990E-25
8.34565E-01 1.71492E-25
8.37795E-01 1.67088E-25
8.40999E-01 1.62774E-25
8.44177E-01 1.58550E-25
8.47329E-01 1.54413E-25
8.50455E-01 1.50362E-25
8.53553E-01 1.46395E-25
8.56625E-01 1.42510E-25
8.59670E-01 1.38706E-25
8.62687E-01 1.34981E-25
8.65677E-01 1.31333E-25
8.68639E-01 1.27761E-25
8.71572E-01 1.24264E-25
8.74478E-01 1.20840E-25
8.77355E-01 1.17487E-25
8.80203E-01 1.14204E-25
8.83022E-01 1.10991E-25
8.85812E-01 1.07845E-25
8.88573E-01 1.04765E-25
8.91304E-01 1.01750E-25
8.94005E-01 9.87992E-26
8.96677E-01 9.59110E-26
8.99318E-01 9.30844E-26
9.01928E-01 9.03182E-26
9.04508E-01 8.76114E-26
9.07058E-01 8.49628E-26
9.09576E-01 8.23715E-26
9.12063E-01 7.98365E-26
9.14519E-01 7.73567E-26
9.16943E-01 7.49313E-26
9.19335E-01 7.25592E-26
9.21696E-01 7.02397E-26
9.24024E-01 6.79718E-26
9.26320E-01 6.57546E-26
9.28584E-01 6.35873E-26
9.30815E-01 6.14692E-26
9.33013E-01 5.93994E-26
9.35178E-01 5.73772E-26
9.37310E-01 5.54017E-26
9.39409E-01 5.34723E-26
9.41474E-01 5.15883E-26
9.43505E-01 4.97490E-26
9.45503E-01 4.79536E-26
9.47467E-01 4.62016E-26
9.49397E-01 4.44924E-26
9.51293E-01 4.28252E-26
9.53154E-01 4.11995E-26
9.54981E-01 3.96147E-26
9.56773E-01 3.80703E-26
9.58530E-01 3.65657E-26
9.60252E-01 3.51003E-26
9.61940E-01 3.36737E-26
9.63592E-01 3.22853E-26
9.65209E-01 3.09346E-26
9.66790E-01 2.96212E-26
9.68336E-01 2.83446E-26
9.69846E-01 2.71044E-26
9.71321E-01 2.59001E-26
9.72759E-01 2.47314E-26
9.74162E-01 2.35977E-26
9.75528E-01 2.24987E-26
9.76858E-01 2.14341E-26
9.78152E-01 2.04034E-26
9.79410E-01 1.94063E-26
9.80631E-01 1.84426E-26
9.81815E-01 1.75117E-26
9.82963E-01 1.66135E-26
9.84074E-01 1.57476E-26
9.85148E-01 1.49137E-26
9.86185E-01 1.41115E-26
9.87185E-01 1.33408E-26
9.88148E-01 1.26013E-26
9.89074E-01 1.18928E-26
9.89962E-01 1.12149E-26
9.90814E-01 1.05676E-26
9.91627E-01 9.95052E-27
9.92404E-01 9.36351E-27
9.93143E-01 8.80636E-27
9.93844E-01 8.27888E-27
9.94508E-01 7.78091E-27
9.95134E-01 7.31228E-27
9.95722E-01 6.87282E-27
9.96273E-01 6.46239E-27
9.96786E-01 6.08086E-27
9.97261E-01 5.72809E-27
9.97698E-01 5.40397E-27
9.98097E-01 5.10840E-27
9.98459E-01 4.84127E-27
9.98782E-01 4.60250E-27
9.99067E-01 4.39200E-27
9.99315E-01 4.20972E-27
9.99524E-01 4.05557E-27
9.99695E-01 3.92953E-27
9.99829E-01 3.83153E-27
9.99924E-01 3.76156E-27
9.99981E-01 3.71959E-27
1.00000E+00 3.70560E-27
