 #
 # Subroutine ELSEPA. Elastic scattering of electrons and positrons
 #                    by neutral atoms and positive ions
 #
 # Projectile: electron
 # Kinetic energy = 8.00000E+06 eV = 2.93995E+05 a.u.
 #
 # WARNING: High-energy factorization with free-atom DF screening.
 #          Absorption, polarization and exchange corrections are
 #          switched off.
 #          Phase shifts are calculated for the bare nucleus.
 #          Scattering amplitudes are not evaluated.
 #
 # Element: Rh,  Z =  45,  atomic weight = 1.02906E+02 g/mol
 #
 # Nuclear model: Fermi distribution
 #                Average radius = 5.01414E-13 cm
 #                Skin thickness = 5.46000E-14 cm
 #
 # Number of electrons = 45
 #
 # Total elastic cross section = 4.23174E-18 cm**2 = 1.51118E-01 a0**2
 # 1st transport cross section = 4.74539E-23 cm**2 = 1.69461E-06 a0**2
 # 2nd transport cross section = 1.33741E-22 cm**2 = 4.77597E-06 a0**2
 #
 #
 # Differential cross section:                       MU=(1-COS(THETA))/2
 #
 #  THETA        MU          DCS          DCS        Sherman      error
 #  (deg)                 (cm**2/sr)   (a0**2/sr)    function
 #----------------------------------------------------------------------
0.00000E+00 2.29997E-12
7.61557E-13 2.29992E-12
1.18994E-12 2.29990E-12
1.71346E-12 2.29987E-12
2.33225E-12 2.29984E-12
3.04617E-12 2.29980E-12
3.85530E-12 2.29976E-12
4.75964E-12 2.29971E-12
5.75917E-12 2.29966E-12
6.85391E-12 2.29960E-12
8.04379E-12 2.29954E-12
9.32893E-12 2.29947E-12
1.07092E-11 2.29940E-12
1.21847E-11 2.29932E-12
1.37554E-11 2.29924E-12
1.54213E-11 2.29915E-12
1.71823E-11 2.29906E-12
1.90386E-11 2.29896E-12
2.09900E-11 2.29886E-12
2.30367E-11 2.29875E-12
2.51785E-11 2.29864E-12
2.74156E-11 2.29853E-12
2.97478E-11 2.29840E-12
3.21752E-11 2.29828E-12
3.46979E-11 2.29814E-12
3.73157E-11 2.29801E-12
4.00286E-11 2.29786E-12
4.28368E-11 2.29772E-12
4.57402E-11 2.29757E-12
4.87388E-11 2.29741E-12
5.18325E-11 2.29725E-12
5.50215E-11 2.29708E-12
5.83057E-11 2.29691E-12
6.16850E-11 2.29673E-12
6.51595E-11 2.29655E-12
6.87293E-11 2.29636E-12
7.23943E-11 2.29617E-12
7.61544E-11 2.29597E-12
1.18991E-10 2.29374E-12
1.71347E-10 2.29101E-12
2.33223E-10 2.28779E-12
3.04617E-10 2.28409E-12
3.85531E-10 2.27992E-12
4.75965E-10 2.27526E-12
5.75917E-10 2.27014E-12
6.85389E-10 2.26456E-12
8.04380E-10 2.25852E-12
9.32891E-10 2.25203E-12
1.07092E-09 2.24510E-12
1.21847E-09 2.23774E-12
1.37554E-09 2.22995E-12
1.54213E-09 2.22175E-12
1.71823E-09 2.21315E-12
1.90386E-09 2.20414E-12
2.09900E-09 2.19475E-12
2.30367E-09 2.18499E-12
2.51785E-09 2.17486E-12
2.74156E-09 2.16437E-12
2.97478E-09 2.15354E-12
3.21752E-09 2.14237E-12
3.46978E-09 2.13082E-12
3.73156E-09 2.11899E-12
4.00286E-09 2.10688E-12
4.28368E-09 2.09452E-12
4.57402E-09 2.08192E-12
4.87388E-09 2.06908E-12
5.18326E-09 2.05588E-12
5.50215E-09 2.04242E-12
5.83057E-09 2.02876E-12
6.16850E-09 2.01493E-12
6.51596E-09 2.00093E-12
6.87293E-09 1.98679E-12
7.23942E-09 1.97244E-12
7.61544E-09 1.95777E-12
1.18991E-08 1.80541E-12
1.71347E-08 1.64790E-12
2.33223E-08 1.49328E-12
3.04617E-08 1.34648E-12
3.85531E-08 1.21103E-12
4.75965E-08 1.08735E-12
5.75917E-08 9.76444E-13
6.85389E-08 8.76758E-13
8.04380E-08 7.88182E-13
9.32891E-08 7.09084E-13
1.07092E-07 6.38766E-13
1.21847E-07 5.76070E-13
1.37554E-07 5.20121E-13
1.54213E-07 4.70229E-13
1.71823E-07 4.25502E-13
1.90386E-07 3.85597E-13
2.09900E-07 3.49669E-13
2.30367E-07 3.17558E-13
2.51785E-07 2.88608E-13
2.74156E-07 2.62646E-13
2.97478E-07 2.39243E-13
3.21752E-07 2.17871E-13
3.46978E-07 1.97427E-13
3.73156E-07 1.79677E-13
4.00286E-07 1.64198E-13
4.28368E-07 1.50644E-13
4.57402E-07 1.38726E-13
4.87388E-07 1.28207E-13
5.18325E-07 1.17716E-13
5.50215E-07 1.07985E-13
5.83057E-07 9.93645E-14
6.16850E-07 9.17025E-14
6.51596E-07 8.48710E-14
6.87293E-07 7.87615E-14
7.23942E-07 7.31360E-14
7.61543E-07 6.76671E-14
1.18991E-06 3.41854E-14
1.71347E-06 1.93705E-14
2.33223E-06 1.19942E-14
3.04617E-06 7.89669E-15
3.85531E-06 5.43129E-15
4.75964E-06 3.84190E-15
5.75916E-06 2.78531E-15
6.85388E-06 2.05566E-15
8.04378E-06 1.54571E-15
9.32888E-06 1.18019E-15
1.07092E-05 9.15609E-16
1.21846E-05 7.20846E-16
1.37553E-05 5.75245E-16
1.54212E-05 4.64765E-16
1.71822E-05 3.79722E-16
1.90385E-05 3.13422E-16
2.09899E-05 2.61264E-16
2.30365E-05 2.19664E-16
2.51783E-05 1.86082E-16
2.74153E-05 1.58724E-16
2.97475E-05 1.36229E-16
3.21749E-05 1.17587E-16
3.46974E-05 1.02004E-16
3.73152E-05 8.90039E-17
4.00281E-05 7.79886E-17
4.28362E-05 6.86195E-17
4.57395E-05 6.06569E-17
4.87380E-05 5.37523E-17
5.18317E-05 4.78253E-17
5.50205E-05 4.26879E-17
5.83045E-05 3.82064E-17
6.16838E-05 3.43116E-17
6.51582E-05 3.08823E-17
6.87277E-05 2.78747E-17
7.23925E-05 2.52269E-17
7.61524E-05 2.28771E-17
9.21439E-05 1.58215E-17
1.09658E-04 1.12762E-17
1.28695E-04 8.25122E-18
1.49255E-04 6.17419E-18
1.71338E-04 4.71203E-18
1.94942E-04 3.65843E-18
2.20070E-04 2.88397E-18
2.46720E-04 2.30444E-18
2.74892E-04 1.86367E-18
3.04586E-04 1.52372E-18
3.35803E-04 1.25798E-18
3.68542E-04 1.04789E-18
4.02802E-04 8.79965E-19
4.38585E-04 7.44447E-19
4.75889E-04 6.34094E-19
5.14715E-04 5.43490E-19
5.55063E-04 4.68539E-19
5.96931E-04 4.06095E-19
6.40321E-04 3.53736E-19
6.85233E-04 3.09563E-19
7.31665E-04 2.72088E-19
7.79618E-04 2.40123E-19
8.29092E-04 2.12727E-19
8.80086E-04 1.89134E-19
9.32601E-04 1.68730E-19
9.86636E-04 1.51008E-19
1.04219E-03 1.35558E-19
1.09927E-03 1.22037E-19
1.15786E-03 1.10164E-19
1.21797E-03 9.97031E-20
1.27961E-03 9.04571E-20
1.34276E-03 8.22611E-20
1.40743E-03 7.49742E-20
1.47362E-03 6.84786E-20
1.54133E-03 6.26730E-20
1.61056E-03 5.74713E-20
1.68131E-03 5.27996E-20
1.75357E-03 4.85942E-20
1.82735E-03 4.48005E-20
1.90265E-03 4.13708E-20
1.97947E-03 3.82642E-20
2.05780E-03 3.54445E-20
2.13765E-03 3.28807E-20
2.21902E-03 3.05452E-20
2.30190E-03 2.84142E-20
2.38630E-03 2.64664E-20
2.47222E-03 2.46833E-20
2.55965E-03 2.30484E-20
2.64859E-03 2.15471E-20
2.73905E-03 2.01666E-20
2.83103E-03 1.88953E-20
2.92452E-03 1.77230E-20
3.01952E-03 1.66406E-20
3.11604E-03 1.56400E-20
3.21407E-03 1.47137E-20
3.31362E-03 1.38554E-20
3.41468E-03 1.30589E-20
3.51725E-03 1.23192E-20
3.62133E-03 1.16314E-20
3.72692E-03 1.09911E-20
3.83403E-03 1.03945E-20
3.94265E-03 9.83804E-21
4.05278E-03 9.31852E-21
4.16442E-03 8.83303E-21
4.27757E-03 8.37890E-21
4.39223E-03 7.95375E-21
4.50840E-03 7.55537E-21
4.62608E-03 7.18176E-21
4.74527E-03 6.83110E-21
4.86597E-03 6.50169E-21
4.98817E-03 6.19203E-21
5.11188E-03 5.90070E-21
5.23711E-03 5.62639E-21
5.36383E-03 5.36795E-21
5.49207E-03 5.12427E-21
5.62181E-03 4.89434E-21
5.75306E-03 4.67726E-21
5.88581E-03 4.47215E-21
6.02007E-03 4.27824E-21
6.15583E-03 4.09480E-21
6.29310E-03 3.92115E-21
6.43187E-03 3.75667E-21
6.57214E-03 3.60078E-21
6.71392E-03 3.45296E-21
6.85720E-03 3.31270E-21
7.00198E-03 3.17954E-21
7.14827E-03 3.05305E-21
7.29605E-03 2.93284E-21
7.44534E-03 2.81852E-21
7.59612E-03 2.70977E-21
7.97965E-03 2.46014E-21
8.37255E-03 2.23881E-21
8.77480E-03 2.04200E-21
9.18641E-03 1.86652E-21
9.60736E-03 1.70963E-21
1.00376E-02 1.56902E-21
1.04773E-02 1.44269E-21
1.09262E-02 1.32893E-21
1.13844E-02 1.22626E-21
1.18520E-02 1.13340E-21
1.23288E-02 1.04924E-21
1.28150E-02 9.72825E-22
1.33104E-02 9.03304E-22
1.38150E-02 8.39942E-22
1.43290E-02 7.82092E-22
1.48521E-02 7.29185E-22
1.53845E-02 6.80722E-22
1.59262E-02 6.36259E-22
1.64770E-02 5.95404E-22
1.70371E-02 5.57810E-22
1.76063E-02 5.23168E-22
1.81848E-02 4.91202E-22
1.87724E-02 4.61666E-22
1.93692E-02 4.34342E-22
1.99751E-02 4.09031E-22
2.05901E-02 3.85557E-22
2.12143E-02 3.63763E-22
2.18476E-02 3.43504E-22
2.24900E-02 3.24652E-22
2.31415E-02 3.07090E-22
2.38021E-02 2.90714E-22
2.44717E-02 2.75428E-22
2.51504E-02 2.61145E-22
2.58382E-02 2.47787E-22
2.65349E-02 2.35282E-22
2.72407E-02 2.23566E-22
2.79555E-02 2.12579E-22
2.86793E-02 2.02267E-22
2.94120E-02 1.92580E-22
3.01537E-02 1.83473E-22
3.09043E-02 1.74905E-22
3.16639E-02 1.66838E-22
3.24324E-02 1.59236E-22
3.32098E-02 1.52068E-22
3.39961E-02 1.45303E-22
3.47912E-02 1.38915E-22
3.55952E-02 1.32879E-22
3.64081E-02 1.27171E-22
3.72297E-02 1.21771E-22
3.80602E-02 1.16658E-22
3.88995E-02 1.11813E-22
3.97476E-02 1.07221E-22
4.06044E-02 1.02865E-22
4.14700E-02 9.87310E-23
4.23443E-02 9.48052E-23
4.32273E-02 9.10751E-23
4.41190E-02 8.75290E-23
4.50194E-02 8.41561E-23
4.59284E-02 8.09462E-23
4.68461E-02 7.78897E-23
4.87074E-02 7.22027E-23
5.06030E-02 6.70317E-23
5.25328E-02 6.23211E-23
5.44967E-02 5.80220E-23
5.64946E-02 5.40916E-23
5.85262E-02 5.04923E-23
6.05914E-02 4.71910E-23
6.26901E-02 4.41584E-23
6.48222E-02 4.13682E-23
6.69873E-02 3.87973E-23
6.91854E-02 3.64254E-23
7.14163E-02 3.42340E-23
7.36799E-02 3.22067E-23
7.59760E-02 3.03288E-23
7.83043E-02 2.85873E-23
8.06647E-02 2.69703E-23
8.30571E-02 2.54671E-23
8.54812E-02 2.40682E-23
8.79369E-02 2.27649E-23
9.04240E-02 2.15494E-23
9.29422E-02 2.04148E-23
9.54915E-02 1.93544E-23
9.80716E-02 1.83626E-23
1.00682E-01 1.74340E-23
1.03323E-01 1.65638E-23
1.05995E-01 1.57476E-23
1.08696E-01 1.49813E-23
1.11427E-01 1.42615E-23
1.14188E-01 1.35846E-23
1.16978E-01 1.29476E-23
1.19797E-01 1.23477E-23
1.22645E-01 1.17822E-23
1.25522E-01 1.12490E-23
1.28428E-01 1.07457E-23
1.31361E-01 1.02702E-23
1.34323E-01 9.82086E-24
1.37313E-01 9.39591E-24
1.40330E-01 8.99373E-24
1.43375E-01 8.61276E-24
1.46447E-01 8.25186E-24
1.49545E-01 7.90967E-24
1.52671E-01 7.58496E-24
1.55823E-01 7.27673E-24
1.59001E-01 6.98400E-24
1.62205E-01 6.70580E-24
1.65435E-01 6.44125E-24
1.68690E-01 6.18957E-24
1.71970E-01 5.95002E-24
1.75276E-01 5.72189E-24
1.78606E-01 5.50450E-24
1.81961E-01 5.29728E-24
1.85340E-01 5.09966E-24
1.88743E-01 4.91109E-24
1.92169E-01 4.73107E-24
1.95619E-01 4.55915E-24
1.99092E-01 4.39489E-24
2.02589E-01 4.23787E-24
2.06107E-01 4.08772E-24
2.09649E-01 3.94408E-24
2.13212E-01 3.80661E-24
2.16797E-01 3.67498E-24
2.20404E-01 3.54891E-24
2.24032E-01 3.42811E-24
2.27680E-01 3.31233E-24
2.31350E-01 3.20129E-24
2.35040E-01 3.09479E-24
2.38751E-01 2.99259E-24
2.42481E-01 2.89449E-24
2.46231E-01 2.80028E-24
2.50000E-01 2.70979E-24
2.53788E-01 2.62284E-24
2.57595E-01 2.53926E-24
2.61421E-01 2.45889E-24
2.65264E-01 2.38160E-24
2.69126E-01 2.30723E-24
2.73005E-01 2.23566E-24
2.76901E-01 2.16677E-24
2.80814E-01 2.10042E-24
2.84744E-01 2.03651E-24
2.88691E-01 1.97493E-24
2.92653E-01 1.91558E-24
2.96632E-01 1.85837E-24
3.00625E-01 1.80320E-24
3.04634E-01 1.74998E-24
3.08658E-01 1.69863E-24
3.12697E-01 1.64908E-24
3.16749E-01 1.60125E-24
3.20816E-01 1.55506E-24
3.24896E-01 1.51046E-24
3.28990E-01 1.46737E-24
3.33097E-01 1.42573E-24
3.37216E-01 1.38549E-24
3.41348E-01 1.34659E-24
3.45492E-01 1.30897E-24
3.49647E-01 1.27260E-24
3.53814E-01 1.23741E-24
3.57992E-01 1.20336E-24
3.62181E-01 1.17041E-24
3.66381E-01 1.13851E-24
3.70590E-01 1.10763E-24
3.74810E-01 1.07772E-24
3.79039E-01 1.04876E-24
3.83277E-01 1.02070E-24
3.87524E-01 9.93512E-25
3.91780E-01 9.67163E-25
3.96044E-01 9.41622E-25
4.00316E-01 9.16861E-25
4.04596E-01 8.92850E-25
4.08882E-01 8.69563E-25
4.13176E-01 8.46974E-25
4.17476E-01 8.25058E-25
4.21783E-01 8.03791E-25
4.26095E-01 7.83151E-25
4.30413E-01 7.63116E-25
4.34737E-01 7.43664E-25
4.39065E-01 7.24776E-25
4.43398E-01 7.06432E-25
4.47736E-01 6.88614E-25
4.52077E-01 6.71303E-25
4.56422E-01 6.54484E-25
4.60770E-01 6.38139E-25
4.65122E-01 6.22253E-25
4.69476E-01 6.06810E-25
4.73832E-01 5.91795E-25
4.78190E-01 5.77196E-25
4.82550E-01 5.62998E-25
4.86912E-01 5.49188E-25
4.91274E-01 5.35754E-25
4.95637E-01 5.22684E-25
5.00000E-01 5.09966E-25
5.04363E-01 4.97588E-25
5.08726E-01 4.85541E-25
5.13088E-01 4.73814E-25
5.17450E-01 4.62397E-25
5.21810E-01 4.51281E-25
5.26168E-01 4.40455E-25
5.30524E-01 4.29912E-25
5.34878E-01 4.19642E-25
5.39230E-01 4.09637E-25
5.43578E-01 3.99889E-25
5.47923E-01 3.90391E-25
5.52264E-01 3.81135E-25
5.56602E-01 3.72114E-25
5.60935E-01 3.63321E-25
5.65263E-01 3.54748E-25
5.69587E-01 3.46391E-25
5.73905E-01 3.38242E-25
5.78217E-01 3.30295E-25
5.82524E-01 3.22545E-25
5.86824E-01 3.14986E-25
5.91118E-01 3.07612E-25
5.95404E-01 3.00418E-25
5.99684E-01 2.93399E-25
6.03956E-01 2.86550E-25
6.08220E-01 2.79867E-25
6.12476E-01 2.73345E-25
6.16723E-01 2.66978E-25
6.20961E-01 2.60764E-25
6.25190E-01 2.54697E-25
6.29410E-01 2.48775E-25
6.33619E-01 2.42991E-25
6.37819E-01 2.37344E-25
6.42008E-01 2.31830E-25
6.46186E-01 2.26444E-25
6.50353E-01 2.21183E-25
6.54508E-01 2.16044E-25
6.58652E-01 2.11024E-25
6.62784E-01 2.06120E-25
6.66903E-01 2.01328E-25
6.71010E-01 1.96646E-25
6.75104E-01 1.92071E-25
6.79184E-01 1.87599E-25
6.83251E-01 1.83230E-25
6.87303E-01 1.78958E-25
6.91342E-01 1.74783E-25
6.95366E-01 1.70702E-25
6.99375E-01 1.66712E-25
7.03368E-01 1.62811E-25
7.07347E-01 1.58997E-25
7.11309E-01 1.55268E-25
7.15256E-01 1.51621E-25
7.19186E-01 1.48055E-25
7.23099E-01 1.44567E-25
7.26995E-01 1.41156E-25
7.30874E-01 1.37820E-25
7.34736E-01 1.34557E-25
7.38579E-01 1.31364E-25
7.42405E-01 1.28241E-25
7.46212E-01 1.25186E-25
7.50000E-01 1.22197E-25
7.53769E-01 1.19273E-25
7.57519E-01 1.16412E-25
7.61249E-01 1.13612E-25
7.64960E-01 1.10872E-25
7.68650E-01 1.08191E-25
7.72320E-01 1.05568E-25
7.75968E-01 1.03000E-25
7.79596E-01 1.00488E-25
7.83203E-01 9.80283E-26
7.86788E-01 9.56212E-26
7.90351E-01 9.32652E-26
7.93893E-01 9.09591E-26
7.97411E-01 8.87018E-26
8.00908E-01 8.64923E-26
8.04381E-01 8.43293E-26
8.07831E-01 8.22120E-26
8.11257E-01 8.01392E-26
8.14660E-01 7.81101E-26
8.18039E-01 7.61237E-26
8.21394E-01 7.41790E-26
8.24724E-01 7.22751E-26
8.28030E-01 7.04112E-26
8.31310E-01 6.85864E-26
8.34565E-01 6.67999E-26
8.37795E-01 6.50508E-26
8.40999E-01 6.33384E-26
8.44177E-01 6.16619E-26
8.47329E-01 6.00206E-26
8.50455E-01 5.84137E-26
8.53553E-01 5.68405E-26
8.56625E-01 5.53003E-26
8.59670E-01 5.37925E-26
8.62687E-01 5.23164E-26
8.65677E-01 5.08714E-26
8.68639E-01 4.94567E-26
8.71572E-01 4.80720E-26
8.74478E-01 4.67165E-26
8.77355E-01 4.53896E-26
8.80203E-01 4.40909E-26
8.83022E-01 4.28197E-26
8.85812E-01 4.15755E-26
8.88573E-01 4.03579E-26
8.91304E-01 3.91663E-26
8.94005E-01 3.80002E-26
8.96677E-01 3.68592E-26
8.99318E-01 3.57427E-26
9.01928E-01 3.46504E-26
9.04508E-01 3.35817E-26
9.07058E-01 3.25363E-26
9.09576E-01 3.15138E-26
9.12063E-01 3.05136E-26
9.14519E-01 2.95355E-26
9.16943E-01 2.85790E-26
9.19335E-01 2.76438E-26
9.21696E-01 2.67295E-26
9.24024E-01 2.58358E-26
9.26320E-01 2.49622E-26
9.28584E-01 2.41085E-26
9.30815E-01 2.32743E-26
9.33013E-01 2.24593E-26
9.35178E-01 2.16631E-26
9.37310E-01 2.08856E-26
9.39409E-01 2.01264E-26
9.41474E-01 1.93851E-26
9.43505E-01 1.86616E-26
9.45503E-01 1.79555E-26
9.47467E-01 1.72666E-26
9.49397E-01 1.65946E-26
9.51293E-01 1.59393E-26
9.53154E-01 1.53004E-26
9.54981E-01 1.46777E-26
9.56773E-01 1.40709E-26
9.58530E-01 1.34799E-26
9.60252E-01 1.29044E-26
9.61940E-01 1.23442E-26
9.63592E-01 1.17991E-26
9.65209E-01 1.12689E-26
9.66790E-01 1.07535E-26
9.68336E-01 1.02525E-26
9.69846E-01 9.76591E-27
9.71321E-01 9.29346E-27
9.72759E-01 8.83502E-27
9.74162E-01 8.39040E-27
9.75528E-01 7.95946E-27
9.76858E-01 7.54204E-27
9.78152E-01 7.13799E-27
9.79410E-01 6.74716E-27
9.80631E-01 6.36942E-27
9.81815E-01 6.00463E-27
9.82963E-01 5.65267E-27
9.84074E-01 5.31341E-27
9.85148E-01 4.98673E-27
9.86185E-01 4.67251E-27
9.87185E-01 4.37065E-27
9.88148E-01 4.08104E-27
9.89074E-01 3.80358E-27
9.89962E-01 3.53817E-27
9.90814E-01 3.28473E-27
9.91627E-01 3.04315E-27
9.92404E-01 2.81336E-27
9.93143E-01 2.59527E-27
9.93844E-01 2.38882E-27
9.94508E-01 2.19393E-27
9.95134E-01 2.01053E-27
9.95722E-01 1.83856E-27
9.96273E-01 1.67796E-27
9.96786E-01 1.52867E-27
9.97261E-01 1.39065E-27
9.97698E-01 1.26384E-27
9.98097E-01 1.14821E-27
9.98459E-01 1.04370E-27
9.98782E-01 9.50297E-28
9.99067E-01 8.67955E-28
9.99315E-01 7.96649E-28
9.99524E-01 7.36354E-28
9.99695E-01 6.87050E-28
9.99829E-01 6.48720E-28
9.99924E-01 6.21351E-28
9.99981E-01 6.04933E-28
1.00000E+00 5.99461E-28
