 #
 # Subroutine ELSEPA. Elastic scattering of electrons and positrons
 #                    by neutral atoms and positive ions
 #
 # Projectile: electron
 # Kinetic energy = 5.00000E+07 eV = 1.83747E+06 a.u.
 #
 # WARNING: High-energy factorization with free-atom DF screening.
 #          Absorption, polarization and exchange corrections are
 #          switched off.
 #          Phase shifts are calculated for the bare nucleus.
 #          Scattering amplitudes are not evaluated.
 #
 # Element: Rh,  Z =  45,  atomic weight = 1.02906E+02 g/mol
 #
 # Nuclear model: Fermi distribution
 #                Average radius = 5.01414E-13 cm
 #                Skin thickness = 5.46000E-14 cm
 #
 # Number of electrons = 45
 #
 # Total elastic cross section = 4.21057E-18 cm**2 = 1.50362E-01 a0**2
 # 1st transport cross section = 1.57069E-24 cm**2 = 5.60905E-08 a0**2
 # 2nd transport cross section = 4.60230E-24 cm**2 = 1.64351E-07 a0**2
 #
 #
 # Differential cross section:                       MU=(1-COS(THETA))/2
 #
 #  THETA        MU          DCS          DCS        Sherman      error
 #  (deg)                 (cm**2/sr)   (a0**2/sr)    function
 #----------------------------------------------------------------------
0.00000E+00 8.10088E-11
7.61557E-13 8.09587E-11
1.18994E-12 8.09307E-11
1.71346E-12 8.08965E-11
2.33225E-12 8.08562E-11
3.04617E-12 8.08097E-11
3.85530E-12 8.07571E-11
4.75964E-12 8.06984E-11
5.75917E-12 8.06336E-11
6.85391E-12 8.05628E-11
8.04379E-12 8.04859E-11
9.32893E-12 8.04031E-11
1.07092E-11 8.03144E-11
1.21847E-11 8.02197E-11
1.37554E-11 8.01191E-11
1.54213E-11 8.00127E-11
1.71823E-11 7.99006E-11
1.90386E-11 7.97827E-11
2.09900E-11 7.96592E-11
2.30367E-11 7.95300E-11
2.51785E-11 7.93952E-11
2.74156E-11 7.92549E-11
2.97478E-11 7.91092E-11
3.21752E-11 7.89580E-11
3.46979E-11 7.88015E-11
3.73157E-11 7.86397E-11
4.00286E-11 7.84727E-11
4.28368E-11 7.83006E-11
4.57402E-11 7.81234E-11
4.87388E-11 7.79412E-11
5.18325E-11 7.77541E-11
5.50215E-11 7.75621E-11
5.83057E-11 7.73654E-11
6.16850E-11 7.71639E-11
6.51595E-11 7.69578E-11
6.87293E-11 7.67472E-11
7.23943E-11 7.65321E-11
7.61544E-11 7.63126E-11
1.18991E-10 7.38899E-11
1.71347E-10 7.11267E-11
2.33223E-10 6.81087E-11
3.04617E-10 6.49217E-11
3.85531E-10 6.16438E-11
4.75965E-10 5.83427E-11
5.75917E-10 5.50742E-11
6.85389E-10 5.18820E-11
8.04380E-10 4.87954E-11
9.32891E-10 4.58360E-11
1.07092E-09 4.30221E-11
1.21847E-09 4.03612E-11
1.37554E-09 3.78555E-11
1.54213E-09 3.55034E-11
1.71823E-09 3.33005E-11
1.90386E-09 3.12407E-11
2.09900E-09 2.93168E-11
2.30367E-09 2.75208E-11
2.51785E-09 2.58447E-11
2.74156E-09 2.42807E-11
2.97478E-09 2.28210E-11
3.21752E-09 2.14549E-11
3.46978E-09 2.01789E-11
3.73156E-09 1.89869E-11
4.00286E-09 1.78731E-11
4.28368E-09 1.68318E-11
4.57402E-09 1.58578E-11
4.87388E-09 1.49464E-11
5.18326E-09 1.40931E-11
5.50215E-09 1.32939E-11
5.83057E-09 1.25450E-11
6.16850E-09 1.18430E-11
6.51596E-09 1.11846E-11
6.87293E-09 1.05665E-11
7.23942E-09 9.98549E-12
7.61544E-09 9.44014E-12
1.18991E-08 5.42844E-12
1.71347E-08 3.31363E-12
2.33223E-08 2.11121E-12
3.04617E-08 1.40481E-12
3.85531E-08 9.74437E-13
4.75965E-08 7.01658E-13
5.75917E-08 5.21606E-13
6.85389E-08 3.98011E-13
8.04380E-08 3.09982E-13
9.32891E-08 2.45314E-13
1.07092E-07 1.96715E-13
1.21847E-07 1.59457E-13
1.37554E-07 1.30439E-13
1.54213E-07 1.07552E-13
1.71823E-07 8.93172E-14
1.90386E-07 7.46659E-14
2.09900E-07 6.28127E-14
2.30367E-07 5.31572E-14
2.51785E-07 4.52304E-14
2.74156E-07 3.87029E-14
2.97478E-07 3.32990E-14
3.21752E-07 2.87983E-14
3.46978E-07 2.50319E-14
3.73156E-07 2.18623E-14
4.00286E-07 1.91804E-14
4.28368E-07 1.68994E-14
4.57402E-07 1.49499E-14
4.87388E-07 1.32760E-14
5.18325E-07 1.18326E-14
5.50215E-07 1.05827E-14
5.83057E-07 9.49591E-15
6.16850E-07 8.54723E-15
6.51596E-07 7.71580E-15
6.87293E-07 6.98428E-15
7.23942E-07 6.33821E-15
7.61543E-07 5.76576E-15
1.18991E-06 2.49206E-15
1.71347E-06 1.24554E-15
2.33223E-06 6.87575E-16
3.04617E-06 4.08957E-16
3.85531E-06 2.57986E-16
4.75964E-06 1.70635E-16
5.75916E-06 1.17315E-16
6.85388E-06 8.33057E-17
8.04378E-06 6.07881E-17
9.32888E-06 4.53977E-17
1.07092E-05 3.45892E-17
1.21846E-05 2.68175E-17
1.37553E-05 2.11126E-17
1.54212E-05 1.68479E-17
1.71822E-05 1.36081E-17
1.90385E-05 1.11089E-17
2.09899E-05 9.16213E-18
2.30365E-05 7.62326E-18
2.51783E-05 6.39350E-18
2.74153E-05 5.40128E-18
2.97475E-05 4.59389E-18
3.21749E-05 3.93180E-18
3.46974E-05 3.38491E-18
3.73152E-05 2.93003E-18
4.00281E-05 2.54920E-18
4.28362E-05 2.22833E-18
4.57395E-05 1.95636E-18
4.87380E-05 1.72459E-18
5.18317E-05 1.52607E-18
5.50205E-05 1.35526E-18
5.83045E-05 1.20766E-18
6.16838E-05 1.07962E-18
6.51582E-05 9.68123E-19
6.87277E-05 8.70676E-19
7.23925E-05 7.85202E-19
7.61524E-05 7.10136E-19
9.21439E-05 4.85946E-19
1.09658E-04 3.43645E-19
1.28695E-04 2.49852E-19
1.49255E-04 1.85982E-19
1.71338E-04 1.41294E-19
1.94942E-04 1.09262E-19
2.20070E-04 8.58206E-20
2.46720E-04 6.83471E-20
2.74892E-04 5.51057E-20
3.04586E-04 4.49250E-20
3.35803E-04 3.69924E-20
3.68542E-04 3.07381E-20
4.02802E-04 2.57530E-20
4.38585E-04 2.17400E-20
4.75889E-04 1.84802E-20
5.14715E-04 1.58100E-20
5.55063E-04 1.36059E-20
5.96931E-04 1.17734E-20
6.40321E-04 1.02399E-20
6.85233E-04 8.94853E-21
7.31665E-04 7.85485E-21
7.79618E-04 6.92359E-21
8.29092E-04 6.12661E-21
8.80086E-04 5.44133E-21
9.32601E-04 4.84944E-21
9.86636E-04 4.33605E-21
1.04219E-03 3.88901E-21
1.09927E-03 3.49825E-21
1.15786E-03 3.15548E-21
1.21797E-03 2.85378E-21
1.27961E-03 2.58739E-21
1.34276E-03 2.35145E-21
1.40743E-03 2.14187E-21
1.47362E-03 1.95519E-21
1.54133E-03 1.78847E-21
1.61056E-03 1.63920E-21
1.68131E-03 1.50522E-21
1.75357E-03 1.38470E-21
1.82735E-03 1.27604E-21
1.90265E-03 1.17786E-21
1.97947E-03 1.08898E-21
2.05780E-03 1.00835E-21
2.13765E-03 9.35067E-22
2.21902E-03 8.68344E-22
2.30190E-03 8.07489E-22
2.38630E-03 7.51890E-22
2.47222E-03 7.01008E-22
2.55965E-03 6.54375E-22
2.64859E-03 6.11569E-22
2.73905E-03 5.72217E-22
2.83103E-03 5.35991E-22
2.92452E-03 5.02598E-22
3.01952E-03 4.71773E-22
3.11604E-03 4.43283E-22
3.21407E-03 4.16921E-22
3.31362E-03 3.92496E-22
3.41468E-03 3.69839E-22
3.51725E-03 3.48800E-22
3.62133E-03 3.29243E-22
3.72692E-03 3.11040E-22
3.83403E-03 2.94083E-22
3.94265E-03 2.78272E-22
4.05278E-03 2.63509E-22
4.16442E-03 2.49719E-22
4.27757E-03 2.36822E-22
4.39223E-03 2.24749E-22
4.50840E-03 2.13440E-22
4.62608E-03 2.02835E-22
4.74527E-03 1.92882E-22
4.86597E-03 1.83536E-22
4.98817E-03 1.74750E-22
5.11188E-03 1.66485E-22
5.23711E-03 1.58706E-22
5.36383E-03 1.51377E-22
5.49207E-03 1.44467E-22
5.62181E-03 1.37949E-22
5.75306E-03 1.31796E-22
5.88581E-03 1.25982E-22
6.02007E-03 1.20488E-22
6.15583E-03 1.15290E-22
6.29310E-03 1.10370E-22
6.43187E-03 1.05712E-22
6.57214E-03 1.01297E-22
6.71392E-03 9.71105E-23
6.85720E-03 9.31391E-23
7.00198E-03 8.93692E-23
7.14827E-03 8.57887E-23
7.29605E-03 8.23862E-23
7.44534E-03 7.91512E-23
7.59612E-03 7.60738E-23
7.97965E-03 6.90118E-23
8.37255E-03 6.27526E-23
8.77480E-03 5.71888E-23
9.18641E-03 5.22295E-23
9.60736E-03 4.77974E-23
1.00376E-02 4.38265E-23
1.04773E-02 4.02601E-23
1.09262E-02 3.70498E-23
1.13844E-02 3.41536E-23
1.18520E-02 3.15352E-23
1.23288E-02 2.91631E-23
1.28150E-02 2.70101E-23
1.33104E-02 2.50522E-23
1.38150E-02 2.32685E-23
1.43290E-02 2.16408E-23
1.48521E-02 2.01528E-23
1.53845E-02 1.87904E-23
1.59262E-02 1.75411E-23
1.64770E-02 1.63938E-23
1.70371E-02 1.53386E-23
1.76063E-02 1.43667E-23
1.81848E-02 1.34705E-23
1.87724E-02 1.26428E-23
1.93692E-02 1.18775E-23
1.99751E-02 1.11691E-23
2.05901E-02 1.05124E-23
2.12143E-02 9.90314E-24
2.18476E-02 9.33715E-24
2.24900E-02 8.81080E-24
2.31415E-02 8.32082E-24
2.38021E-02 7.86421E-24
2.44717E-02 7.43829E-24
2.51504E-02 7.04062E-24
2.58382E-02 6.66897E-24
2.65349E-02 6.32132E-24
2.72407E-02 5.99585E-24
2.79555E-02 5.69086E-24
2.86793E-02 5.40484E-24
2.94120E-02 5.13639E-24
3.01537E-02 4.88422E-24
3.09043E-02 4.64716E-24
3.16639E-02 4.42415E-24
3.24324E-02 4.21420E-24
3.32098E-02 4.01639E-24
3.39961E-02 3.82991E-24
3.47912E-02 3.65397E-24
3.55952E-02 3.48788E-24
3.64081E-02 3.33097E-24
3.72297E-02 3.18266E-24
3.80602E-02 3.04237E-24
3.88995E-02 2.90960E-24
3.97476E-02 2.78387E-24
4.06044E-02 2.66474E-24
4.14700E-02 2.55180E-24
4.23443E-02 2.44466E-24
4.32273E-02 2.34297E-24
4.41190E-02 2.24641E-24
4.50194E-02 2.15467E-24
4.59284E-02 2.06747E-24
4.68461E-02 1.98453E-24
4.87074E-02 1.83049E-24
5.06030E-02 1.69077E-24
5.25328E-02 1.56381E-24
5.44967E-02 1.44825E-24
5.64946E-02 1.34287E-24
5.85262E-02 1.24665E-24
6.05914E-02 1.15863E-24
6.26901E-02 1.07801E-24
6.48222E-02 1.00406E-24
6.69873E-02 9.36124E-25
6.91854E-02 8.73641E-25
7.14163E-02 8.16096E-25
7.36799E-02 7.63034E-25
7.59760E-02 7.14046E-25
7.83043E-02 6.68768E-25
8.06647E-02 6.26872E-25
8.30571E-02 5.88063E-25
8.54812E-02 5.52077E-25
8.79369E-02 5.18675E-25
9.04240E-02 4.87640E-25
9.29422E-02 4.58778E-25
9.54915E-02 4.31912E-25
9.80716E-02 4.06881E-25
1.00682E-01 3.83541E-25
1.03323E-01 3.61758E-25
1.05995E-01 3.41412E-25
1.08696E-01 3.22394E-25
1.11427E-01 3.04603E-25
1.14188E-01 2.87947E-25
1.16978E-01 2.72344E-25
1.19797E-01 2.57716E-25
1.22645E-01 2.43992E-25
1.25522E-01 2.31109E-25
1.28428E-01 2.19007E-25
1.31361E-01 2.07632E-25
1.34323E-01 1.96933E-25
1.37313E-01 1.86865E-25
1.40330E-01 1.77384E-25
1.43375E-01 1.68452E-25
1.46447E-01 1.60031E-25
1.49545E-01 1.52089E-25
1.52671E-01 1.44594E-25
1.55823E-01 1.37518E-25
1.59001E-01 1.30834E-25
1.62205E-01 1.24517E-25
1.65435E-01 1.18544E-25
1.68690E-01 1.12894E-25
1.71970E-01 1.07547E-25
1.75276E-01 1.02485E-25
1.78606E-01 9.76897E-26
1.81961E-01 9.31460E-26
1.85340E-01 8.88388E-26
1.88743E-01 8.47541E-26
1.92169E-01 8.08790E-26
1.95619E-01 7.72013E-26
1.99092E-01 7.37097E-26
2.02589E-01 7.03936E-26
2.06107E-01 6.72431E-26
2.09649E-01 6.42488E-26
2.13212E-01 6.14020E-26
2.16797E-01 5.86947E-26
2.20404E-01 5.61192E-26
2.24032E-01 5.36682E-26
2.27680E-01 5.13351E-26
2.31350E-01 4.91135E-26
2.35040E-01 4.69975E-26
2.38751E-01 4.49815E-26
2.42481E-01 4.30602E-26
2.46231E-01 4.12287E-26
2.50000E-01 3.94823E-26
2.53788E-01 3.78167E-26
2.57595E-01 3.62276E-26
2.61421E-01 3.47113E-26
2.65264E-01 3.32639E-26
2.69126E-01 3.18822E-26
2.73005E-01 3.05626E-26
2.76901E-01 2.93023E-26
2.80814E-01 2.80982E-26
2.84744E-01 2.69476E-26
2.88691E-01 2.58480E-26
2.92653E-01 2.47967E-26
2.96632E-01 2.37915E-26
3.00625E-01 2.28301E-26
3.04634E-01 2.19106E-26
3.08658E-01 2.10308E-26
3.12697E-01 2.01889E-26
3.16749E-01 1.93832E-26
3.20816E-01 1.86119E-26
3.24896E-01 1.78734E-26
3.28990E-01 1.71662E-26
3.33097E-01 1.64889E-26
3.37216E-01 1.58402E-26
3.41348E-01 1.52186E-26
3.45492E-01 1.46230E-26
3.49647E-01 1.40521E-26
3.53814E-01 1.35050E-26
3.57992E-01 1.29805E-26
3.62181E-01 1.24776E-26
3.66381E-01 1.19953E-26
3.70590E-01 1.15328E-26
3.74810E-01 1.10891E-26
3.79039E-01 1.06635E-26
3.83277E-01 1.02552E-26
3.87524E-01 9.86331E-27
3.91780E-01 9.48724E-27
3.96044E-01 9.12628E-27
4.00316E-01 8.77978E-27
4.04596E-01 8.44711E-27
4.08882E-01 8.12770E-27
4.13176E-01 7.82097E-27
4.17476E-01 7.52639E-27
4.21783E-01 7.24344E-27
4.26095E-01 6.97165E-27
4.30413E-01 6.71053E-27
4.34737E-01 6.45965E-27
4.39065E-01 6.21857E-27
4.43398E-01 5.98690E-27
4.47736E-01 5.76424E-27
4.52077E-01 5.55023E-27
4.56422E-01 5.34450E-27
4.60770E-01 5.14672E-27
4.65122E-01 4.95656E-27
4.69476E-01 4.77371E-27
4.73832E-01 4.59788E-27
4.78190E-01 4.42879E-27
4.82550E-01 4.26615E-27
4.86912E-01 4.10972E-27
4.91274E-01 3.95923E-27
4.95637E-01 3.81447E-27
5.00000E-01 3.67518E-27
5.04363E-01 3.54117E-27
5.08726E-01 3.41221E-27
5.13088E-01 3.28812E-27
5.17450E-01 3.16869E-27
5.21810E-01 3.05374E-27
5.26168E-01 2.94310E-27
5.30524E-01 2.83660E-27
5.34878E-01 2.73407E-27
5.39230E-01 2.63537E-27
5.43578E-01 2.54034E-27
5.47923E-01 2.44884E-27
5.52264E-01 2.36073E-27
5.56602E-01 2.27588E-27
5.60935E-01 2.19417E-27
5.65263E-01 2.11548E-27
5.69587E-01 2.03968E-27
5.73905E-01 1.96667E-27
5.78217E-01 1.89635E-27
5.82524E-01 1.82860E-27
5.86824E-01 1.76334E-27
5.91118E-01 1.70046E-27
5.95404E-01 1.63987E-27
5.99684E-01 1.58150E-27
6.03956E-01 1.52525E-27
6.08220E-01 1.47105E-27
6.12476E-01 1.41882E-27
6.16723E-01 1.36848E-27
6.20961E-01 1.31996E-27
6.25190E-01 1.27320E-27
6.29410E-01 1.22812E-27
6.33619E-01 1.18467E-27
6.37819E-01 1.14279E-27
6.42008E-01 1.10242E-27
6.46186E-01 1.06349E-27
6.50353E-01 1.02596E-27
6.54508E-01 9.89781E-28
6.58652E-01 9.54894E-28
6.62784E-01 9.21254E-28
6.66903E-01 8.88816E-28
6.71010E-01 8.57535E-28
6.75104E-01 8.27368E-28
6.79184E-01 7.98275E-28
6.83251E-01 7.70217E-28
6.87303E-01 7.43154E-28
6.91342E-01 7.17052E-28
6.95366E-01 6.91874E-28
6.99375E-01 6.67587E-28
7.03368E-01 6.44159E-28
7.07347E-01 6.21557E-28
7.11309E-01 5.99753E-28
7.15256E-01 5.78717E-28
7.19186E-01 5.58422E-28
7.23099E-01 5.38840E-28
7.26995E-01 5.19945E-28
7.30874E-01 5.01714E-28
7.34736E-01 4.84121E-28
7.38579E-01 4.67144E-28
7.42405E-01 4.50761E-28
7.46212E-01 4.34949E-28
7.50000E-01 4.19690E-28
7.53769E-01 4.04963E-28
7.57519E-01 3.90748E-28
7.61249E-01 3.77028E-28
7.64960E-01 3.63784E-28
7.68650E-01 3.51000E-28
7.72320E-01 3.38660E-28
7.75968E-01 3.26747E-28
7.79596E-01 3.15246E-28
7.83203E-01 3.04143E-28
7.86788E-01 2.93424E-28
7.90351E-01 2.83074E-28
7.93893E-01 2.73081E-28
7.97411E-01 2.63432E-28
8.00908E-01 2.54115E-28
8.04381E-01 2.45118E-28
8.07831E-01 2.36430E-28
8.11257E-01 2.28040E-28
8.14660E-01 2.19937E-28
8.18039E-01 2.12112E-28
8.21394E-01 2.04555E-28
8.24724E-01 1.97255E-28
8.28030E-01 1.90205E-28
8.31310E-01 1.83395E-28
8.34565E-01 1.76818E-28
8.37795E-01 1.70464E-28
8.40999E-01 1.64326E-28
8.44177E-01 1.58397E-28
8.47329E-01 1.52669E-28
8.50455E-01 1.47135E-28
8.53553E-01 1.41789E-28
8.56625E-01 1.36625E-28
8.59670E-01 1.31634E-28
8.62687E-01 1.26813E-28
8.65677E-01 1.22154E-28
8.68639E-01 1.17653E-28
8.71572E-01 1.13304E-28
8.74478E-01 1.09101E-28
8.77355E-01 1.05040E-28
8.80203E-01 1.01116E-28
8.83022E-01 9.73234E-29
8.85812E-01 9.36587E-29
8.88573E-01 9.01173E-29
8.91304E-01 8.66949E-29
8.94005E-01 8.33875E-29
8.96677E-01 8.01911E-29
8.99318E-01 7.71021E-29
9.01928E-01 7.41169E-29
9.04508E-01 7.12318E-29
9.07058E-01 6.84436E-29
9.09576E-01 6.57490E-29
9.12063E-01 6.31449E-29
9.14519E-01 6.06282E-29
9.16943E-01 5.81961E-29
9.19335E-01 5.58457E-29
9.21696E-01 5.35743E-29
9.24024E-01 5.13794E-29
9.26320E-01 4.92584E-29
9.28584E-01 4.72089E-29
9.30815E-01 4.52286E-29
9.33013E-01 4.33152E-29
9.35178E-01 4.14665E-29
9.37310E-01 3.96805E-29
9.39409E-01 3.79551E-29
9.41474E-01 3.62884E-29
9.43505E-01 3.46786E-29
9.45503E-01 3.31238E-29
9.47467E-01 3.16222E-29
9.49397E-01 3.01723E-29
9.51293E-01 2.87725E-29
9.53154E-01 2.74210E-29
9.54981E-01 2.61166E-29
9.56773E-01 2.48577E-29
9.58530E-01 2.36429E-29
9.60252E-01 2.24709E-29
9.61940E-01 2.13405E-29
9.63592E-01 2.02504E-29
9.65209E-01 1.91993E-29
9.66790E-01 1.81863E-29
9.68336E-01 1.72101E-29
9.69846E-01 1.62698E-29
9.71321E-01 1.53642E-29
9.72759E-01 1.44925E-29
9.74162E-01 1.36537E-29
9.75528E-01 1.28469E-29
9.76858E-01 1.20712E-29
9.78152E-01 1.13259E-29
9.79410E-01 1.06100E-29
9.80631E-01 9.92294E-30
9.81815E-01 9.26389E-30
9.82963E-01 8.63217E-30
9.84074E-01 8.02713E-30
9.85148E-01 7.44813E-30
9.86185E-01 6.89455E-30
9.87185E-01 6.36582E-30
9.88148E-01 5.86138E-30
9.89074E-01 5.38071E-30
9.89962E-01 4.92331E-30
9.90814E-01 4.48870E-30
9.91627E-01 4.07643E-30
9.92404E-01 3.68607E-30
9.93143E-01 3.31723E-30
9.93844E-01 2.96951E-30
9.94508E-01 2.64257E-30
9.95134E-01 2.33605E-30
9.95722E-01 2.04966E-30
9.96273E-01 1.78309E-30
9.96786E-01 1.53606E-30
9.97261E-01 1.30834E-30
9.97698E-01 1.09968E-30
9.98097E-01 9.09867E-31
9.98459E-01 7.38712E-31
9.98782E-01 5.86039E-31
9.99067E-01 4.51691E-31
9.99315E-01 3.35531E-31
9.99524E-01 2.37442E-31
9.99695E-01 1.57323E-31
9.99829E-01 9.50924E-32
9.99924E-01 5.06873E-32
9.99981E-01 2.40621E-32
1.00000E+00 1.51898E-32
