 #
 # Subroutine ELSEPA. Elastic scattering of electrons and positrons
 #                    by neutral atoms and positive ions
 #
 # Projectile: electron
 # Kinetic energy = 6.00000E+08 eV = 2.20496E+07 a.u.
 #
 # WARNING: High-energy factorization with free-atom DF screening.
 #          Absorption, polarization and exchange corrections are
 #          switched off.
 #          Phase shifts are calculated for the bare nucleus.
 #          Scattering amplitudes are not evaluated.
 #
 # Element: Rh,  Z =  45,  atomic weight = 1.02906E+02 g/mol
 #
 # Nuclear model: Fermi distribution
 #                Average radius = 5.01414E-13 cm
 #                Skin thickness = 5.46000E-14 cm
 #
 # Number of electrons = 45
 #
 # Total elastic cross section = 4.20679E-18 cm**2 = 1.50227E-01 a0**2
 # 1st transport cross section = 1.11535E-26 cm**2 = 3.98298E-10 a0**2
 # 2nd transport cross section = 3.34509E-26 cm**2 = 1.19455E-09 a0**2
 #
 #
 # Differential cross section:                       MU=(1-COS(THETA))/2
 #
 #  THETA        MU          DCS          DCS        Sherman      error
 #  (deg)                 (cm**2/sr)   (a0**2/sr)    function
 #----------------------------------------------------------------------
0.00000E+00 1.14499E-08
7.61557E-13 1.05321E-08
1.18994E-12 1.00757E-08
1.71346E-12 9.56746E-09
2.33225E-12 9.02752E-09
3.04617E-12 8.47398E-09
3.85530E-12 7.92170E-09
4.75964E-12 7.38221E-09
5.75917E-12 6.86326E-09
6.85391E-12 6.37005E-09
8.04379E-12 5.90642E-09
9.32893E-12 5.47362E-09
1.07092E-11 5.07168E-09
1.21847E-11 4.69973E-09
1.37554E-11 4.35631E-09
1.54213E-11 4.03970E-09
1.71823E-11 3.74802E-09
1.90386E-11 3.47936E-09
2.09900E-11 3.23189E-09
2.30367E-11 3.00332E-09
2.51785E-11 2.79251E-09
2.74156E-11 2.59809E-09
2.97478E-11 2.41867E-09
3.21752E-11 2.25299E-09
3.46979E-11 2.09988E-09
3.73157E-11 1.95831E-09
4.00286E-11 1.82732E-09
4.28368E-11 1.70605E-09
4.57402E-11 1.59371E-09
4.87388E-11 1.48953E-09
5.18325E-11 1.39276E-09
5.50215E-11 1.30299E-09
5.83057E-11 1.21970E-09
6.16850E-11 1.14236E-09
6.51595E-11 1.06762E-09
6.87293E-11 9.95805E-10
7.23943E-11 9.30843E-10
7.61544E-11 8.71951E-10
1.18991E-10 4.80839E-10
1.71347E-10 2.81791E-10
2.33223E-10 1.75624E-10
3.04617E-10 1.15898E-10
3.85531E-10 8.03187E-11
4.75965E-10 5.78897E-11
5.75917E-10 4.29872E-11
6.85389E-10 3.26423E-11
8.04380E-10 2.52289E-11
9.32891E-10 1.97757E-11
1.07092E-09 1.56845E-11
1.21847E-09 1.25681E-11
1.37554E-09 1.01653E-11
1.54213E-09 8.29533E-12
1.71823E-09 6.82368E-12
1.90386E-09 5.65755E-12
2.09900E-09 4.72738E-12
2.30367E-09 3.97928E-12
2.51785E-09 3.37328E-12
2.74156E-09 2.87858E-12
2.97478E-09 2.47166E-12
3.21752E-09 2.13459E-12
3.46978E-09 1.85355E-12
3.73156E-09 1.61778E-12
4.00286E-09 1.41882E-12
4.28368E-09 1.24997E-12
4.57402E-09 1.10586E-12
4.87388E-09 9.82186E-13
5.18326E-09 8.75474E-13
5.50215E-09 7.82982E-13
5.83057E-09 7.02462E-13
6.16850E-09 6.32085E-13
6.51596E-09 5.70203E-13
6.87293E-09 5.15681E-13
7.23942E-09 4.67727E-13
7.61544E-09 4.25406E-13
1.18991E-08 1.82230E-13
1.71347E-08 9.02071E-14
2.33223E-08 4.94756E-14
3.04617E-08 2.93176E-14
3.85531E-08 1.84543E-14
4.75965E-08 1.21905E-14
5.75917E-08 8.37504E-15
6.85389E-08 5.94346E-15
8.04380E-08 4.33442E-15
9.32891E-08 3.23524E-15
1.07092E-07 2.46358E-15
1.21847E-07 1.90890E-15
1.37554E-07 1.50190E-15
1.54213E-07 1.19780E-15
1.71823E-07 9.66895E-16
1.90386E-07 7.89009E-16
2.09900E-07 6.50192E-16
2.30367E-07 5.40587E-16
2.51785E-07 4.53119E-16
2.74156E-07 3.82633E-16
2.97478E-07 3.25325E-16
3.21752E-07 2.78348E-16
3.46978E-07 2.39547E-16
3.73156E-07 2.07271E-16
4.00286E-07 1.80249E-16
4.28368E-07 1.57488E-16
4.57402E-07 1.38206E-16
4.87388E-07 1.21785E-16
5.18325E-07 1.07730E-16
5.50215E-07 9.56448E-17
5.83057E-07 8.52064E-17
6.16850E-07 7.61532E-17
6.51596E-07 6.82702E-17
6.87293E-07 6.13811E-17
7.23942E-07 5.53390E-17
7.61543E-07 5.00220E-17
1.18991E-06 2.05256E-17
1.71347E-06 9.90835E-18
2.33223E-06 5.35169E-18
3.04617E-06 3.13849E-18
3.85531E-06 1.96004E-18
4.75964E-06 1.28636E-18
5.75916E-06 8.78831E-19
6.85388E-06 6.20658E-19
8.04378E-06 4.50711E-19
9.32888E-06 3.35157E-19
1.07092E-05 2.54378E-19
1.21846E-05 1.96538E-19
1.37553E-05 1.54245E-19
1.54212E-05 1.22742E-19
1.71822E-05 9.88889E-20
1.90385E-05 8.05429E-20
2.09899E-05 6.62930E-20
2.30365E-05 5.50567E-20
2.51783E-05 4.60984E-20
2.74153E-05 3.88861E-20
2.97475E-05 3.30288E-20
3.21749E-05 2.82340E-20
3.46974E-05 2.42799E-20
3.73152E-05 2.09961E-20
4.00281E-05 1.82506E-20
4.28362E-05 1.59402E-20
4.57395E-05 1.39842E-20
4.87380E-05 1.23191E-20
5.18317E-05 1.08942E-20
5.50205E-05 9.66920E-21
5.83045E-05 8.61160E-21
6.16838E-05 7.69484E-21
6.51582E-05 6.89709E-21
6.87277E-05 6.20032E-21
7.23925E-05 5.58951E-21
7.61524E-05 5.04631E-21
9.21439E-05 3.44348E-21
1.09658E-04 2.42801E-21
1.28695E-04 1.75984E-21
1.49255E-04 1.30556E-21
1.71338E-04 9.88223E-22
1.94942E-04 7.61125E-22
2.20070E-04 5.95219E-22
2.46720E-04 4.71780E-22
2.74892E-04 3.78424E-22
3.04586E-04 3.06802E-22
3.35803E-04 2.51126E-22
3.68542E-04 2.07341E-22
4.02802E-04 1.72537E-22
4.38585E-04 1.44603E-22
4.75889E-04 1.21984E-22
5.14715E-04 1.03519E-22
5.55063E-04 8.83325E-23
5.96931E-04 7.57556E-23
6.40321E-04 6.52736E-23
6.85233E-04 5.64856E-23
7.31665E-04 4.90772E-23
7.79618E-04 4.27998E-23
8.29092E-04 3.74550E-23
8.80086E-04 3.28841E-23
9.32601E-04 2.89585E-23
9.86636E-04 2.55738E-23
1.04219E-03 2.26447E-23
1.09927E-03 2.01010E-23
1.15786E-03 1.78848E-23
1.21797E-03 1.59479E-23
1.27961E-03 1.42501E-23
1.34276E-03 1.27578E-23
1.40743E-03 1.14428E-23
1.47362E-03 1.02810E-23
1.54133E-03 9.25230E-24
1.61056E-03 8.33931E-24
1.68131E-03 7.52733E-24
1.75357E-03 6.80374E-24
1.82735E-03 6.15769E-24
1.90265E-03 5.57982E-24
1.97947E-03 5.06204E-24
2.05780E-03 4.59734E-24
2.13765E-03 4.17963E-24
2.21902E-03 3.80360E-24
2.30190E-03 3.46460E-24
2.38630E-03 3.15858E-24
2.47222E-03 2.88197E-24
2.55965E-03 2.63165E-24
2.64859E-03 2.40483E-24
2.73905E-03 2.19910E-24
2.83103E-03 2.01229E-24
2.92452E-03 1.84248E-24
3.01952E-03 1.68799E-24
3.11604E-03 1.54730E-24
3.21407E-03 1.41906E-24
3.31362E-03 1.30208E-24
3.41468E-03 1.19528E-24
3.51725E-03 1.09770E-24
3.62133E-03 1.00849E-24
3.72692E-03 9.26865E-25
3.83403E-03 8.52136E-25
3.94265E-03 7.83677E-25
4.05278E-03 7.20927E-25
4.16442E-03 6.63377E-25
4.27757E-03 6.10568E-25
4.39223E-03 5.62087E-25
4.50840E-03 5.17558E-25
4.62608E-03 4.76640E-25
4.74527E-03 4.39025E-25
4.86597E-03 4.04434E-25
4.98817E-03 3.72612E-25
5.11188E-03 3.43326E-25
5.23711E-03 3.16368E-25
5.36383E-03 2.91543E-25
5.49207E-03 2.68678E-25
5.62181E-03 2.47613E-25
5.75306E-03 2.28201E-25
5.88581E-03 2.10309E-25
6.02007E-03 1.93815E-25
6.15583E-03 1.78607E-25
6.29310E-03 1.64584E-25
6.43187E-03 1.51651E-25
6.57214E-03 1.39721E-25
6.71392E-03 1.28718E-25
6.85720E-03 1.18567E-25
7.00198E-03 1.09202E-25
7.14827E-03 1.00562E-25
7.29605E-03 9.25918E-26
7.44534E-03 8.52383E-26
7.59612E-03 7.84544E-26
7.97965E-03 6.37067E-26
8.37255E-03 5.16576E-26
8.77480E-03 4.18200E-26
9.18641E-03 3.37960E-26
9.60736E-03 2.72593E-26
1.00376E-02 2.19422E-26
1.04773E-02 1.76247E-26
1.09262E-02 1.41262E-26
1.13844E-02 1.12977E-26
1.18520E-02 9.01690E-27
1.23288E-02 7.18302E-27
1.28150E-02 5.71311E-27
1.33104E-02 4.53899E-27
1.38150E-02 3.60462E-27
1.43290E-02 2.86401E-27
1.48521E-02 2.27945E-27
1.53845E-02 1.82010E-27
1.59262E-02 1.46079E-27
1.64770E-02 1.18102E-27
1.70371E-02 9.64148E-28
1.76063E-02 7.96710E-28
1.81848E-02 6.67861E-28
1.87724E-02 5.68902E-28
1.93692E-02 4.92892E-28
1.99751E-02 4.34328E-28
2.05901E-02 3.88879E-28
2.12143E-02 3.53160E-28
2.18476E-02 3.24554E-28
2.24900E-02 3.01063E-28
2.31415E-02 2.81176E-28
2.38021E-02 2.63775E-28
2.44717E-02 2.48050E-28
2.51504E-02 2.33427E-28
2.58382E-02 2.19517E-28
2.65349E-02 2.06071E-28
2.72407E-02 1.92944E-28
2.79555E-02 1.80065E-28
2.86793E-02 1.67417E-28
2.94120E-02 1.55017E-28
3.01537E-02 1.42905E-28
3.09043E-02 1.31134E-28
3.16639E-02 1.19759E-28
3.24324E-02 1.08835E-28
3.32098E-02 9.84118E-29
3.39961E-02 8.85319E-29
3.47912E-02 7.92289E-29
3.55952E-02 7.05269E-29
3.64081E-02 6.24407E-29
3.72297E-02 5.49759E-29
3.80602E-02 4.81297E-29
3.88995E-02 4.18920E-29
3.97476E-02 3.62458E-29
4.06044E-02 3.11688E-29
4.14700E-02 2.66341E-29
4.23443E-02 2.26117E-29
4.32273E-02 1.90685E-29
4.41190E-02 1.59701E-29
4.50194E-02 1.32811E-29
4.59284E-02 1.09660E-29
4.68461E-02 8.98956E-30
4.87074E-02 5.91628E-30
5.06030E-02 3.80351E-30
5.25328E-02 2.42222E-30
5.44967E-02 1.57684E-30
5.64946E-02 1.10649E-30
5.85262E-02 8.83621E-31
6.05914E-02 8.11092E-31
6.26901E-02 8.18141E-31
6.48222E-02 8.56019E-31
6.69873E-02 8.93583E-31
6.91854E-02 9.13184E-31
7.14163E-02 9.07020E-31
7.36799E-02 8.74043E-31
7.59760E-02 8.17449E-31
7.83043E-02 7.42737E-31
8.06647E-02 6.56275E-31
8.30571E-02 5.64312E-31
8.54812E-02 4.72352E-31
8.79369E-02 3.84819E-31
9.04240E-02 3.04935E-31
9.29422E-02 2.34748E-31
9.54915E-02 1.75263E-31
9.80716E-02 1.26621E-31
1.00682E-01 8.83016E-32
1.03323E-01 5.93250E-32
1.05995E-01 3.84307E-32
1.08696E-01 2.42323E-32
1.11427E-01 1.53393E-32
1.14188E-01 1.04463E-32
1.16978E-01 8.39266E-33
1.19797E-01 8.19621E-33
1.22645E-01 9.06565E-33
1.25522E-01 1.03969E-32
1.28428E-01 1.17578E-32
1.31361E-01 1.28658E-32
1.34323E-01 1.35619E-32
1.37313E-01 1.37835E-32
1.40330E-01 1.35388E-32
1.43375E-01 1.28834E-32
1.46447E-01 1.19012E-32
1.49545E-01 1.06880E-32
1.52671E-01 9.33990E-33
1.55823E-01 7.94479E-33
1.59001E-01 6.57699E-33
1.62205E-01 5.29468E-33
1.65435E-01 4.13921E-33
1.68690E-01 3.13596E-33
1.71970E-01 2.29622E-33
1.75276E-01 1.61967E-33
1.78606E-01 1.09700E-33
1.81961E-01 7.12611E-34
1.85340E-01 4.47065E-34
1.88743E-01 2.79171E-34
1.92169E-01 1.87703E-34
1.95619E-01 1.52695E-34
1.99092E-01 1.56330E-34
2.02589E-01 1.83477E-34
2.06107E-01 2.21924E-34
2.09649E-01 2.62363E-34
2.13212E-01 2.98201E-34
2.16797E-01 3.25242E-34
2.20404E-01 3.41309E-34
2.24032E-01 3.45823E-34
2.27680E-01 3.39401E-34
2.31350E-01 3.23476E-34
2.35040E-01 2.99967E-34
2.38751E-01 2.71004E-34
2.42481E-01 2.38711E-34
2.46231E-01 2.05050E-34
2.50000E-01 1.71716E-34
2.53788E-01 1.40075E-34
2.57595E-01 1.11145E-34
2.61421E-01 8.56026E-35
2.65264E-01 6.38159E-35
2.69126E-01 4.58836E-35
2.73005E-01 3.16884E-35
2.76901E-01 2.09495E-35
2.80814E-01 1.32739E-35
2.84744E-01 8.20312E-36
2.88691E-01 5.25284E-36
2.92653E-01 3.94565E-36
2.96632E-01 3.83558E-36
3.00625E-01 4.52537E-36
3.04634E-01 5.67685E-36
3.08658E-01 7.01565E-36
3.12697E-01 8.33108E-36
3.16749E-01 9.47247E-36
3.20816E-01 1.03429E-35
3.24896E-01 1.08916E-35
3.28990E-01 1.11049E-35
3.33097E-01 1.09982E-35
3.37216E-01 1.06070E-35
3.41348E-01 9.98039E-36
3.45492E-01 9.17376E-36
3.49647E-01 8.24422E-36
3.53814E-01 7.24627E-36
3.57992E-01 6.22898E-36
3.62181E-01 5.23410E-36
3.66381E-01 4.29510E-36
3.70590E-01 3.43685E-36
3.74810E-01 2.67601E-36
3.79039E-01 2.02170E-36
3.83277E-01 1.47656E-36
3.87524E-01 1.03785E-36
3.91780E-01 6.98688E-37
3.96044E-01 4.49229E-37
4.00316E-01 2.77728E-37
4.04596E-01 1.71511E-37
4.08882E-01 1.17768E-37
4.13176E-01 1.04200E-37
4.17476E-01 1.19488E-37
4.21783E-01 1.53627E-37
4.26095E-01 1.98117E-37
4.30413E-01 2.46032E-37
4.34737E-01 2.92009E-37
4.39065E-01 3.32149E-37
4.43398E-01 3.63878E-37
4.47736E-01 3.85766E-37
4.52077E-01 3.97334E-37
4.56422E-01 3.98853E-37
4.60770E-01 3.91159E-37
4.65122E-01 3.75473E-37
4.69476E-01 3.53249E-37
4.73832E-01 3.26043E-37
4.78190E-01 2.95409E-37
4.82550E-01 2.62814E-37
4.86912E-01 2.29582E-37
4.91274E-01 1.96855E-37
4.95637E-01 1.65571E-37
5.00000E-01 1.36457E-37
5.04363E-01 1.10037E-37
5.08726E-01 8.66440E-38
5.13088E-01 6.64395E-38
5.17450E-01 4.94398E-38
5.21810E-01 3.55409E-38
5.26168E-01 2.45456E-38
5.30524E-01 1.61891E-38
5.34878E-01 1.00000E-45
5.39230E-01 1.00000E-45
5.43578E-01 1.00000E-45
5.47923E-01 1.00000E-45
5.52264E-01 1.00000E-45
5.56602E-01 1.00000E-45
5.60935E-01 1.00000E-45
5.65263E-01 1.00000E-45
5.69587E-01 1.00000E-45
5.73905E-01 1.00000E-45
5.78217E-01 1.00000E-45
5.82524E-01 1.00000E-45
5.86824E-01 1.00000E-45
5.91118E-01 1.00000E-45
5.95404E-01 1.00000E-45
5.99684E-01 1.00000E-45
6.03956E-01 1.00000E-45
6.08220E-01 1.00000E-45
6.12476E-01 1.00000E-45
6.16723E-01 1.00000E-45
6.20961E-01 1.00000E-45
6.25190E-01 1.00000E-45
6.29410E-01 1.00000E-45
6.33619E-01 1.00000E-45
6.37819E-01 1.00000E-45
6.42008E-01 1.00000E-45
6.46186E-01 1.00000E-45
6.50353E-01 1.00000E-45
6.54508E-01 1.00000E-45
6.58652E-01 1.00000E-45
6.62784E-01 1.00000E-45
6.66903E-01 1.00000E-45
6.71010E-01 1.00000E-45
6.75104E-01 1.00000E-45
6.79184E-01 1.00000E-45
6.83251E-01 1.00000E-45
6.87303E-01 1.00000E-45
6.91342E-01 1.00000E-45
6.95366E-01 1.00000E-45
6.99375E-01 1.00000E-45
7.03368E-01 1.00000E-45
7.07347E-01 1.00000E-45
7.11309E-01 1.00000E-45
7.15256E-01 1.00000E-45
7.19186E-01 1.00000E-45
7.23099E-01 1.00000E-45
7.26995E-01 1.00000E-45
7.30874E-01 1.00000E-45
7.34736E-01 1.00000E-45
7.38579E-01 1.00000E-45
7.42405E-01 1.00000E-45
7.46212E-01 1.00000E-45
7.50000E-01 1.00000E-45
7.53769E-01 1.00000E-45
7.57519E-01 1.00000E-45
7.61249E-01 1.00000E-45
7.64960E-01 1.00000E-45
7.68650E-01 1.00000E-45
7.72320E-01 1.00000E-45
7.75968E-01 1.00000E-45
7.79596E-01 1.00000E-45
7.83203E-01 1.00000E-45
7.86788E-01 1.00000E-45
7.90351E-01 1.00000E-45
7.93893E-01 1.00000E-45
7.97411E-01 1.00000E-45
8.00908E-01 1.00000E-45
8.04381E-01 1.00000E-45
8.07831E-01 1.00000E-45
8.11257E-01 1.00000E-45
8.14660E-01 1.00000E-45
8.18039E-01 1.00000E-45
8.21394E-01 1.00000E-45
8.24724E-01 1.00000E-45
8.28030E-01 1.00000E-45
8.31310E-01 1.00000E-45
8.34565E-01 1.00000E-45
8.37795E-01 1.00000E-45
8.40999E-01 1.00000E-45
8.44177E-01 1.00000E-45
8.47329E-01 1.00000E-45
8.50455E-01 1.00000E-45
8.53553E-01 1.00000E-45
8.56625E-01 1.00000E-45
8.59670E-01 1.00000E-45
8.62687E-01 1.00000E-45
8.65677E-01 1.00000E-45
8.68639E-01 1.00000E-45
8.71572E-01 1.00000E-45
8.74478E-01 1.00000E-45
8.77355E-01 1.00000E-45
8.80203E-01 1.00000E-45
8.83022E-01 1.00000E-45
8.85812E-01 1.00000E-45
8.88573E-01 1.00000E-45
8.91304E-01 1.00000E-45
8.94005E-01 1.00000E-45
8.96677E-01 1.00000E-45
8.99318E-01 1.00000E-45
9.01928E-01 1.00000E-45
9.04508E-01 1.00000E-45
9.07058E-01 1.00000E-45
9.09576E-01 1.00000E-45
9.12063E-01 1.00000E-45
9.14519E-01 1.00000E-45
9.16943E-01 1.00000E-45
9.19335E-01 1.00000E-45
9.21696E-01 1.00000E-45
9.24024E-01 1.00000E-45
9.26320E-01 1.00000E-45
9.28584E-01 1.00000E-45
9.30815E-01 1.00000E-45
9.33013E-01 1.00000E-45
9.35178E-01 1.00000E-45
9.37310E-01 1.00000E-45
9.39409E-01 1.00000E-45
9.41474E-01 1.00000E-45
9.43505E-01 1.00000E-45
9.45503E-01 1.00000E-45
9.47467E-01 1.00000E-45
9.49397E-01 1.00000E-45
9.51293E-01 1.00000E-45
9.53154E-01 1.00000E-45
9.54981E-01 1.00000E-45
9.56773E-01 1.00000E-45
9.58530E-01 1.00000E-45
9.60252E-01 1.00000E-45
9.61940E-01 1.00000E-45
9.63592E-01 1.00000E-45
9.65209E-01 1.00000E-45
9.66790E-01 1.00000E-45
9.68336E-01 1.00000E-45
9.69846E-01 1.00000E-45
9.71321E-01 1.00000E-45
9.72759E-01 1.00000E-45
9.74162E-01 1.00000E-45
9.75528E-01 1.00000E-45
9.76858E-01 1.00000E-45
9.78152E-01 1.00000E-45
9.79410E-01 1.00000E-45
9.80631E-01 1.00000E-45
9.81815E-01 1.00000E-45
9.82963E-01 1.00000E-45
9.84074E-01 1.00000E-45
9.85148E-01 1.00000E-45
9.86185E-01 1.00000E-45
9.87185E-01 1.00000E-45
9.88148E-01 1.00000E-45
9.89074E-01 1.00000E-45
9.89962E-01 1.00000E-45
9.90814E-01 1.00000E-45
9.91627E-01 1.00000E-45
9.92404E-01 1.00000E-45
9.93143E-01 1.00000E-45
9.93844E-01 1.00000E-45
9.94508E-01 1.00000E-45
9.95134E-01 1.00000E-45
9.95722E-01 1.00000E-45
9.96273E-01 1.00000E-45
9.96786E-01 1.00000E-45
9.97261E-01 1.00000E-45
9.97698E-01 1.00000E-45
9.98097E-01 1.00000E-45
9.98459E-01 1.00000E-45
9.98782E-01 1.00000E-45
9.99067E-01 1.00000E-45
9.99315E-01 1.00000E-45
9.99524E-01 1.00000E-45
9.99695E-01 1.00000E-45
9.99829E-01 1.00000E-45
9.99924E-01 1.00000E-45
9.99981E-01 1.00000E-45
1.00000E+00 1.00000E-45
