 #
 # Subroutine ELSEPA. Elastic scattering of electrons and positrons
 #                    by neutral atoms and positive ions
 #
 # Projectile: electron
 # Kinetic energy = 1.00000E+08 eV = 3.67493E+06 a.u.
 #
 # WARNING: High-energy factorization with free-atom DF screening.
 #          Absorption, polarization and exchange corrections are
 #          switched off.
 #          Phase shifts are calculated for the bare nucleus.
 #          Scattering amplitudes are not evaluated.
 #
 # Element: Rh,  Z =  45,  atomic weight = 1.02906E+02 g/mol
 #
 # Nuclear model: Fermi distribution
 #                Average radius = 5.01414E-13 cm
 #                Skin thickness = 5.46000E-14 cm
 #
 # Number of electrons = 45
 #
 # Total elastic cross section = 4.21419E-18 cm**2 = 1.50491E-01 a0**2
 # 1st transport cross section = 3.99639E-25 cm**2 = 1.42714E-08 a0**2
 # 2nd transport cross section = 1.18893E-24 cm**2 = 4.24573E-08 a0**2
 #
 #
 # Differential cross section:                       MU=(1-COS(THETA))/2
 #
 #  THETA        MU          DCS          DCS        Sherman      error
 #  (deg)                 (cm**2/sr)   (a0**2/sr)    function
 #----------------------------------------------------------------------
0.00000E+00 3.20765E-10
7.61557E-13 3.19985E-10
1.18994E-12 3.19548E-10
1.71346E-12 3.19017E-10
2.33225E-12 3.18391E-10
3.04617E-12 3.17671E-10
3.85530E-12 3.16860E-10
4.75964E-12 3.15958E-10
5.75917E-12 3.14967E-10
6.85391E-12 3.13888E-10
8.04379E-12 3.12724E-10
9.32893E-12 3.11475E-10
1.07092E-11 3.10145E-10
1.21847E-11 3.08735E-10
1.37554E-11 3.07248E-10
1.54213E-11 3.05686E-10
1.71823E-11 3.04050E-10
1.90386E-11 3.02345E-10
2.09900E-11 3.00572E-10
2.30367E-11 2.98731E-10
2.51785E-11 2.96819E-10
2.74156E-11 2.94853E-10
2.97478E-11 2.92834E-10
3.21752E-11 2.90767E-10
3.46979E-11 2.88654E-10
3.73157E-11 2.86475E-10
4.00286E-11 2.84246E-10
4.28368E-11 2.81980E-10
4.57402E-11 2.79682E-10
4.87388E-11 2.77353E-10
5.18325E-11 2.74987E-10
5.50215E-11 2.72563E-10
5.83057E-11 2.70118E-10
6.16850E-11 2.67655E-10
6.51595E-11 2.65176E-10
6.87293E-11 2.62684E-10
7.23943E-11 2.60142E-10
7.61544E-11 2.57582E-10
1.18991E-10 2.31674E-10
1.71347E-10 2.06189E-10
2.33223E-10 1.82288E-10
3.04617E-10 1.60632E-10
3.85531E-10 1.41395E-10
4.75965E-10 1.24498E-10
5.75917E-10 1.09740E-10
6.85389E-10 9.68727E-11
8.04380E-10 8.56275E-11
9.32891E-10 7.58187E-11
1.07092E-09 6.72486E-11
1.21847E-09 5.97470E-11
1.37554E-09 5.31684E-11
1.54213E-09 4.73863E-11
1.71823E-09 4.22883E-11
1.90386E-09 3.77981E-11
2.09900E-09 3.38376E-11
2.30367E-09 3.02895E-11
2.51785E-09 2.69728E-11
2.74156E-09 2.41637E-11
2.97478E-09 2.17701E-11
3.21752E-09 1.97187E-11
3.46978E-09 1.79510E-11
3.73156E-09 1.62290E-11
4.00286E-09 1.46657E-11
4.28368E-09 1.33095E-11
4.57402E-09 1.21277E-11
4.87388E-09 1.10934E-11
5.18326E-09 1.01609E-11
5.50215E-09 9.27154E-12
5.83057E-09 8.48777E-12
6.16850E-09 7.79455E-12
6.51596E-09 7.17931E-12
6.87293E-09 6.63151E-12
7.23942E-09 6.11686E-12
7.61544E-09 5.65027E-12
1.18991E-08 2.82249E-12
1.71347E-08 1.60101E-12
2.33223E-08 9.86631E-13
3.04617E-08 6.41730E-13
3.85531E-08 4.33158E-13
4.75965E-08 3.00906E-13
5.75917E-08 2.14333E-13
6.85389E-08 1.56089E-13
8.04380E-08 1.16147E-13
9.32891E-08 8.81833E-14
1.07092E-07 6.81692E-14
1.21847E-07 5.35540E-14
1.37554E-07 4.26888E-14
1.54213E-07 3.44770E-14
1.71823E-07 2.81708E-14
1.90386E-07 2.32562E-14
2.09900E-07 1.93750E-14
2.30367E-07 1.62719E-14
2.51785E-07 1.37633E-14
2.74156E-07 1.17342E-14
2.97478E-07 1.00532E-14
3.21752E-07 8.67029E-15
3.46978E-07 7.51117E-15
3.73156E-07 6.54138E-15
4.00286E-07 5.72117E-15
4.28368E-07 5.02519E-15
4.57402E-07 4.43157E-15
4.87388E-07 3.92170E-15
5.18325E-07 3.48361E-15
5.50215E-07 3.10361E-15
5.83057E-07 2.77479E-15
6.16850E-07 2.48712E-15
6.51596E-07 2.23634E-15
6.87293E-07 2.01568E-15
7.23942E-07 1.82180E-15
7.61543E-07 1.65041E-15
1.18991E-06 6.88581E-16
1.71347E-06 3.36138E-16
2.33223E-06 1.83155E-16
3.04617E-06 1.08178E-16
3.85531E-06 6.79532E-17
4.75964E-06 4.48087E-17
5.75916E-06 3.07306E-17
6.85388E-06 2.17709E-17
8.04378E-06 1.58500E-17
9.32888E-06 1.18110E-17
1.07092E-05 8.97981E-18
1.21846E-05 6.94793E-18
1.37553E-05 5.45932E-18
1.54212E-05 4.34869E-18
1.71822E-05 3.50655E-18
1.90385E-05 2.85807E-18
2.09899E-05 2.35386E-18
2.30365E-05 1.95593E-18
2.51783E-05 1.63844E-18
2.74153E-05 1.38265E-18
2.97475E-05 1.17480E-18
3.21749E-05 1.00456E-18
3.46974E-05 8.64110E-19
3.73152E-05 7.47421E-19
4.00281E-05 6.49822E-19
4.28362E-05 5.67668E-19
4.57395E-05 4.98096E-19
4.87380E-05 4.38852E-19
5.18317E-05 3.88146E-19
5.50205E-05 3.44546E-19
5.83045E-05 3.06896E-19
6.16838E-05 2.74254E-19
6.51582E-05 2.45845E-19
6.87277E-05 2.21028E-19
7.23925E-05 1.99270E-19
7.61524E-05 1.80243E-19
9.21439E-05 1.23235E-19
1.09658E-04 8.70927E-20
1.28695E-04 6.32923E-20
1.49255E-04 4.70960E-20
1.71338E-04 3.57699E-20
1.94942E-04 2.76548E-20
2.20070E-04 2.17180E-20
2.46720E-04 1.72937E-20
2.74892E-04 1.39417E-20
3.04586E-04 1.13649E-20
3.35803E-04 9.35742E-21
3.68542E-04 7.77478E-21
4.02802E-04 6.51343E-21
4.38585E-04 5.49811E-21
4.75889E-04 4.67342E-21
5.14715E-04 3.99790E-21
5.55063E-04 3.44031E-21
5.96931E-04 2.97677E-21
6.40321E-04 2.58884E-21
6.85233E-04 2.26219E-21
7.31665E-04 1.98554E-21
7.79618E-04 1.74998E-21
8.29092E-04 1.54840E-21
8.80086E-04 1.37506E-21
9.32601E-04 1.22535E-21
9.86636E-04 1.09550E-21
1.04219E-03 9.82428E-22
1.09927E-03 8.83597E-22
1.15786E-03 7.96908E-22
1.21797E-03 7.20604E-22
1.27961E-03 6.53232E-22
1.34276E-03 5.93564E-22
1.40743E-03 5.40562E-22
1.47362E-03 4.93355E-22
1.54133E-03 4.51196E-22
1.61056E-03 4.13451E-22
1.68131E-03 3.79575E-22
1.75357E-03 3.49102E-22
1.82735E-03 3.21629E-22
1.90265E-03 2.96808E-22
1.97947E-03 2.74337E-22
2.05780E-03 2.53955E-22
2.13765E-03 2.35431E-22
2.21902E-03 2.18567E-22
2.30190E-03 2.03186E-22
2.38630E-03 1.89136E-22
2.47222E-03 1.76279E-22
2.55965E-03 1.64496E-22
2.64859E-03 1.53681E-22
2.73905E-03 1.43740E-22
2.83103E-03 1.34590E-22
2.92452E-03 1.26156E-22
3.01952E-03 1.18372E-22
3.11604E-03 1.11178E-22
3.21407E-03 1.04522E-22
3.31362E-03 9.83565E-23
3.41468E-03 9.26380E-23
3.51725E-03 8.73285E-23
3.62133E-03 8.23933E-23
3.72692E-03 7.78011E-23
3.83403E-03 7.35238E-23
3.94265E-03 6.95357E-23
4.05278E-03 6.58136E-23
4.16442E-03 6.23366E-23
4.27757E-03 5.90856E-23
4.39223E-03 5.60430E-23
4.50840E-03 5.31931E-23
4.62608E-03 5.05214E-23
4.74527E-03 4.80147E-23
4.86597E-03 4.56608E-23
4.98817E-03 4.34489E-23
5.11188E-03 4.13686E-23
5.23711E-03 3.94108E-23
5.36383E-03 3.75668E-23
5.49207E-03 3.58288E-23
5.62181E-03 3.41896E-23
5.75306E-03 3.26425E-23
5.88581E-03 3.11814E-23
6.02007E-03 2.98006E-23
6.15583E-03 2.84949E-23
6.29310E-03 2.72594E-23
6.43187E-03 2.60896E-23
6.57214E-03 2.49815E-23
6.71392E-03 2.39310E-23
6.85720E-03 2.29348E-23
7.00198E-03 2.19894E-23
7.14827E-03 2.10918E-23
7.29605E-03 2.02391E-23
7.44534E-03 1.94286E-23
7.59612E-03 1.86579E-23
7.97965E-03 1.68903E-23
8.37255E-03 1.53250E-23
8.77480E-03 1.39349E-23
9.18641E-03 1.26971E-23
9.60736E-03 1.15919E-23
1.00376E-02 1.06027E-23
1.04773E-02 9.71534E-24
1.09262E-02 8.91742E-24
1.13844E-02 8.19842E-24
1.18520E-02 7.54917E-24
1.23288E-02 6.96176E-24
1.28150E-02 6.42926E-24
1.33104E-02 5.94567E-24
1.38150E-02 5.50572E-24
1.43290E-02 5.10480E-24
1.48521E-02 4.73885E-24
1.53845E-02 4.40429E-24
1.59262E-02 4.09797E-24
1.64770E-02 3.81710E-24
1.70371E-02 3.55921E-24
1.76063E-02 3.32209E-24
1.81848E-02 3.10378E-24
1.87724E-02 2.90254E-24
1.93692E-02 2.71681E-24
1.99751E-02 2.54518E-24
2.05901E-02 2.38642E-24
2.12143E-02 2.23938E-24
2.18476E-02 2.10307E-24
2.24900E-02 1.97656E-24
2.31415E-02 1.85904E-24
2.38021E-02 1.74975E-24
2.44717E-02 1.64803E-24
2.51504E-02 1.55327E-24
2.58382E-02 1.46490E-24
2.65349E-02 1.38244E-24
2.72407E-02 1.30541E-24
2.79555E-02 1.23341E-24
2.86793E-02 1.16605E-24
2.94120E-02 1.10298E-24
3.01537E-02 1.04389E-24
3.09043E-02 9.88482E-25
3.16639E-02 9.36495E-25
3.24324E-02 8.87682E-25
3.32098E-02 8.41818E-25
3.39961E-02 7.98699E-25
3.47912E-02 7.58133E-25
3.55952E-02 7.19946E-25
3.64081E-02 6.83977E-25
3.72297E-02 6.50076E-25
3.80602E-02 6.18108E-25
3.88995E-02 5.87945E-25
3.97476E-02 5.59469E-25
4.06044E-02 5.32572E-25
4.14700E-02 5.07154E-25
4.23443E-02 4.83120E-25
4.32273E-02 4.60385E-25
4.41190E-02 4.38868E-25
4.50194E-02 4.18493E-25
4.59284E-02 3.99193E-25
4.68461E-02 3.80901E-25
4.87074E-02 3.47107E-25
5.06030E-02 3.16676E-25
5.25328E-02 2.89231E-25
5.44967E-02 2.64439E-25
5.64946E-02 2.42012E-25
5.85262E-02 2.21695E-25
6.05914E-02 2.03267E-25
6.26901E-02 1.86529E-25
6.48222E-02 1.71308E-25
6.69873E-02 1.57450E-25
6.91854E-02 1.44820E-25
7.14163E-02 1.33296E-25
7.36799E-02 1.22771E-25
7.59760E-02 1.13148E-25
7.83043E-02 1.04342E-25
8.06647E-02 9.62762E-26
8.30571E-02 8.88824E-26
8.54812E-02 8.20988E-26
8.79369E-02 7.58702E-26
9.04240E-02 7.01468E-26
9.29422E-02 6.48838E-26
9.54915E-02 6.00409E-26
9.80716E-02 5.55815E-26
1.00682E-01 5.14727E-26
1.03323E-01 4.76847E-26
1.05995E-01 4.41903E-26
1.08696E-01 4.09650E-26
1.11427E-01 3.79865E-26
1.14188E-01 3.52346E-26
1.16978E-01 3.26907E-26
1.19797E-01 3.03380E-26
1.22645E-01 2.81612E-26
1.25522E-01 2.61464E-26
1.28428E-01 2.42806E-26
1.31361E-01 2.25523E-26
1.34323E-01 2.09507E-26
1.37313E-01 1.94660E-26
1.40330E-01 1.80892E-26
1.43375E-01 1.68121E-26
1.46447E-01 1.56271E-26
1.49545E-01 1.45273E-26
1.52671E-01 1.35063E-26
1.55823E-01 1.25582E-26
1.59001E-01 1.16776E-26
1.62205E-01 1.08595E-26
1.65435E-01 1.00992E-26
1.68690E-01 9.39272E-27
1.71970E-01 8.73597E-27
1.75276E-01 8.12538E-27
1.78606E-01 7.55763E-27
1.81961E-01 7.02964E-27
1.85340E-01 6.53855E-27
1.88743E-01 6.08174E-27
1.92169E-01 5.65677E-27
1.95619E-01 5.26138E-27
1.99092E-01 4.89348E-27
2.02589E-01 4.55114E-27
2.06107E-01 4.23256E-27
2.09649E-01 3.93608E-27
2.13212E-01 3.66016E-27
2.16797E-01 3.40336E-27
2.20404E-01 3.16434E-27
2.24032E-01 2.94189E-27
2.27680E-01 2.73484E-27
2.31350E-01 2.54214E-27
2.35040E-01 2.36279E-27
2.38751E-01 2.19587E-27
2.42481E-01 2.04053E-27
2.46231E-01 1.89597E-27
2.50000E-01 1.76144E-27
2.53788E-01 1.63627E-27
2.57595E-01 1.51980E-27
2.61421E-01 1.41145E-27
2.65264E-01 1.31065E-27
2.69126E-01 1.21688E-27
2.73005E-01 1.12967E-27
2.76901E-01 1.04857E-27
2.80814E-01 9.73156E-28
2.84744E-01 9.03037E-28
2.88691E-01 8.37853E-28
2.92653E-01 7.77264E-28
2.96632E-01 7.20955E-28
3.00625E-01 6.68633E-28
3.04634E-01 6.20022E-28
3.08658E-01 5.74868E-28
3.12697E-01 5.32933E-28
3.16749E-01 4.93993E-28
3.20816E-01 4.57843E-28
3.24896E-01 4.24289E-28
3.28990E-01 3.93151E-28
3.33097E-01 3.64262E-28
3.37216E-01 3.37465E-28
3.41348E-01 3.12614E-28
3.45492E-01 2.89574E-28
3.49647E-01 2.68217E-28
3.53814E-01 2.48426E-28
3.57992E-01 2.30090E-28
3.62181E-01 2.13108E-28
3.66381E-01 1.97382E-28
3.70590E-01 1.82824E-28
3.74810E-01 1.69351E-28
3.79039E-01 1.56886E-28
3.83277E-01 1.45356E-28
3.87524E-01 1.34695E-28
3.91780E-01 1.24839E-28
3.96044E-01 1.15731E-28
4.00316E-01 1.07316E-28
4.04596E-01 9.95435E-29
4.08882E-01 9.23669E-29
4.13176E-01 8.57424E-29
4.17476E-01 7.96293E-29
4.21783E-01 7.39896E-29
4.26095E-01 6.87882E-29
4.30413E-01 6.39923E-29
4.34737E-01 5.95715E-29
4.39065E-01 5.54976E-29
4.43398E-01 5.17442E-29
4.47736E-01 4.82869E-29
4.52077E-01 4.51032E-29
4.56422E-01 4.21719E-29
4.60770E-01 3.94735E-29
4.65122E-01 3.69899E-29
4.69476E-01 3.47043E-29
4.73832E-01 3.26011E-29
4.78190E-01 3.06660E-29
4.82550E-01 2.88855E-29
4.86912E-01 2.72472E-29
4.91274E-01 2.57397E-29
4.95637E-01 2.43524E-29
5.00000E-01 2.30754E-29
5.04363E-01 2.18998E-29
5.08726E-01 2.08171E-29
5.13088E-01 1.98196E-29
5.17450E-01 1.89001E-29
5.21810E-01 1.80521E-29
5.26168E-01 1.72695E-29
5.30524E-01 1.65467E-29
5.34878E-01 1.58785E-29
5.39230E-01 1.52602E-29
5.43578E-01 1.46875E-29
5.47923E-01 1.41563E-29
5.52264E-01 1.36629E-29
5.56602E-01 1.32039E-29
5.60935E-01 1.27763E-29
5.65263E-01 1.23772E-29
5.69587E-01 1.20041E-29
5.73905E-01 1.16544E-29
5.78217E-01 1.13261E-29
5.82524E-01 1.10172E-29
5.86824E-01 1.07259E-29
5.91118E-01 1.04505E-29
5.95404E-01 1.01894E-29
5.99684E-01 9.94145E-30
6.03956E-01 9.70527E-30
6.08220E-01 9.47978E-30
6.12476E-01 9.26395E-30
6.16723E-01 9.05687E-30
6.20961E-01 8.85769E-30
6.25190E-01 8.66568E-30
6.29410E-01 8.48016E-30
6.33619E-01 8.30053E-30
6.37819E-01 8.12623E-30
6.42008E-01 7.95680E-30
6.46186E-01 7.79179E-30
6.50353E-01 7.63082E-30
6.54508E-01 7.47354E-30
6.58652E-01 7.31966E-30
6.62784E-01 7.16890E-30
6.66903E-01 7.02104E-30
6.71010E-01 6.87585E-30
6.75104E-01 6.73318E-30
6.79184E-01 6.59285E-30
6.83251E-01 6.45473E-30
6.87303E-01 6.31871E-30
6.91342E-01 6.18468E-30
6.95366E-01 6.05257E-30
6.99375E-01 5.92230E-30
7.03368E-01 5.79381E-30
7.07347E-01 5.66705E-30
7.11309E-01 5.54199E-30
7.15256E-01 5.41859E-30
7.19186E-01 5.29682E-30
7.23099E-01 5.17668E-30
7.26995E-01 5.05814E-30
7.30874E-01 4.94120E-30
7.34736E-01 4.82585E-30
7.38579E-01 4.71209E-30
7.42405E-01 4.59992E-30
7.46212E-01 4.48934E-30
7.50000E-01 4.38035E-30
7.53769E-01 4.27296E-30
7.57519E-01 4.16718E-30
7.61249E-01 4.06300E-30
7.64960E-01 3.96044E-30
7.68650E-01 3.85950E-30
7.72320E-01 3.76018E-30
7.75968E-01 3.66250E-30
7.79596E-01 3.56645E-30
7.83203E-01 3.47204E-30
7.86788E-01 3.37927E-30
7.90351E-01 3.28815E-30
7.93893E-01 3.19867E-30
7.97411E-01 3.11083E-30
8.00908E-01 3.02463E-30
8.04381E-01 2.94007E-30
8.07831E-01 2.85715E-30
8.11257E-01 2.77586E-30
8.14660E-01 2.69619E-30
8.18039E-01 2.61814E-30
8.21394E-01 2.54171E-30
8.24724E-01 2.46687E-30
8.28030E-01 2.39361E-30
8.31310E-01 2.32194E-30
8.34565E-01 2.25184E-30
8.37795E-01 2.18328E-30
8.40999E-01 2.11627E-30
8.44177E-01 2.05078E-30
8.47329E-01 1.98679E-30
8.50455E-01 1.92430E-30
8.53553E-01 1.86328E-30
8.56625E-01 1.80372E-30
8.59670E-01 1.74559E-30
8.62687E-01 1.68889E-30
8.65677E-01 1.63358E-30
8.68639E-01 1.57965E-30
8.71572E-01 1.52708E-30
8.74478E-01 1.47585E-30
8.77355E-01 1.42593E-30
8.80203E-01 1.37731E-30
8.83022E-01 1.32996E-30
8.85812E-01 1.28386E-30
8.88573E-01 1.23899E-30
8.91304E-01 1.19533E-30
8.94005E-01 1.15285E-30
8.96677E-01 1.11153E-30
8.99318E-01 1.07136E-30
9.01928E-01 1.03230E-30
9.04508E-01 9.94333E-31
9.07058E-01 9.57441E-31
9.09576E-01 9.21600E-31
9.12063E-01 8.86787E-31
9.14519E-01 8.52981E-31
9.16943E-01 8.20158E-31
9.19335E-01 7.88299E-31
9.21696E-01 7.57381E-31
9.24024E-01 7.27384E-31
9.26320E-01 6.98286E-31
9.28584E-01 6.70066E-31
9.30815E-01 6.42704E-31
9.33013E-01 6.16181E-31
9.35178E-01 5.90475E-31
9.37310E-01 5.65568E-31
9.39409E-01 5.41440E-31
9.41474E-01 5.18073E-31
9.43505E-01 4.95447E-31
9.45503E-01 4.73544E-31
9.47467E-01 4.52347E-31
9.49397E-01 4.31838E-31
9.51293E-01 4.12000E-31
9.53154E-01 3.92815E-31
9.54981E-01 3.74267E-31
9.56773E-01 3.56341E-31
9.58530E-01 3.39020E-31
9.60252E-01 3.22289E-31
9.61940E-01 3.06133E-31
9.63592E-01 2.90537E-31
9.65209E-01 2.75487E-31
9.66790E-01 2.60970E-31
9.68336E-01 2.46970E-31
9.69846E-01 2.33477E-31
9.71321E-01 2.20475E-31
9.72759E-01 2.07954E-31
9.74162E-01 1.95901E-31
9.75528E-01 1.84304E-31
9.76858E-01 1.73153E-31
9.78152E-01 1.62435E-31
9.79410E-01 1.52140E-31
9.80631E-01 1.42259E-31
9.81815E-01 1.32781E-31
9.82963E-01 1.23697E-31
9.84074E-01 1.14996E-31
9.85148E-01 1.06672E-31
9.86185E-01 9.87141E-32
9.87185E-01 9.11151E-32
9.88148E-01 8.38670E-32
9.89074E-01 7.69621E-32
9.89962E-01 7.03933E-32
9.90814E-01 6.41536E-32
9.91627E-01 5.82366E-32
9.92404E-01 5.26358E-32
9.93143E-01 4.73453E-32
9.93844E-01 4.23596E-32
9.94508E-01 3.76732E-32
9.95134E-01 3.32811E-32
9.95722E-01 2.91787E-32
9.96273E-01 2.53614E-32
9.96786E-01 2.18252E-32
9.97261E-01 1.85661E-32
9.97698E-01 1.55808E-32
9.98097E-01 1.28659E-32
9.98459E-01 1.04184E-32
9.98782E-01 8.23567E-33
9.99067E-01 6.31536E-33
9.99315E-01 4.65533E-33
9.99524E-01 3.25377E-33
9.99695E-01 2.10913E-33
9.99829E-01 1.22016E-33
9.99924E-01 5.85879E-34
9.99981E-01 2.05588E-34
1.00000E+00 7.88710E-35
