 #
 # Subroutine ELSEPA. Elastic scattering of electrons and positrons
 #                    by neutral atoms and positive ions
 #
 # Projectile: electron
 # Kinetic energy = 1.75000E+08 eV = 6.43113E+06 a.u.
 #
 # WARNING: High-energy factorization with free-atom DF screening.
 #          Absorption, polarization and exchange corrections are
 #          switched off.
 #          Phase shifts are calculated for the bare nucleus.
 #          Scattering amplitudes are not evaluated.
 #
 # Element: Rh,  Z =  45,  atomic weight = 1.02906E+02 g/mol
 #
 # Nuclear model: Fermi distribution
 #                Average radius = 5.01414E-13 cm
 #                Skin thickness = 5.46000E-14 cm
 #
 # Number of electrons = 45
 #
 # Total elastic cross section = 4.21141E-18 cm**2 = 1.50392E-01 a0**2
 # 1st transport cross section = 1.30992E-25 cm**2 = 4.67780E-09 a0**2
 # 2nd transport cross section = 3.91764E-25 cm**2 = 1.39902E-08 a0**2
 #
 #
 # Differential cross section:                       MU=(1-COS(THETA))/2
 #
 #  THETA        MU          DCS          DCS        Sherman      error
 #  (deg)                 (cm**2/sr)   (a0**2/sr)    function
 #----------------------------------------------------------------------
0.00000E+00 9.78068E-10
7.61557E-13 9.70857E-10
1.18994E-12 9.66852E-10
1.71346E-12 9.62000E-10
2.33225E-12 9.56326E-10
3.04617E-12 9.49859E-10
3.85530E-12 9.42631E-10
4.75964E-12 9.34677E-10
5.75917E-12 9.26034E-10
6.85391E-12 9.16743E-10
8.04379E-12 9.06815E-10
9.32893E-12 8.96323E-10
1.07092E-11 8.85363E-10
1.21847E-11 8.73919E-10
1.37554E-11 8.61988E-10
1.54213E-11 8.49741E-10
1.71823E-11 8.37170E-10
1.90386E-11 8.24201E-10
2.09900E-11 8.11061E-10
2.30367E-11 7.97762E-10
2.51785E-11 7.84137E-10
2.74156E-11 7.70471E-10
2.97478E-11 7.56801E-10
3.21752E-11 7.42867E-10
3.46979E-11 7.28998E-10
3.73157E-11 7.15230E-10
4.00286E-11 7.01312E-10
4.28368E-11 6.87510E-10
4.57402E-11 6.73890E-10
4.87388E-11 6.60227E-10
5.18325E-11 6.46704E-10
5.50215E-11 6.33424E-10
5.83057E-11 6.20195E-10
6.16850E-11 6.07109E-10
6.51595E-11 5.94309E-10
6.87293E-11 5.81639E-10
7.23943E-11 5.69100E-10
7.61544E-11 5.56874E-10
1.18991E-10 4.46308E-10
1.71347E-10 3.57380E-10
2.33223E-10 2.87242E-10
3.04617E-10 2.32028E-10
3.85531E-10 1.88385E-10
4.75965E-10 1.53700E-10
5.75917E-10 1.25951E-10
6.85389E-10 1.03694E-10
8.04380E-10 8.50941E-11
9.32891E-10 7.02747E-11
1.07092E-09 5.90217E-11
1.21847E-09 4.97966E-11
1.37554E-09 4.18212E-11
1.54213E-09 3.55665E-11
1.71823E-09 3.04734E-11
1.90386E-09 2.60513E-11
2.09900E-09 2.24848E-11
2.30367E-09 1.95578E-11
2.51785E-09 1.70113E-11
2.74156E-09 1.49075E-11
2.97478E-09 1.31551E-11
3.21752E-09 1.16224E-11
3.46978E-09 1.03296E-11
3.73156E-09 9.23239E-12
4.00286E-09 8.26841E-12
4.28368E-09 7.43783E-12
4.57402E-09 6.72180E-12
4.87388E-09 6.08634E-12
5.18326E-09 5.52877E-12
5.50215E-09 5.04182E-12
5.83057E-09 4.60532E-12
6.16850E-09 4.21573E-12
6.51596E-09 3.87183E-12
6.87293E-09 3.56129E-12
7.23942E-09 3.27962E-12
7.61544E-09 3.02877E-12
1.18991E-08 1.46490E-12
1.71347E-08 7.78024E-13
2.33223E-08 4.44590E-13
3.04617E-08 2.71043E-13
3.85531E-08 1.74600E-13
4.75965E-08 1.17736E-13
5.75917E-08 8.24592E-14
6.85389E-08 5.95518E-14
8.04380E-08 4.40791E-14
9.32891E-08 3.33577E-14
1.07092E-07 2.57068E-14
1.21847E-07 2.01070E-14
1.37554E-07 1.59494E-14
1.54213E-07 1.28089E-14
1.71823E-07 1.04010E-14
1.90386E-07 8.53042E-15
2.09900E-07 7.05802E-15
2.30367E-07 5.88913E-15
2.51785E-07 4.95189E-15
2.74156E-07 4.19345E-15
2.97478E-07 3.57446E-15
3.21752E-07 3.06510E-15
3.46978E-07 2.64331E-15
3.73156E-07 2.29164E-15
4.00286E-07 1.99657E-15
4.28368E-07 1.74753E-15
4.57402E-07 1.53607E-15
4.87388E-07 1.35571E-15
5.18325E-07 1.20110E-15
5.50215E-07 1.06794E-15
5.83057E-07 9.52765E-16
6.16850E-07 8.52703E-16
6.51596E-07 7.65463E-16
6.87293E-07 6.89120E-16
7.23942E-07 6.22078E-16
7.61543E-07 5.63006E-16
1.18991E-06 2.33442E-16
1.71347E-06 1.13539E-16
2.33223E-06 6.16506E-17
3.04617E-06 3.62909E-17
3.85531E-06 2.27254E-17
4.75964E-06 1.49439E-17
5.75916E-06 1.02244E-17
6.85388E-06 7.22877E-18
8.04378E-06 5.25385E-18
9.32888E-06 3.90946E-18
1.07092E-05 2.96878E-18
1.21846E-05 2.29472E-18
1.37553E-05 1.80154E-18
1.54212E-05 1.43401E-18
1.71822E-05 1.15560E-18
1.90385E-05 9.41394E-19
2.09899E-05 7.74969E-19
2.30365E-05 6.43710E-19
2.51783E-05 5.39037E-19
2.74153E-05 4.54751E-19
2.97475E-05 3.86288E-19
3.21749E-05 3.30238E-19
3.46974E-05 2.84010E-19
3.73152E-05 2.45613E-19
4.00281E-05 2.13507E-19
4.28362E-05 1.86488E-19
4.57395E-05 1.63612E-19
4.87380E-05 1.44136E-19
5.18317E-05 1.27469E-19
5.50205E-05 1.13140E-19
5.83045E-05 1.00768E-19
6.16838E-05 9.00434E-20
6.51582E-05 8.07104E-20
6.87277E-05 7.25585E-20
7.23925E-05 6.54122E-20
7.61524E-05 5.92007E-20
9.21439E-05 4.04714E-20
1.09658E-04 2.85993E-20
1.28695E-04 2.07822E-20
1.49255E-04 1.54631E-20
1.71338E-04 1.17436E-20
1.94942E-04 9.07860E-21
2.20070E-04 7.12901E-21
2.46720E-04 5.67617E-21
2.74892E-04 4.57544E-21
3.04586E-04 3.72928E-21
3.35803E-04 3.07005E-21
3.68542E-04 2.55038E-21
4.02802E-04 2.13620E-21
4.38585E-04 1.80282E-21
4.75889E-04 1.53204E-21
5.14715E-04 1.31025E-21
5.55063E-04 1.12719E-21
5.96931E-04 9.75006E-22
6.40321E-04 8.47655E-22
6.85233E-04 7.40430E-22
7.31665E-04 6.49626E-22
7.79618E-04 5.72318E-22
8.29092E-04 5.06165E-22
8.80086E-04 4.49290E-22
9.32601E-04 4.00175E-22
9.86636E-04 3.57580E-22
1.04219E-03 3.20496E-22
1.09927E-03 2.88088E-22
1.15786E-03 2.59665E-22
1.21797E-03 2.34653E-22
1.27961E-03 2.12574E-22
1.34276E-03 1.93023E-22
1.40743E-03 1.75661E-22
1.47362E-03 1.60201E-22
1.54133E-03 1.46397E-22
1.61056E-03 1.34043E-22
1.68131E-03 1.22958E-22
1.75357E-03 1.12989E-22
1.82735E-03 1.04005E-22
1.90265E-03 9.58909E-23
1.97947E-03 8.85477E-23
2.05780E-03 8.18893E-23
2.13765E-03 7.58405E-23
2.21902E-03 7.03357E-23
2.30190E-03 6.53172E-23
2.38630E-03 6.07345E-23
2.47222E-03 5.65430E-23
2.55965E-03 5.27033E-23
2.64859E-03 4.91808E-23
2.73905E-03 4.59445E-23
2.83103E-03 4.29671E-23
2.92452E-03 4.02241E-23
3.01952E-03 3.76938E-23
3.11604E-03 3.53567E-23
3.21407E-03 3.31956E-23
3.31362E-03 3.11947E-23
3.41468E-03 2.93401E-23
3.51725E-03 2.76191E-23
3.62133E-03 2.60205E-23
3.72692E-03 2.45340E-23
3.83403E-03 2.31502E-23
3.94265E-03 2.18610E-23
4.05278E-03 2.06585E-23
4.16442E-03 1.95360E-23
4.27757E-03 1.84872E-23
4.39223E-03 1.75064E-23
4.50840E-03 1.65884E-23
4.62608E-03 1.57284E-23
4.74527E-03 1.49222E-23
4.86597E-03 1.41658E-23
4.98817E-03 1.34555E-23
5.11188E-03 1.27881E-23
5.23711E-03 1.21606E-23
5.36383E-03 1.15700E-23
5.49207E-03 1.10138E-23
5.62181E-03 1.04898E-23
5.75306E-03 9.99565E-24
5.88581E-03 9.52940E-24
6.02007E-03 9.08920E-24
6.15583E-03 8.67334E-24
6.29310E-03 8.28024E-24
6.43187E-03 7.90843E-24
6.57214E-03 7.55656E-24
6.71392E-03 7.22337E-24
6.85720E-03 6.90770E-24
7.00198E-03 6.60847E-24
7.14827E-03 6.32468E-24
7.29605E-03 6.05538E-24
7.44534E-03 5.79971E-24
7.59612E-03 5.55687E-24
7.97965E-03 5.00103E-24
8.37255E-03 4.51031E-24
8.77480E-03 4.07587E-24
9.18641E-03 3.69027E-24
9.60736E-03 3.34716E-24
1.00376E-02 3.04114E-24
1.04773E-02 2.76759E-24
1.09262E-02 2.52254E-24
1.13844E-02 2.30256E-24
1.18520E-02 2.10471E-24
1.23288E-02 1.92643E-24
1.28150E-02 1.76549E-24
1.33104E-02 1.61996E-24
1.38150E-02 1.48815E-24
1.43290E-02 1.36858E-24
1.48521E-02 1.25995E-24
1.53845E-02 1.16111E-24
1.59262E-02 1.07106E-24
1.64770E-02 9.88910E-25
1.70371E-02 9.13866E-25
1.76063E-02 8.45232E-25
1.81848E-02 7.82386E-25
1.87724E-02 7.24775E-25
1.93692E-02 6.71905E-25
1.99751E-02 6.23335E-25
2.05901E-02 5.78670E-25
2.12143E-02 5.37557E-25
2.18476E-02 4.99677E-25
2.24900E-02 4.64746E-25
2.31415E-02 4.32504E-25
2.38021E-02 4.02721E-25
2.44717E-02 3.75187E-25
2.51504E-02 3.49712E-25
2.58382E-02 3.26125E-25
2.65349E-02 3.04269E-25
2.72407E-02 2.84004E-25
2.79555E-02 2.65202E-25
2.86793E-02 2.47745E-25
2.94120E-02 2.31527E-25
3.01537E-02 2.16451E-25
3.09043E-02 2.02429E-25
3.16639E-02 1.89380E-25
3.24324E-02 1.77229E-25
3.32098E-02 1.65910E-25
3.39961E-02 1.55359E-25
3.47912E-02 1.45520E-25
3.55952E-02 1.36340E-25
3.64081E-02 1.27773E-25
3.72297E-02 1.19772E-25
3.80602E-02 1.12299E-25
3.88995E-02 1.05314E-25
3.97476E-02 9.87849E-26
4.06044E-02 9.26783E-26
4.14700E-02 8.69652E-26
4.23443E-02 8.16184E-26
4.32273E-02 7.66128E-26
4.41190E-02 7.19252E-26
4.50194E-02 6.75341E-26
4.59284E-02 6.34195E-26
4.68461E-02 5.95630E-26
4.87074E-02 5.25568E-26
5.06030E-02 4.63928E-26
5.25328E-02 4.09648E-26
5.44967E-02 3.61811E-26
5.64946E-02 3.19622E-26
5.85262E-02 2.82389E-26
6.05914E-02 2.49513E-26
6.26901E-02 2.20468E-26
6.48222E-02 1.94797E-26
6.69873E-02 1.72100E-26
6.91854E-02 1.52026E-26
7.14163E-02 1.34269E-26
7.36799E-02 1.18558E-26
7.59760E-02 1.04656E-26
7.83043E-02 9.23548E-27
8.06647E-02 8.14692E-27
8.30571E-02 7.18373E-27
8.54812E-02 6.33159E-27
8.79369E-02 5.57782E-27
9.04240E-02 4.91124E-27
9.29422E-02 4.32192E-27
9.54915E-02 3.80109E-27
9.80716E-02 3.34098E-27
1.00682E-01 2.93470E-27
1.03323E-01 2.57613E-27
1.05995E-01 2.25984E-27
1.08696E-01 1.98102E-27
1.11427E-01 1.73541E-27
1.14188E-01 1.51920E-27
1.16978E-01 1.32902E-27
1.19797E-01 1.16188E-27
1.22645E-01 1.01512E-27
1.25522E-01 8.86372E-28
1.28428E-01 7.73547E-28
1.31361E-01 6.74778E-28
1.34323E-01 5.88410E-28
1.37313E-01 5.12976E-28
1.40330E-01 4.47172E-28
1.43375E-01 3.89842E-28
1.46447E-01 3.39962E-28
1.49545E-01 2.96623E-28
1.52671E-01 2.59021E-28
1.55823E-01 2.26444E-28
1.59001E-01 1.98262E-28
1.62205E-01 1.73920E-28
1.65435E-01 1.52926E-28
1.68690E-01 1.34846E-28
1.71970E-01 1.19298E-28
1.75276E-01 1.05947E-28
1.78606E-01 9.44972E-29
1.81961E-01 8.46889E-29
1.85340E-01 7.62948E-29
1.88743E-01 6.91160E-29
1.92169E-01 6.29787E-29
1.95619E-01 5.77311E-29
1.99092E-01 5.32413E-29
2.02589E-01 4.93947E-29
2.06107E-01 4.60920E-29
2.09649E-01 4.32475E-29
2.13212E-01 4.07872E-29
2.16797E-01 3.86477E-29
2.20404E-01 3.67745E-29
2.24032E-01 3.51214E-29
2.27680E-01 3.36490E-29
2.31350E-01 3.23240E-29
2.35040E-01 3.11186E-29
2.38751E-01 3.00093E-29
2.42481E-01 2.89767E-29
2.46231E-01 2.80049E-29
2.50000E-01 2.70810E-29
2.53788E-01 2.61943E-29
2.57595E-01 2.53366E-29
2.61421E-01 2.45014E-29
2.65264E-01 2.36836E-29
2.69126E-01 2.28795E-29
2.73005E-01 2.20866E-29
2.76901E-01 2.13029E-29
2.80814E-01 2.05276E-29
2.84744E-01 1.97601E-29
2.88691E-01 1.90004E-29
2.92653E-01 1.82488E-29
2.96632E-01 1.75059E-29
3.00625E-01 1.67726E-29
3.04634E-01 1.60497E-29
3.08658E-01 1.53382E-29
3.12697E-01 1.46392E-29
3.16749E-01 1.39536E-29
3.20816E-01 1.32826E-29
3.24896E-01 1.26270E-29
3.28990E-01 1.19877E-29
3.33097E-01 1.13655E-29
3.37216E-01 1.07611E-29
3.41348E-01 1.01752E-29
3.45492E-01 9.60822E-30
3.49647E-01 9.06063E-30
3.53814E-01 8.53274E-30
3.57992E-01 8.02478E-30
3.62181E-01 7.53689E-30
3.66381E-01 7.06910E-30
3.70590E-01 6.62139E-30
3.74810E-01 6.19363E-30
3.79039E-01 5.78564E-30
3.83277E-01 5.39717E-30
3.87524E-01 5.02791E-30
3.91780E-01 4.67749E-30
3.96044E-01 4.34549E-30
4.00316E-01 4.03146E-30
4.04596E-01 3.73492E-30
4.08882E-01 3.45534E-30
4.13176E-01 3.19217E-30
4.17476E-01 2.94485E-30
4.21783E-01 2.71280E-30
4.26095E-01 2.49542E-30
4.30413E-01 2.29211E-30
4.34737E-01 2.10227E-30
4.39065E-01 1.92530E-30
4.43398E-01 1.76058E-30
4.47736E-01 1.60753E-30
4.52077E-01 1.46556E-30
4.56422E-01 1.33407E-30
4.60770E-01 1.21252E-30
4.65122E-01 1.10034E-30
4.69476E-01 9.96995E-31
4.73832E-01 9.01958E-31
4.78190E-01 8.14726E-31
4.82550E-01 7.34807E-31
4.86912E-01 6.61732E-31
4.91274E-01 5.95048E-31
4.95637E-01 5.34322E-31
5.00000E-01 4.79141E-31
5.04363E-01 4.29108E-31
5.08726E-01 3.83850E-31
5.13088E-01 3.43008E-31
5.17450E-01 3.06245E-31
5.21810E-01 2.73241E-31
5.26168E-01 2.43694E-31
5.30524E-01 2.17321E-31
5.34878E-01 1.93853E-31
5.39230E-01 1.73040E-31
5.43578E-01 1.54647E-31
5.47923E-01 1.38455E-31
5.52264E-01 1.24260E-31
5.56602E-01 1.11870E-31
5.60935E-01 1.01109E-31
5.65263E-01 9.18130E-32
5.69587E-01 8.38301E-32
5.73905E-01 7.70201E-32
5.78217E-01 7.12540E-32
5.82524E-01 6.64132E-32
5.86824E-01 6.23888E-32
5.91118E-01 5.90813E-32
5.95404E-01 5.64000E-32
5.99684E-01 5.42621E-32
6.03956E-01 5.25926E-32
6.08220E-01 5.13237E-32
6.12476E-01 5.03940E-32
6.16723E-01 4.97485E-32
6.20961E-01 4.93377E-32
6.25190E-01 4.91176E-32
6.29410E-01 4.90490E-32
6.33619E-01 4.90973E-32
6.37819E-01 4.92318E-32
6.42008E-01 4.94259E-32
6.46186E-01 4.96563E-32
6.50353E-01 4.99028E-32
6.54508E-01 5.01484E-32
6.58652E-01 5.03784E-32
6.62784E-01 5.05807E-32
6.66903E-01 5.07450E-32
6.71010E-01 5.08633E-32
6.75104E-01 5.09291E-32
6.79184E-01 5.09376E-32
6.83251E-01 5.08851E-32
6.87303E-01 5.07693E-32
6.91342E-01 5.05889E-32
6.95366E-01 5.03434E-32
6.99375E-01 5.00334E-32
7.03368E-01 4.96598E-32
7.07347E-01 4.92244E-32
7.11309E-01 4.87293E-32
7.15256E-01 4.81771E-32
7.19186E-01 4.75706E-32
7.23099E-01 4.69130E-32
7.26995E-01 4.62077E-32
7.30874E-01 4.54581E-32
7.34736E-01 4.46677E-32
7.38579E-01 4.38403E-32
7.42405E-01 4.29795E-32
7.46212E-01 4.20890E-32
7.50000E-01 4.11723E-32
7.53769E-01 4.02329E-32
7.57519E-01 3.92743E-32
7.61249E-01 3.82998E-32
7.64960E-01 3.73127E-32
7.68650E-01 3.63160E-32
7.72320E-01 3.53126E-32
7.75968E-01 3.43053E-32
7.79596E-01 3.32968E-32
7.83203E-01 3.22895E-32
7.86788E-01 3.12858E-32
7.90351E-01 3.02879E-32
7.93893E-01 2.92976E-32
7.97411E-01 2.83170E-32
8.00908E-01 2.73477E-32
8.04381E-01 2.63912E-32
8.07831E-01 2.54489E-32
8.11257E-01 2.45221E-32
8.14660E-01 2.36120E-32
8.18039E-01 2.27196E-32
8.21394E-01 2.18456E-32
8.24724E-01 2.09910E-32
8.28030E-01 2.01562E-32
8.31310E-01 1.93420E-32
8.34565E-01 1.85486E-32
8.37795E-01 1.77765E-32
8.40999E-01 1.70260E-32
8.44177E-01 1.62971E-32
8.47329E-01 1.55901E-32
8.50455E-01 1.49048E-32
8.53553E-01 1.42414E-32
8.56625E-01 1.35997E-32
8.59670E-01 1.29796E-32
8.62687E-01 1.23808E-32
8.65677E-01 1.18032E-32
8.68639E-01 1.12464E-32
8.71572E-01 1.07101E-32
8.74478E-01 1.01940E-32
8.77355E-01 9.69771E-33
8.80203E-01 9.22082E-33
8.83022E-01 8.76291E-33
8.85812E-01 8.32353E-33
8.88573E-01 7.90222E-33
8.91304E-01 7.49852E-33
8.94005E-01 7.11194E-33
8.96677E-01 6.74200E-33
8.99318E-01 6.38822E-33
9.01928E-01 6.05008E-33
9.04508E-01 5.72710E-33
9.07058E-01 5.41879E-33
9.09576E-01 5.12464E-33
9.12063E-01 4.84416E-33
9.14519E-01 4.57687E-33
9.16943E-01 4.32229E-33
9.19335E-01 4.07995E-33
9.21696E-01 3.84937E-33
9.24024E-01 3.63011E-33
9.26320E-01 3.42171E-33
9.28584E-01 3.22373E-33
9.30815E-01 3.03574E-33
9.33013E-01 2.85733E-33
9.35178E-01 2.68808E-33
9.37310E-01 2.52761E-33
9.39409E-01 2.37553E-33
9.41474E-01 2.23146E-33
9.43505E-01 2.09504E-33
9.45503E-01 1.96592E-33
9.47467E-01 1.84377E-33
9.49397E-01 1.72825E-33
9.51293E-01 1.61906E-33
9.53154E-01 1.51589E-33
9.54981E-01 1.41844E-33
9.56773E-01 1.32645E-33
9.58530E-01 1.23963E-33
9.60252E-01 1.15773E-33
9.61940E-01 1.08050E-33
9.63592E-01 1.00770E-33
9.65209E-01 9.39113E-34
9.66790E-01 8.74511E-34
9.68336E-01 8.13689E-34
9.69846E-01 7.56449E-34
9.71321E-01 7.02601E-34
9.72759E-01 6.51965E-34
9.74162E-01 6.04367E-34
9.75528E-01 5.59646E-34
9.76858E-01 5.17644E-34
9.78152E-01 4.78213E-34
9.79410E-01 4.41214E-34
9.80631E-01 4.06512E-34
9.81815E-01 3.73981E-34
9.82963E-01 3.43502E-34
9.84074E-01 3.14959E-34
9.85148E-01 2.88248E-34
9.86185E-01 2.63265E-34
9.87185E-01 2.39916E-34
9.88148E-01 2.18109E-34
9.89074E-01 1.97761E-34
9.89962E-01 1.78791E-34
9.90814E-01 1.61124E-34
9.91627E-01 1.44689E-34
9.92404E-01 1.29421E-34
9.93143E-01 1.15257E-34
9.93844E-01 1.02140E-34
9.94508E-01 9.00158E-35
9.95134E-01 7.88349E-35
9.95722E-01 6.85506E-35
9.96273E-01 5.91200E-35
9.96786E-01 5.05036E-35
9.97261E-01 4.26651E-35
9.97698E-01 3.55713E-35
9.98097E-01 2.91921E-35
9.98459E-01 2.35003E-35
9.98782E-01 1.84716E-35
9.99067E-01 1.40842E-35
9.99315E-01 1.03195E-35
9.99524E-01 7.16120E-36
9.99695E-01 4.59553E-36
9.99829E-01 2.61145E-36
9.99924E-01 1.20039E-36
9.99981E-01 3.56256E-37
1.00000E+00 7.53814E-38
