 #
 # Subroutine ELSEPA. Elastic scattering of electrons and positrons
 #                    by neutral atoms and positive ions
 #
 # Projectile: electron
 # Kinetic energy = 1.00000E+07 eV = 3.67493E+05 a.u.
 #
 # WARNING: High-energy factorization with free-atom DF screening.
 #          Absorption, polarization and exchange corrections are
 #          switched off.
 #          Phase shifts are calculated for the bare nucleus.
 #          Scattering amplitudes are not evaluated.
 #
 # Element: Rh,  Z =  45,  atomic weight = 1.02906E+02 g/mol
 #
 # Nuclear model: Fermi distribution
 #                Average radius = 5.01414E-13 cm
 #                Skin thickness = 5.46000E-14 cm
 #
 # Number of electrons = 45
 #
 # Total elastic cross section = 4.22554E-18 cm**2 = 1.50897E-01 a0**2
 # 1st transport cross section = 3.19574E-23 cm**2 = 1.14122E-06 a0**2
 # 2nd transport cross section = 9.03456E-23 cm**2 = 3.22630E-06 a0**2
 #
 #
 # Differential cross section:                       MU=(1-COS(THETA))/2
 #
 #  THETA        MU          DCS          DCS        Sherman      error
 #  (deg)                 (cm**2/sr)   (a0**2/sr)    function
 #----------------------------------------------------------------------
0.00000E+00 3.50791E-12
7.61557E-13 3.50781E-12
1.18994E-12 3.50776E-12
1.71346E-12 3.50770E-12
2.33225E-12 3.50762E-12
3.04617E-12 3.50753E-12
3.85530E-12 3.50743E-12
4.75964E-12 3.50732E-12
5.75917E-12 3.50720E-12
6.85391E-12 3.50707E-12
8.04379E-12 3.50692E-12
9.32893E-12 3.50676E-12
1.07092E-11 3.50659E-12
1.21847E-11 3.50641E-12
1.37554E-11 3.50622E-12
1.54213E-11 3.50602E-12
1.71823E-11 3.50580E-12
1.90386E-11 3.50558E-12
2.09900E-11 3.50534E-12
2.30367E-11 3.50509E-12
2.51785E-11 3.50483E-12
2.74156E-11 3.50455E-12
2.97478E-11 3.50427E-12
3.21752E-11 3.50397E-12
3.46979E-11 3.50367E-12
3.73157E-11 3.50335E-12
4.00286E-11 3.50302E-12
4.28368E-11 3.50267E-12
4.57402E-11 3.50232E-12
4.87388E-11 3.50195E-12
5.18325E-11 3.50158E-12
5.50215E-11 3.50119E-12
5.83057E-11 3.50079E-12
6.16850E-11 3.50038E-12
6.51595E-11 3.49995E-12
6.87293E-11 3.49952E-12
7.23943E-11 3.49907E-12
7.61544E-11 3.49862E-12
1.18991E-10 3.49342E-12
1.71347E-10 3.48709E-12
2.33223E-10 3.47963E-12
3.04617E-10 3.47106E-12
3.85531E-10 3.46141E-12
4.75965E-10 3.45068E-12
5.75917E-10 3.43889E-12
6.85389E-10 3.42607E-12
8.04380E-10 3.41223E-12
9.32891E-10 3.39741E-12
1.07092E-09 3.38163E-12
1.21847E-09 3.36492E-12
1.37554E-09 3.34730E-12
1.54213E-09 3.32881E-12
1.71823E-09 3.30947E-12
1.90386E-09 3.28932E-12
2.09900E-09 3.26837E-12
2.30367E-09 3.24657E-12
2.51785E-09 3.22410E-12
2.74156E-09 3.20102E-12
2.97478E-09 3.17736E-12
3.21752E-09 3.15317E-12
3.46978E-09 3.12813E-12
3.73156E-09 3.10257E-12
4.00286E-09 3.07659E-12
4.28368E-09 3.05022E-12
4.57402E-09 3.02351E-12
4.87388E-09 2.99617E-12
5.18326E-09 2.96837E-12
5.50215E-09 2.94034E-12
5.83057E-09 2.91211E-12
6.16850E-09 2.88371E-12
6.51596E-09 2.85493E-12
6.87293E-09 2.82571E-12
7.23942E-09 2.79642E-12
7.61544E-09 2.76710E-12
1.18991E-08 2.47048E-12
1.71347E-08 2.18273E-12
2.33223E-08 1.91697E-12
3.04617E-08 1.67894E-12
3.85531E-08 1.46958E-12
4.75965E-08 1.28720E-12
5.75917E-08 1.12900E-12
6.85389E-08 9.91828E-13
8.04380E-08 8.72812E-13
9.32891E-08 7.69482E-13
1.07092E-07 6.79602E-13
1.21847E-07 6.01269E-13
1.37554E-07 5.32872E-13
1.54213E-07 4.73047E-13
1.71823E-07 4.20635E-13
1.90386E-07 3.74651E-13
2.09900E-07 3.33919E-13
2.30367E-07 2.95746E-13
2.51785E-07 2.63657E-13
2.74156E-07 2.36505E-13
2.97478E-07 2.13385E-13
3.21752E-07 1.93581E-13
3.46978E-07 1.73886E-13
3.73156E-07 1.56590E-13
4.00286E-07 1.41663E-13
4.28368E-07 1.28717E-13
4.57402E-07 1.17438E-13
4.87388E-07 1.06882E-13
5.18325E-07 9.72821E-14
5.50215E-07 8.88540E-14
5.83057E-07 8.14265E-14
6.16850E-07 7.48568E-14
6.51596E-07 6.88689E-14
6.87293E-07 6.33367E-14
7.23942E-07 5.84082E-14
7.61543E-07 5.40041E-14
1.18991E-06 2.69503E-14
1.71347E-06 1.52784E-14
2.33223E-06 9.39760E-15
3.04617E-06 6.08639E-15
3.85531E-06 4.08683E-15
4.75964E-06 2.82536E-15
5.75916E-06 2.00439E-15
6.85388E-06 1.45634E-15
8.04378E-06 1.08254E-15
9.32888E-06 8.21429E-16
1.07092E-05 6.34821E-16
1.21846E-05 4.98728E-16
1.37553E-05 3.97636E-16
1.54212E-05 3.21223E-16
1.71822E-05 2.62500E-16
1.90385E-05 2.16648E-16
2.09899E-05 1.80502E-16
2.30365E-05 1.51534E-16
2.51783E-05 1.28305E-16
2.74153E-05 1.09208E-16
2.97475E-05 9.36247E-17
3.21749E-05 8.06380E-17
3.46974E-05 6.98717E-17
3.73152E-05 6.08047E-17
4.00281E-05 5.31814E-17
4.28362E-05 4.66942E-17
4.57395E-05 4.11702E-17
4.87380E-05 3.64281E-17
5.18317E-05 3.23474E-17
5.50205E-05 2.88172E-17
5.83045E-05 2.57527E-17
6.16838E-05 2.30841E-17
6.51582E-05 2.07500E-17
6.87277E-05 1.87045E-17
7.23925E-05 1.69031E-17
7.61524E-05 1.53148E-17
9.21439E-05 1.05509E-17
1.09658E-04 7.50245E-18
1.28695E-04 5.48067E-18
1.49255E-04 4.09687E-18
1.71338E-04 3.12439E-18
1.94942E-04 2.42453E-18
2.20070E-04 1.91049E-18
2.46720E-04 1.52601E-18
2.74892E-04 1.23372E-18
3.04586E-04 1.00831E-18
3.35803E-04 8.32179E-19
3.68542E-04 6.92943E-19
4.02802E-04 5.81687E-19
4.38585E-04 4.91914E-19
4.75889E-04 4.18835E-19
5.14715E-04 3.58850E-19
5.55063E-04 3.09244E-19
5.96931E-04 2.67930E-19
6.40321E-04 2.33298E-19
6.85233E-04 2.04093E-19
7.31665E-04 1.79323E-19
7.79618E-04 1.58204E-19
8.29092E-04 1.40109E-19
8.80086E-04 1.24532E-19
9.32601E-04 1.11064E-19
9.86636E-04 9.93707E-20
1.04219E-03 8.91795E-20
1.09927E-03 8.02639E-20
1.15786E-03 7.24373E-20
1.21797E-03 6.55436E-20
1.27961E-03 5.94524E-20
1.34276E-03 5.40542E-20
1.40743E-03 4.92563E-20
1.47362E-03 4.49803E-20
1.54133E-03 4.11596E-20
1.61056E-03 3.77370E-20
1.68131E-03 3.46639E-20
1.75357E-03 3.18981E-20
1.82735E-03 2.94035E-20
1.90265E-03 2.71489E-20
1.97947E-03 2.51069E-20
2.05780E-03 2.32539E-20
2.13765E-03 2.15692E-20
2.21902E-03 2.00350E-20
2.30190E-03 1.86353E-20
2.38630E-03 1.73561E-20
2.47222E-03 1.61852E-20
2.55965E-03 1.51117E-20
2.64859E-03 1.41262E-20
2.73905E-03 1.32200E-20
2.83103E-03 1.23857E-20
2.92452E-03 1.16164E-20
3.01952E-03 1.09061E-20
3.11604E-03 1.02496E-20
3.21407E-03 9.64195E-21
3.31362E-03 9.07887E-21
3.41468E-03 8.55650E-21
3.51725E-03 8.07135E-21
3.62133E-03 7.62027E-21
3.72692E-03 7.20041E-21
3.83403E-03 6.80922E-21
3.94265E-03 6.44438E-21
4.05278E-03 6.10379E-21
4.16442E-03 5.78551E-21
4.27757E-03 5.48782E-21
4.39223E-03 5.20915E-21
4.50840E-03 4.94804E-21
4.62608E-03 4.70318E-21
4.74527E-03 4.47336E-21
4.86597E-03 4.25750E-21
4.98817E-03 4.05458E-21
5.11188E-03 3.86368E-21
5.23711E-03 3.68395E-21
5.36383E-03 3.51462E-21
5.49207E-03 3.35497E-21
5.62181E-03 3.20434E-21
5.75306E-03 3.06212E-21
5.88581E-03 2.92776E-21
6.02007E-03 2.80073E-21
6.15583E-03 2.68057E-21
6.29310E-03 2.56683E-21
6.43187E-03 2.45910E-21
6.57214E-03 2.35700E-21
6.71392E-03 2.26018E-21
6.85720E-03 2.16833E-21
7.00198E-03 2.08111E-21
7.14827E-03 1.99828E-21
7.29605E-03 1.91956E-21
7.44534E-03 1.84470E-21
7.59612E-03 1.77349E-21
7.97965E-03 1.61003E-21
8.37255E-03 1.46511E-21
8.77480E-03 1.33625E-21
9.18641E-03 1.22137E-21
9.60736E-03 1.11866E-21
1.00376E-02 1.02661E-21
1.04773E-02 9.43915E-22
1.09262E-02 8.69449E-22
1.13844E-02 8.02245E-22
1.18520E-02 7.41467E-22
1.23288E-02 6.86388E-22
1.28150E-02 6.36374E-22
1.33104E-02 5.90875E-22
1.38150E-02 5.49408E-22
1.43290E-02 5.11550E-22
1.48521E-02 4.76928E-22
1.53845E-02 4.45214E-22
1.59262E-02 4.16119E-22
1.64770E-02 3.89386E-22
1.70371E-02 3.64787E-22
1.76063E-02 3.42120E-22
1.81848E-02 3.21204E-22
1.87724E-02 3.01879E-22
1.93692E-02 2.84002E-22
1.99751E-02 2.67442E-22
2.05901E-02 2.52085E-22
2.12143E-02 2.37826E-22
2.18476E-02 2.24572E-22
2.24900E-02 2.12239E-22
2.31415E-02 2.00751E-22
2.38021E-02 1.90038E-22
2.44717E-02 1.80038E-22
2.51504E-02 1.70695E-22
2.58382E-02 1.61957E-22
2.65349E-02 1.53778E-22
2.72407E-02 1.46114E-22
2.79555E-02 1.38928E-22
2.86793E-02 1.32183E-22
2.94120E-02 1.25847E-22
3.01537E-02 1.19891E-22
3.09043E-02 1.14287E-22
3.16639E-02 1.09011E-22
3.24324E-02 1.04039E-22
3.32098E-02 9.93507E-23
3.39961E-02 9.49269E-23
3.47912E-02 9.07497E-23
3.55952E-02 8.68024E-23
3.64081E-02 8.30699E-23
3.72297E-02 7.95382E-23
3.80602E-02 7.61945E-23
3.88995E-02 7.30269E-23
3.97476E-02 7.00242E-23
4.06044E-02 6.71761E-23
4.14700E-02 6.44731E-23
4.23443E-02 6.19063E-23
4.32273E-02 5.94674E-23
4.41190E-02 5.71489E-23
4.50194E-02 5.49437E-23
4.59284E-02 5.28452E-23
4.68461E-02 5.08471E-23
4.87074E-02 4.71294E-23
5.06030E-02 4.37491E-23
5.25328E-02 4.06700E-23
5.44967E-02 3.78601E-23
5.64946E-02 3.52912E-23
5.85262E-02 3.29389E-23
6.05914E-02 3.07816E-23
6.26901E-02 2.87998E-23
6.48222E-02 2.69765E-23
6.69873E-02 2.52969E-23
6.91854E-02 2.37472E-23
7.14163E-02 2.23155E-23
7.36799E-02 2.09911E-23
7.59760E-02 1.97645E-23
7.83043E-02 1.86270E-23
8.06647E-02 1.75708E-23
8.30571E-02 1.65892E-23
8.54812E-02 1.56756E-23
8.79369E-02 1.48246E-23
9.04240E-02 1.40311E-23
9.29422E-02 1.32902E-23
9.54915E-02 1.25979E-23
9.80716E-02 1.19506E-23
1.00682E-01 1.13444E-23
1.03323E-01 1.07765E-23
1.05995E-01 1.02438E-23
1.08696E-01 9.74379E-24
1.11427E-01 9.27407E-24
1.14188E-01 8.83244E-24
1.16978E-01 8.41687E-24
1.19797E-01 8.02553E-24
1.22645E-01 7.65674E-24
1.25522E-01 7.30893E-24
1.28428E-01 6.98068E-24
1.31361E-01 6.67068E-24
1.34323E-01 6.37770E-24
1.37313E-01 6.10064E-24
1.40330E-01 5.83845E-24
1.43375E-01 5.59017E-24
1.46447E-01 5.35494E-24
1.49545E-01 5.13192E-24
1.52671E-01 4.92035E-24
1.55823E-01 4.71954E-24
1.59001E-01 4.52883E-24
1.62205E-01 4.34760E-24
1.65435E-01 4.17530E-24
1.68690E-01 4.01139E-24
1.71970E-01 3.85539E-24
1.75276E-01 3.70685E-24
1.78606E-01 3.56533E-24
1.81961E-01 3.43044E-24
1.85340E-01 3.30180E-24
1.88743E-01 3.17908E-24
1.92169E-01 3.06194E-24
1.95619E-01 2.95008E-24
1.99092E-01 2.84321E-24
2.02589E-01 2.74108E-24
2.06107E-01 2.64342E-24
2.09649E-01 2.55001E-24
2.13212E-01 2.46062E-24
2.16797E-01 2.37505E-24
2.20404E-01 2.29309E-24
2.24032E-01 2.21458E-24
2.27680E-01 2.13933E-24
2.31350E-01 2.06718E-24
2.35040E-01 1.99799E-24
2.38751E-01 1.93160E-24
2.42481E-01 1.86788E-24
2.46231E-01 1.80670E-24
2.50000E-01 1.74794E-24
2.53788E-01 1.69149E-24
2.57595E-01 1.63724E-24
2.61421E-01 1.58508E-24
2.65264E-01 1.53492E-24
2.69126E-01 1.48667E-24
2.73005E-01 1.44024E-24
2.76901E-01 1.39555E-24
2.80814E-01 1.35253E-24
2.84744E-01 1.31109E-24
2.88691E-01 1.27116E-24
2.92653E-01 1.23269E-24
2.96632E-01 1.19561E-24
3.00625E-01 1.15986E-24
3.04634E-01 1.12538E-24
3.08658E-01 1.09211E-24
3.12697E-01 1.06002E-24
3.16749E-01 1.02904E-24
3.20816E-01 9.99137E-25
3.24896E-01 9.70260E-25
3.28990E-01 9.42368E-25
3.33097E-01 9.15422E-25
3.37216E-01 8.89384E-25
3.41348E-01 8.64217E-25
3.45492E-01 8.39887E-25
3.49647E-01 8.16361E-25
3.53814E-01 7.93606E-25
3.57992E-01 7.71593E-25
3.62181E-01 7.50294E-25
3.66381E-01 7.29681E-25
3.70590E-01 7.09727E-25
3.74810E-01 6.90407E-25
3.79039E-01 6.71699E-25
3.83277E-01 6.53578E-25
3.87524E-01 6.36023E-25
3.91780E-01 6.19013E-25
3.96044E-01 6.02528E-25
4.00316E-01 5.86549E-25
4.04596E-01 5.71057E-25
4.08882E-01 5.56035E-25
4.13176E-01 5.41466E-25
4.17476E-01 5.27334E-25
4.21783E-01 5.13623E-25
4.26095E-01 5.00319E-25
4.30413E-01 4.87407E-25
4.34737E-01 4.74873E-25
4.39065E-01 4.62706E-25
4.43398E-01 4.50891E-25
4.47736E-01 4.39417E-25
4.52077E-01 4.28272E-25
4.56422E-01 4.17445E-25
4.60770E-01 4.06926E-25
4.65122E-01 3.96704E-25
4.69476E-01 3.86770E-25
4.73832E-01 3.77113E-25
4.78190E-01 3.67725E-25
4.82550E-01 3.58597E-25
4.86912E-01 3.49720E-25
4.91274E-01 3.41087E-25
4.95637E-01 3.32689E-25
5.00000E-01 3.24520E-25
5.04363E-01 3.16570E-25
5.08726E-01 3.08835E-25
5.13088E-01 3.01307E-25
5.17450E-01 2.93979E-25
5.21810E-01 2.86846E-25
5.26168E-01 2.79900E-25
5.30524E-01 2.73138E-25
5.34878E-01 2.66552E-25
5.39230E-01 2.60137E-25
5.43578E-01 2.53889E-25
5.47923E-01 2.47802E-25
5.52264E-01 2.41872E-25
5.56602E-01 2.36093E-25
5.60935E-01 2.30461E-25
5.65263E-01 2.24973E-25
5.69587E-01 2.19623E-25
5.73905E-01 2.14407E-25
5.78217E-01 2.09322E-25
5.82524E-01 2.04364E-25
5.86824E-01 1.99530E-25
5.91118E-01 1.94815E-25
5.95404E-01 1.90216E-25
5.99684E-01 1.85730E-25
6.03956E-01 1.81354E-25
6.08220E-01 1.77084E-25
6.12476E-01 1.72918E-25
6.16723E-01 1.68853E-25
6.20961E-01 1.64885E-25
6.25190E-01 1.61013E-25
6.29410E-01 1.57234E-25
6.33619E-01 1.53545E-25
6.37819E-01 1.49943E-25
6.42008E-01 1.46426E-25
6.46186E-01 1.42992E-25
6.50353E-01 1.39639E-25
6.54508E-01 1.36365E-25
6.58652E-01 1.33167E-25
6.62784E-01 1.30043E-25
6.66903E-01 1.26992E-25
6.71010E-01 1.24011E-25
6.75104E-01 1.21099E-25
6.79184E-01 1.18254E-25
6.83251E-01 1.15474E-25
6.87303E-01 1.12757E-25
6.91342E-01 1.10102E-25
6.95366E-01 1.07508E-25
6.99375E-01 1.04972E-25
7.03368E-01 1.02493E-25
7.07347E-01 1.00070E-25
7.11309E-01 9.77019E-26
7.15256E-01 9.53864E-26
7.19186E-01 9.31225E-26
7.23099E-01 9.09090E-26
7.26995E-01 8.87446E-26
7.30874E-01 8.66281E-26
7.34736E-01 8.45584E-26
7.38579E-01 8.25343E-26
7.42405E-01 8.05547E-26
7.46212E-01 7.86185E-26
7.50000E-01 7.67247E-26
7.53769E-01 7.48722E-26
7.57519E-01 7.30601E-26
7.61249E-01 7.12874E-26
7.64960E-01 6.95532E-26
7.68650E-01 6.78566E-26
7.72320E-01 6.61966E-26
7.75968E-01 6.45725E-26
7.79596E-01 6.29834E-26
7.83203E-01 6.14284E-26
7.86788E-01 5.99069E-26
7.90351E-01 5.84180E-26
7.93893E-01 5.69609E-26
7.97411E-01 5.55351E-26
8.00908E-01 5.41397E-26
8.04381E-01 5.27740E-26
8.07831E-01 5.14375E-26
8.11257E-01 5.01294E-26
8.14660E-01 4.88492E-26
8.18039E-01 4.75961E-26
8.21394E-01 4.63697E-26
8.24724E-01 4.51693E-26
8.28030E-01 4.39944E-26
8.31310E-01 4.28444E-26
8.34565E-01 4.17187E-26
8.37795E-01 4.06169E-26
8.40999E-01 3.95384E-26
8.44177E-01 3.84828E-26
8.47329E-01 3.74496E-26
8.50455E-01 3.64383E-26
8.53553E-01 3.54484E-26
8.56625E-01 3.44795E-26
8.59670E-01 3.35311E-26
8.62687E-01 3.26029E-26
8.65677E-01 3.16944E-26
8.68639E-01 3.08053E-26
8.71572E-01 2.99351E-26
8.74478E-01 2.90835E-26
8.77355E-01 2.82500E-26
8.80203E-01 2.74344E-26
8.83022E-01 2.66362E-26
8.85812E-01 2.58552E-26
8.88573E-01 2.50910E-26
8.91304E-01 2.43433E-26
8.94005E-01 2.36117E-26
8.96677E-01 2.28960E-26
8.99318E-01 2.21959E-26
9.01928E-01 2.15110E-26
9.04508E-01 2.08411E-26
9.07058E-01 2.01859E-26
9.09576E-01 1.95451E-26
9.12063E-01 1.89186E-26
9.14519E-01 1.83059E-26
9.16943E-01 1.77069E-26
9.19335E-01 1.71213E-26
9.21696E-01 1.65489E-26
9.24024E-01 1.59895E-26
9.26320E-01 1.54428E-26
9.28584E-01 1.49087E-26
9.30815E-01 1.43868E-26
9.33013E-01 1.38771E-26
9.35178E-01 1.33792E-26
9.37310E-01 1.28930E-26
9.39409E-01 1.24184E-26
9.41474E-01 1.19551E-26
9.43505E-01 1.15029E-26
9.45503E-01 1.10617E-26
9.47467E-01 1.06313E-26
9.49397E-01 1.02116E-26
9.51293E-01 9.80232E-27
9.53154E-01 9.40337E-27
9.54981E-01 9.01458E-27
9.56773E-01 8.63582E-27
9.58530E-01 8.26693E-27
9.60252E-01 7.90777E-27
9.61940E-01 7.55822E-27
9.63592E-01 7.21814E-27
9.65209E-01 6.88740E-27
9.66790E-01 6.56588E-27
9.68336E-01 6.25346E-27
9.69846E-01 5.95002E-27
9.71321E-01 5.65545E-27
9.72759E-01 5.36965E-27
9.74162E-01 5.09250E-27
9.75528E-01 4.82390E-27
9.76858E-01 4.56376E-27
9.78152E-01 4.31198E-27
9.79410E-01 4.06847E-27
9.80631E-01 3.83314E-27
9.81815E-01 3.60590E-27
9.82963E-01 3.38667E-27
9.84074E-01 3.17538E-27
9.85148E-01 2.97193E-27
9.86185E-01 2.77627E-27
9.87185E-01 2.58832E-27
9.88148E-01 2.40801E-27
9.89074E-01 2.23528E-27
9.89962E-01 2.07006E-27
9.90814E-01 1.91230E-27
9.91627E-01 1.76194E-27
9.92404E-01 1.61893E-27
9.93143E-01 1.48321E-27
9.93844E-01 1.35474E-27
9.94508E-01 1.23347E-27
9.95134E-01 1.11936E-27
9.95722E-01 1.01236E-27
9.96273E-01 9.12445E-28
9.96786E-01 8.19572E-28
9.97261E-01 7.33709E-28
9.97698E-01 6.54827E-28
9.98097E-01 5.82897E-28
9.98459E-01 5.17894E-28
9.98782E-01 4.59795E-28
9.99067E-01 4.08579E-28
9.99315E-01 3.64228E-28
9.99524E-01 3.26728E-28
9.99695E-01 2.96063E-28
9.99829E-01 2.72224E-28
9.99924E-01 2.55202E-28
9.99981E-01 2.44991E-28
1.00000E+00 2.41588E-28
