 #
 # Subroutine ELSEPA. Elastic scattering of electrons and positrons
 #                    by neutral atoms and positive ions
 #
 # Projectile: electron
 # Kinetic energy = 8.00000E+08 eV = 2.93995E+07 a.u.
 #
 # WARNING: High-energy factorization with free-atom DF screening.
 #          Absorption, polarization and exchange corrections are
 #          switched off.
 #          Phase shifts are calculated for the bare nucleus.
 #          Scattering amplitudes are not evaluated.
 #
 # Element: Rh,  Z =  45,  atomic weight = 1.02906E+02 g/mol
 #
 # Nuclear model: Fermi distribution
 #                Average radius = 5.01414E-13 cm
 #                Skin thickness = 5.46000E-14 cm
 #
 # Number of electrons = 45
 #
 # Total elastic cross section = 4.20156E-18 cm**2 = 1.50040E-01 a0**2
 # 1st transport cross section = 6.27473E-27 cm**2 = 2.24075E-10 a0**2
 # 2nd transport cross section = 1.88212E-26 cm**2 = 6.72116E-10 a0**2
 #
 #
 # Differential cross section:                       MU=(1-COS(THETA))/2
 #
 #  THETA        MU          DCS          DCS        Sherman      error
 #  (deg)                 (cm**2/sr)   (a0**2/sr)    function
 #----------------------------------------------------------------------
0.00000E+00 2.03467E-08
7.61557E-13 1.76140E-08
1.18994E-12 1.63676E-08
1.71346E-12 1.50601E-08
2.33225E-12 1.37553E-08
3.04617E-12 1.24988E-08
3.85530E-12 1.13219E-08
4.75964E-12 1.02350E-08
5.75917E-12 9.24867E-09
6.85391E-12 8.35366E-09
8.04379E-12 7.55242E-09
9.32893E-12 6.82988E-09
1.07092E-11 6.18482E-09
1.21847E-11 5.60468E-09
1.37554E-11 5.08540E-09
1.54213E-11 4.61857E-09
1.71823E-11 4.19906E-09
1.90386E-11 3.82180E-09
2.09900E-11 3.48139E-09
2.30367E-11 3.17516E-09
2.51785E-11 2.89779E-09
2.74156E-11 2.64816E-09
2.97478E-11 2.42134E-09
3.21752E-11 2.21685E-09
3.46979E-11 2.03102E-09
3.73157E-11 1.85422E-09
4.00286E-11 1.69227E-09
4.28368E-11 1.55032E-09
4.57402E-11 1.42542E-09
4.87388E-11 1.31511E-09
5.18325E-11 1.21735E-09
5.50215E-11 1.13040E-09
5.83057E-11 1.04275E-09
6.16850E-11 9.61171E-10
6.51595E-11 8.88414E-10
6.87293E-11 8.23333E-10
7.23943E-11 7.64953E-10
7.61544E-11 7.12443E-10
1.18991E-10 3.63402E-10
1.71347E-10 2.06089E-10
2.33223E-10 1.27516E-10
3.04617E-10 8.40920E-11
3.85531E-10 5.80457E-11
4.75965E-10 4.12953E-11
5.75917E-10 3.01184E-11
6.85389E-10 2.23500E-11
8.04380E-10 1.68842E-11
9.32891E-10 1.29392E-11
1.07092E-09 1.00613E-11
1.21847E-09 7.93044E-12
1.37554E-09 6.33373E-12
1.54213E-09 5.11930E-12
1.71823E-09 4.18340E-12
1.90386E-09 3.45329E-12
2.09900E-09 2.87708E-12
2.30367E-09 2.41777E-12
2.51785E-09 2.04766E-12
2.74156E-09 1.74673E-12
2.97478E-09 1.49949E-12
3.21752E-09 1.29488E-12
3.46978E-09 1.12411E-12
3.73156E-09 9.80326E-13
4.00286E-09 8.59051E-13
4.28368E-09 7.56544E-13
4.57402E-09 6.68286E-13
4.87388E-09 5.92710E-13
5.18326E-09 5.27745E-13
5.50215E-09 4.70975E-13
5.83057E-09 4.21827E-13
6.16850E-09 3.78912E-13
6.51596E-09 3.41155E-13
6.87293E-09 3.08092E-13
7.23942E-09 2.78838E-13
7.61544E-09 2.52938E-13
1.18991E-08 1.06463E-13
1.71347E-08 5.21399E-14
2.33223E-08 2.84448E-14
3.04617E-08 1.68142E-14
3.85531E-08 1.05700E-14
4.75965E-08 6.97555E-15
5.75917E-08 4.78801E-15
6.85389E-08 3.39479E-15
8.04380E-08 2.47342E-15
9.32891E-08 1.84442E-15
1.07092E-07 1.40316E-15
1.21847E-07 1.08624E-15
1.37554E-07 8.53908E-16
1.54213E-07 6.80456E-16
1.71823E-07 5.48863E-16
1.90386E-07 4.47576E-16
2.09900E-07 3.68596E-16
2.30367E-07 3.06281E-16
2.51785E-07 2.56588E-16
2.74156E-07 2.16570E-16
2.97478E-07 1.84054E-16
3.21752E-07 1.57414E-16
3.46978E-07 1.35421E-16
3.73156E-07 1.17137E-16
4.00286E-07 1.01835E-16
4.28368E-07 8.89514E-17
4.57402E-07 7.80413E-17
4.87388E-07 6.87532E-17
5.18325E-07 6.08062E-17
5.50215E-07 5.39745E-17
5.83057E-07 4.80755E-17
6.16850E-07 4.29606E-17
6.51596E-07 3.85081E-17
6.87293E-07 3.46175E-17
7.23942E-07 3.12060E-17
7.61543E-07 2.82045E-17
1.18991E-06 1.15641E-17
1.71347E-06 5.58012E-18
2.33223E-06 3.01323E-18
3.04617E-06 1.76686E-18
3.85531E-06 1.10333E-18
4.75964E-06 7.24061E-19
5.75916E-06 4.94648E-19
6.85388E-06 3.49325E-19
8.04378E-06 2.53667E-19
9.32888E-06 1.88628E-19
1.07092E-05 1.43163E-19
1.21846E-05 1.10609E-19
1.37553E-05 8.68061E-20
1.54212E-05 6.90768E-20
1.71822E-05 5.56521E-20
1.90385E-05 4.53271E-20
2.09899E-05 3.73075E-20
2.30365E-05 3.09840E-20
2.51783E-05 2.59425E-20
2.74153E-05 2.18837E-20
2.97475E-05 1.85873E-20
3.21749E-05 1.58889E-20
3.46974E-05 1.36636E-20
3.73152E-05 1.18156E-20
4.00281E-05 1.02705E-20
4.28362E-05 8.97026E-21
4.57395E-05 7.86952E-21
4.87380E-05 6.93243E-21
5.18317E-05 6.13057E-21
5.50205E-05 5.44124E-21
5.83045E-05 4.84609E-21
6.16838E-05 4.33019E-21
6.51582E-05 3.88126E-21
6.87277E-05 3.48916E-21
7.23925E-05 3.14544E-21
7.61524E-05 2.82060E-21
9.21439E-05 1.92025E-21
1.09658E-04 1.35039E-21
1.28695E-04 9.75845E-22
1.49255E-04 7.21533E-22
1.71338E-04 5.44148E-22
1.94942E-04 4.17422E-22
2.20070E-04 3.25018E-22
2.46720E-04 2.56411E-22
2.74892E-04 2.04642E-22
3.04586E-04 1.65026E-22
3.35803E-04 1.34313E-22
3.68542E-04 1.10231E-22
4.02802E-04 9.11479E-23
4.38585E-04 7.58831E-23
4.75889E-04 6.35674E-23
5.14715E-04 5.35514E-23
5.55063E-04 4.53472E-23
5.96931E-04 3.85818E-23
6.40321E-04 3.29686E-23
6.85233E-04 2.82850E-23
7.31665E-04 2.43561E-23
7.79618E-04 2.10446E-23
8.29092E-04 1.82404E-23
8.80086E-04 1.58560E-23
9.32601E-04 1.38205E-23
9.86636E-04 1.20764E-23
1.04219E-03 1.05769E-23
1.09927E-03 9.28357E-24
1.15786E-03 8.16465E-24
1.21797E-03 7.19390E-24
1.27961E-03 6.34950E-24
1.34276E-03 5.61317E-24
1.40743E-03 4.96960E-24
1.47362E-03 4.40587E-24
1.54133E-03 3.91106E-24
1.61056E-03 3.47592E-24
1.68131E-03 3.09256E-24
1.75357E-03 2.75425E-24
1.82735E-03 2.45522E-24
1.90265E-03 2.19052E-24
1.97947E-03 1.95588E-24
2.05780E-03 1.74762E-24
2.13765E-03 1.56254E-24
2.21902E-03 1.39789E-24
2.30190E-03 1.25124E-24
2.38630E-03 1.12050E-24
2.47222E-03 1.00384E-24
2.55965E-03 8.99658E-25
2.64859E-03 8.06540E-25
2.73905E-03 7.23253E-25
2.83103E-03 6.48709E-25
2.92452E-03 5.81950E-25
3.01952E-03 5.22131E-25
3.11604E-03 4.68503E-25
3.21407E-03 4.20403E-25
3.31362E-03 3.77246E-25
3.41468E-03 3.38509E-25
3.51725E-03 3.03730E-25
3.62133E-03 2.72495E-25
3.72692E-03 2.44440E-25
3.83403E-03 2.19234E-25
3.94265E-03 1.96587E-25
4.05278E-03 1.76237E-25
4.16442E-03 1.57951E-25
4.27757E-03 1.41519E-25
4.39223E-03 1.26754E-25
4.50840E-03 1.13488E-25
4.62608E-03 1.01570E-25
4.74527E-03 9.08659E-26
4.86597E-03 8.12533E-26
4.98817E-03 7.26232E-26
5.11188E-03 6.48774E-26
5.23711E-03 5.79277E-26
5.36383E-03 5.16944E-26
5.49207E-03 4.61060E-26
5.62181E-03 4.10980E-26
5.75306E-03 3.66124E-26
5.88581E-03 3.25966E-26
6.02007E-03 2.90037E-26
6.15583E-03 2.57909E-26
6.29310E-03 2.29200E-26
6.43187E-03 2.03563E-26
6.57214E-03 1.80687E-26
6.71392E-03 1.60289E-26
6.85720E-03 1.42117E-26
7.00198E-03 1.25940E-26
7.14827E-03 1.11554E-26
7.29605E-03 9.87718E-27
7.44534E-03 8.74258E-27
7.59612E-03 7.73651E-27
7.97965E-03 5.69764E-27
8.37255E-03 4.20255E-27
8.77480E-03 3.11454E-27
9.18641E-03 2.32904E-27
9.60736E-03 1.76647E-27
1.00376E-02 1.36655E-27
1.04773E-02 1.08393E-27
1.09262E-02 8.84777E-28
1.13844E-02 7.44072E-28
1.18520E-02 6.43532E-28
1.23288E-02 5.69981E-28
1.28150E-02 5.14088E-28
1.33104E-02 4.69387E-28
1.38150E-02 4.31521E-28
1.43290E-02 3.97670E-28
1.48521E-02 3.66105E-28
1.53845E-02 3.35857E-28
1.59262E-02 3.06472E-28
1.64770E-02 2.77825E-28
1.70371E-02 2.49988E-28
1.76063E-02 2.23138E-28
1.81848E-02 1.97492E-28
1.87724E-02 1.73262E-28
1.93692E-02 1.50633E-28
1.99751E-02 1.29746E-28
2.05901E-02 1.10692E-28
2.12143E-02 9.35119E-29
2.18476E-02 7.82015E-29
2.24900E-02 6.47157E-29
2.31415E-02 5.29762E-29
2.38021E-02 4.28785E-29
2.44717E-02 3.42994E-29
2.51504E-02 2.71031E-29
2.58382E-02 2.11477E-29
2.65349E-02 1.62898E-29
2.72407E-02 1.23887E-29
2.79555E-02 9.30980E-30
2.86793E-02 6.92684E-30
2.94120E-02 5.12376E-30
3.01537E-02 3.79567E-30
3.09043E-02 2.84941E-30
3.16639E-02 2.20354E-30
3.24324E-02 1.78809E-30
3.32098E-02 1.54398E-30
3.39961E-02 1.42220E-30
3.47912E-02 1.38297E-30
3.55952E-02 1.39471E-30
3.64081E-02 1.43302E-30
3.72297E-02 1.47974E-30
3.80602E-02 1.52192E-30
3.88995E-02 1.55095E-30
3.97476E-02 1.56172E-30
4.06044E-02 1.55186E-30
4.14700E-02 1.52113E-30
4.23443E-02 1.47077E-30
4.32273E-02 1.40311E-30
4.41190E-02 1.32111E-30
4.50194E-02 1.22804E-30
4.59284E-02 1.12727E-30
4.68461E-02 1.02203E-30
4.87074E-02 8.09723E-31
5.06030E-02 6.10524E-31
5.25328E-02 4.37237E-31
5.44967E-02 2.96323E-31
5.64946E-02 1.89023E-31
5.85262E-02 1.12834E-31
6.05914E-02 6.29894E-32
6.26901E-02 3.37321E-32
6.48222E-02 1.92766E-32
6.69873E-02 1.44542E-32
6.91854E-02 1.50632E-32
7.14163E-02 1.79867E-32
7.36799E-02 2.11441E-32
7.59760E-02 2.33404E-32
7.83043E-02 2.40668E-32
8.06647E-02 2.32933E-32
8.30571E-02 2.12810E-32
8.54812E-02 1.84286E-32
8.79369E-02 1.51600E-32
9.04240E-02 1.18504E-32
9.29422E-02 8.78733E-33
9.54915E-02 6.15739E-33
9.80716E-02 4.05204E-33
1.00682E-01 2.48405E-33
1.03323E-01 1.40909E-33
1.05995E-01 7.47680E-34
1.08696E-01 4.04624E-34
1.11427E-01 2.84252E-34
1.14188E-01 3.00944E-34
1.16978E-01 3.85188E-34
1.19797E-01 4.85876E-34
1.22645E-01 5.69775E-34
1.25522E-01 6.19147E-34
1.28428E-01 6.28384E-34
1.31361E-01 6.00368E-34
1.34323E-01 5.43071E-34
1.37313E-01 4.66702E-34
1.40330E-01 3.81552E-34
1.43375E-01 2.96562E-34
1.46447E-01 2.18542E-34
1.49545E-01 1.51911E-34
1.52671E-01 9.88324E-35
1.55823E-01 5.95790E-35
1.59001E-01 3.30268E-35
1.62205E-01 1.71654E-35
1.65435E-01 9.56190E-36
1.68690E-01 7.73793E-36
1.71970E-01 9.44085E-36
1.75276E-01 1.28103E-35
1.78606E-01 1.64525E-35
1.81961E-01 1.94422E-35
1.85340E-01 2.12726E-35
1.88743E-01 2.17766E-35
1.92169E-01 2.10338E-35
1.95619E-01 1.92807E-35
1.99092E-01 1.68308E-35
2.02589E-01 1.40115E-35
2.06107E-01 1.11188E-35
2.09649E-01 8.39024E-36
2.13212E-01 5.99246E-36
2.16797E-01 4.02111E-36
2.20404E-01 2.50891E-36
2.24032E-01 1.43861E-36
2.27680E-01 7.57886E-37
2.31350E-01 3.93895E-37
2.35040E-01 2.66026E-37
2.38751E-01 2.95913E-37
2.42481E-01 4.14430E-37
2.46231E-01 5.65801E-37
2.50000E-01 7.09193E-37
2.53788E-01 8.18362E-37
2.57595E-01 8.79934E-37
2.61421E-01 8.90881E-37
2.65264E-01 8.55686E-37
2.69126E-01 7.83568E-37
2.73005E-01 6.86024E-37
2.76901E-01 5.74860E-37
2.80814E-01 4.60766E-37
2.84744E-01 3.52423E-37
2.88691E-01 2.56087E-37
2.92653E-01 1.75549E-37
2.96632E-01 1.12369E-37
3.00625E-01 6.62822E-38
3.04634E-01 1.00000E-45
3.08658E-01 1.00000E-45
3.12697E-01 1.00000E-45
3.16749E-01 1.00000E-45
3.20816E-01 1.00000E-45
3.24896E-01 1.00000E-45
3.28990E-01 1.00000E-45
3.33097E-01 1.00000E-45
3.37216E-01 1.00000E-45
3.41348E-01 1.00000E-45
3.45492E-01 1.00000E-45
3.49647E-01 1.00000E-45
3.53814E-01 1.00000E-45
3.57992E-01 1.00000E-45
3.62181E-01 1.00000E-45
3.66381E-01 1.00000E-45
3.70590E-01 1.00000E-45
3.74810E-01 1.00000E-45
3.79039E-01 1.00000E-45
3.83277E-01 1.00000E-45
3.87524E-01 1.00000E-45
3.91780E-01 1.00000E-45
3.96044E-01 1.00000E-45
4.00316E-01 1.00000E-45
4.04596E-01 1.00000E-45
4.08882E-01 1.00000E-45
4.13176E-01 1.00000E-45
4.17476E-01 1.00000E-45
4.21783E-01 1.00000E-45
4.26095E-01 1.00000E-45
4.30413E-01 1.00000E-45
4.34737E-01 1.00000E-45
4.39065E-01 1.00000E-45
4.43398E-01 1.00000E-45
4.47736E-01 1.00000E-45
4.52077E-01 1.00000E-45
4.56422E-01 1.00000E-45
4.60770E-01 1.00000E-45
4.65122E-01 1.00000E-45
4.69476E-01 1.00000E-45
4.73832E-01 1.00000E-45
4.78190E-01 1.00000E-45
4.82550E-01 1.00000E-45
4.86912E-01 1.00000E-45
4.91274E-01 1.00000E-45
4.95637E-01 1.00000E-45
5.00000E-01 1.00000E-45
5.04363E-01 1.00000E-45
5.08726E-01 1.00000E-45
5.13088E-01 1.00000E-45
5.17450E-01 1.00000E-45
5.21810E-01 1.00000E-45
5.26168E-01 1.00000E-45
5.30524E-01 1.00000E-45
5.34878E-01 1.00000E-45
5.39230E-01 1.00000E-45
5.43578E-01 1.00000E-45
5.47923E-01 1.00000E-45
5.52264E-01 1.00000E-45
5.56602E-01 1.00000E-45
5.60935E-01 1.00000E-45
5.65263E-01 1.00000E-45
5.69587E-01 1.00000E-45
5.73905E-01 1.00000E-45
5.78217E-01 1.00000E-45
5.82524E-01 1.00000E-45
5.86824E-01 1.00000E-45
5.91118E-01 1.00000E-45
5.95404E-01 1.00000E-45
5.99684E-01 1.00000E-45
6.03956E-01 1.00000E-45
6.08220E-01 1.00000E-45
6.12476E-01 1.00000E-45
6.16723E-01 1.00000E-45
6.20961E-01 1.00000E-45
6.25190E-01 1.00000E-45
6.29410E-01 1.00000E-45
6.33619E-01 1.00000E-45
6.37819E-01 1.00000E-45
6.42008E-01 1.00000E-45
6.46186E-01 1.00000E-45
6.50353E-01 1.00000E-45
6.54508E-01 1.00000E-45
6.58652E-01 1.00000E-45
6.62784E-01 1.00000E-45
6.66903E-01 1.00000E-45
6.71010E-01 1.00000E-45
6.75104E-01 1.00000E-45
6.79184E-01 1.00000E-45
6.83251E-01 1.00000E-45
6.87303E-01 1.00000E-45
6.91342E-01 1.00000E-45
6.95366E-01 1.00000E-45
6.99375E-01 1.00000E-45
7.03368E-01 1.00000E-45
7.07347E-01 1.00000E-45
7.11309E-01 1.00000E-45
7.15256E-01 1.00000E-45
7.19186E-01 1.00000E-45
7.23099E-01 1.00000E-45
7.26995E-01 1.00000E-45
7.30874E-01 1.00000E-45
7.34736E-01 1.00000E-45
7.38579E-01 1.00000E-45
7.42405E-01 1.00000E-45
7.46212E-01 1.00000E-45
7.50000E-01 1.00000E-45
7.53769E-01 1.00000E-45
7.57519E-01 1.00000E-45
7.61249E-01 1.00000E-45
7.64960E-01 1.00000E-45
7.68650E-01 1.00000E-45
7.72320E-01 1.00000E-45
7.75968E-01 1.00000E-45
7.79596E-01 1.00000E-45
7.83203E-01 1.00000E-45
7.86788E-01 1.00000E-45
7.90351E-01 1.00000E-45
7.93893E-01 1.00000E-45
7.97411E-01 1.00000E-45
8.00908E-01 1.00000E-45
8.04381E-01 1.00000E-45
8.07831E-01 1.00000E-45
8.11257E-01 1.00000E-45
8.14660E-01 1.00000E-45
8.18039E-01 1.00000E-45
8.21394E-01 1.00000E-45
8.24724E-01 1.00000E-45
8.28030E-01 1.00000E-45
8.31310E-01 1.00000E-45
8.34565E-01 1.00000E-45
8.37795E-01 1.00000E-45
8.40999E-01 1.00000E-45
8.44177E-01 1.00000E-45
8.47329E-01 1.00000E-45
8.50455E-01 1.00000E-45
8.53553E-01 1.00000E-45
8.56625E-01 1.00000E-45
8.59670E-01 1.00000E-45
8.62687E-01 1.00000E-45
8.65677E-01 1.00000E-45
8.68639E-01 1.00000E-45
8.71572E-01 1.00000E-45
8.74478E-01 1.00000E-45
8.77355E-01 1.00000E-45
8.80203E-01 1.00000E-45
8.83022E-01 1.00000E-45
8.85812E-01 1.00000E-45
8.88573E-01 1.00000E-45
8.91304E-01 1.00000E-45
8.94005E-01 1.00000E-45
8.96677E-01 1.00000E-45
8.99318E-01 1.00000E-45
9.01928E-01 1.00000E-45
9.04508E-01 1.00000E-45
9.07058E-01 1.00000E-45
9.09576E-01 1.00000E-45
9.12063E-01 1.00000E-45
9.14519E-01 1.00000E-45
9.16943E-01 1.00000E-45
9.19335E-01 1.00000E-45
9.21696E-01 1.00000E-45
9.24024E-01 1.00000E-45
9.26320E-01 1.00000E-45
9.28584E-01 1.00000E-45
9.30815E-01 1.00000E-45
9.33013E-01 1.00000E-45
9.35178E-01 1.00000E-45
9.37310E-01 1.00000E-45
9.39409E-01 1.00000E-45
9.41474E-01 1.00000E-45
9.43505E-01 1.00000E-45
9.45503E-01 1.00000E-45
9.47467E-01 1.00000E-45
9.49397E-01 1.00000E-45
9.51293E-01 1.00000E-45
9.53154E-01 1.00000E-45
9.54981E-01 1.00000E-45
9.56773E-01 1.00000E-45
9.58530E-01 1.00000E-45
9.60252E-01 1.00000E-45
9.61940E-01 1.00000E-45
9.63592E-01 1.00000E-45
9.65209E-01 1.00000E-45
9.66790E-01 1.00000E-45
9.68336E-01 1.00000E-45
9.69846E-01 1.00000E-45
9.71321E-01 1.00000E-45
9.72759E-01 1.00000E-45
9.74162E-01 1.00000E-45
9.75528E-01 1.00000E-45
9.76858E-01 1.00000E-45
9.78152E-01 1.00000E-45
9.79410E-01 1.00000E-45
9.80631E-01 1.00000E-45
9.81815E-01 1.00000E-45
9.82963E-01 1.00000E-45
9.84074E-01 1.00000E-45
9.85148E-01 1.00000E-45
9.86185E-01 1.00000E-45
9.87185E-01 1.00000E-45
9.88148E-01 1.00000E-45
9.89074E-01 1.00000E-45
9.89962E-01 1.00000E-45
9.90814E-01 1.00000E-45
9.91627E-01 1.00000E-45
9.92404E-01 1.00000E-45
9.93143E-01 1.00000E-45
9.93844E-01 1.00000E-45
9.94508E-01 1.00000E-45
9.95134E-01 1.00000E-45
9.95722E-01 1.00000E-45
9.96273E-01 1.00000E-45
9.96786E-01 1.00000E-45
9.97261E-01 1.00000E-45
9.97698E-01 1.00000E-45
9.98097E-01 1.00000E-45
9.98459E-01 1.00000E-45
9.98782E-01 1.00000E-45
9.99067E-01 1.00000E-45
9.99315E-01 1.00000E-45
9.99524E-01 1.00000E-45
9.99695E-01 1.00000E-45
9.99829E-01 1.00000E-45
9.99924E-01 1.00000E-45
9.99981E-01 1.00000E-45
1.00000E+00 1.00000E-45
