 #
 # Subroutine ELSEPA. Elastic scattering of electrons and positrons
 #                    by neutral atoms and positive ions
 #
 # Projectile: electron
 # Kinetic energy = 5.00000E+08 eV = 1.83747E+07 a.u.
 #
 # WARNING: High-energy factorization with free-atom DF screening.
 #          Absorption, polarization and exchange corrections are
 #          switched off.
 #          Phase shifts are calculated for the bare nucleus.
 #          Scattering amplitudes are not evaluated.
 #
 # Element: Rh,  Z =  45,  atomic weight = 1.02906E+02 g/mol
 #
 # Nuclear model: Fermi distribution
 #                Average radius = 5.01414E-13 cm
 #                Skin thickness = 5.46000E-14 cm
 #
 # Number of electrons = 45
 #
 # Total elastic cross section = 4.20749E-18 cm**2 = 1.50252E-01 a0**2
 # 1st transport cross section = 1.60613E-26 cm**2 = 5.73559E-10 a0**2
 # 2nd transport cross section = 4.81642E-26 cm**2 = 1.71997E-09 a0**2
 #
 #
 # Differential cross section:                       MU=(1-COS(THETA))/2
 #
 #  THETA        MU          DCS          DCS        Sherman      error
 #  (deg)                 (cm**2/sr)   (a0**2/sr)    function
 #----------------------------------------------------------------------
0.00000E+00 7.95404E-09
7.61557E-13 7.50073E-09
1.18994E-12 7.26652E-09
1.71346E-12 6.99914E-09
2.33225E-12 6.70672E-09
3.04617E-12 6.39755E-09
3.85530E-12 6.07912E-09
4.75964E-12 5.75798E-09
5.75917E-12 5.43955E-09
6.85391E-12 5.12765E-09
8.04379E-12 4.82567E-09
9.32893E-12 4.53612E-09
1.07092E-11 4.26050E-09
1.21847E-11 3.99957E-09
1.37554E-11 3.75361E-09
1.54213E-11 3.52252E-09
1.71823E-11 3.30590E-09
1.90386E-11 3.10318E-09
2.09900E-11 2.91370E-09
2.30367E-11 2.73669E-09
2.51785E-11 2.57128E-09
2.74156E-11 2.41645E-09
2.97478E-11 2.27189E-09
3.21752E-11 2.13690E-09
3.46979E-11 2.01079E-09
3.73157E-11 1.89294E-09
4.00286E-11 1.78276E-09
4.28368E-11 1.67970E-09
4.57402E-11 1.58325E-09
4.87388E-11 1.49296E-09
5.18325E-11 1.40838E-09
5.50215E-11 1.32912E-09
5.83057E-11 1.25463E-09
6.16850E-11 1.18475E-09
6.51595E-11 1.11921E-09
6.87293E-11 1.05771E-09
7.23943E-11 9.99973E-10
7.61544E-11 9.45758E-10
1.18991E-10 5.45419E-10
1.71347E-10 3.33868E-10
2.33223E-10 2.13076E-10
3.04617E-10 1.41893E-10
3.85531E-10 9.84457E-11
4.75965E-10 7.08877E-11
5.75917E-10 5.26979E-11
6.85389E-10 4.01941E-11
8.04380E-10 3.12957E-11
9.32891E-10 2.47762E-11
1.07092E-09 1.98783E-11
1.21847E-09 1.61234E-11
1.37554E-09 1.31980E-11
1.54213E-09 1.08894E-11
1.71823E-09 9.04878E-12
1.90386E-09 7.56860E-12
2.09900E-09 6.36984E-12
2.30367E-09 5.39325E-12
2.51785E-09 4.59008E-12
2.74156E-09 3.92778E-12
2.97478E-09 3.37955E-12
3.21752E-09 2.92319E-12
3.46978E-09 2.54118E-12
3.73156E-09 2.21961E-12
4.00286E-09 1.94746E-12
4.28368E-09 1.71594E-12
4.57402E-09 1.51802E-12
4.87388E-09 1.34807E-12
5.18326E-09 1.20149E-12
5.50215E-09 1.07455E-12
5.83057E-09 9.64157E-13
6.16850E-09 8.67790E-13
6.51596E-09 7.83341E-13
6.87293E-09 7.09055E-13
7.23942E-09 6.43468E-13
7.61544E-09 5.85362E-13
1.18991E-08 2.53068E-13
1.71347E-08 1.26511E-13
2.33223E-08 6.98662E-14
3.04617E-08 4.15589E-14
3.85531E-08 2.62159E-14
4.75965E-08 1.73382E-14
5.75917E-08 1.19198E-14
6.85389E-08 8.46314E-15
8.04380E-08 6.17471E-15
9.32891E-08 4.61090E-15
1.07092E-07 3.51267E-15
1.21847E-07 2.72306E-15
1.37554E-07 2.14352E-15
1.54213E-07 1.71034E-15
1.71823E-07 1.38127E-15
1.90386E-07 1.12767E-15
2.09900E-07 9.29694E-16
2.30367E-07 7.73298E-16
2.51785E-07 6.48435E-16
2.74156E-07 5.47775E-16
2.97478E-07 4.65901E-16
3.21752E-07 3.98755E-16
3.46978E-07 3.43274E-16
3.73156E-07 2.97108E-16
4.00286E-07 2.58443E-16
4.28368E-07 2.25863E-16
4.57402E-07 1.98255E-16
4.87388E-07 1.74736E-16
5.18325E-07 1.54601E-16
5.50215E-07 1.37282E-16
5.83057E-07 1.22320E-16
6.16850E-07 1.09340E-16
6.51596E-07 9.80364E-17
6.87293E-07 8.81553E-17
7.23942E-07 7.94876E-17
7.61543E-07 7.18587E-17
1.18991E-06 2.95096E-17
1.71347E-06 1.42513E-17
2.33223E-06 7.69933E-18
3.04617E-06 4.51597E-18
3.85531E-06 2.82058E-18
4.75964E-06 1.85126E-18
5.75916E-06 1.26483E-18
6.85388E-06 8.93293E-19
8.04378E-06 6.48711E-19
9.32888E-06 4.82404E-19
1.07092E-05 3.66143E-19
1.21846E-05 2.82893E-19
1.37553E-05 2.22020E-19
1.54212E-05 1.76677E-19
1.71822E-05 1.42343E-19
1.90385E-05 1.15936E-19
2.09899E-05 9.54247E-20
2.30365E-05 7.92510E-20
2.51783E-05 6.63562E-20
2.74153E-05 5.59748E-20
2.97475E-05 4.75435E-20
3.21749E-05 4.06417E-20
3.46974E-05 3.49501E-20
3.73152E-05 3.02233E-20
4.00281E-05 2.62712E-20
4.28362E-05 2.29455E-20
4.57395E-05 2.01299E-20
4.87380E-05 1.77329E-20
5.18317E-05 1.56819E-20
5.50205E-05 1.39186E-20
5.83045E-05 1.23963E-20
6.16838E-05 1.10767E-20
6.51582E-05 9.92836E-21
6.87277E-05 8.92539E-21
7.23925E-05 8.04617E-21
7.61524E-05 7.27799E-21
9.21439E-05 4.97024E-21
1.09658E-04 3.50777E-21
1.28695E-04 2.54514E-21
1.49255E-04 1.89040E-21
1.71338E-04 1.43280E-21
1.94942E-04 1.10515E-21
2.20070E-04 8.65631E-22
2.46720E-04 6.87300E-22
2.74892E-04 5.52325E-22
3.04586E-04 4.48685E-22
3.35803E-04 3.68045E-22
3.68542E-04 3.04563E-22
4.02802E-04 2.54048E-22
4.38585E-04 2.13455E-22
4.75889E-04 1.80546E-22
5.14715E-04 1.53644E-22
5.55063E-04 1.31488E-22
5.96931E-04 1.13111E-22
6.40321E-04 9.77708E-23
6.85233E-04 8.48883E-23
7.31665E-04 7.40088E-23
7.79618E-04 6.47732E-23
8.29092E-04 5.68945E-23
8.80086E-04 5.01428E-23
9.32601E-04 4.43320E-23
9.86636E-04 3.93106E-23
1.04219E-03 3.49552E-23
1.09927E-03 3.11637E-23
1.15786E-03 2.78520E-23
1.21797E-03 2.49502E-23
1.27961E-03 2.23998E-23
1.34276E-03 2.01518E-23
1.40743E-03 1.81651E-23
1.47362E-03 1.64046E-23
1.54133E-03 1.48409E-23
1.61056E-03 1.34486E-23
1.68131E-03 1.22063E-23
1.75357E-03 1.10955E-23
1.82735E-03 1.01001E-23
1.90265E-03 9.20657E-24
1.97947E-03 8.40294E-24
2.05780E-03 7.67890E-24
2.13765E-03 7.02548E-24
2.21902E-03 6.43484E-24
2.30190E-03 5.90014E-24
2.38630E-03 5.41535E-24
2.47222E-03 4.97521E-24
2.55965E-03 4.57506E-24
2.64859E-03 4.21079E-24
2.73905E-03 3.87879E-24
2.83103E-03 3.57582E-24
2.92452E-03 3.29904E-24
3.01952E-03 3.04590E-24
3.11604E-03 2.81414E-24
3.21407E-03 2.60175E-24
3.31362E-03 2.40691E-24
3.41468E-03 2.22800E-24
3.51725E-03 2.06358E-24
3.62133E-03 1.91235E-24
3.72692E-03 1.77313E-24
3.83403E-03 1.64486E-24
3.94265E-03 1.52660E-24
4.05278E-03 1.41748E-24
4.16442E-03 1.31672E-24
4.27757E-03 1.22363E-24
4.39223E-03 1.13756E-24
4.50840E-03 1.05794E-24
4.62608E-03 9.84228E-25
4.74527E-03 9.15958E-25
4.86597E-03 8.52691E-25
4.98817E-03 7.94029E-25
5.11188E-03 7.39608E-25
5.23711E-03 6.89099E-25
5.36383E-03 6.42197E-25
5.49207E-03 5.98627E-25
5.62181E-03 5.58133E-25
5.75306E-03 5.20484E-25
5.88581E-03 4.85466E-25
6.02007E-03 4.52883E-25
6.15583E-03 4.22555E-25
6.29310E-03 3.94317E-25
6.43187E-03 3.68016E-25
6.57214E-03 3.43511E-25
6.71392E-03 3.20674E-25
6.85720E-03 2.99384E-25
7.00198E-03 2.79533E-25
7.14827E-03 2.61018E-25
7.29605E-03 2.43745E-25
7.44534E-03 2.27627E-25
7.59612E-03 2.12585E-25
7.97965E-03 1.79208E-25
8.37255E-03 1.51080E-25
8.77480E-03 1.27353E-25
9.18641E-03 1.07327E-25
9.60736E-03 9.04155E-26
1.00376E-02 7.61293E-26
1.04773E-02 6.40591E-26
1.09262E-02 5.38613E-26
1.13844E-02 4.52468E-26
1.18520E-02 3.79721E-26
1.23288E-02 3.18319E-26
1.28150E-02 2.66525E-26
1.33104E-02 2.22871E-26
1.38150E-02 1.86111E-26
1.43290E-02 1.55192E-26
1.48521E-02 1.29217E-26
1.53845E-02 1.07428E-26
1.59262E-02 8.91776E-27
1.64770E-02 7.39186E-27
1.70371E-02 6.11848E-27
1.76063E-02 5.05802E-27
1.81848E-02 4.17684E-27
1.87724E-02 3.44640E-27
1.93692E-02 2.84246E-27
1.99751E-02 2.34448E-27
2.05901E-02 1.93503E-27
2.12143E-02 1.59941E-27
2.18476E-02 1.32514E-27
2.24900E-02 1.10174E-27
2.31415E-02 9.20348E-28
2.38021E-02 7.73540E-28
2.44717E-02 6.55076E-28
2.51504E-02 5.59742E-28
2.58382E-02 4.83190E-28
2.65349E-02 4.21804E-28
2.72407E-02 3.72592E-28
2.79555E-02 3.33085E-28
2.86793E-02 3.01257E-28
2.94120E-02 2.75454E-28
3.01537E-02 2.54335E-28
3.09043E-02 2.36817E-28
3.16639E-02 2.22036E-28
3.24324E-02 2.09308E-28
3.32098E-02 1.98096E-28
3.39961E-02 1.87986E-28
3.47912E-02 1.78663E-28
3.55952E-02 1.69893E-28
3.64081E-02 1.61507E-28
3.72297E-02 1.53385E-28
3.80602E-02 1.45450E-28
3.88995E-02 1.37654E-28
3.97476E-02 1.29975E-28
4.06044E-02 1.22407E-28
4.14700E-02 1.14955E-28
4.23443E-02 1.07635E-28
4.32273E-02 1.00467E-28
4.41190E-02 9.34736E-29
4.50194E-02 8.66792E-29
4.59284E-02 8.01064E-29
4.68461E-02 7.37765E-29
4.87074E-02 6.19180E-29
5.06030E-02 5.12178E-29
5.25328E-02 4.17378E-29
5.44967E-02 3.34899E-29
5.64946E-02 2.64427E-29
5.85262E-02 2.05299E-29
6.05914E-02 1.56603E-29
6.26901E-02 1.17264E-29
6.48222E-02 8.61279E-30
6.69873E-02 6.20220E-30
6.91854E-02 4.38117E-30
7.14163E-02 3.04350E-30
7.36799E-02 2.09289E-30
7.59760E-02 1.44437E-30
7.83043E-02 1.02488E-30
8.06647E-02 7.73164E-31
8.30571E-02 6.39173E-31
8.54812E-02 5.83133E-31
8.79369E-02 5.74389E-31
9.04240E-02 5.90153E-31
9.29422E-02 6.14241E-31
9.54915E-02 6.35854E-31
9.80716E-02 6.48453E-31
1.00682E-01 6.48751E-31
1.03323E-01 6.35842E-31
1.05995E-01 6.10465E-31
1.08696E-01 5.74408E-31
1.11427E-01 5.30032E-31
1.14188E-01 4.79910E-31
1.16978E-01 4.26570E-31
1.19797E-01 3.72317E-31
1.22645E-01 3.19121E-31
1.25522E-01 2.68567E-31
1.28428E-01 2.21840E-31
1.31361E-01 1.79739E-31
1.34323E-01 1.42718E-31
1.37313E-01 1.10935E-31
1.40330E-01 8.43016E-32
1.43375E-01 6.25436E-32
1.46447E-01 4.52516E-32
1.49545E-01 3.19297E-32
1.52671E-01 2.20365E-32
1.55823E-01 1.50193E-32
1.59001E-01 1.03413E-32
1.62205E-01 7.50170E-33
1.65435E-01 6.04886E-33
1.68690E-01 5.58907E-33
1.71970E-01 5.78985E-33
1.75276E-01 6.37992E-33
1.78606E-01 7.14622E-33
1.81961E-01 7.92906E-33
1.85340E-01 8.61584E-33
1.88743E-01 9.13422E-33
1.92169E-01 9.44496E-33
1.95619E-01 9.53509E-33
1.99092E-01 9.41144E-33
2.02589E-01 9.09488E-33
2.06107E-01 8.61534E-33
2.09649E-01 8.00766E-33
2.13212E-01 7.30820E-33
2.16797E-01 6.55232E-33
2.20404E-01 5.77247E-33
2.24032E-01 4.99700E-33
2.27680E-01 4.24946E-33
2.31350E-01 3.54830E-33
2.35040E-01 2.90696E-33
2.38751E-01 2.33418E-33
2.42481E-01 1.83453E-33
2.46231E-01 1.40898E-33
2.50000E-01 1.05556E-33
2.53788E-01 7.70008E-34
2.57595E-01 5.46436E-34
2.61421E-01 3.77858E-34
2.65264E-01 2.56719E-34
2.69126E-01 1.75313E-34
2.73005E-01 1.26127E-34
2.76901E-01 1.02103E-34
2.80814E-01 9.68289E-35
2.84744E-01 1.04655E-34
2.88691E-01 1.20761E-34
2.92653E-01 1.41167E-34
2.96632E-01 1.62714E-34
3.00625E-01 1.83004E-34
3.04634E-01 2.00333E-34
3.08658E-01 2.13600E-34
3.12697E-01 2.22214E-34
3.16749E-01 2.26001E-34
3.20816E-01 2.25113E-34
3.24896E-01 2.19945E-34
3.28990E-01 2.11055E-34
3.33097E-01 1.99103E-34
3.37216E-01 1.84791E-34
3.41348E-01 1.68823E-34
3.45492E-01 1.51867E-34
3.49647E-01 1.34529E-34
3.53814E-01 1.17343E-34
3.57992E-01 1.00750E-34
3.62181E-01 8.51068E-35
3.66381E-01 7.06776E-35
3.70590E-01 5.76444E-35
3.74810E-01 4.61125E-35
3.79039E-01 3.61208E-35
3.83277E-01 2.76519E-35
3.87524E-01 2.06430E-35
3.91780E-01 1.49960E-35
3.96044E-01 1.05879E-35
4.00316E-01 7.27961E-36
4.04596E-01 4.92351E-36
4.08882E-01 3.37058E-36
4.13176E-01 2.47561E-36
4.17476E-01 2.10155E-36
4.21783E-01 2.12264E-36
4.26095E-01 2.42653E-36
4.30413E-01 2.91550E-36
4.34737E-01 3.50690E-36
4.39065E-01 4.13303E-36
4.43398E-01 4.74040E-36
4.47736E-01 5.28869E-36
4.52077E-01 5.74949E-36
4.56422E-01 6.10476E-36
4.60770E-01 6.34532E-36
4.65122E-01 6.46931E-36
4.69476E-01 6.48069E-36
4.73832E-01 6.38783E-36
4.78190E-01 6.20226E-36
4.82550E-01 5.93753E-36
4.86912E-01 5.60830E-36
4.91274E-01 5.22949E-36
4.95637E-01 4.81563E-36
5.00000E-01 4.38042E-36
5.04363E-01 3.93630E-36
5.08726E-01 3.49426E-36
5.13088E-01 3.06364E-36
5.17450E-01 2.65215E-36
5.21810E-01 2.26583E-36
5.26168E-01 1.90914E-36
5.30524E-01 1.58510E-36
5.34878E-01 1.29540E-36
5.39230E-01 1.04058E-36
5.43578E-01 8.20210E-37
5.47923E-01 6.33060E-37
5.52264E-01 4.77263E-37
5.56602E-01 3.50481E-37
5.60935E-01 2.50051E-37
5.65263E-01 1.73114E-37
5.69587E-01 1.16726E-37
5.73905E-01 7.79563E-38
5.78217E-01 5.39663E-38
5.82524E-01 4.20670E-38
5.86824E-01 3.97670E-38
5.91118E-01 4.48033E-38
5.95404E-01 5.51604E-38
5.99684E-01 6.90794E-38
6.03956E-01 8.50568E-38
6.08220E-01 1.01838E-37
6.12476E-01 1.18402E-37
6.16723E-01 1.33951E-37
6.20961E-01 1.47879E-37
6.25190E-01 1.59762E-37
6.29410E-01 1.69329E-37
6.33619E-01 1.76442E-37
6.37819E-01 1.81072E-37
6.42008E-01 1.83281E-37
6.46186E-01 1.83201E-37
6.50353E-01 1.81018E-37
6.54508E-01 1.76955E-37
6.58652E-01 1.71257E-37
6.62784E-01 1.64184E-37
6.66903E-01 1.55996E-37
6.71010E-01 1.46946E-37
6.75104E-01 1.37277E-37
6.79184E-01 1.27212E-37
6.83251E-01 1.16955E-37
6.87303E-01 1.06686E-37
6.91342E-01 9.65641E-38
6.95366E-01 8.67213E-38
6.99375E-01 7.72674E-38
7.03368E-01 6.82902E-38
7.07347E-01 5.98561E-38
7.11309E-01 5.20127E-38
7.15256E-01 4.47901E-38
7.19186E-01 3.82037E-38
7.23099E-01 3.22552E-38
7.26995E-01 2.69356E-38
7.30874E-01 2.22262E-38
7.34736E-01 1.81010E-38
7.38579E-01 1.45280E-38
7.42405E-01 1.14708E-38
7.46212E-01 8.88992E-39
7.50000E-01 6.74422E-39
7.53769E-01 1.00000E-45
7.57519E-01 1.00000E-45
7.61249E-01 1.00000E-45
7.64960E-01 1.00000E-45
7.68650E-01 1.00000E-45
7.72320E-01 1.00000E-45
7.75968E-01 1.00000E-45
7.79596E-01 1.00000E-45
7.83203E-01 1.00000E-45
7.86788E-01 1.00000E-45
7.90351E-01 1.00000E-45
7.93893E-01 1.00000E-45
7.97411E-01 1.00000E-45
8.00908E-01 1.00000E-45
8.04381E-01 1.00000E-45
8.07831E-01 1.00000E-45
8.11257E-01 1.00000E-45
8.14660E-01 1.00000E-45
8.18039E-01 1.00000E-45
8.21394E-01 1.00000E-45
8.24724E-01 1.00000E-45
8.28030E-01 1.00000E-45
8.31310E-01 1.00000E-45
8.34565E-01 1.00000E-45
8.37795E-01 1.00000E-45
8.40999E-01 1.00000E-45
8.44177E-01 1.00000E-45
8.47329E-01 1.00000E-45
8.50455E-01 1.00000E-45
8.53553E-01 1.00000E-45
8.56625E-01 1.00000E-45
8.59670E-01 1.00000E-45
8.62687E-01 1.00000E-45
8.65677E-01 1.00000E-45
8.68639E-01 1.00000E-45
8.71572E-01 1.00000E-45
8.74478E-01 1.00000E-45
8.77355E-01 1.00000E-45
8.80203E-01 1.00000E-45
8.83022E-01 1.00000E-45
8.85812E-01 1.00000E-45
8.88573E-01 1.00000E-45
8.91304E-01 1.00000E-45
8.94005E-01 1.00000E-45
8.96677E-01 1.00000E-45
8.99318E-01 1.00000E-45
9.01928E-01 1.00000E-45
9.04508E-01 1.00000E-45
9.07058E-01 1.00000E-45
9.09576E-01 1.00000E-45
9.12063E-01 1.00000E-45
9.14519E-01 1.00000E-45
9.16943E-01 1.00000E-45
9.19335E-01 1.00000E-45
9.21696E-01 1.00000E-45
9.24024E-01 1.00000E-45
9.26320E-01 1.00000E-45
9.28584E-01 1.00000E-45
9.30815E-01 1.00000E-45
9.33013E-01 1.00000E-45
9.35178E-01 1.00000E-45
9.37310E-01 1.00000E-45
9.39409E-01 1.00000E-45
9.41474E-01 1.00000E-45
9.43505E-01 1.00000E-45
9.45503E-01 1.00000E-45
9.47467E-01 1.00000E-45
9.49397E-01 1.00000E-45
9.51293E-01 1.00000E-45
9.53154E-01 1.00000E-45
9.54981E-01 1.00000E-45
9.56773E-01 1.00000E-45
9.58530E-01 1.00000E-45
9.60252E-01 1.00000E-45
9.61940E-01 1.00000E-45
9.63592E-01 1.00000E-45
9.65209E-01 1.00000E-45
9.66790E-01 1.00000E-45
9.68336E-01 1.00000E-45
9.69846E-01 1.00000E-45
9.71321E-01 1.00000E-45
9.72759E-01 1.00000E-45
9.74162E-01 1.00000E-45
9.75528E-01 1.00000E-45
9.76858E-01 1.00000E-45
9.78152E-01 1.00000E-45
9.79410E-01 1.00000E-45
9.80631E-01 1.00000E-45
9.81815E-01 1.00000E-45
9.82963E-01 1.00000E-45
9.84074E-01 1.00000E-45
9.85148E-01 1.00000E-45
9.86185E-01 1.00000E-45
9.87185E-01 1.00000E-45
9.88148E-01 1.00000E-45
9.89074E-01 1.00000E-45
9.89962E-01 1.00000E-45
9.90814E-01 1.00000E-45
9.91627E-01 1.00000E-45
9.92404E-01 1.00000E-45
9.93143E-01 1.00000E-45
9.93844E-01 1.00000E-45
9.94508E-01 1.00000E-45
9.95134E-01 1.00000E-45
9.95722E-01 1.00000E-45
9.96273E-01 1.00000E-45
9.96786E-01 1.00000E-45
9.97261E-01 1.00000E-45
9.97698E-01 1.00000E-45
9.98097E-01 1.00000E-45
9.98459E-01 1.00000E-45
9.98782E-01 1.00000E-45
9.99067E-01 1.00000E-45
9.99315E-01 1.00000E-45
9.99524E-01 1.00000E-45
9.99695E-01 1.00000E-45
9.99829E-01 1.00000E-45
9.99924E-01 1.00000E-45
9.99981E-01 1.00000E-45
1.00000E+00 1.00000E-45
