 #
 # Subroutine ELSEPA. Elastic scattering of electrons and positrons
 #                    by neutral atoms and positive ions
 #
 # Projectile: electron
 # Kinetic energy = 9.00000E+08 eV = 3.30744E+07 a.u.
 #
 # WARNING: High-energy factorization with free-atom DF screening.
 #          Absorption, polarization and exchange corrections are
 #          switched off.
 #          Phase shifts are calculated for the bare nucleus.
 #          Scattering amplitudes are not evaluated.
 #
 # Element: Rh,  Z =  45,  atomic weight = 1.02906E+02 g/mol
 #
 # Nuclear model: Fermi distribution
 #                Average radius = 5.01414E-13 cm
 #                Skin thickness = 5.46000E-14 cm
 #
 # Number of electrons = 45
 #
 # Total elastic cross section = 4.19530E-18 cm**2 = 1.49817E-01 a0**2
 # 1st transport cross section = 4.95844E-27 cm**2 = 1.77069E-10 a0**2
 # 2nd transport cross section = 1.48734E-26 cm**2 = 5.31140E-10 a0**2
 #
 #
 # Differential cross section:                       MU=(1-COS(THETA))/2
 #
 #  THETA        MU          DCS          DCS        Sherman      error
 #  (deg)                 (cm**2/sr)   (a0**2/sr)    function
 #----------------------------------------------------------------------
0.00000E+00 2.57477E-08
7.61557E-13 2.15165E-08
1.18994E-12 1.96826E-08
1.71346E-12 1.78169E-08
2.33225E-12 1.60108E-08
3.04617E-12 1.43282E-08
3.85530E-12 1.27906E-08
4.75964E-12 1.14085E-08
5.75917E-12 1.01804E-08
6.85391E-12 9.08762E-09
8.04379E-12 8.12248E-09
9.32893E-12 7.27075E-09
1.07092E-11 6.51384E-09
1.21847E-11 5.84527E-09
1.37554E-11 5.25249E-09
1.54213E-11 4.72458E-09
1.71823E-11 4.25624E-09
1.90386E-11 3.83864E-09
2.09900E-11 3.46592E-09
2.30367E-11 3.13390E-09
2.51785E-11 2.83650E-09
2.74156E-11 2.57057E-09
2.97478E-11 2.31970E-09
3.21752E-11 2.09474E-09
3.46979E-11 1.90057E-09
3.73157E-11 1.73217E-09
4.00286E-11 1.58544E-09
4.28368E-11 1.45704E-09
4.57402E-11 1.33359E-09
4.87388E-11 1.21656E-09
5.18325E-11 1.11367E-09
5.50215E-11 1.02287E-09
5.83057E-11 9.42457E-10
6.16850E-11 8.71003E-10
6.51595E-11 8.04273E-10
6.87293E-11 7.41125E-10
7.23943E-11 6.84726E-10
7.61544E-11 6.34210E-10
1.18991E-10 3.19129E-10
1.71347E-10 1.80771E-10
2.33223E-10 1.11789E-10
3.04617E-10 7.34704E-11
3.85531E-10 5.01985E-11
4.75965E-10 3.53039E-11
5.75917E-10 2.54283E-11
6.85389E-10 1.86726E-11
8.04380E-10 1.39712E-11
9.32891E-10 1.06415E-11
1.07092E-09 8.23966E-12
1.21847E-09 6.47990E-12
1.37554E-09 5.16724E-12
1.54213E-09 4.17247E-12
1.71823E-09 3.40852E-12
1.90386E-09 2.81377E-12
2.09900E-09 2.34485E-12
2.30367E-09 1.97076E-12
2.51785E-09 1.66883E-12
2.74156E-09 1.42287E-12
2.97478E-09 1.22021E-12
3.21752E-09 1.05289E-12
3.46978E-09 9.13789E-13
3.73156E-09 7.96216E-13
4.00286E-09 6.97480E-13
4.28368E-09 6.13144E-13
4.57402E-09 5.41244E-13
4.87388E-09 4.79620E-13
5.18326E-09 4.26290E-13
5.50215E-09 3.80336E-13
5.83057E-09 3.40173E-13
6.16850E-09 3.05230E-13
6.51596E-09 2.74632E-13
6.87293E-09 2.47710E-13
7.23942E-09 2.24065E-13
7.61544E-09 2.03068E-13
1.18991E-08 8.50081E-14
1.71347E-08 4.15430E-14
2.33223E-08 2.26451E-14
3.04617E-08 1.33793E-14
3.85531E-08 8.40712E-15
4.75965E-08 5.54569E-15
5.75917E-08 3.80469E-15
6.85389E-08 2.69630E-15
8.04380E-08 1.96358E-15
9.32891E-08 1.46358E-15
1.07092E-07 1.11299E-15
1.21847E-07 8.61294E-16
1.37554E-07 6.76848E-16
1.54213E-07 5.39204E-16
1.71823E-07 4.34813E-16
1.90386E-07 3.54490E-16
2.09900E-07 2.91875E-16
2.30367E-07 2.42487E-16
2.51785E-07 2.03111E-16
2.74156E-07 1.71408E-16
2.97478E-07 1.45653E-16
3.21752E-07 1.24557E-16
3.46978E-07 1.07144E-16
3.73156E-07 9.26689E-17
4.00286E-07 8.05568E-17
4.28368E-07 7.03598E-17
4.57402E-07 6.17260E-17
4.87388E-07 5.43762E-17
5.18325E-07 4.80883E-17
5.50215E-07 4.26833E-17
5.83057E-07 3.80166E-17
6.16850E-07 3.39705E-17
6.51596E-07 3.04485E-17
6.87293E-07 2.73713E-17
7.23942E-07 2.46731E-17
7.61543E-07 2.22992E-17
1.18991E-06 9.14108E-18
1.71347E-06 4.41047E-18
2.33223E-06 2.38149E-18
3.04617E-06 1.39637E-18
3.85531E-06 8.71957E-19
4.75964E-06 5.72215E-19
5.75916E-06 3.90909E-19
6.85388E-06 2.76060E-19
8.04378E-06 2.00463E-19
9.32888E-06 1.49065E-19
1.07092E-05 1.13135E-19
1.21846E-05 8.74095E-20
1.37553E-05 6.85987E-20
1.54212E-05 5.45880E-20
1.71822E-05 4.39790E-20
1.90385E-05 3.58198E-20
2.09899E-05 2.94822E-20
2.30365E-05 2.44851E-20
2.51783E-05 2.05009E-20
2.74153E-05 1.72933E-20
2.97475E-05 1.46883E-20
3.21749E-05 1.25560E-20
3.46974E-05 1.07975E-20
3.73152E-05 9.33711E-21
4.00281E-05 8.11609E-21
4.28362E-05 7.08862E-21
4.57395E-05 6.21878E-21
4.87380E-05 5.47825E-21
5.18317E-05 4.84460E-21
5.50205E-05 4.29986E-21
5.83045E-05 3.82955E-21
6.16838E-05 3.42187E-21
6.51582E-05 3.06711E-21
6.87277E-05 2.75726E-21
7.23925E-05 2.48564E-21
7.61524E-05 2.21791E-21
9.21439E-05 1.50764E-21
1.09658E-04 1.05839E-21
1.28695E-04 7.63350E-22
1.49255E-04 5.63207E-22
1.71338E-04 4.23751E-22
1.94942E-04 3.24237E-22
2.20070E-04 2.51769E-22
2.46720E-04 1.98039E-22
2.74892E-04 1.57559E-22
3.04586E-04 1.26633E-22
3.35803E-04 1.02702E-22
3.68542E-04 8.39725E-23
4.02802E-04 6.91628E-23
4.38585E-04 5.73425E-23
4.75889E-04 4.78284E-23
5.14715E-04 4.01103E-23
5.55063E-04 3.38053E-23
5.96931E-04 2.86205E-23
6.40321E-04 2.43316E-23
6.85233E-04 2.07641E-23
7.31665E-04 1.77814E-23
7.79618E-04 1.52760E-23
8.29092E-04 1.31622E-23
8.80086E-04 1.13716E-23
9.32601E-04 9.84900E-24
9.86636E-04 8.54982E-24
1.04219E-03 7.43767E-24
1.09927E-03 6.48270E-24
1.15786E-03 5.66042E-24
1.21797E-03 4.95051E-24
1.27961E-03 4.33612E-24
1.34276E-03 3.80320E-24
1.40743E-03 3.33995E-24
1.47362E-03 2.93648E-24
1.54133E-03 2.58442E-24
1.61056E-03 2.27671E-24
1.68131E-03 2.00733E-24
1.75357E-03 1.77116E-24
1.82735E-03 1.56383E-24
1.90265E-03 1.38158E-24
1.97947E-03 1.22121E-24
2.05780E-03 1.07993E-24
2.13765E-03 9.55349E-25
2.21902E-03 8.45401E-25
2.30190E-03 7.48287E-25
2.38630E-03 6.62449E-25
2.47222E-03 5.86528E-25
2.55965E-03 5.19341E-25
2.64859E-03 4.59853E-25
2.73905E-03 4.07159E-25
2.83103E-03 3.60468E-25
2.92452E-03 3.19082E-25
3.01952E-03 2.82391E-25
3.11604E-03 2.49857E-25
3.21407E-03 2.21005E-25
3.31362E-03 1.95418E-25
3.41468E-03 1.72726E-25
3.51725E-03 1.52604E-25
3.62133E-03 1.34762E-25
3.72692E-03 1.18945E-25
3.83403E-03 1.04927E-25
3.94265E-03 9.25063E-26
4.05278E-03 8.15052E-26
4.16442E-03 7.17653E-26
4.27757E-03 6.31462E-26
4.39223E-03 5.55227E-26
4.50840E-03 4.87837E-26
4.62608E-03 4.28304E-26
4.74527E-03 3.75749E-26
4.86597E-03 3.29387E-26
4.98817E-03 2.88523E-26
5.11188E-03 2.52535E-26
5.23711E-03 2.20871E-26
5.36383E-03 1.93038E-26
5.49207E-03 1.68599E-26
5.62181E-03 1.47162E-26
5.75306E-03 1.28383E-26
5.88581E-03 1.11950E-26
6.02007E-03 9.75889E-27
6.15583E-03 8.50558E-27
6.29310E-03 7.41330E-27
6.43187E-03 6.46274E-27
6.57214E-03 5.63675E-27
6.71392E-03 4.92012E-27
6.85720E-03 4.29935E-27
7.00198E-03 3.76248E-27
7.14827E-03 3.29892E-27
7.29605E-03 2.89933E-27
7.44534E-03 2.55541E-27
7.59612E-03 2.25988E-27
7.97965E-03 1.69241E-27
8.37255E-03 1.30815E-27
8.77480E-03 1.04872E-27
9.18641E-03 8.72626E-28
9.60736E-03 7.50788E-28
1.00376E-02 6.63233E-28
1.04773E-02 5.96558E-28
1.09262E-02 5.42058E-28
1.13844E-02 4.94320E-28
1.18520E-02 4.50196E-28
1.23288E-02 4.08043E-28
1.28150E-02 3.67188E-28
1.33104E-02 3.27537E-28
1.38150E-02 2.89310E-28
1.43290E-02 2.52867E-28
1.48521E-02 2.18589E-28
1.53845E-02 1.86808E-28
1.59262E-02 1.57777E-28
1.64770E-02 1.31647E-28
1.70371E-02 1.08474E-28
1.76063E-02 8.82244E-29
1.81848E-02 7.07901E-29
1.87724E-02 5.60037E-29
1.93692E-02 4.36555E-29
1.99751E-02 3.35082E-29
2.05901E-02 2.53107E-29
2.12143E-02 1.88091E-29
2.18476E-02 1.37560E-29
2.24900E-02 9.91739E-30
2.31415E-02 7.07760E-30
2.38021E-02 5.04227E-30
2.44717E-02 3.64012E-30
2.51504E-02 2.72335E-30
2.58382E-02 2.16706E-30
2.65349E-02 1.86805E-30
2.72407E-02 1.74299E-30
2.79555E-02 1.72640E-30
2.86793E-02 1.76839E-30
2.94120E-02 1.83239E-30
3.01537E-02 1.89298E-30
3.09043E-02 1.93374E-30
3.16639E-02 1.94546E-30
3.24324E-02 1.92435E-30
3.32098E-02 1.87065E-30
3.39961E-02 1.78736E-30
3.47912E-02 1.67922E-30
3.55952E-02 1.55192E-30
3.64081E-02 1.41143E-30
3.72297E-02 1.26356E-30
3.80602E-02 1.11363E-30
3.88995E-02 9.66258E-31
3.97476E-02 8.25236E-31
4.06044E-02 6.93507E-31
4.14700E-02 5.73175E-31
4.23443E-02 4.65570E-31
4.32273E-02 3.71333E-31
4.41190E-02 2.90517E-31
4.50194E-02 2.22701E-31
4.59284E-02 1.67099E-31
4.68461E-02 1.22658E-31
4.87074E-02 6.22846E-32
5.06030E-02 3.11465E-32
5.25328E-02 1.92717E-32
5.44967E-02 1.83271E-32
5.64946E-02 2.21161E-32
5.85262E-02 2.65802E-32
6.05914E-02 2.94952E-32
6.26901E-02 3.00241E-32
6.48222E-02 2.82459E-32
6.69873E-02 2.47408E-32
6.91854E-02 2.02686E-32
7.14163E-02 1.55522E-32
7.36799E-02 1.11562E-32
7.59760E-02 7.44205E-33
7.83043E-02 4.57471E-33
8.06647E-02 2.56092E-33
8.30571E-02 1.29920E-33
8.54812E-02 6.29772E-34
8.79369E-02 3.76139E-34
9.04240E-02 3.74855E-34
9.29422E-02 4.93126E-34
9.54915E-02 6.35882E-34
9.80716E-02 7.44995E-34
1.00682E-01 7.93528E-34
1.03323E-01 7.77620E-34
1.05995E-01 7.08013E-34
1.08696E-01 6.02581E-34
1.11427E-01 4.80582E-34
1.14188E-01 3.58845E-34
1.16978E-01 2.49749E-34
1.19797E-01 1.60642E-34
1.22645E-01 9.42672E-35
1.25522E-01 4.97670E-35
1.28428E-01 2.39058E-35
1.31361E-01 1.22490E-35
1.34323E-01 1.01356E-35
1.37313E-01 1.33676E-35
1.40330E-01 1.86112E-35
1.43375E-01 2.35463E-35
1.46447E-01 2.68273E-35
1.49545E-01 2.79235E-35
1.52671E-01 2.69009E-35
1.55823E-01 2.41956E-35
1.59001E-01 2.04138E-35
1.62205E-01 1.61764E-35
1.65435E-01 1.20152E-35
1.68690E-01 8.31808E-36
1.71970E-01 5.31392E-36
1.75276E-01 3.08609E-36
1.78606E-01 1.60326E-36
1.81961E-01 7.56955E-37
1.85340E-01 3.98449E-37
1.88743E-01 3.69833E-37
1.92169E-01 5.26786E-37
1.95619E-01 7.52491E-37
1.99092E-01 9.63604E-37
2.02589E-01 1.10998E-36
2.06107E-01 1.17015E-36
2.09649E-01 1.14456E-36
2.13212E-01 1.04803E-36
2.16797E-01 9.02813E-37
2.20404E-01 7.32917E-37
2.24032E-01 5.59972E-37
2.27680E-01 4.00815E-37
2.31350E-01 2.66480E-37
2.35040E-01 1.62333E-37
2.38751E-01 8.89417E-38
2.42481E-01 1.00000E-45
2.46231E-01 1.00000E-45
2.50000E-01 1.00000E-45
2.53788E-01 1.00000E-45
2.57595E-01 1.00000E-45
2.61421E-01 1.00000E-45
2.65264E-01 1.00000E-45
2.69126E-01 1.00000E-45
2.73005E-01 1.00000E-45
2.76901E-01 1.00000E-45
2.80814E-01 1.00000E-45
2.84744E-01 1.00000E-45
2.88691E-01 1.00000E-45
2.92653E-01 1.00000E-45
2.96632E-01 1.00000E-45
3.00625E-01 1.00000E-45
3.04634E-01 1.00000E-45
3.08658E-01 1.00000E-45
3.12697E-01 1.00000E-45
3.16749E-01 1.00000E-45
3.20816E-01 1.00000E-45
3.24896E-01 1.00000E-45
3.28990E-01 1.00000E-45
3.33097E-01 1.00000E-45
3.37216E-01 1.00000E-45
3.41348E-01 1.00000E-45
3.45492E-01 1.00000E-45
3.49647E-01 1.00000E-45
3.53814E-01 1.00000E-45
3.57992E-01 1.00000E-45
3.62181E-01 1.00000E-45
3.66381E-01 1.00000E-45
3.70590E-01 1.00000E-45
3.74810E-01 1.00000E-45
3.79039E-01 1.00000E-45
3.83277E-01 1.00000E-45
3.87524E-01 1.00000E-45
3.91780E-01 1.00000E-45
3.96044E-01 1.00000E-45
4.00316E-01 1.00000E-45
4.04596E-01 1.00000E-45
4.08882E-01 1.00000E-45
4.13176E-01 1.00000E-45
4.17476E-01 1.00000E-45
4.21783E-01 1.00000E-45
4.26095E-01 1.00000E-45
4.30413E-01 1.00000E-45
4.34737E-01 1.00000E-45
4.39065E-01 1.00000E-45
4.43398E-01 1.00000E-45
4.47736E-01 1.00000E-45
4.52077E-01 1.00000E-45
4.56422E-01 1.00000E-45
4.60770E-01 1.00000E-45
4.65122E-01 1.00000E-45
4.69476E-01 1.00000E-45
4.73832E-01 1.00000E-45
4.78190E-01 1.00000E-45
4.82550E-01 1.00000E-45
4.86912E-01 1.00000E-45
4.91274E-01 1.00000E-45
4.95637E-01 1.00000E-45
5.00000E-01 1.00000E-45
5.04363E-01 1.00000E-45
5.08726E-01 1.00000E-45
5.13088E-01 1.00000E-45
5.17450E-01 1.00000E-45
5.21810E-01 1.00000E-45
5.26168E-01 1.00000E-45
5.30524E-01 1.00000E-45
5.34878E-01 1.00000E-45
5.39230E-01 1.00000E-45
5.43578E-01 1.00000E-45
5.47923E-01 1.00000E-45
5.52264E-01 1.00000E-45
5.56602E-01 1.00000E-45
5.60935E-01 1.00000E-45
5.65263E-01 1.00000E-45
5.69587E-01 1.00000E-45
5.73905E-01 1.00000E-45
5.78217E-01 1.00000E-45
5.82524E-01 1.00000E-45
5.86824E-01 1.00000E-45
5.91118E-01 1.00000E-45
5.95404E-01 1.00000E-45
5.99684E-01 1.00000E-45
6.03956E-01 1.00000E-45
6.08220E-01 1.00000E-45
6.12476E-01 1.00000E-45
6.16723E-01 1.00000E-45
6.20961E-01 1.00000E-45
6.25190E-01 1.00000E-45
6.29410E-01 1.00000E-45
6.33619E-01 1.00000E-45
6.37819E-01 1.00000E-45
6.42008E-01 1.00000E-45
6.46186E-01 1.00000E-45
6.50353E-01 1.00000E-45
6.54508E-01 1.00000E-45
6.58652E-01 1.00000E-45
6.62784E-01 1.00000E-45
6.66903E-01 1.00000E-45
6.71010E-01 1.00000E-45
6.75104E-01 1.00000E-45
6.79184E-01 1.00000E-45
6.83251E-01 1.00000E-45
6.87303E-01 1.00000E-45
6.91342E-01 1.00000E-45
6.95366E-01 1.00000E-45
6.99375E-01 1.00000E-45
7.03368E-01 1.00000E-45
7.07347E-01 1.00000E-45
7.11309E-01 1.00000E-45
7.15256E-01 1.00000E-45
7.19186E-01 1.00000E-45
7.23099E-01 1.00000E-45
7.26995E-01 1.00000E-45
7.30874E-01 1.00000E-45
7.34736E-01 1.00000E-45
7.38579E-01 1.00000E-45
7.42405E-01 1.00000E-45
7.46212E-01 1.00000E-45
7.50000E-01 1.00000E-45
7.53769E-01 1.00000E-45
7.57519E-01 1.00000E-45
7.61249E-01 1.00000E-45
7.64960E-01 1.00000E-45
7.68650E-01 1.00000E-45
7.72320E-01 1.00000E-45
7.75968E-01 1.00000E-45
7.79596E-01 1.00000E-45
7.83203E-01 1.00000E-45
7.86788E-01 1.00000E-45
7.90351E-01 1.00000E-45
7.93893E-01 1.00000E-45
7.97411E-01 1.00000E-45
8.00908E-01 1.00000E-45
8.04381E-01 1.00000E-45
8.07831E-01 1.00000E-45
8.11257E-01 1.00000E-45
8.14660E-01 1.00000E-45
8.18039E-01 1.00000E-45
8.21394E-01 1.00000E-45
8.24724E-01 1.00000E-45
8.28030E-01 1.00000E-45
8.31310E-01 1.00000E-45
8.34565E-01 1.00000E-45
8.37795E-01 1.00000E-45
8.40999E-01 1.00000E-45
8.44177E-01 1.00000E-45
8.47329E-01 1.00000E-45
8.50455E-01 1.00000E-45
8.53553E-01 1.00000E-45
8.56625E-01 1.00000E-45
8.59670E-01 1.00000E-45
8.62687E-01 1.00000E-45
8.65677E-01 1.00000E-45
8.68639E-01 1.00000E-45
8.71572E-01 1.00000E-45
8.74478E-01 1.00000E-45
8.77355E-01 1.00000E-45
8.80203E-01 1.00000E-45
8.83022E-01 1.00000E-45
8.85812E-01 1.00000E-45
8.88573E-01 1.00000E-45
8.91304E-01 1.00000E-45
8.94005E-01 1.00000E-45
8.96677E-01 1.00000E-45
8.99318E-01 1.00000E-45
9.01928E-01 1.00000E-45
9.04508E-01 1.00000E-45
9.07058E-01 1.00000E-45
9.09576E-01 1.00000E-45
9.12063E-01 1.00000E-45
9.14519E-01 1.00000E-45
9.16943E-01 1.00000E-45
9.19335E-01 1.00000E-45
9.21696E-01 1.00000E-45
9.24024E-01 1.00000E-45
9.26320E-01 1.00000E-45
9.28584E-01 1.00000E-45
9.30815E-01 1.00000E-45
9.33013E-01 1.00000E-45
9.35178E-01 1.00000E-45
9.37310E-01 1.00000E-45
9.39409E-01 1.00000E-45
9.41474E-01 1.00000E-45
9.43505E-01 1.00000E-45
9.45503E-01 1.00000E-45
9.47467E-01 1.00000E-45
9.49397E-01 1.00000E-45
9.51293E-01 1.00000E-45
9.53154E-01 1.00000E-45
9.54981E-01 1.00000E-45
9.56773E-01 1.00000E-45
9.58530E-01 1.00000E-45
9.60252E-01 1.00000E-45
9.61940E-01 1.00000E-45
9.63592E-01 1.00000E-45
9.65209E-01 1.00000E-45
9.66790E-01 1.00000E-45
9.68336E-01 1.00000E-45
9.69846E-01 1.00000E-45
9.71321E-01 1.00000E-45
9.72759E-01 1.00000E-45
9.74162E-01 1.00000E-45
9.75528E-01 1.00000E-45
9.76858E-01 1.00000E-45
9.78152E-01 1.00000E-45
9.79410E-01 1.00000E-45
9.80631E-01 1.00000E-45
9.81815E-01 1.00000E-45
9.82963E-01 1.00000E-45
9.84074E-01 1.00000E-45
9.85148E-01 1.00000E-45
9.86185E-01 1.00000E-45
9.87185E-01 1.00000E-45
9.88148E-01 1.00000E-45
9.89074E-01 1.00000E-45
9.89962E-01 1.00000E-45
9.90814E-01 1.00000E-45
9.91627E-01 1.00000E-45
9.92404E-01 1.00000E-45
9.93143E-01 1.00000E-45
9.93844E-01 1.00000E-45
9.94508E-01 1.00000E-45
9.95134E-01 1.00000E-45
9.95722E-01 1.00000E-45
9.96273E-01 1.00000E-45
9.96786E-01 1.00000E-45
9.97261E-01 1.00000E-45
9.97698E-01 1.00000E-45
9.98097E-01 1.00000E-45
9.98459E-01 1.00000E-45
9.98782E-01 1.00000E-45
9.99067E-01 1.00000E-45
9.99315E-01 1.00000E-45
9.99524E-01 1.00000E-45
9.99695E-01 1.00000E-45
9.99829E-01 1.00000E-45
9.99924E-01 1.00000E-45
9.99981E-01 1.00000E-45
1.00000E+00 1.00000E-45
