 #
 # Subroutine ELSEPA. Elastic scattering of electrons and positrons
 #                    by neutral atoms and positive ions
 #
 # Projectile: electron
 # Kinetic energy = 6.00000E+07 eV = 2.20496E+06 a.u.
 #
 # WARNING: High-energy factorization with free-atom DF screening.
 #          Absorption, polarization and exchange corrections are
 #          switched off.
 #          Phase shifts are calculated for the bare nucleus.
 #          Scattering amplitudes are not evaluated.
 #
 # Element: Rh,  Z =  45,  atomic weight = 1.02906E+02 g/mol
 #
 # Nuclear model: Fermi distribution
 #                Average radius = 5.01414E-13 cm
 #                Skin thickness = 5.46000E-14 cm
 #
 # Number of electrons = 45
 #
 # Total elastic cross section = 4.21149E-18 cm**2 = 1.50395E-01 a0**2
 # 1st transport cross section = 1.09839E-24 cm**2 = 3.92243E-08 a0**2
 # 2nd transport cross section = 3.23446E-24 cm**2 = 1.15505E-07 a0**2
 #
 #
 # Differential cross section:                       MU=(1-COS(THETA))/2
 #
 #  THETA        MU          DCS          DCS        Sherman      error
 #  (deg)                 (cm**2/sr)   (a0**2/sr)    function
 #----------------------------------------------------------------------
0.00000E+00 1.16260E-10
7.61557E-13 1.16157E-10
1.18994E-12 1.16099E-10
1.71346E-12 1.16029E-10
2.33225E-12 1.15946E-10
3.04617E-12 1.15850E-10
3.85530E-12 1.15742E-10
4.75964E-12 1.15622E-10
5.75917E-12 1.15489E-10
6.85391E-12 1.15343E-10
8.04379E-12 1.15186E-10
9.32893E-12 1.15016E-10
1.07092E-11 1.14835E-10
1.21847E-11 1.14641E-10
1.37554E-11 1.14436E-10
1.54213E-11 1.14219E-10
1.71823E-11 1.13991E-10
1.90386E-11 1.13751E-10
2.09900E-11 1.13500E-10
2.30367E-11 1.13237E-10
2.51785E-11 1.12964E-10
2.74156E-11 1.12680E-10
2.97478E-11 1.12385E-10
3.21752E-11 1.12080E-10
3.46979E-11 1.11765E-10
3.73157E-11 1.11440E-10
4.00286E-11 1.11104E-10
4.28368E-11 1.10759E-10
4.57402E-11 1.10404E-10
4.87388E-11 1.10040E-10
5.18325E-11 1.09667E-10
5.50215E-11 1.09285E-10
5.83057E-11 1.08894E-10
6.16850E-11 1.08495E-10
6.51595E-11 1.08085E-10
6.87293E-11 1.07667E-10
7.23943E-11 1.07242E-10
7.61544E-11 1.06810E-10
1.18991E-10 1.02119E-10
1.71347E-10 9.69017E-11
2.33223E-10 9.13675E-11
3.04617E-10 8.57021E-11
3.85531E-10 8.00582E-11
4.75965E-10 7.45497E-11
5.75917E-10 6.92537E-11
6.85389E-10 6.42341E-11
8.04380E-10 5.95213E-11
9.32891E-10 5.51271E-11
1.07092E-09 5.10506E-11
1.21847E-09 4.72816E-11
1.37554E-09 4.38048E-11
1.54213E-09 4.06019E-11
1.71823E-09 3.76532E-11
1.90386E-09 3.49346E-11
2.09900E-09 3.24285E-11
2.30367E-09 3.01209E-11
2.51785E-09 2.79952E-11
2.74156E-09 2.60357E-11
2.97478E-09 2.42282E-11
3.21752E-09 2.25599E-11
3.46978E-09 2.10190E-11
3.73156E-09 1.95947E-11
4.00286E-09 1.82775E-11
4.28368E-09 1.70558E-11
4.57402E-09 1.59243E-11
4.87388E-09 1.48763E-11
5.18326E-09 1.39052E-11
5.50215E-09 1.30049E-11
5.83057E-09 1.21697E-11
6.16850E-09 1.13946E-11
6.51596E-09 1.06277E-11
6.87293E-09 9.91385E-12
7.23942E-09 9.26820E-12
7.61544E-09 8.68293E-12
1.18991E-08 4.77815E-12
1.71347E-08 2.79675E-12
2.33223E-08 1.74218E-12
3.04617E-08 1.14966E-12
3.85531E-08 7.96835E-13
4.75965E-08 5.74220E-13
5.75917E-08 4.26093E-13
6.85389E-08 3.23466E-13
8.04380E-08 2.49908E-13
9.32891E-08 1.95805E-13
1.07092E-07 1.55225E-13
1.21847E-07 1.24327E-13
1.37554E-07 1.00518E-13
1.54213E-07 8.19999E-14
1.71823E-07 6.74271E-14
1.90386E-07 5.58849E-14
2.09900E-07 4.66824E-14
2.30367E-07 3.92913E-14
2.51785E-07 3.33064E-14
2.74156E-07 2.84211E-14
2.97478E-07 2.44031E-14
3.21752E-07 2.10752E-14
3.46978E-07 1.83007E-14
3.73156E-07 1.59734E-14
4.00286E-07 1.40095E-14
4.28368E-07 1.23423E-14
4.57402E-07 1.09193E-14
4.87388E-07 9.69799E-15
5.18325E-07 8.64439E-15
5.50215E-07 7.73113E-15
5.83057E-07 6.93606E-15
6.16850E-07 6.24114E-15
6.51596E-07 5.62919E-15
6.87293E-07 5.09144E-15
7.23942E-07 4.61845E-15
7.61543E-07 4.20037E-15
1.18991E-06 1.79869E-15
1.71347E-06 8.90099E-16
2.33223E-06 4.88138E-16
3.04617E-06 2.89278E-16
3.85531E-06 1.82105E-16
4.75964E-06 1.20307E-16
5.75916E-06 8.26617E-17
6.85388E-06 5.86702E-17
8.04378E-06 4.27922E-17
9.32888E-06 3.19441E-17
1.07092E-05 2.43278E-17
1.21846E-05 1.88528E-17
1.37553E-05 1.48350E-17
1.54212E-05 1.18327E-17
1.71822E-05 9.55277E-18
1.90385E-05 7.79468E-18
2.09899E-05 6.42593E-18
2.30365E-05 5.34436E-18
2.51783E-05 4.48043E-18
2.74153E-05 3.78370E-18
2.97475E-05 3.21699E-18
3.21749E-05 2.75244E-18
3.46974E-05 2.36887E-18
3.73152E-05 2.04996E-18
4.00281E-05 1.78305E-18
4.28362E-05 1.55824E-18
4.57395E-05 1.36775E-18
4.87380E-05 1.20546E-18
5.18317E-05 1.06650E-18
5.50205E-05 9.46956E-19
5.83045E-05 8.43687E-19
6.16838E-05 7.54121E-19
6.51582E-05 6.76145E-19
6.87277E-05 6.08008E-19
7.23925E-05 5.48253E-19
7.61524E-05 4.95820E-19
9.21439E-05 3.39166E-19
1.09658E-04 2.39780E-19
1.28695E-04 1.74299E-19
1.49255E-04 1.29722E-19
1.71338E-04 9.85396E-20
1.94942E-04 7.61927E-20
2.20070E-04 5.98412E-20
2.46720E-04 4.76542E-20
2.74892E-04 3.84198E-20
3.04586E-04 3.13204E-20
3.35803E-04 2.57891E-20
3.68542E-04 2.14284E-20
4.02802E-04 1.79527E-20
4.38585E-04 1.51548E-20
4.75889E-04 1.28823E-20
5.14715E-04 1.10207E-20
5.55063E-04 9.48414E-21
5.96931E-04 8.20670E-21
6.40321E-04 7.13764E-21
6.85233E-04 6.23744E-21
7.31665E-04 5.47504E-21
7.79618E-04 4.82588E-21
8.29092E-04 4.27031E-21
8.80086E-04 3.79262E-21
9.32601E-04 3.38002E-21
9.86636E-04 3.02215E-21
1.04219E-03 2.71054E-21
1.09927E-03 2.43815E-21
1.15786E-03 2.19921E-21
1.21797E-03 1.98891E-21
1.27961E-03 1.80322E-21
1.34276E-03 1.63875E-21
1.40743E-03 1.49267E-21
1.47362E-03 1.36254E-21
1.54133E-03 1.24633E-21
1.61056E-03 1.14228E-21
1.68131E-03 1.04889E-21
1.75357E-03 9.64878E-22
1.82735E-03 8.89138E-22
1.90265E-03 8.20703E-22
1.97947E-03 7.58746E-22
2.05780E-03 7.02545E-22
2.13765E-03 6.51464E-22
2.21902E-03 6.04957E-22
2.30190E-03 5.62540E-22
2.38630E-03 5.23784E-22
2.47222E-03 4.88320E-22
2.55965E-03 4.55816E-22
2.64859E-03 4.25978E-22
2.73905E-03 3.98553E-22
2.83103E-03 3.73300E-22
2.92452E-03 3.50028E-22
3.01952E-03 3.28543E-22
3.11604E-03 3.08687E-22
3.21407E-03 2.90313E-22
3.31362E-03 2.73289E-22
3.41468E-03 2.57500E-22
3.51725E-03 2.42837E-22
3.62133E-03 2.29206E-22
3.72692E-03 2.16521E-22
3.83403E-03 2.04703E-22
3.94265E-03 1.93684E-22
4.05278E-03 1.83398E-22
4.16442E-03 1.73787E-22
4.27757E-03 1.64800E-22
4.39223E-03 1.56387E-22
4.50840E-03 1.48506E-22
4.62608E-03 1.41117E-22
4.74527E-03 1.34182E-22
4.86597E-03 1.27669E-22
4.98817E-03 1.21548E-22
5.11188E-03 1.15790E-22
5.23711E-03 1.10369E-22
5.36383E-03 1.05263E-22
5.49207E-03 1.00449E-22
5.62181E-03 9.59078E-23
5.75306E-03 9.16209E-23
5.88581E-03 8.75713E-23
6.02007E-03 8.37434E-23
6.15583E-03 8.01227E-23
6.29310E-03 7.66959E-23
6.43187E-03 7.34507E-23
6.57214E-03 7.03756E-23
6.71392E-03 6.74600E-23
6.85720E-03 6.46940E-23
7.00198E-03 6.20685E-23
7.14827E-03 5.95750E-23
7.29605E-03 5.72056E-23
7.44534E-03 5.49530E-23
7.59612E-03 5.28102E-23
7.97965E-03 4.78932E-23
8.37255E-03 4.35357E-23
8.77480E-03 3.96627E-23
9.18641E-03 3.62110E-23
9.60736E-03 3.31266E-23
1.00376E-02 3.03635E-23
1.04773E-02 2.78823E-23
1.09262E-02 2.56491E-23
1.13844E-02 2.36347E-23
1.18520E-02 2.18138E-23
1.23288E-02 2.01646E-23
1.28150E-02 1.86678E-23
1.33104E-02 1.73070E-23
1.38150E-02 1.60675E-23
1.43290E-02 1.49365E-23
1.48521E-02 1.39029E-23
1.53845E-02 1.29567E-23
1.59262E-02 1.20893E-23
1.64770E-02 1.12928E-23
1.70371E-02 1.05604E-23
1.76063E-02 9.88604E-24
1.81848E-02 9.26427E-24
1.87724E-02 8.69023E-24
1.93692E-02 8.15959E-24
1.99751E-02 7.66849E-24
2.05901E-02 7.21343E-24
2.12143E-02 6.79129E-24
2.18476E-02 6.39926E-24
2.24900E-02 6.03479E-24
2.31415E-02 5.69560E-24
2.38021E-02 5.37961E-24
2.44717E-02 5.08495E-24
2.51504E-02 4.80991E-24
2.58382E-02 4.55295E-24
2.65349E-02 4.31267E-24
2.72407E-02 4.08779E-24
2.79555E-02 3.87713E-24
2.86793E-02 3.67964E-24
2.94120E-02 3.49435E-24
3.01537E-02 3.32035E-24
3.09043E-02 3.15685E-24
3.16639E-02 3.00309E-24
3.24324E-02 2.85839E-24
3.32098E-02 2.72212E-24
3.39961E-02 2.59369E-24
3.47912E-02 2.47258E-24
3.55952E-02 2.35828E-24
3.64081E-02 2.25036E-24
3.72297E-02 2.14839E-24
3.80602E-02 2.05198E-24
3.88995E-02 1.96077E-24
3.97476E-02 1.87444E-24
4.06044E-02 1.79268E-24
4.14700E-02 1.71519E-24
4.23443E-02 1.64173E-24
4.32273E-02 1.57204E-24
4.41190E-02 1.50589E-24
4.50194E-02 1.44307E-24
4.59284E-02 1.38339E-24
4.68461E-02 1.32666E-24
4.87074E-02 1.22137E-24
5.06030E-02 1.12597E-24
5.25328E-02 1.03937E-24
5.44967E-02 9.60627E-25
5.64946E-02 8.88915E-25
5.85262E-02 8.23501E-25
6.05914E-02 7.63741E-25
6.26901E-02 7.09067E-25
6.48222E-02 6.58977E-25
6.69873E-02 6.13024E-25
6.91854E-02 5.70812E-25
7.14163E-02 5.31988E-25
7.36799E-02 4.96236E-25
7.59760E-02 4.63276E-25
7.83043E-02 4.32855E-25
8.06647E-02 4.04748E-25
8.30571E-02 3.78750E-25
8.54812E-02 3.54679E-25
8.79369E-02 3.32371E-25
9.04240E-02 3.11676E-25
9.29422E-02 2.92461E-25
9.54915E-02 2.74604E-25
9.80716E-02 2.57995E-25
1.00682E-01 2.42533E-25
1.03323E-01 2.28128E-25
1.05995E-01 2.14697E-25
1.08696E-01 2.02165E-25
1.11427E-01 1.90462E-25
1.14188E-01 1.79527E-25
1.16978E-01 1.69301E-25
1.19797E-01 1.59733E-25
1.22645E-01 1.50774E-25
1.25522E-01 1.42381E-25
1.28428E-01 1.34512E-25
1.31361E-01 1.27130E-25
1.34323E-01 1.20202E-25
1.37313E-01 1.13696E-25
1.40330E-01 1.07582E-25
1.43375E-01 1.01835E-25
1.46447E-01 9.64288E-26
1.49545E-01 9.13411E-26
1.52671E-01 8.65508E-26
1.55823E-01 8.20384E-26
1.59001E-01 7.77857E-26
1.62205E-01 7.37762E-26
1.65435E-01 6.99941E-26
1.68690E-01 6.64251E-26
1.71970E-01 6.30558E-26
1.75276E-01 5.98737E-26
1.78606E-01 5.68672E-26
1.81961E-01 5.40256E-26
1.85340E-01 5.13389E-26
1.88743E-01 4.87976E-26
1.92169E-01 4.63930E-26
1.95619E-01 4.41171E-26
1.99092E-01 4.19622E-26
2.02589E-01 3.99213E-26
2.06107E-01 3.79876E-26
2.09649E-01 3.61549E-26
2.13212E-01 3.44176E-26
2.16797E-01 3.27701E-26
2.20404E-01 3.12073E-26
2.24032E-01 2.97245E-26
2.27680E-01 2.83173E-26
2.31350E-01 2.69813E-26
2.35040E-01 2.57127E-26
2.38751E-01 2.45077E-26
2.42481E-01 2.33630E-26
2.46231E-01 2.22752E-26
2.50000E-01 2.12412E-26
2.53788E-01 2.02582E-26
2.57595E-01 1.93234E-26
2.61421E-01 1.84344E-26
2.65264E-01 1.75886E-26
2.69126E-01 1.67839E-26
2.73005E-01 1.60180E-26
2.76901E-01 1.52889E-26
2.80814E-01 1.45948E-26
2.84744E-01 1.39339E-26
2.88691E-01 1.33044E-26
2.92653E-01 1.27048E-26
2.96632E-01 1.21335E-26
3.00625E-01 1.15891E-26
3.04634E-01 1.10703E-26
3.08658E-01 1.05757E-26
3.12697E-01 1.01042E-26
3.16749E-01 9.65470E-27
3.20816E-01 9.22601E-27
3.24896E-01 8.81714E-27
3.28990E-01 8.42712E-27
3.33097E-01 8.05503E-27
3.37216E-01 7.70000E-27
3.41348E-01 7.36121E-27
3.45492E-01 7.03788E-27
3.49647E-01 6.72925E-27
3.53814E-01 6.43464E-27
3.57992E-01 6.15336E-27
3.62181E-01 5.88479E-27
3.66381E-01 5.62832E-27
3.70590E-01 5.38338E-27
3.74810E-01 5.14943E-27
3.79039E-01 4.92596E-27
3.83277E-01 4.71247E-27
3.87524E-01 4.50850E-27
3.91780E-01 4.31361E-27
3.96044E-01 4.12737E-27
4.00316E-01 3.94939E-27
4.04596E-01 3.77929E-27
4.08882E-01 3.61670E-27
4.13176E-01 3.46127E-27
4.17476E-01 3.31269E-27
4.21783E-01 3.17064E-27
4.26095E-01 3.03482E-27
4.30413E-01 2.90495E-27
4.34737E-01 2.78076E-27
4.39065E-01 2.66200E-27
4.43398E-01 2.54841E-27
4.47736E-01 2.43977E-27
4.52077E-01 2.33586E-27
4.56422E-01 2.23646E-27
4.60770E-01 2.14137E-27
4.65122E-01 2.05040E-27
4.69476E-01 1.96337E-27
4.73832E-01 1.88009E-27
4.78190E-01 1.80042E-27
4.82550E-01 1.72417E-27
4.86912E-01 1.65122E-27
4.91274E-01 1.58140E-27
4.95637E-01 1.51458E-27
5.00000E-01 1.45063E-27
5.04363E-01 1.38942E-27
5.08726E-01 1.33084E-27
5.13088E-01 1.27477E-27
5.17450E-01 1.22109E-27
5.21810E-01 1.16971E-27
5.26168E-01 1.12052E-27
5.30524E-01 1.07343E-27
5.34878E-01 1.02835E-27
5.39230E-01 9.85189E-28
5.43578E-01 9.43865E-28
5.47923E-01 9.04299E-28
5.52264E-01 8.66415E-28
5.56602E-01 8.30139E-28
5.60935E-01 7.95404E-28
5.65263E-01 7.62142E-28
5.69587E-01 7.30289E-28
5.73905E-01 6.99787E-28
5.78217E-01 6.70575E-28
5.82524E-01 6.42599E-28
5.86824E-01 6.15807E-28
5.91118E-01 5.90146E-28
5.95404E-01 5.65569E-28
5.99684E-01 5.42030E-28
6.03956E-01 5.19484E-28
6.08220E-01 4.97888E-28
6.12476E-01 4.77203E-28
6.16723E-01 4.57388E-28
6.20961E-01 4.38408E-28
6.25190E-01 4.20227E-28
6.29410E-01 4.02810E-28
6.33619E-01 3.86125E-28
6.37819E-01 3.70141E-28
6.42008E-01 3.54828E-28
6.46186E-01 3.40158E-28
6.50353E-01 3.26103E-28
6.54508E-01 3.12638E-28
6.58652E-01 2.99737E-28
6.62784E-01 2.87376E-28
6.66903E-01 2.75532E-28
6.71010E-01 2.64184E-28
6.75104E-01 2.53311E-28
6.79184E-01 2.42892E-28
6.83251E-01 2.32909E-28
6.87303E-01 2.23342E-28
6.91342E-01 2.14174E-28
6.95366E-01 2.05389E-28
6.99375E-01 1.96970E-28
7.03368E-01 1.88902E-28
7.07347E-01 1.81169E-28
7.11309E-01 1.73758E-28
7.15256E-01 1.66656E-28
7.19186E-01 1.59848E-28
7.23099E-01 1.53324E-28
7.26995E-01 1.47070E-28
7.30874E-01 1.41075E-28
7.34736E-01 1.35329E-28
7.38579E-01 1.29821E-28
7.42405E-01 1.24541E-28
7.46212E-01 1.19479E-28
7.50000E-01 1.14626E-28
7.53769E-01 1.09974E-28
7.57519E-01 1.05513E-28
7.61249E-01 1.01236E-28
7.64960E-01 9.71358E-29
7.68650E-01 9.32038E-29
7.72320E-01 8.94335E-29
7.75968E-01 8.58179E-29
7.79596E-01 8.23507E-29
7.83203E-01 7.90255E-29
7.86788E-01 7.58364E-29
7.90351E-01 7.27777E-29
7.93893E-01 6.98439E-29
7.97411E-01 6.70297E-29
8.00908E-01 6.43302E-29
8.04381E-01 6.17405E-29
8.07831E-01 5.92561E-29
8.11257E-01 5.68724E-29
8.14660E-01 5.45854E-29
8.18039E-01 5.23909E-29
8.21394E-01 5.02851E-29
8.24724E-01 4.82642E-29
8.28030E-01 4.63248E-29
8.31310E-01 4.44633E-29
8.34565E-01 4.26767E-29
8.37795E-01 4.09616E-29
8.40999E-01 3.93152E-29
8.44177E-01 3.77346E-29
8.47329E-01 3.62170E-29
8.50455E-01 3.47599E-29
8.53553E-01 3.33607E-29
8.56625E-01 3.20169E-29
8.59670E-01 3.07264E-29
8.62687E-01 2.94869E-29
8.65677E-01 2.82962E-29
8.68639E-01 2.71524E-29
8.71572E-01 2.60535E-29
8.74478E-01 2.49977E-29
8.77355E-01 2.39832E-29
8.80203E-01 2.30083E-29
8.83022E-01 2.20714E-29
8.85812E-01 2.11709E-29
8.88573E-01 2.03053E-29
8.91304E-01 1.94732E-29
8.94005E-01 1.86732E-29
8.96677E-01 1.79040E-29
8.99318E-01 1.71644E-29
9.01928E-01 1.64532E-29
9.04508E-01 1.57692E-29
9.07058E-01 1.51113E-29
9.09576E-01 1.44785E-29
9.12063E-01 1.38698E-29
9.14519E-01 1.32842E-29
9.16943E-01 1.27207E-29
9.19335E-01 1.21786E-29
9.21696E-01 1.16569E-29
9.24024E-01 1.11549E-29
9.26320E-01 1.06718E-29
9.28584E-01 1.02068E-29
9.30815E-01 9.75918E-30
9.33013E-01 9.32837E-30
9.35178E-01 8.91367E-30
9.37310E-01 8.51446E-30
9.39409E-01 8.13015E-30
9.41474E-01 7.76017E-30
9.43505E-01 7.40398E-30
9.45503E-01 7.06107E-30
9.47467E-01 6.73094E-30
9.49397E-01 6.41311E-30
9.51293E-01 6.10714E-30
9.53154E-01 5.81258E-30
9.54981E-01 5.52904E-30
9.56773E-01 5.25610E-30
9.58530E-01 4.99339E-30
9.60252E-01 4.74056E-30
9.61940E-01 4.49726E-30
9.63592E-01 4.26315E-30
9.65209E-01 4.03793E-30
9.66790E-01 3.82128E-30
9.68336E-01 3.61294E-30
9.69846E-01 3.41261E-30
9.71321E-01 3.22005E-30
9.72759E-01 3.03499E-30
9.74162E-01 2.85721E-30
9.75528E-01 2.68647E-30
9.76858E-01 2.52257E-30
9.78152E-01 2.36529E-30
9.79410E-01 2.21444E-30
9.80631E-01 2.06982E-30
9.81815E-01 1.93128E-30
9.82963E-01 1.79862E-30
9.84074E-01 1.67170E-30
9.85148E-01 1.55036E-30
9.86185E-01 1.43445E-30
9.87185E-01 1.32384E-30
9.88148E-01 1.21840E-30
9.89074E-01 1.11800E-30
9.89962E-01 1.02253E-30
9.90814E-01 9.31878E-31
9.91627E-01 8.45935E-31
9.92404E-01 7.64606E-31
9.93143E-01 6.87798E-31
9.93844E-01 6.15424E-31
9.94508E-01 5.47403E-31
9.95134E-01 4.83658E-31
9.95722E-01 4.24120E-31
9.96273E-01 3.68720E-31
9.96786E-01 3.17400E-31
9.97261E-01 2.70101E-31
9.97698E-01 2.26773E-31
9.98097E-01 1.87367E-31
9.98459E-01 1.51842E-31
9.98782E-01 1.20158E-31
9.99067E-01 9.22808E-32
9.99315E-01 6.81813E-32
9.99524E-01 4.78329E-32
9.99695E-01 3.12140E-32
9.99829E-01 1.83065E-32
9.99924E-01 9.09680E-33
9.99981E-01 3.57484E-33
1.00000E+00 1.73473E-33
