 #
 # Subroutine ELSEPA. Elastic scattering of electrons and positrons
 #                    by neutral atoms and positive ions
 #
 # Projectile: positron
 # Kinetic energy = 1.50000E+08 eV = 5.51240E+06 a.u.
 #
 # WARNING: High-energy factorization with free-atom DF screening.
 #          Absorption, polarization and exchange corrections are
 #          switched off.
 #          Phase shifts are calculated for the bare nucleus.
 #          Scattering amplitudes are not evaluated.
 #
 # Element: Ra,  Z =  88,  atomic weight = 2.26025E+02 g/mol
 #
 # Nuclear model: Fermi distribution
 #                Average radius = 6.51783E-13 cm
 #                Skin thickness = 5.46000E-14 cm
 #
 # Number of electrons = 88
 #
 # Total elastic cross section = 1.11186E-17 cm**2 = 3.97053E-01 a0**2
 # 1st transport cross section = 6.22656E-25 cm**2 = 2.22355E-08 a0**2
 # 2nd transport cross section = 1.85966E-24 cm**2 = 6.64095E-08 a0**2
 #
 #
 # Differential cross section:                       MU=(1-COS(THETA))/2
 #
 #  THETA        MU          DCS          DCS        Sherman      error
 #  (deg)                 (cm**2/sr)   (a0**2/sr)    function
 #----------------------------------------------------------------------
0.00000E+00 3.44435E-09
7.61557E-13 3.40155E-09
1.18994E-12 3.37789E-09
1.71346E-12 3.34935E-09
2.33225E-12 3.31612E-09
3.04617E-12 3.27848E-09
3.85530E-12 3.23667E-09
4.75964E-12 3.19100E-09
5.75917E-12 3.14178E-09
6.85391E-12 3.08932E-09
8.04379E-12 3.03398E-09
9.32893E-12 2.97607E-09
1.07092E-11 2.91630E-09
1.21847E-11 2.85481E-09
1.37554E-11 2.79125E-09
1.54213E-11 2.72589E-09
1.71823E-11 2.66074E-09
1.90386E-11 2.59485E-09
2.09900E-11 2.52795E-09
2.30367E-11 2.46062E-09
2.51785E-11 2.39501E-09
2.74156E-11 2.32907E-09
2.97478E-11 2.26297E-09
3.21752E-11 2.19823E-09
3.46979E-11 2.13510E-09
3.73157E-11 2.07228E-09
4.00286E-11 2.00992E-09
4.28368E-11 1.95040E-09
4.57402E-11 1.89197E-09
4.87388E-11 1.83428E-09
5.18325E-11 1.77789E-09
5.50215E-11 1.72443E-09
5.83057E-11 1.67186E-09
6.16850E-11 1.62026E-09
6.51595E-11 1.57088E-09
6.87293E-11 1.52351E-09
7.23943E-11 1.47715E-09
7.61544E-11 1.43184E-09
1.18991E-10 1.06546E-09
1.71347E-10 8.13620E-10
2.33223E-10 6.37428E-10
3.04617E-10 5.09568E-10
3.85531E-10 4.13276E-10
4.75965E-10 3.38860E-10
5.75917E-10 2.80323E-10
6.85389E-10 2.33697E-10
8.04380E-10 1.96232E-10
9.32891E-10 1.65967E-10
1.07092E-09 1.40758E-10
1.21847E-09 1.20038E-10
1.37554E-09 1.03678E-10
1.54213E-09 9.05928E-11
1.71823E-09 7.88664E-11
1.90386E-09 6.90451E-11
2.09900E-09 6.09998E-11
2.30367E-09 5.42489E-11
2.51785E-09 4.80205E-11
2.74156E-09 4.28167E-11
2.97478E-09 3.84349E-11
3.21752E-09 3.45313E-11
3.46978E-09 3.10242E-11
3.73156E-09 2.80270E-11
4.00286E-09 2.54501E-11
4.28368E-09 2.30551E-11
4.57402E-09 2.09504E-11
4.87388E-09 1.91197E-11
5.18326E-09 1.74984E-11
5.50215E-09 1.59915E-11
5.83057E-09 1.46673E-11
6.16850E-09 1.34989E-11
6.51596E-09 1.24310E-11
6.87293E-09 1.14573E-11
7.23942E-09 1.05909E-11
7.61544E-09 9.81744E-12
1.18991E-08 4.89969E-12
1.71347E-08 2.71926E-12
2.33223E-08 1.62170E-12
3.04617E-08 1.02157E-12
3.85531E-08 6.75270E-13
4.75965E-08 4.65024E-13
5.75917E-08 3.30945E-13
6.85389E-08 2.42203E-13
8.04380E-08 1.81482E-13
9.32891E-08 1.38694E-13
1.07092E-07 1.07740E-13
1.21847E-07 8.50960E-14
1.37554E-07 6.80381E-14
1.54213E-07 5.50962E-14
1.71823E-07 4.51174E-14
1.90386E-07 3.72788E-14
2.09900E-07 3.10853E-14
2.30367E-07 2.61367E-14
2.51785E-07 2.21269E-14
2.74156E-07 1.88586E-14
2.97478E-07 1.61752E-14
3.21752E-07 1.39492E-14
3.46978E-07 1.20914E-14
3.73156E-07 1.05338E-14
4.00286E-07 9.21814E-15
4.28368E-07 8.09980E-15
4.57402E-07 7.14658E-15
4.87388E-07 6.32946E-15
5.18325E-07 5.62472E-15
5.50215E-07 5.01578E-15
5.83057E-07 4.48730E-15
6.16850E-07 4.02600E-15
6.51596E-07 3.62275E-15
6.87293E-07 3.26895E-15
7.23942E-07 2.95711E-15
7.61543E-07 2.68169E-15
1.18991E-06 1.13020E-15
1.71347E-06 5.55967E-16
2.33223E-06 3.04281E-16
3.04617E-06 1.80117E-16
3.85531E-06 1.13255E-16
4.75964E-06 7.47151E-17
5.75916E-06 5.12547E-17
6.85388E-06 3.63196E-17
8.04378E-06 2.64491E-17
9.32888E-06 1.97154E-17
1.07092E-05 1.49947E-17
1.21846E-05 1.16062E-17
1.37553E-05 9.12300E-18
1.54212E-05 7.26976E-18
1.71822E-05 5.86405E-18
1.90385E-05 4.77884E-18
2.09899E-05 3.93907E-18
2.30365E-05 3.27516E-18
2.51783E-05 2.74440E-18
2.74153E-05 2.31618E-18
2.97475E-05 1.96793E-18
3.21749E-05 1.68270E-18
3.46974E-05 1.44745E-18
3.73152E-05 1.25208E-18
4.00281E-05 1.08871E-18
4.28362E-05 9.51174E-19
4.57395E-05 8.34665E-19
4.87380E-05 7.35405E-19
5.18317E-05 6.50413E-19
5.50205E-05 5.77311E-19
5.83045E-05 5.14177E-19
6.16838E-05 4.59440E-19
6.51582E-05 4.11803E-19
6.87277E-05 3.70190E-19
7.23925E-05 3.33707E-19
7.61524E-05 3.01723E-19
9.21439E-05 2.06173E-19
1.09658E-04 1.45605E-19
1.28695E-04 1.05729E-19
1.49255E-04 7.86091E-20
1.71338E-04 5.96501E-20
1.94942E-04 4.60756E-20
2.20070E-04 3.61506E-20
2.46720E-04 2.87586E-20
2.74892E-04 2.31627E-20
3.04586E-04 1.88632E-20
3.35803E-04 1.55164E-20
3.68542E-04 1.28797E-20
4.02802E-04 1.07798E-20
4.38585E-04 9.09078E-21
4.75889E-04 7.71976E-21
5.14715E-04 6.59769E-21
5.55063E-04 5.67211E-21
5.96931E-04 4.90322E-21
6.40321E-04 4.26023E-21
6.85233E-04 3.71917E-21
7.31665E-04 3.26129E-21
7.79618E-04 2.87167E-21
8.29092E-04 2.53850E-21
8.80086E-04 2.25221E-21
9.32601E-04 2.00511E-21
9.86636E-04 1.79096E-21
1.04219E-03 1.60461E-21
1.09927E-03 1.44185E-21
1.15786E-03 1.29920E-21
1.21797E-03 1.17379E-21
1.27961E-03 1.06303E-21
1.34276E-03 9.64975E-22
1.40743E-03 8.77939E-22
1.47362E-03 8.00466E-22
1.54133E-03 7.31327E-22
1.61056E-03 6.69468E-22
1.68131E-03 6.13988E-22
1.75357E-03 5.64116E-22
1.82735E-03 5.19184E-22
1.90265E-03 4.78617E-22
1.97947E-03 4.41917E-22
2.05780E-03 4.08649E-22
2.13765E-03 3.78437E-22
2.21902E-03 3.50948E-22
2.30190E-03 3.25896E-22
2.38630E-03 3.03025E-22
2.47222E-03 2.82111E-22
2.55965E-03 2.62958E-22
2.64859E-03 2.45390E-22
2.73905E-03 2.29254E-22
2.83103E-03 2.14410E-22
2.92452E-03 2.00738E-22
3.01952E-03 1.88129E-22
3.11604E-03 1.76484E-22
3.21407E-03 1.65717E-22
3.31362E-03 1.55751E-22
3.41468E-03 1.46514E-22
3.51725E-03 1.37943E-22
3.62133E-03 1.29983E-22
3.72692E-03 1.22581E-22
3.83403E-03 1.15692E-22
3.94265E-03 1.09274E-22
4.05278E-03 1.03288E-22
4.16442E-03 9.77008E-23
4.27757E-03 9.24805E-23
4.39223E-03 8.75987E-23
4.50840E-03 8.30296E-23
4.62608E-03 7.87496E-23
4.74527E-03 7.47371E-23
4.86597E-03 7.09723E-23
4.98817E-03 6.74373E-23
5.11188E-03 6.41155E-23
5.23711E-03 6.09917E-23
5.36383E-03 5.80521E-23
5.49207E-03 5.52837E-23
5.62181E-03 5.26750E-23
5.75306E-03 5.02149E-23
5.88581E-03 4.78936E-23
6.02007E-03 4.57017E-23
6.15583E-03 4.36309E-23
6.29310E-03 4.16732E-23
6.43187E-03 3.98213E-23
6.57214E-03 3.80685E-23
6.71392E-03 3.64086E-23
6.85720E-03 3.48357E-23
7.00198E-03 3.33446E-23
7.14827E-03 3.19301E-23
7.29605E-03 3.05877E-23
7.44534E-03 2.93131E-23
7.59612E-03 2.81021E-23
7.97965E-03 2.53296E-23
8.37255E-03 2.28805E-23
8.77480E-03 2.07112E-23
9.18641E-03 1.87846E-23
9.60736E-03 1.70692E-23
1.00376E-02 1.55381E-23
1.04773E-02 1.41684E-23
1.09262E-02 1.29405E-23
1.13844E-02 1.18372E-23
1.18520E-02 1.08441E-23
1.23288E-02 9.94830E-24
1.28150E-02 9.13886E-24
1.33104E-02 8.40614E-24
1.38150E-02 7.74176E-24
1.43290E-02 7.13837E-24
1.48521E-02 6.58951E-24
1.53845E-02 6.08950E-24
1.59262E-02 5.63335E-24
1.64770E-02 5.21663E-24
1.70371E-02 4.83542E-24
1.76063E-02 4.48625E-24
1.81848E-02 4.16603E-24
1.87724E-02 3.87201E-24
1.93692E-02 3.60173E-24
1.99751E-02 3.35301E-24
2.05901E-02 3.12388E-24
2.12143E-02 2.91258E-24
2.18476E-02 2.71752E-24
2.24900E-02 2.53728E-24
2.31415E-02 2.37058E-24
2.38021E-02 2.21627E-24
2.44717E-02 2.07330E-24
2.51504E-02 1.94072E-24
2.58382E-02 1.81768E-24
2.65349E-02 1.70340E-24
2.72407E-02 1.59717E-24
2.79555E-02 1.49836E-24
2.86793E-02 1.40638E-24
2.94120E-02 1.32070E-24
3.01537E-02 1.24083E-24
3.09043E-02 1.16633E-24
3.16639E-02 1.09679E-24
3.24324E-02 1.03185E-24
3.32098E-02 9.71166E-25
3.39961E-02 9.14419E-25
3.47912E-02 8.61329E-25
3.55952E-02 8.11632E-25
3.64081E-02 7.65085E-25
3.72297E-02 7.21468E-25
3.80602E-02 6.80575E-25
3.88995E-02 6.42216E-25
3.97476E-02 6.06218E-25
4.06044E-02 5.72421E-25
4.14700E-02 5.40674E-25
4.23443E-02 5.10841E-25
4.32273E-02 4.82794E-25
4.41190E-02 4.56416E-25
4.50194E-02 4.31597E-25
4.59284E-02 4.08236E-25
4.68461E-02 3.86239E-25
4.87074E-02 3.45994E-25
5.06030E-02 3.10235E-25
5.25328E-02 2.78419E-25
5.44967E-02 2.50075E-25
5.64946E-02 2.24794E-25
5.85262E-02 2.02219E-25
6.05914E-02 1.82038E-25
6.26901E-02 1.63980E-25
6.48222E-02 1.47805E-25
6.69873E-02 1.33304E-25
6.91854E-02 1.20292E-25
7.14163E-02 1.08606E-25
7.36799E-02 9.81037E-26
7.59760E-02 8.86578E-26
7.83043E-02 8.01563E-26
8.06647E-02 7.24995E-26
8.30571E-02 6.55994E-26
8.54812E-02 5.93774E-26
8.79369E-02 5.37639E-26
9.04240E-02 4.86967E-26
9.29422E-02 4.41203E-26
9.54915E-02 3.99854E-26
9.80716E-02 3.62476E-26
1.00682E-01 3.28675E-26
1.03323E-01 2.98097E-26
1.05995E-01 2.70424E-26
1.08696E-01 2.45372E-26
1.11427E-01 2.22685E-26
1.14188E-01 2.02134E-26
1.16978E-01 1.83512E-26
1.19797E-01 1.66635E-26
1.22645E-01 1.51335E-26
1.25522E-01 1.37462E-26
1.28428E-01 1.24879E-26
1.31361E-01 1.13465E-26
1.34323E-01 1.03109E-26
1.37313E-01 9.37117E-27
1.40330E-01 8.51828E-27
1.43375E-01 7.74411E-27
1.46447E-01 7.04128E-27
1.49545E-01 6.40315E-27
1.52671E-01 5.82370E-27
1.55823E-01 5.29747E-27
1.59001E-01 4.81954E-27
1.62205E-01 4.38541E-27
1.65435E-01 3.99106E-27
1.68690E-01 3.63280E-27
1.71970E-01 3.30730E-27
1.75276E-01 3.01155E-27
1.78606E-01 2.74280E-27
1.81961E-01 2.49858E-27
1.85340E-01 2.27663E-27
1.88743E-01 2.07490E-27
1.92169E-01 1.89154E-27
1.95619E-01 1.72487E-27
1.99092E-01 1.57334E-27
2.02589E-01 1.43558E-27
2.06107E-01 1.31032E-27
2.09649E-01 1.19642E-27
2.13212E-01 1.09283E-27
2.16797E-01 9.98611E-28
2.20404E-01 9.12902E-28
2.24032E-01 8.34925E-28
2.27680E-01 7.63971E-28
2.31350E-01 6.99396E-28
2.35040E-01 6.40617E-28
2.38751E-01 5.87102E-28
2.42481E-01 5.38370E-28
2.46231E-01 4.93982E-28
2.50000E-01 4.53540E-28
2.53788E-01 4.16684E-28
2.57595E-01 3.83084E-28
2.61421E-01 3.52444E-28
2.65264E-01 3.24492E-28
2.69126E-01 2.98982E-28
2.73005E-01 2.75693E-28
2.76901E-01 2.54420E-28
2.80814E-01 2.34981E-28
2.84744E-01 2.17208E-28
2.88691E-01 2.00950E-28
2.92653E-01 1.86068E-28
2.96632E-01 1.72440E-28
3.00625E-01 1.59950E-28
3.04634E-01 1.48496E-28
3.08658E-01 1.37985E-28
3.12697E-01 1.28333E-28
3.16749E-01 1.19461E-28
3.20816E-01 1.11302E-28
3.24896E-01 1.03790E-28
3.28990E-01 9.68701E-29
3.33097E-01 9.04886E-29
3.37216E-01 8.45988E-29
3.41348E-01 7.91576E-29
3.45492E-01 7.41262E-29
3.49647E-01 6.94693E-29
3.53814E-01 6.51547E-29
3.57992E-01 6.11534E-29
3.62181E-01 5.74389E-29
3.66381E-01 5.39872E-29
3.70590E-01 5.07765E-29
3.74810E-01 4.77870E-29
3.79039E-01 4.50006E-29
3.83277E-01 4.24011E-29
3.87524E-01 3.99735E-29
3.91780E-01 3.77042E-29
3.96044E-01 3.55809E-29
4.00316E-01 3.35924E-29
4.04596E-01 3.17284E-29
4.08882E-01 2.99797E-29
4.13176E-01 2.83376E-29
4.17476E-01 2.67944E-29
4.21783E-01 2.53431E-29
4.26095E-01 2.39770E-29
4.30413E-01 2.26903E-29
4.34737E-01 2.14775E-29
4.39065E-01 2.03336E-29
4.43398E-01 1.92540E-29
4.47736E-01 1.82345E-29
4.52077E-01 1.72713E-29
4.56422E-01 1.63607E-29
4.60770E-01 1.54995E-29
4.65122E-01 1.46847E-29
4.69476E-01 1.39133E-29
4.73832E-01 1.31829E-29
4.78190E-01 1.24910E-29
4.82550E-01 1.18354E-29
4.86912E-01 1.12140E-29
4.91274E-01 1.06249E-29
4.95637E-01 1.00663E-29
5.00000E-01 9.53645E-30
5.04363E-01 9.03386E-30
5.08726E-01 8.55704E-30
5.13088E-01 8.10462E-30
5.17450E-01 7.67531E-30
5.21810E-01 7.26791E-30
5.26168E-01 6.88128E-30
5.30524E-01 6.51436E-30
5.34878E-01 6.16613E-30
5.39230E-01 5.83565E-30
5.43578E-01 5.52202E-30
5.47923E-01 5.22440E-30
5.52264E-01 4.94199E-30
5.56602E-01 4.67404E-30
5.60935E-01 4.41982E-30
5.65263E-01 4.17866E-30
5.69587E-01 3.94991E-30
5.73905E-01 3.73296E-30
5.78217E-01 3.52723E-30
5.82524E-01 3.33218E-30
5.86824E-01 3.14727E-30
5.91118E-01 2.97200E-30
5.95404E-01 2.80591E-30
5.99684E-01 2.64854E-30
6.03956E-01 2.49946E-30
6.08220E-01 2.35827E-30
6.12476E-01 2.22456E-30
6.16723E-01 2.09798E-30
6.20961E-01 1.97817E-30
6.25190E-01 1.86478E-30
6.29410E-01 1.75751E-30
6.33619E-01 1.65604E-30
6.37819E-01 1.56009E-30
6.42008E-01 1.46936E-30
6.46186E-01 1.38361E-30
6.50353E-01 1.30257E-30
6.54508E-01 1.22601E-30
6.58652E-01 1.15370E-30
6.62784E-01 1.08542E-30
6.66903E-01 1.02096E-30
6.71010E-01 9.60116E-31
6.75104E-01 9.02711E-31
6.79184E-01 8.48560E-31
6.83251E-01 7.97493E-31
6.87303E-01 7.49347E-31
6.91342E-01 7.03967E-31
6.95366E-01 6.61205E-31
6.99375E-01 6.20921E-31
7.03368E-01 5.82983E-31
7.07347E-01 5.47262E-31
7.11309E-01 5.13639E-31
7.15256E-01 4.82000E-31
7.19186E-01 4.52235E-31
7.23099E-01 4.24240E-31
7.26995E-01 3.97919E-31
7.30874E-01 3.73177E-31
7.34736E-01 3.49927E-31
7.38579E-01 3.28083E-31
7.42405E-01 3.07568E-31
7.46212E-01 2.88304E-31
7.50000E-01 2.70222E-31
7.53769E-01 2.53252E-31
7.57519E-01 2.37331E-31
7.61249E-01 2.22397E-31
7.64960E-01 2.08394E-31
7.68650E-01 1.95266E-31
7.72320E-01 1.82963E-31
7.75968E-01 1.71434E-31
7.79596E-01 1.60635E-31
7.83203E-01 1.50521E-31
7.86788E-01 1.41051E-31
7.90351E-01 1.32186E-31
7.93893E-01 1.23889E-31
7.97411E-01 1.16126E-31
8.00908E-01 1.08864E-31
8.04381E-01 1.02072E-31
8.07831E-01 9.57200E-32
8.11257E-01 8.97815E-32
8.14660E-01 8.42303E-32
8.18039E-01 7.90418E-32
8.21394E-01 7.41931E-32
8.24724E-01 6.96625E-32
8.28030E-01 6.54297E-32
8.31310E-01 6.14754E-32
8.34565E-01 5.77816E-32
8.37795E-01 5.43313E-32
8.40999E-01 5.11087E-32
8.44177E-01 4.80987E-32
8.47329E-01 4.52873E-32
8.50455E-01 4.26612E-32
8.53553E-01 4.02082E-32
8.56625E-01 3.79165E-32
8.59670E-01 3.57754E-32
8.62687E-01 3.37746E-32
8.65677E-01 3.19045E-32
8.68639E-01 3.01562E-32
8.71572E-01 2.85214E-32
8.74478E-01 2.69922E-32
8.77355E-01 2.55613E-32
8.80203E-01 2.42218E-32
8.83022E-01 2.29673E-32
8.85812E-01 2.17919E-32
8.88573E-01 2.06900E-32
8.91304E-01 1.96564E-32
8.94005E-01 1.86862E-32
8.96677E-01 1.77750E-32
8.99318E-01 1.69186E-32
9.01928E-01 1.61129E-32
9.04508E-01 1.53545E-32
9.07058E-01 1.46398E-32
9.09576E-01 1.39658E-32
9.12063E-01 1.33295E-32
9.14519E-01 1.27282E-32
9.16943E-01 1.21594E-32
9.19335E-01 1.16208E-32
9.21696E-01 1.11102E-32
9.24024E-01 1.06256E-32
9.26320E-01 1.01651E-32
9.28584E-01 9.72707E-33
9.30815E-01 9.30990E-33
9.33013E-01 8.91213E-33
9.35178E-01 8.53242E-33
9.37310E-01 8.16952E-33
9.39409E-01 7.82230E-33
9.41474E-01 7.48971E-33
9.43505E-01 7.17077E-33
9.45503E-01 6.86462E-33
9.47467E-01 6.57042E-33
9.49397E-01 6.28744E-33
9.51293E-01 6.01499E-33
9.53154E-01 5.75245E-33
9.54981E-01 5.49926E-33
9.56773E-01 5.25488E-33
9.58530E-01 5.01887E-33
9.60252E-01 4.79076E-33
9.61940E-01 4.57019E-33
9.63592E-01 4.35678E-33
9.65209E-01 4.15024E-33
9.66790E-01 3.95026E-33
9.68336E-01 3.75658E-33
9.69846E-01 3.56897E-33
9.71321E-01 3.38720E-33
9.72759E-01 3.21111E-33
9.74162E-01 3.04051E-33
9.75528E-01 2.87525E-33
9.76858E-01 2.71520E-33
9.78152E-01 2.56025E-33
9.79410E-01 2.41027E-33
9.80631E-01 2.26518E-33
9.81815E-01 2.12491E-33
9.82963E-01 1.98938E-33
9.84074E-01 1.85852E-33
9.85148E-01 1.73228E-33
9.86185E-01 1.61063E-33
9.87185E-01 1.49351E-33
9.88148E-01 1.38091E-33
9.89074E-01 1.27278E-33
9.89962E-01 1.16910E-33
9.90814E-01 1.06987E-33
9.91627E-01 9.75066E-34
9.92404E-01 8.84673E-34
9.93143E-01 7.98686E-34
9.93844E-01 7.17096E-34
9.94508E-01 6.39901E-34
9.95134E-01 5.67102E-34
9.95722E-01 4.98693E-34
9.96273E-01 4.34680E-34
9.96786E-01 3.75063E-34
9.97261E-01 3.19842E-34
9.97698E-01 2.69021E-34
9.98097E-01 2.22604E-34
9.98459E-01 1.80594E-34
9.98782E-01 1.42995E-34
9.99067E-01 1.09808E-34
9.99315E-01 8.10431E-35
9.99524E-01 5.66968E-35
9.99695E-01 3.67714E-35
9.99829E-01 2.12708E-35
9.99924E-01 1.01981E-35
9.99981E-01 3.55389E-36
1.00000E+00 1.33968E-36
