 #
 # Subroutine ELSEPA. Elastic scattering of electrons and positrons
 #                    by neutral atoms and positive ions
 #
 # Projectile: positron
 # Kinetic energy = 5.00000E+06 eV = 1.83747E+05 a.u.
 #
 # WARNING: High-energy factorization with free-atom DF screening.
 #          Absorption, polarization and exchange corrections are
 #          switched off.
 #          Phase shifts are calculated for the bare nucleus.
 #          Scattering amplitudes are not evaluated.
 #
 # Element: Ra,  Z =  88,  atomic weight = 2.26025E+02 g/mol
 #
 # Nuclear model: Fermi distribution
 #                Average radius = 6.51783E-13 cm
 #                Skin thickness = 5.46000E-14 cm
 #
 # Number of electrons = 88
 #
 # Total elastic cross section = 1.12155E-17 cm**2 = 4.00511E-01 a0**2
 # 1st transport cross section = 3.01339E-22 cm**2 = 1.07610E-05 a0**2
 # 2nd transport cross section = 8.65701E-22 cm**2 = 3.09147E-05 a0**2
 #
 #
 # Differential cross section:                       MU=(1-COS(THETA))/2
 #
 #  THETA        MU          DCS          DCS        Sherman      error
 #  (deg)                 (cm**2/sr)   (a0**2/sr)    function
 #----------------------------------------------------------------------
0.00000E+00 4.61776E-12
7.61557E-13 4.61768E-12
1.18994E-12 4.61764E-12
1.71346E-12 4.61758E-12
2.33225E-12 4.61752E-12
3.04617E-12 4.61744E-12
3.85530E-12 4.61736E-12
4.75964E-12 4.61727E-12
5.75917E-12 4.61716E-12
6.85391E-12 4.61705E-12
8.04379E-12 4.61693E-12
9.32893E-12 4.61680E-12
1.07092E-11 4.61666E-12
1.21847E-11 4.61651E-12
1.37554E-11 4.61635E-12
1.54213E-11 4.61618E-12
1.71823E-11 4.61600E-12
1.90386E-11 4.61581E-12
2.09900E-11 4.61561E-12
2.30367E-11 4.61540E-12
2.51785E-11 4.61518E-12
2.74156E-11 4.61496E-12
2.97478E-11 4.61472E-12
3.21752E-11 4.61447E-12
3.46979E-11 4.61422E-12
3.73157E-11 4.61395E-12
4.00286E-11 4.61367E-12
4.28368E-11 4.61339E-12
4.57402E-11 4.61310E-12
4.87388E-11 4.61279E-12
5.18325E-11 4.61248E-12
5.50215E-11 4.61215E-12
5.83057E-11 4.61182E-12
6.16850E-11 4.61148E-12
6.51595E-11 4.61113E-12
6.87293E-11 4.61077E-12
7.23943E-11 4.61039E-12
7.61544E-11 4.61001E-12
1.18991E-10 4.60569E-12
1.71347E-10 4.60041E-12
2.33223E-10 4.59419E-12
3.04617E-10 4.58703E-12
3.85531E-10 4.57894E-12
4.75965E-10 4.56993E-12
5.75917E-10 4.56000E-12
6.85389E-10 4.54918E-12
8.04380E-10 4.53746E-12
9.32891E-10 4.52487E-12
1.07092E-09 4.51140E-12
1.21847E-09 4.49709E-12
1.37554E-09 4.48193E-12
1.54213E-09 4.46595E-12
1.71823E-09 4.44916E-12
1.90386E-09 4.43158E-12
2.09900E-09 4.41322E-12
2.30367E-09 4.39410E-12
2.51785E-09 4.37425E-12
2.74156E-09 4.35367E-12
2.97478E-09 4.33239E-12
3.21752E-09 4.31043E-12
3.46978E-09 4.28780E-12
3.73156E-09 4.26453E-12
4.00286E-09 4.24064E-12
4.28368E-09 4.21615E-12
4.57402E-09 4.19108E-12
4.87388E-09 4.16545E-12
5.18326E-09 4.13929E-12
5.50215E-09 4.11261E-12
5.83057E-09 4.08545E-12
6.16850E-09 4.05781E-12
6.51596E-09 4.02972E-12
6.87293E-09 4.00121E-12
7.23942E-09 3.97229E-12
7.61544E-09 3.94300E-12
1.18991E-08 3.63386E-12
1.71347E-08 3.30953E-12
2.33223E-08 2.98743E-12
3.04617E-08 2.68046E-12
3.85531E-08 2.39681E-12
4.75965E-08 2.14065E-12
5.75917E-08 1.91306E-12
6.85389E-08 1.71305E-12
8.04380E-08 1.53839E-12
9.32891E-08 1.38630E-12
1.07092E-07 1.25384E-12
1.21847E-07 1.13824E-12
1.37554E-07 1.03698E-12
1.54213E-07 9.47850E-13
1.71823E-07 8.69003E-13
1.90386E-07 7.98880E-13
2.09900E-07 7.36191E-13
2.30367E-07 6.79876E-13
2.51785E-07 6.29064E-13
2.74156E-07 5.83037E-13
2.97478E-07 5.41202E-13
3.21752E-07 5.03064E-13
3.46978E-07 4.68208E-13
3.73156E-07 4.36283E-13
4.00286E-07 4.06990E-13
4.28368E-07 3.80070E-13
4.57402E-07 3.55297E-13
4.87388E-07 3.32472E-13
5.18325E-07 3.11420E-13
5.50215E-07 2.91984E-13
5.83057E-07 2.74025E-13
6.16850E-07 2.57415E-13
6.51596E-07 2.42041E-13
6.87293E-07 2.27797E-13
7.23942E-07 2.14591E-13
7.61543E-07 2.02337E-13
1.18991E-06 1.17839E-13
1.71347E-06 7.38127E-14
2.33223E-06 4.87758E-14
3.04617E-06 3.35467E-14
3.85531E-06 2.38327E-14
4.75964E-06 1.74113E-14
5.75916E-06 1.30359E-14
6.85388E-06 9.97041E-15
8.04378E-06 7.76627E-15
9.32888E-06 6.14371E-15
1.07092E-05 4.92431E-15
1.21846E-05 3.99158E-15
1.37553E-05 3.26749E-15
1.54212E-05 2.69837E-15
1.71822E-05 2.24634E-15
1.90385E-05 1.88398E-15
2.09899E-05 1.59126E-15
2.30365E-05 1.35297E-15
2.51783E-05 1.15761E-15
2.74153E-05 9.96373E-16
2.97475E-05 8.62411E-16
3.21749E-05 7.50404E-16
3.46974E-05 6.56175E-16
3.73152E-05 5.76431E-16
4.00281E-05 5.08563E-16
4.28362E-05 4.50489E-16
4.57395E-05 4.00543E-16
4.87380E-05 3.57381E-16
5.18317E-05 3.19914E-16
5.50205E-05 2.87256E-16
5.83045E-05 2.58676E-16
6.16838E-05 2.33576E-16
6.51582E-05 2.11455E-16
6.87277E-05 1.91897E-16
7.23925E-05 1.74553E-16
7.61524E-05 1.59129E-16
9.21439E-05 1.12154E-16
1.09658E-04 8.13343E-17
1.28695E-04 6.04373E-17
1.49255E-04 4.58572E-17
1.71338E-04 3.54278E-17
1.94942E-04 2.78026E-17
2.20070E-04 2.21205E-17
2.46720E-04 1.78151E-17
2.74892E-04 1.45045E-17
3.04586E-04 1.19256E-17
3.35803E-04 9.89315E-18
3.68542E-04 8.27436E-18
4.02802E-04 6.97261E-18
4.38585E-04 5.91653E-18
4.75889E-04 5.05273E-18
5.14715E-04 4.34082E-18
5.55063E-04 3.74993E-18
5.96931E-04 3.25623E-18
6.40321E-04 2.84117E-18
6.85233E-04 2.49019E-18
7.31665E-04 2.19177E-18
7.79618E-04 1.93674E-18
8.29092E-04 1.71774E-18
8.80086E-04 1.52881E-18
9.32601E-04 1.36514E-18
9.86636E-04 1.22276E-18
1.04219E-03 1.09845E-18
1.09927E-03 9.89500E-19
1.15786E-03 8.93701E-19
1.21797E-03 8.09189E-19
1.27961E-03 7.34405E-19
1.34276E-03 6.68036E-19
1.40743E-03 6.08971E-19
1.47362E-03 5.56267E-19
1.54133E-03 5.09121E-19
1.61056E-03 4.66845E-19
1.68131E-03 4.28848E-19
1.75357E-03 3.94623E-19
1.82735E-03 3.63729E-19
1.90265E-03 3.35787E-19
1.97947E-03 3.10464E-19
2.05780E-03 2.87473E-19
2.13765E-03 2.66561E-19
2.21902E-03 2.47507E-19
2.30190E-03 2.30117E-19
2.38630E-03 2.14221E-19
2.47222E-03 1.99668E-19
2.55965E-03 1.86323E-19
2.64859E-03 1.74070E-19
2.73905E-03 1.62803E-19
2.83103E-03 1.52428E-19
2.92452E-03 1.42863E-19
3.01952E-03 1.34033E-19
3.11604E-03 1.25871E-19
3.21407E-03 1.18318E-19
3.31362E-03 1.11321E-19
3.41468E-03 1.04831E-19
3.51725E-03 9.88048E-20
3.62133E-03 9.32035E-20
3.72692E-03 8.79916E-20
3.83403E-03 8.31373E-20
3.94265E-03 7.86115E-20
4.05278E-03 7.43881E-20
4.16442E-03 7.04432E-20
4.27757E-03 6.67551E-20
4.39223E-03 6.33041E-20
4.50840E-03 6.00722E-20
4.62608E-03 5.70429E-20
4.74527E-03 5.42013E-20
4.86597E-03 5.15335E-20
4.98817E-03 4.90271E-20
5.11188E-03 4.66705E-20
5.23711E-03 4.44530E-20
5.36383E-03 4.23651E-20
5.49207E-03 4.03977E-20
5.62181E-03 3.85426E-20
5.75306E-03 3.67922E-20
5.88581E-03 3.51396E-20
6.02007E-03 3.35782E-20
6.15583E-03 3.21021E-20
6.29310E-03 3.07059E-20
6.43187E-03 2.93843E-20
6.57214E-03 2.81327E-20
6.71392E-03 2.69466E-20
6.85720E-03 2.58220E-20
7.00198E-03 2.47552E-20
7.14827E-03 2.37426E-20
7.29605E-03 2.27810E-20
7.44534E-03 2.18672E-20
7.59612E-03 2.09986E-20
7.97965E-03 1.90074E-20
8.37255E-03 1.72454E-20
8.77480E-03 1.56817E-20
9.18641E-03 1.42903E-20
9.60736E-03 1.30489E-20
1.00376E-02 1.19386E-20
1.04773E-02 1.09432E-20
1.09262E-02 1.00487E-20
1.13844E-02 9.24317E-21
1.18520E-02 8.51620E-21
1.23288E-02 7.85882E-21
1.28150E-02 7.26320E-21
1.33104E-02 6.72255E-21
1.38150E-02 6.23090E-21
1.43290E-02 5.78304E-21
1.48521E-02 5.37439E-21
1.53845E-02 5.00093E-21
1.59262E-02 4.65908E-21
1.64770E-02 4.34570E-21
1.70371E-02 4.05802E-21
1.76063E-02 3.79355E-21
1.81848E-02 3.55008E-21
1.87724E-02 3.32567E-21
1.93692E-02 3.11855E-21
1.99751E-02 2.92716E-21
2.05901E-02 2.75009E-21
2.12143E-02 2.58608E-21
2.18476E-02 2.43401E-21
2.24900E-02 2.29283E-21
2.31415E-02 2.16165E-21
2.38021E-02 2.03962E-21
2.44717E-02 1.92600E-21
2.51504E-02 1.82009E-21
2.58382E-02 1.72129E-21
2.65349E-02 1.62903E-21
2.72407E-02 1.54281E-21
2.79555E-02 1.46215E-21
2.86793E-02 1.38664E-21
2.94120E-02 1.31588E-21
3.01537E-02 1.24953E-21
3.09043E-02 1.18726E-21
3.16639E-02 1.12878E-21
3.24324E-02 1.07382E-21
3.32098E-02 1.02211E-21
3.39961E-02 9.73451E-22
3.47912E-02 9.27614E-22
3.55952E-02 8.84411E-22
3.64081E-02 8.43662E-22
3.72297E-02 8.05205E-22
3.80602E-02 7.68886E-22
3.88995E-02 7.34566E-22
3.97476E-02 7.02115E-22
4.06044E-02 6.71413E-22
4.14700E-02 6.42349E-22
4.23443E-02 6.14820E-22
4.32273E-02 5.88730E-22
4.41190E-02 5.63991E-22
4.50194E-02 5.40520E-22
4.59284E-02 5.18240E-22
4.68461E-02 4.97081E-22
4.87074E-02 4.57862E-22
5.06030E-02 4.22383E-22
5.25328E-02 3.90228E-22
5.44967E-02 3.61033E-22
5.64946E-02 3.34478E-22
5.85262E-02 3.10286E-22
6.05914E-02 2.88209E-22
6.26901E-02 2.68032E-22
6.48222E-02 2.49563E-22
6.69873E-02 2.32633E-22
6.91854E-02 2.17091E-22
7.14163E-02 2.02805E-22
7.36799E-02 1.89657E-22
7.59760E-02 1.77538E-22
7.83043E-02 1.66356E-22
8.06647E-02 1.56026E-22
8.30571E-02 1.46471E-22
8.54812E-02 1.37623E-22
8.79369E-02 1.29422E-22
9.04240E-02 1.21811E-22
9.29422E-02 1.14741E-22
9.54915E-02 1.08167E-22
9.80716E-02 1.02048E-22
1.00682E-01 9.63475E-23
1.03323E-01 9.10314E-23
1.05995E-01 8.60696E-23
1.08696E-01 8.14344E-23
1.11427E-01 7.71006E-23
1.14188E-01 7.30453E-23
1.16978E-01 6.92475E-23
1.19797E-01 6.56880E-23
1.22645E-01 6.23492E-23
1.25522E-01 5.92151E-23
1.28428E-01 5.62710E-23
1.31361E-01 5.35035E-23
1.34323E-01 5.09001E-23
1.37313E-01 4.84494E-23
1.40330E-01 4.61409E-23
1.43375E-01 4.39649E-23
1.46447E-01 4.19124E-23
1.49545E-01 3.99754E-23
1.52671E-01 3.81461E-23
1.55823E-01 3.64176E-23
1.59001E-01 3.47834E-23
1.62205E-01 3.32374E-23
1.65435E-01 3.17740E-23
1.68690E-01 3.03880E-23
1.71970E-01 2.90746E-23
1.75276E-01 2.78295E-23
1.78606E-01 2.66485E-23
1.81961E-01 2.55276E-23
1.85340E-01 2.44633E-23
1.88743E-01 2.34522E-23
1.92169E-01 2.24912E-23
1.95619E-01 2.15775E-23
1.99092E-01 2.07082E-23
2.02589E-01 1.98809E-23
2.06107E-01 1.90931E-23
2.09649E-01 1.83428E-23
2.13212E-01 1.76277E-23
2.16797E-01 1.69459E-23
2.20404E-01 1.62957E-23
2.24032E-01 1.56752E-23
2.27680E-01 1.50830E-23
2.31350E-01 1.45175E-23
2.35040E-01 1.39773E-23
2.38751E-01 1.34611E-23
2.42481E-01 1.29676E-23
2.46231E-01 1.24956E-23
2.50000E-01 1.20441E-23
2.53788E-01 1.16120E-23
2.57595E-01 1.11984E-23
2.61421E-01 1.08023E-23
2.65264E-01 1.04228E-23
2.69126E-01 1.00591E-23
2.73005E-01 9.71051E-24
2.76901E-01 9.37623E-24
2.80814E-01 9.05560E-24
2.84744E-01 8.74796E-24
2.88691E-01 8.45269E-24
2.92653E-01 8.16921E-24
2.96632E-01 7.89696E-24
3.00625E-01 7.63543E-24
3.04634E-01 7.38411E-24
3.08658E-01 7.14257E-24
3.12697E-01 6.91034E-24
3.16749E-01 6.68702E-24
3.20816E-01 6.47218E-24
3.24896E-01 6.26545E-24
3.28990E-01 6.06647E-24
3.33097E-01 5.87492E-24
3.37216E-01 5.69047E-24
3.41348E-01 5.51283E-24
3.45492E-01 5.34168E-24
3.49647E-01 5.17673E-24
3.53814E-01 5.01773E-24
3.57992E-01 4.86444E-24
3.62181E-01 4.71662E-24
3.66381E-01 4.57405E-24
3.70590E-01 4.43650E-24
3.74810E-01 4.30376E-24
3.79039E-01 4.17563E-24
3.83277E-01 4.05193E-24
3.87524E-01 3.93249E-24
3.91780E-01 3.81713E-24
3.96044E-01 3.70569E-24
4.00316E-01 3.59802E-24
4.04596E-01 3.49396E-24
4.08882E-01 3.39337E-24
4.13176E-01 3.29612E-24
4.17476E-01 3.20208E-24
4.21783E-01 3.11113E-24
4.26095E-01 3.02314E-24
4.30413E-01 2.93802E-24
4.34737E-01 2.85564E-24
4.39065E-01 2.77590E-24
4.43398E-01 2.69871E-24
4.47736E-01 2.62397E-24
4.52077E-01 2.55159E-24
4.56422E-01 2.48149E-24
4.60770E-01 2.41357E-24
4.65122E-01 2.34777E-24
4.69476E-01 2.28400E-24
4.73832E-01 2.22220E-24
4.78190E-01 2.16228E-24
4.82550E-01 2.10419E-24
4.86912E-01 2.04786E-24
4.91274E-01 1.99323E-24
4.95637E-01 1.94024E-24
5.00000E-01 1.88883E-24
5.04363E-01 1.83894E-24
5.08726E-01 1.79053E-24
5.13088E-01 1.74355E-24
5.17450E-01 1.69794E-24
5.21810E-01 1.65365E-24
5.26168E-01 1.61066E-24
5.30524E-01 1.56890E-24
5.34878E-01 1.52834E-24
5.39230E-01 1.48894E-24
5.43578E-01 1.45066E-24
5.47923E-01 1.41347E-24
5.52264E-01 1.37732E-24
5.56602E-01 1.34219E-24
5.60935E-01 1.30804E-24
5.65263E-01 1.27485E-24
5.69587E-01 1.24257E-24
5.73905E-01 1.21118E-24
5.78217E-01 1.18065E-24
5.82524E-01 1.15096E-24
5.86824E-01 1.12208E-24
5.91118E-01 1.09397E-24
5.95404E-01 1.06663E-24
5.99684E-01 1.04002E-24
6.03956E-01 1.01413E-24
6.08220E-01 9.88924E-25
6.12476E-01 9.64389E-25
6.16723E-01 9.40502E-25
6.20961E-01 9.17245E-25
6.25190E-01 8.94598E-25
6.29410E-01 8.72543E-25
6.33619E-01 8.51061E-25
6.37819E-01 8.30137E-25
6.42008E-01 8.09754E-25
6.46186E-01 7.89895E-25
6.50353E-01 7.70545E-25
6.54508E-01 7.51690E-25
6.58652E-01 7.33314E-25
6.62784E-01 7.15405E-25
6.66903E-01 6.97947E-25
6.71010E-01 6.80930E-25
6.75104E-01 6.64340E-25
6.79184E-01 6.48164E-25
6.83251E-01 6.32392E-25
6.87303E-01 6.17011E-25
6.91342E-01 6.02010E-25
6.95366E-01 5.87380E-25
6.99375E-01 5.73109E-25
7.03368E-01 5.59188E-25
7.07347E-01 5.45608E-25
7.11309E-01 5.32358E-25
7.15256E-01 5.19429E-25
7.19186E-01 5.06814E-25
7.23099E-01 4.94503E-25
7.26995E-01 4.82488E-25
7.30874E-01 4.70761E-25
7.34736E-01 4.59315E-25
7.38579E-01 4.48142E-25
7.42405E-01 4.37235E-25
7.46212E-01 4.26586E-25
7.50000E-01 4.16189E-25
7.53769E-01 4.06038E-25
7.57519E-01 3.96125E-25
7.61249E-01 3.86446E-25
7.64960E-01 3.76993E-25
7.68650E-01 3.67761E-25
7.72320E-01 3.58744E-25
7.75968E-01 3.49937E-25
7.79596E-01 3.41334E-25
7.83203E-01 3.32930E-25
7.86788E-01 3.24721E-25
7.90351E-01 3.16701E-25
7.93893E-01 3.08866E-25
7.97411E-01 3.01210E-25
8.00908E-01 2.93730E-25
8.04381E-01 2.86422E-25
8.07831E-01 2.79280E-25
8.11257E-01 2.72302E-25
8.14660E-01 2.65482E-25
8.18039E-01 2.58818E-25
8.21394E-01 2.52305E-25
8.24724E-01 2.45940E-25
8.28030E-01 2.39719E-25
8.31310E-01 2.33639E-25
8.34565E-01 2.27697E-25
8.37795E-01 2.21889E-25
8.40999E-01 2.16212E-25
8.44177E-01 2.10663E-25
8.47329E-01 2.05240E-25
8.50455E-01 1.99939E-25
8.53553E-01 1.94757E-25
8.56625E-01 1.89692E-25
8.59670E-01 1.84742E-25
8.62687E-01 1.79903E-25
8.65677E-01 1.75173E-25
8.68639E-01 1.70550E-25
8.71572E-01 1.66031E-25
8.74478E-01 1.61614E-25
8.77355E-01 1.57297E-25
8.80203E-01 1.53077E-25
8.83022E-01 1.48953E-25
8.85812E-01 1.44922E-25
8.88573E-01 1.40983E-25
8.91304E-01 1.37134E-25
8.94005E-01 1.33372E-25
8.96677E-01 1.29695E-25
8.99318E-01 1.26103E-25
9.01928E-01 1.22594E-25
9.04508E-01 1.19164E-25
9.07058E-01 1.15814E-25
9.09576E-01 1.12541E-25
9.12063E-01 1.09344E-25
9.14519E-01 1.06221E-25
9.16943E-01 1.03171E-25
9.19335E-01 1.00193E-25
9.21696E-01 9.72842E-26
9.24024E-01 9.44442E-26
9.26320E-01 9.16708E-26
9.28584E-01 8.89636E-26
9.30815E-01 8.63213E-26
9.33013E-01 8.37426E-26
9.35178E-01 8.12265E-26
9.37310E-01 7.87717E-26
9.39409E-01 7.63772E-26
9.41474E-01 7.40420E-26
9.43505E-01 7.17649E-26
9.45503E-01 6.95449E-26
9.47467E-01 6.73811E-26
9.49397E-01 6.52725E-26
9.51293E-01 6.32181E-26
9.53154E-01 6.12172E-26
9.54981E-01 5.92688E-26
9.56773E-01 5.73720E-26
9.58530E-01 5.55260E-26
9.60252E-01 5.37301E-26
9.61940E-01 5.19834E-26
9.63592E-01 5.02852E-26
9.65209E-01 4.86349E-26
9.66790E-01 4.70315E-26
9.68336E-01 4.54746E-26
9.69846E-01 4.39634E-26
9.71321E-01 4.24973E-26
9.72759E-01 4.10757E-26
9.74162E-01 3.96979E-26
9.75528E-01 3.83635E-26
9.76858E-01 3.70717E-26
9.78152E-01 3.58222E-26
9.79410E-01 3.46143E-26
9.80631E-01 3.34476E-26
9.81815E-01 3.23216E-26
9.82963E-01 3.12358E-26
9.84074E-01 3.01898E-26
9.85148E-01 2.91831E-26
9.86185E-01 2.82154E-26
9.87185E-01 2.72861E-26
9.88148E-01 2.63951E-26
9.89074E-01 2.55418E-26
9.89962E-01 2.47259E-26
9.90814E-01 2.39471E-26
9.91627E-01 2.32052E-26
9.92404E-01 2.24997E-26
9.93143E-01 2.18304E-26
9.93844E-01 2.11970E-26
9.94508E-01 2.05993E-26
9.95134E-01 2.00370E-26
9.95722E-01 1.95099E-26
9.96273E-01 1.90178E-26
9.96786E-01 1.85605E-26
9.97261E-01 1.81379E-26
9.97698E-01 1.77496E-26
9.98097E-01 1.73956E-26
9.98459E-01 1.70758E-26
9.98782E-01 1.67900E-26
9.99067E-01 1.65380E-26
9.99315E-01 1.63199E-26
9.99524E-01 1.61355E-26
9.99695E-01 1.59847E-26
9.99829E-01 1.58674E-26
9.99924E-01 1.57837E-26
9.99981E-01 1.57335E-26
1.00000E+00 1.57168E-26
