 #
 # Subroutine ELSEPA. Elastic scattering of electrons and positrons
 #                    by neutral atoms and positive ions
 #
 # Projectile: positron
 # Kinetic energy = 1.25000E+08 eV = 4.59367E+06 a.u.
 #
 # WARNING: High-energy factorization with free-atom DF screening.
 #          Absorption, polarization and exchange corrections are
 #          switched off.
 #          Phase shifts are calculated for the bare nucleus.
 #          Scattering amplitudes are not evaluated.
 #
 # Element: Ra,  Z =  88,  atomic weight = 2.26025E+02 g/mol
 #
 # Nuclear model: Fermi distribution
 #                Average radius = 6.51783E-13 cm
 #                Skin thickness = 5.46000E-14 cm
 #
 # Number of electrons = 88
 #
 # Total elastic cross section = 1.11184E-17 cm**2 = 3.97047E-01 a0**2
 # 1st transport cross section = 8.90873E-25 cm**2 = 3.18137E-08 a0**2
 # 2nd transport cross section = 2.65576E-24 cm**2 = 9.48390E-08 a0**2
 #
 #
 # Differential cross section:                       MU=(1-COS(THETA))/2
 #
 #  THETA        MU          DCS          DCS        Sherman      error
 #  (deg)                 (cm**2/sr)   (a0**2/sr)    function
 #----------------------------------------------------------------------
0.00000E+00 2.39516E-09
7.61557E-13 2.37439E-09
1.18994E-12 2.36286E-09
1.71346E-12 2.34888E-09
2.33225E-12 2.33255E-09
3.04617E-12 2.31394E-09
3.85530E-12 2.29314E-09
4.75964E-12 2.27027E-09
5.75917E-12 2.24544E-09
6.85391E-12 2.21876E-09
8.04379E-12 2.19036E-09
9.32893E-12 2.16038E-09
1.07092E-11 2.12894E-09
1.21847E-11 2.09619E-09
1.37554E-11 2.06226E-09
1.54213E-11 2.02753E-09
1.71823E-11 1.99197E-09
1.90386E-11 1.95538E-09
2.09900E-11 1.91788E-09
2.30367E-11 1.87976E-09
2.51785E-11 1.84207E-09
2.74156E-11 1.80380E-09
2.97478E-11 1.76504E-09
3.21752E-11 1.72590E-09
3.46979E-11 1.68762E-09
3.73157E-11 1.64947E-09
4.00286E-11 1.61119E-09
4.28368E-11 1.57286E-09
4.57402E-11 1.53518E-09
4.87388E-11 1.49854E-09
5.18325E-11 1.46203E-09
5.50215E-11 1.42571E-09
5.83057E-11 1.38967E-09
6.16850E-11 1.35546E-09
6.51595E-11 1.32155E-09
6.87293E-11 1.28799E-09
7.23943E-11 1.25482E-09
7.61544E-11 1.22302E-09
1.18991E-10 9.46020E-10
1.71347E-10 7.40190E-10
2.33223E-10 5.89938E-10
3.04617E-10 4.79085E-10
3.85531E-10 3.95009E-10
4.75965E-10 3.29600E-10
5.75917E-10 2.77513E-10
6.85389E-10 2.35329E-10
8.04380E-10 2.00799E-10
9.32891E-10 1.72289E-10
1.07092E-09 1.48554E-10
1.21847E-09 1.28748E-10
1.37554E-09 1.12143E-10
1.54213E-09 9.77165E-11
1.71823E-09 8.54976E-11
1.90386E-09 7.54798E-11
2.09900E-09 6.71921E-11
2.30367E-09 6.01462E-11
2.51785E-09 5.35099E-11
2.74156E-09 4.79295E-11
2.97478E-09 4.32034E-11
3.21752E-09 3.91740E-11
3.46978E-09 3.53930E-11
3.73156E-09 3.20563E-11
4.00286E-09 2.91771E-11
4.28368E-09 2.66796E-11
4.57402E-09 2.44112E-11
4.87388E-09 2.23010E-11
5.18326E-09 2.04528E-11
5.50215E-09 1.88272E-11
5.83057E-09 1.73886E-11
6.16850E-09 1.60002E-11
6.51596E-09 1.47692E-11
6.87293E-09 1.36740E-11
7.23942E-09 1.26964E-11
7.61544E-09 1.17792E-11
1.18991E-08 6.00283E-12
1.71347E-08 3.39989E-12
2.33223E-08 2.07136E-12
3.04617E-08 1.32754E-12
3.85531E-08 8.87455E-13
4.75965E-08 6.14150E-13
5.75917E-08 4.39105E-13
6.85389E-08 3.22583E-13
8.04380E-08 2.42456E-13
9.32891E-08 1.85909E-13
1.07092E-07 1.45038E-13
1.21847E-07 1.14859E-13
1.37554E-07 9.21487E-14
1.54213E-07 7.47314E-14
1.71823E-07 6.13184E-14
1.90386E-07 5.07616E-14
2.09900E-07 4.24309E-14
2.30367E-07 3.57045E-14
2.51785E-07 3.02895E-14
2.74156E-07 2.58564E-14
2.97478E-07 2.22115E-14
3.21752E-07 1.91908E-14
3.46978E-07 1.66619E-14
3.73156E-07 1.45437E-14
4.00286E-07 1.27437E-14
4.28368E-07 1.12183E-14
4.57402E-07 9.91178E-15
4.87388E-07 8.79027E-15
5.18325E-07 7.82312E-15
5.50215E-07 6.98375E-15
5.83057E-07 6.25542E-15
6.16850E-07 5.61738E-15
6.51596E-07 5.05963E-15
6.87293E-07 4.56874E-15
7.23942E-07 4.13601E-15
7.61543E-07 3.75341E-15
1.18991E-06 1.58827E-15
1.71347E-06 7.83724E-16
2.33223E-06 4.30280E-16
3.04617E-06 2.55404E-16
3.85531E-06 1.60943E-16
4.75964E-06 1.06345E-16
5.75916E-06 7.30375E-17
6.85388E-06 5.17984E-17
8.04378E-06 3.77450E-17
9.32888E-06 2.81493E-17
1.07092E-05 2.14179E-17
1.21846E-05 1.65835E-17
1.37553E-05 1.30394E-17
1.54212E-05 1.03935E-17
1.71822E-05 8.38594E-18
1.90385E-05 6.83572E-18
2.09899E-05 5.63584E-18
2.30365E-05 4.68698E-18
2.51783E-05 3.92828E-18
2.74153E-05 3.31600E-18
2.97475E-05 2.81797E-18
3.21749E-05 2.40997E-18
3.46974E-05 2.07342E-18
3.73152E-05 1.79386E-18
4.00281E-05 1.56004E-18
4.28362E-05 1.36317E-18
4.57395E-05 1.19637E-18
4.87380E-05 1.05424E-18
5.18317E-05 9.32516E-19
5.50205E-05 8.27809E-19
5.83045E-05 7.37366E-19
6.16838E-05 6.58942E-19
6.51582E-05 5.90682E-19
6.87277E-05 5.31046E-19
7.23925E-05 4.78755E-19
7.61524E-05 4.32807E-19
9.21439E-05 2.95812E-19
1.09658E-04 2.08945E-19
1.28695E-04 1.51739E-19
1.49255E-04 1.12825E-19
1.71338E-04 8.56168E-20
1.94942E-04 6.61334E-20
2.20070E-04 5.18866E-20
2.46720E-04 4.12753E-20
2.74892E-04 3.32420E-20
3.04586E-04 2.70697E-20
3.35803E-04 2.22652E-20
3.68542E-04 1.84800E-20
4.02802E-04 1.54656E-20
4.38585E-04 1.30411E-20
4.75889E-04 1.10732E-20
5.14715E-04 9.46275E-21
5.55063E-04 8.13439E-21
5.96931E-04 7.03099E-21
6.40321E-04 6.10833E-21
6.85233E-04 5.33203E-21
7.31665E-04 4.67514E-21
7.79618E-04 4.11624E-21
8.29092E-04 3.63834E-21
8.80086E-04 3.22773E-21
9.32601E-04 2.87338E-21
9.86636E-04 2.56629E-21
1.04219E-03 2.29909E-21
1.09927E-03 2.06573E-21
1.15786E-03 1.86118E-21
1.21797E-03 1.68130E-21
1.27961E-03 1.52260E-21
1.34276E-03 1.38215E-21
1.40743E-03 1.25750E-21
1.47362E-03 1.14656E-21
1.54133E-03 1.04757E-21
1.61056E-03 9.59018E-22
1.68131E-03 8.79617E-22
1.75357E-03 8.08281E-22
1.82735E-03 7.43951E-22
1.90265E-03 6.85860E-22
1.97947E-03 6.33309E-22
2.05780E-03 5.85678E-22
2.13765E-03 5.42425E-22
2.21902E-03 5.03075E-22
2.30190E-03 4.67214E-22
2.38630E-03 4.34478E-22
2.47222E-03 4.04546E-22
2.55965E-03 3.77134E-22
2.64859E-03 3.51994E-22
2.73905E-03 3.28902E-22
2.83103E-03 3.07662E-22
2.92452E-03 2.88098E-22
3.01952E-03 2.70056E-22
3.11604E-03 2.53395E-22
3.21407E-03 2.37990E-22
3.31362E-03 2.23729E-22
3.41468E-03 2.10513E-22
3.51725E-03 1.98251E-22
3.62133E-03 1.86862E-22
3.72692E-03 1.76272E-22
3.83403E-03 1.66415E-22
3.94265E-03 1.57231E-22
4.05278E-03 1.48666E-22
4.16442E-03 1.40671E-22
4.27757E-03 1.33200E-22
4.39223E-03 1.26214E-22
4.50840E-03 1.19675E-22
4.62608E-03 1.13549E-22
4.74527E-03 1.07806E-22
4.86597E-03 1.02416E-22
4.98817E-03 9.73557E-23
5.11188E-03 9.25997E-23
5.23711E-03 8.81269E-23
5.36383E-03 8.39172E-23
5.49207E-03 7.99523E-23
5.62181E-03 7.62156E-23
5.75306E-03 7.26914E-23
5.88581E-03 6.93655E-23
6.02007E-03 6.62247E-23
6.15583E-03 6.32568E-23
6.29310E-03 6.04506E-23
6.43187E-03 5.77956E-23
6.57214E-03 5.52823E-23
6.71392E-03 5.29018E-23
6.85720E-03 5.06456E-23
7.00198E-03 4.85063E-23
7.14827E-03 4.64765E-23
7.29605E-03 4.45498E-23
7.44534E-03 4.27199E-23
7.59612E-03 4.09810E-23
7.97965E-03 3.69982E-23
8.37255E-03 3.34778E-23
8.77480E-03 3.03575E-23
9.18641E-03 2.75842E-23
9.60736E-03 2.51129E-23
1.00376E-02 2.29055E-23
1.04773E-02 2.09290E-23
1.09262E-02 1.91553E-23
1.13844E-02 1.75603E-23
1.18520E-02 1.61229E-23
1.23288E-02 1.48251E-23
1.28150E-02 1.36510E-23
1.33104E-02 1.25870E-23
1.38150E-02 1.16210E-23
1.43290E-02 1.07426E-23
1.48521E-02 9.94255E-24
1.53845E-02 9.21269E-24
1.59262E-02 8.54589E-24
1.64770E-02 7.93584E-24
1.70371E-02 7.37692E-24
1.76063E-02 6.86418E-24
1.81848E-02 6.39318E-24
1.87724E-02 5.96000E-24
1.93692E-02 5.56112E-24
1.99751E-02 5.19340E-24
2.05901E-02 4.85402E-24
2.12143E-02 4.54046E-24
2.18476E-02 4.25046E-24
2.24900E-02 3.98196E-24
2.31415E-02 3.73313E-24
2.38021E-02 3.50231E-24
2.44717E-02 3.28800E-24
2.51504E-02 3.08884E-24
2.58382E-02 2.90359E-24
2.65349E-02 2.73114E-24
2.72407E-02 2.57048E-24
2.79555E-02 2.42068E-24
2.86793E-02 2.28089E-24
2.94120E-02 2.15036E-24
3.01537E-02 2.02837E-24
3.09043E-02 1.91430E-24
3.16639E-02 1.80754E-24
3.24324E-02 1.70758E-24
3.32098E-02 1.61390E-24
3.39961E-02 1.52607E-24
3.47912E-02 1.44366E-24
3.55952E-02 1.36630E-24
3.64081E-02 1.29363E-24
3.72297E-02 1.22533E-24
3.80602E-02 1.16110E-24
3.88995E-02 1.10067E-24
3.97476E-02 1.04379E-24
4.06044E-02 9.90203E-25
4.14700E-02 9.39710E-25
4.23443E-02 8.92106E-25
4.32273E-02 8.47202E-25
4.41190E-02 8.04827E-25
4.50194E-02 7.64821E-25
4.59284E-02 7.27033E-25
4.68461E-02 6.91325E-25
4.87074E-02 6.25646E-25
5.06030E-02 5.66856E-25
5.25328E-02 5.14150E-25
5.44967E-02 4.66830E-25
5.64946E-02 4.24285E-25
5.85262E-02 3.85981E-25
6.05914E-02 3.51451E-25
6.26901E-02 3.20285E-25
6.48222E-02 2.92122E-25
6.69873E-02 2.66644E-25
6.91854E-02 2.43570E-25
7.14163E-02 2.22651E-25
7.36799E-02 2.03668E-25
7.59760E-02 1.86425E-25
7.83043E-02 1.70748E-25
8.06647E-02 1.56483E-25
8.30571E-02 1.43492E-25
8.54812E-02 1.31651E-25
8.79369E-02 1.20850E-25
9.04240E-02 1.10991E-25
9.29422E-02 1.01985E-25
9.54915E-02 9.37527E-26
9.80716E-02 8.62229E-26
1.00682E-01 7.93313E-26
1.03323E-01 7.30200E-26
1.05995E-01 6.72367E-26
1.08696E-01 6.19345E-26
1.11427E-01 5.70707E-26
1.14188E-01 5.26067E-26
1.16978E-01 4.85078E-26
1.19797E-01 4.47422E-26
1.22645E-01 4.12814E-26
1.25522E-01 3.80992E-26
1.28428E-01 3.51721E-26
1.31361E-01 3.24785E-26
1.34323E-01 2.99988E-26
1.37313E-01 2.77152E-26
1.40330E-01 2.56115E-26
1.43375E-01 2.36728E-26
1.46447E-01 2.18856E-26
1.49545E-01 2.02376E-26
1.52671E-01 1.87174E-26
1.55823E-01 1.73147E-26
1.59001E-01 1.60202E-26
1.62205E-01 1.48251E-26
1.65435E-01 1.37215E-26
1.68690E-01 1.27022E-26
1.71970E-01 1.17605E-26
1.75276E-01 1.08903E-26
1.78606E-01 1.00860E-26
1.81961E-01 9.34249E-27
1.85340E-01 8.65499E-27
1.88743E-01 8.01918E-27
1.92169E-01 7.43107E-27
1.95619E-01 6.88697E-27
1.99092E-01 6.38352E-27
2.02589E-01 5.91760E-27
2.06107E-01 5.48634E-27
2.09649E-01 5.08711E-27
2.13212E-01 4.71747E-27
2.16797E-01 4.37519E-27
2.20404E-01 4.05820E-27
2.24032E-01 3.76459E-27
2.27680E-01 3.49260E-27
2.31350E-01 3.24061E-27
2.35040E-01 3.00713E-27
2.38751E-01 2.79076E-27
2.42481E-01 2.59024E-27
2.46231E-01 2.40439E-27
2.50000E-01 2.23211E-27
2.53788E-01 2.07240E-27
2.57595E-01 1.92432E-27
2.61421E-01 1.78702E-27
2.65264E-01 1.65971E-27
2.69126E-01 1.54163E-27
2.73005E-01 1.43213E-27
2.76901E-01 1.33055E-27
2.80814E-01 1.23633E-27
2.84744E-01 1.14892E-27
2.88691E-01 1.06783E-27
2.92653E-01 9.92581E-28
2.96632E-01 9.22760E-28
3.00625E-01 8.57967E-28
3.04634E-01 7.97834E-28
3.08658E-01 7.42023E-28
3.12697E-01 6.90218E-28
3.16749E-01 6.42128E-28
3.20816E-01 5.97483E-28
3.24896E-01 5.56033E-28
3.28990E-01 5.17546E-28
3.33097E-01 4.81806E-28
3.37216E-01 4.48616E-28
3.41348E-01 4.17790E-28
3.45492E-01 3.89158E-28
3.49647E-01 3.62560E-28
3.53814E-01 3.37850E-28
3.57992E-01 3.14891E-28
3.62181E-01 2.93558E-28
3.66381E-01 2.73733E-28
3.70590E-01 2.55307E-28
3.74810E-01 2.38179E-28
3.79039E-01 2.22257E-28
3.83277E-01 2.07453E-28
3.87524E-01 1.93688E-28
3.91780E-01 1.80886E-28
3.96044E-01 1.68979E-28
4.00316E-01 1.57903E-28
4.04596E-01 1.47597E-28
4.08882E-01 1.38007E-28
4.13176E-01 1.29082E-28
4.17476E-01 1.20774E-28
4.21783E-01 1.13040E-28
4.26095E-01 1.05837E-28
4.30413E-01 9.91294E-29
4.34737E-01 9.28806E-29
4.39065E-01 8.70584E-29
4.43398E-01 8.16325E-29
4.47736E-01 7.65749E-29
4.52077E-01 7.18593E-29
4.56422E-01 6.74617E-29
4.60770E-01 6.33596E-29
4.65122E-01 5.95322E-29
4.69476E-01 5.59600E-29
4.73832E-01 5.26252E-29
4.78190E-01 4.95112E-29
4.82550E-01 4.66023E-29
4.86912E-01 4.38844E-29
4.91274E-01 4.13440E-29
4.95637E-01 3.89688E-29
5.00000E-01 3.67473E-29
5.04363E-01 3.46688E-29
5.08726E-01 3.27235E-29
5.13088E-01 3.09022E-29
5.17450E-01 2.91963E-29
5.21810E-01 2.75979E-29
5.26168E-01 2.60996E-29
5.30524E-01 2.46946E-29
5.34878E-01 2.33766E-29
5.39230E-01 2.21396E-29
5.43578E-01 2.09782E-29
5.47923E-01 1.98872E-29
5.52264E-01 1.88620E-29
5.56602E-01 1.78981E-29
5.60935E-01 1.69915E-29
5.65263E-01 1.61384E-29
5.69587E-01 1.53352E-29
5.73905E-01 1.45786E-29
5.78217E-01 1.38656E-29
5.82524E-01 1.31933E-29
5.86824E-01 1.25592E-29
5.91118E-01 1.19606E-29
5.95404E-01 1.13955E-29
5.99684E-01 1.08616E-29
6.03956E-01 1.03569E-29
6.08220E-01 9.87960E-30
6.12476E-01 9.42801E-30
6.16723E-01 9.00050E-30
6.20961E-01 8.59558E-30
6.25190E-01 8.21187E-30
6.29410E-01 7.84807E-30
6.33619E-01 7.50296E-30
6.37819E-01 7.17544E-30
6.42008E-01 6.86444E-30
6.46186E-01 6.56898E-30
6.50353E-01 6.28816E-30
6.54508E-01 6.02111E-30
6.58652E-01 5.76704E-30
6.62784E-01 5.52521E-30
6.66903E-01 5.29491E-30
6.71010E-01 5.07551E-30
6.75104E-01 4.86638E-30
6.79184E-01 4.66695E-30
6.83251E-01 4.47671E-30
6.87303E-01 4.29513E-30
6.91342E-01 4.12177E-30
6.95366E-01 3.95617E-30
6.99375E-01 3.79793E-30
7.03368E-01 3.64667E-30
7.07347E-01 3.50201E-30
7.11309E-01 3.36363E-30
7.15256E-01 3.23120E-30
7.19186E-01 3.10441E-30
7.23099E-01 2.98300E-30
7.26995E-01 2.86669E-30
7.30874E-01 2.75524E-30
7.34736E-01 2.64840E-30
7.38579E-01 2.54597E-30
7.42405E-01 2.44772E-30
7.46212E-01 2.35346E-30
7.50000E-01 2.26301E-30
7.53769E-01 2.17619E-30
7.57519E-01 2.09283E-30
7.61249E-01 2.01278E-30
7.64960E-01 1.93589E-30
7.68650E-01 1.86201E-30
7.72320E-01 1.79103E-30
7.75968E-01 1.72280E-30
7.79596E-01 1.65721E-30
7.83203E-01 1.59415E-30
7.86788E-01 1.53350E-30
7.90351E-01 1.47518E-30
7.93893E-01 1.41907E-30
7.97411E-01 1.36509E-30
8.00908E-01 1.31315E-30
8.04381E-01 1.26317E-30
8.07831E-01 1.21506E-30
8.11257E-01 1.16876E-30
8.14660E-01 1.12418E-30
8.18039E-01 1.08127E-30
8.21394E-01 1.03994E-30
8.24724E-01 1.00015E-30
8.28030E-01 9.61836E-31
8.31310E-01 9.24932E-31
8.34565E-01 8.89388E-31
8.37795E-01 8.55151E-31
8.40999E-01 8.22172E-31
8.44177E-01 7.90402E-31
8.47329E-01 7.59796E-31
8.50455E-01 7.30310E-31
8.53553E-01 7.01902E-31
8.56625E-01 6.74531E-31
8.59670E-01 6.48159E-31
8.62687E-01 6.22748E-31
8.65677E-01 5.98263E-31
8.68639E-01 5.74670E-31
8.71572E-01 5.51936E-31
8.74478E-01 5.30030E-31
8.77355E-01 5.08921E-31
8.80203E-01 4.88580E-31
8.83022E-01 4.68979E-31
8.85812E-01 4.50092E-31
8.88573E-01 4.31892E-31
8.91304E-01 4.14355E-31
8.94005E-01 3.97457E-31
8.96677E-01 3.81174E-31
8.99318E-01 3.65486E-31
9.01928E-01 3.50369E-31
9.04508E-01 3.35805E-31
9.07058E-01 3.21772E-31
9.09576E-01 3.08253E-31
9.12063E-01 2.95229E-31
9.14519E-01 2.82682E-31
9.16943E-01 2.70596E-31
9.19335E-01 2.58953E-31
9.21696E-01 2.47739E-31
9.24024E-01 2.36938E-31
9.26320E-01 2.26535E-31
9.28584E-01 2.16517E-31
9.30815E-01 2.06869E-31
9.33013E-01 1.97580E-31
9.35178E-01 1.88636E-31
9.37310E-01 1.80025E-31
9.39409E-01 1.71735E-31
9.41474E-01 1.63756E-31
9.43505E-01 1.56076E-31
9.45503E-01 1.48685E-31
9.47467E-01 1.41573E-31
9.49397E-01 1.34730E-31
9.51293E-01 1.28147E-31
9.53154E-01 1.21815E-31
9.54981E-01 1.15726E-31
9.56773E-01 1.09870E-31
9.58530E-01 1.04241E-31
9.60252E-01 9.88293E-32
9.61940E-01 9.36288E-32
9.63592E-01 8.86320E-32
9.65209E-01 8.38320E-32
9.66790E-01 7.92223E-32
9.68336E-01 7.47965E-32
9.69846E-01 7.05484E-32
9.71321E-01 6.64723E-32
9.72759E-01 6.25624E-32
9.74162E-01 5.88134E-32
9.75528E-01 5.52201E-32
9.76858E-01 5.17774E-32
9.78152E-01 4.84807E-32
9.79410E-01 4.53253E-32
9.80631E-01 4.23068E-32
9.81815E-01 3.94210E-32
9.82963E-01 3.66639E-32
9.84074E-01 3.40317E-32
9.85148E-01 3.15206E-32
9.86185E-01 2.91271E-32
9.87185E-01 2.68480E-32
9.88148E-01 2.46800E-32
9.89074E-01 2.26200E-32
9.89962E-01 2.06652E-32
9.90814E-01 1.88127E-32
9.91627E-01 1.70602E-32
9.92404E-01 1.54049E-32
9.93143E-01 1.38446E-32
9.93844E-01 1.23771E-32
9.94508E-01 1.10004E-32
9.95134E-01 9.71238E-33
9.95722E-01 8.51136E-33
9.96273E-01 7.39560E-33
9.96786E-01 6.36353E-33
9.97261E-01 5.41366E-33
9.97698E-01 4.54467E-33
9.98097E-01 3.75532E-33
9.98459E-01 3.04448E-33
9.98782E-01 2.41115E-33
9.99067E-01 1.85443E-33
9.99315E-01 1.37354E-33
9.99524E-01 9.67781E-34
9.99695E-01 6.36575E-34
9.99829E-01 3.79455E-34
9.99924E-01 1.96060E-34
9.99981E-01 8.61265E-35
1.00000E+00 4.95036E-35
