 #
 # Subroutine ELSEPA. Elastic scattering of electrons and positrons
 #                    by neutral atoms and positive ions
 #
 # Projectile: positron
 # Kinetic energy = 7.00000E+07 eV = 2.57245E+06 a.u.
 #
 # WARNING: High-energy factorization with free-atom DF screening.
 #          Absorption, polarization and exchange corrections are
 #          switched off.
 #          Phase shifts are calculated for the bare nucleus.
 #          Scattering amplitudes are not evaluated.
 #
 # Element: Ra,  Z =  88,  atomic weight = 2.26025E+02 g/mol
 #
 # Nuclear model: Fermi distribution
 #                Average radius = 6.51783E-13 cm
 #                Skin thickness = 5.46000E-14 cm
 #
 # Number of electrons = 88
 #
 # Total elastic cross section = 1.11181E-17 cm**2 = 3.97035E-01 a0**2
 # 1st transport cross section = 2.73854E-24 cm**2 = 9.77949E-08 a0**2
 # 2nd transport cross section = 8.08367E-24 cm**2 = 2.88673E-07 a0**2
 #
 #
 # Differential cross section:                       MU=(1-COS(THETA))/2
 #
 #  THETA        MU          DCS          DCS        Sherman      error
 #  (deg)                 (cm**2/sr)   (a0**2/sr)    function
 #----------------------------------------------------------------------
0.00000E+00 7.55936E-10
7.61557E-13 7.53853E-10
1.18994E-12 7.52689E-10
1.71346E-12 7.51270E-10
2.33225E-12 7.49598E-10
3.04617E-12 7.47678E-10
3.85530E-12 7.45513E-10
4.75964E-12 7.43104E-10
5.75917E-12 7.40458E-10
6.85391E-12 7.37577E-10
8.04379E-12 7.34468E-10
9.32893E-12 7.31134E-10
1.07092E-11 7.27582E-10
1.21847E-11 7.23817E-10
1.37554E-11 7.19844E-10
1.54213E-11 7.15671E-10
1.71823E-11 7.11303E-10
1.90386E-11 7.06748E-10
2.09900E-11 7.02011E-10
2.30367E-11 6.97102E-10
2.51785E-11 6.92026E-10
2.74156E-11 6.86790E-10
2.97478E-11 6.81403E-10
3.21752E-11 6.75872E-10
3.46979E-11 6.70204E-10
3.73157E-11 6.64406E-10
4.00286E-11 6.58489E-10
4.28368E-11 6.52458E-10
4.57402E-11 6.46321E-10
4.87388E-11 6.40161E-10
5.18325E-11 6.33902E-10
5.50215E-11 6.27535E-10
5.83057E-11 6.21068E-10
6.16850E-11 6.14506E-10
6.51595E-11 6.07856E-10
6.87293E-11 6.01123E-10
7.23943E-11 5.94335E-10
7.61544E-11 5.87687E-10
1.18991E-10 5.19512E-10
1.71347E-10 4.53319E-10
2.33223E-10 3.92660E-10
3.04617E-10 3.39769E-10
3.85531E-10 2.94374E-10
4.75965E-10 2.56011E-10
5.75917E-10 2.23935E-10
6.85389E-10 1.97109E-10
8.04380E-10 1.74507E-10
9.32891E-10 1.55357E-10
1.07092E-09 1.39018E-10
1.21847E-09 1.24934E-10
1.37554E-09 1.12704E-10
1.54213E-09 1.01995E-10
1.71823E-09 9.25511E-11
1.90386E-09 8.41939E-11
2.09900E-09 7.67666E-11
2.30367E-09 7.01116E-11
2.51785E-09 6.41572E-11
2.74156E-09 5.88174E-11
2.97478E-09 5.40085E-11
3.21752E-09 4.96677E-11
3.46978E-09 4.57541E-11
3.73156E-09 4.22194E-11
4.00286E-09 3.90100E-11
4.28368E-09 3.61028E-11
4.57402E-09 3.34660E-11
4.87388E-09 3.09378E-11
5.18326E-09 2.86648E-11
5.50215E-09 2.66365E-11
5.83057E-09 2.48214E-11
6.16850E-09 2.31923E-11
6.51596E-09 2.17260E-11
6.87293E-09 2.04028E-11
7.23942E-09 1.91908E-11
7.61544E-09 1.79489E-11
1.18991E-08 1.00305E-11
1.71347E-08 6.08551E-12
2.33223E-08 3.91383E-12
3.04617E-08 2.62286E-12
3.85531E-08 1.83053E-12
4.75965E-08 1.32059E-12
5.75917E-08 9.77358E-13
6.85389E-08 7.38418E-13
8.04380E-08 5.68144E-13
9.32891E-08 4.43925E-13
1.07092E-07 3.51201E-13
1.21847E-07 2.81299E-13
1.37554E-07 2.27719E-13
1.54213E-07 1.86367E-13
1.71823E-07 1.54069E-13
1.90386E-07 1.28558E-13
2.09900E-07 1.08161E-13
2.30367E-07 9.16474E-14
2.51785E-07 7.81923E-14
2.74156E-07 6.71432E-14
2.97478E-07 5.79957E-14
3.21752E-07 5.03660E-14
3.46978E-07 4.39625E-14
3.73156E-07 3.85513E-14
4.00286E-07 3.39440E-14
4.28368E-07 3.00064E-14
4.57402E-07 2.66256E-14
4.87388E-07 2.36909E-14
5.18325E-07 2.11630E-14
5.50215E-07 1.89791E-14
5.83057E-07 1.70555E-14
6.16850E-07 1.53720E-14
6.51596E-07 1.39001E-14
6.87293E-07 1.25946E-14
7.23942E-07 1.14383E-14
7.61543E-07 1.04172E-14
1.18991E-06 4.53366E-15
1.71347E-06 2.27688E-15
2.33223E-06 1.26378E-15
3.04617E-06 7.56165E-16
3.85531E-06 4.79801E-16
4.75964E-06 3.19048E-16
5.75916E-06 2.20386E-16
6.85388E-06 1.57099E-16
8.04378E-06 1.14979E-16
9.32888E-06 8.60654E-17
1.07092E-05 6.56833E-17
1.21846E-05 5.09852E-17
1.37553E-05 4.01722E-17
1.54212E-05 3.20759E-17
1.71822E-05 2.59178E-17
1.90385E-05 2.11525E-17
2.09899E-05 1.74581E-17
2.30365E-05 1.45325E-17
2.51783E-05 1.21902E-17
2.74153E-05 1.02980E-17
2.97475E-05 8.75743E-18
3.21749E-05 7.49436E-18
3.46974E-05 6.45168E-18
3.73152E-05 5.58502E-18
4.00281E-05 4.85971E-18
4.28362E-05 4.24866E-18
4.57395E-05 3.73065E-18
4.87380E-05 3.28902E-18
5.18317E-05 2.91062E-18
5.50205E-05 2.58497E-18
5.83045E-05 2.30355E-18
6.16838E-05 2.05940E-18
6.51582E-05 1.84681E-18
6.87277E-05 1.66101E-18
7.23925E-05 1.49801E-18
7.61524E-05 1.35450E-18
9.21439E-05 9.26915E-19
1.09658E-04 6.55408E-19
1.28695E-04 4.76385E-19
1.49255E-04 3.54475E-19
1.71338E-04 2.69155E-19
1.94942E-04 2.08008E-19
2.20070E-04 1.63264E-19
2.46720E-04 1.29918E-19
2.74892E-04 1.04659E-19
3.04586E-04 8.52425E-20
3.35803E-04 7.01232E-20
3.68542E-04 5.82076E-20
4.02802E-04 4.87157E-20
4.38585E-04 4.10798E-20
4.75889E-04 3.48807E-20
5.14715E-04 2.98068E-20
5.55063E-04 2.56212E-20
5.96931E-04 2.21442E-20
6.40321E-04 1.92367E-20
6.85233E-04 1.67902E-20
7.31665E-04 1.47200E-20
7.79618E-04 1.29586E-20
8.29092E-04 1.14526E-20
8.80086E-04 1.01588E-20
9.32601E-04 9.04223E-21
9.86636E-04 8.07471E-21
1.04219E-03 7.23289E-21
1.09927E-03 6.49780E-21
1.15786E-03 5.85355E-21
1.21797E-03 5.28704E-21
1.27961E-03 4.78730E-21
1.34276E-03 4.34508E-21
1.40743E-03 3.95267E-21
1.47362E-03 3.60346E-21
1.54133E-03 3.29188E-21
1.61056E-03 3.01319E-21
1.68131E-03 2.76329E-21
1.75357E-03 2.53871E-21
1.82735E-03 2.33642E-21
1.90265E-03 2.15383E-21
1.97947E-03 1.98868E-21
2.05780E-03 1.83902E-21
2.13765E-03 1.70313E-21
2.21902E-03 1.57953E-21
2.30190E-03 1.46690E-21
2.38630E-03 1.36411E-21
2.47222E-03 1.27013E-21
2.55965E-03 1.18408E-21
2.64859E-03 1.10517E-21
2.73905E-03 1.03270E-21
2.83103E-03 9.66058E-22
2.92452E-03 9.04682E-22
3.01952E-03 8.48087E-22
3.11604E-03 7.95830E-22
3.21407E-03 7.47522E-22
3.31362E-03 7.02808E-22
3.41468E-03 6.61376E-22
3.51725E-03 6.22937E-22
3.62133E-03 5.87240E-22
3.72692E-03 5.54052E-22
3.83403E-03 5.23165E-22
3.94265E-03 4.94390E-22
4.05278E-03 4.67557E-22
4.16442E-03 4.42512E-22
4.27757E-03 4.19113E-22
4.39223E-03 3.97233E-22
4.50840E-03 3.76755E-22
4.62608E-03 3.57573E-22
4.74527E-03 3.39590E-22
4.86597E-03 3.22718E-22
4.98817E-03 3.06876E-22
5.11188E-03 2.91989E-22
5.23711E-03 2.77991E-22
5.36383E-03 2.64819E-22
5.49207E-03 2.52417E-22
5.62181E-03 2.40729E-22
5.75306E-03 2.29692E-22
5.88581E-03 2.19276E-22
6.02007E-03 2.09440E-22
6.15583E-03 2.00145E-22
6.29310E-03 1.91357E-22
6.43187E-03 1.83042E-22
6.57214E-03 1.75171E-22
6.71392E-03 1.67715E-22
6.85720E-03 1.60649E-22
7.00198E-03 1.53947E-22
7.14827E-03 1.47589E-22
7.29605E-03 1.41553E-22
7.44534E-03 1.35820E-22
7.59612E-03 1.30372E-22
7.97965E-03 1.17891E-22
8.37255E-03 1.06856E-22
8.77480E-03 9.70713E-23
9.18641E-03 8.83713E-23
9.60736E-03 8.06154E-23
1.00376E-02 7.36836E-23
1.04773E-02 6.74735E-23
1.09262E-02 6.18971E-23
1.13844E-02 5.68787E-23
1.18520E-02 5.23529E-23
1.23288E-02 4.82630E-23
1.28150E-02 4.45599E-23
1.33104E-02 4.12006E-23
1.38150E-02 3.81478E-23
1.43290E-02 3.53687E-23
1.48521E-02 3.28346E-23
1.53845E-02 3.05200E-23
1.59262E-02 2.84027E-23
1.64770E-02 2.64630E-23
1.70371E-02 2.46834E-23
1.76063E-02 2.30484E-23
1.81848E-02 2.15443E-23
1.87724E-02 2.01586E-23
1.93692E-02 1.88806E-23
1.99751E-02 1.77004E-23
2.05901E-02 1.66092E-23
2.12143E-02 1.55991E-23
2.18476E-02 1.46631E-23
2.24900E-02 1.37948E-23
2.31415E-02 1.29884E-23
2.38021E-02 1.22388E-23
2.44717E-02 1.15413E-23
2.51504E-02 1.08917E-23
2.58382E-02 1.02860E-23
2.65349E-02 9.72081E-24
2.72407E-02 9.19297E-24
2.79555E-02 8.69957E-24
2.86793E-02 8.23797E-24
2.94120E-02 7.80577E-24
3.01537E-02 7.40078E-24
3.09043E-02 7.02100E-24
3.16639E-02 6.66458E-24
3.24324E-02 6.32984E-24
3.32098E-02 6.01523E-24
3.39961E-02 5.71935E-24
3.47912E-02 5.44088E-24
3.55952E-02 5.17863E-24
3.64081E-02 4.93149E-24
3.72297E-02 4.69844E-24
3.80602E-02 4.47854E-24
3.88995E-02 4.27093E-24
3.97476E-02 4.07480E-24
4.06044E-02 3.88941E-24
4.14700E-02 3.71407E-24
4.23443E-02 3.54815E-24
4.32273E-02 3.39105E-24
4.41190E-02 3.24223E-24
4.50194E-02 3.10118E-24
4.59284E-02 2.96742E-24
4.68461E-02 2.84052E-24
4.87074E-02 2.60566E-24
5.06030E-02 2.39365E-24
5.25328E-02 2.20192E-24
5.44967E-02 2.02823E-24
5.64946E-02 1.87062E-24
5.85262E-02 1.72737E-24
6.05914E-02 1.59697E-24
6.26901E-02 1.47808E-24
6.48222E-02 1.36954E-24
6.69873E-02 1.27031E-24
6.91854E-02 1.17947E-24
7.14163E-02 1.09620E-24
7.36799E-02 1.01977E-24
7.59760E-02 9.49541E-25
7.83043E-02 8.84931E-25
8.06647E-02 8.25424E-25
8.30571E-02 7.70558E-25
8.54812E-02 7.19915E-25
8.79369E-02 6.73125E-25
9.04240E-02 6.29849E-25
9.29422E-02 5.89787E-25
9.54915E-02 5.52664E-25
9.80716E-02 5.18234E-25
1.00682E-01 4.86273E-25
1.03323E-01 4.56579E-25
1.05995E-01 4.28968E-25
1.08696E-01 4.03273E-25
1.11427E-01 3.79343E-25
1.14188E-01 3.57039E-25
1.16978E-01 3.36236E-25
1.19797E-01 3.16818E-25
1.22645E-01 2.98680E-25
1.25522E-01 2.81728E-25
1.28428E-01 2.65871E-25
1.31361E-01 2.51031E-25
1.34323E-01 2.37132E-25
1.37313E-01 2.24108E-25
1.40330E-01 2.11896E-25
1.43375E-01 2.00438E-25
1.46447E-01 1.89683E-25
1.49545E-01 1.79580E-25
1.52671E-01 1.70086E-25
1.55823E-01 1.61159E-25
1.59001E-01 1.52761E-25
1.62205E-01 1.44856E-25
1.65435E-01 1.37412E-25
1.68690E-01 1.30398E-25
1.71970E-01 1.23787E-25
1.75276E-01 1.17552E-25
1.78606E-01 1.11670E-25
1.81961E-01 1.06118E-25
1.85340E-01 1.00875E-25
1.88743E-01 9.59224E-26
1.92169E-01 9.12414E-26
1.95619E-01 8.68157E-26
1.99092E-01 8.26297E-26
2.02589E-01 7.86688E-26
2.06107E-01 7.49196E-26
2.09649E-01 7.13693E-26
2.13212E-01 6.80062E-26
2.16797E-01 6.48194E-26
2.20404E-01 6.17984E-26
2.24032E-01 5.89337E-26
2.27680E-01 5.62163E-26
2.31350E-01 5.36377E-26
2.35040E-01 5.11901E-26
2.38751E-01 4.88661E-26
2.42481E-01 4.66588E-26
2.46231E-01 4.45616E-26
2.50000E-01 4.25685E-26
2.53788E-01 4.06737E-26
2.57595E-01 3.88719E-26
2.61421E-01 3.71581E-26
2.65264E-01 3.55273E-26
2.69126E-01 3.39754E-26
2.73005E-01 3.24979E-26
2.76901E-01 3.10910E-26
2.80814E-01 2.97510E-26
2.84744E-01 2.84743E-26
2.88691E-01 2.72576E-26
2.92653E-01 2.60979E-26
2.96632E-01 2.49922E-26
3.00625E-01 2.39378E-26
3.04634E-01 2.29320E-26
3.08658E-01 2.19723E-26
3.12697E-01 2.10565E-26
3.16749E-01 2.01824E-26
3.20816E-01 1.93478E-26
3.24896E-01 1.85508E-26
3.28990E-01 1.77896E-26
3.33097E-01 1.70624E-26
3.37216E-01 1.63675E-26
3.41348E-01 1.57033E-26
3.45492E-01 1.50684E-26
3.49647E-01 1.44614E-26
3.53814E-01 1.38810E-26
3.57992E-01 1.33258E-26
3.62181E-01 1.27946E-26
3.66381E-01 1.22864E-26
3.70590E-01 1.18000E-26
3.74810E-01 1.13345E-26
3.79039E-01 1.08888E-26
3.83277E-01 1.04621E-26
3.87524E-01 1.00534E-26
3.91780E-01 9.66192E-27
3.96044E-01 9.28690E-27
4.00316E-01 8.92757E-27
4.04596E-01 8.58322E-27
4.08882E-01 8.25318E-27
4.13176E-01 7.93679E-27
4.17476E-01 7.63344E-27
4.21783E-01 7.34256E-27
4.26095E-01 7.06359E-27
4.30413E-01 6.79599E-27
4.34737E-01 6.53928E-27
4.39065E-01 6.29296E-27
4.43398E-01 6.05659E-27
4.47736E-01 5.82973E-27
4.52077E-01 5.61197E-27
4.56422E-01 5.40291E-27
4.60770E-01 5.20218E-27
4.65122E-01 5.00943E-27
4.69476E-01 4.82430E-27
4.73832E-01 4.64647E-27
4.78190E-01 4.47564E-27
4.82550E-01 4.31150E-27
4.86912E-01 4.15378E-27
4.91274E-01 4.00221E-27
4.95637E-01 3.85652E-27
5.00000E-01 3.71647E-27
5.04363E-01 3.58183E-27
5.08726E-01 3.45237E-27
5.13088E-01 3.32788E-27
5.17450E-01 3.20815E-27
5.21810E-01 3.09300E-27
5.26168E-01 2.98222E-27
5.30524E-01 2.87564E-27
5.34878E-01 2.77310E-27
5.39230E-01 2.67442E-27
5.43578E-01 2.57945E-27
5.47923E-01 2.48805E-27
5.52264E-01 2.40007E-27
5.56602E-01 2.31536E-27
5.60935E-01 2.23381E-27
5.65263E-01 2.15528E-27
5.69587E-01 2.07966E-27
5.73905E-01 2.00683E-27
5.78217E-01 1.93668E-27
5.82524E-01 1.86911E-27
5.86824E-01 1.80401E-27
5.91118E-01 1.74129E-27
5.95404E-01 1.68085E-27
5.99684E-01 1.62261E-27
6.03956E-01 1.56648E-27
6.08220E-01 1.51237E-27
6.12476E-01 1.46022E-27
6.16723E-01 1.40995E-27
6.20961E-01 1.36148E-27
6.25190E-01 1.31475E-27
6.29410E-01 1.26968E-27
6.33619E-01 1.22622E-27
6.37819E-01 1.18430E-27
6.42008E-01 1.14388E-27
6.46186E-01 1.10488E-27
6.50353E-01 1.06726E-27
6.54508E-01 1.03096E-27
6.58652E-01 9.95939E-28
6.62784E-01 9.62145E-28
6.66903E-01 9.29534E-28
6.71010E-01 8.98060E-28
6.75104E-01 8.67683E-28
6.79184E-01 8.38362E-28
6.83251E-01 8.10056E-28
6.87303E-01 7.82731E-28
6.91342E-01 7.56348E-28
6.95366E-01 7.30875E-28
6.99375E-01 7.06277E-28
7.03368E-01 6.82523E-28
7.07347E-01 6.59583E-28
7.11309E-01 6.37426E-28
7.15256E-01 6.16024E-28
7.19186E-01 5.95351E-28
7.23099E-01 5.75380E-28
7.26995E-01 5.56085E-28
7.30874E-01 5.37443E-28
7.34736E-01 5.19431E-28
7.38579E-01 5.02025E-28
7.42405E-01 4.85205E-28
7.46212E-01 4.68949E-28
7.50000E-01 4.53238E-28
7.53769E-01 4.38052E-28
7.57519E-01 4.23373E-28
7.61249E-01 4.09183E-28
7.64960E-01 3.95465E-28
7.68650E-01 3.82202E-28
7.72320E-01 3.69379E-28
7.75968E-01 3.56980E-28
7.79596E-01 3.44991E-28
7.83203E-01 3.33396E-28
7.86788E-01 3.22184E-28
7.90351E-01 3.11339E-28
7.93893E-01 3.00851E-28
7.97411E-01 2.90706E-28
8.00908E-01 2.80892E-28
8.04381E-01 2.71399E-28
8.07831E-01 2.62216E-28
8.11257E-01 2.53331E-28
8.14660E-01 2.44735E-28
8.18039E-01 2.36418E-28
8.21394E-01 2.28371E-28
8.24724E-01 2.20584E-28
8.28030E-01 2.13048E-28
8.31310E-01 2.05756E-28
8.34565E-01 1.98699E-28
8.37795E-01 1.91868E-28
8.40999E-01 1.85258E-28
8.44177E-01 1.78860E-28
8.47329E-01 1.72667E-28
8.50455E-01 1.66672E-28
8.53553E-01 1.60869E-28
8.56625E-01 1.55252E-28
8.59670E-01 1.49814E-28
8.62687E-01 1.44549E-28
8.65677E-01 1.39453E-28
8.68639E-01 1.34518E-28
8.71572E-01 1.29741E-28
8.74478E-01 1.25116E-28
8.77355E-01 1.20637E-28
8.80203E-01 1.16301E-28
8.83022E-01 1.12103E-28
8.85812E-01 1.08037E-28
8.88573E-01 1.04101E-28
8.91304E-01 1.00289E-28
8.94005E-01 9.65986E-29
8.96677E-01 9.30248E-29
8.99318E-01 8.95643E-29
9.01928E-01 8.62134E-29
9.04508E-01 8.29687E-29
9.07058E-01 7.98268E-29
9.09576E-01 7.67846E-29
9.12063E-01 7.38389E-29
9.14519E-01 7.09867E-29
9.16943E-01 6.82251E-29
9.19335E-01 6.55513E-29
9.21696E-01 6.29625E-29
9.24024E-01 6.04563E-29
9.26320E-01 5.80300E-29
9.28584E-01 5.56812E-29
9.30815E-01 5.34075E-29
9.33013E-01 5.12068E-29
9.35178E-01 4.90767E-29
9.37310E-01 4.70152E-29
9.39409E-01 4.50203E-29
9.41474E-01 4.30899E-29
9.43505E-01 4.12221E-29
9.45503E-01 3.94152E-29
9.47467E-01 3.76673E-29
9.49397E-01 3.59767E-29
9.51293E-01 3.43419E-29
9.53154E-01 3.27611E-29
9.54981E-01 3.12328E-29
9.56773E-01 2.97556E-29
9.58530E-01 2.83281E-29
9.60252E-01 2.69488E-29
9.61940E-01 2.56164E-29
9.63592E-01 2.43297E-29
9.65209E-01 2.30874E-29
9.66790E-01 2.18883E-29
9.68336E-01 2.07313E-29
9.69846E-01 1.96152E-29
9.71321E-01 1.85391E-29
9.72759E-01 1.75018E-29
9.74162E-01 1.65024E-29
9.75528E-01 1.55400E-29
9.76858E-01 1.46137E-29
9.78152E-01 1.37225E-29
9.79410E-01 1.28656E-29
9.80631E-01 1.20422E-29
9.81815E-01 1.12516E-29
9.82963E-01 1.04930E-29
9.84074E-01 9.76575E-30
9.85148E-01 9.06907E-30
9.86185E-01 8.40236E-30
9.87185E-01 7.76499E-30
9.88148E-01 7.15638E-30
9.89074E-01 6.57595E-30
9.89962E-01 6.02318E-30
9.90814E-01 5.49753E-30
9.91627E-01 4.99854E-30
9.92404E-01 4.52573E-30
9.93143E-01 4.07867E-30
9.93844E-01 3.65695E-30
9.94508E-01 3.26017E-30
9.95134E-01 2.88798E-30
9.95722E-01 2.54002E-30
9.96273E-01 2.21599E-30
9.96786E-01 1.91557E-30
9.97261E-01 1.63850E-30
9.97698E-01 1.38452E-30
9.98097E-01 1.15339E-30
9.98459E-01 9.44916E-31
9.98782E-01 7.58892E-31
9.99067E-01 5.95152E-31
9.99315E-01 4.53544E-31
9.99524E-01 3.33942E-31
9.99695E-01 2.36234E-31
9.99829E-01 1.60332E-31
9.99924E-01 1.06166E-31
9.99981E-01 7.36861E-32
1.00000E+00 6.28623E-32
