 #
 # Subroutine ELSEPA. Elastic scattering of electrons and positrons
 #                    by neutral atoms and positive ions
 #
 # Projectile: positron
 # Kinetic energy = 5.00000E+08 eV = 1.83747E+07 a.u.
 #
 # WARNING: High-energy factorization with free-atom DF screening.
 #          Absorption, polarization and exchange corrections are
 #          switched off.
 #          Phase shifts are calculated for the bare nucleus.
 #          Scattering amplitudes are not evaluated.
 #
 # Element: Ra,  Z =  88,  atomic weight = 2.26025E+02 g/mol
 #
 # Nuclear model: Fermi distribution
 #                Average radius = 6.51783E-13 cm
 #                Skin thickness = 5.46000E-14 cm
 #
 # Number of electrons = 88
 #
 # Total elastic cross section = 1.10941E-17 cm**2 = 3.96176E-01 a0**2
 # 1st transport cross section = 5.70990E-26 cm**2 = 2.03904E-09 a0**2
 # 2nd transport cross section = 1.71228E-25 cm**2 = 6.11466E-09 a0**2
 #
 #
 # Differential cross section:                       MU=(1-COS(THETA))/2
 #
 #  THETA        MU          DCS          DCS        Sherman      error
 #  (deg)                 (cm**2/sr)   (a0**2/sr)    function
 #----------------------------------------------------------------------
0.00000E+00 3.80889E-08
7.61557E-13 3.33604E-08
1.18994E-12 3.11312E-08
1.71346E-12 2.87297E-08
2.33225E-12 2.62825E-08
3.04617E-12 2.38873E-08
3.85530E-12 2.16146E-08
4.75964E-12 1.95095E-08
5.75917E-12 1.75948E-08
6.85391E-12 1.58809E-08
8.04379E-12 1.43584E-08
9.32893E-12 1.30110E-08
1.07092E-11 1.18222E-08
1.21847E-11 1.07740E-08
1.37554E-11 9.84880E-09
1.54213E-11 9.03019E-09
1.71823E-11 8.30352E-09
1.90386E-11 7.65590E-09
2.09900E-11 7.07630E-09
2.30367E-11 6.55530E-09
2.51785E-11 6.08488E-09
2.74156E-11 5.65807E-09
2.97478E-11 5.26958E-09
3.21752E-11 4.91487E-09
3.46979E-11 4.59004E-09
3.73157E-11 4.29186E-09
4.00286E-11 4.01751E-09
4.28368E-11 3.76460E-09
4.57402E-11 3.53107E-09
4.87388E-11 3.31511E-09
5.18325E-11 3.11514E-09
5.50215E-11 2.92977E-09
5.83057E-11 2.75745E-09
6.16850E-11 2.59738E-09
6.51595E-11 2.44863E-09
6.87293E-11 2.31027E-09
7.23943E-11 2.18149E-09
7.61544E-11 2.06154E-09
1.18991E-10 1.20920E-09
1.71347E-10 7.68214E-10
2.33223E-10 5.14015E-10
3.04617E-10 3.57732E-10
3.85531E-10 2.56747E-10
4.75965E-10 1.89064E-10
5.75917E-10 1.42397E-10
6.85389E-10 1.09341E-10
8.04380E-10 8.54538E-11
9.32891E-10 6.78427E-11
1.07092E-09 5.45918E-11
1.21847E-09 4.44404E-11
1.37554E-09 3.65405E-11
1.54213E-09 3.03096E-11
1.71823E-09 2.53385E-11
1.90386E-09 2.13336E-11
2.09900E-09 1.80815E-11
2.30367E-09 1.54258E-11
2.51785E-09 1.32191E-11
2.74156E-09 1.13918E-11
2.97478E-09 9.87251E-12
3.21752E-09 8.60138E-12
3.46978E-09 7.53091E-12
3.73156E-09 6.62361E-12
4.00286E-09 5.84998E-12
4.28368E-09 5.18672E-12
4.57402E-09 4.61532E-12
4.87388E-09 4.12096E-12
5.18326E-09 3.69156E-12
5.50215E-09 3.31722E-12
5.83057E-09 2.98948E-12
6.16850E-09 2.70167E-12
6.51596E-09 2.44801E-12
6.87293E-09 2.22365E-12
7.23942E-09 2.02452E-12
7.61544E-09 1.84725E-12
1.18991E-08 8.16590E-13
1.71347E-08 4.15994E-13
2.33223E-08 2.34024E-13
3.04617E-08 1.41476E-13
3.85531E-08 9.04202E-14
4.75965E-08 6.04231E-14
5.75917E-08 4.18863E-14
6.85389E-08 2.99437E-14
8.04380E-08 2.19757E-14
9.32891E-08 1.64944E-14
1.07092E-07 1.26221E-14
1.21847E-07 9.82330E-15
1.37554E-07 7.75942E-15
1.54213E-07 6.21011E-15
1.71823E-07 5.02852E-15
1.90386E-07 4.11483E-15
2.09900E-07 3.39933E-15
2.30367E-07 2.83257E-15
2.51785E-07 2.37898E-15
2.74156E-07 2.01255E-15
2.97478E-07 1.71395E-15
3.21752E-07 1.46864E-15
3.46978E-07 1.26566E-15
3.73156E-07 1.09653E-15
4.00286E-07 9.54715E-16
4.28368E-07 8.35084E-16
4.57402E-07 7.33612E-16
4.87388E-07 6.47090E-16
5.18325E-07 5.72950E-16
5.50215E-07 5.09130E-16
5.83057E-07 4.53954E-16
6.16850E-07 4.06054E-16
6.51596E-07 3.64308E-16
6.87293E-07 3.27793E-16
7.23942E-07 2.95742E-16
7.61543E-07 2.67514E-16
1.18991E-06 1.10410E-16
1.71347E-06 5.35219E-17
2.33223E-06 2.89959E-17
3.04617E-06 1.70420E-17
3.85531E-06 1.06600E-17
4.75964E-06 7.00422E-18
5.75916E-06 4.78923E-18
6.85388E-06 3.38433E-18
8.04378E-06 2.45867E-18
9.32888E-06 1.82882E-18
1.07092E-05 1.38828E-18
1.21846E-05 1.07271E-18
1.37553E-05 8.41881E-19
1.54212E-05 6.69910E-19
1.71822E-05 5.39675E-19
1.90385E-05 4.39281E-19
2.09899E-05 3.61696E-19
2.30365E-05 3.00437E-19
2.51783E-05 2.51522E-19
2.74153E-05 2.12098E-19
2.97475E-05 1.80070E-19
3.21749E-05 1.53862E-19
3.46974E-05 1.32266E-19
3.73152E-05 1.14344E-19
4.00281E-05 9.93691E-20
4.28362E-05 8.67715E-20
4.57395E-05 7.61068E-20
4.87380E-05 6.70265E-20
5.18317E-05 5.92558E-20
5.50205E-05 5.25757E-20
5.83045E-05 4.68095E-20
6.16838E-05 4.18125E-20
6.51582E-05 3.74656E-20
6.87277E-05 3.36700E-20
7.23925E-05 3.03436E-20
7.61524E-05 2.77917E-20
9.21439E-05 1.90136E-20
1.09658E-04 1.34464E-20
1.28695E-04 9.77488E-21
1.49255E-04 7.27444E-21
1.71338E-04 5.52407E-21
1.94942E-04 4.26904E-21
2.20070E-04 3.35009E-21
2.46720E-04 2.66472E-21
2.74892E-04 2.14516E-21
3.04586E-04 1.74546E-21
3.35803E-04 1.43398E-21
3.68542E-04 1.18832E-21
4.02802E-04 9.92515E-22
4.38585E-04 8.34912E-22
4.75889E-04 7.06917E-22
5.14715E-04 6.02131E-22
5.55063E-04 5.15687E-22
5.96931E-04 4.43889E-22
6.40321E-04 3.83868E-22
6.85233E-04 3.33395E-22
7.31665E-04 2.90719E-22
7.79618E-04 2.54446E-22
8.29092E-04 2.23471E-22
8.80086E-04 1.96900E-22
9.32601E-04 1.74011E-22
9.86636E-04 1.54217E-22
1.04219E-03 1.37035E-22
1.09927E-03 1.22069E-22
1.15786E-03 1.08991E-22
1.21797E-03 9.75277E-23
1.27961E-03 8.74496E-23
1.34276E-03 7.85652E-23
1.40743E-03 7.07129E-23
1.47362E-03 6.37554E-23
1.54133E-03 5.75765E-23
1.61056E-03 5.20768E-23
1.68131E-03 4.71713E-23
1.75357E-03 4.27871E-23
1.82735E-03 3.88613E-23
1.90265E-03 3.53397E-23
1.97947E-03 3.21750E-23
2.05780E-03 2.93266E-23
2.13765E-03 2.67588E-23
2.21902E-03 2.44404E-23
2.30190E-03 2.23443E-23
2.38630E-03 2.04466E-23
2.47222E-03 1.87263E-23
2.55965E-03 1.71648E-23
2.64859E-03 1.57459E-23
2.73905E-03 1.44550E-23
2.83103E-03 1.32793E-23
2.92452E-03 1.22074E-23
3.01952E-03 1.12293E-23
3.11604E-03 1.03358E-23
3.21407E-03 9.51887E-24
3.31362E-03 8.77135E-24
3.41468E-03 8.08676E-24
3.51725E-03 7.45930E-24
3.62133E-03 6.88378E-24
3.72692E-03 6.35550E-24
3.83403E-03 5.87026E-24
3.94265E-03 5.42425E-24
4.05278E-03 5.01405E-24
4.16442E-03 4.63655E-24
4.27757E-03 4.28895E-24
4.39223E-03 3.96869E-24
4.50840E-03 3.67348E-24
4.62608E-03 3.40122E-24
4.74527E-03 3.15001E-24
4.86597E-03 2.91810E-24
4.98817E-03 2.70393E-24
5.11188E-03 2.50606E-24
5.23711E-03 2.32317E-24
5.36383E-03 2.15407E-24
5.49207E-03 1.99766E-24
5.62181E-03 1.85294E-24
5.75306E-03 1.71900E-24
5.88581E-03 1.59499E-24
6.02007E-03 1.48015E-24
6.15583E-03 1.37376E-24
6.29310E-03 1.27519E-24
6.43187E-03 1.18383E-24
6.57214E-03 1.09914E-24
6.71392E-03 1.02061E-24
6.85720E-03 9.47787E-25
7.00198E-03 8.80239E-25
7.14827E-03 8.17573E-25
7.29605E-03 7.59428E-25
7.44534E-03 7.05470E-25
7.59612E-03 6.55389E-25
7.97965E-03 5.45341E-25
8.37255E-03 4.53928E-25
8.77480E-03 3.77955E-25
9.18641E-03 3.14791E-25
9.60736E-03 2.62264E-25
1.00376E-02 2.18578E-25
1.04773E-02 1.82243E-25
1.09262E-02 1.52024E-25
1.13844E-02 1.26894E-25
1.18520E-02 1.06000E-25
1.23288E-02 8.86310E-26
1.28150E-02 7.41946E-26
1.33104E-02 6.21978E-26
1.38150E-02 5.22292E-26
1.43290E-02 4.39461E-26
1.48521E-02 3.70626E-26
1.53845E-02 3.13407E-26
1.59262E-02 2.65819E-26
1.64770E-02 2.26211E-26
1.70371E-02 1.93210E-26
1.76063E-02 1.65674E-26
1.81848E-02 1.42655E-26
1.87724E-02 1.23367E-26
1.93692E-02 1.07161E-26
1.99751E-02 9.34979E-27
2.05901E-02 8.19337E-27
2.12143E-02 7.21027E-27
2.18476E-02 6.37040E-27
2.24900E-02 5.64905E-27
2.31415E-02 5.02597E-27
2.38021E-02 4.48458E-27
2.44717E-02 4.01135E-27
2.51504E-02 3.59525E-27
2.58382E-02 3.22727E-27
2.65349E-02 2.90011E-27
2.72407E-02 2.60780E-27
2.79555E-02 2.34548E-27
2.86793E-02 2.10919E-27
2.94120E-02 1.89568E-27
3.01537E-02 1.70231E-27
3.09043E-02 1.52685E-27
3.16639E-02 1.36747E-27
3.24324E-02 1.22262E-27
3.32098E-02 1.09098E-27
3.39961E-02 9.71419E-28
3.47912E-02 8.62938E-28
3.55952E-02 7.64653E-28
3.64081E-02 6.75770E-28
3.72297E-02 5.95565E-28
3.80602E-02 5.23373E-28
3.88995E-02 4.58573E-28
3.97476E-02 4.00586E-28
4.06044E-02 3.48866E-28
4.14700E-02 3.02897E-28
4.23443E-02 2.62194E-28
4.32273E-02 2.26295E-28
4.41190E-02 1.94765E-28
4.50194E-02 1.67192E-28
4.59284E-02 1.43190E-28
4.68461E-02 1.22396E-28
4.87074E-02 8.90980E-29
5.06030E-02 6.48635E-29
5.25328E-02 4.76197E-29
5.44967E-02 3.56371E-29
5.64946E-02 2.75043E-29
5.85262E-02 2.20974E-29
6.05914E-02 1.85451E-29
6.26901E-02 1.61926E-29
6.48222E-02 1.45655E-29
6.69873E-02 1.33355E-29
6.91854E-02 1.22888E-29
7.14163E-02 1.12982E-29
7.36799E-02 1.02993E-29
7.59760E-02 9.27062E-30
7.83043E-02 8.21787E-30
8.06647E-02 7.16184E-30
8.30571E-02 6.12950E-30
8.54812E-02 5.14792E-30
8.79369E-02 4.24037E-30
9.04240E-02 3.42425E-30
9.29422E-02 2.71033E-30
9.54915E-02 2.10291E-30
9.80716E-02 1.60058E-30
1.00682E-01 1.19734E-30
1.03323E-01 8.83858E-31
1.05995E-01 6.48662E-31
1.08696E-01 4.79258E-31
1.11427E-01 3.63062E-31
1.14188E-01 2.88119E-31
1.16978E-01 2.43621E-31
1.19797E-01 2.20227E-31
1.22645E-01 2.10222E-31
1.25522E-01 2.07530E-31
1.28428E-01 2.07626E-31
1.31361E-01 2.07378E-31
1.34323E-01 2.04839E-31
1.37313E-01 1.99025E-31
1.40330E-01 1.89690E-31
1.43375E-01 1.77113E-31
1.46447E-01 1.61912E-31
1.49545E-01 1.44888E-31
1.52671E-01 1.26900E-31
1.55823E-01 1.08769E-31
1.59001E-01 9.12178E-32
1.62205E-01 7.48284E-32
1.65435E-01 6.00284E-32
1.68690E-01 4.70891E-32
1.71970E-01 3.61374E-32
1.75276E-01 2.71759E-32
1.78606E-01 2.01073E-32
1.81961E-01 1.47603E-32
1.85340E-01 1.09150E-32
1.88743E-01 8.32536E-33
1.92169E-01 6.73944E-33
1.95619E-01 5.91451E-33
1.99092E-01 5.62886E-33
2.02589E-01 5.68950E-33
2.06107E-01 5.93638E-33
2.09649E-01 6.24372E-33
2.13212E-01 6.51893E-33
2.16797E-01 6.69985E-33
2.20404E-01 6.75077E-33
2.24032E-01 6.65782E-33
2.27680E-01 6.42419E-33
2.31350E-01 6.06539E-33
2.35040E-01 5.60496E-33
2.38751E-01 5.07075E-33
2.42481E-01 4.49177E-33
2.46231E-01 3.89582E-33
2.50000E-01 3.30771E-33
2.53788E-01 2.74818E-33
2.57595E-01 2.23330E-33
2.61421E-01 1.77432E-33
2.65264E-01 1.37789E-33
2.69126E-01 1.04653E-33
2.73005E-01 7.79238E-34
2.76901E-01 5.72235E-34
2.80814E-01 4.19677E-34
2.84744E-01 3.14368E-34
2.88691E-01 2.48410E-34
2.92653E-01 2.13746E-34
2.96632E-01 2.02608E-34
3.00625E-01 2.07861E-34
3.04634E-01 2.23236E-34
3.08658E-01 2.43466E-34
3.12697E-01 2.64346E-34
3.16749E-01 2.82719E-34
3.20816E-01 2.96409E-34
3.24896E-01 3.04117E-34
3.28990E-01 3.05293E-34
3.33097E-01 2.99990E-34
3.37216E-01 2.88729E-34
3.41348E-01 2.72356E-34
3.45492E-01 2.51920E-34
3.49647E-01 2.28562E-34
3.53814E-01 2.03431E-34
3.57992E-01 1.77609E-34
3.62181E-01 1.52060E-34
3.66381E-01 1.27598E-34
3.70590E-01 1.04871E-34
3.74810E-01 8.43505E-35
3.79039E-01 6.63410E-35
3.83277E-01 5.09935E-35
3.87524E-01 3.83241E-35
3.91780E-01 2.82368E-35
3.96044E-01 2.05478E-35
4.00316E-01 1.50094E-35
4.04596E-01 1.13330E-35
4.08882E-01 9.20920E-36
4.13176E-01 8.32550E-36
4.17476E-01 8.38079E-36
4.21783E-01 9.09644E-36
4.26095E-01 1.02242E-35
4.30413E-01 1.15515E-35
4.34737E-01 1.29035E-35
4.39065E-01 1.41440E-35
4.43398E-01 1.51729E-35
4.47736E-01 1.59242E-35
4.52077E-01 1.63618E-35
4.56422E-01 1.64751E-35
4.60770E-01 1.62741E-35
4.65122E-01 1.57848E-35
4.69476E-01 1.50449E-35
4.73832E-01 1.40992E-35
4.78190E-01 1.29964E-35
4.82550E-01 1.17860E-35
4.86912E-01 1.05153E-35
4.91274E-01 9.22790E-36
4.95637E-01 7.96236E-36
5.00000E-01 6.75115E-36
5.04363E-01 5.62011E-36
5.08726E-01 4.58869E-36
5.13088E-01 3.66999E-36
5.17450E-01 2.87129E-36
5.21810E-01 2.19475E-36
5.26168E-01 1.63803E-36
5.30524E-01 1.19519E-36
5.34878E-01 8.57549E-37
5.39230E-01 6.14363E-37
5.43578E-01 4.53587E-37
5.47923E-01 3.62556E-37
5.52264E-01 3.28529E-37
5.56602E-01 3.39150E-37
5.60935E-01 3.82833E-37
5.65263E-01 4.49036E-37
5.69587E-01 5.28439E-37
5.73905E-01 6.13055E-37
5.78217E-01 6.96284E-37
5.82524E-01 7.72919E-37
5.86824E-01 8.39010E-37
5.91118E-01 8.91821E-37
5.95404E-01 9.29756E-37
5.99684E-01 9.52069E-37
6.03956E-01 9.58925E-37
6.08220E-01 9.50972E-37
6.12476E-01 9.29510E-37
6.16723E-01 8.96092E-37
6.20961E-01 8.52569E-37
6.25190E-01 8.00905E-37
6.29410E-01 7.43053E-37
6.33619E-01 6.81017E-37
6.37819E-01 6.16518E-37
6.42008E-01 5.51295E-37
6.46186E-01 4.86828E-37
6.50353E-01 4.24384E-37
6.54508E-01 3.65003E-37
6.58652E-01 3.09507E-37
6.62784E-01 2.58526E-37
6.66903E-01 2.12459E-37
6.71010E-01 1.71567E-37
6.75104E-01 1.35903E-37
6.79184E-01 1.05407E-37
6.83251E-01 7.98860E-38
6.87303E-01 5.90738E-38
6.91342E-01 4.26069E-38
6.95366E-01 3.00875E-38
6.99375E-01 2.10847E-38
7.03368E-01 1.51507E-38
7.07347E-01 1.18266E-38
7.11309E-01 1.06733E-38
7.15256E-01 1.12733E-38
7.19186E-01 1.32312E-38
7.23099E-01 1.61888E-38
7.26995E-01 1.98271E-38
7.30874E-01 2.38588E-38
7.34736E-01 2.80459E-38
7.38579E-01 3.21870E-38
7.42405E-01 3.61138E-38
7.46212E-01 3.96942E-38
7.50000E-01 4.28422E-38
7.53769E-01 4.54740E-38
7.57519E-01 4.75621E-38
7.61249E-01 4.90846E-38
7.64960E-01 5.00358E-38
7.68650E-01 5.04498E-38
7.72320E-01 5.03346E-38
7.75968E-01 4.97406E-38
7.79596E-01 4.87175E-38
7.83203E-01 4.73130E-38
7.86788E-01 4.55802E-38
7.90351E-01 4.35870E-38
7.93893E-01 4.13638E-38
7.97411E-01 3.89890E-38
8.00908E-01 3.64837E-38
8.04381E-01 3.39204E-38
8.07831E-01 3.13304E-38
8.11257E-01 2.87441E-38
8.14660E-01 2.61983E-38
8.18039E-01 2.37273E-38
8.21394E-01 2.13394E-38
8.24724E-01 1.90697E-38
8.28030E-01 1.69186E-38
8.31310E-01 1.49053E-38
8.34565E-01 1.30346E-38
8.37795E-01 1.13132E-38
8.40999E-01 9.73598E-39
8.44177E-01 8.31017E-39
8.47329E-01 7.02780E-39
8.50455E-01 5.88383E-39
8.53553E-01 4.87605E-39
8.56625E-01 3.99231E-39
8.59670E-01 3.22856E-39
8.62687E-01 2.57493E-39
8.65677E-01 1.00000E-45
8.68639E-01 1.00000E-45
8.71572E-01 1.00000E-45
8.74478E-01 1.00000E-45
8.77355E-01 1.00000E-45
8.80203E-01 1.00000E-45
8.83022E-01 1.00000E-45
8.85812E-01 1.00000E-45
8.88573E-01 1.00000E-45
8.91304E-01 1.00000E-45
8.94005E-01 1.00000E-45
8.96677E-01 1.00000E-45
8.99318E-01 1.00000E-45
9.01928E-01 1.00000E-45
9.04508E-01 1.00000E-45
9.07058E-01 1.00000E-45
9.09576E-01 1.00000E-45
9.12063E-01 1.00000E-45
9.14519E-01 1.00000E-45
9.16943E-01 1.00000E-45
9.19335E-01 1.00000E-45
9.21696E-01 1.00000E-45
9.24024E-01 1.00000E-45
9.26320E-01 1.00000E-45
9.28584E-01 1.00000E-45
9.30815E-01 1.00000E-45
9.33013E-01 1.00000E-45
9.35178E-01 1.00000E-45
9.37310E-01 1.00000E-45
9.39409E-01 1.00000E-45
9.41474E-01 1.00000E-45
9.43505E-01 1.00000E-45
9.45503E-01 1.00000E-45
9.47467E-01 1.00000E-45
9.49397E-01 1.00000E-45
9.51293E-01 1.00000E-45
9.53154E-01 1.00000E-45
9.54981E-01 1.00000E-45
9.56773E-01 1.00000E-45
9.58530E-01 1.00000E-45
9.60252E-01 1.00000E-45
9.61940E-01 1.00000E-45
9.63592E-01 1.00000E-45
9.65209E-01 1.00000E-45
9.66790E-01 1.00000E-45
9.68336E-01 1.00000E-45
9.69846E-01 1.00000E-45
9.71321E-01 1.00000E-45
9.72759E-01 1.00000E-45
9.74162E-01 1.00000E-45
9.75528E-01 1.00000E-45
9.76858E-01 1.00000E-45
9.78152E-01 1.00000E-45
9.79410E-01 1.00000E-45
9.80631E-01 1.00000E-45
9.81815E-01 1.00000E-45
9.82963E-01 1.00000E-45
9.84074E-01 1.00000E-45
9.85148E-01 1.00000E-45
9.86185E-01 1.00000E-45
9.87185E-01 1.00000E-45
9.88148E-01 1.00000E-45
9.89074E-01 1.00000E-45
9.89962E-01 1.00000E-45
9.90814E-01 1.00000E-45
9.91627E-01 1.00000E-45
9.92404E-01 1.00000E-45
9.93143E-01 1.00000E-45
9.93844E-01 1.00000E-45
9.94508E-01 1.00000E-45
9.95134E-01 1.00000E-45
9.95722E-01 1.00000E-45
9.96273E-01 1.00000E-45
9.96786E-01 1.00000E-45
9.97261E-01 1.00000E-45
9.97698E-01 1.00000E-45
9.98097E-01 1.00000E-45
9.98459E-01 1.00000E-45
9.98782E-01 1.00000E-45
9.99067E-01 1.00000E-45
9.99315E-01 1.00000E-45
9.99524E-01 1.00000E-45
9.99695E-01 1.00000E-45
9.99829E-01 1.00000E-45
9.99924E-01 1.00000E-45
9.99981E-01 1.00000E-45
1.00000E+00 1.00000E-45
