 #
 # Subroutine ELSEPA. Elastic scattering of electrons and positrons
 #                    by neutral atoms and positive ions
 #
 # Projectile: positron
 # Kinetic energy = 2.50000E+06 eV = 9.18733E+04 a.u.
 #
 # WARNING: High-energy factorization with free-atom DF screening.
 #          Absorption, polarization and exchange corrections are
 #          switched off.
 #          Phase shifts are calculated for the bare nucleus.
 #          Scattering amplitudes are not evaluated.
 #
 # Element: Ra,  Z =  88,  atomic weight = 2.26025E+02 g/mol
 #
 # Nuclear model: Fermi distribution
 #                Average radius = 6.51783E-13 cm
 #                Skin thickness = 5.46000E-14 cm
 #
 # Number of electrons = 88
 #
 # Total elastic cross section = 1.14245E-17 cm**2 = 4.07976E-01 a0**2
 # 1st transport cross section = 9.14049E-22 cm**2 = 3.26413E-05 a0**2
 # 2nd transport cross section = 2.60336E-21 cm**2 = 9.29676E-05 a0**2
 #
 #
 # Differential cross section:                       MU=(1-COS(THETA))/2
 #
 #  THETA        MU          DCS          DCS        Sherman      error
 #  (deg)                 (cm**2/sr)   (a0**2/sr)    function
 #----------------------------------------------------------------------
0.00000E+00 1.37845E-12
7.61557E-13 1.37845E-12
1.18994E-12 1.37844E-12
1.71346E-12 1.37844E-12
2.33225E-12 1.37843E-12
3.04617E-12 1.37842E-12
3.85530E-12 1.37842E-12
4.75964E-12 1.37841E-12
5.75917E-12 1.37840E-12
6.85391E-12 1.37839E-12
8.04379E-12 1.37838E-12
9.32893E-12 1.37837E-12
1.07092E-11 1.37835E-12
1.21847E-11 1.37834E-12
1.37554E-11 1.37833E-12
1.54213E-11 1.37831E-12
1.71823E-11 1.37830E-12
1.90386E-11 1.37828E-12
2.09900E-11 1.37826E-12
2.30367E-11 1.37824E-12
2.51785E-11 1.37822E-12
2.74156E-11 1.37820E-12
2.97478E-11 1.37818E-12
3.21752E-11 1.37816E-12
3.46979E-11 1.37814E-12
3.73157E-11 1.37811E-12
4.00286E-11 1.37809E-12
4.28368E-11 1.37806E-12
4.57402E-11 1.37804E-12
4.87388E-11 1.37801E-12
5.18325E-11 1.37798E-12
5.50215E-11 1.37796E-12
5.83057E-11 1.37793E-12
6.16850E-11 1.37790E-12
6.51595E-11 1.37787E-12
6.87293E-11 1.37783E-12
7.23943E-11 1.37780E-12
7.61544E-11 1.37777E-12
1.18991E-10 1.37739E-12
1.71347E-10 1.37692E-12
2.33223E-10 1.37637E-12
3.04617E-10 1.37574E-12
3.85531E-10 1.37503E-12
4.75965E-10 1.37423E-12
5.75917E-10 1.37335E-12
6.85389E-10 1.37239E-12
8.04380E-10 1.37134E-12
9.32891E-10 1.37021E-12
1.07092E-09 1.36901E-12
1.21847E-09 1.36772E-12
1.37554E-09 1.36635E-12
1.54213E-09 1.36490E-12
1.71823E-09 1.36337E-12
1.90386E-09 1.36176E-12
2.09900E-09 1.36007E-12
2.30367E-09 1.35830E-12
2.51785E-09 1.35646E-12
2.74156E-09 1.35454E-12
2.97478E-09 1.35254E-12
3.21752E-09 1.35046E-12
3.46978E-09 1.34831E-12
3.73156E-09 1.34609E-12
4.00286E-09 1.34379E-12
4.28368E-09 1.34141E-12
4.57402E-09 1.33896E-12
4.87388E-09 1.33645E-12
5.18326E-09 1.33385E-12
5.50215E-09 1.33119E-12
5.83057E-09 1.32846E-12
6.16850E-09 1.32566E-12
6.51596E-09 1.32279E-12
6.87293E-09 1.31986E-12
7.23942E-09 1.31685E-12
7.61544E-09 1.31378E-12
1.18991E-08 1.27964E-12
1.71347E-08 1.23991E-12
2.33223E-08 1.19559E-12
3.04617E-08 1.14804E-12
3.85531E-08 1.09752E-12
4.75965E-08 1.04585E-12
5.75917E-08 9.92949E-13
6.85389E-08 9.40945E-13
8.04380E-08 8.88923E-13
9.32891E-08 8.39144E-13
1.07092E-07 7.90431E-13
1.21847E-07 7.44370E-13
1.37554E-07 7.00240E-13
1.54213E-07 6.58773E-13
1.71823E-07 6.19725E-13
1.90386E-07 5.83110E-13
2.09900E-07 5.49096E-13
2.30367E-07 5.17179E-13
2.51785E-07 4.87822E-13
2.74156E-07 4.60210E-13
2.97478E-07 4.34974E-13
3.21752E-07 4.11248E-13
3.46978E-07 3.89474E-13
3.73156E-07 3.69086E-13
4.00286E-07 3.50246E-13
4.28368E-07 3.32657E-13
4.57402E-07 3.16304E-13
4.87388E-07 3.01044E-13
5.18325E-07 2.86786E-13
5.50215E-07 2.73459E-13
5.83057E-07 2.60966E-13
6.16850E-07 2.49245E-13
6.51596E-07 2.38239E-13
6.87293E-07 2.27862E-13
7.23942E-07 2.18102E-13
7.61543E-07 2.08868E-13
1.18991E-06 1.39325E-13
1.71347E-06 9.63184E-14
2.33223E-06 6.85593E-14
3.04617E-06 4.96884E-14
3.85531E-06 3.74337E-14
4.75964E-06 2.86218E-14
5.75916E-06 2.24885E-14
6.85388E-06 1.77695E-14
8.04378E-06 1.43673E-14
9.32888E-06 1.16445E-14
1.07092E-05 9.60005E-15
1.21846E-05 7.95114E-15
1.37553E-05 6.66230E-15
1.54212E-05 5.61723E-15
1.71822E-05 4.77462E-15
1.90385E-05 4.08388E-15
2.09899E-05 3.51833E-15
2.30365E-05 3.05181E-15
2.51783E-05 2.65612E-15
2.74153E-05 2.32707E-15
2.97475E-05 2.04304E-15
3.21749E-05 1.80480E-15
3.46974E-05 1.59786E-15
3.73152E-05 1.42171E-15
4.00281E-05 1.26807E-15
4.28362E-05 1.13514E-15
4.57395E-05 1.01872E-15
4.87380E-05 9.16572E-16
5.18317E-05 8.26884E-16
5.50205E-05 7.47361E-16
5.83045E-05 6.77446E-16
6.16838E-05 6.15143E-16
6.51582E-05 5.60274E-16
6.87277E-05 5.10492E-16
7.23925E-05 4.66415E-16
7.61524E-05 4.26804E-16
9.21439E-05 3.05329E-16
1.09658E-04 2.24485E-16
1.28695E-04 1.68814E-16
1.49255E-04 1.29443E-16
1.71338E-04 1.00992E-16
1.94942E-04 8.00016E-17
2.20070E-04 6.42080E-17
2.46720E-04 5.21256E-17
2.74892E-04 4.27249E-17
3.04586E-04 3.53858E-17
3.35803E-04 2.95515E-17
3.68542E-04 2.48869E-17
4.02802E-04 2.10948E-17
4.38585E-04 1.80148E-17
4.75889E-04 1.54641E-17
5.14715E-04 1.33608E-17
5.55063E-04 1.15958E-17
5.96931E-04 1.01182E-17
6.40321E-04 8.86537E-18
6.85233E-04 7.80195E-18
7.31665E-04 6.89230E-18
7.79618E-04 6.11096E-18
8.29092E-04 5.43739E-18
8.80086E-04 4.85282E-18
9.32601E-04 4.34539E-18
9.86636E-04 3.90114E-18
1.04219E-03 3.51310E-18
1.09927E-03 3.17073E-18
1.15786E-03 2.86966E-18
1.21797E-03 2.60281E-18
1.27961E-03 2.36648E-18
1.34276E-03 2.15606E-18
1.40743E-03 1.96853E-18
1.47362E-03 1.80086E-18
1.54133E-03 1.65059E-18
1.61056E-03 1.51570E-18
1.68131E-03 1.39417E-18
1.75357E-03 1.28468E-18
1.82735E-03 1.18558E-18
1.90265E-03 1.09597E-18
1.97947E-03 1.01453E-18
2.05780E-03 9.40592E-19
2.13765E-03 8.73204E-19
2.21902E-03 8.11772E-19
2.30190E-03 7.55624E-19
2.38630E-03 7.04246E-19
2.47222E-03 6.57158E-19
2.55965E-03 6.13923E-19
2.64859E-03 5.74200E-19
2.73905E-03 5.37607E-19
2.83103E-03 5.03905E-19
2.92452E-03 4.72767E-19
3.01952E-03 4.44017E-19
3.11604E-03 4.17392E-19
3.21407E-03 3.92744E-19
3.31362E-03 3.69871E-19
3.41468E-03 3.48641E-19
3.51725E-03 3.28904E-19
3.62133E-03 3.10539E-19
3.72692E-03 2.93435E-19
3.83403E-03 2.77483E-19
3.94265E-03 2.62602E-19
4.05278E-03 2.48693E-19
4.16442E-03 2.35697E-19
4.27757E-03 2.23525E-19
4.39223E-03 2.12132E-19
4.50840E-03 2.01446E-19
4.62608E-03 1.91425E-19
4.74527E-03 1.82013E-19
4.86597E-03 1.73171E-19
4.98817E-03 1.64855E-19
5.11188E-03 1.57029E-19
5.23711E-03 1.49661E-19
5.36383E-03 1.42714E-19
5.49207E-03 1.36167E-19
5.62181E-03 1.29984E-19
5.75306E-03 1.24150E-19
5.88581E-03 1.18633E-19
6.02007E-03 1.13420E-19
6.15583E-03 1.08487E-19
6.29310E-03 1.03818E-19
6.43187E-03 9.93951E-20
6.57214E-03 9.52039E-20
6.71392E-03 9.12297E-20
6.85720E-03 8.74589E-20
7.00198E-03 8.38801E-20
7.14827E-03 8.04803E-20
7.29605E-03 7.72508E-20
7.44534E-03 7.41792E-20
7.59612E-03 7.12589E-20
7.97965E-03 6.45564E-20
8.37255E-03 5.86187E-20
8.77480E-03 5.33436E-20
9.18641E-03 4.86441E-20
9.60736E-03 4.44475E-20
1.00376E-02 4.06906E-20
1.04773E-02 3.73193E-20
1.09262E-02 3.42877E-20
1.13844E-02 3.15555E-20
1.18520E-02 2.90879E-20
1.23288E-02 2.68553E-20
1.28150E-02 2.48311E-20
1.33104E-02 2.29927E-20
1.38150E-02 2.13200E-20
1.43290E-02 1.97955E-20
1.48521E-02 1.84038E-20
1.53845E-02 1.71314E-20
1.59262E-02 1.59662E-20
1.64770E-02 1.48976E-20
1.70371E-02 1.39162E-20
1.76063E-02 1.30136E-20
1.81848E-02 1.21825E-20
1.87724E-02 1.14161E-20
1.93692E-02 1.07085E-20
1.99751E-02 1.00544E-20
2.05901E-02 9.44912E-21
2.12143E-02 8.88827E-21
2.18476E-02 8.36806E-21
2.24900E-02 7.88503E-21
2.31415E-02 7.43602E-21
2.38021E-02 7.01823E-21
2.44717E-02 6.62911E-21
2.51504E-02 6.26632E-21
2.58382E-02 5.92778E-21
2.65349E-02 5.61154E-21
2.72407E-02 5.31597E-21
2.79555E-02 5.03935E-21
2.86793E-02 4.78037E-21
2.94120E-02 4.53759E-21
3.01537E-02 4.30991E-21
3.09043E-02 4.09615E-21
3.16639E-02 3.89536E-21
3.24324E-02 3.70659E-21
3.32098E-02 3.52899E-21
3.39961E-02 3.36178E-21
3.47912E-02 3.20425E-21
3.55952E-02 3.05575E-21
3.64081E-02 2.91564E-21
3.72297E-02 2.78338E-21
3.80602E-02 2.65844E-21
3.88995E-02 2.54037E-21
3.97476E-02 2.42869E-21
4.06044E-02 2.32301E-21
4.14700E-02 2.22294E-21
4.23443E-02 2.12815E-21
4.32273E-02 2.03828E-21
4.41190E-02 1.95305E-21
4.50194E-02 1.87218E-21
4.59284E-02 1.79539E-21
4.68461E-02 1.72245E-21
4.87074E-02 1.58721E-21
5.06030E-02 1.46482E-21
5.25328E-02 1.35386E-21
5.44967E-02 1.25306E-21
5.64946E-02 1.16135E-21
5.85262E-02 1.07777E-21
6.05914E-02 1.00146E-21
6.26901E-02 9.31700E-22
6.48222E-02 8.67820E-22
6.69873E-02 8.09243E-22
6.91854E-02 7.55452E-22
7.14163E-02 7.05990E-22
7.36799E-02 6.60449E-22
7.59760E-02 6.18464E-22
7.83043E-02 5.79711E-22
8.06647E-02 5.43897E-22
8.30571E-02 5.10761E-22
8.54812E-02 4.80069E-22
8.79369E-02 4.51609E-22
9.04240E-02 4.25191E-22
9.29422E-02 4.00644E-22
9.54915E-02 3.77811E-22
9.80716E-02 3.56554E-22
1.00682E-01 3.36743E-22
1.03323E-01 3.18264E-22
1.05995E-01 3.01011E-22
1.08696E-01 2.84890E-22
1.11427E-01 2.69813E-22
1.14188E-01 2.55701E-22
1.16978E-01 2.42482E-22
1.19797E-01 2.30088E-22
1.22645E-01 2.18461E-22
1.25522E-01 2.07544E-22
1.28428E-01 1.97286E-22
1.31361E-01 1.87640E-22
1.34323E-01 1.78564E-22
1.37313E-01 1.70019E-22
1.40330E-01 1.61967E-22
1.43375E-01 1.54376E-22
1.46447E-01 1.47214E-22
1.49545E-01 1.40454E-22
1.52671E-01 1.34068E-22
1.55823E-01 1.28032E-22
1.59001E-01 1.22324E-22
1.62205E-01 1.16923E-22
1.65435E-01 1.11810E-22
1.68690E-01 1.06966E-22
1.71970E-01 1.02375E-22
1.75276E-01 9.80209E-23
1.78606E-01 9.38903E-23
1.81961E-01 8.99692E-23
1.85340E-01 8.62454E-23
1.88743E-01 8.27069E-23
1.92169E-01 7.93433E-23
1.95619E-01 7.61441E-23
1.99092E-01 7.31000E-23
2.02589E-01 7.02022E-23
2.06107E-01 6.74425E-23
2.09649E-01 6.48131E-23
2.13212E-01 6.23069E-23
2.16797E-01 5.99169E-23
2.20404E-01 5.76370E-23
2.24032E-01 5.54611E-23
2.27680E-01 5.33838E-23
2.31350E-01 5.13998E-23
2.35040E-01 4.95041E-23
2.38751E-01 4.76921E-23
2.42481E-01 4.59596E-23
2.46231E-01 4.43024E-23
2.50000E-01 4.27167E-23
2.53788E-01 4.11989E-23
2.57595E-01 3.97455E-23
2.61421E-01 3.83535E-23
2.65264E-01 3.70196E-23
2.69126E-01 3.57412E-23
2.73005E-01 3.45154E-23
2.76901E-01 3.33397E-23
2.80814E-01 3.22118E-23
2.84744E-01 3.11294E-23
2.88691E-01 3.00903E-23
2.92653E-01 2.90925E-23
2.96632E-01 2.81340E-23
3.00625E-01 2.72131E-23
3.04634E-01 2.63280E-23
3.08658E-01 2.54771E-23
3.12697E-01 2.46588E-23
3.16749E-01 2.38717E-23
3.20816E-01 2.31144E-23
3.24896E-01 2.23857E-23
3.28990E-01 2.16841E-23
3.33097E-01 2.10085E-23
3.37216E-01 2.03578E-23
3.41348E-01 1.97309E-23
3.45492E-01 1.91269E-23
3.49647E-01 1.85447E-23
3.53814E-01 1.79833E-23
3.57992E-01 1.74420E-23
3.62181E-01 1.69200E-23
3.66381E-01 1.64163E-23
3.70590E-01 1.59302E-23
3.74810E-01 1.54611E-23
3.79039E-01 1.50081E-23
3.83277E-01 1.45708E-23
3.87524E-01 1.41484E-23
3.91780E-01 1.37404E-23
3.96044E-01 1.33461E-23
4.00316E-01 1.29651E-23
4.04596E-01 1.25968E-23
4.08882E-01 1.22407E-23
4.13176E-01 1.18964E-23
4.17476E-01 1.15634E-23
4.21783E-01 1.12412E-23
4.26095E-01 1.09295E-23
4.30413E-01 1.06278E-23
4.34737E-01 1.03358E-23
4.39065E-01 1.00531E-23
4.43398E-01 9.77938E-24
4.47736E-01 9.51430E-24
4.52077E-01 9.25753E-24
4.56422E-01 9.00878E-24
4.60770E-01 8.76776E-24
4.65122E-01 8.53417E-24
4.69476E-01 8.30777E-24
4.73832E-01 8.08827E-24
4.78190E-01 7.87546E-24
4.82550E-01 7.66907E-24
4.86912E-01 7.46889E-24
4.91274E-01 7.27471E-24
4.95637E-01 7.08631E-24
5.00000E-01 6.90349E-24
5.04363E-01 6.72606E-24
5.08726E-01 6.55383E-24
5.13088E-01 6.38664E-24
5.17450E-01 6.22430E-24
5.21810E-01 6.06666E-24
5.26168E-01 5.91356E-24
5.30524E-01 5.76484E-24
5.34878E-01 5.62036E-24
5.39230E-01 5.47997E-24
5.43578E-01 5.34356E-24
5.47923E-01 5.21097E-24
5.52264E-01 5.08210E-24
5.56602E-01 4.95681E-24
5.60935E-01 4.83500E-24
5.65263E-01 4.71655E-24
5.69587E-01 4.60135E-24
5.73905E-01 4.48930E-24
5.78217E-01 4.38030E-24
5.82524E-01 4.27426E-24
5.86824E-01 4.17109E-24
5.91118E-01 4.07068E-24
5.95404E-01 3.97297E-24
5.99684E-01 3.87786E-24
6.03956E-01 3.78527E-24
6.08220E-01 3.69513E-24
6.12476E-01 3.60737E-24
6.16723E-01 3.52191E-24
6.20961E-01 3.43868E-24
6.25190E-01 3.35761E-24
6.29410E-01 3.27864E-24
6.33619E-01 3.20171E-24
6.37819E-01 3.12676E-24
6.42008E-01 3.05372E-24
6.46186E-01 2.98255E-24
6.50353E-01 2.91318E-24
6.54508E-01 2.84558E-24
6.58652E-01 2.77967E-24
6.62784E-01 2.71542E-24
6.66903E-01 2.65278E-24
6.71010E-01 2.59171E-24
6.75104E-01 2.53215E-24
6.79184E-01 2.47406E-24
6.83251E-01 2.41741E-24
6.87303E-01 2.36216E-24
6.91342E-01 2.30826E-24
6.95366E-01 2.25567E-24
6.99375E-01 2.20437E-24
7.03368E-01 2.15431E-24
7.07347E-01 2.10546E-24
7.11309E-01 2.05779E-24
7.15256E-01 2.01126E-24
7.19186E-01 1.96585E-24
7.23099E-01 1.92153E-24
7.26995E-01 1.87826E-24
7.30874E-01 1.83602E-24
7.34736E-01 1.79478E-24
7.38579E-01 1.75451E-24
7.42405E-01 1.71519E-24
7.46212E-01 1.67679E-24
7.50000E-01 1.63929E-24
7.53769E-01 1.60267E-24
7.57519E-01 1.56690E-24
7.61249E-01 1.53197E-24
7.64960E-01 1.49784E-24
7.68650E-01 1.46450E-24
7.72320E-01 1.43193E-24
7.75968E-01 1.40011E-24
7.79596E-01 1.36903E-24
7.83203E-01 1.33865E-24
7.86788E-01 1.30897E-24
7.90351E-01 1.27997E-24
7.93893E-01 1.25162E-24
7.97411E-01 1.22393E-24
8.00908E-01 1.19686E-24
8.04381E-01 1.17040E-24
8.07831E-01 1.14454E-24
8.11257E-01 1.11927E-24
8.14660E-01 1.09456E-24
8.18039E-01 1.07042E-24
8.21394E-01 1.04681E-24
8.24724E-01 1.02374E-24
8.28030E-01 1.00118E-24
8.31310E-01 9.79129E-25
8.34565E-01 9.57572E-25
8.37795E-01 9.36497E-25
8.40999E-01 9.15893E-25
8.44177E-01 8.95749E-25
8.47329E-01 8.76055E-25
8.50455E-01 8.56801E-25
8.53553E-01 8.37977E-25
8.56625E-01 8.19573E-25
8.59670E-01 8.01579E-25
8.62687E-01 7.83987E-25
8.65677E-01 7.66788E-25
8.68639E-01 7.49972E-25
8.71572E-01 7.33532E-25
8.74478E-01 7.17460E-25
8.77355E-01 7.01747E-25
8.80203E-01 6.86387E-25
8.83022E-01 6.71370E-25
8.85812E-01 6.56690E-25
8.88573E-01 6.42341E-25
8.91304E-01 6.28314E-25
8.94005E-01 6.14604E-25
8.96677E-01 6.01203E-25
8.99318E-01 5.88106E-25
9.01928E-01 5.75306E-25
9.04508E-01 5.62798E-25
9.07058E-01 5.50575E-25
9.09576E-01 5.38631E-25
9.12063E-01 5.26962E-25
9.14519E-01 5.15562E-25
9.16943E-01 5.04425E-25
9.19335E-01 4.93547E-25
9.21696E-01 4.82922E-25
9.24024E-01 4.72547E-25
9.26320E-01 4.62415E-25
9.28584E-01 4.52523E-25
9.30815E-01 4.42867E-25
9.33013E-01 4.33441E-25
9.35178E-01 4.24242E-25
9.37310E-01 4.15266E-25
9.39409E-01 4.06509E-25
9.41474E-01 3.97967E-25
9.43505E-01 3.89636E-25
9.45503E-01 3.81512E-25
9.47467E-01 3.73593E-25
9.49397E-01 3.65874E-25
9.51293E-01 3.58353E-25
9.53154E-01 3.51026E-25
9.54981E-01 3.43890E-25
9.56773E-01 3.36942E-25
9.58530E-01 3.30179E-25
9.60252E-01 3.23599E-25
9.61940E-01 3.17198E-25
9.63592E-01 3.10974E-25
9.65209E-01 3.04924E-25
9.66790E-01 2.99046E-25
9.68336E-01 2.93337E-25
9.69846E-01 2.87795E-25
9.71321E-01 2.82417E-25
9.72759E-01 2.77202E-25
9.74162E-01 2.72147E-25
9.75528E-01 2.67251E-25
9.76858E-01 2.62510E-25
9.78152E-01 2.57924E-25
9.79410E-01 2.53490E-25
9.80631E-01 2.49207E-25
9.81815E-01 2.45073E-25
9.82963E-01 2.41086E-25
9.84074E-01 2.37245E-25
9.85148E-01 2.33548E-25
9.86185E-01 2.29993E-25
9.87185E-01 2.26580E-25
9.88148E-01 2.23306E-25
9.89074E-01 2.20171E-25
9.89962E-01 2.17173E-25
9.90814E-01 2.14311E-25
9.91627E-01 2.11584E-25
9.92404E-01 2.08992E-25
9.93143E-01 2.06531E-25
9.93844E-01 2.04203E-25
9.94508E-01 2.02006E-25
9.95134E-01 1.99939E-25
9.95722E-01 1.98001E-25
9.96273E-01 1.96192E-25
9.96786E-01 1.94510E-25
9.97261E-01 1.92956E-25
9.97698E-01 1.91528E-25
9.98097E-01 1.90227E-25
9.98459E-01 1.89051E-25
9.98782E-01 1.87999E-25
9.99067E-01 1.87073E-25
9.99315E-01 1.86271E-25
9.99524E-01 1.85592E-25
9.99695E-01 1.85038E-25
9.99829E-01 1.84606E-25
9.99924E-01 1.84299E-25
9.99981E-01 1.84114E-25
1.00000E+00 1.84052E-25
