 #
 # Subroutine ELSEPA. Elastic scattering of electrons and positrons
 #                    by neutral atoms and positive ions
 #
 # Projectile: positron
 # Kinetic energy = 8.00000E+07 eV = 2.93995E+06 a.u.
 #
 # WARNING: High-energy factorization with free-atom DF screening.
 #          Absorption, polarization and exchange corrections are
 #          switched off.
 #          Phase shifts are calculated for the bare nucleus.
 #          Scattering amplitudes are not evaluated.
 #
 # Element: Ra,  Z =  88,  atomic weight = 2.26025E+02 g/mol
 #
 # Nuclear model: Fermi distribution
 #                Average radius = 6.51783E-13 cm
 #                Skin thickness = 5.46000E-14 cm
 #
 # Number of electrons = 88
 #
 # Total elastic cross section = 1.11175E-17 cm**2 = 3.97013E-01 a0**2
 # 1st transport cross section = 2.12075E-24 cm**2 = 7.57334E-08 a0**2
 # 2nd transport cross section = 6.27628E-24 cm**2 = 2.24130E-07 a0**2
 #
 #
 # Differential cross section:                       MU=(1-COS(THETA))/2
 #
 #  THETA        MU          DCS          DCS        Sherman      error
 #  (deg)                 (cm**2/sr)   (a0**2/sr)    function
 #----------------------------------------------------------------------
0.00000E+00 9.85556E-10
7.61557E-13 9.82021E-10
1.18994E-12 9.80045E-10
1.71346E-12 9.77640E-10
2.33225E-12 9.74810E-10
3.04617E-12 9.71563E-10
3.85530E-12 9.67905E-10
4.75964E-12 9.63843E-10
5.75917E-12 9.59387E-10
6.85391E-12 9.54547E-10
8.04379E-12 9.49332E-10
9.32893E-12 9.43754E-10
1.07092E-11 9.37823E-10
1.21847E-11 9.31553E-10
1.37554E-11 9.24954E-10
1.54213E-11 9.18043E-10
1.71823E-11 9.10829E-10
1.90386E-11 9.03330E-10
2.09900E-11 8.95557E-10
2.30367E-11 8.87527E-10
2.51785E-11 8.79253E-10
2.74156E-11 8.70751E-10
2.97478E-11 8.62035E-10
3.21752E-11 8.53119E-10
3.46979E-11 8.44021E-10
3.73157E-11 8.34848E-10
4.00286E-11 8.25523E-10
4.28368E-11 8.16018E-10
4.57402E-11 8.06343E-10
4.87388E-11 7.96512E-10
5.18325E-11 7.86536E-10
5.50215E-11 7.76427E-10
5.83057E-11 7.66516E-10
6.16850E-11 7.56523E-10
6.51595E-11 7.46433E-10
6.87293E-11 7.36256E-10
7.23943E-11 7.26004E-10
7.61544E-11 7.15686E-10
1.18991E-10 6.15518E-10
1.71347E-10 5.23303E-10
2.33223E-10 4.43434E-10
3.04617E-10 3.76508E-10
3.85531E-10 3.21478E-10
4.75965E-10 2.76605E-10
5.75917E-10 2.39839E-10
6.85389E-10 2.09585E-10
8.04380E-10 1.84366E-10
9.32891E-10 1.63131E-10
1.07092E-09 1.45065E-10
1.21847E-09 1.29503E-10
1.37554E-09 1.16043E-10
1.54213E-09 1.04267E-10
1.71823E-09 9.39584E-11
1.90386E-09 8.48585E-11
2.09900E-09 7.68258E-11
2.30367E-09 6.96988E-11
2.51785E-09 6.33692E-11
2.74156E-09 5.77347E-11
2.97478E-09 5.27064E-11
3.21752E-09 4.82173E-11
3.46978E-09 4.41937E-11
3.73156E-09 4.04262E-11
4.00286E-09 3.70581E-11
4.28368E-09 3.40998E-11
4.57402E-09 3.14915E-11
4.87388E-09 2.91832E-11
5.18326E-09 2.71331E-11
5.50215E-09 2.53061E-11
5.83057E-09 2.34567E-11
6.16850E-09 2.17885E-11
6.51596E-09 2.02950E-11
6.87293E-09 1.89540E-11
7.23942E-09 1.77466E-11
7.61544E-09 1.66565E-11
1.18991E-08 9.11719E-12
1.71347E-08 5.42462E-12
2.33223E-08 3.42907E-12
3.04617E-08 2.28050E-12
3.85531E-08 1.58028E-12
4.75965E-08 1.13033E-12
5.75917E-08 8.29959E-13
6.85389E-08 6.21762E-13
8.04380E-08 4.74627E-13
9.32891E-08 3.67907E-13
1.07092E-07 2.89283E-13
1.21847E-07 2.30605E-13
1.37554E-07 1.86303E-13
1.54213E-07 1.52186E-13
1.71823E-07 1.25599E-13
1.90386E-07 1.04583E-13
2.09900E-07 8.78255E-14
2.30367E-07 7.43218E-14
2.51785E-07 6.33417E-14
2.74156E-07 5.43291E-14
2.97478E-07 4.68666E-14
3.21752E-07 4.06452E-14
3.46978E-07 3.54213E-14
3.73156E-07 3.09918E-14
4.00286E-07 2.72507E-14
4.28368E-07 2.40824E-14
4.57402E-07 2.13312E-14
4.87388E-07 1.89780E-14
5.18325E-07 1.69454E-14
5.50215E-07 1.51685E-14
5.83057E-07 1.36278E-14
6.16850E-07 1.22755E-14
6.51596E-07 1.10859E-14
6.87293E-07 1.00426E-14
7.23942E-07 9.11419E-15
7.61543E-07 8.29277E-15
1.18991E-06 3.58473E-15
1.71347E-06 1.78985E-15
2.33223E-06 9.89461E-16
3.04617E-06 5.90729E-16
3.85531E-06 3.74305E-16
4.75964E-06 2.48588E-16
5.75916E-06 1.71504E-16
6.85388E-06 1.22101E-16
8.04378E-06 8.92531E-17
9.32888E-06 6.67321E-17
1.07092E-05 5.08781E-17
1.21846E-05 3.94586E-17
1.37553E-05 3.10672E-17
1.54212E-05 2.47906E-17
1.71822E-05 2.00207E-17
1.90385E-05 1.63326E-17
2.09899E-05 1.34752E-17
2.30365E-05 1.12136E-17
2.51783E-05 9.40377E-18
2.74153E-05 7.94228E-18
2.97475E-05 6.75281E-18
3.21749E-05 5.77784E-18
3.46974E-05 4.97319E-18
3.73152E-05 4.30450E-18
4.00281E-05 3.74497E-18
4.28362E-05 3.27369E-18
4.57395E-05 2.87419E-18
4.87380E-05 2.53368E-18
5.18317E-05 2.24193E-18
5.50205E-05 1.99089E-18
5.83045E-05 1.77395E-18
6.16838E-05 1.58579E-18
6.51582E-05 1.42195E-18
6.87277E-05 1.27877E-18
7.23925E-05 1.15318E-18
7.61524E-05 1.04262E-18
9.21439E-05 7.13254E-19
1.09658E-04 5.04186E-19
1.28695E-04 3.66375E-19
1.49255E-04 2.72556E-19
1.71338E-04 2.06913E-19
1.94942E-04 1.59879E-19
2.20070E-04 1.25469E-19
2.46720E-04 9.98292E-20
2.74892E-04 8.04113E-20
3.04586E-04 6.54873E-20
3.35803E-04 5.38675E-20
3.68542E-04 4.47110E-20
4.02802E-04 3.74178E-20
4.38585E-04 3.15512E-20
4.75889E-04 2.67889E-20
5.14715E-04 2.28913E-20
5.55063E-04 1.96763E-20
5.96931E-04 1.70057E-20
6.40321E-04 1.47726E-20
6.85233E-04 1.28937E-20
7.31665E-04 1.13039E-20
7.79618E-04 9.95124E-21
8.29092E-04 8.79475E-21
8.80086E-04 7.80119E-21
9.32601E-04 6.94380E-21
9.86636E-04 6.20086E-21
1.04219E-03 5.55446E-21
1.09927E-03 4.99002E-21
1.15786E-03 4.49531E-21
1.21797E-03 4.06033E-21
1.27961E-03 3.67658E-21
1.34276E-03 3.33704E-21
1.40743E-03 3.03571E-21
1.47362E-03 2.76757E-21
1.54133E-03 2.52831E-21
1.61056E-03 2.31431E-21
1.68131E-03 2.12241E-21
1.75357E-03 1.94996E-21
1.82735E-03 1.79461E-21
1.90265E-03 1.65440E-21
1.97947E-03 1.52758E-21
2.05780E-03 1.41264E-21
2.13765E-03 1.30829E-21
2.21902E-03 1.21336E-21
2.30190E-03 1.12687E-21
2.38630E-03 1.04792E-21
2.47222E-03 9.75739E-22
2.55965E-03 9.09649E-22
2.64859E-03 8.49042E-22
2.73905E-03 7.93381E-22
2.83103E-03 7.42191E-22
2.92452E-03 6.95048E-22
3.01952E-03 6.51575E-22
3.11604E-03 6.11435E-22
3.21407E-03 5.74326E-22
3.31362E-03 5.39979E-22
3.41468E-03 5.08151E-22
3.51725E-03 4.78624E-22
3.62133E-03 4.51201E-22
3.72692E-03 4.25707E-22
3.83403E-03 4.01980E-22
3.94265E-03 3.79878E-22
4.05278E-03 3.59269E-22
4.16442E-03 3.40037E-22
4.27757E-03 3.22077E-22
4.39223E-03 3.05259E-22
4.50840E-03 2.89516E-22
4.62608E-03 2.74769E-22
4.74527E-03 2.60944E-22
4.86597E-03 2.47971E-22
4.98817E-03 2.35790E-22
5.11188E-03 2.24343E-22
5.23711E-03 2.13577E-22
5.36383E-03 2.03446E-22
5.49207E-03 1.93903E-22
5.62181E-03 1.84910E-22
5.75306E-03 1.76428E-22
5.88581E-03 1.68424E-22
6.02007E-03 1.60864E-22
6.15583E-03 1.53721E-22
6.29310E-03 1.46967E-22
6.43187E-03 1.40577E-22
6.57214E-03 1.34527E-22
6.71392E-03 1.28797E-22
6.85720E-03 1.23365E-22
7.00198E-03 1.18215E-22
7.14827E-03 1.13328E-22
7.29605E-03 1.08689E-22
7.44534E-03 1.04282E-22
7.59612E-03 1.00094E-22
7.97965E-03 9.05007E-23
8.37255E-03 8.20184E-23
8.77480E-03 7.44971E-23
9.18641E-03 6.78096E-23
9.60736E-03 6.18477E-23
1.00376E-02 5.65193E-23
1.04773E-02 5.17457E-23
1.09262E-02 4.74594E-23
1.13844E-02 4.36020E-23
1.18520E-02 4.01233E-23
1.23288E-02 3.69799E-23
1.28150E-02 3.41338E-23
1.33104E-02 3.15521E-23
1.38150E-02 2.92061E-23
1.43290E-02 2.70705E-23
1.48521E-02 2.51233E-23
1.53845E-02 2.33450E-23
1.59262E-02 2.17183E-23
1.64770E-02 2.02283E-23
1.70371E-02 1.88614E-23
1.76063E-02 1.76057E-23
1.81848E-02 1.64505E-23
1.87724E-02 1.53866E-23
1.93692E-02 1.44054E-23
1.99751E-02 1.34994E-23
2.05901E-02 1.26619E-23
2.12143E-02 1.18867E-23
2.18476E-02 1.11685E-23
2.24900E-02 1.05024E-23
2.31415E-02 9.88387E-24
2.38021E-02 9.30902E-24
2.44717E-02 8.77420E-24
2.51504E-02 8.27617E-24
2.58382E-02 7.81196E-24
2.65349E-02 7.37889E-24
2.72407E-02 6.97450E-24
2.79555E-02 6.59659E-24
2.86793E-02 6.24312E-24
2.94120E-02 5.91224E-24
3.01537E-02 5.60228E-24
3.09043E-02 5.31167E-24
3.16639E-02 5.03902E-24
3.24324E-02 4.78303E-24
3.32098E-02 4.54250E-24
3.39961E-02 4.31635E-24
3.47912E-02 4.10358E-24
3.55952E-02 3.90325E-24
3.64081E-02 3.71453E-24
3.72297E-02 3.53663E-24
3.80602E-02 3.36882E-24
3.88995E-02 3.21044E-24
3.97476E-02 3.06087E-24
4.06044E-02 2.91954E-24
4.14700E-02 2.78592E-24
4.23443E-02 2.65953E-24
4.32273E-02 2.53990E-24
4.41190E-02 2.42662E-24
4.50194E-02 2.31929E-24
4.59284E-02 2.21756E-24
4.68461E-02 2.12107E-24
4.87074E-02 1.94263E-24
5.06030E-02 1.78168E-24
5.25328E-02 1.63626E-24
5.44967E-02 1.50464E-24
5.64946E-02 1.38532E-24
5.85262E-02 1.27698E-24
6.05914E-02 1.17845E-24
6.26901E-02 1.08872E-24
6.48222E-02 1.00689E-24
6.69873E-02 9.32158E-25
6.91854E-02 8.63821E-25
7.14163E-02 8.01253E-25
7.36799E-02 7.43896E-25
7.59760E-02 6.91256E-25
7.83043E-02 6.42888E-25
8.06647E-02 5.98398E-25
8.30571E-02 5.57431E-25
8.54812E-02 5.19669E-25
8.79369E-02 4.84827E-25
9.04240E-02 4.52648E-25
9.29422E-02 4.22900E-25
9.54915E-02 3.95376E-25
9.80716E-02 3.69886E-25
1.00682E-01 3.46260E-25
1.03323E-01 3.24344E-25
1.05995E-01 3.03997E-25
1.08696E-01 2.85093E-25
1.11427E-01 2.67516E-25
1.14188E-01 2.51161E-25
1.16978E-01 2.35932E-25
1.19797E-01 2.21741E-25
1.22645E-01 2.08509E-25
1.25522E-01 1.96164E-25
1.28428E-01 1.84637E-25
1.31361E-01 1.73869E-25
1.34323E-01 1.63804E-25
1.37313E-01 1.54389E-25
1.40330E-01 1.45578E-25
1.43375E-01 1.37327E-25
1.46447E-01 1.29597E-25
1.49545E-01 1.22351E-25
1.52671E-01 1.15555E-25
1.55823E-01 1.09178E-25
1.59001E-01 1.03191E-25
1.62205E-01 9.75679E-26
1.65435E-01 9.22836E-26
1.68690E-01 8.73156E-26
1.71970E-01 8.26429E-26
1.75276E-01 7.82460E-26
1.78606E-01 7.41069E-26
1.81961E-01 7.02088E-26
1.85340E-01 6.65362E-26
1.88743E-01 6.30747E-26
1.92169E-01 5.98109E-26
1.95619E-01 5.67323E-26
1.99092E-01 5.38273E-26
2.02589E-01 5.10852E-26
2.06107E-01 4.84959E-26
2.09649E-01 4.60499E-26
2.13212E-01 4.37387E-26
2.16797E-01 4.15540E-26
2.20404E-01 3.94883E-26
2.24032E-01 3.75344E-26
2.27680E-01 3.56857E-26
2.31350E-01 3.39360E-26
2.35040E-01 3.22796E-26
2.38751E-01 3.07109E-26
2.42481E-01 2.92249E-26
2.46231E-01 2.78168E-26
2.50000E-01 2.64822E-26
2.53788E-01 2.52169E-26
2.57595E-01 2.40170E-26
2.61421E-01 2.28788E-26
2.65264E-01 2.17989E-26
2.69126E-01 2.07740E-26
2.73005E-01 1.98010E-26
2.76901E-01 1.88772E-26
2.80814E-01 1.79998E-26
2.84744E-01 1.71662E-26
2.88691E-01 1.63742E-26
2.92653E-01 1.56215E-26
2.96632E-01 1.49060E-26
3.00625E-01 1.42256E-26
3.04634E-01 1.35786E-26
3.08658E-01 1.29631E-26
3.12697E-01 1.23775E-26
3.16749E-01 1.18202E-26
3.20816E-01 1.12898E-26
3.24896E-01 1.07849E-26
3.28990E-01 1.03041E-26
3.33097E-01 9.84618E-27
3.37216E-01 9.41002E-27
3.41348E-01 8.99448E-27
3.45492E-01 8.59852E-27
3.49647E-01 8.22114E-27
3.53814E-01 7.86142E-27
3.57992E-01 7.51846E-27
3.62181E-01 7.19143E-27
3.66381E-01 6.87954E-27
3.70590E-01 6.58203E-27
3.74810E-01 6.29820E-27
3.79039E-01 6.02738E-27
3.83277E-01 5.76892E-27
3.87524E-01 5.52223E-27
3.91780E-01 5.28673E-27
3.96044E-01 5.06188E-27
4.00316E-01 4.84716E-27
4.04596E-01 4.64210E-27
4.08882E-01 4.44623E-27
4.13176E-01 4.25910E-27
4.17476E-01 4.08031E-27
4.21783E-01 3.90946E-27
4.26095E-01 3.74617E-27
4.30413E-01 3.59008E-27
4.34737E-01 3.44087E-27
4.39065E-01 3.29820E-27
4.43398E-01 3.16178E-27
4.47736E-01 3.03131E-27
4.52077E-01 2.90651E-27
4.56422E-01 2.78713E-27
4.60770E-01 2.67292E-27
4.65122E-01 2.56364E-27
4.69476E-01 2.45906E-27
4.73832E-01 2.35897E-27
4.78190E-01 2.26316E-27
4.82550E-01 2.17145E-27
4.86912E-01 2.08364E-27
4.91274E-01 1.99956E-27
4.95637E-01 1.91904E-27
5.00000E-01 1.84193E-27
5.04363E-01 1.76807E-27
5.08726E-01 1.69731E-27
5.13088E-01 1.62952E-27
5.17450E-01 1.56457E-27
5.21810E-01 1.50233E-27
5.26168E-01 1.44269E-27
5.30524E-01 1.38552E-27
5.34878E-01 1.33072E-27
5.39230E-01 1.27819E-27
5.43578E-01 1.22782E-27
5.47923E-01 1.17953E-27
5.52264E-01 1.13322E-27
5.56602E-01 1.08881E-27
5.60935E-01 1.04622E-27
5.65263E-01 1.00536E-27
5.69587E-01 9.66163E-28
5.73905E-01 9.28560E-28
5.78217E-01 8.92481E-28
5.82524E-01 8.57861E-28
5.86824E-01 8.24638E-28
5.91118E-01 7.92753E-28
5.95404E-01 7.62148E-28
5.99684E-01 7.32771E-28
6.03956E-01 7.04570E-28
6.08220E-01 6.77495E-28
6.12476E-01 6.51498E-28
6.16723E-01 6.26535E-28
6.20961E-01 6.02563E-28
6.25190E-01 5.79541E-28
6.29410E-01 5.57429E-28
6.33619E-01 5.36189E-28
6.37819E-01 5.15785E-28
6.42008E-01 4.96183E-28
6.46186E-01 4.77350E-28
6.50353E-01 4.59254E-28
6.54508E-01 4.41865E-28
6.58652E-01 4.25154E-28
6.62784E-01 4.09094E-28
6.66903E-01 3.93658E-28
6.71010E-01 3.78820E-28
6.75104E-01 3.64557E-28
6.79184E-01 3.50844E-28
6.83251E-01 3.37661E-28
6.87303E-01 3.24985E-28
6.91342E-01 3.12796E-28
6.95366E-01 3.01075E-28
6.99375E-01 2.89803E-28
7.03368E-01 2.78961E-28
7.07347E-01 2.68534E-28
7.11309E-01 2.58503E-28
7.15256E-01 2.48854E-28
7.19186E-01 2.39571E-28
7.23099E-01 2.30640E-28
7.26995E-01 2.22047E-28
7.30874E-01 2.13779E-28
7.34736E-01 2.05823E-28
7.38579E-01 1.98166E-28
7.42405E-01 1.90796E-28
7.46212E-01 1.83704E-28
7.50000E-01 1.76877E-28
7.53769E-01 1.70305E-28
7.57519E-01 1.63979E-28
7.61249E-01 1.57889E-28
7.64960E-01 1.52026E-28
7.68650E-01 1.46381E-28
7.72320E-01 1.40945E-28
7.75968E-01 1.35711E-28
7.79596E-01 1.30670E-28
7.83203E-01 1.25816E-28
7.86788E-01 1.21141E-28
7.90351E-01 1.16638E-28
7.93893E-01 1.12300E-28
7.97411E-01 1.08123E-28
8.00908E-01 1.04098E-28
8.04381E-01 1.00221E-28
8.07831E-01 9.64856E-29
8.11257E-01 9.28868E-29
8.14660E-01 8.94194E-29
8.18039E-01 8.60783E-29
8.21394E-01 8.28589E-29
8.24724E-01 7.97564E-29
8.28030E-01 7.67666E-29
8.31310E-01 7.38852E-29
8.34565E-01 7.11081E-29
8.37795E-01 6.84315E-29
8.40999E-01 6.58516E-29
8.44177E-01 6.33648E-29
8.47329E-01 6.09676E-29
8.50455E-01 5.86568E-29
8.53553E-01 5.64290E-29
8.56625E-01 5.42813E-29
8.59670E-01 5.22107E-29
8.62687E-01 5.02143E-29
8.65677E-01 4.82895E-29
8.68639E-01 4.64335E-29
8.71572E-01 4.46439E-29
8.74478E-01 4.29182E-29
8.77355E-01 4.12542E-29
8.80203E-01 3.96495E-29
8.83022E-01 3.81020E-29
8.85812E-01 3.66096E-29
8.88573E-01 3.51703E-29
8.91304E-01 3.37822E-29
8.94005E-01 3.24435E-29
8.96677E-01 3.11524E-29
8.99318E-01 2.99072E-29
9.01928E-01 2.87062E-29
9.04508E-01 2.75478E-29
9.07058E-01 2.64305E-29
9.09576E-01 2.53529E-29
9.12063E-01 2.43136E-29
9.14519E-01 2.33111E-29
9.16943E-01 2.23442E-29
9.19335E-01 2.14117E-29
9.21696E-01 2.05123E-29
9.24024E-01 1.96448E-29
9.26320E-01 1.88082E-29
9.28584E-01 1.80014E-29
9.30815E-01 1.72233E-29
9.33013E-01 1.64729E-29
9.35178E-01 1.57493E-29
9.37310E-01 1.50516E-29
9.39409E-01 1.43789E-29
9.41474E-01 1.37302E-29
9.43505E-01 1.31049E-29
9.45503E-01 1.25021E-29
9.47467E-01 1.19210E-29
9.49397E-01 1.13610E-29
9.51293E-01 1.08212E-29
9.53154E-01 1.03011E-29
9.54981E-01 9.80004E-30
9.56773E-01 9.31730E-30
9.58530E-01 8.85233E-30
9.60252E-01 8.40455E-30
9.61940E-01 7.97340E-30
9.63592E-01 7.55834E-30
9.65209E-01 7.15887E-30
9.66790E-01 6.77450E-30
9.68336E-01 6.40474E-30
9.69846E-01 6.04915E-30
9.71321E-01 5.70729E-30
9.72759E-01 5.37874E-30
9.74162E-01 5.06309E-30
9.75528E-01 4.75997E-30
9.76858E-01 4.46901E-30
9.78152E-01 4.18984E-30
9.79410E-01 3.92214E-30
9.80631E-01 3.66557E-30
9.81815E-01 3.41983E-30
9.82963E-01 3.18462E-30
9.84074E-01 2.95965E-30
9.85148E-01 2.74465E-30
9.86185E-01 2.53937E-30
9.87185E-01 2.34355E-30
9.88148E-01 2.15697E-30
9.89074E-01 1.97939E-30
9.89962E-01 1.81061E-30
9.90814E-01 1.65043E-30
9.91627E-01 1.49864E-30
9.92404E-01 1.35507E-30
9.93143E-01 1.21955E-30
9.93844E-01 1.09192E-30
9.94508E-01 9.72027E-31
9.95134E-01 8.59723E-31
9.95722E-01 7.54878E-31
9.96273E-01 6.57366E-31
9.96786E-01 5.67072E-31
9.97261E-01 4.83889E-31
9.97698E-01 4.07719E-31
9.98097E-01 3.38470E-31
9.98459E-01 2.76061E-31
9.98782E-01 2.20418E-31
9.99067E-01 1.71475E-31
9.99315E-01 1.29174E-31
9.99524E-01 9.34652E-32
9.99695E-01 6.43064E-32
9.99829E-01 4.16631E-32
9.99924E-01 2.55084E-32
9.99981E-01 1.58232E-32
1.00000E+00 1.25958E-32
