 #
 # Subroutine ELSEPA. Elastic scattering of electrons and positrons
 #                    by neutral atoms and positive ions
 #
 # Projectile: positron
 # Kinetic energy = 1.50000E+06 eV = 5.51240E+04 a.u.
 #
 # Element: Ra,  Z =  88,  atomic weight = 2.26025E+02 g/mol
 #
 # Nuclear model: Fermi distribution
 #                Average radius = 6.51783E-13 cm
 #                Skin thickness = 5.46000E-14 cm
 #
 # Number of electrons = 88
 #
 # Electron density: Read from file Data/z_088.d
 #                   Number of data points =  859
 #                   Volume integral = 8.80000E+01
 #
 # Total elastic cross section = 1.17843E-17 cm**2 = 4.20826E-01 a0**2
 # 1st transport cross section = 1.98599E-21 cm**2 = 7.09212E-05 a0**2
 # 2nd transport cross section = 5.60304E-21 cm**2 = 2.00088E-04 a0**2
 #
 #
 # Differential cross section:                       MU=(1-COS(THETA))/2
 #
 #  THETA        MU          DCS          DCS        Sherman      error
 #  (deg)                 (cm**2/sr)   (a0**2/sr)    function
 #----------------------------------------------------------------------
0.00000E+00 6.12727E-13
7.61557E-13 6.12726E-13
1.18994E-12 6.12725E-13
1.71346E-12 6.12725E-13
2.33225E-12 6.12724E-13
3.04617E-12 6.12722E-13
3.85530E-12 6.12721E-13
4.75964E-12 6.12719E-13
5.75917E-12 6.12718E-13
6.85391E-12 6.12716E-13
8.04379E-12 6.12714E-13
9.32893E-12 6.12712E-13
1.07092E-11 6.12709E-13
1.21847E-11 6.12707E-13
1.37554E-11 6.12704E-13
1.54213E-11 6.12701E-13
1.71823E-11 6.12698E-13
1.90386E-11 6.12695E-13
2.09900E-11 6.12692E-13
2.30367E-11 6.12689E-13
2.51785E-11 6.12685E-13
2.74156E-11 6.12681E-13
2.97478E-11 6.12677E-13
3.21752E-11 6.12673E-13
3.46979E-11 6.12669E-13
3.73157E-11 6.12664E-13
4.00286E-11 6.12660E-13
4.28368E-11 6.12655E-13
4.57402E-11 6.12650E-13
4.87388E-11 6.12645E-13
5.18325E-11 6.12640E-13
5.50215E-11 6.12635E-13
5.83057E-11 6.12629E-13
6.16850E-11 6.12623E-13
6.51595E-11 6.12618E-13
6.87293E-11 6.12612E-13
7.23943E-11 6.12605E-13
7.61544E-11 6.12599E-13
1.18991E-10 6.12527E-13
1.71347E-10 6.12439E-13
2.33223E-10 6.12334E-13
3.04617E-10 6.12214E-13
3.85531E-10 6.12078E-13
4.75965E-10 6.11925E-13
5.75917E-10 6.11757E-13
6.85389E-10 6.11573E-13
8.04380E-10 6.11373E-13
9.32891E-10 6.11157E-13
1.07092E-09 6.10925E-13
1.21847E-09 6.10678E-13
1.37554E-09 6.10415E-13
1.54213E-09 6.10135E-13
1.71823E-09 6.09841E-13
1.90386E-09 6.09530E-13
2.09900E-09 6.09204E-13
2.30367E-09 6.08862E-13
2.51785E-09 6.08505E-13
2.74156E-09 6.08132E-13
2.97478E-09 6.07744E-13
3.21752E-09 6.07340E-13
3.46978E-09 6.06921E-13
3.73156E-09 6.06487E-13
4.00286E-09 6.06037E-13
4.28368E-09 6.05572E-13
4.57402E-09 6.05092E-13
4.87388E-09 6.04597E-13
5.18326E-09 6.04087E-13
5.50215E-09 6.03562E-13
5.83057E-09 6.03022E-13
6.16850E-09 6.02468E-13
6.51596E-09 6.01898E-13
6.87293E-09 6.01314E-13
7.23942E-09 6.00716E-13
7.61544E-09 6.00103E-13
1.18991E-08 5.93191E-13
1.71347E-08 5.84921E-13
2.33223E-08 5.75395E-13
3.04617E-08 5.64724E-13
3.85531E-08 5.53027E-13
4.75965E-08 5.40433E-13
5.75917E-08 5.27071E-13
6.85389E-08 5.13072E-13
8.04380E-08 4.98566E-13
9.32891E-08 4.83679E-13
1.07092E-07 4.68530E-13
1.21847E-07 4.53232E-13
1.37554E-07 4.37890E-13
1.54213E-07 4.22597E-13
1.71823E-07 4.07439E-13
1.90386E-07 3.92490E-13
2.09900E-07 3.77815E-13
2.30367E-07 3.63468E-13
2.51785E-07 3.49493E-13
2.74156E-07 3.35928E-13
2.97478E-07 3.22800E-13
3.21752E-07 3.10129E-13
3.46978E-07 2.97927E-13
3.73156E-07 2.86204E-13
4.00286E-07 2.74960E-13
4.28368E-07 2.64193E-13
4.57402E-07 2.53898E-13
4.87388E-07 2.44065E-13
5.18325E-07 2.34683E-13
5.50215E-07 2.25738E-13
5.83057E-07 2.17214E-13
6.16850E-07 2.09095E-13
6.51596E-07 2.01365E-13
6.87293E-07 1.94006E-13
7.23942E-07 1.87001E-13
7.61543E-07 1.80332E-13
1.18991E-06 1.28608E-13
1.71347E-06 9.53379E-14
2.33223E-06 7.25708E-14
3.04617E-06 5.62466E-14
3.85531E-06 4.42090E-14
4.75964E-06 3.51843E-14
5.75916E-06 2.83382E-14
6.85388E-06 2.30893E-14
8.04378E-06 1.90202E-14
9.32888E-06 1.58289E-14
1.07092E-05 1.32960E-14
1.21846E-05 1.12619E-14
1.37553E-05 9.61019E-15
1.54212E-05 8.25516E-15
1.71822E-05 7.13330E-15
1.90385E-05 6.19692E-15
2.09899E-05 5.40979E-15
2.30365E-05 4.74396E-15
2.51783E-05 4.17761E-15
2.74153E-05 3.69347E-15
2.97475E-05 3.27774E-15
3.21749E-05 2.91924E-15
3.46974E-05 2.60885E-15
3.73152E-05 2.33909E-15
4.00281E-05 2.10379E-15
4.28362E-05 1.89779E-15
4.57395E-05 1.71682E-15
4.87380E-05 1.55730E-15
5.18317E-05 1.41620E-15
5.50205E-05 1.29099E-15
5.83045E-05 1.17954E-15
6.16838E-05 1.08002E-15
6.51582E-05 9.90907E-16
6.87277E-05 9.10879E-16
7.23925E-05 8.38820E-16
7.61524E-05 7.73773E-16
9.21439E-05 5.68835E-16
1.09658E-04 4.27029E-16
1.28695E-04 3.26319E-16
1.49255E-04 2.53308E-16
1.71338E-04 1.99464E-16
1.94942E-04 1.59150E-16
2.20070E-04 1.28539E-16
2.46720E-04 1.04984E-16
2.74892E-04 8.66262E-17
3.04586E-04 7.21446E-17
3.35803E-04 6.05909E-17
3.68542E-04 5.12762E-17
4.02802E-04 4.36943E-17
4.38585E-04 3.74688E-17
4.75889E-04 3.23165E-17
5.14715E-04 2.80216E-17
5.55063E-04 2.44178E-17
5.96931E-04 2.13756E-17
6.40321E-04 1.87932E-17
6.85233E-04 1.65897E-17
7.31665E-04 1.47004E-17
7.79618E-04 1.30731E-17
8.29092E-04 1.16653E-17
8.80086E-04 1.04425E-17
9.32601E-04 9.37625E-18
9.86636E-04 8.44303E-18
1.04219E-03 7.62337E-18
1.09927E-03 6.90103E-18
1.15786E-03 6.26239E-18
1.21797E-03 5.69604E-18
1.27961E-03 5.19232E-18
1.34276E-03 4.74306E-18
1.40743E-03 4.34131E-18
1.47362E-03 3.98114E-18
1.54133E-03 3.65746E-18
1.61056E-03 3.36592E-18
1.68131E-03 3.10274E-18
1.75357E-03 2.86467E-18
1.82735E-03 2.64889E-18
1.90265E-03 2.45294E-18
1.97947E-03 2.27468E-18
2.05780E-03 2.11221E-18
2.13765E-03 1.96391E-18
2.21902E-03 1.82831E-18
2.30190E-03 1.70413E-18
2.38630E-03 1.59026E-18
2.47222E-03 1.48567E-18
2.55965E-03 1.38949E-18
2.64859E-03 1.30092E-18
2.73905E-03 1.21925E-18
2.83103E-03 1.14385E-18
2.92452E-03 1.07416E-18
3.01952E-03 1.00966E-18
3.11604E-03 9.49911E-19
3.21407E-03 8.94493E-19
3.31362E-03 8.43039E-19
3.41468E-03 7.95215E-19
3.51725E-03 7.50720E-19
3.62133E-03 7.09282E-19
3.72692E-03 6.70652E-19
3.83403E-03 6.34608E-19
3.94265E-03 6.00944E-19
4.05278E-03 5.69476E-19
4.16442E-03 5.40034E-19
4.27757E-03 5.12465E-19
4.39223E-03 4.86628E-19
4.50840E-03 4.62394E-19
4.62608E-03 4.39646E-19
4.74527E-03 4.18276E-19
4.86597E-03 3.98185E-19
4.98817E-03 3.79283E-19
5.11188E-03 3.61486E-19
5.23711E-03 3.44718E-19
5.36383E-03 3.28909E-19
5.49207E-03 3.13992E-19
5.62181E-03 2.99910E-19
5.75306E-03 2.86606E-19
5.88581E-03 2.74029E-19
6.02007E-03 2.62132E-19
6.15583E-03 2.50872E-19
6.29310E-03 2.40207E-19
6.43187E-03 2.30102E-19
6.57214E-03 2.20520E-19
6.71392E-03 2.11430E-19
6.85720E-03 2.02802E-19
7.00198E-03 1.94607E-19
7.14827E-03 1.86820E-19
7.29605E-03 1.79417E-19
7.44534E-03 1.72376E-19
7.59612E-03 1.65675E-19
7.97965E-03 1.50286E-19
8.37255E-03 1.36634E-19
8.77480E-03 1.24489E-19
9.18641E-03 1.13656E-19
9.60736E-03 1.03969E-19
1.00376E-02 9.52854E-20
1.04773E-02 8.74836E-20
1.09262E-02 8.04584E-20
1.13844E-02 7.41192E-20
1.18520E-02 6.83873E-20
1.23288E-02 6.31946E-20
1.28150E-02 5.84814E-20
1.33104E-02 5.41959E-20
1.38150E-02 5.02924E-20
1.43290E-02 4.67311E-20
1.48521E-02 4.34767E-20
1.53845E-02 4.04982E-20
1.59262E-02 3.77681E-20
1.64770E-02 3.52621E-20
1.70371E-02 3.29586E-20
1.76063E-02 3.08384E-20
1.81848E-02 2.88843E-20
1.87724E-02 2.70812E-20
1.93692E-02 2.54152E-20
1.99751E-02 2.38741E-20
2.05901E-02 2.24470E-20
2.12143E-02 2.11239E-20
2.18476E-02 1.98959E-20
2.24900E-02 1.87550E-20
2.31415E-02 1.76938E-20
2.38021E-02 1.67060E-20
2.44717E-02 1.57854E-20
2.51504E-02 1.49268E-20
2.58382E-02 1.41251E-20
2.65349E-02 1.33760E-20
2.72407E-02 1.26754E-20
2.79555E-02 1.20196E-20
2.86793E-02 1.14053E-20
2.94120E-02 1.08293E-20
3.01537E-02 1.02888E-20
3.09043E-02 9.78128E-21
3.16639E-02 9.30434E-21
3.24324E-02 8.85581E-21
3.32098E-02 8.43371E-21
3.39961E-02 8.03619E-21
3.47912E-02 7.66156E-21
3.55952E-02 7.30827E-21
3.64081E-02 6.97490E-21
3.72297E-02 6.66011E-21
3.80602E-02 6.36269E-21
3.88995E-02 6.08150E-21
3.97476E-02 5.81550E-21
4.06044E-02 5.56373E-21
4.14700E-02 5.32528E-21
4.23443E-02 5.09933E-21
4.32273E-02 4.88509E-21
4.41190E-02 4.68186E-21
4.50194E-02 4.48897E-21
4.59284E-02 4.30580E-21
4.68461E-02 4.13176E-21
4.87074E-02 3.80898E-21
5.06030E-02 3.51676E-21
5.25328E-02 3.25171E-21
5.44967E-02 3.01088E-21
5.64946E-02 2.79167E-21
5.85262E-02 2.59181E-21
6.05914E-02 2.40930E-21
6.26901E-02 2.24238E-21
6.48222E-02 2.08948E-21
6.69873E-02 1.94922E-21
6.91854E-02 1.82039E-21
7.14163E-02 1.70189E-21
7.36799E-02 1.59274E-21
7.59760E-02 1.49209E-21
7.83043E-02 1.39915E-21
8.06647E-02 1.31323E-21
8.30571E-02 1.23372E-21
8.54812E-02 1.16004E-21
8.79369E-02 1.09171E-21
9.04240E-02 1.02826E-21
9.29422E-02 9.69276E-22
9.54915E-02 9.14401E-22
9.80716E-02 8.63295E-22
1.00682E-01 8.15653E-22
1.03323E-01 7.71201E-22
1.05995E-01 7.29688E-22
1.08696E-01 6.90885E-22
1.11427E-01 6.54584E-22
1.14188E-01 6.20596E-22
1.16978E-01 5.88748E-22
1.19797E-01 5.58882E-22
1.22645E-01 5.30854E-22
1.25522E-01 5.04529E-22
1.28428E-01 4.79787E-22
1.31361E-01 4.56516E-22
1.34323E-01 4.34613E-22
1.37313E-01 4.13983E-22
1.40330E-01 3.94541E-22
1.43375E-01 3.76204E-22
1.46447E-01 3.58901E-22
1.49545E-01 3.42561E-22
1.52671E-01 3.27123E-22
1.55823E-01 3.12527E-22
1.59001E-01 2.98720E-22
1.62205E-01 2.85651E-22
1.65435E-01 2.73275E-22
1.68690E-01 2.61548E-22
1.71970E-01 2.50430E-22
1.75276E-01 2.39884E-22
1.78606E-01 2.29876E-22
1.81961E-01 2.20372E-22
1.85340E-01 2.11344E-22
1.88743E-01 2.02763E-22
1.92169E-01 1.94604E-22
1.95619E-01 1.86841E-22
1.99092E-01 1.79453E-22
2.02589E-01 1.72418E-22
2.06107E-01 1.65716E-22
2.09649E-01 1.59329E-22
2.13212E-01 1.53240E-22
2.16797E-01 1.47431E-22
2.20404E-01 1.41888E-22
2.24032E-01 1.36597E-22
2.27680E-01 1.31544E-22
2.31350E-01 1.26717E-22
2.35040E-01 1.22103E-22
2.38751E-01 1.17692E-22
2.42481E-01 1.13473E-22
2.46231E-01 1.09437E-22
2.50000E-01 1.05573E-22
2.53788E-01 1.01874E-22
2.57595E-01 9.83311E-23
2.61421E-01 9.49367E-23
2.65264E-01 9.16833E-23
2.69126E-01 8.85641E-23
2.73005E-01 8.55726E-23
2.76901E-01 8.27027E-23
2.80814E-01 7.99486E-23
2.84744E-01 7.73048E-23
2.88691E-01 7.47662E-23
2.92653E-01 7.23277E-23
2.96632E-01 6.99848E-23
3.00625E-01 6.77329E-23
3.04634E-01 6.55681E-23
3.08658E-01 6.34864E-23
3.12697E-01 6.14841E-23
3.16749E-01 5.95575E-23
3.20816E-01 5.77033E-23
3.24896E-01 5.59183E-23
3.28990E-01 5.41993E-23
3.33097E-01 5.25438E-23
3.37216E-01 5.09489E-23
3.41348E-01 4.94120E-23
3.45492E-01 4.79306E-23
3.49647E-01 4.65021E-23
3.53814E-01 4.51246E-23
3.57992E-01 4.37959E-23
3.62181E-01 4.25140E-23
3.66381E-01 4.12770E-23
3.70590E-01 4.00830E-23
3.74810E-01 3.89301E-23
3.79039E-01 3.78168E-23
3.83277E-01 3.67414E-23
3.87524E-01 3.57025E-23
3.91780E-01 3.46987E-23
3.96044E-01 3.37285E-23
4.00316E-01 3.27906E-23
4.04596E-01 3.18838E-23
4.08882E-01 3.10067E-23
4.13176E-01 3.01584E-23
4.17476E-01 2.93376E-23
4.21783E-01 2.85434E-23
4.26095E-01 2.77748E-23
4.30413E-01 2.70307E-23
4.34737E-01 2.63103E-23
4.39065E-01 2.56126E-23
4.43398E-01 2.49369E-23
4.47736E-01 2.42823E-23
4.52077E-01 2.36480E-23
4.56422E-01 2.30334E-23
4.60770E-01 2.24377E-23
4.65122E-01 2.18602E-23
4.69476E-01 2.13003E-23
4.73832E-01 2.07573E-23
4.78190E-01 2.02306E-23
4.82550E-01 1.97198E-23
4.86912E-01 1.92242E-23
4.91274E-01 1.87432E-23
4.95637E-01 1.82765E-23
5.00000E-01 1.78234E-23
5.04363E-01 1.73836E-23
5.08726E-01 1.69565E-23
5.13088E-01 1.65418E-23
5.17450E-01 1.61390E-23
5.21810E-01 1.57477E-23
5.26168E-01 1.53676E-23
5.30524E-01 1.49982E-23
5.34878E-01 1.46393E-23
5.39230E-01 1.42904E-23
5.43578E-01 1.39513E-23
5.47923E-01 1.36217E-23
5.52264E-01 1.33011E-23
5.56602E-01 1.29894E-23
5.60935E-01 1.26862E-23
5.65263E-01 1.23913E-23
5.69587E-01 1.21044E-23
5.73905E-01 1.18253E-23
5.78217E-01 1.15536E-23
5.82524E-01 1.12893E-23
5.86824E-01 1.10320E-23
5.91118E-01 1.07816E-23
5.95404E-01 1.05378E-23
5.99684E-01 1.03004E-23
6.03956E-01 1.00692E-23
6.08220E-01 9.84411E-24
6.12476E-01 9.62484E-24
6.16723E-01 9.41126E-24
6.20961E-01 9.20318E-24
6.25190E-01 9.00045E-24
6.29410E-01 8.80291E-24
6.33619E-01 8.61040E-24
6.37819E-01 8.42278E-24
6.42008E-01 8.23990E-24
6.46186E-01 8.06164E-24
6.50353E-01 7.88784E-24
6.54508E-01 7.71839E-24
6.58652E-01 7.55315E-24
6.62784E-01 7.39201E-24
6.66903E-01 7.23486E-24
6.71010E-01 7.08158E-24
6.75104E-01 6.93206E-24
6.79184E-01 6.78620E-24
6.83251E-01 6.64388E-24
6.87303E-01 6.50502E-24
6.91342E-01 6.36952E-24
6.95366E-01 6.23729E-24
6.99375E-01 6.10823E-24
7.03368E-01 5.98227E-24
7.07347E-01 5.85932E-24
7.11309E-01 5.73929E-24
7.15256E-01 5.62210E-24
7.19186E-01 5.50768E-24
7.23099E-01 5.39596E-24
7.26995E-01 5.28687E-24
7.30874E-01 5.18033E-24
7.34736E-01 5.07629E-24
7.38579E-01 4.97466E-24
7.42405E-01 4.87540E-24
7.46212E-01 4.77843E-24
7.50000E-01 4.68370E-24
7.53769E-01 4.59115E-24
7.57519E-01 4.50073E-24
7.61249E-01 4.41239E-24
7.64960E-01 4.32607E-24
7.68650E-01 4.24171E-24
7.72320E-01 4.15927E-24
7.75968E-01 4.07869E-24
7.79596E-01 3.99995E-24
7.83203E-01 3.92299E-24
7.86788E-01 3.84776E-24
7.90351E-01 3.77423E-24
7.93893E-01 3.70234E-24
7.97411E-01 3.63207E-24
8.00908E-01 3.56337E-24
8.04381E-01 3.49620E-24
8.07831E-01 3.43053E-24
8.11257E-01 3.36633E-24
8.14660E-01 3.30356E-24
8.18039E-01 3.24217E-24
8.21394E-01 3.18215E-24
8.24724E-01 3.12346E-24
8.28030E-01 3.06606E-24
8.31310E-01 3.00993E-24
8.34565E-01 2.95505E-24
8.37795E-01 2.90138E-24
8.40999E-01 2.84889E-24
8.44177E-01 2.79755E-24
8.47329E-01 2.74735E-24
8.50455E-01 2.69824E-24
8.53553E-01 2.65023E-24
8.56625E-01 2.60327E-24
8.59670E-01 2.55734E-24
8.62687E-01 2.51243E-24
8.65677E-01 2.46850E-24
8.68639E-01 2.42554E-24
8.71572E-01 2.38352E-24
8.74478E-01 2.34244E-24
8.77355E-01 2.30226E-24
8.80203E-01 2.26297E-24
8.83022E-01 2.22455E-24
8.85812E-01 2.18699E-24
8.88573E-01 2.15025E-24
8.91304E-01 2.11432E-24
8.94005E-01 2.07920E-24
8.96677E-01 2.04487E-24
8.99318E-01 2.01130E-24
9.01928E-01 1.97849E-24
9.04508E-01 1.94641E-24
9.07058E-01 1.91505E-24
9.09576E-01 1.88441E-24
9.12063E-01 1.85446E-24
9.14519E-01 1.82519E-24
9.16943E-01 1.79660E-24
9.19335E-01 1.76866E-24
9.21696E-01 1.74136E-24
9.24024E-01 1.71469E-24
9.26320E-01 1.68865E-24
9.28584E-01 1.66321E-24
9.30815E-01 1.63838E-24
9.33013E-01 1.61413E-24
9.35178E-01 1.59047E-24
9.37310E-01 1.56736E-24
9.39409E-01 1.54481E-24
9.41474E-01 1.52282E-24
9.43505E-01 1.50136E-24
9.45503E-01 1.48043E-24
9.47467E-01 1.46003E-24
9.49397E-01 1.44013E-24
9.51293E-01 1.42074E-24
9.53154E-01 1.40185E-24
9.54981E-01 1.38344E-24
9.56773E-01 1.36552E-24
9.58530E-01 1.34807E-24
9.60252E-01 1.33109E-24
9.61940E-01 1.31457E-24
9.63592E-01 1.29850E-24
9.65209E-01 1.28288E-24
9.66790E-01 1.26769E-24
9.68336E-01 1.25295E-24
9.69846E-01 1.23863E-24
9.71321E-01 1.22473E-24
9.72759E-01 1.21126E-24
9.74162E-01 1.19819E-24
9.75528E-01 1.18553E-24
9.76858E-01 1.17327E-24
9.78152E-01 1.16141E-24
9.79410E-01 1.14994E-24
9.80631E-01 1.13886E-24
9.81815E-01 1.12816E-24
9.82963E-01 1.11785E-24
9.84074E-01 1.10791E-24
9.85148E-01 1.09833E-24
9.86185E-01 1.08913E-24
9.87185E-01 1.08029E-24
9.88148E-01 1.07181E-24
9.89074E-01 1.06370E-24
9.89962E-01 1.05593E-24
9.90814E-01 1.04852E-24
9.91627E-01 1.04145E-24
9.92404E-01 1.03473E-24
9.93143E-01 1.02836E-24
9.93844E-01 1.02233E-24
9.94508E-01 1.01663E-24
9.95134E-01 1.01128E-24
9.95722E-01 1.00626E-24
9.96273E-01 1.00157E-24
9.96786E-01 9.97203E-25
9.97261E-01 9.93172E-25
9.97698E-01 9.89471E-25
9.98097E-01 9.86099E-25
9.98459E-01 9.83053E-25
9.98782E-01 9.80328E-25
9.99067E-01 9.77924E-25
9.99315E-01 9.75839E-25
9.99524E-01 9.74076E-25
9.99695E-01 9.72637E-25
9.99829E-01 9.71523E-25
9.99924E-01 9.70732E-25
9.99981E-01 9.70261E-25
1.00000E+00 9.70105E-25
