 #
 # Subroutine ELSEPA. Elastic scattering of electrons and positrons
 #                    by neutral atoms and positive ions
 #
 # Projectile: positron
 # Kinetic energy = 1.25000E+08 eV = 4.59367E+06 a.u.
 #
 # WARNING: High-energy factorization with free-atom DF screening.
 #          Absorption, polarization and exchange corrections are
 #          switched off.
 #          Phase shifts are calculated for the bare nucleus.
 #          Scattering amplitudes are not evaluated.
 #
 # Element: Pr,  Z =  59,  atomic weight = 1.40908E+02 g/mol
 #
 # Nuclear model: Fermi distribution
 #                Average radius = 5.56795E-13 cm
 #                Skin thickness = 5.46000E-14 cm
 #
 # Number of electrons = 59
 #
 # Total elastic cross section = 7.27830E-18 cm**2 = 2.59913E-01 a0**2
 # 1st transport cross section = 4.19789E-25 cm**2 = 1.49909E-08 a0**2
 # 2nd transport cross section = 1.25155E-24 cm**2 = 4.46935E-08 a0**2
 #
 #
 # Differential cross section:                       MU=(1-COS(THETA))/2
 #
 #  THETA        MU          DCS          DCS        Sherman      error
 #  (deg)                 (cm**2/sr)   (a0**2/sr)    function
 #----------------------------------------------------------------------
0.00000E+00 1.68116E-09
7.61557E-13 1.66647E-09
1.18994E-12 1.65830E-09
1.71346E-12 1.64841E-09
2.33225E-12 1.63684E-09
3.04617E-12 1.62366E-09
3.85530E-12 1.60893E-09
4.75964E-12 1.59272E-09
5.75917E-12 1.57512E-09
6.85391E-12 1.55620E-09
8.04379E-12 1.53606E-09
9.32893E-12 1.51478E-09
1.07092E-11 1.49247E-09
1.21847E-11 1.46921E-09
1.37554E-11 1.44510E-09
1.54213E-11 1.42041E-09
1.71823E-11 1.39510E-09
1.90386E-11 1.36907E-09
2.09900E-11 1.34240E-09
2.30367E-11 1.31528E-09
2.51785E-11 1.28841E-09
2.74156E-11 1.26114E-09
2.97478E-11 1.23352E-09
3.21752E-11 1.20563E-09
3.46979E-11 1.17832E-09
3.73157E-11 1.15109E-09
4.00286E-11 1.12377E-09
4.28368E-11 1.09643E-09
4.57402E-11 1.06953E-09
4.87388E-11 1.04335E-09
5.18325E-11 1.01727E-09
5.50215E-11 9.91334E-10
5.83057E-11 9.65608E-10
6.16850E-11 9.41152E-10
6.51595E-11 9.16926E-10
6.87293E-11 8.92959E-10
7.23943E-11 8.69278E-10
7.61544E-11 8.46576E-10
1.18991E-10 6.49222E-10
1.71347E-10 5.03744E-10
2.33223E-10 3.98893E-10
3.04617E-10 3.22746E-10
3.85531E-10 2.65795E-10
4.75965E-10 2.21940E-10
5.75917E-10 1.87199E-10
6.85389E-10 1.59066E-10
8.04380E-10 1.35953E-10
9.32891E-10 1.16755E-10
1.07092E-09 1.00655E-10
1.21847E-09 8.71292E-11
1.37554E-09 7.57222E-11
1.54213E-09 6.57381E-11
1.71823E-09 5.72647E-11
1.90386E-09 5.03330E-11
2.09900E-09 4.46110E-11
2.30367E-09 3.97573E-11
2.51785E-09 3.51984E-11
2.74156E-09 3.13741E-11
2.97478E-09 2.81432E-11
3.21752E-09 2.53952E-11
3.46978E-09 2.28469E-11
3.73156E-09 2.06087E-11
4.00286E-09 1.86813E-11
4.28368E-09 1.70129E-11
4.57402E-09 1.55057E-11
4.87388E-09 1.41132E-11
5.18326E-09 1.28959E-11
5.50215E-09 1.18272E-11
5.83057E-09 1.08831E-11
6.16850E-09 9.97401E-12
6.51596E-09 9.16960E-12
6.87293E-09 8.45534E-12
7.23942E-09 7.81901E-12
7.61544E-09 7.22182E-12
1.18991E-08 3.49700E-12
1.71347E-08 1.88500E-12
2.33223E-08 1.11301E-12
3.04617E-08 7.05564E-13
3.85531E-08 4.71693E-13
4.75965E-08 3.27605E-13
5.75917E-08 2.34488E-13
6.85389E-08 1.71863E-13
8.04380E-08 1.28517E-13
9.32891E-08 9.78620E-14
1.07092E-07 7.57589E-14
1.21847E-07 5.95378E-14
1.37554E-07 4.74239E-14
1.54213E-07 3.82224E-14
1.71823E-07 3.11777E-14
1.90386E-07 2.56806E-14
2.09900E-07 2.13622E-14
2.30367E-07 1.79036E-14
2.51785E-07 1.51287E-14
2.74156E-07 1.28699E-14
2.97478E-07 1.10195E-14
3.21752E-07 9.49141E-15
3.46978E-07 8.21785E-15
3.73156E-07 7.15364E-15
4.00286E-07 6.25347E-15
4.28368E-07 5.49215E-15
4.57402E-07 4.84232E-15
4.87388E-07 4.28593E-15
5.18325E-07 3.80730E-15
5.50215E-07 3.39300E-15
5.83057E-07 3.03404E-15
6.16850E-07 2.72053E-15
6.51596E-07 2.44679E-15
6.87293E-07 2.20633E-15
7.23942E-07 1.99467E-15
7.61543E-07 1.80779E-15
1.18991E-06 7.56043E-16
1.71347E-06 3.69250E-16
2.33223E-06 2.01079E-16
3.04617E-06 1.18663E-16
3.85531E-06 7.44788E-17
4.75964E-06 4.90797E-17
5.75916E-06 3.36430E-17
6.85388E-06 2.38250E-17
8.04378E-06 1.73403E-17
9.32888E-06 1.29185E-17
1.07092E-05 9.81983E-18
1.21846E-05 7.59646E-18
1.37553E-05 5.96784E-18
1.54212E-05 4.75290E-18
1.71822E-05 3.83178E-18
1.90385E-05 3.12209E-18
2.09899E-05 2.57125E-18
2.30365E-05 2.13637E-18
2.51783E-05 1.78925E-18
2.74153E-05 1.50952E-18
2.97475E-05 1.28219E-18
3.21749E-05 1.09604E-18
3.46974E-05 9.42526E-19
3.73152E-05 8.15033E-19
4.00281E-05 7.08438E-19
4.28362E-05 6.18733E-19
4.57395E-05 5.42775E-19
4.87380E-05 4.78093E-19
5.18317E-05 4.22733E-19
5.50205E-05 3.75134E-19
5.83045E-05 3.34036E-19
6.16838E-05 2.98413E-19
6.51582E-05 2.67420E-19
6.87277E-05 2.40353E-19
7.23925E-05 2.16629E-19
7.61524E-05 1.95871E-19
9.21439E-05 1.33755E-19
1.09658E-04 9.44057E-20
1.28695E-04 6.85191E-20
1.49255E-04 5.09186E-20
1.71338E-04 3.86226E-20
1.94942E-04 2.98208E-20
2.20070E-04 2.33879E-20
2.46720E-04 1.85987E-20
2.74892E-04 1.49737E-20
3.04586E-04 1.21899E-20
3.35803E-04 1.00232E-20
3.68542E-04 8.31679E-21
4.02802E-04 6.95815E-21
4.38585E-04 5.86562E-21
4.75889E-04 4.97911E-21
5.14715E-04 4.25367E-21
5.55063E-04 3.65549E-21
5.96931E-04 3.15870E-21
6.40321E-04 2.74338E-21
6.85233E-04 2.39400E-21
7.31665E-04 2.09841E-21
7.79618E-04 1.84697E-21
8.29092E-04 1.63202E-21
8.80086E-04 1.44737E-21
9.32601E-04 1.28806E-21
9.86636E-04 1.15002E-21
1.04219E-03 1.02994E-21
1.09927E-03 9.25084E-22
1.15786E-03 8.33203E-22
1.21797E-03 7.52417E-22
1.27961E-03 6.81158E-22
1.34276E-03 6.18111E-22
1.40743E-03 5.62168E-22
1.47362E-03 5.12389E-22
1.54133E-03 4.67974E-22
1.61056E-03 4.28249E-22
1.68131E-03 3.92634E-22
1.75357E-03 3.60628E-22
1.82735E-03 3.31804E-22
1.90265E-03 3.05788E-22
1.97947E-03 2.82260E-22
2.05780E-03 2.60941E-22
2.13765E-03 2.41585E-22
2.21902E-03 2.23981E-22
2.30190E-03 2.07943E-22
2.38630E-03 1.93306E-22
2.47222E-03 1.79926E-22
2.55965E-03 1.67676E-22
2.64859E-03 1.56444E-22
2.73905E-03 1.46131E-22
2.83103E-03 1.36647E-22
2.92452E-03 1.27915E-22
3.01952E-03 1.19863E-22
3.11604E-03 1.12430E-22
3.21407E-03 1.05560E-22
3.31362E-03 9.92017E-23
3.41468E-03 9.33110E-23
3.51725E-03 8.78470E-23
3.62133E-03 8.27734E-23
3.72692E-03 7.80573E-23
3.83403E-03 7.36690E-23
3.94265E-03 6.95816E-23
4.05278E-03 6.57707E-23
4.16442E-03 6.22144E-23
4.27757E-03 5.88925E-23
4.39223E-03 5.57869E-23
4.50840E-03 5.28808E-23
4.62608E-03 5.01593E-23
4.74527E-03 4.76084E-23
4.86597E-03 4.52156E-23
4.98817E-03 4.29692E-23
5.11188E-03 4.08587E-23
5.23711E-03 3.88745E-23
5.36383E-03 3.70076E-23
5.49207E-03 3.52497E-23
5.62181E-03 3.35935E-23
5.75306E-03 3.20319E-23
5.88581E-03 3.05586E-23
6.02007E-03 2.91678E-23
6.15583E-03 2.78538E-23
6.29310E-03 2.66118E-23
6.43187E-03 2.54371E-23
6.57214E-03 2.43254E-23
6.71392E-03 2.32727E-23
6.85720E-03 2.22752E-23
7.00198E-03 2.13297E-23
7.14827E-03 2.04329E-23
7.29605E-03 1.95818E-23
7.44534E-03 1.87737E-23
7.59612E-03 1.80060E-23
7.97965E-03 1.62484E-23
8.37255E-03 1.46959E-23
8.77480E-03 1.33207E-23
9.18641E-03 1.20993E-23
9.60736E-03 1.10115E-23
1.00376E-02 1.00404E-23
1.04773E-02 9.17139E-24
1.09262E-02 8.39201E-24
1.13844E-02 7.69149E-24
1.18520E-02 7.06054E-24
1.23288E-02 6.49112E-24
1.28150E-02 5.97626E-24
1.33104E-02 5.50987E-24
1.38150E-02 5.08664E-24
1.43290E-02 4.70193E-24
1.48521E-02 4.35167E-24
1.53845E-02 4.03226E-24
1.59262E-02 3.74056E-24
1.64770E-02 3.47377E-24
1.70371E-02 3.22942E-24
1.76063E-02 3.00532E-24
1.81848E-02 2.79952E-24
1.87724E-02 2.61029E-24
1.93692E-02 2.43609E-24
1.99751E-02 2.27552E-24
2.05901E-02 2.12736E-24
2.12143E-02 1.99049E-24
2.18476E-02 1.86392E-24
2.24900E-02 1.74675E-24
2.31415E-02 1.63817E-24
2.38021E-02 1.53746E-24
2.44717E-02 1.44395E-24
2.51504E-02 1.35706E-24
2.58382E-02 1.27624E-24
2.65349E-02 1.20100E-24
2.72407E-02 1.13090E-24
2.79555E-02 1.06554E-24
2.86793E-02 1.00454E-24
2.94120E-02 9.47576E-25
3.01537E-02 8.94333E-25
3.09043E-02 8.44536E-25
3.16639E-02 7.97927E-25
3.24324E-02 7.54273E-25
3.32098E-02 7.13359E-25
3.39961E-02 6.74988E-25
3.47912E-02 6.38979E-25
3.55952E-02 6.05165E-25
3.64081E-02 5.73394E-25
3.72297E-02 5.43524E-25
3.80602E-02 5.15426E-25
3.88995E-02 4.88979E-25
3.97476E-02 4.64074E-25
4.06044E-02 4.40607E-25
4.14700E-02 4.18485E-25
4.23443E-02 3.97619E-25
4.32273E-02 3.77929E-25
4.41190E-02 3.59339E-25
4.50194E-02 3.41779E-25
4.59284E-02 3.25186E-25
4.68461E-02 3.09498E-25
4.87074E-02 2.80619E-25
5.06030E-02 2.54740E-25
5.25328E-02 2.31512E-25
5.44967E-02 2.10632E-25
5.64946E-02 1.91833E-25
5.85262E-02 1.74885E-25
6.05914E-02 1.59585E-25
6.26901E-02 1.45755E-25
6.48222E-02 1.33238E-25
6.69873E-02 1.21896E-25
6.91854E-02 1.11606E-25
7.14163E-02 1.02262E-25
7.36799E-02 9.37671E-26
7.59760E-02 8.60366E-26
7.83043E-02 7.89951E-26
8.06647E-02 7.25751E-26
8.30571E-02 6.67167E-26
8.54812E-02 6.13662E-26
8.79369E-02 5.64757E-26
9.04240E-02 5.20020E-26
9.29422E-02 4.79065E-26
9.54915E-02 4.41547E-26
9.80716E-02 4.07153E-26
1.00682E-01 3.75601E-26
1.03323E-01 3.46639E-26
1.05995E-01 3.20038E-26
1.08696E-01 2.95590E-26
1.11427E-01 2.73109E-26
1.14188E-01 2.52426E-26
1.16978E-01 2.33387E-26
1.19797E-01 2.15852E-26
1.22645E-01 1.99695E-26
1.25522E-01 1.84801E-26
1.28428E-01 1.71065E-26
1.31361E-01 1.58391E-26
1.34323E-01 1.46693E-26
1.37313E-01 1.35891E-26
1.40330E-01 1.25914E-26
1.43375E-01 1.16694E-26
1.46447E-01 1.08172E-26
1.49545E-01 1.00291E-26
1.52671E-01 9.30020E-27
1.55823E-01 8.62579E-27
1.59001E-01 8.00162E-27
1.62205E-01 7.42380E-27
1.65435E-01 6.88873E-27
1.68690E-01 6.39314E-27
1.71970E-01 5.93399E-27
1.75276E-01 5.50852E-27
1.78606E-01 5.11417E-27
1.81961E-01 4.74858E-27
1.85340E-01 4.40960E-27
1.88743E-01 4.09522E-27
1.92169E-01 3.80360E-27
1.95619E-01 3.53306E-27
1.99092E-01 3.28204E-27
2.02589E-01 3.04908E-27
2.06107E-01 2.83285E-27
2.09649E-01 2.63213E-27
2.13212E-01 2.44579E-27
2.16797E-01 2.27276E-27
2.20404E-01 2.11209E-27
2.24032E-01 1.96286E-27
2.27680E-01 1.82426E-27
2.31350E-01 1.69552E-27
2.35040E-01 1.57592E-27
2.38751E-01 1.46480E-27
2.42481E-01 1.36156E-27
2.46231E-01 1.26563E-27
2.50000E-01 1.17649E-27
2.53788E-01 1.09365E-27
2.57595E-01 1.01666E-27
2.61421E-01 9.45113E-28
2.65264E-01 8.78611E-28
2.69126E-01 8.16799E-28
2.73005E-01 7.59344E-28
2.76901E-01 7.05938E-28
2.80814E-01 6.56295E-28
2.84744E-01 6.10147E-28
2.88691E-01 5.67249E-28
2.92653E-01 5.27371E-28
2.96632E-01 4.90299E-28
3.00625E-01 4.55836E-28
3.04634E-01 4.23799E-28
3.08658E-01 3.94016E-28
3.12697E-01 3.66329E-28
3.16749E-01 3.40591E-28
3.20816E-01 3.16664E-28
3.24896E-01 2.94422E-28
3.28990E-01 2.73745E-28
3.33097E-01 2.54525E-28
3.37216E-01 2.36658E-28
3.41348E-01 2.20049E-28
3.45492E-01 2.04611E-28
3.49647E-01 1.90262E-28
3.53814E-01 1.76923E-28
3.57992E-01 1.64526E-28
3.62181E-01 1.53003E-28
3.66381E-01 1.42293E-28
3.70590E-01 1.32339E-28
3.74810E-01 1.23088E-28
3.79039E-01 1.14490E-28
3.83277E-01 1.06500E-28
3.87524E-01 9.90749E-29
3.91780E-01 9.21745E-29
3.96044E-01 8.57622E-29
4.00316E-01 7.98035E-29
4.04596E-01 7.42665E-29
4.08882E-01 6.91214E-29
4.13176E-01 6.43406E-29
4.17476E-01 5.98983E-29
4.21783E-01 5.57706E-29
4.26095E-01 5.19354E-29
4.30413E-01 4.83718E-29
4.34737E-01 4.50607E-29
4.39065E-01 4.19842E-29
4.43398E-01 3.91256E-29
4.47736E-01 3.64696E-29
4.52077E-01 3.40016E-29
4.56422E-01 3.17085E-29
4.60770E-01 2.95776E-29
4.65122E-01 2.75976E-29
4.69476E-01 2.57576E-29
4.73832E-01 2.40476E-29
4.78190E-01 2.24585E-29
4.82550E-01 2.09816E-29
4.86912E-01 1.96088E-29
4.91274E-01 1.83327E-29
4.95637E-01 1.71465E-29
5.00000E-01 1.60437E-29
5.04363E-01 1.50183E-29
5.08726E-01 1.40648E-29
5.13088E-01 1.31780E-29
5.17450E-01 1.23532E-29
5.21810E-01 1.15858E-29
5.26168E-01 1.08718E-29
5.30524E-01 1.02074E-29
5.34878E-01 9.58897E-30
5.39230E-01 9.01321E-30
5.43578E-01 8.47707E-30
5.47923E-01 7.97769E-30
5.52264E-01 7.51244E-30
5.56602E-01 7.07887E-30
5.60935E-01 6.67469E-30
5.65263E-01 6.29779E-30
5.69587E-01 5.94622E-30
5.73905E-01 5.61816E-30
5.78217E-01 5.31192E-30
5.82524E-01 5.02593E-30
5.86824E-01 4.75874E-30
5.91118E-01 4.50901E-30
5.95404E-01 4.27548E-30
5.99684E-01 4.05701E-30
6.03956E-01 3.85251E-30
6.08220E-01 3.66099E-30
6.12476E-01 3.48152E-30
6.16723E-01 3.31326E-30
6.20961E-01 3.15540E-30
6.25190E-01 3.00721E-30
6.29410E-01 2.86801E-30
6.33619E-01 2.73717E-30
6.37819E-01 2.61410E-30
6.42008E-01 2.49826E-30
6.46186E-01 2.38914E-30
6.50353E-01 2.28628E-30
6.54508E-01 2.18925E-30
6.58652E-01 2.09764E-30
6.62784E-01 2.01109E-30
6.66903E-01 1.92925E-30
6.71010E-01 1.85181E-30
6.75104E-01 1.77845E-30
6.79184E-01 1.70893E-30
6.83251E-01 1.64297E-30
6.87303E-01 1.58035E-30
6.91342E-01 1.52084E-30
6.95366E-01 1.46425E-30
6.99375E-01 1.41038E-30
7.03368E-01 1.35907E-30
7.07347E-01 1.31015E-30
7.11309E-01 1.26347E-30
7.15256E-01 1.21889E-30
7.19186E-01 1.17630E-30
7.23099E-01 1.13555E-30
7.26995E-01 1.09656E-30
7.30874E-01 1.05920E-30
7.34736E-01 1.02340E-30
7.38579E-01 9.89047E-31
7.42405E-01 9.56075E-31
7.46212E-01 9.24402E-31
7.50000E-01 8.93957E-31
7.53769E-01 8.64673E-31
7.57519E-01 8.36490E-31
7.61249E-01 8.09349E-31
7.64960E-01 7.83197E-31
7.68650E-01 7.57984E-31
7.72320E-01 7.33664E-31
7.75968E-01 7.10193E-31
7.79596E-01 6.87530E-31
7.83203E-01 6.65638E-31
7.86788E-01 6.44480E-31
7.90351E-01 6.24025E-31
7.93893E-01 6.04240E-31
7.97411E-01 5.85097E-31
8.00908E-01 5.66569E-31
8.04381E-01 5.48629E-31
8.07831E-01 5.31253E-31
8.11257E-01 5.14419E-31
8.14660E-01 4.98105E-31
8.18039E-01 4.82292E-31
8.21394E-01 4.66960E-31
8.24724E-01 4.52092E-31
8.28030E-01 4.37669E-31
8.31310E-01 4.23678E-31
8.34565E-01 4.10101E-31
8.37795E-01 3.96925E-31
8.40999E-01 3.84135E-31
8.44177E-01 3.71720E-31
8.47329E-01 3.59667E-31
8.50455E-01 3.47963E-31
8.53553E-01 3.36598E-31
8.56625E-01 3.25561E-31
8.59670E-01 3.14841E-31
8.62687E-01 3.04430E-31
8.65677E-01 2.94316E-31
8.68639E-01 2.84492E-31
8.71572E-01 2.74950E-31
8.74478E-01 2.65679E-31
8.77355E-01 2.56674E-31
8.80203E-01 2.47925E-31
8.83022E-01 2.39426E-31
8.85812E-01 2.31170E-31
8.88573E-01 2.23150E-31
8.91304E-01 2.15359E-31
8.94005E-01 2.07790E-31
8.96677E-01 2.00439E-31
8.99318E-01 1.93298E-31
9.01928E-01 1.86362E-31
9.04508E-01 1.79626E-31
9.07058E-01 1.73084E-31
9.09576E-01 1.66731E-31
9.12063E-01 1.60562E-31
9.14519E-01 1.54573E-31
9.16943E-01 1.48757E-31
9.19335E-01 1.43111E-31
9.21696E-01 1.37631E-31
9.24024E-01 1.32312E-31
9.26320E-01 1.27150E-31
9.28584E-01 1.22140E-31
9.30815E-01 1.17279E-31
9.33013E-01 1.12564E-31
9.35178E-01 1.07989E-31
9.37310E-01 1.03553E-31
9.39409E-01 9.92501E-32
9.41474E-01 9.50783E-32
9.43505E-01 9.10341E-32
9.45503E-01 8.71140E-32
9.47467E-01 8.33151E-32
9.49397E-01 7.96343E-32
9.51293E-01 7.60687E-32
9.53154E-01 7.26153E-32
9.54981E-01 6.92715E-32
9.56773E-01 6.60344E-32
9.58530E-01 6.29016E-32
9.60252E-01 5.98704E-32
9.61940E-01 5.69384E-32
9.63592E-01 5.41032E-32
9.65209E-01 5.13624E-32
9.66790E-01 4.87140E-32
9.68336E-01 4.61555E-32
9.69846E-01 4.36851E-32
9.71321E-01 4.13005E-32
9.72759E-01 3.89999E-32
9.74162E-01 3.67812E-32
9.75528E-01 3.46428E-32
9.76858E-01 3.25827E-32
9.78152E-01 3.05992E-32
9.79410E-01 2.86908E-32
9.80631E-01 2.68557E-32
9.81815E-01 2.50925E-32
9.82963E-01 2.33996E-32
9.84074E-01 2.17755E-32
9.85148E-01 2.02190E-32
9.86185E-01 1.87287E-32
9.87185E-01 1.73033E-32
9.88148E-01 1.59416E-32
9.89074E-01 1.46423E-32
9.89962E-01 1.34045E-32
9.90814E-01 1.22270E-32
9.91627E-01 1.11089E-32
9.92404E-01 1.00490E-32
9.93143E-01 9.04665E-33
9.93844E-01 8.10079E-33
9.94508E-01 7.21068E-33
9.95134E-01 6.37552E-33
9.95722E-01 5.59459E-33
9.96273E-01 4.86720E-33
9.96786E-01 4.19272E-33
9.97261E-01 3.57054E-33
9.97698E-01 3.00015E-33
9.98097E-01 2.48102E-33
9.98459E-01 2.01270E-33
9.98782E-01 1.59477E-33
9.99067E-01 1.22688E-33
9.99315E-01 9.08691E-34
9.99524E-01 6.39935E-34
9.99695E-01 4.20366E-34
9.99829E-01 2.49793E-34
9.99924E-01 1.28056E-34
9.99981E-01 5.50590E-35
1.00000E+00 3.07421E-35
