 #
 # Subroutine ELSEPA. Elastic scattering of electrons and positrons
 #                    by neutral atoms and positive ions
 #
 # Projectile: positron
 # Kinetic energy = 4.50000E+07 eV = 1.65372E+06 a.u.
 #
 # WARNING: High-energy factorization with free-atom DF screening.
 #          Absorption, polarization and exchange corrections are
 #          switched off.
 #          Phase shifts are calculated for the bare nucleus.
 #          Scattering amplitudes are not evaluated.
 #
 # Element: Pr,  Z =  59,  atomic weight = 1.40908E+02 g/mol
 #
 # Nuclear model: Fermi distribution
 #                Average radius = 5.56795E-13 cm
 #                Skin thickness = 5.46000E-14 cm
 #
 # Number of electrons = 59
 #
 # Total elastic cross section = 7.27806E-18 cm**2 = 2.59904E-01 a0**2
 # 1st transport cross section = 2.98598E-24 cm**2 = 1.06631E-07 a0**2
 # 2nd transport cross section = 8.75699E-24 cm**2 = 3.12718E-07 a0**2
 #
 #
 # Differential cross section:                       MU=(1-COS(THETA))/2
 #
 #  THETA        MU          DCS          DCS        Sherman      error
 #  (deg)                 (cm**2/sr)   (a0**2/sr)    function
 #----------------------------------------------------------------------
0.00000E+00 2.21044E-10
7.61557E-13 2.20787E-10
1.18994E-12 2.20644E-10
1.71346E-12 2.20469E-10
2.33225E-12 2.20262E-10
3.04617E-12 2.20024E-10
3.85530E-12 2.19754E-10
4.75964E-12 2.19454E-10
5.75917E-12 2.19123E-10
6.85391E-12 2.18761E-10
8.04379E-12 2.18369E-10
9.32893E-12 2.17947E-10
1.07092E-11 2.17495E-10
1.21847E-11 2.17013E-10
1.37554E-11 2.16503E-10
1.54213E-11 2.15963E-10
1.71823E-11 2.15396E-10
1.90386E-11 2.14800E-10
2.09900E-11 2.14176E-10
2.30367E-11 2.13526E-10
2.51785E-11 2.12848E-10
2.74156E-11 2.12144E-10
2.97478E-11 2.11414E-10
3.21752E-11 2.10659E-10
3.46979E-11 2.09879E-10
3.73157E-11 2.09074E-10
4.00286E-11 2.08245E-10
4.28368E-11 2.07393E-10
4.57402E-11 2.06519E-10
4.87388E-11 2.05621E-10
5.18325E-11 2.04702E-10
5.50215E-11 2.03762E-10
5.83057E-11 2.02801E-10
6.16850E-11 2.01820E-10
6.51595E-11 2.00819E-10
6.87293E-11 1.99800E-10
7.23943E-11 1.98762E-10
7.61544E-11 1.97706E-10
1.18991E-10 1.86334E-10
1.71347E-10 1.73803E-10
2.33223E-10 1.60792E-10
3.04617E-10 1.47731E-10
3.85531E-10 1.35010E-10
4.75965E-10 1.22917E-10
5.75917E-10 1.11646E-10
6.85389E-10 1.01331E-10
8.04380E-10 9.20365E-11
9.32891E-10 8.36757E-11
1.07092E-09 7.62014E-11
1.21847E-09 6.95479E-11
1.37554E-09 6.36393E-11
1.54213E-09 5.84095E-11
1.71823E-09 5.37738E-11
1.90386E-09 4.96398E-11
2.09900E-09 4.59449E-11
2.30367E-09 4.26332E-11
2.51785E-09 3.96550E-11
2.74156E-09 3.69674E-11
2.97478E-09 3.45288E-11
3.21752E-09 3.23074E-11
3.46978E-09 3.02771E-11
3.73156E-09 2.84156E-11
4.00286E-09 2.67036E-11
4.28368E-09 2.51204E-11
4.57402E-09 2.36538E-11
4.87388E-09 2.22938E-11
5.18326E-09 2.10302E-11
5.50215E-09 1.98541E-11
5.83057E-09 1.87577E-11
6.16850E-09 1.77298E-11
6.51596E-09 1.67685E-11
6.87293E-09 1.58692E-11
7.23942E-09 1.50272E-11
7.61544E-09 1.42382E-11
1.18991E-08 8.48563E-12
1.71347E-08 5.38205E-12
2.33223E-08 3.55560E-12
3.04617E-08 2.45444E-12
3.85531E-08 1.75176E-12
4.75965E-08 1.28268E-12
5.75917E-08 9.58289E-13
6.85389E-08 7.27244E-13
8.04380E-08 5.59445E-13
9.32891E-08 4.37010E-13
1.07092E-07 3.46254E-13
1.21847E-07 2.78020E-13
1.37554E-07 2.26036E-13
1.54213E-07 1.85878E-13
1.71823E-07 1.54471E-13
1.90386E-07 1.29640E-13
2.09900E-07 1.09763E-13
2.30367E-07 9.36697E-14
2.51785E-07 8.05016E-14
2.74156E-07 6.96204E-14
2.97478E-07 6.04964E-14
3.21752E-07 5.28330E-14
3.46978E-07 4.63558E-14
3.73156E-07 4.08461E-14
4.00286E-07 3.61313E-14
4.28368E-07 3.20651E-14
4.57402E-07 2.85461E-14
4.87388E-07 2.54902E-14
5.18325E-07 2.28255E-14
5.50215E-07 2.04938E-14
5.83057E-07 1.84468E-14
6.16850E-07 1.66417E-14
6.51596E-07 1.50493E-14
6.87293E-07 1.36412E-14
7.23942E-07 1.23930E-14
7.61543E-07 1.12836E-14
1.18991E-06 4.88880E-15
1.71347E-06 2.45437E-15
2.33223E-06 1.36666E-15
3.04617E-06 8.20742E-16
3.85531E-06 5.22082E-16
4.75964E-06 3.47547E-16
5.75916E-06 2.40082E-16
6.85388E-06 1.71037E-16
8.04378E-06 1.25073E-16
9.32888E-06 9.35367E-17
1.07092E-05 7.13287E-17
1.21846E-05 5.53316E-17
1.37553E-05 4.35756E-17
1.54212E-05 3.47814E-17
1.71822E-05 2.80977E-17
1.90385E-05 2.29367E-17
2.09899E-05 1.89232E-17
2.30365E-05 1.57488E-17
2.51783E-05 1.32105E-17
2.74153E-05 1.11615E-17
2.97475E-05 9.49384E-18
3.21749E-05 8.12623E-18
3.46974E-05 6.99671E-18
3.73152E-05 6.05740E-18
4.00281E-05 5.27104E-18
4.28362E-05 4.60843E-18
4.57395E-05 4.04670E-18
4.87380E-05 3.56781E-18
5.18317E-05 3.15748E-18
5.50205E-05 2.80430E-18
5.83045E-05 2.49905E-18
6.16838E-05 2.23421E-18
6.51582E-05 2.00357E-18
6.87277E-05 1.80198E-18
7.23925E-05 1.62514E-18
7.61524E-05 1.46955E-18
9.21439E-05 1.00549E-18
1.09658E-04 7.10806E-19
1.28695E-04 5.16543E-19
1.49255E-04 3.84242E-19
1.71338E-04 2.91689E-19
1.94942E-04 2.25362E-19
2.20070E-04 1.76841E-19
2.46720E-04 1.40690E-19
2.74892E-04 1.13309E-19
3.04586E-04 9.22696E-20
3.35803E-04 7.58875E-20
3.68542E-04 6.29807E-20
4.02802E-04 5.27009E-20
4.38585E-04 4.44324E-20
4.75889E-04 3.77216E-20
5.14715E-04 3.22291E-20
5.55063E-04 2.76994E-20
5.96931E-04 2.39369E-20
6.40321E-04 2.07911E-20
6.85233E-04 1.81446E-20
7.31665E-04 1.59053E-20
7.79618E-04 1.40005E-20
8.29092E-04 1.23719E-20
8.80086E-04 1.09729E-20
9.32601E-04 9.76580E-21
9.86636E-04 8.71986E-21
1.04219E-03 7.80999E-21
1.09927E-03 7.01550E-21
1.15786E-03 6.31928E-21
1.21797E-03 5.70712E-21
1.27961E-03 5.16716E-21
1.34276E-03 4.68942E-21
1.40743E-03 4.26549E-21
1.47362E-03 3.88828E-21
1.54133E-03 3.55175E-21
1.61056E-03 3.25077E-21
1.68131E-03 2.98090E-21
1.75357E-03 2.73839E-21
1.82735E-03 2.51998E-21
1.90265E-03 2.32286E-21
1.97947E-03 2.14457E-21
2.05780E-03 1.98302E-21
2.13765E-03 1.83635E-21
2.21902E-03 1.70295E-21
2.30190E-03 1.58140E-21
2.38630E-03 1.47047E-21
2.47222E-03 1.36907E-21
2.55965E-03 1.27623E-21
2.64859E-03 1.19109E-21
2.73905E-03 1.11292E-21
2.83103E-03 1.04103E-21
2.92452E-03 9.74829E-22
3.01952E-03 9.13787E-22
3.11604E-03 8.57432E-22
3.21407E-03 8.05338E-22
3.31362E-03 7.57125E-22
3.41468E-03 7.12450E-22
3.51725E-03 6.71009E-22
3.62133E-03 6.32526E-22
3.72692E-03 5.96749E-22
3.83403E-03 5.63455E-22
3.94265E-03 5.32442E-22
4.05278E-03 5.03523E-22
4.16442E-03 4.76532E-22
4.27757E-03 4.51316E-22
4.39223E-03 4.27740E-22
4.50840E-03 4.05675E-22
4.62608E-03 3.85006E-22
4.74527E-03 3.65632E-22
4.86597E-03 3.47456E-22
4.98817E-03 3.30387E-22
5.11188E-03 3.14350E-22
5.23711E-03 2.99269E-22
5.36383E-03 2.85076E-22
5.49207E-03 2.71710E-22
5.62181E-03 2.59114E-22
5.75306E-03 2.47235E-22
5.88581E-03 2.36026E-22
6.02007E-03 2.25441E-22
6.15583E-03 2.15439E-22
6.29310E-03 2.05982E-22
6.43187E-03 1.97036E-22
6.57214E-03 1.88567E-22
6.71392E-03 1.80545E-22
6.85720E-03 1.72943E-22
7.00198E-03 1.65734E-22
7.14827E-03 1.58895E-22
7.29605E-03 1.52402E-22
7.44534E-03 1.46235E-22
7.59612E-03 1.40375E-22
7.97965E-03 1.26952E-22
8.37255E-03 1.15085E-22
8.77480E-03 1.04563E-22
9.18641E-03 9.52087E-23
9.60736E-03 8.68701E-23
1.00376E-02 7.94181E-23
1.04773E-02 7.27425E-23
1.09262E-02 6.67484E-23
1.13844E-02 6.13538E-23
1.18520E-02 5.64888E-23
1.23288E-02 5.20925E-23
1.28150E-02 4.81120E-23
1.33104E-02 4.45011E-23
1.38150E-02 4.12197E-23
1.43290E-02 3.82323E-23
1.48521E-02 3.55082E-23
1.53845E-02 3.30201E-23
1.59262E-02 3.07439E-23
1.64770E-02 2.86585E-23
1.70371E-02 2.67451E-23
1.76063E-02 2.49870E-23
1.81848E-02 2.33695E-23
1.87724E-02 2.18792E-23
1.93692E-02 2.05045E-23
1.99751E-02 1.92349E-23
2.05901E-02 1.80608E-23
2.12143E-02 1.69738E-23
2.18476E-02 1.59664E-23
2.24900E-02 1.50316E-23
2.31415E-02 1.41634E-23
2.38021E-02 1.33561E-23
2.44717E-02 1.26047E-23
2.51504E-02 1.19048E-23
2.58382E-02 1.12520E-23
2.65349E-02 1.06427E-23
2.72407E-02 1.00735E-23
2.79555E-02 9.54132E-24
2.86793E-02 9.04325E-24
2.94120E-02 8.57676E-24
3.01537E-02 8.13949E-24
3.09043E-02 7.72929E-24
3.16639E-02 7.34418E-24
3.24324E-02 6.98236E-24
3.32098E-02 6.64217E-24
3.39961E-02 6.32209E-24
3.47912E-02 6.02072E-24
3.55952E-02 5.73678E-24
3.64081E-02 5.46908E-24
3.72297E-02 5.21652E-24
3.80602E-02 4.97811E-24
3.88995E-02 4.75290E-24
3.97476E-02 4.54004E-24
4.06044E-02 4.33873E-24
4.14700E-02 4.14823E-24
4.23443E-02 3.96786E-24
4.32273E-02 3.79699E-24
4.41190E-02 3.63503E-24
4.50194E-02 3.48142E-24
4.59284E-02 3.33568E-24
4.68461E-02 3.19731E-24
4.87074E-02 2.94100E-24
5.06030E-02 2.70932E-24
5.25328E-02 2.49951E-24
5.44967E-02 2.30916E-24
5.64946E-02 2.13617E-24
5.85262E-02 1.97870E-24
6.05914E-02 1.83511E-24
6.26901E-02 1.70400E-24
6.48222E-02 1.58408E-24
6.69873E-02 1.47425E-24
6.91854E-02 1.37352E-24
7.14163E-02 1.28101E-24
7.36799E-02 1.19594E-24
7.59760E-02 1.11761E-24
7.83043E-02 1.04540E-24
8.06647E-02 9.78755E-25
8.30571E-02 9.17170E-25
8.54812E-02 8.60200E-25
8.79369E-02 8.07442E-25
9.04240E-02 7.58534E-25
9.29422E-02 7.13150E-25
9.54915E-02 6.70992E-25
9.80716E-02 6.31795E-25
1.00682E-01 5.95317E-25
1.03323E-01 5.61337E-25
1.05995E-01 5.29658E-25
1.08696E-01 5.00098E-25
1.11427E-01 4.72492E-25
1.14188E-01 4.46690E-25
1.16978E-01 4.22555E-25
1.19797E-01 3.99962E-25
1.22645E-01 3.78797E-25
1.25522E-01 3.58955E-25
1.28428E-01 3.40339E-25
1.31361E-01 3.22862E-25
1.34323E-01 3.06443E-25
1.37313E-01 2.91008E-25
1.40330E-01 2.76488E-25
1.43375E-01 2.62821E-25
1.46447E-01 2.49948E-25
1.49545E-01 2.37815E-25
1.52671E-01 2.26375E-25
1.55823E-01 2.15580E-25
1.59001E-01 2.05389E-25
1.62205E-01 1.95762E-25
1.65435E-01 1.86664E-25
1.68690E-01 1.78061E-25
1.71970E-01 1.69922E-25
1.75276E-01 1.62217E-25
1.78606E-01 1.54921E-25
1.81961E-01 1.48007E-25
1.85340E-01 1.41453E-25
1.88743E-01 1.35238E-25
1.92169E-01 1.29341E-25
1.95619E-01 1.23743E-25
1.99092E-01 1.18426E-25
2.02589E-01 1.13376E-25
2.06107E-01 1.08575E-25
2.09649E-01 1.04010E-25
2.13212E-01 9.96681E-26
2.16797E-01 9.55360E-26
2.20404E-01 9.16023E-26
2.24032E-01 8.78561E-26
2.27680E-01 8.42870E-26
2.31350E-01 8.08854E-26
2.35040E-01 7.76423E-26
2.38751E-01 7.45493E-26
2.42481E-01 7.15983E-26
2.46231E-01 6.87818E-26
2.50000E-01 6.60929E-26
2.53788E-01 6.35250E-26
2.57595E-01 6.10717E-26
2.61421E-01 5.87272E-26
2.65264E-01 5.64860E-26
2.69126E-01 5.43429E-26
2.73005E-01 5.22929E-26
2.76901E-01 5.03315E-26
2.80814E-01 4.84543E-26
2.84744E-01 4.66571E-26
2.88691E-01 4.49360E-26
2.92653E-01 4.32874E-26
2.96632E-01 4.17078E-26
3.00625E-01 4.01938E-26
3.04634E-01 3.87424E-26
3.08658E-01 3.73507E-26
3.12697E-01 3.60158E-26
3.16749E-01 3.47350E-26
3.20816E-01 3.35060E-26
3.24896E-01 3.23263E-26
3.28990E-01 3.11936E-26
3.33097E-01 3.01058E-26
3.37216E-01 2.90610E-26
3.41348E-01 2.80571E-26
3.45492E-01 2.70924E-26
3.49647E-01 2.61651E-26
3.53814E-01 2.52736E-26
3.57992E-01 2.44163E-26
3.62181E-01 2.35917E-26
3.66381E-01 2.27985E-26
3.70590E-01 2.20352E-26
3.74810E-01 2.13005E-26
3.79039E-01 2.05933E-26
3.83277E-01 1.99125E-26
3.87524E-01 1.92568E-26
3.91780E-01 1.86253E-26
3.96044E-01 1.80169E-26
4.00316E-01 1.74306E-26
4.04596E-01 1.68657E-26
4.08882E-01 1.63211E-26
4.13176E-01 1.57961E-26
4.17476E-01 1.52899E-26
4.21783E-01 1.48017E-26
4.26095E-01 1.43308E-26
4.30413E-01 1.38765E-26
4.34737E-01 1.34382E-26
4.39065E-01 1.30151E-26
4.43398E-01 1.26068E-26
4.47736E-01 1.22126E-26
4.52077E-01 1.18321E-26
4.56422E-01 1.14645E-26
4.60770E-01 1.11096E-26
4.65122E-01 1.07667E-26
4.69476E-01 1.04355E-26
4.73832E-01 1.01154E-26
4.78190E-01 9.80605E-27
4.82550E-01 9.50708E-27
4.86912E-01 9.21807E-27
4.91274E-01 8.93866E-27
4.95637E-01 8.66848E-27
5.00000E-01 8.40719E-27
5.04363E-01 8.15447E-27
5.08726E-01 7.91001E-27
5.13088E-01 7.67350E-27
5.17450E-01 7.44465E-27
5.21810E-01 7.22319E-27
5.26168E-01 7.00886E-27
5.30524E-01 6.80139E-27
5.34878E-01 6.60054E-27
5.39230E-01 6.40608E-27
5.43578E-01 6.21778E-27
5.47923E-01 6.03542E-27
5.52264E-01 5.85880E-27
5.56602E-01 5.68771E-27
5.60935E-01 5.52197E-27
5.65263E-01 5.36138E-27
5.69587E-01 5.20577E-27
5.73905E-01 5.05497E-27
5.78217E-01 4.90881E-27
5.82524E-01 4.76713E-27
5.86824E-01 4.62979E-27
5.91118E-01 4.49664E-27
5.95404E-01 4.36753E-27
5.99684E-01 4.24233E-27
6.03956E-01 4.12090E-27
6.08220E-01 4.00313E-27
6.12476E-01 3.88889E-27
6.16723E-01 3.77806E-27
6.20961E-01 3.67054E-27
6.25190E-01 3.56621E-27
6.29410E-01 3.46496E-27
6.33619E-01 3.36671E-27
6.37819E-01 3.27134E-27
6.42008E-01 3.17877E-27
6.46186E-01 3.08891E-27
6.50353E-01 3.00167E-27
6.54508E-01 2.91697E-27
6.58652E-01 2.83472E-27
6.62784E-01 2.75485E-27
6.66903E-01 2.67728E-27
6.71010E-01 2.60194E-27
6.75104E-01 2.52876E-27
6.79184E-01 2.45767E-27
6.83251E-01 2.38861E-27
6.87303E-01 2.32151E-27
6.91342E-01 2.25631E-27
6.95366E-01 2.19295E-27
6.99375E-01 2.13138E-27
7.03368E-01 2.07154E-27
7.07347E-01 2.01338E-27
7.11309E-01 1.95685E-27
7.15256E-01 1.90190E-27
7.19186E-01 1.84847E-27
7.23099E-01 1.79653E-27
7.26995E-01 1.74603E-27
7.30874E-01 1.69692E-27
7.34736E-01 1.64917E-27
7.38579E-01 1.60273E-27
7.42405E-01 1.55756E-27
7.46212E-01 1.51363E-27
7.50000E-01 1.47090E-27
7.53769E-01 1.42934E-27
7.57519E-01 1.38890E-27
7.61249E-01 1.34957E-27
7.64960E-01 1.31130E-27
7.68650E-01 1.27406E-27
7.72320E-01 1.23783E-27
7.75968E-01 1.20257E-27
7.79596E-01 1.16826E-27
7.83203E-01 1.13487E-27
7.86788E-01 1.10237E-27
7.90351E-01 1.07074E-27
7.93893E-01 1.03996E-27
7.97411E-01 1.01000E-27
8.00908E-01 9.80827E-28
8.04381E-01 9.52432E-28
8.07831E-01 9.24790E-28
8.11257E-01 8.97879E-28
8.14660E-01 8.71679E-28
8.18039E-01 8.46169E-28
8.21394E-01 8.21332E-28
8.24724E-01 7.97148E-28
8.28030E-01 7.73599E-28
8.31310E-01 7.50668E-28
8.34565E-01 7.28338E-28
8.37795E-01 7.06593E-28
8.40999E-01 6.85416E-28
8.44177E-01 6.64793E-28
8.47329E-01 6.44708E-28
8.50455E-01 6.25147E-28
8.53553E-01 6.06096E-28
8.56625E-01 5.87542E-28
8.59670E-01 5.69470E-28
8.62687E-01 5.51869E-28
8.65677E-01 5.34725E-28
8.68639E-01 5.18028E-28
8.71572E-01 5.01764E-28
8.74478E-01 4.85924E-28
8.77355E-01 4.70495E-28
8.80203E-01 4.55467E-28
8.83022E-01 4.40831E-28
8.85812E-01 4.26575E-28
8.88573E-01 4.12690E-28
8.91304E-01 3.99167E-28
8.94005E-01 3.85996E-28
8.96677E-01 3.73169E-28
8.99318E-01 3.60677E-28
9.01928E-01 3.48512E-28
9.04508E-01 3.36665E-28
9.07058E-01 3.25128E-28
9.09576E-01 3.13895E-28
9.12063E-01 3.02957E-28
9.14519E-01 2.92307E-28
9.16943E-01 2.81939E-28
9.19335E-01 2.71846E-28
9.21696E-01 2.62020E-28
9.24024E-01 2.52456E-28
9.26320E-01 2.43148E-28
9.28584E-01 2.34089E-28
9.30815E-01 2.25274E-28
9.33013E-01 2.16697E-28
9.35178E-01 2.08352E-28
9.37310E-01 2.00234E-28
9.39409E-01 1.92339E-28
9.41474E-01 1.84661E-28
9.43505E-01 1.77194E-28
9.45503E-01 1.69936E-28
9.47467E-01 1.62880E-28
9.49397E-01 1.56023E-28
9.51293E-01 1.49360E-28
9.53154E-01 1.42888E-28
9.54981E-01 1.36601E-28
9.56773E-01 1.30497E-28
9.58530E-01 1.24571E-28
9.60252E-01 1.18820E-28
9.61940E-01 1.13241E-28
9.63592E-01 1.07829E-28
9.65209E-01 1.02582E-28
9.66790E-01 9.74965E-29
9.68336E-01 9.25691E-29
9.69846E-01 8.77971E-29
9.71321E-01 8.31774E-29
9.72759E-01 7.87075E-29
9.74162E-01 7.43844E-29
9.75528E-01 7.02057E-29
9.76858E-01 6.61689E-29
9.78152E-01 6.22715E-29
9.79410E-01 5.85112E-29
9.80631E-01 5.48857E-29
9.81815E-01 5.13930E-29
9.82963E-01 4.80308E-29
9.84074E-01 4.47973E-29
9.85148E-01 4.16905E-29
9.86185E-01 3.87086E-29
9.87185E-01 3.58498E-29
9.88148E-01 3.31124E-29
9.89074E-01 3.04948E-29
9.89962E-01 2.79955E-29
9.90814E-01 2.56130E-29
9.91627E-01 2.33460E-29
9.92404E-01 2.11930E-29
9.93143E-01 1.91529E-29
9.93844E-01 1.72244E-29
9.94508E-01 1.54064E-29
9.95134E-01 1.36978E-29
9.95722E-01 1.20977E-29
9.96273E-01 1.06052E-29
9.96786E-01 9.21931E-30
9.97261E-01 7.93927E-30
9.97698E-01 6.76435E-30
9.98097E-01 5.69385E-30
9.98459E-01 4.72717E-30
9.98782E-01 3.86375E-30
9.99067E-01 3.10307E-30
9.99315E-01 2.44470E-30
9.99524E-01 1.88826E-30
9.99695E-01 1.43343E-30
9.99829E-01 1.07995E-30
9.99924E-01 8.27607E-31
9.99981E-01 6.76260E-31
1.00000E+00 6.25817E-31
