 #
 # Subroutine ELSEPA. Elastic scattering of electrons and positrons
 #                    by neutral atoms and positive ions
 #
 # Projectile: positron
 # Kinetic energy = 2.50000E+08 eV = 9.18733E+06 a.u.
 #
 # WARNING: High-energy factorization with free-atom DF screening.
 #          Absorption, polarization and exchange corrections are
 #          switched off.
 #          Phase shifts are calculated for the bare nucleus.
 #          Scattering amplitudes are not evaluated.
 #
 # Element: Pr,  Z =  59,  atomic weight = 1.40908E+02 g/mol
 #
 # Nuclear model: Fermi distribution
 #                Average radius = 5.56795E-13 cm
 #                Skin thickness = 5.46000E-14 cm
 #
 # Number of electrons = 59
 #
 # Total elastic cross section = 7.27727E-18 cm**2 = 2.59876E-01 a0**2
 # 1st transport cross section = 1.06615E-25 cm**2 = 3.80729E-09 a0**2
 # 2nd transport cross section = 3.19330E-25 cm**2 = 1.14035E-08 a0**2
 #
 #
 # Differential cross section:                       MU=(1-COS(THETA))/2
 #
 #  THETA        MU          DCS          DCS        Sherman      error
 #  (deg)                 (cm**2/sr)   (a0**2/sr)    function
 #----------------------------------------------------------------------
0.00000E+00 6.69730E-09
7.61557E-13 6.46913E-09
1.18994E-12 6.34635E-09
1.71346E-12 6.20140E-09
2.33225E-12 6.03696E-09
3.04617E-12 5.85601E-09
3.85530E-12 5.66216E-09
4.75964E-12 5.45830E-09
5.75917E-12 5.24447E-09
6.85391E-12 5.02937E-09
8.04379E-12 4.80882E-09
9.32893E-12 4.59182E-09
1.07092E-11 4.37452E-09
1.21847E-11 4.16320E-09
1.37554E-11 3.95633E-09
1.54213E-11 3.75640E-09
1.71823E-11 3.56465E-09
1.90386E-11 3.37972E-09
2.09900E-11 3.20558E-09
2.30367E-11 3.03753E-09
2.51785E-11 2.88175E-09
2.74156E-11 2.73169E-09
2.97478E-11 2.59320E-09
3.21752E-11 2.46098E-09
3.46979E-11 2.33821E-09
3.73157E-11 2.22236E-09
4.00286E-11 2.11406E-09
4.28368E-11 2.01281E-09
4.57402E-11 1.91753E-09
4.87388E-11 1.82902E-09
5.18325E-11 1.74526E-09
5.50215E-11 1.66774E-09
5.83057E-11 1.59414E-09
6.16850E-11 1.52592E-09
6.51595E-11 1.46126E-09
6.87293E-11 1.40080E-09
7.23943E-11 1.34371E-09
7.61544E-11 1.28997E-09
1.18991E-10 8.87285E-10
1.71347E-10 6.36159E-10
2.33223E-10 4.67108E-10
3.04617E-10 3.48711E-10
3.85531E-10 2.63258E-10
4.75965E-10 2.01536E-10
5.75917E-10 1.59276E-10
6.85389E-10 1.25672E-10
8.04380E-10 1.01706E-10
9.32891E-10 8.25727E-11
1.07092E-09 6.81549E-11
1.21847E-09 5.65626E-11
1.37554E-09 4.73944E-11
1.54213E-09 3.99848E-11
1.71823E-09 3.38927E-11
1.90386E-09 2.89591E-11
2.09900E-09 2.47868E-11
2.30367E-09 2.13984E-11
2.51785E-09 1.84816E-11
2.74156E-09 1.60890E-11
2.97478E-09 1.40271E-11
3.21752E-09 1.23042E-11
3.46978E-09 1.08267E-11
3.73156E-09 9.56978E-12
4.00286E-09 8.49139E-12
4.28368E-09 7.56185E-12
4.57402E-09 6.76120E-12
4.87388E-09 6.06370E-12
5.18326E-09 5.45958E-12
5.50215E-09 4.92818E-12
5.83057E-09 4.46500E-12
6.16850E-09 4.05417E-12
6.51596E-09 3.69311E-12
6.87293E-09 3.37142E-12
7.23942E-09 3.08597E-12
7.61544E-09 2.83059E-12
1.18991E-08 1.31442E-12
1.71347E-08 6.89761E-13
2.33223E-08 3.92838E-13
3.04617E-08 2.39027E-13
3.85531E-08 1.53466E-13
4.75965E-08 1.03112E-13
5.75917E-08 7.18882E-14
6.85389E-08 5.16775E-14
8.04380E-08 3.81129E-14
9.32891E-08 2.87272E-14
1.07092E-07 2.20567E-14
1.21847E-07 1.72130E-14
1.37554E-07 1.36273E-14
1.54213E-07 1.09268E-14
1.71823E-07 8.86188E-15
1.90386E-07 7.26132E-15
2.09900E-07 6.00548E-15
2.30367E-07 5.00881E-15
2.51785E-07 4.21011E-15
2.74156E-07 3.56416E-15
2.97478E-07 3.03729E-15
3.21752E-07 2.60414E-15
3.46978E-07 2.24544E-15
3.73156E-07 1.94637E-15
4.00286E-07 1.69540E-15
4.28368E-07 1.48359E-15
4.57402E-07 1.30385E-15
4.87388E-07 1.15051E-15
5.18325E-07 1.01908E-15
5.50215E-07 9.05887E-16
5.83057E-07 8.07991E-16
6.16850E-07 7.22968E-16
6.51596E-07 6.48843E-16
6.87293E-07 5.83984E-16
7.23942E-07 5.27035E-16
7.61543E-07 4.76866E-16
1.18991E-06 1.97273E-16
1.71347E-06 9.57811E-17
2.33223E-06 5.19447E-17
3.04617E-06 3.05507E-17
3.85531E-06 1.91183E-17
4.75964E-06 1.25653E-17
5.75916E-06 8.59322E-18
6.85388E-06 6.07315E-18
8.04378E-06 4.41236E-18
9.32888E-06 3.28217E-18
1.07092E-05 2.49160E-18
1.21846E-05 1.92525E-18
1.37553E-05 1.51099E-18
1.54212E-05 1.20235E-18
1.71822E-05 9.68605E-19
1.90385E-05 7.88685E-19
2.09899E-05 6.49160E-19
2.30365E-05 5.39096E-19
2.51783E-05 4.51301E-19
2.74153E-05 3.80593E-19
2.97475E-05 3.23163E-19
3.21749E-05 2.76160E-19
3.46974E-05 2.37412E-19
3.73152E-05 2.05247E-19
4.00281E-05 1.78362E-19
4.28362E-05 1.55746E-19
4.57395E-05 1.36600E-19
4.87380E-05 1.20301E-19
5.18317E-05 1.06355E-19
5.50205E-05 9.43664E-20
5.83045E-05 8.40172E-20
6.16838E-05 7.50487E-20
6.51582E-05 6.72466E-20
6.87277E-05 6.04342E-20
7.23925E-05 5.44642E-20
7.61524E-05 4.93265E-20
9.21439E-05 3.36814E-20
1.09658E-04 2.37724E-20
1.28695E-04 1.72541E-20
1.49255E-04 1.28223E-20
1.71338E-04 9.72609E-21
1.94942E-04 7.50958E-21
2.20070E-04 5.88951E-21
2.46720E-04 4.68328E-21
2.74892E-04 3.77019E-21
3.04586E-04 3.06891E-21
3.35803E-04 2.52306E-21
3.68542E-04 2.09313E-21
4.02802E-04 1.75075E-21
4.38585E-04 1.47542E-21
4.75889E-04 1.25200E-21
5.14715E-04 1.06917E-21
5.55063E-04 9.18413E-22
5.96931E-04 7.93206E-22
6.40321E-04 6.88533E-22
6.85233E-04 6.00487E-22
7.31665E-04 5.26000E-22
7.79618E-04 4.62646E-22
8.29092E-04 4.08489E-22
8.80086E-04 3.61976E-22
9.32601E-04 3.21850E-22
9.86636E-04 2.87089E-22
1.04219E-03 2.56857E-22
1.09927E-03 2.30465E-22
1.15786E-03 2.07345E-22
1.21797E-03 1.87022E-22
1.27961E-03 1.69102E-22
1.34276E-03 1.53253E-22
1.40743E-03 1.39195E-22
1.47362E-03 1.26691E-22
1.54133E-03 1.15541E-22
1.61056E-03 1.05573E-22
1.68131E-03 9.66402E-23
1.75357E-03 8.86176E-23
1.82735E-03 8.13964E-23
1.90265E-03 7.48829E-23
1.97947E-03 6.89960E-23
2.05780E-03 6.36652E-23
2.13765E-03 5.88290E-23
2.21902E-03 5.44336E-23
2.30190E-03 5.04322E-23
2.38630E-03 4.67834E-23
2.47222E-03 4.34508E-23
2.55965E-03 4.04023E-23
2.64859E-03 3.76098E-23
2.73905E-03 3.50479E-23
2.83103E-03 3.26945E-23
2.92452E-03 3.05297E-23
3.01952E-03 2.85359E-23
3.11604E-03 2.66972E-23
3.21407E-03 2.49996E-23
3.31362E-03 2.34304E-23
3.41468E-03 2.19783E-23
3.51725E-03 2.06331E-23
3.62133E-03 1.93855E-23
3.72692E-03 1.82274E-23
3.83403E-03 1.71512E-23
3.94265E-03 1.61502E-23
4.05278E-03 1.52183E-23
4.16442E-03 1.43499E-23
4.27757E-03 1.35399E-23
4.39223E-03 1.27838E-23
4.50840E-03 1.20774E-23
4.62608E-03 1.14170E-23
4.74527E-03 1.07990E-23
4.86597E-03 1.02202E-23
4.98817E-03 9.67780E-24
5.11188E-03 9.16913E-24
5.23711E-03 8.69173E-24
5.36383E-03 8.24339E-24
5.49207E-03 7.82204E-24
5.62181E-03 7.42581E-24
5.75306E-03 7.05296E-24
5.88581E-03 6.70189E-24
6.02007E-03 6.37113E-24
6.15583E-03 6.05932E-24
6.29310E-03 5.76520E-24
6.43187E-03 5.48762E-24
6.57214E-03 5.22550E-24
6.71392E-03 4.97785E-24
6.85720E-03 4.74374E-24
7.00198E-03 4.52233E-24
7.14827E-03 4.31281E-24
7.29605E-03 4.11446E-24
7.44534E-03 3.92658E-24
7.59612E-03 3.74855E-24
7.97965E-03 3.34274E-24
8.37255E-03 2.98664E-24
8.77480E-03 2.67336E-24
9.18641E-03 2.39705E-24
9.60736E-03 2.15280E-24
1.00376E-02 1.93641E-24
1.04773E-02 1.74429E-24
1.09262E-02 1.57339E-24
1.13844E-02 1.42108E-24
1.18520E-02 1.28508E-24
1.23288E-02 1.16344E-24
1.28150E-02 1.05448E-24
1.33104E-02 9.56711E-25
1.38150E-02 8.68863E-25
1.43290E-02 7.89815E-25
1.48521E-02 7.18592E-25
1.53845E-02 6.54337E-25
1.59262E-02 5.96297E-25
1.64770E-02 5.43811E-25
1.70371E-02 4.96295E-25
1.76063E-02 4.53233E-25
1.81848E-02 4.14167E-25
1.87724E-02 3.78695E-25
1.93692E-02 3.46455E-25
1.99751E-02 3.17127E-25
2.05901E-02 2.90427E-25
2.12143E-02 2.66099E-25
2.18476E-02 2.43917E-25
2.24900E-02 2.23676E-25
2.31415E-02 2.05194E-25
2.38021E-02 1.88308E-25
2.44717E-02 1.72870E-25
2.51504E-02 1.58748E-25
2.58382E-02 1.45822E-25
2.65349E-02 1.33985E-25
2.72407E-02 1.23139E-25
2.79555E-02 1.13198E-25
2.86793E-02 1.04081E-25
2.94120E-02 9.57175E-26
3.01537E-02 8.80411E-26
3.09043E-02 8.09931E-26
3.16639E-02 7.45198E-26
3.24324E-02 6.85725E-26
3.32098E-02 6.31066E-26
3.39961E-02 5.80820E-26
3.47912E-02 5.34616E-26
3.55952E-02 4.92120E-26
3.64081E-02 4.53025E-26
3.72297E-02 4.17052E-26
3.80602E-02 3.83945E-26
3.88995E-02 3.53472E-26
3.97476E-02 3.25417E-26
4.06044E-02 2.99586E-26
4.14700E-02 2.75799E-26
4.23443E-02 2.53894E-26
4.32273E-02 2.33718E-26
4.41190E-02 2.15135E-26
4.50194E-02 1.98017E-26
4.59284E-02 1.82249E-26
4.68461E-02 1.67723E-26
4.87074E-02 1.42016E-26
5.06030E-02 1.20202E-26
5.25328E-02 1.01694E-26
5.44967E-02 8.59947E-27
5.64946E-02 7.26828E-27
5.85262E-02 6.14003E-27
6.05914E-02 5.18429E-27
6.26901E-02 4.37517E-27
6.48222E-02 3.69066E-27
6.69873E-02 3.11203E-27
6.91854E-02 2.62331E-27
7.14163E-02 2.21089E-27
7.36799E-02 1.86321E-27
7.59760E-02 1.57039E-27
7.83043E-02 1.32403E-27
8.06647E-02 1.11698E-27
8.30571E-02 9.43148E-28
8.54812E-02 7.97356E-28
8.79369E-02 6.75202E-28
9.04240E-02 5.72946E-28
9.29422E-02 4.87416E-28
9.54915E-02 4.15923E-28
9.80716E-02 3.56189E-28
1.00682E-01 3.06290E-28
1.03323E-01 2.64601E-28
1.05995E-01 2.29751E-28
1.08696E-01 2.00589E-28
1.11427E-01 1.76147E-28
1.14188E-01 1.55614E-28
1.16978E-01 1.38313E-28
1.19797E-01 1.23678E-28
1.22645E-01 1.11240E-28
1.25522E-01 1.00608E-28
1.28428E-01 9.14614E-29
1.31361E-01 8.35342E-29
1.34323E-01 7.66087E-29
1.37313E-01 7.05066E-29
1.40330E-01 6.50830E-29
1.43375E-01 6.02200E-29
1.46447E-01 5.58228E-29
1.49545E-01 5.18150E-29
1.52671E-01 4.81354E-29
1.55823E-01 4.47354E-29
1.59001E-01 4.15765E-29
1.62205E-01 3.86283E-29
1.65435E-01 3.58667E-29
1.68690E-01 3.32730E-29
1.71970E-01 3.08324E-29
1.75276E-01 2.85332E-29
1.78606E-01 2.63663E-29
1.81961E-01 2.43240E-29
1.85340E-01 2.24004E-29
1.88743E-01 2.05903E-29
1.92169E-01 1.88891E-29
1.95619E-01 1.72928E-29
1.99092E-01 1.57976E-29
2.02589E-01 1.44000E-29
2.06107E-01 1.30962E-29
2.09649E-01 1.18829E-29
2.13212E-01 1.07564E-29
2.16797E-01 9.71307E-30
2.20404E-01 8.74928E-30
2.24032E-01 7.86129E-30
2.27680E-01 7.04534E-30
2.31350E-01 6.29764E-30
2.35040E-01 5.61441E-30
2.38751E-01 4.99189E-30
2.42481E-01 4.42632E-30
2.46231E-01 3.91405E-30
2.50000E-01 3.45147E-30
2.53788E-01 3.03506E-30
2.57595E-01 2.66142E-30
2.61421E-01 2.32726E-30
2.65264E-01 2.02944E-30
2.69126E-01 1.76494E-30
2.73005E-01 1.53089E-30
2.76901E-01 1.32456E-30
2.80814E-01 1.14340E-30
2.84744E-01 9.84996E-31
2.88691E-01 8.47092E-31
2.92653E-01 7.27588E-31
2.96632E-01 6.24533E-31
3.00625E-01 5.36124E-31
3.04634E-01 4.60698E-31
3.08658E-01 3.96732E-31
3.12697E-01 3.42832E-31
3.16749E-01 2.97731E-31
3.20816E-01 2.60278E-31
3.24896E-01 2.29435E-31
3.28990E-01 2.04269E-31
3.33097E-01 1.83945E-31
3.37216E-01 1.67717E-31
3.41348E-01 1.54924E-31
3.45492E-01 1.44985E-31
3.49647E-01 1.37387E-31
3.53814E-01 1.31684E-31
3.57992E-01 1.27489E-31
3.62181E-01 1.24467E-31
3.66381E-01 1.22335E-31
3.70590E-01 1.20849E-31
3.74810E-01 1.19808E-31
3.79039E-01 1.19043E-31
3.83277E-01 1.18416E-31
3.87524E-01 1.17817E-31
3.91780E-01 1.17157E-31
3.96044E-01 1.16369E-31
4.00316E-01 1.15405E-31
4.04596E-01 1.14230E-31
4.08882E-01 1.12821E-31
4.13176E-01 1.11167E-31
4.17476E-01 1.09267E-31
4.21783E-01 1.07125E-31
4.26095E-01 1.04751E-31
4.30413E-01 1.02161E-31
4.34737E-01 9.93726E-32
4.39065E-01 9.64072E-32
4.43398E-01 9.32872E-32
4.47736E-01 9.00359E-32
4.52077E-01 8.66772E-32
4.56422E-01 8.32347E-32
4.60770E-01 7.97313E-32
4.65122E-01 7.61895E-32
4.69476E-01 7.26302E-32
4.73832E-01 6.90733E-32
4.78190E-01 6.55371E-32
4.82550E-01 6.20386E-32
4.86912E-01 5.85928E-32
4.91274E-01 5.52136E-32
4.95637E-01 5.19129E-32
5.00000E-01 4.87013E-32
5.04363E-01 4.55876E-32
5.08726E-01 4.25795E-32
5.13088E-01 3.96829E-32
5.17450E-01 3.69027E-32
5.21810E-01 3.42425E-32
5.26168E-01 3.17047E-32
5.30524E-01 2.92908E-32
5.34878E-01 2.70012E-32
5.39230E-01 2.48356E-32
5.43578E-01 2.27928E-32
5.47923E-01 2.08711E-32
5.52264E-01 1.90680E-32
5.56602E-01 1.73808E-32
5.60935E-01 1.58061E-32
5.65263E-01 1.43401E-32
5.69587E-01 1.29791E-32
5.73905E-01 1.17188E-32
5.78217E-01 1.05548E-32
5.82524E-01 9.48264E-33
5.86824E-01 8.49779E-33
5.91118E-01 7.59565E-33
5.95404E-01 6.77162E-33
5.99684E-01 6.02114E-33
6.03956E-01 5.33970E-33
6.08220E-01 4.72290E-33
6.12476E-01 4.16642E-33
6.16723E-01 3.66609E-33
6.20961E-01 3.21786E-33
6.25190E-01 2.81784E-33
6.29410E-01 2.46230E-33
6.33619E-01 2.14766E-33
6.37819E-01 1.87053E-33
6.42008E-01 1.62770E-33
6.46186E-01 1.41611E-33
6.50353E-01 1.23289E-33
6.54508E-01 1.07535E-33
6.58652E-01 9.40961E-34
6.62784E-01 8.27362E-34
6.66903E-01 7.32354E-34
6.71010E-01 6.53899E-34
6.75104E-01 5.90112E-34
6.79184E-01 5.39253E-34
6.83251E-01 4.99720E-34
6.87303E-01 4.70046E-34
6.91342E-01 4.48890E-34
6.95366E-01 4.35034E-34
6.99375E-01 4.27367E-34
7.03368E-01 4.24891E-34
7.07347E-01 4.26701E-34
7.11309E-01 4.31992E-34
7.15256E-01 4.40041E-34
7.19186E-01 4.50208E-34
7.23099E-01 4.61925E-34
7.26995E-01 4.74697E-34
7.30874E-01 4.88088E-34
7.34736E-01 5.01723E-34
7.38579E-01 5.15279E-34
7.42405E-01 5.28481E-34
7.46212E-01 5.41100E-34
7.50000E-01 5.52944E-34
7.53769E-01 5.63859E-34
7.57519E-01 5.73720E-34
7.61249E-01 5.82434E-34
7.64960E-01 5.89933E-34
7.68650E-01 5.96170E-34
7.72320E-01 6.01118E-34
7.75968E-01 6.04768E-34
7.79596E-01 6.07127E-34
7.83203E-01 6.08211E-34
7.86788E-01 6.08052E-34
7.90351E-01 6.06687E-34
7.93893E-01 6.04162E-34
7.97411E-01 6.00531E-34
8.00908E-01 5.95849E-34
8.04381E-01 5.90180E-34
8.07831E-01 5.83585E-34
8.11257E-01 5.76130E-34
8.14660E-01 5.67882E-34
8.18039E-01 5.58908E-34
8.21394E-01 5.49274E-34
8.24724E-01 5.39045E-34
8.28030E-01 5.28287E-34
8.31310E-01 5.17060E-34
8.34565E-01 5.05428E-34
8.37795E-01 4.93447E-34
8.40999E-01 4.81174E-34
8.44177E-01 4.68663E-34
8.47329E-01 4.55965E-34
8.50455E-01 4.43126E-34
8.53553E-01 4.30193E-34
8.56625E-01 4.17208E-34
8.59670E-01 4.04211E-34
8.62687E-01 3.91238E-34
8.65677E-01 3.78322E-34
8.68639E-01 3.65495E-34
8.71572E-01 3.52785E-34
8.74478E-01 3.40219E-34
8.77355E-01 3.27820E-34
8.80203E-01 3.15609E-34
8.83022E-01 3.03604E-34
8.85812E-01 2.91822E-34
8.88573E-01 2.80278E-34
8.91304E-01 2.68984E-34
8.94005E-01 2.57950E-34
8.96677E-01 2.47187E-34
8.99318E-01 2.36701E-34
9.01928E-01 2.26499E-34
9.04508E-01 2.16584E-34
9.07058E-01 2.06959E-34
9.09576E-01 1.97628E-34
9.12063E-01 1.88590E-34
9.14519E-01 1.79845E-34
9.16943E-01 1.71393E-34
9.19335E-01 1.63231E-34
9.21696E-01 1.55357E-34
9.24024E-01 1.47768E-34
9.26320E-01 1.40459E-34
9.28584E-01 1.33427E-34
9.30815E-01 1.26666E-34
9.33013E-01 1.20171E-34
9.35178E-01 1.13936E-34
9.37310E-01 1.07956E-34
9.39409E-01 1.02224E-34
9.41474E-01 9.67332E-35
9.43505E-01 9.14777E-35
9.45503E-01 8.64505E-35
9.47467E-01 8.16452E-35
9.49397E-01 7.70544E-35
9.51293E-01 7.26717E-35
9.53154E-01 6.84897E-35
9.54981E-01 6.45021E-35
9.56773E-01 6.07019E-35
9.58530E-01 5.70825E-35
9.60252E-01 5.36369E-35
9.61940E-01 5.03590E-35
9.63592E-01 4.72423E-35
9.65209E-01 4.42800E-35
9.66790E-01 4.14666E-35
9.68336E-01 3.87955E-35
9.69846E-01 3.62612E-35
9.71321E-01 3.38580E-35
9.72759E-01 3.15803E-35
9.74162E-01 2.94224E-35
9.75528E-01 2.73796E-35
9.76858E-01 2.54464E-35
9.78152E-01 2.36184E-35
9.79410E-01 2.18908E-35
9.80631E-01 2.02587E-35
9.81815E-01 1.87183E-35
9.82963E-01 1.72650E-35
9.84074E-01 1.58951E-35
9.85148E-01 1.46047E-35
9.86185E-01 1.33899E-35
9.87185E-01 1.22475E-35
9.88148E-01 1.11742E-35
9.89074E-01 1.01666E-35
9.89962E-01 9.22195E-36
9.90814E-01 8.33713E-36
9.91627E-01 7.50963E-36
9.92404E-01 6.73679E-36
9.93143E-01 6.01620E-36
9.93844E-01 5.34556E-36
9.94508E-01 4.72287E-36
9.95134E-01 4.14605E-36
9.95722E-01 3.61324E-36
9.96273E-01 3.12264E-36
9.96786E-01 2.67275E-36
9.97261E-01 2.26195E-36
9.97698E-01 1.88899E-36
9.98097E-01 1.55265E-36
9.98459E-01 1.25161E-36
9.98782E-01 9.84909E-37
9.99067E-01 7.51776E-37
9.99315E-01 5.51242E-37
9.99524E-01 3.82785E-37
9.99695E-01 2.45729E-37
9.99829E-01 1.39647E-37
9.99924E-01 6.40751E-38
9.99981E-01 1.88683E-38
1.00000E+00 3.83784E-39
