 #
 # Subroutine ELSEPA. Elastic scattering of electrons and positrons
 #                    by neutral atoms and positive ions
 #
 # Projectile: positron
 # Kinetic energy = 2.50000E+07 eV = 9.18733E+05 a.u.
 #
 # WARNING: High-energy factorization with free-atom DF screening.
 #          Absorption, polarization and exchange corrections are
 #          switched off.
 #          Phase shifts are calculated for the bare nucleus.
 #          Scattering amplitudes are not evaluated.
 #
 # Element: Pr,  Z =  59,  atomic weight = 1.40908E+02 g/mol
 #
 # Nuclear model: Fermi distribution
 #                Average radius = 5.56795E-13 cm
 #                Skin thickness = 5.46000E-14 cm
 #
 # Number of electrons = 59
 #
 # Total elastic cross section = 7.27932E-18 cm**2 = 2.59949E-01 a0**2
 # 1st transport cross section = 8.81803E-24 cm**2 = 3.14898E-07 a0**2
 # 2nd transport cross section = 2.57015E-23 cm**2 = 9.17816E-07 a0**2
 #
 #
 # Differential cross section:                       MU=(1-COS(THETA))/2
 #
 #  THETA        MU          DCS          DCS        Sherman      error
 #  (deg)                 (cm**2/sr)   (a0**2/sr)    function
 #----------------------------------------------------------------------
0.00000E+00 6.94546E-11
7.61557E-13 6.94291E-11
1.18994E-12 6.94149E-11
1.71346E-12 6.93975E-11
2.33225E-12 6.93770E-11
3.04617E-12 6.93533E-11
3.85530E-12 6.93266E-11
4.75964E-12 6.92967E-11
5.75917E-12 6.92637E-11
6.85391E-12 6.92275E-11
8.04379E-12 6.91883E-11
9.32893E-12 6.91460E-11
1.07092E-11 6.91006E-11
1.21847E-11 6.90521E-11
1.37554E-11 6.90006E-11
1.54213E-11 6.89460E-11
1.71823E-11 6.88884E-11
1.90386E-11 6.88278E-11
2.09900E-11 6.87641E-11
2.30367E-11 6.86974E-11
2.51785E-11 6.86278E-11
2.74156E-11 6.85552E-11
2.97478E-11 6.84796E-11
3.21752E-11 6.84011E-11
3.46979E-11 6.83197E-11
3.73157E-11 6.82353E-11
4.00286E-11 6.81481E-11
4.28368E-11 6.80580E-11
4.57402E-11 6.79651E-11
4.87388E-11 6.78693E-11
5.18325E-11 6.77707E-11
5.50215E-11 6.76693E-11
5.83057E-11 6.75652E-11
6.16850E-11 6.74583E-11
6.51595E-11 6.73487E-11
6.87293E-11 6.72365E-11
7.23943E-11 6.71215E-11
7.61544E-11 6.70039E-11
1.18991E-10 6.56872E-11
1.71347E-10 6.41347E-11
2.33223E-10 6.23763E-11
3.04617E-10 6.04442E-11
3.85531E-10 5.83817E-11
4.75965E-10 5.62085E-11
5.75917E-10 5.39471E-11
6.85389E-10 5.16620E-11
8.04380E-10 4.93312E-11
9.32891E-10 4.70465E-11
1.07092E-09 4.47511E-11
1.21847E-09 4.25480E-11
1.37554E-09 4.03714E-11
1.54213E-09 3.83003E-11
1.71823E-09 3.62906E-11
1.90386E-09 3.43865E-11
2.09900E-09 3.25683E-11
2.30367E-09 3.08475E-11
2.51785E-09 2.92270E-11
2.74156E-09 2.76915E-11
2.97478E-09 2.62621E-11
3.21752E-09 2.49043E-11
3.46978E-09 2.36516E-11
3.73156E-09 2.24581E-11
4.00286E-09 2.13637E-11
4.28368E-09 2.03223E-11
4.57402E-09 1.93626E-11
4.87388E-09 1.84548E-11
5.18326E-09 1.76117E-11
5.50215E-09 1.68186E-11
5.83057E-09 1.60770E-11
6.16850E-09 1.53815E-11
6.51596E-09 1.47274E-11
6.87293E-09 1.41144E-11
7.23942E-09 1.35356E-11
7.61544E-09 1.29923E-11
1.18991E-08 8.91499E-12
1.71347E-08 6.37296E-12
2.33223E-08 4.66218E-12
3.04617E-08 3.47036E-12
3.85531E-08 2.60663E-12
4.75965E-08 1.99818E-12
5.75917E-08 1.57170E-12
6.85389E-08 1.24179E-12
8.04380E-08 1.00443E-12
9.32891E-08 8.13931E-13
1.07092E-07 6.72745E-13
1.21847E-07 5.56216E-13
1.37554E-07 4.66622E-13
1.54213E-07 3.92226E-13
1.71823E-07 3.32803E-13
1.90386E-07 2.83412E-13
2.09900E-07 2.42781E-13
2.30367E-07 2.09017E-13
2.51785E-07 1.80649E-13
2.74156E-07 1.57032E-13
2.97478E-07 1.36904E-13
3.21752E-07 1.20064E-13
3.46978E-07 1.05569E-13
3.73156E-07 9.33537E-14
4.00286E-07 8.27573E-14
4.28368E-07 7.37339E-14
4.57402E-07 6.58823E-14
4.87388E-07 5.91130E-14
5.18325E-07 5.31973E-14
5.50215E-07 4.80406E-14
5.83057E-07 4.35094E-14
6.16850E-07 3.95202E-14
6.51596E-07 3.59956E-14
6.87293E-07 3.28632E-14
7.23942E-07 3.00821E-14
7.61543E-07 2.75878E-14
1.18991E-06 1.27918E-14
1.71347E-06 6.69806E-15
2.33223E-06 3.80707E-15
3.04617E-06 2.31439E-15
3.85531E-06 1.48487E-15
4.75964E-06 9.97438E-16
5.75916E-06 6.95227E-16
6.85388E-06 4.99659E-16
8.04378E-06 3.68310E-16
9.32888E-06 2.77446E-16
1.07092E-05 2.12952E-16
1.21846E-05 1.66139E-16
1.37553E-05 1.31490E-16
1.54212E-05 1.05402E-16
1.71822E-05 8.54520E-17
1.90385E-05 6.99651E-17
2.09899E-05 5.78702E-17
2.30365E-05 4.82680E-17
2.51783E-05 4.05648E-17
2.74153E-05 3.43292E-17
2.97475E-05 2.92410E-17
3.21749E-05 2.50590E-17
3.46974E-05 2.15993E-17
3.73152E-05 1.87179E-17
4.00281E-05 1.63025E-17
4.28362E-05 1.42649E-17
4.57395E-05 1.25357E-17
4.87380E-05 1.10600E-17
5.18317E-05 9.79458E-18
5.50205E-05 8.70459E-18
5.83045E-05 7.76190E-18
6.16838E-05 6.94349E-18
6.51582E-05 6.23034E-18
6.87277E-05 5.60660E-18
7.23925E-05 5.05914E-18
7.61524E-05 4.57703E-18
9.21439E-05 3.13804E-18
1.09658E-04 2.22245E-18
1.28695E-04 1.61779E-18
1.49255E-04 1.20528E-18
1.71338E-04 9.16222E-19
1.94942E-04 7.08761E-19
2.20070E-04 5.56779E-19
2.46720E-04 4.43394E-19
2.74892E-04 3.57415E-19
3.04586E-04 2.91280E-19
3.35803E-04 2.39731E-19
3.68542E-04 1.99082E-19
4.02802E-04 1.66681E-19
4.38585E-04 1.40599E-19
4.75889E-04 1.19417E-19
5.14715E-04 1.02070E-19
5.55063E-04 8.77565E-20
5.96931E-04 7.58611E-20
6.40321E-04 6.59108E-20
6.85233E-04 5.75363E-20
7.31665E-04 5.04479E-20
7.79618E-04 4.44159E-20
8.29092E-04 3.92571E-20
8.80086E-04 3.48244E-20
9.32601E-04 3.09987E-20
9.86636E-04 2.76829E-20
1.04219E-03 2.47979E-20
1.09927E-03 2.22781E-20
1.15786E-03 2.00697E-20
1.21797E-03 1.81275E-20
1.27961E-03 1.64141E-20
1.34276E-03 1.48979E-20
1.40743E-03 1.35524E-20
1.47362E-03 1.23549E-20
1.54133E-03 1.12865E-20
1.61056E-03 1.03308E-20
1.68131E-03 9.47383E-21
1.75357E-03 8.70366E-21
1.82735E-03 8.00995E-21
1.90265E-03 7.38379E-21
1.97947E-03 6.81745E-21
2.05780E-03 6.30421E-21
2.13765E-03 5.83822E-21
2.21902E-03 5.41436E-21
2.30190E-03 5.02815E-21
2.38630E-03 4.67565E-21
2.47222E-03 4.35340E-21
2.55965E-03 4.05835E-21
2.64859E-03 3.78778E-21
2.73905E-03 3.53932E-21
2.83103E-03 3.31082E-21
2.92452E-03 3.10040E-21
3.01952E-03 2.90637E-21
3.11604E-03 2.72722E-21
3.21407E-03 2.56162E-21
3.31362E-03 2.40834E-21
3.41468E-03 2.26632E-21
3.51725E-03 2.13457E-21
3.62133E-03 2.01222E-21
3.72692E-03 1.89847E-21
3.83403E-03 1.79261E-21
3.94265E-03 1.69400E-21
4.05278E-03 1.60205E-21
4.16442E-03 1.51622E-21
4.27757E-03 1.43604E-21
4.39223E-03 1.36107E-21
4.50840E-03 1.29090E-21
4.62608E-03 1.22518E-21
4.74527E-03 1.16357E-21
4.86597E-03 1.10576E-21
4.98817E-03 1.05148E-21
5.11188E-03 1.00048E-21
5.23711E-03 9.52516E-22
5.36383E-03 9.07377E-22
5.49207E-03 8.64867E-22
5.62181E-03 8.24805E-22
5.75306E-03 7.87025E-22
5.88581E-03 7.51372E-22
6.02007E-03 7.17705E-22
6.15583E-03 6.85892E-22
6.29310E-03 6.55812E-22
6.43187E-03 6.27354E-22
6.57214E-03 6.00415E-22
6.71392E-03 5.74899E-22
6.85720E-03 5.50716E-22
7.00198E-03 5.27785E-22
7.14827E-03 5.06027E-22
7.29605E-03 4.85372E-22
7.44534E-03 4.65754E-22
7.59612E-03 4.47112E-22
7.97965E-03 4.04407E-22
8.37255E-03 3.66651E-22
8.77480E-03 3.33175E-22
9.18641E-03 3.03411E-22
9.60736E-03 2.76877E-22
1.00376E-02 2.53164E-22
1.04773E-02 2.31919E-22
1.09262E-02 2.12842E-22
1.13844E-02 1.95674E-22
1.18520E-02 1.80191E-22
1.23288E-02 1.66198E-22
1.28150E-02 1.53528E-22
1.33104E-02 1.42034E-22
1.38150E-02 1.31587E-22
1.43290E-02 1.22077E-22
1.48521E-02 1.13403E-22
1.53845E-02 1.05480E-22
1.59262E-02 9.82313E-23
1.64770E-02 9.15901E-23
1.70371E-02 8.54955E-23
1.76063E-02 7.98954E-23
1.81848E-02 7.47424E-23
1.87724E-02 6.99944E-23
1.93692E-02 6.56143E-23
1.99751E-02 6.15682E-23
2.05901E-02 5.78264E-23
2.12143E-02 5.43618E-23
2.18476E-02 5.11503E-23
2.24900E-02 4.81702E-23
2.31415E-02 4.54018E-23
2.38021E-02 4.28275E-23
2.44717E-02 4.04311E-23
2.51504E-02 3.81983E-23
2.58382E-02 3.61159E-23
2.65349E-02 3.41719E-23
2.72407E-02 3.23556E-23
2.79555E-02 3.06570E-23
2.86793E-02 2.90671E-23
2.94120E-02 2.75778E-23
3.01537E-02 2.61816E-23
3.09043E-02 2.48716E-23
3.16639E-02 2.36415E-23
3.24324E-02 2.24856E-23
3.32098E-02 2.13987E-23
3.39961E-02 2.03758E-23
3.47912E-02 1.94125E-23
3.55952E-02 1.85048E-23
3.64081E-02 1.76487E-23
3.72297E-02 1.68409E-23
3.80602E-02 1.60782E-23
3.88995E-02 1.53576E-23
3.97476E-02 1.46763E-23
4.06044E-02 1.40319E-23
4.14700E-02 1.34220E-23
4.23443E-02 1.28444E-23
4.32273E-02 1.22970E-23
4.41190E-02 1.17781E-23
4.50194E-02 1.12859E-23
4.59284E-02 1.08188E-23
4.68461E-02 1.03751E-23
4.87074E-02 9.55310E-24
5.06030E-02 8.80968E-24
5.25328E-02 8.13609E-24
5.44967E-02 7.52467E-24
5.64946E-02 6.96871E-24
5.85262E-02 6.46232E-24
6.05914E-02 6.00034E-24
6.26901E-02 5.57822E-24
6.48222E-02 5.19193E-24
6.69873E-02 4.83791E-24
6.91854E-02 4.51300E-24
7.14163E-02 4.21442E-24
7.36799E-02 3.93966E-24
7.59760E-02 3.68650E-24
7.83043E-02 3.45294E-24
8.06647E-02 3.23723E-24
8.30571E-02 3.03775E-24
8.54812E-02 2.85308E-24
8.79369E-02 2.68193E-24
9.04240E-02 2.52315E-24
9.29422E-02 2.37569E-24
9.54915E-02 2.23860E-24
9.80716E-02 2.11103E-24
1.00682E-01 1.99220E-24
1.03323E-01 1.88142E-24
1.05995E-01 1.77805E-24
1.08696E-01 1.68150E-24
1.11427E-01 1.59125E-24
1.14188E-01 1.50683E-24
1.16978E-01 1.42778E-24
1.19797E-01 1.35371E-24
1.22645E-01 1.28425E-24
1.25522E-01 1.21907E-24
1.28428E-01 1.15785E-24
1.31361E-01 1.10032E-24
1.34323E-01 1.04622E-24
1.37313E-01 9.95301E-25
1.40330E-01 9.47351E-25
1.43375E-01 9.02166E-25
1.46447E-01 8.59561E-25
1.49545E-01 8.19362E-25
1.52671E-01 7.81410E-25
1.55823E-01 7.45559E-25
1.59001E-01 7.11674E-25
1.62205E-01 6.79627E-25
1.65435E-01 6.49302E-25
1.68690E-01 6.20592E-25
1.71970E-01 5.93395E-25
1.75276E-01 5.67619E-25
1.78606E-01 5.43176E-25
1.81961E-01 5.19987E-25
1.85340E-01 4.97976E-25
1.88743E-01 4.77074E-25
1.92169E-01 4.57214E-25
1.95619E-01 4.38337E-25
1.99092E-01 4.20385E-25
2.02589E-01 4.03306E-25
2.06107E-01 3.87050E-25
2.09649E-01 3.71572E-25
2.13212E-01 3.56826E-25
2.16797E-01 3.42774E-25
2.20404E-01 3.29377E-25
2.24032E-01 3.16599E-25
2.27680E-01 3.04407E-25
2.31350E-01 2.92770E-25
2.35040E-01 2.81658E-25
2.38751E-01 2.71044E-25
2.42481E-01 2.60901E-25
2.46231E-01 2.51206E-25
2.50000E-01 2.41935E-25
2.53788E-01 2.33067E-25
2.57595E-01 2.24581E-25
2.61421E-01 2.16458E-25
2.65264E-01 2.08680E-25
2.69126E-01 2.01231E-25
2.73005E-01 1.94093E-25
2.76901E-01 1.87252E-25
2.80814E-01 1.80693E-25
2.84744E-01 1.74404E-25
2.88691E-01 1.68370E-25
2.92653E-01 1.62580E-25
2.96632E-01 1.57022E-25
3.00625E-01 1.51687E-25
3.04634E-01 1.46562E-25
3.08658E-01 1.41639E-25
3.12697E-01 1.36909E-25
3.16749E-01 1.32362E-25
3.20816E-01 1.27991E-25
3.24896E-01 1.23787E-25
3.28990E-01 1.19744E-25
3.33097E-01 1.15853E-25
3.37216E-01 1.12109E-25
3.41348E-01 1.08505E-25
3.45492E-01 1.05034E-25
3.49647E-01 1.01692E-25
3.53814E-01 9.84727E-26
3.57992E-01 9.53705E-26
3.62181E-01 9.23809E-26
3.66381E-01 8.94990E-26
3.70590E-01 8.67205E-26
3.74810E-01 8.40409E-26
3.79039E-01 8.14562E-26
3.83277E-01 7.89625E-26
3.87524E-01 7.65562E-26
3.91780E-01 7.42337E-26
3.96044E-01 7.19916E-26
4.00316E-01 6.98266E-26
4.04596E-01 6.77359E-26
4.08882E-01 6.57163E-26
4.13176E-01 6.37652E-26
4.17476E-01 6.18798E-26
4.21783E-01 6.00575E-26
4.26095E-01 5.82961E-26
4.30413E-01 5.65930E-26
4.34737E-01 5.49461E-26
4.39065E-01 5.33533E-26
4.43398E-01 5.18124E-26
4.47736E-01 5.03216E-26
4.52077E-01 4.88790E-26
4.56422E-01 4.74828E-26
4.60770E-01 4.61313E-26
4.65122E-01 4.48228E-26
4.69476E-01 4.35557E-26
4.73832E-01 4.23286E-26
4.78190E-01 4.11400E-26
4.82550E-01 3.99885E-26
4.86912E-01 3.88728E-26
4.91274E-01 3.77917E-26
4.95637E-01 3.67438E-26
5.00000E-01 3.57280E-26
5.04363E-01 3.47432E-26
5.08726E-01 3.37883E-26
5.13088E-01 3.28623E-26
5.17450E-01 3.19641E-26
5.21810E-01 3.10929E-26
5.26168E-01 3.02476E-26
5.30524E-01 2.94275E-26
5.34878E-01 2.86316E-26
5.39230E-01 2.78591E-26
5.43578E-01 2.71092E-26
5.47923E-01 2.63813E-26
5.52264E-01 2.56745E-26
5.56602E-01 2.49881E-26
5.60935E-01 2.43216E-26
5.65263E-01 2.36741E-26
5.69587E-01 2.30452E-26
5.73905E-01 2.24342E-26
5.78217E-01 2.18405E-26
5.82524E-01 2.12636E-26
5.86824E-01 2.07029E-26
5.91118E-01 2.01579E-26
5.95404E-01 1.96281E-26
5.99684E-01 1.91131E-26
6.03956E-01 1.86123E-26
6.08220E-01 1.81254E-26
6.12476E-01 1.76518E-26
6.16723E-01 1.71912E-26
6.20961E-01 1.67431E-26
6.25190E-01 1.63073E-26
6.29410E-01 1.58832E-26
6.33619E-01 1.54706E-26
6.37819E-01 1.50691E-26
6.42008E-01 1.46784E-26
6.46186E-01 1.42981E-26
6.50353E-01 1.39279E-26
6.54508E-01 1.35675E-26
6.58652E-01 1.32167E-26
6.62784E-01 1.28751E-26
6.66903E-01 1.25424E-26
6.71010E-01 1.22185E-26
6.75104E-01 1.19030E-26
6.79184E-01 1.15957E-26
6.83251E-01 1.12964E-26
6.87303E-01 1.10049E-26
6.91342E-01 1.07208E-26
6.95366E-01 1.04440E-26
6.99375E-01 1.01743E-26
7.03368E-01 9.91154E-27
7.07347E-01 9.65543E-27
7.11309E-01 9.40582E-27
7.15256E-01 9.16252E-27
7.19186E-01 8.92536E-27
7.23099E-01 8.69417E-27
7.26995E-01 8.46878E-27
7.30874E-01 8.24903E-27
7.34736E-01 8.03477E-27
7.38579E-01 7.82584E-27
7.42405E-01 7.62210E-27
7.46212E-01 7.42340E-27
7.50000E-01 7.22961E-27
7.53769E-01 7.04060E-27
7.57519E-01 6.85623E-27
7.61249E-01 6.67639E-27
7.64960E-01 6.50094E-27
7.68650E-01 6.32978E-27
7.72320E-01 6.16280E-27
7.75968E-01 5.99987E-27
7.79596E-01 5.84089E-27
7.83203E-01 5.68576E-27
7.86788E-01 5.53438E-27
7.90351E-01 5.38666E-27
7.93893E-01 5.24248E-27
7.97411E-01 5.10178E-27
8.00908E-01 4.96444E-27
8.04381E-01 4.83040E-27
8.07831E-01 4.69956E-27
8.11257E-01 4.57185E-27
8.14660E-01 4.44718E-27
8.18039E-01 4.32548E-27
8.21394E-01 4.20667E-27
8.24724E-01 4.09068E-27
8.28030E-01 3.97745E-27
8.31310E-01 3.86689E-27
8.34565E-01 3.75896E-27
8.37795E-01 3.65357E-27
8.40999E-01 3.55068E-27
8.44177E-01 3.45021E-27
8.47329E-01 3.35212E-27
8.50455E-01 3.25634E-27
8.53553E-01 3.16282E-27
8.56625E-01 3.07150E-27
8.59670E-01 2.98234E-27
8.62687E-01 2.89527E-27
8.65677E-01 2.81026E-27
8.68639E-01 2.72724E-27
8.71572E-01 2.64619E-27
8.74478E-01 2.56705E-27
8.77355E-01 2.48977E-27
8.80203E-01 2.41432E-27
8.83022E-01 2.34065E-27
8.85812E-01 2.26872E-27
8.88573E-01 2.19849E-27
8.91304E-01 2.12993E-27
8.94005E-01 2.06300E-27
8.96677E-01 1.99765E-27
8.99318E-01 1.93387E-27
9.01928E-01 1.87160E-27
9.04508E-01 1.81082E-27
9.07058E-01 1.75150E-27
9.09576E-01 1.69361E-27
9.12063E-01 1.63711E-27
9.14519E-01 1.58197E-27
9.16943E-01 1.52817E-27
9.19335E-01 1.47568E-27
9.21696E-01 1.42447E-27
9.24024E-01 1.37452E-27
9.26320E-01 1.32579E-27
9.28584E-01 1.27827E-27
9.30815E-01 1.23193E-27
9.33013E-01 1.18674E-27
9.35178E-01 1.14269E-27
9.37310E-01 1.09975E-27
9.39409E-01 1.05790E-27
9.41474E-01 1.01712E-27
9.43505E-01 9.77385E-28
9.45503E-01 9.38680E-28
9.47467E-01 9.00985E-28
9.49397E-01 8.64280E-28
9.51293E-01 8.28548E-28
9.53154E-01 7.93772E-28
9.54981E-01 7.59934E-28
9.56773E-01 7.27017E-28
9.58530E-01 6.95006E-28
9.60252E-01 6.63886E-28
9.61940E-01 6.33640E-28
9.63592E-01 6.04255E-28
9.65209E-01 5.75717E-28
9.66790E-01 5.48011E-28
9.68336E-01 5.21125E-28
9.69846E-01 4.95045E-28
9.71321E-01 4.69760E-28
9.72759E-01 4.45257E-28
9.74162E-01 4.21524E-28
9.75528E-01 3.98551E-28
9.76858E-01 3.76327E-28
9.78152E-01 3.54841E-28
9.79410E-01 3.34082E-28
9.80631E-01 3.14043E-28
9.81815E-01 2.94712E-28
9.82963E-01 2.76081E-28
9.84074E-01 2.58141E-28
9.85148E-01 2.40885E-28
9.86185E-01 2.24303E-28
9.87185E-01 2.08389E-28
9.88148E-01 1.93135E-28
9.89074E-01 1.78533E-28
9.89962E-01 1.64578E-28
9.90814E-01 1.51263E-28
9.91627E-01 1.38581E-28
9.92404E-01 1.26527E-28
9.93143E-01 1.15096E-28
9.93844E-01 1.04281E-28
9.94508E-01 9.40787E-29
9.95134E-01 8.44839E-29
9.95722E-01 7.54922E-29
9.96273E-01 6.70996E-29
9.96786E-01 5.93022E-29
9.97261E-01 5.20964E-29
9.97698E-01 4.54791E-29
9.98097E-01 3.94472E-29
9.98459E-01 3.39979E-29
9.98782E-01 2.91289E-29
9.99067E-01 2.48378E-29
9.99315E-01 2.11228E-29
9.99524E-01 1.79822E-29
9.99695E-01 1.54145E-29
9.99829E-01 1.34187E-29
9.99924E-01 1.19937E-29
9.99981E-01 1.11390E-29
1.00000E+00 1.08541E-29
