 #
 # Subroutine ELSEPA. Elastic scattering of electrons and positrons
 #                    by neutral atoms and positive ions
 #
 # Projectile: positron
 # Kinetic energy = 3.00000E+07 eV = 1.10248E+06 a.u.
 #
 # WARNING: High-energy factorization with free-atom DF screening.
 #          Absorption, polarization and exchange corrections are
 #          switched off.
 #          Phase shifts are calculated for the bare nucleus.
 #          Scattering amplitudes are not evaluated.
 #
 # Element: Pr,  Z =  59,  atomic weight = 1.40908E+02 g/mol
 #
 # Nuclear model: Fermi distribution
 #                Average radius = 5.56795E-13 cm
 #                Skin thickness = 5.46000E-14 cm
 #
 # Number of electrons = 59
 #
 # Total elastic cross section = 7.27856E-18 cm**2 = 2.59922E-01 a0**2
 # 1st transport cross section = 6.32134E-24 cm**2 = 2.25739E-07 a0**2
 # 2nd transport cross section = 1.84543E-23 cm**2 = 6.59014E-07 a0**2
 #
 #
 # Differential cross section:                       MU=(1-COS(THETA))/2
 #
 #  THETA        MU          DCS          DCS        Sherman      error
 #  (deg)                 (cm**2/sr)   (a0**2/sr)    function
 #----------------------------------------------------------------------
0.00000E+00 9.93479E-11
7.61557E-13 9.92959E-11
1.18994E-12 9.92668E-11
1.71346E-12 9.92313E-11
2.33225E-12 9.91894E-11
3.04617E-12 9.91411E-11
3.85530E-12 9.90864E-11
4.75964E-12 9.90253E-11
5.75917E-12 9.89579E-11
6.85391E-12 9.88842E-11
8.04379E-12 9.88041E-11
9.32893E-12 9.87178E-11
1.07092E-11 9.86253E-11
1.21847E-11 9.85265E-11
1.37554E-11 9.84215E-11
1.54213E-11 9.83104E-11
1.71823E-11 9.81931E-11
1.90386E-11 9.80698E-11
2.09900E-11 9.79404E-11
2.30367E-11 9.78050E-11
2.51785E-11 9.76637E-11
2.74156E-11 9.75164E-11
2.97478E-11 9.73632E-11
3.21752E-11 9.72042E-11
3.46979E-11 9.70394E-11
3.73157E-11 9.68689E-11
4.00286E-11 9.66927E-11
4.28368E-11 9.65109E-11
4.57402E-11 9.63234E-11
4.87388E-11 9.61305E-11
5.18325E-11 9.59321E-11
5.50215E-11 9.57283E-11
5.83057E-11 9.55192E-11
6.16850E-11 9.53047E-11
6.51595E-11 9.50851E-11
6.87293E-11 9.48603E-11
7.23943E-11 9.46304E-11
7.61544E-11 9.43955E-11
1.18991E-10 9.17852E-11
1.71347E-10 8.87525E-11
2.33223E-10 8.53764E-11
3.04617E-10 8.17631E-11
3.85531E-10 7.79209E-11
4.75965E-10 7.40279E-11
5.75917E-10 7.00536E-11
6.85389E-10 6.61376E-11
8.04380E-10 6.22768E-11
9.32891E-10 5.85378E-11
1.07092E-09 5.49567E-11
1.21847E-09 5.15219E-11
1.37554E-09 4.83114E-11
1.54213E-09 4.52457E-11
1.71823E-09 4.24347E-11
1.90386E-09 3.97748E-11
2.09900E-09 3.73313E-11
2.30367E-09 3.50528E-11
2.51785E-09 3.29504E-11
2.74156E-09 3.10119E-11
2.97478E-09 2.92125E-11
3.21752E-09 2.75666E-11
3.46978E-09 2.60300E-11
3.73156E-09 2.46289E-11
4.00286E-09 2.33205E-11
4.28368E-09 2.21166E-11
4.57402E-09 2.09962E-11
4.87388E-09 1.99573E-11
5.18326E-09 1.89910E-11
5.50215E-09 1.80896E-11
5.83057E-09 1.72494E-11
6.16850E-09 1.64627E-11
6.51596E-09 1.57260E-11
6.87293E-09 1.50346E-11
7.23942E-09 1.43840E-11
7.61544E-09 1.37714E-11
1.18991E-08 9.17360E-12
1.71347E-08 6.32309E-12
2.33223E-08 4.46556E-12
3.04617E-08 3.19148E-12
3.85531E-08 2.38622E-12
4.75965E-08 1.79195E-12
5.75917E-08 1.38825E-12
6.85389E-08 1.08629E-12
8.04380E-08 8.65596E-13
9.32891E-08 6.97099E-13
1.07092E-07 5.66751E-13
1.21847E-07 4.65896E-13
1.37554E-07 3.84623E-13
1.54213E-07 3.21191E-13
1.71823E-07 2.68764E-13
1.90386E-07 2.27140E-13
2.09900E-07 1.92800E-13
2.30367E-07 1.64857E-13
2.51785E-07 1.41754E-13
2.74156E-07 1.22595E-13
2.97478E-07 1.06660E-13
3.21752E-07 9.32356E-14
3.46978E-07 8.19749E-14
3.73156E-07 7.23588E-14
4.00286E-07 6.41965E-14
4.28368E-07 5.71709E-14
4.57402E-07 5.11234E-14
4.87388E-07 4.58783E-14
5.18325E-07 4.13040E-14
5.50215E-07 3.73109E-14
5.83057E-07 3.37911E-14
6.16850E-07 3.07025E-14
6.51596E-07 2.79323E-14
6.87293E-07 2.54837E-14
7.23942E-07 2.32920E-14
7.61543E-07 2.13364E-14
1.18991E-06 9.69642E-15
1.71347E-06 4.96666E-15
2.33223E-06 2.79104E-15
3.04617E-06 1.68653E-15
3.85531E-06 1.07970E-15
4.75964E-06 7.23907E-16
5.75916E-06 5.03412E-16
6.85388E-06 3.60918E-16
8.04378E-06 2.65461E-16
9.32888E-06 1.99485E-16
1.07092E-05 1.52772E-16
1.21846E-05 1.18924E-16
1.37553E-05 9.39277E-17
1.54212E-05 7.51562E-17
1.71822E-05 6.08307E-17
1.90385E-05 4.97392E-17
2.09899E-05 4.10914E-17
2.30365E-05 3.42367E-17
2.51783E-05 2.87471E-17
2.74153E-05 2.43083E-17
2.97475E-05 2.06916E-17
3.21749E-05 1.77226E-17
3.46974E-05 1.52682E-17
3.73152E-05 1.32259E-17
4.00281E-05 1.15148E-17
4.28362E-05 1.00723E-17
4.57395E-05 8.84873E-18
4.87380E-05 7.80505E-18
5.18317E-05 6.91045E-18
5.50205E-05 6.14009E-18
5.83045E-05 5.47402E-18
6.16838E-05 4.89593E-18
6.51582E-05 4.39226E-18
6.87277E-05 3.95189E-18
7.23925E-05 3.56544E-18
7.61524E-05 3.22519E-18
9.21439E-05 2.20989E-18
1.09658E-04 1.56424E-18
1.28695E-04 1.13806E-18
1.49255E-04 8.47444E-19
1.71338E-04 6.43905E-19
1.94942E-04 4.97888E-19
2.20070E-04 3.90966E-19
2.46720E-04 3.11233E-19
2.74892E-04 2.50797E-19
3.04586E-04 2.04327E-19
3.35803E-04 1.68121E-19
3.68542E-04 1.39579E-19
4.02802E-04 1.16835E-19
4.38585E-04 9.85334E-20
4.75889E-04 8.36732E-20
5.14715E-04 7.15065E-20
5.55063E-04 6.14693E-20
5.96931E-04 5.31296E-20
6.40321E-04 4.61549E-20
6.85233E-04 4.02860E-20
7.31665E-04 3.53190E-20
7.79618E-04 3.10929E-20
8.29092E-04 2.74792E-20
8.80086E-04 2.43744E-20
9.32601E-04 2.16950E-20
9.86636E-04 1.93731E-20
1.04219E-03 1.73529E-20
1.09927E-03 1.55888E-20
1.15786E-03 1.40427E-20
1.21797E-03 1.26831E-20
1.27961E-03 1.14837E-20
1.34276E-03 1.04225E-20
1.40743E-03 9.48079E-21
1.47362E-03 8.64278E-21
1.54133E-03 7.89509E-21
1.61056E-03 7.22631E-21
1.68131E-03 6.62666E-21
1.75357E-03 6.08777E-21
1.82735E-03 5.60241E-21
1.90265E-03 5.16432E-21
1.97947E-03 4.76810E-21
2.05780E-03 4.40904E-21
2.13765E-03 4.08304E-21
2.21902E-03 3.78653E-21
2.30190E-03 3.51636E-21
2.38630E-03 3.26979E-21
2.47222E-03 3.04438E-21
2.55965E-03 2.83800E-21
2.64859E-03 2.64875E-21
2.73905E-03 2.47496E-21
2.83103E-03 2.31514E-21
2.92452E-03 2.16797E-21
3.01952E-03 2.03227E-21
3.11604E-03 1.90697E-21
3.21407E-03 1.79115E-21
3.31362E-03 1.68396E-21
3.41468E-03 1.58463E-21
3.51725E-03 1.49249E-21
3.62133E-03 1.40693E-21
3.72692E-03 1.32738E-21
3.83403E-03 1.25335E-21
3.94265E-03 1.18439E-21
4.05278E-03 1.12009E-21
4.16442E-03 1.06007E-21
4.27757E-03 1.00401E-21
4.39223E-03 9.51578E-22
4.50840E-03 9.02512E-22
4.62608E-03 8.56555E-22
4.74527E-03 8.13472E-22
4.86597E-03 7.73052E-22
4.98817E-03 7.35098E-22
5.11188E-03 6.99433E-22
5.23711E-03 6.65895E-22
5.36383E-03 6.34333E-22
5.49207E-03 6.04610E-22
5.62181E-03 5.76599E-22
5.75306E-03 5.50182E-22
5.88581E-03 5.25252E-22
6.02007E-03 5.01711E-22
6.15583E-03 4.79468E-22
6.29310E-03 4.58437E-22
6.43187E-03 4.38540E-22
6.57214E-03 4.19705E-22
6.71392E-03 4.01864E-22
6.85720E-03 3.84956E-22
7.00198E-03 3.68923E-22
7.14827E-03 3.53711E-22
7.29605E-03 3.39270E-22
7.44534E-03 3.25554E-22
7.59612E-03 3.12520E-22
7.97965E-03 2.82663E-22
8.37255E-03 2.56266E-22
8.77480E-03 2.32862E-22
9.18641E-03 2.12054E-22
9.60736E-03 1.93503E-22
1.00376E-02 1.76926E-22
1.04773E-02 1.62073E-22
1.09262E-02 1.48737E-22
1.13844E-02 1.36735E-22
1.18520E-02 1.25911E-22
1.23288E-02 1.16130E-22
1.28150E-02 1.07273E-22
1.33104E-02 9.92381E-23
1.38150E-02 9.19357E-23
1.43290E-02 8.52876E-23
1.48521E-02 7.92247E-23
1.53845E-02 7.36867E-23
1.59262E-02 6.86202E-23
1.64770E-02 6.39780E-23
1.70371E-02 5.97183E-23
1.76063E-02 5.58041E-23
1.81848E-02 5.22025E-23
1.87724E-02 4.88841E-23
1.93692E-02 4.58228E-23
1.99751E-02 4.29951E-23
2.05901E-02 4.03800E-23
2.12143E-02 3.79588E-23
2.18476E-02 3.57145E-23
2.24900E-02 3.36319E-23
2.31415E-02 3.16974E-23
2.38021E-02 2.98985E-23
2.44717E-02 2.82241E-23
2.51504E-02 2.66637E-23
2.58382E-02 2.52085E-23
2.65349E-02 2.38501E-23
2.72407E-02 2.25809E-23
2.79555E-02 2.13940E-23
2.86793E-02 2.02831E-23
2.94120E-02 1.92425E-23
3.01537E-02 1.82670E-23
3.09043E-02 1.73517E-23
3.16639E-02 1.64923E-23
3.24324E-02 1.56848E-23
3.32098E-02 1.49254E-23
3.39961E-02 1.42108E-23
3.47912E-02 1.35379E-23
3.55952E-02 1.29039E-23
3.64081E-02 1.23059E-23
3.72297E-02 1.17418E-23
3.80602E-02 1.12091E-23
3.88995E-02 1.07059E-23
3.97476E-02 1.02301E-23
4.06044E-02 9.78013E-24
4.14700E-02 9.35423E-24
4.23443E-02 8.95090E-24
4.32273E-02 8.56875E-24
4.41190E-02 8.20645E-24
4.50194E-02 7.86279E-24
4.59284E-02 7.53664E-24
4.68461E-02 7.22696E-24
4.87074E-02 6.65311E-24
5.06030E-02 6.13419E-24
5.25328E-02 5.66407E-24
5.44967E-02 5.23737E-24
5.64946E-02 4.84941E-24
5.85262E-02 4.49609E-24
6.05914E-02 4.17378E-24
6.26901E-02 3.87931E-24
6.48222E-02 3.60986E-24
6.69873E-02 3.36295E-24
6.91854E-02 3.13638E-24
7.14163E-02 2.92819E-24
7.36799E-02 2.73662E-24
7.59760E-02 2.56014E-24
7.83043E-02 2.39735E-24
8.06647E-02 2.24701E-24
8.30571E-02 2.10801E-24
8.54812E-02 1.97935E-24
8.79369E-02 1.86012E-24
9.04240E-02 1.74952E-24
9.29422E-02 1.64682E-24
9.54915E-02 1.55136E-24
9.80716E-02 1.46254E-24
1.00682E-01 1.37982E-24
1.03323E-01 1.30272E-24
1.05995E-01 1.23078E-24
1.08696E-01 1.16361E-24
1.11427E-01 1.10082E-24
1.14188E-01 1.04210E-24
1.16978E-01 9.87128E-25
1.19797E-01 9.35626E-25
1.22645E-01 8.87339E-25
1.25522E-01 8.42033E-25
1.28428E-01 7.99493E-25
1.31361E-01 7.59521E-25
1.34323E-01 7.21937E-25
1.37313E-01 6.86573E-25
1.40330E-01 6.53277E-25
1.43375E-01 6.21907E-25
1.46447E-01 5.92334E-25
1.49545E-01 5.64436E-25
1.52671E-01 5.38105E-25
1.55823E-01 5.13236E-25
1.59001E-01 4.89734E-25
1.62205E-01 4.67514E-25
1.65435E-01 4.46492E-25
1.68690E-01 4.26593E-25
1.71970E-01 4.07748E-25
1.75276E-01 3.89891E-25
1.78606E-01 3.72963E-25
1.81961E-01 3.56906E-25
1.85340E-01 3.41668E-25
1.88743E-01 3.27201E-25
1.92169E-01 3.13459E-25
1.95619E-01 3.00401E-25
1.99092E-01 2.87986E-25
2.02589E-01 2.76177E-25
2.06107E-01 2.64940E-25
2.09649E-01 2.54243E-25
2.13212E-01 2.44056E-25
2.16797E-01 2.34350E-25
2.20404E-01 2.25099E-25
2.24032E-01 2.16278E-25
2.27680E-01 2.07864E-25
2.31350E-01 1.99835E-25
2.35040E-01 1.92170E-25
2.38751E-01 1.84851E-25
2.42481E-01 1.77859E-25
2.46231E-01 1.71177E-25
2.50000E-01 1.64790E-25
2.53788E-01 1.58682E-25
2.57595E-01 1.52839E-25
2.61421E-01 1.47247E-25
2.65264E-01 1.41895E-25
2.69126E-01 1.36770E-25
2.73005E-01 1.31861E-25
2.76901E-01 1.27158E-25
2.80814E-01 1.22650E-25
2.84744E-01 1.18328E-25
2.88691E-01 1.14184E-25
2.92653E-01 1.10208E-25
2.96632E-01 1.06393E-25
3.00625E-01 1.02732E-25
3.04634E-01 9.92162E-26
3.08658E-01 9.58403E-26
3.12697E-01 9.25974E-26
3.16749E-01 8.94816E-26
3.20816E-01 8.64869E-26
3.24896E-01 8.36080E-26
3.28990E-01 8.08398E-26
3.33097E-01 7.81772E-26
3.37216E-01 7.56157E-26
3.41348E-01 7.31508E-26
3.45492E-01 7.07783E-26
3.49647E-01 6.84942E-26
3.53814E-01 6.62947E-26
3.57992E-01 6.41762E-26
3.62181E-01 6.21353E-26
3.66381E-01 6.01687E-26
3.70590E-01 5.82733E-26
3.74810E-01 5.64460E-26
3.79039E-01 5.46841E-26
3.83277E-01 5.29850E-26
3.87524E-01 5.13459E-26
3.91780E-01 4.97645E-26
3.96044E-01 4.82385E-26
4.00316E-01 4.67656E-26
4.04596E-01 4.53437E-26
4.08882E-01 4.39707E-26
4.13176E-01 4.26448E-26
4.17476E-01 4.13641E-26
4.21783E-01 4.01267E-26
4.26095E-01 3.89311E-26
4.30413E-01 3.77756E-26
4.34737E-01 3.66587E-26
4.39065E-01 3.55789E-26
4.43398E-01 3.45347E-26
4.47736E-01 3.35249E-26
4.52077E-01 3.25481E-26
4.56422E-01 3.16031E-26
4.60770E-01 3.06888E-26
4.65122E-01 2.98039E-26
4.69476E-01 2.89474E-26
4.73832E-01 2.81183E-26
4.78190E-01 2.73155E-26
4.82550E-01 2.65382E-26
4.86912E-01 2.57853E-26
4.91274E-01 2.50560E-26
4.95637E-01 2.43495E-26
5.00000E-01 2.36650E-26
5.04363E-01 2.30016E-26
5.08726E-01 2.23586E-26
5.13088E-01 2.17354E-26
5.17450E-01 2.11312E-26
5.21810E-01 2.05453E-26
5.26168E-01 1.99772E-26
5.30524E-01 1.94261E-26
5.34878E-01 1.88917E-26
5.39230E-01 1.83732E-26
5.43578E-01 1.78701E-26
5.47923E-01 1.73819E-26
5.52264E-01 1.69081E-26
5.56602E-01 1.64483E-26
5.60935E-01 1.60019E-26
5.65263E-01 1.55685E-26
5.69587E-01 1.51477E-26
5.73905E-01 1.47391E-26
5.78217E-01 1.43423E-26
5.82524E-01 1.39568E-26
5.86824E-01 1.35824E-26
5.91118E-01 1.32186E-26
5.95404E-01 1.28651E-26
5.99684E-01 1.25217E-26
6.03956E-01 1.21879E-26
6.08220E-01 1.18635E-26
6.12476E-01 1.15481E-26
6.16723E-01 1.12415E-26
6.20961E-01 1.09435E-26
6.25190E-01 1.06537E-26
6.29410E-01 1.03718E-26
6.33619E-01 1.00978E-26
6.37819E-01 9.83117E-27
6.42008E-01 9.57186E-27
6.46186E-01 9.31959E-27
6.50353E-01 9.07416E-27
6.54508E-01 8.83536E-27
6.58652E-01 8.60298E-27
6.62784E-01 8.37684E-27
6.66903E-01 8.15675E-27
6.71010E-01 7.94252E-27
6.75104E-01 7.73399E-27
6.79184E-01 7.53098E-27
6.83251E-01 7.33333E-27
6.87303E-01 7.14088E-27
6.91342E-01 6.95349E-27
6.95366E-01 6.77099E-27
6.99375E-01 6.59326E-27
7.03368E-01 6.42016E-27
7.07347E-01 6.25154E-27
7.11309E-01 6.08729E-27
7.15256E-01 5.92728E-27
7.19186E-01 5.77138E-27
7.23099E-01 5.61948E-27
7.26995E-01 5.47146E-27
7.30874E-01 5.32723E-27
7.34736E-01 5.18666E-27
7.38579E-01 5.04967E-27
7.42405E-01 4.91614E-27
7.46212E-01 4.78598E-27
7.50000E-01 4.65911E-27
7.53769E-01 4.53543E-27
7.57519E-01 4.41484E-27
7.61249E-01 4.29728E-27
7.64960E-01 4.18265E-27
7.68650E-01 4.07087E-27
7.72320E-01 3.96188E-27
7.75968E-01 3.85559E-27
7.79596E-01 3.75193E-27
7.83203E-01 3.65083E-27
7.86788E-01 3.55222E-27
7.90351E-01 3.45604E-27
7.93893E-01 3.36223E-27
7.97411E-01 3.27071E-27
8.00908E-01 3.18143E-27
8.04381E-01 3.09434E-27
8.07831E-01 3.00937E-27
8.11257E-01 2.92647E-27
8.14660E-01 2.84559E-27
8.18039E-01 2.76668E-27
8.21394E-01 2.68967E-27
8.24724E-01 2.61454E-27
8.28030E-01 2.54122E-27
8.31310E-01 2.46968E-27
8.34565E-01 2.39986E-27
8.37795E-01 2.33173E-27
8.40999E-01 2.26524E-27
8.44177E-01 2.20035E-27
8.47329E-01 2.13702E-27
8.50455E-01 2.07522E-27
8.53553E-01 2.01491E-27
8.56625E-01 1.95604E-27
8.59670E-01 1.89859E-27
8.62687E-01 1.84252E-27
8.65677E-01 1.78780E-27
8.68639E-01 1.73439E-27
8.71572E-01 1.68226E-27
8.74478E-01 1.63139E-27
8.77355E-01 1.58174E-27
8.80203E-01 1.53329E-27
8.83022E-01 1.48600E-27
8.85812E-01 1.43985E-27
8.88573E-01 1.39482E-27
8.91304E-01 1.35087E-27
8.94005E-01 1.30798E-27
8.96677E-01 1.26614E-27
8.99318E-01 1.22530E-27
9.01928E-01 1.18546E-27
9.04508E-01 1.14659E-27
9.07058E-01 1.10867E-27
9.09576E-01 1.07168E-27
9.12063E-01 1.03559E-27
9.14519E-01 1.00039E-27
9.16943E-01 9.66052E-28
9.19335E-01 9.32568E-28
9.21696E-01 8.99914E-28
9.24024E-01 8.68073E-28
9.26320E-01 8.37029E-28
9.28584E-01 8.06763E-28
9.30815E-01 7.77262E-28
9.33013E-01 7.48508E-28
9.35178E-01 7.20486E-28
9.37310E-01 6.93182E-28
9.39409E-01 6.66580E-28
9.41474E-01 6.40669E-28
9.43505E-01 6.15432E-28
9.45503E-01 5.90858E-28
9.47467E-01 5.66934E-28
9.49397E-01 5.43647E-28
9.51293E-01 5.20985E-28
9.53154E-01 4.98937E-28
9.54981E-01 4.77491E-28
9.56773E-01 4.56637E-28
9.58530E-01 4.36363E-28
9.60252E-01 4.16659E-28
9.61940E-01 3.97516E-28
9.63592E-01 3.78923E-28
9.65209E-01 3.60871E-28
9.66790E-01 3.43352E-28
9.68336E-01 3.26355E-28
9.69846E-01 3.09874E-28
9.71321E-01 2.93899E-28
9.72759E-01 2.78423E-28
9.74162E-01 2.63437E-28
9.75528E-01 2.48935E-28
9.76858E-01 2.34910E-28
9.78152E-01 2.21353E-28
9.79410E-01 2.08260E-28
9.80631E-01 1.95622E-28
9.81815E-01 1.83435E-28
9.82963E-01 1.71691E-28
9.84074E-01 1.60386E-28
9.85148E-01 1.49514E-28
9.86185E-01 1.39069E-28
9.87185E-01 1.29047E-28
9.88148E-01 1.19442E-28
9.89074E-01 1.10249E-28
9.89962E-01 1.01466E-28
9.90814E-01 9.30862E-29
9.91627E-01 8.51067E-29
9.92404E-01 7.75236E-29
9.93143E-01 7.03330E-29
9.93844E-01 6.35316E-29
9.94508E-01 5.71161E-29
9.95134E-01 5.10834E-29
9.95722E-01 4.54306E-29
9.96273E-01 4.01550E-29
9.96786E-01 3.52541E-29
9.97261E-01 3.07256E-29
9.97698E-01 2.65672E-29
9.98097E-01 2.27770E-29
9.98459E-01 1.93533E-29
9.98782E-01 1.62943E-29
9.99067E-01 1.35985E-29
9.99315E-01 1.12648E-29
9.99524E-01 9.29205E-30
9.99695E-01 7.67922E-30
9.99829E-01 6.42559E-30
9.99924E-01 5.53057E-30
9.99981E-01 4.99373E-30
1.00000E+00 4.81480E-30
