 #
 # Subroutine ELSEPA. Elastic scattering of electrons and positrons
 #                    by neutral atoms and positive ions
 #
 # Projectile: positron
 # Kinetic energy = 4.50000E+06 eV = 1.65372E+05 a.u.
 #
 # WARNING: High-energy factorization with free-atom DF screening.
 #          Absorption, polarization and exchange corrections are
 #          switched off.
 #          Phase shifts are calculated for the bare nucleus.
 #          Scattering amplitudes are not evaluated.
 #
 # Element: Pr,  Z =  59,  atomic weight = 1.40908E+02 g/mol
 #
 # Nuclear model: Fermi distribution
 #                Average radius = 5.56795E-13 cm
 #                Skin thickness = 5.46000E-14 cm
 #
 # Number of electrons = 59
 #
 # Total elastic cross section = 7.34398E-18 cm**2 = 2.62258E-01 a0**2
 # 1st transport cross section = 1.74882E-22 cm**2 = 6.24515E-06 a0**2
 # 2nd transport cross section = 5.02989E-22 cm**2 = 1.79621E-05 a0**2
 #
 #
 # Differential cross section:                       MU=(1-COS(THETA))/2
 #
 #  THETA        MU          DCS          DCS        Sherman      error
 #  (deg)                 (cm**2/sr)   (a0**2/sr)    function
 #----------------------------------------------------------------------
0.00000E+00 2.67975E-12
7.61557E-13 2.67971E-12
1.18994E-12 2.67969E-12
1.71346E-12 2.67966E-12
2.33225E-12 2.67963E-12
3.04617E-12 2.67960E-12
3.85530E-12 2.67956E-12
4.75964E-12 2.67951E-12
5.75917E-12 2.67946E-12
6.85391E-12 2.67941E-12
8.04379E-12 2.67935E-12
9.32893E-12 2.67928E-12
1.07092E-11 2.67922E-12
1.21847E-11 2.67914E-12
1.37554E-11 2.67907E-12
1.54213E-11 2.67898E-12
1.71823E-11 2.67890E-12
1.90386E-11 2.67881E-12
2.09900E-11 2.67871E-12
2.30367E-11 2.67861E-12
2.51785E-11 2.67850E-12
2.74156E-11 2.67839E-12
2.97478E-11 2.67828E-12
3.21752E-11 2.67816E-12
3.46979E-11 2.67804E-12
3.73157E-11 2.67791E-12
4.00286E-11 2.67778E-12
4.28368E-11 2.67764E-12
4.57402E-11 2.67750E-12
4.87388E-11 2.67735E-12
5.18325E-11 2.67720E-12
5.50215E-11 2.67704E-12
5.83057E-11 2.67688E-12
6.16850E-11 2.67671E-12
6.51595E-11 2.67654E-12
6.87293E-11 2.67637E-12
7.23943E-11 2.67619E-12
7.61544E-11 2.67601E-12
1.18991E-10 2.67391E-12
1.71347E-10 2.67136E-12
2.33223E-10 2.66835E-12
3.04617E-10 2.66489E-12
3.85531E-10 2.66098E-12
4.75965E-10 2.65661E-12
5.75917E-10 2.65180E-12
6.85389E-10 2.64655E-12
8.04380E-10 2.64087E-12
9.32891E-10 2.63475E-12
1.07092E-09 2.62820E-12
1.21847E-09 2.62123E-12
1.37554E-09 2.61385E-12
1.54213E-09 2.60606E-12
1.71823E-09 2.59786E-12
1.90386E-09 2.58927E-12
2.09900E-09 2.58028E-12
2.30367E-09 2.57091E-12
2.51785E-09 2.56117E-12
2.74156E-09 2.55105E-12
2.97478E-09 2.54058E-12
3.21752E-09 2.52975E-12
3.46978E-09 2.51858E-12
3.73156E-09 2.50707E-12
4.00286E-09 2.49524E-12
4.28368E-09 2.48308E-12
4.57402E-09 2.47062E-12
4.87388E-09 2.45785E-12
5.18326E-09 2.44479E-12
5.50215E-09 2.43145E-12
5.83057E-09 2.41784E-12
6.16850E-09 2.40397E-12
6.51596E-09 2.38984E-12
6.87293E-09 2.37546E-12
7.23942E-09 2.36085E-12
7.61544E-09 2.34601E-12
1.18991E-08 2.18804E-12
1.71347E-08 2.01746E-12
2.33223E-08 1.84322E-12
3.04617E-08 1.67230E-12
3.85531E-08 1.50985E-12
4.75965E-08 1.35923E-12
5.75917E-08 1.22227E-12
6.85389E-08 1.09995E-12
8.04380E-08 9.91302E-13
9.32891E-08 8.95440E-13
1.07092E-07 8.11185E-13
1.21847E-07 7.37244E-13
1.37554E-07 6.72328E-13
1.54213E-07 6.15225E-13
1.71823E-07 5.64839E-13
1.90386E-07 5.20204E-13
2.09900E-07 4.80485E-13
2.30367E-07 4.44971E-13
2.51785E-07 4.13044E-13
2.74156E-07 3.84195E-13
2.97478E-07 3.58014E-13
3.21752E-07 3.34158E-13
3.46978E-07 3.12341E-13
3.73156E-07 2.92322E-13
4.00286E-07 2.73899E-13
4.28368E-07 2.56899E-13
4.57402E-07 2.41178E-13
4.87388E-07 2.26611E-13
5.18325E-07 2.13084E-13
5.50215E-07 2.00487E-13
5.83057E-07 1.88767E-13
6.16850E-07 1.77852E-13
6.51596E-07 1.67677E-13
6.87293E-07 1.58186E-13
7.23942E-07 1.49326E-13
7.61543E-07 1.41050E-13
1.18991E-06 8.15975E-14
1.71347E-06 5.09217E-14
2.33223E-06 3.34752E-14
3.04617E-06 2.29419E-14
3.85531E-06 1.62262E-14
4.75964E-06 1.17574E-14
5.75916E-06 8.68966E-15
6.85388E-06 6.53078E-15
8.04378E-06 4.99583E-15
9.32888E-06 3.88596E-15
1.07092E-05 3.07052E-15
1.21846E-05 2.46190E-15
1.37553E-05 2.00054E-15
1.54212E-05 1.64546E-15
1.71822E-05 1.36813E-15
1.90385E-05 1.14806E-15
2.09899E-05 9.72407E-16
2.30365E-05 8.29879E-16
2.51783E-05 7.12037E-16
2.74153E-05 6.14443E-16
2.97475E-05 5.33035E-16
3.21749E-05 4.64674E-16
3.46974E-05 4.06902E-16
3.73152E-05 3.57780E-16
4.00281E-05 3.15765E-16
4.28362E-05 2.79637E-16
4.57395E-05 2.48422E-16
4.87380E-05 2.21346E-16
5.18317E-05 1.97776E-16
5.50205E-05 1.77195E-16
5.83045E-05 1.59193E-16
6.16838E-05 1.43404E-16
6.51582E-05 1.29519E-16
6.87277E-05 1.17269E-16
7.23925E-05 1.06430E-16
7.61524E-05 9.68102E-17
9.21439E-05 6.76425E-17
1.09658E-04 4.86784E-17
1.28695E-04 3.59460E-17
1.49255E-04 2.71275E-17
1.71338E-04 2.08647E-17
1.94942E-04 1.63123E-17
2.20070E-04 1.29377E-17
2.46720E-04 1.03924E-17
2.74892E-04 8.44250E-18
3.04586E-04 6.92841E-18
3.35803E-04 5.73813E-18
3.68542E-04 4.79189E-18
4.02802E-04 4.03196E-18
4.38585E-04 3.41631E-18
4.75889E-04 2.91340E-18
5.14715E-04 2.49936E-18
5.55063E-04 2.15604E-18
5.96931E-04 1.86948E-18
6.40321E-04 1.62880E-18
6.85233E-04 1.42550E-18
7.31665E-04 1.25284E-18
7.79618E-04 1.10546E-18
8.29092E-04 9.79055E-19
8.80086E-04 8.70143E-19
9.32601E-04 7.75922E-19
9.86636E-04 6.94083E-19
1.04219E-03 6.22728E-19
1.09927E-03 5.60289E-19
1.15786E-03 5.05465E-19
1.21797E-03 4.57171E-19
1.27961E-03 4.14496E-19
1.34276E-03 3.76676E-19
1.40743E-03 3.43064E-19
1.47362E-03 3.13109E-19
1.54133E-03 2.86346E-19
1.61056E-03 2.62376E-19
1.68131E-03 2.40857E-19
1.75357E-03 2.21495E-19
1.82735E-03 2.04036E-19
1.90265E-03 1.88260E-19
1.97947E-03 1.73976E-19
2.05780E-03 1.61019E-19
2.13765E-03 1.49242E-19
2.21902E-03 1.38521E-19
2.30190E-03 1.28742E-19
2.38630E-03 1.19808E-19
2.47222E-03 1.11635E-19
2.55965E-03 1.04144E-19
2.64859E-03 9.72697E-20
2.73905E-03 9.09515E-20
2.83103E-03 8.51365E-20
2.92452E-03 7.97775E-20
3.01952E-03 7.48322E-20
3.11604E-03 7.02629E-20
3.21407E-03 6.60360E-20
3.31362E-03 6.21210E-20
3.41468E-03 5.84907E-20
3.51725E-03 5.51207E-20
3.62133E-03 5.19892E-20
3.72692E-03 4.90760E-20
3.83403E-03 4.63632E-20
3.94265E-03 4.38346E-20
4.05278E-03 4.14752E-20
4.16442E-03 3.92719E-20
4.27757E-03 3.72123E-20
4.39223E-03 3.52854E-20
4.50840E-03 3.34809E-20
4.62608E-03 3.17899E-20
4.74527E-03 3.02037E-20
4.86597E-03 2.87148E-20
4.98817E-03 2.73161E-20
5.11188E-03 2.60011E-20
5.23711E-03 2.47639E-20
5.36383E-03 2.35990E-20
5.49207E-03 2.25015E-20
5.62181E-03 2.14667E-20
5.75306E-03 2.04905E-20
5.88581E-03 1.95687E-20
6.02007E-03 1.86980E-20
6.15583E-03 1.78748E-20
6.29310E-03 1.70963E-20
6.43187E-03 1.63594E-20
6.57214E-03 1.56616E-20
6.71392E-03 1.50003E-20
6.85720E-03 1.43734E-20
7.00198E-03 1.37788E-20
7.14827E-03 1.32143E-20
7.29605E-03 1.26784E-20
7.44534E-03 1.21691E-20
7.59612E-03 1.16850E-20
7.97965E-03 1.05754E-20
8.37255E-03 9.59368E-21
8.77480E-03 8.72260E-21
9.18641E-03 7.94759E-21
9.60736E-03 7.25622E-21
1.00376E-02 6.63795E-21
1.04773E-02 6.08373E-21
1.09262E-02 5.58578E-21
1.13844E-02 5.13741E-21
1.18520E-02 4.73283E-21
1.23288E-02 4.36703E-21
1.28150E-02 4.03566E-21
1.33104E-02 3.73489E-21
1.38150E-02 3.46143E-21
1.43290E-02 3.21236E-21
1.48521E-02 2.98512E-21
1.53845E-02 2.77747E-21
1.59262E-02 2.58743E-21
1.64770E-02 2.41324E-21
1.70371E-02 2.25334E-21
1.76063E-02 2.10637E-21
1.81848E-02 1.97109E-21
1.87724E-02 1.84640E-21
1.93692E-02 1.73134E-21
1.99751E-02 1.62503E-21
2.05901E-02 1.52668E-21
2.12143E-02 1.43559E-21
2.18476E-02 1.35114E-21
2.24900E-02 1.27275E-21
2.31415E-02 1.19991E-21
2.38021E-02 1.13216E-21
2.44717E-02 1.06909E-21
2.51504E-02 1.01030E-21
2.58382E-02 9.55459E-22
2.65349E-02 9.04254E-22
2.72407E-02 8.56401E-22
2.79555E-02 8.11640E-22
2.86793E-02 7.69736E-22
2.94120E-02 7.30475E-22
3.01537E-02 6.93660E-22
3.09043E-02 6.59111E-22
3.16639E-02 6.26664E-22
3.24324E-02 5.96168E-22
3.32098E-02 5.67486E-22
3.39961E-02 5.40489E-22
3.47912E-02 5.15061E-22
3.55952E-02 4.91095E-22
3.64081E-02 4.68491E-22
3.72297E-02 4.47158E-22
3.80602E-02 4.27012E-22
3.88995E-02 4.07975E-22
3.97476E-02 3.89974E-22
4.06044E-02 3.72945E-22
4.14700E-02 3.56823E-22
4.23443E-02 3.41553E-22
4.32273E-02 3.27082E-22
4.41190E-02 3.13359E-22
4.50194E-02 3.00340E-22
4.59284E-02 2.87981E-22
4.68461E-02 2.76244E-22
4.87074E-02 2.54488E-22
5.06030E-02 2.34807E-22
5.25328E-02 2.16969E-22
5.44967E-02 2.00772E-22
5.64946E-02 1.86039E-22
5.85262E-02 1.72615E-22
6.05914E-02 1.60364E-22
6.26901E-02 1.49166E-22
6.48222E-02 1.38916E-22
6.69873E-02 1.29519E-22
6.91854E-02 1.20891E-22
7.14163E-02 1.12960E-22
7.36799E-02 1.05659E-22
7.59760E-02 9.89297E-23
7.83043E-02 9.27193E-23
8.06647E-02 8.69811E-23
8.30571E-02 8.16730E-23
8.54812E-02 7.67572E-23
8.79369E-02 7.21997E-23
9.04240E-02 6.79698E-23
9.29422E-02 6.40399E-23
9.54915E-02 6.03851E-23
9.80716E-02 5.69827E-23
1.00682E-01 5.38123E-23
1.03323E-01 5.08555E-23
1.05995E-01 4.80952E-23
1.08696E-01 4.55162E-23
1.11427E-01 4.31045E-23
1.14188E-01 4.08472E-23
1.16978E-01 3.87329E-23
1.19797E-01 3.67510E-23
1.22645E-01 3.48915E-23
1.25522E-01 3.31459E-23
1.28428E-01 3.15057E-23
1.31361E-01 2.99636E-23
1.34323E-01 2.85127E-23
1.37313E-01 2.71466E-23
1.40330E-01 2.58594E-23
1.43375E-01 2.46460E-23
1.46447E-01 2.35012E-23
1.49545E-01 2.24206E-23
1.52671E-01 2.14000E-23
1.55823E-01 2.04353E-23
1.59001E-01 1.95231E-23
1.62205E-01 1.86599E-23
1.65435E-01 1.78426E-23
1.68690E-01 1.70685E-23
1.71970E-01 1.63348E-23
1.75276E-01 1.56391E-23
1.78606E-01 1.49790E-23
1.81961E-01 1.43524E-23
1.85340E-01 1.37573E-23
1.88743E-01 1.31919E-23
1.92169E-01 1.26544E-23
1.95619E-01 1.21431E-23
1.99092E-01 1.16567E-23
2.02589E-01 1.11937E-23
2.06107E-01 1.07527E-23
2.09649E-01 1.03325E-23
2.13212E-01 9.93201E-24
2.16797E-01 9.55010E-24
2.20404E-01 9.18577E-24
2.24032E-01 8.83807E-24
2.27680E-01 8.50611E-24
2.31350E-01 8.18906E-24
2.35040E-01 7.88614E-24
2.38751E-01 7.59659E-24
2.42481E-01 7.31973E-24
2.46231E-01 7.05490E-24
2.50000E-01 6.80150E-24
2.53788E-01 6.55894E-24
2.57595E-01 6.32668E-24
2.61421E-01 6.10422E-24
2.65264E-01 5.89106E-24
2.69126E-01 5.68675E-24
2.73005E-01 5.49086E-24
2.76901E-01 5.30297E-24
2.80814E-01 5.12272E-24
2.84744E-01 4.94972E-24
2.88691E-01 4.78365E-24
2.92653E-01 4.62419E-24
2.96632E-01 4.47101E-24
3.00625E-01 4.32383E-24
3.04634E-01 4.18238E-24
3.08658E-01 4.04639E-24
3.12697E-01 3.91561E-24
3.16749E-01 3.78982E-24
3.20816E-01 3.66879E-24
3.24896E-01 3.55231E-24
3.28990E-01 3.44018E-24
3.33097E-01 3.33221E-24
3.37216E-01 3.22822E-24
3.41348E-01 3.12804E-24
3.45492E-01 3.03149E-24
3.49647E-01 2.93844E-24
3.53814E-01 2.84873E-24
3.57992E-01 2.76222E-24
3.62181E-01 2.67878E-24
3.66381E-01 2.59829E-24
3.70590E-01 2.52061E-24
3.74810E-01 2.44564E-24
3.79039E-01 2.37325E-24
3.83277E-01 2.30336E-24
3.87524E-01 2.23586E-24
3.91780E-01 2.17065E-24
3.96044E-01 2.10765E-24
4.00316E-01 2.04676E-24
4.04596E-01 1.98791E-24
4.08882E-01 1.93101E-24
4.13176E-01 1.87598E-24
4.17476E-01 1.82276E-24
4.21783E-01 1.77128E-24
4.26095E-01 1.72148E-24
4.30413E-01 1.67328E-24
4.34737E-01 1.62663E-24
4.39065E-01 1.58146E-24
4.43398E-01 1.53773E-24
4.47736E-01 1.49538E-24
4.52077E-01 1.45436E-24
4.56422E-01 1.41462E-24
4.60770E-01 1.37612E-24
4.65122E-01 1.33881E-24
4.69476E-01 1.30264E-24
4.73832E-01 1.26758E-24
4.78190E-01 1.23359E-24
4.82550E-01 1.20063E-24
4.86912E-01 1.16866E-24
4.91274E-01 1.13764E-24
4.95637E-01 1.10756E-24
5.00000E-01 1.07836E-24
5.04363E-01 1.05003E-24
5.08726E-01 1.02253E-24
5.13088E-01 9.95839E-25
5.17450E-01 9.69921E-25
5.21810E-01 9.44754E-25
5.26168E-01 9.20312E-25
5.30524E-01 8.96572E-25
5.34878E-01 8.73510E-25
5.39230E-01 8.51104E-25
5.43578E-01 8.29332E-25
5.47923E-01 8.08172E-25
5.52264E-01 7.87606E-25
5.56602E-01 7.67614E-25
5.60935E-01 7.48177E-25
5.65263E-01 7.29279E-25
5.69587E-01 7.10901E-25
5.73905E-01 6.93027E-25
5.78217E-01 6.75641E-25
5.82524E-01 6.58727E-25
5.86824E-01 6.42272E-25
5.91118E-01 6.26260E-25
5.95404E-01 6.10678E-25
5.99684E-01 5.95512E-25
6.03956E-01 5.80750E-25
6.08220E-01 5.66380E-25
6.12476E-01 5.52389E-25
6.16723E-01 5.38767E-25
6.20961E-01 5.25501E-25
6.25190E-01 5.12581E-25
6.29410E-01 4.99997E-25
6.33619E-01 4.87739E-25
6.37819E-01 4.75797E-25
6.42008E-01 4.64162E-25
6.46186E-01 4.52824E-25
6.50353E-01 4.41776E-25
6.54508E-01 4.31009E-25
6.58652E-01 4.20514E-25
6.62784E-01 4.10284E-25
6.66903E-01 4.00311E-25
6.71010E-01 3.90587E-25
6.75104E-01 3.81107E-25
6.79184E-01 3.71862E-25
6.83251E-01 3.62846E-25
6.87303E-01 3.54054E-25
6.91342E-01 3.45477E-25
6.95366E-01 3.37111E-25
6.99375E-01 3.28950E-25
7.03368E-01 3.20988E-25
7.07347E-01 3.13219E-25
7.11309E-01 3.05638E-25
7.15256E-01 2.98241E-25
7.19186E-01 2.91021E-25
7.23099E-01 2.83975E-25
7.26995E-01 2.77098E-25
7.30874E-01 2.70385E-25
7.34736E-01 2.63831E-25
7.38579E-01 2.57433E-25
7.42405E-01 2.51187E-25
7.46212E-01 2.45088E-25
7.50000E-01 2.39133E-25
7.53769E-01 2.33317E-25
7.57519E-01 2.27638E-25
7.61249E-01 2.22091E-25
7.64960E-01 2.16674E-25
7.68650E-01 2.11383E-25
7.72320E-01 2.06214E-25
7.75968E-01 2.01165E-25
7.79596E-01 1.96233E-25
7.83203E-01 1.91414E-25
7.86788E-01 1.86706E-25
7.90351E-01 1.82107E-25
7.93893E-01 1.77612E-25
7.97411E-01 1.73221E-25
8.00908E-01 1.68930E-25
8.04381E-01 1.64736E-25
8.07831E-01 1.60638E-25
8.11257E-01 1.56634E-25
8.14660E-01 1.52720E-25
8.18039E-01 1.48894E-25
8.21394E-01 1.45156E-25
8.24724E-01 1.41501E-25
8.28030E-01 1.37930E-25
8.31310E-01 1.34438E-25
8.34565E-01 1.31026E-25
8.37795E-01 1.27690E-25
8.40999E-01 1.24430E-25
8.44177E-01 1.21242E-25
8.47329E-01 1.18127E-25
8.50455E-01 1.15081E-25
8.53553E-01 1.12104E-25
8.56625E-01 1.09193E-25
8.59670E-01 1.06348E-25
8.62687E-01 1.03567E-25
8.65677E-01 1.00848E-25
8.68639E-01 9.81908E-26
8.71572E-01 9.55929E-26
8.74478E-01 9.30535E-26
8.77355E-01 9.05712E-26
8.80203E-01 8.81448E-26
8.83022E-01 8.57732E-26
8.85812E-01 8.34551E-26
8.88573E-01 8.11895E-26
8.91304E-01 7.89751E-26
8.94005E-01 7.68110E-26
8.96677E-01 7.46961E-26
8.99318E-01 7.26294E-26
9.01928E-01 7.06099E-26
9.04508E-01 6.86367E-26
9.07058E-01 6.67087E-26
9.09576E-01 6.48251E-26
9.12063E-01 6.29850E-26
9.14519E-01 6.11876E-26
9.16943E-01 5.94319E-26
9.19335E-01 5.77173E-26
9.21696E-01 5.60429E-26
9.24024E-01 5.44078E-26
9.26320E-01 5.28115E-26
9.28584E-01 5.12531E-26
9.30815E-01 4.97320E-26
9.33013E-01 4.82475E-26
9.35178E-01 4.67988E-26
9.37310E-01 4.53855E-26
9.39409E-01 4.40067E-26
9.41474E-01 4.26620E-26
9.43505E-01 4.13506E-26
9.45503E-01 4.00721E-26
9.47467E-01 3.88259E-26
9.49397E-01 3.76114E-26
9.51293E-01 3.64282E-26
9.53154E-01 3.52756E-26
9.54981E-01 3.41532E-26
9.56773E-01 3.30605E-26
9.58530E-01 3.19970E-26
9.60252E-01 3.09623E-26
9.61940E-01 2.99559E-26
9.63592E-01 2.89775E-26
9.65209E-01 2.80265E-26
9.66790E-01 2.71026E-26
9.68336E-01 2.62054E-26
9.69846E-01 2.53345E-26
9.71321E-01 2.44896E-26
9.72759E-01 2.36703E-26
9.74162E-01 2.28762E-26
9.75528E-01 2.21070E-26
9.76858E-01 2.13625E-26
9.78152E-01 2.06422E-26
9.79410E-01 1.99460E-26
9.80631E-01 1.92734E-26
9.81815E-01 1.86243E-26
9.82963E-01 1.79984E-26
9.84074E-01 1.73953E-26
9.85148E-01 1.68150E-26
9.86185E-01 1.62570E-26
9.87185E-01 1.57213E-26
9.88148E-01 1.52075E-26
9.89074E-01 1.47155E-26
9.89962E-01 1.42451E-26
9.90814E-01 1.37960E-26
9.91627E-01 1.33682E-26
9.92404E-01 1.29614E-26
9.93143E-01 1.25754E-26
9.93844E-01 1.22102E-26
9.94508E-01 1.18655E-26
9.95134E-01 1.15412E-26
9.95722E-01 1.12373E-26
9.96273E-01 1.09535E-26
9.96786E-01 1.06898E-26
9.97261E-01 1.04460E-26
9.97698E-01 1.02221E-26
9.98097E-01 1.00179E-26
9.98459E-01 9.83346E-27
9.98782E-01 9.66861E-27
9.99067E-01 9.52331E-27
9.99315E-01 9.39750E-27
9.99524E-01 9.29113E-27
9.99695E-01 9.20416E-27
9.99829E-01 9.13655E-27
9.99924E-01 9.08827E-27
9.99981E-01 9.05932E-27
1.00000E+00 9.04966E-27
