 #
 # Subroutine ELSEPA. Elastic scattering of electrons and positrons
 #                    by neutral atoms and positive ions
 #
 # Projectile: positron
 # Kinetic energy = 1.00000E+08 eV = 3.67493E+06 a.u.
 #
 # WARNING: High-energy factorization with free-atom DF screening.
 #          Absorption, polarization and exchange corrections are
 #          switched off.
 #          Phase shifts are calculated for the bare nucleus.
 #          Scattering amplitudes are not evaluated.
 #
 # Element: Pr,  Z =  59,  atomic weight = 1.40908E+02 g/mol
 #
 # Nuclear model: Fermi distribution
 #                Average radius = 5.56795E-13 cm
 #                Skin thickness = 5.46000E-14 cm
 #
 # Number of electrons = 59
 #
 # Total elastic cross section = 7.27764E-18 cm**2 = 2.59889E-01 a0**2
 # 1st transport cross section = 6.49764E-25 cm**2 = 2.32035E-08 a0**2
 # 2nd transport cross section = 1.93123E-24 cm**2 = 6.89656E-08 a0**2
 #
 #
 # Differential cross section:                       MU=(1-COS(THETA))/2
 #
 #  THETA        MU          DCS          DCS        Sherman      error
 #  (deg)                 (cm**2/sr)   (a0**2/sr)    function
 #----------------------------------------------------------------------
0.00000E+00 1.07814E-09
7.61557E-13 1.07207E-09
1.18994E-12 1.06869E-09
1.71346E-12 1.06458E-09
2.33225E-12 1.05976E-09
3.04617E-12 1.05424E-09
3.85530E-12 1.04804E-09
4.75964E-12 1.04119E-09
5.75917E-12 1.03369E-09
6.85391E-12 1.02558E-09
8.04379E-12 1.01689E-09
9.32893E-12 1.00763E-09
1.07092E-11 9.97846E-10
1.21847E-11 9.87554E-10
1.37554E-11 9.76788E-10
1.54213E-11 9.65579E-10
1.71823E-11 9.53961E-10
1.90386E-11 9.41962E-10
2.09900E-11 9.29616E-10
2.30367E-11 9.16980E-10
2.51785E-11 9.04178E-10
2.74156E-11 8.91059E-10
2.97478E-11 8.77649E-10
3.21752E-11 8.63975E-10
3.46979E-11 8.50061E-10
3.73157E-11 8.36245E-10
4.00286E-11 8.22375E-10
4.28368E-11 8.08343E-10
4.57402E-11 7.94171E-10
4.87388E-11 7.79884E-10
5.18325E-11 7.65629E-10
5.50215E-11 7.51692E-10
5.83057E-11 7.37701E-10
6.16850E-11 7.23674E-10
6.51595E-11 7.09631E-10
6.87293E-11 6.95589E-10
7.23943E-11 6.82000E-10
7.61544E-11 6.68560E-10
1.18991E-10 5.42334E-10
1.71347E-10 4.38016E-10
2.33223E-10 3.56203E-10
3.04617E-10 2.93083E-10
3.85531E-10 2.44472E-10
4.75965E-10 2.06639E-10
5.75917E-10 1.76686E-10
6.85389E-10 1.52501E-10
8.04380E-10 1.32581E-10
9.32891E-10 1.15920E-10
1.07092E-09 1.01811E-10
1.21847E-09 8.97500E-11
1.37554E-09 7.93663E-11
1.54213E-09 7.03772E-11
1.71823E-09 6.25565E-11
1.90386E-09 5.57475E-11
2.09900E-09 4.98054E-11
2.30367E-09 4.45523E-11
2.51785E-09 3.97462E-11
2.74156E-09 3.56719E-11
2.97478E-09 3.21970E-11
3.21752E-09 2.92163E-11
3.46978E-09 2.66453E-11
3.73156E-09 2.41962E-11
4.00286E-09 2.19872E-11
4.28368E-09 2.00655E-11
4.57402E-09 1.83864E-11
4.87388E-09 1.69126E-11
5.18326E-09 1.55801E-11
5.50215E-09 1.43055E-11
5.83057E-09 1.31786E-11
6.16850E-09 1.21788E-11
6.51596E-09 1.12886E-11
6.87293E-09 1.04936E-11
7.23942E-09 9.72586E-12
7.61544E-09 9.02374E-12
1.18991E-08 4.61627E-12
1.71347E-08 2.56447E-12
2.33223E-08 1.52468E-12
3.04617E-08 9.65962E-13
3.85531E-08 6.45831E-13
4.75965E-08 4.50900E-13
5.75917E-08 3.25715E-13
6.85389E-08 2.41273E-13
8.04380E-08 1.82535E-13
9.32891E-08 1.40546E-13
1.07092E-07 1.09809E-13
1.21847E-07 8.68950E-14
1.37554E-07 6.95766E-14
1.54213E-07 5.63284E-14
1.71823E-07 4.60695E-14
1.90386E-07 3.80347E-14
2.09900E-07 3.16727E-14
2.30367E-07 2.65833E-14
2.51785E-07 2.24729E-14
2.74156E-07 1.91491E-14
2.97478E-07 1.64046E-14
3.21752E-07 1.41473E-14
3.46978E-07 1.22605E-14
3.73156E-07 1.06828E-14
4.00286E-07 9.35057E-15
4.28368E-07 8.22101E-15
4.57402E-07 7.25781E-15
4.87388E-07 6.43090E-15
5.18325E-07 5.72003E-15
5.50215E-07 5.10334E-15
5.83057E-07 4.56930E-15
6.16850E-07 4.10158E-15
6.51596E-07 3.69354E-15
6.87293E-07 3.33389E-15
7.23942E-07 3.01760E-15
7.61543E-07 2.73750E-15
1.18991E-06 1.15459E-15
1.71347E-06 5.66602E-16
2.33223E-06 3.09370E-16
3.04617E-06 1.82847E-16
3.85531E-06 1.14884E-16
4.75964E-06 7.57685E-17
5.75916E-06 5.19758E-17
6.85388E-06 3.68335E-17
8.04378E-06 2.68258E-17
9.32888E-06 1.99976E-17
1.07092E-05 1.52098E-17
1.21846E-05 1.17724E-17
1.37553E-05 9.25314E-18
1.54212E-05 7.37276E-18
1.71822E-05 5.94640E-18
1.90385E-05 4.84687E-18
2.09899E-05 3.99309E-18
2.30365E-05 3.31877E-18
2.51783E-05 2.78032E-18
2.74153E-05 2.34625E-18
2.97475E-05 1.99337E-18
3.21749E-05 1.70434E-18
3.46974E-05 1.46590E-18
3.73152E-05 1.26783E-18
4.00281E-05 1.10220E-18
4.28362E-05 9.62772E-19
4.57395E-05 8.44691E-19
4.87380E-05 7.44121E-19
5.18317E-05 6.58030E-19
5.50205E-05 5.83996E-19
5.83045E-05 5.20066E-19
6.16838E-05 4.64645E-19
6.51582E-05 4.16420E-19
6.87277E-05 3.74300E-19
7.23925E-05 3.37378E-19
7.61524E-05 3.05001E-19
9.21439E-05 2.08312E-19
1.09658E-04 1.47047E-19
1.28695E-04 1.06735E-19
1.49255E-04 7.93224E-20
1.71338E-04 6.01698E-20
1.94942E-04 4.64587E-20
2.20070E-04 3.64373E-20
2.46720E-04 2.89761E-20
2.74892E-04 2.33286E-20
3.04586E-04 1.89914E-20
3.35803E-04 1.56158E-20
3.68542E-04 1.29572E-20
4.02802E-04 1.08405E-20
4.38585E-04 9.13832E-21
4.75889E-04 7.75715E-21
5.14715E-04 6.62697E-21
5.55063E-04 5.69505E-21
5.96931E-04 4.92110E-21
6.40321E-04 4.27406E-21
6.85233E-04 3.72979E-21
7.31665E-04 3.26931E-21
7.79618E-04 2.87763E-21
8.29092E-04 2.54278E-21
8.80086E-04 2.25515E-21
9.32601E-04 2.00698E-21
9.86636E-04 1.79196E-21
1.04219E-03 1.60491E-21
1.09927E-03 1.44158E-21
1.15786E-03 1.29847E-21
1.21797E-03 1.17263E-21
1.27961E-03 1.06163E-21
1.34276E-03 9.63430E-22
1.40743E-03 8.76289E-22
1.47362E-03 7.98752E-22
1.54133E-03 7.29578E-22
1.61056E-03 6.67708E-22
1.68131E-03 6.12238E-22
1.75357E-03 5.62390E-22
1.82735E-03 5.17495E-22
1.90265E-03 4.76975E-22
1.97947E-03 4.40330E-22
2.05780E-03 4.07123E-22
2.13765E-03 3.76975E-22
2.21902E-03 3.49555E-22
2.30190E-03 3.24571E-22
2.38630E-03 3.01768E-22
2.47222E-03 2.80923E-22
2.55965E-03 2.61839E-22
2.64859E-03 2.44339E-22
2.73905E-03 2.28270E-22
2.83103E-03 2.13493E-22
2.92452E-03 1.99886E-22
3.01952E-03 1.87339E-22
3.11604E-03 1.75756E-22
3.21407E-03 1.65049E-22
3.31362E-03 1.55140E-22
3.41468E-03 1.45958E-22
3.51725E-03 1.37442E-22
3.62133E-03 1.29533E-22
3.72692E-03 1.22181E-22
3.83403E-03 1.15340E-22
3.94265E-03 1.08967E-22
4.05278E-03 1.03025E-22
4.16442E-03 9.74792E-23
4.27757E-03 9.22988E-23
4.39223E-03 8.74551E-23
4.50840E-03 8.29223E-23
4.62608E-03 7.86769E-23
4.74527E-03 7.46973E-23
4.86597E-03 7.09639E-23
4.98817E-03 6.74587E-23
5.11188E-03 6.41653E-23
5.23711E-03 6.10684E-23
5.36383E-03 5.81543E-23
5.49207E-03 5.54101E-23
5.62181E-03 5.28243E-23
5.75306E-03 5.03859E-23
5.88581E-03 4.80851E-23
6.02007E-03 4.59127E-23
6.15583E-03 4.38602E-23
6.29310E-03 4.19198E-23
6.43187E-03 4.00843E-23
6.57214E-03 3.83469E-23
6.71392E-03 3.67015E-23
6.85720E-03 3.51423E-23
7.00198E-03 3.36640E-23
7.14827E-03 3.22616E-23
7.29605E-03 3.09305E-23
7.44534E-03 2.96664E-23
7.59612E-03 2.84653E-23
7.97965E-03 2.57147E-23
8.37255E-03 2.32839E-23
8.77480E-03 2.11297E-23
9.18641E-03 1.92152E-23
9.60736E-03 1.75094E-23
1.00376E-02 1.59857E-23
1.04773E-02 1.46215E-23
1.09262E-02 1.33971E-23
1.13844E-02 1.22960E-23
1.18520E-02 1.13035E-23
1.23288E-02 1.04073E-23
1.28150E-02 9.59629E-24
1.33104E-02 8.86112E-24
1.38150E-02 8.19349E-24
1.43290E-02 7.58614E-24
1.48521E-02 7.03272E-24
1.53845E-02 6.52764E-24
1.59262E-02 6.06597E-24
1.64770E-02 5.64335E-24
1.70371E-02 5.25592E-24
1.76063E-02 4.90027E-24
1.81848E-02 4.57334E-24
1.87724E-02 4.27244E-24
1.93692E-02 3.99515E-24
1.99751E-02 3.73930E-24
2.05901E-02 3.50296E-24
2.12143E-02 3.28439E-24
2.18476E-02 3.08205E-24
2.24900E-02 2.89451E-24
2.31415E-02 2.72053E-24
2.38021E-02 2.55895E-24
2.44717E-02 2.40875E-24
2.51504E-02 2.26900E-24
2.58382E-02 2.13885E-24
2.65349E-02 2.01752E-24
2.72407E-02 1.90434E-24
2.79555E-02 1.79865E-24
2.86793E-02 1.69988E-24
2.94120E-02 1.60751E-24
3.01537E-02 1.52105E-24
3.09043E-02 1.44007E-24
3.16639E-02 1.36416E-24
3.24324E-02 1.29295E-24
3.32098E-02 1.22611E-24
3.39961E-02 1.16332E-24
3.47912E-02 1.10430E-24
3.55952E-02 1.04878E-24
3.64081E-02 9.96537E-25
3.72297E-02 9.47332E-25
3.80602E-02 9.00966E-25
3.88995E-02 8.57248E-25
3.97476E-02 8.16004E-25
4.06044E-02 7.77071E-25
4.14700E-02 7.40301E-25
4.23443E-02 7.05553E-25
4.32273E-02 6.72701E-25
4.41190E-02 6.41624E-25
4.50194E-02 6.12213E-25
4.59284E-02 5.84363E-25
4.68461E-02 5.57980E-25
4.87074E-02 5.09263E-25
5.06030E-02 4.65423E-25
5.25328E-02 4.25901E-25
5.44967E-02 3.90214E-25
5.64946E-02 3.57937E-25
5.85262E-02 3.28701E-25
6.05914E-02 3.02178E-25
6.26901E-02 2.78084E-25
6.48222E-02 2.56167E-25
6.69873E-02 2.36202E-25
6.91854E-02 2.17995E-25
7.14163E-02 2.01368E-25
7.36799E-02 1.86169E-25
7.59760E-02 1.72258E-25
7.83043E-02 1.59512E-25
8.06647E-02 1.47821E-25
8.30571E-02 1.37088E-25
8.54812E-02 1.27224E-25
8.79369E-02 1.18151E-25
9.04240E-02 1.09796E-25
9.29422E-02 1.02098E-25
9.54915E-02 9.49968E-26
9.80716E-02 8.84423E-26
1.00682E-01 8.23871E-26
1.03323E-01 7.67889E-26
1.05995E-01 7.16094E-26
1.08696E-01 6.68137E-26
1.11427E-01 6.23704E-26
1.14188E-01 5.82508E-26
1.16978E-01 5.44287E-26
1.19797E-01 5.08805E-26
1.22645E-01 4.75845E-26
1.25522E-01 4.45208E-26
1.28428E-01 4.16716E-26
1.31361E-01 3.90203E-26
1.34323E-01 3.65518E-26
1.37313E-01 3.42523E-26
1.40330E-01 3.21091E-26
1.43375E-01 3.01106E-26
1.46447E-01 2.82462E-26
1.49545E-01 2.65060E-26
1.52671E-01 2.48810E-26
1.55823E-01 2.33629E-26
1.59001E-01 2.19441E-26
1.62205E-01 2.06176E-26
1.65435E-01 1.93767E-26
1.68690E-01 1.82156E-26
1.71970E-01 1.71287E-26
1.75276E-01 1.61109E-26
1.78606E-01 1.51574E-26
1.81961E-01 1.42639E-26
1.85340E-01 1.34263E-26
1.88743E-01 1.26408E-26
1.92169E-01 1.19040E-26
1.95619E-01 1.12127E-26
1.99092E-01 1.05637E-26
2.02589E-01 9.95443E-27
2.06107E-01 9.38219E-27
2.09649E-01 8.84461E-27
2.13212E-01 8.33944E-27
2.16797E-01 7.86460E-27
2.20404E-01 7.41817E-27
2.24032E-01 6.99833E-27
2.27680E-01 6.60340E-27
2.31350E-01 6.23181E-27
2.35040E-01 5.88211E-27
2.38751E-01 5.55293E-27
2.42481E-01 5.24299E-27
2.46231E-01 4.95112E-27
2.50000E-01 4.67619E-27
2.53788E-01 4.41718E-27
2.57595E-01 4.17310E-27
2.61421E-01 3.94306E-27
2.65264E-01 3.72621E-27
2.69126E-01 3.52176E-27
2.73005E-01 3.32895E-27
2.76901E-01 3.14710E-27
2.80814E-01 2.97555E-27
2.84744E-01 2.81369E-27
2.88691E-01 2.66095E-27
2.92653E-01 2.51679E-27
2.96632E-01 2.38072E-27
3.00625E-01 2.25225E-27
3.04634E-01 2.13094E-27
3.08658E-01 2.01638E-27
3.12697E-01 1.90818E-27
3.16749E-01 1.80597E-27
3.20816E-01 1.70940E-27
3.24896E-01 1.61816E-27
3.28990E-01 1.53193E-27
3.33097E-01 1.45043E-27
3.37216E-01 1.37340E-27
3.41348E-01 1.30058E-27
3.45492E-01 1.23172E-27
3.49647E-01 1.16661E-27
3.53814E-01 1.10504E-27
3.57992E-01 1.04681E-27
3.62181E-01 9.91728E-28
3.66381E-01 9.39620E-28
3.70590E-01 8.90322E-28
3.74810E-01 8.43676E-28
3.79039E-01 7.99536E-28
3.83277E-01 7.57763E-28
3.87524E-01 7.18226E-28
3.91780E-01 6.80803E-28
3.96044E-01 6.45376E-28
4.00316E-01 6.11837E-28
4.04596E-01 5.80082E-28
4.08882E-01 5.50013E-28
4.13176E-01 5.21539E-28
4.17476E-01 4.94573E-28
4.21783E-01 4.69032E-28
4.26095E-01 4.44840E-28
4.30413E-01 4.21924E-28
4.34737E-01 4.00213E-28
4.39065E-01 3.79645E-28
4.43398E-01 3.60156E-28
4.47736E-01 3.41689E-28
4.52077E-01 3.24189E-28
4.56422E-01 3.07605E-28
4.60770E-01 2.91886E-28
4.65122E-01 2.76987E-28
4.69476E-01 2.62865E-28
4.73832E-01 2.49478E-28
4.78190E-01 2.36786E-28
4.82550E-01 2.24753E-28
4.86912E-01 2.13344E-28
4.91274E-01 2.02525E-28
4.95637E-01 1.92267E-28
5.00000E-01 1.82538E-28
5.04363E-01 1.73311E-28
5.08726E-01 1.64560E-28
5.13088E-01 1.56260E-28
5.17450E-01 1.48386E-28
5.21810E-01 1.40917E-28
5.26168E-01 1.33831E-28
5.30524E-01 1.27109E-28
5.34878E-01 1.20731E-28
5.39230E-01 1.14679E-28
5.43578E-01 1.08936E-28
5.47923E-01 1.03487E-28
5.52264E-01 9.83151E-29
5.56602E-01 9.34070E-29
5.60935E-01 8.87486E-29
5.65263E-01 8.43270E-29
5.69587E-01 8.01301E-29
5.73905E-01 7.61460E-29
5.78217E-01 7.23639E-29
5.82524E-01 6.87733E-29
5.86824E-01 6.53643E-29
5.91118E-01 6.21275E-29
5.95404E-01 5.90542E-29
5.99684E-01 5.61358E-29
6.03956E-01 5.33645E-29
6.08220E-01 5.07327E-29
6.12476E-01 4.82332E-29
6.16723E-01 4.58592E-29
6.20961E-01 4.36044E-29
6.25190E-01 4.14627E-29
6.29410E-01 3.94282E-29
6.33619E-01 3.74955E-29
6.37819E-01 3.56594E-29
6.42008E-01 3.39150E-29
6.46186E-01 3.22576E-29
6.50353E-01 3.06828E-29
6.54508E-01 2.91865E-29
6.58652E-01 2.77645E-29
6.62784E-01 2.64133E-29
6.66903E-01 2.51291E-29
6.71010E-01 2.39086E-29
6.75104E-01 2.27485E-29
6.79184E-01 2.16459E-29
6.83251E-01 2.05978E-29
6.87303E-01 1.96015E-29
6.91342E-01 1.86543E-29
6.95366E-01 1.77538E-29
6.99375E-01 1.68977E-29
7.03368E-01 1.60837E-29
7.07347E-01 1.53097E-29
7.11309E-01 1.45736E-29
7.15256E-01 1.38737E-29
7.19186E-01 1.32081E-29
7.23099E-01 1.25750E-29
7.26995E-01 1.19729E-29
7.30874E-01 1.14002E-29
7.34736E-01 1.08554E-29
7.38579E-01 1.03372E-29
7.42405E-01 9.84420E-30
7.46212E-01 9.37516E-30
7.50000E-01 8.92891E-30
7.53769E-01 8.50430E-30
7.57519E-01 8.10027E-30
7.61249E-01 7.71580E-30
7.64960E-01 7.34991E-30
7.68650E-01 7.00170E-30
7.72320E-01 6.67027E-30
7.75968E-01 6.35482E-30
7.79596E-01 6.05454E-30
7.83203E-01 5.76870E-30
7.86788E-01 5.49658E-30
7.90351E-01 5.23750E-30
7.93893E-01 4.99083E-30
7.97411E-01 4.75596E-30
8.00908E-01 4.53231E-30
8.04381E-01 4.31932E-30
8.07831E-01 4.11649E-30
8.11257E-01 3.92330E-30
8.14660E-01 3.73930E-30
8.18039E-01 3.56402E-30
8.21394E-01 3.39706E-30
8.24724E-01 3.23799E-30
8.28030E-01 3.08645E-30
8.31310E-01 2.94205E-30
8.34565E-01 2.80446E-30
8.37795E-01 2.67335E-30
8.40999E-01 2.54840E-30
8.44177E-01 2.42931E-30
8.47329E-01 2.31581E-30
8.50455E-01 2.20761E-30
8.53553E-01 2.10447E-30
8.56625E-01 2.00615E-30
8.59670E-01 1.91240E-30
8.62687E-01 1.82301E-30
8.65677E-01 1.73778E-30
8.68639E-01 1.65650E-30
8.71572E-01 1.57898E-30
8.74478E-01 1.50505E-30
8.77355E-01 1.43452E-30
8.80203E-01 1.36725E-30
8.83022E-01 1.30308E-30
8.85812E-01 1.24185E-30
8.88573E-01 1.18343E-30
8.91304E-01 1.12768E-30
8.94005E-01 1.07449E-30
8.96677E-01 1.02372E-30
8.99318E-01 9.75264E-31
9.01928E-01 9.29014E-31
9.04508E-01 8.84866E-31
9.07058E-01 8.42720E-31
9.09576E-01 8.02484E-31
9.12063E-01 7.64067E-31
9.14519E-01 7.27384E-31
9.16943E-01 6.92356E-31
9.19335E-01 6.58904E-31
9.21696E-01 6.26957E-31
9.24024E-01 5.96444E-31
9.26320E-01 5.67299E-31
9.28584E-01 5.39459E-31
9.30815E-01 5.12864E-31
9.33013E-01 4.87457E-31
9.35178E-01 4.63184E-31
9.37310E-01 4.39993E-31
9.39409E-01 4.17835E-31
9.41474E-01 3.96663E-31
9.43505E-01 3.76433E-31
9.45503E-01 3.57102E-31
9.47467E-01 3.38630E-31
9.49397E-01 3.20978E-31
9.51293E-01 3.04110E-31
9.53154E-01 2.87992E-31
9.54981E-01 2.72589E-31
9.56773E-01 2.57872E-31
9.58530E-01 2.43808E-31
9.60252E-01 2.30371E-31
9.61940E-01 2.17534E-31
9.63592E-01 2.05269E-31
9.65209E-01 1.93553E-31
9.66790E-01 1.82362E-31
9.68336E-01 1.71675E-31
9.69846E-01 1.61470E-31
9.71321E-01 1.51727E-31
9.72759E-01 1.42426E-31
9.74162E-01 1.33551E-31
9.75528E-01 1.25083E-31
9.76858E-01 1.17006E-31
9.78152E-01 1.09305E-31
9.79410E-01 1.01965E-31
9.80631E-01 9.49718E-32
9.81815E-01 8.83120E-32
9.82963E-01 8.19732E-32
9.84074E-01 7.59433E-32
9.85148E-01 7.02111E-32
9.86185E-01 6.47659E-32
9.87185E-01 5.95974E-32
9.88148E-01 5.46960E-32
9.89074E-01 5.00528E-32
9.89962E-01 4.56591E-32
9.90814E-01 4.15069E-32
9.91627E-01 3.75885E-32
9.92404E-01 3.38968E-32
9.93143E-01 3.04251E-32
9.93844E-01 2.71671E-32
9.94508E-01 2.41168E-32
9.95134E-01 2.12689E-32
9.95722E-01 1.86181E-32
9.96273E-01 1.61597E-32
9.96786E-01 1.38894E-32
9.97261E-01 1.18030E-32
9.97698E-01 9.89677E-33
9.98097E-01 8.16744E-33
9.98459E-01 6.61189E-33
9.98782E-01 5.22739E-33
9.99067E-01 4.01142E-33
9.99315E-01 2.96192E-33
9.99524E-01 2.07696E-33
9.99695E-01 1.35502E-33
9.99829E-01 7.94820E-34
9.99924E-01 3.95390E-34
9.99981E-01 1.56015E-34
1.00000E+00 7.62501E-35
