 #
 # Subroutine ELSEPA. Elastic scattering of electrons and positrons
 #                    by neutral atoms and positive ions
 #
 # Projectile: positron
 # Kinetic energy = 1.50000E+06 eV = 5.51240E+04 a.u.
 #
 # WARNING: High-energy factorization with free-atom DF screening.
 #          Absorption, polarization and exchange corrections are
 #          switched off.
 #          Phase shifts are calculated for the bare nucleus.
 #          Scattering amplitudes are not evaluated.
 #
 # Element: Pr,  Z =  59,  atomic weight = 1.40908E+02 g/mol
 #
 # Nuclear model: Fermi distribution
 #                Average radius = 5.56795E-13 cm
 #                Skin thickness = 5.46000E-14 cm
 #
 # Number of electrons = 59
 #
 # Total elastic cross section = 7.76258E-18 cm**2 = 2.77207E-01 a0**2
 # 1st transport cross section = 9.89285E-22 cm**2 = 3.53280E-05 a0**2
 # 2nd transport cross section = 2.80393E-21 cm**2 = 1.00130E-04 a0**2
 #
 #
 # Differential cross section:                       MU=(1-COS(THETA))/2
 #
 #  THETA        MU          DCS          DCS        Sherman      error
 #  (deg)                 (cm**2/sr)   (a0**2/sr)    function
 #----------------------------------------------------------------------
0.00000E+00 4.31588E-13
7.61557E-13 4.31587E-13
1.18994E-12 4.31586E-13
1.71346E-12 4.31586E-13
2.33225E-12 4.31585E-13
3.04617E-12 4.31584E-13
3.85530E-12 4.31583E-13
4.75964E-12 4.31582E-13
5.75917E-12 4.31580E-13
6.85391E-12 4.31579E-13
8.04379E-12 4.31577E-13
9.32893E-12 4.31576E-13
1.07092E-11 4.31574E-13
1.21847E-11 4.31572E-13
1.37554E-11 4.31570E-13
1.54213E-11 4.31568E-13
1.71823E-11 4.31566E-13
1.90386E-11 4.31564E-13
2.09900E-11 4.31561E-13
2.30367E-11 4.31559E-13
2.51785E-11 4.31556E-13
2.74156E-11 4.31553E-13
2.97478E-11 4.31550E-13
3.21752E-11 4.31547E-13
3.46979E-11 4.31544E-13
3.73157E-11 4.31541E-13
4.00286E-11 4.31538E-13
4.28368E-11 4.31534E-13
4.57402E-11 4.31531E-13
4.87388E-11 4.31527E-13
5.18325E-11 4.31523E-13
5.50215E-11 4.31519E-13
5.83057E-11 4.31515E-13
6.16850E-11 4.31511E-13
6.51595E-11 4.31507E-13
6.87293E-11 4.31502E-13
7.23943E-11 4.31498E-13
7.61544E-11 4.31493E-13
1.18991E-10 4.31441E-13
1.71347E-10 4.31378E-13
2.33223E-10 4.31303E-13
3.04617E-10 4.31216E-13
3.85531E-10 4.31119E-13
4.75965E-10 4.31010E-13
5.75917E-10 4.30890E-13
6.85389E-10 4.30758E-13
8.04380E-10 4.30615E-13
9.32891E-10 4.30461E-13
1.07092E-09 4.30296E-13
1.21847E-09 4.30120E-13
1.37554E-09 4.29932E-13
1.54213E-09 4.29733E-13
1.71823E-09 4.29523E-13
1.90386E-09 4.29302E-13
2.09900E-09 4.29069E-13
2.30367E-09 4.28826E-13
2.51785E-09 4.28572E-13
2.74156E-09 4.28306E-13
2.97478E-09 4.28030E-13
3.21752E-09 4.27743E-13
3.46978E-09 4.27445E-13
3.73156E-09 4.27136E-13
4.00286E-09 4.26816E-13
4.28368E-09 4.26485E-13
4.57402E-09 4.26144E-13
4.87388E-09 4.25792E-13
5.18326E-09 4.25429E-13
5.50215E-09 4.25056E-13
5.83057E-09 4.24672E-13
6.16850E-09 4.24278E-13
6.51596E-09 4.23873E-13
6.87293E-09 4.23458E-13
7.23942E-09 4.23032E-13
7.61544E-09 4.22596E-13
1.18991E-08 4.17682E-13
1.71347E-08 4.11803E-13
2.33223E-08 4.05029E-13
3.04617E-08 3.97439E-13
3.85531E-08 3.89115E-13
4.75965E-08 3.80148E-13
5.75917E-08 3.70628E-13
6.85389E-08 3.60728E-13
8.04380E-08 3.50407E-13
9.32891E-08 3.39695E-13
1.07092E-07 3.28974E-13
1.21847E-07 3.18048E-13
1.37554E-07 3.06976E-13
1.54213E-07 2.96163E-13
1.71823E-07 2.85292E-13
1.90386E-07 2.74525E-13
2.09900E-07 2.64118E-13
2.30367E-07 2.53789E-13
2.51785E-07 2.43760E-13
2.74156E-07 2.34114E-13
2.97478E-07 2.24632E-13
3.21752E-07 2.15584E-13
3.46978E-07 2.06890E-13
3.73156E-07 1.98405E-13
4.00286E-07 1.90430E-13
4.28368E-07 1.82750E-13
4.57402E-07 1.75295E-13
4.87388E-07 1.68374E-13
5.18325E-07 1.61684E-13
5.50215E-07 1.55254E-13
5.83057E-07 1.49266E-13
6.16850E-07 1.43488E-13
6.51596E-07 1.37986E-13
6.87293E-07 1.32826E-13
7.23942E-07 1.27857E-13
7.61543E-07 1.23158E-13
1.18991E-06 8.71657E-14
1.71347E-06 6.45189E-14
2.33223E-06 4.92368E-14
3.04617E-06 3.82918E-14
3.85531E-06 3.01668E-14
4.75964E-06 2.40015E-14
5.75916E-06 1.92814E-14
6.85388E-06 1.54960E-14
8.04378E-06 1.26629E-14
9.32888E-06 1.05551E-14
1.07092E-05 8.75814E-15
1.21846E-05 7.36496E-15
1.37553E-05 6.27567E-15
1.54212E-05 5.33178E-15
1.71822E-05 4.58404E-15
1.90385E-05 3.96860E-15
2.09899E-05 3.43681E-15
2.30365E-05 3.00297E-15
2.51783E-05 2.63207E-15
2.74153E-05 2.30888E-15
2.97475E-05 2.03965E-15
3.21749E-05 1.80348E-15
3.46974E-05 1.59873E-15
3.73152E-05 1.42551E-15
4.00281E-05 1.27094E-15
4.28362E-05 1.13711E-15
4.57395E-05 1.02211E-15
4.87380E-05 9.18288E-16
5.18317E-05 8.28199E-16
5.50205E-05 7.49435E-16
5.83045E-05 6.78650E-16
6.16838E-05 6.16674E-16
6.51582E-05 5.61791E-16
6.87277E-05 5.12599E-16
7.23925E-05 4.69101E-16
7.61524E-05 4.30151E-16
9.21439E-05 3.10220E-16
1.09658E-04 2.30408E-16
1.28695E-04 1.75207E-16
1.49255E-04 1.35997E-16
1.71338E-04 1.07184E-16
1.94942E-04 8.56434E-17
2.20070E-04 6.92616E-17
2.46720E-04 5.65656E-17
2.74892E-04 4.66210E-17
3.04586E-04 3.87143E-17
3.35803E-04 3.23894E-17
3.68542E-04 2.72862E-17
4.02802E-04 2.31384E-17
4.38585E-04 1.97466E-17
4.75889E-04 1.69480E-17
5.14715E-04 1.46269E-17
5.55063E-04 1.26874E-17
5.96931E-04 1.10584E-17
6.40321E-04 9.67867E-18
6.85233E-04 8.51124E-18
7.31665E-04 7.51954E-18
7.79618E-04 6.66273E-18
8.29092E-04 5.92734E-18
8.80086E-04 5.29250E-18
9.32601E-04 4.73768E-18
9.86636E-04 4.25549E-18
1.04219E-03 3.83351E-18
1.09927E-03 3.46156E-18
1.15786E-03 3.13474E-18
1.21797E-03 2.84527E-18
1.27961E-03 2.58807E-18
1.34276E-03 2.35995E-18
1.40743E-03 2.15590E-18
1.47362E-03 1.97343E-18
1.54133E-03 1.81028E-18
1.61056E-03 1.66306E-18
1.68131E-03 1.53064E-18
1.75357E-03 1.41140E-18
1.82735E-03 1.30302E-18
1.90265E-03 1.20504E-18
1.97947E-03 1.11615E-18
2.05780E-03 1.03504E-18
2.13765E-03 9.61293E-19
2.21902E-03 8.93958E-19
2.30190E-03 8.32277E-19
2.38630E-03 7.75909E-19
2.47222E-03 7.24155E-19
2.55965E-03 6.76592E-19
2.64859E-03 6.32928E-19
2.73905E-03 5.92633E-19
2.83103E-03 5.55486E-19
2.92452E-03 5.21243E-19
3.01952E-03 4.89503E-19
3.11604E-03 4.60159E-19
3.21407E-03 4.32999E-19
3.31362E-03 4.07743E-19
3.41468E-03 3.84321E-19
3.51725E-03 3.62555E-19
3.62133E-03 3.42268E-19
3.72692E-03 3.23394E-19
3.83403E-03 3.05792E-19
3.94265E-03 2.89351E-19
4.05278E-03 2.74011E-19
4.16442E-03 2.59656E-19
4.27757E-03 2.46221E-19
4.39223E-03 2.33651E-19
4.50840E-03 2.21855E-19
4.62608E-03 2.10793E-19
4.74527E-03 2.00417E-19
4.86597E-03 1.90653E-19
4.98817E-03 1.81480E-19
5.11188E-03 1.72853E-19
5.23711E-03 1.64720E-19
5.36383E-03 1.57062E-19
5.49207E-03 1.49843E-19
5.62181E-03 1.43027E-19
5.75306E-03 1.36596E-19
5.88581E-03 1.30520E-19
6.02007E-03 1.24773E-19
6.15583E-03 1.19341E-19
6.29310E-03 1.14197E-19
6.43187E-03 1.09326E-19
6.57214E-03 1.04713E-19
6.71392E-03 1.00336E-19
6.85720E-03 9.61853E-20
7.00198E-03 9.22478E-20
7.14827E-03 8.85054E-20
7.29605E-03 8.49515E-20
7.44534E-03 8.15741E-20
7.59612E-03 7.83599E-20
7.97965E-03 7.09897E-20
8.37255E-03 6.44618E-20
8.77480E-03 5.86637E-20
9.18641E-03 5.34995E-20
9.60736E-03 4.88882E-20
1.00376E-02 4.47608E-20
1.04773E-02 4.10577E-20
1.09262E-02 3.77279E-20
1.13844E-02 3.47271E-20
1.18520E-02 3.20172E-20
1.23288E-02 2.95652E-20
1.28150E-02 2.73422E-20
1.33104E-02 2.53229E-20
1.38150E-02 2.34855E-20
1.43290E-02 2.18109E-20
1.48521E-02 2.02820E-20
1.53845E-02 1.88840E-20
1.59262E-02 1.76036E-20
1.64770E-02 1.64292E-20
1.70371E-02 1.53505E-20
1.76063E-02 1.43583E-20
1.81848E-02 1.34444E-20
1.87724E-02 1.26016E-20
1.93692E-02 1.18234E-20
1.99751E-02 1.11038E-20
2.05901E-02 1.04378E-20
2.12143E-02 9.82064E-21
2.18476E-02 9.24806E-21
2.24900E-02 8.71627E-21
2.31415E-02 8.22185E-21
2.38021E-02 7.76172E-21
2.44717E-02 7.33307E-21
2.51504E-02 6.93336E-21
2.58382E-02 6.56030E-21
2.65349E-02 6.21178E-21
2.72407E-02 5.88590E-21
2.79555E-02 5.58092E-21
2.86793E-02 5.29526E-21
2.94120E-02 5.02747E-21
3.01537E-02 4.77626E-21
3.09043E-02 4.54040E-21
3.16639E-02 4.31877E-21
3.24324E-02 4.11039E-21
3.32098E-02 3.91429E-21
3.39961E-02 3.72964E-21
3.47912E-02 3.55564E-21
3.55952E-02 3.39157E-21
3.64081E-02 3.23675E-21
3.72297E-02 3.09059E-21
3.80602E-02 2.95249E-21
3.88995E-02 2.82195E-21
3.97476E-02 2.69846E-21
4.06044E-02 2.58158E-21
4.14700E-02 2.47089E-21
4.23443E-02 2.36601E-21
4.32273E-02 2.26657E-21
4.41190E-02 2.17225E-21
4.50194E-02 2.08273E-21
4.59284E-02 1.99772E-21
4.68461E-02 1.91695E-21
4.87074E-02 1.76716E-21
5.06030E-02 1.63157E-21
5.25328E-02 1.50858E-21
5.44967E-02 1.39684E-21
5.64946E-02 1.29513E-21
5.85262E-02 1.20241E-21
6.05914E-02 1.11774E-21
6.26901E-02 1.04029E-21
6.48222E-02 9.69364E-22
6.69873E-02 9.04304E-22
6.91854E-02 8.44539E-22
7.14163E-02 7.89567E-22
7.36799E-02 7.38939E-22
7.59760E-02 6.92250E-22
7.83043E-02 6.49139E-22
8.06647E-02 6.09289E-22
8.30571E-02 5.72408E-22
8.54812E-02 5.38234E-22
8.79369E-02 5.06538E-22
9.04240E-02 4.77108E-22
9.29422E-02 4.49752E-22
9.54915E-02 4.24301E-22
9.80716E-02 4.00598E-22
1.00682E-01 3.78500E-22
1.03323E-01 3.57883E-22
1.05995E-01 3.38629E-22
1.08696E-01 3.20631E-22
1.11427E-01 3.03795E-22
1.14188E-01 2.88031E-22
1.16978E-01 2.73260E-22
1.19797E-01 2.59407E-22
1.22645E-01 2.46407E-22
1.25522E-01 2.34197E-22
1.28428E-01 2.22721E-22
1.31361E-01 2.11927E-22
1.34323E-01 2.01767E-22
1.37313E-01 1.92198E-22
1.40330E-01 1.83179E-22
1.43375E-01 1.74673E-22
1.46447E-01 1.66646E-22
1.49545E-01 1.59067E-22
1.52671E-01 1.51904E-22
1.55823E-01 1.45133E-22
1.59001E-01 1.38728E-22
1.62205E-01 1.32664E-22
1.65435E-01 1.26922E-22
1.68690E-01 1.21481E-22
1.71970E-01 1.16322E-22
1.75276E-01 1.11429E-22
1.78606E-01 1.06785E-22
1.81961E-01 1.02375E-22
1.85340E-01 9.81849E-23
1.88743E-01 9.42027E-23
1.92169E-01 9.04158E-23
1.95619E-01 8.68129E-23
1.99092E-01 8.33837E-23
2.02589E-01 8.01181E-23
2.06107E-01 7.70072E-23
2.09649E-01 7.40421E-23
2.13212E-01 7.12150E-23
2.16797E-01 6.85183E-23
2.20404E-01 6.59448E-23
2.24032E-01 6.34879E-23
2.27680E-01 6.11416E-23
2.31350E-01 5.88999E-23
2.35040E-01 5.67573E-23
2.38751E-01 5.47086E-23
2.42481E-01 5.27491E-23
2.46231E-01 5.08742E-23
2.50000E-01 4.90796E-23
2.53788E-01 4.73612E-23
2.57595E-01 4.57153E-23
2.61421E-01 4.41382E-23
2.65264E-01 4.26265E-23
2.69126E-01 4.11772E-23
2.73005E-01 3.97871E-23
2.76901E-01 3.84534E-23
2.80814E-01 3.71734E-23
2.84744E-01 3.59446E-23
2.88691E-01 3.47645E-23
2.92653E-01 3.36310E-23
2.96632E-01 3.25418E-23
3.00625E-01 3.14949E-23
3.04634E-01 3.04885E-23
3.08658E-01 2.95205E-23
3.12697E-01 2.85894E-23
3.16749E-01 2.76934E-23
3.20816E-01 2.68311E-23
3.24896E-01 2.60008E-23
3.28990E-01 2.52013E-23
3.33097E-01 2.44312E-23
3.37216E-01 2.36893E-23
3.41348E-01 2.29742E-23
3.45492E-01 2.22849E-23
3.49647E-01 2.16203E-23
3.53814E-01 2.09793E-23
3.57992E-01 2.03610E-23
3.62181E-01 1.97644E-23
3.66381E-01 1.91886E-23
3.70590E-01 1.86328E-23
3.74810E-01 1.80962E-23
3.79039E-01 1.75779E-23
3.83277E-01 1.70772E-23
3.87524E-01 1.65936E-23
3.91780E-01 1.61261E-23
3.96044E-01 1.56743E-23
4.00316E-01 1.52375E-23
4.04596E-01 1.48152E-23
4.08882E-01 1.44067E-23
4.13176E-01 1.40116E-23
4.17476E-01 1.36292E-23
4.21783E-01 1.32592E-23
4.26095E-01 1.29011E-23
4.30413E-01 1.25545E-23
4.34737E-01 1.22188E-23
4.39065E-01 1.18937E-23
4.43398E-01 1.15788E-23
4.47736E-01 1.12737E-23
4.52077E-01 1.09781E-23
4.56422E-01 1.06916E-23
4.60770E-01 1.04140E-23
4.65122E-01 1.01448E-23
4.69476E-01 9.88373E-24
4.73832E-01 9.63058E-24
4.78190E-01 9.38504E-24
4.82550E-01 9.14684E-24
4.86912E-01 8.91572E-24
4.91274E-01 8.69144E-24
4.95637E-01 8.47376E-24
5.00000E-01 8.26246E-24
5.04363E-01 8.05730E-24
5.08726E-01 7.85810E-24
5.13088E-01 7.66465E-24
5.17450E-01 7.47674E-24
5.21810E-01 7.29421E-24
5.26168E-01 7.11686E-24
5.30524E-01 6.94453E-24
5.34878E-01 6.77705E-24
5.39230E-01 6.61426E-24
5.43578E-01 6.45601E-24
5.47923E-01 6.30216E-24
5.52264E-01 6.15256E-24
5.56602E-01 6.00706E-24
5.60935E-01 5.86556E-24
5.65263E-01 5.72790E-24
5.69587E-01 5.59399E-24
5.73905E-01 5.46368E-24
5.78217E-01 5.33688E-24
5.82524E-01 5.21348E-24
5.86824E-01 5.09336E-24
5.91118E-01 4.97643E-24
5.95404E-01 4.86258E-24
5.99684E-01 4.75173E-24
6.03956E-01 4.64379E-24
6.08220E-01 4.53866E-24
6.12476E-01 4.43626E-24
6.16723E-01 4.33651E-24
6.20961E-01 4.23932E-24
6.25190E-01 4.14463E-24
6.29410E-01 4.05236E-24
6.33619E-01 3.96244E-24
6.37819E-01 3.87480E-24
6.42008E-01 3.78937E-24
6.46186E-01 3.70609E-24
6.50353E-01 3.62490E-24
6.54508E-01 3.54573E-24
6.58652E-01 3.46853E-24
6.62784E-01 3.39325E-24
6.66903E-01 3.31982E-24
6.71010E-01 3.24820E-24
6.75104E-01 3.17833E-24
6.79184E-01 3.11017E-24
6.83251E-01 3.04367E-24
6.87303E-01 2.97878E-24
6.91342E-01 2.91546E-24
6.95366E-01 2.85366E-24
6.99375E-01 2.79335E-24
7.03368E-01 2.73448E-24
7.07347E-01 2.67701E-24
7.11309E-01 2.62091E-24
7.15256E-01 2.56614E-24
7.19186E-01 2.51266E-24
7.23099E-01 2.46044E-24
7.26995E-01 2.40945E-24
7.30874E-01 2.35965E-24
7.34736E-01 2.31101E-24
7.38579E-01 2.26351E-24
7.42405E-01 2.21711E-24
7.46212E-01 2.17178E-24
7.50000E-01 2.12749E-24
7.53769E-01 2.08423E-24
7.57519E-01 2.04196E-24
7.61249E-01 2.00065E-24
7.64960E-01 1.96029E-24
7.68650E-01 1.92086E-24
7.72320E-01 1.88231E-24
7.75968E-01 1.84464E-24
7.79596E-01 1.80783E-24
7.83203E-01 1.77184E-24
7.86788E-01 1.73667E-24
7.90351E-01 1.70229E-24
7.93893E-01 1.66868E-24
7.97411E-01 1.63582E-24
8.00908E-01 1.60370E-24
8.04381E-01 1.57229E-24
8.07831E-01 1.54159E-24
8.11257E-01 1.51157E-24
8.14660E-01 1.48221E-24
8.18039E-01 1.45351E-24
8.21394E-01 1.42545E-24
8.24724E-01 1.39800E-24
8.28030E-01 1.37117E-24
8.31310E-01 1.34492E-24
8.34565E-01 1.31926E-24
8.37795E-01 1.29416E-24
8.40999E-01 1.26961E-24
8.44177E-01 1.24561E-24
8.47329E-01 1.22214E-24
8.50455E-01 1.19918E-24
8.53553E-01 1.17672E-24
8.56625E-01 1.15477E-24
8.59670E-01 1.13329E-24
8.62687E-01 1.11229E-24
8.65677E-01 1.09175E-24
8.68639E-01 1.07166E-24
8.71572E-01 1.05201E-24
8.74478E-01 1.03280E-24
8.77355E-01 1.01401E-24
8.80203E-01 9.95642E-25
8.83022E-01 9.77677E-25
8.85812E-01 9.60109E-25
8.88573E-01 9.42932E-25
8.91304E-01 9.26136E-25
8.94005E-01 9.09714E-25
8.96677E-01 8.93659E-25
8.99318E-01 8.77963E-25
9.01928E-01 8.62619E-25
9.04508E-01 8.47620E-25
9.07058E-01 8.32960E-25
9.09576E-01 8.18631E-25
9.12063E-01 8.04627E-25
9.14519E-01 7.90943E-25
9.16943E-01 7.77571E-25
9.19335E-01 7.64507E-25
9.21696E-01 7.51744E-25
9.24024E-01 7.39277E-25
9.26320E-01 7.27100E-25
9.28584E-01 7.15208E-25
9.30815E-01 7.03596E-25
9.33013E-01 6.92260E-25
9.35178E-01 6.81193E-25
9.37310E-01 6.70392E-25
9.39409E-01 6.59851E-25
9.41474E-01 6.49567E-25
9.43505E-01 6.39535E-25
9.45503E-01 6.29751E-25
9.47467E-01 6.20211E-25
9.49397E-01 6.10910E-25
9.51293E-01 6.01845E-25
9.53154E-01 5.93013E-25
9.54981E-01 5.84409E-25
9.56773E-01 5.76030E-25
9.58530E-01 5.67873E-25
9.60252E-01 5.59934E-25
9.61940E-01 5.52210E-25
9.63592E-01 5.44698E-25
9.65209E-01 5.37395E-25
9.66790E-01 5.30298E-25
9.68336E-01 5.23404E-25
9.69846E-01 5.16711E-25
9.71321E-01 5.10215E-25
9.72759E-01 5.03914E-25
9.74162E-01 4.97806E-25
9.75528E-01 4.91888E-25
9.76858E-01 4.86158E-25
9.78152E-01 4.80614E-25
9.79410E-01 4.75253E-25
9.80631E-01 4.70074E-25
9.81815E-01 4.65074E-25
9.82963E-01 4.60251E-25
9.84074E-01 4.55604E-25
9.85148E-01 4.51131E-25
9.86185E-01 4.46829E-25
9.87185E-01 4.42698E-25
9.88148E-01 4.38736E-25
9.89074E-01 4.34941E-25
9.89962E-01 4.31312E-25
9.90814E-01 4.27847E-25
9.91627E-01 4.24546E-25
9.92404E-01 4.21406E-25
9.93143E-01 4.18426E-25
9.93844E-01 4.15607E-25
9.94508E-01 4.12945E-25
9.95134E-01 4.10441E-25
9.95722E-01 4.08094E-25
9.96273E-01 4.05902E-25
9.96786E-01 4.03864E-25
9.97261E-01 4.01981E-25
9.97698E-01 4.00251E-25
9.98097E-01 3.98674E-25
9.98459E-01 3.97248E-25
9.98782E-01 3.95974E-25
9.99067E-01 3.94851E-25
9.99315E-01 3.93879E-25
9.99524E-01 3.93057E-25
9.99695E-01 3.92385E-25
9.99829E-01 3.91862E-25
9.99924E-01 3.91489E-25
9.99981E-01 3.91265E-25
1.00000E+00 3.91190E-25
