 #
 # Subroutine ELSEPA. Elastic scattering of electrons and positrons
 #                    by neutral atoms and positive ions
 #
 # Projectile: positron
 # Kinetic energy = 6.00000E+08 eV = 2.20496E+07 a.u.
 #
 # WARNING: High-energy factorization with free-atom DF screening.
 #          Absorption, polarization and exchange corrections are
 #          switched off.
 #          Phase shifts are calculated for the bare nucleus.
 #          Scattering amplitudes are not evaluated.
 #
 # Element: Pr,  Z =  59,  atomic weight = 1.40908E+02 g/mol
 #
 # Nuclear model: Fermi distribution
 #                Average radius = 5.56795E-13 cm
 #                Skin thickness = 5.46000E-14 cm
 #
 # Number of electrons = 59
 #
 # Total elastic cross section = 7.24687E-18 cm**2 = 2.58791E-01 a0**2
 # 1st transport cross section = 1.86418E-26 cm**2 = 6.65712E-10 a0**2
 # 2nd transport cross section = 5.59099E-26 cm**2 = 1.99658E-09 a0**2
 #
 #
 # Differential cross section:                       MU=(1-COS(THETA))/2
 #
 #  THETA        MU          DCS          DCS        Sherman      error
 #  (deg)                 (cm**2/sr)   (a0**2/sr)    function
 #----------------------------------------------------------------------
0.00000E+00 3.84847E-08
7.61557E-13 3.18549E-08
1.18994E-12 2.89180E-08
1.71346E-12 2.59084E-08
2.33225E-12 2.29945E-08
3.04617E-12 2.02909E-08
3.85530E-12 1.78594E-08
4.75964E-12 1.57213E-08
5.75917E-12 1.38723E-08
6.85391E-12 1.22885E-08
8.04379E-12 1.09341E-08
9.32893E-12 9.77651E-09
1.07092E-11 8.78475E-09
1.21847E-11 7.93120E-09
1.37554E-11 7.19225E-09
1.54213E-11 6.54820E-09
1.71823E-11 5.98292E-09
1.90386E-11 5.48331E-09
2.09900E-11 5.03885E-09
2.30367E-11 4.64064E-09
2.51785E-11 4.28216E-09
2.74156E-11 3.95806E-09
2.97478E-11 3.66393E-09
3.21752E-11 3.39615E-09
3.46979E-11 3.15169E-09
3.73157E-11 2.92804E-09
4.00286E-11 2.72303E-09
4.28368E-11 2.53484E-09
4.57402E-11 2.36186E-09
4.87388E-11 2.20262E-09
5.18325E-11 2.05576E-09
5.50215E-11 1.92042E-09
5.83057E-11 1.79561E-09
6.16850E-11 1.68043E-09
6.51595E-11 1.57074E-09
6.87293E-11 1.46668E-09
7.23943E-11 1.37250E-09
7.61544E-11 1.28707E-09
1.18991E-10 7.24467E-10
1.71347E-10 4.39913E-10
2.33223E-10 2.82795E-10
3.04617E-10 1.89371E-10
3.85531E-10 1.30825E-10
4.75965E-10 9.28111E-11
5.75917E-10 6.74546E-11
6.85389E-10 5.01745E-11
8.04380E-10 3.81588E-11
9.32891E-10 2.96109E-11
1.07092E-09 2.33922E-11
1.21847E-09 1.87697E-11
1.37554E-09 1.52644E-11
1.54213E-09 1.25610E-11
1.71823E-09 1.04338E-11
1.90386E-09 8.74024E-12
2.09900E-09 7.37831E-12
2.30367E-09 6.27025E-12
2.51785E-09 5.36084E-12
2.74156E-09 4.60825E-12
2.97478E-09 3.98085E-12
3.21752E-09 3.45464E-12
3.46978E-09 3.01100E-12
3.73156E-09 2.63531E-12
4.00286E-09 2.31580E-12
4.28368E-09 2.04292E-12
4.57402E-09 1.80886E-12
4.87388E-09 1.60720E-12
5.18326E-09 1.43269E-12
5.50215E-09 1.28114E-12
5.83057E-09 1.14907E-12
6.16850E-09 1.03357E-12
6.51596E-09 9.32058E-13
6.87293E-09 8.42681E-13
7.23942E-09 7.64083E-13
7.61544E-09 6.94726E-13
1.18991E-08 2.98333E-13
1.71347E-08 1.48879E-13
2.33223E-08 8.23610E-14
3.04617E-08 4.91336E-14
3.85531E-08 3.10682E-14
4.75965E-08 2.05814E-14
5.75917E-08 1.41636E-14
6.85389E-08 1.00611E-14
8.04380E-08 7.34149E-15
9.32891E-08 5.48176E-15
1.07092E-07 4.17548E-15
1.21847E-07 3.23622E-15
1.37554E-07 2.54694E-15
1.54213E-07 2.03188E-15
1.71823E-07 1.64073E-15
1.90386E-07 1.33936E-15
2.09900E-07 1.10413E-15
2.30367E-07 9.18365E-16
2.51785E-07 7.70077E-16
2.74156E-07 6.50545E-16
2.97478E-07 5.53329E-16
3.21752E-07 4.73611E-16
3.46978E-07 4.07742E-16
3.73156E-07 3.52932E-16
4.00286E-07 3.07027E-16
4.28368E-07 2.68345E-16
4.57402E-07 2.35565E-16
4.87388E-07 2.07638E-16
5.18325E-07 1.83728E-16
5.50215E-07 1.63161E-16
5.83057E-07 1.45391E-16
6.16850E-07 1.29974E-16
6.51596E-07 1.16546E-16
6.87293E-07 1.04807E-16
7.23942E-07 9.45094E-17
7.61543E-07 8.54450E-17
1.18991E-06 3.51072E-17
1.71347E-06 1.69585E-17
2.33223E-06 9.16229E-18
3.04617E-06 5.37364E-18
3.85531E-06 3.35576E-18
4.75964E-06 2.20207E-18
5.75916E-06 1.50415E-18
6.85388E-06 1.06204E-18
8.04378E-06 7.71044E-19
9.32888E-06 5.73209E-19
1.07092E-05 4.34933E-19
1.21846E-05 3.35940E-19
1.37553E-05 2.63570E-19
1.54212E-05 2.09675E-19
1.71822E-05 1.68874E-19
1.90385E-05 1.37479E-19
2.09899E-05 1.13139E-19
2.30365E-05 9.39434E-20
2.51783E-05 7.86344E-20
2.74153E-05 6.63070E-20
2.97475E-05 5.62963E-20
3.21749E-05 4.81042E-20
3.46974E-05 4.13517E-20
3.73152E-05 3.57468E-20
4.00281E-05 3.10628E-20
4.28362E-05 2.71225E-20
4.57395E-05 2.37874E-20
4.87380E-05 2.09483E-20
5.18317E-05 1.85191E-20
5.50205E-05 1.64311E-20
5.83045E-05 1.46287E-20
6.16838E-05 1.30668E-20
6.51582E-05 1.17081E-20
6.87277E-05 1.05217E-20
7.23925E-05 9.48208E-21
7.61524E-05 8.61341E-21
9.21439E-05 5.87587E-21
1.09658E-04 4.14186E-21
1.28695E-04 3.00122E-21
1.49255E-04 2.22582E-21
1.71338E-04 1.68427E-21
1.94942E-04 1.29679E-21
2.20070E-04 1.01376E-21
2.46720E-04 8.03220E-22
2.74892E-04 6.44016E-22
3.04586E-04 5.21900E-22
3.35803E-04 4.26992E-22
3.68542E-04 3.52368E-22
4.02802E-04 2.93065E-22
4.38585E-04 2.45479E-22
4.75889E-04 2.06958E-22
5.14715E-04 1.75519E-22
5.55063E-04 1.49671E-22
5.96931E-04 1.28272E-22
6.40321E-04 1.10443E-22
6.85233E-04 9.55014E-23
7.31665E-04 8.29102E-23
7.79618E-04 7.22458E-23
8.29092E-04 6.31701E-23
8.80086E-04 5.54120E-23
9.32601E-04 4.87526E-23
9.86636E-04 4.30139E-23
1.04219E-03 3.80503E-23
1.09927E-03 3.37424E-23
1.15786E-03 2.99914E-23
1.21797E-03 2.67152E-23
1.27961E-03 2.38455E-23
1.34276E-03 2.13249E-23
1.40743E-03 1.91052E-23
1.47362E-03 1.71457E-23
1.54133E-03 1.54120E-23
1.61056E-03 1.38745E-23
1.68131E-03 1.25083E-23
1.75357E-03 1.12919E-23
1.82735E-03 1.02067E-23
1.90265E-03 9.23702E-24
1.97947E-03 8.36895E-24
2.05780E-03 7.59062E-24
2.13765E-03 6.89169E-24
2.21902E-03 6.26313E-24
2.30190E-03 5.69707E-24
2.38630E-03 5.18662E-24
2.47222E-03 4.72574E-24
2.55965E-03 4.30911E-24
2.64859E-03 3.93204E-24
2.73905E-03 3.59042E-24
2.83103E-03 3.28059E-24
2.92452E-03 2.99931E-24
3.01952E-03 2.74371E-24
3.11604E-03 2.51123E-24
3.21407E-03 2.29961E-24
3.31362E-03 2.10681E-24
3.41468E-03 1.93103E-24
3.51725E-03 1.77065E-24
3.62133E-03 1.62421E-24
3.72692E-03 1.49042E-24
3.83403E-03 1.36811E-24
3.94265E-03 1.25622E-24
4.05278E-03 1.15381E-24
4.16442E-03 1.06002E-24
4.27757E-03 9.74092E-25
4.39223E-03 8.95324E-25
4.50840E-03 8.23088E-25
4.62608E-03 7.56815E-25
4.74527E-03 6.95988E-25
4.86597E-03 6.40140E-25
4.98817E-03 5.88844E-25
5.11188E-03 5.41716E-25
5.23711E-03 4.98403E-25
5.36383E-03 4.58585E-25
5.49207E-03 4.21972E-25
5.62181E-03 3.88298E-25
5.75306E-03 3.57319E-25
5.88581E-03 3.28816E-25
6.02007E-03 3.02586E-25
6.15583E-03 2.78443E-25
6.29310E-03 2.56219E-25
6.43187E-03 2.35759E-25
6.57214E-03 2.16922E-25
6.71392E-03 1.99576E-25
6.85720E-03 1.83604E-25
7.00198E-03 1.68895E-25
7.14827E-03 1.55350E-25
7.29605E-03 1.42876E-25
7.44534E-03 1.31389E-25
7.59612E-03 1.20811E-25
7.97965E-03 9.78855E-26
8.37255E-03 7.92389E-26
8.77480E-03 6.40822E-26
9.18641E-03 5.17728E-26
9.60736E-03 4.17866E-26
1.00376E-02 3.36953E-26
1.04773E-02 2.71491E-26
1.09262E-02 2.18615E-26
1.13844E-02 1.75982E-26
1.18520E-02 1.41674E-26
1.23288E-02 1.14121E-26
1.28150E-02 9.20395E-27
1.33104E-02 7.43800E-27
1.38150E-02 6.02858E-27
1.43290E-02 4.90584E-27
1.48521E-02 4.01294E-27
1.53845E-02 3.30372E-27
1.59262E-02 2.74074E-27
1.64770E-02 2.29380E-27
1.70371E-02 1.93852E-27
1.76063E-02 1.65537E-27
1.81848E-02 1.42873E-27
1.87724E-02 1.24616E-27
1.93692E-02 1.09782E-27
1.99751E-02 9.75974E-28
2.05901E-02 8.74565E-28
2.12143E-02 7.88890E-28
2.18476E-02 7.15331E-28
2.24900E-02 6.51128E-28
2.31415E-02 5.94196E-28
2.38021E-02 5.42980E-28
2.44717E-02 4.96335E-28
2.51504E-02 4.53429E-28
2.58382E-02 4.13667E-28
2.65349E-02 3.76633E-28
2.72407E-02 3.42039E-28
2.79555E-02 3.09689E-28
2.86793E-02 2.79448E-28
2.94120E-02 2.51226E-28
3.01537E-02 2.24956E-28
3.09043E-02 2.00584E-28
3.16639E-02 1.78061E-28
3.24324E-02 1.57339E-28
3.32098E-02 1.38363E-28
3.39961E-02 1.21074E-28
3.47912E-02 1.05405E-28
3.55952E-02 9.12825E-29
3.64081E-02 7.86260E-29
3.72297E-02 6.73504E-29
3.80602E-02 5.73664E-29
3.88995E-02 4.85820E-29
3.97476E-02 4.09040E-29
4.06044E-02 3.42391E-29
4.14700E-02 2.84954E-29
4.23443E-02 2.35830E-29
4.32273E-02 1.94154E-29
4.41190E-02 1.59101E-29
4.50194E-02 1.29888E-29
4.59284E-02 1.05787E-29
4.68461E-02 8.61178E-30
4.87074E-02 5.76423E-30
5.06030E-02 4.01407E-30
5.25328E-02 3.01486E-30
5.44967E-02 2.49907E-30
5.64946E-02 2.26849E-30
5.85262E-02 2.18332E-30
6.05914E-02 2.15093E-30
6.26901E-02 2.11527E-30
6.48222E-02 2.04728E-30
6.69873E-02 1.93676E-30
6.91854E-02 1.78569E-30
7.14163E-02 1.60300E-30
7.36799E-02 1.40077E-30
7.59760E-02 1.19148E-30
7.83043E-02 9.86364E-31
8.06647E-02 7.94414E-31
8.30571E-02 6.22026E-31
8.54812E-02 4.73022E-31
8.79369E-02 3.48930E-31
9.04240E-02 2.49409E-31
9.29422E-02 1.72726E-31
9.54915E-02 1.16225E-31
9.80716E-02 7.67438E-32
1.00682E-01 5.09625E-32
1.03323E-01 3.56718E-32
1.05995E-01 2.79581E-32
1.08696E-01 2.53186E-32
1.11427E-01 2.57141E-32
1.14188E-01 2.75742E-32
1.16978E-01 2.97670E-32
1.19797E-01 3.15463E-32
1.22645E-01 3.24858E-32
1.25522E-01 3.24099E-32
1.28428E-01 3.13257E-32
1.31361E-01 2.93628E-32
1.34323E-01 2.67208E-32
1.37313E-01 2.36284E-32
1.40330E-01 2.03123E-32
1.43375E-01 1.69760E-32
1.46447E-01 1.37866E-32
1.49545E-01 1.08697E-32
1.52671E-01 8.30791E-33
1.55823E-01 6.14488E-33
1.59001E-01 4.39058E-33
1.62205E-01 3.02843E-33
1.65435E-01 2.02255E-33
1.68690E-01 1.32473E-33
1.71970E-01 8.80601E-34
1.75276E-01 6.34717E-34
1.78606E-01 5.34434E-34
1.81961E-01 5.32658E-34
1.85340E-01 5.89498E-34
1.88743E-01 6.73013E-34
1.92169E-01 7.59213E-34
1.95619E-01 8.31526E-34
1.99092E-01 8.79895E-34
2.02589E-01 8.99648E-34
2.06107E-01 8.90318E-34
2.09649E-01 8.54471E-34
2.13212E-01 7.96640E-34
2.16797E-01 7.22407E-34
2.20404E-01 6.37655E-34
2.24032E-01 5.48012E-34
2.27680E-01 4.58450E-34
2.31350E-01 3.73045E-34
2.35040E-01 2.94876E-34
2.38751E-01 2.26013E-34
2.42481E-01 1.67591E-34
2.46231E-01 1.19935E-34
2.50000E-01 8.27065E-35
2.53788E-01 5.50736E-35
2.57595E-01 3.58657E-35
2.61421E-01 2.37217E-35
2.65264E-01 1.72138E-35
2.69126E-01 1.49483E-35
2.73005E-01 1.56412E-35
2.76901E-01 1.81689E-35
2.80814E-01 2.15970E-35
2.84744E-01 2.51914E-35
2.88691E-01 2.84130E-35
2.92653E-01 3.09032E-35
2.96632E-01 3.24605E-35
3.00625E-01 3.30131E-35
3.04634E-01 3.25911E-35
3.08658E-01 3.12980E-35
3.12697E-01 2.92846E-35
3.16749E-01 2.67277E-35
3.20816E-01 2.38103E-35
3.24896E-01 2.07074E-35
3.28990E-01 1.75769E-35
3.33097E-01 1.45509E-35
3.37216E-01 1.17336E-35
3.41348E-01 9.20004E-36
3.45492E-01 6.99737E-36
3.49647E-01 5.14750E-36
3.53814E-01 3.65105E-36
3.57992E-01 2.49137E-36
3.62181E-01 1.63906E-36
3.66381E-01 1.05601E-36
3.70590E-01 6.99308E-37
3.74810E-01 5.24411E-37
3.79039E-01 4.87849E-37
3.83277E-01 5.49244E-37
3.87524E-01 6.72782E-37
3.91780E-01 8.28016E-37
3.96044E-01 9.90309E-37
4.00316E-01 1.14081E-36
4.04596E-01 1.26619E-36
4.08882E-01 1.35801E-36
4.13176E-01 1.41219E-36
4.17476E-01 1.42812E-36
4.21783E-01 1.40783E-36
4.26095E-01 1.35550E-36
4.30413E-01 1.27647E-36
4.34737E-01 1.17679E-36
4.39065E-01 1.06276E-36
4.43398E-01 9.40378E-37
4.47736E-01 8.15144E-37
4.52077E-01 6.91822E-37
4.56422E-01 5.74375E-37
4.60770E-01 4.65837E-37
4.65122E-01 3.68351E-37
4.69476E-01 2.83250E-37
4.73832E-01 2.11130E-37
4.78190E-01 1.51942E-37
4.82550E-01 1.05138E-37
4.86912E-01 6.97613E-38
4.91274E-01 4.45892E-38
4.95637E-01 2.82179E-38
5.00000E-01 1.91719E-38
5.04363E-01 1.59714E-38
5.08726E-01 1.72054E-38
5.13088E-01 2.15765E-38
5.17450E-01 2.79303E-38
5.21810E-01 3.52814E-38
5.26168E-01 4.28197E-38
5.30524E-01 4.99161E-38
5.34878E-01 5.60948E-38
5.39230E-01 6.10396E-38
5.43578E-01 6.45646E-38
5.47923E-01 6.66144E-38
5.52264E-01 6.71966E-38
5.56602E-01 6.64107E-38
5.60935E-01 6.44033E-38
5.65263E-01 6.13620E-38
5.69587E-01 5.74810E-38
5.73905E-01 5.29774E-38
5.78217E-01 4.80533E-38
5.82524E-01 4.28943E-38
5.86824E-01 3.76824E-38
5.91118E-01 3.25590E-38
5.95404E-01 2.76573E-38
5.99684E-01 2.30716E-38
6.03956E-01 1.88751E-38
6.08220E-01 1.51174E-38
6.12476E-01 1.18255E-38
6.16723E-01 9.00799E-39
6.20961E-01 6.65427E-39
6.25190E-01 1.00000E-45
6.29410E-01 1.00000E-45
6.33619E-01 1.00000E-45
6.37819E-01 1.00000E-45
6.42008E-01 1.00000E-45
6.46186E-01 1.00000E-45
6.50353E-01 1.00000E-45
6.54508E-01 1.00000E-45
6.58652E-01 1.00000E-45
6.62784E-01 1.00000E-45
6.66903E-01 1.00000E-45
6.71010E-01 1.00000E-45
6.75104E-01 1.00000E-45
6.79184E-01 1.00000E-45
6.83251E-01 1.00000E-45
6.87303E-01 1.00000E-45
6.91342E-01 1.00000E-45
6.95366E-01 1.00000E-45
6.99375E-01 1.00000E-45
7.03368E-01 1.00000E-45
7.07347E-01 1.00000E-45
7.11309E-01 1.00000E-45
7.15256E-01 1.00000E-45
7.19186E-01 1.00000E-45
7.23099E-01 1.00000E-45
7.26995E-01 1.00000E-45
7.30874E-01 1.00000E-45
7.34736E-01 1.00000E-45
7.38579E-01 1.00000E-45
7.42405E-01 1.00000E-45
7.46212E-01 1.00000E-45
7.50000E-01 1.00000E-45
7.53769E-01 1.00000E-45
7.57519E-01 1.00000E-45
7.61249E-01 1.00000E-45
7.64960E-01 1.00000E-45
7.68650E-01 1.00000E-45
7.72320E-01 1.00000E-45
7.75968E-01 1.00000E-45
7.79596E-01 1.00000E-45
7.83203E-01 1.00000E-45
7.86788E-01 1.00000E-45
7.90351E-01 1.00000E-45
7.93893E-01 1.00000E-45
7.97411E-01 1.00000E-45
8.00908E-01 1.00000E-45
8.04381E-01 1.00000E-45
8.07831E-01 1.00000E-45
8.11257E-01 1.00000E-45
8.14660E-01 1.00000E-45
8.18039E-01 1.00000E-45
8.21394E-01 1.00000E-45
8.24724E-01 1.00000E-45
8.28030E-01 1.00000E-45
8.31310E-01 1.00000E-45
8.34565E-01 1.00000E-45
8.37795E-01 1.00000E-45
8.40999E-01 1.00000E-45
8.44177E-01 1.00000E-45
8.47329E-01 1.00000E-45
8.50455E-01 1.00000E-45
8.53553E-01 1.00000E-45
8.56625E-01 1.00000E-45
8.59670E-01 1.00000E-45
8.62687E-01 1.00000E-45
8.65677E-01 1.00000E-45
8.68639E-01 1.00000E-45
8.71572E-01 1.00000E-45
8.74478E-01 1.00000E-45
8.77355E-01 1.00000E-45
8.80203E-01 1.00000E-45
8.83022E-01 1.00000E-45
8.85812E-01 1.00000E-45
8.88573E-01 1.00000E-45
8.91304E-01 1.00000E-45
8.94005E-01 1.00000E-45
8.96677E-01 1.00000E-45
8.99318E-01 1.00000E-45
9.01928E-01 1.00000E-45
9.04508E-01 1.00000E-45
9.07058E-01 1.00000E-45
9.09576E-01 1.00000E-45
9.12063E-01 1.00000E-45
9.14519E-01 1.00000E-45
9.16943E-01 1.00000E-45
9.19335E-01 1.00000E-45
9.21696E-01 1.00000E-45
9.24024E-01 1.00000E-45
9.26320E-01 1.00000E-45
9.28584E-01 1.00000E-45
9.30815E-01 1.00000E-45
9.33013E-01 1.00000E-45
9.35178E-01 1.00000E-45
9.37310E-01 1.00000E-45
9.39409E-01 1.00000E-45
9.41474E-01 1.00000E-45
9.43505E-01 1.00000E-45
9.45503E-01 1.00000E-45
9.47467E-01 1.00000E-45
9.49397E-01 1.00000E-45
9.51293E-01 1.00000E-45
9.53154E-01 1.00000E-45
9.54981E-01 1.00000E-45
9.56773E-01 1.00000E-45
9.58530E-01 1.00000E-45
9.60252E-01 1.00000E-45
9.61940E-01 1.00000E-45
9.63592E-01 1.00000E-45
9.65209E-01 1.00000E-45
9.66790E-01 1.00000E-45
9.68336E-01 1.00000E-45
9.69846E-01 1.00000E-45
9.71321E-01 1.00000E-45
9.72759E-01 1.00000E-45
9.74162E-01 1.00000E-45
9.75528E-01 1.00000E-45
9.76858E-01 1.00000E-45
9.78152E-01 1.00000E-45
9.79410E-01 1.00000E-45
9.80631E-01 1.00000E-45
9.81815E-01 1.00000E-45
9.82963E-01 1.00000E-45
9.84074E-01 1.00000E-45
9.85148E-01 1.00000E-45
9.86185E-01 1.00000E-45
9.87185E-01 1.00000E-45
9.88148E-01 1.00000E-45
9.89074E-01 1.00000E-45
9.89962E-01 1.00000E-45
9.90814E-01 1.00000E-45
9.91627E-01 1.00000E-45
9.92404E-01 1.00000E-45
9.93143E-01 1.00000E-45
9.93844E-01 1.00000E-45
9.94508E-01 1.00000E-45
9.95134E-01 1.00000E-45
9.95722E-01 1.00000E-45
9.96273E-01 1.00000E-45
9.96786E-01 1.00000E-45
9.97261E-01 1.00000E-45
9.97698E-01 1.00000E-45
9.98097E-01 1.00000E-45
9.98459E-01 1.00000E-45
9.98782E-01 1.00000E-45
9.99067E-01 1.00000E-45
9.99315E-01 1.00000E-45
9.99524E-01 1.00000E-45
9.99695E-01 1.00000E-45
9.99829E-01 1.00000E-45
9.99924E-01 1.00000E-45
9.99981E-01 1.00000E-45
1.00000E+00 1.00000E-45
