 #
 # Subroutine ELSEPA. Elastic scattering of electrons and positrons
 #                    by neutral atoms and positive ions
 #
 # Projectile: positron
 # Kinetic energy = 6.00000E+06 eV = 2.20496E+05 a.u.
 #
 # WARNING: High-energy factorization with free-atom DF screening.
 #          Absorption, polarization and exchange corrections are
 #          switched off.
 #          Phase shifts are calculated for the bare nucleus.
 #          Scattering amplitudes are not evaluated.
 #
 # Element: Pr,  Z =  59,  atomic weight = 1.40908E+02 g/mol
 #
 # Nuclear model: Fermi distribution
 #                Average radius = 5.56795E-13 cm
 #                Skin thickness = 5.46000E-14 cm
 #
 # Number of electrons = 59
 #
 # Total elastic cross section = 7.31762E-18 cm**2 = 2.61317E-01 a0**2
 # 1st transport cross section = 1.08284E-22 cm**2 = 3.86691E-06 a0**2
 # 2nd transport cross section = 3.12244E-22 cm**2 = 1.11504E-05 a0**2
 #
 #
 # Differential cross section:                       MU=(1-COS(THETA))/2
 #
 #  THETA        MU          DCS          DCS        Sherman      error
 #  (deg)                 (cm**2/sr)   (a0**2/sr)    function
 #----------------------------------------------------------------------
0.00000E+00 4.52419E-12
7.61557E-13 4.52408E-12
1.18994E-12 4.52402E-12
1.71346E-12 4.52394E-12
2.33225E-12 4.52386E-12
3.04617E-12 4.52376E-12
3.85530E-12 4.52364E-12
4.75964E-12 4.52351E-12
5.75917E-12 4.52337E-12
6.85391E-12 4.52322E-12
8.04379E-12 4.52305E-12
9.32893E-12 4.52287E-12
1.07092E-11 4.52267E-12
1.21847E-11 4.52247E-12
1.37554E-11 4.52225E-12
1.54213E-11 4.52201E-12
1.71823E-11 4.52176E-12
1.90386E-11 4.52150E-12
2.09900E-11 4.52123E-12
2.30367E-11 4.52094E-12
2.51785E-11 4.52064E-12
2.74156E-11 4.52033E-12
2.97478E-11 4.52000E-12
3.21752E-11 4.51966E-12
3.46979E-11 4.51931E-12
3.73157E-11 4.51894E-12
4.00286E-11 4.51856E-12
4.28368E-11 4.51817E-12
4.57402E-11 4.51776E-12
4.87388E-11 4.51734E-12
5.18325E-11 4.51691E-12
5.50215E-11 4.51646E-12
5.83057E-11 4.51601E-12
6.16850E-11 4.51553E-12
6.51595E-11 4.51505E-12
6.87293E-11 4.51455E-12
7.23943E-11 4.51404E-12
7.61544E-11 4.51351E-12
1.18991E-10 4.50754E-12
1.71347E-10 4.50027E-12
2.33223E-10 4.49170E-12
3.04617E-10 4.48185E-12
3.85531E-10 4.47073E-12
4.75965E-10 4.45836E-12
5.75917E-10 4.44474E-12
6.85389E-10 4.42992E-12
8.04380E-10 4.41389E-12
9.32891E-10 4.39669E-12
1.07092E-09 4.37834E-12
1.21847E-09 4.35886E-12
1.37554E-09 4.33828E-12
1.54213E-09 4.31662E-12
1.71823E-09 4.29392E-12
1.90386E-09 4.27021E-12
2.09900E-09 4.24550E-12
2.30367E-09 4.21985E-12
2.51785E-09 4.19327E-12
2.74156E-09 4.16581E-12
2.97478E-09 4.13749E-12
3.21752E-09 4.10834E-12
3.46978E-09 4.07841E-12
3.73156E-09 4.04774E-12
4.00286E-09 4.01635E-12
4.28368E-09 3.98427E-12
4.57402E-09 3.95156E-12
4.87388E-09 3.91823E-12
5.18326E-09 3.88433E-12
5.50215E-09 3.84999E-12
5.83057E-09 3.81549E-12
6.16850E-09 3.78042E-12
6.51596E-09 3.74480E-12
6.87293E-09 3.70867E-12
7.23942E-09 3.67205E-12
7.61544E-09 3.63498E-12
1.18991E-08 3.25491E-12
1.71347E-08 2.87584E-12
2.33223E-08 2.51927E-12
3.04617E-08 2.19673E-12
3.85531E-08 1.91357E-12
4.75965E-08 1.66998E-12
5.75917E-08 1.46315E-12
6.85389E-08 1.28939E-12
8.04380E-08 1.14261E-12
9.32891E-08 1.01831E-12
1.07092E-07 9.12523E-13
1.21847E-07 8.21884E-13
1.37554E-07 7.43632E-13
1.54213E-07 6.75443E-13
1.71823E-07 6.15554E-13
1.90386E-07 5.62588E-13
2.09900E-07 5.15451E-13
2.30367E-07 4.73252E-13
2.51785E-07 4.35197E-13
2.74156E-07 4.00842E-13
2.97478E-07 3.69732E-13
3.21752E-07 3.41484E-13
3.46978E-07 3.15781E-13
3.73156E-07 2.92294E-13
4.00286E-07 2.70833E-13
4.28368E-07 2.51225E-13
4.57402E-07 2.33290E-13
4.87388E-07 2.16869E-13
5.18325E-07 2.01812E-13
5.50215E-07 1.87793E-13
5.83057E-07 1.74291E-13
6.16850E-07 1.62175E-13
6.51596E-07 1.51274E-13
6.87293E-07 1.41440E-13
7.23942E-07 1.32550E-13
7.61543E-07 1.24492E-13
1.18991E-06 6.92630E-14
1.71347E-06 4.15667E-14
2.33223E-06 2.63531E-14
3.04617E-06 1.74255E-14
3.85531E-06 1.19153E-14
4.75964E-06 8.39308E-15
5.75916E-06 6.07705E-15
6.85388E-06 4.51133E-15
8.04378E-06 3.42958E-15
9.32888E-06 2.66209E-15
1.07092E-05 2.10374E-15
1.21846E-05 1.68807E-15
1.37553E-05 1.37221E-15
1.54212E-05 1.12661E-15
1.71822E-05 9.33986E-16
1.90385E-05 7.80640E-16
2.09899E-05 6.57913E-16
2.30365E-05 5.58028E-16
2.51783E-05 4.75842E-16
2.74153E-05 4.07897E-16
2.97475E-05 3.51414E-16
3.21749E-05 3.04241E-16
3.46974E-05 2.64664E-16
3.73152E-05 2.31276E-16
4.00281E-05 2.02978E-16
4.28362E-05 1.78870E-16
4.57395E-05 1.58223E-16
4.87380E-05 1.40455E-16
5.18317E-05 1.25098E-16
5.50205E-05 1.11764E-16
5.83045E-05 1.00133E-16
6.16838E-05 9.00206E-17
6.51582E-05 8.11940E-17
6.87277E-05 7.33861E-17
7.23925E-05 6.65064E-17
7.61524E-05 6.04381E-17
9.21439E-05 4.20997E-17
1.09658E-04 3.02234E-17
1.28695E-04 2.22629E-17
1.49255E-04 1.67591E-17
1.71338E-04 1.28552E-17
1.94942E-04 1.00226E-17
2.20070E-04 7.92608E-18
2.46720E-04 6.34837E-18
2.74892E-04 5.14313E-18
3.04586E-04 4.21001E-18
3.35803E-04 3.47851E-18
3.68542E-04 2.89869E-18
4.02802E-04 2.43428E-18
4.38585E-04 2.05901E-18
4.75889E-04 1.75317E-18
5.14715E-04 1.50193E-18
5.55063E-04 1.29403E-18
5.96931E-04 1.12079E-18
6.40321E-04 9.75530E-19
6.85233E-04 8.53022E-19
7.31665E-04 7.49123E-19
7.79618E-04 6.60550E-19
8.29092E-04 5.84667E-19
8.80086E-04 5.19352E-19
9.32601E-04 4.62896E-19
9.86636E-04 4.13896E-19
1.04219E-03 3.71202E-19
1.09927E-03 3.33866E-19
1.15786E-03 3.01099E-19
1.21797E-03 2.72248E-19
1.27961E-03 2.46765E-19
1.34276E-03 2.24191E-19
1.40743E-03 2.04135E-19
1.47362E-03 1.86268E-19
1.54133E-03 1.70309E-19
1.61056E-03 1.56019E-19
1.68131E-03 1.43194E-19
1.75357E-03 1.31657E-19
1.82735E-03 1.21256E-19
1.90265E-03 1.11860E-19
1.97947E-03 1.03353E-19
2.05780E-03 9.56379E-20
2.13765E-03 8.86274E-20
2.21902E-03 8.22457E-20
2.30190E-03 7.64264E-20
2.38630E-03 7.11109E-20
2.47222E-03 6.62481E-20
2.55965E-03 6.17927E-20
2.64859E-03 5.77042E-20
2.73905E-03 5.39474E-20
2.83103E-03 5.04898E-20
2.92452E-03 4.73040E-20
3.01952E-03 4.43645E-20
3.11604E-03 4.16491E-20
3.21407E-03 3.91374E-20
3.31362E-03 3.68113E-20
3.41468E-03 3.46549E-20
3.51725E-03 3.26533E-20
3.62133E-03 3.07936E-20
3.72692E-03 2.90639E-20
3.83403E-03 2.74533E-20
3.94265E-03 2.59523E-20
4.05278E-03 2.45520E-20
4.16442E-03 2.32444E-20
4.27757E-03 2.20223E-20
4.39223E-03 2.08792E-20
4.50840E-03 1.98088E-20
4.62608E-03 1.88058E-20
4.74527E-03 1.78652E-20
4.86597E-03 1.69824E-20
4.98817E-03 1.61532E-20
5.11188E-03 1.53737E-20
5.23711E-03 1.46404E-20
5.36383E-03 1.39501E-20
5.49207E-03 1.32997E-20
5.62181E-03 1.26866E-20
5.75306E-03 1.21083E-20
5.88581E-03 1.15623E-20
6.02007E-03 1.10467E-20
6.15583E-03 1.05592E-20
6.29310E-03 1.00983E-20
6.43187E-03 9.66199E-21
6.57214E-03 9.24895E-21
6.71392E-03 8.85755E-21
6.85720E-03 8.48658E-21
7.00198E-03 8.13465E-21
7.14827E-03 7.80072E-21
7.29605E-03 7.48360E-21
7.44534E-03 7.18237E-21
7.59612E-03 6.89603E-21
7.97965E-03 6.23985E-21
8.37255E-03 5.65944E-21
8.77480E-03 5.14458E-21
9.18641E-03 4.68661E-21
9.60736E-03 4.27816E-21
1.00376E-02 3.91297E-21
1.04773E-02 3.58569E-21
1.09262E-02 3.29169E-21
1.13844E-02 3.02702E-21
1.18520E-02 2.78824E-21
1.23288E-02 2.57239E-21
1.28150E-02 2.37688E-21
1.33104E-02 2.19947E-21
1.38150E-02 2.03819E-21
1.43290E-02 1.89131E-21
1.48521E-02 1.75733E-21
1.53845E-02 1.63491E-21
1.59262E-02 1.52289E-21
1.64770E-02 1.42023E-21
1.70371E-02 1.32601E-21
1.76063E-02 1.23941E-21
1.81848E-02 1.15971E-21
1.87724E-02 1.08626E-21
1.93692E-02 1.01848E-21
1.99751E-02 9.55867E-22
2.05901E-02 8.97949E-22
2.12143E-02 8.44314E-22
2.18476E-02 7.94590E-22
2.24900E-02 7.48440E-22
2.31415E-02 7.05562E-22
2.38021E-02 6.65683E-22
2.44717E-02 6.28556E-22
2.51504E-02 5.93958E-22
2.58382E-02 5.61684E-22
2.65349E-02 5.31552E-22
2.72407E-02 5.03395E-22
2.79555E-02 4.77058E-22
2.86793E-02 4.52405E-22
2.94120E-02 4.29308E-22
3.01537E-02 4.07651E-22
3.09043E-02 3.87329E-22
3.16639E-02 3.68244E-22
3.24324E-02 3.50308E-22
3.32098E-02 3.33440E-22
3.39961E-02 3.17563E-22
3.47912E-02 3.02610E-22
3.55952E-02 2.88517E-22
3.64081E-02 2.75226E-22
3.72297E-02 2.62682E-22
3.80602E-02 2.50838E-22
3.88995E-02 2.39646E-22
3.97476E-02 2.29063E-22
4.06044E-02 2.19052E-22
4.14700E-02 2.09575E-22
4.23443E-02 2.00600E-22
4.32273E-02 1.92093E-22
4.41190E-02 1.84028E-22
4.50194E-02 1.76376E-22
4.59284E-02 1.69112E-22
4.68461E-02 1.62214E-22
4.87074E-02 1.49429E-22
5.06030E-02 1.37864E-22
5.25328E-02 1.27382E-22
5.44967E-02 1.17866E-22
5.64946E-02 1.09210E-22
5.85262E-02 1.01323E-22
6.05914E-02 9.41267E-23
6.26901E-02 8.75492E-23
6.48222E-02 8.15283E-23
6.69873E-02 7.60088E-23
6.91854E-02 7.09417E-23
7.14163E-02 6.62837E-23
7.36799E-02 6.19961E-23
7.59760E-02 5.80444E-23
7.83043E-02 5.43977E-23
8.06647E-02 5.10284E-23
8.30571E-02 4.79117E-23
8.54812E-02 4.50254E-23
8.79369E-02 4.23497E-23
9.04240E-02 3.98665E-23
9.29422E-02 3.75595E-23
9.54915E-02 3.54140E-23
9.80716E-02 3.34168E-23
1.00682E-01 3.15558E-23
1.03323E-01 2.98203E-23
1.05995E-01 2.82002E-23
1.08696E-01 2.66866E-23
1.11427E-01 2.52711E-23
1.14188E-01 2.39464E-23
1.16978E-01 2.27057E-23
1.19797E-01 2.15427E-23
1.22645E-01 2.04516E-23
1.25522E-01 1.94273E-23
1.28428E-01 1.84649E-23
1.31361E-01 1.75601E-23
1.34323E-01 1.67088E-23
1.37313E-01 1.59073E-23
1.40330E-01 1.51523E-23
1.43375E-01 1.44404E-23
1.46447E-01 1.37689E-23
1.49545E-01 1.31350E-23
1.52671E-01 1.25363E-23
1.55823E-01 1.19704E-23
1.59001E-01 1.14354E-23
1.62205E-01 1.09291E-23
1.65435E-01 1.04498E-23
1.68690E-01 9.99581E-24
1.71970E-01 9.56554E-24
1.75276E-01 9.15756E-24
1.78606E-01 8.77048E-24
1.81961E-01 8.40306E-24
1.85340E-01 8.05412E-24
1.88743E-01 7.72259E-24
1.92169E-01 7.40744E-24
1.95619E-01 7.10772E-24
1.99092E-01 6.82255E-24
2.02589E-01 6.55108E-24
2.06107E-01 6.29255E-24
2.09649E-01 6.04624E-24
2.13212E-01 5.81149E-24
2.16797E-01 5.58764E-24
2.20404E-01 5.37410E-24
2.24032E-01 5.17030E-24
2.27680E-01 4.97574E-24
2.31350E-01 4.78993E-24
2.35040E-01 4.61241E-24
2.38751E-01 4.44274E-24
2.42481E-01 4.28049E-24
2.46231E-01 4.12530E-24
2.50000E-01 3.97683E-24
2.53788E-01 3.83472E-24
2.57595E-01 3.69864E-24
2.61421E-01 3.56830E-24
2.65264E-01 3.44342E-24
2.69126E-01 3.32373E-24
2.73005E-01 3.20897E-24
2.76901E-01 3.09892E-24
2.80814E-01 2.99333E-24
2.84744E-01 2.89201E-24
2.88691E-01 2.79474E-24
2.92653E-01 2.70135E-24
2.96632E-01 2.61164E-24
3.00625E-01 2.52545E-24
3.04634E-01 2.44261E-24
3.08658E-01 2.36298E-24
3.12697E-01 2.28640E-24
3.16749E-01 2.21275E-24
3.20816E-01 2.14189E-24
3.24896E-01 2.07369E-24
3.28990E-01 2.00805E-24
3.33097E-01 1.94484E-24
3.37216E-01 1.88396E-24
3.41348E-01 1.82532E-24
3.45492E-01 1.76881E-24
3.49647E-01 1.71435E-24
3.53814E-01 1.66184E-24
3.57992E-01 1.61121E-24
3.62181E-01 1.56238E-24
3.66381E-01 1.51528E-24
3.70590E-01 1.46982E-24
3.74810E-01 1.42595E-24
3.79039E-01 1.38360E-24
3.83277E-01 1.34271E-24
3.87524E-01 1.30322E-24
3.91780E-01 1.26507E-24
3.96044E-01 1.22821E-24
4.00316E-01 1.19259E-24
4.04596E-01 1.15817E-24
4.08882E-01 1.12489E-24
4.13176E-01 1.09270E-24
4.17476E-01 1.06158E-24
4.21783E-01 1.03147E-24
4.26095E-01 1.00235E-24
4.30413E-01 9.74162E-25
4.34737E-01 9.46882E-25
4.39065E-01 9.20475E-25
4.43398E-01 8.94907E-25
4.47736E-01 8.70148E-25
4.52077E-01 8.46168E-25
4.56422E-01 8.22938E-25
4.60770E-01 8.00431E-25
4.65122E-01 7.78621E-25
4.69476E-01 7.57484E-25
4.73832E-01 7.36994E-25
4.78190E-01 7.17128E-25
4.82550E-01 6.97865E-25
4.86912E-01 6.79184E-25
4.91274E-01 6.61063E-25
4.95637E-01 6.43484E-25
5.00000E-01 6.26428E-25
5.04363E-01 6.09876E-25
5.08726E-01 5.93812E-25
5.13088E-01 5.78219E-25
5.17450E-01 5.63080E-25
5.21810E-01 5.48380E-25
5.26168E-01 5.34105E-25
5.30524E-01 5.20241E-25
5.34878E-01 5.06773E-25
5.39230E-01 4.93689E-25
5.43578E-01 4.80976E-25
5.47923E-01 4.68621E-25
5.52264E-01 4.56612E-25
5.56602E-01 4.44940E-25
5.60935E-01 4.33593E-25
5.65263E-01 4.22560E-25
5.69587E-01 4.11832E-25
5.73905E-01 4.01399E-25
5.78217E-01 3.91251E-25
5.82524E-01 3.81380E-25
5.86824E-01 3.71777E-25
5.91118E-01 3.62433E-25
5.95404E-01 3.53340E-25
5.99684E-01 3.44491E-25
6.03956E-01 3.35879E-25
6.08220E-01 3.27495E-25
6.12476E-01 3.19333E-25
6.16723E-01 3.11386E-25
6.20961E-01 3.03648E-25
6.25190E-01 2.96112E-25
6.29410E-01 2.88773E-25
6.33619E-01 2.81624E-25
6.37819E-01 2.74660E-25
6.42008E-01 2.67876E-25
6.46186E-01 2.61265E-25
6.50353E-01 2.54824E-25
6.54508E-01 2.48546E-25
6.58652E-01 2.42428E-25
6.62784E-01 2.36465E-25
6.66903E-01 2.30652E-25
6.71010E-01 2.24985E-25
6.75104E-01 2.19459E-25
6.79184E-01 2.14072E-25
6.83251E-01 2.08818E-25
6.87303E-01 2.03695E-25
6.91342E-01 1.98698E-25
6.95366E-01 1.93824E-25
6.99375E-01 1.89069E-25
7.03368E-01 1.84431E-25
7.07347E-01 1.79905E-25
7.11309E-01 1.75490E-25
7.15256E-01 1.71182E-25
7.19186E-01 1.66977E-25
7.23099E-01 1.62874E-25
7.26995E-01 1.58869E-25
7.30874E-01 1.54961E-25
7.34736E-01 1.51145E-25
7.38579E-01 1.47420E-25
7.42405E-01 1.43784E-25
7.46212E-01 1.40234E-25
7.50000E-01 1.36768E-25
7.53769E-01 1.33383E-25
7.57519E-01 1.30078E-25
7.61249E-01 1.26850E-25
7.64960E-01 1.23698E-25
7.68650E-01 1.20619E-25
7.72320E-01 1.17612E-25
7.75968E-01 1.14674E-25
7.79596E-01 1.11805E-25
7.83203E-01 1.09002E-25
7.86788E-01 1.06264E-25
7.90351E-01 1.03589E-25
7.93893E-01 1.00975E-25
7.97411E-01 9.84210E-26
8.00908E-01 9.59257E-26
8.04381E-01 9.34874E-26
8.07831E-01 9.11048E-26
8.11257E-01 8.87765E-26
8.14660E-01 8.65011E-26
8.18039E-01 8.42775E-26
8.21394E-01 8.21043E-26
8.24724E-01 7.99804E-26
8.28030E-01 7.79046E-26
8.31310E-01 7.58758E-26
8.34565E-01 7.38928E-26
8.37795E-01 7.19545E-26
8.40999E-01 7.00601E-26
8.44177E-01 6.82083E-26
8.47329E-01 6.63983E-26
8.50455E-01 6.46290E-26
8.53553E-01 6.28996E-26
8.56625E-01 6.12091E-26
8.59670E-01 5.95568E-26
8.62687E-01 5.79416E-26
8.65677E-01 5.63628E-26
8.68639E-01 5.48196E-26
8.71572E-01 5.33111E-26
8.74478E-01 5.18367E-26
8.77355E-01 5.03956E-26
8.80203E-01 4.89870E-26
8.83022E-01 4.76103E-26
8.85812E-01 4.62648E-26
8.88573E-01 4.49498E-26
8.91304E-01 4.36646E-26
8.94005E-01 4.24087E-26
8.96677E-01 4.11814E-26
8.99318E-01 3.99822E-26
9.01928E-01 3.88104E-26
9.04508E-01 3.76655E-26
9.07058E-01 3.65469E-26
9.09576E-01 3.54542E-26
9.12063E-01 3.43868E-26
9.14519E-01 3.33441E-26
9.16943E-01 3.23258E-26
9.19335E-01 3.13313E-26
9.21696E-01 3.03602E-26
9.24024E-01 2.94121E-26
9.26320E-01 2.84864E-26
9.28584E-01 2.75827E-26
9.30815E-01 2.67008E-26
9.33013E-01 2.58401E-26
9.35178E-01 2.50002E-26
9.37310E-01 2.41808E-26
9.39409E-01 2.33816E-26
9.41474E-01 2.26021E-26
9.43505E-01 2.18420E-26
9.45503E-01 2.11009E-26
9.47467E-01 2.03787E-26
9.49397E-01 1.96748E-26
9.51293E-01 1.89891E-26
9.53154E-01 1.83212E-26
9.54981E-01 1.76708E-26
9.56773E-01 1.70376E-26
9.58530E-01 1.64214E-26
9.60252E-01 1.58219E-26
9.61940E-01 1.52389E-26
9.63592E-01 1.46720E-26
9.65209E-01 1.41211E-26
9.66790E-01 1.35859E-26
9.68336E-01 1.30662E-26
9.69846E-01 1.25617E-26
9.71321E-01 1.20723E-26
9.72759E-01 1.15978E-26
9.74162E-01 1.11378E-26
9.75528E-01 1.06924E-26
9.76858E-01 1.02612E-26
9.78152E-01 9.84407E-27
9.79410E-01 9.44087E-27
9.80631E-01 9.05141E-27
9.81815E-01 8.67554E-27
9.82963E-01 8.31309E-27
9.84074E-01 7.96391E-27
9.85148E-01 7.62787E-27
9.86185E-01 7.30482E-27
9.87185E-01 6.99463E-27
9.88148E-01 6.69718E-27
9.89074E-01 6.41234E-27
9.89962E-01 6.14000E-27
9.90814E-01 5.88004E-27
9.91627E-01 5.63236E-27
9.92404E-01 5.39685E-27
9.93143E-01 5.17344E-27
9.93844E-01 4.96201E-27
9.94508E-01 4.76249E-27
9.95134E-01 4.57480E-27
9.95722E-01 4.39885E-27
9.96273E-01 4.23459E-27
9.96786E-01 4.08194E-27
9.97261E-01 3.94084E-27
9.97698E-01 3.81124E-27
9.98097E-01 3.69308E-27
9.98459E-01 3.58631E-27
9.98782E-01 3.49090E-27
9.99067E-01 3.40681E-27
9.99315E-01 3.33399E-27
9.99524E-01 3.27242E-27
9.99695E-01 3.22209E-27
9.99829E-01 3.18296E-27
9.99924E-01 3.15502E-27
9.99981E-01 3.13826E-27
1.00000E+00 3.13267E-27
