 #
 # Subroutine ELSEPA. Elastic scattering of electrons and positrons
 #                    by neutral atoms and positive ions
 #
 # Projectile: electron
 # Kinetic energy = 4.50000E+08 eV = 1.65372E+07 a.u.
 #
 # WARNING: High-energy factorization with free-atom DF screening.
 #          Absorption, polarization and exchange corrections are
 #          switched off.
 #          Phase shifts are calculated for the bare nucleus.
 #          Scattering amplitudes are not evaluated.
 #
 # Element: Al,  Z =  13,  atomic weight = 2.69815E+01 g/mol
 #
 # Nuclear model: Fermi distribution
 #                Average radius = 3.20927E-13 cm
 #                Skin thickness = 5.46000E-14 cm
 #
 # Number of electrons = 13
 #
 # Total elastic cross section = 7.71893E-19 cm**2 = 2.75648E-02 a0**2
 # 1st transport cross section = 1.80857E-27 cm**2 = 6.45851E-11 a0**2
 # 2nd transport cross section = 5.42145E-27 cm**2 = 1.93604E-10 a0**2
 #
 #
 # Differential cross section:                       MU=(1-COS(THETA))/2
 #
 #  THETA        MU          DCS          DCS        Sherman      error
 #  (deg)                 (cm**2/sr)   (a0**2/sr)    function
 #----------------------------------------------------------------------
0.00000E+00 2.69570E-09
7.61557E-13 2.49744E-09
1.18994E-12 2.39519E-09
1.71346E-12 2.27833E-09
2.33225E-12 2.15064E-09
3.04617E-12 2.01593E-09
3.85530E-12 1.87770E-09
4.75964E-12 1.73908E-09
5.75917E-12 1.60272E-09
6.85391E-12 1.47073E-09
8.04379E-12 1.34420E-09
9.32893E-12 1.22470E-09
1.07092E-11 1.11397E-09
1.21847E-11 1.01166E-09
1.37554E-11 9.16652E-10
1.54213E-11 8.30278E-10
1.71823E-11 7.52004E-10
1.90386E-11 6.80567E-10
2.09900E-11 6.16252E-10
2.30367E-11 5.58444E-10
2.51785E-11 5.06400E-10
2.74156E-11 4.59699E-10
2.97478E-11 4.17820E-10
3.21752E-11 3.80375E-10
3.46979E-11 3.46814E-10
3.73157E-11 3.16689E-10
4.00286E-11 2.89771E-10
4.28368E-11 2.65656E-10
4.57402E-11 2.43943E-10
4.87388E-11 2.24474E-10
5.18325E-11 2.07022E-10
5.50215E-11 1.91244E-10
5.83057E-11 1.77012E-10
6.16850E-11 1.64231E-10
6.51595E-11 1.52622E-10
6.87293E-11 1.42079E-10
7.23943E-11 1.32575E-10
7.61544E-11 1.23902E-10
1.18991E-10 6.87574E-11
1.71347E-10 4.29620E-11
2.33223E-10 2.88078E-11
3.04617E-10 2.01489E-11
3.85531E-10 1.44762E-11
4.75965E-10 1.06016E-11
5.75917E-10 7.88515E-12
6.85389E-10 5.94506E-12
8.04380E-10 4.53027E-12
9.32891E-10 3.50602E-12
1.07092E-09 2.74111E-12
1.21847E-09 2.16686E-12
1.37554E-09 1.73235E-12
1.54213E-09 1.39947E-12
1.71823E-09 1.14160E-12
1.90386E-09 9.39447E-13
2.09900E-09 7.79866E-13
2.30367E-09 6.52723E-13
2.51785E-09 5.50481E-13
2.74156E-09 4.67553E-13
2.97478E-09 3.99707E-13
3.21752E-09 3.43830E-13
3.46978E-09 2.97472E-13
3.73156E-09 2.58749E-13
4.00286E-09 2.26192E-13
4.28368E-09 1.98645E-13
4.57402E-09 1.75216E-13
4.87388E-09 1.55182E-13
5.18326E-09 1.37964E-13
5.50215E-09 1.23094E-13
5.83057E-09 1.10191E-13
6.16850E-09 9.89534E-14
6.51596E-09 8.91264E-14
6.87293E-09 8.05010E-14
7.23942E-09 7.29007E-14
7.61544E-09 6.61812E-14
1.18991E-08 2.81638E-14
1.71347E-08 1.39370E-14
2.33223E-08 7.65092E-15
3.04617E-08 4.53464E-15
3.85531E-08 2.85176E-15
4.75965E-08 1.88033E-15
5.75917E-08 1.28869E-15
6.85389E-08 9.12093E-16
8.04380E-08 6.63347E-16
9.32891E-08 4.93802E-16
1.07092E-07 3.75069E-16
1.21847E-07 2.89941E-16
1.37554E-07 2.27632E-16
1.54213E-07 1.81187E-16
1.71823E-07 1.45999E-16
1.90386E-07 1.18950E-16
2.09900E-07 9.78818E-17
2.30367E-07 8.12769E-17
2.51785E-07 6.80474E-17
2.74156E-07 5.74027E-17
2.97478E-07 4.87599E-17
3.21752E-07 4.16839E-17
3.46978E-07 3.58460E-17
3.73156E-07 3.09950E-17
4.00286E-07 2.69375E-17
4.28368E-07 2.35227E-17
4.57402E-07 2.06322E-17
4.87388E-07 1.81723E-17
5.18325E-07 1.60683E-17
5.50215E-07 1.42601E-17
5.83057E-07 1.26990E-17
6.16850E-07 1.13458E-17
6.51596E-07 1.01682E-17
6.87293E-07 9.13943E-18
7.23942E-07 8.23756E-18
7.61543E-07 7.44425E-18
1.18991E-06 3.04941E-18
1.71347E-06 1.47069E-18
2.33223E-06 7.93897E-19
3.04617E-06 4.65399E-19
3.85531E-06 2.90565E-19
4.75964E-06 1.90652E-19
5.75916E-06 1.30227E-19
6.85388E-06 9.19546E-20
8.04378E-06 6.67656E-20
9.32888E-06 4.96412E-20
1.07092E-05 3.76718E-20
1.21846E-05 2.91025E-20
1.37553E-05 2.28372E-20
1.54212E-05 1.81709E-20
1.71822E-05 1.46379E-20
1.90385E-05 1.19231E-20
2.09899E-05 9.81002E-21
2.30365E-05 8.14500E-21
2.51783E-05 6.81868E-21
2.74153E-05 5.75164E-21
2.97475E-05 4.88538E-21
3.21749E-05 4.17625E-21
3.46974E-05 3.59127E-21
3.73152E-05 3.10526E-21
4.00281E-05 2.69878E-21
4.28362E-05 2.35670E-21
4.57395E-05 2.06716E-21
4.87380E-05 1.82075E-21
5.18317E-05 1.60998E-21
5.50205E-05 1.42885E-21
5.83045E-05 1.27249E-21
6.16838E-05 1.13696E-21
6.51582E-05 1.01900E-21
6.87277E-05 9.15952E-22
7.23925E-05 8.25614E-22
7.61524E-05 7.42506E-22
9.21439E-05 5.06718E-22
1.09658E-04 3.57435E-22
1.28695E-04 2.59232E-22
1.49255E-04 1.92503E-22
1.71338E-04 1.45889E-22
1.94942E-04 1.12538E-22
2.20070E-04 8.81701E-23
2.46720E-04 7.00353E-23
2.74892E-04 5.63160E-23
3.04586E-04 4.57844E-23
3.35803E-04 3.75924E-23
3.68542E-04 3.11441E-23
4.02802E-04 2.60133E-23
4.38585E-04 2.18903E-23
4.75889E-04 1.85471E-23
5.14715E-04 1.58137E-23
5.55063E-04 1.35616E-23
5.96931E-04 1.16929E-23
6.40321E-04 1.01322E-23
6.85233E-04 8.82062E-24
7.31665E-04 7.71216E-24
7.79618E-04 6.77035E-24
8.29092E-04 5.96614E-24
8.80086E-04 5.27620E-24
9.32601E-04 4.68169E-24
9.86636E-04 4.16728E-24
1.04219E-03 3.72042E-24
1.09927E-03 3.33082E-24
1.15786E-03 2.98995E-24
1.21797E-03 2.69072E-24
1.27961E-03 2.42722E-24
1.34276E-03 2.19448E-24
1.40743E-03 1.98834E-24
1.47362E-03 1.80525E-24
1.54133E-03 1.64222E-24
1.61056E-03 1.49670E-24
1.68131E-03 1.36649E-24
1.75357E-03 1.24973E-24
1.82735E-03 1.14480E-24
1.90265E-03 1.05031E-24
1.97947E-03 9.65043E-25
2.05780E-03 8.87963E-25
2.13765E-03 8.18154E-25
2.21902E-03 7.54819E-25
2.30190E-03 6.97263E-25
2.38630E-03 6.44872E-25
2.47222E-03 5.97110E-25
2.55965E-03 5.53501E-25
2.64859E-03 5.13628E-25
2.73905E-03 4.77120E-25
2.83103E-03 4.43648E-25
2.92452E-03 4.12920E-25
3.01952E-03 3.84675E-25
3.11604E-03 3.58681E-25
3.21407E-03 3.34732E-25
3.31362E-03 3.12641E-25
3.41468E-03 2.92242E-25
3.51725E-03 2.73386E-25
3.62133E-03 2.55937E-25
3.72692E-03 2.39775E-25
3.83403E-03 2.24791E-25
3.94265E-03 2.10886E-25
4.05278E-03 1.97971E-25
4.16442E-03 1.85964E-25
4.27757E-03 1.74792E-25
4.39223E-03 1.64389E-25
4.50840E-03 1.54694E-25
4.62608E-03 1.45652E-25
4.74527E-03 1.37212E-25
4.86597E-03 1.29329E-25
4.98817E-03 1.21960E-25
5.11188E-03 1.15068E-25
5.23711E-03 1.08617E-25
5.36383E-03 1.02575E-25
5.49207E-03 9.69128E-26
5.62181E-03 9.16027E-26
5.75306E-03 8.66201E-26
5.88581E-03 8.19420E-26
6.02007E-03 7.75473E-26
6.15583E-03 7.34166E-26
6.29310E-03 6.95319E-26
6.43187E-03 6.58767E-26
6.57214E-03 6.24356E-26
6.71392E-03 5.91945E-26
6.85720E-03 5.61403E-26
7.00198E-03 5.32608E-26
7.14827E-03 5.05449E-26
7.29605E-03 4.79820E-26
7.44534E-03 4.55626E-26
7.59612E-03 4.32775E-26
7.97965E-03 3.80995E-26
8.37255E-03 3.35952E-26
8.77480E-03 2.96679E-26
9.18641E-03 2.62363E-26
9.60736E-03 2.32316E-26
1.00376E-02 2.05956E-26
1.04773E-02 1.82790E-26
1.09262E-02 1.62396E-26
1.13844E-02 1.44413E-26
1.18520E-02 1.28533E-26
1.23288E-02 1.14491E-26
1.28150E-02 1.02058E-26
1.33104E-02 9.10348E-27
1.38150E-02 8.12518E-27
1.43290E-02 7.25596E-27
1.48521E-02 6.48291E-27
1.53845E-02 5.79475E-27
1.59262E-02 5.18162E-27
1.64770E-02 4.63492E-27
1.70371E-02 4.14708E-27
1.76063E-02 3.71148E-27
1.81848E-02 3.32227E-27
1.87724E-02 2.97433E-27
1.93692E-02 2.66312E-27
1.99751E-02 2.38462E-27
2.05901E-02 2.13530E-27
2.12143E-02 1.91202E-27
2.18476E-02 1.71199E-27
2.24900E-02 1.53274E-27
2.31415E-02 1.37208E-27
2.38021E-02 1.22805E-27
2.44717E-02 1.09891E-27
2.51504E-02 9.83102E-28
2.58382E-02 8.79252E-28
2.65349E-02 7.86118E-28
2.72407E-02 7.02595E-28
2.79555E-02 6.27696E-28
2.86793E-02 5.60536E-28
2.94120E-02 5.00323E-28
3.01537E-02 4.46347E-28
3.09043E-02 3.97972E-28
3.16639E-02 3.54627E-28
3.24324E-02 3.15800E-28
3.32098E-02 2.81031E-28
3.39961E-02 2.49907E-28
3.47912E-02 2.22058E-28
3.55952E-02 1.97149E-28
3.64081E-02 1.74881E-28
3.72297E-02 1.54984E-28
3.80602E-02 1.37216E-28
3.88995E-02 1.21359E-28
3.97476E-02 1.07216E-28
4.06044E-02 9.46122E-29
4.14700E-02 8.33874E-29
4.23443E-02 7.33991E-29
4.32273E-02 6.45189E-29
4.41190E-02 5.66311E-29
4.50194E-02 4.96316E-29
4.59284E-02 4.34271E-29
4.68461E-02 3.79332E-29
4.87074E-02 2.87830E-29
5.06030E-02 2.16633E-29
5.25328E-02 1.61565E-29
5.44967E-02 1.19261E-29
5.64946E-02 8.70162E-30
5.85262E-02 6.26607E-30
6.05914E-02 4.44583E-30
6.26901E-02 3.10244E-30
6.48222E-02 2.12587E-30
6.69873E-02 1.42906E-30
6.91854E-02 9.43428E-31
7.14163E-02 6.15289E-31
7.36799E-02 4.02855E-31
7.59760E-02 2.73856E-31
7.83043E-02 2.03590E-31
8.06647E-02 1.73345E-31
8.30571E-02 1.69132E-31
8.54812E-02 1.80652E-31
8.79369E-02 2.00476E-31
9.04240E-02 2.23388E-31
9.29422E-02 2.45853E-31
9.54915E-02 2.65611E-31
9.80716E-02 2.81338E-31
1.00682E-01 2.92398E-31
1.03323E-01 2.98637E-31
1.05995E-01 3.00234E-31
1.08696E-01 2.97583E-31
1.11427E-01 2.91203E-31
1.14188E-01 2.81677E-31
1.16978E-01 2.69603E-31
1.19797E-01 2.55561E-31
1.22645E-01 2.40097E-31
1.25522E-01 2.23702E-31
1.28428E-01 2.06809E-31
1.31361E-01 1.89791E-31
1.34323E-01 1.72959E-31
1.37313E-01 1.56566E-31
1.40330E-01 1.40813E-31
1.43375E-01 1.25850E-31
1.46447E-01 1.11786E-31
1.49545E-01 9.86928E-32
1.52671E-01 8.66086E-32
1.55823E-01 7.55467E-32
1.59001E-01 6.54983E-32
1.62205E-01 5.64375E-32
1.65435E-01 4.83249E-32
1.68690E-01 4.11114E-32
1.71970E-01 3.47407E-32
1.75276E-01 2.91524E-32
1.78606E-01 2.42835E-32
1.81961E-01 2.00705E-32
1.85340E-01 1.64508E-32
1.88743E-01 1.33635E-32
1.92169E-01 1.07503E-32
1.95619E-01 8.55629E-33
1.99092E-01 6.73019E-33
2.02589E-01 5.22458E-33
2.06107E-01 3.99608E-33
2.09649E-01 3.00531E-33
2.13212E-01 2.21685E-33
2.16797E-01 1.59907E-33
2.20404E-01 1.12395E-33
2.24032E-01 7.66894E-34
2.27680E-01 5.06419E-34
2.31350E-01 3.23961E-34
2.35040E-01 2.03588E-34
2.38751E-01 1.31750E-34
2.42481E-01 9.70329E-35
2.46231E-01 8.99110E-35
2.50000E-01 1.02529E-34
2.53788E-01 1.28487E-34
2.57595E-01 1.62650E-34
2.61421E-01 2.00964E-34
2.65264E-01 2.40301E-34
2.69126E-01 2.78311E-34
2.73005E-01 3.13291E-34
2.76901E-01 3.44079E-34
2.80814E-01 3.69944E-34
2.84744E-01 3.90508E-34
2.88691E-01 4.05662E-34
2.92653E-01 4.15515E-34
2.96632E-01 4.20327E-34
3.00625E-01 4.20474E-34
3.04634E-01 4.16405E-34
3.08658E-01 4.08612E-34
3.12697E-01 3.97608E-34
3.16749E-01 3.83910E-34
3.20816E-01 3.68015E-34
3.24896E-01 3.50400E-34
3.28990E-01 3.31508E-34
3.33097E-01 3.11742E-34
3.37216E-01 2.91469E-34
3.41348E-01 2.71007E-34
3.45492E-01 2.50637E-34
3.49647E-01 2.30596E-34
3.53814E-01 2.11085E-34
3.57992E-01 1.92265E-34
3.62181E-01 1.74265E-34
3.66381E-01 1.57181E-34
3.70590E-01 1.41084E-34
3.74810E-01 1.26018E-34
3.79039E-01 1.12008E-34
3.83277E-01 9.90602E-35
3.87524E-01 8.71639E-35
3.91780E-01 7.62964E-35
3.96044E-01 6.64249E-35
4.00316E-01 5.75081E-35
4.04596E-01 4.94982E-35
4.08882E-01 4.23434E-35
4.13176E-01 3.59883E-35
4.17476E-01 3.03764E-35
4.21783E-01 2.54503E-35
4.26095E-01 2.11531E-35
4.30413E-01 1.74289E-35
4.34737E-01 1.42235E-35
4.39065E-01 1.14853E-35
4.43398E-01 9.16511E-36
4.47736E-01 7.21654E-36
4.52077E-01 5.59640E-36
4.56422E-01 4.26440E-36
4.60770E-01 3.18379E-36
4.65122E-01 2.32064E-36
4.69476E-01 1.64430E-36
4.73832E-01 1.12705E-36
4.78190E-01 7.43988E-37
4.82550E-01 4.72942E-37
4.86912E-01 2.94278E-37
4.91274E-01 1.90720E-37
4.95637E-01 1.47194E-37
5.00000E-01 1.50601E-37
5.04363E-01 1.89732E-37
5.08726E-01 2.54974E-37
5.13088E-01 3.38297E-37
5.17450E-01 4.32865E-37
5.21810E-01 5.33225E-37
5.26168E-01 6.34830E-37
5.30524E-01 7.34075E-37
5.34878E-01 8.28228E-37
5.39230E-01 9.15146E-37
5.43578E-01 9.93332E-37
5.47923E-01 1.06179E-36
5.52264E-01 1.11996E-36
5.56602E-01 1.16757E-36
5.60935E-01 1.20468E-36
5.65263E-01 1.23150E-36
5.69587E-01 1.24855E-36
5.73905E-01 1.25631E-36
5.78217E-01 1.25551E-36
5.82524E-01 1.24686E-36
5.86824E-01 1.23117E-36
5.91118E-01 1.20917E-36
5.95404E-01 1.18165E-36
5.99684E-01 1.14942E-36
6.03956E-01 1.11316E-36
6.08220E-01 1.07362E-36
6.12476E-01 1.03144E-36
6.16723E-01 9.87273E-37
6.20961E-01 9.41629E-37
6.25190E-01 8.95075E-37
6.29410E-01 8.48079E-37
6.33619E-01 8.01026E-37
6.37819E-01 7.54331E-37
6.42008E-01 7.08248E-37
6.46186E-01 6.63109E-37
6.50353E-01 6.19121E-37
6.54508E-01 5.76504E-37
6.58652E-01 5.35402E-37
6.62784E-01 4.95923E-37
6.66903E-01 4.58194E-37
6.71010E-01 4.22260E-37
6.75104E-01 3.88176E-37
6.79184E-01 3.55940E-37
6.83251E-01 3.25595E-37
6.87303E-01 2.97091E-37
6.91342E-01 2.70405E-37
6.95366E-01 2.45502E-37
6.99375E-01 2.22332E-37
7.03368E-01 2.00842E-37
7.07347E-01 1.80951E-37
7.11309E-01 1.62599E-37
7.15256E-01 1.45712E-37
7.19186E-01 1.30227E-37
7.23099E-01 1.16044E-37
7.26995E-01 1.03108E-37
7.30874E-01 9.13249E-38
7.34736E-01 8.06305E-38
7.38579E-01 7.09584E-38
7.42405E-01 6.22212E-38
7.46212E-01 5.43557E-38
7.50000E-01 4.73012E-38
7.53769E-01 4.09966E-38
7.57519E-01 3.53717E-38
7.61249E-01 3.03758E-38
7.64960E-01 2.59522E-38
7.68650E-01 2.20529E-38
7.72320E-01 1.86280E-38
7.75968E-01 1.56319E-38
7.79596E-01 1.30240E-38
7.83203E-01 1.07631E-38
7.86788E-01 8.81836E-39
7.90351E-01 7.15058E-39
7.93893E-01 5.73277E-39
7.97411E-01 4.53702E-39
8.00908E-01 3.53536E-39
8.04381E-01 2.70670E-39
8.07831E-01 2.02746E-39
8.11257E-01 1.48114E-39
8.14660E-01 1.04840E-39
8.18039E-01 7.15137E-40
8.21394E-01 4.66413E-40
8.24724E-01 2.90028E-40
8.28030E-01 1.00000E-45
8.31310E-01 1.00000E-45
8.34565E-01 1.00000E-45
8.37795E-01 1.00000E-45
8.40999E-01 1.00000E-45
8.44177E-01 1.00000E-45
8.47329E-01 1.00000E-45
8.50455E-01 1.00000E-45
8.53553E-01 1.00000E-45
8.56625E-01 1.00000E-45
8.59670E-01 1.00000E-45
8.62687E-01 1.00000E-45
8.65677E-01 1.00000E-45
8.68639E-01 1.00000E-45
8.71572E-01 1.00000E-45
8.74478E-01 1.00000E-45
8.77355E-01 1.00000E-45
8.80203E-01 1.00000E-45
8.83022E-01 1.00000E-45
8.85812E-01 1.00000E-45
8.88573E-01 1.00000E-45
8.91304E-01 1.00000E-45
8.94005E-01 1.00000E-45
8.96677E-01 1.00000E-45
8.99318E-01 1.00000E-45
9.01928E-01 1.00000E-45
9.04508E-01 1.00000E-45
9.07058E-01 1.00000E-45
9.09576E-01 1.00000E-45
9.12063E-01 1.00000E-45
9.14519E-01 1.00000E-45
9.16943E-01 1.00000E-45
9.19335E-01 1.00000E-45
9.21696E-01 1.00000E-45
9.24024E-01 1.00000E-45
9.26320E-01 1.00000E-45
9.28584E-01 1.00000E-45
9.30815E-01 1.00000E-45
9.33013E-01 1.00000E-45
9.35178E-01 1.00000E-45
9.37310E-01 1.00000E-45
9.39409E-01 1.00000E-45
9.41474E-01 1.00000E-45
9.43505E-01 1.00000E-45
9.45503E-01 1.00000E-45
9.47467E-01 1.00000E-45
9.49397E-01 1.00000E-45
9.51293E-01 1.00000E-45
9.53154E-01 1.00000E-45
9.54981E-01 1.00000E-45
9.56773E-01 1.00000E-45
9.58530E-01 1.00000E-45
9.60252E-01 1.00000E-45
9.61940E-01 1.00000E-45
9.63592E-01 1.00000E-45
9.65209E-01 1.00000E-45
9.66790E-01 1.00000E-45
9.68336E-01 1.00000E-45
9.69846E-01 1.00000E-45
9.71321E-01 1.00000E-45
9.72759E-01 1.00000E-45
9.74162E-01 1.00000E-45
9.75528E-01 1.00000E-45
9.76858E-01 1.00000E-45
9.78152E-01 1.00000E-45
9.79410E-01 1.00000E-45
9.80631E-01 1.00000E-45
9.81815E-01 1.00000E-45
9.82963E-01 1.00000E-45
9.84074E-01 1.00000E-45
9.85148E-01 1.00000E-45
9.86185E-01 1.00000E-45
9.87185E-01 1.00000E-45
9.88148E-01 1.00000E-45
9.89074E-01 1.00000E-45
9.89962E-01 1.00000E-45
9.90814E-01 1.00000E-45
9.91627E-01 1.00000E-45
9.92404E-01 1.00000E-45
9.93143E-01 1.00000E-45
9.93844E-01 1.00000E-45
9.94508E-01 1.00000E-45
9.95134E-01 1.00000E-45
9.95722E-01 1.00000E-45
9.96273E-01 1.00000E-45
9.96786E-01 1.00000E-45
9.97261E-01 1.00000E-45
9.97698E-01 1.00000E-45
9.98097E-01 1.00000E-45
9.98459E-01 1.00000E-45
9.98782E-01 1.00000E-45
9.99067E-01 1.00000E-45
9.99315E-01 1.00000E-45
9.99524E-01 1.00000E-45
9.99695E-01 1.00000E-45
9.99829E-01 1.00000E-45
9.99924E-01 1.00000E-45
9.99981E-01 1.00000E-45
1.00000E+00 1.00000E-45
