 #
 # Subroutine ELSEPA. Elastic scattering of electrons and positrons
 #                    by neutral atoms and positive ions
 #
 # Projectile: electron
 # Kinetic energy = 3.50000E+08 eV = 1.28623E+07 a.u.
 #
 # WARNING: High-energy factorization with free-atom DF screening.
 #          Absorption, polarization and exchange corrections are
 #          switched off.
 #          Phase shifts are calculated for the bare nucleus.
 #          Scattering amplitudes are not evaluated.
 #
 # Element: Al,  Z =  13,  atomic weight = 2.69815E+01 g/mol
 #
 # Nuclear model: Fermi distribution
 #                Average radius = 3.20927E-13 cm
 #                Skin thickness = 5.46000E-14 cm
 #
 # Number of electrons = 13
 #
 # Total elastic cross section = 7.72511E-19 cm**2 = 2.75869E-02 a0**2
 # 1st transport cross section = 2.98700E-27 cm**2 = 1.06668E-10 a0**2
 # 2nd transport cross section = 8.94954E-27 cm**2 = 3.19594E-10 a0**2
 #
 #
 # Differential cross section:                       MU=(1-COS(THETA))/2
 #
 #  THETA        MU          DCS          DCS        Sherman      error
 #  (deg)                 (cm**2/sr)   (a0**2/sr)    function
 #----------------------------------------------------------------------
0.00000E+00 1.63179E-09
7.61557E-13 1.55754E-09
1.18994E-12 1.51794E-09
1.71346E-12 1.47152E-09
2.33225E-12 1.41927E-09
3.04617E-12 1.36229E-09
3.85530E-12 1.30167E-09
4.75964E-12 1.23847E-09
5.75917E-12 1.17373E-09
6.85391E-12 1.10835E-09
8.04379E-12 1.04319E-09
9.32893E-12 9.78944E-10
1.07092E-11 9.16250E-10
1.21847E-11 8.55562E-10
1.37554E-11 7.96844E-10
1.54213E-11 7.41032E-10
1.71823E-11 6.88437E-10
1.90386E-11 6.39093E-10
2.09900E-11 5.92314E-10
2.30367E-11 5.48514E-10
2.51785E-11 5.07862E-10
2.74156E-11 4.70217E-10
2.97478E-11 4.35162E-10
3.21752E-11 4.02695E-10
3.46979E-11 3.72785E-10
3.73157E-11 3.45259E-10
4.00286E-11 3.19896E-10
4.28368E-11 2.96555E-10
4.57402E-11 2.75109E-10
4.87388E-11 2.55406E-10
5.18325E-11 2.37344E-10
5.50215E-11 2.20777E-10
5.83057E-11 2.05548E-10
6.16850E-11 1.91545E-10
6.51595E-11 1.78720E-10
6.87293E-11 1.66969E-10
7.23943E-11 1.56144E-10
7.61544E-11 1.46165E-10
1.18991E-10 8.07953E-11
1.71347E-10 4.98007E-11
2.33223E-10 3.33569E-11
3.04617E-10 2.36566E-11
3.85531E-10 1.74233E-11
4.75965E-10 1.31576E-11
5.75917E-10 1.01159E-11
6.85389E-10 7.87625E-12
8.04380E-10 6.20052E-12
9.32891E-10 4.92370E-12
1.07092E-09 3.94422E-12
1.21847E-09 3.18314E-12
1.37554E-09 2.58325E-12
1.54213E-09 2.11984E-12
1.71823E-09 1.74763E-12
1.90386E-09 1.45219E-12
2.09900E-09 1.21529E-12
2.30367E-09 1.02231E-12
2.51785E-09 8.66109E-13
2.74156E-09 7.37805E-13
2.97478E-09 6.32099E-13
3.21752E-09 5.44647E-13
3.46978E-09 4.71496E-13
3.73156E-09 4.10286E-13
4.00286E-09 3.58679E-13
4.28368E-09 3.14924E-13
4.57402E-09 2.77698E-13
4.87388E-09 2.45821E-13
5.18326E-09 2.18430E-13
5.50215E-09 1.94789E-13
5.83057E-09 1.74279E-13
6.16850E-09 1.56435E-13
6.51596E-09 1.40839E-13
6.87293E-09 1.27160E-13
7.23942E-09 1.15127E-13
7.61544E-09 1.04493E-13
1.18991E-08 4.45571E-14
1.71347E-08 2.21895E-14
2.33223E-08 1.22681E-14
3.04617E-08 7.31739E-15
3.85531E-08 4.62555E-15
4.75965E-08 3.06216E-15
5.75917E-08 2.10513E-15
6.85389E-08 1.49346E-15
8.04380E-08 1.08812E-15
9.32891E-08 8.11123E-16
1.07092E-07 6.16751E-16
1.21847E-07 4.77165E-16
1.37554E-07 3.74868E-16
1.54213E-07 2.98536E-16
1.71823E-07 2.40660E-16
1.90386E-07 1.96138E-16
2.09900E-07 1.61444E-16
2.30367E-07 1.34086E-16
2.51785E-07 1.12282E-16
2.74156E-07 9.47321E-17
2.97478E-07 8.04793E-17
3.21752E-07 6.88077E-17
3.46978E-07 5.91765E-17
3.73156E-07 5.11723E-17
4.00286E-07 4.44764E-17
4.28368E-07 3.88404E-17
4.57402E-07 3.40693E-17
4.87388E-07 3.00087E-17
5.18325E-07 2.65352E-17
5.50215E-07 2.35500E-17
5.83057E-07 2.09730E-17
6.16850E-07 1.87389E-17
6.51596E-07 1.67946E-17
6.87293E-07 1.50959E-17
7.23942E-07 1.36067E-17
7.61543E-07 1.22966E-17
1.18991E-06 5.03750E-18
1.71347E-06 2.42954E-18
2.33223E-06 1.31150E-18
3.04617E-06 7.68830E-19
3.85531E-06 4.80009E-19
4.75964E-06 3.14955E-19
5.75916E-06 2.15133E-19
6.85388E-06 1.51908E-19
8.04378E-06 1.10296E-19
9.32888E-06 8.20067E-20
1.07092E-05 6.22335E-20
1.21846E-05 4.80770E-20
1.37553E-05 3.77268E-20
1.54212E-05 3.00181E-20
1.71822E-05 2.41817E-20
1.90385E-05 1.96968E-20
2.09899E-05 1.62061E-20
2.30365E-05 1.34555E-20
2.51783E-05 1.12644E-20
2.74153E-05 9.50165E-21
2.97475E-05 8.07060E-21
3.21749E-05 6.89913E-21
3.46974E-05 5.93275E-21
3.73152E-05 5.12987E-21
4.00281E-05 4.45836E-21
4.28362E-05 3.89326E-21
4.57395E-05 3.41493E-21
4.87380E-05 3.00786E-21
5.18317E-05 2.65968E-21
5.50205E-05 2.36045E-21
5.83045E-05 2.10215E-21
6.16838E-05 1.87824E-21
6.51582E-05 1.68337E-21
6.87277E-05 1.51315E-21
7.23925E-05 1.36391E-21
7.61524E-05 1.22904E-21
9.21439E-05 8.39113E-22
1.09658E-04 5.92188E-22
1.28695E-04 4.29713E-22
1.49255E-04 3.19282E-22
1.71338E-04 2.42118E-22
1.94942E-04 1.86890E-22
2.20070E-04 1.46526E-22
2.46720E-04 1.16476E-22
2.74892E-04 9.37335E-23
3.04586E-04 7.62682E-23
3.35803E-04 6.26770E-23
3.68542E-04 5.19742E-23
4.02802E-04 4.34539E-23
4.38585E-04 3.66038E-23
4.75889E-04 3.10464E-23
5.14715E-04 2.65001E-23
5.55063E-04 2.27523E-23
5.96931E-04 1.96407E-23
6.40321E-04 1.70402E-23
6.85233E-04 1.48535E-23
7.31665E-04 1.30042E-23
7.79618E-04 1.14318E-23
8.29092E-04 1.00882E-23
8.80086E-04 8.93466E-24
9.32601E-04 7.93989E-24
9.86636E-04 7.07846E-24
1.04219E-03 6.32956E-24
1.09927E-03 5.67605E-24
1.15786E-03 5.10378E-24
1.21797E-03 4.60097E-24
1.27961E-03 4.15779E-24
1.34276E-03 3.76598E-24
1.40743E-03 3.41860E-24
1.47362E-03 3.10976E-24
1.54133E-03 2.83447E-24
1.61056E-03 2.58848E-24
1.68131E-03 2.36814E-24
1.75357E-03 2.17034E-24
1.82735E-03 1.99236E-24
1.90265E-03 1.83191E-24
1.97947E-03 1.68695E-24
2.05780E-03 1.55575E-24
2.13765E-03 1.43677E-24
2.21902E-03 1.32869E-24
2.30190E-03 1.23033E-24
2.38630E-03 1.14069E-24
2.47222E-03 1.05885E-24
2.55965E-03 9.84023E-25
2.64859E-03 9.15508E-25
2.73905E-03 8.52682E-25
2.83103E-03 7.94993E-25
2.92452E-03 7.41953E-25
3.01952E-03 6.93122E-25
3.11604E-03 6.48113E-25
3.21407E-03 6.06575E-25
3.31362E-03 5.68196E-25
3.41468E-03 5.32697E-25
3.51725E-03 4.99826E-25
3.62133E-03 4.69355E-25
3.72692E-03 4.41081E-25
3.83403E-03 4.14819E-25
3.94265E-03 3.90403E-25
4.05278E-03 3.67681E-25
4.16442E-03 3.46518E-25
4.27757E-03 3.26787E-25
4.39223E-03 3.08377E-25
4.50840E-03 2.91186E-25
4.62608E-03 2.75118E-25
4.74527E-03 2.60090E-25
4.86597E-03 2.46023E-25
4.98817E-03 2.32845E-25
5.11188E-03 2.20492E-25
5.23711E-03 2.08903E-25
5.36383E-03 1.98025E-25
5.49207E-03 1.87805E-25
5.62181E-03 1.78200E-25
5.75306E-03 1.69164E-25
5.88581E-03 1.60661E-25
6.02007E-03 1.52652E-25
6.15583E-03 1.45106E-25
6.29310E-03 1.37991E-25
6.43187E-03 1.31279E-25
6.57214E-03 1.24943E-25
6.71392E-03 1.18960E-25
6.85720E-03 1.13306E-25
7.00198E-03 1.07961E-25
7.14827E-03 1.02906E-25
7.29605E-03 9.81218E-26
7.44534E-03 9.35923E-26
7.59612E-03 8.93019E-26
7.97965E-03 7.95295E-26
8.37255E-03 7.09631E-26
8.77480E-03 6.34346E-26
9.18641E-03 5.68019E-26
9.60736E-03 5.09448E-26
1.00376E-02 4.57611E-26
1.04773E-02 4.11640E-26
1.09262E-02 3.70788E-26
1.13844E-02 3.34418E-26
1.18520E-02 3.01980E-26
1.23288E-02 2.72999E-26
1.28150E-02 2.47066E-26
1.33104E-02 2.23823E-26
1.38150E-02 2.02962E-26
1.43290E-02 1.84212E-26
1.48521E-02 1.67337E-26
1.53845E-02 1.52131E-26
1.59262E-02 1.38411E-26
1.64770E-02 1.26020E-26
1.70371E-02 1.14815E-26
1.76063E-02 1.04673E-26
1.81848E-02 9.54836E-27
1.87724E-02 8.71500E-27
1.93692E-02 7.95856E-27
1.99751E-02 7.27135E-27
2.05901E-02 6.64653E-27
2.12143E-02 6.07802E-27
2.18476E-02 5.56035E-27
2.24900E-02 5.08865E-27
2.31415E-02 4.65857E-27
2.38021E-02 4.26619E-27
2.44717E-02 3.90799E-27
2.51504E-02 3.58082E-27
2.58382E-02 3.28183E-27
2.65349E-02 3.00845E-27
2.72407E-02 2.75839E-27
2.79555E-02 2.52955E-27
2.86793E-02 2.32004E-27
2.94120E-02 2.12816E-27
3.01537E-02 1.95236E-27
3.09043E-02 1.79124E-27
3.16639E-02 1.64353E-27
3.24324E-02 1.50808E-27
3.32098E-02 1.38383E-27
3.39961E-02 1.26983E-27
3.47912E-02 1.16521E-27
3.55952E-02 1.06919E-27
3.64081E-02 9.81034E-28
3.72297E-02 9.00092E-28
3.80602E-02 8.25763E-28
3.88995E-02 7.57499E-28
3.97476E-02 6.94798E-28
4.06044E-02 6.37203E-28
4.14700E-02 5.84294E-28
4.23443E-02 5.35690E-28
4.32273E-02 4.91037E-28
4.41190E-02 4.50016E-28
4.50194E-02 4.12331E-28
4.59284E-02 3.77712E-28
4.68461E-02 3.45912E-28
4.87074E-02 2.89874E-28
5.06030E-02 2.42613E-28
5.25328E-02 2.02775E-28
5.44967E-02 1.69216E-28
5.64946E-02 1.40969E-28
5.85262E-02 1.17217E-28
6.05914E-02 9.72650E-29
6.26901E-02 8.05272E-29
6.48222E-02 6.65056E-29
6.69873E-02 5.47780E-29
6.91854E-02 4.49866E-29
7.14163E-02 3.68279E-29
7.36799E-02 3.00443E-29
7.59760E-02 2.44177E-29
7.83043E-02 1.97631E-29
8.06647E-02 1.59238E-29
8.30571E-02 1.27673E-29
8.54812E-02 1.01814E-29
8.79369E-02 8.07130E-30
9.04240E-02 6.35706E-30
9.29422E-02 4.97124E-30
9.54915E-02 3.85709E-30
9.80716E-02 2.96693E-30
1.00682E-01 2.26076E-30
1.03323E-01 1.70511E-30
1.05995E-01 1.27202E-30
1.08696E-01 9.38194E-31
1.11427E-01 6.84301E-31
1.14188E-01 4.94327E-31
1.16978E-01 3.55064E-31
1.19797E-01 2.55660E-31
1.22645E-01 1.87241E-31
1.25522E-01 1.42584E-31
1.28428E-01 1.15849E-31
1.31361E-01 1.02344E-31
1.34323E-01 9.83280E-32
1.37313E-01 1.00848E-31
1.40330E-01 1.07599E-31
1.43375E-01 1.16805E-31
1.46447E-01 1.27122E-31
1.49545E-01 1.37555E-31
1.52671E-01 1.47389E-31
1.55823E-01 1.56135E-31
1.59001E-01 1.63476E-31
1.62205E-01 1.69236E-31
1.65435E-01 1.73341E-31
1.68690E-01 1.75797E-31
1.71970E-01 1.76669E-31
1.75276E-01 1.76060E-31
1.78606E-01 1.74101E-31
1.81961E-01 1.70941E-31
1.85340E-01 1.66735E-31
1.88743E-01 1.61639E-31
1.92169E-01 1.55807E-31
1.95619E-01 1.49386E-31
1.99092E-01 1.42513E-31
2.02589E-01 1.35314E-31
2.06107E-01 1.27904E-31
2.09649E-01 1.20386E-31
2.13212E-01 1.12848E-31
2.16797E-01 1.05371E-31
2.20404E-01 9.80192E-32
2.24032E-01 9.08495E-32
2.27680E-01 8.39074E-32
2.31350E-01 7.72294E-32
2.35040E-01 7.08440E-32
2.38751E-01 6.47719E-32
2.42481E-01 5.90274E-32
2.46231E-01 5.36189E-32
2.50000E-01 4.85500E-32
2.53788E-01 4.38197E-32
2.57595E-01 3.94237E-32
2.61421E-01 3.53545E-32
2.65264E-01 3.16024E-32
2.69126E-01 2.81555E-32
2.73005E-01 2.50007E-32
2.76901E-01 2.21235E-32
2.80814E-01 1.95088E-32
2.84744E-01 1.71411E-32
2.88691E-01 1.50047E-32
2.92653E-01 1.30837E-32
2.96632E-01 1.13627E-32
3.00625E-01 9.82649E-33
3.04634E-01 8.46029E-33
3.08658E-01 7.24995E-33
3.12697E-01 6.18192E-33
3.16749E-01 5.24334E-33
3.20816E-01 4.42207E-33
3.24896E-01 3.70670E-33
3.28990E-01 3.08657E-33
3.33097E-01 2.55176E-33
3.37216E-01 2.09309E-33
3.41348E-01 1.70208E-33
3.45492E-01 1.37095E-33
3.49647E-01 1.09260E-33
3.53814E-01 8.60546E-34
3.57992E-01 6.68902E-34
3.62181E-01 5.12360E-34
3.66381E-01 3.86135E-34
3.70590E-01 2.85941E-34
3.74810E-01 2.07948E-34
3.79039E-01 1.48753E-34
3.83277E-01 1.05344E-34
3.87524E-01 7.50645E-35
3.91780E-01 5.55865E-35
3.96044E-01 4.48785E-35
4.00316E-01 4.11780E-35
4.04596E-01 4.29640E-35
4.08882E-01 4.89341E-35
4.13176E-01 5.79788E-35
4.17476E-01 6.91630E-35
4.21783E-01 8.17048E-35
4.26095E-01 9.49572E-35
4.30413E-01 1.08392E-34
4.34737E-01 1.21584E-34
4.39065E-01 1.34199E-34
4.43398E-01 1.45981E-34
4.47736E-01 1.56739E-34
4.52077E-01 1.66342E-34
4.56422E-01 1.74700E-34
4.60770E-01 1.81772E-34
4.65122E-01 1.87542E-34
4.69476E-01 1.92025E-34
4.73832E-01 1.95258E-34
4.78190E-01 1.97295E-34
4.82550E-01 1.98198E-34
4.86912E-01 1.98044E-34
4.91274E-01 1.96916E-34
4.95637E-01 1.94897E-34
5.00000E-01 1.92076E-34
5.04363E-01 1.88541E-34
5.08726E-01 1.84379E-34
5.13088E-01 1.79672E-34
5.17450E-01 1.74503E-34
5.21810E-01 1.68948E-34
5.26168E-01 1.63080E-34
5.30524E-01 1.56967E-34
5.34878E-01 1.50671E-34
5.39230E-01 1.44250E-34
5.43578E-01 1.37758E-34
5.47923E-01 1.31240E-34
5.52264E-01 1.24740E-34
5.56602E-01 1.18296E-34
5.60935E-01 1.11940E-34
5.65263E-01 1.05702E-34
5.69587E-01 9.96058E-35
5.73905E-01 9.36735E-35
5.78217E-01 8.79215E-35
5.82524E-01 8.23644E-35
5.86824E-01 7.70126E-35
5.91118E-01 7.18753E-35
5.95404E-01 6.69582E-35
5.99684E-01 6.22648E-35
6.03956E-01 5.77970E-35
6.08220E-01 5.35547E-35
6.12476E-01 4.95365E-35
6.16723E-01 4.57393E-35
6.20961E-01 4.21595E-35
6.25190E-01 3.87917E-35
6.29410E-01 3.56302E-35
6.33619E-01 3.26687E-35
6.37819E-01 2.99001E-35
6.42008E-01 2.73172E-35
6.46186E-01 2.49122E-35
6.50353E-01 2.26773E-35
6.54508E-01 2.06043E-35
6.58652E-01 1.86852E-35
6.62784E-01 1.69121E-35
6.66903E-01 1.52768E-35
6.71010E-01 1.37716E-35
6.75104E-01 1.23887E-35
6.79184E-01 1.11208E-35
6.83251E-01 9.96021E-36
6.87303E-01 8.90024E-36
6.91342E-01 7.93404E-36
6.95366E-01 7.05507E-36
6.99375E-01 6.25712E-36
7.03368E-01 5.53422E-36
7.07347E-01 4.88082E-36
7.11309E-01 4.29156E-36
7.15256E-01 3.76137E-36
7.19186E-01 3.28546E-36
7.23099E-01 2.85945E-36
7.26995E-01 2.47905E-36
7.30874E-01 2.14041E-36
7.34736E-01 1.83980E-36
7.38579E-01 1.57379E-36
7.42405E-01 1.33925E-36
7.46212E-01 1.13321E-36
7.50000E-01 9.52897E-37
7.53769E-01 7.95791E-37
7.57519E-01 6.59589E-37
7.61249E-01 5.42118E-37
7.64960E-01 4.41418E-37
7.68650E-01 3.55673E-37
7.72320E-01 2.83232E-37
7.75968E-01 2.22586E-37
7.79596E-01 1.72359E-37
7.83203E-01 1.31302E-37
7.86788E-01 9.82803E-38
7.90351E-01 7.22671E-38
7.93893E-01 5.23393E-38
7.97411E-01 3.76667E-38
8.00908E-01 2.74903E-38
8.04381E-01 2.11536E-38
8.07831E-01 1.80364E-38
8.11257E-01 1.76345E-38
8.14660E-01 1.94420E-38
8.18039E-01 2.30785E-38
8.21394E-01 2.81451E-38
8.24724E-01 3.43336E-38
8.28030E-01 4.13439E-38
8.31310E-01 4.89506E-38
8.34565E-01 5.69339E-38
8.37795E-01 6.51076E-38
8.40999E-01 7.33282E-38
8.44177E-01 8.14474E-38
8.47329E-01 8.93718E-38
8.50455E-01 9.70177E-38
8.53553E-01 1.04278E-37
8.56625E-01 1.11138E-37
8.59670E-01 1.17528E-37
8.62687E-01 1.23425E-37
8.65677E-01 1.28808E-37
8.68639E-01 1.33653E-37
8.71572E-01 1.37948E-37
8.74478E-01 1.41717E-37
8.77355E-01 1.44961E-37
8.80203E-01 1.47658E-37
8.83022E-01 1.49863E-37
8.85812E-01 1.51565E-37
8.88573E-01 1.52797E-37
8.91304E-01 1.53573E-37
8.94005E-01 1.53931E-37
8.96677E-01 1.53879E-37
8.99318E-01 1.53465E-37
9.01928E-01 1.52665E-37
9.04508E-01 1.51541E-37
9.07058E-01 1.50112E-37
9.09576E-01 1.48414E-37
9.12063E-01 1.46439E-37
9.14519E-01 1.44228E-37
9.16943E-01 1.41810E-37
9.19335E-01 1.39203E-37
9.21696E-01 1.36425E-37
9.24024E-01 1.33478E-37
9.26320E-01 1.30405E-37
9.28584E-01 1.27225E-37
9.30815E-01 1.23942E-37
9.33013E-01 1.20580E-37
9.35178E-01 1.17168E-37
9.37310E-01 1.13682E-37
9.39409E-01 1.10176E-37
9.41474E-01 1.06631E-37
9.43505E-01 1.03077E-37
9.45503E-01 9.95119E-38
9.47467E-01 9.59708E-38
9.49397E-01 9.24320E-38
9.51293E-01 8.89256E-38
9.53154E-01 8.54498E-38
9.54981E-01 8.20023E-38
9.56773E-01 7.86217E-38
9.58530E-01 7.52734E-38
9.60252E-01 7.19950E-38
9.61940E-01 6.87628E-38
9.63592E-01 6.56134E-38
9.65209E-01 6.25248E-38
9.66790E-01 5.95008E-38
9.68336E-01 5.65446E-38
9.69846E-01 5.36664E-38
9.71321E-01 5.08688E-38
9.72759E-01 4.81427E-38
9.74162E-01 4.54970E-38
9.75528E-01 4.29318E-38
9.76858E-01 4.04536E-38
9.78152E-01 3.80409E-38
9.79410E-01 3.57159E-38
9.80631E-01 3.34675E-38
9.81815E-01 3.12977E-38
9.82963E-01 2.92150E-38
9.84074E-01 2.72035E-38
9.85148E-01 2.52796E-38
9.86185E-01 2.34134E-38
9.87185E-01 2.16374E-38
9.88148E-01 1.99269E-38
9.89074E-01 1.83078E-38
9.89962E-01 1.67591E-38
9.90814E-01 1.52834E-38
9.91627E-01 1.38721E-38
9.92404E-01 1.25471E-38
9.93143E-01 1.12866E-38
9.93844E-01 1.00985E-38
9.94508E-01 8.97883E-39
9.95134E-01 7.93332E-39
9.95722E-01 6.95326E-39
9.96273E-01 6.03810E-39
9.96786E-01 5.19323E-39
9.97261E-01 4.41323E-39
9.97698E-01 3.69783E-39
9.98097E-01 3.05421E-39
9.98459E-01 2.46663E-39
9.98782E-01 1.94886E-39
9.99067E-01 1.49085E-39
9.99315E-01 1.09572E-39
9.99524E-01 7.62123E-40
9.99695E-01 4.84818E-40
9.99829E-01 2.75684E-40
9.99924E-01 1.25570E-40
9.99981E-01 3.50793E-41
1.00000E+00 5.08455E-42
