 #
 # Subroutine ELSEPA. Elastic scattering of electrons and positrons
 #                    by neutral atoms and positive ions
 #
 # Projectile: electron
 # Kinetic energy = 3.00000E+08 eV = 1.10248E+07 a.u.
 #
 # WARNING: High-energy factorization with free-atom DF screening.
 #          Absorption, polarization and exchange corrections are
 #          switched off.
 #          Phase shifts are calculated for the bare nucleus.
 #          Scattering amplitudes are not evaluated.
 #
 # Element: Al,  Z =  13,  atomic weight = 2.69815E+01 g/mol
 #
 # Nuclear model: Fermi distribution
 #                Average radius = 3.20927E-13 cm
 #                Skin thickness = 5.46000E-14 cm
 #
 # Number of electrons = 13
 #
 # Total elastic cross section = 7.72564E-19 cm**2 = 2.75887E-02 a0**2
 # 1st transport cross section = 4.06267E-27 cm**2 = 1.45081E-10 a0**2
 # 2nd transport cross section = 1.21670E-26 cm**2 = 4.34491E-10 a0**2
 #
 #
 # Differential cross section:                       MU=(1-COS(THETA))/2
 #
 #  THETA        MU          DCS          DCS        Sherman      error
 #  (deg)                 (cm**2/sr)   (a0**2/sr)    function
 #----------------------------------------------------------------------
0.00000E+00 1.19945E-09
7.61557E-13 1.15897E-09
1.18994E-12 1.13708E-09
1.71346E-12 1.11114E-09
2.33225E-12 1.08159E-09
3.04617E-12 1.04889E-09
3.85530E-12 1.01355E-09
4.75964E-12 9.76076E-10
5.75917E-12 9.36966E-10
6.85391E-12 8.96708E-10
8.04379E-12 8.55763E-10
9.32893E-12 8.14551E-10
1.07092E-11 7.73456E-10
1.21847E-11 7.32814E-10
1.37554E-11 6.92917E-10
1.54213E-11 6.54007E-10
1.71823E-11 6.16254E-10
1.90386E-11 5.79544E-10
2.09900E-11 5.44523E-10
2.30367E-11 5.11240E-10
2.51785E-11 4.79714E-10
2.74156E-11 4.49736E-10
2.97478E-11 4.21126E-10
3.21752E-11 3.94252E-10
3.46979E-11 3.69059E-10
3.73157E-11 3.45479E-10
4.00286E-11 3.23285E-10
4.28368E-11 3.02476E-10
4.57402E-11 2.83076E-10
4.87388E-11 2.65002E-10
5.18325E-11 2.48176E-10
5.50215E-11 2.32474E-10
5.83057E-11 2.17864E-10
6.16850E-11 2.04276E-10
6.51595E-11 1.91641E-10
6.87293E-11 1.79898E-10
7.23943E-11 1.69016E-10
7.61544E-11 1.58893E-10
1.18991E-10 8.95609E-11
1.71347E-10 5.50469E-11
2.33223E-10 3.65828E-11
3.04617E-10 2.58453E-11
3.85531E-10 1.90878E-11
4.75965E-10 1.45391E-11
5.75917E-10 1.13186E-11
6.85389E-10 8.95132E-12
8.04380E-10 7.16297E-12
9.32891E-10 5.78534E-12
1.07092E-09 4.70911E-12
1.21847E-09 3.85943E-12
1.37554E-09 3.18291E-12
1.54213E-09 2.64026E-12
1.71823E-09 2.20171E-12
1.90386E-09 1.84323E-12
2.09900E-09 1.55684E-12
2.30367E-09 1.31843E-12
2.51785E-09 1.12422E-12
2.74156E-09 9.62155E-13
2.97478E-09 8.28055E-13
3.21752E-09 7.15621E-13
3.46978E-09 6.21370E-13
3.73156E-09 5.41831E-13
4.00286E-09 4.74419E-13
4.28368E-09 4.17112E-13
4.57402E-09 3.68072E-13
4.87388E-09 3.26060E-13
5.18326E-09 2.89801E-13
5.50215E-09 2.58497E-13
5.83057E-09 2.31270E-13
6.16850E-09 2.07586E-13
6.51596E-09 1.86846E-13
6.87293E-09 1.68670E-13
7.23942E-09 1.52656E-13
7.61544E-09 1.38525E-13
1.18991E-08 5.89460E-14
1.71347E-08 2.93841E-14
2.33223E-08 1.62954E-14
3.04617E-08 9.75465E-15
3.85531E-08 6.18779E-15
4.75965E-08 4.10895E-15
5.75917E-08 2.83196E-15
6.85389E-08 2.01325E-15
8.04380E-08 1.46928E-15
9.32891E-08 1.09673E-15
1.07092E-07 8.34803E-16
1.21847E-07 6.46421E-16
1.37554E-07 5.08189E-16
1.54213E-07 4.04937E-16
1.71823E-07 3.26580E-16
1.90386E-07 2.66263E-16
2.09900E-07 2.19231E-16
2.30367E-07 1.82128E-16
2.51785E-07 1.52544E-16
2.74156E-07 1.28724E-16
2.97478E-07 1.09374E-16
3.21752E-07 9.35234E-17
3.46978E-07 8.04412E-17
3.73156E-07 6.95672E-17
4.00286E-07 6.04691E-17
4.28368E-07 5.28102E-17
4.57402E-07 4.63258E-17
4.87388E-07 4.08064E-17
5.18325E-07 3.60848E-17
5.50215E-07 3.20265E-17
5.83057E-07 2.85229E-17
6.16850E-07 2.54854E-17
6.51596E-07 2.28417E-17
6.87293E-07 2.05319E-17
7.23942E-07 1.85068E-17
7.61543E-07 1.67253E-17
1.18991E-06 6.85310E-18
1.71347E-06 3.30523E-18
2.33223E-06 1.78422E-18
3.04617E-06 1.04595E-18
3.85531E-06 6.53026E-19
4.75964E-06 4.28479E-19
5.75916E-06 2.92676E-19
6.85388E-06 2.06663E-19
8.04378E-06 1.50052E-19
9.32888E-06 1.11566E-19
1.07092E-05 8.46655E-20
1.21846E-05 6.54063E-20
1.37553E-05 5.13254E-20
1.54212E-05 4.08381E-20
1.71822E-05 3.28980E-20
1.90385E-05 2.67966E-20
2.09899E-05 2.20476E-20
2.30365E-05 1.83055E-20
2.51783E-05 1.53247E-20
2.74153E-05 1.29265E-20
2.97475E-05 1.09797E-20
3.21749E-05 9.38593E-21
3.46974E-05 8.07122E-21
3.73152E-05 6.97893E-21
4.00281E-05 6.06539E-21
4.28362E-05 5.29659E-21
4.57395E-05 4.64585E-21
4.87380E-05 4.09205E-21
5.18317E-05 3.61837E-21
5.50205E-05 3.21128E-21
5.83045E-05 2.85988E-21
6.16838E-05 2.55526E-21
6.51582E-05 2.29015E-21
6.87277E-05 2.05856E-21
7.23925E-05 1.85553E-21
7.61524E-05 1.67337E-21
9.21439E-05 1.14268E-21
1.09658E-04 8.06579E-22
1.28695E-04 5.85407E-22
1.49255E-04 4.35063E-22
1.71338E-04 3.29999E-22
1.94942E-04 2.54793E-22
2.20070E-04 1.99821E-22
2.46720E-04 1.58888E-22
2.74892E-04 1.27906E-22
3.04586E-04 1.04108E-22
3.35803E-04 8.55866E-23
3.68542E-04 7.09983E-23
4.02802E-04 5.93827E-23
4.38585E-04 5.00421E-23
4.75889E-04 4.24628E-23
5.14715E-04 3.62609E-23
5.55063E-04 3.11472E-23
5.96931E-04 2.69006E-23
6.40321E-04 2.33506E-23
6.85233E-04 2.03647E-23
7.31665E-04 1.78388E-23
7.79618E-04 1.56907E-23
8.29092E-04 1.38545E-23
8.80086E-04 1.22776E-23
9.32601E-04 1.09173E-23
9.86636E-04 9.73899E-24
1.04219E-03 8.71426E-24
1.09927E-03 7.81976E-24
1.15786E-03 7.03619E-24
1.21797E-03 6.34747E-24
1.27961E-03 5.74021E-24
1.34276E-03 5.20313E-24
1.40743E-03 4.72677E-24
1.47362E-03 4.30310E-24
1.54133E-03 3.92529E-24
1.61056E-03 3.58756E-24
1.68131E-03 3.28491E-24
1.75357E-03 3.01309E-24
1.82735E-03 2.76842E-24
1.90265E-03 2.54772E-24
1.97947E-03 2.34825E-24
2.05780E-03 2.16761E-24
2.13765E-03 2.00373E-24
2.21902E-03 1.85478E-24
2.30190E-03 1.71917E-24
2.38630E-03 1.59549E-24
2.47222E-03 1.48253E-24
2.55965E-03 1.37919E-24
2.64859E-03 1.28451E-24
2.73905E-03 1.19764E-24
2.83103E-03 1.11784E-24
2.92452E-03 1.04441E-24
3.01952E-03 9.76775E-25
3.11604E-03 9.14392E-25
3.21407E-03 8.56784E-25
3.31362E-03 8.03524E-25
3.41468E-03 7.54227E-25
3.51725E-03 7.08549E-25
3.62133E-03 6.66178E-25
3.72692E-03 6.26834E-25
3.83403E-03 5.90264E-25
3.94265E-03 5.56240E-25
4.05278E-03 5.24554E-25
4.16442E-03 4.95018E-25
4.27757E-03 4.67462E-25
4.39223E-03 4.41731E-25
4.50840E-03 4.17683E-25
4.62608E-03 3.95190E-25
4.74527E-03 3.74135E-25
4.86597E-03 3.54410E-25
4.98817E-03 3.35917E-25
5.11188E-03 3.18566E-25
5.23711E-03 3.02276E-25
5.36383E-03 2.86969E-25
5.49207E-03 2.72578E-25
5.62181E-03 2.59039E-25
5.75306E-03 2.46292E-25
5.88581E-03 2.34284E-25
6.02007E-03 2.22964E-25
6.15583E-03 2.12288E-25
6.29310E-03 2.02212E-25
6.43187E-03 1.92697E-25
6.57214E-03 1.83707E-25
6.71392E-03 1.75208E-25
6.85720E-03 1.67169E-25
7.00198E-03 1.59561E-25
7.14827E-03 1.52357E-25
7.29605E-03 1.45533E-25
7.44534E-03 1.39065E-25
7.59612E-03 1.32932E-25
7.97965E-03 1.18935E-25
8.37255E-03 1.06630E-25
8.77480E-03 9.57828E-26
9.18641E-03 8.61972E-26
9.60736E-03 7.77056E-26
1.00376E-02 7.01657E-26
1.04773E-02 6.34562E-26
1.09262E-02 5.74732E-26
1.13844E-02 5.21274E-26
1.18520E-02 4.73419E-26
1.23288E-02 4.30502E-26
1.28150E-02 3.91947E-26
1.33104E-02 3.57253E-26
1.38150E-02 3.25985E-26
1.43290E-02 2.97762E-26
1.48521E-02 2.72250E-26
1.53845E-02 2.49158E-26
1.59262E-02 2.28228E-26
1.64770E-02 2.09235E-26
1.70371E-02 1.91977E-26
1.76063E-02 1.76279E-26
1.81848E-02 1.61983E-26
1.87724E-02 1.48951E-26
1.93692E-02 1.37058E-26
1.99751E-02 1.26195E-26
2.05901E-02 1.16263E-26
2.12143E-02 1.07174E-26
2.18476E-02 9.88491E-27
2.24900E-02 9.12183E-27
2.31415E-02 8.42180E-27
2.38021E-02 7.77912E-27
2.44717E-02 7.18867E-27
2.51504E-02 6.64582E-27
2.58382E-02 6.14641E-27
2.65349E-02 5.68667E-27
2.72407E-02 5.26319E-27
2.79555E-02 4.87288E-27
2.86793E-02 4.51294E-27
2.94120E-02 4.18083E-27
3.01537E-02 3.87425E-27
3.09043E-02 3.59108E-27
3.16639E-02 3.32943E-27
3.24324E-02 3.08755E-27
3.32098E-02 2.86385E-27
3.39961E-02 2.65688E-27
3.47912E-02 2.46531E-27
3.55952E-02 2.28794E-27
3.64081E-02 2.12366E-27
3.72297E-02 1.97144E-27
3.80602E-02 1.83036E-27
3.88995E-02 1.69957E-27
3.97476E-02 1.57827E-27
4.06044E-02 1.46576E-27
4.14700E-02 1.36137E-27
4.23443E-02 1.26448E-27
4.32273E-02 1.17455E-27
4.41190E-02 1.09106E-27
4.50194E-02 1.01352E-27
4.59284E-02 9.41505E-28
4.68461E-02 8.74608E-28
4.87074E-02 7.54703E-28
5.06030E-02 6.51150E-28
5.25328E-02 5.61682E-28
5.44967E-02 4.84358E-28
5.64946E-02 4.17514E-28
5.85262E-02 3.59722E-28
6.05914E-02 3.09755E-28
6.26901E-02 2.66554E-28
6.48222E-02 2.29208E-28
6.69873E-02 1.96931E-28
6.91854E-02 1.69044E-28
7.14163E-02 1.44958E-28
7.36799E-02 1.24166E-28
7.59760E-02 1.06228E-28
7.83043E-02 9.07614E-29
8.06647E-02 7.74364E-29
8.30571E-02 6.59660E-29
8.54812E-02 5.61015E-29
8.79369E-02 4.76269E-29
9.04240E-02 4.03546E-29
9.29422E-02 3.41221E-29
9.54915E-02 2.87879E-29
9.80716E-02 2.42295E-29
1.00682E-01 2.03405E-29
1.03323E-01 1.70284E-29
1.05995E-01 1.42131E-29
1.08696E-01 1.18251E-29
1.11427E-01 9.80417E-30
1.14188E-01 8.09820E-30
1.16978E-01 6.66198E-30
1.19797E-01 5.45645E-30
1.22645E-01 4.44786E-30
1.25522E-01 3.60704E-30
1.28428E-01 2.90885E-30
1.31361E-01 2.33164E-30
1.34323E-01 1.85677E-30
1.37313E-01 1.46822E-30
1.40330E-01 1.15228E-30
1.43375E-01 8.97176E-31
1.46447E-01 6.92862E-31
1.49545E-01 5.30767E-31
1.52671E-01 4.03599E-31
1.55823E-01 3.05169E-31
1.59001E-01 2.30237E-31
1.62205E-01 1.74382E-31
1.65435E-01 1.33886E-31
1.68690E-01 1.05635E-31
1.71970E-01 8.70307E-32
1.75276E-01 7.59158E-32
1.78606E-01 7.05091E-32
1.81961E-01 6.93493E-32
1.85340E-01 7.12458E-32
1.88743E-01 7.52368E-32
1.92169E-01 8.05535E-32
1.95619E-01 8.65886E-32
1.99092E-01 9.28697E-32
2.02589E-01 9.90365E-32
2.06107E-01 1.04821E-31
2.09649E-01 1.10032E-31
2.13212E-01 1.14540E-31
2.16797E-01 1.18263E-31
2.20404E-01 1.21161E-31
2.24032E-01 1.23226E-31
2.27680E-01 1.24472E-31
2.31350E-01 1.24932E-31
2.35040E-01 1.24653E-31
2.38751E-01 1.23690E-31
2.42481E-01 1.22105E-31
2.46231E-01 1.19963E-31
2.50000E-01 1.17330E-31
2.53788E-01 1.14273E-31
2.57595E-01 1.10855E-31
2.61421E-01 1.07138E-31
2.65264E-01 1.03181E-31
2.69126E-01 9.90376E-32
2.73005E-01 9.47580E-32
2.76901E-01 9.03883E-32
2.80814E-01 8.59698E-32
2.84744E-01 8.15398E-32
2.88691E-01 7.71310E-32
2.92653E-01 7.27722E-32
2.96632E-01 6.84884E-32
3.00625E-01 6.43007E-32
3.04634E-01 6.02271E-32
3.08658E-01 5.62822E-32
3.12697E-01 5.24779E-32
3.16749E-01 4.88233E-32
3.20816E-01 4.53253E-32
3.24896E-01 4.19885E-32
3.28990E-01 3.88158E-32
3.33097E-01 3.58084E-32
3.37216E-01 3.29660E-32
3.41348E-01 3.02870E-32
3.45492E-01 2.77688E-32
3.49647E-01 2.54080E-32
3.53814E-01 2.32002E-32
3.57992E-01 2.11407E-32
3.62181E-01 1.92240E-32
3.66381E-01 1.74444E-32
3.70590E-01 1.57960E-32
3.74810E-01 1.42725E-32
3.79039E-01 1.28676E-32
3.83277E-01 1.15750E-32
3.87524E-01 1.03883E-32
3.91780E-01 9.30134E-33
3.96044E-01 8.30792E-33
4.00316E-01 7.40203E-33
4.04596E-01 6.57785E-33
4.08882E-01 5.82973E-33
4.13176E-01 5.15224E-33
4.17476E-01 4.54018E-33
4.21783E-01 3.98860E-33
4.26095E-01 3.49277E-33
4.30413E-01 3.04823E-33
4.34737E-01 2.65075E-33
4.39065E-01 2.29636E-33
4.43398E-01 1.98133E-33
4.47736E-01 1.70214E-33
4.52077E-01 1.45555E-33
4.56422E-01 1.23851E-33
4.60770E-01 1.04819E-33
4.65122E-01 8.81989E-34
4.69476E-01 7.37475E-34
4.73832E-01 6.12422E-34
4.78190E-01 5.04778E-34
4.82550E-01 4.12661E-34
4.86912E-01 3.34350E-34
4.91274E-01 2.68269E-34
4.95637E-01 2.12988E-34
5.00000E-01 1.67204E-34
5.04363E-01 1.29738E-34
5.08726E-01 9.95231E-35
5.13088E-01 7.55988E-35
5.17450E-01 5.71016E-35
5.21810E-01 4.32567E-35
5.26168E-01 3.33726E-35
5.30524E-01 2.68334E-35
5.34878E-01 2.30918E-35
5.39230E-01 2.16647E-35
5.43578E-01 2.21258E-35
5.47923E-01 2.41016E-35
5.52264E-01 2.72653E-35
5.56602E-01 3.13338E-35
5.60935E-01 3.60621E-35
5.65263E-01 4.12404E-35
5.69587E-01 4.66889E-35
5.73905E-01 5.22572E-35
5.78217E-01 5.78179E-35
5.82524E-01 6.32666E-35
5.86824E-01 6.85172E-35
5.91118E-01 7.35023E-35
5.95404E-01 7.81685E-35
5.99684E-01 8.24747E-35
6.03956E-01 8.63927E-35
6.08220E-01 8.99026E-35
6.12476E-01 9.29937E-35
6.16723E-01 9.56618E-35
6.20961E-01 9.79095E-35
6.25190E-01 9.97434E-35
6.29410E-01 1.01174E-34
6.33619E-01 1.02217E-34
6.37819E-01 1.02889E-34
6.42008E-01 1.03209E-34
6.46186E-01 1.03197E-34
6.50353E-01 1.02875E-34
6.54508E-01 1.02265E-34
6.58652E-01 1.01389E-34
6.62784E-01 1.00271E-34
6.66903E-01 9.89322E-35
6.71010E-01 9.73945E-35
6.75104E-01 9.56791E-35
6.79184E-01 9.38071E-35
6.83251E-01 9.17971E-35
6.87303E-01 8.96689E-35
6.91342E-01 8.74399E-35
6.95366E-01 8.51270E-35
6.99375E-01 8.27458E-35
7.03368E-01 8.03110E-35
7.07347E-01 7.78366E-35
7.11309E-01 7.53351E-35
7.15256E-01 7.28181E-35
7.19186E-01 7.02960E-35
7.23099E-01 6.77791E-35
7.26995E-01 6.52756E-35
7.30874E-01 6.27942E-35
7.34736E-01 6.03413E-35
7.38579E-01 5.79232E-35
7.42405E-01 5.55459E-35
7.46212E-01 5.32141E-35
7.50000E-01 5.09319E-35
7.53769E-01 4.87025E-35
7.57519E-01 4.65295E-35
7.61249E-01 4.44150E-35
7.64960E-01 4.23613E-35
7.68650E-01 4.03695E-35
7.72320E-01 3.84410E-35
7.75968E-01 3.65766E-35
7.79596E-01 3.47765E-35
7.83203E-01 3.30412E-35
7.86788E-01 3.13699E-35
7.90351E-01 2.97629E-35
7.93893E-01 2.82190E-35
7.97411E-01 2.67376E-35
8.00908E-01 2.53178E-35
8.04381E-01 2.39582E-35
8.07831E-01 2.26580E-35
8.11257E-01 2.14153E-35
8.14660E-01 2.02291E-35
8.18039E-01 1.90974E-35
8.21394E-01 1.80189E-35
8.24724E-01 1.69920E-35
8.28030E-01 1.60151E-35
8.31310E-01 1.50862E-35
8.34565E-01 1.42039E-35
8.37795E-01 1.33663E-35
8.40999E-01 1.25718E-35
8.44177E-01 1.18188E-35
8.47329E-01 1.11055E-35
8.50455E-01 1.04301E-35
8.53553E-01 9.79143E-36
8.56625E-01 9.18747E-36
8.59670E-01 8.61688E-36
8.62687E-01 8.07807E-36
8.65677E-01 7.56957E-36
8.68639E-01 7.09001E-36
8.71572E-01 6.63802E-36
8.74478E-01 6.21214E-36
8.77355E-01 5.81108E-36
8.80203E-01 5.43375E-36
8.83022E-01 5.07877E-36
8.85812E-01 4.74507E-36
8.88573E-01 4.43150E-36
8.91304E-01 4.13700E-36
8.94005E-01 3.86051E-36
8.96677E-01 3.60107E-36
8.99318E-01 3.35769E-36
9.01928E-01 3.12964E-36
9.04508E-01 2.91593E-36
9.07058E-01 2.71575E-36
9.09576E-01 2.52829E-36
9.12063E-01 2.35293E-36
9.14519E-01 2.18888E-36
9.16943E-01 2.03548E-36
9.19335E-01 1.89210E-36
9.21696E-01 1.75814E-36
9.24024E-01 1.63308E-36
9.26320E-01 1.51632E-36
9.28584E-01 1.40734E-36
9.30815E-01 1.30570E-36
9.33013E-01 1.21092E-36
9.35178E-01 1.12253E-36
9.37310E-01 1.04023E-36
9.39409E-01 9.63534E-37
9.41474E-01 8.92148E-37
9.43505E-01 8.25695E-37
9.45503E-01 7.63883E-37
9.47467E-01 7.06353E-37
9.49397E-01 6.52892E-37
9.51293E-01 6.03184E-37
9.53154E-01 5.57001E-37
9.54981E-01 5.14126E-37
9.56773E-01 4.74271E-37
9.58530E-01 4.37313E-37
9.60252E-01 4.02993E-37
9.61940E-01 3.71184E-37
9.63592E-01 3.41653E-37
9.65209E-01 3.14288E-37
9.66790E-01 2.88939E-37
9.68336E-01 2.65465E-37
9.69846E-01 2.43719E-37
9.71321E-01 2.23581E-37
9.72759E-01 2.04953E-37
9.74162E-01 1.87716E-37
9.75528E-01 1.71773E-37
9.76858E-01 1.57022E-37
9.78152E-01 1.43411E-37
9.79410E-01 1.30825E-37
9.80631E-01 1.19205E-37
9.81815E-01 1.08481E-37
9.82963E-01 9.85741E-38
9.84074E-01 8.94466E-38
9.85148E-01 8.10185E-38
9.86185E-01 7.32788E-38
9.87185E-01 6.61334E-38
9.88148E-01 5.95705E-38
9.89074E-01 5.35135E-38
9.89962E-01 4.79513E-38
9.90814E-01 4.28427E-38
9.91627E-01 3.81656E-38
9.92404E-01 3.38609E-38
9.93143E-01 2.99280E-38
9.93844E-01 2.63290E-38
9.94508E-01 2.30446E-38
9.95134E-01 2.00457E-38
9.95722E-01 1.73217E-38
9.96273E-01 1.48540E-38
9.96786E-01 1.26184E-38
9.97261E-01 1.06060E-38
9.97698E-01 8.80260E-39
9.98097E-01 7.18647E-39
9.98459E-01 5.76500E-39
9.98782E-01 4.51062E-39
9.99067E-01 3.42622E-39
9.99315E-01 2.50047E-39
9.99524E-01 1.72770E-39
9.99695E-01 1.10828E-39
9.99829E-01 6.23734E-40
9.99924E-01 2.81107E-40
9.99981E-01 7.70664E-41
1.00000E+00 9.12040E-42
