 #
 # Subroutine ELSEPA. Elastic scattering of electrons and positrons
 #                    by neutral atoms and positive ions
 #
 # Projectile: electron
 # Kinetic energy = 6.00000E+08 eV = 2.20496E+07 a.u.
 #
 # WARNING: High-energy factorization with free-atom DF screening.
 #          Absorption, polarization and exchange corrections are
 #          switched off.
 #          Phase shifts are calculated for the bare nucleus.
 #          Scattering amplitudes are not evaluated.
 #
 # Element: Al,  Z =  13,  atomic weight = 2.69815E+01 g/mol
 #
 # Nuclear model: Fermi distribution
 #                Average radius = 3.20927E-13 cm
 #                Skin thickness = 5.46000E-14 cm
 #
 # Number of electrons = 13
 #
 # Total elastic cross section = 7.69731E-19 cm**2 = 2.74876E-02 a0**2
 # 1st transport cross section = 1.01808E-27 cm**2 = 3.63562E-11 a0**2
 # 2nd transport cross section = 3.05287E-27 cm**2 = 1.09020E-10 a0**2
 #
 #
 # Differential cross section:                       MU=(1-COS(THETA))/2
 #
 #  THETA        MU          DCS          DCS        Sherman      error
 #  (deg)                 (cm**2/sr)   (a0**2/sr)    function
 #----------------------------------------------------------------------
0.00000E+00 4.78964E-09
7.61557E-13 4.18935E-09
1.18994E-12 3.89895E-09
1.71346E-12 3.58240E-09
2.33225E-12 3.25461E-09
3.04617E-12 2.92846E-09
3.85530E-12 2.61393E-09
4.75964E-12 2.31667E-09
5.75917E-12 2.04390E-09
6.85391E-12 1.79829E-09
8.04379E-12 1.57663E-09
9.32893E-12 1.38173E-09
1.07092E-11 1.20989E-09
1.21847E-11 1.06010E-09
1.37554E-11 9.30064E-10
1.54213E-11 8.17313E-10
1.71823E-11 7.19824E-10
1.90386E-11 6.35815E-10
2.09900E-11 5.63085E-10
2.30367E-11 5.00431E-10
2.51785E-11 4.46175E-10
2.74156E-11 3.99134E-10
2.97478E-11 3.58441E-10
3.21752E-11 3.22847E-10
3.46979E-11 2.92020E-10
3.73157E-11 2.64925E-10
4.00286E-11 2.41194E-10
4.28368E-11 2.20313E-10
4.57402E-11 2.01830E-10
4.87388E-11 1.85512E-10
5.18325E-11 1.70962E-10
5.50215E-11 1.58009E-10
5.83057E-11 1.46408E-10
6.16850E-11 1.35986E-10
6.51595E-11 1.26600E-10
6.87293E-11 1.18122E-10
7.23943E-11 1.10416E-10
7.61544E-11 1.03431E-10
1.18991E-10 5.81871E-11
1.71347E-10 3.58279E-11
2.33223E-10 2.31594E-11
3.04617E-10 1.54522E-11
3.85531E-10 1.05730E-11
4.75965E-10 7.38193E-12
5.75917E-10 5.28067E-12
6.85389E-10 3.85397E-12
8.04380E-10 2.86663E-12
9.32891E-10 2.17055E-12
1.07092E-09 1.67097E-12
1.21847E-09 1.30623E-12
1.37554E-09 1.03558E-12
1.54213E-09 8.31637E-13
1.71823E-09 6.75727E-13
1.90386E-09 5.54958E-13
2.09900E-09 4.60235E-13
2.30367E-09 3.85082E-13
2.51785E-09 3.24819E-13
2.74156E-09 2.76020E-13
2.97478E-09 2.36145E-13
3.21752E-09 2.03289E-13
3.46978E-09 1.76007E-13
3.73156E-09 1.53191E-13
4.00286E-09 1.33984E-13
4.28368E-09 1.17715E-13
4.57402E-09 1.03857E-13
4.87388E-09 9.19901E-14
5.18326E-09 8.17774E-14
5.50215E-09 7.29479E-14
5.83057E-09 6.52812E-14
6.16850E-09 5.85971E-14
6.51596E-09 5.27470E-14
6.87293E-09 4.76091E-14
7.23942E-09 4.30816E-14
7.61544E-09 3.90791E-14
1.18991E-08 1.64617E-14
1.71347E-08 8.06588E-15
2.33223E-08 4.39398E-15
3.04617E-08 2.58987E-15
3.85531E-08 1.62237E-15
4.75965E-08 1.06678E-15
5.75917E-08 7.29690E-16
6.85389E-08 5.15727E-16
8.04380E-08 3.74696E-16
9.32891E-08 2.78716E-16
1.07092E-07 2.11579E-16
1.21847E-07 1.63486E-16
1.37554E-07 1.28310E-16
1.54213E-07 1.02103E-16
1.71823E-07 8.22570E-17
1.90386E-07 6.70062E-17
2.09900E-07 5.51311E-17
2.30367E-07 4.57736E-17
2.51785E-07 3.83196E-17
2.74156E-07 3.23229E-17
2.97478E-07 2.74546E-17
3.21752E-07 2.34688E-17
3.46978E-07 2.01806E-17
3.73156E-07 1.74486E-17
4.00286E-07 1.51637E-17
4.28368E-07 1.32409E-17
4.57402E-07 1.16134E-17
4.87388E-07 1.02284E-17
5.18325E-07 9.04394E-18
5.50215E-07 8.02604E-18
5.83057E-07 7.14741E-18
6.16850E-07 6.38578E-18
6.51596E-07 5.72296E-18
6.87293E-07 5.14395E-18
7.23942E-07 4.63635E-18
7.61543E-07 4.18984E-18
1.18991E-06 1.71628E-18
1.71347E-06 8.27740E-19
2.33223E-06 4.46823E-19
3.04617E-06 2.61936E-19
3.85531E-06 1.63536E-19
4.75964E-06 1.07303E-19
5.75916E-06 7.32941E-20
6.85388E-06 5.17538E-20
8.04378E-06 3.75770E-20
9.32888E-06 2.79390E-20
1.07092E-05 2.12024E-20
1.21846E-05 1.63794E-20
1.37553E-05 1.28532E-20
1.54212E-05 1.02269E-20
1.71822E-05 8.23849E-21
1.90385E-05 6.71054E-21
2.09899E-05 5.52126E-21
2.30365E-05 4.58416E-21
2.51783E-05 3.83768E-21
2.74153E-05 3.23713E-21
2.97475E-05 2.74958E-21
3.21749E-05 2.35047E-21
3.46974E-05 2.02124E-21
3.73152E-05 1.74770E-21
4.00281E-05 1.51892E-21
4.28362E-05 1.32640E-21
4.57395E-05 1.16344E-21
4.87380E-05 1.02475E-21
5.18317E-05 9.06129E-22
5.50205E-05 8.04185E-22
5.83045E-05 7.16184E-22
6.16838E-05 6.39900E-22
6.51582E-05 5.73510E-22
6.87277E-05 5.15515E-22
7.23925E-05 4.64671E-22
7.61524E-05 4.16248E-22
9.21439E-05 2.83819E-22
1.09658E-04 2.00013E-22
1.28695E-04 1.44910E-22
1.49255E-04 1.07487E-22
1.71338E-04 8.13609E-23
1.94942E-04 6.26793E-23
2.20070E-04 4.90392E-23
2.46720E-04 3.88953E-23
2.74892E-04 3.12271E-23
3.04586E-04 2.53454E-23
3.35803E-04 2.07742E-23
3.68542E-04 1.71793E-23
4.02802E-04 1.43216E-23
4.38585E-04 1.20276E-23
4.75889E-04 1.01694E-23
5.14715E-04 8.65171E-24
5.55063E-04 7.40277E-24
5.96931E-04 6.36770E-24
6.40321E-04 5.50427E-24
6.85233E-04 4.77964E-24
7.31665E-04 4.16805E-24
7.79618E-04 3.64915E-24
8.29092E-04 3.20670E-24
8.80086E-04 2.82769E-24
9.32601E-04 2.50162E-24
9.86636E-04 2.21993E-24
1.04219E-03 1.97565E-24
1.09927E-03 1.76304E-24
1.15786E-03 1.57735E-24
1.21797E-03 1.41464E-24
1.27961E-03 1.27164E-24
1.34276E-03 1.14558E-24
1.40743E-03 1.03415E-24
1.47362E-03 9.35384E-25
1.54133E-03 8.47629E-25
1.61056E-03 7.69468E-25
1.68131E-03 6.99692E-25
1.75357E-03 6.37266E-25
1.82735E-03 5.81298E-25
1.90265E-03 5.31020E-25
1.97947E-03 4.85767E-25
2.05780E-03 4.44963E-25
2.13765E-03 4.08105E-25
2.21902E-03 3.74756E-25
2.30190E-03 3.44534E-25
2.38630E-03 3.17101E-25
2.47222E-03 2.92165E-25
2.55965E-03 2.69465E-25
2.64859E-03 2.48773E-25
2.73905E-03 2.29886E-25
2.83103E-03 2.12624E-25
2.92452E-03 1.96829E-25
3.01952E-03 1.82358E-25
3.11604E-03 1.69087E-25
3.21407E-03 1.56901E-25
3.31362E-03 1.45701E-25
3.41468E-03 1.35396E-25
3.51725E-03 1.25905E-25
3.62133E-03 1.17156E-25
3.72692E-03 1.09084E-25
3.83403E-03 1.01629E-25
3.94265E-03 9.47380E-26
4.05278E-03 8.83639E-26
4.16442E-03 8.24629E-26
4.27757E-03 7.69957E-26
4.39223E-03 7.19266E-26
4.50840E-03 6.72232E-26
4.62608E-03 6.28563E-26
4.74527E-03 5.87989E-26
4.86597E-03 5.50267E-26
4.98817E-03 5.15175E-26
5.11188E-03 4.82510E-26
5.23711E-03 4.52086E-26
5.36383E-03 4.23732E-26
5.49207E-03 3.97295E-26
5.62181E-03 3.72631E-26
5.75306E-03 3.49610E-26
5.88581E-03 3.28112E-26
6.02007E-03 3.08025E-26
6.15583E-03 2.89250E-26
6.29310E-03 2.71692E-26
6.43187E-03 2.55266E-26
6.57214E-03 2.39892E-26
6.71392E-03 2.25497E-26
6.85720E-03 2.12014E-26
7.00198E-03 1.99379E-26
7.14827E-03 1.87536E-26
7.29605E-03 1.76431E-26
7.44534E-03 1.66014E-26
7.59612E-03 1.56239E-26
7.97965E-03 1.34342E-26
8.37255E-03 1.15619E-26
8.77480E-03 9.95821E-27
9.18641E-03 8.58258E-27
9.60736E-03 7.40095E-27
1.00376E-02 6.38472E-27
1.04773E-02 5.50977E-27
1.09262E-02 4.75574E-27
1.13844E-02 4.10537E-27
1.18520E-02 3.54400E-27
1.23288E-02 3.05914E-27
1.28150E-02 2.64017E-27
1.33104E-02 2.27797E-27
1.38150E-02 1.96477E-27
1.43290E-02 1.69387E-27
1.48521E-02 1.45953E-27
1.53845E-02 1.25683E-27
1.59262E-02 1.08150E-27
1.64770E-02 9.29872E-28
1.70371E-02 7.98776E-28
1.76063E-02 6.85473E-28
1.81848E-02 5.87591E-28
1.87724E-02 5.03078E-28
1.93692E-02 4.30153E-28
1.99751E-02 3.67274E-28
2.05901E-02 3.13102E-28
2.12143E-02 2.66474E-28
2.18476E-02 2.26381E-28
2.24900E-02 1.91948E-28
2.31415E-02 1.62412E-28
2.38021E-02 1.37113E-28
2.44717E-02 1.15474E-28
2.51504E-02 9.69971E-29
2.58382E-02 8.12485E-29
2.65349E-02 6.78515E-29
2.72407E-02 5.64791E-29
2.79555E-02 4.68477E-29
2.86793E-02 3.87114E-29
2.94120E-02 3.18569E-29
3.01537E-02 2.60997E-29
3.09043E-02 2.12799E-29
3.16639E-02 1.72597E-29
3.24324E-02 1.39196E-29
3.32098E-02 1.11569E-29
3.39961E-02 8.88300E-30
3.47912E-02 7.02171E-30
3.55952E-02 5.50762E-30
3.64081E-02 4.28464E-30
3.72297E-02 3.30480E-30
3.80602E-02 2.52714E-30
3.88995E-02 1.91678E-30
3.97476E-02 1.44409E-30
4.06044E-02 1.08396E-30
4.14700E-02 8.15207E-31
4.23443E-02 6.19985E-31
4.32273E-02 4.83353E-31
4.41190E-02 3.92838E-31
4.50194E-02 3.38088E-31
4.59284E-02 3.10552E-31
4.68461E-02 3.03221E-31
4.87074E-02 3.27442E-31
5.06030E-02 3.77310E-31
5.25328E-02 4.32019E-31
5.44967E-02 4.79540E-31
5.64946E-02 5.13793E-31
5.85262E-02 5.32593E-31
6.05914E-02 5.36193E-31
6.26901E-02 5.26253E-31
6.48222E-02 5.05140E-31
6.69873E-02 4.75457E-31
6.91854E-02 4.39750E-31
7.14163E-02 4.00328E-31
7.36799E-02 3.59179E-31
7.59760E-02 3.17926E-31
7.83043E-02 2.77841E-31
8.06647E-02 2.39863E-31
8.30571E-02 2.04638E-31
8.54812E-02 1.72567E-31
8.79369E-02 1.43848E-31
9.04240E-02 1.18516E-31
9.29422E-02 9.64859E-32
9.54915E-02 7.75862E-32
9.80716E-02 6.15842E-32
1.00682E-01 4.82122E-32
1.03323E-01 3.71853E-32
1.05995E-01 2.82158E-32
1.08696E-01 2.10243E-32
1.11427E-01 1.53472E-32
1.14188E-01 1.09413E-32
1.16978E-01 7.58724E-33
1.19797E-01 5.09054E-33
1.22645E-01 3.28156E-33
1.25522E-01 2.01476E-33
1.28428E-01 1.16713E-33
1.31361E-01 6.36320E-34
1.34323E-01 3.38492E-34
1.37313E-01 2.06140E-34
1.40330E-01 1.85895E-34
1.43375E-01 2.36433E-34
1.46447E-01 3.26537E-34
1.49545E-01 4.33316E-34
1.52671E-01 5.40647E-34
1.55823E-01 6.37777E-34
1.59001E-01 7.18142E-34
1.62205E-01 7.78366E-34
1.65435E-01 8.17413E-34
1.68690E-01 8.35912E-34
1.71970E-01 8.35600E-34
1.75276E-01 8.18894E-34
1.78606E-01 7.88553E-34
1.81961E-01 7.47438E-34
1.85340E-01 6.98325E-34
1.88743E-01 6.43793E-34
1.92169E-01 5.86141E-34
1.95619E-01 5.27348E-34
1.99092E-01 4.69066E-34
2.02589E-01 4.12614E-34
2.06107E-01 3.59009E-34
2.09649E-01 3.08984E-34
2.13212E-01 2.63027E-34
2.16797E-01 2.21414E-34
2.20404E-01 1.84245E-34
2.24032E-01 1.51478E-34
2.27680E-01 1.22961E-34
2.31350E-01 9.84572E-35
2.35040E-01 7.76749E-35
2.38751E-01 6.02843E-35
2.42481E-01 4.59377E-35
2.46231E-01 3.42823E-35
2.50000E-01 2.49726E-35
2.53788E-01 1.76779E-35
2.57595E-01 1.20894E-35
2.61421E-01 7.92322E-36
2.65264E-01 4.92373E-36
2.69126E-01 2.86392E-36
2.73005E-01 1.54547E-36
2.76901E-01 7.97827E-37
2.80814E-01 4.76560E-37
2.84744E-01 4.61363E-37
2.88691E-01 6.53893E-37
2.92653E-01 9.75183E-37
2.96632E-01 1.36347E-36
3.00625E-01 1.77165E-36
3.04634E-01 2.16515E-36
3.08658E-01 2.51981E-36
3.12697E-01 2.82006E-36
3.16749E-01 3.05697E-36
3.20816E-01 3.22724E-36
3.24896E-01 3.33140E-36
3.28990E-01 3.37304E-36
3.33097E-01 3.35790E-36
3.37216E-01 3.29270E-36
3.41348E-01 3.18527E-36
3.45492E-01 3.04331E-36
3.49647E-01 2.87452E-36
3.53814E-01 2.68617E-36
3.57992E-01 2.48488E-36
3.62181E-01 2.27660E-36
3.66381E-01 2.06650E-36
3.70590E-01 1.85890E-36
3.74810E-01 1.65741E-36
3.79039E-01 1.46480E-36
3.83277E-01 1.28324E-36
3.87524E-01 1.11421E-36
3.91780E-01 9.58704E-37
3.96044E-01 8.17228E-37
4.00316E-01 6.89864E-37
4.04596E-01 5.76415E-37
4.08882E-01 4.76385E-37
4.13176E-01 3.89128E-37
4.17476E-01 3.13813E-37
4.21783E-01 2.49524E-37
4.26095E-01 1.95294E-37
4.30413E-01 1.50131E-37
4.34737E-01 1.13057E-37
4.39065E-01 8.30880E-38
4.43398E-01 5.93076E-38
4.47736E-01 4.08428E-38
4.52077E-01 2.68874E-38
4.56422E-01 1.67119E-38
4.60770E-01 9.64384E-39
4.65122E-01 5.09567E-39
4.69476E-01 2.54502E-39
4.73832E-01 1.54125E-39
4.78190E-01 1.69929E-39
4.82550E-01 2.68802E-39
4.86912E-01 4.23966E-39
4.91274E-01 6.13122E-39
4.95637E-01 8.18231E-39
5.00000E-01 1.02574E-38
5.04363E-01 1.22440E-38
5.08726E-01 1.40691E-38
5.13088E-01 1.56711E-38
5.17450E-01 1.70270E-38
5.21810E-01 1.81059E-38
5.26168E-01 1.89081E-38
5.30524E-01 1.94411E-38
5.34878E-01 1.97123E-38
5.39230E-01 1.97459E-38
5.43578E-01 1.95642E-38
5.47923E-01 1.91922E-38
5.52264E-01 1.86534E-38
5.56602E-01 1.79795E-38
5.60935E-01 1.71940E-38
5.65263E-01 1.63266E-38
5.69587E-01 1.53940E-38
5.73905E-01 1.44250E-38
5.78217E-01 1.34327E-38
5.82524E-01 1.24361E-38
5.86824E-01 1.14449E-38
5.91118E-01 1.04754E-38
5.95404E-01 9.53719E-39
5.99684E-01 8.63431E-39
6.03956E-01 7.77610E-39
6.08220E-01 6.96510E-39
6.12476E-01 6.20479E-39
6.16723E-01 5.49583E-39
6.20961E-01 4.84158E-39
6.25190E-01 4.23968E-39
6.29410E-01 3.68944E-39
6.33619E-01 3.19131E-39
6.37819E-01 2.74126E-39
6.42008E-01 2.34014E-39
6.46186E-01 1.98292E-39
6.50353E-01 1.66801E-39
6.54508E-01 1.39144E-39
6.58652E-01 1.15071E-39
6.62784E-01 9.43217E-40
6.66903E-01 7.64838E-40
6.71010E-01 6.13212E-40
6.75104E-01 4.85115E-40
6.79184E-01 3.78380E-40
6.83251E-01 2.89536E-40
6.87303E-01 1.00000E-45
6.91342E-01 1.00000E-45
6.95366E-01 1.00000E-45
6.99375E-01 1.00000E-45
7.03368E-01 1.00000E-45
7.07347E-01 1.00000E-45
7.11309E-01 1.00000E-45
7.15256E-01 1.00000E-45
7.19186E-01 1.00000E-45
7.23099E-01 1.00000E-45
7.26995E-01 1.00000E-45
7.30874E-01 1.00000E-45
7.34736E-01 1.00000E-45
7.38579E-01 1.00000E-45
7.42405E-01 1.00000E-45
7.46212E-01 1.00000E-45
7.50000E-01 1.00000E-45
7.53769E-01 1.00000E-45
7.57519E-01 1.00000E-45
7.61249E-01 1.00000E-45
7.64960E-01 1.00000E-45
7.68650E-01 1.00000E-45
7.72320E-01 1.00000E-45
7.75968E-01 1.00000E-45
7.79596E-01 1.00000E-45
7.83203E-01 1.00000E-45
7.86788E-01 1.00000E-45
7.90351E-01 1.00000E-45
7.93893E-01 1.00000E-45
7.97411E-01 1.00000E-45
8.00908E-01 1.00000E-45
8.04381E-01 1.00000E-45
8.07831E-01 1.00000E-45
8.11257E-01 1.00000E-45
8.14660E-01 1.00000E-45
8.18039E-01 1.00000E-45
8.21394E-01 1.00000E-45
8.24724E-01 1.00000E-45
8.28030E-01 1.00000E-45
8.31310E-01 1.00000E-45
8.34565E-01 1.00000E-45
8.37795E-01 1.00000E-45
8.40999E-01 1.00000E-45
8.44177E-01 1.00000E-45
8.47329E-01 1.00000E-45
8.50455E-01 1.00000E-45
8.53553E-01 1.00000E-45
8.56625E-01 1.00000E-45
8.59670E-01 1.00000E-45
8.62687E-01 1.00000E-45
8.65677E-01 1.00000E-45
8.68639E-01 1.00000E-45
8.71572E-01 1.00000E-45
8.74478E-01 1.00000E-45
8.77355E-01 1.00000E-45
8.80203E-01 1.00000E-45
8.83022E-01 1.00000E-45
8.85812E-01 1.00000E-45
8.88573E-01 1.00000E-45
8.91304E-01 1.00000E-45
8.94005E-01 1.00000E-45
8.96677E-01 1.00000E-45
8.99318E-01 1.00000E-45
9.01928E-01 1.00000E-45
9.04508E-01 1.00000E-45
9.07058E-01 1.00000E-45
9.09576E-01 1.00000E-45
9.12063E-01 1.00000E-45
9.14519E-01 1.00000E-45
9.16943E-01 1.00000E-45
9.19335E-01 1.00000E-45
9.21696E-01 1.00000E-45
9.24024E-01 1.00000E-45
9.26320E-01 1.00000E-45
9.28584E-01 1.00000E-45
9.30815E-01 1.00000E-45
9.33013E-01 1.00000E-45
9.35178E-01 1.00000E-45
9.37310E-01 1.00000E-45
9.39409E-01 1.00000E-45
9.41474E-01 1.00000E-45
9.43505E-01 1.00000E-45
9.45503E-01 1.00000E-45
9.47467E-01 1.00000E-45
9.49397E-01 1.00000E-45
9.51293E-01 1.00000E-45
9.53154E-01 1.00000E-45
9.54981E-01 1.00000E-45
9.56773E-01 1.00000E-45
9.58530E-01 1.00000E-45
9.60252E-01 1.00000E-45
9.61940E-01 1.00000E-45
9.63592E-01 1.00000E-45
9.65209E-01 1.00000E-45
9.66790E-01 1.00000E-45
9.68336E-01 1.00000E-45
9.69846E-01 1.00000E-45
9.71321E-01 1.00000E-45
9.72759E-01 1.00000E-45
9.74162E-01 1.00000E-45
9.75528E-01 1.00000E-45
9.76858E-01 1.00000E-45
9.78152E-01 1.00000E-45
9.79410E-01 1.00000E-45
9.80631E-01 1.00000E-45
9.81815E-01 1.00000E-45
9.82963E-01 1.00000E-45
9.84074E-01 1.00000E-45
9.85148E-01 1.00000E-45
9.86185E-01 1.00000E-45
9.87185E-01 1.00000E-45
9.88148E-01 1.00000E-45
9.89074E-01 1.00000E-45
9.89962E-01 1.00000E-45
9.90814E-01 1.00000E-45
9.91627E-01 1.00000E-45
9.92404E-01 1.00000E-45
9.93143E-01 1.00000E-45
9.93844E-01 1.00000E-45
9.94508E-01 1.00000E-45
9.95134E-01 1.00000E-45
9.95722E-01 1.00000E-45
9.96273E-01 1.00000E-45
9.96786E-01 1.00000E-45
9.97261E-01 1.00000E-45
9.97698E-01 1.00000E-45
9.98097E-01 1.00000E-45
9.98459E-01 1.00000E-45
9.98782E-01 1.00000E-45
9.99067E-01 1.00000E-45
9.99315E-01 1.00000E-45
9.99524E-01 1.00000E-45
9.99695E-01 1.00000E-45
9.99829E-01 1.00000E-45
9.99924E-01 1.00000E-45
9.99981E-01 1.00000E-45
1.00000E+00 1.00000E-45
