 #
 # Subroutine ELSEPA. Elastic scattering of electrons and positrons
 #                    by neutral atoms and positive ions
 #
 # Projectile: electron
 # Kinetic energy = 9.00000E+06 eV = 3.30744E+05 a.u.
 #
 # WARNING: High-energy factorization with free-atom DF screening.
 #          Absorption, polarization and exchange corrections are
 #          switched off.
 #          Phase shifts are calculated for the bare nucleus.
 #          Scattering amplitudes are not evaluated.
 #
 # Element: Al,  Z =  13,  atomic weight = 2.69815E+01 g/mol
 #
 # Nuclear model: Fermi distribution
 #                Average radius = 3.20927E-13 cm
 #                Skin thickness = 5.46000E-14 cm
 #
 # Number of electrons = 13
 #
 # Total elastic cross section = 7.74253E-19 cm**2 = 2.76491E-02 a0**2
 # 1st transport cross section = 3.20897E-24 cm**2 = 1.14594E-07 a0**2
 # 2nd transport cross section = 9.22117E-24 cm**2 = 3.29294E-07 a0**2
 #
 #
 # Differential cross section:                       MU=(1-COS(THETA))/2
 #
 #  THETA        MU          DCS          DCS        Sherman      error
 #  (deg)                 (cm**2/sr)   (a0**2/sr)    function
 #----------------------------------------------------------------------
0.00000E+00 1.20147E-12
7.61557E-13 1.20143E-12
1.18994E-12 1.20140E-12
1.71346E-12 1.20138E-12
2.33225E-12 1.20134E-12
3.04617E-12 1.20130E-12
3.85530E-12 1.20126E-12
4.75964E-12 1.20121E-12
5.75917E-12 1.20115E-12
6.85391E-12 1.20109E-12
8.04379E-12 1.20103E-12
9.32893E-12 1.20096E-12
1.07092E-11 1.20088E-12
1.21847E-11 1.20080E-12
1.37554E-11 1.20072E-12
1.54213E-11 1.20062E-12
1.71823E-11 1.20053E-12
1.90386E-11 1.20043E-12
2.09900E-11 1.20032E-12
2.30367E-11 1.20021E-12
2.51785E-11 1.20009E-12
2.74156E-11 1.19997E-12
2.97478E-11 1.19984E-12
3.21752E-11 1.19971E-12
3.46979E-11 1.19957E-12
3.73157E-11 1.19943E-12
4.00286E-11 1.19928E-12
4.28368E-11 1.19913E-12
4.57402E-11 1.19897E-12
4.87388E-11 1.19881E-12
5.18325E-11 1.19864E-12
5.50215E-11 1.19847E-12
5.83057E-11 1.19829E-12
6.16850E-11 1.19811E-12
6.51595E-11 1.19792E-12
6.87293E-11 1.19772E-12
7.23943E-11 1.19752E-12
7.61544E-11 1.19732E-12
1.18991E-10 1.19500E-12
1.71347E-10 1.19217E-12
2.33223E-10 1.18884E-12
3.04617E-10 1.18502E-12
3.85531E-10 1.18071E-12
4.75965E-10 1.17592E-12
5.75917E-10 1.17066E-12
6.85389E-10 1.16493E-12
8.04380E-10 1.15876E-12
9.32891E-10 1.15214E-12
1.07092E-09 1.14510E-12
1.21847E-09 1.13764E-12
1.37554E-09 1.12978E-12
1.54213E-09 1.12153E-12
1.71823E-09 1.11290E-12
1.90386E-09 1.10390E-12
2.09900E-09 1.09457E-12
2.30367E-09 1.08490E-12
2.51785E-09 1.07491E-12
2.74156E-09 1.06462E-12
2.97478E-09 1.05404E-12
3.21752E-09 1.04320E-12
3.46978E-09 1.03211E-12
3.73156E-09 1.02077E-12
4.00286E-09 1.00921E-12
4.28368E-09 9.97455E-13
4.57402E-09 9.85500E-13
4.87388E-09 9.73375E-13
5.18326E-09 9.61099E-13
5.50215E-09 9.48671E-13
5.83057E-09 9.36120E-13
6.16850E-09 9.23463E-13
6.51596E-09 9.10699E-13
6.87293E-09 8.97857E-13
7.23942E-09 8.84953E-13
7.61544E-09 8.71984E-13
1.18991E-08 7.42085E-13
1.71347E-08 6.18735E-13
2.33223E-08 5.08156E-13
3.04617E-08 4.14064E-13
3.85531E-08 3.36092E-13
4.75965E-08 2.72486E-13
5.75917E-08 2.21603E-13
6.85389E-08 1.81070E-13
8.04380E-08 1.48968E-13
9.32891E-08 1.23500E-13
1.07092E-07 1.03213E-13
1.21847E-07 8.70774E-14
1.37554E-07 7.40918E-14
1.54213E-07 6.35716E-14
1.71823E-07 5.50303E-14
1.90386E-07 4.79984E-14
2.09900E-07 4.21692E-14
2.30367E-07 3.73062E-14
2.51785E-07 3.32043E-14
2.74156E-07 2.97231E-14
2.97478E-07 2.67376E-14
3.21752E-07 2.41624E-14
3.46978E-07 2.19301E-14
3.73156E-07 1.99685E-14
4.00286E-07 1.82443E-14
4.28368E-07 1.67234E-14
4.57402E-07 1.53598E-14
4.87388E-07 1.41432E-14
5.18325E-07 1.30551E-14
5.50215E-07 1.20657E-14
5.83057E-07 1.11727E-14
6.16850E-07 1.03656E-14
6.51596E-07 9.62417E-15
6.87293E-07 8.94914E-15
7.23942E-07 8.33419E-15
7.61543E-07 7.76518E-15
1.18991E-06 4.02022E-15
1.71347E-06 2.22155E-15
2.33223E-06 1.29533E-15
3.04617E-06 7.95776E-16
3.85531E-06 5.11856E-16
4.75964E-06 3.42720E-16
5.75916E-06 2.37911E-16
6.85388E-06 1.70375E-16
8.04378E-06 1.25317E-16
9.32888E-06 9.43362E-17
1.07092E-05 7.24520E-17
1.21846E-05 5.66158E-17
1.37553E-05 4.49174E-17
1.54212E-05 3.61151E-17
1.71822E-05 2.93797E-17
1.90385E-05 2.41519E-17
2.09899E-05 2.00432E-17
2.30365E-05 1.67737E-17
2.51783E-05 1.41457E-17
2.74153E-05 1.20132E-17
2.97475E-05 1.02673E-17
3.21749E-05 8.82699E-18
3.46974E-05 7.63037E-18
3.73152E-05 6.62920E-18
4.00281E-05 5.78656E-18
4.28362E-05 5.07333E-18
4.57395E-05 4.46621E-18
4.87380E-05 3.94691E-18
5.18317E-05 3.50068E-18
5.50205E-05 3.11546E-18
5.83045E-05 2.78158E-18
6.16838E-05 2.49110E-18
6.51582E-05 2.23741E-18
6.87277E-05 2.01507E-18
7.23925E-05 1.81959E-18
7.61524E-05 1.64715E-18
9.21439E-05 1.13134E-18
1.09658E-04 8.02086E-19
1.28695E-04 5.84133E-19
1.49255E-04 4.35304E-19
1.71338E-04 3.30930E-19
1.94942E-04 2.56009E-19
2.20070E-04 2.01119E-19
2.46720E-04 1.60172E-19
2.74892E-04 1.29128E-19
3.04586E-04 1.05251E-19
3.35803E-04 8.66437E-20
3.68542E-04 7.19719E-20
4.02802E-04 6.02778E-20
4.38585E-04 5.08651E-20
4.75889E-04 4.32201E-20
5.14715E-04 3.69590E-20
5.55063E-04 3.17919E-20
5.96931E-04 2.74973E-20
6.40321E-04 2.39041E-20
6.85233E-04 2.08794E-20
7.31665E-04 1.83184E-20
7.79618E-04 1.61385E-20
8.29092E-04 1.42735E-20
8.80086E-04 1.26705E-20
9.32601E-04 1.12864E-20
9.86636E-04 1.00864E-20
1.04219E-03 9.04174E-21
1.09927E-03 8.12900E-21
1.15786E-03 7.32866E-21
1.21797E-03 6.62450E-21
1.27961E-03 6.00287E-21
1.34276E-03 5.45253E-21
1.40743E-03 4.96388E-21
1.47362E-03 4.52881E-21
1.54133E-03 4.14042E-21
1.61056E-03 3.79281E-21
1.68131E-03 3.48097E-21
1.75357E-03 3.20055E-21
1.82735E-03 2.94783E-21
1.90265E-03 2.71959E-21
1.97947E-03 2.51304E-21
2.05780E-03 2.32576E-21
2.13765E-03 2.15561E-21
2.21902E-03 2.00076E-21
2.30190E-03 1.85957E-21
2.38630E-03 1.73064E-21
2.47222E-03 1.61270E-21
2.55965E-03 1.50465E-21
2.64859E-03 1.40551E-21
2.73905E-03 1.31441E-21
2.83103E-03 1.23058E-21
2.92452E-03 1.15333E-21
3.01952E-03 1.08206E-21
3.11604E-03 1.01621E-21
3.21407E-03 9.55307E-22
3.31362E-03 8.98901E-22
3.41468E-03 8.46602E-22
3.51725E-03 7.98056E-22
3.62133E-03 7.52944E-22
3.72692E-03 7.10978E-22
3.83403E-03 6.71899E-22
3.94265E-03 6.35472E-22
4.05278E-03 6.01483E-22
4.16442E-03 5.69739E-22
4.27757E-03 5.40065E-22
4.39223E-03 5.12299E-22
4.50840E-03 4.86298E-22
4.62608E-03 4.61927E-22
4.74527E-03 4.39066E-22
4.86597E-03 4.17603E-22
4.98817E-03 3.97438E-22
5.11188E-03 3.78477E-22
5.23711E-03 3.60634E-22
5.36383E-03 3.43832E-22
5.49207E-03 3.27998E-22
5.62181E-03 3.13067E-22
5.75306E-03 2.98977E-22
5.88581E-03 2.85671E-22
6.02007E-03 2.73099E-22
6.15583E-03 2.61211E-22
6.29310E-03 2.49964E-22
6.43187E-03 2.39317E-22
6.57214E-03 2.29231E-22
6.71392E-03 2.19672E-22
6.85720E-03 2.10606E-22
7.00198E-03 2.02004E-22
7.14827E-03 1.93838E-22
7.29605E-03 1.86080E-22
7.44534E-03 1.78707E-22
7.59612E-03 1.71696E-22
7.97965E-03 1.55618E-22
8.37255E-03 1.41380E-22
8.77480E-03 1.28737E-22
9.18641E-03 1.17477E-22
9.60736E-03 1.07423E-22
1.00376E-02 9.84232E-23
1.04773E-02 9.03477E-23
1.09262E-02 8.30846E-23
1.13844E-02 7.65378E-23
1.18520E-02 7.06241E-23
1.23288E-02 6.52713E-23
1.28150E-02 6.04167E-23
1.33104E-02 5.60057E-23
1.38150E-02 5.19904E-23
1.43290E-02 4.83290E-23
1.48521E-02 4.49847E-23
1.53845E-02 4.19250E-23
1.59262E-02 3.91213E-23
1.64770E-02 3.65483E-23
1.70371E-02 3.41837E-23
1.76063E-02 3.20074E-23
1.81848E-02 3.00018E-23
1.87724E-02 2.81509E-23
1.93692E-02 2.64407E-23
1.99751E-02 2.48585E-23
2.05901E-02 2.33931E-23
2.12143E-02 2.20341E-23
2.18476E-02 2.07724E-23
2.24900E-02 1.95999E-23
2.31415E-02 1.85089E-23
2.38021E-02 1.74929E-23
2.44717E-02 1.65457E-23
2.51504E-02 1.56617E-23
2.58382E-02 1.48361E-23
2.65349E-02 1.40641E-23
2.72407E-02 1.33417E-23
2.79555E-02 1.26652E-23
2.86793E-02 1.20310E-23
2.94120E-02 1.14360E-23
3.01537E-02 1.08773E-23
3.09043E-02 1.03523E-23
3.16639E-02 9.85865E-24
3.24324E-02 9.39405E-24
3.32098E-02 8.95650E-24
3.39961E-02 8.54412E-24
3.47912E-02 8.15519E-24
3.55952E-02 7.78814E-24
3.64081E-02 7.44150E-24
3.72297E-02 7.11392E-24
3.80602E-02 6.80416E-24
3.88995E-02 6.51106E-24
3.97476E-02 6.23357E-24
4.06044E-02 5.97069E-24
4.14700E-02 5.72151E-24
4.23443E-02 5.48518E-24
4.32273E-02 5.26091E-24
4.41190E-02 5.04798E-24
4.50194E-02 4.84569E-24
4.59284E-02 4.65343E-24
4.68461E-02 4.47059E-24
4.87074E-02 4.13103E-24
5.06030E-02 3.82306E-24
5.25328E-02 3.54321E-24
5.44967E-02 3.28844E-24
5.64946E-02 3.05612E-24
5.85262E-02 2.84390E-24
6.05914E-02 2.64974E-24
6.26901E-02 2.47182E-24
6.48222E-02 2.30854E-24
6.69873E-02 2.15847E-24
6.91854E-02 2.02036E-24
7.14163E-02 1.89308E-24
7.36799E-02 1.77562E-24
7.59760E-02 1.66709E-24
7.83043E-02 1.56669E-24
8.06647E-02 1.47369E-24
8.30571E-02 1.38746E-24
8.54812E-02 1.30741E-24
8.79369E-02 1.23301E-24
9.04240E-02 1.16380E-24
9.29422E-02 1.09935E-24
9.54915E-02 1.03926E-24
9.80716E-02 9.83197E-25
1.00682E-01 9.30834E-25
1.03323E-01 8.81882E-25
1.05995E-01 8.36080E-25
1.08696E-01 7.93187E-25
1.11427E-01 7.52985E-25
1.14188E-01 7.15274E-25
1.16978E-01 6.79871E-25
1.19797E-01 6.46610E-25
1.22645E-01 6.15335E-25
1.25522E-01 5.85909E-25
1.28428E-01 5.58200E-25
1.31361E-01 5.32090E-25
1.34323E-01 5.07470E-25
1.37313E-01 4.84240E-25
1.40330E-01 4.62306E-25
1.43375E-01 4.41583E-25
1.46447E-01 4.21991E-25
1.49545E-01 4.03458E-25
1.52671E-01 3.85916E-25
1.55823E-01 3.69302E-25
1.59001E-01 3.53558E-25
1.62205E-01 3.38630E-25
1.65435E-01 3.24469E-25
1.68690E-01 3.11026E-25
1.71970E-01 2.98260E-25
1.75276E-01 2.86129E-25
1.78606E-01 2.74597E-25
1.81961E-01 2.63629E-25
1.85340E-01 2.53191E-25
1.88743E-01 2.43254E-25
1.92169E-01 2.33789E-25
1.95619E-01 2.24770E-25
1.99092E-01 2.16171E-25
2.02589E-01 2.07970E-25
2.06107E-01 2.00144E-25
2.09649E-01 1.92674E-25
2.13212E-01 1.85540E-25
2.16797E-01 1.78725E-25
2.20404E-01 1.72211E-25
2.24032E-01 1.65983E-25
2.27680E-01 1.60026E-25
2.31350E-01 1.54326E-25
2.35040E-01 1.48870E-25
2.38751E-01 1.43646E-25
2.42481E-01 1.38641E-25
2.46231E-01 1.33846E-25
2.50000E-01 1.29249E-25
2.53788E-01 1.24842E-25
2.57595E-01 1.20614E-25
2.61421E-01 1.16557E-25
2.65264E-01 1.12663E-25
2.69126E-01 1.08924E-25
2.73005E-01 1.05333E-25
2.76901E-01 1.01884E-25
2.80814E-01 9.85685E-26
2.84744E-01 9.53815E-26
2.88691E-01 9.23170E-26
2.92653E-01 8.93693E-26
2.96632E-01 8.65333E-26
3.00625E-01 8.38039E-26
3.04634E-01 8.11763E-26
3.08658E-01 7.86462E-26
3.12697E-01 7.62093E-26
3.16749E-01 7.38615E-26
3.20816E-01 7.15989E-26
3.24896E-01 6.94180E-26
3.28990E-01 6.73152E-26
3.33097E-01 6.52873E-26
3.37216E-01 6.33311E-26
3.41348E-01 6.14437E-26
3.45492E-01 5.96221E-26
3.49647E-01 5.78637E-26
3.53814E-01 5.61659E-26
3.57992E-01 5.45263E-26
3.62181E-01 5.29424E-26
3.66381E-01 5.14122E-26
3.70590E-01 4.99333E-26
3.74810E-01 4.85039E-26
3.79039E-01 4.71219E-26
3.83277E-01 4.57856E-26
3.87524E-01 4.44931E-26
3.91780E-01 4.32428E-26
3.96044E-01 4.20330E-26
4.00316E-01 4.08622E-26
4.04596E-01 3.97289E-26
4.08882E-01 3.86318E-26
4.13176E-01 3.75694E-26
4.17476E-01 3.65405E-26
4.21783E-01 3.55438E-26
4.26095E-01 3.45781E-26
4.30413E-01 3.36424E-26
4.34737E-01 3.27356E-26
4.39065E-01 3.18565E-26
4.43398E-01 3.10042E-26
4.47736E-01 3.01777E-26
4.52077E-01 2.93762E-26
4.56422E-01 2.85987E-26
4.60770E-01 2.78445E-26
4.65122E-01 2.71126E-26
4.69476E-01 2.64023E-26
4.73832E-01 2.57129E-26
4.78190E-01 2.50437E-26
4.82550E-01 2.43939E-26
4.86912E-01 2.37630E-26
4.91274E-01 2.31502E-26
4.95637E-01 2.25549E-26
5.00000E-01 2.19767E-26
5.04363E-01 2.14148E-26
5.08726E-01 2.08688E-26
5.13088E-01 2.03382E-26
5.17450E-01 1.98224E-26
5.21810E-01 1.93210E-26
5.26168E-01 1.88335E-26
5.30524E-01 1.83594E-26
5.34878E-01 1.78984E-26
5.39230E-01 1.74499E-26
5.43578E-01 1.70137E-26
5.47923E-01 1.65892E-26
5.52264E-01 1.61763E-26
5.56602E-01 1.57744E-26
5.60935E-01 1.53832E-26
5.65263E-01 1.50025E-26
5.69587E-01 1.46319E-26
5.73905E-01 1.42710E-26
5.78217E-01 1.39196E-26
5.82524E-01 1.35775E-26
5.86824E-01 1.32442E-26
5.91118E-01 1.29196E-26
5.95404E-01 1.26034E-26
5.99684E-01 1.22953E-26
6.03956E-01 1.19952E-26
6.08220E-01 1.17027E-26
6.12476E-01 1.14176E-26
6.16723E-01 1.11398E-26
6.20961E-01 1.08690E-26
6.25190E-01 1.06050E-26
6.29410E-01 1.03476E-26
6.33619E-01 1.00966E-26
6.37819E-01 9.85192E-27
6.42008E-01 9.61327E-27
6.46186E-01 9.38051E-27
6.50353E-01 9.15348E-27
6.54508E-01 8.93201E-27
6.58652E-01 8.71596E-27
6.62784E-01 8.50516E-27
6.66903E-01 8.29948E-27
6.71010E-01 8.09877E-27
6.75104E-01 7.90291E-27
6.79184E-01 7.71174E-27
6.83251E-01 7.52516E-27
6.87303E-01 7.34302E-27
6.91342E-01 7.16522E-27
6.95366E-01 6.99164E-27
6.99375E-01 6.82216E-27
7.03368E-01 6.65668E-27
7.07347E-01 6.49509E-27
7.11309E-01 6.33728E-27
7.15256E-01 6.18316E-27
7.19186E-01 6.03263E-27
7.23099E-01 5.88560E-27
7.26995E-01 5.74198E-27
7.30874E-01 5.60167E-27
7.34736E-01 5.46460E-27
7.38579E-01 5.33068E-27
7.42405E-01 5.19983E-27
7.46212E-01 5.07197E-27
7.50000E-01 4.94703E-27
7.53769E-01 4.82493E-27
7.57519E-01 4.70561E-27
7.61249E-01 4.58899E-27
7.64960E-01 4.47501E-27
7.68650E-01 4.36359E-27
7.72320E-01 4.25469E-27
7.75968E-01 4.14823E-27
7.79596E-01 4.04416E-27
7.83203E-01 3.94242E-27
7.86788E-01 3.84295E-27
7.90351E-01 3.74570E-27
7.93893E-01 3.65062E-27
7.97411E-01 3.55764E-27
8.00908E-01 3.46674E-27
8.04381E-01 3.37784E-27
8.07831E-01 3.29092E-27
8.11257E-01 3.20591E-27
8.14660E-01 3.12278E-27
8.18039E-01 3.04149E-27
8.21394E-01 2.96198E-27
8.24724E-01 2.88423E-27
8.28030E-01 2.80818E-27
8.31310E-01 2.73381E-27
8.34565E-01 2.66107E-27
8.37795E-01 2.58992E-27
8.40999E-01 2.52034E-27
8.44177E-01 2.45228E-27
8.47329E-01 2.38571E-27
8.50455E-01 2.32061E-27
8.53553E-01 2.25693E-27
8.56625E-01 2.19464E-27
8.59670E-01 2.13372E-27
8.62687E-01 2.07414E-27
8.65677E-01 2.01587E-27
8.68639E-01 1.95887E-27
8.71572E-01 1.90313E-27
8.74478E-01 1.84862E-27
8.77355E-01 1.79530E-27
8.80203E-01 1.74316E-27
8.83022E-01 1.69217E-27
8.85812E-01 1.64231E-27
8.88573E-01 1.59355E-27
8.91304E-01 1.54588E-27
8.94005E-01 1.49926E-27
8.96677E-01 1.45369E-27
8.99318E-01 1.40913E-27
9.01928E-01 1.36557E-27
9.04508E-01 1.32299E-27
9.07058E-01 1.28137E-27
9.09576E-01 1.24069E-27
9.12063E-01 1.20093E-27
9.14519E-01 1.16207E-27
9.16943E-01 1.12411E-27
9.19335E-01 1.08702E-27
9.21696E-01 1.05078E-27
9.24024E-01 1.01538E-27
9.26320E-01 9.80809E-28
9.28584E-01 9.47045E-28
9.30815E-01 9.14076E-28
9.33013E-01 8.81888E-28
9.35178E-01 8.50467E-28
9.37310E-01 8.19800E-28
9.39409E-01 7.89874E-28
9.41474E-01 7.60676E-28
9.43505E-01 7.32194E-28
9.45503E-01 7.04416E-28
9.47467E-01 6.77330E-28
9.49397E-01 6.50926E-28
9.51293E-01 6.25192E-28
9.53154E-01 6.00118E-28
9.54981E-01 5.75693E-28
9.56773E-01 5.51907E-28
9.58530E-01 5.28751E-28
9.60252E-01 5.06215E-28
9.61940E-01 4.84290E-28
9.63592E-01 4.62968E-28
9.65209E-01 4.42239E-28
9.66790E-01 4.22095E-28
9.68336E-01 4.02528E-28
9.69846E-01 3.83531E-28
9.71321E-01 3.65095E-28
9.72759E-01 3.47213E-28
9.74162E-01 3.29879E-28
9.75528E-01 3.13085E-28
9.76858E-01 2.96824E-28
9.78152E-01 2.81091E-28
9.79410E-01 2.65879E-28
9.80631E-01 2.51182E-28
9.81815E-01 2.36995E-28
9.82963E-01 2.23311E-28
9.84074E-01 2.10126E-28
9.85148E-01 1.97434E-28
9.86185E-01 1.85230E-28
9.87185E-01 1.73510E-28
9.88148E-01 1.62269E-28
9.89074E-01 1.51503E-28
9.89962E-01 1.41207E-28
9.90814E-01 1.31378E-28
9.91627E-01 1.22012E-28
9.92404E-01 1.13105E-28
9.93143E-01 1.04654E-28
9.93844E-01 9.66554E-29
9.94508E-01 8.91063E-29
9.95134E-01 8.20038E-29
9.95722E-01 7.53452E-29
9.96273E-01 6.91280E-29
9.96786E-01 6.33497E-29
9.97261E-01 5.80083E-29
9.97698E-01 5.31015E-29
9.98097E-01 4.86277E-29
9.98459E-01 4.45851E-29
9.98782E-01 4.09720E-29
9.99067E-01 3.77873E-29
9.99315E-01 3.50296E-29
9.99524E-01 3.26980E-29
9.99695E-01 3.07915E-29
9.99829E-01 2.93094E-29
9.99924E-01 2.82512E-29
9.99981E-01 2.76164E-29
1.00000E+00 2.74048E-29
