 #
 # Subroutine ELSEPA. Elastic scattering of electrons and positrons
 #                    by neutral atoms and positive ions
 #
 # Projectile: electron
 # Kinetic energy = 9.00000E+08 eV = 3.30744E+07 a.u.
 #
 # WARNING: High-energy factorization with free-atom DF screening.
 #          Absorption, polarization and exchange corrections are
 #          switched off.
 #          Phase shifts are calculated for the bare nucleus.
 #          Scattering amplitudes are not evaluated.
 #
 # Element: Al,  Z =  13,  atomic weight = 2.69815E+01 g/mol
 #
 # Nuclear model: Fermi distribution
 #                Average radius = 3.20927E-13 cm
 #                Skin thickness = 5.46000E-14 cm
 #
 # Number of electrons = 13
 #
 # Total elastic cross section = 7.60314E-19 cm**2 = 2.71513E-02 a0**2
 # 1st transport cross section = 4.52927E-28 cm**2 = 1.61743E-11 a0**2
 # 2nd transport cross section = 1.35851E-27 cm**2 = 4.85134E-11 a0**2
 #
 #
 # Differential cross section:                       MU=(1-COS(THETA))/2
 #
 #  THETA        MU          DCS          DCS        Sherman      error
 #  (deg)                 (cm**2/sr)   (a0**2/sr)    function
 #----------------------------------------------------------------------
0.00000E+00 1.07706E-08
7.61557E-13 8.05701E-09
1.18994E-12 6.95150E-09
1.71346E-12 5.87977E-09
2.33225E-12 4.89687E-09
3.04617E-12 4.04566E-09
3.85530E-12 3.32071E-09
4.75964E-12 2.72226E-09
5.75917E-12 2.23397E-09
6.85391E-12 1.83911E-09
8.04379E-12 1.52186E-09
9.32893E-12 1.26713E-09
1.07092E-11 1.06297E-09
1.21847E-11 8.98207E-10
1.37554E-11 7.65265E-10
1.54213E-11 6.57169E-10
1.71823E-11 5.68528E-10
1.90386E-11 4.95798E-10
2.09900E-11 4.35309E-10
2.30367E-11 3.84735E-10
2.51785E-11 3.42177E-10
2.74156E-11 3.06021E-10
2.97478E-11 2.75122E-10
3.21752E-11 2.48478E-10
3.46979E-11 2.25411E-10
3.73157E-11 2.05231E-10
4.00286E-11 1.87505E-10
4.28368E-11 1.71905E-10
4.57402E-11 1.57945E-10
4.87388E-11 1.45531E-10
5.18325E-11 1.34409E-10
5.50215E-11 1.24332E-10
5.83057E-11 1.15273E-10
6.16850E-11 1.07026E-10
6.51595E-11 9.95071E-11
6.87293E-11 9.26856E-11
7.23943E-11 8.63880E-11
7.61544E-11 8.06298E-11
1.18991E-10 4.24306E-11
1.71347E-10 2.37981E-11
2.33223E-10 1.40366E-11
3.04617E-10 8.67547E-12
3.85531E-10 5.60348E-12
4.75965E-10 3.76158E-12
5.75917E-10 2.61358E-12
6.85389E-10 1.87215E-12
8.04380E-10 1.37674E-12
9.32891E-10 1.03606E-12
1.07092E-09 7.95397E-13
1.21847E-09 6.21363E-13
1.37554E-09 4.92878E-13
1.54213E-09 3.96217E-13
1.71823E-09 3.22333E-13
1.90386E-09 2.64994E-13
2.09900E-09 2.19932E-13
2.30367E-09 1.84093E-13
2.51785E-09 1.55283E-13
2.74156E-09 1.31911E-13
2.97478E-09 1.12771E-13
3.21752E-09 9.69837E-14
3.46978E-09 8.38602E-14
3.73156E-09 7.28796E-14
4.00286E-09 6.36358E-14
4.28368E-09 5.58063E-14
4.57402E-09 4.91424E-14
4.87388E-09 4.34395E-14
5.18326E-09 3.85377E-14
5.50215E-09 3.43056E-14
5.83057E-09 3.06361E-14
6.16850E-09 2.74428E-14
6.51596E-09 2.46526E-14
6.87293E-09 2.22070E-14
7.23942E-09 2.00559E-14
7.61544E-09 1.81579E-14
1.18991E-08 7.52943E-15
1.71347E-08 3.65232E-15
2.33223E-08 1.97734E-15
3.04617E-08 1.16101E-15
3.85531E-08 7.25524E-16
4.75965E-08 4.76306E-16
5.75917E-08 3.25453E-16
6.85389E-08 2.29853E-16
8.04380E-08 1.66911E-16
9.32891E-08 1.24110E-16
1.07092E-07 9.41884E-17
1.21847E-07 7.27640E-17
1.37554E-07 5.70987E-17
1.54213E-07 4.54295E-17
1.71823E-07 3.65947E-17
1.90386E-07 2.98070E-17
2.09900E-07 2.45225E-17
2.30367E-07 2.03590E-17
2.51785E-07 1.70427E-17
2.74156E-07 1.43751E-17
2.97478E-07 1.22095E-17
3.21752E-07 1.04368E-17
3.46978E-07 8.97451E-18
3.73156E-07 7.75956E-18
4.00286E-07 6.74343E-18
4.28368E-07 5.88832E-18
4.57402E-07 5.16455E-18
4.87388E-07 4.54865E-18
5.18325E-07 4.02189E-18
5.50215E-07 3.56922E-18
5.83057E-07 3.17848E-18
6.16850E-07 2.83978E-18
6.51596E-07 2.54502E-18
6.87293E-07 2.28753E-18
7.23942E-07 2.06180E-18
7.61543E-07 1.86323E-18
1.18991E-06 7.63232E-19
1.71347E-06 3.68095E-19
2.33223E-06 1.98701E-19
3.04617E-06 1.16483E-19
3.85531E-06 7.27241E-20
4.75964E-06 4.77174E-20
5.75916E-06 3.25937E-20
6.85388E-06 2.30148E-20
8.04378E-06 1.67104E-20
9.32888E-06 1.24244E-20
1.07092E-05 9.42866E-21
1.21846E-05 7.28388E-21
1.37553E-05 5.71577E-21
1.54212E-05 4.54787E-21
1.71822E-05 3.66363E-21
1.90385E-05 2.98415E-21
2.09899E-05 2.45529E-21
2.30365E-05 2.03856E-21
2.51783E-05 1.70660E-21
2.74153E-05 1.43954E-21
2.97475E-05 1.22273E-21
3.21749E-05 1.04525E-21
3.46974E-05 8.98836E-22
3.73152E-05 7.77195E-22
4.00281E-05 6.75460E-22
4.28362E-05 5.89844E-22
4.57395E-05 5.17376E-22
4.87380E-05 4.55703E-22
5.18317E-05 4.02952E-22
5.50205E-05 3.57618E-22
5.83045E-05 3.18484E-22
6.16838E-05 2.84561E-22
6.51582E-05 2.55038E-22
6.87277E-05 2.29248E-22
7.23925E-05 2.06637E-22
7.61524E-05 1.82985E-22
9.21439E-05 1.24456E-22
1.09658E-04 8.74659E-23
1.28695E-04 6.31792E-23
1.49255E-04 4.67111E-23
1.71338E-04 3.52337E-23
1.94942E-04 2.70419E-23
2.20070E-04 2.10726E-23
2.46720E-04 1.66428E-23
2.74892E-04 1.33016E-23
3.04586E-04 1.07450E-23
3.35803E-04 8.76314E-24
3.68542E-04 7.20874E-24
4.02802E-04 5.97661E-24
4.38585E-04 4.99044E-24
4.75889E-04 4.19416E-24
5.14715E-04 3.54596E-24
5.55063E-04 3.01437E-24
5.96931E-04 2.57540E-24
6.40321E-04 2.21061E-24
6.85233E-04 1.90567E-24
7.31665E-04 1.64936E-24
7.79618E-04 1.43283E-24
8.29092E-04 1.24902E-24
8.80086E-04 1.09229E-24
9.32601E-04 9.58103E-25
9.86636E-04 8.42759E-25
1.04219E-03 7.43250E-25
1.09927E-03 6.57104E-25
1.15786E-03 5.82284E-25
1.21797E-03 5.17102E-25
1.27961E-03 4.60151E-25
1.34276E-03 4.10256E-25
1.40743E-03 3.66430E-25
1.47362E-03 3.27840E-25
1.54133E-03 2.93782E-25
1.61056E-03 2.63658E-25
1.68131E-03 2.36959E-25
1.75357E-03 2.13248E-25
1.82735E-03 1.92151E-25
1.90265E-03 1.73346E-25
1.97947E-03 1.56557E-25
2.05780E-03 1.41544E-25
2.13765E-03 1.28097E-25
2.21902E-03 1.16037E-25
2.30190E-03 1.05205E-25
2.38630E-03 9.54637E-26
2.47222E-03 8.66920E-26
2.55965E-03 7.87843E-26
2.64859E-03 7.16474E-26
2.73905E-03 6.51994E-26
2.83103E-03 5.93677E-26
2.92452E-03 5.40884E-26
3.01952E-03 4.93049E-26
3.11604E-03 4.49667E-26
3.21407E-03 4.10292E-26
3.31362E-03 3.74525E-26
3.41468E-03 3.42012E-26
3.51725E-03 3.12437E-26
3.62133E-03 2.85515E-26
3.72692E-03 2.60994E-26
3.83403E-03 2.38646E-26
3.94265E-03 2.18266E-26
4.05278E-03 1.99673E-26
4.16442E-03 1.82701E-26
4.27757E-03 1.67201E-26
4.39223E-03 1.53040E-26
4.50840E-03 1.40097E-26
4.62608E-03 1.28262E-26
4.74527E-03 1.17437E-26
4.86597E-03 1.07532E-26
4.98817E-03 9.84670E-27
5.11188E-03 9.01680E-27
5.23711E-03 8.25685E-27
5.36383E-03 7.56080E-27
5.49207E-03 6.92314E-27
5.62181E-03 6.33887E-27
5.75306E-03 5.80344E-27
5.88581E-03 5.31270E-27
6.02007E-03 4.86287E-27
6.15583E-03 4.45050E-27
6.29310E-03 4.07246E-27
6.43187E-03 3.72585E-27
6.57214E-03 3.40807E-27
6.71392E-03 3.11671E-27
6.85720E-03 2.84958E-27
7.00198E-03 2.60467E-27
7.14827E-03 2.38015E-27
7.29605E-03 2.17433E-27
7.44534E-03 1.98567E-27
7.59612E-03 1.81277E-27
7.97965E-03 1.44119E-27
8.37255E-03 1.14281E-27
8.77480E-03 9.03517E-28
9.18641E-03 7.11946E-28
9.60736E-03 5.58890E-28
1.00376E-02 4.36895E-28
1.04773E-02 3.39928E-28
1.09262E-02 2.63098E-28
1.13844E-02 2.02444E-28
1.18520E-02 1.54756E-28
1.23288E-02 1.17439E-28
1.28150E-02 8.83908E-29
1.33104E-02 6.59163E-29
1.38150E-02 4.86473E-29
1.43290E-02 3.54830E-29
1.48521E-02 2.55395E-29
1.53845E-02 1.81091E-29
1.59262E-02 1.26267E-29
1.64770E-02 8.64319E-30
1.70371E-02 5.80272E-30
1.76063E-02 3.82496E-30
1.81848E-02 2.49025E-30
1.87724E-02 1.62761E-30
1.93692E-02 1.10498E-30
1.99751E-02 8.21262E-31
2.05901E-02 6.99932E-31
2.12143E-02 6.83790E-31
2.18476E-02 7.30793E-31
2.24900E-02 8.10672E-31
2.31415E-02 9.02224E-31
2.38021E-02 9.91166E-31
2.44717E-02 1.06841E-30
2.51504E-02 1.12874E-30
2.58382E-02 1.16970E-30
2.65349E-02 1.19085E-30
2.72407E-02 1.19306E-30
2.79555E-02 1.17808E-30
2.86793E-02 1.14813E-30
2.94120E-02 1.10571E-30
3.01537E-02 1.05331E-30
3.09043E-02 9.93390E-31
3.16639E-02 9.28189E-31
3.24324E-02 8.59738E-31
3.32098E-02 7.89812E-31
3.39961E-02 7.19918E-31
3.47912E-02 6.51305E-31
3.55952E-02 5.84974E-31
3.64081E-02 5.21701E-31
3.72297E-02 4.62058E-31
3.80602E-02 4.06436E-31
3.88995E-02 3.55074E-31
3.97476E-02 3.08079E-31
4.06044E-02 2.65453E-31
4.14700E-02 2.27108E-31
4.23443E-02 1.92891E-31
4.32273E-02 1.62597E-31
4.41190E-02 1.35983E-31
4.50194E-02 1.12786E-31
4.59284E-02 9.27251E-32
4.68461E-02 7.55164E-32
4.87074E-02 4.85344E-32
5.06030E-02 2.96962E-32
5.25328E-02 1.70860E-32
5.44967E-02 9.07326E-33
5.64946E-02 4.32644E-33
5.85262E-02 1.79856E-33
6.05914E-02 6.96458E-34
6.26901E-02 4.42260E-34
6.48222E-02 6.33118E-34
6.69873E-02 1.00293E-33
6.91854E-02 1.38830E-33
7.14163E-02 1.69978E-33
7.36799E-02 1.89858E-33
7.59760E-02 1.97843E-33
7.83043E-02 1.95211E-33
8.06647E-02 1.84183E-33
8.30571E-02 1.67273E-33
8.54812E-02 1.46880E-33
8.79369E-02 1.25064E-33
9.04240E-02 1.03444E-33
9.29422E-02 8.31867E-34
9.54915E-02 6.50394E-34
9.80716E-02 4.93981E-34
1.00682E-01 3.63816E-34
1.03323E-01 2.59072E-34
1.05995E-01 1.77577E-34
1.08696E-01 1.16381E-34
1.11427E-01 7.22031E-35
1.14188E-01 4.17550E-35
1.16978E-01 2.19676E-35
1.19797E-01 1.01245E-35
1.22645E-01 3.92915E-36
1.25522E-01 1.51974E-36
1.28428E-01 1.44916E-36
1.31361E-01 2.64229E-36
1.34323E-01 4.34154E-36
1.37313E-01 6.04853E-36
1.40330E-01 7.46698E-36
1.43375E-01 8.45113E-36
1.46447E-01 8.96070E-36
1.49545E-01 9.02491E-36
1.52671E-01 8.71266E-36
1.55823E-01 8.11196E-36
1.59001E-01 7.31413E-36
1.62205E-01 6.40407E-36
1.65435E-01 5.45450E-36
1.68690E-01 4.52307E-36
1.71970E-01 3.65221E-36
1.75276E-01 2.86980E-36
1.78606E-01 2.19141E-36
1.81961E-01 1.62232E-36
1.85340E-01 1.16017E-36
1.88743E-01 7.97125E-37
1.92169E-01 5.21977E-37
1.95619E-01 3.21793E-37
1.99092E-01 1.83168E-37
2.02589E-01 9.32674E-38
2.06107E-01 4.03784E-38
2.09649E-01 1.43284E-38
2.13212E-01 6.61238E-39
2.16797E-01 1.04076E-38
2.20404E-01 2.04643E-38
2.24032E-01 3.29412E-38
2.27680E-01 4.51895E-38
2.31350E-01 5.55488E-38
2.35040E-01 6.31380E-38
2.38751E-01 6.76340E-38
2.42481E-01 6.91367E-38
2.46231E-01 6.79978E-38
2.50000E-01 6.47143E-38
2.53788E-01 5.98259E-38
2.57595E-01 5.38801E-38
2.61421E-01 4.73537E-38
2.65264E-01 4.06580E-38
2.69126E-01 3.41247E-38
2.73005E-01 2.79838E-38
2.76901E-01 2.24153E-38
2.80814E-01 1.75101E-38
2.84744E-01 1.33150E-38
2.88691E-01 9.82453E-39
2.92653E-01 7.00756E-39
2.96632E-01 4.80252E-39
3.00625E-01 3.13561E-39
3.04634E-01 1.92544E-39
3.08658E-01 1.00000E-45
3.12697E-01 1.00000E-45
3.16749E-01 1.00000E-45
3.20816E-01 1.00000E-45
3.24896E-01 1.00000E-45
3.28990E-01 1.00000E-45
3.33097E-01 1.00000E-45
3.37216E-01 1.00000E-45
3.41348E-01 1.00000E-45
3.45492E-01 1.00000E-45
3.49647E-01 1.00000E-45
3.53814E-01 1.00000E-45
3.57992E-01 1.00000E-45
3.62181E-01 1.00000E-45
3.66381E-01 1.00000E-45
3.70590E-01 1.00000E-45
3.74810E-01 1.00000E-45
3.79039E-01 1.00000E-45
3.83277E-01 1.00000E-45
3.87524E-01 1.00000E-45
3.91780E-01 1.00000E-45
3.96044E-01 1.00000E-45
4.00316E-01 1.00000E-45
4.04596E-01 1.00000E-45
4.08882E-01 1.00000E-45
4.13176E-01 1.00000E-45
4.17476E-01 1.00000E-45
4.21783E-01 1.00000E-45
4.26095E-01 1.00000E-45
4.30413E-01 1.00000E-45
4.34737E-01 1.00000E-45
4.39065E-01 1.00000E-45
4.43398E-01 1.00000E-45
4.47736E-01 1.00000E-45
4.52077E-01 1.00000E-45
4.56422E-01 1.00000E-45
4.60770E-01 1.00000E-45
4.65122E-01 1.00000E-45
4.69476E-01 1.00000E-45
4.73832E-01 1.00000E-45
4.78190E-01 1.00000E-45
4.82550E-01 1.00000E-45
4.86912E-01 1.00000E-45
4.91274E-01 1.00000E-45
4.95637E-01 1.00000E-45
5.00000E-01 1.00000E-45
5.04363E-01 1.00000E-45
5.08726E-01 1.00000E-45
5.13088E-01 1.00000E-45
5.17450E-01 1.00000E-45
5.21810E-01 1.00000E-45
5.26168E-01 1.00000E-45
5.30524E-01 1.00000E-45
5.34878E-01 1.00000E-45
5.39230E-01 1.00000E-45
5.43578E-01 1.00000E-45
5.47923E-01 1.00000E-45
5.52264E-01 1.00000E-45
5.56602E-01 1.00000E-45
5.60935E-01 1.00000E-45
5.65263E-01 1.00000E-45
5.69587E-01 1.00000E-45
5.73905E-01 1.00000E-45
5.78217E-01 1.00000E-45
5.82524E-01 1.00000E-45
5.86824E-01 1.00000E-45
5.91118E-01 1.00000E-45
5.95404E-01 1.00000E-45
5.99684E-01 1.00000E-45
6.03956E-01 1.00000E-45
6.08220E-01 1.00000E-45
6.12476E-01 1.00000E-45
6.16723E-01 1.00000E-45
6.20961E-01 1.00000E-45
6.25190E-01 1.00000E-45
6.29410E-01 1.00000E-45
6.33619E-01 1.00000E-45
6.37819E-01 1.00000E-45
6.42008E-01 1.00000E-45
6.46186E-01 1.00000E-45
6.50353E-01 1.00000E-45
6.54508E-01 1.00000E-45
6.58652E-01 1.00000E-45
6.62784E-01 1.00000E-45
6.66903E-01 1.00000E-45
6.71010E-01 1.00000E-45
6.75104E-01 1.00000E-45
6.79184E-01 1.00000E-45
6.83251E-01 1.00000E-45
6.87303E-01 1.00000E-45
6.91342E-01 1.00000E-45
6.95366E-01 1.00000E-45
6.99375E-01 1.00000E-45
7.03368E-01 1.00000E-45
7.07347E-01 1.00000E-45
7.11309E-01 1.00000E-45
7.15256E-01 1.00000E-45
7.19186E-01 1.00000E-45
7.23099E-01 1.00000E-45
7.26995E-01 1.00000E-45
7.30874E-01 1.00000E-45
7.34736E-01 1.00000E-45
7.38579E-01 1.00000E-45
7.42405E-01 1.00000E-45
7.46212E-01 1.00000E-45
7.50000E-01 1.00000E-45
7.53769E-01 1.00000E-45
7.57519E-01 1.00000E-45
7.61249E-01 1.00000E-45
7.64960E-01 1.00000E-45
7.68650E-01 1.00000E-45
7.72320E-01 1.00000E-45
7.75968E-01 1.00000E-45
7.79596E-01 1.00000E-45
7.83203E-01 1.00000E-45
7.86788E-01 1.00000E-45
7.90351E-01 1.00000E-45
7.93893E-01 1.00000E-45
7.97411E-01 1.00000E-45
8.00908E-01 1.00000E-45
8.04381E-01 1.00000E-45
8.07831E-01 1.00000E-45
8.11257E-01 1.00000E-45
8.14660E-01 1.00000E-45
8.18039E-01 1.00000E-45
8.21394E-01 1.00000E-45
8.24724E-01 1.00000E-45
8.28030E-01 1.00000E-45
8.31310E-01 1.00000E-45
8.34565E-01 1.00000E-45
8.37795E-01 1.00000E-45
8.40999E-01 1.00000E-45
8.44177E-01 1.00000E-45
8.47329E-01 1.00000E-45
8.50455E-01 1.00000E-45
8.53553E-01 1.00000E-45
8.56625E-01 1.00000E-45
8.59670E-01 1.00000E-45
8.62687E-01 1.00000E-45
8.65677E-01 1.00000E-45
8.68639E-01 1.00000E-45
8.71572E-01 1.00000E-45
8.74478E-01 1.00000E-45
8.77355E-01 1.00000E-45
8.80203E-01 1.00000E-45
8.83022E-01 1.00000E-45
8.85812E-01 1.00000E-45
8.88573E-01 1.00000E-45
8.91304E-01 1.00000E-45
8.94005E-01 1.00000E-45
8.96677E-01 1.00000E-45
8.99318E-01 1.00000E-45
9.01928E-01 1.00000E-45
9.04508E-01 1.00000E-45
9.07058E-01 1.00000E-45
9.09576E-01 1.00000E-45
9.12063E-01 1.00000E-45
9.14519E-01 1.00000E-45
9.16943E-01 1.00000E-45
9.19335E-01 1.00000E-45
9.21696E-01 1.00000E-45
9.24024E-01 1.00000E-45
9.26320E-01 1.00000E-45
9.28584E-01 1.00000E-45
9.30815E-01 1.00000E-45
9.33013E-01 1.00000E-45
9.35178E-01 1.00000E-45
9.37310E-01 1.00000E-45
9.39409E-01 1.00000E-45
9.41474E-01 1.00000E-45
9.43505E-01 1.00000E-45
9.45503E-01 1.00000E-45
9.47467E-01 1.00000E-45
9.49397E-01 1.00000E-45
9.51293E-01 1.00000E-45
9.53154E-01 1.00000E-45
9.54981E-01 1.00000E-45
9.56773E-01 1.00000E-45
9.58530E-01 1.00000E-45
9.60252E-01 1.00000E-45
9.61940E-01 1.00000E-45
9.63592E-01 1.00000E-45
9.65209E-01 1.00000E-45
9.66790E-01 1.00000E-45
9.68336E-01 1.00000E-45
9.69846E-01 1.00000E-45
9.71321E-01 1.00000E-45
9.72759E-01 1.00000E-45
9.74162E-01 1.00000E-45
9.75528E-01 1.00000E-45
9.76858E-01 1.00000E-45
9.78152E-01 1.00000E-45
9.79410E-01 1.00000E-45
9.80631E-01 1.00000E-45
9.81815E-01 1.00000E-45
9.82963E-01 1.00000E-45
9.84074E-01 1.00000E-45
9.85148E-01 1.00000E-45
9.86185E-01 1.00000E-45
9.87185E-01 1.00000E-45
9.88148E-01 1.00000E-45
9.89074E-01 1.00000E-45
9.89962E-01 1.00000E-45
9.90814E-01 1.00000E-45
9.91627E-01 1.00000E-45
9.92404E-01 1.00000E-45
9.93143E-01 1.00000E-45
9.93844E-01 1.00000E-45
9.94508E-01 1.00000E-45
9.95134E-01 1.00000E-45
9.95722E-01 1.00000E-45
9.96273E-01 1.00000E-45
9.96786E-01 1.00000E-45
9.97261E-01 1.00000E-45
9.97698E-01 1.00000E-45
9.98097E-01 1.00000E-45
9.98459E-01 1.00000E-45
9.98782E-01 1.00000E-45
9.99067E-01 1.00000E-45
9.99315E-01 1.00000E-45
9.99524E-01 1.00000E-45
9.99695E-01 1.00000E-45
9.99829E-01 1.00000E-45
9.99924E-01 1.00000E-45
9.99981E-01 1.00000E-45
1.00000E+00 1.00000E-45
