 #
 # Subroutine ELSEPA. Elastic scattering of electrons and positrons
 #                    by neutral atoms and positive ions
 #
 # Projectile: electron
 # Kinetic energy = 3.00000E+06 eV = 1.10248E+05 a.u.
 #
 # WARNING: High-energy factorization with free-atom DF screening.
 #          Absorption, polarization and exchange corrections are
 #          switched off.
 #          Phase shifts are calculated for the bare nucleus.
 #          Scattering amplitudes are not evaluated.
 #
 # Element: Al,  Z =  13,  atomic weight = 2.69815E+01 g/mol
 #
 # Nuclear model: Fermi distribution
 #                Average radius = 3.20927E-13 cm
 #                Skin thickness = 5.46000E-14 cm
 #
 # Number of electrons = 13
 #
 # Total elastic cross section = 7.89870E-19 cm**2 = 2.82068E-02 a0**2
 # 1st transport cross section = 2.07539E-23 cm**2 = 7.41137E-07 a0**2
 # 2nd transport cross section = 5.90869E-23 cm**2 = 2.11003E-06 a0**2
 #
 #
 # Differential cross section:                       MU=(1-COS(THETA))/2
 #
 #  THETA        MU          DCS          DCS        Sherman      error
 #  (deg)                 (cm**2/sr)   (a0**2/sr)    function
 #----------------------------------------------------------------------
0.00000E+00 1.63728E-13
7.61557E-13 1.63727E-13
1.18994E-12 1.63727E-13
1.71346E-12 1.63726E-13
2.33225E-12 1.63725E-13
3.04617E-12 1.63725E-13
3.85530E-12 1.63724E-13
4.75964E-12 1.63723E-13
5.75917E-12 1.63722E-13
6.85391E-12 1.63721E-13
8.04379E-12 1.63720E-13
9.32893E-12 1.63718E-13
1.07092E-11 1.63717E-13
1.21847E-11 1.63716E-13
1.37554E-11 1.63714E-13
1.54213E-11 1.63712E-13
1.71823E-11 1.63711E-13
1.90386E-11 1.63709E-13
2.09900E-11 1.63707E-13
2.30367E-11 1.63705E-13
2.51785E-11 1.63703E-13
2.74156E-11 1.63700E-13
2.97478E-11 1.63698E-13
3.21752E-11 1.63696E-13
3.46979E-11 1.63693E-13
3.73157E-11 1.63690E-13
4.00286E-11 1.63688E-13
4.28368E-11 1.63685E-13
4.57402E-11 1.63682E-13
4.87388E-11 1.63679E-13
5.18325E-11 1.63676E-13
5.50215E-11 1.63673E-13
5.83057E-11 1.63670E-13
6.16850E-11 1.63666E-13
6.51595E-11 1.63663E-13
6.87293E-11 1.63659E-13
7.23943E-11 1.63655E-13
7.61544E-11 1.63652E-13
1.18991E-10 1.63609E-13
1.71347E-10 1.63557E-13
2.33223E-10 1.63496E-13
3.04617E-10 1.63425E-13
3.85531E-10 1.63345E-13
4.75965E-10 1.63255E-13
5.75917E-10 1.63156E-13
6.85389E-10 1.63048E-13
8.04380E-10 1.62931E-13
9.32891E-10 1.62804E-13
1.07092E-09 1.62668E-13
1.21847E-09 1.62523E-13
1.37554E-09 1.62369E-13
1.54213E-09 1.62205E-13
1.71823E-09 1.62033E-13
1.90386E-09 1.61851E-13
2.09900E-09 1.61661E-13
2.30367E-09 1.61461E-13
2.51785E-09 1.61253E-13
2.74156E-09 1.61036E-13
2.97478E-09 1.60810E-13
3.21752E-09 1.60576E-13
3.46978E-09 1.60332E-13
3.73156E-09 1.60081E-13
4.00286E-09 1.59820E-13
4.28368E-09 1.59551E-13
4.57402E-09 1.59274E-13
4.87388E-09 1.58988E-13
5.18326E-09 1.58694E-13
5.50215E-09 1.58392E-13
5.83057E-09 1.58082E-13
6.16850E-09 1.57763E-13
6.51596E-09 1.57437E-13
6.87293E-09 1.57103E-13
7.23942E-09 1.56760E-13
7.61544E-09 1.56411E-13
1.18991E-08 1.52504E-13
1.71347E-08 1.47919E-13
2.33223E-08 1.42756E-13
3.04617E-08 1.37118E-13
3.85531E-08 1.31115E-13
4.75965E-08 1.24849E-13
5.75917E-08 1.18422E-13
6.85389E-08 1.11923E-13
8.04380E-08 1.05438E-13
9.32891E-08 9.90360E-14
1.07092E-07 9.27780E-14
1.21847E-07 8.67143E-14
1.37554E-07 8.08440E-14
1.54213E-07 7.52448E-14
1.71823E-07 6.99611E-14
1.90386E-07 6.49979E-14
2.09900E-07 6.03039E-14
2.30367E-07 5.58867E-14
2.51785E-07 5.17820E-14
2.74156E-07 4.79767E-14
2.97478E-07 4.44382E-14
3.21752E-07 4.11489E-14
3.46978E-07 3.81156E-14
3.73156E-07 3.53213E-14
4.00286E-07 3.27465E-14
4.28368E-07 3.03727E-14
4.57402E-07 2.81899E-14
4.87388E-07 2.61830E-14
5.18325E-07 2.43396E-14
5.50215E-07 2.26497E-14
5.83057E-07 2.10952E-14
6.16850E-07 1.96649E-14
6.51596E-07 1.83502E-14
6.87293E-07 1.71488E-14
7.23942E-07 1.60413E-14
7.61543E-07 1.50199E-14
1.18991E-06 8.30678E-15
1.71347E-06 5.11863E-15
2.33223E-06 3.42750E-15
3.04617E-06 2.43047E-15
3.85531E-06 1.79148E-15
4.75964E-06 1.35361E-15
5.75916E-06 1.04176E-15
6.85388E-06 8.12066E-16
8.04378E-06 6.39870E-16
9.32888E-06 5.08798E-16
1.07092E-05 4.07885E-16
1.21846E-05 3.29585E-16
1.37553E-05 2.67689E-16
1.54212E-05 2.19917E-16
1.71822E-05 1.81288E-16
1.90385E-05 1.50787E-16
2.09899E-05 1.26175E-16
2.30365E-05 1.06223E-16
2.51783E-05 9.00435E-17
2.74153E-05 7.67007E-17
2.97475E-05 6.57378E-17
3.21749E-05 5.66435E-17
3.46974E-05 4.90478E-17
3.73152E-05 4.26895E-17
4.00281E-05 3.73198E-17
4.28362E-05 3.27727E-17
4.57395E-05 2.89010E-17
4.87380E-05 2.55848E-17
5.18317E-05 2.27360E-17
5.50205E-05 2.02752E-17
5.83045E-05 1.81417E-17
6.16838E-05 1.62852E-17
6.51582E-05 1.46617E-17
6.87277E-05 1.32386E-17
7.23925E-05 1.19859E-17
7.61524E-05 1.08796E-17
9.21439E-05 7.55949E-18
1.09658E-04 5.42373E-18
1.28695E-04 3.99655E-18
1.49255E-04 3.01161E-18
1.71338E-04 2.31319E-18
1.94942E-04 1.80638E-18
2.20070E-04 1.43106E-18
2.46720E-04 1.14833E-18
2.74892E-04 9.31942E-19
3.04586E-04 7.64112E-19
3.35803E-04 6.32300E-19
3.68542E-04 5.27640E-19
4.02802E-04 4.43693E-19
4.38585E-04 3.75737E-19
4.75889E-04 3.20265E-19
5.14715E-04 2.74624E-19
5.55063E-04 2.36808E-19
5.96931E-04 2.05258E-19
6.40321E-04 1.78777E-19
6.85233E-04 1.56419E-19
7.31665E-04 1.37440E-19
7.79618E-04 1.21246E-19
8.29092E-04 1.07363E-19
8.80086E-04 9.54073E-20
9.32601E-04 8.50664E-20
9.86636E-04 7.60869E-20
1.04219E-03 6.82592E-20
1.09927E-03 6.14113E-20
1.15786E-03 5.53996E-20
1.21797E-03 5.01050E-20
1.27961E-03 4.54271E-20
1.34276E-03 4.12822E-20
1.40743E-03 3.75989E-20
1.47362E-03 3.43171E-20
1.54133E-03 3.13854E-20
1.61056E-03 2.87600E-20
1.68131E-03 2.64033E-20
1.75357E-03 2.42830E-20
1.82735E-03 2.23713E-20
1.90265E-03 2.06440E-20
1.97947E-03 1.90802E-20
2.05780E-03 1.76617E-20
2.13765E-03 1.63726E-20
2.21902E-03 1.51990E-20
2.30190E-03 1.41287E-20
2.38630E-03 1.31510E-20
2.47222E-03 1.22564E-20
2.55965E-03 1.14367E-20
2.64859E-03 1.06843E-20
2.73905E-03 9.99290E-21
2.83103E-03 9.35651E-21
2.92452E-03 8.77001E-21
3.01952E-03 8.22878E-21
3.11604E-03 7.72868E-21
3.21407E-03 7.26603E-21
3.31362E-03 6.83751E-21
3.41468E-03 6.44013E-21
3.51725E-03 6.07123E-21
3.62133E-03 5.72839E-21
3.72692E-03 5.40943E-21
3.83403E-03 5.11237E-21
3.94265E-03 4.83545E-21
4.05278E-03 4.57705E-21
4.16442E-03 4.33569E-21
4.27757E-03 4.11005E-21
4.39223E-03 3.89891E-21
4.50840E-03 3.70116E-21
4.62608E-03 3.51581E-21
4.74527E-03 3.34193E-21
4.86597E-03 3.17868E-21
4.98817E-03 3.02529E-21
5.11188E-03 2.88105E-21
5.23711E-03 2.74531E-21
5.36383E-03 2.61748E-21
5.49207E-03 2.49701E-21
5.62181E-03 2.38340E-21
5.75306E-03 2.27619E-21
5.88581E-03 2.17495E-21
6.02007E-03 2.07928E-21
6.15583E-03 1.98882E-21
6.29310E-03 1.90323E-21
6.43187E-03 1.82220E-21
6.57214E-03 1.74544E-21
6.71392E-03 1.67269E-21
6.85720E-03 1.60369E-21
7.00198E-03 1.53822E-21
7.14827E-03 1.47606E-21
7.29605E-03 1.41701E-21
7.44534E-03 1.36089E-21
7.59612E-03 1.30752E-21
7.97965E-03 1.18513E-21
8.37255E-03 1.07675E-21
8.77480E-03 9.80490E-22
9.18641E-03 8.94763E-22
9.60736E-03 8.18204E-22
1.00376E-02 7.49672E-22
1.04773E-02 6.88176E-22
1.09262E-02 6.32867E-22
1.13844E-02 5.83012E-22
1.18520E-02 5.37977E-22
1.23288E-02 4.97213E-22
1.28150E-02 4.60243E-22
1.33104E-02 4.26651E-22
1.38150E-02 3.96072E-22
1.43290E-02 3.68187E-22
1.48521E-02 3.42717E-22
1.53845E-02 3.19415E-22
1.59262E-02 2.98062E-22
1.64770E-02 2.78466E-22
1.70371E-02 2.60457E-22
1.76063E-02 2.43881E-22
1.81848E-02 2.28605E-22
1.87724E-02 2.14508E-22
1.93692E-02 2.01482E-22
1.99751E-02 1.89432E-22
2.05901E-02 1.78269E-22
2.12143E-02 1.67918E-22
2.18476E-02 1.58308E-22
2.24900E-02 1.49376E-22
2.31415E-02 1.41067E-22
2.38021E-02 1.33327E-22
2.44717E-02 1.26111E-22
2.51504E-02 1.19378E-22
2.58382E-02 1.13088E-22
2.65349E-02 1.07208E-22
2.72407E-02 1.01705E-22
2.79555E-02 9.65505E-23
2.86793E-02 9.17189E-23
2.94120E-02 8.71860E-23
3.01537E-02 8.29298E-23
3.09043E-02 7.89303E-23
3.16639E-02 7.51691E-23
3.24324E-02 7.16294E-23
3.32098E-02 6.82957E-23
3.39961E-02 6.51537E-23
3.47912E-02 6.21904E-23
3.55952E-02 5.93936E-23
3.64081E-02 5.67524E-23
3.72297E-02 5.42563E-23
3.80602E-02 5.18959E-23
3.88995E-02 4.96625E-23
3.97476E-02 4.75480E-23
4.06044E-02 4.55447E-23
4.14700E-02 4.36459E-23
4.23443E-02 4.18449E-23
4.32273E-02 4.01358E-23
4.41190E-02 3.85130E-23
4.50194E-02 3.69714E-23
4.59284E-02 3.55061E-23
4.68461E-02 3.41126E-23
4.87074E-02 3.15246E-23
5.06030E-02 2.91772E-23
5.25328E-02 2.70440E-23
5.44967E-02 2.51020E-23
5.64946E-02 2.33309E-23
5.85262E-02 2.17131E-23
6.05914E-02 2.02328E-23
6.26901E-02 1.88763E-23
6.48222E-02 1.76313E-23
6.69873E-02 1.64870E-23
6.91854E-02 1.54338E-23
7.14163E-02 1.44632E-23
7.36799E-02 1.35674E-23
7.59760E-02 1.27396E-23
7.83043E-02 1.19738E-23
8.06647E-02 1.12645E-23
8.30571E-02 1.06067E-23
8.54812E-02 9.99598E-24
8.79369E-02 9.42840E-24
9.04240E-02 8.90034E-24
9.29422E-02 8.40853E-24
9.54915E-02 7.95004E-24
9.80716E-02 7.52219E-24
1.00682E-01 7.12256E-24
1.03323E-01 6.74895E-24
1.05995E-01 6.39935E-24
1.08696E-01 6.07193E-24
1.11427E-01 5.76502E-24
1.14188E-01 5.47712E-24
1.16978E-01 5.20681E-24
1.19797E-01 4.95283E-24
1.22645E-01 4.71401E-24
1.25522E-01 4.48928E-24
1.28428E-01 4.27765E-24
1.31361E-01 4.07822E-24
1.34323E-01 3.89015E-24
1.37313E-01 3.71269E-24
1.40330E-01 3.54511E-24
1.43375E-01 3.38677E-24
1.46447E-01 3.23706E-24
1.49545E-01 3.09543E-24
1.52671E-01 2.96137E-24
1.55823E-01 2.83438E-24
1.59001E-01 2.71403E-24
1.62205E-01 2.59991E-24
1.65435E-01 2.49163E-24
1.68690E-01 2.38885E-24
1.71970E-01 2.29122E-24
1.75276E-01 2.19845E-24
1.78606E-01 2.11025E-24
1.81961E-01 2.02635E-24
1.85340E-01 1.94650E-24
1.88743E-01 1.87047E-24
1.92169E-01 1.79805E-24
1.95619E-01 1.72903E-24
1.99092E-01 1.66322E-24
2.02589E-01 1.60045E-24
2.06107E-01 1.54055E-24
2.09649E-01 1.48336E-24
2.13212E-01 1.42874E-24
2.16797E-01 1.37655E-24
2.20404E-01 1.32667E-24
2.24032E-01 1.27897E-24
2.27680E-01 1.23334E-24
2.31350E-01 1.18967E-24
2.35040E-01 1.14787E-24
2.38751E-01 1.10784E-24
2.42481E-01 1.06949E-24
2.46231E-01 1.03273E-24
2.50000E-01 9.97499E-25
2.53788E-01 9.63708E-25
2.57595E-01 9.31291E-25
2.61421E-01 9.00183E-25
2.65264E-01 8.70320E-25
2.69126E-01 8.41645E-25
2.73005E-01 8.14100E-25
2.76901E-01 7.87634E-25
2.80814E-01 7.62196E-25
2.84744E-01 7.37739E-25
2.88691E-01 7.14218E-25
2.92653E-01 6.91592E-25
2.96632E-01 6.69819E-25
3.00625E-01 6.48862E-25
3.04634E-01 6.28685E-25
3.08658E-01 6.09253E-25
3.12697E-01 5.90534E-25
3.16749E-01 5.72497E-25
3.20816E-01 5.55113E-25
3.24896E-01 5.38354E-25
3.28990E-01 5.22192E-25
3.33097E-01 5.06604E-25
3.37216E-01 4.91565E-25
3.41348E-01 4.77052E-25
3.45492E-01 4.63044E-25
3.49647E-01 4.49520E-25
3.53814E-01 4.36459E-25
3.57992E-01 4.23844E-25
3.62181E-01 4.11657E-25
3.66381E-01 3.99880E-25
3.70590E-01 3.88497E-25
3.74810E-01 3.77493E-25
3.79039E-01 3.66852E-25
3.83277E-01 3.56561E-25
3.87524E-01 3.46606E-25
3.91780E-01 3.36974E-25
3.96044E-01 3.27653E-25
4.00316E-01 3.18631E-25
4.04596E-01 3.09897E-25
4.08882E-01 3.01440E-25
4.13176E-01 2.93249E-25
4.17476E-01 2.85315E-25
4.21783E-01 2.77628E-25
4.26095E-01 2.70180E-25
4.30413E-01 2.62961E-25
4.34737E-01 2.55963E-25
4.39065E-01 2.49179E-25
4.43398E-01 2.42600E-25
4.47736E-01 2.36219E-25
4.52077E-01 2.30030E-25
4.56422E-01 2.24026E-25
4.60770E-01 2.18199E-25
4.65122E-01 2.12545E-25
4.69476E-01 2.07056E-25
4.73832E-01 2.01728E-25
4.78190E-01 1.96555E-25
4.82550E-01 1.91531E-25
4.86912E-01 1.86652E-25
4.91274E-01 1.81912E-25
4.95637E-01 1.77308E-25
5.00000E-01 1.72833E-25
5.04363E-01 1.68485E-25
5.08726E-01 1.64259E-25
5.13088E-01 1.60151E-25
5.17450E-01 1.56157E-25
5.21810E-01 1.52274E-25
5.26168E-01 1.48497E-25
5.30524E-01 1.44824E-25
5.34878E-01 1.41251E-25
5.39230E-01 1.37776E-25
5.43578E-01 1.34394E-25
5.47923E-01 1.31103E-25
5.52264E-01 1.27900E-25
5.56602E-01 1.24782E-25
5.60935E-01 1.21747E-25
5.65263E-01 1.18793E-25
5.69587E-01 1.15916E-25
5.73905E-01 1.13114E-25
5.78217E-01 1.10386E-25
5.82524E-01 1.07728E-25
5.86824E-01 1.05139E-25
5.91118E-01 1.02617E-25
5.95404E-01 1.00160E-25
5.99684E-01 9.77650E-26
6.03956E-01 9.54312E-26
6.08220E-01 9.31566E-26
6.12476E-01 9.09393E-26
6.16723E-01 8.87778E-26
6.20961E-01 8.66704E-26
6.25190E-01 8.46155E-26
6.29410E-01 8.26117E-26
6.33619E-01 8.06576E-26
6.37819E-01 7.87516E-26
6.42008E-01 7.68924E-26
6.46186E-01 7.50787E-26
6.50353E-01 7.33093E-26
6.54508E-01 7.15828E-26
6.58652E-01 6.98982E-26
6.62784E-01 6.82542E-26
6.66903E-01 6.66498E-26
6.71010E-01 6.50837E-26
6.75104E-01 6.35551E-26
6.79184E-01 6.20629E-26
6.83251E-01 6.06061E-26
6.87303E-01 5.91837E-26
6.91342E-01 5.77948E-26
6.95366E-01 5.64386E-26
6.99375E-01 5.51141E-26
7.03368E-01 5.38206E-26
7.07347E-01 5.25572E-26
7.11309E-01 5.13231E-26
7.15256E-01 5.01175E-26
7.19186E-01 4.89398E-26
7.23099E-01 4.77891E-26
7.26995E-01 4.66649E-26
7.30874E-01 4.55664E-26
7.34736E-01 4.44929E-26
7.38579E-01 4.34439E-26
7.42405E-01 4.24187E-26
7.46212E-01 4.14167E-26
7.50000E-01 4.04374E-26
7.53769E-01 3.94801E-26
7.57519E-01 3.85443E-26
7.61249E-01 3.76295E-26
7.64960E-01 3.67352E-26
7.68650E-01 3.58608E-26
7.72320E-01 3.50060E-26
7.75968E-01 3.41701E-26
7.79596E-01 3.33528E-26
7.83203E-01 3.25536E-26
7.86788E-01 3.17721E-26
7.90351E-01 3.10078E-26
7.93893E-01 3.02603E-26
7.97411E-01 2.95293E-26
8.00908E-01 2.88144E-26
8.04381E-01 2.81151E-26
8.07831E-01 2.74312E-26
8.11257E-01 2.67622E-26
8.14660E-01 2.61078E-26
8.18039E-01 2.54677E-26
8.21394E-01 2.48416E-26
8.24724E-01 2.42291E-26
8.28030E-01 2.36299E-26
8.31310E-01 2.30438E-26
8.34565E-01 2.24704E-26
8.37795E-01 2.19094E-26
8.40999E-01 2.13607E-26
8.44177E-01 2.08238E-26
8.47329E-01 2.02986E-26
8.50455E-01 1.97848E-26
8.53553E-01 1.92821E-26
8.56625E-01 1.87903E-26
8.59670E-01 1.83093E-26
8.62687E-01 1.78386E-26
8.65677E-01 1.73782E-26
8.68639E-01 1.69278E-26
8.71572E-01 1.64872E-26
8.74478E-01 1.60562E-26
8.77355E-01 1.56346E-26
8.80203E-01 1.52222E-26
8.83022E-01 1.48188E-26
8.85812E-01 1.44243E-26
8.88573E-01 1.40384E-26
8.91304E-01 1.36610E-26
8.94005E-01 1.32919E-26
8.96677E-01 1.29309E-26
8.99318E-01 1.25780E-26
9.01928E-01 1.22329E-26
9.04508E-01 1.18954E-26
9.07058E-01 1.15655E-26
9.09576E-01 1.12430E-26
9.12063E-01 1.09278E-26
9.14519E-01 1.06196E-26
9.16943E-01 1.03185E-26
9.19335E-01 1.00242E-26
9.21696E-01 9.73660E-27
9.24024E-01 9.45564E-27
9.26320E-01 9.18117E-27
9.28584E-01 8.91307E-27
9.30815E-01 8.65124E-27
9.33013E-01 8.39557E-27
9.35178E-01 8.14594E-27
9.37310E-01 7.90225E-27
9.39409E-01 7.66441E-27
9.41474E-01 7.43232E-27
9.43505E-01 7.20587E-27
9.45503E-01 6.98499E-27
9.47467E-01 6.76958E-27
9.49397E-01 6.55955E-27
9.51293E-01 6.35482E-27
9.53154E-01 6.15530E-27
9.54981E-01 5.96092E-27
9.56773E-01 5.77159E-27
9.58530E-01 5.58725E-27
9.60252E-01 5.40782E-27
9.61940E-01 5.23323E-27
9.63592E-01 5.06341E-27
9.65209E-01 4.89829E-27
9.66790E-01 4.73781E-27
9.68336E-01 4.58190E-27
9.69846E-01 4.43051E-27
9.71321E-01 4.28358E-27
9.72759E-01 4.14105E-27
9.74162E-01 4.00285E-27
9.75528E-01 3.86896E-27
9.76858E-01 3.73929E-27
9.78152E-01 3.61382E-27
9.79410E-01 3.49249E-27
9.80631E-01 3.37526E-27
9.81815E-01 3.26207E-27
9.82963E-01 3.15290E-27
9.84074E-01 3.04769E-27
9.85148E-01 2.94640E-27
9.86185E-01 2.84900E-27
9.87185E-01 2.75546E-27
9.88148E-01 2.66573E-27
9.89074E-01 2.57978E-27
9.89962E-01 2.49758E-27
9.90814E-01 2.41910E-27
9.91627E-01 2.34431E-27
9.92404E-01 2.27318E-27
9.93143E-01 2.20569E-27
9.93844E-01 2.14181E-27
9.94508E-01 2.08151E-27
9.95134E-01 2.02478E-27
9.95722E-01 1.97158E-27
9.96273E-01 1.92192E-27
9.96786E-01 1.87575E-27
9.97261E-01 1.83308E-27
9.97698E-01 1.79387E-27
9.98097E-01 1.75813E-27
9.98459E-01 1.72583E-27
9.98782E-01 1.69695E-27
9.99067E-01 1.67151E-27
9.99315E-01 1.64947E-27
9.99524E-01 1.63084E-27
9.99695E-01 1.61560E-27
9.99829E-01 1.60376E-27
9.99924E-01 1.59530E-27
9.99981E-01 1.59023E-27
1.00000E+00 1.58854E-27
