 #
 # Subroutine ELSEPA. Elastic scattering of electrons and positrons
 #                    by neutral atoms and positive ions
 #
 # Projectile: electron
 # Kinetic energy = 2.50000E+08 eV = 9.18733E+06 a.u.
 #
 # WARNING: High-energy factorization with free-atom DF screening.
 #          Absorption, polarization and exchange corrections are
 #          switched off.
 #          Phase shifts are calculated for the bare nucleus.
 #          Scattering amplitudes are not evaluated.
 #
 # Element: Al,  Z =  13,  atomic weight = 2.69815E+01 g/mol
 #
 # Nuclear model: Fermi distribution
 #                Average radius = 3.20927E-13 cm
 #                Skin thickness = 5.46000E-14 cm
 #
 # Number of electrons = 13
 #
 # Total elastic cross section = 7.72397E-19 cm**2 = 2.75828E-02 a0**2
 # 1st transport cross section = 5.84363E-27 cm**2 = 2.08680E-10 a0**2
 # 2nd transport cross section = 1.74880E-26 cm**2 = 6.24509E-10 a0**2
 #
 #
 # Differential cross section:                       MU=(1-COS(THETA))/2
 #
 #  THETA        MU          DCS          DCS        Sherman      error
 #  (deg)                 (cm**2/sr)   (a0**2/sr)    function
 #----------------------------------------------------------------------
0.00000E+00 8.33518E-10
7.61557E-13 8.13814E-10
1.18994E-12 8.03038E-10
1.71346E-12 7.90148E-10
2.33225E-12 7.75301E-10
3.04617E-12 7.58672E-10
3.85530E-12 7.40447E-10
4.75964E-12 7.20823E-10
5.75917E-12 7.00006E-10
6.85391E-12 6.78201E-10
8.04379E-12 6.55608E-10
9.32893E-12 6.32420E-10
1.07092E-11 6.08831E-10
1.21847E-11 5.85017E-10
1.37554E-11 5.61140E-10
1.54213E-11 5.37343E-10
1.71823E-11 5.13769E-10
1.90386E-11 4.90535E-10
2.09900E-11 4.67745E-10
2.30367E-11 4.45479E-10
2.51785E-11 4.23746E-10
2.74156E-11 4.02566E-10
2.97478E-11 3.82202E-10
3.21752E-11 3.62675E-10
3.46979E-11 3.43995E-10
3.73157E-11 3.26165E-10
4.00286E-11 3.08964E-10
4.28368E-11 2.92484E-10
4.57402E-11 2.76843E-10
4.87388E-11 2.62017E-10
5.18325E-11 2.47982E-10
5.50215E-11 2.34709E-10
5.83057E-11 2.22029E-10
6.16850E-11 2.10054E-10
6.51595E-11 1.98758E-10
6.87293E-11 1.88109E-10
7.23943E-11 1.78074E-10
7.61544E-11 1.68615E-10
1.18991E-10 9.96783E-11
1.71347E-10 6.21815E-11
2.33223E-10 4.12062E-11
3.04617E-10 2.88805E-11
3.85531E-10 2.12101E-11
4.75965E-10 1.61497E-11
5.75917E-10 1.26380E-11
6.85389E-10 1.00945E-11
8.04380E-10 8.18453E-12
9.32891E-10 6.71039E-12
1.07092E-09 5.55205E-12
1.21847E-09 4.62745E-12
1.37554E-09 3.87994E-12
1.54213E-09 3.26909E-12
1.71823E-09 2.76799E-12
1.90386E-09 2.35431E-12
2.09900E-09 2.01092E-12
2.30367E-09 1.72394E-12
2.51785E-09 1.48248E-12
2.74156E-09 1.27940E-12
2.97478E-09 1.11189E-12
3.21752E-09 9.66279E-13
3.46978E-09 8.44844E-13
3.73156E-09 7.40205E-13
4.00286E-09 6.51149E-13
4.28368E-09 5.74704E-13
4.57402E-09 5.08681E-13
4.87388E-09 4.51942E-13
5.18326E-09 4.02435E-13
5.50215E-09 3.59686E-13
5.83057E-09 3.22164E-13
6.16850E-09 2.89486E-13
6.51596E-09 2.60766E-13
6.87293E-09 2.35515E-13
7.23942E-09 2.13250E-13
7.61544E-09 1.93529E-13
1.18991E-08 8.22048E-14
1.71347E-08 4.09097E-14
2.33223E-08 2.27096E-14
3.04617E-08 1.36325E-14
3.85531E-08 8.67830E-15
4.75965E-08 5.78367E-15
5.75917E-08 3.99947E-15
6.85389E-08 2.85165E-15
8.04380E-08 2.08637E-15
9.32891E-08 1.56062E-15
1.07092E-07 1.19000E-15
1.21847E-07 9.22805E-16
1.37554E-07 7.26349E-16
1.54213E-07 5.79350E-16
1.71823E-07 4.67634E-16
1.90386E-07 3.81530E-16
2.09900E-07 3.14320E-16
2.30367E-07 2.61251E-16
2.51785E-07 2.18902E-16
2.74156E-07 1.84785E-16
2.97478E-07 1.57054E-16
3.21752E-07 1.34328E-16
3.46978E-07 1.15563E-16
3.73156E-07 9.99600E-17
4.00286E-07 8.69012E-17
4.28368E-07 7.59050E-17
4.57402E-07 6.65929E-17
4.87388E-07 5.86651E-17
5.18325E-07 5.18819E-17
5.50215E-07 4.60508E-17
5.83057E-07 4.10159E-17
6.16850E-07 3.66504E-17
6.51596E-07 3.28502E-17
6.87293E-07 2.95299E-17
7.23942E-07 2.66185E-17
7.61543E-07 2.40571E-17
1.18991E-06 9.85960E-18
1.71347E-06 4.75617E-18
2.33223E-06 2.56750E-18
3.04617E-06 1.50513E-18
3.85531E-06 9.39712E-19
4.75964E-06 6.16588E-19
5.75916E-06 4.21166E-19
6.85388E-06 2.97391E-19
8.04378E-06 2.15928E-19
9.32888E-06 1.60545E-19
1.07092E-05 1.21835E-19
1.21846E-05 9.41211E-20
1.37553E-05 7.38583E-20
1.54212E-05 5.87669E-20
1.71822E-05 4.73409E-20
1.90385E-05 3.85609E-20
2.09899E-05 3.17269E-20
2.30365E-05 2.63420E-20
2.51783E-05 2.20525E-20
2.74153E-05 1.86016E-20
2.97475E-05 1.58000E-20
3.21749E-05 1.35066E-20
3.46974E-05 1.16147E-20
3.73152E-05 1.00428E-20
4.00281E-05 8.72823E-21
4.28362E-05 7.62192E-21
4.57395E-05 6.68549E-21
4.87380E-05 5.88856E-21
5.18317E-05 5.20692E-21
5.50205E-05 4.62111E-21
5.83045E-05 4.11543E-21
6.16838E-05 3.67708E-21
6.51582E-05 3.29558E-21
6.87277E-05 2.96232E-21
7.23925E-05 2.67015E-21
7.61524E-05 2.40962E-21
9.21439E-05 1.64567E-21
1.09658E-04 1.16182E-21
1.28695E-04 8.43384E-22
1.49255E-04 6.26908E-22
1.71338E-04 4.75615E-22
1.94942E-04 3.67306E-22
2.20070E-04 2.88127E-22
2.46720E-04 2.29164E-22
2.74892E-04 1.84528E-22
3.04586E-04 1.50238E-22
3.35803E-04 1.23547E-22
3.68542E-04 1.02521E-22
4.02802E-04 8.57765E-23
4.38585E-04 7.23095E-23
4.75889E-04 6.13798E-23
5.14715E-04 5.24349E-23
5.55063E-04 4.50580E-23
5.96931E-04 3.89307E-23
6.40321E-04 3.38075E-23
6.85233E-04 2.94975E-23
7.31665E-04 2.58507E-23
7.79618E-04 2.27485E-23
8.29092E-04 2.00961E-23
8.80086E-04 1.78178E-23
9.32601E-04 1.58519E-23
9.86636E-04 1.41486E-23
1.04219E-03 1.26668E-23
1.09927E-03 1.13730E-23
1.15786E-03 1.02393E-23
1.21797E-03 9.24261E-24
1.27961E-03 8.36348E-24
1.34276E-03 7.58573E-24
1.40743E-03 6.89566E-24
1.47362E-03 6.28172E-24
1.54133E-03 5.73407E-24
1.61056E-03 5.24431E-24
1.68131E-03 4.80529E-24
1.75357E-03 4.41084E-24
1.82735E-03 4.05565E-24
1.90265E-03 3.73514E-24
1.97947E-03 3.44535E-24
2.05780E-03 3.18281E-24
2.13765E-03 2.94452E-24
2.21902E-03 2.72786E-24
2.30190E-03 2.53051E-24
2.38630E-03 2.35046E-24
2.47222E-03 2.18592E-24
2.55965E-03 2.03533E-24
2.64859E-03 1.89730E-24
2.73905E-03 1.77060E-24
2.83103E-03 1.65414E-24
2.92452E-03 1.54694E-24
3.01952E-03 1.44814E-24
3.11604E-03 1.35697E-24
3.21407E-03 1.27273E-24
3.31362E-03 1.19481E-24
3.41468E-03 1.12265E-24
3.51725E-03 1.05575E-24
3.62133E-03 9.93653E-25
3.72692E-03 9.35963E-25
3.83403E-03 8.82310E-25
3.94265E-03 8.32362E-25
4.05278E-03 7.85819E-25
4.16442E-03 7.42408E-25
4.27757E-03 7.01881E-25
4.39223E-03 6.64014E-25
4.50840E-03 6.28602E-25
4.62608E-03 5.95458E-25
4.74527E-03 5.64412E-25
4.86597E-03 5.35308E-25
4.98817E-03 5.08003E-25
5.11188E-03 4.82366E-25
5.23711E-03 4.58280E-25
5.36383E-03 4.35632E-25
5.49207E-03 4.14324E-25
5.62181E-03 3.94261E-25
5.75306E-03 3.75359E-25
5.88581E-03 3.57538E-25
6.02007E-03 3.40727E-25
6.15583E-03 3.24859E-25
6.29310E-03 3.09871E-25
6.43187E-03 2.95706E-25
6.57214E-03 2.82312E-25
6.71392E-03 2.69639E-25
6.85720E-03 2.57642E-25
7.00198E-03 2.46279E-25
7.14827E-03 2.35511E-25
7.29605E-03 2.25300E-25
7.44534E-03 2.15615E-25
7.59612E-03 2.06422E-25
7.97965E-03 1.85409E-25
8.37255E-03 1.66894E-25
8.77480E-03 1.50534E-25
9.18641E-03 1.36040E-25
9.60736E-03 1.23167E-25
1.00376E-02 1.11707E-25
1.04773E-02 1.01482E-25
1.09262E-02 9.23384E-26
1.13844E-02 8.41451E-26
1.18520E-02 7.67889E-26
1.23288E-02 7.01717E-26
1.28150E-02 6.42085E-26
1.33104E-02 5.88255E-26
1.38150E-02 5.39580E-26
1.43290E-02 4.95497E-26
1.48521E-02 4.55511E-26
1.53845E-02 4.19190E-26
1.59262E-02 3.86150E-26
1.64770E-02 3.56054E-26
1.70371E-02 3.28605E-26
1.76063E-02 3.03538E-26
1.81848E-02 2.80620E-26
1.87724E-02 2.59641E-26
1.93692E-02 2.40417E-26
1.99751E-02 2.22781E-26
2.05901E-02 2.06587E-26
2.12143E-02 1.91700E-26
2.18476E-02 1.78003E-26
2.24900E-02 1.65389E-26
2.31415E-02 1.53761E-26
2.38021E-02 1.43035E-26
2.44717E-02 1.33130E-26
2.51504E-02 1.23978E-26
2.58382E-02 1.15514E-26
2.65349E-02 1.07681E-26
2.72407E-02 1.00427E-26
2.79555E-02 9.37044E-27
2.86793E-02 8.74698E-27
2.94120E-02 8.16841E-27
3.01537E-02 7.63118E-27
3.09043E-02 7.13203E-27
3.16639E-02 6.66799E-27
3.24324E-02 6.23635E-27
3.32098E-02 5.83464E-27
3.39961E-02 5.46057E-27
3.47912E-02 5.11208E-27
3.55952E-02 4.78725E-27
3.64081E-02 4.48434E-27
3.72297E-02 4.20175E-27
3.80602E-02 3.93798E-27
3.88995E-02 3.69169E-27
3.97476E-02 3.46163E-27
4.06044E-02 3.24663E-27
4.14700E-02 3.04564E-27
4.23443E-02 2.85768E-27
4.32273E-02 2.68184E-27
4.41190E-02 2.51728E-27
4.50194E-02 2.36323E-27
4.59284E-02 2.21897E-27
4.68461E-02 2.08385E-27
4.87074E-02 1.83857E-27
5.06030E-02 1.62301E-27
5.25328E-02 1.43336E-27
5.44967E-02 1.26636E-27
5.64946E-02 1.11918E-27
5.85262E-02 9.89363E-28
6.05914E-02 8.74789E-28
6.26901E-02 7.73600E-28
6.48222E-02 6.84183E-28
6.69873E-02 6.05129E-28
6.91854E-02 5.35205E-28
7.14163E-02 4.73335E-28
7.36799E-02 4.18573E-28
7.59760E-02 3.70088E-28
7.83043E-02 3.27154E-28
8.06647E-02 2.89127E-28
8.30571E-02 2.55444E-28
8.54812E-02 2.25607E-28
8.79369E-02 1.99176E-28
9.04240E-02 1.75764E-28
9.29422E-02 1.55027E-28
9.54915E-02 1.36663E-28
9.80716E-02 1.20403E-28
1.00682E-01 1.06010E-28
1.03323E-01 9.32722E-29
1.05995E-01 8.20036E-29
1.08696E-01 7.20385E-29
1.11427E-01 6.32298E-29
1.14188E-01 5.54473E-29
1.16978E-01 4.85749E-29
1.19797E-01 4.25098E-29
1.22645E-01 3.71606E-29
1.25522E-01 3.24461E-29
1.28428E-01 2.82941E-29
1.31361E-01 2.46404E-29
1.34323E-01 2.14282E-29
1.37313E-01 1.86066E-29
1.40330E-01 1.61308E-29
1.43375E-01 1.39606E-29
1.46447E-01 1.20607E-29
1.49545E-01 1.03993E-29
1.52671E-01 8.94852E-30
1.55823E-01 7.68343E-30
1.59001E-01 6.58197E-30
1.62205E-01 5.62454E-30
1.65435E-01 4.79378E-30
1.68690E-01 4.07429E-30
1.71970E-01 3.45246E-30
1.75276E-01 2.91620E-30
1.78606E-01 2.45484E-30
1.81961E-01 2.05895E-30
1.85340E-01 1.72019E-30
1.88743E-01 1.43121E-30
1.92169E-01 1.18552E-30
1.95619E-01 9.77400E-31
1.99092E-01 8.01832E-31
2.02589E-01 6.54393E-31
2.06107E-01 5.31207E-31
2.09649E-01 4.28873E-31
2.13212E-01 3.44414E-31
2.16797E-01 2.75231E-31
2.20404E-01 2.19052E-31
2.24032E-01 1.73903E-31
2.27680E-01 1.38063E-31
2.31350E-01 1.10045E-31
2.35040E-01 8.85574E-32
2.38751E-01 7.24887E-32
2.42481E-01 6.08808E-32
2.46231E-01 5.29123E-32
2.50000E-01 4.78806E-32
2.53788E-01 4.51876E-32
2.57595E-01 4.43259E-32
2.61421E-01 4.48673E-32
2.65264E-01 4.64527E-32
2.69126E-01 4.87824E-32
2.73005E-01 5.16085E-32
2.76901E-01 5.47275E-32
2.80814E-01 5.79744E-32
2.84744E-01 6.12168E-32
2.88691E-01 6.43506E-32
2.92653E-01 6.72951E-32
2.96632E-01 6.99901E-32
3.00625E-01 7.23921E-32
3.04634E-01 7.44720E-32
3.08658E-01 7.62120E-32
3.12697E-01 7.76045E-32
3.16749E-01 7.86493E-32
3.20816E-01 7.93526E-32
3.24896E-01 7.97257E-32
3.28990E-01 7.97835E-32
3.33097E-01 7.95441E-32
3.37216E-01 7.90273E-32
3.41348E-01 7.82544E-32
3.45492E-01 7.72476E-32
3.49647E-01 7.60292E-32
3.53814E-01 7.46218E-32
3.57992E-01 7.30472E-32
3.62181E-01 7.13270E-32
3.66381E-01 6.94816E-32
3.70590E-01 6.75308E-32
3.74810E-01 6.54931E-32
3.79039E-01 6.33859E-32
3.83277E-01 6.12256E-32
3.87524E-01 5.90272E-32
3.91780E-01 5.68045E-32
3.96044E-01 5.45702E-32
4.00316E-01 5.23358E-32
4.04596E-01 5.01116E-32
4.08882E-01 4.79069E-32
4.13176E-01 4.57299E-32
4.17476E-01 4.35878E-32
4.21783E-01 4.14870E-32
4.26095E-01 3.94329E-32
4.30413E-01 3.74301E-32
4.34737E-01 3.54824E-32
4.39065E-01 3.35930E-32
4.43398E-01 3.17645E-32
4.47736E-01 2.99987E-32
4.52077E-01 2.82970E-32
4.56422E-01 2.66605E-32
4.60770E-01 2.50894E-32
4.65122E-01 2.35841E-32
4.69476E-01 2.21441E-32
4.73832E-01 2.07690E-32
4.78190E-01 1.94579E-32
4.82550E-01 1.82098E-32
4.86912E-01 1.70234E-32
4.91274E-01 1.58972E-32
4.95637E-01 1.48298E-32
5.00000E-01 1.38195E-32
5.04363E-01 1.28644E-32
5.08726E-01 1.19627E-32
5.13088E-01 1.11125E-32
5.17450E-01 1.03118E-32
5.21810E-01 9.55876E-33
5.26168E-01 8.85131E-33
5.30524E-01 8.18748E-33
5.34878E-01 7.56533E-33
5.39230E-01 6.98288E-33
5.43578E-01 6.43825E-33
5.47923E-01 5.92954E-33
5.52264E-01 5.45493E-33
5.56602E-01 5.01263E-33
5.60935E-01 4.60089E-33
5.65263E-01 4.21803E-33
5.69587E-01 3.86242E-33
5.73905E-01 3.53250E-33
5.78217E-01 3.22675E-33
5.82524E-01 2.94372E-33
5.86824E-01 2.68202E-33
5.91118E-01 2.44033E-33
5.95404E-01 2.21737E-33
5.99684E-01 2.01194E-33
6.03956E-01 1.82289E-33
6.08220E-01 1.64911E-33
6.12476E-01 1.48958E-33
6.16723E-01 1.34332E-33
6.20961E-01 1.20940E-33
6.25190E-01 1.08693E-33
6.29410E-01 9.75105E-34
6.33619E-01 8.73131E-34
6.37819E-01 7.80282E-34
6.42008E-01 6.95869E-34
6.46186E-01 6.19247E-34
6.50353E-01 5.49812E-34
6.54508E-01 4.86997E-34
6.58652E-01 4.30274E-34
6.62784E-01 3.79148E-34
6.66903E-01 3.33160E-34
6.71010E-01 2.91880E-34
6.75104E-01 2.54909E-34
6.79184E-01 2.21877E-34
6.83251E-01 1.92438E-34
6.87303E-01 1.66274E-34
6.91342E-01 1.43089E-34
6.95366E-01 1.22610E-34
6.99375E-01 1.04584E-34
7.03368E-01 8.87778E-35
7.07347E-01 7.49776E-35
7.11309E-01 6.29854E-35
7.15256E-01 5.26196E-35
7.19186E-01 4.37133E-35
7.23099E-01 3.61141E-35
7.26995E-01 2.96817E-35
7.30874E-01 2.42887E-35
7.34736E-01 1.98182E-35
7.38579E-01 1.61638E-35
7.42405E-01 1.32290E-35
7.46212E-01 1.09261E-35
7.50000E-01 9.17515E-36
7.53769E-01 7.90398E-36
7.57519E-01 7.04794E-36
7.61249E-01 6.54816E-36
7.64960E-01 6.35200E-36
7.68650E-01 6.41192E-36
7.72320E-01 6.68577E-36
7.75968E-01 7.13587E-36
7.79596E-01 7.72849E-36
7.83203E-01 8.43410E-36
7.86788E-01 9.22577E-36
7.90351E-01 1.00811E-35
7.93893E-01 1.09793E-35
7.97411E-01 1.19026E-35
8.00908E-01 1.28362E-35
8.04381E-01 1.37663E-35
8.07831E-01 1.46825E-35
8.11257E-01 1.55740E-35
8.14660E-01 1.64342E-35
8.18039E-01 1.72550E-35
8.21394E-01 1.80322E-35
8.24724E-01 1.87610E-35
8.28030E-01 1.94386E-35
8.31310E-01 2.00620E-35
8.34565E-01 2.06299E-35
8.37795E-01 2.11413E-35
8.40999E-01 2.15956E-35
8.44177E-01 2.19932E-35
8.47329E-01 2.23345E-35
8.50455E-01 2.26201E-35
8.53553E-01 2.28521E-35
8.56625E-01 2.30310E-35
8.59670E-01 2.31591E-35
8.62687E-01 2.32381E-35
8.65677E-01 2.32700E-35
8.68639E-01 2.32571E-35
8.71572E-01 2.32017E-35
8.74478E-01 2.31058E-35
8.77355E-01 2.29717E-35
8.80203E-01 2.28022E-35
8.83022E-01 2.25991E-35
8.85812E-01 2.23650E-35
8.88573E-01 2.21021E-35
8.91304E-01 2.18126E-35
8.94005E-01 2.14985E-35
8.96677E-01 2.11622E-35
8.99318E-01 2.08054E-35
9.01928E-01 2.04307E-35
9.04508E-01 2.00395E-35
9.07058E-01 1.96338E-35
9.09576E-01 1.92151E-35
9.12063E-01 1.87856E-35
9.14519E-01 1.83465E-35
9.16943E-01 1.78994E-35
9.19335E-01 1.74457E-35
9.21696E-01 1.69867E-35
9.24024E-01 1.65241E-35
9.26320E-01 1.60586E-35
9.28584E-01 1.55915E-35
9.30815E-01 1.51238E-35
9.33013E-01 1.46566E-35
9.35178E-01 1.41904E-35
9.37310E-01 1.37268E-35
9.39409E-01 1.32659E-35
9.41474E-01 1.28088E-35
9.43505E-01 1.23561E-35
9.45503E-01 1.19083E-35
9.47467E-01 1.14659E-35
9.49397E-01 1.10297E-35
9.51293E-01 1.05999E-35
9.53154E-01 1.01769E-35
9.54981E-01 9.76143E-36
9.56773E-01 9.35320E-36
9.58530E-01 8.95313E-36
9.60252E-01 8.56101E-36
9.61940E-01 8.17746E-36
9.63592E-01 7.80221E-36
9.65209E-01 7.43579E-36
9.66790E-01 7.07833E-36
9.68336E-01 6.72992E-36
9.69846E-01 6.39055E-36
9.71321E-01 6.06028E-36
9.72759E-01 5.73930E-36
9.74162E-01 5.42754E-36
9.75528E-01 5.12502E-36
9.76858E-01 4.83168E-36
9.78152E-01 4.54781E-36
9.79410E-01 4.27307E-36
9.80631E-01 4.00760E-36
9.81815E-01 3.75132E-36
9.82963E-01 3.50408E-36
9.84074E-01 3.26602E-36
9.85148E-01 3.03685E-36
9.86185E-01 2.81692E-36
9.87185E-01 2.60571E-36
9.88148E-01 2.40346E-36
9.89074E-01 2.20974E-36
9.89962E-01 2.02476E-36
9.90814E-01 1.84839E-36
9.91627E-01 1.68065E-36
9.92404E-01 1.52116E-36
9.93143E-01 1.37013E-36
9.93844E-01 1.22736E-36
9.94508E-01 1.09281E-36
9.95134E-01 9.66336E-37
9.95722E-01 8.47960E-37
9.96273E-01 7.37612E-37
9.96786E-01 6.35141E-37
9.97261E-01 5.40548E-37
9.97698E-01 4.53768E-37
9.98097E-01 3.74634E-37
9.98459E-01 3.03304E-37
9.98782E-01 2.39529E-37
9.99067E-01 1.83398E-37
9.99315E-01 1.34822E-37
9.99524E-01 9.37780E-38
9.99695E-01 6.03048E-38
9.99829E-01 3.42095E-38
9.99924E-01 1.55965E-38
9.99981E-01 4.44078E-39
1.00000E+00 7.21856E-40
