 #
 # Subroutine ELSEPA. Elastic scattering of electrons and positrons
 #                    by neutral atoms and positive ions
 #
 # Projectile: electron
 # Kinetic energy = 2.50000E+07 eV = 9.18733E+05 a.u.
 #
 # WARNING: High-energy factorization with free-atom DF screening.
 #          Absorption, polarization and exchange corrections are
 #          switched off.
 #          Phase shifts are calculated for the bare nucleus.
 #          Scattering amplitudes are not evaluated.
 #
 # Element: Al,  Z =  13,  atomic weight = 2.69815E+01 g/mol
 #
 # Nuclear model: Fermi distribution
 #                Average radius = 3.20927E-13 cm
 #                Skin thickness = 5.46000E-14 cm
 #
 # Number of electrons = 13
 #
 # Total elastic cross section = 7.72848E-19 cm**2 = 2.75989E-02 a0**2
 # 1st transport cross section = 5.06420E-25 cm**2 = 1.80846E-08 a0**2
 # 2nd transport cross section = 1.46758E-24 cm**2 = 5.24082E-08 a0**2
 #
 #
 # Differential cross section:                       MU=(1-COS(THETA))/2
 #
 #  THETA        MU          DCS          DCS        Sherman      error
 #  (deg)                 (cm**2/sr)   (a0**2/sr)    function
 #----------------------------------------------------------------------
0.00000E+00 8.64403E-12
7.61557E-13 8.64184E-12
1.18994E-12 8.64062E-12
1.71346E-12 8.63914E-12
2.33225E-12 8.63738E-12
3.04617E-12 8.63536E-12
3.85530E-12 8.63307E-12
4.75964E-12 8.63051E-12
5.75917E-12 8.62768E-12
6.85391E-12 8.62459E-12
8.04379E-12 8.62123E-12
9.32893E-12 8.61761E-12
1.07092E-11 8.61372E-12
1.21847E-11 8.60956E-12
1.37554E-11 8.60515E-12
1.54213E-11 8.60046E-12
1.71823E-11 8.59552E-12
1.90386E-11 8.59031E-12
2.09900E-11 8.58484E-12
2.30367E-11 8.57911E-12
2.51785E-11 8.57312E-12
2.74156E-11 8.56687E-12
2.97478E-11 8.56036E-12
3.21752E-11 8.55359E-12
3.46979E-11 8.54657E-12
3.73157E-11 8.53929E-12
4.00286E-11 8.53176E-12
4.28368E-11 8.52397E-12
4.57402E-11 8.51593E-12
4.87388E-11 8.50763E-12
5.18325E-11 8.49909E-12
5.50215E-11 8.49030E-12
5.83057E-11 8.48126E-12
6.16850E-11 8.47197E-12
6.51595E-11 8.46243E-12
6.87293E-11 8.45265E-12
7.23943E-11 8.44264E-12
7.61544E-11 8.43237E-12
1.18991E-10 8.31671E-12
1.71347E-10 8.17847E-12
2.33223E-10 8.01939E-12
3.04617E-10 7.84138E-12
3.85531E-10 7.64655E-12
4.75965E-10 7.43705E-12
5.75917E-10 7.21507E-12
6.85389E-10 6.98291E-12
8.04380E-10 6.74276E-12
9.32891E-10 6.49676E-12
1.07092E-09 6.24689E-12
1.21847E-09 5.99504E-12
1.37554E-09 5.74301E-12
1.54213E-09 5.49238E-12
1.71823E-09 5.24457E-12
1.90386E-09 5.00077E-12
2.09900E-09 4.76206E-12
2.30367E-09 4.52939E-12
2.51785E-09 4.30180E-12
2.74156E-09 4.08180E-12
2.97478E-09 3.87069E-12
3.21752E-09 3.66864E-12
3.46978E-09 3.47572E-12
3.73156E-09 3.29145E-12
4.00286E-09 3.11309E-12
4.28368E-09 2.94385E-12
4.57402E-09 2.78350E-12
4.87388E-09 2.63177E-12
5.18326E-09 2.48835E-12
5.50215E-09 2.35207E-12
5.83057E-09 2.22285E-12
6.16850E-09 2.10107E-12
6.51596E-09 1.98636E-12
6.87293E-09 1.87837E-12
7.23942E-09 1.77675E-12
7.61544E-09 1.68087E-12
1.18991E-08 9.87823E-13
1.71347E-08 6.14745E-13
2.33223E-08 4.07296E-13
3.04617E-08 2.85644E-13
3.85531E-08 2.09921E-13
4.75965E-08 1.59941E-13
5.75917E-08 1.25145E-13
6.85389E-08 9.98791E-14
8.04380E-08 8.09088E-14
9.32891E-08 6.62875E-14
1.07092E-07 5.47720E-14
1.21847E-07 4.55664E-14
1.37554E-07 3.81401E-14
1.54213E-07 3.20957E-14
1.71823E-07 2.71408E-14
1.90386E-07 2.30489E-14
2.09900E-07 1.96559E-14
2.30367E-07 1.68325E-14
2.51785E-07 1.44455E-14
2.74156E-07 1.24730E-14
2.97478E-07 1.08123E-14
3.21752E-07 9.39976E-15
3.46978E-07 8.21217E-15
3.73156E-07 7.18865E-15
4.00286E-07 6.32534E-15
4.28368E-07 5.57464E-15
4.57402E-07 4.93524E-15
4.87388E-07 4.38012E-15
5.18325E-07 3.90092E-15
5.50215E-07 3.48427E-15
5.83057E-07 3.12095E-15
6.16850E-07 2.80387E-15
6.51596E-07 2.52518E-15
6.87293E-07 2.28078E-15
7.23942E-07 2.06457E-15
7.61543E-07 1.87384E-15
1.18991E-06 7.95876E-16
1.71347E-06 3.96218E-16
2.33223E-06 2.19956E-16
3.04617E-06 1.32028E-16
3.85531E-06 8.40268E-17
4.75964E-06 5.59839E-17
5.75916E-06 3.87033E-17
6.85388E-06 2.75887E-17
8.04378E-06 2.01807E-17
9.32888E-06 1.50927E-17
1.07092E-05 1.15068E-17
1.21846E-05 8.92220E-18
1.37553E-05 7.02214E-18
1.54212E-05 5.60068E-18
1.71822E-05 4.52051E-18
1.90385E-05 3.68796E-18
2.09899E-05 3.03833E-18
2.30365E-05 2.52538E-18
2.51783E-05 2.11605E-18
2.74153E-05 1.78627E-18
2.97475E-05 1.51820E-18
3.21749E-05 1.29853E-18
3.46974E-05 1.11716E-18
3.73152E-05 9.66351E-19
4.00281E-05 8.40141E-19
4.28362E-05 7.33867E-19
4.57395E-05 6.43867E-19
4.87380E-05 5.67241E-19
5.18317E-05 5.01676E-19
5.50205E-05 4.45311E-19
5.83045E-05 3.96641E-19
6.16838E-05 3.54439E-19
6.51582E-05 3.17704E-19
6.87277E-05 2.85606E-19
7.23925E-05 2.57461E-19
7.61524E-05 2.32696E-19
9.21439E-05 1.59015E-19
1.09658E-04 1.12322E-19
1.28695E-04 8.15787E-20
1.49255E-04 6.06708E-20
1.71338E-04 4.60532E-20
1.94942E-04 3.55839E-20
2.20070E-04 2.79283E-20
2.46720E-04 2.22258E-20
2.74892E-04 1.79076E-20
3.04586E-04 1.45894E-20
3.35803E-04 1.20056E-20
3.68542E-04 9.96955E-21
4.02802E-04 8.34754E-21
4.38585E-04 7.04251E-21
4.75889E-04 5.98294E-21
5.14715E-04 5.11543E-21
5.55063E-04 4.39969E-21
5.96931E-04 3.80492E-21
6.40321E-04 3.30739E-21
6.85233E-04 2.88863E-21
7.31665E-04 2.53413E-21
7.79618E-04 2.23241E-21
8.29092E-04 1.97431E-21
8.80086E-04 1.75248E-21
9.32601E-04 1.56097E-21
9.86636E-04 1.39493E-21
1.04219E-03 1.25040E-21
1.09927E-03 1.12413E-21
1.15786E-03 1.01342E-21
1.21797E-03 9.16013E-22
1.27961E-03 8.30042E-22
1.34276E-03 7.53931E-22
1.40743E-03 6.86353E-22
1.47362E-03 6.26185E-22
1.54133E-03 5.72473E-22
1.61056E-03 5.24403E-22
1.68131E-03 4.81277E-22
1.75357E-03 4.42499E-22
1.82735E-03 4.07551E-22
1.90265E-03 3.75989E-22
1.97947E-03 3.47427E-22
2.05780E-03 3.21528E-22
2.13765E-03 2.98000E-22
2.21902E-03 2.76587E-22
2.30190E-03 2.57065E-22
2.38630E-03 2.39236E-22
2.47222E-03 2.22928E-22
2.55965E-03 2.07987E-22
2.64859E-03 1.94279E-22
2.73905E-03 1.81682E-22
2.83103E-03 1.70091E-22
2.92452E-03 1.59410E-22
3.01952E-03 1.49556E-22
3.11604E-03 1.40452E-22
3.21407E-03 1.32031E-22
3.31362E-03 1.24232E-22
3.41468E-03 1.17001E-22
3.51725E-03 1.10289E-22
3.62133E-03 1.04052E-22
3.72692E-03 9.82503E-23
3.83403E-03 9.28475E-23
3.94265E-03 8.78115E-23
4.05278E-03 8.31126E-23
4.16442E-03 7.87241E-23
4.27757E-03 7.46217E-23
4.39223E-03 7.07834E-23
4.50840E-03 6.71889E-23
4.62608E-03 6.38199E-23
4.74527E-03 6.06596E-23
4.86597E-03 5.76927E-23
4.98817E-03 5.49052E-23
5.11188E-03 5.22842E-23
5.23711E-03 4.98178E-23
5.36383E-03 4.74953E-23
5.49207E-03 4.53067E-23
5.62181E-03 4.32429E-23
5.75306E-03 4.12953E-23
5.88581E-03 3.94563E-23
6.02007E-03 3.77185E-23
6.15583E-03 3.60755E-23
6.29310E-03 3.45211E-23
6.43187E-03 3.30495E-23
6.57214E-03 3.16556E-23
6.71392E-03 3.03345E-23
6.85720E-03 2.90816E-23
7.00198E-03 2.78928E-23
7.14827E-03 2.67642E-23
7.29605E-03 2.56921E-23
7.44534E-03 2.46733E-23
7.59612E-03 2.37044E-23
7.97965E-03 2.14826E-23
8.37255E-03 1.95153E-23
8.77480E-03 1.77683E-23
9.18641E-03 1.62126E-23
9.60736E-03 1.48235E-23
1.00376E-02 1.35802E-23
1.04773E-02 1.24646E-23
1.09262E-02 1.14613E-23
1.13844E-02 1.05570E-23
1.18520E-02 9.74021E-24
1.23288E-02 9.00092E-24
1.28150E-02 8.33048E-24
1.33104E-02 7.72133E-24
1.38150E-02 7.16687E-24
1.43290E-02 6.66130E-24
1.48521E-02 6.19954E-24
1.53845E-02 5.77711E-24
1.59262E-02 5.39006E-24
1.64770E-02 5.03488E-24
1.70371E-02 4.70848E-24
1.76063E-02 4.40809E-24
1.81848E-02 4.13128E-24
1.87724E-02 3.87585E-24
1.93692E-02 3.63986E-24
1.99751E-02 3.42154E-24
2.05901E-02 3.21935E-24
2.12143E-02 3.03185E-24
2.18476E-02 2.85781E-24
2.24900E-02 2.69606E-24
2.31415E-02 2.54559E-24
2.38021E-02 2.40546E-24
2.44717E-02 2.27483E-24
2.51504E-02 2.15293E-24
2.58382E-02 2.03909E-24
2.65349E-02 1.93266E-24
2.72407E-02 1.83307E-24
2.79555E-02 1.73981E-24
2.86793E-02 1.65239E-24
2.94120E-02 1.57038E-24
3.01537E-02 1.49339E-24
3.09043E-02 1.42105E-24
3.16639E-02 1.35303E-24
3.24324E-02 1.28903E-24
3.32098E-02 1.22875E-24
3.39961E-02 1.17195E-24
3.47912E-02 1.11838E-24
3.55952E-02 1.06783E-24
3.64081E-02 1.02010E-24
3.72297E-02 9.74994E-25
3.80602E-02 9.32348E-25
3.88995E-02 8.92001E-25
3.97476E-02 8.53805E-25
4.06044E-02 8.17625E-25
4.14700E-02 7.83335E-25
4.23443E-02 7.50816E-25
4.32273E-02 7.19961E-25
4.41190E-02 6.90669E-25
4.50194E-02 6.62844E-25
4.59284E-02 6.36401E-25
4.68461E-02 6.11257E-25
4.87074E-02 5.64570E-25
5.06030E-02 5.22236E-25
5.25328E-02 4.83776E-25
5.44967E-02 4.48774E-25
5.64946E-02 4.16862E-25
5.85262E-02 3.87721E-25
6.05914E-02 3.61065E-25
6.26901E-02 3.36647E-25
6.48222E-02 3.14243E-25
6.69873E-02 2.93659E-25
6.91854E-02 2.74719E-25
7.14163E-02 2.57270E-25
7.36799E-02 2.41173E-25
7.59760E-02 2.26303E-25
7.83043E-02 2.12552E-25
8.06647E-02 1.99819E-25
8.30571E-02 1.88016E-25
8.54812E-02 1.77062E-25
8.79369E-02 1.66885E-25
9.04240E-02 1.57421E-25
9.29422E-02 1.48610E-25
9.54915E-02 1.40400E-25
9.80716E-02 1.32741E-25
1.00682E-01 1.25591E-25
1.03323E-01 1.18909E-25
1.05995E-01 1.12659E-25
1.08696E-01 1.06808E-25
1.11427E-01 1.01327E-25
1.14188E-01 9.61867E-26
1.16978E-01 9.13632E-26
1.19797E-01 8.68331E-26
1.22645E-01 8.25755E-26
1.25522E-01 7.85709E-26
1.28428E-01 7.48017E-26
1.31361E-01 7.12515E-26
1.34323E-01 6.79053E-26
1.37313E-01 6.47492E-26
1.40330E-01 6.17706E-26
1.43375E-01 5.89576E-26
1.46447E-01 5.62994E-26
1.49545E-01 5.37859E-26
1.52671E-01 5.14079E-26
1.55823E-01 4.91567E-26
1.59001E-01 4.70244E-26
1.62205E-01 4.50036E-26
1.65435E-01 4.30874E-26
1.68690E-01 4.12693E-26
1.71970E-01 3.95436E-26
1.75276E-01 3.79046E-26
1.78606E-01 3.63473E-26
1.81961E-01 3.48668E-26
1.85340E-01 3.34586E-26
1.88743E-01 3.21187E-26
1.92169E-01 3.08430E-26
1.95619E-01 2.96281E-26
1.99092E-01 2.84704E-26
2.02589E-01 2.73669E-26
2.06107E-01 2.63145E-26
2.09649E-01 2.53104E-26
2.13212E-01 2.43520E-26
2.16797E-01 2.34369E-26
2.20404E-01 2.25629E-26
2.24032E-01 2.17276E-26
2.27680E-01 2.09291E-26
2.31350E-01 2.01656E-26
2.35040E-01 1.94351E-26
2.38751E-01 1.87360E-26
2.42481E-01 1.80668E-26
2.46231E-01 1.74259E-26
2.50000E-01 1.68120E-26
2.53788E-01 1.62236E-26
2.57595E-01 1.56596E-26
2.61421E-01 1.51187E-26
2.65264E-01 1.45999E-26
2.69126E-01 1.41021E-26
2.73005E-01 1.36243E-26
2.76901E-01 1.31656E-26
2.80814E-01 1.27250E-26
2.84744E-01 1.23018E-26
2.88691E-01 1.18951E-26
2.92653E-01 1.15041E-26
2.96632E-01 1.11282E-26
3.00625E-01 1.07667E-26
3.04634E-01 1.04189E-26
3.08658E-01 1.00843E-26
3.12697E-01 9.76216E-27
3.16749E-01 9.45205E-27
3.20816E-01 9.15341E-27
3.24896E-01 8.86575E-27
3.28990E-01 8.58860E-27
3.33097E-01 8.32151E-27
3.37216E-01 8.06405E-27
3.41348E-01 7.81582E-27
3.45492E-01 7.57644E-27
3.49647E-01 7.34552E-27
3.53814E-01 7.12274E-27
3.57992E-01 6.90775E-27
3.62181E-01 6.70023E-27
3.66381E-01 6.49988E-27
3.70590E-01 6.30642E-27
3.74810E-01 6.11957E-27
3.79039E-01 5.93907E-27
3.83277E-01 5.76466E-27
3.87524E-01 5.59611E-27
3.91780E-01 5.43319E-27
3.96044E-01 5.27567E-27
4.00316E-01 5.12336E-27
4.04596E-01 4.97605E-27
4.08882E-01 4.83356E-27
4.13176E-01 4.69569E-27
4.17476E-01 4.56228E-27
4.21783E-01 4.43315E-27
4.26095E-01 4.30816E-27
4.30413E-01 4.18714E-27
4.34737E-01 4.06995E-27
4.39065E-01 3.95645E-27
4.43398E-01 3.84651E-27
4.47736E-01 3.73999E-27
4.52077E-01 3.63678E-27
4.56422E-01 3.53675E-27
4.60770E-01 3.43979E-27
4.65122E-01 3.34579E-27
4.69476E-01 3.25466E-27
4.73832E-01 3.16628E-27
4.78190E-01 3.08056E-27
4.82550E-01 2.99741E-27
4.86912E-01 2.91675E-27
4.91274E-01 2.83848E-27
4.95637E-01 2.76252E-27
5.00000E-01 2.68880E-27
5.04363E-01 2.61724E-27
5.08726E-01 2.54776E-27
5.13088E-01 2.48031E-27
5.17450E-01 2.41480E-27
5.21810E-01 2.35118E-27
5.26168E-01 2.28938E-27
5.30524E-01 2.22935E-27
5.34878E-01 2.17102E-27
5.39230E-01 2.11434E-27
5.43578E-01 2.05926E-27
5.47923E-01 2.00572E-27
5.52264E-01 1.95368E-27
5.56602E-01 1.90309E-27
5.60935E-01 1.85390E-27
5.65263E-01 1.80607E-27
5.69587E-01 1.75955E-27
5.73905E-01 1.71431E-27
5.78217E-01 1.67030E-27
5.82524E-01 1.62749E-27
5.86824E-01 1.58583E-27
5.91118E-01 1.54530E-27
5.95404E-01 1.50586E-27
5.99684E-01 1.46748E-27
6.03956E-01 1.43012E-27
6.08220E-01 1.39375E-27
6.12476E-01 1.35834E-27
6.16723E-01 1.32387E-27
6.20961E-01 1.29031E-27
6.25190E-01 1.25762E-27
6.29410E-01 1.22579E-27
6.33619E-01 1.19478E-27
6.37819E-01 1.16458E-27
6.42008E-01 1.13516E-27
6.46186E-01 1.10650E-27
6.50353E-01 1.07858E-27
6.54508E-01 1.05136E-27
6.58652E-01 1.02485E-27
6.62784E-01 9.99003E-28
6.66903E-01 9.73814E-28
6.71010E-01 9.49262E-28
6.75104E-01 9.25328E-28
6.79184E-01 9.01995E-28
6.83251E-01 8.79247E-28
6.87303E-01 8.57066E-28
6.91342E-01 8.35437E-28
6.95366E-01 8.14346E-28
6.99375E-01 7.93776E-28
7.03368E-01 7.73713E-28
7.07347E-01 7.54145E-28
7.11309E-01 7.35056E-28
7.15256E-01 7.16435E-28
7.19186E-01 6.98269E-28
7.23099E-01 6.80544E-28
7.26995E-01 6.63251E-28
7.30874E-01 6.46376E-28
7.34736E-01 6.29909E-28
7.38579E-01 6.13839E-28
7.42405E-01 5.98156E-28
7.46212E-01 5.82849E-28
7.50000E-01 5.67908E-28
7.53769E-01 5.53325E-28
7.57519E-01 5.39088E-28
7.61249E-01 5.25191E-28
7.64960E-01 5.11623E-28
7.68650E-01 4.98377E-28
7.72320E-01 4.85444E-28
7.75968E-01 4.72816E-28
7.79596E-01 4.60486E-28
7.83203E-01 4.48445E-28
7.86788E-01 4.36688E-28
7.90351E-01 4.25205E-28
7.93893E-01 4.13991E-28
7.97411E-01 4.03039E-28
8.00908E-01 3.92343E-28
8.04381E-01 3.81896E-28
8.07831E-01 3.71691E-28
8.11257E-01 3.61724E-28
8.14660E-01 3.51988E-28
8.18039E-01 3.42477E-28
8.21394E-01 3.33187E-28
8.24724E-01 3.24111E-28
8.28030E-01 3.15246E-28
8.31310E-01 3.06584E-28
8.34565E-01 2.98123E-28
8.37795E-01 2.89857E-28
8.40999E-01 2.81781E-28
8.44177E-01 2.73891E-28
8.47329E-01 2.66183E-28
8.50455E-01 2.58653E-28
8.53553E-01 2.51295E-28
8.56625E-01 2.44107E-28
8.59670E-01 2.37085E-28
8.62687E-01 2.30224E-28
8.65677E-01 2.23521E-28
8.68639E-01 2.16972E-28
8.71572E-01 2.10575E-28
8.74478E-01 2.04324E-28
8.77355E-01 1.98219E-28
8.80203E-01 1.92254E-28
8.83022E-01 1.86427E-28
8.85812E-01 1.80735E-28
8.88573E-01 1.75175E-28
8.91304E-01 1.69744E-28
8.94005E-01 1.64440E-28
8.96677E-01 1.59259E-28
8.99318E-01 1.54199E-28
9.01928E-01 1.49258E-28
9.04508E-01 1.44432E-28
9.07058E-01 1.39721E-28
9.09576E-01 1.35120E-28
9.12063E-01 1.30628E-28
9.14519E-01 1.26243E-28
9.16943E-01 1.21962E-28
9.19335E-01 1.17783E-28
9.21696E-01 1.13705E-28
9.24024E-01 1.09726E-28
9.26320E-01 1.05842E-28
9.28584E-01 1.02053E-28
9.30815E-01 9.83571E-29
9.33013E-01 9.47517E-29
9.35178E-01 9.12354E-29
9.37310E-01 8.78066E-29
9.39409E-01 8.44637E-29
9.41474E-01 8.12049E-29
9.43505E-01 7.80288E-29
9.45503E-01 7.49339E-29
9.47467E-01 7.19188E-29
9.49397E-01 6.89819E-29
9.51293E-01 6.61219E-29
9.53154E-01 6.33375E-29
9.54981E-01 6.06274E-29
9.56773E-01 5.79903E-29
9.58530E-01 5.54250E-29
9.60252E-01 5.29304E-29
9.61940E-01 5.05052E-29
9.63592E-01 4.81483E-29
9.65209E-01 4.58587E-29
9.66790E-01 4.36354E-29
9.68336E-01 4.14772E-29
9.69846E-01 3.93833E-29
9.71321E-01 3.73526E-29
9.72759E-01 3.53843E-29
9.74162E-01 3.34775E-29
9.75528E-01 3.16312E-29
9.76858E-01 2.98447E-29
9.78152E-01 2.81172E-29
9.79410E-01 2.64479E-29
9.80631E-01 2.48360E-29
9.81815E-01 2.32808E-29
9.82963E-01 2.17817E-29
9.84074E-01 2.03379E-29
9.85148E-01 1.89488E-29
9.86185E-01 1.76139E-29
9.87185E-01 1.63324E-29
9.88148E-01 1.51039E-29
9.89074E-01 1.39278E-29
9.89962E-01 1.28036E-29
9.90814E-01 1.17308E-29
9.91627E-01 1.07089E-29
9.92404E-01 9.73744E-30
9.93143E-01 8.81604E-30
9.93844E-01 7.94428E-30
9.94508E-01 7.12177E-30
9.95134E-01 6.34816E-30
9.95722E-01 5.62311E-30
9.96273E-01 4.94630E-30
9.96786E-01 4.31743E-30
9.97261E-01 3.73624E-30
9.97698E-01 3.20247E-30
9.98097E-01 2.71589E-30
9.98459E-01 2.27628E-30
9.98782E-01 1.88346E-30
9.99067E-01 1.53725E-30
9.99315E-01 1.23750E-30
9.99524E-01 9.84095E-31
9.99695E-01 7.76909E-31
9.99829E-01 6.15858E-31
9.99924E-01 5.00871E-31
9.99981E-01 4.31899E-31
1.00000E+00 4.08911E-31
