 #
 # Subroutine ELSEPA. Elastic scattering of electrons and positrons
 #                    by neutral atoms and positive ions
 #
 # Projectile: electron
 # Kinetic energy = 5.00000E+07 eV = 1.83747E+06 a.u.
 #
 # WARNING: High-energy factorization with free-atom DF screening.
 #          Absorption, polarization and exchange corrections are
 #          switched off.
 #          Phase shifts are calculated for the bare nucleus.
 #          Scattering amplitudes are not evaluated.
 #
 # Element: Ti,  Z =  22,  atomic weight = 4.78670E+01 g/mol
 #
 # Nuclear model: Fermi distribution
 #                Average radius = 3.88504E-13 cm
 #                Skin thickness = 5.46000E-14 cm
 #
 # Number of electrons = 22
 #
 # Total elastic cross section = 1.89928E-18 cm**2 = 6.78244E-02 a0**2
 # 1st transport cross section = 3.88455E-25 cm**2 = 1.38720E-08 a0**2
 # 2nd transport cross section = 1.13707E-24 cm**2 = 4.06054E-08 a0**2
 #
 #
 # Differential cross section:                       MU=(1-COS(THETA))/2
 #
 #  THETA        MU          DCS          DCS        Sherman      error
 #  (deg)                 (cm**2/sr)   (a0**2/sr)    function
 #----------------------------------------------------------------------
0.00000E+00 7.47929E-11
7.61557E-13 7.47125E-11
1.18994E-12 7.46675E-11
1.71346E-12 7.46124E-11
2.33225E-12 7.45475E-11
3.04617E-12 7.44727E-11
3.85530E-12 7.43881E-11
4.75964E-12 7.42936E-11
5.75917E-12 7.41895E-11
6.85391E-12 7.40757E-11
8.04379E-12 7.39523E-11
9.32893E-12 7.38194E-11
1.07092E-11 7.36771E-11
1.21847E-11 7.35254E-11
1.37554E-11 7.33644E-11
1.54213E-11 7.31943E-11
1.71823E-11 7.30151E-11
1.90386E-11 7.28269E-11
2.09900E-11 7.26299E-11
2.30367E-11 7.24241E-11
2.51785E-11 7.22097E-11
2.74156E-11 7.19868E-11
2.97478E-11 7.17556E-11
3.21752E-11 7.15161E-11
3.46979E-11 7.12685E-11
3.73157E-11 7.10129E-11
4.00286E-11 7.07495E-11
4.28368E-11 7.04785E-11
4.57402E-11 7.01999E-11
4.87388E-11 6.99139E-11
5.18325E-11 6.96207E-11
5.50215E-11 6.93205E-11
5.83057E-11 6.90133E-11
6.16850E-11 6.86994E-11
6.51595E-11 6.83790E-11
6.87293E-11 6.80521E-11
7.23943E-11 6.77190E-11
7.61544E-11 6.73798E-11
1.18991E-10 6.36928E-11
1.71347E-10 5.95935E-11
2.33223E-10 5.52550E-11
3.04617E-10 5.08349E-11
3.85531E-10 4.64664E-11
4.75965E-10 4.22544E-11
5.75917E-10 3.82742E-11
6.85389E-10 3.45747E-11
8.04380E-10 3.11827E-11
9.32891E-10 2.81061E-11
1.07092E-09 2.53373E-11
1.21847E-09 2.28608E-11
1.37554E-09 2.06556E-11
1.54213E-09 1.86976E-11
1.71823E-09 1.69621E-11
1.90386E-09 1.54246E-11
2.09900E-09 1.40619E-11
2.30367E-09 1.28530E-11
2.51785E-09 1.17785E-11
2.74156E-09 1.08215E-11
2.97478E-09 9.96683E-12
3.21752E-09 9.20133E-12
3.46978E-09 8.51348E-12
3.73156E-09 7.89350E-12
4.00286E-09 7.33296E-12
4.28368E-09 6.82458E-12
4.57402E-09 6.36211E-12
4.87388E-09 5.94018E-12
5.18326E-09 5.55413E-12
5.50215E-09 5.19997E-12
5.83057E-09 4.87424E-12
6.16850E-09 4.57394E-12
6.51596E-09 4.29648E-12
6.87293E-09 4.03948E-12
7.23942E-09 3.80082E-12
7.61544E-09 3.57907E-12
1.18991E-08 2.00156E-12
1.71347E-08 1.18983E-12
2.33223E-08 7.35064E-13
3.04617E-08 4.71943E-13
3.85531E-08 3.15141E-13
4.75965E-08 2.18629E-13
5.75917E-08 1.57105E-13
6.85389E-08 1.16445E-13
8.04380E-08 8.86036E-14
9.32891E-08 6.88983E-14
1.07092E-07 5.45492E-14
1.21847E-07 4.38361E-14
1.37554E-07 3.56663E-14
1.54213E-07 2.93238E-14
1.71823E-07 2.43257E-14
1.90386E-07 2.03372E-14
2.09900E-07 1.71206E-14
2.30367E-07 1.45024E-14
2.51785E-07 1.23541E-14
2.74156E-07 1.05798E-14
2.97478E-07 9.10533E-15
3.21752E-07 7.87193E-15
3.46978E-07 6.83586E-15
3.73156E-07 5.96131E-15
4.00286E-07 5.21957E-15
4.28368E-07 4.58767E-15
4.57402E-07 4.04708E-15
4.87388E-07 3.58274E-15
5.18325E-07 3.18238E-15
5.50215E-07 2.83591E-15
5.83057E-07 2.53500E-15
6.16850E-07 2.27276E-15
6.51596E-07 2.04344E-15
6.87293E-07 1.84224E-15
7.23942E-07 1.66515E-15
7.61543E-07 1.50884E-15
1.18991E-06 6.32152E-16
1.71347E-06 3.10735E-16
2.33223E-06 1.70432E-16
3.04617E-06 1.01192E-16
3.85531E-06 6.38156E-17
4.75964E-06 4.21998E-17
5.75916E-06 2.89961E-17
6.85388E-06 2.05689E-17
8.04378E-06 1.49882E-17
9.32888E-06 1.11750E-17
1.07092E-05 8.49919E-18
1.21846E-05 6.57741E-18
1.37553E-05 5.16869E-18
1.54212E-05 4.11728E-18
1.71822E-05 3.31988E-18
1.90385E-05 2.70630E-18
2.09899E-05 2.22822E-18
2.30365E-05 1.85108E-18
2.51783E-05 1.55037E-18
2.74153E-05 1.30825E-18
2.97475E-05 1.11157E-18
3.21749E-05 9.50488E-19
3.46974E-05 8.17561E-19
3.73152E-05 7.07088E-19
4.00281E-05 6.14667E-19
4.28362E-05 5.36866E-19
4.57395E-05 4.70991E-19
4.87380E-05 4.14913E-19
5.18317E-05 3.66934E-19
5.50205E-05 3.25691E-19
5.83045E-05 2.90083E-19
6.16838E-05 2.59212E-19
6.51582E-05 2.32343E-19
6.87277E-05 2.08868E-19
7.23925E-05 1.88287E-19
7.61524E-05 1.70175E-19
9.21439E-05 1.16295E-19
1.09658E-04 8.21533E-20
1.28695E-04 5.96744E-20
1.49255E-04 4.43856E-20
1.71338E-04 3.36964E-20
1.94942E-04 2.60407E-20
2.20070E-04 2.04418E-20
2.46720E-04 1.62707E-20
2.74892E-04 1.31116E-20
3.04586E-04 1.06838E-20
3.35803E-04 8.79307E-21
3.68542E-04 7.30295E-21
4.02802E-04 6.11570E-21
4.38585E-04 5.16036E-21
4.75889E-04 4.38461E-21
5.14715E-04 3.74940E-21
5.55063E-04 3.22525E-21
5.96931E-04 2.78964E-21
6.40321E-04 2.42521E-21
6.85233E-04 2.11844E-21
7.31665E-04 1.85871E-21
7.79618E-04 1.63763E-21
8.29092E-04 1.44849E-21
8.80086E-04 1.28591E-21
9.32601E-04 1.14553E-21
9.86636E-04 1.02381E-21
1.04219E-03 9.17855E-22
1.09927E-03 8.25269E-22
1.15786E-03 7.44080E-22
1.21797E-03 6.72644E-22
1.27961E-03 6.09586E-22
1.34276E-03 5.53755E-22
1.40743E-03 5.04178E-22
1.47362E-03 4.60033E-22
1.54133E-03 4.20619E-22
1.61056E-03 3.85343E-22
1.68131E-03 3.53692E-22
1.75357E-03 3.25228E-22
1.82735E-03 2.99574E-22
1.90265E-03 2.76403E-22
1.97947E-03 2.55431E-22
2.05780E-03 2.36413E-22
2.13765E-03 2.19135E-22
2.21902E-03 2.03409E-22
2.30190E-03 1.89069E-22
2.38630E-03 1.75973E-22
2.47222E-03 1.63992E-22
2.55965E-03 1.53015E-22
2.64859E-03 1.42942E-22
2.73905E-03 1.33685E-22
2.83103E-03 1.25166E-22
2.92452E-03 1.17316E-22
3.01952E-03 1.10072E-22
3.11604E-03 1.03380E-22
3.21407E-03 9.71886E-23
3.31362E-03 9.14545E-23
3.41468E-03 8.61375E-23
3.51725E-03 8.12018E-23
3.62133E-03 7.66148E-23
3.72692E-03 7.23475E-23
3.83403E-03 6.83735E-23
3.94265E-03 6.46688E-23
4.05278E-03 6.12119E-23
4.16442E-03 5.79831E-23
4.27757E-03 5.49646E-23
4.39223E-03 5.21402E-23
4.50840E-03 4.94949E-23
4.62608E-03 4.70155E-23
4.74527E-03 4.46894E-23
4.86597E-03 4.25056E-23
4.98817E-03 4.04536E-23
5.11188E-03 3.85240E-23
5.23711E-03 3.67082E-23
5.36383E-03 3.49982E-23
5.49207E-03 3.33866E-23
5.62181E-03 3.18668E-23
5.75306E-03 3.04325E-23
5.88581E-03 2.90781E-23
6.02007E-03 2.77982E-23
6.15583E-03 2.65880E-23
6.29310E-03 2.54429E-23
6.43187E-03 2.43588E-23
6.57214E-03 2.33319E-23
6.71392E-03 2.23585E-23
6.85720E-03 2.14354E-23
7.00198E-03 2.05594E-23
7.14827E-03 1.97277E-23
7.29605E-03 1.89377E-23
7.44534E-03 1.81868E-23
7.59612E-03 1.74727E-23
7.97965E-03 1.58351E-23
8.37255E-03 1.43848E-23
8.77480E-03 1.30967E-23
9.18641E-03 1.19496E-23
9.60736E-03 1.09252E-23
1.00376E-02 1.00083E-23
1.04773E-02 9.18541E-24
1.09262E-02 8.44531E-24
1.13844E-02 7.77818E-24
1.18520E-02 7.17555E-24
1.23288E-02 6.63007E-24
1.28150E-02 6.13535E-24
1.33104E-02 5.68584E-24
1.38150E-02 5.27667E-24
1.43290E-02 4.90356E-24
1.48521E-02 4.56276E-24
1.53845E-02 4.25099E-24
1.59262E-02 3.96531E-24
1.64770E-02 3.70315E-24
1.70371E-02 3.46224E-24
1.76063E-02 3.24052E-24
1.81848E-02 3.03621E-24
1.87724E-02 2.84768E-24
1.93692E-02 2.67349E-24
1.99751E-02 2.51236E-24
2.05901E-02 2.36313E-24
2.12143E-02 2.22475E-24
2.18476E-02 2.09631E-24
2.24900E-02 1.97695E-24
2.31415E-02 1.86591E-24
2.38021E-02 1.76251E-24
2.44717E-02 1.66613E-24
2.51504E-02 1.57620E-24
2.58382E-02 1.49222E-24
2.65349E-02 1.41371E-24
2.72407E-02 1.34026E-24
2.79555E-02 1.27148E-24
2.86793E-02 1.20702E-24
2.94120E-02 1.14655E-24
3.01537E-02 1.08979E-24
3.09043E-02 1.03647E-24
3.16639E-02 9.86339E-25
3.24324E-02 9.39171E-25
3.32098E-02 8.94760E-25
3.39961E-02 8.52915E-25
3.47912E-02 8.13461E-25
3.55952E-02 7.76235E-25
3.64081E-02 7.41090E-25
3.72297E-02 7.07887E-25
3.80602E-02 6.76500E-25
3.88995E-02 6.46811E-25
3.97476E-02 6.18711E-25
4.06044E-02 5.92099E-25
4.14700E-02 5.66883E-25
4.23443E-02 5.42976E-25
4.32273E-02 5.20297E-25
4.41190E-02 4.98772E-25
4.50194E-02 4.78332E-25
4.59284E-02 4.58910E-25
4.68461E-02 4.40449E-25
4.87074E-02 4.06183E-25
5.06030E-02 3.75131E-25
5.25328E-02 3.46938E-25
5.44967E-02 3.21296E-25
5.64946E-02 2.97934E-25
5.85262E-02 2.76615E-25
6.05914E-02 2.57129E-25
6.26901E-02 2.39292E-25
6.48222E-02 2.22940E-25
6.69873E-02 2.07928E-25
6.91854E-02 1.94128E-25
7.14163E-02 1.81425E-25
7.36799E-02 1.69716E-25
7.59760E-02 1.58912E-25
7.83043E-02 1.48929E-25
8.06647E-02 1.39695E-25
8.30571E-02 1.31144E-25
8.54812E-02 1.23217E-25
8.79369E-02 1.15861E-25
9.04240E-02 1.09027E-25
9.29422E-02 1.02673E-25
9.54915E-02 9.67589E-26
9.80716E-02 9.12489E-26
1.00682E-01 8.61111E-26
1.03323E-01 8.13160E-26
1.05995E-01 7.68369E-26
1.08696E-01 7.26496E-26
1.11427E-01 6.87319E-26
1.14188E-01 6.50636E-26
1.16978E-01 6.16261E-26
1.19797E-01 5.84026E-26
1.22645E-01 5.53775E-26
1.25522E-01 5.25367E-26
1.28428E-01 4.98670E-26
1.31361E-01 4.73565E-26
1.34323E-01 4.49941E-26
1.37313E-01 4.27698E-26
1.40330E-01 4.06740E-26
1.43375E-01 3.86983E-26
1.46447E-01 3.68346E-26
1.49545E-01 3.50756E-26
1.52671E-01 3.34144E-26
1.55823E-01 3.18448E-26
1.59001E-01 3.03608E-26
1.62205E-01 2.89572E-26
1.65435E-01 2.76289E-26
1.68690E-01 2.63711E-26
1.71970E-01 2.51797E-26
1.75276E-01 2.40505E-26
1.78606E-01 2.29797E-26
1.81961E-01 2.19640E-26
1.85340E-01 2.10000E-26
1.88743E-01 2.00848E-26
1.92169E-01 1.92154E-26
1.95619E-01 1.83892E-26
1.99092E-01 1.76038E-26
2.02589E-01 1.68569E-26
2.06107E-01 1.61462E-26
2.09649E-01 1.54699E-26
2.13212E-01 1.48259E-26
2.16797E-01 1.42125E-26
2.20404E-01 1.36280E-26
2.24032E-01 1.30709E-26
2.27680E-01 1.25397E-26
2.31350E-01 1.20331E-26
2.35040E-01 1.15497E-26
2.38751E-01 1.10883E-26
2.42481E-01 1.06478E-26
2.46231E-01 1.02271E-26
2.50000E-01 9.82517E-27
2.53788E-01 9.44109E-27
2.57595E-01 9.07395E-27
2.61421E-01 8.72290E-27
2.65264E-01 8.38714E-27
2.69126E-01 8.06590E-27
2.73005E-01 7.75849E-27
2.76901E-01 7.46422E-27
2.80814E-01 7.18246E-27
2.84744E-01 6.91261E-27
2.88691E-01 6.65410E-27
2.92653E-01 6.40639E-27
2.96632E-01 6.16898E-27
3.00625E-01 5.94137E-27
3.04634E-01 5.72312E-27
3.08658E-01 5.51378E-27
3.12697E-01 5.31296E-27
3.16749E-01 5.12026E-27
3.20816E-01 4.93531E-27
3.24896E-01 4.75777E-27
3.28990E-01 4.58729E-27
3.33097E-01 4.42357E-27
3.37216E-01 4.26630E-27
3.41348E-01 4.11521E-27
3.45492E-01 3.97001E-27
3.49647E-01 3.83045E-27
3.53814E-01 3.69629E-27
3.57992E-01 3.56730E-27
3.62181E-01 3.44325E-27
3.66381E-01 3.32393E-27
3.70590E-01 3.20914E-27
3.74810E-01 3.09869E-27
3.79039E-01 2.99239E-27
3.83277E-01 2.89008E-27
3.87524E-01 2.79159E-27
3.91780E-01 2.69676E-27
3.96044E-01 2.60544E-27
4.00316E-01 2.51748E-27
4.04596E-01 2.43274E-27
4.08882E-01 2.35111E-27
4.13176E-01 2.27245E-27
4.17476E-01 2.19664E-27
4.21783E-01 2.12357E-27
4.26095E-01 2.05312E-27
4.30413E-01 1.98520E-27
4.34737E-01 1.91971E-27
4.39065E-01 1.85655E-27
4.43398E-01 1.79562E-27
4.47736E-01 1.73685E-27
4.52077E-01 1.68015E-27
4.56422E-01 1.62543E-27
4.60770E-01 1.57263E-27
4.65122E-01 1.52166E-27
4.69476E-01 1.47247E-27
4.73832E-01 1.42497E-27
4.78190E-01 1.37912E-27
4.82550E-01 1.33483E-27
4.86912E-01 1.29207E-27
4.91274E-01 1.25076E-27
4.95637E-01 1.21086E-27
5.00000E-01 1.17232E-27
5.04363E-01 1.13507E-27
5.08726E-01 1.09908E-27
5.13088E-01 1.06430E-27
5.17450E-01 1.03069E-27
5.21810E-01 9.98201E-28
5.26168E-01 9.66793E-28
5.30524E-01 9.36427E-28
5.34878E-01 9.07068E-28
5.39230E-01 8.78677E-28
5.43578E-01 8.51222E-28
5.47923E-01 8.24668E-28
5.52264E-01 7.98984E-28
5.56602E-01 7.74138E-28
5.60935E-01 7.50102E-28
5.65263E-01 7.26846E-28
5.69587E-01 7.04344E-28
5.73905E-01 6.82569E-28
5.78217E-01 6.61496E-28
5.82524E-01 6.41100E-28
5.86824E-01 6.21358E-28
5.91118E-01 6.02248E-28
5.95404E-01 5.83748E-28
5.99684E-01 5.65836E-28
6.03956E-01 5.48494E-28
6.08220E-01 5.31700E-28
6.12476E-01 5.15438E-28
6.16723E-01 4.99689E-28
6.20961E-01 4.84434E-28
6.25190E-01 4.69659E-28
6.29410E-01 4.55347E-28
6.33619E-01 4.41482E-28
6.37819E-01 4.28049E-28
6.42008E-01 4.15034E-28
6.46186E-01 4.02423E-28
6.50353E-01 3.90203E-28
6.54508E-01 3.78361E-28
6.58652E-01 3.66884E-28
6.62784E-01 3.55760E-28
6.66903E-01 3.44979E-28
6.71010E-01 3.34528E-28
6.75104E-01 3.24397E-28
6.79184E-01 3.14575E-28
6.83251E-01 3.05053E-28
6.87303E-01 2.95820E-28
6.91342E-01 2.86869E-28
6.95366E-01 2.78188E-28
6.99375E-01 2.69770E-28
7.03368E-01 2.61606E-28
7.07347E-01 2.53689E-28
7.11309E-01 2.46010E-28
7.15256E-01 2.38562E-28
7.19186E-01 2.31337E-28
7.23099E-01 2.24328E-28
7.26995E-01 2.17529E-28
7.30874E-01 2.10933E-28
7.34736E-01 2.04533E-28
7.38579E-01 1.98324E-28
7.42405E-01 1.92299E-28
7.46212E-01 1.86453E-28
7.50000E-01 1.80780E-28
7.53769E-01 1.75275E-28
7.57519E-01 1.69933E-28
7.61249E-01 1.64747E-28
7.64960E-01 1.59715E-28
7.68650E-01 1.54830E-28
7.72320E-01 1.50089E-28
7.75968E-01 1.45487E-28
7.79596E-01 1.41020E-28
7.83203E-01 1.36683E-28
7.86788E-01 1.32473E-28
7.90351E-01 1.28386E-28
7.93893E-01 1.24418E-28
7.97411E-01 1.20565E-28
8.00908E-01 1.16824E-28
8.04381E-01 1.13192E-28
8.07831E-01 1.09665E-28
8.11257E-01 1.06241E-28
8.14660E-01 1.02915E-28
8.18039E-01 9.96859E-29
8.21394E-01 9.65499E-29
8.24724E-01 9.35044E-29
8.28030E-01 9.05467E-29
8.31310E-01 8.76742E-29
8.34565E-01 8.48845E-29
8.37795E-01 8.21749E-29
8.40999E-01 7.95433E-29
8.44177E-01 7.69873E-29
8.47329E-01 7.45047E-29
8.50455E-01 7.20933E-29
8.53553E-01 6.97511E-29
8.56625E-01 6.74761E-29
8.59670E-01 6.52663E-29
8.62687E-01 6.31197E-29
8.65677E-01 6.10347E-29
8.68639E-01 5.90093E-29
8.71572E-01 5.70420E-29
8.74478E-01 5.51310E-29
8.77355E-01 5.32747E-29
8.80203E-01 5.14715E-29
8.83022E-01 4.97200E-29
8.85812E-01 4.80187E-29
8.88573E-01 4.63662E-29
8.91304E-01 4.47610E-29
8.94005E-01 4.32018E-29
8.96677E-01 4.16874E-29
8.99318E-01 4.02165E-29
9.01928E-01 3.87879E-29
9.04508E-01 3.74004E-29
9.07058E-01 3.60529E-29
9.09576E-01 3.47443E-29
9.12063E-01 3.34734E-29
9.14519E-01 3.22393E-29
9.16943E-01 3.10410E-29
9.19335E-01 2.98774E-29
9.21696E-01 2.87477E-29
9.24024E-01 2.76509E-29
9.26320E-01 2.65862E-29
9.28584E-01 2.55527E-29
9.30815E-01 2.45495E-29
9.33013E-01 2.35758E-29
9.35178E-01 2.26310E-29
9.37310E-01 2.17141E-29
9.39409E-01 2.08246E-29
9.41474E-01 1.99616E-29
9.43505E-01 1.91245E-29
9.45503E-01 1.83127E-29
9.47467E-01 1.75254E-29
9.49397E-01 1.67621E-29
9.51293E-01 1.60222E-29
9.53154E-01 1.53051E-29
9.54981E-01 1.46101E-29
9.56773E-01 1.39369E-29
9.58530E-01 1.32848E-29
9.60252E-01 1.26533E-29
9.61940E-01 1.20420E-29
9.63592E-01 1.14504E-29
9.65209E-01 1.08780E-29
9.66790E-01 1.03243E-29
9.68336E-01 9.78899E-30
9.69846E-01 9.27158E-30
9.71321E-01 8.77170E-30
9.72759E-01 8.28895E-30
9.74162E-01 7.82296E-30
9.75528E-01 7.37338E-30
9.76858E-01 6.93986E-30
9.78152E-01 6.52206E-30
9.79410E-01 6.11967E-30
9.80631E-01 5.73237E-30
9.81815E-01 5.35988E-30
9.82963E-01 5.00190E-30
9.84074E-01 4.65816E-30
9.85148E-01 4.32840E-30
9.86185E-01 4.01237E-30
9.87185E-01 3.70982E-30
9.88148E-01 3.42054E-30
9.89074E-01 3.14429E-30
9.89962E-01 2.88087E-30
9.90814E-01 2.63008E-30
9.91627E-01 2.39172E-30
9.92404E-01 2.16563E-30
9.93143E-01 1.95162E-30
9.93844E-01 1.74953E-30
9.94508E-01 1.55922E-30
9.95134E-01 1.38053E-30
9.95722E-01 1.21334E-30
9.96273E-01 1.05752E-30
9.96786E-01 9.12945E-31
9.97261E-01 7.79512E-31
9.97698E-01 6.57121E-31
9.98097E-01 5.45677E-31
9.98459E-01 4.45099E-31
9.98782E-01 3.55309E-31
9.99067E-01 2.76241E-31
9.99315E-01 2.07836E-31
9.99524E-01 1.50040E-31
9.99695E-01 1.02812E-31
9.99829E-01 6.61164E-32
9.99924E-01 3.99245E-32
9.99981E-01 2.42174E-32
1.00000E+00 1.89853E-32
