 #
 # Subroutine ELSEPA. Elastic scattering of electrons and positrons
 #                    by neutral atoms and positive ions
 #
 # Projectile: electron
 # Kinetic energy = 1.75000E+07 eV = 6.43113E+05 a.u.
 #
 # WARNING: High-energy factorization with free-atom DF screening.
 #          Absorption, polarization and exchange corrections are
 #          switched off.
 #          Phase shifts are calculated for the bare nucleus.
 #          Scattering amplitudes are not evaluated.
 #
 # Element: Ti,  Z =  22,  atomic weight = 4.78670E+01 g/mol
 #
 # Nuclear model: Fermi distribution
 #                Average radius = 3.88504E-13 cm
 #                Skin thickness = 5.46000E-14 cm
 #
 # Number of electrons = 22
 #
 # Total elastic cross section = 1.90191E-18 cm**2 = 6.79183E-02 a0**2
 # 1st transport cross section = 2.77622E-24 cm**2 = 9.91405E-08 a0**2
 # 2nd transport cross section = 7.99590E-24 cm**2 = 2.85539E-07 a0**2
 #
 #
 # Differential cross section:                       MU=(1-COS(THETA))/2
 #
 #  THETA        MU          DCS          DCS        Sherman      error
 #  (deg)                 (cm**2/sr)   (a0**2/sr)    function
 #----------------------------------------------------------------------
0.00000E+00 9.50964E-12
7.61557E-13 9.50834E-12
1.18994E-12 9.50761E-12
1.71346E-12 9.50671E-12
2.33225E-12 9.50566E-12
3.04617E-12 9.50444E-12
3.85530E-12 9.50307E-12
4.75964E-12 9.50153E-12
5.75917E-12 9.49983E-12
6.85391E-12 9.49797E-12
8.04379E-12 9.49594E-12
9.32893E-12 9.49376E-12
1.07092E-11 9.49142E-12
1.21847E-11 9.48891E-12
1.37554E-11 9.48625E-12
1.54213E-11 9.48342E-12
1.71823E-11 9.48044E-12
1.90386E-11 9.47729E-12
2.09900E-11 9.47399E-12
2.30367E-11 9.47053E-12
2.51785E-11 9.46691E-12
2.74156E-11 9.46312E-12
2.97478E-11 9.45919E-12
3.21752E-11 9.45509E-12
3.46979E-11 9.45083E-12
3.73157E-11 9.44642E-12
4.00286E-11 9.44185E-12
4.28368E-11 9.43713E-12
4.57402E-11 9.43224E-12
4.87388E-11 9.42721E-12
5.18325E-11 9.42201E-12
5.50215E-11 9.41666E-12
5.83057E-11 9.41116E-12
6.16850E-11 9.40550E-12
6.51595E-11 9.39969E-12
6.87293E-11 9.39372E-12
7.23943E-11 9.38760E-12
7.61544E-11 9.38133E-12
1.18991E-10 9.31033E-12
1.71347E-10 9.22466E-12
2.33223E-10 9.12495E-12
3.04617E-10 9.01192E-12
3.85531E-10 8.88638E-12
4.75965E-10 8.74920E-12
5.75917E-10 8.60131E-12
6.85389E-10 8.44367E-12
8.04380E-10 8.27729E-12
9.32891E-10 8.10320E-12
1.07092E-09 7.92243E-12
1.21847E-09 7.73601E-12
1.37554E-09 7.54491E-12
1.54213E-09 7.35008E-12
1.71823E-09 7.15259E-12
1.90386E-09 6.95324E-12
2.09900E-09 6.75279E-12
2.30367E-09 6.55232E-12
2.51785E-09 6.35239E-12
2.74156E-09 6.15352E-12
2.97478E-09 5.95673E-12
3.21752E-09 5.76240E-12
3.46978E-09 5.57073E-12
3.73156E-09 5.38269E-12
4.00286E-09 5.19850E-12
4.28368E-09 5.01804E-12
4.57402E-09 4.84220E-12
4.87388E-09 4.67111E-12
5.18326E-09 4.50439E-12
5.50215E-09 4.34278E-12
5.83057E-09 4.18641E-12
6.16850E-09 4.03467E-12
6.51596E-09 3.88816E-12
6.87293E-09 3.74705E-12
7.23942E-09 3.61056E-12
7.61544E-09 3.47915E-12
1.18991E-08 2.41943E-12
1.71347E-08 1.72633E-12
2.33223E-08 1.27230E-12
3.04617E-08 9.66017E-13
3.85531E-08 7.51199E-13
4.75965E-08 5.94797E-13
5.75917E-08 4.77221E-13
6.85389E-08 3.86605E-13
8.04380E-08 3.12170E-13
9.32891E-08 2.55832E-13
1.07092E-07 2.13273E-13
1.21847E-07 1.76407E-13
1.37554E-07 1.46860E-13
1.54213E-07 1.23809E-13
1.71823E-07 1.04164E-13
1.90386E-07 8.80591E-14
2.09900E-07 7.51500E-14
2.30367E-07 6.42608E-14
2.51785E-07 5.51974E-14
2.74156E-07 4.77596E-14
2.97478E-07 4.14837E-14
3.21752E-07 3.61928E-14
3.46978E-07 3.17614E-14
3.73156E-07 2.79918E-14
4.00286E-07 2.47733E-14
4.28368E-07 2.20301E-14
4.57402E-07 1.96678E-14
4.87388E-07 1.76242E-14
5.18325E-07 1.58563E-14
5.50215E-07 1.43134E-14
5.83057E-07 1.29604E-14
6.16850E-07 1.17752E-14
6.51596E-07 1.07278E-14
6.87293E-07 9.79699E-15
7.23942E-07 8.97309E-15
7.61543E-07 8.23695E-15
1.18991E-06 3.85887E-15
1.71347E-06 2.04070E-15
2.33223E-06 1.16653E-15
3.04617E-06 7.07758E-16
3.85531E-06 4.51412E-16
4.75964E-06 3.00487E-16
5.75916E-06 2.07496E-16
6.85388E-06 1.47842E-16
8.04378E-06 1.08200E-16
9.32888E-06 8.10595E-17
1.07092E-05 6.19572E-17
1.21846E-05 4.81906E-17
1.37553E-05 3.80593E-17
1.54212E-05 3.04624E-17
1.71822E-05 2.46764E-17
1.90385E-05 2.02047E-17
2.09899E-05 1.67050E-17
2.30365E-05 1.39321E-17
2.51783E-05 1.17103E-17
2.74153E-05 9.91392E-18
2.97475E-05 8.44907E-18
3.21749E-05 7.24497E-18
3.46974E-05 6.24786E-18
3.73152E-05 5.41637E-18
4.00281E-05 4.71834E-18
4.28362E-05 4.12912E-18
4.57395E-05 3.62893E-18
4.87380E-05 3.20210E-18
5.18317E-05 2.83608E-18
5.50205E-05 2.52071E-18
5.83045E-05 2.24789E-18
6.16838E-05 2.01094E-18
6.51582E-05 1.80438E-18
6.87277E-05 1.62364E-18
7.23925E-05 1.46494E-18
7.61524E-05 1.32511E-18
9.21439E-05 9.07956E-19
1.09658E-04 6.42623E-19
1.28695E-04 4.67450E-19
1.49255E-04 3.48060E-19
1.71338E-04 2.64454E-19
1.94942E-04 2.04501E-19
2.20070E-04 1.60613E-19
2.46720E-04 1.27892E-19
2.74892E-04 1.03095E-19
3.04586E-04 8.40287E-20
3.35803E-04 6.91739E-20
3.68542E-04 5.74626E-20
4.02802E-04 4.81291E-20
4.38585E-04 4.06169E-20
4.75889E-04 3.45157E-20
5.14715E-04 2.95188E-20
5.55063E-04 2.53951E-20
5.96931E-04 2.19674E-20
6.40321E-04 1.90994E-20
6.85233E-04 1.66850E-20
7.31665E-04 1.46406E-20
7.79618E-04 1.29003E-20
8.29092E-04 1.14113E-20
8.80086E-04 1.01313E-20
9.32601E-04 9.02599E-21
9.86636E-04 8.06756E-21
1.04219E-03 7.23319E-21
1.09927E-03 6.50407E-21
1.15786E-03 5.86466E-21
1.21797E-03 5.30202E-21
1.27961E-03 4.80535E-21
1.34276E-03 4.36558E-21
1.40743E-03 3.97505E-21
1.47362E-03 3.62730E-21
1.54133E-03 3.31680E-21
1.61056E-03 3.03888E-21
1.68131E-03 2.78951E-21
1.75357E-03 2.56524E-21
1.82735E-03 2.36310E-21
1.90265E-03 2.18052E-21
1.97947E-03 2.01526E-21
2.05780E-03 1.86539E-21
2.13765E-03 1.72922E-21
2.21902E-03 1.60527E-21
2.30190E-03 1.49225E-21
2.38630E-03 1.38902E-21
2.47222E-03 1.29459E-21
2.55965E-03 1.20805E-21
2.64859E-03 1.12865E-21
2.73905E-03 1.05567E-21
2.83103E-03 9.88507E-22
2.92452E-03 9.26612E-22
3.01952E-03 8.69496E-22
3.11604E-03 8.16722E-22
3.21407E-03 7.67901E-22
3.31362E-03 7.22681E-22
3.41468E-03 6.80748E-22
3.51725E-03 6.41819E-22
3.62133E-03 6.05639E-22
3.72692E-03 5.71978E-22
3.83403E-03 5.40629E-22
3.94265E-03 5.11403E-22
4.05278E-03 4.84130E-22
4.16442E-03 4.58655E-22
4.27757E-03 4.34837E-22
4.39223E-03 4.12549E-22
4.50840E-03 3.91674E-22
4.62608E-03 3.72106E-22
4.74527E-03 3.53748E-22
4.86597E-03 3.36511E-22
4.98817E-03 3.20313E-22
5.11188E-03 3.05081E-22
5.23711E-03 2.90745E-22
5.36383E-03 2.77244E-22
5.49207E-03 2.64519E-22
5.62181E-03 2.52518E-22
5.75306E-03 2.41191E-22
5.88581E-03 2.30494E-22
6.02007E-03 2.20385E-22
6.15583E-03 2.10826E-22
6.29310E-03 2.01781E-22
6.43187E-03 1.93216E-22
6.57214E-03 1.85103E-22
6.71392E-03 1.77412E-22
6.85720E-03 1.70117E-22
7.00198E-03 1.63194E-22
7.14827E-03 1.56621E-22
7.29605E-03 1.50376E-22
7.44534E-03 1.44441E-22
7.59612E-03 1.38796E-22
7.97965E-03 1.25847E-22
8.37255E-03 1.14377E-22
8.77480E-03 1.04188E-22
9.18641E-03 9.51118E-23
9.60736E-03 8.70050E-23
1.00376E-02 7.97458E-23
1.04773E-02 7.32301E-23
1.09262E-02 6.73682E-23
1.13844E-02 6.20827E-23
1.18520E-02 5.73068E-23
1.23288E-02 5.29826E-23
1.28150E-02 4.90598E-23
1.33104E-02 4.54943E-23
1.38150E-02 4.22476E-23
1.43290E-02 3.92863E-23
1.48521E-02 3.65805E-23
1.53845E-02 3.41044E-23
1.59262E-02 3.18347E-23
1.64770E-02 2.97512E-23
1.70371E-02 2.78359E-23
1.76063E-02 2.60725E-23
1.81848E-02 2.44470E-23
1.87724E-02 2.29464E-23
1.93692E-02 2.15596E-23
1.99751E-02 2.02761E-23
2.05901E-02 1.90870E-23
2.12143E-02 1.79840E-23
2.18476E-02 1.69597E-23
2.24900E-02 1.60074E-23
2.31415E-02 1.51212E-23
2.38021E-02 1.42956E-23
2.44717E-02 1.35257E-23
2.51504E-02 1.28070E-23
2.58382E-02 1.21355E-23
2.65349E-02 1.15076E-23
2.72407E-02 1.09198E-23
2.79555E-02 1.03691E-23
2.86793E-02 9.85274E-24
2.94120E-02 9.36819E-24
3.01537E-02 8.91310E-24
3.09043E-02 8.48536E-24
3.16639E-02 8.08300E-24
3.24324E-02 7.70424E-24
3.32098E-02 7.34743E-24
3.39961E-02 7.01106E-24
3.47912E-02 6.69374E-24
3.55952E-02 6.39419E-24
3.64081E-02 6.11122E-24
3.72297E-02 5.84374E-24
3.80602E-02 5.59074E-24
3.88995E-02 5.35130E-24
3.97476E-02 5.12455E-24
4.06044E-02 4.90968E-24
4.14700E-02 4.70596E-24
4.23443E-02 4.51269E-24
4.32273E-02 4.32925E-24
4.41190E-02 4.15503E-24
4.50194E-02 3.98948E-24
4.59284E-02 3.83210E-24
4.68461E-02 3.68240E-24
4.87074E-02 3.40427E-24
5.06030E-02 3.15190E-24
5.25328E-02 2.92246E-24
5.44967E-02 2.71349E-24
5.64946E-02 2.52284E-24
5.85262E-02 2.34862E-24
6.05914E-02 2.18914E-24
6.26901E-02 2.04294E-24
6.48222E-02 1.90871E-24
6.69873E-02 1.78529E-24
6.91854E-02 1.67165E-24
7.14163E-02 1.56688E-24
7.36799E-02 1.47015E-24
7.59760E-02 1.38074E-24
7.83043E-02 1.29800E-24
8.06647E-02 1.22132E-24
8.30571E-02 1.15020E-24
8.54812E-02 1.08415E-24
8.79369E-02 1.02274E-24
9.04240E-02 9.65588E-25
9.29422E-02 9.12345E-25
9.54915E-02 8.62694E-25
9.80716E-02 8.16348E-25
1.00682E-01 7.73047E-25
1.03323E-01 7.32554E-25
1.05995E-01 6.94652E-25
1.08696E-01 6.59147E-25
1.11427E-01 6.25858E-25
1.14188E-01 5.94621E-25
1.16978E-01 5.65287E-25
1.19797E-01 5.37719E-25
1.22645E-01 5.11790E-25
1.25522E-01 4.87386E-25
1.28428E-01 4.64399E-25
1.31361E-01 4.42733E-25
1.34323E-01 4.22298E-25
1.37313E-01 4.03011E-25
1.40330E-01 3.84795E-25
1.43375E-01 3.67581E-25
1.46447E-01 3.51302E-25
1.49545E-01 3.35899E-25
1.52671E-01 3.21316E-25
1.55823E-01 3.07501E-25
1.59001E-01 2.94407E-25
1.62205E-01 2.81989E-25
1.65435E-01 2.70205E-25
1.68690E-01 2.59017E-25
1.71970E-01 2.48390E-25
1.75276E-01 2.38291E-25
1.78606E-01 2.28687E-25
1.81961E-01 2.19551E-25
1.85340E-01 2.10856E-25
1.88743E-01 2.02577E-25
1.92169E-01 1.94689E-25
1.95619E-01 1.87171E-25
1.99092E-01 1.80003E-25
2.02589E-01 1.73165E-25
2.06107E-01 1.66640E-25
2.09649E-01 1.60410E-25
2.13212E-01 1.54460E-25
2.16797E-01 1.48774E-25
2.20404E-01 1.43340E-25
2.24032E-01 1.38143E-25
2.27680E-01 1.33172E-25
2.31350E-01 1.28415E-25
2.35040E-01 1.23861E-25
2.38751E-01 1.19500E-25
2.42481E-01 1.15322E-25
2.46231E-01 1.11318E-25
2.50000E-01 1.07480E-25
2.53788E-01 1.03800E-25
2.57595E-01 1.00269E-25
2.61421E-01 9.68812E-26
2.65264E-01 9.36292E-26
2.69126E-01 9.05067E-26
2.73005E-01 8.75077E-26
2.76901E-01 8.46262E-26
2.80814E-01 8.18571E-26
2.84744E-01 7.91950E-26
2.88691E-01 7.66351E-26
2.92653E-01 7.41729E-26
2.96632E-01 7.18038E-26
3.00625E-01 6.95239E-26
3.04634E-01 6.73291E-26
3.08658E-01 6.52156E-26
3.12697E-01 6.31801E-26
3.16749E-01 6.12190E-26
3.20816E-01 5.93292E-26
3.24896E-01 5.75076E-26
3.28990E-01 5.57514E-26
3.33097E-01 5.40578E-26
3.37216E-01 5.24242E-26
3.41348E-01 5.08480E-26
3.45492E-01 4.93270E-26
3.49647E-01 4.78589E-26
3.53814E-01 4.64414E-26
3.57992E-01 4.50726E-26
3.62181E-01 4.37505E-26
3.66381E-01 4.24732E-26
3.70590E-01 4.12390E-26
3.74810E-01 4.00462E-26
3.79039E-01 3.88931E-26
3.83277E-01 3.77781E-26
3.87524E-01 3.66999E-26
3.91780E-01 3.56570E-26
3.96044E-01 3.46481E-26
4.00316E-01 3.36717E-26
4.04596E-01 3.27269E-26
4.08882E-01 3.18122E-26
4.13176E-01 3.09267E-26
4.17476E-01 3.00692E-26
4.21783E-01 2.92388E-26
4.26095E-01 2.84343E-26
4.30413E-01 2.76549E-26
4.34737E-01 2.68996E-26
4.39065E-01 2.61677E-26
4.43398E-01 2.54581E-26
4.47736E-01 2.47703E-26
4.52077E-01 2.41033E-26
4.56422E-01 2.34564E-26
4.60770E-01 2.28290E-26
4.65122E-01 2.22203E-26
4.69476E-01 2.16298E-26
4.73832E-01 2.10567E-26
4.78190E-01 2.05005E-26
4.82550E-01 1.99607E-26
4.86912E-01 1.94365E-26
4.91274E-01 1.89276E-26
4.95637E-01 1.84335E-26
5.00000E-01 1.79535E-26
5.04363E-01 1.74873E-26
5.08726E-01 1.70343E-26
5.13088E-01 1.65942E-26
5.17450E-01 1.61666E-26
5.21810E-01 1.57510E-26
5.26168E-01 1.53470E-26
5.30524E-01 1.49542E-26
5.34878E-01 1.45724E-26
5.39230E-01 1.42011E-26
5.43578E-01 1.38401E-26
5.47923E-01 1.34889E-26
5.52264E-01 1.31473E-26
5.56602E-01 1.28150E-26
5.60935E-01 1.24917E-26
5.65263E-01 1.21771E-26
5.69587E-01 1.18709E-26
5.73905E-01 1.15729E-26
5.78217E-01 1.12829E-26
5.82524E-01 1.10005E-26
5.86824E-01 1.07256E-26
5.91118E-01 1.04579E-26
5.95404E-01 1.01973E-26
5.99684E-01 9.94344E-27
6.03956E-01 9.69620E-27
6.08220E-01 9.45536E-27
6.12476E-01 9.22074E-27
6.16723E-01 8.99215E-27
6.20961E-01 8.76942E-27
6.25190E-01 8.55238E-27
6.29410E-01 8.34086E-27
6.33619E-01 8.13471E-27
6.37819E-01 7.93376E-27
6.42008E-01 7.73788E-27
6.46186E-01 7.54691E-27
6.50353E-01 7.36071E-27
6.54508E-01 7.17916E-27
6.58652E-01 7.00212E-27
6.62784E-01 6.82946E-27
6.66903E-01 6.66106E-27
6.71010E-01 6.49681E-27
6.75104E-01 6.33659E-27
6.79184E-01 6.18028E-27
6.83251E-01 6.02779E-27
6.87303E-01 5.87900E-27
6.91342E-01 5.73382E-27
6.95366E-01 5.59214E-27
6.99375E-01 5.45388E-27
7.03368E-01 5.31894E-27
7.07347E-01 5.18723E-27
7.11309E-01 5.05867E-27
7.15256E-01 4.93317E-27
7.19186E-01 4.81065E-27
7.23099E-01 4.69104E-27
7.26995E-01 4.57425E-27
7.30874E-01 4.46022E-27
7.34736E-01 4.34887E-27
7.38579E-01 4.24013E-27
7.42405E-01 4.13394E-27
7.46212E-01 4.03022E-27
7.50000E-01 3.92892E-27
7.53769E-01 3.82998E-27
7.57519E-01 3.73333E-27
7.61249E-01 3.63892E-27
7.64960E-01 3.54669E-27
7.68650E-01 3.45658E-27
7.72320E-01 3.36855E-27
7.75968E-01 3.28254E-27
7.79596E-01 3.19850E-27
7.83203E-01 3.11638E-27
7.86788E-01 3.03614E-27
7.90351E-01 2.95773E-27
7.93893E-01 2.88110E-27
7.97411E-01 2.80621E-27
8.00908E-01 2.73303E-27
8.04381E-01 2.66150E-27
8.07831E-01 2.59159E-27
8.11257E-01 2.52326E-27
8.14660E-01 2.45648E-27
8.18039E-01 2.39120E-27
8.21394E-01 2.32739E-27
8.24724E-01 2.26502E-27
8.28030E-01 2.20405E-27
8.31310E-01 2.14445E-27
8.34565E-01 2.08619E-27
8.37795E-01 2.02924E-27
8.40999E-01 1.97357E-27
8.44177E-01 1.91915E-27
8.47329E-01 1.86595E-27
8.50455E-01 1.81394E-27
8.53553E-01 1.76309E-27
8.56625E-01 1.71339E-27
8.59670E-01 1.66480E-27
8.62687E-01 1.61731E-27
8.65677E-01 1.57087E-27
8.68639E-01 1.52549E-27
8.71572E-01 1.48112E-27
8.74478E-01 1.43775E-27
8.77355E-01 1.39535E-27
8.80203E-01 1.35392E-27
8.83022E-01 1.31341E-27
8.85812E-01 1.27383E-27
8.88573E-01 1.23514E-27
8.91304E-01 1.19732E-27
8.94005E-01 1.16037E-27
8.96677E-01 1.12426E-27
8.99318E-01 1.08897E-27
9.01928E-01 1.05449E-27
9.04508E-01 1.02080E-27
9.07058E-01 9.87881E-28
9.09576E-01 9.55725E-28
9.12063E-01 9.24314E-28
9.14519E-01 8.93633E-28
9.16943E-01 8.63667E-28
9.19335E-01 8.34403E-28
9.21696E-01 8.05827E-28
9.24024E-01 7.77926E-28
9.26320E-01 7.50687E-28
9.28584E-01 7.24099E-28
9.30815E-01 6.98147E-28
9.33013E-01 6.72822E-28
9.35178E-01 6.48111E-28
9.37310E-01 6.24004E-28
9.39409E-01 6.00489E-28
9.41474E-01 5.77556E-28
9.43505E-01 5.55195E-28
9.45503E-01 5.33395E-28
9.47467E-01 5.12148E-28
9.49397E-01 4.91444E-28
9.51293E-01 4.71273E-28
9.53154E-01 4.51627E-28
9.54981E-01 4.32498E-28
9.56773E-01 4.13876E-28
9.58530E-01 3.95754E-28
9.60252E-01 3.78125E-28
9.61940E-01 3.60979E-28
9.63592E-01 3.44310E-28
9.65209E-01 3.28111E-28
9.66790E-01 3.12375E-28
9.68336E-01 2.97095E-28
9.69846E-01 2.82265E-28
9.71321E-01 2.67877E-28
9.72759E-01 2.53927E-28
9.74162E-01 2.40408E-28
9.75528E-01 2.27314E-28
9.76858E-01 2.14641E-28
9.78152E-01 2.02381E-28
9.79410E-01 1.90532E-28
9.80631E-01 1.79086E-28
9.81815E-01 1.68041E-28
9.82963E-01 1.57390E-28
9.84074E-01 1.47130E-28
9.85148E-01 1.37256E-28
9.86185E-01 1.27765E-28
9.87185E-01 1.18652E-28
9.88148E-01 1.09913E-28
9.89074E-01 1.01545E-28
9.89962E-01 9.35447E-29
9.90814E-01 8.59084E-29
9.91627E-01 7.86331E-29
9.92404E-01 7.17158E-29
9.93143E-01 6.51537E-29
9.93844E-01 5.89440E-29
9.94508E-01 5.30841E-29
9.95134E-01 4.75718E-29
9.95722E-01 4.24048E-29
9.96273E-01 3.75808E-29
9.96786E-01 3.30981E-29
9.97261E-01 2.89546E-29
9.97698E-01 2.51489E-29
9.98097E-01 2.16792E-29
9.98459E-01 1.85442E-29
9.98782E-01 1.57426E-29
9.99067E-01 1.32733E-29
9.99315E-01 1.11352E-29
9.99524E-01 9.32757E-30
9.99695E-01 7.84958E-30
9.99829E-01 6.70066E-30
9.99924E-01 5.88033E-30
9.99981E-01 5.38827E-30
1.00000E+00 5.22438E-30
