 #
 # Subroutine ELSEPA. Elastic scattering of electrons and positrons
 #                    by neutral atoms and positive ions
 #
 # Projectile: electron
 # Kinetic energy = 1.75000E+08 eV = 6.43113E+06 a.u.
 #
 # WARNING: High-energy factorization with free-atom DF screening.
 #          Absorption, polarization and exchange corrections are
 #          switched off.
 #          Phase shifts are calculated for the bare nucleus.
 #          Scattering amplitudes are not evaluated.
 #
 # Element: Ti,  Z =  22,  atomic weight = 4.78670E+01 g/mol
 #
 # Nuclear model: Fermi distribution
 #                Average radius = 3.88504E-13 cm
 #                Skin thickness = 5.46000E-14 cm
 #
 # Number of electrons = 22
 #
 # Total elastic cross section = 1.90003E-18 cm**2 = 6.78515E-02 a0**2
 # 1st transport cross section = 3.30611E-26 cm**2 = 1.18063E-09 a0**2
 # 2nd transport cross section = 9.87992E-26 cm**2 = 3.52819E-09 a0**2
 #
 #
 # Differential cross section:                       MU=(1-COS(THETA))/2
 #
 #  THETA        MU          DCS          DCS        Sherman      error
 #  (deg)                 (cm**2/sr)   (a0**2/sr)    function
 #----------------------------------------------------------------------
0.00000E+00 9.03020E-10
7.61557E-13 8.91431E-10
1.18994E-12 8.85015E-10
1.71346E-12 8.77268E-10
2.33225E-12 8.68245E-10
3.04617E-12 8.58008E-10
3.85530E-12 8.46627E-10
4.75964E-12 8.34177E-10
5.75917E-12 8.20739E-10
6.85391E-12 8.06397E-10
8.04379E-12 7.91239E-10
9.32893E-12 7.75354E-10
1.07092E-11 7.58834E-10
1.21847E-11 7.41769E-10
1.37554E-11 7.24247E-10
1.54213E-11 7.06352E-10
1.71823E-11 6.88172E-10
1.90386E-11 6.69794E-10
2.09900E-11 6.51282E-10
2.30367E-11 6.32708E-10
2.51785E-11 6.14172E-10
2.74156E-11 5.95697E-10
2.97478E-11 5.77339E-10
3.21752E-11 5.59214E-10
3.46979E-11 5.41302E-10
3.73157E-11 5.23643E-10
4.00286E-11 5.06349E-10
4.28368E-11 4.89385E-10
4.57402E-11 4.72765E-10
4.87388E-11 4.56589E-10
5.18325E-11 4.40824E-10
5.50215E-11 4.25456E-10
5.83057E-11 4.10567E-10
6.16850E-11 3.96138E-10
6.51595E-11 3.82127E-10
6.87293E-11 3.68596E-10
7.23943E-11 3.55547E-10
7.61544E-11 3.42915E-10
1.18991E-10 2.40171E-10
1.71347E-10 1.72127E-10
2.33223E-10 1.27181E-10
3.04617E-10 9.67433E-11
3.85531E-10 7.53735E-11
4.75965E-10 5.98117E-11
5.75917E-10 4.81034E-11
6.85389E-10 3.90801E-11
8.04380E-10 3.17590E-11
9.32891E-10 2.60004E-11
1.07092E-09 2.16468E-11
1.21847E-09 1.80998E-11
1.37554E-09 1.50560E-11
1.54213E-09 1.26804E-11
1.71823E-09 1.07540E-11
1.90386E-09 9.08621E-12
2.09900E-09 7.74901E-12
2.30367E-09 6.65842E-12
2.51785E-09 5.71676E-12
2.74156E-09 4.94391E-12
2.97478E-09 4.30446E-12
3.21752E-09 3.75405E-12
3.46978E-09 3.29286E-12
3.73156E-09 2.90404E-12
4.00286E-09 2.56967E-12
4.28368E-09 2.28400E-12
4.57402E-09 2.03921E-12
4.87388E-09 1.82692E-12
5.18326E-09 1.64279E-12
5.50215E-09 1.48281E-12
5.83057E-09 1.34243E-12
6.16850E-09 1.21900E-12
6.51596E-09 1.11050E-12
6.87293E-09 1.01419E-12
7.23942E-09 9.28387E-13
7.61544E-09 8.52201E-13
1.18991E-08 3.99921E-13
1.71347E-08 2.12055E-13
2.33223E-08 1.21558E-13
3.04617E-08 7.39394E-14
3.85531E-08 4.72338E-14
4.75965E-08 3.14659E-14
5.75917E-08 2.17345E-14
6.85389E-08 1.54874E-14
8.04380E-08 1.13336E-14
9.32891E-08 8.49035E-15
1.07092E-07 6.48910E-15
1.21847E-07 5.04591E-15
1.37554E-07 3.98442E-15
1.54213E-07 3.18912E-15
1.71823E-07 2.58343E-15
1.90386E-07 2.11539E-15
2.09900E-07 1.74866E-15
2.30367E-07 1.45821E-15
2.51785E-07 1.22572E-15
2.74156E-07 1.03780E-15
2.97478E-07 8.84548E-16
3.21752E-07 7.58477E-16
3.46978E-07 6.54079E-16
3.73156E-07 5.67026E-16
4.00286E-07 4.93970E-16
4.28368E-07 4.32292E-16
4.57402E-07 3.79905E-16
4.87388E-07 3.35209E-16
5.18325E-07 2.96886E-16
5.50215E-07 2.63877E-16
5.83057E-07 2.35322E-16
6.16850E-07 2.10511E-16
6.51596E-07 1.88881E-16
6.87293E-07 1.69954E-16
7.23942E-07 1.53335E-16
7.61543E-07 1.38695E-16
1.18991E-06 5.71539E-17
1.71347E-06 2.76437E-17
2.33223E-06 1.49451E-17
3.04617E-06 8.76883E-18
3.85531E-06 5.47771E-18
4.75964E-06 3.59548E-18
5.75916E-06 2.45656E-18
6.85388E-06 1.73494E-18
8.04378E-06 1.25988E-18
9.32888E-06 9.36849E-19
1.07092E-05 7.11031E-19
1.21846E-05 5.49337E-19
1.37553E-05 4.31106E-19
1.54212E-05 3.43042E-19
1.71822E-05 2.76362E-19
1.90385E-05 2.25123E-19
2.09899E-05 1.85243E-19
2.30365E-05 1.53814E-19
2.51783E-05 1.28773E-19
2.74153E-05 1.08625E-19
2.97475E-05 9.22668E-20
3.21749E-05 7.88761E-20
3.46974E-05 6.78304E-20
3.73152E-05 5.86538E-20
4.00281E-05 5.09790E-20
4.28362E-05 4.45200E-20
4.57395E-05 3.90524E-20
4.87380E-05 3.43989E-20
5.18317E-05 3.04182E-20
5.50205E-05 2.69969E-20
5.83045E-05 2.40434E-20
6.16838E-05 2.14833E-20
6.51582E-05 1.92552E-20
6.87277E-05 1.73088E-20
7.23925E-05 1.56025E-20
7.61524E-05 1.40942E-20
9.21439E-05 9.62907E-21
1.09658E-04 6.80040E-21
1.28695E-04 4.93843E-21
1.49255E-04 3.67227E-21
1.71338E-04 2.78717E-21
1.94942E-04 2.15336E-21
2.20070E-04 1.68990E-21
2.46720E-04 1.34467E-21
2.74892E-04 1.08325E-21
3.04586E-04 8.82373E-22
3.35803E-04 7.25960E-22
3.68542E-04 6.02709E-22
4.02802E-04 5.04528E-22
4.38585E-04 4.25538E-22
4.75889E-04 3.61411E-22
5.14715E-04 3.08911E-22
5.55063E-04 2.65600E-22
5.96931E-04 2.29613E-22
6.40321E-04 1.99513E-22
6.85233E-04 1.74182E-22
7.31665E-04 1.52740E-22
7.79618E-04 1.34494E-22
8.29092E-04 1.18888E-22
8.80086E-04 1.05478E-22
9.32601E-04 9.39019E-23
9.86636E-04 8.38679E-23
1.04219E-03 7.51359E-23
1.09927E-03 6.75083E-23
1.15786E-03 6.08219E-23
1.21797E-03 5.49406E-23
1.27961E-03 4.97511E-23
1.34276E-03 4.51580E-23
1.40743E-03 4.10809E-23
1.47362E-03 3.74520E-23
1.54133E-03 3.42134E-23
1.61056E-03 3.13158E-23
1.68131E-03 2.87172E-23
1.75357E-03 2.63813E-23
1.82735E-03 2.42769E-23
1.90265E-03 2.23770E-23
1.97947E-03 2.06583E-23
2.05780E-03 1.91005E-23
2.13765E-03 1.76859E-23
2.21902E-03 1.63989E-23
2.30190E-03 1.52261E-23
2.38630E-03 1.41555E-23
2.47222E-03 1.31767E-23
2.55965E-03 1.22803E-23
2.64859E-03 1.14582E-23
2.73905E-03 1.07032E-23
2.83103E-03 1.00088E-23
2.92452E-03 9.36925E-24
3.01952E-03 8.77949E-24
3.11604E-03 8.23494E-24
3.21407E-03 7.73151E-24
3.31362E-03 7.26555E-24
3.41468E-03 6.83377E-24
3.51725E-03 6.43321E-24
3.62133E-03 6.06121E-24
3.72692E-03 5.71538E-24
3.83403E-03 5.39355E-24
3.94265E-03 5.09375E-24
4.05278E-03 4.81420E-24
4.16442E-03 4.55329E-24
4.27757E-03 4.30956E-24
4.39223E-03 4.08167E-24
4.50840E-03 3.86841E-24
4.62608E-03 3.66867E-24
4.74527E-03 3.48145E-24
4.86597E-03 3.30581E-24
4.98817E-03 3.14092E-24
5.11188E-03 2.98599E-24
5.23711E-03 2.84032E-24
5.36383E-03 2.70326E-24
5.49207E-03 2.57420E-24
5.62181E-03 2.45260E-24
5.75306E-03 2.33795E-24
5.88581E-03 2.22978E-24
6.02007E-03 2.12766E-24
6.15583E-03 2.03119E-24
6.29310E-03 1.94000E-24
6.43187E-03 1.85375E-24
6.57214E-03 1.77213E-24
6.71392E-03 1.69484E-24
6.85720E-03 1.62161E-24
7.00198E-03 1.55220E-24
7.14827E-03 1.48636E-24
7.29605E-03 1.42389E-24
7.44534E-03 1.36457E-24
7.59612E-03 1.30823E-24
7.97965E-03 1.17925E-24
8.37255E-03 1.06535E-24
8.77480E-03 9.64478E-25
9.18641E-03 8.74910E-25
9.60736E-03 7.95175E-25
1.00376E-02 7.24020E-25
1.04773E-02 6.60374E-25
1.09262E-02 6.03318E-25
1.13844E-02 5.52062E-25
1.18520E-02 5.05921E-25
1.23288E-02 4.64306E-25
1.28150E-02 4.26701E-25
1.33104E-02 3.92661E-25
1.38150E-02 3.61793E-25
1.43290E-02 3.33756E-25
1.48521E-02 3.08250E-25
1.53845E-02 2.85011E-25
1.59262E-02 2.63807E-25
1.64770E-02 2.44432E-25
1.70371E-02 2.26704E-25
1.76063E-02 2.10462E-25
1.81848E-02 1.95563E-25
1.87724E-02 1.81879E-25
1.93692E-02 1.69296E-25
1.99751E-02 1.57712E-25
2.05901E-02 1.47037E-25
2.12143E-02 1.37188E-25
2.18476E-02 1.28093E-25
2.24900E-02 1.19685E-25
2.31415E-02 1.11905E-25
2.38021E-02 1.04700E-25
2.44717E-02 9.80207E-26
2.51504E-02 9.18237E-26
2.58382E-02 8.60693E-26
2.65349E-02 8.07216E-26
2.72407E-02 7.57479E-26
2.79555E-02 7.11186E-26
2.86793E-02 6.68065E-26
2.94120E-02 6.27871E-26
3.01537E-02 5.90379E-26
3.09043E-02 5.55384E-26
3.16639E-02 5.22698E-26
3.24324E-02 4.92149E-26
3.32098E-02 4.63581E-26
3.39961E-02 4.36848E-26
3.47912E-02 4.11818E-26
3.55952E-02 3.88369E-26
3.64081E-02 3.66391E-26
3.72297E-02 3.45779E-26
3.80602E-02 3.26438E-26
3.88995E-02 3.08282E-26
3.97476E-02 2.91228E-26
4.06044E-02 2.75204E-26
4.14700E-02 2.60139E-26
4.23443E-02 2.45970E-26
4.32273E-02 2.32638E-26
4.41190E-02 2.20088E-26
4.50194E-02 2.08270E-26
4.59284E-02 1.97136E-26
4.68461E-02 1.86643E-26
4.87074E-02 1.67419E-26
5.06030E-02 1.50308E-26
5.25328E-02 1.35055E-26
5.44967E-02 1.21442E-26
5.64946E-02 1.09279E-26
5.85262E-02 9.83971E-27
6.05914E-02 8.86524E-27
6.26901E-02 7.99170E-27
6.48222E-02 7.20788E-27
6.69873E-02 6.50395E-27
6.91854E-02 5.87124E-27
7.14163E-02 5.30210E-27
7.36799E-02 4.78976E-27
7.59760E-02 4.32825E-27
7.83043E-02 3.91225E-27
8.06647E-02 3.53706E-27
8.30571E-02 3.19848E-27
8.54812E-02 2.89280E-27
8.79369E-02 2.61667E-27
9.04240E-02 2.36715E-27
9.29422E-02 2.14157E-27
9.54915E-02 1.93757E-27
9.80716E-02 1.75302E-27
1.00682E-01 1.58603E-27
1.03323E-01 1.43487E-27
1.05995E-01 1.29803E-27
1.08696E-01 1.17412E-27
1.11427E-01 1.06191E-27
1.14188E-01 9.60268E-28
1.16978E-01 8.68199E-28
1.19797E-01 7.84794E-28
1.22645E-01 7.09234E-28
1.25522E-01 6.40782E-28
1.28428E-01 5.78769E-28
1.31361E-01 5.22593E-28
1.34323E-01 4.71708E-28
1.37313E-01 4.25620E-28
1.40330E-01 3.83883E-28
1.43375E-01 3.46092E-28
1.46447E-01 3.11880E-28
1.49545E-01 2.80915E-28
1.52671E-01 2.52896E-28
1.55823E-01 2.27548E-28
1.59001E-01 2.04624E-28
1.62205E-01 1.83900E-28
1.65435E-01 1.65170E-28
1.68690E-01 1.48250E-28
1.71970E-01 1.32970E-28
1.75276E-01 1.19178E-28
1.78606E-01 1.06736E-28
1.81961E-01 9.55157E-29
1.85340E-01 8.54039E-29
1.88743E-01 7.62960E-29
1.92169E-01 6.80975E-29
1.95619E-01 6.07223E-29
1.99092E-01 5.40925E-29
2.02589E-01 4.81369E-29
2.06107E-01 4.27913E-29
2.09649E-01 3.79970E-29
2.13212E-01 3.37010E-29
2.16797E-01 2.98550E-29
2.20404E-01 2.64151E-29
2.24032E-01 2.33417E-29
2.27680E-01 2.05987E-29
2.31350E-01 1.81533E-29
2.35040E-01 1.59760E-29
2.38751E-01 1.40398E-29
2.42481E-01 1.23204E-29
2.46231E-01 1.07957E-29
2.50000E-01 9.44575E-30
2.53788E-01 8.25248E-30
2.57595E-01 7.19954E-30
2.61421E-01 6.27215E-30
2.65264E-01 5.45697E-30
2.69126E-01 4.74195E-30
2.73005E-01 4.11622E-30
2.76901E-01 3.56997E-30
2.80814E-01 3.09437E-30
2.84744E-01 2.68148E-30
2.88691E-01 2.32414E-30
2.92653E-01 2.01594E-30
2.96632E-01 1.75110E-30
3.00625E-01 1.52446E-30
3.04634E-01 1.33137E-30
3.08658E-01 1.16771E-30
3.12697E-01 1.02976E-30
3.16749E-01 9.14219E-31
3.20816E-01 8.18143E-31
3.24896E-01 7.38913E-31
3.28990E-01 6.74201E-31
3.33097E-01 6.21946E-31
3.37216E-01 5.80323E-31
3.41348E-01 5.47719E-31
3.45492E-01 5.22716E-31
3.49647E-01 5.04066E-31
3.53814E-01 4.90678E-31
3.57992E-01 4.81595E-31
3.62181E-01 4.75988E-31
3.66381E-01 4.73136E-31
3.70590E-01 4.72416E-31
3.74810E-01 4.73294E-31
3.79039E-01 4.75312E-31
3.83277E-01 4.78082E-31
3.87524E-01 4.81277E-31
3.91780E-01 4.84622E-31
3.96044E-01 4.87891E-31
4.00316E-01 4.90901E-31
4.04596E-01 4.93501E-31
4.08882E-01 4.95575E-31
4.13176E-01 4.97034E-31
4.17476E-01 4.97813E-31
4.21783E-01 4.97865E-31
4.26095E-01 4.97165E-31
4.30413E-01 4.95698E-31
4.34737E-01 4.93466E-31
4.39065E-01 4.90477E-31
4.43398E-01 4.86753E-31
4.47736E-01 4.82319E-31
4.52077E-01 4.77206E-31
4.56422E-01 4.71452E-31
4.60770E-01 4.65095E-31
4.65122E-01 4.58179E-31
4.69476E-01 4.50747E-31
4.73832E-01 4.42843E-31
4.78190E-01 4.34513E-31
4.82550E-01 4.25802E-31
4.86912E-01 4.16754E-31
4.91274E-01 4.07413E-31
4.95637E-01 3.97821E-31
5.00000E-01 3.88018E-31
5.04363E-01 3.78044E-31
5.08726E-01 3.67936E-31
5.13088E-01 3.57730E-31
5.17450E-01 3.47458E-31
5.21810E-01 3.37154E-31
5.26168E-01 3.26845E-31
5.30524E-01 3.16560E-31
5.34878E-01 3.06324E-31
5.39230E-01 2.96159E-31
5.43578E-01 2.86089E-31
5.47923E-01 2.76132E-31
5.52264E-01 2.66306E-31
5.56602E-01 2.56626E-31
5.60935E-01 2.47108E-31
5.65263E-01 2.37764E-31
5.69587E-01 2.28605E-31
5.73905E-01 2.19641E-31
5.78217E-01 2.10880E-31
5.82524E-01 2.02328E-31
5.86824E-01 1.93993E-31
5.91118E-01 1.85878E-31
5.95404E-01 1.77986E-31
5.99684E-01 1.70322E-31
6.03956E-01 1.62885E-31
6.08220E-01 1.55678E-31
6.12476E-01 1.48700E-31
6.16723E-01 1.41951E-31
6.20961E-01 1.35428E-31
6.25190E-01 1.29132E-31
6.29410E-01 1.23059E-31
6.33619E-01 1.17206E-31
6.37819E-01 1.11570E-31
6.42008E-01 1.06147E-31
6.46186E-01 1.00935E-31
6.50353E-01 9.59274E-32
6.54508E-01 9.11210E-32
6.58652E-01 8.65108E-32
6.62784E-01 8.20921E-32
6.66903E-01 7.78599E-32
6.71010E-01 7.38091E-32
6.75104E-01 6.99345E-32
6.79184E-01 6.62309E-32
6.83251E-01 6.26931E-32
6.87303E-01 5.93157E-32
6.91342E-01 5.60935E-32
6.95366E-01 5.30213E-32
6.99375E-01 5.00937E-32
7.03368E-01 4.73057E-32
7.07347E-01 4.46521E-32
7.11309E-01 4.21280E-32
7.15256E-01 3.97282E-32
7.19186E-01 3.74480E-32
7.23099E-01 3.52827E-32
7.26995E-01 3.32274E-32
7.30874E-01 3.12778E-32
7.34736E-01 2.94292E-32
7.38579E-01 2.76775E-32
7.42405E-01 2.60183E-32
7.46212E-01 2.44477E-32
7.50000E-01 2.29616E-32
7.53769E-01 2.15562E-32
7.57519E-01 2.02278E-32
7.61249E-01 1.89728E-32
7.64960E-01 1.77876E-32
7.68650E-01 1.66691E-32
7.72320E-01 1.56139E-32
7.75968E-01 1.46190E-32
7.79596E-01 1.36813E-32
7.83203E-01 1.27980E-32
7.86788E-01 1.19664E-32
7.90351E-01 1.11837E-32
7.93893E-01 1.04476E-32
7.97411E-01 9.75540E-33
8.00908E-01 9.10496E-33
8.04381E-01 8.49401E-33
8.07831E-01 7.92043E-33
8.11257E-01 7.38218E-33
8.14660E-01 6.87734E-33
8.18039E-01 6.40405E-33
8.21394E-01 5.96057E-33
8.24724E-01 5.54521E-33
8.28030E-01 5.15637E-33
8.31310E-01 4.79255E-33
8.34565E-01 4.45229E-33
8.37795E-01 4.13423E-33
8.40999E-01 3.83706E-33
8.44177E-01 3.55955E-33
8.47329E-01 3.30054E-33
8.50455E-01 3.05890E-33
8.53553E-01 2.83358E-33
8.56625E-01 2.62359E-33
8.59670E-01 2.42798E-33
8.62687E-01 2.24587E-33
8.65677E-01 2.07641E-33
8.68639E-01 1.91880E-33
8.71572E-01 1.77229E-33
8.74478E-01 1.63617E-33
8.77355E-01 1.50978E-33
8.80203E-01 1.39247E-33
8.83022E-01 1.28366E-33
8.85812E-01 1.18279E-33
8.88573E-01 1.08932E-33
8.91304E-01 1.00276E-33
8.94005E-01 9.22652E-34
8.96677E-01 8.48549E-34
8.99318E-01 7.80040E-34
9.01928E-01 7.16738E-34
9.04508E-01 6.58285E-34
9.07058E-01 6.04335E-34
9.09576E-01 5.54575E-34
9.12063E-01 5.08703E-34
9.14519E-01 4.66439E-34
9.16943E-01 4.27524E-34
9.19335E-01 3.91713E-34
9.21696E-01 3.58775E-34
9.24024E-01 3.28498E-34
9.26320E-01 3.00686E-34
9.28584E-01 2.75148E-34
9.30815E-01 2.51714E-34
9.33013E-01 2.30221E-34
9.35178E-01 2.10521E-34
9.37310E-01 1.92471E-34
9.39409E-01 1.75943E-34
9.41474E-01 1.60816E-34
9.43505E-01 1.46978E-34
9.45503E-01 1.34323E-34
9.47467E-01 1.22758E-34
9.49397E-01 1.12189E-34
9.51293E-01 1.02538E-34
9.53154E-01 9.37236E-35
9.54981E-01 8.56791E-35
9.56773E-01 7.83362E-35
9.58530E-01 7.16360E-35
9.60252E-01 6.55225E-35
9.61940E-01 5.99450E-35
9.63592E-01 5.48552E-35
9.65209E-01 5.02109E-35
9.66790E-01 4.59719E-35
9.68336E-01 4.21013E-35
9.69846E-01 3.85664E-35
9.71321E-01 3.53363E-35
9.72759E-01 3.23830E-35
9.74162E-01 2.96804E-35
9.75528E-01 2.72059E-35
9.76858E-01 2.49379E-35
9.78152E-01 2.28577E-35
9.79410E-01 2.09475E-35
9.80631E-01 1.91915E-35
9.81815E-01 1.75751E-35
9.82963E-01 1.60858E-35
9.84074E-01 1.47119E-35
9.85148E-01 1.34426E-35
9.86185E-01 1.22690E-35
9.87185E-01 1.11821E-35
9.88148E-01 1.01750E-35
9.89074E-01 9.23988E-36
9.89962E-01 8.37190E-36
9.90814E-01 7.56564E-36
9.91627E-01 6.81585E-36
9.92404E-01 6.11885E-36
9.93143E-01 5.47104E-36
9.93844E-01 4.86893E-36
9.94508E-01 4.30984E-36
9.95134E-01 3.79205E-36
9.95722E-01 3.31245E-36
9.96273E-01 2.86999E-36
9.96786E-01 2.46268E-36
9.97261E-01 2.08955E-36
9.97698E-01 1.74935E-36
9.98097E-01 1.44113E-36
9.98459E-01 1.16418E-36
9.98782E-01 9.17774E-37
9.99067E-01 7.01428E-37
9.99315E-01 5.14598E-37
9.99524E-01 3.57111E-37
9.99695E-01 2.28769E-37
9.99829E-01 1.28957E-37
9.99924E-01 5.78984E-38
9.99981E-01 1.51897E-38
1.00000E+00 8.43137E-40
