 #
 # Subroutine ELSEPA. Elastic scattering of electrons and positrons
 #                    by neutral atoms and positive ions
 #
 # Projectile: electron
 # Kinetic energy = 8.00000E+07 eV = 2.93995E+06 a.u.
 #
 # WARNING: High-energy factorization with free-atom DF screening.
 #          Absorption, polarization and exchange corrections are
 #          switched off.
 #          Phase shifts are calculated for the bare nucleus.
 #          Scattering amplitudes are not evaluated.
 #
 # Element: Ti,  Z =  22,  atomic weight = 4.78670E+01 g/mol
 #
 # Nuclear model: Fermi distribution
 #                Average radius = 3.88504E-13 cm
 #                Skin thickness = 5.46000E-14 cm
 #
 # Number of electrons = 22
 #
 # Total elastic cross section = 1.90023E-18 cm**2 = 6.78585E-02 a0**2
 # 1st transport cross section = 1.55761E-25 cm**2 = 5.56234E-09 a0**2
 # 2nd transport cross section = 4.60585E-25 cm**2 = 1.64478E-08 a0**2
 #
 #
 # Differential cross section:                       MU=(1-COS(THETA))/2
 #
 #  THETA        MU          DCS          DCS        Sherman      error
 #  (deg)                 (cm**2/sr)   (a0**2/sr)    function
 #----------------------------------------------------------------------
0.00000E+00 1.90020E-10
7.61557E-13 1.89502E-10
1.18994E-12 1.89212E-10
1.71346E-12 1.88859E-10
2.33225E-12 1.88443E-10
3.04617E-12 1.87964E-10
3.85530E-12 1.87424E-10
4.75964E-12 1.86823E-10
5.75917E-12 1.86163E-10
6.85391E-12 1.85443E-10
8.04379E-12 1.84666E-10
9.32893E-12 1.83832E-10
1.07092E-11 1.82943E-10
1.21847E-11 1.81999E-10
1.37554E-11 1.81003E-10
1.54213E-11 1.79955E-10
1.71823E-11 1.78858E-10
1.90386E-11 1.77712E-10
2.09900E-11 1.76520E-10
2.30367E-11 1.75283E-10
2.51785E-11 1.74002E-10
2.74156E-11 1.72679E-10
2.97478E-11 1.71316E-10
3.21752E-11 1.69916E-10
3.46979E-11 1.68478E-10
3.73157E-11 1.67006E-10
4.00286E-11 1.65502E-10
4.28368E-11 1.63966E-10
4.57402E-11 1.62401E-10
4.87388E-11 1.60809E-10
5.18325E-11 1.59192E-10
5.50215E-11 1.57551E-10
5.83057E-11 1.55888E-10
6.16850E-11 1.54205E-10
6.51595E-11 1.52504E-10
6.87293E-11 1.50786E-10
7.23943E-11 1.49054E-10
7.61544E-11 1.47308E-10
1.18991E-10 1.29489E-10
1.71347E-10 1.11955E-10
2.33223E-10 9.57098E-11
3.04617E-10 8.12933E-11
3.85531E-10 6.88886E-11
4.75965E-10 5.84397E-11
5.75917E-10 4.97448E-11
6.85389E-10 4.25679E-11
8.04380E-10 3.66455E-11
9.32891E-10 3.17582E-11
1.07092E-09 2.77011E-11
1.21847E-09 2.43154E-11
1.37554E-09 2.14685E-11
1.54213E-09 1.90539E-11
1.71823E-09 1.69925E-11
1.90386E-09 1.52157E-11
2.09900E-09 1.36756E-11
2.30367E-09 1.23297E-11
2.51785E-09 1.11473E-11
2.74156E-09 1.01026E-11
2.97478E-09 9.17465E-12
3.21752E-09 8.34813E-12
3.46978E-09 7.60756E-12
3.73156E-09 6.90606E-12
4.00286E-09 6.27851E-12
4.28368E-09 5.72960E-12
4.57402E-09 5.24762E-12
4.87388E-09 4.82285E-12
5.18326E-09 4.44715E-12
5.50215E-09 4.11371E-12
5.83057E-09 3.76905E-12
6.16850E-09 3.45937E-12
6.51596E-09 3.18379E-12
6.87293E-09 2.93784E-12
7.23942E-09 2.71771E-12
7.61544E-09 2.52016E-12
1.18991E-08 1.21456E-12
1.71347E-08 6.48434E-13
2.33223E-08 3.79904E-13
3.04617E-08 2.40298E-13
3.85531E-08 1.61136E-13
4.75965E-08 1.12790E-13
5.75917E-08 8.15446E-14
6.85389E-08 6.03763E-14
8.04380E-08 4.56133E-14
9.32891E-08 3.49978E-14
1.07092E-07 2.72529E-14
1.21847E-07 2.14785E-14
1.37554E-07 1.71330E-14
1.54213E-07 1.38080E-14
1.71823E-07 1.12409E-14
1.90386E-07 9.23423E-15
2.09900E-07 7.65183E-15
2.30367E-07 6.39166E-15
2.51785E-07 5.37938E-15
2.74156E-07 4.55928E-15
2.97478E-07 3.88946E-15
3.21752E-07 3.33833E-15
3.46978E-07 2.88158E-15
3.73156E-07 2.50027E-15
4.00286E-07 2.18051E-15
4.28368E-07 1.91087E-15
4.57402E-07 1.68136E-15
4.87388E-07 1.48571E-15
5.18325E-07 1.31791E-15
5.50215E-07 1.17310E-15
5.83057E-07 1.04790E-15
6.16850E-07 9.38983E-16
6.51596E-07 8.43904E-16
6.87293E-07 7.60721E-16
7.23942E-07 6.87462E-16
7.61543E-07 6.22890E-16
1.18991E-06 2.60830E-16
1.71347E-06 1.27699E-16
2.33223E-06 6.96144E-17
3.04617E-06 4.10771E-17
3.85531E-06 2.57593E-17
4.75964E-06 1.69527E-17
5.75916E-06 1.16043E-17
6.85388E-06 8.20651E-18
8.04378E-06 5.96521E-18
9.32888E-06 4.43899E-18
1.07092E-05 3.37087E-18
1.21846E-05 2.60542E-18
1.37553E-05 2.04534E-18
1.54212E-05 1.62796E-18
1.71822E-05 1.31179E-18
1.90385E-05 1.06876E-18
2.09899E-05 8.79557E-19
2.30365E-05 7.30411E-19
2.51783E-05 6.11559E-19
2.74153E-05 5.15914E-19
2.97475E-05 4.38251E-19
3.21749E-05 3.74670E-19
3.46974E-05 3.22218E-19
3.73152E-05 2.78638E-19
4.00281E-05 2.42187E-19
4.28362E-05 2.11509E-19
4.57395E-05 1.85539E-19
4.87380E-05 1.63434E-19
5.18317E-05 1.44524E-19
5.50205E-05 1.28272E-19
5.83045E-05 1.14241E-19
6.16838E-05 1.02078E-19
6.51582E-05 9.14925E-20
6.87277E-05 8.22454E-20
7.23925E-05 7.41382E-20
7.61524E-05 6.70010E-20
9.21439E-05 4.57820E-20
1.09658E-04 3.23382E-20
1.28695E-04 2.34880E-20
1.49255E-04 1.74692E-20
1.71338E-04 1.32614E-20
1.94942E-04 1.02479E-20
2.20070E-04 8.04413E-21
2.46720E-04 6.40240E-21
2.74892E-04 5.15907E-21
3.04586E-04 4.20358E-21
3.35803E-04 3.45947E-21
3.68542E-04 2.87305E-21
4.02802E-04 2.40584E-21
4.38585E-04 2.02990E-21
4.75889E-04 1.72465E-21
5.14715E-04 1.47470E-21
5.55063E-04 1.26846E-21
5.96931E-04 1.09706E-21
6.40321E-04 9.53674E-22
6.85233E-04 8.32978E-22
7.31665E-04 7.30796E-22
7.79618E-04 6.43820E-22
8.29092E-04 5.69413E-22
8.80086E-04 5.05457E-22
9.32601E-04 4.50237E-22
9.86636E-04 4.02360E-22
1.04219E-03 3.60684E-22
1.09927E-03 3.24269E-22
1.15786E-03 2.92337E-22
1.21797E-03 2.64243E-22
1.27961E-03 2.39445E-22
1.34276E-03 2.17490E-22
1.40743E-03 1.97995E-22
1.47362E-03 1.80637E-22
1.54133E-03 1.65141E-22
1.61056E-03 1.51272E-22
1.68131E-03 1.38829E-22
1.75357E-03 1.27639E-22
1.82735E-03 1.17555E-22
1.90265E-03 1.08447E-22
1.97947E-03 1.00205E-22
2.05780E-03 9.27309E-23
2.13765E-03 8.59408E-23
2.21902E-03 7.97609E-23
2.30190E-03 7.41266E-23
2.38630E-03 6.89810E-23
2.47222E-03 6.42741E-23
2.55965E-03 5.99618E-23
2.64859E-03 5.60050E-23
2.73905E-03 5.23692E-23
2.83103E-03 4.90235E-23
2.92452E-03 4.59406E-23
3.01952E-03 4.30961E-23
3.11604E-03 4.04683E-23
3.21407E-03 3.80376E-23
3.31362E-03 3.57865E-23
3.41468E-03 3.36993E-23
3.51725E-03 3.17620E-23
3.62133E-03 2.99618E-23
3.72692E-03 2.82871E-23
3.83403E-03 2.67277E-23
3.94265E-03 2.52742E-23
4.05278E-03 2.39180E-23
4.16442E-03 2.26514E-23
4.27757E-03 2.14674E-23
4.39223E-03 2.03596E-23
4.50840E-03 1.93223E-23
4.62608E-03 1.83501E-23
4.74527E-03 1.74381E-23
4.86597E-03 1.65820E-23
4.98817E-03 1.57776E-23
5.11188E-03 1.50214E-23
5.23711E-03 1.43097E-23
5.36383E-03 1.36397E-23
5.49207E-03 1.30083E-23
5.62181E-03 1.24129E-23
5.75306E-03 1.18511E-23
5.88581E-03 1.13206E-23
6.02007E-03 1.08194E-23
6.15583E-03 1.03455E-23
6.29310E-03 9.89725E-24
6.43187E-03 9.47290E-24
6.57214E-03 9.07096E-24
6.71392E-03 8.69004E-24
6.85720E-03 8.32884E-24
7.00198E-03 7.98613E-24
7.14827E-03 7.66079E-24
7.29605E-03 7.35179E-24
7.44534E-03 7.05814E-24
7.59612E-03 6.77894E-24
7.97965E-03 6.13876E-24
8.37255E-03 5.57205E-24
8.77480E-03 5.06894E-24
9.18641E-03 4.62104E-24
9.60736E-03 4.22127E-24
1.00376E-02 3.86354E-24
1.04773E-02 3.54267E-24
1.09262E-02 3.25421E-24
1.13844E-02 2.99430E-24
1.18520E-02 2.75963E-24
1.23288E-02 2.54733E-24
1.28150E-02 2.35487E-24
1.33104E-02 2.18009E-24
1.38150E-02 2.02108E-24
1.43290E-02 1.87615E-24
1.48521E-02 1.74386E-24
1.53845E-02 1.62289E-24
1.59262E-02 1.51211E-24
1.64770E-02 1.41052E-24
1.70371E-02 1.31720E-24
1.76063E-02 1.23138E-24
1.81848E-02 1.15234E-24
1.87724E-02 1.07945E-24
1.93692E-02 1.01215E-24
1.99751E-02 9.49940E-25
2.05901E-02 8.92357E-25
2.12143E-02 8.39000E-25
2.18476E-02 7.89506E-25
2.24900E-02 7.43543E-25
2.31415E-02 7.00817E-25
2.38021E-02 6.61058E-25
2.44717E-02 6.24024E-25
2.51504E-02 5.89497E-25
2.58382E-02 5.57275E-25
2.65349E-02 5.27178E-25
2.72407E-02 4.99041E-25
2.79555E-02 4.72714E-25
2.86793E-02 4.48060E-25
2.94120E-02 4.24955E-25
3.01537E-02 4.03283E-25
3.09043E-02 3.82940E-25
3.16639E-02 3.63830E-25
3.24324E-02 3.45866E-25
3.32098E-02 3.28967E-25
3.39961E-02 3.13059E-25
3.47912E-02 2.98073E-25
3.55952E-02 2.83946E-25
3.64081E-02 2.70622E-25
3.72297E-02 2.58045E-25
3.80602E-02 2.46168E-25
3.88995E-02 2.34944E-25
3.97476E-02 2.24332E-25
4.06044E-02 2.14291E-25
4.14700E-02 2.04787E-25
4.23443E-02 1.95785E-25
4.32273E-02 1.87254E-25
4.41190E-02 1.79166E-25
4.50194E-02 1.71494E-25
4.59284E-02 1.64212E-25
4.68461E-02 1.57297E-25
4.87074E-02 1.44484E-25
5.06030E-02 1.32899E-25
5.25328E-02 1.22404E-25
5.44967E-02 1.12882E-25
5.64946E-02 1.04227E-25
5.85262E-02 9.63486E-26
6.05914E-02 8.91657E-26
6.26901E-02 8.26075E-26
6.48222E-02 7.66111E-26
6.69873E-02 7.11209E-26
6.91854E-02 6.60876E-26
7.14163E-02 6.14674E-26
7.36799E-02 5.72212E-26
7.59760E-02 5.33141E-26
7.83043E-02 4.97149E-26
8.06647E-02 4.63958E-26
8.30571E-02 4.33316E-26
8.54812E-02 4.04999E-26
8.79369E-02 3.78805E-26
9.04240E-02 3.54551E-26
9.29422E-02 3.32073E-26
9.54915E-02 3.11222E-26
9.80716E-02 2.91863E-26
1.00682E-01 2.73874E-26
1.03323E-01 2.57145E-26
1.05995E-01 2.41574E-26
1.08696E-01 2.27072E-26
1.11427E-01 2.13554E-26
1.14188E-01 2.00944E-26
1.16978E-01 1.89173E-26
1.19797E-01 1.78178E-26
1.22645E-01 1.67901E-26
1.25522E-01 1.58289E-26
1.28428E-01 1.49292E-26
1.31361E-01 1.40868E-26
1.34323E-01 1.32974E-26
1.37313E-01 1.25573E-26
1.40330E-01 1.18630E-26
1.43375E-01 1.12114E-26
1.46447E-01 1.05994E-26
1.49545E-01 1.00245E-26
1.52671E-01 9.48400E-27
1.55823E-01 8.97569E-27
1.59001E-01 8.49741E-27
1.62205E-01 8.04719E-27
1.65435E-01 7.62317E-27
1.68690E-01 7.22366E-27
1.71970E-01 6.84710E-27
1.75276E-01 6.49201E-27
1.78606E-01 6.15703E-27
1.81961E-01 5.84090E-27
1.85340E-01 5.54245E-27
1.88743E-01 5.26059E-27
1.92169E-01 4.99429E-27
1.95619E-01 4.74261E-27
1.99092E-01 4.50466E-27
2.02589E-01 4.27963E-27
2.06107E-01 4.06673E-27
2.09649E-01 3.86526E-27
2.13212E-01 3.67454E-27
2.16797E-01 3.49393E-27
2.20404E-01 3.32286E-27
2.24032E-01 3.16078E-27
2.27680E-01 3.00717E-27
2.31350E-01 2.86154E-27
2.35040E-01 2.72345E-27
2.38751E-01 2.59247E-27
2.42481E-01 2.46821E-27
2.46231E-01 2.35028E-27
2.50000E-01 2.23835E-27
2.53788E-01 2.13208E-27
2.57595E-01 2.03116E-27
2.61421E-01 1.93530E-27
2.65264E-01 1.84423E-27
2.69126E-01 1.75769E-27
2.73005E-01 1.67543E-27
2.76901E-01 1.59724E-27
2.80814E-01 1.52289E-27
2.84744E-01 1.45219E-27
2.88691E-01 1.38493E-27
2.92653E-01 1.32095E-27
2.96632E-01 1.26006E-27
3.00625E-01 1.20212E-27
3.04634E-01 1.14697E-27
3.08658E-01 1.09446E-27
3.12697E-01 1.04447E-27
3.16749E-01 9.96856E-28
3.20816E-01 9.51509E-28
3.24896E-01 9.08310E-28
3.28990E-01 8.67153E-28
3.33097E-01 8.27936E-28
3.37216E-01 7.90561E-28
3.41348E-01 7.54938E-28
3.45492E-01 7.20980E-28
3.49647E-01 6.88605E-28
3.53814E-01 6.57735E-28
3.57992E-01 6.28297E-28
3.62181E-01 6.00221E-28
3.66381E-01 5.73440E-28
3.70590E-01 5.47893E-28
3.74810E-01 5.23520E-28
3.79039E-01 5.00264E-28
3.83277E-01 4.78071E-28
3.87524E-01 4.56892E-28
3.91780E-01 4.36677E-28
3.96044E-01 4.17382E-28
4.00316E-01 3.98961E-28
4.04596E-01 3.81375E-28
4.08882E-01 3.64584E-28
4.13176E-01 3.48550E-28
4.17476E-01 3.33238E-28
4.21783E-01 3.18614E-28
4.26095E-01 3.04647E-28
4.30413E-01 2.91306E-28
4.34737E-01 2.78561E-28
4.39065E-01 2.66385E-28
4.43398E-01 2.54752E-28
4.47736E-01 2.43637E-28
4.52077E-01 2.33017E-28
4.56422E-01 2.22868E-28
4.60770E-01 2.13168E-28
4.65122E-01 2.03898E-28
4.69476E-01 1.95038E-28
4.73832E-01 1.86569E-28
4.78190E-01 1.78474E-28
4.82550E-01 1.70735E-28
4.86912E-01 1.63337E-28
4.91274E-01 1.56264E-28
4.95637E-01 1.49501E-28
5.00000E-01 1.43035E-28
5.04363E-01 1.36852E-28
5.08726E-01 1.30940E-28
5.13088E-01 1.25286E-28
5.17450E-01 1.19879E-28
5.21810E-01 1.14708E-28
5.26168E-01 1.09762E-28
5.30524E-01 1.05032E-28
5.34878E-01 1.00507E-28
5.39230E-01 9.61793E-29
5.43578E-01 9.20395E-29
5.47923E-01 8.80794E-29
5.52264E-01 8.42910E-29
5.56602E-01 8.06669E-29
5.60935E-01 7.71997E-29
5.65263E-01 7.38826E-29
5.69587E-01 7.07089E-29
5.73905E-01 6.76725E-29
5.78217E-01 6.47672E-29
5.82524E-01 6.19873E-29
5.86824E-01 5.93273E-29
5.91118E-01 5.67821E-29
5.95404E-01 5.43465E-29
5.99684E-01 5.20159E-29
6.03956E-01 4.97856E-29
6.08220E-01 4.76512E-29
6.12476E-01 4.56087E-29
6.16723E-01 4.36540E-29
6.20961E-01 4.17832E-29
6.25190E-01 3.99928E-29
6.29410E-01 3.82793E-29
6.33619E-01 3.66394E-29
6.37819E-01 3.50698E-29
6.42008E-01 3.35675E-29
6.46186E-01 3.21296E-29
6.50353E-01 3.07533E-29
6.54508E-01 2.94360E-29
6.58652E-01 2.81752E-29
6.62784E-01 2.69683E-29
6.66903E-01 2.58131E-29
6.71010E-01 2.47073E-29
6.75104E-01 2.36488E-29
6.79184E-01 2.26356E-29
6.83251E-01 2.16657E-29
6.87303E-01 2.07373E-29
6.91342E-01 1.98486E-29
6.95366E-01 1.89979E-29
6.99375E-01 1.81835E-29
7.03368E-01 1.74039E-29
7.07347E-01 1.66575E-29
7.11309E-01 1.59431E-29
7.15256E-01 1.52592E-29
7.19186E-01 1.46044E-29
7.23099E-01 1.39777E-29
7.26995E-01 1.33776E-29
7.30874E-01 1.28032E-29
7.34736E-01 1.22533E-29
7.38579E-01 1.17268E-29
7.42405E-01 1.12228E-29
7.46212E-01 1.07403E-29
7.50000E-01 1.02784E-29
7.53769E-01 9.83614E-30
7.57519E-01 9.41277E-30
7.61249E-01 9.00745E-30
7.64960E-01 8.61941E-30
7.68650E-01 8.24792E-30
7.72320E-01 7.89226E-30
7.75968E-01 7.55176E-30
7.79596E-01 7.22577E-30
7.83203E-01 6.91368E-30
7.86788E-01 6.61489E-30
7.90351E-01 6.32883E-30
7.93893E-01 6.05496E-30
7.97411E-01 5.79276E-30
8.00908E-01 5.54174E-30
8.04381E-01 5.30140E-30
8.07831E-01 5.07131E-30
8.11257E-01 4.85102E-30
8.14660E-01 4.64012E-30
8.18039E-01 4.43820E-30
8.21394E-01 4.24488E-30
8.24724E-01 4.05979E-30
8.28030E-01 3.88259E-30
8.31310E-01 3.71294E-30
8.34565E-01 3.55051E-30
8.37795E-01 3.39500E-30
8.40999E-01 3.24612E-30
8.44177E-01 3.10357E-30
8.47329E-01 2.96710E-30
8.50455E-01 2.83643E-30
8.53553E-01 2.71134E-30
8.56625E-01 2.59156E-30
8.59670E-01 2.47689E-30
8.62687E-01 2.36710E-30
8.65677E-01 2.26199E-30
8.68639E-01 2.16135E-30
8.71572E-01 2.06500E-30
8.74478E-01 1.97275E-30
8.77355E-01 1.88443E-30
8.80203E-01 1.79986E-30
8.83022E-01 1.71890E-30
8.85812E-01 1.64139E-30
8.88573E-01 1.56718E-30
8.91304E-01 1.49613E-30
8.94005E-01 1.42810E-30
8.96677E-01 1.36297E-30
8.99318E-01 1.30061E-30
9.01928E-01 1.24091E-30
9.04508E-01 1.18376E-30
9.07058E-01 1.12904E-30
9.09576E-01 1.07665E-30
9.12063E-01 1.02649E-30
9.14519E-01 9.78476E-31
9.16943E-01 9.32506E-31
9.19335E-01 8.88496E-31
9.21696E-01 8.46365E-31
9.24024E-01 8.06031E-31
9.26320E-01 7.67420E-31
9.28584E-01 7.30458E-31
9.30815E-01 6.95076E-31
9.33013E-01 6.61208E-31
9.35178E-01 6.28788E-31
9.37310E-01 5.97757E-31
9.39409E-01 5.68056E-31
9.41474E-01 5.39630E-31
9.43505E-01 5.12424E-31
9.45503E-01 4.86388E-31
9.47467E-01 4.61472E-31
9.49397E-01 4.37631E-31
9.51293E-01 4.14818E-31
9.53154E-01 3.92993E-31
9.54981E-01 3.72113E-31
9.56773E-01 3.52140E-31
9.58530E-01 3.33037E-31
9.60252E-01 3.14766E-31
9.61940E-01 2.97296E-31
9.63592E-01 2.80592E-31
9.65209E-01 2.64623E-31
9.66790E-01 2.49361E-31
9.68336E-01 2.34776E-31
9.69846E-01 2.20841E-31
9.71321E-01 2.07530E-31
9.72759E-01 1.94819E-31
9.74162E-01 1.82685E-31
9.75528E-01 1.71103E-31
9.76858E-01 1.60054E-31
9.78152E-01 1.49516E-31
9.79410E-01 1.39470E-31
9.80631E-01 1.29897E-31
9.81815E-01 1.20780E-31
9.82963E-01 1.12102E-31
9.84074E-01 1.03847E-31
9.85148E-01 9.59995E-32
9.86185E-01 8.85450E-32
9.87185E-01 8.14698E-32
9.88148E-01 7.47610E-32
9.89074E-01 6.84064E-32
9.89962E-01 6.23940E-32
9.90814E-01 5.67129E-32
9.91627E-01 5.13527E-32
9.92404E-01 4.63036E-32
9.93143E-01 4.15562E-32
9.93844E-01 3.71020E-32
9.94508E-01 3.29328E-32
9.95134E-01 2.90407E-32
9.95722E-01 2.54190E-32
9.96273E-01 2.20609E-32
9.96786E-01 1.89602E-32
9.97261E-01 1.61113E-32
9.97698E-01 1.35091E-32
9.98097E-01 1.11487E-32
9.98459E-01 9.02584E-33
9.98782E-01 7.13671E-33
9.99067E-01 5.47784E-33
9.99315E-01 4.04623E-33
9.99524E-01 2.83922E-33
9.99695E-01 1.85463E-33
9.99829E-01 1.09072E-33
9.99924E-01 5.46035E-34
9.99981E-01 2.19644E-34
1.00000E+00 1.11033E-34
