 #
 # Subroutine ELSEPA. Elastic scattering of electrons and positrons
 #                    by neutral atoms and positive ions
 #
 # Projectile: electron
 # Kinetic energy = 2.00000E+07 eV = 7.34987E+05 a.u.
 #
 # WARNING: High-energy factorization with free-atom DF screening.
 #          Absorption, polarization and exchange corrections are
 #          switched off.
 #          Phase shifts are calculated for the bare nucleus.
 #          Scattering amplitudes are not evaluated.
 #
 # Element: Ti,  Z =  22,  atomic weight = 4.78670E+01 g/mol
 #
 # Nuclear model: Fermi distribution
 #                Average radius = 3.88504E-13 cm
 #                Skin thickness = 5.46000E-14 cm
 #
 # Number of electrons = 22
 #
 # Total elastic cross section = 1.90160E-18 cm**2 = 6.79074E-02 a0**2
 # 1st transport cross section = 2.17381E-24 cm**2 = 7.76283E-08 a0**2
 # 2nd transport cross section = 6.27010E-24 cm**2 = 2.23909E-07 a0**2
 #
 #
 # Differential cross section:                       MU=(1-COS(THETA))/2
 #
 #  THETA        MU          DCS          DCS        Sherman      error
 #  (deg)                 (cm**2/sr)   (a0**2/sr)    function
 #----------------------------------------------------------------------
0.00000E+00 1.23328E-11
7.61557E-13 1.23306E-11
1.18994E-12 1.23294E-11
1.71346E-12 1.23279E-11
2.33225E-12 1.23261E-11
3.04617E-12 1.23241E-11
3.85530E-12 1.23218E-11
4.75964E-12 1.23192E-11
5.75917E-12 1.23163E-11
6.85391E-12 1.23132E-11
8.04379E-12 1.23098E-11
9.32893E-12 1.23061E-11
1.07092E-11 1.23022E-11
1.21847E-11 1.22980E-11
1.37554E-11 1.22935E-11
1.54213E-11 1.22887E-11
1.71823E-11 1.22837E-11
1.90386E-11 1.22784E-11
2.09900E-11 1.22729E-11
2.30367E-11 1.22671E-11
2.51785E-11 1.22610E-11
2.74156E-11 1.22547E-11
2.97478E-11 1.22480E-11
3.21752E-11 1.22412E-11
3.46979E-11 1.22340E-11
3.73157E-11 1.22266E-11
4.00286E-11 1.22190E-11
4.28368E-11 1.22110E-11
4.57402E-11 1.22029E-11
4.87388E-11 1.21944E-11
5.18325E-11 1.21857E-11
5.50215E-11 1.21768E-11
5.83057E-11 1.21675E-11
6.16850E-11 1.21581E-11
6.51595E-11 1.21483E-11
6.87293E-11 1.21384E-11
7.23943E-11 1.21281E-11
7.61544E-11 1.21176E-11
1.18991E-10 1.19991E-11
1.71347E-10 1.18567E-11
2.33223E-10 1.16916E-11
3.04617E-10 1.15054E-11
3.85531E-10 1.12999E-11
4.75965E-10 1.10767E-11
5.75917E-10 1.08378E-11
6.85389E-10 1.05850E-11
8.04380E-10 1.03205E-11
9.32891E-10 1.00462E-11
1.07092E-09 9.76382E-12
1.21847E-09 9.47534E-12
1.37554E-09 9.18278E-12
1.54213E-09 8.88750E-12
1.71823E-09 8.59122E-12
1.90386E-09 8.29566E-12
2.09900E-09 8.00163E-12
2.30367E-09 7.71092E-12
2.51785E-09 7.42435E-12
2.74156E-09 7.14240E-12
2.97478E-09 6.86715E-12
3.21752E-09 6.59803E-12
3.46978E-09 6.33591E-12
3.73156E-09 6.08207E-12
4.00286E-09 5.83555E-12
4.28368E-09 5.59768E-12
4.57402E-09 5.36833E-12
4.87388E-09 5.14680E-12
5.18326E-09 4.93483E-12
5.50215E-09 4.73087E-12
5.83057E-09 4.53505E-12
6.16850E-09 4.34834E-12
6.51596E-09 4.16907E-12
6.87293E-09 3.99805E-12
7.23942E-09 3.83492E-12
7.61544E-09 3.67866E-12
1.18991E-08 2.47360E-12
1.71347E-08 1.73221E-12
2.33223E-08 1.26194E-12
3.04617E-08 9.48537E-13
3.85531E-08 7.29181E-13
4.75965E-08 5.69588E-13
5.75917E-08 4.47585E-13
6.85389E-08 3.53816E-13
8.04380E-08 2.86170E-13
9.32891E-08 2.31194E-13
1.07092E-07 1.87667E-13
1.21847E-07 1.54822E-13
1.37554E-07 1.26983E-13
1.54213E-07 1.05371E-13
1.71823E-07 8.82011E-14
1.90386E-07 7.39893E-14
2.09900E-07 6.26675E-14
2.30367E-07 5.33795E-14
2.51785E-07 4.57358E-14
2.74156E-07 3.94806E-14
2.97478E-07 3.42428E-14
3.21752E-07 2.98850E-14
3.46978E-07 2.62306E-14
3.73156E-07 2.31297E-14
4.00286E-07 2.05024E-14
4.28368E-07 1.82516E-14
4.57402E-07 1.63152E-14
4.87388E-07 1.46476E-14
5.18325E-07 1.31890E-14
5.50215E-07 1.19197E-14
5.83057E-07 1.08085E-14
6.16850E-07 9.82215E-15
6.51596E-07 8.95516E-15
6.87293E-07 8.18212E-15
7.23942E-07 7.49148E-15
7.61543E-07 6.87843E-15
1.18991E-06 3.18448E-15
1.71347E-06 1.65257E-15
2.33223E-06 9.29918E-16
3.04617E-06 5.58354E-16
3.85531E-06 3.54023E-16
4.75964E-06 2.34996E-16
5.75916E-06 1.62058E-16
6.85388E-06 1.15452E-16
8.04378E-06 8.45228E-17
9.32888E-06 6.33337E-17
1.07092E-05 4.84147E-17
1.21846E-05 3.76537E-17
1.37553E-05 2.97312E-17
1.54212E-05 2.37912E-17
1.71822E-05 1.92651E-17
1.90385E-05 1.57665E-17
2.09899E-05 1.30283E-17
2.30365E-05 1.08591E-17
2.51783E-05 9.12246E-18
2.74153E-05 7.71889E-18
2.97475E-05 6.57470E-18
3.21749E-05 5.63455E-18
3.46974E-05 4.85637E-18
3.73152E-05 4.20785E-18
4.00281E-05 3.66390E-18
4.28362E-05 3.20492E-18
4.57395E-05 2.81545E-18
4.87380E-05 2.48323E-18
5.18317E-05 2.19849E-18
5.50205E-05 1.95333E-18
5.83045E-05 1.74135E-18
6.16838E-05 1.55731E-18
6.51582E-05 1.39693E-18
6.87277E-05 1.25666E-18
7.23925E-05 1.13354E-18
7.61524E-05 1.02511E-18
9.21439E-05 7.01845E-19
1.09658E-04 4.96453E-19
1.28695E-04 3.60963E-19
1.49255E-04 2.68678E-19
1.71338E-04 2.04087E-19
1.94942E-04 1.57787E-19
2.20070E-04 1.23904E-19
2.46720E-04 9.86485E-20
2.74892E-04 7.95133E-20
3.04586E-04 6.48025E-20
3.35803E-04 5.33428E-20
3.68542E-04 4.43092E-20
4.02802E-04 3.71103E-20
4.38585E-04 3.13166E-20
4.75889E-04 2.66115E-20
5.14715E-04 2.27583E-20
5.55063E-04 1.95784E-20
5.96931E-04 1.69354E-20
6.40321E-04 1.47241E-20
6.85233E-04 1.28626E-20
7.31665E-04 1.12864E-20
7.79618E-04 9.94464E-21
8.29092E-04 8.79666E-21
8.80086E-04 7.80984E-21
9.32601E-04 6.95773E-21
9.86636E-04 6.21886E-21
1.04219E-03 5.57563E-21
1.09927E-03 5.01355E-21
1.15786E-03 4.52063E-21
1.21797E-03 4.08691E-21
1.27961E-03 3.70404E-21
1.34276E-03 3.36503E-21
1.40743E-03 3.06399E-21
1.47362E-03 2.79592E-21
1.54133E-03 2.55657E-21
1.61056E-03 2.34234E-21
1.68131E-03 2.15011E-21
1.75357E-03 1.97724E-21
1.82735E-03 1.82142E-21
1.90265E-03 1.68068E-21
1.97947E-03 1.55329E-21
2.05780E-03 1.43777E-21
2.13765E-03 1.33281E-21
2.21902E-03 1.23727E-21
2.30190E-03 1.15015E-21
2.38630E-03 1.07058E-21
2.47222E-03 9.97788E-22
2.55965E-03 9.31089E-22
2.64859E-03 8.69882E-22
2.73905E-03 8.13631E-22
2.83103E-03 7.61863E-22
2.92452E-03 7.14156E-22
3.01952E-03 6.70131E-22
3.11604E-03 6.29454E-22
3.21407E-03 5.91824E-22
3.31362E-03 5.56969E-22
3.41468E-03 5.24648E-22
3.51725E-03 4.94642E-22
3.62133E-03 4.66756E-22
3.72692E-03 4.40812E-22
3.83403E-03 4.16649E-22
3.94265E-03 3.94123E-22
4.05278E-03 3.73102E-22
4.16442E-03 3.53466E-22
4.27757E-03 3.35109E-22
4.39223E-03 3.17930E-22
4.50840E-03 3.01841E-22
4.62608E-03 2.86759E-22
4.74527E-03 2.72610E-22
4.86597E-03 2.59324E-22
4.98817E-03 2.46840E-22
5.11188E-03 2.35100E-22
5.23711E-03 2.24051E-22
5.36383E-03 2.13645E-22
5.49207E-03 2.03838E-22
5.62181E-03 1.94589E-22
5.75306E-03 1.85859E-22
5.88581E-03 1.77615E-22
6.02007E-03 1.69824E-22
6.15583E-03 1.62456E-22
6.29310E-03 1.55485E-22
6.43187E-03 1.48884E-22
6.57214E-03 1.42631E-22
6.71392E-03 1.36703E-22
6.85720E-03 1.31081E-22
7.00198E-03 1.25746E-22
7.14827E-03 1.20680E-22
7.29605E-03 1.15868E-22
7.44534E-03 1.11293E-22
7.59612E-03 1.06943E-22
7.97965E-03 9.69634E-23
8.37255E-03 8.81242E-23
8.77480E-03 8.02720E-23
9.18641E-03 7.32771E-23
9.60736E-03 6.70296E-23
1.00376E-02 6.14356E-23
1.04773E-02 5.64144E-23
1.09262E-02 5.18971E-23
1.13844E-02 4.78242E-23
1.18520E-02 4.41439E-23
1.23288E-02 4.08118E-23
1.28150E-02 3.77890E-23
1.33104E-02 3.50416E-23
1.38150E-02 3.25399E-23
1.43290E-02 3.02581E-23
1.48521E-02 2.81732E-23
1.53845E-02 2.62653E-23
1.59262E-02 2.45165E-23
1.64770E-02 2.29112E-23
1.70371E-02 2.14355E-23
1.76063E-02 2.00769E-23
1.81848E-02 1.88245E-23
1.87724E-02 1.76684E-23
1.93692E-02 1.66000E-23
1.99751E-02 1.56112E-23
2.05901E-02 1.46951E-23
2.12143E-02 1.38453E-23
2.18476E-02 1.30563E-23
2.24900E-02 1.23227E-23
2.31415E-02 1.16400E-23
2.38021E-02 1.10040E-23
2.44717E-02 1.04109E-23
2.51504E-02 9.85736E-24
2.58382E-02 9.34014E-24
2.65349E-02 8.85645E-24
2.72407E-02 8.40370E-24
2.79555E-02 7.97956E-24
2.86793E-02 7.58186E-24
2.94120E-02 7.20867E-24
3.01537E-02 6.85817E-24
3.09043E-02 6.52874E-24
3.16639E-02 6.21887E-24
3.24324E-02 5.92718E-24
3.32098E-02 5.65240E-24
3.39961E-02 5.39337E-24
3.47912E-02 5.14901E-24
3.55952E-02 4.91835E-24
3.64081E-02 4.70045E-24
3.72297E-02 4.49449E-24
3.80602E-02 4.29969E-24
3.88995E-02 4.11533E-24
3.97476E-02 3.94074E-24
4.06044E-02 3.77531E-24
4.14700E-02 3.61846E-24
4.23443E-02 3.46967E-24
4.32273E-02 3.32844E-24
4.41190E-02 3.19432E-24
4.50194E-02 3.06689E-24
4.59284E-02 2.94573E-24
4.68461E-02 2.83049E-24
4.87074E-02 2.61641E-24
5.06030E-02 2.42216E-24
5.25328E-02 2.24557E-24
5.44967E-02 2.08475E-24
5.64946E-02 1.93804E-24
5.85262E-02 1.80397E-24
6.05914E-02 1.68126E-24
6.26901E-02 1.56878E-24
6.48222E-02 1.46551E-24
6.69873E-02 1.37056E-24
6.91854E-02 1.28315E-24
7.14163E-02 1.20256E-24
7.36799E-02 1.12817E-24
7.59760E-02 1.05940E-24
7.83043E-02 9.95772E-25
8.06647E-02 9.36816E-25
8.30571E-02 8.82129E-25
8.54812E-02 8.31346E-25
8.79369E-02 7.84138E-25
9.04240E-02 7.40207E-25
9.29422E-02 6.99283E-25
9.54915E-02 6.61123E-25
9.80716E-02 6.25507E-25
1.00682E-01 5.92233E-25
1.03323E-01 5.61119E-25
1.05995E-01 5.32000E-25
1.08696E-01 5.04724E-25
1.11427E-01 4.79154E-25
1.14188E-01 4.55162E-25
1.16978E-01 4.32634E-25
1.19797E-01 4.11463E-25
1.22645E-01 3.91554E-25
1.25522E-01 3.72817E-25
1.28428E-01 3.55171E-25
1.31361E-01 3.38540E-25
1.34323E-01 3.22855E-25
1.37313E-01 3.08053E-25
1.40330E-01 2.94075E-25
1.43375E-01 2.80867E-25
1.46447E-01 2.68378E-25
1.49545E-01 2.56562E-25
1.52671E-01 2.45377E-25
1.55823E-01 2.34782E-25
1.59001E-01 2.24740E-25
1.62205E-01 2.15218E-25
1.65435E-01 2.06184E-25
1.68690E-01 1.97608E-25
1.71970E-01 1.89463E-25
1.75276E-01 1.81722E-25
1.78606E-01 1.74363E-25
1.81961E-01 1.67364E-25
1.85340E-01 1.60702E-25
1.88743E-01 1.54360E-25
1.92169E-01 1.48319E-25
1.95619E-01 1.42562E-25
1.99092E-01 1.37073E-25
2.02589E-01 1.31838E-25
2.06107E-01 1.26843E-25
2.09649E-01 1.22075E-25
2.13212E-01 1.17521E-25
2.16797E-01 1.13170E-25
2.20404E-01 1.09013E-25
2.24032E-01 1.05037E-25
2.27680E-01 1.01235E-25
2.31350E-01 9.75973E-26
2.35040E-01 9.41152E-26
2.38751E-01 9.07810E-26
2.42481E-01 8.75875E-26
2.46231E-01 8.45275E-26
2.50000E-01 8.15946E-26
2.53788E-01 7.87824E-26
2.57595E-01 7.60853E-26
2.61421E-01 7.34975E-26
2.65264E-01 7.10140E-26
2.69126E-01 6.86297E-26
2.73005E-01 6.63400E-26
2.76901E-01 6.41405E-26
2.80814E-01 6.20271E-26
2.84744E-01 5.99957E-26
2.88691E-01 5.80426E-26
2.92653E-01 5.61643E-26
2.96632E-01 5.43575E-26
3.00625E-01 5.26188E-26
3.04634E-01 5.09454E-26
3.08658E-01 4.93343E-26
3.12697E-01 4.77829E-26
3.16749E-01 4.62884E-26
3.20816E-01 4.48486E-26
3.24896E-01 4.34609E-26
3.28990E-01 4.21234E-26
3.33097E-01 4.08337E-26
3.37216E-01 3.95899E-26
3.41348E-01 3.83901E-26
3.45492E-01 3.72325E-26
3.49647E-01 3.61153E-26
3.53814E-01 3.50369E-26
3.57992E-01 3.39957E-26
3.62181E-01 3.29903E-26
3.66381E-01 3.20191E-26
3.70590E-01 3.10808E-26
3.74810E-01 3.01742E-26
3.79039E-01 2.92979E-26
3.83277E-01 2.84508E-26
3.87524E-01 2.76318E-26
3.91780E-01 2.68397E-26
3.96044E-01 2.60736E-26
4.00316E-01 2.53324E-26
4.04596E-01 2.46153E-26
4.08882E-01 2.39212E-26
4.13176E-01 2.32494E-26
4.17476E-01 2.25990E-26
4.21783E-01 2.19691E-26
4.26095E-01 2.13592E-26
4.30413E-01 2.07684E-26
4.34737E-01 2.01960E-26
4.39065E-01 1.96413E-26
4.43398E-01 1.91038E-26
4.47736E-01 1.85828E-26
4.52077E-01 1.80777E-26
4.56422E-01 1.75880E-26
4.60770E-01 1.71131E-26
4.65122E-01 1.66526E-26
4.69476E-01 1.62058E-26
4.73832E-01 1.57723E-26
4.78190E-01 1.53517E-26
4.82550E-01 1.49435E-26
4.86912E-01 1.45474E-26
4.91274E-01 1.41628E-26
4.95637E-01 1.37894E-26
5.00000E-01 1.34269E-26
5.04363E-01 1.30748E-26
5.08726E-01 1.27328E-26
5.13088E-01 1.24007E-26
5.17450E-01 1.20779E-26
5.21810E-01 1.17644E-26
5.26168E-01 1.14596E-26
5.30524E-01 1.11635E-26
5.34878E-01 1.08756E-26
5.39230E-01 1.05958E-26
5.43578E-01 1.03237E-26
5.47923E-01 1.00592E-26
5.52264E-01 9.80188E-27
5.56602E-01 9.55166E-27
5.60935E-01 9.30826E-27
5.65263E-01 9.07149E-27
5.69587E-01 8.84113E-27
5.73905E-01 8.61698E-27
5.78217E-01 8.39885E-27
5.82524E-01 8.18656E-27
5.86824E-01 7.97993E-27
5.91118E-01 7.77879E-27
5.95404E-01 7.58297E-27
5.99684E-01 7.39231E-27
6.03956E-01 7.20666E-27
6.08220E-01 7.02587E-27
6.12476E-01 6.84979E-27
6.16723E-01 6.67828E-27
6.20961E-01 6.51121E-27
6.25190E-01 6.34846E-27
6.29410E-01 6.18988E-27
6.33619E-01 6.03537E-27
6.37819E-01 5.88481E-27
6.42008E-01 5.73807E-27
6.46186E-01 5.59505E-27
6.50353E-01 5.45565E-27
6.54508E-01 5.31976E-27
6.58652E-01 5.18729E-27
6.62784E-01 5.05812E-27
6.66903E-01 4.93218E-27
6.71010E-01 4.80938E-27
6.75104E-01 4.68962E-27
6.79184E-01 4.57282E-27
6.83251E-01 4.45889E-27
6.87303E-01 4.34777E-27
6.91342E-01 4.23937E-27
6.95366E-01 4.13362E-27
6.99375E-01 4.03045E-27
7.03368E-01 3.92978E-27
7.07347E-01 3.83155E-27
7.11309E-01 3.73569E-27
7.15256E-01 3.64215E-27
7.19186E-01 3.55085E-27
7.23099E-01 3.46174E-27
7.26995E-01 3.37476E-27
7.30874E-01 3.28986E-27
7.34736E-01 3.20697E-27
7.38579E-01 3.12606E-27
7.42405E-01 3.04706E-27
7.46212E-01 2.96992E-27
7.50000E-01 2.89461E-27
7.53769E-01 2.82106E-27
7.57519E-01 2.74925E-27
7.61249E-01 2.67911E-27
7.64960E-01 2.61061E-27
7.68650E-01 2.54371E-27
7.72320E-01 2.47837E-27
7.75968E-01 2.41455E-27
7.79596E-01 2.35221E-27
7.83203E-01 2.29131E-27
7.86788E-01 2.23182E-27
7.90351E-01 2.17370E-27
7.93893E-01 2.11692E-27
7.97411E-01 2.06145E-27
8.00908E-01 2.00725E-27
8.04381E-01 1.95429E-27
8.07831E-01 1.90255E-27
8.11257E-01 1.85199E-27
8.14660E-01 1.80259E-27
8.18039E-01 1.75431E-27
8.21394E-01 1.70714E-27
8.24724E-01 1.66104E-27
8.28030E-01 1.61599E-27
8.31310E-01 1.57197E-27
8.34565E-01 1.52895E-27
8.37795E-01 1.48690E-27
8.40999E-01 1.44581E-27
8.44177E-01 1.40566E-27
8.47329E-01 1.36641E-27
8.50455E-01 1.32806E-27
8.53553E-01 1.29057E-27
8.56625E-01 1.25394E-27
8.59670E-01 1.21814E-27
8.62687E-01 1.18315E-27
8.65677E-01 1.14895E-27
8.68639E-01 1.11554E-27
8.71572E-01 1.08288E-27
8.74478E-01 1.05096E-27
8.77355E-01 1.01978E-27
8.80203E-01 9.89299E-28
8.83022E-01 9.59519E-28
8.85812E-01 9.30419E-28
8.88573E-01 9.01985E-28
8.91304E-01 8.74204E-28
8.94005E-01 8.47060E-28
8.96677E-01 8.20542E-28
8.99318E-01 7.94635E-28
9.01928E-01 7.69328E-28
9.04508E-01 7.44607E-28
9.07058E-01 7.20461E-28
9.09576E-01 6.96878E-28
9.12063E-01 6.73846E-28
9.14519E-01 6.51355E-28
9.16943E-01 6.29394E-28
9.19335E-01 6.07953E-28
9.21696E-01 5.87020E-28
9.24024E-01 5.66587E-28
9.26320E-01 5.46643E-28
9.28584E-01 5.27180E-28
9.30815E-01 5.08188E-28
9.33013E-01 4.89658E-28
9.35178E-01 4.71581E-28
9.37310E-01 4.53950E-28
9.39409E-01 4.36756E-28
9.41474E-01 4.19992E-28
9.43505E-01 4.03648E-28
9.45503E-01 3.87719E-28
9.47467E-01 3.72196E-28
9.49397E-01 3.57073E-28
9.51293E-01 3.42343E-28
9.53154E-01 3.27999E-28
9.54981E-01 3.14035E-28
9.56773E-01 3.00444E-28
9.58530E-01 2.87220E-28
9.60252E-01 2.74358E-28
9.61940E-01 2.61852E-28
9.63592E-01 2.49695E-28
9.65209E-01 2.37883E-28
9.66790E-01 2.26411E-28
9.68336E-01 2.15273E-28
9.69846E-01 2.04464E-28
9.71321E-01 1.93981E-28
9.72759E-01 1.83817E-28
9.74162E-01 1.73969E-28
9.75528E-01 1.64432E-28
9.76858E-01 1.55203E-28
9.78152E-01 1.46277E-28
9.79410E-01 1.37650E-28
9.80631E-01 1.29319E-28
9.81815E-01 1.21280E-28
9.82963E-01 1.13529E-28
9.84074E-01 1.06064E-28
9.85148E-01 9.88801E-29
9.86185E-01 9.19755E-29
9.87185E-01 8.53469E-29
9.88148E-01 7.89913E-29
9.89074E-01 7.29062E-29
9.89962E-01 6.70889E-29
9.90814E-01 6.15369E-29
9.91627E-01 5.62479E-29
9.92404E-01 5.12195E-29
9.93143E-01 4.64498E-29
9.93844E-01 4.19366E-29
9.94508E-01 3.76780E-29
9.95134E-01 3.36723E-29
9.95722E-01 2.99177E-29
9.96273E-01 2.64127E-29
9.96786E-01 2.31558E-29
9.97261E-01 2.01456E-29
9.97698E-01 1.73809E-29
9.98097E-01 1.48604E-29
9.98459E-01 1.25832E-29
9.98782E-01 1.05482E-29
9.99067E-01 8.75467E-30
9.99315E-01 7.20178E-30
9.99524E-01 5.88888E-30
9.99695E-01 4.81545E-30
9.99829E-01 3.98103E-30
9.99924E-01 3.38526E-30
9.99981E-01 3.02790E-30
1.00000E+00 2.90887E-30
