 #
 # Subroutine ELSEPA. Elastic scattering of electrons and positrons
 #                    by neutral atoms and positive ions
 #
 # Projectile: electron
 # Kinetic energy = 1.00000E+06 eV = 3.67493E+04 a.u.
 #
 # Element: Ti,  Z =  22,  atomic weight = 4.78670E+01 g/mol
 #
 # Nuclear model: Fermi distribution
 #                Average radius = 3.88504E-13 cm
 #                Skin thickness = 5.46000E-14 cm
 #
 # Number of electrons = 22
 #
 # Electron density: Read from file Data/z_022.d
 #                   Number of data points =  787
 #                   Volume integral = 2.20000E+01
 #
 # Furness-McCarthy exchange potential
 #
 # LDA absorption potential (only electron-hole excitations):
 #                           Delta = 8.10000E-01 eV
 #                            Aabs = 2.00000E+00
 #
 # Total elastic cross section = 2.14619E-18 cm**2 = 7.66418E-02 a0**2
 # 1st transport cross section = 3.28963E-22 cm**2 = 1.17475E-05 a0**2
 # 2nd transport cross section = 9.17033E-22 cm**2 = 3.27478E-05 a0**2
 #
 #    Absorption cross section = 6.37164E-19 cm**2 = 2.27535E-02 a0**2
 #   Grand total cross section = 2.78564E-18 cm**2 = 9.94771E-02 a0**2
 #
 #
 # Differential cross section:                       MU=(1-COS(THETA))/2
 #
 #  THETA        MU          DCS          DCS        Sherman      error
 #  (deg)                 (cm**2/sr)   (a0**2/sr)    function
 #----------------------------------------------------------------------
0.00000E+00 6.69350E-14
7.61557E-13 6.69350E-14
1.18994E-12 6.69349E-14
1.71346E-12 6.69349E-14
2.33225E-12 6.69348E-14
3.04617E-12 6.69348E-14
3.85530E-12 6.69347E-14
4.75964E-12 6.69347E-14
5.75917E-12 6.69346E-14
6.85391E-12 6.69345E-14
8.04379E-12 6.69344E-14
9.32893E-12 6.69343E-14
1.07092E-11 6.69342E-14
1.21847E-11 6.69341E-14
1.37554E-11 6.69340E-14
1.54213E-11 6.69339E-14
1.71823E-11 6.69337E-14
1.90386E-11 6.69336E-14
2.09900E-11 6.69335E-14
2.30367E-11 6.69333E-14
2.51785E-11 6.69331E-14
2.74156E-11 6.69330E-14
2.97478E-11 6.69328E-14
3.21752E-11 6.69326E-14
3.46979E-11 6.69324E-14
3.73157E-11 6.69322E-14
4.00286E-11 6.69320E-14
4.28368E-11 6.69318E-14
4.57402E-11 6.69316E-14
4.87388E-11 6.69314E-14
5.18325E-11 6.69311E-14
5.50215E-11 6.69309E-14
5.83057E-11 6.69307E-14
6.16850E-11 6.69304E-14
6.51595E-11 6.69301E-14
6.87293E-11 6.69299E-14
7.23943E-11 6.69296E-14
7.61544E-11 6.69293E-14
1.18991E-10 6.69261E-14
1.71347E-10 6.69222E-14
2.33223E-10 6.69176E-14
3.04617E-10 6.69122E-14
3.85531E-10 6.69062E-14
4.75965E-10 6.68994E-14
5.75917E-10 6.68919E-14
6.85389E-10 6.68838E-14
8.04380E-10 6.68749E-14
9.32891E-10 6.68653E-14
1.07092E-09 6.68549E-14
1.21847E-09 6.68439E-14
1.37554E-09 6.68322E-14
1.54213E-09 6.68198E-14
1.71823E-09 6.68066E-14
1.90386E-09 6.67928E-14
2.09900E-09 6.67782E-14
2.30367E-09 6.67629E-14
2.51785E-09 6.67470E-14
2.74156E-09 6.67303E-14
2.97478E-09 6.67129E-14
3.21752E-09 6.66949E-14
3.46978E-09 6.66761E-14
3.73156E-09 6.66566E-14
4.00286E-09 6.66365E-14
4.28368E-09 6.66156E-14
4.57402E-09 6.65940E-14
4.87388E-09 6.65717E-14
5.18326E-09 6.65488E-14
5.50215E-09 6.65251E-14
5.83057E-09 6.65008E-14
6.16850E-09 6.64758E-14
6.51596E-09 6.64500E-14
6.87293E-09 6.64236E-14
7.23942E-09 6.63965E-14
7.61544E-09 6.63687E-14
1.18991E-08 6.60534E-14
1.71347E-08 6.56710E-14
2.33223E-08 6.52234E-14
3.04617E-08 6.47127E-14
3.85531E-08 6.41412E-14
4.75965E-08 6.35115E-14
5.75917E-08 6.28264E-14
6.85389E-08 6.20889E-14
8.04380E-08 6.13022E-14
9.32891E-08 6.04695E-14
1.07092E-07 5.95942E-14
1.21847E-07 5.86799E-14
1.37554E-07 5.77300E-14
1.54213E-07 5.67482E-14
1.71823E-07 5.57380E-14
1.90386E-07 5.47029E-14
2.09900E-07 5.36465E-14
2.30367E-07 5.25722E-14
2.51785E-07 5.14833E-14
2.74156E-07 5.03830E-14
2.97478E-07 4.92746E-14
3.21752E-07 4.81610E-14
3.46978E-07 4.70451E-14
3.73156E-07 4.59295E-14
4.00286E-07 4.48168E-14
4.28368E-07 4.37093E-14
4.57402E-07 4.26094E-14
4.87388E-07 4.15190E-14
5.18325E-07 4.04401E-14
5.50215E-07 3.93742E-14
5.83057E-07 3.83230E-14
6.16850E-07 3.72879E-14
6.51596E-07 3.62701E-14
6.87293E-07 3.52706E-14
7.23942E-07 3.42904E-14
7.61543E-07 3.33302E-14
1.18991E-06 2.49239E-14
1.71347E-06 1.86617E-14
2.33223E-06 1.41694E-14
3.04617E-06 1.09706E-14
3.85531E-06 8.66737E-15
4.75964E-06 6.97396E-15
5.75916E-06 5.69794E-15
6.85388E-06 4.71288E-15
8.04378E-06 3.93589E-15
9.32888E-06 3.31192E-15
1.07092E-05 2.80362E-15
1.21846E-05 2.38492E-15
1.37553E-05 2.03709E-15
1.54212E-05 1.74625E-15
1.71822E-05 1.50187E-15
1.90385E-05 1.29572E-15
2.09899E-05 1.12128E-15
2.30365E-05 9.73267E-16
2.51783E-05 8.47372E-16
2.74153E-05 7.40045E-16
2.97475E-05 6.48342E-16
3.21749E-05 5.69812E-16
3.46974E-05 5.02406E-16
3.73152E-05 4.44408E-16
4.00281E-05 3.94381E-16
4.28362E-05 3.51118E-16
4.57395E-05 3.13605E-16
4.87380E-05 2.80988E-16
5.18317E-05 2.52546E-16
5.50205E-05 2.27674E-16
5.83045E-05 2.05862E-16
6.16838E-05 1.86675E-16
6.51582E-05 1.69748E-16
6.87277E-05 1.54770E-16
7.23925E-05 1.41477E-16
7.61524E-05 1.29646E-16
9.21439E-05 9.35040E-17
1.09658E-04 6.95643E-17
1.28695E-04 5.30676E-17
1.49255E-04 4.13070E-17
1.71338E-04 3.26815E-17
1.94942E-04 2.62062E-17
2.20070E-04 2.12518E-17
2.46720E-04 1.74015E-17
2.74892E-04 1.43704E-17
3.04586E-04 1.19583E-17
3.35803E-04 1.00205E-17
3.68542E-04 8.45098E-18
4.02802E-04 7.17029E-18
4.38585E-04 6.11821E-18
4.75889E-04 5.24850E-18
5.14715E-04 4.52531E-18
5.55063E-04 3.92061E-18
5.96931E-04 3.41231E-18
6.40321E-04 2.98289E-18
6.85233E-04 2.61837E-18
7.31665E-04 2.30749E-18
7.79618E-04 2.04120E-18
8.29092E-04 1.81211E-18
8.80086E-04 1.61425E-18
9.32601E-04 1.44267E-18
9.86636E-04 1.29332E-18
1.04219E-03 1.16287E-18
1.09927E-03 1.04851E-18
1.15786E-03 9.47935E-19
1.21797E-03 8.59200E-19
1.27961E-03 7.80665E-19
1.34276E-03 7.10961E-19
1.40743E-03 6.48916E-19
1.47362E-03 5.93541E-19
1.54133E-03 5.43990E-19
1.61056E-03 4.99538E-19
1.68131E-03 4.59569E-19
1.75357E-03 4.23547E-19
1.82735E-03 3.91010E-19
1.90265E-03 3.61559E-19
1.97947E-03 3.34849E-19
2.05780E-03 3.10576E-19
2.13765E-03 2.88478E-19
2.21902E-03 2.68322E-19
2.30190E-03 2.49906E-19
2.38630E-03 2.33053E-19
2.47222E-03 2.17605E-19
2.55965E-03 2.03422E-19
2.64859E-03 1.90382E-19
2.73905E-03 1.78375E-19
2.83103E-03 1.67305E-19
2.92452E-03 1.57084E-19
3.01952E-03 1.47634E-19
3.11604E-03 1.38887E-19
3.21407E-03 1.30781E-19
3.31362E-03 1.23260E-19
3.41468E-03 1.16274E-19
3.51725E-03 1.09776E-19
3.62133E-03 1.03728E-19
3.72692E-03 9.80920E-20
3.83403E-03 9.28343E-20
3.94265E-03 8.79249E-20
4.05278E-03 8.33365E-20
4.16442E-03 7.90443E-20
4.27757E-03 7.50254E-20
4.39223E-03 7.12590E-20
4.50840E-03 6.77264E-20
4.62608E-03 6.44104E-20
4.74527E-03 6.12952E-20
4.86597E-03 5.83663E-20
4.98817E-03 5.56105E-20
5.11188E-03 5.30156E-20
5.23711E-03 5.05705E-20
5.36383E-03 4.82650E-20
5.49207E-03 4.60893E-20
5.62181E-03 4.40351E-20
5.75306E-03 4.20941E-20
5.88581E-03 4.02591E-20
6.02007E-03 3.85230E-20
6.15583E-03 3.68795E-20
6.29310E-03 3.53229E-20
6.43187E-03 3.38476E-20
6.57214E-03 3.24486E-20
6.71392E-03 3.11211E-20
6.85720E-03 2.98609E-20
7.00198E-03 2.86639E-20
7.14827E-03 2.75264E-20
7.29605E-03 2.64447E-20
7.44534E-03 2.54157E-20
7.59612E-03 2.44363E-20
7.97965E-03 2.21866E-20
8.37255E-03 2.01901E-20
8.77480E-03 1.84134E-20
9.18641E-03 1.68280E-20
9.60736E-03 1.54098E-20
1.00376E-02 1.41381E-20
1.04773E-02 1.29950E-20
1.09262E-02 1.19652E-20
1.13844E-02 1.10356E-20
1.18520E-02 1.01947E-20
1.23288E-02 9.43240E-21
1.28150E-02 8.74017E-21
1.33104E-02 8.11039E-21
1.38150E-02 7.53640E-21
1.43290E-02 7.01239E-21
1.48521E-02 6.53322E-21
1.53845E-02 6.09435E-21
1.59262E-02 5.69180E-21
1.64770E-02 5.32200E-21
1.70371E-02 4.98182E-21
1.76063E-02 4.66844E-21
1.81848E-02 4.37938E-21
1.87724E-02 4.11239E-21
1.93692E-02 3.86549E-21
1.99751E-02 3.63689E-21
2.05901E-02 3.42498E-21
2.12143E-02 3.22832E-21
2.18476E-02 3.04561E-21
2.24900E-02 2.87568E-21
2.31415E-02 2.71747E-21
2.38021E-02 2.57002E-21
2.44717E-02 2.43246E-21
2.51504E-02 2.30401E-21
2.58382E-02 2.18396E-21
2.65349E-02 2.07164E-21
2.72407E-02 1.96647E-21
2.79555E-02 1.86791E-21
2.86793E-02 1.77547E-21
2.94120E-02 1.68870E-21
3.01537E-02 1.60717E-21
3.09043E-02 1.53053E-21
3.16639E-02 1.45841E-21
3.24324E-02 1.39050E-21
3.32098E-02 1.32651E-21
3.39961E-02 1.26617E-21
3.47912E-02 1.20924E-21
3.55952E-02 1.15547E-21
3.64081E-02 1.10468E-21
3.72297E-02 1.05665E-21
3.80602E-02 1.01121E-21
3.88995E-02 9.68198E-22
3.97476E-02 9.27454E-22
4.06044E-02 8.88837E-22
4.14700E-02 8.52216E-22
4.23443E-02 8.17467E-22
4.32273E-02 7.84476E-22
4.41190E-02 7.53138E-22
4.50194E-02 7.23355E-22
4.59284E-02 6.95033E-22
4.68461E-02 6.68088E-22
4.87074E-02 6.18015E-22
5.06030E-02 5.72559E-22
5.25328E-02 5.31217E-22
5.44967E-02 4.93550E-22
5.64946E-02 4.59171E-22
5.85262E-02 4.27741E-22
6.05914E-02 3.98961E-22
6.26901E-02 3.72567E-22
6.48222E-02 3.48324E-22
6.69873E-02 3.26026E-22
6.91854E-02 3.05486E-22
7.14163E-02 2.86542E-22
7.36799E-02 2.69046E-22
7.59760E-02 2.52867E-22
7.83043E-02 2.37888E-22
8.06647E-02 2.24003E-22
8.30571E-02 2.11118E-22
8.54812E-02 1.99146E-22
8.79369E-02 1.88012E-22
9.04240E-02 1.77645E-22
9.29422E-02 1.67983E-22
9.54915E-02 1.58970E-22
9.80716E-02 1.50552E-22
1.00682E-01 1.42685E-22
1.03323E-01 1.35324E-22
1.05995E-01 1.28431E-22
1.08696E-01 1.21972E-22
1.11427E-01 1.15913E-22
1.14188E-01 1.10224E-22
1.16978E-01 1.04880E-22
1.19797E-01 9.98555E-23
1.22645E-01 9.51273E-23
1.25522E-01 9.06749E-23
1.28428E-01 8.64793E-23
1.31361E-01 8.25227E-23
1.34323E-01 7.87891E-23
1.37313E-01 7.52634E-23
1.40330E-01 7.19320E-23
1.43375E-01 6.87820E-23
1.46447E-01 6.58018E-23
1.49545E-01 6.29804E-23
1.52671E-01 6.03078E-23
1.55823E-01 5.77746E-23
1.59001E-01 5.53723E-23
1.62205E-01 5.30927E-23
1.65435E-01 5.09284E-23
1.68690E-01 4.88725E-23
1.71970E-01 4.69184E-23
1.75276E-01 4.50603E-23
1.78606E-01 4.32925E-23
1.81961E-01 4.16098E-23
1.85340E-01 4.00073E-23
1.88743E-01 3.84804E-23
1.92169E-01 3.70249E-23
1.95619E-01 3.56369E-23
1.99092E-01 3.43126E-23
2.02589E-01 3.30486E-23
2.06107E-01 3.18415E-23
2.09649E-01 3.06884E-23
2.13212E-01 2.95863E-23
2.16797E-01 2.85326E-23
2.20404E-01 2.75247E-23
2.24032E-01 2.65603E-23
2.27680E-01 2.56372E-23
2.31350E-01 2.47532E-23
2.35040E-01 2.39064E-23
2.38751E-01 2.30948E-23
2.42481E-01 2.23169E-23
2.46231E-01 2.15708E-23
2.50000E-01 2.08551E-23
2.53788E-01 2.01683E-23
2.57595E-01 1.95090E-23
2.61421E-01 1.88759E-23
2.65264E-01 1.82677E-23
2.69126E-01 1.76833E-23
2.73005E-01 1.71216E-23
2.76901E-01 1.65816E-23
2.80814E-01 1.60621E-23
2.84744E-01 1.55624E-23
2.88691E-01 1.50815E-23
2.92653E-01 1.46186E-23
2.96632E-01 1.41728E-23
3.00625E-01 1.37435E-23
3.04634E-01 1.33298E-23
3.08658E-01 1.29312E-23
3.12697E-01 1.25470E-23
3.16749E-01 1.21765E-23
3.20816E-01 1.18192E-23
3.24896E-01 1.14745E-23
3.28990E-01 1.11419E-23
3.33097E-01 1.08209E-23
3.37216E-01 1.05109E-23
3.41348E-01 1.02117E-23
3.45492E-01 9.92261E-24
3.49647E-01 9.64335E-24
3.53814E-01 9.37351E-24
3.57992E-01 9.11269E-24
3.62181E-01 8.86055E-24
3.66381E-01 8.61674E-24
3.70590E-01 8.38093E-24
3.74810E-01 8.15282E-24
3.79039E-01 7.93210E-24
3.83277E-01 7.71850E-24
3.87524E-01 7.51174E-24
3.91780E-01 7.31155E-24
3.96044E-01 7.11771E-24
4.00316E-01 6.92996E-24
4.04596E-01 6.74807E-24
4.08882E-01 6.57184E-24
4.13176E-01 6.40106E-24
4.17476E-01 6.23552E-24
4.21783E-01 6.07503E-24
4.26095E-01 5.91942E-24
4.30413E-01 5.76850E-24
4.34737E-01 5.62212E-24
4.39065E-01 5.48010E-24
4.43398E-01 5.34230E-24
4.47736E-01 5.20857E-24
4.52077E-01 5.07876E-24
4.56422E-01 4.95274E-24
4.60770E-01 4.83038E-24
4.65122E-01 4.71156E-24
4.69476E-01 4.59615E-24
4.73832E-01 4.48404E-24
4.78190E-01 4.37511E-24
4.82550E-01 4.26927E-24
4.86912E-01 4.16640E-24
4.91274E-01 4.06641E-24
4.95637E-01 3.96921E-24
5.00000E-01 3.87470E-24
5.04363E-01 3.78279E-24
5.08726E-01 3.69341E-24
5.13088E-01 3.60646E-24
5.17450E-01 3.52188E-24
5.21810E-01 3.43958E-24
5.26168E-01 3.35950E-24
5.30524E-01 3.28156E-24
5.34878E-01 3.20570E-24
5.39230E-01 3.13184E-24
5.43578E-01 3.05994E-24
5.47923E-01 2.98993E-24
5.52264E-01 2.92175E-24
5.56602E-01 2.85534E-24
5.60935E-01 2.79065E-24
5.65263E-01 2.72763E-24
5.69587E-01 2.66623E-24
5.73905E-01 2.60640E-24
5.78217E-01 2.54810E-24
5.82524E-01 2.49127E-24
5.86824E-01 2.43587E-24
5.91118E-01 2.38187E-24
5.95404E-01 2.32922E-24
5.99684E-01 2.27788E-24
6.03956E-01 2.22781E-24
6.08220E-01 2.17898E-24
6.12476E-01 2.13136E-24
6.16723E-01 2.08490E-24
6.20961E-01 2.03957E-24
6.25190E-01 1.99535E-24
6.29410E-01 1.95220E-24
6.33619E-01 1.91009E-24
6.37819E-01 1.86899E-24
6.42008E-01 1.82888E-24
6.46186E-01 1.78972E-24
6.50353E-01 1.75150E-24
6.54508E-01 1.71418E-24
6.58652E-01 1.67774E-24
6.62784E-01 1.64216E-24
6.66903E-01 1.60741E-24
6.71010E-01 1.57347E-24
6.75104E-01 1.54032E-24
6.79184E-01 1.50794E-24
6.83251E-01 1.47631E-24
6.87303E-01 1.44541E-24
6.91342E-01 1.41522E-24
6.95366E-01 1.38572E-24
6.99375E-01 1.35689E-24
7.03368E-01 1.32871E-24
7.07347E-01 1.30118E-24
7.11309E-01 1.27427E-24
7.15256E-01 1.24796E-24
7.19186E-01 1.22225E-24
7.23099E-01 1.19711E-24
7.26995E-01 1.17253E-24
7.30874E-01 1.14851E-24
7.34736E-01 1.12501E-24
7.38579E-01 1.10204E-24
7.42405E-01 1.07957E-24
7.46212E-01 1.05760E-24
7.50000E-01 1.03611E-24
7.53769E-01 1.01509E-24
7.57519E-01 9.94537E-25
7.61249E-01 9.74430E-25
7.64960E-01 9.54761E-25
7.68650E-01 9.35519E-25
7.72320E-01 9.16695E-25
7.75968E-01 8.98279E-25
7.79596E-01 8.80261E-25
7.83203E-01 8.62632E-25
7.86788E-01 8.45382E-25
7.90351E-01 8.28503E-25
7.93893E-01 8.11987E-25
7.97411E-01 7.95824E-25
8.00908E-01 7.80007E-25
8.04381E-01 7.64528E-25
8.07831E-01 7.49380E-25
8.11257E-01 7.34554E-25
8.14660E-01 7.20044E-25
8.18039E-01 7.05842E-25
8.21394E-01 6.91942E-25
8.24724E-01 6.78338E-25
8.28030E-01 6.65022E-25
8.31310E-01 6.51988E-25
8.34565E-01 6.39231E-25
8.37795E-01 6.26744E-25
8.40999E-01 6.14521E-25
8.44177E-01 6.02557E-25
8.47329E-01 5.90846E-25
8.50455E-01 5.79384E-25
8.53553E-01 5.68163E-25
8.56625E-01 5.57181E-25
8.59670E-01 5.46431E-25
8.62687E-01 5.35909E-25
8.65677E-01 5.25610E-25
8.68639E-01 5.15530E-25
8.71572E-01 5.05664E-25
8.74478E-01 4.96008E-25
8.77355E-01 4.86558E-25
8.80203E-01 4.77310E-25
8.83022E-01 4.68259E-25
8.85812E-01 4.59402E-25
8.88573E-01 4.50736E-25
8.91304E-01 4.42255E-25
8.94005E-01 4.33958E-25
8.96677E-01 4.25840E-25
8.99318E-01 4.17897E-25
9.01928E-01 4.10127E-25
9.04508E-01 4.02527E-25
9.07058E-01 3.95093E-25
9.09576E-01 3.87822E-25
9.12063E-01 3.80711E-25
9.14519E-01 3.73758E-25
9.16943E-01 3.66959E-25
9.19335E-01 3.60312E-25
9.21696E-01 3.53814E-25
9.24024E-01 3.47463E-25
9.26320E-01 3.41256E-25
9.28584E-01 3.35191E-25
9.30815E-01 3.29265E-25
9.33013E-01 3.23476E-25
9.35178E-01 3.17821E-25
9.37310E-01 3.12299E-25
9.39409E-01 3.06907E-25
9.41474E-01 3.01644E-25
9.43505E-01 2.96506E-25
9.45503E-01 2.91493E-25
9.47467E-01 2.86602E-25
9.49397E-01 2.81832E-25
9.51293E-01 2.77180E-25
9.53154E-01 2.72645E-25
9.54981E-01 2.68225E-25
9.56773E-01 2.63919E-25
9.58530E-01 2.59724E-25
9.60252E-01 2.55640E-25
9.61940E-01 2.51665E-25
9.63592E-01 2.47798E-25
9.65209E-01 2.44036E-25
9.66790E-01 2.40379E-25
9.68336E-01 2.36825E-25
9.69846E-01 2.33373E-25
9.71321E-01 2.30021E-25
9.72759E-01 2.26769E-25
9.74162E-01 2.23615E-25
9.75528E-01 2.20559E-25
9.76858E-01 2.17598E-25
9.78152E-01 2.14732E-25
9.79410E-01 2.11960E-25
9.80631E-01 2.09281E-25
9.81815E-01 2.06693E-25
9.82963E-01 2.04197E-25
9.84074E-01 2.01791E-25
9.85148E-01 1.99475E-25
9.86185E-01 1.97247E-25
9.87185E-01 1.95106E-25
9.88148E-01 1.93053E-25
9.89074E-01 1.91085E-25
9.89962E-01 1.89204E-25
9.90814E-01 1.87407E-25
9.91627E-01 1.85694E-25
9.92404E-01 1.84065E-25
9.93143E-01 1.82519E-25
9.93844E-01 1.81055E-25
9.94508E-01 1.79673E-25
9.95134E-01 1.78372E-25
9.95722E-01 1.77153E-25
9.96273E-01 1.76014E-25
9.96786E-01 1.74956E-25
9.97261E-01 1.73977E-25
9.97698E-01 1.73078E-25
9.98097E-01 1.72258E-25
9.98459E-01 1.71518E-25
9.98782E-01 1.70855E-25
9.99067E-01 1.70272E-25
9.99315E-01 1.69767E-25
9.99524E-01 1.69340E-25
9.99695E-01 1.68991E-25
9.99829E-01 1.68719E-25
9.99924E-01 1.68525E-25
9.99981E-01 1.68409E-25
1.00000E+00 1.68385E-25
