 #
 # Subroutine ELSEPA. Elastic scattering of electrons and positrons
 #                    by neutral atoms and positive ions
 #
 # Projectile: electron
 # Kinetic energy = 2.50000E+06 eV = 9.18733E+04 a.u.
 #
 # WARNING: High-energy factorization with free-atom DF screening.
 #          Absorption, polarization and exchange corrections are
 #          switched off.
 #          Phase shifts are calculated for the bare nucleus.
 #          Scattering amplitudes are not evaluated.
 #
 # Element: Ti,  Z =  22,  atomic weight = 4.78670E+01 g/mol
 #
 # Nuclear model: Fermi distribution
 #                Average radius = 3.88504E-13 cm
 #                Skin thickness = 5.46000E-14 cm
 #
 # Number of electrons = 22
 #
 # Total elastic cross section = 1.95824E-18 cm**2 = 6.99299E-02 a0**2
 # 1st transport cross section = 7.95667E-23 cm**2 = 2.84138E-06 a0**2
 # 2nd transport cross section = 2.24900E-22 cm**2 = 8.03134E-06 a0**2
 #
 #
 # Differential cross section:                       MU=(1-COS(THETA))/2
 #
 #  THETA        MU          DCS          DCS        Sherman      error
 #  (deg)                 (cm**2/sr)   (a0**2/sr)    function
 #----------------------------------------------------------------------
0.00000E+00 2.65772E-13
7.61557E-13 2.65771E-13
1.18994E-12 2.65771E-13
1.71346E-12 2.65770E-13
2.33225E-12 2.65769E-13
3.04617E-12 2.65768E-13
3.85530E-12 2.65767E-13
4.75964E-12 2.65766E-13
5.75917E-12 2.65765E-13
6.85391E-12 2.65764E-13
8.04379E-12 2.65762E-13
9.32893E-12 2.65760E-13
1.07092E-11 2.65759E-13
1.21847E-11 2.65757E-13
1.37554E-11 2.65755E-13
1.54213E-11 2.65753E-13
1.71823E-11 2.65750E-13
1.90386E-11 2.65748E-13
2.09900E-11 2.65745E-13
2.30367E-11 2.65743E-13
2.51785E-11 2.65740E-13
2.74156E-11 2.65737E-13
2.97478E-11 2.65734E-13
3.21752E-11 2.65731E-13
3.46979E-11 2.65728E-13
3.73157E-11 2.65724E-13
4.00286E-11 2.65721E-13
4.28368E-11 2.65717E-13
4.57402E-11 2.65714E-13
4.87388E-11 2.65710E-13
5.18325E-11 2.65706E-13
5.50215E-11 2.65702E-13
5.83057E-11 2.65697E-13
6.16850E-11 2.65693E-13
6.51595E-11 2.65689E-13
6.87293E-11 2.65684E-13
7.23943E-11 2.65679E-13
7.61544E-11 2.65674E-13
1.18991E-10 2.65619E-13
1.71347E-10 2.65552E-13
2.33223E-10 2.65472E-13
3.04617E-10 2.65380E-13
3.85531E-10 2.65276E-13
4.75965E-10 2.65160E-13
5.75917E-10 2.65031E-13
6.85389E-10 2.64891E-13
8.04380E-10 2.64738E-13
9.32891E-10 2.64573E-13
1.07092E-09 2.64396E-13
1.21847E-09 2.64208E-13
1.37554E-09 2.64007E-13
1.54213E-09 2.63794E-13
1.71823E-09 2.63569E-13
1.90386E-09 2.63333E-13
2.09900E-09 2.63085E-13
2.30367E-09 2.62825E-13
2.51785E-09 2.62553E-13
2.74156E-09 2.62270E-13
2.97478E-09 2.61975E-13
3.21752E-09 2.61669E-13
3.46978E-09 2.61351E-13
3.73156E-09 2.61022E-13
4.00286E-09 2.60681E-13
4.28368E-09 2.60329E-13
4.57402E-09 2.59967E-13
4.87388E-09 2.59593E-13
5.18326E-09 2.59208E-13
5.50215E-09 2.58812E-13
5.83057E-09 2.58405E-13
6.16850E-09 2.57987E-13
6.51596E-09 2.57559E-13
6.87293E-09 2.57120E-13
7.23942E-09 2.56671E-13
7.61544E-09 2.56211E-13
1.18991E-08 2.51059E-13
1.71347E-08 2.44973E-13
2.33223E-08 2.38066E-13
3.04617E-08 2.30460E-13
3.85531E-08 2.22283E-13
4.75965E-08 2.13663E-13
5.75917E-08 2.04723E-13
6.85389E-08 1.95586E-13
8.04380E-08 1.86354E-13
9.32891E-08 1.77140E-13
1.07092E-07 1.68016E-13
1.21847E-07 1.59072E-13
1.37554E-07 1.50357E-13
1.54213E-07 1.41931E-13
1.71823E-07 1.33829E-13
1.90386E-07 1.26076E-13
2.09900E-07 1.18703E-13
2.30367E-07 1.11700E-13
2.51785E-07 1.05099E-13
2.74156E-07 9.88608E-14
2.97478E-07 9.30243E-14
3.21752E-07 8.75315E-14
3.46978E-07 8.24106E-14
3.73156E-07 7.76120E-14
4.00286E-07 7.31434E-14
4.28368E-07 6.89711E-14
4.57402E-07 6.50858E-14
4.87388E-07 6.14671E-14
5.18325E-07 5.80945E-14
5.50215E-07 5.49578E-14
5.83057E-07 5.20307E-14
6.16850E-07 4.93094E-14
6.51596E-07 4.67663E-14
6.87293E-07 4.44000E-14
7.23942E-07 4.21870E-14
7.61543E-07 4.01221E-14
1.18991E-06 2.53735E-14
1.71347E-06 1.70547E-14
2.33223E-06 1.19054E-14
3.04617E-06 8.40248E-15
3.85531E-06 6.14150E-15
4.75964E-06 4.50981E-15
5.75916E-06 3.39029E-15
6.85388E-06 2.55490E-15
8.04378E-06 1.96864E-15
9.32888E-06 1.52751E-15
1.07092E-05 1.20691E-15
1.21846E-05 9.64330E-16
1.37553E-05 7.81562E-16
1.54212E-05 6.40845E-16
1.71822E-05 5.31581E-16
1.90385E-05 4.45559E-16
2.09899E-05 3.76971E-16
2.30365E-05 3.21780E-16
2.51783E-05 2.76618E-16
2.74153E-05 2.39601E-16
2.97475E-05 2.08598E-16
3.21749E-05 1.82777E-16
3.46974E-05 1.60787E-16
3.73152E-05 1.42172E-16
4.00281E-05 1.26140E-16
4.28362E-05 1.12357E-16
4.57395E-05 1.00390E-16
4.87380E-05 8.99598E-17
5.18317E-05 8.08538E-17
5.50205E-05 7.28238E-17
5.83045E-05 6.57861E-17
6.16838E-05 5.95186E-17
6.51582E-05 5.40074E-17
6.87277E-05 4.90583E-17
7.23925E-05 4.46810E-17
7.61524E-05 4.07474E-17
9.21439E-05 2.86991E-17
1.09658E-04 2.07183E-17
1.28695E-04 1.52862E-17
1.49255E-04 1.15032E-17
1.71338E-04 8.81343E-18
1.94942E-04 6.86305E-18
2.20070E-04 5.42298E-18
2.46720E-04 4.34190E-18
2.74892E-04 3.51748E-18
3.04586E-04 2.88116E-18
3.35803E-04 2.38300E-18
3.68542E-04 1.98881E-18
4.02802E-04 1.67305E-18
4.38585E-04 1.41817E-18
4.75889E-04 1.21002E-18
5.14715E-04 1.03912E-18
5.55063E-04 8.97314E-19
5.96931E-04 7.79115E-19
6.40321E-04 6.79758E-19
6.85233E-04 5.95840E-19
7.31665E-04 5.24501E-19
7.79618E-04 4.63551E-19
8.29092E-04 4.11235E-19
8.80086E-04 3.66084E-19
9.32601E-04 3.27002E-19
9.86636E-04 2.92968E-19
1.04219E-03 2.63288E-19
1.09927E-03 2.37239E-19
1.15786E-03 2.14360E-19
1.21797E-03 1.94155E-19
1.27961E-03 1.76287E-19
1.34276E-03 1.60421E-19
1.40743E-03 1.46303E-19
1.47362E-03 1.33703E-19
1.54133E-03 1.22428E-19
1.61056E-03 1.12320E-19
1.68131E-03 1.03229E-19
1.75357E-03 9.50431E-20
1.82735E-03 8.76473E-20
1.90265E-03 8.09614E-20
1.97947E-03 7.48964E-20
2.05780E-03 6.93916E-20
2.13765E-03 6.43809E-20
2.21902E-03 5.98157E-20
2.30190E-03 5.56470E-20
2.38630E-03 5.18354E-20
2.47222E-03 4.83447E-20
2.55965E-03 4.51424E-20
2.64859E-03 4.22015E-20
2.73905E-03 3.94954E-20
2.83103E-03 3.70037E-20
2.92452E-03 3.47044E-20
3.01952E-03 3.25818E-20
3.11604E-03 3.06184E-20
3.21407E-03 2.88012E-20
3.31362E-03 2.71165E-20
3.41468E-03 2.55535E-20
3.51725E-03 2.41014E-20
3.62133E-03 2.27511E-20
3.72692E-03 2.14942E-20
3.83403E-03 2.03228E-20
3.94265E-03 1.92304E-20
4.05278E-03 1.82103E-20
4.16442E-03 1.72572E-20
4.27757E-03 1.63654E-20
4.39223E-03 1.55308E-20
4.50840E-03 1.47486E-20
4.62608E-03 1.40152E-20
4.74527E-03 1.33268E-20
4.86597E-03 1.26803E-20
4.98817E-03 1.20725E-20
5.11188E-03 1.15008E-20
5.23711E-03 1.09626E-20
5.36383E-03 1.04555E-20
5.49207E-03 9.97746E-21
5.62181E-03 9.52644E-21
5.75306E-03 9.10072E-21
5.88581E-03 8.69851E-21
6.02007E-03 8.31835E-21
6.15583E-03 7.95874E-21
6.29310E-03 7.61842E-21
6.43187E-03 7.29611E-21
6.57214E-03 6.99071E-21
6.71392E-03 6.70115E-21
6.85720E-03 6.42646E-21
7.00198E-03 6.16574E-21
7.14827E-03 5.91813E-21
7.29605E-03 5.68286E-21
7.44534E-03 5.45918E-21
7.59612E-03 5.24643E-21
7.97965E-03 4.75827E-21
8.37255E-03 4.32572E-21
8.77480E-03 3.94134E-21
9.18641E-03 3.59881E-21
9.60736E-03 3.29280E-21
1.00376E-02 3.01871E-21
1.04773E-02 2.77263E-21
1.09262E-02 2.55119E-21
1.13844E-02 2.35148E-21
1.18520E-02 2.17099E-21
1.23288E-02 2.00754E-21
1.28150E-02 1.85923E-21
1.33104E-02 1.72441E-21
1.38150E-02 1.60162E-21
1.43290E-02 1.48961E-21
1.48521E-02 1.38725E-21
1.53845E-02 1.29356E-21
1.59262E-02 1.20767E-21
1.64770E-02 1.12882E-21
1.70371E-02 1.05632E-21
1.76063E-02 9.89562E-22
1.81848E-02 9.28016E-22
1.87724E-02 8.71197E-22
1.93692E-02 8.18675E-22
1.99751E-02 7.70065E-22
2.05901E-02 7.25022E-22
2.12143E-02 6.83236E-22
2.18476E-02 6.44427E-22
2.24900E-02 6.08344E-22
2.31415E-02 5.74760E-22
2.38021E-02 5.43470E-22
2.44717E-02 5.14287E-22
2.51504E-02 4.87044E-22
2.58382E-02 4.61587E-22
2.65349E-02 4.37777E-22
2.72407E-02 4.15488E-22
2.79555E-02 3.94604E-22
2.86793E-02 3.75021E-22
2.94120E-02 3.56641E-22
3.01537E-02 3.39377E-22
3.09043E-02 3.23149E-22
3.16639E-02 3.07882E-22
3.24324E-02 2.93509E-22
3.32098E-02 2.79968E-22
3.39961E-02 2.67201E-22
3.47912E-02 2.55156E-22
3.55952E-02 2.43784E-22
3.64081E-02 2.33041E-22
3.72297E-02 2.22885E-22
3.80602E-02 2.13277E-22
3.88995E-02 2.04183E-22
3.97476E-02 1.95571E-22
4.06044E-02 1.87408E-22
4.14700E-02 1.79669E-22
4.23443E-02 1.72326E-22
4.32273E-02 1.65355E-22
4.41190E-02 1.58734E-22
4.50194E-02 1.52442E-22
4.59284E-02 1.46459E-22
4.68461E-02 1.40768E-22
4.87074E-02 1.30193E-22
5.06030E-02 1.20595E-22
5.25328E-02 1.11867E-22
5.44967E-02 1.03916E-22
5.64946E-02 9.66602E-23
5.85262E-02 9.00277E-23
6.05914E-02 8.39552E-23
6.26901E-02 7.83868E-23
6.48222E-02 7.32729E-23
6.69873E-02 6.85697E-23
6.91854E-02 6.42381E-23
7.14163E-02 6.02434E-23
7.36799E-02 5.65545E-23
7.59760E-02 5.31436E-23
7.83043E-02 4.99860E-23
8.06647E-02 4.70594E-23
8.30571E-02 4.43437E-23
8.54812E-02 4.18209E-23
8.79369E-02 3.94748E-23
9.04240E-02 3.72907E-23
9.29422E-02 3.52553E-23
9.54915E-02 3.33566E-23
9.80716E-02 3.15837E-23
1.00682E-01 2.99267E-23
1.03323E-01 2.83767E-23
1.05995E-01 2.69254E-23
1.08696E-01 2.55654E-23
1.11427E-01 2.42898E-23
1.14188E-01 2.30925E-23
1.16978E-01 2.19677E-23
1.19797E-01 2.09102E-23
1.22645E-01 1.99153E-23
1.25522E-01 1.89785E-23
1.28428E-01 1.80958E-23
1.31361E-01 1.72635E-23
1.34323E-01 1.64781E-23
1.37313E-01 1.57366E-23
1.40330E-01 1.50360E-23
1.43375E-01 1.43737E-23
1.46447E-01 1.37471E-23
1.49545E-01 1.31540E-23
1.52671E-01 1.25922E-23
1.55823E-01 1.20598E-23
1.59001E-01 1.15549E-23
1.62205E-01 1.10759E-23
1.65435E-01 1.06212E-23
1.68690E-01 1.01893E-23
1.71970E-01 9.77884E-24
1.75276E-01 9.38858E-24
1.78606E-01 9.01734E-24
1.81961E-01 8.66400E-24
1.85340E-01 8.32756E-24
1.88743E-01 8.00703E-24
1.92169E-01 7.70154E-24
1.95619E-01 7.41024E-24
1.99092E-01 7.13235E-24
2.02589E-01 6.86713E-24
2.06107E-01 6.61391E-24
2.09649E-01 6.37203E-24
2.13212E-01 6.14089E-24
2.16797E-01 5.91993E-24
2.20404E-01 5.70861E-24
2.24032E-01 5.50643E-24
2.27680E-01 5.31293E-24
2.31350E-01 5.12766E-24
2.35040E-01 4.95021E-24
2.38751E-01 4.78018E-24
2.42481E-01 4.61720E-24
2.46231E-01 4.46094E-24
2.50000E-01 4.31105E-24
2.53788E-01 4.16724E-24
2.57595E-01 4.02920E-24
2.61421E-01 3.89667E-24
2.65264E-01 3.76938E-24
2.69126E-01 3.64709E-24
2.73005E-01 3.52957E-24
2.76901E-01 3.41659E-24
2.80814E-01 3.30794E-24
2.84744E-01 3.20344E-24
2.88691E-01 3.10288E-24
2.92653E-01 3.00610E-24
2.96632E-01 2.91293E-24
3.00625E-01 2.82321E-24
3.04634E-01 2.73678E-24
3.08658E-01 2.65350E-24
3.12697E-01 2.57324E-24
3.16749E-01 2.49586E-24
3.20816E-01 2.42126E-24
3.24896E-01 2.34929E-24
3.28990E-01 2.27987E-24
3.33097E-01 2.21287E-24
3.37216E-01 2.14821E-24
3.41348E-01 2.08578E-24
3.45492E-01 2.02549E-24
3.49647E-01 1.96725E-24
3.53814E-01 1.91099E-24
3.57992E-01 1.85662E-24
3.62181E-01 1.80407E-24
3.66381E-01 1.75326E-24
3.70590E-01 1.70414E-24
3.74810E-01 1.65662E-24
3.79039E-01 1.61066E-24
3.83277E-01 1.56618E-24
3.87524E-01 1.52314E-24
3.91780E-01 1.48148E-24
3.96044E-01 1.44114E-24
4.00316E-01 1.40208E-24
4.04596E-01 1.36425E-24
4.08882E-01 1.32760E-24
4.13176E-01 1.29210E-24
4.17476E-01 1.25768E-24
4.21783E-01 1.22433E-24
4.26095E-01 1.19200E-24
4.30413E-01 1.16065E-24
4.34737E-01 1.13025E-24
4.39065E-01 1.10076E-24
4.43398E-01 1.07215E-24
4.47736E-01 1.04439E-24
4.52077E-01 1.01746E-24
4.56422E-01 9.91316E-25
4.60770E-01 9.65938E-25
4.65122E-01 9.41298E-25
4.69476E-01 9.17372E-25
4.73832E-01 8.94135E-25
4.78190E-01 8.71564E-25
4.82550E-01 8.49636E-25
4.86912E-01 8.28330E-25
4.91274E-01 8.07625E-25
4.95637E-01 7.87502E-25
5.00000E-01 7.67940E-25
5.04363E-01 7.48923E-25
5.08726E-01 7.30431E-25
5.13088E-01 7.12449E-25
5.17450E-01 6.94959E-25
5.21810E-01 6.77946E-25
5.26168E-01 6.61395E-25
5.30524E-01 6.45291E-25
5.34878E-01 6.29620E-25
5.39230E-01 6.14369E-25
5.43578E-01 5.99523E-25
5.47923E-01 5.85071E-25
5.52264E-01 5.71001E-25
5.56602E-01 5.57301E-25
5.60935E-01 5.43958E-25
5.65263E-01 5.30964E-25
5.69587E-01 5.18306E-25
5.73905E-01 5.05975E-25
5.78217E-01 4.93961E-25
5.82524E-01 4.82255E-25
5.86824E-01 4.70847E-25
5.91118E-01 4.59729E-25
5.95404E-01 4.48892E-25
5.99684E-01 4.38328E-25
6.03956E-01 4.28029E-25
6.08220E-01 4.17987E-25
6.12476E-01 4.08195E-25
6.16723E-01 3.98645E-25
6.20961E-01 3.89331E-25
6.25190E-01 3.80246E-25
6.29410E-01 3.71384E-25
6.33619E-01 3.62738E-25
6.37819E-01 3.54302E-25
6.42008E-01 3.46070E-25
6.46186E-01 3.38037E-25
6.50353E-01 3.30197E-25
6.54508E-01 3.22545E-25
6.58652E-01 3.15075E-25
6.62784E-01 3.07783E-25
6.66903E-01 3.00664E-25
6.71010E-01 2.93713E-25
6.75104E-01 2.86926E-25
6.79184E-01 2.80298E-25
6.83251E-01 2.73825E-25
6.87303E-01 2.67503E-25
6.91342E-01 2.61328E-25
6.95366E-01 2.55296E-25
6.99375E-01 2.49403E-25
7.03368E-01 2.43646E-25
7.07347E-01 2.38021E-25
7.11309E-01 2.32525E-25
7.15256E-01 2.27154E-25
7.19186E-01 2.21905E-25
7.23099E-01 2.16776E-25
7.26995E-01 2.11762E-25
7.30874E-01 2.06862E-25
7.34736E-01 2.02072E-25
7.38579E-01 1.97389E-25
7.42405E-01 1.92811E-25
7.46212E-01 1.88336E-25
7.50000E-01 1.83960E-25
7.53769E-01 1.79681E-25
7.57519E-01 1.75497E-25
7.61249E-01 1.71406E-25
7.64960E-01 1.67405E-25
7.68650E-01 1.63492E-25
7.72320E-01 1.59666E-25
7.75968E-01 1.55923E-25
7.79596E-01 1.52262E-25
7.83203E-01 1.48681E-25
7.86788E-01 1.45179E-25
7.90351E-01 1.41752E-25
7.93893E-01 1.38400E-25
7.97411E-01 1.35121E-25
8.00908E-01 1.31913E-25
8.04381E-01 1.28774E-25
8.07831E-01 1.25704E-25
8.11257E-01 1.22699E-25
8.14660E-01 1.19760E-25
8.18039E-01 1.16883E-25
8.21394E-01 1.14069E-25
8.24724E-01 1.11315E-25
8.28030E-01 1.08621E-25
8.31310E-01 1.05984E-25
8.34565E-01 1.03404E-25
8.37795E-01 1.00879E-25
8.40999E-01 9.84082E-26
8.44177E-01 9.59905E-26
8.47329E-01 9.36247E-26
8.50455E-01 9.13095E-26
8.53553E-01 8.90441E-26
8.56625E-01 8.68272E-26
8.59670E-01 8.46579E-26
8.62687E-01 8.25351E-26
8.65677E-01 8.04579E-26
8.68639E-01 7.84255E-26
8.71572E-01 7.64367E-26
8.74478E-01 7.44908E-26
8.77355E-01 7.25868E-26
8.80203E-01 7.07240E-26
8.83022E-01 6.89015E-26
8.85812E-01 6.71184E-26
8.88573E-01 6.53741E-26
8.91304E-01 6.36677E-26
8.94005E-01 6.19985E-26
8.96677E-01 6.03658E-26
8.99318E-01 5.87689E-26
9.01928E-01 5.72071E-26
9.04508E-01 5.56797E-26
9.07058E-01 5.41861E-26
9.09576E-01 5.27257E-26
9.12063E-01 5.12978E-26
9.14519E-01 4.99018E-26
9.16943E-01 4.85372E-26
9.19335E-01 4.72034E-26
9.21696E-01 4.58999E-26
9.24024E-01 4.46260E-26
9.26320E-01 4.33813E-26
9.28584E-01 4.21653E-26
9.30815E-01 4.09775E-26
9.33013E-01 3.98173E-26
9.35178E-01 3.86844E-26
9.37310E-01 3.75783E-26
9.39409E-01 3.64985E-26
9.41474E-01 3.54446E-26
9.43505E-01 3.44162E-26
9.45503E-01 3.34129E-26
9.47467E-01 3.24342E-26
9.49397E-01 3.14798E-26
9.51293E-01 3.05494E-26
9.53154E-01 2.96425E-26
9.54981E-01 2.87588E-26
9.56773E-01 2.78980E-26
9.58530E-01 2.70597E-26
9.60252E-01 2.62436E-26
9.61940E-01 2.54494E-26
9.63592E-01 2.46768E-26
9.65209E-01 2.39254E-26
9.66790E-01 2.31951E-26
9.68336E-01 2.24855E-26
9.69846E-01 2.17964E-26
9.71321E-01 2.11274E-26
9.72759E-01 2.04784E-26
9.74162E-01 1.98491E-26
9.75528E-01 1.92393E-26
9.76858E-01 1.86487E-26
9.78152E-01 1.80771E-26
9.79410E-01 1.75243E-26
9.80631E-01 1.69902E-26
9.81815E-01 1.64744E-26
9.82963E-01 1.59768E-26
9.84074E-01 1.54973E-26
9.85148E-01 1.50356E-26
9.86185E-01 1.45916E-26
9.87185E-01 1.41651E-26
9.88148E-01 1.37560E-26
9.89074E-01 1.33641E-26
9.89962E-01 1.29892E-26
9.90814E-01 1.26313E-26
9.91627E-01 1.22902E-26
9.92404E-01 1.19658E-26
9.93143E-01 1.16579E-26
9.93844E-01 1.13665E-26
9.94508E-01 1.10914E-26
9.95134E-01 1.08325E-26
9.95722E-01 1.05898E-26
9.96273E-01 1.03632E-26
9.96786E-01 1.01526E-26
9.97261E-01 9.95782E-27
9.97698E-01 9.77891E-27
9.98097E-01 9.61577E-27
9.98459E-01 9.46835E-27
9.98782E-01 9.33659E-27
9.99067E-01 9.22044E-27
9.99315E-01 9.11986E-27
9.99524E-01 9.03481E-27
9.99695E-01 8.96527E-27
9.99829E-01 8.91121E-27
9.99924E-01 8.87261E-27
9.99981E-01 8.84945E-27
1.00000E+00 8.84176E-27
