 #
 # Subroutine ELSEPA. Elastic scattering of electrons and positrons
 #                    by neutral atoms and positive ions
 #
 # Projectile: electron
 # Kinetic energy = 2.50000E+08 eV = 9.18733E+06 a.u.
 #
 # WARNING: High-energy factorization with free-atom DF screening.
 #          Absorption, polarization and exchange corrections are
 #          switched off.
 #          Phase shifts are calculated for the bare nucleus.
 #          Scattering amplitudes are not evaluated.
 #
 # Element: Ti,  Z =  22,  atomic weight = 4.78670E+01 g/mol
 #
 # Nuclear model: Fermi distribution
 #                Average radius = 3.88504E-13 cm
 #                Skin thickness = 5.46000E-14 cm
 #
 # Number of electrons = 22
 #
 # Total elastic cross section = 1.90032E-18 cm**2 = 6.78615E-02 a0**2
 # 1st transport cross section = 1.62388E-26 cm**2 = 5.79899E-10 a0**2
 # 2nd transport cross section = 4.86199E-26 cm**2 = 1.73625E-09 a0**2
 #
 #
 # Differential cross section:                       MU=(1-COS(THETA))/2
 #
 #  THETA        MU          DCS          DCS        Sherman      error
 #  (deg)                 (cm**2/sr)   (a0**2/sr)    function
 #----------------------------------------------------------------------
0.00000E+00 1.83968E-09
7.61557E-13 1.79208E-09
1.18994E-12 1.76613E-09
1.71346E-12 1.73518E-09
2.33225E-12 1.69966E-09
3.04617E-12 1.66004E-09
3.85530E-12 1.61681E-09
4.75964E-12 1.57052E-09
5.75917E-12 1.52168E-09
6.85391E-12 1.47085E-09
8.04379E-12 1.41851E-09
9.32893E-12 1.36519E-09
1.07092E-11 1.31132E-09
1.21847E-11 1.25736E-09
1.37554E-11 1.20366E-09
1.54213E-11 1.15059E-09
1.71823E-11 1.09845E-09
1.90386E-11 1.04745E-09
2.09900E-11 9.97894E-10
2.30367E-11 9.49794E-10
2.51785E-11 9.03520E-10
2.74156E-11 8.58882E-10
2.97478E-11 8.16253E-10
3.21752E-11 7.75386E-10
3.46979E-11 7.36519E-10
3.73157E-11 6.99486E-10
4.00286E-11 6.64354E-10
4.28368E-11 6.31063E-10
4.57402E-11 5.99519E-10
4.87388E-11 5.69769E-10
5.18325E-11 5.41586E-10
5.50215E-11 5.15110E-10
5.83057E-11 4.90031E-10
6.16850E-11 4.66519E-10
6.51595E-11 4.44282E-10
6.87293E-11 4.23400E-10
7.23943E-11 4.03698E-10
7.61544E-11 3.85163E-10
1.18991E-10 2.49192E-10
1.71347E-10 1.70768E-10
2.33223E-10 1.22087E-10
3.04617E-10 8.97368E-11
3.85531E-10 6.68330E-11
4.75965E-10 5.03014E-11
5.75917E-10 3.90641E-11
6.85389E-10 2.99862E-11
8.04380E-10 2.36010E-11
9.32891E-10 1.85637E-11
1.07092E-09 1.48269E-11
1.21847E-09 1.19330E-11
1.37554E-09 9.70337E-12
1.54213E-09 7.97225E-12
1.71823E-09 6.60675E-12
1.90386E-09 5.53097E-12
2.09900E-09 4.66713E-12
2.30367E-09 3.97383E-12
2.51785E-09 3.40735E-12
2.74156E-09 2.94439E-12
2.97478E-09 2.55954E-12
3.21752E-09 2.23958E-12
3.46978E-09 1.96951E-12
3.73156E-09 1.74124E-12
4.00286E-09 1.54615E-12
4.28368E-09 1.37856E-12
4.57402E-09 1.23404E-12
4.87388E-09 1.10792E-12
5.18326E-09 9.98512E-13
5.50215E-09 9.01609E-13
5.83057E-09 8.17133E-13
6.16850E-09 7.41478E-13
6.51596E-09 6.74978E-13
6.87293E-09 6.15293E-13
7.23942E-09 5.62243E-13
7.61544E-09 5.14587E-13
1.18991E-08 2.30657E-13
1.71347E-08 1.16345E-13
2.33223E-08 6.43185E-14
3.04617E-08 3.82862E-14
3.85531E-08 2.41879E-14
4.75965E-08 1.60400E-14
5.75917E-08 1.10638E-14
6.85389E-08 7.88340E-15
8.04380E-08 5.77174E-15
9.32891E-08 4.32398E-15
1.07092E-07 3.30345E-15
1.21847E-07 2.56726E-15
1.37554E-07 2.02526E-15
1.54213E-07 1.61898E-15
1.71823E-07 1.30958E-15
1.90386E-07 1.07059E-15
2.09900E-07 8.83632E-16
2.30367E-07 7.35658E-16
2.51785E-07 6.17342E-16
2.74156E-07 5.21838E-16
2.97478E-07 4.44074E-16
3.21752E-07 3.80241E-16
3.46978E-07 3.27455E-16
3.73156E-07 2.83501E-16
4.00286E-07 2.46664E-16
4.28368E-07 2.15608E-16
4.57402E-07 1.89282E-16
4.87388E-07 1.66848E-16
5.18325E-07 1.47635E-16
5.50215E-07 1.31106E-16
5.83057E-07 1.16824E-16
6.16850E-07 1.04431E-16
6.51596E-07 9.36371E-17
6.87293E-07 8.42005E-17
7.23942E-07 7.59220E-17
7.61543E-07 6.86352E-17
1.18991E-06 2.81797E-17
1.71347E-06 1.36050E-17
2.33223E-06 7.34825E-18
3.04617E-06 4.30912E-18
3.85531E-06 2.69092E-18
4.75964E-06 1.76590E-18
5.75916E-06 1.20635E-18
6.85388E-06 8.51901E-19
8.04378E-06 6.18590E-19
9.32888E-06 4.59962E-19
1.07092E-05 3.49079E-19
1.21846E-05 2.69687E-19
1.37553E-05 2.11639E-19
1.54212E-05 1.68403E-19
1.71822E-05 1.35667E-19
1.90385E-05 1.10512E-19
2.09899E-05 9.09346E-20
2.30365E-05 7.55055E-20
2.51783E-05 6.32128E-20
2.74153E-05 5.33219E-20
2.97475E-05 4.52918E-20
3.21749E-05 3.87184E-20
3.46974E-05 3.32962E-20
3.73152E-05 2.87916E-20
4.00281E-05 2.50241E-20
4.28362E-05 2.18535E-20
4.57395E-05 1.91696E-20
4.87380E-05 1.68853E-20
5.18317E-05 1.49313E-20
5.50205E-05 1.32518E-20
5.83045E-05 1.18021E-20
6.16838E-05 1.05454E-20
6.51582E-05 9.45167E-21
6.87277E-05 8.49627E-21
7.23925E-05 7.65866E-21
7.61524E-05 6.91351E-21
9.21439E-05 4.72242E-21
1.09658E-04 3.33446E-21
1.28695E-04 2.42092E-21
1.49255E-04 1.79977E-21
1.71338E-04 1.36561E-21
1.94942E-04 1.05475E-21
2.20070E-04 8.27476E-22
2.46720E-04 6.58206E-22
2.74892E-04 5.30049E-22
3.04586E-04 4.31590E-22
3.35803E-04 3.54937E-22
3.68542E-04 2.94548E-22
4.02802E-04 2.46453E-22
4.38585E-04 2.07767E-22
4.75889E-04 1.76367E-22
5.14715E-04 1.50667E-22
5.55063E-04 1.29470E-22
5.96931E-04 1.11863E-22
6.40321E-04 9.71395E-23
6.85233E-04 8.47525E-23
7.31665E-04 7.42710E-23
7.79618E-04 6.53542E-23
8.29092E-04 5.77302E-23
8.80086E-04 5.11809E-23
9.32601E-04 4.55296E-23
9.86636E-04 4.06329E-23
1.04219E-03 3.63731E-23
1.09927E-03 3.26536E-23
1.15786E-03 2.93944E-23
1.21797E-03 2.65288E-23
1.27961E-03 2.40014E-23
1.34276E-03 2.17654E-23
1.40743E-03 1.97815E-23
1.47362E-03 1.80166E-23
1.54133E-03 1.64422E-23
1.61056E-03 1.50343E-23
1.68131E-03 1.37723E-23
1.75357E-03 1.26385E-23
1.82735E-03 1.16176E-23
1.90265E-03 1.06965E-23
1.97947E-03 9.86361E-24
2.05780E-03 9.10916E-24
2.13765E-03 8.42446E-24
2.21902E-03 7.80193E-24
2.30190E-03 7.23496E-24
2.38630E-03 6.71774E-24
2.47222E-03 6.24514E-24
2.55965E-03 5.81266E-24
2.64859E-03 5.41629E-24
2.73905E-03 5.05250E-24
2.83103E-03 4.71815E-24
2.92452E-03 4.41044E-24
3.01952E-03 4.12689E-24
3.11604E-03 3.86526E-24
3.21407E-03 3.62358E-24
3.31362E-03 3.40006E-24
3.41468E-03 3.19310E-24
3.51725E-03 3.00126E-24
3.62133E-03 2.82324E-24
3.72692E-03 2.65788E-24
3.83403E-03 2.50413E-24
3.94265E-03 2.36102E-24
4.05278E-03 2.22771E-24
4.16442E-03 2.10339E-24
4.27757E-03 1.98736E-24
4.39223E-03 1.87897E-24
4.50840E-03 1.77764E-24
4.62608E-03 1.68282E-24
4.74527E-03 1.59403E-24
4.86597E-03 1.51081E-24
4.98817E-03 1.43276E-24
5.11188E-03 1.35951E-24
5.23711E-03 1.29070E-24
5.36383E-03 1.22603E-24
5.49207E-03 1.16520E-24
5.62181E-03 1.10794E-24
5.75306E-03 1.05402E-24
5.88581E-03 1.00320E-24
6.02007E-03 9.55273E-25
6.15583E-03 9.10051E-25
6.29310E-03 8.67356E-25
6.43187E-03 8.27021E-25
6.57214E-03 7.88896E-25
6.71392E-03 7.52838E-25
6.85720E-03 7.18717E-25
7.00198E-03 6.86413E-25
7.14827E-03 6.55813E-25
7.29605E-03 6.26811E-25
7.44534E-03 5.99312E-25
7.59612E-03 5.73224E-25
7.97965E-03 5.13642E-25
8.37255E-03 4.61204E-25
8.77480E-03 4.14930E-25
9.18641E-03 3.73990E-25
9.60736E-03 3.37681E-25
1.00376E-02 3.05403E-25
1.04773E-02 2.76646E-25
1.09262E-02 2.50972E-25
1.13844E-02 2.28004E-25
1.18520E-02 2.07418E-25
1.23288E-02 1.88932E-25
1.28150E-02 1.72305E-25
1.33104E-02 1.57323E-25
1.38150E-02 1.43803E-25
1.43290E-02 1.31583E-25
1.48521E-02 1.20523E-25
1.53845E-02 1.10498E-25
1.59262E-02 1.01399E-25
1.64770E-02 9.31294E-26
1.70371E-02 8.56055E-26
1.76063E-02 7.87514E-26
1.81848E-02 7.25005E-26
1.87724E-02 6.67936E-26
1.93692E-02 6.15778E-26
1.99751E-02 5.68063E-26
2.05901E-02 5.24370E-26
2.12143E-02 4.84323E-26
2.18476E-02 4.47585E-26
2.24900E-02 4.13856E-26
2.31415E-02 3.82862E-26
2.38021E-02 3.54361E-26
2.44717E-02 3.28133E-26
2.51504E-02 3.03978E-26
2.58382E-02 2.81717E-26
2.65349E-02 2.61190E-26
2.72407E-02 2.42248E-26
2.79555E-02 2.24758E-26
2.86793E-02 2.08601E-26
2.94120E-02 1.93666E-26
3.01537E-02 1.79853E-26
3.09043E-02 1.67071E-26
3.16639E-02 1.55238E-26
3.24324E-02 1.44279E-26
3.32098E-02 1.34124E-26
3.39961E-02 1.24710E-26
3.47912E-02 1.15979E-26
3.55952E-02 1.07879E-26
3.64081E-02 1.00362E-26
3.72297E-02 9.33829E-27
3.80602E-02 8.69011E-27
3.88995E-02 8.08795E-27
3.97476E-02 7.52835E-27
4.06044E-02 7.00817E-27
4.14700E-02 6.52450E-27
4.23443E-02 6.07467E-27
4.32273E-02 5.65619E-27
4.41190E-02 5.26681E-27
4.50194E-02 4.90442E-27
4.59284E-02 4.56709E-27
4.68461E-02 4.25302E-27
4.87074E-02 3.68820E-27
5.06030E-02 3.19814E-27
5.25328E-02 2.77275E-27
5.44967E-02 2.40335E-27
5.64946E-02 2.08246E-27
5.85262E-02 1.80366E-27
6.05914E-02 1.56140E-27
6.26901E-02 1.35089E-27
6.48222E-02 1.16797E-27
6.69873E-02 1.00906E-27
6.91854E-02 8.71028E-28
7.14163E-02 7.51179E-28
7.36799E-02 6.47158E-28
7.59760E-02 5.56920E-28
7.83043E-02 4.78685E-28
8.06647E-02 4.10903E-28
8.30571E-02 3.52221E-28
8.54812E-02 3.01464E-28
8.79369E-02 2.57602E-28
9.04240E-02 2.19741E-28
9.29422E-02 1.87097E-28
9.54915E-02 1.58988E-28
9.80716E-02 1.34819E-28
1.00682E-01 1.14068E-28
1.03323E-01 9.62829E-29
1.05995E-01 8.10666E-29
1.08696E-01 6.80740E-29
1.11427E-01 5.70038E-29
1.14188E-01 4.75934E-29
1.16978E-01 3.96142E-29
1.19797E-01 3.28671E-29
1.22645E-01 2.71789E-29
1.25522E-01 2.23991E-29
1.28428E-01 1.83970E-29
1.31361E-01 1.50591E-29
1.34323E-01 1.22874E-29
1.37313E-01 9.99672E-30
1.40330E-01 8.11376E-30
1.43375E-01 6.57515E-30
1.46447E-01 5.32637E-30
1.49545E-01 4.32055E-30
1.52671E-01 3.51748E-30
1.55823E-01 2.88280E-30
1.59001E-01 2.38714E-30
1.62205E-01 2.00554E-30
1.65435E-01 1.71681E-30
1.68690E-01 1.50304E-30
1.71970E-01 1.34916E-30
1.75276E-01 1.24253E-30
1.78606E-01 1.17261E-30
1.81961E-01 1.13064E-30
1.85340E-01 1.10944E-30
1.88743E-01 1.10310E-30
1.92169E-01 1.10685E-30
1.95619E-01 1.11687E-30
1.99092E-01 1.13012E-30
2.02589E-01 1.14424E-30
2.06107E-01 1.15744E-30
2.09649E-01 1.16840E-30
2.13212E-01 1.17615E-30
2.16797E-01 1.18007E-30
2.20404E-01 1.17979E-30
2.24032E-01 1.17514E-30
2.27680E-01 1.16610E-30
2.31350E-01 1.15280E-30
2.35040E-01 1.13544E-30
2.38751E-01 1.11432E-30
2.42481E-01 1.08975E-30
2.46231E-01 1.06211E-30
2.50000E-01 1.03177E-30
2.53788E-01 9.99119E-31
2.57595E-01 9.64542E-31
2.61421E-01 9.28409E-31
2.65264E-01 8.91078E-31
2.69126E-01 8.52885E-31
2.73005E-01 8.14145E-31
2.76901E-01 7.75148E-31
2.80814E-01 7.36158E-31
2.84744E-01 6.97415E-31
2.88691E-01 6.59130E-31
2.92653E-01 6.21492E-31
2.96632E-01 5.84664E-31
3.00625E-01 5.48784E-31
3.04634E-01 5.13972E-31
3.08658E-01 4.80323E-31
3.12697E-01 4.47916E-31
3.16749E-01 4.16812E-31
3.20816E-01 3.87053E-31
3.24896E-01 3.58669E-31
3.28990E-01 3.31677E-31
3.33097E-01 3.06081E-31
3.37216E-01 2.81876E-31
3.41348E-01 2.59045E-31
3.45492E-01 2.37568E-31
3.49647E-01 2.17414E-31
3.53814E-01 1.98549E-31
3.57992E-01 1.80932E-31
3.62181E-01 1.64521E-31
3.66381E-01 1.49268E-31
3.70590E-01 1.35125E-31
3.74810E-01 1.22042E-31
3.79039E-01 1.09967E-31
3.83277E-01 9.88483E-32
3.87524E-01 8.86345E-32
3.91780E-01 7.92739E-32
3.96044E-01 7.07156E-32
4.00316E-01 6.29098E-32
4.04596E-01 5.58080E-32
4.08882E-01 4.93629E-32
4.13176E-01 4.35290E-32
4.17476E-01 3.82625E-32
4.21783E-01 3.35214E-32
4.26095E-01 2.92655E-32
4.30413E-01 2.54567E-32
4.34737E-01 2.20587E-32
4.39065E-01 1.90374E-32
4.43398E-01 1.63605E-32
4.47736E-01 1.39976E-32
4.52077E-01 1.19203E-32
4.56422E-01 1.01021E-32
4.60770E-01 8.51817E-33
4.65122E-01 7.14548E-33
4.69476E-01 5.96270E-33
4.73832E-01 4.95006E-33
4.78190E-01 4.08937E-33
4.82550E-01 3.36387E-33
4.86912E-01 2.75818E-33
4.91274E-01 2.25823E-33
4.95637E-01 1.85120E-33
5.00000E-01 1.52539E-33
5.04363E-01 1.27020E-33
5.08726E-01 1.07604E-33
5.13088E-01 9.34272E-34
5.17450E-01 8.37108E-34
5.21810E-01 7.77585E-34
5.26168E-01 7.49485E-34
5.30524E-01 7.47276E-34
5.34878E-01 7.66064E-34
5.39230E-01 8.01530E-34
5.43578E-01 8.49889E-34
5.47923E-01 9.07836E-34
5.52264E-01 9.72506E-34
5.56602E-01 1.04143E-33
5.60935E-01 1.11250E-33
5.65263E-01 1.18393E-33
5.69587E-01 1.25422E-33
5.73905E-01 1.32214E-33
5.78217E-01 1.38668E-33
5.82524E-01 1.44703E-33
5.86824E-01 1.50257E-33
5.91118E-01 1.55283E-33
5.95404E-01 1.59750E-33
5.99684E-01 1.63635E-33
6.03956E-01 1.66929E-33
6.08220E-01 1.69631E-33
6.12476E-01 1.71746E-33
6.16723E-01 1.73286E-33
6.20961E-01 1.74269E-33
6.25190E-01 1.74716E-33
6.29410E-01 1.74652E-33
6.33619E-01 1.74105E-33
6.37819E-01 1.73104E-33
6.42008E-01 1.71680E-33
6.46186E-01 1.69865E-33
6.50353E-01 1.67689E-33
6.54508E-01 1.65187E-33
6.58652E-01 1.62388E-33
6.62784E-01 1.59325E-33
6.66903E-01 1.56026E-33
6.71010E-01 1.52523E-33
6.75104E-01 1.48841E-33
6.79184E-01 1.45010E-33
6.83251E-01 1.41053E-33
6.87303E-01 1.36995E-33
6.91342E-01 1.32859E-33
6.95366E-01 1.28665E-33
6.99375E-01 1.24434E-33
7.03368E-01 1.20184E-33
7.07347E-01 1.15931E-33
7.11309E-01 1.11690E-33
7.15256E-01 1.07476E-33
7.19186E-01 1.03301E-33
7.23099E-01 9.91770E-34
7.26995E-01 9.51136E-34
7.30874E-01 9.11199E-34
7.34736E-01 8.72039E-34
7.38579E-01 8.33723E-34
7.42405E-01 7.96310E-34
7.46212E-01 7.59850E-34
7.50000E-01 7.24383E-34
7.53769E-01 6.89944E-34
7.57519E-01 6.56558E-34
7.61249E-01 6.24245E-34
7.64960E-01 5.93016E-34
7.68650E-01 5.62880E-34
7.72320E-01 5.33839E-34
7.75968E-01 5.05891E-34
7.79596E-01 4.79029E-34
7.83203E-01 4.53244E-34
7.86788E-01 4.28520E-34
7.90351E-01 4.04844E-34
7.93893E-01 3.82195E-34
7.97411E-01 3.60552E-34
8.00908E-01 3.39893E-34
8.04381E-01 3.20192E-34
8.07831E-01 3.01425E-34
8.11257E-01 2.83565E-34
8.14660E-01 2.66582E-34
8.18039E-01 2.50450E-34
8.21394E-01 2.35139E-34
8.24724E-01 2.20621E-34
8.28030E-01 2.06865E-34
8.31310E-01 1.93843E-34
8.34565E-01 1.81527E-34
8.37795E-01 1.69886E-34
8.40999E-01 1.58893E-34
8.44177E-01 1.48520E-34
8.47329E-01 1.38738E-34
8.50455E-01 1.29522E-34
8.53553E-01 1.20846E-34
8.56625E-01 1.12682E-34
8.59670E-01 1.05008E-34
8.62687E-01 9.77973E-35
8.65677E-01 9.10279E-35
8.68639E-01 8.46775E-35
8.71572E-01 7.87233E-35
8.74478E-01 7.31451E-35
8.77355E-01 6.79222E-35
8.80203E-01 6.30354E-35
8.83022E-01 5.84660E-35
8.85812E-01 5.41963E-35
8.88573E-01 5.02090E-35
8.91304E-01 4.64880E-35
8.94005E-01 4.30176E-35
8.96677E-01 3.97830E-35
8.99318E-01 3.67702E-35
9.01928E-01 3.39657E-35
9.04508E-01 3.13566E-35
9.07058E-01 2.89311E-35
9.09576E-01 2.66772E-35
9.12063E-01 2.45845E-35
9.14519E-01 2.26425E-35
9.16943E-01 2.08415E-35
9.19335E-01 1.91722E-35
9.21696E-01 1.76261E-35
9.24024E-01 1.61949E-35
9.26320E-01 1.48707E-35
9.28584E-01 1.36466E-35
9.30815E-01 1.25155E-35
9.33013E-01 1.14711E-35
9.35178E-01 1.05072E-35
9.37310E-01 9.61833E-36
9.39409E-01 8.79909E-36
9.41474E-01 8.04442E-36
9.43505E-01 7.34970E-36
9.45503E-01 6.71069E-36
9.47467E-01 6.12309E-36
9.49397E-01 5.58333E-36
9.51293E-01 5.08760E-36
9.53154E-01 4.63286E-36
9.54981E-01 4.21573E-36
9.56773E-01 3.83355E-36
9.58530E-01 3.48351E-36
9.60252E-01 3.16314E-36
9.61940E-01 2.87007E-36
9.63592E-01 2.60225E-36
9.65209E-01 2.35756E-36
9.66790E-01 2.13419E-36
9.68336E-01 1.93045E-36
9.69846E-01 1.74467E-36
9.71321E-01 1.57541E-36
9.72759E-01 1.42130E-36
9.74162E-01 1.28112E-36
9.75528E-01 1.15365E-36
9.76858E-01 1.03785E-36
9.78152E-01 9.32675E-37
9.79410E-01 8.37228E-37
9.80631E-01 7.50678E-37
9.81815E-01 6.72271E-37
9.82963E-01 6.01240E-37
9.84074E-01 5.36954E-37
9.85148E-01 4.78831E-37
9.86185E-01 4.26269E-37
9.87185E-01 3.78823E-37
9.88148E-01 3.35979E-37
9.89074E-01 2.97407E-37
9.89962E-01 2.62617E-37
9.90814E-01 2.31271E-37
9.91627E-01 2.03104E-37
9.92404E-01 1.77781E-37
9.93143E-01 1.55033E-37
9.93844E-01 1.34654E-37
9.94508E-01 1.16414E-37
9.95134E-01 1.00054E-37
9.95722E-01 8.54904E-38
9.96273E-01 7.24971E-38
9.96786E-01 6.09690E-38
9.97261E-01 5.07461E-38
9.97698E-01 4.17288E-38
9.98097E-01 3.38119E-38
9.98459E-01 2.69012E-38
9.98782E-01 2.09228E-38
9.99067E-01 1.58002E-38
9.99315E-01 1.14870E-38
9.99524E-01 7.91188E-39
9.99695E-01 5.02921E-39
9.99829E-01 2.83893E-39
9.99924E-01 1.28226E-39
9.99981E-01 3.65404E-40
1.00000E+00 8.12359E-41
