 #
 # Subroutine ELSEPA. Elastic scattering of electrons and positrons
 #                    by neutral atoms and positive ions
 #
 # Projectile: electron
 # Kinetic energy = 4.50000E+07 eV = 1.65372E+06 a.u.
 #
 # WARNING: High-energy factorization with free-atom DF screening.
 #          Absorption, polarization and exchange corrections are
 #          switched off.
 #          Phase shifts are calculated for the bare nucleus.
 #          Scattering amplitudes are not evaluated.
 #
 # Element: Ti,  Z =  22,  atomic weight = 4.78670E+01 g/mol
 #
 # Nuclear model: Fermi distribution
 #                Average radius = 3.88504E-13 cm
 #                Skin thickness = 5.46000E-14 cm
 #
 # Number of electrons = 22
 #
 # Total elastic cross section = 1.90045E-18 cm**2 = 6.78664E-02 a0**2
 # 1st transport cross section = 4.75499E-25 cm**2 = 1.69804E-08 a0**2
 # 2nd transport cross section = 1.38884E-24 cm**2 = 4.95964E-08 a0**2
 #
 #
 # Differential cross section:                       MU=(1-COS(THETA))/2
 #
 #  THETA        MU          DCS          DCS        Sherman      error
 #  (deg)                 (cm**2/sr)   (a0**2/sr)    function
 #----------------------------------------------------------------------
0.00000E+00 6.07185E-11
7.61557E-13 6.06655E-11
1.18994E-12 6.06358E-11
1.71346E-12 6.05995E-11
2.33225E-12 6.05567E-11
3.04617E-12 6.05073E-11
3.85530E-12 6.04515E-11
4.75964E-12 6.03891E-11
5.75917E-12 6.03204E-11
6.85391E-12 6.02452E-11
8.04379E-12 6.01636E-11
9.32893E-12 6.00757E-11
1.07092E-11 5.99815E-11
1.21847E-11 5.98811E-11
1.37554E-11 5.97744E-11
1.54213E-11 5.96617E-11
1.71823E-11 5.95428E-11
1.90386E-11 5.94179E-11
2.09900E-11 5.92870E-11
2.30367E-11 5.91502E-11
2.51785E-11 5.90076E-11
2.74156E-11 5.88591E-11
2.97478E-11 5.87050E-11
3.21752E-11 5.85452E-11
3.46979E-11 5.83799E-11
3.73157E-11 5.82090E-11
4.00286E-11 5.80328E-11
4.28368E-11 5.78512E-11
4.57402E-11 5.76644E-11
4.87388E-11 5.74724E-11
5.18325E-11 5.72754E-11
5.50215E-11 5.70733E-11
5.83057E-11 5.68664E-11
6.16850E-11 5.66546E-11
6.51595E-11 5.64382E-11
6.87293E-11 5.62171E-11
7.23943E-11 5.59915E-11
7.61544E-11 5.57614E-11
1.18991E-10 5.32397E-11
1.71347E-10 5.03883E-11
2.33223E-10 4.73123E-11
3.04617E-10 4.41123E-11
3.85531E-10 4.08786E-11
4.75965E-10 3.76876E-11
5.75917E-10 3.45999E-11
6.85389E-10 3.16619E-11
8.04380E-10 2.89069E-11
9.32891E-10 2.63501E-11
1.07092E-09 2.39991E-11
1.21847E-09 2.18532E-11
1.37554E-09 1.99062E-11
1.54213E-09 1.81490E-11
1.71823E-09 1.65689E-11
1.90386E-09 1.51493E-11
2.09900E-09 1.38754E-11
2.30367E-09 1.27329E-11
2.51785E-09 1.17084E-11
2.74156E-09 1.07895E-11
2.97478E-09 9.96381E-12
3.21752E-09 9.22036E-12
3.46978E-09 8.54971E-12
3.73156E-09 7.94354E-12
4.00286E-09 7.39444E-12
4.28368E-09 6.89559E-12
4.57402E-09 6.44118E-12
4.87388E-09 6.02632E-12
5.18326E-09 5.64668E-12
5.50215E-09 5.29846E-12
5.83057E-09 4.97831E-12
6.16850E-09 4.68263E-12
6.51596E-09 4.40937E-12
6.87293E-09 4.15641E-12
7.23942E-09 3.92181E-12
7.61544E-09 3.70382E-12
1.18991E-08 2.15146E-12
1.71347E-08 1.32308E-12
2.33223E-08 8.31778E-13
3.04617E-08 5.42349E-13
3.85531E-08 3.65814E-13
4.75965E-08 2.54853E-13
5.75917E-08 1.83116E-13
6.85389E-08 1.35391E-13
8.04380E-08 1.02705E-13
9.32891E-08 7.96814E-14
1.07092E-07 6.30129E-14
1.21847E-07 5.06454E-14
1.37554E-07 4.12662E-14
1.54213E-07 3.40019E-14
1.71823E-07 2.82772E-14
1.90386E-07 2.37155E-14
2.09900E-07 2.00366E-14
2.30367E-07 1.70387E-14
2.51785E-07 1.45734E-14
2.74156E-07 1.25258E-14
2.97478E-07 1.08150E-14
3.21752E-07 9.38073E-15
3.46978E-07 8.17149E-15
3.73156E-07 7.14671E-15
4.00286E-07 6.27413E-15
4.28368E-07 5.52668E-15
4.57402E-07 4.88481E-15
4.87388E-07 4.33185E-15
5.18325E-07 3.85365E-15
5.50215E-07 3.43862E-15
5.83057E-07 3.07719E-15
6.16850E-07 2.76117E-15
6.51596E-07 2.48430E-15
6.87293E-07 2.24103E-15
7.23942E-07 2.02666E-15
7.61543E-07 1.83720E-15
1.18991E-06 7.70521E-16
1.71347E-06 3.78616E-16
2.33223E-06 2.07705E-16
3.04617E-06 1.23430E-16
3.85531E-06 7.79239E-17
4.75964E-06 5.15870E-17
5.75916E-06 3.54867E-17
6.85388E-06 2.51978E-17
8.04378E-06 1.83764E-17
9.32888E-06 1.37110E-17
1.07092E-05 1.04342E-17
1.21846E-05 8.07880E-18
1.37553E-05 6.35113E-18
1.54212E-05 5.06096E-18
1.71822E-05 4.08198E-18
1.90385E-05 3.32835E-18
2.09899E-05 2.74095E-18
2.30365E-05 2.27743E-18
2.51783E-05 1.90774E-18
2.74153E-05 1.61001E-18
2.97475E-05 1.36811E-18
3.21749E-05 1.16996E-18
3.46974E-05 1.00642E-18
3.73152E-05 8.70492E-19
4.00281E-05 7.56759E-19
4.28362E-05 6.61007E-19
4.57395E-05 5.79927E-19
4.87380E-05 5.10899E-19
5.18317E-05 4.51837E-19
5.50205E-05 4.01064E-19
5.83045E-05 3.57225E-19
6.16838E-05 3.19217E-19
6.51582E-05 2.86134E-19
6.87277E-05 2.57231E-19
7.23925E-05 2.31888E-19
7.61524E-05 2.09587E-19
9.21439E-05 1.43237E-19
1.09658E-04 1.01189E-19
1.28695E-04 7.35036E-20
1.49255E-04 5.46729E-20
1.71338E-04 4.15070E-20
1.94942E-04 3.20772E-20
2.20070E-04 2.51808E-20
2.46720E-04 2.00429E-20
2.74892E-04 1.61516E-20
3.04586E-04 1.31610E-20
3.35803E-04 1.08320E-20
3.68542E-04 8.99640E-21
4.02802E-04 7.53392E-21
4.38585E-04 6.35709E-21
4.75889E-04 5.40149E-21
5.14715E-04 4.61900E-21
5.55063E-04 3.97333E-21
5.96931E-04 3.43671E-21
6.40321E-04 2.98778E-21
6.85233E-04 2.60987E-21
7.31665E-04 2.28991E-21
7.79618E-04 2.01757E-21
8.29092E-04 1.78456E-21
8.80086E-04 1.58428E-21
9.32601E-04 1.41134E-21
9.86636E-04 1.26140E-21
1.04219E-03 1.13087E-21
1.09927E-03 1.01681E-21
1.15786E-03 9.16786E-22
1.21797E-03 8.28779E-22
1.27961E-03 7.51095E-22
1.34276E-03 6.82312E-22
1.40743E-03 6.21235E-22
1.47362E-03 5.66849E-22
1.54133E-03 5.18293E-22
1.61056E-03 4.74831E-22
1.68131E-03 4.35837E-22
1.75357E-03 4.00769E-22
1.82735E-03 3.69163E-22
1.90265E-03 3.40615E-22
1.97947E-03 3.14777E-22
2.05780E-03 2.91346E-22
2.13765E-03 2.70058E-22
2.21902E-03 2.50682E-22
2.30190E-03 2.33014E-22
2.38630E-03 2.16878E-22
2.47222E-03 2.02117E-22
2.55965E-03 1.88591E-22
2.64859E-03 1.76180E-22
2.73905E-03 1.64774E-22
2.83103E-03 1.54278E-22
2.92452E-03 1.44605E-22
3.01952E-03 1.35680E-22
3.11604E-03 1.27433E-22
3.21407E-03 1.19804E-22
3.31362E-03 1.12739E-22
3.41468E-03 1.06187E-22
3.51725E-03 1.00105E-22
3.62133E-03 9.44526E-23
3.72692E-03 8.91941E-23
3.83403E-03 8.42969E-23
3.94265E-03 7.97316E-23
4.05278E-03 7.54716E-23
4.16442E-03 7.14926E-23
4.27757E-03 6.77727E-23
4.39223E-03 6.42919E-23
4.50840E-03 6.10319E-23
4.62608E-03 5.79762E-23
4.74527E-03 5.51095E-23
4.86597E-03 5.24181E-23
4.98817E-03 4.98891E-23
5.11188E-03 4.75109E-23
5.23711E-03 4.52729E-23
5.36383E-03 4.31653E-23
5.49207E-03 4.11790E-23
5.62181E-03 3.93058E-23
5.75306E-03 3.75379E-23
5.88581E-03 3.58685E-23
6.02007E-03 3.42908E-23
6.15583E-03 3.27991E-23
6.29310E-03 3.13876E-23
6.43187E-03 3.00513E-23
6.57214E-03 2.87854E-23
6.71392E-03 2.75856E-23
6.85720E-03 2.64476E-23
7.00198E-03 2.53677E-23
7.14827E-03 2.43425E-23
7.29605E-03 2.33685E-23
7.44534E-03 2.24428E-23
7.59612E-03 2.15625E-23
7.97965E-03 1.95434E-23
8.37255E-03 1.77553E-23
8.77480E-03 1.61671E-23
9.18641E-03 1.47526E-23
9.60736E-03 1.34895E-23
1.00376E-02 1.23587E-23
1.04773E-02 1.13439E-23
1.09262E-02 1.04311E-23
1.13844E-02 9.60826E-24
1.18520E-02 8.86493E-24
1.23288E-02 8.19205E-24
1.28150E-02 7.58176E-24
1.33104E-02 7.02720E-24
1.38150E-02 6.52237E-24
1.43290E-02 6.06200E-24
1.48521E-02 5.64148E-24
1.53845E-02 5.25674E-24
1.59262E-02 4.90419E-24
1.64770E-02 4.58063E-24
1.70371E-02 4.28327E-24
1.76063E-02 4.00959E-24
1.81848E-02 3.75737E-24
1.87724E-02 3.52461E-24
1.93692E-02 3.30955E-24
1.99751E-02 3.11059E-24
2.05901E-02 2.92630E-24
2.12143E-02 2.75542E-24
2.18476E-02 2.59677E-24
2.24900E-02 2.44934E-24
2.31415E-02 2.31218E-24
2.38021E-02 2.18444E-24
2.44717E-02 2.06536E-24
2.51504E-02 1.95424E-24
2.58382E-02 1.85046E-24
2.65349E-02 1.75343E-24
2.72407E-02 1.66265E-24
2.79555E-02 1.57763E-24
2.86793E-02 1.49794E-24
2.94120E-02 1.42318E-24
3.01537E-02 1.35300E-24
3.09043E-02 1.28706E-24
3.16639E-02 1.22506E-24
3.24324E-02 1.16672E-24
3.32098E-02 1.11178E-24
3.39961E-02 1.06002E-24
3.47912E-02 1.01120E-24
3.55952E-02 9.65137E-25
3.64081E-02 9.21642E-25
3.72297E-02 8.80547E-25
3.80602E-02 8.41694E-25
3.88995E-02 8.04939E-25
3.97476E-02 7.70147E-25
4.06044E-02 7.37194E-25
4.14700E-02 7.05965E-25
4.23443E-02 6.76353E-25
4.32273E-02 6.48259E-25
4.41190E-02 6.21591E-25
4.50194E-02 5.96263E-25
4.59284E-02 5.72195E-25
4.68461E-02 5.49314E-25
4.87074E-02 5.06836E-25
5.06030E-02 4.68331E-25
5.25328E-02 4.33361E-25
5.44967E-02 4.01547E-25
5.64946E-02 3.72553E-25
5.85262E-02 3.46086E-25
6.05914E-02 3.21888E-25
6.26901E-02 2.99730E-25
6.48222E-02 2.79411E-25
6.69873E-02 2.60751E-25
6.91854E-02 2.43591E-25
7.14163E-02 2.27790E-25
7.36799E-02 2.13221E-25
7.59760E-02 1.99772E-25
7.83043E-02 1.87342E-25
8.06647E-02 1.75840E-25
8.30571E-02 1.65185E-25
8.54812E-02 1.55304E-25
8.79369E-02 1.46130E-25
9.04240E-02 1.37605E-25
9.29422E-02 1.29675E-25
9.54915E-02 1.22290E-25
9.80716E-02 1.15408E-25
1.00682E-01 1.08988E-25
1.03323E-01 1.02993E-25
1.05995E-01 9.73916E-26
1.08696E-01 9.21525E-26
1.11427E-01 8.72484E-26
1.14188E-01 8.26545E-26
1.16978E-01 7.83477E-26
1.19797E-01 7.43070E-26
1.22645E-01 7.05133E-26
1.25522E-01 6.69489E-26
1.28428E-01 6.35976E-26
1.31361E-01 6.04446E-26
1.34323E-01 5.74762E-26
1.37313E-01 5.46797E-26
1.40330E-01 5.20436E-26
1.43375E-01 4.95572E-26
1.46447E-01 4.72104E-26
1.49545E-01 4.49943E-26
1.52671E-01 4.29004E-26
1.55823E-01 4.09207E-26
1.59001E-01 3.90481E-26
1.62205E-01 3.72758E-26
1.65435E-01 3.55976E-26
1.68690E-01 3.40077E-26
1.71970E-01 3.25007E-26
1.75276E-01 3.10716E-26
1.78606E-01 2.97157E-26
1.81961E-01 2.84286E-26
1.85340E-01 2.72064E-26
1.88743E-01 2.60452E-26
1.92169E-01 2.49415E-26
1.95619E-01 2.38920E-26
1.99092E-01 2.28937E-26
2.02589E-01 2.19436E-26
2.06107E-01 2.10391E-26
2.09649E-01 2.01776E-26
2.13212E-01 1.93569E-26
2.16797E-01 1.85745E-26
2.20404E-01 1.78286E-26
2.24032E-01 1.71171E-26
2.27680E-01 1.64383E-26
2.31350E-01 1.57903E-26
2.35040E-01 1.51716E-26
2.38751E-01 1.45807E-26
2.42481E-01 1.40160E-26
2.46231E-01 1.34764E-26
2.50000E-01 1.29605E-26
2.53788E-01 1.24671E-26
2.57595E-01 1.19951E-26
2.61421E-01 1.15435E-26
2.65264E-01 1.11111E-26
2.69126E-01 1.06972E-26
2.73005E-01 1.03008E-26
2.76901E-01 9.92097E-27
2.80814E-01 9.55703E-27
2.84744E-01 9.20819E-27
2.88691E-01 8.87373E-27
2.92653E-01 8.55298E-27
2.96632E-01 8.24530E-27
3.00625E-01 7.95009E-27
3.04634E-01 7.66677E-27
3.08658E-01 7.39479E-27
3.12697E-01 7.13365E-27
3.16749E-01 6.88285E-27
3.20816E-01 6.64193E-27
3.24896E-01 6.41045E-27
3.28990E-01 6.18798E-27
3.33097E-01 5.97414E-27
3.37216E-01 5.76854E-27
3.41348E-01 5.57083E-27
3.45492E-01 5.38067E-27
3.49647E-01 5.19772E-27
3.53814E-01 5.02168E-27
3.57992E-01 4.85226E-27
3.62181E-01 4.68918E-27
3.66381E-01 4.53217E-27
3.70590E-01 4.38097E-27
3.74810E-01 4.23535E-27
3.79039E-01 4.09507E-27
3.83277E-01 3.95992E-27
3.87524E-01 3.82968E-27
3.91780E-01 3.70416E-27
3.96044E-01 3.58315E-27
4.00316E-01 3.46649E-27
4.04596E-01 3.35400E-27
4.08882E-01 3.24551E-27
4.13176E-01 3.14085E-27
4.17476E-01 3.03989E-27
4.21783E-01 2.94247E-27
4.26095E-01 2.84846E-27
4.30413E-01 2.75773E-27
4.34737E-01 2.67014E-27
4.39065E-01 2.58557E-27
4.43398E-01 2.50392E-27
4.47736E-01 2.42506E-27
4.52077E-01 2.34890E-27
4.56422E-01 2.27533E-27
4.60770E-01 2.20425E-27
4.65122E-01 2.13557E-27
4.69476E-01 2.06919E-27
4.73832E-01 2.00505E-27
4.78190E-01 1.94304E-27
4.82550E-01 1.88309E-27
4.86912E-01 1.82514E-27
4.91274E-01 1.76909E-27
4.95637E-01 1.71490E-27
5.00000E-01 1.66248E-27
5.04363E-01 1.61177E-27
5.08726E-01 1.56271E-27
5.13088E-01 1.51525E-27
5.17450E-01 1.46932E-27
5.21810E-01 1.42488E-27
5.26168E-01 1.38186E-27
5.30524E-01 1.34023E-27
5.34878E-01 1.29992E-27
5.39230E-01 1.26090E-27
5.43578E-01 1.22311E-27
5.47923E-01 1.18652E-27
5.52264E-01 1.15109E-27
5.56602E-01 1.11677E-27
5.60935E-01 1.08353E-27
5.65263E-01 1.05133E-27
5.69587E-01 1.02013E-27
5.73905E-01 9.89904E-28
5.78217E-01 9.60615E-28
5.82524E-01 9.32231E-28
5.86824E-01 9.04722E-28
5.91118E-01 8.78060E-28
5.95404E-01 8.52215E-28
5.99684E-01 8.27161E-28
6.03956E-01 8.02871E-28
6.08220E-01 7.79320E-28
6.12476E-01 7.56484E-28
6.16723E-01 7.34340E-28
6.20961E-01 7.12864E-28
6.25190E-01 6.92035E-28
6.29410E-01 6.71831E-28
6.33619E-01 6.52233E-28
6.37819E-01 6.33222E-28
6.42008E-01 6.14777E-28
6.46186E-01 5.96881E-28
6.50353E-01 5.79516E-28
6.54508E-01 5.62665E-28
6.58652E-01 5.46313E-28
6.62784E-01 5.30442E-28
6.66903E-01 5.15039E-28
6.71010E-01 5.00087E-28
6.75104E-01 4.85573E-28
6.79184E-01 4.71484E-28
6.83251E-01 4.57805E-28
6.87303E-01 4.44524E-28
6.91342E-01 4.31629E-28
6.95366E-01 4.19108E-28
6.99375E-01 4.06949E-28
7.03368E-01 3.95141E-28
7.07347E-01 3.83672E-28
7.11309E-01 3.72534E-28
7.15256E-01 3.61715E-28
7.19186E-01 3.51206E-28
7.23099E-01 3.40997E-28
7.26995E-01 3.31080E-28
7.30874E-01 3.21445E-28
7.34736E-01 3.12084E-28
7.38579E-01 3.02989E-28
7.42405E-01 2.94151E-28
7.46212E-01 2.85563E-28
7.50000E-01 2.77218E-28
7.53769E-01 2.69108E-28
7.57519E-01 2.61226E-28
7.61249E-01 2.53566E-28
7.64960E-01 2.46120E-28
7.68650E-01 2.38883E-28
7.72320E-01 2.31849E-28
7.75968E-01 2.25011E-28
7.79596E-01 2.18363E-28
7.83203E-01 2.11901E-28
7.86788E-01 2.05619E-28
7.90351E-01 1.99511E-28
7.93893E-01 1.93572E-28
7.97411E-01 1.87798E-28
8.00908E-01 1.82184E-28
8.04381E-01 1.76724E-28
8.07831E-01 1.71416E-28
8.11257E-01 1.66254E-28
8.14660E-01 1.61234E-28
8.18039E-01 1.56352E-28
8.21394E-01 1.51604E-28
8.24724E-01 1.46987E-28
8.28030E-01 1.42496E-28
8.31310E-01 1.38129E-28
8.34565E-01 1.33881E-28
8.37795E-01 1.29749E-28
8.40999E-01 1.25731E-28
8.44177E-01 1.21822E-28
8.47329E-01 1.18020E-28
8.50455E-01 1.14322E-28
8.53553E-01 1.10725E-28
8.56625E-01 1.07226E-28
8.59670E-01 1.03822E-28
8.62687E-01 1.00511E-28
8.65677E-01 9.72909E-29
8.68639E-01 9.41582E-29
8.71572E-01 9.11109E-29
8.74478E-01 8.81466E-29
8.77355E-01 8.52632E-29
8.80203E-01 8.24584E-29
8.83022E-01 7.97302E-29
8.85812E-01 7.70764E-29
8.88573E-01 7.44950E-29
8.91304E-01 7.19842E-29
8.94005E-01 6.95421E-29
8.96677E-01 6.71668E-29
8.99318E-01 6.48566E-29
9.01928E-01 6.26097E-29
9.04508E-01 6.04245E-29
9.07058E-01 5.82994E-29
9.09576E-01 5.62329E-29
9.12063E-01 5.42233E-29
9.14519E-01 5.22693E-29
9.16943E-01 5.03694E-29
9.19335E-01 4.85223E-29
9.21696E-01 4.67265E-29
9.24024E-01 4.49808E-29
9.26320E-01 4.32839E-29
9.28584E-01 4.16346E-29
9.30815E-01 4.00318E-29
9.33013E-01 3.84742E-29
9.35178E-01 3.69607E-29
9.37310E-01 3.54903E-29
9.39409E-01 3.40620E-29
9.41474E-01 3.26746E-29
9.43505E-01 3.13272E-29
9.45503E-01 3.00189E-29
9.47467E-01 2.87487E-29
9.49397E-01 2.75158E-29
9.51293E-01 2.63192E-29
9.53154E-01 2.51582E-29
9.54981E-01 2.40318E-29
9.56773E-01 2.29394E-29
9.58530E-01 2.18802E-29
9.60252E-01 2.08533E-29
9.61940E-01 1.98582E-29
9.63592E-01 1.88941E-29
9.65209E-01 1.79603E-29
9.66790E-01 1.70562E-29
9.68336E-01 1.61812E-29
9.69846E-01 1.53346E-29
9.71321E-01 1.45159E-29
9.72759E-01 1.37246E-29
9.74162E-01 1.29600E-29
9.75528E-01 1.22216E-29
9.76858E-01 1.15090E-29
9.78152E-01 1.08217E-29
9.79410E-01 1.01591E-29
9.80631E-01 9.52084E-30
9.81815E-01 8.90649E-30
9.82963E-01 8.31561E-30
9.84074E-01 7.74780E-30
9.85148E-01 7.20269E-30
9.86185E-01 6.67989E-30
9.87185E-01 6.17905E-30
9.88148E-01 5.69983E-30
9.89074E-01 5.24192E-30
9.89962E-01 4.80499E-30
9.90814E-01 4.38876E-30
9.91627E-01 3.99294E-30
9.92404E-01 3.61727E-30
9.93143E-01 3.26149E-30
9.93844E-01 2.92536E-30
9.94508E-01 2.60866E-30
9.95134E-01 2.31118E-30
9.95722E-01 2.03271E-30
9.96273E-01 1.77307E-30
9.96786E-01 1.53208E-30
9.97261E-01 1.30959E-30
9.97698E-01 1.10544E-30
9.98097E-01 9.19490E-31
9.98459E-01 7.51628E-31
9.98782E-01 6.01734E-31
9.99067E-01 4.69711E-31
9.99315E-01 3.55468E-31
9.99524E-01 2.58930E-31
9.99695E-01 1.80032E-31
9.99829E-01 1.18722E-31
9.99924E-01 7.49580E-32
9.99981E-01 4.87116E-32
1.00000E+00 3.99683E-32
