 #
 # Subroutine ELSEPA. Elastic scattering of electrons and positrons
 #                    by neutral atoms and positive ions
 #
 # Projectile: electron
 # Kinetic energy = 1.50000E+07 eV = 5.51240E+05 a.u.
 #
 # WARNING: High-energy factorization with free-atom DF screening.
 #          Absorption, polarization and exchange corrections are
 #          switched off.
 #          Phase shifts are calculated for the bare nucleus.
 #          Scattering amplitudes are not evaluated.
 #
 # Element: Ti,  Z =  22,  atomic weight = 4.78670E+01 g/mol
 #
 # Nuclear model: Fermi distribution
 #                Average radius = 3.88504E-13 cm
 #                Skin thickness = 5.46000E-14 cm
 #
 # Number of electrons = 22
 #
 # Total elastic cross section = 1.90241E-18 cm**2 = 6.79362E-02 a0**2
 # 1st transport cross section = 3.67498E-24 cm**2 = 1.31236E-07 a0**2
 # 2nd transport cross section = 1.05678E-23 cm**2 = 3.77384E-07 a0**2
 #
 #
 # Differential cross section:                       MU=(1-COS(THETA))/2
 #
 #  THETA        MU          DCS          DCS        Sherman      error
 #  (deg)                 (cm**2/sr)   (a0**2/sr)    function
 #----------------------------------------------------------------------
0.00000E+00 7.05291E-12
7.61557E-13 7.05219E-12
1.18994E-12 7.05179E-12
1.71346E-12 7.05130E-12
2.33225E-12 7.05072E-12
3.04617E-12 7.05005E-12
3.85530E-12 7.04929E-12
4.75964E-12 7.04844E-12
5.75917E-12 7.04751E-12
6.85391E-12 7.04648E-12
8.04379E-12 7.04537E-12
9.32893E-12 7.04417E-12
1.07092E-11 7.04288E-12
1.21847E-11 7.04150E-12
1.37554E-11 7.04003E-12
1.54213E-11 7.03848E-12
1.71823E-11 7.03684E-12
1.90386E-11 7.03510E-12
2.09900E-11 7.03328E-12
2.30367E-11 7.03138E-12
2.51785E-11 7.02938E-12
2.74156E-11 7.02730E-12
2.97478E-11 7.02513E-12
3.21752E-11 7.02287E-12
3.46979E-11 7.02053E-12
3.73157E-11 7.01809E-12
4.00286E-11 7.01557E-12
4.28368E-11 7.01297E-12
4.57402E-11 7.01027E-12
4.87388E-11 7.00749E-12
5.18325E-11 7.00463E-12
5.50215E-11 7.00168E-12
5.83057E-11 6.99864E-12
6.16850E-11 6.99551E-12
6.51595E-11 6.99230E-12
6.87293E-11 6.98901E-12
7.23943E-11 6.98562E-12
7.61544E-11 6.98216E-12
1.18991E-10 6.94285E-12
1.71347E-10 6.89526E-12
2.33223E-10 6.83965E-12
3.04617E-10 6.77634E-12
3.85531E-10 6.70565E-12
4.75965E-10 6.62797E-12
5.75917E-10 6.54370E-12
6.85389E-10 6.45326E-12
8.04380E-10 6.35711E-12
9.32891E-10 6.25570E-12
1.07092E-09 6.14952E-12
1.21847E-09 6.03904E-12
1.37554E-09 5.92477E-12
1.54213E-09 5.80719E-12
1.71823E-09 5.68677E-12
1.90386E-09 5.56397E-12
2.09900E-09 5.43923E-12
2.30367E-09 5.31309E-12
2.51785E-09 5.18590E-12
2.74156E-09 5.05802E-12
2.97478E-09 4.92989E-12
3.21752E-09 4.80201E-12
3.46978E-09 4.67450E-12
3.73156E-09 4.54765E-12
4.00286E-09 4.42206E-12
4.28368E-09 4.29780E-12
4.57402E-09 4.17496E-12
4.87388E-09 4.05384E-12
5.18326E-09 3.93506E-12
5.50215E-09 3.81823E-12
5.83057E-09 3.70350E-12
6.16850E-09 3.59144E-12
6.51596E-09 3.48199E-12
6.87293E-09 3.37492E-12
7.23942E-09 3.27037E-12
7.61544E-09 3.16908E-12
1.18991E-08 2.30533E-12
1.71347E-08 1.69260E-12
2.33223E-08 1.26908E-12
3.04617E-08 9.74724E-13
3.85531E-08 7.65680E-13
4.75965E-08 6.12954E-13
5.75917E-08 4.98111E-13
6.85389E-08 4.09446E-13
8.04380E-08 3.39525E-13
9.32891E-08 2.83495E-13
1.07092E-07 2.35622E-13
1.21847E-07 1.98043E-13
1.37554E-07 1.68626E-13
1.54213E-07 1.44144E-13
1.71823E-07 1.22286E-13
1.90386E-07 1.04771E-13
2.09900E-07 9.05887E-14
2.30367E-07 7.80139E-14
2.51785E-07 6.74378E-14
2.74156E-07 5.87110E-14
2.97478E-07 5.13543E-14
3.21752E-07 4.48910E-14
3.46978E-07 3.94637E-14
3.73156E-07 3.48774E-14
4.00286E-07 3.08920E-14
4.28368E-07 2.74538E-14
4.57402E-07 2.45052E-14
4.87388E-07 2.19581E-14
5.18325E-07 1.97221E-14
5.50215E-07 1.77791E-14
5.83057E-07 1.60836E-14
6.16850E-07 1.45897E-14
6.51596E-07 1.32712E-14
6.87293E-07 1.21080E-14
7.23942E-07 1.10778E-14
7.61543E-07 1.01550E-14
1.18991E-06 4.76358E-15
1.71347E-06 2.55825E-15
2.33223E-06 1.48927E-15
3.04617E-06 9.17737E-16
3.85531E-06 5.91906E-16
4.75964E-06 3.96746E-16
5.75916E-06 2.74993E-16
6.85388E-06 1.96301E-16
8.04378E-06 1.43791E-16
9.32888E-06 1.07730E-16
1.07092E-05 8.23137E-17
1.21846E-05 6.40122E-17
1.37553E-05 5.05525E-17
1.54212E-05 4.04590E-17
1.71822E-05 3.27779E-17
1.90385E-05 2.68457E-17
2.09899E-05 2.22016E-17
2.30365E-05 1.85218E-17
2.51783E-05 1.55764E-17
2.74153E-05 1.31950E-17
2.97475E-05 1.12507E-17
3.21749E-05 9.65272E-18
3.46974E-05 8.32934E-18
3.73152E-05 7.22455E-18
4.00281E-05 6.29712E-18
4.28362E-05 5.51404E-18
4.57395E-05 4.84875E-18
4.87380E-05 4.28045E-18
5.18317E-05 3.79302E-18
5.50205E-05 3.37300E-18
5.83045E-05 3.00920E-18
6.16838E-05 2.69316E-18
6.51582E-05 2.41754E-18
6.87277E-05 2.17618E-18
7.23925E-05 1.96414E-18
7.61524E-05 1.77730E-18
9.21439E-05 1.21922E-18
1.09658E-04 8.63710E-19
1.28695E-04 6.28710E-19
1.49255E-04 4.68389E-19
1.71338E-04 3.56035E-19
1.94942E-04 2.75416E-19
2.20070E-04 2.16369E-19
2.46720E-04 1.72326E-19
2.74892E-04 1.38939E-19
3.04586E-04 1.13260E-19
3.35803E-04 9.32492E-20
3.68542E-04 7.74698E-20
4.02802E-04 6.48921E-20
4.38585E-04 5.47674E-20
4.75889E-04 4.65434E-20
5.14715E-04 3.98074E-20
5.55063E-04 3.42478E-20
5.96931E-04 2.96264E-20
6.40321E-04 2.57594E-20
6.85233E-04 2.25038E-20
7.31665E-04 1.97470E-20
7.79618E-04 1.74001E-20
8.29092E-04 1.53920E-20
8.80086E-04 1.36657E-20
9.32601E-04 1.21750E-20
9.86636E-04 1.08824E-20
1.04219E-03 9.75704E-21
1.09927E-03 8.77362E-21
1.15786E-03 7.91119E-21
1.21797E-03 7.15229E-21
1.27961E-03 6.48237E-21
1.34276E-03 5.88918E-21
1.40743E-03 5.36241E-21
1.47362E-03 4.89332E-21
1.54133E-03 4.47450E-21
1.61056E-03 4.09960E-21
1.68131E-03 3.76322E-21
1.75357E-03 3.46069E-21
1.82735E-03 3.18801E-21
1.90265E-03 2.94171E-21
1.97947E-03 2.71878E-21
2.05780E-03 2.51661E-21
2.13765E-03 2.33292E-21
2.21902E-03 2.16571E-21
2.30190E-03 2.01325E-21
2.38630E-03 1.87399E-21
2.47222E-03 1.74659E-21
2.55965E-03 1.62986E-21
2.64859E-03 1.52273E-21
2.73905E-03 1.42428E-21
2.83103E-03 1.33367E-21
2.92452E-03 1.25017E-21
3.01952E-03 1.17312E-21
3.11604E-03 1.10193E-21
3.21407E-03 1.03606E-21
3.31362E-03 9.75056E-22
3.41468E-03 9.18485E-22
3.51725E-03 8.65966E-22
3.62133E-03 8.17156E-22
3.72692E-03 7.71744E-22
3.83403E-03 7.29450E-22
3.94265E-03 6.90021E-22
4.05278E-03 6.53226E-22
4.16442E-03 6.18857E-22
4.27757E-03 5.86724E-22
4.39223E-03 5.56654E-22
4.50840E-03 5.28491E-22
4.62608E-03 5.02091E-22
4.74527E-03 4.77323E-22
4.86597E-03 4.54067E-22
4.98817E-03 4.32214E-22
5.11188E-03 4.11663E-22
5.23711E-03 3.92322E-22
5.36383E-03 3.74106E-22
5.49207E-03 3.56938E-22
5.62181E-03 3.40746E-22
5.75306E-03 3.25464E-22
5.88581E-03 3.11032E-22
6.02007E-03 2.97393E-22
6.15583E-03 2.84495E-22
6.29310E-03 2.72291E-22
6.43187E-03 2.60736E-22
6.57214E-03 2.49789E-22
6.71392E-03 2.39412E-22
6.85720E-03 2.29570E-22
7.00198E-03 2.20229E-22
7.14827E-03 2.11361E-22
7.29605E-03 2.02935E-22
7.44534E-03 1.94926E-22
7.59612E-03 1.87310E-22
7.97965E-03 1.69838E-22
8.37255E-03 1.54363E-22
8.77480E-03 1.40615E-22
9.18641E-03 1.28367E-22
9.60736E-03 1.17429E-22
1.00376E-02 1.07634E-22
1.04773E-02 9.88417E-23
1.09262E-02 9.09317E-23
1.13844E-02 8.37995E-23
1.18520E-02 7.73549E-23
1.23288E-02 7.15198E-23
1.28150E-02 6.62262E-23
1.33104E-02 6.14147E-23
1.38150E-02 5.70334E-23
1.43290E-02 5.30371E-23
1.48521E-02 4.93857E-23
1.53845E-02 4.60441E-23
1.59262E-02 4.29811E-23
1.64770E-02 4.01693E-23
1.70371E-02 3.75843E-23
1.76063E-02 3.52045E-23
1.81848E-02 3.30107E-23
1.87724E-02 3.09855E-23
1.93692E-02 2.91137E-23
1.99751E-02 2.73814E-23
2.05901E-02 2.57765E-23
2.12143E-02 2.42877E-23
2.18476E-02 2.29051E-23
2.24900E-02 2.16198E-23
2.31415E-02 2.04236E-23
2.38021E-02 1.93092E-23
2.44717E-02 1.82699E-23
2.51504E-02 1.72998E-23
2.58382E-02 1.63934E-23
2.65349E-02 1.55457E-23
2.72407E-02 1.47522E-23
2.79555E-02 1.40088E-23
2.86793E-02 1.33117E-23
2.94120E-02 1.26576E-23
3.01537E-02 1.20432E-23
3.09043E-02 1.14657E-23
3.16639E-02 1.09225E-23
3.24324E-02 1.04111E-23
3.32098E-02 9.92933E-24
3.39961E-02 9.47516E-24
3.47912E-02 9.04671E-24
3.55952E-02 8.64224E-24
3.64081E-02 8.26015E-24
3.72297E-02 7.89897E-24
3.80602E-02 7.55734E-24
3.88995E-02 7.23400E-24
3.97476E-02 6.92779E-24
4.06044E-02 6.63762E-24
4.14700E-02 6.36250E-24
4.23443E-02 6.10150E-24
4.32273E-02 5.85375E-24
4.41190E-02 5.61846E-24
4.50194E-02 5.39487E-24
4.59284E-02 5.18230E-24
4.68461E-02 4.98010E-24
4.87074E-02 4.60444E-24
5.06030E-02 4.26353E-24
5.25328E-02 3.95359E-24
5.44967E-02 3.67129E-24
5.64946E-02 3.41372E-24
5.85262E-02 3.17832E-24
6.05914E-02 2.96284E-24
6.26901E-02 2.76529E-24
6.48222E-02 2.58389E-24
6.69873E-02 2.41710E-24
6.91854E-02 2.26352E-24
7.14163E-02 2.12191E-24
7.36799E-02 1.99117E-24
7.59760E-02 1.87031E-24
7.83043E-02 1.75845E-24
8.06647E-02 1.65479E-24
8.30571E-02 1.55862E-24
8.54812E-02 1.46931E-24
8.79369E-02 1.38627E-24
9.04240E-02 1.30898E-24
9.29422E-02 1.23698E-24
9.54915E-02 1.16982E-24
9.80716E-02 1.10713E-24
1.00682E-01 1.04856E-24
1.03323E-01 9.93774E-25
1.05995E-01 9.42494E-25
1.08696E-01 8.94452E-25
1.11427E-01 8.49406E-25
1.14188E-01 8.07133E-25
1.16978E-01 7.67432E-25
1.19797E-01 7.30117E-25
1.22645E-01 6.95018E-25
1.25522E-01 6.61980E-25
1.28428E-01 6.30859E-25
1.31361E-01 6.01523E-25
1.34323E-01 5.73850E-25
1.37313E-01 5.47730E-25
1.40330E-01 5.23059E-25
1.43375E-01 4.99741E-25
1.46447E-01 4.77689E-25
1.49545E-01 4.56821E-25
1.52671E-01 4.37062E-25
1.55823E-01 4.18342E-25
1.59001E-01 4.00596E-25
1.62205E-01 3.83765E-25
1.65435E-01 3.67792E-25
1.68690E-01 3.52626E-25
1.71970E-01 3.38218E-25
1.75276E-01 3.24524E-25
1.78606E-01 3.11501E-25
1.81961E-01 2.99111E-25
1.85340E-01 2.87317E-25
1.88743E-01 2.76085E-25
1.92169E-01 2.65384E-25
1.95619E-01 2.55184E-25
1.99092E-01 2.45457E-25
2.02589E-01 2.36177E-25
2.06107E-01 2.27320E-25
2.09649E-01 2.18863E-25
2.13212E-01 2.10785E-25
2.16797E-01 2.03065E-25
2.20404E-01 1.95685E-25
2.24032E-01 1.88627E-25
2.27680E-01 1.81875E-25
2.31350E-01 1.75413E-25
2.35040E-01 1.69225E-25
2.38751E-01 1.63299E-25
2.42481E-01 1.57622E-25
2.46231E-01 1.52180E-25
2.50000E-01 1.46963E-25
2.53788E-01 1.41959E-25
2.57595E-01 1.37158E-25
2.61421E-01 1.32551E-25
2.65264E-01 1.28128E-25
2.69126E-01 1.23880E-25
2.73005E-01 1.19800E-25
2.76901E-01 1.15879E-25
2.80814E-01 1.12111E-25
2.84744E-01 1.08487E-25
2.88691E-01 1.05003E-25
2.92653E-01 1.01650E-25
2.96632E-01 9.84244E-26
3.00625E-01 9.53194E-26
3.04634E-01 9.23298E-26
3.08658E-01 8.94507E-26
3.12697E-01 8.66773E-26
3.16749E-01 8.40049E-26
3.20816E-01 8.14292E-26
3.24896E-01 7.89462E-26
3.28990E-01 7.65519E-26
3.33097E-01 7.42425E-26
3.37216E-01 7.20146E-26
3.41348E-01 6.98647E-26
3.45492E-01 6.77897E-26
3.49647E-01 6.57865E-26
3.53814E-01 6.38521E-26
3.57992E-01 6.19839E-26
3.62181E-01 6.01790E-26
3.66381E-01 5.84351E-26
3.70590E-01 5.67497E-26
3.74810E-01 5.51204E-26
3.79039E-01 5.35452E-26
3.83277E-01 5.20219E-26
3.87524E-01 5.05485E-26
3.91780E-01 4.91231E-26
3.96044E-01 4.77438E-26
4.00316E-01 4.64089E-26
4.04596E-01 4.51168E-26
4.08882E-01 4.38658E-26
4.13176E-01 4.26544E-26
4.17476E-01 4.14812E-26
4.21783E-01 4.03447E-26
4.26095E-01 3.92435E-26
4.30413E-01 3.81765E-26
4.34737E-01 3.71424E-26
4.39065E-01 3.61399E-26
4.43398E-01 3.51680E-26
4.47736E-01 3.42256E-26
4.52077E-01 3.33116E-26
4.56422E-01 3.24250E-26
4.60770E-01 3.15649E-26
4.65122E-01 3.07304E-26
4.69476E-01 2.99205E-26
4.73832E-01 2.91345E-26
4.78190E-01 2.83715E-26
4.82550E-01 2.76306E-26
4.86912E-01 2.69113E-26
4.91274E-01 2.62127E-26
4.95637E-01 2.55342E-26
5.00000E-01 2.48750E-26
5.04363E-01 2.42346E-26
5.08726E-01 2.36123E-26
5.13088E-01 2.30076E-26
5.17450E-01 2.24198E-26
5.21810E-01 2.18484E-26
5.26168E-01 2.12929E-26
5.30524E-01 2.07528E-26
5.34878E-01 2.02275E-26
5.39230E-01 1.97167E-26
5.43578E-01 1.92198E-26
5.47923E-01 1.87364E-26
5.52264E-01 1.82661E-26
5.56602E-01 1.78085E-26
5.60935E-01 1.73631E-26
5.65263E-01 1.69297E-26
5.69587E-01 1.65078E-26
5.73905E-01 1.60971E-26
5.78217E-01 1.56972E-26
5.82524E-01 1.53078E-26
5.86824E-01 1.49287E-26
5.91118E-01 1.45594E-26
5.95404E-01 1.41998E-26
5.99684E-01 1.38494E-26
6.03956E-01 1.35081E-26
6.08220E-01 1.31755E-26
6.12476E-01 1.28515E-26
6.16723E-01 1.25357E-26
6.20961E-01 1.22279E-26
6.25190E-01 1.19280E-26
6.29410E-01 1.16356E-26
6.33619E-01 1.13505E-26
6.37819E-01 1.10726E-26
6.42008E-01 1.08016E-26
6.46186E-01 1.05374E-26
6.50353E-01 1.02797E-26
6.54508E-01 1.00283E-26
6.58652E-01 9.78318E-27
6.62784E-01 9.54404E-27
6.66903E-01 9.31075E-27
6.71010E-01 9.08315E-27
6.75104E-01 8.86108E-27
6.79184E-01 8.64438E-27
6.83251E-01 8.43291E-27
6.87303E-01 8.22654E-27
6.91342E-01 8.02512E-27
6.95366E-01 7.82851E-27
6.99375E-01 7.63660E-27
7.03368E-01 7.44925E-27
7.07347E-01 7.26634E-27
7.11309E-01 7.08776E-27
7.15256E-01 6.91339E-27
7.19186E-01 6.74312E-27
7.23099E-01 6.57685E-27
7.26995E-01 6.41446E-27
7.30874E-01 6.25587E-27
7.34736E-01 6.10096E-27
7.38579E-01 5.94965E-27
7.42405E-01 5.80185E-27
7.46212E-01 5.65746E-27
7.50000E-01 5.51640E-27
7.53769E-01 5.37859E-27
7.57519E-01 5.24394E-27
7.61249E-01 5.11237E-27
7.64960E-01 4.98381E-27
7.68650E-01 4.85818E-27
7.72320E-01 4.73541E-27
7.75968E-01 4.61543E-27
7.79596E-01 4.49817E-27
7.83203E-01 4.38356E-27
7.86788E-01 4.27154E-27
7.90351E-01 4.16205E-27
7.93893E-01 4.05503E-27
7.97411E-01 3.95041E-27
8.00908E-01 3.84814E-27
8.04381E-01 3.74817E-27
8.07831E-01 3.65043E-27
8.11257E-01 3.55488E-27
8.14660E-01 3.46146E-27
8.18039E-01 3.37013E-27
8.21394E-01 3.28083E-27
8.24724E-01 3.19353E-27
8.28030E-01 3.10816E-27
8.31310E-01 3.02470E-27
8.34565E-01 2.94309E-27
8.37795E-01 2.86329E-27
8.40999E-01 2.78527E-27
8.44177E-01 2.70897E-27
8.47329E-01 2.63437E-27
8.50455E-01 2.56143E-27
8.53553E-01 2.49010E-27
8.56625E-01 2.42036E-27
8.59670E-01 2.35217E-27
8.62687E-01 2.28549E-27
8.65677E-01 2.22029E-27
8.68639E-01 2.15654E-27
8.71572E-01 2.09421E-27
8.74478E-01 2.03326E-27
8.77355E-01 1.97368E-27
8.80203E-01 1.91542E-27
8.83022E-01 1.85847E-27
8.85812E-01 1.80279E-27
8.88573E-01 1.74836E-27
8.91304E-01 1.69515E-27
8.94005E-01 1.64314E-27
8.96677E-01 1.59230E-27
8.99318E-01 1.54261E-27
9.01928E-01 1.49405E-27
9.04508E-01 1.44659E-27
9.07058E-01 1.40021E-27
9.09576E-01 1.35490E-27
9.12063E-01 1.31062E-27
9.14519E-01 1.26736E-27
9.16943E-01 1.22510E-27
9.19335E-01 1.18383E-27
9.21696E-01 1.14351E-27
9.24024E-01 1.10414E-27
9.26320E-01 1.06570E-27
9.28584E-01 1.02816E-27
9.30815E-01 9.91523E-28
9.33013E-01 9.55758E-28
9.35178E-01 9.20855E-28
9.37310E-01 8.86797E-28
9.39409E-01 8.53569E-28
9.41474E-01 8.21158E-28
9.43505E-01 7.89549E-28
9.45503E-01 7.58729E-28
9.47467E-01 7.28684E-28
9.49397E-01 6.99401E-28
9.51293E-01 6.70868E-28
9.53154E-01 6.43073E-28
9.54981E-01 6.16004E-28
9.56773E-01 5.89648E-28
9.58530E-01 5.63996E-28
9.60252E-01 5.39036E-28
9.61940E-01 5.14758E-28
9.63592E-01 4.91152E-28
9.65209E-01 4.68207E-28
9.66790E-01 4.45914E-28
9.68336E-01 4.24264E-28
9.69846E-01 4.03248E-28
9.71321E-01 3.82857E-28
9.72759E-01 3.63083E-28
9.74162E-01 3.43917E-28
9.75528E-01 3.25352E-28
9.76858E-01 3.07380E-28
9.78152E-01 2.89994E-28
9.79410E-01 2.73186E-28
9.80631E-01 2.56950E-28
9.81815E-01 2.41279E-28
9.82963E-01 2.26167E-28
9.84074E-01 2.11608E-28
9.85148E-01 1.97595E-28
9.86185E-01 1.84123E-28
9.87185E-01 1.71186E-28
9.88148E-01 1.58780E-28
9.89074E-01 1.46900E-28
9.89962E-01 1.35540E-28
9.90814E-01 1.24696E-28
9.91627E-01 1.14364E-28
9.92404E-01 1.04540E-28
9.93143E-01 9.52192E-29
9.93844E-01 8.63984E-29
9.94508E-01 7.80741E-29
9.95134E-01 7.02430E-29
9.95722E-01 6.29018E-29
9.96273E-01 5.60478E-29
9.96786E-01 4.96782E-29
9.97261E-01 4.37905E-29
9.97698E-01 3.83823E-29
9.98097E-01 3.34515E-29
9.98459E-01 2.89961E-29
9.98782E-01 2.50145E-29
9.99067E-01 2.15049E-29
9.99315E-01 1.84661E-29
9.99524E-01 1.58969E-29
9.99695E-01 1.37961E-29
9.99829E-01 1.21631E-29
9.99924E-01 1.09970E-29
9.99981E-01 1.02976E-29
1.00000E+00 1.00647E-29
