 #
 # Subroutine ELSEPA. Elastic scattering of electrons and positrons
 #                    by neutral atoms and positive ions
 #
 # Projectile: positron
 # Kinetic energy = 2.50000E+07 eV = 9.18733E+05 a.u.
 #
 # WARNING: High-energy factorization with free-atom DF screening.
 #          Absorption, polarization and exchange corrections are
 #          switched off.
 #          Phase shifts are calculated for the bare nucleus.
 #          Scattering amplitudes are not evaluated.
 #
 # Element: Ba,  Z =  56,  atomic weight = 1.37327E+02 g/mol
 #
 # Nuclear model: Fermi distribution
 #                Average radius = 5.52038E-13 cm
 #                Skin thickness = 5.46000E-14 cm
 #
 # Number of electrons = 56
 #
 # Total elastic cross section = 7.24940E-18 cm**2 = 2.58881E-01 a0**2
 # 1st transport cross section = 7.99719E-24 cm**2 = 2.85585E-07 a0**2
 # 2nd transport cross section = 2.33107E-23 cm**2 = 8.32440E-07 a0**2
 #
 #
 # Differential cross section:                       MU=(1-COS(THETA))/2
 #
 #  THETA        MU          DCS          DCS        Sherman      error
 #  (deg)                 (cm**2/sr)   (a0**2/sr)    function
 #----------------------------------------------------------------------
0.00000E+00 8.07337E-11
7.61557E-13 8.07007E-11
1.18994E-12 8.06823E-11
1.71346E-12 8.06598E-11
2.33225E-12 8.06332E-11
3.04617E-12 8.06026E-11
3.85530E-12 8.05679E-11
4.75964E-12 8.05292E-11
5.75917E-12 8.04864E-11
6.85391E-12 8.04396E-11
8.04379E-12 8.03888E-11
9.32893E-12 8.03341E-11
1.07092E-11 8.02753E-11
1.21847E-11 8.02125E-11
1.37554E-11 8.01458E-11
1.54213E-11 8.00752E-11
1.71823E-11 8.00006E-11
1.90386E-11 7.99221E-11
2.09900E-11 7.98398E-11
2.30367E-11 7.97535E-11
2.51785E-11 7.96634E-11
2.74156E-11 7.95695E-11
2.97478E-11 7.94718E-11
3.21752E-11 7.93703E-11
3.46979E-11 7.92650E-11
3.73157E-11 7.91560E-11
4.00286E-11 7.90433E-11
4.28368E-11 7.89269E-11
4.57402E-11 7.88069E-11
4.87388E-11 7.86832E-11
5.18325E-11 7.85560E-11
5.50215E-11 7.84251E-11
5.83057E-11 7.82907E-11
6.16850E-11 7.81528E-11
6.51595E-11 7.80114E-11
6.87293E-11 7.78666E-11
7.23943E-11 7.77183E-11
7.61544E-11 7.75667E-11
1.18991E-10 7.58723E-11
1.71347E-10 7.38806E-11
2.33223E-10 7.16335E-11
3.04617E-10 6.91750E-11
3.85531E-10 6.65665E-11
4.75965E-10 6.38312E-11
5.75917E-10 6.09963E-11
6.85389E-10 5.81554E-11
8.04380E-10 5.52669E-11
9.32891E-10 5.24654E-11
1.07092E-09 4.96575E-11
1.21847E-09 4.69935E-11
1.37554E-09 4.43693E-11
1.54213E-09 4.18980E-11
1.71823E-09 3.95107E-11
1.90386E-09 3.72685E-11
2.09900E-09 3.51402E-11
2.30367E-09 3.31397E-11
2.51785E-09 3.12695E-11
2.74156E-09 2.95064E-11
2.97478E-09 2.78785E-11
3.21752E-09 2.63375E-11
3.46978E-09 2.49282E-11
3.73156E-09 2.35881E-11
4.00286E-09 2.23704E-11
4.28368E-09 2.12134E-11
4.57402E-09 2.01548E-11
4.87388E-09 1.91557E-11
5.18326E-09 1.82329E-11
5.50215E-09 1.73671E-11
5.83057E-09 1.65606E-11
6.16850E-09 1.58066E-11
6.51596E-09 1.50994E-11
6.87293E-09 1.44387E-11
7.23942E-09 1.38160E-11
7.61544E-09 1.32333E-11
1.18991E-08 8.89896E-12
1.71347E-08 6.24121E-12
2.33223E-08 4.48796E-12
3.04617E-08 3.29436E-12
3.85531E-08 2.45213E-12
4.75965E-08 1.86808E-12
5.75917E-08 1.46178E-12
6.85389E-08 1.15261E-12
8.04380E-08 9.30471E-13
9.32891E-08 7.52994E-13
1.07092E-07 6.21548E-13
1.21847E-07 5.12920E-13
1.37554E-07 4.29470E-13
1.54213E-07 3.60205E-13
1.71823E-07 3.04935E-13
1.90386E-07 2.59139E-13
2.09900E-07 2.21548E-13
2.30367E-07 1.90431E-13
2.51785E-07 1.64390E-13
2.74156E-07 1.42771E-13
2.97478E-07 1.24439E-13
3.21752E-07 1.09121E-13
3.46978E-07 9.60020E-14
3.73156E-07 8.49444E-14
4.00286E-07 7.53874E-14
4.28368E-07 6.72445E-14
4.57402E-07 6.01660E-14
4.87388E-07 5.40603E-14
5.18325E-07 4.87190E-14
5.50215E-07 4.40592E-14
5.83057E-07 3.99564E-14
6.16850E-07 3.63386E-14
6.51596E-07 3.31354E-14
6.87293E-07 3.02816E-14
7.23942E-07 2.77438E-14
7.61543E-07 2.54601E-14
1.18991E-06 1.18053E-14
1.71347E-06 6.14414E-15
2.33223E-06 3.47504E-15
3.04617E-06 2.10729E-15
3.85531E-06 1.35101E-15
4.75964E-06 9.07411E-16
5.75916E-06 6.32518E-16
6.85388E-06 4.54582E-16
8.04378E-06 3.35019E-16
9.32888E-06 2.52278E-16
1.07092E-05 1.93542E-16
1.21846E-05 1.50913E-16
1.37553E-05 1.19369E-16
1.54212E-05 9.56290E-17
1.71822E-05 7.74852E-17
1.90385E-05 6.34114E-17
2.09899E-05 5.24225E-17
2.30365E-05 4.37044E-17
2.51783E-05 3.67155E-17
2.74153E-05 3.10618E-17
2.97475E-05 2.64511E-17
3.21749E-05 2.26633E-17
3.46974E-05 1.95307E-17
3.73152E-05 1.69226E-17
4.00281E-05 1.47369E-17
4.28362E-05 1.28934E-17
4.57395E-05 1.13293E-17
4.87380E-05 9.99481E-18
5.18317E-05 8.85068E-18
5.50205E-05 7.86533E-18
5.83045E-05 7.01325E-18
6.16838E-05 6.27357E-18
6.51582E-05 5.62906E-18
6.87277E-05 5.06537E-18
7.23925E-05 4.57064E-18
7.61524E-05 4.13498E-18
9.21439E-05 2.83471E-18
1.09658E-04 2.00745E-18
1.28695E-04 1.46114E-18
1.49255E-04 1.08846E-18
1.71338E-04 8.27329E-19
1.94942E-04 6.39923E-19
2.20070E-04 5.02647E-19
2.46720E-04 4.00243E-19
2.74892E-04 3.22598E-19
3.04586E-04 2.62880E-19
3.35803E-04 2.16338E-19
3.68542E-04 1.79640E-19
4.02802E-04 1.50391E-19
4.38585E-04 1.26850E-19
4.75889E-04 1.07732E-19
5.14715E-04 9.20771E-20
5.55063E-04 7.91604E-20
5.96931E-04 6.84268E-20
6.40321E-04 5.94489E-20
6.85233E-04 5.18934E-20
7.31665E-04 4.54984E-20
7.79618E-04 4.00569E-20
8.29092E-04 3.54034E-20
8.80086E-04 3.14050E-20
9.32601E-04 2.79542E-20
9.86636E-04 2.49635E-20
1.04219E-03 2.23614E-20
1.09927E-03 2.00889E-20
1.15786E-03 1.80972E-20
1.21797E-03 1.63457E-20
1.27961E-03 1.48005E-20
1.34276E-03 1.34332E-20
1.40743E-03 1.22198E-20
1.47362E-03 1.11400E-20
1.54133E-03 1.01766E-20
1.61056E-03 9.31480E-21
1.68131E-03 8.54208E-21
1.75357E-03 7.84761E-21
1.82735E-03 7.22211E-21
1.90265E-03 6.65752E-21
1.97947E-03 6.14687E-21
2.05780E-03 5.68411E-21
2.13765E-03 5.26396E-21
2.21902E-03 4.88179E-21
2.30190E-03 4.53356E-21
2.38630E-03 4.21574E-21
2.47222E-03 3.92520E-21
2.55965E-03 3.65917E-21
2.64859E-03 3.41523E-21
2.73905E-03 3.19121E-21
2.83103E-03 2.98520E-21
2.92452E-03 2.79548E-21
3.01952E-03 2.62054E-21
3.11604E-03 2.45902E-21
3.21407E-03 2.30972E-21
3.31362E-03 2.17153E-21
3.41468E-03 2.04348E-21
3.51725E-03 1.92470E-21
3.62133E-03 1.81438E-21
3.72692E-03 1.71182E-21
3.83403E-03 1.61638E-21
3.94265E-03 1.52748E-21
4.05278E-03 1.44457E-21
4.16442E-03 1.36719E-21
4.27757E-03 1.29490E-21
4.39223E-03 1.22731E-21
4.50840E-03 1.16404E-21
4.62608E-03 1.10479E-21
4.74527E-03 1.04924E-21
4.86597E-03 9.97118E-22
4.98817E-03 9.48181E-22
5.11188E-03 9.02195E-22
5.23711E-03 8.58949E-22
5.36383E-03 8.18250E-22
5.49207E-03 7.79922E-22
5.62181E-03 7.43801E-22
5.75306E-03 7.09737E-22
5.88581E-03 6.77591E-22
6.02007E-03 6.47235E-22
6.15583E-03 6.18550E-22
6.29310E-03 5.91429E-22
6.43187E-03 5.65769E-22
6.57214E-03 5.41479E-22
6.71392E-03 5.18472E-22
6.85720E-03 4.96667E-22
7.00198E-03 4.75991E-22
7.14827E-03 4.56372E-22
7.29605E-03 4.37748E-22
7.44534E-03 4.20059E-22
7.59612E-03 4.03249E-22
7.97965E-03 3.64741E-22
8.37255E-03 3.30696E-22
8.77480E-03 3.00509E-22
9.18641E-03 2.73671E-22
9.60736E-03 2.49743E-22
1.00376E-02 2.28359E-22
1.04773E-02 2.09201E-22
1.09262E-02 1.91997E-22
1.13844E-02 1.76515E-22
1.18520E-02 1.62551E-22
1.23288E-02 1.49932E-22
1.28150E-02 1.38505E-22
1.33104E-02 1.28139E-22
1.38150E-02 1.18717E-22
1.43290E-02 1.10139E-22
1.48521E-02 1.02316E-22
1.53845E-02 9.51704E-23
1.59262E-02 8.86320E-23
1.64770E-02 8.26419E-23
1.70371E-02 7.71446E-23
1.76063E-02 7.20932E-23
1.81848E-02 6.74451E-23
1.87724E-02 6.31622E-23
1.93692E-02 5.92110E-23
1.99751E-02 5.55611E-23
2.05901E-02 5.21856E-23
2.12143E-02 4.90602E-23
2.18476E-02 4.61630E-23
2.24900E-02 4.34746E-23
2.31415E-02 4.09770E-23
2.38021E-02 3.86545E-23
2.44717E-02 3.64925E-23
2.51504E-02 3.44780E-23
2.58382E-02 3.25992E-23
2.65349E-02 3.08453E-23
2.72407E-02 2.92064E-23
2.79555E-02 2.76738E-23
2.86793E-02 2.62393E-23
2.94120E-02 2.48955E-23
3.01537E-02 2.36356E-23
3.09043E-02 2.24535E-23
3.16639E-02 2.13435E-23
3.24324E-02 2.03005E-23
3.32098E-02 1.93196E-23
3.39961E-02 1.83965E-23
3.47912E-02 1.75271E-23
3.55952E-02 1.67079E-23
3.64081E-02 1.59353E-23
3.72297E-02 1.52063E-23
3.80602E-02 1.45179E-23
3.88995E-02 1.38676E-23
3.97476E-02 1.32527E-23
4.06044E-02 1.26711E-23
4.14700E-02 1.21206E-23
4.23443E-02 1.15993E-23
4.32273E-02 1.11053E-23
4.41190E-02 1.06369E-23
4.50194E-02 1.01926E-23
4.59284E-02 9.77091E-24
4.68461E-02 9.37048E-24
4.87074E-02 8.62842E-24
5.06030E-02 7.95731E-24
5.25328E-02 7.34922E-24
5.44967E-02 6.79723E-24
5.64946E-02 6.29529E-24
5.85262E-02 5.83810E-24
6.05914E-02 5.42098E-24
6.26901E-02 5.03982E-24
6.48222E-02 4.69101E-24
6.69873E-02 4.37133E-24
6.91854E-02 4.07793E-24
7.14163E-02 3.80829E-24
7.36799E-02 3.56015E-24
7.59760E-02 3.33151E-24
7.83043E-02 3.12057E-24
8.06647E-02 2.92574E-24
8.30571E-02 2.74556E-24
8.54812E-02 2.57876E-24
8.79369E-02 2.42416E-24
9.04240E-02 2.28072E-24
9.29422E-02 2.14751E-24
9.54915E-02 2.02366E-24
9.80716E-02 1.90841E-24
1.00682E-01 1.80106E-24
1.03323E-01 1.70097E-24
1.05995E-01 1.60756E-24
1.08696E-01 1.52033E-24
1.11427E-01 1.43878E-24
1.14188E-01 1.36249E-24
1.16978E-01 1.29106E-24
1.19797E-01 1.22412E-24
1.22645E-01 1.16135E-24
1.25522E-01 1.10244E-24
1.28428E-01 1.04712E-24
1.31361E-01 9.95123E-25
1.34323E-01 9.46221E-25
1.37313E-01 9.00199E-25
1.40330E-01 8.56857E-25
1.43375E-01 8.16014E-25
1.46447E-01 7.77500E-25
1.49545E-01 7.41161E-25
1.52671E-01 7.06852E-25
1.55823E-01 6.74441E-25
1.59001E-01 6.43806E-25
1.62205E-01 6.14833E-25
1.65435E-01 5.87415E-25
1.68690E-01 5.61457E-25
1.71970E-01 5.36866E-25
1.75276E-01 5.13559E-25
1.78606E-01 4.91457E-25
1.81961E-01 4.70488E-25
1.85340E-01 4.50583E-25
1.88743E-01 4.31681E-25
1.92169E-01 4.13721E-25
1.95619E-01 3.96649E-25
1.99092E-01 3.80413E-25
2.02589E-01 3.64967E-25
2.06107E-01 3.50264E-25
2.09649E-01 3.36264E-25
2.13212E-01 3.22927E-25
2.16797E-01 3.10216E-25
2.20404E-01 2.98098E-25
2.24032E-01 2.86539E-25
2.27680E-01 2.75510E-25
2.31350E-01 2.64983E-25
2.35040E-01 2.54931E-25
2.38751E-01 2.45328E-25
2.42481E-01 2.36153E-25
2.46231E-01 2.27381E-25
2.50000E-01 2.18993E-25
2.53788E-01 2.10970E-25
2.57595E-01 2.03292E-25
2.61421E-01 1.95942E-25
2.65264E-01 1.88905E-25
2.69126E-01 1.82164E-25
2.73005E-01 1.75705E-25
2.76901E-01 1.69515E-25
2.80814E-01 1.63580E-25
2.84744E-01 1.57888E-25
2.88691E-01 1.52428E-25
2.92653E-01 1.47188E-25
2.96632E-01 1.42159E-25
3.00625E-01 1.37330E-25
3.04634E-01 1.32692E-25
3.08658E-01 1.28237E-25
3.12697E-01 1.23955E-25
3.16749E-01 1.19840E-25
3.20816E-01 1.15884E-25
3.24896E-01 1.12079E-25
3.28990E-01 1.08419E-25
3.33097E-01 1.04897E-25
3.37216E-01 1.01508E-25
3.41348E-01 9.82457E-26
3.45492E-01 9.51043E-26
3.49647E-01 9.20789E-26
3.53814E-01 8.91644E-26
3.57992E-01 8.63562E-26
3.62181E-01 8.36498E-26
3.66381E-01 8.10409E-26
3.70590E-01 7.85254E-26
3.74810E-01 7.60995E-26
3.79039E-01 7.37596E-26
3.83277E-01 7.15019E-26
3.87524E-01 6.93234E-26
3.91780E-01 6.72206E-26
3.96044E-01 6.51906E-26
4.00316E-01 6.32305E-26
4.04596E-01 6.13375E-26
4.08882E-01 5.95090E-26
4.13176E-01 5.77423E-26
4.17476E-01 5.60352E-26
4.21783E-01 5.43852E-26
4.26095E-01 5.27903E-26
4.30413E-01 5.12482E-26
4.34737E-01 4.97569E-26
4.39065E-01 4.83146E-26
4.43398E-01 4.69194E-26
4.47736E-01 4.55694E-26
4.52077E-01 4.42631E-26
4.56422E-01 4.29988E-26
4.60770E-01 4.17749E-26
4.65122E-01 4.05900E-26
4.69476E-01 3.94426E-26
4.73832E-01 3.83313E-26
4.78190E-01 3.72550E-26
4.82550E-01 3.62122E-26
4.86912E-01 3.52018E-26
4.91274E-01 3.42227E-26
4.95637E-01 3.32737E-26
5.00000E-01 3.23538E-26
5.04363E-01 3.14620E-26
5.08726E-01 3.05972E-26
5.13088E-01 2.97586E-26
5.17450E-01 2.89451E-26
5.21810E-01 2.81561E-26
5.26168E-01 2.73906E-26
5.30524E-01 2.66478E-26
5.34878E-01 2.59270E-26
5.39230E-01 2.52274E-26
5.43578E-01 2.45482E-26
5.47923E-01 2.38890E-26
5.52264E-01 2.32488E-26
5.56602E-01 2.26272E-26
5.60935E-01 2.20235E-26
5.65263E-01 2.14372E-26
5.69587E-01 2.08675E-26
5.73905E-01 2.03142E-26
5.78217E-01 1.97765E-26
5.82524E-01 1.92539E-26
5.86824E-01 1.87461E-26
5.91118E-01 1.82525E-26
5.95404E-01 1.77727E-26
5.99684E-01 1.73062E-26
6.03956E-01 1.68527E-26
6.08220E-01 1.64117E-26
6.12476E-01 1.59827E-26
6.16723E-01 1.55656E-26
6.20961E-01 1.51598E-26
6.25190E-01 1.47650E-26
6.29410E-01 1.43810E-26
6.33619E-01 1.40073E-26
6.37819E-01 1.36437E-26
6.42008E-01 1.32898E-26
6.46186E-01 1.29453E-26
6.50353E-01 1.26100E-26
6.54508E-01 1.22837E-26
6.58652E-01 1.19659E-26
6.62784E-01 1.16565E-26
6.66903E-01 1.13553E-26
6.71010E-01 1.10619E-26
6.75104E-01 1.07762E-26
6.79184E-01 1.04979E-26
6.83251E-01 1.02268E-26
6.87303E-01 9.96278E-27
6.91342E-01 9.70552E-27
6.95366E-01 9.45486E-27
6.99375E-01 9.21063E-27
7.03368E-01 8.97263E-27
7.07347E-01 8.74069E-27
7.11309E-01 8.51464E-27
7.15256E-01 8.29431E-27
7.19186E-01 8.07954E-27
7.23099E-01 7.87017E-27
7.26995E-01 7.66606E-27
7.30874E-01 7.46706E-27
7.34736E-01 7.27303E-27
7.38579E-01 7.08383E-27
7.42405E-01 6.89933E-27
7.46212E-01 6.71940E-27
7.50000E-01 6.54392E-27
7.53769E-01 6.37276E-27
7.57519E-01 6.20581E-27
7.61249E-01 6.04296E-27
7.64960E-01 5.88410E-27
7.68650E-01 5.72911E-27
7.72320E-01 5.57791E-27
7.75968E-01 5.43038E-27
7.79596E-01 5.28643E-27
7.83203E-01 5.14597E-27
7.86788E-01 5.00890E-27
7.90351E-01 4.87514E-27
7.93893E-01 4.74460E-27
7.97411E-01 4.61720E-27
8.00908E-01 4.49286E-27
8.04381E-01 4.37150E-27
8.07831E-01 4.25304E-27
8.11257E-01 4.13741E-27
8.14660E-01 4.02454E-27
8.18039E-01 3.91436E-27
8.21394E-01 3.80679E-27
8.24724E-01 3.70179E-27
8.28030E-01 3.59927E-27
8.31310E-01 3.49919E-27
8.34565E-01 3.40147E-27
8.37795E-01 3.30607E-27
8.40999E-01 3.21292E-27
8.44177E-01 3.12197E-27
8.47329E-01 3.03318E-27
8.50455E-01 2.94647E-27
8.53553E-01 2.86181E-27
8.56625E-01 2.77915E-27
8.59670E-01 2.69844E-27
8.62687E-01 2.61963E-27
8.65677E-01 2.54267E-27
8.68639E-01 2.46753E-27
8.71572E-01 2.39417E-27
8.74478E-01 2.32253E-27
8.77355E-01 2.25259E-27
8.80203E-01 2.18429E-27
8.83022E-01 2.11761E-27
8.85812E-01 2.05251E-27
8.88573E-01 1.98895E-27
8.91304E-01 1.92690E-27
8.94005E-01 1.86632E-27
8.96677E-01 1.80718E-27
8.99318E-01 1.74945E-27
9.01928E-01 1.69310E-27
9.04508E-01 1.63810E-27
9.07058E-01 1.58442E-27
9.09576E-01 1.53202E-27
9.12063E-01 1.48089E-27
9.14519E-01 1.43100E-27
9.16943E-01 1.38231E-27
9.19335E-01 1.33481E-27
9.21696E-01 1.28847E-27
9.24024E-01 1.24327E-27
9.26320E-01 1.19918E-27
9.28584E-01 1.15618E-27
9.30815E-01 1.11424E-27
9.33013E-01 1.07336E-27
9.35178E-01 1.03350E-27
9.37310E-01 9.94644E-28
9.39409E-01 9.56777E-28
9.41474E-01 9.19878E-28
9.43505E-01 8.83928E-28
9.45503E-01 8.48908E-28
9.47467E-01 8.14803E-28
9.49397E-01 7.81595E-28
9.51293E-01 7.49267E-28
9.53154E-01 7.17803E-28
9.54981E-01 6.87189E-28
9.56773E-01 6.57409E-28
9.58530E-01 6.28449E-28
9.60252E-01 6.00295E-28
9.61940E-01 5.72933E-28
9.63592E-01 5.46349E-28
9.65209E-01 5.20532E-28
9.66790E-01 4.95468E-28
9.68336E-01 4.71146E-28
9.69846E-01 4.47554E-28
9.71321E-01 4.24680E-28
9.72759E-01 4.02515E-28
9.74162E-01 3.81047E-28
9.75528E-01 3.60266E-28
9.76858E-01 3.40162E-28
9.78152E-01 3.20726E-28
9.79410E-01 3.01949E-28
9.80631E-01 2.83822E-28
9.81815E-01 2.66337E-28
9.82963E-01 2.49485E-28
9.84074E-01 2.33258E-28
9.85148E-01 2.17649E-28
9.86185E-01 2.02651E-28
9.87185E-01 1.88256E-28
9.88148E-01 1.74459E-28
9.89074E-01 1.61252E-28
9.89962E-01 1.48630E-28
9.90814E-01 1.36586E-28
9.91627E-01 1.25116E-28
9.92404E-01 1.14214E-28
9.93143E-01 1.03874E-28
9.93844E-01 9.40933E-29
9.94508E-01 8.48658E-29
9.95134E-01 7.61878E-29
9.95722E-01 6.80554E-29
9.96273E-01 6.04647E-29
9.96786E-01 5.34125E-29
9.97261E-01 4.68954E-29
9.97698E-01 4.09105E-29
9.98097E-01 3.54551E-29
9.98459E-01 3.05267E-29
9.98782E-01 2.61231E-29
9.99067E-01 2.22422E-29
9.99315E-01 1.88823E-29
9.99524E-01 1.60419E-29
9.99695E-01 1.37197E-29
9.99829E-01 1.19146E-29
9.99924E-01 1.06258E-29
9.99981E-01 9.85279E-30
1.00000E+00 9.59516E-30
