 #
 # Subroutine ELSEPA. Elastic scattering of electrons and positrons
 #                    by neutral atoms and positive ions
 #
 # Projectile: positron
 # Kinetic energy = 4.50000E+06 eV = 1.65372E+05 a.u.
 #
 # WARNING: High-energy factorization with free-atom DF screening.
 #          Absorption, polarization and exchange corrections are
 #          switched off.
 #          Phase shifts are calculated for the bare nucleus.
 #          Scattering amplitudes are not evaluated.
 #
 # Element: Ba,  Z =  56,  atomic weight = 1.37327E+02 g/mol
 #
 # Nuclear model: Fermi distribution
 #                Average radius = 5.52038E-13 cm
 #                Skin thickness = 5.46000E-14 cm
 #
 # Number of electrons = 56
 #
 # Total elastic cross section = 7.31524E-18 cm**2 = 2.61232E-01 a0**2
 # 1st transport cross section = 1.58985E-22 cm**2 = 5.67744E-06 a0**2
 # 2nd transport cross section = 4.57334E-22 cm**2 = 1.63317E-05 a0**2
 #
 #
 # Differential cross section:                       MU=(1-COS(THETA))/2
 #
 #  THETA        MU          DCS          DCS        Sherman      error
 #  (deg)                 (cm**2/sr)   (a0**2/sr)    function
 #----------------------------------------------------------------------
0.00000E+00 3.11493E-12
7.61557E-13 3.11488E-12
1.18994E-12 3.11485E-12
1.71346E-12 3.11482E-12
2.33225E-12 3.11478E-12
3.04617E-12 3.11473E-12
3.85530E-12 3.11468E-12
4.75964E-12 3.11462E-12
5.75917E-12 3.11455E-12
6.85391E-12 3.11448E-12
8.04379E-12 3.11441E-12
9.32893E-12 3.11433E-12
1.07092E-11 3.11424E-12
1.21847E-11 3.11414E-12
1.37554E-11 3.11404E-12
1.54213E-11 3.11394E-12
1.71823E-11 3.11383E-12
1.90386E-11 3.11371E-12
2.09900E-11 3.11358E-12
2.30367E-11 3.11345E-12
2.51785E-11 3.11332E-12
2.74156E-11 3.11317E-12
2.97478E-11 3.11303E-12
3.21752E-11 3.11287E-12
3.46979E-11 3.11271E-12
3.73157E-11 3.11254E-12
4.00286E-11 3.11237E-12
4.28368E-11 3.11219E-12
4.57402E-11 3.11201E-12
4.87388E-11 3.11182E-12
5.18325E-11 3.11162E-12
5.50215E-11 3.11142E-12
5.83057E-11 3.11121E-12
6.16850E-11 3.11100E-12
6.51595E-11 3.11078E-12
6.87293E-11 3.11055E-12
7.23943E-11 3.11032E-12
7.61544E-11 3.11008E-12
1.18991E-10 3.10737E-12
1.71347E-10 3.10407E-12
2.33223E-10 3.10017E-12
3.04617E-10 3.09569E-12
3.85531E-10 3.09062E-12
4.75965E-10 3.08498E-12
5.75917E-10 3.07875E-12
6.85389E-10 3.07196E-12
8.04380E-10 3.06461E-12
9.32891E-10 3.05670E-12
1.07092E-09 3.04825E-12
1.21847E-09 3.03925E-12
1.37554E-09 3.02971E-12
1.54213E-09 3.01966E-12
1.71823E-09 3.00908E-12
1.90386E-09 2.99800E-12
2.09900E-09 2.98642E-12
2.30367E-09 2.97435E-12
2.51785E-09 2.96180E-12
2.74156E-09 2.94879E-12
2.97478E-09 2.93532E-12
3.21752E-09 2.92141E-12
3.46978E-09 2.90706E-12
3.73156E-09 2.89229E-12
4.00286E-09 2.87711E-12
4.28368E-09 2.86154E-12
4.57402E-09 2.84557E-12
4.87388E-09 2.82923E-12
5.18326E-09 2.81253E-12
5.50215E-09 2.79549E-12
5.83057E-09 2.77811E-12
6.16850E-09 2.76041E-12
6.51596E-09 2.74240E-12
6.87293E-09 2.72410E-12
7.23942E-09 2.70551E-12
7.61544E-09 2.68665E-12
1.18991E-08 2.48716E-12
1.71347E-08 2.27388E-12
2.33223E-08 2.05863E-12
3.04617E-08 1.85021E-12
3.85531E-08 1.65478E-12
4.75965E-08 1.47605E-12
5.75917E-08 1.31575E-12
6.85389E-08 1.17455E-12
8.04380E-08 1.05067E-12
9.32891E-08 9.42594E-13
1.07092E-07 8.48579E-13
1.21847E-07 7.66830E-13
1.37554E-07 6.95642E-13
1.54213E-07 6.33465E-13
1.71823E-07 5.78936E-13
1.90386E-07 5.30883E-13
2.09900E-07 4.88315E-13
2.30367E-07 4.50402E-13
2.51785E-07 4.16441E-13
2.74156E-07 3.85850E-13
2.97478E-07 3.58172E-13
3.21752E-07 3.33029E-13
3.46978E-07 3.10106E-13
3.73156E-07 2.89140E-13
4.00286E-07 2.69909E-13
4.28368E-07 2.52229E-13
4.57402E-07 2.35940E-13
4.87388E-07 2.20906E-13
5.18325E-07 2.07004E-13
5.50215E-07 1.94116E-13
5.83057E-07 1.82178E-13
6.16850E-07 1.71110E-13
6.51596E-07 1.60840E-13
6.87293E-07 1.51303E-13
7.23942E-07 1.42441E-13
7.61543E-07 1.34202E-13
1.18991E-06 7.63937E-14
1.71347E-06 4.72914E-14
2.33223E-06 3.09826E-14
3.04617E-06 2.11712E-14
3.85531E-06 1.49157E-14
4.75964E-06 1.07603E-14
5.75916E-06 7.92192E-15
6.85388E-06 5.93985E-15
8.04378E-06 4.54062E-15
9.32888E-06 3.53464E-15
1.07092E-05 2.79816E-15
1.21846E-05 2.24921E-15
1.37553E-05 1.83278E-15
1.54212E-05 1.51148E-15
1.71822E-05 1.25962E-15
1.90385E-05 1.05896E-15
2.09899E-05 8.98016E-16
2.30365E-05 7.66859E-16
2.51783E-05 6.58060E-16
2.74153E-05 5.67708E-16
2.97475E-05 4.92188E-16
3.21749E-05 4.28684E-16
3.46974E-05 3.74983E-16
3.73152E-05 3.29318E-16
4.00281E-05 2.90282E-16
4.28362E-05 2.56747E-16
4.57395E-05 2.27811E-16
4.87380E-05 2.02750E-16
5.18317E-05 1.80970E-16
5.50205E-05 1.61986E-16
5.83045E-05 1.45407E-16
6.16838E-05 1.30889E-16
6.51582E-05 1.18139E-16
6.87277E-05 1.06907E-16
7.23925E-05 9.69805E-17
7.61524E-05 8.81803E-17
9.21439E-05 6.15571E-17
1.09658E-04 4.42892E-17
1.28695E-04 3.27051E-17
1.49255E-04 2.46832E-17
1.71338E-04 1.89849E-17
1.94942E-04 1.48413E-17
2.20070E-04 1.17687E-17
2.46720E-04 9.45073E-18
2.74892E-04 7.67475E-18
3.04586E-04 6.29577E-18
3.35803E-04 5.21186E-18
3.68542E-04 4.35043E-18
4.02802E-04 3.65886E-18
4.38585E-04 3.09884E-18
4.75889E-04 2.64157E-18
5.14715E-04 2.26528E-18
5.55063E-04 1.95343E-18
5.96931E-04 1.69324E-18
6.40321E-04 1.47483E-18
6.85233E-04 1.29041E-18
7.31665E-04 1.13385E-18
7.79618E-04 1.00027E-18
8.29092E-04 8.85736E-19
8.80086E-04 7.87087E-19
9.32601E-04 7.01768E-19
9.86636E-04 6.27681E-19
1.04219E-03 5.63099E-19
1.09927E-03 5.06597E-19
1.15786E-03 4.56996E-19
1.21797E-03 4.13309E-19
1.27961E-03 3.74710E-19
1.34276E-03 3.40507E-19
1.40743E-03 3.10111E-19
1.47362E-03 2.83026E-19
1.54133E-03 2.58828E-19
1.61056E-03 2.37157E-19
1.68131E-03 2.17703E-19
1.75357E-03 2.00200E-19
1.82735E-03 1.84417E-19
1.90265E-03 1.70156E-19
1.97947E-03 1.57245E-19
2.05780E-03 1.45532E-19
2.13765E-03 1.34887E-19
2.21902E-03 1.25196E-19
2.30190E-03 1.16357E-19
2.38630E-03 1.08282E-19
2.47222E-03 1.00894E-19
2.55965E-03 9.41237E-20
2.64859E-03 8.79101E-20
2.73905E-03 8.21992E-20
2.83103E-03 7.69433E-20
2.92452E-03 7.20994E-20
3.01952E-03 6.76295E-20
3.11604E-03 6.34995E-20
3.21407E-03 5.96788E-20
3.31362E-03 5.61402E-20
3.41468E-03 5.28589E-20
3.51725E-03 4.98129E-20
3.62133E-03 4.69824E-20
3.72692E-03 4.43493E-20
3.83403E-03 4.18973E-20
3.94265E-03 3.96118E-20
4.05278E-03 3.74794E-20
4.16442E-03 3.54879E-20
4.27757E-03 3.36263E-20
4.39223E-03 3.18847E-20
4.50840E-03 3.02538E-20
4.62608E-03 2.87255E-20
4.74527E-03 2.72919E-20
4.86597E-03 2.59462E-20
4.98817E-03 2.46820E-20
5.11188E-03 2.34936E-20
5.23711E-03 2.23754E-20
5.36383E-03 2.13227E-20
5.49207E-03 2.03308E-20
5.62181E-03 1.93956E-20
5.75306E-03 1.85133E-20
5.88581E-03 1.76803E-20
6.02007E-03 1.68934E-20
6.15583E-03 1.61495E-20
6.29310E-03 1.54459E-20
6.43187E-03 1.47800E-20
6.57214E-03 1.41494E-20
6.71392E-03 1.35519E-20
6.85720E-03 1.29854E-20
7.00198E-03 1.24480E-20
7.14827E-03 1.19380E-20
7.29605E-03 1.14537E-20
7.44534E-03 1.09935E-20
7.59612E-03 1.05561E-20
7.97965E-03 9.55350E-21
8.37255E-03 8.66647E-21
8.77480E-03 7.87944E-21
9.18641E-03 7.17922E-21
9.60736E-03 6.55459E-21
1.00376E-02 5.99603E-21
1.04773E-02 5.49533E-21
1.09262E-02 5.04549E-21
1.13844E-02 4.64045E-21
1.18520E-02 4.27498E-21
1.23288E-02 3.94454E-21
1.28150E-02 3.64520E-21
1.33104E-02 3.37353E-21
1.38150E-02 3.12652E-21
1.43290E-02 2.90154E-21
1.48521E-02 2.69629E-21
1.53845E-02 2.50873E-21
1.59262E-02 2.33708E-21
1.64770E-02 2.17975E-21
1.70371E-02 2.03533E-21
1.76063E-02 1.90259E-21
1.81848E-02 1.78040E-21
1.87724E-02 1.66779E-21
1.93692E-02 1.56387E-21
1.99751E-02 1.46785E-21
2.05901E-02 1.37903E-21
2.12143E-02 1.29676E-21
2.18476E-02 1.22049E-21
2.24900E-02 1.14969E-21
2.31415E-02 1.08391E-21
2.38021E-02 1.02272E-21
2.44717E-02 9.65756E-22
2.51504E-02 9.12663E-22
2.58382E-02 8.63134E-22
2.65349E-02 8.16888E-22
2.72407E-02 7.73670E-22
2.79555E-02 7.33243E-22
2.86793E-02 6.95398E-22
2.94120E-02 6.59938E-22
3.01537E-02 6.26688E-22
3.09043E-02 5.95485E-22
3.16639E-02 5.66179E-22
3.24324E-02 5.38636E-22
3.32098E-02 5.12730E-22
3.39961E-02 4.88347E-22
3.47912E-02 4.65380E-22
3.55952E-02 4.43734E-22
3.64081E-02 4.23317E-22
3.72297E-02 4.04049E-22
3.80602E-02 3.85852E-22
3.88995E-02 3.68657E-22
3.97476E-02 3.52398E-22
4.06044E-02 3.37016E-22
4.14700E-02 3.22454E-22
4.23443E-02 3.08661E-22
4.32273E-02 2.95589E-22
4.41190E-02 2.83193E-22
4.50194E-02 2.71432E-22
4.59284E-02 2.60269E-22
4.68461E-02 2.49666E-22
4.87074E-02 2.30013E-22
5.06030E-02 2.12233E-22
5.25328E-02 1.96118E-22
5.44967E-02 1.81485E-22
5.64946E-02 1.68174E-22
5.85262E-02 1.56046E-22
6.05914E-02 1.44977E-22
6.26901E-02 1.34860E-22
6.48222E-02 1.25598E-22
6.69873E-02 1.17106E-22
6.91854E-02 1.09311E-22
7.14163E-02 1.02144E-22
7.36799E-02 9.55458E-23
7.59760E-02 8.94643E-23
7.83043E-02 8.38516E-23
8.06647E-02 7.86656E-23
8.30571E-02 7.38681E-23
8.54812E-02 6.94250E-23
8.79369E-02 6.53056E-23
9.04240E-02 6.14822E-23
9.29422E-02 5.79299E-23
9.54915E-02 5.46261E-23
9.80716E-02 5.15503E-23
1.00682E-01 4.86842E-23
1.03323E-01 4.60110E-23
1.05995E-01 4.35155E-23
1.08696E-01 4.11838E-23
1.11427E-01 3.90032E-23
1.14188E-01 3.69622E-23
1.16978E-01 3.50504E-23
1.19797E-01 3.32582E-23
1.22645E-01 3.15768E-23
1.25522E-01 2.99982E-23
1.28428E-01 2.85149E-23
1.31361E-01 2.71203E-23
1.34323E-01 2.58080E-23
1.37313E-01 2.45724E-23
1.40330E-01 2.34083E-23
1.43375E-01 2.23107E-23
1.46447E-01 2.12752E-23
1.49545E-01 2.02977E-23
1.52671E-01 1.93744E-23
1.55823E-01 1.85018E-23
1.59001E-01 1.76765E-23
1.62205E-01 1.68956E-23
1.65435E-01 1.61562E-23
1.68690E-01 1.54558E-23
1.71970E-01 1.47919E-23
1.75276E-01 1.41624E-23
1.78606E-01 1.35651E-23
1.81961E-01 1.29982E-23
1.85340E-01 1.24597E-23
1.88743E-01 1.19480E-23
1.92169E-01 1.14615E-23
1.95619E-01 1.09989E-23
1.99092E-01 1.05586E-23
2.02589E-01 1.01395E-23
2.06107E-01 9.74038E-24
2.09649E-01 9.36008E-24
2.13212E-01 8.99757E-24
2.16797E-01 8.65187E-24
2.20404E-01 8.32207E-24
2.24032E-01 8.00731E-24
2.27680E-01 7.70680E-24
2.31350E-01 7.41977E-24
2.35040E-01 7.14552E-24
2.38751E-01 6.88338E-24
2.42481E-01 6.63271E-24
2.46231E-01 6.39293E-24
2.50000E-01 6.16348E-24
2.53788E-01 5.94385E-24
2.57595E-01 5.73354E-24
2.61421E-01 5.53209E-24
2.65264E-01 5.33906E-24
2.69126E-01 5.15404E-24
2.73005E-01 4.97664E-24
2.76901E-01 4.80648E-24
2.80814E-01 4.64322E-24
2.84744E-01 4.48654E-24
2.88691E-01 4.33613E-24
2.92653E-01 4.19169E-24
2.96632E-01 4.05295E-24
3.00625E-01 3.91963E-24
3.04634E-01 3.79150E-24
3.08658E-01 3.66831E-24
3.12697E-01 3.54984E-24
3.16749E-01 3.43588E-24
3.20816E-01 3.32623E-24
3.24896E-01 3.22071E-24
3.28990E-01 3.11912E-24
3.33097E-01 3.02130E-24
3.37216E-01 2.92708E-24
3.41348E-01 2.83630E-24
3.45492E-01 2.74882E-24
3.49647E-01 2.66451E-24
3.53814E-01 2.58321E-24
3.57992E-01 2.50482E-24
3.62181E-01 2.42921E-24
3.66381E-01 2.35627E-24
3.70590E-01 2.28587E-24
3.74810E-01 2.21792E-24
3.79039E-01 2.15232E-24
3.83277E-01 2.08898E-24
3.87524E-01 2.02780E-24
3.91780E-01 1.96870E-24
3.96044E-01 1.91159E-24
4.00316E-01 1.85641E-24
4.04596E-01 1.80306E-24
4.08882E-01 1.75148E-24
4.13176E-01 1.70160E-24
4.17476E-01 1.65336E-24
4.21783E-01 1.60669E-24
4.26095E-01 1.56154E-24
4.30413E-01 1.51785E-24
4.34737E-01 1.47555E-24
4.39065E-01 1.43460E-24
4.43398E-01 1.39495E-24
4.47736E-01 1.35655E-24
4.52077E-01 1.31936E-24
4.56422E-01 1.28333E-24
4.60770E-01 1.24842E-24
4.65122E-01 1.21459E-24
4.69476E-01 1.18180E-24
4.73832E-01 1.15000E-24
4.78190E-01 1.11918E-24
4.82550E-01 1.08929E-24
4.86912E-01 1.06030E-24
4.91274E-01 1.03217E-24
4.95637E-01 1.00489E-24
5.00000E-01 9.78413E-25
5.04363E-01 9.52719E-25
5.08726E-01 9.27779E-25
5.13088E-01 9.03567E-25
5.17450E-01 8.80060E-25
5.21810E-01 8.57233E-25
5.26168E-01 8.35064E-25
5.30524E-01 8.13531E-25
5.34878E-01 7.92613E-25
5.39230E-01 7.72289E-25
5.43578E-01 7.52539E-25
5.47923E-01 7.33345E-25
5.52264E-01 7.14689E-25
5.56602E-01 6.96553E-25
5.60935E-01 6.78921E-25
5.65263E-01 6.61777E-25
5.69587E-01 6.45104E-25
5.73905E-01 6.28889E-25
5.78217E-01 6.13116E-25
5.82524E-01 5.97771E-25
5.86824E-01 5.82841E-25
5.91118E-01 5.68314E-25
5.95404E-01 5.54176E-25
5.99684E-01 5.40416E-25
6.03956E-01 5.27022E-25
6.08220E-01 5.13984E-25
6.12476E-01 5.01289E-25
6.16723E-01 4.88928E-25
6.20961E-01 4.76891E-25
6.25190E-01 4.65167E-25
6.29410E-01 4.53748E-25
6.33619E-01 4.42624E-25
6.37819E-01 4.31787E-25
6.42008E-01 4.21229E-25
6.46186E-01 4.10940E-25
6.50353E-01 4.00914E-25
6.54508E-01 3.91143E-25
6.58652E-01 3.81618E-25
6.62784E-01 3.72334E-25
6.66903E-01 3.63283E-25
6.71010E-01 3.54458E-25
6.75104E-01 3.45854E-25
6.79184E-01 3.37463E-25
6.83251E-01 3.29280E-25
6.87303E-01 3.21300E-25
6.91342E-01 3.13515E-25
6.95366E-01 3.05922E-25
6.99375E-01 2.98514E-25
7.03368E-01 2.91287E-25
7.07347E-01 2.84235E-25
7.11309E-01 2.77354E-25
7.15256E-01 2.70639E-25
7.19186E-01 2.64086E-25
7.23099E-01 2.57690E-25
7.26995E-01 2.51447E-25
7.30874E-01 2.45353E-25
7.34736E-01 2.39404E-25
7.38579E-01 2.33596E-25
7.42405E-01 2.27926E-25
7.46212E-01 2.22389E-25
7.50000E-01 2.16982E-25
7.53769E-01 2.11703E-25
7.57519E-01 2.06547E-25
7.61249E-01 2.01511E-25
7.64960E-01 1.96593E-25
7.68650E-01 1.91789E-25
7.72320E-01 1.87097E-25
7.75968E-01 1.82513E-25
7.79596E-01 1.78034E-25
7.83203E-01 1.73659E-25
7.86788E-01 1.69385E-25
7.90351E-01 1.65209E-25
7.93893E-01 1.61128E-25
7.97411E-01 1.57141E-25
8.00908E-01 1.53245E-25
8.04381E-01 1.49437E-25
8.07831E-01 1.45716E-25
8.11257E-01 1.42080E-25
8.14660E-01 1.38526E-25
8.18039E-01 1.35052E-25
8.21394E-01 1.31657E-25
8.24724E-01 1.28339E-25
8.28030E-01 1.25096E-25
8.31310E-01 1.21926E-25
8.34565E-01 1.18827E-25
8.37795E-01 1.15798E-25
8.40999E-01 1.12837E-25
8.44177E-01 1.09943E-25
8.47329E-01 1.07113E-25
8.50455E-01 1.04347E-25
8.53553E-01 1.01644E-25
8.56625E-01 9.90007E-26
8.59670E-01 9.64170E-26
8.62687E-01 9.38913E-26
8.65677E-01 9.14223E-26
8.68639E-01 8.90087E-26
8.71572E-01 8.66494E-26
8.74478E-01 8.43432E-26
8.77355E-01 8.20888E-26
8.80203E-01 7.98852E-26
8.83022E-01 7.77313E-26
8.85812E-01 7.56260E-26
8.88573E-01 7.35683E-26
8.91304E-01 7.15571E-26
8.94005E-01 6.95916E-26
8.96677E-01 6.76708E-26
8.99318E-01 6.57937E-26
9.01928E-01 6.39595E-26
9.04508E-01 6.21672E-26
9.07058E-01 6.04161E-26
9.09576E-01 5.87052E-26
9.12063E-01 5.70339E-26
9.14519E-01 5.54013E-26
9.16943E-01 5.38067E-26
9.19335E-01 5.22493E-26
9.21696E-01 5.07285E-26
9.24024E-01 4.92434E-26
9.26320E-01 4.77935E-26
9.28584E-01 4.63780E-26
9.30815E-01 4.49964E-26
9.33013E-01 4.36480E-26
9.35178E-01 4.23322E-26
9.37310E-01 4.10484E-26
9.39409E-01 3.97960E-26
9.41474E-01 3.85746E-26
9.43505E-01 3.73834E-26
9.45503E-01 3.62221E-26
9.47467E-01 3.50902E-26
9.49397E-01 3.39870E-26
9.51293E-01 3.29122E-26
9.53154E-01 3.18652E-26
9.54981E-01 3.08457E-26
9.56773E-01 2.98531E-26
9.58530E-01 2.88871E-26
9.60252E-01 2.79472E-26
9.61940E-01 2.70331E-26
9.63592E-01 2.61443E-26
9.65209E-01 2.52804E-26
9.66790E-01 2.44412E-26
9.68336E-01 2.36262E-26
9.69846E-01 2.28351E-26
9.71321E-01 2.20676E-26
9.72759E-01 2.13233E-26
9.74162E-01 2.06020E-26
9.75528E-01 1.99033E-26
9.76858E-01 1.92269E-26
9.78152E-01 1.85726E-26
9.79410E-01 1.79402E-26
9.80631E-01 1.73292E-26
9.81815E-01 1.67395E-26
9.82963E-01 1.61709E-26
9.84074E-01 1.56231E-26
9.85148E-01 1.50959E-26
9.86185E-01 1.45890E-26
9.87185E-01 1.41023E-26
9.88148E-01 1.36356E-26
9.89074E-01 1.31887E-26
9.89962E-01 1.27613E-26
9.90814E-01 1.23534E-26
9.91627E-01 1.19647E-26
9.92404E-01 1.15952E-26
9.93143E-01 1.12446E-26
9.93844E-01 1.09128E-26
9.94508E-01 1.05996E-26
9.95134E-01 1.03051E-26
9.95722E-01 1.00289E-26
9.96273E-01 9.77114E-27
9.96786E-01 9.53156E-27
9.97261E-01 9.31010E-27
9.97698E-01 9.10669E-27
9.98097E-01 8.92123E-27
9.98459E-01 8.75366E-27
9.98782E-01 8.60390E-27
9.99067E-01 8.47191E-27
9.99315E-01 8.35761E-27
9.99524E-01 8.26098E-27
9.99695E-01 8.18197E-27
9.99829E-01 8.12055E-27
9.99924E-01 8.07670E-27
9.99981E-01 8.05039E-27
1.00000E+00 8.04162E-27
