 #
 # Subroutine ELSEPA. Elastic scattering of electrons and positrons
 #                    by neutral atoms and positive ions
 #
 # Projectile: positron
 # Kinetic energy = 4.50000E+08 eV = 1.65372E+07 a.u.
 #
 # WARNING: High-energy factorization with free-atom DF screening.
 #          Absorption, polarization and exchange corrections are
 #          switched off.
 #          Phase shifts are calculated for the bare nucleus.
 #          Scattering amplitudes are not evaluated.
 #
 # Element: Ba,  Z =  56,  atomic weight = 1.37327E+02 g/mol
 #
 # Nuclear model: Fermi distribution
 #                Average radius = 5.52038E-13 cm
 #                Skin thickness = 5.46000E-14 cm
 #
 # Number of electrons = 56
 #
 # Total elastic cross section = 7.23527E-18 cm**2 = 2.58376E-01 a0**2
 # 1st transport cross section = 2.99292E-26 cm**2 = 1.06879E-09 a0**2
 # 2nd transport cross section = 8.97437E-26 cm**2 = 3.20480E-09 a0**2
 #
 #
 # Differential cross section:                       MU=(1-COS(THETA))/2
 #
 #  THETA        MU          DCS          DCS        Sherman      error
 #  (deg)                 (cm**2/sr)   (a0**2/sr)    function
 #----------------------------------------------------------------------
0.00000E+00 2.51774E-08
7.61557E-13 2.22915E-08
1.18994E-12 2.08985E-08
1.71346E-12 1.93770E-08
2.33225E-12 1.78088E-08
3.04617E-12 1.62478E-08
3.85530E-12 1.47409E-08
4.75964E-12 1.33216E-08
5.75917E-12 1.20113E-08
6.85391E-12 1.08319E-08
8.04379E-12 9.77380E-09
9.32893E-12 8.83021E-09
1.07092E-11 7.99391E-09
1.21847E-11 7.25557E-09
1.37554E-11 6.60635E-09
1.54213E-11 6.03716E-09
1.71823E-11 5.53343E-09
1.90386E-11 5.08676E-09
2.09900E-11 4.68964E-09
2.30367E-11 4.33540E-09
2.51785E-11 4.01861E-09
2.74156E-11 3.73335E-09
2.97478E-11 3.47529E-09
3.21752E-11 3.24101E-09
3.46979E-11 3.02757E-09
3.73157E-11 2.83246E-09
4.00286E-11 2.65301E-09
4.28368E-11 2.48786E-09
4.57402E-11 2.33551E-09
4.87388E-11 2.19469E-09
5.18325E-11 2.06426E-09
5.50215E-11 1.94299E-09
5.83057E-11 1.83005E-09
6.16850E-11 1.72499E-09
6.51595E-11 1.62716E-09
6.87293E-11 1.53596E-09
7.23943E-11 1.45087E-09
7.61544E-11 1.37110E-09
1.18991E-10 8.03656E-10
1.71347E-10 5.03418E-10
2.33223E-10 3.31881E-10
3.04617E-10 2.28832E-10
3.85531E-10 1.63102E-10
4.75965E-10 1.19183E-10
5.75917E-10 8.88076E-11
6.85389E-10 6.71044E-11
8.04380E-10 5.15657E-11
9.32891E-10 4.02728E-11
1.07092E-09 3.19314E-11
1.21847E-09 2.56775E-11
1.37554E-09 2.09175E-11
1.54213E-09 1.72388E-11
1.71823E-09 1.43631E-11
1.90386E-09 1.20835E-11
2.09900E-09 1.02529E-11
2.30367E-09 8.76537E-12
2.51785E-09 7.54038E-12
2.74156E-09 6.52492E-12
2.97478E-09 5.67380E-12
3.21752E-09 4.95603E-12
3.46978E-09 4.34792E-12
3.73156E-09 3.82961E-12
4.00286E-09 3.38412E-12
4.28368E-09 3.00084E-12
4.57402E-09 2.66952E-12
4.87388E-09 2.38188E-12
5.18326E-09 2.13120E-12
5.50215E-09 1.91169E-12
5.83057E-09 1.71901E-12
6.16850E-09 1.54967E-12
6.51596E-09 1.40046E-12
6.87293E-09 1.26864E-12
7.23942E-09 1.15190E-12
7.61544E-09 1.04813E-12
1.18991E-08 4.53179E-13
1.71347E-08 2.27554E-13
2.33223E-08 1.26741E-13
3.04617E-08 7.60988E-14
3.85531E-08 4.83804E-14
4.75965E-08 3.21844E-14
5.75917E-08 2.22178E-14
6.85389E-08 1.58193E-14
8.04380E-08 1.15631E-14
9.32891E-08 8.64508E-15
1.07092E-07 6.59146E-15
1.21847E-07 5.11279E-15
1.37554E-07 4.02646E-15
1.54213E-07 3.21399E-15
1.71823E-07 2.59658E-15
1.90386E-07 2.12062E-15
2.09900E-07 1.74895E-15
2.30367E-07 1.45529E-15
2.51785E-07 1.22080E-15
2.74156E-07 1.03171E-15
2.97478E-07 8.77863E-16
3.21752E-07 7.51664E-16
3.46978E-07 6.47353E-16
3.73156E-07 5.60527E-16
4.00286E-07 4.87783E-16
4.28368E-07 4.26464E-16
4.57402E-07 3.74484E-16
4.87388E-07 3.30185E-16
5.18325E-07 2.92246E-16
5.50215E-07 2.59600E-16
5.83057E-07 2.31386E-16
6.16850E-07 2.06902E-16
6.51596E-07 1.85571E-16
6.87293E-07 1.66917E-16
7.23942E-07 1.50548E-16
7.61543E-07 1.36136E-16
1.18991E-06 5.60213E-17
1.71347E-06 2.70866E-17
2.33223E-06 1.46430E-17
3.04617E-06 8.59139E-18
3.85531E-06 5.36664E-18
4.75964E-06 3.52230E-18
5.75916E-06 2.40629E-18
6.85388E-06 1.69920E-18
8.04378E-06 1.23372E-18
9.32888E-06 9.17228E-19
1.07092E-05 6.96000E-19
1.21846E-05 5.37610E-19
1.37553E-05 4.21810E-19
1.54212E-05 3.35567E-19
1.71822E-05 2.70276E-19
1.90385E-05 2.20043E-19
2.09899E-05 1.81081E-19
2.30365E-05 1.50356E-19
2.51783E-05 1.25855E-19
2.74153E-05 1.06127E-19
2.97475E-05 9.01070E-20
3.21749E-05 7.69967E-20
3.46974E-05 6.61899E-20
3.73152E-05 5.72192E-20
4.00281E-05 4.97217E-20
4.28362E-05 4.34145E-20
4.57395E-05 3.80759E-20
4.87380E-05 3.35314E-20
5.18317E-05 2.96430E-20
5.50205E-05 2.63009E-20
5.83045E-05 2.34160E-20
6.16838E-05 2.09160E-20
6.51582E-05 1.87412E-20
6.87277E-05 1.68424E-20
7.23925E-05 1.51783E-20
7.61524E-05 1.37706E-20
9.21439E-05 9.39961E-21
1.09658E-04 6.63113E-21
1.28695E-04 4.80972E-21
1.49255E-04 3.57140E-21
1.71338E-04 2.70635E-21
1.94942E-04 2.08718E-21
2.20070E-04 1.63473E-21
2.46720E-04 1.29795E-21
2.74892E-04 1.04312E-21
3.04586E-04 8.47500E-22
3.35803E-04 6.95317E-22
3.68542E-04 5.75533E-22
4.02802E-04 4.80225E-22
4.38585E-04 4.03645E-22
4.75889E-04 3.41561E-22
5.14715E-04 2.90811E-22
5.55063E-04 2.49011E-22
5.96931E-04 2.14339E-22
6.40321E-04 1.85394E-22
6.85233E-04 1.61082E-22
7.31665E-04 1.40546E-22
7.79618E-04 1.23110E-22
8.29092E-04 1.08232E-22
8.80086E-04 9.54777E-23
9.32601E-04 8.44976E-23
9.86636E-04 7.50060E-23
1.04219E-03 6.67698E-23
1.09927E-03 5.95969E-23
1.15786E-03 5.33288E-23
1.21797E-03 4.78336E-23
1.27961E-03 4.30013E-23
1.34276E-03 3.87396E-23
1.40743E-03 3.49707E-23
1.47362E-03 3.16289E-23
1.54133E-03 2.86585E-23
1.61056E-03 2.60119E-23
1.68131E-03 2.36485E-23
1.75357E-03 2.15334E-23
1.82735E-03 1.96366E-23
1.90265E-03 1.79324E-23
1.97947E-03 1.63981E-23
2.05780E-03 1.50145E-23
2.13765E-03 1.37646E-23
2.21902E-03 1.26335E-23
2.30190E-03 1.16084E-23
2.38630E-03 1.06780E-23
2.47222E-03 9.83221E-24
2.55965E-03 9.06232E-24
2.64859E-03 8.36058E-24
2.73905E-03 7.72013E-24
2.83103E-03 7.13489E-24
2.92452E-03 6.59947E-24
3.01952E-03 6.10906E-24
3.11604E-03 5.65939E-24
3.21407E-03 5.24663E-24
3.31362E-03 4.86737E-24
3.41468E-03 4.51855E-24
3.51725E-03 4.19742E-24
3.62133E-03 3.90151E-24
3.72692E-03 3.62861E-24
3.83403E-03 3.37670E-24
3.94265E-03 3.14399E-24
4.05278E-03 2.92884E-24
4.16442E-03 2.72978E-24
4.27757E-03 2.54547E-24
4.39223E-03 2.37469E-24
4.50840E-03 2.21635E-24
4.62608E-03 2.06943E-24
4.74527E-03 1.93304E-24
4.86597E-03 1.80633E-24
4.98817E-03 1.68856E-24
5.11188E-03 1.57903E-24
5.23711E-03 1.47710E-24
5.36383E-03 1.38220E-24
5.49207E-03 1.29380E-24
5.62181E-03 1.21142E-24
5.75306E-03 1.13460E-24
5.88581E-03 1.06294E-24
6.02007E-03 9.96057E-25
6.15583E-03 9.33616E-25
6.29310E-03 8.75294E-25
6.43187E-03 8.20797E-25
6.57214E-03 7.69855E-25
6.71392E-03 7.22220E-25
6.85720E-03 6.77660E-25
7.00198E-03 6.35963E-25
7.14827E-03 5.96933E-25
7.29605E-03 5.60387E-25
7.44534E-03 5.26158E-25
7.59612E-03 4.94089E-25
7.97965E-03 4.22443E-25
8.37255E-03 3.61435E-25
8.77480E-03 3.09411E-25
9.18641E-03 2.64992E-25
9.60736E-03 2.27024E-25
1.00376E-02 1.94539E-25
1.04773E-02 1.66722E-25
1.09262E-02 1.42887E-25
1.13844E-02 1.22451E-25
1.18520E-02 1.04922E-25
1.23288E-02 8.98818E-26
1.28150E-02 7.69742E-26
1.33104E-02 6.58958E-26
1.38150E-02 5.63873E-26
1.43290E-02 4.82271E-26
1.48521E-02 4.12256E-26
1.53845E-02 3.52201E-26
1.59262E-02 3.00709E-26
1.64770E-02 2.56581E-26
1.70371E-02 2.18786E-26
1.76063E-02 1.86438E-26
1.81848E-02 1.58771E-26
1.87724E-02 1.35129E-26
1.93692E-02 1.14945E-26
1.99751E-02 9.77298E-27
2.05901E-02 8.30624E-27
2.12143E-02 7.05799E-27
2.18476E-02 5.99696E-27
2.24900E-02 5.09616E-27
2.31415E-02 4.33239E-27
2.38021E-02 3.68563E-27
2.44717E-02 3.13868E-27
2.51504E-02 2.67673E-27
2.58382E-02 2.28707E-27
2.65349E-02 1.95877E-27
2.72407E-02 1.68248E-27
2.79555E-02 1.45017E-27
2.86793E-02 1.25498E-27
2.94120E-02 1.09106E-27
3.01537E-02 9.53405E-28
3.09043E-02 8.37774E-28
3.16639E-02 7.40554E-28
3.24324E-02 6.58687E-28
3.32098E-02 5.89589E-28
3.39961E-02 5.31080E-28
3.47912E-02 4.81329E-28
3.55952E-02 4.38802E-28
3.64081E-02 4.02218E-28
3.72297E-02 3.70512E-28
3.80602E-02 3.42801E-28
3.88995E-02 3.18359E-28
3.97476E-02 2.96589E-28
4.06044E-02 2.77005E-28
4.14700E-02 2.59213E-28
4.23443E-02 2.42896E-28
4.32273E-02 2.27801E-28
4.41190E-02 2.13726E-28
4.50194E-02 2.00514E-28
4.59284E-02 1.88044E-28
4.68461E-02 1.76221E-28
4.87074E-02 1.54254E-28
5.06030E-02 1.34238E-28
5.25328E-02 1.15979E-28
5.44967E-02 9.93777E-29
5.64946E-02 8.43829E-29
5.85262E-02 7.09563E-29
6.05914E-02 5.90549E-29
6.26901E-02 4.86218E-29
6.48222E-02 3.95831E-29
6.69873E-02 3.18484E-29
6.91854E-02 2.53146E-29
7.14163E-02 1.98690E-29
7.36799E-02 1.53943E-29
7.59760E-02 1.17721E-29
7.83043E-02 8.88694E-30
8.06647E-02 6.62865E-30
8.30571E-02 4.89484E-30
8.54812E-02 3.59229E-30
8.79369E-02 2.63780E-30
9.04240E-02 1.95854E-30
9.29422E-02 1.49198E-30
9.54915E-02 1.18545E-30
9.80716E-02 9.95457E-31
1.00682E-01 8.86873E-31
1.03323E-01 8.31984E-31
1.05995E-01 8.09530E-31
1.08696E-01 8.03733E-31
1.11427E-01 8.03382E-31
1.14188E-01 8.00971E-31
1.16978E-01 7.91931E-31
1.19797E-01 7.73942E-31
1.22645E-01 7.46349E-31
1.25522E-01 7.09667E-31
1.28428E-01 6.65174E-31
1.31361E-01 6.14589E-31
1.34323E-01 5.59820E-31
1.37313E-01 5.02781E-31
1.40330E-01 4.45256E-31
1.43375E-01 3.88815E-31
1.46447E-01 3.34768E-31
1.49545E-01 2.84139E-31
1.52671E-01 2.37671E-31
1.55823E-01 1.95843E-31
1.59001E-01 1.58897E-31
1.62205E-01 1.26871E-31
1.65435E-01 9.96369E-32
1.68690E-01 7.69351E-32
1.71970E-01 5.84120E-32
1.75276E-01 4.36505E-32
1.78606E-01 3.21980E-32
1.81961E-01 2.35906E-32
1.85340E-01 1.73716E-32
1.88743E-01 1.31069E-32
1.92169E-01 1.03960E-32
1.95619E-01 8.87866E-33
1.99092E-01 8.23950E-33
2.02589E-01 8.20944E-33
2.06107E-01 8.56511E-33
2.09649E-01 9.12664E-33
2.13212E-01 9.75433E-33
2.16797E-01 1.03445E-32
2.20404E-01 1.08247E-32
2.24032E-01 1.11494E-32
2.27680E-01 1.12949E-32
2.31350E-01 1.12547E-32
2.35040E-01 1.10359E-32
2.38751E-01 1.06552E-32
2.42481E-01 1.01355E-32
2.46231E-01 9.50369E-33
2.50000E-01 8.78790E-33
2.53788E-01 8.01607E-33
2.57595E-01 7.21453E-33
2.61421E-01 6.40706E-33
2.65264E-01 5.61427E-33
2.69126E-01 4.85331E-33
2.73005E-01 4.13773E-33
2.76901E-01 3.47758E-33
2.80814E-01 2.87965E-33
2.84744E-01 2.34775E-33
2.88691E-01 1.88310E-33
2.92653E-01 1.48476E-33
2.96632E-01 1.15000E-33
3.00625E-01 8.74746E-34
3.04634E-01 6.53927E-34
3.08658E-01 4.81843E-34
3.12697E-01 3.52450E-34
3.16749E-01 2.59624E-34
3.20816E-01 1.97370E-34
3.24896E-01 1.59988E-34
3.28990E-01 1.42200E-34
3.33097E-01 1.39231E-34
3.37216E-01 1.46869E-34
3.41348E-01 1.61483E-34
3.45492E-01 1.80023E-34
3.49647E-01 2.00005E-34
3.53814E-01 2.19472E-34
3.57992E-01 2.36951E-34
3.62181E-01 2.51403E-34
3.66381E-01 2.62163E-34
3.70590E-01 2.68883E-34
3.74810E-01 2.71480E-34
3.79039E-01 2.70081E-34
3.83277E-01 2.64970E-34
3.87524E-01 2.56548E-34
3.91780E-01 2.45290E-34
3.96044E-01 2.31713E-34
4.00316E-01 2.16347E-34
4.04596E-01 1.99712E-34
4.08882E-01 1.82302E-34
4.13176E-01 1.64567E-34
4.17476E-01 1.46909E-34
4.21783E-01 1.29675E-34
4.26095E-01 1.13152E-34
4.30413E-01 9.75693E-35
4.34737E-01 8.31016E-35
4.39065E-01 6.98690E-35
4.43398E-01 5.79456E-35
4.47736E-01 4.73622E-35
4.52077E-01 3.81127E-35
4.56422E-01 3.01612E-35
4.60770E-01 2.34463E-35
4.65122E-01 1.78879E-35
4.69476E-01 1.33918E-35
4.73832E-01 9.85457E-36
4.78190E-01 7.16772E-36
4.82550E-01 5.22142E-36
4.86912E-01 3.90743E-36
4.91274E-01 3.12163E-36
4.95637E-01 2.76598E-36
5.00000E-01 2.74988E-36
5.04363E-01 2.99111E-36
5.08726E-01 3.41674E-36
5.13088E-01 3.96293E-36
5.17450E-01 4.57526E-36
5.21810E-01 5.20815E-36
5.26168E-01 5.82475E-36
5.30524E-01 6.39590E-36
5.34878E-01 6.89991E-36
5.39230E-01 7.32135E-36
5.43578E-01 7.65062E-36
5.47923E-01 7.88285E-36
5.52264E-01 8.01725E-36
5.56602E-01 8.05661E-36
5.60935E-01 8.00606E-36
5.65263E-01 7.87292E-36
5.69587E-01 7.66598E-36
5.73905E-01 7.39488E-36
5.78217E-01 7.06969E-36
5.82524E-01 6.70076E-36
5.86824E-01 6.29822E-36
5.91118E-01 5.87172E-36
5.95404E-01 5.43037E-36
5.99684E-01 4.98229E-36
6.03956E-01 4.53501E-36
6.08220E-01 4.09498E-36
6.12476E-01 3.66787E-36
6.16723E-01 3.25819E-36
6.20961E-01 2.86978E-36
6.25190E-01 2.50542E-36
6.29410E-01 2.16717E-36
6.33619E-01 1.85648E-36
6.37819E-01 1.57392E-36
6.42008E-01 1.31964E-36
6.46186E-01 1.09323E-36
6.50353E-01 8.93931E-37
6.54508E-01 7.20558E-37
6.58652E-01 5.71699E-37
6.62784E-01 4.45752E-37
6.66903E-01 3.40951E-37
6.71010E-01 2.55452E-37
6.75104E-01 1.87351E-37
6.79184E-01 1.34765E-37
6.83251E-01 9.58279E-38
6.87303E-01 6.87392E-38
6.91342E-01 5.17844E-38
6.95366E-01 4.33482E-38
6.99375E-01 4.19293E-38
7.03368E-01 4.61538E-38
7.07347E-01 5.47628E-38
7.11309E-01 6.66646E-38
7.15256E-01 8.08425E-38
7.19186E-01 9.64522E-38
7.23099E-01 1.12737E-37
7.26995E-01 1.29092E-37
7.30874E-01 1.44991E-37
7.34736E-01 1.60014E-37
7.38579E-01 1.73851E-37
7.42405E-01 1.86222E-37
7.46212E-01 1.96982E-37
7.50000E-01 2.05997E-37
7.53769E-01 2.13248E-37
7.57519E-01 2.18691E-37
7.61249E-01 2.22385E-37
7.64960E-01 2.24356E-37
7.68650E-01 2.24727E-37
7.72320E-01 2.23583E-37
7.75968E-01 2.21075E-37
7.79596E-01 2.17305E-37
7.83203E-01 2.12418E-37
7.86788E-01 2.06565E-37
7.90351E-01 1.99868E-37
7.93893E-01 1.92480E-37
7.97411E-01 1.84527E-37
8.00908E-01 1.76142E-37
8.04381E-01 1.67432E-37
8.07831E-01 1.58496E-37
8.11257E-01 1.49448E-37
8.14660E-01 1.40380E-37
8.18039E-01 1.31370E-37
8.21394E-01 1.22488E-37
8.24724E-01 1.13785E-37
8.28030E-01 1.05327E-37
8.31310E-01 9.71497E-38
8.34565E-01 8.92956E-38
8.37795E-01 8.17880E-38
8.40999E-01 7.46453E-38
8.44177E-01 6.78905E-38
8.47329E-01 6.15242E-38
8.50455E-01 5.55551E-38
8.53553E-01 4.99810E-38
8.56625E-01 4.47970E-38
8.59670E-01 3.99957E-38
8.62687E-01 3.55698E-38
8.65677E-01 3.15041E-38
8.68639E-01 2.77878E-38
8.71572E-01 2.43983E-38
8.74478E-01 2.13277E-38
8.77355E-01 1.85503E-38
8.80203E-01 1.60527E-38
8.83022E-01 1.38178E-38
8.85812E-01 1.18255E-38
8.88573E-01 1.00589E-38
8.91304E-01 8.49824E-39
8.94005E-01 7.13021E-39
8.96677E-01 5.93558E-39
8.99318E-01 4.89977E-39
9.01928E-01 4.00856E-39
9.04508E-01 3.24612E-39
9.07058E-01 2.59896E-39
9.09576E-01 2.05637E-39
9.12063E-01 1.60596E-39
9.14519E-01 1.23661E-39
9.16943E-01 9.38506E-40
9.19335E-01 7.02891E-40
9.21696E-01 1.00000E-45
9.24024E-01 1.00000E-45
9.26320E-01 1.00000E-45
9.28584E-01 1.00000E-45
9.30815E-01 1.00000E-45
9.33013E-01 1.00000E-45
9.35178E-01 1.00000E-45
9.37310E-01 1.00000E-45
9.39409E-01 1.00000E-45
9.41474E-01 1.00000E-45
9.43505E-01 1.00000E-45
9.45503E-01 1.00000E-45
9.47467E-01 1.00000E-45
9.49397E-01 1.00000E-45
9.51293E-01 1.00000E-45
9.53154E-01 1.00000E-45
9.54981E-01 1.00000E-45
9.56773E-01 1.00000E-45
9.58530E-01 1.00000E-45
9.60252E-01 1.00000E-45
9.61940E-01 1.00000E-45
9.63592E-01 1.00000E-45
9.65209E-01 1.00000E-45
9.66790E-01 1.00000E-45
9.68336E-01 1.00000E-45
9.69846E-01 1.00000E-45
9.71321E-01 1.00000E-45
9.72759E-01 1.00000E-45
9.74162E-01 1.00000E-45
9.75528E-01 1.00000E-45
9.76858E-01 1.00000E-45
9.78152E-01 1.00000E-45
9.79410E-01 1.00000E-45
9.80631E-01 1.00000E-45
9.81815E-01 1.00000E-45
9.82963E-01 1.00000E-45
9.84074E-01 1.00000E-45
9.85148E-01 1.00000E-45
9.86185E-01 1.00000E-45
9.87185E-01 1.00000E-45
9.88148E-01 1.00000E-45
9.89074E-01 1.00000E-45
9.89962E-01 1.00000E-45
9.90814E-01 1.00000E-45
9.91627E-01 1.00000E-45
9.92404E-01 1.00000E-45
9.93143E-01 1.00000E-45
9.93844E-01 1.00000E-45
9.94508E-01 1.00000E-45
9.95134E-01 1.00000E-45
9.95722E-01 1.00000E-45
9.96273E-01 1.00000E-45
9.96786E-01 1.00000E-45
9.97261E-01 1.00000E-45
9.97698E-01 1.00000E-45
9.98097E-01 1.00000E-45
9.98459E-01 1.00000E-45
9.98782E-01 1.00000E-45
9.99067E-01 1.00000E-45
9.99315E-01 1.00000E-45
9.99524E-01 1.00000E-45
9.99695E-01 1.00000E-45
9.99829E-01 1.00000E-45
9.99924E-01 1.00000E-45
9.99981E-01 1.00000E-45
1.00000E+00 1.00000E-45
