 #
 # Subroutine ELSEPA. Elastic scattering of electrons and positrons
 #                    by neutral atoms and positive ions
 #
 # Projectile: positron
 # Kinetic energy = 9.00000E+07 eV = 3.30744E+06 a.u.
 #
 # WARNING: High-energy factorization with free-atom DF screening.
 #          Absorption, polarization and exchange corrections are
 #          switched off.
 #          Phase shifts are calculated for the bare nucleus.
 #          Scattering amplitudes are not evaluated.
 #
 # Element: Ba,  Z =  56,  atomic weight = 1.37327E+02 g/mol
 #
 # Nuclear model: Fermi distribution
 #                Average radius = 5.52038E-13 cm
 #                Skin thickness = 5.46000E-14 cm
 #
 # Number of electrons = 56
 #
 # Total elastic cross section = 7.24697E-18 cm**2 = 2.58794E-01 a0**2
 # 1st transport cross section = 7.21925E-25 cm**2 = 2.57804E-08 a0**2
 # 2nd transport cross section = 2.14221E-24 cm**2 = 7.64997E-08 a0**2
 #
 #
 # Differential cross section:                       MU=(1-COS(THETA))/2
 #
 #  THETA        MU          DCS          DCS        Sherman      error
 #  (deg)                 (cm**2/sr)   (a0**2/sr)    function
 #----------------------------------------------------------------------
0.00000E+00 1.01625E-09
7.61557E-13 1.01109E-09
1.18994E-12 1.00820E-09
1.71346E-12 1.00469E-09
2.33225E-12 1.00057E-09
3.04617E-12 9.95853E-10
3.85530E-12 9.90547E-10
4.75964E-12 9.84670E-10
5.75917E-12 9.78238E-10
6.85391E-12 9.71271E-10
8.04379E-12 9.63789E-10
9.32893E-12 9.55809E-10
1.07092E-11 9.47358E-10
1.21847E-11 9.38455E-10
1.37554E-11 9.29123E-10
1.54213E-11 9.19390E-10
1.71823E-11 9.09279E-10
1.90386E-11 8.98811E-10
2.09900E-11 8.88019E-10
2.30367E-11 8.76923E-10
2.51785E-11 8.65549E-10
2.74156E-11 8.53928E-10
2.97478E-11 8.42219E-10
3.21752E-11 8.30303E-10
3.46979E-11 8.18142E-10
3.73157E-11 8.05756E-10
4.00286E-11 7.93165E-10
4.28368E-11 7.80388E-10
4.57402E-11 7.67795E-10
4.87388E-11 7.55216E-10
5.18325E-11 7.42511E-10
5.50215E-11 7.29696E-10
5.83057E-11 7.16791E-10
6.16850E-11 7.03811E-10
6.51595E-11 6.91137E-10
6.87293E-11 6.78637E-10
7.23943E-11 6.66107E-10
7.61544E-11 6.53561E-10
1.18991E-10 5.35258E-10
1.71347E-10 4.34714E-10
2.33223E-10 3.54155E-10
3.04617E-10 2.90883E-10
3.85531E-10 2.41907E-10
4.75965E-10 2.03794E-10
5.75917E-10 1.73662E-10
6.85389E-10 1.49508E-10
8.04380E-10 1.29762E-10
9.32891E-10 1.13372E-10
1.07092E-09 9.95573E-11
1.21847E-09 8.77938E-11
1.37554E-09 7.77058E-11
1.54213E-09 6.89653E-11
1.71823E-09 6.13845E-11
1.90386E-09 5.47877E-11
2.09900E-09 4.90081E-11
2.30367E-09 4.39556E-11
2.51785E-09 3.95252E-11
2.74156E-09 3.56241E-11
2.97478E-09 3.20558E-11
3.21752E-09 2.89340E-11
3.46978E-09 2.62405E-11
3.73156E-09 2.39054E-11
4.00286E-09 2.18715E-11
4.28368E-09 2.00921E-11
4.57402E-09 1.84003E-11
4.87388E-09 1.68594E-11
5.18326E-09 1.55018E-11
5.50215E-09 1.43012E-11
5.83057E-09 1.32356E-11
6.16850E-09 1.22867E-11
6.51596E-09 1.13835E-11
6.87293E-09 1.05450E-11
7.23942E-09 9.79411E-12
7.61544E-09 9.11984E-12
1.18991E-08 4.74304E-12
1.71347E-08 2.66982E-12
2.33223E-08 1.60098E-12
3.04617E-08 1.02052E-12
3.85531E-08 6.85273E-13
4.75965E-08 4.80306E-13
5.75917E-08 3.48357E-13
6.85389E-08 2.59335E-13
8.04380E-08 1.96902E-13
9.32891E-08 1.52106E-13
1.07092E-07 1.19178E-13
1.21847E-07 9.45648E-14
1.37554E-07 7.58866E-14
1.54213E-07 6.15039E-14
1.71823E-07 5.03415E-14
1.90386E-07 4.15904E-14
2.09900E-07 3.46535E-14
2.30367E-07 2.91062E-14
2.51785E-07 2.46267E-14
2.74156E-07 2.09774E-14
2.97478E-07 1.79763E-14
3.21752E-07 1.55035E-14
3.46978E-07 1.34469E-14
3.73156E-07 1.17172E-14
4.00286E-07 1.02647E-14
4.28368E-07 9.02529E-15
4.57402E-07 7.97129E-15
4.87388E-07 7.06704E-15
5.18325E-07 6.28696E-15
5.50215E-07 5.61415E-15
5.83057E-07 5.02608E-15
6.16850E-07 4.51491E-15
6.51596E-07 4.06638E-15
6.87293E-07 3.67221E-15
7.23942E-07 3.32526E-15
7.61543E-07 3.01727E-15
1.18991E-06 1.27566E-15
1.71347E-06 6.26843E-16
2.33223E-06 3.42489E-16
3.04617E-06 2.02514E-16
3.85531E-06 1.27281E-16
4.75964E-06 8.39678E-17
5.75916E-06 5.76150E-17
6.85388E-06 4.08390E-17
8.04378E-06 2.97494E-17
9.32888E-06 2.21812E-17
1.07092E-05 1.68735E-17
1.21846E-05 1.30622E-17
1.37553E-05 1.02683E-17
1.54212E-05 8.18261E-18
1.71822E-05 6.60029E-18
1.90385E-05 5.38058E-18
2.09899E-05 4.43299E-18
2.30365E-05 3.68458E-18
2.51783E-05 3.08696E-18
2.74153E-05 2.60518E-18
2.97475E-05 2.21352E-18
3.21749E-05 1.89269E-18
3.46974E-05 1.62799E-18
3.73152E-05 1.40808E-18
4.00281E-05 1.22416E-18
4.28362E-05 1.06933E-18
4.57395E-05 9.38201E-19
4.87380E-05 8.26516E-19
5.18317E-05 7.30908E-19
5.50205E-05 6.48691E-19
5.83045E-05 5.77693E-19
6.16838E-05 5.16142E-19
6.51582E-05 4.62581E-19
6.87277E-05 4.15798E-19
7.23925E-05 3.74788E-19
7.61524E-05 3.38801E-19
9.21439E-05 2.31402E-19
1.09658E-04 1.63350E-19
1.28695E-04 1.18570E-19
1.49255E-04 8.81178E-20
1.71338E-04 6.68416E-20
1.94942E-04 5.16099E-20
2.20070E-04 4.04772E-20
2.46720E-04 3.21885E-20
2.74892E-04 2.59147E-20
3.04586E-04 2.10965E-20
3.35803E-04 1.73465E-20
3.68542E-04 1.43931E-20
4.02802E-04 1.20417E-20
4.38585E-04 1.01508E-20
4.75889E-04 8.61655E-21
5.14715E-04 7.36106E-21
5.55063E-04 6.32587E-21
5.96931E-04 5.46612E-21
6.40321E-04 4.74740E-21
6.85233E-04 4.14281E-21
7.31665E-04 3.63132E-21
7.79618E-04 3.19624E-21
8.29092E-04 2.82430E-21
8.80086E-04 2.50481E-21
9.32601E-04 2.22917E-21
9.86636E-04 1.99033E-21
1.04219E-03 1.78257E-21
1.09927E-03 1.60116E-21
1.15786E-03 1.44220E-21
1.21797E-03 1.30244E-21
1.27961E-03 1.17916E-21
1.34276E-03 1.07009E-21
1.40743E-03 9.73310E-22
1.47362E-03 8.87193E-22
1.54133E-03 8.10368E-22
1.61056E-03 7.41653E-22
1.68131E-03 6.80048E-22
1.75357E-03 6.24687E-22
1.82735E-03 5.74827E-22
1.90265E-03 5.29826E-22
1.97947E-03 4.89128E-22
2.05780E-03 4.52248E-22
2.13765E-03 4.18767E-22
2.21902E-03 3.88315E-22
2.30190E-03 3.60570E-22
2.38630E-03 3.35248E-22
2.47222E-03 3.12102E-22
2.55965E-03 2.90910E-22
2.64859E-03 2.71478E-22
2.73905E-03 2.53633E-22
2.83103E-03 2.37223E-22
2.92452E-03 2.22111E-22
3.01952E-03 2.08178E-22
3.11604E-03 1.95315E-22
3.21407E-03 1.83424E-22
3.31362E-03 1.72419E-22
3.41468E-03 1.62223E-22
3.51725E-03 1.52765E-22
3.62133E-03 1.43982E-22
3.72692E-03 1.35817E-22
3.83403E-03 1.28219E-22
3.94265E-03 1.21141E-22
4.05278E-03 1.14542E-22
4.16442E-03 1.08383E-22
4.27757E-03 1.02629E-22
4.39223E-03 9.72499E-23
4.50840E-03 9.22156E-23
4.62608E-03 8.75004E-23
4.74527E-03 8.30804E-23
4.86597E-03 7.89337E-23
4.98817E-03 7.50405E-23
5.11188E-03 7.13823E-23
5.23711E-03 6.79424E-23
5.36383E-03 6.47055E-23
5.49207E-03 6.16573E-23
5.62181E-03 5.87849E-23
5.75306E-03 5.60763E-23
5.88581E-03 5.35204E-23
6.02007E-03 5.11071E-23
6.15583E-03 4.88269E-23
6.29310E-03 4.66712E-23
6.43187E-03 4.46319E-23
6.57214E-03 4.27017E-23
6.71392E-03 4.08736E-23
6.85720E-03 3.91411E-23
7.00198E-03 3.74985E-23
7.14827E-03 3.59402E-23
7.29605E-03 3.44611E-23
7.44534E-03 3.30564E-23
7.59612E-03 3.17217E-23
7.97965E-03 2.86647E-23
8.37255E-03 2.59630E-23
8.77480E-03 2.35684E-23
9.18641E-03 2.14401E-23
9.60736E-03 1.95435E-23
1.00376E-02 1.78492E-23
1.04773E-02 1.63319E-23
1.09262E-02 1.49701E-23
1.13844E-02 1.37451E-23
1.18520E-02 1.26408E-23
1.23288E-02 1.16434E-23
1.28150E-02 1.07408E-23
1.33104E-02 9.92236E-24
1.38150E-02 9.17898E-24
1.43290E-02 8.50259E-24
1.48521E-02 7.88613E-24
1.53845E-02 7.32340E-24
1.59262E-02 6.80891E-24
1.64770E-02 6.33783E-24
1.70371E-02 5.90588E-24
1.76063E-02 5.50926E-24
1.81848E-02 5.14458E-24
1.87724E-02 4.80884E-24
1.93692E-02 4.49936E-24
1.99751E-02 4.21373E-24
2.05901E-02 3.94980E-24
2.12143E-02 3.70565E-24
2.18476E-02 3.47955E-24
2.24900E-02 3.26994E-24
2.31415E-02 3.07540E-24
2.38021E-02 2.89468E-24
2.44717E-02 2.72663E-24
2.51504E-02 2.57021E-24
2.58382E-02 2.42449E-24
2.65349E-02 2.28860E-24
2.72407E-02 2.16178E-24
2.79555E-02 2.04331E-24
2.86793E-02 1.93256E-24
2.94120E-02 1.82894E-24
3.01537E-02 1.73191E-24
3.09043E-02 1.64099E-24
3.16639E-02 1.55573E-24
3.24324E-02 1.47572E-24
3.32098E-02 1.40057E-24
3.39961E-02 1.32995E-24
3.47912E-02 1.26354E-24
3.55952E-02 1.20105E-24
3.64081E-02 1.14221E-24
3.72297E-02 1.08676E-24
3.80602E-02 1.03449E-24
3.88995E-02 9.85178E-25
3.97476E-02 9.38632E-25
4.06044E-02 8.94673E-25
4.14700E-02 8.53133E-25
4.23443E-02 8.13857E-25
4.32273E-02 7.76703E-25
4.41190E-02 7.41537E-25
4.50194E-02 7.08237E-25
4.59284E-02 6.76686E-25
4.68461E-02 6.46780E-25
4.87074E-02 5.91509E-25
5.06030E-02 5.41709E-25
5.25328E-02 4.96759E-25
5.44967E-02 4.56117E-25
5.64946E-02 4.19311E-25
5.85262E-02 3.85925E-25
6.05914E-02 3.55596E-25
6.26901E-02 3.28004E-25
6.48222E-02 3.02867E-25
6.69873E-02 2.79936E-25
6.91854E-02 2.58990E-25
7.14163E-02 2.39833E-25
7.36799E-02 2.22291E-25
7.59760E-02 2.06210E-25
7.83043E-02 1.91451E-25
8.06647E-02 1.77890E-25
8.30571E-02 1.65417E-25
8.54812E-02 1.53934E-25
8.79369E-02 1.43352E-25
9.04240E-02 1.33589E-25
9.29422E-02 1.24576E-25
9.54915E-02 1.16246E-25
9.80716E-02 1.08542E-25
1.00682E-01 1.01410E-25
1.03323E-01 9.48033E-26
1.05995E-01 8.86773E-26
1.08696E-01 8.29931E-26
1.11427E-01 7.77151E-26
1.14188E-01 7.28106E-26
1.16978E-01 6.82501E-26
1.19797E-01 6.40066E-26
1.22645E-01 6.00555E-26
1.25522E-01 5.63743E-26
1.28428E-01 5.29425E-26
1.31361E-01 4.97412E-26
1.34323E-01 4.67532E-26
1.37313E-01 4.39628E-26
1.40330E-01 4.13554E-26
1.43375E-01 3.89177E-26
1.46447E-01 3.66375E-26
1.49545E-01 3.45036E-26
1.52671E-01 3.25056E-26
1.55823E-01 3.06339E-26
1.59001E-01 2.88797E-26
1.62205E-01 2.72349E-26
1.65435E-01 2.56920E-26
1.68690E-01 2.42441E-26
1.71970E-01 2.28847E-26
1.75276E-01 2.16080E-26
1.78606E-01 2.04083E-26
1.81961E-01 1.92807E-26
1.85340E-01 1.82204E-26
1.88743E-01 1.72229E-26
1.92169E-01 1.62844E-26
1.95619E-01 1.54009E-26
1.99092E-01 1.45689E-26
2.02589E-01 1.37852E-26
2.06107E-01 1.30468E-26
2.09649E-01 1.23507E-26
2.13212E-01 1.16944E-26
2.16797E-01 1.10755E-26
2.20404E-01 1.04915E-26
2.24032E-01 9.94045E-27
2.27680E-01 9.42025E-27
2.31350E-01 8.92907E-27
2.35040E-01 8.46516E-27
2.38751E-01 8.02689E-27
2.42481E-01 7.61274E-27
2.46231E-01 7.22128E-27
2.50000E-01 6.85118E-27
2.53788E-01 6.50119E-27
2.57595E-01 6.17015E-27
2.61421E-01 5.85694E-27
2.65264E-01 5.56055E-27
2.69126E-01 5.28002E-27
2.73005E-01 5.01443E-27
2.76901E-01 4.76294E-27
2.80814E-01 4.52475E-27
2.84744E-01 4.29911E-27
2.88691E-01 4.08532E-27
2.92653E-01 3.88272E-27
2.96632E-01 3.69069E-27
3.00625E-01 3.50863E-27
3.04634E-01 3.33601E-27
3.08658E-01 3.17231E-27
3.12697E-01 3.01703E-27
3.16749E-01 2.86972E-27
3.20816E-01 2.72994E-27
3.24896E-01 2.59730E-27
3.28990E-01 2.47140E-27
3.33097E-01 2.35188E-27
3.37216E-01 2.23841E-27
3.41348E-01 2.13065E-27
3.45492E-01 2.02832E-27
3.49647E-01 1.93111E-27
3.53814E-01 1.83877E-27
3.57992E-01 1.75103E-27
3.62181E-01 1.66765E-27
3.66381E-01 1.58841E-27
3.70590E-01 1.51310E-27
3.74810E-01 1.44150E-27
3.79039E-01 1.37342E-27
3.83277E-01 1.30869E-27
3.87524E-01 1.24713E-27
3.91780E-01 1.18859E-27
3.96044E-01 1.13289E-27
4.00316E-01 1.07991E-27
4.04596E-01 1.02950E-27
4.08882E-01 9.81530E-28
4.13176E-01 9.35881E-28
4.17476E-01 8.92433E-28
4.21783E-01 8.51077E-28
4.26095E-01 8.11707E-28
4.30413E-01 7.74224E-28
4.34737E-01 7.38534E-28
4.39065E-01 7.04547E-28
4.43398E-01 6.72180E-28
4.47736E-01 6.41351E-28
4.52077E-01 6.11986E-28
4.56422E-01 5.84011E-28
4.60770E-01 5.57358E-28
4.65122E-01 5.31963E-28
4.69476E-01 5.07764E-28
4.73832E-01 4.84702E-28
4.78190E-01 4.62723E-28
4.82550E-01 4.41772E-28
4.86912E-01 4.21802E-28
4.91274E-01 4.02763E-28
4.95637E-01 3.84611E-28
5.00000E-01 3.67303E-28
5.04363E-01 3.50799E-28
5.08726E-01 3.35059E-28
5.13088E-01 3.20048E-28
5.17450E-01 3.05730E-28
5.21810E-01 2.92073E-28
5.26168E-01 2.79044E-28
5.30524E-01 2.66614E-28
5.34878E-01 2.54754E-28
5.39230E-01 2.43438E-28
5.43578E-01 2.32639E-28
5.47923E-01 2.22334E-28
5.52264E-01 2.12498E-28
5.56602E-01 2.03110E-28
5.60935E-01 1.94149E-28
5.65263E-01 1.85595E-28
5.69587E-01 1.77428E-28
5.73905E-01 1.69631E-28
5.78217E-01 1.62186E-28
5.82524E-01 1.55077E-28
5.86824E-01 1.48288E-28
5.91118E-01 1.41805E-28
5.95404E-01 1.35613E-28
5.99684E-01 1.29698E-28
6.03956E-01 1.24049E-28
6.08220E-01 1.18652E-28
6.12476E-01 1.13496E-28
6.16723E-01 1.08570E-28
6.20961E-01 1.03863E-28
6.25190E-01 9.93655E-29
6.29410E-01 9.50678E-29
6.33619E-01 9.09607E-29
6.37819E-01 8.70354E-29
6.42008E-01 8.32837E-29
6.46186E-01 7.96976E-29
6.50353E-01 7.62697E-29
6.54508E-01 7.29928E-29
6.58652E-01 6.98599E-29
6.62784E-01 6.68646E-29
6.66903E-01 6.40007E-29
6.71010E-01 6.12623E-29
6.75104E-01 5.86436E-29
6.79184E-01 5.61393E-29
6.83251E-01 5.37442E-29
6.87303E-01 5.14535E-29
6.91342E-01 4.92624E-29
6.95366E-01 4.71666E-29
6.99375E-01 4.51617E-29
7.03368E-01 4.32436E-29
7.07347E-01 4.14086E-29
7.11309E-01 3.96529E-29
7.15256E-01 3.79730E-29
7.19186E-01 3.63655E-29
7.23099E-01 3.48272E-29
7.26995E-01 3.33551E-29
7.30874E-01 3.19462E-29
7.34736E-01 3.05977E-29
7.38579E-01 2.93070E-29
7.42405E-01 2.80715E-29
7.46212E-01 2.68888E-29
7.50000E-01 2.57565E-29
7.53769E-01 2.46725E-29
7.57519E-01 2.36347E-29
7.61249E-01 2.26409E-29
7.64960E-01 2.16894E-29
7.68650E-01 2.07782E-29
7.72320E-01 1.99056E-29
7.75968E-01 1.90699E-29
7.79596E-01 1.82695E-29
7.83203E-01 1.75029E-29
7.86788E-01 1.67686E-29
7.90351E-01 1.60652E-29
7.93893E-01 1.53914E-29
7.97411E-01 1.47459E-29
8.00908E-01 1.41274E-29
8.04381E-01 1.35349E-29
8.07831E-01 1.29671E-29
8.11257E-01 1.24231E-29
8.14660E-01 1.19018E-29
8.18039E-01 1.14022E-29
8.21394E-01 1.09234E-29
8.24724E-01 1.04645E-29
8.28030E-01 1.00247E-29
8.31310E-01 9.60315E-30
8.34565E-01 9.19907E-30
8.37795E-01 8.81171E-30
8.40999E-01 8.44038E-30
8.44177E-01 8.08438E-30
8.47329E-01 7.74308E-30
8.50455E-01 7.41584E-30
8.53553E-01 7.10208E-30
8.56625E-01 6.80122E-30
8.59670E-01 6.51272E-30
8.62687E-01 6.23607E-30
8.65677E-01 5.97075E-30
8.68639E-01 5.71631E-30
8.71572E-01 5.47227E-30
8.74478E-01 5.23821E-30
8.77355E-01 5.01371E-30
8.80203E-01 4.79837E-30
8.83022E-01 4.59181E-30
8.85812E-01 4.39366E-30
8.88573E-01 4.20358E-30
8.91304E-01 4.02122E-30
8.94005E-01 3.84627E-30
8.96677E-01 3.67843E-30
8.99318E-01 3.51739E-30
9.01928E-01 3.36288E-30
9.04508E-01 3.21463E-30
9.07058E-01 3.07238E-30
9.09576E-01 2.93589E-30
9.12063E-01 2.80492E-30
9.14519E-01 2.67924E-30
9.16943E-01 2.55864E-30
9.19335E-01 2.44292E-30
9.21696E-01 2.33186E-30
9.24024E-01 2.22530E-30
9.26320E-01 2.12303E-30
9.28584E-01 2.02489E-30
9.30815E-01 1.93072E-30
9.33013E-01 1.84035E-30
9.35178E-01 1.75362E-30
9.37310E-01 1.67041E-30
9.39409E-01 1.59056E-30
9.41474E-01 1.51394E-30
9.43505E-01 1.44042E-30
9.45503E-01 1.36988E-30
9.47467E-01 1.30221E-30
9.49397E-01 1.23728E-30
9.51293E-01 1.17500E-30
9.53154E-01 1.11525E-30
9.54981E-01 1.05795E-30
9.56773E-01 1.00299E-30
9.58530E-01 9.50294E-31
9.60252E-01 8.99763E-31
9.61940E-01 8.51318E-31
9.63592E-01 8.04880E-31
9.65209E-01 7.60374E-31
9.66790E-01 7.17728E-31
9.68336E-01 6.76871E-31
9.69846E-01 6.37738E-31
9.71321E-01 6.00264E-31
9.72759E-01 5.64391E-31
9.74162E-01 5.30060E-31
9.75528E-01 4.97215E-31
9.76858E-01 4.65803E-31
9.78152E-01 4.35775E-31
9.79410E-01 4.07082E-31
9.80631E-01 3.79679E-31
9.81815E-01 3.53522E-31
9.82963E-01 3.28568E-31
9.84074E-01 3.04778E-31
9.85148E-01 2.82115E-31
9.86185E-01 2.60543E-31
9.87185E-01 2.40026E-31
9.88148E-01 2.20534E-31
9.89074E-01 2.02035E-31
9.89962E-01 1.84499E-31
9.90814E-01 1.67900E-31
9.91627E-01 1.52211E-31
9.92404E-01 1.37408E-31
9.93143E-01 1.23466E-31
9.93844E-01 1.10366E-31
9.94508E-01 9.80846E-32
9.95134E-01 8.66043E-32
9.95722E-01 7.59068E-32
9.96273E-01 6.59751E-32
9.96786E-01 5.67942E-32
9.97261E-01 4.83494E-32
9.97698E-01 4.06276E-32
9.98097E-01 3.36168E-32
9.98459E-01 2.73061E-32
9.98782E-01 2.16858E-32
9.99067E-01 1.67471E-32
9.99315E-01 1.24821E-32
9.99524E-01 8.88452E-33
9.99695E-01 5.94860E-33
9.99829E-01 3.66986E-33
9.99924E-01 2.04467E-33
9.99981E-01 1.07057E-33
1.00000E+00 7.46062E-34
