 #
 # Subroutine ELSEPA. Elastic scattering of electrons and positrons
 #                    by neutral atoms and positive ions
 #
 # Projectile: positron
 # Kinetic energy = 4.00000E+06 eV = 1.46997E+05 a.u.
 #
 # WARNING: High-energy factorization with free-atom DF screening.
 #          Absorption, polarization and exchange corrections are
 #          switched off.
 #          Phase shifts are calculated for the bare nucleus.
 #          Scattering amplitudes are not evaluated.
 #
 # Element: Ba,  Z =  56,  atomic weight = 1.37327E+02 g/mol
 #
 # Nuclear model: Fermi distribution
 #                Average radius = 5.52038E-13 cm
 #                Skin thickness = 5.46000E-14 cm
 #
 # Number of electrons = 56
 #
 # Total elastic cross section = 7.33450E-18 cm**2 = 2.61920E-01 a0**2
 # 1st transport cross section = 1.92902E-22 cm**2 = 6.88866E-06 a0**2
 # 2nd transport cross section = 5.54271E-22 cm**2 = 1.97934E-05 a0**2
 #
 #
 # Differential cross section:                       MU=(1-COS(THETA))/2
 #
 #  THETA        MU          DCS          DCS        Sherman      error
 #  (deg)                 (cm**2/sr)   (a0**2/sr)    function
 #----------------------------------------------------------------------
0.00000E+00 2.52432E-12
7.61557E-13 2.52429E-12
1.18994E-12 2.52427E-12
1.71346E-12 2.52425E-12
2.33225E-12 2.52422E-12
3.04617E-12 2.52419E-12
3.85530E-12 2.52416E-12
4.75964E-12 2.52412E-12
5.75917E-12 2.52408E-12
6.85391E-12 2.52403E-12
8.04379E-12 2.52398E-12
9.32893E-12 2.52393E-12
1.07092E-11 2.52387E-12
1.21847E-11 2.52381E-12
1.37554E-11 2.52374E-12
1.54213E-11 2.52367E-12
1.71823E-11 2.52360E-12
1.90386E-11 2.52352E-12
2.09900E-11 2.52344E-12
2.30367E-11 2.52335E-12
2.51785E-11 2.52326E-12
2.74156E-11 2.52317E-12
2.97478E-11 2.52307E-12
3.21752E-11 2.52297E-12
3.46979E-11 2.52287E-12
3.73157E-11 2.52276E-12
4.00286E-11 2.52264E-12
4.28368E-11 2.52253E-12
4.57402E-11 2.52241E-12
4.87388E-11 2.52228E-12
5.18325E-11 2.52215E-12
5.50215E-11 2.52202E-12
5.83057E-11 2.52188E-12
6.16850E-11 2.52174E-12
6.51595E-11 2.52160E-12
6.87293E-11 2.52145E-12
7.23943E-11 2.52130E-12
7.61544E-11 2.52114E-12
1.18991E-10 2.51937E-12
1.71347E-10 2.51720E-12
2.33223E-10 2.51464E-12
3.04617E-10 2.51170E-12
3.85531E-10 2.50837E-12
4.75965E-10 2.50466E-12
5.75917E-10 2.50057E-12
6.85389E-10 2.49610E-12
8.04380E-10 2.49126E-12
9.32891E-10 2.48605E-12
1.07092E-09 2.48048E-12
1.21847E-09 2.47454E-12
1.37554E-09 2.46824E-12
1.54213E-09 2.46159E-12
1.71823E-09 2.45460E-12
1.90386E-09 2.44725E-12
2.09900E-09 2.43957E-12
2.30367E-09 2.43156E-12
2.51785E-09 2.42322E-12
2.74156E-09 2.41456E-12
2.97478E-09 2.40558E-12
3.21752E-09 2.39629E-12
3.46978E-09 2.38670E-12
3.73156E-09 2.37681E-12
4.00286E-09 2.36663E-12
4.28368E-09 2.35617E-12
4.57402E-09 2.34543E-12
4.87388E-09 2.33442E-12
5.18326E-09 2.32315E-12
5.50215E-09 2.31163E-12
5.83057E-09 2.29985E-12
6.16850E-09 2.28784E-12
6.51596E-09 2.27559E-12
6.87293E-09 2.26311E-12
7.23942E-09 2.25042E-12
7.61544E-09 2.23752E-12
1.18991E-08 2.09888E-12
1.71347E-08 1.94745E-12
2.33223E-08 1.79108E-12
3.04617E-08 1.63519E-12
3.85531E-08 1.48447E-12
4.75965E-08 1.34233E-12
5.75917E-08 1.21105E-12
6.85389E-08 1.09289E-12
8.04380E-08 9.86504E-13
9.32891E-08 8.91538E-13
1.07092E-07 8.07295E-13
1.21847E-07 7.32870E-13
1.37554E-07 6.67621E-13
1.54213E-07 6.10154E-13
1.71823E-07 5.59283E-13
1.90386E-07 5.14173E-13
2.09900E-07 4.74068E-13
2.30367E-07 4.38318E-13
2.51785E-07 4.06346E-13
2.74156E-07 3.77531E-13
2.97478E-07 3.51470E-13
3.21752E-07 3.27816E-13
3.46978E-07 3.06273E-13
3.73156E-07 2.86551E-13
4.00286E-07 2.68437E-13
4.28368E-07 2.51768E-13
4.57402E-07 2.36394E-13
4.87388E-07 2.22184E-13
5.18325E-07 2.09007E-13
5.50215E-07 1.96739E-13
5.83057E-07 1.85340E-13
6.16850E-07 1.74735E-13
6.51596E-07 1.64858E-13
6.87293E-07 1.55650E-13
7.23942E-07 1.47024E-13
7.61543E-07 1.38963E-13
1.18991E-06 8.16038E-14
1.71347E-06 5.10738E-14
2.33223E-06 3.36943E-14
3.04617E-06 2.32461E-14
3.85531E-06 1.65796E-14
4.75964E-06 1.21230E-14
5.75916E-06 9.03436E-15
6.85388E-06 6.82523E-15
8.04378E-06 5.24686E-15
9.32888E-06 4.09854E-15
1.07092E-05 3.24968E-15
1.21846E-05 2.61296E-15
1.37553E-05 2.12764E-15
1.54212E-05 1.75323E-15
1.71822E-05 1.46055E-15
1.90385E-05 1.22816E-15
2.09899E-05 1.04243E-15
2.30365E-05 8.91285E-16
2.51783E-05 7.66568E-16
2.74153E-05 6.63224E-16
2.97475E-05 5.76642E-16
3.21749E-05 5.03594E-16
3.46974E-05 4.41750E-16
3.73152E-05 3.88958E-16
4.00281E-05 3.43743E-16
4.28362E-05 3.04852E-16
4.57395E-05 2.71226E-16
4.87380E-05 2.42018E-16
5.18317E-05 2.16526E-16
5.50205E-05 1.94180E-16
5.83045E-05 1.74593E-16
6.16838E-05 1.57379E-16
6.51582E-05 1.42212E-16
6.87277E-05 1.28816E-16
7.23925E-05 1.16940E-16
7.61524E-05 1.06398E-16
9.21439E-05 7.44383E-17
1.09658E-04 5.36187E-17
1.28695E-04 3.96022E-17
1.49255E-04 2.99139E-17
1.71338E-04 2.30304E-17
1.94942E-04 1.80239E-17
2.20070E-04 1.43069E-17
2.46720E-04 1.14997E-17
2.74892E-04 9.34868E-18
3.04586E-04 7.67769E-18
3.35803E-04 6.36306E-18
3.68542E-04 5.31710E-18
4.02802E-04 4.47594E-18
4.38585E-04 3.79420E-18
4.75889E-04 3.23702E-18
5.14715E-04 2.77808E-18
5.55063E-04 2.39734E-18
5.96931E-04 2.07919E-18
6.40321E-04 1.81188E-18
6.85233E-04 1.58604E-18
7.31665E-04 1.39420E-18
7.79618E-04 1.23042E-18
8.29092E-04 1.08990E-18
8.80086E-04 9.68779E-19
9.32601E-04 8.63987E-19
9.86636E-04 7.72955E-19
1.04219E-03 6.93575E-19
1.09927E-03 6.24105E-19
1.15786E-03 5.63085E-19
1.21797E-03 5.09327E-19
1.27961E-03 4.61822E-19
1.34276E-03 4.19719E-19
1.40743E-03 3.82298E-19
1.47362E-03 3.48945E-19
1.54133E-03 3.19141E-19
1.61056E-03 2.92447E-19
1.68131E-03 2.68482E-19
1.75357E-03 2.46918E-19
1.82735E-03 2.27472E-19
1.90265E-03 2.09897E-19
1.97947E-03 1.93984E-19
2.05780E-03 1.79547E-19
2.13765E-03 1.66427E-19
2.21902E-03 1.54480E-19
2.30190E-03 1.43584E-19
2.38630E-03 1.33629E-19
2.47222E-03 1.24519E-19
2.55965E-03 1.16171E-19
2.64859E-03 1.08510E-19
2.73905E-03 1.01468E-19
2.83103E-03 9.49855E-20
2.92452E-03 8.90113E-20
3.01952E-03 8.34982E-20
3.11604E-03 7.84042E-20
3.21407E-03 7.36915E-20
3.31362E-03 6.93263E-20
3.41468E-03 6.52783E-20
3.51725E-03 6.15205E-20
3.62133E-03 5.80284E-20
3.72692E-03 5.47797E-20
3.83403E-03 5.17543E-20
3.94265E-03 4.89339E-20
4.05278E-03 4.63023E-20
4.16442E-03 4.38446E-20
4.27757E-03 4.15471E-20
4.39223E-03 3.93976E-20
4.50840E-03 3.73846E-20
4.62608E-03 3.54979E-20
4.74527E-03 3.37282E-20
4.86597E-03 3.20670E-20
4.98817E-03 3.05064E-20
5.11188E-03 2.90390E-20
5.23711E-03 2.76584E-20
5.36383E-03 2.63584E-20
5.49207E-03 2.51336E-20
5.62181E-03 2.39787E-20
5.75306E-03 2.28892E-20
5.88581E-03 2.18603E-20
6.02007E-03 2.08884E-20
6.15583E-03 1.99696E-20
6.29310E-03 1.91005E-20
6.43187E-03 1.82779E-20
6.57214E-03 1.74989E-20
6.71392E-03 1.67607E-20
6.85720E-03 1.60608E-20
7.00198E-03 1.53968E-20
7.14827E-03 1.47666E-20
7.29605E-03 1.41681E-20
7.44534E-03 1.35995E-20
7.59612E-03 1.30589E-20
7.97965E-03 1.18198E-20
8.37255E-03 1.07234E-20
8.77480E-03 9.75045E-21
9.18641E-03 8.88475E-21
9.60736E-03 8.11244E-21
1.00376E-02 7.42174E-21
1.04773E-02 6.80253E-21
1.09262E-02 6.24615E-21
1.13844E-02 5.74514E-21
1.18520E-02 5.29301E-21
1.23288E-02 4.88420E-21
1.28150E-02 4.51384E-21
1.33104E-02 4.17768E-21
1.38150E-02 3.87202E-21
1.43290E-02 3.59360E-21
1.48521E-02 3.33957E-21
1.53845E-02 3.10742E-21
1.59262E-02 2.89496E-21
1.64770E-02 2.70020E-21
1.70371E-02 2.52142E-21
1.76063E-02 2.35708E-21
1.81848E-02 2.20580E-21
1.87724E-02 2.06637E-21
1.93692E-02 1.93769E-21
1.99751E-02 1.81879E-21
2.05901E-02 1.70879E-21
2.12143E-02 1.60691E-21
2.18476E-02 1.51245E-21
2.24900E-02 1.42477E-21
2.31415E-02 1.34329E-21
2.38021E-02 1.26750E-21
2.44717E-02 1.19693E-21
2.51504E-02 1.13116E-21
2.58382E-02 1.06981E-21
2.65349E-02 1.01252E-21
2.72407E-02 9.58975E-22
2.79555E-02 9.08889E-22
2.86793E-02 8.62000E-22
2.94120E-02 8.18066E-22
3.01537E-02 7.76868E-22
3.09043E-02 7.38205E-22
3.16639E-02 7.01892E-22
3.24324E-02 6.67762E-22
3.32098E-02 6.35660E-22
3.39961E-02 6.05444E-22
3.47912E-02 5.76982E-22
3.55952E-02 5.50157E-22
3.64081E-02 5.24854E-22
3.72297E-02 5.00974E-22
3.80602E-02 4.78421E-22
3.88995E-02 4.57110E-22
3.97476E-02 4.36958E-22
4.06044E-02 4.17892E-22
4.14700E-02 3.99842E-22
4.23443E-02 3.82746E-22
4.32273E-02 3.66542E-22
4.41190E-02 3.51177E-22
4.50194E-02 3.36599E-22
4.59284E-02 3.22761E-22
4.68461E-02 3.09617E-22
4.87074E-02 2.85255E-22
5.06030E-02 2.63213E-22
5.25328E-02 2.43234E-22
5.44967E-02 2.25092E-22
5.64946E-02 2.08589E-22
5.85262E-02 1.93552E-22
6.05914E-02 1.79828E-22
6.26901E-02 1.67283E-22
6.48222E-02 1.55799E-22
6.69873E-02 1.45269E-22
6.91854E-02 1.35602E-22
7.14163E-02 1.26715E-22
7.36799E-02 1.18533E-22
7.59760E-02 1.10991E-22
7.83043E-02 1.04031E-22
8.06647E-02 9.75990E-23
8.30571E-02 9.16492E-23
8.54812E-02 8.61388E-23
8.79369E-02 8.10298E-23
9.04240E-02 7.62877E-23
9.29422E-02 7.18817E-23
9.54915E-02 6.77839E-23
9.80716E-02 6.39689E-23
1.00682E-01 6.04139E-23
1.03323E-01 5.70981E-23
1.05995E-01 5.40026E-23
1.08696E-01 5.11102E-23
1.11427E-01 4.84052E-23
1.14188E-01 4.58735E-23
1.16978E-01 4.35019E-23
1.19797E-01 4.12786E-23
1.22645E-01 3.91927E-23
1.25522E-01 3.72342E-23
1.28428E-01 3.53941E-23
1.31361E-01 3.36639E-23
1.34323E-01 3.20358E-23
1.37313E-01 3.05029E-23
1.40330E-01 2.90586E-23
1.43375E-01 2.76968E-23
1.46447E-01 2.64121E-23
1.49545E-01 2.51992E-23
1.52671E-01 2.40536E-23
1.55823E-01 2.29708E-23
1.59001E-01 2.19468E-23
1.62205E-01 2.09778E-23
1.65435E-01 2.00604E-23
1.68690E-01 1.91913E-23
1.71970E-01 1.83675E-23
1.75276E-01 1.75863E-23
1.78606E-01 1.68451E-23
1.81961E-01 1.61415E-23
1.85340E-01 1.54732E-23
1.88743E-01 1.48382E-23
1.92169E-01 1.42346E-23
1.95619E-01 1.36604E-23
1.99092E-01 1.31140E-23
2.02589E-01 1.25939E-23
2.06107E-01 1.20985E-23
2.09649E-01 1.16265E-23
2.13212E-01 1.11765E-23
2.16797E-01 1.07475E-23
2.20404E-01 1.03382E-23
2.24032E-01 9.94749E-24
2.27680E-01 9.57448E-24
2.31350E-01 9.21820E-24
2.35040E-01 8.87777E-24
2.38751E-01 8.55236E-24
2.42481E-01 8.24120E-24
2.46231E-01 7.94355E-24
2.50000E-01 7.65873E-24
2.53788E-01 7.38609E-24
2.57595E-01 7.12502E-24
2.61421E-01 6.87493E-24
2.65264E-01 6.63529E-24
2.69126E-01 6.40558E-24
2.73005E-01 6.18533E-24
2.76901E-01 5.97407E-24
2.80814E-01 5.77139E-24
2.84744E-01 5.57686E-24
2.88691E-01 5.39012E-24
2.92653E-01 5.21078E-24
2.96632E-01 5.03851E-24
3.00625E-01 4.87297E-24
3.04634E-01 4.71387E-24
3.08658E-01 4.56090E-24
3.12697E-01 4.41379E-24
3.16749E-01 4.27229E-24
3.20816E-01 4.13613E-24
3.24896E-01 4.00509E-24
3.28990E-01 3.87893E-24
3.33097E-01 3.75745E-24
3.37216E-01 3.64044E-24
3.41348E-01 3.52771E-24
3.45492E-01 3.41907E-24
3.49647E-01 3.31435E-24
3.53814E-01 3.21339E-24
3.57992E-01 3.11602E-24
3.62181E-01 3.02211E-24
3.66381E-01 2.93151E-24
3.70590E-01 2.84407E-24
3.74810E-01 2.75967E-24
3.79039E-01 2.67819E-24
3.83277E-01 2.59951E-24
3.87524E-01 2.52351E-24
3.91780E-01 2.45009E-24
3.96044E-01 2.37915E-24
4.00316E-01 2.31059E-24
4.04596E-01 2.24432E-24
4.08882E-01 2.18025E-24
4.13176E-01 2.11828E-24
4.17476E-01 2.05835E-24
4.21783E-01 2.00037E-24
4.26095E-01 1.94427E-24
4.30413E-01 1.88998E-24
4.34737E-01 1.83742E-24
4.39065E-01 1.78655E-24
4.43398E-01 1.73728E-24
4.47736E-01 1.68957E-24
4.52077E-01 1.64336E-24
4.56422E-01 1.59859E-24
4.60770E-01 1.55521E-24
4.65122E-01 1.51316E-24
4.69476E-01 1.47241E-24
4.73832E-01 1.43290E-24
4.78190E-01 1.39459E-24
4.82550E-01 1.35744E-24
4.86912E-01 1.32141E-24
4.91274E-01 1.28646E-24
4.95637E-01 1.25255E-24
5.00000E-01 1.21964E-24
5.04363E-01 1.18770E-24
5.08726E-01 1.15670E-24
5.13088E-01 1.12660E-24
5.17450E-01 1.09738E-24
5.21810E-01 1.06901E-24
5.26168E-01 1.04145E-24
5.30524E-01 1.01469E-24
5.34878E-01 9.88681E-25
5.39230E-01 9.63414E-25
5.43578E-01 9.38860E-25
5.47923E-01 9.14995E-25
5.52264E-01 8.91800E-25
5.56602E-01 8.69251E-25
5.60935E-01 8.47328E-25
5.65263E-01 8.26011E-25
5.69587E-01 8.05281E-25
5.73905E-01 7.85118E-25
5.78217E-01 7.65505E-25
5.82524E-01 7.46423E-25
5.86824E-01 7.27857E-25
5.91118E-01 7.09791E-25
5.95404E-01 6.92209E-25
5.99684E-01 6.75096E-25
6.03956E-01 6.58439E-25
6.08220E-01 6.42222E-25
6.12476E-01 6.26433E-25
6.16723E-01 6.11059E-25
6.20961E-01 5.96087E-25
6.25190E-01 5.81504E-25
6.29410E-01 5.67300E-25
6.33619E-01 5.53463E-25
6.37819E-01 5.39983E-25
6.42008E-01 5.26848E-25
6.46186E-01 5.14049E-25
6.50353E-01 5.01575E-25
6.54508E-01 4.89418E-25
6.58652E-01 4.77569E-25
6.62784E-01 4.66018E-25
6.66903E-01 4.54757E-25
6.71010E-01 4.43777E-25
6.75104E-01 4.33071E-25
6.79184E-01 4.22630E-25
6.83251E-01 4.12448E-25
6.87303E-01 4.02517E-25
6.91342E-01 3.92830E-25
6.95366E-01 3.83380E-25
6.99375E-01 3.74162E-25
7.03368E-01 3.65167E-25
7.07347E-01 3.56391E-25
7.11309E-01 3.47827E-25
7.15256E-01 3.39470E-25
7.19186E-01 3.31313E-25
7.23099E-01 3.23352E-25
7.26995E-01 3.15581E-25
7.30874E-01 3.07995E-25
7.34736E-01 3.00590E-25
7.38579E-01 2.93360E-25
7.42405E-01 2.86301E-25
7.46212E-01 2.79408E-25
7.50000E-01 2.72677E-25
7.53769E-01 2.66104E-25
7.57519E-01 2.59685E-25
7.61249E-01 2.53415E-25
7.64960E-01 2.47292E-25
7.68650E-01 2.41310E-25
7.72320E-01 2.35467E-25
7.75968E-01 2.29759E-25
7.79596E-01 2.24183E-25
7.83203E-01 2.18735E-25
7.86788E-01 2.13412E-25
7.90351E-01 2.08211E-25
7.93893E-01 2.03129E-25
7.97411E-01 1.98163E-25
8.00908E-01 1.93311E-25
8.04381E-01 1.88568E-25
8.07831E-01 1.83934E-25
8.11257E-01 1.79404E-25
8.14660E-01 1.74978E-25
8.18039E-01 1.70651E-25
8.21394E-01 1.66422E-25
8.24724E-01 1.62288E-25
8.28030E-01 1.58248E-25
8.31310E-01 1.54299E-25
8.34565E-01 1.50438E-25
8.37795E-01 1.46664E-25
8.40999E-01 1.42975E-25
8.44177E-01 1.39369E-25
8.47329E-01 1.35844E-25
8.50455E-01 1.32398E-25
8.53553E-01 1.29029E-25
8.56625E-01 1.25735E-25
8.59670E-01 1.22516E-25
8.62687E-01 1.19369E-25
8.65677E-01 1.16292E-25
8.68639E-01 1.13284E-25
8.71572E-01 1.10344E-25
8.74478E-01 1.07469E-25
8.77355E-01 1.04660E-25
8.80203E-01 1.01913E-25
8.83022E-01 9.92288E-26
8.85812E-01 9.66047E-26
8.88573E-01 9.40399E-26
8.91304E-01 9.15332E-26
8.94005E-01 8.90832E-26
8.96677E-01 8.66889E-26
8.99318E-01 8.43490E-26
9.01928E-01 8.20625E-26
9.04508E-01 7.98282E-26
9.07058E-01 7.76452E-26
9.09576E-01 7.55124E-26
9.12063E-01 7.34287E-26
9.14519E-01 7.13933E-26
9.16943E-01 6.94052E-26
9.19335E-01 6.74634E-26
9.21696E-01 6.55671E-26
9.24024E-01 6.37154E-26
9.26320E-01 6.19075E-26
9.28584E-01 6.01425E-26
9.30815E-01 5.84197E-26
9.33013E-01 5.67382E-26
9.35178E-01 5.50974E-26
9.37310E-01 5.34964E-26
9.39409E-01 5.19347E-26
9.41474E-01 5.04114E-26
9.43505E-01 4.89259E-26
9.45503E-01 4.74776E-26
9.47467E-01 4.60658E-26
9.49397E-01 4.46900E-26
9.51293E-01 4.33494E-26
9.53154E-01 4.20436E-26
9.54981E-01 4.07719E-26
9.56773E-01 3.95339E-26
9.58530E-01 3.83289E-26
9.60252E-01 3.71565E-26
9.61940E-01 3.60162E-26
9.63592E-01 3.49075E-26
9.65209E-01 3.38299E-26
9.66790E-01 3.27830E-26
9.68336E-01 3.17663E-26
9.69846E-01 3.07794E-26
9.71321E-01 2.98219E-26
9.72759E-01 2.88934E-26
9.74162E-01 2.79935E-26
9.75528E-01 2.71218E-26
9.76858E-01 2.62780E-26
9.78152E-01 2.54617E-26
9.79410E-01 2.46726E-26
9.80631E-01 2.39103E-26
9.81815E-01 2.31746E-26
9.82963E-01 2.24651E-26
9.84074E-01 2.17816E-26
9.85148E-01 2.11238E-26
9.86185E-01 2.04914E-26
9.87185E-01 1.98841E-26
9.88148E-01 1.93017E-26
9.89074E-01 1.87440E-26
9.89962E-01 1.82108E-26
9.90814E-01 1.77018E-26
9.91627E-01 1.72168E-26
9.92404E-01 1.67556E-26
9.93143E-01 1.63181E-26
9.93844E-01 1.59041E-26
9.94508E-01 1.55133E-26
9.95134E-01 1.51457E-26
9.95722E-01 1.48012E-26
9.96273E-01 1.44794E-26
9.96786E-01 1.41805E-26
9.97261E-01 1.39041E-26
9.97698E-01 1.36503E-26
9.98097E-01 1.34188E-26
9.98459E-01 1.32097E-26
9.98782E-01 1.30228E-26
9.99067E-01 1.28581E-26
9.99315E-01 1.27155E-26
9.99524E-01 1.25949E-26
9.99695E-01 1.24963E-26
9.99829E-01 1.24196E-26
9.99924E-01 1.23649E-26
9.99981E-01 1.23321E-26
1.00000E+00 1.23211E-26
