 #
 # Subroutine ELSEPA. Elastic scattering of electrons and positrons
 #                    by neutral atoms and positive ions
 #
 # Projectile: positron
 # Kinetic energy = 1.50000E+06 eV = 5.51240E+04 a.u.
 #
 # WARNING: High-energy factorization with free-atom DF screening.
 #          Absorption, polarization and exchange corrections are
 #          switched off.
 #          Phase shifts are calculated for the bare nucleus.
 #          Scattering amplitudes are not evaluated.
 #
 # Element: Ba,  Z =  56,  atomic weight = 1.37327E+02 g/mol
 #
 # Nuclear model: Fermi distribution
 #                Average radius = 5.52038E-13 cm
 #                Skin thickness = 5.46000E-14 cm
 #
 # Number of electrons = 56
 #
 # Total elastic cross section = 7.73194E-18 cm**2 = 2.76113E-01 a0**2
 # 1st transport cross section = 9.00823E-22 cm**2 = 3.21690E-05 a0**2
 # 2nd transport cross section = 2.55414E-21 cm**2 = 9.12098E-05 a0**2
 #
 #
 # Differential cross section:                       MU=(1-COS(THETA))/2
 #
 #  THETA        MU          DCS          DCS        Sherman      error
 #  (deg)                 (cm**2/sr)   (a0**2/sr)    function
 #----------------------------------------------------------------------
0.00000E+00 5.01676E-13
7.61557E-13 5.01674E-13
1.18994E-12 5.01674E-13
1.71346E-12 5.01673E-13
2.33225E-12 5.01672E-13
3.04617E-12 5.01670E-13
3.85530E-12 5.01669E-13
4.75964E-12 5.01668E-13
5.75917E-12 5.01666E-13
6.85391E-12 5.01664E-13
8.04379E-12 5.01662E-13
9.32893E-12 5.01660E-13
1.07092E-11 5.01658E-13
1.21847E-11 5.01655E-13
1.37554E-11 5.01653E-13
1.54213E-11 5.01650E-13
1.71823E-11 5.01647E-13
1.90386E-11 5.01644E-13
2.09900E-11 5.01641E-13
2.30367E-11 5.01638E-13
2.51785E-11 5.01634E-13
2.74156E-11 5.01631E-13
2.97478E-11 5.01627E-13
3.21752E-11 5.01623E-13
3.46979E-11 5.01619E-13
3.73157E-11 5.01615E-13
4.00286E-11 5.01611E-13
4.28368E-11 5.01606E-13
4.57402E-11 5.01602E-13
4.87388E-11 5.01597E-13
5.18325E-11 5.01592E-13
5.50215E-11 5.01587E-13
5.83057E-11 5.01582E-13
6.16850E-11 5.01576E-13
6.51595E-11 5.01571E-13
6.87293E-11 5.01565E-13
7.23943E-11 5.01559E-13
7.61544E-11 5.01554E-13
1.18991E-10 5.01486E-13
1.71347E-10 5.01404E-13
2.33223E-10 5.01307E-13
3.04617E-10 5.01195E-13
3.85531E-10 5.01069E-13
4.75965E-10 5.00928E-13
5.75917E-10 5.00772E-13
6.85389E-10 5.00602E-13
8.04380E-10 5.00417E-13
9.32891E-10 5.00218E-13
1.07092E-09 5.00004E-13
1.21847E-09 4.99776E-13
1.37554E-09 4.99532E-13
1.54213E-09 4.99275E-13
1.71823E-09 4.99003E-13
1.90386E-09 4.98717E-13
2.09900E-09 4.98416E-13
2.30367E-09 4.98102E-13
2.51785E-09 4.97772E-13
2.74156E-09 4.97429E-13
2.97478E-09 4.97072E-13
3.21752E-09 4.96700E-13
3.46978E-09 4.96314E-13
3.73156E-09 4.95915E-13
4.00286E-09 4.95501E-13
4.28368E-09 4.95074E-13
4.57402E-09 4.94632E-13
4.87388E-09 4.94177E-13
5.18326E-09 4.93708E-13
5.50215E-09 4.93225E-13
5.83057E-09 4.92730E-13
6.16850E-09 4.92220E-13
6.51596E-09 4.91697E-13
6.87293E-09 4.91160E-13
7.23942E-09 4.90610E-13
7.61544E-09 4.90047E-13
1.18991E-08 4.83707E-13
1.71347E-08 4.76135E-13
2.33223E-08 4.67430E-13
3.04617E-08 4.57700E-13
3.85531E-08 4.47062E-13
4.75965E-08 4.35640E-13
5.75917E-08 4.23556E-13
6.85389E-08 4.11064E-13
8.04380E-08 3.98074E-13
9.32891E-08 3.84613E-13
1.07092E-07 3.71262E-13
1.21847E-07 3.57689E-13
1.37554E-07 3.43969E-13
1.54213E-07 3.30705E-13
1.71823E-07 3.17395E-13
1.90386E-07 3.04267E-13
2.09900E-07 2.91695E-13
2.30367E-07 2.79239E-13
2.51785E-07 2.67219E-13
2.74156E-07 2.55746E-13
2.97478E-07 2.44488E-13
3.21752E-07 2.33829E-13
3.46978E-07 2.23647E-13
3.73156E-07 2.13725E-13
4.00286E-07 2.04487E-13
4.28368E-07 1.95624E-13
4.57402E-07 1.87034E-13
4.87388E-07 1.79143E-13
5.18325E-07 1.71528E-13
5.50215E-07 1.64229E-13
5.83057E-07 1.57491E-13
6.16850E-07 1.50997E-13
6.51596E-07 1.44836E-13
6.87293E-07 1.39095E-13
7.23942E-07 1.33574E-13
7.61543E-07 1.28376E-13
1.18991E-06 8.91435E-14
1.71347E-06 6.49458E-14
2.33223E-06 4.88270E-14
3.04617E-06 3.74320E-14
3.85531E-06 2.91032E-14
4.75964E-06 2.28942E-14
5.75916E-06 1.82236E-14
6.85388E-06 1.45642E-14
8.04378E-06 1.18451E-14
9.32888E-06 9.82686E-15
1.07092E-05 8.13864E-15
1.21846E-05 6.83345E-15
1.37553E-05 5.81403E-15
1.54212E-05 4.93457E-15
1.71822E-05 4.23823E-15
1.90385E-05 3.66523E-15
2.09899E-05 3.16932E-15
2.30365E-05 2.76510E-15
2.51783E-05 2.41973E-15
2.74153E-05 2.11896E-15
2.97475E-05 1.86863E-15
3.21749E-05 1.64967E-15
3.46974E-05 1.46020E-15
3.73152E-05 1.30001E-15
4.00281E-05 1.15785E-15
4.28362E-05 1.03498E-15
4.57395E-05 9.29444E-16
4.87380E-05 8.34854E-16
5.18317E-05 7.52805E-16
5.50205E-05 6.81142E-16
5.83045E-05 6.17079E-16
6.16838E-05 5.60974E-16
6.51582E-05 5.11345E-16
6.87277E-05 4.66974E-16
7.23925E-05 4.27720E-16
7.61524E-05 3.92586E-16
9.21439E-05 2.84351E-16
1.09658E-04 2.12038E-16
1.28695E-04 1.61674E-16
1.49255E-04 1.25670E-16
1.71338E-04 9.90613E-17
1.94942E-04 7.90894E-17
2.20070E-04 6.38675E-17
2.46720E-04 5.20635E-17
2.74892E-04 4.28267E-17
3.04586E-04 3.54972E-17
3.35803E-04 2.96477E-17
3.68542E-04 2.49399E-17
4.02802E-04 2.11231E-17
4.38585E-04 1.80088E-17
4.75889E-04 1.54451E-17
5.14715E-04 1.33222E-17
5.55063E-04 1.15512E-17
5.96931E-04 1.00655E-17
6.40321E-04 8.80867E-18
6.85233E-04 7.74554E-18
7.31665E-04 6.84248E-18
7.79618E-04 6.06292E-18
8.29092E-04 5.39385E-18
8.80086E-04 4.81627E-18
9.32601E-04 4.31150E-18
9.86636E-04 3.87281E-18
1.04219E-03 3.48886E-18
1.09927E-03 3.15034E-18
1.15786E-03 2.85289E-18
1.21797E-03 2.58940E-18
1.27961E-03 2.35521E-18
1.34276E-03 2.14751E-18
1.40743E-03 1.96168E-18
1.47362E-03 1.79548E-18
1.54133E-03 1.64690E-18
1.61056E-03 1.51278E-18
1.68131E-03 1.39215E-18
1.75357E-03 1.28353E-18
1.82735E-03 1.18479E-18
1.90265E-03 1.09554E-18
1.97947E-03 1.01457E-18
2.05780E-03 9.40689E-19
2.13765E-03 8.73519E-19
2.21902E-03 8.12195E-19
2.30190E-03 7.56027E-19
2.38630E-03 7.04702E-19
2.47222E-03 6.57586E-19
2.55965E-03 6.14292E-19
2.64859E-03 5.74550E-19
2.73905E-03 5.37884E-19
2.83103E-03 5.04086E-19
2.92452E-03 4.72934E-19
3.01952E-03 4.44069E-19
3.11604E-03 4.17384E-19
3.21407E-03 3.92689E-19
3.31362E-03 3.69733E-19
3.41468E-03 3.48446E-19
3.51725E-03 3.28666E-19
3.62133E-03 3.10237E-19
3.72692E-03 2.93092E-19
3.83403E-03 2.77106E-19
3.94265E-03 2.62179E-19
4.05278E-03 2.48251E-19
4.16442E-03 2.35221E-19
4.27757E-03 2.23029E-19
4.39223E-03 2.11622E-19
4.50840E-03 2.00920E-19
4.62608E-03 1.90886E-19
4.74527E-03 1.81474E-19
4.86597E-03 1.72621E-19
4.98817E-03 1.64303E-19
5.11188E-03 1.56481E-19
5.23711E-03 1.49109E-19
5.36383E-03 1.42169E-19
5.49207E-03 1.35626E-19
5.62181E-03 1.29450E-19
5.75306E-03 1.23623E-19
5.88581E-03 1.18118E-19
6.02007E-03 1.12913E-19
6.15583E-03 1.07992E-19
6.29310E-03 1.03334E-19
6.43187E-03 9.89226E-20
6.57214E-03 9.47451E-20
6.71392E-03 9.07823E-20
6.85720E-03 8.70243E-20
7.00198E-03 8.34594E-20
7.14827E-03 8.00718E-20
7.29605E-03 7.68548E-20
7.44534E-03 7.37976E-20
7.59612E-03 7.08886E-20
7.97965E-03 6.42186E-20
8.37255E-03 5.83115E-20
8.77480E-03 5.30652E-20
9.18641E-03 4.83930E-20
9.60736E-03 4.42214E-20
1.00376E-02 4.04877E-20
1.04773E-02 3.71380E-20
1.09262E-02 3.41260E-20
1.13844E-02 3.14117E-20
1.18520E-02 2.89607E-20
1.23288E-02 2.67429E-20
1.28150E-02 2.47322E-20
1.33104E-02 2.29059E-20
1.38150E-02 2.12441E-20
1.43290E-02 1.97294E-20
1.48521E-02 1.83466E-20
1.53845E-02 1.70821E-20
1.59262E-02 1.59241E-20
1.64770E-02 1.48619E-20
1.70371E-02 1.38862E-20
1.76063E-02 1.29887E-20
1.81848E-02 1.21621E-20
1.87724E-02 1.13998E-20
1.93692E-02 1.06958E-20
1.99751E-02 1.00450E-20
2.05901E-02 9.44254E-21
2.12143E-02 8.88426E-21
2.18476E-02 8.36632E-21
2.24900E-02 7.88527E-21
2.31415E-02 7.43802E-21
2.38021E-02 7.02179E-21
2.44717E-02 6.63403E-21
2.51504E-02 6.27245E-21
2.58382E-02 5.93497E-21
2.65349E-02 5.61969E-21
2.72407E-02 5.32489E-21
2.79555E-02 5.04900E-21
2.86793E-02 4.79057E-21
2.94120E-02 4.54832E-21
3.01537E-02 4.32106E-21
3.09043E-02 4.10769E-21
3.16639E-02 3.90719E-21
3.24324E-02 3.71867E-21
3.32098E-02 3.54128E-21
3.39961E-02 3.37422E-21
3.47912E-02 3.21681E-21
3.55952E-02 3.06838E-21
3.64081E-02 2.92833E-21
3.72297E-02 2.79609E-21
3.80602E-02 2.67116E-21
3.88995E-02 2.55306E-21
3.97476E-02 2.44135E-21
4.06044E-02 2.33561E-21
4.14700E-02 2.23548E-21
4.23443E-02 2.14059E-21
4.32273E-02 2.05063E-21
4.41190E-02 1.96530E-21
4.50194E-02 1.88431E-21
4.59284E-02 1.80741E-21
4.68461E-02 1.73434E-21
4.87074E-02 1.59883E-21
5.06030E-02 1.47616E-21
5.25328E-02 1.36490E-21
5.44967E-02 1.26381E-21
5.64946E-02 1.17180E-21
5.85262E-02 1.08792E-21
6.05914E-02 1.01132E-21
6.26901E-02 9.41260E-22
6.48222E-02 8.77091E-22
6.69873E-02 8.18234E-22
6.91854E-02 7.64167E-22
7.14163E-02 7.14435E-22
7.36799E-02 6.68633E-22
7.59760E-02 6.26395E-22
7.83043E-02 5.87394E-22
8.06647E-02 5.51342E-22
8.30571E-02 5.17976E-22
8.54812E-02 4.87060E-22
8.79369E-02 4.58385E-22
9.04240E-02 4.31759E-22
9.29422E-02 4.07010E-22
9.54915E-02 3.83983E-22
9.80716E-02 3.62539E-22
1.00682E-01 3.42547E-22
1.03323E-01 3.23894E-22
1.05995E-01 3.06474E-22
1.08696E-01 2.90190E-22
1.11427E-01 2.74957E-22
1.14188E-01 2.60695E-22
1.16978E-01 2.47329E-22
1.19797E-01 2.34796E-22
1.22645E-01 2.23033E-22
1.25522E-01 2.11985E-22
1.28428E-01 2.01601E-22
1.31361E-01 1.91834E-22
1.34323E-01 1.82641E-22
1.37313E-01 1.73982E-22
1.40330E-01 1.65821E-22
1.43375E-01 1.58125E-22
1.46447E-01 1.50861E-22
1.49545E-01 1.44002E-22
1.52671E-01 1.37520E-22
1.55823E-01 1.31393E-22
1.59001E-01 1.25596E-22
1.62205E-01 1.20109E-22
1.65435E-01 1.14912E-22
1.68690E-01 1.09988E-22
1.71970E-01 1.05319E-22
1.75276E-01 1.00890E-22
1.78606E-01 9.66872E-23
1.81961E-01 9.26957E-23
1.85340E-01 8.89036E-23
1.88743E-01 8.52994E-23
1.92169E-01 8.18717E-23
1.95619E-01 7.86106E-23
1.99092E-01 7.55067E-23
2.02589E-01 7.25508E-23
2.06107E-01 6.97348E-23
2.09649E-01 6.70508E-23
2.13212E-01 6.44917E-23
2.16797E-01 6.20505E-23
2.20404E-01 5.97208E-23
2.24032E-01 5.74967E-23
2.27680E-01 5.53726E-23
2.31350E-01 5.33432E-23
2.35040E-01 5.14034E-23
2.38751E-01 4.95487E-23
2.42481E-01 4.77747E-23
2.46231E-01 4.60772E-23
2.50000E-01 4.44524E-23
2.53788E-01 4.28965E-23
2.57595E-01 4.14063E-23
2.61421E-01 3.99783E-23
2.65264E-01 3.86096E-23
2.69126E-01 3.72972E-23
2.73005E-01 3.60385E-23
2.76901E-01 3.48308E-23
2.80814E-01 3.36718E-23
2.84744E-01 3.25590E-23
2.88691E-01 3.14905E-23
2.92653E-01 3.04640E-23
2.96632E-01 2.94776E-23
3.00625E-01 2.85296E-23
3.04634E-01 2.76180E-23
3.08658E-01 2.67414E-23
3.12697E-01 2.58982E-23
3.16749E-01 2.50867E-23
3.20816E-01 2.43057E-23
3.24896E-01 2.35538E-23
3.28990E-01 2.28296E-23
3.33097E-01 2.21321E-23
3.37216E-01 2.14601E-23
3.41348E-01 2.08124E-23
3.45492E-01 2.01881E-23
3.49647E-01 1.95861E-23
3.53814E-01 1.90054E-23
3.57992E-01 1.84454E-23
3.62181E-01 1.79049E-23
3.66381E-01 1.73834E-23
3.70590E-01 1.68799E-23
3.74810E-01 1.63937E-23
3.79039E-01 1.59242E-23
3.83277E-01 1.54707E-23
3.87524E-01 1.50325E-23
3.91780E-01 1.46090E-23
3.96044E-01 1.41997E-23
4.00316E-01 1.38040E-23
4.04596E-01 1.34213E-23
4.08882E-01 1.30512E-23
4.13176E-01 1.26932E-23
4.17476E-01 1.23468E-23
4.21783E-01 1.20116E-23
4.26095E-01 1.16871E-23
4.30413E-01 1.13730E-23
4.34737E-01 1.10689E-23
4.39065E-01 1.07743E-23
4.43398E-01 1.04890E-23
4.47736E-01 1.02125E-23
4.52077E-01 9.94468E-24
4.56422E-01 9.68508E-24
4.60770E-01 9.43345E-24
4.65122E-01 9.18951E-24
4.69476E-01 8.95296E-24
4.73832E-01 8.72356E-24
4.78190E-01 8.50105E-24
4.82550E-01 8.28518E-24
4.86912E-01 8.07573E-24
4.91274E-01 7.87247E-24
4.95637E-01 7.67520E-24
5.00000E-01 7.48370E-24
5.04363E-01 7.29777E-24
5.08726E-01 7.11723E-24
5.13088E-01 6.94190E-24
5.17450E-01 6.77160E-24
5.21810E-01 6.60616E-24
5.26168E-01 6.44542E-24
5.30524E-01 6.28923E-24
5.34878E-01 6.13743E-24
5.39230E-01 5.98989E-24
5.43578E-01 5.84645E-24
5.47923E-01 5.70700E-24
5.52264E-01 5.57140E-24
5.56602E-01 5.43952E-24
5.60935E-01 5.31125E-24
5.65263E-01 5.18648E-24
5.69587E-01 5.06509E-24
5.73905E-01 4.94698E-24
5.78217E-01 4.83204E-24
5.82524E-01 4.72017E-24
5.86824E-01 4.61129E-24
5.91118E-01 4.50529E-24
5.95404E-01 4.40209E-24
5.99684E-01 4.30160E-24
6.03956E-01 4.20375E-24
6.08220E-01 4.10844E-24
6.12476E-01 4.01561E-24
6.16723E-01 3.92518E-24
6.20961E-01 3.83708E-24
6.25190E-01 3.75124E-24
6.29410E-01 3.66759E-24
6.33619E-01 3.58607E-24
6.37819E-01 3.50661E-24
6.42008E-01 3.42917E-24
6.46186E-01 3.35366E-24
6.50353E-01 3.28005E-24
6.54508E-01 3.20828E-24
6.58652E-01 3.13829E-24
6.62784E-01 3.07003E-24
6.66903E-01 3.00346E-24
6.71010E-01 2.93852E-24
6.75104E-01 2.87518E-24
6.79184E-01 2.81338E-24
6.83251E-01 2.75309E-24
6.87303E-01 2.69426E-24
6.91342E-01 2.63684E-24
6.95366E-01 2.58082E-24
6.99375E-01 2.52613E-24
7.03368E-01 2.47275E-24
7.07347E-01 2.42065E-24
7.11309E-01 2.36978E-24
7.15256E-01 2.32012E-24
7.19186E-01 2.27163E-24
7.23099E-01 2.22428E-24
7.26995E-01 2.17805E-24
7.30874E-01 2.13289E-24
7.34736E-01 2.08879E-24
7.38579E-01 2.04572E-24
7.42405E-01 2.00364E-24
7.46212E-01 1.96254E-24
7.50000E-01 1.92238E-24
7.53769E-01 1.88315E-24
7.57519E-01 1.84483E-24
7.61249E-01 1.80737E-24
7.64960E-01 1.77078E-24
7.68650E-01 1.73501E-24
7.72320E-01 1.70007E-24
7.75968E-01 1.66591E-24
7.79596E-01 1.63252E-24
7.83203E-01 1.59989E-24
7.86788E-01 1.56800E-24
7.90351E-01 1.53682E-24
7.93893E-01 1.50634E-24
7.97411E-01 1.47655E-24
8.00908E-01 1.44742E-24
8.04381E-01 1.41894E-24
8.07831E-01 1.39110E-24
8.11257E-01 1.36388E-24
8.14660E-01 1.33726E-24
8.18039E-01 1.31123E-24
8.21394E-01 1.28578E-24
8.24724E-01 1.26089E-24
8.28030E-01 1.23656E-24
8.31310E-01 1.21276E-24
8.34565E-01 1.18949E-24
8.37795E-01 1.16673E-24
8.40999E-01 1.14447E-24
8.44177E-01 1.12270E-24
8.47329E-01 1.10141E-24
8.50455E-01 1.08059E-24
8.53553E-01 1.06023E-24
8.56625E-01 1.04032E-24
8.59670E-01 1.02085E-24
8.62687E-01 1.00180E-24
8.65677E-01 9.83173E-25
8.68639E-01 9.64956E-25
8.71572E-01 9.47141E-25
8.74478E-01 9.29719E-25
8.77355E-01 9.12682E-25
8.80203E-01 8.96021E-25
8.83022E-01 8.79729E-25
8.85812E-01 8.63798E-25
8.88573E-01 8.48221E-25
8.91304E-01 8.32989E-25
8.94005E-01 8.18097E-25
8.96677E-01 8.03538E-25
8.99318E-01 7.89304E-25
9.01928E-01 7.75389E-25
9.04508E-01 7.61788E-25
9.07058E-01 7.48493E-25
9.09576E-01 7.35499E-25
9.12063E-01 7.22799E-25
9.14519E-01 7.10390E-25
9.16943E-01 6.98264E-25
9.19335E-01 6.86416E-25
9.21696E-01 6.74842E-25
9.24024E-01 6.63536E-25
9.26320E-01 6.52493E-25
9.28584E-01 6.41709E-25
9.30815E-01 6.31179E-25
9.33013E-01 6.20898E-25
9.35178E-01 6.10862E-25
9.37310E-01 6.01067E-25
9.39409E-01 5.91509E-25
9.41474E-01 5.82183E-25
9.43505E-01 5.73085E-25
9.45503E-01 5.64212E-25
9.47467E-01 5.55560E-25
9.49397E-01 5.47126E-25
9.51293E-01 5.38906E-25
9.53154E-01 5.30896E-25
9.54981E-01 5.23094E-25
9.56773E-01 5.15495E-25
9.58530E-01 5.08098E-25
9.60252E-01 5.00899E-25
9.61940E-01 4.93894E-25
9.63592E-01 4.87082E-25
9.65209E-01 4.80459E-25
9.66790E-01 4.74023E-25
9.68336E-01 4.67772E-25
9.69846E-01 4.61702E-25
9.71321E-01 4.55811E-25
9.72759E-01 4.50097E-25
9.74162E-01 4.44558E-25
9.75528E-01 4.39191E-25
9.76858E-01 4.33995E-25
9.78152E-01 4.28968E-25
9.79410E-01 4.24106E-25
9.80631E-01 4.19409E-25
9.81815E-01 4.14875E-25
9.82963E-01 4.10502E-25
9.84074E-01 4.06287E-25
9.85148E-01 4.02231E-25
9.86185E-01 3.98330E-25
9.87185E-01 3.94584E-25
9.88148E-01 3.90991E-25
9.89074E-01 3.87549E-25
9.89962E-01 3.84258E-25
9.90814E-01 3.81116E-25
9.91627E-01 3.78122E-25
9.92404E-01 3.75275E-25
9.93143E-01 3.72573E-25
9.93844E-01 3.70016E-25
9.94508E-01 3.67602E-25
9.95134E-01 3.65332E-25
9.95722E-01 3.63203E-25
9.96273E-01 3.61215E-25
9.96786E-01 3.59368E-25
9.97261E-01 3.57660E-25
9.97698E-01 3.56091E-25
9.98097E-01 3.54661E-25
9.98459E-01 3.53368E-25
9.98782E-01 3.52213E-25
9.99067E-01 3.51194E-25
9.99315E-01 3.50313E-25
9.99524E-01 3.49567E-25
9.99695E-01 3.48957E-25
9.99829E-01 3.48484E-25
9.99924E-01 3.48145E-25
9.99981E-01 3.47942E-25
1.00000E+00 3.47875E-25
