 #
 # Subroutine ELSEPA. Elastic scattering of electrons and positrons
 #                    by neutral atoms and positive ions
 #
 # Projectile: positron
 # Kinetic energy = 6.00000E+06 eV = 2.20496E+05 a.u.
 #
 # WARNING: High-energy factorization with free-atom DF screening.
 #          Absorption, polarization and exchange corrections are
 #          switched off.
 #          Phase shifts are calculated for the bare nucleus.
 #          Scattering amplitudes are not evaluated.
 #
 # Element: Ba,  Z =  56,  atomic weight = 1.37327E+02 g/mol
 #
 # Nuclear model: Fermi distribution
 #                Average radius = 5.52038E-13 cm
 #                Skin thickness = 5.46000E-14 cm
 #
 # Number of electrons = 56
 #
 # Total elastic cross section = 7.28805E-18 cm**2 = 2.60261E-01 a0**2
 # 1st transport cross section = 9.83980E-23 cm**2 = 3.51386E-06 a0**2
 # 2nd transport cross section = 2.83770E-22 cm**2 = 1.01336E-05 a0**2
 #
 #
 # Differential cross section:                       MU=(1-COS(THETA))/2
 #
 #  THETA        MU          DCS          DCS        Sherman      error
 #  (deg)                 (cm**2/sr)   (a0**2/sr)    function
 #----------------------------------------------------------------------
0.00000E+00 5.25890E-12
7.61557E-13 5.25875E-12
1.18994E-12 5.25868E-12
1.71346E-12 5.25858E-12
2.33225E-12 5.25846E-12
3.04617E-12 5.25833E-12
3.85530E-12 5.25819E-12
4.75964E-12 5.25802E-12
5.75917E-12 5.25784E-12
6.85391E-12 5.25764E-12
8.04379E-12 5.25742E-12
9.32893E-12 5.25719E-12
1.07092E-11 5.25693E-12
1.21847E-11 5.25666E-12
1.37554E-11 5.25638E-12
1.54213E-11 5.25608E-12
1.71823E-11 5.25576E-12
1.90386E-11 5.25542E-12
2.09900E-11 5.25506E-12
2.30367E-11 5.25469E-12
2.51785E-11 5.25430E-12
2.74156E-11 5.25390E-12
2.97478E-11 5.25347E-12
3.21752E-11 5.25303E-12
3.46979E-11 5.25258E-12
3.73157E-11 5.25210E-12
4.00286E-11 5.25161E-12
4.28368E-11 5.25110E-12
4.57402E-11 5.25057E-12
4.87388E-11 5.25003E-12
5.18325E-11 5.24947E-12
5.50215E-11 5.24889E-12
5.83057E-11 5.24830E-12
6.16850E-11 5.24769E-12
6.51595E-11 5.24706E-12
6.87293E-11 5.24641E-12
7.23943E-11 5.24575E-12
7.61544E-11 5.24507E-12
1.18991E-10 5.23734E-12
1.71347E-10 5.22793E-12
2.33223E-10 5.21684E-12
3.04617E-10 5.20409E-12
3.85531E-10 5.18970E-12
4.75965E-10 5.17370E-12
5.75917E-10 5.15611E-12
6.85389E-10 5.13695E-12
8.04380E-10 5.11626E-12
9.32891E-10 5.09406E-12
1.07092E-09 5.07039E-12
1.21847E-09 5.04528E-12
1.37554E-09 5.01877E-12
1.54213E-09 4.99090E-12
1.71823E-09 4.96170E-12
1.90386E-09 4.93122E-12
2.09900E-09 4.89950E-12
2.30367E-09 4.86658E-12
2.51785E-09 4.83252E-12
2.74156E-09 4.79735E-12
2.97478E-09 4.76111E-12
3.21752E-09 4.72387E-12
3.46978E-09 4.68565E-12
3.73156E-09 4.64653E-12
4.00286E-09 4.60654E-12
4.28368E-09 4.56573E-12
4.57402E-09 4.52415E-12
4.87388E-09 4.48185E-12
5.18326E-09 4.43887E-12
5.50215E-09 4.39542E-12
5.83057E-09 4.35193E-12
6.16850E-09 4.30775E-12
6.51596E-09 4.26290E-12
6.87293E-09 4.21742E-12
7.23942E-09 4.17136E-12
7.61544E-09 4.12476E-12
1.18991E-08 3.65136E-12
1.71347E-08 3.18714E-12
2.33223E-08 2.75827E-12
3.04617E-08 2.37708E-12
3.85531E-08 2.04813E-12
4.75965E-08 1.76971E-12
5.75917E-08 1.53681E-12
6.85389E-08 1.34387E-12
8.04380E-08 1.18265E-12
9.32891E-08 1.04738E-12
1.07092E-07 9.33129E-13
1.21847E-07 8.35846E-13
1.37554E-07 7.52305E-13
1.54213E-07 6.79834E-13
1.71823E-07 6.16440E-13
1.90386E-07 5.60595E-13
2.09900E-07 5.11095E-13
2.30367E-07 4.66968E-13
2.51785E-07 4.27364E-13
2.74156E-07 3.91787E-13
2.97478E-07 3.59735E-13
3.21752E-07 3.30792E-13
3.46978E-07 3.04604E-13
3.73156E-07 2.80821E-13
4.00286E-07 2.59221E-13
4.28368E-07 2.39602E-13
4.57402E-07 2.21763E-13
4.87388E-07 2.05523E-13
5.18325E-07 1.90717E-13
5.50215E-07 1.77045E-13
5.83057E-07 1.64057E-13
6.16850E-07 1.52410E-13
6.51596E-07 1.41940E-13
6.87293E-07 1.32504E-13
7.23942E-07 1.23978E-13
7.61543E-07 1.16257E-13
1.18991E-06 6.41951E-14
1.71347E-06 3.83854E-14
2.33223E-06 2.42122E-14
3.04617E-06 1.59220E-14
3.85531E-06 1.08443E-14
4.75964E-06 7.62820E-15
5.75916E-06 5.52970E-15
6.85388E-06 4.11733E-15
8.04378E-06 3.14131E-15
9.32888E-06 2.44669E-15
1.07092E-05 1.93886E-15
1.21846E-05 1.55867E-15
1.37553E-05 1.26806E-15
1.54212E-05 1.04114E-15
1.71822E-05 8.62575E-16
1.90385E-05 7.20164E-16
2.09899E-05 6.06040E-16
2.30365E-05 5.13189E-16
2.51783E-05 4.36891E-16
2.74153E-05 3.73930E-16
2.97475E-05 3.21697E-16
3.21749E-05 2.78163E-16
3.46974E-05 2.41712E-16
3.73152E-05 2.11025E-16
4.00281E-05 1.85062E-16
4.28362E-05 1.62981E-16
4.57395E-05 1.44097E-16
4.87380E-05 1.27868E-16
5.18317E-05 1.13857E-16
5.50205E-05 1.01704E-16
5.83045E-05 9.11143E-17
6.16838E-05 8.19068E-17
6.51582E-05 7.38704E-17
6.87277E-05 6.67664E-17
7.23925E-05 6.05080E-17
7.61524E-05 5.49876E-17
9.21439E-05 3.83058E-17
1.09658E-04 2.74984E-17
1.28695E-04 2.02509E-17
1.49255E-04 1.52387E-17
1.71338E-04 1.16832E-17
1.94942E-04 9.10364E-18
2.20070E-04 7.19506E-18
2.46720E-04 5.75949E-18
2.74892E-04 4.66346E-18
3.04586E-04 3.81542E-18
3.35803E-04 3.15103E-18
3.68542E-04 2.62474E-18
4.02802E-04 2.20345E-18
4.38585E-04 1.86322E-18
4.75889E-04 1.58606E-18
5.14715E-04 1.35848E-18
5.55063E-04 1.17023E-18
5.96931E-04 1.01342E-18
6.40321E-04 8.81978E-19
6.85233E-04 7.71146E-19
7.31665E-04 6.77168E-19
7.79618E-04 5.97066E-19
8.29092E-04 5.28449E-19
8.80086E-04 4.69396E-19
9.32601E-04 4.18357E-19
9.86636E-04 3.74062E-19
1.04219E-03 3.35470E-19
1.09927E-03 3.01723E-19
1.15786E-03 2.72106E-19
1.21797E-03 2.46029E-19
1.27961E-03 2.22998E-19
1.34276E-03 2.02595E-19
1.40743E-03 1.84469E-19
1.47362E-03 1.68321E-19
1.54133E-03 1.53898E-19
1.61056E-03 1.40983E-19
1.68131E-03 1.29392E-19
1.75357E-03 1.18966E-19
1.82735E-03 1.09566E-19
1.90265E-03 1.01073E-19
1.97947E-03 9.33856E-20
2.05780E-03 8.64130E-20
2.13765E-03 8.00773E-20
2.21902E-03 7.43099E-20
2.30190E-03 6.90508E-20
2.38630E-03 6.42472E-20
2.47222E-03 5.98526E-20
2.55965E-03 5.58263E-20
2.64859E-03 5.21315E-20
2.73905E-03 4.87366E-20
2.83103E-03 4.56121E-20
2.92452E-03 4.27333E-20
3.01952E-03 4.00771E-20
3.11604E-03 3.76233E-20
3.21407E-03 3.53537E-20
3.31362E-03 3.32519E-20
3.41468E-03 3.13034E-20
3.51725E-03 2.94949E-20
3.62133E-03 2.78145E-20
3.72692E-03 2.62517E-20
3.83403E-03 2.47965E-20
3.94265E-03 2.34404E-20
4.05278E-03 2.21752E-20
4.16442E-03 2.09939E-20
4.27757E-03 1.98898E-20
4.39223E-03 1.88570E-20
4.50840E-03 1.78901E-20
4.62608E-03 1.69840E-20
4.74527E-03 1.61343E-20
4.86597E-03 1.53368E-20
4.98817E-03 1.45877E-20
5.11188E-03 1.38836E-20
5.23711E-03 1.32212E-20
5.36383E-03 1.25976E-20
5.49207E-03 1.20102E-20
5.62181E-03 1.14564E-20
5.75306E-03 1.09340E-20
5.88581E-03 1.04409E-20
6.02007E-03 9.97516E-21
6.15583E-03 9.53491E-21
6.29310E-03 9.11858E-21
6.43187E-03 8.72455E-21
6.57214E-03 8.35151E-21
6.71392E-03 7.99803E-21
6.85720E-03 7.66299E-21
7.00198E-03 7.34517E-21
7.14827E-03 7.04359E-21
7.29605E-03 6.75721E-21
7.44534E-03 6.48518E-21
7.59612E-03 6.22659E-21
7.97965E-03 5.63404E-21
8.37255E-03 5.10993E-21
8.77480E-03 4.64501E-21
9.18641E-03 4.23148E-21
9.60736E-03 3.86267E-21
1.00376E-02 3.53294E-21
1.04773E-02 3.23744E-21
1.09262E-02 2.97200E-21
1.13844E-02 2.73303E-21
1.18520E-02 2.51745E-21
1.23288E-02 2.32257E-21
1.28150E-02 2.14606E-21
1.33104E-02 1.98588E-21
1.38150E-02 1.84027E-21
1.43290E-02 1.70767E-21
1.48521E-02 1.58671E-21
1.53845E-02 1.47620E-21
1.59262E-02 1.37507E-21
1.64770E-02 1.28239E-21
1.70371E-02 1.19733E-21
1.76063E-02 1.11914E-21
1.81848E-02 1.04719E-21
1.87724E-02 9.80880E-22
1.93692E-02 9.19694E-22
1.99751E-02 8.63165E-22
2.05901E-02 8.10878E-22
2.12143E-02 7.62456E-22
2.18476E-02 7.17564E-22
2.24900E-02 6.75900E-22
2.31415E-02 6.37189E-22
2.38021E-02 6.01186E-22
2.44717E-02 5.67667E-22
2.51504E-02 5.36430E-22
2.58382E-02 5.07292E-22
2.65349E-02 4.80087E-22
2.72407E-02 4.54665E-22
2.79555E-02 4.30887E-22
2.86793E-02 4.08628E-22
2.94120E-02 3.87774E-22
3.01537E-02 3.68220E-22
3.09043E-02 3.49871E-22
3.16639E-02 3.32639E-22
3.24324E-02 3.16444E-22
3.32098E-02 3.01212E-22
3.39961E-02 2.86876E-22
3.47912E-02 2.73374E-22
3.55952E-02 2.60648E-22
3.64081E-02 2.48646E-22
3.72297E-02 2.37320E-22
3.80602E-02 2.26624E-22
3.88995E-02 2.16517E-22
3.97476E-02 2.06961E-22
4.06044E-02 1.97920E-22
4.14700E-02 1.89362E-22
4.23443E-02 1.81256E-22
4.32273E-02 1.73574E-22
4.41190E-02 1.66289E-22
4.50194E-02 1.59379E-22
4.59284E-02 1.52819E-22
4.68461E-02 1.46589E-22
4.87074E-02 1.35041E-22
5.06030E-02 1.24596E-22
5.25328E-02 1.15128E-22
5.44967E-02 1.06532E-22
5.64946E-02 9.87128E-23
5.85262E-02 9.15888E-23
6.05914E-02 8.50875E-23
6.26901E-02 7.91453E-23
6.48222E-02 7.37058E-23
6.69873E-02 6.87191E-23
6.91854E-02 6.41409E-23
7.14163E-02 5.99322E-23
7.36799E-02 5.60581E-23
7.59760E-02 5.24873E-23
7.83043E-02 4.91920E-23
8.06647E-02 4.61472E-23
8.30571E-02 4.33306E-23
8.54812E-02 4.07222E-23
8.79369E-02 3.83039E-23
9.04240E-02 3.60595E-23
9.29422E-02 3.39743E-23
9.54915E-02 3.20350E-23
9.80716E-02 3.02297E-23
1.00682E-01 2.85475E-23
1.03323E-01 2.69786E-23
1.05995E-01 2.55140E-23
1.08696E-01 2.41456E-23
1.11427E-01 2.28659E-23
1.14188E-01 2.16682E-23
1.16978E-01 2.05464E-23
1.19797E-01 1.94948E-23
1.22645E-01 1.85082E-23
1.25522E-01 1.75820E-23
1.28428E-01 1.67117E-23
1.31361E-01 1.58934E-23
1.34323E-01 1.51236E-23
1.37313E-01 1.43987E-23
1.40330E-01 1.37158E-23
1.43375E-01 1.30719E-23
1.46447E-01 1.24645E-23
1.49545E-01 1.18912E-23
1.52671E-01 1.13496E-23
1.55823E-01 1.08377E-23
1.59001E-01 1.03537E-23
1.62205E-01 9.89571E-24
1.65435E-01 9.46209E-24
1.68690E-01 9.05134E-24
1.71970E-01 8.66205E-24
1.75276E-01 8.29291E-24
1.78606E-01 7.94267E-24
1.81961E-01 7.61021E-24
1.85340E-01 7.29445E-24
1.88743E-01 6.99443E-24
1.92169E-01 6.70924E-24
1.95619E-01 6.43800E-24
1.99092E-01 6.17991E-24
2.02589E-01 5.93422E-24
2.06107E-01 5.70022E-24
2.09649E-01 5.47729E-24
2.13212E-01 5.26480E-24
2.16797E-01 5.06218E-24
2.20404E-01 4.86888E-24
2.24032E-01 4.68440E-24
2.27680E-01 4.50827E-24
2.31350E-01 4.34005E-24
2.35040E-01 4.17934E-24
2.38751E-01 4.02573E-24
2.42481E-01 3.87883E-24
2.46231E-01 3.73831E-24
2.50000E-01 3.60388E-24
2.53788E-01 3.47521E-24
2.57595E-01 3.35199E-24
2.61421E-01 3.23396E-24
2.65264E-01 3.12086E-24
2.69126E-01 3.01247E-24
2.73005E-01 2.90855E-24
2.76901E-01 2.80888E-24
2.80814E-01 2.71326E-24
2.84744E-01 2.62148E-24
2.88691E-01 2.53339E-24
2.92653E-01 2.44879E-24
2.96632E-01 2.36754E-24
3.00625E-01 2.28946E-24
3.04634E-01 2.21442E-24
3.08658E-01 2.14229E-24
3.12697E-01 2.07292E-24
3.16749E-01 2.00620E-24
3.20816E-01 1.94200E-24
3.24896E-01 1.88021E-24
3.28990E-01 1.82074E-24
3.33097E-01 1.76347E-24
3.37216E-01 1.70831E-24
3.41348E-01 1.65518E-24
3.45492E-01 1.60397E-24
3.49647E-01 1.55462E-24
3.53814E-01 1.50704E-24
3.57992E-01 1.46116E-24
3.62181E-01 1.41691E-24
3.66381E-01 1.37422E-24
3.70590E-01 1.33303E-24
3.74810E-01 1.29327E-24
3.79039E-01 1.25489E-24
3.83277E-01 1.21782E-24
3.87524E-01 1.18203E-24
3.91780E-01 1.14745E-24
3.96044E-01 1.11405E-24
4.00316E-01 1.08176E-24
4.04596E-01 1.05055E-24
4.08882E-01 1.02039E-24
4.13176E-01 9.91214E-25
4.17476E-01 9.62999E-25
4.21783E-01 9.35706E-25
4.26095E-01 9.09300E-25
4.30413E-01 8.83748E-25
4.34737E-01 8.59016E-25
4.39065E-01 8.35073E-25
4.43398E-01 8.11892E-25
4.47736E-01 7.89443E-25
4.52077E-01 7.67700E-25
4.56422E-01 7.46637E-25
4.60770E-01 7.26229E-25
4.65122E-01 7.06453E-25
4.69476E-01 6.87285E-25
4.73832E-01 6.68705E-25
4.78190E-01 6.50690E-25
4.82550E-01 6.33221E-25
4.86912E-01 6.16279E-25
4.91274E-01 5.99846E-25
4.95637E-01 5.83903E-25
5.00000E-01 5.68435E-25
5.04363E-01 5.53423E-25
5.08726E-01 5.38853E-25
5.13088E-01 5.24709E-25
5.17450E-01 5.10978E-25
5.21810E-01 4.97645E-25
5.26168E-01 4.84696E-25
5.30524E-01 4.72119E-25
5.34878E-01 4.59902E-25
5.39230E-01 4.48032E-25
5.43578E-01 4.36499E-25
5.47923E-01 4.25291E-25
5.52264E-01 4.14398E-25
5.56602E-01 4.03809E-25
5.60935E-01 3.93515E-25
5.65263E-01 3.83506E-25
5.69587E-01 3.73773E-25
5.73905E-01 3.64308E-25
5.78217E-01 3.55101E-25
5.82524E-01 3.46145E-25
5.86824E-01 3.37432E-25
5.91118E-01 3.28954E-25
5.95404E-01 3.20704E-25
5.99684E-01 3.12675E-25
6.03956E-01 3.04861E-25
6.08220E-01 2.97253E-25
6.12476E-01 2.89847E-25
6.16723E-01 2.82636E-25
6.20961E-01 2.75614E-25
6.25190E-01 2.68776E-25
6.29410E-01 2.62116E-25
6.33619E-01 2.55629E-25
6.37819E-01 2.49309E-25
6.42008E-01 2.43152E-25
6.46186E-01 2.37153E-25
6.50353E-01 2.31307E-25
6.54508E-01 2.25610E-25
6.58652E-01 2.20057E-25
6.62784E-01 2.14645E-25
6.66903E-01 2.09369E-25
6.71010E-01 2.04225E-25
6.75104E-01 1.99210E-25
6.79184E-01 1.94320E-25
6.83251E-01 1.89552E-25
6.87303E-01 1.84901E-25
6.91342E-01 1.80366E-25
6.95366E-01 1.75941E-25
6.99375E-01 1.71626E-25
7.03368E-01 1.67415E-25
7.07347E-01 1.63307E-25
7.11309E-01 1.59299E-25
7.15256E-01 1.55388E-25
7.19186E-01 1.51572E-25
7.23099E-01 1.47847E-25
7.26995E-01 1.44212E-25
7.30874E-01 1.40663E-25
7.34736E-01 1.37199E-25
7.38579E-01 1.33818E-25
7.42405E-01 1.30517E-25
7.46212E-01 1.27294E-25
7.50000E-01 1.24147E-25
7.53769E-01 1.21074E-25
7.57519E-01 1.18073E-25
7.61249E-01 1.15142E-25
7.64960E-01 1.12280E-25
7.68650E-01 1.09485E-25
7.72320E-01 1.06754E-25
7.75968E-01 1.04087E-25
7.79596E-01 1.01482E-25
7.83203E-01 9.89372E-26
7.86788E-01 9.64509E-26
7.90351E-01 9.40218E-26
7.93893E-01 9.16485E-26
7.97411E-01 8.93296E-26
8.00908E-01 8.70637E-26
8.04381E-01 8.48497E-26
8.07831E-01 8.26861E-26
8.11257E-01 8.05719E-26
8.14660E-01 7.85057E-26
8.18039E-01 7.64864E-26
8.21394E-01 7.45130E-26
8.24724E-01 7.25843E-26
8.28030E-01 7.06992E-26
8.31310E-01 6.88568E-26
8.34565E-01 6.70560E-26
8.37795E-01 6.52958E-26
8.40999E-01 6.35753E-26
8.44177E-01 6.18936E-26
8.47329E-01 6.02498E-26
8.50455E-01 5.86430E-26
8.53553E-01 5.70724E-26
8.56625E-01 5.55372E-26
8.59670E-01 5.40365E-26
8.62687E-01 5.25696E-26
8.65677E-01 5.11357E-26
8.68639E-01 4.97341E-26
8.71572E-01 4.83641E-26
8.74478E-01 4.70250E-26
8.77355E-01 4.57161E-26
8.80203E-01 4.44368E-26
8.83022E-01 4.31864E-26
8.85812E-01 4.19643E-26
8.88573E-01 4.07699E-26
8.91304E-01 3.96026E-26
8.94005E-01 3.84619E-26
8.96677E-01 3.73471E-26
8.99318E-01 3.62579E-26
9.01928E-01 3.51935E-26
9.04508E-01 3.41536E-26
9.07058E-01 3.31376E-26
9.09576E-01 3.21450E-26
9.12063E-01 3.11755E-26
9.14519E-01 3.02284E-26
9.16943E-01 2.93034E-26
9.19335E-01 2.84001E-26
9.21696E-01 2.75180E-26
9.24024E-01 2.66567E-26
9.26320E-01 2.58158E-26
9.28584E-01 2.49950E-26
9.30815E-01 2.41939E-26
9.33013E-01 2.34120E-26
9.35178E-01 2.26491E-26
9.37310E-01 2.19048E-26
9.39409E-01 2.11787E-26
9.41474E-01 2.04706E-26
9.43505E-01 1.97801E-26
9.45503E-01 1.91070E-26
9.47467E-01 1.84509E-26
9.49397E-01 1.78115E-26
9.51293E-01 1.71885E-26
9.53154E-01 1.65818E-26
9.54981E-01 1.59909E-26
9.56773E-01 1.54157E-26
9.58530E-01 1.48560E-26
9.60252E-01 1.43114E-26
9.61940E-01 1.37817E-26
9.63592E-01 1.32667E-26
9.65209E-01 1.27662E-26
9.66790E-01 1.22800E-26
9.68336E-01 1.18079E-26
9.69846E-01 1.13496E-26
9.71321E-01 1.09050E-26
9.72759E-01 1.04739E-26
9.74162E-01 1.00561E-26
9.75528E-01 9.65136E-27
9.76858E-01 9.25963E-27
9.78152E-01 8.88069E-27
9.79410E-01 8.51439E-27
9.80631E-01 8.16057E-27
9.81815E-01 7.81909E-27
9.82963E-01 7.48980E-27
9.84074E-01 7.17258E-27
9.85148E-01 6.86728E-27
9.86185E-01 6.57379E-27
9.87185E-01 6.29199E-27
9.88148E-01 6.02175E-27
9.89074E-01 5.76297E-27
9.89962E-01 5.51554E-27
9.90814E-01 5.27936E-27
9.91627E-01 5.05434E-27
9.92404E-01 4.84038E-27
9.93143E-01 4.63740E-27
9.93844E-01 4.44532E-27
9.94508E-01 4.26405E-27
9.95134E-01 4.09353E-27
9.95722E-01 3.93368E-27
9.96273E-01 3.78444E-27
9.96786E-01 3.64575E-27
9.97261E-01 3.51756E-27
9.97698E-01 3.39981E-27
9.98097E-01 3.29246E-27
9.98459E-01 3.19546E-27
9.98782E-01 3.10878E-27
9.99067E-01 3.03238E-27
9.99315E-01 2.96622E-27
9.99524E-01 2.91029E-27
9.99695E-01 2.86455E-27
9.99829E-01 2.82900E-27
9.99924E-01 2.80362E-27
9.99981E-01 2.78839E-27
1.00000E+00 2.78332E-27
