 #
 # Subroutine ELSEPA. Elastic scattering of electrons and positrons
 #                    by neutral atoms and positive ions
 #
 # Projectile: positron
 # Kinetic energy = 1.75000E+07 eV = 6.43113E+05 a.u.
 #
 # WARNING: High-energy factorization with free-atom DF screening.
 #          Absorption, polarization and exchange corrections are
 #          switched off.
 #          Phase shifts are calculated for the bare nucleus.
 #          Scattering amplitudes are not evaluated.
 #
 # Element: Ba,  Z =  56,  atomic weight = 1.37327E+02 g/mol
 #
 # Nuclear model: Fermi distribution
 #                Average radius = 5.52038E-13 cm
 #                Skin thickness = 5.46000E-14 cm
 #
 # Number of electrons = 56
 #
 # Total elastic cross section = 7.25355E-18 cm**2 = 2.59029E-01 a0**2
 # 1st transport cross section = 1.52320E-23 cm**2 = 5.43945E-07 a0**2
 # 2nd transport cross section = 4.42768E-23 cm**2 = 1.58115E-06 a0**2
 #
 #
 # Differential cross section:                       MU=(1-COS(THETA))/2
 #
 #  THETA        MU          DCS          DCS        Sherman      error
 #  (deg)                 (cm**2/sr)   (a0**2/sr)    function
 #----------------------------------------------------------------------
0.00000E+00 4.02416E-11
7.61557E-13 4.02334E-11
1.18994E-12 4.02288E-11
1.71346E-12 4.02232E-11
2.33225E-12 4.02166E-11
3.04617E-12 4.02089E-11
3.85530E-12 4.02003E-11
4.75964E-12 4.01907E-11
5.75917E-12 4.01800E-11
6.85391E-12 4.01684E-11
8.04379E-12 4.01557E-11
9.32893E-12 4.01420E-11
1.07092E-11 4.01274E-11
1.21847E-11 4.01117E-11
1.37554E-11 4.00950E-11
1.54213E-11 4.00774E-11
1.71823E-11 4.00587E-11
1.90386E-11 4.00391E-11
2.09900E-11 4.00184E-11
2.30367E-11 3.99968E-11
2.51785E-11 3.99742E-11
2.74156E-11 3.99506E-11
2.97478E-11 3.99260E-11
3.21752E-11 3.99005E-11
3.46979E-11 3.98739E-11
3.73157E-11 3.98464E-11
4.00286E-11 3.98180E-11
4.28368E-11 3.97886E-11
4.57402E-11 3.97582E-11
4.87388E-11 3.97268E-11
5.18325E-11 3.96945E-11
5.50215E-11 3.96613E-11
5.83057E-11 3.96271E-11
6.16850E-11 3.95920E-11
6.51595E-11 3.95559E-11
6.87293E-11 3.95189E-11
7.23943E-11 3.94810E-11
7.61544E-11 3.94421E-11
1.18991E-10 3.90038E-11
1.71347E-10 3.84786E-11
2.33223E-10 3.78724E-11
3.04617E-10 3.71918E-11
3.85531E-10 3.64438E-11
4.75965E-10 3.56362E-11
5.75917E-10 3.47768E-11
6.85389E-10 3.38737E-11
8.04380E-10 3.29449E-11
9.32891E-10 3.19807E-11
1.07092E-09 3.09839E-11
1.21847E-09 2.99912E-11
1.37554E-09 2.89877E-11
1.54213E-09 2.79693E-11
1.71823E-09 2.69741E-11
1.90386E-09 2.59868E-11
2.09900E-09 2.49986E-11
2.30367E-09 2.40456E-11
2.51785E-09 2.31146E-11
2.74156E-09 2.21924E-11
2.97478E-09 2.13111E-11
3.21752E-09 2.04608E-11
3.46978E-09 1.96253E-11
3.73156E-09 1.88314E-11
4.00286E-09 1.80730E-11
4.28368E-09 1.73324E-11
4.57402E-09 1.66308E-11
4.87388E-09 1.59658E-11
5.18326E-09 1.53195E-11
5.50215E-09 1.47076E-11
5.83057E-09 1.41311E-11
6.16850E-09 1.35726E-11
6.51596E-09 1.30437E-11
6.87293E-09 1.25471E-11
7.23942E-09 1.20673E-11
7.61544E-09 1.16121E-11
1.18991E-08 8.14203E-12
1.71347E-08 5.97615E-12
2.33223E-08 4.53437E-12
3.04617E-08 3.51381E-12
3.85531E-08 2.76208E-12
4.75965E-08 2.19563E-12
5.75917E-08 1.76293E-12
6.85389E-08 1.42939E-12
8.04380E-08 1.16185E-12
9.32891E-08 9.59638E-13
1.07092E-07 8.06283E-13
1.21847E-07 6.77483E-13
1.37554E-07 5.74500E-13
1.54213E-07 4.93409E-13
1.71823E-07 4.23989E-13
1.90386E-07 3.66579E-13
2.09900E-07 3.20036E-13
2.30367E-07 2.79413E-13
2.51785E-07 2.44860E-13
2.74156E-07 2.16217E-13
2.97478E-07 1.90966E-13
3.21752E-07 1.69049E-13
3.46978E-07 1.50557E-13
3.73156E-07 1.34206E-13
4.00286E-07 1.19827E-13
4.28368E-07 1.07517E-13
4.57402E-07 9.66216E-14
4.87388E-07 8.69603E-14
5.18325E-07 7.85845E-14
5.50215E-07 7.11571E-14
5.83057E-07 6.45319E-14
6.16850E-07 5.87242E-14
6.51596E-07 5.35549E-14
6.87293E-07 4.89191E-14
7.23942E-07 4.48153E-14
7.61543E-07 4.11432E-14
1.18991E-06 1.93576E-14
1.71347E-06 1.04513E-14
2.33223E-06 6.13353E-15
3.04617E-06 3.81471E-15
3.85531E-06 2.48163E-15
4.75964E-06 1.67823E-15
5.75916E-06 1.17456E-15
6.85388E-06 8.46454E-16
8.04378E-06 6.25479E-16
9.32888E-06 4.72693E-16
1.07092E-05 3.64074E-16
1.21846E-05 2.85060E-16
1.37553E-05 2.26409E-16
1.54212E-05 1.82061E-16
1.71822E-05 1.48073E-16
1.90385E-05 1.21617E-16
2.09899E-05 1.00880E-16
2.30365E-05 8.43613E-17
2.51783E-05 7.10562E-17
2.74153E-05 6.02532E-17
2.97475E-05 5.14174E-17
3.21749E-05 4.41387E-17
3.46974E-05 3.81021E-17
3.73152E-05 3.30627E-17
4.00281E-05 2.88274E-17
4.28362E-05 2.52488E-17
4.57395E-05 2.22075E-17
4.87380E-05 1.96090E-17
5.18317E-05 1.73779E-17
5.50205E-05 1.54536E-17
5.83045E-05 1.37875E-17
6.16838E-05 1.23400E-17
6.51582E-05 1.10776E-17
6.87277E-05 9.97293E-18
7.23925E-05 9.00270E-18
7.61524E-05 8.14750E-18
9.21439E-05 5.59271E-18
1.09658E-04 3.96490E-18
1.28695E-04 2.88876E-18
1.49255E-04 2.15399E-18
1.71338E-04 1.63871E-18
1.94942E-04 1.26861E-18
2.20070E-04 9.97298E-19
2.46720E-04 7.94747E-19
2.74892E-04 6.41045E-19
3.04586E-04 5.22740E-19
3.35803E-04 4.30471E-19
3.68542E-04 3.57665E-19
4.02802E-04 2.99597E-19
4.38585E-04 2.52831E-19
4.75889E-04 2.14829E-19
5.14715E-04 1.83692E-19
5.55063E-04 1.57987E-19
5.96931E-04 1.36616E-19
6.40321E-04 1.18732E-19
6.85233E-04 1.03675E-19
7.31665E-04 9.09251E-20
7.79618E-04 8.00726E-20
8.29092E-04 7.07877E-20
8.80086E-04 6.28076E-20
9.32601E-04 5.59183E-20
9.86636E-04 4.99457E-20
1.04219E-03 4.47478E-20
1.09927E-03 4.02071E-20
1.15786E-03 3.62264E-20
1.21797E-03 3.27252E-20
1.27961E-03 2.96358E-20
1.34276E-03 2.69014E-20
1.40743E-03 2.44744E-20
1.47362E-03 2.23143E-20
1.54133E-03 2.03866E-20
1.61056E-03 1.86620E-20
1.68131E-03 1.71155E-20
1.75357E-03 1.57254E-20
1.82735E-03 1.44732E-20
1.90265E-03 1.33427E-20
1.97947E-03 1.23202E-20
2.05780E-03 1.13935E-20
2.13765E-03 1.05520E-20
2.21902E-03 9.78653E-21
2.30190E-03 9.08897E-21
2.38630E-03 8.45227E-21
2.47222E-03 7.87017E-21
2.55965E-03 7.33714E-21
2.64859E-03 6.84833E-21
2.73905E-03 6.39941E-21
2.83103E-03 5.98654E-21
2.92452E-03 5.60632E-21
3.01952E-03 5.25570E-21
3.11604E-03 4.93195E-21
3.21407E-03 4.63266E-21
3.31362E-03 4.35564E-21
3.41468E-03 4.09894E-21
3.51725E-03 3.86080E-21
3.62133E-03 3.63963E-21
3.72692E-03 3.43401E-21
3.83403E-03 3.24265E-21
3.94265E-03 3.06438E-21
4.05278E-03 2.89814E-21
4.16442E-03 2.74297E-21
4.27757E-03 2.59800E-21
4.39223E-03 2.46245E-21
4.50840E-03 2.33558E-21
4.62608E-03 2.21673E-21
4.74527E-03 2.10532E-21
4.86597E-03 2.00079E-21
4.98817E-03 1.90263E-21
5.11188E-03 1.81040E-21
5.23711E-03 1.72365E-21
5.36383E-03 1.64202E-21
5.49207E-03 1.56514E-21
5.62181E-03 1.49268E-21
5.75306E-03 1.42435E-21
5.88581E-03 1.35986E-21
6.02007E-03 1.29896E-21
6.15583E-03 1.24142E-21
6.29310E-03 1.18701E-21
6.43187E-03 1.13553E-21
6.57214E-03 1.08680E-21
6.71392E-03 1.04064E-21
6.85720E-03 9.96898E-22
7.00198E-03 9.55413E-22
7.14827E-03 9.16051E-22
7.29605E-03 8.78684E-22
7.44534E-03 8.43192E-22
7.59612E-03 8.09463E-22
7.97965E-03 7.32196E-22
8.37255E-03 6.63883E-22
8.77480E-03 6.03309E-22
9.18641E-03 5.49449E-22
9.60736E-03 5.01433E-22
1.00376E-02 4.58519E-22
1.04773E-02 4.20070E-22
1.09262E-02 3.85543E-22
1.13844E-02 3.54469E-22
1.18520E-02 3.26443E-22
1.23288E-02 3.01115E-22
1.28150E-02 2.78179E-22
1.33104E-02 2.57371E-22
1.38150E-02 2.38460E-22
1.43290E-02 2.21241E-22
1.48521E-02 2.05537E-22
1.53845E-02 1.91192E-22
1.59262E-02 1.78067E-22
1.64770E-02 1.66041E-22
1.70371E-02 1.55005E-22
1.76063E-02 1.44863E-22
1.81848E-02 1.35531E-22
1.87724E-02 1.26932E-22
1.93692E-02 1.18999E-22
1.99751E-02 1.11670E-22
2.05901E-02 1.04893E-22
2.12143E-02 9.86168E-23
2.18476E-02 9.27990E-23
2.24900E-02 8.74002E-23
2.31415E-02 8.23849E-23
2.38021E-02 7.77206E-23
2.44717E-02 7.33786E-23
2.51504E-02 6.93329E-23
2.58382E-02 6.55594E-23
2.65349E-02 6.20365E-23
2.72407E-02 5.87447E-23
2.79555E-02 5.56663E-23
2.86793E-02 5.27849E-23
2.94120E-02 5.00853E-23
3.01537E-02 4.75543E-23
3.09043E-02 4.51798E-23
3.16639E-02 4.29496E-23
3.24324E-02 4.08539E-23
3.32098E-02 3.88834E-23
3.39961E-02 3.70285E-23
3.47912E-02 3.52818E-23
3.55952E-02 3.36358E-23
3.64081E-02 3.20834E-23
3.72297E-02 3.06185E-23
3.80602E-02 2.92352E-23
3.88995E-02 2.79283E-23
3.97476E-02 2.66926E-23
4.06044E-02 2.55237E-23
4.14700E-02 2.44173E-23
4.23443E-02 2.33694E-23
4.32273E-02 2.23764E-23
4.41190E-02 2.14349E-23
4.50194E-02 2.05417E-23
4.59284E-02 1.96939E-23
4.68461E-02 1.88889E-23
4.87074E-02 1.73969E-23
5.06030E-02 1.60474E-23
5.25328E-02 1.48244E-23
5.44967E-02 1.37142E-23
5.64946E-02 1.27045E-23
5.85262E-02 1.17848E-23
6.05914E-02 1.09455E-23
6.26901E-02 1.01785E-23
6.48222E-02 9.47654E-24
6.69873E-02 8.83309E-24
6.91854E-02 8.24244E-24
7.14163E-02 7.69951E-24
7.36799E-02 7.19981E-24
7.59760E-02 6.73931E-24
7.83043E-02 6.31440E-24
8.06647E-02 5.92187E-24
8.30571E-02 5.55882E-24
8.54812E-02 5.22266E-24
8.79369E-02 4.91105E-24
9.04240E-02 4.62190E-24
9.29422E-02 4.35330E-24
9.54915E-02 4.10355E-24
9.80716E-02 3.87109E-24
1.00682E-01 3.65453E-24
1.03323E-01 3.45258E-24
1.05995E-01 3.26409E-24
1.08696E-01 3.08802E-24
1.11427E-01 2.92339E-24
1.14188E-01 2.76934E-24
1.16978E-01 2.62508E-24
1.19797E-01 2.48987E-24
1.22645E-01 2.36305E-24
1.25522E-01 2.24401E-24
1.28428E-01 2.13218E-24
1.31361E-01 2.02707E-24
1.34323E-01 1.92818E-24
1.37313E-01 1.83510E-24
1.40330E-01 1.74742E-24
1.43375E-01 1.66478E-24
1.46447E-01 1.58683E-24
1.49545E-01 1.51326E-24
1.52671E-01 1.44379E-24
1.55823E-01 1.37815E-24
1.59001E-01 1.31609E-24
1.62205E-01 1.25738E-24
1.65435E-01 1.20181E-24
1.68690E-01 1.14918E-24
1.71970E-01 1.09931E-24
1.75276E-01 1.05204E-24
1.78606E-01 1.00720E-24
1.81961E-01 9.64640E-25
1.85340E-01 9.24234E-25
1.88743E-01 8.85851E-25
1.92169E-01 8.49372E-25
1.95619E-01 8.14687E-25
1.99092E-01 7.81692E-25
2.02589E-01 7.50292E-25
2.06107E-01 7.20395E-25
2.09649E-01 6.91918E-25
2.13212E-01 6.64782E-25
2.16797E-01 6.38913E-25
2.20404E-01 6.14241E-25
2.24032E-01 5.90702E-25
2.27680E-01 5.68236E-25
2.31350E-01 5.46784E-25
2.35040E-01 5.26294E-25
2.38751E-01 5.06714E-25
2.42481E-01 4.87998E-25
2.46231E-01 4.70102E-25
2.50000E-01 4.52982E-25
2.53788E-01 4.36601E-25
2.57595E-01 4.20920E-25
2.61421E-01 4.05904E-25
2.65264E-01 3.91521E-25
2.69126E-01 3.77740E-25
2.73005E-01 3.64531E-25
2.76901E-01 3.51866E-25
2.80814E-01 3.39719E-25
2.84744E-01 3.28066E-25
2.88691E-01 3.16883E-25
2.92653E-01 3.06148E-25
2.96632E-01 2.95840E-25
3.00625E-01 2.85939E-25
3.04634E-01 2.76427E-25
3.08658E-01 2.67285E-25
3.12697E-01 2.58497E-25
3.16749E-01 2.50047E-25
3.20816E-01 2.41919E-25
3.24896E-01 2.34101E-25
3.28990E-01 2.26576E-25
3.33097E-01 2.19334E-25
3.37216E-01 2.12361E-25
3.41348E-01 2.05646E-25
3.45492E-01 1.99178E-25
3.49647E-01 1.92945E-25
3.53814E-01 1.86939E-25
3.57992E-01 1.81150E-25
3.62181E-01 1.75568E-25
3.66381E-01 1.70185E-25
3.70590E-01 1.64993E-25
3.74810E-01 1.59983E-25
3.79039E-01 1.55149E-25
3.83277E-01 1.50483E-25
3.87524E-01 1.45978E-25
3.91780E-01 1.41629E-25
3.96044E-01 1.37428E-25
4.00316E-01 1.33369E-25
4.04596E-01 1.29448E-25
4.08882E-01 1.25659E-25
4.13176E-01 1.21997E-25
4.17476E-01 1.18456E-25
4.21783E-01 1.15032E-25
4.26095E-01 1.11721E-25
4.30413E-01 1.08518E-25
4.34737E-01 1.05419E-25
4.39065E-01 1.02421E-25
4.43398E-01 9.95188E-26
4.47736E-01 9.67098E-26
4.52077E-01 9.39902E-26
4.56422E-01 9.13569E-26
4.60770E-01 8.88065E-26
4.65122E-01 8.63361E-26
4.69476E-01 8.39428E-26
4.73832E-01 8.16239E-26
4.78190E-01 7.93765E-26
4.82550E-01 7.71983E-26
4.86912E-01 7.50867E-26
4.91274E-01 7.30394E-26
4.95637E-01 7.10541E-26
5.00000E-01 6.91287E-26
5.04363E-01 6.72610E-26
5.08726E-01 6.54492E-26
5.13088E-01 6.36912E-26
5.17450E-01 6.19852E-26
5.21810E-01 6.03295E-26
5.26168E-01 5.87223E-26
5.30524E-01 5.71620E-26
5.34878E-01 5.56471E-26
5.39230E-01 5.41760E-26
5.43578E-01 5.27472E-26
5.47923E-01 5.13595E-26
5.52264E-01 5.00113E-26
5.56602E-01 4.87014E-26
5.60935E-01 4.74286E-26
5.65263E-01 4.61917E-26
5.69587E-01 4.49895E-26
5.73905E-01 4.38209E-26
5.78217E-01 4.26848E-26
5.82524E-01 4.15802E-26
5.86824E-01 4.05061E-26
5.91118E-01 3.94614E-26
5.95404E-01 3.84454E-26
5.99684E-01 3.74571E-26
6.03956E-01 3.64957E-26
6.08220E-01 3.55602E-26
6.12476E-01 3.46500E-26
6.16723E-01 3.37642E-26
6.20961E-01 3.29020E-26
6.25190E-01 3.20629E-26
6.29410E-01 3.12460E-26
6.33619E-01 3.04507E-26
6.37819E-01 2.96764E-26
6.42008E-01 2.89224E-26
6.46186E-01 2.81881E-26
6.50353E-01 2.74729E-26
6.54508E-01 2.67764E-26
6.58652E-01 2.60978E-26
6.62784E-01 2.54367E-26
6.66903E-01 2.47927E-26
6.71010E-01 2.41651E-26
6.75104E-01 2.35536E-26
6.79184E-01 2.29576E-26
6.83251E-01 2.23767E-26
6.87303E-01 2.18105E-26
6.91342E-01 2.12585E-26
6.95366E-01 2.07205E-26
6.99375E-01 2.01959E-26
7.03368E-01 1.96844E-26
7.07347E-01 1.91856E-26
7.11309E-01 1.86992E-26
7.15256E-01 1.82248E-26
7.19186E-01 1.77621E-26
7.23099E-01 1.73108E-26
7.26995E-01 1.68706E-26
7.30874E-01 1.64411E-26
7.34736E-01 1.60221E-26
7.38579E-01 1.56133E-26
7.42405E-01 1.52145E-26
7.46212E-01 1.48252E-26
7.50000E-01 1.44454E-26
7.53769E-01 1.40747E-26
7.57519E-01 1.37129E-26
7.61249E-01 1.33598E-26
7.64960E-01 1.30151E-26
7.68650E-01 1.26786E-26
7.72320E-01 1.23502E-26
7.75968E-01 1.20295E-26
7.79596E-01 1.17164E-26
7.83203E-01 1.14108E-26
7.86788E-01 1.11123E-26
7.90351E-01 1.08209E-26
7.93893E-01 1.05363E-26
7.97411E-01 1.02584E-26
8.00908E-01 9.98705E-27
8.04381E-01 9.72201E-27
8.07831E-01 9.46316E-27
8.11257E-01 9.21034E-27
8.14660E-01 8.96341E-27
8.18039E-01 8.72221E-27
8.21394E-01 8.48662E-27
8.24724E-01 8.25649E-27
8.28030E-01 8.03169E-27
8.31310E-01 7.81209E-27
8.34565E-01 7.59756E-27
8.37795E-01 7.38799E-27
8.40999E-01 7.18326E-27
8.44177E-01 6.98325E-27
8.47329E-01 6.78785E-27
8.50455E-01 6.59695E-27
8.53553E-01 6.41044E-27
8.56625E-01 6.22823E-27
8.59670E-01 6.05022E-27
8.62687E-01 5.87631E-27
8.65677E-01 5.70639E-27
8.68639E-01 5.54040E-27
8.71572E-01 5.37822E-27
8.74478E-01 5.21979E-27
8.77355E-01 5.06501E-27
8.80203E-01 4.91380E-27
8.83022E-01 4.76608E-27
8.85812E-01 4.62178E-27
8.88573E-01 4.48083E-27
8.91304E-01 4.34314E-27
8.94005E-01 4.20865E-27
8.96677E-01 4.07729E-27
8.99318E-01 3.94899E-27
9.01928E-01 3.82369E-27
9.04508E-01 3.70132E-27
9.07058E-01 3.58183E-27
9.09576E-01 3.46515E-27
9.12063E-01 3.35122E-27
9.14519E-01 3.23999E-27
9.16943E-01 3.13140E-27
9.19335E-01 3.02541E-27
9.21696E-01 2.92195E-27
9.24024E-01 2.82098E-27
9.26320E-01 2.72245E-27
9.28584E-01 2.62630E-27
9.30815E-01 2.53251E-27
9.33013E-01 2.44101E-27
9.35178E-01 2.35176E-27
9.37310E-01 2.26473E-27
9.39409E-01 2.17987E-27
9.41474E-01 2.09715E-27
9.43505E-01 2.01651E-27
9.45503E-01 1.93793E-27
9.47467E-01 1.86137E-27
9.49397E-01 1.78679E-27
9.51293E-01 1.71415E-27
9.53154E-01 1.64343E-27
9.54981E-01 1.57459E-27
9.56773E-01 1.50760E-27
9.58530E-01 1.44243E-27
9.60252E-01 1.37905E-27
9.61940E-01 1.31743E-27
9.63592E-01 1.25753E-27
9.65209E-01 1.19935E-27
9.66790E-01 1.14284E-27
9.68336E-01 1.08798E-27
9.69846E-01 1.03475E-27
9.71321E-01 9.83130E-28
9.72759E-01 9.33087E-28
9.74162E-01 8.84603E-28
9.75528E-01 8.37656E-28
9.76858E-01 7.92225E-28
9.78152E-01 7.48290E-28
9.79410E-01 7.05832E-28
9.80631E-01 6.64831E-28
9.81815E-01 6.25271E-28
9.82963E-01 5.87133E-28
9.84074E-01 5.50401E-28
9.85148E-01 5.15059E-28
9.86185E-01 4.81091E-28
9.87185E-01 4.48482E-28
9.88148E-01 4.17219E-28
9.89074E-01 3.87287E-28
9.89962E-01 3.58674E-28
9.90814E-01 3.31368E-28
9.91627E-01 3.05356E-28
9.92404E-01 2.80627E-28
9.93143E-01 2.57171E-28
9.93844E-01 2.34977E-28
9.94508E-01 2.14036E-28
9.95134E-01 1.94340E-28
9.95722E-01 1.75879E-28
9.96273E-01 1.58645E-28
9.96786E-01 1.42632E-28
9.97261E-01 1.27832E-28
9.97698E-01 1.14240E-28
9.98097E-01 1.01848E-28
9.98459E-01 9.06530E-29
9.98782E-01 8.06488E-29
9.99067E-01 7.18316E-29
9.99315E-01 6.41976E-29
9.99524E-01 5.77435E-29
9.99695E-01 5.24667E-29
9.99829E-01 4.83648E-29
9.99924E-01 4.54361E-29
9.99981E-01 4.36794E-29
1.00000E+00 4.30939E-29
