 #
 # Subroutine ELSEPA. Elastic scattering of electrons and positrons
 #                    by neutral atoms and positive ions
 #
 # Projectile: positron
 # Kinetic energy = 9.00000E+08 eV = 3.30744E+07 a.u.
 #
 # WARNING: High-energy factorization with free-atom DF screening.
 #          Absorption, polarization and exchange corrections are
 #          switched off.
 #          Phase shifts are calculated for the bare nucleus.
 #          Scattering amplitudes are not evaluated.
 #
 # Element: Ba,  Z =  56,  atomic weight = 1.37327E+02 g/mol
 #
 # Nuclear model: Fermi distribution
 #                Average radius = 5.52038E-13 cm
 #                Skin thickness = 5.46000E-14 cm
 #
 # Number of electrons = 56
 #
 # Total elastic cross section = 7.10231E-18 cm**2 = 2.53628E-01 a0**2
 # 1st transport cross section = 7.50419E-27 cm**2 = 2.67979E-10 a0**2
 # 2nd transport cross section = 2.25098E-26 cm**2 = 8.03840E-10 a0**2
 #
 #
 # Differential cross section:                       MU=(1-COS(THETA))/2
 #
 #  THETA        MU          DCS          DCS        Sherman      error
 #  (deg)                 (cm**2/sr)   (a0**2/sr)    function
 #----------------------------------------------------------------------
0.00000E+00 1.00595E-07
7.61557E-13 6.49453E-08
1.18994E-12 5.32556E-08
1.71346E-12 4.33100E-08
2.33225E-12 3.53088E-08
3.04617E-12 2.90140E-08
3.85530E-12 2.41435E-08
4.75964E-12 2.03430E-08
5.75917E-12 1.73386E-08
6.85391E-12 1.49312E-08
8.04379E-12 1.29625E-08
9.32893E-12 1.13288E-08
1.07092E-11 9.95092E-09
1.21847E-11 8.77869E-09
1.37554E-11 7.77212E-09
1.54213E-11 6.90041E-09
1.71823E-11 6.14455E-09
1.90386E-11 5.48514E-09
2.09900E-11 4.90844E-09
2.30367E-11 4.40401E-09
2.51785E-11 3.96056E-09
2.74156E-11 3.57075E-09
2.97478E-11 3.21577E-09
3.21752E-11 2.90230E-09
3.46979E-11 2.63179E-09
3.73157E-11 2.39726E-09
4.00286E-11 2.19297E-09
4.28368E-11 2.01424E-09
4.57402E-11 1.84727E-09
4.87388E-11 1.69235E-09
5.18325E-11 1.55586E-09
5.50215E-11 1.43515E-09
5.83057E-11 1.32803E-09
6.16850E-11 1.23263E-09
6.51595E-11 1.14350E-09
6.87293E-11 1.05913E-09
7.23943E-11 9.83592E-10
7.61544E-11 9.15755E-10
1.18991E-10 4.77041E-10
1.71347E-10 2.68600E-10
2.33223E-10 1.61217E-10
3.04617E-10 1.02793E-10
3.85531E-10 6.90096E-11
4.75965E-10 4.83723E-11
5.75917E-10 3.50901E-11
6.85389E-10 2.61208E-11
8.04380E-10 1.98411E-11
9.32891E-10 1.53316E-11
1.07092E-09 1.20142E-11
1.21847E-09 9.53653E-12
1.37554E-09 7.65407E-12
1.54213E-09 6.20481E-12
1.71823E-09 5.07970E-12
1.90386E-09 4.19675E-12
2.09900E-09 3.49719E-12
2.30367E-09 2.93767E-12
2.51785E-09 2.48558E-12
2.74156E-09 2.11740E-12
2.97478E-09 1.81462E-12
3.21752E-09 1.56490E-12
3.46978E-09 1.35752E-12
3.73156E-09 1.18284E-12
4.00286E-09 1.03615E-12
4.28368E-09 9.11188E-13
4.57402E-09 8.04737E-13
4.87388E-09 7.13553E-13
5.18326E-09 6.34763E-13
5.50215E-09 5.66841E-13
5.83057E-09 5.07517E-13
6.16850E-09 4.55886E-13
6.51596E-09 4.10654E-13
6.87293E-09 3.70838E-13
7.23942E-09 3.35847E-13
7.61544E-09 3.04733E-13
1.18991E-08 1.28886E-13
1.71347E-08 6.33521E-14
2.33223E-08 3.46223E-14
3.04617E-08 2.04764E-14
3.85531E-08 1.28721E-14
4.75965E-08 8.49332E-15
5.75917E-08 5.82873E-15
6.85389E-08 4.13226E-15
8.04380E-08 3.01067E-15
9.32891E-08 2.24515E-15
1.07092E-07 1.70820E-15
1.21847E-07 1.32258E-15
1.37554E-07 1.03987E-15
1.54213E-07 8.28791E-16
1.71823E-07 6.68635E-16
1.90386E-07 5.45343E-16
2.09900E-07 4.49190E-16
2.30367E-07 3.73313E-16
2.51785E-07 3.12794E-16
2.74156E-07 2.64049E-16
2.97478E-07 2.24434E-16
3.21752E-07 1.91973E-16
3.46978E-07 1.65172E-16
3.73156E-07 1.42886E-16
4.00286E-07 1.24233E-16
4.28368E-07 1.08525E-16
4.57402E-07 9.52219E-17
4.87388E-07 8.38950E-17
5.18325E-07 7.42025E-17
5.50215E-07 6.58696E-17
5.83057E-07 5.86736E-17
6.16850E-07 5.24336E-17
6.51596E-07 4.70011E-17
6.87293E-07 4.22540E-17
7.23942E-07 3.80911E-17
7.61543E-07 3.44283E-17
1.18991E-06 1.41174E-17
1.71347E-06 6.81157E-18
2.33223E-06 3.67753E-18
3.04617E-06 2.15586E-18
3.85531E-06 1.34589E-18
4.75964E-06 8.82989E-19
5.75916E-06 6.03040E-19
6.85388E-06 4.25739E-19
8.04378E-06 3.09059E-19
9.32888E-06 2.29745E-19
1.07092E-05 1.74313E-19
1.21846E-05 1.34633E-19
1.37553E-05 1.05625E-19
1.54212E-05 8.40248E-20
1.71822E-05 6.76729E-20
1.90385E-05 5.50931E-20
2.09899E-05 4.53367E-20
2.30365E-05 3.76431E-20
2.51783E-05 3.15084E-20
2.74153E-05 2.65690E-20
2.97475E-05 2.25578E-20
3.21749E-05 1.92753E-20
3.46974E-05 1.65696E-20
3.73152E-05 1.43236E-20
4.00281E-05 1.24466E-20
4.28362E-05 1.08676E-20
4.57395E-05 9.53107E-21
4.87380E-05 8.39340E-21
5.18317E-05 7.42003E-21
5.50205E-05 6.58337E-21
5.83045E-05 5.86120E-21
6.16838E-05 5.23538E-21
6.51582E-05 4.69099E-21
6.87277E-05 4.21566E-21
7.23925E-05 3.79912E-21
7.61524E-05 3.41886E-21
9.21439E-05 2.32308E-21
1.09658E-04 1.63004E-21
1.28695E-04 1.17499E-21
1.49255E-04 8.66336E-22
1.71338E-04 6.51327E-22
1.94942E-04 4.97939E-22
2.20070E-04 3.86275E-22
2.46720E-04 3.03518E-22
2.74892E-04 2.41197E-22
3.04586E-04 1.93611E-22
3.35803E-04 1.56808E-22
3.68542E-04 1.28026E-22
4.02802E-04 1.05283E-22
4.38585E-04 8.71465E-23
4.75889E-04 7.25614E-23
5.14715E-04 6.07412E-23
5.55063E-04 5.10952E-23
5.96931E-04 4.31722E-23
6.40321E-04 3.66260E-23
6.85233E-04 3.11880E-23
7.31665E-04 2.66478E-23
7.79618E-04 2.28395E-23
8.29092E-04 1.96315E-23
8.80086E-04 1.69184E-23
9.32601E-04 1.46154E-23
9.86636E-04 1.26538E-23
1.04219E-03 1.09777E-23
1.09927E-03 9.54129E-24
1.15786E-03 8.30700E-24
1.21797E-03 7.24366E-24
1.27961E-03 6.32543E-24
1.34276E-03 5.53077E-24
1.40743E-03 4.84166E-24
1.47362E-03 4.24294E-24
1.54133E-03 3.72186E-24
1.61056E-03 3.26761E-24
1.68131E-03 2.87103E-24
1.75357E-03 2.52432E-24
1.82735E-03 2.22083E-24
1.90265E-03 1.95485E-24
1.97947E-03 1.72152E-24
2.05780E-03 1.51662E-24
2.13765E-03 1.33652E-24
2.21902E-03 1.17811E-24
2.30190E-03 1.03868E-24
2.38630E-03 9.15862E-25
2.47222E-03 8.07630E-25
2.55965E-03 7.12204E-25
2.64859E-03 6.28034E-25
2.73905E-03 5.53769E-25
2.83103E-03 4.88224E-25
2.92452E-03 4.30365E-25
3.01952E-03 3.79282E-25
3.11604E-03 3.34179E-25
3.21407E-03 2.94356E-25
3.31362E-03 2.59195E-25
3.41468E-03 2.28154E-25
3.51725E-03 2.00754E-25
3.62133E-03 1.76573E-25
3.72692E-03 1.55240E-25
3.83403E-03 1.36423E-25
3.94265E-03 1.19834E-25
4.05278E-03 1.05214E-25
4.16442E-03 9.23351E-26
4.27757E-03 8.09966E-26
4.39223E-03 7.10196E-26
4.50840E-03 6.22461E-26
4.62608E-03 5.45360E-26
4.74527E-03 4.77651E-26
4.86597E-03 4.18235E-26
4.98817E-03 3.66137E-26
5.11188E-03 3.20493E-26
5.23711E-03 2.80537E-26
5.36383E-03 2.45592E-26
5.49207E-03 2.15056E-26
5.62181E-03 1.88398E-26
5.75306E-03 1.65147E-26
5.88581E-03 1.44886E-26
6.02007E-03 1.27247E-26
6.15583E-03 1.11905E-26
6.29310E-03 9.85725E-27
6.43187E-03 8.69949E-27
6.57214E-03 7.69491E-27
6.71392E-03 6.82377E-27
6.85720E-03 6.06875E-27
7.00198E-03 5.41459E-27
7.14827E-03 4.84788E-27
7.29605E-03 4.35691E-27
7.44534E-03 3.93136E-27
7.59612E-03 3.56226E-27
7.97965E-03 2.83735E-27
8.37255E-03 2.32146E-27
8.77480E-03 1.94631E-27
9.18641E-03 1.66480E-27
9.60736E-03 1.44501E-27
1.00376E-02 1.26580E-27
1.04773E-02 1.11354E-27
1.09262E-02 9.79784E-28
1.13844E-02 8.59505E-28
1.18520E-02 7.49910E-28
1.23288E-02 6.49576E-28
1.28150E-02 5.57860E-28
1.33104E-02 4.74515E-28
1.38150E-02 3.99443E-28
1.43290E-02 3.32540E-28
1.48521E-02 2.73628E-28
1.53845E-02 2.22412E-28
1.59262E-02 1.78484E-28
1.64770E-02 1.41336E-28
1.70371E-02 1.10384E-28
1.76063E-02 8.49914E-29
1.81848E-02 6.45029E-29
1.87724E-02 4.82630E-29
1.93692E-02 3.56387E-29
1.99751E-02 2.60350E-29
2.05901E-02 1.89061E-29
2.12143E-02 1.37625E-29
2.18476E-02 1.01754E-29
2.24900E-02 7.77652E-30
2.31415E-02 6.25662E-30
2.38021E-02 5.36204E-30
2.44717E-02 4.88973E-30
2.51504E-02 4.68167E-30
2.58382E-02 4.61892E-30
2.65349E-02 4.61561E-30
2.72407E-02 4.61315E-30
2.79555E-02 4.57485E-30
2.86793E-02 4.48098E-30
2.94120E-02 4.32456E-30
3.01537E-02 4.10765E-30
3.09043E-02 3.83826E-30
3.16639E-02 3.52795E-30
3.24324E-02 3.18986E-30
3.32098E-02 2.83726E-30
3.39961E-02 2.48255E-30
3.47912E-02 2.13658E-30
3.55952E-02 1.80823E-30
3.64081E-02 1.50431E-30
3.72297E-02 1.22956E-30
3.80602E-02 9.86760E-31
3.88995E-02 7.76997E-31
3.97476E-02 5.99912E-31
4.06044E-02 4.53997E-31
4.14700E-02 3.36887E-31
4.23443E-02 2.45628E-31
4.32273E-02 1.76927E-31
4.41190E-02 1.27358E-31
4.50194E-02 9.35309E-32
4.59284E-02 7.22320E-32
4.68461E-02 6.05163E-32
4.87074E-02 5.57651E-32
5.06030E-02 6.28912E-32
5.25328E-02 7.13644E-32
5.44967E-02 7.56705E-32
5.64946E-02 7.40187E-32
5.85262E-02 6.69840E-32
6.05914E-02 5.63280E-32
6.26901E-02 4.41168E-32
6.48222E-02 3.21609E-32
6.69873E-02 2.17379E-32
6.91854E-02 1.35293E-32
7.14163E-02 7.69542E-33
7.36799E-02 4.01902E-33
7.59760E-02 2.06451E-33
7.83043E-02 1.31888E-33
8.06647E-02 1.29610E-33
8.30571E-02 1.60043E-33
8.54812E-02 1.95293E-33
8.79369E-02 2.19001E-33
9.04240E-02 2.24434E-33
9.29422E-02 2.11760E-33
9.54915E-02 1.85235E-33
9.80716E-02 1.50795E-33
1.00682E-01 1.14282E-33
1.03323E-01 8.03672E-34
1.05995E-01 5.20744E-34
1.08696E-01 3.07774E-34
1.11427E-01 1.64827E-34
1.14188E-01 8.25311E-35
1.16978E-01 4.64772E-35
1.19797E-01 4.09881E-35
1.22645E-01 5.18488E-35
1.25522E-01 6.79058E-35
1.28428E-01 8.16595E-35
1.31361E-01 8.90943E-35
1.34323E-01 8.90353E-35
1.37313E-01 8.22876E-35
1.40330E-01 7.07691E-35
1.43375E-01 5.67741E-35
1.46447E-01 4.24364E-35
1.49545E-01 2.94060E-35
1.52671E-01 1.87194E-35
1.55823E-01 1.08132E-35
1.59001E-01 5.63384E-36
1.62205E-01 2.78964E-36
1.65435E-01 1.70938E-36
1.68690E-01 1.77865E-36
1.71970E-01 2.44053E-36
1.75276E-01 3.25605E-36
1.78606E-01 3.92803E-36
1.81961E-01 4.29662E-36
1.85340E-01 4.31612E-36
1.88743E-01 4.02241E-36
1.92169E-01 3.49919E-36
1.95619E-01 2.84831E-36
1.99092E-01 2.16703E-36
2.02589E-01 1.53356E-36
2.06107E-01 1.00046E-36
2.09649E-01 5.93731E-37
2.13212E-01 3.16506E-37
2.16797E-01 1.55089E-37
2.20404E-01 8.54873E-38
2.24032E-01 7.97295E-38
2.27680E-01 1.10767E-37
2.31350E-01 1.55822E-37
2.35040E-01 1.98151E-37
2.38751E-01 2.27388E-37
2.42481E-01 2.39002E-37
2.46231E-01 2.32909E-37
2.50000E-01 2.12169E-37
2.53788E-01 1.81423E-37
2.57595E-01 1.45752E-37
2.61421E-01 1.09738E-37
2.65264E-01 7.69641E-38
2.69126E-01 4.97536E-38
2.73005E-01 2.92034E-38
2.76901E-01 1.00000E-45
2.80814E-01 1.00000E-45
2.84744E-01 1.00000E-45
2.88691E-01 1.00000E-45
2.92653E-01 1.00000E-45
2.96632E-01 1.00000E-45
3.00625E-01 1.00000E-45
3.04634E-01 1.00000E-45
3.08658E-01 1.00000E-45
3.12697E-01 1.00000E-45
3.16749E-01 1.00000E-45
3.20816E-01 1.00000E-45
3.24896E-01 1.00000E-45
3.28990E-01 1.00000E-45
3.33097E-01 1.00000E-45
3.37216E-01 1.00000E-45
3.41348E-01 1.00000E-45
3.45492E-01 1.00000E-45
3.49647E-01 1.00000E-45
3.53814E-01 1.00000E-45
3.57992E-01 1.00000E-45
3.62181E-01 1.00000E-45
3.66381E-01 1.00000E-45
3.70590E-01 1.00000E-45
3.74810E-01 1.00000E-45
3.79039E-01 1.00000E-45
3.83277E-01 1.00000E-45
3.87524E-01 1.00000E-45
3.91780E-01 1.00000E-45
3.96044E-01 1.00000E-45
4.00316E-01 1.00000E-45
4.04596E-01 1.00000E-45
4.08882E-01 1.00000E-45
4.13176E-01 1.00000E-45
4.17476E-01 1.00000E-45
4.21783E-01 1.00000E-45
4.26095E-01 1.00000E-45
4.30413E-01 1.00000E-45
4.34737E-01 1.00000E-45
4.39065E-01 1.00000E-45
4.43398E-01 1.00000E-45
4.47736E-01 1.00000E-45
4.52077E-01 1.00000E-45
4.56422E-01 1.00000E-45
4.60770E-01 1.00000E-45
4.65122E-01 1.00000E-45
4.69476E-01 1.00000E-45
4.73832E-01 1.00000E-45
4.78190E-01 1.00000E-45
4.82550E-01 1.00000E-45
4.86912E-01 1.00000E-45
4.91274E-01 1.00000E-45
4.95637E-01 1.00000E-45
5.00000E-01 1.00000E-45
5.04363E-01 1.00000E-45
5.08726E-01 1.00000E-45
5.13088E-01 1.00000E-45
5.17450E-01 1.00000E-45
5.21810E-01 1.00000E-45
5.26168E-01 1.00000E-45
5.30524E-01 1.00000E-45
5.34878E-01 1.00000E-45
5.39230E-01 1.00000E-45
5.43578E-01 1.00000E-45
5.47923E-01 1.00000E-45
5.52264E-01 1.00000E-45
5.56602E-01 1.00000E-45
5.60935E-01 1.00000E-45
5.65263E-01 1.00000E-45
5.69587E-01 1.00000E-45
5.73905E-01 1.00000E-45
5.78217E-01 1.00000E-45
5.82524E-01 1.00000E-45
5.86824E-01 1.00000E-45
5.91118E-01 1.00000E-45
5.95404E-01 1.00000E-45
5.99684E-01 1.00000E-45
6.03956E-01 1.00000E-45
6.08220E-01 1.00000E-45
6.12476E-01 1.00000E-45
6.16723E-01 1.00000E-45
6.20961E-01 1.00000E-45
6.25190E-01 1.00000E-45
6.29410E-01 1.00000E-45
6.33619E-01 1.00000E-45
6.37819E-01 1.00000E-45
6.42008E-01 1.00000E-45
6.46186E-01 1.00000E-45
6.50353E-01 1.00000E-45
6.54508E-01 1.00000E-45
6.58652E-01 1.00000E-45
6.62784E-01 1.00000E-45
6.66903E-01 1.00000E-45
6.71010E-01 1.00000E-45
6.75104E-01 1.00000E-45
6.79184E-01 1.00000E-45
6.83251E-01 1.00000E-45
6.87303E-01 1.00000E-45
6.91342E-01 1.00000E-45
6.95366E-01 1.00000E-45
6.99375E-01 1.00000E-45
7.03368E-01 1.00000E-45
7.07347E-01 1.00000E-45
7.11309E-01 1.00000E-45
7.15256E-01 1.00000E-45
7.19186E-01 1.00000E-45
7.23099E-01 1.00000E-45
7.26995E-01 1.00000E-45
7.30874E-01 1.00000E-45
7.34736E-01 1.00000E-45
7.38579E-01 1.00000E-45
7.42405E-01 1.00000E-45
7.46212E-01 1.00000E-45
7.50000E-01 1.00000E-45
7.53769E-01 1.00000E-45
7.57519E-01 1.00000E-45
7.61249E-01 1.00000E-45
7.64960E-01 1.00000E-45
7.68650E-01 1.00000E-45
7.72320E-01 1.00000E-45
7.75968E-01 1.00000E-45
7.79596E-01 1.00000E-45
7.83203E-01 1.00000E-45
7.86788E-01 1.00000E-45
7.90351E-01 1.00000E-45
7.93893E-01 1.00000E-45
7.97411E-01 1.00000E-45
8.00908E-01 1.00000E-45
8.04381E-01 1.00000E-45
8.07831E-01 1.00000E-45
8.11257E-01 1.00000E-45
8.14660E-01 1.00000E-45
8.18039E-01 1.00000E-45
8.21394E-01 1.00000E-45
8.24724E-01 1.00000E-45
8.28030E-01 1.00000E-45
8.31310E-01 1.00000E-45
8.34565E-01 1.00000E-45
8.37795E-01 1.00000E-45
8.40999E-01 1.00000E-45
8.44177E-01 1.00000E-45
8.47329E-01 1.00000E-45
8.50455E-01 1.00000E-45
8.53553E-01 1.00000E-45
8.56625E-01 1.00000E-45
8.59670E-01 1.00000E-45
8.62687E-01 1.00000E-45
8.65677E-01 1.00000E-45
8.68639E-01 1.00000E-45
8.71572E-01 1.00000E-45
8.74478E-01 1.00000E-45
8.77355E-01 1.00000E-45
8.80203E-01 1.00000E-45
8.83022E-01 1.00000E-45
8.85812E-01 1.00000E-45
8.88573E-01 1.00000E-45
8.91304E-01 1.00000E-45
8.94005E-01 1.00000E-45
8.96677E-01 1.00000E-45
8.99318E-01 1.00000E-45
9.01928E-01 1.00000E-45
9.04508E-01 1.00000E-45
9.07058E-01 1.00000E-45
9.09576E-01 1.00000E-45
9.12063E-01 1.00000E-45
9.14519E-01 1.00000E-45
9.16943E-01 1.00000E-45
9.19335E-01 1.00000E-45
9.21696E-01 1.00000E-45
9.24024E-01 1.00000E-45
9.26320E-01 1.00000E-45
9.28584E-01 1.00000E-45
9.30815E-01 1.00000E-45
9.33013E-01 1.00000E-45
9.35178E-01 1.00000E-45
9.37310E-01 1.00000E-45
9.39409E-01 1.00000E-45
9.41474E-01 1.00000E-45
9.43505E-01 1.00000E-45
9.45503E-01 1.00000E-45
9.47467E-01 1.00000E-45
9.49397E-01 1.00000E-45
9.51293E-01 1.00000E-45
9.53154E-01 1.00000E-45
9.54981E-01 1.00000E-45
9.56773E-01 1.00000E-45
9.58530E-01 1.00000E-45
9.60252E-01 1.00000E-45
9.61940E-01 1.00000E-45
9.63592E-01 1.00000E-45
9.65209E-01 1.00000E-45
9.66790E-01 1.00000E-45
9.68336E-01 1.00000E-45
9.69846E-01 1.00000E-45
9.71321E-01 1.00000E-45
9.72759E-01 1.00000E-45
9.74162E-01 1.00000E-45
9.75528E-01 1.00000E-45
9.76858E-01 1.00000E-45
9.78152E-01 1.00000E-45
9.79410E-01 1.00000E-45
9.80631E-01 1.00000E-45
9.81815E-01 1.00000E-45
9.82963E-01 1.00000E-45
9.84074E-01 1.00000E-45
9.85148E-01 1.00000E-45
9.86185E-01 1.00000E-45
9.87185E-01 1.00000E-45
9.88148E-01 1.00000E-45
9.89074E-01 1.00000E-45
9.89962E-01 1.00000E-45
9.90814E-01 1.00000E-45
9.91627E-01 1.00000E-45
9.92404E-01 1.00000E-45
9.93143E-01 1.00000E-45
9.93844E-01 1.00000E-45
9.94508E-01 1.00000E-45
9.95134E-01 1.00000E-45
9.95722E-01 1.00000E-45
9.96273E-01 1.00000E-45
9.96786E-01 1.00000E-45
9.97261E-01 1.00000E-45
9.97698E-01 1.00000E-45
9.98097E-01 1.00000E-45
9.98459E-01 1.00000E-45
9.98782E-01 1.00000E-45
9.99067E-01 1.00000E-45
9.99315E-01 1.00000E-45
9.99524E-01 1.00000E-45
9.99695E-01 1.00000E-45
9.99829E-01 1.00000E-45
9.99924E-01 1.00000E-45
9.99981E-01 1.00000E-45
1.00000E+00 1.00000E-45
