 #
 # Subroutine ELSEPA. Elastic scattering of electrons and positrons
 #                    by neutral atoms and positive ions
 #
 # Projectile: positron
 # Kinetic energy = 4.00000E+07 eV = 1.46997E+06 a.u.
 #
 # WARNING: High-energy factorization with free-atom DF screening.
 #          Absorption, polarization and exchange corrections are
 #          switched off.
 #          Phase shifts are calculated for the bare nucleus.
 #          Scattering amplitudes are not evaluated.
 #
 # Element: Mo,  Z =  42,  atomic weight = 9.59400E+01 g/mol
 #
 # Nuclear model: Fermi distribution
 #                Average radius = 4.89836E-13 cm
 #                Skin thickness = 5.46000E-14 cm
 #
 # Number of electrons = 42
 #
 # Total elastic cross section = 4.05755E-18 cm**2 = 1.44898E-01 a0**2
 # 1st transport cross section = 1.95098E-24 cm**2 = 6.96709E-08 a0**2
 # 2nd transport cross section = 5.71233E-24 cm**2 = 2.03991E-07 a0**2
 #
 #
 # Differential cross section:                       MU=(1-COS(THETA))/2
 #
 #  THETA        MU          DCS          DCS        Sherman      error
 #  (deg)                 (cm**2/sr)   (a0**2/sr)    function
 #----------------------------------------------------------------------
0.00000E+00 6.49619E-11
7.61557E-13 6.49291E-11
1.18994E-12 6.49108E-11
1.71346E-12 6.48885E-11
2.33225E-12 6.48621E-11
3.04617E-12 6.48317E-11
3.85530E-12 6.47973E-11
4.75964E-12 6.47589E-11
5.75917E-12 6.47166E-11
6.85391E-12 6.46702E-11
8.04379E-12 6.46199E-11
9.32893E-12 6.45656E-11
1.07092E-11 6.45074E-11
1.21847E-11 6.44454E-11
1.37554E-11 6.43794E-11
1.54213E-11 6.43095E-11
1.71823E-11 6.42359E-11
1.90386E-11 6.41584E-11
2.09900E-11 6.40771E-11
2.30367E-11 6.39920E-11
2.51785E-11 6.39033E-11
2.74156E-11 6.38108E-11
2.97478E-11 6.37146E-11
3.21752E-11 6.36147E-11
3.46979E-11 6.35113E-11
3.73157E-11 6.34043E-11
4.00286E-11 6.32937E-11
4.28368E-11 6.31796E-11
4.57402E-11 6.30620E-11
4.87388E-11 6.29409E-11
5.18325E-11 6.28165E-11
5.50215E-11 6.26886E-11
5.83057E-11 6.25575E-11
6.16850E-11 6.24230E-11
6.51595E-11 6.22853E-11
6.87293E-11 6.21444E-11
7.23943E-11 6.20003E-11
7.61544E-11 6.18531E-11
1.18991E-10 6.02189E-11
1.71347E-10 5.83206E-11
2.33223E-10 5.62143E-11
3.04617E-10 5.39476E-11
3.85531E-10 5.15670E-11
4.75965E-10 4.91236E-11
5.75917E-10 4.66594E-11
6.85389E-10 4.42047E-11
8.04380E-10 4.17894E-11
9.32891E-10 3.94414E-11
1.07092E-09 3.71788E-11
1.21847E-09 3.50067E-11
1.37554E-09 3.29380E-11
1.54213E-09 3.09800E-11
1.71823E-09 2.91346E-11
1.90386E-09 2.73920E-11
2.09900E-09 2.57577E-11
2.30367E-09 2.42290E-11
2.51785E-09 2.28005E-11
2.74156E-09 2.14595E-11
2.97478E-09 2.02090E-11
3.21752E-09 1.90433E-11
3.46978E-09 1.79549E-11
3.73156E-09 1.69347E-11
4.00286E-09 1.59836E-11
4.28368E-09 1.50966E-11
4.57402E-09 1.42660E-11
4.87388E-09 1.34870E-11
5.18326E-09 1.27593E-11
5.50215E-09 1.20792E-11
5.83057E-09 1.14396E-11
6.16850E-09 1.08391E-11
6.51596E-09 1.02767E-11
6.87293E-09 9.74959E-12
7.23942E-09 9.25177E-12
7.61544E-09 8.78387E-12
1.18991E-08 5.35952E-12
1.71347E-08 3.35991E-12
2.33223E-08 2.22857E-12
3.04617E-08 1.52327E-12
3.85531E-08 1.07487E-12
4.75965E-08 7.85412E-13
5.75917E-08 5.90992E-13
6.85389E-08 4.55124E-13
8.04380E-08 3.57476E-13
9.32891E-08 2.85780E-13
1.07092E-07 2.31792E-13
1.21847E-07 1.89718E-13
1.37554E-07 1.56681E-13
1.54213E-07 1.30503E-13
1.71823E-07 1.09484E-13
1.90386E-07 9.22114E-14
2.09900E-07 7.81298E-14
2.30367E-07 6.65715E-14
2.51785E-07 5.70052E-14
2.74156E-07 4.89902E-14
2.97478E-07 4.23144E-14
3.21752E-07 3.67206E-14
3.46978E-07 3.20037E-14
3.73156E-07 2.79930E-14
4.00286E-07 2.45901E-14
4.28368E-07 2.16892E-14
4.57402E-07 1.92028E-14
4.87388E-07 1.70635E-14
5.18325E-07 1.52177E-14
5.50215E-07 1.36180E-14
5.83057E-07 1.22245E-14
6.16850E-07 1.10067E-14
6.51596E-07 9.93910E-15
6.87293E-07 8.99982E-15
7.23942E-07 8.16968E-15
7.61543E-07 7.43449E-15
1.18991E-06 3.23907E-15
1.71347E-06 1.63291E-15
2.33223E-06 9.08011E-16
3.04617E-06 5.42683E-16
3.85531E-06 3.43301E-16
4.75964E-06 2.27403E-16
5.75916E-06 1.56474E-16
6.85388E-06 1.11159E-16
8.04378E-06 8.11302E-17
9.32888E-06 6.05978E-17
1.07092E-05 4.61763E-17
1.21846E-05 3.58057E-17
1.37553E-05 2.81927E-17
1.54212E-05 2.25012E-17
1.71822E-05 1.81770E-17
1.90385E-05 1.48409E-17
2.09899E-05 1.22412E-17
2.30365E-05 1.01860E-17
2.51783E-05 8.54351E-18
2.74153E-05 7.21820E-18
2.97475E-05 6.13963E-18
3.21749E-05 5.25499E-18
3.46974E-05 4.52408E-18
3.73152E-05 3.91605E-18
4.00281E-05 3.40690E-18
4.28362E-05 2.97786E-18
4.57395E-05 2.61421E-18
4.87380E-05 2.30427E-18
5.18317E-05 2.03880E-18
5.50205E-05 1.81037E-18
5.83045E-05 1.61299E-18
6.16838E-05 1.44176E-18
6.51582E-05 1.29266E-18
6.87277E-05 1.16234E-18
7.23925E-05 1.04803E-18
7.61524E-05 9.47459E-19
9.21439E-05 6.47762E-19
1.09658E-04 4.57613E-19
1.28695E-04 3.32352E-19
1.49255E-04 2.47109E-19
1.71338E-04 1.87510E-19
1.94942E-04 1.44824E-19
2.20070E-04 1.13611E-19
2.46720E-04 9.03643E-20
2.74892E-04 7.27637E-20
3.04586E-04 5.92437E-20
3.35803E-04 4.87190E-20
3.68542E-04 4.04288E-20
4.02802E-04 3.38272E-20
4.38585E-04 2.85181E-20
4.75889E-04 2.42096E-20
5.14715E-04 2.06838E-20
5.55063E-04 1.77764E-20
5.96931E-04 1.53616E-20
6.40321E-04 1.33426E-20
6.85233E-04 1.16443E-20
7.31665E-04 1.02073E-20
7.79618E-04 8.98502E-21
8.29092E-04 7.94000E-21
8.80086E-04 7.04234E-21
9.32601E-04 6.26781E-21
9.86636E-04 5.59669E-21
1.04219E-03 5.01289E-21
1.09927E-03 4.50311E-21
1.15786E-03 4.05639E-21
1.21797E-03 3.66360E-21
1.27961E-03 3.31713E-21
1.34276E-03 3.01058E-21
1.40743E-03 2.73856E-21
1.47362E-03 2.49651E-21
1.54133E-03 2.28056E-21
1.61056E-03 2.08741E-21
1.68131E-03 1.91424E-21
1.75357E-03 1.75860E-21
1.82735E-03 1.61843E-21
1.90265E-03 1.49192E-21
1.97947E-03 1.37749E-21
2.05780E-03 1.27380E-21
2.13765E-03 1.17966E-21
2.21902E-03 1.09403E-21
2.30190E-03 1.01601E-21
2.38630E-03 9.44805E-22
2.47222E-03 8.79708E-22
2.55965E-03 8.20104E-22
2.64859E-03 7.65449E-22
2.73905E-03 7.15259E-22
2.83103E-03 6.69101E-22
2.92452E-03 6.26594E-22
3.01952E-03 5.87399E-22
3.11604E-03 5.51212E-22
3.21407E-03 5.17759E-22
3.31362E-03 4.86796E-22
3.41468E-03 4.58104E-22
3.51725E-03 4.31489E-22
3.62133E-03 4.06772E-22
3.72692E-03 3.83792E-22
3.83403E-03 3.62405E-22
3.94265E-03 3.42483E-22
4.05278E-03 3.23906E-22
4.16442E-03 3.06566E-22
4.27757E-03 2.90365E-22
4.39223E-03 2.75217E-22
4.50840E-03 2.61040E-22
4.62608E-03 2.47760E-22
4.74527E-03 2.35309E-22
4.86597E-03 2.23628E-22
4.98817E-03 2.12660E-22
5.11188E-03 2.02353E-22
5.23711E-03 1.92659E-22
5.36383E-03 1.83536E-22
5.49207E-03 1.74945E-22
5.62181E-03 1.66849E-22
5.75306E-03 1.59212E-22
5.88581E-03 1.52005E-22
6.02007E-03 1.45200E-22
6.15583E-03 1.38770E-22
6.29310E-03 1.32688E-22
6.43187E-03 1.26936E-22
6.57214E-03 1.21490E-22
6.71392E-03 1.16331E-22
6.85720E-03 1.11442E-22
7.00198E-03 1.06806E-22
7.14827E-03 1.02406E-22
7.29605E-03 9.82299E-23
7.44534E-03 9.42631E-23
7.59612E-03 9.04935E-23
7.97965E-03 8.18570E-23
8.37255E-03 7.42212E-23
8.77480E-03 6.74502E-23
9.18641E-03 6.14293E-23
9.60736E-03 5.60615E-23
1.00376E-02 5.12638E-23
1.04773E-02 4.69650E-23
1.09262E-02 4.31046E-23
1.13844E-02 3.96300E-23
1.18520E-02 3.64962E-23
1.23288E-02 3.36639E-23
1.28150E-02 3.10990E-23
1.33104E-02 2.87720E-23
1.38150E-02 2.66569E-23
1.43290E-02 2.47311E-23
1.48521E-02 2.29747E-23
1.53845E-02 2.13702E-23
1.59262E-02 1.99022E-23
1.64770E-02 1.85570E-23
1.70371E-02 1.73225E-23
1.76063E-02 1.61880E-23
1.81848E-02 1.51441E-23
1.87724E-02 1.41821E-23
1.93692E-02 1.32946E-23
1.99751E-02 1.24748E-23
2.05901E-02 1.17165E-23
2.12143E-02 1.10144E-23
2.18476E-02 1.03636E-23
2.24900E-02 9.75956E-24
2.31415E-02 9.19844E-24
2.38021E-02 8.67662E-24
2.44717E-02 8.19086E-24
2.51504E-02 7.73823E-24
2.58382E-02 7.31606E-24
2.65349E-02 6.92195E-24
2.72407E-02 6.55369E-24
2.79555E-02 6.20929E-24
2.86793E-02 5.88693E-24
2.94120E-02 5.58495E-24
3.01537E-02 5.30183E-24
3.09043E-02 5.03618E-24
3.16639E-02 4.78674E-24
3.24324E-02 4.55233E-24
3.32098E-02 4.33190E-24
3.39961E-02 4.12445E-24
3.47912E-02 3.92909E-24
3.55952E-02 3.74500E-24
3.64081E-02 3.57139E-24
3.72297E-02 3.40758E-24
3.80602E-02 3.25290E-24
3.88995E-02 3.10676E-24
3.97476E-02 2.96861E-24
4.06044E-02 2.83792E-24
4.14700E-02 2.71423E-24
4.23443E-02 2.59709E-24
4.32273E-02 2.48609E-24
4.41190E-02 2.38086E-24
4.50194E-02 2.28104E-24
4.59284E-02 2.18630E-24
4.68461E-02 2.09634E-24
4.87074E-02 1.92964E-24
5.06030E-02 1.77889E-24
5.25328E-02 1.64231E-24
5.44967E-02 1.51834E-24
5.64946E-02 1.40563E-24
5.85262E-02 1.30297E-24
6.05914E-02 1.20933E-24
6.26901E-02 1.12377E-24
6.48222E-02 1.04548E-24
6.69873E-02 9.73747E-25
6.91854E-02 9.07919E-25
7.14163E-02 8.47433E-25
7.36799E-02 7.91781E-25
7.59760E-02 7.40512E-25
7.83043E-02 6.93224E-25
8.06647E-02 6.49554E-25
8.30571E-02 6.09180E-25
8.54812E-02 5.71811E-25
8.79369E-02 5.37186E-25
9.04240E-02 5.05070E-25
9.29422E-02 4.75250E-25
9.54915E-02 4.47534E-25
9.80716E-02 4.21750E-25
1.00682E-01 3.97741E-25
1.03323E-01 3.75363E-25
1.05995E-01 3.54487E-25
1.08696E-01 3.34996E-25
1.11427E-01 3.16783E-25
1.14188E-01 2.99749E-25
1.16978E-01 2.83806E-25
1.19797E-01 2.68873E-25
1.22645E-01 2.54874E-25
1.25522E-01 2.41742E-25
1.28428E-01 2.29413E-25
1.31361E-01 2.17832E-25
1.34323E-01 2.06944E-25
1.37313E-01 1.96702E-25
1.40330E-01 1.87061E-25
1.43375E-01 1.77980E-25
1.46447E-01 1.69421E-25
1.49545E-01 1.61349E-25
1.52671E-01 1.53732E-25
1.55823E-01 1.46540E-25
1.59001E-01 1.39746E-25
1.62205E-01 1.33324E-25
1.65435E-01 1.27249E-25
1.68690E-01 1.21501E-25
1.71970E-01 1.16060E-25
1.75276E-01 1.10905E-25
1.78606E-01 1.06019E-25
1.81961E-01 1.01387E-25
1.85340E-01 9.69924E-26
1.88743E-01 9.28216E-26
1.92169E-01 8.88614E-26
1.95619E-01 8.50994E-26
1.99092E-01 8.15240E-26
2.02589E-01 7.81246E-26
2.06107E-01 7.48911E-26
2.09649E-01 7.18142E-26
2.13212E-01 6.88850E-26
2.16797E-01 6.60954E-26
2.20404E-01 6.34376E-26
2.24032E-01 6.09045E-26
2.27680E-01 5.84892E-26
2.31350E-01 5.61855E-26
2.35040E-01 5.39874E-26
2.38751E-01 5.18894E-26
2.42481E-01 4.98860E-26
2.46231E-01 4.79725E-26
2.50000E-01 4.61441E-26
2.53788E-01 4.43965E-26
2.57595E-01 4.27256E-26
2.61421E-01 4.11275E-26
2.65264E-01 3.95985E-26
2.69126E-01 3.81352E-26
2.73005E-01 3.67344E-26
2.76901E-01 3.53929E-26
2.80814E-01 3.41079E-26
2.84744E-01 3.28767E-26
2.88691E-01 3.16966E-26
2.92653E-01 3.05652E-26
2.96632E-01 2.94802E-26
3.00625E-01 2.84395E-26
3.04634E-01 2.74409E-26
3.08658E-01 2.64825E-26
3.12697E-01 2.55624E-26
3.16749E-01 2.46789E-26
3.20816E-01 2.38303E-26
3.24896E-01 2.30151E-26
3.28990E-01 2.22316E-26
3.33097E-01 2.14786E-26
3.37216E-01 2.07546E-26
3.41348E-01 2.00584E-26
3.45492E-01 1.93888E-26
3.49647E-01 1.87445E-26
3.53814E-01 1.81246E-26
3.57992E-01 1.75279E-26
3.62181E-01 1.69534E-26
3.66381E-01 1.64003E-26
3.70590E-01 1.58675E-26
3.74810E-01 1.53543E-26
3.79039E-01 1.48599E-26
3.83277E-01 1.43834E-26
3.87524E-01 1.39241E-26
3.91780E-01 1.34812E-26
3.96044E-01 1.30543E-26
4.00316E-01 1.26425E-26
4.04596E-01 1.22452E-26
4.08882E-01 1.18620E-26
4.13176E-01 1.14922E-26
4.17476E-01 1.11352E-26
4.21783E-01 1.07907E-26
4.26095E-01 1.04580E-26
4.30413E-01 1.01368E-26
4.34737E-01 9.82651E-27
4.39065E-01 9.52681E-27
4.43398E-01 9.23726E-27
4.47736E-01 8.95748E-27
4.52077E-01 8.68708E-27
4.56422E-01 8.42571E-27
4.60770E-01 8.17303E-27
4.65122E-01 7.92872E-27
4.69476E-01 7.69246E-27
4.73832E-01 7.46396E-27
4.78190E-01 7.24291E-27
4.82550E-01 7.02906E-27
4.86912E-01 6.82213E-27
4.91274E-01 6.62188E-27
4.95637E-01 6.42806E-27
5.00000E-01 6.24044E-27
5.04363E-01 6.05879E-27
5.08726E-01 5.88290E-27
5.13088E-01 5.71257E-27
5.17450E-01 5.54760E-27
5.21810E-01 5.38780E-27
5.26168E-01 5.23298E-27
5.30524E-01 5.08298E-27
5.34878E-01 4.93762E-27
5.39230E-01 4.79675E-27
5.43578E-01 4.66020E-27
5.47923E-01 4.52784E-27
5.52264E-01 4.39951E-27
5.56602E-01 4.27508E-27
5.60935E-01 4.15442E-27
5.65263E-01 4.03739E-27
5.69587E-01 3.92389E-27
5.73905E-01 3.81378E-27
5.78217E-01 3.70695E-27
5.82524E-01 3.60330E-27
5.86824E-01 3.50272E-27
5.91118E-01 3.40511E-27
5.95404E-01 3.31037E-27
5.99684E-01 3.21841E-27
6.03956E-01 3.12914E-27
6.08220E-01 3.04246E-27
6.12476E-01 2.95830E-27
6.16723E-01 2.87658E-27
6.20961E-01 2.79721E-27
6.25190E-01 2.72012E-27
6.29410E-01 2.64524E-27
6.33619E-01 2.57250E-27
6.37819E-01 2.50182E-27
6.42008E-01 2.43316E-27
6.46186E-01 2.36643E-27
6.50353E-01 2.30159E-27
6.54508E-01 2.23857E-27
6.58652E-01 2.17732E-27
6.62784E-01 2.11778E-27
6.66903E-01 2.05989E-27
6.71010E-01 2.00362E-27
6.75104E-01 1.94890E-27
6.79184E-01 1.89570E-27
6.83251E-01 1.84396E-27
6.87303E-01 1.79364E-27
6.91342E-01 1.74470E-27
6.95366E-01 1.69710E-27
6.99375E-01 1.65080E-27
7.03368E-01 1.60575E-27
7.07347E-01 1.56192E-27
7.11309E-01 1.51928E-27
7.15256E-01 1.47779E-27
7.19186E-01 1.43741E-27
7.23099E-01 1.39812E-27
7.26995E-01 1.35988E-27
7.30874E-01 1.32266E-27
7.34736E-01 1.28643E-27
7.38579E-01 1.25116E-27
7.42405E-01 1.21683E-27
7.46212E-01 1.18340E-27
7.50000E-01 1.15086E-27
7.53769E-01 1.11918E-27
7.57519E-01 1.08832E-27
7.61249E-01 1.05828E-27
7.64960E-01 1.02902E-27
7.68650E-01 1.00052E-27
7.72320E-01 9.72771E-28
7.75968E-01 9.45739E-28
7.79596E-01 9.19410E-28
7.83203E-01 8.93762E-28
7.86788E-01 8.68778E-28
7.90351E-01 8.44438E-28
7.93893E-01 8.20725E-28
7.97411E-01 7.97622E-28
8.00908E-01 7.75113E-28
8.04381E-01 7.53180E-28
8.07831E-01 7.31809E-28
8.11257E-01 7.10985E-28
8.14660E-01 6.90691E-28
8.18039E-01 6.70915E-28
8.21394E-01 6.51643E-28
8.24724E-01 6.32860E-28
8.28030E-01 6.14554E-28
8.31310E-01 5.96713E-28
8.34565E-01 5.79324E-28
8.37795E-01 5.62375E-28
8.40999E-01 5.45854E-28
8.44177E-01 5.29751E-28
8.47329E-01 5.14055E-28
8.50455E-01 4.98755E-28
8.53553E-01 4.83841E-28
8.56625E-01 4.69303E-28
8.59670E-01 4.55131E-28
8.62687E-01 4.41316E-28
8.65677E-01 4.27849E-28
8.68639E-01 4.14721E-28
8.71572E-01 4.01923E-28
8.74478E-01 3.89448E-28
8.77355E-01 3.77288E-28
8.80203E-01 3.65433E-28
8.83022E-01 3.53878E-28
8.85812E-01 3.42614E-28
8.88573E-01 3.31634E-28
8.91304E-01 3.20932E-28
8.94005E-01 3.10500E-28
8.96677E-01 3.00332E-28
8.99318E-01 2.90422E-28
9.01928E-01 2.80764E-28
9.04508E-01 2.71351E-28
9.07058E-01 2.62178E-28
9.09576E-01 2.53239E-28
9.12063E-01 2.44529E-28
9.14519E-01 2.36042E-28
9.16943E-01 2.27773E-28
9.19335E-01 2.19717E-28
9.21696E-01 2.11869E-28
9.24024E-01 2.04225E-28
9.26320E-01 1.96779E-28
9.28584E-01 1.89528E-28
9.30815E-01 1.82467E-28
9.33013E-01 1.75592E-28
9.35178E-01 1.68899E-28
9.37310E-01 1.62384E-28
9.39409E-01 1.56042E-28
9.41474E-01 1.49871E-28
9.43505E-01 1.43867E-28
9.45503E-01 1.38026E-28
9.47467E-01 1.32344E-28
9.49397E-01 1.26819E-28
9.51293E-01 1.21447E-28
9.53154E-01 1.16225E-28
9.54981E-01 1.11151E-28
9.56773E-01 1.06220E-28
9.58530E-01 1.01431E-28
9.60252E-01 9.67810E-29
9.61940E-01 9.22666E-29
9.63592E-01 8.78857E-29
9.65209E-01 8.36357E-29
9.66790E-01 7.95143E-29
9.68336E-01 7.55190E-29
9.69846E-01 7.16478E-29
9.71321E-01 6.78983E-29
9.72759E-01 6.42685E-29
9.74162E-01 6.07563E-29
9.75528E-01 5.73598E-29
9.76858E-01 5.40771E-29
9.78152E-01 5.09064E-29
9.79410E-01 4.78459E-29
9.80631E-01 4.48939E-29
9.81815E-01 4.20488E-29
9.82963E-01 3.93089E-29
9.84074E-01 3.66729E-29
9.85148E-01 3.41392E-29
9.86185E-01 3.17065E-29
9.87185E-01 2.93734E-29
9.88148E-01 2.71386E-29
9.89074E-01 2.50009E-29
9.89962E-01 2.29592E-29
9.90814E-01 2.10123E-29
9.91627E-01 1.91592E-29
9.92404E-01 1.73989E-29
9.93143E-01 1.57303E-29
9.93844E-01 1.41527E-29
9.94508E-01 1.26651E-29
9.95134E-01 1.12668E-29
9.95722E-01 9.95695E-30
9.96273E-01 8.73488E-30
9.96786E-01 7.59993E-30
9.97261E-01 6.55148E-30
9.97698E-01 5.58897E-30
9.98097E-01 4.71188E-30
9.98459E-01 3.91974E-30
9.98782E-01 3.21212E-30
9.99067E-01 2.58865E-30
9.99315E-01 2.04898E-30
9.99524E-01 1.59282E-30
9.99695E-01 1.21994E-30
9.99829E-01 9.30128E-31
9.99924E-01 7.23231E-31
9.99981E-01 5.99136E-31
1.00000E+00 5.57778E-31
