 #
 # Subroutine ELSEPA. Elastic scattering of electrons and positrons
 #                    by neutral atoms and positive ions
 #
 # Projectile: positron
 # Kinetic energy = 1.75000E+08 eV = 6.43113E+06 a.u.
 #
 # WARNING: High-energy factorization with free-atom DF screening.
 #          Absorption, polarization and exchange corrections are
 #          switched off.
 #          Phase shifts are calculated for the bare nucleus.
 #          Scattering amplitudes are not evaluated.
 #
 # Element: Mo,  Z =  42,  atomic weight = 9.59400E+01 g/mol
 #
 # Nuclear model: Fermi distribution
 #                Average radius = 4.89836E-13 cm
 #                Skin thickness = 5.46000E-14 cm
 #
 # Number of electrons = 42
 #
 # Total elastic cross section = 4.05712E-18 cm**2 = 1.44882E-01 a0**2
 # 1st transport cross section = 1.12899E-25 cm**2 = 4.03169E-09 a0**2
 # 2nd transport cross section = 3.37524E-25 cm**2 = 1.20532E-08 a0**2
 #
 #
 # Differential cross section:                       MU=(1-COS(THETA))/2
 #
 #  THETA        MU          DCS          DCS        Sherman      error
 #  (deg)                 (cm**2/sr)   (a0**2/sr)    function
 #----------------------------------------------------------------------
0.00000E+00 1.21933E-09
7.61557E-13 1.20797E-09
1.18994E-12 1.20167E-09
1.71346E-12 1.19406E-09
2.33225E-12 1.18516E-09
3.04617E-12 1.17504E-09
3.85530E-12 1.16376E-09
4.75964E-12 1.15138E-09
5.75917E-12 1.13796E-09
6.85391E-12 1.12358E-09
8.04379E-12 1.10829E-09
9.32893E-12 1.09219E-09
1.07092E-11 1.07539E-09
1.21847E-11 1.05794E-09
1.37554E-11 1.03986E-09
1.54213E-11 1.02133E-09
1.71823E-11 1.00239E-09
1.90386E-11 9.83024E-10
2.09900E-11 9.63439E-10
2.30367E-11 9.43681E-10
2.51785E-11 9.23662E-10
2.74156E-11 9.03624E-10
2.97478E-11 8.83626E-10
3.21752E-11 8.63505E-10
3.46979E-11 8.43527E-10
3.73157E-11 8.23739E-10
4.00286E-11 8.03986E-10
4.28368E-11 7.84473E-10
4.57402E-11 7.65264E-10
4.87388E-11 7.46215E-10
5.18325E-11 7.27465E-10
5.50215E-11 7.09098E-10
5.83057E-11 6.90987E-10
6.16850E-11 6.73204E-10
6.51595E-11 6.55852E-10
6.87293E-11 6.38826E-10
7.23943E-11 6.22130E-10
7.61544E-11 6.05890E-10
1.18991E-10 4.64293E-10
1.71347E-10 3.57527E-10
2.33223E-10 2.78093E-10
3.04617E-10 2.18676E-10
3.85531E-10 1.73710E-10
4.75965E-10 1.39251E-10
5.75917E-10 1.12513E-10
6.85389E-10 9.15989E-11
8.04380E-10 7.46116E-11
9.32891E-10 6.12795E-11
1.07092E-09 5.11838E-11
1.21847E-09 4.30284E-11
1.37554E-09 3.61238E-11
1.54213E-09 3.07100E-11
1.71823E-09 2.63239E-11
1.90386E-09 2.25715E-11
2.09900E-09 1.95405E-11
2.30367E-09 1.70517E-11
2.51785E-09 1.48990E-11
2.74156E-09 1.31165E-11
2.97478E-09 1.16284E-11
3.21752E-09 1.03202E-11
3.46978E-09 9.21422E-12
3.73156E-09 8.27346E-12
4.00286E-09 7.43685E-12
4.28368E-09 6.71353E-12
4.57402E-09 6.08887E-12
4.87388E-09 5.52698E-12
5.18326E-09 5.03126E-12
5.50215E-09 4.59788E-12
5.83057E-09 4.20514E-12
6.16850E-09 3.85216E-12
6.51596E-09 3.54048E-12
6.87293E-09 3.25711E-12
7.23942E-09 2.99829E-12
7.61544E-09 2.76783E-12
1.18991E-08 1.31926E-12
1.71347E-08 6.89794E-13
2.33223E-08 3.91053E-13
3.04617E-08 2.37984E-13
3.85531E-08 1.53492E-13
4.75965E-08 1.03702E-13
5.75917E-08 7.27340E-14
6.85389E-08 5.25635E-14
8.04380E-08 3.89015E-14
9.32891E-08 2.94240E-14
1.07092E-07 2.26548E-14
1.21847E-07 1.77003E-14
1.37554E-07 1.40243E-14
1.54213E-07 1.12503E-14
1.71823E-07 9.12585E-15
1.90386E-07 7.47757E-15
2.09900E-07 6.18207E-15
2.30367E-07 5.15479E-15
2.51785E-07 4.33195E-15
2.74156E-07 3.66674E-15
2.97478E-07 3.12429E-15
3.21752E-07 2.67831E-15
3.46978E-07 2.30921E-15
3.73156E-07 2.00161E-15
4.00286E-07 1.74364E-15
4.28368E-07 1.52597E-15
4.57402E-07 1.34122E-15
4.87388E-07 1.18366E-15
5.18325E-07 1.04862E-15
5.50215E-07 9.32330E-16
5.83057E-07 8.31754E-16
6.16850E-07 7.44382E-16
6.51596E-07 6.68207E-16
6.87293E-07 6.01549E-16
7.23942E-07 5.43014E-16
7.61543E-07 4.91437E-16
1.18991E-06 2.03681E-16
1.71347E-06 9.89988E-17
2.33223E-06 5.37161E-17
3.04617E-06 3.15978E-17
3.85531E-06 1.97736E-17
4.75964E-06 1.29951E-17
5.75916E-06 8.88628E-18
6.85388E-06 6.27957E-18
8.04378E-06 4.56186E-18
9.32888E-06 3.39306E-18
1.07092E-05 2.57557E-18
1.21846E-05 1.98999E-18
1.37553E-05 1.56170E-18
1.54212E-05 1.24264E-18
1.71822E-05 1.00102E-18
1.90385E-05 8.15194E-19
2.09899E-05 6.70820E-19
2.30365E-05 5.56994E-19
2.51783E-05 4.66258E-19
2.74153E-05 3.93221E-19
2.97475E-05 3.33915E-19
3.21749E-05 2.85372E-19
3.46974E-05 2.45345E-19
3.73152E-05 2.12106E-19
4.00281E-05 1.84317E-19
4.28362E-05 1.60937E-19
4.57395E-05 1.41148E-19
4.87380E-05 1.24304E-19
5.18317E-05 1.09895E-19
5.50205E-05 9.75098E-20
5.83045E-05 8.68193E-20
6.16838E-05 7.75541E-20
6.51582E-05 6.94931E-20
6.87277E-05 6.24538E-20
7.23925E-05 5.62842E-20
7.61524E-05 5.08842E-20
9.21439E-05 3.47369E-20
1.09658E-04 2.45124E-20
1.28695E-04 1.77873E-20
1.49255E-04 1.32162E-20
1.71338E-04 1.00230E-20
1.94942E-04 7.73772E-21
2.20070E-04 6.06764E-21
2.46720E-04 4.82442E-21
2.74892E-04 3.88351E-21
3.04586E-04 3.16098E-21
3.35803E-04 2.59867E-21
3.68542E-04 2.15587E-21
4.02802E-04 1.80334E-21
4.38585E-04 1.51988E-21
4.75889E-04 1.28989E-21
5.14715E-04 1.10171E-21
5.55063E-04 9.46550E-22
5.96931E-04 8.17700E-22
6.40321E-04 7.09990E-22
6.85233E-04 6.19397E-22
7.31665E-04 5.42758E-22
7.79618E-04 4.77577E-22
8.29092E-04 4.21859E-22
8.80086E-04 3.74005E-22
9.32601E-04 3.32722E-22
9.86636E-04 2.96957E-22
1.04219E-03 2.65850E-22
1.09927E-03 2.38692E-22
1.15786E-03 2.14899E-22
1.21797E-03 1.93982E-22
1.27961E-03 1.75535E-22
1.34276E-03 1.59217E-22
1.40743E-03 1.44741E-22
1.47362E-03 1.31862E-22
1.54133E-03 1.20375E-22
1.61056E-03 1.10103E-22
1.68131E-03 1.00896E-22
1.75357E-03 9.26243E-23
1.82735E-03 8.51762E-23
1.90265E-03 7.84557E-23
1.97947E-03 7.23793E-23
2.05780E-03 6.68747E-23
2.13765E-03 6.18786E-23
2.21902E-03 5.73359E-23
2.30190E-03 5.31983E-23
2.38630E-03 4.94233E-23
2.47222E-03 4.59736E-23
2.55965E-03 4.28164E-23
2.64859E-03 3.99223E-23
2.73905E-03 3.72657E-23
2.83103E-03 3.48237E-23
2.92452E-03 3.25759E-23
3.01952E-03 3.05041E-23
3.11604E-03 2.85921E-23
3.21407E-03 2.68255E-23
3.31362E-03 2.51912E-23
3.41468E-03 2.36776E-23
3.51725E-03 2.22742E-23
3.62133E-03 2.09715E-23
3.72692E-03 1.97611E-23
3.83403E-03 1.86354E-23
3.94265E-03 1.75872E-23
4.05278E-03 1.66104E-23
4.16442E-03 1.56991E-23
4.27757E-03 1.48484E-23
4.39223E-03 1.40533E-23
4.50840E-03 1.33097E-23
4.62608E-03 1.26136E-23
4.74527E-03 1.19615E-23
4.86597E-03 1.13501E-23
4.98817E-03 1.07763E-23
5.11188E-03 1.02376E-23
5.23711E-03 9.73128E-24
5.36383E-03 9.25515E-24
5.49207E-03 8.80708E-24
5.62181E-03 8.38512E-24
5.75306E-03 7.98749E-24
5.88581E-03 7.61253E-24
6.02007E-03 7.25873E-24
6.15583E-03 6.92469E-24
6.29310E-03 6.60911E-24
6.43187E-03 6.31080E-24
6.57214E-03 6.02864E-24
6.71392E-03 5.76160E-24
6.85720E-03 5.50874E-24
7.00198E-03 5.26918E-24
7.14827E-03 5.04209E-24
7.29605E-03 4.82671E-24
7.44534E-03 4.62233E-24
7.59612E-03 4.42830E-24
7.97965E-03 3.98455E-24
8.37255E-03 3.59322E-24
8.77480E-03 3.24714E-24
9.18641E-03 2.94027E-24
9.60736E-03 2.66746E-24
1.00376E-02 2.42436E-24
1.04773E-02 2.20722E-24
1.09262E-02 2.01283E-24
1.13844E-02 1.83846E-24
1.18520E-02 1.68171E-24
1.23288E-02 1.54054E-24
1.28150E-02 1.41316E-24
1.33104E-02 1.29802E-24
1.38150E-02 1.19376E-24
1.43290E-02 1.09920E-24
1.48521E-02 1.01331E-24
1.53845E-02 9.35166E-25
1.59262E-02 8.63970E-25
1.64770E-02 7.99014E-25
1.70371E-02 7.39669E-25
1.76063E-02 6.85381E-25
1.81848E-02 6.35656E-25
1.87724E-02 5.90056E-25
1.93692E-02 5.48190E-25
1.99751E-02 5.09708E-25
2.05901E-02 4.74299E-25
2.12143E-02 4.41683E-25
2.18476E-02 4.11608E-25
2.24900E-02 3.83851E-25
2.31415E-02 3.58208E-25
2.38021E-02 3.34496E-25
2.44717E-02 3.12550E-25
2.51504E-02 2.92221E-25
2.58382E-02 2.73375E-25
2.65349E-02 2.55890E-25
2.72407E-02 2.39653E-25
2.79555E-02 2.24566E-25
2.86793E-02 2.10536E-25
2.94120E-02 1.97480E-25
3.01537E-02 1.85321E-25
3.09043E-02 1.73992E-25
3.16639E-02 1.63427E-25
3.24324E-02 1.53570E-25
3.32098E-02 1.44368E-25
3.39961E-02 1.35772E-25
3.47912E-02 1.27737E-25
3.55952E-02 1.20223E-25
3.64081E-02 1.13191E-25
3.72297E-02 1.06609E-25
3.80602E-02 1.00443E-25
3.88995E-02 9.46654E-26
3.97476E-02 8.92480E-26
4.06044E-02 8.41665E-26
4.14700E-02 7.93978E-26
4.23443E-02 7.49208E-26
4.32273E-02 7.07157E-26
4.41190E-02 6.67645E-26
4.50194E-02 6.30503E-26
4.59284E-02 5.95576E-26
4.68461E-02 5.62719E-26
4.87074E-02 5.02689E-26
5.06030E-02 4.49452E-26
5.25328E-02 4.02177E-26
5.44967E-02 3.60143E-26
5.64946E-02 3.22725E-26
5.85262E-02 2.89381E-26
6.05914E-02 2.59635E-26
6.26901E-02 2.33074E-26
6.48222E-02 2.09335E-26
6.69873E-02 1.88100E-26
6.91854E-02 1.69089E-26
7.14163E-02 1.52057E-26
7.36799E-02 1.36787E-26
7.59760E-02 1.23088E-26
7.83043E-02 1.10790E-26
8.06647E-02 9.97448E-27
8.30571E-02 8.98188E-27
8.54812E-02 8.08946E-27
8.79369E-02 7.28674E-27
9.04240E-02 6.56442E-27
9.29422E-02 5.91420E-27
9.54915E-02 5.32870E-27
9.80716E-02 4.80132E-27
1.00682E-01 4.32616E-27
1.03323E-01 3.89796E-27
1.05995E-01 3.51198E-27
1.08696E-01 3.16402E-27
1.11427E-01 2.85029E-27
1.14188E-01 2.56738E-27
1.16978E-01 2.31224E-27
1.19797E-01 2.08214E-27
1.22645E-01 1.87461E-27
1.25522E-01 1.68745E-27
1.28428E-01 1.51864E-27
1.31361E-01 1.36641E-27
1.34323E-01 1.22913E-27
1.37313E-01 1.10535E-27
1.40330E-01 9.93759E-28
1.43375E-01 8.93162E-28
1.46447E-01 8.02497E-28
1.49545E-01 7.20798E-28
1.52671E-01 6.47194E-28
1.55823E-01 5.80900E-28
1.59001E-01 5.21205E-28
1.62205E-01 4.67467E-28
1.65435E-01 4.19108E-28
1.68690E-01 3.75603E-28
1.71970E-01 3.36478E-28
1.75276E-01 3.01306E-28
1.78606E-01 2.69700E-28
1.81961E-01 2.41311E-28
1.85340E-01 2.15822E-28
1.88743E-01 1.92947E-28
1.92169E-01 1.72428E-28
1.95619E-01 1.54033E-28
1.99092E-01 1.37549E-28
2.02589E-01 1.22786E-28
2.06107E-01 1.09573E-28
2.09649E-01 9.77524E-29
2.13212E-01 8.71852E-29
2.16797E-01 7.77440E-29
2.20404E-01 6.93142E-29
2.24032E-01 6.17926E-29
2.27680E-01 5.50857E-29
2.31350E-01 4.91095E-29
2.35040E-01 4.37882E-29
2.38751E-01 3.90534E-29
2.42481E-01 3.48435E-29
2.46231E-01 3.11030E-29
2.50000E-01 2.77821E-29
2.53788E-01 2.48359E-29
2.57595E-01 2.22239E-29
2.61421E-01 1.99100E-29
2.65264E-01 1.78616E-29
2.69126E-01 1.60493E-29
2.73005E-01 1.44470E-29
2.76901E-01 1.30313E-29
2.80814E-01 1.17810E-29
2.84744E-01 1.06773E-29
2.88691E-01 9.70346E-30
2.92653E-01 8.84434E-30
2.96632E-01 8.08654E-30
3.00625E-01 7.41811E-30
3.04634E-01 6.82838E-30
3.08658E-01 6.30786E-30
3.12697E-01 5.84814E-30
3.16749E-01 5.44172E-30
3.20816E-01 5.08198E-30
3.24896E-01 4.76305E-30
3.28990E-01 4.47973E-30
3.33097E-01 4.22745E-30
3.37216E-01 4.00216E-30
3.41348E-01 3.80032E-30
3.45492E-01 3.61881E-30
3.49647E-01 3.45489E-30
3.53814E-01 3.30618E-30
3.57992E-01 3.17058E-30
3.62181E-01 3.04629E-30
3.66381E-01 2.93172E-30
3.70590E-01 2.82551E-30
3.74810E-01 2.72648E-30
3.79039E-01 2.63362E-30
3.83277E-01 2.54606E-30
3.87524E-01 2.46305E-30
3.91780E-01 2.38396E-30
3.96044E-01 2.30825E-30
4.00316E-01 2.23548E-30
4.04596E-01 2.16527E-30
4.08882E-01 2.09731E-30
4.13176E-01 2.03133E-30
4.17476E-01 1.96713E-30
4.21783E-01 1.90453E-30
4.26095E-01 1.84339E-30
4.30413E-01 1.78361E-30
4.34737E-01 1.72511E-30
4.39065E-01 1.66781E-30
4.43398E-01 1.61168E-30
4.47736E-01 1.55668E-30
4.52077E-01 1.50279E-30
4.56422E-01 1.44999E-30
4.60770E-01 1.39829E-30
4.65122E-01 1.34767E-30
4.69476E-01 1.29814E-30
4.73832E-01 1.24971E-30
4.78190E-01 1.20238E-30
4.82550E-01 1.15617E-30
4.86912E-01 1.11107E-30
4.91274E-01 1.06711E-30
4.95637E-01 1.02428E-30
5.00000E-01 9.82582E-31
5.04363E-01 9.42032E-31
5.08726E-01 9.02627E-31
5.13088E-01 8.64367E-31
5.17450E-01 8.27250E-31
5.21810E-01 7.91273E-31
5.26168E-01 7.56430E-31
5.30524E-01 7.22713E-31
5.34878E-01 6.90113E-31
5.39230E-01 6.58619E-31
5.43578E-01 6.28216E-31
5.47923E-01 5.98892E-31
5.52264E-01 5.70629E-31
5.56602E-01 5.43410E-31
5.60935E-01 5.17216E-31
5.65263E-01 4.92028E-31
5.69587E-01 4.67825E-31
5.73905E-01 4.44584E-31
5.78217E-01 4.22284E-31
5.82524E-01 4.00901E-31
5.86824E-01 3.80411E-31
5.91118E-01 3.60791E-31
5.95404E-01 3.42015E-31
5.99684E-01 3.24060E-31
6.03956E-01 3.06899E-31
6.08220E-01 2.90510E-31
6.12476E-01 2.74865E-31
6.16723E-01 2.59941E-31
6.20961E-01 2.45713E-31
6.25190E-01 2.32157E-31
6.29410E-01 2.19247E-31
6.33619E-01 2.06962E-31
6.37819E-01 1.95276E-31
6.42008E-01 1.84167E-31
6.46186E-01 1.73612E-31
6.50353E-01 1.63589E-31
6.54508E-01 1.54077E-31
6.58652E-01 1.45053E-31
6.62784E-01 1.36498E-31
6.66903E-01 1.28391E-31
6.71010E-01 1.20713E-31
6.75104E-01 1.13445E-31
6.79184E-01 1.06569E-31
6.83251E-01 1.00065E-31
6.87303E-01 9.39185E-32
6.91342E-01 8.81112E-32
6.95366E-01 8.26275E-32
6.99375E-01 7.74519E-32
7.03368E-01 7.25693E-32
7.07347E-01 6.79655E-32
7.11309E-01 6.36265E-32
7.15256E-01 5.95391E-32
7.19186E-01 5.56905E-32
7.23099E-01 5.20685E-32
7.26995E-01 4.86613E-32
7.30874E-01 4.54577E-32
7.34736E-01 4.24469E-32
7.38579E-01 3.96187E-32
7.42405E-01 3.69632E-32
7.46212E-01 3.44711E-32
7.50000E-01 3.21334E-32
7.53769E-01 2.99415E-32
7.57519E-01 2.78873E-32
7.61249E-01 2.59632E-32
7.64960E-01 2.41616E-32
7.68650E-01 2.24756E-32
7.72320E-01 2.08985E-32
7.75968E-01 1.94240E-32
7.79596E-01 1.80461E-32
7.83203E-01 1.67590E-32
7.86788E-01 1.55574E-32
7.90351E-01 1.44361E-32
7.93893E-01 1.33903E-32
7.97411E-01 1.24154E-32
8.00908E-01 1.15069E-32
8.04381E-01 1.06609E-32
8.07831E-01 9.87336E-33
8.11257E-01 9.14066E-33
8.14660E-01 8.45930E-33
8.18039E-01 7.82602E-33
8.21394E-01 7.23773E-33
8.24724E-01 6.69152E-33
8.28030E-01 6.18464E-33
8.31310E-01 5.71450E-33
8.34565E-01 5.27868E-33
8.37795E-01 4.87487E-33
8.40999E-01 4.50092E-33
8.44177E-01 4.15482E-33
8.47329E-01 3.83466E-33
8.50455E-01 3.53865E-33
8.53553E-01 3.26512E-33
8.56625E-01 3.01250E-33
8.59670E-01 2.77931E-33
8.62687E-01 2.56417E-33
8.65677E-01 2.36579E-33
8.68639E-01 2.18297E-33
8.71572E-01 2.01456E-33
8.74478E-01 1.85951E-33
8.77355E-01 1.71683E-33
8.80203E-01 1.58560E-33
8.83022E-01 1.46496E-33
8.85812E-01 1.35409E-33
8.88573E-01 1.25226E-33
8.91304E-01 1.15876E-33
8.94005E-01 1.07295E-33
8.96677E-01 9.94215E-34
8.99318E-01 9.21996E-34
9.01928E-01 8.55771E-34
9.04508E-01 7.95054E-34
9.07058E-01 7.39394E-34
9.09576E-01 6.88373E-34
9.12063E-01 6.41606E-34
9.14519E-01 5.98734E-34
9.16943E-01 5.59424E-34
9.19335E-01 5.23370E-34
9.21696E-01 4.90291E-34
9.24024E-01 4.59924E-34
9.26320E-01 4.32029E-34
9.28584E-01 4.06384E-34
9.30815E-01 3.82787E-34
9.33013E-01 3.61049E-34
9.35178E-01 3.40997E-34
9.37310E-01 3.22476E-34
9.39409E-01 3.05339E-34
9.41474E-01 2.89455E-34
9.43505E-01 2.74703E-34
9.45503E-01 2.60974E-34
9.47467E-01 2.48168E-34
9.49397E-01 2.36191E-34
9.51293E-01 2.24965E-34
9.53154E-01 2.14412E-34
9.54981E-01 2.04466E-34
9.56773E-01 1.95066E-34
9.58530E-01 1.86157E-34
9.60252E-01 1.77691E-34
9.61940E-01 1.69622E-34
9.63592E-01 1.61911E-34
9.65209E-01 1.54524E-34
9.66790E-01 1.47432E-34
9.68336E-01 1.40605E-34
9.69846E-01 1.34022E-34
9.71321E-01 1.27661E-34
9.72759E-01 1.21503E-34
9.74162E-01 1.15532E-34
9.75528E-01 1.09741E-34
9.76858E-01 1.04112E-34
9.78152E-01 9.86401E-35
9.79410E-01 9.33172E-35
9.80631E-01 8.81375E-35
9.81815E-01 8.30933E-35
9.82963E-01 7.81860E-35
9.84074E-01 7.34097E-35
9.85148E-01 6.87679E-35
9.86185E-01 6.42542E-35
9.87185E-01 5.98743E-35
9.88148E-01 5.56243E-35
9.89074E-01 5.15101E-35
9.89962E-01 4.75323E-35
9.90814E-01 4.36897E-35
9.91627E-01 3.99896E-35
9.92404E-01 3.64320E-35
9.93143E-01 3.30221E-35
9.93844E-01 2.97601E-35
9.94508E-01 2.66534E-35
9.95134E-01 2.37011E-35
9.95722E-01 2.09077E-35
9.96273E-01 1.82780E-35
9.96786E-01 1.58145E-35
9.97261E-01 1.35198E-35
9.97698E-01 1.13970E-35
9.98097E-01 9.44901E-36
9.98459E-01 7.67745E-36
9.98782E-01 6.08571E-36
9.99067E-01 4.67567E-36
9.99315E-01 3.45071E-36
9.99524E-01 2.41012E-36
9.99695E-01 1.55725E-36
9.99829E-01 8.92385E-37
9.99924E-01 4.17351E-37
9.99981E-01 1.31390E-37
1.00000E+00 3.60358E-38
